Time,ECG1,ECG2
09:02:00.120,0.46,-0.24
09:02:00.124,0.65,-0.275
09:02:00.128,0.77,-0.405
09:02:00.132,0.765,-0.615
09:02:00.136,0.39,-0.9
09:02:00.140,-0.43,-1.19
09:02:00.144,-1.2,-1.52
09:02:00.148,-1.61,-1.86
09:02:00.152,-1.67,-2.035
09:02:00.156,-1.57,-2.205
09:02:00.160,-1.44,-2.225
09:02:00.164,-1.185,-2.005
09:02:00.168,-0.925,-1.73
09:02:00.172,-0.72,-1.455
09:02:00.176,-0.6,-1.175
09:02:00.180,-0.5,-0.945
09:02:00.184,-0.465,-0.705
09:02:00.188,-0.42,-0.52
09:02:00.192,-0.41,-0.44
09:02:00.196,-0.44,-0.405
09:02:00.200,-0.45,-0.385
09:02:00.204,-0.455,-0.365
09:02:00.208,-0.44,-0.365
09:02:00.212,-0.44,-0.37
09:02:00.216,-0.43,-0.39
09:02:00.220,-0.42,-0.33
09:02:00.224,-0.425,-0.335
09:02:00.228,-0.435,-0.33
09:02:00.232,-0.425,-0.355
09:02:00.236,-0.4,-0.34
09:02:00.240,-0.4,-0.33
09:02:00.244,-0.43,-0.325
09:02:00.248,-0.43,-0.345
09:02:00.252,-0.465,-0.315
09:02:00.256,-0.45,-0.315
09:02:00.260,-0.45,-0.315
09:02:00.264,-0.44,-0.35
09:02:00.268,-0.42,-0.305
09:02:00.272,-0.44,-0.31
09:02:00.276,-0.445,-0.32
09:02:00.280,-0.435,-0.35
09:02:00.284,-0.425,-0.35
09:02:00.288,-0.455,-0.36
09:02:00.292,-0.455,-0.345
09:02:00.296,-0.49,-0.335
09:02:00.300,-0.51,-0.37
09:02:00.304,-0.535,-0.36
09:02:00.308,-0.575,-0.365
09:02:00.312,-0.58,-0.4
09:02:00.316,-0.565,-0.39
09:02:00.320,-0.575,-0.38
09:02:00.324,-0.635,-0.4
09:02:00.328,-0.64,-0.41
09:02:00.332,-0.665,-0.405
09:02:00.336,-0.705,-0.42
09:02:00.340,-0.72,-0.425
09:02:00.344,-0.735,-0.405
09:02:00.348,-0.77,-0.415
09:02:00.352,-0.775,-0.465
09:02:00.356,-0.82,-0.475
09:02:00.360,-0.85,-0.47
09:02:00.364,-0.86,-0.5
09:02:00.368,-0.835,-0.505
09:02:00.372,-0.85,-0.495
09:02:00.376,-0.875,-0.515
09:02:00.380,-0.9,-0.55
09:02:00.384,-0.93,-0.55
09:02:00.388,-0.955,-0.575
09:02:00.392,-0.985,-0.605
09:02:00.396,-0.985,-0.625
09:02:00.400,-0.975,-0.63
09:02:00.404,-0.935,-0.63
09:02:00.408,-0.92,-0.655
09:02:00.412,-0.88,-0.655
09:02:00.416,-0.81,-0.65
09:02:00.420,-0.72,-0.615
09:02:00.424,-0.665,-0.635
09:02:00.428,-0.585,-0.64
09:02:00.432,-0.535,-0.6
09:02:00.436,-0.485,-0.585
09:02:00.440,-0.41,-0.555
09:02:00.444,-0.325,-0.57
09:02:00.448,-0.255,-0.525
09:02:00.452,-0.175,-0.475
09:02:00.456,-0.16,-0.415
09:02:00.460,-0.16,-0.38
09:02:00.464,-0.16,-0.35
09:02:00.468,-0.16,-0.345
09:02:00.472,-0.185,-0.28
09:02:00.476,-0.215,-0.26
09:02:00.480,-0.205,-0.21
09:02:00.484,-0.25,-0.215
09:02:00.488,-0.28,-0.265
09:02:00.492,-0.27,-0.29
09:02:00.496,-0.285,-0.3
09:02:00.500,-0.305,-0.28
09:02:00.504,-0.28,-0.295
09:02:00.508,-0.305,-0.33
09:02:00.512,-0.305,-0.33
09:02:00.516,-0.31,-0.315
09:02:00.520,-0.335,-0.3
09:02:00.524,-0.34,-0.34
09:02:00.528,-0.34,-0.365
09:02:00.532,-0.345,-0.375
09:02:00.536,-0.37,-0.38
09:02:00.540,-0.395,-0.415
09:02:00.544,-0.375,-0.395
09:02:00.548,-0.36,-0.345
09:02:00.552,-0.355,-0.36
09:02:00.556,-0.325,-0.385
09:02:00.560,-0.32,-0.37
09:02:00.564,-0.345,-0.405
09:02:00.568,-0.39,-0.4
09:02:00.572,-0.405,-0.395
09:02:00.576,-0.39,-0.385
09:02:00.580,-0.38,-0.4
09:02:00.584,-0.39,-0.39
09:02:00.588,-0.4,-0.435
09:02:00.592,-0.405,-0.435
09:02:00.596,-0.385,-0.435
09:02:00.600,-0.35,-0.455
09:02:00.604,-0.355,-0.435
09:02:00.608,-0.36,-0.42
09:02:00.612,-0.36,-0.4
09:02:00.616,-0.365,-0.4
09:02:00.620,-0.375,-0.415
09:02:00.624,-0.38,-0.43
09:02:00.628,-0.355,-0.42
09:02:00.632,-0.355,-0.425
09:02:00.636,-0.33,-0.4
09:02:00.640,-0.28,-0.385
09:02:00.644,-0.135,-0.305
09:02:00.648,0.155,-0.29
09:02:00.652,0.525,-0.35
09:02:00.656,0.765,-0.385
09:02:00.660,0.93,-0.5
09:02:00.664,0.84,-0.67
09:02:00.668,0.22,-0.845
09:02:00.672,-0.66,-1.04
09:02:00.676,-1.335,-1.345
09:02:00.680,-1.6,-1.665
09:02:00.684,-1.615,-1.875
09:02:00.688,-1.5,-2.035
09:02:00.692,-1.3,-2.055
09:02:00.696,-1.01,-1.84
09:02:00.700,-0.775,-1.505
09:02:00.704,-0.565,-1.245
09:02:00.708,-0.465,-1.055
09:02:00.712,-0.435,-0.82
09:02:00.716,-0.42,-0.63
09:02:00.720,-0.405,-0.52
09:02:00.724,-0.4,-0.455
09:02:00.728,-0.385,-0.42
09:02:00.732,-0.375,-0.42
09:02:00.736,-0.375,-0.395
09:02:00.740,-0.335,-0.39
09:02:00.744,-0.35,-0.39
09:02:00.748,-0.34,-0.385
09:02:00.752,-0.33,-0.38
09:02:00.756,-0.34,-0.355
09:02:00.760,-0.33,-0.36
09:02:00.764,-0.32,-0.34
09:02:00.768,-0.35,-0.365
09:02:00.772,-0.335,-0.345
09:02:00.776,-0.295,-0.35
09:02:00.780,-0.29,-0.335
09:02:00.784,-0.325,-0.33
09:02:00.788,-0.33,-0.32
09:02:00.792,-0.355,-0.33
09:02:00.796,-0.33,-0.35
09:02:00.800,-0.34,-0.32
09:02:00.804,-0.375,-0.32
09:02:00.808,-0.375,-0.32
09:02:00.812,-0.37,-0.32
09:02:00.816,-0.365,-0.335
09:02:00.820,-0.375,-0.355
09:02:00.824,-0.355,-0.31
09:02:00.828,-0.335,-0.31
09:02:00.832,-0.375,-0.31
09:02:00.836,-0.395,-0.335
09:02:00.840,-0.42,-0.34
09:02:00.844,-0.46,-0.32
09:02:00.848,-0.49,-0.32
09:02:00.852,-0.485,-0.35
09:02:00.856,-0.515,-0.32
09:02:00.860,-0.52,-0.34
09:02:00.864,-0.535,-0.36
09:02:00.868,-0.54,-0.32
09:02:00.872,-0.525,-0.335
09:02:00.876,-0.555,-0.345
09:02:00.880,-0.595,-0.365
09:02:00.884,-0.62,-0.38
09:02:00.888,-0.625,-0.385
09:02:00.892,-0.63,-0.38
09:02:00.896,-0.655,-0.39
09:02:00.900,-0.655,-0.395
09:02:00.904,-0.665,-0.43
09:02:00.908,-0.645,-0.44
09:02:00.912,-0.615,-0.445
09:02:00.916,-0.585,-0.445
09:02:00.920,-0.545,-0.445
09:02:00.924,-0.475,-0.425
09:02:00.928,-0.465,-0.45
09:02:00.932,-0.42,-0.49
09:02:00.936,-0.415,-0.48
09:02:00.940,-0.4,-0.46
09:02:00.944,-0.345,-0.46
09:02:00.948,-0.31,-0.41
09:02:00.952,-0.285,-0.415
09:02:00.956,-0.245,-0.41
09:02:00.960,-0.18,-0.365
09:02:00.964,-0.155,-0.335
09:02:00.968,-0.145,-0.31
09:02:00.972,-0.18,-0.315
09:02:00.976,-0.17,-0.285
09:02:00.980,-0.195,-0.245
09:02:00.984,-0.235,-0.24
09:02:00.988,-0.205,-0.27
09:02:00.992,-0.21,-0.235
09:02:00.996,-0.22,-0.215
09:02:01.000,-0.22,-0.19
09:02:01.004,-0.215,-0.21
09:02:01.008,-0.19,-0.22
09:02:01.012,-0.17,-0.24
09:02:01.016,-0.165,-0.23
09:02:01.020,-0.2,-0.24
09:02:01.024,-0.205,-0.23
09:02:01.028,-0.205,-0.21
09:02:01.032,-0.255,-0.205
09:02:01.036,-0.255,-0.22
09:02:01.040,-0.235,-0.26
09:02:01.044,-0.235,-0.23
09:02:01.048,-0.22,-0.21
09:02:01.052,-0.24,-0.22
09:02:01.056,-0.22,-0.23
09:02:01.060,-0.22,-0.245
09:02:01.064,-0.235,-0.23
09:02:01.068,-0.225,-0.205
09:02:01.072,-0.235,-0.215
09:02:01.076,-0.245,-0.22
09:02:01.080,-0.26,-0.23
09:02:01.084,-0.265,-0.2
09:02:01.088,-0.22,-0.215
09:02:01.092,-0.24,-0.225
09:02:01.096,-0.225,-0.21
09:02:01.100,-0.23,-0.21
09:02:01.104,-0.2,-0.23
09:02:01.108,-0.205,-0.225
09:02:01.112,-0.18,-0.23
09:02:01.116,-0.125,-0.23
09:02:01.120,-0.065,-0.215
09:02:01.124,-0.02,-0.195
09:02:01.128,0.02,-0.185
09:02:01.132,0.06,-0.11
09:02:01.136,0.09,-0.08
09:02:01.140,0.07,-0.065
09:02:01.144,0.095,-0.06
09:02:01.148,0.075,-0.085
09:02:01.152,0.04,-0.115
09:02:01.156,-0.015,-0.125
09:02:01.160,-0.085,-0.145
09:02:01.164,-0.12,-0.145
09:02:01.168,-0.17,-0.17
09:02:01.172,-0.23,-0.185
09:02:01.176,-0.285,-0.185
09:02:01.180,-0.345,-0.17
09:02:01.184,-0.365,-0.205
09:02:01.188,-0.355,-0.21
09:02:01.192,-0.31,-0.26
09:02:01.196,-0.3,-0.28
09:02:01.200,-0.315,-0.27
09:02:01.204,-0.29,-0.32
09:02:01.208,-0.235,-0.295
09:02:01.212,-0.185,-0.235
09:02:01.216,-0.125,-0.18
09:02:01.220,0.075,-0.11
09:02:01.224,0.36,-0.14
09:02:01.228,0.63,-0.15
09:02:01.232,0.75,-0.225
09:02:01.236,0.835,-0.385
09:02:01.240,0.745,-0.64
09:02:01.244,0.21,-0.925
09:02:01.248,-0.64,-1.245
09:02:01.252,-1.28,-1.515
09:02:01.256,-1.52,-1.715
09:02:01.260,-1.54,-1.91
09:02:01.264,-1.425,-2.055
09:02:01.268,-1.205,-1.95
09:02:01.272,-0.925,-1.695
09:02:01.276,-0.74,-1.43
09:02:01.280,-0.565,-1.145
09:02:01.284,-0.46,-0.915
09:02:01.288,-0.395,-0.69
09:02:01.292,-0.34,-0.485
09:02:01.296,-0.345,-0.37
09:02:01.300,-0.35,-0.33
09:02:01.304,-0.36,-0.295
09:02:01.308,-0.375,-0.3
09:02:01.312,-0.365,-0.255
09:02:01.316,-0.37,-0.255
09:02:01.320,-0.39,-0.245
09:02:01.324,-0.36,-0.235
09:02:01.328,-0.34,-0.235
09:02:01.332,-0.315,-0.22
09:02:01.336,-0.32,-0.215
09:02:01.340,-0.34,-0.22
09:02:01.344,-0.335,-0.22
09:02:01.348,-0.385,-0.24
09:02:01.352,-0.37,-0.25
09:02:01.356,-0.355,-0.235
09:02:01.360,-0.345,-0.225
09:02:01.364,-0.365,-0.225
09:02:01.368,-0.395,-0.2
09:02:01.372,-0.36,-0.205
09:02:01.376,-0.37,-0.19
09:02:01.380,-0.37,-0.19
09:02:01.384,-0.35,-0.19
09:02:01.388,-0.375,-0.205
09:02:01.392,-0.385,-0.175
09:02:01.396,-0.415,-0.185
09:02:01.400,-0.445,-0.18
09:02:01.404,-0.475,-0.18
09:02:01.408,-0.49,-0.185
09:02:01.412,-0.49,-0.2
09:02:01.416,-0.515,-0.205
09:02:01.420,-0.51,-0.22
09:02:01.424,-0.52,-0.23
09:02:01.428,-0.57,-0.225
09:02:01.432,-0.58,-0.25
09:02:01.436,-0.635,-0.27
09:02:01.440,-0.655,-0.27
09:02:01.444,-0.685,-0.27
09:02:01.448,-0.695,-0.26
09:02:01.452,-0.74,-0.275
09:02:01.456,-0.77,-0.265
09:02:01.460,-0.79,-0.32
09:02:01.464,-0.785,-0.33
09:02:01.468,-0.77,-0.305
09:02:01.472,-0.78,-0.31
09:02:01.476,-0.8,-0.34
09:02:01.480,-0.825,-0.345
09:02:01.484,-0.85,-0.37
09:02:01.488,-0.875,-0.35
09:02:01.492,-0.895,-0.345
09:02:01.496,-0.87,-0.38
09:02:01.500,-0.855,-0.425
09:02:01.504,-0.815,-0.415
09:02:01.508,-0.785,-0.415
09:02:01.512,-0.72,-0.44
09:02:01.516,-0.685,-0.43
09:02:01.520,-0.64,-0.43
09:02:01.524,-0.61,-0.435
09:02:01.528,-0.555,-0.425
09:02:01.532,-0.525,-0.445
09:02:01.536,-0.48,-0.39
09:02:01.540,-0.445,-0.365
09:02:01.544,-0.405,-0.34
09:02:01.548,-0.335,-0.335
09:02:01.552,-0.285,-0.305
09:02:01.556,-0.245,-0.305
09:02:01.560,-0.205,-0.29
09:02:01.564,-0.205,-0.255
09:02:01.568,-0.22,-0.24
09:02:01.572,-0.23,-0.24
09:02:01.576,-0.23,-0.225
09:02:01.580,-0.22,-0.205
09:02:01.584,-0.23,-0.18
09:02:01.588,-0.195,-0.205
09:02:01.592,-0.21,-0.185
09:02:01.596,-0.22,-0.18
09:02:01.600,-0.195,-0.195
09:02:01.604,-0.19,-0.16
09:02:01.608,-0.165,-0.16
09:02:01.612,-0.17,-0.16
09:02:01.616,-0.17,-0.19
09:02:01.620,-0.185,-0.19
09:02:01.624,-0.19,-0.17
09:02:01.628,-0.2,-0.165
09:02:01.632,-0.195,-0.18
09:02:01.636,-0.2,-0.175
09:02:01.640,-0.19,-0.16
09:02:01.644,-0.2,-0.165
09:02:01.648,-0.16,-0.16
09:02:01.652,-0.15,-0.18
09:02:01.656,-0.14,-0.15
09:02:01.660,-0.16,-0.16
09:02:01.664,-0.175,-0.165
09:02:01.668,-0.18,-0.14
09:02:01.672,-0.205,-0.18
09:02:01.676,-0.21,-0.18
09:02:01.680,-0.195,-0.175
09:02:01.684,-0.205,-0.215
09:02:01.688,-0.215,-0.215
09:02:01.692,-0.235,-0.19
09:02:01.696,-0.215,-0.21
09:02:01.700,-0.2,-0.21
09:02:01.704,-0.175,-0.21
09:02:01.708,-0.2,-0.21
09:02:01.712,-0.215,-0.21
09:02:01.716,-0.215,-0.19
09:02:01.720,-0.245,-0.19
09:02:01.724,-0.265,-0.2
09:02:01.728,-0.255,-0.215
09:02:01.732,-0.215,-0.215
09:02:01.736,-0.21,-0.23
09:02:01.740,-0.2,-0.235
09:02:01.744,-0.185,-0.195
09:02:01.748,-0.195,-0.21
09:02:01.752,-0.225,-0.22
09:02:01.756,-0.22,-0.225
09:02:01.760,-0.24,-0.22
09:02:01.764,-0.235,-0.205
09:02:01.768,-0.25,-0.21
09:02:01.772,-0.225,-0.215
09:02:01.776,-0.23,-0.215
09:02:01.780,-0.225,-0.215
09:02:01.784,-0.22,-0.225
09:02:01.788,-0.2,-0.19
09:02:01.792,-0.2,-0.22
09:02:01.796,-0.2,-0.225
09:02:01.800,-0.21,-0.21
09:02:01.804,-0.235,-0.215
09:02:01.808,-0.25,-0.205
09:02:01.812,-0.26,-0.185
09:02:01.816,-0.255,-0.205
09:02:01.820,-0.265,-0.19
09:02:01.824,-0.27,-0.215
09:02:01.828,-0.22,-0.2
09:02:01.832,-0.19,-0.225
09:02:01.836,-0.21,-0.22
09:02:01.840,-0.205,-0.22
09:02:01.844,-0.2,-0.185
09:02:01.848,-0.23,-0.21
09:02:01.852,-0.24,-0.19
09:02:01.856,-0.26,-0.21
09:02:01.860,-0.26,-0.195
09:02:01.864,-0.25,-0.205
09:02:01.868,-0.255,-0.2
09:02:01.872,-0.235,-0.22
09:02:01.876,-0.23,-0.23
09:02:01.880,-0.225,-0.205
09:02:01.884,-0.21,-0.2
09:02:01.888,-0.22,-0.21
09:02:01.892,-0.23,-0.21
09:02:01.896,-0.225,-0.205
09:02:01.900,-0.225,-0.195
09:02:01.904,-0.225,-0.195
09:02:01.908,-0.25,-0.18
09:02:01.912,-0.265,-0.195
09:02:01.916,-0.245,-0.185
09:02:01.920,-0.205,-0.18
09:02:01.924,-0.22,-0.185
09:02:01.928,-0.22,-0.18
09:02:01.932,-0.225,-0.18
09:02:01.936,-0.235,-0.195
09:02:01.940,-0.25,-0.195
09:02:01.944,-0.22,-0.2
09:02:01.948,-0.23,-0.2
09:02:01.952,-0.23,-0.21
09:02:01.956,-0.25,-0.21
09:02:01.960,-0.22,-0.19
09:02:01.964,-0.235,-0.195
09:02:01.968,-0.21,-0.205
09:02:01.972,-0.22,-0.18
09:02:01.976,-0.22,-0.155
09:02:01.980,-0.235,-0.19
09:02:01.984,-0.22,-0.17
09:02:01.988,-0.225,-0.175
09:02:01.992,-0.23,-0.16
09:02:01.996,-0.225,-0.205
09:02:02.000,-0.215,-0.2
09:02:02.004,-0.215,-0.16
09:02:02.008,-0.205,-0.175
09:02:02.012,-0.205,-0.19
09:02:02.016,-0.2,-0.165
09:02:02.020,-0.22,-0.155
09:02:02.024,-0.19,-0.155
09:02:02.028,-0.205,-0.17
09:02:02.032,-0.21,-0.18
09:02:02.036,-0.19,-0.185
09:02:02.040,-0.165,-0.155
09:02:02.044,-0.14,-0.155
09:02:02.048,-0.1,-0.135
09:02:02.052,-0.085,-0.1
09:02:02.056,-0.07,-0.07
09:02:02.060,-0.045,-0.035
09:02:02.064,-0.035,-0.06
09:02:02.068,-0.005,-0.075
09:02:02.072,-0.015,-0.065
09:02:02.076,-0.02,-0.065
09:02:02.080,-0.045,-0.105
09:02:02.084,-0.055,-0.1
09:02:02.088,-0.05,-0.12
09:02:02.092,-0.07,-0.18
09:02:02.096,-0.095,-0.2
09:02:02.100,-0.095,-0.22
09:02:02.104,-0.14,-0.225
09:02:02.108,-0.16,-0.24
09:02:02.112,-0.21,-0.205
09:02:02.116,-0.24,-0.185
09:02:02.120,-0.255,-0.2
09:02:02.124,-0.27,-0.21
09:02:02.128,-0.27,-0.215
09:02:02.132,-0.265,-0.215
09:02:02.136,-0.265,-0.215
09:02:02.140,-0.26,-0.235
09:02:02.144,-0.205,-0.23
09:02:02.148,-0.155,-0.22
09:02:02.152,-0.125,-0.21
09:02:02.156,-0.045,-0.155
09:02:02.160,0.135,-0.11
09:02:02.164,0.42,-0.125
09:02:02.168,0.64,-0.155
09:02:02.172,0.745,-0.23
09:02:02.176,0.78,-0.475
09:02:02.180,0.66,-0.83
09:02:02.184,0.09,-1.19
09:02:02.188,-0.72,-1.54
09:02:02.192,-1.345,-1.76
09:02:02.196,-1.585,-2.02
09:02:02.200,-1.585,-2.245
09:02:02.204,-1.44,-2.33
09:02:02.208,-1.19,-2.18
09:02:02.212,-0.93,-1.91
09:02:02.216,-0.7,-1.6
09:02:02.220,-0.535,-1.27
09:02:02.224,-0.44,-0.985
09:02:02.228,-0.37,-0.66
09:02:02.232,-0.33,-0.49
09:02:02.236,-0.3,-0.36
09:02:02.240,-0.3,-0.29
09:02:02.244,-0.28,-0.245
09:02:02.248,-0.29,-0.24
09:02:02.252,-0.28,-0.21
09:02:02.256,-0.295,-0.2
09:02:02.260,-0.31,-0.22
09:02:02.264,-0.335,-0.18
09:02:02.268,-0.335,-0.185
09:02:02.272,-0.32,-0.18
09:02:02.276,-0.31,-0.18
09:02:02.280,-0.31,-0.17
09:02:02.284,-0.3,-0.165
09:02:02.288,-0.29,-0.155
09:02:02.292,-0.315,-0.135
09:02:02.296,-0.34,-0.12
09:02:02.300,-0.37,-0.115
09:02:02.304,-0.355,-0.12
09:02:02.308,-0.365,-0.14
09:02:02.312,-0.36,-0.12
09:02:02.316,-0.35,-0.12
09:02:02.320,-0.38,-0.125
09:02:02.324,-0.36,-0.115
09:02:02.328,-0.345,-0.125
09:02:02.332,-0.365,-0.16
09:02:02.336,-0.4,-0.145
09:02:02.340,-0.405,-0.16
09:02:02.344,-0.43,-0.145
09:02:02.348,-0.46,-0.15
09:02:02.352,-0.465,-0.16
09:02:02.356,-0.48,-0.16
09:02:02.360,-0.525,-0.165
09:02:02.364,-0.53,-0.165
09:02:02.368,-0.515,-0.175
09:02:02.372,-0.515,-0.18
09:02:02.376,-0.53,-0.185
09:02:02.380,-0.57,-0.195
09:02:02.384,-0.61,-0.185
09:02:02.388,-0.635,-0.22
09:02:02.392,-0.66,-0.22
09:02:02.396,-0.695,-0.23
09:02:02.400,-0.705,-0.24
09:02:02.404,-0.72,-0.26
09:02:02.408,-0.74,-0.25
09:02:02.412,-0.76,-0.28
09:02:02.416,-0.77,-0.25
09:02:02.420,-0.765,-0.28
09:02:02.424,-0.795,-0.3
09:02:02.428,-0.785,-0.31
09:02:02.432,-0.82,-0.36
09:02:02.436,-0.855,-0.345
09:02:02.440,-0.88,-0.345
09:02:02.444,-0.88,-0.325
09:02:02.448,-0.895,-0.35
09:02:02.452,-0.895,-0.37
09:02:02.456,-0.91,-0.39
09:02:02.460,-0.865,-0.4
09:02:02.464,-0.855,-0.405
09:02:02.468,-0.865,-0.4
09:02:02.472,-0.81,-0.42
09:02:02.476,-0.8,-0.425
09:02:02.480,-0.785,-0.41
09:02:02.484,-0.785,-0.43
09:02:02.488,-0.745,-0.39
09:02:02.492,-0.725,-0.415
09:02:02.496,-0.64,-0.375
09:02:02.500,-0.58,-0.355
09:02:02.504,-0.5,-0.31
09:02:02.508,-0.46,-0.26
09:02:02.512,-0.46,-0.235
09:02:02.516,-0.43,-0.175
09:02:02.520,-0.39,-0.155
09:02:02.524,-0.38,-0.16
09:02:02.528,-0.33,-0.175
09:02:02.532,-0.29,-0.15
09:02:02.536,-0.225,-0.15
09:02:02.540,-0.205,-0.105
09:02:02.544,-0.2,-0.06
09:02:02.548,-0.17,-0.01
09:02:02.552,-0.175,0.015
09:02:02.556,-0.19,0.065
09:02:02.560,-0.19,0.04
09:02:02.564,-0.19,0.01
09:02:02.568,-0.19,-0.02
09:02:02.572,-0.18,-0.07
09:02:02.576,-0.23,-0.09
09:02:02.580,-0.21,-0.115
09:02:02.584,-0.225,-0.135
09:02:02.588,-0.205,-0.14
09:02:02.592,-0.22,-0.14
09:02:02.596,-0.23,-0.13
09:02:02.600,-0.23,-0.125
09:02:02.604,-0.22,-0.125
09:02:02.608,-0.215,-0.155
09:02:02.612,-0.24,-0.165
09:02:02.616,-0.235,-0.16
09:02:02.620,-0.22,-0.17
09:02:02.624,-0.23,-0.15
09:02:02.628,-0.255,-0.175
09:02:02.632,-0.265,-0.175
09:02:02.636,-0.28,-0.16
09:02:02.640,-0.26,-0.17
09:02:02.644,-0.21,-0.15
09:02:02.648,-0.235,-0.16
09:02:02.652,-0.26,-0.15
09:02:02.656,-0.265,-0.155
09:02:02.660,-0.26,-0.15
09:02:02.664,-0.26,-0.16
09:02:02.668,-0.27,-0.16
09:02:02.672,-0.27,-0.185
09:02:02.676,-0.275,-0.175
09:02:02.680,-0.27,-0.17
09:02:02.684,-0.245,-0.145
09:02:02.688,-0.23,-0.155
09:02:02.692,-0.245,-0.16
09:02:02.696,-0.21,-0.2
09:02:02.700,-0.185,-0.16
09:02:02.704,-0.215,-0.125
09:02:02.708,-0.185,-0.065
09:02:02.712,-0.075,-0.07
09:02:02.716,0.22,-0.11
09:02:02.720,0.485,-0.215
09:02:02.724,0.64,-0.36
09:02:02.728,0.66,-0.47
09:02:02.732,0.315,-0.61
09:02:02.736,-0.52,-0.79
09:02:02.740,-1.305,-1.04
09:02:02.744,-1.66,-1.41
09:02:02.748,-1.74,-1.7
09:02:02.752,-1.645,-1.985
09:02:02.756,-1.49,-2.04
09:02:02.760,-1.165,-1.95
09:02:02.764,-0.8,-1.625
09:02:02.768,-0.58,-1.29
09:02:02.772,-0.44,-0.985
09:02:02.776,-0.355,-0.715
09:02:02.780,-0.29,-0.495
09:02:02.784,-0.25,-0.345
09:02:02.788,-0.24,-0.25
09:02:02.792,-0.245,-0.21
09:02:02.796,-0.23,-0.225
09:02:02.800,-0.255,-0.18
09:02:02.804,-0.265,-0.19
09:02:02.808,-0.27,-0.185
09:02:02.812,-0.27,-0.175
09:02:02.816,-0.26,-0.17
09:02:02.820,-0.26,-0.155
09:02:02.824,-0.25,-0.14
09:02:02.828,-0.25,-0.15
09:02:02.832,-0.25,-0.14
09:02:02.836,-0.24,-0.125
09:02:02.840,-0.25,-0.135
09:02:02.844,-0.26,-0.13
09:02:02.848,-0.29,-0.15
09:02:02.852,-0.325,-0.145
09:02:02.856,-0.315,-0.13
09:02:02.860,-0.335,-0.135
09:02:02.864,-0.315,-0.125
09:02:02.868,-0.33,-0.135
09:02:02.872,-0.315,-0.135
09:02:02.876,-0.34,-0.135
09:02:02.880,-0.355,-0.16
09:02:02.884,-0.365,-0.135
09:02:02.888,-0.35,-0.13
09:02:02.892,-0.4,-0.15
09:02:02.896,-0.43,-0.15
09:02:02.900,-0.445,-0.14
09:02:02.904,-0.45,-0.125
09:02:02.908,-0.485,-0.17
09:02:02.912,-0.505,-0.18
09:02:02.916,-0.495,-0.175
09:02:02.920,-0.51,-0.17
09:02:02.924,-0.525,-0.195
09:02:02.928,-0.545,-0.22
09:02:02.932,-0.575,-0.225
09:02:02.936,-0.595,-0.21
09:02:02.940,-0.63,-0.2
09:02:02.944,-0.655,-0.215
09:02:02.948,-0.68,-0.215
09:02:02.952,-0.7,-0.24
09:02:02.956,-0.73,-0.23
09:02:02.960,-0.705,-0.25
09:02:02.964,-0.7,-0.26
09:02:02.968,-0.705,-0.26
09:02:02.972,-0.7,-0.26
09:02:02.976,-0.71,-0.265
09:02:02.980,-0.69,-0.275
09:02:02.984,-0.68,-0.26
09:02:02.988,-0.665,-0.255
09:02:02.992,-0.61,-0.27
09:02:02.996,-0.6,-0.275
09:02:03.000,-0.55,-0.255
09:02:03.004,-0.525,-0.24
09:02:03.008,-0.48,-0.235
09:02:03.012,-0.41,-0.24
09:02:03.016,-0.37,-0.22
09:02:03.020,-0.32,-0.21
09:02:03.024,-0.27,-0.175
09:02:03.028,-0.255,-0.185
09:02:03.032,-0.245,-0.16
09:02:03.036,-0.23,-0.145
09:02:03.040,-0.205,-0.115
09:02:03.044,-0.19,-0.07
09:02:03.048,-0.185,-0.095
09:02:03.052,-0.19,-0.06
09:02:03.056,-0.17,-0.03
09:02:03.060,-0.18,-0.015
09:02:03.064,-0.18,-0.04
09:02:03.068,-0.175,-0.025
09:02:03.072,-0.195,-0.03
09:02:03.076,-0.225,-0.01
09:02:03.080,-0.25,-0.025
09:02:03.084,-0.265,-0.06
09:02:03.088,-0.24,-0.04
09:02:03.092,-0.23,-0.05
09:02:03.096,-0.235,-0.03
09:02:03.100,-0.2,-0.04
09:02:03.104,-0.195,-0.055
09:02:03.108,-0.215,-0.045
09:02:03.112,-0.215,-0.07
09:02:03.116,-0.2,-0.06
09:02:03.120,-0.21,-0.04
09:02:03.124,-0.22,-0.06
09:02:03.128,-0.2,-0.035
09:02:03.132,-0.27,-0.05
09:02:03.136,-0.26,-0.06
09:02:03.140,-0.26,-0.07
09:02:03.144,-0.26,-0.085
09:02:03.148,-0.23,-0.09
09:02:03.152,-0.23,-0.07
09:02:03.156,-0.205,-0.085
09:02:03.160,-0.19,-0.085
09:02:03.164,-0.21,-0.09
09:02:03.168,-0.27,-0.1
09:02:03.172,-0.27,-0.065
09:02:03.176,-0.26,-0.09
09:02:03.180,-0.27,-0.075
09:02:03.184,-0.285,-0.085
09:02:03.188,-0.275,-0.08
09:02:03.192,-0.265,-0.08
09:02:03.196,-0.24,-0.09
09:02:03.200,-0.25,-0.09
09:02:03.204,-0.24,-0.11
09:02:03.208,-0.235,-0.105
09:02:03.212,-0.24,-0.115
09:02:03.216,-0.26,-0.1
09:02:03.220,-0.26,-0.115
09:02:03.224,-0.27,-0.095
09:02:03.228,-0.305,-0.09
09:02:03.232,-0.27,-0.1
09:02:03.236,-0.27,-0.1
09:02:03.240,-0.26,-0.1
09:02:03.244,-0.265,-0.125
09:02:03.248,-0.255,-0.11
09:02:03.252,-0.26,-0.095
09:02:03.256,-0.26,-0.11
09:02:03.260,-0.22,-0.1
09:02:03.264,-0.19,-0.105
09:02:03.268,-0.15,-0.13
09:02:03.272,-0.13,-0.095
09:02:03.276,-0.065,-0.07
09:02:03.280,0.005,-0.045
09:02:03.284,0.085,-0.025
09:02:03.288,0.1,0.03
09:02:03.292,0.095,0.055
09:02:03.296,0.1,0.04
09:02:03.300,0.095,0.035
09:02:03.304,0.04,0
09:02:03.308,-0.02,-0.005
09:02:03.312,-0.08,-0.05
09:02:03.316,-0.12,-0.02
09:02:03.320,-0.155,-0.025
09:02:03.324,-0.205,-0.035
09:02:03.328,-0.245,-0.07
09:02:03.332,-0.235,-0.05
09:02:03.336,-0.275,-0.05
09:02:03.340,-0.31,-0.09
09:02:03.344,-0.31,-0.145
09:02:03.348,-0.315,-0.16
09:02:03.352,-0.31,-0.16
09:02:03.356,-0.31,-0.16
09:02:03.360,-0.26,-0.16
09:02:03.364,-0.195,-0.135
09:02:03.368,-0.13,-0.11
09:02:03.372,0.015,-0.035
09:02:03.376,0.24,-0.065
09:02:03.380,0.495,-0.09
09:02:03.384,0.62,-0.12
09:02:03.388,0.67,-0.305
09:02:03.392,0.62,-0.67
09:02:03.396,0.275,-1.025
09:02:03.400,-0.55,-1.39
09:02:03.404,-1.3,-1.69
09:02:03.408,-1.705,-1.935
09:02:03.412,-1.75,-2.215
09:02:03.416,-1.605,-2.46
09:02:03.420,-1.25,-2.32
09:02:03.424,-0.905,-2.025
09:02:03.428,-0.71,-1.67
09:02:03.432,-0.54,-1.315
09:02:03.436,-0.425,-0.935
09:02:03.440,-0.37,-0.625
09:02:03.444,-0.345,-0.415
09:02:03.448,-0.36,-0.285
09:02:03.452,-0.35,-0.185
09:02:03.456,-0.345,-0.15
09:02:03.460,-0.345,-0.165
09:02:03.464,-0.31,-0.16
09:02:03.468,-0.32,-0.125
09:02:03.472,-0.295,-0.14
09:02:03.476,-0.32,-0.14
09:02:03.480,-0.32,-0.12
09:02:03.484,-0.34,-0.105
09:02:03.488,-0.33,-0.095
09:02:03.492,-0.34,-0.09
09:02:03.496,-0.355,-0.075
09:02:03.500,-0.35,-0.08
09:02:03.504,-0.355,-0.09
09:02:03.508,-0.36,-0.085
09:02:03.512,-0.335,-0.075
09:02:03.516,-0.34,-0.06
09:02:03.520,-0.36,-0.07
09:02:03.524,-0.36,-0.07
09:02:03.528,-0.385,-0.06
09:02:03.532,-0.405,-0.07
09:02:03.536,-0.42,-0.095
09:02:03.540,-0.45,-0.05
09:02:03.544,-0.44,-0.06
09:02:03.548,-0.46,-0.07
09:02:03.552,-0.455,-0.08
09:02:03.556,-0.465,-0.08
09:02:03.560,-0.435,-0.075
09:02:03.564,-0.45,-0.06
09:02:03.568,-0.465,-0.065
09:02:03.572,-0.48,-0.09
09:02:03.576,-0.51,-0.08
09:02:03.580,-0.56,-0.075
09:02:03.584,-0.57,-0.11
09:02:03.588,-0.58,-0.125
09:02:03.592,-0.61,-0.125
09:02:03.596,-0.63,-0.155
09:02:03.600,-0.66,-0.145
09:02:03.604,-0.665,-0.16
09:02:03.608,-0.68,-0.14
09:02:03.612,-0.725,-0.115
09:02:03.616,-0.725,-0.13
09:02:03.620,-0.75,-0.17
09:02:03.624,-0.79,-0.185
09:02:03.628,-0.815,-0.16
09:02:03.632,-0.83,-0.175
09:02:03.636,-0.825,-0.195
09:02:03.640,-0.85,-0.225
09:02:03.644,-0.89,-0.225
09:02:03.648,-0.865,-0.2
09:02:03.652,-0.84,-0.19
09:02:03.656,-0.865,-0.215
09:02:03.660,-0.855,-0.225
09:02:03.664,-0.84,-0.22
09:02:03.668,-0.825,-0.22
09:02:03.672,-0.81,-0.22
09:02:03.676,-0.785,-0.225
09:02:03.680,-0.755,-0.235
09:02:03.684,-0.705,-0.19
09:02:03.688,-0.665,-0.225
09:02:03.692,-0.61,-0.205
09:02:03.696,-0.54,-0.16
09:02:03.700,-0.485,-0.16
09:02:03.704,-0.445,-0.14
09:02:03.708,-0.405,-0.145
09:02:03.712,-0.37,-0.12
09:02:03.716,-0.355,-0.065
09:02:03.720,-0.345,-0.055
09:02:03.724,-0.31,-0.04
09:02:03.728,-0.285,-0.035
09:02:03.732,-0.28,-0.015
09:02:03.736,-0.265,-0.005
09:02:03.740,-0.22,-0.005
09:02:03.744,-0.2,-0.01
09:02:03.748,-0.22,0
09:02:03.752,-0.205,0.015
09:02:03.756,-0.205,0.015
09:02:03.760,-0.215,0.015
09:02:03.764,-0.245,0.015
09:02:03.768,-0.25,0
09:02:03.772,-0.225,0
09:02:03.776,-0.235,0
09:02:03.780,-0.23,0
09:02:03.784,-0.24,0.01
09:02:03.788,-0.225,0
09:02:03.792,-0.21,-0.01
09:02:03.796,-0.195,-0.01
09:02:03.800,-0.22,0
09:02:03.804,-0.215,-0.02
09:02:03.808,-0.23,-0.025
09:02:03.812,-0.23,-0.02
09:02:03.816,-0.235,-0.01
09:02:03.820,-0.24,-0.035
09:02:03.824,-0.23,-0.025
09:02:03.828,-0.235,-0.025
09:02:03.832,-0.22,-0.02
09:02:03.836,-0.23,-0.04
09:02:03.840,-0.2,-0.035
09:02:03.844,-0.215,-0.04
09:02:03.848,-0.21,-0.065
09:02:03.852,-0.24,-0.065
09:02:03.856,-0.265,-0.06
09:02:03.860,-0.26,-0.03
09:02:03.864,-0.235,-0.045
09:02:03.868,-0.255,-0.055
09:02:03.872,-0.255,-0.045
09:02:03.876,-0.25,-0.065
09:02:03.880,-0.25,-0.07
09:02:03.884,-0.24,-0.06
09:02:03.888,-0.215,-0.06
09:02:03.892,-0.22,-0.055
09:02:03.896,-0.22,-0.05
09:02:03.900,-0.235,-0.075
09:02:03.904,-0.27,-0.065
09:02:03.908,-0.275,-0.055
09:02:03.912,-0.275,-0.06
09:02:03.916,-0.25,-0.065
09:02:03.920,-0.23,-0.065
09:02:03.924,-0.22,-0.07
09:02:03.928,-0.23,-0.05
09:02:03.932,-0.24,-0.085
09:02:03.936,-0.23,-0.08
09:02:03.940,-0.24,-0.09
09:02:03.944,-0.26,-0.07
09:02:03.948,-0.265,-0.07
09:02:03.952,-0.255,-0.07
09:02:03.956,-0.275,-0.08
09:02:03.960,-0.27,-0.08
09:02:03.964,-0.255,-0.105
09:02:03.968,-0.24,-0.095
09:02:03.972,-0.245,-0.07
09:02:03.976,-0.21,-0.08
09:02:03.980,-0.21,-0.06
09:02:03.984,-0.22,-0.075
09:02:03.988,-0.25,-0.09
09:02:03.992,-0.235,-0.105
09:02:03.996,-0.26,-0.095
09:02:04.000,-0.24,-0.075
09:02:04.004,-0.265,-0.08
09:02:04.008,-0.27,-0.1
09:02:04.012,-0.245,-0.08
09:02:04.016,-0.225,-0.08
09:02:04.020,-0.21,-0.065
09:02:04.024,-0.225,-0.09
09:02:04.028,-0.21,-0.065
09:02:04.032,-0.22,-0.06
09:02:04.036,-0.24,-0.07
09:02:04.040,-0.265,-0.065
09:02:04.044,-0.265,-0.09
09:02:04.048,-0.24,-0.08
09:02:04.052,-0.24,-0.09
09:02:04.056,-0.23,-0.105
09:02:04.060,-0.225,-0.12
09:02:04.064,-0.225,-0.115
09:02:04.068,-0.23,-0.11
09:02:04.072,-0.21,-0.11
09:02:04.076,-0.2,-0.13
09:02:04.080,-0.22,-0.115
09:02:04.084,-0.23,-0.095
09:02:04.088,-0.255,-0.08
09:02:04.092,-0.245,-0.09
09:02:04.096,-0.225,-0.095
09:02:04.100,-0.23,-0.1
09:02:04.104,-0.23,-0.105
09:02:04.108,-0.21,-0.08
09:02:04.112,-0.195,-0.095
09:02:04.116,-0.19,-0.08
09:02:04.120,-0.18,-0.08
09:02:04.124,-0.18,-0.075
09:02:04.128,-0.21,-0.08
09:02:04.132,-0.235,-0.1
09:02:04.136,-0.235,-0.095
09:02:04.140,-0.245,-0.095
09:02:04.144,-0.23,-0.105
09:02:04.148,-0.22,-0.075
09:02:04.152,-0.2,-0.08
09:02:04.156,-0.21,-0.095
09:02:04.160,-0.215,-0.1
09:02:04.164,-0.18,-0.08
09:02:04.168,-0.19,-0.1
09:02:04.172,-0.215,-0.115
09:02:04.176,-0.225,-0.12
09:02:04.180,-0.22,-0.105
09:02:04.184,-0.195,-0.12
09:02:04.188,-0.155,-0.105
09:02:04.192,-0.11,-0.11
09:02:04.196,-0.08,-0.075
09:02:04.200,-0.075,-0.06
09:02:04.204,-0.085,-0.01
09:02:04.208,-0.045,-0.015
09:02:04.212,-0.035,-0.01
09:02:04.216,-0.035,-0.005
09:02:04.220,-0.06,0.02
09:02:04.224,-0.055,-0.01
09:02:04.228,-0.05,-0.025
09:02:04.232,-0.04,-0.06
09:02:04.236,-0.08,-0.11
09:02:04.240,-0.1,-0.14
09:02:04.244,-0.09,-0.16
09:02:04.248,-0.13,-0.185
09:02:04.252,-0.155,-0.205
09:02:04.256,-0.18,-0.15
09:02:04.260,-0.22,-0.145
09:02:04.264,-0.23,-0.14
09:02:04.268,-0.27,-0.14
09:02:04.272,-0.26,-0.16
09:02:04.276,-0.255,-0.155
09:02:04.280,-0.25,-0.155
09:02:04.284,-0.25,-0.15
09:02:04.288,-0.215,-0.155
09:02:04.292,-0.2,-0.165
09:02:04.296,-0.14,-0.16
09:02:04.300,-0.105,-0.135
09:02:04.304,-0.01,-0.055
09:02:04.308,0.195,-0.045
09:02:04.312,0.45,-0.1
09:02:04.316,0.65,-0.12
09:02:04.320,0.75,-0.225
09:02:04.324,0.765,-0.53
09:02:04.328,0.515,-0.895
09:02:04.332,-0.2,-1.2
09:02:04.336,-1.015,-1.535
09:02:04.340,-1.475,-1.8
09:02:04.344,-1.645,-2.095
09:02:04.348,-1.57,-2.315
09:02:04.352,-1.37,-2.28
09:02:04.356,-1.09,-2.05
09:02:04.360,-0.815,-1.79
09:02:04.364,-0.595,-1.445
09:02:04.368,-0.445,-1.085
09:02:04.372,-0.355,-0.74
09:02:04.376,-0.31,-0.495
09:02:04.380,-0.28,-0.32
09:02:04.384,-0.255,-0.24
09:02:04.388,-0.265,-0.205
09:02:04.392,-0.27,-0.195
09:02:04.396,-0.28,-0.185
09:02:04.400,-0.275,-0.16
09:02:04.404,-0.295,-0.14
09:02:04.408,-0.3,-0.13
09:02:04.412,-0.285,-0.12
09:02:04.416,-0.29,-0.12
09:02:04.420,-0.29,-0.125
09:02:04.424,-0.29,-0.095
09:02:04.428,-0.28,-0.105
09:02:04.432,-0.27,-0.115
09:02:04.436,-0.27,-0.105
09:02:04.440,-0.28,-0.075
09:02:04.444,-0.315,-0.07
09:02:04.448,-0.315,-0.07
09:02:04.452,-0.335,-0.055
09:02:04.456,-0.355,-0.04
09:02:04.460,-0.36,-0.045
09:02:04.464,-0.36,-0.04
09:02:04.468,-0.315,-0.07
09:02:04.472,-0.33,-0.075
09:02:04.476,-0.33,-0.08
09:02:04.480,-0.38,-0.08
09:02:04.484,-0.39,-0.075
09:02:04.488,-0.41,-0.07
09:02:04.492,-0.415,-0.075
09:02:04.496,-0.45,-0.09
09:02:04.500,-0.445,-0.09
09:02:04.504,-0.455,-0.115
09:02:04.508,-0.495,-0.125
09:02:04.512,-0.495,-0.14
09:02:04.516,-0.515,-0.125
09:02:04.520,-0.505,-0.15
09:02:04.524,-0.53,-0.16
09:02:04.528,-0.56,-0.19
09:02:04.532,-0.595,-0.18
09:02:04.536,-0.6,-0.18
09:02:04.540,-0.645,-0.2
09:02:04.544,-0.66,-0.2
09:02:04.548,-0.665,-0.2
09:02:04.552,-0.68,-0.22
09:02:04.556,-0.7,-0.22
09:02:04.560,-0.695,-0.245
09:02:04.564,-0.685,-0.245
09:02:04.568,-0.73,-0.265
09:02:04.572,-0.725,-0.25
09:02:04.576,-0.74,-0.265
09:02:04.580,-0.765,-0.3
09:02:04.584,-0.775,-0.28
09:02:04.588,-0.815,-0.305
09:02:04.592,-0.82,-0.315
09:02:04.596,-0.81,-0.31
09:02:04.600,-0.8,-0.305
09:02:04.604,-0.77,-0.325
09:02:04.608,-0.755,-0.335
09:02:04.612,-0.775,-0.345
09:02:04.616,-0.77,-0.35
09:02:04.620,-0.75,-0.325
09:02:04.624,-0.74,-0.325
09:02:04.628,-0.725,-0.31
09:02:04.632,-0.7,-0.3
09:02:04.636,-0.625,-0.305
09:02:04.640,-0.55,-0.27
09:02:04.644,-0.525,-0.235
09:02:04.648,-0.48,-0.17
09:02:04.652,-0.445,-0.155
09:02:04.656,-0.38,-0.125
09:02:04.660,-0.355,-0.125
09:02:04.664,-0.32,-0.14
09:02:04.668,-0.285,-0.125
09:02:04.672,-0.225,-0.105
09:02:04.676,-0.175,-0.07
09:02:04.680,-0.13,-0.04
09:02:04.684,-0.115,0.025
09:02:04.688,-0.13,0.045
09:02:04.692,-0.13,0.095
09:02:04.696,-0.135,0.09
09:02:04.700,-0.13,0.035
09:02:04.704,-0.15,-0.005
09:02:04.708,-0.155,-0.035
09:02:04.712,-0.18,-0.05
09:02:04.716,-0.18,-0.065
09:02:04.720,-0.195,-0.09
09:02:04.724,-0.18,-0.055
09:02:04.728,-0.19,-0.07
09:02:04.732,-0.2,-0.09
09:02:04.736,-0.195,-0.075
09:02:04.740,-0.185,-0.1
09:02:04.744,-0.175,-0.09
09:02:04.748,-0.15,-0.095
09:02:04.752,-0.16,-0.08
09:02:04.756,-0.165,-0.105
09:02:04.760,-0.185,-0.11
09:02:04.764,-0.2,-0.12
09:02:04.768,-0.19,-0.125
09:02:04.772,-0.19,-0.12
09:02:04.776,-0.165,-0.07
09:02:04.780,-0.145,-0.075
09:02:04.784,-0.17,-0.09
09:02:04.788,-0.15,-0.12
09:02:04.792,-0.14,-0.11
09:02:04.796,-0.145,-0.12
09:02:04.800,-0.145,-0.125
09:02:04.804,-0.16,-0.135
09:02:04.808,-0.17,-0.14
09:02:04.812,-0.195,-0.14
09:02:04.816,-0.185,-0.13
09:02:04.820,-0.16,-0.125
09:02:04.824,-0.18,-0.135
09:02:04.828,-0.165,-0.145
09:02:04.832,-0.16,-0.14
09:02:04.836,-0.14,-0.12
09:02:04.840,-0.125,-0.115
09:02:04.844,-0.18,-0.06
09:02:04.848,-0.14,-0.03
09:02:04.852,-0.01,-0.085
09:02:04.856,0.31,-0.19
09:02:04.860,0.57,-0.32
09:02:04.864,0.715,-0.51
09:02:04.868,0.65,-0.595
09:02:04.872,0.055,-0.68
09:02:04.876,-0.81,-0.905
09:02:04.880,-1.405,-1.21
09:02:04.884,-1.64,-1.555
09:02:04.888,-1.615,-1.8
09:02:04.892,-1.49,-1.915
09:02:04.896,-1.245,-1.88
09:02:04.900,-0.925,-1.62
09:02:04.904,-0.61,-1.32
09:02:04.908,-0.4,-1.015
09:02:04.912,-0.28,-0.78
09:02:04.916,-0.225,-0.56
09:02:04.920,-0.145,-0.33
09:02:04.924,-0.11,-0.21
09:02:04.928,-0.13,-0.195
09:02:04.932,-0.115,-0.205
09:02:04.936,-0.1,-0.19
09:02:04.940,-0.12,-0.14
09:02:04.944,-0.165,-0.13
09:02:04.948,-0.15,-0.125
09:02:04.952,-0.145,-0.09
09:02:04.956,-0.125,-0.09
09:02:04.960,-0.12,-0.105
09:02:04.964,-0.135,-0.1
09:02:04.968,-0.145,-0.085
09:02:04.972,-0.145,-0.1
09:02:04.976,-0.14,-0.115
09:02:04.980,-0.145,-0.14
09:02:04.984,-0.165,-0.14
09:02:04.988,-0.155,-0.15
09:02:04.992,-0.17,-0.115
09:02:04.996,-0.185,-0.135
09:02:05.000,-0.19,-0.13
09:02:05.004,-0.2,-0.12
09:02:05.008,-0.195,-0.115
09:02:05.012,-0.18,-0.12
09:02:05.016,-0.17,-0.12
09:02:05.020,-0.175,-0.12
09:02:05.024,-0.23,-0.125
09:02:05.028,-0.22,-0.115
09:02:05.032,-0.235,-0.115
09:02:05.036,-0.25,-0.12
09:02:05.040,-0.285,-0.145
09:02:05.044,-0.325,-0.155
09:02:05.048,-0.325,-0.165
09:02:05.052,-0.335,-0.16
09:02:05.056,-0.34,-0.175
09:02:05.060,-0.33,-0.19
09:02:05.064,-0.345,-0.205
09:02:05.068,-0.37,-0.195
09:02:05.072,-0.385,-0.21
09:02:05.076,-0.41,-0.205
09:02:05.080,-0.415,-0.205
09:02:05.084,-0.44,-0.205
09:02:05.088,-0.455,-0.21
09:02:05.092,-0.47,-0.235
09:02:05.096,-0.49,-0.24
09:02:05.100,-0.475,-0.265
09:02:05.104,-0.45,-0.26
09:02:05.108,-0.465,-0.285
09:02:05.112,-0.465,-0.3
09:02:05.116,-0.435,-0.28
09:02:05.120,-0.42,-0.26
09:02:05.124,-0.4,-0.28
09:02:05.128,-0.395,-0.3
09:02:05.132,-0.35,-0.315
09:02:05.136,-0.31,-0.315
09:02:05.140,-0.25,-0.285
09:02:05.144,-0.185,-0.295
09:02:05.148,-0.135,-0.275
09:02:05.152,-0.085,-0.25
09:02:05.156,-0.065,-0.235
09:02:05.160,-0.035,-0.235
09:02:05.164,-0.035,-0.195
09:02:05.168,-0.035,-0.135
09:02:05.172,-0.04,-0.14
09:02:05.176,-0.045,-0.115
09:02:05.180,-0.035,-0.09
09:02:05.184,-0.05,-0.09
09:02:05.188,-0.055,-0.045
09:02:05.192,-0.05,-0.01
09:02:05.196,-0.03,-0.035
09:02:05.200,-0.01,-0.025
09:02:05.204,-0.005,-0.02
09:02:05.208,-0.03,-0.02
09:02:05.212,-0.055,-0.035
09:02:05.216,-0.09,-0.035
09:02:05.220,-0.08,-0.035
09:02:05.224,-0.085,-0.05
09:02:05.228,-0.1,-0.05
09:02:05.232,-0.095,-0.04
09:02:05.236,-0.1,-0.04
09:02:05.240,-0.08,-0.045
09:02:05.244,-0.08,-0.065
09:02:05.248,-0.09,-0.075
09:02:05.252,-0.07,-0.06
09:02:05.256,-0.065,-0.06
09:02:05.260,-0.06,-0.055
09:02:05.264,-0.115,-0.07
09:02:05.268,-0.14,-0.055
09:02:05.272,-0.14,-0.035
09:02:05.276,-0.15,-0.055
09:02:05.280,-0.12,-0.065
09:02:05.284,-0.125,-0.065
09:02:05.288,-0.11,-0.075
09:02:05.292,-0.135,-0.095
09:02:05.296,-0.135,-0.065
09:02:05.300,-0.14,-0.06
09:02:05.304,-0.13,-0.085
09:02:05.308,-0.14,-0.11
09:02:05.312,-0.14,-0.1
09:02:05.316,-0.125,-0.1
09:02:05.320,-0.15,-0.1
09:02:05.324,-0.135,-0.12
09:02:05.328,-0.155,-0.12
09:02:05.332,-0.135,-0.1
09:02:05.336,-0.095,-0.115
09:02:05.340,-0.115,-0.115
09:02:05.344,-0.15,-0.125
09:02:05.348,-0.16,-0.135
09:02:05.352,-0.17,-0.125
09:02:05.356,-0.16,-0.125
09:02:05.360,-0.15,-0.105
09:02:05.364,-0.16,-0.13
09:02:05.368,-0.185,-0.125
09:02:05.372,-0.19,-0.145
09:02:05.376,-0.175,-0.15
09:02:05.380,-0.18,-0.12
09:02:05.384,-0.14,-0.14
09:02:05.388,-0.15,-0.15
09:02:05.392,-0.16,-0.14
09:02:05.396,-0.155,-0.145
09:02:05.400,-0.185,-0.14
09:02:05.404,-0.195,-0.17
09:02:05.408,-0.145,-0.17
09:02:05.412,-0.12,-0.14
09:02:05.416,-0.085,-0.14
09:02:05.420,0.005,-0.13
09:02:05.424,0.08,-0.11
09:02:05.428,0.115,-0.09
09:02:05.432,0.165,-0.035
09:02:05.436,0.15,-0.035
09:02:05.440,0.125,-0.005
09:02:05.444,0.12,-0.025
09:02:05.448,0.095,-0.065
09:02:05.452,0.085,-0.095
09:02:05.456,0.055,-0.08
09:02:05.460,-0.02,-0.095
09:02:05.464,-0.06,-0.115
09:02:05.468,-0.085,-0.095
09:02:05.472,-0.125,-0.09
09:02:05.476,-0.17,-0.1
09:02:05.480,-0.22,-0.14
09:02:05.484,-0.23,-0.155
09:02:05.488,-0.24,-0.205
09:02:05.492,-0.275,-0.19
09:02:05.496,-0.245,-0.195
09:02:05.500,-0.205,-0.21
09:02:05.504,-0.16,-0.205
09:02:05.508,-0.08,-0.175
09:02:05.512,-0.04,-0.165
09:02:05.516,0.05,-0.09
09:02:05.520,0.275,-0.055
09:02:05.524,0.585,-0.085
09:02:05.528,0.825,-0.09
09:02:05.532,0.95,-0.185
09:02:05.536,1.005,-0.38
09:02:05.540,0.855,-0.625
09:02:05.544,0.21,-0.88
09:02:05.548,-0.62,-1.135
09:02:05.552,-1.185,-1.39
09:02:05.556,-1.46,-1.61
09:02:05.560,-1.44,-1.805
09:02:05.564,-1.31,-1.88
09:02:05.568,-1.11,-1.835
09:02:05.572,-0.86,-1.61
09:02:05.576,-0.625,-1.315
09:02:05.580,-0.485,-1.065
09:02:05.584,-0.4,-0.81
09:02:05.588,-0.35,-0.59
09:02:05.592,-0.33,-0.4
09:02:05.596,-0.31,-0.285
09:02:05.600,-0.32,-0.265
09:02:05.604,-0.28,-0.26
09:02:05.608,-0.26,-0.21
09:02:05.612,-0.275,-0.21
09:02:05.616,-0.26,-0.22
09:02:05.620,-0.28,-0.21
09:02:05.624,-0.27,-0.2
09:02:05.628,-0.295,-0.18
09:02:05.632,-0.305,-0.17
09:02:05.636,-0.3,-0.185
09:02:05.640,-0.31,-0.2
09:02:05.644,-0.285,-0.17
09:02:05.648,-0.265,-0.16
09:02:05.652,-0.265,-0.135
09:02:05.656,-0.25,-0.17
09:02:05.660,-0.225,-0.195
09:02:05.664,-0.235,-0.16
09:02:05.668,-0.295,-0.135
09:02:05.672,-0.32,-0.14
09:02:05.676,-0.355,-0.135
09:02:05.680,-0.36,-0.18
09:02:05.684,-0.32,-0.195
09:02:05.688,-0.33,-0.185
09:02:05.692,-0.375,-0.205
09:02:05.696,-0.36,-0.22
09:02:05.700,-0.365,-0.19
09:02:05.704,-0.365,-0.175
09:02:05.708,-0.385,-0.185
09:02:05.712,-0.42,-0.21
09:02:05.716,-0.455,-0.19
09:02:05.720,-0.47,-0.215
09:02:05.724,-0.495,-0.2
09:02:05.728,-0.48,-0.22
09:02:05.732,-0.515,-0.2
09:02:05.736,-0.52,-0.245
09:02:05.740,-0.53,-0.225
09:02:05.744,-0.52,-0.23
09:02:05.748,-0.53,-0.225
09:02:05.752,-0.55,-0.225
09:02:05.756,-0.575,-0.255
09:02:05.760,-0.615,-0.27
09:02:05.764,-0.63,-0.29
09:02:05.768,-0.635,-0.335
09:02:05.772,-0.665,-0.33
09:02:05.776,-0.675,-0.33
09:02:05.780,-0.685,-0.345
09:02:05.784,-0.665,-0.34
09:02:05.788,-0.67,-0.33
09:02:05.792,-0.67,-0.34
09:02:05.796,-0.665,-0.365
09:02:05.800,-0.675,-0.36
09:02:05.804,-0.705,-0.36
09:02:05.808,-0.715,-0.385
09:02:05.812,-0.69,-0.38
09:02:05.816,-0.68,-0.37
09:02:05.820,-0.64,-0.385
09:02:05.824,-0.6,-0.4
09:02:05.828,-0.545,-0.38
09:02:05.832,-0.53,-0.38
09:02:05.836,-0.47,-0.38
09:02:05.840,-0.42,-0.365
09:02:05.844,-0.38,-0.385
09:02:05.848,-0.36,-0.355
09:02:05.852,-0.335,-0.38
09:02:05.856,-0.3,-0.34
09:02:05.860,-0.25,-0.315
09:02:05.864,-0.24,-0.3
09:02:05.868,-0.25,-0.265
09:02:05.872,-0.24,-0.26
09:02:05.876,-0.2,-0.22
09:02:05.880,-0.175,-0.195
09:02:05.884,-0.17,-0.19
09:02:05.888,-0.15,-0.19
09:02:05.892,-0.14,-0.17
09:02:05.896,-0.1,-0.16
09:02:05.900,-0.135,-0.12
09:02:05.904,-0.16,-0.14
09:02:05.908,-0.205,-0.145
09:02:05.912,-0.205,-0.145
09:02:05.916,-0.195,-0.14
09:02:05.920,-0.16,-0.13
09:02:05.924,-0.15,-0.145
09:02:05.928,-0.15,-0.145
09:02:05.932,-0.14,-0.145
09:02:05.936,-0.15,-0.14
09:02:05.940,-0.14,-0.135
09:02:05.944,-0.15,-0.135
09:02:05.948,-0.155,-0.12
09:02:05.952,-0.16,-0.13
09:02:05.956,-0.18,-0.125
09:02:05.960,-0.17,-0.09
09:02:05.964,-0.195,-0.125
09:02:05.968,-0.18,-0.125
09:02:05.972,-0.17,-0.115
09:02:05.976,-0.145,-0.155
09:02:05.980,-0.145,-0.155
09:02:05.984,-0.17,-0.155
09:02:05.988,-0.165,-0.165
09:02:05.992,-0.175,-0.16
09:02:05.996,-0.17,-0.185
09:02:06.000,-0.175,-0.2
09:02:06.004,-0.2,-0.195
09:02:06.008,-0.19,-0.16
09:02:06.012,-0.195,-0.175
09:02:06.016,-0.21,-0.175
09:02:06.020,-0.18,-0.165
09:02:06.024,-0.165,-0.18
09:02:06.028,-0.18,-0.2
09:02:06.032,-0.16,-0.175
09:02:06.036,-0.18,-0.165
09:02:06.040,-0.175,-0.19
09:02:06.044,-0.16,-0.185
09:02:06.048,-0.17,-0.17
09:02:06.052,-0.2,-0.17
09:02:06.056,-0.19,-0.16
09:02:06.060,-0.14,-0.18
09:02:06.064,-0.17,-0.185
09:02:06.068,-0.18,-0.18
09:02:06.072,-0.185,-0.19
09:02:06.076,-0.175,-0.2
09:02:06.080,-0.165,-0.155
09:02:06.084,-0.195,-0.185
09:02:06.088,-0.22,-0.16
09:02:06.092,-0.195,-0.16
09:02:06.096,-0.205,-0.195
09:02:06.100,-0.205,-0.195
09:02:06.104,-0.175,-0.17
09:02:06.108,-0.165,-0.155
09:02:06.112,-0.165,-0.2
09:02:06.116,-0.155,-0.175
09:02:06.120,-0.155,-0.13
09:02:06.124,-0.18,-0.165
09:02:06.128,-0.195,-0.165
09:02:06.132,-0.2,-0.175
09:02:06.136,-0.2,-0.17
09:02:06.140,-0.235,-0.2
09:02:06.144,-0.225,-0.21
09:02:06.148,-0.205,-0.155
09:02:06.152,-0.185,-0.175
09:02:06.156,-0.155,-0.2
09:02:06.160,-0.205,-0.17
09:02:06.164,-0.185,-0.18
09:02:06.168,-0.17,-0.18
09:02:06.172,-0.17,-0.195
09:02:06.176,-0.185,-0.205
09:02:06.180,-0.155,-0.19
09:02:06.184,-0.17,-0.175
09:02:06.188,-0.205,-0.175
09:02:06.192,-0.22,-0.145
09:02:06.196,-0.21,-0.16
09:02:06.200,-0.185,-0.2
09:02:06.204,-0.175,-0.19
09:02:06.208,-0.17,-0.19
09:02:06.212,-0.195,-0.185
09:02:06.216,-0.21,-0.155
09:02:06.220,-0.15,-0.165
09:02:06.224,-0.17,-0.175
09:02:06.228,-0.2,-0.175
09:02:06.232,-0.23,-0.185
09:02:06.236,-0.215,-0.175
09:02:06.240,-0.21,-0.17
09:02:06.244,-0.18,-0.155
09:02:06.248,-0.175,-0.175
09:02:06.252,-0.19,-0.16
09:02:06.256,-0.185,-0.19
09:02:06.260,-0.185,-0.195
09:02:06.264,-0.175,-0.185
09:02:06.268,-0.195,-0.165
09:02:06.272,-0.22,-0.19
09:02:06.276,-0.23,-0.175
09:02:06.280,-0.22,-0.185
09:02:06.284,-0.195,-0.175
09:02:06.288,-0.195,-0.185
09:02:06.292,-0.17,-0.18
09:02:06.296,-0.165,-0.17
09:02:06.300,-0.17,-0.175
09:02:06.304,-0.19,-0.215
09:02:06.308,-0.195,-0.21
09:02:06.312,-0.185,-0.185
09:02:06.316,-0.18,-0.165
09:02:06.320,-0.195,-0.195
09:02:06.324,-0.19,-0.19
09:02:06.328,-0.175,-0.18
09:02:06.332,-0.14,-0.22
09:02:06.336,-0.085,-0.18
09:02:06.340,-0.07,-0.16
09:02:06.344,-0.075,-0.125
09:02:06.348,-0.07,-0.105
09:02:06.352,-0.035,-0.07
09:02:06.356,-0.025,-0.1
09:02:06.360,-0.035,-0.14
09:02:06.364,-0.025,-0.145
09:02:06.368,-0.045,-0.11
09:02:06.372,-0.05,-0.14
09:02:06.376,-0.03,-0.13
09:02:06.380,0,-0.18
09:02:06.384,-0.04,-0.24
09:02:06.388,-0.06,-0.245
09:02:06.392,-0.095,-0.245
09:02:06.396,-0.095,-0.245
09:02:06.400,-0.145,-0.24
09:02:06.404,-0.21,-0.215
09:02:06.408,-0.215,-0.21
09:02:06.412,-0.22,-0.21
09:02:06.416,-0.235,-0.205
09:02:06.420,-0.275,-0.225
09:02:06.424,-0.25,-0.235
09:02:06.428,-0.235,-0.23
09:02:06.432,-0.19,-0.25
09:02:06.436,-0.15,-0.29
09:02:06.440,-0.1,-0.25
09:02:06.444,-0.08,-0.195
09:02:06.448,-0.03,-0.155
09:02:06.452,0.135,-0.07
09:02:06.456,0.46,-0.06
09:02:06.460,0.76,-0.09
09:02:06.464,0.935,-0.15
09:02:06.468,1.09,-0.28
09:02:06.472,0.98,-0.495
09:02:06.476,0.345,-0.725
09:02:06.480,-0.495,-0.985
09:02:06.484,-1.095,-1.265
09:02:06.488,-1.365,-1.5
09:02:06.492,-1.365,-1.7
09:02:06.496,-1.3,-1.785
09:02:06.500,-1.175,-1.745
09:02:06.504,-0.925,-1.55
09:02:06.508,-0.71,-1.295
09:02:06.512,-0.52,-1.075
09:02:06.516,-0.42,-0.855
09:02:06.520,-0.365,-0.645
09:02:06.524,-0.315,-0.485
09:02:06.528,-0.3,-0.355
09:02:06.532,-0.265,-0.31
09:02:06.536,-0.28,-0.275
09:02:06.540,-0.3,-0.26
09:02:06.544,-0.3,-0.255
09:02:06.548,-0.3,-0.225
09:02:06.552,-0.295,-0.19
09:02:06.556,-0.3,-0.19
09:02:06.560,-0.275,-0.195
09:02:06.564,-0.255,-0.2
09:02:06.568,-0.25,-0.2
09:02:06.572,-0.29,-0.235
09:02:06.576,-0.295,-0.21
09:02:06.580,-0.285,-0.17
09:02:06.584,-0.3,-0.19
09:02:06.588,-0.335,-0.22
09:02:06.592,-0.345,-0.215
09:02:06.596,-0.36,-0.175
09:02:06.600,-0.375,-0.18
09:02:06.604,-0.36,-0.185
09:02:06.608,-0.345,-0.21
09:02:06.612,-0.345,-0.205
09:02:06.616,-0.34,-0.22
09:02:06.620,-0.37,-0.205
09:02:06.624,-0.39,-0.22
09:02:06.628,-0.38,-0.195
09:02:06.632,-0.41,-0.215
09:02:06.636,-0.43,-0.21
09:02:06.640,-0.455,-0.225
09:02:06.644,-0.46,-0.22
09:02:06.648,-0.445,-0.235
09:02:06.652,-0.46,-0.23
09:02:06.656,-0.49,-0.215
09:02:06.660,-0.51,-0.24
09:02:06.664,-0.52,-0.235
09:02:06.668,-0.53,-0.26
09:02:06.672,-0.55,-0.275
09:02:06.676,-0.57,-0.27
09:02:06.680,-0.595,-0.275
09:02:06.684,-0.61,-0.285
09:02:06.688,-0.62,-0.31
09:02:06.692,-0.665,-0.32
09:02:06.696,-0.655,-0.31
09:02:06.700,-0.675,-0.3
09:02:06.704,-0.675,-0.31
09:02:06.708,-0.685,-0.325
09:02:06.712,-0.67,-0.34
09:02:06.716,-0.67,-0.35
09:02:06.720,-0.73,-0.355
09:02:06.724,-0.77,-0.37
09:02:06.728,-0.79,-0.355
09:02:06.732,-0.76,-0.365
09:02:06.736,-0.77,-0.385
09:02:06.740,-0.8,-0.395
09:02:06.744,-0.79,-0.395
09:02:06.748,-0.775,-0.4
09:02:06.752,-0.745,-0.405
09:02:06.756,-0.71,-0.42
09:02:06.760,-0.71,-0.43
09:02:06.764,-0.71,-0.435
09:02:06.768,-0.68,-0.44
09:02:06.772,-0.67,-0.44
09:02:06.776,-0.625,-0.46
09:02:06.780,-0.595,-0.43
09:02:06.784,-0.54,-0.42
09:02:06.788,-0.485,-0.4
09:02:06.792,-0.435,-0.39
09:02:06.796,-0.41,-0.37
09:02:06.800,-0.405,-0.36
09:02:06.804,-0.36,-0.315
09:02:06.808,-0.325,-0.29
09:02:06.812,-0.33,-0.27
09:02:06.816,-0.31,-0.26
09:02:06.820,-0.295,-0.205
09:02:06.824,-0.295,-0.185
09:02:06.828,-0.275,-0.15
09:02:06.832,-0.26,-0.13
09:02:06.836,-0.225,-0.155
09:02:06.840,-0.22,-0.125
09:02:06.844,-0.21,-0.115
09:02:06.848,-0.195,-0.09
09:02:06.852,-0.2,-0.12
09:02:06.856,-0.19,-0.105
09:02:06.860,-0.175,-0.1
09:02:06.864,-0.18,-0.11
09:02:06.868,-0.16,-0.1
09:02:06.872,-0.135,-0.09
09:02:06.876,-0.16,-0.08
09:02:06.880,-0.15,-0.09
09:02:06.884,-0.14,-0.08
09:02:06.888,-0.125,-0.07
09:02:06.892,-0.115,-0.08
09:02:06.896,-0.145,-0.105
09:02:06.900,-0.175,-0.1
09:02:06.904,-0.175,-0.12
09:02:06.908,-0.185,-0.11
09:02:06.912,-0.19,-0.12
09:02:06.916,-0.21,-0.115
09:02:06.920,-0.195,-0.125
09:02:06.924,-0.195,-0.115
09:02:06.928,-0.155,-0.13
09:02:06.932,-0.145,-0.13
09:02:06.936,-0.155,-0.145
09:02:06.940,-0.18,-0.1
09:02:06.944,-0.18,-0.11
09:02:06.948,-0.205,-0.115
09:02:06.952,-0.2,-0.12
09:02:06.956,-0.21,-0.165
09:02:06.960,-0.215,-0.145
09:02:06.964,-0.215,-0.11
09:02:06.968,-0.19,-0.13
09:02:06.972,-0.18,-0.135
09:02:06.976,-0.175,-0.115
09:02:06.980,-0.16,-0.125
09:02:06.984,-0.175,-0.13
09:02:06.988,-0.18,-0.12
09:02:06.992,-0.205,-0.12
09:02:06.996,-0.205,-0.14
09:02:07.000,-0.2,-0.13
09:02:07.004,-0.19,-0.13
09:02:07.008,-0.185,-0.16
09:02:07.012,-0.195,-0.12
09:02:07.016,-0.2,-0.15
09:02:07.020,-0.16,-0.16
09:02:07.024,-0.15,-0.16
09:02:07.028,-0.155,-0.135
09:02:07.032,-0.155,-0.145
09:02:07.036,-0.175,-0.16
09:02:07.040,-0.2,-0.145
09:02:07.044,-0.2,-0.145
09:02:07.048,-0.205,-0.105
09:02:07.052,-0.19,-0.14
09:02:07.056,-0.185,-0.155
09:02:07.060,-0.185,-0.165
09:02:07.064,-0.195,-0.15
09:02:07.068,-0.21,-0.12
09:02:07.072,-0.185,-0.125
09:02:07.076,-0.175,-0.145
09:02:07.080,-0.18,-0.13
09:02:07.084,-0.185,-0.105
09:02:07.088,-0.175,-0.115
09:02:07.092,-0.155,-0.115
09:02:07.096,-0.21,-0.115
09:02:07.100,-0.22,-0.135
09:02:07.104,-0.205,-0.125
09:02:07.108,-0.175,-0.115
09:02:07.112,-0.165,-0.105
09:02:07.116,-0.155,-0.13
09:02:07.120,-0.155,-0.15
09:02:07.124,-0.16,-0.125
09:02:07.128,-0.2,-0.12
09:02:07.132,-0.2,-0.15
09:02:07.136,-0.19,-0.135
09:02:07.140,-0.205,-0.15
09:02:07.144,-0.195,-0.125
09:02:07.148,-0.18,-0.135
09:02:07.152,-0.175,-0.12
09:02:07.156,-0.17,-0.14
09:02:07.160,-0.135,-0.135
09:02:07.164,-0.09,-0.145
09:02:07.168,-0.07,-0.1
09:02:07.172,-0.05,-0.1
09:02:07.176,-0.06,-0.085
09:02:07.180,-0.06,-0.04
09:02:07.184,-0.05,-0.01
09:02:07.188,-0.04,-0.045
09:02:07.192,-0.01,-0.045
09:02:07.196,-0.02,-0.025
09:02:07.200,-0.02,-0.035
09:02:07.204,-0.02,-0.05
09:02:07.208,-0.015,-0.09
09:02:07.212,0.005,-0.135
09:02:07.216,-0.01,-0.195
09:02:07.220,-0.07,-0.22
09:02:07.224,-0.11,-0.195
09:02:07.228,-0.135,-0.21
09:02:07.232,-0.17,-0.21
09:02:07.236,-0.18,-0.165
09:02:07.240,-0.2,-0.145
09:02:07.244,-0.19,-0.145
09:02:07.248,-0.19,-0.145
09:02:07.252,-0.225,-0.15
09:02:07.256,-0.215,-0.16
09:02:07.260,-0.21,-0.16
09:02:07.264,-0.185,-0.165
09:02:07.268,-0.18,-0.185
09:02:07.272,-0.18,-0.19
09:02:07.276,-0.125,-0.15
09:02:07.280,-0.045,-0.08
09:02:07.284,0.11,-0.035
09:02:07.288,0.355,-0.05
09:02:07.292,0.655,-0.08
09:02:07.296,0.815,-0.155
09:02:07.300,0.89,-0.32
09:02:07.304,0.85,-0.62
09:02:07.308,0.435,-0.94
09:02:07.312,-0.38,-1.235
09:02:07.316,-1.12,-1.53
09:02:07.320,-1.47,-1.755
09:02:07.324,-1.535,-1.98
09:02:07.328,-1.42,-2.105
09:02:07.332,-1.205,-2.035
09:02:07.336,-0.95,-1.79
09:02:07.340,-0.72,-1.5
09:02:07.344,-0.54,-1.2
09:02:07.348,-0.405,-0.9
09:02:07.352,-0.325,-0.665
09:02:07.356,-0.265,-0.445
09:02:07.360,-0.275,-0.285
09:02:07.364,-0.27,-0.225
09:02:07.368,-0.25,-0.175
09:02:07.372,-0.27,-0.185
09:02:07.376,-0.24,-0.15
09:02:07.380,-0.235,-0.14
09:02:07.384,-0.205,-0.125
09:02:07.388,-0.215,-0.115
09:02:07.392,-0.22,-0.115
09:02:07.396,-0.22,-0.115
09:02:07.400,-0.23,-0.11
09:02:07.404,-0.235,-0.11
09:02:07.408,-0.26,-0.09
09:02:07.412,-0.265,-0.1
09:02:07.416,-0.24,-0.09
09:02:07.420,-0.275,-0.095
09:02:07.424,-0.27,-0.1
09:02:07.428,-0.255,-0.1
09:02:07.432,-0.24,-0.06
09:02:07.436,-0.235,-0.07
09:02:07.440,-0.245,-0.07
09:02:07.444,-0.25,-0.08
09:02:07.448,-0.265,-0.08
09:02:07.452,-0.31,-0.06
09:02:07.456,-0.31,-0.08
09:02:07.460,-0.3,-0.08
09:02:07.464,-0.32,-0.07
09:02:07.468,-0.315,-0.085
09:02:07.472,-0.35,-0.065
09:02:07.476,-0.345,-0.07
09:02:07.480,-0.365,-0.105
09:02:07.484,-0.345,-0.105
09:02:07.488,-0.38,-0.125
09:02:07.492,-0.41,-0.115
09:02:07.496,-0.44,-0.1
09:02:07.500,-0.48,-0.12
09:02:07.504,-0.49,-0.14
09:02:07.508,-0.51,-0.15
09:02:07.512,-0.585,-0.15
09:02:07.516,-0.605,-0.155
09:02:07.520,-0.605,-0.175
09:02:07.524,-0.61,-0.195
09:02:07.528,-0.64,-0.185
09:02:07.532,-0.67,-0.18
09:02:07.536,-0.695,-0.21
09:02:07.540,-0.7,-0.21
09:02:07.544,-0.765,-0.245
09:02:07.548,-0.785,-0.255
09:02:07.552,-0.785,-0.27
09:02:07.556,-0.805,-0.265
09:02:07.560,-0.83,-0.29
09:02:07.564,-0.86,-0.32
09:02:07.568,-0.86,-0.34
09:02:07.572,-0.86,-0.345
09:02:07.576,-0.83,-0.33
09:02:07.580,-0.825,-0.35
09:02:07.584,-0.825,-0.345
09:02:07.588,-0.795,-0.345
09:02:07.592,-0.77,-0.35
09:02:07.596,-0.735,-0.39
09:02:07.600,-0.67,-0.395
09:02:07.604,-0.585,-0.35
09:02:07.608,-0.505,-0.325
09:02:07.612,-0.46,-0.275
09:02:07.616,-0.39,-0.255
09:02:07.620,-0.305,-0.23
09:02:07.624,-0.23,-0.2
09:02:07.628,-0.2,-0.19
09:02:07.632,-0.145,-0.17
09:02:07.636,-0.115,-0.14
09:02:07.640,-0.135,-0.1
09:02:07.644,-0.125,-0.075
09:02:07.648,-0.115,-0.03
09:02:07.652,-0.09,0
09:02:07.656,-0.085,0.04
09:02:07.660,-0.075,0.06
09:02:07.664,-0.085,0.045
09:02:07.668,-0.07,0.03
09:02:07.672,-0.085,0.015
09:02:07.676,-0.105,0.005
09:02:07.680,-0.13,0.01
09:02:07.684,-0.13,0
09:02:07.688,-0.12,-0.02
09:02:07.692,-0.15,-0.045
09:02:07.696,-0.175,-0.04
09:02:07.700,-0.185,-0.06
09:02:07.704,-0.165,-0.04
09:02:07.708,-0.195,-0.075
09:02:07.712,-0.17,-0.1
09:02:07.716,-0.175,-0.085
09:02:07.720,-0.185,-0.105
09:02:07.724,-0.185,-0.095
09:02:07.728,-0.195,-0.115
09:02:07.732,-0.2,-0.105
09:02:07.736,-0.22,-0.115
09:02:07.740,-0.2,-0.12
09:02:07.744,-0.2,-0.125
09:02:07.748,-0.205,-0.14
09:02:07.752,-0.18,-0.125
09:02:07.756,-0.18,-0.14
09:02:07.760,-0.17,-0.14
09:02:07.764,-0.165,-0.14
09:02:07.768,-0.19,-0.125
09:02:07.772,-0.2,-0.14
09:02:07.776,-0.205,-0.135
09:02:07.780,-0.225,-0.135
09:02:07.784,-0.205,-0.12
09:02:07.788,-0.205,-0.125
09:02:07.792,-0.2,-0.16
09:02:07.796,-0.195,-0.135
09:02:07.800,-0.195,-0.14
09:02:07.804,-0.14,-0.135
09:02:07.808,-0.115,-0.095
09:02:07.812,-0.085,-0.055
09:02:07.816,0.075,-0.07
09:02:07.820,0.32,-0.12
09:02:07.824,0.6,-0.215
09:02:07.828,0.74,-0.305
09:02:07.832,0.79,-0.56
09:02:07.836,0.61,-0.885
09:02:07.840,-0.04,-1.18
09:02:07.844,-0.945,-1.5
09:02:07.848,-1.545,-1.81
09:02:07.852,-1.685,-2.11
09:02:07.856,-1.575,-2.355
09:02:07.860,-1.29,-2.345
09:02:07.864,-0.96,-2.12
09:02:07.868,-0.635,-1.745
09:02:07.872,-0.425,-1.335
09:02:07.876,-0.34,-0.965
09:02:07.880,-0.265,-0.665
09:02:07.884,-0.21,-0.425
09:02:07.888,-0.2,-0.29
09:02:07.892,-0.19,-0.185
09:02:07.896,-0.175,-0.15
09:02:07.900,-0.165,-0.17
09:02:07.904,-0.16,-0.145
09:02:07.908,-0.185,-0.135
09:02:07.912,-0.195,-0.11
09:02:07.916,-0.2,-0.095
09:02:07.920,-0.185,-0.105
09:02:07.924,-0.195,-0.08
09:02:07.928,-0.16,-0.065
09:02:07.932,-0.15,-0.05
09:02:07.936,-0.14,-0.065
09:02:07.940,-0.125,-0.055
09:02:07.944,-0.165,-0.075
09:02:07.948,-0.18,-0.05
09:02:07.952,-0.19,-0.045
09:02:07.956,-0.19,-0.065
09:02:07.960,-0.215,-0.035
09:02:07.964,-0.195,-0.055
09:02:07.968,-0.2,-0.045
09:02:07.972,-0.205,-0.045
09:02:07.976,-0.22,-0.045
09:02:07.980,-0.215,-0.005
09:02:07.984,-0.195,-0.025
09:02:07.988,-0.235,-0.025
09:02:07.992,-0.245,-0.015
09:02:07.996,-0.225,-0.01
09:02:08.000,-0.26,-0.01
09:02:08.004,-0.29,0
09:02:08.008,-0.305,-0.01
09:02:08.012,-0.31,-0.035
09:02:08.016,-0.335,-0.03
09:02:08.020,-0.365,-0.025
09:02:08.024,-0.375,-0.04
09:02:08.028,-0.36,-0.04
09:02:08.032,-0.38,-0.04
09:02:08.036,-0.395,-0.06
09:02:08.040,-0.42,-0.075
09:02:08.044,-0.46,-0.06
09:02:08.048,-0.51,-0.07
09:02:08.052,-0.535,-0.085
09:02:08.056,-0.555,-0.09
09:02:08.060,-0.565,-0.12
09:02:08.064,-0.585,-0.105
09:02:08.068,-0.58,-0.075
09:02:08.072,-0.595,-0.1
09:02:08.076,-0.61,-0.09
09:02:08.080,-0.59,-0.11
09:02:08.084,-0.58,-0.13
09:02:08.088,-0.57,-0.145
09:02:08.092,-0.565,-0.115
09:02:08.096,-0.545,-0.135
09:02:08.100,-0.51,-0.12
09:02:08.104,-0.465,-0.125
09:02:08.108,-0.44,-0.1
09:02:08.112,-0.38,-0.1
09:02:08.116,-0.32,-0.07
09:02:08.120,-0.26,-0.06
09:02:08.124,-0.205,-0.065
09:02:08.128,-0.145,-0.065
09:02:08.132,-0.125,-0.045
09:02:08.136,-0.115,-0.035
09:02:08.140,-0.115,-0.03
09:02:08.144,-0.095,-0.005
09:02:08.148,-0.07,0
09:02:08.152,-0.05,0
09:02:08.156,-0.075,0.04
09:02:08.160,-0.06,0.03
09:02:08.164,-0.035,0.01
09:02:08.168,-0.02,0.04
09:02:08.172,-0.015,0.01
09:02:08.176,-0.03,0.025
09:02:08.180,-0.05,0.02
09:02:08.184,-0.045,0.035
09:02:08.188,-0.045,0.045
09:02:08.192,-0.06,0.03
09:02:08.196,-0.05,0.035
09:02:08.200,-0.065,0.04
09:02:08.204,-0.05,0.025
09:02:08.208,-0.055,0.005
09:02:08.212,-0.04,0.01
09:02:08.216,-0.055,0.02
09:02:08.220,-0.045,0.005
09:02:08.224,-0.05,0.015
09:02:08.228,-0.075,0.01
09:02:08.232,-0.075,0.005
09:02:08.236,-0.065,0.02
09:02:08.240,-0.075,0.03
09:02:08.244,-0.075,0
09:02:08.248,-0.095,-0.005
09:02:08.252,-0.095,-0.01
09:02:08.256,-0.065,-0.025
09:02:08.260,-0.04,-0.03
09:02:08.264,-0.03,-0.02
09:02:08.268,-0.05,-0.025
09:02:08.272,-0.08,-0.035
09:02:08.276,-0.095,-0.025
09:02:08.280,-0.105,-0.045
09:02:08.284,-0.08,-0.03
09:02:08.288,-0.095,-0.015
09:02:08.292,-0.095,-0.045
09:02:08.296,-0.08,-0.045
09:02:08.300,-0.07,-0.05
09:02:08.304,-0.055,-0.045
09:02:08.308,-0.065,-0.035
09:02:08.312,-0.06,-0.055
09:02:08.316,-0.095,-0.05
09:02:08.320,-0.1,-0.075
09:02:08.324,-0.11,-0.05
09:02:08.328,-0.11,-0.055
09:02:08.332,-0.11,-0.065
09:02:08.336,-0.08,-0.065
09:02:08.340,-0.03,-0.075
09:02:08.344,0.01,-0.06
09:02:08.348,0.07,-0.045
09:02:08.352,0.15,-0.015
09:02:08.356,0.21,0
09:02:08.360,0.255,0.02
09:02:08.364,0.29,0.07
09:02:08.368,0.275,0.085
09:02:08.372,0.245,0.08
09:02:08.376,0.22,0.05
09:02:08.380,0.155,0.025
09:02:08.384,0.125,0
09:02:08.388,0.09,-0.015
09:02:08.392,0.05,-0.02
09:02:08.396,0.01,-0.02
09:02:08.400,-0.005,-0.025
09:02:08.404,-0.04,-0.005
09:02:08.408,-0.085,-0.025
09:02:08.412,-0.14,-0.01
09:02:08.416,-0.185,-0.07
09:02:08.420,-0.16,-0.07
09:02:08.424,-0.155,-0.12
09:02:08.428,-0.145,-0.115
09:02:08.432,-0.13,-0.11
09:02:08.436,-0.07,-0.09
09:02:08.440,-0.01,-0.095
09:02:08.444,0.045,-0.045
09:02:08.448,0.185,-0.02
09:02:08.452,0.4,-0.02
09:02:08.456,0.615,-0.05
09:02:08.460,0.735,-0.1
09:02:08.464,0.8,-0.28
09:02:08.468,0.75,-0.655
09:02:08.472,0.35,-1.075
09:02:08.476,-0.465,-1.44
09:02:08.480,-1.215,-1.72
09:02:08.484,-1.545,-1.96
09:02:08.488,-1.595,-2.26
09:02:08.492,-1.42,-2.41
09:02:08.496,-1.05,-2.28
09:02:08.500,-0.75,-1.985
09:02:08.504,-0.505,-1.59
09:02:08.508,-0.36,-1.185
09:02:08.512,-0.26,-0.825
09:02:08.516,-0.19,-0.525
09:02:08.520,-0.185,-0.325
09:02:08.524,-0.19,-0.23
09:02:08.528,-0.195,-0.16
09:02:08.532,-0.16,-0.145
09:02:08.536,-0.14,-0.13
09:02:08.540,-0.13,-0.095
09:02:08.544,-0.11,-0.1
09:02:08.548,-0.125,-0.08
09:02:08.552,-0.15,-0.08
09:02:08.556,-0.16,-0.055
09:02:08.560,-0.17,-0.04
09:02:08.564,-0.16,-0.045
09:02:08.568,-0.18,-0.06
09:02:08.572,-0.195,-0.055
09:02:08.576,-0.16,-0.045
09:02:08.580,-0.16,-0.025
09:02:08.584,-0.16,-0.03
09:02:08.588,-0.17,-0.025
09:02:08.592,-0.165,-0.015
09:02:08.596,-0.19,-0.01
09:02:08.600,-0.2,-0.015
09:02:08.604,-0.2,-0.01
09:02:08.608,-0.22,-0.025
09:02:08.612,-0.22,-0.055
09:02:08.616,-0.215,-0.025
09:02:08.620,-0.23,-0.03
09:02:08.624,-0.21,-0.025
09:02:08.628,-0.205,-0.025
09:02:08.632,-0.235,-0.015
09:02:08.636,-0.275,-0.02
09:02:08.640,-0.295,-0.05
09:02:08.644,-0.305,-0.045
09:02:08.648,-0.34,-0.05
09:02:08.652,-0.355,-0.055
09:02:08.656,-0.375,-0.05
09:02:08.660,-0.395,-0.06
09:02:08.664,-0.4,-0.08
09:02:08.668,-0.41,-0.09
09:02:08.672,-0.43,-0.06
09:02:08.676,-0.445,-0.08
09:02:08.680,-0.465,-0.095
09:02:08.684,-0.515,-0.105
09:02:08.688,-0.515,-0.1
09:02:08.692,-0.55,-0.11
09:02:08.696,-0.585,-0.11
09:02:08.700,-0.595,-0.125
09:02:08.704,-0.595,-0.12
09:02:08.708,-0.625,-0.135
09:02:08.712,-0.665,-0.11
09:02:08.716,-0.635,-0.115
09:02:08.720,-0.64,-0.12
09:02:08.724,-0.65,-0.135
09:02:08.728,-0.645,-0.12
09:02:08.732,-0.645,-0.125
09:02:08.736,-0.64,-0.125
09:02:08.740,-0.635,-0.15
09:02:08.744,-0.6,-0.14
09:02:08.748,-0.58,-0.155
09:02:08.752,-0.52,-0.165
09:02:08.756,-0.47,-0.145
09:02:08.760,-0.4,-0.14
09:02:08.764,-0.355,-0.145
09:02:08.768,-0.315,-0.13
09:02:08.772,-0.285,-0.125
09:02:08.776,-0.25,-0.085
09:02:08.780,-0.21,-0.085
09:02:08.784,-0.17,-0.04
09:02:08.788,-0.13,-0.03
09:02:08.792,-0.1,-0.035
09:02:08.796,-0.09,0
09:02:08.800,-0.08,0.03
09:02:08.804,-0.055,0.005
09:02:08.808,-0.03,0.01
09:02:08.812,-0.005,0.015
09:02:08.816,-0.005,0
09:02:08.820,-0.02,0.045
09:02:08.824,-0.035,0.045
09:02:08.828,-0.04,0.05
09:02:08.832,-0.05,0.045
09:02:08.836,-0.04,0.05
09:02:08.840,-0.04,0.03
09:02:08.844,-0.035,0.035
09:02:08.848,-0.01,0.06
09:02:08.852,-0.01,0.055
09:02:08.856,-0.01,0.035
09:02:08.860,-0.005,0.05
09:02:08.864,-0.02,0.025
09:02:08.868,-0.04,0.02
09:02:08.872,-0.04,0.035
09:02:08.876,-0.04,0.04
09:02:08.880,-0.03,0.02
09:02:08.884,-0.02,0.02
09:02:08.888,-0.045,0.025
09:02:08.892,-0.045,0.025
09:02:08.896,-0.03,0.035
09:02:08.900,-0.035,0.035
09:02:08.904,-0.01,0.015
09:02:08.908,-0.005,0.035
09:02:08.912,-0.035,0.015
09:02:08.916,-0.065,0.015
09:02:08.920,-0.065,0.045
09:02:08.924,-0.075,0.035
09:02:08.928,-0.065,0.02
09:02:08.932,-0.055,0
09:02:08.936,-0.055,0.02
09:02:08.940,-0.035,0.005
09:02:08.944,-0.045,0.015
09:02:08.948,-0.035,-0.015
09:02:08.952,-0.055,-0.005
09:02:08.956,-0.065,-0.015
09:02:08.960,-0.075,-0.03
09:02:08.964,-0.075,0.01
09:02:08.968,-0.06,-0.005
09:02:08.972,-0.055,-0.005
09:02:08.976,-0.08,-0.005
09:02:08.980,-0.07,-0.015
09:02:08.984,-0.055,-0.02
09:02:08.988,-0.045,0
09:02:08.992,-0.05,-0.01
09:02:08.996,-0.065,-0.04
09:02:09.000,-0.06,-0.065
09:02:09.004,-0.065,-0.06
09:02:09.008,-0.07,-0.04
09:02:09.012,-0.095,-0.03
09:02:09.016,-0.095,-0.03
09:02:09.020,-0.08,-0.015
09:02:09.024,-0.08,-0.04
09:02:09.028,-0.07,-0.025
09:02:09.032,-0.04,-0.025
09:02:09.036,-0.02,-0.02
09:02:09.040,-0.04,-0.025
09:02:09.044,-0.045,-0.01
09:02:09.048,-0.035,0.005
09:02:09.052,-0.05,-0.01
09:02:09.056,-0.07,-0.02
09:02:09.060,-0.05,-0.03
09:02:09.064,-0.065,-0.04
09:02:09.068,-0.065,-0.05
09:02:09.072,-0.05,-0.035
09:02:09.076,-0.04,-0.045
09:02:09.080,-0.055,-0.03
09:02:09.084,-0.05,-0.045
09:02:09.088,-0.02,0.01
09:02:09.092,-0.04,-0.005
09:02:09.096,-0.06,-0.025
09:02:09.100,-0.075,-0.005
09:02:09.104,-0.085,-0.015
09:02:09.108,-0.07,-0.02
09:02:09.112,-0.075,-0.01
09:02:09.116,-0.065,0
09:02:09.120,-0.03,0
09:02:09.124,-0.035,-0.015
09:02:09.128,-0.035,-0.01
09:02:09.132,-0.03,-0.005
09:02:09.136,-0.05,-0.04
09:02:09.140,-0.05,-0.03
09:02:09.144,-0.055,-0.015
09:02:09.148,-0.08,0
09:02:09.152,-0.075,0
09:02:09.156,-0.085,-0.015
09:02:09.160,-0.075,0
09:02:09.164,-0.06,-0.01
09:02:09.168,-0.035,-0.025
09:02:09.172,-0.04,-0.035
09:02:09.176,-0.025,-0.035
09:02:09.180,-0.04,-0.04
09:02:09.184,-0.06,-0.04
09:02:09.188,-0.055,-0.035
09:02:09.192,-0.055,-0.035
09:02:09.196,-0.055,-0.05
09:02:09.200,-0.07,-0.04
09:02:09.204,-0.065,-0.045
09:02:09.208,-0.06,-0.06
09:02:09.212,-0.045,-0.07
09:02:09.216,-0.03,-0.055
09:02:09.220,-0.035,-0.07
09:02:09.224,-0.03,-0.09
09:02:09.228,-0.03,-0.08
09:02:09.232,-0.05,-0.065
09:02:09.236,-0.045,-0.06
09:02:09.240,-0.065,-0.06
09:02:09.244,-0.05,-0.06
09:02:09.248,-0.06,-0.085
09:02:09.252,-0.02,-0.1
09:02:09.256,0.05,-0.075
09:02:09.260,0.08,-0.045
09:02:09.264,0.11,-0.04
09:02:09.268,0.1,0.02
09:02:09.272,0.095,0.045
09:02:09.276,0.11,0.035
09:02:09.280,0.115,0.045
09:02:09.284,0.13,0.015
09:02:09.288,0.135,0.01
09:02:09.292,0.13,0.02
09:02:09.296,0.115,0.03
09:02:09.300,0.12,-0.01
09:02:09.304,0.115,-0.04
09:02:09.308,0.07,-0.09
09:02:09.312,0.085,-0.11
09:02:09.316,0.06,-0.135
09:02:09.320,0.005,-0.14
09:02:09.324,-0.03,-0.1
09:02:09.328,-0.065,-0.105
09:02:09.332,-0.045,-0.1
09:02:09.336,-0.075,-0.075
09:02:09.340,-0.115,-0.095
09:02:09.344,-0.1,-0.095
09:02:09.348,-0.09,-0.08
09:02:09.352,-0.065,-0.1
09:02:09.356,-0.065,-0.13
09:02:09.360,-0.04,-0.12
09:02:09.364,0.03,-0.09
09:02:09.368,0.055,-0.04
09:02:09.372,0.17,-0.005
09:02:09.376,0.42,0
09:02:09.380,0.695,-0.04
09:02:09.384,0.87,-0.065
09:02:09.388,0.965,-0.175
09:02:09.392,1.01,-0.48
09:02:09.396,0.75,-0.84
09:02:09.400,0.015,-1.21
09:02:09.404,-0.825,-1.515
09:02:09.408,-1.34,-1.75
09:02:09.412,-1.45,-2.005
09:02:09.416,-1.345,-2.195
09:02:09.420,-1.11,-2.155
09:02:09.424,-0.8,-1.92
09:02:09.428,-0.58,-1.59
09:02:09.432,-0.37,-1.265
09:02:09.436,-0.235,-0.91
09:02:09.440,-0.135,-0.62
09:02:09.444,-0.115,-0.38
09:02:09.448,-0.09,-0.23
09:02:09.452,-0.09,-0.17
09:02:09.456,-0.1,-0.11
09:02:09.460,-0.095,-0.115
09:02:09.464,-0.1,-0.115
09:02:09.468,-0.105,-0.125
09:02:09.472,-0.1,-0.075
09:02:09.476,-0.08,-0.055
09:02:09.480,-0.07,-0.065
09:02:09.484,-0.065,-0.06
09:02:09.488,-0.055,-0.04
09:02:09.492,-0.065,-0.045
09:02:09.496,-0.085,-0.05
09:02:09.500,-0.12,-0.06
09:02:09.504,-0.13,-0.08
09:02:09.508,-0.13,-0.08
09:02:09.512,-0.13,-0.065
09:02:09.516,-0.125,-0.05
09:02:09.520,-0.125,-0.055
09:02:09.524,-0.14,-0.06
09:02:09.528,-0.135,-0.06
09:02:09.532,-0.13,-0.08
09:02:09.536,-0.13,-0.05
09:02:09.540,-0.145,-0.065
09:02:09.544,-0.15,-0.06
09:02:09.548,-0.165,-0.06
09:02:09.552,-0.18,-0.055
09:02:09.556,-0.2,-0.085
09:02:09.560,-0.215,-0.075
09:02:09.564,-0.22,-0.09
09:02:09.568,-0.24,-0.13
09:02:09.572,-0.25,-0.13
09:02:09.576,-0.26,-0.14
09:02:09.580,-0.27,-0.13
09:02:09.584,-0.285,-0.135
09:02:09.588,-0.32,-0.16
09:02:09.592,-0.355,-0.175
09:02:09.596,-0.37,-0.15
09:02:09.600,-0.4,-0.15
09:02:09.604,-0.41,-0.19
09:02:09.608,-0.42,-0.205
09:02:09.612,-0.46,-0.185
09:02:09.616,-0.44,-0.2
09:02:09.620,-0.44,-0.205
09:02:09.624,-0.43,-0.215
09:02:09.628,-0.46,-0.25
09:02:09.632,-0.485,-0.235
09:02:09.636,-0.505,-0.26
09:02:09.640,-0.525,-0.255
09:02:09.644,-0.565,-0.26
09:02:09.648,-0.545,-0.29
09:02:09.652,-0.57,-0.275
09:02:09.656,-0.555,-0.285
09:02:09.660,-0.57,-0.3
09:02:09.664,-0.565,-0.295
09:02:09.668,-0.55,-0.32
09:02:09.672,-0.515,-0.33
09:02:09.676,-0.44,-0.315
09:02:09.680,-0.43,-0.32
09:02:09.684,-0.415,-0.315
09:02:09.688,-0.39,-0.275
09:02:09.692,-0.36,-0.285
09:02:09.696,-0.31,-0.26
09:02:09.700,-0.29,-0.245
09:02:09.704,-0.235,-0.24
09:02:09.708,-0.175,-0.21
09:02:09.712,-0.095,-0.225
09:02:09.716,-0.095,-0.18
09:02:09.720,-0.055,-0.16
09:02:09.724,-0.03,-0.145
09:02:09.728,-0.045,-0.115
09:02:09.732,-0.035,-0.065
09:02:09.736,-0.05,-0.04
09:02:09.740,-0.06,-0.015
09:02:09.744,-0.055,-0.01
09:02:09.748,-0.04,-0.065
09:02:09.752,-0.04,-0.04
09:02:09.756,-0.02,-0.04
09:02:09.760,-0.015,-0.04
09:02:09.764,-0.025,-0.065
09:02:09.768,-0.06,-0.08
09:02:09.772,-0.05,-0.125
09:02:09.776,-0.055,-0.11
09:02:09.780,-0.06,-0.085
09:02:09.784,-0.06,-0.105
09:02:09.788,-0.08,-0.105
09:02:09.792,-0.12,-0.13
09:02:09.796,-0.1,-0.13
09:02:09.800,-0.085,-0.11
09:02:09.804,-0.06,-0.125
09:02:09.808,-0.06,-0.12
09:02:09.812,-0.07,-0.155
09:02:09.816,-0.065,-0.14
09:02:09.820,-0.065,-0.125
09:02:09.824,-0.08,-0.13
09:02:09.828,-0.08,-0.16
09:02:09.832,-0.085,-0.135
09:02:09.836,-0.08,-0.145
09:02:09.840,-0.1,-0.135
09:02:09.844,-0.08,-0.14
09:02:09.848,-0.09,-0.14
09:02:09.852,-0.085,-0.145
09:02:09.856,-0.06,-0.165
09:02:09.860,-0.055,-0.16
09:02:09.864,-0.085,-0.125
09:02:09.868,-0.115,-0.16
09:02:09.872,-0.115,-0.175
09:02:09.876,-0.105,-0.16
09:02:09.880,-0.09,-0.16
09:02:09.884,-0.085,-0.15
09:02:09.888,-0.08,-0.17
09:02:09.892,-0.08,-0.185
09:02:09.896,-0.02,-0.18
09:02:09.900,-0.04,-0.18
09:02:09.904,-0.065,-0.16
09:02:09.908,-0.055,-0.15
09:02:09.912,-0.04,-0.16
09:02:09.916,-0.035,-0.135
09:02:09.920,-0.02,-0.075
09:02:09.924,0.14,-0.035
09:02:09.928,0.455,-0.095
09:02:09.932,0.765,-0.13
09:02:09.936,1.015,-0.295
09:02:09.940,1.125,-0.415
09:02:09.944,0.73,-0.43
09:02:09.948,-0.155,-0.55
09:02:09.952,-0.895,-0.77
09:02:09.956,-1.275,-1.035
09:02:09.960,-1.375,-1.295
09:02:09.964,-1.325,-1.435
09:02:09.968,-1.225,-1.47
09:02:09.972,-1.04,-1.42
09:02:09.976,-0.75,-1.24
09:02:09.980,-0.43,-1.015
09:02:09.984,-0.18,-0.825
09:02:09.988,-0.055,-0.665
09:02:09.992,0,-0.47
09:02:09.996,0.06,-0.325
09:02:10.000,0.04,-0.18
09:02:10.004,-0.01,-0.135
09:02:10.008,-0.035,-0.13
09:02:10.012,-0.075,-0.13
09:02:10.016,-0.05,-0.095
09:02:10.020,-0.045,-0.1
09:02:10.024,-0.04,-0.07
09:02:10.028,-0.01,-0.065
09:02:10.032,0.005,-0.05
09:02:10.036,0.02,-0.04
09:02:10.040,-0.01,-0.05
09:02:10.044,-0.065,-0.065
09:02:10.048,-0.055,-0.095
09:02:10.052,-0.075,-0.12
09:02:10.056,-0.1,-0.135
09:02:10.060,-0.11,-0.145
09:02:10.064,-0.095,-0.175
09:02:10.068,-0.125,-0.175
09:02:10.072,-0.145,-0.215
09:02:10.076,-0.135,-0.235
09:02:10.080,-0.135,-0.23
09:02:10.084,-0.135,-0.225
09:02:10.088,-0.155,-0.245
09:02:10.092,-0.16,-0.23
09:02:10.096,-0.19,-0.22
09:02:10.100,-0.215,-0.225
09:02:10.104,-0.195,-0.235
09:02:10.108,-0.19,-0.23
09:02:10.112,-0.215,-0.245
09:02:10.116,-0.225,-0.26
09:02:10.120,-0.225,-0.275
09:02:10.124,-0.24,-0.27
09:02:10.128,-0.25,-0.29
09:02:10.132,-0.25,-0.3
09:02:10.136,-0.3,-0.28
09:02:10.140,-0.33,-0.29
09:02:10.144,-0.36,-0.29
09:02:10.148,-0.41,-0.3
09:02:10.152,-0.42,-0.34
09:02:10.156,-0.405,-0.35
09:02:10.160,-0.385,-0.37
09:02:10.164,-0.37,-0.355
09:02:10.168,-0.36,-0.37
09:02:10.172,-0.395,-0.405
09:02:10.176,-0.405,-0.42
09:02:10.180,-0.405,-0.4
09:02:10.184,-0.385,-0.4
09:02:10.188,-0.39,-0.45
09:02:10.192,-0.38,-0.44
09:02:10.196,-0.375,-0.42
09:02:10.200,-0.325,-0.435
09:02:10.204,-0.25,-0.445
09:02:10.208,-0.15,-0.41
09:02:10.212,-0.095,-0.435
09:02:10.216,-0.02,-0.415
09:02:10.220,0.055,-0.405
09:02:10.224,0.08,-0.38
09:02:10.228,0.135,-0.355
09:02:10.232,0.145,-0.34
09:02:10.236,0.15,-0.33
09:02:10.240,0.16,-0.295
09:02:10.244,0.135,-0.29
09:02:10.248,0.115,-0.26
09:02:10.252,0.125,-0.215
09:02:10.256,0.11,-0.165
09:02:10.260,0.11,-0.115
09:02:10.264,0.13,-0.085
09:02:10.268,0.13,-0.08
09:02:10.272,0.11,-0.07
09:02:10.276,0.045,-0.09
09:02:10.280,0.015,-0.1
09:02:10.284,0.02,-0.12
09:02:10.288,-0.005,-0.13
09:02:10.292,-0.03,-0.125
09:02:10.296,-0.055,-0.13
09:02:10.300,-0.085,-0.1
09:02:10.304,-0.065,-0.12
09:02:10.308,-0.045,-0.12
09:02:10.312,-0.08,-0.135
09:02:10.316,-0.1,-0.155
09:02:10.320,-0.12,-0.175
09:02:10.324,-0.105,-0.17
09:02:10.328,-0.115,-0.18
09:02:10.332,-0.155,-0.215
09:02:10.336,-0.16,-0.205
09:02:10.340,-0.16,-0.225
09:02:10.344,-0.16,-0.205
09:02:10.348,-0.165,-0.23
09:02:10.352,-0.15,-0.245
09:02:10.356,-0.155,-0.215
09:02:10.360,-0.145,-0.2
09:02:10.364,-0.15,-0.22
09:02:10.368,-0.15,-0.23
09:02:10.372,-0.17,-0.22
09:02:10.376,-0.19,-0.225
09:02:10.380,-0.18,-0.205
09:02:10.384,-0.17,-0.23
09:02:10.388,-0.16,-0.21
09:02:10.392,-0.175,-0.22
09:02:10.396,-0.165,-0.2
09:02:10.400,-0.145,-0.23
09:02:10.404,-0.16,-0.235
09:02:10.408,-0.14,-0.215
09:02:10.412,-0.16,-0.235
09:02:10.416,-0.16,-0.225
09:02:10.420,-0.19,-0.25
09:02:10.424,-0.2,-0.245
09:02:10.428,-0.19,-0.245
09:02:10.432,-0.19,-0.235
09:02:10.436,-0.185,-0.23
09:02:10.440,-0.15,-0.245
09:02:10.444,-0.1,-0.2
09:02:10.448,-0.055,-0.195
09:02:10.452,0,-0.15
09:02:10.456,0.22,-0.095
09:02:10.460,0.535,-0.085
09:02:10.464,0.845,-0.14
09:02:10.468,1.055,-0.225
09:02:10.472,1.185,-0.36
09:02:10.476,1.11,-0.545
09:02:10.480,0.53,-0.745
09:02:10.484,-0.33,-1.03
09:02:10.488,-0.94,-1.315
09:02:10.492,-1.195,-1.525
09:02:10.496,-1.19,-1.755
09:02:10.500,-1.085,-1.88
09:02:10.504,-0.885,-1.845
09:02:10.508,-0.6,-1.625
09:02:10.512,-0.37,-1.285
09:02:10.516,-0.2,-0.995
09:02:10.520,-0.165,-0.75
09:02:10.524,-0.155,-0.55
09:02:10.528,-0.14,-0.37
09:02:10.532,-0.13,-0.235
09:02:10.536,-0.115,-0.205
09:02:10.540,-0.115,-0.205
09:02:10.544,-0.155,-0.18
09:02:10.548,-0.175,-0.205
09:02:10.552,-0.17,-0.185
09:02:10.556,-0.2,-0.205
09:02:10.560,-0.195,-0.21
09:02:10.564,-0.19,-0.22
09:02:10.568,-0.18,-0.215
09:02:10.572,-0.18,-0.195
09:02:10.576,-0.215,-0.22
09:02:10.580,-0.245,-0.185
09:02:10.584,-0.225,-0.18
09:02:10.588,-0.22,-0.215
09:02:10.592,-0.2,-0.235
09:02:10.596,-0.185,-0.205
09:02:10.600,-0.205,-0.205
09:02:10.604,-0.235,-0.2
09:02:10.608,-0.22,-0.21
09:02:10.612,-0.225,-0.23
09:02:10.616,-0.24,-0.23
09:02:10.620,-0.29,-0.23
09:02:10.624,-0.32,-0.215
09:02:10.628,-0.31,-0.205
09:02:10.632,-0.29,-0.215
09:02:10.636,-0.27,-0.18
09:02:10.640,-0.295,-0.18
09:02:10.644,-0.305,-0.19
09:02:10.648,-0.36,-0.19
09:02:10.652,-0.375,-0.2
09:02:10.656,-0.365,-0.24
09:02:10.660,-0.405,-0.25
09:02:10.664,-0.475,-0.235
09:02:10.668,-0.485,-0.24
09:02:10.672,-0.445,-0.225
09:02:10.676,-0.46,-0.235
09:02:10.680,-0.495,-0.285
09:02:10.684,-0.505,-0.27
09:02:10.688,-0.515,-0.26
09:02:10.692,-0.52,-0.25
09:02:10.696,-0.575,-0.27
09:02:10.700,-0.545,-0.265
09:02:10.704,-0.545,-0.28
09:02:10.708,-0.59,-0.29
09:02:10.712,-0.575,-0.31
09:02:10.716,-0.615,-0.275
09:02:10.720,-0.62,-0.29
09:02:10.724,-0.585,-0.315
09:02:10.728,-0.575,-0.275
09:02:10.732,-0.535,-0.295
09:02:10.736,-0.53,-0.295
09:02:10.740,-0.515,-0.295
09:02:10.744,-0.505,-0.29
09:02:10.748,-0.495,-0.33
09:02:10.752,-0.475,-0.34
09:02:10.756,-0.43,-0.31
09:02:10.760,-0.37,-0.32
09:02:10.764,-0.3,-0.32
09:02:10.768,-0.28,-0.305
09:02:10.772,-0.24,-0.31
09:02:10.776,-0.205,-0.28
09:02:10.780,-0.14,-0.26
09:02:10.784,-0.115,-0.235
09:02:10.788,-0.145,-0.225
09:02:10.792,-0.155,-0.2
09:02:10.796,-0.11,-0.18
09:02:10.800,-0.095,-0.14
09:02:10.804,-0.08,-0.15
09:02:10.808,-0.075,-0.12
09:02:10.812,-0.06,-0.09
09:02:10.816,-0.035,-0.095
09:02:10.820,0,-0.11
09:02:10.824,0,-0.08
09:02:10.828,-0.02,-0.075
09:02:10.832,-0.02,-0.065
09:02:10.836,-0.045,-0.08
09:02:10.840,-0.03,-0.11
09:02:10.844,-0.075,-0.125
09:02:10.848,-0.11,-0.165
09:02:10.852,-0.08,-0.19
09:02:10.856,-0.055,-0.205
09:02:10.860,-0.01,-0.24
09:02:10.864,0,-0.29
09:02:10.868,0.005,-0.25
09:02:10.872,-0.04,-0.245
09:02:10.876,-0.045,-0.25
09:02:10.880,-0.08,-0.205
09:02:10.884,-0.13,-0.185
09:02:10.888,-0.145,-0.19
09:02:10.892,-0.16,-0.195
09:02:10.896,-0.145,-0.175
09:02:10.900,-0.16,-0.19
09:02:10.904,-0.135,-0.18
09:02:10.908,-0.16,-0.2
09:02:10.912,-0.145,-0.225
09:02:10.916,-0.16,-0.215
09:02:10.920,-0.2,-0.18
09:02:10.924,-0.195,-0.215
09:02:10.928,-0.18,-0.22
09:02:10.932,-0.16,-0.205
09:02:10.936,-0.185,-0.23
09:02:10.940,-0.17,-0.225
09:02:10.944,-0.19,-0.22
09:02:10.948,-0.185,-0.245
09:02:10.952,-0.16,-0.26
09:02:10.956,-0.19,-0.26
09:02:10.960,-0.18,-0.24
09:02:10.964,-0.205,-0.22
09:02:10.968,-0.2,-0.22
09:02:10.972,-0.24,-0.26
09:02:10.976,-0.195,-0.245
09:02:10.980,-0.18,-0.24
09:02:10.984,-0.205,-0.24
09:02:10.988,-0.18,-0.255
09:02:10.992,-0.16,-0.22
09:02:10.996,-0.17,-0.23
09:02:11.000,-0.185,-0.215
09:02:11.004,-0.16,-0.22
09:02:11.008,-0.15,-0.24
09:02:11.012,-0.17,-0.255
09:02:11.016,-0.18,-0.235
09:02:11.020,-0.18,-0.25
09:02:11.024,-0.22,-0.26
09:02:11.028,-0.24,-0.235
09:02:11.032,-0.21,-0.245
09:02:11.036,-0.21,-0.205
09:02:11.040,-0.18,-0.22
09:02:11.044,-0.14,-0.22
09:02:11.048,-0.14,-0.235
09:02:11.052,-0.155,-0.235
09:02:11.056,-0.2,-0.235
09:02:11.060,-0.23,-0.215
09:02:11.064,-0.235,-0.215
09:02:11.068,-0.23,-0.2
09:02:11.072,-0.245,-0.2
09:02:11.076,-0.245,-0.225
09:02:11.080,-0.21,-0.195
09:02:11.084,-0.16,-0.18
09:02:11.088,-0.13,-0.205
09:02:11.092,-0.155,-0.215
09:02:11.096,-0.185,-0.21
09:02:11.100,-0.19,-0.185
09:02:11.104,-0.235,-0.195
09:02:11.108,-0.23,-0.205
09:02:11.112,-0.23,-0.205
09:02:11.116,-0.225,-0.225
09:02:11.120,-0.215,-0.19
09:02:11.124,-0.245,-0.2
09:02:11.128,-0.23,-0.205
09:02:11.132,-0.16,-0.21
09:02:11.136,-0.165,-0.22
09:02:11.140,-0.185,-0.235
09:02:11.144,-0.22,-0.24
09:02:11.148,-0.235,-0.255
09:02:11.152,-0.25,-0.225
09:02:11.156,-0.255,-0.215
09:02:11.160,-0.26,-0.23
09:02:11.164,-0.255,-0.22
09:02:11.168,-0.26,-0.225
09:02:11.172,-0.26,-0.235
09:02:11.176,-0.22,-0.22
09:02:11.180,-0.22,-0.245
09:02:11.184,-0.215,-0.215
09:02:11.188,-0.215,-0.245
09:02:11.192,-0.215,-0.235
09:02:11.196,-0.235,-0.245
09:02:11.200,-0.28,-0.205
09:02:11.204,-0.3,-0.225
09:02:11.208,-0.3,-0.205
09:02:11.212,-0.28,-0.23
09:02:11.216,-0.275,-0.215
09:02:11.220,-0.245,-0.205
09:02:11.224,-0.235,-0.205
09:02:11.228,-0.26,-0.21
09:02:11.232,-0.24,-0.2
09:02:11.236,-0.245,-0.205
09:02:11.240,-0.245,-0.22
09:02:11.244,-0.24,-0.24
09:02:11.248,-0.285,-0.22
09:02:11.252,-0.305,-0.25
09:02:11.256,-0.31,-0.255
09:02:11.260,-0.315,-0.22
09:02:11.264,-0.305,-0.21
09:02:11.268,-0.285,-0.2
09:02:11.272,-0.26,-0.225
09:02:11.276,-0.24,-0.25
09:02:11.280,-0.255,-0.21
09:02:11.284,-0.285,-0.255
09:02:11.288,-0.285,-0.26
09:02:11.292,-0.27,-0.25
09:02:11.296,-0.26,-0.25
09:02:11.300,-0.255,-0.245
09:02:11.304,-0.32,-0.23
09:02:11.308,-0.365,-0.24
09:02:11.312,-0.31,-0.245
09:02:11.316,-0.255,-0.25
09:02:11.320,-0.245,-0.225
09:02:11.324,-0.235,-0.25
09:02:11.328,-0.275,-0.215
09:02:11.332,-0.33,-0.215
09:02:11.336,-0.305,-0.23
09:02:11.340,-0.295,-0.21
09:02:11.344,-0.305,-0.24
09:02:11.348,-0.32,-0.255
09:02:11.352,-0.305,-0.24
09:02:11.356,-0.275,-0.225
09:02:11.360,-0.27,-0.235
09:02:11.364,-0.285,-0.265
09:02:11.368,-0.305,-0.255
09:02:11.372,-0.3,-0.29
09:02:11.376,-0.325,-0.265
09:02:11.380,-0.34,-0.25
09:02:11.384,-0.34,-0.275
09:02:11.388,-0.335,-0.285
09:02:11.392,-0.315,-0.3
09:02:11.396,-0.305,-0.24
09:02:11.400,-0.3,-0.255
09:02:11.404,-0.32,-0.28
09:02:11.408,-0.295,-0.235
09:02:11.412,-0.315,-0.24
09:02:11.416,-0.305,-0.24
09:02:11.420,-0.345,-0.255
09:02:11.424,-0.35,-0.245
09:02:11.428,-0.36,-0.28
09:02:11.432,-0.36,-0.26
09:02:11.436,-0.33,-0.23
09:02:11.440,-0.345,-0.25
09:02:11.444,-0.32,-0.235
09:02:11.448,-0.335,-0.24
09:02:11.452,-0.315,-0.235
09:02:11.456,-0.325,-0.245
09:02:11.460,-0.335,-0.255
09:02:11.464,-0.345,-0.25
09:02:11.468,-0.34,-0.24
09:02:11.472,-0.365,-0.24
09:02:11.476,-0.36,-0.245
09:02:11.480,-0.375,-0.245
09:02:11.484,-0.4,-0.265
09:02:11.488,-0.385,-0.245
09:02:11.492,-0.35,-0.25
09:02:11.496,-0.335,-0.25
09:02:11.500,-0.34,-0.265
09:02:11.504,-0.395,-0.26
09:02:11.508,-0.415,-0.26
09:02:11.512,-0.41,-0.25
09:02:11.516,-0.41,-0.235
09:02:11.520,-0.415,-0.23
09:02:11.524,-0.43,-0.235
09:02:11.528,-0.44,-0.225
09:02:11.532,-0.45,-0.24
09:02:11.536,-0.43,-0.225
09:02:11.540,-0.43,-0.225
09:02:11.544,-0.455,-0.22
09:02:11.548,-0.46,-0.225
09:02:11.552,-0.425,-0.245
09:02:11.556,-0.49,-0.24
09:02:11.560,-0.51,-0.245
09:02:11.564,-0.58,-0.24
09:02:11.568,-0.56,-0.22
09:02:11.572,-0.59,-0.2
09:02:11.576,-0.49,-0.2
09:02:11.580,-0.425,-0.195
09:02:11.584,-0.35,-0.15
09:02:11.588,-0.245,-0.09
09:02:11.592,-0.21,-0.095
09:02:11.596,-0.205,-0.07
09:02:11.600,-0.2,-0.115
09:02:11.604,-0.27,-0.155
09:02:11.608,-0.315,-0.145
09:02:11.612,-0.345,-0.165
09:02:11.616,-0.335,-0.195
09:02:11.620,-0.375,-0.185
09:02:11.624,-0.445,-0.195
09:02:11.628,-0.47,-0.19
09:02:11.632,-0.485,-0.195
09:02:11.636,-0.53,-0.21
09:02:11.640,-0.565,-0.235
09:02:11.644,-0.565,-0.235
09:02:11.648,-0.58,-0.255
09:02:11.652,-0.6,-0.27
09:02:11.656,-0.59,-0.24
09:02:11.660,-0.545,-0.235
09:02:11.664,-0.46,-0.235
09:02:11.668,-0.375,-0.16
09:02:11.672,-0.215,-0.115
09:02:11.676,0.05,-0.135
09:02:11.680,0.3,-0.19
09:02:11.684,0.445,-0.255
09:02:11.688,0.56,-0.49
09:02:11.692,0.505,-0.82
09:02:11.696,0,-1.105
09:02:11.700,-0.85,-1.45
09:02:11.704,-1.535,-1.7
09:02:11.708,-1.855,-1.95
09:02:11.712,-1.915,-2.2
09:02:11.716,-1.775,-2.335
09:02:11.720,-1.515,-2.13
09:02:11.724,-1.2,-1.78
09:02:11.728,-1.01,-1.465
09:02:11.732,-0.87,-1.18
09:02:11.736,-0.765,-0.905
09:02:11.740,-0.745,-0.625
09:02:11.744,-0.735,-0.445
09:02:11.748,-0.735,-0.32
09:02:11.752,-0.72,-0.255
09:02:11.756,-0.72,-0.23
09:02:11.760,-0.705,-0.22
09:02:11.764,-0.68,-0.225
09:02:11.768,-0.68,-0.185
09:02:11.772,-0.695,-0.2
09:02:11.776,-0.655,-0.175
09:02:11.780,-0.685,-0.16
09:02:11.784,-0.66,-0.165
09:02:11.788,-0.7,-0.16
09:02:11.792,-0.705,-0.18
09:02:11.796,-0.65,-0.165
09:02:11.800,-0.69,-0.145
09:02:11.804,-0.68,-0.155
09:02:11.808,-0.715,-0.17
09:02:11.812,-0.75,-0.14
09:02:11.816,-0.76,-0.135
09:02:11.820,-0.75,-0.16
09:02:11.824,-0.76,-0.155
09:02:11.828,-0.79,-0.175
09:02:11.832,-0.79,-0.2
09:02:11.836,-0.81,-0.165
09:02:11.840,-0.785,-0.17
09:02:11.844,-0.775,-0.16
09:02:11.848,-0.86,-0.16
09:02:11.852,-0.845,-0.195
09:02:11.856,-0.81,-0.185
09:02:11.860,-0.815,-0.2
09:02:11.864,-0.83,-0.215
09:02:11.868,-0.835,-0.21
09:02:11.872,-0.855,-0.2
09:02:11.876,-0.905,-0.22
09:02:11.880,-0.94,-0.205
09:02:11.884,-0.92,-0.235
09:02:11.888,-0.95,-0.23
09:02:11.892,-0.97,-0.22
09:02:11.896,-0.965,-0.255
09:02:11.900,-0.92,-0.255
09:02:11.904,-0.905,-0.245
09:02:11.908,-0.91,-0.26
09:02:11.912,-0.885,-0.3
09:02:11.916,-0.92,-0.28
09:02:11.920,-0.965,-0.29
09:02:11.924,-0.995,-0.3
09:02:11.928,-1.01,-0.3
09:02:11.932,-1.065,-0.3
09:02:11.936,-1.04,-0.3
09:02:11.940,-1.045,-0.31
09:02:11.944,-1.055,-0.345
09:02:11.948,-1.04,-0.32
09:02:11.952,-1.065,-0.34
09:02:11.956,-1.05,-0.365
09:02:11.960,-1.045,-0.34
09:02:11.964,-1.035,-0.31
09:02:11.968,-1.035,-0.355
09:02:11.972,-1.035,-0.37
09:02:11.976,-1.04,-0.36
09:02:11.980,-1.055,-0.355
09:02:11.984,-1.035,-0.35
09:02:11.988,-1,-0.37
09:02:11.992,-0.985,-0.38
09:02:11.996,-0.98,-0.35
09:02:12.000,-0.91,-0.36
09:02:12.004,-0.895,-0.365
09:02:12.008,-0.91,-0.365
09:02:12.012,-0.875,-0.355
09:02:12.016,-0.845,-0.365
09:02:12.020,-0.855,-0.355
09:02:12.024,-0.81,-0.34
09:02:12.028,-0.75,-0.3
09:02:12.032,-0.715,-0.295
09:02:12.036,-0.68,-0.265
09:02:12.040,-0.67,-0.235
09:02:12.044,-0.635,-0.225
09:02:12.048,-0.605,-0.185
09:02:12.052,-0.59,-0.185
09:02:12.056,-0.575,-0.17
09:02:12.060,-0.565,-0.17
09:02:12.064,-0.56,-0.135
09:02:12.068,-0.555,-0.09
09:02:12.072,-0.55,-0.07
09:02:12.076,-0.51,-0.05
09:02:12.080,-0.515,-0.06
09:02:12.084,-0.51,-0.07
09:02:12.088,-0.52,-0.055
09:02:12.092,-0.53,-0.065
09:02:12.096,-0.5,-0.035
09:02:12.100,-0.495,-0.015
09:02:12.104,-0.47,-0.015
09:02:12.108,-0.44,-0.03
09:02:12.112,-0.45,-0.055
09:02:12.116,-0.44,-0.055
09:02:12.120,-0.46,-0.055
09:02:12.124,-0.49,-0.06
09:02:12.128,-0.505,-0.05
09:02:12.132,-0.51,-0.05
09:02:12.136,-0.465,-0.055
09:02:12.140,-0.45,-0.075
09:02:12.144,-0.465,-0.085
09:02:12.148,-0.47,-0.08
09:02:12.152,-0.505,-0.12
09:02:12.156,-0.49,-0.12
09:02:12.160,-0.47,-0.115
09:02:12.164,-0.48,-0.125
09:02:12.168,-0.475,-0.115
09:02:12.172,-0.485,-0.12
09:02:12.176,-0.445,-0.14
09:02:12.180,-0.445,-0.125
09:02:12.184,-0.455,-0.135
09:02:12.188,-0.44,-0.145
09:02:12.192,-0.445,-0.13
09:02:12.196,-0.43,-0.12
09:02:12.200,-0.46,-0.145
09:02:12.204,-0.525,-0.16
09:02:12.208,-0.54,-0.145
09:02:12.212,-0.54,-0.16
09:02:12.216,-0.54,-0.175
09:02:12.220,-0.515,-0.14
09:02:12.224,-0.47,-0.17
09:02:12.228,-0.445,-0.2
09:02:12.232,-0.46,-0.2
09:02:12.236,-0.47,-0.185
09:02:12.240,-0.495,-0.205
09:02:12.244,-0.495,-0.23
09:02:12.248,-0.515,-0.225
09:02:12.252,-0.47,-0.22
09:02:12.256,-0.46,-0.225
09:02:12.260,-0.465,-0.225
09:02:12.264,-0.475,-0.22
09:02:12.268,-0.45,-0.21
09:02:12.272,-0.425,-0.235
09:02:12.276,-0.43,-0.215
09:02:12.280,-0.48,-0.215
09:02:12.284,-0.46,-0.245
09:02:12.288,-0.47,-0.255
09:02:12.292,-0.46,-0.27
09:02:12.296,-0.475,-0.28
09:02:12.300,-0.485,-0.265
09:02:12.304,-0.475,-0.27
09:02:12.308,-0.495,-0.255
09:02:12.312,-0.49,-0.26
09:02:12.316,-0.47,-0.255
09:02:12.320,-0.425,-0.265
09:02:12.324,-0.405,-0.29
09:02:12.328,-0.46,-0.25
09:02:12.332,-0.47,-0.25
09:02:12.336,-0.47,-0.24
09:02:12.340,-0.475,-0.28
09:02:12.344,-0.47,-0.26
09:02:12.348,-0.455,-0.27
09:02:12.352,-0.445,-0.26
09:02:12.356,-0.49,-0.27
09:02:12.360,-0.51,-0.255
09:02:12.364,-0.48,-0.24
09:02:12.368,-0.425,-0.265
09:02:12.372,-0.45,-0.305
09:02:12.376,-0.44,-0.31
09:02:12.380,-0.455,-0.28
09:02:12.384,-0.5,-0.26
09:02:12.388,-0.525,-0.255
09:02:12.392,-0.465,-0.265
09:02:12.396,-0.49,-0.265
09:02:12.400,-0.47,-0.275
09:02:12.404,-0.41,-0.315
09:02:12.408,-0.415,-0.29
09:02:12.412,-0.41,-0.28
09:02:12.416,-0.48,-0.285
09:02:12.420,-0.485,-0.27
09:02:12.424,-0.47,-0.27
09:02:12.428,-0.505,-0.28
09:02:12.432,-0.53,-0.305
09:02:12.436,-0.48,-0.29
09:02:12.440,-0.47,-0.26
09:02:12.444,-0.49,-0.275
09:02:12.448,-0.475,-0.28
09:02:12.452,-0.44,-0.29
09:02:12.456,-0.44,-0.305
09:02:12.460,-0.42,-0.315
09:02:12.464,-0.425,-0.29
09:02:12.468,-0.47,-0.28
09:02:12.472,-0.465,-0.31
09:02:12.476,-0.505,-0.335
09:02:12.480,-0.58,-0.315
09:02:12.484,-0.53,-0.3
09:02:12.488,-0.49,-0.29
09:02:12.492,-0.44,-0.285
09:02:12.496,-0.44,-0.3
09:02:12.500,-0.44,-0.315
09:02:12.504,-0.43,-0.34
09:02:12.508,-0.435,-0.345
09:02:12.512,-0.41,-0.32
09:02:12.516,-0.35,-0.28
09:02:12.520,-0.32,-0.26
09:02:12.524,-0.38,-0.26
09:02:12.528,-0.42,-0.25
09:02:12.532,-0.415,-0.25
09:02:12.536,-0.34,-0.235
09:02:12.540,-0.25,-0.26
09:02:12.544,-0.25,-0.28
09:02:12.548,-0.275,-0.31
09:02:12.552,-0.28,-0.29
09:02:12.556,-0.31,-0.305
09:02:12.560,-0.33,-0.36
09:02:12.564,-0.385,-0.405
09:02:12.568,-0.415,-0.405
09:02:12.572,-0.435,-0.41
09:02:12.576,-0.44,-0.435
09:02:12.580,-0.5,-0.43
09:02:12.584,-0.495,-0.36
09:02:12.588,-0.485,-0.38
09:02:12.592,-0.525,-0.41
09:02:12.596,-0.52,-0.405
09:02:12.600,-0.46,-0.385
09:02:12.604,-0.445,-0.4
09:02:12.608,-0.495,-0.435
09:02:12.612,-0.505,-0.445
09:02:12.616,-0.505,-0.43
09:02:12.620,-0.47,-0.425
09:02:12.624,-0.425,-0.37
09:02:12.628,-0.265,-0.315
09:02:12.632,-0.015,-0.26
09:02:12.636,0.325,-0.26
09:02:12.640,0.58,-0.32
09:02:12.644,0.735,-0.375
09:02:12.648,0.77,-0.52
09:02:12.652,0.53,-0.76
09:02:12.656,-0.24,-1.05
09:02:12.660,-1.05,-1.37
09:02:12.664,-1.57,-1.61
09:02:12.668,-1.73,-1.795
09:02:12.672,-1.62,-1.975
09:02:12.676,-1.575,-2.035
09:02:12.680,-1.405,-1.925
09:02:12.684,-1.13,-1.7
09:02:12.688,-0.89,-1.44
09:02:12.692,-0.705,-1.24
09:02:12.696,-0.64,-0.98
09:02:12.700,-0.64,-0.8
09:02:12.704,-0.64,-0.62
09:02:12.708,-0.59,-0.49
09:02:12.712,-0.565,-0.475
09:02:12.716,-0.535,-0.46
09:02:12.720,-0.55,-0.445
09:02:12.724,-0.58,-0.44
09:02:12.728,-0.58,-0.38
09:02:12.732,-0.59,-0.36
09:02:12.736,-0.555,-0.375
09:02:12.740,-0.53,-0.39
09:02:12.744,-0.56,-0.365
09:02:12.748,-0.58,-0.34
09:02:12.752,-0.575,-0.36
09:02:12.756,-0.58,-0.375
09:02:12.760,-0.585,-0.4
09:02:12.764,-0.56,-0.355
09:02:12.768,-0.565,-0.365
09:02:12.772,-0.555,-0.36
09:02:12.776,-0.56,-0.37
09:02:12.780,-0.555,-0.34
09:02:12.784,-0.58,-0.33
09:02:12.788,-0.615,-0.32
09:02:12.792,-0.605,-0.325
09:02:12.796,-0.59,-0.355
09:02:12.800,-0.625,-0.36
09:02:12.804,-0.64,-0.39
09:02:12.808,-0.615,-0.375
09:02:12.812,-0.635,-0.39
09:02:12.816,-0.62,-0.37
09:02:12.820,-0.63,-0.365
09:02:12.824,-0.635,-0.4
09:02:12.828,-0.67,-0.42
09:02:12.832,-0.77,-0.385
09:02:12.836,-0.79,-0.375
09:02:12.840,-0.79,-0.37
09:02:12.844,-0.8,-0.415
09:02:12.848,-0.81,-0.44
09:02:12.852,-0.81,-0.42
09:02:12.856,-0.855,-0.4
09:02:12.860,-0.93,-0.415
09:02:12.864,-0.96,-0.425
09:02:12.868,-0.975,-0.4
09:02:12.872,-1.01,-0.41
09:02:12.876,-0.98,-0.445
09:02:12.880,-0.98,-0.42
09:02:12.884,-1,-0.46
09:02:12.888,-1.08,-0.435
09:02:12.892,-1.12,-0.445
09:02:12.896,-1.115,-0.45
09:02:12.900,-1.12,-0.45
09:02:12.904,-1.13,-0.5
09:02:12.908,-1.17,-0.51
09:02:12.912,-1.19,-0.52
09:02:12.916,-1.17,-0.53
09:02:12.920,-1.16,-0.54
09:02:12.924,-1.21,-0.52
09:02:12.928,-1.15,-0.525
09:02:12.932,-1.205,-0.55
09:02:12.936,-1.225,-0.555
09:02:12.940,-1.155,-0.575
09:02:12.944,-1.075,-0.53
09:02:12.948,-0.93,-0.5
09:02:12.952,-0.84,-0.505
09:02:12.956,-0.805,-0.45
09:02:12.960,-0.795,-0.435
09:02:12.964,-0.72,-0.375
09:02:12.968,-0.59,-0.34
09:02:12.972,-0.515,-0.33
09:02:12.976,-0.515,-0.315
09:02:12.980,-0.52,-0.31
09:02:12.984,-0.55,-0.26
09:02:12.988,-0.53,-0.24
09:02:12.992,-0.465,-0.2
09:02:12.996,-0.445,-0.145
09:02:13.000,-0.465,-0.14
09:02:13.004,-0.465,-0.125
09:02:13.008,-0.45,-0.11
09:02:13.012,-0.425,-0.155
09:02:13.016,-0.435,-0.165
09:02:13.020,-0.485,-0.215
09:02:13.024,-0.48,-0.195
09:02:13.028,-0.5,-0.22
09:02:13.032,-0.535,-0.24
09:02:13.036,-0.525,-0.23
09:02:13.040,-0.52,-0.22
09:02:13.044,-0.45,-0.22
09:02:13.048,-0.42,-0.22
09:02:13.052,-0.5,-0.275
09:02:13.056,-0.48,-0.27
09:02:13.060,-0.48,-0.26
09:02:13.064,-0.53,-0.26
09:02:13.068,-0.52,-0.275
09:02:13.072,-0.505,-0.31
09:02:13.076,-0.525,-0.3
09:02:13.080,-0.54,-0.325
09:02:13.084,-0.535,-0.32
09:02:13.088,-0.53,-0.305
09:02:13.092,-0.51,-0.305
09:02:13.096,-0.485,-0.32
09:02:13.100,-0.46,-0.31
09:02:13.104,-0.49,-0.325
09:02:13.108,-0.545,-0.33
09:02:13.112,-0.535,-0.335
09:02:13.116,-0.545,-0.305
09:02:13.120,-0.5,-0.34
09:02:13.124,-0.495,-0.345
09:02:13.128,-0.515,-0.355
09:02:13.132,-0.525,-0.34
09:02:13.136,-0.515,-0.31
09:02:13.140,-0.54,-0.33
09:02:13.144,-0.5,-0.35
09:02:13.148,-0.5,-0.345
09:02:13.152,-0.485,-0.355
09:02:13.156,-0.48,-0.33
09:02:13.160,-0.49,-0.32
09:02:13.164,-0.53,-0.29
09:02:13.168,-0.44,-0.21
09:02:13.172,-0.2,-0.185
09:02:13.176,0.09,-0.23
09:02:13.180,0.33,-0.29
09:02:13.184,0.575,-0.395
09:02:13.188,0.44,-0.425
09:02:13.192,-0.34,-0.375
09:02:13.196,-1.225,-0.375
09:02:13.200,-1.725,-0.535
09:02:13.204,-1.83,-0.75
09:02:13.208,-1.82,-1.015
09:02:13.212,-1.79,-1.08
09:02:13.216,-1.66,-1.16
09:02:13.220,-1.53,-1.165
09:02:13.224,-1.26,-1.12
09:02:13.228,-0.945,-1.015
09:02:13.232,-0.7,-0.88
09:02:13.236,-0.58,-0.74
09:02:13.240,-0.515,-0.59
09:02:13.244,-0.49,-0.46
09:02:13.248,-0.47,-0.34
09:02:13.252,-0.445,-0.285
09:02:13.256,-0.4,-0.275
09:02:13.260,-0.37,-0.29
09:02:13.264,-0.39,-0.27
09:02:13.268,-0.43,-0.28
09:02:13.272,-0.45,-0.28
09:02:13.276,-0.46,-0.24
09:02:13.280,-0.41,-0.25
09:02:13.284,-0.345,-0.25
09:02:13.288,-0.405,-0.22
09:02:13.292,-0.475,-0.23
09:02:13.296,-0.47,-0.205
09:02:13.300,-0.42,-0.19
09:02:13.304,-0.41,-0.2
09:02:13.308,-0.485,-0.22
09:02:13.312,-0.555,-0.26
09:02:13.316,-0.515,-0.305
09:02:13.320,-0.52,-0.325
09:02:13.324,-0.55,-0.355
09:02:13.328,-0.565,-0.33
09:02:13.332,-0.625,-0.37
09:02:13.336,-0.625,-0.37
09:02:13.340,-0.675,-0.39
09:02:13.344,-0.745,-0.355
09:02:13.348,-0.75,-0.36
09:02:13.352,-0.76,-0.38
09:02:13.356,-0.815,-0.39
09:02:13.360,-0.89,-0.44
09:02:13.364,-0.835,-0.45
09:02:13.368,-0.8,-0.47
09:02:13.372,-0.775,-0.49
09:02:13.376,-0.77,-0.505
09:02:13.380,-0.79,-0.49
09:02:13.384,-0.83,-0.535
09:02:13.388,-0.8,-0.525
09:02:13.392,-0.87,-0.495
09:02:13.396,-0.93,-0.56
09:02:13.400,-0.92,-0.58
09:02:13.404,-0.875,-0.535
09:02:13.408,-0.89,-0.57
09:02:13.412,-0.895,-0.59
09:02:13.416,-0.895,-0.605
09:02:13.420,-0.87,-0.59
09:02:13.424,-0.9,-0.61
09:02:13.428,-0.95,-0.62
09:02:13.432,-0.95,-0.6
09:02:13.436,-0.91,-0.6
09:02:13.440,-0.86,-0.62
09:02:13.444,-0.81,-0.64
09:02:13.448,-0.73,-0.65
09:02:13.452,-0.665,-0.65
09:02:13.456,-0.63,-0.67
09:02:13.460,-0.585,-0.695
09:02:13.464,-0.535,-0.7
09:02:13.468,-0.495,-0.71
09:02:13.472,-0.49,-0.695
09:02:13.476,-0.46,-0.67
09:02:13.480,-0.44,-0.65
09:02:13.484,-0.425,-0.62
09:02:13.488,-0.415,-0.58
09:02:13.492,-0.36,-0.565
09:02:13.496,-0.315,-0.505
09:02:13.500,-0.27,-0.44
09:02:13.504,-0.285,-0.41
09:02:13.508,-0.3,-0.405
09:02:13.512,-0.28,-0.39
09:02:13.516,-0.31,-0.335
09:02:13.520,-0.36,-0.295
09:02:13.524,-0.36,-0.285
09:02:13.528,-0.335,-0.285
09:02:13.532,-0.36,-0.295
09:02:13.536,-0.38,-0.265
09:02:13.540,-0.4,-0.28
09:02:13.544,-0.36,-0.23
09:02:13.548,-0.335,-0.215
09:02:13.552,-0.365,-0.235
09:02:13.556,-0.365,-0.2
09:02:13.560,-0.38,-0.2
09:02:13.564,-0.38,-0.195
09:02:13.568,-0.395,-0.205
09:02:13.572,-0.36,-0.195
09:02:13.576,-0.34,-0.205
09:02:13.580,-0.36,-0.195
09:02:13.584,-0.38,-0.205
09:02:13.588,-0.35,-0.18
09:02:13.592,-0.34,-0.175
09:02:13.596,-0.33,-0.175
09:02:13.600,-0.36,-0.16
09:02:13.604,-0.375,-0.21
09:02:13.608,-0.4,-0.205
09:02:13.612,-0.41,-0.205
09:02:13.616,-0.41,-0.2
09:02:13.620,-0.4,-0.18
09:02:13.624,-0.4,-0.175
09:02:13.628,-0.39,-0.19
09:02:13.632,-0.4,-0.195
09:02:13.636,-0.395,-0.19
09:02:13.640,-0.375,-0.195
09:02:13.644,-0.375,-0.2
09:02:13.648,-0.41,-0.18
09:02:13.652,-0.43,-0.205
09:02:13.656,-0.44,-0.205
09:02:13.660,-0.43,-0.18
09:02:13.664,-0.415,-0.19
09:02:13.668,-0.43,-0.2
09:02:13.672,-0.405,-0.19
09:02:13.676,-0.38,-0.205
09:02:13.680,-0.355,-0.2
09:02:13.684,-0.34,-0.195
09:02:13.688,-0.36,-0.195
09:02:13.692,-0.355,-0.2
09:02:13.696,-0.39,-0.23
09:02:13.700,-0.435,-0.26
09:02:13.704,-0.46,-0.245
09:02:13.708,-0.475,-0.24
09:02:13.712,-0.44,-0.26
09:02:13.716,-0.37,-0.25
09:02:13.720,-0.335,-0.23
09:02:13.724,-0.43,-0.265
09:02:13.728,-0.44,-0.265
09:02:13.732,-0.41,-0.25
09:02:13.736,-0.43,-0.22
09:02:13.740,-0.465,-0.22
09:02:13.744,-0.49,-0.205
09:02:13.748,-0.45,-0.22
09:02:13.752,-0.435,-0.195
09:02:13.756,-0.445,-0.21
09:02:13.760,-0.435,-0.205
09:02:13.764,-0.425,-0.21
09:02:13.768,-0.43,-0.22
09:02:13.772,-0.43,-0.235
09:02:13.776,-0.42,-0.23
09:02:13.780,-0.415,-0.22
09:02:13.784,-0.43,-0.205
09:02:13.788,-0.455,-0.205
09:02:13.792,-0.455,-0.185
09:02:13.796,-0.46,-0.18
09:02:13.800,-0.45,-0.19
09:02:13.804,-0.465,-0.215
09:02:13.808,-0.46,-0.205
09:02:13.812,-0.43,-0.17
09:02:13.816,-0.4,-0.185
09:02:13.820,-0.335,-0.18
09:02:13.824,-0.27,-0.165
09:02:13.828,-0.19,-0.15
09:02:13.832,-0.185,-0.12
09:02:13.836,-0.185,-0.1
09:02:13.840,-0.16,-0.065
09:02:13.844,-0.12,-0.04
09:02:13.848,-0.1,-0.025
09:02:13.852,-0.12,-0.09
09:02:13.856,-0.125,-0.065
09:02:13.860,-0.16,-0.105
09:02:13.864,-0.2,-0.135
09:02:13.868,-0.26,-0.21
09:02:13.872,-0.3,-0.195
09:02:13.876,-0.375,-0.18
09:02:13.880,-0.435,-0.185
09:02:13.884,-0.5,-0.185
09:02:13.888,-0.525,-0.145
09:02:13.892,-0.575,-0.16
09:02:13.896,-0.605,-0.19
09:02:13.900,-0.585,-0.185
09:02:13.904,-0.57,-0.245
09:02:13.908,-0.585,-0.29
09:02:13.912,-0.59,-0.295
09:02:13.916,-0.6,-0.275
09:02:13.920,-0.61,-0.26
09:02:13.924,-0.55,-0.25
09:02:13.928,-0.48,-0.24
09:02:13.932,-0.445,-0.22
09:02:13.936,-0.36,-0.175
09:02:13.940,-0.115,-0.125
09:02:13.944,0.195,-0.19
09:02:13.948,0.425,-0.185
09:02:13.952,0.535,-0.32
09:02:13.956,0.535,-0.68
09:02:13.960,0.25,-1.045
09:02:13.964,-0.575,-1.41
09:02:13.968,-1.4,-1.77
09:02:13.972,-1.845,-2.06
09:02:13.976,-1.985,-2.39
09:02:13.980,-1.88,-2.635
09:02:13.984,-1.555,-2.59
09:02:13.988,-1.255,-2.28
09:02:13.992,-1.02,-1.9
09:02:13.996,-0.82,-1.53
09:02:14.000,-0.705,-1.125
09:02:14.004,-0.64,-0.84
09:02:14.008,-0.625,-0.58
09:02:14.012,-0.635,-0.42
09:02:14.016,-0.62,-0.315
09:02:14.020,-0.59,-0.29
09:02:14.024,-0.595,-0.245
09:02:14.028,-0.615,-0.225
09:02:14.032,-0.63,-0.22
09:02:14.036,-0.595,-0.21
09:02:14.040,-0.585,-0.21
09:02:14.044,-0.555,-0.205
09:02:14.048,-0.57,-0.185
09:02:14.052,-0.6,-0.18
09:02:14.056,-0.575,-0.205
09:02:14.060,-0.545,-0.195
09:02:14.064,-0.56,-0.18
09:02:14.068,-0.59,-0.175
09:02:14.072,-0.61,-0.19
09:02:14.076,-0.655,-0.19
09:02:14.080,-0.645,-0.18
09:02:14.084,-0.61,-0.2
09:02:14.088,-0.59,-0.185
09:02:14.092,-0.57,-0.19
09:02:14.096,-0.615,-0.155
09:02:14.100,-0.625,-0.14
09:02:14.104,-0.65,-0.165
09:02:14.108,-0.64,-0.155
09:02:14.112,-0.645,-0.165
09:02:14.116,-0.665,-0.155
09:02:14.120,-0.665,-0.15
09:02:14.124,-0.715,-0.135
09:02:14.128,-0.715,-0.12
09:02:14.132,-0.69,-0.16
09:02:14.136,-0.7,-0.16
09:02:14.140,-0.695,-0.14
09:02:14.144,-0.72,-0.155
09:02:14.148,-0.75,-0.15
09:02:14.152,-0.8,-0.16
09:02:14.156,-0.835,-0.15
09:02:14.160,-0.83,-0.15
09:02:14.164,-0.835,-0.17
09:02:14.168,-0.865,-0.18
09:02:14.172,-0.895,-0.21
09:02:14.176,-0.87,-0.235
09:02:14.180,-0.865,-0.24
09:02:14.184,-0.89,-0.23
09:02:14.188,-0.91,-0.22
09:02:14.192,-0.95,-0.21
09:02:14.196,-0.995,-0.2
09:02:14.200,-0.97,-0.225
09:02:14.204,-0.985,-0.245
09:02:14.208,-0.985,-0.245
09:02:14.212,-1.03,-0.26
09:02:14.216,-1.065,-0.24
09:02:14.220,-1.105,-0.255
09:02:14.224,-1.095,-0.275
09:02:14.228,-1.065,-0.285
09:02:14.232,-1.07,-0.31
09:02:14.236,-1.06,-0.28
09:02:14.240,-1.045,-0.285
09:02:14.244,-1.025,-0.295
09:02:14.248,-0.995,-0.28
09:02:14.252,-0.945,-0.29
09:02:14.256,-0.89,-0.285
09:02:14.260,-0.845,-0.29
09:02:14.264,-0.81,-0.295
09:02:14.268,-0.78,-0.28
09:02:14.272,-0.715,-0.29
09:02:14.276,-0.63,-0.295
09:02:14.280,-0.6,-0.23
09:02:14.284,-0.56,-0.205
09:02:14.288,-0.525,-0.195
09:02:14.292,-0.485,-0.18
09:02:14.296,-0.505,-0.15
09:02:14.300,-0.49,-0.15
09:02:14.304,-0.435,-0.11
09:02:14.308,-0.395,-0.115
09:02:14.312,-0.365,-0.115
09:02:14.316,-0.34,-0.1
09:02:14.320,-0.365,-0.07
09:02:14.324,-0.375,-0.055
09:02:14.328,-0.345,-0.05
09:02:14.332,-0.335,-0.06
09:02:14.336,-0.35,-0.085
09:02:14.340,-0.36,-0.08
09:02:14.344,-0.385,-0.105
09:02:14.348,-0.41,-0.08
09:02:14.352,-0.375,-0.055
09:02:14.356,-0.365,-0.06
09:02:14.360,-0.315,-0.06
09:02:14.364,-0.29,-0.08
09:02:14.368,-0.275,-0.06
09:02:14.372,-0.31,-0.07
09:02:14.376,-0.35,-0.05
09:02:14.380,-0.36,-0.05
09:02:14.384,-0.34,-0.08
09:02:14.388,-0.33,-0.125
09:02:14.392,-0.32,-0.12
09:02:14.396,-0.35,-0.085
09:02:14.400,-0.335,-0.08
09:02:14.404,-0.33,-0.075
09:02:14.408,-0.355,-0.09
09:02:14.412,-0.35,-0.13
09:02:14.416,-0.36,-0.13
09:02:14.420,-0.365,-0.105
09:02:14.424,-0.39,-0.125
09:02:14.428,-0.37,-0.12
09:02:14.432,-0.35,-0.12
09:02:14.436,-0.32,-0.1
09:02:14.440,-0.32,-0.14
09:02:14.444,-0.325,-0.12
09:02:14.448,-0.345,-0.12
09:02:14.452,-0.315,-0.13
09:02:14.456,-0.295,-0.135
09:02:14.460,-0.28,-0.13
09:02:14.464,-0.275,-0.145
09:02:14.468,-0.315,-0.16
09:02:14.472,-0.36,-0.165
09:02:14.476,-0.325,-0.22
09:02:14.480,-0.315,-0.155
09:02:14.484,-0.33,-0.175
09:02:14.488,-0.355,-0.185
09:02:14.492,-0.34,-0.165
09:02:14.496,-0.345,-0.17
09:02:14.500,-0.305,-0.17
09:02:14.504,-0.29,-0.19
09:02:14.508,-0.27,-0.18
09:02:14.512,-0.26,-0.215
09:02:14.516,-0.31,-0.205
09:02:14.520,-0.345,-0.2
09:02:14.524,-0.34,-0.21
09:02:14.528,-0.29,-0.21
09:02:14.532,-0.295,-0.225
09:02:14.536,-0.305,-0.235
09:02:14.540,-0.295,-0.23
09:02:14.544,-0.3,-0.215
09:02:14.548,-0.285,-0.21
09:02:14.552,-0.29,-0.205
09:02:14.556,-0.275,-0.21
09:02:14.560,-0.255,-0.23
09:02:14.564,-0.265,-0.22
09:02:14.568,-0.305,-0.23
09:02:14.572,-0.31,-0.24
09:02:14.576,-0.305,-0.26
09:02:14.580,-0.29,-0.24
09:02:14.584,-0.25,-0.2
09:02:14.588,-0.265,-0.235
09:02:14.592,-0.28,-0.26
09:02:14.596,-0.305,-0.275
09:02:14.600,-0.295,-0.245
09:02:14.604,-0.305,-0.275
09:02:14.608,-0.34,-0.285
09:02:14.612,-0.32,-0.28
09:02:14.616,-0.34,-0.275
09:02:14.620,-0.305,-0.3
09:02:14.624,-0.3,-0.27
09:02:14.628,-0.31,-0.27
09:02:14.632,-0.315,-0.275
09:02:14.636,-0.32,-0.27
09:02:14.640,-0.335,-0.27
09:02:14.644,-0.335,-0.29
09:02:14.648,-0.315,-0.295
09:02:14.652,-0.32,-0.26
09:02:14.656,-0.34,-0.27
09:02:14.660,-0.33,-0.3
09:02:14.664,-0.315,-0.285
09:02:14.668,-0.31,-0.3
09:02:14.672,-0.28,-0.27
09:02:14.676,-0.255,-0.29
09:02:14.680,-0.26,-0.315
09:02:14.684,-0.27,-0.335
09:02:14.688,-0.275,-0.305
09:02:14.692,-0.295,-0.32
09:02:14.696,-0.305,-0.34
09:02:14.700,-0.315,-0.34
09:02:14.704,-0.35,-0.305
09:02:14.708,-0.345,-0.335
09:02:14.712,-0.32,-0.31
09:02:14.716,-0.305,-0.3
09:02:14.720,-0.295,-0.3
09:02:14.724,-0.305,-0.265
09:02:14.728,-0.31,-0.295
09:02:14.732,-0.285,-0.31
09:02:14.736,-0.27,-0.31
09:02:14.740,-0.295,-0.35
09:02:14.744,-0.325,-0.35
09:02:14.748,-0.325,-0.345
09:02:14.752,-0.295,-0.305
09:02:14.756,-0.29,-0.295
09:02:14.760,-0.29,-0.31
09:02:14.764,-0.255,-0.31
09:02:14.768,-0.195,-0.285
09:02:14.772,-0.14,-0.255
09:02:14.776,-0.07,-0.25
09:02:14.780,-0.09,-0.215
09:02:14.784,-0.155,-0.195
09:02:14.788,-0.155,-0.205
09:02:14.792,-0.115,-0.18
09:02:14.796,-0.085,-0.185
09:02:14.800,-0.065,-0.21
09:02:14.804,-0.04,-0.23
09:02:14.808,-0.01,-0.22
09:02:14.812,-0.04,-0.225
09:02:14.816,-0.095,-0.26
09:02:14.820,-0.125,-0.275
09:02:14.824,-0.175,-0.285
09:02:14.828,-0.185,-0.305
09:02:14.832,-0.23,-0.32
09:02:14.836,-0.315,-0.35
09:02:14.840,-0.36,-0.335
09:02:14.844,-0.365,-0.345
09:02:14.848,-0.36,-0.37
09:02:14.852,-0.355,-0.355
09:02:14.856,-0.385,-0.365
09:02:14.860,-0.32,-0.37
09:02:14.864,-0.285,-0.36
09:02:14.868,-0.225,-0.375
09:02:14.872,-0.195,-0.355
09:02:14.876,-0.135,-0.34
09:02:14.880,0.005,-0.235
09:02:14.884,0.255,-0.205
09:02:14.888,0.525,-0.245
09:02:14.892,0.715,-0.255
09:02:14.896,0.86,-0.315
09:02:14.900,0.94,-0.46
09:02:14.904,0.785,-0.72
09:02:14.908,0.18,-1
09:02:14.912,-0.635,-1.33
09:02:14.916,-1.24,-1.585
09:02:14.920,-1.5,-1.79
09:02:14.924,-1.475,-1.955
09:02:14.928,-1.36,-2.1
09:02:14.932,-1.115,-1.99
09:02:14.936,-0.9,-1.78
09:02:14.940,-0.665,-1.515
09:02:14.944,-0.55,-1.255
09:02:14.948,-0.5,-0.97
09:02:14.952,-0.45,-0.735
09:02:14.956,-0.38,-0.56
09:02:14.960,-0.37,-0.45
09:02:14.964,-0.365,-0.4
09:02:14.968,-0.35,-0.39
09:02:14.972,-0.35,-0.4
09:02:14.976,-0.33,-0.36
09:02:14.980,-0.37,-0.335
09:02:14.984,-0.36,-0.33
09:02:14.988,-0.4,-0.345
09:02:14.992,-0.36,-0.32
09:02:14.996,-0.35,-0.32
09:02:15.000,-0.34,-0.35
09:02:15.004,-0.335,-0.325
09:02:15.008,-0.35,-0.335
09:02:15.012,-0.36,-0.315
09:02:15.016,-0.375,-0.33
09:02:15.020,-0.37,-0.3
09:02:15.024,-0.375,-0.28
09:02:15.028,-0.355,-0.3
09:02:15.032,-0.355,-0.285
09:02:15.036,-0.35,-0.28
09:02:15.040,-0.36,-0.29
09:02:15.044,-0.405,-0.29
09:02:15.048,-0.41,-0.3
09:02:15.052,-0.395,-0.295
09:02:15.056,-0.395,-0.27
09:02:15.060,-0.39,-0.27
09:02:15.064,-0.375,-0.315
09:02:15.068,-0.38,-0.315
09:02:15.072,-0.42,-0.3
09:02:15.076,-0.455,-0.3
09:02:15.080,-0.52,-0.32
09:02:15.084,-0.535,-0.36
09:02:15.088,-0.51,-0.385
09:02:15.092,-0.51,-0.345
09:02:15.096,-0.555,-0.315
09:02:15.100,-0.575,-0.325
09:02:15.104,-0.555,-0.305
09:02:15.108,-0.585,-0.35
09:02:15.112,-0.64,-0.395
09:02:15.116,-0.68,-0.395
09:02:15.120,-0.705,-0.38
09:02:15.124,-0.705,-0.385
09:02:15.128,-0.7,-0.385
09:02:15.132,-0.755,-0.39
09:02:15.136,-0.785,-0.42
09:02:15.140,-0.785,-0.425
09:02:15.144,-0.76,-0.42
09:02:15.148,-0.78,-0.44
09:02:15.152,-0.81,-0.435
09:02:15.156,-0.89,-0.435
09:02:15.160,-0.925,-0.46
09:02:15.164,-0.925,-0.465
09:02:15.168,-0.9,-0.52
09:02:15.172,-0.895,-0.495
09:02:15.176,-0.915,-0.52
09:02:15.180,-0.94,-0.525
09:02:15.184,-0.95,-0.525
09:02:15.188,-0.92,-0.57
09:02:15.192,-0.86,-0.57
09:02:15.196,-0.875,-0.54
09:02:15.200,-0.84,-0.555
09:02:15.204,-0.78,-0.545
09:02:15.208,-0.745,-0.505
09:02:15.212,-0.685,-0.525
09:02:15.216,-0.64,-0.515
09:02:15.220,-0.58,-0.47
09:02:15.224,-0.535,-0.425
09:02:15.228,-0.48,-0.385
09:02:15.232,-0.405,-0.35
09:02:15.236,-0.32,-0.31
09:02:15.240,-0.33,-0.3
09:02:15.244,-0.315,-0.33
09:02:15.248,-0.24,-0.315
09:02:15.252,-0.205,-0.28
09:02:15.256,-0.155,-0.28
09:02:15.260,-0.13,-0.235
09:02:15.264,-0.105,-0.175
09:02:15.268,-0.085,-0.125
09:02:15.272,-0.125,-0.125
09:02:15.276,-0.125,-0.15
09:02:15.280,-0.135,-0.14
09:02:15.284,-0.2,-0.16
09:02:15.288,-0.145,-0.17
09:02:15.292,-0.14,-0.215
09:02:15.296,-0.15,-0.27
09:02:15.300,-0.16,-0.26
09:02:15.304,-0.185,-0.25
09:02:15.308,-0.22,-0.3
09:02:15.312,-0.185,-0.295
09:02:15.316,-0.195,-0.28
09:02:15.320,-0.155,-0.265
09:02:15.324,-0.12,-0.25
09:02:15.328,-0.125,-0.26
09:02:15.332,-0.135,-0.285
09:02:15.336,-0.085,-0.27
09:02:15.340,-0.11,-0.295
09:02:15.344,-0.14,-0.285
09:02:15.348,-0.14,-0.32
09:02:15.352,-0.18,-0.29
09:02:15.356,-0.195,-0.275
09:02:15.360,-0.2,-0.28
09:02:15.364,-0.14,-0.275
09:02:15.368,-0.145,-0.29
09:02:15.372,-0.17,-0.295
09:02:15.376,-0.175,-0.285
09:02:15.380,-0.13,-0.3
09:02:15.384,-0.13,-0.315
09:02:15.388,-0.195,-0.31
09:02:15.392,-0.21,-0.315
09:02:15.396,-0.175,-0.32
09:02:15.400,-0.145,-0.31
09:02:15.404,-0.17,-0.28
09:02:15.408,-0.14,-0.28
09:02:15.412,-0.16,-0.295
09:02:15.416,-0.13,-0.295
09:02:15.420,-0.115,-0.295
09:02:15.424,-0.09,-0.3
09:02:15.428,-0.08,-0.28
09:02:15.432,0,-0.21
09:02:15.436,0.215,-0.15
09:02:15.440,0.52,-0.16
09:02:15.444,0.84,-0.225
09:02:15.448,1.065,-0.36
09:02:15.452,1.015,-0.415
09:02:15.456,0.375,-0.38
09:02:15.460,-0.58,-0.42
09:02:15.464,-1.175,-0.585
09:02:15.468,-1.375,-0.84
09:02:15.472,-1.41,-1.155
09:02:15.476,-1.42,-1.295
09:02:15.480,-1.285,-1.34
09:02:15.484,-1.13,-1.38
09:02:15.488,-0.905,-1.29
09:02:15.492,-0.65,-1.185
09:02:15.496,-0.455,-1.015
09:02:15.500,-0.29,-0.865
09:02:15.504,-0.235,-0.77
09:02:15.508,-0.14,-0.635
09:02:15.512,-0.125,-0.495
09:02:15.516,-0.115,-0.41
09:02:15.520,-0.115,-0.36
09:02:15.524,-0.13,-0.37
09:02:15.528,-0.1,-0.345
09:02:15.532,-0.1,-0.32
09:02:15.536,-0.095,-0.32
09:02:15.540,-0.12,-0.315
09:02:15.544,-0.155,-0.34
09:02:15.548,-0.14,-0.32
09:02:15.552,-0.1,-0.295
09:02:15.556,-0.08,-0.31
09:02:15.560,-0.08,-0.28
09:02:15.564,-0.1,-0.32
09:02:15.568,-0.095,-0.32
09:02:15.572,-0.11,-0.32
09:02:15.576,-0.115,-0.345
09:02:15.580,-0.1,-0.33
09:02:15.584,-0.095,-0.32
09:02:15.588,-0.1,-0.295
09:02:15.592,-0.13,-0.305
09:02:15.596,-0.1,-0.29
09:02:15.600,-0.125,-0.32
09:02:15.604,-0.12,-0.35
09:02:15.608,-0.125,-0.35
09:02:15.612,-0.115,-0.355
09:02:15.616,-0.125,-0.345
09:02:15.620,-0.14,-0.335
09:02:15.624,-0.17,-0.355
09:02:15.628,-0.255,-0.305
09:02:15.632,-0.26,-0.31
09:02:15.636,-0.235,-0.325
09:02:15.640,-0.26,-0.345
09:02:15.644,-0.285,-0.34
09:02:15.648,-0.275,-0.385
09:02:15.652,-0.24,-0.38
09:02:15.656,-0.265,-0.355
09:02:15.660,-0.32,-0.365
09:02:15.664,-0.32,-0.37
09:02:15.668,-0.345,-0.4
09:02:15.672,-0.375,-0.425
09:02:15.676,-0.36,-0.42
09:02:15.680,-0.345,-0.435
09:02:15.684,-0.375,-0.43
09:02:15.688,-0.34,-0.43
09:02:15.692,-0.31,-0.44
09:02:15.696,-0.375,-0.465
09:02:15.700,-0.4,-0.46
09:02:15.704,-0.39,-0.465
09:02:15.708,-0.345,-0.48
09:02:15.712,-0.34,-0.495
09:02:15.716,-0.345,-0.53
09:02:15.720,-0.25,-0.49
09:02:15.724,-0.205,-0.52
09:02:15.728,-0.135,-0.525
09:02:15.732,-0.095,-0.515
09:02:15.736,-0.025,-0.495
09:02:15.740,0.05,-0.51
09:02:15.744,0.08,-0.47
09:02:15.748,0.1,-0.46
09:02:15.752,0.11,-0.405
09:02:15.756,0.065,-0.405
09:02:15.760,-0.02,-0.41
09:02:15.764,-0.045,-0.34
09:02:15.768,0.005,-0.3
09:02:15.772,0.045,-0.295
09:02:15.776,0.06,-0.27
09:02:15.780,0.08,-0.26
09:02:15.784,0.08,-0.2
09:02:15.788,0.08,-0.17
09:02:15.792,0.085,-0.14
09:02:15.796,0.11,-0.13
09:02:15.800,0.125,-0.13
09:02:15.804,0.12,-0.12
09:02:15.808,0.06,-0.145
09:02:15.812,0,-0.18
09:02:15.816,-0.015,-0.14
09:02:15.820,-0.05,-0.145
09:02:15.824,-0.04,-0.11
09:02:15.828,0.03,-0.085
09:02:15.832,0.07,-0.105
09:02:15.836,0.07,-0.075
09:02:15.840,0.07,-0.065
09:02:15.844,0.085,-0.09
09:02:15.848,0.05,-0.07
09:02:15.852,0.015,-0.115
09:02:15.856,0.02,-0.11
09:02:15.860,0.035,-0.08
09:02:15.864,0.045,-0.07
09:02:15.868,0.04,-0.095
09:02:15.872,-0.005,-0.1
09:02:15.876,-0.04,-0.115
09:02:15.880,-0.03,-0.11
09:02:15.884,0,-0.1
09:02:15.888,0.025,-0.1
09:02:15.892,0.015,-0.115
09:02:15.896,0.035,-0.125
09:02:15.900,0.055,-0.105
09:02:15.904,0.085,-0.09
09:02:15.908,0.075,-0.095
09:02:15.912,0.045,-0.09
09:02:15.916,0.04,-0.095
09:02:15.920,0.02,-0.105
09:02:15.924,0.08,-0.1
09:02:15.928,0.125,-0.09
09:02:15.932,0.08,-0.095
09:02:15.936,0.08,-0.095
09:02:15.940,0.095,-0.085
09:02:15.944,0.105,-0.05
09:02:15.948,0.135,-0.06
09:02:15.952,0.195,-0.035
09:02:15.956,0.24,-0.025
09:02:15.960,0.26,-0.02
09:02:15.964,0.145,-0.035
09:02:15.968,0.11,-0.015
09:02:15.972,0.18,-0.01
09:02:15.976,0.29,-0.02
09:02:15.980,0.33,-0.035
09:02:15.984,0.31,-0.05
09:02:15.988,0.22,-0.02
09:02:15.992,0.13,-0.005
09:02:15.996,0.14,0
09:02:16.000,0.235,-0.02
09:02:16.004,0.335,-0.025
09:02:16.008,0.355,-0.02
09:02:16.012,0.32,0
09:02:16.016,0.27,0.02
09:02:16.020,0.24,0.025
09:02:16.024,0.255,0.01
09:02:16.028,0.24,-0.005
09:02:16.032,0.205,0.005
09:02:16.036,0.24,-0.005
09:02:16.040,0.28,-0.035
09:02:16.044,0.275,-0.025
09:02:16.048,0.245,-0.01
09:02:16.052,0.195,0
09:02:16.056,0.265,0.01
09:02:16.060,0.375,0
09:02:16.064,0.415,0.015
09:02:16.068,0.41,0.01
09:02:16.072,0.36,0.055
09:02:16.076,0.28,0.135
09:02:16.080,0.26,0.075
09:02:16.084,0.29,0.025
09:02:16.088,0.3,0.01
09:02:16.092,0.22,0.04
09:02:16.096,0.185,0.02
09:02:16.100,0.255,0.01
09:02:16.104,0.325,0
09:02:16.108,0.42,-0.005
09:02:16.112,0.47,0.015
09:02:16.116,0.34,0.05
09:02:16.120,0.27,0.09
09:02:16.124,0.34,0.085
09:02:16.128,0.39,0.07
09:02:16.132,0.33,0.1
09:02:16.136,0.23,0.12
09:02:16.140,0.245,0.255
09:02:16.144,0.285,0.315
09:02:16.148,0.295,0.185
09:02:16.152,0.32,0.025
09:02:16.156,0.35,0.02
09:02:16.160,0.42,0.085
09:02:16.164,0.415,0.12
09:02:16.168,0.365,0.065
09:02:16.172,0.335,0.03
09:02:16.176,0.38,-0.005
09:02:16.180,0.405,0.01
09:02:16.184,0.415,0.05
09:02:16.188,0.45,0.125
09:02:16.192,0.415,0.155
09:02:16.196,0.39,0.11
09:02:16.200,0.455,0.08
09:02:16.204,0.53,0.115
09:02:16.208,0.5,0.205
09:02:16.212,0.485,0.255
09:02:16.216,0.465,0.23
09:02:16.220,0.47,0.15
09:02:16.224,0.59,0.125
09:02:16.228,0.625,0.1
09:02:16.232,0.62,0.095
09:02:16.236,0.595,0.15
09:02:16.240,0.6,0.195
09:02:16.244,0.595,0.195
09:02:16.248,0.63,0.15
09:02:16.252,0.625,0.07
09:02:16.256,0.51,0.04
09:02:16.260,0.37,0.095
09:02:16.264,0.33,0.2
09:02:16.268,0.33,0.32
09:02:16.272,0.31,0.28
09:02:16.276,0.28,0.05
09:02:16.280,0.275,0.005
09:02:16.284,0.315,0.035
09:02:16.288,0.39,0.045
09:02:16.292,0.44,0.035
09:02:16.296,0.465,0.005
09:02:16.300,0.5,0.065
09:02:16.304,0.53,0.155
09:02:16.308,0.695,0.235
09:02:16.312,1.025,0.33
09:02:16.316,1.315,0.31
09:02:16.320,1.39,0.22
09:02:16.324,1.4,0.155
09:02:16.328,1.48,-0.005
09:02:16.332,1.19,-0.37
09:02:16.336,0.385,-0.72
09:02:16.340,-0.44,-0.98
09:02:16.344,-0.835,-1.285
09:02:16.348,-0.92,-1.545
09:02:16.352,-0.84,-1.72
09:02:16.356,-0.67,-1.83
09:02:16.360,-0.375,-1.79
09:02:16.364,-0.13,-1.48
09:02:16.368,0.04,-1.125
09:02:16.372,0.25,-0.77
09:02:16.376,0.32,-0.515
09:02:16.380,0.375,-0.28
09:02:16.384,0.415,-0.095
09:02:16.388,0.43,0.03
09:02:16.392,0.505,0.09
09:02:16.396,0.495,0.115
09:02:16.400,0.37,0.115
09:02:16.404,0.31,0.155
09:02:16.408,0.3,0.205
09:02:16.412,0.37,0.21
09:02:16.416,0.425,0.175
09:02:16.420,0.455,0.2
09:02:16.424,0.465,0.245
09:02:16.428,0.465,0.22
09:02:16.432,0.43,0.2
09:02:16.436,0.42,0.18
09:02:16.440,0.38,0.205
09:02:16.444,0.36,0.23
09:02:16.448,0.365,0.225
09:02:16.452,0.405,0.29
09:02:16.456,0.48,0.265
09:02:16.460,0.47,0.21
09:02:16.464,0.44,0.21
09:02:16.468,0.33,0.29
09:02:16.472,0.295,0.335
09:02:16.476,0.32,0.315
09:02:16.480,0.37,0.315
09:02:16.484,0.35,0.26
09:02:16.488,0.285,0.24
09:02:16.492,0.26,0.235
09:02:16.496,0.295,0.27
09:02:16.500,0.28,0.19
09:02:16.504,0.255,0.115
09:02:16.508,0.26,0.115
09:02:16.512,0.335,0.17
09:02:16.516,0.325,0.245
09:02:16.520,0.225,0.305
09:02:16.524,0.135,0.255
09:02:16.528,0.1,0.18
09:02:16.532,0.1,0.155
09:02:16.536,0.115,0.18
09:02:16.540,0.125,0.155
09:02:16.544,0.075,0.155
09:02:16.548,0.045,0.18
09:02:16.552,0.03,0.175
09:02:16.556,0,0.12
09:02:16.560,-0.02,0.095
09:02:16.564,-0.02,0.17
09:02:16.568,0.025,0.225
09:02:16.572,0.05,0.195
09:02:16.576,-0.025,0.14
09:02:16.580,-0.14,0.105
09:02:16.584,-0.16,0.1
09:02:16.588,-0.13,0.165
09:02:16.592,-0.185,0.16
09:02:16.596,-0.195,0.115
09:02:16.600,-0.18,0.03
09:02:16.604,-0.16,-0.02
09:02:16.608,-0.17,0.03
09:02:16.612,-0.175,0.095
09:02:16.616,-0.13,0.045
09:02:16.620,-0.07,-0.09
09:02:16.624,-0.045,-0.105
09:02:16.628,-0.015,-0.03
09:02:16.632,0,-0.015
09:02:16.636,0,0.005
09:02:16.640,0.065,0.09
09:02:16.644,0.1,0.12
09:02:16.648,0.135,0.075
09:02:16.652,0.19,0.07
09:02:16.656,0.21,0.155
09:02:16.660,0.3,0.25
09:02:16.664,0.325,0.3
09:02:16.668,0.335,0.31
09:02:16.672,0.35,0.27
09:02:16.676,0.44,0.215
09:02:16.680,0.525,0.195
09:02:16.684,0.635,0.25
09:02:16.688,0.72,0.325
09:02:16.692,0.75,0.39
09:02:16.696,0.715,0.48
09:02:16.700,0.67,0.51
09:02:16.704,0.645,0.5
09:02:16.708,0.565,0.475
09:02:16.712,0.515,0.46
09:02:16.716,0.545,0.465
09:02:16.720,0.59,0.435
09:02:16.724,0.6,0.355
09:02:16.728,0.575,0.35
09:02:16.732,0.5,0.31
09:02:16.736,0.455,0.21
09:02:16.740,0.53,0.205
09:02:16.744,0.565,0.225
09:02:16.748,0.56,0.26
09:02:16.752,0.6,0.27
09:02:16.756,0.625,0.28
09:02:16.760,0.68,0.28
09:02:16.764,0.73,0.295
09:02:16.768,0.675,0.3
09:02:16.772,0.5,0.355
09:02:16.776,0.425,0.345
09:02:16.780,0.455,0.34
09:02:16.784,0.5,0.275
09:02:16.788,0.59,0.295
09:02:16.792,0.595,0.28
09:02:16.796,0.58,0.295
09:02:16.800,0.525,0.3
09:02:16.804,0.475,0.315
09:02:16.808,0.51,0.38
09:02:16.812,0.515,0.315
09:02:16.816,0.52,0.23
09:02:16.820,0.525,0.215
09:02:16.824,0.525,0.255
09:02:16.828,0.6,0.315
09:02:16.832,0.545,0.325
09:02:16.836,0.47,0.245
09:02:16.840,0.545,0.16
09:02:16.844,0.555,0.175
09:02:16.848,0.575,0.31
09:02:16.852,0.65,0.35
09:02:16.856,0.785,0.355
09:02:16.860,0.93,0.365
09:02:16.864,1.02,0.34
09:02:16.868,1.07,0.205
09:02:16.872,0.925,0.08
09:02:16.876,0.29,0.02
09:02:16.880,-0.46,0.065
09:02:16.884,-0.97,0.125
09:02:16.888,-1.18,0.295
09:02:16.892,-1.19,0.5
09:02:16.896,-1.125,0.61
09:02:16.900,-1.035,0.59
09:02:16.904,-0.975,0.65
09:02:16.908,-0.925,0.56
09:02:16.912,-0.765,0.44
09:02:16.916,-0.505,0.32
09:02:16.920,-0.26,0.175
09:02:16.924,-0.01,0.11
09:02:16.928,0.2,0.095
09:02:16.932,0.37,0.105
09:02:16.936,0.51,0.105
09:02:16.940,0.605,0.035
09:02:16.944,0.62,0.035
09:02:16.948,0.625,0.16
09:02:16.952,0.565,0.285
09:02:16.956,0.63,0.335
09:02:16.960,0.675,0.315
09:02:16.964,0.705,0.26
09:02:16.968,0.725,0.195
09:02:16.972,0.695,0.235
09:02:16.976,0.66,0.28
09:02:16.980,0.585,0.22
09:02:16.984,0.565,0.12
09:02:16.988,0.61,0.11
09:02:16.992,0.725,0.13
09:02:16.996,0.69,0.075
09:02:17.000,0.655,0.07
09:02:17.004,0.6,0.115
09:02:17.008,0.61,0.2
09:02:17.012,0.68,0.19
09:02:17.016,0.725,0.2
09:02:17.020,0.655,0.255
09:02:17.024,0.545,0.295
09:02:17.028,0.475,0.205
09:02:17.032,0.515,0.065
09:02:17.036,0.595,0.04
09:02:17.040,0.55,0.02
09:02:17.044,0.47,-0.06
09:02:17.048,0.465,-0.045
09:02:17.052,0.45,0.025
09:02:17.056,0.42,-0.02
09:02:17.060,0.425,-0.11
09:02:17.064,0.36,-0.12
09:02:17.068,0.37,-0.135
09:02:17.072,0.38,-0.195
09:02:17.076,0.395,-0.23
09:02:17.080,0.44,-0.21
09:02:17.084,0.465,-0.16
09:02:17.088,0.38,-0.045
09:02:17.092,0.27,-0.03
09:02:17.096,0.2,-0.105
09:02:17.100,0.195,-0.235
09:02:17.104,0.285,-0.285
09:02:17.108,0.38,-0.305
09:02:17.112,0.37,-0.28
09:02:17.116,0.27,-0.21
09:02:17.120,0.225,-0.11
09:02:17.124,0.235,-0.125
09:02:17.128,0.21,-0.26
09:02:17.132,0.255,-0.45
09:02:17.136,0.33,-0.49
09:02:17.140,0.385,-0.455
09:02:17.144,0.495,-0.41
09:02:17.148,0.6,-0.345
09:02:17.152,0.54,-0.28
09:02:17.156,0.44,-0.2
09:02:17.160,0.465,-0.235
09:02:17.164,0.605,-0.315
09:02:17.168,0.65,-0.445
09:02:17.172,0.575,-0.36
09:02:17.176,0.51,-0.235
09:02:17.180,0.47,-0.12
09:02:17.184,0.56,0.05
09:02:17.188,0.595,0.255
09:02:17.192,0.625,0.215
09:02:17.196,0.655,0.005
09:02:17.200,0.685,-0.11
09:02:17.204,0.695,-0.055
09:02:17.208,0.735,0.075
09:02:17.212,0.735,0.2
09:02:17.216,0.71,0.295
09:02:17.220,0.685,0.34
09:02:17.224,0.69,0.37
09:02:17.228,0.66,0.4
09:02:17.232,0.625,0.415
09:02:17.236,0.595,0.445
09:02:17.240,0.605,0.385
09:02:17.244,0.595,0.375
09:02:17.248,0.59,0.45
09:02:17.252,0.615,0.445
09:02:17.256,0.63,0.46
09:02:17.260,0.755,0.485
09:02:17.264,0.77,0.515
09:02:17.268,0.54,0.515
09:02:17.272,0.32,0.51
09:02:17.276,0.36,0.525
09:02:17.280,0.445,0.495
09:02:17.284,0.425,0.36
09:02:17.288,0.435,0.265
09:02:17.292,0.44,0.245
09:02:17.296,0.465,0.27
09:02:17.300,0.46,0.31
09:02:17.304,0.465,0.31
09:02:17.308,0.46,0.3
09:02:17.312,0.515,0.255
09:02:17.316,0.565,0.245
09:02:17.320,0.565,0.305
09:02:17.324,0.45,0.44
09:02:17.328,0.38,0.56
09:02:17.332,0.335,0.47
09:02:17.336,0.315,0.285
09:02:17.340,0.385,0.135
09:02:17.344,0.405,0.09
09:02:17.348,0.395,0.14
09:02:17.352,0.38,0.215
09:02:17.356,0.365,0.215
09:02:17.360,0.395,0.235
09:02:17.364,0.46,0.25
09:02:17.368,0.56,0.22
09:02:17.372,0.63,0.315
09:02:17.376,0.565,0.39
09:02:17.380,0.395,0.42
09:02:17.384,0.295,0.445
09:02:17.388,0.37,0.41
09:02:17.392,0.455,0.27
09:02:17.396,0.46,0.085
09:02:17.400,0.525,0.105
09:02:17.404,0.52,0.23
09:02:17.408,0.505,0.355
09:02:17.412,0.545,0.435
09:02:17.416,0.645,0.46
09:02:17.420,0.775,0.375
09:02:17.424,0.915,0.48
09:02:17.428,1.035,0.44
09:02:17.432,1.185,0.31
09:02:17.436,1.305,0.175
09:02:17.440,1.31,-0.205
09:02:17.444,0.95,-0.485
09:02:17.448,0.085,-0.74
09:02:17.452,-0.795,-1.17
09:02:17.456,-1.145,-1.715
09:02:17.460,-1.085,-2.015
09:02:17.464,-0.87,-2.15
09:02:17.468,-0.64,-2.12
09:02:17.472,-0.325,-1.845
09:02:17.476,-0.015,-1.43
09:02:17.480,0.195,-0.96
09:02:17.484,0.31,-0.655
09:02:17.488,0.35,-0.305
09:02:17.492,0.37,-0.02
09:02:17.496,0.4,0.145
09:02:17.500,0.355,0.27
09:02:17.504,0.27,0.3
09:02:17.508,0.375,0.265
09:02:17.512,0.465,0.19
09:02:17.516,0.44,0.225
09:02:17.520,0.315,0.335
09:02:17.524,0.305,0.465
09:02:17.528,0.36,0.43
09:02:17.532,0.44,0.245
09:02:17.536,0.43,0.3
09:02:17.540,0.35,0.355
09:02:17.544,0.29,0.2
09:02:17.548,0.285,0.03
09:02:17.552,0.315,-0.015
09:02:17.556,0.345,0.065
09:02:17.560,0.355,0.17
09:02:17.564,0.39,0.225
09:02:17.568,0.45,0.27
09:02:17.572,0.445,0.305
09:02:17.576,0.33,0.31
09:02:17.580,0.18,0.38
09:02:17.584,0.21,0.385
09:02:17.588,0.335,0.325
09:02:17.592,0.345,0.28
09:02:17.596,0.23,0.305
09:02:17.600,0.11,0.365
09:02:17.604,0.12,0.34
09:02:17.608,0.24,0.28
09:02:17.612,0.25,0.18
09:02:17.616,0.15,0.195
09:02:17.620,0.07,0.28
09:02:17.624,0.055,0.365
09:02:17.628,0.1,0.395
09:02:17.632,0.125,0.275
09:02:17.636,0.075,0.135
09:02:17.640,-0.08,0.29
09:02:17.644,-0.09,0.34
09:02:17.648,-0.065,0.255
09:02:17.652,-0.08,0.135
09:02:17.656,-0.085,0.08
09:02:17.660,-0.055,0.095
09:02:17.664,-0.08,0.115
09:02:17.668,-0.08,0.145
09:02:17.672,-0.145,0.2
09:02:17.676,-0.25,0.235
09:02:17.680,-0.225,0.21
09:02:17.684,-0.115,0.145
09:02:17.688,-0.07,0.13
09:02:17.692,-0.08,0.125
09:02:17.696,-0.275,0.22
09:02:17.700,-0.39,0.36
09:02:17.704,-0.295,0.38
09:02:17.708,-0.195,0.225
09:02:17.712,-0.13,0.035
09:02:17.716,-0.075,0.035
09:02:17.720,-0.065,0.085
09:02:17.724,0.06,0.165
09:02:17.728,0.12,0.27
09:02:17.732,0.025,0.38
09:02:17.736,-0.11,0.42
09:02:17.740,-0.04,0.27
09:02:17.744,0.125,0.155
09:02:17.748,0.225,0.195
09:02:17.752,0.275,0.215
09:02:17.756,0.27,0.15
09:02:17.760,0.29,0.155
09:02:17.764,0.275,0.315
09:02:17.768,0.29,0.35
09:02:17.772,0.31,0.195
09:02:17.776,0.305,0.125
09:02:17.780,0.36,0.18
09:02:17.784,0.425,0.24
09:02:17.788,0.485,0.2
09:02:17.792,0.435,0.155
09:02:17.796,0.32,0.205
09:02:17.800,0.26,0.315
09:02:17.804,0.205,0.385
09:02:17.808,0.26,0.305
09:02:17.812,0.355,0.125
09:02:17.816,0.34,0.07
09:02:17.820,0.315,0.11
09:02:17.824,0.225,0.18
09:02:17.828,0.295,0.25
09:02:17.832,0.36,0.22
09:02:17.836,0.43,0.195
09:02:17.840,0.44,0.21
09:02:17.844,0.395,0.225
09:02:17.848,0.25,0.31
09:02:17.852,0.205,0.45
09:02:17.856,0.2,0.465
09:02:17.860,0.215,0.285
09:02:17.864,0.205,0
09:02:17.868,0.265,-0.155
09:02:17.872,0.28,-0.115
09:02:17.876,0.295,0.01
09:02:17.880,0.31,0.18
09:02:17.884,0.335,0.29
09:02:17.888,0.225,0.225
09:02:17.892,0.11,0.195
09:02:17.896,0.185,0.205
09:02:17.900,0.275,0.14
09:02:17.904,0.28,0.055
09:02:17.908,0.245,0.1
09:02:17.912,0.13,0.205
09:02:17.916,0.11,0.2
09:02:17.920,0.225,0.075
09:02:17.924,0.325,0.005
09:02:17.928,0.35,0.035
09:02:17.932,0.315,0.115
09:02:17.936,0.215,0.21
09:02:17.940,0.13,0.32
09:02:17.944,0.195,0.195
09:02:17.948,0.275,0.015
09:02:17.952,0.275,0.055
09:02:17.956,0.2,0.21
09:02:17.960,0.17,0.385
09:02:17.964,0.225,0.385
09:02:17.968,0.195,0.095
09:02:17.972,0.11,0.01
09:02:17.976,0.09,0.025
09:02:17.980,0.13,-0.04
09:02:17.984,0.175,-0.075
09:02:17.988,0.195,-0.025
09:02:17.992,0.165,0.065
09:02:17.996,0.165,0.07
09:02:18.000,0.155,-0.01
09:02:18.004,0.215,-0.05
09:02:18.008,0.21,-0.015
09:02:18.012,0.215,0.07
09:02:18.016,0.25,0.085
09:02:18.020,0.285,0.1
09:02:18.024,0.28,0.105
09:02:18.028,0.235,0.085
09:02:18.032,0.235,0.085
09:02:18.036,0.3,0.1
09:02:18.040,0.3,0.095
09:02:18.044,0.175,0.09
09:02:18.048,-0.015,0.1
09:02:18.052,-0.045,0.12
09:02:18.056,0.065,0.1
09:02:18.060,0.165,0.08
09:02:18.064,0.18,0.06
09:02:18.068,0.17,0.04
09:02:18.072,0.205,0.075
09:02:18.076,0.295,0.085
09:02:18.080,0.34,0.07
09:02:18.084,0.25,0.075
09:02:18.088,0.115,0.1
09:02:18.092,0.09,0.1
09:02:18.096,0.15,0.105
09:02:18.100,0.12,0.115
09:02:18.104,0.095,0.17
09:02:18.108,0.155,0.235
09:02:18.112,0.145,0.215
09:02:18.116,0.155,0.03
09:02:18.120,0.195,-0.095
09:02:18.124,0.19,-0.105
09:02:18.128,0.175,-0.16
09:02:18.132,0.16,-0.125
09:02:18.136,0.135,-0.025
09:02:18.140,0.17,0.015
09:02:18.144,0.235,0.035
09:02:18.148,0.25,0.035
09:02:18.152,0.215,0.045
09:02:18.156,0.13,0.075
09:02:18.160,0.095,0.16
09:02:18.164,0.19,0.08
09:02:18.168,0.225,-0.035
09:02:18.172,0.175,-0.035
09:02:18.176,0.095,0.04
09:02:18.180,0.07,0.095
09:02:18.184,0.155,0.065
09:02:18.188,0.23,-0.01
09:02:18.192,0.26,0.02
09:02:18.196,0.27,0.13
09:02:18.200,0.205,0.115
09:02:18.204,0.06,0.01
09:02:18.208,0.1,-0.085
09:02:18.212,0.195,-0.035
09:02:18.216,0.19,0.04
09:02:18.220,0.045,0.17
09:02:18.224,0,0.285
09:02:18.228,0.09,0.16
09:02:18.232,0.175,-0.135
09:02:18.236,0.21,-0.25
09:02:18.240,0.235,-0.2
09:02:18.244,0.205,-0.085
09:02:18.248,0.24,0.04
09:02:18.252,0.295,0.11
09:02:18.256,0.365,0.045
09:02:18.260,0.32,0.095
09:02:18.264,0.285,0.155
09:02:18.268,0.28,0.08
09:02:18.272,0.285,0.01
09:02:18.276,0.22,0.06
09:02:18.280,0.2,0.08
09:02:18.284,0.235,0.055
09:02:18.288,0.315,-0.005
09:02:18.292,0.375,-0.07
09:02:18.296,0.315,-0.1
09:02:18.300,0.265,-0.065
09:02:18.304,0.25,-0.035
09:02:18.308,0.23,-0.01
09:02:18.312,0.205,0.095
09:02:18.316,0.19,0.145
09:02:18.320,0.175,0.105
09:02:18.324,0.115,0.02
09:02:18.328,-0.01,-0.055
09:02:18.332,-0.08,-0.095
09:02:18.336,-0.01,-0.065
09:02:18.340,0.065,0.045
09:02:18.344,0.095,0.08
09:02:18.348,0.12,-0.03
09:02:18.352,0.195,-0.2
09:02:18.356,0.3,-0.19
09:02:18.360,0.375,-0.14
09:02:18.364,0.445,0.06
09:02:18.368,0.56,0.165
09:02:18.372,0.76,0.075
09:02:18.376,0.96,-0.05
09:02:18.380,1.055,-0.3
09:02:18.384,1.005,-0.585
09:02:18.388,0.67,-0.865
09:02:18.392,-0.16,-1.145
09:02:18.396,-0.92,-1.46
09:02:18.400,-1.27,-1.725
09:02:18.404,-1.32,-1.895
09:02:18.408,-1.245,-2.125
09:02:18.412,-0.98,-2.12
09:02:18.416,-0.55,-1.92
09:02:18.420,-0.29,-1.71
09:02:18.424,-0.175,-1.35
09:02:18.428,-0.12,-0.93
09:02:18.432,-0.06,-0.595
09:02:18.436,-0.03,-0.455
09:02:18.440,-0.015,-0.32
09:02:18.444,-0.04,-0.12
09:02:18.448,-0.035,-0.035
09:02:18.452,-0.015,-0.13
09:02:18.456,0.065,-0.23
09:02:18.460,0.095,-0.215
09:02:18.464,0.045,-0.145
09:02:18.468,-0.095,-0.01
09:02:18.472,-0.125,0.115
09:02:18.476,-0.02,0.105
09:02:18.480,-0.005,-0.035
09:02:18.484,0.02,-0.165
09:02:18.488,0.04,-0.23
09:02:18.492,0.075,-0.18
09:02:18.496,0.035,-0.115
09:02:18.500,-0.03,-0.06
09:02:18.504,0.005,0.055
09:02:18.508,0.01,0.125
09:02:18.512,-0.08,0.14
09:02:18.516,-0.14,0.13
09:02:18.520,-0.17,0.1
09:02:18.524,-0.085,-0.095
09:02:18.528,0.005,-0.255
09:02:18.532,-0.055,-0.275
09:02:18.536,-0.195,-0.165
09:02:18.540,-0.22,0
09:02:18.544,-0.14,0.1
09:02:18.548,-0.12,0.055
09:02:18.552,-0.08,-0.01
09:02:18.556,-0.025,-0.1
09:02:18.560,-0.08,-0.105
09:02:18.564,-0.2,-0.065
09:02:18.568,-0.305,-0.005
09:02:18.572,-0.315,0.005
09:02:18.576,-0.27,-0.095
09:02:18.580,-0.255,-0.235
09:02:18.584,-0.265,-0.205
09:02:18.588,-0.28,-0.155
09:02:18.592,-0.24,-0.14
09:02:18.596,-0.23,-0.145
09:02:18.600,-0.18,-0.145
09:02:18.604,-0.19,-0.145
09:02:18.608,-0.32,-0.13
09:02:18.612,-0.435,-0.095
09:02:18.616,-0.51,-0.09
09:02:18.620,-0.425,-0.105
09:02:18.624,-0.33,-0.09
09:02:18.628,-0.325,-0.05
09:02:18.632,-0.38,-0.02
09:02:18.636,-0.525,0.155
09:02:18.640,-0.71,0.17
09:02:18.644,-0.605,-0.09
09:02:18.648,-0.51,-0.3
09:02:18.652,-0.51,-0.195
09:02:18.656,-0.48,-0.435
09:02:18.660,-0.485,-0.615
09:02:18.664,-0.505,-0.445
09:02:18.668,-0.43,-0.305
09:02:18.672,-0.37,-0.315
09:02:18.676,-0.285,-0.36
09:02:18.680,-0.21,-0.36
09:02:18.684,-0.24,-0.315
09:02:18.688,-0.355,-0.275
09:02:18.692,-0.34,-0.255
09:02:18.696,-0.21,-0.205
09:02:18.700,-0.08,-0.24
09:02:18.704,-0.02,-0.265
09:02:18.708,0.005,-0.245
09:02:18.712,0.025,-0.175
09:02:18.716,0.045,-0.11
09:02:18.720,0.075,-0.075
09:02:18.724,0.075,-0.005
09:02:18.728,0.06,0.005
09:02:18.732,0.08,0.03
09:02:18.736,0.14,0.035
09:02:18.740,0.14,0.045
09:02:18.744,0.19,0.03
09:02:18.748,0.195,0.025
09:02:18.752,0.195,0.05
09:02:18.756,0.205,0.025
09:02:18.760,0.14,0.02
09:02:18.764,0.01,0.085
09:02:18.768,-0.02,0.26
09:02:18.772,-0.015,0.26
09:02:18.776,-0.005,0.025
09:02:18.780,0.065,-0.11
09:02:18.784,0.13,-0.1
09:02:18.788,0.1,-0.105
09:02:18.792,0.02,0.075
09:02:18.796,0,0.23
09:02:18.800,-0.005,-0.015
09:02:18.804,-0.02,-0.38
09:02:18.808,0.06,-0.385
09:02:18.812,0.085,-0.22
09:02:18.816,0.035,-0.125
09:02:18.820,-0.025,-0.08
09:02:18.824,0.01,-0.01
09:02:18.828,0.05,-0.02
09:02:18.832,0.085,-0.15
09:02:18.836,0.1,-0.23
09:02:18.840,0.085,-0.24
09:02:18.844,0.125,-0.155
09:02:18.848,0.175,-0.095
09:02:18.852,0.13,-0.015
09:02:18.856,0.12,0.06
09:02:18.860,0.04,0.18
09:02:18.864,-0.085,0.21
09:02:18.868,-0.08,0.115
09:02:18.872,0,-0.035
09:02:18.876,0.075,-0.175
09:02:18.880,0.12,-0.145
09:02:18.884,0.08,0.24
09:02:18.888,0.07,0.41
09:02:18.892,0.05,-0.11
09:02:18.896,0.095,-0.64
09:02:18.900,0.07,-0.575
09:02:18.904,0.09,-0.345
09:02:18.908,0.115,-0.19
09:02:18.912,0.165,-0.125
09:02:18.916,0.175,-0.045
09:02:18.920,0.205,0.015
09:02:18.924,0.36,0.06
09:02:18.928,0.68,0.055
09:02:18.932,0.99,-0.01
09:02:18.936,1.13,-0.16
09:02:18.940,1.1,-0.25
09:02:18.944,0.54,-0.365
09:02:18.948,-0.46,-0.475
09:02:18.952,-1.205,-0.7
09:02:18.956,-1.445,-1.04
09:02:18.960,-1.325,-1.39
