Time,ECG1,ECG2
10:34:54.192,-0.18,-0.04
10:34:54.196,-0.165,-0.04
10:34:54.200,-0.155,-0.02
10:34:54.204,-0.13,0.005
10:34:54.208,-0.105,0.01
10:34:54.212,-0.115,0.02
10:34:54.216,-0.105,0.035
10:34:54.220,-0.095,0.03
10:34:54.224,-0.1,0.055
10:34:54.228,-0.115,0.1
10:34:54.232,-0.15,0.105
10:34:54.236,-0.15,0.08
10:34:54.240,-0.16,0.075
10:34:54.244,-0.145,0.055
10:34:54.248,-0.16,0.085
10:34:54.252,-0.14,0.08
10:34:54.256,-0.135,0.085
10:34:54.260,-0.13,0.09
10:34:54.264,-0.15,0.095
10:34:54.268,-0.165,0.11
10:34:54.272,-0.18,0.11
10:34:54.276,-0.165,0.08
10:34:54.280,-0.185,0.09
10:34:54.284,-0.195,0.095
10:34:54.288,-0.15,0.085
10:34:54.292,-0.19,0.065
10:34:54.296,-0.155,0.055
10:34:54.300,-0.14,0.065
10:34:54.304,-0.14,0.075
10:34:54.308,-0.125,0.085
10:34:54.312,-0.08,0.08
10:34:54.316,-0.055,0.075
10:34:54.320,-0.01,0.11
10:34:54.324,0.045,0.115
10:34:54.328,0.085,0.135
10:34:54.332,0.15,0.175
10:34:54.336,0.18,0.22
10:34:54.340,0.165,0.23
10:34:54.344,0.165,0.25
10:34:54.348,0.165,0.225
10:34:54.352,0.115,0.18
10:34:54.356,0.1,0.175
10:34:54.360,0.02,0.16
10:34:54.364,-0.03,0.12
10:34:54.368,-0.1,0.14
10:34:54.372,-0.16,0.125
10:34:54.376,-0.19,0.105
10:34:54.380,-0.25,0.095
10:34:54.384,-0.275,0.11
10:34:54.388,-0.275,0.09
10:34:54.392,-0.255,0.04
10:34:54.396,-0.255,0
10:34:54.400,-0.265,-0.015
10:34:54.404,-0.25,-0.02
10:34:54.408,-0.24,-0.01
10:34:54.412,-0.245,-0.03
10:34:54.416,-0.185,-0.015
10:34:54.420,-0.11,0
10:34:54.424,-0.04,0.015
10:34:54.428,0.125,0.09
10:34:54.432,0.395,0.12
10:34:54.436,0.695,0.09
10:34:54.440,0.85,0.05
10:34:54.444,0.945,-0.07
10:34:54.448,0.8,-0.32
10:34:54.452,0.17,-0.59
10:34:54.456,-0.765,-0.905
10:34:54.460,-1.405,-1.235
10:34:54.464,-1.7,-1.575
10:34:54.468,-1.685,-1.825
10:34:54.472,-1.57,-1.99
10:34:54.476,-1.38,-1.96
10:34:54.480,-1.06,-1.75
10:34:54.484,-0.8,-1.45
10:34:54.488,-0.58,-1.18
10:34:54.492,-0.47,-0.9
10:34:54.496,-0.42,-0.65
10:34:54.500,-0.38,-0.41
10:34:54.504,-0.38,-0.205
10:34:54.508,-0.4,-0.105
10:34:54.512,-0.395,-0.095
10:34:54.516,-0.38,-0.065
10:34:54.520,-0.39,-0.045
10:34:54.524,-0.38,-0.035
10:34:54.528,-0.375,-0.015
10:34:54.532,-0.37,-0.005
10:34:54.536,-0.375,-0.02
10:34:54.540,-0.375,0
10:34:54.544,-0.395,-0.01
10:34:54.548,-0.425,-0.02
10:34:54.552,-0.425,0
10:34:54.556,-0.45,-0.015
10:34:54.560,-0.46,0.005
10:34:54.564,-0.475,-0.005
10:34:54.568,-0.49,-0.01
10:34:54.572,-0.485,-0.01
10:34:54.576,-0.48,0.005
10:34:54.580,-0.47,-0.005
10:34:54.584,-0.495,0.01
10:34:54.588,-0.515,0
10:34:54.592,-0.55,-0.015
10:34:54.596,-0.565,-0.01
10:34:54.600,-0.6,-0.01
10:34:54.604,-0.61,-0.01
10:34:54.608,-0.62,-0.03
10:34:54.612,-0.65,-0.04
10:34:54.616,-0.685,-0.05
10:34:54.620,-0.68,-0.065
10:34:54.624,-0.72,-0.075
10:34:54.628,-0.75,-0.075
10:34:54.632,-0.75,-0.1
10:34:54.636,-0.795,-0.1
10:34:54.640,-0.81,-0.095
10:34:54.644,-0.825,-0.08
10:34:54.648,-0.86,-0.115
10:34:54.652,-0.85,-0.095
10:34:54.656,-0.87,-0.095
10:34:54.660,-0.89,-0.09
10:34:54.664,-0.9,-0.11
10:34:54.668,-0.895,-0.115
10:34:54.672,-0.915,-0.11
10:34:54.676,-0.9,-0.13
10:34:54.680,-0.94,-0.185
10:34:54.684,-0.96,-0.18
10:34:54.688,-0.96,-0.18
10:34:54.692,-0.945,-0.19
10:34:54.696,-0.92,-0.18
10:34:54.700,-0.865,-0.185
10:34:54.704,-0.85,-0.175
10:34:54.708,-0.835,-0.155
10:34:54.712,-0.75,-0.09
10:34:54.716,-0.685,-0.08
10:34:54.720,-0.61,-0.06
10:34:54.724,-0.57,-0.05
10:34:54.728,-0.525,-0.03
10:34:54.732,-0.48,-0.015
10:34:54.736,-0.395,-0.01
10:34:54.740,-0.35,-0.005
10:34:54.744,-0.31,0.04
10:34:54.748,-0.295,0.08
10:34:54.752,-0.28,0.085
10:34:54.756,-0.24,0.14
10:34:54.760,-0.24,0.115
10:34:54.764,-0.245,0.1
10:34:54.768,-0.225,0.095
10:34:54.772,-0.235,0.085
10:34:54.776,-0.25,0.07
10:34:54.780,-0.275,0.065
10:34:54.784,-0.28,0.075
10:34:54.788,-0.29,0.075
10:34:54.792,-0.275,0.065
10:34:54.796,-0.29,0.05
10:34:54.800,-0.28,0.035
10:34:54.804,-0.27,0.05
10:34:54.808,-0.27,0.03
10:34:54.812,-0.285,0.03
10:34:54.816,-0.285,0.04
10:34:54.820,-0.305,0.035
10:34:54.824,-0.315,0.025
10:34:54.828,-0.285,0.035
10:34:54.832,-0.285,0.025
10:34:54.836,-0.255,0.02
10:34:54.840,-0.21,0.03
10:34:54.844,-0.08,0.01
10:34:54.848,0.02,0.02
10:34:54.852,0.105,0.045
10:34:54.856,0.14,0.025
10:34:54.860,0.25,-0.01
10:34:54.864,0.37,-0.19
10:34:54.868,0.445,-0.655
10:34:54.872,0.46,-1.295
10:34:54.876,0.07,-1.875
10:34:54.880,-0.79,-2.205
10:34:54.884,-1.55,-2.4
10:34:54.888,-1.8,-2.725
10:34:54.892,-1.68,-2.94
10:34:54.896,-1.22,-2.855
10:34:54.900,-0.83,-2.56
10:34:54.904,-0.59,-2.14
10:34:54.908,-0.465,-1.62
10:34:54.912,-0.4,-1.005
10:34:54.916,-0.4,-0.555
10:34:54.920,-0.385,-0.32
10:34:54.924,-0.39,-0.125
10:34:54.928,-0.4,-0.025
10:34:54.932,-0.39,0
10:34:54.936,-0.39,0.01
10:34:54.940,-0.365,0.025
10:34:54.944,-0.365,0.035
10:34:54.948,-0.36,0.055
10:34:54.952,-0.375,0.065
10:34:54.956,-0.38,0.075
10:34:54.960,-0.405,0.085
10:34:54.964,-0.43,0.095
10:34:54.968,-0.465,0.095
10:34:54.972,-0.46,0.095
10:34:54.976,-0.45,0.1
10:34:54.980,-0.465,0.1
10:34:54.984,-0.44,0.09
10:34:54.988,-0.45,0.09
10:34:54.992,-0.47,0.095
10:34:54.996,-0.485,0.11
10:34:55.000,-0.505,0.13
10:34:55.004,-0.52,0.135
10:34:55.008,-0.52,0.12
10:34:55.012,-0.54,0.135
10:34:55.016,-0.555,0.145
10:34:55.020,-0.58,0.125
10:34:55.024,-0.59,0.115
10:34:55.028,-0.58,0.14
10:34:55.032,-0.585,0.14
10:34:55.036,-0.615,0.125
10:34:55.040,-0.64,0.125
10:34:55.044,-0.66,0.115
10:34:55.048,-0.685,0.095
10:34:55.052,-0.7,0.1
10:34:55.056,-0.72,0.13
10:34:55.060,-0.735,0.14
10:34:55.064,-0.765,0.145
10:34:55.068,-0.785,0.13
10:34:55.072,-0.795,0.095
10:34:55.076,-0.79,0.095
10:34:55.080,-0.79,0.12
10:34:55.084,-0.8,0.14
10:34:55.088,-0.82,0.14
10:34:55.092,-0.81,0.15
10:34:55.096,-0.82,0.135
10:34:55.100,-0.85,0.13
10:34:55.104,-0.84,0.17
10:34:55.108,-0.815,0.14
10:34:55.112,-0.795,0.125
10:34:55.116,-0.745,0.155
10:34:55.120,-0.705,0.17
10:34:55.124,-0.64,0.145
10:34:55.128,-0.57,0.16
10:34:55.132,-0.535,0.175
10:34:55.136,-0.5,0.165
10:34:55.140,-0.455,0.145
10:34:55.144,-0.425,0.165
10:34:55.148,-0.395,0.15
10:34:55.152,-0.345,0.16
10:34:55.156,-0.31,0.16
10:34:55.160,-0.275,0.135
10:34:55.164,-0.24,0.135
10:34:55.168,-0.22,0.125
10:34:55.172,-0.225,0.135
10:34:55.176,-0.205,0.125
10:34:55.180,-0.215,0.145
10:34:55.184,-0.235,0.11
10:34:55.188,-0.23,0.105
10:34:55.192,-0.235,0.1
10:34:55.196,-0.25,0.1
10:34:55.200,-0.265,0.105
10:34:55.204,-0.275,0.11
10:34:55.208,-0.27,0.055
10:34:55.212,-0.24,0.08
10:34:55.216,-0.255,0.095
10:34:55.220,-0.24,0.095
10:34:55.224,-0.225,0.085
10:34:55.228,-0.235,0.055
10:34:55.232,-0.235,0.05
10:34:55.236,-0.255,0.04
10:34:55.240,-0.265,0.04
10:34:55.244,-0.25,0.075
10:34:55.248,-0.25,0.04
10:34:55.252,-0.25,0.03
10:34:55.256,-0.255,0.035
10:34:55.260,-0.24,0.035
10:34:55.264,-0.215,0.02
10:34:55.268,-0.225,0.03
10:34:55.272,-0.21,0.01
10:34:55.276,-0.225,-0.025
10:34:55.280,-0.24,-0.015
10:34:55.284,-0.28,-0.005
10:34:55.288,-0.26,-0.02
10:34:55.292,-0.265,-0.045
10:34:55.296,-0.255,0
10:34:55.300,-0.24,-0.015
10:34:55.304,-0.23,-0.025
10:34:55.308,-0.225,-0.02
10:34:55.312,-0.225,-0.015
10:34:55.316,-0.22,-0.04
10:34:55.320,-0.23,-0.03
10:34:55.324,-0.25,-0.05
10:34:55.328,-0.265,-0.03
10:34:55.332,-0.27,-0.05
10:34:55.336,-0.265,-0.045
10:34:55.340,-0.27,-0.035
10:34:55.344,-0.24,-0.065
10:34:55.348,-0.25,-0.045
10:34:55.352,-0.24,-0.065
10:34:55.356,-0.24,-0.025
10:34:55.360,-0.245,-0.025
10:34:55.364,-0.265,-0.04
10:34:55.368,-0.265,-0.07
10:34:55.372,-0.28,-0.1
10:34:55.376,-0.285,-0.07
10:34:55.380,-0.27,-0.085
10:34:55.384,-0.28,-0.08
10:34:55.388,-0.3,-0.095
10:34:55.392,-0.265,-0.115
10:34:55.396,-0.23,-0.12
10:34:55.400,-0.235,-0.115
10:34:55.404,-0.235,-0.12
10:34:55.408,-0.245,-0.13
10:34:55.412,-0.24,-0.125
10:34:55.416,-0.25,-0.115
10:34:55.420,-0.2,-0.1
10:34:55.424,-0.17,-0.095
10:34:55.428,-0.13,-0.1
10:34:55.432,-0.07,-0.065
10:34:55.436,0,-0.03
10:34:55.440,0.045,0
10:34:55.444,0.06,0.03
10:34:55.448,0.06,0.06
10:34:55.452,0.095,0.055
10:34:55.456,0.055,0.045
10:34:55.460,0.02,0.02
10:34:55.464,-0.055,-0.005
10:34:55.468,-0.07,-0.03
10:34:55.472,-0.115,-0.055
10:34:55.476,-0.155,-0.04
10:34:55.480,-0.2,-0.015
10:34:55.484,-0.24,-0.02
10:34:55.488,-0.255,-0.06
10:34:55.492,-0.31,-0.055
10:34:55.496,-0.32,-0.055
10:34:55.500,-0.355,-0.085
10:34:55.504,-0.345,-0.135
10:34:55.508,-0.365,-0.145
10:34:55.512,-0.33,-0.16
10:34:55.516,-0.335,-0.16
10:34:55.520,-0.32,-0.17
10:34:55.524,-0.275,-0.13
10:34:55.528,-0.18,-0.125
10:34:55.532,-0.07,-0.06
10:34:55.536,0.08,-0.015
10:34:55.540,0.305,-0.035
10:34:55.544,0.535,-0.095
10:34:55.548,0.66,-0.12
10:34:55.552,0.745,-0.3
10:34:55.556,0.7,-0.68
10:34:55.560,0.24,-1.035
10:34:55.564,-0.66,-1.4
10:34:55.568,-1.435,-1.725
10:34:55.572,-1.805,-2.045
10:34:55.576,-1.845,-2.385
10:34:55.580,-1.645,-2.61
10:34:55.584,-1.315,-2.46
10:34:55.588,-0.98,-2.215
10:34:55.592,-0.745,-1.86
10:34:55.596,-0.6,-1.455
10:34:55.600,-0.505,-1.105
10:34:55.604,-0.475,-0.76
10:34:55.608,-0.45,-0.52
10:34:55.612,-0.435,-0.365
10:34:55.616,-0.465,-0.28
10:34:55.620,-0.43,-0.245
10:34:55.624,-0.41,-0.225
10:34:55.628,-0.415,-0.2
10:34:55.632,-0.4,-0.165
10:34:55.636,-0.42,-0.2
10:34:55.640,-0.45,-0.17
10:34:55.644,-0.465,-0.18
10:34:55.648,-0.48,-0.175
10:34:55.652,-0.475,-0.155
10:34:55.656,-0.495,-0.15
10:34:55.660,-0.51,-0.16
10:34:55.664,-0.5,-0.195
10:34:55.668,-0.5,-0.195
10:34:55.672,-0.495,-0.17
10:34:55.676,-0.51,-0.15
10:34:55.680,-0.51,-0.14
10:34:55.684,-0.52,-0.155
10:34:55.688,-0.54,-0.16
10:34:55.692,-0.555,-0.16
10:34:55.696,-0.57,-0.14
10:34:55.700,-0.575,-0.135
10:34:55.704,-0.585,-0.145
10:34:55.708,-0.6,-0.14
10:34:55.712,-0.61,-0.175
10:34:55.716,-0.61,-0.185
10:34:55.720,-0.605,-0.195
10:34:55.724,-0.635,-0.2
10:34:55.728,-0.625,-0.205
10:34:55.732,-0.635,-0.195
10:34:55.736,-0.685,-0.19
10:34:55.740,-0.695,-0.21
10:34:55.744,-0.71,-0.2
10:34:55.748,-0.72,-0.22
10:34:55.752,-0.735,-0.23
10:34:55.756,-0.755,-0.225
10:34:55.760,-0.72,-0.26
10:34:55.764,-0.725,-0.245
10:34:55.768,-0.705,-0.23
10:34:55.772,-0.725,-0.225
10:34:55.776,-0.705,-0.26
10:34:55.780,-0.7,-0.26
10:34:55.784,-0.745,-0.26
10:34:55.788,-0.74,-0.255
10:34:55.792,-0.725,-0.235
10:34:55.796,-0.71,-0.26
10:34:55.800,-0.72,-0.265
10:34:55.804,-0.71,-0.245
10:34:55.808,-0.695,-0.235
10:34:55.812,-0.68,-0.25
10:34:55.816,-0.655,-0.23
10:34:55.820,-0.635,-0.245
10:34:55.824,-0.63,-0.24
10:34:55.828,-0.615,-0.24
10:34:55.832,-0.62,-0.23
10:34:55.836,-0.605,-0.25
10:34:55.840,-0.545,-0.21
10:34:55.844,-0.52,-0.215
10:34:55.848,-0.505,-0.18
10:34:55.852,-0.445,-0.185
10:34:55.856,-0.405,-0.18
10:34:55.860,-0.375,-0.15
10:34:55.864,-0.33,-0.15
10:34:55.868,-0.31,-0.13
10:34:55.872,-0.275,-0.115
10:34:55.876,-0.27,-0.08
10:34:55.880,-0.27,-0.085
10:34:55.884,-0.235,-0.075
10:34:55.888,-0.22,-0.08
10:34:55.892,-0.205,-0.03
10:34:55.896,-0.19,-0.025
10:34:55.900,-0.2,-0.015
10:34:55.904,-0.165,-0.02
10:34:55.908,-0.17,0
10:34:55.912,-0.15,-0.005
10:34:55.916,-0.165,-0.01
10:34:55.920,-0.175,-0.02
10:34:55.924,-0.2,-0.02
10:34:55.928,-0.21,-0.035
10:34:55.932,-0.2,-0.04
10:34:55.936,-0.205,-0.055
10:34:55.940,-0.2,-0.045
10:34:55.944,-0.2,-0.035
10:34:55.948,-0.19,-0.045
10:34:55.952,-0.17,-0.05
10:34:55.956,-0.185,-0.07
10:34:55.960,-0.175,-0.1
10:34:55.964,-0.18,-0.1
10:34:55.968,-0.195,-0.07
10:34:55.972,-0.22,-0.095
10:34:55.976,-0.225,-0.095
10:34:55.980,-0.22,-0.1
10:34:55.984,-0.22,-0.095
10:34:55.988,-0.21,-0.115
10:34:55.992,-0.205,-0.135
10:34:55.996,-0.2,-0.135
10:34:56.000,-0.195,-0.11
10:34:56.004,-0.175,-0.13
10:34:56.008,-0.205,-0.14
10:34:56.012,-0.19,-0.155
10:34:56.016,-0.2,-0.175
10:34:56.020,-0.23,-0.165
10:34:56.024,-0.205,-0.165
10:34:56.028,-0.24,-0.18
10:34:56.032,-0.215,-0.16
10:34:56.036,-0.19,-0.185
10:34:56.040,-0.2,-0.19
10:34:56.044,-0.195,-0.175
10:34:56.048,-0.2,-0.175
10:34:56.052,-0.16,-0.2
10:34:56.056,-0.175,-0.22
10:34:56.060,-0.19,-0.215
10:34:56.064,-0.215,-0.195
10:34:56.068,-0.2,-0.21
10:34:56.072,-0.205,-0.175
10:34:56.076,-0.18,-0.19
10:34:56.080,-0.17,-0.205
10:34:56.084,-0.14,-0.225
10:34:56.088,-0.14,-0.215
10:34:56.092,-0.14,-0.21
10:34:56.096,-0.145,-0.195
10:34:56.100,-0.17,-0.2
10:34:56.104,-0.16,-0.22
10:34:56.108,-0.17,-0.23
10:34:56.112,-0.185,-0.22
10:34:56.116,-0.175,-0.19
10:34:56.120,-0.16,-0.19
10:34:56.124,-0.17,-0.21
10:34:56.128,-0.16,-0.22
10:34:56.132,-0.185,-0.25
10:34:56.136,-0.15,-0.205
10:34:56.140,-0.15,-0.21
10:34:56.144,-0.13,-0.2
10:34:56.148,-0.135,-0.23
10:34:56.152,-0.13,-0.235
10:34:56.156,-0.15,-0.24
10:34:56.160,-0.165,-0.215
10:34:56.164,-0.18,-0.23
10:34:56.168,-0.19,-0.245
10:34:56.172,-0.185,-0.245
10:34:56.176,-0.15,-0.25
10:34:56.180,-0.14,-0.245
10:34:56.184,-0.14,-0.24
10:34:56.188,-0.135,-0.22
10:34:56.192,-0.13,-0.24
10:34:56.196,-0.125,-0.22
10:34:56.200,-0.13,-0.24
10:34:56.204,-0.12,-0.245
10:34:56.208,-0.13,-0.24
10:34:56.212,-0.145,-0.22
10:34:56.216,-0.135,-0.23
10:34:56.220,-0.11,-0.235
10:34:56.224,-0.1,-0.245
10:34:56.228,-0.1,-0.225
10:34:56.232,-0.09,-0.255
10:34:56.236,-0.115,-0.26
10:34:56.240,-0.1,-0.265
10:34:56.244,-0.08,-0.25
10:34:56.248,-0.09,-0.245
10:34:56.252,-0.09,-0.23
10:34:56.256,-0.09,-0.235
10:34:56.260,-0.075,-0.24
10:34:56.264,-0.09,-0.25
10:34:56.268,-0.06,-0.25
10:34:56.272,-0.055,-0.22
10:34:56.276,-0.045,-0.22
10:34:56.280,-0.035,-0.21
10:34:56.284,-0.045,-0.235
10:34:56.288,-0.05,-0.25
10:34:56.292,-0.06,-0.24
10:34:56.296,-0.09,-0.25
10:34:56.300,-0.07,-0.265
10:34:56.304,-0.085,-0.275
10:34:56.308,-0.065,-0.255
10:34:56.312,-0.08,-0.255
10:34:56.316,-0.095,-0.265
10:34:56.320,-0.075,-0.255
10:34:56.324,-0.04,-0.265
10:34:56.328,-0.04,-0.265
10:34:56.332,-0.035,-0.255
10:34:56.336,-0.03,-0.245
10:34:56.340,-0.045,-0.255
10:34:56.344,-0.06,-0.275
10:34:56.348,-0.05,-0.265
10:34:56.352,-0.04,-0.265
10:34:56.356,-0.005,-0.255
10:34:56.360,0.065,-0.27
10:34:56.364,0.185,-0.265
10:34:56.368,0.295,-0.22
10:34:56.372,0.36,-0.16
10:34:56.376,0.37,-0.105
10:34:56.380,0.35,-0.09
10:34:56.384,0.305,-0.09
10:34:56.388,0.24,-0.105
10:34:56.392,0.21,-0.15
10:34:56.396,0.12,-0.18
10:34:56.400,0.095,-0.21
10:34:56.404,0.05,-0.195
10:34:56.408,0.005,-0.185
10:34:56.412,-0.005,-0.195
10:34:56.416,-0.05,-0.225
10:34:56.420,-0.065,-0.23
10:34:56.424,-0.085,-0.245
10:34:56.428,-0.095,-0.26
10:34:56.432,-0.11,-0.315
10:34:56.436,-0.14,-0.335
10:34:56.440,-0.135,-0.36
10:34:56.444,-0.125,-0.365
10:34:56.448,-0.115,-0.36
10:34:56.452,-0.015,-0.38
10:34:56.456,0.06,-0.31
10:34:56.460,0.17,-0.25
10:34:56.464,0.365,-0.195
10:34:56.468,0.64,-0.21
10:34:56.472,0.86,-0.26
10:34:56.476,0.955,-0.33
10:34:56.480,1.095,-0.485
10:34:56.484,1,-0.8
10:34:56.488,0.385,-1.135
10:34:56.492,-0.505,-1.48
10:34:56.496,-1.23,-1.805
10:34:56.500,-1.555,-2.085
10:34:56.504,-1.515,-2.32
10:34:56.508,-1.325,-2.49
10:34:56.512,-1.02,-2.41
10:34:56.516,-0.77,-2.175
10:34:56.520,-0.545,-1.835
10:34:56.524,-0.385,-1.5
10:34:56.528,-0.31,-1.205
10:34:56.532,-0.255,-0.89
10:34:56.536,-0.225,-0.67
10:34:56.540,-0.24,-0.55
10:34:56.544,-0.23,-0.445
10:34:56.548,-0.22,-0.415
10:34:56.552,-0.205,-0.39
10:34:56.556,-0.19,-0.395
10:34:56.560,-0.22,-0.375
10:34:56.564,-0.21,-0.335
10:34:56.568,-0.245,-0.365
10:34:56.572,-0.26,-0.36
10:34:56.576,-0.265,-0.35
10:34:56.580,-0.28,-0.34
10:34:56.584,-0.295,-0.345
10:34:56.588,-0.295,-0.365
10:34:56.592,-0.305,-0.355
10:34:56.596,-0.3,-0.345
10:34:56.600,-0.305,-0.355
10:34:56.604,-0.315,-0.355
10:34:56.608,-0.335,-0.36
10:34:56.612,-0.31,-0.365
10:34:56.616,-0.34,-0.37
10:34:56.620,-0.365,-0.38
10:34:56.624,-0.4,-0.38
10:34:56.628,-0.415,-0.375
10:34:56.632,-0.405,-0.365
10:34:56.636,-0.42,-0.37
10:34:56.640,-0.425,-0.385
10:34:56.644,-0.44,-0.385
10:34:56.648,-0.445,-0.425
10:34:56.652,-0.46,-0.415
10:34:56.656,-0.49,-0.415
10:34:56.660,-0.5,-0.435
10:34:56.664,-0.53,-0.45
10:34:56.668,-0.55,-0.45
10:34:56.672,-0.57,-0.43
10:34:56.676,-0.585,-0.425
10:34:56.680,-0.595,-0.455
10:34:56.684,-0.595,-0.465
10:34:56.688,-0.61,-0.46
10:34:56.692,-0.65,-0.48
10:34:56.696,-0.635,-0.465
10:34:56.700,-0.65,-0.46
10:34:56.704,-0.64,-0.48
10:34:56.708,-0.665,-0.475
10:34:56.712,-0.67,-0.51
10:34:56.716,-0.68,-0.505
10:34:56.720,-0.665,-0.49
10:34:56.724,-0.625,-0.515
10:34:56.728,-0.64,-0.525
10:34:56.732,-0.655,-0.53
10:34:56.736,-0.64,-0.51
10:34:56.740,-0.635,-0.55
10:34:56.744,-0.65,-0.53
10:34:56.748,-0.65,-0.565
10:34:56.752,-0.67,-0.555
10:34:56.756,-0.665,-0.58
10:34:56.760,-0.62,-0.55
10:34:56.764,-0.595,-0.57
10:34:56.768,-0.535,-0.59
10:34:56.772,-0.465,-0.54
10:34:56.776,-0.465,-0.54
10:34:56.780,-0.39,-0.515
10:34:56.784,-0.32,-0.47
10:34:56.788,-0.265,-0.425
10:34:56.792,-0.22,-0.425
10:34:56.796,-0.195,-0.395
10:34:56.800,-0.19,-0.385
10:34:56.804,-0.17,-0.37
10:34:56.808,-0.14,-0.375
10:34:56.812,-0.08,-0.35
10:34:56.816,-0.07,-0.295
10:34:56.820,-0.06,-0.24
10:34:56.824,-0.04,-0.18
10:34:56.828,-0.06,-0.19
10:34:56.832,-0.045,-0.17
10:34:56.836,-0.065,-0.185
10:34:56.840,-0.08,-0.18
10:34:56.844,-0.075,-0.21
10:34:56.848,-0.09,-0.255
10:34:56.852,-0.07,-0.265
10:34:56.856,-0.08,-0.295
10:34:56.860,-0.07,-0.3
10:34:56.864,-0.07,-0.305
10:34:56.868,-0.035,-0.31
10:34:56.872,-0.02,-0.275
10:34:56.876,0,-0.275
10:34:56.880,-0.005,-0.305
10:34:56.884,-0.035,-0.3
10:34:56.888,-0.07,-0.31
10:34:56.892,-0.075,-0.34
10:34:56.896,-0.06,-0.335
10:34:56.900,-0.07,-0.32
10:34:56.904,-0.045,-0.3
10:34:56.908,-0.045,-0.32
10:34:56.912,-0.025,-0.305
10:34:56.916,-0.04,-0.315
10:34:56.920,-0.01,-0.325
10:34:56.924,-0.01,-0.32
10:34:56.928,0.015,-0.315
10:34:56.932,0.005,-0.375
10:34:56.936,0,-0.355
10:34:56.940,-0.025,-0.35
10:34:56.944,-0.005,-0.34
10:34:56.948,-0.025,-0.335
10:34:56.952,-0.03,-0.36
10:34:56.956,-0.035,-0.36
10:34:56.960,-0.06,-0.335
10:34:56.964,-0.085,-0.265
10:34:56.968,0.035,-0.225
10:34:56.972,0.215,-0.275
10:34:56.976,0.46,-0.33
10:34:56.980,0.665,-0.425
10:34:56.984,0.91,-0.535
10:34:56.988,0.805,-0.54
10:34:56.992,0.125,-0.475
10:34:56.996,-0.595,-0.44
10:34:57.000,-1.085,-0.42
10:34:57.004,-1.32,-0.365
10:34:57.008,-1.38,-0.225
10:34:57.012,-1.33,-0.145
10:34:57.016,-1.27,-0.11
10:34:57.020,-1.225,-0.09
10:34:57.024,-1.15,-0.095
10:34:57.028,-1.065,-0.09
10:34:57.032,-0.97,-0.195
10:34:57.036,-0.85,-0.34
10:34:57.040,-0.615,-0.495
10:34:57.044,-0.36,-0.58
10:34:57.048,-0.155,-0.605
10:34:57.052,-0.105,-0.61
10:34:57.056,-0.065,-0.615
10:34:57.060,-0.04,-0.52
10:34:57.064,-0.035,-0.515
10:34:57.068,-0.035,-0.495
10:34:57.072,-0.05,-0.525
10:34:57.076,-0.065,-0.505
10:34:57.080,-0.1,-0.49
10:34:57.084,-0.1,-0.51
10:34:57.088,-0.07,-0.52
10:34:57.092,-0.075,-0.535
10:34:57.096,-0.07,-0.535
10:34:57.100,-0.06,-0.535
10:34:57.104,-0.05,-0.52
10:34:57.108,-0.03,-0.54
10:34:57.112,-0.05,-0.555
10:34:57.116,-0.06,-0.55
10:34:57.120,-0.08,-0.58
10:34:57.124,-0.1,-0.585
10:34:57.128,-0.145,-0.6
10:34:57.132,-0.145,-0.61
10:34:57.136,-0.145,-0.64
10:34:57.140,-0.15,-0.625
10:34:57.144,-0.14,-0.635
10:34:57.148,-0.13,-0.655
10:34:57.152,-0.1,-0.65
10:34:57.156,-0.15,-0.665
10:34:57.160,-0.165,-0.71
10:34:57.164,-0.16,-0.735
10:34:57.168,-0.2,-0.705
10:34:57.172,-0.22,-0.72
10:34:57.176,-0.265,-0.73
10:34:57.180,-0.29,-0.73
10:34:57.184,-0.29,-0.75
10:34:57.188,-0.29,-0.785
10:34:57.192,-0.285,-0.795
10:34:57.196,-0.265,-0.805
10:34:57.200,-0.255,-0.82
10:34:57.204,-0.245,-0.82
10:34:57.208,-0.265,-0.83
10:34:57.212,-0.265,-0.87
10:34:57.216,-0.255,-0.875
10:34:57.220,-0.26,-0.88
10:34:57.224,-0.255,-0.905
10:34:57.228,-0.24,-0.925
10:34:57.232,-0.2,-0.92
10:34:57.236,-0.19,-0.92
10:34:57.240,-0.145,-0.97
10:34:57.244,-0.115,-0.975
10:34:57.248,-0.075,-0.95
10:34:57.252,-0.04,-0.98
10:34:57.256,0.005,-0.985
10:34:57.260,0.025,-0.965
10:34:57.264,0.02,-0.93
10:34:57.268,0.05,-0.925
10:34:57.272,0.07,-0.91
10:34:57.276,0.105,-0.87
10:34:57.280,0.105,-0.825
10:34:57.284,0.125,-0.785
10:34:57.288,0.14,-0.705
10:34:57.292,0.145,-0.685
10:34:57.296,0.11,-0.665
10:34:57.300,0.12,-0.59
10:34:57.304,0.105,-0.575
10:34:57.308,0.07,-0.49
10:34:57.312,0.03,-0.485
10:34:57.316,0.025,-0.45
10:34:57.320,-0.015,-0.43
10:34:57.324,-0.01,-0.405
10:34:57.328,-0.03,-0.385
10:34:57.332,-0.045,-0.345
10:34:57.336,-0.06,-0.34
10:34:57.340,-0.085,-0.335
10:34:57.344,-0.05,-0.305
10:34:57.348,-0.09,-0.295
10:34:57.352,-0.125,-0.305
10:34:57.356,-0.15,-0.28
10:34:57.360,-0.135,-0.29
10:34:57.364,-0.13,-0.315
10:34:57.368,-0.125,-0.3
10:34:57.372,-0.145,-0.295
10:34:57.376,-0.145,-0.29
10:34:57.380,-0.14,-0.275
10:34:57.384,-0.135,-0.28
10:34:57.388,-0.135,-0.31
10:34:57.392,-0.145,-0.33
10:34:57.396,-0.165,-0.315
10:34:57.400,-0.16,-0.305
10:34:57.404,-0.19,-0.31
10:34:57.408,-0.185,-0.3
10:34:57.412,-0.18,-0.32
10:34:57.416,-0.155,-0.32
10:34:57.420,-0.15,-0.305
10:34:57.424,-0.145,-0.32
10:34:57.428,-0.15,-0.315
10:34:57.432,-0.14,-0.335
10:34:57.436,-0.165,-0.33
10:34:57.440,-0.175,-0.305
10:34:57.444,-0.185,-0.31
10:34:57.448,-0.2,-0.315
10:34:57.452,-0.205,-0.305
10:34:57.456,-0.19,-0.305
10:34:57.460,-0.175,-0.325
10:34:57.464,-0.16,-0.3
10:34:57.468,-0.14,-0.315
10:34:57.472,-0.165,-0.295
10:34:57.476,-0.175,-0.295
10:34:57.480,-0.195,-0.295
10:34:57.484,-0.195,-0.305
10:34:57.488,-0.2,-0.31
10:34:57.492,-0.185,-0.32
10:34:57.496,-0.17,-0.3
10:34:57.500,-0.19,-0.32
10:34:57.504,-0.18,-0.325
10:34:57.508,-0.23,-0.345
10:34:57.512,-0.19,-0.34
10:34:57.516,-0.175,-0.345
10:34:57.520,-0.195,-0.33
10:34:57.524,-0.185,-0.335
10:34:57.528,-0.21,-0.345
10:34:57.532,-0.205,-0.325
10:34:57.536,-0.205,-0.33
10:34:57.540,-0.215,-0.315
10:34:57.544,-0.195,-0.32
10:34:57.548,-0.215,-0.33
10:34:57.552,-0.21,-0.345
10:34:57.556,-0.19,-0.345
10:34:57.560,-0.18,-0.325
10:34:57.564,-0.195,-0.325
10:34:57.568,-0.195,-0.335
10:34:57.572,-0.195,-0.34
10:34:57.576,-0.21,-0.315
10:34:57.580,-0.21,-0.335
10:34:57.584,-0.18,-0.33
10:34:57.588,-0.15,-0.295
10:34:57.592,-0.08,-0.285
10:34:57.596,-0.03,-0.325
10:34:57.600,0.04,-0.275
10:34:57.604,0.09,-0.255
10:34:57.608,0.135,-0.205
10:34:57.612,0.14,-0.155
10:34:57.616,0.14,-0.16
10:34:57.620,0.14,-0.165
10:34:57.624,0.085,-0.2
10:34:57.628,0.045,-0.2
10:34:57.632,0,-0.235
10:34:57.636,-0.05,-0.225
10:34:57.640,-0.115,-0.23
10:34:57.644,-0.125,-0.225
10:34:57.648,-0.17,-0.265
10:34:57.652,-0.205,-0.27
10:34:57.656,-0.24,-0.265
10:34:57.660,-0.27,-0.305
10:34:57.664,-0.285,-0.315
10:34:57.668,-0.285,-0.32
10:34:57.672,-0.26,-0.35
10:34:57.676,-0.275,-0.32
10:34:57.680,-0.255,-0.325
10:34:57.684,-0.23,-0.365
10:34:57.688,-0.195,-0.335
10:34:57.692,-0.125,-0.3
10:34:57.696,-0.02,-0.265
10:34:57.700,0.215,-0.215
10:34:57.704,0.52,-0.23
10:34:57.708,0.735,-0.265
10:34:57.712,0.865,-0.345
10:34:57.716,0.905,-0.555
10:34:57.720,0.625,-0.835
10:34:57.724,-0.16,-1.12
10:34:57.728,-1.025,-1.435
10:34:57.732,-1.555,-1.75
10:34:57.736,-1.705,-1.99
10:34:57.740,-1.59,-2.195
10:34:57.744,-1.475,-2.28
10:34:57.748,-1.205,-2.185
10:34:57.752,-0.93,-1.945
10:34:57.756,-0.725,-1.64
10:34:57.760,-0.56,-1.35
10:34:57.764,-0.515,-1.09
10:34:57.768,-0.455,-0.85
10:34:57.772,-0.425,-0.65
10:34:57.776,-0.425,-0.515
10:34:57.780,-0.41,-0.43
10:34:57.784,-0.395,-0.42
10:34:57.788,-0.39,-0.4
10:34:57.792,-0.39,-0.39
10:34:57.796,-0.405,-0.39
10:34:57.800,-0.4,-0.365
10:34:57.804,-0.425,-0.35
10:34:57.808,-0.425,-0.35
10:34:57.812,-0.445,-0.325
10:34:57.816,-0.45,-0.32
10:34:57.820,-0.455,-0.32
10:34:57.824,-0.44,-0.315
10:34:57.828,-0.42,-0.325
10:34:57.832,-0.435,-0.3
10:34:57.836,-0.435,-0.325
10:34:57.840,-0.48,-0.325
10:34:57.844,-0.49,-0.305
10:34:57.848,-0.515,-0.32
10:34:57.852,-0.54,-0.305
10:34:57.856,-0.575,-0.33
10:34:57.860,-0.55,-0.32
10:34:57.864,-0.575,-0.315
10:34:57.868,-0.62,-0.315
10:34:57.872,-0.6,-0.34
10:34:57.876,-0.61,-0.34
10:34:57.880,-0.62,-0.33
10:34:57.884,-0.64,-0.35
10:34:57.888,-0.655,-0.355
10:34:57.892,-0.68,-0.34
10:34:57.896,-0.725,-0.35
10:34:57.900,-0.75,-0.38
10:34:57.904,-0.76,-0.39
10:34:57.908,-0.81,-0.395
10:34:57.912,-0.82,-0.415
10:34:57.916,-0.825,-0.42
10:34:57.920,-0.855,-0.41
10:34:57.924,-0.85,-0.4
10:34:57.928,-0.875,-0.445
10:34:57.932,-0.88,-0.45
10:34:57.936,-0.885,-0.465
10:34:57.940,-0.9,-0.43
10:34:57.944,-0.93,-0.465
10:34:57.948,-0.95,-0.485
10:34:57.952,-0.965,-0.51
10:34:57.956,-0.975,-0.525
10:34:57.960,-0.96,-0.51
10:34:57.964,-0.95,-0.54
10:34:57.968,-0.955,-0.545
10:34:57.972,-0.975,-0.56
10:34:57.976,-0.955,-0.53
10:34:57.980,-0.97,-0.545
10:34:57.984,-0.93,-0.55
10:34:57.988,-0.87,-0.55
10:34:57.992,-0.835,-0.545
10:34:57.996,-0.82,-0.52
10:34:58.000,-0.79,-0.5
10:34:58.004,-0.73,-0.445
10:34:58.008,-0.67,-0.44
10:34:58.012,-0.585,-0.44
10:34:58.016,-0.51,-0.415
10:34:58.020,-0.445,-0.4
10:34:58.024,-0.43,-0.345
10:34:58.028,-0.39,-0.325
10:34:58.032,-0.38,-0.31
10:34:58.036,-0.355,-0.295
10:34:58.040,-0.335,-0.26
10:34:58.044,-0.335,-0.225
10:34:58.048,-0.33,-0.18
10:34:58.052,-0.29,-0.195
10:34:58.056,-0.27,-0.195
10:34:58.060,-0.27,-0.215
10:34:58.064,-0.28,-0.235
10:34:58.068,-0.3,-0.22
10:34:58.072,-0.31,-0.215
10:34:58.076,-0.32,-0.24
10:34:58.080,-0.3,-0.245
10:34:58.084,-0.295,-0.26
10:34:58.088,-0.31,-0.275
10:34:58.092,-0.3,-0.285
10:34:58.096,-0.29,-0.27
10:34:58.100,-0.265,-0.29
10:34:58.104,-0.23,-0.28
10:34:58.108,-0.18,-0.295
10:34:58.112,-0.21,-0.3
10:34:58.116,-0.23,-0.295
10:34:58.120,-0.26,-0.29
10:34:58.124,-0.25,-0.295
10:34:58.128,-0.285,-0.285
10:34:58.132,-0.28,-0.295
10:34:58.136,-0.28,-0.31
10:34:58.140,-0.285,-0.335
10:34:58.144,-0.255,-0.33
10:34:58.148,-0.235,-0.32
10:34:58.152,-0.22,-0.34
10:34:58.156,-0.215,-0.34
10:34:58.160,-0.22,-0.33
10:34:58.164,-0.255,-0.33
10:34:58.168,-0.27,-0.33
10:34:58.172,-0.34,-0.285
10:34:58.176,-0.39,-0.23
10:34:58.180,-0.335,-0.225
10:34:58.184,-0.18,-0.25
10:34:58.188,0.025,-0.34
10:34:58.192,0.225,-0.485
10:34:58.196,0.475,-0.625
10:34:58.200,0.405,-0.7
10:34:58.204,-0.255,-0.65
10:34:58.208,-0.99,-0.535
10:34:58.212,-1.48,-0.48
10:34:58.216,-1.68,-0.4
10:34:58.220,-1.715,-0.295
10:34:58.224,-1.695,-0.28
10:34:58.228,-1.645,-0.345
10:34:58.232,-1.545,-0.34
10:34:58.236,-1.475,-0.29
10:34:58.240,-1.33,-0.27
10:34:58.244,-1.185,-0.335
10:34:58.248,-0.98,-0.525
10:34:58.252,-0.635,-0.635
10:34:58.256,-0.315,-0.68
10:34:58.260,-0.16,-0.695
10:34:58.264,-0.14,-0.63
10:34:58.268,-0.17,-0.59
10:34:58.272,-0.17,-0.54
10:34:58.276,-0.165,-0.52
10:34:58.280,-0.14,-0.51
10:34:58.284,-0.115,-0.54
10:34:58.288,-0.13,-0.555
10:34:58.292,-0.11,-0.55
10:34:58.296,-0.095,-0.535
10:34:58.300,-0.085,-0.51
10:34:58.304,-0.11,-0.545
10:34:58.308,-0.11,-0.525
10:34:58.312,-0.145,-0.555
10:34:58.316,-0.125,-0.56
10:34:58.320,-0.14,-0.56
10:34:58.324,-0.13,-0.54
10:34:58.328,-0.145,-0.56
10:34:58.332,-0.12,-0.58
10:34:58.336,-0.125,-0.59
10:34:58.340,-0.12,-0.61
10:34:58.344,-0.12,-0.6
10:34:58.348,-0.145,-0.61
10:34:58.352,-0.195,-0.635
10:34:58.356,-0.21,-0.655
10:34:58.360,-0.23,-0.66
10:34:58.364,-0.23,-0.695
10:34:58.368,-0.235,-0.68
10:34:58.372,-0.22,-0.695
10:34:58.376,-0.225,-0.705
10:34:58.380,-0.28,-0.68
10:34:58.384,-0.305,-0.705
10:34:58.388,-0.28,-0.71
10:34:58.392,-0.3,-0.7
10:34:58.396,-0.315,-0.745
10:34:58.400,-0.365,-0.755
10:34:58.404,-0.39,-0.795
10:34:58.408,-0.385,-0.805
10:34:58.412,-0.395,-0.83
10:34:58.416,-0.385,-0.84
10:34:58.420,-0.39,-0.865
10:34:58.424,-0.37,-0.865
10:34:58.428,-0.36,-0.875
10:34:58.432,-0.335,-0.895
10:34:58.436,-0.35,-0.905
10:34:58.440,-0.33,-0.91
10:34:58.444,-0.32,-0.89
10:34:58.448,-0.28,-0.945
10:34:58.452,-0.265,-0.945
10:34:58.456,-0.235,-0.95
10:34:58.460,-0.17,-0.93
10:34:58.464,-0.12,-0.93
10:34:58.468,-0.07,-0.935
10:34:58.472,-0.045,-0.94
10:34:58.476,-0.01,-0.94
10:34:58.480,0.025,-0.935
10:34:58.484,0.05,-0.925
10:34:58.488,0.08,-0.895
10:34:58.492,0.08,-0.815
10:34:58.496,0.075,-0.79
10:34:58.500,0.1,-0.76
10:34:58.504,0.105,-0.715
10:34:58.508,0.08,-0.665
10:34:58.512,0.095,-0.615
10:34:58.516,0.1,-0.54
10:34:58.520,0.085,-0.525
10:34:58.524,0.055,-0.51
10:34:58.528,0.05,-0.465
10:34:58.532,0.06,-0.42
10:34:58.536,0.06,-0.4
10:34:58.540,0.035,-0.35
10:34:58.544,0.02,-0.32
10:34:58.548,0.01,-0.305
10:34:58.552,-0.005,-0.295
10:34:58.556,-0.02,-0.305
10:34:58.560,-0.005,-0.3
10:34:58.564,0.005,-0.29
10:34:58.568,0.005,-0.3
10:34:58.572,0.005,-0.3
10:34:58.576,-0.025,-0.28
10:34:58.580,-0.065,-0.295
10:34:58.584,-0.075,-0.32
10:34:58.588,-0.07,-0.305
10:34:58.592,-0.07,-0.28
10:34:58.596,-0.065,-0.285
10:34:58.600,-0.09,-0.3
10:34:58.604,-0.06,-0.3
10:34:58.608,-0.045,-0.315
10:34:58.612,-0.04,-0.315
10:34:58.616,-0.04,-0.32
10:34:58.620,-0.035,-0.325
10:34:58.624,-0.055,-0.315
10:34:58.628,-0.055,-0.335
10:34:58.632,-0.08,-0.355
10:34:58.636,-0.07,-0.305
10:34:58.640,-0.06,-0.32
10:34:58.644,-0.06,-0.3
10:34:58.648,-0.065,-0.32
10:34:58.652,-0.06,-0.34
10:34:58.656,-0.05,-0.36
10:34:58.660,-0.06,-0.36
10:34:58.664,-0.06,-0.34
10:34:58.668,-0.06,-0.35
10:34:58.672,-0.075,-0.345
10:34:58.676,-0.055,-0.34
10:34:58.680,-0.065,-0.345
10:34:58.684,-0.075,-0.32
10:34:58.688,-0.08,-0.31
10:34:58.692,-0.07,-0.295
10:34:58.696,-0.065,-0.32
10:34:58.700,-0.045,-0.325
10:34:58.704,-0.04,-0.33
10:34:58.708,-0.035,-0.315
10:34:58.712,-0.06,-0.34
10:34:58.716,-0.065,-0.34
10:34:58.720,-0.075,-0.355
10:34:58.724,-0.08,-0.365
10:34:58.728,-0.075,-0.365
10:34:58.732,-0.085,-0.34
10:34:58.736,-0.075,-0.35
10:34:58.740,-0.07,-0.365
10:34:58.744,-0.06,-0.35
10:34:58.748,-0.02,-0.36
10:34:58.752,-0.01,-0.38
10:34:58.756,-0.035,-0.325
10:34:58.760,-0.015,-0.335
10:34:58.764,0,-0.34
10:34:58.768,-0.005,-0.36
10:34:58.772,0.01,-0.37
10:34:58.776,0.07,-0.36
10:34:58.780,0.15,-0.34
10:34:58.784,0.225,-0.28
10:34:58.788,0.295,-0.29
10:34:58.792,0.305,-0.235
10:34:58.796,0.325,-0.18
10:34:58.800,0.355,-0.195
10:34:58.804,0.35,-0.24
10:34:58.808,0.315,-0.255
10:34:58.812,0.255,-0.265
10:34:58.816,0.2,-0.295
10:34:58.820,0.15,-0.34
10:34:58.824,0.145,-0.345
10:34:58.828,0.125,-0.33
10:34:58.832,0.07,-0.31
10:34:58.836,0.035,-0.33
10:34:58.840,0.005,-0.32
10:34:58.844,-0.015,-0.355
10:34:58.848,-0.04,-0.35
10:34:58.852,-0.035,-0.37
10:34:58.856,-0.03,-0.38
10:34:58.860,-0.075,-0.395
10:34:58.864,-0.07,-0.435
10:34:58.868,-0.055,-0.435
10:34:58.872,0,-0.43
10:34:58.876,0.075,-0.4
10:34:58.880,0.185,-0.4
10:34:58.884,0.33,-0.33
10:34:58.888,0.58,-0.295
10:34:58.892,0.805,-0.34
10:34:58.896,0.965,-0.36
10:34:58.900,1.09,-0.445
10:34:58.904,1.14,-0.735
10:34:58.908,0.9,-1.115
10:34:58.912,0.09,-1.475
10:34:58.916,-0.83,-1.805
10:34:58.920,-1.37,-2.045
10:34:58.924,-1.495,-2.275
10:34:58.928,-1.365,-2.55
10:34:58.932,-1.065,-2.605
10:34:58.936,-0.77,-2.475
10:34:58.940,-0.52,-2.16
10:34:58.944,-0.31,-1.79
10:34:58.948,-0.22,-1.42
10:34:58.952,-0.16,-1.105
10:34:58.956,-0.13,-0.83
10:34:58.960,-0.12,-0.625
10:34:58.964,-0.15,-0.5
10:34:58.968,-0.145,-0.465
10:34:58.972,-0.14,-0.455
10:34:58.976,-0.095,-0.43
10:34:58.980,-0.115,-0.435
10:34:58.984,-0.08,-0.41
10:34:58.988,-0.09,-0.415
10:34:58.992,-0.105,-0.4
10:34:58.996,-0.11,-0.41
10:34:59.000,-0.14,-0.41
10:34:59.004,-0.165,-0.425
10:34:59.008,-0.155,-0.405
10:34:59.012,-0.18,-0.385
10:34:59.016,-0.19,-0.4
10:34:59.020,-0.175,-0.4
10:34:59.024,-0.16,-0.41
10:34:59.028,-0.18,-0.405
10:34:59.032,-0.18,-0.39
10:34:59.036,-0.195,-0.4
10:34:59.040,-0.205,-0.4
10:34:59.044,-0.23,-0.375
10:34:59.048,-0.24,-0.405
10:34:59.052,-0.27,-0.405
10:34:59.056,-0.275,-0.42
10:34:59.060,-0.3,-0.385
10:34:59.064,-0.29,-0.415
10:34:59.068,-0.285,-0.4
10:34:59.072,-0.315,-0.415
10:34:59.076,-0.32,-0.45
10:34:59.080,-0.33,-0.43
10:34:59.084,-0.37,-0.455
10:34:59.088,-0.4,-0.475
10:34:59.092,-0.435,-0.5
10:34:59.096,-0.46,-0.485
10:34:59.100,-0.47,-0.51
10:34:59.104,-0.48,-0.5
10:34:59.108,-0.51,-0.51
10:34:59.112,-0.505,-0.51
10:34:59.116,-0.51,-0.52
10:34:59.120,-0.495,-0.52
10:34:59.124,-0.535,-0.525
10:34:59.128,-0.575,-0.555
10:34:59.132,-0.585,-0.56
10:34:59.136,-0.59,-0.535
10:34:59.140,-0.61,-0.54
10:34:59.144,-0.64,-0.56
10:34:59.148,-0.615,-0.56
10:34:59.152,-0.62,-0.565
10:34:59.156,-0.64,-0.535
10:34:59.160,-0.635,-0.585
10:34:59.164,-0.575,-0.56
10:34:59.168,-0.58,-0.555
10:34:59.172,-0.56,-0.55
10:34:59.176,-0.545,-0.535
10:34:59.180,-0.575,-0.56
10:34:59.184,-0.535,-0.56
10:34:59.188,-0.5,-0.565
10:34:59.192,-0.465,-0.555
10:34:59.196,-0.42,-0.555
10:34:59.200,-0.36,-0.545
10:34:59.204,-0.31,-0.55
10:34:59.208,-0.26,-0.535
10:34:59.212,-0.19,-0.535
10:34:59.216,-0.16,-0.515
10:34:59.220,-0.125,-0.485
10:34:59.224,-0.11,-0.455
10:34:59.228,-0.09,-0.455
10:34:59.232,-0.075,-0.45
10:34:59.236,-0.035,-0.435
10:34:59.240,-0.025,-0.445
10:34:59.244,-0.01,-0.395
10:34:59.248,0,-0.385
10:34:59.252,0.03,-0.345
10:34:59.256,0.045,-0.355
10:34:59.260,0.03,-0.33
10:34:59.264,0.06,-0.335
10:34:59.268,0.08,-0.32
10:34:59.272,0.11,-0.315
10:34:59.276,0.1,-0.335
10:34:59.280,0.1,-0.32
10:34:59.284,0.1,-0.31
10:34:59.288,0.1,-0.33
10:34:59.292,0.115,-0.34
10:34:59.296,0.13,-0.34
10:34:59.300,0.135,-0.33
10:34:59.304,0.12,-0.34
10:34:59.308,0.13,-0.36
10:34:59.312,0.13,-0.355
10:34:59.316,0.115,-0.36
10:34:59.320,0.1,-0.36
10:34:59.324,0.1,-0.36
10:34:59.328,0.115,-0.36
10:34:59.332,0.105,-0.365
10:34:59.336,0.105,-0.355
10:34:59.340,0.12,-0.39
10:34:59.344,0.145,-0.405
10:34:59.348,0.145,-0.395
10:34:59.352,0.14,-0.395
10:34:59.356,0.14,-0.405
10:34:59.360,0.125,-0.395
10:34:59.364,0.095,-0.435
10:34:59.368,0.09,-0.44
10:34:59.372,0.075,-0.42
10:34:59.376,0.065,-0.445
10:34:59.380,0.095,-0.435
10:34:59.384,0.125,-0.44
10:34:59.388,0.135,-0.475
10:34:59.392,0.135,-0.46
10:34:59.396,0.13,-0.44
10:34:59.400,0.145,-0.465
10:34:59.404,0.15,-0.44
10:34:59.408,0.15,-0.43
10:34:59.412,0.085,-0.45
10:34:59.416,0.055,-0.46
10:34:59.420,0.05,-0.46
10:34:59.424,0.06,-0.475
10:34:59.428,0.055,-0.465
10:34:59.432,0.075,-0.48
10:34:59.436,0.085,-0.49
10:34:59.440,0.11,-0.49
10:34:59.444,0.105,-0.49
10:34:59.448,0.09,-0.48
10:34:59.452,0.075,-0.485
10:34:59.456,0.05,-0.485
10:34:59.460,0.035,-0.485
10:34:59.464,0.045,-0.475
10:34:59.468,0.05,-0.495
10:34:59.472,0.08,-0.49
10:34:59.476,0.045,-0.5
10:34:59.480,0.05,-0.505
10:34:59.484,0.065,-0.49
10:34:59.488,0.075,-0.485
10:34:59.492,0.07,-0.49
10:34:59.496,0.08,-0.49
10:34:59.500,0.07,-0.5
10:34:59.504,0.07,-0.51
10:34:59.508,0.055,-0.535
10:34:59.512,0.065,-0.53
10:34:59.516,0.095,-0.52
10:34:59.520,0.07,-0.52
10:34:59.524,0.08,-0.48
10:34:59.528,0.1,-0.495
10:34:59.532,0.09,-0.475
10:34:59.536,0.085,-0.48
10:34:59.540,0.09,-0.505
10:34:59.544,0.1,-0.5
10:34:59.548,0.08,-0.49
10:34:59.552,0.075,-0.495
10:34:59.556,0.05,-0.505
10:34:59.560,0.07,-0.47
10:34:59.564,0.08,-0.49
10:34:59.568,0.09,-0.51
10:34:59.572,0.09,-0.495
10:34:59.576,0.12,-0.48
10:34:59.580,0.1,-0.515
10:34:59.584,0.105,-0.465
10:34:59.588,0.09,-0.47
10:34:59.592,0.085,-0.475
10:34:59.596,0.085,-0.48
10:34:59.600,0.075,-0.515
10:34:59.604,0.08,-0.495
10:34:59.608,0.08,-0.525
10:34:59.612,0.105,-0.505
10:34:59.616,0.075,-0.505
10:34:59.620,0.1,-0.5
10:34:59.624,0.085,-0.49
10:34:59.628,0.085,-0.49
10:34:59.632,0.095,-0.485
10:34:59.636,0.08,-0.49
10:34:59.640,0.095,-0.45
10:34:59.644,0.095,-0.475
10:34:59.648,0.105,-0.47
10:34:59.652,0.08,-0.49
10:34:59.656,0.08,-0.485
10:34:59.660,0.12,-0.46
10:34:59.664,0.14,-0.465
10:34:59.668,0.125,-0.47
10:34:59.672,0.11,-0.51
10:34:59.676,0.125,-0.48
10:34:59.680,0.12,-0.49
10:34:59.684,0.12,-0.485
10:34:59.688,0.14,-0.49
10:34:59.692,0.19,-0.49
10:34:59.696,0.285,-0.48
10:34:59.700,0.37,-0.45
10:34:59.704,0.44,-0.41
10:34:59.708,0.48,-0.36
10:34:59.712,0.505,-0.295
10:34:59.716,0.47,-0.27
10:34:59.720,0.415,-0.285
10:34:59.724,0.36,-0.32
10:34:59.728,0.3,-0.35
10:34:59.732,0.225,-0.39
10:34:59.736,0.15,-0.375
10:34:59.740,0.09,-0.335
10:34:59.744,0.07,-0.355
10:34:59.748,0.045,-0.405
10:34:59.752,0.01,-0.46
10:34:59.756,0,-0.495
10:34:59.760,-0.005,-0.495
10:34:59.764,0.025,-0.485
10:34:59.768,0,-0.52
10:34:59.772,0,-0.535
10:34:59.776,-0.03,-0.57
10:34:59.780,-0.03,-0.56
10:34:59.784,0.03,-0.52
10:34:59.788,0.095,-0.495
10:34:59.792,0.16,-0.455
10:34:59.796,0.3,-0.395
10:34:59.800,0.6,-0.365
10:34:59.804,0.975,-0.34
10:34:59.808,1.2,-0.36
10:34:59.812,1.37,-0.445
10:34:59.816,1.38,-0.6
10:34:59.820,0.98,-0.84
10:34:59.824,0.135,-1.07
10:34:59.828,-0.705,-1.38
10:34:59.832,-1.23,-1.695
10:34:59.836,-1.345,-1.915
10:34:59.840,-1.265,-2.115
10:34:59.844,-1.135,-2.195
10:34:59.848,-0.91,-2.15
10:34:59.852,-0.625,-1.91
10:34:59.856,-0.43,-1.665
10:34:59.860,-0.3,-1.455
10:34:59.864,-0.235,-1.195
10:34:59.868,-0.2,-0.995
10:34:59.872,-0.15,-0.79
10:34:59.876,-0.15,-0.66
10:34:59.880,-0.15,-0.6
10:34:59.884,-0.17,-0.54
10:34:59.888,-0.155,-0.535
10:34:59.892,-0.135,-0.54
10:34:59.896,-0.13,-0.515
10:34:59.900,-0.13,-0.52
10:34:59.904,-0.13,-0.525
10:34:59.908,-0.13,-0.54
10:34:59.912,-0.145,-0.49
10:34:59.916,-0.185,-0.525
10:34:59.920,-0.18,-0.48
10:34:59.924,-0.185,-0.49
10:34:59.928,-0.18,-0.5
10:34:59.932,-0.195,-0.49
10:34:59.936,-0.21,-0.51
10:34:59.940,-0.22,-0.485
10:34:59.944,-0.21,-0.49
10:34:59.948,-0.215,-0.465
10:34:59.952,-0.205,-0.485
10:34:59.956,-0.21,-0.485
10:34:59.960,-0.255,-0.49
10:34:59.964,-0.295,-0.5
10:34:59.968,-0.32,-0.48
10:34:59.972,-0.33,-0.525
10:34:59.976,-0.32,-0.525
10:34:59.980,-0.335,-0.52
10:34:59.984,-0.375,-0.54
10:34:59.988,-0.39,-0.565
10:34:59.992,-0.39,-0.54
10:34:59.996,-0.44,-0.56
10:35:00.000,-0.475,-0.585
10:35:00.004,-0.49,-0.58
10:35:00.008,-0.525,-0.59
10:35:00.012,-0.555,-0.595
10:35:00.016,-0.57,-0.61
10:35:00.020,-0.6,-0.62
10:35:00.024,-0.63,-0.625
10:35:00.028,-0.635,-0.625
10:35:00.032,-0.625,-0.61
10:35:00.036,-0.62,-0.625
10:35:00.040,-0.625,-0.655
10:35:00.044,-0.64,-0.67
10:35:00.048,-0.685,-0.655
10:35:00.052,-0.69,-0.665
10:35:00.056,-0.715,-0.695
10:35:00.060,-0.76,-0.71
10:35:00.064,-0.77,-0.735
10:35:00.068,-0.775,-0.73
10:35:00.072,-0.79,-0.705
10:35:00.076,-0.75,-0.72
10:35:00.080,-0.755,-0.735
10:35:00.084,-0.715,-0.735
10:35:00.088,-0.705,-0.74
10:35:00.092,-0.665,-0.75
10:35:00.096,-0.65,-0.76
10:35:00.100,-0.635,-0.75
10:35:00.104,-0.62,-0.745
10:35:00.108,-0.57,-0.715
10:35:00.112,-0.52,-0.69
10:35:00.116,-0.455,-0.675
10:35:00.120,-0.4,-0.63
10:35:00.124,-0.305,-0.61
10:35:00.128,-0.28,-0.61
10:35:00.132,-0.235,-0.58
10:35:00.136,-0.2,-0.575
10:35:00.140,-0.16,-0.59
10:35:00.144,-0.13,-0.575
10:35:00.148,-0.13,-0.525
10:35:00.152,-0.12,-0.49
10:35:00.156,-0.09,-0.475
10:35:00.160,-0.105,-0.4
10:35:00.164,-0.095,-0.38
10:35:00.168,-0.065,-0.375
10:35:00.172,-0.06,-0.4
10:35:00.176,-0.07,-0.4
10:35:00.180,-0.075,-0.42
10:35:00.184,-0.07,-0.405
10:35:00.188,-0.05,-0.42
10:35:00.192,-0.04,-0.44
10:35:00.196,-0.065,-0.455
10:35:00.200,-0.05,-0.455
10:35:00.204,-0.04,-0.47
10:35:00.208,-0.04,-0.445
10:35:00.212,-0.02,-0.46
10:35:00.216,0.015,-0.47
10:35:00.220,-0.005,-0.465
10:35:00.224,-0.005,-0.45
10:35:00.228,-0.005,-0.47
10:35:00.232,-0.005,-0.46
10:35:00.236,0,-0.46
10:35:00.240,-0.02,-0.47
10:35:00.244,-0.01,-0.48
10:35:00.248,0,-0.485
10:35:00.252,-0.03,-0.49
10:35:00.256,-0.005,-0.505
10:35:00.260,-0.01,-0.495
10:35:00.264,0.025,-0.505
10:35:00.268,0.025,-0.51
10:35:00.272,0.02,-0.47
10:35:00.276,0.015,-0.48
10:35:00.280,-0.015,-0.49
10:35:00.284,-0.03,-0.48
10:35:00.288,-0.04,-0.46
10:35:00.292,-0.085,-0.455
10:35:00.296,-0.085,-0.395
10:35:00.300,-0.035,-0.365
10:35:00.304,0.15,-0.395
10:35:00.308,0.35,-0.455
10:35:00.312,0.54,-0.545
10:35:00.316,0.76,-0.655
10:35:00.320,0.665,-0.695
10:35:00.324,0,-0.66
10:35:00.328,-0.795,-0.625
10:35:00.332,-1.295,-0.585
10:35:00.336,-1.475,-0.53
10:35:00.340,-1.52,-0.42
10:35:00.344,-1.495,-0.34
10:35:00.348,-1.445,-0.325
10:35:00.352,-1.365,-0.32
10:35:00.356,-1.305,-0.305
10:35:00.360,-1.16,-0.29
10:35:00.364,-1.03,-0.355
10:35:00.368,-0.895,-0.495
10:35:00.372,-0.615,-0.64
10:35:00.376,-0.32,-0.74
10:35:00.380,-0.135,-0.745
10:35:00.384,-0.04,-0.72
10:35:00.388,-0.04,-0.725
10:35:00.392,-0.06,-0.69
10:35:00.396,-0.035,-0.635
10:35:00.400,0,-0.63
10:35:00.404,0,-0.635
10:35:00.408,0,-0.66
10:35:00.412,-0.01,-0.65
10:35:00.416,-0.015,-0.64
10:35:00.420,-0.025,-0.64
10:35:00.424,-0.015,-0.665
10:35:00.428,-0.035,-0.68
10:35:00.432,-0.02,-0.65
10:35:00.436,-0.03,-0.67
10:35:00.440,-0.03,-0.675
10:35:00.444,-0.04,-0.695
10:35:00.448,0,-0.69
10:35:00.452,-0.01,-0.69
10:35:00.456,-0.035,-0.685
10:35:00.460,-0.02,-0.685
10:35:00.464,-0.04,-0.69
10:35:00.468,-0.08,-0.705
10:35:00.472,-0.08,-0.715
10:35:00.476,-0.11,-0.73
10:35:00.480,-0.13,-0.74
10:35:00.484,-0.125,-0.745
10:35:00.488,-0.145,-0.76
10:35:00.492,-0.125,-0.77
10:35:00.496,-0.125,-0.765
10:35:00.500,-0.14,-0.795
10:35:00.504,-0.14,-0.8
10:35:00.508,-0.175,-0.83
10:35:00.512,-0.185,-0.815
10:35:00.516,-0.205,-0.855
10:35:00.520,-0.245,-0.875
10:35:00.524,-0.235,-0.9
10:35:00.528,-0.25,-0.9
10:35:00.532,-0.26,-0.92
10:35:00.536,-0.255,-0.94
10:35:00.540,-0.25,-0.96
10:35:00.544,-0.255,-0.965
10:35:00.548,-0.245,-0.975
10:35:00.552,-0.235,-1
10:35:00.556,-0.235,-1.015
10:35:00.560,-0.225,-1.025
10:35:00.564,-0.23,-1.01
10:35:00.568,-0.195,-1.05
10:35:00.572,-0.185,-1.05
10:35:00.576,-0.12,-1.05
10:35:00.580,-0.085,-1.06
10:35:00.584,-0.035,-1.05
10:35:00.588,0.01,-1.08
10:35:00.592,0.06,-1.055
10:35:00.596,0.095,-1.055
10:35:00.600,0.145,-1.035
10:35:00.604,0.17,-1
10:35:00.608,0.18,-0.995
10:35:00.612,0.19,-0.97
10:35:00.616,0.21,-0.94
10:35:00.620,0.195,-0.895
10:35:00.624,0.22,-0.87
10:35:00.628,0.22,-0.82
10:35:00.632,0.23,-0.765
10:35:00.636,0.23,-0.71
10:35:00.640,0.225,-0.66
10:35:00.644,0.2,-0.595
10:35:00.648,0.175,-0.56
10:35:00.652,0.155,-0.55
10:35:00.656,0.14,-0.52
10:35:00.660,0.125,-0.495
10:35:00.664,0.115,-0.46
10:35:00.668,0.1,-0.43
10:35:00.672,0.085,-0.425
10:35:00.676,0.085,-0.385
10:35:00.680,0.095,-0.375
10:35:00.684,0.085,-0.365
10:35:00.688,0.075,-0.36
10:35:00.692,0.07,-0.365
10:35:00.696,0.07,-0.335
10:35:00.700,0.055,-0.345
10:35:00.704,0.04,-0.345
10:35:00.708,0.03,-0.385
10:35:00.712,0.025,-0.38
10:35:00.716,0.02,-0.37
10:35:00.720,0.02,-0.34
10:35:00.724,0.045,-0.36
10:35:00.728,0.05,-0.36
10:35:00.732,0.04,-0.365
10:35:00.736,0.04,-0.375
10:35:00.740,0.04,-0.35
10:35:00.744,0.025,-0.345
10:35:00.748,0.04,-0.355
10:35:00.752,0.025,-0.375
10:35:00.756,0.025,-0.365
10:35:00.760,0.015,-0.38
10:35:00.764,0.025,-0.37
10:35:00.768,0.01,-0.39
10:35:00.772,0.05,-0.41
10:35:00.776,0.06,-0.39
10:35:00.780,0.045,-0.385
10:35:00.784,0.045,-0.405
10:35:00.788,0.015,-0.385
10:35:00.792,0.02,-0.4
10:35:00.796,0,-0.38
10:35:00.800,0,-0.385
10:35:00.804,0.015,-0.385
10:35:00.808,0.01,-0.38
10:35:00.812,0,-0.38
10:35:00.816,0.02,-0.4
10:35:00.820,0.035,-0.4
10:35:00.824,0.04,-0.41
10:35:00.828,0.05,-0.375
10:35:00.832,0.03,-0.39
10:35:00.836,0.01,-0.385
10:35:00.840,0.01,-0.345
10:35:00.844,0.01,-0.395
10:35:00.848,0.005,-0.375
10:35:00.852,0.01,-0.38
10:35:00.856,0,-0.395
10:35:00.860,0.03,-0.375
10:35:00.864,0.03,-0.365
10:35:00.868,0.03,-0.355
10:35:00.872,0.045,-0.37
10:35:00.876,0.05,-0.365
10:35:00.880,0.055,-0.335
10:35:00.884,0.015,-0.34
10:35:00.888,0,-0.345
10:35:00.892,0.015,-0.355
10:35:00.896,0.01,-0.355
10:35:00.900,0.025,-0.32
10:35:00.904,0.03,-0.33
10:35:00.908,0.04,-0.32
10:35:00.912,0.055,-0.335
10:35:00.916,0.105,-0.335
10:35:00.920,0.15,-0.355
10:35:00.924,0.205,-0.355
10:35:00.928,0.255,-0.34
10:35:00.932,0.31,-0.3
10:35:00.936,0.335,-0.235
10:35:00.940,0.355,-0.2
10:35:00.944,0.355,-0.18
10:35:00.948,0.35,-0.145
10:35:00.952,0.345,-0.195
10:35:00.956,0.325,-0.2
10:35:00.960,0.32,-0.235
10:35:00.964,0.295,-0.25
10:35:00.968,0.23,-0.26
10:35:00.972,0.17,-0.27
10:35:00.976,0.105,-0.27
10:35:00.980,0.045,-0.275
10:35:00.984,0.015,-0.265
10:35:00.988,0,-0.28
10:35:00.992,0.005,-0.31
10:35:00.996,0.01,-0.365
10:35:01.000,0.03,-0.36
10:35:01.004,0.045,-0.365
10:35:01.008,0.035,-0.39
10:35:01.012,0.06,-0.39
10:35:01.016,0.1,-0.375
10:35:01.020,0.155,-0.325
10:35:01.024,0.255,-0.26
10:35:01.028,0.495,-0.235
10:35:01.032,0.75,-0.275
10:35:01.036,0.95,-0.285
10:35:01.040,1.065,-0.36
10:35:01.044,1.135,-0.62
10:35:01.048,1,-1.02
10:35:01.052,0.33,-1.405
10:35:01.056,-0.59,-1.755
10:35:01.060,-1.21,-2
10:35:01.064,-1.445,-2.26
10:35:01.068,-1.415,-2.56
10:35:01.072,-1.175,-2.68
10:35:01.076,-0.865,-2.585
10:35:01.080,-0.61,-2.355
10:35:01.084,-0.385,-1.985
10:35:01.088,-0.245,-1.565
10:35:01.092,-0.175,-1.235
10:35:01.096,-0.11,-0.91
10:35:01.100,-0.08,-0.685
10:35:01.104,-0.07,-0.54
10:35:01.108,-0.075,-0.47
10:35:01.112,-0.055,-0.45
10:35:01.116,-0.075,-0.415
10:35:01.120,-0.07,-0.405
10:35:01.124,-0.085,-0.37
10:35:01.128,-0.1,-0.35
10:35:01.132,-0.095,-0.37
10:35:01.136,-0.115,-0.36
10:35:01.140,-0.1,-0.38
10:35:01.144,-0.105,-0.35
10:35:01.148,-0.09,-0.37
10:35:01.152,-0.07,-0.345
10:35:01.156,-0.075,-0.355
10:35:01.160,-0.1,-0.345
10:35:01.164,-0.12,-0.365
10:35:01.168,-0.12,-0.37
10:35:01.172,-0.105,-0.37
10:35:01.176,-0.12,-0.345
10:35:01.180,-0.145,-0.36
10:35:01.184,-0.14,-0.36
10:35:01.188,-0.155,-0.37
10:35:01.192,-0.17,-0.36
10:35:01.196,-0.15,-0.35
10:35:01.200,-0.16,-0.35
10:35:01.204,-0.165,-0.365
10:35:01.208,-0.19,-0.365
10:35:01.212,-0.19,-0.37
10:35:01.216,-0.22,-0.395
10:35:01.220,-0.24,-0.385
10:35:01.224,-0.27,-0.405
10:35:01.228,-0.315,-0.38
10:35:01.232,-0.33,-0.385
10:35:01.236,-0.33,-0.42
10:35:01.240,-0.33,-0.43
10:35:01.244,-0.35,-0.425
10:35:01.248,-0.345,-0.42
10:35:01.252,-0.385,-0.43
10:35:01.256,-0.41,-0.47
10:35:01.260,-0.47,-0.48
10:35:01.264,-0.475,-0.49
10:35:01.268,-0.46,-0.525
10:35:01.272,-0.505,-0.49
10:35:01.276,-0.52,-0.5
10:35:01.280,-0.51,-0.495
10:35:01.284,-0.515,-0.49
10:35:01.288,-0.535,-0.505
10:35:01.292,-0.535,-0.54
10:35:01.296,-0.55,-0.505
10:35:01.300,-0.565,-0.505
10:35:01.304,-0.59,-0.54
10:35:01.308,-0.595,-0.52
10:35:01.312,-0.585,-0.495
10:35:01.316,-0.56,-0.505
10:35:01.320,-0.52,-0.515
10:35:01.324,-0.505,-0.495
10:35:01.328,-0.445,-0.515
10:35:01.332,-0.39,-0.495
10:35:01.336,-0.345,-0.475
10:35:01.340,-0.315,-0.49
10:35:01.344,-0.28,-0.475
10:35:01.348,-0.235,-0.455
10:35:01.352,-0.19,-0.45
10:35:01.356,-0.135,-0.43
10:35:01.360,-0.07,-0.42
10:35:01.364,-0.03,-0.395
10:35:01.368,0.005,-0.4
10:35:01.372,0.04,-0.4
10:35:01.376,0.065,-0.345
10:35:01.380,0.08,-0.365
10:35:01.384,0.1,-0.31
10:35:01.388,0.14,-0.29
10:35:01.392,0.17,-0.265
10:35:01.396,0.16,-0.25
10:35:01.400,0.15,-0.28
10:35:01.404,0.16,-0.295
10:35:01.408,0.175,-0.245
10:35:01.412,0.205,-0.22
10:35:01.416,0.215,-0.24
10:35:01.420,0.23,-0.27
10:35:01.424,0.21,-0.245
10:35:01.428,0.245,-0.26
10:35:01.432,0.235,-0.205
10:35:01.436,0.215,-0.205
10:35:01.440,0.185,-0.265
10:35:01.444,0.2,-0.27
10:35:01.448,0.225,-0.24
10:35:01.452,0.205,-0.25
10:35:01.456,0.245,-0.225
10:35:01.460,0.265,-0.24
10:35:01.464,0.265,-0.265
10:35:01.468,0.255,-0.265
10:35:01.472,0.255,-0.27
10:35:01.476,0.24,-0.26
10:35:01.480,0.255,-0.275
10:35:01.484,0.235,-0.28
10:35:01.488,0.2,-0.28
10:35:01.492,0.17,-0.315
10:35:01.496,0.18,-0.27
10:35:01.500,0.195,-0.27
10:35:01.504,0.2,-0.275
10:35:01.508,0.215,-0.3
10:35:01.512,0.225,-0.315
10:35:01.516,0.23,-0.32
10:35:01.520,0.23,-0.32
10:35:01.524,0.225,-0.27
10:35:01.528,0.22,-0.295
10:35:01.532,0.2,-0.29
10:35:01.536,0.205,-0.295
10:35:01.540,0.215,-0.3
10:35:01.544,0.245,-0.32
10:35:01.548,0.235,-0.315
10:35:01.552,0.225,-0.3
10:35:01.556,0.225,-0.305
10:35:01.560,0.23,-0.305
10:35:01.564,0.235,-0.315
10:35:01.568,0.225,-0.295
10:35:01.572,0.215,-0.31
10:35:01.576,0.175,-0.295
10:35:01.580,0.15,-0.27
10:35:01.584,0.165,-0.28
10:35:01.588,0.165,-0.32
10:35:01.592,0.18,-0.29
10:35:01.596,0.165,-0.29
10:35:01.600,0.15,-0.29
10:35:01.604,0.145,-0.28
10:35:01.608,0.18,-0.29
10:35:01.612,0.19,-0.28
10:35:01.616,0.17,-0.285
10:35:01.620,0.18,-0.3
10:35:01.624,0.155,-0.29
10:35:01.628,0.125,-0.295
10:35:01.632,0.115,-0.285
10:35:01.636,0.11,-0.28
10:35:01.640,0.135,-0.27
10:35:01.644,0.15,-0.265
10:35:01.648,0.165,-0.275
10:35:01.652,0.16,-0.275
10:35:01.656,0.17,-0.275
10:35:01.660,0.155,-0.285
10:35:01.664,0.16,-0.27
10:35:01.668,0.15,-0.25
10:35:01.672,0.145,-0.27
10:35:01.676,0.14,-0.26
10:35:01.680,0.11,-0.26
10:35:01.684,0.11,-0.26
10:35:01.688,0.13,-0.265
10:35:01.692,0.16,-0.23
10:35:01.696,0.19,-0.235
10:35:01.700,0.2,-0.24
10:35:01.704,0.19,-0.22
10:35:01.708,0.2,-0.255
10:35:01.712,0.2,-0.2
10:35:01.716,0.155,-0.19
10:35:01.720,0.125,-0.195
10:35:01.724,0.13,-0.22
10:35:01.728,0.17,-0.21
10:35:01.732,0.155,-0.215
10:35:01.736,0.135,-0.215
10:35:01.740,0.15,-0.2
10:35:01.744,0.17,-0.205
10:35:01.748,0.185,-0.18
10:35:01.752,0.19,-0.165
10:35:01.756,0.18,-0.165
10:35:01.760,0.18,-0.17
10:35:01.764,0.11,-0.16
10:35:01.768,0.135,-0.15
10:35:01.772,0.16,-0.15
10:35:01.776,0.145,-0.16
10:35:01.780,0.13,-0.165
10:35:01.784,0.125,-0.17
10:35:01.788,0.145,-0.125
10:35:01.792,0.155,-0.12
10:35:01.796,0.165,-0.125
10:35:01.800,0.17,-0.125
10:35:01.804,0.145,-0.15
10:35:01.808,0.14,-0.12
10:35:01.812,0.15,-0.125
10:35:01.816,0.16,-0.14
10:35:01.820,0.17,-0.12
10:35:01.824,0.185,-0.11
10:35:01.828,0.195,-0.085
10:35:01.832,0.215,-0.09
10:35:01.836,0.235,-0.085
10:35:01.840,0.27,-0.065
10:35:01.844,0.31,-0.035
10:35:01.848,0.29,-0.02
10:35:01.852,0.315,0.02
10:35:01.856,0.35,0.035
10:35:01.860,0.395,0.035
10:35:01.864,0.48,0.065
10:35:01.868,0.51,0.09
10:35:01.872,0.56,0.125
10:35:01.876,0.525,0.135
10:35:01.880,0.465,0.11
10:35:01.884,0.405,0.07
10:35:01.888,0.355,0.06
10:35:01.892,0.31,0.04
10:35:01.896,0.255,0.015
10:35:01.900,0.215,0.01
10:35:01.904,0.15,0.01
10:35:01.908,0.1,0.025
10:35:01.912,0.095,0.015
10:35:01.916,0.11,0.01
10:35:01.920,0.135,0.03
10:35:01.924,0.14,0.005
10:35:01.928,0.155,0.03
10:35:01.932,0.175,0
10:35:01.936,0.195,0
10:35:01.940,0.17,0.025
10:35:01.944,0.19,0.05
10:35:01.948,0.27,0.04
10:35:01.952,0.355,0.105
10:35:01.956,0.53,0.185
10:35:01.960,0.805,0.24
10:35:01.964,1.145,0.24
10:35:01.968,1.38,0.235
10:35:01.972,1.525,0.145
10:35:01.976,1.58,-0.005
10:35:01.980,1.24,-0.245
10:35:01.984,0.39,-0.485
10:35:01.988,-0.495,-0.765
10:35:01.992,-1.025,-1.045
10:35:01.996,-1.185,-1.3
10:35:02.000,-1.12,-1.53
10:35:02.004,-1,-1.635
10:35:02.008,-0.74,-1.545
10:35:02.012,-0.44,-1.315
10:35:02.016,-0.235,-1.055
10:35:02.020,-0.16,-0.82
10:35:02.024,-0.11,-0.585
10:35:02.028,-0.02,-0.32
10:35:02.032,0,-0.1
10:35:02.036,-0.025,0.02
10:35:02.040,-0.02,0.06
10:35:02.044,-0.005,0.12
10:35:02.048,-0.005,0.175
10:35:02.052,-0.01,0.145
10:35:02.056,-0.025,0.175
10:35:02.060,0,0.18
10:35:02.064,-0.02,0.155
10:35:02.068,-0.005,0.19
10:35:02.072,-0.035,0.22
10:35:02.076,-0.04,0.245
10:35:02.080,-0.08,0.22
10:35:02.084,-0.085,0.24
10:35:02.088,-0.075,0.235
10:35:02.092,-0.07,0.24
10:35:02.096,-0.08,0.255
10:35:02.100,-0.075,0.25
10:35:02.104,-0.08,0.285
10:35:02.108,-0.11,0.28
10:35:02.112,-0.14,0.26
10:35:02.116,-0.08,0.265
10:35:02.120,-0.1,0.265
10:35:02.124,-0.15,0.25
10:35:02.128,-0.19,0.265
10:35:02.132,-0.205,0.255
10:35:02.136,-0.245,0.275
10:35:02.140,-0.255,0.29
10:35:02.144,-0.28,0.285
10:35:02.148,-0.29,0.33
10:35:02.152,-0.285,0.295
10:35:02.156,-0.32,0.25
10:35:02.160,-0.37,0.275
10:35:02.164,-0.425,0.27
10:35:02.168,-0.47,0.27
10:35:02.172,-0.465,0.27
10:35:02.176,-0.455,0.285
10:35:02.180,-0.525,0.295
10:35:02.184,-0.565,0.285
10:35:02.188,-0.57,0.26
10:35:02.192,-0.56,0.235
10:35:02.196,-0.56,0.26
10:35:02.200,-0.58,0.27
10:35:02.204,-0.615,0.24
10:35:02.208,-0.61,0.23
10:35:02.212,-0.635,0.24
10:35:02.216,-0.69,0.23
10:35:02.220,-0.72,0.22
10:35:02.224,-0.76,0.2
10:35:02.228,-0.74,0.175
10:35:02.232,-0.715,0.225
10:35:02.236,-0.72,0.225
10:35:02.240,-0.68,0.205
10:35:02.244,-0.66,0.23
10:35:02.248,-0.64,0.27
10:35:02.252,-0.67,0.28
10:35:02.256,-0.64,0.28
10:35:02.260,-0.615,0.28
10:35:02.264,-0.57,0.245
10:35:02.268,-0.565,0.27
10:35:02.272,-0.58,0.31
10:35:02.276,-0.51,0.285
10:35:02.280,-0.455,0.28
10:35:02.284,-0.4,0.33
10:35:02.288,-0.36,0.335
10:35:02.292,-0.31,0.365
10:35:02.296,-0.26,0.385
10:35:02.300,-0.245,0.405
10:35:02.304,-0.23,0.435
10:35:02.308,-0.19,0.465
10:35:02.312,-0.15,0.5
10:35:02.316,-0.13,0.52
10:35:02.320,-0.12,0.545
10:35:02.324,-0.125,0.57
10:35:02.328,-0.07,0.59
10:35:02.332,-0.07,0.635
10:35:02.336,-0.095,0.635
10:35:02.340,-0.075,0.635
10:35:02.344,-0.015,0.67
10:35:02.348,-0.015,0.71
10:35:02.352,-0.025,0.71
10:35:02.356,-0.02,0.71
10:35:02.360,-0.005,0.71
10:35:02.364,-0.005,0.705
10:35:02.368,-0.01,0.69
10:35:02.372,0.01,0.66
10:35:02.376,0.02,0.655
10:35:02.380,0.055,0.72
10:35:02.384,0.08,0.73
10:35:02.388,0.1,0.71
10:35:02.392,0.075,0.71
10:35:02.396,0.02,0.72
10:35:02.400,0.035,0.695
10:35:02.404,0.015,0.715
10:35:02.408,0.015,0.705
10:35:02.412,-0.005,0.695
10:35:02.416,-0.03,0.695
10:35:02.420,0.005,0.74
10:35:02.424,0.015,0.75
10:35:02.428,0.025,0.74
10:35:02.432,0.01,0.725
10:35:02.436,0.005,0.715
10:35:02.440,-0.01,0.72
10:35:02.444,0.005,0.7
10:35:02.448,0.015,0.725
10:35:02.452,-0.005,0.7
10:35:02.456,-0.035,0.7
10:35:02.460,-0.065,0.685
10:35:02.464,-0.025,0.715
10:35:02.468,0,0.745
10:35:02.472,0.005,0.755
10:35:02.476,0.01,0.705
10:35:02.480,-0.015,0.715
10:35:02.484,-0.065,0.72
10:35:02.488,-0.07,0.75
10:35:02.492,-0.065,0.685
10:35:02.496,-0.05,0.705
10:35:02.500,-0.095,0.725
10:35:02.504,-0.095,0.735
10:35:02.508,-0.08,0.735
10:35:02.512,-0.035,0.715
10:35:02.516,-0.02,0.735
10:35:02.520,-0.06,0.735
10:35:02.524,-0.065,0.74
10:35:02.528,-0.08,0.745
10:35:02.532,-0.075,0.75
10:35:02.536,-0.07,0.74
10:35:02.540,-0.1,0.75
10:35:02.544,-0.09,0.775
10:35:02.548,-0.1,0.745
10:35:02.552,-0.09,0.75
10:35:02.556,-0.105,0.76
10:35:02.560,-0.085,0.76
10:35:02.564,-0.09,0.75
10:35:02.568,-0.085,0.79
10:35:02.572,-0.095,0.75
10:35:02.576,-0.105,0.755
10:35:02.580,-0.13,0.78
10:35:02.584,-0.16,0.78
10:35:02.588,-0.15,0.78
10:35:02.592,-0.15,0.775
10:35:02.596,-0.105,0.79
10:35:02.600,-0.095,0.79
10:35:02.604,-0.14,0.79
10:35:02.608,-0.17,0.785
10:35:02.612,-0.15,0.775
10:35:02.616,-0.13,0.795
10:35:02.620,-0.105,0.81
10:35:02.624,-0.125,0.835
10:35:02.628,-0.15,0.815
10:35:02.632,-0.14,0.815
10:35:02.636,-0.205,0.79
10:35:02.640,-0.225,0.825
10:35:02.644,-0.185,0.825
10:35:02.648,-0.135,0.79
10:35:02.652,-0.11,0.805
10:35:02.656,-0.145,0.81
10:35:02.660,-0.135,0.805
10:35:02.664,-0.11,0.815
10:35:02.668,-0.08,0.845
10:35:02.672,-0.08,0.83
10:35:02.676,-0.06,0.85
10:35:02.680,-0.05,0.885
10:35:02.684,-0.03,0.93
10:35:02.688,-0.02,0.95
10:35:02.692,0,0.945
10:35:02.696,0.025,0.935
10:35:02.700,0.025,0.9
10:35:02.704,0.015,0.915
10:35:02.708,0.035,0.935
10:35:02.712,0.045,0.915
10:35:02.716,0.015,0.91
10:35:02.720,-0.035,0.855
10:35:02.724,-0.085,0.815
10:35:02.728,-0.07,0.785
10:35:02.732,-0.08,0.845
10:35:02.736,-0.14,0.825
10:35:02.740,-0.17,0.82
10:35:02.744,-0.16,0.83
10:35:02.748,-0.16,0.82
10:35:02.752,-0.19,0.835
10:35:02.756,-0.2,0.81
10:35:02.760,-0.24,0.84
10:35:02.764,-0.22,0.86
10:35:02.768,-0.245,0.83
10:35:02.772,-0.225,0.815
10:35:02.776,-0.225,0.845
10:35:02.780,-0.15,0.84
10:35:02.784,-0.06,0.865
10:35:02.788,0.065,0.94
10:35:02.792,0.315,0.98
10:35:02.796,0.65,0.995
10:35:02.800,0.98,0.98
10:35:02.804,1.13,0.97
10:35:02.808,1.185,0.835
10:35:02.812,0.975,0.57
10:35:02.816,0.275,0.315
10:35:02.820,-0.64,0.035
10:35:02.824,-1.28,-0.255
10:35:02.828,-1.535,-0.53
10:35:02.832,-1.52,-0.785
10:35:02.836,-1.455,-0.97
10:35:02.840,-1.3,-0.985
10:35:02.844,-1.01,-0.835
10:35:02.848,-0.79,-0.51
10:35:02.852,-0.615,-0.255
10:35:02.856,-0.495,-0.015
10:35:02.860,-0.43,0.23
10:35:02.864,-0.4,0.485
10:35:02.868,-0.365,0.64
10:35:02.872,-0.36,0.745
10:35:02.876,-0.38,0.78
10:35:02.880,-0.41,0.79
10:35:02.884,-0.415,0.83
10:35:02.888,-0.435,0.86
10:35:02.892,-0.42,0.895
10:35:02.896,-0.4,0.91
10:35:02.900,-0.39,0.91
10:35:02.904,-0.395,0.91
10:35:02.908,-0.4,0.905
10:35:02.912,-0.4,0.895
10:35:02.916,-0.37,0.91
10:35:02.920,-0.375,0.92
10:35:02.924,-0.38,0.89
10:35:02.928,-0.37,0.91
10:35:02.932,-0.455,0.89
10:35:02.936,-0.48,0.875
10:35:02.940,-0.49,0.905
10:35:02.944,-0.5,0.92
10:35:02.948,-0.51,0.93
10:35:02.952,-0.53,0.905
10:35:02.956,-0.52,0.89
10:35:02.960,-0.52,0.87
10:35:02.964,-0.5,0.87
10:35:02.968,-0.52,0.9
10:35:02.972,-0.54,0.89
10:35:02.976,-0.555,0.895
10:35:02.980,-0.63,0.875
10:35:02.984,-0.66,0.855
10:35:02.988,-0.7,0.86
10:35:02.992,-0.75,0.87
10:35:02.996,-0.74,0.875
10:35:03.000,-0.72,0.885
10:35:03.004,-0.745,0.86
10:35:03.008,-0.815,0.84
10:35:03.012,-0.84,0.83
10:35:03.016,-0.83,0.84
10:35:03.020,-0.84,0.85
10:35:03.024,-0.865,0.815
10:35:03.028,-0.95,0.805
10:35:03.032,-1.025,0.78
10:35:03.036,-1.05,0.75
10:35:03.040,-1.055,0.755
10:35:03.044,-1.045,0.75
10:35:03.048,-1.07,0.735
10:35:03.052,-1.12,0.715
10:35:03.056,-1.12,0.72
10:35:03.060,-1.06,0.715
10:35:03.064,-1.085,0.68
10:35:03.068,-1.11,0.67
10:35:03.072,-1.105,0.67
10:35:03.076,-1.12,0.7
10:35:03.080,-1.11,0.68
10:35:03.084,-1.07,0.69
10:35:03.088,-1.05,0.665
10:35:03.092,-1,0.655
10:35:03.096,-0.99,0.655
10:35:03.100,-0.92,0.63
10:35:03.104,-0.85,0.655
10:35:03.108,-0.82,0.64
10:35:03.112,-0.765,0.66
10:35:03.116,-0.76,0.685
10:35:03.120,-0.73,0.715
10:35:03.124,-0.7,0.715
10:35:03.128,-0.67,0.725
10:35:03.132,-0.63,0.74
10:35:03.136,-0.595,0.78
10:35:03.140,-0.54,0.815
10:35:03.144,-0.53,0.85
10:35:03.148,-0.47,0.83
10:35:03.152,-0.445,0.83
10:35:03.156,-0.44,0.855
10:35:03.160,-0.44,0.875
10:35:03.164,-0.42,0.885
10:35:03.168,-0.4,0.9
10:35:03.172,-0.395,0.9
10:35:03.176,-0.375,0.9
10:35:03.180,-0.365,0.9
10:35:03.184,-0.36,0.9
10:35:03.188,-0.355,0.93
10:35:03.192,-0.34,0.91
10:35:03.196,-0.365,0.91
10:35:03.200,-0.335,0.91
10:35:03.204,-0.305,0.92
10:35:03.208,-0.33,0.91
10:35:03.212,-0.34,0.915
10:35:03.216,-0.35,0.92
10:35:03.220,-0.385,0.94
10:35:03.224,-0.385,0.92
10:35:03.228,-0.36,0.915
10:35:03.232,-0.355,0.91
10:35:03.236,-0.345,0.905
10:35:03.240,-0.345,0.89
10:35:03.244,-0.35,0.895
10:35:03.248,-0.33,0.915
10:35:03.252,-0.325,0.885
10:35:03.256,-0.34,0.91
10:35:03.260,-0.36,0.88
10:35:03.264,-0.39,0.89
10:35:03.268,-0.39,0.86
10:35:03.272,-0.395,0.875
10:35:03.276,-0.38,0.865
10:35:03.280,-0.39,0.84
10:35:03.284,-0.365,0.81
10:35:03.288,-0.39,0.855
10:35:03.292,-0.385,0.88
10:35:03.296,-0.4,0.87
10:35:03.300,-0.375,0.9
10:35:03.304,-0.42,0.88
10:35:03.308,-0.425,0.87
10:35:03.312,-0.4,0.845
10:35:03.316,-0.41,0.86
10:35:03.320,-0.41,0.845
10:35:03.324,-0.41,0.835
10:35:03.328,-0.4,0.805
10:35:03.332,-0.365,0.805
10:35:03.336,-0.37,0.835
10:35:03.340,-0.395,0.825
10:35:03.344,-0.405,0.805
10:35:03.348,-0.425,0.8
10:35:03.352,-0.44,0.83
10:35:03.356,-0.435,0.85
10:35:03.360,-0.455,0.825
10:35:03.364,-0.455,0.815
10:35:03.368,-0.44,0.805
10:35:03.372,-0.43,0.79
10:35:03.376,-0.445,0.795
10:35:03.380,-0.45,0.815
10:35:03.384,-0.455,0.785
10:35:03.388,-0.45,0.795
10:35:03.392,-0.435,0.795
10:35:03.396,-0.47,0.78
10:35:03.400,-0.48,0.795
10:35:03.404,-0.49,0.795
10:35:03.408,-0.48,0.8
10:35:03.412,-0.475,0.775
10:35:03.416,-0.48,0.75
10:35:03.420,-0.465,0.76
10:35:03.424,-0.49,0.755
10:35:03.428,-0.475,0.765
10:35:03.432,-0.475,0.79
10:35:03.436,-0.485,0.78
10:35:03.440,-0.47,0.765
10:35:03.444,-0.485,0.78
10:35:03.448,-0.495,0.785
10:35:03.452,-0.505,0.77
10:35:03.456,-0.505,0.75
10:35:03.460,-0.51,0.73
10:35:03.464,-0.495,0.73
10:35:03.468,-0.49,0.72
10:35:03.472,-0.505,0.72
10:35:03.476,-0.51,0.755
10:35:03.480,-0.515,0.73
10:35:03.484,-0.53,0.725
10:35:03.488,-0.525,0.725
10:35:03.492,-0.54,0.76
10:35:03.496,-0.56,0.745
10:35:03.500,-0.54,0.745
10:35:03.504,-0.51,0.715
10:35:03.508,-0.505,0.71
10:35:03.512,-0.49,0.705
10:35:03.516,-0.47,0.685
10:35:03.520,-0.465,0.74
10:35:03.524,-0.42,0.775
10:35:03.528,-0.395,0.76
10:35:03.532,-0.39,0.76
10:35:03.536,-0.38,0.81
10:35:03.540,-0.36,0.86
10:35:03.544,-0.365,0.85
10:35:03.548,-0.365,0.825
10:35:03.552,-0.37,0.82
10:35:03.556,-0.37,0.82
10:35:03.560,-0.37,0.79
10:35:03.564,-0.39,0.76
10:35:03.568,-0.39,0.695
10:35:03.572,-0.415,0.67
10:35:03.576,-0.43,0.62
10:35:03.580,-0.49,0.62
10:35:03.584,-0.505,0.635
10:35:03.588,-0.51,0.62
10:35:03.592,-0.535,0.655
10:35:03.596,-0.56,0.68
10:35:03.600,-0.57,0.665
10:35:03.604,-0.59,0.65
10:35:03.608,-0.575,0.69
10:35:03.612,-0.59,0.67
10:35:03.616,-0.58,0.66
10:35:03.620,-0.59,0.63
10:35:03.624,-0.565,0.63
10:35:03.628,-0.515,0.645
10:35:03.632,-0.48,0.66
10:35:03.636,-0.43,0.69
10:35:03.640,-0.255,0.74
10:35:03.644,0.02,0.78
10:35:03.648,0.315,0.77
10:35:03.652,0.55,0.725
10:35:03.656,0.67,0.63
10:35:03.660,0.71,0.4
10:35:03.664,0.46,0.07
10:35:03.668,-0.21,-0.25
10:35:03.672,-1.08,-0.615
10:35:03.676,-1.635,-0.9
10:35:03.680,-1.865,-1.155
10:35:03.684,-1.845,-1.43
10:35:03.688,-1.73,-1.585
10:35:03.692,-1.545,-1.525
10:35:03.696,-1.245,-1.26
10:35:03.700,-1.02,-0.905
10:35:03.704,-0.87,-0.58
10:35:03.708,-0.78,-0.26
10:35:03.712,-0.76,0.015
10:35:03.716,-0.73,0.295
10:35:03.720,-0.725,0.42
10:35:03.724,-0.725,0.515
10:35:03.728,-0.725,0.555
10:35:03.732,-0.73,0.595
10:35:03.736,-0.705,0.605
10:35:03.740,-0.68,0.61
10:35:03.744,-0.67,0.6
10:35:03.748,-0.69,0.62
10:35:03.752,-0.715,0.63
10:35:03.756,-0.73,0.63
10:35:03.760,-0.74,0.615
10:35:03.764,-0.75,0.65
10:35:03.768,-0.755,0.665
10:35:03.772,-0.75,0.62
10:35:03.776,-0.77,0.63
10:35:03.780,-0.79,0.61
10:35:03.784,-0.785,0.625
10:35:03.788,-0.785,0.635
10:35:03.792,-0.8,0.665
10:35:03.796,-0.825,0.635
10:35:03.800,-0.82,0.635
10:35:03.804,-0.815,0.64
10:35:03.808,-0.855,0.665
10:35:03.812,-0.89,0.65
10:35:03.816,-0.895,0.625
10:35:03.820,-0.91,0.62
10:35:03.824,-0.925,0.6
10:35:03.828,-0.935,0.62
10:35:03.832,-0.93,0.62
10:35:03.836,-0.95,0.595
10:35:03.840,-0.96,0.59
10:35:03.844,-1.01,0.56
10:35:03.848,-1.025,0.57
10:35:03.852,-1.07,0.57
10:35:03.856,-1.09,0.58
10:35:03.860,-1.11,0.53
10:35:03.864,-1.145,0.53
10:35:03.868,-1.17,0.49
10:35:03.872,-1.2,0.475
10:35:03.876,-1.23,0.48
10:35:03.880,-1.22,0.46
10:35:03.884,-1.26,0.425
10:35:03.888,-1.285,0.395
10:35:03.892,-1.3,0.4
10:35:03.896,-1.35,0.4
10:35:03.900,-1.355,0.38
10:35:03.904,-1.385,0.38
10:35:03.908,-1.4,0.345
10:35:03.912,-1.39,0.34
10:35:03.916,-1.42,0.33
10:35:03.920,-1.43,0.32
10:35:03.924,-1.39,0.3
10:35:03.928,-1.36,0.28
10:35:03.932,-1.36,0.295
10:35:03.936,-1.345,0.28
10:35:03.940,-1.34,0.28
10:35:03.944,-1.31,0.27
10:35:03.948,-1.285,0.23
10:35:03.952,-1.23,0.235
10:35:03.956,-1.19,0.26
10:35:03.960,-1.13,0.23
10:35:03.964,-1.1,0.235
10:35:03.968,-1.025,0.265
10:35:03.972,-0.965,0.295
10:35:03.976,-0.92,0.29
10:35:03.980,-0.855,0.31
10:35:03.984,-0.82,0.32
10:35:03.988,-0.81,0.37
10:35:03.992,-0.765,0.41
10:35:03.996,-0.735,0.405
10:35:04.000,-0.7,0.42
10:35:04.004,-0.67,0.46
10:35:04.008,-0.63,0.465
10:35:04.012,-0.6,0.505
10:35:04.016,-0.58,0.49
10:35:04.020,-0.565,0.535
10:35:04.024,-0.57,0.515
10:35:04.028,-0.56,0.52
10:35:04.032,-0.555,0.51
10:35:04.036,-0.56,0.57
10:35:04.040,-0.57,0.575
10:35:04.044,-0.555,0.585
10:35:04.048,-0.53,0.585
10:35:04.052,-0.515,0.58
10:35:04.056,-0.44,0.605
10:35:04.060,-0.43,0.57
10:35:04.064,-0.425,0.595
10:35:04.068,-0.43,0.59
10:35:04.072,-0.42,0.59
10:35:04.076,-0.44,0.59
10:35:04.080,-0.445,0.585
10:35:04.084,-0.445,0.585
10:35:04.088,-0.45,0.57
10:35:04.092,-0.465,0.565
10:35:04.096,-0.45,0.555
10:35:04.100,-0.42,0.56
10:35:04.104,-0.4,0.57
10:35:04.108,-0.42,0.56
10:35:04.112,-0.445,0.55
10:35:04.116,-0.43,0.53
10:35:04.120,-0.44,0.53
10:35:04.124,-0.445,0.555
10:35:04.128,-0.43,0.55
10:35:04.132,-0.465,0.535
10:35:04.136,-0.465,0.55
10:35:04.140,-0.465,0.525
10:35:04.144,-0.465,0.52
10:35:04.148,-0.43,0.53
10:35:04.152,-0.41,0.515
10:35:04.156,-0.41,0.52
10:35:04.160,-0.42,0.52
10:35:04.164,-0.435,0.52
10:35:04.168,-0.46,0.52
10:35:04.172,-0.445,0.535
10:35:04.176,-0.445,0.52
10:35:04.180,-0.44,0.51
10:35:04.184,-0.425,0.515
10:35:04.188,-0.42,0.51
10:35:04.192,-0.42,0.535
10:35:04.196,-0.4,0.545
10:35:04.200,-0.41,0.53
10:35:04.204,-0.405,0.52
10:35:04.208,-0.4,0.51
10:35:04.212,-0.43,0.485
10:35:04.216,-0.43,0.455
10:35:04.220,-0.43,0.5
10:35:04.224,-0.43,0.51
10:35:04.228,-0.43,0.49
10:35:04.232,-0.42,0.465
10:35:04.236,-0.415,0.47
10:35:04.240,-0.41,0.505
10:35:04.244,-0.41,0.465
10:35:04.248,-0.405,0.455
10:35:04.252,-0.415,0.445
10:35:04.256,-0.43,0.435
10:35:04.260,-0.445,0.455
10:35:04.264,-0.445,0.46
10:35:04.268,-0.43,0.43
10:35:04.272,-0.445,0.44
10:35:04.276,-0.45,0.42
10:35:04.280,-0.425,0.445
10:35:04.284,-0.415,0.435
10:35:04.288,-0.415,0.44
10:35:04.292,-0.41,0.435
10:35:04.296,-0.41,0.43
10:35:04.300,-0.44,0.425
10:35:04.304,-0.44,0.43
10:35:04.308,-0.45,0.425
10:35:04.312,-0.46,0.43
10:35:04.316,-0.48,0.425
10:35:04.320,-0.46,0.425
10:35:04.324,-0.45,0.425
10:35:04.328,-0.435,0.405
10:35:04.332,-0.42,0.41
10:35:04.336,-0.41,0.415
10:35:04.340,-0.415,0.405
10:35:04.344,-0.44,0.375
10:35:04.348,-0.445,0.38
10:35:04.352,-0.445,0.395
10:35:04.356,-0.415,0.395
10:35:04.360,-0.37,0.375
10:35:04.364,-0.35,0.375
10:35:04.368,-0.315,0.375
10:35:04.372,-0.3,0.415
10:35:04.376,-0.28,0.475
10:35:04.380,-0.275,0.49
10:35:04.384,-0.265,0.495
10:35:04.388,-0.27,0.48
10:35:04.392,-0.31,0.475
10:35:04.396,-0.325,0.48
10:35:04.400,-0.315,0.445
10:35:04.404,-0.335,0.425
10:35:04.408,-0.32,0.37
10:35:04.412,-0.35,0.295
10:35:04.416,-0.345,0.255
10:35:04.420,-0.34,0.235
10:35:04.424,-0.36,0.24
10:35:04.428,-0.405,0.24
10:35:04.432,-0.435,0.245
10:35:04.436,-0.44,0.26
10:35:04.440,-0.46,0.27
10:35:04.444,-0.505,0.28
10:35:04.448,-0.51,0.295
10:35:04.452,-0.505,0.265
10:35:04.456,-0.495,0.275
10:35:04.460,-0.475,0.26
10:35:04.464,-0.465,0.265
10:35:04.468,-0.405,0.25
10:35:04.472,-0.345,0.26
10:35:04.476,-0.26,0.275
10:35:04.480,-0.07,0.33
10:35:04.484,0.17,0.355
10:35:04.488,0.445,0.33
10:35:04.492,0.595,0.31
10:35:04.496,0.7,0.13
10:35:04.500,0.65,-0.28
10:35:04.504,0.205,-0.75
10:35:04.508,-0.69,-1.16
10:35:04.512,-1.47,-1.53
10:35:04.516,-1.835,-1.84
10:35:04.520,-1.935,-2.245
10:35:04.524,-1.75,-2.53
10:35:04.528,-1.41,-2.43
10:35:04.532,-1.135,-2.085
10:35:04.536,-0.91,-1.68
10:35:04.540,-0.75,-1.23
10:35:04.544,-0.66,-0.795
10:35:04.548,-0.62,-0.445
10:35:04.552,-0.595,-0.165
10:35:04.556,-0.555,-0.015
10:35:04.560,-0.56,0.095
10:35:04.564,-0.565,0.13
10:35:04.568,-0.56,0.155
10:35:04.572,-0.59,0.155
10:35:04.576,-0.59,0.17
10:35:04.580,-0.61,0.165
10:35:04.584,-0.595,0.165
10:35:04.588,-0.605,0.185
10:35:04.592,-0.61,0.2
10:35:04.596,-0.615,0.185
10:35:04.600,-0.585,0.195
10:35:04.604,-0.57,0.205
10:35:04.608,-0.58,0.2
10:35:04.612,-0.61,0.19
10:35:04.616,-0.615,0.19
10:35:04.620,-0.635,0.19
10:35:04.624,-0.64,0.19
10:35:04.628,-0.66,0.2
10:35:04.632,-0.66,0.2
10:35:04.636,-0.665,0.205
10:35:04.640,-0.665,0.19
10:35:04.644,-0.66,0.205
10:35:04.648,-0.655,0.175
10:35:04.652,-0.665,0.155
10:35:04.656,-0.68,0.18
10:35:04.660,-0.7,0.165
10:35:04.664,-0.73,0.16
10:35:04.668,-0.74,0.155
10:35:04.672,-0.775,0.14
10:35:04.676,-0.795,0.125
10:35:04.680,-0.825,0.115
10:35:04.684,-0.835,0.1
10:35:04.688,-0.825,0.105
10:35:04.692,-0.825,0.095
10:35:04.696,-0.87,0.075
10:35:04.700,-0.91,0.09
10:35:04.704,-0.93,0.06
10:35:04.708,-0.96,0.035
10:35:04.712,-0.97,0.015
10:35:04.716,-1.03,0
10:35:04.720,-1.045,0
10:35:04.724,-1.045,-0.015
10:35:04.728,-1.075,-0.035
10:35:04.732,-1.09,-0.065
10:35:04.736,-1.125,-0.065
10:35:04.740,-1.125,-0.11
10:35:04.744,-1.13,-0.115
10:35:04.748,-1.145,-0.12
10:35:04.752,-1.15,-0.11
10:35:04.756,-1.165,-0.1
10:35:04.760,-1.155,-0.115
10:35:04.764,-1.12,-0.15
10:35:04.768,-1.115,-0.185
10:35:04.772,-1.095,-0.185
10:35:04.776,-1.06,-0.17
10:35:04.780,-1.03,-0.19
10:35:04.784,-0.965,-0.2
10:35:04.788,-0.89,-0.225
10:35:04.792,-0.835,-0.195
10:35:04.796,-0.775,-0.185
10:35:04.800,-0.755,-0.19
10:35:04.804,-0.72,-0.16
10:35:04.808,-0.685,-0.14
10:35:04.812,-0.615,-0.125
10:35:04.816,-0.555,-0.095
10:35:04.820,-0.515,-0.085
10:35:04.824,-0.46,-0.055
10:35:04.828,-0.415,-0.035
10:35:04.832,-0.385,-0.05
10:35:04.836,-0.33,-0.03
10:35:04.840,-0.31,0
10:35:04.844,-0.33,0.015
10:35:04.848,-0.32,0.055
10:35:04.852,-0.305,0.06
10:35:04.856,-0.315,0.07
10:35:04.860,-0.295,0.065
10:35:04.864,-0.275,0.04
10:35:04.868,-0.265,0.04
10:35:04.872,-0.26,0.07
10:35:04.876,-0.24,0.075
10:35:04.880,-0.24,0.075
10:35:04.884,-0.24,0.08
10:35:04.888,-0.25,0.09
10:35:04.892,-0.255,0.095
10:35:04.896,-0.265,0.065
10:35:04.900,-0.255,0.075
10:35:04.904,-0.24,0.075
10:35:04.908,-0.195,0.05
10:35:04.912,-0.22,0.055
10:35:04.916,-0.22,0.085
10:35:04.920,-0.2,0.04
10:35:04.924,-0.18,0.045
10:35:04.928,-0.16,0.055
10:35:04.932,-0.16,0.065
10:35:04.936,-0.165,0.09
10:35:04.940,-0.19,0.055
10:35:04.944,-0.235,0.045
10:35:04.948,-0.23,0.075
10:35:04.952,-0.21,0.075
10:35:04.956,-0.225,0.055
10:35:04.960,-0.215,0.035
10:35:04.964,-0.21,0.045
10:35:04.968,-0.18,0.055
10:35:04.972,-0.19,0.06
10:35:04.976,-0.185,0.04
10:35:04.980,-0.16,0.02
10:35:04.984,-0.165,0.02
10:35:04.988,-0.21,0.045
10:35:04.992,-0.2,0.005
10:35:04.996,-0.2,-0.01
10:35:05.000,-0.17,0.01
10:35:05.004,-0.165,0.04
10:35:05.008,-0.165,0.02
10:35:05.012,-0.175,0.035
10:35:05.016,-0.16,0.035
10:35:05.020,-0.14,0.04
10:35:05.024,-0.13,0.04
10:35:05.028,-0.155,0.035
10:35:05.032,-0.155,0.025
10:35:05.036,-0.14,0.005
10:35:05.040,-0.145,0.035
10:35:05.044,-0.175,0.035
10:35:05.048,-0.18,0.005
10:35:05.052,-0.17,0
10:35:05.056,-0.135,0.025
10:35:05.060,-0.125,0.01
10:35:05.064,-0.12,0.025
10:35:05.068,-0.155,0.015
10:35:05.072,-0.155,0.02
10:35:05.076,-0.125,0.07
10:35:05.080,-0.14,0.07
10:35:05.084,-0.16,0.05
10:35:05.088,-0.18,0.045
10:35:05.092,-0.145,0.035
10:35:05.096,-0.15,0.045
10:35:05.100,-0.11,0.01
10:35:05.104,-0.115,0.03
10:35:05.108,-0.11,0.04
10:35:05.112,-0.115,0.05
10:35:05.116,-0.12,0.05
10:35:05.120,-0.125,0.065
10:35:05.124,-0.115,0.025
10:35:05.128,-0.095,0.035
10:35:05.132,-0.125,0.065
10:35:05.136,-0.125,0.065
10:35:05.140,-0.125,0.085
10:35:05.144,-0.1,0.06
10:35:05.148,-0.08,0.09
10:35:05.152,-0.07,0.085
10:35:05.156,-0.065,0.05
10:35:05.160,-0.09,0.045
10:35:05.164,-0.125,0.075
10:35:05.168,-0.13,0.07
10:35:05.172,-0.13,0.07
10:35:05.176,-0.075,0.07
10:35:05.180,-0.075,0.08
10:35:05.184,-0.08,0.075
10:35:05.188,-0.035,0.06
10:35:05.192,0.02,0.095
10:35:05.196,0.05,0.125
10:35:05.200,0.08,0.145
10:35:05.204,0.065,0.185
10:35:05.208,0.07,0.21
10:35:05.212,0.07,0.22
10:35:05.216,0.075,0.185
10:35:05.220,0.06,0.185
10:35:05.224,0.045,0.195
10:35:05.228,0.04,0.17
10:35:05.232,0.07,0.18
10:35:05.236,0.1,0.14
10:35:05.240,0.09,0.1
10:35:05.244,0.065,0.05
10:35:05.248,0.01,0.045
10:35:05.252,-0.025,0.05
10:35:05.256,-0.055,0.055
10:35:05.260,-0.065,0.05
10:35:05.264,-0.1,0.07
10:35:05.268,-0.13,0.075
10:35:05.272,-0.14,0.04
10:35:05.276,-0.13,0.07
10:35:05.280,-0.1,0.085
10:35:05.284,-0.075,0.065
10:35:05.288,-0.08,0.075
10:35:05.292,-0.09,0.08
10:35:05.296,-0.06,0.05
10:35:05.300,0.015,0.09
10:35:05.304,0.07,0.16
10:35:05.308,0.2,0.235
10:35:05.312,0.475,0.245
10:35:05.316,0.805,0.255
10:35:05.320,1.04,0.23
10:35:05.324,1.185,0.14
10:35:05.328,1.245,-0.045
10:35:05.332,0.97,-0.33
10:35:05.336,0.16,-0.625
10:35:05.340,-0.685,-0.945
10:35:05.344,-1.23,-1.225
10:35:05.348,-1.43,-1.45
10:35:05.352,-1.37,-1.715
10:35:05.356,-1.22,-1.835
10:35:05.360,-1.04,-1.765
10:35:05.364,-0.77,-1.49
10:35:05.368,-0.565,-1.215
10:35:05.372,-0.395,-0.905
10:35:05.376,-0.29,-0.635
10:35:05.380,-0.21,-0.405
10:35:05.384,-0.22,-0.155
10:35:05.388,-0.205,-0.015
10:35:05.392,-0.21,0.02
10:35:05.396,-0.255,0.04
10:35:05.400,-0.24,0.12
10:35:05.404,-0.235,0.115
10:35:05.408,-0.255,0.105
10:35:05.412,-0.255,0.1
10:35:05.416,-0.235,0.14
10:35:05.420,-0.21,0.13
10:35:05.424,-0.23,0.14
10:35:05.428,-0.265,0.125
10:35:05.432,-0.23,0.125
10:35:05.436,-0.22,0.14
10:35:05.440,-0.265,0.14
10:35:05.444,-0.3,0.14
10:35:05.448,-0.305,0.14
10:35:05.452,-0.3,0.13
10:35:05.456,-0.285,0.15
10:35:05.460,-0.275,0.155
10:35:05.464,-0.305,0.175
10:35:05.468,-0.295,0.155
10:35:05.472,-0.31,0.14
10:35:05.476,-0.325,0.13
10:35:05.480,-0.345,0.14
10:35:05.484,-0.355,0.155
10:35:05.488,-0.405,0.155
10:35:05.492,-0.415,0.15
10:35:05.496,-0.41,0.13
10:35:05.500,-0.43,0.175
10:35:05.504,-0.44,0.16
10:35:05.508,-0.465,0.145
10:35:05.512,-0.495,0.115
10:35:05.516,-0.5,0.1
10:35:05.520,-0.53,0.1
10:35:05.524,-0.575,0.11
10:35:05.528,-0.615,0.09
10:35:05.532,-0.625,0.08
10:35:05.536,-0.675,0.075
10:35:05.540,-0.72,0.065
10:35:05.544,-0.73,0.035
10:35:05.548,-0.705,0.025
10:35:05.552,-0.725,0.02
10:35:05.556,-0.735,-0.005
10:35:05.560,-0.81,-0.015
10:35:05.564,-0.805,-0.015
10:35:05.568,-0.83,-0.03
10:35:05.572,-0.85,-0.035
10:35:05.576,-0.875,-0.025
10:35:05.580,-0.89,-0.055
10:35:05.584,-0.88,-0.075
10:35:05.588,-0.895,-0.075
10:35:05.592,-0.91,-0.065
10:35:05.596,-0.88,-0.1
10:35:05.600,-0.84,-0.115
10:35:05.604,-0.785,-0.12
10:35:05.608,-0.735,-0.1
10:35:05.612,-0.705,-0.1
10:35:05.616,-0.695,-0.12
10:35:05.620,-0.675,-0.115
10:35:05.624,-0.64,-0.075
10:35:05.628,-0.605,-0.05
10:35:05.632,-0.575,-0.075
10:35:05.636,-0.525,-0.06
10:35:05.640,-0.485,-0.035
10:35:05.644,-0.445,-0.005
10:35:05.648,-0.38,0.01
10:35:05.652,-0.325,0.045
10:35:05.656,-0.3,0.06
10:35:05.660,-0.265,0.06
10:35:05.664,-0.28,0.085
10:35:05.668,-0.31,0.095
10:35:05.672,-0.29,0.165
10:35:05.676,-0.255,0.145
10:35:05.680,-0.195,0.175
10:35:05.684,-0.16,0.185
10:35:05.688,-0.16,0.17
10:35:05.692,-0.18,0.205
10:35:05.696,-0.145,0.235
10:35:05.700,-0.13,0.235
10:35:05.704,-0.13,0.23
10:35:05.708,-0.085,0.205
10:35:05.712,-0.085,0.225
10:35:05.716,-0.11,0.265
10:35:05.720,-0.16,0.245
10:35:05.724,-0.125,0.235
10:35:05.728,-0.16,0.245
10:35:05.732,-0.165,0.26
10:35:05.736,-0.115,0.265
10:35:05.740,-0.095,0.26
10:35:05.744,-0.05,0.24
10:35:05.748,-0.04,0.24
10:35:05.752,-0.07,0.245
10:35:05.756,-0.08,0.255
10:35:05.760,-0.09,0.235
10:35:05.764,-0.11,0.22
10:35:05.768,-0.11,0.235
10:35:05.772,-0.12,0.265
10:35:05.776,-0.12,0.225
10:35:05.780,-0.09,0.205
10:35:05.784,-0.075,0.235
10:35:05.788,-0.06,0.245
10:35:05.792,-0.07,0.23
10:35:05.796,-0.075,0.205
10:35:05.800,-0.08,0.22
10:35:05.804,-0.075,0.235
10:35:05.808,-0.115,0.245
10:35:05.812,-0.13,0.235
10:35:05.816,-0.125,0.21
10:35:05.820,-0.125,0.195
10:35:05.824,-0.11,0.205
10:35:05.828,-0.07,0.185
10:35:05.832,-0.06,0.205
10:35:05.836,-0.05,0.215
10:35:05.840,-0.025,0.18
10:35:05.844,-0.015,0.22
10:35:05.848,-0.08,0.24
10:35:05.852,-0.12,0.185
10:35:05.856,-0.13,0.19
10:35:05.860,-0.135,0.195
10:35:05.864,-0.08,0.185
10:35:05.868,-0.065,0.215
10:35:05.872,-0.06,0.2
10:35:05.876,-0.09,0.165
10:35:05.880,-0.13,0.185
10:35:05.884,-0.125,0.195
10:35:05.888,-0.08,0.165
10:35:05.892,-0.085,0.17
10:35:05.896,-0.09,0.19
10:35:05.900,-0.12,0.17
10:35:05.904,-0.125,0.185
10:35:05.908,-0.105,0.19
10:35:05.912,-0.1,0.205
10:35:05.916,-0.075,0.205
10:35:05.920,-0.065,0.22
10:35:05.924,-0.06,0.195
10:35:05.928,-0.045,0.195
10:35:05.932,-0.05,0.205
10:35:05.936,-0.06,0.2
10:35:05.940,-0.07,0.195
10:35:05.944,-0.1,0.185
10:35:05.948,-0.105,0.22
10:35:05.952,-0.125,0.195
10:35:05.956,-0.125,0.19
10:35:05.960,-0.07,0.205
10:35:05.964,-0.095,0.18
10:35:05.968,-0.075,0.195
10:35:05.972,-0.08,0.205
10:35:05.976,-0.07,0.205
10:35:05.980,-0.075,0.215
10:35:05.984,-0.07,0.23
10:35:05.988,-0.1,0.22
10:35:05.992,-0.085,0.225
10:35:05.996,-0.075,0.235
10:35:06.000,-0.105,0.195
10:35:06.004,-0.095,0.18
10:35:06.008,-0.04,0.225
10:35:06.012,-0.015,0.265
10:35:06.016,0.005,0.245
10:35:06.020,0.025,0.245
10:35:06.024,0.05,0.265
10:35:06.028,0.05,0.3
10:35:06.032,0.055,0.35
10:35:06.036,0.06,0.33
10:35:06.040,0.07,0.305
10:35:06.044,0.095,0.285
10:35:06.048,0.08,0.3
10:35:06.052,0.06,0.29
10:35:06.056,0.09,0.285
10:35:06.060,0.085,0.265
10:35:06.064,0.04,0.19
10:35:06.068,0.045,0.155
10:35:06.072,0,0.175
10:35:06.076,-0.03,0.15
10:35:06.080,-0.075,0.11
10:35:06.084,-0.105,0.145
10:35:06.088,-0.095,0.155
10:35:06.092,-0.125,0.165
10:35:06.096,-0.12,0.155
10:35:06.100,-0.145,0.18
10:35:06.104,-0.16,0.175
10:35:06.108,-0.13,0.175
10:35:06.112,-0.1,0.14
10:35:06.116,-0.085,0.14
10:35:06.120,-0.07,0.15
10:35:06.124,-0.035,0.165
10:35:06.128,0.015,0.21
10:35:06.132,0.145,0.27
10:35:06.136,0.365,0.32
10:35:06.140,0.68,0.33
10:35:06.144,0.96,0.33
10:35:06.148,1.135,0.245
10:35:06.152,1.275,0.085
10:35:06.156,1.095,-0.15
10:35:06.160,0.4,-0.435
10:35:06.164,-0.515,-0.785
10:35:06.168,-1.16,-1.12
10:35:06.172,-1.405,-1.375
10:35:06.176,-1.39,-1.62
10:35:06.180,-1.28,-1.8
10:35:06.184,-1.13,-1.79
10:35:06.188,-0.88,-1.59
10:35:06.192,-0.61,-1.26
10:35:06.196,-0.45,-0.995
10:35:06.200,-0.355,-0.73
10:35:06.204,-0.285,-0.46
10:35:06.208,-0.255,-0.195
10:35:06.212,-0.235,-0.04
10:35:06.216,-0.255,0.015
10:35:06.220,-0.285,0.075
10:35:06.224,-0.275,0.105
10:35:06.228,-0.26,0.125
10:35:06.232,-0.235,0.145
10:35:06.236,-0.235,0.135
10:35:06.240,-0.24,0.155
10:35:06.244,-0.245,0.135
10:35:06.248,-0.26,0.115
10:35:06.252,-0.255,0.15
10:35:06.256,-0.27,0.155
10:35:06.260,-0.275,0.155
10:35:06.264,-0.295,0.15
10:35:06.268,-0.32,0.13
10:35:06.272,-0.32,0.135
10:35:06.276,-0.31,0.155
10:35:06.280,-0.3,0.145
10:35:06.284,-0.32,0.16
10:35:06.288,-0.32,0.155
10:35:06.292,-0.345,0.145
10:35:06.296,-0.355,0.135
10:35:06.300,-0.34,0.12
10:35:06.304,-0.39,0.13
10:35:06.308,-0.425,0.135
10:35:06.312,-0.405,0.105
10:35:06.316,-0.425,0.105
10:35:06.320,-0.425,0.11
10:35:06.324,-0.44,0.105
10:35:06.328,-0.47,0.08
10:35:06.332,-0.495,0.08
10:35:06.336,-0.52,0.08
10:35:06.340,-0.525,0.075
10:35:06.344,-0.57,0.065
10:35:06.348,-0.6,0.06
10:35:06.352,-0.66,0.055
10:35:06.356,-0.695,0.025
10:35:06.360,-0.705,0.02
10:35:06.364,-0.71,0
10:35:06.368,-0.715,0.015
10:35:06.372,-0.755,0
10:35:06.376,-0.785,-0.01
10:35:06.380,-0.805,-0.04
10:35:06.384,-0.825,-0.04
10:35:06.388,-0.86,-0.05
10:35:06.392,-0.89,-0.085
10:35:06.396,-0.895,-0.08
10:35:06.400,-0.91,-0.075
10:35:06.404,-0.93,-0.08
10:35:06.408,-0.925,-0.095
10:35:06.412,-0.905,-0.14
10:35:06.416,-0.87,-0.135
10:35:06.420,-0.855,-0.14
10:35:06.424,-0.855,-0.13
10:35:06.428,-0.825,-0.17
10:35:06.432,-0.785,-0.165
10:35:06.436,-0.755,-0.175
10:35:06.440,-0.735,-0.16
10:35:06.444,-0.69,-0.145
10:35:06.448,-0.63,-0.15
10:35:06.452,-0.58,-0.135
10:35:06.456,-0.545,-0.14
10:35:06.460,-0.455,-0.14
10:35:06.464,-0.405,-0.115
10:35:06.468,-0.36,-0.105
10:35:06.472,-0.335,-0.08
10:35:06.476,-0.3,-0.055
10:35:06.480,-0.3,-0.05
10:35:06.484,-0.28,-0.035
10:35:06.488,-0.265,-0.015
10:35:06.492,-0.235,0.02
10:35:06.496,-0.25,0.015
10:35:06.500,-0.22,0.03
10:35:06.504,-0.18,0.055
10:35:06.508,-0.155,0.075
10:35:06.512,-0.125,0.075
10:35:06.516,-0.12,0.065
10:35:06.520,-0.145,0.09
10:35:06.524,-0.125,0.095
10:35:06.528,-0.125,0.12
10:35:06.532,-0.125,0.125
10:35:06.536,-0.12,0.115
10:35:06.540,-0.105,0.115
10:35:06.544,-0.11,0.08
10:35:06.548,-0.1,0.065
10:35:06.552,-0.09,0.08
10:35:06.556,-0.1,0.105
10:35:06.560,-0.095,0.13
10:35:06.564,-0.075,0.13
10:35:06.568,-0.075,0.15
10:35:06.572,-0.09,0.11
10:35:06.576,-0.1,0.105
10:35:06.580,-0.115,0.1
10:35:06.584,-0.12,0.08
10:35:06.588,-0.125,0.1
10:35:06.592,-0.105,0.09
10:35:06.596,-0.09,0.08
10:35:06.600,-0.08,0.06
10:35:06.604,-0.075,0.07
10:35:06.608,-0.095,0.055
10:35:06.612,-0.075,0.06
10:35:06.616,-0.09,0.055
10:35:06.620,-0.12,0.075
10:35:06.624,-0.125,0.06
10:35:06.628,-0.13,0.035
10:35:06.632,-0.15,0.04
10:35:06.636,-0.15,0.04
10:35:06.640,-0.12,0.025
10:35:06.644,-0.085,0.035
10:35:06.648,-0.085,0.045
10:35:06.652,-0.08,0.055
10:35:06.656,-0.105,0.035
10:35:06.660,-0.115,0.05
10:35:06.664,-0.145,0.04
10:35:06.668,-0.145,0.055
10:35:06.672,-0.13,0.045
10:35:06.676,-0.155,0.02
10:35:06.680,-0.16,0.01
10:35:06.684,-0.115,0
10:35:06.688,-0.1,0.015
10:35:06.692,-0.11,0.03
10:35:06.696,-0.11,0
10:35:06.700,-0.095,0.01
10:35:06.704,-0.11,0.015
10:35:06.708,-0.12,0.03
10:35:06.712,-0.13,0.02
10:35:06.716,-0.14,0.02
10:35:06.720,-0.13,0.03
10:35:06.724,-0.125,0.035
10:35:06.728,-0.11,0.03
10:35:06.732,-0.09,0.04
10:35:06.736,-0.11,0.02
10:35:06.740,-0.1,0.01
10:35:06.744,-0.08,0.005
10:35:06.748,-0.1,0.005
10:35:06.752,-0.13,0.02
10:35:06.756,-0.135,0
10:35:06.760,-0.13,0.01
10:35:06.764,-0.145,0.025
10:35:06.768,-0.155,0.025
10:35:06.772,-0.115,0
10:35:06.776,-0.105,0.005
10:35:06.780,-0.095,-0.005
10:35:06.784,-0.1,-0.005
10:35:06.788,-0.14,-0.01
10:35:06.792,-0.125,-0.025
10:35:06.796,-0.13,0.005
10:35:06.800,-0.135,0.005
10:35:06.804,-0.12,-0.015
10:35:06.808,-0.135,-0.02
10:35:06.812,-0.135,-0.01
10:35:06.816,-0.12,-0.005
10:35:06.820,-0.085,-0.02
10:35:06.824,-0.08,-0.02
10:35:06.828,-0.09,-0.035
10:35:06.832,-0.075,0
10:35:06.836,-0.04,0
10:35:06.840,-0.025,-0.01
10:35:06.844,-0.025,0
10:35:06.848,0.02,0.005
10:35:06.852,0.015,0.01
10:35:06.856,0.02,0.075
10:35:06.860,0.005,0.075
10:35:06.864,0.035,0.07
10:35:06.868,0.07,0.045
10:35:06.872,0.055,0.03
10:35:06.876,0.035,0.06
10:35:06.880,0.01,0.005
10:35:06.884,0,-0.015
10:35:06.888,0.02,-0.015
10:35:06.892,0.01,-0.065
10:35:06.896,-0.06,-0.115
10:35:06.900,-0.07,-0.125
10:35:06.904,-0.05,-0.16
10:35:06.908,-0.08,-0.155
10:35:06.912,-0.09,-0.1
10:35:06.916,-0.13,-0.085
10:35:06.920,-0.14,-0.065
10:35:06.924,-0.13,-0.045
10:35:06.928,-0.14,-0.035
10:35:06.932,-0.14,-0.06
10:35:06.936,-0.14,-0.055
10:35:06.940,-0.13,-0.085
10:35:06.944,-0.095,-0.075
10:35:06.948,-0.05,-0.055
10:35:06.952,0.01,-0.025
10:35:06.956,0.135,0.005
10:35:06.960,0.415,0.08
10:35:06.964,0.71,0.065
10:35:06.968,0.925,0.065
10:35:06.972,1.02,0
10:35:06.976,1.075,-0.28
10:35:06.980,0.88,-0.645
10:35:06.984,0.15,-1.02
10:35:06.988,-0.76,-1.425
10:35:06.992,-1.325,-1.715
10:35:06.996,-1.535,-1.985
10:35:07.000,-1.48,-2.265
10:35:07.004,-1.26,-2.395
10:35:07.008,-0.95,-2.28
10:35:07.012,-0.715,-1.98
10:35:07.016,-0.5,-1.59
10:35:07.020,-0.35,-1.235
10:35:07.024,-0.26,-0.905
10:35:07.028,-0.21,-0.59
10:35:07.032,-0.18,-0.365
10:35:07.036,-0.185,-0.225
10:35:07.040,-0.165,-0.11
10:35:07.044,-0.19,-0.105
10:35:07.048,-0.15,-0.105
10:35:07.052,-0.165,-0.06
10:35:07.056,-0.16,-0.04
10:35:07.060,-0.16,-0.05
10:35:07.064,-0.165,-0.03
10:35:07.068,-0.16,-0.05
10:35:07.072,-0.18,-0.045
10:35:07.076,-0.185,-0.045
10:35:07.080,-0.22,-0.065
10:35:07.084,-0.225,-0.075
10:35:07.088,-0.225,-0.045
10:35:07.092,-0.215,-0.04
10:35:07.096,-0.22,-0.01
10:35:07.100,-0.22,-0.015
10:35:07.104,-0.235,-0.02
10:35:07.108,-0.235,-0.01
10:35:07.112,-0.25,-0.035
10:35:07.116,-0.28,-0.025
10:35:07.120,-0.29,-0.015
10:35:07.124,-0.325,-0.01
10:35:07.128,-0.315,-0.04
10:35:07.132,-0.32,-0.025
10:35:07.136,-0.36,-0.025
10:35:07.140,-0.35,-0.025
10:35:07.144,-0.36,-0.04
10:35:07.148,-0.39,-0.05
10:35:07.152,-0.41,-0.05
10:35:07.156,-0.43,-0.06
10:35:07.160,-0.46,-0.07
10:35:07.164,-0.505,-0.06
10:35:07.168,-0.54,-0.065
10:35:07.172,-0.585,-0.085
10:35:07.176,-0.6,-0.1
10:35:07.180,-0.625,-0.115
10:35:07.184,-0.63,-0.115
10:35:07.188,-0.65,-0.115
10:35:07.192,-0.665,-0.135
10:35:07.196,-0.68,-0.155
10:35:07.200,-0.695,-0.145
10:35:07.204,-0.755,-0.18
10:35:07.208,-0.795,-0.19
10:35:07.212,-0.82,-0.225
10:35:07.216,-0.85,-0.195
10:35:07.220,-0.845,-0.225
10:35:07.224,-0.865,-0.265
10:35:07.228,-0.87,-0.28
10:35:07.232,-0.87,-0.285
10:35:07.236,-0.875,-0.315
10:35:07.240,-0.87,-0.305
10:35:07.244,-0.865,-0.3
10:35:07.248,-0.855,-0.315
10:35:07.252,-0.815,-0.325
10:35:07.256,-0.815,-0.32
10:35:07.260,-0.77,-0.34
10:35:07.264,-0.74,-0.365
10:35:07.268,-0.7,-0.345
10:35:07.272,-0.65,-0.32
10:35:07.276,-0.56,-0.3
10:35:07.280,-0.505,-0.305
10:35:07.284,-0.435,-0.32
10:35:07.288,-0.405,-0.3
10:35:07.292,-0.345,-0.28
10:35:07.296,-0.33,-0.275
10:35:07.300,-0.305,-0.27
10:35:07.304,-0.26,-0.2
10:35:07.308,-0.205,-0.19
10:35:07.312,-0.2,-0.15
10:35:07.316,-0.18,-0.135
10:35:07.320,-0.145,-0.13
10:35:07.324,-0.115,-0.1
10:35:07.328,-0.095,-0.06
10:35:07.332,-0.09,-0.04
10:35:07.336,-0.11,-0.05
10:35:07.340,-0.1,-0.065
10:35:07.344,-0.115,-0.045
10:35:07.348,-0.1,-0.01
10:35:07.352,-0.105,-0.01
10:35:07.356,-0.09,0
10:35:07.360,-0.075,0.005
10:35:07.364,-0.08,0.005
10:35:07.368,-0.075,0
10:35:07.372,-0.06,-0.005
10:35:07.376,-0.04,0.005
10:35:07.380,-0.09,0.01
10:35:07.384,-0.07,0.005
10:35:07.388,-0.09,-0.005
10:35:07.392,-0.08,-0.01
10:35:07.396,-0.065,0
10:35:07.400,-0.08,0.005
10:35:07.404,-0.055,0.005
10:35:07.408,-0.07,0
10:35:07.412,-0.06,-0.025
10:35:07.416,-0.065,-0.03
10:35:07.420,-0.055,-0.035
10:35:07.424,-0.06,-0.035
10:35:07.428,-0.08,-0.05
10:35:07.432,-0.08,-0.045
10:35:07.436,-0.08,-0.055
10:35:07.440,-0.09,-0.07
10:35:07.444,-0.1,-0.095
10:35:07.448,-0.095,-0.065
10:35:07.452,-0.105,-0.085
10:35:07.456,-0.09,-0.08
10:35:07.460,-0.08,-0.1
10:35:07.464,-0.07,-0.095
10:35:07.468,-0.075,-0.11
10:35:07.472,-0.075,-0.11
10:35:07.476,-0.095,-0.115
10:35:07.480,-0.095,-0.125
10:35:07.484,-0.125,-0.12
10:35:07.488,-0.135,-0.12
10:35:07.492,-0.115,-0.135
10:35:07.496,-0.125,-0.16
10:35:07.500,-0.13,-0.13
10:35:07.504,-0.075,-0.145
10:35:07.508,-0.095,-0.135
10:35:07.512,-0.09,-0.135
10:35:07.516,-0.105,-0.135
10:35:07.520,-0.085,-0.135
10:35:07.524,-0.115,-0.115
10:35:07.528,-0.1,-0.135
10:35:07.532,-0.105,-0.16
10:35:07.536,-0.09,-0.16
10:35:07.540,-0.1,-0.175
10:35:07.544,-0.11,-0.19
10:35:07.548,-0.1,-0.185
10:35:07.552,-0.085,-0.185
10:35:07.556,-0.09,-0.17
10:35:07.560,-0.085,-0.18
10:35:07.564,-0.09,-0.17
10:35:07.568,-0.09,-0.175
10:35:07.572,-0.085,-0.18
10:35:07.576,-0.09,-0.165
10:35:07.580,-0.075,-0.18
10:35:07.584,-0.07,-0.19
10:35:07.588,-0.09,-0.185
10:35:07.592,-0.085,-0.2
10:35:07.596,-0.065,-0.18
10:35:07.600,-0.05,-0.185
10:35:07.604,-0.045,-0.17
10:35:07.608,-0.03,-0.16
10:35:07.612,-0.065,-0.175
10:35:07.616,-0.1,-0.18
10:35:07.620,-0.115,-0.19
10:35:07.624,-0.125,-0.225
10:35:07.628,-0.13,-0.2
10:35:07.632,-0.105,-0.205
10:35:07.636,-0.085,-0.215
10:35:07.640,-0.07,-0.24
10:35:07.644,-0.06,-0.205
10:35:07.648,-0.01,-0.19
10:35:07.652,-0.01,-0.2
10:35:07.656,-0.02,-0.22
10:35:07.660,-0.02,-0.22
10:35:07.664,0,-0.19
10:35:07.668,0.03,-0.195
10:35:07.672,0.09,-0.175
10:35:07.676,0.1,-0.15
10:35:07.680,0.065,-0.11
10:35:07.684,0.055,-0.105
10:35:07.688,0.08,-0.1
10:35:07.692,0.12,-0.12
10:35:07.696,0.105,-0.15
10:35:07.700,0.085,-0.17
10:35:07.704,0.095,-0.155
10:35:07.708,0.115,-0.16
10:35:07.712,0.07,-0.215
10:35:07.716,0.02,-0.265
10:35:07.720,0.025,-0.34
10:35:07.724,0,-0.32
10:35:07.728,-0.05,-0.32
10:35:07.732,-0.05,-0.34
10:35:07.736,-0.05,-0.32
10:35:07.740,-0.065,-0.3
10:35:07.744,-0.045,-0.295
10:35:07.748,-0.07,-0.285
10:35:07.752,-0.05,-0.29
10:35:07.756,-0.06,-0.265
10:35:07.760,-0.05,-0.28
10:35:07.764,-0.06,-0.305
10:35:07.768,0,-0.3
10:35:07.772,0.07,-0.285
10:35:07.776,0.115,-0.24
10:35:07.780,0.26,-0.195
10:35:07.784,0.525,-0.16
10:35:07.788,0.83,-0.205
10:35:07.792,1.025,-0.225
10:35:07.796,1.12,-0.29
10:35:07.800,1.205,-0.525
10:35:07.804,1.04,-0.945
10:35:07.808,0.325,-1.29
10:35:07.812,-0.625,-1.645
10:35:07.816,-1.26,-1.93
10:35:07.820,-1.48,-2.15
10:35:07.824,-1.43,-2.43
10:35:07.828,-1.215,-2.61
10:35:07.832,-0.93,-2.56
10:35:07.836,-0.715,-2.315
10:35:07.840,-0.49,-2.01
10:35:07.844,-0.36,-1.65
10:35:07.848,-0.285,-1.305
10:35:07.852,-0.25,-0.965
10:35:07.856,-0.235,-0.69
10:35:07.860,-0.175,-0.54
10:35:07.864,-0.175,-0.445
10:35:07.868,-0.13,-0.395
10:35:07.872,-0.12,-0.345
10:35:07.876,-0.15,-0.335
10:35:07.880,-0.175,-0.32
10:35:07.884,-0.135,-0.345
10:35:07.888,-0.115,-0.32
10:35:07.892,-0.155,-0.315
10:35:07.896,-0.18,-0.32
10:35:07.900,-0.225,-0.35
10:35:07.904,-0.24,-0.345
10:35:07.908,-0.22,-0.315
10:35:07.912,-0.225,-0.32
10:35:07.916,-0.235,-0.3
10:35:07.920,-0.215,-0.32
10:35:07.924,-0.205,-0.31
10:35:07.928,-0.2,-0.315
10:35:07.932,-0.22,-0.31
10:35:07.936,-0.215,-0.305
10:35:07.940,-0.215,-0.31
10:35:07.944,-0.235,-0.305
10:35:07.948,-0.27,-0.295
10:35:07.952,-0.285,-0.31
10:35:07.956,-0.315,-0.305
10:35:07.960,-0.31,-0.285
10:35:07.964,-0.31,-0.295
10:35:07.968,-0.315,-0.31
10:35:07.972,-0.32,-0.31
10:35:07.976,-0.36,-0.325
10:35:07.980,-0.375,-0.305
10:35:07.984,-0.405,-0.315
10:35:07.988,-0.435,-0.315
10:35:07.992,-0.44,-0.36
10:35:07.996,-0.475,-0.355
10:35:08.000,-0.52,-0.38
10:35:08.004,-0.555,-0.385
10:35:08.008,-0.585,-0.38
10:35:08.012,-0.605,-0.43
10:35:08.016,-0.59,-0.455
10:35:08.020,-0.605,-0.445
10:35:08.024,-0.6,-0.395
10:35:08.028,-0.63,-0.44
10:35:08.032,-0.66,-0.47
10:35:08.036,-0.73,-0.455
10:35:08.040,-0.76,-0.525
10:35:08.044,-0.785,-0.515
10:35:08.048,-0.825,-0.48
10:35:08.052,-0.84,-0.52
10:35:08.056,-0.805,-0.535
10:35:08.060,-0.775,-0.575
10:35:08.064,-0.755,-0.555
10:35:08.068,-0.72,-0.575
10:35:08.072,-0.725,-0.595
10:35:08.076,-0.705,-0.575
10:35:08.080,-0.71,-0.585
10:35:08.084,-0.735,-0.625
10:35:08.088,-0.72,-0.62
10:35:08.092,-0.665,-0.595
10:35:08.096,-0.61,-0.61
10:35:08.100,-0.565,-0.565
10:35:08.104,-0.51,-0.56
10:35:08.108,-0.44,-0.56
10:35:08.112,-0.375,-0.545
10:35:08.116,-0.31,-0.535
10:35:08.120,-0.26,-0.51
10:35:08.124,-0.27,-0.475
10:35:08.128,-0.255,-0.47
10:35:08.132,-0.235,-0.41
10:35:08.136,-0.22,-0.415
10:35:08.140,-0.21,-0.42
10:35:08.144,-0.195,-0.4
10:35:08.148,-0.22,-0.39
10:35:08.152,-0.175,-0.355
10:35:08.156,-0.115,-0.36
10:35:08.160,-0.09,-0.325
10:35:08.164,-0.095,-0.355
10:35:08.168,-0.085,-0.36
10:35:08.172,-0.105,-0.345
10:35:08.176,-0.105,-0.32
10:35:08.180,-0.09,-0.31
10:35:08.184,-0.065,-0.29
10:35:08.188,-0.1,-0.285
10:35:08.192,-0.13,-0.28
10:35:08.196,-0.115,-0.305
10:35:08.200,-0.06,-0.32
10:35:08.204,-0.055,-0.315
10:35:08.208,-0.045,-0.315
10:35:08.212,-0.04,-0.32
10:35:08.216,-0.065,-0.32
10:35:08.220,-0.075,-0.315
10:35:08.224,-0.065,-0.32
10:35:08.228,-0.07,-0.34
10:35:08.232,-0.05,-0.305
10:35:08.236,-0.055,-0.355
10:35:08.240,-0.08,-0.345
10:35:08.244,-0.04,-0.335
10:35:08.248,-0.06,-0.36
10:35:08.252,-0.065,-0.36
10:35:08.256,-0.075,-0.38
10:35:08.260,-0.075,-0.365
10:35:08.264,-0.085,-0.38
10:35:08.268,-0.07,-0.395
10:35:08.272,-0.06,-0.41
10:35:08.276,-0.095,-0.38
10:35:08.280,-0.12,-0.385
10:35:08.284,-0.11,-0.405
10:35:08.288,-0.12,-0.425
10:35:08.292,-0.1,-0.43
10:35:08.296,-0.075,-0.415
10:35:08.300,-0.045,-0.41
10:35:08.304,-0.045,-0.385
10:35:08.308,-0.04,-0.385
10:35:08.312,-0.055,-0.41
10:35:08.316,-0.105,-0.44
10:35:08.320,-0.125,-0.46
10:35:08.324,-0.115,-0.455
10:35:08.328,-0.115,-0.43
10:35:08.332,-0.105,-0.44
10:35:08.336,-0.105,-0.45
10:35:08.340,-0.085,-0.445
10:35:08.344,-0.135,-0.445
10:35:08.348,-0.105,-0.445
10:35:08.352,-0.08,-0.45
10:35:08.356,-0.095,-0.435
10:35:08.360,-0.105,-0.425
10:35:08.364,-0.075,-0.445
10:35:08.368,-0.085,-0.46
10:35:08.372,-0.1,-0.455
10:35:08.376,-0.11,-0.445
10:35:08.380,-0.11,-0.445
10:35:08.384,-0.115,-0.45
10:35:08.388,-0.12,-0.46
10:35:08.392,-0.11,-0.48
10:35:08.396,-0.1,-0.445
10:35:08.400,-0.09,-0.48
10:35:08.404,-0.12,-0.465
10:35:08.408,-0.115,-0.455
10:35:08.412,-0.12,-0.47
10:35:08.416,-0.12,-0.46
10:35:08.420,-0.1,-0.46
10:35:08.424,-0.135,-0.48
10:35:08.428,-0.145,-0.505
10:35:08.432,-0.13,-0.5
10:35:08.436,-0.115,-0.515
10:35:08.440,-0.11,-0.455
10:35:08.444,-0.09,-0.495
10:35:08.448,-0.095,-0.5
10:35:08.452,-0.135,-0.52
10:35:08.456,-0.145,-0.53
10:35:08.460,-0.135,-0.505
10:35:08.464,-0.135,-0.52
10:35:08.468,-0.14,-0.535
10:35:08.472,-0.125,-0.535
10:35:08.476,-0.105,-0.505
10:35:08.480,-0.075,-0.48
10:35:08.484,-0.065,-0.475
10:35:08.488,-0.045,-0.49
10:35:08.492,-0.025,-0.47
10:35:08.496,-0.01,-0.455
10:35:08.500,-0.02,-0.435
10:35:08.504,-0.01,-0.42
10:35:08.508,-0.015,-0.395
10:35:08.512,0,-0.425
10:35:08.516,0,-0.43
10:35:08.520,-0.01,-0.455
10:35:08.524,-0.025,-0.47
10:35:08.528,-0.01,-0.505
10:35:08.532,-0.04,-0.53
10:35:08.536,-0.08,-0.555
10:35:08.540,-0.135,-0.565
10:35:08.544,-0.155,-0.595
10:35:08.548,-0.185,-0.59
10:35:08.552,-0.205,-0.595
10:35:08.556,-0.22,-0.545
10:35:08.560,-0.23,-0.52
10:35:08.564,-0.235,-0.53
10:35:08.568,-0.24,-0.55
10:35:08.572,-0.26,-0.555
10:35:08.576,-0.245,-0.57
10:35:08.580,-0.25,-0.58
10:35:08.584,-0.265,-0.585
10:35:08.588,-0.24,-0.59
10:35:08.592,-0.145,-0.56
10:35:08.596,-0.085,-0.51
10:35:08.600,0.04,-0.465
10:35:08.604,0.25,-0.4
10:35:08.608,0.57,-0.385
10:35:08.612,0.855,-0.4
10:35:08.616,1.025,-0.44
10:35:08.620,1.1,-0.56
10:35:08.624,0.905,-0.8
10:35:08.628,0.21,-1.07
10:35:08.632,-0.64,-1.38
10:35:08.636,-1.305,-1.675
10:35:08.640,-1.595,-1.92
10:35:08.644,-1.57,-2.14
10:35:08.648,-1.465,-2.32
10:35:08.652,-1.275,-2.3
10:35:08.656,-0.985,-2.14
10:35:08.660,-0.745,-1.87
10:35:08.664,-0.55,-1.605
10:35:08.668,-0.46,-1.355
10:35:08.672,-0.465,-1.14
10:35:08.676,-0.46,-0.94
10:35:08.680,-0.415,-0.74
10:35:08.684,-0.43,-0.64
10:35:08.688,-0.415,-0.59
10:35:08.692,-0.435,-0.575
10:35:08.696,-0.445,-0.57
10:35:08.700,-0.425,-0.56
10:35:08.704,-0.385,-0.56
10:35:08.708,-0.395,-0.51
10:35:08.712,-0.395,-0.495
10:35:08.716,-0.39,-0.49
10:35:08.720,-0.4,-0.495
10:35:08.724,-0.425,-0.475
10:35:08.728,-0.445,-0.49
10:35:08.732,-0.445,-0.495
10:35:08.736,-0.445,-0.51
10:35:08.740,-0.47,-0.485
10:35:08.744,-0.455,-0.495
10:35:08.748,-0.435,-0.49
10:35:08.752,-0.47,-0.475
10:35:08.756,-0.465,-0.435
10:35:08.760,-0.495,-0.465
10:35:08.764,-0.49,-0.46
10:35:08.768,-0.54,-0.46
10:35:08.772,-0.545,-0.45
10:35:08.776,-0.55,-0.445
10:35:08.780,-0.585,-0.445
10:35:08.784,-0.585,-0.475
10:35:08.788,-0.6,-0.475
10:35:08.792,-0.62,-0.485
10:35:08.796,-0.63,-0.48
10:35:08.800,-0.65,-0.505
10:35:08.804,-0.64,-0.485
10:35:08.808,-0.69,-0.47
10:35:08.812,-0.745,-0.47
10:35:08.816,-0.775,-0.48
10:35:08.820,-0.79,-0.48
10:35:08.824,-0.825,-0.48
10:35:08.828,-0.84,-0.515
10:35:08.832,-0.875,-0.515
10:35:08.836,-0.915,-0.56
10:35:08.840,-0.925,-0.54
10:35:08.844,-0.955,-0.525
10:35:08.848,-0.94,-0.55
10:35:08.852,-0.97,-0.57
10:35:08.856,-1.005,-0.585
10:35:08.860,-1.04,-0.56
10:35:08.864,-1.06,-0.59
10:35:08.868,-1.07,-0.59
10:35:08.872,-1.095,-0.61
10:35:08.876,-1.08,-0.615
10:35:08.880,-1.06,-0.59
10:35:08.884,-1.055,-0.6
10:35:08.888,-1.06,-0.63
10:35:08.892,-1.045,-0.63
10:35:08.896,-1.02,-0.625
10:35:08.900,-0.975,-0.635
10:35:08.904,-0.935,-0.625
10:35:08.908,-0.91,-0.605
10:35:08.912,-0.88,-0.625
10:35:08.916,-0.82,-0.655
10:35:08.920,-0.8,-0.655
10:35:08.924,-0.76,-0.625
10:35:08.928,-0.695,-0.595
10:35:08.932,-0.615,-0.565
10:35:08.936,-0.565,-0.52
10:35:08.940,-0.54,-0.495
10:35:08.944,-0.52,-0.49
10:35:08.948,-0.5,-0.46
10:35:08.952,-0.465,-0.43
10:35:08.956,-0.45,-0.435
10:35:08.960,-0.425,-0.39
10:35:08.964,-0.425,-0.375
10:35:08.968,-0.37,-0.355
10:35:08.972,-0.36,-0.355
10:35:08.976,-0.335,-0.315
10:35:08.980,-0.33,-0.28
10:35:08.984,-0.33,-0.275
10:35:08.988,-0.29,-0.28
10:35:08.992,-0.3,-0.235
10:35:08.996,-0.28,-0.23
10:35:09.000,-0.295,-0.225
10:35:09.004,-0.29,-0.215
10:35:09.008,-0.285,-0.23
10:35:09.012,-0.295,-0.24
10:35:09.016,-0.28,-0.24
10:35:09.020,-0.245,-0.2
10:35:09.024,-0.225,-0.17
10:35:09.028,-0.24,-0.155
10:35:09.032,-0.23,-0.155
10:35:09.036,-0.235,-0.175
10:35:09.040,-0.245,-0.175
10:35:09.044,-0.26,-0.16
10:35:09.048,-0.235,-0.13
10:35:09.052,-0.26,-0.16
10:35:09.056,-0.265,-0.17
10:35:09.060,-0.23,-0.205
10:35:09.064,-0.24,-0.215
10:35:09.068,-0.23,-0.195
10:35:09.072,-0.225,-0.18
10:35:09.076,-0.235,-0.14
10:35:09.080,-0.22,-0.16
10:35:09.084,-0.23,-0.185
10:35:09.088,-0.25,-0.18
10:35:09.092,-0.245,-0.165
10:35:09.096,-0.23,-0.14
10:35:09.100,-0.24,-0.14
10:35:09.104,-0.26,-0.12
10:35:09.108,-0.28,-0.135
10:35:09.112,-0.27,-0.135
10:35:09.116,-0.24,-0.135
10:35:09.120,-0.25,-0.105
10:35:09.124,-0.235,-0.11
10:35:09.128,-0.24,-0.11
10:35:09.132,-0.26,-0.095
10:35:09.136,-0.265,-0.105
10:35:09.140,-0.28,-0.1
10:35:09.144,-0.285,-0.12
10:35:09.148,-0.265,-0.125
10:35:09.152,-0.26,-0.125
10:35:09.156,-0.215,-0.11
10:35:09.160,-0.215,-0.115
10:35:09.164,-0.23,-0.125
10:35:09.168,-0.235,-0.11
10:35:09.172,-0.24,-0.14
10:35:09.176,-0.24,-0.16
10:35:09.180,-0.25,-0.115
10:35:09.184,-0.255,-0.11
10:35:09.188,-0.275,-0.1
10:35:09.192,-0.285,-0.11
10:35:09.196,-0.29,-0.095
10:35:09.200,-0.28,-0.105
10:35:09.204,-0.265,-0.09
10:35:09.208,-0.265,-0.06
10:35:09.212,-0.24,-0.065
10:35:09.216,-0.23,-0.095
10:35:09.220,-0.245,-0.105
10:35:09.224,-0.255,-0.07
10:35:09.228,-0.255,-0.095
10:35:09.232,-0.285,-0.09
10:35:09.236,-0.28,-0.075
10:35:09.240,-0.26,-0.085
10:35:09.244,-0.26,-0.065
10:35:09.248,-0.25,-0.07
10:35:09.252,-0.265,-0.05
10:35:09.256,-0.27,-0.055
10:35:09.260,-0.275,-0.045
10:35:09.264,-0.275,-0.06
10:35:09.268,-0.29,-0.045
10:35:09.272,-0.295,-0.065
10:35:09.276,-0.295,-0.055
10:35:09.280,-0.265,-0.065
10:35:09.284,-0.255,-0.05
10:35:09.288,-0.255,-0.01
10:35:09.292,-0.245,-0.035
10:35:09.296,-0.255,-0.055
10:35:09.300,-0.245,0
10:35:09.304,-0.19,-0.015
10:35:09.308,-0.155,-0.015
10:35:09.312,-0.15,0
10:35:09.316,-0.12,-0.025
10:35:09.320,-0.13,0.025
10:35:09.324,-0.135,0.095
10:35:09.328,-0.14,0.09
10:35:09.332,-0.145,0.105
10:35:09.336,-0.115,0.095
10:35:09.340,-0.145,0.085
10:35:09.344,-0.125,0.065
10:35:09.348,-0.135,0.02
10:35:09.352,-0.12,0
10:35:09.356,-0.16,-0.03
10:35:09.360,-0.21,-0.04
10:35:09.364,-0.245,-0.06
10:35:09.368,-0.265,-0.095
10:35:09.372,-0.285,-0.1
10:35:09.376,-0.29,-0.06
10:35:09.380,-0.305,-0.02
10:35:09.384,-0.285,-0.015
10:35:09.388,-0.3,0.005
10:35:09.392,-0.37,-0.005
10:35:09.396,-0.38,-0.025
10:35:09.400,-0.345,-0.04
10:35:09.404,-0.36,-0.08
10:35:09.408,-0.32,-0.05
10:35:09.412,-0.28,-0.02
10:35:09.416,-0.25,0.015
10:35:09.420,-0.14,0.09
10:35:09.424,0.1,0.14
10:35:09.428,0.395,0.135
10:35:09.432,0.61,0.105
10:35:09.436,0.705,0.02
10:35:09.440,0.755,-0.19
10:35:09.444,0.56,-0.56
10:35:09.448,-0.14,-0.865
10:35:09.452,-1.035,-1.23
10:35:09.456,-1.6,-1.52
10:35:09.460,-1.82,-1.82
10:35:09.464,-1.81,-2.135
10:35:09.468,-1.66,-2.295
10:35:09.472,-1.355,-2.11
10:35:09.476,-1.04,-1.82
10:35:09.480,-0.78,-1.475
10:35:09.484,-0.665,-1.12
10:35:09.488,-0.595,-0.81
10:35:09.492,-0.52,-0.49
10:35:09.496,-0.515,-0.22
10:35:09.500,-0.555,-0.08
10:35:09.504,-0.57,0
10:35:09.508,-0.58,0.03
10:35:09.512,-0.57,0.08
10:35:09.516,-0.515,0.065
10:35:09.520,-0.545,0.09
10:35:09.524,-0.545,0.115
10:35:09.528,-0.545,0.1
10:35:09.532,-0.53,0.11
10:35:09.536,-0.545,0.1
10:35:09.540,-0.58,0.075
10:35:09.544,-0.605,0.07
10:35:09.548,-0.605,0.13
10:35:09.552,-0.56,0.14
10:35:09.556,-0.58,0.11
10:35:09.560,-0.61,0.095
10:35:09.564,-0.62,0.13
10:35:09.568,-0.65,0.145
10:35:09.572,-0.695,0.155
10:35:09.576,-0.705,0.14
10:35:09.580,-0.67,0.145
10:35:09.584,-0.67,0.13
10:35:09.588,-0.7,0.14
10:35:09.592,-0.73,0.14
10:35:09.596,-0.74,0.155
10:35:09.600,-0.755,0.14
10:35:09.604,-0.755,0.13
10:35:09.608,-0.76,0.14
10:35:09.612,-0.765,0.14
10:35:09.616,-0.75,0.14
10:35:09.620,-0.795,0.13
10:35:09.624,-0.81,0.1
10:35:09.628,-0.865,0.115
10:35:09.632,-0.96,0.1
10:35:09.636,-1.055,0.08
10:35:09.640,-1.08,0.1
10:35:09.644,-1.06,0.03
10:35:09.648,-1.07,0.005
10:35:09.652,-1.085,0.025
10:35:09.656,-1.105,0.015
10:35:09.660,-1.14,0
10:35:09.664,-1.145,-0.025
10:35:09.668,-1.165,-0.05
10:35:09.672,-1.165,-0.085
10:35:09.676,-1.185,-0.07
10:35:09.680,-1.2,-0.085
10:35:09.684,-1.215,-0.105
10:35:09.688,-1.17,-0.085
10:35:09.692,-1.175,-0.09
10:35:09.696,-1.185,-0.115
10:35:09.700,-1.22,-0.115
10:35:09.704,-1.245,-0.13
10:35:09.708,-1.275,-0.12
10:35:09.712,-1.27,-0.165
10:35:09.716,-1.26,-0.195
10:35:09.720,-1.22,-0.19
10:35:09.724,-1.2,-0.2
10:35:09.728,-1.14,-0.19
10:35:09.732,-1.08,-0.17
10:35:09.736,-1.005,-0.175
10:35:09.740,-0.965,-0.18
10:35:09.744,-0.88,-0.17
10:35:09.748,-0.82,-0.15
10:35:09.752,-0.8,-0.11
10:35:09.756,-0.78,-0.07
10:35:09.760,-0.725,-0.08
10:35:09.764,-0.64,-0.065
10:35:09.768,-0.615,-0.01
10:35:09.772,-0.55,0
10:35:09.776,-0.55,0.01
10:35:09.780,-0.49,0.035
10:35:09.784,-0.435,0.06
10:35:09.788,-0.45,0.095
10:35:09.792,-0.475,0.13
10:35:09.796,-0.47,0.155
10:35:09.800,-0.46,0.155
10:35:09.804,-0.425,0.175
10:35:09.808,-0.4,0.165
10:35:09.812,-0.43,0.145
10:35:09.816,-0.415,0.165
10:35:09.820,-0.41,0.18
10:35:09.824,-0.4,0.23
10:35:09.828,-0.38,0.23
10:35:09.832,-0.38,0.215
10:35:09.836,-0.385,0.19
10:35:09.840,-0.36,0.21
10:35:09.844,-0.35,0.205
10:35:09.848,-0.345,0.265
10:35:09.852,-0.305,0.305
10:35:09.856,-0.285,0.295
10:35:09.860,-0.295,0.335
10:35:09.864,-0.405,0.435
10:35:09.868,-0.44,0.44
10:35:09.872,-0.4,0.325
10:35:09.876,-0.38,0.2
10:35:09.880,-0.37,0.125
10:35:09.884,-0.385,0.13
10:35:09.888,-0.375,0.15
10:35:09.892,-0.365,0.145
10:35:09.896,-0.35,0.11
10:35:09.900,-0.365,0.12
10:35:09.904,-0.34,0.17
10:35:09.908,-0.335,0.22
10:35:09.912,-0.34,0.2
10:35:09.916,-0.335,0.175
10:35:09.920,-0.33,0.135
10:35:09.924,-0.315,0.165
10:35:09.928,-0.225,0.145
10:35:09.932,-0.185,0.125
10:35:09.936,-0.22,0.135
10:35:09.940,-0.255,0.175
10:35:09.944,-0.315,0.18
10:35:09.948,-0.37,0.18
10:35:09.952,-0.34,0.165
10:35:09.956,-0.32,0.215
10:35:09.960,-0.32,0.245
10:35:09.964,-0.375,0.26
10:35:09.968,-0.37,0.22
10:35:09.972,-0.34,0.15
10:35:09.976,-0.315,0.09
10:35:09.980,-0.26,0.085
10:35:09.984,-0.25,0.09
10:35:09.988,-0.265,0.16
10:35:09.992,-0.245,0.22
10:35:09.996,-0.255,0.25
10:35:10.000,-0.255,0.235
10:35:10.004,-0.245,0.22
10:35:10.008,-0.305,0.155
10:35:10.012,-0.42,0.14
10:35:10.016,-0.38,0.21
10:35:10.020,-0.31,0.22
10:35:10.024,-0.255,0.13
10:35:10.028,-0.28,0.075
10:35:10.032,-0.29,0.07
10:35:10.036,-0.275,0.1
10:35:10.040,-0.2,0.165
10:35:10.044,-0.2,0.215
10:35:10.048,-0.21,0.195
10:35:10.052,-0.235,0.18
10:35:10.056,-0.215,0.155
10:35:10.060,-0.275,0.175
10:35:10.064,-0.38,0.225
10:35:10.068,-0.405,0.215
10:35:10.072,-0.35,0.18
10:35:10.076,-0.315,0.17
10:35:10.080,-0.31,0.15
10:35:10.084,-0.305,0.095
10:35:10.088,-0.285,0.05
10:35:10.092,-0.315,0.055
10:35:10.096,-0.35,0.08
10:35:10.100,-0.325,0.095
10:35:10.104,-0.295,0.125
10:35:10.108,-0.265,0.13
10:35:10.112,-0.27,0.17
10:35:10.116,-0.205,0.2
10:35:10.120,-0.18,0.19
10:35:10.124,-0.125,0.165
10:35:10.128,-0.05,0.165
10:35:10.132,-0.07,0.175
10:35:10.136,-0.135,0.21
10:35:10.140,-0.175,0.265
10:35:10.144,-0.135,0.255
10:35:10.148,-0.1,0.26
10:35:10.152,-0.17,0.27
10:35:10.156,-0.18,0.22
10:35:10.160,-0.115,0.205
10:35:10.164,-0.15,0.22
10:35:10.168,-0.19,0.185
10:35:10.172,-0.2,0.155
10:35:10.176,-0.195,0.16
10:35:10.180,-0.215,0.105
10:35:10.184,-0.225,0.075
10:35:10.188,-0.23,0.04
10:35:10.192,-0.275,0.02
10:35:10.196,-0.315,0.06
10:35:10.200,-0.34,0.115
10:35:10.204,-0.345,0.135
10:35:10.208,-0.28,0.155
10:35:10.212,-0.245,0.18
10:35:10.216,-0.245,0.185
10:35:10.220,-0.23,0.11
10:35:10.224,-0.315,0.035
10:35:10.228,-0.34,0.055
10:35:10.232,-0.29,0.115
10:35:10.236,-0.2,0.155
10:35:10.240,-0.045,0.205
10:35:10.244,0.2,0.23
10:35:10.248,0.51,0.15
10:35:10.252,0.715,0.13
10:35:10.256,0.83,0.055
10:35:10.260,0.85,-0.235
10:35:10.264,0.59,-0.65
10:35:10.268,-0.195,-1.045
10:35:10.272,-1.075,-1.42
10:35:10.276,-1.59,-1.655
10:35:10.280,-1.76,-1.91
10:35:10.284,-1.67,-2.205
10:35:10.288,-1.47,-2.32
10:35:10.292,-1.12,-2.17
10:35:10.296,-0.78,-1.88
10:35:10.300,-0.625,-1.505
10:35:10.304,-0.505,-1.09
10:35:10.308,-0.4,-0.61
10:35:10.312,-0.33,-0.22
10:35:10.316,-0.36,-0.095
10:35:10.320,-0.41,-0.155
10:35:10.324,-0.465,-0.125
10:35:10.328,-0.45,-0.04
10:35:10.332,-0.425,0.005
10:35:10.336,-0.465,0.04
10:35:10.340,-0.465,0.16
10:35:10.344,-0.395,0.225
10:35:10.348,-0.345,0.27
10:35:10.352,-0.38,0.17
10:35:10.356,-0.405,0.04
10:35:10.360,-0.4,-0.02
10:35:10.364,-0.45,0.02
10:35:10.368,-0.43,0.09
10:35:10.372,-0.395,0.1
10:35:10.376,-0.36,0.1
10:35:10.380,-0.385,0.11
10:35:10.384,-0.38,0.185
10:35:10.388,-0.475,0.325
10:35:10.392,-0.51,0.28
10:35:10.396,-0.525,0.135
10:35:10.400,-0.51,0.025
10:35:10.404,-0.515,-0.005
10:35:10.408,-0.505,0.03
10:35:10.412,-0.53,0.045
10:35:10.416,-0.62,0.045
10:35:10.420,-0.625,0.115
10:35:10.424,-0.61,0.12
10:35:10.428,-0.61,0.105
10:35:10.432,-0.595,0.14
10:35:10.436,-0.625,0.205
10:35:10.440,-0.62,0.21
10:35:10.444,-0.615,0.07
10:35:10.448,-0.625,0
10:35:10.452,-0.705,0
10:35:10.456,-0.735,0.005
10:35:10.460,-0.745,0.055
10:35:10.464,-0.765,0.065
10:35:10.468,-0.835,0.095
10:35:10.472,-0.87,0.125
10:35:10.476,-0.88,0.115
10:35:10.480,-0.895,0.06
10:35:10.484,-0.88,0.015
10:35:10.488,-0.84,-0.01
10:35:10.492,-0.87,-0.01
10:35:10.496,-0.94,-0.07
10:35:10.500,-1.015,-0.2
10:35:10.504,-1.05,-0.24
10:35:10.508,-1.06,-0.155
10:35:10.512,-1.04,-0.12
10:35:10.516,-0.975,-0.165
10:35:10.520,-0.95,-0.155
10:35:10.524,-1.04,-0.16
10:35:10.528,-1.07,-0.14
10:35:10.532,-1.05,-0.16
10:35:10.536,-0.995,-0.13
10:35:10.540,-0.855,-0.09
10:35:10.544,-0.85,-0.15
10:35:10.548,-0.865,-0.23
10:35:10.552,-0.88,-0.205
10:35:10.556,-0.875,-0.17
10:35:10.560,-0.81,-0.16
10:35:10.564,-0.715,-0.155
10:35:10.568,-0.675,-0.17
10:35:10.572,-0.565,-0.135
10:35:10.576,-0.44,-0.095
10:35:10.580,-0.355,-0.035
10:35:10.584,-0.295,0.035
10:35:10.588,-0.37,0.135
10:35:10.592,-0.445,0.205
10:35:10.596,-0.43,0.335
10:35:10.600,-0.34,0.465
10:35:10.604,-0.29,0.345
10:35:10.608,-0.325,-0.035
10:35:10.612,-0.3,-0.26
10:35:10.616,-0.265,-0.175
10:35:10.620,-0.185,0.095
10:35:10.624,-0.195,0.275
10:35:10.628,-0.27,0.245
10:35:10.632,-0.235,-0.04
10:35:10.636,-0.2,-0.205
10:35:10.640,-0.18,-0.23
10:35:10.644,-0.165,-0.14
10:35:10.648,-0.155,-0.06
10:35:10.652,-0.195,-0.025
10:35:10.656,-0.175,-0.01
10:35:10.660,-0.18,0.01
10:35:10.664,-0.1,0.02
10:35:10.668,-0.05,0.015
10:35:10.672,-0.1,0.04
10:35:10.676,-0.07,0.11
10:35:10.680,-0.065,0.135
10:35:10.684,-0.07,0.14
10:35:10.688,-0.06,0.185
10:35:10.692,-0.12,0.18
10:35:10.696,-0.14,0.04
10:35:10.700,-0.12,-0.065
10:35:10.704,-0.135,-0.075
10:35:10.708,-0.175,-0.035
10:35:10.712,-0.16,0.005
10:35:10.716,-0.175,0.09
10:35:10.720,-0.12,0.145
10:35:10.724,-0.13,0.26
10:35:10.728,-0.135,0.455
10:35:10.732,-0.11,0.37
10:35:10.736,-0.08,-0.02
10:35:10.740,-0.04,-0.295
10:35:10.744,-0.065,-0.285
10:35:10.748,-0.135,-0.14
10:35:10.752,-0.195,-0.1
10:35:10.756,-0.155,-0.075
10:35:10.760,-0.13,-0.115
10:35:10.764,-0.125,-0.075
10:35:10.768,-0.15,-0.045
10:35:10.772,-0.165,-0.03
10:35:10.776,-0.155,-0.075
10:35:10.780,-0.14,-0.12
10:35:10.784,-0.14,-0.145
10:35:10.788,-0.12,-0.13
10:35:10.792,-0.095,-0.05
10:35:10.796,-0.045,0.105
10:35:10.800,-0.055,0.015
10:35:10.804,-0.095,-0.1
10:35:10.808,-0.14,-0.05
10:35:10.812,-0.145,0.095
10:35:10.816,-0.12,0.105
10:35:10.820,-0.11,0.075
10:35:10.824,-0.13,0.305
10:35:10.828,-0.105,0.36
10:35:10.832,-0.095,0.11
10:35:10.836,-0.095,-0.025
10:35:10.840,-0.11,-0.035
10:35:10.844,-0.145,-0.2
10:35:10.848,-0.1,-0.395
10:35:10.852,-0.01,-0.41
10:35:10.856,-0.01,-0.33
10:35:10.860,-0.095,-0.23
10:35:10.864,-0.115,-0.18
10:35:10.868,-0.105,-0.14
10:35:10.872,-0.115,-0.115
10:35:10.876,-0.1,-0.065
10:35:10.880,-0.105,-0.085
10:35:10.884,-0.11,-0.145
10:35:10.888,-0.135,-0.14
10:35:10.892,-0.135,-0.11
10:35:10.896,-0.13,-0.035
10:35:10.900,-0.11,0.005
10:35:10.904,-0.075,-0.075
10:35:10.908,-0.095,-0.1
10:35:10.912,-0.125,-0.12
10:35:10.916,-0.145,-0.165
10:35:10.920,-0.135,-0.125
10:35:10.924,-0.15,-0.06
10:35:10.928,-0.135,0
10:35:10.932,-0.1,0.175
10:35:10.936,-0.06,0.355
10:35:10.940,-0.025,0.325
10:35:10.944,0,0.01
10:35:10.948,0.02,-0.255
10:35:10.952,0.03,-0.28
10:35:10.956,0.055,-0.175
10:35:10.960,0.065,-0.085
10:35:10.964,0.06,-0.08
10:35:10.968,0.04,-0.155
10:35:10.972,0.12,-0.135
10:35:10.976,0.16,-0.065
10:35:10.980,0.115,-0.005
10:35:10.984,0.03,0.03
10:35:10.988,-0.06,-0.04
10:35:10.992,-0.1,-0.18
10:35:10.996,-0.04,-0.25
10:35:11.000,0,-0.18
10:35:11.004,-0.035,-0.08
10:35:11.008,-0.125,-0.115
10:35:11.012,-0.235,-0.1
10:35:11.016,-0.295,-0.04
10:35:11.020,-0.24,-0.015
10:35:11.024,-0.135,0.135
10:35:11.028,-0.11,0.305
10:35:11.032,-0.135,0.125
10:35:11.036,-0.175,-0.25
10:35:11.040,-0.18,-0.46
10:35:11.044,-0.15,-0.46
10:35:11.048,-0.08,-0.375
10:35:11.052,-0.05,-0.28
10:35:11.056,0.06,-0.195
10:35:11.060,0.225,-0.08
10:35:11.064,0.515,0
10:35:11.068,0.82,0.08
10:35:11.072,1.075,0.24
10:35:11.076,1.235,0.24
10:35:11.080,1.125,-0.075
10:35:11.084,0.565,-0.56
10:35:11.088,-0.32,-0.92
10:35:11.092,-1.045,-1.195
10:35:11.096,-1.45,-1.51
10:35:11.100,-1.475,-1.725
10:35:11.104,-1.335,-1.77
10:35:11.108,-1.165,-1.695
10:35:11.112,-0.96,-1.56
10:35:11.116,-0.8,-1.41
10:35:11.120,-0.59,-1.275
10:35:11.124,-0.435,-1.115
10:35:11.128,-0.33,-0.92
10:35:11.132,-0.3,-0.655
10:35:11.136,-0.26,-0.29
10:35:11.140,-0.27,0.03
10:35:11.144,-0.345,0.085
10:35:11.148,-0.365,-0.095
10:35:11.152,-0.35,-0.17
10:35:11.156,-0.275,0
10:35:11.160,-0.265,0.17
10:35:11.164,-0.27,0.06
10:35:11.168,-0.235,-0.18
10:35:11.172,-0.245,-0.405
10:35:11.176,-0.265,-0.41
10:35:11.180,-0.265,-0.34
10:35:11.184,-0.24,-0.285
10:35:11.188,-0.28,-0.255
10:35:11.192,-0.32,-0.22
10:35:11.196,-0.38,-0.2
10:35:11.200,-0.42,-0.19
10:35:11.204,-0.39,-0.12
10:35:11.208,-0.355,-0.1
10:35:11.212,-0.335,-0.1
10:35:11.216,-0.31,-0.085
10:35:11.220,-0.36,-0.15
10:35:11.224,-0.425,-0.175
10:35:11.228,-0.425,-0.12
10:35:11.232,-0.4,0.035
10:35:11.236,-0.425,0.155
10:35:11.240,-0.455,0.09
10:35:11.244,-0.485,0.005
10:35:11.248,-0.48,-0.195
10:35:11.252,-0.475,-0.415
10:35:11.256,-0.5,-0.5
10:35:11.260,-0.575,-0.475
10:35:11.264,-0.585,-0.33
10:35:11.268,-0.58,-0.235
10:35:11.272,-0.6,-0.205
10:35:11.276,-0.66,-0.19
10:35:11.280,-0.705,-0.23
10:35:11.284,-0.725,-0.27
10:35:11.288,-0.765,-0.295
10:35:11.292,-0.78,-0.345
10:35:11.296,-0.785,-0.375
10:35:11.300,-0.82,-0.35
10:35:11.304,-0.85,-0.385
10:35:11.308,-0.855,-0.32
10:35:11.312,-0.865,-0.125
10:35:11.316,-0.865,-0.07
10:35:11.320,-0.85,-0.215
10:35:11.324,-0.905,-0.48
10:35:11.328,-0.935,-0.625
10:35:11.332,-0.95,-0.625
10:35:11.336,-0.96,-0.565
10:35:11.340,-0.95,-0.48
10:35:11.344,-0.955,-0.32
10:35:11.348,-0.935,-0.115
10:35:11.352,-0.88,0.03
10:35:11.356,-0.825,-0.05
10:35:11.360,-0.81,-0.375
10:35:11.364,-0.75,-0.66
10:35:11.368,-0.745,-0.74
10:35:11.372,-0.73,-0.74
10:35:11.376,-0.73,-0.675
10:35:11.380,-0.68,-0.64
10:35:11.384,-0.655,-0.6
10:35:11.388,-0.585,-0.515
10:35:11.392,-0.485,-0.48
10:35:11.396,-0.45,-0.405
10:35:11.400,-0.41,-0.415
10:35:11.404,-0.4,-0.36
10:35:11.408,-0.39,-0.265
10:35:11.412,-0.4,-0.21
10:35:11.416,-0.4,-0.24
10:35:11.420,-0.385,-0.26
10:35:11.424,-0.31,-0.14
10:35:11.428,-0.27,0.215
10:35:11.432,-0.24,0.425
10:35:11.436,-0.255,0.115
10:35:11.440,-0.335,-0.4
10:35:11.444,-0.33,-0.635
10:35:11.448,-0.28,-0.65
10:35:11.452,-0.285,-0.56
10:35:11.456,-0.29,-0.45
10:35:11.460,-0.25,-0.34
10:35:11.464,-0.24,-0.285
10:35:11.468,-0.275,-0.255
10:35:11.472,-0.275,-0.225
10:35:11.476,-0.225,-0.21
10:35:11.480,-0.255,-0.25
10:35:11.484,-0.27,-0.26
10:35:11.488,-0.275,-0.19
10:35:11.492,-0.24,-0.035
10:35:11.496,-0.245,0.095
10:35:11.500,-0.25,0.11
10:35:11.504,-0.245,-0.125
10:35:11.508,-0.285,-0.405
10:35:11.512,-0.295,-0.535
10:35:11.516,-0.28,-0.41
10:35:11.520,-0.28,-0.225
10:35:11.524,-0.31,-0.205
10:35:11.528,-0.32,-0.32
10:35:11.532,-0.29,-0.45
10:35:11.536,-0.24,-0.5
10:35:11.540,-0.28,-0.49
10:35:11.544,-0.345,-0.4
10:35:11.548,-0.34,-0.275
10:35:11.552,-0.345,-0.23
10:35:11.556,-0.36,-0.15
10:35:11.560,-0.36,-0.065
10:35:11.564,-0.375,-0.025
10:35:11.568,-0.345,0.045
10:35:11.572,-0.32,-0.03
10:35:11.576,-0.3,-0.24
10:35:11.580,-0.26,-0.355
10:35:11.584,-0.24,-0.47
10:35:11.588,-0.22,-0.615
10:35:11.592,-0.21,-0.675
10:35:11.596,-0.245,-0.585
10:35:11.600,-0.345,-0.475
10:35:11.604,-0.4,-0.39
10:35:11.608,-0.365,-0.365
10:35:11.612,-0.375,-0.33
10:35:11.616,-0.415,-0.3
10:35:11.620,-0.375,-0.3
10:35:11.624,-0.345,-0.225
10:35:11.628,-0.325,-0.05
10:35:11.632,-0.35,-0.125
10:35:11.636,-0.345,-0.345
10:35:11.640,-0.315,-0.48
10:35:11.644,-0.37,-0.48
10:35:11.648,-0.375,-0.52
10:35:11.652,-0.385,-0.56
10:35:11.656,-0.39,-0.57
10:35:11.660,-0.395,-0.45
10:35:11.664,-0.4,-0.31
10:35:11.668,-0.395,-0.31
10:35:11.672,-0.425,-0.41
10:35:11.676,-0.415,-0.485
10:35:11.680,-0.35,-0.435
10:35:11.684,-0.315,-0.29
10:35:11.688,-0.325,-0.245
10:35:11.692,-0.35,-0.38
10:35:11.696,-0.355,-0.53
10:35:11.700,-0.39,-0.52
10:35:11.704,-0.425,-0.46
10:35:11.708,-0.425,-0.465
10:35:11.712,-0.4,-0.445
10:35:11.716,-0.375,-0.385
10:35:11.720,-0.34,-0.215
10:35:11.724,-0.34,-0.095
10:35:11.728,-0.345,-0.235
10:35:11.732,-0.33,-0.465
10:35:11.736,-0.315,-0.535
10:35:11.740,-0.315,-0.39
10:35:11.744,-0.285,-0.385
10:35:11.748,-0.265,-0.51
10:35:11.752,-0.285,-0.615
10:35:11.756,-0.265,-0.67
10:35:11.760,-0.25,-0.645
10:35:11.764,-0.21,-0.56
10:35:11.768,-0.16,-0.495
10:35:11.772,-0.12,-0.45
10:35:11.776,-0.175,-0.435
10:35:11.780,-0.205,-0.405
10:35:11.784,-0.17,-0.37
10:35:11.788,-0.15,-0.415
10:35:11.792,-0.17,-0.465
10:35:11.796,-0.205,-0.445
10:35:11.800,-0.215,-0.42
10:35:11.804,-0.23,-0.335
10:35:11.808,-0.225,-0.37
10:35:11.812,-0.22,-0.415
10:35:11.816,-0.22,-0.305
10:35:11.820,-0.215,-0.295
10:35:11.824,-0.24,-0.505
10:35:11.828,-0.285,-0.71
10:35:11.832,-0.34,-0.75
10:35:11.836,-0.385,-0.71
10:35:11.840,-0.38,-0.665
10:35:11.844,-0.36,-0.605
10:35:11.848,-0.365,-0.525
10:35:11.852,-0.365,-0.51
10:35:11.856,-0.345,-0.575
10:35:11.860,-0.335,-0.63
10:35:11.864,-0.28,-0.635
10:35:11.868,-0.2,-0.61
10:35:11.872,-0.13,-0.53
10:35:11.876,-0.03,-0.4
10:35:11.880,0.135,-0.285
10:35:11.884,0.42,-0.275
10:35:11.888,0.66,-0.295
10:35:11.892,0.84,-0.32
10:35:11.896,0.935,-0.47
10:35:11.900,0.64,-0.85
10:35:11.904,-0.125,-1.305
10:35:11.908,-0.945,-1.655
10:35:11.912,-1.485,-1.915
10:35:11.916,-1.695,-2.095
10:35:11.920,-1.615,-2.21
10:35:11.924,-1.465,-2.275
10:35:11.928,-1.195,-2.12
10:35:11.932,-0.915,-1.915
10:35:11.936,-0.705,-1.73
10:35:11.940,-0.625,-1.585
10:35:11.944,-0.52,-1.435
10:35:11.948,-0.435,-1.23
10:35:11.952,-0.415,-1.01
10:35:11.956,-0.41,-0.875
10:35:11.960,-0.42,-0.73
10:35:11.964,-0.42,-0.64
10:35:11.968,-0.415,-0.615
10:35:11.972,-0.4,-0.59
10:35:11.976,-0.395,-0.55
10:35:11.980,-0.44,-0.52
10:35:11.984,-0.45,-0.495
10:35:11.988,-0.45,-0.42
10:35:11.992,-0.435,-0.37
10:35:11.996,-0.41,-0.32
10:35:12.000,-0.425,-0.43
10:35:12.004,-0.43,-0.635
10:35:12.008,-0.455,-0.72
10:35:12.012,-0.455,-0.65
10:35:12.016,-0.45,-0.565
10:35:12.020,-0.51,-0.61
10:35:12.024,-0.535,-0.56
10:35:12.028,-0.53,-0.47
10:35:12.032,-0.51,-0.43
10:35:12.036,-0.47,-0.54
10:35:12.040,-0.425,-0.51
10:35:12.044,-0.415,-0.25
10:35:12.048,-0.46,-0.115
10:35:12.052,-0.485,-0.405
10:35:12.056,-0.52,-0.765
10:35:12.060,-0.545,-0.855
10:35:12.064,-0.565,-0.795
10:35:12.068,-0.59,-0.705
10:35:12.072,-0.615,-0.66
10:35:12.076,-0.63,-0.635
10:35:12.080,-0.645,-0.605
10:35:12.084,-0.645,-0.59
10:35:12.088,-0.675,-0.6
10:35:12.092,-0.695,-0.595
10:35:12.096,-0.705,-0.63
10:35:12.100,-0.765,-0.655
10:35:12.104,-0.785,-0.665
10:35:12.108,-0.835,-0.64
10:35:12.112,-0.86,-0.58
10:35:12.116,-0.885,-0.47
10:35:12.120,-0.86,-0.39
10:35:12.124,-0.87,-0.4
10:35:12.128,-0.9,-0.505
10:35:12.132,-0.92,-0.64
10:35:12.136,-0.925,-0.72
10:35:12.140,-0.92,-0.72
10:35:12.144,-0.92,-0.735
10:35:12.148,-0.935,-0.835
10:35:12.152,-0.975,-0.97
10:35:12.156,-0.995,-1.01
10:35:12.160,-1.04,-0.95
10:35:12.164,-1.055,-0.905
10:35:12.168,-1,-0.875
10:35:12.172,-0.965,-0.845
10:35:12.176,-0.96,-0.875
10:35:12.180,-0.945,-0.875
10:35:12.184,-0.92,-0.875
10:35:12.188,-0.85,-0.865
10:35:12.192,-0.785,-0.745
10:35:12.196,-0.775,-0.605
10:35:12.200,-0.73,-0.63
10:35:12.204,-0.675,-0.765
10:35:12.208,-0.65,-0.825
10:35:12.212,-0.62,-0.825
10:35:12.216,-0.585,-0.86
10:35:12.220,-0.53,-0.895
10:35:12.224,-0.47,-0.87
10:35:12.228,-0.415,-0.825
10:35:12.232,-0.4,-0.74
10:35:12.236,-0.38,-0.675
10:35:12.240,-0.375,-0.61
10:35:12.244,-0.31,-0.485
10:35:12.248,-0.28,-0.415
10:35:12.252,-0.255,-0.5
10:35:12.256,-0.25,-0.55
10:35:12.260,-0.26,-0.51
10:35:12.264,-0.25,-0.5
10:35:12.268,-0.24,-0.56
10:35:12.272,-0.22,-0.6
10:35:12.276,-0.205,-0.64
10:35:12.280,-0.195,-0.64
10:35:12.284,-0.195,-0.635
10:35:12.288,-0.185,-0.58
10:35:12.292,-0.21,-0.52
10:35:12.296,-0.225,-0.465
10:35:12.300,-0.225,-0.465
10:35:12.304,-0.25,-0.465
10:35:12.308,-0.265,-0.515
10:35:12.312,-0.235,-0.495
10:35:12.316,-0.22,-0.485
10:35:12.320,-0.23,-0.48
10:35:12.324,-0.21,-0.475
10:35:12.328,-0.185,-0.495
10:35:12.332,-0.19,-0.515
10:35:12.336,-0.27,-0.525
10:35:12.340,-0.28,-0.51
10:35:12.344,-0.24,-0.54
10:35:12.348,-0.24,-0.53
10:35:12.352,-0.275,-0.445
10:35:12.356,-0.285,-0.445
10:35:12.360,-0.23,-0.525
10:35:12.364,-0.22,-0.625
10:35:12.368,-0.21,-0.61
10:35:12.372,-0.2,-0.61
10:35:12.376,-0.21,-0.58
10:35:12.380,-0.22,-0.56
10:35:12.384,-0.265,-0.55
10:35:12.388,-0.305,-0.51
10:35:12.392,-0.31,-0.49
10:35:12.396,-0.285,-0.455
10:35:12.400,-0.26,-0.44
10:35:12.404,-0.255,-0.41
10:35:12.408,-0.255,-0.455
10:35:12.412,-0.245,-0.6
10:35:12.416,-0.185,-0.68
10:35:12.420,-0.2,-0.635
10:35:12.424,-0.195,-0.48
10:35:12.428,-0.27,-0.42
10:35:12.432,-0.295,-0.615
10:35:12.436,-0.305,-0.71
10:35:12.440,-0.28,-0.735
10:35:12.444,-0.27,-0.7
10:35:12.448,-0.275,-0.67
10:35:12.452,-0.275,-0.6
10:35:12.456,-0.26,-0.635
10:35:12.460,-0.27,-0.615
10:35:12.464,-0.285,-0.635
10:35:12.468,-0.26,-0.62
10:35:12.472,-0.245,-0.58
10:35:12.476,-0.255,-0.605
10:35:12.480,-0.275,-0.62
10:35:12.484,-0.3,-0.615
10:35:12.488,-0.295,-0.62
10:35:12.492,-0.315,-0.635
10:35:12.496,-0.3,-0.625
10:35:12.500,-0.31,-0.65
10:35:12.504,-0.275,-0.65
10:35:12.508,-0.25,-0.66
10:35:12.512,-0.28,-0.63
10:35:12.516,-0.28,-0.62
10:35:12.520,-0.295,-0.62
10:35:12.524,-0.305,-0.59
10:35:12.528,-0.34,-0.6
10:35:12.532,-0.355,-0.62
10:35:12.536,-0.34,-0.635
10:35:12.540,-0.34,-0.615
10:35:12.544,-0.355,-0.645
10:35:12.548,-0.325,-0.62
10:35:12.552,-0.335,-0.59
10:35:12.556,-0.315,-0.64
10:35:12.560,-0.32,-0.72
10:35:12.564,-0.33,-0.725
10:35:12.568,-0.345,-0.7
10:35:12.572,-0.345,-0.685
10:35:12.576,-0.37,-0.66
10:35:12.580,-0.385,-0.68
10:35:12.584,-0.29,-0.665
10:35:12.588,-0.225,-0.665
10:35:12.592,-0.225,-0.65
10:35:12.596,-0.19,-0.62
10:35:12.600,-0.195,-0.575
10:35:12.604,-0.19,-0.54
10:35:12.608,-0.21,-0.545
10:35:12.612,-0.21,-0.56
10:35:12.616,-0.17,-0.6
10:35:12.620,-0.23,-0.615
10:35:12.624,-0.265,-0.635
10:35:12.628,-0.26,-0.625
10:35:12.632,-0.27,-0.685
10:35:12.636,-0.27,-0.745
10:35:12.640,-0.27,-0.775
10:35:12.644,-0.29,-0.735
10:35:12.648,-0.33,-0.75
10:35:12.652,-0.345,-0.73
10:35:12.656,-0.39,-0.735
10:35:12.660,-0.415,-0.7
10:35:12.664,-0.455,-0.725
10:35:12.668,-0.44,-0.735
10:35:12.672,-0.425,-0.75
10:35:12.676,-0.415,-0.775
10:35:12.680,-0.425,-0.76
10:35:12.684,-0.405,-0.76
10:35:12.688,-0.355,-0.725
10:35:12.692,-0.285,-0.68
10:35:12.696,-0.205,-0.635
10:35:12.700,-0.055,-0.625
10:35:12.704,0.155,-0.62
10:35:12.708,0.38,-0.62
10:35:12.712,0.52,-0.61
10:35:12.716,0.635,-0.64
10:35:12.720,0.69,-0.93
10:35:12.724,0.565,-1.32
10:35:12.728,-0.08,-1.685
10:35:12.732,-1.025,-1.99
10:35:12.736,-1.65,-2.285
10:35:12.740,-1.91,-2.59
10:35:12.744,-1.87,-2.865
10:35:12.748,-1.6,-3.015
10:35:12.752,-1.24,-2.835
10:35:12.756,-0.945,-2.565
10:35:12.760,-0.755,-2.185
10:35:12.764,-0.61,-1.83
10:35:12.768,-0.52,-1.48
10:35:12.772,-0.5,-1.205
10:35:12.776,-0.465,-0.97
10:35:12.780,-0.445,-0.835
10:35:12.784,-0.39,-0.76
10:35:12.788,-0.39,-0.74
10:35:12.792,-0.405,-0.74
10:35:12.796,-0.445,-0.735
10:35:12.800,-0.425,-0.73
10:35:12.804,-0.43,-0.74
10:35:12.808,-0.43,-0.71
10:35:12.812,-0.44,-0.715
10:35:12.816,-0.435,-0.71
10:35:12.820,-0.4,-0.69
10:35:12.824,-0.47,-0.665
10:35:12.828,-0.475,-0.65
10:35:12.832,-0.495,-0.635
10:35:12.836,-0.475,-0.665
10:35:12.840,-0.485,-0.69
10:35:12.844,-0.49,-0.68
10:35:12.848,-0.5,-0.685
10:35:12.852,-0.515,-0.675
10:35:12.856,-0.525,-0.655
10:35:12.860,-0.55,-0.645
10:35:12.864,-0.555,-0.66
10:35:12.868,-0.56,-0.68
10:35:12.872,-0.57,-0.695
10:35:12.876,-0.57,-0.695
10:35:12.880,-0.535,-0.67
10:35:12.884,-0.555,-0.645
10:35:12.888,-0.565,-0.69
10:35:12.892,-0.58,-0.745
10:35:12.896,-0.59,-0.72
10:35:12.900,-0.63,-0.72
10:35:12.904,-0.65,-0.695
10:35:12.908,-0.655,-0.665
10:35:12.912,-0.675,-0.7
10:35:12.916,-0.705,-0.725
10:35:12.920,-0.755,-0.72
10:35:12.924,-0.78,-0.74
10:35:12.928,-0.81,-0.755
10:35:12.932,-0.82,-0.75
10:35:12.936,-0.85,-0.765
10:35:12.940,-0.875,-0.755
10:35:12.944,-0.9,-0.78
10:35:12.948,-0.91,-0.775
10:35:12.952,-0.95,-0.81
10:35:12.956,-0.965,-0.82
10:35:12.960,-1,-0.825
10:35:12.964,-1.035,-0.82
10:35:12.968,-1.01,-0.84
10:35:12.972,-1.005,-0.83
10:35:12.976,-1,-0.85
10:35:12.980,-1.025,-0.845
10:35:12.984,-1.045,-0.86
10:35:12.988,-1.1,-0.855
10:35:12.992,-1.09,-0.9
10:35:12.996,-1.135,-0.89
10:35:13.000,-1.125,-0.915
10:35:13.004,-1.065,-0.885
10:35:13.008,-1.035,-0.91
10:35:13.012,-0.98,-0.88
10:35:13.016,-0.91,-0.87
10:35:13.020,-0.835,-0.83
10:35:13.024,-0.79,-0.83
10:35:13.028,-0.725,-0.815
10:35:13.032,-0.64,-0.795
10:35:13.036,-0.53,-0.75
10:35:13.040,-0.44,-0.71
10:35:13.044,-0.38,-0.69
10:35:13.048,-0.315,-0.615
10:35:13.052,-0.275,-0.605
10:35:13.056,-0.25,-0.555
10:35:13.060,-0.21,-0.57
10:35:13.064,-0.165,-0.58
10:35:13.068,-0.175,-0.535
10:35:13.072,-0.18,-0.49
10:35:13.076,-0.21,-0.46
10:35:13.080,-0.225,-0.445
10:35:13.084,-0.23,-0.495
10:35:13.088,-0.27,-0.555
10:35:13.092,-0.31,-0.54
10:35:13.096,-0.315,-0.555
10:35:13.100,-0.315,-0.565
10:35:13.104,-0.205,-0.585
10:35:13.108,-0.15,-0.635
10:35:13.112,-0.125,-0.655
10:35:13.116,-0.17,-0.66
10:35:13.120,-0.165,-0.655
10:35:13.124,-0.165,-0.665
10:35:13.128,-0.17,-0.65
10:35:13.132,-0.165,-0.655
10:35:13.136,-0.195,-0.655
10:35:13.140,-0.22,-0.66
10:35:13.144,-0.255,-0.67
10:35:13.148,-0.225,-0.685
10:35:13.152,-0.23,-0.675
10:35:13.156,-0.225,-0.695
