Time,ECG1,ECG2
22:15:52.724,-0.32,0.005
22:15:52.728,-0.32,0.02
22:15:52.732,-0.32,0.035
22:15:52.736,-0.29,0.0
22:15:52.740,-0.295,0.02
22:15:52.744,-0.295,0.04
22:15:52.748,-0.27,0.01
22:15:52.752,-0.265,0.0
22:15:52.756,-0.255,0.04
22:15:52.760,-0.275,0.035
22:15:52.764,-0.28,0.02
22:15:52.768,-0.27,0.03
22:15:52.772,-0.305,0.05
22:15:52.776,-0.29,0.035
22:15:52.780,-0.285,0.035
22:15:52.784,-0.295,0.03
22:15:52.788,-0.29,0.015
22:15:52.792,-0.295,0.015
22:15:52.796,-0.29,0.02
22:15:52.800,-0.295,0.02
22:15:52.804,-0.285,0.015
22:15:52.808,-0.315,0.02
22:15:52.812,-0.3,0.03
22:15:52.816,-0.29,0.01
22:15:52.820,-0.27,0.015
22:15:52.824,-0.28,0.015
22:15:52.828,-0.315,0.005
22:15:52.832,-0.3,0.005
22:15:52.836,-0.285,0.01
22:15:52.840,-0.29,0.025
22:15:52.844,-0.295,0.02
22:15:52.848,-0.305,0.025
22:15:52.852,-0.275,0.005
22:15:52.856,-0.26,0.02
22:15:52.860,-0.28,0.035
22:15:52.864,-0.275,0.06
22:15:52.868,-0.245,0.02
22:15:52.872,-0.255,0.025
22:15:52.876,-0.26,0.035
22:15:52.880,-0.27,0.03
22:15:52.884,-0.24,0.03
22:15:52.888,-0.26,0.0
22:15:52.892,-0.265,0.02
22:15:52.896,-0.24,0.02
22:15:52.900,-0.23,0.01
22:15:52.904,-0.235,0.005
22:15:52.908,-0.24,0.01
22:15:52.912,-0.25,0.0
22:15:52.916,-0.23,0.0
22:15:52.920,-0.225,0.02
22:15:52.924,-0.25,0.01
22:15:52.928,-0.225,0.02
22:15:52.932,-0.21,0.01
22:15:52.936,-0.2,-0.005
22:15:52.940,-0.205,-0.03
22:15:52.944,-0.21,-0.03
22:15:52.948,-0.235,-0.035
22:15:52.952,-0.24,-0.03
22:15:52.956,-0.265,-0.08
22:15:52.960,-0.305,-0.055
22:15:52.964,-0.315,-0.05
22:15:52.968,-0.3,-0.04
22:15:52.972,-0.31,-0.015
22:15:52.976,-0.33,-0.005
22:15:52.980,-0.32,0.015
22:15:52.984,-0.34,0.03
22:15:52.988,-0.315,0.02
22:15:52.992,-0.325,0.01
22:15:52.996,-0.31,0.02
22:15:53.000,-0.33,0.005
22:15:53.004,-0.285,0.0
22:15:53.008,-0.305,0.005
22:15:53.012,-0.305,0.01
22:15:53.016,-0.32,-0.01
22:15:53.020,-0.33,-0.01
22:15:53.024,-0.34,0.0
22:15:53.028,-0.33,0.0
22:15:53.032,-0.32,-0.015
22:15:53.036,-0.32,-0.025
22:15:53.040,-0.325,-0.005
22:15:53.044,-0.33,-0.02
22:15:53.048,-0.31,-0.015
22:15:53.052,-0.33,0.0
22:15:53.056,-0.33,-0.015
22:15:53.060,-0.32,-0.015
22:15:53.064,-0.33,-0.005
22:15:53.068,-0.32,-0.025
22:15:53.072,-0.34,-0.02
22:15:53.076,-0.32,-0.015
22:15:53.080,-0.285,-0.015
22:15:53.084,-0.27,-0.01
22:15:53.088,-0.23,-0.01
22:15:53.092,-0.17,0.0
22:15:53.096,-0.075,-0.03
22:15:53.100,0.0,-0.025
22:15:53.104,0.07,-0.03
22:15:53.108,0.115,-0.08
22:15:53.112,0.135,-0.105
22:15:53.116,0.165,-0.175
22:15:53.120,0.155,-0.18
22:15:53.124,0.11,-0.23
22:15:53.128,0.125,-0.34
22:15:53.132,0.29,-0.505
22:15:53.136,0.545,-0.705
22:15:53.140,0.85,-0.93
22:15:53.144,1.02,-1.185
22:15:53.148,0.95,-1.27
22:15:53.152,0.61,-1.11
22:15:53.156,0.12,-0.735
22:15:53.160,-0.175,-0.355
22:15:53.164,-0.33,-0.14
22:15:53.168,-0.4,-0.015
22:15:53.172,-0.405,0.05
22:15:53.176,-0.435,0.115
22:15:53.180,-0.445,0.145
22:15:53.184,-0.445,0.15
22:15:53.188,-0.455,0.155
22:15:53.192,-0.465,0.125
22:15:53.196,-0.45,0.105
22:15:53.200,-0.46,0.115
22:15:53.204,-0.475,0.125
22:15:53.208,-0.46,0.14
22:15:53.212,-0.45,0.135
22:15:53.216,-0.47,0.115
22:15:53.220,-0.49,0.14
22:15:53.224,-0.48,0.12
22:15:53.228,-0.485,0.11
22:15:53.232,-0.47,0.135
22:15:53.236,-0.485,0.145
22:15:53.240,-0.495,0.135
22:15:53.244,-0.515,0.115
22:15:53.248,-0.51,0.125
22:15:53.252,-0.52,0.105
22:15:53.256,-0.52,0.12
22:15:53.260,-0.52,0.115
22:15:53.264,-0.52,0.08
22:15:53.268,-0.54,0.09
22:15:53.272,-0.55,0.09
22:15:53.276,-0.525,0.075
22:15:53.280,-0.54,0.09
22:15:53.284,-0.53,0.1
22:15:53.288,-0.54,0.095
22:15:53.292,-0.535,0.1
22:15:53.296,-0.53,0.1
22:15:53.300,-0.53,0.095
22:15:53.304,-0.525,0.1
22:15:53.308,-0.535,0.12
22:15:53.312,-0.51,0.11
22:15:53.316,-0.5,0.13
22:15:53.320,-0.51,0.11
22:15:53.324,-0.5,0.115
22:15:53.328,-0.485,0.12
22:15:53.332,-0.51,0.11
22:15:53.336,-0.5,0.115
22:15:53.340,-0.48,0.1
22:15:53.344,-0.49,0.11
22:15:53.348,-0.48,0.095
22:15:53.352,-0.47,0.095
22:15:53.356,-0.46,0.085
22:15:53.360,-0.455,0.065
22:15:53.364,-0.455,0.065
22:15:53.368,-0.45,0.055
22:15:53.372,-0.44,0.05
22:15:53.376,-0.42,0.03
22:15:53.380,-0.425,0.025
22:15:53.384,-0.405,0.015
22:15:53.388,-0.395,0.02
22:15:53.392,-0.4,0.02
22:15:53.396,-0.38,0.01
22:15:53.400,-0.38,0.0
22:15:53.404,-0.365,0.02
22:15:53.408,-0.335,0.0
22:15:53.412,-0.34,0.02
22:15:53.416,-0.32,0.0
22:15:53.420,-0.29,0.0
22:15:53.424,-0.275,0.02
22:15:53.428,-0.31,0.02
22:15:53.432,-0.32,0.02
22:15:53.436,-0.295,0.02
22:15:53.440,-0.3,0.025
22:15:53.444,-0.265,0.02
22:15:53.448,-0.28,0.03
22:15:53.452,-0.28,0.015
22:15:53.456,-0.275,-0.01
22:15:53.460,-0.275,0.005
22:15:53.464,-0.29,0.02
22:15:53.468,-0.29,0.01
22:15:53.472,-0.295,0.025
22:15:53.476,-0.285,0.02
22:15:53.480,-0.31,0.02
22:15:53.484,-0.3,0.025
22:15:53.488,-0.3,0.015
22:15:53.492,-0.32,0.01
22:15:53.496,-0.34,0.0
22:15:53.500,-0.33,0.02
22:15:53.504,-0.3,0.03
22:15:53.508,-0.305,0.035
22:15:53.512,-0.31,0.015
22:15:53.516,-0.32,0.01
22:15:53.520,-0.32,0.005
22:15:53.524,-0.32,0.02
22:15:53.528,-0.31,0.015
22:15:53.532,-0.32,0.01
22:15:53.536,-0.28,0.015
22:15:53.540,-0.3,0.0
22:15:53.544,-0.32,0.015
22:15:53.548,-0.29,0.015
22:15:53.552,-0.295,0.01
22:15:53.556,-0.275,0.0
22:15:53.560,-0.305,0.015
22:15:53.564,-0.29,0.015
22:15:53.568,-0.28,-0.015
22:15:53.572,-0.29,-0.005
22:15:53.576,-0.305,0.0
22:15:53.580,-0.33,-0.03
22:15:53.584,-0.32,-0.02
22:15:53.588,-0.31,-0.005
22:15:53.592,-0.29,-0.015
22:15:53.596,-0.31,-0.02
22:15:53.600,-0.3,-0.02
22:15:53.604,-0.28,-0.06
22:15:53.608,-0.295,-0.03
22:15:53.612,-0.29,-0.045
22:15:53.616,-0.305,0.0
22:15:53.620,-0.285,-0.03
22:15:53.624,-0.28,-0.03
22:15:53.628,-0.31,-0.03
22:15:53.632,-0.305,-0.03
22:15:53.636,-0.27,-0.035
22:15:53.640,-0.245,-0.035
22:15:53.644,-0.21,-0.015
22:15:53.648,-0.205,-0.02
22:15:53.652,-0.185,-0.035
22:15:53.656,-0.19,0.0
22:15:53.660,-0.175,0.0
22:15:53.664,-0.17,0.005
22:15:53.668,-0.17,-0.005
22:15:53.672,-0.16,-0.02
22:15:53.676,-0.16,-0.055
22:15:53.680,-0.185,-0.095
22:15:53.684,-0.23,-0.12
22:15:53.688,-0.24,-0.12
22:15:53.692,-0.31,-0.125
22:15:53.696,-0.315,-0.105
22:15:53.700,-0.335,-0.105
22:15:53.704,-0.345,-0.06
22:15:53.708,-0.345,-0.05
22:15:53.712,-0.36,-0.045
22:15:53.716,-0.35,-0.045
22:15:53.720,-0.34,-0.08
22:15:53.724,-0.31,-0.06
22:15:53.728,-0.32,-0.05
22:15:53.732,-0.315,-0.075
22:15:53.736,-0.315,-0.06
22:15:53.740,-0.32,-0.07
22:15:53.744,-0.33,-0.055
22:15:53.748,-0.31,-0.06
22:15:53.752,-0.3,-0.08
22:15:53.756,-0.295,-0.07
22:15:53.760,-0.305,-0.07
22:15:53.764,-0.285,-0.06
22:15:53.768,-0.29,-0.05
22:15:53.772,-0.29,-0.04
22:15:53.776,-0.3,-0.065
22:15:53.780,-0.3,-0.08
22:15:53.784,-0.27,-0.06
22:15:53.788,-0.29,-0.075
22:15:53.792,-0.275,-0.06
22:15:53.796,-0.25,-0.075
22:15:53.800,-0.205,-0.07
22:15:53.804,-0.15,-0.075
22:15:53.808,-0.07,-0.08
22:15:53.812,0.03,-0.095
22:15:53.816,0.12,-0.155
22:15:53.820,0.18,-0.195
22:15:53.824,0.22,-0.225
22:15:53.828,0.275,-0.23
22:15:53.832,0.295,-0.265
22:15:53.836,0.28,-0.32
22:15:53.840,0.3,-0.41
22:15:53.844,0.445,-0.54
22:15:53.848,0.745,-0.76
22:15:53.852,1.04,-0.995
22:15:53.856,1.135,-1.165
22:15:53.860,0.93,-1.21
22:15:53.864,0.485,-0.965
22:15:53.868,0.07,-0.585
22:15:53.872,-0.19,-0.31
22:15:53.876,-0.28,-0.17
22:15:53.880,-0.315,-0.08
22:15:53.884,-0.34,0.02
22:15:53.888,-0.36,0.075
22:15:53.892,-0.405,0.09
22:15:53.896,-0.405,0.1
22:15:53.900,-0.435,0.09
22:15:53.904,-0.455,0.07
22:15:53.908,-0.44,0.06
22:15:53.912,-0.455,0.045
22:15:53.916,-0.47,0.055
22:15:53.920,-0.48,0.05
22:15:53.924,-0.485,0.065
22:15:53.928,-0.475,0.05
22:15:53.932,-0.47,0.05
22:15:53.936,-0.48,0.055
22:15:53.940,-0.49,0.055
22:15:53.944,-0.48,0.045
22:15:53.948,-0.495,0.05
22:15:53.952,-0.485,0.055
22:15:53.956,-0.49,0.04
22:15:53.960,-0.5,0.045
22:15:53.964,-0.495,0.04
22:15:53.968,-0.505,0.05
22:15:53.972,-0.5,0.065
22:15:53.976,-0.49,0.065
22:15:53.980,-0.49,0.065
22:15:53.984,-0.51,0.08
22:15:53.988,-0.515,0.075
22:15:53.992,-0.51,0.075
22:15:53.996,-0.515,0.065
22:15:54.000,-0.535,0.095
22:15:54.004,-0.54,0.09
22:15:54.008,-0.535,0.075
22:15:54.012,-0.55,0.08
22:15:54.016,-0.535,0.095
22:15:54.020,-0.55,0.1
22:15:54.024,-0.565,0.08
22:15:54.028,-0.535,0.085
22:15:54.032,-0.55,0.085
22:15:54.036,-0.525,0.08
22:15:54.040,-0.51,0.085
22:15:54.044,-0.525,0.06
22:15:54.048,-0.505,0.06
22:15:54.052,-0.505,0.075
22:15:54.056,-0.48,0.05
22:15:54.060,-0.485,0.055
22:15:54.064,-0.465,0.05
22:15:54.068,-0.46,0.015
22:15:54.072,-0.44,0.035
22:15:54.076,-0.42,0.02
22:15:54.080,-0.41,0.01
22:15:54.084,-0.38,0.005
22:15:54.088,-0.38,0.005
22:15:54.092,-0.37,-0.005
22:15:54.096,-0.355,0.02
22:15:54.100,-0.34,-0.015
22:15:54.104,-0.325,0.0
22:15:54.108,-0.32,-0.015
22:15:54.112,-0.33,0.0
22:15:54.116,-0.34,0.01
22:15:54.120,-0.3,-0.025
22:15:54.124,-0.3,-0.005
22:15:54.128,-0.285,-0.015
22:15:54.132,-0.305,-0.015
22:15:54.136,-0.32,-0.015
22:15:54.140,-0.32,-0.025
22:15:54.144,-0.315,-0.01
22:15:54.148,-0.3,0.0
22:15:54.152,-0.3,-0.03
22:15:54.156,-0.3,-0.005
22:15:54.160,-0.29,-0.015
22:15:54.164,-0.295,-0.01
22:15:54.168,-0.3,0.005
22:15:54.172,-0.305,-0.015
22:15:54.176,-0.3,0.005
22:15:54.180,-0.315,0.005
22:15:54.184,-0.305,-0.005
22:15:54.188,-0.29,0.0
22:15:54.192,-0.285,0.005
22:15:54.196,-0.285,0.015
22:15:54.200,-0.31,0.02
22:15:54.204,-0.295,0.03
22:15:54.208,-0.29,0.045
22:15:54.212,-0.29,0.045
22:15:54.216,-0.305,0.02
22:15:54.220,-0.295,0.02
22:15:54.224,-0.305,0.025
22:15:54.228,-0.29,0.035
22:15:54.232,-0.295,0.035
22:15:54.236,-0.295,0.025
22:15:54.240,-0.31,0.03
22:15:54.244,-0.32,0.045
22:15:54.248,-0.315,0.04
22:15:54.252,-0.3,0.025
22:15:54.256,-0.285,0.04
22:15:54.260,-0.305,0.05
22:15:54.264,-0.29,0.02
22:15:54.268,-0.28,0.01
22:15:54.272,-0.235,0.005
22:15:54.276,-0.23,0.02
22:15:54.280,-0.185,0.04
22:15:54.284,-0.165,0.045
22:15:54.288,-0.15,0.055
22:15:54.292,-0.16,0.045
22:15:54.296,-0.16,0.05
22:15:54.300,-0.13,0.055
22:15:54.304,-0.115,0.045
22:15:54.308,-0.14,0.01
22:15:54.312,-0.17,-0.01
22:15:54.316,-0.19,-0.03
22:15:54.320,-0.2,-0.045
22:15:54.324,-0.24,-0.055
22:15:54.328,-0.27,-0.025
22:15:54.332,-0.305,-0.03
22:15:54.336,-0.325,-0.015
22:15:54.340,-0.355,0.005
22:15:54.344,-0.35,0.035
22:15:54.348,-0.355,0.055
22:15:54.352,-0.35,0.04
22:15:54.356,-0.33,0.02
22:15:54.360,-0.35,0.035
22:15:54.364,-0.35,0.03
22:15:54.368,-0.335,0.025
22:15:54.372,-0.33,0.015
22:15:54.376,-0.32,0.005
22:15:54.380,-0.335,0.0
22:15:54.384,-0.335,0.0
22:15:54.388,-0.325,0.01
22:15:54.392,-0.335,-0.005
22:15:54.396,-0.31,-0.005
22:15:54.400,-0.3,0.0
22:15:54.404,-0.31,-0.01
22:15:54.408,-0.305,0.005
22:15:54.412,-0.3,0.0
22:15:54.416,-0.285,0.0
22:15:54.420,-0.26,0.0
22:15:54.424,-0.295,0.0
22:15:54.428,-0.29,0.0
22:15:54.432,-0.255,0.0
22:15:54.436,-0.24,0.0
22:15:54.440,-0.23,0.015
22:15:54.444,-0.165,0.005
22:15:54.448,-0.11,0.0
22:15:54.452,-0.015,-0.015
22:15:54.456,0.06,-0.03
22:15:54.460,0.115,-0.055
22:15:54.464,0.155,-0.1
22:15:54.468,0.16,-0.14
22:15:54.472,0.215,-0.16
22:15:54.476,0.21,-0.215
22:15:54.480,0.205,-0.315
22:15:54.484,0.27,-0.475
22:15:54.488,0.495,-0.675
22:15:54.492,0.83,-0.9
22:15:54.496,1.035,-1.125
22:15:54.500,1.06,-1.28
22:15:54.504,0.785,-1.22
22:15:54.508,0.285,-0.865
22:15:54.512,-0.13,-0.49
22:15:54.516,-0.295,-0.25
22:15:54.520,-0.385,-0.1
22:15:54.524,-0.4,-0.01
22:15:54.528,-0.405,0.05
22:15:54.532,-0.405,0.075
22:15:54.536,-0.405,0.125
22:15:54.540,-0.41,0.14
22:15:54.544,-0.435,0.14
22:15:54.548,-0.42,0.115
22:15:54.552,-0.43,0.125
22:15:54.556,-0.435,0.095
22:15:54.560,-0.435,0.12
22:15:54.564,-0.42,0.105
22:15:54.568,-0.44,0.11
22:15:54.572,-0.45,0.105
22:15:54.576,-0.435,0.09
22:15:54.580,-0.455,0.09
22:15:54.584,-0.465,0.075
22:15:54.588,-0.47,0.1
22:15:54.592,-0.47,0.1
22:15:54.596,-0.47,0.09
22:15:54.600,-0.48,0.1
22:15:54.604,-0.49,0.085
22:15:54.608,-0.485,0.085
22:15:54.612,-0.495,0.095
22:15:54.616,-0.5,0.085
22:15:54.620,-0.5,0.105
22:15:54.624,-0.5,0.105
22:15:54.628,-0.51,0.095
22:15:54.632,-0.51,0.105
22:15:54.636,-0.52,0.105
22:15:54.640,-0.53,0.12
22:15:54.644,-0.495,0.125
22:15:54.648,-0.49,0.12
22:15:54.652,-0.505,0.115
22:15:54.656,-0.52,0.105
22:15:54.660,-0.49,0.125
22:15:54.664,-0.505,0.12
22:15:54.668,-0.525,0.14
22:15:54.672,-0.505,0.12
22:15:54.676,-0.495,0.12
22:15:54.680,-0.49,0.125
22:15:54.684,-0.485,0.11
22:15:54.688,-0.505,0.1
22:15:54.692,-0.475,0.08
22:15:54.696,-0.465,0.095
22:15:54.700,-0.465,0.095
22:15:54.704,-0.46,0.055
22:15:54.708,-0.445,0.065
22:15:54.712,-0.435,0.035
22:15:54.716,-0.415,0.035
22:15:54.720,-0.415,0.04
22:15:54.724,-0.4,0.025
22:15:54.728,-0.375,0.015
22:15:54.732,-0.375,0.02
22:15:54.736,-0.37,0.015
22:15:54.740,-0.355,0.005
22:15:54.744,-0.335,0.005
22:15:54.748,-0.34,0.005
22:15:54.752,-0.315,0.0
22:15:54.756,-0.315,0.0
22:15:54.760,-0.295,-0.015
22:15:54.764,-0.31,0.0
22:15:54.768,-0.295,0.0
22:15:54.772,-0.3,0.005
22:15:54.776,-0.28,0.0
22:15:54.780,-0.29,-0.005
22:15:54.784,-0.295,0.0
22:15:54.788,-0.29,0.005
22:15:54.792,-0.305,0.0
22:15:54.796,-0.305,0.005
22:15:54.800,-0.32,-0.005
22:15:54.804,-0.315,0.005
22:15:54.808,-0.305,0.0
22:15:54.812,-0.3,0.015
22:15:54.816,-0.32,0.02
22:15:54.820,-0.315,0.005
22:15:54.824,-0.305,0.01
22:15:54.828,-0.325,0.0
22:15:54.832,-0.32,0.0
22:15:54.836,-0.32,0.02
22:15:54.840,-0.31,0.0
22:15:54.844,-0.32,0.0
22:15:54.848,-0.32,0.025
22:15:54.852,-0.32,0.025
22:15:54.856,-0.315,0.02
22:15:54.860,-0.305,0.005
22:15:54.864,-0.33,0.025
22:15:54.868,-0.32,0.015
22:15:54.872,-0.315,0.02
22:15:54.876,-0.315,0.005
22:15:54.880,-0.315,0.02
22:15:54.884,-0.315,0.025
22:15:54.888,-0.31,0.035
22:15:54.892,-0.305,0.025
22:15:54.896,-0.305,0.025
22:15:54.900,-0.315,0.035
22:15:54.904,-0.315,0.015
22:15:54.908,-0.29,0.01
22:15:54.912,-0.305,0.03
22:15:54.916,-0.31,0.0
22:15:54.920,-0.3,0.015
22:15:54.924,-0.29,0.03
22:15:54.928,-0.255,0.02
22:15:54.932,-0.23,0.03
22:15:54.936,-0.19,0.02
22:15:54.940,-0.195,0.02
22:15:54.944,-0.175,0.025
22:15:54.948,-0.19,0.03
22:15:54.952,-0.18,0.03
22:15:54.956,-0.175,0.01
22:15:54.960,-0.17,-0.02
22:15:54.964,-0.205,-0.01
22:15:54.968,-0.22,-0.03
22:15:54.972,-0.215,-0.07
22:15:54.976,-0.24,-0.09
22:15:54.980,-0.27,-0.075
22:15:54.984,-0.31,-0.065
22:15:54.988,-0.33,-0.04
22:15:54.992,-0.34,0.0
22:15:54.996,-0.37,0.01
22:15:55.000,-0.375,0.025
22:15:55.004,-0.365,0.02
22:15:55.008,-0.365,0.015
22:15:55.012,-0.37,0.02
22:15:55.016,-0.355,0.015
22:15:55.020,-0.35,-0.005
22:15:55.024,-0.36,0.0
22:15:55.028,-0.365,0.005
22:15:55.032,-0.375,-0.005
22:15:55.036,-0.35,-0.005
22:15:55.040,-0.33,-0.02
22:15:55.044,-0.345,-0.005
22:15:55.048,-0.35,0.0
22:15:55.052,-0.335,-0.035
22:15:55.056,-0.33,-0.01
22:15:55.060,-0.335,-0.01
22:15:55.064,-0.355,-0.01
22:15:55.068,-0.335,-0.025
22:15:55.072,-0.32,-0.035
22:15:55.076,-0.33,-0.025
22:15:55.080,-0.315,-0.01
22:15:55.084,-0.305,-0.055
22:15:55.088,-0.295,-0.045
22:15:55.092,-0.285,-0.025
22:15:55.096,-0.255,-0.025
22:15:55.100,-0.175,-0.005
22:15:55.104,-0.09,-0.03
22:15:55.108,0.0,-0.035
22:15:55.112,0.065,-0.08
22:15:55.116,0.115,-0.13
22:15:55.120,0.145,-0.16
22:15:55.124,0.17,-0.19
22:15:55.128,0.155,-0.215
22:15:55.132,0.15,-0.28
22:15:55.136,0.18,-0.42
22:15:55.140,0.33,-0.615
22:15:55.144,0.635,-0.805
22:15:55.148,0.91,-1.06
22:15:55.152,1.025,-1.23
22:15:55.156,0.89,-1.275
22:15:55.160,0.455,-1.02
22:15:55.164,-0.025,-0.62
22:15:55.168,-0.3,-0.3
22:15:55.172,-0.395,-0.13
22:15:55.176,-0.475,-0.01
22:15:55.180,-0.455,0.07
22:15:55.184,-0.455,0.12
22:15:55.188,-0.48,0.14
22:15:55.192,-0.495,0.155
22:15:55.196,-0.48,0.18
22:15:55.200,-0.47,0.15
22:15:55.204,-0.485,0.14
22:15:55.208,-0.46,0.14
22:15:55.212,-0.485,0.15
22:15:55.216,-0.485,0.135
22:15:55.220,-0.505,0.15
22:15:55.224,-0.5,0.13
22:15:55.228,-0.495,0.135
22:15:55.232,-0.48,0.145
22:15:55.236,-0.495,0.145
22:15:55.240,-0.49,0.15
22:15:55.244,-0.5,0.135
22:15:55.248,-0.51,0.135
22:15:55.252,-0.535,0.13
22:15:55.256,-0.52,0.14
22:15:55.260,-0.525,0.14
22:15:55.264,-0.535,0.14
22:15:55.268,-0.55,0.135
22:15:55.272,-0.55,0.11
22:15:55.276,-0.54,0.125
22:15:55.280,-0.55,0.15
22:15:55.284,-0.545,0.15
22:15:55.288,-0.55,0.135
22:15:55.292,-0.57,0.125
22:15:55.296,-0.575,0.12
22:15:55.300,-0.57,0.135
22:15:55.304,-0.56,0.14
22:15:55.308,-0.56,0.13
22:15:55.312,-0.53,0.13
22:15:55.316,-0.54,0.14
22:15:55.320,-0.55,0.13
22:15:55.324,-0.55,0.14
22:15:55.328,-0.525,0.16
22:15:55.332,-0.495,0.125
22:15:55.336,-0.52,0.125
22:15:55.340,-0.52,0.125
22:15:55.344,-0.505,0.135
22:15:55.348,-0.5,0.11
22:15:55.352,-0.5,0.095
22:15:55.356,-0.485,0.105
22:15:55.360,-0.475,0.09
22:15:55.364,-0.48,0.06
22:15:55.368,-0.455,0.065
22:15:55.372,-0.45,0.05
22:15:55.376,-0.435,0.04
22:15:55.380,-0.41,0.04
22:15:55.384,-0.43,0.045
22:15:55.388,-0.415,0.035
22:15:55.392,-0.395,0.03
22:15:55.396,-0.4,0.02
22:15:55.400,-0.4,0.005
22:15:55.404,-0.395,0.01
22:15:55.408,-0.395,0.02
22:15:55.412,-0.375,0.0
22:15:55.416,-0.365,0.0
22:15:55.420,-0.345,0.02
22:15:55.424,-0.325,0.005
22:15:55.428,-0.305,0.015
22:15:55.432,-0.31,0.02
22:15:55.436,-0.305,0.035
22:15:55.440,-0.31,0.05
22:15:55.444,-0.305,0.035
22:15:55.448,-0.3,0.005
22:15:55.452,-0.31,0.02
22:15:55.456,-0.325,0.045
22:15:55.460,-0.3,0.035
22:15:55.464,-0.325,0.03
22:15:55.468,-0.335,0.035
22:15:55.472,-0.34,0.025
22:15:55.476,-0.345,0.015
22:15:55.480,-0.345,0.005
22:15:55.484,-0.335,0.025
22:15:55.488,-0.34,0.005
22:15:55.492,-0.325,0.03
22:15:55.496,-0.32,0.035
22:15:55.500,-0.355,0.025
22:15:55.504,-0.335,0.03
22:15:55.508,-0.34,0.01
22:15:55.512,-0.33,0.03
22:15:55.516,-0.345,0.035
22:15:55.520,-0.34,0.04
22:15:55.524,-0.33,0.04
22:15:55.528,-0.35,0.04
22:15:55.532,-0.32,0.015
22:15:55.536,-0.34,0.035
22:15:55.540,-0.335,0.03
22:15:55.544,-0.315,0.025
22:15:55.548,-0.34,0.04
22:15:55.552,-0.33,0.04
22:15:55.556,-0.305,0.035
22:15:55.560,-0.31,0.055
22:15:55.564,-0.32,0.035
22:15:55.568,-0.295,0.04
22:15:55.572,-0.265,0.03
22:15:55.576,-0.225,0.025
22:15:55.580,-0.185,0.045
22:15:55.584,-0.205,0.065
22:15:55.588,-0.195,0.055
22:15:55.592,-0.185,0.045
22:15:55.596,-0.17,0.035
22:15:55.600,-0.17,0.03
22:15:55.604,-0.18,0.025
22:15:55.608,-0.18,0.01
22:15:55.612,-0.23,-0.04
22:15:55.616,-0.245,-0.045
22:15:55.620,-0.265,-0.04
22:15:55.624,-0.28,-0.05
22:15:55.628,-0.32,-0.035
22:15:55.632,-0.37,0.0
22:15:55.636,-0.36,0.015
22:15:55.640,-0.355,0.035
22:15:55.644,-0.35,0.045
22:15:55.648,-0.35,0.045
22:15:55.652,-0.345,0.03
22:15:55.656,-0.335,0.025
22:15:55.660,-0.345,0.045
22:15:55.664,-0.36,0.055
22:15:55.668,-0.355,0.025
22:15:55.672,-0.325,0.01
22:15:55.676,-0.335,0.02
22:15:55.680,-0.335,0.015
22:15:55.684,-0.315,0.0
22:15:55.688,-0.325,-0.01
22:15:55.692,-0.33,0.0
22:15:55.696,-0.34,0.0
22:15:55.700,-0.365,0.0
22:15:55.704,-0.345,-0.005
22:15:55.708,-0.335,-0.015
22:15:55.712,-0.355,-0.015
22:15:55.716,-0.335,-0.025
22:15:55.720,-0.34,-0.02
22:15:55.724,-0.325,-0.005
22:15:55.728,-0.315,0.01
22:15:55.732,-0.3,-0.025
22:15:55.736,-0.275,-0.025
22:15:55.740,-0.22,-0.01
22:15:55.744,-0.165,-0.03
22:15:55.748,-0.095,-0.025
22:15:55.752,0.01,-0.035
22:15:55.756,0.115,-0.08
22:15:55.760,0.155,-0.125
22:15:55.764,0.21,-0.15
22:15:55.768,0.24,-0.16
22:15:55.772,0.24,-0.195
22:15:55.776,0.24,-0.27
22:15:55.780,0.26,-0.385
22:15:55.784,0.435,-0.585
22:15:55.788,0.74,-0.815
22:15:55.792,0.995,-1.035
22:15:55.796,1.105,-1.185
22:15:55.800,0.92,-1.21
22:15:55.804,0.475,-0.965
22:15:55.808,0.025,-0.575
22:15:55.812,-0.235,-0.295
22:15:55.816,-0.34,-0.155
22:15:55.820,-0.39,-0.05
22:15:55.824,-0.405,0.055
22:15:55.828,-0.44,0.11
22:15:55.832,-0.45,0.11
22:15:55.836,-0.46,0.115
22:15:55.840,-0.475,0.095
22:15:55.844,-0.49,0.11
22:15:55.848,-0.48,0.085
22:15:55.852,-0.475,0.1
22:15:55.856,-0.485,0.1
22:15:55.860,-0.495,0.11
22:15:55.864,-0.485,0.1
22:15:55.868,-0.465,0.095
22:15:55.872,-0.485,0.085
22:15:55.876,-0.465,0.125
22:15:55.880,-0.49,0.11
22:15:55.884,-0.47,0.105
22:15:55.888,-0.47,0.095
22:15:55.892,-0.485,0.095
22:15:55.896,-0.5,0.085
22:15:55.900,-0.495,0.08
22:15:55.904,-0.5,0.1
22:15:55.908,-0.52,0.1
22:15:55.912,-0.52,0.095
22:15:55.916,-0.55,0.1
22:15:55.920,-0.555,0.095
22:15:55.924,-0.575,0.085
22:15:55.928,-0.565,0.1
22:15:55.932,-0.55,0.095
22:15:55.936,-0.565,0.1
22:15:55.940,-0.565,0.115
22:15:55.944,-0.565,0.085
22:15:55.948,-0.565,0.075
22:15:55.952,-0.55,0.085
22:15:55.956,-0.54,0.1
22:15:55.960,-0.56,0.11
22:15:55.964,-0.565,0.09
22:15:55.968,-0.545,0.1
22:15:55.972,-0.55,0.1
22:15:55.976,-0.52,0.105
22:15:55.980,-0.495,0.08
22:15:55.984,-0.48,0.11
22:15:55.988,-0.48,0.105
22:15:55.992,-0.465,0.085
22:15:55.996,-0.475,0.095
22:15:56.000,-0.45,0.085
22:15:56.004,-0.44,0.075
22:15:56.008,-0.425,0.08
22:15:56.012,-0.425,0.055
22:15:56.016,-0.405,0.03
22:15:56.020,-0.395,0.035
22:15:56.024,-0.4,0.03
22:15:56.028,-0.4,0.03
22:15:56.032,-0.395,0.015
22:15:56.036,-0.37,0.015
22:15:56.040,-0.35,0.0
22:15:56.044,-0.38,0.01
22:15:56.048,-0.35,-0.005
22:15:56.052,-0.335,-0.01
22:15:56.056,-0.32,-0.015
22:15:56.060,-0.32,-0.01
22:15:56.064,-0.325,0.005
22:15:56.068,-0.31,-0.015
22:15:56.072,-0.32,-0.025
22:15:56.076,-0.32,0.0
22:15:56.080,-0.32,-0.015
22:15:56.084,-0.305,-0.005
22:15:56.088,-0.285,-0.02
22:15:56.092,-0.28,-0.01
22:15:56.096,-0.265,-0.01
22:15:56.100,-0.27,-0.005
22:15:56.104,-0.275,0.015
22:15:56.108,-0.28,0.01
22:15:56.112,-0.275,0.03
22:15:56.116,-0.29,0.015
22:15:56.120,-0.275,0.025
22:15:56.124,-0.28,0.03
22:15:56.128,-0.295,0.025
22:15:56.132,-0.295,0.01
22:15:56.136,-0.29,0.025
22:15:56.140,-0.29,0.015
22:15:56.144,-0.32,0.01
22:15:56.148,-0.31,0.025
22:15:56.152,-0.295,0.01
22:15:56.156,-0.3,0.03
22:15:56.160,-0.305,0.01
22:15:56.164,-0.305,0.03
22:15:56.168,-0.3,0.015
22:15:56.172,-0.295,0.01
22:15:56.176,-0.29,0.005
22:15:56.180,-0.285,0.015
22:15:56.184,-0.295,0.01
22:15:56.188,-0.275,0.02
22:15:56.192,-0.275,0.03
22:15:56.196,-0.265,0.03
22:15:56.200,-0.245,0.045
22:15:56.204,-0.25,0.045
22:15:56.208,-0.24,0.035
22:15:56.212,-0.26,0.03
22:15:56.216,-0.215,0.06
22:15:56.220,-0.175,0.06
22:15:56.224,-0.14,0.075
22:15:56.228,-0.09,0.08
22:15:56.232,-0.105,0.085
22:15:56.236,-0.085,0.075
22:15:56.240,-0.13,0.09
22:15:56.244,-0.125,0.065
22:15:56.248,-0.115,0.055
22:15:56.252,-0.15,0.045
22:15:56.256,-0.18,0.01
22:15:56.260,-0.175,-0.045
22:15:56.264,-0.205,-0.045
22:15:56.268,-0.25,-0.04
22:15:56.272,-0.285,-0.035
22:15:56.276,-0.29,-0.02
22:15:56.280,-0.31,0.0
22:15:56.284,-0.32,0.03
22:15:56.288,-0.33,0.055
22:15:56.292,-0.31,0.05
22:15:56.296,-0.3,0.04
22:15:56.300,-0.34,0.055
22:15:56.304,-0.32,0.065
22:15:56.308,-0.29,0.05
22:15:56.312,-0.285,0.05
22:15:56.316,-0.285,0.04
22:15:56.320,-0.285,0.04
22:15:56.324,-0.27,0.015
22:15:56.328,-0.27,0.025
22:15:56.332,-0.275,0.045
22:15:56.336,-0.27,0.03
22:15:56.340,-0.27,0.03
22:15:56.344,-0.27,0.015
22:15:56.348,-0.27,0.045
22:15:56.352,-0.265,0.025
22:15:56.356,-0.28,0.02
22:15:56.360,-0.265,0.015
22:15:56.364,-0.265,0.03
22:15:56.368,-0.29,0.025
22:15:56.372,-0.29,0.015
22:15:56.376,-0.255,0.01
22:15:56.380,-0.25,0.01
22:15:56.384,-0.22,0.005
22:15:56.388,-0.175,0.0
22:15:56.392,-0.075,0.005
22:15:56.396,0.0,-0.01
22:15:56.400,0.055,-0.025
22:15:56.404,0.12,-0.065
22:15:56.408,0.15,-0.135
22:15:56.412,0.19,-0.165
22:15:56.416,0.21,-0.16
22:15:56.420,0.23,-0.21
22:15:56.424,0.215,-0.33
22:15:56.428,0.305,-0.475
22:15:56.432,0.52,-0.685
22:15:56.436,0.815,-0.925
22:15:56.440,1.065,-1.155
22:15:56.444,1.08,-1.265
22:15:56.448,0.79,-1.155
22:15:56.452,0.3,-0.825
22:15:56.456,-0.09,-0.45
22:15:56.460,-0.27,-0.2
22:15:56.464,-0.36,-0.07
22:15:56.468,-0.36,0.01
22:15:56.472,-0.36,0.075
22:15:56.476,-0.4,0.105
22:15:56.480,-0.425,0.11
22:15:56.484,-0.43,0.14
22:15:56.488,-0.425,0.14
22:15:56.492,-0.43,0.115
22:15:56.496,-0.42,0.1
22:15:56.500,-0.44,0.1
22:15:56.504,-0.43,0.095
22:15:56.508,-0.445,0.09
22:15:56.512,-0.425,0.08
22:15:56.516,-0.45,0.095
22:15:56.520,-0.44,0.095
22:15:56.524,-0.44,0.09
22:15:56.528,-0.425,0.115
22:15:56.532,-0.43,0.085
22:15:56.536,-0.44,0.095
22:15:56.540,-0.41,0.105
22:15:56.544,-0.44,0.115
22:15:56.548,-0.42,0.11
22:15:56.552,-0.435,0.1
22:15:56.556,-0.425,0.095
22:15:56.560,-0.435,0.1
22:15:56.564,-0.43,0.125
22:15:56.568,-0.44,0.1
22:15:56.572,-0.45,0.105
22:15:56.576,-0.475,0.115
22:15:56.580,-0.48,0.12
22:15:56.584,-0.475,0.115
22:15:56.588,-0.47,0.115
22:15:56.592,-0.48,0.095
22:15:56.596,-0.485,0.085
22:15:56.600,-0.475,0.115
22:15:56.604,-0.5,0.11
22:15:56.608,-0.475,0.105
22:15:56.612,-0.47,0.105
22:15:56.616,-0.49,0.105
22:15:56.620,-0.47,0.115
22:15:56.624,-0.445,0.1
22:15:56.628,-0.465,0.08
22:15:56.632,-0.445,0.085
22:15:56.636,-0.445,0.07
22:15:56.640,-0.395,0.07
22:15:56.644,-0.395,0.08
22:15:56.648,-0.375,0.09
22:15:56.652,-0.36,0.05
22:15:56.656,-0.345,0.05
22:15:56.660,-0.335,0.05
22:15:56.664,-0.345,0.05
22:15:56.668,-0.33,0.02
22:15:56.672,-0.3,0.015
22:15:56.676,-0.3,0.02
22:15:56.680,-0.285,0.03
22:15:56.684,-0.27,0.0
22:15:56.688,-0.265,-0.01
22:15:56.692,-0.26,0.0
22:15:56.696,-0.28,0.0
22:15:56.700,-0.295,-0.01
22:15:56.704,-0.28,-0.02
22:15:56.708,-0.265,-0.02
22:15:56.712,-0.275,-0.025
22:15:56.716,-0.245,-0.025
22:15:56.720,-0.26,-0.04
22:15:56.724,-0.235,-0.03
22:15:56.728,-0.24,-0.03
22:15:56.732,-0.235,-0.035
22:15:56.736,-0.23,-0.025
22:15:56.740,-0.235,-0.035
22:15:56.744,-0.24,0.0
22:15:56.748,-0.24,-0.025
22:15:56.752,-0.235,-0.01
22:15:56.756,-0.21,-0.015
22:15:56.760,-0.21,-0.01
22:15:56.764,-0.215,-0.005
22:15:56.768,-0.205,0.0
22:15:56.772,-0.2,0.0
22:15:56.776,-0.2,0.005
22:15:56.780,-0.22,0.015
22:15:56.784,-0.23,0.01
22:15:56.788,-0.22,0.0
22:15:56.792,-0.225,0.0
22:15:56.796,-0.205,0.01
22:15:56.800,-0.225,-0.005
22:15:56.804,-0.215,-0.015
22:15:56.808,-0.22,0.0
22:15:56.812,-0.24,0.005
22:15:56.816,-0.21,0.0
22:15:56.820,-0.225,0.0
22:15:56.824,-0.23,0.005
22:15:56.828,-0.215,0.0
22:15:56.832,-0.21,-0.015
22:15:56.836,-0.19,0.01
22:15:56.840,-0.19,0.01
22:15:56.844,-0.2,0.03
22:15:56.848,-0.185,0.01
22:15:56.852,-0.17,0.005
22:15:56.856,-0.14,0.015
22:15:56.860,-0.125,0.015
22:15:56.864,-0.07,0.04
22:15:56.868,-0.055,0.025
22:15:56.872,-0.065,0.03
22:15:56.876,-0.055,0.03
22:15:56.880,-0.04,0.02
22:15:56.884,-0.035,0.01
22:15:56.888,-0.065,0.015
22:15:56.892,-0.105,-0.04
22:15:56.896,-0.125,-0.04
22:15:56.900,-0.15,-0.06
22:15:56.904,-0.195,-0.05
22:15:56.908,-0.22,-0.045
22:15:56.912,-0.265,-0.035
22:15:56.916,-0.28,-0.04
22:15:56.920,-0.3,-0.005
22:15:56.924,-0.31,0.02
22:15:56.928,-0.3,0.025
22:15:56.932,-0.32,0.03
22:15:56.936,-0.33,0.04
22:15:56.940,-0.3,0.0
22:15:56.944,-0.305,0.005
22:15:56.948,-0.27,0.005
22:15:56.952,-0.275,0.005
22:15:56.956,-0.285,0.0
22:15:56.960,-0.295,0.01
22:15:56.964,-0.29,0.0
22:15:56.968,-0.305,-0.005
22:15:56.972,-0.305,0.0
22:15:56.976,-0.295,0.005
22:15:56.980,-0.28,0.015
22:15:56.984,-0.285,-0.015
22:15:56.988,-0.28,0.005
22:15:56.992,-0.275,0.01
22:15:56.996,-0.275,0.0
22:15:57.000,-0.265,-0.01
22:15:57.004,-0.27,0.0
22:15:57.008,-0.26,-0.02
22:15:57.012,-0.25,0.0
22:15:57.016,-0.245,-0.01
22:15:57.020,-0.23,0.01
22:15:57.024,-0.195,0.015
22:15:57.028,-0.115,-0.01
22:15:57.032,-0.035,-0.02
22:15:57.036,0.045,-0.045
22:15:57.040,0.12,-0.065
22:15:57.044,0.15,-0.14
22:15:57.048,0.19,-0.175
22:15:57.052,0.21,-0.18
22:15:57.056,0.22,-0.25
22:15:57.060,0.19,-0.345
22:15:57.064,0.24,-0.455
22:15:57.068,0.45,-0.66
22:15:57.072,0.78,-0.92
22:15:57.076,1.03,-1.14
22:15:57.080,1.075,-1.3
22:15:57.084,0.78,-1.225
22:15:57.088,0.315,-0.895
22:15:57.092,-0.085,-0.49
22:15:57.096,-0.25,-0.26
22:15:57.100,-0.325,-0.115
22:15:57.104,-0.36,-0.005
22:15:57.108,-0.38,0.06
22:15:57.112,-0.38,0.085
22:15:57.116,-0.41,0.1
22:15:57.120,-0.4,0.13
22:15:57.124,-0.44,0.11
22:15:57.128,-0.445,0.095
22:15:57.132,-0.46,0.07
22:15:57.136,-0.455,0.08
22:15:57.140,-0.45,0.065
22:15:57.144,-0.455,0.065
22:15:57.148,-0.45,0.08
22:15:57.152,-0.46,0.09
22:15:57.156,-0.47,0.065
22:15:57.160,-0.455,0.06
22:15:57.164,-0.475,0.065
22:15:57.168,-0.49,0.04
22:15:57.172,-0.495,0.045
22:15:57.176,-0.48,0.055
22:15:57.180,-0.475,0.045
22:15:57.184,-0.475,0.055
22:15:57.188,-0.48,0.065
22:15:57.192,-0.485,0.045
22:15:57.196,-0.49,0.065
22:15:57.200,-0.49,0.07
22:15:57.204,-0.5,0.07
22:15:57.208,-0.5,0.05
22:15:57.212,-0.485,0.065
22:15:57.216,-0.5,0.05
22:15:57.220,-0.495,0.075
22:15:57.224,-0.485,0.07
22:15:57.228,-0.5,0.08
22:15:57.232,-0.505,0.08
22:15:57.236,-0.505,0.08
22:15:57.240,-0.485,0.07
22:15:57.244,-0.485,0.085
22:15:57.248,-0.48,0.075
22:15:57.252,-0.5,0.09
22:15:57.256,-0.49,0.075
22:15:57.260,-0.475,0.08
22:15:57.264,-0.47,0.08
22:15:57.268,-0.47,0.07
22:15:57.272,-0.47,0.05
22:15:57.276,-0.435,0.055
22:15:57.280,-0.42,0.02
22:15:57.284,-0.415,0.015
22:15:57.288,-0.405,0.01
22:15:57.292,-0.39,0.03
22:15:57.296,-0.37,0.02
22:15:57.300,-0.375,0.005
22:15:57.304,-0.335,-0.01
22:15:57.308,-0.355,-0.02
22:15:57.312,-0.33,-0.01
22:15:57.316,-0.335,-0.015
22:15:57.320,-0.32,-0.01
22:15:57.324,-0.31,-0.035
22:15:57.328,-0.28,-0.035
22:15:57.332,-0.29,-0.005
22:15:57.336,-0.285,-0.04
22:15:57.340,-0.275,-0.03
22:15:57.344,-0.24,-0.02
22:15:57.348,-0.26,-0.02
22:15:57.352,-0.26,-0.05
22:15:57.356,-0.275,-0.04
22:15:57.360,-0.265,-0.035
22:15:57.364,-0.275,-0.01
22:15:57.368,-0.27,-0.02
22:15:57.372,-0.28,-0.055
22:15:57.376,-0.29,-0.065
22:15:57.380,-0.255,-0.07
22:15:57.384,-0.285,-0.05
22:15:57.388,-0.285,-0.055
22:15:57.392,-0.255,-0.06
22:15:57.396,-0.265,-0.08
22:15:57.400,-0.275,-0.065
22:15:57.404,-0.275,-0.04
22:15:57.408,-0.26,-0.055
22:15:57.412,-0.27,-0.04
22:15:57.416,-0.27,-0.03
22:15:57.420,-0.27,-0.05
22:15:57.424,-0.295,-0.04
22:15:57.428,-0.255,-0.02
22:15:57.432,-0.265,-0.06
22:15:57.436,-0.285,-0.045
22:15:57.440,-0.27,-0.035
22:15:57.444,-0.265,-0.025
22:15:57.448,-0.255,-0.015
22:15:57.452,-0.27,-0.035
22:15:57.456,-0.265,-0.03
22:15:57.460,-0.28,-0.025
22:15:57.464,-0.27,-0.025
22:15:57.468,-0.275,-0.025
22:15:57.472,-0.265,-0.015
22:15:57.476,-0.255,-0.04
22:15:57.480,-0.26,-0.015
22:15:57.484,-0.28,-0.01
22:15:57.488,-0.26,-0.035
22:15:57.492,-0.245,-0.035
22:15:57.496,-0.205,0.0
22:15:57.500,-0.165,-0.015
22:15:57.504,-0.13,-0.005
22:15:57.508,-0.12,-0.015
22:15:57.512,-0.105,0.005
22:15:57.516,-0.09,-0.01
22:15:57.520,-0.075,-0.025
22:15:57.524,-0.055,-0.04
22:15:57.528,-0.07,-0.05
22:15:57.532,-0.105,-0.08
22:15:57.536,-0.135,-0.1
22:15:57.540,-0.14,-0.135
22:15:57.544,-0.16,-0.13
22:15:57.548,-0.18,-0.09
22:15:57.552,-0.235,-0.09
22:15:57.556,-0.235,-0.085
22:15:57.560,-0.265,-0.06
22:15:57.564,-0.275,-0.04
22:15:57.568,-0.27,-0.005
22:15:57.572,-0.26,-0.015
22:15:57.576,-0.255,-0.045
22:15:57.580,-0.245,-0.015
22:15:57.584,-0.25,-0.05
22:15:57.588,-0.265,-0.055
22:15:57.592,-0.27,-0.045
22:15:57.596,-0.27,-0.05
22:15:57.600,-0.275,-0.065
22:15:57.604,-0.255,-0.08
22:15:57.608,-0.24,-0.07
22:15:57.612,-0.245,-0.06
22:15:57.616,-0.26,-0.07
22:15:57.620,-0.25,-0.07
22:15:57.624,-0.23,-0.085
22:15:57.628,-0.23,-0.07
22:15:57.632,-0.26,-0.075
22:15:57.636,-0.25,-0.07
22:15:57.640,-0.235,-0.07
22:15:57.644,-0.23,-0.06
22:15:57.648,-0.21,-0.055
22:15:57.652,-0.205,-0.05
22:15:57.656,-0.18,-0.08
22:15:57.660,-0.16,-0.075
22:15:57.664,-0.105,-0.06
22:15:57.668,-0.04,-0.055
22:15:57.672,0.045,-0.085
22:15:57.676,0.135,-0.095
22:15:57.680,0.22,-0.12
22:15:57.684,0.26,-0.185
22:15:57.688,0.31,-0.22
22:15:57.692,0.325,-0.23
22:15:57.696,0.32,-0.295
22:15:57.700,0.31,-0.405
22:15:57.704,0.37,-0.535
22:15:57.708,0.565,-0.7
22:15:57.712,0.875,-0.975
22:15:57.716,1.135,-1.195
22:15:57.720,1.165,-1.32
22:15:57.724,0.91,-1.26
22:15:57.728,0.415,-0.93
22:15:57.732,0.02,-0.54
22:15:57.736,-0.195,-0.31
22:15:57.740,-0.27,-0.195
22:15:57.744,-0.305,-0.08
22:15:57.748,-0.33,-0.01
22:15:57.752,-0.355,0.035
22:15:57.756,-0.38,0.04
22:15:57.760,-0.38,0.06
22:15:57.764,-0.37,0.07
22:15:57.768,-0.38,0.03
22:15:57.772,-0.4,0.03
22:15:57.776,-0.39,0.045
22:15:57.780,-0.41,0.035
22:15:57.784,-0.405,0.025
22:15:57.788,-0.405,0.02
22:15:57.792,-0.41,0.045
22:15:57.796,-0.41,0.04
22:15:57.800,-0.43,0.02
22:15:57.804,-0.405,0.015
22:15:57.808,-0.43,0.015
22:15:57.812,-0.435,0.025
22:15:57.816,-0.455,0.01
22:15:57.820,-0.45,0.02
22:15:57.824,-0.465,0.02
22:15:57.828,-0.465,0.025
22:15:57.832,-0.455,0.02
22:15:57.836,-0.455,0.0
22:15:57.840,-0.475,0.03
22:15:57.844,-0.475,0.0
22:15:57.848,-0.46,0.045
22:15:57.852,-0.47,0.01
22:15:57.856,-0.48,0.025
22:15:57.860,-0.5,0.03
22:15:57.864,-0.5,0.025
22:15:57.868,-0.48,0.055
22:15:57.872,-0.475,0.035
22:15:57.876,-0.475,0.03
22:15:57.880,-0.445,0.015
22:15:57.884,-0.47,0.04
22:15:57.888,-0.45,0.05
22:15:57.892,-0.46,0.04
22:15:57.896,-0.46,0.055
22:15:57.900,-0.44,0.055
22:15:57.904,-0.43,0.055
22:15:57.908,-0.415,0.045
22:15:57.912,-0.425,0.045
22:15:57.916,-0.41,0.015
22:15:57.920,-0.4,0.03
22:15:57.924,-0.4,0.01
22:15:57.928,-0.41,-0.01
22:15:57.932,-0.375,-0.015
22:15:57.936,-0.365,-0.005
22:15:57.940,-0.37,-0.005
22:15:57.944,-0.35,-0.045
22:15:57.948,-0.34,-0.05
22:15:57.952,-0.31,-0.07
22:15:57.956,-0.31,-0.06
22:15:57.960,-0.31,-0.05
22:15:57.964,-0.285,-0.08
22:15:57.968,-0.285,-0.09
22:15:57.972,-0.285,-0.1
22:15:57.976,-0.28,-0.09
22:15:57.980,-0.235,-0.095
22:15:57.984,-0.225,-0.105
22:15:57.988,-0.24,-0.09
22:15:57.992,-0.22,-0.08
22:15:57.996,-0.24,-0.08
22:15:58.000,-0.235,-0.08
22:15:58.004,-0.215,-0.085
22:15:58.008,-0.24,-0.06
22:15:58.012,-0.22,-0.075
22:15:58.016,-0.22,-0.08
22:15:58.020,-0.25,-0.065
22:15:58.024,-0.255,-0.075
22:15:58.028,-0.23,-0.08
22:15:58.032,-0.24,-0.075
22:15:58.036,-0.255,-0.08
22:15:58.040,-0.265,-0.06
22:15:58.044,-0.28,-0.04
22:15:58.048,-0.245,-0.05
22:15:58.052,-0.265,-0.03
22:15:58.056,-0.27,-0.05
22:15:58.060,-0.27,-0.05
22:15:58.064,-0.245,-0.04
22:15:58.068,-0.235,-0.055
22:15:58.072,-0.25,-0.07
22:15:58.076,-0.25,-0.045
22:15:58.080,-0.25,-0.045
22:15:58.084,-0.26,-0.04
22:15:58.088,-0.275,-0.04
22:15:58.092,-0.25,-0.035
22:15:58.096,-0.245,-0.04
22:15:58.100,-0.24,-0.045
22:15:58.104,-0.22,-0.02
22:15:58.108,-0.24,-0.035
22:15:58.112,-0.225,-0.035
22:15:58.116,-0.215,-0.025
22:15:58.120,-0.21,-0.015
22:15:58.124,-0.21,-0.03
22:15:58.128,-0.2,-0.025
22:15:58.132,-0.195,-0.015
22:15:58.136,-0.19,-0.005
22:15:58.140,-0.15,-0.015
22:15:58.144,-0.105,-0.01
22:15:58.148,-0.095,-0.01
22:15:58.152,-0.11,-0.005
22:15:58.156,-0.135,-0.02
22:15:58.160,-0.105,-0.035
22:15:58.164,-0.09,-0.06
22:15:58.168,-0.11,-0.065
22:15:58.172,-0.125,-0.095
22:15:58.176,-0.15,-0.12
22:15:58.180,-0.155,-0.145
22:15:58.184,-0.19,-0.12
22:15:58.188,-0.2,-0.13
22:15:58.192,-0.24,-0.105
22:15:58.196,-0.265,-0.1
22:15:58.200,-0.28,-0.075
22:15:58.204,-0.29,-0.055
22:15:58.208,-0.28,-0.025
22:15:58.212,-0.29,-0.06
22:15:58.216,-0.25,-0.03
22:15:58.220,-0.275,-0.035
22:15:58.224,-0.28,-0.035
22:15:58.228,-0.25,-0.06
22:15:58.232,-0.24,-0.055
22:15:58.236,-0.24,-0.03
22:15:58.240,-0.25,-0.04
22:15:58.244,-0.245,-0.04
22:15:58.248,-0.25,-0.05
22:15:58.252,-0.245,-0.06
22:15:58.256,-0.22,-0.045
22:15:58.260,-0.23,-0.065
22:15:58.264,-0.225,-0.045
22:15:58.268,-0.23,-0.06
22:15:58.272,-0.225,-0.085
22:15:58.276,-0.215,-0.075
22:15:58.280,-0.195,-0.075
22:15:58.284,-0.2,-0.07
22:15:58.288,-0.21,-0.08
22:15:58.292,-0.175,-0.085
22:15:58.296,-0.16,-0.075
22:15:58.300,-0.155,-0.075
22:15:58.304,-0.105,-0.06
22:15:58.308,-0.025,-0.08
22:15:58.312,0.085,-0.085
22:15:58.316,0.165,-0.095
22:15:58.320,0.235,-0.11
22:15:58.324,0.275,-0.175
22:15:58.328,0.305,-0.22
22:15:58.332,0.335,-0.245
22:15:58.336,0.35,-0.28
22:15:58.340,0.345,-0.35
22:15:58.344,0.41,-0.515
22:15:58.348,0.535,-0.69
22:15:58.352,0.85,-0.9
22:15:58.356,1.135,-1.14
22:15:58.360,1.27,-1.32
22:15:58.364,1.14,-1.33
22:15:58.368,0.71,-1.085
22:15:58.372,0.215,-0.695
22:15:58.376,-0.045,-0.4
22:15:58.380,-0.155,-0.23
22:15:58.384,-0.21,-0.12
22:15:58.388,-0.205,-0.04
22:15:58.392,-0.19,0.025
22:15:58.396,-0.205,0.05
22:15:58.400,-0.225,0.06
22:15:58.404,-0.225,0.035
22:15:58.408,-0.2,0.03
22:15:58.412,-0.195,0.01
22:15:58.416,-0.21,-0.01
22:15:58.420,-0.22,-0.02
22:15:58.424,-0.2,0.005
22:15:58.428,-0.18,0.01
22:15:58.432,-0.18,-0.005
22:15:58.436,-0.185,0.01
22:15:58.440,-0.19,0.02
22:15:58.444,-0.17,0.005
22:15:58.448,-0.185,0.0
22:15:58.452,-0.17,0.005
22:15:58.456,-0.175,0.005
22:15:58.460,-0.165,0.0
22:15:58.464,-0.21,0.02
22:15:58.468,-0.215,0.0
22:15:58.472,-0.21,0.0
22:15:58.476,-0.23,0.0
22:15:58.480,-0.255,0.005
22:15:58.484,-0.255,-0.005
22:15:58.488,-0.23,0.005
22:15:58.492,-0.26,-0.015
22:15:58.496,-0.265,-0.005
22:15:58.500,-0.28,-0.005
22:15:58.504,-0.28,0.015
22:15:58.508,-0.28,-0.01
22:15:58.512,-0.29,0.005
22:15:58.516,-0.28,0.015
22:15:58.520,-0.29,0.035
22:15:58.524,-0.29,0.005
22:15:58.528,-0.29,0.015
22:15:58.532,-0.29,0.015
22:15:58.536,-0.275,0.025
22:15:58.540,-0.26,0.025
22:15:58.544,-0.27,0.03
22:15:58.548,-0.24,0.015
22:15:58.552,-0.225,0.0
22:15:58.556,-0.215,0.005
22:15:58.560,-0.205,0.0
22:15:58.564,-0.225,0.015
22:15:58.568,-0.185,0.005
22:15:58.572,-0.17,-0.02
22:15:58.576,-0.17,-0.015
22:15:58.580,-0.18,-0.015
22:15:58.584,-0.155,-0.03
22:15:58.588,-0.135,-0.035
22:15:58.592,-0.14,-0.05
22:15:58.596,-0.125,-0.065
22:15:58.600,-0.12,-0.075
22:15:58.604,-0.115,-0.085
22:15:58.608,-0.1,-0.085
22:15:58.612,-0.09,-0.08
22:15:58.616,-0.09,-0.08
22:15:58.620,-0.065,-0.08
22:15:58.624,-0.08,-0.11
22:15:58.628,-0.1,-0.09
22:15:58.632,-0.06,-0.105
22:15:58.636,-0.055,-0.095
22:15:58.640,-0.055,-0.09
22:15:58.644,-0.055,-0.09
22:15:58.648,-0.055,-0.12
22:15:58.652,-0.035,-0.095
22:15:58.656,-0.03,-0.085
22:15:58.660,-0.04,-0.085
22:15:58.664,-0.04,-0.08
22:15:58.668,-0.03,-0.08
22:15:58.672,-0.01,-0.07
22:15:58.676,-0.015,-0.07
22:15:58.680,-0.03,-0.075
22:15:58.684,-0.03,-0.08
22:15:58.688,-0.05,-0.07
22:15:58.692,-0.04,-0.08
22:15:58.696,-0.04,-0.07
22:15:58.700,-0.06,-0.06
22:15:58.704,-0.06,-0.085
22:15:58.708,-0.055,-0.085
22:15:58.712,-0.05,-0.075
22:15:58.716,-0.055,-0.09
22:15:58.720,-0.035,-0.07
22:15:58.724,-0.05,-0.085
22:15:58.728,-0.07,-0.115
22:15:58.732,-0.075,-0.095
22:15:58.736,-0.045,-0.095
22:15:58.740,-0.05,-0.1
22:15:58.744,-0.06,-0.095
22:15:58.748,-0.05,-0.085
22:15:58.752,-0.03,-0.09
22:15:58.756,-0.015,-0.095
22:15:58.760,-0.01,-0.105
22:15:58.764,-0.01,-0.08
22:15:58.768,0.02,-0.085
22:15:58.772,0.03,-0.1
22:15:58.776,0.045,-0.07
22:15:58.780,0.085,-0.065
22:15:58.784,0.115,-0.05
22:15:58.788,0.09,-0.06
22:15:58.792,0.1,-0.04
22:15:58.796,0.105,-0.05
22:15:58.800,0.105,-0.1
22:15:58.804,0.105,-0.095
22:15:58.808,0.065,-0.125
22:15:58.812,0.045,-0.155
22:15:58.816,0.03,-0.17
22:15:58.820,0.01,-0.185
22:15:58.824,-0.01,-0.155
22:15:58.828,-0.04,-0.155
22:15:58.832,-0.065,-0.18
22:15:58.836,-0.09,-0.135
22:15:58.840,-0.09,-0.11
22:15:58.844,-0.105,-0.11
22:15:58.848,-0.095,-0.13
22:15:58.852,-0.09,-0.11
22:15:58.856,-0.085,-0.115
22:15:58.860,-0.08,-0.12
22:15:58.864,-0.085,-0.135
22:15:58.868,-0.08,-0.12
22:15:58.872,-0.075,-0.125
22:15:58.876,-0.08,-0.135
22:15:58.880,-0.07,-0.15
22:15:58.884,-0.055,-0.135
22:15:58.888,-0.055,-0.12
22:15:58.892,-0.065,-0.11
22:15:58.896,-0.065,-0.14
22:15:58.900,-0.06,-0.14
22:15:58.904,-0.06,-0.125
22:15:58.908,-0.075,-0.12
22:15:58.912,-0.09,-0.125
22:15:58.916,-0.095,-0.14
22:15:58.920,-0.085,-0.15
22:15:58.924,-0.105,-0.135
22:15:58.928,-0.12,-0.14
22:15:58.932,-0.105,-0.125
22:15:58.936,-0.085,-0.14
22:15:58.940,-0.05,-0.13
22:15:58.944,0.0,-0.145
22:15:58.948,0.09,-0.15
22:15:58.952,0.165,-0.18
22:15:58.956,0.21,-0.205
22:15:58.960,0.265,-0.25
22:15:58.964,0.295,-0.285
22:15:58.968,0.3,-0.28
22:15:58.972,0.31,-0.32
22:15:58.976,0.295,-0.39
22:15:58.980,0.315,-0.545
22:15:58.984,0.475,-0.705
22:15:58.988,0.78,-0.93
22:15:58.992,1.05,-1.17
22:15:58.996,1.17,-1.33
22:15:59.000,1.0,-1.355
22:15:59.004,0.55,-1.085
22:15:59.008,0.075,-0.695
22:15:59.012,-0.175,-0.405
22:15:59.016,-0.275,-0.23
22:15:59.020,-0.33,-0.125
22:15:59.024,-0.34,-0.045
22:15:59.028,-0.345,-0.015
22:15:59.032,-0.4,0.015
22:15:59.036,-0.42,0.015
22:15:59.040,-0.43,0.035
22:15:59.044,-0.435,0.005
22:15:59.048,-0.445,-0.005
22:15:59.052,-0.45,-0.03
22:15:59.056,-0.47,-0.045
22:15:59.060,-0.475,-0.02
22:15:59.064,-0.48,-0.035
22:15:59.068,-0.48,-0.01
22:15:59.072,-0.51,-0.01
22:15:59.076,-0.49,-0.02
22:15:59.080,-0.5,-0.03
22:15:59.084,-0.49,-0.02
22:15:59.088,-0.505,-0.01
22:15:59.092,-0.505,-0.02
22:15:59.096,-0.505,-0.025
22:15:59.100,-0.525,0.0
22:15:59.104,-0.545,-0.01
22:15:59.108,-0.535,-0.035
22:15:59.112,-0.55,-0.045
22:15:59.116,-0.555,-0.03
22:15:59.120,-0.55,-0.015
22:15:59.124,-0.55,-0.03
22:15:59.128,-0.555,-0.025
22:15:59.132,-0.56,-0.005
22:15:59.136,-0.575,-0.045
22:15:59.140,-0.585,-0.04
22:15:59.144,-0.59,-0.02
22:15:59.148,-0.61,-0.035
22:15:59.152,-0.625,-0.04
22:15:59.156,-0.62,-0.025
22:15:59.160,-0.62,-0.025
22:15:59.164,-0.615,-0.04
22:15:59.168,-0.605,-0.02
22:15:59.172,-0.605,-0.02
22:15:59.176,-0.575,-0.045
22:15:59.180,-0.595,-0.05
22:15:59.184,-0.58,-0.05
22:15:59.188,-0.575,-0.07
22:15:59.192,-0.575,-0.055
22:15:59.196,-0.55,-0.06
22:15:59.200,-0.555,-0.045
22:15:59.204,-0.535,-0.075
22:15:59.208,-0.49,-0.075
22:15:59.212,-0.505,-0.06
22:15:59.216,-0.515,-0.085
22:15:59.220,-0.485,-0.095
22:15:59.224,-0.455,-0.075
22:15:59.228,-0.46,-0.105
22:15:59.232,-0.44,-0.105
22:15:59.236,-0.44,-0.1
22:15:59.240,-0.44,-0.09
22:15:59.244,-0.415,-0.11
22:15:59.248,-0.43,-0.105
22:15:59.252,-0.445,-0.13
22:15:59.256,-0.435,-0.13
22:15:59.260,-0.43,-0.12
22:15:59.264,-0.405,-0.125
22:15:59.268,-0.4,-0.115
22:15:59.272,-0.41,-0.105
22:15:59.276,-0.4,-0.125
22:15:59.280,-0.405,-0.12
22:15:59.284,-0.395,-0.11
22:15:59.288,-0.4,-0.125
22:15:59.292,-0.385,-0.145
22:15:59.296,-0.385,-0.12
22:15:59.300,-0.385,-0.125
22:15:59.304,-0.395,-0.115
22:15:59.308,-0.38,-0.13
22:15:59.312,-0.375,-0.135
22:15:59.316,-0.39,-0.12
22:15:59.320,-0.355,-0.14
22:15:59.324,-0.365,-0.11
22:15:59.328,-0.375,-0.125
22:15:59.332,-0.385,-0.11
22:15:59.336,-0.38,-0.1
22:15:59.340,-0.39,-0.095
22:15:59.344,-0.38,-0.11
22:15:59.348,-0.38,-0.085
22:15:59.352,-0.385,-0.08
22:15:59.356,-0.39,-0.09
22:15:59.360,-0.4,-0.12
22:15:59.364,-0.425,-0.115
22:15:59.368,-0.43,-0.11
22:15:59.372,-0.42,-0.09
22:15:59.376,-0.425,-0.11
22:15:59.380,-0.42,-0.125
22:15:59.384,-0.425,-0.125
22:15:59.388,-0.415,-0.135
22:15:59.392,-0.395,-0.13
22:15:59.396,-0.4,-0.13
22:15:59.400,-0.4,-0.125
22:15:59.404,-0.395,-0.135
22:15:59.408,-0.375,-0.145
22:15:59.412,-0.355,-0.115
22:15:59.416,-0.345,-0.125
22:15:59.420,-0.31,-0.095
22:15:59.424,-0.26,-0.1
22:15:59.428,-0.245,-0.08
22:15:59.432,-0.245,-0.105
22:15:59.436,-0.225,-0.1
22:15:59.440,-0.23,-0.13
22:15:59.444,-0.265,-0.125
22:15:59.448,-0.28,-0.13
22:15:59.452,-0.295,-0.17
22:15:59.456,-0.315,-0.2
22:15:59.460,-0.335,-0.205
22:15:59.464,-0.355,-0.2
22:15:59.468,-0.38,-0.17
22:15:59.472,-0.42,-0.185
22:15:59.476,-0.45,-0.145
22:15:59.480,-0.455,-0.135
22:15:59.484,-0.465,-0.115
22:15:59.488,-0.46,-0.135
22:15:59.492,-0.465,-0.145
22:15:59.496,-0.46,-0.155
22:15:59.500,-0.465,-0.125
22:15:59.504,-0.45,-0.16
22:15:59.508,-0.435,-0.165
22:15:59.512,-0.455,-0.15
22:15:59.516,-0.46,-0.165
22:15:59.520,-0.435,-0.17
22:15:59.524,-0.45,-0.175
22:15:59.528,-0.435,-0.17
22:15:59.532,-0.425,-0.185
22:15:59.536,-0.405,-0.165
22:15:59.540,-0.405,-0.175
22:15:59.544,-0.42,-0.165
22:15:59.548,-0.42,-0.175
22:15:59.552,-0.4,-0.195
22:15:59.556,-0.385,-0.17
22:15:59.560,-0.41,-0.16
22:15:59.564,-0.4,-0.15
22:15:59.568,-0.385,-0.17
22:15:59.572,-0.38,-0.165
22:15:59.576,-0.375,-0.175
22:15:59.580,-0.335,-0.145
22:15:59.584,-0.29,-0.195
22:15:59.588,-0.215,-0.2
22:15:59.592,-0.125,-0.195
22:15:59.596,0.0,-0.22
22:15:59.600,0.035,-0.28
22:15:59.604,0.105,-0.345
22:15:59.608,0.145,-0.345
22:15:59.612,0.17,-0.35
22:15:59.616,0.165,-0.41
22:15:59.620,0.15,-0.505
22:15:59.624,0.255,-0.64
22:15:59.628,0.505,-0.83
22:15:59.632,0.83,-1.05
22:15:59.636,0.985,-1.25
22:15:59.640,0.885,-1.345
22:15:59.644,0.48,-1.15
22:15:59.648,0.02,-0.785
22:15:59.652,-0.265,-0.49
22:15:59.656,-0.37,-0.35
22:15:59.660,-0.415,-0.205
22:15:59.664,-0.455,-0.12
22:15:59.668,-0.47,-0.06
22:15:59.672,-0.515,-0.03
22:15:59.676,-0.53,-0.015
22:15:59.680,-0.54,-0.035
22:15:59.684,-0.555,-0.055
22:15:59.688,-0.55,-0.065
22:15:59.692,-0.58,-0.065
22:15:59.696,-0.595,-0.07
22:15:59.700,-0.595,-0.08
22:15:59.704,-0.595,-0.075
22:15:59.708,-0.615,-0.065
22:15:59.712,-0.59,-0.07
22:15:59.716,-0.61,-0.07
22:15:59.720,-0.62,-0.07
22:15:59.724,-0.615,-0.07
22:15:59.728,-0.635,-0.085
22:15:59.732,-0.62,-0.09
22:15:59.736,-0.615,-0.09
22:15:59.740,-0.64,-0.075
22:15:59.744,-0.64,-0.07
22:15:59.748,-0.635,-0.07
22:15:59.752,-0.625,-0.08
22:15:59.756,-0.64,-0.07
22:15:59.760,-0.655,-0.05
22:15:59.764,-0.62,-0.07
22:15:59.768,-0.63,-0.07
22:15:59.772,-0.655,-0.07
22:15:59.776,-0.655,-0.05
22:15:59.780,-0.655,-0.045
22:15:59.784,-0.665,-0.03
22:15:59.788,-0.64,-0.03
22:15:59.792,-0.66,-0.035
22:15:59.796,-0.655,-0.035
22:15:59.800,-0.655,-0.03
22:15:59.804,-0.66,-0.04
22:15:59.808,-0.65,-0.04
22:15:59.812,-0.665,-0.05
22:15:59.816,-0.665,-0.04
22:15:59.820,-0.65,-0.05
22:15:59.824,-0.66,-0.045
22:15:59.828,-0.635,-0.04
22:15:59.832,-0.62,-0.045
22:15:59.836,-0.62,-0.055
22:15:59.840,-0.62,-0.065
22:15:59.844,-0.615,-0.075
22:15:59.848,-0.605,-0.065
22:15:59.852,-0.59,-0.075
22:15:59.856,-0.575,-0.065
22:15:59.860,-0.555,-0.085
22:15:59.864,-0.54,-0.1
22:15:59.868,-0.51,-0.11
22:15:59.872,-0.5,-0.08
22:15:59.876,-0.485,-0.11
22:15:59.880,-0.465,-0.09
22:15:59.884,-0.46,-0.1
22:15:59.888,-0.48,-0.115
22:15:59.892,-0.45,-0.105
22:15:59.896,-0.45,-0.12
22:15:59.900,-0.46,-0.125
22:15:59.904,-0.445,-0.115
22:15:59.908,-0.45,-0.125
22:15:59.912,-0.42,-0.11
22:15:59.916,-0.415,-0.145
22:15:59.920,-0.425,-0.125
22:15:59.924,-0.435,-0.115
22:15:59.928,-0.44,-0.105
22:15:59.932,-0.435,-0.1
22:15:59.936,-0.44,-0.12
22:15:59.940,-0.435,-0.11
22:15:59.944,-0.435,-0.12
22:15:59.948,-0.425,-0.125
22:15:59.952,-0.425,-0.12
22:15:59.956,-0.43,-0.11
22:15:59.960,-0.435,-0.135
22:15:59.964,-0.425,-0.13
22:15:59.968,-0.425,-0.125
22:15:59.972,-0.43,-0.135
22:15:59.976,-0.45,-0.125
22:15:59.980,-0.42,-0.125
22:15:59.984,-0.42,-0.125
22:15:59.988,-0.44,-0.1
22:15:59.992,-0.435,-0.11
22:15:59.996,-0.42,-0.105
22:16:00.000,-0.43,-0.1
22:16:00.004,-0.43,-0.105
22:16:00.008,-0.455,-0.12
22:16:00.012,-0.415,-0.08
22:16:00.016,-0.445,-0.095
22:16:00.020,-0.425,-0.095
22:16:00.024,-0.455,-0.11
22:16:00.028,-0.445,-0.11
22:16:00.032,-0.46,-0.11
22:16:00.036,-0.465,-0.08
22:16:00.040,-0.44,-0.1
22:16:00.044,-0.43,-0.11
22:16:00.048,-0.43,-0.1
22:16:00.052,-0.415,-0.12
22:16:00.056,-0.395,-0.12
22:16:00.060,-0.345,-0.09
22:16:00.064,-0.32,-0.095
22:16:00.068,-0.305,-0.075
22:16:00.072,-0.32,-0.05
22:16:00.076,-0.315,-0.06
22:16:00.080,-0.29,-0.07
22:16:00.084,-0.305,-0.085
22:16:00.088,-0.315,-0.095
22:16:00.092,-0.305,-0.135
22:16:00.096,-0.335,-0.17
22:16:00.100,-0.335,-0.185
22:16:00.104,-0.375,-0.16
22:16:00.108,-0.415,-0.13
22:16:00.112,-0.44,-0.14
22:16:00.116,-0.45,-0.13
22:16:00.120,-0.47,-0.105
22:16:00.124,-0.49,-0.085
22:16:00.128,-0.505,-0.075
22:16:00.132,-0.485,-0.075
22:16:00.136,-0.495,-0.065
22:16:00.140,-0.505,-0.1
22:16:00.144,-0.475,-0.095
22:16:00.148,-0.475,-0.08
22:16:00.152,-0.495,-0.105
22:16:00.156,-0.47,-0.12
22:16:00.160,-0.46,-0.11
22:16:00.164,-0.475,-0.11
22:16:00.168,-0.485,-0.12
22:16:00.172,-0.475,-0.115
22:16:00.176,-0.48,-0.12
22:16:00.180,-0.45,-0.12
22:16:00.184,-0.46,-0.1
22:16:00.188,-0.45,-0.1
22:16:00.192,-0.45,-0.115
22:16:00.196,-0.43,-0.105
22:16:00.200,-0.42,-0.08
22:16:00.204,-0.415,-0.095
22:16:00.208,-0.395,-0.115
22:16:00.212,-0.42,-0.1
22:16:00.216,-0.4,-0.085
22:16:00.220,-0.365,-0.095
22:16:00.224,-0.31,-0.1
22:16:00.228,-0.225,-0.08
22:16:00.232,-0.16,-0.11
22:16:00.236,-0.07,-0.13
22:16:00.240,-0.005,-0.175
22:16:00.244,0.025,-0.215
22:16:00.248,0.065,-0.25
22:16:00.252,0.065,-0.27
22:16:00.256,0.06,-0.31
22:16:00.260,0.045,-0.43
22:16:00.264,0.125,-0.585
22:16:00.268,0.345,-0.78
22:16:00.272,0.68,-1.015
22:16:00.276,0.93,-1.255
22:16:00.280,0.91,-1.345
22:16:00.284,0.615,-1.24
22:16:00.288,0.135,-0.88
22:16:00.292,-0.255,-0.515
22:16:00.296,-0.455,-0.27
22:16:00.300,-0.51,-0.165
22:16:00.304,-0.515,-0.06
22:16:00.308,-0.54,0.0
22:16:00.312,-0.525,0.03
22:16:00.316,-0.525,0.05
22:16:00.320,-0.54,0.045
22:16:00.324,-0.525,0.045
22:16:00.328,-0.545,0.03
22:16:00.332,-0.545,0.025
22:16:00.336,-0.555,0.03
22:16:00.340,-0.545,0.035
22:16:00.344,-0.545,0.015
22:16:00.348,-0.555,0.02
22:16:00.352,-0.565,0.035
22:16:00.356,-0.56,0.03
22:16:00.360,-0.565,0.025
22:16:00.364,-0.58,0.03
22:16:00.368,-0.59,0.04
22:16:00.372,-0.59,0.03
22:16:00.376,-0.57,0.025
22:16:00.380,-0.595,0.03
22:16:00.384,-0.6,0.02
22:16:00.388,-0.605,0.0
22:16:00.392,-0.595,0.005
22:16:00.396,-0.61,0.02
22:16:00.400,-0.63,0.01
22:16:00.404,-0.605,-0.005
22:16:00.408,-0.62,-0.005
22:16:00.412,-0.645,-0.01
22:16:00.416,-0.64,0.02
22:16:00.420,-0.64,0.02
22:16:00.424,-0.615,0.005
22:16:00.428,-0.63,0.025
22:16:00.432,-0.62,0.02
22:16:00.436,-0.62,0.015
22:16:00.440,-0.615,0.045
22:16:00.444,-0.625,0.04
22:16:00.448,-0.63,0.035
22:16:00.452,-0.625,0.05
22:16:00.456,-0.6,0.05
22:16:00.460,-0.6,0.05
22:16:00.464,-0.595,0.045
22:16:00.468,-0.605,0.02
22:16:00.472,-0.585,0.03
22:16:00.476,-0.59,0.03
22:16:00.480,-0.59,0.01
22:16:00.484,-0.58,0.02
22:16:00.488,-0.57,0.015
22:16:00.492,-0.53,0.015
22:16:00.496,-0.55,0.005
22:16:00.500,-0.535,-0.025
22:16:00.504,-0.505,-0.035
22:16:00.508,-0.495,-0.06
22:16:00.512,-0.5,-0.045
22:16:00.516,-0.495,-0.075
22:16:00.520,-0.48,-0.07
22:16:00.524,-0.465,-0.06
22:16:00.528,-0.46,-0.075
22:16:00.532,-0.45,-0.06
22:16:00.536,-0.43,-0.08
22:16:00.540,-0.42,-0.075
22:16:00.544,-0.405,-0.06
22:16:00.548,-0.425,-0.05
22:16:00.552,-0.4,-0.08
22:16:00.556,-0.395,-0.06
22:16:00.560,-0.405,-0.065
22:16:00.564,-0.395,-0.045
22:16:00.568,-0.375,-0.05
22:16:00.572,-0.395,-0.075
22:16:00.576,-0.4,-0.07
22:16:00.580,-0.39,-0.055
22:16:00.584,-0.395,-0.07
22:16:00.588,-0.395,-0.06
22:16:00.592,-0.42,-0.055
22:16:00.596,-0.42,-0.05
22:16:00.600,-0.405,-0.065
22:16:00.604,-0.41,-0.08
22:16:00.608,-0.425,-0.07
22:16:00.612,-0.415,-0.08
22:16:00.616,-0.435,-0.06
22:16:00.620,-0.41,-0.07
22:16:00.624,-0.42,-0.05
22:16:00.628,-0.435,-0.06
22:16:00.632,-0.42,-0.045
22:16:00.636,-0.42,-0.045
22:16:00.640,-0.425,-0.045
22:16:00.644,-0.42,-0.035
22:16:00.648,-0.4,-0.055
22:16:00.652,-0.4,-0.05
22:16:00.656,-0.41,-0.055
22:16:00.660,-0.395,-0.04
22:16:00.664,-0.4,-0.05
22:16:00.668,-0.405,-0.025
22:16:00.672,-0.405,-0.03
22:16:00.676,-0.39,-0.02
22:16:00.680,-0.385,-0.03
22:16:00.684,-0.39,-0.02
22:16:00.688,-0.405,-0.025
22:16:00.692,-0.39,-0.03
22:16:00.696,-0.37,-0.03
22:16:00.700,-0.325,-0.005
22:16:00.704,-0.315,-0.01
22:16:00.708,-0.3,0.005
22:16:00.712,-0.31,0.0
22:16:00.716,-0.305,-0.015
22:16:00.720,-0.32,-0.005
22:16:00.724,-0.3,-0.035
22:16:00.728,-0.29,-0.045
22:16:00.732,-0.315,-0.085
22:16:00.736,-0.305,-0.125
22:16:00.740,-0.34,-0.125
22:16:00.744,-0.37,-0.15
22:16:00.748,-0.405,-0.14
22:16:00.752,-0.435,-0.135
22:16:00.756,-0.455,-0.11
22:16:00.760,-0.47,-0.07
22:16:00.764,-0.455,-0.065
22:16:00.768,-0.45,-0.02
22:16:00.772,-0.465,-0.03
22:16:00.776,-0.45,-0.045
22:16:00.780,-0.44,-0.045
22:16:00.784,-0.425,-0.03
22:16:00.788,-0.435,-0.045
22:16:00.792,-0.44,-0.04
22:16:00.796,-0.445,-0.05
22:16:00.800,-0.415,-0.07
22:16:00.804,-0.44,-0.08
22:16:00.808,-0.455,-0.065
22:16:00.812,-0.44,-0.08
22:16:00.816,-0.445,-0.1
22:16:00.820,-0.44,-0.09
22:16:00.824,-0.475,-0.09
22:16:00.828,-0.435,-0.105
22:16:00.832,-0.445,-0.11
22:16:00.836,-0.425,-0.08
22:16:00.840,-0.42,-0.11
22:16:00.844,-0.435,-0.105
22:16:00.848,-0.415,-0.13
22:16:00.852,-0.425,-0.11
22:16:00.856,-0.42,-0.115
22:16:00.860,-0.39,-0.115
22:16:00.864,-0.31,-0.1
22:16:00.868,-0.235,-0.105
22:16:00.872,-0.145,-0.105
22:16:00.876,-0.06,-0.135
22:16:00.880,-0.025,-0.205
22:16:00.884,0.02,-0.23
22:16:00.888,0.055,-0.245
22:16:00.892,0.075,-0.265
22:16:00.896,0.065,-0.32
22:16:00.900,0.055,-0.44
22:16:00.904,0.155,-0.59
22:16:00.908,0.39,-0.795
22:16:00.912,0.7,-1.02
22:16:00.916,0.935,-1.235
22:16:00.920,0.9,-1.38
22:16:00.924,0.6,-1.24
22:16:00.928,0.095,-0.875
22:16:00.932,-0.295,-0.53
22:16:00.936,-0.46,-0.3
22:16:00.940,-0.52,-0.15
22:16:00.944,-0.535,-0.07
22:16:00.948,-0.54,-0.005
22:16:00.952,-0.56,0.02
22:16:00.956,-0.565,0.045
22:16:00.960,-0.56,0.04
22:16:00.964,-0.58,0.035
22:16:00.968,-0.57,0.02
22:16:00.972,-0.6,0.0
22:16:00.976,-0.595,0.025
22:16:00.980,-0.58,0.0
22:16:00.984,-0.575,0.015
22:16:00.988,-0.575,0.02
22:16:00.992,-0.58,0.015
22:16:00.996,-0.595,0.025
22:16:01.000,-0.58,0.03
22:16:01.004,-0.59,0.05
22:16:01.008,-0.585,0.025
22:16:01.012,-0.565,0.035
22:16:01.016,-0.605,0.01
22:16:01.020,-0.59,0.02
22:16:01.024,-0.6,-0.005
22:16:01.028,-0.6,0.0
22:16:01.032,-0.61,0.005
22:16:01.036,-0.615,0.015
22:16:01.040,-0.65,0.02
22:16:01.044,-0.635,0.025
22:16:01.048,-0.64,0.0
22:16:01.052,-0.64,0.02
22:16:01.056,-0.63,0.015
22:16:01.060,-0.64,-0.01
22:16:01.064,-0.665,-0.015
22:16:01.068,-0.64,0.04
22:16:01.072,-0.66,0.025
22:16:01.076,-0.655,0.015
22:16:01.080,-0.675,0.035
22:16:01.084,-0.665,0.045
22:16:01.088,-0.65,0.035
22:16:01.092,-0.62,0.035
22:16:01.096,-0.64,0.035
22:16:01.100,-0.64,0.025
22:16:01.104,-0.6,0.035
22:16:01.108,-0.605,0.045
22:16:01.112,-0.59,0.035
22:16:01.116,-0.585,0.06
22:16:01.120,-0.59,0.04
22:16:01.124,-0.585,0.04
22:16:01.128,-0.56,0.03
22:16:01.132,-0.555,0.02
22:16:01.136,-0.535,0.015
22:16:01.140,-0.54,0.01
22:16:01.144,-0.55,0.005
22:16:01.148,-0.525,0.0
22:16:01.152,-0.53,-0.02
22:16:01.156,-0.515,-0.025
22:16:01.160,-0.49,-0.055
22:16:01.164,-0.49,-0.055
22:16:01.168,-0.505,-0.07
22:16:01.172,-0.49,-0.055
22:16:01.176,-0.465,-0.065
22:16:01.180,-0.475,-0.05
22:16:01.184,-0.46,-0.065
22:16:01.188,-0.465,-0.055
22:16:01.192,-0.45,-0.045
22:16:01.196,-0.44,-0.05
22:16:01.200,-0.44,-0.06
22:16:01.204,-0.43,-0.06
22:16:01.208,-0.42,-0.04
22:16:01.212,-0.39,-0.025
22:16:01.216,-0.405,-0.02
22:16:01.220,-0.425,-0.03
22:16:01.224,-0.42,-0.04
22:16:01.228,-0.415,-0.02
22:16:01.232,-0.44,-0.025
22:16:01.236,-0.44,-0.01
22:16:01.240,-0.425,-0.03
22:16:01.244,-0.43,-0.01
22:16:01.248,-0.43,-0.02
22:16:01.252,-0.44,-0.015
22:16:01.256,-0.43,-0.02
22:16:01.260,-0.445,-0.02
22:16:01.264,-0.445,0.005
22:16:01.268,-0.455,-0.02
22:16:01.272,-0.445,-0.01
22:16:01.276,-0.44,-0.04
22:16:01.280,-0.465,-0.035
22:16:01.284,-0.465,-0.04
22:16:01.288,-0.44,-0.025
22:16:01.292,-0.435,-0.01
22:16:01.296,-0.46,-0.02
22:16:01.300,-0.45,-0.01
22:16:01.304,-0.455,-0.035
22:16:01.308,-0.435,-0.01
22:16:01.312,-0.42,-0.005
22:16:01.316,-0.415,-0.015
22:16:01.320,-0.405,0.0
22:16:01.324,-0.385,-0.005
22:16:01.328,-0.38,0.01
22:16:01.332,-0.355,0.005
22:16:01.336,-0.305,0.0
22:16:01.340,-0.26,0.015
22:16:01.344,-0.25,0.03
22:16:01.348,-0.255,0.015
22:16:01.352,-0.25,0.025
22:16:01.356,-0.255,-0.005
22:16:01.360,-0.275,-0.015
22:16:01.364,-0.31,-0.02
22:16:01.368,-0.335,-0.05
22:16:01.372,-0.345,-0.11
22:16:01.376,-0.36,-0.11
22:16:01.380,-0.4,-0.095
22:16:01.384,-0.415,-0.115
22:16:01.388,-0.425,-0.1
22:16:01.392,-0.46,-0.07
22:16:01.396,-0.475,-0.055
22:16:01.400,-0.48,-0.015
22:16:01.404,-0.475,-0.015
22:16:01.408,-0.485,-0.05
22:16:01.412,-0.48,-0.03
22:16:01.416,-0.47,-0.015
22:16:01.420,-0.455,-0.03
22:16:01.424,-0.435,-0.065
22:16:01.428,-0.45,-0.045
22:16:01.432,-0.44,-0.07
22:16:01.436,-0.435,-0.07
22:16:01.440,-0.42,-0.06
22:16:01.444,-0.42,-0.05
22:16:01.448,-0.415,-0.065
22:16:01.452,-0.41,-0.065
22:16:01.456,-0.4,-0.085
22:16:01.460,-0.415,-0.075
22:16:01.464,-0.435,-0.1
22:16:01.468,-0.405,-0.07
22:16:01.472,-0.43,-0.085
22:16:01.476,-0.445,-0.08
22:16:01.480,-0.44,-0.085
22:16:01.484,-0.405,-0.09
22:16:01.488,-0.41,-0.085
22:16:01.492,-0.39,-0.105
22:16:01.496,-0.325,-0.09
22:16:01.500,-0.255,-0.1
22:16:01.504,-0.195,-0.115
22:16:01.508,-0.09,-0.145
22:16:01.512,-0.01,-0.155
22:16:01.516,0.055,-0.185
22:16:01.520,0.12,-0.24
22:16:01.524,0.15,-0.24
22:16:01.528,0.185,-0.255
22:16:01.532,0.16,-0.335
22:16:01.536,0.16,-0.405
22:16:01.540,0.285,-0.54
22:16:01.544,0.525,-0.765
22:16:01.548,0.85,-0.98
22:16:01.552,1.0,-1.19
22:16:01.556,0.865,-1.24
22:16:01.560,0.48,-1.07
22:16:01.564,0.01,-0.695
22:16:01.568,-0.27,-0.42
22:16:01.572,-0.38,-0.265
22:16:01.576,-0.42,-0.145
22:16:01.580,-0.435,-0.035
22:16:01.584,-0.475,0.0
22:16:01.588,-0.505,0.035
22:16:01.592,-0.545,0.045
22:16:01.596,-0.575,0.03
22:16:01.600,-0.565,0.01
22:16:01.604,-0.57,0.0
22:16:01.608,-0.565,-0.025
22:16:01.612,-0.585,-0.045
22:16:01.616,-0.57,-0.035
22:16:01.620,-0.575,-0.015
22:16:01.624,-0.57,-0.03
22:16:01.628,-0.59,-0.025
22:16:01.632,-0.595,-0.04
22:16:01.636,-0.59,-0.03
22:16:01.640,-0.59,-0.02
22:16:01.644,-0.61,-0.02
22:16:01.648,-0.57,-0.02
22:16:01.652,-0.55,-0.015
22:16:01.656,-0.575,-0.03
22:16:01.660,-0.6,-0.025
22:16:01.664,-0.59,-0.025
22:16:01.668,-0.59,-0.025
22:16:01.672,-0.61,-0.005
22:16:01.676,-0.6,-0.015
22:16:01.680,-0.61,-0.03
22:16:01.684,-0.63,-0.04
22:16:01.688,-0.615,-0.02
22:16:01.692,-0.64,-0.02
22:16:01.696,-0.64,-0.025
22:16:01.700,-0.64,-0.02
22:16:01.704,-0.64,-0.015
22:16:01.708,-0.655,-0.01
22:16:01.712,-0.665,-0.035
22:16:01.716,-0.655,-0.025
22:16:01.720,-0.635,-0.04
22:16:01.724,-0.64,-0.025
22:16:01.728,-0.64,-0.045
22:16:01.732,-0.64,-0.04
22:16:01.736,-0.625,-0.045
22:16:01.740,-0.62,-0.035
22:16:01.744,-0.625,-0.04
22:16:01.748,-0.6,-0.055
22:16:01.752,-0.575,-0.09
22:16:01.756,-0.565,-0.065
22:16:01.760,-0.55,-0.055
22:16:01.764,-0.52,-0.065
22:16:01.768,-0.525,-0.075
22:16:01.772,-0.52,-0.055
22:16:01.776,-0.51,-0.08
22:16:01.780,-0.475,-0.105
22:16:01.784,-0.47,-0.1
22:16:01.788,-0.465,-0.085
22:16:01.792,-0.435,-0.105
22:16:01.796,-0.455,-0.105
22:16:01.800,-0.45,-0.105
22:16:01.804,-0.425,-0.085
22:16:01.808,-0.435,-0.085
22:16:01.812,-0.43,-0.1
22:16:01.816,-0.425,-0.125
22:16:01.820,-0.405,-0.1
22:16:01.824,-0.395,-0.11
22:16:01.828,-0.41,-0.12
22:16:01.832,-0.385,-0.12
22:16:01.836,-0.395,-0.14
22:16:01.840,-0.42,-0.135
22:16:01.844,-0.385,-0.155
22:16:01.848,-0.38,-0.13
22:16:01.852,-0.375,-0.135
22:16:01.856,-0.39,-0.115
22:16:01.860,-0.39,-0.13
22:16:01.864,-0.39,-0.125
22:16:01.868,-0.37,-0.115
22:16:01.872,-0.375,-0.11
22:16:01.876,-0.38,-0.14
22:16:01.880,-0.36,-0.11
22:16:01.884,-0.36,-0.115
22:16:01.888,-0.355,-0.1
22:16:01.892,-0.37,-0.095
22:16:01.896,-0.345,-0.105
22:16:01.900,-0.37,-0.09
22:16:01.904,-0.38,-0.07
22:16:01.908,-0.4,-0.09
22:16:01.912,-0.39,-0.085
22:16:01.916,-0.37,-0.09
22:16:01.920,-0.38,-0.1
22:16:01.924,-0.4,-0.09
22:16:01.928,-0.405,-0.09
22:16:01.932,-0.4,-0.09
22:16:01.936,-0.38,-0.075
22:16:01.940,-0.385,-0.08
22:16:01.944,-0.42,-0.065
22:16:01.948,-0.405,-0.08
22:16:01.952,-0.39,-0.07
22:16:01.956,-0.39,-0.075
22:16:01.960,-0.355,-0.065
22:16:01.964,-0.36,-0.065
22:16:01.968,-0.38,-0.085
22:16:01.972,-0.315,-0.065
22:16:01.976,-0.275,-0.06
22:16:01.980,-0.215,-0.045
22:16:01.984,-0.22,-0.015
22:16:01.988,-0.21,-0.015
22:16:01.992,-0.21,-0.02
22:16:01.996,-0.18,-0.025
22:16:02.000,-0.195,-0.025
22:16:02.004,-0.23,-0.035
22:16:02.008,-0.235,-0.085
22:16:02.012,-0.255,-0.1
22:16:02.016,-0.285,-0.11
22:16:02.020,-0.31,-0.14
22:16:02.024,-0.34,-0.13
22:16:02.028,-0.375,-0.12
22:16:02.032,-0.38,-0.1
22:16:02.036,-0.43,-0.065
22:16:02.040,-0.45,-0.035
22:16:02.044,-0.435,-0.015
22:16:02.048,-0.44,-0.025
22:16:02.052,-0.42,-0.04
22:16:02.056,-0.405,-0.025
22:16:02.060,-0.405,-0.04
22:16:02.064,-0.4,-0.045
22:16:02.068,-0.415,-0.045
22:16:02.072,-0.415,-0.055
22:16:02.076,-0.41,-0.055
22:16:02.080,-0.415,-0.055
22:16:02.084,-0.405,-0.03
22:16:02.088,-0.39,-0.025
22:16:02.092,-0.4,-0.05
22:16:02.096,-0.4,-0.045
22:16:02.100,-0.375,-0.035
22:16:02.104,-0.385,-0.05
22:16:02.108,-0.38,-0.05
22:16:02.112,-0.37,-0.015
22:16:02.116,-0.355,-0.025
22:16:02.120,-0.365,-0.03
22:16:02.124,-0.36,-0.04
22:16:02.128,-0.355,-0.045
22:16:02.132,-0.35,-0.06
22:16:02.136,-0.32,-0.05
22:16:02.140,-0.28,-0.06
22:16:02.144,-0.21,-0.085
22:16:02.148,-0.13,-0.075
22:16:02.152,-0.04,-0.105
22:16:02.156,0.015,-0.13
22:16:02.160,0.1,-0.195
22:16:02.164,0.15,-0.235
22:16:02.168,0.175,-0.26
22:16:02.172,0.19,-0.31
22:16:02.176,0.18,-0.44
22:16:02.180,0.225,-0.545
22:16:02.184,0.37,-0.73
22:16:02.188,0.7,-0.975
22:16:02.192,1.0,-1.195
22:16:02.196,1.1,-1.295
22:16:02.200,0.855,-1.285
22:16:02.204,0.345,-0.955
22:16:02.208,-0.09,-0.52
22:16:02.212,-0.31,-0.28
22:16:02.216,-0.385,-0.13
22:16:02.220,-0.445,-0.045
22:16:02.224,-0.43,0.04
22:16:02.228,-0.45,0.09
22:16:02.232,-0.485,0.105
22:16:02.236,-0.5,0.125
22:16:02.240,-0.485,0.105
22:16:02.244,-0.5,0.09
22:16:02.248,-0.525,0.065
22:16:02.252,-0.52,0.065
22:16:02.256,-0.535,0.08
22:16:02.260,-0.53,0.07
22:16:02.264,-0.565,0.08
22:16:02.268,-0.555,0.105
22:16:02.272,-0.535,0.06
22:16:02.276,-0.54,0.05
22:16:02.280,-0.53,0.035
22:16:02.284,-0.545,0.055
22:16:02.288,-0.535,0.075
22:16:02.292,-0.545,0.06
22:16:02.296,-0.545,0.05
22:16:02.300,-0.56,0.08
22:16:02.304,-0.535,0.075
22:16:02.308,-0.53,0.075
22:16:02.312,-0.535,0.11
22:16:02.316,-0.555,0.095
22:16:02.320,-0.55,0.08
22:16:02.324,-0.545,0.095
22:16:02.328,-0.535,0.1
22:16:02.332,-0.545,0.1
22:16:02.336,-0.56,0.1
22:16:02.340,-0.56,0.09
22:16:02.344,-0.575,0.12
22:16:02.348,-0.565,0.11
22:16:02.352,-0.575,0.1
22:16:02.356,-0.56,0.1
22:16:02.360,-0.565,0.105
22:16:02.364,-0.575,0.115
22:16:02.368,-0.585,0.135
22:16:02.372,-0.56,0.11
22:16:02.376,-0.56,0.115
22:16:02.380,-0.55,0.1
22:16:02.384,-0.53,0.09
22:16:02.388,-0.535,0.07
22:16:02.392,-0.5,0.07
22:16:02.396,-0.52,0.07
22:16:02.400,-0.51,0.06
22:16:02.404,-0.49,0.05
22:16:02.408,-0.47,0.04
22:16:02.412,-0.45,0.035
22:16:02.416,-0.46,0.02
22:16:02.420,-0.43,0.02
22:16:02.424,-0.405,0.005
22:16:02.428,-0.41,-0.01
22:16:02.432,-0.39,-0.02
22:16:02.436,-0.38,-0.01
22:16:02.440,-0.37,-0.005
22:16:02.444,-0.35,-0.02
22:16:02.448,-0.35,-0.02
22:16:02.452,-0.32,-0.02
22:16:02.456,-0.335,-0.025
22:16:02.460,-0.31,-0.025
22:16:02.464,-0.315,-0.045
22:16:02.468,-0.315,-0.05
22:16:02.472,-0.31,-0.045
22:16:02.476,-0.32,-0.025
22:16:02.480,-0.33,-0.025
22:16:02.484,-0.31,-0.065
22:16:02.488,-0.32,-0.075
22:16:02.492,-0.31,-0.035
22:16:02.496,-0.32,-0.05
22:16:02.500,-0.305,-0.03
22:16:02.504,-0.31,-0.045
22:16:02.508,-0.29,-0.035
22:16:02.512,-0.3,-0.025
22:16:02.516,-0.305,-0.05
22:16:02.520,-0.32,-0.015
22:16:02.524,-0.29,-0.03
22:16:02.528,-0.315,-0.02
22:16:02.532,-0.295,-0.005
22:16:02.536,-0.28,0.0
22:16:02.540,-0.265,-0.02
22:16:02.544,-0.29,-0.01
22:16:02.548,-0.28,0.0
22:16:02.552,-0.295,0.005
22:16:02.556,-0.285,0.0
22:16:02.560,-0.28,0.0
22:16:02.564,-0.3,-0.005
22:16:02.568,-0.27,-0.02
22:16:02.572,-0.285,-0.005
22:16:02.576,-0.285,-0.02
22:16:02.580,-0.295,-0.025
22:16:02.584,-0.31,-0.01
22:16:02.588,-0.31,-0.025
22:16:02.592,-0.32,-0.02
22:16:02.596,-0.295,-0.01
22:16:02.600,-0.28,-0.03
22:16:02.604,-0.285,-0.025
22:16:02.608,-0.295,-0.01
22:16:02.612,-0.275,-0.035
22:16:02.616,-0.21,-0.02
22:16:02.620,-0.185,0.0
22:16:02.624,-0.18,0.01
22:16:02.628,-0.155,-0.005
22:16:02.632,-0.15,0.0
22:16:02.636,-0.155,-0.005
22:16:02.640,-0.145,-0.025
22:16:02.644,-0.115,-0.03
22:16:02.648,-0.13,-0.04
22:16:02.652,-0.155,-0.065
22:16:02.656,-0.19,-0.105
22:16:02.660,-0.21,-0.08
22:16:02.664,-0.24,-0.075
22:16:02.668,-0.27,-0.06
22:16:02.672,-0.32,-0.035
22:16:02.676,-0.325,-0.02
22:16:02.680,-0.34,0.005
22:16:02.684,-0.34,0.005
22:16:02.688,-0.345,0.005
22:16:02.692,-0.355,-0.005
22:16:02.696,-0.335,-0.035
22:16:02.700,-0.34,-0.015
22:16:02.704,-0.32,-0.025
22:16:02.708,-0.335,-0.025
22:16:02.712,-0.32,-0.035
22:16:02.716,-0.31,-0.06
22:16:02.720,-0.31,-0.055
22:16:02.724,-0.33,-0.05
22:16:02.728,-0.315,-0.045
22:16:02.732,-0.32,-0.06
22:16:02.736,-0.32,-0.06
22:16:02.740,-0.315,-0.06
22:16:02.744,-0.32,-0.09
22:16:02.748,-0.34,-0.065
22:16:02.752,-0.33,-0.04
22:16:02.756,-0.325,-0.06
22:16:02.760,-0.285,-0.085
22:16:02.764,-0.3,-0.06
22:16:02.768,-0.275,-0.06
22:16:02.772,-0.27,-0.055
22:16:02.776,-0.25,-0.07
22:16:02.780,-0.225,-0.08
22:16:02.784,-0.14,-0.05
22:16:02.788,-0.05,-0.08
22:16:02.792,0.02,-0.11
22:16:02.796,0.065,-0.15
22:16:02.800,0.11,-0.22
22:16:02.804,0.14,-0.24
22:16:02.808,0.17,-0.25
22:16:02.812,0.175,-0.32
22:16:02.816,0.13,-0.42
22:16:02.820,0.185,-0.58
22:16:02.824,0.4,-0.785
22:16:02.828,0.72,-1.04
22:16:02.832,0.98,-1.27
22:16:02.836,1.03,-1.39
22:16:02.840,0.83,-1.32
22:16:02.844,0.37,-0.975
22:16:02.848,-0.08,-0.555
22:16:02.852,-0.32,-0.305
22:16:02.856,-0.405,-0.165
22:16:02.860,-0.44,-0.09
22:16:02.864,-0.44,0.0
22:16:02.868,-0.44,0.04
22:16:02.872,-0.45,0.075
22:16:02.876,-0.46,0.06
22:16:02.880,-0.47,0.065
22:16:02.884,-0.485,0.04
22:16:02.888,-0.485,0.06
22:16:02.892,-0.485,0.03
22:16:02.896,-0.485,0.045
22:16:02.900,-0.49,0.04
22:16:02.904,-0.51,0.035
22:16:02.908,-0.49,0.04
22:16:02.912,-0.5,0.02
22:16:02.916,-0.495,0.035
22:16:02.920,-0.51,0.04
22:16:02.924,-0.515,0.01
22:16:02.928,-0.51,0.02
22:16:02.932,-0.52,0.04
22:16:02.936,-0.51,0.03
22:16:02.940,-0.51,0.02
22:16:02.944,-0.515,0.02
22:16:02.948,-0.515,0.03
22:16:02.952,-0.53,0.01
22:16:02.956,-0.52,0.02
22:16:02.960,-0.52,0.02
22:16:02.964,-0.525,0.025
22:16:02.968,-0.535,0.05
22:16:02.972,-0.56,0.04
22:16:02.976,-0.55,0.05
22:16:02.980,-0.555,0.07
22:16:02.984,-0.56,0.07
22:16:02.988,-0.54,0.06
22:16:02.992,-0.53,0.06
22:16:02.996,-0.515,0.055
22:16:03.000,-0.53,0.05
22:16:03.004,-0.52,0.06
22:16:03.008,-0.52,0.09
22:16:03.012,-0.515,0.07
22:16:03.016,-0.515,0.07
22:16:03.020,-0.5,0.05
22:16:03.024,-0.515,0.065
22:16:03.028,-0.505,0.05
22:16:03.032,-0.5,0.06
22:16:03.036,-0.5,0.02
22:16:03.040,-0.49,0.01
22:16:03.044,-0.475,0.01
22:16:03.048,-0.46,0.015
22:16:03.052,-0.455,-0.015
22:16:03.056,-0.44,-0.025
22:16:03.060,-0.42,-0.04
22:16:03.064,-0.415,-0.04
22:16:03.068,-0.4,-0.04
22:16:03.072,-0.395,-0.04
22:16:03.076,-0.38,-0.06
22:16:03.080,-0.36,-0.055
22:16:03.084,-0.355,-0.05
22:16:03.088,-0.34,-0.06
22:16:03.092,-0.32,-0.06
22:16:03.096,-0.32,-0.06
22:16:03.100,-0.32,-0.07
22:16:03.104,-0.295,-0.07
22:16:03.108,-0.285,-0.07
22:16:03.112,-0.3,-0.035
22:16:03.116,-0.3,-0.035
22:16:03.120,-0.28,-0.06
22:16:03.124,-0.275,-0.02
22:16:03.128,-0.28,-0.045
22:16:03.132,-0.28,-0.055
22:16:03.136,-0.28,-0.04
22:16:03.140,-0.295,-0.055
22:16:03.144,-0.29,-0.05
22:16:03.148,-0.29,-0.04
22:16:03.152,-0.305,-0.045
22:16:03.156,-0.305,-0.055
22:16:03.160,-0.3,-0.035
22:16:03.164,-0.3,-0.02
22:16:03.168,-0.305,-0.045
22:16:03.172,-0.29,-0.04
22:16:03.176,-0.31,-0.03
22:16:03.180,-0.32,-0.03
22:16:03.184,-0.315,-0.03
22:16:03.188,-0.33,-0.04
22:16:03.192,-0.33,-0.04
22:16:03.196,-0.335,-0.01
22:16:03.200,-0.355,-0.005
22:16:03.204,-0.33,-0.01
22:16:03.208,-0.325,-0.01
22:16:03.212,-0.33,0.0
22:16:03.216,-0.315,0.0
22:16:03.220,-0.32,-0.01
22:16:03.224,-0.315,0.01
22:16:03.228,-0.315,0.01
22:16:03.232,-0.305,0.03
22:16:03.236,-0.3,0.045
22:16:03.240,-0.295,0.005
22:16:03.244,-0.285,0.005
22:16:03.248,-0.29,0.01
22:16:03.252,-0.22,0.04
22:16:03.256,-0.19,0.045
22:16:03.260,-0.195,0.055
22:16:03.264,-0.195,0.05
22:16:03.268,-0.16,0.03
22:16:03.272,-0.15,0.02
22:16:03.276,-0.155,0.01
22:16:03.280,-0.17,-0.005
22:16:03.284,-0.195,-0.05
22:16:03.288,-0.26,-0.065
22:16:03.292,-0.265,-0.09
22:16:03.296,-0.31,-0.075
22:16:03.300,-0.33,-0.08
22:16:03.304,-0.365,-0.035
22:16:03.308,-0.39,-0.02
22:16:03.312,-0.39,0.0
22:16:03.316,-0.37,0.035
22:16:03.320,-0.335,0.03
22:16:03.324,-0.34,0.035
22:16:03.328,-0.34,0.03
22:16:03.332,-0.34,0.01
22:16:03.336,-0.33,0.0
22:16:03.340,-0.32,0.01
22:16:03.344,-0.33,0.005
22:16:03.348,-0.325,0.0
22:16:03.352,-0.335,0.0
22:16:03.356,-0.325,0.0
22:16:03.360,-0.36,0.01
22:16:03.364,-0.34,-0.03
22:16:03.368,-0.315,-0.01
22:16:03.372,-0.325,0.005
22:16:03.376,-0.33,0.01
22:16:03.380,-0.34,0.005
22:16:03.384,-0.35,0.01
22:16:03.388,-0.315,-0.02
22:16:03.392,-0.36,-0.03
22:16:03.396,-0.33,-0.035
22:16:03.400,-0.31,-0.03
22:16:03.404,-0.3,-0.05
22:16:03.408,-0.3,-0.05
22:16:03.412,-0.25,-0.04
22:16:03.416,-0.21,-0.05
22:16:03.420,-0.14,-0.025
22:16:03.424,-0.05,-0.075
22:16:03.428,0.06,-0.085
22:16:03.432,0.125,-0.115
22:16:03.436,0.18,-0.17
22:16:03.440,0.23,-0.19
22:16:03.444,0.245,-0.205
22:16:03.448,0.23,-0.26
22:16:03.452,0.215,-0.365
22:16:03.456,0.305,-0.53
22:16:03.460,0.55,-0.75
22:16:03.464,0.855,-1.0
22:16:03.468,1.055,-1.19
22:16:03.472,0.98,-1.28
22:16:03.476,0.605,-1.07
22:16:03.480,0.11,-0.66
22:16:03.484,-0.21,-0.39
22:16:03.488,-0.34,-0.205
22:16:03.492,-0.39,-0.085
22:16:03.496,-0.415,-0.005
22:16:03.500,-0.4,0.065
22:16:03.504,-0.43,0.08
22:16:03.508,-0.45,0.09
22:16:03.512,-0.47,0.06
22:16:03.516,-0.485,0.07
22:16:03.520,-0.495,0.05
22:16:03.524,-0.5,0.05
22:16:03.528,-0.515,0.035
22:16:03.532,-0.505,0.035
22:16:03.536,-0.51,0.04
22:16:03.540,-0.5,0.03
22:16:03.544,-0.5,0.025
22:16:03.548,-0.49,0.025
22:16:03.552,-0.485,0.04
22:16:03.556,-0.5,0.03
22:16:03.560,-0.5,0.025
22:16:03.564,-0.49,0.02
22:16:03.568,-0.51,0.04
22:16:03.572,-0.51,0.055
22:16:03.576,-0.525,0.04
22:16:03.580,-0.51,0.06
22:16:03.584,-0.53,0.04
22:16:03.588,-0.525,0.045
22:16:03.592,-0.54,0.045
22:16:03.596,-0.55,0.05
22:16:03.600,-0.56,0.03
22:16:03.604,-0.56,0.05
22:16:03.608,-0.575,0.03
22:16:03.612,-0.58,0.015
22:16:03.616,-0.56,0.015
22:16:03.620,-0.555,0.01
22:16:03.624,-0.58,0.03
22:16:03.628,-0.57,0.01
22:16:03.632,-0.57,0.0
22:16:03.636,-0.555,0.015
22:16:03.640,-0.575,0.02
22:16:03.644,-0.575,0.015
22:16:03.648,-0.54,0.025
22:16:03.652,-0.53,0.0
22:16:03.656,-0.545,0.01
22:16:03.660,-0.52,0.01
22:16:03.664,-0.505,0.03
22:16:03.668,-0.48,0.015
22:16:03.672,-0.485,0.015
22:16:03.676,-0.46,0.0
22:16:03.680,-0.44,0.005
22:16:03.684,-0.425,-0.02
22:16:03.688,-0.44,-0.02
22:16:03.692,-0.445,-0.035
22:16:03.696,-0.435,-0.03
22:16:03.700,-0.42,-0.01
22:16:03.704,-0.385,-0.045
22:16:03.708,-0.385,-0.05
22:16:03.712,-0.36,-0.065
22:16:03.716,-0.365,-0.06
22:16:03.720,-0.355,-0.065
22:16:03.724,-0.35,-0.07
22:16:03.728,-0.345,-0.085
22:16:03.732,-0.365,-0.1
22:16:03.736,-0.345,-0.065
22:16:03.740,-0.345,-0.09
22:16:03.744,-0.32,-0.095
22:16:03.748,-0.32,-0.09
22:16:03.752,-0.335,-0.08
22:16:03.756,-0.335,-0.1
22:16:03.760,-0.35,-0.085
22:16:03.764,-0.325,-0.105
22:16:03.768,-0.32,-0.08
22:16:03.772,-0.31,-0.085
22:16:03.776,-0.29,-0.095
22:16:03.780,-0.285,-0.09
22:16:03.784,-0.315,-0.1
22:16:03.788,-0.32,-0.06
22:16:03.792,-0.28,-0.055
22:16:03.796,-0.3,-0.04
22:16:03.800,-0.315,-0.07
22:16:03.804,-0.315,-0.07
22:16:03.808,-0.335,-0.075
22:16:03.812,-0.32,-0.09
22:16:03.816,-0.33,-0.06
22:16:03.820,-0.33,-0.065
22:16:03.824,-0.33,-0.095
22:16:03.828,-0.325,-0.085
22:16:03.832,-0.335,-0.08
22:16:03.836,-0.34,-0.08
22:16:03.840,-0.345,-0.09
22:16:03.844,-0.34,-0.095
22:16:03.848,-0.34,-0.08
22:16:03.852,-0.345,-0.11
22:16:03.856,-0.36,-0.1
22:16:03.860,-0.335,-0.09
22:16:03.864,-0.325,-0.065
22:16:03.868,-0.325,-0.075
22:16:03.872,-0.345,-0.09
22:16:03.876,-0.3,-0.08
22:16:03.880,-0.28,-0.06
22:16:03.884,-0.24,-0.07
22:16:03.888,-0.22,-0.07
22:16:03.892,-0.185,-0.045
22:16:03.896,-0.19,-0.025
22:16:03.900,-0.175,-0.025
22:16:03.904,-0.165,-0.03
22:16:03.908,-0.15,-0.035
22:16:03.912,-0.15,-0.055
22:16:03.916,-0.185,-0.075
22:16:03.920,-0.205,-0.11
22:16:03.924,-0.23,-0.135
22:16:03.928,-0.255,-0.12
22:16:03.932,-0.29,-0.12
22:16:03.936,-0.31,-0.135
22:16:03.940,-0.36,-0.125
22:16:03.944,-0.36,-0.1
22:16:03.948,-0.395,-0.07
22:16:03.952,-0.38,-0.075
22:16:03.956,-0.375,-0.045
22:16:03.960,-0.365,-0.07
22:16:03.964,-0.375,-0.06
22:16:03.968,-0.37,-0.075
22:16:03.972,-0.365,-0.075
22:16:03.976,-0.335,-0.065
22:16:03.980,-0.365,-0.06
22:16:03.984,-0.355,-0.08
22:16:03.988,-0.34,-0.05
22:16:03.992,-0.325,-0.07
22:16:03.996,-0.32,-0.04
22:16:04.000,-0.32,-0.07
22:16:04.004,-0.31,-0.075
22:16:04.008,-0.3,-0.055
22:16:04.012,-0.31,-0.035
22:16:04.016,-0.315,-0.03
22:16:04.020,-0.31,-0.025
22:16:04.024,-0.315,-0.03
22:16:04.028,-0.325,-0.045
22:16:04.032,-0.305,-0.035
22:16:04.036,-0.31,-0.05
22:16:04.040,-0.295,-0.05
22:16:04.044,-0.265,-0.045
22:16:04.048,-0.26,-0.04
22:16:04.052,-0.2,-0.045
22:16:04.056,-0.105,-0.065
22:16:04.060,-0.04,-0.08
22:16:04.064,0.05,-0.115
22:16:04.068,0.105,-0.18
22:16:04.072,0.17,-0.225
22:16:04.076,0.225,-0.23
22:16:04.080,0.25,-0.245
22:16:04.084,0.215,-0.32
22:16:04.088,0.245,-0.44
22:16:04.092,0.38,-0.615
22:16:04.096,0.665,-0.84
22:16:04.100,0.985,-1.065
22:16:04.104,1.13,-1.24
22:16:04.108,0.99,-1.26
22:16:04.112,0.56,-0.98
22:16:04.116,0.08,-0.59
22:16:04.120,-0.2,-0.335
22:16:04.124,-0.305,-0.165
22:16:04.128,-0.365,-0.06
22:16:04.132,-0.37,0.005
22:16:04.136,-0.395,0.07
22:16:04.140,-0.42,0.105
22:16:04.144,-0.45,0.105
22:16:04.148,-0.455,0.12
22:16:04.152,-0.475,0.08
22:16:04.156,-0.475,0.09
22:16:04.160,-0.48,0.09
22:16:04.164,-0.51,0.075
22:16:04.168,-0.51,0.1
22:16:04.172,-0.505,0.075
22:16:04.176,-0.5,0.08
22:16:04.180,-0.495,0.09
22:16:04.184,-0.49,0.09
22:16:04.188,-0.505,0.075
22:16:04.192,-0.51,0.06
22:16:04.196,-0.515,0.075
22:16:04.200,-0.525,0.065
22:16:04.204,-0.53,0.045
22:16:04.208,-0.515,0.07
22:16:04.212,-0.545,0.075
22:16:04.216,-0.555,0.08
22:16:04.220,-0.49,0.07
22:16:04.224,-0.545,0.07
22:16:04.228,-0.535,0.06
22:16:04.232,-0.535,0.07
22:16:04.236,-0.51,0.065
22:16:04.240,-0.54,0.095
22:16:04.244,-0.545,0.1
22:16:04.248,-0.535,0.085
22:16:04.252,-0.535,0.105
22:16:04.256,-0.52,0.12
22:16:04.260,-0.545,0.1
22:16:04.264,-0.55,0.115
22:16:04.268,-0.55,0.12
22:16:04.272,-0.555,0.1
22:16:04.276,-0.56,0.11
22:16:04.280,-0.54,0.115
22:16:04.284,-0.52,0.1
22:16:04.288,-0.515,0.115
22:16:04.292,-0.5,0.095
22:16:04.296,-0.495,0.085
22:16:04.300,-0.475,0.07
22:16:04.304,-0.47,0.09
22:16:04.308,-0.485,0.085
22:16:04.312,-0.45,0.065
22:16:04.316,-0.425,0.055
22:16:04.320,-0.43,0.045
22:16:04.324,-0.41,0.05
22:16:04.328,-0.415,0.045
22:16:04.332,-0.375,0.035
22:16:04.336,-0.355,0.035
22:16:04.340,-0.325,0.02
22:16:04.344,-0.33,0.015
22:16:04.348,-0.315,0.01
22:16:04.352,-0.295,-0.01
22:16:04.356,-0.3,0.0
22:16:04.360,-0.275,0.0
22:16:04.364,-0.28,0.01
22:16:04.368,-0.28,-0.01
22:16:04.372,-0.28,-0.01
22:16:04.376,-0.28,-0.01
22:16:04.380,-0.275,-0.015
22:16:04.384,-0.26,-0.02
22:16:04.388,-0.27,-0.035
22:16:04.392,-0.28,-0.005
22:16:04.396,-0.27,-0.01
22:16:04.400,-0.26,-0.025
22:16:04.404,-0.255,-0.035
22:16:04.408,-0.26,-0.02
22:16:04.412,-0.26,-0.025
22:16:04.416,-0.25,-0.01
22:16:04.420,-0.275,0.005
22:16:04.424,-0.275,0.02
22:16:04.428,-0.275,-0.01
22:16:04.432,-0.25,0.0
22:16:04.436,-0.28,0.005
22:16:04.440,-0.265,-0.005
22:16:04.444,-0.28,0.01
22:16:04.448,-0.265,0.005
22:16:04.452,-0.24,0.025
22:16:04.456,-0.255,0.01
22:16:04.460,-0.265,0.015
22:16:04.464,-0.26,0.015
22:16:04.468,-0.27,0.015
22:16:04.472,-0.275,0.03
22:16:04.476,-0.28,0.0
22:16:04.480,-0.275,0.025
22:16:04.484,-0.27,0.005
22:16:04.488,-0.29,0.025
22:16:04.492,-0.285,0.025
22:16:04.496,-0.285,0.0
22:16:04.500,-0.28,-0.01
22:16:04.504,-0.3,0.0
22:16:04.508,-0.31,0.0
22:16:04.512,-0.29,0.02
22:16:04.516,-0.28,0.0
22:16:04.520,-0.29,0.02
22:16:04.524,-0.275,0.01
22:16:04.528,-0.265,0.01
22:16:04.532,-0.23,0.015
22:16:04.536,-0.17,0.025
22:16:04.540,-0.14,0.025
22:16:04.544,-0.145,0.04
22:16:04.548,-0.15,0.04
22:16:04.552,-0.155,0.035
22:16:04.556,-0.14,0.015
22:16:04.560,-0.135,0.0
22:16:04.564,-0.125,0.0
22:16:04.568,-0.135,-0.03
22:16:04.572,-0.175,-0.085
22:16:04.576,-0.195,-0.08
22:16:04.580,-0.215,-0.08
22:16:04.584,-0.225,-0.045
22:16:04.588,-0.265,-0.045
22:16:04.592,-0.295,-0.01
22:16:04.596,-0.305,0.0
22:16:04.600,-0.315,0.0
22:16:04.604,-0.33,0.015
22:16:04.608,-0.345,0.005
22:16:04.612,-0.34,0.0
22:16:04.616,-0.335,-0.005
22:16:04.620,-0.33,0.01
22:16:04.624,-0.31,0.0
22:16:04.628,-0.315,-0.01
22:16:04.632,-0.32,0.0
22:16:04.636,-0.32,-0.015
22:16:04.640,-0.32,-0.025
22:16:04.644,-0.305,-0.01
22:16:04.648,-0.285,-0.03
22:16:04.652,-0.305,-0.03
22:16:04.656,-0.32,-0.035
22:16:04.660,-0.315,-0.04
22:16:04.664,-0.29,-0.045
22:16:04.668,-0.295,-0.035
22:16:04.672,-0.285,-0.045
22:16:04.676,-0.27,-0.04
22:16:04.680,-0.255,-0.045
22:16:04.684,-0.265,-0.05
22:16:04.688,-0.255,-0.025
22:16:04.692,-0.23,0.0
22:16:04.696,-0.2,-0.035
22:16:04.700,-0.13,-0.065
22:16:04.704,-0.065,-0.065
22:16:04.708,0.02,-0.035
22:16:04.712,0.095,-0.11
22:16:04.716,0.135,-0.14
22:16:04.720,0.145,-0.195
22:16:04.724,0.185,-0.205
22:16:04.728,0.2,-0.265
22:16:04.732,0.17,-0.35
22:16:04.736,0.18,-0.47
22:16:04.740,0.355,-0.66
22:16:04.744,0.62,-0.905
22:16:04.748,0.925,-1.135
22:16:04.752,1.055,-1.295
22:16:04.756,0.94,-1.325
22:16:04.760,0.53,-1.065
22:16:04.764,0.055,-0.66
22:16:04.768,-0.265,-0.345
22:16:04.772,-0.38,-0.195
22:16:04.776,-0.415,-0.09
22:16:04.780,-0.42,-0.005
22:16:04.784,-0.415,0.065
22:16:04.788,-0.445,0.08
22:16:04.792,-0.43,0.08
22:16:04.796,-0.435,0.08
22:16:04.800,-0.46,0.065
22:16:04.804,-0.445,0.03
22:16:04.808,-0.455,0.055
22:16:04.812,-0.455,0.035
22:16:04.816,-0.46,0.05
22:16:04.820,-0.465,0.05
22:16:04.824,-0.48,0.06
22:16:04.828,-0.46,0.055
22:16:04.832,-0.45,0.05
22:16:04.836,-0.49,0.055
22:16:04.840,-0.49,0.05
22:16:04.844,-0.515,0.045
22:16:04.848,-0.51,0.05
22:16:04.852,-0.5,0.055
22:16:04.856,-0.515,0.05
22:16:04.860,-0.505,0.035
22:16:04.864,-0.515,0.03
22:16:04.868,-0.515,0.035
22:16:04.872,-0.53,0.035
22:16:04.876,-0.545,0.035
22:16:04.880,-0.555,0.035
22:16:04.884,-0.555,0.05
22:16:04.888,-0.55,0.045
22:16:04.892,-0.555,0.06
22:16:04.896,-0.555,0.06
22:16:04.900,-0.54,0.075
22:16:04.904,-0.535,0.075
22:16:04.908,-0.55,0.065
22:16:04.912,-0.54,0.09
22:16:04.916,-0.535,0.08
22:16:04.920,-0.545,0.095
22:16:04.924,-0.53,0.08
22:16:04.928,-0.53,0.1
22:16:04.932,-0.54,0.105
22:16:04.936,-0.545,0.075
22:16:04.940,-0.52,0.095
22:16:04.944,-0.505,0.07
22:16:04.948,-0.5,0.08
22:16:04.952,-0.485,0.06
22:16:04.956,-0.48,0.06
22:16:04.960,-0.495,0.055
22:16:04.964,-0.485,0.04
22:16:04.968,-0.475,0.025
22:16:04.972,-0.435,0.03
22:16:04.976,-0.435,0.015
22:16:04.980,-0.435,0.025
22:16:04.984,-0.4,-0.01
22:16:04.988,-0.39,0.0
22:16:04.992,-0.375,-0.02
22:16:04.996,-0.355,-0.025
22:16:05.000,-0.36,-0.025
22:16:05.004,-0.365,-0.01
22:16:05.008,-0.35,-0.035
22:16:05.012,-0.33,-0.03
22:16:05.016,-0.33,-0.04
22:16:05.020,-0.29,-0.03
22:16:05.024,-0.31,-0.035
22:16:05.028,-0.31,-0.03
22:16:05.032,-0.31,-0.04
22:16:05.036,-0.305,-0.035
22:16:05.040,-0.305,-0.03
22:16:05.044,-0.295,-0.03
22:16:05.048,-0.305,-0.02
22:16:05.052,-0.3,-0.005
22:16:05.056,-0.32,-0.015
22:16:05.060,-0.32,-0.01
22:16:05.064,-0.34,-0.005
22:16:05.068,-0.355,0.01
22:16:05.072,-0.345,-0.005
22:16:05.076,-0.345,-0.015
22:16:05.080,-0.33,0.015
22:16:05.084,-0.33,0.01
22:16:05.088,-0.325,-0.01
22:16:05.092,-0.305,0.01
22:16:05.096,-0.31,0.015
22:16:05.100,-0.335,0.02
22:16:05.104,-0.34,0.025
22:16:05.108,-0.365,0.04
22:16:05.112,-0.355,0.025
22:16:05.116,-0.365,0.035
22:16:05.120,-0.37,0.03
22:16:05.124,-0.325,0.02
22:16:05.128,-0.33,0.035
22:16:05.132,-0.345,0.045
22:16:05.136,-0.34,0.03
22:16:05.140,-0.355,0.025
22:16:05.144,-0.35,0.035
22:16:05.148,-0.32,0.06
22:16:05.152,-0.31,0.05
22:16:05.156,-0.35,0.055
22:16:05.160,-0.32,0.025
22:16:05.164,-0.32,0.03
22:16:05.168,-0.28,0.045
22:16:05.172,-0.23,0.04
22:16:05.176,-0.2,0.075
22:16:05.180,-0.24,0.06
22:16:05.184,-0.24,0.055
22:16:05.188,-0.22,0.06
22:16:05.192,-0.205,0.035
22:16:05.196,-0.215,0.02
22:16:05.200,-0.23,-0.005
22:16:05.204,-0.25,-0.025
22:16:05.208,-0.28,-0.06
22:16:05.212,-0.315,-0.055
22:16:05.216,-0.325,-0.06
22:16:05.220,-0.37,-0.05
22:16:05.224,-0.365,-0.03
22:16:05.228,-0.425,-0.01
22:16:05.232,-0.42,0.02
22:16:05.236,-0.38,0.04
22:16:05.240,-0.375,0.06
22:16:05.244,-0.36,0.05
22:16:05.248,-0.34,0.03
22:16:05.252,-0.375,0.01
22:16:05.256,-0.375,0.015
22:16:05.260,-0.38,0.0
22:16:05.264,-0.38,0.015
22:16:05.268,-0.37,0.01
22:16:05.272,-0.36,0.015
22:16:05.276,-0.38,0.015
22:16:05.280,-0.38,0.015
22:16:05.284,-0.355,0.015
22:16:05.288,-0.355,0.0
22:16:05.292,-0.37,0.01
22:16:05.296,-0.38,0.02
22:16:05.300,-0.355,0.005
22:16:05.304,-0.355,0.01
22:16:05.308,-0.35,0.005
22:16:05.312,-0.35,0.005
22:16:05.316,-0.335,0.0
22:16:05.320,-0.335,-0.025
22:16:05.324,-0.31,-0.01
22:16:05.328,-0.305,0.0
22:16:05.332,-0.245,-0.005
22:16:05.336,-0.175,-0.005
22:16:05.340,-0.1,0.02
22:16:05.344,-0.005,-0.035
22:16:05.348,0.085,-0.075
22:16:05.352,0.14,-0.115
22:16:05.356,0.185,-0.135
22:16:05.360,0.225,-0.125
22:16:05.364,0.255,-0.18
22:16:05.368,0.22,-0.295
22:16:05.372,0.235,-0.375
22:16:05.376,0.385,-0.55
22:16:05.380,0.67,-0.8
22:16:05.384,0.96,-1.03
22:16:05.388,1.075,-1.175
22:16:05.392,0.865,-1.165
22:16:05.396,0.425,-0.855
22:16:05.400,-0.02,-0.49
22:16:05.404,-0.255,-0.27
22:16:05.408,-0.345,-0.13
22:16:05.412,-0.385,-0.01
22:16:05.416,-0.37,0.045
22:16:05.420,-0.385,0.075
22:16:05.424,-0.41,0.105
22:16:05.428,-0.47,0.12
22:16:05.432,-0.48,0.09
22:16:05.436,-0.505,0.085
22:16:05.440,-0.495,0.07
22:16:05.444,-0.49,0.06
22:16:05.448,-0.48,0.025
22:16:05.452,-0.485,0.035
22:16:05.456,-0.48,0.05
22:16:05.460,-0.49,0.04
22:16:05.464,-0.47,0.035
22:16:05.468,-0.475,0.035
22:16:05.472,-0.47,0.055
22:16:05.476,-0.46,0.045
22:16:05.480,-0.48,0.045
22:16:05.484,-0.49,0.035
22:16:05.488,-0.5,0.05
22:16:05.492,-0.52,0.035
22:16:05.496,-0.53,0.02
22:16:05.500,-0.535,0.05
22:16:05.504,-0.54,0.025
22:16:05.508,-0.55,0.055
22:16:05.512,-0.545,0.065
22:16:05.516,-0.545,0.045
22:16:05.520,-0.555,0.03
22:16:05.524,-0.565,0.04
22:16:05.528,-0.575,0.055
22:16:05.532,-0.57,0.045
22:16:05.536,-0.57,0.05
22:16:05.540,-0.56,0.05
22:16:05.544,-0.55,0.065
22:16:05.548,-0.54,0.05
22:16:05.552,-0.545,0.02
22:16:05.556,-0.54,0.03
22:16:05.560,-0.555,0.045
22:16:05.564,-0.54,0.025
22:16:05.568,-0.54,0.045
22:16:05.572,-0.505,0.05
22:16:05.576,-0.515,0.035
22:16:05.580,-0.51,0.04
22:16:05.584,-0.475,0.04
22:16:05.588,-0.48,0.065
22:16:05.592,-0.475,0.045
22:16:05.596,-0.445,0.03
22:16:05.600,-0.43,0.015
22:16:05.604,-0.425,0.015
22:16:05.608,-0.44,-0.005
22:16:05.612,-0.41,-0.005
22:16:05.616,-0.39,-0.01
22:16:05.620,-0.405,-0.01
22:16:05.624,-0.385,-0.01
22:16:05.628,-0.38,-0.05
22:16:05.632,-0.375,-0.05
22:16:05.636,-0.38,-0.04
22:16:05.640,-0.355,-0.055
22:16:05.644,-0.345,-0.045
22:16:05.648,-0.34,-0.055
22:16:05.652,-0.335,-0.045
22:16:05.656,-0.32,-0.06
22:16:05.660,-0.315,-0.08
22:16:05.664,-0.325,-0.075
22:16:05.668,-0.325,-0.075
22:16:05.672,-0.32,-0.065
22:16:05.676,-0.315,-0.05
22:16:05.680,-0.295,-0.04
22:16:05.684,-0.295,-0.055
22:16:05.688,-0.29,-0.055
22:16:05.692,-0.275,-0.065
22:16:05.696,-0.27,-0.045
22:16:05.700,-0.265,-0.05
22:16:05.704,-0.295,-0.05
22:16:05.708,-0.295,-0.04
22:16:05.712,-0.29,-0.04
22:16:05.716,-0.29,-0.03
22:16:05.720,-0.28,-0.025
22:16:05.724,-0.28,-0.02
22:16:05.728,-0.28,-0.035
22:16:05.732,-0.295,-0.025
22:16:05.736,-0.33,-0.04
22:16:05.740,-0.34,-0.01
22:16:05.744,-0.335,-0.03
22:16:05.748,-0.345,-0.035
22:16:05.752,-0.335,-0.015
22:16:05.756,-0.325,-0.035
22:16:05.760,-0.315,-0.055
22:16:05.764,-0.335,-0.035
22:16:05.768,-0.355,-0.025
22:16:05.772,-0.345,-0.02
22:16:05.776,-0.32,-0.025
22:16:05.780,-0.33,-0.03
22:16:05.784,-0.33,-0.055
22:16:05.788,-0.325,-0.05
22:16:05.792,-0.29,-0.03
22:16:05.796,-0.295,-0.03
22:16:05.800,-0.27,-0.02
22:16:05.804,-0.225,-0.025
22:16:05.808,-0.185,-0.01
22:16:05.812,-0.195,0.03
22:16:05.816,-0.18,0.02
22:16:05.820,-0.19,0.02
22:16:05.824,-0.155,0.03
22:16:05.828,-0.15,0.0
22:16:05.832,-0.145,-0.02
22:16:05.836,-0.19,-0.01
22:16:05.840,-0.22,-0.06
22:16:05.844,-0.22,-0.11
22:16:05.848,-0.255,-0.095
22:16:05.852,-0.305,-0.095
22:16:05.856,-0.31,-0.105
22:16:05.860,-0.36,-0.08
22:16:05.864,-0.37,-0.03
22:16:05.868,-0.4,-0.03
22:16:05.872,-0.375,-0.035
22:16:05.876,-0.385,-0.04
22:16:05.880,-0.375,-0.025
22:16:05.884,-0.385,-0.01
22:16:05.888,-0.365,-0.035
22:16:05.892,-0.36,-0.035
22:16:05.896,-0.355,-0.005
22:16:05.900,-0.35,-0.035
22:16:05.904,-0.355,-0.01
22:16:05.908,-0.335,-0.035
22:16:05.912,-0.335,-0.02
22:16:05.916,-0.34,-0.01
22:16:05.920,-0.32,-0.04
22:16:05.924,-0.33,0.0
22:16:05.928,-0.335,-0.005
22:16:05.932,-0.335,-0.005
22:16:05.936,-0.345,-0.01
22:16:05.940,-0.335,-0.025
22:16:05.944,-0.315,-0.01
22:16:05.948,-0.345,-0.02
22:16:05.952,-0.335,-0.02
22:16:05.956,-0.34,-0.01
22:16:05.960,-0.295,-0.01
22:16:05.964,-0.28,-0.01
22:16:05.968,-0.245,-0.035
22:16:05.972,-0.17,-0.05
22:16:05.976,-0.09,-0.05
22:16:05.980,0.01,-0.055
22:16:05.984,0.085,-0.12
22:16:05.988,0.135,-0.17
22:16:05.992,0.175,-0.205
22:16:05.996,0.21,-0.21
22:16:06.000,0.195,-0.285
22:16:06.004,0.195,-0.365
22:16:06.008,0.26,-0.525
22:16:06.012,0.46,-0.705
22:16:06.016,0.785,-0.945
22:16:06.020,1.05,-1.165
22:16:06.024,1.055,-1.26
22:16:06.028,0.78,-1.185
22:16:06.032,0.275,-0.815
22:16:06.036,-0.12,-0.45
22:16:06.040,-0.315,-0.215
22:16:06.044,-0.385,-0.1
22:16:06.048,-0.41,0.0
22:16:06.052,-0.43,0.075
22:16:06.056,-0.44,0.07
22:16:06.060,-0.48,0.085
22:16:06.064,-0.475,0.11
22:16:06.068,-0.5,0.11
22:16:06.072,-0.51,0.09
22:16:06.076,-0.51,0.065
22:16:06.080,-0.53,0.09
22:16:06.084,-0.535,0.07
22:16:06.088,-0.52,0.06
22:16:06.092,-0.52,0.055
22:16:06.096,-0.52,0.065
22:16:06.100,-0.52,0.06
22:16:06.104,-0.505,0.065
22:16:06.108,-0.535,0.05
22:16:06.112,-0.555,0.03
22:16:06.116,-0.54,0.07
22:16:06.120,-0.54,0.09
22:16:06.124,-0.55,0.075
22:16:06.128,-0.56,0.065
22:16:06.132,-0.555,0.08
22:16:06.136,-0.545,0.065
22:16:06.140,-0.54,0.07
22:16:06.144,-0.54,0.075
22:16:06.148,-0.555,0.065
22:16:06.152,-0.55,0.08
22:16:06.156,-0.56,0.08
22:16:06.160,-0.56,0.08
22:16:06.164,-0.57,0.08
22:16:06.168,-0.545,0.09
22:16:06.172,-0.56,0.085
22:16:06.176,-0.585,0.08
22:16:06.180,-0.585,0.08
22:16:06.184,-0.565,0.1
22:16:06.188,-0.575,0.08
22:16:06.192,-0.585,0.11
22:16:06.196,-0.57,0.105
22:16:06.200,-0.55,0.1
22:16:06.204,-0.55,0.09
22:16:06.208,-0.55,0.09
22:16:06.212,-0.535,0.07
22:16:06.216,-0.53,0.075
22:16:06.220,-0.515,0.08
22:16:06.224,-0.51,0.06
22:16:06.228,-0.49,0.05
22:16:06.232,-0.48,0.025
22:16:06.236,-0.46,0.055
22:16:06.240,-0.445,0.035
22:16:06.244,-0.435,0.035
22:16:06.248,-0.41,0.025
22:16:06.252,-0.4,0.02
22:16:06.256,-0.4,0.02
22:16:06.260,-0.38,0.015
22:16:06.264,-0.385,0.0
22:16:06.268,-0.365,-0.005
22:16:06.272,-0.345,0.0
22:16:06.276,-0.35,-0.01
22:16:06.280,-0.31,0.0
22:16:06.284,-0.32,0.0
22:16:06.288,-0.315,-0.01
22:16:06.292,-0.305,-0.02
22:16:06.296,-0.31,-0.025
22:16:06.300,-0.3,-0.005
22:16:06.304,-0.305,-0.02
22:16:06.308,-0.31,-0.015
22:16:06.312,-0.31,-0.03
22:16:06.316,-0.305,-0.015
22:16:06.320,-0.305,-0.01
22:16:06.324,-0.305,-0.025
22:16:06.328,-0.3,-0.02
22:16:06.332,-0.29,-0.025
22:16:06.336,-0.3,0.0
22:16:06.340,-0.3,0.015
22:16:06.344,-0.295,0.0
22:16:06.348,-0.29,0.005
22:16:06.352,-0.285,0.035
22:16:06.356,-0.29,0.015
22:16:06.360,-0.295,0.015
22:16:06.364,-0.28,0.0
22:16:06.368,-0.285,0.02
22:16:06.372,-0.28,0.025
22:16:06.376,-0.28,0.03
22:16:06.380,-0.285,0.035
22:16:06.384,-0.265,0.045
22:16:06.388,-0.285,0.045
22:16:06.392,-0.285,0.025
22:16:06.396,-0.275,0.03
22:16:06.400,-0.275,0.035
22:16:06.404,-0.295,0.03
22:16:06.408,-0.29,0.035
22:16:06.412,-0.295,0.04
22:16:06.416,-0.295,0.025
22:16:06.420,-0.305,0.035
22:16:06.424,-0.28,0.035
22:16:06.428,-0.285,0.035
22:16:06.432,-0.27,0.02
22:16:06.436,-0.26,0.015
22:16:06.440,-0.245,0.04
22:16:06.444,-0.2,0.03
22:16:06.448,-0.155,0.06
22:16:06.452,-0.17,0.05
22:16:06.456,-0.17,0.075
22:16:06.460,-0.145,0.06
22:16:06.464,-0.13,0.045
22:16:06.468,-0.145,0.04
22:16:06.472,-0.145,0.02
22:16:06.476,-0.16,-0.015
22:16:06.480,-0.17,-0.06
22:16:06.484,-0.185,-0.075
22:16:06.488,-0.2,-0.04
22:16:06.492,-0.26,-0.05
22:16:06.496,-0.275,-0.035
22:16:06.500,-0.295,-0.01
22:16:06.504,-0.31,0.0
22:16:06.508,-0.325,0.02
22:16:06.512,-0.32,0.03
22:16:06.516,-0.315,0.03
22:16:06.520,-0.32,0.02
22:16:06.524,-0.33,0.02
22:16:06.528,-0.32,0.02
22:16:06.532,-0.32,0.015
22:16:06.536,-0.32,0.0
22:16:06.540,-0.32,0.0
22:16:06.544,-0.29,0.0
22:16:06.548,-0.31,-0.015
22:16:06.552,-0.3,-0.01
22:16:06.556,-0.295,-0.015
22:16:06.560,-0.295,-0.015
22:16:06.564,-0.3,-0.005
22:16:06.568,-0.305,0.005
22:16:06.572,-0.315,-0.03
22:16:06.576,-0.295,0.0
22:16:06.580,-0.285,-0.02
22:16:06.584,-0.275,0.005
22:16:06.588,-0.27,-0.005
22:16:06.592,-0.27,-0.01
22:16:06.596,-0.26,-0.01
22:16:06.600,-0.24,-0.015
22:16:06.604,-0.21,0.0
22:16:06.608,-0.13,0.0
22:16:06.612,-0.035,0.0
22:16:06.616,0.05,-0.035
22:16:06.620,0.09,-0.085
22:16:06.624,0.13,-0.135
22:16:06.628,0.185,-0.165
22:16:06.632,0.19,-0.175
22:16:06.636,0.195,-0.21
22:16:06.640,0.185,-0.325
22:16:06.644,0.195,-0.455
22:16:06.648,0.325,-0.64
22:16:06.652,0.61,-0.88
22:16:06.656,0.925,-1.095
22:16:06.660,1.08,-1.28
22:16:06.664,0.935,-1.26
22:16:06.668,0.535,-0.985
22:16:06.672,0.055,-0.565
22:16:06.676,-0.22,-0.295
22:16:06.680,-0.355,-0.13
22:16:06.684,-0.42,-0.02
22:16:06.688,-0.41,0.045
22:16:06.692,-0.39,0.085
22:16:06.696,-0.42,0.12
22:16:06.700,-0.44,0.115
22:16:06.704,-0.435,0.125
22:16:06.708,-0.42,0.105
22:16:06.712,-0.43,0.11
22:16:06.716,-0.44,0.105
22:16:06.720,-0.44,0.095
22:16:06.724,-0.46,0.12
22:16:06.728,-0.455,0.095
22:16:06.732,-0.46,0.075
22:16:06.736,-0.455,0.11
22:16:06.740,-0.455,0.11
22:16:06.744,-0.445,0.095
22:16:06.748,-0.455,0.095
22:16:06.752,-0.48,0.08
22:16:06.756,-0.49,0.08
22:16:06.760,-0.48,0.115
22:16:06.764,-0.485,0.085
22:16:06.768,-0.5,0.06
22:16:06.772,-0.48,0.07
22:16:06.776,-0.5,0.07
22:16:06.780,-0.49,0.085
22:16:06.784,-0.515,0.085
22:16:06.788,-0.51,0.065
22:16:06.792,-0.52,0.09
22:16:06.796,-0.52,0.095
22:16:06.800,-0.55,0.095
22:16:06.804,-0.535,0.085
22:16:06.808,-0.52,0.1
22:16:06.812,-0.52,0.1
22:16:06.816,-0.525,0.105
22:16:06.820,-0.52,0.085
22:16:06.824,-0.51,0.105
22:16:06.828,-0.515,0.095
22:16:06.832,-0.505,0.085
22:16:06.836,-0.505,0.1
22:16:06.840,-0.505,0.105
22:16:06.844,-0.5,0.115
22:16:06.848,-0.5,0.105
22:16:06.852,-0.505,0.115
22:16:06.856,-0.47,0.085
22:16:06.860,-0.47,0.09
22:16:06.864,-0.465,0.075
22:16:06.868,-0.465,0.065
22:16:06.872,-0.45,0.07
22:16:06.876,-0.445,0.045
22:16:06.880,-0.415,0.04
22:16:06.884,-0.41,0.005
22:16:06.888,-0.41,0.01
22:16:06.892,-0.39,-0.025
22:16:06.896,-0.37,-0.02
22:16:06.900,-0.36,-0.005
22:16:06.904,-0.365,-0.035
22:16:06.908,-0.34,-0.015
22:16:06.912,-0.355,-0.04
22:16:06.916,-0.345,-0.02
22:16:06.920,-0.32,-0.025
22:16:06.924,-0.3,-0.04
22:16:06.928,-0.305,-0.02
22:16:06.932,-0.305,-0.02
22:16:06.936,-0.29,-0.03
22:16:06.940,-0.295,-0.025
22:16:06.944,-0.29,-0.025
22:16:06.948,-0.275,-0.015
22:16:06.952,-0.285,-0.01
22:16:06.956,-0.295,-0.01
22:16:06.960,-0.29,-0.01
22:16:06.964,-0.27,0.0
22:16:06.968,-0.275,0.0
22:16:06.972,-0.28,-0.02
22:16:06.976,-0.295,0.0
22:16:06.980,-0.3,0.01
22:16:06.984,-0.29,-0.005
22:16:06.988,-0.3,0.0
22:16:06.992,-0.3,0.0
22:16:06.996,-0.31,-0.005
22:16:07.000,-0.295,0.0
22:16:07.004,-0.33,-0.005
22:16:07.008,-0.32,0.01
22:16:07.012,-0.315,-0.015
22:16:07.016,-0.285,0.0
22:16:07.020,-0.3,0.005
22:16:07.024,-0.315,0.0
22:16:07.028,-0.315,0.005
22:16:07.032,-0.315,0.02
22:16:07.036,-0.31,-0.005
22:16:07.040,-0.285,0.005
22:16:07.044,-0.315,0.015
22:16:07.048,-0.31,0.0
22:16:07.052,-0.29,0.01
22:16:07.056,-0.285,0.03
22:16:07.060,-0.285,0.015
22:16:07.064,-0.285,0.015
22:16:07.068,-0.285,0.035
22:16:07.072,-0.26,0.015
22:16:07.076,-0.225,0.02
22:16:07.080,-0.175,0.025
22:16:07.084,-0.16,0.045
22:16:07.088,-0.175,0.015
22:16:07.092,-0.19,0.025
22:16:07.096,-0.2,0.035
22:16:07.100,-0.17,0.03
22:16:07.104,-0.17,-0.005
22:16:07.108,-0.21,-0.045
22:16:07.112,-0.235,-0.07
22:16:07.116,-0.235,-0.075
22:16:07.120,-0.25,-0.075
22:16:07.124,-0.29,-0.07
22:16:07.128,-0.305,-0.04
22:16:07.132,-0.345,-0.03
22:16:07.136,-0.37,-0.025
22:16:07.140,-0.38,0.02
22:16:07.144,-0.365,0.02
22:16:07.148,-0.355,0.0
22:16:07.152,-0.345,0.035
22:16:07.156,-0.31,0.0
22:16:07.160,-0.32,0.005
22:16:07.164,-0.32,-0.015
22:16:07.168,-0.3,0.015
22:16:07.172,-0.32,0.0
22:16:07.176,-0.32,-0.015
22:16:07.180,-0.31,-0.01
22:16:07.184,-0.31,-0.02
22:16:07.188,-0.325,0.0
22:16:07.192,-0.325,-0.02
22:16:07.196,-0.295,-0.02
22:16:07.200,-0.32,-0.015
22:16:07.204,-0.34,-0.02
22:16:07.208,-0.33,-0.005
22:16:07.212,-0.315,-0.04
22:16:07.216,-0.325,-0.035
22:16:07.220,-0.335,-0.02
22:16:07.224,-0.34,-0.04
22:16:07.228,-0.31,-0.035
22:16:07.232,-0.29,-0.06
22:16:07.236,-0.265,-0.035
22:16:07.240,-0.185,-0.03
22:16:07.244,-0.1,-0.055
22:16:07.248,0.0,-0.06
22:16:07.252,0.06,-0.095
22:16:07.256,0.09,-0.16
22:16:07.260,0.135,-0.185
22:16:07.264,0.18,-0.18
22:16:07.268,0.175,-0.255
22:16:07.272,0.135,-0.34
22:16:07.276,0.18,-0.5
22:16:07.280,0.375,-0.68
22:16:07.284,0.65,-0.94
22:16:07.288,0.94,-1.135
22:16:07.292,1.035,-1.285
22:16:07.296,0.87,-1.22
22:16:07.300,0.38,-0.88
22:16:07.304,-0.06,-0.475
22:16:07.308,-0.295,-0.25
22:16:07.312,-0.39,-0.08
22:16:07.316,-0.445,0.02
22:16:07.320,-0.45,0.07
22:16:07.324,-0.445,0.115
22:16:07.328,-0.44,0.12
22:16:07.332,-0.44,0.13
22:16:07.336,-0.445,0.125
22:16:07.340,-0.425,0.11
22:16:07.344,-0.455,0.115
22:16:07.348,-0.46,0.11
22:16:07.352,-0.47,0.085
22:16:07.356,-0.465,0.075
22:16:07.360,-0.46,0.075
22:16:07.364,-0.455,0.085
22:16:07.368,-0.46,0.09
22:16:07.372,-0.44,0.08
22:16:07.376,-0.435,0.09
22:16:07.380,-0.46,0.095
22:16:07.384,-0.475,0.095
22:16:07.388,-0.47,0.09
22:16:07.392,-0.47,0.085
22:16:07.396,-0.495,0.09
22:16:07.400,-0.48,0.105
22:16:07.404,-0.455,0.105
22:16:07.408,-0.485,0.12
22:16:07.412,-0.48,0.1
22:16:07.416,-0.49,0.105
22:16:07.420,-0.53,0.09
22:16:07.424,-0.535,0.09
22:16:07.428,-0.55,0.12
22:16:07.432,-0.565,0.12
22:16:07.436,-0.565,0.145
22:16:07.440,-0.56,0.115
22:16:07.444,-0.555,0.115
22:16:07.448,-0.55,0.13
22:16:07.452,-0.545,0.12
22:16:07.456,-0.56,0.115
22:16:07.460,-0.545,0.13
22:16:07.464,-0.56,0.14
22:16:07.468,-0.55,0.135
22:16:07.472,-0.545,0.135
22:16:07.476,-0.52,0.135
22:16:07.480,-0.525,0.125
22:16:07.484,-0.505,0.125
22:16:07.488,-0.485,0.1
22:16:07.492,-0.46,0.125
22:16:07.496,-0.46,0.105
22:16:07.500,-0.46,0.125
22:16:07.504,-0.445,0.11
22:16:07.508,-0.43,0.095
22:16:07.512,-0.41,0.08
22:16:07.516,-0.42,0.06
22:16:07.520,-0.405,0.05
22:16:07.524,-0.39,0.03
22:16:07.528,-0.38,0.06
22:16:07.532,-0.385,0.045
22:16:07.536,-0.405,0.025
22:16:07.540,-0.395,0.015
22:16:07.544,-0.4,0.015
22:16:07.548,-0.4,0.03
22:16:07.552,-0.375,0.025
22:16:07.556,-0.36,0.02
22:16:07.560,-0.365,0.015
22:16:07.564,-0.37,0.0
22:16:07.568,-0.355,0.015
22:16:07.572,-0.35,-0.005
22:16:07.576,-0.34,0.005
22:16:07.580,-0.36,0.015
22:16:07.584,-0.355,0.0
22:16:07.588,-0.355,0.01
22:16:07.592,-0.33,0.01
22:16:07.596,-0.32,0.01
22:16:07.600,-0.33,0.025
22:16:07.604,-0.33,0.01
22:16:07.608,-0.32,0.015
22:16:07.612,-0.335,0.025
22:16:07.616,-0.32,0.025
22:16:07.620,-0.335,0.04
22:16:07.624,-0.35,0.02
22:16:07.628,-0.335,0.02
22:16:07.632,-0.345,0.04
22:16:07.636,-0.37,0.025
22:16:07.640,-0.325,0.035
22:16:07.644,-0.36,0.05
22:16:07.648,-0.36,0.03
22:16:07.652,-0.38,0.035
22:16:07.656,-0.38,0.03
22:16:07.660,-0.38,0.015
22:16:07.664,-0.385,0.005
22:16:07.668,-0.385,-0.005
22:16:07.672,-0.36,0.025
22:16:07.676,-0.385,0.03
22:16:07.680,-0.36,0.045
22:16:07.684,-0.365,0.03
22:16:07.688,-0.355,0.01
22:16:07.692,-0.34,0.025
22:16:07.696,-0.35,0.015
22:16:07.700,-0.33,0.025
22:16:07.704,-0.29,0.035
22:16:07.708,-0.22,0.03
22:16:07.712,-0.21,0.04
22:16:07.716,-0.225,0.06
22:16:07.720,-0.205,0.055
22:16:07.724,-0.195,0.06
22:16:07.728,-0.185,0.045
22:16:07.732,-0.175,0.02
22:16:07.736,-0.205,-0.03
22:16:07.740,-0.24,-0.05
22:16:07.744,-0.28,-0.05
22:16:07.748,-0.3,-0.055
22:16:07.752,-0.335,-0.04
22:16:07.756,-0.355,-0.04
22:16:07.760,-0.395,-0.025
22:16:07.764,-0.42,0.0
22:16:07.768,-0.43,0.005
22:16:07.772,-0.42,0.015
22:16:07.776,-0.435,0.0
22:16:07.780,-0.41,0.0
22:16:07.784,-0.395,-0.035
22:16:07.788,-0.4,-0.03
22:16:07.792,-0.405,-0.01
22:16:07.796,-0.41,-0.035
22:16:07.800,-0.385,-0.05
22:16:07.804,-0.395,-0.045
22:16:07.808,-0.41,-0.05
22:16:07.812,-0.405,-0.04
22:16:07.816,-0.37,-0.045
22:16:07.820,-0.375,-0.035
22:16:07.824,-0.37,-0.035
22:16:07.828,-0.37,-0.055
22:16:07.832,-0.375,-0.06
22:16:07.836,-0.37,-0.075
22:16:07.840,-0.39,-0.06
22:16:07.844,-0.395,-0.035
22:16:07.848,-0.365,-0.065
22:16:07.852,-0.35,-0.06
22:16:07.856,-0.36,-0.065
22:16:07.860,-0.32,-0.06
22:16:07.864,-0.28,-0.055
22:16:07.868,-0.205,-0.065
22:16:07.872,-0.13,-0.1
22:16:07.876,-0.055,-0.1
22:16:07.880,0.03,-0.145
22:16:07.884,0.075,-0.195
22:16:07.888,0.14,-0.235
22:16:07.892,0.205,-0.24
22:16:07.896,0.205,-0.29
22:16:07.900,0.175,-0.36
22:16:07.904,0.2,-0.46
22:16:07.908,0.33,-0.655
22:16:07.912,0.62,-0.86
22:16:07.916,0.91,-1.085
22:16:07.920,1.035,-1.215
22:16:07.924,0.805,-1.185
22:16:07.928,0.385,-0.88
22:16:07.932,-0.06,-0.525
22:16:07.936,-0.275,-0.325
22:16:07.940,-0.36,-0.215
22:16:07.944,-0.395,-0.09
22:16:07.948,-0.42,-0.015
22:16:07.952,-0.44,0.03
22:16:07.956,-0.495,0.045
22:16:07.960,-0.515,0.05
22:16:07.964,-0.52,0.045
22:16:07.968,-0.55,0.04
22:16:07.972,-0.54,0.025
22:16:07.976,-0.55,0.01
22:16:07.980,-0.565,0.035
22:16:07.984,-0.57,0.015
22:16:07.988,-0.57,0.025
22:16:07.992,-0.56,0.025
22:16:07.996,-0.59,0.01
22:16:08.000,-0.58,0.025
22:16:08.004,-0.59,-0.01
22:16:08.008,-0.585,0.0
22:16:08.012,-0.585,0.005
22:16:08.016,-0.585,0.0
22:16:08.020,-0.585,-0.025
22:16:08.024,-0.61,-0.015
22:16:08.028,-0.59,-0.02
22:16:08.032,-0.62,-0.025
22:16:08.036,-0.625,0.0
22:16:08.040,-0.605,-0.015
22:16:08.044,-0.605,-0.035
22:16:08.048,-0.615,-0.015
22:16:08.052,-0.61,-0.015
22:16:08.056,-0.62,-0.02
22:16:08.060,-0.605,-0.005
22:16:08.064,-0.635,0.015
22:16:08.068,-0.63,0.005
22:16:08.072,-0.62,0.02
22:16:08.076,-0.625,0.01
22:16:08.080,-0.63,0.015
22:16:08.084,-0.61,0.015
22:16:08.088,-0.61,0.015
22:16:08.092,-0.62,0.02
22:16:08.096,-0.62,0.005
22:16:08.100,-0.63,0.02
22:16:08.104,-0.585,0.005
22:16:08.108,-0.605,0.0
22:16:08.112,-0.57,0.01
22:16:08.116,-0.575,0.02
22:16:08.120,-0.545,0.0
22:16:08.124,-0.535,0.0
22:16:08.128,-0.525,-0.015
22:16:08.132,-0.52,-0.025
22:16:08.136,-0.51,-0.04
22:16:08.140,-0.49,-0.04
22:16:08.144,-0.49,-0.04
22:16:08.148,-0.48,-0.055
22:16:08.152,-0.475,-0.055
22:16:08.156,-0.44,-0.04
22:16:08.160,-0.44,-0.045
22:16:08.164,-0.43,-0.035
22:16:08.168,-0.405,-0.075
22:16:08.172,-0.385,-0.055
22:16:08.176,-0.385,-0.055
22:16:08.180,-0.38,-0.045
22:16:08.184,-0.39,-0.05
22:16:08.188,-0.36,-0.055
22:16:08.192,-0.355,-0.045
22:16:08.196,-0.355,-0.07
22:16:08.200,-0.355,-0.06
22:16:08.204,-0.35,-0.05
22:16:08.208,-0.345,-0.055
22:16:08.212,-0.36,-0.06
22:16:08.216,-0.365,-0.04
22:16:08.220,-0.355,-0.04
22:16:08.224,-0.345,-0.06
22:16:08.228,-0.355,-0.02
22:16:08.232,-0.355,-0.055
22:16:08.236,-0.33,-0.065
22:16:08.240,-0.335,-0.04
22:16:08.244,-0.35,-0.045
22:16:08.248,-0.34,-0.05
22:16:08.252,-0.35,-0.055
22:16:08.256,-0.345,-0.055
22:16:08.260,-0.31,-0.04
22:16:08.264,-0.34,-0.02
22:16:08.268,-0.355,-0.025
22:16:08.272,-0.33,-0.03
22:16:08.276,-0.32,-0.01
22:16:08.280,-0.32,-0.015
22:16:08.284,-0.345,0.0
22:16:08.288,-0.345,-0.01
22:16:08.292,-0.31,0.0
22:16:08.296,-0.32,0.005
22:16:08.300,-0.335,-0.005
22:16:08.304,-0.315,-0.01
22:16:08.308,-0.32,-0.015
22:16:08.312,-0.35,-0.025
22:16:08.316,-0.33,0.005
22:16:08.320,-0.315,0.0
22:16:08.324,-0.305,0.0
22:16:08.328,-0.31,-0.015
22:16:08.332,-0.32,0.0
22:16:08.336,-0.3,-0.005
22:16:08.340,-0.245,-0.015
22:16:08.344,-0.205,0.01
22:16:08.348,-0.165,0.03
22:16:08.352,-0.185,0.02
22:16:08.356,-0.19,0.03
22:16:08.360,-0.185,0.015
22:16:08.364,-0.16,0.0
22:16:08.368,-0.17,-0.01
22:16:08.372,-0.205,-0.035
22:16:08.376,-0.215,-0.075
22:16:08.380,-0.235,-0.08
22:16:08.384,-0.235,-0.08
22:16:08.388,-0.25,-0.065
22:16:08.392,-0.285,-0.035
22:16:08.396,-0.31,-0.03
22:16:08.400,-0.35,0.005
22:16:08.404,-0.36,0.01
22:16:08.408,-0.345,0.05
22:16:08.412,-0.355,0.04
22:16:08.416,-0.345,0.015
22:16:08.420,-0.33,0.015
22:16:08.424,-0.32,0.035
22:16:08.428,-0.325,0.01
22:16:08.432,-0.315,0.01
22:16:08.436,-0.345,-0.015
22:16:08.440,-0.335,0.0
22:16:08.444,-0.34,0.0
22:16:08.448,-0.33,0.0
22:16:08.452,-0.315,-0.03
22:16:08.456,-0.32,-0.015
22:16:08.460,-0.32,0.0
22:16:08.464,-0.315,-0.01
22:16:08.468,-0.31,-0.035
22:16:08.472,-0.315,-0.015
22:16:08.476,-0.315,-0.02
22:16:08.480,-0.325,-0.02
22:16:08.484,-0.315,-0.025
22:16:08.488,-0.28,-0.025
22:16:08.492,-0.295,-0.04
22:16:08.496,-0.26,-0.025
22:16:08.500,-0.225,-0.04
22:16:08.504,-0.155,-0.045
22:16:08.508,-0.09,-0.05
22:16:08.512,-0.02,-0.07
22:16:08.516,0.055,-0.09
22:16:08.520,0.14,-0.15
22:16:08.524,0.16,-0.2
22:16:08.528,0.185,-0.195
22:16:08.532,0.22,-0.255
22:16:08.536,0.185,-0.335
22:16:08.540,0.18,-0.475
22:16:08.544,0.3,-0.62
22:16:08.548,0.565,-0.9
22:16:08.552,0.865,-1.1
22:16:08.556,1.045,-1.29
22:16:08.560,0.94,-1.32
22:16:08.564,0.57,-1.085
22:16:08.568,0.07,-0.665
22:16:08.572,-0.255,-0.36
22:16:08.576,-0.38,-0.205
22:16:08.580,-0.435,-0.09
22:16:08.584,-0.445,0.0
22:16:08.588,-0.435,0.05
22:16:08.592,-0.45,0.085
22:16:08.596,-0.475,0.09
22:16:08.600,-0.455,0.09
22:16:08.604,-0.475,0.115
22:16:08.608,-0.445,0.09
22:16:08.612,-0.46,0.07
22:16:08.616,-0.45,0.06
22:16:08.620,-0.45,0.07
22:16:08.624,-0.46,0.08
22:16:08.628,-0.46,0.07
22:16:08.632,-0.44,0.07
22:16:08.636,-0.45,0.075
22:16:08.640,-0.465,0.065
22:16:08.644,-0.46,0.07
22:16:08.648,-0.45,0.075
22:16:08.652,-0.46,0.08
22:16:08.656,-0.48,0.055
22:16:08.660,-0.495,0.085
22:16:08.664,-0.505,0.05
22:16:08.668,-0.51,0.07
22:16:08.672,-0.53,0.075
22:16:08.676,-0.535,0.07
22:16:08.680,-0.54,0.06
22:16:08.684,-0.52,0.06
22:16:08.688,-0.52,0.065
22:16:08.692,-0.54,0.05
22:16:08.696,-0.54,0.05
22:16:08.700,-0.535,0.06
22:16:08.704,-0.555,0.07
22:16:08.708,-0.555,0.065
22:16:08.712,-0.56,0.06
22:16:08.716,-0.54,0.055
22:16:08.720,-0.545,0.075
22:16:08.724,-0.535,0.06
22:16:08.728,-0.5,0.09
22:16:08.732,-0.505,0.065
22:16:08.736,-0.515,0.085
22:16:08.740,-0.505,0.1
22:16:08.744,-0.505,0.08
22:16:08.748,-0.48,0.095
22:16:08.752,-0.48,0.09
22:16:08.756,-0.47,0.085
22:16:08.760,-0.475,0.05
22:16:08.764,-0.46,0.07
22:16:08.768,-0.445,0.06
22:16:08.772,-0.445,0.05
22:16:08.776,-0.425,0.035
22:16:08.780,-0.42,0.035
22:16:08.784,-0.41,0.015
22:16:08.788,-0.425,0.0
22:16:08.792,-0.395,-0.005
22:16:08.796,-0.36,-0.025
22:16:08.800,-0.36,-0.01
22:16:08.804,-0.375,-0.035
22:16:08.808,-0.35,-0.03
22:16:08.812,-0.33,-0.045
22:16:08.816,-0.335,-0.045
22:16:08.820,-0.32,-0.03
22:16:08.824,-0.33,-0.04
22:16:08.828,-0.29,-0.03
22:16:08.832,-0.3,-0.045
22:16:08.836,-0.285,-0.04
22:16:08.840,-0.3,-0.04
22:16:08.844,-0.28,-0.02
22:16:08.848,-0.285,-0.03
22:16:08.852,-0.285,-0.035
22:16:08.856,-0.29,-0.02
22:16:08.860,-0.28,-0.055
22:16:08.864,-0.275,-0.03
22:16:08.868,-0.29,-0.035
22:16:08.872,-0.295,-0.01
22:16:08.876,-0.3,-0.03
22:16:08.880,-0.3,-0.025
22:16:08.884,-0.3,-0.035
22:16:08.888,-0.305,-0.035
22:16:08.892,-0.325,-0.03
22:16:08.896,-0.31,-0.04
22:16:08.900,-0.31,-0.02
22:16:08.904,-0.31,-0.04
22:16:08.908,-0.31,-0.035
22:16:08.912,-0.31,-0.05
22:16:08.916,-0.305,-0.045
22:16:08.920,-0.32,-0.05
22:16:08.924,-0.32,-0.04
22:16:08.928,-0.32,-0.035
22:16:08.932,-0.31,-0.035
22:16:08.936,-0.33,-0.025
22:16:08.940,-0.31,-0.025
22:16:08.944,-0.295,-0.025
22:16:08.948,-0.315,-0.035
22:16:08.952,-0.315,-0.03
22:16:08.956,-0.28,-0.015
22:16:08.960,-0.275,-0.005
22:16:08.964,-0.3,-0.02
22:16:08.968,-0.29,-0.005
22:16:08.972,-0.26,-0.005
22:16:08.976,-0.22,-0.02
22:16:08.980,-0.185,-0.015
22:16:08.984,-0.16,0.015
22:16:08.988,-0.15,0.0
22:16:08.992,-0.175,0.005
22:16:08.996,-0.19,0.0
22:16:09.000,-0.18,-0.01
22:16:09.004,-0.17,-0.02
22:16:09.008,-0.195,-0.05
22:16:09.012,-0.205,-0.08
22:16:09.016,-0.23,-0.09
22:16:09.020,-0.27,-0.105
22:16:09.024,-0.285,-0.115
22:16:09.028,-0.31,-0.08
22:16:09.032,-0.345,-0.075
22:16:09.036,-0.365,-0.045
22:16:09.040,-0.395,-0.015
22:16:09.044,-0.38,0.0
22:16:09.048,-0.385,0.015
22:16:09.052,-0.39,0.02
22:16:09.056,-0.36,0.005
22:16:09.060,-0.335,-0.015
22:16:09.064,-0.32,0.0
22:16:09.068,-0.335,-0.01
22:16:09.072,-0.325,-0.03
22:16:09.076,-0.335,-0.015
22:16:09.080,-0.32,-0.03
22:16:09.084,-0.34,-0.03
22:16:09.088,-0.33,-0.04
22:16:09.092,-0.33,-0.03
22:16:09.096,-0.305,-0.05
22:16:09.100,-0.32,-0.05
22:16:09.104,-0.32,-0.065
22:16:09.108,-0.335,-0.06
22:16:09.112,-0.33,-0.065
22:16:09.116,-0.35,-0.055
22:16:09.120,-0.325,-0.065
22:16:09.124,-0.325,-0.065
22:16:09.128,-0.305,-0.065
22:16:09.132,-0.335,-0.065
22:16:09.136,-0.3,-0.065
22:16:09.140,-0.235,-0.065
22:16:09.144,-0.16,-0.075
22:16:09.148,-0.095,-0.06
22:16:09.152,-0.035,-0.1
22:16:09.156,0.04,-0.125
22:16:09.160,0.075,-0.175
22:16:09.164,0.115,-0.235
22:16:09.168,0.15,-0.22
22:16:09.172,0.165,-0.27
22:16:09.176,0.14,-0.395
22:16:09.180,0.165,-0.525
22:16:09.184,0.32,-0.69
22:16:09.188,0.62,-0.945
22:16:09.192,0.915,-1.175
22:16:09.196,1.03,-1.28
22:16:09.200,0.89,-1.24
22:16:09.204,0.45,-0.92
22:16:09.208,-0.02,-0.52
22:16:09.212,-0.265,-0.295
22:16:09.216,-0.375,-0.15
22:16:09.220,-0.44,-0.035
22:16:09.224,-0.445,-0.005
22:16:09.228,-0.455,0.05
22:16:09.232,-0.45,0.07
22:16:09.236,-0.48,0.075
22:16:09.240,-0.47,0.065
22:16:09.244,-0.48,0.045
22:16:09.248,-0.495,0.05
22:16:09.252,-0.495,0.05
22:16:09.256,-0.495,0.025
22:16:09.260,-0.49,0.045
22:16:09.264,-0.5,0.035
22:16:09.268,-0.51,0.03
22:16:09.272,-0.5,0.05
22:16:09.276,-0.48,0.025
22:16:09.280,-0.475,0.035
22:16:09.284,-0.47,0.045
22:16:09.288,-0.465,0.04
22:16:09.292,-0.485,0.035
22:16:09.296,-0.48,0.055
22:16:09.300,-0.5,0.055
22:16:09.304,-0.475,0.035
22:16:09.308,-0.495,0.05
22:16:09.312,-0.495,0.04
22:16:09.316,-0.51,0.055
22:16:09.320,-0.515,0.05
22:16:09.324,-0.52,0.03
22:16:09.328,-0.515,0.03
22:16:09.332,-0.53,0.045
22:16:09.336,-0.555,0.04
22:16:09.340,-0.54,0.05
22:16:09.344,-0.545,0.065
22:16:09.348,-0.56,0.05
22:16:09.352,-0.56,0.06
22:16:09.356,-0.54,0.06
22:16:09.360,-0.545,0.04
22:16:09.364,-0.555,0.07
22:16:09.368,-0.57,0.065
22:16:09.372,-0.55,0.045
22:16:09.376,-0.515,0.05
22:16:09.380,-0.53,0.045
22:16:09.384,-0.5,0.035
22:16:09.388,-0.47,0.055
22:16:09.392,-0.45,0.055
22:16:09.396,-0.445,0.075
22:16:09.400,-0.465,0.065
22:16:09.404,-0.43,0.04
22:16:09.408,-0.415,0.025
22:16:09.412,-0.425,0.03
22:16:09.416,-0.41,0.035
22:16:09.420,-0.41,0.015
22:16:09.424,-0.37,0.01
22:16:09.428,-0.385,-0.005
22:16:09.432,-0.37,-0.01
22:16:09.436,-0.35,0.0
22:16:09.440,-0.345,-0.01
22:16:09.444,-0.35,-0.04
22:16:09.448,-0.355,0.0
22:16:09.452,-0.35,-0.015
22:16:09.456,-0.33,-0.025
22:16:09.460,-0.32,-0.025
22:16:09.464,-0.31,-0.03
22:16:09.468,-0.31,-0.035
22:16:09.472,-0.295,-0.02
22:16:09.476,-0.3,-0.02
22:16:09.480,-0.3,-0.025
22:16:09.484,-0.285,-0.035
22:16:09.488,-0.29,-0.045
22:16:09.492,-0.29,-0.045
22:16:09.496,-0.295,-0.035
22:16:09.500,-0.29,-0.03
22:16:09.504,-0.285,-0.03
22:16:09.508,-0.29,-0.03
22:16:09.512,-0.305,-0.01
22:16:09.516,-0.29,0.0
22:16:09.520,-0.285,0.0
22:16:09.524,-0.29,0.0
22:16:09.528,-0.285,0.0
22:16:09.532,-0.295,0.005
22:16:09.536,-0.29,0.015
22:16:09.540,-0.29,0.0
22:16:09.544,-0.295,0.01
22:16:09.548,-0.31,0.0
22:16:09.552,-0.33,0.0
22:16:09.556,-0.32,-0.005
22:16:09.560,-0.35,0.01
22:16:09.564,-0.335,0.01
22:16:09.568,-0.34,0.005
22:16:09.572,-0.335,0.005
22:16:09.576,-0.34,0.01
22:16:09.580,-0.345,0.01
22:16:09.584,-0.355,0.0
22:16:09.588,-0.355,0.01
22:16:09.592,-0.35,0.035
22:16:09.596,-0.32,0.03
22:16:09.600,-0.32,0.01
22:16:09.604,-0.32,0.015
22:16:09.608,-0.325,0.025
22:16:09.612,-0.29,0.015
22:16:09.616,-0.23,0.045
22:16:09.620,-0.2,0.045
22:16:09.624,-0.195,0.06
22:16:09.628,-0.205,0.065
22:16:09.632,-0.22,0.07
22:16:09.636,-0.16,0.065
22:16:09.640,-0.195,0.045
22:16:09.644,-0.22,0.0
22:16:09.648,-0.21,-0.045
22:16:09.652,-0.26,-0.045
22:16:09.656,-0.29,-0.06
22:16:09.660,-0.32,-0.045
22:16:09.664,-0.355,-0.04
22:16:09.668,-0.38,-0.03
22:16:09.672,-0.42,-0.015
22:16:09.676,-0.435,0.0
22:16:09.680,-0.44,0.015
22:16:09.684,-0.435,0.01
22:16:09.688,-0.425,0.005
22:16:09.692,-0.42,0.0
22:16:09.696,-0.41,0.005
22:16:09.700,-0.375,0.0
22:16:09.704,-0.395,-0.005
22:16:09.708,-0.405,-0.005
22:16:09.712,-0.4,-0.035
22:16:09.716,-0.395,-0.025
22:16:09.720,-0.4,-0.03
22:16:09.724,-0.385,-0.03
22:16:09.728,-0.37,-0.035
22:16:09.732,-0.375,-0.04
22:16:09.736,-0.385,-0.035
22:16:09.740,-0.385,-0.035
22:16:09.744,-0.395,-0.03
22:16:09.748,-0.355,-0.015
22:16:09.752,-0.36,-0.035
22:16:09.756,-0.375,-0.025
22:16:09.760,-0.38,-0.02
22:16:09.764,-0.365,-0.055
22:16:09.768,-0.37,-0.04
22:16:09.772,-0.345,-0.055
22:16:09.776,-0.29,-0.065
22:16:09.780,-0.24,-0.07
22:16:09.784,-0.135,-0.06
22:16:09.788,-0.04,-0.115
22:16:09.792,0.035,-0.14
22:16:09.796,0.13,-0.22
22:16:09.800,0.165,-0.225
22:16:09.804,0.19,-0.22
22:16:09.808,0.175,-0.28
22:16:09.812,0.125,-0.365
22:16:09.816,0.16,-0.49
22:16:09.820,0.335,-0.695
22:16:09.824,0.66,-0.93
22:16:09.828,0.94,-1.145
22:16:09.832,1.01,-1.265
22:16:09.836,0.765,-1.16
22:16:09.840,0.27,-0.795
22:16:09.844,-0.11,-0.44
22:16:09.848,-0.305,-0.26
22:16:09.852,-0.375,-0.155
22:16:09.856,-0.37,-0.06
22:16:09.860,-0.43,0.0
22:16:09.864,-0.47,0.045
22:16:09.868,-0.49,0.05
22:16:09.872,-0.52,0.05
22:16:09.876,-0.525,0.04
22:16:09.880,-0.53,0.02
22:16:09.884,-0.54,0.0
22:16:09.888,-0.54,0.01
22:16:09.892,-0.545,0.0
22:16:09.896,-0.56,-0.01
22:16:09.900,-0.56,-0.01
22:16:09.904,-0.57,0.0
22:16:09.908,-0.555,-0.015
22:16:09.912,-0.55,-0.015
22:16:09.916,-0.56,-0.035
22:16:09.920,-0.565,-0.015
22:16:09.924,-0.58,-0.015
22:16:09.928,-0.575,-0.015
22:16:09.932,-0.585,-0.025
22:16:09.936,-0.595,-0.01
22:16:09.940,-0.59,-0.015
22:16:09.944,-0.58,-0.02
22:16:09.948,-0.57,0.0
22:16:09.952,-0.57,0.005
22:16:09.956,-0.575,-0.02
22:16:09.960,-0.58,-0.03
22:16:09.964,-0.58,-0.01
22:16:09.968,-0.615,0.0
22:16:09.972,-0.63,-0.02
22:16:09.976,-0.605,-0.01
22:16:09.980,-0.625,-0.025
22:16:09.984,-0.62,0.0
22:16:09.988,-0.635,0.0
22:16:09.992,-0.615,-0.01
22:16:09.996,-0.605,0.02
22:16:10.000,-0.625,0.005
22:16:10.004,-0.64,0.01
22:16:10.008,-0.625,0.005
22:16:10.012,-0.62,-0.005
22:16:10.016,-0.62,0.0
22:16:10.020,-0.615,0.01
22:16:10.024,-0.605,-0.01
22:16:10.028,-0.585,-0.015
22:16:10.032,-0.575,-0.01
22:16:10.036,-0.565,-0.025
22:16:10.040,-0.535,-0.025
22:16:10.044,-0.55,-0.04
22:16:10.048,-0.52,-0.045
22:16:10.052,-0.52,-0.05
22:16:10.056,-0.495,-0.04
22:16:10.060,-0.46,-0.075
22:16:10.064,-0.455,-0.06
22:16:10.068,-0.46,-0.065
22:16:10.072,-0.46,-0.06
22:16:10.076,-0.445,-0.06
22:16:10.080,-0.415,-0.085
22:16:10.084,-0.435,-0.06
22:16:10.088,-0.41,-0.08
22:16:10.092,-0.395,-0.075
22:16:10.096,-0.4,-0.075
22:16:10.100,-0.405,-0.1
22:16:10.104,-0.395,-0.095
22:16:10.108,-0.39,-0.095
22:16:10.112,-0.41,-0.095
22:16:10.116,-0.41,-0.095
22:16:10.120,-0.395,-0.08
22:16:10.124,-0.375,-0.095
22:16:10.128,-0.385,-0.105
22:16:10.132,-0.37,-0.095
22:16:10.136,-0.395,-0.095
22:16:10.140,-0.37,-0.11
22:16:10.144,-0.355,-0.105
22:16:10.148,-0.38,-0.1
22:16:10.152,-0.38,-0.08
22:16:10.156,-0.37,-0.085
22:16:10.160,-0.395,-0.09
22:16:10.164,-0.385,-0.085
22:16:10.168,-0.37,-0.09
22:16:10.172,-0.365,-0.075
22:16:10.176,-0.36,-0.075
22:16:10.180,-0.365,-0.055
22:16:10.184,-0.375,-0.055
22:16:10.188,-0.365,-0.065
22:16:10.192,-0.375,-0.03
22:16:10.196,-0.375,-0.05
22:16:10.200,-0.35,-0.04
22:16:10.204,-0.36,-0.06
22:16:10.208,-0.35,-0.06
22:16:10.212,-0.375,-0.06
22:16:10.216,-0.385,-0.05
22:16:10.220,-0.375,-0.035
22:16:10.224,-0.365,-0.08
22:16:10.228,-0.375,-0.045
22:16:10.232,-0.38,-0.04
22:16:10.236,-0.35,-0.065
22:16:10.240,-0.325,-0.075
22:16:10.244,-0.3,-0.055
22:16:10.248,-0.27,-0.04
22:16:10.252,-0.24,-0.045
22:16:10.256,-0.235,-0.035
22:16:10.260,-0.24,-0.04
22:16:10.264,-0.24,-0.05
22:16:10.268,-0.235,-0.045
22:16:10.272,-0.245,-0.075
22:16:10.276,-0.255,-0.095
22:16:10.280,-0.28,-0.145
22:16:10.284,-0.28,-0.155
22:16:10.288,-0.29,-0.13
22:16:10.292,-0.325,-0.125
22:16:10.296,-0.355,-0.1
22:16:10.300,-0.36,-0.11
22:16:10.304,-0.37,-0.055
22:16:10.308,-0.42,-0.05
22:16:10.312,-0.41,-0.03
22:16:10.316,-0.4,-0.065
22:16:10.320,-0.375,-0.04
22:16:10.324,-0.38,-0.045
22:16:10.328,-0.4,-0.055
22:16:10.332,-0.395,-0.045
22:16:10.336,-0.385,-0.07
22:16:10.340,-0.385,-0.08
22:16:10.344,-0.36,-0.085
22:16:10.348,-0.365,-0.085
22:16:10.352,-0.345,-0.08
22:16:10.356,-0.345,-0.1
22:16:10.360,-0.365,-0.11
22:16:10.364,-0.34,-0.09
22:16:10.368,-0.35,-0.1
22:16:10.372,-0.355,-0.085
22:16:10.376,-0.37,-0.08
22:16:10.380,-0.34,-0.07
22:16:10.384,-0.35,-0.105
22:16:10.388,-0.345,-0.085
22:16:10.392,-0.325,-0.09
22:16:10.396,-0.315,-0.09
22:16:10.400,-0.29,-0.085
22:16:10.404,-0.25,-0.075
22:16:10.408,-0.18,-0.09
22:16:10.412,-0.11,-0.09
22:16:10.416,-0.015,-0.095
22:16:10.420,0.04,-0.145
22:16:10.424,0.1,-0.17
22:16:10.428,0.13,-0.24
22:16:10.432,0.17,-0.25
22:16:10.436,0.195,-0.3
22:16:10.440,0.165,-0.395
22:16:10.444,0.185,-0.51
22:16:10.448,0.315,-0.725
22:16:10.452,0.605,-0.93
22:16:10.456,0.895,-1.175
22:16:10.460,1.03,-1.325
22:16:10.464,0.93,-1.34
22:16:10.468,0.505,-1.04
22:16:10.472,0.0,-0.655
22:16:10.476,-0.285,-0.39
22:16:10.480,-0.405,-0.24
22:16:10.484,-0.445,-0.12
22:16:10.488,-0.46,-0.05
22:16:10.492,-0.48,-0.01
22:16:10.496,-0.475,0.02
22:16:10.500,-0.49,0.035
22:16:10.504,-0.49,0.03
22:16:10.508,-0.495,0.01
22:16:10.512,-0.495,0.02
22:16:10.516,-0.485,0.0
22:16:10.520,-0.48,-0.01
22:16:10.524,-0.5,-0.005
22:16:10.528,-0.485,0.0
22:16:10.532,-0.485,0.0
22:16:10.536,-0.495,0.025
22:16:10.540,-0.48,0.015
22:16:10.544,-0.485,-0.02
22:16:10.548,-0.485,0.005
22:16:10.552,-0.515,-0.01
22:16:10.556,-0.52,0.015
22:16:10.560,-0.54,0.0
22:16:10.564,-0.51,0.0
22:16:10.568,-0.52,-0.025
22:16:10.572,-0.54,0.015
22:16:10.576,-0.545,-0.015
22:16:10.580,-0.54,0.005
22:16:10.584,-0.545,0.005
22:16:10.588,-0.54,0.025
22:16:10.592,-0.555,0.03
22:16:10.596,-0.555,0.01
22:16:10.600,-0.565,0.01
22:16:10.604,-0.58,0.02
22:16:10.608,-0.585,0.015
22:16:10.612,-0.575,0.015
22:16:10.616,-0.55,0.01
22:16:10.620,-0.545,0.025
22:16:10.624,-0.555,0.035
22:16:10.628,-0.545,0.035
22:16:10.632,-0.54,0.045
22:16:10.636,-0.545,0.055
22:16:10.640,-0.54,0.035
22:16:10.644,-0.55,0.03
22:16:10.648,-0.51,0.045
22:16:10.652,-0.525,0.035
22:16:10.656,-0.485,0.035
22:16:10.660,-0.48,0.005
22:16:10.664,-0.495,0.01
22:16:10.668,-0.475,0.0
22:16:10.672,-0.48,-0.015
22:16:10.676,-0.47,-0.02
22:16:10.680,-0.455,-0.02
22:16:10.684,-0.44,-0.045
22:16:10.688,-0.435,-0.04
22:16:10.692,-0.41,-0.055
22:16:10.696,-0.415,-0.08
22:16:10.700,-0.395,-0.08
22:16:10.704,-0.38,-0.08
22:16:10.708,-0.385,-0.08
22:16:10.712,-0.365,-0.09
22:16:10.716,-0.355,-0.06
22:16:10.720,-0.355,-0.085
22:16:10.724,-0.345,-0.095
22:16:10.728,-0.31,-0.095
22:16:10.732,-0.32,-0.075
22:16:10.736,-0.305,-0.065
22:16:10.740,-0.31,-0.075
22:16:10.744,-0.32,-0.065
22:16:10.748,-0.315,-0.065
22:16:10.752,-0.315,-0.075
22:16:10.756,-0.305,-0.075
22:16:10.760,-0.315,-0.08
22:16:10.764,-0.33,-0.07
22:16:10.768,-0.31,-0.075
22:16:10.772,-0.315,-0.07
22:16:10.776,-0.315,-0.09
22:16:10.780,-0.335,-0.08
22:16:10.784,-0.33,-0.075
22:16:10.788,-0.32,-0.08
22:16:10.792,-0.315,-0.08
22:16:10.796,-0.33,-0.085
22:16:10.800,-0.35,-0.095
22:16:10.804,-0.34,-0.08
22:16:10.808,-0.325,-0.065
22:16:10.812,-0.345,-0.08
22:16:10.816,-0.345,-0.08
22:16:10.820,-0.35,-0.095
22:16:10.824,-0.345,-0.07
22:16:10.828,-0.35,-0.085
22:16:10.832,-0.325,-0.08
22:16:10.836,-0.33,-0.08
22:16:10.840,-0.325,-0.07
22:16:10.844,-0.3,-0.065
22:16:10.848,-0.32,-0.06
22:16:10.852,-0.32,-0.07
22:16:10.856,-0.315,-0.08
22:16:10.860,-0.305,-0.07
22:16:10.864,-0.3,-0.05
22:16:10.868,-0.3,-0.05
22:16:10.872,-0.295,-0.065
22:16:10.876,-0.295,-0.085
22:16:10.880,-0.255,-0.065
22:16:10.884,-0.215,-0.06
22:16:10.888,-0.215,-0.045
22:16:10.892,-0.22,-0.05
22:16:10.896,-0.22,-0.055
22:16:10.900,-0.215,-0.08
22:16:10.904,-0.19,-0.08
22:16:10.908,-0.215,-0.085
22:16:10.912,-0.22,-0.125
22:16:10.916,-0.235,-0.15
22:16:10.920,-0.27,-0.16
22:16:10.924,-0.27,-0.185
22:16:10.928,-0.305,-0.16
22:16:10.932,-0.345,-0.145
22:16:10.936,-0.355,-0.155
22:16:10.940,-0.38,-0.12
22:16:10.944,-0.42,-0.11
22:16:10.948,-0.405,-0.065
22:16:10.952,-0.395,-0.085
22:16:10.956,-0.38,-0.07
22:16:10.960,-0.36,-0.065
22:16:10.964,-0.375,-0.08
22:16:10.968,-0.375,-0.065
22:16:10.972,-0.37,-0.085
22:16:10.976,-0.35,-0.07
22:16:10.980,-0.38,-0.105
22:16:10.984,-0.37,-0.095
22:16:10.988,-0.345,-0.09
22:16:10.992,-0.375,-0.115
22:16:10.996,-0.37,-0.09
22:16:11.000,-0.365,-0.11
22:16:11.004,-0.37,-0.09
22:16:11.008,-0.38,-0.1
22:16:11.012,-0.385,-0.125
22:16:11.016,-0.37,-0.115
22:16:11.020,-0.36,-0.115
22:16:11.024,-0.37,-0.125
22:16:11.028,-0.365,-0.115
22:16:11.032,-0.345,-0.115
22:16:11.036,-0.35,-0.135
22:16:11.040,-0.305,-0.105
22:16:11.044,-0.26,-0.125
22:16:11.048,-0.195,-0.12
22:16:11.052,-0.095,-0.145
22:16:11.056,0.005,-0.145
22:16:11.060,0.055,-0.195
22:16:11.064,0.095,-0.235
22:16:11.068,0.125,-0.275
22:16:11.072,0.145,-0.275
22:16:11.076,0.13,-0.345
22:16:11.080,0.1,-0.46
22:16:11.084,0.195,-0.635
22:16:11.088,0.43,-0.84
22:16:11.092,0.74,-1.07
22:16:11.096,0.95,-1.275
22:16:11.100,0.965,-1.375
22:16:11.104,0.625,-1.2
22:16:11.108,0.13,-0.795
22:16:11.112,-0.225,-0.485
22:16:11.116,-0.365,-0.285
22:16:11.120,-0.46,-0.16
22:16:11.124,-0.475,-0.06
22:16:11.128,-0.49,-0.005
22:16:11.132,-0.505,0.005
22:16:11.136,-0.5,0.01
22:16:11.140,-0.515,0.0
22:16:11.144,-0.495,-0.005
22:16:11.148,-0.51,0.0
22:16:11.152,-0.485,-0.02
22:16:11.156,-0.495,-0.01
22:16:11.160,-0.5,-0.005
22:16:11.164,-0.52,-0.01
22:16:11.168,-0.515,-0.005
22:16:11.172,-0.52,0.015
22:16:11.176,-0.515,0.0
22:16:11.180,-0.495,0.005
22:16:11.184,-0.49,0.0
22:16:11.188,-0.515,0.0
22:16:11.192,-0.515,0.0
22:16:11.196,-0.51,0.005
22:16:11.200,-0.52,0.015
22:16:11.204,-0.53,0.025
22:16:11.208,-0.54,0.02
22:16:11.212,-0.525,0.005
22:16:11.216,-0.545,0.0
22:16:11.220,-0.55,0.015
22:16:11.224,-0.555,0.0
22:16:11.228,-0.57,0.0
22:16:11.232,-0.58,0.01
22:16:11.236,-0.58,0.0
22:16:11.240,-0.59,-0.005
22:16:11.244,-0.58,0.0
22:16:11.248,-0.59,-0.015
22:16:11.252,-0.605,0.0
22:16:11.256,-0.605,0.005
22:16:11.260,-0.6,-0.01
22:16:11.264,-0.59,0.0
22:16:11.268,-0.605,0.01
22:16:11.272,-0.595,0.015
22:16:11.276,-0.58,0.04
22:16:11.280,-0.55,0.015
22:16:11.284,-0.545,0.01
22:16:11.288,-0.535,0.02
22:16:11.292,-0.515,0.01
22:16:11.296,-0.505,0.0
22:16:11.300,-0.51,-0.005
22:16:11.304,-0.485,0.0
22:16:11.308,-0.475,-0.015
22:16:11.312,-0.47,-0.005
22:16:11.316,-0.45,-0.02
22:16:11.320,-0.43,-0.035
22:16:11.324,-0.44,-0.045
22:16:11.328,-0.425,-0.075
22:16:11.332,-0.43,-0.07
22:16:11.336,-0.435,-0.08
22:16:11.340,-0.42,-0.08
22:16:11.344,-0.405,-0.08
22:16:11.348,-0.385,-0.08
22:16:11.352,-0.385,-0.09
22:16:11.356,-0.36,-0.085
22:16:11.360,-0.32,-0.09
22:16:11.364,-0.33,-0.095
22:16:11.368,-0.34,-0.1
22:16:11.372,-0.31,-0.115
22:16:11.376,-0.32,-0.08
22:16:11.380,-0.305,-0.115
22:16:11.384,-0.315,-0.085
22:16:11.388,-0.315,-0.085
22:16:11.392,-0.305,-0.085
22:16:11.396,-0.32,-0.07
22:16:11.400,-0.32,-0.085
22:16:11.404,-0.32,-0.06
22:16:11.408,-0.295,-0.07
22:16:11.412,-0.295,-0.05
22:16:11.416,-0.305,-0.04
22:16:11.420,-0.31,-0.025
22:16:11.424,-0.29,-0.03
22:16:11.428,-0.305,-0.045
22:16:11.432,-0.325,-0.035
22:16:11.436,-0.325,-0.03
22:16:11.440,-0.325,-0.04
22:16:11.444,-0.315,-0.04
22:16:11.448,-0.355,-0.035
22:16:11.452,-0.355,-0.025
22:16:11.456,-0.35,-0.005
22:16:11.460,-0.345,-0.03
22:16:11.464,-0.33,-0.015
22:16:11.468,-0.37,-0.02
22:16:11.472,-0.35,-0.035
22:16:11.476,-0.345,-0.015
22:16:11.480,-0.34,-0.025
22:16:11.484,-0.365,-0.035
22:16:11.488,-0.35,-0.025
22:16:11.492,-0.365,-0.02
22:16:11.496,-0.35,-0.015
22:16:11.500,-0.34,-0.01
22:16:11.504,-0.325,-0.025
22:16:11.508,-0.27,0.01
22:16:11.512,-0.235,0.0
22:16:11.516,-0.195,0.025
22:16:11.520,-0.19,0.02
22:16:11.524,-0.2,0.015
22:16:11.528,-0.185,0.0
22:16:11.532,-0.19,0.025
22:16:11.536,-0.215,0.005
22:16:11.540,-0.22,-0.035
22:16:11.544,-0.24,-0.07
22:16:11.548,-0.26,-0.12
22:16:11.552,-0.275,-0.1
22:16:11.556,-0.295,-0.105
22:16:11.560,-0.335,-0.075
22:16:11.564,-0.355,-0.085
22:16:11.568,-0.4,-0.075
22:16:11.572,-0.42,-0.03
22:16:11.576,-0.415,-0.01
22:16:11.580,-0.43,-0.02
22:16:11.584,-0.42,-0.005
22:16:11.588,-0.415,-0.01
22:16:11.592,-0.41,-0.04
22:16:11.596,-0.415,-0.035
22:16:11.600,-0.415,-0.03
22:16:11.604,-0.395,-0.04
22:16:11.608,-0.395,-0.03
22:16:11.612,-0.39,-0.045
22:16:11.616,-0.37,-0.06
22:16:11.620,-0.365,-0.06
22:16:11.624,-0.36,-0.055
22:16:11.628,-0.365,-0.06
22:16:11.632,-0.375,-0.065
22:16:11.636,-0.345,-0.04
22:16:11.640,-0.38,-0.05
22:16:11.644,-0.36,-0.045
22:16:11.648,-0.36,-0.055
22:16:11.652,-0.345,-0.07
22:16:11.656,-0.35,-0.06
22:16:11.660,-0.34,-0.055
22:16:11.664,-0.32,-0.07
22:16:11.668,-0.305,-0.05
22:16:11.672,-0.28,-0.08
22:16:11.676,-0.225,-0.075
22:16:11.680,-0.155,-0.08
22:16:11.684,-0.05,-0.11
22:16:11.688,0.03,-0.155
22:16:11.692,0.07,-0.205
22:16:11.696,0.135,-0.22
22:16:11.700,0.17,-0.24
22:16:11.704,0.18,-0.265
22:16:11.708,0.155,-0.33
