Time,ECG1,ECG2
23:28:07.880,-0.2,0.045
23:28:07.884,-0.24,0.03
23:28:07.888,-0.225,0.055
23:28:07.892,-0.215,0.035
23:28:07.896,-0.23,0.01
23:28:07.900,-0.25,0.035
23:28:07.904,-0.245,0.025
23:28:07.908,-0.265,0.02
23:28:07.912,-0.26,0.04
23:28:07.916,-0.285,0.01
23:28:07.920,-0.27,0.0
23:28:07.924,-0.285,0.025
23:28:07.928,-0.315,0.01
23:28:07.932,-0.29,0.01
23:28:07.936,-0.3,0.01
23:28:07.940,-0.3,0.005
23:28:07.944,-0.295,0.01
23:28:07.948,-0.3,0.0
23:28:07.952,-0.33,0.015
23:28:07.956,-0.335,0.005
23:28:07.960,-0.325,0.01
23:28:07.964,-0.325,0.02
23:28:07.968,-0.33,0.01
23:28:07.972,-0.34,0.005
23:28:07.976,-0.33,0.015
23:28:07.980,-0.32,0.005
23:28:07.984,-0.315,0.01
23:28:07.988,-0.325,0.02
23:28:07.992,-0.31,0.005
23:28:07.996,-0.3,0.0
23:28:08.000,-0.29,0.0
23:28:08.004,-0.295,0.0
23:28:08.008,-0.305,-0.015
23:28:08.012,-0.305,-0.02
23:28:08.016,-0.26,-0.005
23:28:08.020,-0.27,0.025
23:28:08.024,-0.275,0.0
23:28:08.028,-0.295,0.02
23:28:08.032,-0.285,0.025
23:28:08.036,-0.275,0.035
23:28:08.040,-0.31,0.035
23:28:08.044,-0.32,0.025
23:28:08.048,-0.32,0.015
23:28:08.052,-0.335,0.025
23:28:08.056,-0.355,0.025
23:28:08.060,-0.36,0.055
23:28:08.064,-0.355,0.05
23:28:08.068,-0.32,0.065
23:28:08.072,-0.33,0.075
23:28:08.076,-0.33,0.06
23:28:08.080,-0.315,0.08
23:28:08.084,-0.285,0.05
23:28:08.088,-0.215,0.055
23:28:08.092,-0.145,0.05
23:28:08.096,-0.055,0.04
23:28:08.100,0.015,0.01
23:28:08.104,0.055,-0.015
23:28:08.108,0.045,-0.04
23:28:08.112,0.05,-0.065
23:28:08.116,0.035,-0.035
23:28:08.120,0.01,-0.06
23:28:08.124,0.0,-0.115
23:28:08.128,0.11,-0.255
23:28:08.132,0.405,-0.445
23:28:08.136,0.72,-0.73
23:28:08.140,1.02,-1.015
23:28:08.144,1.135,-1.185
23:28:08.148,0.995,-1.135
23:28:08.152,0.615,-0.875
23:28:08.156,0.12,-0.445
23:28:08.160,-0.175,-0.12
23:28:08.164,-0.3,0.035
23:28:08.168,-0.37,0.125
23:28:08.172,-0.39,0.14
23:28:08.176,-0.45,0.135
23:28:08.180,-0.475,0.155
23:28:08.184,-0.505,0.13
23:28:08.188,-0.48,0.1
23:28:08.192,-0.495,0.09
23:28:08.196,-0.51,0.06
23:28:08.200,-0.505,0.05
23:28:08.204,-0.49,0.04
23:28:08.208,-0.5,0.02
23:28:08.212,-0.53,0.03
23:28:08.216,-0.525,0.045
23:28:08.220,-0.52,0.045
23:28:08.224,-0.515,0.045
23:28:08.228,-0.54,0.035
23:28:08.232,-0.54,0.03
23:28:08.236,-0.545,0.03
23:28:08.240,-0.52,0.005
23:28:08.244,-0.56,-0.025
23:28:08.248,-0.56,0.0
23:28:08.252,-0.575,0.0
23:28:08.256,-0.58,0.0
23:28:08.260,-0.575,0.01
23:28:08.264,-0.615,0.015
23:28:08.268,-0.63,0.0
23:28:08.272,-0.625,-0.005
23:28:08.276,-0.62,0.0
23:28:08.280,-0.605,-0.005
23:28:08.284,-0.59,0.0
23:28:08.288,-0.615,-0.005
23:28:08.292,-0.595,-0.025
23:28:08.296,-0.585,-0.02
23:28:08.300,-0.59,-0.025
23:28:08.304,-0.605,-0.03
23:28:08.308,-0.575,0.005
23:28:08.312,-0.59,-0.02
23:28:08.316,-0.55,-0.005
23:28:08.320,-0.54,-0.045
23:28:08.324,-0.54,-0.03
23:28:08.328,-0.53,-0.02
23:28:08.332,-0.52,-0.02
23:28:08.336,-0.515,-0.025
23:28:08.340,-0.525,-0.03
23:28:08.344,-0.51,-0.03
23:28:08.348,-0.52,-0.045
23:28:08.352,-0.5,-0.05
23:28:08.356,-0.5,-0.05
23:28:08.360,-0.48,-0.06
23:28:08.364,-0.465,-0.05
23:28:08.368,-0.48,-0.08
23:28:08.372,-0.465,-0.085
23:28:08.376,-0.455,-0.08
23:28:08.380,-0.44,-0.085
23:28:08.384,-0.445,-0.115
23:28:08.388,-0.435,-0.07
23:28:08.392,-0.43,-0.12
23:28:08.396,-0.415,-0.11
23:28:08.400,-0.415,-0.11
23:28:08.404,-0.4,-0.11
23:28:08.408,-0.4,-0.115
23:28:08.412,-0.39,-0.11
23:28:08.416,-0.39,-0.095
23:28:08.420,-0.39,-0.115
23:28:08.424,-0.37,-0.105
23:28:08.428,-0.36,-0.115
23:28:08.432,-0.355,-0.11
23:28:08.436,-0.345,-0.09
23:28:08.440,-0.34,-0.1
23:28:08.444,-0.33,-0.095
23:28:08.448,-0.335,-0.095
23:28:08.452,-0.355,-0.105
23:28:08.456,-0.37,-0.095
23:28:08.460,-0.355,-0.1
23:28:08.464,-0.34,-0.095
23:28:08.468,-0.37,-0.08
23:28:08.472,-0.35,-0.08
23:28:08.476,-0.38,-0.08
23:28:08.480,-0.4,-0.095
23:28:08.484,-0.415,-0.1
23:28:08.488,-0.4,-0.095
23:28:08.492,-0.41,-0.12
23:28:08.496,-0.38,-0.12
23:28:08.500,-0.38,-0.135
23:28:08.504,-0.39,-0.145
23:28:08.508,-0.42,-0.14
23:28:08.512,-0.41,-0.145
23:28:08.516,-0.39,-0.145
23:28:08.520,-0.37,-0.175
23:28:08.524,-0.385,-0.15
23:28:08.528,-0.395,-0.135
23:28:08.532,-0.42,-0.165
23:28:08.536,-0.4,-0.165
23:28:08.540,-0.4,-0.15
23:28:08.544,-0.38,-0.16
23:28:08.548,-0.37,-0.17
23:28:08.552,-0.37,-0.185
23:28:08.556,-0.36,-0.16
23:28:08.560,-0.365,-0.155
23:28:08.564,-0.375,-0.16
23:28:08.568,-0.355,-0.17
23:28:08.572,-0.375,-0.195
23:28:08.576,-0.34,-0.185
23:28:08.580,-0.355,-0.2
23:28:08.584,-0.355,-0.205
23:28:08.588,-0.365,-0.21
23:28:08.592,-0.385,-0.235
23:28:08.596,-0.385,-0.215
23:28:08.600,-0.36,-0.225
23:28:08.604,-0.37,-0.225
23:28:08.608,-0.36,-0.22
23:28:08.612,-0.345,-0.235
23:28:08.616,-0.345,-0.215
23:28:08.620,-0.355,-0.225
23:28:08.624,-0.345,-0.24
23:28:08.628,-0.36,-0.235
23:28:08.632,-0.365,-0.245
23:28:08.636,-0.38,-0.25
23:28:08.640,-0.38,-0.255
23:28:08.644,-0.38,-0.225
23:28:08.648,-0.36,-0.245
23:28:08.652,-0.355,-0.25
23:28:08.656,-0.355,-0.24
23:28:08.660,-0.345,-0.25
23:28:08.664,-0.335,-0.235
23:28:08.668,-0.32,-0.22
23:28:08.672,-0.315,-0.22
23:28:08.676,-0.34,-0.25
23:28:08.680,-0.315,-0.24
23:28:08.684,-0.295,-0.235
23:28:08.688,-0.31,-0.25
23:28:08.692,-0.3,-0.24
23:28:08.696,-0.29,-0.23
23:28:08.700,-0.29,-0.24
23:28:08.704,-0.255,-0.24
23:28:08.708,-0.225,-0.225
23:28:08.712,-0.18,-0.21
23:28:08.716,-0.16,-0.195
23:28:08.720,-0.12,-0.195
23:28:08.724,-0.105,-0.2
23:28:08.728,-0.08,-0.215
23:28:08.732,-0.06,-0.215
23:28:08.736,-0.06,-0.2
23:28:08.740,-0.05,-0.225
23:28:08.744,-0.09,-0.245
23:28:08.748,-0.125,-0.26
23:28:08.752,-0.165,-0.26
23:28:08.756,-0.2,-0.275
23:28:08.760,-0.265,-0.285
23:28:08.764,-0.3,-0.27
23:28:08.768,-0.34,-0.245
23:28:08.772,-0.38,-0.23
23:28:08.776,-0.39,-0.22
23:28:08.780,-0.41,-0.26
23:28:08.784,-0.4,-0.235
23:28:08.788,-0.39,-0.245
23:28:08.792,-0.395,-0.235
23:28:08.796,-0.395,-0.26
23:28:08.800,-0.395,-0.27
23:28:08.804,-0.39,-0.265
23:28:08.808,-0.37,-0.27
23:28:08.812,-0.385,-0.275
23:28:08.816,-0.405,-0.265
23:28:08.820,-0.415,-0.28
23:28:08.824,-0.395,-0.265
23:28:08.828,-0.41,-0.255
23:28:08.832,-0.375,-0.275
23:28:08.836,-0.385,-0.25
23:28:08.840,-0.39,-0.285
23:28:08.844,-0.38,-0.265
23:28:08.848,-0.42,-0.27
23:28:08.852,-0.405,-0.255
23:28:08.856,-0.4,-0.265
23:28:08.860,-0.4,-0.29
23:28:08.864,-0.385,-0.255
23:28:08.868,-0.385,-0.28
23:28:08.872,-0.385,-0.26
23:28:08.876,-0.375,-0.275
23:28:08.880,-0.365,-0.265
23:28:08.884,-0.33,-0.24
23:28:08.888,-0.3,-0.25
23:28:08.892,-0.22,-0.25
23:28:08.896,-0.17,-0.275
23:28:08.900,-0.045,-0.27
23:28:08.904,0.01,-0.285
23:28:08.908,0.075,-0.3
23:28:08.912,0.145,-0.33
23:28:08.916,0.165,-0.31
23:28:08.920,0.155,-0.315
23:28:08.924,0.125,-0.35
23:28:08.928,0.09,-0.42
23:28:08.932,0.22,-0.505
23:28:08.936,0.47,-0.705
23:28:08.940,0.805,-0.94
23:28:08.944,1.065,-1.165
23:28:08.948,1.145,-1.295
23:28:08.952,0.905,-1.21
23:28:08.956,0.425,-0.905
23:28:08.960,0.005,-0.575
23:28:08.964,-0.23,-0.335
23:28:08.968,-0.35,-0.18
23:28:08.972,-0.41,-0.115
23:28:08.976,-0.46,-0.055
23:28:08.980,-0.495,-0.01
23:28:08.984,-0.5,-0.015
23:28:08.988,-0.525,-0.06
23:28:08.992,-0.535,-0.07
23:28:08.996,-0.545,-0.08
23:28:09.000,-0.55,-0.08
23:28:09.004,-0.565,-0.085
23:28:09.008,-0.55,-0.09
23:28:09.012,-0.565,-0.105
23:28:09.016,-0.555,-0.1
23:28:09.020,-0.56,-0.095
23:28:09.024,-0.55,-0.085
23:28:09.028,-0.54,-0.095
23:28:09.032,-0.56,-0.1
23:28:09.036,-0.575,-0.095
23:28:09.040,-0.585,-0.1
23:28:09.044,-0.6,-0.11
23:28:09.048,-0.57,-0.105
23:28:09.052,-0.595,-0.1
23:28:09.056,-0.58,-0.12
23:28:09.060,-0.595,-0.125
23:28:09.064,-0.595,-0.11
23:28:09.068,-0.6,-0.105
23:28:09.072,-0.6,-0.085
23:28:09.076,-0.595,-0.1
23:28:09.080,-0.61,-0.08
23:28:09.084,-0.615,-0.1
23:28:09.088,-0.6,-0.095
23:28:09.092,-0.59,-0.08
23:28:09.096,-0.595,-0.075
23:28:09.100,-0.595,-0.075
23:28:09.104,-0.57,-0.075
23:28:09.108,-0.58,-0.065
23:28:09.112,-0.58,-0.05
23:28:09.116,-0.57,-0.08
23:28:09.120,-0.57,-0.065
23:28:09.124,-0.565,-0.045
23:28:09.128,-0.55,-0.07
23:28:09.132,-0.56,-0.055
23:28:09.136,-0.525,-0.085
23:28:09.140,-0.54,-0.065
23:28:09.144,-0.525,-0.06
23:28:09.148,-0.505,-0.065
23:28:09.152,-0.535,-0.05
23:28:09.156,-0.51,-0.065
23:28:09.160,-0.5,-0.06
23:28:09.164,-0.505,-0.075
23:28:09.168,-0.495,-0.08
23:28:09.172,-0.475,-0.085
23:28:09.176,-0.475,-0.115
23:28:09.180,-0.455,-0.1
23:28:09.184,-0.44,-0.115
23:28:09.188,-0.445,-0.09
23:28:09.192,-0.41,-0.095
23:28:09.196,-0.4,-0.095
23:28:09.200,-0.41,-0.12
23:28:09.204,-0.385,-0.095
23:28:09.208,-0.365,-0.085
23:28:09.212,-0.335,-0.08
23:28:09.216,-0.335,-0.09
23:28:09.220,-0.32,-0.1
23:28:09.224,-0.3,-0.06
23:28:09.228,-0.31,-0.065
23:28:09.232,-0.335,-0.07
23:28:09.236,-0.32,-0.05
23:28:09.240,-0.315,-0.065
23:28:09.244,-0.33,-0.055
23:28:09.248,-0.305,-0.03
23:28:09.252,-0.315,-0.045
23:28:09.256,-0.305,-0.03
23:28:09.260,-0.305,-0.05
23:28:09.264,-0.335,-0.03
23:28:09.268,-0.31,-0.055
23:28:09.272,-0.305,-0.035
23:28:09.276,-0.32,-0.035
23:28:09.280,-0.315,-0.035
23:28:09.284,-0.305,-0.03
23:28:09.288,-0.31,-0.045
23:28:09.292,-0.31,-0.025
23:28:09.296,-0.315,-0.04
23:28:09.300,-0.32,-0.035
23:28:09.304,-0.315,-0.04
23:28:09.308,-0.31,-0.035
23:28:09.312,-0.28,-0.05
23:28:09.316,-0.275,-0.02
23:28:09.320,-0.25,-0.005
23:28:09.324,-0.245,0.0
23:28:09.328,-0.22,-0.005
23:28:09.332,-0.225,0.0
23:28:09.336,-0.205,0.01
23:28:09.340,-0.185,0.025
23:28:09.344,-0.175,0.04
23:28:09.348,-0.14,0.045
23:28:09.352,-0.095,0.045
23:28:09.356,-0.085,0.06
23:28:09.360,-0.06,0.05
23:28:09.364,-0.03,0.05
23:28:09.368,-0.03,0.06
23:28:09.372,-0.02,0.045
23:28:09.376,-0.02,0.02
23:28:09.380,-0.065,-0.01
23:28:09.384,-0.095,-0.01
23:28:09.388,-0.115,-0.035
23:28:09.392,-0.175,-0.045
23:28:09.396,-0.21,-0.03
23:28:09.400,-0.26,-0.015
23:28:09.404,-0.31,-0.01
23:28:09.408,-0.375,-0.03
23:28:09.412,-0.4,-0.01
23:28:09.416,-0.415,-0.015
23:28:09.420,-0.42,0.005
23:28:09.424,-0.42,0.0
23:28:09.428,-0.43,-0.01
23:28:09.432,-0.425,-0.02
23:28:09.436,-0.39,-0.045
23:28:09.440,-0.385,-0.035
23:28:09.444,-0.395,-0.01
23:28:09.448,-0.395,0.0
23:28:09.452,-0.415,-0.01
23:28:09.456,-0.4,-0.01
23:28:09.460,-0.4,-0.02
23:28:09.464,-0.39,-0.005
23:28:09.468,-0.4,-0.015
23:28:09.472,-0.375,-0.01
23:28:09.476,-0.385,-0.02
23:28:09.480,-0.38,-0.02
23:28:09.484,-0.385,-0.02
23:28:09.488,-0.405,-0.04
23:28:09.492,-0.38,-0.04
23:28:09.496,-0.37,-0.045
23:28:09.500,-0.37,-0.04
23:28:09.504,-0.36,-0.03
23:28:09.508,-0.355,-0.055
23:28:09.512,-0.365,-0.05
23:28:09.516,-0.36,-0.02
23:28:09.520,-0.335,-0.01
23:28:09.524,-0.345,-0.02
23:28:09.528,-0.3,-0.01
23:28:09.532,-0.26,-0.015
23:28:09.536,-0.21,-0.03
23:28:09.540,-0.105,-0.015
23:28:09.544,-0.01,-0.05
23:28:09.548,0.065,-0.04
23:28:09.552,0.095,-0.105
23:28:09.556,0.11,-0.12
23:28:09.560,0.12,-0.105
23:28:09.564,0.08,-0.12
23:28:09.568,0.055,-0.17
23:28:09.572,0.125,-0.27
23:28:09.576,0.335,-0.44
23:28:09.580,0.73,-0.685
23:28:09.584,1.05,-0.945
23:28:09.588,1.225,-1.14
23:28:09.592,1.105,-1.125
23:28:09.596,0.695,-0.9
23:28:09.600,0.21,-0.475
23:28:09.604,-0.1,-0.155
23:28:09.608,-0.265,0.005
23:28:09.612,-0.35,0.12
23:28:09.616,-0.4,0.15
23:28:09.620,-0.43,0.165
23:28:09.624,-0.47,0.17
23:28:09.628,-0.495,0.16
23:28:09.632,-0.485,0.145
23:28:09.636,-0.475,0.13
23:28:09.640,-0.51,0.1
23:28:09.644,-0.515,0.115
23:28:09.648,-0.51,0.095
23:28:09.652,-0.505,0.065
23:28:09.656,-0.5,0.1
23:28:09.660,-0.5,0.095
23:28:09.664,-0.485,0.09
23:28:09.668,-0.5,0.095
23:28:09.672,-0.515,0.08
23:28:09.676,-0.525,0.095
23:28:09.680,-0.5,0.075
23:28:09.684,-0.52,0.065
23:28:09.688,-0.52,0.075
23:28:09.692,-0.52,0.075
23:28:09.696,-0.52,0.08
23:28:09.700,-0.545,0.075
23:28:09.704,-0.57,0.08
23:28:09.708,-0.58,0.07
23:28:09.712,-0.575,0.065
23:28:09.716,-0.56,0.075
23:28:09.720,-0.555,0.065
23:28:09.724,-0.595,0.035
23:28:09.728,-0.57,0.065
23:28:09.732,-0.59,0.065
23:28:09.736,-0.57,0.06
23:28:09.740,-0.575,0.065
23:28:09.744,-0.58,0.045
23:28:09.748,-0.555,0.06
23:28:09.752,-0.56,0.06
23:28:09.756,-0.555,0.06
23:28:09.760,-0.535,0.045
23:28:09.764,-0.5,0.065
23:28:09.768,-0.475,0.065
23:28:09.772,-0.495,0.065
23:28:09.776,-0.475,0.07
23:28:09.780,-0.49,0.08
23:28:09.784,-0.465,0.075
23:28:09.788,-0.455,0.065
23:28:09.792,-0.455,0.075
23:28:09.796,-0.44,0.055
23:28:09.800,-0.41,0.05
23:28:09.804,-0.425,0.045
23:28:09.808,-0.41,0.03
23:28:09.812,-0.39,0.04
23:28:09.816,-0.38,0.05
23:28:09.820,-0.365,0.03
23:28:09.824,-0.385,0.035
23:28:09.828,-0.37,0.02
23:28:09.832,-0.35,0.02
23:28:09.836,-0.36,-0.015
23:28:09.840,-0.335,0.01
23:28:09.844,-0.33,0.01
23:28:09.848,-0.315,0.01
23:28:09.852,-0.305,0.005
23:28:09.856,-0.28,0.015
23:28:09.860,-0.275,0.025
23:28:09.864,-0.275,0.02
23:28:09.868,-0.275,0.03
23:28:09.872,-0.26,0.02
23:28:09.876,-0.24,0.035
23:28:09.880,-0.245,0.015
23:28:09.884,-0.245,0.035
23:28:09.888,-0.24,0.045
23:28:09.892,-0.245,0.06
23:28:09.896,-0.255,0.065
23:28:09.900,-0.24,0.05
23:28:09.904,-0.25,0.05
23:28:09.908,-0.27,0.065
23:28:09.912,-0.26,0.07
23:28:09.916,-0.265,0.06
23:28:09.920,-0.275,0.06
23:28:09.924,-0.275,0.055
23:28:09.928,-0.285,0.065
23:28:09.932,-0.305,0.05
23:28:09.936,-0.29,0.06
23:28:09.940,-0.3,0.055
23:28:09.944,-0.29,0.06
23:28:09.948,-0.305,0.05
23:28:09.952,-0.285,0.045
23:28:09.956,-0.285,0.04
23:28:09.960,-0.295,0.035
23:28:09.964,-0.29,0.06
23:28:09.968,-0.29,0.045
23:28:09.972,-0.28,0.06
23:28:09.976,-0.27,0.055
23:28:09.980,-0.24,0.04
23:28:09.984,-0.22,0.05
23:28:09.988,-0.2,0.035
23:28:09.992,-0.21,0.04
23:28:09.996,-0.2,0.055
23:28:10.000,-0.185,0.035
23:28:10.004,-0.16,0.06
23:28:10.008,-0.11,0.08
23:28:10.012,-0.07,0.085
23:28:10.016,-0.065,0.085
23:28:10.020,-0.05,0.1
23:28:10.024,-0.02,0.105
23:28:10.028,-0.005,0.115
23:28:10.032,-0.015,0.085
23:28:10.036,-0.025,0.08
23:28:10.040,-0.035,0.05
23:28:10.044,-0.085,0.015
23:28:10.048,-0.12,0.01
23:28:10.052,-0.17,-0.01
23:28:10.056,-0.22,-0.03
23:28:10.060,-0.27,0.0
23:28:10.064,-0.32,-0.005
23:28:10.068,-0.37,0.015
23:28:10.072,-0.42,0.015
23:28:10.076,-0.44,0.045
23:28:10.080,-0.455,0.035
23:28:10.084,-0.44,0.015
23:28:10.088,-0.425,0.025
23:28:10.092,-0.415,0.005
23:28:10.096,-0.4,-0.01
23:28:10.100,-0.38,-0.01
23:28:10.104,-0.395,0.005
23:28:10.108,-0.38,0.0
23:28:10.112,-0.385,0.0
23:28:10.116,-0.365,-0.005
23:28:10.120,-0.385,0.005
23:28:10.124,-0.39,0.005
23:28:10.128,-0.385,0.015
23:28:10.132,-0.385,0.02
23:28:10.136,-0.39,0.005
23:28:10.140,-0.375,-0.005
23:28:10.144,-0.385,-0.025
23:28:10.148,-0.385,-0.02
23:28:10.152,-0.405,-0.005
23:28:10.156,-0.38,0.0
23:28:10.160,-0.38,-0.01
23:28:10.164,-0.375,-0.005
23:28:10.168,-0.375,-0.03
23:28:10.172,-0.35,-0.015
23:28:10.176,-0.36,-0.025
23:28:10.180,-0.35,-0.02
23:28:10.184,-0.315,-0.02
23:28:10.188,-0.265,-0.02
23:28:10.192,-0.215,-0.015
23:28:10.196,-0.12,-0.025
23:28:10.200,-0.04,-0.04
23:28:10.204,0.03,-0.065
23:28:10.208,0.065,-0.09
23:28:10.212,0.085,-0.095
23:28:10.216,0.09,-0.09
23:28:10.220,0.01,-0.12
23:28:10.224,0.0,-0.215
23:28:10.228,0.115,-0.34
23:28:10.232,0.37,-0.505
23:28:10.236,0.735,-0.785
23:28:10.240,1.06,-1.055
23:28:10.244,1.18,-1.2
23:28:10.248,1.045,-1.13
23:28:10.252,0.61,-0.815
23:28:10.256,0.13,-0.395
23:28:10.260,-0.16,-0.08
23:28:10.264,-0.3,0.065
23:28:10.268,-0.39,0.15
23:28:10.272,-0.44,0.155
23:28:10.276,-0.46,0.145
23:28:10.280,-0.48,0.145
23:28:10.284,-0.51,0.13
23:28:10.288,-0.515,0.11
23:28:10.292,-0.53,0.1
23:28:10.296,-0.545,0.1
23:28:10.300,-0.55,0.065
23:28:10.304,-0.545,0.08
23:28:10.308,-0.55,0.07
23:28:10.312,-0.545,0.06
23:28:10.316,-0.525,0.065
23:28:10.320,-0.545,0.065
23:28:10.324,-0.525,0.05
23:28:10.328,-0.545,0.06
23:28:10.332,-0.52,0.06
23:28:10.336,-0.525,0.07
23:28:10.340,-0.545,0.055
23:28:10.344,-0.54,0.07
23:28:10.348,-0.55,0.07
23:28:10.352,-0.55,0.065
23:28:10.356,-0.56,0.085
23:28:10.360,-0.56,0.06
23:28:10.364,-0.565,0.055
23:28:10.368,-0.58,0.06
23:28:10.372,-0.6,0.075
23:28:10.376,-0.59,0.065
23:28:10.380,-0.625,0.07
23:28:10.384,-0.615,0.06
23:28:10.388,-0.615,0.05
23:28:10.392,-0.59,0.03
23:28:10.396,-0.61,0.02
23:28:10.400,-0.61,0.035
23:28:10.404,-0.605,0.02
23:28:10.408,-0.585,0.035
23:28:10.412,-0.55,0.055
23:28:10.416,-0.57,0.06
23:28:10.420,-0.575,0.03
23:28:10.424,-0.565,0.05
23:28:10.428,-0.54,0.04
23:28:10.432,-0.52,0.045
23:28:10.436,-0.505,0.035
23:28:10.440,-0.5,0.035
23:28:10.444,-0.505,0.05
23:28:10.448,-0.505,0.045
23:28:10.452,-0.48,0.04
23:28:10.456,-0.47,0.025
23:28:10.460,-0.47,0.015
23:28:10.464,-0.44,0.03
23:28:10.468,-0.435,0.005
23:28:10.472,-0.435,0.005
23:28:10.476,-0.435,0.01
23:28:10.480,-0.42,0.0
23:28:10.484,-0.44,0.0
23:28:10.488,-0.41,-0.01
23:28:10.492,-0.4,-0.02
23:28:10.496,-0.375,-0.01
23:28:10.500,-0.355,-0.03
23:28:10.504,-0.345,-0.04
23:28:10.508,-0.34,-0.025
23:28:10.512,-0.345,-0.02
23:28:10.516,-0.345,0.0
23:28:10.520,-0.32,-0.02
23:28:10.524,-0.335,-0.025
23:28:10.528,-0.325,-0.03
23:28:10.532,-0.315,-0.01
23:28:10.536,-0.315,0.0
23:28:10.540,-0.29,-0.02
23:28:10.544,-0.285,-0.04
23:28:10.548,-0.31,-0.02
23:28:10.552,-0.305,-0.005
23:28:10.556,-0.3,0.0
23:28:10.560,-0.32,0.02
23:28:10.564,-0.315,0.0
23:28:10.568,-0.32,0.02
23:28:10.572,-0.31,0.015
23:28:10.576,-0.315,0.0
23:28:10.580,-0.315,0.0
23:28:10.584,-0.325,-0.005
23:28:10.588,-0.32,0.0
23:28:10.592,-0.33,-0.005
23:28:10.596,-0.335,-0.025
23:28:10.600,-0.35,-0.015
23:28:10.604,-0.345,-0.015
23:28:10.608,-0.335,-0.015
23:28:10.612,-0.325,-0.03
23:28:10.616,-0.325,-0.03
23:28:10.620,-0.28,-0.035
23:28:10.624,-0.275,-0.03
23:28:10.628,-0.295,-0.03
23:28:10.632,-0.295,-0.04
23:28:10.636,-0.29,-0.015
23:28:10.640,-0.26,-0.01
23:28:10.644,-0.21,-0.005
23:28:10.648,-0.145,-0.005
23:28:10.652,-0.135,0.0
23:28:10.656,-0.115,0.02
23:28:10.660,-0.045,0.02
23:28:10.664,-0.02,0.015
23:28:10.668,-0.03,0.025
23:28:10.672,-0.04,0.02
23:28:10.676,-0.02,-0.015
23:28:10.680,-0.06,-0.04
23:28:10.684,-0.12,-0.065
23:28:10.688,-0.16,-0.08
23:28:10.692,-0.215,-0.08
23:28:10.696,-0.285,-0.105
23:28:10.700,-0.315,-0.105
23:28:10.704,-0.38,-0.1
23:28:10.708,-0.42,-0.11
23:28:10.712,-0.45,-0.105
23:28:10.716,-0.485,-0.115
23:28:10.720,-0.465,-0.09
23:28:10.724,-0.455,-0.145
23:28:10.728,-0.43,-0.105
23:28:10.732,-0.44,-0.135
23:28:10.736,-0.43,-0.16
23:28:10.740,-0.43,-0.15
23:28:10.744,-0.425,-0.165
23:28:10.748,-0.405,-0.17
23:28:10.752,-0.39,-0.165
23:28:10.756,-0.4,-0.16
23:28:10.760,-0.385,-0.19
23:28:10.764,-0.38,-0.16
23:28:10.768,-0.37,-0.16
23:28:10.772,-0.385,-0.135
23:28:10.776,-0.37,-0.14
23:28:10.780,-0.385,-0.15
23:28:10.784,-0.38,-0.15
23:28:10.788,-0.375,-0.155
23:28:10.792,-0.385,-0.12
23:28:10.796,-0.38,-0.14
23:28:10.800,-0.35,-0.15
23:28:10.804,-0.36,-0.165
23:28:10.808,-0.38,-0.17
23:28:10.812,-0.36,-0.16
23:28:10.816,-0.37,-0.165
23:28:10.820,-0.345,-0.15
23:28:10.824,-0.325,-0.17
23:28:10.828,-0.24,-0.195
23:28:10.832,-0.15,-0.215
23:28:10.836,-0.06,-0.205
23:28:10.840,0.025,-0.22
23:28:10.844,0.12,-0.24
23:28:10.848,0.155,-0.27
23:28:10.852,0.2,-0.26
23:28:10.856,0.205,-0.24
23:28:10.860,0.135,-0.245
23:28:10.864,0.095,-0.31
23:28:10.868,0.2,-0.39
23:28:10.872,0.45,-0.58
23:28:10.876,0.79,-0.84
23:28:10.880,1.09,-1.11
23:28:10.884,1.17,-1.245
23:28:10.888,0.98,-1.18
23:28:10.892,0.52,-0.92
23:28:10.896,0.09,-0.51
23:28:10.900,-0.145,-0.295
23:28:10.904,-0.265,-0.17
23:28:10.908,-0.325,-0.095
23:28:10.912,-0.395,-0.075
23:28:10.916,-0.41,-0.055
23:28:10.920,-0.45,-0.055
23:28:10.924,-0.48,-0.095
23:28:10.928,-0.51,-0.1
23:28:10.932,-0.5,-0.11
23:28:10.936,-0.51,-0.16
23:28:10.940,-0.51,-0.18
23:28:10.944,-0.51,-0.175
23:28:10.948,-0.52,-0.18
23:28:10.952,-0.535,-0.195
23:28:10.956,-0.535,-0.18
23:28:10.960,-0.535,-0.18
23:28:10.964,-0.535,-0.19
23:28:10.968,-0.55,-0.195
23:28:10.972,-0.555,-0.185
23:28:10.976,-0.545,-0.195
23:28:10.980,-0.525,-0.17
23:28:10.984,-0.52,-0.195
23:28:10.988,-0.53,-0.2
23:28:10.992,-0.53,-0.195
23:28:10.996,-0.53,-0.205
23:28:11.000,-0.54,-0.185
23:28:11.004,-0.54,-0.18
23:28:11.008,-0.53,-0.19
23:28:11.012,-0.555,-0.2
23:28:11.016,-0.56,-0.205
23:28:11.020,-0.545,-0.2
23:28:11.024,-0.565,-0.195
23:28:11.028,-0.56,-0.205
23:28:11.032,-0.555,-0.19
23:28:11.036,-0.56,-0.2
23:28:11.040,-0.57,-0.205
23:28:11.044,-0.565,-0.205
23:28:11.048,-0.56,-0.21
23:28:11.052,-0.53,-0.22
23:28:11.056,-0.52,-0.22
23:28:11.060,-0.52,-0.21
23:28:11.064,-0.535,-0.205
23:28:11.068,-0.54,-0.235
23:28:11.072,-0.515,-0.215
23:28:11.076,-0.5,-0.22
23:28:11.080,-0.47,-0.22
23:28:11.084,-0.495,-0.225
23:28:11.088,-0.465,-0.235
23:28:11.092,-0.46,-0.235
23:28:11.096,-0.435,-0.205
23:28:11.100,-0.41,-0.215
23:28:11.104,-0.41,-0.23
23:28:11.108,-0.425,-0.23
23:28:11.112,-0.405,-0.23
23:28:11.116,-0.395,-0.235
23:28:11.120,-0.395,-0.25
23:28:11.124,-0.36,-0.245
23:28:11.128,-0.38,-0.245
23:28:11.132,-0.355,-0.25
23:28:11.136,-0.35,-0.235
23:28:11.140,-0.37,-0.235
23:28:11.144,-0.355,-0.25
23:28:11.148,-0.37,-0.235
23:28:11.152,-0.36,-0.235
23:28:11.156,-0.38,-0.23
23:28:11.160,-0.35,-0.24
23:28:11.164,-0.32,-0.23
23:28:11.168,-0.33,-0.235
23:28:11.172,-0.345,-0.23
23:28:11.176,-0.325,-0.225
23:28:11.180,-0.33,-0.22
23:28:11.184,-0.34,-0.215
23:28:11.188,-0.335,-0.225
23:28:11.192,-0.34,-0.21
23:28:11.196,-0.35,-0.195
23:28:11.200,-0.33,-0.2
23:28:11.204,-0.34,-0.18
23:28:11.208,-0.32,-0.19
23:28:11.212,-0.34,-0.17
23:28:11.216,-0.32,-0.175
23:28:11.220,-0.325,-0.18
23:28:11.224,-0.335,-0.17
23:28:11.228,-0.33,-0.14
23:28:11.232,-0.325,-0.14
23:28:11.236,-0.335,-0.15
23:28:11.240,-0.35,-0.14
23:28:11.244,-0.33,-0.145
23:28:11.248,-0.34,-0.13
23:28:11.252,-0.33,-0.17
23:28:11.256,-0.315,-0.135
23:28:11.260,-0.29,-0.145
23:28:11.264,-0.31,-0.13
23:28:11.268,-0.29,-0.13
23:28:11.272,-0.29,-0.125
23:28:11.276,-0.26,-0.12
23:28:11.280,-0.235,-0.11
23:28:11.284,-0.185,-0.09
23:28:11.288,-0.15,-0.105
23:28:11.292,-0.12,-0.07
23:28:11.296,-0.105,-0.06
23:28:11.300,-0.075,-0.065
23:28:11.304,-0.025,-0.08
23:28:11.308,-0.02,-0.06
23:28:11.312,-0.015,-0.065
23:28:11.316,-0.02,-0.085
23:28:11.320,-0.04,-0.095
23:28:11.324,-0.1,-0.135
23:28:11.328,-0.14,-0.145
23:28:11.332,-0.185,-0.12
23:28:11.336,-0.235,-0.11
23:28:11.340,-0.285,-0.11
23:28:11.344,-0.36,-0.09
23:28:11.348,-0.385,-0.085
23:28:11.352,-0.43,-0.1
23:28:11.356,-0.4,-0.08
23:28:11.360,-0.43,-0.1
23:28:11.364,-0.435,-0.08
23:28:11.368,-0.43,-0.095
23:28:11.372,-0.43,-0.105
23:28:11.376,-0.4,-0.1
23:28:11.380,-0.41,-0.115
23:28:11.384,-0.42,-0.12
23:28:11.388,-0.4,-0.12
23:28:11.392,-0.4,-0.11
23:28:11.396,-0.395,-0.12
23:28:11.400,-0.4,-0.1
23:28:11.404,-0.405,-0.115
23:28:11.408,-0.395,-0.095
23:28:11.412,-0.4,-0.11
23:28:11.416,-0.385,-0.095
23:28:11.420,-0.365,-0.085
23:28:11.424,-0.365,-0.095
23:28:11.428,-0.365,-0.08
23:28:11.432,-0.355,-0.09
23:28:11.436,-0.35,-0.1
23:28:11.440,-0.335,-0.08
23:28:11.444,-0.345,-0.06
23:28:11.448,-0.345,-0.1
23:28:11.452,-0.335,-0.075
23:28:11.456,-0.32,-0.06
23:28:11.460,-0.32,-0.065
23:28:11.464,-0.275,-0.055
23:28:11.468,-0.21,-0.08
23:28:11.472,-0.105,-0.08
23:28:11.476,-0.015,-0.08
23:28:11.480,0.04,-0.125
23:28:11.484,0.07,-0.16
23:28:11.488,0.11,-0.165
23:28:11.492,0.12,-0.155
23:28:11.496,0.115,-0.165
23:28:11.500,0.08,-0.23
23:28:11.504,0.115,-0.33
23:28:11.508,0.3,-0.48
23:28:11.512,0.63,-0.72
23:28:11.516,0.975,-0.96
23:28:11.520,1.225,-1.175
23:28:11.524,1.215,-1.24
23:28:11.528,0.88,-1.035
23:28:11.532,0.375,-0.615
23:28:11.536,0.0,-0.29
23:28:11.540,-0.205,-0.06
23:28:11.544,-0.285,0.08
23:28:11.548,-0.345,0.125
23:28:11.552,-0.385,0.135
23:28:11.556,-0.415,0.135
23:28:11.560,-0.44,0.135
23:28:11.564,-0.435,0.125
23:28:11.568,-0.465,0.12
23:28:11.572,-0.46,0.095
23:28:11.576,-0.455,0.07
23:28:11.580,-0.47,0.08
23:28:11.584,-0.47,0.07
23:28:11.588,-0.475,0.065
23:28:11.592,-0.48,0.065
23:28:11.596,-0.49,0.065
23:28:11.600,-0.5,0.065
23:28:11.604,-0.485,0.065
23:28:11.608,-0.48,0.05
23:28:11.612,-0.505,0.055
23:28:11.616,-0.51,0.05
23:28:11.620,-0.51,0.055
23:28:11.624,-0.515,0.075
23:28:11.628,-0.535,0.065
23:28:11.632,-0.525,0.08
23:28:11.636,-0.53,0.06
23:28:11.640,-0.535,0.07
23:28:11.644,-0.565,0.095
23:28:11.648,-0.55,0.08
23:28:11.652,-0.545,0.065
23:28:11.656,-0.535,0.08
23:28:11.660,-0.545,0.075
23:28:11.664,-0.54,0.09
23:28:11.668,-0.53,0.07
23:28:11.672,-0.525,0.085
23:28:11.676,-0.53,0.085
23:28:11.680,-0.545,0.105
23:28:11.684,-0.525,0.11
23:28:11.688,-0.52,0.12
23:28:11.692,-0.545,0.065
23:28:11.696,-0.53,0.075
23:28:11.700,-0.545,0.065
23:28:11.704,-0.51,0.08
23:28:11.708,-0.5,0.095
23:28:11.712,-0.48,0.075
23:28:11.716,-0.485,0.065
23:28:11.720,-0.485,0.05
23:28:11.724,-0.46,0.07
23:28:11.728,-0.45,0.05
23:28:11.732,-0.44,0.04
23:28:11.736,-0.435,0.04
23:28:11.740,-0.43,0.025
23:28:11.744,-0.415,0.02
23:28:11.748,-0.405,0.01
23:28:11.752,-0.395,0.02
23:28:11.756,-0.36,0.045
23:28:11.760,-0.36,0.02
23:28:11.764,-0.31,0.015
23:28:11.768,-0.325,0.035
23:28:11.772,-0.305,0.04
23:28:11.776,-0.29,0.035
23:28:11.780,-0.29,0.04
23:28:11.784,-0.29,0.05
23:28:11.788,-0.29,0.06
23:28:11.792,-0.265,0.06
23:28:11.796,-0.25,0.05
23:28:11.800,-0.245,0.065
23:28:11.804,-0.245,0.045
23:28:11.808,-0.255,0.065
23:28:11.812,-0.25,0.065
23:28:11.816,-0.24,0.055
23:28:11.820,-0.255,0.065
23:28:11.824,-0.265,0.06
23:28:11.828,-0.255,0.045
23:28:11.832,-0.25,0.07
23:28:11.836,-0.255,0.07
23:28:11.840,-0.25,0.085
23:28:11.844,-0.26,0.07
23:28:11.848,-0.255,0.09
23:28:11.852,-0.255,0.075
23:28:11.856,-0.27,0.085
23:28:11.860,-0.265,0.09
23:28:11.864,-0.27,0.075
23:28:11.868,-0.28,0.08
23:28:11.872,-0.27,0.07
23:28:11.876,-0.24,0.075
23:28:11.880,-0.22,0.085
23:28:11.884,-0.185,0.1
23:28:11.888,-0.2,0.105
23:28:11.892,-0.195,0.11
23:28:11.896,-0.185,0.125
23:28:11.900,-0.15,0.105
23:28:11.904,-0.135,0.115
23:28:11.908,-0.095,0.14
23:28:11.912,-0.035,0.14
23:28:11.916,-0.04,0.175
23:28:11.920,-0.02,0.15
23:28:11.924,-0.005,0.15
23:28:11.928,0.03,0.155
23:28:11.932,0.01,0.145
23:28:11.936,0.025,0.12
23:28:11.940,-0.01,0.09
23:28:11.944,-0.035,0.075
23:28:11.948,-0.075,0.055
23:28:11.952,-0.13,0.035
23:28:11.956,-0.18,0.025
23:28:11.960,-0.24,0.045
23:28:11.964,-0.3,0.035
23:28:11.968,-0.33,0.05
23:28:11.972,-0.36,0.06
23:28:11.976,-0.4,0.075
23:28:11.980,-0.38,0.07
23:28:11.984,-0.405,0.07
23:28:11.988,-0.395,0.07
23:28:11.992,-0.365,0.07
23:28:11.996,-0.345,0.06
23:28:12.000,-0.355,0.05
23:28:12.004,-0.375,0.045
23:28:12.008,-0.36,0.03
23:28:12.012,-0.36,0.04
23:28:12.016,-0.375,0.05
23:28:12.020,-0.36,0.04
23:28:12.024,-0.37,0.035
23:28:12.028,-0.345,0.04
23:28:12.032,-0.375,0.01
23:28:12.036,-0.37,0.02
23:28:12.040,-0.365,0.025
23:28:12.044,-0.395,0.015
23:28:12.048,-0.38,0.01
23:28:12.052,-0.39,0.015
23:28:12.056,-0.39,0.02
23:28:12.060,-0.385,0.005
23:28:12.064,-0.365,0.005
23:28:12.068,-0.38,0.0
23:28:12.072,-0.375,0.015
23:28:12.076,-0.37,0.01
23:28:12.080,-0.365,0.01
23:28:12.084,-0.33,0.0
23:28:12.088,-0.27,0.005
23:28:12.092,-0.21,0.03
23:28:12.096,-0.115,0.01
23:28:12.100,-0.005,0.0
23:28:12.104,0.045,-0.045
23:28:12.108,0.06,-0.08
23:28:12.112,0.065,-0.09
23:28:12.116,0.075,-0.06
23:28:12.120,0.03,-0.075
23:28:12.124,0.015,-0.175
23:28:12.128,0.11,-0.32
23:28:12.132,0.39,-0.515
23:28:12.136,0.73,-0.765
23:28:12.140,1.04,-1.035
23:28:12.144,1.18,-1.185
23:28:12.148,1.035,-1.105
23:28:12.152,0.645,-0.78
23:28:12.156,0.165,-0.375
23:28:12.160,-0.145,-0.055
23:28:12.164,-0.295,0.095
23:28:12.168,-0.38,0.17
23:28:12.172,-0.42,0.21
23:28:12.176,-0.44,0.21
23:28:12.180,-0.475,0.185
23:28:12.184,-0.505,0.165
23:28:12.188,-0.505,0.15
23:28:12.192,-0.515,0.13
23:28:12.196,-0.5,0.115
23:28:12.200,-0.515,0.1
23:28:12.204,-0.525,0.105
23:28:12.208,-0.525,0.1
23:28:12.212,-0.515,0.1
23:28:12.216,-0.525,0.095
23:28:12.220,-0.51,0.11
23:28:12.224,-0.51,0.1
23:28:12.228,-0.52,0.09
23:28:12.232,-0.535,0.105
23:28:12.236,-0.545,0.1
23:28:12.240,-0.535,0.125
23:28:12.244,-0.54,0.1
23:28:12.248,-0.545,0.1
23:28:12.252,-0.535,0.085
23:28:12.256,-0.57,0.11
23:28:12.260,-0.56,0.105
23:28:12.264,-0.58,0.11
23:28:12.268,-0.575,0.095
23:28:12.272,-0.605,0.13
23:28:12.276,-0.595,0.115
23:28:12.280,-0.58,0.095
23:28:12.284,-0.61,0.095
23:28:12.288,-0.615,0.09
23:28:12.292,-0.585,0.09
23:28:12.296,-0.59,0.095
23:28:12.300,-0.59,0.115
23:28:12.304,-0.58,0.085
23:28:12.308,-0.58,0.105
23:28:12.312,-0.575,0.085
23:28:12.316,-0.58,0.095
23:28:12.320,-0.56,0.08
23:28:12.324,-0.57,0.1
23:28:12.328,-0.54,0.115
23:28:12.332,-0.52,0.085
23:28:12.336,-0.49,0.09
23:28:12.340,-0.5,0.1
23:28:12.344,-0.49,0.08
23:28:12.348,-0.465,0.085
23:28:12.352,-0.46,0.085
23:28:12.356,-0.465,0.075
23:28:12.360,-0.44,0.1
23:28:12.364,-0.455,0.075
23:28:12.368,-0.43,0.075
23:28:12.372,-0.41,0.075
23:28:12.376,-0.385,0.07
23:28:12.380,-0.4,0.075
23:28:12.384,-0.395,0.075
23:28:12.388,-0.39,0.055
23:28:12.392,-0.385,0.06
23:28:12.396,-0.375,0.055
23:28:12.400,-0.345,0.03
23:28:12.404,-0.33,0.045
23:28:12.408,-0.335,0.055
23:28:12.412,-0.33,0.045
23:28:12.416,-0.34,0.055
23:28:12.420,-0.325,0.07
23:28:12.424,-0.315,0.055
23:28:12.428,-0.295,0.045
23:28:12.432,-0.3,0.06
23:28:12.436,-0.295,0.065
23:28:12.440,-0.285,0.065
23:28:12.444,-0.26,0.08
23:28:12.448,-0.27,0.065
23:28:12.452,-0.245,0.085
23:28:12.456,-0.255,0.09
23:28:12.460,-0.26,0.095
23:28:12.464,-0.28,0.095
23:28:12.468,-0.27,0.1
23:28:12.472,-0.28,0.095
23:28:12.476,-0.27,0.1
23:28:12.480,-0.28,0.105
23:28:12.484,-0.275,0.115
23:28:12.488,-0.285,0.115
23:28:12.492,-0.3,0.13
23:28:12.496,-0.285,0.12
23:28:12.500,-0.285,0.11
23:28:12.504,-0.285,0.095
23:28:12.508,-0.31,0.105
23:28:12.512,-0.265,0.11
23:28:12.516,-0.24,0.095
23:28:12.520,-0.25,0.085
23:28:12.524,-0.215,0.105
23:28:12.528,-0.205,0.115
23:28:12.532,-0.2,0.095
23:28:12.536,-0.205,0.115
23:28:12.540,-0.155,0.125
23:28:12.544,-0.135,0.135
23:28:12.548,-0.065,0.13
23:28:12.552,-0.05,0.145
23:28:12.556,-0.03,0.17
23:28:12.560,-0.005,0.15
23:28:12.564,0.015,0.175
23:28:12.568,0.02,0.18
23:28:12.572,0.035,0.14
23:28:12.576,0.005,0.14
23:28:12.580,-0.015,0.105
23:28:12.584,-0.065,0.06
23:28:12.588,-0.075,0.08
23:28:12.592,-0.15,0.065
23:28:12.596,-0.205,0.06
23:28:12.600,-0.265,0.085
23:28:12.604,-0.31,0.085
23:28:12.608,-0.36,0.085
23:28:12.612,-0.405,0.07
23:28:12.616,-0.41,0.095
23:28:12.620,-0.415,0.105
23:28:12.624,-0.415,0.095
23:28:12.628,-0.4,0.07
23:28:12.632,-0.41,0.07
23:28:12.636,-0.395,0.05
23:28:12.640,-0.41,0.05
23:28:12.644,-0.4,0.045
23:28:12.648,-0.405,0.07
23:28:12.652,-0.395,0.065
23:28:12.656,-0.385,0.08
23:28:12.660,-0.38,0.06
23:28:12.664,-0.37,0.06
23:28:12.668,-0.39,0.085
23:28:12.672,-0.38,0.07
23:28:12.676,-0.36,0.065
23:28:12.680,-0.355,0.06
23:28:12.684,-0.35,0.065
23:28:12.688,-0.345,0.08
23:28:12.692,-0.36,0.06
23:28:12.696,-0.345,0.07
23:28:12.700,-0.33,0.065
23:28:12.704,-0.335,0.07
23:28:12.708,-0.305,0.06
23:28:12.712,-0.325,0.06
23:28:12.716,-0.315,0.045
23:28:12.720,-0.305,0.055
23:28:12.724,-0.27,0.04
23:28:12.728,-0.19,0.045
23:28:12.732,-0.13,0.03
23:28:12.736,-0.035,0.02
23:28:12.740,0.015,-0.015
23:28:12.744,0.075,-0.01
23:28:12.748,0.09,-0.065
23:28:12.752,0.11,-0.055
23:28:12.756,0.07,-0.05
23:28:12.760,0.01,-0.08
23:28:12.764,0.02,-0.19
23:28:12.768,0.225,-0.35
23:28:12.772,0.54,-0.595
23:28:12.776,0.89,-0.87
23:28:12.780,1.155,-1.11
23:28:12.784,1.225,-1.165
23:28:12.788,0.985,-1.015
23:28:12.792,0.515,-0.62
23:28:12.796,0.11,-0.225
23:28:12.800,-0.14,0.04
23:28:12.804,-0.27,0.155
23:28:12.808,-0.34,0.225
23:28:12.812,-0.37,0.245
23:28:12.816,-0.41,0.215
23:28:12.820,-0.435,0.215
23:28:12.824,-0.45,0.195
23:28:12.828,-0.48,0.175
23:28:12.832,-0.475,0.155
23:28:12.836,-0.51,0.135
23:28:12.840,-0.53,0.125
23:28:12.844,-0.505,0.12
23:28:12.848,-0.51,0.105
23:28:12.852,-0.53,0.095
23:28:12.856,-0.525,0.1
23:28:12.860,-0.525,0.085
23:28:12.864,-0.54,0.085
23:28:12.868,-0.54,0.095
23:28:12.872,-0.545,0.09
23:28:12.876,-0.545,0.08
23:28:12.880,-0.56,0.07
23:28:12.884,-0.55,0.065
23:28:12.888,-0.56,0.08
23:28:12.892,-0.545,0.065
23:28:12.896,-0.53,0.085
23:28:12.900,-0.545,0.075
23:28:12.904,-0.57,0.07
23:28:12.908,-0.585,0.07
23:28:12.912,-0.575,0.05
23:28:12.916,-0.575,0.07
23:28:12.920,-0.585,0.055
23:28:12.924,-0.58,0.055
23:28:12.928,-0.58,0.06
23:28:12.932,-0.58,0.07
23:28:12.936,-0.57,0.055
23:28:12.940,-0.58,0.07
23:28:12.944,-0.59,0.05
23:28:12.948,-0.61,0.05
23:28:12.952,-0.61,0.05
23:28:12.956,-0.595,0.045
23:28:12.960,-0.57,0.015
23:28:12.964,-0.545,0.015
23:28:12.968,-0.555,0.005
23:28:12.972,-0.555,0.005
23:28:12.976,-0.54,0.005
23:28:12.980,-0.535,0.015
23:28:12.984,-0.52,0.01
23:28:12.988,-0.505,0.0
23:28:12.992,-0.52,0.0
23:28:12.996,-0.505,0.0
23:28:13.000,-0.485,-0.01
23:28:13.004,-0.455,-0.005
23:28:13.008,-0.45,-0.005
23:28:13.012,-0.425,-0.01
23:28:13.016,-0.425,-0.015
23:28:13.020,-0.405,-0.01
23:28:13.024,-0.395,0.0
23:28:13.028,-0.37,0.0
23:28:13.032,-0.375,-0.01
23:28:13.036,-0.375,-0.02
23:28:13.040,-0.335,-0.005
23:28:13.044,-0.35,-0.025
23:28:13.048,-0.345,-0.03
23:28:13.052,-0.38,-0.045
23:28:13.056,-0.355,-0.065
23:28:13.060,-0.35,-0.06
23:28:13.064,-0.345,-0.065
23:28:13.068,-0.355,-0.05
23:28:13.072,-0.35,-0.06
23:28:13.076,-0.35,-0.04
23:28:13.080,-0.33,-0.03
23:28:13.084,-0.335,-0.045
23:28:13.088,-0.325,-0.04
23:28:13.092,-0.34,-0.055
23:28:13.096,-0.32,-0.045
23:28:13.100,-0.335,-0.05
23:28:13.104,-0.32,-0.055
23:28:13.108,-0.33,-0.04
23:28:13.112,-0.33,-0.045
23:28:13.116,-0.32,-0.05
23:28:13.120,-0.315,-0.045
23:28:13.124,-0.32,-0.04
23:28:13.128,-0.32,-0.045
23:28:13.132,-0.305,-0.04
23:28:13.136,-0.315,-0.035
23:28:13.140,-0.315,-0.05
23:28:13.144,-0.32,-0.04
23:28:13.148,-0.32,-0.06
23:28:13.152,-0.325,-0.055
23:28:13.156,-0.33,-0.05
23:28:13.160,-0.325,-0.065
23:28:13.164,-0.33,-0.075
23:28:13.168,-0.335,-0.085
23:28:13.172,-0.34,-0.09
23:28:13.176,-0.325,-0.085
23:28:13.180,-0.33,-0.09
23:28:13.184,-0.315,-0.055
23:28:13.188,-0.31,-0.08
23:28:13.192,-0.295,-0.1
23:28:13.196,-0.275,-0.105
23:28:13.200,-0.265,-0.09
23:28:13.204,-0.25,-0.09
23:28:13.208,-0.23,-0.075
23:28:13.212,-0.2,-0.095
23:28:13.216,-0.15,-0.075
23:28:13.220,-0.135,-0.06
23:28:13.224,-0.1,-0.06
23:28:13.228,-0.075,-0.065
23:28:13.232,-0.045,-0.075
23:28:13.236,-0.025,-0.05
23:28:13.240,-0.005,-0.065
23:28:13.244,-0.005,-0.075
23:28:13.248,-0.02,-0.1
23:28:13.252,-0.08,-0.115
23:28:13.256,-0.125,-0.125
23:28:13.260,-0.175,-0.14
23:28:13.264,-0.24,-0.155
23:28:13.268,-0.3,-0.135
23:28:13.272,-0.355,-0.135
23:28:13.276,-0.41,-0.12
23:28:13.280,-0.435,-0.11
23:28:13.284,-0.45,-0.11
23:28:13.288,-0.465,-0.105
23:28:13.292,-0.45,-0.14
23:28:13.296,-0.47,-0.145
23:28:13.300,-0.46,-0.15
23:28:13.304,-0.43,-0.175
23:28:13.308,-0.42,-0.185
23:28:13.312,-0.43,-0.195
23:28:13.316,-0.425,-0.18
23:28:13.320,-0.42,-0.18
23:28:13.324,-0.4,-0.19
23:28:13.328,-0.41,-0.19
23:28:13.332,-0.4,-0.195
23:28:13.336,-0.415,-0.195
23:28:13.340,-0.4,-0.18
23:28:13.344,-0.395,-0.18
23:28:13.348,-0.38,-0.2
23:28:13.352,-0.365,-0.175
23:28:13.356,-0.375,-0.185
23:28:13.360,-0.33,-0.185
23:28:13.364,-0.375,-0.17
23:28:13.368,-0.385,-0.175
23:28:13.372,-0.36,-0.185
23:28:13.376,-0.36,-0.18
23:28:13.380,-0.375,-0.185
23:28:13.384,-0.365,-0.205
23:28:13.388,-0.35,-0.17
23:28:13.392,-0.3,-0.19
23:28:13.396,-0.26,-0.185
23:28:13.400,-0.175,-0.19
23:28:13.404,-0.075,-0.205
23:28:13.408,0.015,-0.23
23:28:13.412,0.085,-0.25
23:28:13.416,0.135,-0.28
23:28:13.420,0.17,-0.285
23:28:13.424,0.17,-0.24
23:28:13.428,0.14,-0.27
23:28:13.432,0.1,-0.325
23:28:13.436,0.21,-0.43
23:28:13.440,0.47,-0.6
23:28:13.444,0.795,-0.865
23:28:13.448,1.09,-1.12
23:28:13.452,1.15,-1.235
23:28:13.456,0.915,-1.14
23:28:13.460,0.445,-0.805
23:28:13.464,0.015,-0.49
23:28:13.468,-0.21,-0.26
23:28:13.472,-0.305,-0.14
23:28:13.476,-0.355,-0.05
23:28:13.480,-0.39,-0.04
23:28:13.484,-0.445,-0.035
23:28:13.488,-0.465,-0.01
23:28:13.492,-0.5,-0.025
23:28:13.496,-0.505,-0.045
23:28:13.500,-0.51,-0.08
23:28:13.504,-0.53,-0.095
23:28:13.508,-0.525,-0.115
23:28:13.512,-0.545,-0.11
23:28:13.516,-0.555,-0.105
23:28:13.520,-0.55,-0.11
23:28:13.524,-0.565,-0.12
23:28:13.528,-0.575,-0.12
23:28:13.532,-0.58,-0.095
23:28:13.536,-0.59,-0.1
23:28:13.540,-0.575,-0.1
23:28:13.544,-0.585,-0.095
23:28:13.548,-0.585,-0.095
23:28:13.552,-0.575,-0.1
23:28:13.556,-0.58,-0.1
23:28:13.560,-0.6,-0.08
23:28:13.564,-0.62,-0.09
23:28:13.568,-0.57,-0.07
23:28:13.572,-0.595,-0.055
23:28:13.576,-0.58,-0.06
23:28:13.580,-0.585,-0.075
23:28:13.584,-0.605,-0.06
23:28:13.588,-0.615,-0.05
23:28:13.592,-0.61,-0.04
23:28:13.596,-0.595,-0.035
23:28:13.600,-0.58,-0.03
23:28:13.604,-0.57,-0.015
23:28:13.608,-0.575,-0.02
23:28:13.612,-0.57,0.0
23:28:13.616,-0.58,-0.005
23:28:13.620,-0.585,0.005
23:28:13.624,-0.57,-0.005
23:28:13.628,-0.575,0.005
23:28:13.632,-0.555,0.005
23:28:13.636,-0.54,0.0
23:28:13.640,-0.535,0.0
23:28:13.644,-0.53,-0.02
23:28:13.648,-0.515,-0.01
23:28:13.652,-0.52,0.0
23:28:13.656,-0.505,-0.02
23:28:13.660,-0.475,-0.02
23:28:13.664,-0.505,-0.02
23:28:13.668,-0.48,0.0
23:28:13.672,-0.46,-0.01
23:28:13.676,-0.46,-0.02
23:28:13.680,-0.43,-0.035
23:28:13.684,-0.42,-0.02
23:28:13.688,-0.39,-0.005
23:28:13.692,-0.37,-0.005
23:28:13.696,-0.37,-0.03
23:28:13.700,-0.35,-0.03
23:28:13.704,-0.32,-0.01
23:28:13.708,-0.34,0.02
23:28:13.712,-0.33,0.01
23:28:13.716,-0.315,0.015
23:28:13.720,-0.305,0.025
23:28:13.724,-0.295,0.025
23:28:13.728,-0.295,0.03
23:28:13.732,-0.295,0.025
23:28:13.736,-0.29,0.02
23:28:13.740,-0.3,0.055
23:28:13.744,-0.29,0.045
23:28:13.748,-0.295,0.055
23:28:13.752,-0.285,0.05
23:28:13.756,-0.27,0.04
23:28:13.760,-0.265,0.045
23:28:13.764,-0.265,0.055
23:28:13.768,-0.28,0.06
23:28:13.772,-0.285,0.045
23:28:13.776,-0.28,0.055
23:28:13.780,-0.29,0.065
23:28:13.784,-0.3,0.075
23:28:13.788,-0.29,0.05
23:28:13.792,-0.275,0.075
23:28:13.796,-0.265,0.085
23:28:13.800,-0.265,0.08
23:28:13.804,-0.27,0.09
23:28:13.808,-0.26,0.095
23:28:13.812,-0.245,0.115
23:28:13.816,-0.23,0.085
23:28:13.820,-0.245,0.085
23:28:13.824,-0.255,0.09
23:28:13.828,-0.27,0.105
23:28:13.832,-0.25,0.09
23:28:13.836,-0.245,0.095
23:28:13.840,-0.25,0.09
23:28:13.844,-0.225,0.095
23:28:13.848,-0.24,0.12
23:28:13.852,-0.21,0.09
23:28:13.856,-0.19,0.105
23:28:13.860,-0.205,0.08
23:28:13.864,-0.185,0.09
23:28:13.868,-0.2,0.1
23:28:13.872,-0.145,0.13
23:28:13.876,-0.09,0.115
23:28:13.880,-0.06,0.13
23:28:13.884,-0.04,0.15
23:28:13.888,-0.03,0.135
23:28:13.892,-0.02,0.14
23:28:13.896,0.01,0.15
23:28:13.900,0.015,0.145
23:28:13.904,0.03,0.135
23:28:13.908,0.04,0.095
23:28:13.912,0.0,0.08
23:28:13.916,-0.025,0.07
23:28:13.920,-0.08,0.055
23:28:13.924,-0.14,0.065
23:28:13.928,-0.21,0.075
23:28:13.932,-0.25,0.07
23:28:13.936,-0.275,0.1
23:28:13.940,-0.325,0.1
23:28:13.944,-0.355,0.115
23:28:13.948,-0.355,0.105
23:28:13.952,-0.37,0.1
23:28:13.956,-0.365,0.09
23:28:13.960,-0.355,0.09
23:28:13.964,-0.355,0.085
23:28:13.968,-0.35,0.075
23:28:13.972,-0.36,0.075
23:28:13.976,-0.355,0.07
23:28:13.980,-0.345,0.065
23:28:13.984,-0.345,0.07
23:28:13.988,-0.355,0.045
23:28:13.992,-0.345,0.055
23:28:13.996,-0.33,0.055
23:28:14.000,-0.32,0.06
23:28:14.004,-0.32,0.06
23:28:14.008,-0.34,0.045
23:28:14.012,-0.325,0.075
23:28:14.016,-0.33,0.06
23:28:14.020,-0.33,0.07
23:28:14.024,-0.31,0.075
23:28:14.028,-0.315,0.07
23:28:14.032,-0.33,0.07
23:28:14.036,-0.3,0.07
23:28:14.040,-0.305,0.065
23:28:14.044,-0.285,0.065
23:28:14.048,-0.265,0.08
23:28:14.052,-0.25,0.075
23:28:14.056,-0.19,0.08
23:28:14.060,-0.11,0.075
23:28:14.064,-0.035,0.045
23:28:14.068,0.055,0.03
23:28:14.072,0.085,-0.005
23:28:14.076,0.115,-0.035
23:28:14.080,0.12,-0.055
23:28:14.084,0.08,-0.03
23:28:14.088,0.04,-0.085
23:28:14.092,0.025,-0.2
23:28:14.096,0.145,-0.305
23:28:14.100,0.44,-0.535
23:28:14.104,0.79,-0.79
23:28:14.108,1.095,-1.03
23:28:14.112,1.205,-1.125
23:28:14.116,1.02,-1.01
23:28:14.120,0.59,-0.665
23:28:14.124,0.12,-0.275
23:28:14.128,-0.16,0.0
23:28:14.132,-0.285,0.125
23:28:14.136,-0.345,0.22
23:28:14.140,-0.37,0.225
23:28:14.144,-0.41,0.24
23:28:14.148,-0.43,0.225
23:28:14.152,-0.465,0.205
23:28:14.156,-0.46,0.195
23:28:14.160,-0.46,0.19
23:28:14.164,-0.485,0.185
23:28:14.168,-0.48,0.175
23:28:14.172,-0.5,0.155
23:28:14.176,-0.49,0.16
23:28:14.180,-0.5,0.15
23:28:14.184,-0.495,0.145
23:28:14.188,-0.51,0.155
23:28:14.192,-0.535,0.145
23:28:14.196,-0.515,0.17
23:28:14.200,-0.53,0.15
23:28:14.204,-0.535,0.135
23:28:14.208,-0.53,0.125
23:28:14.212,-0.55,0.13
23:28:14.216,-0.545,0.135
23:28:14.220,-0.565,0.14
23:28:14.224,-0.56,0.14
23:28:14.228,-0.56,0.145
23:28:14.232,-0.58,0.14
23:28:14.236,-0.575,0.155
23:28:14.240,-0.595,0.145
23:28:14.244,-0.57,0.145
23:28:14.248,-0.57,0.145
23:28:14.252,-0.56,0.14
23:28:14.256,-0.58,0.155
23:28:14.260,-0.59,0.15
23:28:14.264,-0.575,0.14
23:28:14.268,-0.57,0.17
23:28:14.272,-0.57,0.18
23:28:14.276,-0.55,0.17
23:28:14.280,-0.55,0.17
23:28:14.284,-0.53,0.16
23:28:14.288,-0.52,0.16
23:28:14.292,-0.52,0.155
23:28:14.296,-0.495,0.16
23:28:14.300,-0.52,0.135
23:28:14.304,-0.515,0.14
23:28:14.308,-0.5,0.14
23:28:14.312,-0.485,0.125
23:28:14.316,-0.475,0.145
23:28:14.320,-0.475,0.13
23:28:14.324,-0.46,0.11
23:28:14.328,-0.43,0.1
23:28:14.332,-0.42,0.09
23:28:14.336,-0.4,0.09
23:28:14.340,-0.39,0.08
23:28:14.344,-0.395,0.075
23:28:14.348,-0.385,0.1
23:28:14.352,-0.37,0.08
23:28:14.356,-0.335,0.095
23:28:14.360,-0.345,0.095
23:28:14.364,-0.305,0.095
23:28:14.368,-0.295,0.085
23:28:14.372,-0.3,0.1
23:28:14.376,-0.28,0.115
23:28:14.380,-0.285,0.14
23:28:14.384,-0.265,0.125
23:28:14.388,-0.265,0.115
23:28:14.392,-0.27,0.12
23:28:14.396,-0.26,0.12
23:28:14.400,-0.265,0.11
23:28:14.404,-0.265,0.11
23:28:14.408,-0.26,0.135
23:28:14.412,-0.24,0.125
23:28:14.416,-0.26,0.135
23:28:14.420,-0.24,0.14
23:28:14.424,-0.26,0.14
23:28:14.428,-0.26,0.115
23:28:14.432,-0.25,0.12
23:28:14.436,-0.24,0.115
23:28:14.440,-0.25,0.12
23:28:14.444,-0.245,0.115
23:28:14.448,-0.24,0.145
23:28:14.452,-0.25,0.12
23:28:14.456,-0.27,0.14
23:28:14.460,-0.27,0.13
23:28:14.464,-0.265,0.15
23:28:14.468,-0.26,0.145
23:28:14.472,-0.255,0.165
23:28:14.476,-0.26,0.135
23:28:14.480,-0.24,0.155
23:28:14.484,-0.245,0.15
23:28:14.488,-0.225,0.15
23:28:14.492,-0.23,0.155
23:28:14.496,-0.205,0.16
23:28:14.500,-0.185,0.15
23:28:14.504,-0.18,0.13
23:28:14.508,-0.17,0.155
23:28:14.512,-0.165,0.16
23:28:14.516,-0.15,0.17
23:28:14.520,-0.105,0.155
23:28:14.524,-0.09,0.155
23:28:14.528,-0.055,0.19
23:28:14.532,-0.035,0.2
23:28:14.536,-0.01,0.2
23:28:14.540,-0.005,0.2
23:28:14.544,0.025,0.195
23:28:14.548,0.065,0.175
23:28:14.552,0.06,0.175
23:28:14.556,0.04,0.145
23:28:14.560,-0.005,0.1
23:28:14.564,-0.06,0.09
23:28:14.568,-0.115,0.1
23:28:14.572,-0.175,0.095
23:28:14.576,-0.245,0.085
23:28:14.580,-0.285,0.125
23:28:14.584,-0.305,0.12
23:28:14.588,-0.35,0.15
23:28:14.592,-0.37,0.165
23:28:14.596,-0.365,0.165
23:28:14.600,-0.345,0.12
23:28:14.604,-0.365,0.15
23:28:14.608,-0.365,0.135
23:28:14.612,-0.36,0.115
23:28:14.616,-0.345,0.14
23:28:14.620,-0.34,0.11
23:28:14.624,-0.345,0.135
23:28:14.628,-0.35,0.11
23:28:14.632,-0.35,0.115
23:28:14.636,-0.355,0.115
23:28:14.640,-0.355,0.095
23:28:14.644,-0.36,0.115
23:28:14.648,-0.36,0.12
23:28:14.652,-0.36,0.115
23:28:14.656,-0.35,0.115
23:28:14.660,-0.335,0.105
23:28:14.664,-0.325,0.095
23:28:14.668,-0.33,0.095
23:28:14.672,-0.33,0.095
23:28:14.676,-0.31,0.085
23:28:14.680,-0.315,0.1
23:28:14.684,-0.315,0.105
23:28:14.688,-0.305,0.115
23:28:14.692,-0.295,0.1
23:28:14.696,-0.265,0.12
23:28:14.700,-0.215,0.105
23:28:14.704,-0.15,0.11
23:28:14.708,-0.075,0.105
23:28:14.712,0.025,0.055
23:28:14.716,0.1,0.055
23:28:14.720,0.125,0.015
23:28:14.724,0.145,0.005
23:28:14.728,0.14,0.01
23:28:14.732,0.105,-0.01
23:28:14.736,0.06,-0.06
23:28:14.740,0.12,-0.165
23:28:14.744,0.34,-0.36
23:28:14.748,0.655,-0.615
23:28:14.752,1.02,-0.875
23:28:14.756,1.22,-1.085
23:28:14.760,1.155,-1.055
23:28:14.764,0.855,-0.81
23:28:14.768,0.36,-0.385
23:28:14.772,0.0,-0.07
23:28:14.776,-0.185,0.115
23:28:14.780,-0.29,0.225
23:28:14.784,-0.35,0.25
23:28:14.788,-0.38,0.26
23:28:14.792,-0.42,0.24
23:28:14.796,-0.43,0.23
23:28:14.800,-0.44,0.215
23:28:14.804,-0.43,0.21
23:28:14.808,-0.455,0.19
23:28:14.812,-0.445,0.17
23:28:14.816,-0.425,0.16
23:28:14.820,-0.435,0.18
23:28:14.824,-0.445,0.18
23:28:14.828,-0.435,0.185
23:28:14.832,-0.425,0.2
23:28:14.836,-0.44,0.195
23:28:14.840,-0.455,0.21
23:28:14.844,-0.445,0.18
23:28:14.848,-0.455,0.17
23:28:14.852,-0.455,0.175
23:28:14.856,-0.475,0.16
23:28:14.860,-0.495,0.19
23:28:14.864,-0.495,0.2
23:28:14.868,-0.49,0.18
23:28:14.872,-0.49,0.19
23:28:14.876,-0.495,0.185
23:28:14.880,-0.51,0.165
23:28:14.884,-0.51,0.145
23:28:14.888,-0.525,0.145
23:28:14.892,-0.535,0.15
23:28:14.896,-0.53,0.155
23:28:14.900,-0.52,0.165
23:28:14.904,-0.535,0.175
23:28:14.908,-0.505,0.17
23:28:14.912,-0.53,0.16
23:28:14.916,-0.525,0.165
23:28:14.920,-0.515,0.17
23:28:14.924,-0.51,0.17
23:28:14.928,-0.49,0.155
23:28:14.932,-0.485,0.16
23:28:14.936,-0.48,0.16
23:28:14.940,-0.46,0.155
23:28:14.944,-0.46,0.165
23:28:14.948,-0.465,0.17
23:28:14.952,-0.445,0.17
23:28:14.956,-0.415,0.16
23:28:14.960,-0.41,0.17
23:28:14.964,-0.42,0.135
23:28:14.968,-0.37,0.145
23:28:14.972,-0.365,0.15
23:28:14.976,-0.37,0.155
23:28:14.980,-0.37,0.13
23:28:14.984,-0.35,0.13
23:28:14.988,-0.34,0.13
23:28:14.992,-0.33,0.125
23:28:14.996,-0.3,0.135
23:28:15.000,-0.295,0.11
23:28:15.004,-0.28,0.12
23:28:15.008,-0.255,0.095
23:28:15.012,-0.25,0.12
23:28:15.016,-0.25,0.105
23:28:15.020,-0.235,0.105
23:28:15.024,-0.22,0.115
23:28:15.028,-0.235,0.105
23:28:15.032,-0.22,0.11
23:28:15.036,-0.21,0.1
23:28:15.040,-0.2,0.145
23:28:15.044,-0.18,0.115
23:28:15.048,-0.18,0.125
23:28:15.052,-0.165,0.14
23:28:15.056,-0.18,0.125
23:28:15.060,-0.195,0.135
23:28:15.064,-0.19,0.125
23:28:15.068,-0.18,0.145
23:28:15.072,-0.2,0.125
23:28:15.076,-0.215,0.135
23:28:15.080,-0.24,0.135
23:28:15.084,-0.23,0.125
23:28:15.088,-0.22,0.13
23:28:15.092,-0.25,0.095
23:28:15.096,-0.235,0.105
23:28:15.100,-0.245,0.1
23:28:15.104,-0.235,0.105
23:28:15.108,-0.265,0.11
23:28:15.112,-0.265,0.095
23:28:15.116,-0.255,0.095
23:28:15.120,-0.28,0.09
23:28:15.124,-0.26,0.075
23:28:15.128,-0.27,0.075
23:28:15.132,-0.25,0.08
23:28:15.136,-0.24,0.085
23:28:15.140,-0.235,0.05
23:28:15.144,-0.22,0.09
23:28:15.148,-0.17,0.075
23:28:15.152,-0.175,0.07
23:28:15.156,-0.185,0.08
23:28:15.160,-0.18,0.105
23:28:15.164,-0.165,0.085
23:28:15.168,-0.12,0.09
23:28:15.172,-0.07,0.095
23:28:15.176,-0.04,0.115
23:28:15.180,-0.03,0.115
23:28:15.184,-0.01,0.12
23:28:15.188,0.015,0.11
23:28:15.192,0.0,0.09
23:28:15.196,0.0,0.085
23:28:15.200,0.01,0.06
23:28:15.204,-0.04,0.04
23:28:15.208,-0.1,-0.005
23:28:15.212,-0.13,-0.01
23:28:15.216,-0.2,0.005
23:28:15.220,-0.245,0.005
23:28:15.224,-0.295,0.0
23:28:15.228,-0.37,0.015
23:28:15.232,-0.385,0.01
23:28:15.236,-0.395,0.005
23:28:15.240,-0.43,0.015
23:28:15.244,-0.41,0.01
23:28:15.248,-0.42,0.0
23:28:15.252,-0.43,-0.005
23:28:15.256,-0.42,-0.01
23:28:15.260,-0.38,0.0
23:28:15.264,-0.39,0.0
23:28:15.268,-0.37,0.015
23:28:15.272,-0.375,-0.015
23:28:15.276,-0.365,0.01
23:28:15.280,-0.365,0.0
23:28:15.284,-0.385,0.005
23:28:15.288,-0.395,-0.035
23:28:15.292,-0.39,-0.02
23:28:15.296,-0.36,-0.02
23:28:15.300,-0.375,-0.02
23:28:15.304,-0.365,-0.025
23:28:15.308,-0.355,-0.03
23:28:15.312,-0.365,-0.03
23:28:15.316,-0.355,-0.055
23:28:15.320,-0.35,-0.04
23:28:15.324,-0.355,-0.055
23:28:15.328,-0.345,-0.055
23:28:15.332,-0.33,-0.07
23:28:15.336,-0.315,-0.07
23:28:15.340,-0.3,-0.065
23:28:15.344,-0.28,-0.075
23:28:15.348,-0.215,-0.06
23:28:15.352,-0.165,-0.06
23:28:15.356,-0.07,-0.08
23:28:15.360,0.04,-0.105
23:28:15.364,0.125,-0.12
23:28:15.368,0.175,-0.155
23:28:15.372,0.215,-0.145
23:28:15.376,0.245,-0.125
23:28:15.380,0.17,-0.125
23:28:15.384,0.13,-0.185
23:28:15.388,0.185,-0.3
23:28:15.392,0.44,-0.475
23:28:15.396,0.77,-0.735
23:28:15.400,1.065,-0.98
23:28:15.404,1.225,-1.145
23:28:15.408,1.075,-1.07
23:28:15.412,0.635,-0.775
23:28:15.416,0.17,-0.4
23:28:15.420,-0.105,-0.13
23:28:15.424,-0.235,0.0
23:28:15.428,-0.315,0.08
23:28:15.432,-0.335,0.12
23:28:15.436,-0.375,0.125
23:28:15.440,-0.4,0.095
23:28:15.444,-0.415,0.075
23:28:15.448,-0.44,0.07
23:28:15.452,-0.455,0.005
23:28:15.456,-0.475,-0.02
23:28:15.460,-0.47,-0.015
23:28:15.464,-0.48,-0.015
23:28:15.468,-0.47,-0.045
23:28:15.472,-0.485,-0.035
23:28:15.476,-0.485,-0.015
23:28:15.480,-0.475,-0.03
23:28:15.484,-0.475,-0.025
23:28:15.488,-0.465,-0.02
23:28:15.492,-0.465,-0.015
23:28:15.496,-0.46,-0.03
23:28:15.500,-0.475,-0.04
23:28:15.504,-0.49,-0.025
23:28:15.508,-0.475,-0.025
23:28:15.512,-0.475,-0.03
23:28:15.516,-0.48,-0.025
23:28:15.520,-0.48,-0.04
23:28:15.524,-0.49,-0.035
23:28:15.528,-0.515,-0.02
23:28:15.532,-0.51,-0.045
23:28:15.536,-0.525,-0.045
23:28:15.540,-0.515,-0.04
23:28:15.544,-0.525,-0.02
23:28:15.548,-0.52,-0.03
23:28:15.552,-0.525,-0.04
23:28:15.556,-0.53,-0.035
23:28:15.560,-0.525,-0.04
23:28:15.564,-0.525,-0.07
23:28:15.568,-0.51,-0.075
23:28:15.572,-0.52,-0.07
23:28:15.576,-0.51,-0.045
23:28:15.580,-0.515,-0.045
23:28:15.584,-0.5,-0.035
23:28:15.588,-0.495,-0.045
23:28:15.592,-0.46,-0.045
23:28:15.596,-0.445,-0.035
23:28:15.600,-0.43,-0.05
23:28:15.604,-0.405,-0.06
23:28:15.608,-0.4,-0.055
23:28:15.612,-0.38,-0.07
23:28:15.616,-0.37,-0.055
23:28:15.620,-0.355,-0.07
23:28:15.624,-0.365,-0.06
23:28:15.628,-0.355,-0.08
23:28:15.632,-0.325,-0.08
23:28:15.636,-0.33,-0.07
23:28:15.640,-0.295,-0.09
23:28:15.644,-0.3,-0.07
23:28:15.648,-0.3,-0.1
23:28:15.652,-0.31,-0.085
23:28:15.656,-0.29,-0.07
23:28:15.660,-0.28,-0.085
23:28:15.664,-0.275,-0.09
23:28:15.668,-0.255,-0.085
23:28:15.672,-0.265,-0.11
23:28:15.676,-0.26,-0.11
23:28:15.680,-0.255,-0.09
23:28:15.684,-0.24,-0.09
23:28:15.688,-0.235,-0.08
23:28:15.692,-0.235,-0.1
23:28:15.696,-0.23,-0.105
23:28:15.700,-0.235,-0.095
23:28:15.704,-0.24,-0.085
23:28:15.708,-0.23,-0.1
23:28:15.712,-0.205,-0.105
23:28:15.716,-0.17,-0.095
23:28:15.720,-0.205,-0.105
23:28:15.724,-0.2,-0.08
23:28:15.728,-0.22,-0.095
23:28:15.732,-0.21,-0.065
23:28:15.736,-0.22,-0.055
23:28:15.740,-0.2,-0.045
23:28:15.744,-0.2,-0.075
23:28:15.748,-0.225,-0.085
23:28:15.752,-0.235,-0.08
23:28:15.756,-0.225,-0.045
23:28:15.760,-0.235,-0.08
23:28:15.764,-0.225,-0.09
23:28:15.768,-0.255,-0.09
23:28:15.772,-0.265,-0.1
23:28:15.776,-0.26,-0.09
23:28:15.780,-0.265,-0.1
23:28:15.784,-0.255,-0.1
23:28:15.788,-0.26,-0.1
23:28:15.792,-0.23,-0.115
23:28:15.796,-0.215,-0.125
23:28:15.800,-0.2,-0.095
23:28:15.804,-0.195,-0.125
23:28:15.808,-0.185,-0.115
23:28:15.812,-0.185,-0.095
23:28:15.816,-0.165,-0.1
23:28:15.820,-0.12,-0.085
23:28:15.824,-0.05,-0.065
23:28:15.828,-0.025,-0.05
23:28:15.832,0.005,-0.04
23:28:15.836,0.025,-0.035
23:28:15.840,0.055,-0.045
23:28:15.844,0.075,-0.03
23:28:15.848,0.08,-0.015
23:28:15.852,0.09,-0.015
23:28:15.856,0.07,-0.06
23:28:15.860,0.035,-0.085
23:28:15.864,0.005,-0.085
23:28:15.868,-0.07,-0.095
23:28:15.872,-0.115,-0.085
23:28:15.876,-0.19,-0.09
23:28:15.880,-0.24,-0.105
23:28:15.884,-0.3,-0.065
23:28:15.888,-0.335,-0.05
23:28:15.892,-0.34,-0.065
23:28:15.896,-0.335,-0.07
23:28:15.900,-0.345,-0.07
23:28:15.904,-0.35,-0.07
23:28:15.908,-0.345,-0.08
23:28:15.912,-0.315,-0.075
23:28:15.916,-0.35,-0.095
23:28:15.920,-0.32,-0.1
23:28:15.924,-0.315,-0.07
23:28:15.928,-0.325,-0.09
23:28:15.932,-0.325,-0.055
23:28:15.936,-0.31,-0.065
23:28:15.940,-0.3,-0.065
23:28:15.944,-0.295,-0.055
23:28:15.948,-0.3,-0.065
23:28:15.952,-0.285,-0.05
23:28:15.956,-0.28,-0.06
23:28:15.960,-0.28,-0.03
23:28:15.964,-0.265,-0.025
23:28:15.968,-0.285,-0.04
23:28:15.972,-0.285,-0.03
23:28:15.976,-0.27,-0.03
23:28:15.980,-0.255,-0.04
23:28:15.984,-0.27,-0.035
23:28:15.988,-0.28,-0.035
23:28:15.992,-0.265,-0.04
23:28:15.996,-0.24,-0.035
23:28:16.000,-0.225,-0.01
23:28:16.004,-0.17,-0.01
23:28:16.008,-0.075,-0.045
23:28:16.012,0.03,-0.06
23:28:16.016,0.12,-0.065
23:28:16.020,0.17,-0.105
23:28:16.024,0.215,-0.115
23:28:16.028,0.24,-0.09
23:28:16.032,0.235,-0.085
23:28:16.036,0.205,-0.15
23:28:16.040,0.185,-0.215
23:28:16.044,0.37,-0.35
23:28:16.048,0.69,-0.575
23:28:16.052,1.08,-0.845
23:28:16.056,1.31,-1.045
23:28:16.060,1.305,-1.095
23:28:16.064,0.97,-0.885
23:28:16.068,0.45,-0.47
23:28:16.072,0.04,-0.145
23:28:16.076,-0.165,0.02
23:28:16.080,-0.255,0.11
23:28:16.084,-0.305,0.155
23:28:16.088,-0.33,0.175
23:28:16.092,-0.365,0.17
23:28:16.096,-0.395,0.19
23:28:16.100,-0.405,0.15
23:28:16.104,-0.445,0.12
23:28:16.108,-0.435,0.08
23:28:16.112,-0.44,0.075
23:28:16.116,-0.46,0.07
23:28:16.120,-0.455,0.07
23:28:16.124,-0.46,0.055
23:28:16.128,-0.465,0.075
23:28:16.132,-0.46,0.07
23:28:16.136,-0.465,0.05
23:28:16.140,-0.465,0.06
23:28:16.144,-0.475,0.08
23:28:16.148,-0.475,0.055
23:28:16.152,-0.48,0.065
23:28:16.156,-0.48,0.065
23:28:16.160,-0.475,0.06
23:28:16.164,-0.48,0.095
23:28:16.168,-0.48,0.07
23:28:16.172,-0.485,0.085
23:28:16.176,-0.475,0.095
23:28:16.180,-0.5,0.095
23:28:16.184,-0.505,0.09
23:28:16.188,-0.525,0.1
23:28:16.192,-0.515,0.115
23:28:16.196,-0.505,0.095
23:28:16.200,-0.52,0.085
23:28:16.204,-0.52,0.07
23:28:16.208,-0.5,0.08
23:28:16.212,-0.515,0.095
23:28:16.216,-0.52,0.08
23:28:16.220,-0.535,0.09
23:28:16.224,-0.565,0.085
23:28:16.228,-0.515,0.09
23:28:16.232,-0.5,0.105
23:28:16.236,-0.485,0.105
23:28:16.240,-0.485,0.08
23:28:16.244,-0.46,0.08
23:28:16.248,-0.47,0.075
23:28:16.252,-0.46,0.065
23:28:16.256,-0.46,0.065
23:28:16.260,-0.44,0.08
23:28:16.264,-0.425,0.06
23:28:16.268,-0.41,0.06
23:28:16.272,-0.4,0.07
23:28:16.276,-0.39,0.055
23:28:16.280,-0.36,0.07
23:28:16.284,-0.34,0.065
23:28:16.288,-0.33,0.05
23:28:16.292,-0.31,0.04
23:28:16.296,-0.295,0.04
23:28:16.300,-0.27,0.04
23:28:16.304,-0.29,0.05
23:28:16.308,-0.275,0.05
23:28:16.312,-0.265,0.04
23:28:16.316,-0.26,0.055
23:28:16.320,-0.25,0.05
23:28:16.324,-0.24,0.07
23:28:16.328,-0.265,0.045
23:28:16.332,-0.255,0.06
23:28:16.336,-0.235,0.075
23:28:16.340,-0.235,0.085
23:28:16.344,-0.235,0.07
23:28:16.348,-0.24,0.07
23:28:16.352,-0.23,0.055
23:28:16.356,-0.225,0.075
23:28:16.360,-0.22,0.055
23:28:16.364,-0.225,0.07
23:28:16.368,-0.23,0.07
23:28:16.372,-0.225,0.065
23:28:16.376,-0.21,0.075
23:28:16.380,-0.23,0.055
23:28:16.384,-0.215,0.085
23:28:16.388,-0.205,0.065
23:28:16.392,-0.2,0.09
23:28:16.396,-0.19,0.105
23:28:16.400,-0.185,0.095
23:28:16.404,-0.21,0.095
23:28:16.408,-0.2,0.08
23:28:16.412,-0.185,0.1
23:28:16.416,-0.22,0.1
23:28:16.420,-0.195,0.115
23:28:16.424,-0.185,0.11
23:28:16.428,-0.2,0.11
23:28:16.432,-0.175,0.1
23:28:16.436,-0.175,0.11
23:28:16.440,-0.16,0.1
23:28:16.444,-0.17,0.12
23:28:16.448,-0.155,0.105
23:28:16.452,-0.16,0.095
23:28:16.456,-0.16,0.1
23:28:16.460,-0.155,0.115
23:28:16.464,-0.11,0.12
23:28:16.468,-0.04,0.115
23:28:16.472,-0.01,0.14
23:28:16.476,-0.005,0.13
23:28:16.480,0.03,0.135
23:28:16.484,0.03,0.145
23:28:16.488,0.05,0.135
23:28:16.492,0.085,0.115
23:28:16.496,0.055,0.11
23:28:16.500,0.05,0.085
23:28:16.504,0.025,0.065
23:28:16.508,-0.035,0.065
23:28:16.512,-0.07,0.065
23:28:16.516,-0.14,0.065
23:28:16.520,-0.195,0.08
23:28:16.524,-0.23,0.085
23:28:16.528,-0.3,0.11
23:28:16.532,-0.31,0.115
23:28:16.536,-0.36,0.11
23:28:16.540,-0.35,0.095
23:28:16.544,-0.35,0.075
23:28:16.548,-0.355,0.07
23:28:16.552,-0.35,0.075
23:28:16.556,-0.355,0.075
23:28:16.560,-0.365,0.085
23:28:16.564,-0.365,0.08
23:28:16.568,-0.35,0.095
23:28:16.572,-0.355,0.05
23:28:16.576,-0.335,0.045
23:28:16.580,-0.32,0.065
23:28:16.584,-0.335,0.07
23:28:16.588,-0.345,0.065
23:28:16.592,-0.335,0.07
23:28:16.596,-0.325,0.05
23:28:16.600,-0.31,0.055
23:28:16.604,-0.32,0.075
23:28:16.608,-0.3,0.07
23:28:16.612,-0.3,0.08
23:28:16.616,-0.285,0.065
23:28:16.620,-0.265,0.075
23:28:16.624,-0.28,0.075
23:28:16.628,-0.265,0.1
23:28:16.632,-0.255,0.075
23:28:16.636,-0.25,0.095
23:28:16.640,-0.215,0.065
23:28:16.644,-0.155,0.065
23:28:16.648,-0.11,0.075
23:28:16.652,0.0,0.07
23:28:16.656,0.08,0.045
23:28:16.660,0.125,0.04
23:28:16.664,0.145,-0.03
23:28:16.668,0.14,-0.04
23:28:16.672,0.135,-0.015
23:28:16.676,0.09,-0.08
23:28:16.680,0.08,-0.145
23:28:16.684,0.18,-0.265
23:28:16.688,0.47,-0.465
23:28:16.692,0.85,-0.72
23:28:16.696,1.15,-0.99
23:28:16.700,1.28,-1.115
23:28:16.704,1.11,-0.995
23:28:16.708,0.66,-0.64
23:28:16.712,0.195,-0.235
23:28:16.716,-0.105,0.035
23:28:16.720,-0.225,0.17
23:28:16.724,-0.28,0.245
23:28:16.728,-0.32,0.245
23:28:16.732,-0.34,0.26
23:28:16.736,-0.385,0.245
23:28:16.740,-0.375,0.23
23:28:16.744,-0.41,0.23
23:28:16.748,-0.42,0.2
23:28:16.752,-0.415,0.175
23:28:16.756,-0.425,0.16
23:28:16.760,-0.425,0.175
23:28:16.764,-0.43,0.145
23:28:16.768,-0.43,0.175
23:28:16.772,-0.43,0.17
23:28:16.776,-0.45,0.15
23:28:16.780,-0.455,0.155
23:28:16.784,-0.455,0.155
23:28:16.788,-0.47,0.15
23:28:16.792,-0.455,0.13
23:28:16.796,-0.465,0.135
23:28:16.800,-0.455,0.14
23:28:16.804,-0.46,0.15
23:28:16.808,-0.49,0.12
23:28:16.812,-0.51,0.12
23:28:16.816,-0.5,0.12
23:28:16.820,-0.5,0.13
23:28:16.824,-0.49,0.12
23:28:16.828,-0.52,0.12
23:28:16.832,-0.51,0.12
23:28:16.836,-0.52,0.135
23:28:16.840,-0.51,0.135
23:28:16.844,-0.505,0.135
23:28:16.848,-0.5,0.15
23:28:16.852,-0.51,0.125
23:28:16.856,-0.505,0.15
23:28:16.860,-0.505,0.14
23:28:16.864,-0.465,0.145
23:28:16.868,-0.495,0.12
23:28:16.872,-0.465,0.165
23:28:16.876,-0.475,0.13
23:28:16.880,-0.47,0.115
23:28:16.884,-0.465,0.11
23:28:16.888,-0.455,0.12
23:28:16.892,-0.425,0.13
23:28:16.896,-0.435,0.125
23:28:16.900,-0.43,0.12
23:28:16.904,-0.415,0.125
23:28:16.908,-0.395,0.09
23:28:16.912,-0.38,0.105
23:28:16.916,-0.375,0.105
23:28:16.920,-0.38,0.075
23:28:16.924,-0.365,0.09
23:28:16.928,-0.33,0.095
23:28:16.932,-0.33,0.07
23:28:16.936,-0.31,0.085
23:28:16.940,-0.315,0.095
23:28:16.944,-0.3,0.1
23:28:16.948,-0.28,0.07
23:28:16.952,-0.25,0.1
23:28:16.956,-0.225,0.09
23:28:16.960,-0.23,0.075
23:28:16.964,-0.21,0.075
23:28:16.968,-0.215,0.095
23:28:16.972,-0.2,0.11
23:28:16.976,-0.2,0.09
23:28:16.980,-0.195,0.1
23:28:16.984,-0.2,0.105
23:28:16.988,-0.195,0.11
23:28:16.992,-0.175,0.1
23:28:16.996,-0.2,0.125
23:28:17.000,-0.205,0.095
23:28:17.004,-0.21,0.115
23:28:17.008,-0.195,0.11
23:28:17.012,-0.19,0.125
23:28:17.016,-0.205,0.125
23:28:17.020,-0.205,0.12
23:28:17.024,-0.19,0.12
23:28:17.028,-0.205,0.115
23:28:17.032,-0.2,0.115
23:28:17.036,-0.2,0.105
23:28:17.040,-0.21,0.125
23:28:17.044,-0.2,0.11
23:28:17.048,-0.2,0.13
23:28:17.052,-0.21,0.11
23:28:17.056,-0.2,0.115
23:28:17.060,-0.225,0.12
23:28:17.064,-0.19,0.115
23:28:17.068,-0.185,0.11
23:28:17.072,-0.185,0.115
23:28:17.076,-0.17,0.115
23:28:17.080,-0.16,0.11
23:28:17.084,-0.14,0.13
23:28:17.088,-0.15,0.11
23:28:17.092,-0.125,0.11
23:28:17.096,-0.135,0.11
23:28:17.100,-0.13,0.11
23:28:17.104,-0.105,0.115
23:28:17.108,-0.055,0.125
23:28:17.112,-0.015,0.15
23:28:17.116,0.0,0.15
23:28:17.120,0.02,0.15
23:28:17.124,0.025,0.18
23:28:17.128,0.05,0.145
23:28:17.132,0.05,0.125
23:28:17.136,0.05,0.12
23:28:17.140,0.02,0.055
23:28:17.144,-0.02,0.055
23:28:17.148,-0.065,0.04
23:28:17.152,-0.11,0.05
23:28:17.156,-0.16,0.04
23:28:17.160,-0.21,0.06
23:28:17.164,-0.265,0.065
23:28:17.168,-0.325,0.07
23:28:17.172,-0.37,0.07
23:28:17.176,-0.37,0.06
23:28:17.180,-0.365,0.08
23:28:17.184,-0.355,0.075
23:28:17.188,-0.34,0.07
23:28:17.192,-0.35,0.055
23:28:17.196,-0.325,0.07
23:28:17.200,-0.35,0.05
23:28:17.204,-0.32,0.065
23:28:17.208,-0.34,0.045
23:28:17.212,-0.36,0.035
23:28:17.216,-0.345,0.055
23:28:17.220,-0.34,0.065
23:28:17.224,-0.37,0.02
23:28:17.228,-0.375,0.055
23:28:17.232,-0.355,0.04
23:28:17.236,-0.375,0.04
23:28:17.240,-0.365,0.035
23:28:17.244,-0.38,0.04
23:28:17.248,-0.36,0.025
23:28:17.252,-0.355,0.03
23:28:17.256,-0.34,0.01
23:28:17.260,-0.335,0.015
23:28:17.264,-0.335,0.015
23:28:17.268,-0.345,0.02
23:28:17.272,-0.34,0.01
23:28:17.276,-0.32,0.025
23:28:17.280,-0.3,0.03
23:28:17.284,-0.26,0.01
23:28:17.288,-0.16,0.03
23:28:17.292,-0.07,0.0
23:28:17.296,0.005,-0.005
23:28:17.300,0.08,-0.035
23:28:17.304,0.105,-0.045
23:28:17.308,0.12,-0.075
23:28:17.312,0.105,-0.07
23:28:17.316,0.075,-0.06
23:28:17.320,0.005,-0.14
23:28:17.324,0.07,-0.24
23:28:17.328,0.27,-0.415
23:28:17.332,0.595,-0.7
23:28:17.336,0.96,-0.98
23:28:17.340,1.175,-1.145
23:28:17.344,1.16,-1.13
23:28:17.348,0.83,-0.87
23:28:17.352,0.33,-0.45
23:28:17.356,-0.04,-0.125
23:28:17.360,-0.215,0.07
23:28:17.364,-0.32,0.155
23:28:17.368,-0.37,0.18
23:28:17.372,-0.395,0.175
23:28:17.376,-0.44,0.205
23:28:17.380,-0.455,0.175
23:28:17.384,-0.465,0.17
23:28:17.388,-0.475,0.14
23:28:17.392,-0.46,0.125
23:28:17.396,-0.475,0.115
23:28:17.400,-0.475,0.09
23:28:17.404,-0.465,0.09
23:28:17.408,-0.475,0.095
23:28:17.412,-0.46,0.115
23:28:17.416,-0.47,0.12
23:28:17.420,-0.475,0.115
23:28:17.424,-0.465,0.11
23:28:17.428,-0.49,0.105
23:28:17.432,-0.47,0.1
23:28:17.436,-0.49,0.1
23:28:17.440,-0.505,0.11
23:28:17.444,-0.5,0.115
23:28:17.448,-0.52,0.09
23:28:17.452,-0.535,0.105
23:28:17.456,-0.525,0.11
23:28:17.460,-0.55,0.095
23:28:17.464,-0.56,0.08
23:28:17.468,-0.56,0.095
23:28:17.472,-0.545,0.065
23:28:17.476,-0.57,0.075
23:28:17.480,-0.575,0.085
23:28:17.484,-0.56,0.04
23:28:17.488,-0.56,0.05
23:28:17.492,-0.56,0.06
23:28:17.496,-0.565,0.065
23:28:17.500,-0.56,0.08
23:28:17.504,-0.57,0.05
23:28:17.508,-0.56,0.065
23:28:17.512,-0.555,0.065
23:28:17.516,-0.525,0.045
23:28:17.520,-0.51,0.075
23:28:17.524,-0.495,0.07
23:28:17.528,-0.495,0.065
23:28:17.532,-0.48,0.085
23:28:17.536,-0.49,0.06
23:28:17.540,-0.465,0.055
23:28:17.544,-0.47,0.065
23:28:17.548,-0.44,0.06
23:28:17.552,-0.45,0.075
23:28:17.556,-0.44,0.025
23:28:17.560,-0.42,0.03
23:28:17.564,-0.41,0.035
23:28:17.568,-0.425,0.05
23:28:17.572,-0.415,0.04
23:28:17.576,-0.395,0.005
23:28:17.580,-0.385,0.015
23:28:17.584,-0.345,0.005
23:28:17.588,-0.36,0.005
23:28:17.592,-0.32,0.005
23:28:17.596,-0.315,-0.01
23:28:17.600,-0.32,-0.015
23:28:17.604,-0.305,0.0
23:28:17.608,-0.33,0.005
23:28:17.612,-0.315,0.005
23:28:17.616,-0.3,0.01
23:28:17.620,-0.305,0.015
23:28:17.624,-0.31,0.01
23:28:17.628,-0.29,0.015
23:28:17.632,-0.29,0.015
23:28:17.636,-0.27,0.015
23:28:17.640,-0.27,0.01
23:28:17.644,-0.265,0.025
23:28:17.648,-0.26,0.035
23:28:17.652,-0.28,0.065
23:28:17.656,-0.27,0.035
23:28:17.660,-0.26,0.02
23:28:17.664,-0.265,0.04
23:28:17.668,-0.265,0.035
23:28:17.672,-0.27,0.03
23:28:17.676,-0.27,0.05
23:28:17.680,-0.3,0.03
23:28:17.684,-0.285,0.02
23:28:17.688,-0.295,0.03
23:28:17.692,-0.295,0.025
23:28:17.696,-0.29,0.005
23:28:17.700,-0.275,-0.005
23:28:17.704,-0.28,0.01
23:28:17.708,-0.295,-0.01
23:28:17.712,-0.275,0.0
23:28:17.716,-0.275,0.0
23:28:17.720,-0.245,0.0
23:28:17.724,-0.22,-0.035
23:28:17.728,-0.225,0.0
23:28:17.732,-0.22,-0.01
23:28:17.736,-0.23,0.005
23:28:17.740,-0.22,-0.01
23:28:17.744,-0.185,-0.005
23:28:17.748,-0.15,0.015
23:28:17.752,-0.105,0.03
23:28:17.756,-0.04,0.025
23:28:17.760,-0.025,0.03
23:28:17.764,-0.015,0.04
23:28:17.768,0.0,0.045
23:28:17.772,0.03,0.03
23:28:17.776,0.035,0.035
23:28:17.780,0.04,0.005
23:28:17.784,0.035,0.01
23:28:17.788,0.0,-0.01
23:28:17.792,-0.055,-0.05
23:28:17.796,-0.11,-0.045
23:28:17.800,-0.18,-0.085
23:28:17.804,-0.225,-0.08
23:28:17.808,-0.265,-0.065
23:28:17.812,-0.325,-0.06
23:28:17.816,-0.345,-0.065
23:28:17.820,-0.39,-0.065
23:28:17.824,-0.405,-0.065
23:28:17.828,-0.415,-0.065
23:28:17.832,-0.405,-0.07
23:28:17.836,-0.39,-0.08
23:28:17.840,-0.38,-0.095
23:28:17.844,-0.385,-0.09
23:28:17.848,-0.375,-0.095
23:28:17.852,-0.36,-0.09
23:28:17.856,-0.34,-0.1
23:28:17.860,-0.32,-0.09
23:28:17.864,-0.345,-0.105
23:28:17.868,-0.34,-0.085
23:28:17.872,-0.36,-0.09
23:28:17.876,-0.335,-0.095
23:28:17.880,-0.32,-0.09
23:28:17.884,-0.33,-0.115
23:28:17.888,-0.325,-0.11
23:28:17.892,-0.33,-0.125
23:28:17.896,-0.32,-0.125
23:28:17.900,-0.315,-0.11
23:28:17.904,-0.32,-0.12
23:28:17.908,-0.31,-0.12
23:28:17.912,-0.305,-0.115
23:28:17.916,-0.315,-0.135
23:28:17.920,-0.305,-0.125
23:28:17.924,-0.28,-0.135
23:28:17.928,-0.23,-0.15
23:28:17.932,-0.21,-0.145
23:28:17.936,-0.14,-0.13
23:28:17.940,-0.045,-0.15
23:28:17.944,0.05,-0.155
23:28:17.948,0.14,-0.2
23:28:17.952,0.215,-0.24
23:28:17.956,0.24,-0.23
23:28:17.960,0.28,-0.195
23:28:17.964,0.245,-0.205
23:28:17.968,0.205,-0.245
23:28:17.972,0.22,-0.315
23:28:17.976,0.425,-0.44
23:28:17.980,0.74,-0.71
23:28:17.984,1.08,-0.955
23:28:17.988,1.25,-1.155
23:28:17.992,1.13,-1.145
23:28:17.996,0.715,-0.875
23:28:18.000,0.215,-0.495
23:28:18.004,-0.065,-0.25
23:28:18.008,-0.19,-0.115
23:28:18.012,-0.28,-0.015
23:28:18.016,-0.32,0.02
23:28:18.020,-0.345,0.02
23:28:18.024,-0.4,0.035
23:28:18.028,-0.435,0.02
23:28:18.032,-0.45,-0.005
23:28:18.036,-0.46,-0.03
23:28:18.040,-0.465,-0.07
23:28:18.044,-0.455,-0.085
23:28:18.048,-0.5,-0.09
23:28:18.052,-0.505,-0.085
23:28:18.056,-0.495,-0.1
23:28:18.060,-0.49,-0.085
23:28:18.064,-0.49,-0.125
23:28:18.068,-0.52,-0.1
23:28:18.072,-0.49,-0.08
23:28:18.076,-0.49,-0.09
23:28:18.080,-0.48,-0.08
23:28:18.084,-0.51,-0.125
23:28:18.088,-0.495,-0.09
23:28:18.092,-0.5,-0.115
23:28:18.096,-0.48,-0.11
23:28:18.100,-0.51,-0.1
23:28:18.104,-0.52,-0.095
23:28:18.108,-0.53,-0.115
23:28:18.112,-0.54,-0.11
23:28:18.116,-0.55,-0.11
23:28:18.120,-0.53,-0.12
23:28:18.124,-0.57,-0.11
23:28:18.128,-0.575,-0.13
23:28:18.132,-0.56,-0.125
23:28:18.136,-0.57,-0.125
23:28:18.140,-0.555,-0.125
23:28:18.144,-0.565,-0.125
23:28:18.148,-0.57,-0.11
23:28:18.152,-0.555,-0.13
23:28:18.156,-0.555,-0.12
23:28:18.160,-0.55,-0.135
23:28:18.164,-0.54,-0.125
23:28:18.168,-0.545,-0.115
23:28:18.172,-0.545,-0.135
23:28:18.176,-0.53,-0.14
23:28:18.180,-0.515,-0.13
23:28:18.184,-0.495,-0.14
23:28:18.188,-0.455,-0.14
23:28:18.192,-0.475,-0.12
23:28:18.196,-0.47,-0.15
23:28:18.200,-0.44,-0.14
23:28:18.204,-0.42,-0.145
23:28:18.208,-0.415,-0.125
23:28:18.212,-0.405,-0.14
23:28:18.216,-0.42,-0.135
23:28:18.220,-0.41,-0.12
23:28:18.224,-0.39,-0.14
23:28:18.228,-0.375,-0.155
23:28:18.232,-0.37,-0.15
23:28:18.236,-0.36,-0.135
23:28:18.240,-0.36,-0.14
23:28:18.244,-0.365,-0.14
23:28:18.248,-0.35,-0.15
23:28:18.252,-0.36,-0.145
23:28:18.256,-0.34,-0.15
23:28:18.260,-0.34,-0.135
23:28:18.264,-0.34,-0.135
23:28:18.268,-0.335,-0.125
23:28:18.272,-0.33,-0.135
23:28:18.276,-0.305,-0.115
23:28:18.280,-0.315,-0.1
23:28:18.284,-0.325,-0.095
23:28:18.288,-0.32,-0.1
23:28:18.292,-0.305,-0.08
23:28:18.296,-0.29,-0.08
23:28:18.300,-0.31,-0.08
23:28:18.304,-0.29,-0.06
23:28:18.308,-0.295,-0.05
23:28:18.312,-0.29,-0.06
23:28:18.316,-0.275,-0.055
23:28:18.320,-0.285,-0.04
23:28:18.324,-0.3,-0.04
23:28:18.328,-0.295,-0.02
23:28:18.332,-0.29,-0.01
23:28:18.336,-0.305,-0.055
23:28:18.340,-0.295,-0.025
23:28:18.344,-0.285,-0.025
23:28:18.348,-0.32,-0.015
23:28:18.352,-0.31,-0.045
23:28:18.356,-0.31,-0.04
23:28:18.360,-0.315,-0.03
23:28:18.364,-0.29,-0.04
23:28:18.368,-0.265,-0.035
23:28:18.372,-0.265,-0.04
23:28:18.376,-0.23,-0.025
23:28:18.380,-0.24,-0.015
23:28:18.384,-0.23,-0.015
23:28:18.388,-0.24,-0.005
23:28:18.392,-0.215,-0.005
23:28:18.396,-0.155,0.03
23:28:18.400,-0.11,0.04
23:28:18.404,-0.09,0.035
23:28:18.408,-0.05,0.08
23:28:18.412,-0.02,0.06
23:28:18.416,0.02,0.055
23:28:18.420,0.015,0.085
23:28:18.424,0.04,0.07
23:28:18.428,0.02,0.0
23:28:18.432,-0.025,-0.005
23:28:18.436,-0.06,-0.01
23:28:18.440,-0.12,-0.03
23:28:18.444,-0.17,-0.02
23:28:18.448,-0.23,0.0
23:28:18.452,-0.285,0.005
23:28:18.456,-0.335,0.0
23:28:18.460,-0.395,0.015
23:28:18.464,-0.425,0.01
23:28:18.468,-0.425,0.02
23:28:18.472,-0.43,0.005
23:28:18.476,-0.42,0.0
23:28:18.480,-0.41,0.005
23:28:18.484,-0.405,0.0
23:28:18.488,-0.415,0.005
23:28:18.492,-0.395,-0.02
23:28:18.496,-0.39,-0.005
23:28:18.500,-0.38,-0.005
23:28:18.504,-0.385,-0.01
23:28:18.508,-0.39,0.0
23:28:18.512,-0.385,-0.005
23:28:18.516,-0.345,-0.005
23:28:18.520,-0.35,0.005
23:28:18.524,-0.37,-0.01
23:28:18.528,-0.36,0.02
23:28:18.532,-0.375,-0.005
23:28:18.536,-0.38,0.01
23:28:18.540,-0.365,-0.005
23:28:18.544,-0.38,0.01
23:28:18.548,-0.36,0.01
23:28:18.552,-0.35,0.01
23:28:18.556,-0.34,0.0
23:28:18.560,-0.355,-0.01
23:28:18.564,-0.34,0.01
23:28:18.568,-0.33,-0.01
23:28:18.572,-0.285,-0.015
23:28:18.576,-0.235,0.0
23:28:18.580,-0.165,0.0
23:28:18.584,-0.065,0.0
23:28:18.588,0.02,-0.03
23:28:18.592,0.08,-0.075
23:28:18.596,0.1,-0.12
23:28:18.600,0.115,-0.08
23:28:18.604,0.1,-0.1
23:28:18.608,0.05,-0.14
23:28:18.612,0.045,-0.21
23:28:18.616,0.205,-0.33
23:28:18.620,0.52,-0.555
23:28:18.624,0.89,-0.8
23:28:18.628,1.15,-1.025
23:28:18.632,1.205,-1.1
23:28:18.636,0.97,-0.91
23:28:18.640,0.475,-0.525
23:28:18.644,0.05,-0.155
23:28:18.648,-0.185,0.045
23:28:18.652,-0.315,0.185
23:28:18.656,-0.375,0.22
23:28:18.660,-0.395,0.225
23:28:18.664,-0.445,0.22
23:28:18.668,-0.455,0.225
23:28:18.672,-0.465,0.195
23:28:18.676,-0.465,0.2
23:28:18.680,-0.48,0.155
23:28:18.684,-0.495,0.135
23:28:18.688,-0.505,0.12
23:28:18.692,-0.51,0.135
23:28:18.696,-0.505,0.11
23:28:18.700,-0.51,0.09
23:28:18.704,-0.5,0.12
23:28:18.708,-0.52,0.11
23:28:18.712,-0.52,0.1
23:28:18.716,-0.53,0.08
23:28:18.720,-0.515,0.125
23:28:18.724,-0.525,0.12
23:28:18.728,-0.53,0.12
23:28:18.732,-0.505,0.115
23:28:18.736,-0.515,0.14
23:28:18.740,-0.535,0.135
23:28:18.744,-0.545,0.14
23:28:18.748,-0.535,0.15
23:28:18.752,-0.535,0.14
23:28:18.756,-0.56,0.14
23:28:18.760,-0.56,0.12
23:28:18.764,-0.575,0.12
23:28:18.768,-0.57,0.13
23:28:18.772,-0.56,0.13
23:28:18.776,-0.58,0.12
23:28:18.780,-0.56,0.115
23:28:18.784,-0.59,0.11
23:28:18.788,-0.59,0.11
23:28:18.792,-0.585,0.12
23:28:18.796,-0.58,0.115
23:28:18.800,-0.58,0.11
23:28:18.804,-0.565,0.09
23:28:18.808,-0.565,0.09
23:28:18.812,-0.55,0.1
23:28:18.816,-0.54,0.08
23:28:18.820,-0.52,0.08
23:28:18.824,-0.515,0.1
23:28:18.828,-0.51,0.07
23:28:18.832,-0.505,0.105
23:28:18.836,-0.495,0.095
23:28:18.840,-0.485,0.125
23:28:18.844,-0.445,0.095
23:28:18.848,-0.425,0.115
23:28:18.852,-0.43,0.115
23:28:18.856,-0.405,0.095
23:28:18.860,-0.395,0.105
23:28:18.864,-0.38,0.09
23:28:18.868,-0.365,0.09
23:28:18.872,-0.36,0.095
23:28:18.876,-0.355,0.08
23:28:18.880,-0.33,0.085
23:28:18.884,-0.345,0.09
23:28:18.888,-0.315,0.085
23:28:18.892,-0.32,0.09
23:28:18.896,-0.32,0.08
23:28:18.900,-0.305,0.095
23:28:18.904,-0.285,0.095
23:28:18.908,-0.3,0.09
23:28:18.912,-0.27,0.085
23:28:18.916,-0.3,0.085
23:28:18.920,-0.29,0.075
23:28:18.924,-0.255,0.095
23:28:18.928,-0.28,0.09
23:28:18.932,-0.285,0.09
23:28:18.936,-0.28,0.095
23:28:18.940,-0.255,0.095
23:28:18.944,-0.25,0.095
23:28:18.948,-0.265,0.12
23:28:18.952,-0.255,0.11
23:28:18.956,-0.235,0.115
23:28:18.960,-0.24,0.125
23:28:18.964,-0.245,0.115
23:28:18.968,-0.24,0.13
23:28:18.972,-0.255,0.13
23:28:18.976,-0.24,0.13
23:28:18.980,-0.245,0.14
23:28:18.984,-0.25,0.12
23:28:18.988,-0.24,0.12
23:28:18.992,-0.24,0.09
23:28:18.996,-0.22,0.105
23:28:19.000,-0.22,0.115
23:28:19.004,-0.245,0.08
23:28:19.008,-0.215,0.11
23:28:19.012,-0.215,0.115
23:28:19.016,-0.195,0.125
23:28:19.020,-0.19,0.115
23:28:19.024,-0.155,0.12
23:28:19.028,-0.105,0.135
23:28:19.032,-0.07,0.125
23:28:19.036,-0.04,0.155
23:28:19.040,-0.02,0.14
23:28:19.044,-0.005,0.14
23:28:19.048,0.01,0.17
23:28:19.052,0.03,0.155
23:28:19.056,0.045,0.145
23:28:19.060,0.03,0.11
23:28:19.064,0.005,0.1
23:28:19.068,-0.04,0.08
23:28:19.072,-0.08,0.07
23:28:19.076,-0.14,0.09
23:28:19.080,-0.2,0.085
23:28:19.084,-0.245,0.09
23:28:19.088,-0.305,0.095
23:28:19.092,-0.335,0.11
23:28:19.096,-0.365,0.095
23:28:19.100,-0.375,0.105
23:28:19.104,-0.385,0.09
23:28:19.108,-0.385,0.07
23:28:19.112,-0.39,0.08
23:28:19.116,-0.415,0.055
23:28:19.120,-0.39,0.045
23:28:19.124,-0.395,0.065
23:28:19.128,-0.395,0.055
23:28:19.132,-0.4,0.06
23:28:19.136,-0.395,0.03
23:28:19.140,-0.4,0.035
23:28:19.144,-0.39,0.015
23:28:19.148,-0.395,0.015
23:28:19.152,-0.415,0.025
23:28:19.156,-0.39,0.025
23:28:19.160,-0.39,0.02
23:28:19.164,-0.4,0.025
23:28:19.168,-0.395,0.045
23:28:19.172,-0.39,0.04
23:28:19.176,-0.375,0.025
23:28:19.180,-0.36,0.02
23:28:19.184,-0.355,0.03
23:28:19.188,-0.37,0.04
23:28:19.192,-0.375,0.05
23:28:19.196,-0.355,0.035
23:28:19.200,-0.34,0.04
23:28:19.204,-0.315,0.03
23:28:19.208,-0.27,0.035
23:28:19.212,-0.18,0.025
23:28:19.216,-0.08,0.02
23:28:19.220,-0.015,-0.015
23:28:19.224,0.005,-0.05
23:28:19.228,0.035,-0.06
23:28:19.232,0.06,-0.085
23:28:19.236,0.045,-0.085
23:28:19.240,-0.005,-0.115
23:28:19.244,-0.025,-0.21
23:28:19.248,0.1,-0.37
23:28:19.252,0.41,-0.57
23:28:19.256,0.745,-0.87
23:28:19.260,1.065,-1.08
23:28:19.264,1.16,-1.17
23:28:19.268,0.955,-1.0
23:28:19.272,0.49,-0.58
23:28:19.276,0.045,-0.215
23:28:19.280,-0.22,0.015
23:28:19.284,-0.335,0.13
23:28:19.288,-0.38,0.19
23:28:19.292,-0.43,0.195
23:28:19.296,-0.44,0.2
23:28:19.300,-0.455,0.19
23:28:19.304,-0.465,0.18
23:28:19.308,-0.5,0.17
23:28:19.312,-0.49,0.15
23:28:19.316,-0.505,0.13
23:28:19.320,-0.505,0.105
23:28:19.324,-0.525,0.115
23:28:19.328,-0.53,0.105
23:28:19.332,-0.535,0.11
23:28:19.336,-0.54,0.115
23:28:19.340,-0.56,0.11
23:28:19.344,-0.56,0.115
23:28:19.348,-0.56,0.12
23:28:19.352,-0.56,0.085
23:28:19.356,-0.555,0.11
23:28:19.360,-0.565,0.095
23:28:19.364,-0.575,0.08
23:28:19.368,-0.555,0.09
23:28:19.372,-0.555,0.085
23:28:19.376,-0.58,0.085
23:28:19.380,-0.595,0.105
23:28:19.384,-0.59,0.11
23:28:19.388,-0.595,0.1
23:28:19.392,-0.61,0.09
23:28:19.396,-0.615,0.1
23:28:19.400,-0.59,0.095
23:28:19.404,-0.605,0.095
23:28:19.408,-0.605,0.105
23:28:19.412,-0.605,0.105
23:28:19.416,-0.615,0.1
23:28:19.420,-0.615,0.1
23:28:19.424,-0.605,0.115
23:28:19.428,-0.605,0.11
23:28:19.432,-0.59,0.1
23:28:19.436,-0.615,0.095
23:28:19.440,-0.595,0.09
23:28:19.444,-0.605,0.1
23:28:19.448,-0.585,0.105
23:28:19.452,-0.59,0.095
23:28:19.456,-0.58,0.095
23:28:19.460,-0.555,0.095
23:28:19.464,-0.54,0.07
23:28:19.468,-0.525,0.07
23:28:19.472,-0.53,0.08
23:28:19.476,-0.5,0.065
23:28:19.480,-0.49,0.07
23:28:19.484,-0.485,0.045
23:28:19.488,-0.465,0.065
23:28:19.492,-0.47,0.045
23:28:19.496,-0.44,0.045
23:28:19.500,-0.435,0.055
23:28:19.504,-0.42,0.06
23:28:19.508,-0.39,0.06
23:28:19.512,-0.39,0.07
23:28:19.516,-0.375,0.055
23:28:19.520,-0.35,0.03
23:28:19.524,-0.355,0.055
23:28:19.528,-0.33,0.065
23:28:19.532,-0.32,0.05
23:28:19.536,-0.32,0.05
23:28:19.540,-0.3,0.07
23:28:19.544,-0.305,0.055
23:28:19.548,-0.315,0.06
23:28:19.552,-0.31,0.055
23:28:19.556,-0.315,0.06
23:28:19.560,-0.315,0.05
23:28:19.564,-0.305,0.065
23:28:19.568,-0.295,0.07
23:28:19.572,-0.29,0.065
23:28:19.576,-0.3,0.08
23:28:19.580,-0.285,0.08
23:28:19.584,-0.3,0.08
23:28:19.588,-0.285,0.07
23:28:19.592,-0.31,0.085
23:28:19.596,-0.29,0.1
23:28:19.600,-0.28,0.065
23:28:19.604,-0.3,0.09
23:28:19.608,-0.305,0.095
23:28:19.612,-0.28,0.08
23:28:19.616,-0.275,0.1
23:28:19.620,-0.275,0.09
23:28:19.624,-0.265,0.095
23:28:19.628,-0.25,0.115
23:28:19.632,-0.265,0.095
23:28:19.636,-0.25,0.09
23:28:19.640,-0.2,0.115
23:28:19.644,-0.22,0.1
23:28:19.648,-0.2,0.12
23:28:19.652,-0.195,0.105
23:28:19.656,-0.22,0.125
23:28:19.660,-0.185,0.105
23:28:19.664,-0.16,0.12
23:28:19.668,-0.12,0.14
23:28:19.672,-0.1,0.145
23:28:19.676,-0.06,0.16
23:28:19.680,-0.04,0.165
23:28:19.684,0.0,0.155
23:28:19.688,0.005,0.14
23:28:19.692,0.015,0.12
23:28:19.696,0.005,0.115
23:28:19.700,-0.005,0.075
23:28:19.704,-0.055,0.085
23:28:19.708,-0.115,0.07
23:28:19.712,-0.165,0.05
23:28:19.716,-0.22,0.05
23:28:19.720,-0.265,0.06
23:28:19.724,-0.32,0.095
23:28:19.728,-0.365,0.105
23:28:19.732,-0.385,0.11
23:28:19.736,-0.385,0.1
23:28:19.740,-0.395,0.095
23:28:19.744,-0.395,0.09
23:28:19.748,-0.39,0.105
23:28:19.752,-0.405,0.095
23:28:19.756,-0.395,0.055
23:28:19.760,-0.405,0.07
23:28:19.764,-0.4,0.07
23:28:19.768,-0.4,0.06
23:28:19.772,-0.42,0.06
23:28:19.776,-0.41,0.045
23:28:19.780,-0.4,0.05
23:28:19.784,-0.405,0.04
23:28:19.788,-0.405,0.045
23:28:19.792,-0.4,0.035
23:28:19.796,-0.395,0.025
23:28:19.800,-0.385,0.03
23:28:19.804,-0.42,0.045
23:28:19.808,-0.4,0.035
23:28:19.812,-0.4,0.04
23:28:19.816,-0.4,0.04
23:28:19.820,-0.395,0.035
23:28:19.824,-0.4,0.04
23:28:19.828,-0.375,0.045
23:28:19.832,-0.355,0.035
23:28:19.836,-0.32,0.025
23:28:19.840,-0.305,0.055
23:28:19.844,-0.27,0.045
23:28:19.848,-0.2,0.025
23:28:19.852,-0.13,0.045
23:28:19.856,-0.025,0.035
23:28:19.860,0.025,0.0
23:28:19.864,0.055,-0.04
23:28:19.868,0.06,-0.04
23:28:19.872,0.075,-0.015
23:28:19.876,0.02,-0.05
23:28:19.880,-0.035,-0.13
23:28:19.884,0.06,-0.255
23:28:19.888,0.295,-0.465
23:28:19.892,0.635,-0.755
23:28:19.896,0.98,-1.025
23:28:19.900,1.16,-1.16
23:28:19.904,1.075,-1.07
23:28:19.908,0.695,-0.755
23:28:19.912,0.21,-0.32
23:28:19.916,-0.12,-0.02
23:28:19.920,-0.275,0.11
23:28:19.924,-0.365,0.19
23:28:19.928,-0.42,0.2
23:28:19.932,-0.44,0.185
23:28:19.936,-0.48,0.19
23:28:19.940,-0.5,0.2
23:28:19.944,-0.49,0.165
23:28:19.948,-0.5,0.15
23:28:19.952,-0.505,0.12
23:28:19.956,-0.505,0.125
23:28:19.960,-0.51,0.11
23:28:19.964,-0.51,0.125
23:28:19.968,-0.54,0.11
23:28:19.972,-0.53,0.11
23:28:19.976,-0.52,0.12
23:28:19.980,-0.53,0.12
23:28:19.984,-0.555,0.115
23:28:19.988,-0.535,0.125
23:28:19.992,-0.56,0.125
23:28:19.996,-0.57,0.1
23:28:20.000,-0.565,0.1
23:28:20.004,-0.59,0.105
23:28:20.008,-0.56,0.095
23:28:20.012,-0.6,0.075
23:28:20.016,-0.595,0.055
23:28:20.020,-0.605,0.075
23:28:20.024,-0.615,0.07
23:28:20.028,-0.6,0.065
23:28:20.032,-0.6,0.085
23:28:20.036,-0.64,0.055
23:28:20.040,-0.64,0.065
23:28:20.044,-0.65,0.085
23:28:20.048,-0.61,0.07
23:28:20.052,-0.625,0.075
23:28:20.056,-0.625,0.08
23:28:20.060,-0.61,0.06
23:28:20.064,-0.61,0.075
23:28:20.068,-0.63,0.08
23:28:20.072,-0.62,0.08
23:28:20.076,-0.62,0.06
23:28:20.080,-0.595,0.07
23:28:20.084,-0.595,0.075
23:28:20.088,-0.59,0.07
23:28:20.092,-0.595,0.07
23:28:20.096,-0.585,0.06
23:28:20.100,-0.575,0.055
23:28:20.104,-0.57,0.04
23:28:20.108,-0.545,0.03
23:28:20.112,-0.56,0.035
23:28:20.116,-0.545,0.02
23:28:20.120,-0.535,0.025
23:28:20.124,-0.505,0.015
23:28:20.128,-0.495,-0.005
23:28:20.132,-0.495,0.0
23:28:20.136,-0.485,-0.005
23:28:20.140,-0.45,0.0
23:28:20.144,-0.455,0.0
23:28:20.148,-0.445,0.0
23:28:20.152,-0.425,0.01
23:28:20.156,-0.43,-0.005
23:28:20.160,-0.43,0.0
23:28:20.164,-0.41,-0.01
23:28:20.168,-0.385,0.0
23:28:20.172,-0.355,0.005
23:28:20.176,-0.36,0.01
23:28:20.180,-0.36,0.02
23:28:20.184,-0.365,0.02
23:28:20.188,-0.36,-0.01
23:28:20.192,-0.37,-0.005
23:28:20.196,-0.36,0.005
23:28:20.200,-0.345,-0.015
23:28:20.204,-0.365,-0.005
23:28:20.208,-0.355,0.005
23:28:20.212,-0.375,0.005
23:28:20.216,-0.37,0.0
23:28:20.220,-0.385,0.0
23:28:20.224,-0.375,0.0
23:28:20.228,-0.365,0.005
23:28:20.232,-0.375,-0.005
23:28:20.236,-0.37,-0.005
23:28:20.240,-0.39,-0.01
23:28:20.244,-0.395,-0.04
23:28:20.248,-0.405,-0.055
23:28:20.252,-0.385,-0.01
23:28:20.256,-0.385,-0.02
23:28:20.260,-0.39,0.0
23:28:20.264,-0.38,-0.01
23:28:20.268,-0.385,-0.025
23:28:20.272,-0.355,-0.01
23:28:20.276,-0.37,-0.03
23:28:20.280,-0.335,-0.01
23:28:20.284,-0.335,-0.01
23:28:20.288,-0.31,-0.025
23:28:20.292,-0.32,-0.045
23:28:20.296,-0.31,-0.01
23:28:20.300,-0.305,-0.01
23:28:20.304,-0.275,0.0
23:28:20.308,-0.23,0.005
23:28:20.312,-0.205,-0.015
23:28:20.316,-0.16,0.015
23:28:20.320,-0.12,0.0
23:28:20.324,-0.1,0.0
23:28:20.328,-0.095,0.0
23:28:20.332,-0.06,0.02
23:28:20.336,-0.055,0.0
23:28:20.340,-0.075,-0.025
23:28:20.344,-0.085,-0.06
23:28:20.348,-0.15,-0.07
23:28:20.352,-0.2,-0.105
23:28:20.356,-0.255,-0.115
23:28:20.360,-0.295,-0.09
23:28:20.364,-0.33,-0.095
23:28:20.368,-0.4,-0.1
23:28:20.372,-0.435,-0.075
23:28:20.376,-0.46,-0.055
23:28:20.380,-0.48,-0.07
23:28:20.384,-0.48,-0.06
23:28:20.388,-0.475,-0.09
23:28:20.392,-0.48,-0.08
23:28:20.396,-0.455,-0.105
23:28:20.400,-0.445,-0.115
23:28:20.404,-0.435,-0.1
23:28:20.408,-0.455,-0.1
23:28:20.412,-0.44,-0.09
23:28:20.416,-0.45,-0.09
23:28:20.420,-0.47,-0.08
23:28:20.424,-0.475,-0.09
23:28:20.428,-0.46,-0.1
23:28:20.432,-0.465,-0.08
23:28:20.436,-0.47,-0.125
23:28:20.440,-0.47,-0.125
23:28:20.444,-0.46,-0.115
23:28:20.448,-0.455,-0.12
23:28:20.452,-0.455,-0.135
23:28:20.456,-0.455,-0.13
23:28:20.460,-0.45,-0.145
23:28:20.464,-0.45,-0.17
23:28:20.468,-0.445,-0.175
23:28:20.472,-0.455,-0.155
23:28:20.476,-0.44,-0.14
23:28:20.480,-0.45,-0.145
23:28:20.484,-0.42,-0.15
23:28:20.488,-0.34,-0.14
23:28:20.492,-0.265,-0.15
23:28:20.496,-0.16,-0.155
23:28:20.500,-0.03,-0.16
23:28:20.504,0.055,-0.19
23:28:20.508,0.085,-0.25
23:28:20.512,0.115,-0.21
23:28:20.516,0.115,-0.175
23:28:20.520,0.1,-0.19
23:28:20.524,0.04,-0.24
23:28:20.528,0.105,-0.305
23:28:20.532,0.3,-0.49
23:28:20.536,0.65,-0.755
23:28:20.540,0.98,-1.015
23:28:20.544,1.12,-1.175
23:28:20.548,0.985,-1.105
23:28:20.552,0.55,-0.835
23:28:20.556,0.06,-0.465
23:28:20.560,-0.225,-0.235
23:28:20.564,-0.345,-0.1
23:28:20.568,-0.425,-0.02
23:28:20.572,-0.46,0.01
23:28:20.576,-0.475,0.01
23:28:20.580,-0.515,0.01
23:28:20.584,-0.535,-0.005
23:28:20.588,-0.565,-0.02
23:28:20.592,-0.585,-0.05
23:28:20.596,-0.59,-0.06
23:28:20.600,-0.6,-0.065
23:28:20.604,-0.595,-0.075
23:28:20.608,-0.6,-0.095
23:28:20.612,-0.58,-0.075
23:28:20.616,-0.585,-0.08
23:28:20.620,-0.585,-0.095
23:28:20.624,-0.58,-0.09
23:28:20.628,-0.585,-0.065
23:28:20.632,-0.585,-0.07
23:28:20.636,-0.6,-0.065
23:28:20.640,-0.59,-0.075
23:28:20.644,-0.59,-0.06
23:28:20.648,-0.615,-0.06
23:28:20.652,-0.625,-0.065
23:28:20.656,-0.64,-0.055
23:28:20.660,-0.635,-0.05
23:28:20.664,-0.665,-0.065
23:28:20.668,-0.675,-0.06
23:28:20.672,-0.665,-0.065
23:28:20.676,-0.655,-0.07
23:28:20.680,-0.66,-0.055
23:28:20.684,-0.635,-0.055
23:28:20.688,-0.675,-0.06
23:28:20.692,-0.675,-0.06
23:28:20.696,-0.66,-0.07
23:28:20.700,-0.67,-0.06
23:28:20.704,-0.65,-0.05
23:28:20.708,-0.65,-0.06
23:28:20.712,-0.645,-0.055
23:28:20.716,-0.645,-0.05
23:28:20.720,-0.62,-0.05
23:28:20.724,-0.61,-0.045
23:28:20.728,-0.615,-0.045
23:28:20.732,-0.595,-0.06
23:28:20.736,-0.58,-0.025
23:28:20.740,-0.575,-0.015
23:28:20.744,-0.565,-0.025
23:28:20.748,-0.555,-0.03
23:28:20.752,-0.565,-0.025
23:28:20.756,-0.54,-0.015
23:28:20.760,-0.53,-0.04
23:28:20.764,-0.525,-0.05
23:28:20.768,-0.515,-0.05
23:28:20.772,-0.515,-0.04
23:28:20.776,-0.5,-0.065
23:28:20.780,-0.5,-0.05
23:28:20.784,-0.47,-0.045
23:28:20.788,-0.465,-0.05
23:28:20.792,-0.46,-0.055
23:28:20.796,-0.455,-0.055
23:28:20.800,-0.44,-0.065
23:28:20.804,-0.42,-0.05
23:28:20.808,-0.4,-0.04
23:28:20.812,-0.405,-0.035
23:28:20.816,-0.42,-0.025
23:28:20.820,-0.415,-0.015
23:28:20.824,-0.4,-0.02
23:28:20.828,-0.385,-0.03
23:28:20.832,-0.36,-0.01
23:28:20.836,-0.37,-0.005
23:28:20.840,-0.37,0.0
23:28:20.844,-0.37,0.01
23:28:20.848,-0.355,0.005
23:28:20.852,-0.37,0.025
23:28:20.856,-0.355,0.025
23:28:20.860,-0.36,0.03
23:28:20.864,-0.36,0.035
23:28:20.868,-0.365,0.035
23:28:20.872,-0.365,0.035
23:28:20.876,-0.37,0.04
23:28:20.880,-0.37,0.03
23:28:20.884,-0.38,0.045
23:28:20.888,-0.37,0.04
23:28:20.892,-0.365,0.025
23:28:20.896,-0.355,0.05
23:28:20.900,-0.36,0.035
23:28:20.904,-0.345,0.05
23:28:20.908,-0.36,0.025
23:28:20.912,-0.355,0.025
23:28:20.916,-0.365,0.035
23:28:20.920,-0.34,0.035
23:28:20.924,-0.33,0.03
23:28:20.928,-0.31,0.04
23:28:20.932,-0.28,0.03
23:28:20.936,-0.265,0.04
23:28:20.940,-0.26,0.05
23:28:20.944,-0.24,0.045
23:28:20.948,-0.235,0.045
23:28:20.952,-0.195,0.085
23:28:20.956,-0.15,0.075
23:28:20.960,-0.135,0.1
23:28:20.964,-0.1,0.115
23:28:20.968,-0.1,0.115
23:28:20.972,-0.085,0.12
23:28:20.976,-0.05,0.12
23:28:20.980,-0.025,0.105
23:28:20.984,-0.025,0.085
23:28:20.988,-0.06,0.07
23:28:20.992,-0.08,0.03
23:28:20.996,-0.15,0.015
23:28:21.000,-0.19,0.02
23:28:21.004,-0.27,0.015
23:28:21.008,-0.32,0.005
23:28:21.012,-0.355,0.01
23:28:21.016,-0.405,0.045
23:28:21.020,-0.445,0.04
23:28:21.024,-0.48,0.045
23:28:21.028,-0.46,0.045
23:28:21.032,-0.48,0.035
23:28:21.036,-0.465,0.04
23:28:21.040,-0.455,0.02
23:28:21.044,-0.455,0.02
23:28:21.048,-0.44,0.02
23:28:21.052,-0.445,0.02
23:28:21.056,-0.43,0.02
23:28:21.060,-0.425,0.02
23:28:21.064,-0.43,0.03
23:28:21.068,-0.41,0.03
23:28:21.072,-0.405,0.035
23:28:21.076,-0.425,0.03
23:28:21.080,-0.41,0.025
23:28:21.084,-0.425,0.01
23:28:21.088,-0.43,0.015
23:28:21.092,-0.42,0.005
23:28:21.096,-0.42,0.02
23:28:21.100,-0.45,0.0
23:28:21.104,-0.445,-0.01
23:28:21.108,-0.435,0.02
23:28:21.112,-0.445,0.005
23:28:21.116,-0.44,0.015
23:28:21.120,-0.415,-0.03
23:28:21.124,-0.425,-0.02
23:28:21.128,-0.395,-0.02
23:28:21.132,-0.365,-0.01
23:28:21.136,-0.315,-0.01
23:28:21.140,-0.235,-0.015
23:28:21.144,-0.145,-0.01
23:28:21.148,-0.05,-0.045
23:28:21.152,-0.015,-0.09
23:28:21.156,0.035,-0.105
23:28:21.160,0.05,-0.09
23:28:21.164,0.025,-0.105
23:28:21.168,-0.035,-0.165
23:28:21.172,-0.055,-0.235
23:28:21.176,0.1,-0.36
23:28:21.180,0.39,-0.6
23:28:21.184,0.765,-0.89
23:28:21.188,1.035,-1.11
23:28:21.192,1.1,-1.165
23:28:21.196,0.865,-0.98
23:28:21.200,0.395,-0.555
23:28:21.204,-0.055,-0.21
23:28:21.208,-0.3,0.005
23:28:21.212,-0.43,0.1
23:28:21.216,-0.49,0.17
23:28:21.220,-0.55,0.175
23:28:21.224,-0.55,0.195
23:28:21.228,-0.58,0.165
23:28:21.232,-0.6,0.15
23:28:21.236,-0.595,0.12
23:28:21.240,-0.61,0.085
23:28:21.244,-0.61,0.085
23:28:21.248,-0.615,0.07
23:28:21.252,-0.625,0.07
23:28:21.256,-0.635,0.065
23:28:21.260,-0.625,0.05
23:28:21.264,-0.62,0.07
23:28:21.268,-0.635,0.075
23:28:21.272,-0.635,0.065
23:28:21.276,-0.63,0.07
23:28:21.280,-0.62,0.07
23:28:21.284,-0.63,0.1
23:28:21.288,-0.615,0.1
23:28:21.292,-0.63,0.105
23:28:21.296,-0.62,0.09
23:28:21.300,-0.64,0.09
23:28:21.304,-0.635,0.1
23:28:21.308,-0.65,0.095
23:28:21.312,-0.655,0.07
23:28:21.316,-0.675,0.075
23:28:21.320,-0.675,0.085
23:28:21.324,-0.695,0.075
23:28:21.328,-0.69,0.07
23:28:21.332,-0.695,0.075
23:28:21.336,-0.715,0.07
23:28:21.340,-0.695,0.09
23:28:21.344,-0.67,0.075
23:28:21.348,-0.67,0.055
23:28:21.352,-0.69,0.045
23:28:21.356,-0.675,0.065
23:28:21.360,-0.675,0.06
23:28:21.364,-0.68,0.06
23:28:21.368,-0.68,0.07
23:28:21.372,-0.68,0.06
23:28:21.376,-0.655,0.055
23:28:21.380,-0.64,0.075
23:28:21.384,-0.635,0.065
23:28:21.388,-0.615,0.045
23:28:21.392,-0.595,0.04
23:28:21.396,-0.595,0.055
23:28:21.400,-0.575,0.055
23:28:21.404,-0.585,0.04
23:28:21.408,-0.555,0.04
23:28:21.412,-0.55,0.04
23:28:21.416,-0.525,0.05
23:28:21.420,-0.535,0.03
23:28:21.424,-0.495,0.03
23:28:21.428,-0.495,0.025
23:28:21.432,-0.485,0.025
23:28:21.436,-0.47,0.04
23:28:21.440,-0.465,0.02
23:28:21.444,-0.46,0.025
23:28:21.448,-0.445,0.0
23:28:21.452,-0.425,0.02
23:28:21.456,-0.43,0.01
23:28:21.460,-0.43,0.005
23:28:21.464,-0.405,0.02
23:28:21.468,-0.4,0.005
23:28:21.472,-0.39,0.02
23:28:21.476,-0.4,0.03
23:28:21.480,-0.385,0.04
23:28:21.484,-0.39,0.04
23:28:21.488,-0.38,0.06
23:28:21.492,-0.37,0.06
23:28:21.496,-0.365,0.065
23:28:21.500,-0.335,0.06
23:28:21.504,-0.345,0.035
23:28:21.508,-0.335,0.075
23:28:21.512,-0.35,0.065
23:28:21.516,-0.345,0.05
23:28:21.520,-0.36,0.065
23:28:21.524,-0.34,0.065
23:28:21.528,-0.36,0.065
23:28:21.532,-0.36,0.075
23:28:21.536,-0.365,0.09
23:28:21.540,-0.355,0.065
23:28:21.544,-0.36,0.105
23:28:21.548,-0.36,0.075
23:28:21.552,-0.385,0.055
23:28:21.556,-0.36,0.08
23:28:21.560,-0.355,0.07
23:28:21.564,-0.33,0.065
23:28:21.568,-0.31,0.055
23:28:21.572,-0.275,0.045
23:28:21.576,-0.3,0.05
23:28:21.580,-0.295,0.065
23:28:21.584,-0.28,0.07
23:28:21.588,-0.27,0.095
23:28:21.592,-0.235,0.115
23:28:21.596,-0.175,0.115
23:28:21.600,-0.13,0.12
23:28:21.604,-0.09,0.11
23:28:21.608,-0.08,0.11
23:28:21.612,-0.04,0.14
23:28:21.616,-0.04,0.13
23:28:21.620,-0.01,0.125
23:28:21.624,-0.01,0.085
23:28:21.628,-0.085,0.065
23:28:21.632,-0.13,0.055
23:28:21.636,-0.175,0.05
23:28:21.640,-0.25,0.04
23:28:21.644,-0.285,0.04
23:28:21.648,-0.335,0.05
23:28:21.652,-0.38,0.06
23:28:21.656,-0.445,0.08
23:28:21.660,-0.46,0.07
23:28:21.664,-0.47,0.075
23:28:21.668,-0.49,0.07
23:28:21.672,-0.475,0.07
23:28:21.676,-0.475,0.05
23:28:21.680,-0.47,0.04
23:28:21.684,-0.475,0.03
23:28:21.688,-0.465,0.05
23:28:21.692,-0.455,0.02
23:28:21.696,-0.455,0.045
23:28:21.700,-0.46,0.05
23:28:21.704,-0.46,0.055
23:28:21.708,-0.46,0.045
23:28:21.712,-0.455,0.04
23:28:21.716,-0.445,0.045
23:28:21.720,-0.435,0.05
23:28:21.724,-0.41,0.06
23:28:21.728,-0.43,0.04
23:28:21.732,-0.42,0.04
23:28:21.736,-0.43,0.05
23:28:21.740,-0.42,0.05
23:28:21.744,-0.42,0.055
23:28:21.748,-0.4,0.045
23:28:21.752,-0.415,0.075
23:28:21.756,-0.41,0.06
23:28:21.760,-0.415,0.05
23:28:21.764,-0.405,0.045
23:28:21.768,-0.375,0.04
23:28:21.772,-0.315,0.03
23:28:21.776,-0.235,0.035
23:28:21.780,-0.16,0.015
23:28:21.784,-0.06,-0.01
23:28:21.788,-0.03,-0.05
23:28:21.792,0.005,-0.09
23:28:21.796,0.015,-0.04
23:28:21.800,0.0,-0.045
23:28:21.804,-0.035,-0.075
23:28:21.808,-0.08,-0.205
23:28:21.812,0.04,-0.31
23:28:21.816,0.335,-0.515
23:28:21.820,0.715,-0.825
23:28:21.824,1.025,-1.065
23:28:21.828,1.145,-1.165
23:28:21.832,0.965,-0.995
23:28:21.836,0.505,-0.615
23:28:21.840,0.035,-0.21
23:28:21.844,-0.235,0.04
23:28:21.848,-0.36,0.145
23:28:21.852,-0.43,0.22
23:28:21.856,-0.47,0.22
23:28:21.860,-0.52,0.205
23:28:21.864,-0.54,0.195
23:28:21.868,-0.555,0.165
23:28:21.872,-0.55,0.165
23:28:21.876,-0.585,0.15
23:28:21.880,-0.59,0.105
23:28:21.884,-0.6,0.115
23:28:21.888,-0.585,0.115
23:28:21.892,-0.595,0.09
23:28:21.896,-0.57,0.09
23:28:21.900,-0.585,0.105
23:28:21.904,-0.585,0.105
23:28:21.908,-0.585,0.095
23:28:21.912,-0.59,0.1
23:28:21.916,-0.59,0.1
23:28:21.920,-0.615,0.105
23:28:21.924,-0.6,0.105
23:28:21.928,-0.62,0.09
23:28:21.932,-0.6,0.105
23:28:21.936,-0.605,0.09
23:28:21.940,-0.6,0.085
23:28:21.944,-0.61,0.1
23:28:21.948,-0.635,0.11
23:28:21.952,-0.615,0.095
23:28:21.956,-0.625,0.09
23:28:21.960,-0.625,0.095
23:28:21.964,-0.635,0.095
23:28:21.968,-0.625,0.085
23:28:21.972,-0.62,0.08
23:28:21.976,-0.63,0.085
23:28:21.980,-0.64,0.085
23:28:21.984,-0.665,0.08
23:28:21.988,-0.655,0.07
23:28:21.992,-0.65,0.075
23:28:21.996,-0.64,0.09
23:28:22.000,-0.64,0.085
23:28:22.004,-0.64,0.08
23:28:22.008,-0.63,0.055
23:28:22.012,-0.615,0.055
23:28:22.016,-0.615,0.055
23:28:22.020,-0.6,0.03
23:28:22.024,-0.6,0.055
23:28:22.028,-0.58,0.055
23:28:22.032,-0.57,0.03
23:28:22.036,-0.57,0.035
23:28:22.040,-0.545,0.02
23:28:22.044,-0.53,0.04
23:28:22.048,-0.515,0.04
23:28:22.052,-0.495,0.035
23:28:22.056,-0.47,0.04
23:28:22.060,-0.445,0.03
23:28:22.064,-0.45,0.03
23:28:22.068,-0.44,0.035
23:28:22.072,-0.42,0.02
23:28:22.076,-0.42,0.02
23:28:22.080,-0.4,0.03
23:28:22.084,-0.39,0.035
23:28:22.088,-0.405,0.02
23:28:22.092,-0.38,0.025
23:28:22.096,-0.38,0.025
23:28:22.100,-0.365,0.035
23:28:22.104,-0.375,0.02
23:28:22.108,-0.365,0.025
23:28:22.112,-0.35,0.02
23:28:22.116,-0.355,0.02
23:28:22.120,-0.375,0.005
23:28:22.124,-0.355,0.025
23:28:22.128,-0.345,0.02
23:28:22.132,-0.34,0.045
23:28:22.136,-0.34,0.03
23:28:22.140,-0.34,0.03
23:28:22.144,-0.345,0.045
23:28:22.148,-0.345,0.025
23:28:22.152,-0.34,0.055
23:28:22.156,-0.36,0.03
23:28:22.160,-0.33,0.045
23:28:22.164,-0.335,0.06
23:28:22.168,-0.32,0.055
23:28:22.172,-0.33,0.045
23:28:22.176,-0.33,0.065
23:28:22.180,-0.335,0.06
23:28:22.184,-0.33,0.06
23:28:22.188,-0.34,0.045
23:28:22.192,-0.335,0.055
23:28:22.196,-0.355,0.055
23:28:22.200,-0.335,0.05
23:28:22.204,-0.33,0.035
23:28:22.208,-0.305,0.05
23:28:22.212,-0.28,0.025
23:28:22.216,-0.285,0.025
23:28:22.220,-0.28,0.0
23:28:22.224,-0.29,0.025
23:28:22.228,-0.25,0.03
23:28:22.232,-0.21,0.06
23:28:22.236,-0.16,0.035
23:28:22.240,-0.14,0.065
23:28:22.244,-0.11,0.075
23:28:22.248,-0.11,0.07
23:28:22.252,-0.08,0.055
23:28:22.256,-0.05,0.07
23:28:22.260,-0.035,0.045
23:28:22.264,-0.025,0.04
23:28:22.268,-0.035,-0.01
23:28:22.272,-0.085,-0.015
23:28:22.276,-0.12,-0.035
23:28:22.280,-0.17,-0.015
23:28:22.284,-0.275,-0.02
23:28:22.288,-0.31,-0.02
23:28:22.292,-0.36,-0.005
23:28:22.296,-0.4,0.01
23:28:22.300,-0.44,0.025
23:28:22.304,-0.45,0.03
23:28:22.308,-0.475,0.015
23:28:22.312,-0.47,0.0
23:28:22.316,-0.475,0.01
23:28:22.320,-0.48,-0.01
23:28:22.324,-0.47,-0.005
23:28:22.328,-0.5,-0.025
23:28:22.332,-0.48,-0.01
23:28:22.336,-0.48,-0.025
23:28:22.340,-0.465,-0.035
23:28:22.344,-0.475,-0.045
23:28:22.348,-0.45,-0.045
23:28:22.352,-0.47,-0.03
23:28:22.356,-0.465,-0.06
23:28:22.360,-0.45,-0.08
23:28:22.364,-0.45,-0.07
23:28:22.368,-0.47,-0.05
23:28:22.372,-0.465,-0.04
23:28:22.376,-0.445,-0.055
23:28:22.380,-0.455,-0.025
23:28:22.384,-0.445,-0.035
23:28:22.388,-0.45,-0.075
23:28:22.392,-0.43,-0.07
23:28:22.396,-0.405,-0.06
23:28:22.400,-0.415,-0.03
23:28:22.404,-0.395,-0.055
23:28:22.408,-0.38,-0.04
23:28:22.412,-0.33,-0.055
23:28:22.416,-0.28,-0.045
23:28:22.420,-0.2,-0.05
23:28:22.424,-0.1,-0.09
23:28:22.428,-0.02,-0.14
23:28:22.432,0.005,-0.17
23:28:22.436,0.02,-0.165
23:28:22.440,0.025,-0.15
23:28:22.444,-0.015,-0.15
23:28:22.448,-0.065,-0.22
23:28:22.452,-0.025,-0.33
23:28:22.456,0.17,-0.48
23:28:22.460,0.47,-0.73
23:28:22.464,0.815,-1.03
23:28:22.468,1.07,-1.22
23:28:22.472,1.045,-1.21
23:28:22.476,0.735,-0.98
23:28:22.480,0.26,-0.54
23:28:22.484,-0.135,-0.22
23:28:22.488,-0.325,-0.025
23:28:22.492,-0.395,0.05
23:28:22.496,-0.44,0.075
23:28:22.500,-0.48,0.085
23:28:22.504,-0.51,0.07
23:28:22.508,-0.545,0.07
23:28:22.512,-0.56,0.06
23:28:22.516,-0.565,0.04
23:28:22.520,-0.585,0.0
23:28:22.524,-0.585,-0.015
23:28:22.528,-0.58,-0.035
23:28:22.532,-0.59,-0.035
23:28:22.536,-0.61,-0.06
23:28:22.540,-0.61,-0.035
23:28:22.544,-0.58,-0.065
23:28:22.548,-0.61,-0.045
23:28:22.552,-0.615,-0.045
23:28:22.556,-0.635,-0.06
23:28:22.560,-0.6,-0.035
23:28:22.564,-0.62,-0.06
23:28:22.568,-0.62,-0.07
23:28:22.572,-0.63,-0.08
23:28:22.576,-0.635,-0.07
23:28:22.580,-0.64,-0.07
23:28:22.584,-0.64,-0.075
23:28:22.588,-0.655,-0.035
23:28:22.592,-0.65,-0.06
23:28:22.596,-0.665,-0.065
23:28:22.600,-0.665,-0.065
23:28:22.604,-0.65,-0.08
23:28:22.608,-0.65,-0.06
23:28:22.612,-0.64,-0.07
23:28:22.616,-0.65,-0.05
23:28:22.620,-0.635,-0.085
23:28:22.624,-0.635,-0.1
23:28:22.628,-0.64,-0.08
23:28:22.632,-0.64,-0.06
23:28:22.636,-0.635,-0.1
23:28:22.640,-0.62,-0.08
23:28:22.644,-0.6,-0.08
23:28:22.648,-0.605,-0.08
23:28:22.652,-0.61,-0.075
23:28:22.656,-0.615,-0.08
23:28:22.660,-0.605,-0.085
23:28:22.664,-0.61,-0.095
23:28:22.668,-0.585,-0.11
23:28:22.672,-0.54,-0.1
23:28:22.676,-0.555,-0.095
23:28:22.680,-0.52,-0.12
23:28:22.684,-0.505,-0.13
23:28:22.688,-0.5,-0.12
23:28:22.692,-0.495,-0.135
23:28:22.696,-0.495,-0.125
23:28:22.700,-0.495,-0.145
23:28:22.704,-0.475,-0.14
23:28:22.708,-0.465,-0.125
23:28:22.712,-0.435,-0.1
23:28:22.716,-0.415,-0.115
23:28:22.720,-0.38,-0.125
23:28:22.724,-0.39,-0.135
23:28:22.728,-0.38,-0.13
23:28:22.732,-0.355,-0.15
23:28:22.736,-0.35,-0.135
23:28:22.740,-0.33,-0.13
23:28:22.744,-0.33,-0.13
23:28:22.748,-0.35,-0.12
23:28:22.752,-0.32,-0.145
23:28:22.756,-0.32,-0.105
23:28:22.760,-0.285,-0.11
23:28:22.764,-0.28,-0.135
23:28:22.768,-0.265,-0.115
23:28:22.772,-0.295,-0.135
23:28:22.776,-0.285,-0.12
23:28:22.780,-0.27,-0.135
23:28:22.784,-0.265,-0.12
23:28:22.788,-0.28,-0.14
23:28:22.792,-0.26,-0.135
23:28:22.796,-0.275,-0.14
23:28:22.800,-0.28,-0.12
23:28:22.804,-0.27,-0.14
23:28:22.808,-0.285,-0.145
23:28:22.812,-0.28,-0.135
23:28:22.816,-0.27,-0.135
23:28:22.820,-0.26,-0.165
23:28:22.824,-0.235,-0.15
23:28:22.828,-0.235,-0.175
23:28:22.832,-0.255,-0.16
23:28:22.836,-0.235,-0.17
23:28:22.840,-0.24,-0.16
23:28:22.844,-0.24,-0.16
23:28:22.848,-0.27,-0.175
23:28:22.852,-0.245,-0.16
23:28:22.856,-0.21,-0.165
23:28:22.860,-0.205,-0.185
23:28:22.864,-0.17,-0.175
23:28:22.868,-0.18,-0.195
23:28:22.872,-0.185,-0.185
23:28:22.876,-0.19,-0.16
23:28:22.880,-0.18,-0.17
23:28:22.884,-0.14,-0.175
23:28:22.888,-0.125,-0.165
23:28:22.892,-0.05,-0.155
23:28:22.896,-0.025,-0.14
23:28:22.900,-0.01,-0.15
23:28:22.904,0.02,-0.145
23:28:22.908,0.05,-0.14
23:28:22.912,0.05,-0.145
23:28:22.916,0.085,-0.155
23:28:22.920,0.085,-0.175
23:28:22.924,0.03,-0.2
23:28:22.928,-0.02,-0.215
23:28:22.932,-0.07,-0.225
23:28:22.936,-0.09,-0.22
23:28:22.940,-0.145,-0.215
23:28:22.944,-0.2,-0.225
23:28:22.948,-0.25,-0.21
23:28:22.952,-0.28,-0.21
23:28:22.956,-0.3,-0.2
23:28:22.960,-0.315,-0.2
23:28:22.964,-0.32,-0.215
23:28:22.968,-0.32,-0.225
23:28:22.972,-0.305,-0.225
23:28:22.976,-0.3,-0.23
23:28:22.980,-0.295,-0.23
23:28:22.984,-0.285,-0.235
23:28:22.988,-0.3,-0.255
23:28:22.992,-0.295,-0.23
23:28:22.996,-0.31,-0.23
23:28:23.000,-0.315,-0.255
23:28:23.004,-0.31,-0.26
23:28:23.008,-0.3,-0.23
23:28:23.012,-0.295,-0.24
23:28:23.016,-0.305,-0.25
23:28:23.020,-0.315,-0.23
23:28:23.024,-0.31,-0.26
23:28:23.028,-0.3,-0.25
23:28:23.032,-0.305,-0.27
23:28:23.036,-0.29,-0.25
23:28:23.040,-0.31,-0.27
23:28:23.044,-0.3,-0.25
23:28:23.048,-0.275,-0.255
23:28:23.052,-0.255,-0.265
23:28:23.056,-0.255,-0.26
23:28:23.060,-0.25,-0.26
23:28:23.064,-0.17,-0.24
23:28:23.068,-0.15,-0.245
23:28:23.072,-0.06,-0.22
23:28:23.076,0.02,-0.26
23:28:23.080,0.105,-0.265
23:28:23.084,0.165,-0.285
23:28:23.088,0.205,-0.32
23:28:23.092,0.24,-0.285
23:28:23.096,0.245,-0.275
23:28:23.100,0.185,-0.28
23:28:23.104,0.15,-0.32
23:28:23.108,0.265,-0.44
23:28:23.112,0.505,-0.65
23:28:23.116,0.875,-0.88
23:28:23.120,1.13,-1.095
23:28:23.124,1.155,-1.22
23:28:23.128,0.86,-1.1
23:28:23.132,0.375,-0.76
23:28:23.136,-0.03,-0.45
23:28:23.140,-0.225,-0.245
23:28:23.144,-0.335,-0.15
23:28:23.148,-0.375,-0.09
23:28:23.152,-0.405,-0.055
23:28:23.156,-0.44,-0.04
23:28:23.160,-0.46,-0.065
23:28:23.164,-0.44,-0.05
23:28:23.168,-0.445,-0.075
23:28:23.172,-0.445,-0.09
23:28:23.176,-0.46,-0.105
23:28:23.180,-0.465,-0.13
23:28:23.184,-0.465,-0.1
23:28:23.188,-0.465,-0.08
23:28:23.192,-0.49,-0.12
23:28:23.196,-0.5,-0.105
23:28:23.200,-0.5,-0.09
23:28:23.204,-0.49,-0.085
23:28:23.208,-0.49,-0.085
23:28:23.212,-0.52,-0.095
23:28:23.216,-0.53,-0.085
23:28:23.220,-0.54,-0.075
23:28:23.224,-0.53,-0.065
23:28:23.228,-0.535,-0.09
23:28:23.232,-0.555,-0.085
23:28:23.236,-0.56,-0.105
23:28:23.240,-0.56,-0.095
23:28:23.244,-0.56,-0.09
23:28:23.248,-0.565,-0.105
23:28:23.252,-0.585,-0.09
23:28:23.256,-0.595,-0.09
23:28:23.260,-0.595,-0.105
23:28:23.264,-0.595,-0.09
23:28:23.268,-0.58,-0.09
23:28:23.272,-0.58,-0.07
23:28:23.276,-0.575,-0.075
23:28:23.280,-0.565,-0.075
23:28:23.284,-0.575,-0.06
23:28:23.288,-0.56,-0.05
23:28:23.292,-0.56,-0.07
23:28:23.296,-0.56,-0.055
23:28:23.300,-0.535,-0.08
23:28:23.304,-0.535,-0.055
23:28:23.308,-0.525,-0.04
23:28:23.312,-0.52,-0.03
23:28:23.316,-0.535,-0.055
23:28:23.320,-0.52,-0.065
23:28:23.324,-0.515,-0.06
23:28:23.328,-0.495,-0.06
23:28:23.332,-0.5,-0.065
23:28:23.336,-0.495,-0.07
23:28:23.340,-0.495,-0.07
23:28:23.344,-0.465,-0.065
23:28:23.348,-0.445,-0.065
23:28:23.352,-0.435,-0.115
23:28:23.356,-0.42,-0.095
23:28:23.360,-0.39,-0.1
23:28:23.364,-0.41,-0.09
23:28:23.368,-0.39,-0.09
23:28:23.372,-0.39,-0.075
23:28:23.376,-0.365,-0.08
23:28:23.380,-0.365,-0.1
23:28:23.384,-0.335,-0.08
23:28:23.388,-0.355,-0.055
23:28:23.392,-0.33,-0.08
23:28:23.396,-0.31,-0.07
23:28:23.400,-0.325,-0.06
23:28:23.404,-0.31,-0.04
23:28:23.408,-0.31,-0.045
23:28:23.412,-0.31,-0.045
23:28:23.416,-0.3,-0.045
23:28:23.420,-0.295,-0.045
23:28:23.424,-0.3,-0.045
23:28:23.428,-0.32,-0.04
23:28:23.432,-0.33,-0.025
23:28:23.436,-0.305,-0.03
23:28:23.440,-0.315,-0.015
23:28:23.444,-0.335,-0.045
23:28:23.448,-0.315,-0.02
23:28:23.452,-0.33,-0.015
23:28:23.456,-0.32,-0.02
23:28:23.460,-0.315,-0.02
23:28:23.464,-0.325,-0.03
23:28:23.468,-0.325,-0.01
23:28:23.472,-0.335,-0.03
23:28:23.476,-0.34,-0.025
23:28:23.480,-0.335,-0.03
23:28:23.484,-0.34,-0.015
23:28:23.488,-0.32,-0.03
23:28:23.492,-0.325,-0.01
23:28:23.496,-0.305,-0.015
23:28:23.500,-0.29,-0.01
23:28:23.504,-0.26,-0.015
23:28:23.508,-0.245,-0.01
23:28:23.512,-0.245,-0.005
23:28:23.516,-0.255,-0.015
23:28:23.520,-0.23,-0.005
23:28:23.524,-0.21,0.02
23:28:23.528,-0.175,0.015
23:28:23.532,-0.145,0.05
23:28:23.536,-0.1,0.03
23:28:23.540,-0.095,0.05
23:28:23.544,-0.08,0.035
23:28:23.548,-0.07,0.045
23:28:23.552,-0.03,0.075
23:28:23.556,-0.04,0.045
23:28:23.560,-0.03,0.03
23:28:23.564,-0.045,0.005
23:28:23.568,-0.07,-0.03
23:28:23.572,-0.115,-0.06
23:28:23.576,-0.155,-0.045
23:28:23.580,-0.23,-0.035
23:28:23.584,-0.29,-0.055
23:28:23.588,-0.35,-0.04
23:28:23.592,-0.39,-0.03
23:28:23.596,-0.42,-0.025
23:28:23.600,-0.405,0.0
23:28:23.604,-0.415,-0.015
23:28:23.608,-0.415,0.0
23:28:23.612,-0.41,0.0
23:28:23.616,-0.38,-0.01
23:28:23.620,-0.4,-0.015
23:28:23.624,-0.385,-0.015
23:28:23.628,-0.405,-0.01
23:28:23.632,-0.39,-0.01
23:28:23.636,-0.4,-0.025
23:28:23.640,-0.4,-0.02
23:28:23.644,-0.395,-0.015
23:28:23.648,-0.4,-0.025
23:28:23.652,-0.41,-0.025
23:28:23.656,-0.405,-0.02
23:28:23.660,-0.405,-0.035
23:28:23.664,-0.395,-0.035
23:28:23.668,-0.365,-0.035
23:28:23.672,-0.38,-0.025
23:28:23.676,-0.365,-0.03
23:28:23.680,-0.385,-0.05
23:28:23.684,-0.365,-0.03
23:28:23.688,-0.375,-0.03
23:28:23.692,-0.385,-0.04
23:28:23.696,-0.345,-0.03
23:28:23.700,-0.34,-0.02
23:28:23.704,-0.315,-0.03
23:28:23.708,-0.24,-0.02
23:28:23.712,-0.15,-0.02
23:28:23.716,-0.055,-0.045
23:28:23.720,0.01,-0.04
23:28:23.724,0.065,-0.075
23:28:23.728,0.075,-0.1
23:28:23.732,0.08,-0.09
23:28:23.736,0.085,-0.065
23:28:23.740,0.02,-0.105
23:28:23.744,0.03,-0.185
23:28:23.748,0.16,-0.29
23:28:23.752,0.445,-0.505
23:28:23.756,0.815,-0.76
23:28:23.760,1.09,-1.0
23:28:23.764,1.14,-1.125
23:28:23.768,0.915,-1.04
23:28:23.772,0.44,-0.7
23:28:23.776,0.02,-0.305
23:28:23.780,-0.21,-0.07
23:28:23.784,-0.34,0.07
23:28:23.788,-0.405,0.13
23:28:23.792,-0.425,0.165
23:28:23.796,-0.445,0.155
23:28:23.800,-0.455,0.17
23:28:23.804,-0.475,0.155
23:28:23.808,-0.495,0.135
23:28:23.812,-0.495,0.125
23:28:23.816,-0.495,0.095
23:28:23.820,-0.525,0.095
23:28:23.824,-0.515,0.08
23:28:23.828,-0.5,0.065
23:28:23.832,-0.475,0.09
23:28:23.836,-0.485,0.09
23:28:23.840,-0.49,0.075
23:28:23.844,-0.49,0.09
23:28:23.848,-0.495,0.095
23:28:23.852,-0.5,0.1
23:28:23.856,-0.495,0.085
23:28:23.860,-0.515,0.085
23:28:23.864,-0.525,0.08
23:28:23.868,-0.53,0.075
23:28:23.872,-0.53,0.075
23:28:23.876,-0.555,0.075
23:28:23.880,-0.555,0.04
23:28:23.884,-0.57,0.055
23:28:23.888,-0.58,0.055
23:28:23.892,-0.57,0.05
23:28:23.896,-0.55,0.05
23:28:23.900,-0.57,0.05
23:28:23.904,-0.585,0.045
23:28:23.908,-0.565,0.05
23:28:23.912,-0.58,0.075
23:28:23.916,-0.57,0.04
23:28:23.920,-0.56,0.045
23:28:23.924,-0.58,0.02
23:28:23.928,-0.57,0.055
23:28:23.932,-0.57,0.03
23:28:23.936,-0.535,0.035
23:28:23.940,-0.515,0.05
23:28:23.944,-0.51,0.03
23:28:23.948,-0.515,0.05
23:28:23.952,-0.49,0.05
23:28:23.956,-0.495,0.055
23:28:23.960,-0.475,0.05
23:28:23.964,-0.48,0.05
23:28:23.968,-0.455,0.07
23:28:23.972,-0.445,0.04
23:28:23.976,-0.44,0.02
23:28:23.980,-0.45,0.02
23:28:23.984,-0.44,0.02
23:28:23.988,-0.42,0.03
23:28:23.992,-0.41,0.02
23:28:23.996,-0.395,0.01
23:28:24.000,-0.38,0.01
23:28:24.004,-0.385,0.0
23:28:24.008,-0.365,0.0
23:28:24.012,-0.355,0.0
23:28:24.016,-0.335,-0.02
23:28:24.020,-0.325,-0.025
23:28:24.024,-0.315,-0.02
23:28:24.028,-0.315,-0.01
23:28:24.032,-0.315,0.0
23:28:24.036,-0.29,-0.02
23:28:24.040,-0.28,-0.005
23:28:24.044,-0.265,0.005
23:28:24.048,-0.25,0.025
23:28:24.052,-0.245,0.015
23:28:24.056,-0.235,0.01
23:28:24.060,-0.235,0.03
23:28:24.064,-0.23,0.025
23:28:24.068,-0.23,0.035
23:28:24.072,-0.235,0.045
23:28:24.076,-0.25,0.045
23:28:24.080,-0.25,0.05
23:28:24.084,-0.26,0.04
23:28:24.088,-0.25,0.04
23:28:24.092,-0.25,0.04
23:28:24.096,-0.26,0.055
23:28:24.100,-0.27,0.04
23:28:24.104,-0.27,0.025
23:28:24.108,-0.275,0.015
23:28:24.112,-0.285,0.035
23:28:24.116,-0.265,0.02
23:28:24.120,-0.28,0.04
23:28:24.124,-0.27,0.025
23:28:24.128,-0.27,0.02
23:28:24.132,-0.27,0.03
23:28:24.136,-0.245,0.04
23:28:24.140,-0.24,0.03
23:28:24.144,-0.23,0.02
23:28:24.148,-0.22,0.035
23:28:24.152,-0.21,0.035
23:28:24.156,-0.205,0.06
23:28:24.160,-0.185,0.045
23:28:24.164,-0.145,0.05
23:28:24.168,-0.105,0.06
23:28:24.172,-0.045,0.07
23:28:24.176,-0.04,0.105
23:28:24.180,-0.015,0.1
23:28:24.184,0.01,0.11
23:28:24.188,0.015,0.09
23:28:24.192,0.035,0.085
23:28:24.196,0.03,0.075
23:28:24.200,-0.01,0.03
23:28:24.204,-0.055,0.01
23:28:24.208,-0.115,0.0
23:28:24.212,-0.18,-0.02
23:28:24.216,-0.24,-0.025
23:28:24.220,-0.285,-0.01
23:28:24.224,-0.33,-0.015
23:28:24.228,-0.38,0.03
23:28:24.232,-0.4,0.005
23:28:24.236,-0.425,0.015
23:28:24.240,-0.4,0.005
23:28:24.244,-0.405,0.005
23:28:24.248,-0.41,0.0
23:28:24.252,-0.41,-0.02
23:28:24.256,-0.4,-0.03
23:28:24.260,-0.395,-0.035
23:28:24.264,-0.39,-0.02
23:28:24.268,-0.38,-0.01
23:28:24.272,-0.38,-0.01
23:28:24.276,-0.38,0.0
23:28:24.280,-0.38,-0.015
23:28:24.284,-0.37,-0.02
23:28:24.288,-0.365,-0.035
23:28:24.292,-0.37,-0.005
23:28:24.296,-0.35,-0.005
23:28:24.300,-0.35,0.0
23:28:24.304,-0.365,-0.025
23:28:24.308,-0.36,-0.025
23:28:24.312,-0.365,-0.01
23:28:24.316,-0.375,-0.025
23:28:24.320,-0.37,-0.03
23:28:24.324,-0.37,-0.025
23:28:24.328,-0.38,-0.03
23:28:24.332,-0.365,-0.02
23:28:24.336,-0.34,-0.03
23:28:24.340,-0.31,-0.025
23:28:24.344,-0.28,-0.04
23:28:24.348,-0.185,-0.035
23:28:24.352,-0.1,-0.045
23:28:24.356,-0.02,-0.05
23:28:24.360,0.015,-0.065
23:28:24.364,0.04,-0.11
23:28:24.368,0.06,-0.14
23:28:24.372,0.04,-0.12
23:28:24.376,0.0,-0.12
23:28:24.380,-0.01,-0.175
23:28:24.384,0.105,-0.295
23:28:24.388,0.4,-0.49
23:28:24.392,0.745,-0.725
23:28:24.396,1.045,-1.015
23:28:24.400,1.17,-1.175
23:28:24.404,1.0,-1.13
23:28:24.408,0.57,-0.84
23:28:24.412,0.115,-0.455
23:28:24.416,-0.185,-0.13
23:28:24.420,-0.34,0.03
23:28:24.424,-0.405,0.14
23:28:24.428,-0.445,0.155
23:28:24.432,-0.455,0.175
23:28:24.436,-0.515,0.15
23:28:24.440,-0.51,0.135
23:28:24.444,-0.52,0.125
23:28:24.448,-0.53,0.095
23:28:24.452,-0.52,0.065
23:28:24.456,-0.54,0.055
23:28:24.460,-0.53,0.045
23:28:24.464,-0.52,0.035
23:28:24.468,-0.525,0.065
23:28:24.472,-0.54,0.065
23:28:24.476,-0.53,0.075
23:28:24.480,-0.54,0.07
23:28:24.484,-0.535,0.065
23:28:24.488,-0.52,0.075
23:28:24.492,-0.545,0.07
23:28:24.496,-0.53,0.06
23:28:24.500,-0.54,0.055
23:28:24.504,-0.545,0.09
23:28:24.508,-0.56,0.075
23:28:24.512,-0.555,0.07
23:28:24.516,-0.565,0.07
23:28:24.520,-0.58,0.09
23:28:24.524,-0.585,0.07
23:28:24.528,-0.58,0.07
23:28:24.532,-0.6,0.065
23:28:24.536,-0.61,0.07
23:28:24.540,-0.63,0.055
23:28:24.544,-0.63,0.06
23:28:24.548,-0.61,0.05
23:28:24.552,-0.615,0.07
23:28:24.556,-0.605,0.07
23:28:24.560,-0.615,0.04
23:28:24.564,-0.605,0.045
23:28:24.568,-0.59,0.05
23:28:24.572,-0.59,0.05
23:28:24.576,-0.58,0.05
23:28:24.580,-0.585,0.04
23:28:24.584,-0.57,0.07
23:28:24.588,-0.57,0.04
23:28:24.592,-0.54,0.025
23:28:24.596,-0.52,0.065
23:28:24.600,-0.515,0.05
23:28:24.604,-0.505,0.05
23:28:24.608,-0.5,0.065
23:28:24.612,-0.47,0.05
23:28:24.616,-0.47,0.035
23:28:24.620,-0.465,0.03
23:28:24.624,-0.45,0.045
23:28:24.628,-0.45,0.035
23:28:24.632,-0.43,0.025
23:28:24.636,-0.4,0.03
23:28:24.640,-0.415,0.035
23:28:24.644,-0.385,0.04
23:28:24.648,-0.4,0.025
23:28:24.652,-0.365,0.03
23:28:24.656,-0.36,0.03
23:28:24.660,-0.345,0.025
23:28:24.664,-0.345,0.015
23:28:24.668,-0.345,0.02
23:28:24.672,-0.335,0.02
23:28:24.676,-0.32,0.025
23:28:24.680,-0.31,0.04
23:28:24.684,-0.295,0.04
23:28:24.688,-0.29,0.045
23:28:24.692,-0.3,0.035
23:28:24.696,-0.29,0.055
23:28:24.700,-0.265,0.06
23:28:24.704,-0.27,0.06
23:28:24.708,-0.26,0.06
23:28:24.712,-0.25,0.055
23:28:24.716,-0.24,0.08
23:28:24.720,-0.265,0.07
23:28:24.724,-0.235,0.085
23:28:24.728,-0.25,0.06
23:28:24.732,-0.255,0.085
23:28:24.736,-0.26,0.075
23:28:24.740,-0.255,0.075
23:28:24.744,-0.255,0.075
23:28:24.748,-0.27,0.08
23:28:24.752,-0.275,0.095
23:28:24.756,-0.28,0.07
23:28:24.760,-0.285,0.075
23:28:24.764,-0.26,0.08
23:28:24.768,-0.26,0.065
23:28:24.772,-0.27,0.07
23:28:24.776,-0.28,0.07
23:28:24.780,-0.26,0.075
23:28:24.784,-0.24,0.07
23:28:24.788,-0.215,0.06
23:28:24.792,-0.23,0.065
23:28:24.796,-0.225,0.05
23:28:24.800,-0.2,0.05
23:28:24.804,-0.195,0.07
23:28:24.808,-0.16,0.085
23:28:24.812,-0.1,0.1
23:28:24.816,-0.05,0.1
23:28:24.820,-0.04,0.105
23:28:24.824,-0.025,0.11
23:28:24.828,0.01,0.14
23:28:24.832,0.03,0.12
23:28:24.836,0.04,0.12
23:28:24.840,0.03,0.1
23:28:24.844,-0.01,0.06
23:28:24.848,-0.05,0.03
23:28:24.852,-0.09,0.02
23:28:24.856,-0.145,0.015
23:28:24.860,-0.22,0.02
23:28:24.864,-0.265,0.005
23:28:24.868,-0.33,0.025
23:28:24.872,-0.375,0.02
23:28:24.876,-0.395,0.03
23:28:24.880,-0.415,0.03
23:28:24.884,-0.41,0.02
23:28:24.888,-0.4,0.02
23:28:24.892,-0.4,0.015
23:28:24.896,-0.38,-0.025
23:28:24.900,-0.4,-0.02
23:28:24.904,-0.395,-0.02
23:28:24.908,-0.37,-0.02
23:28:24.912,-0.4,-0.02
23:28:24.916,-0.38,-0.015
23:28:24.920,-0.36,-0.02
23:28:24.924,-0.365,-0.015
23:28:24.928,-0.35,-0.02
23:28:24.932,-0.34,-0.015
23:28:24.936,-0.32,-0.01
23:28:24.940,-0.34,0.01
23:28:24.944,-0.34,0.0
23:28:24.948,-0.34,0.0
23:28:24.952,-0.335,0.0
23:28:24.956,-0.34,-0.02
23:28:24.960,-0.34,0.005
23:28:24.964,-0.33,0.005
23:28:24.968,-0.34,0.0
23:28:24.972,-0.345,-0.01
23:28:24.976,-0.355,-0.01
23:28:24.980,-0.35,-0.03
23:28:24.984,-0.305,-0.01
23:28:24.988,-0.245,-0.02
23:28:24.992,-0.19,-0.035
23:28:24.996,-0.085,-0.03
23:28:25.000,0.0,-0.06
23:28:25.004,0.04,-0.075
23:28:25.008,0.1,-0.11
23:28:25.012,0.1,-0.14
23:28:25.016,0.105,-0.125
23:28:25.020,0.055,-0.08
23:28:25.024,0.015,-0.13
23:28:25.028,0.095,-0.21
23:28:25.032,0.325,-0.355
23:28:25.036,0.66,-0.59
23:28:25.040,0.99,-0.865
23:28:25.044,1.155,-1.09
23:28:25.048,1.065,-1.14
23:28:25.052,0.645,-0.96
23:28:25.056,0.21,-0.59
23:28:25.060,-0.105,-0.235
23:28:25.064,-0.26,-0.02
23:28:25.068,-0.325,0.1
23:28:25.072,-0.36,0.12
23:28:25.076,-0.4,0.115
23:28:25.080,-0.44,0.12
23:28:25.084,-0.455,0.1
23:28:25.088,-0.47,0.085
23:28:25.092,-0.485,0.05
23:28:25.096,-0.495,0.035
23:28:25.100,-0.5,0.015
23:28:25.104,-0.515,-0.01
23:28:25.108,-0.49,-0.02
23:28:25.112,-0.495,-0.015
23:28:25.116,-0.51,-0.005
23:28:25.120,-0.51,-0.025
23:28:25.124,-0.52,-0.025
23:28:25.128,-0.51,-0.02
23:28:25.132,-0.515,-0.025
23:28:25.136,-0.54,-0.03
23:28:25.140,-0.555,-0.05
23:28:25.144,-0.53,-0.03
23:28:25.148,-0.52,-0.035
23:28:25.152,-0.53,-0.035
23:28:25.156,-0.525,-0.02
23:28:25.160,-0.53,-0.015
23:28:25.164,-0.535,-0.035
23:28:25.168,-0.52,-0.035
23:28:25.172,-0.54,-0.035
23:28:25.176,-0.55,-0.04
23:28:25.180,-0.565,-0.045
23:28:25.184,-0.56,-0.055
23:28:25.188,-0.58,-0.03
23:28:25.192,-0.58,-0.05
23:28:25.196,-0.58,-0.05
23:28:25.200,-0.585,-0.07
23:28:25.204,-0.595,-0.06
23:28:25.208,-0.595,-0.085
23:28:25.212,-0.585,-0.07
23:28:25.216,-0.56,-0.095
23:28:25.220,-0.55,-0.08
23:28:25.224,-0.56,-0.08
23:28:25.228,-0.55,-0.09
23:28:25.232,-0.53,-0.09
23:28:25.236,-0.535,-0.1
23:28:25.240,-0.555,-0.09
23:28:25.244,-0.545,-0.1
23:28:25.248,-0.54,-0.09
23:28:25.252,-0.505,-0.115
23:28:25.256,-0.485,-0.11
23:28:25.260,-0.465,-0.1
23:28:25.264,-0.45,-0.115
23:28:25.268,-0.46,-0.115
23:28:25.272,-0.44,-0.12
23:28:25.276,-0.445,-0.13
23:28:25.280,-0.42,-0.13
23:28:25.284,-0.4,-0.12
23:28:25.288,-0.38,-0.105
23:28:25.292,-0.38,-0.12
23:28:25.296,-0.385,-0.14
23:28:25.300,-0.38,-0.12
23:28:25.304,-0.37,-0.11
23:28:25.308,-0.36,-0.1
23:28:25.312,-0.36,-0.12
23:28:25.316,-0.355,-0.12
23:28:25.320,-0.36,-0.145
23:28:25.324,-0.345,-0.15
23:28:25.328,-0.345,-0.14
23:28:25.332,-0.325,-0.125
23:28:25.336,-0.32,-0.13
23:28:25.340,-0.32,-0.14
23:28:25.344,-0.32,-0.16
23:28:25.348,-0.33,-0.12
23:28:25.352,-0.32,-0.13
23:28:25.356,-0.325,-0.13
23:28:25.360,-0.31,-0.125
23:28:25.364,-0.295,-0.13
23:28:25.368,-0.285,-0.13
23:28:25.372,-0.29,-0.135
23:28:25.376,-0.29,-0.13
23:28:25.380,-0.29,-0.13
23:28:25.384,-0.295,-0.115
23:28:25.388,-0.305,-0.12
23:28:25.392,-0.295,-0.095
23:28:25.396,-0.295,-0.09
23:28:25.400,-0.29,-0.1
23:28:25.404,-0.29,-0.115
23:28:25.408,-0.31,-0.125
23:28:25.412,-0.31,-0.115
23:28:25.416,-0.32,-0.105
23:28:25.420,-0.31,-0.13
23:28:25.424,-0.325,-0.13
23:28:25.428,-0.305,-0.135
23:28:25.432,-0.285,-0.13
23:28:25.436,-0.285,-0.13
23:28:25.440,-0.275,-0.13
23:28:25.444,-0.265,-0.16
23:28:25.448,-0.255,-0.135
23:28:25.452,-0.26,-0.155
23:28:25.456,-0.24,-0.13
23:28:25.460,-0.215,-0.125
23:28:25.464,-0.155,-0.12
23:28:25.468,-0.105,-0.08
23:28:25.472,-0.09,-0.09
23:28:25.476,-0.05,-0.11
23:28:25.480,-0.025,-0.09
23:28:25.484,0.0,-0.075
23:28:25.488,0.025,-0.08
23:28:25.492,0.03,-0.095
23:28:25.496,0.01,-0.105
23:28:25.500,-0.035,-0.115
23:28:25.504,-0.095,-0.135
23:28:25.508,-0.14,-0.14
23:28:25.512,-0.215,-0.16
23:28:25.516,-0.28,-0.16
23:28:25.520,-0.31,-0.14
23:28:25.524,-0.355,-0.15
23:28:25.528,-0.395,-0.13
23:28:25.532,-0.405,-0.14
23:28:25.536,-0.42,-0.135
23:28:25.540,-0.41,-0.13
23:28:25.544,-0.41,-0.16
23:28:25.548,-0.425,-0.165
23:28:25.552,-0.4,-0.165
23:28:25.556,-0.4,-0.16
23:28:25.560,-0.39,-0.165
23:28:25.564,-0.4,-0.15
23:28:25.568,-0.38,-0.17
23:28:25.572,-0.38,-0.155
23:28:25.576,-0.38,-0.17
23:28:25.580,-0.375,-0.17
23:28:25.584,-0.38,-0.175
23:28:25.588,-0.355,-0.165
23:28:25.592,-0.355,-0.16
23:28:25.596,-0.37,-0.155
23:28:25.600,-0.345,-0.165
23:28:25.604,-0.36,-0.155
23:28:25.608,-0.36,-0.16
23:28:25.612,-0.36,-0.13
23:28:25.616,-0.355,-0.14
23:28:25.620,-0.355,-0.145
23:28:25.624,-0.345,-0.145
23:28:25.628,-0.345,-0.135
23:28:25.632,-0.32,-0.13
23:28:25.636,-0.305,-0.13
23:28:25.640,-0.26,-0.13
23:28:25.644,-0.19,-0.145
23:28:25.648,-0.115,-0.155
23:28:25.652,-0.015,-0.135
23:28:25.656,0.05,-0.165
23:28:25.660,0.09,-0.2
23:28:25.664,0.125,-0.22
23:28:25.668,0.145,-0.22
23:28:25.672,0.13,-0.18
23:28:25.676,0.1,-0.215
23:28:25.680,0.14,-0.26
23:28:25.684,0.34,-0.375
23:28:25.688,0.665,-0.54
23:28:25.692,1.015,-0.82
23:28:25.696,1.175,-1.01
23:28:25.700,1.065,-1.115
23:28:25.704,0.65,-0.97
23:28:25.708,0.2,-0.605
23:28:25.712,-0.11,-0.295
23:28:25.716,-0.27,-0.095
23:28:25.720,-0.33,0.015
23:28:25.724,-0.375,0.08
23:28:25.728,-0.395,0.105
23:28:25.732,-0.435,0.12
23:28:25.736,-0.455,0.12
23:28:25.740,-0.465,0.11
23:28:25.744,-0.5,0.08
23:28:25.748,-0.475,0.055
23:28:25.752,-0.49,0.055
23:28:25.756,-0.495,0.05
23:28:25.760,-0.52,0.04
23:28:25.764,-0.51,0.03
23:28:25.768,-0.51,0.035
23:28:25.772,-0.53,0.03
23:28:25.776,-0.525,0.035
23:28:25.780,-0.515,0.025
23:28:25.784,-0.515,0.045
23:28:25.788,-0.52,0.03
23:28:25.792,-0.52,0.04
23:28:25.796,-0.535,0.045
23:28:25.800,-0.53,0.045
23:28:25.804,-0.535,0.04
23:28:25.808,-0.53,0.035
23:28:25.812,-0.52,0.03
23:28:25.816,-0.525,0.045
23:28:25.820,-0.535,0.055
23:28:25.824,-0.545,0.045
23:28:25.828,-0.54,0.05
23:28:25.832,-0.565,0.04
23:28:25.836,-0.54,0.045
23:28:25.840,-0.555,0.065
23:28:25.844,-0.555,0.06
23:28:25.848,-0.55,0.05
23:28:25.852,-0.555,0.02
23:28:25.856,-0.56,0.04
23:28:25.860,-0.57,0.035
23:28:25.864,-0.585,0.06
23:28:25.868,-0.575,0.05
23:28:25.872,-0.55,0.045
23:28:25.876,-0.56,0.04
23:28:25.880,-0.55,0.04
23:28:25.884,-0.53,0.025
23:28:25.888,-0.53,0.03
23:28:25.892,-0.505,0.025
23:28:25.896,-0.5,0.025
23:28:25.900,-0.51,0.02
23:28:25.904,-0.49,0.005
23:28:25.908,-0.48,0.005
23:28:25.912,-0.465,0.0
23:28:25.916,-0.485,0.015
23:28:25.920,-0.44,0.02
23:28:25.924,-0.415,0.02
23:28:25.928,-0.39,0.0
23:28:25.932,-0.385,0.02
23:28:25.936,-0.385,0.0
23:28:25.940,-0.37,0.005
23:28:25.944,-0.345,0.025
23:28:25.948,-0.31,0.0
23:28:25.952,-0.325,0.025
23:28:25.956,-0.315,0.005
23:28:25.960,-0.315,0.01
23:28:25.964,-0.3,0.015
23:28:25.968,-0.285,0.03
23:28:25.972,-0.285,0.015
23:28:25.976,-0.29,0.015
23:28:25.980,-0.285,0.015
23:28:25.984,-0.26,0.005
23:28:25.988,-0.295,0.025
23:28:25.992,-0.265,0.02
23:28:25.996,-0.26,0.01
23:28:26.000,-0.27,0.01
23:28:26.004,-0.27,0.025
23:28:26.008,-0.265,0.015
23:28:26.012,-0.265,0.025
23:28:26.016,-0.265,0.03
23:28:26.020,-0.26,0.035
23:28:26.024,-0.26,0.035
23:28:26.028,-0.245,0.04
23:28:26.032,-0.24,0.035
23:28:26.036,-0.255,0.035
23:28:26.040,-0.26,0.04
23:28:26.044,-0.25,0.05
23:28:26.048,-0.25,0.055
23:28:26.052,-0.255,0.06
23:28:26.056,-0.255,0.055
23:28:26.060,-0.255,0.05
23:28:26.064,-0.24,0.06
23:28:26.068,-0.245,0.07
23:28:26.072,-0.225,0.065
23:28:26.076,-0.21,0.035
23:28:26.080,-0.215,0.035
23:28:26.084,-0.215,0.035
23:28:26.088,-0.21,0.065
23:28:26.092,-0.22,0.04
23:28:26.096,-0.19,0.05
23:28:26.100,-0.14,0.065
23:28:26.104,-0.115,0.07
23:28:26.108,-0.055,0.06
23:28:26.112,-0.03,0.075
23:28:26.116,-0.03,0.12
23:28:26.120,0.005,0.085
23:28:26.124,0.005,0.095
23:28:26.128,0.015,0.095
23:28:26.132,0.015,0.05
23:28:26.136,0.015,0.03
23:28:26.140,-0.02,0.025
23:28:26.144,-0.05,-0.005
23:28:26.148,-0.1,0.0
23:28:26.152,-0.17,-0.005
23:28:26.156,-0.21,0.0
23:28:26.160,-0.265,0.005
23:28:26.164,-0.3,0.015
23:28:26.168,-0.34,0.055
23:28:26.172,-0.35,0.045
23:28:26.176,-0.385,0.035
23:28:26.180,-0.36,0.025
23:28:26.184,-0.365,0.015
23:28:26.188,-0.365,0.01
23:28:26.192,-0.37,0.005
23:28:26.196,-0.39,0.0
23:28:26.200,-0.37,0.0
23:28:26.204,-0.375,-0.005
23:28:26.208,-0.37,-0.02
23:28:26.212,-0.35,-0.015
23:28:26.216,-0.35,0.0
23:28:26.220,-0.365,-0.02
23:28:26.224,-0.36,-0.025
23:28:26.228,-0.365,-0.005
23:28:26.232,-0.38,-0.015
23:28:26.236,-0.355,-0.02
23:28:26.240,-0.36,-0.01
23:28:26.244,-0.36,0.0
23:28:26.248,-0.32,-0.03
23:28:26.252,-0.32,-0.01
23:28:26.256,-0.31,-0.005
23:28:26.260,-0.3,-0.02
23:28:26.264,-0.315,-0.005
23:28:26.268,-0.32,-0.01
23:28:26.272,-0.295,-0.03
23:28:26.276,-0.275,-0.045
23:28:26.280,-0.235,-0.025
23:28:26.284,-0.17,-0.03
23:28:26.288,-0.095,-0.02
23:28:26.292,-0.01,-0.03
23:28:26.296,0.04,-0.06
23:28:26.300,0.075,-0.1
23:28:26.304,0.085,-0.125
23:28:26.308,0.085,-0.12
23:28:26.312,0.08,-0.11
23:28:26.316,0.005,-0.14
23:28:26.320,0.03,-0.21
23:28:26.324,0.25,-0.345
23:28:26.328,0.555,-0.55
23:28:26.332,0.905,-0.795
23:28:26.336,1.135,-1.015
23:28:26.340,1.125,-1.17
23:28:26.344,0.795,-1.055
23:28:26.348,0.32,-0.71
23:28:26.352,-0.055,-0.315
23:28:26.356,-0.255,-0.055
23:28:26.360,-0.34,0.1
23:28:26.364,-0.385,0.155
23:28:26.368,-0.39,0.17
23:28:26.372,-0.445,0.155
23:28:26.376,-0.44,0.13
23:28:26.380,-0.425,0.125
23:28:26.384,-0.45,0.105
23:28:26.388,-0.465,0.09
23:28:26.392,-0.475,0.075
23:28:26.396,-0.47,0.08
23:28:26.400,-0.485,0.06
23:28:26.404,-0.475,0.06
23:28:26.408,-0.47,0.06
23:28:26.412,-0.5,0.065
23:28:26.416,-0.52,0.05
23:28:26.420,-0.51,0.065
23:28:26.424,-0.5,0.05
23:28:26.428,-0.51,0.055
23:28:26.432,-0.515,0.055
23:28:26.436,-0.525,0.06
23:28:26.440,-0.53,0.03
23:28:26.444,-0.535,0.04
23:28:26.448,-0.545,0.05
23:28:26.452,-0.555,0.04
23:28:26.456,-0.55,0.045
23:28:26.460,-0.575,0.05
23:28:26.464,-0.57,0.04
23:28:26.468,-0.57,0.045
23:28:26.472,-0.55,0.035
23:28:26.476,-0.55,0.035
23:28:26.480,-0.545,0.055
23:28:26.484,-0.55,0.025
23:28:26.488,-0.56,0.035
23:28:26.492,-0.565,0.03
23:28:26.496,-0.55,0.035
23:28:26.500,-0.56,0.055
23:28:26.504,-0.555,0.06
23:28:26.508,-0.555,0.04
23:28:26.512,-0.535,0.075
23:28:26.516,-0.535,0.07
23:28:26.520,-0.545,0.065
23:28:26.524,-0.525,0.055
23:28:26.528,-0.535,0.045
23:28:26.532,-0.525,0.04
23:28:26.536,-0.52,0.085
23:28:26.540,-0.505,0.025
23:28:26.544,-0.485,0.03
23:28:26.548,-0.48,0.04
23:28:26.552,-0.465,0.025
23:28:26.556,-0.46,0.03
23:28:26.560,-0.46,0.035
23:28:26.564,-0.43,0.025
23:28:26.568,-0.425,0.025
23:28:26.572,-0.415,0.01
23:28:26.576,-0.395,0.015
23:28:26.580,-0.37,0.005
23:28:26.584,-0.34,0.0
23:28:26.588,-0.33,0.0
23:28:26.592,-0.325,0.0
23:28:26.596,-0.3,0.025
23:28:26.600,-0.3,0.02
23:28:26.604,-0.295,0.015
23:28:26.608,-0.28,0.02
23:28:26.612,-0.275,0.02
23:28:26.616,-0.265,0.03
23:28:26.620,-0.265,0.035
23:28:26.624,-0.275,0.055
23:28:26.628,-0.265,0.025
23:28:26.632,-0.285,0.06
23:28:26.636,-0.28,0.015
23:28:26.640,-0.28,0.04
23:28:26.644,-0.275,0.04
23:28:26.648,-0.26,0.05
23:28:26.652,-0.275,0.035
23:28:26.656,-0.255,0.065
23:28:26.660,-0.26,0.045
23:28:26.664,-0.26,0.05
23:28:26.668,-0.245,0.065
23:28:26.672,-0.255,0.05
23:28:26.676,-0.25,0.055
23:28:26.680,-0.275,0.07
23:28:26.684,-0.275,0.06
23:28:26.688,-0.25,0.07
23:28:26.692,-0.245,0.06
23:28:26.696,-0.25,0.065
23:28:26.700,-0.235,0.075
23:28:26.704,-0.235,0.06
23:28:26.708,-0.215,0.085
23:28:26.712,-0.215,0.085
23:28:26.716,-0.215,0.085
23:28:26.720,-0.18,0.085
23:28:26.724,-0.175,0.06
23:28:26.728,-0.185,0.085
23:28:26.732,-0.18,0.095
23:28:26.736,-0.145,0.095
23:28:26.740,-0.105,0.105
23:28:26.744,-0.07,0.125
23:28:26.748,-0.04,0.125
23:28:26.752,-0.03,0.135
23:28:26.756,-0.005,0.145
23:28:26.760,0.01,0.14
23:28:26.764,0.06,0.115
23:28:26.768,0.05,0.115
23:28:26.772,0.055,0.1
23:28:26.776,0.01,0.06
23:28:26.780,-0.02,0.04
23:28:26.784,-0.06,0.045
23:28:26.788,-0.1,0.025
23:28:26.792,-0.165,0.035
23:28:26.796,-0.215,0.06
23:28:26.800,-0.255,0.065
23:28:26.804,-0.315,0.07
23:28:26.808,-0.315,0.08
23:28:26.812,-0.335,0.075
23:28:26.816,-0.335,0.06
23:28:26.820,-0.335,0.055
23:28:26.824,-0.32,0.065
23:28:26.828,-0.31,0.06
23:28:26.832,-0.29,0.07
23:28:26.836,-0.3,0.05
23:28:26.840,-0.31,0.05
23:28:26.844,-0.3,0.025
23:28:26.848,-0.315,0.045
23:28:26.852,-0.32,0.045
23:28:26.856,-0.3,0.04
23:28:26.860,-0.315,0.03
23:28:26.864,-0.33,0.025
23:28:26.868,-0.325,0.02
23:28:26.872,-0.305,0.025
23:28:26.876,-0.31,0.03
23:28:26.880,-0.335,0.01
23:28:26.884,-0.33,0.005
23:28:26.888,-0.31,0.0
23:28:26.892,-0.31,0.005
23:28:26.896,-0.325,0.0
23:28:26.900,-0.315,0.01
23:28:26.904,-0.315,0.005
23:28:26.908,-0.29,0.005
23:28:26.912,-0.275,0.005
23:28:26.916,-0.24,0.005
23:28:26.920,-0.175,0.0
23:28:26.924,-0.115,0.0
23:28:26.928,-0.025,0.0
23:28:26.932,0.04,-0.03
23:28:26.936,0.09,-0.03
23:28:26.940,0.105,-0.07
23:28:26.944,0.12,-0.07
23:28:26.948,0.12,-0.085
23:28:26.952,0.07,-0.085
23:28:26.956,0.035,-0.14
23:28:26.960,0.13,-0.225
