Time,ECG1,ECG2
23:19:29.876,-0.145,-0.005
23:19:29.880,-0.135,-0.01
23:19:29.884,-0.12,-0.005
23:19:29.888,-0.115,0.005
23:19:29.892,-0.105,0.02
23:19:29.896,-0.06,0.045
23:19:29.900,-0.03,0.045
23:19:29.904,0.005,0.055
23:19:29.908,0.035,0.05
23:19:29.912,0.07,0.06
23:19:29.916,0.095,0.07
23:19:29.920,0.1,0.065
23:19:29.924,0.095,0.095
23:19:29.928,0.05,0.05
23:19:29.932,0.0,0.015
23:19:29.936,-0.045,0.0
23:19:29.940,-0.095,-0.015
23:19:29.944,-0.135,-0.01
23:19:29.948,-0.2,-0.035
23:19:29.952,-0.27,-0.01
23:19:29.956,-0.29,-0.005
23:19:29.960,-0.34,0.005
23:19:29.964,-0.345,0.0
23:19:29.968,-0.36,0.03
23:19:29.972,-0.36,0.02
23:19:29.976,-0.335,0.0
23:19:29.980,-0.32,-0.02
23:19:29.984,-0.34,-0.015
23:19:29.988,-0.315,0.015
23:19:29.992,-0.31,-0.005
23:19:29.996,-0.3,0.005
23:19:30.000,-0.31,0.0
23:19:30.004,-0.3,0.0
23:19:30.008,-0.305,0.0
23:19:30.012,-0.305,0.0
23:19:30.016,-0.3,-0.005
23:19:30.020,-0.305,0.0
23:19:30.024,-0.31,0.005
23:19:30.028,-0.295,-0.01
23:19:30.032,-0.29,-0.025
23:19:30.036,-0.315,-0.015
23:19:30.040,-0.335,-0.02
23:19:30.044,-0.335,-0.025
23:19:30.048,-0.335,-0.02
23:19:30.052,-0.315,-0.03
23:19:30.056,-0.32,-0.035
23:19:30.060,-0.315,-0.03
23:19:30.064,-0.295,-0.045
23:19:30.068,-0.285,-0.035
23:19:30.072,-0.25,-0.025
23:19:30.076,-0.185,-0.04
23:19:30.080,-0.095,-0.05
23:19:30.084,-0.015,-0.05
23:19:30.088,0.045,-0.085
23:19:30.092,0.105,-0.09
23:19:30.096,0.115,-0.12
23:19:30.100,0.145,-0.145
23:19:30.104,0.155,-0.135
23:19:30.108,0.115,-0.16
23:19:30.112,0.11,-0.22
23:19:30.116,0.27,-0.36
23:19:30.120,0.56,-0.525
23:19:30.124,0.88,-0.755
23:19:30.128,1.135,-1.04
23:19:30.132,1.18,-1.175
23:19:30.136,0.93,-1.165
23:19:30.140,0.46,-0.84
23:19:30.144,0.02,-0.465
23:19:30.148,-0.2,-0.145
23:19:30.152,-0.315,0.03
23:19:30.156,-0.385,0.11
23:19:30.160,-0.395,0.13
23:19:30.164,-0.41,0.15
23:19:30.168,-0.44,0.135
23:19:30.172,-0.455,0.14
23:19:30.176,-0.46,0.13
23:19:30.180,-0.47,0.105
23:19:30.184,-0.475,0.07
23:19:30.188,-0.465,0.065
23:19:30.192,-0.46,0.065
23:19:30.196,-0.47,0.075
23:19:30.200,-0.48,0.085
23:19:30.204,-0.485,0.07
23:19:30.208,-0.455,0.075
23:19:30.212,-0.445,0.045
23:19:30.216,-0.45,0.08
23:19:30.220,-0.46,0.08
23:19:30.224,-0.46,0.095
23:19:30.228,-0.45,0.085
23:19:30.232,-0.455,0.07
23:19:30.236,-0.47,0.08
23:19:30.240,-0.465,0.07
23:19:30.244,-0.495,0.07
23:19:30.248,-0.47,0.075
23:19:30.252,-0.5,0.075
23:19:30.256,-0.475,0.06
23:19:30.260,-0.51,0.095
23:19:30.264,-0.505,0.075
23:19:30.268,-0.5,0.085
23:19:30.272,-0.5,0.1
23:19:30.276,-0.475,0.07
23:19:30.280,-0.495,0.065
23:19:30.284,-0.505,0.08
23:19:30.288,-0.485,0.06
23:19:30.292,-0.485,0.065
23:19:30.296,-0.48,0.045
23:19:30.300,-0.47,0.035
23:19:30.304,-0.48,0.065
23:19:30.308,-0.46,0.055
23:19:30.312,-0.46,0.055
23:19:30.316,-0.45,0.055
23:19:30.320,-0.42,0.035
23:19:30.324,-0.4,0.065
23:19:30.328,-0.405,0.065
23:19:30.332,-0.395,0.05
23:19:30.336,-0.375,0.045
23:19:30.340,-0.345,0.06
23:19:30.344,-0.35,0.04
23:19:30.348,-0.355,0.04
23:19:30.352,-0.35,0.05
23:19:30.356,-0.335,0.035
23:19:30.360,-0.325,0.025
23:19:30.364,-0.32,0.025
23:19:30.368,-0.315,0.02
23:19:30.372,-0.31,0.005
23:19:30.376,-0.3,0.0
23:19:30.380,-0.295,0.01
23:19:30.384,-0.27,-0.005
23:19:30.388,-0.265,0.0
23:19:30.392,-0.24,0.0
23:19:30.396,-0.26,0.005
23:19:30.400,-0.24,-0.02
23:19:30.404,-0.235,-0.01
23:19:30.408,-0.215,0.005
23:19:30.412,-0.21,0.0
23:19:30.416,-0.205,0.005
23:19:30.420,-0.215,0.01
23:19:30.424,-0.18,0.015
23:19:30.428,-0.17,0.015
23:19:30.432,-0.155,0.02
23:19:30.436,-0.17,0.055
23:19:30.440,-0.175,0.035
23:19:30.444,-0.16,0.07
23:19:30.448,-0.155,0.05
23:19:30.452,-0.16,0.055
23:19:30.456,-0.155,0.075
23:19:30.460,-0.115,0.07
23:19:30.464,-0.105,0.055
23:19:30.468,-0.115,0.07
23:19:30.472,-0.125,0.08
23:19:30.476,-0.105,0.085
23:19:30.480,-0.08,0.08
23:19:30.484,-0.01,0.1
23:19:30.488,0.025,0.11
23:19:30.492,0.04,0.105
23:19:30.496,0.07,0.105
23:19:30.500,0.095,0.12
23:19:30.504,0.12,0.11
23:19:30.508,0.135,0.125
23:19:30.512,0.11,0.1
23:19:30.516,0.1,0.1
23:19:30.520,0.04,0.085
23:19:30.524,-0.005,0.055
23:19:30.528,-0.045,0.025
23:19:30.532,-0.095,0.04
23:19:30.536,-0.16,0.025
23:19:30.540,-0.185,0.045
23:19:30.544,-0.235,0.055
23:19:30.548,-0.27,0.065
23:19:30.552,-0.26,0.06
23:19:30.556,-0.28,0.075
23:19:30.560,-0.27,0.055
23:19:30.564,-0.275,0.035
23:19:30.568,-0.26,0.035
23:19:30.572,-0.255,0.05
23:19:30.576,-0.265,0.04
23:19:30.580,-0.255,0.015
23:19:30.584,-0.255,0.015
23:19:30.588,-0.275,0.03
23:19:30.592,-0.28,0.02
23:19:30.596,-0.27,0.015
23:19:30.600,-0.28,0.02
23:19:30.604,-0.285,0.02
23:19:30.608,-0.285,0.01
23:19:30.612,-0.28,0.005
23:19:30.616,-0.27,-0.005
23:19:30.620,-0.29,0.0
23:19:30.624,-0.28,0.005
23:19:30.628,-0.28,0.01
23:19:30.632,-0.27,-0.015
23:19:30.636,-0.265,0.0
23:19:30.640,-0.27,0.0
23:19:30.644,-0.25,0.0
23:19:30.648,-0.265,-0.01
23:19:30.652,-0.22,0.005
23:19:30.656,-0.205,0.005
23:19:30.660,-0.165,0.0
23:19:30.664,-0.105,0.0
23:19:30.668,-0.025,0.0
23:19:30.672,0.055,0.0
23:19:30.676,0.105,0.0
23:19:30.680,0.15,-0.045
23:19:30.684,0.16,-0.1
23:19:30.688,0.155,-0.1
23:19:30.692,0.12,-0.095
23:19:30.696,0.09,-0.165
23:19:30.700,0.17,-0.25
23:19:30.704,0.395,-0.4
23:19:30.708,0.7,-0.6
23:19:30.712,1.035,-0.9
23:19:30.716,1.19,-1.115
23:19:30.720,1.07,-1.18
23:19:30.724,0.675,-1.0
23:19:30.728,0.22,-0.625
23:19:30.732,-0.075,-0.24
23:19:30.736,-0.225,-0.02
23:19:30.740,-0.305,0.095
23:19:30.744,-0.34,0.135
23:19:30.748,-0.385,0.16
23:19:30.752,-0.395,0.15
23:19:30.756,-0.41,0.115
23:19:30.760,-0.4,0.14
23:19:30.764,-0.39,0.1
23:19:30.768,-0.415,0.1
23:19:30.772,-0.42,0.085
23:19:30.776,-0.425,0.065
23:19:30.780,-0.425,0.085
23:19:30.784,-0.435,0.065
23:19:30.788,-0.46,0.07
23:19:30.792,-0.445,0.06
23:19:30.796,-0.455,0.07
23:19:30.800,-0.445,0.05
23:19:30.804,-0.465,0.05
23:19:30.808,-0.48,0.055
23:19:30.812,-0.495,0.045
23:19:30.816,-0.49,0.035
23:19:30.820,-0.47,0.05
23:19:30.824,-0.495,0.06
23:19:30.828,-0.48,0.045
23:19:30.832,-0.495,0.03
23:19:30.836,-0.51,0.045
23:19:30.840,-0.47,0.055
23:19:30.844,-0.5,0.035
23:19:30.848,-0.49,0.025
23:19:30.852,-0.495,0.035
23:19:30.856,-0.49,0.035
23:19:30.860,-0.5,0.025
23:19:30.864,-0.48,0.045
23:19:30.868,-0.485,0.035
23:19:30.872,-0.465,0.045
23:19:30.876,-0.445,0.035
23:19:30.880,-0.45,0.045
23:19:30.884,-0.445,0.02
23:19:30.888,-0.44,0.035
23:19:30.892,-0.435,0.04
23:19:30.896,-0.425,0.02
23:19:30.900,-0.405,0.035
23:19:30.904,-0.435,0.04
23:19:30.908,-0.425,0.025
23:19:30.912,-0.425,0.025
23:19:30.916,-0.39,0.015
23:19:30.920,-0.42,0.015
23:19:30.924,-0.4,-0.005
23:19:30.928,-0.395,-0.015
23:19:30.932,-0.375,0.015
23:19:30.936,-0.365,-0.035
23:19:30.940,-0.35,-0.04
23:19:30.944,-0.33,-0.04
23:19:30.948,-0.35,-0.05
23:19:30.952,-0.33,-0.055
23:19:30.956,-0.335,-0.06
23:19:30.960,-0.335,-0.05
23:19:30.964,-0.305,-0.045
23:19:30.968,-0.285,-0.055
23:19:30.972,-0.275,-0.045
23:19:30.976,-0.25,-0.075
23:19:30.980,-0.24,-0.04
23:19:30.984,-0.225,-0.04
23:19:30.988,-0.23,-0.035
23:19:30.992,-0.205,-0.05
23:19:30.996,-0.215,-0.04
23:19:31.000,-0.2,-0.035
23:19:31.004,-0.19,-0.01
23:19:31.008,-0.19,-0.03
23:19:31.012,-0.195,-0.04
23:19:31.016,-0.205,-0.035
23:19:31.020,-0.195,-0.03
23:19:31.024,-0.195,-0.035
23:19:31.028,-0.195,-0.035
23:19:31.032,-0.195,-0.045
23:19:31.036,-0.145,-0.045
23:19:31.040,-0.15,-0.035
23:19:31.044,-0.15,-0.03
23:19:31.048,-0.16,-0.035
23:19:31.052,-0.14,-0.025
23:19:31.056,-0.09,-0.025
23:19:31.060,-0.055,-0.015
23:19:31.064,-0.025,-0.005
23:19:31.068,0.015,-0.005
23:19:31.072,0.06,0.005
23:19:31.076,0.085,0.0
23:19:31.080,0.115,0.005
23:19:31.084,0.115,0.015
23:19:31.088,0.105,0.01
23:19:31.092,0.07,-0.01
23:19:31.096,0.025,-0.025
23:19:31.100,-0.015,-0.06
23:19:31.104,-0.065,-0.07
23:19:31.108,-0.12,-0.105
23:19:31.112,-0.17,-0.08
23:19:31.116,-0.225,-0.065
23:19:31.120,-0.275,-0.065
23:19:31.124,-0.295,-0.06
23:19:31.128,-0.29,-0.07
23:19:31.132,-0.28,-0.09
23:19:31.136,-0.31,-0.08
23:19:31.140,-0.315,-0.085
23:19:31.144,-0.285,-0.105
23:19:31.148,-0.295,-0.11
23:19:31.152,-0.27,-0.12
23:19:31.156,-0.265,-0.14
23:19:31.160,-0.255,-0.14
23:19:31.164,-0.265,-0.145
23:19:31.168,-0.28,-0.125
23:19:31.172,-0.26,-0.135
23:19:31.176,-0.285,-0.16
23:19:31.180,-0.265,-0.145
23:19:31.184,-0.28,-0.145
23:19:31.188,-0.275,-0.145
23:19:31.192,-0.26,-0.14
23:19:31.196,-0.25,-0.15
23:19:31.200,-0.22,-0.14
23:19:31.204,-0.225,-0.155
23:19:31.208,-0.23,-0.145
23:19:31.212,-0.24,-0.145
23:19:31.216,-0.25,-0.15
23:19:31.220,-0.255,-0.145
23:19:31.224,-0.245,-0.155
23:19:31.228,-0.255,-0.155
23:19:31.232,-0.23,-0.155
23:19:31.236,-0.195,-0.165
23:19:31.240,-0.1,-0.165
23:19:31.244,-0.045,-0.17
23:19:31.248,0.05,-0.195
23:19:31.252,0.15,-0.195
23:19:31.256,0.225,-0.235
23:19:31.260,0.255,-0.265
23:19:31.264,0.3,-0.29
23:19:31.268,0.29,-0.245
23:19:31.272,0.26,-0.27
23:19:31.276,0.235,-0.315
23:19:31.280,0.345,-0.375
23:19:31.284,0.605,-0.55
23:19:31.288,0.92,-0.81
23:19:31.292,1.19,-1.045
23:19:31.296,1.24,-1.235
23:19:31.300,1.035,-1.235
23:19:31.304,0.6,-0.985
23:19:31.308,0.2,-0.635
23:19:31.312,-0.03,-0.345
23:19:31.316,-0.115,-0.18
23:19:31.320,-0.175,-0.08
23:19:31.324,-0.19,-0.025
23:19:31.328,-0.22,0.0
23:19:31.332,-0.255,-0.025
23:19:31.336,-0.3,-0.025
23:19:31.340,-0.285,-0.065
23:19:31.344,-0.33,-0.065
23:19:31.348,-0.325,-0.11
23:19:31.352,-0.34,-0.125
23:19:31.356,-0.355,-0.14
23:19:31.360,-0.36,-0.13
23:19:31.364,-0.36,-0.155
23:19:31.368,-0.375,-0.145
23:19:31.372,-0.36,-0.125
23:19:31.376,-0.355,-0.15
23:19:31.380,-0.345,-0.155
23:19:31.384,-0.335,-0.16
23:19:31.388,-0.335,-0.145
23:19:31.392,-0.345,-0.175
23:19:31.396,-0.355,-0.155
23:19:31.400,-0.385,-0.16
23:19:31.404,-0.385,-0.16
23:19:31.408,-0.37,-0.16
23:19:31.412,-0.375,-0.155
23:19:31.416,-0.39,-0.165
23:19:31.420,-0.37,-0.17
23:19:31.424,-0.365,-0.15
23:19:31.428,-0.375,-0.175
23:19:31.432,-0.355,-0.17
23:19:31.436,-0.36,-0.15
23:19:31.440,-0.37,-0.15
23:19:31.444,-0.365,-0.185
23:19:31.448,-0.37,-0.165
23:19:31.452,-0.355,-0.15
23:19:31.456,-0.37,-0.155
23:19:31.460,-0.36,-0.15
23:19:31.464,-0.365,-0.175
23:19:31.468,-0.365,-0.18
23:19:31.472,-0.34,-0.15
23:19:31.476,-0.33,-0.175
23:19:31.480,-0.345,-0.16
23:19:31.484,-0.335,-0.17
23:19:31.488,-0.34,-0.18
23:19:31.492,-0.31,-0.18
23:19:31.496,-0.315,-0.2
23:19:31.500,-0.315,-0.205
23:19:31.504,-0.29,-0.21
23:19:31.508,-0.27,-0.21
23:19:31.512,-0.27,-0.21
23:19:31.516,-0.25,-0.225
23:19:31.520,-0.24,-0.2
23:19:31.524,-0.225,-0.225
23:19:31.528,-0.215,-0.23
23:19:31.532,-0.2,-0.215
23:19:31.536,-0.18,-0.22
23:19:31.540,-0.16,-0.22
23:19:31.544,-0.15,-0.23
23:19:31.548,-0.16,-0.22
23:19:31.552,-0.15,-0.225
23:19:31.556,-0.13,-0.22
23:19:31.560,-0.135,-0.21
23:19:31.564,-0.135,-0.23
23:19:31.568,-0.135,-0.22
23:19:31.572,-0.13,-0.22
23:19:31.576,-0.12,-0.18
23:19:31.580,-0.135,-0.2
23:19:31.584,-0.13,-0.2
23:19:31.588,-0.11,-0.19
23:19:31.592,-0.105,-0.205
23:19:31.596,-0.105,-0.195
23:19:31.600,-0.105,-0.185
23:19:31.604,-0.1,-0.185
23:19:31.608,-0.115,-0.2
23:19:31.612,-0.135,-0.195
23:19:31.616,-0.105,-0.19
23:19:31.620,-0.12,-0.175
23:19:31.624,-0.13,-0.185
23:19:31.628,-0.125,-0.185
23:19:31.632,-0.13,-0.185
23:19:31.636,-0.1,-0.16
23:19:31.640,-0.075,-0.195
23:19:31.644,-0.065,-0.17
23:19:31.648,-0.075,-0.15
23:19:31.652,-0.06,-0.16
23:19:31.656,-0.055,-0.15
23:19:31.660,-0.01,-0.155
23:19:31.664,0.035,-0.15
23:19:31.668,0.07,-0.105
23:19:31.672,0.095,-0.075
23:19:31.676,0.12,-0.09
23:19:31.680,0.15,-0.095
23:19:31.684,0.15,-0.075
23:19:31.688,0.155,-0.06
23:19:31.692,0.14,-0.075
23:19:31.696,0.11,-0.11
23:19:31.700,0.055,-0.15
23:19:31.704,0.02,-0.175
23:19:31.708,-0.03,-0.17
23:19:31.712,-0.09,-0.185
23:19:31.716,-0.15,-0.175
23:19:31.720,-0.21,-0.165
23:19:31.724,-0.25,-0.155
23:19:31.728,-0.265,-0.13
23:19:31.732,-0.29,-0.16
23:19:31.736,-0.27,-0.16
23:19:31.740,-0.26,-0.13
23:19:31.744,-0.265,-0.17
23:19:31.748,-0.26,-0.17
23:19:31.752,-0.25,-0.16
23:19:31.756,-0.215,-0.14
23:19:31.760,-0.215,-0.155
23:19:31.764,-0.24,-0.13
23:19:31.768,-0.23,-0.13
23:19:31.772,-0.22,-0.145
23:19:31.776,-0.22,-0.135
23:19:31.780,-0.21,-0.17
23:19:31.784,-0.215,-0.155
23:19:31.788,-0.22,-0.125
23:19:31.792,-0.215,-0.14
23:19:31.796,-0.23,-0.14
23:19:31.800,-0.215,-0.14
23:19:31.804,-0.235,-0.155
23:19:31.808,-0.24,-0.125
23:19:31.812,-0.245,-0.14
23:19:31.816,-0.24,-0.16
23:19:31.820,-0.25,-0.155
23:19:31.824,-0.245,-0.18
23:19:31.828,-0.23,-0.155
23:19:31.832,-0.24,-0.165
23:19:31.836,-0.2,-0.155
23:19:31.840,-0.16,-0.145
23:19:31.844,-0.115,-0.15
23:19:31.848,-0.03,-0.16
23:19:31.852,0.075,-0.15
23:19:31.856,0.145,-0.145
23:19:31.860,0.19,-0.2
23:19:31.864,0.25,-0.225
23:19:31.868,0.255,-0.215
23:19:31.872,0.245,-0.21
23:19:31.876,0.22,-0.23
23:19:31.880,0.21,-0.32
23:19:31.884,0.35,-0.39
23:19:31.888,0.635,-0.56
23:19:31.892,0.94,-0.84
23:19:31.896,1.2,-1.085
23:19:31.900,1.275,-1.24
23:19:31.904,1.07,-1.235
23:19:31.908,0.64,-0.985
23:19:31.912,0.195,-0.595
23:19:31.916,-0.07,-0.29
23:19:31.920,-0.2,-0.1
23:19:31.924,-0.28,0.005
23:19:31.928,-0.32,0.06
23:19:31.932,-0.34,0.055
23:19:31.936,-0.375,0.055
23:19:31.940,-0.365,0.04
23:19:31.944,-0.37,0.035
23:19:31.948,-0.39,0.02
23:19:31.952,-0.41,0.005
23:19:31.956,-0.415,0.0
23:19:31.960,-0.435,0.0
23:19:31.964,-0.43,-0.005
23:19:31.968,-0.42,-0.01
23:19:31.972,-0.43,0.0
23:19:31.976,-0.42,0.0
23:19:31.980,-0.415,-0.005
23:19:31.984,-0.4,-0.005
23:19:31.988,-0.415,0.015
23:19:31.992,-0.415,0.02
23:19:31.996,-0.4,0.005
23:19:32.000,-0.415,-0.01
23:19:32.004,-0.425,0.005
23:19:32.008,-0.425,0.005
23:19:32.012,-0.415,-0.005
23:19:32.016,-0.45,0.005
23:19:32.020,-0.44,0.015
23:19:32.024,-0.455,0.0
23:19:32.028,-0.465,0.01
23:19:32.032,-0.455,0.0
23:19:32.036,-0.485,0.01
23:19:32.040,-0.48,0.005
23:19:32.044,-0.485,0.01
23:19:32.048,-0.48,0.0
23:19:32.052,-0.49,-0.015
23:19:32.056,-0.485,-0.03
23:19:32.060,-0.485,0.0
23:19:32.064,-0.475,-0.005
23:19:32.068,-0.48,-0.02
23:19:32.072,-0.475,-0.02
23:19:32.076,-0.46,-0.015
23:19:32.080,-0.445,-0.03
23:19:32.084,-0.445,-0.015
23:19:32.088,-0.445,-0.01
23:19:32.092,-0.425,0.0
23:19:32.096,-0.425,0.0
23:19:32.100,-0.41,0.0
23:19:32.104,-0.39,0.0
23:19:32.108,-0.39,0.0
23:19:32.112,-0.37,-0.01
23:19:32.116,-0.36,-0.035
23:19:32.120,-0.365,-0.03
23:19:32.124,-0.345,-0.025
23:19:32.128,-0.32,-0.04
23:19:32.132,-0.335,-0.035
23:19:32.136,-0.315,-0.045
23:19:32.140,-0.3,-0.03
23:19:32.144,-0.305,-0.05
23:19:32.148,-0.295,-0.05
23:19:32.152,-0.295,-0.05
23:19:32.156,-0.295,-0.055
23:19:32.160,-0.27,-0.06
23:19:32.164,-0.25,-0.04
23:19:32.168,-0.23,-0.025
23:19:32.172,-0.25,-0.045
23:19:32.176,-0.22,-0.055
23:19:32.180,-0.24,-0.06
23:19:32.184,-0.23,-0.045
23:19:32.188,-0.22,-0.045
23:19:32.192,-0.215,-0.025
23:19:32.196,-0.22,-0.03
23:19:32.200,-0.22,-0.03
23:19:32.204,-0.2,0.005
23:19:32.208,-0.195,0.005
23:19:32.212,-0.175,-0.005
23:19:32.216,-0.18,-0.005
23:19:32.220,-0.17,0.01
23:19:32.224,-0.165,0.03
23:19:32.228,-0.125,0.035
23:19:32.232,-0.125,0.015
23:19:32.236,-0.13,0.015
23:19:32.240,-0.13,0.035
23:19:32.244,-0.09,0.04
23:19:32.248,-0.08,0.07
23:19:32.252,-0.05,0.08
23:19:32.256,-0.005,0.08
23:19:32.260,0.04,0.07
23:19:32.264,0.055,0.1
23:19:32.268,0.06,0.095
23:19:32.272,0.09,0.095
23:19:32.276,0.085,0.095
23:19:32.280,0.095,0.115
23:19:32.284,0.1,0.115
23:19:32.288,0.07,0.07
23:19:32.292,0.02,0.04
23:19:32.296,-0.03,0.035
23:19:32.300,-0.08,0.02
23:19:32.304,-0.13,0.01
23:19:32.308,-0.18,0.02
23:19:32.312,-0.245,0.025
23:19:32.316,-0.28,0.04
23:19:32.320,-0.275,0.07
23:19:32.324,-0.29,0.065
23:19:32.328,-0.3,0.06
23:19:32.332,-0.28,0.045
23:19:32.336,-0.265,0.015
23:19:32.340,-0.27,0.05
23:19:32.344,-0.245,0.035
23:19:32.348,-0.25,0.03
23:19:32.352,-0.23,0.035
23:19:32.356,-0.24,0.035
23:19:32.360,-0.235,0.02
23:19:32.364,-0.26,0.015
23:19:32.368,-0.265,0.01
23:19:32.372,-0.27,0.015
23:19:32.376,-0.275,-0.005
23:19:32.380,-0.255,0.0
23:19:32.384,-0.26,0.0
23:19:32.388,-0.255,-0.02
23:19:32.392,-0.24,-0.03
23:19:32.396,-0.24,0.005
23:19:32.400,-0.255,-0.03
23:19:32.404,-0.265,-0.025
23:19:32.408,-0.27,-0.025
23:19:32.412,-0.255,-0.01
23:19:32.416,-0.27,-0.015
23:19:32.420,-0.265,-0.03
23:19:32.424,-0.24,-0.02
23:19:32.428,-0.21,-0.035
23:19:32.432,-0.185,-0.04
23:19:32.436,-0.09,-0.05
23:19:32.440,-0.005,-0.045
23:19:32.444,0.07,-0.045
23:19:32.448,0.12,-0.05
23:19:32.452,0.16,-0.08
23:19:32.456,0.18,-0.12
23:19:32.460,0.17,-0.115
23:19:32.464,0.15,-0.115
23:19:32.468,0.105,-0.155
23:19:32.472,0.155,-0.215
23:19:32.476,0.295,-0.335
23:19:32.480,0.665,-0.545
23:19:32.484,0.92,-0.77
23:19:32.488,1.145,-1.025
23:19:32.492,1.16,-1.16
23:19:32.496,0.89,-1.12
23:19:32.500,0.435,-0.795
23:19:32.504,0.035,-0.415
23:19:32.508,-0.18,-0.135
23:19:32.512,-0.26,0.03
23:19:32.516,-0.315,0.12
23:19:32.520,-0.345,0.14
23:19:32.524,-0.365,0.135
23:19:32.528,-0.4,0.14
23:19:32.532,-0.405,0.13
23:19:32.536,-0.41,0.14
23:19:32.540,-0.42,0.09
23:19:32.544,-0.425,0.08
23:19:32.548,-0.415,0.07
23:19:32.552,-0.41,0.07
23:19:32.556,-0.405,0.06
23:19:32.560,-0.4,0.06
23:19:32.564,-0.42,0.07
23:19:32.568,-0.425,0.06
23:19:32.572,-0.415,0.06
23:19:32.576,-0.42,0.07
23:19:32.580,-0.43,0.085
23:19:32.584,-0.43,0.08
23:19:32.588,-0.44,0.05
23:19:32.592,-0.46,0.06
23:19:32.596,-0.455,0.06
23:19:32.600,-0.495,0.055
23:19:32.604,-0.46,0.06
23:19:32.608,-0.475,0.05
23:19:32.612,-0.475,0.06
23:19:32.616,-0.485,0.04
23:19:32.620,-0.5,0.06
23:19:32.624,-0.47,0.045
23:19:32.628,-0.51,0.05
23:19:32.632,-0.495,0.04
23:19:32.636,-0.505,0.035
23:19:32.640,-0.52,0.045
23:19:32.644,-0.51,0.04
23:19:32.648,-0.49,0.05
23:19:32.652,-0.48,0.04
23:19:32.656,-0.475,0.04
23:19:32.660,-0.47,0.045
23:19:32.664,-0.465,0.04
23:19:32.668,-0.47,0.035
23:19:32.672,-0.46,0.03
23:19:32.676,-0.44,0.03
23:19:32.680,-0.43,0.035
23:19:32.684,-0.435,0.015
23:19:32.688,-0.42,0.02
23:19:32.692,-0.415,0.03
23:19:32.696,-0.41,0.02
23:19:32.700,-0.41,0.01
23:19:32.704,-0.42,0.005
23:19:32.708,-0.39,0.0
23:19:32.712,-0.39,-0.015
23:19:32.716,-0.4,-0.01
23:19:32.720,-0.38,-0.02
23:19:32.724,-0.355,-0.03
23:19:32.728,-0.36,-0.015
23:19:32.732,-0.36,-0.04
23:19:32.736,-0.335,-0.065
23:19:32.740,-0.31,-0.05
23:19:32.744,-0.32,-0.045
23:19:32.748,-0.285,-0.05
23:19:32.752,-0.28,-0.06
23:19:32.756,-0.275,-0.06
23:19:32.760,-0.27,-0.035
23:19:32.764,-0.245,-0.05
23:19:32.768,-0.235,-0.035
23:19:32.772,-0.23,-0.015
23:19:32.776,-0.21,-0.03
23:19:32.780,-0.235,-0.01
23:19:32.784,-0.2,-0.03
23:19:32.788,-0.21,-0.01
23:19:32.792,-0.21,0.0
23:19:32.796,-0.2,-0.01
23:19:32.800,-0.225,0.025
23:19:32.804,-0.23,-0.01
23:19:32.808,-0.2,0.015
23:19:32.812,-0.215,0.01
23:19:32.816,-0.195,0.0
23:19:32.820,-0.19,-0.01
23:19:32.824,-0.185,0.02
23:19:32.828,-0.165,0.005
23:19:32.832,-0.16,0.0
23:19:32.836,-0.125,0.02
23:19:32.840,-0.07,0.02
23:19:32.844,-0.03,0.005
23:19:32.848,-0.01,0.05
23:19:32.852,0.0,0.045
23:19:32.856,0.03,0.065
23:19:32.860,0.045,0.05
23:19:32.864,0.06,0.04
23:19:32.868,0.06,0.06
23:19:32.872,0.04,0.05
23:19:32.876,0.01,0.015
23:19:32.880,-0.015,0.0
23:19:32.884,-0.045,-0.01
23:19:32.888,-0.105,-0.005
23:19:32.892,-0.17,-0.015
23:19:32.896,-0.23,0.005
23:19:32.900,-0.25,0.015
23:19:32.904,-0.285,0.025
23:19:32.908,-0.315,0.005
23:19:32.912,-0.32,0.03
23:19:32.916,-0.315,0.005
23:19:32.920,-0.305,-0.005
23:19:32.924,-0.32,0.0
23:19:32.928,-0.295,-0.005
23:19:32.932,-0.31,-0.02
23:19:32.936,-0.325,-0.01
23:19:32.940,-0.32,-0.01
23:19:32.944,-0.32,-0.01
23:19:32.948,-0.3,-0.015
23:19:32.952,-0.31,-0.035
23:19:32.956,-0.305,-0.035
23:19:32.960,-0.305,-0.015
23:19:32.964,-0.32,-0.025
23:19:32.968,-0.305,-0.01
23:19:32.972,-0.315,-0.035
23:19:32.976,-0.315,-0.045
23:19:32.980,-0.315,-0.025
23:19:32.984,-0.32,-0.04
23:19:32.988,-0.32,-0.03
23:19:32.992,-0.31,-0.03
23:19:32.996,-0.295,-0.02
23:19:33.000,-0.295,-0.02
23:19:33.004,-0.3,-0.04
23:19:33.008,-0.3,-0.035
23:19:33.012,-0.29,-0.025
23:19:33.016,-0.265,-0.025
23:19:33.020,-0.205,-0.035
23:19:33.024,-0.14,-0.025
23:19:33.028,-0.06,-0.025
23:19:33.032,0.025,-0.05
23:19:33.036,0.08,-0.08
23:19:33.040,0.085,-0.105
23:19:33.044,0.095,-0.16
23:19:33.048,0.105,-0.145
23:19:33.052,0.08,-0.14
23:19:33.056,0.03,-0.2
23:19:33.060,0.13,-0.29
23:19:33.064,0.375,-0.46
23:19:33.068,0.715,-0.69
23:19:33.072,1.005,-0.965
23:19:33.076,1.165,-1.15
23:19:33.080,1.045,-1.195
23:19:33.084,0.66,-1.005
23:19:33.088,0.17,-0.625
23:19:33.092,-0.13,-0.25
23:19:33.096,-0.27,-0.035
23:19:33.100,-0.355,0.08
23:19:33.104,-0.375,0.13
23:19:33.108,-0.375,0.145
23:19:33.112,-0.415,0.125
23:19:33.116,-0.435,0.125
23:19:33.120,-0.445,0.105
23:19:33.124,-0.46,0.105
23:19:33.128,-0.465,0.06
23:19:33.132,-0.465,0.055
23:19:33.136,-0.455,0.04
23:19:33.140,-0.475,0.03
23:19:33.144,-0.485,0.04
23:19:33.148,-0.475,0.035
23:19:33.152,-0.475,0.025
23:19:33.156,-0.48,0.025
23:19:33.160,-0.485,0.035
23:19:33.164,-0.495,0.035
23:19:33.168,-0.485,0.025
23:19:33.172,-0.495,0.015
23:19:33.176,-0.515,0.005
23:19:33.180,-0.525,0.025
23:19:33.184,-0.525,0.025
23:19:33.188,-0.525,0.01
23:19:33.192,-0.525,0.02
23:19:33.196,-0.525,0.015
23:19:33.200,-0.535,0.03
23:19:33.204,-0.535,0.03
23:19:33.208,-0.55,0.035
23:19:33.212,-0.51,0.025
23:19:33.216,-0.535,0.01
23:19:33.220,-0.505,0.03
23:19:33.224,-0.525,0.02
23:19:33.228,-0.51,0.01
23:19:33.232,-0.52,0.05
23:19:33.236,-0.525,0.03
23:19:33.240,-0.51,0.025
23:19:33.244,-0.505,0.055
23:19:33.248,-0.475,0.05
23:19:33.252,-0.48,0.02
23:19:33.256,-0.46,0.025
23:19:33.260,-0.47,0.01
23:19:33.264,-0.48,0.015
23:19:33.268,-0.475,0.01
23:19:33.272,-0.475,0.01
23:19:33.276,-0.455,0.01
23:19:33.280,-0.445,0.03
23:19:33.284,-0.425,0.005
23:19:33.288,-0.415,0.01
23:19:33.292,-0.4,-0.01
23:19:33.296,-0.39,-0.04
23:19:33.300,-0.385,-0.03
23:19:33.304,-0.405,-0.03
23:19:33.308,-0.385,0.0
23:19:33.312,-0.36,0.0
23:19:33.316,-0.34,-0.015
23:19:33.320,-0.33,-0.035
23:19:33.324,-0.295,-0.01
23:19:33.328,-0.285,-0.03
23:19:33.332,-0.275,-0.04
23:19:33.336,-0.265,0.0
23:19:33.340,-0.255,-0.01
23:19:33.344,-0.245,-0.005
23:19:33.348,-0.235,0.015
23:19:33.352,-0.24,0.015
23:19:33.356,-0.225,0.015
23:19:33.360,-0.205,0.01
23:19:33.364,-0.215,-0.015
23:19:33.368,-0.205,0.0
23:19:33.372,-0.19,-0.01
23:19:33.376,-0.2,-0.005
23:19:33.380,-0.215,0.0
23:19:33.384,-0.195,-0.015
23:19:33.388,-0.205,0.005
23:19:33.392,-0.22,0.0
23:19:33.396,-0.185,0.0
23:19:33.400,-0.19,-0.005
23:19:33.404,-0.17,-0.01
23:19:33.408,-0.16,-0.01
23:19:33.412,-0.155,0.015
23:19:33.416,-0.15,0.005
23:19:33.420,-0.125,0.02
23:19:33.424,-0.075,0.025
23:19:33.428,-0.055,0.02
23:19:33.432,0.01,0.01
23:19:33.436,0.03,0.05
23:19:33.440,0.07,0.045
23:19:33.444,0.105,0.04
23:19:33.448,0.08,0.065
23:19:33.452,0.105,0.07
23:19:33.456,0.095,0.06
23:19:33.460,0.06,0.03
23:19:33.464,0.015,-0.005
23:19:33.468,-0.03,-0.01
23:19:33.472,-0.08,0.0
23:19:33.476,-0.125,-0.015
23:19:33.480,-0.2,-0.015
23:19:33.484,-0.25,-0.02
23:19:33.488,-0.28,-0.005
23:19:33.492,-0.3,-0.015
23:19:33.496,-0.33,0.0
23:19:33.500,-0.315,-0.015
23:19:33.504,-0.315,-0.02
23:19:33.508,-0.295,-0.025
23:19:33.512,-0.305,-0.055
23:19:33.516,-0.3,-0.055
23:19:33.520,-0.31,-0.07
23:19:33.524,-0.295,-0.055
23:19:33.528,-0.285,-0.05
23:19:33.532,-0.28,-0.06
23:19:33.536,-0.3,-0.06
23:19:33.540,-0.305,-0.06
23:19:33.544,-0.275,-0.05
23:19:33.548,-0.285,-0.065
23:19:33.552,-0.275,-0.065
23:19:33.556,-0.28,-0.06
23:19:33.560,-0.26,-0.08
23:19:33.564,-0.27,-0.075
23:19:33.568,-0.255,-0.07
23:19:33.572,-0.28,-0.065
23:19:33.576,-0.285,-0.08
23:19:33.580,-0.31,-0.075
23:19:33.584,-0.295,-0.075
23:19:33.588,-0.295,-0.075
23:19:33.592,-0.285,-0.085
23:19:33.596,-0.285,-0.1
23:19:33.600,-0.275,-0.085
23:19:33.604,-0.21,-0.09
23:19:33.608,-0.16,-0.105
23:19:33.612,-0.07,-0.105
23:19:33.616,0.025,-0.105
23:19:33.620,0.095,-0.16
23:19:33.624,0.14,-0.215
23:19:33.628,0.155,-0.225
23:19:33.632,0.18,-0.215
23:19:33.636,0.14,-0.2
23:19:33.640,0.105,-0.25
23:19:33.644,0.13,-0.32
23:19:33.648,0.355,-0.475
23:19:33.652,0.66,-0.67
23:19:33.656,1.01,-0.95
23:19:33.660,1.195,-1.175
23:19:33.664,1.13,-1.28
23:19:33.668,0.755,-1.13
23:19:33.672,0.31,-0.78
23:19:33.676,-0.03,-0.43
23:19:33.680,-0.17,-0.18
23:19:33.684,-0.265,-0.04
23:19:33.688,-0.31,0.0
23:19:33.692,-0.32,0.02
23:19:33.696,-0.385,0.01
23:19:33.700,-0.405,-0.005
23:19:33.704,-0.42,-0.005
23:19:33.708,-0.44,-0.03
23:19:33.712,-0.46,-0.04
23:19:33.716,-0.46,-0.075
23:19:33.720,-0.465,-0.095
23:19:33.724,-0.45,-0.105
23:19:33.728,-0.475,-0.11
23:19:33.732,-0.485,-0.1
23:19:33.736,-0.46,-0.12
23:19:33.740,-0.48,-0.115
23:19:33.744,-0.46,-0.125
23:19:33.748,-0.47,-0.12
23:19:33.752,-0.465,-0.145
23:19:33.756,-0.48,-0.155
23:19:33.760,-0.475,-0.135
23:19:33.764,-0.48,-0.15
23:19:33.768,-0.47,-0.15
23:19:33.772,-0.48,-0.135
23:19:33.776,-0.485,-0.145
23:19:33.780,-0.495,-0.16
23:19:33.784,-0.48,-0.145
23:19:33.788,-0.485,-0.145
23:19:33.792,-0.48,-0.155
23:19:33.796,-0.475,-0.17
23:19:33.800,-0.48,-0.17
23:19:33.804,-0.485,-0.175
23:19:33.808,-0.485,-0.15
23:19:33.812,-0.495,-0.145
23:19:33.816,-0.505,-0.185
23:19:33.820,-0.47,-0.18
23:19:33.824,-0.48,-0.185
23:19:33.828,-0.48,-0.19
23:19:33.832,-0.47,-0.19
23:19:33.836,-0.47,-0.2
23:19:33.840,-0.46,-0.22
23:19:33.844,-0.455,-0.205
23:19:33.848,-0.445,-0.215
23:19:33.852,-0.445,-0.2
23:19:33.856,-0.43,-0.22
23:19:33.860,-0.415,-0.215
23:19:33.864,-0.4,-0.2
23:19:33.868,-0.39,-0.225
23:19:33.872,-0.37,-0.24
23:19:33.876,-0.375,-0.255
23:19:33.880,-0.345,-0.24
23:19:33.884,-0.335,-0.26
23:19:33.888,-0.32,-0.265
23:19:33.892,-0.315,-0.255
23:19:33.896,-0.305,-0.255
23:19:33.900,-0.31,-0.26
23:19:33.904,-0.295,-0.255
23:19:33.908,-0.285,-0.24
23:19:33.912,-0.28,-0.235
23:19:33.916,-0.265,-0.245
23:19:33.920,-0.25,-0.255
23:19:33.924,-0.265,-0.255
23:19:33.928,-0.255,-0.23
23:19:33.932,-0.245,-0.255
23:19:33.936,-0.255,-0.245
23:19:33.940,-0.245,-0.245
23:19:33.944,-0.235,-0.225
23:19:33.948,-0.235,-0.255
23:19:33.952,-0.245,-0.24
23:19:33.956,-0.23,-0.245
23:19:33.960,-0.23,-0.24
23:19:33.964,-0.23,-0.25
23:19:33.968,-0.225,-0.265
23:19:33.972,-0.195,-0.235
23:19:33.976,-0.21,-0.26
23:19:33.980,-0.2,-0.255
23:19:33.984,-0.2,-0.255
23:19:33.988,-0.195,-0.255
23:19:33.992,-0.19,-0.225
23:19:33.996,-0.2,-0.23
23:19:34.000,-0.17,-0.23
23:19:34.004,-0.135,-0.23
23:19:34.008,-0.155,-0.24
23:19:34.012,-0.155,-0.225
23:19:34.016,-0.13,-0.235
23:19:34.020,-0.13,-0.22
23:19:34.024,-0.095,-0.19
23:19:34.028,-0.04,-0.21
23:19:34.032,-0.005,-0.2
23:19:34.036,0.035,-0.2
23:19:34.040,0.07,-0.185
23:19:34.044,0.115,-0.15
23:19:34.048,0.115,-0.175
23:19:34.052,0.105,-0.17
23:19:34.056,0.1,-0.175
23:19:34.060,0.08,-0.215
23:19:34.064,0.025,-0.22
23:19:34.068,-0.015,-0.245
23:19:34.072,-0.07,-0.26
23:19:34.076,-0.125,-0.275
23:19:34.080,-0.185,-0.29
23:19:34.084,-0.235,-0.28
23:19:34.088,-0.25,-0.26
23:19:34.092,-0.28,-0.245
23:19:34.096,-0.29,-0.24
23:19:34.100,-0.27,-0.265
23:19:34.104,-0.26,-0.285
23:19:34.108,-0.25,-0.265
23:19:34.112,-0.23,-0.285
23:19:34.116,-0.24,-0.305
23:19:34.120,-0.235,-0.28
23:19:34.124,-0.22,-0.295
23:19:34.128,-0.205,-0.275
23:19:34.132,-0.225,-0.285
23:19:34.136,-0.235,-0.27
23:19:34.140,-0.235,-0.28
23:19:34.144,-0.215,-0.305
23:19:34.148,-0.22,-0.315
23:19:34.152,-0.245,-0.285
23:19:34.156,-0.235,-0.295
23:19:34.160,-0.24,-0.29
23:19:34.164,-0.225,-0.3
23:19:34.168,-0.22,-0.3
23:19:34.172,-0.21,-0.31
23:19:34.176,-0.24,-0.32
23:19:34.180,-0.23,-0.32
23:19:34.184,-0.205,-0.325
23:19:34.188,-0.215,-0.325
23:19:34.192,-0.185,-0.345
23:19:34.196,-0.185,-0.305
23:19:34.200,-0.165,-0.3
23:19:34.204,-0.135,-0.315
23:19:34.208,-0.04,-0.32
23:19:34.212,0.04,-0.315
23:19:34.216,0.165,-0.31
23:19:34.220,0.24,-0.34
23:19:34.224,0.305,-0.38
23:19:34.228,0.355,-0.39
23:19:34.232,0.38,-0.365
23:19:34.236,0.345,-0.365
23:19:34.240,0.305,-0.39
23:19:34.244,0.36,-0.455
23:19:34.248,0.53,-0.55
23:19:34.252,0.845,-0.785
23:19:34.256,1.17,-1.04
23:19:34.260,1.34,-1.245
23:19:34.264,1.18,-1.34
23:19:34.268,0.77,-1.195
23:19:34.272,0.32,-0.865
23:19:34.276,0.005,-0.54
23:19:34.280,-0.135,-0.355
23:19:34.284,-0.195,-0.28
23:19:34.288,-0.205,-0.185
23:19:34.292,-0.255,-0.155
23:19:34.296,-0.305,-0.12
23:19:34.300,-0.315,-0.11
23:19:34.304,-0.35,-0.115
23:19:34.308,-0.355,-0.14
23:19:34.312,-0.375,-0.155
23:19:34.316,-0.375,-0.175
23:19:34.320,-0.365,-0.165
23:19:34.324,-0.36,-0.16
23:19:34.328,-0.35,-0.175
23:19:34.332,-0.36,-0.175
23:19:34.336,-0.375,-0.185
23:19:34.340,-0.38,-0.165
23:19:34.344,-0.365,-0.175
23:19:34.348,-0.355,-0.15
23:19:34.352,-0.385,-0.16
23:19:34.356,-0.375,-0.15
23:19:34.360,-0.385,-0.13
23:19:34.364,-0.39,-0.155
23:19:34.368,-0.41,-0.135
23:19:34.372,-0.41,-0.14
23:19:34.376,-0.405,-0.145
23:19:34.380,-0.405,-0.14
23:19:34.384,-0.425,-0.13
23:19:34.388,-0.425,-0.16
23:19:34.392,-0.445,-0.14
23:19:34.396,-0.46,-0.14
23:19:34.400,-0.44,-0.135
23:19:34.404,-0.43,-0.115
23:19:34.408,-0.435,-0.14
23:19:34.412,-0.44,-0.14
23:19:34.416,-0.46,-0.12
23:19:34.420,-0.44,-0.135
23:19:34.424,-0.455,-0.135
23:19:34.428,-0.44,-0.125
23:19:34.432,-0.455,-0.13
23:19:34.436,-0.43,-0.125
23:19:34.440,-0.425,-0.12
23:19:34.444,-0.42,-0.115
23:19:34.448,-0.405,-0.11
23:19:34.452,-0.395,-0.125
23:19:34.456,-0.38,-0.115
23:19:34.460,-0.36,-0.115
23:19:34.464,-0.375,-0.12
23:19:34.468,-0.345,-0.12
23:19:34.472,-0.335,-0.12
23:19:34.476,-0.345,-0.135
23:19:34.480,-0.32,-0.115
23:19:34.484,-0.32,-0.12
23:19:34.488,-0.315,-0.13
23:19:34.492,-0.31,-0.15
23:19:34.496,-0.295,-0.135
23:19:34.500,-0.29,-0.14
23:19:34.504,-0.29,-0.155
23:19:34.508,-0.28,-0.145
23:19:34.512,-0.265,-0.15
23:19:34.516,-0.25,-0.17
23:19:34.520,-0.25,-0.145
23:19:34.524,-0.25,-0.15
23:19:34.528,-0.23,-0.165
23:19:34.532,-0.215,-0.15
23:19:34.536,-0.22,-0.145
23:19:34.540,-0.2,-0.15
23:19:34.544,-0.19,-0.135
23:19:34.548,-0.17,-0.12
23:19:34.552,-0.175,-0.13
23:19:34.556,-0.17,-0.11
23:19:34.560,-0.17,-0.09
23:19:34.564,-0.165,-0.115
23:19:34.568,-0.175,-0.095
23:19:34.572,-0.155,-0.11
23:19:34.576,-0.17,-0.09
23:19:34.580,-0.16,-0.08
23:19:34.584,-0.16,-0.065
23:19:34.588,-0.155,-0.08
23:19:34.592,-0.145,-0.105
23:19:34.596,-0.12,-0.085
23:19:34.600,-0.12,-0.08
23:19:34.604,-0.12,-0.075
23:19:34.608,-0.115,-0.085
23:19:34.612,-0.1,-0.055
23:19:34.616,-0.05,-0.065
23:19:34.620,-0.025,-0.06
23:19:34.624,0.025,-0.02
23:19:34.628,0.06,-0.04
23:19:34.632,0.1,-0.045
23:19:34.636,0.14,-0.025
23:19:34.640,0.12,0.0
23:19:34.644,0.155,-0.015
23:19:34.648,0.125,-0.005
23:19:34.652,0.11,-0.035
23:19:34.656,0.055,-0.05
23:19:34.660,0.015,-0.07
23:19:34.664,-0.035,-0.095
23:19:34.668,-0.065,-0.09
23:19:34.672,-0.115,-0.08
23:19:34.676,-0.165,-0.07
23:19:34.680,-0.215,-0.055
23:19:34.684,-0.255,-0.055
23:19:34.688,-0.25,-0.02
23:19:34.692,-0.265,-0.04
23:19:34.696,-0.25,-0.05
23:19:34.700,-0.265,-0.055
23:19:34.704,-0.25,-0.09
23:19:34.708,-0.255,-0.105
23:19:34.712,-0.265,-0.1
23:19:34.716,-0.265,-0.06
23:19:34.720,-0.25,-0.085
23:19:34.724,-0.25,-0.105
23:19:34.728,-0.26,-0.09
23:19:34.732,-0.27,-0.1
23:19:34.736,-0.25,-0.115
23:19:34.740,-0.255,-0.12
23:19:34.744,-0.275,-0.12
23:19:34.748,-0.28,-0.12
23:19:34.752,-0.275,-0.105
23:19:34.756,-0.285,-0.125
23:19:34.760,-0.25,-0.11
23:19:34.764,-0.27,-0.115
23:19:34.768,-0.25,-0.14
23:19:34.772,-0.235,-0.11
23:19:34.776,-0.25,-0.115
23:19:34.780,-0.245,-0.1
23:19:34.784,-0.24,-0.12
23:19:34.788,-0.225,-0.115
23:19:34.792,-0.21,-0.115
23:19:34.796,-0.175,-0.115
23:19:34.800,-0.105,-0.095
23:19:34.804,-0.035,-0.13
23:19:34.808,0.05,-0.11
23:19:34.812,0.125,-0.17
23:19:34.816,0.14,-0.185
23:19:34.820,0.16,-0.24
23:19:34.824,0.16,-0.205
23:19:34.828,0.15,-0.215
23:19:34.832,0.095,-0.265
23:19:34.836,0.135,-0.355
23:19:34.840,0.32,-0.49
23:19:34.844,0.625,-0.685
23:19:34.848,0.965,-0.945
23:19:34.852,1.185,-1.18
23:19:34.856,1.155,-1.295
23:19:34.860,0.845,-1.19
23:19:34.864,0.385,-0.84
23:19:34.868,0.01,-0.45
23:19:34.872,-0.195,-0.195
23:19:34.876,-0.305,-0.06
23:19:34.880,-0.335,0.03
23:19:34.884,-0.34,0.03
23:19:34.888,-0.375,0.035
23:19:34.892,-0.39,0.05
23:19:34.896,-0.395,0.035
23:19:34.900,-0.405,0.0
23:19:34.904,-0.41,0.01
23:19:34.908,-0.43,0.0
23:19:34.912,-0.43,0.0
23:19:34.916,-0.44,0.005
23:19:34.920,-0.435,-0.02
23:19:34.924,-0.445,0.0
23:19:34.928,-0.44,-0.01
23:19:34.932,-0.465,-0.01
23:19:34.936,-0.475,-0.03
23:19:34.940,-0.465,0.0
23:19:34.944,-0.47,-0.03
23:19:34.948,-0.48,-0.015
23:19:34.952,-0.46,-0.035
23:19:34.956,-0.48,-0.02
23:19:34.960,-0.47,-0.03
23:19:34.964,-0.485,-0.05
23:19:34.968,-0.49,-0.04
23:19:34.972,-0.48,-0.03
23:19:34.976,-0.485,-0.04
23:19:34.980,-0.495,-0.04
23:19:34.984,-0.495,-0.05
23:19:34.988,-0.5,-0.03
23:19:34.992,-0.49,-0.04
23:19:34.996,-0.485,-0.06
23:19:35.000,-0.48,-0.045
23:19:35.004,-0.475,-0.06
23:19:35.008,-0.49,-0.02
23:19:35.012,-0.475,0.0
23:19:35.016,-0.47,-0.025
23:19:35.020,-0.46,-0.065
23:19:35.024,-0.495,-0.05
23:19:35.028,-0.465,-0.03
23:19:35.032,-0.46,-0.045
23:19:35.036,-0.465,-0.05
23:19:35.040,-0.455,-0.03
23:19:35.044,-0.46,-0.055
23:19:35.048,-0.46,-0.045
23:19:35.052,-0.45,-0.05
23:19:35.056,-0.44,-0.065
23:19:35.060,-0.43,-0.06
23:19:35.064,-0.43,-0.065
23:19:35.068,-0.405,-0.055
23:19:35.072,-0.395,-0.075
23:19:35.076,-0.38,-0.08
23:19:35.080,-0.38,-0.105
23:19:35.084,-0.36,-0.11
23:19:35.088,-0.355,-0.095
23:19:35.092,-0.345,-0.085
23:19:35.096,-0.335,-0.1
23:19:35.100,-0.335,-0.095
23:19:35.104,-0.31,-0.1
23:19:35.108,-0.275,-0.085
23:19:35.112,-0.265,-0.1
23:19:35.116,-0.26,-0.08
23:19:35.120,-0.23,-0.09
23:19:35.124,-0.22,-0.075
23:19:35.128,-0.225,-0.055
23:19:35.132,-0.215,-0.08
23:19:35.136,-0.195,-0.055
23:19:35.140,-0.215,-0.08
23:19:35.144,-0.215,-0.08
23:19:35.148,-0.2,-0.06
23:19:35.152,-0.22,-0.065
23:19:35.156,-0.215,-0.06
23:19:35.160,-0.215,-0.055
23:19:35.164,-0.205,-0.06
23:19:35.168,-0.195,-0.04
23:19:35.172,-0.21,-0.08
23:19:35.176,-0.18,-0.045
23:19:35.180,-0.16,-0.045
23:19:35.184,-0.145,-0.05
23:19:35.188,-0.145,-0.04
23:19:35.192,-0.145,-0.035
23:19:35.196,-0.125,-0.03
23:19:35.200,-0.07,-0.015
23:19:35.204,-0.035,0.015
23:19:35.208,0.0,-0.01
23:19:35.212,0.04,0.03
23:19:35.216,0.085,0.045
23:19:35.220,0.12,0.035
23:19:35.224,0.12,0.05
23:19:35.228,0.125,0.035
23:19:35.232,0.105,0.025
23:19:35.236,0.09,0.02
23:19:35.240,0.04,0.005
23:19:35.244,0.005,-0.035
23:19:35.248,-0.025,-0.025
23:19:35.252,-0.1,-0.015
23:19:35.256,-0.155,-0.04
23:19:35.260,-0.2,-0.02
23:19:35.264,-0.245,-0.01
23:19:35.268,-0.285,0.0
23:19:35.272,-0.27,-0.015
23:19:35.276,-0.27,0.0
23:19:35.280,-0.285,-0.015
23:19:35.284,-0.265,-0.02
23:19:35.288,-0.25,-0.03
23:19:35.292,-0.255,-0.04
23:19:35.296,-0.255,-0.03
23:19:35.300,-0.26,-0.035
23:19:35.304,-0.25,-0.045
23:19:35.308,-0.265,-0.035
23:19:35.312,-0.255,-0.055
23:19:35.316,-0.25,-0.05
23:19:35.320,-0.24,-0.04
23:19:35.324,-0.26,-0.035
23:19:35.328,-0.235,-0.035
23:19:35.332,-0.245,-0.03
23:19:35.336,-0.215,-0.03
23:19:35.340,-0.24,-0.045
23:19:35.344,-0.225,-0.05
23:19:35.348,-0.23,-0.035
23:19:35.352,-0.235,-0.02
23:19:35.356,-0.25,-0.03
23:19:35.360,-0.245,-0.01
23:19:35.364,-0.215,-0.045
23:19:35.368,-0.215,-0.025
23:19:35.372,-0.24,-0.055
23:19:35.376,-0.215,-0.05
23:19:35.380,-0.185,-0.045
23:19:35.384,-0.13,-0.035
23:19:35.388,-0.065,-0.04
23:19:35.392,0.02,-0.04
23:19:35.396,0.09,-0.07
23:19:35.400,0.145,-0.1
23:19:35.404,0.16,-0.14
23:19:35.408,0.19,-0.145
23:19:35.412,0.195,-0.145
23:19:35.416,0.155,-0.155
23:19:35.420,0.105,-0.225
23:19:35.424,0.225,-0.305
23:19:35.428,0.5,-0.46
23:19:35.432,0.815,-0.72
23:19:35.436,1.13,-0.97
23:19:35.440,1.26,-1.17
23:19:35.444,1.12,-1.205
23:19:35.448,0.705,-0.955
23:19:35.452,0.265,-0.58
23:19:35.456,-0.035,-0.22
23:19:35.460,-0.185,-0.01
23:19:35.464,-0.25,0.08
23:19:35.468,-0.295,0.12
23:19:35.472,-0.32,0.13
23:19:35.476,-0.35,0.125
23:19:35.480,-0.355,0.125
23:19:35.484,-0.38,0.09
23:19:35.488,-0.385,0.095
23:19:35.492,-0.385,0.05
23:19:35.496,-0.4,0.06
23:19:35.500,-0.4,0.065
23:19:35.504,-0.4,0.025
23:19:35.508,-0.405,0.035
23:19:35.512,-0.4,0.035
23:19:35.516,-0.405,0.035
23:19:35.520,-0.395,0.03
23:19:35.524,-0.38,-0.005
23:19:35.528,-0.415,0.035
23:19:35.532,-0.38,0.03
23:19:35.536,-0.415,0.03
23:19:35.540,-0.41,0.045
23:19:35.544,-0.4,0.015
23:19:35.548,-0.4,0.025
23:19:35.552,-0.395,0.015
23:19:35.556,-0.39,0.025
23:19:35.560,-0.39,0.0
23:19:35.564,-0.4,0.02
23:19:35.568,-0.375,0.035
23:19:35.572,-0.385,0.015
23:19:35.576,-0.385,0.02
23:19:35.580,-0.385,0.035
23:19:35.584,-0.395,0.02
23:19:35.588,-0.38,0.025
23:19:35.592,-0.375,0.025
23:19:35.596,-0.37,0.035
23:19:35.600,-0.39,0.015
23:19:35.604,-0.395,0.025
23:19:35.608,-0.385,0.0
23:19:35.612,-0.395,0.015
23:19:35.616,-0.36,0.005
23:19:35.620,-0.355,0.01
23:19:35.624,-0.35,0.005
23:19:35.628,-0.315,0.0
23:19:35.632,-0.305,-0.015
23:19:35.636,-0.315,-0.01
23:19:35.640,-0.285,-0.025
23:19:35.644,-0.285,-0.02
23:19:35.648,-0.265,-0.04
23:19:35.652,-0.25,-0.045
23:19:35.656,-0.25,-0.04
23:19:35.660,-0.23,-0.04
23:19:35.664,-0.185,-0.065
23:19:35.668,-0.185,-0.02
23:19:35.672,-0.16,-0.04
23:19:35.676,-0.14,-0.05
23:19:35.680,-0.125,-0.065
23:19:35.684,-0.105,-0.04
23:19:35.688,-0.105,-0.04
23:19:35.692,-0.105,-0.05
23:19:35.696,-0.075,-0.04
23:19:35.700,-0.06,-0.05
23:19:35.704,-0.05,-0.03
23:19:35.708,-0.065,-0.035
23:19:35.712,-0.05,-0.03
23:19:35.716,-0.05,-0.04
23:19:35.720,-0.045,-0.035
23:19:35.724,-0.035,-0.05
23:19:35.728,-0.025,-0.035
23:19:35.732,-0.01,-0.04
23:19:35.736,-0.01,-0.03
23:19:35.740,-0.02,-0.035
23:19:35.744,-0.005,-0.03
23:19:35.748,0.0,-0.03
23:19:35.752,0.005,-0.04
23:19:35.756,-0.005,-0.025
23:19:35.760,0.025,-0.045
23:19:35.764,0.025,-0.02
23:19:35.768,0.025,-0.025
23:19:35.772,0.055,-0.01
23:19:35.776,0.065,-0.03
23:19:35.780,0.07,-0.015
23:19:35.784,0.075,-0.005
23:19:35.788,0.115,-0.02
23:19:35.792,0.145,0.005
23:19:35.796,0.195,0.025
23:19:35.800,0.23,0.045
23:19:35.804,0.245,0.02
23:19:35.808,0.285,0.03
23:19:35.812,0.305,0.035
23:19:35.816,0.295,0.07
23:19:35.820,0.295,0.075
23:19:35.824,0.27,0.045
23:19:35.828,0.22,0.015
23:19:35.832,0.195,0.0
23:19:35.836,0.14,-0.03
23:19:35.840,0.085,-0.05
23:19:35.844,0.04,-0.045
23:19:35.848,0.0,-0.05
23:19:35.852,-0.06,-0.035
23:19:35.856,-0.08,-0.035
23:19:35.860,-0.125,-0.035
23:19:35.864,-0.12,-0.045
23:19:35.868,-0.115,-0.025
23:19:35.872,-0.135,-0.05
23:19:35.876,-0.115,-0.06
23:19:35.880,-0.115,-0.05
23:19:35.884,-0.12,-0.055
23:19:35.888,-0.115,-0.04
23:19:35.892,-0.075,-0.065
23:19:35.896,-0.08,-0.045
23:19:35.900,-0.11,-0.065
23:19:35.904,-0.09,-0.06
23:19:35.908,-0.1,-0.04
23:19:35.912,-0.135,-0.04
23:19:35.916,-0.11,-0.04
23:19:35.920,-0.145,-0.04
23:19:35.924,-0.125,-0.04
23:19:35.928,-0.135,-0.04
23:19:35.932,-0.125,-0.035
23:19:35.936,-0.14,-0.04
23:19:35.940,-0.14,-0.035
23:19:35.944,-0.155,-0.06
23:19:35.948,-0.165,-0.08
23:19:35.952,-0.185,-0.05
23:19:35.956,-0.17,-0.06
23:19:35.960,-0.18,-0.04
23:19:35.964,-0.17,-0.07
23:19:35.968,-0.16,-0.095
23:19:35.972,-0.115,-0.085
23:19:35.976,-0.08,-0.09
23:19:35.980,-0.005,-0.09
23:19:35.984,0.085,-0.085
23:19:35.988,0.135,-0.085
23:19:35.992,0.185,-0.125
23:19:35.996,0.19,-0.16
23:19:36.000,0.235,-0.165
23:19:36.004,0.225,-0.16
23:19:36.008,0.2,-0.185
23:19:36.012,0.165,-0.25
23:19:36.016,0.275,-0.365
23:19:36.020,0.555,-0.505
23:19:36.024,0.885,-0.765
23:19:36.028,1.15,-1.03
23:19:36.032,1.23,-1.195
23:19:36.036,1.04,-1.19
23:19:36.040,0.605,-0.915
23:19:36.044,0.185,-0.525
23:19:36.048,-0.08,-0.2
23:19:36.052,-0.23,-0.005
23:19:36.056,-0.29,0.055
23:19:36.060,-0.315,0.065
23:19:36.064,-0.345,0.09
23:19:36.068,-0.38,0.085
23:19:36.072,-0.375,0.085
23:19:36.076,-0.4,0.06
23:19:36.080,-0.41,0.04
23:19:36.084,-0.415,0.0
23:19:36.088,-0.425,0.0
23:19:36.092,-0.41,-0.005
23:19:36.096,-0.425,-0.005
23:19:36.100,-0.44,0.0
23:19:36.104,-0.425,-0.005
23:19:36.108,-0.43,0.0
23:19:36.112,-0.43,-0.01
23:19:36.116,-0.42,0.005
23:19:36.120,-0.425,0.015
23:19:36.124,-0.43,0.0
23:19:36.128,-0.435,0.01
23:19:36.132,-0.43,0.005
23:19:36.136,-0.44,0.01
23:19:36.140,-0.45,0.04
23:19:36.144,-0.46,0.015
23:19:36.148,-0.45,0.025
23:19:36.152,-0.455,0.025
23:19:36.156,-0.47,0.0
23:19:36.160,-0.46,0.005
23:19:36.164,-0.47,0.0
23:19:36.168,-0.495,0.005
23:19:36.172,-0.49,0.0
23:19:36.176,-0.48,-0.025
23:19:36.180,-0.49,-0.015
23:19:36.184,-0.495,-0.005
23:19:36.188,-0.47,-0.01
23:19:36.192,-0.48,-0.02
23:19:36.196,-0.47,-0.025
23:19:36.200,-0.495,-0.02
23:19:36.204,-0.485,-0.025
23:19:36.208,-0.47,-0.03
23:19:36.212,-0.44,-0.025
23:19:36.216,-0.445,-0.035
23:19:36.220,-0.445,-0.035
23:19:36.224,-0.43,-0.04
23:19:36.228,-0.41,-0.055
23:19:36.232,-0.385,-0.05
23:19:36.236,-0.385,-0.05
23:19:36.240,-0.36,-0.045
23:19:36.244,-0.36,-0.025
23:19:36.248,-0.37,-0.035
23:19:36.252,-0.335,-0.035
23:19:36.256,-0.33,-0.045
23:19:36.260,-0.31,-0.04
23:19:36.264,-0.32,-0.065
23:19:36.268,-0.305,-0.05
23:19:36.272,-0.3,-0.06
23:19:36.276,-0.3,-0.06
23:19:36.280,-0.27,-0.075
23:19:36.284,-0.255,-0.06
23:19:36.288,-0.26,-0.06
23:19:36.292,-0.245,-0.07
23:19:36.296,-0.225,-0.075
23:19:36.300,-0.225,-0.065
23:19:36.304,-0.215,-0.06
23:19:36.308,-0.2,-0.075
23:19:36.312,-0.175,-0.06
23:19:36.316,-0.17,-0.04
23:19:36.320,-0.175,-0.04
23:19:36.324,-0.16,-0.035
23:19:36.328,-0.17,-0.035
23:19:36.332,-0.16,-0.02
23:19:36.336,-0.155,-0.02
23:19:36.340,-0.17,-0.025
23:19:36.344,-0.155,-0.03
23:19:36.348,-0.135,0.01
23:19:36.352,-0.13,0.005
23:19:36.356,-0.13,0.0
23:19:36.360,-0.12,-0.01
23:19:36.364,-0.1,0.0
23:19:36.368,-0.115,0.01
23:19:36.372,-0.09,0.01
23:19:36.376,-0.09,0.015
23:19:36.380,-0.075,-0.01
23:19:36.384,-0.08,0.02
23:19:36.388,-0.05,0.015
23:19:36.392,0.015,0.035
23:19:36.396,0.04,0.045
23:19:36.400,0.07,0.05
23:19:36.404,0.08,0.055
23:19:36.408,0.11,0.06
23:19:36.412,0.115,0.08
23:19:36.416,0.125,0.065
23:19:36.420,0.14,0.055
23:19:36.424,0.115,0.05
23:19:36.428,0.08,0.03
23:19:36.432,0.045,-0.015
23:19:36.436,0.015,-0.03
23:19:36.440,-0.035,-0.035
23:19:36.444,-0.105,-0.04
23:19:36.448,-0.14,-0.015
23:19:36.452,-0.205,-0.01
23:19:36.456,-0.235,-0.015
23:19:36.460,-0.225,0.01
23:19:36.464,-0.22,-0.005
23:19:36.468,-0.24,-0.025
23:19:36.472,-0.23,-0.035
23:19:36.476,-0.23,-0.035
23:19:36.480,-0.23,-0.02
23:19:36.484,-0.22,-0.04
23:19:36.488,-0.19,-0.02
23:19:36.492,-0.2,-0.01
23:19:36.496,-0.195,-0.04
23:19:36.500,-0.19,-0.04
23:19:36.504,-0.21,-0.025
23:19:36.508,-0.2,-0.035
23:19:36.512,-0.235,-0.025
23:19:36.516,-0.23,-0.025
23:19:36.520,-0.22,-0.06
23:19:36.524,-0.21,-0.04
23:19:36.528,-0.22,-0.045
23:19:36.532,-0.255,-0.06
23:19:36.536,-0.22,-0.055
23:19:36.540,-0.23,-0.05
23:19:36.544,-0.22,-0.025
23:19:36.548,-0.225,-0.065
23:19:36.552,-0.225,-0.045
23:19:36.556,-0.22,-0.035
23:19:36.560,-0.2,-0.045
23:19:36.564,-0.195,-0.025
23:19:36.568,-0.165,-0.04
23:19:36.572,-0.1,-0.035
23:19:36.576,-0.055,-0.04
23:19:36.580,0.045,-0.055
23:19:36.584,0.115,-0.045
23:19:36.588,0.19,-0.07
23:19:36.592,0.215,-0.095
23:19:36.596,0.24,-0.135
23:19:36.600,0.235,-0.15
23:19:36.604,0.235,-0.135
23:19:36.608,0.185,-0.18
23:19:36.612,0.2,-0.255
23:19:36.616,0.365,-0.375
23:19:36.620,0.655,-0.575
23:19:36.624,0.995,-0.84
23:19:36.628,1.235,-1.085
23:19:36.632,1.255,-1.21
23:19:36.636,0.96,-1.15
23:19:36.640,0.5,-0.81
23:19:36.644,0.1,-0.415
23:19:36.648,-0.105,-0.125
23:19:36.652,-0.22,0.0
23:19:36.656,-0.28,0.075
23:19:36.660,-0.295,0.095
23:19:36.664,-0.33,0.1
23:19:36.668,-0.35,0.08
23:19:36.672,-0.36,0.08
23:19:36.676,-0.37,0.055
23:19:36.680,-0.37,0.045
23:19:36.684,-0.37,0.03
23:19:36.688,-0.38,0.0
23:19:36.692,-0.37,0.0
23:19:36.696,-0.375,0.01
23:19:36.700,-0.38,0.0
23:19:36.704,-0.37,-0.005
23:19:36.708,-0.385,0.0
23:19:36.712,-0.375,-0.01
23:19:36.716,-0.385,0.025
23:19:36.720,-0.375,0.01
23:19:36.724,-0.375,-0.02
23:19:36.728,-0.405,-0.025
23:19:36.732,-0.42,-0.025
23:19:36.736,-0.425,-0.04
23:19:36.740,-0.435,-0.035
23:19:36.744,-0.445,-0.035
23:19:36.748,-0.445,-0.02
23:19:36.752,-0.45,-0.03
23:19:36.756,-0.455,-0.05
23:19:36.760,-0.475,-0.08
23:19:36.764,-0.47,-0.06
23:19:36.768,-0.44,-0.045
23:19:36.772,-0.465,-0.06
23:19:36.776,-0.455,-0.065
23:19:36.780,-0.445,-0.095
23:19:36.784,-0.465,-0.09
23:19:36.788,-0.47,-0.08
23:19:36.792,-0.46,-0.09
23:19:36.796,-0.45,-0.095
23:19:36.800,-0.445,-0.085
23:19:36.804,-0.415,-0.09
23:19:36.808,-0.405,-0.08
23:19:36.812,-0.415,-0.1
23:19:36.816,-0.385,-0.105
23:19:36.820,-0.38,-0.09
23:19:36.824,-0.39,-0.095
23:19:36.828,-0.4,-0.09
23:19:36.832,-0.355,-0.095
23:19:36.836,-0.355,-0.08
23:19:36.840,-0.355,-0.115
23:19:36.844,-0.335,-0.11
23:19:36.848,-0.33,-0.13
23:19:36.852,-0.32,-0.13
23:19:36.856,-0.33,-0.145
23:19:36.860,-0.325,-0.13
23:19:36.864,-0.315,-0.15
23:19:36.868,-0.285,-0.17
23:19:36.872,-0.295,-0.175
23:19:36.876,-0.275,-0.18
23:19:36.880,-0.26,-0.175
23:19:36.884,-0.26,-0.19
23:19:36.888,-0.23,-0.16
23:19:36.892,-0.225,-0.185
23:19:36.896,-0.22,-0.18
23:19:36.900,-0.215,-0.175
23:19:36.904,-0.2,-0.17
23:19:36.908,-0.205,-0.16
23:19:36.912,-0.18,-0.175
23:19:36.916,-0.155,-0.18
23:19:36.920,-0.16,-0.155
23:19:36.924,-0.155,-0.165
23:19:36.928,-0.15,-0.145
23:19:36.932,-0.15,-0.135
23:19:36.936,-0.145,-0.15
23:19:36.940,-0.14,-0.125
23:19:36.944,-0.145,-0.135
23:19:36.948,-0.15,-0.125
23:19:36.952,-0.145,-0.135
23:19:36.956,-0.145,-0.135
23:19:36.960,-0.165,-0.12
23:19:36.964,-0.14,-0.11
23:19:36.968,-0.15,-0.13
23:19:36.972,-0.135,-0.105
23:19:36.976,-0.125,-0.135
23:19:36.980,-0.105,-0.135
23:19:36.984,-0.105,-0.145
23:19:36.988,-0.1,-0.145
23:19:36.992,-0.085,-0.13
23:19:36.996,-0.03,-0.13
23:19:37.000,0.01,-0.11
23:19:37.004,0.065,-0.1
23:19:37.008,0.085,-0.08
23:19:37.012,0.125,-0.085
23:19:37.016,0.155,-0.085
23:19:37.020,0.165,-0.08
23:19:37.024,0.175,-0.08
23:19:37.028,0.16,-0.09
23:19:37.032,0.11,-0.14
23:19:37.036,0.075,-0.15
23:19:37.040,0.03,-0.165
23:19:37.044,-0.015,-0.155
23:19:37.048,-0.105,-0.18
23:19:37.052,-0.145,-0.165
23:19:37.056,-0.19,-0.18
23:19:37.060,-0.215,-0.16
23:19:37.064,-0.25,-0.165
23:19:37.068,-0.26,-0.16
23:19:37.072,-0.255,-0.17
23:19:37.076,-0.24,-0.17
23:19:37.080,-0.24,-0.18
23:19:37.084,-0.235,-0.195
23:19:37.088,-0.21,-0.21
23:19:37.092,-0.215,-0.2
23:19:37.096,-0.225,-0.19
23:19:37.100,-0.22,-0.215
23:19:37.104,-0.2,-0.215
23:19:37.108,-0.215,-0.25
23:19:37.112,-0.21,-0.24
23:19:37.116,-0.195,-0.245
23:19:37.120,-0.195,-0.25
23:19:37.124,-0.195,-0.235
23:19:37.128,-0.175,-0.235
23:19:37.132,-0.18,-0.22
23:19:37.136,-0.18,-0.235
23:19:37.140,-0.185,-0.22
23:19:37.144,-0.185,-0.24
23:19:37.148,-0.165,-0.245
23:19:37.152,-0.16,-0.225
23:19:37.156,-0.18,-0.24
23:19:37.160,-0.17,-0.225
23:19:37.164,-0.15,-0.235
23:19:37.168,-0.125,-0.26
23:19:37.172,-0.095,-0.24
23:19:37.176,-0.045,-0.23
23:19:37.180,0.02,-0.235
23:19:37.184,0.14,-0.235
23:19:37.188,0.215,-0.27
23:19:37.192,0.27,-0.3
23:19:37.196,0.315,-0.345
23:19:37.200,0.36,-0.36
23:19:37.204,0.375,-0.32
23:19:37.208,0.315,-0.335
23:19:37.212,0.305,-0.4
23:19:37.216,0.42,-0.49
23:19:37.220,0.68,-0.62
23:19:37.224,1.02,-0.88
23:19:37.228,1.285,-1.12
23:19:37.232,1.3,-1.31
23:19:37.236,1.005,-1.275
23:19:37.240,0.545,-0.99
23:19:37.244,0.175,-0.61
23:19:37.248,-0.02,-0.33
23:19:37.252,-0.09,-0.21
23:19:37.256,-0.145,-0.125
23:19:37.260,-0.185,-0.09
23:19:37.264,-0.225,-0.09
23:19:37.268,-0.25,-0.075
23:19:37.272,-0.27,-0.08
23:19:37.276,-0.285,-0.105
23:19:37.280,-0.305,-0.13
23:19:37.284,-0.295,-0.155
23:19:37.288,-0.315,-0.17
23:19:37.292,-0.32,-0.17
23:19:37.296,-0.33,-0.16
23:19:37.300,-0.325,-0.175
23:19:37.304,-0.3,-0.19
23:19:37.308,-0.32,-0.17
23:19:37.312,-0.31,-0.18
23:19:37.316,-0.33,-0.19
23:19:37.320,-0.35,-0.2
23:19:37.324,-0.32,-0.21
23:19:37.328,-0.335,-0.2
23:19:37.332,-0.33,-0.19
23:19:37.336,-0.34,-0.2
23:19:37.340,-0.35,-0.2
23:19:37.344,-0.345,-0.2
23:19:37.348,-0.355,-0.21
23:19:37.352,-0.36,-0.205
23:19:37.356,-0.36,-0.205
23:19:37.360,-0.365,-0.205
23:19:37.364,-0.35,-0.205
23:19:37.368,-0.36,-0.2
23:19:37.372,-0.365,-0.2
23:19:37.376,-0.36,-0.19
23:19:37.380,-0.345,-0.2
23:19:37.384,-0.345,-0.2
23:19:37.388,-0.35,-0.185
23:19:37.392,-0.365,-0.19
23:19:37.396,-0.33,-0.19
23:19:37.400,-0.32,-0.21
23:19:37.404,-0.31,-0.185
23:19:37.408,-0.31,-0.19
23:19:37.412,-0.31,-0.21
23:19:37.416,-0.31,-0.18
23:19:37.420,-0.31,-0.225
23:19:37.424,-0.32,-0.215
23:19:37.428,-0.295,-0.225
23:19:37.432,-0.3,-0.215
23:19:37.436,-0.28,-0.225
23:19:37.440,-0.26,-0.235
23:19:37.444,-0.26,-0.275
23:19:37.448,-0.27,-0.26
23:19:37.452,-0.245,-0.25
23:19:37.456,-0.255,-0.255
23:19:37.460,-0.22,-0.24
23:19:37.464,-0.23,-0.265
23:19:37.468,-0.22,-0.255
23:19:37.472,-0.22,-0.255
23:19:37.476,-0.195,-0.24
23:19:37.480,-0.17,-0.255
23:19:37.484,-0.18,-0.27
23:19:37.488,-0.16,-0.25
23:19:37.492,-0.17,-0.255
23:19:37.496,-0.16,-0.23
23:19:37.500,-0.14,-0.2
23:19:37.504,-0.125,-0.225
23:19:37.508,-0.125,-0.21
23:19:37.512,-0.12,-0.235
23:19:37.516,-0.11,-0.205
23:19:37.520,-0.135,-0.205
23:19:37.524,-0.115,-0.235
23:19:37.528,-0.11,-0.22
23:19:37.532,-0.14,-0.21
23:19:37.536,-0.135,-0.195
23:19:37.540,-0.13,-0.185
23:19:37.544,-0.125,-0.185
23:19:37.548,-0.135,-0.165
23:19:37.552,-0.12,-0.185
23:19:37.556,-0.12,-0.185
23:19:37.560,-0.135,-0.19
23:19:37.564,-0.13,-0.175
23:19:37.568,-0.135,-0.16
23:19:37.572,-0.115,-0.175
23:19:37.576,-0.12,-0.145
23:19:37.580,-0.095,-0.16
23:19:37.584,-0.08,-0.165
23:19:37.588,-0.045,-0.16
23:19:37.592,-0.05,-0.15
23:19:37.596,-0.04,-0.125
23:19:37.600,-0.015,-0.135
23:19:37.604,0.015,-0.115
23:19:37.608,0.065,-0.095
23:19:37.612,0.105,-0.095
23:19:37.616,0.135,-0.095
23:19:37.620,0.165,-0.07
23:19:37.624,0.205,-0.065
23:19:37.628,0.21,-0.07
23:19:37.632,0.21,-0.075
23:19:37.636,0.195,-0.07
23:19:37.640,0.155,-0.11
23:19:37.644,0.105,-0.145
23:19:37.648,0.04,-0.15
23:19:37.652,0.005,-0.155
23:19:37.656,-0.05,-0.165
23:19:37.660,-0.12,-0.145
23:19:37.664,-0.145,-0.155
23:19:37.668,-0.18,-0.145
23:19:37.672,-0.225,-0.135
23:19:37.676,-0.235,-0.125
23:19:37.680,-0.225,-0.145
23:19:37.684,-0.22,-0.125
23:19:37.688,-0.22,-0.14
23:19:37.692,-0.215,-0.11
23:19:37.696,-0.2,-0.135
23:19:37.700,-0.2,-0.155
23:19:37.704,-0.17,-0.145
23:19:37.708,-0.15,-0.135
23:19:37.712,-0.16,-0.15
23:19:37.716,-0.16,-0.14
23:19:37.720,-0.17,-0.13
23:19:37.724,-0.155,-0.13
23:19:37.728,-0.175,-0.13
23:19:37.732,-0.165,-0.12
23:19:37.736,-0.18,-0.115
23:19:37.740,-0.15,-0.13
23:19:37.744,-0.16,-0.14
23:19:37.748,-0.18,-0.135
23:19:37.752,-0.17,-0.155
23:19:37.756,-0.175,-0.145
23:19:37.760,-0.15,-0.13
23:19:37.764,-0.17,-0.12
23:19:37.768,-0.17,-0.15
23:19:37.772,-0.16,-0.15
23:19:37.776,-0.14,-0.145
23:19:37.780,-0.11,-0.16
23:19:37.784,-0.035,-0.17
23:19:37.788,0.04,-0.16
23:19:37.792,0.14,-0.19
23:19:37.796,0.215,-0.195
23:19:37.800,0.255,-0.24
23:19:37.804,0.295,-0.265
23:19:37.808,0.31,-0.26
23:19:37.812,0.305,-0.235
23:19:37.816,0.25,-0.28
23:19:37.820,0.295,-0.38
23:19:37.824,0.505,-0.53
23:19:37.828,0.84,-0.73
23:19:37.832,1.155,-1.0
23:19:37.836,1.325,-1.21
23:19:37.840,1.24,-1.275
23:19:37.844,0.875,-1.11
23:19:37.848,0.385,-0.705
23:19:37.852,0.06,-0.375
23:19:37.856,-0.095,-0.15
23:19:37.860,-0.175,-0.015
23:19:37.864,-0.24,0.025
23:19:37.868,-0.26,0.045
23:19:37.872,-0.29,0.015
23:19:37.876,-0.3,0.025
23:19:37.880,-0.32,0.025
23:19:37.884,-0.33,-0.01
23:19:37.888,-0.335,-0.02
23:19:37.892,-0.335,-0.04
23:19:37.896,-0.345,-0.05
23:19:37.900,-0.335,-0.055
23:19:37.904,-0.36,-0.07
23:19:37.908,-0.335,-0.05
23:19:37.912,-0.33,-0.04
23:19:37.916,-0.355,-0.045
23:19:37.920,-0.355,-0.045
23:19:37.924,-0.335,-0.03
23:19:37.928,-0.34,-0.045
23:19:37.932,-0.33,-0.05
23:19:37.936,-0.355,-0.06
23:19:37.940,-0.35,-0.055
23:19:37.944,-0.365,-0.065
23:19:37.948,-0.375,-0.04
23:19:37.952,-0.365,-0.025
23:19:37.956,-0.385,-0.01
23:19:37.960,-0.385,-0.04
23:19:37.964,-0.38,-0.03
23:19:37.968,-0.395,-0.04
23:19:37.972,-0.395,-0.025
23:19:37.976,-0.405,-0.02
23:19:37.980,-0.41,-0.035
23:19:37.984,-0.435,-0.04
23:19:37.988,-0.43,-0.045
23:19:37.992,-0.415,-0.055
23:19:37.996,-0.41,-0.04
23:19:38.000,-0.4,-0.07
23:19:38.004,-0.415,-0.045
23:19:38.008,-0.4,-0.07
23:19:38.012,-0.405,-0.08
23:19:38.016,-0.38,-0.09
23:19:38.020,-0.385,-0.07
23:19:38.024,-0.37,-0.075
23:19:38.028,-0.365,-0.07
23:19:38.032,-0.36,-0.075
23:19:38.036,-0.345,-0.075
23:19:38.040,-0.325,-0.095
23:19:38.044,-0.32,-0.075
23:19:38.048,-0.305,-0.09
23:19:38.052,-0.295,-0.075
23:19:38.056,-0.29,-0.095
23:19:38.060,-0.285,-0.105
23:19:38.064,-0.25,-0.105
23:19:38.068,-0.245,-0.11
23:19:38.072,-0.245,-0.11
23:19:38.076,-0.23,-0.115
23:19:38.080,-0.21,-0.11
23:19:38.084,-0.2,-0.12
23:19:38.088,-0.18,-0.12
23:19:38.092,-0.195,-0.12
23:19:38.096,-0.19,-0.11
23:19:38.100,-0.18,-0.095
23:19:38.104,-0.175,-0.13
23:19:38.108,-0.16,-0.11
23:19:38.112,-0.15,-0.13
23:19:38.116,-0.14,-0.1
23:19:38.120,-0.135,-0.11
23:19:38.124,-0.135,-0.11
23:19:38.128,-0.115,-0.11
23:19:38.132,-0.12,-0.075
23:19:38.136,-0.135,-0.085
23:19:38.140,-0.12,-0.1
23:19:38.144,-0.105,-0.07
23:19:38.148,-0.11,-0.08
23:19:38.152,-0.11,-0.055
23:19:38.156,-0.075,-0.07
23:19:38.160,-0.12,-0.07
23:19:38.164,-0.08,-0.055
23:19:38.168,-0.07,-0.065
23:19:38.172,-0.06,-0.06
23:19:38.176,-0.07,-0.03
23:19:38.180,-0.03,-0.035
23:19:38.184,-0.01,-0.03
23:19:38.188,0.03,-0.035
23:19:38.192,0.06,-0.01
23:19:38.196,0.11,0.005
23:19:38.200,0.13,0.025
23:19:38.204,0.145,0.015
23:19:38.208,0.16,0.005
23:19:38.212,0.175,0.01
23:19:38.216,0.19,-0.005
23:19:38.220,0.145,-0.01
23:19:38.224,0.125,-0.04
23:19:38.228,0.07,-0.09
23:19:38.232,0.025,-0.08
23:19:38.236,-0.01,-0.075
23:19:38.240,-0.075,-0.075
23:19:38.244,-0.135,-0.075
23:19:38.248,-0.16,-0.055
23:19:38.252,-0.225,-0.04
23:19:38.256,-0.21,-0.05
23:19:38.260,-0.22,-0.075
23:19:38.264,-0.21,-0.035
23:19:38.268,-0.2,-0.055
23:19:38.272,-0.205,-0.055
23:19:38.276,-0.175,-0.055
23:19:38.280,-0.195,-0.055
23:19:38.284,-0.19,-0.05
23:19:38.288,-0.19,-0.06
23:19:38.292,-0.17,-0.055
23:19:38.296,-0.185,-0.045
23:19:38.300,-0.18,-0.05
23:19:38.304,-0.19,-0.08
23:19:38.308,-0.19,-0.07
23:19:38.312,-0.18,-0.08
23:19:38.316,-0.21,-0.065
23:19:38.320,-0.2,-0.07
23:19:38.324,-0.2,-0.06
23:19:38.328,-0.195,-0.055
23:19:38.332,-0.19,-0.065
23:19:38.336,-0.185,-0.06
23:19:38.340,-0.205,-0.075
23:19:38.344,-0.2,-0.075
23:19:38.348,-0.2,-0.09
23:19:38.352,-0.18,-0.095
23:19:38.356,-0.17,-0.1
23:19:38.360,-0.17,-0.07
23:19:38.364,-0.13,-0.09
23:19:38.368,-0.075,-0.09
23:19:38.372,0.005,-0.075
23:19:38.376,0.11,-0.09
23:19:38.380,0.17,-0.125
23:19:38.384,0.225,-0.145
23:19:38.388,0.25,-0.165
23:19:38.392,0.28,-0.185
23:19:38.396,0.255,-0.16
23:19:38.400,0.2,-0.19
23:19:38.404,0.195,-0.26
23:19:38.408,0.345,-0.37
23:19:38.412,0.62,-0.56
23:19:38.416,0.965,-0.835
23:19:38.420,1.245,-1.115
23:19:38.424,1.315,-1.25
23:19:38.428,1.06,-1.195
23:19:38.432,0.6,-0.88
23:19:38.436,0.19,-0.49
23:19:38.440,-0.06,-0.2
23:19:38.444,-0.175,-0.04
23:19:38.448,-0.235,0.025
23:19:38.452,-0.255,0.07
23:19:38.456,-0.285,0.06
23:19:38.460,-0.315,0.06
23:19:38.464,-0.31,0.05
23:19:38.468,-0.335,0.025
23:19:38.472,-0.345,0.015
23:19:38.476,-0.335,0.005
23:19:38.480,-0.345,-0.005
23:19:38.484,-0.33,-0.015
23:19:38.488,-0.335,-0.015
23:19:38.492,-0.345,-0.01
23:19:38.496,-0.34,-0.005
23:19:38.500,-0.34,0.0
23:19:38.504,-0.36,0.015
23:19:38.508,-0.355,0.02
23:19:38.512,-0.34,-0.005
23:19:38.516,-0.355,-0.025
23:19:38.520,-0.39,0.005
23:19:38.524,-0.37,-0.005
23:19:38.528,-0.375,-0.005
23:19:38.532,-0.375,0.01
23:19:38.536,-0.375,-0.01
23:19:38.540,-0.365,-0.005
23:19:38.544,-0.39,-0.005
23:19:38.548,-0.415,-0.005
23:19:38.552,-0.415,0.01
23:19:38.556,-0.405,0.0
23:19:38.560,-0.415,0.0
23:19:38.564,-0.42,-0.005
23:19:38.568,-0.42,-0.015
23:19:38.572,-0.415,-0.02
23:19:38.576,-0.4,-0.025
23:19:38.580,-0.43,-0.02
23:19:38.584,-0.43,-0.01
23:19:38.588,-0.425,-0.025
23:19:38.592,-0.4,-0.015
23:19:38.596,-0.395,-0.04
23:19:38.600,-0.39,-0.03
23:19:38.604,-0.405,-0.04
23:19:38.608,-0.36,-0.035
23:19:38.612,-0.355,-0.045
23:19:38.616,-0.335,-0.04
23:19:38.620,-0.335,-0.05
23:19:38.624,-0.31,-0.06
23:19:38.628,-0.305,-0.055
23:19:38.632,-0.31,-0.04
23:19:38.636,-0.29,-0.04
23:19:38.640,-0.305,-0.055
23:19:38.644,-0.285,-0.07
23:19:38.648,-0.285,-0.08
23:19:38.652,-0.26,-0.085
23:19:38.656,-0.265,-0.095
23:19:38.660,-0.265,-0.095
23:19:38.664,-0.245,-0.095
23:19:38.668,-0.235,-0.085
23:19:38.672,-0.22,-0.105
23:19:38.676,-0.205,-0.115
23:19:38.680,-0.19,-0.115
23:19:38.684,-0.165,-0.12
23:19:38.688,-0.15,-0.11
23:19:38.692,-0.175,-0.12
23:19:38.696,-0.145,-0.1
23:19:38.700,-0.155,-0.115
23:19:38.704,-0.15,-0.115
23:19:38.708,-0.13,-0.09
23:19:38.712,-0.1,-0.08
23:19:38.716,-0.12,-0.1
23:19:38.720,-0.08,-0.09
23:19:38.724,-0.09,-0.07
23:19:38.728,-0.11,-0.09
23:19:38.732,-0.08,-0.065
23:19:38.736,-0.115,-0.08
23:19:38.740,-0.125,-0.08
23:19:38.744,-0.1,-0.075
23:19:38.748,-0.09,-0.08
23:19:38.752,-0.07,-0.055
23:19:38.756,-0.045,-0.055
23:19:38.760,-0.06,-0.075
23:19:38.764,-0.06,-0.075
23:19:38.768,-0.07,-0.075
23:19:38.772,-0.06,-0.075
23:19:38.776,-0.02,-0.045
23:19:38.780,0.02,-0.04
23:19:38.784,0.065,-0.04
23:19:38.788,0.095,-0.03
23:19:38.792,0.12,-0.015
23:19:38.796,0.15,-0.02
23:19:38.800,0.165,-0.035
23:19:38.804,0.15,-0.025
23:19:38.808,0.155,-0.045
23:19:38.812,0.13,-0.08
23:19:38.816,0.08,-0.1
23:19:38.820,0.05,-0.115
23:19:38.824,0.0,-0.12
23:19:38.828,-0.045,-0.125
23:19:38.832,-0.12,-0.12
23:19:38.836,-0.15,-0.135
23:19:38.840,-0.18,-0.11
23:19:38.844,-0.225,-0.12
23:19:38.848,-0.215,-0.1
23:19:38.852,-0.205,-0.105
23:19:38.856,-0.205,-0.13
23:19:38.860,-0.21,-0.12
23:19:38.864,-0.205,-0.135
23:19:38.868,-0.2,-0.135
23:19:38.872,-0.195,-0.145
23:19:38.876,-0.195,-0.15
23:19:38.880,-0.2,-0.145
23:19:38.884,-0.195,-0.15
23:19:38.888,-0.2,-0.17
23:19:38.892,-0.195,-0.175
23:19:38.896,-0.185,-0.17
23:19:38.900,-0.195,-0.185
23:19:38.904,-0.2,-0.17
23:19:38.908,-0.2,-0.195
23:19:38.912,-0.205,-0.17
23:19:38.916,-0.19,-0.175
23:19:38.920,-0.19,-0.18
23:19:38.924,-0.185,-0.195
23:19:38.928,-0.19,-0.2
23:19:38.932,-0.185,-0.19
23:19:38.936,-0.19,-0.19
23:19:38.940,-0.145,-0.175
23:19:38.944,-0.165,-0.185
23:19:38.948,-0.165,-0.19
23:19:38.952,-0.135,-0.185
23:19:38.956,-0.1,-0.2
23:19:38.960,-0.03,-0.195
23:19:38.964,0.06,-0.175
23:19:38.968,0.15,-0.175
23:19:38.972,0.22,-0.2
23:19:38.976,0.28,-0.235
23:19:38.980,0.31,-0.28
23:19:38.984,0.34,-0.265
23:19:38.988,0.36,-0.265
23:19:38.992,0.31,-0.26
23:19:38.996,0.29,-0.335
23:19:39.000,0.385,-0.435
23:19:39.004,0.665,-0.6
23:19:39.008,0.97,-0.82
23:19:39.012,1.245,-1.1
23:19:39.016,1.295,-1.275
23:19:39.020,1.095,-1.26
23:19:39.024,0.635,-0.97
23:19:39.028,0.22,-0.575
23:19:39.032,0.005,-0.28
23:19:39.036,-0.125,-0.15
23:19:39.040,-0.16,-0.06
23:19:39.044,-0.2,-0.035
23:19:39.048,-0.255,-0.035
23:19:39.052,-0.285,-0.03
23:19:39.056,-0.275,-0.03
23:19:39.060,-0.3,-0.03
23:19:39.064,-0.3,-0.055
23:19:39.068,-0.295,-0.11
23:19:39.072,-0.33,-0.1
23:19:39.076,-0.325,-0.105
23:19:39.080,-0.32,-0.07
23:19:39.084,-0.32,-0.1
23:19:39.088,-0.305,-0.115
23:19:39.092,-0.325,-0.085
23:19:39.096,-0.32,-0.095
23:19:39.100,-0.345,-0.1
23:19:39.104,-0.35,-0.105
23:19:39.108,-0.345,-0.09
23:19:39.112,-0.36,-0.095
23:19:39.116,-0.39,-0.115
23:19:39.120,-0.38,-0.095
23:19:39.124,-0.385,-0.1
23:19:39.128,-0.395,-0.12
23:19:39.132,-0.4,-0.12
23:19:39.136,-0.405,-0.11
23:19:39.140,-0.41,-0.11
23:19:39.144,-0.415,-0.13
23:19:39.148,-0.42,-0.13
23:19:39.152,-0.41,-0.125
23:19:39.156,-0.42,-0.115
23:19:39.160,-0.42,-0.105
23:19:39.164,-0.435,-0.105
23:19:39.168,-0.435,-0.105
23:19:39.172,-0.42,-0.1
23:19:39.176,-0.425,-0.11
23:19:39.180,-0.415,-0.105
23:19:39.184,-0.4,-0.1
23:19:39.188,-0.405,-0.12
23:19:39.192,-0.415,-0.11
23:19:39.196,-0.395,-0.1
23:19:39.200,-0.4,-0.115
23:19:39.204,-0.37,-0.1
23:19:39.208,-0.395,-0.11
23:19:39.212,-0.385,-0.09
23:19:39.216,-0.385,-0.105
23:19:39.220,-0.355,-0.095
23:19:39.224,-0.335,-0.105
23:19:39.228,-0.34,-0.12
23:19:39.232,-0.34,-0.12
23:19:39.236,-0.335,-0.1
23:19:39.240,-0.32,-0.12
23:19:39.244,-0.31,-0.13
23:19:39.248,-0.31,-0.135
23:19:39.252,-0.29,-0.115
23:19:39.256,-0.285,-0.115
23:19:39.260,-0.265,-0.135
23:19:39.264,-0.245,-0.12
23:19:39.268,-0.23,-0.125
23:19:39.272,-0.215,-0.11
23:19:39.276,-0.21,-0.14
23:19:39.280,-0.2,-0.12
23:19:39.284,-0.18,-0.1
23:19:39.288,-0.18,-0.12
23:19:39.292,-0.16,-0.105
23:19:39.296,-0.155,-0.12
23:19:39.300,-0.15,-0.11
23:19:39.304,-0.15,-0.095
23:19:39.308,-0.135,-0.085
23:19:39.312,-0.135,-0.06
23:19:39.316,-0.145,-0.06
23:19:39.320,-0.115,-0.065
23:19:39.324,-0.145,-0.065
23:19:39.328,-0.13,-0.065
23:19:39.332,-0.12,-0.055
23:19:39.336,-0.125,-0.06
23:19:39.340,-0.115,-0.05
23:19:39.344,-0.14,-0.05
23:19:39.348,-0.11,-0.05
23:19:39.352,-0.09,-0.02
23:19:39.356,-0.08,-0.045
23:19:39.360,-0.08,-0.05
23:19:39.364,-0.08,-0.025
23:19:39.368,-0.035,-0.02
23:19:39.372,0.005,0.0
23:19:39.376,0.035,0.01
23:19:39.380,0.075,0.025
23:19:39.384,0.11,0.035
23:19:39.388,0.15,0.06
23:19:39.392,0.16,0.045
23:19:39.396,0.185,0.05
23:19:39.400,0.185,0.055
23:19:39.404,0.185,0.03
23:19:39.408,0.155,0.015
23:19:39.412,0.11,-0.015
23:19:39.416,0.05,-0.03
23:19:39.420,0.015,-0.01
23:19:39.424,-0.05,-0.01
23:19:39.428,-0.11,-0.005
23:19:39.432,-0.165,-0.015
23:19:39.436,-0.18,0.005
23:19:39.440,-0.215,0.005
23:19:39.444,-0.215,0.0
23:19:39.448,-0.22,0.015
23:19:39.452,-0.22,-0.01
23:19:39.456,-0.215,-0.01
23:19:39.460,-0.225,-0.015
23:19:39.464,-0.21,-0.015
23:19:39.468,-0.2,-0.025
23:19:39.472,-0.21,-0.025
23:19:39.476,-0.22,-0.045
23:19:39.480,-0.225,-0.05
23:19:39.484,-0.215,-0.035
23:19:39.488,-0.205,-0.06
23:19:39.492,-0.205,-0.055
23:19:39.496,-0.19,-0.075
23:19:39.500,-0.19,-0.065
23:19:39.504,-0.215,-0.06
23:19:39.508,-0.195,-0.055
23:19:39.512,-0.195,-0.035
23:19:39.516,-0.185,-0.05
23:19:39.520,-0.19,-0.07
23:19:39.524,-0.185,-0.075
23:19:39.528,-0.17,-0.065
23:19:39.532,-0.17,-0.08
23:19:39.536,-0.175,-0.055
23:19:39.540,-0.165,-0.035
23:19:39.544,-0.165,-0.03
23:19:39.548,-0.16,-0.04
23:19:39.552,-0.12,-0.04
23:19:39.556,-0.06,-0.06
23:19:39.560,0.025,-0.045
23:19:39.564,0.1,-0.065
23:19:39.568,0.16,-0.085
23:19:39.572,0.2,-0.105
23:19:39.576,0.215,-0.145
23:19:39.580,0.23,-0.155
23:19:39.584,0.225,-0.145
23:19:39.588,0.18,-0.195
23:19:39.592,0.19,-0.265
23:19:39.596,0.35,-0.365
23:19:39.600,0.645,-0.55
23:19:39.604,0.965,-0.835
23:19:39.608,1.23,-1.065
23:19:39.612,1.225,-1.215
23:19:39.616,0.985,-1.13
23:19:39.620,0.51,-0.795
23:19:39.624,0.1,-0.4
23:19:39.628,-0.095,-0.125
23:19:39.632,-0.2,0.02
23:19:39.636,-0.25,0.085
23:19:39.640,-0.275,0.11
23:19:39.644,-0.31,0.13
23:19:39.648,-0.325,0.14
23:19:39.652,-0.34,0.115
23:19:39.656,-0.35,0.095
23:19:39.660,-0.365,0.065
23:19:39.664,-0.355,0.045
23:19:39.668,-0.365,0.03
23:19:39.672,-0.375,0.015
23:19:39.676,-0.37,0.06
23:19:39.680,-0.375,0.04
23:19:39.684,-0.375,0.035
23:19:39.688,-0.39,0.02
23:19:39.692,-0.385,0.02
23:19:39.696,-0.405,0.015
23:19:39.700,-0.4,0.02
23:19:39.704,-0.395,0.0
23:19:39.708,-0.38,0.015
23:19:39.712,-0.41,0.02
23:19:39.716,-0.4,0.005
23:19:39.720,-0.41,0.0
23:19:39.724,-0.425,0.02
23:19:39.728,-0.435,0.015
23:19:39.732,-0.43,0.02
23:19:39.736,-0.415,0.01
23:19:39.740,-0.415,0.015
23:19:39.744,-0.405,0.025
23:19:39.748,-0.425,0.015
23:19:39.752,-0.43,0.0
23:19:39.756,-0.45,0.02
23:19:39.760,-0.43,0.01
23:19:39.764,-0.42,-0.015
23:19:39.768,-0.435,0.0
23:19:39.772,-0.42,0.0
23:19:39.776,-0.42,0.005
23:19:39.780,-0.43,0.0
23:19:39.784,-0.405,0.0
23:19:39.788,-0.415,-0.015
23:19:39.792,-0.42,0.0
23:19:39.796,-0.395,-0.01
23:19:39.800,-0.41,-0.02
23:19:39.804,-0.42,-0.03
23:19:39.808,-0.395,-0.03
23:19:39.812,-0.39,-0.035
23:19:39.816,-0.375,-0.055
23:19:39.820,-0.385,-0.055
23:19:39.824,-0.355,-0.065
23:19:39.828,-0.34,-0.065
23:19:39.832,-0.345,-0.07
23:19:39.836,-0.345,-0.08
23:19:39.840,-0.33,-0.065
23:19:39.844,-0.325,-0.09
23:19:39.848,-0.315,-0.09
23:19:39.852,-0.29,-0.08
23:19:39.856,-0.265,-0.075
23:19:39.860,-0.265,-0.085
23:19:39.864,-0.24,-0.06
23:19:39.868,-0.235,-0.06
23:19:39.872,-0.21,-0.085
23:19:39.876,-0.2,-0.075
23:19:39.880,-0.175,-0.055
23:19:39.884,-0.175,-0.055
23:19:39.888,-0.175,-0.045
23:19:39.892,-0.19,-0.065
23:19:39.896,-0.175,-0.03
23:19:39.900,-0.19,-0.05
23:19:39.904,-0.165,-0.05
23:19:39.908,-0.16,-0.05
23:19:39.912,-0.195,-0.05
23:19:39.916,-0.18,-0.045
23:19:39.920,-0.16,-0.045
23:19:39.924,-0.185,-0.04
23:19:39.928,-0.17,-0.035
23:19:39.932,-0.15,-0.03
23:19:39.936,-0.145,-0.03
23:19:39.940,-0.125,-0.035
23:19:39.944,-0.115,-0.035
23:19:39.948,-0.12,-0.035
23:19:39.952,-0.1,-0.035
23:19:39.956,-0.095,0.005
23:19:39.960,-0.09,0.0
23:19:39.964,-0.02,0.01
23:19:39.968,0.02,0.005
23:19:39.972,0.05,0.045
23:19:39.976,0.095,0.06
23:19:39.980,0.105,0.055
23:19:39.984,0.135,0.06
23:19:39.988,0.16,0.065
23:19:39.992,0.145,0.075
23:19:39.996,0.13,0.055
23:19:40.000,0.105,0.025
23:19:40.004,0.065,0.0
23:19:40.008,0.015,-0.02
23:19:40.012,-0.055,-0.04
23:19:40.016,-0.1,-0.02
23:19:40.020,-0.155,-0.04
23:19:40.024,-0.225,-0.015
23:19:40.028,-0.24,-0.015
23:19:40.032,-0.27,-0.015
23:19:40.036,-0.275,-0.015
23:19:40.040,-0.265,-0.02
23:19:40.044,-0.265,-0.04
23:19:40.048,-0.275,-0.035
23:19:40.052,-0.26,-0.02
23:19:40.056,-0.25,-0.05
23:19:40.060,-0.255,-0.045
23:19:40.064,-0.25,-0.06
23:19:40.068,-0.235,-0.05
23:19:40.072,-0.25,-0.025
23:19:40.076,-0.245,-0.04
23:19:40.080,-0.255,-0.05
23:19:40.084,-0.21,-0.06
23:19:40.088,-0.22,-0.045
23:19:40.092,-0.225,-0.04
23:19:40.096,-0.23,-0.03
23:19:40.100,-0.215,-0.035
23:19:40.104,-0.22,-0.05
23:19:40.108,-0.23,-0.055
23:19:40.112,-0.24,-0.05
23:19:40.116,-0.245,-0.05
23:19:40.120,-0.25,-0.045
23:19:40.124,-0.26,-0.03
23:19:40.128,-0.225,-0.045
23:19:40.132,-0.255,-0.06
23:19:40.136,-0.24,-0.06
23:19:40.140,-0.23,-0.045
23:19:40.144,-0.205,-0.045
23:19:40.148,-0.125,-0.05
23:19:40.152,-0.02,-0.065
23:19:40.156,0.03,-0.065
23:19:40.160,0.11,-0.105
23:19:40.164,0.15,-0.125
23:19:40.168,0.16,-0.16
23:19:40.172,0.155,-0.155
23:19:40.176,0.15,-0.15
23:19:40.180,0.095,-0.195
23:19:40.184,0.155,-0.285
23:19:40.188,0.34,-0.415
23:19:40.192,0.69,-0.625
23:19:40.196,1.03,-0.87
23:19:40.200,1.225,-1.13
23:19:40.204,1.185,-1.215
23:19:40.208,0.845,-1.035
23:19:40.212,0.37,-0.665
23:19:40.216,0.02,-0.285
23:19:40.220,-0.145,-0.055
23:19:40.224,-0.25,0.055
23:19:40.228,-0.28,0.145
23:19:40.232,-0.33,0.13
23:19:40.236,-0.35,0.125
23:19:40.240,-0.365,0.11
23:19:40.244,-0.375,0.12
23:19:40.248,-0.415,0.085
23:19:40.252,-0.435,0.06
23:19:40.256,-0.405,0.04
23:19:40.260,-0.42,0.035
23:19:40.264,-0.425,0.03
23:19:40.268,-0.415,0.035
23:19:40.272,-0.44,0.03
23:19:40.276,-0.42,0.035
23:19:40.280,-0.43,0.035
23:19:40.284,-0.42,0.04
23:19:40.288,-0.42,0.04
23:19:40.292,-0.44,0.02
23:19:40.296,-0.425,0.035
23:19:40.300,-0.435,0.04
23:19:40.304,-0.435,0.02
23:19:40.308,-0.415,0.04
23:19:40.312,-0.43,0.02
23:19:40.316,-0.42,0.025
23:19:40.320,-0.435,0.035
23:19:40.324,-0.435,0.03
23:19:40.328,-0.45,0.025
23:19:40.332,-0.44,0.03
23:19:40.336,-0.455,0.05
23:19:40.340,-0.465,0.02
23:19:40.344,-0.46,0.045
23:19:40.348,-0.455,0.05
23:19:40.352,-0.475,0.035
23:19:40.356,-0.475,0.025
23:19:40.360,-0.46,0.02
23:19:40.364,-0.47,0.01
23:19:40.368,-0.475,0.035
23:19:40.372,-0.465,0.02
23:19:40.376,-0.465,0.015
23:19:40.380,-0.445,0.01
23:19:40.384,-0.425,0.005
23:19:40.388,-0.425,0.025
23:19:40.392,-0.44,0.015
23:19:40.396,-0.4,0.015
23:19:40.400,-0.4,0.005
23:19:40.404,-0.405,0.0
23:19:40.408,-0.39,-0.01
23:19:40.412,-0.375,-0.005
23:19:40.416,-0.365,0.0
23:19:40.420,-0.34,-0.02
23:19:40.424,-0.34,-0.015
23:19:40.428,-0.31,-0.04
23:19:40.432,-0.315,-0.01
23:19:40.436,-0.315,-0.02
23:19:40.440,-0.28,-0.03
23:19:40.444,-0.27,-0.015
23:19:40.448,-0.26,-0.03
23:19:40.452,-0.255,-0.035
23:19:40.456,-0.245,-0.02
23:19:40.460,-0.245,-0.02
23:19:40.464,-0.24,-0.01
23:19:40.468,-0.215,-0.03
23:19:40.472,-0.235,-0.045
23:19:40.476,-0.2,-0.015
23:19:40.480,-0.205,-0.01
23:19:40.484,-0.205,-0.02
23:19:40.488,-0.205,-0.015
23:19:40.492,-0.185,-0.01
23:19:40.496,-0.19,-0.035
23:19:40.500,-0.18,-0.02
23:19:40.504,-0.17,-0.02
23:19:40.508,-0.185,-0.025
23:19:40.512,-0.155,-0.01
23:19:40.516,-0.195,0.005
23:19:40.520,-0.195,0.01
23:19:40.524,-0.155,0.0
23:19:40.528,-0.145,0.01
23:19:40.532,-0.115,0.02
23:19:40.536,-0.105,-0.005
23:19:40.540,-0.08,0.02
23:19:40.544,-0.085,0.01
23:19:40.548,-0.075,0.015
23:19:40.552,-0.04,0.04
23:19:40.556,-0.02,0.07
23:19:40.560,0.025,0.075
23:19:40.564,0.06,0.075
23:19:40.568,0.095,0.085
23:19:40.572,0.13,0.095
23:19:40.576,0.135,0.1
23:19:40.580,0.14,0.105
23:19:40.584,0.125,0.09
23:19:40.588,0.12,0.055
23:19:40.592,0.08,0.03
23:19:40.596,0.02,0.0
23:19:40.600,0.0,0.005
23:19:40.604,-0.065,-0.015
23:19:40.608,-0.125,-0.005
23:19:40.612,-0.16,-0.005
23:19:40.616,-0.205,-0.01
23:19:40.620,-0.25,0.0
23:19:40.624,-0.25,0.02
23:19:40.628,-0.25,0.025
23:19:40.632,-0.275,0.015
23:19:40.636,-0.25,0.0
23:19:40.640,-0.25,-0.015
23:19:40.644,-0.215,-0.025
23:19:40.648,-0.21,-0.015
23:19:40.652,-0.195,-0.03
23:19:40.656,-0.19,-0.025
23:19:40.660,-0.205,-0.015
23:19:40.664,-0.225,-0.025
23:19:40.668,-0.215,-0.025
23:19:40.672,-0.23,-0.035
23:19:40.676,-0.225,-0.02
23:19:40.680,-0.24,-0.01
23:19:40.684,-0.24,-0.03
23:19:40.688,-0.23,-0.04
23:19:40.692,-0.25,-0.045
23:19:40.696,-0.25,-0.03
23:19:40.700,-0.255,-0.04
23:19:40.704,-0.245,-0.04
23:19:40.708,-0.26,-0.05
23:19:40.712,-0.25,-0.065
23:19:40.716,-0.265,-0.05
23:19:40.720,-0.255,-0.05
23:19:40.724,-0.24,-0.05
23:19:40.728,-0.21,-0.085
23:19:40.732,-0.215,-0.07
23:19:40.736,-0.175,-0.055
23:19:40.740,-0.105,-0.055
23:19:40.744,-0.03,-0.06
23:19:40.748,0.09,-0.075
23:19:40.752,0.145,-0.1
23:19:40.756,0.185,-0.145
23:19:40.760,0.2,-0.16
23:19:40.764,0.2,-0.16
23:19:40.768,0.19,-0.16
23:19:40.772,0.15,-0.2
23:19:40.776,0.205,-0.305
23:19:40.780,0.415,-0.435
23:19:40.784,0.73,-0.65
23:19:40.788,1.07,-0.94
23:19:40.792,1.235,-1.175
23:19:40.796,1.165,-1.225
23:19:40.800,0.79,-1.02
23:19:40.804,0.315,-0.635
23:19:40.808,-0.015,-0.3
23:19:40.812,-0.21,-0.07
23:19:40.816,-0.29,0.04
23:19:40.820,-0.33,0.095
23:19:40.824,-0.36,0.09
23:19:40.828,-0.37,0.08
23:19:40.832,-0.405,0.09
23:19:40.836,-0.415,0.05
23:19:40.840,-0.41,0.03
23:19:40.844,-0.425,0.015
23:19:40.848,-0.42,0.015
23:19:40.852,-0.45,0.005
23:19:40.856,-0.435,-0.005
23:19:40.860,-0.44,-0.01
23:19:40.864,-0.44,-0.005
23:19:40.868,-0.43,-0.02
23:19:40.872,-0.44,0.0
23:19:40.876,-0.43,0.0
23:19:40.880,-0.43,0.0
23:19:40.884,-0.425,-0.01
23:19:40.888,-0.43,0.0
23:19:40.892,-0.44,0.01
23:19:40.896,-0.47,0.0
23:19:40.900,-0.47,0.0
23:19:40.904,-0.47,-0.01
23:19:40.908,-0.47,-0.01
23:19:40.912,-0.475,0.005
23:19:40.916,-0.48,-0.015
23:19:40.920,-0.485,-0.005
23:19:40.924,-0.51,0.0
23:19:40.928,-0.515,0.0
23:19:40.932,-0.505,-0.025
23:19:40.936,-0.52,-0.01
23:19:40.940,-0.495,-0.025
23:19:40.944,-0.515,-0.03
23:19:40.948,-0.515,-0.035
23:19:40.952,-0.515,-0.035
23:19:40.956,-0.5,-0.025
23:19:40.960,-0.505,-0.035
23:19:40.964,-0.495,-0.015
23:19:40.968,-0.485,-0.025
23:19:40.972,-0.48,-0.03
23:19:40.976,-0.48,-0.025
23:19:40.980,-0.47,-0.035
23:19:40.984,-0.455,-0.05
23:19:40.988,-0.45,-0.025
23:19:40.992,-0.425,-0.045
23:19:40.996,-0.42,-0.025
23:19:41.000,-0.41,-0.025
23:19:41.004,-0.395,-0.03
23:19:41.008,-0.39,-0.035
23:19:41.012,-0.38,-0.05
23:19:41.016,-0.38,-0.055
23:19:41.020,-0.33,-0.05
23:19:41.024,-0.35,-0.08
23:19:41.028,-0.33,-0.085
23:19:41.032,-0.34,-0.075
23:19:41.036,-0.32,-0.08
23:19:41.040,-0.34,-0.09
23:19:41.044,-0.32,-0.08
23:19:41.048,-0.305,-0.075
23:19:41.052,-0.29,-0.09
23:19:41.056,-0.275,-0.105
23:19:41.060,-0.265,-0.12
23:19:41.064,-0.26,-0.085
23:19:41.068,-0.25,-0.095
23:19:41.072,-0.245,-0.085
23:19:41.076,-0.265,-0.065
23:19:41.080,-0.25,-0.06
23:19:41.084,-0.245,-0.055
23:19:41.088,-0.245,-0.06
23:19:41.092,-0.22,-0.065
23:19:41.096,-0.215,-0.07
23:19:41.100,-0.18,-0.07
23:19:41.104,-0.195,-0.04
23:19:41.108,-0.19,-0.03
23:19:41.112,-0.19,-0.04
23:19:41.116,-0.195,-0.03
23:19:41.120,-0.19,-0.04
23:19:41.124,-0.18,-0.035
23:19:41.128,-0.18,-0.03
23:19:41.132,-0.165,-0.035
23:19:41.136,-0.155,-0.005
23:19:41.140,-0.14,-0.01
23:19:41.144,-0.135,-0.025
23:19:41.148,-0.125,-0.02
23:19:41.152,-0.115,-0.005
23:19:41.156,-0.065,-0.005
23:19:41.160,-0.02,0.0
23:19:41.164,0.01,0.02
23:19:41.168,0.05,0.01
23:19:41.172,0.07,0.015
23:19:41.176,0.075,0.005
23:19:41.180,0.07,0.03
23:19:41.184,0.075,0.02
23:19:41.188,0.06,0.02
23:19:41.192,0.03,-0.025
23:19:41.196,-0.01,-0.045
23:19:41.200,-0.06,-0.065
23:19:41.204,-0.1,-0.07
23:19:41.208,-0.15,-0.04
23:19:41.212,-0.195,-0.065
23:19:41.216,-0.25,-0.03
23:19:41.220,-0.27,-0.03
23:19:41.224,-0.295,-0.02
23:19:41.228,-0.29,-0.05
23:19:41.232,-0.29,-0.04
23:19:41.236,-0.29,-0.03
23:19:41.240,-0.29,-0.04
23:19:41.244,-0.285,-0.055
23:19:41.248,-0.285,-0.06
23:19:41.252,-0.29,-0.05
23:19:41.256,-0.29,-0.06
23:19:41.260,-0.3,-0.055
23:19:41.264,-0.295,-0.045
23:19:41.268,-0.3,-0.085
23:19:41.272,-0.28,-0.05
23:19:41.276,-0.28,-0.055
23:19:41.280,-0.275,-0.065
23:19:41.284,-0.3,-0.065
23:19:41.288,-0.295,-0.065
23:19:41.292,-0.295,-0.08
23:19:41.296,-0.29,-0.075
23:19:41.300,-0.295,-0.085
23:19:41.304,-0.295,-0.06
23:19:41.308,-0.27,-0.06
23:19:41.312,-0.285,-0.045
23:19:41.316,-0.275,-0.065
23:19:41.320,-0.235,-0.05
23:19:41.324,-0.255,-0.085
23:19:41.328,-0.22,-0.065
23:19:41.332,-0.195,-0.08
23:19:41.336,-0.135,-0.05
23:19:41.340,-0.055,-0.055
23:19:41.344,0.025,-0.07
23:19:41.348,0.095,-0.075
23:19:41.352,0.145,-0.115
23:19:41.356,0.165,-0.125
23:19:41.360,0.185,-0.14
23:19:41.364,0.175,-0.135
23:19:41.368,0.145,-0.16
23:19:41.372,0.12,-0.245
23:19:41.376,0.205,-0.32
23:19:41.380,0.455,-0.505
23:19:41.384,0.785,-0.74
23:19:41.388,1.08,-1.005
23:19:41.392,1.225,-1.19
23:19:41.396,1.09,-1.205
23:19:41.400,0.695,-0.925
23:19:41.404,0.22,-0.53
23:19:41.408,-0.065,-0.195
23:19:41.412,-0.215,-0.025
23:19:41.416,-0.305,0.055
23:19:41.420,-0.32,0.09
23:19:41.424,-0.37,0.095
23:19:41.428,-0.39,0.1
23:19:41.432,-0.395,0.09
23:19:41.436,-0.4,0.08
23:19:41.440,-0.4,0.06
23:19:41.444,-0.415,0.03
23:19:41.448,-0.425,0.02
23:19:41.452,-0.405,0.0
23:19:41.456,-0.405,0.005
23:19:41.460,-0.41,0.005
23:19:41.464,-0.415,0.0
23:19:41.468,-0.435,0.005
23:19:41.472,-0.435,-0.015
23:19:41.476,-0.44,-0.005
23:19:41.480,-0.445,0.0
23:19:41.484,-0.44,0.0
23:19:41.488,-0.45,-0.01
23:19:41.492,-0.465,-0.015
23:19:41.496,-0.46,-0.025
23:19:41.500,-0.48,-0.04
23:19:41.504,-0.455,-0.01
23:19:41.508,-0.48,-0.02
23:19:41.512,-0.5,-0.05
23:19:41.516,-0.48,-0.035
23:19:41.520,-0.47,-0.02
23:19:41.524,-0.47,-0.04
23:19:41.528,-0.495,-0.035
23:19:41.532,-0.49,-0.03
23:19:41.536,-0.495,-0.055
23:19:41.540,-0.495,-0.025
23:19:41.544,-0.48,-0.03
23:19:41.548,-0.47,-0.05
23:19:41.552,-0.445,-0.06
23:19:41.556,-0.455,-0.05
23:19:41.560,-0.46,-0.03
23:19:41.564,-0.44,-0.055
23:19:41.568,-0.445,-0.05
23:19:41.572,-0.43,-0.055
23:19:41.576,-0.44,-0.05
23:19:41.580,-0.415,-0.05
23:19:41.584,-0.42,-0.045
23:19:41.588,-0.405,-0.075
23:19:41.592,-0.4,-0.08
23:19:41.596,-0.38,-0.095
23:19:41.600,-0.38,-0.08
23:19:41.604,-0.37,-0.075
23:19:41.608,-0.37,-0.07
23:19:41.612,-0.365,-0.095
23:19:41.616,-0.345,-0.11
23:19:41.620,-0.32,-0.1
23:19:41.624,-0.32,-0.13
23:19:41.628,-0.31,-0.125
23:19:41.632,-0.3,-0.135
23:19:41.636,-0.3,-0.135
23:19:41.640,-0.28,-0.125
23:19:41.644,-0.245,-0.13
23:19:41.648,-0.245,-0.14
23:19:41.652,-0.24,-0.125
23:19:41.656,-0.215,-0.14
23:19:41.660,-0.18,-0.13
23:19:41.664,-0.175,-0.105
23:19:41.668,-0.185,-0.12
23:19:41.672,-0.18,-0.12
23:19:41.676,-0.19,-0.12
23:19:41.680,-0.175,-0.11
23:19:41.684,-0.16,-0.115
23:19:41.688,-0.16,-0.105
23:19:41.692,-0.145,-0.11
23:19:41.696,-0.16,-0.095
23:19:41.700,-0.16,-0.11
23:19:41.704,-0.16,-0.12
23:19:41.708,-0.17,-0.105
23:19:41.712,-0.175,-0.105
23:19:41.716,-0.16,-0.09
23:19:41.720,-0.2,-0.11
23:19:41.724,-0.175,-0.09
23:19:41.728,-0.19,-0.125
23:19:41.732,-0.16,-0.095
23:19:41.736,-0.15,-0.095
23:19:41.740,-0.135,-0.11
23:19:41.744,-0.12,-0.115
23:19:41.748,-0.14,-0.105
23:19:41.752,-0.095,-0.105
23:19:41.756,-0.05,-0.1
23:19:41.760,0.0,-0.075
23:19:41.764,0.03,-0.07
23:19:41.768,0.08,-0.05
23:19:41.772,0.105,-0.045
23:19:41.776,0.135,-0.045
23:19:41.780,0.15,-0.055
23:19:41.784,0.15,-0.02
23:19:41.788,0.155,-0.04
23:19:41.792,0.145,-0.08
23:19:41.796,0.08,-0.115
23:19:41.800,0.03,-0.135
23:19:41.804,-0.01,-0.12
23:19:41.808,-0.08,-0.15
23:19:41.812,-0.12,-0.16
23:19:41.816,-0.17,-0.14
23:19:41.820,-0.24,-0.16
23:19:41.824,-0.265,-0.16
23:19:41.828,-0.29,-0.125
23:19:41.832,-0.28,-0.155
23:19:41.836,-0.27,-0.15
23:19:41.840,-0.26,-0.17
23:19:41.844,-0.255,-0.16
23:19:41.848,-0.245,-0.18
23:19:41.852,-0.26,-0.18
23:19:41.856,-0.26,-0.18
23:19:41.860,-0.235,-0.195
23:19:41.864,-0.25,-0.2
23:19:41.868,-0.25,-0.21
23:19:41.872,-0.255,-0.18
23:19:41.876,-0.245,-0.205
23:19:41.880,-0.23,-0.2
23:19:41.884,-0.225,-0.21
23:19:41.888,-0.23,-0.19
23:19:41.892,-0.255,-0.195
23:19:41.896,-0.235,-0.205
23:19:41.900,-0.225,-0.185
23:19:41.904,-0.255,-0.195
23:19:41.908,-0.21,-0.185
23:19:41.912,-0.22,-0.205
23:19:41.916,-0.23,-0.215
23:19:41.920,-0.22,-0.19
23:19:41.924,-0.23,-0.225
23:19:41.928,-0.23,-0.22
23:19:41.932,-0.195,-0.21
23:19:41.936,-0.18,-0.22
23:19:41.940,-0.095,-0.215
23:19:41.944,-0.005,-0.235
23:19:41.948,0.08,-0.25
23:19:41.952,0.185,-0.255
23:19:41.956,0.24,-0.29
23:19:41.960,0.27,-0.325
23:19:41.964,0.3,-0.32
23:19:41.968,0.265,-0.3
23:19:41.972,0.21,-0.345
23:19:41.976,0.23,-0.4
23:19:41.980,0.415,-0.54
23:19:41.984,0.745,-0.73
23:19:41.988,1.065,-1.015
23:19:41.992,1.25,-1.23
23:19:41.996,1.175,-1.325
23:19:42.000,0.8,-1.14
23:19:42.004,0.34,-0.76
23:19:42.008,0.04,-0.415
23:19:42.012,-0.13,-0.235
23:19:42.016,-0.21,-0.12
23:19:42.020,-0.26,-0.06
23:19:42.024,-0.29,-0.04
23:19:42.028,-0.34,-0.045
23:19:42.032,-0.355,-0.055
23:19:42.036,-0.385,-0.08
23:19:42.040,-0.405,-0.1
23:19:42.044,-0.395,-0.115
23:19:42.048,-0.42,-0.16
23:19:42.052,-0.42,-0.18
23:19:42.056,-0.43,-0.17
23:19:42.060,-0.42,-0.15
23:19:42.064,-0.44,-0.17
23:19:42.068,-0.43,-0.17
23:19:42.072,-0.42,-0.18
23:19:42.076,-0.425,-0.18
23:19:42.080,-0.43,-0.175
23:19:42.084,-0.44,-0.185
23:19:42.088,-0.44,-0.17
23:19:42.092,-0.435,-0.17
23:19:42.096,-0.445,-0.165
23:19:42.100,-0.43,-0.18
23:19:42.104,-0.445,-0.18
23:19:42.108,-0.45,-0.16
23:19:42.112,-0.45,-0.165
23:19:42.116,-0.445,-0.18
23:19:42.120,-0.445,-0.195
23:19:42.124,-0.46,-0.18
23:19:42.128,-0.46,-0.18
23:19:42.132,-0.47,-0.165
23:19:42.136,-0.47,-0.17
23:19:42.140,-0.48,-0.18
23:19:42.144,-0.465,-0.2
23:19:42.148,-0.47,-0.175
23:19:42.152,-0.47,-0.18
23:19:42.156,-0.47,-0.18
23:19:42.160,-0.47,-0.2
23:19:42.164,-0.48,-0.195
23:19:42.168,-0.46,-0.18
23:19:42.172,-0.45,-0.19
23:19:42.176,-0.45,-0.195
23:19:42.180,-0.44,-0.18
23:19:42.184,-0.425,-0.2
23:19:42.188,-0.42,-0.19
23:19:42.192,-0.41,-0.22
23:19:42.196,-0.39,-0.21
23:19:42.200,-0.395,-0.21
23:19:42.204,-0.37,-0.205
23:19:42.208,-0.36,-0.23
23:19:42.212,-0.37,-0.21
23:19:42.216,-0.35,-0.23
23:19:42.220,-0.335,-0.21
23:19:42.224,-0.315,-0.225
23:19:42.228,-0.31,-0.225
23:19:42.232,-0.285,-0.225
23:19:42.236,-0.28,-0.235
23:19:42.240,-0.26,-0.23
23:19:42.244,-0.26,-0.225
23:19:42.248,-0.245,-0.22
23:19:42.252,-0.245,-0.21
23:19:42.256,-0.245,-0.215
23:19:42.260,-0.21,-0.22
23:19:42.264,-0.23,-0.21
23:19:42.268,-0.22,-0.205
23:19:42.272,-0.225,-0.2
23:19:42.276,-0.225,-0.225
23:19:42.280,-0.22,-0.215
23:19:42.284,-0.205,-0.225
23:19:42.288,-0.2,-0.195
23:19:42.292,-0.205,-0.2
23:19:42.296,-0.2,-0.2
23:19:42.300,-0.19,-0.205
23:19:42.304,-0.195,-0.2
23:19:42.308,-0.205,-0.19
23:19:42.312,-0.2,-0.18
23:19:42.316,-0.21,-0.18
23:19:42.320,-0.2,-0.19
23:19:42.324,-0.2,-0.185
23:19:42.328,-0.2,-0.185
23:19:42.332,-0.175,-0.19
23:19:42.336,-0.17,-0.17
23:19:42.340,-0.145,-0.175
23:19:42.344,-0.13,-0.18
23:19:42.348,-0.13,-0.16
23:19:42.352,-0.14,-0.165
23:19:42.356,-0.13,-0.14
23:19:42.360,-0.07,-0.13
23:19:42.364,-0.01,-0.115
23:19:42.368,0.02,-0.1
23:19:42.372,0.06,-0.105
23:19:42.376,0.07,-0.085
23:19:42.380,0.105,-0.11
23:19:42.384,0.11,-0.095
23:19:42.388,0.11,-0.08
23:19:42.392,0.115,-0.075
23:19:42.396,0.085,-0.135
23:19:42.400,0.035,-0.16
23:19:42.404,-0.005,-0.19
23:19:42.408,-0.04,-0.175
23:19:42.412,-0.115,-0.17
23:19:42.416,-0.17,-0.17
23:19:42.420,-0.215,-0.165
23:19:42.424,-0.255,-0.15
23:19:42.428,-0.28,-0.15
23:19:42.432,-0.29,-0.145
23:19:42.436,-0.295,-0.155
23:19:42.440,-0.285,-0.155
23:19:42.444,-0.265,-0.155
23:19:42.448,-0.25,-0.16
23:19:42.452,-0.25,-0.155
23:19:42.456,-0.265,-0.165
23:19:42.460,-0.26,-0.155
23:19:42.464,-0.25,-0.16
23:19:42.468,-0.235,-0.15
23:19:42.472,-0.26,-0.14
23:19:42.476,-0.255,-0.15
23:19:42.480,-0.25,-0.14
23:19:42.484,-0.25,-0.125
23:19:42.488,-0.245,-0.155
23:19:42.492,-0.26,-0.15
23:19:42.496,-0.27,-0.16
23:19:42.500,-0.28,-0.15
23:19:42.504,-0.29,-0.16
23:19:42.508,-0.27,-0.16
23:19:42.512,-0.27,-0.165
23:19:42.516,-0.265,-0.18
23:19:42.520,-0.26,-0.18
23:19:42.524,-0.27,-0.16
23:19:42.528,-0.275,-0.17
23:19:42.532,-0.255,-0.145
23:19:42.536,-0.23,-0.2
23:19:42.540,-0.2,-0.17
23:19:42.544,-0.12,-0.15
23:19:42.548,-0.04,-0.155
23:19:42.552,0.05,-0.16
23:19:42.556,0.13,-0.2
23:19:42.560,0.175,-0.22
23:19:42.564,0.21,-0.245
23:19:42.568,0.25,-0.24
23:19:42.572,0.235,-0.23
23:19:42.576,0.175,-0.28
23:19:42.580,0.23,-0.335
23:19:42.584,0.41,-0.48
23:19:42.588,0.725,-0.69
23:19:42.592,1.06,-0.975
23:19:42.596,1.27,-1.15
23:19:42.600,1.185,-1.26
23:19:42.604,0.825,-1.08
23:19:42.608,0.33,-0.715
23:19:42.612,-0.035,-0.34
23:19:42.616,-0.2,-0.13
23:19:42.620,-0.3,-0.02
23:19:42.624,-0.34,0.04
23:19:42.628,-0.37,0.06
23:19:42.632,-0.405,0.055
23:19:42.636,-0.42,0.03
23:19:42.640,-0.42,0.02
23:19:42.644,-0.415,0.0
23:19:42.648,-0.44,-0.02
23:19:42.652,-0.445,-0.015
23:19:42.656,-0.455,-0.035
23:19:42.660,-0.465,-0.02
23:19:42.664,-0.465,-0.035
23:19:42.668,-0.48,-0.02
23:19:42.672,-0.465,-0.005
23:19:42.676,-0.455,-0.045
23:19:42.680,-0.45,-0.01
23:19:42.684,-0.455,-0.025
23:19:42.688,-0.495,-0.005
23:19:42.692,-0.45,-0.01
23:19:42.696,-0.48,-0.01
23:19:42.700,-0.505,-0.015
23:19:42.704,-0.5,-0.015
23:19:42.708,-0.51,-0.015
23:19:42.712,-0.5,0.0
23:19:42.716,-0.52,-0.01
23:19:42.720,-0.535,-0.015
23:19:42.724,-0.535,-0.02
23:19:42.728,-0.545,-0.03
23:19:42.732,-0.54,-0.04
23:19:42.736,-0.57,-0.01
23:19:42.740,-0.56,-0.03
23:19:42.744,-0.55,-0.05
23:19:42.748,-0.55,-0.04
23:19:42.752,-0.56,-0.06
23:19:42.756,-0.54,-0.03
23:19:42.760,-0.56,-0.03
23:19:42.764,-0.555,-0.03
23:19:42.768,-0.545,-0.04
23:19:42.772,-0.55,-0.06
23:19:42.776,-0.52,-0.04
23:19:42.780,-0.51,-0.045
23:19:42.784,-0.485,-0.05
23:19:42.788,-0.47,-0.025
23:19:42.792,-0.465,-0.04
23:19:42.796,-0.46,-0.05
23:19:42.800,-0.47,-0.05
23:19:42.804,-0.44,-0.04
23:19:42.808,-0.455,-0.08
23:19:42.812,-0.44,-0.065
23:19:42.816,-0.455,-0.07
23:19:42.820,-0.415,-0.075
23:19:42.824,-0.405,-0.055
23:19:42.828,-0.395,-0.085
23:19:42.832,-0.4,-0.08
23:19:42.836,-0.375,-0.09
23:19:42.840,-0.385,-0.105
23:19:42.844,-0.36,-0.105
23:19:42.848,-0.345,-0.11
23:19:42.852,-0.33,-0.11
23:19:42.856,-0.315,-0.095
23:19:42.860,-0.31,-0.11
23:19:42.864,-0.32,-0.12
23:19:42.868,-0.3,-0.1
23:19:42.872,-0.29,-0.08
23:19:42.876,-0.27,-0.1
23:19:42.880,-0.275,-0.11
23:19:42.884,-0.275,-0.1
23:19:42.888,-0.255,-0.11
23:19:42.892,-0.245,-0.09
23:19:42.896,-0.25,-0.06
23:19:42.900,-0.24,-0.065
23:19:42.904,-0.25,-0.06
23:19:42.908,-0.25,-0.07
23:19:42.912,-0.245,-0.07
23:19:42.916,-0.25,-0.04
23:19:42.920,-0.23,-0.035
23:19:42.924,-0.245,-0.045
23:19:42.928,-0.24,-0.04
23:19:42.932,-0.25,-0.04
23:19:42.936,-0.21,-0.04
23:19:42.940,-0.22,-0.05
23:19:42.944,-0.23,-0.065
23:19:42.948,-0.205,-0.05
23:19:42.952,-0.205,-0.05
23:19:42.956,-0.19,-0.02
23:19:42.960,-0.145,-0.03
23:19:42.964,-0.12,-0.02
23:19:42.968,-0.045,-0.005
23:19:42.972,-0.035,0.0
23:19:42.976,-0.01,-0.025
23:19:42.980,0.03,-0.01
23:19:42.984,0.035,0.0
23:19:42.988,0.05,0.005
23:19:42.992,0.045,0.0
23:19:42.996,0.02,-0.02
23:19:43.000,-0.03,-0.05
23:19:43.004,-0.08,-0.05
23:19:43.008,-0.115,-0.07
23:19:43.012,-0.175,-0.06
23:19:43.016,-0.22,-0.065
23:19:43.020,-0.26,-0.04
23:19:43.024,-0.32,-0.025
23:19:43.028,-0.33,-0.035
23:19:43.032,-0.35,-0.035
23:19:43.036,-0.34,-0.03
23:19:43.040,-0.355,-0.05
23:19:43.044,-0.35,-0.065
23:19:43.048,-0.35,-0.07
23:19:43.052,-0.345,-0.05
23:19:43.056,-0.355,-0.065
23:19:43.060,-0.375,-0.055
23:19:43.064,-0.355,-0.07
23:19:43.068,-0.36,-0.085
23:19:43.072,-0.36,-0.1
23:19:43.076,-0.36,-0.09
23:19:43.080,-0.36,-0.085
23:19:43.084,-0.36,-0.07
23:19:43.088,-0.355,-0.08
23:19:43.092,-0.37,-0.09
23:19:43.096,-0.36,-0.06
23:19:43.100,-0.36,-0.085
23:19:43.104,-0.38,-0.07
23:19:43.108,-0.34,-0.09
23:19:43.112,-0.38,-0.1
23:19:43.116,-0.355,-0.08
23:19:43.120,-0.34,-0.07
23:19:43.124,-0.335,-0.055
23:19:43.128,-0.34,-0.075
23:19:43.132,-0.33,-0.065
23:19:43.136,-0.295,-0.08
23:19:43.140,-0.28,-0.095
23:19:43.144,-0.2,-0.1
23:19:43.148,-0.13,-0.08
23:19:43.152,-0.03,-0.095
23:19:43.156,0.03,-0.11
23:19:43.160,0.06,-0.16
23:19:43.164,0.07,-0.18
23:19:43.168,0.1,-0.19
23:19:43.172,0.08,-0.18
23:19:43.176,0.05,-0.24
23:19:43.180,0.045,-0.335
23:19:43.184,0.17,-0.42
23:19:43.188,0.445,-0.635
23:19:43.192,0.79,-0.86
23:19:43.196,1.07,-1.12
23:19:43.200,1.12,-1.255
23:19:43.204,0.895,-1.18
23:19:43.208,0.44,-0.865
23:19:43.212,0.005,-0.455
23:19:43.216,-0.23,-0.17
23:19:43.220,-0.33,0.0
23:19:43.224,-0.405,0.055
23:19:43.228,-0.41,0.1
23:19:43.232,-0.435,0.07
23:19:43.236,-0.445,0.07
23:19:43.240,-0.45,0.055
23:19:43.244,-0.47,0.055
23:19:43.248,-0.485,0.02
23:19:43.252,-0.485,0.025
23:19:43.256,-0.5,-0.005
23:19:43.260,-0.51,0.0
23:19:43.264,-0.495,0.01
23:19:43.268,-0.505,0.005
23:19:43.272,-0.49,0.01
23:19:43.276,-0.495,-0.01
23:19:43.280,-0.535,0.01
23:19:43.284,-0.53,0.0
23:19:43.288,-0.545,0.005
23:19:43.292,-0.53,-0.005
23:19:43.296,-0.545,-0.01
23:19:43.300,-0.53,0.0
23:19:43.304,-0.55,-0.015
23:19:43.308,-0.57,-0.02
23:19:43.312,-0.56,-0.01
23:19:43.316,-0.56,-0.03
23:19:43.320,-0.565,-0.01
23:19:43.324,-0.565,0.005
23:19:43.328,-0.58,-0.015
23:19:43.332,-0.575,0.0
23:19:43.336,-0.585,0.0
23:19:43.340,-0.57,-0.01
23:19:43.344,-0.56,0.0
23:19:43.348,-0.56,0.0
23:19:43.352,-0.56,-0.01
23:19:43.356,-0.55,0.0
23:19:43.360,-0.55,-0.015
23:19:43.364,-0.565,-0.015
23:19:43.368,-0.54,0.0
23:19:43.372,-0.545,0.0
23:19:43.376,-0.535,0.005
23:19:43.380,-0.53,0.01
23:19:43.384,-0.52,-0.02
23:19:43.388,-0.52,-0.02
23:19:43.392,-0.51,-0.015
23:19:43.396,-0.505,-0.025
23:19:43.400,-0.51,-0.02
23:19:43.404,-0.485,-0.04
23:19:43.408,-0.46,-0.05
23:19:43.412,-0.465,-0.04
23:19:43.416,-0.465,-0.045
23:19:43.420,-0.445,-0.065
23:19:43.424,-0.435,-0.05
23:19:43.428,-0.42,-0.08
23:19:43.432,-0.395,-0.075
23:19:43.436,-0.41,-0.07
23:19:43.440,-0.395,-0.05
23:19:43.444,-0.39,-0.09
23:19:43.448,-0.36,-0.07
23:19:43.452,-0.335,-0.08
23:19:43.456,-0.325,-0.07
23:19:43.460,-0.3,-0.065
23:19:43.464,-0.3,-0.065
23:19:43.468,-0.305,-0.07
23:19:43.472,-0.285,-0.05
23:19:43.476,-0.265,-0.055
23:19:43.480,-0.27,-0.05
23:19:43.484,-0.25,-0.07
23:19:43.488,-0.29,-0.055
23:19:43.492,-0.27,-0.025
23:19:43.496,-0.265,-0.03
23:19:43.500,-0.24,-0.03
23:19:43.504,-0.27,-0.06
23:19:43.508,-0.255,-0.045
23:19:43.512,-0.265,-0.03
23:19:43.516,-0.27,-0.035
23:19:43.520,-0.26,-0.045
23:19:43.524,-0.27,-0.02
23:19:43.528,-0.24,-0.05
23:19:43.532,-0.255,-0.05
23:19:43.536,-0.215,-0.03
23:19:43.540,-0.2,-0.01
23:19:43.544,-0.19,-0.03
23:19:43.548,-0.19,0.0
23:19:43.552,-0.185,-0.015
23:19:43.556,-0.14,0.0
23:19:43.560,-0.085,0.005
23:19:43.564,-0.03,0.025
23:19:43.568,-0.01,0.025
23:19:43.572,0.02,0.035
23:19:43.576,0.06,0.045
23:19:43.580,0.075,0.055
23:19:43.584,0.06,0.06
23:19:43.588,0.065,0.085
23:19:43.592,0.04,0.03
23:19:43.596,0.02,0.005
23:19:43.600,-0.025,-0.01
23:19:43.604,-0.08,-0.025
23:19:43.608,-0.135,-0.025
23:19:43.612,-0.2,-0.04
23:19:43.616,-0.265,-0.035
23:19:43.620,-0.295,-0.025
23:19:43.624,-0.32,-0.005
23:19:43.628,-0.345,-0.015
23:19:43.632,-0.345,-0.005
23:19:43.636,-0.335,-0.025
23:19:43.640,-0.33,-0.05
23:19:43.644,-0.325,-0.05
23:19:43.648,-0.32,-0.065
23:19:43.652,-0.32,-0.05
23:19:43.656,-0.32,-0.04
23:19:43.660,-0.34,-0.05
23:19:43.664,-0.325,-0.075
23:19:43.668,-0.315,-0.065
23:19:43.672,-0.315,-0.075
23:19:43.676,-0.32,-0.065
23:19:43.680,-0.285,-0.07
23:19:43.684,-0.295,-0.08
23:19:43.688,-0.29,-0.1
23:19:43.692,-0.295,-0.1
23:19:43.696,-0.31,-0.06
23:19:43.700,-0.31,-0.065
23:19:43.704,-0.31,-0.075
23:19:43.708,-0.305,-0.055
23:19:43.712,-0.31,-0.075
23:19:43.716,-0.305,-0.055
23:19:43.720,-0.32,-0.085
23:19:43.724,-0.305,-0.085
23:19:43.728,-0.33,-0.075
23:19:43.732,-0.325,-0.09
23:19:43.736,-0.31,-0.08
23:19:43.740,-0.265,-0.095
23:19:43.744,-0.2,-0.1
23:19:43.748,-0.11,-0.1
23:19:43.752,-0.02,-0.14
23:19:43.756,0.05,-0.125
23:19:43.760,0.065,-0.18
23:19:43.764,0.105,-0.225
23:19:43.768,0.1,-0.2
23:19:43.772,0.075,-0.19
23:19:43.776,0.06,-0.27
23:19:43.780,0.075,-0.335
23:19:43.784,0.27,-0.475
23:19:43.788,0.585,-0.69
23:19:43.792,0.92,-0.96
23:19:43.796,1.155,-1.195
23:19:43.800,1.13,-1.275
23:19:43.804,0.825,-1.105
23:19:43.808,0.34,-0.72
23:19:43.812,-0.035,-0.35
23:19:43.816,-0.225,-0.125
23:19:43.820,-0.32,0.025
23:19:43.824,-0.39,0.07
23:19:43.828,-0.41,0.07
23:19:43.832,-0.44,0.055
23:19:43.836,-0.465,0.07
23:19:43.840,-0.48,0.04
23:19:43.844,-0.48,0.015
23:19:43.848,-0.5,0.0
23:19:43.852,-0.495,-0.02
23:19:43.856,-0.49,-0.035
23:19:43.860,-0.51,-0.055
23:19:43.864,-0.505,-0.055
23:19:43.868,-0.515,-0.045
23:19:43.872,-0.505,-0.045
23:19:43.876,-0.535,-0.055
23:19:43.880,-0.53,-0.035
23:19:43.884,-0.535,-0.05
23:19:43.888,-0.54,-0.05
23:19:43.892,-0.525,-0.04
23:19:43.896,-0.52,-0.04
23:19:43.900,-0.53,-0.055
23:19:43.904,-0.535,-0.025
23:19:43.908,-0.53,-0.035
23:19:43.912,-0.545,-0.025
23:19:43.916,-0.525,-0.045
23:19:43.920,-0.545,-0.015
23:19:43.924,-0.56,-0.05
23:19:43.928,-0.56,-0.04
23:19:43.932,-0.56,-0.04
23:19:43.936,-0.555,-0.02
23:19:43.940,-0.58,-0.045
23:19:43.944,-0.57,-0.025
23:19:43.948,-0.585,-0.055
23:19:43.952,-0.59,-0.05
23:19:43.956,-0.59,-0.06
23:19:43.960,-0.575,-0.08
23:19:43.964,-0.58,-0.06
23:19:43.968,-0.57,-0.075
23:19:43.972,-0.56,-0.07
23:19:43.976,-0.565,-0.065
23:19:43.980,-0.545,-0.075
23:19:43.984,-0.515,-0.07
23:19:43.988,-0.53,-0.075
23:19:43.992,-0.51,-0.105
23:19:43.996,-0.52,-0.08
23:19:44.000,-0.51,-0.065
23:19:44.004,-0.5,-0.09
23:19:44.008,-0.47,-0.085
23:19:44.012,-0.465,-0.1
23:19:44.016,-0.44,-0.09
23:19:44.020,-0.44,-0.095
23:19:44.024,-0.44,-0.11
23:19:44.028,-0.415,-0.08
23:19:44.032,-0.4,-0.08
23:19:44.036,-0.395,-0.085
23:19:44.040,-0.37,-0.095
23:19:44.044,-0.36,-0.115
23:19:44.048,-0.34,-0.1
23:19:44.052,-0.355,-0.105
23:19:44.056,-0.335,-0.115
23:19:44.060,-0.36,-0.11
23:19:44.064,-0.34,-0.095
23:19:44.068,-0.33,-0.09
23:19:44.072,-0.325,-0.09
23:19:44.076,-0.32,-0.09
23:19:44.080,-0.31,-0.105
23:19:44.084,-0.29,-0.1
23:19:44.088,-0.29,-0.1
23:19:44.092,-0.275,-0.11
23:19:44.096,-0.29,-0.09
23:19:44.100,-0.285,-0.085
23:19:44.104,-0.275,-0.1
23:19:44.108,-0.295,-0.08
23:19:44.112,-0.26,-0.065
23:19:44.116,-0.28,-0.06
23:19:44.120,-0.25,-0.065
23:19:44.124,-0.225,-0.065
23:19:44.128,-0.2,-0.075
23:19:44.132,-0.19,-0.07
23:19:44.136,-0.195,-0.05
23:19:44.140,-0.17,-0.04
23:19:44.144,-0.185,-0.015
23:19:44.148,-0.155,-0.02
23:19:44.152,-0.1,-0.025
23:19:44.156,-0.05,0.0
23:19:44.160,-0.01,0.01
23:19:44.164,0.015,0.015
23:19:44.168,0.04,0.025
23:19:44.172,0.06,0.005
23:19:44.176,0.055,0.01
23:19:44.180,0.05,-0.005
23:19:44.184,0.025,-0.005
23:19:44.188,0.01,-0.02
23:19:44.192,-0.065,-0.075
23:19:44.196,-0.105,-0.075
23:19:44.200,-0.145,-0.1
23:19:44.204,-0.215,-0.065
23:19:44.208,-0.265,-0.055
23:19:44.212,-0.335,-0.055
23:19:44.216,-0.32,-0.05
23:19:44.220,-0.36,-0.045
23:19:44.224,-0.365,-0.035
23:19:44.228,-0.35,-0.06
23:19:44.232,-0.345,-0.085
23:19:44.236,-0.335,-0.065
23:19:44.240,-0.34,-0.07
23:19:44.244,-0.315,-0.065
23:19:44.248,-0.315,-0.09
23:19:44.252,-0.305,-0.075
23:19:44.256,-0.32,-0.08
23:19:44.260,-0.325,-0.07
23:19:44.264,-0.32,-0.08
23:19:44.268,-0.315,-0.07
23:19:44.272,-0.315,-0.065
23:19:44.276,-0.305,-0.07
23:19:44.280,-0.32,-0.08
23:19:44.284,-0.33,-0.09
23:19:44.288,-0.34,-0.11
23:19:44.292,-0.36,-0.095
23:19:44.296,-0.36,-0.085
23:19:44.300,-0.36,-0.09
23:19:44.304,-0.345,-0.09
23:19:44.308,-0.345,-0.085
23:19:44.312,-0.345,-0.11
23:19:44.316,-0.34,-0.12
23:19:44.320,-0.34,-0.095
23:19:44.324,-0.335,-0.105
23:19:44.328,-0.315,-0.11
23:19:44.332,-0.275,-0.1
23:19:44.336,-0.225,-0.105
23:19:44.340,-0.11,-0.1
23:19:44.344,-0.015,-0.12
23:19:44.348,0.05,-0.125
23:19:44.352,0.1,-0.165
23:19:44.356,0.105,-0.18
23:19:44.360,0.125,-0.175
23:19:44.364,0.09,-0.18
23:19:44.368,0.055,-0.235
23:19:44.372,0.075,-0.34
23:19:44.376,0.265,-0.46
23:19:44.380,0.58,-0.71
23:19:44.384,0.94,-0.96
23:19:44.388,1.175,-1.2
23:19:44.392,1.155,-1.235
23:19:44.396,0.83,-1.08
23:19:44.400,0.34,-0.69
23:19:44.404,-0.02,-0.345
23:19:44.408,-0.245,-0.11
23:19:44.412,-0.33,-0.005
23:19:44.416,-0.375,0.07
23:19:44.420,-0.425,0.075
23:19:44.424,-0.435,0.08
23:19:44.428,-0.455,0.07
23:19:44.432,-0.46,0.045
23:19:44.436,-0.485,0.05
23:19:44.440,-0.49,0.03
23:19:44.444,-0.505,0.01
23:19:44.448,-0.51,-0.025
23:19:44.452,-0.49,-0.03
23:19:44.456,-0.495,-0.03
23:19:44.460,-0.47,-0.005
23:19:44.464,-0.49,-0.005
23:19:44.468,-0.47,0.0
23:19:44.472,-0.48,-0.03
23:19:44.476,-0.485,-0.025
23:19:44.480,-0.48,-0.025
23:19:44.484,-0.485,-0.01
23:19:44.488,-0.505,-0.02
23:19:44.492,-0.515,-0.02
23:19:44.496,-0.5,-0.01
23:19:44.500,-0.51,-0.03
23:19:44.504,-0.52,-0.015
23:19:44.508,-0.535,-0.025
23:19:44.512,-0.52,-0.055
23:19:44.516,-0.55,-0.05
23:19:44.520,-0.56,-0.04
23:19:44.524,-0.545,-0.035
23:19:44.528,-0.575,-0.04
23:19:44.532,-0.565,-0.055
23:19:44.536,-0.555,-0.05
23:19:44.540,-0.545,-0.06
23:19:44.544,-0.555,-0.075
23:19:44.548,-0.54,-0.09
23:19:44.552,-0.56,-0.095
23:19:44.556,-0.55,-0.08
23:19:44.560,-0.555,-0.08
23:19:44.564,-0.54,-0.06
23:19:44.568,-0.545,-0.075
23:19:44.572,-0.515,-0.055
23:19:44.576,-0.485,-0.08
23:19:44.580,-0.49,-0.085
23:19:44.584,-0.475,-0.075
23:19:44.588,-0.44,-0.065
23:19:44.592,-0.46,-0.08
23:19:44.596,-0.435,-0.065
23:19:44.600,-0.43,-0.065
23:19:44.604,-0.43,-0.09
23:19:44.608,-0.42,-0.07
23:19:44.612,-0.4,-0.095
23:19:44.616,-0.39,-0.095
23:19:44.620,-0.39,-0.095
23:19:44.624,-0.375,-0.105
23:19:44.628,-0.38,-0.11
23:19:44.632,-0.36,-0.11
23:19:44.636,-0.34,-0.105
23:19:44.640,-0.32,-0.1
23:19:44.644,-0.31,-0.14
23:19:44.648,-0.325,-0.145
23:19:44.652,-0.3,-0.115
23:19:44.656,-0.29,-0.15
23:19:44.660,-0.265,-0.14
23:19:44.664,-0.245,-0.125
23:19:44.668,-0.25,-0.11
23:19:44.672,-0.25,-0.12
23:19:44.676,-0.255,-0.12
23:19:44.680,-0.23,-0.08
23:19:44.684,-0.2,-0.08
23:19:44.688,-0.22,-0.08
23:19:44.692,-0.19,-0.085
23:19:44.696,-0.19,-0.075
23:19:44.700,-0.195,-0.11
23:19:44.704,-0.2,-0.08
23:19:44.708,-0.205,-0.065
23:19:44.712,-0.205,-0.07
23:19:44.716,-0.2,-0.06
23:19:44.720,-0.21,-0.08
23:19:44.724,-0.21,-0.04
23:19:44.728,-0.2,-0.06
23:19:44.732,-0.185,-0.05
23:19:44.736,-0.165,-0.055
23:19:44.740,-0.175,-0.065
23:19:44.744,-0.17,-0.045
23:19:44.748,-0.16,-0.035
23:19:44.752,-0.13,-0.04
23:19:44.756,-0.1,-0.03
23:19:44.760,-0.04,-0.03
23:19:44.764,0.0,-0.01
23:19:44.768,0.03,-0.015
23:19:44.772,0.05,-0.005
23:19:44.776,0.085,-0.02
23:19:44.780,0.095,0.0
23:19:44.784,0.08,-0.005
23:19:44.788,0.07,-0.04
23:19:44.792,0.04,-0.05
23:19:44.796,0.02,-0.085
23:19:44.800,-0.03,-0.075
23:19:44.804,-0.105,-0.085
23:19:44.808,-0.14,-0.095
23:19:44.812,-0.195,-0.07
23:19:44.816,-0.25,-0.055
23:19:44.820,-0.295,-0.05
23:19:44.824,-0.295,-0.05
23:19:44.828,-0.305,-0.065
23:19:44.832,-0.3,-0.07
23:19:44.836,-0.305,-0.09
23:19:44.840,-0.295,-0.09
23:19:44.844,-0.305,-0.09
23:19:44.848,-0.315,-0.1
23:19:44.852,-0.32,-0.11
23:19:44.856,-0.32,-0.11
23:19:44.860,-0.32,-0.11
23:19:44.864,-0.33,-0.115
23:19:44.868,-0.33,-0.12
23:19:44.872,-0.335,-0.12
23:19:44.876,-0.33,-0.13
23:19:44.880,-0.335,-0.125
23:19:44.884,-0.33,-0.11
23:19:44.888,-0.335,-0.12
23:19:44.892,-0.34,-0.145
23:19:44.896,-0.31,-0.14
23:19:44.900,-0.315,-0.13
23:19:44.904,-0.325,-0.135
23:19:44.908,-0.335,-0.145
23:19:44.912,-0.315,-0.14
23:19:44.916,-0.295,-0.145
23:19:44.920,-0.315,-0.14
23:19:44.924,-0.295,-0.135
23:19:44.928,-0.29,-0.145
23:19:44.932,-0.275,-0.145
23:19:44.936,-0.225,-0.125
23:19:44.940,-0.15,-0.135
23:19:44.944,-0.06,-0.13
23:19:44.948,0.025,-0.145
23:19:44.952,0.075,-0.18
23:19:44.956,0.095,-0.235
23:19:44.960,0.105,-0.27
23:19:44.964,0.1,-0.24
23:19:44.968,0.065,-0.26
23:19:44.972,0.05,-0.32
23:19:44.976,0.12,-0.43
23:19:44.980,0.36,-0.61
23:19:44.984,0.71,-0.84
23:19:44.988,1.04,-1.11
23:19:44.992,1.19,-1.29
23:19:44.996,1.055,-1.27
23:19:45.000,0.645,-0.995
23:19:45.004,0.145,-0.575
23:19:45.008,-0.13,-0.28
23:19:45.012,-0.285,-0.07
23:19:45.016,-0.365,0.005
23:19:45.020,-0.39,0.025
23:19:45.024,-0.405,0.03
23:19:45.028,-0.435,0.04
23:19:45.032,-0.44,0.03
23:19:45.036,-0.465,0.005
23:19:45.040,-0.465,0.0
23:19:45.044,-0.49,-0.015
23:19:45.048,-0.48,-0.025
23:19:45.052,-0.47,-0.05
23:19:45.056,-0.48,-0.065
23:19:45.060,-0.485,-0.07
23:19:45.064,-0.485,-0.05
23:19:45.068,-0.495,-0.065
23:19:45.072,-0.49,-0.06
23:19:45.076,-0.515,-0.08
23:19:45.080,-0.525,-0.075
23:19:45.084,-0.52,-0.075
23:19:45.088,-0.54,-0.065
23:19:45.092,-0.525,-0.07
23:19:45.096,-0.515,-0.08
23:19:45.100,-0.545,-0.095
23:19:45.104,-0.53,-0.09
23:19:45.108,-0.53,-0.11
23:19:45.112,-0.535,-0.09
23:19:45.116,-0.54,-0.09
23:19:45.120,-0.55,-0.115
23:19:45.124,-0.55,-0.11
23:19:45.128,-0.545,-0.105
23:19:45.132,-0.535,-0.1
23:19:45.136,-0.545,-0.115
23:19:45.140,-0.505,-0.11
23:19:45.144,-0.515,-0.11
23:19:45.148,-0.535,-0.125
23:19:45.152,-0.505,-0.095
23:19:45.156,-0.535,-0.11
23:19:45.160,-0.515,-0.09
23:19:45.164,-0.505,-0.1
23:19:45.168,-0.505,-0.115
23:19:45.172,-0.5,-0.105
23:19:45.176,-0.48,-0.135
23:19:45.180,-0.48,-0.12
23:19:45.184,-0.48,-0.14
23:19:45.188,-0.48,-0.145
23:19:45.192,-0.46,-0.155
23:19:45.196,-0.445,-0.16
23:19:45.200,-0.45,-0.16
23:19:45.204,-0.44,-0.16
23:19:45.208,-0.435,-0.17
23:19:45.212,-0.41,-0.165
23:19:45.216,-0.405,-0.18
23:19:45.220,-0.39,-0.18
23:19:45.224,-0.38,-0.19
23:19:45.228,-0.365,-0.19
23:19:45.232,-0.37,-0.2
23:19:45.236,-0.36,-0.185
23:19:45.240,-0.315,-0.19
23:19:45.244,-0.31,-0.225
23:19:45.248,-0.29,-0.205
23:19:45.252,-0.26,-0.185
23:19:45.256,-0.27,-0.19
23:19:45.260,-0.275,-0.16
23:19:45.264,-0.25,-0.18
23:19:45.268,-0.245,-0.17
23:19:45.272,-0.24,-0.18
23:19:45.276,-0.22,-0.19
23:19:45.280,-0.225,-0.175
23:19:45.284,-0.23,-0.165
23:19:45.288,-0.23,-0.175
23:19:45.292,-0.24,-0.19
23:19:45.296,-0.225,-0.16
23:19:45.300,-0.225,-0.15
23:19:45.304,-0.215,-0.16
23:19:45.308,-0.23,-0.135
23:19:45.312,-0.225,-0.175
23:19:45.316,-0.255,-0.165
23:19:45.320,-0.22,-0.165
23:19:45.324,-0.215,-0.155
23:19:45.328,-0.21,-0.14
23:19:45.332,-0.195,-0.16
23:19:45.336,-0.18,-0.145
23:19:45.340,-0.17,-0.14
23:19:45.344,-0.165,-0.135
23:19:45.348,-0.15,-0.115
23:19:45.352,-0.1,-0.13
23:19:45.356,-0.05,-0.12
23:19:45.360,-0.015,-0.105
23:19:45.364,0.02,-0.095
23:19:45.368,0.035,-0.065
23:19:45.372,0.075,-0.09
23:19:45.376,0.105,-0.09
23:19:45.380,0.115,-0.08
23:19:45.384,0.115,-0.07
23:19:45.388,0.105,-0.07
23:19:45.392,0.09,-0.13
23:19:45.396,0.04,-0.13
23:19:45.400,-0.01,-0.165
23:19:45.404,-0.06,-0.175
23:19:45.408,-0.12,-0.18
23:19:45.412,-0.17,-0.16
23:19:45.416,-0.22,-0.145
23:19:45.420,-0.265,-0.17
23:19:45.424,-0.27,-0.175
23:19:45.428,-0.27,-0.195
23:19:45.432,-0.27,-0.185
23:19:45.436,-0.265,-0.165
23:19:45.440,-0.24,-0.175
23:19:45.444,-0.235,-0.205
23:19:45.448,-0.255,-0.185
23:19:45.452,-0.26,-0.18
23:19:45.456,-0.255,-0.18
23:19:45.460,-0.245,-0.17
23:19:45.464,-0.22,-0.18
23:19:45.468,-0.2,-0.2
23:19:45.472,-0.215,-0.185
23:19:45.476,-0.21,-0.215
23:19:45.480,-0.205,-0.2
23:19:45.484,-0.2,-0.19
23:19:45.488,-0.215,-0.205
23:19:45.492,-0.21,-0.195
23:19:45.496,-0.215,-0.2
23:19:45.500,-0.215,-0.195
23:19:45.504,-0.21,-0.22
23:19:45.508,-0.215,-0.22
23:19:45.512,-0.22,-0.235
23:19:45.516,-0.23,-0.225
23:19:45.520,-0.255,-0.235
23:19:45.524,-0.23,-0.26
23:19:45.528,-0.22,-0.25
23:19:45.532,-0.195,-0.26
23:19:45.536,-0.12,-0.265
23:19:45.540,-0.07,-0.27
23:19:45.544,0.04,-0.27
23:19:45.548,0.13,-0.29
23:19:45.552,0.215,-0.305
23:19:45.556,0.245,-0.355
23:19:45.560,0.275,-0.345
23:19:45.564,0.3,-0.325
23:19:45.568,0.285,-0.34
23:19:45.572,0.255,-0.415
23:19:45.576,0.32,-0.47
23:19:45.580,0.545,-0.63
23:19:45.584,0.855,-0.855
23:19:45.588,1.18,-1.13
23:19:45.592,1.33,-1.32
23:19:45.596,1.205,-1.31
23:19:45.600,0.765,-1.065
23:19:45.604,0.305,-0.69
23:19:45.608,0.02,-0.4
23:19:45.612,-0.125,-0.25
23:19:45.616,-0.185,-0.145
23:19:45.620,-0.215,-0.095
23:19:45.624,-0.255,-0.085
23:19:45.628,-0.3,-0.115
23:19:45.632,-0.32,-0.105
23:19:45.636,-0.36,-0.12
23:19:45.640,-0.36,-0.155
23:19:45.644,-0.36,-0.185
23:19:45.648,-0.36,-0.195
23:19:45.652,-0.395,-0.205
23:19:45.656,-0.375,-0.21
23:19:45.660,-0.37,-0.21
23:19:45.664,-0.385,-0.21
23:19:45.668,-0.375,-0.215
23:19:45.672,-0.37,-0.215
23:19:45.676,-0.375,-0.235
23:19:45.680,-0.38,-0.22
23:19:45.684,-0.375,-0.23
23:19:45.688,-0.375,-0.205
23:19:45.692,-0.37,-0.23
23:19:45.696,-0.37,-0.215
23:19:45.700,-0.37,-0.205
23:19:45.704,-0.365,-0.2
23:19:45.708,-0.4,-0.225
23:19:45.712,-0.385,-0.195
23:19:45.716,-0.38,-0.225
23:19:45.720,-0.39,-0.235
23:19:45.724,-0.425,-0.23
23:19:45.728,-0.41,-0.22
23:19:45.732,-0.42,-0.24
23:19:45.736,-0.43,-0.235
23:19:45.740,-0.425,-0.24
23:19:45.744,-0.44,-0.25
23:19:45.748,-0.425,-0.245
23:19:45.752,-0.405,-0.24
23:19:45.756,-0.42,-0.255
23:19:45.760,-0.41,-0.265
23:19:45.764,-0.4,-0.255
23:19:45.768,-0.405,-0.27
23:19:45.772,-0.38,-0.27
23:19:45.776,-0.385,-0.275
23:19:45.780,-0.36,-0.26
23:19:45.784,-0.365,-0.26
23:19:45.788,-0.35,-0.27
23:19:45.792,-0.345,-0.285
23:19:45.796,-0.33,-0.265
23:19:45.800,-0.305,-0.295
23:19:45.804,-0.295,-0.28
23:19:45.808,-0.285,-0.27
23:19:45.812,-0.27,-0.27
23:19:45.816,-0.26,-0.275
23:19:45.820,-0.255,-0.26
23:19:45.824,-0.25,-0.27
23:19:45.828,-0.24,-0.305
23:19:45.832,-0.24,-0.3
23:19:45.836,-0.215,-0.31
23:19:45.840,-0.22,-0.305
23:19:45.844,-0.195,-0.3
23:19:45.848,-0.195,-0.28
23:19:45.852,-0.185,-0.3
23:19:45.856,-0.175,-0.31
23:19:45.860,-0.18,-0.32
23:19:45.864,-0.175,-0.295
23:19:45.868,-0.15,-0.29
23:19:45.872,-0.17,-0.305
23:19:45.876,-0.17,-0.3
23:19:45.880,-0.155,-0.295
23:19:45.884,-0.16,-0.305
23:19:45.888,-0.145,-0.305
23:19:45.892,-0.155,-0.29
23:19:45.896,-0.16,-0.285
23:19:45.900,-0.155,-0.285
23:19:45.904,-0.17,-0.255
23:19:45.908,-0.165,-0.26
23:19:45.912,-0.155,-0.255
23:19:45.916,-0.15,-0.25
23:19:45.920,-0.145,-0.26
23:19:45.924,-0.14,-0.26
23:19:45.928,-0.14,-0.275
23:19:45.932,-0.155,-0.24
23:19:45.936,-0.12,-0.25
23:19:45.940,-0.12,-0.255
23:19:45.944,-0.105,-0.255
23:19:45.948,-0.1,-0.235
23:19:45.952,-0.115,-0.245
23:19:45.956,-0.095,-0.215
23:19:45.960,-0.09,-0.23
23:19:45.964,-0.04,-0.225
23:19:45.968,0.01,-0.2
23:19:45.972,0.035,-0.2
23:19:45.976,0.055,-0.19
23:19:45.980,0.1,-0.19
23:19:45.984,0.125,-0.19
23:19:45.988,0.13,-0.2
23:19:45.992,0.13,-0.175
23:19:45.996,0.105,-0.195
23:19:46.000,0.075,-0.26
23:19:46.004,0.03,-0.265
23:19:46.008,0.0,-0.25
23:19:46.012,-0.065,-0.265
23:19:46.016,-0.12,-0.245
23:19:46.020,-0.165,-0.225
23:19:46.024,-0.21,-0.245
23:19:46.028,-0.245,-0.23
23:19:46.032,-0.26,-0.205
23:19:46.036,-0.26,-0.21
23:19:46.040,-0.26,-0.23
23:19:46.044,-0.255,-0.235
23:19:46.048,-0.24,-0.235
23:19:46.052,-0.245,-0.23
23:19:46.056,-0.25,-0.23
23:19:46.060,-0.25,-0.235
23:19:46.064,-0.235,-0.235
23:19:46.068,-0.24,-0.255
23:19:46.072,-0.255,-0.235
23:19:46.076,-0.26,-0.235
23:19:46.080,-0.28,-0.215
23:19:46.084,-0.27,-0.24
23:19:46.088,-0.265,-0.235
23:19:46.092,-0.27,-0.245
23:19:46.096,-0.265,-0.255
23:19:46.100,-0.27,-0.235
23:19:46.104,-0.26,-0.23
23:19:46.108,-0.28,-0.24
23:19:46.112,-0.26,-0.235
23:19:46.116,-0.265,-0.24
23:19:46.120,-0.265,-0.24
23:19:46.124,-0.255,-0.245
23:19:46.128,-0.25,-0.235
23:19:46.132,-0.235,-0.225
23:19:46.136,-0.24,-0.245
23:19:46.140,-0.2,-0.225
23:19:46.144,-0.135,-0.225
23:19:46.148,-0.06,-0.235
23:19:46.152,0.03,-0.23
23:19:46.156,0.145,-0.245
23:19:46.160,0.18,-0.265
23:19:46.164,0.225,-0.295
23:19:46.168,0.26,-0.335
23:19:46.172,0.24,-0.29
23:19:46.176,0.22,-0.31
23:19:46.180,0.185,-0.41
23:19:46.184,0.285,-0.5
23:19:46.188,0.5,-0.675
23:19:46.192,0.845,-0.92
23:19:46.196,1.15,-1.205
23:19:46.200,1.295,-1.37
23:19:46.204,1.13,-1.33
23:19:46.208,0.71,-1.03
23:19:46.212,0.235,-0.635
23:19:46.216,-0.075,-0.345
23:19:46.220,-0.19,-0.17
23:19:46.224,-0.295,-0.075
23:19:46.228,-0.33,-0.035
23:19:46.232,-0.38,-0.03
23:19:46.236,-0.39,0.0
23:19:46.240,-0.415,-0.04
23:19:46.244,-0.42,-0.03
23:19:46.248,-0.41,-0.075
23:19:46.252,-0.42,-0.1
23:19:46.256,-0.41,-0.08
23:19:46.260,-0.425,-0.105
23:19:46.264,-0.42,-0.095
23:19:46.268,-0.425,-0.105
23:19:46.272,-0.43,-0.095
23:19:46.276,-0.44,-0.1
23:19:46.280,-0.43,-0.085
23:19:46.284,-0.45,-0.075
23:19:46.288,-0.47,-0.105
23:19:46.292,-0.45,-0.075
23:19:46.296,-0.475,-0.09
23:19:46.300,-0.465,-0.095
23:19:46.304,-0.495,-0.09
23:19:46.308,-0.5,-0.1
23:19:46.312,-0.495,-0.09
23:19:46.316,-0.5,-0.095
23:19:46.320,-0.52,-0.11
23:19:46.324,-0.52,-0.105
23:19:46.328,-0.515,-0.105
23:19:46.332,-0.525,-0.09
23:19:46.336,-0.52,-0.12
23:19:46.340,-0.52,-0.11
23:19:46.344,-0.53,-0.1
23:19:46.348,-0.53,-0.105
23:19:46.352,-0.53,-0.09
23:19:46.356,-0.53,-0.095
23:19:46.360,-0.515,-0.095
23:19:46.364,-0.505,-0.075
23:19:46.368,-0.495,-0.095
23:19:46.372,-0.485,-0.08
23:19:46.376,-0.49,-0.07
23:19:46.380,-0.47,-0.07
23:19:46.384,-0.46,-0.07
23:19:46.388,-0.46,-0.06
23:19:46.392,-0.45,-0.095
23:19:46.396,-0.45,-0.09
23:19:46.400,-0.43,-0.07
23:19:46.404,-0.42,-0.075
23:19:46.408,-0.435,-0.095
23:19:46.412,-0.41,-0.115
23:19:46.416,-0.41,-0.09
23:19:46.420,-0.41,-0.095
23:19:46.424,-0.38,-0.125
23:19:46.428,-0.365,-0.115
23:19:46.432,-0.36,-0.12
23:19:46.436,-0.34,-0.125
23:19:46.440,-0.345,-0.145
23:19:46.444,-0.32,-0.14
23:19:46.448,-0.31,-0.13
23:19:46.452,-0.305,-0.13
23:19:46.456,-0.3,-0.12
23:19:46.460,-0.275,-0.105
23:19:46.464,-0.26,-0.135
23:19:46.468,-0.26,-0.125
23:19:46.472,-0.24,-0.115
23:19:46.476,-0.22,-0.12
23:19:46.480,-0.22,-0.115
23:19:46.484,-0.2,-0.08
23:19:46.488,-0.205,-0.09
23:19:46.492,-0.195,-0.08
23:19:46.496,-0.215,-0.09
23:19:46.500,-0.205,-0.08
23:19:46.504,-0.21,-0.08
23:19:46.508,-0.19,-0.08
23:19:46.512,-0.195,-0.07
23:19:46.516,-0.185,-0.08
23:19:46.520,-0.18,-0.045
23:19:46.524,-0.185,-0.07
23:19:46.528,-0.175,-0.065
23:19:46.532,-0.155,-0.05
23:19:46.536,-0.15,-0.055
23:19:46.540,-0.125,-0.07
23:19:46.544,-0.115,-0.04
23:19:46.548,-0.09,-0.05
23:19:46.552,-0.04,-0.04
23:19:46.556,0.005,-0.04
23:19:46.560,0.03,-0.005
23:19:46.564,0.055,0.0
23:19:46.568,0.07,-0.01
23:19:46.572,0.095,-0.005
23:19:46.576,0.1,0.0
23:19:46.580,0.085,0.0
23:19:46.584,0.085,-0.02
23:19:46.588,0.055,-0.035
23:19:46.592,0.0,-0.07
23:19:46.596,-0.04,-0.055
23:19:46.600,-0.085,-0.055
23:19:46.604,-0.16,-0.06
23:19:46.608,-0.195,-0.05
23:19:46.612,-0.245,-0.035
23:19:46.616,-0.285,-0.055
23:19:46.620,-0.285,-0.045
23:19:46.624,-0.305,-0.05
23:19:46.628,-0.285,-0.055
23:19:46.632,-0.305,-0.05
23:19:46.636,-0.295,-0.06
23:19:46.640,-0.29,-0.08
23:19:46.644,-0.315,-0.095
23:19:46.648,-0.29,-0.095
23:19:46.652,-0.315,-0.1
23:19:46.656,-0.305,-0.095
23:19:46.660,-0.27,-0.085
23:19:46.664,-0.3,-0.095
23:19:46.668,-0.29,-0.09
23:19:46.672,-0.315,-0.11
23:19:46.676,-0.32,-0.13
23:19:46.680,-0.295,-0.12
23:19:46.684,-0.31,-0.145
23:19:46.688,-0.325,-0.14
23:19:46.692,-0.32,-0.125
23:19:46.696,-0.315,-0.135
23:19:46.700,-0.305,-0.11
23:19:46.704,-0.295,-0.11
23:19:46.708,-0.285,-0.12
23:19:46.712,-0.29,-0.105
23:19:46.716,-0.285,-0.105
23:19:46.720,-0.28,-0.1
23:19:46.724,-0.285,-0.115
23:19:46.728,-0.235,-0.1
23:19:46.732,-0.19,-0.12
23:19:46.736,-0.115,-0.12
23:19:46.740,-0.005,-0.14
23:19:46.744,0.045,-0.15
23:19:46.748,0.125,-0.195
23:19:46.752,0.16,-0.235
23:19:46.756,0.175,-0.22
23:19:46.760,0.175,-0.23
23:19:46.764,0.125,-0.235
23:19:46.768,0.11,-0.295
23:19:46.772,0.19,-0.425
23:19:46.776,0.425,-0.595
23:19:46.780,0.73,-0.815
23:19:46.784,1.05,-1.09
23:19:46.788,1.23,-1.285
23:19:46.792,1.135,-1.315
23:19:46.796,0.705,-1.01
23:19:46.800,0.235,-0.63
23:19:46.804,-0.055,-0.27
23:19:46.808,-0.225,-0.115
23:19:46.812,-0.255,-0.015
23:19:46.816,-0.31,0.025
23:19:46.820,-0.355,0.02
23:19:46.824,-0.375,0.015
23:19:46.828,-0.395,0.01
23:19:46.832,-0.4,0.01
23:19:46.836,-0.395,-0.015
23:19:46.840,-0.42,-0.03
23:19:46.844,-0.42,-0.055
23:19:46.848,-0.435,-0.055
23:19:46.852,-0.44,-0.075
23:19:46.856,-0.44,-0.08
23:19:46.860,-0.45,-0.06
23:19:46.864,-0.46,-0.085
23:19:46.868,-0.47,-0.085
23:19:46.872,-0.475,-0.08
23:19:46.876,-0.48,-0.095
23:19:46.880,-0.49,-0.085
23:19:46.884,-0.485,-0.11
23:19:46.888,-0.49,-0.12
23:19:46.892,-0.49,-0.105
23:19:46.896,-0.495,-0.105
23:19:46.900,-0.53,-0.12
23:19:46.904,-0.535,-0.115
23:19:46.908,-0.53,-0.1
23:19:46.912,-0.54,-0.13
23:19:46.916,-0.525,-0.115
23:19:46.920,-0.54,-0.1
23:19:46.924,-0.53,-0.095
23:19:46.928,-0.53,-0.105
23:19:46.932,-0.525,-0.08
23:19:46.936,-0.545,-0.08
23:19:46.940,-0.52,-0.095
23:19:46.944,-0.53,-0.105
23:19:46.948,-0.525,-0.085
23:19:46.952,-0.51,-0.1
23:19:46.956,-0.54,-0.105
23:19:46.960,-0.51,-0.085
23:19:46.964,-0.5,-0.105
23:19:46.968,-0.52,-0.08
23:19:46.972,-0.505,-0.1
23:19:46.976,-0.495,-0.11
23:19:46.980,-0.5,-0.105
23:19:46.984,-0.495,-0.1
23:19:46.988,-0.48,-0.12
23:19:46.992,-0.47,-0.155
23:19:46.996,-0.455,-0.115
23:19:47.000,-0.455,-0.13
23:19:47.004,-0.435,-0.155
23:19:47.008,-0.425,-0.15
23:19:47.012,-0.405,-0.16
23:19:47.016,-0.405,-0.145
23:19:47.020,-0.39,-0.15
23:19:47.024,-0.375,-0.165
23:19:47.028,-0.36,-0.16
23:19:47.032,-0.355,-0.16
23:19:47.036,-0.34,-0.15
23:19:47.040,-0.315,-0.135
23:19:47.044,-0.31,-0.145
23:19:47.048,-0.3,-0.145
23:19:47.052,-0.28,-0.145
23:19:47.056,-0.265,-0.18
23:19:47.060,-0.255,-0.145
23:19:47.064,-0.255,-0.13
23:19:47.068,-0.245,-0.125
23:19:47.072,-0.26,-0.13
23:19:47.076,-0.24,-0.13
23:19:47.080,-0.24,-0.135
23:19:47.084,-0.25,-0.13
23:19:47.088,-0.24,-0.095
23:19:47.092,-0.24,-0.11
23:19:47.096,-0.245,-0.125
23:19:47.100,-0.255,-0.105
23:19:47.104,-0.24,-0.1
23:19:47.108,-0.255,-0.13
23:19:47.112,-0.255,-0.12
23:19:47.116,-0.265,-0.115
23:19:47.120,-0.205,-0.11
23:19:47.124,-0.235,-0.09
23:19:47.128,-0.215,-0.105
23:19:47.132,-0.21,-0.085
23:19:47.136,-0.19,-0.095
23:19:47.140,-0.17,-0.105
23:19:47.144,-0.17,-0.09
23:19:47.148,-0.13,-0.075
23:19:47.152,-0.095,-0.07
23:19:47.156,-0.045,-0.045
23:19:47.160,-0.005,-0.03
23:19:47.164,0.01,-0.01
23:19:47.168,0.035,0.0
23:19:47.172,0.07,-0.01
23:19:47.176,0.09,0.0
23:19:47.180,0.07,0.005
23:19:47.184,0.055,-0.005
23:19:47.188,0.035,-0.05
23:19:47.192,-0.02,-0.08
23:19:47.196,-0.085,-0.095
23:19:47.200,-0.13,-0.08
23:19:47.204,-0.2,-0.09
23:19:47.208,-0.24,-0.105
23:19:47.212,-0.295,-0.085
23:19:47.216,-0.33,-0.055
23:19:47.220,-0.33,-0.07
23:19:47.224,-0.34,-0.06
23:19:47.228,-0.345,-0.065
23:19:47.232,-0.35,-0.07
23:19:47.236,-0.34,-0.08
23:19:47.240,-0.36,-0.095
23:19:47.244,-0.35,-0.095
23:19:47.248,-0.34,-0.105
23:19:47.252,-0.33,-0.095
23:19:47.256,-0.335,-0.11
23:19:47.260,-0.32,-0.105
23:19:47.264,-0.305,-0.105
23:19:47.268,-0.32,-0.105
23:19:47.272,-0.305,-0.1
23:19:47.276,-0.32,-0.09
23:19:47.280,-0.3,-0.09
23:19:47.284,-0.31,-0.1
23:19:47.288,-0.305,-0.1
23:19:47.292,-0.325,-0.09
23:19:47.296,-0.325,-0.105
23:19:47.300,-0.33,-0.115
23:19:47.304,-0.305,-0.115
23:19:47.308,-0.325,-0.105
23:19:47.312,-0.345,-0.12
23:19:47.316,-0.325,-0.11
23:19:47.320,-0.32,-0.1
23:19:47.324,-0.295,-0.13
23:19:47.328,-0.275,-0.13
23:19:47.332,-0.245,-0.13
23:19:47.336,-0.175,-0.13
23:19:47.340,-0.105,-0.12
23:19:47.344,0.025,-0.14
23:19:47.348,0.08,-0.17
23:19:47.352,0.105,-0.2
23:19:47.356,0.14,-0.225
23:19:47.360,0.14,-0.195
23:19:47.364,0.13,-0.225
23:19:47.368,0.12,-0.28
23:19:47.372,0.145,-0.39
23:19:47.376,0.335,-0.525
23:19:47.380,0.635,-0.77
23:19:47.384,0.985,-1.015
23:19:47.388,1.21,-1.215
23:19:47.392,1.19,-1.275
23:19:47.396,0.87,-1.08
23:19:47.400,0.395,-0.68
23:19:47.404,0.02,-0.31
23:19:47.408,-0.2,-0.09
23:19:47.412,-0.295,0.015
23:19:47.416,-0.345,0.075
23:19:47.420,-0.38,0.08
23:19:47.424,-0.405,0.09
23:19:47.428,-0.43,0.095
23:19:47.432,-0.435,0.07
23:19:47.436,-0.43,0.06
23:19:47.440,-0.465,0.035
23:19:47.444,-0.46,0.0
23:19:47.448,-0.465,0.0
23:19:47.452,-0.47,0.0
23:19:47.456,-0.47,-0.015
23:19:47.460,-0.475,-0.005
23:19:47.464,-0.485,0.01
23:19:47.468,-0.49,0.01
23:19:47.472,-0.48,0.0
23:19:47.476,-0.48,0.02
23:19:47.480,-0.48,0.01
23:19:47.484,-0.48,0.02
23:19:47.488,-0.475,0.005
23:19:47.492,-0.47,0.02
23:19:47.496,-0.48,0.015
23:19:47.500,-0.49,0.0
23:19:47.504,-0.505,0.025
23:19:47.508,-0.48,0.02
23:19:47.512,-0.5,0.0
23:19:47.516,-0.51,0.015
23:19:47.520,-0.5,0.01
23:19:47.524,-0.5,0.01
23:19:47.528,-0.515,0.005
23:19:47.532,-0.525,0.0
23:19:47.536,-0.525,0.0
23:19:47.540,-0.555,-0.015
23:19:47.544,-0.55,-0.005
23:19:47.548,-0.545,0.005
23:19:47.552,-0.525,-0.005
23:19:47.556,-0.535,-0.02
23:19:47.560,-0.525,-0.03
23:19:47.564,-0.525,-0.02
23:19:47.568,-0.51,-0.02
23:19:47.572,-0.5,-0.03
23:19:47.576,-0.49,-0.015
23:19:47.580,-0.475,-0.015
23:19:47.584,-0.455,-0.035
23:19:47.588,-0.47,-0.035
23:19:47.592,-0.475,-0.035
23:19:47.596,-0.45,-0.04
23:19:47.600,-0.425,-0.045
23:19:47.604,-0.41,-0.045
23:19:47.608,-0.395,-0.045
23:19:47.612,-0.38,-0.045
23:19:47.616,-0.385,-0.045
23:19:47.620,-0.385,-0.065
23:19:47.624,-0.355,-0.065
23:19:47.628,-0.33,-0.05
23:19:47.632,-0.335,-0.06
23:19:47.636,-0.33,-0.08
23:19:47.640,-0.305,-0.055
23:19:47.644,-0.295,-0.065
23:19:47.648,-0.28,-0.06
23:19:47.652,-0.28,-0.065
23:19:47.656,-0.265,-0.07
23:19:47.660,-0.275,-0.075
23:19:47.664,-0.27,-0.06
23:19:47.668,-0.235,-0.06
23:19:47.672,-0.24,-0.06
23:19:47.676,-0.23,-0.045
23:19:47.680,-0.235,-0.035
23:19:47.684,-0.23,-0.065
23:19:47.688,-0.205,-0.035
23:19:47.692,-0.21,-0.035
23:19:47.696,-0.215,-0.035
23:19:47.700,-0.205,-0.035
23:19:47.704,-0.235,-0.03
23:19:47.708,-0.23,-0.045
23:19:47.712,-0.19,-0.04
23:19:47.716,-0.19,-0.03
23:19:47.720,-0.175,-0.01
23:19:47.724,-0.16,-0.025
23:19:47.728,-0.14,-0.02
23:19:47.732,-0.13,0.0
23:19:47.736,-0.125,0.0
23:19:47.740,-0.125,-0.01
23:19:47.744,-0.1,-0.01
23:19:47.748,-0.07,-0.005
23:19:47.752,-0.005,0.025
23:19:47.756,0.02,0.025
23:19:47.760,0.045,0.03
23:19:47.764,0.09,0.05
23:19:47.768,0.095,0.035
23:19:47.772,0.1,0.04
23:19:47.776,0.105,0.035
23:19:47.780,0.09,0.025
23:19:47.784,0.065,-0.015
23:19:47.788,0.015,-0.03
23:19:47.792,-0.03,-0.05
23:19:47.796,-0.09,-0.035
23:19:47.800,-0.14,-0.05
23:19:47.804,-0.185,-0.01
23:19:47.808,-0.24,-0.005
23:19:47.812,-0.28,-0.01
23:19:47.816,-0.3,0.015
23:19:47.820,-0.295,0.01
23:19:47.824,-0.29,0.005
23:19:47.828,-0.275,-0.01
23:19:47.832,-0.25,-0.015
23:19:47.836,-0.26,-0.045
23:19:47.840,-0.26,-0.035
23:19:47.844,-0.27,-0.025
23:19:47.848,-0.255,0.005
23:19:47.852,-0.26,-0.005
23:19:47.856,-0.255,-0.04
23:19:47.860,-0.295,-0.03
23:19:47.864,-0.29,-0.025
23:19:47.868,-0.285,-0.045
23:19:47.872,-0.3,-0.05
23:19:47.876,-0.3,-0.04
23:19:47.880,-0.315,-0.06
23:19:47.884,-0.335,-0.04
23:19:47.888,-0.31,-0.055
23:19:47.892,-0.305,-0.055
23:19:47.896,-0.305,-0.085
23:19:47.900,-0.33,-0.09
23:19:47.904,-0.32,-0.06
23:19:47.908,-0.32,-0.07
23:19:47.912,-0.315,-0.07
23:19:47.916,-0.31,-0.065
23:19:47.920,-0.3,-0.065
23:19:47.924,-0.285,-0.095
23:19:47.928,-0.235,-0.075
23:19:47.932,-0.18,-0.075
23:19:47.936,-0.09,-0.08
23:19:47.940,0.005,-0.065
23:19:47.944,0.07,-0.09
23:19:47.948,0.125,-0.14
23:19:47.952,0.135,-0.19
23:19:47.956,0.165,-0.19
23:19:47.960,0.14,-0.155
23:19:47.964,0.085,-0.24
23:19:47.968,0.09,-0.295
23:19:47.972,0.235,-0.43
23:19:47.976,0.535,-0.64
23:19:47.980,0.875,-0.895
23:19:47.984,1.145,-1.12
23:19:47.988,1.165,-1.22
23:19:47.992,0.92,-1.1
23:19:47.996,0.465,-0.755
23:19:48.000,0.065,-0.395
23:19:48.004,-0.17,-0.13
23:19:48.008,-0.285,0.0
23:19:48.012,-0.335,0.06
23:19:48.016,-0.365,0.09
23:19:48.020,-0.41,0.1
23:19:48.024,-0.425,0.065
23:19:48.028,-0.43,0.055
23:19:48.032,-0.455,0.065
23:19:48.036,-0.45,0.035
23:19:48.040,-0.475,0.005
23:19:48.044,-0.48,0.01
23:19:48.048,-0.465,-0.02
23:19:48.052,-0.445,0.0
23:19:48.056,-0.455,0.005
23:19:48.060,-0.44,0.005
23:19:48.064,-0.445,0.02
23:19:48.068,-0.45,0.0
23:19:48.072,-0.465,0.01
23:19:48.076,-0.48,0.02
23:19:48.080,-0.48,0.03
23:19:48.084,-0.475,0.04
23:19:48.088,-0.47,0.005
23:19:48.092,-0.475,0.015
23:19:48.096,-0.51,0.015
23:19:48.100,-0.515,0.01
23:19:48.104,-0.51,0.02
23:19:48.108,-0.52,0.0
23:19:48.112,-0.53,0.0
23:19:48.116,-0.535,-0.01
23:19:48.120,-0.53,-0.005
23:19:48.124,-0.535,0.0
23:19:48.128,-0.54,-0.025
23:19:48.132,-0.555,-0.025
23:19:48.136,-0.56,-0.02
23:19:48.140,-0.545,-0.005
23:19:48.144,-0.57,-0.025
23:19:48.148,-0.56,-0.02
23:19:48.152,-0.55,-0.015
23:19:48.156,-0.555,-0.02
23:19:48.160,-0.53,-0.02
23:19:48.164,-0.49,-0.02
23:19:48.168,-0.505,-0.015
23:19:48.172,-0.495,-0.005
23:19:48.176,-0.485,0.0
23:19:48.180,-0.48,-0.01
23:19:48.184,-0.48,-0.025
23:19:48.188,-0.47,-0.01
23:19:48.192,-0.44,-0.015
23:19:48.196,-0.43,-0.015
23:19:48.200,-0.445,-0.02
23:19:48.204,-0.44,-0.035
23:19:48.208,-0.44,-0.035
23:19:48.212,-0.425,-0.04
23:19:48.216,-0.41,-0.08
23:19:48.220,-0.43,-0.065
23:19:48.224,-0.38,-0.05
23:19:48.228,-0.365,-0.07
23:19:48.232,-0.365,-0.08
23:19:48.236,-0.355,-0.075
23:19:48.240,-0.35,-0.085
23:19:48.244,-0.33,-0.065
23:19:48.248,-0.32,-0.065
23:19:48.252,-0.285,-0.07
23:19:48.256,-0.295,-0.055
23:19:48.260,-0.28,-0.07
23:19:48.264,-0.275,-0.07
23:19:48.268,-0.26,-0.045
23:19:48.272,-0.245,-0.065
23:19:48.276,-0.235,-0.06
23:19:48.280,-0.225,-0.05
23:19:48.284,-0.235,-0.04
23:19:48.288,-0.23,-0.04
23:19:48.292,-0.225,-0.045
23:19:48.296,-0.235,-0.02
23:19:48.300,-0.24,-0.01
23:19:48.304,-0.22,0.0
23:19:48.308,-0.23,-0.02
23:19:48.312,-0.225,0.015
23:19:48.316,-0.235,0.0
23:19:48.320,-0.22,0.005
23:19:48.324,-0.22,-0.005
23:19:48.328,-0.2,0.01
23:19:48.332,-0.195,-0.015
23:19:48.336,-0.195,0.02
23:19:48.340,-0.175,0.005
23:19:48.344,-0.135,0.015
23:19:48.348,-0.09,0.015
23:19:48.352,-0.05,0.03
23:19:48.356,-0.035,0.06
23:19:48.360,0.015,0.07
23:19:48.364,0.05,0.055
23:19:48.368,0.055,0.065
23:19:48.372,0.09,0.075
23:19:48.376,0.085,0.08
23:19:48.380,0.085,0.05
23:19:48.384,0.06,0.035
23:19:48.388,0.035,0.045
23:19:48.392,-0.005,0.0
23:19:48.396,-0.055,0.0
23:19:48.400,-0.1,0.01
23:19:48.404,-0.15,0.0
23:19:48.408,-0.22,0.02
23:19:48.412,-0.275,0.02
23:19:48.416,-0.295,0.03
23:19:48.420,-0.295,0.015
23:19:48.424,-0.295,0.025
23:19:48.428,-0.31,0.025
23:19:48.432,-0.28,0.0
23:19:48.436,-0.305,0.025
23:19:48.440,-0.3,0.005
23:19:48.444,-0.28,0.0
23:19:48.448,-0.295,0.0
23:19:48.452,-0.29,0.0
23:19:48.456,-0.285,0.02
23:19:48.460,-0.265,-0.005
23:19:48.464,-0.28,0.0
23:19:48.468,-0.285,-0.005
23:19:48.472,-0.285,0.0
23:19:48.476,-0.3,0.0
23:19:48.480,-0.29,-0.015
23:19:48.484,-0.29,-0.01
23:19:48.488,-0.295,-0.005
23:19:48.492,-0.32,-0.015
23:19:48.496,-0.29,-0.03
23:19:48.500,-0.275,-0.01
23:19:48.504,-0.275,-0.01
23:19:48.508,-0.265,0.0
23:19:48.512,-0.26,-0.015
23:19:48.516,-0.27,0.0
23:19:48.520,-0.25,0.015
23:19:48.524,-0.23,-0.01
23:19:48.528,-0.21,-0.02
23:19:48.532,-0.155,-0.035
23:19:48.536,-0.075,-0.035
23:19:48.540,0.015,-0.04
23:19:48.544,0.09,-0.055
23:19:48.548,0.125,-0.1
23:19:48.552,0.145,-0.14
23:19:48.556,0.145,-0.16
23:19:48.560,0.135,-0.125
23:19:48.564,0.11,-0.16
23:19:48.568,0.085,-0.24
23:19:48.572,0.21,-0.355
23:19:48.576,0.48,-0.555
23:19:48.580,0.81,-0.805
23:19:48.584,1.105,-1.065
23:19:48.588,1.215,-1.23
23:19:48.592,1.015,-1.135
23:19:48.596,0.565,-0.81
23:19:48.600,0.115,-0.405
23:19:48.604,-0.155,-0.135
23:19:48.608,-0.27,0.025
23:19:48.612,-0.32,0.09
23:19:48.616,-0.34,0.135
23:19:48.620,-0.37,0.105
23:19:48.624,-0.4,0.1
23:19:48.628,-0.42,0.095
23:19:48.632,-0.425,0.07
23:19:48.636,-0.415,0.075
23:19:48.640,-0.415,0.05
23:19:48.644,-0.425,0.025
23:19:48.648,-0.435,0.02
23:19:48.652,-0.435,0.005
23:19:48.656,-0.455,0.01
23:19:48.660,-0.465,0.01
23:19:48.664,-0.46,0.01
23:19:48.668,-0.48,-0.01
23:19:48.672,-0.48,-0.01
23:19:48.676,-0.48,0.0
23:19:48.680,-0.465,0.0
23:19:48.684,-0.48,-0.025
23:19:48.688,-0.46,-0.02
23:19:48.692,-0.48,-0.02
23:19:48.696,-0.49,-0.02
23:19:48.700,-0.48,-0.03
23:19:48.704,-0.5,-0.02
23:19:48.708,-0.49,-0.015
23:19:48.712,-0.5,-0.045
23:19:48.716,-0.485,-0.02
23:19:48.720,-0.495,-0.04
23:19:48.724,-0.5,-0.04
23:19:48.728,-0.48,-0.04
23:19:48.732,-0.49,-0.05
23:19:48.736,-0.48,-0.03
23:19:48.740,-0.495,-0.045
23:19:48.744,-0.495,-0.05
23:19:48.748,-0.475,-0.04
