Time,ECG1,ECG2
00:55:46.076:1,-0.38,-0.09
00:55:46.080:1,-0.42,-0.075
00:55:46.084:1,-0.455,-0.105
00:55:46.088:1,-0.465,-0.09
00:55:46.092:1,-0.45,-0.095
00:55:46.096:1,-0.45,-0.12
00:55:46.100:1,-0.425,-0.1
00:55:46.104:1,-0.435,-0.095
00:55:46.108:1,-0.48,-0.105
00:55:46.112:1,-0.49,-0.085
00:55:46.116:1,-0.485,-0.1
00:55:46.120:1,-0.455,-0.11
00:55:46.124:1,-0.45,-0.105
00:55:46.128:1,-0.43,-0.105
00:55:46.132:1,-0.445,-0.1
00:55:46.136:1,-0.44,-0.105
00:55:46.140:1,-0.44,-0.065
00:55:46.144:1,-0.43,-0.075
00:55:46.148:1,-0.43,-0.075
00:55:46.152:1,-0.43,-0.095
00:55:46.156:1,-0.43,-0.1
00:55:46.160:1,-0.41,-0.105
00:55:46.164:1,-0.39,-0.115
00:55:46.168:1,-0.395,-0.09
00:55:46.172:1,-0.405,-0.08
00:55:46.176:1,-0.435,-0.095
00:55:46.180:1,-0.415,-0.1
00:55:46.184:1,-0.42,-0.09
00:55:46.188:1,-0.395,-0.125
00:55:46.192:1,-0.37,-0.115
00:55:46.196:1,-0.345,-0.125
00:55:46.200:1,-0.355,-0.12
00:55:46.204:1,-0.355,-0.135
00:55:46.208:1,-0.34,-0.135
00:55:46.212:1,-0.32,-0.15
00:55:46.216:1,-0.3,-0.14
00:55:46.220:1,-0.285,-0.125
00:55:46.224:1,-0.275,-0.13
00:55:46.228:1,-0.28,-0.1
00:55:46.232:1,-0.255,-0.13
00:55:46.236:1,-0.25,-0.13
00:55:46.240:1,-0.22,-0.135
00:55:46.244:1,-0.2,-0.135
00:55:46.248:1,-0.2,-0.12
00:55:46.252:1,-0.21,-0.105
00:55:46.256:1,-0.185,-0.11
00:55:46.260:1,-0.155,-0.09
00:55:46.264:1,-0.15,-0.11
00:55:46.268:1,-0.145,-0.11
00:55:46.272:1,-0.13,-0.095
00:55:46.276:1,-0.16,-0.095
00:55:46.280:1,-0.18,-0.085
00:55:46.284:1,-0.175,-0.095
00:55:46.288:1,-0.16,-0.075
00:55:46.292:1,-0.15,-0.095
00:55:46.296:1,-0.135,-0.09
00:55:46.300:1,-0.165,-0.095
00:55:46.304:1,-0.195,-0.095
00:55:46.308:1,-0.19,-0.085
00:55:46.312:1,-0.18,-0.085
00:55:46.316:1,-0.155,-0.065
00:55:46.320:1,-0.14,-0.07
00:55:46.324:1,-0.16,-0.065
00:55:46.328:1,-0.18,-0.055
00:55:46.332:1,-0.17,-0.075
00:55:46.336:1,-0.12,-0.06
00:55:46.340:1,-0.14,-0.07
00:55:46.344:1,-0.13,-0.06
00:55:46.348:1,-0.095,-0.04
00:55:46.352:1,-0.095,-0.035
00:55:46.356:1,-0.105,-0.035
00:55:46.360:1,-0.095,-0.01
00:55:46.364:1,-0.035,0.0
00:55:46.368:1,0.045,0.0
00:55:46.372:1,0.055,0.02
00:55:46.376:1,0.085,0.04
00:55:46.380:1,0.14,0.025
00:55:46.384:1,0.15,0.035
00:55:46.388:1,0.17,0.015
00:55:46.392:1,0.15,0.035
00:55:46.396:1,0.115,0.01
00:55:46.400:1,0.075,-0.03
00:55:46.404:1,0.035,-0.07
00:55:46.408:1,0.01,-0.055
00:55:46.412:1,-0.04,-0.04
00:55:46.416:1,-0.12,-0.045
00:55:46.420:1,-0.18,-0.015
00:55:46.424:1,-0.21,-0.03
00:55:46.428:1,-0.265,-0.02
00:55:46.432:1,-0.255,-0.03
00:55:46.436:1,-0.255,-0.01
00:55:46.440:1,-0.225,0.02
00:55:46.444:1,-0.23,0.0
00:55:46.448:1,-0.23,-0.02
00:55:46.452:1,-0.25,-0.035
00:55:46.456:1,-0.245,-0.02
00:55:46.460:1,-0.205,0.0
00:55:46.464:1,-0.19,0.0
00:55:46.468:1,-0.125,-0.02
00:55:46.472:1,-0.145,-0.015
00:55:46.476:1,-0.17,-0.01
00:55:46.480:1,-0.23,0.0
00:55:46.484:1,-0.21,0.0
00:55:46.488:1,-0.205,-0.015
00:55:46.492:1,-0.195,-0.03
00:55:46.496:1,-0.18,-0.035
00:55:46.500:1,-0.195,-0.02
00:55:46.504:1,-0.21,-0.015
00:55:46.508:1,-0.225,-0.035
00:55:46.512:1,-0.205,-0.04
00:55:46.516:1,-0.185,-0.005
00:55:46.520:1,-0.21,-0.01
00:55:46.524:1,-0.185,-0.005
00:55:46.528:1,-0.165,-0.015
00:55:46.532:1,-0.14,-0.01
00:55:46.536:1,-0.135,-0.005
00:55:46.540:1,-0.075,0.0
00:55:46.544:1,-0.015,-0.025
00:55:46.548:1,0.11,0.0
00:55:46.552:1,0.215,-0.025
00:55:46.556:1,0.305,-0.04
00:55:46.560:1,0.36,-0.1
00:55:46.564:1,0.36,-0.09
00:55:46.568:1,0.395,-0.05
00:55:46.572:1,0.385,-0.1
00:55:46.576:1,0.355,-0.185
00:55:46.580:1,0.43,-0.28
00:55:46.584:1,0.625,-0.475
00:55:46.588:1,0.93,-0.755
00:55:46.592:1,1.26,-1.015
00:55:46.596:1,1.445,-1.14
00:55:46.600:1,1.355,-1.09
00:55:46.604:1,0.975,-0.775
00:55:46.608:1,0.445,-0.37
00:55:46.612:1,0.075,-0.12
00:55:46.616:1,-0.115,0.025
00:55:46.620:1,-0.225,0.09
00:55:46.624:1,-0.245,0.13
00:55:46.628:1,-0.245,0.14
00:55:46.632:1,-0.275,0.135
00:55:46.636:1,-0.33,0.145
00:55:46.640:1,-0.35,0.12
00:55:46.644:1,-0.385,0.09
00:55:46.648:1,-0.365,0.085
00:55:46.652:1,-0.325,0.085
00:55:46.656:1,-0.33,0.08
00:55:46.660:1,-0.34,0.08
00:55:46.664:1,-0.325,0.075
00:55:46.668:1,-0.345,0.075
00:55:46.672:1,-0.32,0.095
00:55:46.676:1,-0.36,0.1
00:55:46.680:1,-0.345,0.09
00:55:46.684:1,-0.34,0.1
00:55:46.688:1,-0.335,0.1
00:55:46.692:1,-0.34,0.08
00:55:46.696:1,-0.345,0.06
00:55:46.700:1,-0.36,0.085
00:55:46.704:1,-0.365,0.07
00:55:46.708:1,-0.37,0.07
00:55:46.712:1,-0.35,0.055
00:55:46.716:1,-0.36,0.065
00:55:46.720:1,-0.4,0.065
00:55:46.724:1,-0.42,0.045
00:55:46.728:1,-0.39,0.055
00:55:46.732:1,-0.355,0.02
00:55:46.736:1,-0.345,0.055
00:55:46.740:1,-0.345,0.05
00:55:46.744:1,-0.37,0.035
00:55:46.748:1,-0.435,0.015
00:55:46.752:1,-0.44,0.045
00:55:46.756:1,-0.405,0.045
00:55:46.760:1,-0.375,0.02
00:55:46.764:1,-0.325,0.03
00:55:46.768:1,-0.32,0.035
00:55:46.772:1,-0.335,0.03
00:55:46.776:1,-0.375,0.035
00:55:46.780:1,-0.37,0.03
00:55:46.784:1,-0.395,0.035
00:55:46.788:1,-0.345,0.01
00:55:46.792:1,-0.29,0.0
00:55:46.796:1,-0.26,0.0
00:55:46.800:1,-0.28,0.0
00:55:46.804:1,-0.315,-0.02
00:55:46.808:1,-0.3,-0.015
00:55:46.812:1,-0.3,-0.03
00:55:46.816:1,-0.3,-0.045
00:55:46.820:1,-0.285,-0.04
00:55:46.824:1,-0.28,-0.03
00:55:46.828:1,-0.25,-0.05
00:55:46.832:1,-0.25,-0.055
00:55:46.836:1,-0.22,-0.05
00:55:46.840:1,-0.21,-0.05
00:55:46.844:1,-0.19,-0.055
00:55:46.848:1,-0.14,-0.055
00:55:46.852:1,-0.135,-0.04
00:55:46.856:1,-0.175,-0.05
00:55:46.860:1,-0.175,-0.065
00:55:46.864:1,-0.16,-0.035
00:55:46.868:1,-0.13,-0.06
00:55:46.872:1,-0.11,-0.035
00:55:46.876:1,-0.12,-0.045
00:55:46.880:1,-0.125,-0.015
00:55:46.884:1,-0.105,-0.01
00:55:46.888:1,-0.09,0.0
00:55:46.892:1,-0.09,0.01
00:55:46.896:1,-0.075,0.0
00:55:46.900:1,-0.075,-0.005
00:55:46.904:1,-0.08,-0.02
00:55:46.908:1,-0.09,-0.025
00:55:46.912:1,-0.105,-0.02
00:55:46.916:1,-0.13,-0.01
00:55:46.920:1,-0.095,0.0
00:55:46.924:1,-0.13,0.005
00:55:46.928:1,-0.11,-0.005
00:55:46.932:1,-0.09,-0.015
00:55:46.936:1,-0.08,-0.015
00:55:46.940:1,-0.085,-0.005
00:55:46.944:1,-0.03,0.0
00:55:46.948:1,-0.02,-0.005
00:55:46.952:1,-0.025,-0.01
00:55:46.956:1,-0.06,-0.005
00:55:46.960:1,-0.06,0.01
00:55:46.964:1,-0.03,0.025
00:55:46.968:1,0.03,0.04
00:55:46.972:1,0.08,0.04
00:55:46.976:1,0.155,0.06
00:55:46.980:1,0.19,0.07
00:55:46.984:1,0.225,0.055
00:55:46.988:1,0.23,0.05
00:55:46.992:1,0.225,0.07
00:55:46.996:1,0.22,0.055
00:55:47.000:1,0.22,0.05
00:55:47.004:1,0.18,0.005
00:55:47.008:1,0.105,-0.025
00:55:47.012:1,0.025,-0.025
00:55:47.016:1,-0.02,-0.035
00:55:47.020:1,-0.08,-0.015
00:55:47.024:1,-0.105,0.0
00:55:47.028:1,-0.155,-0.005
00:55:47.032:1,-0.19,-0.005
00:55:47.036:1,-0.23,-0.01
00:55:47.040:1,-0.245,-0.02
00:55:47.044:1,-0.225,-0.035
00:55:47.048:1,-0.22,-0.05
00:55:47.052:1,-0.195,-0.04
00:55:47.056:1,-0.18,-0.025
00:55:47.060:1,-0.18,-0.04
00:55:47.064:1,-0.21,-0.06
00:55:47.068:1,-0.2,-0.04
00:55:47.072:1,-0.195,-0.045
00:55:47.076:1,-0.16,-0.05
00:55:47.080:1,-0.15,-0.04
00:55:47.084:1,-0.15,-0.035
00:55:47.088:1,-0.155,-0.025
00:55:47.092:1,-0.12,-0.03
00:55:47.096:1,-0.115,-0.04
00:55:47.100:1,-0.12,-0.04
00:55:47.104:1,-0.11,-0.03
00:55:47.108:1,-0.155,-0.02
00:55:47.112:1,-0.145,-0.04
00:55:47.116:1,-0.15,-0.04
00:55:47.120:1,-0.11,-0.055
00:55:47.124:1,-0.13,-0.03
00:55:47.128:1,-0.11,-0.035
00:55:47.132:1,-0.13,-0.055
00:55:47.136:1,-0.125,-0.045
00:55:47.140:1,-0.095,-0.065
00:55:47.144:1,-0.01,-0.07
00:55:47.148:1,0.045,-0.08
00:55:47.152:1,0.145,-0.07
00:55:47.156:1,0.25,-0.1
00:55:47.160:1,0.29,-0.14
00:55:47.164:1,0.275,-0.14
00:55:47.168:1,0.275,-0.16
00:55:47.172:1,0.275,-0.105
00:55:47.176:1,0.26,-0.155
00:55:47.180:1,0.275,-0.215
00:55:47.184:1,0.37,-0.33
00:55:47.188:1,0.605,-0.515
00:55:47.192:1,0.91,-0.775
00:55:47.196:1,1.225,-1.02
00:55:47.200:1,1.38,-1.155
00:55:47.204:1,1.34,-1.115
00:55:47.208:1,0.965,-0.79
00:55:47.212:1,0.45,-0.375
00:55:47.216:1,0.105,-0.115
00:55:47.220:1,-0.04,0.05
00:55:47.224:1,-0.12,0.125
00:55:47.228:1,-0.175,0.155
00:55:47.232:1,-0.21,0.11
00:55:47.236:1,-0.24,0.13
00:55:47.240:1,-0.265,0.11
00:55:47.244:1,-0.285,0.11
00:55:47.248:1,-0.285,0.085
00:55:47.252:1,-0.295,0.07
00:55:47.256:1,-0.31,0.04
00:55:47.260:1,-0.305,0.04
00:55:47.264:1,-0.33,0.025
00:55:47.268:1,-0.32,0.035
00:55:47.272:1,-0.315,0.035
00:55:47.276:1,-0.3,0.03
00:55:47.280:1,-0.305,0.045
00:55:47.284:1,-0.34,0.035
00:55:47.288:1,-0.365,0.035
00:55:47.292:1,-0.33,0.04
00:55:47.296:1,-0.335,0.035
00:55:47.300:1,-0.31,0.035
00:55:47.304:1,-0.285,0.05
00:55:47.308:1,-0.32,0.06
00:55:47.312:1,-0.325,0.045
00:55:47.316:1,-0.32,0.055
00:55:47.320:1,-0.34,0.045
00:55:47.324:1,-0.33,0.035
00:55:47.328:1,-0.325,0.055
00:55:47.332:1,-0.325,0.04
00:55:47.336:1,-0.32,0.035
00:55:47.340:1,-0.315,0.045
00:55:47.344:1,-0.35,0.015
00:55:47.348:1,-0.38,0.01
00:55:47.352:1,-0.405,0.02
00:55:47.356:1,-0.385,0.005
00:55:47.360:1,-0.385,0.02
00:55:47.364:1,-0.345,0.0
00:55:47.368:1,-0.345,-0.005
00:55:47.372:1,-0.345,0.01
00:55:47.376:1,-0.335,-0.005
00:55:47.380:1,-0.325,0.01
00:55:47.384:1,-0.32,-0.02
00:55:47.388:1,-0.3,0.005
00:55:47.392:1,-0.34,-0.005
00:55:47.396:1,-0.34,-0.01
00:55:47.400:1,-0.295,-0.01
00:55:47.404:1,-0.225,0.01
00:55:47.408:1,-0.21,0.0
00:55:47.412:1,-0.215,0.0
00:55:47.416:1,-0.22,-0.03
00:55:47.420:1,-0.25,-0.01
00:55:47.424:1,-0.25,-0.005
00:55:47.428:1,-0.23,-0.04
00:55:47.432:1,-0.205,-0.02
00:55:47.436:1,-0.18,-0.015
00:55:47.440:1,-0.17,-0.02
00:55:47.444:1,-0.165,-0.015
00:55:47.448:1,-0.145,-0.02
00:55:47.452:1,-0.145,-0.025
00:55:47.456:1,-0.15,-0.02
00:55:47.460:1,-0.135,-0.03
00:55:47.464:1,-0.125,-0.01
00:55:47.468:1,-0.11,-0.015
00:55:47.472:1,-0.12,-0.005
00:55:47.476:1,-0.115,-0.015
00:55:47.480:1,-0.075,-0.01
00:55:47.484:1,-0.06,-0.015
00:55:47.488:1,-0.07,-0.01
00:55:47.492:1,-0.055,0.015
00:55:47.496:1,-0.03,0.0
00:55:47.500:1,-0.08,0.005
00:55:47.504:1,-0.08,-0.01
00:55:47.508:1,-0.08,0.005
00:55:47.512:1,-0.045,0.03
00:55:47.516:1,-0.03,0.0
00:55:47.520:1,-0.025,0.015
00:55:47.524:1,-0.055,0.05
00:55:47.528:1,-0.07,0.04
00:55:47.532:1,-0.05,0.04
00:55:47.536:1,-0.03,0.03
00:55:47.540:1,-0.025,0.025
00:55:47.544:1,-0.025,0.025
00:55:47.548:1,-0.065,0.035
00:55:47.552:1,-0.05,0.04
00:55:47.556:1,-0.03,0.025
00:55:47.560:1,-0.025,0.02
00:55:47.564:1,-0.03,0.005
00:55:47.568:1,-0.03,0.02
00:55:47.572:1,0.0,0.03
00:55:47.576:1,0.03,0.02
00:55:47.580:1,0.085,0.02
00:55:47.584:1,0.13,0.05
00:55:47.588:1,0.2,0.06
00:55:47.592:1,0.25,0.06
00:55:47.596:1,0.24,0.055
00:55:47.600:1,0.235,0.065
00:55:47.604:1,0.24,0.06
00:55:47.608:1,0.23,0.04
00:55:47.612:1,0.18,0.0
00:55:47.616:1,0.115,-0.005
00:55:47.620:1,0.085,-0.025
00:55:47.624:1,0.01,-0.03
00:55:47.628:1,-0.04,0.0
00:55:47.632:1,-0.09,-0.005
00:55:47.636:1,-0.15,0.01
00:55:47.640:1,-0.185,0.03
00:55:47.644:1,-0.19,-0.015
00:55:47.648:1,-0.17,-0.005
00:55:47.652:1,-0.17,-0.015
00:55:47.656:1,-0.17,-0.03
00:55:47.660:1,-0.17,-0.02
00:55:47.664:1,-0.165,-0.01
00:55:47.668:1,-0.175,-0.04
00:55:47.672:1,-0.155,-0.04
00:55:47.676:1,-0.155,-0.035
00:55:47.680:1,-0.14,-0.055
00:55:47.684:1,-0.1,-0.05
00:55:47.688:1,-0.08,-0.04
00:55:47.692:1,-0.1,-0.045
00:55:47.696:1,-0.11,-0.07
00:55:47.700:1,-0.14,-0.04
00:55:47.704:1,-0.16,-0.045
00:55:47.708:1,-0.13,-0.05
00:55:47.712:1,-0.11,-0.03
00:55:47.716:1,-0.08,-0.06
00:55:47.720:1,-0.1,-0.035
00:55:47.724:1,-0.115,-0.05
00:55:47.728:1,-0.125,-0.055
00:55:47.732:1,-0.11,-0.04
00:55:47.736:1,-0.085,-0.04
00:55:47.740:1,-0.07,-0.04
00:55:47.744:1,-0.07,-0.05
00:55:47.748:1,-0.05,-0.045
00:55:47.752:1,0.005,-0.02
00:55:47.756:1,0.075,-0.05
00:55:47.760:1,0.19,-0.08
00:55:47.764:1,0.3,-0.08
00:55:47.768:1,0.38,-0.125
00:55:47.772:1,0.425,-0.14
00:55:47.776:1,0.46,-0.14
00:55:47.780:1,0.48,-0.115
00:55:47.784:1,0.46,-0.1
00:55:47.788:1,0.445,-0.16
00:55:47.792:1,0.51,-0.24
00:55:47.796:1,0.72,-0.37
00:55:47.800:1,1.01,-0.65
00:55:47.804:1,1.31,-0.905
00:55:47.808:1,1.4,-1.085
00:55:47.812:1,1.25,-1.06
00:55:47.816:1,0.83,-0.74
00:55:47.820:1,0.36,-0.37
00:55:47.824:1,0.07,-0.115
00:55:47.828:1,-0.02,-0.02
00:55:47.832:1,-0.09,0.045
00:55:47.836:1,-0.1,0.07
00:55:47.840:1,-0.135,0.1
00:55:47.844:1,-0.21,0.09
00:55:47.848:1,-0.265,0.105
00:55:47.852:1,-0.29,0.105
00:55:47.856:1,-0.3,0.085
00:55:47.860:1,-0.31,0.045
00:55:47.864:1,-0.285,0.04
00:55:47.868:1,-0.305,0.01
00:55:47.872:1,-0.265,0.01
00:55:47.876:1,-0.285,0.005
00:55:47.880:1,-0.29,0.0
00:55:47.884:1,-0.255,0.01
00:55:47.888:1,-0.27,-0.02
00:55:47.892:1,-0.36,0.0
00:55:47.896:1,-0.415,0.01
00:55:47.900:1,-0.37,-0.015
00:55:47.904:1,-0.33,-0.01
00:55:47.908:1,-0.32,0.0
00:55:47.912:1,-0.35,-0.025
00:55:47.916:1,-0.38,-0.03
00:55:47.920:1,-0.38,-0.02
00:55:47.924:1,-0.36,-0.02
00:55:47.928:1,-0.325,-0.035
00:55:47.932:1,-0.315,-0.045
00:55:47.936:1,-0.325,-0.02
00:55:47.940:1,-0.34,-0.02
00:55:47.944:1,-0.36,-0.035
00:55:47.948:1,-0.335,-0.01
00:55:47.952:1,-0.315,-0.03
00:55:47.956:1,-0.34,-0.02
00:55:47.960:1,-0.38,-0.01
00:55:47.964:1,-0.43,-0.015
00:55:47.968:1,-0.425,-0.005
00:55:47.972:1,-0.375,-0.01
00:55:47.976:1,-0.345,-0.01
00:55:47.980:1,-0.36,-0.005
00:55:47.984:1,-0.39,-0.01
00:55:47.988:1,-0.4,-0.025
00:55:47.992:1,-0.365,-0.04
00:55:47.996:1,-0.345,-0.03
00:55:48.000:1,-0.33,-0.04
00:55:48.004:1,-0.32,-0.04
00:55:48.008:1,-0.305,-0.065
00:55:48.012:1,-0.31,-0.065
00:55:48.016:1,-0.315,-0.05
00:55:48.020:1,-0.325,-0.065
00:55:48.024:1,-0.28,-0.075
00:55:48.028:1,-0.255,-0.065
00:55:48.032:1,-0.235,-0.065
00:55:48.036:1,-0.19,-0.05
00:55:48.040:1,-0.17,-0.05
00:55:48.044:1,-0.185,-0.065
00:55:48.048:1,-0.225,-0.06
00:55:48.052:1,-0.235,-0.05
00:55:48.056:1,-0.19,-0.055
00:55:48.060:1,-0.14,-0.06
00:55:48.064:1,-0.155,-0.03
00:55:48.068:1,-0.16,-0.045
00:55:48.072:1,-0.165,-0.045
00:55:48.076:1,-0.16,-0.05
00:55:48.080:1,-0.15,-0.08
00:55:48.084:1,-0.125,-0.055
00:55:48.088:1,-0.105,-0.06
00:55:48.092:1,-0.09,-0.055
00:55:48.096:1,-0.085,-0.035
00:55:48.100:1,-0.09,-0.045
00:55:48.104:1,-0.09,-0.06
00:55:48.108:1,-0.09,-0.07
00:55:48.112:1,-0.095,-0.04
00:55:48.116:1,-0.115,-0.055
00:55:48.120:1,-0.1,-0.045
00:55:48.124:1,-0.115,-0.04
00:55:48.128:1,-0.115,-0.045
00:55:48.132:1,-0.11,-0.03
00:55:48.136:1,-0.12,-0.03
00:55:48.140:1,-0.105,-0.015
00:55:48.144:1,-0.07,-0.02
00:55:48.148:1,-0.005,0.0
00:55:48.152:1,0.0,0.0
00:55:48.156:1,-0.025,-0.005
00:55:48.160:1,-0.1,-0.01
00:55:48.164:1,-0.155,0.005
00:55:48.168:1,-0.155,0.0
00:55:48.172:1,-0.11,0.03
00:55:48.176:1,-0.075,-0.01
00:55:48.180:1,-0.04,0.015
00:55:48.184:1,-0.005,0.015
00:55:48.188:1,0.025,0.025
00:55:48.192:1,0.035,0.025
00:55:48.196:1,0.045,0.05
00:55:48.200:1,0.08,0.055
00:55:48.204:1,0.14,0.05
00:55:48.208:1,0.18,0.045
00:55:48.212:1,0.24,0.055
00:55:48.216:1,0.24,0.045
00:55:48.220:1,0.215,0.045
00:55:48.224:1,0.155,0.02
00:55:48.228:1,0.105,-0.03
00:55:48.232:1,0.05,-0.025
00:55:48.236:1,0.035,-0.01
00:55:48.240:1,-0.03,0.0
00:55:48.244:1,-0.105,-0.015
00:55:48.248:1,-0.19,0.0
00:55:48.252:1,-0.225,0.02
00:55:48.256:1,-0.23,0.025
00:55:48.260:1,-0.22,0.015
00:55:48.264:1,-0.175,0.03
00:55:48.268:1,-0.14,0.01
00:55:48.272:1,-0.18,0.0
00:55:48.276:1,-0.21,-0.01
00:55:48.280:1,-0.21,0.015
00:55:48.284:1,-0.18,-0.005
00:55:48.288:1,-0.15,0.0
00:55:48.292:1,-0.15,0.01
00:55:48.296:1,-0.12,0.005
00:55:48.300:1,-0.125,0.0
00:55:48.304:1,-0.17,0.0
00:55:48.308:1,-0.17,0.015
00:55:48.312:1,-0.175,-0.01
00:55:48.316:1,-0.145,-0.025
00:55:48.320:1,-0.15,-0.01
00:55:48.324:1,-0.16,-0.01
00:55:48.328:1,-0.18,0.01
00:55:48.332:1,-0.175,0.0
00:55:48.336:1,-0.18,0.0
00:55:48.340:1,-0.155,-0.005
00:55:48.344:1,-0.18,-0.005
00:55:48.348:1,-0.2,-0.015
00:55:48.352:1,-0.165,-0.005
00:55:48.356:1,-0.125,0.01
00:55:48.360:1,-0.1,0.0
00:55:48.364:1,-0.04,-0.005
00:55:48.368:1,0.03,0.0
00:55:48.372:1,0.12,-0.005
00:55:48.376:1,0.235,0.0
00:55:48.380:1,0.315,-0.04
00:55:48.384:1,0.36,-0.075
00:55:48.388:1,0.4,-0.095
00:55:48.392:1,0.405,-0.05
00:55:48.396:1,0.385,-0.05
00:55:48.400:1,0.37,-0.12
00:55:48.404:1,0.415,-0.215
00:55:48.408:1,0.595,-0.355
00:55:48.412:1,0.89,-0.61
00:55:48.416:1,1.23,-0.89
00:55:48.420:1,1.46,-1.07
00:55:48.424:1,1.46,-1.1
00:55:48.428:1,1.145,-0.875
00:55:48.432:1,0.57,-0.465
00:55:48.436:1,0.12,-0.135
00:55:48.440:1,-0.07,0.01
00:55:48.444:1,-0.155,0.11
00:55:48.448:1,-0.19,0.16
00:55:48.452:1,-0.225,0.18
00:55:48.456:1,-0.255,0.2
00:55:48.460:1,-0.31,0.185
00:55:48.464:1,-0.305,0.18
00:55:48.468:1,-0.315,0.16
00:55:48.472:1,-0.33,0.15
00:55:48.476:1,-0.31,0.13
00:55:48.480:1,-0.32,0.105
00:55:48.484:1,-0.3,0.11
00:55:48.488:1,-0.32,0.13
00:55:48.492:1,-0.31,0.15
00:55:48.496:1,-0.28,0.13
00:55:48.500:1,-0.27,0.15
00:55:48.504:1,-0.26,0.14
00:55:48.508:1,-0.27,0.12
00:55:48.512:1,-0.29,0.115
00:55:48.516:1,-0.35,0.125
00:55:48.520:1,-0.365,0.12
00:55:48.524:1,-0.31,0.11
00:55:48.528:1,-0.33,0.11
00:55:48.532:1,-0.35,0.11
00:55:48.536:1,-0.31,0.09
00:55:48.540:1,-0.31,0.115
00:55:48.544:1,-0.345,0.105
00:55:48.548:1,-0.38,0.085
00:55:48.552:1,-0.39,0.08
00:55:48.556:1,-0.375,0.085
00:55:48.560:1,-0.385,0.095
00:55:48.564:1,-0.38,0.1
00:55:48.568:1,-0.335,0.09
00:55:48.572:1,-0.315,0.105
00:55:48.576:1,-0.315,0.095
00:55:48.580:1,-0.335,0.1
00:55:48.584:1,-0.355,0.105
00:55:48.588:1,-0.32,0.09
00:55:48.592:1,-0.32,0.11
00:55:48.596:1,-0.305,0.11
00:55:48.600:1,-0.285,0.095
00:55:48.604:1,-0.295,0.1
00:55:48.608:1,-0.275,0.105
00:55:48.612:1,-0.28,0.085
00:55:48.616:1,-0.32,0.07
00:55:48.620:1,-0.35,0.09
00:55:48.624:1,-0.31,0.065
00:55:48.628:1,-0.29,0.075
00:55:48.632:1,-0.265,0.075
00:55:48.636:1,-0.245,0.06
00:55:48.640:1,-0.225,0.05
00:55:48.644:1,-0.205,0.05
00:55:48.648:1,-0.18,0.03
00:55:48.652:1,-0.16,0.035
00:55:48.656:1,-0.155,0.025
00:55:48.660:1,-0.17,0.01
00:55:48.664:1,-0.19,0.015
00:55:48.668:1,-0.18,0.015
00:55:48.672:1,-0.155,0.02
00:55:48.676:1,-0.105,0.05
00:55:48.680:1,-0.05,0.035
00:55:48.684:1,-0.03,0.04
00:55:48.688:1,-0.04,0.045
00:55:48.692:1,-0.04,0.055
00:55:48.696:1,-0.06,0.06
00:55:48.700:1,-0.04,0.075
00:55:48.704:1,-0.015,0.06
00:55:48.708:1,-0.005,0.065
00:55:48.712:1,-0.02,0.075
00:55:48.716:1,-0.025,0.08
00:55:48.720:1,-0.03,0.075
00:55:48.724:1,-0.05,0.1
00:55:48.728:1,-0.05,0.11
00:55:48.732:1,-0.05,0.09
00:55:48.736:1,-0.03,0.09
00:55:48.740:1,-0.045,0.085
00:55:48.744:1,-0.03,0.09
00:55:48.748:1,-0.04,0.105
00:55:48.752:1,-0.04,0.085
00:55:48.756:1,-0.08,0.1
00:55:48.760:1,-0.04,0.12
00:55:48.764:1,-0.015,0.1
00:55:48.768:1,-0.035,0.09
00:55:48.772:1,-0.04,0.115
00:55:48.776:1,0.0,0.105
00:55:48.780:1,0.025,0.125
00:55:48.784:1,0.03,0.125
00:55:48.788:1,0.05,0.15
00:55:48.792:1,0.11,0.17
00:55:48.796:1,0.155,0.165
00:55:48.800:1,0.205,0.185
00:55:48.804:1,0.19,0.19
00:55:48.808:1,0.195,0.17
00:55:48.812:1,0.21,0.175
00:55:48.816:1,0.255,0.2
00:55:48.820:1,0.265,0.195
00:55:48.824:1,0.22,0.17
00:55:48.828:1,0.175,0.15
00:55:48.832:1,0.13,0.155
00:55:48.836:1,0.125,0.13
00:55:48.840:1,0.055,0.11
00:55:48.844:1,0.035,0.115
00:55:48.848:1,-0.005,0.08
00:55:48.852:1,-0.04,0.105
00:55:48.856:1,-0.075,0.11
00:55:48.860:1,-0.11,0.12
00:55:48.864:1,-0.13,0.12
00:55:48.868:1,-0.16,0.14
00:55:48.872:1,-0.18,0.12
00:55:48.876:1,-0.165,0.11
00:55:48.880:1,-0.15,0.105
00:55:48.884:1,-0.14,0.095
00:55:48.888:1,-0.16,0.1
00:55:48.892:1,-0.16,0.08
00:55:48.896:1,-0.135,0.105
00:55:48.900:1,-0.125,0.105
00:55:48.904:1,-0.095,0.075
00:55:48.908:1,-0.075,0.095
00:55:48.912:1,-0.095,0.085
00:55:48.916:1,-0.11,0.1
00:55:48.920:1,-0.115,0.09
00:55:48.924:1,-0.11,0.085
00:55:48.928:1,-0.1,0.1
00:55:48.932:1,-0.115,0.075
00:55:48.936:1,-0.1,0.08
00:55:48.940:1,-0.08,0.065
00:55:48.944:1,-0.075,0.05
00:55:48.948:1,-0.11,0.055
00:55:48.952:1,-0.125,0.055
00:55:48.956:1,-0.08,0.03
00:55:48.960:1,-0.095,0.065
00:55:48.964:1,-0.085,0.055
00:55:48.968:1,-0.05,0.05
00:55:48.972:1,0.01,0.035
00:55:48.976:1,0.11,0.035
00:55:48.980:1,0.215,0.035
00:55:48.984:1,0.31,0.0
00:55:48.988:1,0.355,-0.05
00:55:48.992:1,0.35,-0.025
00:55:48.996:1,0.36,-0.005
00:55:49.000:1,0.35,-0.02
00:55:49.004:1,0.335,-0.07
00:55:49.008:1,0.395,-0.145
00:55:49.012:1,0.59,-0.3
00:55:49.016:1,0.845,-0.54
00:55:49.020:1,1.15,-0.785
00:55:49.024:1,1.4,-1.005
00:55:49.028:1,1.39,-1.06
00:55:49.032:1,1.08,-0.825
00:55:49.036:1,0.515,-0.435
00:55:49.040:1,0.14,-0.08
00:55:49.044:1,-0.08,0.09
00:55:49.048:1,-0.16,0.19
00:55:49.052:1,-0.195,0.22
00:55:49.056:1,-0.175,0.195
00:55:49.060:1,-0.215,0.195
00:55:49.064:1,-0.25,0.195
00:55:49.068:1,-0.28,0.17
00:55:49.072:1,-0.295,0.16
00:55:49.076:1,-0.29,0.125
00:55:49.080:1,-0.31,0.14
00:55:49.084:1,-0.305,0.11
00:55:49.088:1,-0.275,0.105
00:55:49.092:1,-0.25,0.115
00:55:49.096:1,-0.28,0.115
00:55:49.100:1,-0.305,0.1
00:55:49.104:1,-0.3,0.11
00:55:49.108:1,-0.29,0.12
00:55:49.112:1,-0.25,0.13
00:55:49.116:1,-0.235,0.095
00:55:49.120:1,-0.26,0.115
00:55:49.124:1,-0.295,0.105
00:55:49.128:1,-0.31,0.12
00:55:49.132:1,-0.31,0.115
00:55:49.136:1,-0.3,0.105
00:55:49.140:1,-0.295,0.095
00:55:49.144:1,-0.31,0.09
00:55:49.148:1,-0.345,0.095
00:55:49.152:1,-0.355,0.085
00:55:49.156:1,-0.36,0.08
00:55:49.160:1,-0.38,0.075
00:55:49.164:1,-0.375,0.055
00:55:49.168:1,-0.34,0.08
00:55:49.172:1,-0.35,0.05
00:55:49.176:1,-0.335,0.045
00:55:49.180:1,-0.335,0.06
00:55:49.184:1,-0.285,0.05
00:55:49.188:1,-0.305,0.035
00:55:49.192:1,-0.325,0.035
00:55:49.196:1,-0.33,0.045
00:55:49.200:1,-0.32,0.03
00:55:49.204:1,-0.305,0.04
00:55:49.208:1,-0.29,0.04
00:55:49.212:1,-0.305,0.02
00:55:49.216:1,-0.3,0.02
00:55:49.220:1,-0.305,0.05
00:55:49.224:1,-0.28,0.045
00:55:49.228:1,-0.235,0.025
00:55:49.232:1,-0.23,0.05
00:55:49.236:1,-0.23,0.03
00:55:49.240:1,-0.225,0.02
00:55:49.244:1,-0.195,0.0
00:55:49.248:1,-0.165,0.02
00:55:49.252:1,-0.19,-0.005
00:55:49.256:1,-0.2,0.0
00:55:49.260:1,-0.17,0.01
00:55:49.264:1,-0.16,0.005
00:55:49.268:1,-0.175,0.01
00:55:49.272:1,-0.2,0.005
00:55:49.276:1,-0.195,-0.01
00:55:49.280:1,-0.185,-0.02
00:55:49.284:1,-0.12,-0.01
00:55:49.288:1,-0.115,-0.01
00:55:49.292:1,-0.1,0.005
00:55:49.296:1,-0.105,0.0
00:55:49.300:1,-0.1,0.005
00:55:49.304:1,-0.07,0.0
00:55:49.308:1,-0.06,0.025
00:55:49.312:1,-0.02,0.015
00:55:49.316:1,-0.05,0.035
00:55:49.320:1,-0.07,0.015
00:55:49.324:1,-0.065,0.03
00:55:49.328:1,-0.045,0.035
00:55:49.332:1,-0.025,0.045
00:55:49.336:1,-0.045,0.05
00:55:49.340:1,-0.075,0.035
00:55:49.344:1,-0.09,0.03
00:55:49.348:1,-0.11,0.04
00:55:49.352:1,-0.09,0.02
00:55:49.356:1,-0.09,0.03
00:55:49.360:1,-0.085,0.025
00:55:49.364:1,-0.04,0.03
00:55:49.368:1,-0.015,0.04
00:55:49.372:1,-0.005,0.015
00:55:49.376:1,-0.01,0.015
00:55:49.380:1,-0.005,0.02
00:55:49.384:1,0.015,0.04
00:55:49.388:1,0.02,0.035
00:55:49.392:1,0.01,0.02
00:55:49.396:1,0.02,0.045
00:55:49.400:1,0.045,0.04
00:55:49.404:1,0.07,0.075
00:55:49.408:1,0.105,0.075
00:55:49.412:1,0.19,0.09
00:55:49.416:1,0.22,0.095
00:55:49.420:1,0.25,0.085
00:55:49.424:1,0.225,0.09
00:55:49.428:1,0.165,0.04
00:55:49.432:1,0.135,0.045
00:55:49.436:1,0.115,0.025
00:55:49.440:1,0.065,0.025
00:55:49.444:1,0.035,0.01
00:55:49.448:1,-0.03,0.015
00:55:49.452:1,-0.095,0.015
00:55:49.456:1,-0.14,0.045
00:55:49.460:1,-0.17,0.025
00:55:49.464:1,-0.2,0.05
00:55:49.468:1,-0.255,0.015
00:55:49.472:1,-0.225,0.005
00:55:49.476:1,-0.2,0.01
00:55:49.480:1,-0.155,0.005
00:55:49.484:1,-0.085,0.0
00:55:49.488:1,-0.14,0.015
00:55:49.492:1,-0.215,0.005
00:55:49.496:1,-0.225,-0.005
00:55:49.500:1,-0.225,-0.02
00:55:49.504:1,-0.21,-0.02
00:55:49.508:1,-0.18,0.0
00:55:49.512:1,-0.125,-0.005
00:55:49.516:1,-0.12,0.005
00:55:49.520:1,-0.11,0.015
00:55:49.524:1,-0.12,0.005
00:55:49.528:1,-0.115,0.005
00:55:49.532:1,-0.085,0.0
00:55:49.536:1,-0.095,0.0
00:55:49.540:1,-0.11,-0.005
00:55:49.544:1,-0.13,-0.02
00:55:49.548:1,-0.115,-0.03
00:55:49.552:1,-0.095,-0.02
00:55:49.556:1,-0.095,-0.025
00:55:49.560:1,-0.075,-0.035
00:55:49.564:1,-0.07,-0.025
00:55:49.568:1,-0.05,-0.01
00:55:49.572:1,0.0,-0.035
00:55:49.576:1,0.09,-0.045
00:55:49.580:1,0.245,-0.06
00:55:49.584:1,0.32,-0.09
00:55:49.588:1,0.38,-0.11
00:55:49.592:1,0.41,-0.125
00:55:49.596:1,0.425,-0.095
00:55:49.600:1,0.42,-0.095
00:55:49.604:1,0.4,-0.12
00:55:49.608:1,0.45,-0.16
00:55:49.612:1,0.645,-0.275
00:55:49.616:1,0.95,-0.515
00:55:49.620:1,1.235,-0.795
00:55:49.624:1,1.435,-1.01
00:55:49.628:1,1.35,-1.03
00:55:49.632:1,0.92,-0.8
00:55:49.636:1,0.41,-0.43
00:55:49.640:1,0.105,-0.145
00:55:49.644:1,-0.03,-0.04
00:55:49.648:1,-0.12,0.055
00:55:49.652:1,-0.17,0.11
00:55:49.656:1,-0.17,0.125
00:55:49.660:1,-0.205,0.13
00:55:49.664:1,-0.22,0.105
00:55:49.668:1,-0.27,0.105
00:55:49.672:1,-0.27,0.08
00:55:49.676:1,-0.265,0.04
00:55:49.680:1,-0.33,0.015
00:55:49.684:1,-0.34,0.01
00:55:49.688:1,-0.36,0.0
00:55:49.692:1,-0.355,-0.005
00:55:49.696:1,-0.32,0.01
00:55:49.700:1,-0.29,0.01
00:55:49.704:1,-0.285,0.005
00:55:49.708:1,-0.325,-0.03
00:55:49.712:1,-0.39,0.015
00:55:49.716:1,-0.41,-0.005
00:55:49.720:1,-0.385,0.0
00:55:49.724:1,-0.375,0.01
00:55:49.728:1,-0.36,0.01
00:55:49.732:1,-0.3,-0.005
00:55:49.736:1,-0.275,-0.01
00:55:49.740:1,-0.25,0.005
00:55:49.744:1,-0.27,-0.01
00:55:49.748:1,-0.325,-0.025
00:55:49.752:1,-0.35,-0.015
00:55:49.756:1,-0.31,-0.01
00:55:49.760:1,-0.35,-0.035
00:55:49.764:1,-0.42,-0.02
00:55:49.768:1,-0.45,0.0
00:55:49.772:1,-0.45,0.0
00:55:49.776:1,-0.425,-0.015
00:55:49.780:1,-0.39,0.0
00:55:49.784:1,-0.375,-0.02
00:55:49.788:1,-0.385,-0.005
00:55:49.792:1,-0.4,-0.02
00:55:49.796:1,-0.39,-0.04
00:55:49.800:1,-0.365,-0.035
00:55:49.804:1,-0.355,-0.035
00:55:49.808:1,-0.31,-0.045
00:55:49.812:1,-0.265,-0.04
00:55:49.816:1,-0.295,-0.04
00:55:49.820:1,-0.285,-0.04
00:55:49.824:1,-0.29,-0.025
00:55:49.828:1,-0.315,-0.025
00:55:49.832:1,-0.32,-0.025
00:55:49.836:1,-0.375,-0.025
00:55:49.840:1,-0.33,-0.045
00:55:49.844:1,-0.28,-0.04
00:55:49.848:1,-0.25,-0.05
00:55:49.852:1,-0.225,-0.04
00:55:49.856:1,-0.185,-0.02
00:55:49.860:1,-0.19,-0.04
00:55:49.864:1,-0.18,-0.03
00:55:49.868:1,-0.17,-0.045
00:55:49.872:1,-0.16,-0.045
00:55:49.876:1,-0.16,-0.055
00:55:49.880:1,-0.19,-0.03
00:55:49.884:1,-0.175,-0.025
00:55:49.888:1,-0.155,-0.045
00:55:49.892:1,-0.16,-0.04
00:55:49.896:1,-0.15,-0.04
00:55:49.900:1,-0.145,-0.045
00:55:49.904:1,-0.11,-0.045
00:55:49.908:1,-0.105,-0.06
00:55:49.912:1,-0.15,-0.025
00:55:49.916:1,-0.155,-0.055
00:55:49.920:1,-0.135,-0.045
00:55:49.924:1,-0.1,-0.015
00:55:49.928:1,-0.1,-0.04
00:55:49.932:1,-0.1,-0.035
00:55:49.936:1,-0.08,-0.05
00:55:49.940:1,-0.11,-0.04
00:55:49.944:1,-0.12,-0.03
00:55:49.948:1,-0.115,-0.045
00:55:49.952:1,-0.1,-0.02
00:55:49.956:1,-0.095,-0.025
00:55:49.960:1,-0.085,-0.03
00:55:49.964:1,-0.075,0.015
00:55:49.968:1,-0.1,-0.01
00:55:49.972:1,-0.12,-0.01
00:55:49.976:1,-0.13,-0.01
00:55:49.980:1,-0.125,-0.015
00:55:49.984:1,-0.115,-0.02
00:55:49.988:1,-0.095,-0.02
00:55:49.992:1,-0.07,-0.005
00:55:49.996:1,-0.07,0.005
00:55:50.000:1,-0.04,-0.02
00:55:50.004:1,-0.045,0.0
00:55:50.008:1,-0.02,0.015
00:55:50.012:1,0.025,0.02
00:55:50.016:1,0.055,0.035
00:55:50.020:1,0.07,0.035
00:55:50.024:1,0.145,0.045
00:55:50.028:1,0.205,0.02
00:55:50.032:1,0.195,0.07
00:55:50.036:1,0.155,0.045
00:55:50.040:1,0.14,0.015
00:55:50.044:1,0.11,-0.015
00:55:50.048:1,0.075,-0.04
00:55:50.052:1,0.03,-0.025
00:55:50.056:1,-0.03,-0.03
00:55:50.060:1,-0.115,-0.035
00:55:50.064:1,-0.135,-0.015
00:55:50.068:1,-0.155,-0.005
00:55:50.072:1,-0.2,0.005
00:55:50.076:1,-0.27,-0.005
00:55:50.080:1,-0.295,-0.02
00:55:50.084:1,-0.28,-0.02
00:55:50.088:1,-0.255,-0.04
00:55:50.092:1,-0.24,-0.02
00:55:50.096:1,-0.245,-0.03
00:55:50.100:1,-0.245,-0.02
00:55:50.104:1,-0.23,-0.04
00:55:50.108:1,-0.215,-0.035
00:55:50.112:1,-0.17,-0.04
00:55:50.116:1,-0.15,-0.025
00:55:50.120:1,-0.185,-0.06
00:55:50.124:1,-0.24,-0.05
00:55:50.128:1,-0.245,-0.05
00:55:50.132:1,-0.21,-0.04
00:55:50.136:1,-0.19,-0.025
00:55:50.140:1,-0.195,-0.04
00:55:50.144:1,-0.175,-0.04
00:55:50.148:1,-0.18,-0.025
00:55:50.152:1,-0.2,-0.035
00:55:50.156:1,-0.195,-0.02
00:55:50.160:1,-0.19,-0.015
00:55:50.164:1,-0.145,-0.01
00:55:50.168:1,-0.11,-0.015
00:55:50.172:1,-0.12,-0.025
00:55:50.176:1,-0.145,-0.025
00:55:50.180:1,-0.165,-0.02
00:55:50.184:1,-0.11,-0.045
00:55:50.188:1,0.015,-0.03
00:55:50.192:1,0.15,-0.065
00:55:50.196:1,0.23,-0.07
00:55:50.200:1,0.275,-0.095
00:55:50.204:1,0.315,-0.135
00:55:50.208:1,0.36,-0.11
00:55:50.212:1,0.39,-0.1
00:55:50.216:1,0.385,-0.14
00:55:50.220:1,0.38,-0.24
00:55:50.224:1,0.47,-0.345
00:55:50.228:1,0.695,-0.56
00:55:50.232:1,1.06,-0.825
00:55:50.236:1,1.375,-1.04
00:55:50.240:1,1.46,-1.155
00:55:50.244:1,1.19,-1.045
00:55:50.248:1,0.6,-0.69
00:55:50.252:1,0.12,-0.295
00:55:50.256:1,-0.08,-0.095
00:55:50.260:1,-0.215,0.05
00:55:50.264:1,-0.265,0.11
00:55:50.268:1,-0.275,0.155
00:55:50.272:1,-0.29,0.175
00:55:50.276:1,-0.305,0.16
00:55:50.280:1,-0.335,0.17
00:55:50.284:1,-0.325,0.15
00:55:50.288:1,-0.32,0.105
00:55:50.292:1,-0.34,0.105
00:55:50.296:1,-0.355,0.11
00:55:50.300:1,-0.39,0.115
00:55:50.304:1,-0.43,0.1
00:55:50.308:1,-0.475,0.115
00:55:50.312:1,-0.47,0.1
00:55:50.316:1,-0.445,0.095
00:55:50.320:1,-0.41,0.115
00:55:50.324:1,-0.39,0.085
00:55:50.328:1,-0.41,0.1
00:55:50.332:1,-0.42,0.095
00:55:50.336:1,-0.425,0.085
00:55:50.340:1,-0.46,0.085
00:55:50.344:1,-0.46,0.075
00:55:50.348:1,-0.425,0.085
00:55:50.352:1,-0.42,0.095
00:55:50.356:1,-0.41,0.08
00:55:50.360:1,-0.4,0.07
00:55:50.364:1,-0.435,0.07
00:55:50.368:1,-0.45,0.08
00:55:50.372:1,-0.425,0.08
00:55:50.376:1,-0.41,0.08
00:55:50.380:1,-0.38,0.075
00:55:50.384:1,-0.35,0.075
00:55:50.388:1,-0.34,0.075
00:55:50.392:1,-0.37,0.085
00:55:50.396:1,-0.495,0.075
00:55:50.400:1,-0.57,0.05
00:55:50.404:1,-0.555,0.08
00:55:50.408:1,-0.5,0.065
00:55:50.412:1,-0.425,0.085
00:55:50.416:1,-0.42,0.085
00:55:50.420:1,-0.415,0.08
00:55:50.424:1,-0.44,0.075
00:55:50.428:1,-0.435,0.065
00:55:50.432:1,-0.43,0.075
00:55:50.436:1,-0.38,0.065
00:55:50.440:1,-0.38,0.055
00:55:50.444:1,-0.345,0.045
00:55:50.448:1,-0.34,0.055
00:55:50.452:1,-0.355,0.045
00:55:50.456:1,-0.35,0.03
00:55:50.460:1,-0.34,0.045
00:55:50.464:1,-0.31,0.01
00:55:50.468:1,-0.26,0.035
00:55:50.472:1,-0.26,0.035
00:55:50.476:1,-0.24,0.045
00:55:50.480:1,-0.24,0.035
00:55:50.484:1,-0.235,0.04
00:55:50.488:1,-0.205,0.01
00:55:50.492:1,-0.225,0.04
00:55:50.496:1,-0.21,0.035
00:55:50.500:1,-0.195,0.03
00:55:50.504:1,-0.16,0.05
00:55:50.508:1,-0.16,0.035
00:55:50.512:1,-0.185,0.055
00:55:50.516:1,-0.21,0.02
00:55:50.520:1,-0.2,0.035
00:55:50.524:1,-0.205,0.055
00:55:50.528:1,-0.165,0.07
00:55:50.532:1,-0.145,0.07
00:55:50.536:1,-0.155,0.04
00:55:50.540:1,-0.14,0.045
00:55:50.544:1,-0.105,0.065
00:55:50.548:1,-0.1,0.06
00:55:50.552:1,-0.11,0.07
00:55:50.556:1,-0.135,0.1
00:55:50.560:1,-0.145,0.095
00:55:50.564:1,-0.155,0.085
00:55:50.568:1,-0.14,0.09
00:55:50.572:1,-0.13,0.08
00:55:50.576:1,-0.115,0.09
00:55:50.580:1,-0.125,0.105
00:55:50.584:1,-0.135,0.09
00:55:50.588:1,-0.12,0.115
00:55:50.592:1,-0.115,0.125
00:55:50.596:1,-0.1,0.11
00:55:50.600:1,-0.09,0.135
00:55:50.604:1,-0.055,0.1
00:55:50.608:1,-0.03,0.125
00:55:50.612:1,-0.055,0.095
00:55:50.616:1,-0.055,0.115
00:55:50.620:1,-0.06,0.105
00:55:50.624:1,-0.06,0.11
00:55:50.628:1,0.01,0.11
00:55:50.632:1,0.085,0.14
00:55:50.636:1,0.12,0.145
00:55:50.640:1,0.115,0.165
00:55:50.644:1,0.1,0.14
00:55:50.648:1,0.12,0.155
00:55:50.652:1,0.165,0.13
00:55:50.656:1,0.2,0.13
00:55:50.660:1,0.195,0.13
00:55:50.664:1,0.145,0.1
00:55:50.668:1,0.05,0.09
00:55:50.672:1,-0.005,0.075
00:55:50.676:1,-0.03,0.06
00:55:50.680:1,-0.075,0.075
00:55:50.684:1,-0.11,0.1
00:55:50.688:1,-0.185,0.115
00:55:50.692:1,-0.22,0.11
00:55:50.696:1,-0.195,0.11
00:55:50.700:1,-0.23,0.11
00:55:50.704:1,-0.225,0.105
00:55:50.708:1,-0.19,0.115
00:55:50.712:1,-0.18,0.1
00:55:50.716:1,-0.205,0.095
00:55:50.720:1,-0.24,0.08
00:55:50.724:1,-0.245,0.08
00:55:50.728:1,-0.235,0.08
00:55:50.732:1,-0.23,0.08
00:55:50.736:1,-0.2,0.075
00:55:50.740:1,-0.18,0.065
00:55:50.744:1,-0.16,0.065
00:55:50.748:1,-0.17,0.07
00:55:50.752:1,-0.16,0.065
00:55:50.756:1,-0.175,0.035
00:55:50.760:1,-0.155,0.06
00:55:50.764:1,-0.185,0.06
00:55:50.768:1,-0.18,0.025
00:55:50.772:1,-0.175,0.06
00:55:50.776:1,-0.165,0.065
00:55:50.780:1,-0.14,0.075
00:55:50.784:1,-0.105,0.07
00:55:50.788:1,-0.05,0.065
00:55:50.792:1,-0.075,0.055
00:55:50.796:1,-0.095,0.05
00:55:50.800:1,-0.125,0.05
00:55:50.804:1,-0.065,0.04
00:55:50.808:1,0.04,0.05
00:55:50.812:1,0.15,0.07
00:55:50.816:1,0.23,0.04
00:55:50.820:1,0.26,-0.005
00:55:50.824:1,0.28,-0.035
00:55:50.828:1,0.275,-0.035
00:55:50.832:1,0.265,-0.025
00:55:50.836:1,0.27,-0.015
00:55:50.840:1,0.255,-0.05
00:55:50.844:1,0.325,-0.145
00:55:50.848:1,0.535,-0.295
00:55:50.852:1,0.835,-0.51
00:55:50.856:1,1.16,-0.795
00:55:50.860:1,1.4,-1.005
00:55:50.864:1,1.4,-1.1
00:55:50.868:1,1.09,-0.915
00:55:50.872:1,0.575,-0.54
00:55:50.876:1,0.175,-0.175
00:55:50.880:1,-0.02,0.055
00:55:50.884:1,-0.13,0.15
00:55:50.888:1,-0.17,0.205
00:55:50.892:1,-0.21,0.21
00:55:50.896:1,-0.24,0.205
00:55:50.900:1,-0.26,0.215
00:55:50.904:1,-0.29,0.21
00:55:50.908:1,-0.3,0.18
00:55:50.912:1,-0.305,0.15
00:55:50.916:1,-0.33,0.12
00:55:50.920:1,-0.295,0.145
00:55:50.924:1,-0.3,0.115
00:55:50.928:1,-0.285,0.11
00:55:50.932:1,-0.295,0.115
00:55:50.936:1,-0.285,0.11
00:55:50.940:1,-0.32,0.115
00:55:50.944:1,-0.37,0.14
00:55:50.948:1,-0.37,0.11
00:55:50.952:1,-0.355,0.11
00:55:50.956:1,-0.32,0.105
00:55:50.960:1,-0.335,0.09
00:55:50.964:1,-0.355,0.105
00:55:50.968:1,-0.375,0.095
00:55:50.972:1,-0.405,0.07
00:55:50.976:1,-0.38,0.07
00:55:50.980:1,-0.35,0.075
00:55:50.984:1,-0.33,0.07
00:55:50.988:1,-0.32,0.06
00:55:50.992:1,-0.365,0.05
00:55:50.996:1,-0.4,0.075
00:55:51.000:1,-0.39,0.05
00:55:51.004:1,-0.415,0.04
00:55:51.008:1,-0.425,0.065
00:55:51.012:1,-0.405,0.08
00:55:51.016:1,-0.37,0.05
00:55:51.020:1,-0.335,0.045
00:55:51.024:1,-0.355,0.055
00:55:51.028:1,-0.405,0.05
00:55:51.032:1,-0.395,0.035
00:55:51.036:1,-0.4,0.045
00:55:51.040:1,-0.405,0.065
00:55:51.044:1,-0.4,0.06
00:55:51.048:1,-0.385,0.06
00:55:51.052:1,-0.36,0.045
00:55:51.056:1,-0.32,0.04
00:55:51.060:1,-0.305,0.015
00:55:51.064:1,-0.29,0.02
00:55:51.068:1,-0.275,0.005
00:55:51.072:1,-0.305,0.02
00:55:51.076:1,-0.3,0.01
00:55:51.080:1,-0.295,0.015
00:55:51.084:1,-0.28,0.015
00:55:51.088:1,-0.26,0.015
00:55:51.092:1,-0.22,0.0
00:55:51.096:1,-0.2,-0.01
00:55:51.100:1,-0.21,-0.005
00:55:51.104:1,-0.215,0.015
00:55:51.108:1,-0.185,0.0
00:55:51.112:1,-0.17,0.0
00:55:51.116:1,-0.12,-0.005
00:55:51.120:1,-0.115,-0.02
00:55:51.124:1,-0.125,0.04
00:55:51.128:1,-0.135,0.02
00:55:51.132:1,-0.14,0.01
00:55:51.136:1,-0.16,0.01
00:55:51.140:1,-0.14,0.015
00:55:51.144:1,-0.145,0.005
00:55:51.148:1,-0.12,0.015
00:55:51.152:1,-0.12,0.035
00:55:51.156:1,-0.1,0.025
00:55:51.160:1,-0.095,0.01
00:55:51.164:1,-0.095,0.015
00:55:51.168:1,-0.09,0.025
00:55:51.172:1,-0.12,0.015
00:55:51.176:1,-0.13,0.025
00:55:51.180:1,-0.12,0.02
00:55:51.184:1,-0.115,0.035
00:55:51.188:1,-0.135,0.035
00:55:51.192:1,-0.16,0.035
00:55:51.196:1,-0.135,0.025
00:55:51.200:1,-0.115,0.04
00:55:51.204:1,-0.05,0.04
00:55:51.208:1,-0.01,0.035
00:55:51.212:1,-0.015,0.025
00:55:51.216:1,-0.05,0.035
00:55:51.220:1,-0.06,0.05
00:55:51.224:1,-0.025,0.055
00:55:51.228:1,0.055,0.065
00:55:51.232:1,0.1,0.08
00:55:51.236:1,0.1,0.095
00:55:51.240:1,0.065,0.095
00:55:51.244:1,0.115,0.095
00:55:51.248:1,0.155,0.095
00:55:51.252:1,0.17,0.105
00:55:51.256:1,0.175,0.115
00:55:51.260:1,0.2,0.115
00:55:51.264:1,0.16,0.065
00:55:51.268:1,0.065,0.05
00:55:51.272:1,-0.025,0.025
00:55:51.276:1,-0.1,0.0
00:55:51.280:1,-0.135,-0.015
00:55:51.284:1,-0.155,0.0
00:55:51.288:1,-0.18,-0.005
00:55:51.292:1,-0.21,0.015
00:55:51.296:1,-0.23,0.0
00:55:51.300:1,-0.23,-0.015
00:55:51.304:1,-0.27,0.0
00:55:51.308:1,-0.29,-0.025
00:55:51.312:1,-0.28,-0.03
00:55:51.316:1,-0.23,-0.03
00:55:51.320:1,-0.205,-0.04
00:55:51.324:1,-0.16,-0.045
00:55:51.328:1,-0.155,-0.02
00:55:51.332:1,-0.15,-0.04
00:55:51.336:1,-0.175,-0.04
00:55:51.340:1,-0.23,-0.025
00:55:51.344:1,-0.24,-0.065
00:55:51.348:1,-0.225,-0.065
00:55:51.352:1,-0.185,-0.035
00:55:51.356:1,-0.175,-0.03
00:55:51.360:1,-0.175,-0.03
00:55:51.364:1,-0.19,-0.04
00:55:51.368:1,-0.225,-0.04
00:55:51.372:1,-0.25,-0.07
00:55:51.376:1,-0.235,-0.055
00:55:51.380:1,-0.22,-0.045
00:55:51.384:1,-0.185,-0.07
00:55:51.388:1,-0.17,-0.055
00:55:51.392:1,-0.13,-0.065
00:55:51.396:1,-0.13,-0.065
00:55:51.400:1,-0.13,-0.07
00:55:51.404:1,-0.125,-0.07
00:55:51.408:1,-0.085,-0.075
00:55:51.412:1,0.035,-0.075
00:55:51.416:1,0.15,-0.075
00:55:51.420:1,0.27,-0.085
00:55:51.424:1,0.325,-0.135
00:55:51.428:1,0.37,-0.145
00:55:51.432:1,0.37,-0.12
00:55:51.436:1,0.35,-0.105
00:55:51.440:1,0.315,-0.11
00:55:51.444:1,0.305,-0.14
00:55:51.448:1,0.46,-0.255
00:55:51.452:1,0.735,-0.455
00:55:51.456:1,1.08,-0.725
00:55:51.460:1,1.36,-0.99
00:55:51.464:1,1.395,-1.08
00:55:51.468:1,1.045,-0.965
00:55:51.472:1,0.515,-0.615
00:55:51.476:1,0.13,-0.285
00:55:51.480:1,-0.02,-0.08
00:55:51.484:1,-0.08,0.015
00:55:51.488:1,-0.1,0.08
00:55:51.492:1,-0.18,0.115
00:55:51.496:1,-0.24,0.11
00:55:51.500:1,-0.325,0.105
00:55:51.504:1,-0.335,0.095
00:55:51.508:1,-0.355,0.065
00:55:51.512:1,-0.35,0.055
00:55:51.516:1,-0.385,0.015
00:55:51.520:1,-0.375,0.01
00:55:51.524:1,-0.345,0.035
00:55:51.528:1,-0.33,0.01
00:55:51.532:1,-0.32,0.0
00:55:51.536:1,-0.31,-0.01
00:55:51.540:1,-0.34,0.0
00:55:51.544:1,-0.36,0.02
00:55:51.548:1,-0.345,0.005
00:55:51.552:1,-0.35,0.01
00:55:51.556:1,-0.37,0.02
00:55:51.560:1,-0.39,0.02
00:55:51.564:1,-0.36,0.01
00:55:51.568:1,-0.335,0.01
00:55:51.572:1,-0.32,-0.01
00:55:51.576:1,-0.335,0.005
00:55:51.580:1,-0.375,-0.005
00:55:51.584:1,-0.39,-0.025
00:55:51.588:1,-0.42,-0.01
00:55:51.592:1,-0.415,-0.01
00:55:51.596:1,-0.42,-0.025
00:55:51.600:1,-0.405,-0.005
00:55:51.604:1,-0.4,-0.02
00:55:51.608:1,-0.33,-0.04
00:55:51.612:1,-0.32,-0.045
00:55:51.616:1,-0.34,-0.04
00:55:51.620:1,-0.4,-0.04
00:55:51.624:1,-0.415,-0.03
00:55:51.628:1,-0.445,-0.045
00:55:51.632:1,-0.435,-0.04
00:55:51.636:1,-0.395,-0.055
00:55:51.640:1,-0.36,-0.03
00:55:51.644:1,-0.34,-0.04
00:55:51.648:1,-0.345,-0.025
00:55:51.652:1,-0.34,-0.03
00:55:51.656:1,-0.33,-0.04
00:55:51.660:1,-0.305,-0.015
00:55:51.664:1,-0.3,-0.02
00:55:51.668:1,-0.275,-0.045
00:55:51.672:1,-0.28,-0.075
00:55:51.676:1,-0.29,-0.07
00:55:51.680:1,-0.29,-0.05
00:55:51.684:1,-0.3,-0.065
00:55:51.688:1,-0.29,-0.055
00:55:51.692:1,-0.28,-0.06
00:55:51.696:1,-0.24,-0.075
00:55:51.700:1,-0.2,-0.08
00:55:51.704:1,-0.18,-0.075
00:55:51.708:1,-0.2,-0.075
00:55:51.712:1,-0.21,-0.09
00:55:51.716:1,-0.205,-0.1
00:55:51.720:1,-0.185,-0.09
00:55:51.724:1,-0.18,-0.085
00:55:51.728:1,-0.18,-0.06
00:55:51.732:1,-0.235,-0.055
00:55:51.736:1,-0.24,-0.075
00:55:51.740:1,-0.2,-0.07
00:55:51.744:1,-0.175,-0.045
00:55:51.748:1,-0.19,-0.065
00:55:51.752:1,-0.16,-0.055
00:55:51.756:1,-0.16,-0.065
00:55:51.760:1,-0.14,-0.04
00:55:51.764:1,-0.14,-0.03
00:55:51.768:1,-0.155,-0.05
00:55:51.772:1,-0.125,-0.02
00:55:51.776:1,-0.095,-0.025
00:55:51.780:1,-0.08,-0.025
00:55:51.784:1,-0.07,-0.03
00:55:51.788:1,-0.08,-0.04
00:55:51.792:1,-0.135,-0.04
00:55:51.796:1,-0.215,-0.02
00:55:51.800:1,-0.24,-0.025
00:55:51.804:1,-0.225,-0.005
00:55:51.808:1,-0.185,-0.01
00:55:51.812:1,-0.14,-0.015
00:55:51.816:1,-0.055,-0.035
00:55:51.820:1,-0.01,-0.03
00:55:51.824:1,-0.065,-0.015
00:55:51.828:1,-0.115,-0.055
00:55:51.832:1,-0.14,-0.055
00:55:51.836:1,-0.115,-0.065
00:55:51.840:1,-0.08,-0.03
00:55:51.844:1,-0.045,-0.025
00:55:51.848:1,0.015,0.0
00:55:51.852:1,0.015,0.015
00:55:51.856:1,0.045,0.025
00:55:51.860:1,0.12,0.015
00:55:51.864:1,0.225,0.04
00:55:51.868:1,0.26,0.045
00:55:51.872:1,0.245,0.055
00:55:51.876:1,0.23,0.06
00:55:51.880:1,0.16,0.0
00:55:51.884:1,0.095,-0.035
00:55:51.888:1,0.04,-0.035
00:55:51.892:1,-0.015,-0.035
00:55:51.896:1,-0.095,-0.03
00:55:51.900:1,-0.18,-0.025
00:55:51.904:1,-0.255,-0.045
00:55:51.908:1,-0.285,-0.035
00:55:51.912:1,-0.245,-0.015
00:55:51.916:1,-0.225,-0.03
00:55:51.920:1,-0.235,-0.025
00:55:51.924:1,-0.285,-0.045
00:55:51.928:1,-0.26,-0.065
00:55:51.932:1,-0.23,-0.075
00:55:51.936:1,-0.24,-0.05
00:55:51.940:1,-0.24,-0.06
00:55:51.944:1,-0.245,-0.025
00:55:51.948:1,-0.215,-0.06
00:55:51.952:1,-0.175,-0.06
00:55:51.956:1,-0.14,-0.04
00:55:51.960:1,-0.125,-0.035
00:55:51.964:1,-0.2,-0.055
00:55:51.968:1,-0.255,-0.07
00:55:51.972:1,-0.255,-0.075
00:55:51.976:1,-0.2,-0.045
00:55:51.980:1,-0.11,-0.07
00:55:51.984:1,-0.1,-0.045
00:55:51.988:1,-0.145,-0.06
00:55:51.992:1,-0.165,-0.055
00:55:51.996:1,-0.18,-0.07
00:55:52.000:1,-0.21,-0.07
00:55:52.004:1,-0.22,-0.1
00:55:52.008:1,-0.24,-0.1
00:55:52.012:1,-0.225,-0.09
00:55:52.016:1,-0.16,-0.095
00:55:52.020:1,-0.06,-0.085
00:55:52.024:1,-0.01,-0.1
00:55:52.028:1,0.025,-0.095
00:55:52.032:1,0.11,-0.095
00:55:52.036:1,0.19,-0.12
00:55:52.040:1,0.295,-0.15
00:55:52.044:1,0.38,-0.195
00:55:52.048:1,0.41,-0.18
00:55:52.052:1,0.385,-0.135
00:55:52.056:1,0.3,-0.16
00:55:52.060:1,0.285,-0.25
00:55:52.064:1,0.45,-0.36
00:55:52.068:1,0.755,-0.53
00:55:52.072:1,1.135,-0.77
00:55:52.076:1,1.425,-1.03
00:55:52.080:1,1.44,-1.16
00:55:52.084:1,1.125,-1.09
00:55:52.088:1,0.6,-0.77
00:55:52.092:1,0.165,-0.395
00:55:52.096:1,-0.075,-0.17
00:55:52.100:1,-0.16,-0.04
00:55:52.104:1,-0.135,0.03
00:55:52.108:1,-0.15,0.06
00:55:52.112:1,-0.23,0.075
00:55:52.116:1,-0.32,0.08
00:55:52.120:1,-0.37,0.075
00:55:52.124:1,-0.39,0.055
00:55:52.128:1,-0.38,0.01
00:55:52.132:1,-0.365,-0.005
00:55:52.136:1,-0.39,-0.01
00:55:52.140:1,-0.42,-0.01
00:55:52.144:1,-0.475,-0.01
00:55:52.148:1,-0.505,0.0
00:55:52.152:1,-0.47,-0.005
00:55:52.156:1,-0.415,0.0
00:55:52.160:1,-0.41,0.0
00:55:52.164:1,-0.39,0.015
00:55:52.168:1,-0.375,0.0
00:55:52.172:1,-0.37,-0.005
00:55:52.176:1,-0.38,0.0
00:55:52.180:1,-0.395,0.015
00:55:52.184:1,-0.395,0.015
00:55:52.188:1,-0.37,0.0
00:55:52.192:1,-0.38,0.04
00:55:52.196:1,-0.37,0.015
00:55:52.200:1,-0.355,0.02
00:55:52.204:1,-0.36,0.025
00:55:52.208:1,-0.41,0.01
00:55:52.212:1,-0.435,0.0
00:55:52.216:1,-0.43,0.005
00:55:52.220:1,-0.44,0.03
00:55:52.224:1,-0.455,0.015
00:55:52.228:1,-0.45,-0.005
00:55:52.232:1,-0.415,0.01
00:55:52.236:1,-0.395,0.005
00:55:52.240:1,-0.455,0.0
00:55:52.244:1,-0.54,-0.01
00:55:52.248:1,-0.54,0.0
00:55:52.252:1,-0.45,0.0
00:55:52.256:1,-0.41,0.02
00:55:52.260:1,-0.375,0.015
00:55:52.264:1,-0.375,0.01
00:55:52.268:1,-0.36,-0.01
00:55:52.272:1,-0.365,-0.015
00:55:52.276:1,-0.385,-0.02
00:55:52.280:1,-0.39,0.02
00:55:52.284:1,-0.385,-0.005
00:55:52.288:1,-0.36,0.005
00:55:52.292:1,-0.335,0.0
00:55:52.296:1,-0.315,0.0
00:55:52.300:1,-0.33,-0.01
00:55:52.304:1,-0.29,-0.035
00:55:52.308:1,-0.295,-0.025
00:55:52.312:1,-0.25,-0.01
00:55:52.316:1,-0.23,-0.03
00:55:52.320:1,-0.23,-0.04
00:55:52.324:1,-0.24,-0.03
00:55:52.328:1,-0.235,-0.03
00:55:52.332:1,-0.21,-0.045
00:55:52.336:1,-0.205,-0.025
00:55:52.340:1,-0.195,-0.02
00:55:52.344:1,-0.185,-0.02
00:55:52.348:1,-0.2,-0.015
00:55:52.352:1,-0.195,-0.03
00:55:52.356:1,-0.17,-0.025
00:55:52.360:1,-0.175,-0.005
00:55:52.364:1,-0.175,-0.01
00:55:52.368:1,-0.115,0.0
00:55:52.372:1,-0.065,0.0
00:55:52.376:1,-0.055,0.025
00:55:52.380:1,-0.115,0.035
00:55:52.384:1,-0.17,0.035
00:55:52.388:1,-0.17,0.035
00:55:52.392:1,-0.175,0.03
00:55:52.396:1,-0.16,0.04
00:55:52.400:1,-0.115,0.055
00:55:52.404:1,-0.11,0.055
00:55:52.408:1,-0.095,0.065
00:55:52.412:1,-0.09,0.075
00:55:52.416:1,-0.095,0.065
00:55:52.420:1,-0.175,0.045
00:55:52.424:1,-0.22,0.025
00:55:52.428:1,-0.15,0.045
00:55:52.432:1,-0.05,0.03
00:55:52.436:1,-0.08,0.06
00:55:52.440:1,-0.135,0.04
00:55:52.444:1,-0.2,0.04
00:55:52.448:1,-0.18,0.05
00:55:52.452:1,-0.13,0.035
00:55:52.456:1,-0.085,0.045
00:55:52.460:1,-0.06,0.05
00:55:52.464:1,-0.03,0.075
00:55:52.468:1,0.02,0.085
00:55:52.472:1,0.09,0.1
00:55:52.476:1,0.15,0.09
00:55:52.480:1,0.22,0.1
00:55:52.484:1,0.21,0.12
00:55:52.488:1,0.175,0.135
00:55:52.492:1,0.185,0.13
00:55:52.496:1,0.21,0.115
00:55:52.500:1,0.205,0.1
00:55:52.504:1,0.14,0.07
00:55:52.508:1,0.08,0.055
00:55:52.512:1,0.01,0.065
00:55:52.516:1,-0.035,0.045
00:55:52.520:1,-0.045,0.02
00:55:52.524:1,-0.02,0.025
00:55:52.528:1,-0.005,0.045
00:55:52.532:1,-0.09,0.07
00:55:52.536:1,-0.205,0.075
00:55:52.540:1,-0.285,0.06
00:55:52.544:1,-0.29,0.045
00:55:52.548:1,-0.22,0.03
00:55:52.552:1,-0.145,0.045
00:55:52.556:1,-0.145,0.045
00:55:52.560:1,-0.19,0.045
00:55:52.564:1,-0.16,0.03
00:55:52.568:1,-0.115,0.015
00:55:52.572:1,-0.095,0.015
00:55:52.576:1,-0.125,0.03
00:55:52.580:1,-0.175,0.04
00:55:52.584:1,-0.145,0.05
00:55:52.588:1,-0.13,0.04
00:55:52.592:1,-0.205,0.03
00:55:52.596:1,-0.205,0.005
00:55:52.600:1,-0.18,0.045
00:55:52.604:1,-0.1,0.05
00:55:52.608:1,-0.055,0.035
00:55:52.612:1,0.03,0.045
00:55:52.616:1,0.045,0.04
00:55:52.620:1,-0.03,0.035
00:55:52.624:1,-0.205,0.025
00:55:52.628:1,-0.26,0.045
00:55:52.632:1,-0.215,0.01
00:55:52.636:1,-0.11,0.03
00:55:52.640:1,-0.02,0.04
00:55:52.644:1,0.05,0.05
00:55:52.648:1,0.125,0.025
00:55:52.652:1,0.215,-0.005
00:55:52.656:1,0.32,-0.045
00:55:52.660:1,0.37,-0.085
00:55:52.664:1,0.39,-0.06
00:55:52.668:1,0.405,-0.055
00:55:52.672:1,0.365,-0.065
00:55:52.676:1,0.32,-0.12
00:55:52.680:1,0.375,-0.21
00:55:52.684:1,0.595,-0.37
00:55:52.688:1,0.88,-0.59
00:55:52.692:1,1.23,-0.85
00:55:52.696:1,1.525,-1.07
00:55:52.700:1,1.485,-1.12
00:55:52.704:1,1.045,-0.9
00:55:52.708:1,0.505,-0.49
00:55:52.712:1,0.145,-0.15
00:55:52.716:1,-0.025,0.045
00:55:52.720:1,-0.12,0.155
00:55:52.724:1,-0.16,0.195
00:55:52.728:1,-0.19,0.21
00:55:52.732:1,-0.215,0.205
00:55:52.736:1,-0.235,0.205
00:55:52.740:1,-0.28,0.18
00:55:52.744:1,-0.295,0.145
00:55:52.748:1,-0.28,0.11
00:55:52.752:1,-0.255,0.09
00:55:52.756:1,-0.29,0.09
00:55:52.760:1,-0.31,0.095
00:55:52.764:1,-0.26,0.11
00:55:52.768:1,-0.21,0.09
00:55:52.772:1,-0.22,0.1
00:55:52.776:1,-0.25,0.09
00:55:52.780:1,-0.36,0.075
00:55:52.784:1,-0.45,0.095
00:55:52.788:1,-0.47,0.075
00:55:52.792:1,-0.43,0.095
00:55:52.796:1,-0.375,0.075
00:55:52.800:1,-0.32,0.08
00:55:52.804:1,-0.25,0.105
00:55:52.808:1,-0.24,0.095
00:55:52.812:1,-0.235,0.09
00:55:52.816:1,-0.22,0.08
00:55:52.820:1,-0.215,0.065
00:55:52.824:1,-0.275,0.08
00:55:52.828:1,-0.355,0.09
00:55:52.832:1,-0.37,0.075
00:55:52.836:1,-0.31,0.075
00:55:52.840:1,-0.2,0.035
00:55:52.844:1,-0.21,0.06
00:55:52.848:1,-0.315,0.065
00:55:52.852:1,-0.39,0.055
00:55:52.856:1,-0.39,0.035
00:55:52.860:1,-0.4,0.025
00:55:52.864:1,-0.39,0.045
00:55:52.868:1,-0.355,0.04
00:55:52.872:1,-0.34,0.04
00:55:52.876:1,-0.26,0.03
00:55:52.880:1,-0.195,0.035
00:55:52.884:1,-0.195,0.03
00:55:52.888:1,-0.26,0.035
00:55:52.892:1,-0.3,0.02
00:55:52.896:1,-0.26,0.025
00:55:52.900:1,-0.19,0.025
00:55:52.904:1,-0.175,0.02
00:55:52.908:1,-0.155,0.025
00:55:52.912:1,-0.175,0.025
00:55:52.916:1,-0.205,0.02
00:55:52.920:1,-0.235,0.0
00:55:52.924:1,-0.225,0.015
00:55:52.928:1,-0.235,0.005
00:55:52.932:1,-0.215,0.0
00:55:52.936:1,-0.155,0.0
00:55:52.940:1,-0.1,-0.005
00:55:52.944:1,-0.055,0.0
00:55:52.948:1,-0.03,0.02
00:55:52.952:1,-0.025,0.0
00:55:52.956:1,0.0,0.0
00:55:52.960:1,-0.015,-0.025
00:55:52.964:1,-0.095,-0.01
00:55:52.968:1,-0.175,-0.02
00:55:52.972:1,-0.19,-0.005
00:55:52.976:1,-0.17,0.005
00:55:52.980:1,-0.11,0.0
00:55:52.984:1,-0.045,-0.005
00:55:52.988:1,-0.045,0.02
00:55:52.992:1,0.0,0.0
00:55:52.996:1,0.01,0.005
00:55:53.000:1,-0.035,0.03
00:55:53.004:1,-0.04,0.025
00:55:53.008:1,0.01,0.015
00:55:53.012:1,0.025,0.015
00:55:53.016:1,-0.005,0.03
00:55:53.020:1,-0.05,0.035
00:55:53.024:1,-0.04,0.035
00:55:53.028:1,-0.005,0.04
00:55:53.032:1,0.02,0.04
00:55:53.036:1,0.04,0.055
00:55:53.040:1,-0.01,0.035
00:55:53.044:1,-0.065,0.035
00:55:53.048:1,-0.075,0.025
00:55:53.052:1,-0.06,0.06
00:55:53.056:1,-0.005,0.045
00:55:53.060:1,-0.015,0.055
00:55:53.064:1,-0.03,0.065
00:55:53.068:1,0.03,0.06
00:55:53.072:1,0.15,0.055
00:55:53.076:1,0.24,0.055
00:55:53.080:1,0.255,0.1
00:55:53.084:1,0.235,0.075
00:55:53.088:1,0.295,0.08
00:55:53.092:1,0.355,0.085
00:55:53.096:1,0.32,0.085
00:55:53.100:1,0.215,0.055
00:55:53.104:1,0.09,0.045
00:55:53.108:1,0.065,0.03
00:55:53.112:1,0.06,0.0
00:55:53.116:1,0.06,0.025
00:55:53.120:1,0.045,0.025
00:55:53.124:1,-0.015,0.015
00:55:53.128:1,-0.07,0.025
00:55:53.132:1,-0.095,0.04
00:55:53.136:1,-0.115,0.04
00:55:53.140:1,-0.175,0.015
00:55:53.144:1,-0.19,0.03
00:55:53.148:1,-0.19,0.015
00:55:53.152:1,-0.16,0.01
00:55:53.156:1,-0.14,0.015
00:55:53.160:1,-0.15,0.0
00:55:53.164:1,-0.145,-0.005
00:55:53.168:1,-0.125,0.01
00:55:53.172:1,-0.08,0.005
00:55:53.176:1,-0.06,0.005
00:55:53.180:1,-0.055,0.0
00:55:53.184:1,-0.09,-0.02
00:55:53.188:1,-0.09,-0.025
00:55:53.192:1,-0.12,-0.02
00:55:53.196:1,-0.145,-0.005
00:55:53.200:1,-0.12,-0.01
00:55:53.204:1,-0.035,0.0
00:55:53.208:1,0.04,-0.015
00:55:53.212:1,0.1,0.0
00:55:53.216:1,0.095,-0.03
00:55:53.220:1,0.02,-0.01
00:55:53.224:1,-0.11,-0.03
00:55:53.228:1,-0.26,-0.05
00:55:53.232:1,-0.3,-0.025
00:55:53.236:1,-0.185,-0.015
00:55:53.240:1,-0.055,0.005
00:55:53.244:1,0.03,0.03
00:55:53.248:1,0.09,-0.005
00:55:53.252:1,0.185,-0.02
00:55:53.256:1,0.29,-0.06
00:55:53.260:1,0.35,-0.085
00:55:53.264:1,0.375,-0.1
00:55:53.268:1,0.405,-0.105
00:55:53.272:1,0.415,-0.1
00:55:53.276:1,0.355,-0.125
00:55:53.280:1,0.335,-0.225
00:55:53.284:1,0.45,-0.365
00:55:53.288:1,0.74,-0.52
00:55:53.292:1,1.055,-0.775
00:55:53.296:1,1.32,-1.065
00:55:53.300:1,1.435,-1.205
00:55:53.304:1,1.275,-1.145
00:55:53.308:1,0.81,-0.81
00:55:53.312:1,0.355,-0.355
00:55:53.316:1,0.115,-0.105
00:55:53.320:1,0.015,0.045
00:55:53.324:1,-0.03,0.125
00:55:53.328:1,-0.115,0.13
00:55:53.332:1,-0.16,0.16
00:55:53.336:1,-0.2,0.145
00:55:53.340:1,-0.2,0.125
00:55:53.344:1,-0.155,0.105
00:55:53.348:1,-0.075,0.1
00:55:53.352:1,-0.135,0.045
00:55:53.356:1,-0.345,0.04
00:55:53.360:1,-0.49,0.03
00:55:53.364:1,-0.495,0.04
00:55:53.368:1,-0.425,0.005
00:55:53.372:1,-0.32,0.03
00:55:53.376:1,-0.25,0.055
00:55:53.380:1,-0.25,0.025
00:55:53.384:1,-0.32,0.005
00:55:53.388:1,-0.41,0.0
00:55:53.392:1,-0.39,-0.02
00:55:53.396:1,-0.35,-0.035
00:55:53.400:1,-0.24,-0.015
00:55:53.404:1,-0.185,-0.035
00:55:53.408:1,-0.195,-0.04
00:55:53.412:1,-0.31,-0.04
00:55:53.416:1,-0.4,-0.05
00:55:53.420:1,-0.39,-0.035
00:55:53.424:1,-0.33,-0.05
00:55:53.428:1,-0.295,-0.055
00:55:53.432:1,-0.24,-0.06
00:55:53.436:1,-0.195,-0.05
00:55:53.440:1,-0.225,-0.05
00:55:53.444:1,-0.31,-0.045
00:55:53.448:1,-0.385,-0.065
00:55:53.452:1,-0.38,-0.06
00:55:53.456:1,-0.36,-0.075
00:55:53.460:1,-0.35,-0.075
00:55:53.464:1,-0.32,-0.055
00:55:53.468:1,-0.33,-0.05
00:55:53.472:1,-0.365,-0.07
00:55:53.476:1,-0.375,-0.065
00:55:53.480:1,-0.295,-0.09
00:55:53.484:1,-0.225,-0.07
00:55:53.488:1,-0.21,-0.07
00:55:53.492:1,-0.195,-0.095
00:55:53.496:1,-0.26,-0.09
00:55:53.500:1,-0.32,-0.115
00:55:53.504:1,-0.375,-0.095
00:55:53.508:1,-0.345,-0.11
00:55:53.512:1,-0.295,-0.09
00:55:53.516:1,-0.2,-0.08
00:55:53.520:1,-0.095,-0.09
00:55:53.524:1,-0.06,-0.085
00:55:53.528:1,-0.13,-0.1
00:55:53.532:1,-0.185,-0.105
00:55:53.536:1,-0.19,-0.12
00:55:53.540:1,-0.18,-0.12
00:55:53.544:1,-0.13,-0.11
00:55:53.548:1,-0.13,-0.085
00:55:53.552:1,-0.095,-0.075
00:55:53.556:1,-0.075,-0.095
00:55:53.560:1,-0.07,-0.08
00:55:53.564:1,-0.075,-0.1
00:55:53.568:1,-0.07,-0.095
00:55:53.572:1,-0.04,-0.07
00:55:53.576:1,-0.035,-0.065
00:55:53.580:1,-0.03,-0.05
00:55:53.584:1,-0.01,-0.09
00:55:53.588:1,-0.035,-0.11
00:55:53.592:1,-0.11,-0.09
00:55:53.596:1,-0.11,-0.09
00:55:53.600:1,-0.065,-0.085
00:55:53.604:1,-0.085,-0.08
00:55:53.608:1,-0.09,-0.09
00:55:53.612:1,-0.08,-0.08
00:55:53.616:1,-0.08,-0.055
00:55:53.620:1,-0.09,-0.07
00:55:53.624:1,-0.125,-0.075
00:55:53.628:1,-0.14,-0.04
00:55:53.632:1,-0.095,-0.05
00:55:53.636:1,-0.075,-0.055
00:55:53.640:1,-0.06,-0.045
00:55:53.644:1,-0.02,-0.03
00:55:53.648:1,-0.005,-0.025
00:55:53.652:1,0.03,-0.05
00:55:53.656:1,0.1,-0.02
00:55:53.660:1,0.17,-0.02
00:55:53.664:1,0.195,-0.005
00:55:53.668:1,0.12,0.0
00:55:53.672:1,0.115,0.005
00:55:53.676:1,0.225,-0.01
00:55:53.680:1,0.35,0.005
00:55:53.684:1,0.365,0.015
00:55:53.688:1,0.23,0.0
00:55:53.692:1,0.065,-0.03
00:55:53.696:1,0.045,-0.065
00:55:53.700:1,0.06,-0.075
00:55:53.704:1,0.02,-0.09
00:55:53.708:1,-0.055,-0.065
00:55:53.712:1,-0.115,-0.085
00:55:53.716:1,-0.15,-0.075
00:55:53.720:1,-0.22,-0.08
00:55:53.724:1,-0.265,-0.085
00:55:53.728:1,-0.255,-0.065
00:55:53.732:1,-0.22,-0.06
00:55:53.736:1,-0.22,-0.08
00:55:53.740:1,-0.15,-0.09
00:55:53.744:1,-0.075,-0.09
00:55:53.748:1,-0.085,-0.08
00:55:53.752:1,-0.09,-0.1
00:55:53.756:1,-0.145,-0.1
00:55:53.760:1,-0.18,-0.1
00:55:53.764:1,-0.215,-0.1
00:55:53.768:1,-0.21,-0.1
00:55:53.772:1,-0.17,-0.09
00:55:53.776:1,-0.155,-0.095
00:55:53.780:1,-0.165,-0.08
00:55:53.784:1,-0.175,-0.115
00:55:53.788:1,-0.165,-0.09
00:55:53.792:1,-0.19,-0.105
00:55:53.796:1,-0.22,-0.12
00:55:53.800:1,-0.18,-0.125
00:55:53.804:1,-0.1,-0.13
00:55:53.808:1,-0.08,-0.13
00:55:53.812:1,-0.13,-0.13
00:55:53.816:1,-0.19,-0.125
00:55:53.820:1,-0.215,-0.135
00:55:53.824:1,-0.22,-0.145
00:55:53.828:1,-0.23,-0.14
00:55:53.832:1,-0.13,-0.125
00:55:53.836:1,0.02,-0.13
00:55:53.840:1,0.16,-0.135
00:55:53.844:1,0.27,-0.155
00:55:53.848:1,0.315,-0.145
00:55:53.852:1,0.365,-0.2
00:55:53.856:1,0.445,-0.235
00:55:53.860:1,0.43,-0.235
00:55:53.864:1,0.405,-0.21
00:55:53.868:1,0.35,-0.255
00:55:53.872:1,0.405,-0.305
00:55:53.876:1,0.565,-0.38
00:55:53.880:1,0.82,-0.575
00:55:53.884:1,1.125,-0.835
00:55:53.888:1,1.335,-1.09
00:55:53.892:1,1.265,-1.25
00:55:53.896:1,0.92,-1.115
00:55:53.900:1,0.465,-0.775
00:55:53.904:1,0.15,-0.43
00:55:53.908:1,0.065,-0.235
00:55:53.912:1,0.015,-0.115
00:55:53.916:1,-0.055,-0.04
00:55:53.920:1,-0.135,0.0
00:55:53.924:1,-0.22,0.0
00:55:53.928:1,-0.26,-0.005
00:55:53.932:1,-0.335,-0.025
00:55:53.936:1,-0.42,-0.03
00:55:53.940:1,-0.46,-0.035
00:55:53.944:1,-0.405,-0.055
00:55:53.948:1,-0.38,-0.06
00:55:53.952:1,-0.38,-0.08
00:55:53.956:1,-0.38,-0.1
00:55:53.960:1,-0.375,-0.06
00:55:53.964:1,-0.33,-0.045
00:55:53.968:1,-0.28,-0.06
00:55:53.972:1,-0.285,-0.06
00:55:53.976:1,-0.315,-0.07
00:55:53.980:1,-0.36,-0.1
00:55:53.984:1,-0.38,-0.095
00:55:53.988:1,-0.41,-0.08
00:55:53.992:1,-0.46,-0.085
00:55:53.996:1,-0.48,-0.075
00:55:54.000:1,-0.47,-0.1
00:55:54.004:1,-0.48,-0.1
00:55:54.008:1,-0.47,-0.115
00:55:54.012:1,-0.465,-0.12
00:55:54.016:1,-0.47,-0.105
00:55:54.020:1,-0.425,-0.115
00:55:54.024:1,-0.45,-0.125
00:55:54.028:1,-0.42,-0.1
00:55:54.032:1,-0.41,-0.115
00:55:54.036:1,-0.415,-0.135
00:55:54.040:1,-0.395,-0.105
00:55:54.044:1,-0.375,-0.115
00:55:54.048:1,-0.4,-0.11
00:55:54.052:1,-0.445,-0.12
00:55:54.056:1,-0.47,-0.13
00:55:54.060:1,-0.465,-0.13
00:55:54.064:1,-0.43,-0.125
00:55:54.068:1,-0.385,-0.125
00:55:54.072:1,-0.35,-0.12
00:55:54.076:1,-0.33,-0.095
00:55:54.080:1,-0.32,-0.13
00:55:54.084:1,-0.32,-0.125
00:55:54.088:1,-0.305,-0.12
00:55:54.092:1,-0.295,-0.15
00:55:54.096:1,-0.34,-0.17
00:55:54.100:1,-0.375,-0.18
00:55:54.104:1,-0.35,-0.175
00:55:54.108:1,-0.315,-0.18
00:55:54.112:1,-0.26,-0.165
00:55:54.116:1,-0.305,-0.205
00:55:54.120:1,-0.35,-0.185
00:55:54.124:1,-0.375,-0.195
00:55:54.128:1,-0.36,-0.175
00:55:54.132:1,-0.35,-0.175
00:55:54.136:1,-0.33,-0.175
00:55:54.140:1,-0.26,-0.18
00:55:54.144:1,-0.18,-0.17
00:55:54.148:1,-0.17,-0.185
00:55:54.152:1,-0.175,-0.175
00:55:54.156:1,-0.18,-0.195
00:55:54.160:1,-0.16,-0.175
00:55:54.164:1,-0.16,-0.185
00:55:54.168:1,-0.14,-0.18
00:55:54.172:1,-0.14,-0.16
00:55:54.176:1,-0.15,-0.15
00:55:54.180:1,-0.195,-0.15
00:55:54.184:1,-0.195,-0.155
00:55:54.188:1,-0.155,-0.16
00:55:54.192:1,-0.13,-0.155
00:55:54.196:1,-0.14,-0.12
00:55:54.200:1,-0.16,-0.14
00:55:54.204:1,-0.16,-0.135
00:55:54.208:1,-0.2,-0.125
00:55:54.212:1,-0.205,-0.16
00:55:54.216:1,-0.205,-0.145
00:55:54.220:1,-0.19,-0.125
00:55:54.224:1,-0.14,-0.14
00:55:54.228:1,-0.13,-0.15
00:55:54.232:1,-0.125,-0.15
00:55:54.236:1,-0.09,-0.135
00:55:54.240:1,-0.03,-0.15
00:55:54.244:1,-0.085,-0.115
00:55:54.248:1,-0.12,-0.125
00:55:54.252:1,-0.095,-0.105
00:55:54.256:1,0.0,-0.115
00:55:54.260:1,0.005,-0.085
00:55:54.264:1,-0.02,-0.085
00:55:54.268:1,-0.06,-0.075
00:55:54.272:1,-0.045,-0.06
00:55:54.276:1,0.035,-0.065
00:55:54.280:1,0.06,-0.065
00:55:54.284:1,0.105,-0.03
00:55:54.288:1,0.175,-0.015
00:55:54.292:1,0.21,-0.025
00:55:54.296:1,0.28,-0.06
00:55:54.300:1,0.27,-0.09
00:55:54.304:1,0.25,-0.11
00:55:54.308:1,0.17,-0.13
00:55:54.312:1,0.005,-0.145
00:55:54.316:1,-0.135,-0.145
00:55:54.320:1,-0.25,-0.16
00:55:54.324:1,-0.29,-0.15
00:55:54.328:1,-0.25,-0.115
00:55:54.332:1,-0.23,-0.12
00:55:54.336:1,-0.25,-0.085
00:55:54.340:1,-0.31,-0.12
00:55:54.344:1,-0.33,-0.095
00:55:54.348:1,-0.28,-0.115
00:55:54.352:1,-0.2,-0.115
00:55:54.356:1,-0.1,-0.135
00:55:54.360:1,-0.06,-0.095
00:55:54.364:1,-0.105,-0.115
00:55:54.368:1,-0.24,-0.125
00:55:54.372:1,-0.38,-0.13
00:55:54.376:1,-0.355,-0.14
00:55:54.380:1,-0.285,-0.11
00:55:54.384:1,-0.22,-0.12
00:55:54.388:1,-0.15,-0.12
00:55:54.392:1,-0.13,-0.145
00:55:54.396:1,-0.14,-0.145
00:55:54.400:1,-0.14,-0.125
00:55:54.404:1,-0.15,-0.135
00:55:54.408:1,-0.1,-0.17
00:55:54.412:1,-0.085,-0.16
00:55:54.416:1,-0.155,-0.135
00:55:54.420:1,-0.225,-0.13
00:55:54.424:1,-0.255,-0.145
00:55:54.428:1,-0.275,-0.165
00:55:54.432:1,-0.235,-0.155
00:55:54.436:1,-0.19,-0.175
00:55:54.440:1,-0.12,-0.155
00:55:54.444:1,-0.045,-0.14
00:55:54.448:1,0.02,-0.16
00:55:54.452:1,0.1,-0.16
00:55:54.456:1,0.22,-0.18
00:55:54.460:1,0.305,-0.235
00:55:54.464:1,0.315,-0.245
00:55:54.468:1,0.375,-0.26
00:55:54.472:1,0.42,-0.215
00:55:54.476:1,0.435,-0.285
00:55:54.480:1,0.41,-0.355
00:55:54.484:1,0.465,-0.475
00:55:54.488:1,0.655,-0.68
00:55:54.492:1,0.955,-0.905
00:55:54.496:1,1.295,-1.16
00:55:54.500:1,1.49,-1.325
00:55:54.504:1,1.345,-1.305
00:55:54.508:1,0.875,-1.015
00:55:54.512:1,0.32,-0.57
00:55:54.516:1,-0.03,-0.295
00:55:54.520:1,-0.19,-0.13
00:55:54.524:1,-0.245,-0.04
00:55:54.528:1,-0.225,0.005
00:55:54.532:1,-0.24,0.05
00:55:54.536:1,-0.285,0.045
00:55:54.540:1,-0.31,0.05
00:55:54.544:1,-0.34,0.045
00:55:54.548:1,-0.36,0.03
00:55:54.552:1,-0.355,0.03
00:55:54.556:1,-0.34,0.0
00:55:54.560:1,-0.34,-0.005
00:55:54.564:1,-0.37,0.0
00:55:54.568:1,-0.39,0.0
00:55:54.572:1,-0.38,0.0
00:55:54.576:1,-0.36,0.0
00:55:54.580:1,-0.35,-0.01
00:55:54.584:1,-0.335,-0.01
00:55:54.588:1,-0.335,0.0
00:55:54.592:1,-0.345,0.01
00:55:54.596:1,-0.36,0.01
00:55:54.600:1,-0.35,0.01
00:55:54.604:1,-0.335,0.03
00:55:54.608:1,-0.335,0.015
00:55:54.612:1,-0.345,0.015
00:55:54.616:1,-0.38,0.0
00:55:54.620:1,-0.39,-0.005
00:55:54.624:1,-0.345,0.0
00:55:54.628:1,-0.33,0.0
00:55:54.632:1,-0.36,0.0
00:55:54.636:1,-0.375,0.005
00:55:54.640:1,-0.32,0.005
00:55:54.644:1,-0.235,0.0
00:55:54.648:1,-0.29,-0.015
00:55:54.652:1,-0.475,0.0
00:55:54.656:1,-0.6,-0.015
00:55:54.660:1,-0.615,-0.01
00:55:54.664:1,-0.535,0.0
00:55:54.668:1,-0.435,0.005
00:55:54.672:1,-0.345,0.015
00:55:54.676:1,-0.23,0.015
00:55:54.680:1,-0.195,0.02
00:55:54.684:1,-0.27,0.015
00:55:54.688:1,-0.32,-0.01
00:55:54.692:1,-0.3,-0.015
00:55:54.696:1,-0.275,-0.015
00:55:54.700:1,-0.325,0.0
00:55:54.704:1,-0.37,0.0
00:55:54.708:1,-0.37,-0.01
00:55:54.712:1,-0.36,0.015
00:55:54.716:1,-0.36,-0.01
00:55:54.720:1,-0.32,-0.035
00:55:54.724:1,-0.25,-0.005
00:55:54.728:1,-0.22,-0.015
00:55:54.732:1,-0.305,-0.03
00:55:54.736:1,-0.395,-0.03
00:55:54.740:1,-0.41,-0.025
00:55:54.744:1,-0.365,-0.055
00:55:54.748:1,-0.29,-0.03
00:55:54.752:1,-0.255,-0.05
00:55:54.756:1,-0.23,-0.04
00:55:54.760:1,-0.19,-0.03
00:55:54.764:1,-0.165,-0.03
00:55:54.768:1,-0.145,-0.005
00:55:54.772:1,-0.085,-0.005
00:55:54.776:1,-0.06,0.0
00:55:54.780:1,-0.04,-0.01
00:55:54.784:1,-0.035,0.005
00:55:54.788:1,-0.06,-0.005
00:55:54.792:1,-0.08,-0.01
00:55:54.796:1,-0.105,0.01
00:55:54.800:1,-0.06,0.0
00:55:54.804:1,-0.04,0.01
00:55:54.808:1,-0.02,0.01
00:55:54.812:1,-0.04,0.015
00:55:54.816:1,-0.05,0.025
00:55:54.820:1,-0.035,0.05
00:55:54.824:1,-0.01,0.05
00:55:54.828:1,-0.02,0.035
00:55:54.832:1,-0.06,0.02
00:55:54.836:1,-0.16,0.03
00:55:54.840:1,-0.18,0.04
00:55:54.844:1,-0.155,0.01
00:55:54.848:1,-0.115,0.005
00:55:54.852:1,-0.095,0.04
00:55:54.856:1,-0.115,0.025
00:55:54.860:1,-0.095,0.025
00:55:54.864:1,-0.06,0.025
00:55:54.868:1,-0.04,0.03
00:55:54.872:1,-0.07,0.04
00:55:54.876:1,-0.06,0.055
00:55:54.880:1,-0.04,0.06
00:55:54.884:1,-0.01,0.055
00:55:54.888:1,0.075,0.07
00:55:54.892:1,0.11,0.085
00:55:54.896:1,0.12,0.085
00:55:54.900:1,0.17,0.125
00:55:54.904:1,0.215,0.095
00:55:54.908:1,0.25,0.115
00:55:54.912:1,0.335,0.11
00:55:54.916:1,0.39,0.1
00:55:54.920:1,0.375,0.06
00:55:54.924:1,0.235,0.03
00:55:54.928:1,0.105,0.0
00:55:54.932:1,-0.005,0.0
00:55:54.936:1,-0.105,0.005
00:55:54.940:1,-0.18,0.01
00:55:54.944:1,-0.205,0.01
00:55:54.948:1,-0.21,0.035
00:55:54.952:1,-0.22,0.03
00:55:54.956:1,-0.19,0.045
00:55:54.960:1,-0.185,0.055
00:55:54.964:1,-0.085,0.025
00:55:54.968:1,-0.055,0.02
00:55:54.972:1,-0.06,0.005
00:55:54.976:1,-0.14,0.0
00:55:54.980:1,-0.21,0.005
00:55:54.984:1,-0.23,0.005
00:55:54.988:1,-0.255,0.015
00:55:54.992:1,-0.29,0.025
00:55:54.996:1,-0.29,0.02
00:55:55.000:1,-0.275,0.01
00:55:55.004:1,-0.2,0.01
00:55:55.008:1,-0.185,0.03
00:55:55.012:1,-0.17,0.01
00:55:55.016:1,-0.115,0.01
00:55:55.020:1,-0.095,0.005
00:55:55.024:1,-0.14,0.015
00:55:55.028:1,-0.155,0.015
00:55:55.032:1,-0.165,0.005
00:55:55.036:1,-0.15,0.0
00:55:55.040:1,-0.09,-0.01
00:55:55.044:1,-0.015,0.015
00:55:55.048:1,0.005,0.01
00:55:55.052:1,-0.04,0.0
00:55:55.056:1,-0.115,-0.01
00:55:55.060:1,-0.205,-0.02
00:55:55.064:1,-0.24,-0.02
00:55:55.068:1,-0.155,-0.05
00:55:55.072:1,0.0,-0.03
00:55:55.076:1,0.15,-0.065
00:55:55.080:1,0.295,-0.095
00:55:55.084:1,0.335,-0.11
00:55:55.088:1,0.335,-0.11
00:55:55.092:1,0.265,-0.125
00:55:55.096:1,0.19,-0.19
00:55:55.100:1,0.225,-0.285
00:55:55.104:1,0.41,-0.43
00:55:55.108:1,0.715,-0.62
00:55:55.112:1,1.07,-0.875
00:55:55.116:1,1.37,-1.11
00:55:55.120:1,1.46,-1.22
00:55:55.124:1,1.26,-1.105
00:55:55.128:1,0.84,-0.735
00:55:55.132:1,0.435,-0.335
00:55:55.136:1,0.185,-0.095
00:55:55.140:1,-0.04,0.05
00:55:55.144:1,-0.26,0.115
00:55:55.148:1,-0.375,0.125
00:55:55.152:1,-0.43,0.115
00:55:55.156:1,-0.45,0.12
00:55:55.160:1,-0.425,0.115
00:55:55.164:1,-0.37,0.11
00:55:55.168:1,-0.375,0.08
00:55:55.172:1,-0.425,0.08
00:55:55.176:1,-0.465,0.07
00:55:55.180:1,-0.45,0.07
00:55:55.184:1,-0.42,0.065
00:55:55.188:1,-0.43,0.055
00:55:55.192:1,-0.415,0.05
00:55:55.196:1,-0.35,0.04
00:55:55.200:1,-0.355,0.065
00:55:55.204:1,-0.355,0.06
00:55:55.208:1,-0.34,0.06
00:55:55.212:1,-0.345,0.07
00:55:55.216:1,-0.395,0.045
00:55:55.220:1,-0.465,0.04
00:55:55.224:1,-0.475,0.075
00:55:55.228:1,-0.445,0.075
00:55:55.232:1,-0.4,0.075
00:55:55.236:1,-0.365,0.05
00:55:55.240:1,-0.345,0.055
00:55:55.244:1,-0.345,0.06
00:55:55.248:1,-0.42,0.03
00:55:55.252:1,-0.47,0.025
00:55:55.256:1,-0.48,0.04
00:55:55.260:1,-0.49,0.03
00:55:55.264:1,-0.515,0.005
00:55:55.268:1,-0.545,0.03
00:55:55.272:1,-0.515,0.045
00:55:55.276:1,-0.485,0.035
00:55:55.280:1,-0.47,0.05
00:55:55.284:1,-0.43,0.045
00:55:55.288:1,-0.37,0.035
00:55:55.292:1,-0.37,0.025
00:55:55.296:1,-0.425,0.04
00:55:55.300:1,-0.47,0.015
00:55:55.304:1,-0.445,0.01
00:55:55.308:1,-0.4,0.0
00:55:55.312:1,-0.31,0.025
00:55:55.316:1,-0.25,0.0
00:55:55.320:1,-0.25,0.025
00:55:55.324:1,-0.295,0.01
00:55:55.328:1,-0.35,0.01
00:55:55.332:1,-0.41,0.005
00:55:55.336:1,-0.47,0.02
00:55:55.340:1,-0.445,0.0
00:55:55.344:1,-0.38,0.0
00:55:55.348:1,-0.285,0.0
00:55:55.352:1,-0.295,0.02
00:55:55.356:1,-0.24,0.04
00:55:55.360:1,-0.215,0.0
00:55:55.364:1,-0.21,0.0
00:55:55.368:1,-0.255,-0.025
00:55:55.372:1,-0.3,-0.02
00:55:55.376:1,-0.275,-0.01
00:55:55.380:1,-0.185,-0.01
00:55:55.384:1,-0.14,-0.01
00:55:55.388:1,-0.16,-0.005
00:55:55.392:1,-0.18,0.0
00:55:55.396:1,-0.135,0.0
00:55:55.400:1,-0.11,0.0
00:55:55.404:1,-0.145,0.03
00:55:55.408:1,-0.17,0.025
00:55:55.412:1,-0.205,0.02
00:55:55.416:1,-0.205,0.025
00:55:55.420:1,-0.185,0.04
00:55:55.424:1,-0.145,0.05
00:55:55.428:1,-0.145,0.055
00:55:55.432:1,-0.11,0.04
00:55:55.436:1,-0.055,0.07
00:55:55.440:1,-0.065,0.05
00:55:55.444:1,-0.1,0.065
00:55:55.448:1,-0.13,0.06
00:55:55.452:1,-0.105,0.05
00:55:55.456:1,-0.05,0.035
00:55:55.460:1,-0.025,0.04
00:55:55.464:1,-0.035,0.055
00:55:55.468:1,-0.1,0.045
00:55:55.472:1,-0.1,0.03
00:55:55.476:1,-0.07,0.05
00:55:55.480:1,-0.015,0.075
00:55:55.484:1,0.025,0.085
00:55:55.488:1,0.065,0.085
00:55:55.492:1,0.075,0.075
00:55:55.496:1,0.125,0.115
00:55:55.500:1,0.16,0.1
00:55:55.504:1,0.23,0.105
00:55:55.508:1,0.285,0.135
00:55:55.512:1,0.28,0.105
00:55:55.516:1,0.23,0.09
00:55:55.520:1,0.12,0.055
00:55:55.524:1,0.005,0.04
00:55:55.528:1,-0.035,0.025
00:55:55.532:1,-0.045,0.04
00:55:55.536:1,-0.08,0.065
00:55:55.540:1,-0.16,0.09
00:55:55.544:1,-0.22,0.1
00:55:55.548:1,-0.215,0.105
00:55:55.552:1,-0.15,0.105
00:55:55.556:1,-0.125,0.075
00:55:55.560:1,-0.175,0.06
00:55:55.564:1,-0.255,0.045
00:55:55.568:1,-0.3,0.025
00:55:55.572:1,-0.32,0.035
00:55:55.576:1,-0.315,0.025
00:55:55.580:1,-0.24,0.04
00:55:55.584:1,-0.195,0.05
00:55:55.588:1,-0.155,0.05
00:55:55.592:1,-0.15,0.025
00:55:55.596:1,-0.14,0.03
00:55:55.600:1,-0.13,0.03
00:55:55.604:1,-0.165,0.02
00:55:55.608:1,-0.225,0.045
00:55:55.612:1,-0.26,0.04
00:55:55.616:1,-0.25,0.025
00:55:55.620:1,-0.2,0.015
00:55:55.624:1,-0.145,0.04
00:55:55.628:1,-0.14,0.03
00:55:55.632:1,-0.16,0.03
00:55:55.636:1,-0.17,0.015
00:55:55.640:1,-0.21,0.035
00:55:55.644:1,-0.215,0.025
00:55:55.648:1,-0.235,0.025
00:55:55.652:1,-0.195,0.005
00:55:55.656:1,-0.1,0.03
00:55:55.660:1,0.025,0.015
00:55:55.664:1,0.08,0.0
00:55:55.668:1,0.11,0.015
00:55:55.672:1,0.16,-0.035
00:55:55.676:1,0.195,-0.04
00:55:55.680:1,0.22,-0.08
00:55:55.684:1,0.245,-0.105
00:55:55.688:1,0.235,-0.085
00:55:55.692:1,0.18,-0.14
00:55:55.696:1,0.185,-0.195
00:55:55.700:1,0.32,-0.34
00:55:55.704:1,0.595,-0.53
00:55:55.708:1,0.94,-0.79
00:55:55.712:1,1.24,-1.07
00:55:55.716:1,1.36,-1.215
00:55:55.720:1,1.155,-1.15
00:55:55.724:1,0.71,-0.825
00:55:55.728:1,0.31,-0.36
00:55:55.732:1,0.115,-0.075
00:55:55.736:1,-0.02,0.04
00:55:55.740:1,-0.22,0.13
00:55:55.744:1,-0.325,0.15
00:55:55.748:1,-0.32,0.14
00:55:55.752:1,-0.305,0.13
00:55:55.756:1,-0.34,0.12
00:55:55.760:1,-0.43,0.1
00:55:55.764:1,-0.44,0.075
00:55:55.768:1,-0.415,0.06
00:55:55.772:1,-0.4,0.06
00:55:55.776:1,-0.42,0.045
00:55:55.780:1,-0.46,0.03
00:55:55.784:1,-0.435,0.03
00:55:55.788:1,-0.405,0.025
00:55:55.792:1,-0.425,0.015
00:55:55.796:1,-0.39,0.015
00:55:55.800:1,-0.355,0.02
00:55:55.804:1,-0.37,0.025
00:55:55.808:1,-0.44,0.0
00:55:55.812:1,-0.43,-0.015
00:55:55.816:1,-0.375,0.0
00:55:55.820:1,-0.34,-0.005
00:55:55.824:1,-0.345,0.0
00:55:55.828:1,-0.365,-0.02
00:55:55.832:1,-0.42,-0.005
00:55:55.836:1,-0.48,-0.015
00:55:55.840:1,-0.575,0.0
00:55:55.844:1,-0.57,-0.03
00:55:55.848:1,-0.51,-0.01
00:55:55.852:1,-0.495,-0.01
00:55:55.856:1,-0.475,0.0
00:55:55.860:1,-0.465,-0.01
00:55:55.864:1,-0.445,-0.02
00:55:55.868:1,-0.46,0.0
00:55:55.872:1,-0.51,-0.005
00:55:55.876:1,-0.475,-0.02
00:55:55.880:1,-0.47,-0.03
00:55:55.884:1,-0.465,-0.01
00:55:55.888:1,-0.435,-0.025
00:55:55.892:1,-0.355,-0.045
00:55:55.896:1,-0.295,-0.055
00:55:55.900:1,-0.32,-0.025
00:55:55.904:1,-0.425,-0.03
00:55:55.908:1,-0.52,-0.04
00:55:55.912:1,-0.525,-0.065
00:55:55.916:1,-0.485,-0.06
00:55:55.920:1,-0.455,-0.04
00:55:55.924:1,-0.45,-0.05
00:55:55.928:1,-0.43,-0.05
00:55:55.932:1,-0.41,-0.035
00:55:55.936:1,-0.385,-0.055
00:55:55.940:1,-0.39,-0.065
00:55:55.944:1,-0.33,-0.065
00:55:55.948:1,-0.31,-0.05
00:55:55.952:1,-0.27,-0.08
00:55:55.956:1,-0.265,-0.04
00:55:55.960:1,-0.295,-0.045
00:55:55.964:1,-0.265,-0.065
00:55:55.968:1,-0.215,-0.075
00:55:55.972:1,-0.195,-0.095
00:55:55.976:1,-0.225,-0.085
00:55:55.980:1,-0.25,-0.065
00:55:55.984:1,-0.265,-0.065
00:55:55.988:1,-0.26,-0.085
00:55:55.992:1,-0.24,-0.05
00:55:55.996:1,-0.265,-0.08
00:55:56.000:1,-0.26,-0.07
00:55:56.004:1,-0.245,-0.085
00:55:56.008:1,-0.225,-0.095
00:55:56.012:1,-0.23,-0.065
00:55:56.016:1,-0.25,-0.075
00:55:56.020:1,-0.235,-0.06
00:55:56.024:1,-0.225,-0.05
00:55:56.028:1,-0.225,-0.07
00:55:56.032:1,-0.245,-0.065
00:55:56.036:1,-0.265,-0.05
00:55:56.040:1,-0.265,-0.055
00:55:56.044:1,-0.21,-0.055
00:55:56.048:1,-0.21,-0.045
00:55:56.052:1,-0.22,-0.035
00:55:56.056:1,-0.195,-0.02
00:55:56.060:1,-0.185,-0.035
00:55:56.064:1,-0.215,-0.055
00:55:56.068:1,-0.185,-0.055
00:55:56.072:1,-0.13,-0.03
00:55:56.076:1,-0.1,-0.02
00:55:56.080:1,-0.05,-0.005
00:55:56.084:1,-0.015,0.005
00:55:56.088:1,0.015,-0.005
00:55:56.092:1,0.015,0.015
00:55:56.096:1,0.005,0.01
00:55:56.100:1,-0.01,-0.01
00:55:56.104:1,-0.05,-0.01
00:55:56.108:1,-0.02,-0.015
00:55:56.112:1,0.055,-0.005
00:55:56.116:1,0.045,-0.04
00:55:56.120:1,-0.025,-0.07
00:55:56.124:1,-0.12,-0.075
00:55:56.128:1,-0.18,-0.095
00:55:56.132:1,-0.215,-0.1
00:55:56.136:1,-0.28,-0.085
00:55:56.140:1,-0.36,-0.065
00:55:56.144:1,-0.38,-0.05
00:55:56.148:1,-0.375,-0.05
00:55:56.152:1,-0.36,-0.04
00:55:56.156:1,-0.37,-0.065
00:55:56.160:1,-0.355,-0.075
00:55:56.164:1,-0.335,-0.05
00:55:56.168:1,-0.305,-0.055
00:55:56.172:1,-0.26,-0.07
00:55:56.176:1,-0.26,-0.05
00:55:56.180:1,-0.335,-0.075
00:55:56.184:1,-0.36,-0.07
00:55:56.188:1,-0.36,-0.105
00:55:56.192:1,-0.345,-0.065
00:55:56.196:1,-0.325,-0.08
00:55:56.200:1,-0.335,-0.105
00:55:56.204:1,-0.31,-0.1
00:55:56.208:1,-0.275,-0.1
00:55:56.212:1,-0.255,-0.08
00:55:56.216:1,-0.305,-0.085
00:55:56.220:1,-0.425,-0.095
00:55:56.224:1,-0.455,-0.105
00:55:56.228:1,-0.39,-0.125
00:55:56.232:1,-0.355,-0.1
00:55:56.236:1,-0.33,-0.095
00:55:56.240:1,-0.3,-0.08
00:55:56.244:1,-0.255,-0.11
00:55:56.248:1,-0.23,-0.115
00:55:56.252:1,-0.2,-0.105
00:55:56.256:1,-0.13,-0.125
00:55:56.260:1,-0.06,-0.15
00:55:56.264:1,-0.025,-0.135
00:55:56.268:1,-0.025,-0.12
00:55:56.272:1,0.015,-0.16
00:55:56.276:1,0.125,-0.21
00:55:56.280:1,0.25,-0.25
00:55:56.284:1,0.32,-0.195
00:55:56.288:1,0.385,-0.19
00:55:56.292:1,0.33,-0.25
00:55:56.296:1,0.27,-0.305
00:55:56.300:1,0.34,-0.455
00:55:56.304:1,0.58,-0.64
00:55:56.308:1,0.94,-0.915
00:55:56.312:1,1.185,-1.135
00:55:56.316:1,1.185,-1.19
00:55:56.320:1,0.8,-1.02
00:55:56.324:1,0.34,-0.635
00:55:56.328:1,0.02,-0.33
00:55:56.332:1,-0.115,-0.195
00:55:56.336:1,-0.25,-0.105
00:55:56.340:1,-0.39,-0.02
00:55:56.344:1,-0.47,0.04
00:55:56.348:1,-0.515,0.045
00:55:56.352:1,-0.5,0.06
00:55:56.356:1,-0.44,0.04
00:55:56.360:1,-0.42,0.035
00:55:56.364:1,-0.445,0.0
00:55:56.368:1,-0.465,0.01
00:55:56.372:1,-0.515,-0.015
00:55:56.376:1,-0.5,-0.04
00:55:56.380:1,-0.48,-0.015
00:55:56.384:1,-0.48,-0.015
00:55:56.388:1,-0.44,-0.015
00:55:56.392:1,-0.43,-0.01
00:55:56.396:1,-0.425,-0.025
00:55:56.400:1,-0.485,-0.025
00:55:56.404:1,-0.485,-0.025
00:55:56.408:1,-0.445,-0.025
00:55:56.412:1,-0.495,-0.035
00:55:56.416:1,-0.58,-0.02
00:55:56.420:1,-0.56,-0.02
00:55:56.424:1,-0.48,-0.02
00:55:56.428:1,-0.49,-0.01
00:55:56.432:1,-0.565,-0.045
00:55:56.436:1,-0.64,-0.055
00:55:56.440:1,-0.615,-0.065
00:55:56.444:1,-0.51,-0.08
00:55:56.448:1,-0.445,-0.05
00:55:56.452:1,-0.515,-0.03
00:55:56.456:1,-0.655,-0.04
00:55:56.460:1,-0.71,-0.03
00:55:56.464:1,-0.65,-0.06
00:55:56.468:1,-0.585,-0.055
00:55:56.472:1,-0.53,-0.015
00:55:56.476:1,-0.48,-0.03
00:55:56.480:1,-0.45,-0.045
00:55:56.484:1,-0.465,-0.035
00:55:56.488:1,-0.525,-0.02
00:55:56.492:1,-0.54,-0.03
00:55:56.496:1,-0.47,-0.035
00:55:56.500:1,-0.44,-0.055
00:55:56.504:1,-0.475,-0.03
00:55:56.508:1,-0.51,-0.065
00:55:56.512:1,-0.52,-0.06
00:55:56.516:1,-0.47,-0.055
00:55:56.520:1,-0.385,-0.06
00:55:56.524:1,-0.335,-0.08
00:55:56.528:1,-0.36,-0.065
00:55:56.532:1,-0.465,-0.09
00:55:56.536:1,-0.52,-0.085
00:55:56.540:1,-0.54,-0.095
00:55:56.544:1,-0.495,-0.095
00:55:56.548:1,-0.445,-0.085
00:55:56.552:1,-0.4,-0.065
00:55:56.556:1,-0.36,-0.08
00:55:56.560:1,-0.3,-0.07
00:55:56.564:1,-0.255,-0.07
00:55:56.568:1,-0.21,-0.1
00:55:56.572:1,-0.165,-0.11
00:55:56.576:1,-0.115,-0.1
00:55:56.580:1,-0.085,-0.09
00:55:56.584:1,-0.165,-0.08
00:55:56.588:1,-0.31,-0.08
00:55:56.592:1,-0.385,-0.05
00:55:56.596:1,-0.345,-0.09
00:55:56.600:1,-0.235,-0.055
00:55:56.604:1,-0.23,-0.055
00:55:56.608:1,-0.275,-0.035
00:55:56.612:1,-0.335,-0.02
00:55:56.616:1,-0.32,-0.035
00:55:56.620:1,-0.33,-0.04
00:55:56.624:1,-0.31,-0.045
00:55:56.628:1,-0.27,-0.01
00:55:56.632:1,-0.24,-0.05
00:55:56.636:1,-0.185,-0.055
00:55:56.640:1,-0.15,-0.075
00:55:56.644:1,-0.2,-0.03
00:55:56.648:1,-0.255,-0.03
00:55:56.652:1,-0.25,-0.035
00:55:56.656:1,-0.235,-0.04
00:55:56.660:1,-0.195,-0.05
00:55:56.664:1,-0.16,-0.03
00:55:56.668:1,-0.085,-0.03
00:55:56.672:1,-0.06,-0.015
00:55:56.676:1,-0.07,-0.02
00:55:56.680:1,-0.14,-0.035
00:55:56.684:1,-0.215,-0.015
00:55:56.688:1,-0.19,-0.025
00:55:56.692:1,-0.11,-0.02
00:55:56.696:1,-0.045,0.0
00:55:56.700:1,-0.01,0.02
00:55:56.704:1,-0.005,0.01
00:55:56.708:1,0.0,0.03
00:55:56.712:1,0.055,0.025
00:55:56.716:1,0.115,0.015
00:55:56.720:1,0.15,0.03
00:55:56.724:1,0.125,0.035
00:55:56.728:1,0.085,-0.015
00:55:56.732:1,0.06,-0.005
00:55:56.736:1,0.035,-0.02
00:55:56.740:1,-0.02,-0.06
00:55:56.744:1,-0.095,-0.065
00:55:56.748:1,-0.13,-0.07
00:55:56.752:1,-0.165,-0.055
00:55:56.756:1,-0.22,-0.05
00:55:56.760:1,-0.24,-0.03
00:55:56.764:1,-0.24,-0.04
00:55:56.768:1,-0.205,-0.025
00:55:56.772:1,-0.2,-0.025
00:55:56.776:1,-0.25,-0.03
00:55:56.780:1,-0.345,-0.04
00:55:56.784:1,-0.37,-0.04
00:55:56.788:1,-0.31,-0.035
00:55:56.792:1,-0.25,-0.03
00:55:56.796:1,-0.17,0.0
00:55:56.800:1,-0.15,-0.02
00:55:56.804:1,-0.145,-0.03
00:55:56.808:1,-0.16,-0.055
00:55:56.812:1,-0.13,-0.045
00:55:56.816:1,-0.17,-0.045
00:55:56.820:1,-0.24,-0.05
00:55:56.824:1,-0.365,-0.045
00:55:56.828:1,-0.435,-0.05
00:55:56.832:1,-0.4,-0.035
00:55:56.836:1,-0.32,-0.035
00:55:56.840:1,-0.275,-0.025
00:55:56.844:1,-0.26,-0.04
00:55:56.848:1,-0.265,-0.02
00:55:56.852:1,-0.31,-0.025
00:55:56.856:1,-0.255,-0.045
00:55:56.860:1,-0.24,-0.04
00:55:56.864:1,-0.21,-0.035
00:55:56.868:1,-0.18,-0.045
00:55:56.872:1,-0.13,-0.035
00:55:56.876:1,-0.065,-0.02
00:55:56.880:1,0.05,-0.05
00:55:56.884:1,0.215,-0.06
00:55:56.888:1,0.335,-0.09
00:55:56.892:1,0.385,-0.115
00:55:56.896:1,0.33,-0.14
00:55:56.900:1,0.245,-0.12
00:55:56.904:1,0.24,-0.14
00:55:56.908:1,0.22,-0.145
00:55:56.912:1,0.185,-0.24
00:55:56.916:1,0.325,-0.385
00:55:56.920:1,0.645,-0.56
00:55:56.924:1,1.025,-0.815
00:55:56.928:1,1.355,-1.06
00:55:56.932:1,1.425,-1.2
00:55:56.936:1,1.19,-1.115
00:55:56.940:1,0.67,-0.765
00:55:56.944:1,0.195,-0.39
00:55:56.948:1,-0.075,-0.105
00:55:56.952:1,-0.18,0.01
00:55:56.956:1,-0.25,0.11
00:55:56.960:1,-0.255,0.145
00:55:56.964:1,-0.275,0.135
00:55:56.968:1,-0.305,0.14
00:55:56.972:1,-0.365,0.125
00:55:56.976:1,-0.4,0.12
00:55:56.980:1,-0.38,0.095
00:55:56.984:1,-0.325,0.1
00:55:56.988:1,-0.305,0.09
00:55:56.992:1,-0.36,0.095
00:55:56.996:1,-0.45,0.095
00:55:57.000:1,-0.535,0.1
00:55:57.004:1,-0.5,0.07
00:55:57.008:1,-0.465,0.07
00:55:57.012:1,-0.415,0.105
00:55:57.016:1,-0.38,0.1
00:55:57.020:1,-0.33,0.095
00:55:57.024:1,-0.315,0.08
00:55:57.028:1,-0.4,0.09
00:55:57.032:1,-0.54,0.09
00:55:57.036:1,-0.6,0.08
00:55:57.040:1,-0.55,0.065
00:55:57.044:1,-0.49,0.075
00:55:57.048:1,-0.415,0.065
00:55:57.052:1,-0.4,0.06
00:55:57.056:1,-0.445,0.075
00:55:57.060:1,-0.53,0.05
00:55:57.064:1,-0.545,0.055
00:55:57.068:1,-0.525,0.025
00:55:57.072:1,-0.455,0.035
00:55:57.076:1,-0.405,0.06
00:55:57.080:1,-0.41,0.075
00:55:57.084:1,-0.425,0.05
00:55:57.088:1,-0.47,0.055
00:55:57.092:1,-0.5,0.04
00:55:57.096:1,-0.53,0.04
00:55:57.100:1,-0.54,0.06
00:55:57.104:1,-0.5,0.045
00:55:57.108:1,-0.505,0.055
00:55:57.112:1,-0.435,0.04
00:55:57.116:1,-0.42,0.04
00:55:57.120:1,-0.395,0.05
00:55:57.124:1,-0.415,0.035
00:55:57.128:1,-0.41,0.04
00:55:57.132:1,-0.43,0.025
00:55:57.136:1,-0.41,0.025
00:55:57.140:1,-0.43,0.01
00:55:57.144:1,-0.39,0.015
00:55:57.148:1,-0.33,0.015
00:55:57.152:1,-0.27,0.03
00:55:57.156:1,-0.25,0.03
00:55:57.160:1,-0.265,0.01
00:55:57.164:1,-0.32,0.0
00:55:57.168:1,-0.355,-0.015
00:55:57.172:1,-0.345,-0.03
00:55:57.176:1,-0.27,-0.02
00:55:57.180:1,-0.19,0.0
00:55:57.184:1,-0.16,-0.01
00:55:57.188:1,-0.19,0.0
00:55:57.192:1,-0.2,-0.01
00:55:57.196:1,-0.275,0.0
00:55:57.200:1,-0.29,0.02
00:55:57.204:1,-0.26,0.03
00:55:57.208:1,-0.215,0.035
00:55:57.212:1,-0.19,0.05
00:55:57.216:1,-0.2,0.05
00:55:57.220:1,-0.17,0.05
00:55:57.224:1,-0.17,0.04
00:55:57.228:1,-0.16,0.04
00:55:57.232:1,-0.14,0.045
00:55:57.236:1,-0.16,0.06
00:55:57.240:1,-0.18,0.045
00:55:57.244:1,-0.2,0.05
00:55:57.248:1,-0.18,0.045
00:55:57.252:1,-0.12,0.025
00:55:57.256:1,-0.09,0.045
00:55:57.260:1,-0.12,0.06
00:55:57.264:1,-0.185,0.06
00:55:57.268:1,-0.21,0.065
00:55:57.272:1,-0.195,0.045
00:55:57.276:1,-0.2,0.06
00:55:57.280:1,-0.16,0.065
00:55:57.284:1,-0.15,0.05
00:55:57.288:1,-0.1,0.05
00:55:57.292:1,-0.1,0.045
00:55:57.296:1,-0.06,0.075
00:55:57.300:1,-0.03,0.1
00:55:57.304:1,0.025,0.1
00:55:57.308:1,0.07,0.115
00:55:57.312:1,0.08,0.155
00:55:57.316:1,0.11,0.145
00:55:57.320:1,0.15,0.145
00:55:57.324:1,0.18,0.14
00:55:57.328:1,0.18,0.135
00:55:57.332:1,0.175,0.11
00:55:57.336:1,0.145,0.095
00:55:57.340:1,0.08,0.06
00:55:57.344:1,0.03,0.04
00:55:57.348:1,-0.035,0.07
00:55:57.352:1,-0.13,0.055
00:55:57.356:1,-0.18,0.085
00:55:57.360:1,-0.195,0.06
00:55:57.364:1,-0.215,0.06
00:55:57.368:1,-0.26,0.04
00:55:57.372:1,-0.3,0.055
00:55:57.376:1,-0.285,0.07
00:55:57.380:1,-0.28,0.08
00:55:57.384:1,-0.24,0.05
00:55:57.388:1,-0.23,0.06
00:55:57.392:1,-0.22,0.05
00:55:57.396:1,-0.215,0.04
00:55:57.400:1,-0.23,0.06
00:55:57.404:1,-0.2,0.04
00:55:57.408:1,-0.18,0.03
00:55:57.412:1,-0.18,0.035
00:55:57.416:1,-0.195,0.04
00:55:57.420:1,-0.17,0.06
00:55:57.424:1,-0.195,0.025
00:55:57.428:1,-0.22,0.04
00:55:57.432:1,-0.18,0.04
00:55:57.436:1,-0.18,0.02
00:55:57.440:1,-0.17,0.045
00:55:57.444:1,-0.175,0.045
00:55:57.448:1,-0.19,0.05
00:55:57.452:1,-0.205,0.04
00:55:57.456:1,-0.205,0.025
00:55:57.460:1,-0.225,0.0
00:55:57.464:1,-0.215,0.03
00:55:57.468:1,-0.195,0.035
00:55:57.472:1,-0.17,0.025
00:55:57.476:1,-0.14,0.01
00:55:57.480:1,-0.05,0.01
00:55:57.484:1,0.04,0.0
00:55:57.488:1,0.155,0.01
00:55:57.492:1,0.22,-0.04
00:55:57.496:1,0.23,-0.045
00:55:57.500:1,0.26,-0.1
00:55:57.504:1,0.28,-0.065
00:55:57.508:1,0.245,-0.055
00:55:57.512:1,0.23,-0.105
00:55:57.516:1,0.275,-0.185
00:55:57.520:1,0.495,-0.33
00:55:57.524:1,0.83,-0.575
00:55:57.528:1,1.185,-0.86
00:55:57.532:1,1.4,-1.085
00:55:57.536:1,1.355,-1.075
00:55:57.540:1,0.99,-0.86
00:55:57.544:1,0.495,-0.46
00:55:57.548:1,0.115,-0.13
00:55:57.552:1,-0.06,0.08
00:55:57.556:1,-0.14,0.16
00:55:57.560:1,-0.23,0.22
00:55:57.564:1,-0.275,0.195
00:55:57.568:1,-0.32,0.215
00:55:57.572:1,-0.32,0.21
00:55:57.576:1,-0.32,0.18
00:55:57.580:1,-0.345,0.15
00:55:57.584:1,-0.34,0.13
00:55:57.588:1,-0.345,0.1
00:55:57.592:1,-0.33,0.095
00:55:57.596:1,-0.35,0.09
00:55:57.600:1,-0.34,0.075
00:55:57.604:1,-0.34,0.08
00:55:57.608:1,-0.355,0.09
00:55:57.612:1,-0.305,0.105
00:55:57.616:1,-0.345,0.1
00:55:57.620:1,-0.335,0.09
00:55:57.624:1,-0.325,0.085
00:55:57.628:1,-0.32,0.08
00:55:57.632:1,-0.33,0.095
00:55:57.636:1,-0.34,0.11
00:55:57.640:1,-0.36,0.085
00:55:57.644:1,-0.37,0.06
00:55:57.648:1,-0.365,0.07
00:55:57.652:1,-0.375,0.055
00:55:57.656:1,-0.395,0.07
00:55:57.660:1,-0.4,0.06
00:55:57.664:1,-0.39,0.065
00:55:57.668:1,-0.405,0.05
00:55:57.672:1,-0.405,0.035
00:55:57.676:1,-0.39,0.04
00:55:57.680:1,-0.39,0.035
00:55:57.684:1,-0.405,0.02
00:55:57.688:1,-0.415,0.02
00:55:57.692:1,-0.41,0.025
00:55:57.696:1,-0.4,0.01
00:55:57.700:1,-0.405,0.035
00:55:57.704:1,-0.41,0.04
00:55:57.708:1,-0.42,0.01
00:55:57.712:1,-0.49,0.02
00:55:57.716:1,-0.505,0.0
00:55:57.720:1,-0.435,0.03
00:55:57.724:1,-0.375,0.01
00:55:57.728:1,-0.35,0.01
00:55:57.732:1,-0.36,0.01
00:55:57.736:1,-0.36,0.015
00:55:57.740:1,-0.305,0.005
00:55:57.744:1,-0.295,-0.01
00:55:57.748:1,-0.28,0.005
00:55:57.752:1,-0.265,-0.005
00:55:57.756:1,-0.27,0.01
00:55:57.760:1,-0.265,-0.025
00:55:57.764:1,-0.255,-0.035
00:55:57.768:1,-0.27,-0.025
00:55:57.772:1,-0.24,-0.01
00:55:57.776:1,-0.235,-0.03
00:55:57.780:1,-0.2,-0.035
00:55:57.784:1,-0.21,-0.05
00:55:57.788:1,-0.19,-0.04
00:55:57.792:1,-0.195,-0.03
00:55:57.796:1,-0.175,-0.02
00:55:57.800:1,-0.18,-0.005
00:55:57.804:1,-0.195,0.005
00:55:57.808:1,-0.17,0.0
00:55:57.812:1,-0.165,0.01
00:55:57.816:1,-0.155,0.01
00:55:57.820:1,-0.125,0.015
00:55:57.824:1,-0.14,0.01
00:55:57.828:1,-0.135,0.0
00:55:57.832:1,-0.14,0.005
00:55:57.836:1,-0.125,0.035
00:55:57.840:1,-0.125,0.045
00:55:57.844:1,-0.105,0.035
00:55:57.848:1,-0.11,0.02
00:55:57.852:1,-0.12,0.005
00:55:57.856:1,-0.14,0.035
00:55:57.860:1,-0.13,0.045
00:55:57.864:1,-0.145,0.035
00:55:57.868:1,-0.165,0.035
00:55:57.872:1,-0.14,0.05
00:55:57.876:1,-0.155,0.025
00:55:57.880:1,-0.115,0.025
00:55:57.884:1,-0.1,0.02
00:55:57.888:1,-0.09,0.0
00:55:57.892:1,-0.105,0.04
00:55:57.896:1,-0.095,0.015
00:55:57.900:1,-0.07,0.035
00:55:57.904:1,-0.01,0.055
00:55:57.908:1,0.055,0.075
00:55:57.912:1,0.095,0.06
00:55:57.916:1,0.125,0.08
00:55:57.920:1,0.16,0.08
00:55:57.924:1,0.2,0.085
00:55:57.928:1,0.215,0.095
00:55:57.932:1,0.185,0.105
00:55:57.936:1,0.13,0.055
00:55:57.940:1,0.09,0.025
00:55:57.944:1,0.06,0.015
00:55:57.948:1,0.015,-0.015
00:55:57.952:1,-0.02,0.03
00:55:57.956:1,-0.105,0.01
00:55:57.960:1,-0.19,0.03
00:55:57.964:1,-0.215,0.04
00:55:57.968:1,-0.235,0.03
00:55:57.972:1,-0.27,0.03
00:55:57.976:1,-0.26,0.035
00:55:57.980:1,-0.245,0.015
00:55:57.984:1,-0.24,0.01
00:55:57.988:1,-0.215,-0.02
00:55:57.992:1,-0.21,-0.005
00:55:57.996:1,-0.21,-0.02
00:55:58.000:1,-0.2,-0.015
00:55:58.004:1,-0.235,-0.01
00:55:58.008:1,-0.22,-0.02
00:55:58.012:1,-0.21,0.0
00:55:58.016:1,-0.195,-0.04
00:55:58.020:1,-0.19,-0.035
00:55:58.024:1,-0.185,-0.04
00:55:58.028:1,-0.195,-0.035
00:55:58.032:1,-0.18,-0.025
00:55:58.036:1,-0.165,-0.025
00:55:58.040:1,-0.15,-0.025
00:55:58.044:1,-0.15,-0.025
00:55:58.048:1,-0.16,0.0
00:55:58.052:1,-0.17,-0.015
00:55:58.056:1,-0.165,-0.03
00:55:58.060:1,-0.145,-0.045
00:55:58.064:1,-0.155,-0.04
00:55:58.068:1,-0.14,-0.055
00:55:58.072:1,-0.125,-0.02
00:55:58.076:1,-0.105,-0.06
00:55:58.080:1,-0.035,-0.035
00:55:58.084:1,0.045,-0.065
00:55:58.088:1,0.165,-0.055
00:55:58.092:1,0.28,-0.11
00:55:58.096:1,0.325,-0.15
00:55:58.100:1,0.37,-0.16
00:55:58.104:1,0.4,-0.115
00:55:58.108:1,0.38,-0.085
00:55:58.112:1,0.33,-0.105
00:55:58.116:1,0.345,-0.155
00:55:58.120:1,0.495,-0.285
00:55:58.124:1,0.8,-0.5
00:55:58.128:1,1.135,-0.755
00:55:58.132:1,1.355,-0.995
00:55:58.136:1,1.31,-1.075
00:55:58.140:1,0.93,-0.91
00:55:58.144:1,0.43,-0.55
00:55:58.148:1,0.065,-0.245
00:55:58.152:1,-0.07,-0.08
00:55:58.156:1,-0.15,0.0
00:55:58.160:1,-0.185,0.075
00:55:58.164:1,-0.2,0.13
00:55:58.168:1,-0.24,0.075
00:55:58.172:1,-0.29,0.095
00:55:58.176:1,-0.31,0.09
00:55:58.180:1,-0.355,0.045
00:55:58.184:1,-0.36,0.035
00:55:58.188:1,-0.36,0.01
00:55:58.192:1,-0.32,0.0
00:55:58.196:1,-0.35,0.005
00:55:58.200:1,-0.36,-0.005
00:55:58.204:1,-0.38,0.0
00:55:58.208:1,-0.385,0.01
00:55:58.212:1,-0.39,-0.01
00:55:58.216:1,-0.4,0.0
00:55:58.220:1,-0.38,-0.02
00:55:58.224:1,-0.38,-0.015
00:55:58.228:1,-0.38,0.0
00:55:58.232:1,-0.375,0.0
00:55:58.236:1,-0.375,0.0
00:55:58.240:1,-0.375,-0.02
00:55:58.244:1,-0.38,-0.005
00:55:58.248:1,-0.41,0.01
00:55:58.252:1,-0.415,0.0
00:55:58.256:1,-0.405,0.0
00:55:58.260:1,-0.395,0.0
00:55:58.264:1,-0.395,0.015
00:55:58.268:1,-0.39,0.005
00:55:58.272:1,-0.42,0.005
00:55:58.276:1,-0.43,-0.015
00:55:58.280:1,-0.42,0.0
00:55:58.284:1,-0.44,-0.01
00:55:58.288:1,-0.44,-0.005
00:55:58.292:1,-0.445,0.0
00:55:58.296:1,-0.44,-0.01
00:55:58.300:1,-0.44,-0.015
00:55:58.304:1,-0.44,-0.015
00:55:58.308:1,-0.435,-0.03
00:55:58.312:1,-0.44,-0.01
00:55:58.316:1,-0.415,-0.03
00:55:58.320:1,-0.4,-0.01
00:55:58.324:1,-0.41,-0.03
00:55:58.328:1,-0.415,-0.025
00:55:58.332:1,-0.395,-0.045
00:55:58.336:1,-0.37,-0.04
00:55:58.340:1,-0.375,-0.045
00:55:58.344:1,-0.345,-0.03
00:55:58.348:1,-0.34,-0.04
00:55:58.352:1,-0.32,-0.025
00:55:58.356:1,-0.31,-0.045
00:55:58.360:1,-0.31,-0.035
00:55:58.364:1,-0.29,-0.04
00:55:58.368:1,-0.305,-0.025
00:55:58.372:1,-0.285,-0.05
00:55:58.376:1,-0.27,-0.06
00:55:58.380:1,-0.265,-0.05
00:55:58.384:1,-0.25,-0.05
00:55:58.388:1,-0.245,-0.035
00:55:58.392:1,-0.22,-0.025
00:55:58.396:1,-0.205,-0.05
00:55:58.400:1,-0.19,-0.06
00:55:58.404:1,-0.2,-0.065
00:55:58.408:1,-0.19,-0.06
00:55:58.412:1,-0.2,-0.055
00:55:58.416:1,-0.205,-0.055
00:55:58.420:1,-0.18,-0.055
00:55:58.424:1,-0.19,-0.035
00:55:58.428:1,-0.185,-0.01
00:55:58.432:1,-0.175,-0.02
00:55:58.436:1,-0.175,-0.025
00:55:58.440:1,-0.17,-0.02
00:55:58.444:1,-0.14,-0.02
00:55:58.448:1,-0.15,-0.02
00:55:58.452:1,-0.15,-0.025
00:55:58.456:1,-0.16,0.0
00:55:58.460:1,-0.145,0.005
00:55:58.464:1,-0.155,0.02
00:55:58.468:1,-0.145,0.005
00:55:58.472:1,-0.14,0.0
00:55:58.476:1,-0.13,0.035
00:55:58.480:1,-0.13,0.04
00:55:58.484:1,-0.12,0.015
00:55:58.488:1,-0.12,0.015
00:55:58.492:1,-0.115,0.03
00:55:58.496:1,-0.115,0.0
00:55:58.500:1,-0.11,0.03
00:55:58.504:1,-0.065,0.04
00:55:58.508:1,-0.045,0.035
00:55:58.512:1,-0.005,0.045
00:55:58.516:1,0.04,0.08
00:55:58.520:1,0.07,0.085
00:55:58.524:1,0.145,0.085
00:55:58.528:1,0.175,0.08
00:55:58.532:1,0.2,0.095
00:55:58.536:1,0.175,0.105
00:55:58.540:1,0.17,0.08
00:55:58.544:1,0.155,0.065
00:55:58.548:1,0.13,0.04
00:55:58.552:1,0.105,0.03
00:55:58.556:1,0.025,0.04
00:55:58.560:1,-0.04,0.06
00:55:58.564:1,-0.08,0.05
00:55:58.568:1,-0.14,0.055
00:55:58.572:1,-0.185,0.075
00:55:58.576:1,-0.22,0.07
00:55:58.580:1,-0.225,0.07
00:55:58.584:1,-0.24,0.065
00:55:58.588:1,-0.23,0.055
00:55:58.592:1,-0.225,0.05
00:55:58.596:1,-0.23,0.025
00:55:58.600:1,-0.22,0.035
00:55:58.604:1,-0.195,0.03
00:55:58.608:1,-0.2,0.03
00:55:58.612:1,-0.19,0.04
00:55:58.616:1,-0.195,0.04
00:55:58.620:1,-0.15,0.045
00:55:58.624:1,-0.185,0.03
00:55:58.628:1,-0.16,0.03
00:55:58.632:1,-0.135,0.03
00:55:58.636:1,-0.145,0.04
00:55:58.640:1,-0.155,0.02
00:55:58.644:1,-0.17,0.035
00:55:58.648:1,-0.145,0.055
00:55:58.652:1,-0.115,0.045
00:55:58.656:1,-0.125,0.025
00:55:58.660:1,-0.135,0.045
00:55:58.664:1,-0.145,0.05
00:55:58.668:1,-0.115,0.045
00:55:58.672:1,-0.13,0.05
00:55:58.676:1,-0.095,0.065
00:55:58.680:1,-0.1,0.045
00:55:58.684:1,-0.08,0.045
00:55:58.688:1,-0.02,0.045
00:55:58.692:1,0.065,0.02
00:55:58.696:1,0.17,0.005
00:55:58.700:1,0.255,-0.015
00:55:58.704:1,0.29,-0.03
00:55:58.708:1,0.37,-0.075
00:55:58.712:1,0.36,-0.065
00:55:58.716:1,0.385,-0.045
00:55:58.720:1,0.375,-0.085
00:55:58.724:1,0.395,-0.18
00:55:58.728:1,0.53,-0.31
00:55:58.732:1,0.8,-0.48
00:55:58.736:1,1.14,-0.755
00:55:58.740:1,1.465,-0.995
00:55:58.744:1,1.545,-1.125
00:55:58.748:1,1.31,-1.0
00:55:58.752:1,0.795,-0.65
00:55:58.756:1,0.305,-0.27
00:55:58.760:1,0.04,-0.025
00:55:58.764:1,-0.105,0.085
00:55:58.768:1,-0.185,0.165
00:55:58.772:1,-0.21,0.195
00:55:58.776:1,-0.235,0.195
00:55:58.780:1,-0.245,0.205
00:55:58.784:1,-0.235,0.18
00:55:58.788:1,-0.27,0.175
00:55:58.792:1,-0.31,0.16
00:55:58.796:1,-0.315,0.11
00:55:58.800:1,-0.34,0.11
00:55:58.804:1,-0.36,0.11
00:55:58.808:1,-0.365,0.105
00:55:58.812:1,-0.355,0.1
00:55:58.816:1,-0.35,0.115
00:55:58.820:1,-0.36,0.1
00:55:58.824:1,-0.335,0.11
00:55:58.828:1,-0.32,0.105
00:55:58.832:1,-0.32,0.085
00:55:58.836:1,-0.335,0.1
00:55:58.840:1,-0.345,0.105
00:55:58.844:1,-0.375,0.1
00:55:58.848:1,-0.35,0.1
00:55:58.852:1,-0.36,0.12
00:55:58.856:1,-0.355,0.105
00:55:58.860:1,-0.355,0.115
00:55:58.864:1,-0.345,0.085
00:55:58.868:1,-0.33,0.075
00:55:58.872:1,-0.345,0.095
00:55:58.876:1,-0.34,0.12
00:55:58.880:1,-0.345,0.09
00:55:58.884:1,-0.36,0.07
00:55:58.888:1,-0.37,0.09
00:55:58.892:1,-0.375,0.085
00:55:58.896:1,-0.34,0.095
00:55:58.900:1,-0.345,0.09
00:55:58.904:1,-0.36,0.075
00:55:58.908:1,-0.38,0.075
00:55:58.912:1,-0.375,0.07
00:55:58.916:1,-0.37,0.075
00:55:58.920:1,-0.375,0.05
00:55:58.924:1,-0.315,0.065
00:55:58.928:1,-0.305,0.04
00:55:58.932:1,-0.305,0.035
00:55:58.936:1,-0.31,0.065
00:55:58.940:1,-0.315,0.05
00:55:58.944:1,-0.31,0.075
00:55:58.948:1,-0.295,0.035
00:55:58.952:1,-0.295,0.025
00:55:58.956:1,-0.275,0.02
00:55:58.960:1,-0.25,0.005
00:55:58.964:1,-0.23,0.025
00:55:58.968:1,-0.22,0.02
00:55:58.972:1,-0.19,0.02
00:55:58.976:1,-0.18,0.015
00:55:58.980:1,-0.195,0.03
00:55:58.984:1,-0.19,0.01
00:55:58.988:1,-0.17,0.005
00:55:58.992:1,-0.13,0.02
00:55:58.996:1,-0.14,0.015
00:55:59.000:1,-0.12,0.0
00:55:59.004:1,-0.12,0.0
00:55:59.008:1,-0.115,0.005
00:55:59.012:1,-0.115,0.005
00:55:59.016:1,-0.105,0.04
00:55:59.020:1,-0.11,0.01
00:55:59.024:1,-0.1,0.01
00:55:59.028:1,-0.09,-0.005
00:55:59.032:1,-0.1,0.005
00:55:59.036:1,-0.095,0.025
00:55:59.040:1,-0.065,0.03
00:55:59.044:1,-0.085,0.015
00:55:59.048:1,-0.09,0.02
00:55:59.052:1,-0.08,0.035
00:55:59.056:1,-0.105,0.04
00:55:59.060:1,-0.08,0.025
00:55:59.064:1,-0.06,0.025
00:55:59.068:1,-0.085,0.04
00:55:59.072:1,-0.06,0.055
00:55:59.076:1,-0.035,0.06
00:55:59.080:1,-0.045,0.07
00:55:59.084:1,-0.065,0.045
00:55:59.088:1,-0.07,0.055
00:55:59.092:1,-0.055,0.06
00:55:59.096:1,-0.06,0.055
00:55:59.100:1,-0.04,0.055
00:55:59.104:1,-0.035,0.05
00:55:59.108:1,-0.035,0.05
00:55:59.112:1,-0.005,0.045
00:55:59.116:1,-0.03,0.05
00:55:59.120:1,-0.05,0.035
00:55:59.124:1,-0.025,0.055
00:55:59.128:1,0.01,0.05
00:55:59.132:1,0.045,0.06
00:55:59.136:1,0.105,0.09
00:55:59.140:1,0.15,0.09
00:55:59.144:1,0.175,0.085
00:55:59.148:1,0.195,0.095
00:55:59.152:1,0.205,0.105
00:55:59.156:1,0.215,0.115
00:55:59.160:1,0.21,0.11
00:55:59.164:1,0.195,0.085
00:55:59.168:1,0.165,0.065
00:55:59.172:1,0.12,0.035
00:55:59.176:1,0.065,0.035
00:55:59.180:1,0.03,0.025
00:55:59.184:1,-0.015,0.03
00:55:59.188:1,-0.065,0.04
00:55:59.192:1,-0.125,0.055
00:55:59.196:1,-0.15,0.06
00:55:59.200:1,-0.16,0.075
00:55:59.204:1,-0.18,0.05
00:55:59.208:1,-0.185,0.04
00:55:59.212:1,-0.18,0.05
00:55:59.216:1,-0.155,0.025
00:55:59.220:1,-0.145,0.01
00:55:59.224:1,-0.175,0.02
00:55:59.228:1,-0.16,0.035
00:55:59.232:1,-0.125,0.005
00:55:59.236:1,-0.145,0.015
00:55:59.240:1,-0.145,0.025
00:55:59.244:1,-0.155,0.005
00:55:59.248:1,-0.135,0.02
00:55:59.252:1,-0.115,0.01
00:55:59.256:1,-0.12,0.0
00:55:59.260:1,-0.13,0.005
00:55:59.264:1,-0.155,0.0
00:55:59.268:1,-0.15,0.0
00:55:59.272:1,-0.11,0.0
00:55:59.276:1,-0.1,0.0
00:55:59.280:1,-0.1,0.015
00:55:59.284:1,-0.095,0.01
00:55:59.288:1,-0.11,0.015
00:55:59.292:1,-0.14,0.01
00:55:59.296:1,-0.125,0.015
00:55:59.300:1,-0.12,0.015
00:55:59.304:1,-0.085,0.035
00:55:59.308:1,-0.005,0.015
00:55:59.312:1,0.09,0.005
00:55:59.316:1,0.185,-0.005
00:55:59.320:1,0.23,-0.025
00:55:59.324:1,0.27,-0.045
00:55:59.328:1,0.27,-0.095
00:55:59.332:1,0.305,-0.085
00:55:59.336:1,0.295,-0.05
00:55:59.340:1,0.24,-0.045
00:55:59.344:1,0.21,-0.12
00:55:59.348:1,0.275,-0.21
00:55:59.352:1,0.51,-0.365
00:55:59.356:1,0.855,-0.625
00:55:59.360:1,1.2,-0.87
00:55:59.364:1,1.39,-1.065
00:55:59.368:1,1.345,-1.075
00:55:59.372:1,1.005,-0.835
00:55:59.376:1,0.49,-0.45
00:55:59.380:1,0.155,-0.125
00:55:59.384:1,-0.035,0.045
00:55:59.388:1,-0.11,0.17
00:55:59.392:1,-0.195,0.195
00:55:59.396:1,-0.215,0.19
00:55:59.400:1,-0.25,0.17
00:55:59.404:1,-0.265,0.19
00:55:59.408:1,-0.265,0.18
00:55:59.412:1,-0.3,0.145
00:55:59.416:1,-0.3,0.125
00:55:59.420:1,-0.3,0.105
00:55:59.424:1,-0.305,0.095
00:55:59.428:1,-0.31,0.085
00:55:59.432:1,-0.32,0.095
00:55:59.436:1,-0.33,0.09
00:55:59.440:1,-0.335,0.075
00:55:59.444:1,-0.32,0.09
00:55:59.448:1,-0.33,0.09
00:55:59.452:1,-0.325,0.1
00:55:59.456:1,-0.32,0.09
00:55:59.460:1,-0.32,0.06
00:55:59.464:1,-0.315,0.07
00:55:59.468:1,-0.3,0.045
00:55:59.472:1,-0.32,0.07
00:55:59.476:1,-0.34,0.07
00:55:59.480:1,-0.34,0.07
00:55:59.484:1,-0.315,0.07
00:55:59.488:1,-0.31,0.075
00:55:59.492:1,-0.365,0.075
00:55:59.496:1,-0.355,0.065
00:55:59.500:1,-0.34,0.045
00:55:59.504:1,-0.34,0.065
00:55:59.508:1,-0.35,0.08
00:55:59.512:1,-0.34,0.065
00:55:59.516:1,-0.355,0.09
00:55:59.520:1,-0.34,0.09
00:55:59.524:1,-0.365,0.1
00:55:59.528:1,-0.34,0.085
00:55:59.532:1,-0.335,0.05
00:55:59.536:1,-0.33,0.065
00:55:59.540:1,-0.345,0.06
00:55:59.544:1,-0.34,0.07
00:55:59.548:1,-0.335,0.07
00:55:59.552:1,-0.355,0.065
00:55:59.556:1,-0.335,0.045
00:55:59.560:1,-0.33,0.03
00:55:59.564:1,-0.305,0.035
00:55:59.568:1,-0.28,0.04
00:55:59.572:1,-0.265,0.04
00:55:59.576:1,-0.26,0.015
00:55:59.580:1,-0.235,0.025
00:55:59.584:1,-0.26,0.0
00:55:59.588:1,-0.225,0.015
00:55:59.592:1,-0.215,-0.005
00:55:59.596:1,-0.225,-0.005
00:55:59.600:1,-0.175,0.005
00:55:59.604:1,-0.165,0.01
00:55:59.608:1,-0.165,0.02
00:55:59.612:1,-0.155,0.02
00:55:59.616:1,-0.13,0.035
00:55:59.620:1,-0.095,0.005
00:55:59.624:1,-0.12,0.005
00:55:59.628:1,-0.105,0.01
00:55:59.632:1,-0.09,0.03
00:55:59.636:1,-0.105,0.025
00:55:59.640:1,-0.07,0.02
00:55:59.644:1,-0.07,0.025
00:55:59.648:1,-0.07,0.0
00:55:59.652:1,-0.06,0.015
00:55:59.656:1,-0.055,0.015
00:55:59.660:1,-0.04,0.045
00:55:59.664:1,-0.04,0.03
00:55:59.668:1,-0.05,0.025
00:55:59.672:1,-0.055,0.02
00:55:59.676:1,-0.05,0.02
00:55:59.680:1,-0.05,0.055
00:55:59.684:1,-0.055,0.05
00:55:59.688:1,-0.05,0.04
00:55:59.692:1,-0.05,0.05
00:55:59.696:1,-0.045,0.045
00:55:59.700:1,-0.04,0.065
00:55:59.704:1,-0.03,0.07
00:55:59.708:1,-0.03,0.06
00:55:59.712:1,-0.03,0.045
00:55:59.716:1,-0.01,0.06
00:55:59.720:1,0.0,0.045
00:55:59.724:1,-0.01,0.06
00:55:59.728:1,0.005,0.065
00:55:59.732:1,0.015,0.065
00:55:59.736:1,0.055,0.065
00:55:59.740:1,0.085,0.075
00:55:59.744:1,0.115,0.09
00:55:59.748:1,0.16,0.09
00:55:59.752:1,0.16,0.12
00:55:59.756:1,0.205,0.11
00:55:59.760:1,0.245,0.105
00:55:59.764:1,0.26,0.1
00:55:59.768:1,0.22,0.065
00:55:59.772:1,0.205,0.06
00:55:59.776:1,0.18,0.025
00:55:59.780:1,0.135,0.025
00:55:59.784:1,0.095,0.0
00:55:59.788:1,0.035,0.0
00:55:59.792:1,-0.005,0.025
00:55:59.796:1,-0.095,0.01
00:55:59.800:1,-0.145,0.04
00:55:59.804:1,-0.155,0.035
00:55:59.808:1,-0.165,0.05
00:55:59.812:1,-0.16,0.045
00:55:59.816:1,-0.165,0.045
00:55:59.820:1,-0.155,0.04
00:55:59.824:1,-0.14,0.035
00:55:59.828:1,-0.14,0.05
00:55:59.832:1,-0.145,0.01
00:55:59.836:1,-0.15,0.025
00:55:59.840:1,-0.135,0.03
00:55:59.844:1,-0.12,0.02
00:55:59.848:1,-0.09,0.0
00:55:59.852:1,-0.11,-0.005
00:55:59.856:1,-0.1,-0.005
00:55:59.860:1,-0.115,0.0
00:55:59.864:1,-0.125,-0.01
00:55:59.868:1,-0.15,-0.005
00:55:59.872:1,-0.135,-0.035
00:55:59.876:1,-0.11,-0.04
00:55:59.880:1,-0.11,-0.03
00:55:59.884:1,-0.14,-0.035
00:55:59.888:1,-0.135,-0.025
00:55:59.892:1,-0.135,-0.025
00:55:59.896:1,-0.13,-0.025
00:55:59.900:1,-0.12,-0.03
00:55:59.904:1,-0.095,-0.035
00:55:59.908:1,-0.055,-0.03
00:55:59.912:1,-0.05,-0.03
00:55:59.916:1,-0.005,-0.02
00:55:59.920:1,0.05,-0.045
00:55:59.924:1,0.115,-0.035
00:55:59.928:1,0.265,-0.045
00:55:59.932:1,0.345,-0.075
00:55:59.936:1,0.385,-0.085
00:55:59.940:1,0.41,-0.105
00:55:59.944:1,0.455,-0.075
00:55:59.948:1,0.465,-0.075
00:55:59.952:1,0.425,-0.12
00:55:59.956:1,0.43,-0.165
00:55:59.960:1,0.56,-0.255
00:55:59.964:1,0.85,-0.47
00:55:59.968:1,1.175,-0.76
00:55:59.972:1,1.395,-0.99
00:55:59.976:1,1.37,-1.065
00:55:59.980:1,1.02,-0.89
00:55:59.984:1,0.52,-0.545
00:55:59.988:1,0.17,-0.21
00:55:59.992:1,0.005,-0.045
00:55:59.996:1,-0.075,0.025
00:56:00.000:1,-0.125,0.07
00:56:00.004:1,-0.165,0.11
00:56:00.008:1,-0.205,0.115
00:56:00.012:1,-0.24,0.12
00:56:00.016:1,-0.265,0.115
00:56:00.020:1,-0.28,0.11
00:56:00.024:1,-0.295,0.075
00:56:00.028:1,-0.3,0.045
00:56:00.032:1,-0.3,0.045
00:56:00.036:1,-0.28,0.025
00:56:00.040:1,-0.29,0.03
00:56:00.044:1,-0.3,0.03
00:56:00.048:1,-0.32,0.03
00:56:00.052:1,-0.32,0.015
00:56:00.056:1,-0.32,0.0
00:56:00.060:1,-0.3,0.005
00:56:00.064:1,-0.33,0.0
00:56:00.068:1,-0.35,0.01
00:56:00.072:1,-0.35,-0.025
00:56:00.076:1,-0.355,0.0
00:56:00.080:1,-0.36,-0.01
00:56:00.084:1,-0.355,-0.01
00:56:00.088:1,-0.36,-0.02
00:56:00.092:1,-0.36,-0.015
00:56:00.096:1,-0.33,-0.025
00:56:00.100:1,-0.345,-0.015
00:56:00.104:1,-0.375,-0.05
00:56:00.108:1,-0.405,-0.025
00:56:00.112:1,-0.38,-0.01
00:56:00.116:1,-0.38,-0.045
00:56:00.120:1,-0.34,-0.005
00:56:00.124:1,-0.375,-0.01
00:56:00.128:1,-0.41,-0.01
00:56:00.132:1,-0.445,0.0
00:56:00.136:1,-0.4,-0.035
00:56:00.140:1,-0.4,-0.03
00:56:00.144:1,-0.395,-0.035
00:56:00.148:1,-0.38,-0.035
00:56:00.152:1,-0.375,-0.035
00:56:00.156:1,-0.39,-0.015
00:56:00.160:1,-0.385,-0.025
00:56:00.164:1,-0.375,-0.025
00:56:00.168:1,-0.355,-0.045
00:56:00.172:1,-0.345,-0.04
00:56:00.176:1,-0.34,-0.055
00:56:00.180:1,-0.32,-0.04
00:56:00.184:1,-0.3,-0.06
00:56:00.188:1,-0.3,-0.06
00:56:00.192:1,-0.27,-0.045
00:56:00.196:1,-0.275,-0.04
00:56:00.200:1,-0.26,-0.055
00:56:00.204:1,-0.255,-0.075
00:56:00.208:1,-0.25,-0.055
00:56:00.212:1,-0.225,-0.065
00:56:00.216:1,-0.24,-0.055
00:56:00.220:1,-0.19,-0.06
00:56:00.224:1,-0.125,-0.05
00:56:00.228:1,-0.135,-0.08
00:56:00.232:1,-0.16,-0.08
00:56:00.236:1,-0.14,-0.06
00:56:00.240:1,-0.15,-0.055
00:56:00.244:1,-0.14,-0.03
00:56:00.248:1,-0.11,-0.03
00:56:00.252:1,-0.115,-0.055
00:56:00.256:1,-0.12,-0.04
00:56:00.260:1,-0.13,-0.02
00:56:00.264:1,-0.12,-0.045
00:56:00.268:1,-0.11,-0.035
00:56:00.272:1,-0.12,-0.03
00:56:00.276:1,-0.13,-0.04
00:56:00.280:1,-0.125,-0.03
00:56:00.284:1,-0.105,-0.02
00:56:00.288:1,-0.1,-0.01
00:56:00.292:1,-0.11,-0.02
00:56:00.296:1,-0.125,-0.05
00:56:00.300:1,-0.105,-0.04
00:56:00.304:1,-0.13,-0.01
00:56:00.308:1,-0.13,-0.005
00:56:00.312:1,-0.12,-0.01
00:56:00.316:1,-0.065,0.0
00:56:00.320:1,-0.07,-0.01
00:56:00.324:1,-0.105,0.0
00:56:00.328:1,-0.085,-0.015
00:56:00.332:1,-0.07,0.0
00:56:00.336:1,-0.045,0.0
00:56:00.340:1,-0.035,0.0
00:56:00.344:1,-0.05,0.01
00:56:00.348:1,-0.035,0.015
00:56:00.352:1,0.0,0.025
00:56:00.356:1,0.03,0.035
00:56:00.360:1,0.055,0.07
00:56:00.364:1,0.095,0.06
00:56:00.368:1,0.13,0.06
00:56:00.372:1,0.17,0.075
00:56:00.376:1,0.19,0.09
00:56:00.380:1,0.18,0.09
00:56:00.384:1,0.15,0.055
00:56:00.388:1,0.105,0.035
00:56:00.392:1,0.07,0.0
00:56:00.396:1,0.055,-0.025
00:56:00.400:1,0.005,-0.03
00:56:00.404:1,-0.06,-0.01
00:56:00.408:1,-0.125,0.0
00:56:00.412:1,-0.165,-0.005
00:56:00.416:1,-0.225,0.03
00:56:00.420:1,-0.25,0.025
00:56:00.424:1,-0.225,0.015
00:56:00.428:1,-0.22,0.02
00:56:00.432:1,-0.215,0.01
00:56:00.436:1,-0.195,0.015
00:56:00.440:1,-0.18,0.02
00:56:00.444:1,-0.18,0.025
00:56:00.448:1,-0.18,0.02
00:56:00.452:1,-0.19,0.015
00:56:00.456:1,-0.175,0.025
00:56:00.460:1,-0.175,0.03
00:56:00.464:1,-0.18,0.0
00:56:00.468:1,-0.185,0.01
00:56:00.472:1,-0.15,0.005
00:56:00.476:1,-0.175,0.015
00:56:00.480:1,-0.16,0.0
00:56:00.484:1,-0.165,0.0
00:56:00.488:1,-0.185,0.005
00:56:00.492:1,-0.18,0.015
00:56:00.496:1,-0.18,0.0
00:56:00.500:1,-0.175,-0.005
00:56:00.504:1,-0.185,0.01
00:56:00.508:1,-0.17,0.025
00:56:00.512:1,-0.16,0.03
00:56:00.516:1,-0.13,0.015
00:56:00.520:1,-0.135,0.0
00:56:00.524:1,-0.12,0.005
00:56:00.528:1,-0.08,0.0
00:56:00.532:1,0.0,-0.005
00:56:00.536:1,0.12,0.0
00:56:00.540:1,0.24,0.01
00:56:00.544:1,0.31,-0.005
00:56:00.548:1,0.37,-0.045
00:56:00.552:1,0.4,-0.075
00:56:00.556:1,0.42,-0.04
00:56:00.560:1,0.425,-0.05
00:56:00.564:1,0.425,-0.1
00:56:00.568:1,0.44,-0.21
00:56:00.572:1,0.61,-0.35
00:56:00.576:1,0.89,-0.57
00:56:00.580:1,1.205,-0.82
00:56:00.584:1,1.46,-1.02
00:56:00.588:1,1.45,-1.09
00:56:00.592:1,1.11,-0.87
00:56:00.596:1,0.545,-0.495
00:56:00.600:1,0.155,-0.17
00:56:00.604:1,-0.05,-0.02
00:56:00.608:1,-0.135,0.09
00:56:00.612:1,-0.175,0.165
00:56:00.616:1,-0.185,0.21
00:56:00.620:1,-0.22,0.22
00:56:00.624:1,-0.265,0.23
00:56:00.628:1,-0.28,0.195
00:56:00.632:1,-0.32,0.155
00:56:00.636:1,-0.31,0.15
00:56:00.640:1,-0.315,0.155
00:56:00.644:1,-0.315,0.165
00:56:00.648:1,-0.295,0.15
00:56:00.652:1,-0.31,0.18
00:56:00.656:1,-0.33,0.15
00:56:00.660:1,-0.31,0.165
00:56:00.664:1,-0.29,0.15
00:56:00.668:1,-0.315,0.165
00:56:00.672:1,-0.33,0.15
00:56:00.676:1,-0.33,0.14
00:56:00.680:1,-0.325,0.145
00:56:00.684:1,-0.31,0.145
00:56:00.688:1,-0.295,0.165
00:56:00.692:1,-0.31,0.16
00:56:00.696:1,-0.34,0.14
00:56:00.700:1,-0.355,0.14
00:56:00.704:1,-0.37,0.12
00:56:00.708:1,-0.375,0.13
00:56:00.712:1,-0.375,0.13
00:56:00.716:1,-0.37,0.13
00:56:00.720:1,-0.355,0.09
00:56:00.724:1,-0.355,0.1
00:56:00.728:1,-0.375,0.11
00:56:00.732:1,-0.355,0.105
00:56:00.736:1,-0.34,0.11
00:56:00.740:1,-0.34,0.13
00:56:00.744:1,-0.36,0.125
00:56:00.748:1,-0.39,0.125
00:56:00.752:1,-0.375,0.11
00:56:00.756:1,-0.36,0.11
00:56:00.760:1,-0.325,0.11
00:56:00.764:1,-0.32,0.13
00:56:00.768:1,-0.315,0.14
00:56:00.772:1,-0.32,0.135
00:56:00.776:1,-0.33,0.115
00:56:00.780:1,-0.315,0.1
00:56:00.784:1,-0.285,0.09
00:56:00.788:1,-0.28,0.11
00:56:00.792:1,-0.31,0.085
00:56:00.796:1,-0.305,0.085
00:56:00.800:1,-0.275,0.075
00:56:00.804:1,-0.27,0.065
00:56:00.808:1,-0.25,0.09
00:56:00.812:1,-0.24,0.075
00:56:00.816:1,-0.2,0.055
00:56:00.820:1,-0.185,0.055
00:56:00.824:1,-0.165,0.045
00:56:00.828:1,-0.155,0.035
00:56:00.832:1,-0.125,0.04
00:56:00.836:1,-0.125,0.045
00:56:00.840:1,-0.135,0.06
00:56:00.844:1,-0.13,0.06
00:56:00.848:1,-0.1,0.05
00:56:00.852:1,-0.07,0.075
00:56:00.856:1,-0.065,0.06
00:56:00.860:1,-0.065,0.07
00:56:00.864:1,-0.06,0.095
00:56:00.868:1,-0.035,0.08
00:56:00.872:1,-0.045,0.08
00:56:00.876:1,-0.06,0.1
00:56:00.880:1,-0.03,0.095
00:56:00.884:1,-0.03,0.095
00:56:00.888:1,-0.045,0.1
00:56:00.892:1,-0.06,0.09
00:56:00.896:1,-0.085,0.11
00:56:00.900:1,-0.065,0.115
00:56:00.904:1,-0.045,0.095
00:56:00.908:1,-0.03,0.105
00:56:00.912:1,-0.06,0.11
00:56:00.916:1,-0.045,0.11
00:56:00.920:1,-0.04,0.09
00:56:00.924:1,-0.03,0.115
00:56:00.928:1,-0.04,0.1
00:56:00.932:1,-0.055,0.09
00:56:00.936:1,-0.03,0.08
00:56:00.940:1,-0.045,0.095
00:56:00.944:1,-0.07,0.105
00:56:00.948:1,-0.03,0.115
00:56:00.952:1,0.01,0.09
00:56:00.956:1,0.025,0.105
00:56:00.960:1,0.01,0.095
00:56:00.964:1,0.01,0.11
00:56:00.968:1,0.06,0.12
00:56:00.972:1,0.1,0.155
00:56:00.976:1,0.145,0.155
00:56:00.980:1,0.165,0.175
00:56:00.984:1,0.18,0.165
00:56:00.988:1,0.21,0.18
00:56:00.992:1,0.235,0.175
00:56:00.996:1,0.265,0.185
00:56:01.000:1,0.26,0.205
00:56:01.004:1,0.235,0.17
00:56:01.008:1,0.225,0.14
00:56:01.012:1,0.19,0.11
00:56:01.016:1,0.155,0.08
00:56:01.020:1,0.105,0.065
00:56:01.024:1,0.07,0.055
00:56:01.028:1,0.01,0.075
00:56:01.032:1,-0.05,0.08
00:56:01.036:1,-0.11,0.105
00:56:01.040:1,-0.125,0.095
00:56:01.044:1,-0.11,0.095
00:56:01.048:1,-0.105,0.09
00:56:01.052:1,-0.125,0.11
00:56:01.056:1,-0.17,0.095
00:56:01.060:1,-0.185,0.06
00:56:01.064:1,-0.14,0.07
00:56:01.068:1,-0.105,0.06
00:56:01.072:1,-0.04,0.055
00:56:01.076:1,-0.07,0.065
00:56:01.080:1,-0.12,0.085
00:56:01.084:1,-0.115,0.085
00:56:01.088:1,-0.125,0.075
00:56:01.092:1,-0.125,0.07
00:56:01.096:1,-0.14,0.07
00:56:01.100:1,-0.095,0.05
00:56:01.104:1,-0.09,0.055
00:56:01.108:1,-0.11,0.05
00:56:01.112:1,-0.1,0.05
00:56:01.116:1,-0.105,0.045
00:56:01.120:1,-0.12,0.025
00:56:01.124:1,-0.145,0.035
00:56:01.128:1,-0.15,0.035
00:56:01.132:1,-0.14,0.02
00:56:01.136:1,-0.15,0.01
00:56:01.140:1,-0.13,0.015
00:56:01.144:1,-0.105,0.015
00:56:01.148:1,-0.03,0.025
00:56:01.152:1,0.055,0.035
00:56:01.156:1,0.145,0.035
00:56:01.160:1,0.195,0.005
00:56:01.164:1,0.245,-0.025
00:56:01.168:1,0.325,-0.065
00:56:01.172:1,0.365,-0.075
00:56:01.176:1,0.36,-0.035
00:56:01.180:1,0.315,-0.005
00:56:01.184:1,0.27,-0.07
00:56:01.188:1,0.305,-0.18
00:56:01.192:1,0.48,-0.31
00:56:01.196:1,0.79,-0.53
00:56:01.200:1,1.15,-0.82
00:56:01.204:1,1.41,-1.02
00:56:01.208:1,1.425,-1.105
00:56:01.212:1,1.1,-0.895
00:56:01.216:1,0.615,-0.52
00:56:01.220:1,0.17,-0.185
00:56:01.224:1,-0.03,0.025
00:56:01.228:1,-0.14,0.13
00:56:01.232:1,-0.2,0.18
00:56:01.236:1,-0.225,0.18
00:56:01.240:1,-0.23,0.195
00:56:01.244:1,-0.26,0.19
00:56:01.248:1,-0.295,0.18
00:56:01.252:1,-0.285,0.16
00:56:01.256:1,-0.295,0.155
00:56:01.260:1,-0.305,0.115
00:56:01.264:1,-0.29,0.13
00:56:01.268:1,-0.3,0.115
00:56:01.272:1,-0.32,0.125
00:56:01.276:1,-0.325,0.12
00:56:01.280:1,-0.32,0.13
00:56:01.284:1,-0.305,0.115
00:56:01.288:1,-0.29,0.13
00:56:01.292:1,-0.3,0.13
00:56:01.296:1,-0.31,0.11
00:56:01.300:1,-0.31,0.13
00:56:01.304:1,-0.34,0.135
00:56:01.308:1,-0.34,0.125
00:56:01.312:1,-0.35,0.11
00:56:01.316:1,-0.35,0.09
00:56:01.320:1,-0.355,0.125
00:56:01.324:1,-0.355,0.12
00:56:01.328:1,-0.335,0.1
00:56:01.332:1,-0.35,0.07
00:56:01.336:1,-0.37,0.08
00:56:01.340:1,-0.375,0.075
00:56:01.344:1,-0.42,0.075
00:56:01.348:1,-0.415,0.05
00:56:01.352:1,-0.395,0.07
00:56:01.356:1,-0.36,0.07
00:56:01.360:1,-0.36,0.06
00:56:01.364:1,-0.37,0.07
00:56:01.368:1,-0.4,0.065
00:56:01.372:1,-0.385,0.05
00:56:01.376:1,-0.38,0.07
00:56:01.380:1,-0.37,0.065
00:56:01.384:1,-0.365,0.075
00:56:01.388:1,-0.36,0.08
00:56:01.392:1,-0.33,0.065
00:56:01.396:1,-0.32,0.075
00:56:01.400:1,-0.305,0.07
00:56:01.404:1,-0.295,0.08
00:56:01.408:1,-0.275,0.05
00:56:01.412:1,-0.275,0.065
00:56:01.416:1,-0.295,0.025
00:56:01.420:1,-0.305,0.03
00:56:01.424:1,-0.3,0.03
00:56:01.428:1,-0.29,0.025
00:56:01.432:1,-0.28,0.04
00:56:01.436:1,-0.275,0.02
00:56:01.440:1,-0.245,0.01
00:56:01.444:1,-0.245,0.015
00:56:01.448:1,-0.21,-0.01
00:56:01.452:1,-0.19,0.005
00:56:01.456:1,-0.18,0.01
00:56:01.460:1,-0.18,0.005
00:56:01.464:1,-0.19,-0.005
00:56:01.468:1,-0.17,0.005
00:56:01.472:1,-0.15,0.025
00:56:01.476:1,-0.11,0.02
00:56:01.480:1,-0.1,0.04
00:56:01.484:1,-0.095,0.04
00:56:01.488:1,-0.075,0.02
00:56:01.492:1,-0.07,0.055
00:56:01.496:1,-0.045,0.07
00:56:01.500:1,-0.055,0.05
00:56:01.504:1,-0.035,0.055
00:56:01.508:1,-0.025,0.065
00:56:01.512:1,-0.02,0.065
00:56:01.516:1,-0.02,0.075
00:56:01.520:1,-0.045,0.065
00:56:01.524:1,-0.04,0.07
00:56:01.528:1,-0.08,0.09
00:56:01.532:1,-0.095,0.08
00:56:01.536:1,-0.11,0.045
00:56:01.540:1,-0.04,0.06
00:56:01.544:1,-0.04,0.08
00:56:01.548:1,-0.07,0.05
00:56:01.552:1,-0.1,0.055
00:56:01.556:1,-0.1,0.075
00:56:01.560:1,-0.045,0.065
00:56:01.564:1,0.01,0.095
00:56:01.568:1,0.01,0.14
00:56:01.572:1,0.065,0.095
00:56:01.576:1,0.105,0.11
00:56:01.580:1,0.15,0.115
00:56:01.584:1,0.195,0.12
00:56:01.588:1,0.24,0.135
00:56:01.592:1,0.265,0.16
00:56:01.596:1,0.25,0.155
00:56:01.600:1,0.22,0.165
00:56:01.604:1,0.195,0.135
00:56:01.608:1,0.135,0.095
00:56:01.612:1,0.095,0.09
00:56:01.616:1,0.055,0.085
00:56:01.620:1,0.005,0.075
00:56:01.624:1,-0.03,0.075
00:56:01.628:1,-0.085,0.06
00:56:01.632:1,-0.11,0.075
00:56:01.636:1,-0.14,0.095
00:56:01.640:1,-0.155,0.08
00:56:01.644:1,-0.185,0.075
00:56:01.648:1,-0.2,0.06
00:56:01.652:1,-0.225,0.03
00:56:01.656:1,-0.185,0.03
00:56:01.660:1,-0.14,0.05
00:56:01.664:1,-0.12,0.045
00:56:01.668:1,-0.125,0.04
00:56:01.672:1,-0.145,0.02
00:56:01.676:1,-0.17,0.015
00:56:01.680:1,-0.175,0.035
00:56:01.684:1,-0.175,0.045
00:56:01.688:1,-0.145,0.055
00:56:01.692:1,-0.14,0.045
00:56:01.696:1,-0.155,0.06
00:56:01.700:1,-0.17,0.045
00:56:01.704:1,-0.16,0.03
00:56:01.708:1,-0.125,0.045
00:56:01.712:1,-0.115,0.025
00:56:01.716:1,-0.1,0.03
00:56:01.720:1,-0.08,0.02
00:56:01.724:1,-0.1,0.015
00:56:01.728:1,-0.145,0.025
00:56:01.732:1,-0.15,0.025
00:56:01.736:1,-0.125,0.015
00:56:01.740:1,-0.105,0.01
00:56:01.744:1,-0.09,0.01
00:56:01.748:1,-0.085,0.01
00:56:01.752:1,-0.005,-0.005
00:56:01.756:1,0.105,-0.005
00:56:01.760:1,0.245,-0.03
00:56:01.764:1,0.315,-0.07
00:56:01.768:1,0.365,-0.08
00:56:01.772:1,0.405,-0.075
00:56:01.776:1,0.37,-0.02
00:56:01.780:1,0.295,-0.035
00:56:01.784:1,0.255,-0.085
00:56:01.788:1,0.35,-0.195
00:56:01.792:1,0.595,-0.36
00:56:01.796:1,0.97,-0.63
00:56:01.800:1,1.315,-0.91
00:56:01.804:1,1.43,-1.05
00:56:01.808:1,1.23,-0.99
00:56:01.812:1,0.735,-0.685
00:56:01.816:1,0.285,-0.3
00:56:01.820:1,0.035,-0.04
00:56:01.824:1,-0.1,0.05
00:56:01.828:1,-0.14,0.15
00:56:01.832:1,-0.175,0.175
00:56:01.836:1,-0.185,0.155
00:56:01.840:1,-0.24,0.15
00:56:01.844:1,-0.27,0.135
00:56:01.848:1,-0.305,0.115
00:56:01.852:1,-0.345,0.105
00:56:01.856:1,-0.34,0.075
00:56:01.860:1,-0.315,0.055
00:56:01.864:1,-0.32,0.05
00:56:01.868:1,-0.33,0.055
00:56:01.872:1,-0.335,0.05
00:56:01.876:1,-0.36,0.075
00:56:01.880:1,-0.33,0.035
00:56:01.884:1,-0.32,0.05
00:56:01.888:1,-0.375,0.03
00:56:01.892:1,-0.375,0.035
00:56:01.896:1,-0.385,0.015
00:56:01.900:1,-0.325,0.045
00:56:01.904:1,-0.33,0.015
00:56:01.908:1,-0.325,0.0
00:56:01.912:1,-0.305,0.04
00:56:01.916:1,-0.31,0.035
00:56:01.920:1,-0.345,0.03
00:56:01.924:1,-0.32,0.025
00:56:01.928:1,-0.31,0.015
00:56:01.932:1,-0.33,0.005
00:56:01.936:1,-0.37,0.005
00:56:01.940:1,-0.395,0.005
00:56:01.944:1,-0.375,0.0
00:56:01.948:1,-0.35,0.0
00:56:01.952:1,-0.385,0.0
00:56:01.956:1,-0.415,0.0
00:56:01.960:1,-0.41,0.0
00:56:01.964:1,-0.395,0.0
00:56:01.968:1,-0.375,-0.02
00:56:01.972:1,-0.355,-0.02
00:56:01.976:1,-0.37,-0.01
00:56:01.980:1,-0.375,-0.03
00:56:01.984:1,-0.37,-0.03
00:56:01.988:1,-0.365,-0.01
00:56:01.992:1,-0.36,-0.015
00:56:01.996:1,-0.34,-0.015
00:56:02.000:1,-0.315,-0.015
00:56:02.004:1,-0.31,0.005
00:56:02.008:1,-0.31,-0.01
00:56:02.012:1,-0.305,0.0
00:56:02.016:1,-0.235,-0.025
00:56:02.020:1,-0.22,-0.035
00:56:02.024:1,-0.225,-0.045
00:56:02.028:1,-0.265,-0.02
00:56:02.032:1,-0.285,-0.045
00:56:02.036:1,-0.235,-0.05
00:56:02.040:1,-0.22,-0.04
00:56:02.044:1,-0.215,-0.05
00:56:02.048:1,-0.22,-0.045
00:56:02.052:1,-0.235,-0.045
00:56:02.056:1,-0.215,-0.055
00:56:02.060:1,-0.21,-0.07
00:56:02.064:1,-0.21,-0.06
00:56:02.068:1,-0.205,-0.08
00:56:02.072:1,-0.21,-0.06
00:56:02.076:1,-0.19,-0.07
00:56:02.080:1,-0.15,-0.08
00:56:02.084:1,-0.15,-0.045
00:56:02.088:1,-0.155,-0.055
00:56:02.092:1,-0.16,-0.04
00:56:02.096:1,-0.185,-0.06
00:56:02.100:1,-0.18,-0.045
00:56:02.104:1,-0.165,-0.05
00:56:02.108:1,-0.135,-0.02
00:56:02.112:1,-0.15,-0.055
00:56:02.116:1,-0.15,-0.05
00:56:02.120:1,-0.145,-0.015
00:56:02.124:1,-0.165,-0.02
00:56:02.128:1,-0.145,-0.03
00:56:02.132:1,-0.14,-0.03
00:56:02.136:1,-0.15,-0.035
00:56:02.140:1,-0.12,-0.035
00:56:02.144:1,-0.145,-0.04
00:56:02.148:1,-0.19,-0.025
00:56:02.152:1,-0.205,-0.04
00:56:02.156:1,-0.21,-0.03
00:56:02.160:1,-0.17,-0.025
00:56:02.164:1,-0.165,-0.005
00:56:02.168:1,-0.15,-0.025
00:56:02.172:1,-0.135,-0.015
00:56:02.176:1,-0.14,-0.025
00:56:02.180:1,-0.07,-0.01
00:56:02.184:1,-0.015,0.005
00:56:02.188:1,0.035,0.01
00:56:02.192:1,0.115,0.015
00:56:02.196:1,0.14,0.025
00:56:02.200:1,0.16,0.045
00:56:02.204:1,0.16,0.055
00:56:02.208:1,0.155,0.035
00:56:02.212:1,0.095,0.0
00:56:02.216:1,0.025,-0.03
00:56:02.220:1,0.03,-0.05
00:56:02.224:1,-0.025,-0.055
00:56:02.228:1,-0.055,-0.04
00:56:02.232:1,-0.145,-0.03
00:56:02.236:1,-0.195,-0.005
00:56:02.240:1,-0.32,-0.015
00:56:02.244:1,-0.355,-0.02
00:56:02.248:1,-0.305,-0.01
00:56:02.252:1,-0.31,-0.015
00:56:02.256:1,-0.31,-0.03
00:56:02.260:1,-0.27,-0.04
00:56:02.264:1,-0.26,-0.035
00:56:02.268:1,-0.235,-0.065
00:56:02.272:1,-0.245,-0.06
00:56:02.276:1,-0.25,-0.07
00:56:02.280:1,-0.255,-0.05
00:56:02.284:1,-0.25,-0.06
00:56:02.288:1,-0.25,-0.07
00:56:02.292:1,-0.255,-0.06
00:56:02.296:1,-0.26,-0.045
00:56:02.300:1,-0.245,-0.05
00:56:02.304:1,-0.23,-0.055
00:56:02.308:1,-0.21,-0.07
00:56:02.312:1,-0.165,-0.07
00:56:02.316:1,-0.165,-0.045
00:56:02.320:1,-0.23,-0.045
00:56:02.324:1,-0.26,-0.075
00:56:02.328:1,-0.235,-0.07
00:56:02.332:1,-0.205,-0.05
00:56:02.336:1,-0.16,-0.06
00:56:02.340:1,-0.16,-0.055
00:56:02.344:1,-0.195,-0.07
00:56:02.348:1,-0.19,-0.065
00:56:02.352:1,-0.15,-0.075
00:56:02.356:1,-0.06,-0.075
00:56:02.360:1,0.025,-0.085
00:56:02.364:1,0.12,-0.065
00:56:02.368:1,0.195,-0.115
00:56:02.372:1,0.245,-0.185
00:56:02.376:1,0.315,-0.185
00:56:02.380:1,0.37,-0.155
00:56:02.384:1,0.38,-0.16
00:56:02.388:1,0.33,-0.19
00:56:02.392:1,0.3,-0.29
00:56:02.396:1,0.475,-0.415
00:56:02.400:1,0.795,-0.64
00:56:02.404:1,1.14,-0.915
00:56:02.408:1,1.34,-1.12
00:56:02.412:1,1.265,-1.15
00:56:02.416:1,0.92,-0.935
00:56:02.420:1,0.42,-0.545
00:56:02.424:1,0.075,-0.24
00:56:02.428:1,-0.08,-0.09
00:56:02.432:1,-0.18,0.0
00:56:02.436:1,-0.24,0.065
00:56:02.440:1,-0.245,0.12
00:56:02.444:1,-0.29,0.115
00:56:02.448:1,-0.325,0.105
00:56:02.452:1,-0.355,0.095
00:56:02.456:1,-0.385,0.08
00:56:02.460:1,-0.4,0.065
00:56:02.464:1,-0.41,0.035
00:56:02.468:1,-0.39,0.035
00:56:02.472:1,-0.38,0.035
00:56:02.476:1,-0.39,0.015
00:56:02.480:1,-0.42,0.03
00:56:02.484:1,-0.42,0.02
00:56:02.488:1,-0.375,0.01
00:56:02.492:1,-0.34,0.0
00:56:02.496:1,-0.4,0.015
00:56:02.500:1,-0.445,0.01
00:56:02.504:1,-0.5,0.0
00:56:02.508:1,-0.5,0.0
00:56:02.512:1,-0.485,0.0
00:56:02.516:1,-0.455,0.02
00:56:02.520:1,-0.465,0.03
00:56:02.524:1,-0.45,0.025
00:56:02.528:1,-0.445,0.04
00:56:02.532:1,-0.445,0.03
00:56:02.536:1,-0.46,0.035
00:56:02.540:1,-0.46,0.04
00:56:02.544:1,-0.435,0.035
00:56:02.548:1,-0.44,0.025
00:56:02.552:1,-0.47,0.05
00:56:02.556:1,-0.46,0.055
00:56:02.560:1,-0.45,0.055
00:56:02.564:1,-0.455,0.055
00:56:02.568:1,-0.435,0.05
00:56:02.572:1,-0.445,0.05
00:56:02.576:1,-0.4,0.055
00:56:02.580:1,-0.37,0.035
00:56:02.584:1,-0.4,0.05
00:56:02.588:1,-0.455,0.03
00:56:02.592:1,-0.48,0.035
00:56:02.596:1,-0.44,0.035
00:56:02.600:1,-0.405,0.055
00:56:02.604:1,-0.42,0.02
00:56:02.608:1,-0.415,0.035
00:56:02.612:1,-0.4,0.055
00:56:02.616:1,-0.38,0.03
00:56:02.620:1,-0.35,0.04
00:56:02.624:1,-0.295,0.035
00:56:02.628:1,-0.285,0.025
00:56:02.632:1,-0.29,0.02
00:56:02.636:1,-0.285,0.02
00:56:02.640:1,-0.285,0.02
00:56:02.644:1,-0.27,0.02
00:56:02.648:1,-0.25,0.015
00:56:02.652:1,-0.25,0.025
00:56:02.656:1,-0.235,0.0
00:56:02.660:1,-0.25,-0.005
00:56:02.664:1,-0.275,0.015
00:56:02.668:1,-0.255,0.04
00:56:02.672:1,-0.235,0.035
00:56:02.676:1,-0.195,0.025
00:56:02.680:1,-0.155,0.02
00:56:02.684:1,-0.18,0.045
00:56:02.688:1,-0.185,0.055
00:56:02.692:1,-0.135,0.055
00:56:02.696:1,-0.11,0.035
00:56:02.700:1,-0.115,0.055
00:56:02.704:1,-0.185,0.035
00:56:02.708:1,-0.235,0.035
00:56:02.712:1,-0.25,0.04
00:56:02.716:1,-0.22,0.07
00:56:02.720:1,-0.195,0.065
00:56:02.724:1,-0.18,0.09
00:56:02.728:1,-0.205,0.06
00:56:02.732:1,-0.185,0.07
00:56:02.736:1,-0.145,0.09
00:56:02.740:1,-0.1,0.095
00:56:02.744:1,-0.1,0.12
00:56:02.748:1,-0.125,0.1
00:56:02.752:1,-0.11,0.115
00:56:02.756:1,-0.15,0.085
00:56:02.760:1,-0.13,0.11
00:56:02.764:1,-0.11,0.11
00:56:02.768:1,-0.095,0.105
00:56:02.772:1,-0.145,0.095
00:56:02.776:1,-0.21,0.09
00:56:02.780:1,-0.225,0.085
00:56:02.784:1,-0.19,0.08
00:56:02.788:1,-0.18,0.075
00:56:02.792:1,-0.155,0.08
00:56:02.796:1,-0.11,0.095
00:56:02.800:1,-0.055,0.09
00:56:02.804:1,0.02,0.105
00:56:02.808:1,0.04,0.11
00:56:02.812:1,0.055,0.15
00:56:02.816:1,0.035,0.17
00:56:02.820:1,0.095,0.165
00:56:02.824:1,0.165,0.175
00:56:02.828:1,0.175,0.175
00:56:02.832:1,0.18,0.175
00:56:02.836:1,0.145,0.12
00:56:02.840:1,0.045,0.095
00:56:02.844:1,0.02,0.08
00:56:02.848:1,-0.005,0.095
00:56:02.852:1,-0.06,0.095
00:56:02.856:1,-0.135,0.09
00:56:02.860:1,-0.18,0.115
00:56:02.864:1,-0.205,0.085
00:56:02.868:1,-0.215,0.12
00:56:02.872:1,-0.22,0.11
00:56:02.876:1,-0.195,0.11
00:56:02.880:1,-0.19,0.1
00:56:02.884:1,-0.205,0.055
00:56:02.888:1,-0.275,0.055
00:56:02.892:1,-0.32,0.075
00:56:02.896:1,-0.32,0.06
00:56:02.900:1,-0.285,0.065
00:56:02.904:1,-0.23,0.085
00:56:02.908:1,-0.21,0.06
00:56:02.912:1,-0.2,0.06
00:56:02.916:1,-0.23,0.06
00:56:02.920:1,-0.23,0.075
00:56:02.924:1,-0.205,0.065
00:56:02.928:1,-0.145,0.065
00:56:02.932:1,-0.17,0.065
00:56:02.936:1,-0.19,0.05
00:56:02.940:1,-0.19,0.08
00:56:02.944:1,-0.2,0.07
00:56:02.948:1,-0.195,0.06
00:56:02.952:1,-0.195,0.045
00:56:02.956:1,-0.16,0.06
00:56:02.960:1,-0.18,0.055
00:56:02.964:1,-0.16,0.055
00:56:02.968:1,-0.15,0.085
00:56:02.972:1,-0.115,0.065
00:56:02.976:1,-0.085,0.06
00:56:02.980:1,-0.08,0.05
00:56:02.984:1,-0.085,0.035
00:56:02.988:1,-0.01,0.03
00:56:02.992:1,0.07,0.005
00:56:02.996:1,0.18,-0.025
00:56:03.000:1,0.23,-0.055
00:56:03.004:1,0.285,-0.035
00:56:03.008:1,0.295,-0.01
00:56:03.012:1,0.3,-0.05
00:56:03.016:1,0.295,-0.145
00:56:03.020:1,0.385,-0.275
00:56:03.024:1,0.625,-0.45
00:56:03.028:1,0.94,-0.705
00:56:03.032:1,1.26,-0.95
00:56:03.036:1,1.39,-1.095
00:56:03.040:1,1.255,-1.005
00:56:03.044:1,0.83,-0.7
00:56:03.048:1,0.325,-0.28
00:56:03.052:1,0.02,-0.01
00:56:03.056:1,-0.155,0.125
00:56:03.060:1,-0.255,0.205
00:56:03.064:1,-0.27,0.22
00:56:03.068:1,-0.27,0.225
00:56:03.072:1,-0.3,0.18
00:56:03.076:1,-0.31,0.185
00:56:03.080:1,-0.33,0.205
00:56:03.084:1,-0.36,0.18
00:56:03.088:1,-0.375,0.15
00:56:03.092:1,-0.385,0.125
00:56:03.096:1,-0.375,0.12
00:56:03.100:1,-0.385,0.11
00:56:03.104:1,-0.4,0.085
00:56:03.108:1,-0.41,0.105
00:56:03.112:1,-0.41,0.1
00:56:03.116:1,-0.415,0.07
00:56:03.120:1,-0.415,0.09
00:56:03.124:1,-0.405,0.12
00:56:03.128:1,-0.375,0.115
00:56:03.132:1,-0.38,0.115
00:56:03.136:1,-0.385,0.11
00:56:03.140:1,-0.4,0.11
00:56:03.144:1,-0.425,0.1
00:56:03.148:1,-0.44,0.08
00:56:03.152:1,-0.465,0.1
00:56:03.156:1,-0.42,0.07
00:56:03.160:1,-0.4,0.065
00:56:03.164:1,-0.43,0.07
00:56:03.168:1,-0.44,0.08
00:56:03.172:1,-0.415,0.08
00:56:03.176:1,-0.415,0.065
00:56:03.180:1,-0.43,0.06
00:56:03.184:1,-0.42,0.085
00:56:03.188:1,-0.42,0.065
00:56:03.192:1,-0.43,0.055
00:56:03.196:1,-0.445,0.05
00:56:03.200:1,-0.445,0.05
00:56:03.204:1,-0.405,0.045
00:56:03.208:1,-0.41,0.045
00:56:03.212:1,-0.385,0.05
00:56:03.216:1,-0.395,0.04
00:56:03.220:1,-0.41,0.035
00:56:03.224:1,-0.425,0.04
00:56:03.228:1,-0.395,0.055
00:56:03.232:1,-0.33,0.025
00:56:03.236:1,-0.295,0.02
00:56:03.240:1,-0.31,0.01
00:56:03.244:1,-0.33,0.0
00:56:03.248:1,-0.36,0.005
00:56:03.252:1,-0.35,0.005
00:56:03.256:1,-0.375,0.005
00:56:03.260:1,-0.355,0.01
00:56:03.264:1,-0.28,0.015
00:56:03.268:1,-0.23,0.01
00:56:03.272:1,-0.25,0.01
00:56:03.276:1,-0.235,0.015
00:56:03.280:1,-0.23,0.02
00:56:03.284:1,-0.225,0.005
00:56:03.288:1,-0.235,0.02
00:56:03.292:1,-0.235,0.015
00:56:03.296:1,-0.2,0.01
00:56:03.300:1,-0.17,0.02
00:56:03.304:1,-0.155,0.02
00:56:03.308:1,-0.17,0.02
00:56:03.312:1,-0.17,0.015
00:56:03.316:1,-0.17,0.03
00:56:03.320:1,-0.19,0.005
00:56:03.324:1,-0.155,0.005
00:56:03.328:1,-0.13,0.025
00:56:03.332:1,-0.135,0.05
00:56:03.336:1,-0.125,0.04
00:56:03.340:1,-0.135,0.025
00:56:03.344:1,-0.175,0.005
00:56:03.348:1,-0.155,0.02
00:56:03.352:1,-0.145,0.02
00:56:03.356:1,-0.15,0.04
00:56:03.360:1,-0.145,0.06
00:56:03.364:1,-0.17,0.06
00:56:03.368:1,-0.145,0.06
00:56:03.372:1,-0.11,0.08
00:56:03.376:1,-0.075,0.07
00:56:03.380:1,-0.015,0.06
00:56:03.384:1,0.005,0.07
00:56:03.388:1,0.0,0.065
00:56:03.392:1,-0.06,0.06
00:56:03.396:1,-0.145,0.06
00:56:03.400:1,-0.13,0.1
00:56:03.404:1,-0.045,0.12
00:56:03.408:1,0.045,0.105
00:56:03.412:1,0.09,0.1
00:56:03.416:1,0.05,0.1
00:56:03.420:1,0.06,0.09
00:56:03.424:1,0.135,0.115
00:56:03.428:1,0.17,0.125
00:56:03.432:1,0.155,0.105
00:56:03.436:1,0.145,0.095
00:56:03.440:1,0.13,0.06
00:56:03.444:1,0.115,0.025
00:56:03.448:1,0.055,0.02
00:56:03.452:1,-0.095,0.025
00:56:03.456:1,-0.205,0.025
00:56:03.460:1,-0.255,0.02
00:56:03.464:1,-0.27,0.055
00:56:03.468:1,-0.27,0.06
00:56:03.472:1,-0.275,0.065
00:56:03.476:1,-0.265,0.085
00:56:03.480:1,-0.24,0.065
00:56:03.484:1,-0.245,0.05
00:56:03.488:1,-0.21,0.04
00:56:03.492:1,-0.195,0.03
00:56:03.496:1,-0.235,0.035
00:56:03.500:1,-0.25,0.005
00:56:03.504:1,-0.25,0.015
00:56:03.508:1,-0.2,0.01
00:56:03.512:1,-0.15,0.02
00:56:03.516:1,-0.12,0.005
00:56:03.520:1,-0.13,0.015
00:56:03.524:1,-0.19,0.01
00:56:03.528:1,-0.235,0.005
00:56:03.532:1,-0.23,-0.01
00:56:03.536:1,-0.215,0.0
00:56:03.540:1,-0.19,-0.02
00:56:03.544:1,-0.2,0.01
00:56:03.548:1,-0.22,0.015
00:56:03.552:1,-0.24,0.0
00:56:03.556:1,-0.26,0.0
00:56:03.560:1,-0.245,0.0
00:56:03.564:1,-0.215,-0.015
00:56:03.568:1,-0.155,0.0
00:56:03.572:1,-0.125,0.0
00:56:03.576:1,-0.135,-0.015
00:56:03.580:1,-0.115,-0.005
00:56:03.584:1,-0.035,-0.01
00:56:03.588:1,0.09,0.005
00:56:03.592:1,0.185,-0.01
00:56:03.596:1,0.225,-0.035
00:56:03.600:1,0.235,-0.065
00:56:03.604:1,0.27,-0.09
00:56:03.608:1,0.31,-0.09
00:56:03.612:1,0.28,-0.035
00:56:03.616:1,0.195,-0.07
00:56:03.620:1,0.26,-0.17
00:56:03.624:1,0.45,-0.31
00:56:03.628:1,0.695,-0.495
00:56:03.632:1,0.965,-0.81
00:56:03.636:1,1.24,-1.055
00:56:03.640:1,1.355,-1.12
00:56:03.644:1,1.14,-0.97
00:56:03.648:1,0.665,-0.605
00:56:03.652:1,0.205,-0.22
00:56:03.656:1,-0.035,0.02
00:56:03.660:1,-0.155,0.11
00:56:03.664:1,-0.205,0.17
00:56:03.668:1,-0.235,0.17
00:56:03.672:1,-0.3,0.165
00:56:03.676:1,-0.295,0.15
00:56:03.680:1,-0.29,0.15
00:56:03.684:1,-0.28,0.125
00:56:03.688:1,-0.285,0.095
00:56:03.692:1,-0.32,0.08
00:56:03.696:1,-0.32,0.085
00:56:03.700:1,-0.33,0.065
00:56:03.704:1,-0.315,0.075
00:56:03.708:1,-0.32,0.085
00:56:03.712:1,-0.3,0.07
00:56:03.716:1,-0.26,0.08
00:56:03.720:1,-0.26,0.06
00:56:03.724:1,-0.285,0.04
00:56:03.728:1,-0.34,0.045
00:56:03.732:1,-0.41,0.045
00:56:03.736:1,-0.46,0.02
00:56:03.740:1,-0.43,0.01
00:56:03.744:1,-0.365,0.035
00:56:03.748:1,-0.365,0.01
00:56:03.752:1,-0.44,0.005
00:56:03.756:1,-0.46,0.04
00:56:03.760:1,-0.475,0.0
00:56:03.764:1,-0.45,-0.015
00:56:03.768:1,-0.415,-0.005
00:56:03.772:1,-0.41,-0.015
00:56:03.776:1,-0.405,-0.015
00:56:03.780:1,-0.4,0.0
00:56:03.784:1,-0.37,-0.01
00:56:03.788:1,-0.32,-0.015
00:56:03.792:1,-0.32,-0.005
00:56:03.796:1,-0.38,-0.015
00:56:03.800:1,-0.435,-0.01
00:56:03.804:1,-0.435,-0.015
00:56:03.808:1,-0.43,-0.02
00:56:03.812:1,-0.395,-0.02
00:56:03.816:1,-0.38,0.0
00:56:03.820:1,-0.35,0.0
00:56:03.824:1,-0.355,-0.01
00:56:03.828:1,-0.345,-0.025
