Time,ECG1,ECG2
20:38:25.236,-0.335,-0.62
20:38:25.240,-0.325,-0.64
20:38:25.244,-0.33,-0.64
20:38:25.248,-0.34,-0.66
20:38:25.252,-0.335,-0.655
20:38:25.256,-0.345,-0.675
20:38:25.260,-0.34,-0.68
20:38:25.264,-0.35,-0.655
20:38:25.268,-0.345,-0.66
20:38:25.272,-0.35,-0.67
20:38:25.276,-0.32,-0.67
20:38:25.280,-0.325,-0.675
20:38:25.284,-0.33,-0.665
20:38:25.288,-0.33,-0.645
20:38:25.292,-0.335,-0.665
20:38:25.296,-0.335,-0.66
20:38:25.300,-0.32,-0.67
20:38:25.304,-0.3,-0.655
20:38:25.308,-0.31,-0.665
20:38:25.312,-0.295,-0.65
20:38:25.316,-0.3,-0.665
20:38:25.320,-0.3,-0.65
20:38:25.324,-0.315,-0.67
20:38:25.328,-0.315,-0.67
20:38:25.332,-0.315,-0.655
20:38:25.336,-0.335,-0.66
20:38:25.340,-0.31,-0.635
20:38:25.344,-0.32,-0.635
20:38:25.348,-0.33,-0.635
20:38:25.352,-0.335,-0.625
20:38:25.356,-0.32,-0.61
20:38:25.360,-0.32,-0.615
20:38:25.364,-0.32,-0.615
20:38:25.368,-0.34,-0.595
20:38:25.372,-0.33,-0.6
20:38:25.376,-0.31,-0.61
20:38:25.380,-0.32,-0.615
20:38:25.384,-0.325,-0.605
20:38:25.388,-0.315,-0.59
20:38:25.392,-0.33,-0.605
20:38:25.396,-0.31,-0.6
20:38:25.400,-0.33,-0.58
20:38:25.404,-0.32,-0.565
20:38:25.408,-0.31,-0.585
20:38:25.412,-0.3,-0.555
20:38:25.416,-0.285,-0.535
20:38:25.420,-0.3,-0.535
20:38:25.424,-0.29,-0.495
20:38:25.428,-0.285,-0.445
20:38:25.432,-0.29,-0.46
20:38:25.436,-0.305,-0.445
20:38:25.440,-0.305,-0.46
20:38:25.444,-0.32,-0.42
20:38:25.448,-0.32,-0.425
20:38:25.452,-0.31,-0.395
20:38:25.456,-0.3,-0.4
20:38:25.460,-0.285,-0.39
20:38:25.464,-0.29,-0.38
20:38:25.468,-0.325,-0.365
20:38:25.472,-0.31,-0.35
20:38:25.476,-0.325,-0.365
20:38:25.480,-0.315,-0.345
20:38:25.484,-0.31,-0.365
20:38:25.488,-0.31,-0.34
20:38:25.492,-0.33,-0.34
20:38:25.496,-0.315,-0.305
20:38:25.500,-0.305,-0.29
20:38:25.504,-0.315,-0.28
20:38:25.508,-0.3,-0.26
20:38:25.512,-0.305,-0.27
20:38:25.516,-0.33,-0.25
20:38:25.520,-0.31,-0.24
20:38:25.524,-0.3,-0.245
20:38:25.528,-0.315,-0.245
20:38:25.532,-0.28,-0.225
20:38:25.536,-0.29,-0.215
20:38:25.540,-0.28,-0.205
20:38:25.544,-0.26,-0.17
20:38:25.548,-0.265,-0.19
20:38:25.552,-0.24,-0.17
20:38:25.556,-0.24,-0.155
20:38:25.560,-0.245,-0.14
20:38:25.564,-0.245,-0.12
20:38:25.568,-0.235,-0.105
20:38:25.572,-0.24,-0.12
20:38:25.576,-0.24,-0.115
20:38:25.580,-0.22,-0.12
20:38:25.584,-0.225,-0.13
20:38:25.588,-0.255,-0.16
20:38:25.592,-0.26,-0.185
20:38:25.596,-0.31,-0.215
20:38:25.600,-0.34,-0.2
20:38:25.604,-0.34,-0.185
20:38:25.608,-0.365,-0.165
20:38:25.612,-0.37,-0.16
20:38:25.616,-0.39,-0.125
20:38:25.620,-0.375,-0.115
20:38:25.624,-0.38,-0.09
20:38:25.628,-0.365,-0.105
20:38:25.632,-0.36,-0.09
20:38:25.636,-0.36,-0.07
20:38:25.640,-0.36,-0.09
20:38:25.644,-0.365,-0.075
20:38:25.648,-0.35,-0.085
20:38:25.652,-0.335,-0.095
20:38:25.656,-0.335,-0.095
20:38:25.660,-0.34,-0.1
20:38:25.664,-0.35,-0.095
20:38:25.668,-0.34,-0.08
20:38:25.672,-0.33,-0.09
20:38:25.676,-0.36,-0.07
20:38:25.680,-0.35,-0.1
20:38:25.684,-0.335,-0.09
20:38:25.688,-0.36,-0.08
20:38:25.692,-0.34,-0.09
20:38:25.696,-0.335,-0.09
20:38:25.700,-0.3,-0.085
20:38:25.704,-0.245,-0.105
20:38:25.708,-0.16,-0.105
20:38:25.712,-0.07,-0.135
20:38:25.716,-0.01,-0.135
20:38:25.720,0.03,-0.125
20:38:25.724,0.06,-0.165
20:38:25.728,0.07,-0.2
20:38:25.732,0.08,-0.23
20:38:25.736,0.035,-0.225
20:38:25.740,0.005,-0.27
20:38:25.744,0.055,-0.35
20:38:25.748,0.24,-0.5
20:38:25.752,0.53,-0.715
20:38:25.756,0.85,-0.94
20:38:25.760,1.04,-1.14
20:38:25.764,1.055,-1.285
20:38:25.768,0.82,-1.205
20:38:25.772,0.375,-0.91
20:38:25.776,-0.055,-0.54
20:38:25.780,-0.28,-0.245
20:38:25.784,-0.39,-0.08
20:38:25.788,-0.435,0.0
20:38:25.792,-0.48,0.04
20:38:25.796,-0.49,0.065
20:38:25.800,-0.505,0.08
20:38:25.804,-0.51,0.055
20:38:25.808,-0.545,0.05
20:38:25.812,-0.55,0.055
20:38:25.816,-0.54,0.04
20:38:25.820,-0.56,0.03
20:38:25.824,-0.57,0.03
20:38:25.828,-0.58,0.02
20:38:25.832,-0.565,0.02
20:38:25.836,-0.58,0.015
20:38:25.840,-0.59,0.005
20:38:25.844,-0.57,0.01
20:38:25.848,-0.58,0.015
20:38:25.852,-0.575,0.0
20:38:25.856,-0.585,-0.005
20:38:25.860,-0.56,0.005
20:38:25.864,-0.57,0.015
20:38:25.868,-0.59,0.015
20:38:25.872,-0.565,0.015
20:38:25.876,-0.575,-0.005
20:38:25.880,-0.585,0.0
20:38:25.884,-0.585,0.015
20:38:25.888,-0.59,0.005
20:38:25.892,-0.57,0.005
20:38:25.896,-0.57,0.01
20:38:25.900,-0.575,0.0
20:38:25.904,-0.6,0.02
20:38:25.908,-0.58,0.01
20:38:25.912,-0.575,0.02
20:38:25.916,-0.585,0.005
20:38:25.920,-0.595,0.02
20:38:25.924,-0.605,0.025
20:38:25.928,-0.605,0.01
20:38:25.932,-0.625,0.005
20:38:25.936,-0.61,0.02
20:38:25.940,-0.59,0.01
20:38:25.944,-0.59,0.01
20:38:25.948,-0.595,0.0
20:38:25.952,-0.57,0.015
20:38:25.956,-0.575,0.0
20:38:25.960,-0.565,0.0
20:38:25.964,-0.55,0.015
20:38:25.968,-0.55,0.03
20:38:25.972,-0.565,0.03
20:38:25.976,-0.545,0.01
20:38:25.980,-0.55,0.035
20:38:25.984,-0.54,0.03
20:38:25.988,-0.525,0.02
20:38:25.992,-0.52,0.01
20:38:25.996,-0.52,0.015
20:38:26.000,-0.49,0.015
20:38:26.004,-0.5,-0.005
20:38:26.008,-0.51,0.01
20:38:26.012,-0.49,0.005
20:38:26.016,-0.48,0.005
20:38:26.020,-0.47,0.0
20:38:26.024,-0.485,-0.02
20:38:26.028,-0.475,0.0
20:38:26.032,-0.47,-0.01
20:38:26.036,-0.48,0.0
20:38:26.040,-0.465,-0.005
20:38:26.044,-0.44,-0.02
20:38:26.048,-0.46,-0.045
20:38:26.052,-0.445,-0.035
20:38:26.056,-0.43,-0.01
20:38:26.060,-0.435,-0.025
20:38:26.064,-0.43,-0.03
20:38:26.068,-0.43,-0.02
20:38:26.072,-0.425,-0.025
20:38:26.076,-0.425,-0.005
20:38:26.080,-0.405,0.0
20:38:26.084,-0.41,0.015
20:38:26.088,-0.435,-0.005
20:38:26.092,-0.41,0.0
20:38:26.096,-0.405,0.01
20:38:26.100,-0.39,0.015
20:38:26.104,-0.4,0.005
20:38:26.108,-0.385,0.005
20:38:26.112,-0.39,0.025
20:38:26.116,-0.37,0.015
20:38:26.120,-0.385,0.01
20:38:26.124,-0.39,0.0
20:38:26.128,-0.395,0.015
20:38:26.132,-0.385,0.02
20:38:26.136,-0.38,0.005
20:38:26.140,-0.4,0.03
20:38:26.144,-0.41,0.02
20:38:26.148,-0.41,0.02
20:38:26.152,-0.42,0.0
20:38:26.156,-0.43,0.015
20:38:26.160,-0.41,0.005
20:38:26.164,-0.43,0.03
20:38:26.168,-0.44,0.015
20:38:26.172,-0.425,0.015
20:38:26.176,-0.44,0.02
20:38:26.180,-0.44,-0.01
20:38:26.184,-0.42,0.01
20:38:26.188,-0.425,0.02
20:38:26.192,-0.39,0.015
20:38:26.196,-0.41,0.01
20:38:26.200,-0.41,0.015
20:38:26.204,-0.4,0.02
20:38:26.208,-0.375,0.03
20:38:26.212,-0.36,0.055
20:38:26.216,-0.32,0.04
20:38:26.220,-0.31,0.05
20:38:26.224,-0.315,0.065
20:38:26.228,-0.32,0.07
20:38:26.232,-0.3,0.08
20:38:26.236,-0.305,0.07
20:38:26.240,-0.29,0.05
20:38:26.244,-0.29,0.04
20:38:26.248,-0.32,0.02
20:38:26.252,-0.345,-0.01
20:38:26.256,-0.385,-0.025
20:38:26.260,-0.425,-0.025
20:38:26.264,-0.45,-0.025
20:38:26.268,-0.48,-0.005
20:38:26.272,-0.49,0.0
20:38:26.276,-0.485,0.015
20:38:26.280,-0.48,0.04
20:38:26.284,-0.48,0.05
20:38:26.288,-0.465,0.04
20:38:26.292,-0.465,0.04
20:38:26.296,-0.485,0.02
20:38:26.300,-0.45,0.025
20:38:26.304,-0.45,0.015
20:38:26.308,-0.465,0.015
20:38:26.312,-0.475,0.03
20:38:26.316,-0.46,0.01
20:38:26.320,-0.43,0.015
20:38:26.324,-0.42,0.03
20:38:26.328,-0.42,0.025
20:38:26.332,-0.435,0.025
20:38:26.336,-0.42,0.025
20:38:26.340,-0.405,0.04
20:38:26.344,-0.4,0.02
20:38:26.348,-0.415,0.04
20:38:26.352,-0.405,0.035
20:38:26.356,-0.415,0.02
20:38:26.360,-0.39,0.025
20:38:26.364,-0.37,0.04
20:38:26.368,-0.32,0.03
20:38:26.372,-0.29,0.025
20:38:26.376,-0.205,0.01
20:38:26.380,-0.11,0.0
20:38:26.384,-0.05,0.0
20:38:26.388,0.01,-0.04
20:38:26.392,0.035,-0.065
20:38:26.396,0.05,-0.13
20:38:26.400,0.06,-0.13
20:38:26.404,0.03,-0.155
20:38:26.408,0.06,-0.225
20:38:26.412,0.22,-0.375
20:38:26.416,0.49,-0.57
20:38:26.420,0.795,-0.825
20:38:26.424,0.98,-1.06
20:38:26.428,0.88,-1.2
20:38:26.432,0.52,-1.165
20:38:26.436,0.035,-0.845
20:38:26.440,-0.265,-0.455
20:38:26.444,-0.4,-0.165
20:38:26.448,-0.46,0.0
20:38:26.452,-0.485,0.09
20:38:26.456,-0.49,0.14
20:38:26.460,-0.5,0.2
20:38:26.464,-0.52,0.21
20:38:26.468,-0.505,0.21
20:38:26.472,-0.52,0.21
20:38:26.476,-0.5,0.185
20:38:26.480,-0.52,0.18
20:38:26.484,-0.52,0.165
20:38:26.488,-0.555,0.175
20:38:26.492,-0.545,0.175
20:38:26.496,-0.535,0.155
20:38:26.500,-0.55,0.17
20:38:26.504,-0.55,0.155
20:38:26.508,-0.58,0.15
20:38:26.512,-0.565,0.15
20:38:26.516,-0.57,0.16
20:38:26.520,-0.575,0.145
20:38:26.524,-0.6,0.13
20:38:26.528,-0.6,0.15
20:38:26.532,-0.605,0.14
20:38:26.536,-0.595,0.135
20:38:26.540,-0.615,0.125
20:38:26.544,-0.6,0.15
20:38:26.548,-0.62,0.14
20:38:26.552,-0.61,0.14
20:38:26.556,-0.61,0.14
20:38:26.560,-0.6,0.14
20:38:26.564,-0.61,0.14
20:38:26.568,-0.6,0.145
20:38:26.572,-0.605,0.135
20:38:26.576,-0.605,0.15
20:38:26.580,-0.615,0.15
20:38:26.584,-0.615,0.17
20:38:26.588,-0.61,0.17
20:38:26.592,-0.6,0.175
20:38:26.596,-0.6,0.16
20:38:26.600,-0.59,0.19
20:38:26.604,-0.6,0.16
20:38:26.608,-0.595,0.18
20:38:26.612,-0.595,0.195
20:38:26.616,-0.555,0.18
20:38:26.620,-0.555,0.185
20:38:26.624,-0.56,0.18
20:38:26.628,-0.56,0.14
20:38:26.632,-0.55,0.15
20:38:26.636,-0.52,0.155
20:38:26.640,-0.515,0.135
20:38:26.644,-0.475,0.14
20:38:26.648,-0.495,0.125
20:38:26.652,-0.46,0.125
20:38:26.656,-0.455,0.1
20:38:26.660,-0.455,0.11
20:38:26.664,-0.445,0.105
20:38:26.668,-0.415,0.1
20:38:26.672,-0.39,0.115
20:38:26.676,-0.395,0.1
20:38:26.680,-0.37,0.085
20:38:26.684,-0.365,0.075
20:38:26.688,-0.36,0.08
20:38:26.692,-0.35,0.065
20:38:26.696,-0.335,0.085
20:38:26.700,-0.345,0.085
20:38:26.704,-0.36,0.085
20:38:26.708,-0.375,0.085
20:38:26.712,-0.32,0.07
20:38:26.716,-0.34,0.085
20:38:26.720,-0.325,0.08
20:38:26.724,-0.355,0.075
20:38:26.728,-0.35,0.085
20:38:26.732,-0.345,0.07
20:38:26.736,-0.33,0.075
20:38:26.740,-0.3,0.06
20:38:26.744,-0.31,0.06
20:38:26.748,-0.32,0.055
20:38:26.752,-0.335,0.04
20:38:26.756,-0.345,0.05
20:38:26.760,-0.33,0.05
20:38:26.764,-0.34,0.04
20:38:26.768,-0.34,0.065
20:38:26.772,-0.355,0.03
20:38:26.776,-0.33,0.035
20:38:26.780,-0.335,0.035
20:38:26.784,-0.3,0.03
20:38:26.788,-0.33,0.035
20:38:26.792,-0.335,0.04
20:38:26.796,-0.35,0.02
20:38:26.800,-0.34,0.03
20:38:26.804,-0.34,0.04
20:38:26.808,-0.32,0.035
20:38:26.812,-0.34,0.025
20:38:26.816,-0.325,0.02
20:38:26.820,-0.305,0.015
20:38:26.824,-0.295,0.005
20:38:26.828,-0.295,-0.01
20:38:26.832,-0.275,-0.005
20:38:26.836,-0.27,0.005
20:38:26.840,-0.295,0.005
20:38:26.844,-0.3,0.005
20:38:26.848,-0.28,0.01
20:38:26.852,-0.28,-0.015
20:38:26.856,-0.245,-0.005
20:38:26.860,-0.23,-0.07
20:38:26.864,-0.245,-0.1
20:38:26.868,-0.29,-0.13
20:38:26.872,-0.33,-0.14
20:38:26.876,-0.36,-0.14
20:38:26.880,-0.39,-0.145
20:38:26.884,-0.38,-0.14
20:38:26.888,-0.38,-0.155
20:38:26.892,-0.41,-0.1
20:38:26.896,-0.4,-0.065
20:38:26.900,-0.395,-0.07
20:38:26.904,-0.395,-0.1
20:38:26.908,-0.365,-0.065
20:38:26.912,-0.355,-0.095
20:38:26.916,-0.34,-0.1
20:38:26.920,-0.335,-0.115
20:38:26.924,-0.34,-0.105
20:38:26.928,-0.355,-0.14
20:38:26.932,-0.355,-0.13
20:38:26.936,-0.355,-0.155
20:38:26.940,-0.36,-0.145
20:38:26.944,-0.355,-0.145
20:38:26.948,-0.385,-0.135
20:38:26.952,-0.36,-0.195
20:38:26.956,-0.365,-0.18
20:38:26.960,-0.37,-0.185
20:38:26.964,-0.365,-0.185
20:38:26.968,-0.37,-0.2
20:38:26.972,-0.365,-0.22
20:38:26.976,-0.36,-0.245
20:38:26.980,-0.335,-0.23
20:38:26.984,-0.3,-0.24
20:38:26.988,-0.275,-0.245
20:38:26.992,-0.21,-0.225
20:38:26.996,-0.12,-0.245
20:38:27.000,-0.01,-0.23
20:38:27.004,0.085,-0.29
20:38:27.008,0.17,-0.305
20:38:27.012,0.225,-0.35
20:38:27.016,0.27,-0.33
20:38:27.020,0.24,-0.35
20:38:27.024,0.21,-0.38
20:38:27.028,0.26,-0.43
20:38:27.032,0.455,-0.56
20:38:27.036,0.75,-0.755
20:38:27.040,1.005,-1.005
20:38:27.044,1.08,-1.245
20:38:27.048,0.86,-1.365
20:38:27.052,0.4,-1.28
20:38:27.056,0.0,-0.975
20:38:27.060,-0.22,-0.715
20:38:27.064,-0.34,-0.53
20:38:27.068,-0.36,-0.435
20:38:27.072,-0.38,-0.345
20:38:27.076,-0.43,-0.305
20:38:27.080,-0.465,-0.28
20:38:27.084,-0.48,-0.29
20:38:27.088,-0.485,-0.32
20:38:27.092,-0.49,-0.36
20:38:27.096,-0.495,-0.38
20:38:27.100,-0.5,-0.415
20:38:27.104,-0.525,-0.515
20:38:27.108,-0.505,-0.575
20:38:27.112,-0.525,-0.67
20:38:27.116,-0.55,-0.76
20:38:27.120,-0.53,-0.82
20:38:27.124,-0.52,-0.87
20:38:27.128,-0.535,-0.915
20:38:27.132,-0.51,-0.93
20:38:27.136,-0.515,-0.96
20:38:27.140,-0.53,-0.98
20:38:27.144,-0.505,-0.985
20:38:27.148,-0.545,-0.99
20:38:27.152,-0.53,-1.0
20:38:27.156,-0.565,-1.005
20:38:27.160,-0.54,-1.04
20:38:27.164,-0.56,-1.04
20:38:27.168,-0.56,-1.045
20:38:27.172,-0.57,-1.08
20:38:27.176,-0.57,-1.085
20:38:27.180,-0.58,-1.085
20:38:27.184,-0.57,-1.1
20:38:27.188,-0.6,-1.12
20:38:27.192,-0.6,-1.11
20:38:27.196,-0.585,-1.11
20:38:27.200,-0.59,-1.145
20:38:27.204,-0.6,-1.155
20:38:27.208,-0.595,-1.16
20:38:27.212,-0.615,-1.145
20:38:27.216,-0.6,-1.165
20:38:27.220,-0.59,-1.14
20:38:27.224,-0.58,-1.16
20:38:27.228,-0.55,-1.155
20:38:27.232,-0.55,-1.155
20:38:27.236,-0.55,-1.155
20:38:27.240,-0.545,-1.185
20:38:27.244,-0.505,-1.175
20:38:27.248,-0.485,-1.2
20:38:27.252,-0.495,-1.215
20:38:27.256,-0.47,-1.22
20:38:27.260,-0.465,-1.225
20:38:27.264,-0.45,-1.245
20:38:27.268,-0.46,-1.24
20:38:27.272,-0.44,-1.265
20:38:27.276,-0.42,-1.25
20:38:27.280,-0.41,-1.27
20:38:27.284,-0.39,-1.3
20:38:27.288,-0.395,-1.29
20:38:27.292,-0.4,-1.305
20:38:27.296,-0.385,-1.325
20:38:27.300,-0.4,-1.34
20:38:27.304,-0.385,-1.335
20:38:27.308,-0.375,-1.34
20:38:27.312,-0.35,-1.37
20:38:27.316,-0.345,-1.365
20:38:27.320,-0.345,-1.355
20:38:27.324,-0.345,-1.36
20:38:27.328,-0.345,-1.365
20:38:27.332,-0.355,-1.345
20:38:27.336,-0.35,-1.375
20:38:27.340,-0.345,-1.36
20:38:27.344,-0.34,-1.355
20:38:27.348,-0.335,-1.38
20:38:27.352,-0.32,-1.38
20:38:27.356,-0.32,-1.375
20:38:27.360,-0.32,-1.37
20:38:27.364,-0.305,-1.4
20:38:27.368,-0.315,-1.41
20:38:27.372,-0.32,-1.37
20:38:27.376,-0.305,-1.405
20:38:27.380,-0.31,-1.355
20:38:27.384,-0.305,-1.38
20:38:27.388,-0.315,-1.375
20:38:27.392,-0.3,-1.385
20:38:27.396,-0.32,-1.395
20:38:27.400,-0.32,-1.39
20:38:27.404,-0.315,-1.375
20:38:27.408,-0.315,-1.36
20:38:27.412,-0.33,-1.385
20:38:27.416,-0.315,-1.39
20:38:27.420,-0.315,-1.395
20:38:27.424,-0.325,-1.4
20:38:27.428,-0.295,-1.385
20:38:27.432,-0.265,-1.385
20:38:27.436,-0.25,-1.38
20:38:27.440,-0.245,-1.39
20:38:27.444,-0.225,-1.36
20:38:27.448,-0.235,-1.355
20:38:27.452,-0.23,-1.33
20:38:27.456,-0.235,-1.36
20:38:27.460,-0.23,-1.355
20:38:27.464,-0.205,-1.345
20:38:27.468,-0.2,-1.375
20:38:27.472,-0.23,-1.415
20:38:27.476,-0.26,-1.425
20:38:27.480,-0.285,-1.41
20:38:27.484,-0.29,-1.395
20:38:27.488,-0.34,-1.39
20:38:27.492,-0.35,-1.38
20:38:27.496,-0.36,-1.35
20:38:27.500,-0.365,-1.345
20:38:27.504,-0.34,-1.32
20:38:27.508,-0.35,-1.295
20:38:27.512,-0.355,-1.305
20:38:27.516,-0.335,-1.3
20:38:27.520,-0.345,-1.28
20:38:27.524,-0.34,-1.29
20:38:27.528,-0.355,-1.305
20:38:27.532,-0.34,-1.285
20:38:27.536,-0.33,-1.3
20:38:27.540,-0.315,-1.285
20:38:27.544,-0.34,-1.29
20:38:27.548,-0.33,-1.265
20:38:27.552,-0.34,-1.26
20:38:27.556,-0.365,-1.25
20:38:27.560,-0.35,-1.235
20:38:27.564,-0.36,-1.23
20:38:27.568,-0.345,-1.225
20:38:27.572,-0.34,-1.21
20:38:27.576,-0.34,-1.185
20:38:27.580,-0.33,-1.17
20:38:27.584,-0.315,-1.175
20:38:27.588,-0.28,-1.14
20:38:27.592,-0.23,-1.135
20:38:27.596,-0.185,-1.13
20:38:27.600,-0.105,-1.075
20:38:27.604,0.015,-1.085
20:38:27.608,0.065,-1.06
20:38:27.612,0.155,-1.085
20:38:27.616,0.205,-1.105
20:38:27.620,0.255,-1.11
20:38:27.624,0.27,-1.06
20:38:27.628,0.24,-1.055
20:38:27.632,0.27,-1.08
20:38:27.636,0.375,-1.12
20:38:27.640,0.645,-1.185
20:38:27.644,0.925,-1.365
20:38:27.648,1.07,-1.555
20:38:27.652,0.955,-1.695
20:38:27.656,0.59,-1.66
20:38:27.660,0.11,-1.375
20:38:27.664,-0.18,-1.01
20:38:27.668,-0.31,-0.755
20:38:27.672,-0.365,-0.61
20:38:27.676,-0.385,-0.485
20:38:27.680,-0.395,-0.365
20:38:27.684,-0.435,-0.34
20:38:27.688,-0.465,-0.29
20:38:27.692,-0.465,-0.28
20:38:27.696,-0.485,-0.27
20:38:27.700,-0.49,-0.27
20:38:27.704,-0.485,-0.28
20:38:27.708,-0.485,-0.27
20:38:27.712,-0.475,-0.265
20:38:27.716,-0.46,-0.26
20:38:27.720,-0.49,-0.245
20:38:27.724,-0.485,-0.24
20:38:27.728,-0.495,-0.24
20:38:27.732,-0.51,-0.22
20:38:27.736,-0.51,-0.23
20:38:27.740,-0.515,-0.17
20:38:27.744,-0.535,-0.165
20:38:27.748,-0.535,-0.145
20:38:27.752,-0.54,-0.15
20:38:27.756,-0.55,-0.12
20:38:27.760,-0.555,-0.13
20:38:27.764,-0.555,-0.125
20:38:27.768,-0.555,-0.115
20:38:27.772,-0.545,-0.1
20:38:27.776,-0.58,-0.115
20:38:27.780,-0.57,-0.115
20:38:27.784,-0.57,-0.105
20:38:27.788,-0.595,-0.08
20:38:27.792,-0.61,-0.08
20:38:27.796,-0.62,-0.055
20:38:27.800,-0.615,-0.065
20:38:27.804,-0.6,-0.05
20:38:27.808,-0.595,-0.03
20:38:27.812,-0.6,-0.04
20:38:27.816,-0.6,-0.005
20:38:27.820,-0.605,0.0
20:38:27.824,-0.585,-0.01
20:38:27.828,-0.58,0.0
20:38:27.832,-0.555,0.0
20:38:27.836,-0.545,0.01
20:38:27.840,-0.54,0.01
20:38:27.844,-0.56,0.01
20:38:27.848,-0.54,0.025
20:38:27.852,-0.515,0.005
20:38:27.856,-0.535,0.005
20:38:27.860,-0.52,0.0
20:38:27.864,-0.51,0.015
20:38:27.868,-0.505,0.005
20:38:27.872,-0.505,0.0
20:38:27.876,-0.5,-0.02
20:38:27.880,-0.47,-0.035
20:38:27.884,-0.475,-0.06
20:38:27.888,-0.475,-0.035
20:38:27.892,-0.45,-0.045
20:38:27.896,-0.465,-0.06
20:38:27.900,-0.425,-0.06
20:38:27.904,-0.4,-0.06
20:38:27.908,-0.395,-0.045
20:38:27.912,-0.395,-0.065
20:38:27.916,-0.4,-0.05
20:38:27.920,-0.395,-0.055
20:38:27.924,-0.395,-0.05
20:38:27.928,-0.38,-0.04
20:38:27.932,-0.365,-0.03
20:38:27.936,-0.38,-0.03
20:38:27.940,-0.37,-0.005
20:38:27.944,-0.36,-0.015
20:38:27.948,-0.35,0.0
20:38:27.952,-0.355,0.01
20:38:27.956,-0.36,0.02
20:38:27.960,-0.355,0.02
20:38:27.964,-0.35,0.005
20:38:27.968,-0.35,0.0
20:38:27.972,-0.37,0.005
20:38:27.976,-0.37,0.01
20:38:27.980,-0.36,0.0
20:38:27.984,-0.365,0.015
20:38:27.988,-0.375,-0.01
20:38:27.992,-0.385,0.01
20:38:27.996,-0.375,0.015
20:38:28.000,-0.36,0.035
20:38:28.004,-0.36,0.045
20:38:28.008,-0.355,0.045
20:38:28.012,-0.35,0.035
20:38:28.016,-0.33,0.04
20:38:28.020,-0.315,0.025
20:38:28.024,-0.285,0.04
20:38:28.028,-0.245,0.065
20:38:28.032,-0.245,0.075
20:38:28.036,-0.25,0.085
20:38:28.040,-0.235,0.105
20:38:28.044,-0.235,0.085
20:38:28.048,-0.24,0.07
20:38:28.052,-0.255,0.095
20:38:28.056,-0.285,0.045
20:38:28.060,-0.305,0.025
20:38:28.064,-0.33,0.015
20:38:28.068,-0.365,0.0
20:38:28.072,-0.405,0.0
20:38:28.076,-0.42,0.0
20:38:28.080,-0.465,0.02
20:38:28.084,-0.475,0.045
20:38:28.088,-0.47,0.075
20:38:28.092,-0.485,0.08
20:38:28.096,-0.485,0.085
20:38:28.100,-0.485,0.09
20:38:28.104,-0.515,0.055
20:38:28.108,-0.495,0.07
20:38:28.112,-0.49,0.06
20:38:28.116,-0.49,0.08
20:38:28.120,-0.48,0.075
20:38:28.124,-0.51,0.07
20:38:28.128,-0.51,0.055
20:38:28.132,-0.47,0.045
20:38:28.136,-0.45,0.05
20:38:28.140,-0.47,0.045
20:38:28.144,-0.485,0.045
20:38:28.148,-0.49,0.045
20:38:28.152,-0.475,0.06
20:38:28.156,-0.48,0.045
20:38:28.160,-0.47,0.06
20:38:28.164,-0.45,0.06
20:38:28.168,-0.44,0.055
20:38:28.172,-0.435,0.06
20:38:28.176,-0.42,0.065
20:38:28.180,-0.435,0.065
20:38:28.184,-0.43,0.07
20:38:28.188,-0.405,0.07
20:38:28.192,-0.37,0.075
20:38:28.196,-0.3,0.085
20:38:28.200,-0.24,0.07
20:38:28.204,-0.15,0.06
20:38:28.208,-0.095,0.035
20:38:28.212,-0.03,0.0
20:38:28.216,-0.015,-0.03
20:38:28.220,-0.01,-0.04
20:38:28.224,0.005,-0.04
20:38:28.228,-0.01,-0.095
20:38:28.232,0.01,-0.175
20:38:28.236,0.175,-0.31
20:38:28.240,0.455,-0.505
20:38:28.244,0.765,-0.785
20:38:28.248,0.93,-0.99
20:38:28.252,0.83,-1.17
20:38:28.256,0.48,-1.13
20:38:28.260,0.02,-0.835
20:38:28.264,-0.305,-0.43
20:38:28.268,-0.48,-0.155
20:38:28.272,-0.535,0.01
20:38:28.276,-0.545,0.13
20:38:28.280,-0.56,0.18
20:38:28.284,-0.59,0.205
20:38:28.288,-0.58,0.23
20:38:28.292,-0.6,0.25
20:38:28.296,-0.62,0.23
20:38:28.300,-0.635,0.215
20:38:28.304,-0.61,0.225
20:38:28.308,-0.62,0.21
20:38:28.312,-0.63,0.22
20:38:28.316,-0.64,0.22
20:38:28.320,-0.635,0.215
20:38:28.324,-0.62,0.215
20:38:28.328,-0.62,0.22
20:38:28.332,-0.65,0.21
20:38:28.336,-0.66,0.22
20:38:28.340,-0.65,0.2
20:38:28.344,-0.645,0.215
20:38:28.348,-0.645,0.21
20:38:28.352,-0.635,0.235
20:38:28.356,-0.64,0.24
20:38:28.360,-0.645,0.21
20:38:28.364,-0.665,0.23
20:38:28.368,-0.665,0.225
20:38:28.372,-0.69,0.215
20:38:28.376,-0.685,0.235
20:38:28.380,-0.68,0.235
20:38:28.384,-0.7,0.25
20:38:28.388,-0.695,0.24
20:38:28.392,-0.68,0.275
20:38:28.396,-0.675,0.26
20:38:28.400,-0.665,0.24
20:38:28.404,-0.655,0.275
20:38:28.408,-0.665,0.255
20:38:28.412,-0.665,0.265
20:38:28.416,-0.68,0.27
20:38:28.420,-0.655,0.27
20:38:28.424,-0.66,0.285
20:38:28.428,-0.64,0.26
20:38:28.432,-0.64,0.29
20:38:28.436,-0.635,0.26
20:38:28.440,-0.655,0.26
20:38:28.444,-0.63,0.28
20:38:28.448,-0.625,0.265
20:38:28.452,-0.625,0.25
20:38:28.456,-0.585,0.25
20:38:28.460,-0.595,0.25
20:38:28.464,-0.58,0.23
20:38:28.468,-0.55,0.215
20:38:28.472,-0.545,0.215
20:38:28.476,-0.56,0.205
20:38:28.480,-0.535,0.205
20:38:28.484,-0.52,0.195
20:38:28.488,-0.505,0.19
20:38:28.492,-0.49,0.19
20:38:28.496,-0.475,0.185
20:38:28.500,-0.475,0.185
20:38:28.504,-0.45,0.18
20:38:28.508,-0.44,0.185
20:38:28.512,-0.415,0.185
20:38:28.516,-0.435,0.175
20:38:28.520,-0.4,0.195
20:38:28.524,-0.41,0.185
20:38:28.528,-0.39,0.195
20:38:28.532,-0.385,0.195
20:38:28.536,-0.4,0.195
20:38:28.540,-0.385,0.19
20:38:28.544,-0.395,0.18
20:38:28.548,-0.395,0.2
20:38:28.552,-0.39,0.205
20:38:28.556,-0.4,0.195
20:38:28.560,-0.41,0.2
20:38:28.564,-0.425,0.21
20:38:28.568,-0.415,0.19
20:38:28.572,-0.41,0.195
20:38:28.576,-0.415,0.2
20:38:28.580,-0.435,0.22
20:38:28.584,-0.425,0.195
20:38:28.588,-0.445,0.215
20:38:28.592,-0.425,0.21
20:38:28.596,-0.435,0.23
20:38:28.600,-0.44,0.215
20:38:28.604,-0.425,0.22
20:38:28.608,-0.445,0.22
20:38:28.612,-0.45,0.2
20:38:28.616,-0.445,0.21
20:38:28.620,-0.41,0.215
20:38:28.624,-0.425,0.22
20:38:28.628,-0.405,0.215
20:38:28.632,-0.41,0.215
20:38:28.636,-0.39,0.23
20:38:28.640,-0.38,0.235
20:38:28.644,-0.405,0.23
20:38:28.648,-0.41,0.255
20:38:28.652,-0.4,0.235
20:38:28.656,-0.395,0.255
20:38:28.660,-0.4,0.235
20:38:28.664,-0.395,0.25
20:38:28.668,-0.39,0.26
20:38:28.672,-0.35,0.245
20:38:28.676,-0.335,0.255
20:38:28.680,-0.32,0.255
20:38:28.684,-0.29,0.26
20:38:28.688,-0.27,0.275
20:38:28.692,-0.285,0.295
20:38:28.696,-0.275,0.295
20:38:28.700,-0.27,0.26
20:38:28.704,-0.24,0.285
20:38:28.708,-0.285,0.255
20:38:28.712,-0.315,0.21
20:38:28.716,-0.35,0.165
20:38:28.720,-0.385,0.15
20:38:28.724,-0.4,0.135
20:38:28.728,-0.44,0.16
20:38:28.732,-0.46,0.17
20:38:28.736,-0.48,0.19
20:38:28.740,-0.485,0.22
20:38:28.744,-0.48,0.225
20:38:28.748,-0.48,0.25
20:38:28.752,-0.485,0.25
20:38:28.756,-0.48,0.25
20:38:28.760,-0.5,0.235
20:38:28.764,-0.48,0.245
20:38:28.768,-0.495,0.255
20:38:28.772,-0.475,0.22
20:38:28.776,-0.475,0.22
20:38:28.780,-0.48,0.215
20:38:28.784,-0.48,0.22
20:38:28.788,-0.495,0.235
20:38:28.792,-0.495,0.225
20:38:28.796,-0.49,0.22
20:38:28.800,-0.48,0.235
20:38:28.804,-0.475,0.225
20:38:28.808,-0.47,0.21
20:38:28.812,-0.475,0.215
20:38:28.816,-0.475,0.2
20:38:28.820,-0.47,0.205
20:38:28.824,-0.465,0.2
20:38:28.828,-0.46,0.19
20:38:28.832,-0.43,0.205
20:38:28.836,-0.43,0.21
20:38:28.840,-0.42,0.21
20:38:28.844,-0.36,0.225
20:38:28.848,-0.285,0.21
20:38:28.852,-0.19,0.225
20:38:28.856,-0.115,0.22
20:38:28.860,-0.045,0.195
20:38:28.864,-0.01,0.15
20:38:28.868,0.015,0.12
20:38:28.872,0.02,0.1
20:38:28.876,-0.015,0.1
20:38:28.880,-0.035,0.05
20:38:28.884,-0.01,-0.035
20:38:28.888,0.15,-0.17
20:38:28.892,0.44,-0.375
20:38:28.896,0.765,-0.645
20:38:28.900,0.96,-0.88
20:38:28.904,0.87,-1.035
20:38:28.908,0.515,-0.98
20:38:28.912,0.035,-0.675
20:38:28.916,-0.305,-0.285
20:38:28.920,-0.44,-0.005
20:38:28.924,-0.51,0.145
20:38:28.928,-0.545,0.26
20:38:28.932,-0.55,0.305
20:38:28.936,-0.58,0.335
20:38:28.940,-0.58,0.37
20:38:28.944,-0.595,0.37
20:38:28.948,-0.595,0.365
20:38:28.952,-0.605,0.345
20:38:28.956,-0.6,0.33
20:38:28.960,-0.585,0.315
20:38:28.964,-0.595,0.315
20:38:28.968,-0.6,0.305
20:38:28.972,-0.625,0.305
20:38:28.976,-0.61,0.315
20:38:28.980,-0.595,0.315
20:38:28.984,-0.6,0.315
20:38:28.988,-0.605,0.305
20:38:28.992,-0.605,0.305
20:38:28.996,-0.605,0.295
20:38:29.000,-0.615,0.305
20:38:29.004,-0.61,0.325
20:38:29.008,-0.59,0.295
20:38:29.012,-0.62,0.305
20:38:29.016,-0.635,0.31
20:38:29.020,-0.63,0.295
20:38:29.024,-0.64,0.295
20:38:29.028,-0.63,0.265
20:38:29.032,-0.63,0.275
20:38:29.036,-0.64,0.275
20:38:29.040,-0.625,0.285
20:38:29.044,-0.63,0.285
20:38:29.048,-0.635,0.26
20:38:29.052,-0.645,0.26
20:38:29.056,-0.645,0.27
20:38:29.060,-0.63,0.245
20:38:29.064,-0.63,0.245
20:38:29.068,-0.65,0.24
20:38:29.072,-0.64,0.22
20:38:29.076,-0.635,0.25
20:38:29.080,-0.63,0.245
20:38:29.084,-0.6,0.265
20:38:29.088,-0.59,0.255
20:38:29.092,-0.575,0.25
20:38:29.096,-0.56,0.245
20:38:29.100,-0.59,0.25
20:38:29.104,-0.575,0.245
20:38:29.108,-0.575,0.22
20:38:29.112,-0.55,0.225
20:38:29.116,-0.525,0.21
20:38:29.120,-0.52,0.2
20:38:29.124,-0.5,0.19
20:38:29.128,-0.495,0.18
20:38:29.132,-0.49,0.155
20:38:29.136,-0.5,0.145
20:38:29.140,-0.49,0.13
20:38:29.144,-0.475,0.11
20:38:29.148,-0.44,0.1
20:38:29.152,-0.43,0.105
20:38:29.156,-0.43,0.1
20:38:29.160,-0.415,0.09
20:38:29.164,-0.415,0.08
20:38:29.168,-0.405,0.075
20:38:29.172,-0.38,0.07
20:38:29.176,-0.385,0.065
20:38:29.180,-0.38,0.04
20:38:29.184,-0.37,0.065
20:38:29.188,-0.37,0.07
20:38:29.192,-0.355,0.055
20:38:29.196,-0.35,0.085
20:38:29.200,-0.355,0.075
20:38:29.204,-0.35,0.075
20:38:29.208,-0.36,0.095
20:38:29.212,-0.36,0.105
20:38:29.216,-0.35,0.115
20:38:29.220,-0.35,0.095
20:38:29.224,-0.345,0.08
20:38:29.228,-0.35,0.085
20:38:29.232,-0.36,0.085
20:38:29.236,-0.365,0.065
20:38:29.240,-0.355,0.07
20:38:29.244,-0.345,0.055
20:38:29.248,-0.365,0.055
20:38:29.252,-0.375,0.045
20:38:29.256,-0.365,0.035
20:38:29.260,-0.38,0.035
20:38:29.264,-0.36,0.02
20:38:29.268,-0.345,0.005
20:38:29.272,-0.375,0.02
20:38:29.276,-0.365,0.01
20:38:29.280,-0.375,-0.01
20:38:29.284,-0.38,-0.01
20:38:29.288,-0.39,-0.05
20:38:29.292,-0.36,-0.07
20:38:29.296,-0.365,-0.085
20:38:29.300,-0.345,-0.105
20:38:29.304,-0.335,-0.13
20:38:29.308,-0.33,-0.135
20:38:29.312,-0.32,-0.145
20:38:29.316,-0.33,-0.155
20:38:29.320,-0.305,-0.18
20:38:29.324,-0.285,-0.16
20:38:29.328,-0.24,-0.22
20:38:29.332,-0.215,-0.265
20:38:29.336,-0.195,-0.295
20:38:29.340,-0.185,-0.385
20:38:29.344,-0.18,-0.48
20:38:29.348,-0.17,-0.58
20:38:29.352,-0.155,-0.665
20:38:29.356,-0.165,-0.715
20:38:29.360,-0.205,-0.74
20:38:29.364,-0.27,-0.77
20:38:29.368,-0.295,-0.86
20:38:29.372,-0.3,-0.89
20:38:29.376,-0.345,-0.89
20:38:29.380,-0.385,-0.89
20:38:29.384,-0.395,-0.895
20:38:29.388,-0.41,-0.9
20:38:29.392,-0.41,-0.885
20:38:29.396,-0.405,-0.87
20:38:29.400,-0.41,-0.88
20:38:29.404,-0.405,-0.905
20:38:29.408,-0.395,-0.88
20:38:29.412,-0.42,-0.88
20:38:29.416,-0.38,-0.91
20:38:29.420,-0.39,-0.945
20:38:29.424,-0.38,-0.945
20:38:29.428,-0.37,-0.92
20:38:29.432,-0.355,-0.95
20:38:29.436,-0.36,-0.95
20:38:29.440,-0.34,-0.945
20:38:29.444,-0.35,-0.945
20:38:29.448,-0.34,-0.975
20:38:29.452,-0.35,-0.96
20:38:29.456,-0.37,-0.98
20:38:29.460,-0.375,-0.99
20:38:29.464,-0.38,-1.01
20:38:29.468,-0.37,-1.01
20:38:29.472,-0.36,-1.015
20:38:29.476,-0.325,-1.02
20:38:29.480,-0.345,-1.02
20:38:29.484,-0.345,-1.045
20:38:29.488,-0.3,-1.045
20:38:29.492,-0.255,-1.08
20:38:29.496,-0.2,-1.075
20:38:29.500,-0.13,-1.07
20:38:29.504,-0.025,-1.075
20:38:29.508,0.065,-1.12
20:38:29.512,0.15,-1.13
20:38:29.516,0.23,-1.19
20:38:29.520,0.27,-1.215
20:38:29.524,0.285,-1.215
20:38:29.528,0.26,-1.225
20:38:29.532,0.285,-1.28
20:38:29.536,0.415,-1.39
20:38:29.540,0.665,-1.54
20:38:29.544,0.94,-1.815
20:38:29.548,1.105,-2.045
20:38:29.552,1.0,-2.215
20:38:29.556,0.615,-2.225
20:38:29.560,0.155,-1.96
20:38:29.564,-0.155,-1.625
20:38:29.568,-0.285,-1.435
20:38:29.572,-0.335,-1.315
20:38:29.576,-0.36,-1.21
20:38:29.580,-0.38,-1.155
20:38:29.584,-0.4,-1.13
20:38:29.588,-0.425,-1.125
20:38:29.592,-0.46,-1.125
20:38:29.596,-0.48,-1.14
20:38:29.600,-0.495,-1.185
20:38:29.604,-0.51,-1.2
20:38:29.608,-0.53,-1.22
20:38:29.612,-0.51,-1.21
20:38:29.616,-0.49,-1.235
20:38:29.620,-0.51,-1.245
20:38:29.624,-0.53,-1.245
20:38:29.628,-0.53,-1.255
20:38:29.632,-0.515,-1.26
20:38:29.636,-0.535,-1.275
20:38:29.640,-0.54,-1.28
20:38:29.644,-0.53,-1.275
20:38:29.648,-0.54,-1.285
20:38:29.652,-0.545,-1.295
20:38:29.656,-0.55,-1.28
20:38:29.660,-0.535,-1.295
20:38:29.664,-0.525,-1.305
20:38:29.668,-0.54,-1.295
20:38:29.672,-0.525,-1.305
20:38:29.676,-0.525,-1.3
20:38:29.680,-0.525,-1.305
20:38:29.684,-0.525,-1.305
20:38:29.688,-0.525,-1.31
20:38:29.692,-0.55,-1.305
20:38:29.696,-0.55,-1.32
20:38:29.700,-0.575,-1.315
20:38:29.704,-0.58,-1.325
20:38:29.708,-0.58,-1.325
20:38:29.712,-0.59,-1.315
20:38:29.716,-0.585,-1.33
20:38:29.720,-0.555,-1.305
20:38:29.724,-0.555,-1.325
20:38:29.728,-0.565,-1.33
20:38:29.732,-0.55,-1.325
20:38:29.736,-0.55,-1.36
20:38:29.740,-0.54,-1.335
20:38:29.744,-0.53,-1.325
20:38:29.748,-0.525,-1.33
20:38:29.752,-0.525,-1.325
20:38:29.756,-0.5,-1.335
20:38:29.760,-0.515,-1.34
20:38:29.764,-0.495,-1.33
20:38:29.768,-0.47,-1.34
20:38:29.772,-0.445,-1.32
20:38:29.776,-0.44,-1.315
20:38:29.780,-0.435,-1.32
20:38:29.784,-0.41,-1.35
20:38:29.788,-0.4,-1.31
20:38:29.792,-0.375,-1.325
20:38:29.796,-0.36,-1.32
20:38:29.800,-0.355,-1.3
20:38:29.804,-0.36,-1.3
20:38:29.808,-0.325,-1.305
20:38:29.812,-0.33,-1.285
20:38:29.816,-0.335,-1.305
20:38:29.820,-0.345,-1.28
20:38:29.824,-0.335,-1.28
20:38:29.828,-0.345,-1.28
20:38:29.832,-0.32,-1.25
20:38:29.836,-0.315,-1.25
20:38:29.840,-0.315,-1.24
20:38:29.844,-0.315,-1.23
20:38:29.848,-0.315,-1.225
20:38:29.852,-0.325,-1.21
20:38:29.856,-0.3,-1.18
20:38:29.860,-0.31,-1.205
20:38:29.864,-0.31,-1.195
20:38:29.868,-0.32,-1.155
20:38:29.872,-0.31,-1.145
20:38:29.876,-0.32,-1.12
20:38:29.880,-0.31,-1.105
20:38:29.884,-0.29,-1.09
20:38:29.888,-0.28,-1.085
20:38:29.892,-0.3,-1.07
20:38:29.896,-0.305,-1.055
20:38:29.900,-0.31,-1.045
20:38:29.904,-0.305,-1.015
20:38:29.908,-0.315,-1.015
20:38:29.912,-0.295,-0.985
20:38:29.916,-0.32,-0.98
20:38:29.920,-0.31,-0.96
20:38:29.924,-0.32,-0.95
20:38:29.928,-0.325,-0.945
20:38:29.932,-0.335,-0.93
20:38:29.936,-0.335,-0.895
20:38:29.940,-0.35,-0.905
20:38:29.944,-0.33,-0.89
20:38:29.948,-0.35,-0.885
20:38:29.952,-0.335,-0.875
20:38:29.956,-0.345,-0.88
20:38:29.960,-0.335,-0.85
20:38:29.964,-0.33,-0.835
20:38:29.968,-0.33,-0.825
20:38:29.972,-0.325,-0.8
20:38:29.976,-0.315,-0.805
20:38:29.980,-0.315,-0.78
20:38:29.984,-0.29,-0.745
20:38:29.988,-0.24,-0.705
20:38:29.992,-0.195,-0.67
20:38:29.996,-0.165,-0.615
20:38:30.000,-0.145,-0.545
20:38:30.004,-0.125,-0.48
20:38:30.008,-0.11,-0.45
20:38:30.012,-0.105,-0.43
20:38:30.016,-0.115,-0.435
20:38:30.020,-0.145,-0.47
20:38:30.024,-0.185,-0.455
20:38:30.028,-0.255,-0.46
20:38:30.032,-0.29,-0.465
20:38:30.036,-0.325,-0.415
20:38:30.040,-0.335,-0.415
20:38:30.044,-0.365,-0.38
20:38:30.048,-0.375,-0.335
20:38:30.052,-0.395,-0.31
20:38:30.056,-0.425,-0.265
20:38:30.060,-0.39,-0.235
20:38:30.064,-0.42,-0.22
20:38:30.068,-0.4,-0.19
20:38:30.072,-0.39,-0.2
20:38:30.076,-0.4,-0.17
20:38:30.080,-0.385,-0.135
20:38:30.084,-0.4,-0.105
20:38:30.088,-0.36,-0.09
20:38:30.092,-0.37,-0.065
20:38:30.096,-0.38,-0.025
20:38:30.100,-0.4,-0.025
20:38:30.104,-0.4,0.01
20:38:30.108,-0.405,0.015
20:38:30.112,-0.385,0.03
20:38:30.116,-0.375,0.05
20:38:30.120,-0.37,0.06
20:38:30.124,-0.375,0.07
20:38:30.128,-0.36,0.095
20:38:30.132,-0.355,0.09
20:38:30.136,-0.365,0.12
20:38:30.140,-0.365,0.12
20:38:30.144,-0.365,0.135
20:38:30.148,-0.365,0.135
20:38:30.152,-0.325,0.12
20:38:30.156,-0.25,0.135
20:38:30.160,-0.19,0.13
20:38:30.164,-0.095,0.125
20:38:30.168,-0.035,0.115
20:38:30.172,0.04,0.105
20:38:30.176,0.085,0.065
20:38:30.180,0.105,0.045
20:38:30.184,0.13,0.035
20:38:30.188,0.135,0.025
20:38:30.192,0.115,-0.02
20:38:30.196,0.16,-0.08
20:38:30.200,0.355,-0.22
20:38:30.204,0.695,-0.42
20:38:30.208,0.965,-0.67
20:38:30.212,1.05,-0.87
20:38:30.216,0.845,-0.97
20:38:30.220,0.395,-0.865
20:38:30.224,-0.025,-0.515
20:38:30.228,-0.31,-0.18
20:38:30.232,-0.39,0.055
20:38:30.236,-0.41,0.165
20:38:30.240,-0.425,0.245
20:38:30.244,-0.46,0.335
20:38:30.248,-0.47,0.355
20:38:30.252,-0.485,0.38
20:38:30.256,-0.49,0.37
20:38:30.260,-0.52,0.365
20:38:30.264,-0.52,0.355
20:38:30.268,-0.5,0.35
20:38:30.272,-0.535,0.33
20:38:30.276,-0.56,0.325
20:38:30.280,-0.55,0.34
20:38:30.284,-0.565,0.34
20:38:30.288,-0.545,0.335
20:38:30.292,-0.565,0.325
20:38:30.296,-0.55,0.36
20:38:30.300,-0.575,0.355
20:38:30.304,-0.58,0.32
20:38:30.308,-0.57,0.33
20:38:30.312,-0.575,0.34
20:38:30.316,-0.59,0.35
20:38:30.320,-0.58,0.33
20:38:30.324,-0.595,0.345
20:38:30.328,-0.615,0.36
20:38:30.332,-0.6,0.37
20:38:30.336,-0.61,0.36
20:38:30.340,-0.625,0.37
20:38:30.344,-0.605,0.385
20:38:30.348,-0.605,0.395
20:38:30.352,-0.605,0.37
20:38:30.356,-0.6,0.395
20:38:30.360,-0.595,0.415
20:38:30.364,-0.615,0.41
20:38:30.368,-0.63,0.4
20:38:30.372,-0.625,0.42
20:38:30.376,-0.61,0.42
20:38:30.380,-0.61,0.42
20:38:30.384,-0.61,0.44
20:38:30.388,-0.63,0.43
20:38:30.392,-0.61,0.435
20:38:30.396,-0.6,0.43
20:38:30.400,-0.6,0.43
20:38:30.404,-0.6,0.425
20:38:30.408,-0.615,0.42
20:38:30.412,-0.575,0.43
20:38:30.416,-0.575,0.39
20:38:30.420,-0.575,0.4
20:38:30.424,-0.555,0.39
20:38:30.428,-0.535,0.38
20:38:30.432,-0.535,0.37
20:38:30.436,-0.52,0.36
20:38:30.440,-0.51,0.37
20:38:30.444,-0.47,0.365
20:38:30.448,-0.48,0.36
20:38:30.452,-0.465,0.39
20:38:30.456,-0.46,0.355
20:38:30.460,-0.415,0.345
20:38:30.464,-0.395,0.365
20:38:30.468,-0.395,0.365
20:38:30.472,-0.395,0.34
20:38:30.476,-0.38,0.35
20:38:30.480,-0.39,0.365
20:38:30.484,-0.36,0.335
20:38:30.488,-0.355,0.355
20:38:30.492,-0.36,0.345
20:38:30.496,-0.355,0.345
20:38:30.500,-0.355,0.35
20:38:30.504,-0.365,0.34
20:38:30.508,-0.365,0.36
20:38:30.512,-0.375,0.34
20:38:30.516,-0.365,0.35
20:38:30.520,-0.365,0.36
20:38:30.524,-0.345,0.365
20:38:30.528,-0.35,0.385
20:38:30.532,-0.36,0.37
20:38:30.536,-0.36,0.34
20:38:30.540,-0.36,0.365
20:38:30.544,-0.36,0.37
20:38:30.548,-0.37,0.36
20:38:30.552,-0.355,0.355
20:38:30.556,-0.38,0.395
20:38:30.560,-0.37,0.37
20:38:30.564,-0.38,0.37
20:38:30.568,-0.37,0.38
20:38:30.572,-0.375,0.38
20:38:30.576,-0.365,0.375
20:38:30.580,-0.35,0.38
20:38:30.584,-0.36,0.39
20:38:30.588,-0.35,0.395
20:38:30.592,-0.35,0.39
20:38:30.596,-0.36,0.4
20:38:30.600,-0.365,0.395
20:38:30.604,-0.365,0.375
20:38:30.608,-0.38,0.4
20:38:30.612,-0.37,0.4
20:38:30.616,-0.35,0.39
20:38:30.620,-0.38,0.4
20:38:30.624,-0.37,0.39
20:38:30.628,-0.345,0.385
20:38:30.632,-0.33,0.39
20:38:30.636,-0.295,0.4
20:38:30.640,-0.26,0.4
20:38:30.644,-0.195,0.42
20:38:30.648,-0.215,0.43
20:38:30.652,-0.2,0.425
20:38:30.656,-0.19,0.44
20:38:30.660,-0.19,0.42
20:38:30.664,-0.175,0.385
20:38:30.668,-0.225,0.365
20:38:30.672,-0.27,0.315
20:38:30.676,-0.285,0.295
20:38:30.680,-0.335,0.31
20:38:30.684,-0.365,0.33
20:38:30.688,-0.395,0.355
20:38:30.692,-0.43,0.34
20:38:30.696,-0.43,0.37
20:38:30.700,-0.445,0.405
20:38:30.704,-0.435,0.415
20:38:30.708,-0.425,0.425
20:38:30.712,-0.435,0.415
20:38:30.716,-0.425,0.41
20:38:30.720,-0.43,0.415
20:38:30.724,-0.41,0.42
20:38:30.728,-0.43,0.375
20:38:30.732,-0.42,0.38
20:38:30.736,-0.435,0.39
20:38:30.740,-0.455,0.365
20:38:30.744,-0.445,0.37
20:38:30.748,-0.435,0.395
20:38:30.752,-0.43,0.39
20:38:30.756,-0.43,0.36
20:38:30.760,-0.41,0.355
20:38:30.764,-0.425,0.36
20:38:30.768,-0.41,0.365
20:38:30.772,-0.405,0.355
20:38:30.776,-0.42,0.355
20:38:30.780,-0.4,0.355
20:38:30.784,-0.4,0.37
20:38:30.788,-0.415,0.37
20:38:30.792,-0.39,0.35
20:38:30.796,-0.375,0.35
20:38:30.800,-0.35,0.36
20:38:30.804,-0.3,0.365
20:38:30.808,-0.23,0.355
20:38:30.812,-0.125,0.345
20:38:30.816,-0.05,0.325
20:38:30.820,-0.005,0.325
20:38:30.824,0.015,0.285
20:38:30.828,0.05,0.23
20:38:30.832,0.05,0.225
20:38:30.836,0.03,0.22
20:38:30.840,0.015,0.155
20:38:30.844,0.08,0.04
20:38:30.848,0.325,-0.155
20:38:30.852,0.645,-0.365
20:38:30.856,0.895,-0.625
20:38:30.860,0.965,-0.84
20:38:30.864,0.75,-0.905
20:38:30.868,0.305,-0.715
20:38:30.872,-0.115,-0.335
20:38:30.876,-0.37,0.005
20:38:30.880,-0.455,0.23
20:38:30.884,-0.5,0.365
20:38:30.888,-0.515,0.45
20:38:30.892,-0.53,0.495
20:38:30.896,-0.56,0.495
20:38:30.900,-0.565,0.53
20:38:30.904,-0.56,0.52
20:38:30.908,-0.57,0.525
20:38:30.912,-0.565,0.51
20:38:30.916,-0.58,0.475
20:38:30.920,-0.56,0.485
20:38:30.924,-0.575,0.475
20:38:30.928,-0.575,0.475
20:38:30.932,-0.585,0.485
20:38:30.936,-0.585,0.48
20:38:30.940,-0.57,0.475
20:38:30.944,-0.585,0.48
20:38:30.948,-0.6,0.475
20:38:30.952,-0.605,0.485
20:38:30.956,-0.6,0.47
20:38:30.960,-0.605,0.475
20:38:30.964,-0.605,0.46
20:38:30.968,-0.615,0.455
20:38:30.972,-0.63,0.465
20:38:30.976,-0.63,0.47
20:38:30.980,-0.64,0.47
20:38:30.984,-0.645,0.47
20:38:30.988,-0.645,0.45
20:38:30.992,-0.66,0.43
20:38:30.996,-0.66,0.455
20:38:31.000,-0.64,0.455
20:38:31.004,-0.665,0.445
20:38:31.008,-0.655,0.46
20:38:31.012,-0.665,0.465
20:38:31.016,-0.66,0.465
20:38:31.020,-0.655,0.465
20:38:31.024,-0.665,0.47
20:38:31.028,-0.665,0.46
20:38:31.032,-0.65,0.465
20:38:31.036,-0.625,0.465
20:38:31.040,-0.635,0.455
20:38:31.044,-0.63,0.465
20:38:31.048,-0.61,0.47
20:38:31.052,-0.615,0.47
20:38:31.056,-0.6,0.455
20:38:31.060,-0.6,0.45
20:38:31.064,-0.595,0.44
20:38:31.068,-0.575,0.445
20:38:31.072,-0.55,0.445
20:38:31.076,-0.565,0.44
20:38:31.080,-0.56,0.42
20:38:31.084,-0.555,0.395
20:38:31.088,-0.53,0.39
20:38:31.092,-0.505,0.38
20:38:31.096,-0.51,0.375
20:38:31.100,-0.495,0.37
20:38:31.104,-0.48,0.36
20:38:31.108,-0.475,0.37
20:38:31.112,-0.45,0.335
20:38:31.116,-0.455,0.335
20:38:31.120,-0.455,0.34
20:38:31.124,-0.435,0.34
20:38:31.128,-0.42,0.36
20:38:31.132,-0.43,0.34
20:38:31.136,-0.42,0.36
20:38:31.140,-0.4,0.35
20:38:31.144,-0.395,0.355
20:38:31.148,-0.395,0.36
20:38:31.152,-0.39,0.345
20:38:31.156,-0.38,0.36
20:38:31.160,-0.385,0.365
20:38:31.164,-0.385,0.38
20:38:31.168,-0.37,0.37
20:38:31.172,-0.37,0.37
20:38:31.176,-0.375,0.36
20:38:31.180,-0.365,0.37
20:38:31.184,-0.395,0.355
20:38:31.188,-0.385,0.345
20:38:31.192,-0.39,0.37
20:38:31.196,-0.405,0.385
20:38:31.200,-0.405,0.365
20:38:31.204,-0.4,0.355
20:38:31.208,-0.385,0.345
20:38:31.212,-0.39,0.375
20:38:31.216,-0.385,0.345
20:38:31.220,-0.395,0.35
20:38:31.224,-0.39,0.34
20:38:31.228,-0.38,0.345
20:38:31.232,-0.39,0.355
20:38:31.236,-0.385,0.36
20:38:31.240,-0.405,0.35
20:38:31.244,-0.385,0.335
20:38:31.248,-0.385,0.345
20:38:31.252,-0.375,0.36
20:38:31.256,-0.35,0.365
20:38:31.260,-0.33,0.335
20:38:31.264,-0.32,0.35
20:38:31.268,-0.295,0.36
20:38:31.272,-0.245,0.39
20:38:31.276,-0.215,0.41
20:38:31.280,-0.195,0.39
20:38:31.284,-0.18,0.405
20:38:31.288,-0.195,0.415
20:38:31.292,-0.195,0.41
20:38:31.296,-0.19,0.41
20:38:31.300,-0.2,0.365
20:38:31.304,-0.235,0.325
20:38:31.308,-0.295,0.27
20:38:31.312,-0.33,0.295
20:38:31.316,-0.365,0.295
20:38:31.320,-0.41,0.305
20:38:31.324,-0.435,0.315
20:38:31.328,-0.44,0.33
20:38:31.332,-0.46,0.32
20:38:31.336,-0.45,0.345
20:38:31.340,-0.46,0.375
20:38:31.344,-0.45,0.355
20:38:31.348,-0.445,0.35
20:38:31.352,-0.435,0.34
20:38:31.356,-0.42,0.325
20:38:31.360,-0.41,0.325
20:38:31.364,-0.415,0.325
20:38:31.368,-0.395,0.33
20:38:31.372,-0.405,0.3
20:38:31.376,-0.39,0.31
20:38:31.380,-0.36,0.305
20:38:31.384,-0.355,0.34
20:38:31.388,-0.36,0.33
20:38:31.392,-0.35,0.32
20:38:31.396,-0.35,0.325
20:38:31.400,-0.355,0.315
20:38:31.404,-0.36,0.295
20:38:31.408,-0.34,0.29
20:38:31.412,-0.365,0.305
20:38:31.416,-0.345,0.305
20:38:31.420,-0.365,0.28
20:38:31.424,-0.39,0.25
20:38:31.428,-0.36,0.28
20:38:31.432,-0.34,0.26
20:38:31.436,-0.265,0.26
20:38:31.440,-0.215,0.26
20:38:31.444,-0.12,0.225
20:38:31.448,-0.045,0.2
20:38:31.452,0.04,0.21
20:38:31.456,0.1,0.185
20:38:31.460,0.13,0.14
20:38:31.464,0.16,0.085
20:38:31.468,0.165,0.115
20:38:31.472,0.125,0.095
20:38:31.476,0.145,0.04
20:38:31.480,0.265,-0.06
20:38:31.484,0.53,-0.21
20:38:31.488,0.845,-0.48
20:38:31.492,1.055,-0.74
20:38:31.496,1.02,-0.965
20:38:31.500,0.67,-0.965
20:38:31.504,0.21,-0.715
20:38:31.508,-0.12,-0.375
20:38:31.512,-0.265,-0.065
20:38:31.516,-0.33,0.08
20:38:31.520,-0.35,0.2
20:38:31.524,-0.375,0.27
20:38:31.528,-0.38,0.28
20:38:31.532,-0.42,0.3
20:38:31.536,-0.455,0.3
20:38:31.540,-0.465,0.28
20:38:31.544,-0.495,0.265
20:38:31.548,-0.48,0.24
20:38:31.552,-0.485,0.24
20:38:31.556,-0.47,0.22
20:38:31.560,-0.48,0.24
20:38:31.564,-0.48,0.235
20:38:31.568,-0.48,0.235
20:38:31.572,-0.465,0.225
20:38:31.576,-0.49,0.225
20:38:31.580,-0.495,0.21
20:38:31.584,-0.51,0.205
20:38:31.588,-0.505,0.195
20:38:31.592,-0.485,0.19
20:38:31.596,-0.485,0.195
20:38:31.600,-0.475,0.195
20:38:31.604,-0.495,0.175
20:38:31.608,-0.495,0.17
20:38:31.612,-0.505,0.18
20:38:31.616,-0.515,0.16
20:38:31.620,-0.51,0.16
20:38:31.624,-0.515,0.16
20:38:31.628,-0.51,0.145
20:38:31.632,-0.5,0.17
20:38:31.636,-0.52,0.125
20:38:31.640,-0.53,0.13
20:38:31.644,-0.52,0.14
20:38:31.648,-0.54,0.12
20:38:31.652,-0.535,0.12
20:38:31.656,-0.555,0.115
20:38:31.660,-0.555,0.1
20:38:31.664,-0.535,0.085
20:38:31.668,-0.52,0.075
20:38:31.672,-0.525,0.055
20:38:31.676,-0.485,0.03
20:38:31.680,-0.49,0.0
20:38:31.684,-0.485,-0.025
20:38:31.688,-0.485,-0.06
20:38:31.692,-0.49,-0.07
20:38:31.696,-0.475,-0.065
20:38:31.700,-0.465,-0.095
20:38:31.704,-0.445,-0.09
20:38:31.708,-0.44,-0.12
20:38:31.712,-0.42,-0.115
20:38:31.716,-0.37,-0.165
20:38:31.720,-0.355,-0.2
20:38:31.724,-0.365,-0.255
20:38:31.728,-0.36,-0.32
20:38:31.732,-0.315,-0.395
20:38:31.736,-0.305,-0.515
20:38:31.740,-0.32,-0.625
20:38:31.744,-0.33,-0.65
20:38:31.748,-0.305,-0.67
20:38:31.752,-0.295,-0.71
20:38:31.756,-0.265,-0.765
20:38:31.760,-0.27,-0.775
20:38:31.764,-0.255,-0.79
20:38:31.768,-0.28,-0.815
20:38:31.772,-0.265,-0.83
20:38:31.776,-0.26,-0.83
20:38:31.780,-0.28,-0.855
20:38:31.784,-0.28,-0.87
20:38:31.788,-0.255,-0.88
20:38:31.792,-0.245,-0.88
20:38:31.796,-0.235,-0.86
20:38:31.800,-0.24,-0.895
20:38:31.804,-0.24,-0.915
20:38:31.808,-0.255,-0.91
20:38:31.812,-0.245,-0.96
20:38:31.816,-0.235,-0.925
20:38:31.820,-0.265,-0.955
20:38:31.824,-0.255,-0.945
20:38:31.828,-0.24,-0.955
20:38:31.832,-0.23,-0.97
20:38:31.836,-0.26,-0.985
20:38:31.840,-0.245,-1.005
20:38:31.844,-0.23,-0.98
20:38:31.848,-0.23,-1.025
20:38:31.852,-0.22,-1.045
20:38:31.856,-0.225,-1.035
20:38:31.860,-0.255,-1.04
20:38:31.864,-0.265,-1.05
20:38:31.868,-0.25,-1.05
20:38:31.872,-0.26,-1.075
20:38:31.876,-0.245,-1.09
20:38:31.880,-0.23,-1.12
20:38:31.884,-0.24,-1.11
20:38:31.888,-0.24,-1.115
20:38:31.892,-0.265,-1.14
20:38:31.896,-0.25,-1.14
20:38:31.900,-0.225,-1.15
20:38:31.904,-0.17,-1.16
20:38:31.908,-0.13,-1.155
20:38:31.912,-0.095,-1.135
20:38:31.916,-0.095,-1.135
20:38:31.920,-0.075,-1.15
20:38:31.924,-0.065,-1.17
20:38:31.928,-0.055,-1.19
20:38:31.932,-0.06,-1.215
20:38:31.936,-0.09,-1.255
20:38:31.940,-0.145,-1.3
20:38:31.944,-0.195,-1.295
20:38:31.948,-0.21,-1.335
20:38:31.952,-0.24,-1.35
20:38:31.956,-0.26,-1.33
20:38:31.960,-0.305,-1.35
20:38:31.964,-0.29,-1.34
20:38:31.968,-0.32,-1.315
20:38:31.972,-0.33,-1.295
20:38:31.976,-0.34,-1.3
20:38:31.980,-0.32,-1.31
20:38:31.984,-0.3,-1.35
20:38:31.988,-0.325,-1.34
20:38:31.992,-0.315,-1.36
20:38:31.996,-0.32,-1.365
20:38:32.000,-0.335,-1.35
20:38:32.004,-0.34,-1.355
20:38:32.008,-0.335,-1.365
20:38:32.012,-0.355,-1.39
20:38:32.016,-0.33,-1.38
20:38:32.020,-0.32,-1.395
20:38:32.024,-0.32,-1.375
20:38:32.028,-0.345,-1.41
20:38:32.032,-0.32,-1.39
20:38:32.036,-0.305,-1.4
20:38:32.040,-0.33,-1.39
20:38:32.044,-0.33,-1.425
20:38:32.048,-0.365,-1.415
20:38:32.052,-0.34,-1.41
20:38:32.056,-0.295,-1.4
20:38:32.060,-0.305,-1.43
20:38:32.064,-0.29,-1.42
20:38:32.068,-0.275,-1.425
20:38:32.072,-0.225,-1.43
20:38:32.076,-0.18,-1.425
20:38:32.080,-0.07,-1.43
20:38:32.084,0.015,-1.41
20:38:32.088,0.095,-1.445
20:38:32.092,0.19,-1.46
20:38:32.096,0.245,-1.51
20:38:32.100,0.26,-1.55
20:38:32.104,0.3,-1.53
20:38:32.108,0.27,-1.555
20:38:32.112,0.265,-1.615
20:38:32.116,0.385,-1.675
20:38:32.120,0.625,-1.85
20:38:32.124,0.935,-2.07
20:38:32.128,1.085,-2.315
20:38:32.132,0.97,-2.475
20:38:32.136,0.605,-2.485
20:38:32.140,0.14,-2.245
20:38:32.144,-0.155,-1.885
20:38:32.148,-0.29,-1.635
20:38:32.152,-0.34,-1.47
20:38:32.156,-0.345,-1.365
20:38:32.160,-0.375,-1.265
20:38:32.164,-0.405,-1.235
20:38:32.168,-0.445,-1.19
20:38:32.172,-0.445,-1.19
20:38:32.176,-0.45,-1.2
20:38:32.180,-0.48,-1.175
20:38:32.184,-0.475,-1.2
20:38:32.188,-0.475,-1.175
20:38:32.192,-0.475,-1.185
20:38:32.196,-0.48,-1.175
20:38:32.200,-0.495,-1.145
20:38:32.204,-0.48,-1.15
20:38:32.208,-0.475,-1.14
20:38:32.212,-0.47,-1.125
20:38:32.216,-0.48,-1.095
20:38:32.220,-0.525,-1.07
20:38:32.224,-0.5,-1.085
20:38:32.228,-0.49,-1.04
20:38:32.232,-0.51,-1.04
20:38:32.236,-0.525,-1.03
20:38:32.240,-0.505,-1.03
20:38:32.244,-0.52,-1.015
20:38:32.248,-0.525,-1.005
20:38:32.252,-0.545,-1.005
20:38:32.256,-0.535,-0.995
20:38:32.260,-0.53,-0.97
20:38:32.264,-0.53,-0.95
20:38:32.268,-0.545,-0.93
20:38:32.272,-0.55,-0.915
20:38:32.276,-0.55,-0.88
20:38:32.280,-0.55,-0.88
20:38:32.284,-0.55,-0.84
20:38:32.288,-0.55,-0.81
20:38:32.292,-0.535,-0.815
20:38:32.296,-0.52,-0.775
20:38:32.300,-0.525,-0.76
20:38:32.304,-0.51,-0.735
20:38:32.308,-0.505,-0.735
20:38:32.312,-0.505,-0.705
20:38:32.316,-0.515,-0.69
20:38:32.320,-0.515,-0.67
20:38:32.324,-0.485,-0.655
20:38:32.328,-0.475,-0.65
20:38:32.332,-0.465,-0.625
20:38:32.336,-0.445,-0.6
20:38:32.340,-0.44,-0.575
20:38:32.344,-0.435,-0.545
20:38:32.348,-0.435,-0.5
20:38:32.352,-0.42,-0.44
20:38:32.356,-0.43,-0.39
20:38:32.360,-0.415,-0.37
20:38:32.364,-0.39,-0.37
20:38:32.368,-0.39,-0.34
20:38:32.372,-0.37,-0.345
20:38:32.376,-0.36,-0.32
20:38:32.380,-0.355,-0.315
20:38:32.384,-0.315,-0.295
20:38:32.388,-0.31,-0.28
20:38:32.392,-0.315,-0.265
20:38:32.396,-0.315,-0.23
20:38:32.400,-0.3,-0.2
20:38:32.404,-0.265,-0.18
20:38:32.408,-0.26,-0.185
20:38:32.412,-0.26,-0.14
20:38:32.416,-0.245,-0.125
20:38:32.420,-0.245,-0.095
20:38:32.424,-0.265,-0.075
20:38:32.428,-0.265,-0.02
20:38:32.432,-0.25,-0.015
20:38:32.436,-0.25,0.0
20:38:32.440,-0.25,0.005
20:38:32.444,-0.24,0.01
20:38:32.448,-0.26,0.03
20:38:32.452,-0.265,0.035
20:38:32.456,-0.27,0.05
20:38:32.460,-0.275,0.055
20:38:32.464,-0.295,0.065
20:38:32.468,-0.295,0.06
20:38:32.472,-0.265,0.065
20:38:32.476,-0.25,0.08
20:38:32.480,-0.26,0.09
20:38:32.484,-0.245,0.09
20:38:32.488,-0.255,0.08
20:38:32.492,-0.24,0.1
20:38:32.496,-0.275,0.09
20:38:32.500,-0.28,0.085
20:38:32.504,-0.28,0.09
20:38:32.508,-0.26,0.12
20:38:32.512,-0.26,0.125
20:38:32.516,-0.225,0.145
20:38:32.520,-0.24,0.14
20:38:32.524,-0.235,0.155
20:38:32.528,-0.24,0.16
20:38:32.532,-0.225,0.165
20:38:32.536,-0.225,0.175
20:38:32.540,-0.225,0.205
20:38:32.544,-0.21,0.19
20:38:32.548,-0.19,0.21
20:38:32.552,-0.16,0.205
20:38:32.556,-0.12,0.22
20:38:32.560,-0.095,0.255
20:38:32.564,-0.09,0.27
20:38:32.568,-0.08,0.28
20:38:32.572,-0.06,0.27
20:38:32.576,-0.08,0.27
20:38:32.580,-0.075,0.28
20:38:32.584,-0.095,0.26
20:38:32.588,-0.115,0.21
20:38:32.592,-0.18,0.175
20:38:32.596,-0.215,0.135
20:38:32.600,-0.225,0.115
20:38:32.604,-0.27,0.135
20:38:32.608,-0.3,0.165
20:38:32.612,-0.335,0.2
20:38:32.616,-0.33,0.195
20:38:32.620,-0.34,0.21
20:38:32.624,-0.355,0.23
20:38:32.628,-0.35,0.225
20:38:32.632,-0.36,0.245
20:38:32.636,-0.345,0.235
20:38:32.640,-0.32,0.21
20:38:32.644,-0.33,0.215
20:38:32.648,-0.35,0.235
20:38:32.652,-0.345,0.235
20:38:32.656,-0.34,0.235
20:38:32.660,-0.325,0.22
20:38:32.664,-0.33,0.255
20:38:32.668,-0.32,0.23
20:38:32.672,-0.315,0.255
20:38:32.676,-0.315,0.24
20:38:32.680,-0.32,0.23
20:38:32.684,-0.345,0.255
20:38:32.688,-0.335,0.255
20:38:32.692,-0.335,0.25
20:38:32.696,-0.34,0.265
20:38:32.700,-0.345,0.26
20:38:32.704,-0.33,0.28
20:38:32.708,-0.32,0.25
20:38:32.712,-0.305,0.22
20:38:32.716,-0.295,0.265
20:38:32.720,-0.27,0.26
20:38:32.724,-0.22,0.23
20:38:32.728,-0.18,0.255
20:38:32.732,-0.085,0.25
20:38:32.736,0.0,0.235
20:38:32.740,0.035,0.22
20:38:32.744,0.1,0.175
20:38:32.748,0.155,0.135
20:38:32.752,0.15,0.125
20:38:32.756,0.135,0.095
20:38:32.760,0.125,0.035
20:38:32.764,0.23,-0.09
20:38:32.768,0.45,-0.24
20:38:32.772,0.785,-0.47
20:38:32.776,1.025,-0.705
20:38:32.780,1.05,-0.925
20:38:32.784,0.805,-0.965
20:38:32.788,0.345,-0.75
20:38:32.792,-0.075,-0.355
20:38:32.796,-0.28,-0.045
20:38:32.800,-0.35,0.165
20:38:32.804,-0.41,0.275
20:38:32.808,-0.42,0.36
20:38:32.812,-0.455,0.39
20:38:32.816,-0.475,0.415
20:38:32.820,-0.495,0.435
20:38:32.824,-0.49,0.43
20:38:32.828,-0.505,0.39
20:38:32.832,-0.5,0.4
20:38:32.836,-0.505,0.38
20:38:32.840,-0.52,0.37
20:38:32.844,-0.505,0.38
20:38:32.848,-0.5,0.38
20:38:32.852,-0.51,0.375
20:38:32.856,-0.505,0.38
20:38:32.860,-0.515,0.39
20:38:32.864,-0.515,0.385
20:38:32.868,-0.53,0.39
20:38:32.872,-0.545,0.39
20:38:32.876,-0.515,0.405
20:38:32.880,-0.53,0.4
20:38:32.884,-0.535,0.405
20:38:32.888,-0.555,0.39
20:38:32.892,-0.52,0.39
20:38:32.896,-0.55,0.415
20:38:32.900,-0.555,0.405
20:38:32.904,-0.555,0.395
20:38:32.908,-0.565,0.395
20:38:32.912,-0.57,0.41
20:38:32.916,-0.595,0.405
20:38:32.920,-0.6,0.42
20:38:32.924,-0.625,0.405
20:38:32.928,-0.62,0.385
20:38:32.932,-0.615,0.39
20:38:32.936,-0.595,0.405
20:38:32.940,-0.615,0.415
20:38:32.944,-0.63,0.395
20:38:32.948,-0.63,0.38
20:38:32.952,-0.61,0.41
20:38:32.956,-0.625,0.4
20:38:32.960,-0.64,0.39
20:38:32.964,-0.625,0.39
20:38:32.968,-0.61,0.385
20:38:32.972,-0.59,0.38
20:38:32.976,-0.58,0.38
20:38:32.980,-0.555,0.37
20:38:32.984,-0.555,0.38
20:38:32.988,-0.545,0.395
20:38:32.992,-0.515,0.37
20:38:32.996,-0.515,0.365
20:38:33.000,-0.505,0.355
20:38:33.004,-0.495,0.35
20:38:33.008,-0.485,0.355
20:38:33.012,-0.475,0.365
20:38:33.016,-0.45,0.33
20:38:33.020,-0.45,0.325
20:38:33.024,-0.45,0.32
20:38:33.028,-0.435,0.32
20:38:33.032,-0.42,0.32
20:38:33.036,-0.435,0.31
20:38:33.040,-0.42,0.3
20:38:33.044,-0.4,0.295
20:38:33.048,-0.38,0.315
20:38:33.052,-0.37,0.305
20:38:33.056,-0.395,0.32
20:38:33.060,-0.37,0.3
20:38:33.064,-0.375,0.295
20:38:33.068,-0.375,0.29
20:38:33.072,-0.375,0.295
20:38:33.076,-0.38,0.31
20:38:33.080,-0.365,0.32
20:38:33.084,-0.38,0.335
20:38:33.088,-0.38,0.33
20:38:33.092,-0.37,0.31
20:38:33.096,-0.355,0.315
20:38:33.100,-0.355,0.335
20:38:33.104,-0.345,0.335
20:38:33.108,-0.35,0.345
20:38:33.112,-0.36,0.355
20:38:33.116,-0.335,0.375
20:38:33.120,-0.365,0.37
20:38:33.124,-0.35,0.365
20:38:33.128,-0.35,0.36
20:38:33.132,-0.37,0.355
20:38:33.136,-0.37,0.36
20:38:33.140,-0.385,0.345
20:38:33.144,-0.39,0.365
20:38:33.148,-0.395,0.345
20:38:33.152,-0.41,0.355
20:38:33.156,-0.41,0.355
20:38:33.160,-0.395,0.34
20:38:33.164,-0.385,0.35
20:38:33.168,-0.385,0.35
20:38:33.172,-0.395,0.335
20:38:33.176,-0.395,0.33
20:38:33.180,-0.395,0.31
20:38:33.184,-0.405,0.335
20:38:33.188,-0.39,0.35
20:38:33.192,-0.345,0.335
20:38:33.196,-0.335,0.34
20:38:33.200,-0.3,0.335
20:38:33.204,-0.25,0.35
20:38:33.208,-0.215,0.38
20:38:33.212,-0.215,0.37
20:38:33.216,-0.195,0.39
20:38:33.220,-0.21,0.385
20:38:33.224,-0.195,0.38
20:38:33.228,-0.205,0.38
20:38:33.232,-0.235,0.36
20:38:33.236,-0.265,0.295
20:38:33.240,-0.31,0.27
20:38:33.244,-0.335,0.275
20:38:33.248,-0.385,0.29
20:38:33.252,-0.42,0.285
20:38:33.256,-0.445,0.31
20:38:33.260,-0.46,0.335
20:38:33.264,-0.5,0.335
20:38:33.268,-0.49,0.365
20:38:33.272,-0.49,0.345
20:38:33.276,-0.49,0.34
20:38:33.280,-0.475,0.36
20:38:33.284,-0.495,0.34
20:38:33.288,-0.475,0.325
20:38:33.292,-0.465,0.32
20:38:33.296,-0.46,0.31
20:38:33.300,-0.44,0.315
20:38:33.304,-0.435,0.315
20:38:33.308,-0.445,0.325
20:38:33.312,-0.445,0.31
20:38:33.316,-0.45,0.33
20:38:33.320,-0.45,0.33
20:38:33.324,-0.425,0.315
20:38:33.328,-0.41,0.315
20:38:33.332,-0.415,0.33
20:38:33.336,-0.425,0.31
20:38:33.340,-0.415,0.315
20:38:33.344,-0.415,0.345
20:38:33.348,-0.4,0.345
20:38:33.352,-0.405,0.33
20:38:33.356,-0.39,0.34
20:38:33.360,-0.375,0.32
20:38:33.364,-0.375,0.305
20:38:33.368,-0.32,0.315
20:38:33.372,-0.26,0.3
20:38:33.376,-0.175,0.31
20:38:33.380,-0.105,0.29
20:38:33.384,-0.025,0.265
20:38:33.388,0.005,0.225
20:38:33.392,0.02,0.18
20:38:33.396,0.03,0.18
20:38:33.400,0.03,0.14
20:38:33.404,0.015,0.105
20:38:33.408,0.085,-0.005
20:38:33.412,0.275,-0.19
20:38:33.416,0.57,-0.4
20:38:33.420,0.88,-0.655
20:38:33.424,1.02,-0.89
20:38:33.428,0.87,-0.99
20:38:33.432,0.46,-0.87
20:38:33.436,0.0,-0.5
20:38:33.440,-0.285,-0.12
20:38:33.444,-0.395,0.14
20:38:33.448,-0.425,0.29
20:38:33.452,-0.445,0.39
20:38:33.456,-0.46,0.44
20:38:33.460,-0.505,0.48
20:38:33.464,-0.515,0.505
20:38:33.468,-0.51,0.52
20:38:33.472,-0.51,0.5
20:38:33.476,-0.515,0.5
20:38:33.480,-0.495,0.48
20:38:33.484,-0.505,0.465
20:38:33.488,-0.52,0.475
20:38:33.492,-0.535,0.445
20:38:33.496,-0.535,0.46
20:38:33.500,-0.535,0.46
20:38:33.504,-0.555,0.475
20:38:33.508,-0.535,0.465
20:38:33.512,-0.54,0.47
20:38:33.516,-0.545,0.455
20:38:33.520,-0.54,0.45
20:38:33.524,-0.545,0.445
20:38:33.528,-0.535,0.43
20:38:33.532,-0.53,0.43
20:38:33.536,-0.535,0.46
20:38:33.540,-0.55,0.445
20:38:33.544,-0.56,0.44
20:38:33.548,-0.58,0.42
20:38:33.552,-0.56,0.435
20:38:33.556,-0.56,0.425
20:38:33.560,-0.55,0.435
20:38:33.564,-0.545,0.405
20:38:33.568,-0.555,0.435
20:38:33.572,-0.555,0.43
20:38:33.576,-0.555,0.455
20:38:33.580,-0.555,0.42
20:38:33.584,-0.55,0.425
20:38:33.588,-0.57,0.44
20:38:33.592,-0.57,0.45
20:38:33.596,-0.545,0.43
20:38:33.600,-0.55,0.405
20:38:33.604,-0.545,0.375
20:38:33.608,-0.53,0.395
20:38:33.612,-0.53,0.395
20:38:33.616,-0.52,0.385
20:38:33.620,-0.52,0.375
20:38:33.624,-0.52,0.355
20:38:33.628,-0.5,0.35
20:38:33.632,-0.52,0.34
20:38:33.636,-0.495,0.325
20:38:33.640,-0.485,0.305
20:38:33.644,-0.475,0.315
20:38:33.648,-0.42,0.29
20:38:33.652,-0.43,0.295
20:38:33.656,-0.435,0.27
20:38:33.660,-0.425,0.27
20:38:33.664,-0.415,0.27
20:38:33.668,-0.395,0.26
20:38:33.672,-0.365,0.265
20:38:33.676,-0.345,0.255
20:38:33.680,-0.355,0.25
20:38:33.684,-0.335,0.24
20:38:33.688,-0.3,0.23
20:38:33.692,-0.315,0.235
20:38:33.696,-0.29,0.24
20:38:33.700,-0.295,0.21
20:38:33.704,-0.3,0.215
20:38:33.708,-0.3,0.185
20:38:33.712,-0.28,0.185
20:38:33.716,-0.28,0.195
20:38:33.720,-0.3,0.185
20:38:33.724,-0.31,0.195
20:38:33.728,-0.305,0.17
20:38:33.732,-0.285,0.195
20:38:33.736,-0.28,0.18
20:38:33.740,-0.275,0.185
20:38:33.744,-0.29,0.155
20:38:33.748,-0.31,0.18
20:38:33.752,-0.3,0.16
20:38:33.756,-0.27,0.165
20:38:33.760,-0.285,0.18
20:38:33.764,-0.285,0.175
20:38:33.768,-0.285,0.185
20:38:33.772,-0.28,0.185
20:38:33.776,-0.27,0.16
20:38:33.780,-0.28,0.16
20:38:33.784,-0.295,0.16
20:38:33.788,-0.3,0.165
20:38:33.792,-0.26,0.15
20:38:33.796,-0.26,0.15
20:38:33.800,-0.27,0.145
20:38:33.804,-0.295,0.145
20:38:33.808,-0.26,0.13
20:38:33.812,-0.255,0.135
20:38:33.816,-0.25,0.13
20:38:33.820,-0.25,0.105
20:38:33.824,-0.28,0.1
20:38:33.828,-0.25,0.07
20:38:33.832,-0.225,0.035
20:38:33.836,-0.19,0.02
20:38:33.840,-0.15,0.015
20:38:33.844,-0.115,-0.01
20:38:33.848,-0.11,0.0
20:38:33.852,-0.11,-0.01
20:38:33.856,-0.095,-0.04
20:38:33.860,-0.11,-0.04
20:38:33.864,-0.1,-0.075
20:38:33.868,-0.125,-0.13
20:38:33.872,-0.17,-0.14
20:38:33.876,-0.215,-0.195
20:38:33.880,-0.25,-0.2
20:38:33.884,-0.28,-0.22
20:38:33.888,-0.305,-0.24
20:38:33.892,-0.3,-0.315
20:38:33.896,-0.34,-0.44
20:38:33.900,-0.345,-0.535
20:38:33.904,-0.345,-0.595
20:38:33.908,-0.335,-0.655
20:38:33.912,-0.335,-0.695
20:38:33.916,-0.335,-0.725
20:38:33.920,-0.33,-0.735
20:38:33.924,-0.325,-0.765
20:38:33.928,-0.345,-0.805
20:38:33.932,-0.32,-0.78
20:38:33.936,-0.335,-0.81
20:38:33.940,-0.335,-0.83
20:38:33.944,-0.345,-0.84
20:38:33.948,-0.34,-0.865
20:38:33.952,-0.335,-0.88
20:38:33.956,-0.355,-0.915
20:38:33.960,-0.37,-0.91
20:38:33.964,-0.345,-0.925
20:38:33.968,-0.335,-0.93
20:38:33.972,-0.32,-0.935
20:38:33.976,-0.3,-0.95
20:38:33.980,-0.33,-0.955
20:38:33.984,-0.34,-1.0
20:38:33.988,-0.3,-0.965
20:38:33.992,-0.3,-0.98
20:38:33.996,-0.295,-0.985
20:38:34.000,-0.27,-0.99
20:38:34.004,-0.225,-1.015
20:38:34.008,-0.145,-1.025
20:38:34.012,-0.035,-1.03
20:38:34.016,0.065,-1.04
20:38:34.020,0.155,-1.07
20:38:34.024,0.215,-1.14
20:38:34.028,0.27,-1.16
20:38:34.032,0.275,-1.15
20:38:34.036,0.255,-1.175
20:38:34.040,0.24,-1.225
20:38:34.044,0.31,-1.315
20:38:34.048,0.5,-1.44
20:38:34.052,0.78,-1.65
20:38:34.056,1.02,-1.905
20:38:34.060,1.065,-2.13
20:38:34.064,0.81,-2.215
20:38:34.068,0.345,-2.055
20:38:34.072,-0.065,-1.74
20:38:34.076,-0.25,-1.455
20:38:34.080,-0.335,-1.3
20:38:34.084,-0.39,-1.205
20:38:34.088,-0.41,-1.115
20:38:34.092,-0.415,-1.065
20:38:34.096,-0.44,-1.025
20:38:34.100,-0.46,-1.065
20:38:34.104,-0.475,-1.055
20:38:34.108,-0.505,-1.08
20:38:34.112,-0.505,-1.105
20:38:34.116,-0.505,-1.105
20:38:34.120,-0.515,-1.135
20:38:34.124,-0.515,-1.105
20:38:34.128,-0.51,-1.12
20:38:34.132,-0.505,-1.145
20:38:34.136,-0.5,-1.12
20:38:34.140,-0.495,-1.12
20:38:34.144,-0.51,-1.14
20:38:34.148,-0.515,-1.125
20:38:34.152,-0.52,-1.14
20:38:34.156,-0.51,-1.135
20:38:34.160,-0.51,-1.145
20:38:34.164,-0.505,-1.15
20:38:34.168,-0.53,-1.125
20:38:34.172,-0.53,-1.14
20:38:34.176,-0.53,-1.12
20:38:34.180,-0.525,-1.135
20:38:34.184,-0.54,-1.135
20:38:34.188,-0.565,-1.12
20:38:34.192,-0.58,-1.13
20:38:34.196,-0.58,-1.125
20:38:34.200,-0.56,-1.14
20:38:34.204,-0.55,-1.14
20:38:34.208,-0.545,-1.11
20:38:34.212,-0.565,-1.12
20:38:34.216,-0.57,-1.145
20:38:34.220,-0.57,-1.115
20:38:34.224,-0.58,-1.11
20:38:34.228,-0.595,-1.125
20:38:34.232,-0.58,-1.095
20:38:34.236,-0.58,-1.08
20:38:34.240,-0.575,-1.075
20:38:34.244,-0.535,-1.08
20:38:34.248,-0.52,-1.07
20:38:34.252,-0.495,-1.055
20:38:34.256,-0.5,-1.07
20:38:34.260,-0.505,-1.065
20:38:34.264,-0.495,-1.045
20:38:34.268,-0.49,-1.05
20:38:34.272,-0.48,-1.085
20:38:34.276,-0.465,-1.04
20:38:34.280,-0.445,-1.06
20:38:34.284,-0.425,-1.06
20:38:34.288,-0.435,-1.045
20:38:34.292,-0.42,-1.075
20:38:34.296,-0.42,-1.06
20:38:34.300,-0.395,-1.03
20:38:34.304,-0.385,-1.06
20:38:34.308,-0.38,-1.06
20:38:34.312,-0.38,-1.04
20:38:34.316,-0.355,-1.025
20:38:34.320,-0.355,-1.035
20:38:34.324,-0.34,-1.015
20:38:34.328,-0.355,-0.98
20:38:34.332,-0.35,-0.985
20:38:34.336,-0.325,-0.99
20:38:34.340,-0.325,-0.975
20:38:34.344,-0.32,-0.95
20:38:34.348,-0.305,-0.935
20:38:34.352,-0.33,-0.935
20:38:34.356,-0.32,-0.91
20:38:34.360,-0.31,-0.875
20:38:34.364,-0.295,-0.865
20:38:34.368,-0.295,-0.86
20:38:34.372,-0.3,-0.83
20:38:34.376,-0.295,-0.8
20:38:34.380,-0.285,-0.77
20:38:34.384,-0.295,-0.75
20:38:34.388,-0.295,-0.71
20:38:34.392,-0.315,-0.7
20:38:34.396,-0.305,-0.685
20:38:34.400,-0.3,-0.64
20:38:34.404,-0.3,-0.61
20:38:34.408,-0.3,-0.54
20:38:34.412,-0.315,-0.455
20:38:34.416,-0.3,-0.41
20:38:34.420,-0.31,-0.375
20:38:34.424,-0.325,-0.355
20:38:34.428,-0.31,-0.345
20:38:34.432,-0.3,-0.345
20:38:34.436,-0.315,-0.32
20:38:34.440,-0.31,-0.31
20:38:34.444,-0.325,-0.3
20:38:34.448,-0.3,-0.26
20:38:34.452,-0.31,-0.24
20:38:34.456,-0.295,-0.215
20:38:34.460,-0.29,-0.185
20:38:34.464,-0.275,-0.155
20:38:34.468,-0.27,-0.13
20:38:34.472,-0.22,-0.08
20:38:34.476,-0.185,-0.035
20:38:34.480,-0.16,0.02
20:38:34.484,-0.13,0.055
20:38:34.488,-0.12,0.065
20:38:34.492,-0.115,0.11
20:38:34.496,-0.11,0.115
20:38:34.500,-0.085,0.165
20:38:34.504,-0.09,0.175
20:38:34.508,-0.115,0.165
20:38:34.512,-0.17,0.12
20:38:34.516,-0.22,0.13
20:38:34.520,-0.24,0.125
20:38:34.524,-0.26,0.135
20:38:34.528,-0.31,0.13
20:38:34.532,-0.355,0.14
20:38:34.536,-0.375,0.165
20:38:34.540,-0.39,0.21
20:38:34.544,-0.4,0.225
20:38:34.548,-0.375,0.255
20:38:34.552,-0.39,0.235
20:38:34.556,-0.37,0.235
20:38:34.560,-0.375,0.25
20:38:34.564,-0.39,0.235
20:38:34.568,-0.38,0.24
20:38:34.572,-0.38,0.24
20:38:34.576,-0.38,0.255
20:38:34.580,-0.365,0.23
20:38:34.584,-0.375,0.25
20:38:34.588,-0.365,0.25
20:38:34.592,-0.365,0.24
20:38:34.596,-0.35,0.245
20:38:34.600,-0.355,0.225
20:38:34.604,-0.36,0.23
20:38:34.608,-0.34,0.225
20:38:34.612,-0.36,0.225
20:38:34.616,-0.35,0.245
20:38:34.620,-0.345,0.245
20:38:34.624,-0.355,0.25
20:38:34.628,-0.36,0.255
20:38:34.632,-0.365,0.26
20:38:34.636,-0.355,0.265
20:38:34.640,-0.32,0.245
20:38:34.644,-0.265,0.245
20:38:34.648,-0.195,0.255
20:38:34.652,-0.095,0.25
20:38:34.656,-0.03,0.235
20:38:34.660,0.04,0.19
20:38:34.664,0.07,0.145
20:38:34.668,0.09,0.135
20:38:34.672,0.105,0.13
20:38:34.676,0.085,0.095
20:38:34.680,0.085,0.045
20:38:34.684,0.195,-0.08
20:38:34.688,0.445,-0.265
20:38:34.692,0.765,-0.495
20:38:34.696,1.015,-0.72
20:38:34.700,1.0,-0.905
20:38:34.704,0.705,-0.91
20:38:34.708,0.215,-0.685
20:38:34.712,-0.16,-0.3
20:38:34.716,-0.365,0.0
20:38:34.720,-0.44,0.175
20:38:34.724,-0.47,0.31
20:38:34.728,-0.475,0.38
20:38:34.732,-0.49,0.41
20:38:34.736,-0.52,0.41
20:38:34.740,-0.535,0.425
20:38:34.744,-0.545,0.44
20:38:34.748,-0.535,0.43
20:38:34.752,-0.53,0.39
20:38:34.756,-0.555,0.38
20:38:34.760,-0.585,0.375
20:38:34.764,-0.595,0.39
20:38:34.768,-0.61,0.405
20:38:34.772,-0.61,0.39
20:38:34.776,-0.605,0.385
20:38:34.780,-0.615,0.395
20:38:34.784,-0.595,0.38
20:38:34.788,-0.585,0.375
20:38:34.792,-0.58,0.39
20:38:34.796,-0.58,0.38
20:38:34.800,-0.6,0.395
20:38:34.804,-0.605,0.37
20:38:34.808,-0.615,0.385
20:38:34.812,-0.62,0.38
20:38:34.816,-0.635,0.385
20:38:34.820,-0.63,0.4
20:38:34.824,-0.605,0.41
20:38:34.828,-0.615,0.42
20:38:34.832,-0.62,0.43
20:38:34.836,-0.63,0.42
20:38:34.840,-0.64,0.415
20:38:34.844,-0.655,0.42
20:38:34.848,-0.655,0.42
20:38:34.852,-0.655,0.425
20:38:34.856,-0.645,0.415
20:38:34.860,-0.64,0.435
20:38:34.864,-0.66,0.43
20:38:34.868,-0.65,0.43
20:38:34.872,-0.645,0.42
20:38:34.876,-0.665,0.42
20:38:34.880,-0.66,0.415
20:38:34.884,-0.64,0.405
20:38:34.888,-0.63,0.415
20:38:34.892,-0.64,0.42
20:38:34.896,-0.63,0.36
20:38:34.900,-0.61,0.395
20:38:34.904,-0.61,0.39
20:38:34.908,-0.605,0.38
20:38:34.912,-0.59,0.34
20:38:34.916,-0.565,0.355
20:38:34.920,-0.56,0.35
20:38:34.924,-0.55,0.355
20:38:34.928,-0.54,0.35
20:38:34.932,-0.52,0.355
20:38:34.936,-0.505,0.32
20:38:34.940,-0.47,0.315
20:38:34.944,-0.495,0.315
20:38:34.948,-0.48,0.315
20:38:34.952,-0.48,0.315
20:38:34.956,-0.46,0.305
20:38:34.960,-0.445,0.31
20:38:34.964,-0.445,0.31
20:38:34.968,-0.45,0.29
20:38:34.972,-0.43,0.31
20:38:34.976,-0.435,0.31
20:38:34.980,-0.44,0.29
20:38:34.984,-0.43,0.295
20:38:34.988,-0.45,0.305
20:38:34.992,-0.435,0.295
20:38:34.996,-0.455,0.295
20:38:35.000,-0.44,0.3
20:38:35.004,-0.44,0.27
20:38:35.008,-0.435,0.255
20:38:35.012,-0.43,0.265
20:38:35.016,-0.445,0.28
20:38:35.020,-0.425,0.285
20:38:35.024,-0.445,0.285
20:38:35.028,-0.435,0.315
20:38:35.032,-0.435,0.3
20:38:35.036,-0.455,0.3
20:38:35.040,-0.445,0.315
20:38:35.044,-0.46,0.305
20:38:35.048,-0.435,0.3
20:38:35.052,-0.425,0.31
20:38:35.056,-0.45,0.31
20:38:35.060,-0.435,0.315
20:38:35.064,-0.45,0.325
20:38:35.068,-0.445,0.325
20:38:35.072,-0.45,0.33
20:38:35.076,-0.43,0.32
20:38:35.080,-0.445,0.305
20:38:35.084,-0.465,0.34
20:38:35.088,-0.425,0.34
20:38:35.092,-0.435,0.325
20:38:35.096,-0.43,0.335
20:38:35.100,-0.43,0.325
20:38:35.104,-0.42,0.33
20:38:35.108,-0.405,0.33
20:38:35.112,-0.41,0.33
20:38:35.116,-0.385,0.34
20:38:35.120,-0.335,0.345
20:38:35.124,-0.32,0.35
20:38:35.128,-0.28,0.365
20:38:35.132,-0.27,0.36
20:38:35.136,-0.27,0.375
20:38:35.140,-0.265,0.355
20:38:35.144,-0.26,0.375
20:38:35.148,-0.27,0.355
20:38:35.152,-0.27,0.32
20:38:35.156,-0.31,0.28
20:38:35.160,-0.38,0.265
20:38:35.164,-0.415,0.28
20:38:35.168,-0.43,0.285
20:38:35.172,-0.465,0.29
20:38:35.176,-0.49,0.295
20:38:35.180,-0.505,0.315
20:38:35.184,-0.525,0.325
20:38:35.188,-0.525,0.355
20:38:35.192,-0.52,0.35
20:38:35.196,-0.525,0.345
20:38:35.200,-0.51,0.35
20:38:35.204,-0.5,0.335
20:38:35.208,-0.5,0.345
20:38:35.212,-0.495,0.35
20:38:35.216,-0.5,0.32
20:38:35.220,-0.51,0.305
20:38:35.224,-0.515,0.335
20:38:35.228,-0.52,0.32
20:38:35.232,-0.515,0.31
20:38:35.236,-0.52,0.325
20:38:35.240,-0.51,0.3
20:38:35.244,-0.51,0.3
20:38:35.248,-0.495,0.305
20:38:35.252,-0.51,0.3
20:38:35.256,-0.505,0.285
20:38:35.260,-0.48,0.32
20:38:35.264,-0.47,0.305
20:38:35.268,-0.475,0.315
20:38:35.272,-0.465,0.3
20:38:35.276,-0.46,0.32
20:38:35.280,-0.44,0.32
20:38:35.284,-0.4,0.31
20:38:35.288,-0.355,0.31
20:38:35.292,-0.27,0.32
20:38:35.296,-0.215,0.285
20:38:35.300,-0.145,0.28
20:38:35.304,-0.085,0.26
20:38:35.308,-0.05,0.195
20:38:35.312,-0.03,0.165
20:38:35.316,-0.02,0.17
20:38:35.320,-0.07,0.14
20:38:35.324,-0.05,0.06
20:38:35.328,0.065,-0.07
20:38:35.332,0.295,-0.28
20:38:35.336,0.62,-0.535
20:38:35.340,0.85,-0.765
20:38:35.344,0.885,-0.97
20:38:35.348,0.62,-0.98
20:38:35.352,0.155,-0.71
20:38:35.356,-0.25,-0.31
20:38:35.360,-0.45,0.01
20:38:35.364,-0.54,0.2
20:38:35.368,-0.56,0.3
20:38:35.372,-0.585,0.35
20:38:35.376,-0.585,0.395
20:38:35.380,-0.615,0.42
20:38:35.384,-0.61,0.43
20:38:35.388,-0.62,0.415
20:38:35.392,-0.6,0.42
20:38:35.396,-0.615,0.405
20:38:35.400,-0.61,0.415
20:38:35.404,-0.6,0.405
20:38:35.408,-0.6,0.39
20:38:35.412,-0.6,0.41
20:38:35.416,-0.61,0.415
20:38:35.420,-0.615,0.41
20:38:35.424,-0.615,0.42
20:38:35.428,-0.63,0.395
20:38:35.432,-0.63,0.41
20:38:35.436,-0.635,0.405
20:38:35.440,-0.64,0.395
20:38:35.444,-0.655,0.415
20:38:35.448,-0.68,0.385
20:38:35.452,-0.67,0.4
20:38:35.456,-0.665,0.39
20:38:35.460,-0.665,0.4
20:38:35.464,-0.665,0.4
20:38:35.468,-0.675,0.385
20:38:35.472,-0.67,0.39
20:38:35.476,-0.67,0.375
20:38:35.480,-0.665,0.385
20:38:35.484,-0.645,0.38
20:38:35.488,-0.66,0.37
20:38:35.492,-0.67,0.37
20:38:35.496,-0.685,0.38
20:38:35.500,-0.67,0.38
20:38:35.504,-0.655,0.365
20:38:35.508,-0.655,0.385
20:38:35.512,-0.66,0.38
20:38:35.516,-0.655,0.395
20:38:35.520,-0.64,0.39
20:38:35.524,-0.63,0.395
20:38:35.528,-0.63,0.375
20:38:35.532,-0.62,0.385
20:38:35.536,-0.625,0.395
20:38:35.540,-0.595,0.39
20:38:35.544,-0.615,0.375
20:38:35.548,-0.605,0.37
20:38:35.552,-0.6,0.375
20:38:35.556,-0.59,0.38
20:38:35.560,-0.59,0.355
20:38:35.564,-0.575,0.365
20:38:35.568,-0.56,0.34
20:38:35.572,-0.555,0.34
20:38:35.576,-0.52,0.325
20:38:35.580,-0.5,0.31
20:38:35.584,-0.51,0.285
20:38:35.588,-0.485,0.27
20:38:35.592,-0.48,0.26
20:38:35.596,-0.48,0.255
20:38:35.600,-0.46,0.265
20:38:35.604,-0.44,0.275
20:38:35.608,-0.43,0.265
20:38:35.612,-0.44,0.24
20:38:35.616,-0.395,0.25
20:38:35.620,-0.415,0.25
20:38:35.624,-0.39,0.265
20:38:35.628,-0.39,0.275
20:38:35.632,-0.4,0.26
20:38:35.636,-0.39,0.28
20:38:35.640,-0.4,0.265
20:38:35.644,-0.39,0.28
20:38:35.648,-0.385,0.285
20:38:35.652,-0.38,0.275
20:38:35.656,-0.375,0.29
20:38:35.660,-0.39,0.28
20:38:35.664,-0.4,0.285
20:38:35.668,-0.415,0.27
20:38:35.672,-0.415,0.29
20:38:35.676,-0.415,0.28
20:38:35.680,-0.405,0.28
20:38:35.684,-0.415,0.27
20:38:35.688,-0.415,0.25
20:38:35.692,-0.415,0.255
20:38:35.696,-0.425,0.265
20:38:35.700,-0.425,0.245
20:38:35.704,-0.42,0.235
20:38:35.708,-0.41,0.23
20:38:35.712,-0.42,0.255
20:38:35.716,-0.405,0.26
20:38:35.720,-0.395,0.255
20:38:35.724,-0.4,0.265
20:38:35.728,-0.4,0.255
20:38:35.732,-0.38,0.27
20:38:35.736,-0.365,0.27
20:38:35.740,-0.37,0.28
20:38:35.744,-0.365,0.275
20:38:35.748,-0.335,0.265
20:38:35.752,-0.31,0.285
20:38:35.756,-0.25,0.295
20:38:35.760,-0.22,0.305
20:38:35.764,-0.2,0.315
20:38:35.768,-0.205,0.31
20:38:35.772,-0.195,0.31
20:38:35.776,-0.185,0.305
20:38:35.780,-0.195,0.27
20:38:35.784,-0.2,0.245
20:38:35.788,-0.245,0.185
20:38:35.792,-0.295,0.155
20:38:35.796,-0.335,0.145
20:38:35.800,-0.355,0.165
20:38:35.804,-0.4,0.14
20:38:35.808,-0.44,0.175
20:38:35.812,-0.495,0.18
20:38:35.816,-0.48,0.19
20:38:35.820,-0.465,0.23
20:38:35.824,-0.46,0.23
20:38:35.828,-0.445,0.235
20:38:35.832,-0.455,0.235
20:38:35.836,-0.445,0.205
20:38:35.840,-0.445,0.215
20:38:35.844,-0.465,0.23
20:38:35.848,-0.43,0.245
20:38:35.852,-0.445,0.235
20:38:35.856,-0.435,0.23
20:38:35.860,-0.42,0.2
20:38:35.864,-0.41,0.21
20:38:35.868,-0.415,0.25
20:38:35.872,-0.425,0.235
20:38:35.876,-0.41,0.21
20:38:35.880,-0.41,0.22
20:38:35.884,-0.41,0.21
20:38:35.888,-0.425,0.22
20:38:35.892,-0.415,0.235
20:38:35.896,-0.405,0.215
20:38:35.900,-0.385,0.2
20:38:35.904,-0.41,0.205
20:38:35.908,-0.42,0.21
20:38:35.912,-0.39,0.2
20:38:35.916,-0.38,0.195
20:38:35.920,-0.305,0.175
20:38:35.924,-0.25,0.18
20:38:35.928,-0.16,0.18
20:38:35.932,-0.08,0.185
20:38:35.936,-0.01,0.13
20:38:35.940,0.03,0.1
20:38:35.944,0.075,0.05
20:38:35.948,0.1,0.04
20:38:35.952,0.09,0.03
20:38:35.956,0.075,0.015
20:38:35.960,0.1,-0.08
20:38:35.964,0.28,-0.235
20:38:35.968,0.55,-0.44
20:38:35.972,0.87,-0.72
20:38:35.976,1.015,-0.97
20:38:35.980,0.95,-1.09
20:38:35.984,0.545,-1.025
20:38:35.988,0.075,-0.745
20:38:35.992,-0.235,-0.36
20:38:35.996,-0.35,-0.065
20:38:36.000,-0.385,0.06
20:38:36.004,-0.425,0.17
20:38:36.008,-0.445,0.225
20:38:36.012,-0.47,0.26
20:38:36.016,-0.515,0.27
20:38:36.020,-0.52,0.27
20:38:36.024,-0.52,0.255
20:38:36.028,-0.53,0.21
20:38:36.032,-0.515,0.19
20:38:36.036,-0.54,0.195
20:38:36.040,-0.545,0.175
20:38:36.044,-0.57,0.175
20:38:36.048,-0.54,0.165
20:38:36.052,-0.545,0.165
20:38:36.056,-0.545,0.18
20:38:36.060,-0.53,0.16
20:38:36.064,-0.535,0.15
20:38:36.068,-0.565,0.155
20:38:36.072,-0.575,0.135
20:38:36.076,-0.555,0.13
20:38:36.080,-0.56,0.145
20:38:36.084,-0.54,0.135
20:38:36.088,-0.535,0.14
20:38:36.092,-0.55,0.135
20:38:36.096,-0.545,0.12
20:38:36.100,-0.56,0.14
20:38:36.104,-0.55,0.12
20:38:36.108,-0.575,0.13
20:38:36.112,-0.57,0.125
20:38:36.116,-0.58,0.12
20:38:36.120,-0.56,0.12
20:38:36.124,-0.57,0.1
20:38:36.128,-0.575,0.1
20:38:36.132,-0.595,0.11
20:38:36.136,-0.59,0.09
20:38:36.140,-0.595,0.09
20:38:36.144,-0.595,0.095
20:38:36.148,-0.59,0.1
20:38:36.152,-0.58,0.085
20:38:36.156,-0.56,0.08
20:38:36.160,-0.56,0.055
20:38:36.164,-0.575,0.05
20:38:36.168,-0.55,0.04
20:38:36.172,-0.55,0.05
20:38:36.176,-0.52,0.025
20:38:36.180,-0.515,0.03
20:38:36.184,-0.51,0.05
20:38:36.188,-0.47,0.04
20:38:36.192,-0.46,0.01
20:38:36.196,-0.44,0.0
20:38:36.200,-0.44,0.005
20:38:36.204,-0.425,-0.015
20:38:36.208,-0.43,-0.03
20:38:36.212,-0.43,-0.01
20:38:36.216,-0.395,-0.02
20:38:36.220,-0.4,-0.05
20:38:36.224,-0.39,-0.04
20:38:36.228,-0.405,-0.045
20:38:36.232,-0.36,-0.055
20:38:36.236,-0.365,-0.06
20:38:36.240,-0.365,-0.08
20:38:36.244,-0.36,-0.085
20:38:36.248,-0.335,-0.095
20:38:36.252,-0.335,-0.08
20:38:36.256,-0.32,-0.1
20:38:36.260,-0.34,-0.1
20:38:36.264,-0.34,-0.105
20:38:36.268,-0.34,-0.105
20:38:36.272,-0.32,-0.145
20:38:36.276,-0.29,-0.13
20:38:36.280,-0.315,-0.115
20:38:36.284,-0.305,-0.135
20:38:36.288,-0.305,-0.135
20:38:36.292,-0.29,-0.145
20:38:36.296,-0.285,-0.14
20:38:36.300,-0.3,-0.155
20:38:36.304,-0.29,-0.16
20:38:36.308,-0.305,-0.145
20:38:36.312,-0.28,-0.145
20:38:36.316,-0.26,-0.175
20:38:36.320,-0.27,-0.175
20:38:36.324,-0.245,-0.2
20:38:36.328,-0.275,-0.2
20:38:36.332,-0.295,-0.23
20:38:36.336,-0.285,-0.28
20:38:36.340,-0.28,-0.295
20:38:36.344,-0.27,-0.315
20:38:36.348,-0.26,-0.34
20:38:36.352,-0.28,-0.335
20:38:36.356,-0.305,-0.365
20:38:36.360,-0.32,-0.38
20:38:36.364,-0.32,-0.385
20:38:36.368,-0.3,-0.4
20:38:36.372,-0.28,-0.4
20:38:36.376,-0.27,-0.425
20:38:36.380,-0.27,-0.465
20:38:36.384,-0.27,-0.485
20:38:36.388,-0.245,-0.52
20:38:36.392,-0.2,-0.55
20:38:36.396,-0.17,-0.61
20:38:36.400,-0.16,-0.675
20:38:36.404,-0.14,-0.75
20:38:36.408,-0.15,-0.875
20:38:36.412,-0.12,-0.93
20:38:36.416,-0.09,-0.955
20:38:36.420,-0.06,-0.975
20:38:36.424,-0.09,-1.02
20:38:36.428,-0.13,-1.08
20:38:36.432,-0.19,-1.105
20:38:36.436,-0.21,-1.14
20:38:36.440,-0.265,-1.15
20:38:36.444,-0.285,-1.14
20:38:36.448,-0.325,-1.14
20:38:36.452,-0.33,-1.145
20:38:36.456,-0.34,-1.14
20:38:36.460,-0.33,-1.12
20:38:36.464,-0.325,-1.155
20:38:36.468,-0.335,-1.17
20:38:36.472,-0.33,-1.165
20:38:36.476,-0.34,-1.175
20:38:36.480,-0.33,-1.195
20:38:36.484,-0.32,-1.205
20:38:36.488,-0.305,-1.215
20:38:36.492,-0.3,-1.23
20:38:36.496,-0.295,-1.24
20:38:36.500,-0.29,-1.255
20:38:36.504,-0.29,-1.275
20:38:36.508,-0.315,-1.275
20:38:36.512,-0.34,-1.28
20:38:36.516,-0.32,-1.26
20:38:36.520,-0.3,-1.3
20:38:36.524,-0.29,-1.3
20:38:36.528,-0.275,-1.295
20:38:36.532,-0.28,-1.28
20:38:36.536,-0.26,-1.28
20:38:36.540,-0.27,-1.28
20:38:36.544,-0.24,-1.29
20:38:36.548,-0.24,-1.305
20:38:36.552,-0.23,-1.32
20:38:36.556,-0.195,-1.32
20:38:36.560,-0.17,-1.315
20:38:36.564,-0.085,-1.29
20:38:36.568,-0.015,-1.335
20:38:36.572,0.095,-1.31
20:38:36.576,0.165,-1.34
20:38:36.580,0.22,-1.405
20:38:36.584,0.255,-1.45
20:38:36.588,0.31,-1.45
20:38:36.592,0.3,-1.465
20:38:36.596,0.275,-1.495
20:38:36.600,0.325,-1.54
20:38:36.604,0.515,-1.685
20:38:36.608,0.79,-1.89
20:38:36.612,1.045,-2.135
20:38:36.616,1.09,-2.37
20:38:36.620,0.845,-2.475
20:38:36.624,0.395,-2.35
20:38:36.628,0.0,-2.03
20:38:36.632,-0.21,-1.72
20:38:36.636,-0.26,-1.55
20:38:36.640,-0.325,-1.43
20:38:36.644,-0.34,-1.34
20:38:36.648,-0.35,-1.315
20:38:36.652,-0.365,-1.26
20:38:36.656,-0.385,-1.255
20:38:36.660,-0.4,-1.235
20:38:36.664,-0.42,-1.28
20:38:36.668,-0.415,-1.3
20:38:36.672,-0.415,-1.295
20:38:36.676,-0.425,-1.29
20:38:36.680,-0.42,-1.28
20:38:36.684,-0.41,-1.29
20:38:36.688,-0.41,-1.29
20:38:36.692,-0.43,-1.28
20:38:36.696,-0.45,-1.29
20:38:36.700,-0.45,-1.28
20:38:36.704,-0.465,-1.27
20:38:36.708,-0.46,-1.27
20:38:36.712,-0.48,-1.265
20:38:36.716,-0.48,-1.265
20:38:36.720,-0.48,-1.265
20:38:36.724,-0.46,-1.26
20:38:36.728,-0.45,-1.265
20:38:36.732,-0.475,-1.245
20:38:36.736,-0.475,-1.245
20:38:36.740,-0.485,-1.24
20:38:36.744,-0.5,-1.21
20:38:36.748,-0.5,-1.22
20:38:36.752,-0.515,-1.22
20:38:36.756,-0.52,-1.22
20:38:36.760,-0.5,-1.21
20:38:36.764,-0.505,-1.18
20:38:36.768,-0.49,-1.18
20:38:36.772,-0.5,-1.15
20:38:36.776,-0.48,-1.165
20:38:36.780,-0.495,-1.14
20:38:36.784,-0.49,-1.12
20:38:36.788,-0.455,-1.125
20:38:36.792,-0.475,-1.13
20:38:36.796,-0.475,-1.105
20:38:36.800,-0.47,-1.105
20:38:36.804,-0.475,-1.085
20:38:36.808,-0.475,-1.07
20:38:36.812,-0.445,-1.05
20:38:36.816,-0.44,-1.05
20:38:36.820,-0.45,-1.045
20:38:36.824,-0.445,-1.045
20:38:36.828,-0.43,-1.055
20:38:36.832,-0.435,-1.045
20:38:36.836,-0.415,-1.035
20:38:36.840,-0.405,-1.01
20:38:36.844,-0.395,-1.015
20:38:36.848,-0.355,-1.025
20:38:36.852,-0.365,-1.0
20:38:36.856,-0.345,-0.98
20:38:36.860,-0.355,-0.975
20:38:36.864,-0.325,-0.95
20:38:36.868,-0.335,-0.92
20:38:36.872,-0.32,-0.9
20:38:36.876,-0.305,-0.89
20:38:36.880,-0.285,-0.855
20:38:36.884,-0.285,-0.82
20:38:36.888,-0.275,-0.8
20:38:36.892,-0.255,-0.73
20:38:36.896,-0.265,-0.675
20:38:36.900,-0.245,-0.6
20:38:36.904,-0.23,-0.545
20:38:36.908,-0.25,-0.525
20:38:36.912,-0.26,-0.48
20:38:36.916,-0.255,-0.43
20:38:36.920,-0.24,-0.38
20:38:36.924,-0.255,-0.33
20:38:36.928,-0.255,-0.265
20:38:36.932,-0.255,-0.26
20:38:36.936,-0.245,-0.245
20:38:36.940,-0.24,-0.245
20:38:36.944,-0.26,-0.22
20:38:36.948,-0.25,-0.215
20:38:36.952,-0.28,-0.21
20:38:36.956,-0.285,-0.21
20:38:36.960,-0.28,-0.22
20:38:36.964,-0.275,-0.22
20:38:36.968,-0.265,-0.2
20:38:36.972,-0.285,-0.2
20:38:36.976,-0.295,-0.185
20:38:36.980,-0.285,-0.185
20:38:36.984,-0.275,-0.16
20:38:36.988,-0.275,-0.15
20:38:36.992,-0.265,-0.185
20:38:36.996,-0.275,-0.16
20:38:37.000,-0.255,-0.16
20:38:37.004,-0.275,-0.16
20:38:37.008,-0.255,-0.135
20:38:37.012,-0.245,-0.125
20:38:37.016,-0.245,-0.14
20:38:37.020,-0.24,-0.1
20:38:37.024,-0.24,-0.075
20:38:37.028,-0.235,-0.095
20:38:37.032,-0.225,-0.08
20:38:37.036,-0.215,-0.08
20:38:37.040,-0.17,-0.07
20:38:37.044,-0.13,-0.03
20:38:37.048,-0.1,-0.015
20:38:37.052,-0.11,0.01
20:38:37.056,-0.095,0.0
20:38:37.060,-0.1,0.0
20:38:37.064,-0.09,-0.005
20:38:37.068,-0.07,-0.015
20:38:37.072,-0.1,-0.06
20:38:37.076,-0.145,-0.1
20:38:37.080,-0.2,-0.135
20:38:37.084,-0.23,-0.155
20:38:37.088,-0.28,-0.125
20:38:37.092,-0.295,-0.115
20:38:37.096,-0.3,-0.125
20:38:37.100,-0.335,-0.08
20:38:37.104,-0.35,-0.075
20:38:37.108,-0.365,-0.06
20:38:37.112,-0.36,-0.015
20:38:37.116,-0.355,-0.025
20:38:37.120,-0.35,-0.025
20:38:37.124,-0.34,-0.02
20:38:37.128,-0.33,-0.035
20:38:37.132,-0.32,-0.03
20:38:37.136,-0.31,-0.04
20:38:37.140,-0.32,-0.03
20:38:37.144,-0.31,-0.045
20:38:37.148,-0.315,-0.015
20:38:37.152,-0.33,-0.045
20:38:37.156,-0.33,-0.03
20:38:37.160,-0.32,-0.02
20:38:37.164,-0.34,-0.01
20:38:37.168,-0.33,-0.03
20:38:37.172,-0.32,-0.025
20:38:37.176,-0.345,-0.025
20:38:37.180,-0.335,-0.015
20:38:37.184,-0.345,-0.025
20:38:37.188,-0.33,-0.01
20:38:37.192,-0.32,-0.01
20:38:37.196,-0.335,-0.035
20:38:37.200,-0.31,-0.015
20:38:37.204,-0.3,-0.02
20:38:37.208,-0.24,-0.005
20:38:37.212,-0.16,-0.03
20:38:37.216,-0.11,-0.02
20:38:37.220,-0.015,-0.005
20:38:37.224,0.065,-0.07
20:38:37.228,0.11,-0.11
20:38:37.232,0.135,-0.125
20:38:37.236,0.155,-0.14
20:38:37.240,0.15,-0.16
20:38:37.244,0.145,-0.22
20:38:37.248,0.215,-0.34
20:38:37.252,0.425,-0.465
20:38:37.256,0.74,-0.69
20:38:37.260,1.005,-0.945
20:38:37.264,1.08,-1.14
20:38:37.268,0.86,-1.21
20:38:37.272,0.395,-1.03
20:38:37.276,-0.035,-0.68
20:38:37.280,-0.26,-0.325
20:38:37.284,-0.405,-0.11
20:38:37.288,-0.44,0.0
20:38:37.292,-0.44,0.075
20:38:37.296,-0.455,0.145
20:38:37.300,-0.5,0.18
20:38:37.304,-0.5,0.18
20:38:37.308,-0.485,0.16
20:38:37.312,-0.5,0.15
20:38:37.316,-0.5,0.135
20:38:37.320,-0.505,0.135
20:38:37.324,-0.505,0.14
20:38:37.328,-0.53,0.135
20:38:37.332,-0.53,0.15
20:38:37.336,-0.515,0.145
20:38:37.340,-0.52,0.135
20:38:37.344,-0.52,0.15
20:38:37.348,-0.51,0.14
20:38:37.352,-0.515,0.155
20:38:37.356,-0.505,0.17
20:38:37.360,-0.525,0.15
20:38:37.364,-0.525,0.16
20:38:37.368,-0.525,0.17
20:38:37.372,-0.525,0.155
20:38:37.376,-0.54,0.17
20:38:37.380,-0.55,0.175
20:38:37.384,-0.55,0.165
20:38:37.388,-0.545,0.16
20:38:37.392,-0.545,0.165
20:38:37.396,-0.565,0.185
20:38:37.400,-0.58,0.155
20:38:37.404,-0.58,0.155
20:38:37.408,-0.6,0.17
20:38:37.412,-0.61,0.15
20:38:37.416,-0.605,0.15
20:38:37.420,-0.59,0.15
20:38:37.424,-0.595,0.15
20:38:37.428,-0.59,0.135
20:38:37.432,-0.585,0.15
20:38:37.436,-0.585,0.14
20:38:37.440,-0.58,0.16
20:38:37.444,-0.58,0.145
20:38:37.448,-0.57,0.15
20:38:37.452,-0.56,0.14
20:38:37.456,-0.56,0.16
20:38:37.460,-0.555,0.17
20:38:37.464,-0.515,0.165
20:38:37.468,-0.515,0.155
20:38:37.472,-0.49,0.16
20:38:37.476,-0.48,0.165
20:38:37.480,-0.47,0.155
20:38:37.484,-0.46,0.14
20:38:37.488,-0.45,0.16
20:38:37.492,-0.43,0.125
20:38:37.496,-0.41,0.105
20:38:37.500,-0.41,0.115
20:38:37.504,-0.39,0.1
20:38:37.508,-0.385,0.105
20:38:37.512,-0.39,0.1
20:38:37.516,-0.385,0.09
20:38:37.520,-0.365,0.065
20:38:37.524,-0.365,0.08
20:38:37.528,-0.33,0.075
20:38:37.532,-0.33,0.08
20:38:37.536,-0.33,0.08
20:38:37.540,-0.32,0.09
20:38:37.544,-0.315,0.065
20:38:37.548,-0.31,0.075
20:38:37.552,-0.3,0.075
20:38:37.556,-0.31,0.08
20:38:37.560,-0.3,0.1
20:38:37.564,-0.28,0.1
20:38:37.568,-0.3,0.09
20:38:37.572,-0.275,0.1
20:38:37.576,-0.305,0.09
20:38:37.580,-0.28,0.105
20:38:37.584,-0.285,0.115
20:38:37.588,-0.275,0.12
20:38:37.592,-0.275,0.12
20:38:37.596,-0.27,0.105
20:38:37.600,-0.26,0.12
20:38:37.604,-0.29,0.135
20:38:37.608,-0.27,0.14
20:38:37.612,-0.27,0.145
20:38:37.616,-0.315,0.15
20:38:37.620,-0.29,0.155
20:38:37.624,-0.31,0.135
20:38:37.628,-0.3,0.135
20:38:37.632,-0.305,0.125
20:38:37.636,-0.31,0.11
20:38:37.640,-0.305,0.125
20:38:37.644,-0.3,0.125
20:38:37.648,-0.305,0.11
20:38:37.652,-0.305,0.115
20:38:37.656,-0.3,0.105
20:38:37.660,-0.285,0.095
20:38:37.664,-0.28,0.1
20:38:37.668,-0.26,0.125
20:38:37.672,-0.285,0.12
20:38:37.676,-0.28,0.14
20:38:37.680,-0.25,0.145
20:38:37.684,-0.235,0.135
20:38:37.688,-0.16,0.13
20:38:37.692,-0.14,0.155
20:38:37.696,-0.12,0.15
20:38:37.700,-0.12,0.18
20:38:37.704,-0.085,0.155
20:38:37.708,-0.11,0.16
20:38:37.712,-0.1,0.165
20:38:37.716,-0.07,0.165
20:38:37.720,-0.115,0.11
20:38:37.724,-0.18,0.065
20:38:37.728,-0.215,0.07
20:38:37.732,-0.245,0.075
20:38:37.736,-0.28,0.045
20:38:37.740,-0.31,0.09
20:38:37.744,-0.36,0.075
20:38:37.748,-0.365,0.085
20:38:37.752,-0.375,0.125
20:38:37.756,-0.38,0.12
20:38:37.760,-0.375,0.135
20:38:37.764,-0.36,0.125
20:38:37.768,-0.355,0.15
20:38:37.772,-0.37,0.11
20:38:37.776,-0.36,0.1
20:38:37.780,-0.34,0.105
20:38:37.784,-0.35,0.1
20:38:37.788,-0.32,0.11
20:38:37.792,-0.335,0.105
20:38:37.796,-0.315,0.1
20:38:37.800,-0.325,0.105
20:38:37.804,-0.32,0.105
20:38:37.808,-0.315,0.105
20:38:37.812,-0.3,0.12
20:38:37.816,-0.31,0.11
20:38:37.820,-0.305,0.1
20:38:37.824,-0.31,0.115
20:38:37.828,-0.29,0.105
20:38:37.832,-0.28,0.11
20:38:37.836,-0.31,0.09
20:38:37.840,-0.3,0.1
20:38:37.844,-0.3,0.1
20:38:37.848,-0.255,0.11
20:38:37.852,-0.22,0.085
20:38:37.856,-0.165,0.09
20:38:37.860,-0.09,0.06
20:38:37.864,-0.005,0.06
20:38:37.868,0.055,0.04
20:38:37.872,0.09,0.01
20:38:37.876,0.11,-0.04
20:38:37.880,0.125,-0.04
20:38:37.884,0.1,-0.075
20:38:37.888,0.075,-0.115
20:38:37.892,0.175,-0.245
20:38:37.896,0.38,-0.415
20:38:37.900,0.715,-0.655
20:38:37.904,0.975,-0.9
20:38:37.908,1.09,-1.115
20:38:37.912,0.875,-1.195
20:38:37.916,0.425,-1.035
20:38:37.920,-0.015,-0.625
20:38:37.924,-0.24,-0.265
20:38:37.928,-0.35,-0.03
20:38:37.932,-0.4,0.09
20:38:37.936,-0.41,0.165
20:38:37.940,-0.42,0.215
20:38:37.944,-0.435,0.245
20:38:37.948,-0.445,0.225
20:38:37.952,-0.47,0.22
20:38:37.956,-0.47,0.215
20:38:37.960,-0.48,0.22
20:38:37.964,-0.48,0.205
20:38:37.968,-0.49,0.21
20:38:37.972,-0.515,0.195
20:38:37.976,-0.51,0.195
20:38:37.980,-0.525,0.195
20:38:37.984,-0.525,0.175
20:38:37.988,-0.53,0.17
20:38:37.992,-0.52,0.175
20:38:37.996,-0.53,0.175
20:38:38.000,-0.53,0.18
20:38:38.004,-0.52,0.19
20:38:38.008,-0.525,0.165
20:38:38.012,-0.525,0.18
20:38:38.016,-0.52,0.18
20:38:38.020,-0.54,0.18
20:38:38.024,-0.545,0.185
20:38:38.028,-0.53,0.185
20:38:38.032,-0.52,0.19
20:38:38.036,-0.545,0.18
20:38:38.040,-0.55,0.195
20:38:38.044,-0.555,0.195
20:38:38.048,-0.55,0.215
20:38:38.052,-0.55,0.215
20:38:38.056,-0.545,0.2
20:38:38.060,-0.545,0.21
20:38:38.064,-0.565,0.195
20:38:38.068,-0.57,0.195
20:38:38.072,-0.57,0.19
20:38:38.076,-0.57,0.21
20:38:38.080,-0.56,0.19
20:38:38.084,-0.57,0.185
20:38:38.088,-0.555,0.195
20:38:38.092,-0.56,0.19
20:38:38.096,-0.54,0.19
20:38:38.100,-0.56,0.2
20:38:38.104,-0.525,0.2
20:38:38.108,-0.515,0.18
20:38:38.112,-0.525,0.155
20:38:38.116,-0.515,0.16
20:38:38.120,-0.495,0.16
20:38:38.124,-0.485,0.155
20:38:38.128,-0.48,0.155
20:38:38.132,-0.46,0.135
20:38:38.136,-0.445,0.125
20:38:38.140,-0.43,0.12
20:38:38.144,-0.4,0.095
20:38:38.148,-0.37,0.115
20:38:38.152,-0.36,0.085
20:38:38.156,-0.355,0.11
20:38:38.160,-0.35,0.105
20:38:38.164,-0.32,0.09
20:38:38.168,-0.34,0.1
20:38:38.172,-0.32,0.095
20:38:38.176,-0.305,0.105
20:38:38.180,-0.31,0.085
20:38:38.184,-0.315,0.09
20:38:38.188,-0.305,0.075
20:38:38.192,-0.29,0.085
20:38:38.196,-0.31,0.095
20:38:38.200,-0.32,0.11
20:38:38.204,-0.3,0.09
20:38:38.208,-0.29,0.095
20:38:38.212,-0.285,0.07
20:38:38.216,-0.295,0.085
20:38:38.220,-0.29,0.08
20:38:38.224,-0.29,0.085
20:38:38.228,-0.285,0.08
20:38:38.232,-0.3,0.09
20:38:38.236,-0.295,0.08
20:38:38.240,-0.285,0.11
20:38:38.244,-0.29,0.095
20:38:38.248,-0.29,0.125
20:38:38.252,-0.305,0.125
20:38:38.256,-0.285,0.115
20:38:38.260,-0.29,0.145
20:38:38.264,-0.27,0.12
20:38:38.268,-0.27,0.12
20:38:38.272,-0.27,0.145
20:38:38.276,-0.275,0.165
20:38:38.280,-0.28,0.15
20:38:38.284,-0.27,0.155
20:38:38.288,-0.3,0.155
20:38:38.292,-0.29,0.155
20:38:38.296,-0.265,0.175
20:38:38.300,-0.27,0.135
20:38:38.304,-0.27,0.155
20:38:38.308,-0.265,0.155
20:38:38.312,-0.245,0.145
20:38:38.316,-0.225,0.14
20:38:38.320,-0.18,0.15
20:38:38.324,-0.15,0.145
20:38:38.328,-0.115,0.15
20:38:38.332,-0.125,0.155
20:38:38.336,-0.095,0.17
20:38:38.340,-0.1,0.15
20:38:38.344,-0.09,0.155
20:38:38.348,-0.08,0.165
20:38:38.352,-0.08,0.145
20:38:38.356,-0.125,0.08
20:38:38.360,-0.195,0.055
20:38:38.364,-0.2,0.04
20:38:38.368,-0.225,0.04
20:38:38.372,-0.25,0.06
20:38:38.376,-0.31,0.06
20:38:38.380,-0.31,0.085
20:38:38.384,-0.295,0.11
20:38:38.388,-0.33,0.105
20:38:38.392,-0.33,0.11
20:38:38.396,-0.315,0.12
20:38:38.400,-0.31,0.12
20:38:38.404,-0.3,0.115
20:38:38.408,-0.285,0.105
20:38:38.412,-0.295,0.085
20:38:38.416,-0.305,0.09
20:38:38.420,-0.305,0.08
20:38:38.424,-0.315,0.08
20:38:38.428,-0.315,0.065
20:38:38.432,-0.28,0.06
20:38:38.436,-0.295,0.055
20:38:38.440,-0.285,0.04
20:38:38.444,-0.29,0.03
20:38:38.448,-0.28,0.03
20:38:38.452,-0.28,0.06
20:38:38.456,-0.265,0.04
20:38:38.460,-0.295,0.03
20:38:38.464,-0.28,0.035
20:38:38.468,-0.3,0.02
20:38:38.472,-0.29,0.03
20:38:38.476,-0.265,0.02
20:38:38.480,-0.23,0.02
20:38:38.484,-0.21,0.04
20:38:38.488,-0.125,0.035
20:38:38.492,-0.035,0.02
20:38:38.496,0.055,0.02
20:38:38.500,0.12,0.0
20:38:38.504,0.195,-0.015
20:38:38.508,0.235,-0.035
20:38:38.512,0.27,-0.07
20:38:38.516,0.26,-0.07
20:38:38.520,0.255,-0.095
20:38:38.524,0.24,-0.16
20:38:38.528,0.375,-0.27
20:38:38.532,0.615,-0.44
20:38:38.536,0.93,-0.71
20:38:38.540,1.1,-0.96
20:38:38.544,1.055,-1.14
20:38:38.548,0.72,-1.145
20:38:38.552,0.24,-0.9
20:38:38.556,-0.08,-0.545
20:38:38.560,-0.215,-0.25
20:38:38.564,-0.3,-0.08
20:38:38.568,-0.3,0.01
20:38:38.572,-0.315,0.085
20:38:38.576,-0.35,0.115
20:38:38.580,-0.36,0.115
20:38:38.584,-0.375,0.1
20:38:38.588,-0.39,0.09
20:38:38.592,-0.38,0.08
20:38:38.596,-0.39,0.04
20:38:38.600,-0.39,0.045
20:38:38.604,-0.395,0.035
20:38:38.608,-0.415,0.035
20:38:38.612,-0.415,0.025
20:38:38.616,-0.395,0.025
20:38:38.620,-0.425,0.02
20:38:38.624,-0.415,0.01
20:38:38.628,-0.41,0.0
20:38:38.632,-0.41,0.0
20:38:38.636,-0.415,-0.015
20:38:38.640,-0.425,0.0
20:38:38.644,-0.44,-0.015
20:38:38.648,-0.445,-0.015
20:38:38.652,-0.46,-0.02
20:38:38.656,-0.455,-0.025
20:38:38.660,-0.465,-0.045
20:38:38.664,-0.455,-0.035
20:38:38.668,-0.46,-0.05
20:38:38.672,-0.46,-0.055
20:38:38.676,-0.495,-0.06
20:38:38.680,-0.46,-0.065
20:38:38.684,-0.48,-0.055
20:38:38.688,-0.48,-0.075
20:38:38.692,-0.47,-0.085
20:38:38.696,-0.5,-0.09
20:38:38.700,-0.49,-0.08
20:38:38.704,-0.475,-0.08
20:38:38.708,-0.45,-0.075
20:38:38.712,-0.475,-0.09
20:38:38.716,-0.47,-0.09
20:38:38.720,-0.46,-0.11
20:38:38.724,-0.46,-0.095
20:38:38.728,-0.45,-0.11
20:38:38.732,-0.435,-0.11
20:38:38.736,-0.425,-0.125
20:38:38.740,-0.42,-0.13
20:38:38.744,-0.4,-0.16
20:38:38.748,-0.385,-0.16
20:38:38.752,-0.38,-0.21
20:38:38.756,-0.38,-0.25
20:38:38.760,-0.36,-0.28
20:38:38.764,-0.38,-0.3
20:38:38.768,-0.345,-0.315
20:38:38.772,-0.34,-0.32
20:38:38.776,-0.335,-0.34
20:38:38.780,-0.315,-0.345
20:38:38.784,-0.29,-0.36
20:38:38.788,-0.295,-0.39
20:38:38.792,-0.28,-0.39
20:38:38.796,-0.27,-0.42
20:38:38.800,-0.255,-0.425
20:38:38.804,-0.24,-0.43
20:38:38.808,-0.245,-0.425
20:38:38.812,-0.24,-0.44
20:38:38.816,-0.22,-0.455
20:38:38.820,-0.225,-0.455
20:38:38.824,-0.2,-0.46
20:38:38.828,-0.195,-0.48
20:38:38.832,-0.205,-0.48
20:38:38.836,-0.21,-0.51
20:38:38.840,-0.225,-0.54
20:38:38.844,-0.22,-0.61
20:38:38.848,-0.205,-0.615
20:38:38.852,-0.23,-0.62
20:38:38.856,-0.215,-0.625
20:38:38.860,-0.21,-0.64
20:38:38.864,-0.2,-0.635
20:38:38.868,-0.185,-0.665
20:38:38.872,-0.2,-0.69
20:38:38.876,-0.235,-0.735
20:38:38.880,-0.23,-0.825
20:38:38.884,-0.225,-0.92
20:38:38.888,-0.225,-0.98
20:38:38.892,-0.23,-1.03
20:38:38.896,-0.23,-1.025
20:38:38.900,-0.23,-1.015
20:38:38.904,-0.235,-1.03
20:38:38.908,-0.235,-1.04
20:38:38.912,-0.245,-1.04
20:38:38.916,-0.25,-1.065
20:38:38.920,-0.235,-1.085
20:38:38.924,-0.23,-1.07
20:38:38.928,-0.225,-1.065
20:38:38.932,-0.23,-1.085
20:38:38.936,-0.195,-1.1
20:38:38.940,-0.185,-1.09
20:38:38.944,-0.185,-1.105
20:38:38.948,-0.165,-1.11
20:38:38.952,-0.14,-1.11
20:38:38.956,-0.095,-1.12
20:38:38.960,-0.08,-1.1
20:38:38.964,-0.055,-1.09
20:38:38.968,-0.05,-1.085
20:38:38.972,-0.05,-1.095
20:38:38.976,-0.05,-1.095
20:38:38.980,-0.035,-1.105
20:38:38.984,-0.035,-1.155
20:38:38.988,-0.095,-1.19
20:38:38.992,-0.145,-1.22
20:38:38.996,-0.175,-1.225
20:38:39.000,-0.215,-1.225
20:38:39.004,-0.235,-1.205
20:38:39.008,-0.28,-1.215
20:38:39.012,-0.3,-1.215
20:38:39.016,-0.31,-1.18
20:38:39.020,-0.3,-1.18
20:38:39.024,-0.315,-1.16
20:38:39.028,-0.305,-1.16
20:38:39.032,-0.31,-1.17
20:38:39.036,-0.295,-1.16
20:38:39.040,-0.305,-1.145
20:38:39.044,-0.295,-1.165
20:38:39.048,-0.29,-1.18
20:38:39.052,-0.265,-1.16
20:38:39.056,-0.26,-1.14
20:38:39.060,-0.285,-1.18
20:38:39.064,-0.265,-1.155
20:38:39.068,-0.275,-1.17
20:38:39.072,-0.28,-1.13
20:38:39.076,-0.26,-1.145
20:38:39.080,-0.275,-1.1
20:38:39.084,-0.27,-1.125
20:38:39.088,-0.265,-1.105
20:38:39.092,-0.27,-1.14
20:38:39.096,-0.28,-1.12
20:38:39.100,-0.285,-1.125
20:38:39.104,-0.285,-1.11
20:38:39.108,-0.285,-1.09
20:38:39.112,-0.28,-1.095
20:38:39.116,-0.25,-1.1
20:38:39.120,-0.195,-1.105
20:38:39.124,-0.115,-1.1
20:38:39.128,-0.025,-1.115
20:38:39.132,0.055,-1.1
20:38:39.136,0.14,-1.125
20:38:39.140,0.185,-1.17
20:38:39.144,0.23,-1.195
20:38:39.148,0.265,-1.165
20:38:39.152,0.265,-1.16
20:38:39.156,0.235,-1.16
20:38:39.160,0.305,-1.235
20:38:39.164,0.55,-1.35
20:38:39.168,0.825,-1.555
20:38:39.172,1.065,-1.775
20:38:39.176,1.12,-1.975
20:38:39.180,0.87,-2.055
20:38:39.184,0.395,-1.885
20:38:39.188,0.0,-1.525
20:38:39.192,-0.205,-1.225
20:38:39.196,-0.275,-1.025
20:38:39.200,-0.31,-0.895
20:38:39.204,-0.325,-0.77
20:38:39.208,-0.38,-0.69
20:38:39.212,-0.42,-0.59
20:38:39.216,-0.445,-0.49
20:38:39.220,-0.43,-0.41
20:38:39.224,-0.465,-0.385
20:38:39.228,-0.465,-0.345
20:38:39.232,-0.465,-0.33
20:38:39.236,-0.48,-0.315
20:38:39.240,-0.48,-0.275
20:38:39.244,-0.475,-0.265
20:38:39.248,-0.48,-0.25
20:38:39.252,-0.485,-0.245
20:38:39.256,-0.48,-0.22
20:38:39.260,-0.485,-0.195
20:38:39.264,-0.48,-0.195
20:38:39.268,-0.49,-0.18
20:38:39.272,-0.52,-0.165
20:38:39.276,-0.51,-0.14
20:38:39.280,-0.52,-0.125
20:38:39.284,-0.5,-0.1
20:38:39.288,-0.49,-0.08
20:38:39.292,-0.51,-0.04
20:38:39.296,-0.525,-0.06
20:38:39.300,-0.535,-0.04
20:38:39.304,-0.51,-0.035
20:38:39.308,-0.515,-0.025
20:38:39.312,-0.525,0.0
20:38:39.316,-0.525,0.0
20:38:39.320,-0.555,0.005
20:38:39.324,-0.54,-0.01
20:38:39.328,-0.575,0.0
20:38:39.332,-0.56,0.0
20:38:39.336,-0.585,0.01
20:38:39.340,-0.59,0.015
20:38:39.344,-0.58,0.005
20:38:39.348,-0.57,0.01
20:38:39.352,-0.57,0.01
20:38:39.356,-0.565,0.03
20:38:39.360,-0.555,0.0
20:38:39.364,-0.54,0.03
20:38:39.368,-0.55,0.025
20:38:39.372,-0.53,0.03
20:38:39.376,-0.525,0.025
20:38:39.380,-0.525,0.01
20:38:39.384,-0.53,0.015
20:38:39.388,-0.495,0.02
20:38:39.392,-0.48,0.025
20:38:39.396,-0.45,0.04
20:38:39.400,-0.445,0.015
20:38:39.404,-0.43,0.035
20:38:39.408,-0.39,0.05
20:38:39.412,-0.395,0.045
20:38:39.416,-0.4,0.04
20:38:39.420,-0.38,0.04
20:38:39.424,-0.37,0.045
20:38:39.428,-0.37,0.035
20:38:39.432,-0.355,0.05
20:38:39.436,-0.355,0.04
20:38:39.440,-0.34,0.03
20:38:39.444,-0.345,0.025
20:38:39.448,-0.33,0.03
20:38:39.452,-0.34,0.045
20:38:39.456,-0.33,0.06
20:38:39.460,-0.32,0.06
20:38:39.464,-0.335,0.065
20:38:39.468,-0.305,0.035
20:38:39.472,-0.3,0.055
20:38:39.476,-0.305,0.065
20:38:39.480,-0.31,0.055
20:38:39.484,-0.315,0.075
20:38:39.488,-0.315,0.075
20:38:39.492,-0.31,0.07
20:38:39.496,-0.305,0.085
20:38:39.500,-0.31,0.09
20:38:39.504,-0.29,0.08
20:38:39.508,-0.315,0.075
20:38:39.512,-0.295,0.09
20:38:39.516,-0.305,0.095
20:38:39.520,-0.3,0.095
20:38:39.524,-0.295,0.115
20:38:39.528,-0.295,0.145
20:38:39.532,-0.29,0.115
20:38:39.536,-0.315,0.115
20:38:39.540,-0.31,0.125
20:38:39.544,-0.315,0.14
20:38:39.548,-0.31,0.12
20:38:39.552,-0.29,0.135
20:38:39.556,-0.305,0.13
20:38:39.560,-0.305,0.13
20:38:39.564,-0.305,0.12
20:38:39.568,-0.315,0.12
20:38:39.572,-0.3,0.145
20:38:39.576,-0.265,0.135
20:38:39.580,-0.28,0.145
20:38:39.584,-0.28,0.14
20:38:39.588,-0.29,0.14
20:38:39.592,-0.29,0.135
20:38:39.596,-0.25,0.135
20:38:39.600,-0.2,0.125
20:38:39.604,-0.16,0.16
20:38:39.608,-0.14,0.165
20:38:39.612,-0.14,0.175
20:38:39.616,-0.13,0.18
20:38:39.620,-0.105,0.175
20:38:39.624,-0.095,0.18
20:38:39.628,-0.095,0.155
20:38:39.632,-0.135,0.12
20:38:39.636,-0.175,0.08
20:38:39.640,-0.225,0.085
20:38:39.644,-0.26,0.1
20:38:39.648,-0.295,0.105
20:38:39.652,-0.32,0.1
20:38:39.656,-0.34,0.12
20:38:39.660,-0.375,0.125
20:38:39.664,-0.365,0.15
20:38:39.668,-0.385,0.16
20:38:39.672,-0.365,0.165
20:38:39.676,-0.385,0.165
20:38:39.680,-0.385,0.14
20:38:39.684,-0.39,0.155
20:38:39.688,-0.39,0.15
20:38:39.692,-0.385,0.135
20:38:39.696,-0.37,0.13
20:38:39.700,-0.375,0.13
20:38:39.704,-0.37,0.13
20:38:39.708,-0.36,0.115
20:38:39.712,-0.375,0.105
20:38:39.716,-0.355,0.09
20:38:39.720,-0.355,0.12
20:38:39.724,-0.355,0.105
20:38:39.728,-0.37,0.115
20:38:39.732,-0.35,0.115
20:38:39.736,-0.36,0.11
20:38:39.740,-0.35,0.09
20:38:39.744,-0.32,0.12
20:38:39.748,-0.335,0.125
20:38:39.752,-0.335,0.115
20:38:39.756,-0.32,0.125
20:38:39.760,-0.29,0.14
20:38:39.764,-0.245,0.125
20:38:39.768,-0.205,0.13
20:38:39.772,-0.11,0.13
20:38:39.776,-0.01,0.13
20:38:39.780,0.04,0.09
20:38:39.784,0.07,0.06
20:38:39.788,0.105,0.01
20:38:39.792,0.115,-0.005
20:38:39.796,0.09,-0.005
20:38:39.800,0.075,-0.085
20:38:39.804,0.14,-0.19
20:38:39.808,0.315,-0.335
20:38:39.812,0.615,-0.55
20:38:39.816,0.92,-0.82
20:38:39.820,1.07,-1.03
20:38:39.824,0.925,-1.15
20:38:39.828,0.515,-1.04
20:38:39.832,0.055,-0.695
20:38:39.836,-0.25,-0.325
20:38:39.840,-0.39,-0.065
20:38:39.844,-0.455,0.095
20:38:39.848,-0.445,0.18
20:38:39.852,-0.46,0.24
20:38:39.856,-0.47,0.24
20:38:39.860,-0.465,0.275
20:38:39.864,-0.48,0.25
20:38:39.868,-0.49,0.24
20:38:39.872,-0.49,0.23
20:38:39.876,-0.495,0.235
20:38:39.880,-0.505,0.235
20:38:39.884,-0.505,0.235
20:38:39.888,-0.505,0.225
20:38:39.892,-0.525,0.23
20:38:39.896,-0.515,0.23
20:38:39.900,-0.53,0.225
20:38:39.904,-0.53,0.21
20:38:39.908,-0.53,0.235
20:38:39.912,-0.545,0.225
20:38:39.916,-0.54,0.22
20:38:39.920,-0.555,0.23
20:38:39.924,-0.55,0.23
20:38:39.928,-0.565,0.21
20:38:39.932,-0.585,0.22
20:38:39.936,-0.57,0.215
20:38:39.940,-0.595,0.24
20:38:39.944,-0.59,0.23
20:38:39.948,-0.58,0.195
20:38:39.952,-0.595,0.23
20:38:39.956,-0.585,0.215
20:38:39.960,-0.6,0.215
20:38:39.964,-0.575,0.22
20:38:39.968,-0.585,0.22
20:38:39.972,-0.575,0.24
20:38:39.976,-0.58,0.22
20:38:39.980,-0.6,0.235
20:38:39.984,-0.58,0.23
20:38:39.988,-0.59,0.255
20:38:39.992,-0.585,0.23
20:38:39.996,-0.61,0.235
20:38:40.000,-0.59,0.245
20:38:40.004,-0.605,0.25
20:38:40.008,-0.6,0.25
20:38:40.012,-0.57,0.24
20:38:40.016,-0.575,0.22
20:38:40.020,-0.575,0.2
20:38:40.024,-0.575,0.22
20:38:40.028,-0.56,0.205
20:38:40.032,-0.545,0.2
20:38:40.036,-0.55,0.18
20:38:40.040,-0.525,0.165
20:38:40.044,-0.51,0.15
20:38:40.048,-0.515,0.155
20:38:40.052,-0.495,0.145
20:38:40.056,-0.5,0.13
20:38:40.060,-0.47,0.135
20:38:40.064,-0.465,0.125
20:38:40.068,-0.46,0.095
20:38:40.072,-0.43,0.105
20:38:40.076,-0.425,0.12
20:38:40.080,-0.395,0.105
20:38:40.084,-0.39,0.12
20:38:40.088,-0.39,0.12
20:38:40.092,-0.375,0.11
20:38:40.096,-0.36,0.11
20:38:40.100,-0.365,0.105
20:38:40.104,-0.355,0.125
20:38:40.108,-0.365,0.11
20:38:40.112,-0.355,0.11
20:38:40.116,-0.36,0.125
20:38:40.120,-0.37,0.125
20:38:40.124,-0.35,0.115
20:38:40.128,-0.335,0.125
20:38:40.132,-0.365,0.125
20:38:40.136,-0.36,0.13
20:38:40.140,-0.355,0.13
20:38:40.144,-0.37,0.12
20:38:40.148,-0.375,0.13
20:38:40.152,-0.38,0.14
20:38:40.156,-0.365,0.13
20:38:40.160,-0.36,0.145
20:38:40.164,-0.37,0.145
20:38:40.168,-0.365,0.13
20:38:40.172,-0.385,0.135
20:38:40.176,-0.36,0.11
20:38:40.180,-0.385,0.145
20:38:40.184,-0.385,0.145
20:38:40.188,-0.37,0.145
20:38:40.192,-0.375,0.14
20:38:40.196,-0.365,0.15
20:38:40.200,-0.355,0.15
20:38:40.204,-0.335,0.135
20:38:40.208,-0.355,0.155
20:38:40.212,-0.315,0.135
20:38:40.216,-0.315,0.13
20:38:40.220,-0.31,0.155
20:38:40.224,-0.31,0.175
20:38:40.228,-0.3,0.175
20:38:40.232,-0.31,0.155
20:38:40.236,-0.28,0.175
20:38:40.240,-0.24,0.165
20:38:40.244,-0.22,0.185
20:38:40.248,-0.205,0.175
20:38:40.252,-0.22,0.18
20:38:40.256,-0.185,0.175
20:38:40.260,-0.18,0.175
20:38:40.264,-0.155,0.15
20:38:40.268,-0.18,0.135
20:38:40.272,-0.22,0.09
20:38:40.276,-0.285,0.055
20:38:40.280,-0.31,0.055
20:38:40.284,-0.34,0.05
20:38:40.288,-0.36,0.07
20:38:40.292,-0.425,0.07
20:38:40.296,-0.445,0.08
20:38:40.300,-0.45,0.11
20:38:40.304,-0.46,0.13
20:38:40.308,-0.415,0.15
20:38:40.312,-0.415,0.135
20:38:40.316,-0.42,0.145
20:38:40.320,-0.405,0.11
20:38:40.324,-0.385,0.135
20:38:40.328,-0.41,0.115
20:38:40.332,-0.385,0.13
20:38:40.336,-0.385,0.115
20:38:40.340,-0.405,0.12
20:38:40.344,-0.39,0.125
20:38:40.348,-0.385,0.115
20:38:40.352,-0.385,0.115
20:38:40.356,-0.38,0.105
20:38:40.360,-0.395,0.115
20:38:40.364,-0.4,0.1
20:38:40.368,-0.4,0.095
20:38:40.372,-0.395,0.095
20:38:40.376,-0.405,0.11
20:38:40.380,-0.415,0.105
20:38:40.384,-0.395,0.09
20:38:40.388,-0.365,0.09
20:38:40.392,-0.38,0.1
20:38:40.396,-0.375,0.09
20:38:40.400,-0.34,0.095
20:38:40.404,-0.275,0.08
20:38:40.408,-0.225,0.075
20:38:40.412,-0.145,0.085
20:38:40.416,-0.055,0.08
20:38:40.420,-0.005,0.045
20:38:40.424,0.04,0.0
20:38:40.428,0.07,-0.02
20:38:40.432,0.075,-0.055
20:38:40.436,0.065,-0.08
20:38:40.440,0.055,-0.11
20:38:40.444,0.105,-0.225
20:38:40.448,0.315,-0.37
20:38:40.452,0.62,-0.585
20:38:40.456,0.91,-0.835
20:38:40.460,1.02,-1.035
20:38:40.464,0.855,-1.17
20:38:40.468,0.435,-1.02
20:38:40.472,-0.03,-0.655
20:38:40.476,-0.285,-0.29
20:38:40.480,-0.425,-0.055
20:38:40.484,-0.46,0.075
20:38:40.488,-0.47,0.16
20:38:40.492,-0.48,0.215
20:38:40.496,-0.51,0.245
20:38:40.500,-0.515,0.235
20:38:40.504,-0.52,0.245
20:38:40.508,-0.54,0.225
20:38:40.512,-0.535,0.225
20:38:40.516,-0.53,0.22
20:38:40.520,-0.53,0.18
20:38:40.524,-0.55,0.185
20:38:40.528,-0.55,0.205
20:38:40.532,-0.54,0.205
20:38:40.536,-0.535,0.185
20:38:40.540,-0.535,0.215
20:38:40.544,-0.53,0.215
20:38:40.548,-0.54,0.205
20:38:40.552,-0.535,0.22
20:38:40.556,-0.55,0.2
20:38:40.560,-0.555,0.2
20:38:40.564,-0.545,0.22
20:38:40.568,-0.535,0.205
20:38:40.572,-0.565,0.235
20:38:40.576,-0.555,0.205
20:38:40.580,-0.555,0.22
20:38:40.584,-0.57,0.215
20:38:40.588,-0.575,0.215
20:38:40.592,-0.6,0.235
20:38:40.596,-0.59,0.215
20:38:40.600,-0.61,0.215
20:38:40.604,-0.615,0.225
20:38:40.608,-0.61,0.21
20:38:40.612,-0.61,0.21
20:38:40.616,-0.62,0.195
20:38:40.620,-0.61,0.215
20:38:40.624,-0.61,0.215
20:38:40.628,-0.6,0.195
20:38:40.632,-0.565,0.21
20:38:40.636,-0.585,0.195
20:38:40.640,-0.57,0.205
20:38:40.644,-0.57,0.195
20:38:40.648,-0.57,0.205
20:38:40.652,-0.545,0.21
20:38:40.656,-0.54,0.19
20:38:40.660,-0.525,0.185
20:38:40.664,-0.505,0.19
20:38:40.668,-0.49,0.18
20:38:40.672,-0.475,0.185
20:38:40.676,-0.465,0.17
20:38:40.680,-0.465,0.175
20:38:40.684,-0.48,0.17
20:38:40.688,-0.485,0.16
20:38:40.692,-0.46,0.145
20:38:40.696,-0.44,0.13
20:38:40.700,-0.42,0.12
20:38:40.704,-0.43,0.1
20:38:40.708,-0.425,0.115
20:38:40.712,-0.415,0.1
20:38:40.716,-0.415,0.09
20:38:40.720,-0.39,0.1
20:38:40.724,-0.39,0.095
20:38:40.728,-0.375,0.095
20:38:40.732,-0.36,0.09
20:38:40.736,-0.355,0.09
20:38:40.740,-0.345,0.065
20:38:40.744,-0.335,0.09
20:38:40.748,-0.33,0.1
20:38:40.752,-0.34,0.11
20:38:40.756,-0.31,0.105
20:38:40.760,-0.305,0.115
20:38:40.764,-0.305,0.11
20:38:40.768,-0.31,0.1
20:38:40.772,-0.3,0.115
20:38:40.776,-0.3,0.13
20:38:40.780,-0.305,0.155
20:38:40.784,-0.305,0.14
20:38:40.788,-0.31,0.135
20:38:40.792,-0.32,0.145
20:38:40.796,-0.3,0.145
20:38:40.800,-0.3,0.145
20:38:40.804,-0.31,0.155
20:38:40.808,-0.32,0.135
20:38:40.812,-0.305,0.145
20:38:40.816,-0.315,0.12
20:38:40.820,-0.32,0.13
20:38:40.824,-0.335,0.13
20:38:40.828,-0.325,0.13
20:38:40.832,-0.315,0.115
20:38:40.836,-0.33,0.12
20:38:40.840,-0.33,0.125
20:38:40.844,-0.345,0.1
20:38:40.848,-0.295,0.13
20:38:40.852,-0.29,0.105
20:38:40.856,-0.295,0.115
20:38:40.860,-0.285,0.1
20:38:40.864,-0.295,0.1
20:38:40.868,-0.29,0.105
20:38:40.872,-0.26,0.09
20:38:40.876,-0.215,0.105
20:38:40.880,-0.165,0.105
20:38:40.884,-0.13,0.13
20:38:40.888,-0.125,0.11
20:38:40.892,-0.12,0.12
20:38:40.896,-0.1,0.115
20:38:40.900,-0.115,0.135
20:38:40.904,-0.1,0.12
20:38:40.908,-0.125,0.075
20:38:40.912,-0.155,0.03
20:38:40.916,-0.205,0.0
20:38:40.920,-0.23,-0.005
20:38:40.924,-0.28,-0.005
20:38:40.928,-0.315,0.005
20:38:40.932,-0.35,-0.015
20:38:40.936,-0.38,0.0
20:38:40.940,-0.38,0.035
20:38:40.944,-0.385,0.045
20:38:40.948,-0.38,0.045
20:38:40.952,-0.37,0.035
20:38:40.956,-0.375,0.03
20:38:40.960,-0.38,0.005
20:38:40.964,-0.36,0.0
20:38:40.968,-0.36,-0.015
20:38:40.972,-0.345,-0.015
20:38:40.976,-0.345,-0.005
20:38:40.980,-0.355,0.005
20:38:40.984,-0.355,-0.02
20:38:40.988,-0.355,-0.045
20:38:40.992,-0.34,-0.05
20:38:40.996,-0.34,-0.04
20:38:41.000,-0.335,-0.045
20:38:41.004,-0.32,-0.04
20:38:41.008,-0.32,-0.045
20:38:41.012,-0.355,-0.045
20:38:41.016,-0.35,-0.06
20:38:41.020,-0.325,-0.055
20:38:41.024,-0.315,-0.05
20:38:41.028,-0.33,-0.065
20:38:41.032,-0.32,-0.075
20:38:41.036,-0.31,-0.07
20:38:41.040,-0.285,-0.095
20:38:41.044,-0.235,-0.09
20:38:41.048,-0.16,-0.09
20:38:41.052,-0.075,-0.1
20:38:41.056,0.04,-0.14
20:38:41.060,0.085,-0.165
20:38:41.064,0.14,-0.23
20:38:41.068,0.18,-0.26
20:38:41.072,0.205,-0.24
20:38:41.076,0.19,-0.22
20:38:41.080,0.165,-0.285
20:38:41.084,0.235,-0.375
20:38:41.088,0.465,-0.515
20:38:41.092,0.795,-0.76
20:38:41.096,1.05,-0.99
20:38:41.100,1.045,-1.185
20:38:41.104,0.77,-1.255
20:38:41.108,0.28,-1.08
20:38:41.112,-0.065,-0.74
20:38:41.116,-0.255,-0.425
20:38:41.120,-0.32,-0.26
20:38:41.124,-0.36,-0.175
20:38:41.128,-0.365,-0.1
20:38:41.132,-0.42,-0.07
20:38:41.136,-0.46,-0.055
20:38:41.140,-0.455,-0.065
20:38:41.144,-0.47,-0.085
20:38:41.148,-0.48,-0.1
20:38:41.152,-0.48,-0.12
20:38:41.156,-0.475,-0.12
20:38:41.160,-0.525,-0.155
20:38:41.164,-0.54,-0.16
20:38:41.168,-0.53,-0.145
20:38:41.172,-0.52,-0.13
20:38:41.176,-0.52,-0.16
20:38:41.180,-0.545,-0.185
20:38:41.184,-0.525,-0.18
20:38:41.188,-0.52,-0.18
20:38:41.192,-0.525,-0.205
20:38:41.196,-0.545,-0.2
20:38:41.200,-0.53,-0.22
20:38:41.204,-0.555,-0.21
20:38:41.208,-0.54,-0.21
20:38:41.212,-0.555,-0.215
20:38:41.216,-0.555,-0.21
20:38:41.220,-0.535,-0.225
20:38:41.224,-0.55,-0.225
20:38:41.228,-0.545,-0.24
20:38:41.232,-0.555,-0.255
20:38:41.236,-0.56,-0.265
20:38:41.240,-0.545,-0.275
20:38:41.244,-0.54,-0.285
20:38:41.248,-0.545,-0.27
20:38:41.252,-0.565,-0.285
20:38:41.256,-0.545,-0.3
20:38:41.260,-0.585,-0.305
20:38:41.264,-0.6,-0.335
20:38:41.268,-0.59,-0.355
20:38:41.272,-0.59,-0.335
20:38:41.276,-0.575,-0.37
20:38:41.280,-0.58,-0.375
20:38:41.284,-0.58,-0.38
20:38:41.288,-0.56,-0.39
20:38:41.292,-0.54,-0.415
20:38:41.296,-0.535,-0.435
20:38:41.300,-0.52,-0.45
20:38:41.304,-0.51,-0.48
20:38:41.308,-0.505,-0.45
20:38:41.312,-0.535,-0.465
20:38:41.316,-0.515,-0.46
20:38:41.320,-0.495,-0.475
20:38:41.324,-0.49,-0.505
20:38:41.328,-0.465,-0.485
20:38:41.332,-0.405,-0.5
20:38:41.336,-0.395,-0.51
20:38:41.340,-0.39,-0.535
20:38:41.344,-0.38,-0.54
20:38:41.348,-0.385,-0.55
20:38:41.352,-0.37,-0.57
20:38:41.356,-0.35,-0.605
20:38:41.360,-0.335,-0.59
20:38:41.364,-0.34,-0.59
20:38:41.368,-0.33,-0.595
20:38:41.372,-0.31,-0.61
20:38:41.376,-0.31,-0.615
20:38:41.380,-0.32,-0.625
20:38:41.384,-0.33,-0.64
20:38:41.388,-0.335,-0.635
20:38:41.392,-0.33,-0.65
20:38:41.396,-0.32,-0.665
20:38:41.400,-0.315,-0.7
20:38:41.404,-0.3,-0.735
20:38:41.408,-0.3,-0.75
20:38:41.412,-0.29,-0.77
20:38:41.416,-0.315,-0.765
20:38:41.420,-0.32,-0.77
20:38:41.424,-0.32,-0.77
20:38:41.428,-0.32,-0.78
20:38:41.432,-0.33,-0.78
20:38:41.436,-0.34,-0.76
20:38:41.440,-0.32,-0.785
20:38:41.444,-0.305,-0.815
20:38:41.448,-0.305,-0.795
20:38:41.452,-0.295,-0.815
20:38:41.456,-0.295,-0.82
20:38:41.460,-0.29,-0.82
20:38:41.464,-0.29,-0.845
20:38:41.468,-0.285,-0.825
20:38:41.472,-0.29,-0.815
20:38:41.476,-0.295,-0.86
20:38:41.480,-0.3,-0.89
20:38:41.484,-0.305,-0.915
20:38:41.488,-0.28,-0.94
20:38:41.492,-0.29,-0.98
20:38:41.496,-0.27,-1.055
20:38:41.500,-0.28,-1.13
20:38:41.504,-0.275,-1.16
20:38:41.508,-0.265,-1.185
20:38:41.512,-0.245,-1.16
20:38:41.516,-0.205,-1.175
20:38:41.520,-0.16,-1.15
20:38:41.524,-0.15,-1.14
20:38:41.528,-0.115,-1.15
20:38:41.532,-0.09,-1.14
20:38:41.536,-0.07,-1.135
20:38:41.540,-0.085,-1.145
20:38:41.544,-0.085,-1.165
20:38:41.548,-0.14,-1.195
20:38:41.552,-0.2,-1.23
20:38:41.556,-0.245,-1.23
20:38:41.560,-0.25,-1.22
20:38:41.564,-0.265,-1.22
20:38:41.568,-0.3,-1.215
20:38:41.572,-0.305,-1.205
20:38:41.576,-0.32,-1.19
20:38:41.580,-0.345,-1.16
20:38:41.584,-0.335,-1.145
20:38:41.588,-0.34,-1.13
20:38:41.592,-0.32,-1.115
20:38:41.596,-0.33,-1.135
20:38:41.600,-0.31,-1.115
20:38:41.604,-0.325,-1.12
20:38:41.608,-0.32,-1.115
20:38:41.612,-0.32,-1.125
20:38:41.616,-0.315,-1.105
20:38:41.620,-0.32,-1.1
20:38:41.624,-0.34,-1.09
20:38:41.628,-0.33,-1.085
20:38:41.632,-0.325,-1.055
20:38:41.636,-0.32,-1.04
20:38:41.640,-0.31,-1.035
20:38:41.644,-0.305,-1.015
20:38:41.648,-0.305,-0.935
20:38:41.652,-0.32,-0.81
20:38:41.656,-0.29,-0.68
20:38:41.660,-0.29,-0.6
20:38:41.664,-0.275,-0.615
20:38:41.668,-0.28,-0.585
20:38:41.672,-0.27,-0.575
20:38:41.676,-0.25,-0.53
20:38:41.680,-0.17,-0.49
20:38:41.684,-0.12,-0.49
20:38:41.688,-0.025,-0.475
20:38:41.692,0.08,-0.465
20:38:41.696,0.15,-0.49
20:38:41.700,0.21,-0.5
20:38:41.704,0.26,-0.525
20:38:41.708,0.3,-0.5
20:38:41.712,0.28,-0.495
20:38:41.716,0.26,-0.55
20:38:41.720,0.275,-0.6
20:38:41.724,0.445,-0.68
20:38:41.728,0.735,-0.84
20:38:41.732,1.025,-1.08
20:38:41.736,1.15,-1.28
20:38:41.740,0.995,-1.42
20:38:41.744,0.56,-1.355
20:38:41.748,0.095,-1.025
20:38:41.752,-0.18,-0.69
20:38:41.756,-0.3,-0.45
20:38:41.760,-0.35,-0.315
20:38:41.764,-0.38,-0.23
20:38:41.768,-0.4,-0.125
20:38:41.772,-0.43,-0.095
20:38:41.776,-0.44,-0.055
20:38:41.780,-0.465,-0.04
20:38:41.784,-0.455,-0.05
20:38:41.788,-0.5,-0.05
20:38:41.792,-0.48,-0.065
20:38:41.796,-0.465,-0.06
20:38:41.800,-0.47,-0.045
20:38:41.804,-0.465,-0.04
20:38:41.808,-0.465,-0.05
20:38:41.812,-0.465,-0.035
20:38:41.816,-0.48,-0.015
20:38:41.820,-0.49,-0.02
20:38:41.824,-0.48,-0.035
20:38:41.828,-0.495,-0.025
20:38:41.832,-0.48,-0.04
20:38:41.836,-0.505,-0.025
20:38:41.840,-0.495,-0.04
20:38:41.844,-0.51,-0.035
20:38:41.848,-0.53,-0.025
20:38:41.852,-0.54,-0.01
20:38:41.856,-0.52,-0.02
20:38:41.860,-0.54,0.0
20:38:41.864,-0.55,-0.005
20:38:41.868,-0.55,0.0
20:38:41.872,-0.545,0.0
20:38:41.876,-0.56,0.0
20:38:41.880,-0.555,0.0
20:38:41.884,-0.56,0.025
20:38:41.888,-0.54,0.01
20:38:41.892,-0.55,0.02
20:38:41.896,-0.57,0.01
20:38:41.900,-0.545,0.03
20:38:41.904,-0.555,0.015
20:38:41.908,-0.565,0.025
20:38:41.912,-0.545,0.045
20:38:41.916,-0.555,0.035
20:38:41.920,-0.525,0.05
20:38:41.924,-0.515,0.055
20:38:41.928,-0.515,0.05
20:38:41.932,-0.5,0.035
20:38:41.936,-0.505,0.035
20:38:41.940,-0.485,0.045
20:38:41.944,-0.495,0.02
20:38:41.948,-0.48,0.025
20:38:41.952,-0.46,0.005
20:38:41.956,-0.45,0.0
20:38:41.960,-0.45,0.0
20:38:41.964,-0.47,0.0
20:38:41.968,-0.46,-0.035
20:38:41.972,-0.435,-0.005
20:38:41.976,-0.425,-0.025
20:38:41.980,-0.415,-0.045
20:38:41.984,-0.405,-0.045
20:38:41.988,-0.385,-0.045
20:38:41.992,-0.37,-0.035
20:38:41.996,-0.37,-0.045
20:38:42.000,-0.36,-0.055
20:38:42.004,-0.345,-0.055
20:38:42.008,-0.365,-0.04
20:38:42.012,-0.345,-0.045
20:38:42.016,-0.355,-0.035
20:38:42.020,-0.36,-0.045
20:38:42.024,-0.33,-0.04
20:38:42.028,-0.33,-0.055
20:38:42.032,-0.305,-0.01
20:38:42.036,-0.3,-0.02
20:38:42.040,-0.32,-0.005
20:38:42.044,-0.315,-0.015
20:38:42.048,-0.32,-0.04
20:38:42.052,-0.31,-0.03
20:38:42.056,-0.32,-0.01
20:38:42.060,-0.33,-0.02
20:38:42.064,-0.335,-0.015
20:38:42.068,-0.315,-0.03
20:38:42.072,-0.325,-0.02
20:38:42.076,-0.32,-0.025
20:38:42.080,-0.33,-0.015
20:38:42.084,-0.345,-0.02
20:38:42.088,-0.35,-0.015
20:38:42.092,-0.345,-0.005
20:38:42.096,-0.345,-0.015
20:38:42.100,-0.345,-0.025
20:38:42.104,-0.345,-0.015
20:38:42.108,-0.34,-0.015
20:38:42.112,-0.35,-0.015
20:38:42.116,-0.345,-0.02
20:38:42.120,-0.345,-0.035
20:38:42.124,-0.31,-0.015
20:38:42.128,-0.32,-0.01
20:38:42.132,-0.305,-0.005
20:38:42.136,-0.28,-0.015
20:38:42.140,-0.27,-0.02
20:38:42.144,-0.275,-0.015
20:38:42.148,-0.26,0.005
20:38:42.152,-0.23,0.015
20:38:42.156,-0.2,0.035
20:38:42.160,-0.17,0.05
20:38:42.164,-0.14,0.07
20:38:42.168,-0.125,0.06
20:38:42.172,-0.105,0.035
20:38:42.176,-0.1,0.075
20:38:42.180,-0.12,0.045
20:38:42.184,-0.14,0.015
20:38:42.188,-0.2,-0.005
20:38:42.192,-0.245,-0.04
20:38:42.196,-0.285,-0.07
20:38:42.200,-0.33,-0.07
20:38:42.204,-0.385,-0.055
20:38:42.208,-0.395,-0.04
20:38:42.212,-0.425,-0.03
20:38:42.216,-0.435,0.0
20:38:42.220,-0.45,0.01
20:38:42.224,-0.45,0.015
20:38:42.228,-0.44,0.02
20:38:42.232,-0.455,0.0
20:38:42.236,-0.455,-0.005
20:38:42.240,-0.425,0.015
20:38:42.244,-0.44,0.01
20:38:42.248,-0.425,-0.01
20:38:42.252,-0.43,0.005
20:38:42.256,-0.42,-0.02
20:38:42.260,-0.39,0.005
20:38:42.264,-0.38,0.0
20:38:42.268,-0.375,-0.015
20:38:42.272,-0.405,-0.01
20:38:42.276,-0.395,-0.01
20:38:42.280,-0.39,0.0
20:38:42.284,-0.39,-0.02
20:38:42.288,-0.4,0.005
20:38:42.292,-0.395,-0.005
20:38:42.296,-0.41,0.005
20:38:42.300,-0.395,-0.005
20:38:42.304,-0.41,-0.015
20:38:42.308,-0.41,-0.01
20:38:42.312,-0.395,-0.02
20:38:42.316,-0.4,-0.015
20:38:42.320,-0.375,-0.03
20:38:42.324,-0.32,-0.04
20:38:42.328,-0.255,-0.03
20:38:42.332,-0.17,-0.025
20:38:42.336,-0.09,-0.055
20:38:42.340,-0.025,-0.07
20:38:42.344,0.015,-0.115
20:38:42.348,0.03,-0.17
20:38:42.352,0.045,-0.15
20:38:42.356,0.025,-0.165
20:38:42.360,0.025,-0.22
20:38:42.364,0.085,-0.34
20:38:42.368,0.27,-0.48
20:38:42.372,0.58,-0.715
20:38:42.376,0.87,-0.945
20:38:42.380,1.015,-1.175
20:38:42.384,0.88,-1.295
20:38:42.388,0.475,-1.185
20:38:42.392,0.01,-0.85
20:38:42.396,-0.285,-0.435
20:38:42.400,-0.39,-0.21
20:38:42.404,-0.46,-0.04
20:38:42.408,-0.47,0.04
20:38:42.412,-0.475,0.065
20:38:42.416,-0.505,0.105
20:38:42.420,-0.53,0.115
20:38:42.424,-0.555,0.115
20:38:42.428,-0.565,0.105
20:38:42.432,-0.575,0.115
20:38:42.436,-0.57,0.105
20:38:42.440,-0.565,0.085
20:38:42.444,-0.565,0.065
20:38:42.448,-0.59,0.06
20:38:42.452,-0.56,0.06
20:38:42.456,-0.56,0.07
20:38:42.460,-0.59,0.065
20:38:42.464,-0.585,0.06
20:38:42.468,-0.59,0.05
20:38:42.472,-0.59,0.08
20:38:42.476,-0.58,0.09
20:38:42.480,-0.595,0.085
20:38:42.484,-0.57,0.075
20:38:42.488,-0.575,0.075
20:38:42.492,-0.58,0.065
20:38:42.496,-0.57,0.065
20:38:42.500,-0.565,0.085
20:38:42.504,-0.57,0.085
20:38:42.508,-0.6,0.09
20:38:42.512,-0.595,0.105
20:38:42.516,-0.605,0.105
20:38:42.520,-0.605,0.08
20:38:42.524,-0.62,0.105
20:38:42.528,-0.62,0.095
20:38:42.532,-0.63,0.1
20:38:42.536,-0.62,0.105
20:38:42.540,-0.64,0.095
20:38:42.544,-0.625,0.095
20:38:42.548,-0.625,0.085
20:38:42.552,-0.61,0.095
20:38:42.556,-0.605,0.1
20:38:42.560,-0.605,0.08
20:38:42.564,-0.6,0.075
20:38:42.568,-0.59,0.095
20:38:42.572,-0.575,0.09
20:38:42.576,-0.57,0.085
20:38:42.580,-0.565,0.08
20:38:42.584,-0.54,0.09
20:38:42.588,-0.52,0.08
20:38:42.592,-0.525,0.075
20:38:42.596,-0.51,0.06
20:38:42.600,-0.475,0.06
20:38:42.604,-0.49,0.07
20:38:42.608,-0.47,0.035
20:38:42.612,-0.43,0.025
20:38:42.616,-0.44,0.04
20:38:42.620,-0.415,0.025
20:38:42.624,-0.4,0.035
20:38:42.628,-0.425,0.02
20:38:42.632,-0.405,0.015
20:38:42.636,-0.39,-0.005
20:38:42.640,-0.39,0.0
20:38:42.644,-0.355,0.0
20:38:42.648,-0.365,0.005
20:38:42.652,-0.38,-0.02
20:38:42.656,-0.375,-0.005
20:38:42.660,-0.365,-0.005
20:38:42.664,-0.34,0.01
20:38:42.668,-0.35,0.0
20:38:42.672,-0.33,-0.01
20:38:42.676,-0.335,-0.01
20:38:42.680,-0.34,-0.015
20:38:42.684,-0.345,-0.025
20:38:42.688,-0.33,-0.01
20:38:42.692,-0.315,-0.005
20:38:42.696,-0.32,0.0
20:38:42.700,-0.315,0.0
20:38:42.704,-0.32,-0.015
20:38:42.708,-0.32,0.0
20:38:42.712,-0.31,0.015
20:38:42.716,-0.32,0.0
20:38:42.720,-0.3,0.025
20:38:42.724,-0.325,0.03
20:38:42.728,-0.33,0.0
20:38:42.732,-0.31,0.03
20:38:42.736,-0.32,0.03
20:38:42.740,-0.325,0.02
20:38:42.744,-0.325,0.015
20:38:42.748,-0.31,0.025
20:38:42.752,-0.31,0.03
20:38:42.756,-0.29,0.015
20:38:42.760,-0.285,0.0
20:38:42.764,-0.285,0.03
20:38:42.768,-0.29,0.025
20:38:42.772,-0.29,0.055
20:38:42.776,-0.28,0.03
20:38:42.780,-0.27,0.06
20:38:42.784,-0.24,0.065
20:38:42.788,-0.2,0.065
20:38:42.792,-0.175,0.055
20:38:42.796,-0.15,0.07
20:38:42.800,-0.125,0.065
20:38:42.804,-0.095,0.07
20:38:42.808,-0.1,0.065
20:38:42.812,-0.125,0.05
20:38:42.816,-0.145,0.035
20:38:42.820,-0.16,0.005
20:38:42.824,-0.235,-0.025
20:38:42.828,-0.27,-0.06
20:38:42.832,-0.3,-0.045
20:38:42.836,-0.355,-0.03
20:38:42.840,-0.365,-0.025
20:38:42.844,-0.4,-0.015
20:38:42.848,-0.41,0.02
20:38:42.852,-0.415,0.045
20:38:42.856,-0.43,0.06
20:38:42.860,-0.43,0.02
20:38:42.864,-0.425,-0.005
20:38:42.868,-0.415,0.0
20:38:42.872,-0.42,-0.01
20:38:42.876,-0.425,-0.025
20:38:42.880,-0.43,-0.02
20:38:42.884,-0.44,-0.015
20:38:42.888,-0.41,-0.015
20:38:42.892,-0.43,-0.025
20:38:42.896,-0.415,-0.025
20:38:42.900,-0.405,-0.04
20:38:42.904,-0.415,-0.02
20:38:42.908,-0.405,-0.03
20:38:42.912,-0.39,-0.02
20:38:42.916,-0.415,-0.03
20:38:42.920,-0.4,-0.035
20:38:42.924,-0.41,0.0
20:38:42.928,-0.42,-0.02
20:38:42.932,-0.405,-0.02
20:38:42.936,-0.395,-0.03
20:38:42.940,-0.385,-0.015
20:38:42.944,-0.38,-0.03
20:38:42.948,-0.35,-0.035
20:38:42.952,-0.355,-0.01
20:38:42.956,-0.31,-0.025
20:38:42.960,-0.245,-0.03
20:38:42.964,-0.155,-0.035
20:38:42.968,-0.08,-0.055
20:38:42.972,-0.025,-0.05
20:38:42.976,0.03,-0.08
20:38:42.980,0.035,-0.125
20:38:42.984,0.07,-0.17
20:38:42.988,0.04,-0.16
20:38:42.992,0.05,-0.205
20:38:42.996,0.035,-0.28
20:38:43.000,0.18,-0.43
20:38:43.004,0.425,-0.645
20:38:43.008,0.77,-0.895
20:38:43.012,0.995,-1.135
20:38:43.016,0.965,-1.3
20:38:43.020,0.655,-1.315
20:38:43.024,0.17,-1.025
20:38:43.028,-0.195,-0.62
20:38:43.032,-0.39,-0.315
20:38:43.036,-0.445,-0.105
20:38:43.040,-0.475,-0.02
20:38:43.044,-0.48,0.03
20:38:43.048,-0.51,0.075
20:38:43.052,-0.53,0.105
20:38:43.056,-0.54,0.11
20:38:43.060,-0.54,0.095
20:38:43.064,-0.54,0.075
20:38:43.068,-0.54,0.075
20:38:43.072,-0.555,0.055
20:38:43.076,-0.545,0.075
20:38:43.080,-0.555,0.065
20:38:43.084,-0.535,0.06
20:38:43.088,-0.545,0.055
20:38:43.092,-0.575,0.05
20:38:43.096,-0.56,0.04
20:38:43.100,-0.57,0.055
20:38:43.104,-0.575,0.045
20:38:43.108,-0.57,0.055
20:38:43.112,-0.58,0.065
20:38:43.116,-0.59,0.055
20:38:43.120,-0.615,0.04
20:38:43.124,-0.6,0.06
20:38:43.128,-0.605,0.05
20:38:43.132,-0.62,0.055
20:38:43.136,-0.62,0.03
20:38:43.140,-0.625,0.03
20:38:43.144,-0.625,0.04
20:38:43.148,-0.62,0.045
20:38:43.152,-0.64,0.045
20:38:43.156,-0.64,0.06
20:38:43.160,-0.64,0.05
20:38:43.164,-0.64,0.025
20:38:43.168,-0.64,0.04
20:38:43.172,-0.645,0.06
20:38:43.176,-0.63,0.055
20:38:43.180,-0.61,0.025
20:38:43.184,-0.615,0.065
20:38:43.188,-0.62,0.055
20:38:43.192,-0.62,0.06
20:38:43.196,-0.62,0.06
20:38:43.200,-0.595,0.06
20:38:43.204,-0.595,0.07
20:38:43.208,-0.585,0.05
20:38:43.212,-0.57,0.03
20:38:43.216,-0.57,0.03
20:38:43.220,-0.56,0.025
20:38:43.224,-0.54,0.015
20:38:43.228,-0.55,0.02
20:38:43.232,-0.55,0.025
20:38:43.236,-0.515,0.01
20:38:43.240,-0.495,0.0
20:38:43.244,-0.47,0.02
20:38:43.248,-0.475,-0.015
20:38:43.252,-0.475,-0.025
20:38:43.256,-0.44,-0.03
20:38:43.260,-0.435,-0.03
20:38:43.264,-0.43,0.0
20:38:43.268,-0.395,-0.035
20:38:43.272,-0.38,-0.045
20:38:43.276,-0.38,-0.06
20:38:43.280,-0.405,-0.055
20:38:43.284,-0.375,-0.075
20:38:43.288,-0.36,-0.045
20:38:43.292,-0.345,-0.035
20:38:43.296,-0.335,-0.03
20:38:43.300,-0.345,-0.02
20:38:43.304,-0.345,-0.03
20:38:43.308,-0.34,-0.02
20:38:43.312,-0.34,-0.03
20:38:43.316,-0.325,-0.02
20:38:43.320,-0.34,-0.02
20:38:43.324,-0.33,0.005
20:38:43.328,-0.35,-0.015
20:38:43.332,-0.335,0.0
20:38:43.336,-0.32,-0.005
20:38:43.340,-0.34,-0.01
20:38:43.344,-0.32,0.0
20:38:43.348,-0.35,-0.005
20:38:43.352,-0.355,0.01
20:38:43.356,-0.355,0.005
20:38:43.360,-0.355,0.02
20:38:43.364,-0.36,0.005
20:38:43.368,-0.375,0.005
20:38:43.372,-0.38,0.02
20:38:43.376,-0.365,0.005
20:38:43.380,-0.35,0.005
20:38:43.384,-0.32,0.015
20:38:43.388,-0.29,0.005
20:38:43.392,-0.285,0.02
20:38:43.396,-0.295,0.025
20:38:43.400,-0.27,0.025
20:38:43.404,-0.255,0.045
20:38:43.408,-0.19,0.045
20:38:43.412,-0.16,0.05
20:38:43.416,-0.155,0.055
20:38:43.420,-0.11,0.075
20:38:43.424,-0.075,0.065
20:38:43.428,-0.08,0.065
20:38:43.432,-0.06,0.07
20:38:43.436,-0.04,0.05
20:38:43.440,-0.075,0.065
20:38:43.444,-0.105,0.03
20:38:43.448,-0.16,0.0
20:38:43.452,-0.21,-0.005
20:38:43.456,-0.265,-0.07
20:38:43.460,-0.325,-0.05
20:38:43.464,-0.36,-0.025
20:38:43.468,-0.41,-0.03
20:38:43.472,-0.395,-0.015
20:38:43.476,-0.425,0.0
20:38:43.480,-0.425,0.005
20:38:43.484,-0.435,-0.01
20:38:43.488,-0.43,-0.035
20:38:43.492,-0.43,-0.03
20:38:43.496,-0.4,-0.02
20:38:43.500,-0.385,-0.035
20:38:43.504,-0.38,-0.05
20:38:43.508,-0.39,-0.03
20:38:43.512,-0.355,-0.045
20:38:43.516,-0.35,-0.05
20:38:43.520,-0.355,-0.06
20:38:43.524,-0.345,-0.06
20:38:43.528,-0.35,-0.075
20:38:43.532,-0.34,-0.04
20:38:43.536,-0.335,-0.065
20:38:43.540,-0.34,-0.06
20:38:43.544,-0.32,-0.045
20:38:43.548,-0.345,-0.06
20:38:43.552,-0.335,-0.055
20:38:43.556,-0.335,-0.065
20:38:43.560,-0.36,-0.08
20:38:43.564,-0.335,-0.09
20:38:43.568,-0.34,-0.08
20:38:43.572,-0.345,-0.11
20:38:43.576,-0.34,-0.095
20:38:43.580,-0.32,-0.11
20:38:43.584,-0.28,-0.105
20:38:43.588,-0.205,-0.12
20:38:43.592,-0.135,-0.12
20:38:43.596,-0.05,-0.125
20:38:43.600,0.06,-0.13
20:38:43.604,0.11,-0.18
20:38:43.608,0.155,-0.225
20:38:43.612,0.185,-0.22
20:38:43.616,0.2,-0.22
20:38:43.620,0.18,-0.24
20:38:43.624,0.185,-0.315
20:38:43.628,0.315,-0.405
20:38:43.632,0.565,-0.585
20:38:43.636,0.895,-0.805
20:38:43.640,1.115,-1.07
20:38:43.644,1.05,-1.255
20:38:43.648,0.7,-1.255
20:38:43.652,0.235,-1.01
20:38:43.656,-0.095,-0.63
20:38:43.660,-0.265,-0.35
20:38:43.664,-0.33,-0.21
20:38:43.668,-0.345,-0.12
20:38:43.672,-0.35,-0.045
20:38:43.676,-0.395,-0.015
20:38:43.680,-0.44,-0.01
20:38:43.684,-0.44,-0.02
20:38:43.688,-0.47,-0.055
20:38:43.692,-0.47,-0.075
20:38:43.696,-0.48,-0.08
20:38:43.700,-0.49,-0.07
20:38:43.704,-0.495,-0.085
20:38:43.708,-0.495,-0.105
20:38:43.712,-0.51,-0.1
20:38:43.716,-0.505,-0.11
20:38:43.720,-0.505,-0.12
20:38:43.724,-0.49,-0.11
20:38:43.728,-0.47,-0.12
20:38:43.732,-0.485,-0.115
20:38:43.736,-0.515,-0.11
20:38:43.740,-0.515,-0.13
20:38:43.744,-0.495,-0.145
20:38:43.748,-0.49,-0.12
20:38:43.752,-0.48,-0.12
20:38:43.756,-0.53,-0.145
20:38:43.760,-0.515,-0.14
20:38:43.764,-0.5,-0.15
20:38:43.768,-0.495,-0.155
20:38:43.772,-0.51,-0.155
20:38:43.776,-0.51,-0.17
20:38:43.780,-0.5,-0.18
20:38:43.784,-0.525,-0.17
20:38:43.788,-0.54,-0.17
20:38:43.792,-0.53,-0.18
20:38:43.796,-0.535,-0.185
20:38:43.800,-0.535,-0.185
20:38:43.804,-0.54,-0.2
20:38:43.808,-0.54,-0.2
20:38:43.812,-0.52,-0.19
20:38:43.816,-0.525,-0.19
20:38:43.820,-0.53,-0.21
20:38:43.824,-0.53,-0.23
20:38:43.828,-0.54,-0.235
20:38:43.832,-0.535,-0.23
20:38:43.836,-0.52,-0.225
20:38:43.840,-0.49,-0.23
20:38:43.844,-0.475,-0.215
20:38:43.848,-0.455,-0.23
20:38:43.852,-0.445,-0.24
20:38:43.856,-0.43,-0.255
20:38:43.860,-0.42,-0.245
20:38:43.864,-0.41,-0.265
20:38:43.868,-0.39,-0.295
20:38:43.872,-0.37,-0.28
20:38:43.876,-0.375,-0.29
20:38:43.880,-0.37,-0.29
20:38:43.884,-0.325,-0.32
20:38:43.888,-0.32,-0.285
20:38:43.892,-0.32,-0.32
20:38:43.896,-0.3,-0.325
20:38:43.900,-0.295,-0.325
20:38:43.904,-0.3,-0.355
20:38:43.908,-0.285,-0.335
20:38:43.912,-0.265,-0.335
20:38:43.916,-0.26,-0.35
20:38:43.920,-0.27,-0.35
20:38:43.924,-0.255,-0.365
20:38:43.928,-0.26,-0.38
20:38:43.932,-0.255,-0.37
20:38:43.936,-0.26,-0.4
20:38:43.940,-0.23,-0.37
20:38:43.944,-0.24,-0.395
20:38:43.948,-0.24,-0.42
20:38:43.952,-0.24,-0.39
20:38:43.956,-0.245,-0.405
20:38:43.960,-0.24,-0.38
20:38:43.964,-0.245,-0.395
20:38:43.968,-0.23,-0.415
20:38:43.972,-0.23,-0.395
20:38:43.976,-0.23,-0.415
20:38:43.980,-0.235,-0.41
20:38:43.984,-0.23,-0.415
20:38:43.988,-0.25,-0.425
20:38:43.992,-0.24,-0.445
20:38:43.996,-0.24,-0.46
20:38:44.000,-0.24,-0.465
20:38:44.004,-0.235,-0.465
20:38:44.008,-0.265,-0.455
20:38:44.012,-0.24,-0.48
20:38:44.016,-0.23,-0.48
20:38:44.020,-0.23,-0.49
20:38:44.024,-0.22,-0.53
20:38:44.028,-0.225,-0.545
20:38:44.032,-0.23,-0.515
20:38:44.036,-0.22,-0.545
20:38:44.040,-0.21,-0.54
20:38:44.044,-0.21,-0.54
20:38:44.048,-0.19,-0.55
20:38:44.052,-0.16,-0.52
20:38:44.056,-0.115,-0.53
20:38:44.060,-0.08,-0.53
20:38:44.064,-0.055,-0.53
20:38:44.068,-0.035,-0.505
20:38:44.072,-0.005,-0.51
20:38:44.076,0.01,-0.51
20:38:44.080,0.0,-0.53
20:38:44.084,-0.005,-0.52
20:38:44.088,-0.05,-0.55
20:38:44.092,-0.1,-0.555
20:38:44.096,-0.15,-0.555
20:38:44.100,-0.2,-0.595
20:38:44.104,-0.235,-0.605
20:38:44.108,-0.28,-0.595
20:38:44.112,-0.315,-0.565
20:38:44.116,-0.33,-0.525
20:38:44.120,-0.335,-0.51
20:38:44.124,-0.335,-0.5
20:38:44.128,-0.365,-0.48
20:38:44.132,-0.355,-0.48
20:38:44.136,-0.355,-0.5
20:38:44.140,-0.355,-0.5
20:38:44.144,-0.355,-0.5
20:38:44.148,-0.355,-0.5
20:38:44.152,-0.345,-0.51
20:38:44.156,-0.345,-0.495
20:38:44.160,-0.345,-0.505
20:38:44.164,-0.335,-0.48
20:38:44.168,-0.345,-0.49
20:38:44.172,-0.335,-0.48
20:38:44.176,-0.345,-0.5
20:38:44.180,-0.32,-0.475
20:38:44.184,-0.345,-0.455
20:38:44.188,-0.34,-0.465
20:38:44.192,-0.355,-0.48
20:38:44.196,-0.335,-0.455
20:38:44.200,-0.32,-0.46
20:38:44.204,-0.33,-0.445
20:38:44.208,-0.32,-0.435
20:38:44.212,-0.315,-0.45
20:38:44.216,-0.315,-0.435
20:38:44.220,-0.295,-0.425
20:38:44.224,-0.26,-0.425
20:38:44.228,-0.23,-0.42
20:38:44.232,-0.16,-0.415
20:38:44.236,-0.06,-0.41
20:38:44.240,0.005,-0.385
20:38:44.244,0.08,-0.42
20:38:44.248,0.13,-0.465
20:38:44.252,0.155,-0.48
20:38:44.256,0.175,-0.515
20:38:44.260,0.19,-0.49
20:38:44.264,0.17,-0.53
20:38:44.268,0.21,-0.62
20:38:44.272,0.42,-0.755
20:38:44.276,0.73,-0.95
