Time,ECG1,ECG2
21:55:21.492,-0.36,-0.14
21:55:21.496,-0.35,-0.16
21:55:21.500,-0.34,-0.185
21:55:21.504,-0.32,-0.175
21:55:21.508,-0.335,-0.18
21:55:21.512,-0.345,-0.185
21:55:21.516,-0.325,-0.195
21:55:21.520,-0.305,-0.205
21:55:21.524,-0.32,-0.225
21:55:21.528,-0.32,-0.25
21:55:21.532,-0.33,-0.255
21:55:21.536,-0.315,-0.275
21:55:21.540,-0.32,-0.265
21:55:21.544,-0.32,-0.285
21:55:21.548,-0.33,-0.31
21:55:21.552,-0.32,-0.305
21:55:21.556,-0.31,-0.335
21:55:21.560,-0.305,-0.34
21:55:21.564,-0.29,-0.35
21:55:21.568,-0.305,-0.375
21:55:21.572,-0.31,-0.38
21:55:21.576,-0.3,-0.385
21:55:21.580,-0.315,-0.41
21:55:21.584,-0.325,-0.42
21:55:21.588,-0.315,-0.405
21:55:21.592,-0.315,-0.41
21:55:21.596,-0.295,-0.405
21:55:21.600,-0.26,-0.43
21:55:21.604,-0.2,-0.465
21:55:21.608,-0.16,-0.45
21:55:21.612,-0.075,-0.48
21:55:21.616,0.03,-0.485
21:55:21.620,0.115,-0.53
21:55:21.624,0.185,-0.56
21:55:21.628,0.21,-0.625
21:55:21.632,0.28,-0.64
21:55:21.636,0.34,-0.645
21:55:21.640,0.325,-0.705
21:55:21.644,0.315,-0.795
21:55:21.648,0.435,-0.925
21:55:21.652,0.68,-1.145
21:55:21.656,0.95,-1.34
21:55:21.660,1.1,-1.54
21:55:21.664,0.95,-1.635
21:55:21.668,0.51,-1.44
21:55:21.672,0.065,-1.1
21:55:21.676,-0.18,-0.855
21:55:21.680,-0.275,-0.75
21:55:21.684,-0.305,-0.64
21:55:21.688,-0.345,-0.53
21:55:21.692,-0.395,-0.505
21:55:21.696,-0.415,-0.515
21:55:21.700,-0.43,-0.52
21:55:21.704,-0.45,-0.52
21:55:21.708,-0.455,-0.555
21:55:21.712,-0.41,-0.575
21:55:21.716,-0.43,-0.59
21:55:21.720,-0.435,-0.6
21:55:21.724,-0.425,-0.615
21:55:21.728,-0.43,-0.605
21:55:21.732,-0.45,-0.62
21:55:21.736,-0.47,-0.635
21:55:21.740,-0.475,-0.625
21:55:21.744,-0.455,-0.64
21:55:21.748,-0.45,-0.65
21:55:21.752,-0.465,-0.65
21:55:21.756,-0.485,-0.65
21:55:21.760,-0.475,-0.67
21:55:21.764,-0.475,-0.685
21:55:21.768,-0.49,-0.67
21:55:21.772,-0.5,-0.67
21:55:21.776,-0.485,-0.67
21:55:21.780,-0.49,-0.675
21:55:21.784,-0.505,-0.7
21:55:21.788,-0.515,-0.68
21:55:21.792,-0.495,-0.72
21:55:21.796,-0.5,-0.695
21:55:21.800,-0.505,-0.7
21:55:21.804,-0.51,-0.695
21:55:21.808,-0.505,-0.705
21:55:21.812,-0.505,-0.69
21:55:21.816,-0.5,-0.67
21:55:21.820,-0.495,-0.66
21:55:21.824,-0.485,-0.675
21:55:21.828,-0.465,-0.67
21:55:21.832,-0.475,-0.67
21:55:21.836,-0.5,-0.64
21:55:21.840,-0.475,-0.645
21:55:21.844,-0.46,-0.64
21:55:21.848,-0.45,-0.635
21:55:21.852,-0.45,-0.645
21:55:21.856,-0.405,-0.65
21:55:21.860,-0.415,-0.67
21:55:21.864,-0.42,-0.665
21:55:21.868,-0.4,-0.675
21:55:21.872,-0.4,-0.665
21:55:21.876,-0.39,-0.68
21:55:21.880,-0.36,-0.675
21:55:21.884,-0.38,-0.655
21:55:21.888,-0.37,-0.66
21:55:21.892,-0.345,-0.675
21:55:21.896,-0.345,-0.655
21:55:21.900,-0.32,-0.675
21:55:21.904,-0.315,-0.64
21:55:21.908,-0.31,-0.675
21:55:21.912,-0.285,-0.64
21:55:21.916,-0.275,-0.645
21:55:21.920,-0.255,-0.635
21:55:21.924,-0.26,-0.625
21:55:21.928,-0.255,-0.62
21:55:21.932,-0.235,-0.615
21:55:21.936,-0.205,-0.62
21:55:21.940,-0.22,-0.575
21:55:21.944,-0.21,-0.575
21:55:21.948,-0.225,-0.545
21:55:21.952,-0.22,-0.525
21:55:21.956,-0.205,-0.52
21:55:21.960,-0.205,-0.51
21:55:21.964,-0.195,-0.505
21:55:21.968,-0.2,-0.49
21:55:21.972,-0.2,-0.49
21:55:21.976,-0.21,-0.49
21:55:21.980,-0.2,-0.485
21:55:21.984,-0.205,-0.475
21:55:21.988,-0.205,-0.495
21:55:21.992,-0.21,-0.47
21:55:21.996,-0.22,-0.465
21:55:22.000,-0.205,-0.48
21:55:22.004,-0.195,-0.47
21:55:22.008,-0.155,-0.45
21:55:22.012,-0.16,-0.47
21:55:22.016,-0.15,-0.46
21:55:22.020,-0.145,-0.475
21:55:22.024,-0.1,-0.43
21:55:22.028,-0.06,-0.435
21:55:22.032,-0.035,-0.415
21:55:22.036,0.005,-0.41
21:55:22.040,0.05,-0.405
21:55:22.044,0.11,-0.385
21:55:22.048,0.145,-0.385
21:55:22.052,0.135,-0.38
21:55:22.056,0.115,-0.355
21:55:22.060,0.1,-0.375
21:55:22.064,0.085,-0.405
21:55:22.068,0.04,-0.425
21:55:22.072,-0.015,-0.44
21:55:22.076,-0.085,-0.43
21:55:22.080,-0.13,-0.425
21:55:22.084,-0.17,-0.415
21:55:22.088,-0.22,-0.415
21:55:22.092,-0.265,-0.37
21:55:22.096,-0.305,-0.385
21:55:22.100,-0.295,-0.39
21:55:22.104,-0.275,-0.405
21:55:22.108,-0.28,-0.38
21:55:22.112,-0.275,-0.405
21:55:22.116,-0.26,-0.4
21:55:22.120,-0.24,-0.39
21:55:22.124,-0.24,-0.42
21:55:22.128,-0.22,-0.41
21:55:22.132,-0.23,-0.405
21:55:22.136,-0.23,-0.415
21:55:22.140,-0.215,-0.415
21:55:22.144,-0.22,-0.425
21:55:22.148,-0.215,-0.425
21:55:22.152,-0.225,-0.445
21:55:22.156,-0.195,-0.42
21:55:22.160,-0.19,-0.435
21:55:22.164,-0.185,-0.445
21:55:22.168,-0.195,-0.425
21:55:22.172,-0.19,-0.45
21:55:22.176,-0.2,-0.46
21:55:22.180,-0.18,-0.465
21:55:22.184,-0.2,-0.46
21:55:22.188,-0.17,-0.47
21:55:22.192,-0.2,-0.455
21:55:22.196,-0.19,-0.435
21:55:22.200,-0.175,-0.46
21:55:22.204,-0.13,-0.455
21:55:22.208,-0.075,-0.44
21:55:22.212,0.005,-0.46
21:55:22.216,0.105,-0.47
21:55:22.220,0.18,-0.51
21:55:22.224,0.225,-0.575
21:55:22.228,0.265,-0.625
21:55:22.232,0.31,-0.62
21:55:22.236,0.33,-0.655
21:55:22.240,0.325,-0.72
21:55:22.244,0.36,-0.835
21:55:22.248,0.505,-1.03
21:55:22.252,0.825,-1.215
21:55:22.256,1.125,-1.43
21:55:22.260,1.25,-1.615
21:55:22.264,1.04,-1.64
21:55:22.268,0.55,-1.405
21:55:22.272,0.07,-1.0
21:55:22.276,-0.15,-0.72
21:55:22.280,-0.225,-0.57
21:55:22.284,-0.265,-0.45
21:55:22.288,-0.28,-0.36
21:55:22.292,-0.295,-0.31
21:55:22.296,-0.325,-0.305
21:55:22.300,-0.36,-0.3
21:55:22.304,-0.365,-0.295
21:55:22.308,-0.37,-0.315
21:55:22.312,-0.385,-0.325
21:55:22.316,-0.385,-0.32
21:55:22.320,-0.4,-0.32
21:55:22.324,-0.4,-0.335
21:55:22.328,-0.38,-0.34
21:55:22.332,-0.385,-0.36
21:55:22.336,-0.405,-0.35
21:55:22.340,-0.395,-0.33
21:55:22.344,-0.39,-0.36
21:55:22.348,-0.405,-0.355
21:55:22.352,-0.42,-0.36
21:55:22.356,-0.415,-0.37
21:55:22.360,-0.41,-0.345
21:55:22.364,-0.415,-0.355
21:55:22.368,-0.425,-0.35
21:55:22.372,-0.42,-0.35
21:55:22.376,-0.41,-0.35
21:55:22.380,-0.43,-0.33
21:55:22.384,-0.415,-0.335
21:55:22.388,-0.445,-0.34
21:55:22.392,-0.445,-0.335
21:55:22.396,-0.425,-0.335
21:55:22.400,-0.435,-0.345
21:55:22.404,-0.45,-0.33
21:55:22.408,-0.46,-0.335
21:55:22.412,-0.455,-0.33
21:55:22.416,-0.47,-0.34
21:55:22.420,-0.45,-0.34
21:55:22.424,-0.445,-0.32
21:55:22.428,-0.465,-0.335
21:55:22.432,-0.44,-0.34
21:55:22.436,-0.445,-0.33
21:55:22.440,-0.43,-0.35
21:55:22.444,-0.415,-0.375
21:55:22.448,-0.415,-0.375
21:55:22.452,-0.405,-0.355
21:55:22.456,-0.395,-0.37
21:55:22.460,-0.395,-0.36
21:55:22.464,-0.36,-0.36
21:55:22.468,-0.36,-0.38
21:55:22.472,-0.355,-0.395
21:55:22.476,-0.345,-0.4
21:55:22.480,-0.34,-0.405
21:55:22.484,-0.3,-0.435
21:55:22.488,-0.28,-0.425
21:55:22.492,-0.3,-0.44
21:55:22.496,-0.275,-0.445
21:55:22.500,-0.25,-0.44
21:55:22.504,-0.265,-0.43
21:55:22.508,-0.255,-0.42
21:55:22.512,-0.24,-0.42
21:55:22.516,-0.25,-0.435
21:55:22.520,-0.245,-0.43
21:55:22.524,-0.235,-0.44
21:55:22.528,-0.23,-0.435
21:55:22.532,-0.245,-0.42
21:55:22.536,-0.235,-0.435
21:55:22.540,-0.23,-0.44
21:55:22.544,-0.25,-0.445
21:55:22.548,-0.26,-0.425
21:55:22.552,-0.235,-0.41
21:55:22.556,-0.25,-0.425
21:55:22.560,-0.24,-0.41
21:55:22.564,-0.23,-0.41
21:55:22.568,-0.26,-0.41
21:55:22.572,-0.235,-0.41
21:55:22.576,-0.25,-0.415
21:55:22.580,-0.245,-0.39
21:55:22.584,-0.255,-0.36
21:55:22.588,-0.235,-0.39
21:55:22.592,-0.225,-0.39
21:55:22.596,-0.21,-0.39
21:55:22.600,-0.19,-0.36
21:55:22.604,-0.185,-0.38
21:55:22.608,-0.18,-0.365
21:55:22.612,-0.17,-0.355
21:55:22.616,-0.17,-0.32
21:55:22.620,-0.125,-0.32
21:55:22.624,-0.07,-0.305
21:55:22.628,-0.04,-0.28
21:55:22.632,-0.03,-0.29
21:55:22.636,0.0,-0.29
21:55:22.640,0.02,-0.285
21:55:22.644,0.03,-0.29
21:55:22.648,0.025,-0.285
21:55:22.652,0.015,-0.31
21:55:22.656,0.015,-0.335
21:55:22.660,-0.025,-0.355
21:55:22.664,-0.07,-0.385
21:55:22.668,-0.12,-0.4
21:55:22.672,-0.19,-0.385
21:55:22.676,-0.26,-0.395
21:55:22.680,-0.305,-0.345
21:55:22.684,-0.34,-0.335
21:55:22.688,-0.36,-0.315
21:55:22.692,-0.385,-0.32
21:55:22.696,-0.37,-0.32
21:55:22.700,-0.36,-0.33
21:55:22.704,-0.335,-0.32
21:55:22.708,-0.325,-0.335
21:55:22.712,-0.33,-0.34
21:55:22.716,-0.325,-0.345
21:55:22.720,-0.32,-0.32
21:55:22.724,-0.3,-0.355
21:55:22.728,-0.31,-0.345
21:55:22.732,-0.32,-0.325
21:55:22.736,-0.3,-0.345
21:55:22.740,-0.295,-0.355
21:55:22.744,-0.295,-0.345
21:55:22.748,-0.32,-0.33
21:55:22.752,-0.295,-0.345
21:55:22.756,-0.295,-0.355
21:55:22.760,-0.32,-0.365
21:55:22.764,-0.305,-0.34
21:55:22.768,-0.31,-0.37
21:55:22.772,-0.315,-0.34
21:55:22.776,-0.32,-0.38
21:55:22.780,-0.33,-0.37
21:55:22.784,-0.315,-0.365
21:55:22.788,-0.305,-0.36
21:55:22.792,-0.28,-0.37
21:55:22.796,-0.255,-0.35
21:55:22.800,-0.215,-0.335
21:55:22.804,-0.14,-0.34
21:55:22.808,-0.045,-0.36
21:55:22.812,0.015,-0.385
21:55:22.816,0.08,-0.415
21:55:22.820,0.13,-0.46
21:55:22.824,0.145,-0.49
21:55:22.828,0.17,-0.5
21:55:22.832,0.17,-0.53
21:55:22.836,0.175,-0.65
21:55:22.840,0.23,-0.76
21:55:22.844,0.445,-0.95
21:55:22.848,0.76,-1.14
21:55:22.852,1.015,-1.39
21:55:22.856,1.085,-1.55
21:55:22.860,0.81,-1.555
21:55:22.864,0.32,-1.255
21:55:22.868,-0.11,-0.86
21:55:22.872,-0.315,-0.6
21:55:22.876,-0.405,-0.435
21:55:22.880,-0.42,-0.335
21:55:22.884,-0.415,-0.275
21:55:22.888,-0.43,-0.24
21:55:22.892,-0.425,-0.225
21:55:22.896,-0.45,-0.195
21:55:22.900,-0.45,-0.19
21:55:22.904,-0.475,-0.235
21:55:22.908,-0.475,-0.235
21:55:22.912,-0.46,-0.21
21:55:22.916,-0.455,-0.24
21:55:22.920,-0.47,-0.21
21:55:22.924,-0.45,-0.22
21:55:22.928,-0.45,-0.23
21:55:22.932,-0.445,-0.22
21:55:22.936,-0.44,-0.195
21:55:22.940,-0.425,-0.205
21:55:22.944,-0.45,-0.2
21:55:22.948,-0.445,-0.205
21:55:22.952,-0.45,-0.215
21:55:22.956,-0.45,-0.205
21:55:22.960,-0.465,-0.19
21:55:22.964,-0.445,-0.19
21:55:22.968,-0.465,-0.195
21:55:22.972,-0.47,-0.2
21:55:22.976,-0.48,-0.205
21:55:22.980,-0.485,-0.185
21:55:22.984,-0.5,-0.195
21:55:22.988,-0.505,-0.155
21:55:22.992,-0.48,-0.195
21:55:22.996,-0.495,-0.185
21:55:23.000,-0.475,-0.205
21:55:23.004,-0.5,-0.21
21:55:23.008,-0.505,-0.19
21:55:23.012,-0.51,-0.19
21:55:23.016,-0.51,-0.18
21:55:23.020,-0.48,-0.195
21:55:23.024,-0.48,-0.185
21:55:23.028,-0.48,-0.175
21:55:23.032,-0.47,-0.16
21:55:23.036,-0.445,-0.17
21:55:23.040,-0.445,-0.17
21:55:23.044,-0.41,-0.15
21:55:23.048,-0.425,-0.18
21:55:23.052,-0.395,-0.18
21:55:23.056,-0.385,-0.18
21:55:23.060,-0.395,-0.205
21:55:23.064,-0.395,-0.21
21:55:23.068,-0.365,-0.235
21:55:23.072,-0.375,-0.215
21:55:23.076,-0.35,-0.22
21:55:23.080,-0.355,-0.24
21:55:23.084,-0.365,-0.235
21:55:23.088,-0.37,-0.24
21:55:23.092,-0.375,-0.235
21:55:23.096,-0.34,-0.285
21:55:23.100,-0.31,-0.27
21:55:23.104,-0.33,-0.285
21:55:23.108,-0.33,-0.26
21:55:23.112,-0.32,-0.26
21:55:23.116,-0.3,-0.3
21:55:23.120,-0.3,-0.3
21:55:23.124,-0.28,-0.29
21:55:23.128,-0.29,-0.29
21:55:23.132,-0.31,-0.28
21:55:23.136,-0.295,-0.27
21:55:23.140,-0.28,-0.28
21:55:23.144,-0.285,-0.265
21:55:23.148,-0.27,-0.27
21:55:23.152,-0.25,-0.27
21:55:23.156,-0.265,-0.27
21:55:23.160,-0.25,-0.275
21:55:23.164,-0.26,-0.27
21:55:23.168,-0.27,-0.275
21:55:23.172,-0.26,-0.26
21:55:23.176,-0.28,-0.25
21:55:23.180,-0.26,-0.24
21:55:23.184,-0.26,-0.24
21:55:23.188,-0.255,-0.23
21:55:23.192,-0.25,-0.23
21:55:23.196,-0.225,-0.24
21:55:23.200,-0.235,-0.23
21:55:23.204,-0.235,-0.2
21:55:23.208,-0.175,-0.185
21:55:23.212,-0.155,-0.205
21:55:23.216,-0.095,-0.2
21:55:23.220,-0.095,-0.17
21:55:23.224,-0.06,-0.185
21:55:23.228,-0.025,-0.195
21:55:23.232,-0.01,-0.175
21:55:23.236,-0.01,-0.175
21:55:23.240,-0.03,-0.175
21:55:23.244,-0.05,-0.23
21:55:23.248,-0.095,-0.24
21:55:23.252,-0.15,-0.25
21:55:23.256,-0.18,-0.23
21:55:23.260,-0.22,-0.235
21:55:23.264,-0.29,-0.24
21:55:23.268,-0.355,-0.2
21:55:23.272,-0.37,-0.19
21:55:23.276,-0.375,-0.19
21:55:23.280,-0.39,-0.175
21:55:23.284,-0.38,-0.19
21:55:23.288,-0.385,-0.19
21:55:23.292,-0.39,-0.18
21:55:23.296,-0.395,-0.22
21:55:23.300,-0.39,-0.185
21:55:23.304,-0.39,-0.19
21:55:23.308,-0.37,-0.19
21:55:23.312,-0.39,-0.22
21:55:23.316,-0.39,-0.225
21:55:23.320,-0.375,-0.22
21:55:23.324,-0.38,-0.25
21:55:23.328,-0.36,-0.24
21:55:23.332,-0.36,-0.23
21:55:23.336,-0.365,-0.24
21:55:23.340,-0.36,-0.22
21:55:23.344,-0.38,-0.23
21:55:23.348,-0.365,-0.215
21:55:23.352,-0.37,-0.21
21:55:23.356,-0.375,-0.2
21:55:23.360,-0.37,-0.22
21:55:23.364,-0.35,-0.21
21:55:23.368,-0.355,-0.21
21:55:23.372,-0.34,-0.19
21:55:23.376,-0.355,-0.2
21:55:23.380,-0.34,-0.2
21:55:23.384,-0.305,-0.19
21:55:23.388,-0.265,-0.18
21:55:23.392,-0.195,-0.2
21:55:23.396,-0.11,-0.19
21:55:23.400,-0.045,-0.2
21:55:23.404,0.01,-0.22
21:55:23.408,0.055,-0.285
21:55:23.412,0.08,-0.34
21:55:23.416,0.11,-0.32
21:55:23.420,0.09,-0.36
21:55:23.424,0.11,-0.44
21:55:23.428,0.115,-0.565
21:55:23.432,0.295,-0.73
21:55:23.436,0.61,-0.965
21:55:23.440,0.91,-1.17
21:55:23.444,1.03,-1.355
21:55:23.448,0.85,-1.4
21:55:23.452,0.41,-1.18
21:55:23.456,-0.06,-0.79
21:55:23.460,-0.33,-0.47
21:55:23.464,-0.42,-0.3
21:55:23.468,-0.45,-0.19
21:55:23.472,-0.47,-0.08
21:55:23.476,-0.48,-0.055
21:55:23.480,-0.49,-0.03
21:55:23.484,-0.48,-0.02
21:55:23.488,-0.47,-0.045
21:55:23.492,-0.5,-0.06
21:55:23.496,-0.495,-0.06
21:55:23.500,-0.495,-0.07
21:55:23.504,-0.49,-0.08
21:55:23.508,-0.53,-0.095
21:55:23.512,-0.52,-0.09
21:55:23.516,-0.52,-0.09
21:55:23.520,-0.53,-0.095
21:55:23.524,-0.51,-0.095
21:55:23.528,-0.51,-0.105
21:55:23.532,-0.545,-0.08
21:55:23.536,-0.54,-0.105
21:55:23.540,-0.54,-0.13
21:55:23.544,-0.55,-0.095
21:55:23.548,-0.54,-0.095
21:55:23.552,-0.54,-0.125
21:55:23.556,-0.535,-0.11
21:55:23.560,-0.545,-0.11
21:55:23.564,-0.54,-0.1
21:55:23.568,-0.555,-0.12
21:55:23.572,-0.54,-0.1
21:55:23.576,-0.54,-0.115
21:55:23.580,-0.545,-0.105
21:55:23.584,-0.555,-0.1
21:55:23.588,-0.545,-0.085
21:55:23.592,-0.545,-0.075
21:55:23.596,-0.545,-0.075
21:55:23.600,-0.53,-0.05
21:55:23.604,-0.495,-0.06
21:55:23.608,-0.52,-0.065
21:55:23.612,-0.52,-0.035
21:55:23.616,-0.505,-0.04
21:55:23.620,-0.48,-0.05
21:55:23.624,-0.475,-0.04
21:55:23.628,-0.475,-0.06
21:55:23.632,-0.475,-0.06
21:55:23.636,-0.49,-0.08
21:55:23.640,-0.445,-0.07
21:55:23.644,-0.42,-0.065
21:55:23.648,-0.43,-0.065
21:55:23.652,-0.43,-0.095
21:55:23.656,-0.4,-0.085
21:55:23.660,-0.395,-0.095
21:55:23.664,-0.385,-0.125
21:55:23.668,-0.37,-0.13
21:55:23.672,-0.37,-0.13
21:55:23.676,-0.36,-0.155
21:55:23.680,-0.34,-0.145
21:55:23.684,-0.34,-0.16
21:55:23.688,-0.34,-0.195
21:55:23.692,-0.32,-0.18
21:55:23.696,-0.29,-0.19
21:55:23.700,-0.265,-0.21
21:55:23.704,-0.28,-0.225
21:55:23.708,-0.275,-0.21
21:55:23.712,-0.26,-0.2
21:55:23.716,-0.25,-0.21
21:55:23.720,-0.245,-0.22
21:55:23.724,-0.28,-0.235
21:55:23.728,-0.25,-0.23
21:55:23.732,-0.25,-0.24
21:55:23.736,-0.24,-0.24
21:55:23.740,-0.25,-0.24
21:55:23.744,-0.255,-0.25
21:55:23.748,-0.265,-0.245
21:55:23.752,-0.26,-0.245
21:55:23.756,-0.27,-0.25
21:55:23.760,-0.27,-0.255
21:55:23.764,-0.26,-0.28
21:55:23.768,-0.255,-0.28
21:55:23.772,-0.24,-0.285
21:55:23.776,-0.25,-0.27
21:55:23.780,-0.28,-0.28
21:55:23.784,-0.25,-0.31
21:55:23.788,-0.24,-0.31
21:55:23.792,-0.23,-0.29
21:55:23.796,-0.225,-0.29
21:55:23.800,-0.205,-0.295
21:55:23.804,-0.2,-0.27
21:55:23.808,-0.135,-0.295
21:55:23.812,-0.075,-0.29
21:55:23.816,-0.065,-0.285
21:55:23.820,-0.015,-0.27
21:55:23.824,0.02,-0.27
21:55:23.828,0.04,-0.275
21:55:23.832,0.045,-0.28
21:55:23.836,0.05,-0.28
21:55:23.840,0.0,-0.295
21:55:23.844,-0.04,-0.335
21:55:23.848,-0.065,-0.375
21:55:23.852,-0.11,-0.425
21:55:23.856,-0.16,-0.43
21:55:23.860,-0.24,-0.415
21:55:23.864,-0.335,-0.43
21:55:23.868,-0.36,-0.43
21:55:23.872,-0.38,-0.43
21:55:23.876,-0.4,-0.41
21:55:23.880,-0.395,-0.415
21:55:23.884,-0.4,-0.435
21:55:23.888,-0.4,-0.45
21:55:23.892,-0.41,-0.45
21:55:23.896,-0.39,-0.475
21:55:23.900,-0.37,-0.49
21:55:23.904,-0.38,-0.5
21:55:23.908,-0.375,-0.495
21:55:23.912,-0.335,-0.505
21:55:23.916,-0.325,-0.505
21:55:23.920,-0.32,-0.54
21:55:23.924,-0.34,-0.56
21:55:23.928,-0.355,-0.54
21:55:23.932,-0.36,-0.54
21:55:23.936,-0.355,-0.55
21:55:23.940,-0.345,-0.545
21:55:23.944,-0.34,-0.55
21:55:23.948,-0.345,-0.56
21:55:23.952,-0.36,-0.58
21:55:23.956,-0.37,-0.585
21:55:23.960,-0.35,-0.59
21:55:23.964,-0.34,-0.59
21:55:23.968,-0.36,-0.59
21:55:23.972,-0.375,-0.6
21:55:23.976,-0.365,-0.61
21:55:23.980,-0.33,-0.635
21:55:23.984,-0.32,-0.635
21:55:23.988,-0.275,-0.64
21:55:23.992,-0.2,-0.64
21:55:23.996,-0.1,-0.66
21:55:24.000,-0.01,-0.68
21:55:24.004,0.06,-0.72
21:55:24.008,0.11,-0.77
21:55:24.012,0.18,-0.795
21:55:24.016,0.225,-0.775
21:55:24.020,0.22,-0.815
21:55:24.024,0.2,-0.86
21:55:24.028,0.29,-0.98
21:55:24.032,0.495,-1.135
21:55:24.036,0.765,-1.335
21:55:24.040,0.97,-1.545
21:55:24.044,0.985,-1.705
21:55:24.048,0.72,-1.74
21:55:24.052,0.26,-1.515
21:55:24.056,-0.11,-1.16
21:55:24.060,-0.275,-0.945
21:55:24.064,-0.35,-0.825
21:55:24.068,-0.39,-0.715
21:55:24.072,-0.405,-0.63
21:55:24.076,-0.43,-0.59
21:55:24.080,-0.495,-0.585
21:55:24.084,-0.51,-0.59
21:55:24.088,-0.51,-0.62
21:55:24.092,-0.53,-0.62
21:55:24.096,-0.52,-0.61
21:55:24.100,-0.53,-0.635
21:55:24.104,-0.54,-0.635
21:55:24.108,-0.54,-0.655
21:55:24.112,-0.555,-0.665
21:55:24.116,-0.55,-0.67
21:55:24.120,-0.55,-0.67
21:55:24.124,-0.565,-0.63
21:55:24.128,-0.56,-0.645
21:55:24.132,-0.55,-0.655
21:55:24.136,-0.555,-0.635
21:55:24.140,-0.555,-0.615
21:55:24.144,-0.54,-0.64
21:55:24.148,-0.53,-0.62
21:55:24.152,-0.55,-0.6
21:55:24.156,-0.545,-0.6
21:55:24.160,-0.555,-0.605
21:55:24.164,-0.55,-0.595
21:55:24.168,-0.57,-0.59
21:55:24.172,-0.585,-0.565
21:55:24.176,-0.57,-0.58
21:55:24.180,-0.575,-0.595
21:55:24.184,-0.585,-0.57
21:55:24.188,-0.595,-0.56
21:55:24.192,-0.6,-0.545
21:55:24.196,-0.59,-0.545
21:55:24.200,-0.595,-0.515
21:55:24.204,-0.58,-0.52
21:55:24.208,-0.59,-0.51
21:55:24.212,-0.585,-0.51
21:55:24.216,-0.59,-0.5
21:55:24.220,-0.59,-0.465
21:55:24.224,-0.59,-0.47
21:55:24.228,-0.575,-0.475
21:55:24.232,-0.545,-0.465
21:55:24.236,-0.555,-0.45
21:55:24.240,-0.545,-0.455
21:55:24.244,-0.5,-0.455
21:55:24.248,-0.49,-0.46
21:55:24.252,-0.48,-0.45
21:55:24.256,-0.47,-0.445
21:55:24.260,-0.43,-0.435
21:55:24.264,-0.46,-0.405
21:55:24.268,-0.45,-0.41
21:55:24.272,-0.44,-0.4
21:55:24.276,-0.45,-0.425
21:55:24.280,-0.43,-0.425
21:55:24.284,-0.415,-0.41
21:55:24.288,-0.405,-0.425
21:55:24.292,-0.395,-0.4
21:55:24.296,-0.375,-0.38
21:55:24.300,-0.39,-0.37
21:55:24.304,-0.39,-0.365
21:55:24.308,-0.38,-0.37
21:55:24.312,-0.36,-0.37
21:55:24.316,-0.375,-0.335
21:55:24.320,-0.38,-0.33
21:55:24.324,-0.365,-0.325
21:55:24.328,-0.35,-0.34
21:55:24.332,-0.355,-0.32
21:55:24.336,-0.345,-0.305
21:55:24.340,-0.33,-0.295
21:55:24.344,-0.345,-0.3
21:55:24.348,-0.35,-0.305
21:55:24.352,-0.36,-0.265
21:55:24.356,-0.35,-0.275
21:55:24.360,-0.335,-0.265
21:55:24.364,-0.32,-0.27
21:55:24.368,-0.325,-0.255
21:55:24.372,-0.33,-0.255
21:55:24.376,-0.31,-0.245
21:55:24.380,-0.34,-0.24
21:55:24.384,-0.335,-0.215
21:55:24.388,-0.3,-0.21
21:55:24.392,-0.32,-0.21
21:55:24.396,-0.28,-0.23
21:55:24.400,-0.28,-0.2
21:55:24.404,-0.27,-0.195
21:55:24.408,-0.265,-0.22
21:55:24.412,-0.27,-0.21
21:55:24.416,-0.235,-0.185
21:55:24.420,-0.19,-0.16
21:55:24.424,-0.16,-0.17
21:55:24.428,-0.1,-0.175
21:55:24.432,-0.075,-0.15
21:55:24.436,-0.04,-0.15
21:55:24.440,-0.025,-0.15
21:55:24.444,0.0,-0.15
21:55:24.448,0.005,-0.115
21:55:24.452,-0.045,-0.145
21:55:24.456,-0.06,-0.175
21:55:24.460,-0.11,-0.21
21:55:24.464,-0.15,-0.185
21:55:24.468,-0.205,-0.18
21:55:24.472,-0.245,-0.175
21:55:24.476,-0.3,-0.19
21:55:24.480,-0.355,-0.16
21:55:24.484,-0.38,-0.155
21:55:24.488,-0.41,-0.135
21:55:24.492,-0.41,-0.145
21:55:24.496,-0.41,-0.125
21:55:24.500,-0.4,-0.13
21:55:24.504,-0.385,-0.12
21:55:24.508,-0.39,-0.145
21:55:24.512,-0.385,-0.145
21:55:24.516,-0.38,-0.145
21:55:24.520,-0.38,-0.14
21:55:24.524,-0.405,-0.155
21:55:24.528,-0.405,-0.155
21:55:24.532,-0.39,-0.14
21:55:24.536,-0.41,-0.18
21:55:24.540,-0.395,-0.16
21:55:24.544,-0.375,-0.17
21:55:24.548,-0.38,-0.16
21:55:24.552,-0.385,-0.175
21:55:24.556,-0.365,-0.165
21:55:24.560,-0.36,-0.175
21:55:24.564,-0.365,-0.165
21:55:24.568,-0.37,-0.16
21:55:24.572,-0.355,-0.17
21:55:24.576,-0.35,-0.17
21:55:24.580,-0.345,-0.175
21:55:24.584,-0.335,-0.155
21:55:24.588,-0.345,-0.17
21:55:24.592,-0.3,-0.16
21:55:24.596,-0.26,-0.165
21:55:24.600,-0.21,-0.17
21:55:24.604,-0.11,-0.16
21:55:24.608,-0.035,-0.185
21:55:24.612,0.04,-0.195
21:55:24.616,0.1,-0.225
21:55:24.620,0.125,-0.29
21:55:24.624,0.155,-0.3
21:55:24.628,0.17,-0.32
21:55:24.632,0.17,-0.4
21:55:24.636,0.2,-0.545
21:55:24.640,0.355,-0.69
21:55:24.644,0.63,-0.905
21:55:24.648,0.93,-1.12
21:55:24.652,1.055,-1.335
21:55:24.656,0.94,-1.425
21:55:24.660,0.51,-1.25
21:55:24.664,0.02,-0.885
21:55:24.668,-0.265,-0.545
21:55:24.672,-0.375,-0.35
21:55:24.676,-0.455,-0.22
21:55:24.680,-0.455,-0.145
21:55:24.684,-0.46,-0.1
21:55:24.688,-0.485,-0.045
21:55:24.692,-0.495,-0.015
21:55:24.696,-0.485,-0.04
21:55:24.700,-0.5,-0.03
21:55:24.704,-0.49,-0.04
21:55:24.708,-0.5,-0.06
21:55:24.712,-0.5,-0.05
21:55:24.716,-0.495,-0.045
21:55:24.720,-0.495,-0.045
21:55:24.724,-0.51,-0.025
21:55:24.728,-0.505,-0.07
21:55:24.732,-0.51,-0.075
21:55:24.736,-0.515,-0.06
21:55:24.740,-0.515,-0.07
21:55:24.744,-0.53,-0.05
21:55:24.748,-0.52,-0.06
21:55:24.752,-0.535,-0.065
21:55:24.756,-0.55,-0.07
21:55:24.760,-0.55,-0.065
21:55:24.764,-0.565,-0.085
21:55:24.768,-0.535,-0.09
21:55:24.772,-0.535,-0.075
21:55:24.776,-0.56,-0.09
21:55:24.780,-0.555,-0.07
21:55:24.784,-0.56,-0.06
21:55:24.788,-0.585,-0.1
21:55:24.792,-0.57,-0.08
21:55:24.796,-0.565,-0.08
21:55:24.800,-0.55,-0.085
21:55:24.804,-0.55,-0.075
21:55:24.808,-0.54,-0.06
21:55:24.812,-0.545,-0.055
21:55:24.816,-0.535,-0.045
21:55:24.820,-0.54,-0.03
21:55:24.824,-0.525,-0.04
21:55:24.828,-0.52,-0.035
21:55:24.832,-0.515,-0.03
21:55:24.836,-0.495,-0.035
21:55:24.840,-0.5,-0.04
21:55:24.844,-0.47,-0.065
21:55:24.848,-0.48,-0.055
21:55:24.852,-0.475,-0.075
21:55:24.856,-0.485,-0.065
21:55:24.860,-0.465,-0.09
21:55:24.864,-0.45,-0.11
21:55:24.868,-0.44,-0.12
21:55:24.872,-0.445,-0.13
21:55:24.876,-0.425,-0.13
21:55:24.880,-0.39,-0.145
21:55:24.884,-0.39,-0.16
21:55:24.888,-0.395,-0.155
21:55:24.892,-0.395,-0.165
21:55:24.896,-0.39,-0.155
21:55:24.900,-0.35,-0.17
21:55:24.904,-0.35,-0.155
21:55:24.908,-0.365,-0.14
21:55:24.912,-0.355,-0.16
21:55:24.916,-0.34,-0.15
21:55:24.920,-0.345,-0.14
21:55:24.924,-0.325,-0.15
21:55:24.928,-0.31,-0.14
21:55:24.932,-0.31,-0.135
21:55:24.936,-0.315,-0.115
21:55:24.940,-0.335,-0.12
21:55:24.944,-0.335,-0.12
21:55:24.948,-0.31,-0.105
21:55:24.952,-0.315,-0.11
21:55:24.956,-0.32,-0.1
21:55:24.960,-0.315,-0.125
21:55:24.964,-0.33,-0.125
21:55:24.968,-0.33,-0.11
21:55:24.972,-0.335,-0.105
21:55:24.976,-0.32,-0.11
21:55:24.980,-0.285,-0.105
21:55:24.984,-0.295,-0.13
21:55:24.988,-0.29,-0.125
21:55:24.992,-0.27,-0.1
21:55:24.996,-0.255,-0.1
21:55:25.000,-0.26,-0.1
21:55:25.004,-0.255,-0.105
21:55:25.008,-0.23,-0.075
21:55:25.012,-0.175,-0.08
21:55:25.016,-0.14,-0.08
21:55:25.020,-0.125,-0.055
21:55:25.024,-0.065,-0.025
21:55:25.028,-0.02,-0.06
21:55:25.032,0.0,-0.055
21:55:25.036,-0.02,-0.05
21:55:25.040,-0.025,-0.02
21:55:25.044,-0.065,-0.08
21:55:25.048,-0.09,-0.085
21:55:25.052,-0.16,-0.1
21:55:25.056,-0.23,-0.105
21:55:25.060,-0.27,-0.125
21:55:25.064,-0.32,-0.13
21:55:25.068,-0.4,-0.12
21:55:25.072,-0.445,-0.08
21:55:25.076,-0.47,-0.095
21:55:25.080,-0.46,-0.08
21:55:25.084,-0.45,-0.07
21:55:25.088,-0.48,-0.08
21:55:25.092,-0.455,-0.09
21:55:25.096,-0.445,-0.115
21:55:25.100,-0.455,-0.12
21:55:25.104,-0.455,-0.12
21:55:25.108,-0.435,-0.14
21:55:25.112,-0.42,-0.125
21:55:25.116,-0.425,-0.13
21:55:25.120,-0.43,-0.145
21:55:25.124,-0.415,-0.115
21:55:25.128,-0.415,-0.125
21:55:25.132,-0.41,-0.13
21:55:25.136,-0.38,-0.105
21:55:25.140,-0.415,-0.14
21:55:25.144,-0.39,-0.145
21:55:25.148,-0.39,-0.125
21:55:25.152,-0.405,-0.105
21:55:25.156,-0.395,-0.11
21:55:25.160,-0.4,-0.1
21:55:25.164,-0.385,-0.12
21:55:25.168,-0.405,-0.11
21:55:25.172,-0.395,-0.095
21:55:25.176,-0.38,-0.105
21:55:25.180,-0.37,-0.09
21:55:25.184,-0.365,-0.105
21:55:25.188,-0.33,-0.115
21:55:25.192,-0.26,-0.115
21:55:25.196,-0.17,-0.14
21:55:25.200,-0.095,-0.125
21:55:25.204,-0.025,-0.17
21:55:25.208,0.0,-0.23
21:55:25.212,0.03,-0.26
21:55:25.216,0.065,-0.265
21:55:25.220,0.055,-0.285
21:55:25.224,0.045,-0.385
21:55:25.228,0.115,-0.515
21:55:25.232,0.355,-0.71
21:55:25.236,0.66,-0.93
21:55:25.240,0.94,-1.155
21:55:25.244,0.96,-1.315
21:55:25.248,0.7,-1.305
21:55:25.252,0.205,-1.035
21:55:25.256,-0.2,-0.635
21:55:25.260,-0.405,-0.33
21:55:25.264,-0.475,-0.175
21:55:25.268,-0.51,-0.05
21:55:25.272,-0.5,-0.005
21:55:25.276,-0.495,0.025
21:55:25.280,-0.51,0.04
21:55:25.284,-0.535,0.08
21:55:25.288,-0.54,0.035
21:55:25.292,-0.545,0.045
21:55:25.296,-0.535,0.03
21:55:25.300,-0.555,0.015
21:55:25.304,-0.55,0.015
21:55:25.308,-0.54,0.0
21:55:25.312,-0.565,0.005
21:55:25.316,-0.57,0.03
21:55:25.320,-0.56,0.01
21:55:25.324,-0.565,0.0
21:55:25.328,-0.56,0.01
21:55:25.332,-0.565,0.005
21:55:25.336,-0.57,0.005
21:55:25.340,-0.545,0.01
21:55:25.344,-0.57,0.005
21:55:25.348,-0.575,0.02
21:55:25.352,-0.545,0.01
21:55:25.356,-0.555,0.02
21:55:25.360,-0.56,0.025
21:55:25.364,-0.555,0.02
21:55:25.368,-0.56,0.05
21:55:25.372,-0.545,0.03
21:55:25.376,-0.55,0.05
21:55:25.380,-0.57,0.055
21:55:25.384,-0.58,0.045
21:55:25.388,-0.58,0.045
21:55:25.392,-0.575,0.035
21:55:25.396,-0.585,0.06
21:55:25.400,-0.56,0.05
21:55:25.404,-0.59,0.06
21:55:25.408,-0.565,0.065
21:55:25.412,-0.575,0.06
21:55:25.416,-0.58,0.04
21:55:25.420,-0.565,0.07
21:55:25.424,-0.55,0.055
21:55:25.428,-0.54,0.05
21:55:25.432,-0.54,0.055
21:55:25.436,-0.52,0.045
21:55:25.440,-0.515,0.025
21:55:25.444,-0.495,0.045
21:55:25.448,-0.505,0.035
21:55:25.452,-0.47,0.015
21:55:25.456,-0.46,0.01
21:55:25.460,-0.445,0.0
21:55:25.464,-0.42,0.0
21:55:25.468,-0.405,0.0
21:55:25.472,-0.39,0.0
21:55:25.476,-0.395,-0.015
21:55:25.480,-0.395,-0.025
21:55:25.484,-0.375,-0.03
21:55:25.488,-0.38,-0.035
21:55:25.492,-0.385,-0.03
21:55:25.496,-0.395,-0.02
21:55:25.500,-0.375,-0.025
21:55:25.504,-0.36,-0.025
21:55:25.508,-0.365,-0.05
21:55:25.512,-0.35,-0.035
21:55:25.516,-0.385,-0.025
21:55:25.520,-0.37,-0.035
21:55:25.524,-0.37,-0.025
21:55:25.528,-0.365,-0.03
21:55:25.532,-0.355,-0.04
21:55:25.536,-0.36,-0.03
21:55:25.540,-0.345,-0.015
21:55:25.544,-0.345,-0.02
21:55:25.548,-0.365,-0.015
21:55:25.552,-0.355,-0.015
21:55:25.556,-0.36,-0.02
21:55:25.560,-0.38,0.0
21:55:25.564,-0.355,0.025
21:55:25.568,-0.34,0.01
21:55:25.572,-0.315,0.02
21:55:25.576,-0.3,0.035
21:55:25.580,-0.285,0.03
21:55:25.584,-0.285,0.02
21:55:25.588,-0.29,0.07
21:55:25.592,-0.26,0.055
21:55:25.596,-0.195,0.075
21:55:25.600,-0.16,0.085
21:55:25.604,-0.135,0.09
21:55:25.608,-0.105,0.11
21:55:25.612,-0.085,0.11
21:55:25.616,-0.08,0.115
21:55:25.620,-0.075,0.095
21:55:25.624,-0.085,0.11
21:55:25.628,-0.125,0.07
21:55:25.632,-0.18,0.05
21:55:25.636,-0.22,0.03
21:55:25.640,-0.285,0.015
21:55:25.644,-0.31,-0.005
21:55:25.648,-0.39,-0.005
21:55:25.652,-0.46,0.01
21:55:25.656,-0.485,0.045
21:55:25.660,-0.5,0.045
21:55:25.664,-0.52,0.035
21:55:25.668,-0.5,0.035
21:55:25.672,-0.495,0.015
21:55:25.676,-0.52,0.02
21:55:25.680,-0.48,0.0
21:55:25.684,-0.455,0.02
21:55:25.688,-0.435,0.005
21:55:25.692,-0.445,0.015
21:55:25.696,-0.435,-0.005
21:55:25.700,-0.42,0.005
21:55:25.704,-0.435,-0.01
21:55:25.708,-0.435,0.005
21:55:25.712,-0.44,0.01
21:55:25.716,-0.42,0.015
21:55:25.720,-0.415,0.005
21:55:25.724,-0.425,0.0
21:55:25.728,-0.415,0.035
21:55:25.732,-0.44,0.035
21:55:25.736,-0.43,0.015
21:55:25.740,-0.44,0.0
21:55:25.744,-0.44,0.02
21:55:25.748,-0.44,0.01
21:55:25.752,-0.41,-0.005
21:55:25.756,-0.445,0.0
21:55:25.760,-0.445,-0.015
21:55:25.764,-0.415,-0.025
21:55:25.768,-0.41,-0.01
21:55:25.772,-0.385,-0.02
21:55:25.776,-0.31,-0.03
21:55:25.780,-0.235,-0.055
21:55:25.784,-0.105,-0.07
21:55:25.788,-0.02,-0.11
21:55:25.792,0.02,-0.105
21:55:25.796,0.075,-0.165
21:55:25.800,0.115,-0.185
21:55:25.804,0.145,-0.2
21:55:25.808,0.11,-0.24
21:55:25.812,0.13,-0.32
21:55:25.816,0.23,-0.43
21:55:25.820,0.49,-0.615
21:55:25.824,0.775,-0.85
21:55:25.828,0.98,-1.065
21:55:25.832,0.89,-1.2
21:55:25.836,0.49,-1.125
21:55:25.840,0.04,-0.835
21:55:25.844,-0.245,-0.495
21:55:25.848,-0.37,-0.3
21:55:25.852,-0.405,-0.18
21:55:25.856,-0.42,-0.06
21:55:25.860,-0.45,0.0
21:55:25.864,-0.475,0.035
21:55:25.868,-0.495,0.01
21:55:25.872,-0.545,0.015
21:55:25.876,-0.55,-0.01
21:55:25.880,-0.535,-0.04
21:55:25.884,-0.54,-0.035
21:55:25.888,-0.52,-0.045
21:55:25.892,-0.52,-0.045
21:55:25.896,-0.535,-0.06
21:55:25.900,-0.565,-0.08
21:55:25.904,-0.535,-0.075
21:55:25.908,-0.54,-0.07
21:55:25.912,-0.54,-0.075
21:55:25.916,-0.54,-0.075
21:55:25.920,-0.56,-0.07
21:55:25.924,-0.545,-0.105
21:55:25.928,-0.545,-0.095
21:55:25.932,-0.535,-0.1
21:55:25.936,-0.555,-0.1
21:55:25.940,-0.53,-0.125
21:55:25.944,-0.555,-0.125
21:55:25.948,-0.57,-0.13
21:55:25.952,-0.59,-0.12
21:55:25.956,-0.615,-0.14
21:55:25.960,-0.585,-0.115
21:55:25.964,-0.6,-0.14
21:55:25.968,-0.575,-0.13
21:55:25.972,-0.57,-0.175
21:55:25.976,-0.585,-0.165
21:55:25.980,-0.58,-0.175
21:55:25.984,-0.58,-0.195
21:55:25.988,-0.59,-0.175
21:55:25.992,-0.56,-0.205
21:55:25.996,-0.58,-0.21
21:55:26.000,-0.575,-0.22
21:55:26.004,-0.59,-0.195
21:55:26.008,-0.565,-0.215
21:55:26.012,-0.565,-0.205
21:55:26.016,-0.56,-0.22
21:55:26.020,-0.54,-0.23
21:55:26.024,-0.525,-0.215
21:55:26.028,-0.49,-0.235
21:55:26.032,-0.475,-0.235
21:55:26.036,-0.485,-0.255
21:55:26.040,-0.485,-0.275
21:55:26.044,-0.48,-0.255
21:55:26.048,-0.46,-0.285
21:55:26.052,-0.455,-0.305
21:55:26.056,-0.465,-0.325
21:55:26.060,-0.42,-0.305
21:55:26.064,-0.43,-0.34
21:55:26.068,-0.43,-0.36
21:55:26.072,-0.44,-0.34
21:55:26.076,-0.435,-0.39
21:55:26.080,-0.4,-0.385
21:55:26.084,-0.385,-0.385
21:55:26.088,-0.38,-0.41
21:55:26.092,-0.42,-0.42
21:55:26.096,-0.41,-0.4
21:55:26.100,-0.425,-0.425
21:55:26.104,-0.41,-0.42
21:55:26.108,-0.385,-0.415
21:55:26.112,-0.38,-0.44
21:55:26.116,-0.37,-0.425
21:55:26.120,-0.375,-0.42
21:55:26.124,-0.365,-0.445
21:55:26.128,-0.355,-0.42
21:55:26.132,-0.35,-0.46
21:55:26.136,-0.36,-0.445
21:55:26.140,-0.36,-0.455
21:55:26.144,-0.365,-0.46
21:55:26.148,-0.35,-0.455
21:55:26.152,-0.37,-0.475
21:55:26.156,-0.36,-0.445
21:55:26.160,-0.38,-0.475
21:55:26.164,-0.355,-0.48
21:55:26.168,-0.375,-0.48
21:55:26.172,-0.36,-0.485
21:55:26.176,-0.345,-0.475
21:55:26.180,-0.37,-0.49
21:55:26.184,-0.36,-0.515
21:55:26.188,-0.34,-0.515
21:55:26.192,-0.34,-0.51
21:55:26.196,-0.31,-0.55
21:55:26.200,-0.295,-0.515
21:55:26.204,-0.225,-0.53
21:55:26.208,-0.18,-0.49
21:55:26.212,-0.145,-0.51
21:55:26.216,-0.105,-0.515
21:55:26.220,-0.085,-0.505
21:55:26.224,-0.05,-0.515
21:55:26.228,-0.04,-0.48
21:55:26.232,-0.07,-0.49
21:55:26.236,-0.1,-0.51
21:55:26.240,-0.155,-0.55
21:55:26.244,-0.205,-0.575
21:55:26.248,-0.25,-0.585
21:55:26.252,-0.32,-0.58
21:55:26.256,-0.375,-0.575
21:55:26.260,-0.42,-0.56
21:55:26.264,-0.45,-0.545
21:55:26.268,-0.44,-0.535
21:55:26.272,-0.465,-0.535
21:55:26.276,-0.46,-0.53
21:55:26.280,-0.48,-0.545
21:55:26.284,-0.475,-0.55
21:55:26.288,-0.455,-0.575
21:55:26.292,-0.45,-0.56
21:55:26.296,-0.455,-0.535
21:55:26.300,-0.47,-0.545
21:55:26.304,-0.455,-0.55
21:55:26.308,-0.455,-0.545
21:55:26.312,-0.46,-0.565
21:55:26.316,-0.44,-0.54
21:55:26.320,-0.45,-0.54
21:55:26.324,-0.43,-0.535
21:55:26.328,-0.445,-0.54
21:55:26.332,-0.475,-0.52
21:55:26.336,-0.455,-0.535
21:55:26.340,-0.445,-0.51
21:55:26.344,-0.435,-0.51
21:55:26.348,-0.405,-0.51
21:55:26.352,-0.42,-0.49
21:55:26.356,-0.405,-0.51
21:55:26.360,-0.425,-0.52
21:55:26.364,-0.425,-0.49
21:55:26.368,-0.4,-0.505
21:55:26.372,-0.4,-0.475
21:55:26.376,-0.365,-0.465
21:55:26.380,-0.31,-0.47
21:55:26.384,-0.235,-0.455
21:55:26.388,-0.155,-0.465
21:55:26.392,-0.05,-0.46
21:55:26.396,0.005,-0.495
21:55:26.400,0.055,-0.535
21:55:26.404,0.115,-0.56
21:55:26.408,0.16,-0.54
21:55:26.412,0.15,-0.56
21:55:26.416,0.135,-0.615
21:55:26.420,0.215,-0.715
21:55:26.424,0.425,-0.835
21:55:26.428,0.725,-1.025
21:55:26.432,0.96,-1.24
21:55:26.436,1.025,-1.385
21:55:26.440,0.765,-1.43
21:55:26.444,0.29,-1.2
21:55:26.448,-0.125,-0.855
21:55:26.452,-0.325,-0.595
21:55:26.456,-0.41,-0.45
21:55:26.460,-0.425,-0.355
21:55:26.464,-0.43,-0.245
21:55:26.468,-0.455,-0.18
21:55:26.472,-0.47,-0.15
21:55:26.476,-0.515,-0.13
21:55:26.480,-0.54,-0.14
21:55:26.484,-0.545,-0.115
21:55:26.488,-0.545,-0.12
21:55:26.492,-0.555,-0.14
21:55:26.496,-0.54,-0.13
21:55:26.500,-0.54,-0.105
21:55:26.504,-0.56,-0.14
21:55:26.508,-0.565,-0.11
21:55:26.512,-0.565,-0.115
21:55:26.516,-0.57,-0.1
21:55:26.520,-0.565,-0.115
21:55:26.524,-0.565,-0.12
21:55:26.528,-0.565,-0.115
21:55:26.532,-0.56,-0.085
21:55:26.536,-0.555,-0.115
21:55:26.540,-0.575,-0.09
21:55:26.544,-0.59,-0.085
21:55:26.548,-0.58,-0.095
21:55:26.552,-0.59,-0.08
21:55:26.556,-0.585,-0.08
21:55:26.560,-0.59,-0.08
21:55:26.564,-0.555,-0.065
21:55:26.568,-0.575,-0.045
21:55:26.572,-0.565,-0.04
21:55:26.576,-0.55,-0.04
21:55:26.580,-0.545,-0.03
21:55:26.584,-0.545,-0.02
21:55:26.588,-0.54,-0.035
21:55:26.592,-0.55,0.0
21:55:26.596,-0.55,0.0
21:55:26.600,-0.525,0.01
21:55:26.604,-0.54,0.01
21:55:26.608,-0.55,0.0
21:55:26.612,-0.525,0.035
21:55:26.616,-0.54,0.0
21:55:26.620,-0.53,0.02
21:55:26.624,-0.535,0.0
21:55:26.628,-0.515,0.015
21:55:26.632,-0.495,0.0
21:55:26.636,-0.48,-0.02
21:55:26.640,-0.475,-0.03
21:55:26.644,-0.46,-0.04
21:55:26.648,-0.465,-0.05
21:55:26.652,-0.445,-0.065
21:55:26.656,-0.4,-0.055
21:55:26.660,-0.415,-0.07
21:55:26.664,-0.4,-0.065
21:55:26.668,-0.4,-0.085
21:55:26.672,-0.38,-0.075
21:55:26.676,-0.36,-0.08
21:55:26.680,-0.335,-0.095
21:55:26.684,-0.33,-0.1
21:55:26.688,-0.31,-0.12
21:55:26.692,-0.305,-0.11
21:55:26.696,-0.305,-0.12
21:55:26.700,-0.295,-0.12
21:55:26.704,-0.305,-0.115
21:55:26.708,-0.3,-0.095
21:55:26.712,-0.27,-0.11
21:55:26.716,-0.28,-0.1
21:55:26.720,-0.285,-0.11
21:55:26.724,-0.27,-0.1
21:55:26.728,-0.27,-0.11
21:55:26.732,-0.29,-0.1
21:55:26.736,-0.305,-0.11
21:55:26.740,-0.305,-0.095
21:55:26.744,-0.305,-0.12
21:55:26.748,-0.295,-0.12
21:55:26.752,-0.29,-0.11
21:55:26.756,-0.305,-0.09
21:55:26.760,-0.29,-0.1
21:55:26.764,-0.295,-0.075
21:55:26.768,-0.27,-0.105
21:55:26.772,-0.27,-0.09
21:55:26.776,-0.29,-0.095
21:55:26.780,-0.28,-0.11
21:55:26.784,-0.25,-0.09
21:55:26.788,-0.24,-0.1
21:55:26.792,-0.2,-0.09
21:55:26.796,-0.2,-0.1
21:55:26.800,-0.19,-0.105
21:55:26.804,-0.16,-0.07
21:55:26.808,-0.105,-0.06
21:55:26.812,-0.095,-0.095
21:55:26.816,-0.07,-0.08
21:55:26.820,-0.045,-0.075
21:55:26.824,-0.015,-0.07
21:55:26.828,-0.01,-0.075
21:55:26.832,-0.035,-0.05
21:55:26.836,-0.065,-0.055
21:55:26.840,-0.09,-0.06
21:55:26.844,-0.14,-0.1
21:55:26.848,-0.175,-0.115
21:55:26.852,-0.24,-0.1
21:55:26.856,-0.31,-0.095
21:55:26.860,-0.34,-0.095
21:55:26.864,-0.345,-0.1
21:55:26.868,-0.39,-0.11
21:55:26.872,-0.36,-0.08
21:55:26.876,-0.38,-0.09
21:55:26.880,-0.375,-0.09
21:55:26.884,-0.385,-0.08
21:55:26.888,-0.385,-0.08
21:55:26.892,-0.345,-0.09
21:55:26.896,-0.36,-0.1
21:55:26.900,-0.355,-0.09
21:55:26.904,-0.33,-0.07
21:55:26.908,-0.32,-0.105
21:55:26.912,-0.32,-0.08
21:55:26.916,-0.32,-0.09
21:55:26.920,-0.32,-0.09
21:55:26.924,-0.32,-0.08
21:55:26.928,-0.33,-0.09
21:55:26.932,-0.315,-0.075
21:55:26.936,-0.34,-0.09
21:55:26.940,-0.315,-0.105
21:55:26.944,-0.31,-0.08
21:55:26.948,-0.32,-0.085
21:55:26.952,-0.33,-0.1
21:55:26.956,-0.31,-0.1
21:55:26.960,-0.335,-0.1
21:55:26.964,-0.325,-0.1
21:55:26.968,-0.33,-0.11
21:55:26.972,-0.305,-0.11
21:55:26.976,-0.27,-0.085
21:55:26.980,-0.215,-0.105
21:55:26.984,-0.16,-0.105
21:55:26.988,-0.07,-0.105
21:55:26.992,0.015,-0.12
21:55:26.996,0.065,-0.145
21:55:27.000,0.105,-0.2
21:55:27.004,0.155,-0.25
21:55:27.008,0.165,-0.255
21:55:27.012,0.155,-0.28
21:55:27.016,0.165,-0.36
21:55:27.020,0.275,-0.505
21:55:27.024,0.515,-0.675
21:55:27.028,0.82,-0.905
21:55:27.032,1.04,-1.12
21:55:27.036,1.02,-1.29
21:55:27.040,0.715,-1.28
21:55:27.044,0.24,-1.03
21:55:27.048,-0.15,-0.65
21:55:27.052,-0.33,-0.35
21:55:27.056,-0.4,-0.195
21:55:27.060,-0.42,-0.07
21:55:27.064,-0.42,0.005
21:55:27.068,-0.445,0.025
21:55:27.072,-0.46,0.05
21:55:27.076,-0.47,0.055
21:55:27.080,-0.47,0.035
21:55:27.084,-0.49,0.015
21:55:27.088,-0.47,0.005
21:55:27.092,-0.475,0.0
21:55:27.096,-0.49,0.015
21:55:27.100,-0.49,0.005
21:55:27.104,-0.485,0.01
21:55:27.108,-0.485,0.005
21:55:27.112,-0.48,0.01
21:55:27.116,-0.485,0.02
21:55:27.120,-0.475,0.0
21:55:27.124,-0.465,0.02
21:55:27.128,-0.46,0.02
21:55:27.132,-0.46,0.0
21:55:27.136,-0.48,0.015
21:55:27.140,-0.475,0.02
21:55:27.144,-0.47,0.035
21:55:27.148,-0.51,0.035
21:55:27.152,-0.49,0.035
21:55:27.156,-0.49,0.04
21:55:27.160,-0.48,0.035
21:55:27.164,-0.515,0.02
21:55:27.168,-0.515,0.03
21:55:27.172,-0.54,0.015
21:55:27.176,-0.535,0.045
21:55:27.180,-0.53,0.035
21:55:27.184,-0.545,0.035
21:55:27.188,-0.535,0.035
21:55:27.192,-0.535,0.035
21:55:27.196,-0.53,0.04
21:55:27.200,-0.545,0.05
21:55:27.204,-0.51,0.045
21:55:27.208,-0.525,0.03
21:55:27.212,-0.51,0.045
21:55:27.216,-0.515,0.035
21:55:27.220,-0.505,0.03
21:55:27.224,-0.49,0.025
21:55:27.228,-0.48,0.03
21:55:27.232,-0.455,0.015
21:55:27.236,-0.45,0.025
21:55:27.240,-0.43,0.0
21:55:27.244,-0.42,0.005
21:55:27.248,-0.405,0.01
21:55:27.252,-0.39,0.01
21:55:27.256,-0.395,-0.015
21:55:27.260,-0.365,0.0
21:55:27.264,-0.385,0.0
21:55:27.268,-0.36,-0.03
21:55:27.272,-0.36,-0.045
21:55:27.276,-0.365,-0.03
21:55:27.280,-0.36,-0.03
21:55:27.284,-0.355,-0.045
21:55:27.288,-0.34,-0.055
21:55:27.292,-0.335,-0.035
21:55:27.296,-0.31,-0.04
21:55:27.300,-0.31,-0.08
21:55:27.304,-0.3,-0.05
21:55:27.308,-0.305,-0.06
21:55:27.312,-0.315,-0.06
21:55:27.316,-0.29,-0.05
21:55:27.320,-0.28,-0.05
21:55:27.324,-0.31,-0.045
21:55:27.328,-0.28,-0.02
21:55:27.332,-0.295,-0.05
21:55:27.336,-0.28,-0.045
21:55:27.340,-0.255,-0.025
21:55:27.344,-0.255,-0.005
21:55:27.348,-0.24,-0.015
21:55:27.352,-0.25,-0.03
21:55:27.356,-0.26,-0.02
21:55:27.360,-0.26,0.01
21:55:27.364,-0.26,0.005
21:55:27.368,-0.255,0.0
21:55:27.372,-0.235,-0.005
21:55:27.376,-0.235,0.0
21:55:27.380,-0.24,0.02
21:55:27.384,-0.225,0.02
21:55:27.388,-0.22,0.03
21:55:27.392,-0.205,0.035
21:55:27.396,-0.145,0.04
21:55:27.400,-0.115,0.025
21:55:27.404,-0.08,0.065
21:55:27.408,-0.05,0.07
21:55:27.412,-0.015,0.065
21:55:27.416,-0.01,0.065
21:55:27.420,0.0,0.075
21:55:27.424,-0.005,0.065
21:55:27.428,-0.05,0.04
21:55:27.432,-0.08,0.0
21:55:27.436,-0.13,-0.035
21:55:27.440,-0.215,0.0
21:55:27.444,-0.255,0.01
21:55:27.448,-0.295,0.0
21:55:27.452,-0.35,0.01
21:55:27.456,-0.375,0.025
21:55:27.460,-0.405,0.04
21:55:27.464,-0.405,0.075
21:55:27.468,-0.41,0.05
21:55:27.472,-0.395,0.05
21:55:27.476,-0.385,0.055
21:55:27.480,-0.385,0.045
21:55:27.484,-0.365,0.035
21:55:27.488,-0.365,0.025
21:55:27.492,-0.36,0.03
21:55:27.496,-0.375,0.025
21:55:27.500,-0.37,0.035
21:55:27.504,-0.365,0.025
21:55:27.508,-0.355,0.015
21:55:27.512,-0.36,0.015
21:55:27.516,-0.37,0.015
21:55:27.520,-0.39,0.01
21:55:27.524,-0.37,0.0
21:55:27.528,-0.37,0.015
21:55:27.532,-0.38,0.0
21:55:27.536,-0.375,0.0
21:55:27.540,-0.395,0.005
21:55:27.544,-0.385,-0.005
21:55:27.548,-0.355,0.005
21:55:27.552,-0.38,0.02
21:55:27.556,-0.38,0.035
21:55:27.560,-0.335,0.02
21:55:27.564,-0.32,0.03
21:55:27.568,-0.27,0.0
21:55:27.572,-0.23,0.0
21:55:27.576,-0.18,0.005
21:55:27.580,-0.085,0.015
21:55:27.584,-0.015,0.0
21:55:27.588,0.065,-0.025
21:55:27.592,0.115,-0.065
21:55:27.596,0.145,-0.115
21:55:27.600,0.17,-0.12
21:55:27.604,0.17,-0.115
21:55:27.608,0.155,-0.185
21:55:27.612,0.205,-0.305
21:55:27.616,0.395,-0.495
21:55:27.620,0.695,-0.67
21:55:27.624,0.965,-0.89
21:55:27.628,1.045,-1.115
21:55:27.632,0.8,-1.14
21:55:27.636,0.33,-0.945
21:55:27.640,-0.095,-0.58
21:55:27.644,-0.31,-0.305
21:55:27.648,-0.41,-0.105
21:55:27.652,-0.42,0.01
21:55:27.656,-0.43,0.085
21:55:27.660,-0.435,0.135
21:55:27.664,-0.465,0.155
21:55:27.668,-0.465,0.155
21:55:27.672,-0.475,0.17
21:55:27.676,-0.48,0.15
21:55:27.680,-0.46,0.13
21:55:27.684,-0.465,0.105
21:55:27.688,-0.465,0.11
21:55:27.692,-0.48,0.115
21:55:27.696,-0.495,0.105
21:55:27.700,-0.475,0.1
21:55:27.704,-0.47,0.105
21:55:27.708,-0.47,0.08
21:55:27.712,-0.49,0.075
21:55:27.716,-0.49,0.06
21:55:27.720,-0.52,0.065
21:55:27.724,-0.525,0.06
21:55:27.728,-0.51,0.065
21:55:27.732,-0.5,0.05
21:55:27.736,-0.51,0.03
21:55:27.740,-0.51,0.015
21:55:27.744,-0.505,0.025
21:55:27.748,-0.515,0.02
21:55:27.752,-0.53,0.02
21:55:27.756,-0.535,0.0
21:55:27.760,-0.53,0.0
21:55:27.764,-0.535,-0.01
21:55:27.768,-0.53,0.0
21:55:27.772,-0.53,0.005
21:55:27.776,-0.525,0.0
21:55:27.780,-0.52,0.0
21:55:27.784,-0.535,-0.015
21:55:27.788,-0.52,0.0
21:55:27.792,-0.505,-0.01
21:55:27.796,-0.475,-0.005
21:55:27.800,-0.48,-0.03
21:55:27.804,-0.47,-0.01
21:55:27.808,-0.465,-0.02
21:55:27.812,-0.465,-0.015
21:55:27.816,-0.47,-0.04
21:55:27.820,-0.455,-0.06
21:55:27.824,-0.45,-0.045
21:55:27.828,-0.46,-0.09
21:55:27.832,-0.435,-0.065
21:55:27.836,-0.425,-0.095
21:55:27.840,-0.41,-0.1
21:55:27.844,-0.405,-0.095
21:55:27.848,-0.435,-0.115
21:55:27.852,-0.42,-0.13
21:55:27.856,-0.4,-0.135
21:55:27.860,-0.4,-0.16
21:55:27.864,-0.34,-0.175
21:55:27.868,-0.345,-0.185
21:55:27.872,-0.335,-0.185
21:55:27.876,-0.34,-0.19
21:55:27.880,-0.335,-0.2
21:55:27.884,-0.32,-0.215
21:55:27.888,-0.325,-0.205
21:55:27.892,-0.32,-0.2
21:55:27.896,-0.285,-0.19
21:55:27.900,-0.285,-0.21
21:55:27.904,-0.28,-0.215
21:55:27.908,-0.28,-0.215
21:55:27.912,-0.29,-0.205
21:55:27.916,-0.27,-0.215
21:55:27.920,-0.26,-0.225
21:55:27.924,-0.27,-0.23
21:55:27.928,-0.285,-0.24
21:55:27.932,-0.29,-0.235
21:55:27.936,-0.265,-0.25
21:55:27.940,-0.29,-0.235
21:55:27.944,-0.31,-0.27
21:55:27.948,-0.285,-0.245
21:55:27.952,-0.295,-0.24
21:55:27.956,-0.305,-0.29
21:55:27.960,-0.315,-0.265
21:55:27.964,-0.28,-0.28
21:55:27.968,-0.245,-0.275
21:55:27.972,-0.25,-0.275
21:55:27.976,-0.255,-0.29
21:55:27.980,-0.24,-0.29
21:55:27.984,-0.22,-0.29
21:55:27.988,-0.18,-0.285
21:55:27.992,-0.125,-0.275
21:55:27.996,-0.095,-0.28
21:55:28.000,-0.03,-0.26
21:55:28.004,0.0,-0.29
21:55:28.008,0.0,-0.27
21:55:28.012,0.025,-0.28
21:55:28.016,0.0,-0.25
21:55:28.020,0.005,-0.285
21:55:28.024,-0.04,-0.325
21:55:28.028,-0.095,-0.335
21:55:28.032,-0.145,-0.375
21:55:28.036,-0.195,-0.38
21:55:28.040,-0.26,-0.405
21:55:28.044,-0.32,-0.375
21:55:28.048,-0.385,-0.38
21:55:28.052,-0.425,-0.365
21:55:28.056,-0.42,-0.355
21:55:28.060,-0.435,-0.35
21:55:28.064,-0.435,-0.375
21:55:28.068,-0.425,-0.39
21:55:28.072,-0.41,-0.41
21:55:28.076,-0.42,-0.41
21:55:28.080,-0.39,-0.44
21:55:28.084,-0.39,-0.415
21:55:28.088,-0.375,-0.455
21:55:28.092,-0.385,-0.44
21:55:28.096,-0.395,-0.45
21:55:28.100,-0.39,-0.45
21:55:28.104,-0.375,-0.445
21:55:28.108,-0.385,-0.465
21:55:28.112,-0.36,-0.455
21:55:28.116,-0.37,-0.465
21:55:28.120,-0.37,-0.47
21:55:28.124,-0.365,-0.475
21:55:28.128,-0.365,-0.47
21:55:28.132,-0.355,-0.47
21:55:28.136,-0.355,-0.47
21:55:28.140,-0.36,-0.48
21:55:28.144,-0.355,-0.475
21:55:28.148,-0.36,-0.47
21:55:28.152,-0.36,-0.495
21:55:28.156,-0.345,-0.49
21:55:28.160,-0.335,-0.475
21:55:28.164,-0.31,-0.5
21:55:28.168,-0.26,-0.495
21:55:28.172,-0.205,-0.48
21:55:28.176,-0.085,-0.48
21:55:28.180,0.0,-0.505
21:55:28.184,0.07,-0.53
21:55:28.188,0.125,-0.595
21:55:28.192,0.19,-0.615
21:55:28.196,0.24,-0.59
21:55:28.200,0.23,-0.625
21:55:28.204,0.21,-0.685
21:55:28.208,0.295,-0.765
21:55:28.212,0.49,-0.9
21:55:28.216,0.82,-1.12
21:55:28.220,1.06,-1.305
21:55:28.224,1.025,-1.485
21:55:28.228,0.71,-1.49
21:55:28.232,0.225,-1.26
21:55:28.236,-0.12,-0.925
21:55:28.240,-0.29,-0.64
21:55:28.244,-0.345,-0.49
21:55:28.248,-0.38,-0.39
21:55:28.252,-0.405,-0.31
21:55:28.256,-0.425,-0.24
21:55:28.260,-0.45,-0.21
21:55:28.264,-0.49,-0.2
21:55:28.268,-0.495,-0.205
21:55:28.272,-0.52,-0.205
21:55:28.276,-0.52,-0.19
21:55:28.280,-0.525,-0.205
21:55:28.284,-0.53,-0.21
21:55:28.288,-0.535,-0.21
21:55:28.292,-0.53,-0.205
21:55:28.296,-0.52,-0.195
21:55:28.300,-0.51,-0.165
21:55:28.304,-0.515,-0.155
21:55:28.308,-0.495,-0.16
21:55:28.312,-0.505,-0.155
21:55:28.316,-0.515,-0.14
21:55:28.320,-0.52,-0.145
21:55:28.324,-0.505,-0.155
21:55:28.328,-0.53,-0.135
21:55:28.332,-0.505,-0.13
21:55:28.336,-0.51,-0.1
21:55:28.340,-0.52,-0.1
21:55:28.344,-0.505,-0.085
21:55:28.348,-0.52,-0.065
21:55:28.352,-0.54,-0.04
21:55:28.356,-0.54,-0.04
21:55:28.360,-0.535,-0.03
21:55:28.364,-0.54,-0.035
21:55:28.368,-0.545,-0.05
21:55:28.372,-0.545,-0.03
21:55:28.376,-0.545,-0.035
21:55:28.380,-0.535,-0.025
21:55:28.384,-0.55,-0.02
21:55:28.388,-0.525,0.0
21:55:28.392,-0.535,-0.005
21:55:28.396,-0.535,-0.015
21:55:28.400,-0.515,-0.01
21:55:28.404,-0.52,-0.015
21:55:28.408,-0.515,0.0
21:55:28.412,-0.475,0.015
21:55:28.416,-0.475,0.01
21:55:28.420,-0.465,-0.01
21:55:28.424,-0.475,0.005
21:55:28.428,-0.465,-0.01
21:55:28.432,-0.45,-0.025
21:55:28.436,-0.43,-0.015
21:55:28.440,-0.41,-0.03
21:55:28.444,-0.39,-0.015
21:55:28.448,-0.395,-0.025
21:55:28.452,-0.375,-0.045
21:55:28.456,-0.365,-0.02
21:55:28.460,-0.355,-0.025
21:55:28.464,-0.33,-0.025
21:55:28.468,-0.335,-0.015
21:55:28.472,-0.34,-0.03
21:55:28.476,-0.325,-0.045
21:55:28.480,-0.3,-0.04
21:55:28.484,-0.32,-0.02
21:55:28.488,-0.295,-0.04
21:55:28.492,-0.285,-0.04
21:55:28.496,-0.28,-0.035
21:55:28.500,-0.285,-0.045
21:55:28.504,-0.31,-0.045
21:55:28.508,-0.3,-0.02
21:55:28.512,-0.295,-0.04
21:55:28.516,-0.285,-0.035
21:55:28.520,-0.275,-0.055
21:55:28.524,-0.28,-0.03
21:55:28.528,-0.255,-0.02
21:55:28.532,-0.265,-0.015
21:55:28.536,-0.26,-0.025
21:55:28.540,-0.28,-0.02
21:55:28.544,-0.26,-0.04
21:55:28.548,-0.265,0.0
21:55:28.552,-0.245,-0.02
21:55:28.556,-0.25,0.005
21:55:28.560,-0.25,-0.005
21:55:28.564,-0.255,0.0
21:55:28.568,-0.255,-0.005
21:55:28.572,-0.245,0.005
21:55:28.576,-0.245,0.0
21:55:28.580,-0.215,0.015
21:55:28.584,-0.215,0.01
21:55:28.588,-0.21,-0.015
21:55:28.592,-0.215,-0.005
21:55:28.596,-0.17,0.0
21:55:28.600,-0.175,0.0
21:55:28.604,-0.165,0.005
21:55:28.608,-0.12,0.02
21:55:28.612,-0.065,0.02
21:55:28.616,-0.025,0.04
21:55:28.620,0.005,0.065
21:55:28.624,0.04,0.05
21:55:28.628,0.065,0.04
21:55:28.632,0.065,0.03
21:55:28.636,0.045,0.045
21:55:28.640,0.03,0.015
21:55:28.644,0.015,0.005
21:55:28.648,-0.02,-0.025
21:55:28.652,-0.115,-0.03
21:55:28.656,-0.16,-0.03
21:55:28.660,-0.2,-0.01
21:55:28.664,-0.255,0.02
21:55:28.668,-0.28,0.03
21:55:28.672,-0.31,0.03
21:55:28.676,-0.315,0.02
21:55:28.680,-0.32,0.04
21:55:28.684,-0.31,0.03
21:55:28.688,-0.285,0.04
21:55:28.692,-0.295,0.02
21:55:28.696,-0.29,0.025
21:55:28.700,-0.29,0.025
21:55:28.704,-0.28,0.02
21:55:28.708,-0.27,0.005
21:55:28.712,-0.28,0.0
21:55:28.716,-0.28,0.005
21:55:28.720,-0.305,0.0
21:55:28.724,-0.29,0.0
21:55:28.728,-0.285,-0.01
21:55:28.732,-0.27,0.0
21:55:28.736,-0.265,-0.01
21:55:28.740,-0.265,-0.005
21:55:28.744,-0.275,-0.02
21:55:28.748,-0.28,-0.03
21:55:28.752,-0.28,-0.01
21:55:28.756,-0.285,-0.025
21:55:28.760,-0.265,-0.025
21:55:28.764,-0.285,-0.03
21:55:28.768,-0.265,-0.015
21:55:28.772,-0.25,-0.03
21:55:28.776,-0.22,-0.035
21:55:28.780,-0.21,-0.03
21:55:28.784,-0.16,-0.015
21:55:28.788,-0.085,-0.01
21:55:28.792,0.015,-0.015
21:55:28.796,0.095,-0.015
21:55:28.800,0.145,-0.065
21:55:28.804,0.17,-0.115
21:55:28.808,0.215,-0.15
21:55:28.812,0.22,-0.165
21:55:28.816,0.22,-0.205
21:55:28.820,0.24,-0.27
21:55:28.824,0.315,-0.435
21:55:28.828,0.515,-0.62
21:55:28.832,0.825,-0.83
21:55:28.836,1.085,-1.055
21:55:28.840,1.095,-1.23
21:55:28.844,0.84,-1.26
21:55:28.848,0.345,-1.05
21:55:28.852,-0.065,-0.67
21:55:28.856,-0.275,-0.345
21:55:28.860,-0.34,-0.15
21:55:28.864,-0.365,-0.025
21:55:28.868,-0.37,0.02
21:55:28.872,-0.39,0.1
21:55:28.876,-0.38,0.105
21:55:28.880,-0.385,0.115
21:55:28.884,-0.395,0.115
21:55:28.888,-0.385,0.1
21:55:28.892,-0.39,0.11
21:55:28.896,-0.4,0.095
21:55:28.900,-0.395,0.09
21:55:28.904,-0.385,0.11
21:55:28.908,-0.405,0.11
21:55:28.912,-0.41,0.115
21:55:28.916,-0.39,0.125
21:55:28.920,-0.38,0.1
21:55:28.924,-0.385,0.12
21:55:28.928,-0.395,0.105
21:55:28.932,-0.435,0.115
21:55:28.936,-0.43,0.095
21:55:28.940,-0.41,0.11
21:55:28.944,-0.43,0.11
21:55:28.948,-0.45,0.125
21:55:28.952,-0.43,0.12
21:55:28.956,-0.415,0.105
21:55:28.960,-0.44,0.105
21:55:28.964,-0.435,0.105
21:55:28.968,-0.465,0.105
21:55:28.972,-0.445,0.11
21:55:28.976,-0.44,0.1
21:55:28.980,-0.45,0.12
21:55:28.984,-0.445,0.1
21:55:28.988,-0.45,0.11
21:55:28.992,-0.43,0.12
21:55:28.996,-0.435,0.115
21:55:29.000,-0.425,0.11
21:55:29.004,-0.405,0.12
21:55:29.008,-0.42,0.13
21:55:29.012,-0.415,0.12
21:55:29.016,-0.39,0.145
21:55:29.020,-0.405,0.135
21:55:29.024,-0.385,0.145
21:55:29.028,-0.37,0.12
21:55:29.032,-0.365,0.12
21:55:29.036,-0.37,0.125
21:55:29.040,-0.36,0.105
21:55:29.044,-0.36,0.09
21:55:29.048,-0.35,0.11
21:55:29.052,-0.355,0.075
21:55:29.056,-0.335,0.07
21:55:29.060,-0.325,0.07
21:55:29.064,-0.315,0.07
21:55:29.068,-0.295,0.055
21:55:29.072,-0.275,0.04
21:55:29.076,-0.27,0.045
21:55:29.080,-0.28,0.025
21:55:29.084,-0.27,0.035
21:55:29.088,-0.25,0.02
21:55:29.092,-0.255,0.03
21:55:29.096,-0.245,0.015
21:55:29.100,-0.21,0.04
21:55:29.104,-0.2,0.015
21:55:29.108,-0.215,0.02
21:55:29.112,-0.205,0.045
21:55:29.116,-0.18,0.035
21:55:29.120,-0.19,0.03
21:55:29.124,-0.175,0.03
21:55:29.128,-0.185,0.035
21:55:29.132,-0.18,0.04
21:55:29.136,-0.175,0.035
21:55:29.140,-0.205,0.03
21:55:29.144,-0.195,0.03
21:55:29.148,-0.18,0.055
21:55:29.152,-0.18,0.035
21:55:29.156,-0.215,0.06
21:55:29.160,-0.195,0.065
21:55:29.164,-0.195,0.06
21:55:29.168,-0.185,0.05
21:55:29.172,-0.16,0.045
21:55:29.176,-0.175,0.04
21:55:29.180,-0.16,0.045
21:55:29.184,-0.13,0.045
21:55:29.188,-0.135,0.035
21:55:29.192,-0.105,0.09
21:55:29.196,-0.05,0.075
21:55:29.200,-0.015,0.08
21:55:29.204,0.015,0.115
21:55:29.208,0.05,0.115
21:55:29.212,0.065,0.085
21:55:29.216,0.11,0.08
21:55:29.220,0.1,0.13
21:55:29.224,0.06,0.12
21:55:29.228,0.035,0.095
21:55:29.232,-0.015,0.055
21:55:29.236,-0.07,0.06
21:55:29.240,-0.12,0.05
21:55:29.244,-0.18,0.035
21:55:29.248,-0.215,0.045
21:55:29.252,-0.27,0.075
21:55:29.256,-0.315,0.09
21:55:29.260,-0.325,0.085
21:55:29.264,-0.345,0.085
21:55:29.268,-0.36,0.09
21:55:29.272,-0.365,0.075
21:55:29.276,-0.34,0.075
21:55:29.280,-0.315,0.05
21:55:29.284,-0.3,0.05
21:55:29.288,-0.315,0.05
21:55:29.292,-0.31,0.04
21:55:29.296,-0.305,0.03
21:55:29.300,-0.295,0.04
21:55:29.304,-0.31,0.04
21:55:29.308,-0.3,0.055
21:55:29.312,-0.295,0.06
21:55:29.316,-0.285,0.05
21:55:29.320,-0.3,0.045
21:55:29.324,-0.275,0.055
21:55:29.328,-0.255,0.065
21:55:29.332,-0.255,0.06
21:55:29.336,-0.265,0.075
21:55:29.340,-0.265,0.06
21:55:29.344,-0.27,0.085
21:55:29.348,-0.25,0.075
21:55:29.352,-0.25,0.06
21:55:29.356,-0.26,0.07
21:55:29.360,-0.255,0.065
21:55:29.364,-0.25,0.065
21:55:29.368,-0.225,0.03
21:55:29.372,-0.175,0.035
21:55:29.376,-0.12,0.045
21:55:29.380,-0.035,0.04
21:55:29.384,0.045,0.035
21:55:29.388,0.105,-0.01
21:55:29.392,0.135,-0.08
21:55:29.396,0.15,-0.105
21:55:29.400,0.17,-0.125
21:55:29.404,0.17,-0.14
21:55:29.408,0.18,-0.235
21:55:29.412,0.275,-0.37
21:55:29.416,0.515,-0.54
21:55:29.420,0.815,-0.76
21:55:29.424,1.075,-0.99
21:55:29.428,1.115,-1.155
21:55:29.432,0.845,-1.175
21:55:29.436,0.355,-0.94
21:55:29.440,-0.065,-0.545
21:55:29.444,-0.25,-0.22
21:55:29.448,-0.345,-0.06
21:55:29.452,-0.37,0.07
21:55:29.456,-0.36,0.14
21:55:29.460,-0.385,0.17
21:55:29.464,-0.38,0.19
21:55:29.468,-0.38,0.22
21:55:29.472,-0.39,0.195
21:55:29.476,-0.395,0.19
21:55:29.480,-0.4,0.18
21:55:29.484,-0.4,0.165
21:55:29.488,-0.42,0.165
21:55:29.492,-0.395,0.16
21:55:29.496,-0.385,0.155
21:55:29.500,-0.4,0.145
21:55:29.504,-0.385,0.165
21:55:29.508,-0.37,0.165
21:55:29.512,-0.39,0.14
21:55:29.516,-0.385,0.17
21:55:29.520,-0.395,0.165
21:55:29.524,-0.4,0.145
21:55:29.528,-0.415,0.18
21:55:29.532,-0.425,0.175
21:55:29.536,-0.435,0.16
21:55:29.540,-0.375,0.165
21:55:29.544,-0.385,0.19
21:55:29.548,-0.405,0.175
21:55:29.552,-0.405,0.16
21:55:29.556,-0.41,0.17
21:55:29.560,-0.4,0.195
21:55:29.564,-0.41,0.185
21:55:29.568,-0.415,0.2
21:55:29.572,-0.44,0.22
21:55:29.576,-0.415,0.235
21:55:29.580,-0.42,0.205
21:55:29.584,-0.41,0.205
21:55:29.588,-0.4,0.21
21:55:29.592,-0.405,0.19
21:55:29.596,-0.415,0.205
21:55:29.600,-0.425,0.19
21:55:29.604,-0.425,0.21
21:55:29.608,-0.385,0.195
21:55:29.612,-0.38,0.195
21:55:29.616,-0.37,0.205
21:55:29.620,-0.37,0.185
21:55:29.624,-0.355,0.19
21:55:29.628,-0.335,0.195
21:55:29.632,-0.34,0.21
21:55:29.636,-0.33,0.19
21:55:29.640,-0.305,0.15
21:55:29.644,-0.3,0.155
21:55:29.648,-0.275,0.155
21:55:29.652,-0.26,0.155
21:55:29.656,-0.26,0.155
21:55:29.660,-0.275,0.155
21:55:29.664,-0.26,0.145
21:55:29.668,-0.245,0.15
21:55:29.672,-0.245,0.15
21:55:29.676,-0.23,0.145
21:55:29.680,-0.23,0.155
21:55:29.684,-0.2,0.14
21:55:29.688,-0.21,0.135
21:55:29.692,-0.22,0.145
21:55:29.696,-0.2,0.135
21:55:29.700,-0.21,0.135
21:55:29.704,-0.18,0.13
21:55:29.708,-0.23,0.145
21:55:29.712,-0.22,0.135
21:55:29.716,-0.215,0.14
21:55:29.720,-0.21,0.13
21:55:29.724,-0.185,0.115
21:55:29.728,-0.2,0.125
21:55:29.732,-0.195,0.135
21:55:29.736,-0.195,0.105
21:55:29.740,-0.2,0.115
21:55:29.744,-0.195,0.1
21:55:29.748,-0.19,0.13
21:55:29.752,-0.175,0.12
21:55:29.756,-0.165,0.14
21:55:29.760,-0.185,0.13
21:55:29.764,-0.19,0.135
21:55:29.768,-0.155,0.14
21:55:29.772,-0.145,0.12
21:55:29.776,-0.12,0.135
21:55:29.780,-0.11,0.115
21:55:29.784,-0.095,0.11
21:55:29.788,-0.06,0.115
21:55:29.792,-0.015,0.145
21:55:29.796,0.005,0.145
21:55:29.800,0.045,0.19
21:55:29.804,0.065,0.17
21:55:29.808,0.08,0.18
21:55:29.812,0.1,0.185
21:55:29.816,0.105,0.17
21:55:29.820,0.09,0.17
21:55:29.824,0.035,0.13
21:55:29.828,-0.01,0.08
21:55:29.832,-0.055,0.055
21:55:29.836,-0.125,0.04
21:55:29.840,-0.17,0.05
21:55:29.844,-0.225,0.03
21:55:29.848,-0.28,0.035
21:55:29.852,-0.31,0.05
21:55:29.856,-0.315,0.05
21:55:29.860,-0.33,0.065
21:55:29.864,-0.295,0.035
21:55:29.868,-0.29,0.02
21:55:29.872,-0.27,0.02
21:55:29.876,-0.265,0.015
21:55:29.880,-0.255,0.02
21:55:29.884,-0.245,0.005
21:55:29.888,-0.235,-0.015
21:55:29.892,-0.235,0.005
21:55:29.896,-0.235,-0.005
21:55:29.900,-0.245,-0.005
21:55:29.904,-0.255,-0.025
21:55:29.908,-0.23,-0.01
21:55:29.912,-0.25,-0.04
21:55:29.916,-0.23,-0.03
21:55:29.920,-0.25,-0.05
21:55:29.924,-0.24,-0.06
21:55:29.928,-0.25,-0.065
21:55:29.932,-0.23,-0.08
21:55:29.936,-0.25,-0.09
21:55:29.940,-0.255,-0.095
21:55:29.944,-0.26,-0.09
21:55:29.948,-0.23,-0.115
21:55:29.952,-0.22,-0.115
21:55:29.956,-0.215,-0.125
21:55:29.960,-0.225,-0.145
21:55:29.964,-0.175,-0.135
21:55:29.968,-0.105,-0.125
21:55:29.972,-0.025,-0.145
21:55:29.976,0.08,-0.15
21:55:29.980,0.16,-0.18
21:55:29.984,0.22,-0.2
21:55:29.988,0.27,-0.28
21:55:29.992,0.31,-0.29
21:55:29.996,0.35,-0.305
21:55:30.000,0.345,-0.35
21:55:30.004,0.32,-0.395
21:55:30.008,0.43,-0.525
21:55:30.012,0.665,-0.69
21:55:30.016,0.97,-0.915
21:55:30.020,1.17,-1.125
21:55:30.024,1.085,-1.275
21:55:30.028,0.71,-1.24
21:55:30.032,0.24,-0.995
21:55:30.036,-0.075,-0.66
21:55:30.040,-0.195,-0.47
21:55:30.044,-0.25,-0.355
21:55:30.048,-0.29,-0.24
21:55:30.052,-0.3,-0.19
21:55:30.056,-0.335,-0.15
21:55:30.060,-0.36,-0.13
21:55:30.064,-0.37,-0.14
21:55:30.068,-0.4,-0.17
21:55:30.072,-0.405,-0.185
21:55:30.076,-0.385,-0.195
21:55:30.080,-0.38,-0.2
21:55:30.084,-0.42,-0.22
21:55:30.088,-0.395,-0.24
21:55:30.092,-0.385,-0.245
21:55:30.096,-0.38,-0.24
21:55:30.100,-0.37,-0.235
21:55:30.104,-0.395,-0.225
21:55:30.108,-0.38,-0.24
21:55:30.112,-0.38,-0.255
21:55:30.116,-0.39,-0.25
21:55:30.120,-0.39,-0.24
21:55:30.124,-0.4,-0.27
21:55:30.128,-0.385,-0.275
21:55:30.132,-0.395,-0.295
21:55:30.136,-0.415,-0.29
21:55:30.140,-0.415,-0.29
21:55:30.144,-0.455,-0.31
21:55:30.148,-0.45,-0.315
21:55:30.152,-0.465,-0.305
21:55:30.156,-0.475,-0.32
21:55:30.160,-0.475,-0.33
21:55:30.164,-0.465,-0.335
21:55:30.168,-0.45,-0.325
21:55:30.172,-0.44,-0.315
21:55:30.176,-0.45,-0.335
21:55:30.180,-0.44,-0.335
21:55:30.184,-0.44,-0.35
21:55:30.188,-0.44,-0.33
21:55:30.192,-0.455,-0.335
21:55:30.196,-0.43,-0.345
21:55:30.200,-0.425,-0.335
21:55:30.204,-0.405,-0.34
21:55:30.208,-0.385,-0.36
21:55:30.212,-0.38,-0.35
21:55:30.216,-0.38,-0.35
21:55:30.220,-0.405,-0.36
21:55:30.224,-0.39,-0.375
21:55:30.228,-0.37,-0.39
21:55:30.232,-0.35,-0.385
21:55:30.236,-0.335,-0.395
21:55:30.240,-0.33,-0.435
21:55:30.244,-0.33,-0.435
21:55:30.248,-0.34,-0.465
21:55:30.252,-0.335,-0.425
21:55:30.256,-0.31,-0.425
21:55:30.260,-0.295,-0.445
21:55:30.264,-0.295,-0.44
21:55:30.268,-0.28,-0.455
21:55:30.272,-0.275,-0.475
21:55:30.276,-0.27,-0.49
21:55:30.280,-0.24,-0.48
21:55:30.284,-0.265,-0.46
21:55:30.288,-0.26,-0.475
21:55:30.292,-0.235,-0.485
21:55:30.296,-0.205,-0.495
21:55:30.300,-0.23,-0.475
21:55:30.304,-0.23,-0.47
21:55:30.308,-0.205,-0.465
21:55:30.312,-0.19,-0.47
21:55:30.316,-0.175,-0.46
21:55:30.320,-0.195,-0.48
21:55:30.324,-0.195,-0.47
21:55:30.328,-0.205,-0.485
21:55:30.332,-0.18,-0.47
21:55:30.336,-0.19,-0.445
21:55:30.340,-0.2,-0.46
21:55:30.344,-0.205,-0.46
21:55:30.348,-0.2,-0.435
21:55:30.352,-0.2,-0.455
21:55:30.356,-0.21,-0.46
21:55:30.360,-0.23,-0.45
21:55:30.364,-0.23,-0.41
21:55:30.368,-0.21,-0.425
21:55:30.372,-0.195,-0.425
21:55:30.376,-0.185,-0.425
21:55:30.380,-0.185,-0.43
21:55:30.384,-0.17,-0.415
21:55:30.388,-0.17,-0.43
21:55:30.392,-0.155,-0.42
21:55:30.396,-0.135,-0.395
21:55:30.400,-0.09,-0.38
21:55:30.404,-0.03,-0.365
21:55:30.408,-0.005,-0.345
21:55:30.412,0.02,-0.335
21:55:30.416,0.085,-0.345
21:55:30.420,0.115,-0.32
21:55:30.424,0.115,-0.315
21:55:30.428,0.11,-0.305
21:55:30.432,0.09,-0.3
21:55:30.436,0.045,-0.33
21:55:30.440,-0.005,-0.365
21:55:30.444,-0.065,-0.345
21:55:30.448,-0.12,-0.315
21:55:30.452,-0.165,-0.305
21:55:30.456,-0.235,-0.31
21:55:30.460,-0.275,-0.295
21:55:30.464,-0.3,-0.28
21:55:30.468,-0.32,-0.28
21:55:30.472,-0.29,-0.25
21:55:30.476,-0.31,-0.26
21:55:30.480,-0.305,-0.245
21:55:30.484,-0.305,-0.25
21:55:30.488,-0.3,-0.24
21:55:30.492,-0.28,-0.255
21:55:30.496,-0.275,-0.245
21:55:30.500,-0.265,-0.245
21:55:30.504,-0.29,-0.235
21:55:30.508,-0.26,-0.23
21:55:30.512,-0.27,-0.23
21:55:30.516,-0.265,-0.21
21:55:30.520,-0.255,-0.22
21:55:30.524,-0.26,-0.205
21:55:30.528,-0.25,-0.175
21:55:30.532,-0.24,-0.18
21:55:30.536,-0.235,-0.195
21:55:30.540,-0.215,-0.17
21:55:30.544,-0.215,-0.17
21:55:30.548,-0.225,-0.175
21:55:30.552,-0.205,-0.145
21:55:30.556,-0.22,-0.15
21:55:30.560,-0.23,-0.14
21:55:30.564,-0.24,-0.135
21:55:30.568,-0.22,-0.15
21:55:30.572,-0.185,-0.13
21:55:30.576,-0.14,-0.13
21:55:30.580,-0.075,-0.115
21:55:30.584,0.005,-0.12
21:55:30.588,0.1,-0.135
21:55:30.592,0.17,-0.17
21:55:30.596,0.23,-0.215
21:55:30.600,0.285,-0.265
21:55:30.604,0.34,-0.255
21:55:30.608,0.345,-0.27
21:55:30.612,0.34,-0.345
21:55:30.616,0.38,-0.43
21:55:30.620,0.55,-0.57
21:55:30.624,0.855,-0.755
21:55:30.628,1.12,-0.98
21:55:30.632,1.235,-1.17
21:55:30.636,1.08,-1.25
21:55:30.640,0.62,-1.065
21:55:30.644,0.16,-0.735
21:55:30.648,-0.075,-0.4
21:55:30.652,-0.17,-0.22
21:55:30.656,-0.225,-0.1
21:55:30.660,-0.235,-0.005
21:55:30.664,-0.255,0.055
21:55:30.668,-0.28,0.08
21:55:30.672,-0.305,0.09
21:55:30.676,-0.33,0.07
21:55:30.680,-0.315,0.075
21:55:30.684,-0.315,0.06
21:55:30.688,-0.325,0.065
21:55:30.692,-0.35,0.075
21:55:30.696,-0.36,0.05
21:55:30.700,-0.35,0.065
21:55:30.704,-0.335,0.045
21:55:30.708,-0.33,0.055
21:55:30.712,-0.325,0.065
21:55:30.716,-0.335,0.045
21:55:30.720,-0.325,0.05
21:55:30.724,-0.335,0.08
21:55:30.728,-0.335,0.05
21:55:30.732,-0.33,0.06
21:55:30.736,-0.335,0.055
21:55:30.740,-0.34,0.065
21:55:30.744,-0.355,0.065
21:55:30.748,-0.33,0.06
21:55:30.752,-0.335,0.055
21:55:30.756,-0.34,0.07
21:55:30.760,-0.335,0.06
21:55:30.764,-0.325,0.07
21:55:30.768,-0.345,0.075
21:55:30.772,-0.355,0.09
21:55:30.776,-0.35,0.095
21:55:30.780,-0.32,0.1
21:55:30.784,-0.34,0.08
21:55:30.788,-0.35,0.08
21:55:30.792,-0.335,0.1
21:55:30.796,-0.33,0.085
21:55:30.800,-0.345,0.095
21:55:30.804,-0.355,0.085
21:55:30.808,-0.345,0.065
21:55:30.812,-0.335,0.075
21:55:30.816,-0.31,0.045
21:55:30.820,-0.285,0.045
21:55:30.824,-0.295,0.03
21:55:30.828,-0.28,0.035
21:55:30.832,-0.265,0.0
21:55:30.836,-0.255,0.0
21:55:30.840,-0.25,-0.01
21:55:30.844,-0.24,-0.035
21:55:30.848,-0.21,-0.03
21:55:30.852,-0.2,-0.02
21:55:30.856,-0.195,-0.02
21:55:30.860,-0.17,-0.04
21:55:30.864,-0.15,-0.06
21:55:30.868,-0.155,-0.035
21:55:30.872,-0.15,-0.055
21:55:30.876,-0.135,-0.065
21:55:30.880,-0.13,-0.04
21:55:30.884,-0.12,-0.05
21:55:30.888,-0.115,-0.055
21:55:30.892,-0.125,-0.05
21:55:30.896,-0.115,-0.05
21:55:30.900,-0.1,-0.04
21:55:30.904,-0.08,-0.04
21:55:30.908,-0.09,-0.035
21:55:30.912,-0.1,-0.065
21:55:30.916,-0.11,-0.03
21:55:30.920,-0.105,-0.05
21:55:30.924,-0.085,-0.04
21:55:30.928,-0.08,-0.055
21:55:30.932,-0.085,-0.065
21:55:30.936,-0.095,-0.035
21:55:30.940,-0.075,-0.025
21:55:30.944,-0.07,-0.055
21:55:30.948,-0.09,-0.035
21:55:30.952,-0.09,-0.03
21:55:30.956,-0.085,-0.065
21:55:30.960,-0.08,-0.045
21:55:30.964,-0.075,-0.02
21:55:30.968,-0.065,-0.03
21:55:30.972,-0.05,-0.02
21:55:30.976,-0.03,-0.02
21:55:30.980,-0.02,-0.02
21:55:30.984,-0.015,-0.02
21:55:30.988,-0.025,-0.025
21:55:30.992,-0.01,0.0
21:55:30.996,0.0,-0.005
21:55:31.000,0.035,0.015
21:55:31.004,0.09,0.015
21:55:31.008,0.135,0.045
21:55:31.012,0.145,0.035
21:55:31.016,0.155,0.045
21:55:31.020,0.17,0.05
21:55:31.024,0.18,0.035
21:55:31.028,0.175,0.045
21:55:31.032,0.15,0.035
21:55:31.036,0.125,-0.005
21:55:31.040,0.075,-0.02
21:55:31.044,0.055,-0.08
21:55:31.048,-0.01,-0.055
21:55:31.052,-0.07,-0.05
21:55:31.056,-0.11,-0.04
21:55:31.060,-0.15,-0.035
21:55:31.064,-0.2,-0.035
21:55:31.068,-0.215,-0.005
21:55:31.072,-0.22,-0.01
21:55:31.076,-0.185,-0.015
21:55:31.080,-0.225,-0.015
21:55:31.084,-0.185,-0.025
21:55:31.088,-0.185,-0.02
21:55:31.092,-0.185,-0.01
21:55:31.096,-0.17,-0.025
21:55:31.100,-0.18,-0.015
21:55:31.104,-0.165,-0.01
21:55:31.108,-0.17,-0.01
21:55:31.112,-0.18,0.0
21:55:31.116,-0.19,0.02
21:55:31.120,-0.17,-0.01
21:55:31.124,-0.185,-0.025
21:55:31.128,-0.18,-0.02
21:55:31.132,-0.19,-0.02
21:55:31.136,-0.185,-0.035
21:55:31.140,-0.19,-0.025
21:55:31.144,-0.185,-0.04
21:55:31.148,-0.195,-0.035
21:55:31.152,-0.18,-0.03
21:55:31.156,-0.175,-0.06
21:55:31.160,-0.185,-0.04
21:55:31.164,-0.17,-0.075
21:55:31.168,-0.155,-0.075
21:55:31.172,-0.15,-0.08
21:55:31.176,-0.09,-0.06
21:55:31.180,-0.055,-0.065
21:55:31.184,0.035,-0.055
21:55:31.188,0.15,-0.07
21:55:31.192,0.23,-0.1
21:55:31.196,0.235,-0.12
21:55:31.200,0.25,-0.185
21:55:31.204,0.305,-0.205
21:55:31.208,0.295,-0.225
21:55:31.212,0.295,-0.29
21:55:31.216,0.345,-0.415
21:55:31.220,0.515,-0.6
21:55:31.224,0.805,-0.795
21:55:31.228,1.095,-1.04
21:55:31.232,1.215,-1.235
21:55:31.236,1.055,-1.33
21:55:31.240,0.615,-1.145
21:55:31.244,0.13,-0.795
21:55:31.248,-0.175,-0.42
21:55:31.252,-0.27,-0.225
21:55:31.256,-0.28,-0.1
21:55:31.260,-0.295,-0.015
21:55:31.264,-0.31,0.04
21:55:31.268,-0.315,0.07
21:55:31.272,-0.33,0.09
21:55:31.276,-0.335,0.085
21:55:31.280,-0.36,0.06
21:55:31.284,-0.365,0.075
21:55:31.288,-0.35,0.05
21:55:31.292,-0.35,0.055
21:55:31.296,-0.355,0.065
21:55:31.300,-0.31,0.065
21:55:31.304,-0.305,0.05
21:55:31.308,-0.315,0.065
21:55:31.312,-0.32,0.07
21:55:31.316,-0.32,0.06
21:55:31.320,-0.31,0.065
21:55:31.324,-0.32,0.065
21:55:31.328,-0.345,0.075
21:55:31.332,-0.325,0.08
21:55:31.336,-0.33,0.07
21:55:31.340,-0.345,0.055
21:55:31.344,-0.34,0.07
21:55:31.348,-0.355,0.075
21:55:31.352,-0.365,0.06
21:55:31.356,-0.375,0.045
21:55:31.360,-0.38,0.095
21:55:31.364,-0.39,0.085
21:55:31.368,-0.39,0.075
21:55:31.372,-0.39,0.075
21:55:31.376,-0.4,0.085
21:55:31.380,-0.385,0.08
21:55:31.384,-0.38,0.095
21:55:31.388,-0.36,0.08
21:55:31.392,-0.385,0.07
21:55:31.396,-0.365,0.08
21:55:31.400,-0.38,0.075
21:55:31.404,-0.375,0.065
21:55:31.408,-0.38,0.06
21:55:31.412,-0.35,0.085
21:55:31.416,-0.33,0.075
21:55:31.420,-0.335,0.09
21:55:31.424,-0.325,0.07
21:55:31.428,-0.325,0.08
21:55:31.432,-0.29,0.1
21:55:31.436,-0.29,0.09
21:55:31.440,-0.28,0.095
21:55:31.444,-0.265,0.08
21:55:31.448,-0.25,0.06
21:55:31.452,-0.245,0.08
21:55:31.456,-0.26,0.055
21:55:31.460,-0.245,0.06
21:55:31.464,-0.265,0.045
21:55:31.468,-0.24,0.04
21:55:31.472,-0.25,0.035
21:55:31.476,-0.22,0.04
21:55:31.480,-0.2,0.035
21:55:31.484,-0.2,0.035
21:55:31.488,-0.185,0.015
21:55:31.492,-0.185,0.03
21:55:31.496,-0.185,0.035
21:55:31.500,-0.19,0.04
21:55:31.504,-0.18,0.045
21:55:31.508,-0.185,0.01
21:55:31.512,-0.18,0.01
21:55:31.516,-0.18,0.015
21:55:31.520,-0.18,0.04
21:55:31.524,-0.16,0.025
21:55:31.528,-0.17,0.055
21:55:31.532,-0.135,0.055
21:55:31.536,-0.12,0.03
21:55:31.540,-0.13,0.07
21:55:31.544,-0.145,0.055
21:55:31.548,-0.15,0.075
21:55:31.552,-0.145,0.075
21:55:31.556,-0.145,0.06
21:55:31.560,-0.135,0.06
21:55:31.564,-0.14,0.06
21:55:31.568,-0.14,0.06
21:55:31.572,-0.155,0.07
21:55:31.576,-0.16,0.05
21:55:31.580,-0.125,0.05
21:55:31.584,-0.145,0.065
21:55:31.588,-0.135,0.065
21:55:31.592,-0.095,0.06
21:55:31.596,-0.05,0.055
21:55:31.600,0.01,0.07
21:55:31.604,0.01,0.075
21:55:31.608,0.035,0.09
21:55:31.612,0.085,0.09
21:55:31.616,0.115,0.085
21:55:31.620,0.115,0.085
21:55:31.624,0.12,0.09
21:55:31.628,0.115,0.075
21:55:31.632,0.08,0.05
21:55:31.636,0.06,0.005
21:55:31.640,0.015,0.025
21:55:31.644,-0.04,0.015
21:55:31.648,-0.11,0.025
21:55:31.652,-0.19,0.035
21:55:31.656,-0.24,0.045
21:55:31.660,-0.24,0.08
21:55:31.664,-0.285,0.08
21:55:31.668,-0.275,0.075
21:55:31.672,-0.255,0.045
21:55:31.676,-0.25,0.065
21:55:31.680,-0.255,0.035
21:55:31.684,-0.275,0.025
21:55:31.688,-0.23,0.035
21:55:31.692,-0.235,0.03
21:55:31.696,-0.235,0.005
21:55:31.700,-0.24,0.005
21:55:31.704,-0.235,-0.015
21:55:31.708,-0.26,-0.02
21:55:31.712,-0.23,-0.03
21:55:31.716,-0.235,-0.015
21:55:31.720,-0.205,-0.025
21:55:31.724,-0.22,-0.03
21:55:31.728,-0.21,-0.045
21:55:31.732,-0.22,-0.03
21:55:31.736,-0.22,-0.035
21:55:31.740,-0.2,-0.05
21:55:31.744,-0.18,-0.035
21:55:31.748,-0.16,-0.025
21:55:31.752,-0.18,-0.035
21:55:31.756,-0.18,-0.045
21:55:31.760,-0.17,-0.05
21:55:31.764,-0.17,-0.05
21:55:31.768,-0.15,-0.04
21:55:31.772,-0.095,-0.035
21:55:31.776,-0.02,-0.075
21:55:31.780,0.055,-0.085
21:55:31.784,0.145,-0.075
21:55:31.788,0.21,-0.115
21:55:31.792,0.275,-0.175
21:55:31.796,0.335,-0.215
21:55:31.800,0.36,-0.25
21:55:31.804,0.37,-0.26
21:55:31.808,0.335,-0.29
21:55:31.812,0.345,-0.395
21:55:31.816,0.49,-0.505
21:55:31.820,0.77,-0.67
21:55:31.824,1.045,-0.925
21:55:31.828,1.205,-1.135
21:55:31.832,1.065,-1.275
21:55:31.836,0.65,-1.19
21:55:31.840,0.195,-0.895
21:55:31.844,-0.08,-0.56
21:55:31.848,-0.2,-0.375
21:55:31.852,-0.225,-0.235
21:55:31.856,-0.24,-0.135
21:55:31.860,-0.265,-0.075
21:55:31.864,-0.315,-0.045
21:55:31.868,-0.31,-0.045
21:55:31.872,-0.34,-0.045
21:55:31.876,-0.315,-0.095
21:55:31.880,-0.33,-0.125
21:55:31.884,-0.365,-0.135
21:55:31.888,-0.365,-0.175
21:55:31.892,-0.365,-0.14
21:55:31.896,-0.36,-0.15
21:55:31.900,-0.39,-0.14
21:55:31.904,-0.375,-0.15
21:55:31.908,-0.375,-0.18
21:55:31.912,-0.38,-0.18
21:55:31.916,-0.37,-0.185
21:55:31.920,-0.385,-0.19
21:55:31.924,-0.385,-0.205
21:55:31.928,-0.38,-0.225
21:55:31.932,-0.405,-0.225
21:55:31.936,-0.4,-0.245
21:55:31.940,-0.415,-0.22
21:55:31.944,-0.415,-0.23
21:55:31.948,-0.4,-0.23
21:55:31.952,-0.4,-0.235
21:55:31.956,-0.415,-0.24
21:55:31.960,-0.4,-0.24
21:55:31.964,-0.43,-0.235
21:55:31.968,-0.42,-0.235
21:55:31.972,-0.42,-0.265
21:55:31.976,-0.405,-0.26
21:55:31.980,-0.395,-0.275
21:55:31.984,-0.395,-0.255
21:55:31.988,-0.4,-0.26
21:55:31.992,-0.405,-0.255
21:55:31.996,-0.4,-0.235
21:55:32.000,-0.375,-0.27
21:55:32.004,-0.385,-0.265
21:55:32.008,-0.385,-0.27
21:55:32.012,-0.39,-0.27
21:55:32.016,-0.38,-0.25
21:55:32.020,-0.395,-0.285
21:55:32.024,-0.37,-0.29
21:55:32.028,-0.385,-0.29
21:55:32.032,-0.375,-0.3
21:55:32.036,-0.35,-0.315
21:55:32.040,-0.32,-0.325
21:55:32.044,-0.32,-0.34
21:55:32.048,-0.31,-0.34
21:55:32.052,-0.295,-0.36
21:55:32.056,-0.28,-0.365
21:55:32.060,-0.26,-0.35
21:55:32.064,-0.275,-0.35
21:55:32.068,-0.26,-0.37
21:55:32.072,-0.24,-0.38
21:55:32.076,-0.235,-0.39
21:55:32.080,-0.23,-0.39
21:55:32.084,-0.22,-0.365
21:55:32.088,-0.19,-0.385
21:55:32.092,-0.21,-0.38
21:55:32.096,-0.185,-0.375
21:55:32.100,-0.18,-0.38
21:55:32.104,-0.18,-0.36
21:55:32.108,-0.19,-0.365
21:55:32.112,-0.18,-0.35
21:55:32.116,-0.16,-0.36
21:55:32.120,-0.165,-0.37
21:55:32.124,-0.155,-0.385
21:55:32.128,-0.16,-0.36
21:55:32.132,-0.19,-0.36
21:55:32.136,-0.195,-0.37
21:55:32.140,-0.185,-0.375
21:55:32.144,-0.2,-0.365
21:55:32.148,-0.18,-0.355
21:55:32.152,-0.19,-0.355
21:55:32.156,-0.175,-0.37
21:55:32.160,-0.18,-0.365
21:55:32.164,-0.195,-0.37
21:55:32.168,-0.155,-0.35
21:55:32.172,-0.16,-0.335
21:55:32.176,-0.15,-0.32
21:55:32.180,-0.155,-0.335
21:55:32.184,-0.135,-0.33
21:55:32.188,-0.125,-0.32
21:55:32.192,-0.085,-0.3
21:55:32.196,-0.065,-0.295
21:55:32.200,-0.01,-0.26
21:55:32.204,0.03,-0.25
21:55:32.208,0.065,-0.225
21:55:32.212,0.105,-0.185
21:55:32.216,0.13,-0.21
21:55:32.220,0.15,-0.195
21:55:32.224,0.155,-0.19
21:55:32.228,0.125,-0.2
21:55:32.232,0.11,-0.215
21:55:32.236,0.035,-0.26
21:55:32.240,-0.015,-0.265
21:55:32.244,-0.06,-0.24
21:55:32.248,-0.125,-0.24
21:55:32.252,-0.185,-0.26
21:55:32.256,-0.235,-0.22
21:55:32.260,-0.255,-0.195
21:55:32.264,-0.275,-0.195
21:55:32.268,-0.28,-0.19
21:55:32.272,-0.26,-0.165
21:55:32.276,-0.255,-0.165
21:55:32.280,-0.26,-0.195
21:55:32.284,-0.23,-0.17
21:55:32.288,-0.25,-0.16
21:55:32.292,-0.245,-0.15
21:55:32.296,-0.24,-0.155
21:55:32.300,-0.22,-0.135
21:55:32.304,-0.21,-0.15
21:55:32.308,-0.195,-0.115
21:55:32.312,-0.19,-0.115
21:55:32.316,-0.195,-0.115
21:55:32.320,-0.205,-0.13
21:55:32.324,-0.185,-0.135
21:55:32.328,-0.17,-0.115
21:55:32.332,-0.185,-0.115
21:55:32.336,-0.2,-0.105
21:55:32.340,-0.185,-0.085
21:55:32.344,-0.17,-0.085
21:55:32.348,-0.18,-0.1
21:55:32.352,-0.195,-0.115
21:55:32.356,-0.21,-0.09
21:55:32.360,-0.2,-0.08
21:55:32.364,-0.19,-0.1
21:55:32.368,-0.165,-0.105
21:55:32.372,-0.135,-0.085
21:55:32.376,-0.085,-0.08
21:55:32.380,-0.025,-0.11
21:55:32.384,0.08,-0.11
21:55:32.388,0.17,-0.12
21:55:32.392,0.235,-0.155
21:55:32.396,0.285,-0.21
21:55:32.400,0.35,-0.215
21:55:32.404,0.355,-0.255
21:55:32.408,0.37,-0.295
21:55:32.412,0.4,-0.39
21:55:32.416,0.51,-0.505
21:55:32.420,0.755,-0.69
21:55:32.424,1.06,-0.905
21:55:32.428,1.265,-1.115
21:55:32.432,1.24,-1.265
21:55:32.436,0.895,-1.25
21:55:32.440,0.435,-0.915
21:55:32.444,0.04,-0.585
21:55:32.448,-0.13,-0.33
21:55:32.452,-0.185,-0.185
21:55:32.456,-0.215,-0.075
21:55:32.460,-0.25,0.01
21:55:32.464,-0.255,0.04
21:55:32.468,-0.29,0.06
21:55:32.472,-0.3,0.06
21:55:32.476,-0.335,0.05
21:55:32.480,-0.33,0.05
21:55:32.484,-0.34,0.03
21:55:32.488,-0.3,0.025
21:55:32.492,-0.34,0.015
21:55:32.496,-0.33,0.015
21:55:32.500,-0.335,0.01
21:55:32.504,-0.34,0.02
21:55:32.508,-0.32,0.035
21:55:32.512,-0.335,0.02
21:55:32.516,-0.34,0.015
21:55:32.520,-0.34,0.035
21:55:32.524,-0.325,0.01
21:55:32.528,-0.34,0.005
21:55:32.532,-0.315,0.005
21:55:32.536,-0.335,0.025
21:55:32.540,-0.325,0.015
21:55:32.544,-0.335,0.025
21:55:32.548,-0.33,0.03
21:55:32.552,-0.32,0.055
21:55:32.556,-0.34,0.055
21:55:32.560,-0.33,0.045
21:55:32.564,-0.34,0.04
21:55:32.568,-0.33,0.05
21:55:32.572,-0.34,0.04
21:55:32.576,-0.33,0.025
21:55:32.580,-0.35,0.015
21:55:32.584,-0.375,0.02
21:55:32.588,-0.36,0.015
21:55:32.592,-0.355,0.05
21:55:32.596,-0.365,0.035
21:55:32.600,-0.355,0.03
21:55:32.604,-0.325,0.04
21:55:32.608,-0.32,0.035
21:55:32.612,-0.325,0.01
21:55:32.616,-0.31,0.025
21:55:32.620,-0.305,0.04
21:55:32.624,-0.3,0.025
21:55:32.628,-0.29,0.035
21:55:32.632,-0.27,0.01
21:55:32.636,-0.26,0.035
21:55:32.640,-0.235,0.02
21:55:32.644,-0.22,0.0
21:55:32.648,-0.19,-0.015
21:55:32.652,-0.2,0.0
21:55:32.656,-0.17,-0.025
21:55:32.660,-0.18,-0.03
21:55:32.664,-0.16,-0.015
21:55:32.668,-0.16,-0.05
21:55:32.672,-0.15,-0.005
21:55:32.676,-0.13,-0.03
21:55:32.680,-0.125,-0.06
21:55:32.684,-0.13,-0.045
21:55:32.688,-0.13,-0.065
21:55:32.692,-0.135,-0.05
21:55:32.696,-0.125,-0.045
21:55:32.700,-0.13,-0.05
21:55:32.704,-0.11,-0.04
21:55:32.708,-0.1,-0.06
21:55:32.712,-0.115,-0.06
21:55:32.716,-0.1,-0.065
21:55:32.720,-0.11,-0.06
21:55:32.724,-0.115,-0.035
21:55:32.728,-0.105,-0.06
21:55:32.732,-0.095,-0.04
21:55:32.736,-0.1,-0.035
21:55:32.740,-0.08,-0.025
21:55:32.744,-0.095,-0.025
21:55:32.748,-0.085,-0.035
21:55:32.752,-0.07,-0.02
21:55:32.756,-0.065,-0.025
21:55:32.760,-0.065,-0.015
21:55:32.764,-0.075,-0.01
21:55:32.768,-0.04,-0.005
21:55:32.772,-0.035,-0.01
21:55:32.776,-0.035,0.01
21:55:32.780,-0.025,0.005
21:55:32.784,-0.03,0.005
21:55:32.788,-0.035,0.005
21:55:32.792,-0.005,0.005
21:55:32.796,0.015,0.015
21:55:32.800,0.07,0.02
21:55:32.804,0.105,0.015
21:55:32.808,0.13,0.055
21:55:32.812,0.155,0.04
21:55:32.816,0.175,0.04
21:55:32.820,0.175,0.015
21:55:32.824,0.195,0.035
21:55:32.828,0.195,0.02
21:55:32.832,0.155,-0.005
21:55:32.836,0.11,-0.015
21:55:32.840,0.085,-0.055
21:55:32.844,0.015,-0.075
21:55:32.848,-0.03,-0.055
21:55:32.852,-0.09,-0.05
21:55:32.856,-0.12,-0.05
21:55:32.860,-0.145,-0.03
21:55:32.864,-0.18,-0.005
21:55:32.868,-0.175,-0.015
21:55:32.872,-0.16,-0.01
21:55:32.876,-0.155,-0.015
21:55:32.880,-0.17,-0.005
21:55:32.884,-0.165,-0.015
21:55:32.888,-0.155,-0.02
21:55:32.892,-0.16,-0.02
21:55:32.896,-0.17,0.0
21:55:32.900,-0.16,-0.025
21:55:32.904,-0.145,-0.005
21:55:32.908,-0.135,-0.025
21:55:32.912,-0.145,-0.035
21:55:32.916,-0.145,-0.025
21:55:32.920,-0.155,-0.02
21:55:32.924,-0.155,-0.035
21:55:32.928,-0.175,-0.04
21:55:32.932,-0.16,-0.035
21:55:32.936,-0.15,-0.03
21:55:32.940,-0.14,-0.055
21:55:32.944,-0.13,-0.055
21:55:32.948,-0.16,-0.05
21:55:32.952,-0.125,-0.055
21:55:32.956,-0.125,-0.035
21:55:32.960,-0.145,-0.055
21:55:32.964,-0.135,-0.07
21:55:32.968,-0.12,-0.05
21:55:32.972,-0.065,-0.04
21:55:32.976,-0.04,-0.035
21:55:32.980,0.045,-0.05
21:55:32.984,0.12,-0.035
21:55:32.988,0.215,-0.07
21:55:32.992,0.27,-0.11
21:55:32.996,0.29,-0.155
21:55:33.000,0.33,-0.195
21:55:33.004,0.35,-0.2
21:55:33.008,0.345,-0.225
21:55:33.012,0.35,-0.305
21:55:33.016,0.415,-0.425
21:55:33.020,0.595,-0.6
21:55:33.024,0.9,-0.835
21:55:33.028,1.145,-1.045
21:55:33.032,1.23,-1.245
21:55:33.036,1.025,-1.32
21:55:33.040,0.55,-1.125
21:55:33.044,0.1,-0.72
21:55:33.048,-0.12,-0.38
21:55:33.052,-0.225,-0.19
21:55:33.056,-0.24,-0.07
21:55:33.060,-0.27,0.01
21:55:33.064,-0.265,0.06
21:55:33.068,-0.27,0.075
21:55:33.072,-0.285,0.08
21:55:33.076,-0.29,0.095
21:55:33.080,-0.29,0.075
21:55:33.084,-0.265,0.07
21:55:33.088,-0.27,0.07
21:55:33.092,-0.275,0.055
21:55:33.096,-0.28,0.065
21:55:33.100,-0.295,0.06
21:55:33.104,-0.29,0.07
21:55:33.108,-0.285,0.075
21:55:33.112,-0.28,0.075
21:55:33.116,-0.275,0.08
21:55:33.120,-0.275,0.075
21:55:33.124,-0.275,0.08
21:55:33.128,-0.305,0.06
21:55:33.132,-0.31,0.06
21:55:33.136,-0.32,0.06
21:55:33.140,-0.33,0.075
21:55:33.144,-0.345,0.075
21:55:33.148,-0.34,0.045
21:55:33.152,-0.345,0.045
21:55:33.156,-0.35,0.05
21:55:33.160,-0.335,0.055
21:55:33.164,-0.335,0.05
21:55:33.168,-0.34,0.05
21:55:33.172,-0.32,0.05
21:55:33.176,-0.35,0.065
21:55:33.180,-0.345,0.07
21:55:33.184,-0.345,0.07
21:55:33.188,-0.345,0.065
21:55:33.192,-0.35,0.07
21:55:33.196,-0.32,0.075
21:55:33.200,-0.305,0.075
21:55:33.204,-0.31,0.075
21:55:33.208,-0.3,0.08
21:55:33.212,-0.285,0.065
21:55:33.216,-0.29,0.095
21:55:33.220,-0.27,0.09
21:55:33.224,-0.255,0.095
21:55:33.228,-0.265,0.08
21:55:33.232,-0.235,0.055
21:55:33.236,-0.25,0.045
21:55:33.240,-0.22,0.065
21:55:33.244,-0.21,0.035
21:55:33.248,-0.195,0.01
21:55:33.252,-0.225,-0.005
21:55:33.256,-0.22,0.0
21:55:33.260,-0.2,-0.015
21:55:33.264,-0.19,-0.005
21:55:33.268,-0.17,-0.01
21:55:33.272,-0.175,-0.035
21:55:33.276,-0.165,-0.04
21:55:33.280,-0.19,-0.025
21:55:33.284,-0.165,-0.03
21:55:33.288,-0.165,-0.025
21:55:33.292,-0.16,-0.02
21:55:33.296,-0.155,-0.02
21:55:33.300,-0.125,-0.015
21:55:33.304,-0.125,-0.015
21:55:33.308,-0.115,0.01
21:55:33.312,-0.115,0.0
21:55:33.316,-0.105,-0.005
21:55:33.320,-0.105,-0.01
21:55:33.324,-0.105,0.0
21:55:33.328,-0.105,0.0
21:55:33.332,-0.1,0.025
21:55:33.336,-0.12,0.025
21:55:33.340,-0.135,0.025
21:55:33.344,-0.15,0.03
21:55:33.348,-0.145,0.03
21:55:33.352,-0.095,0.015
21:55:33.356,-0.1,0.065
21:55:33.360,-0.09,0.045
21:55:33.364,-0.075,0.035
21:55:33.368,-0.09,0.045
21:55:33.372,-0.09,0.065
21:55:33.376,-0.04,0.07
21:55:33.380,0.01,0.07
21:55:33.384,0.03,0.06
21:55:33.388,0.05,0.08
21:55:33.392,0.095,0.075
21:55:33.396,0.105,0.085
21:55:33.400,0.14,0.095
21:55:33.404,0.135,0.12
21:55:33.408,0.13,0.115
21:55:33.412,0.125,0.075
21:55:33.416,0.075,0.06
21:55:33.420,0.02,0.04
21:55:33.424,-0.035,0.04
21:55:33.428,-0.09,0.035
21:55:33.432,-0.14,0.02
21:55:33.436,-0.175,0.035
21:55:33.440,-0.24,0.05
21:55:33.444,-0.26,0.07
21:55:33.448,-0.27,0.08
21:55:33.452,-0.285,0.06
21:55:33.456,-0.285,0.065
21:55:33.460,-0.29,0.03
21:55:33.464,-0.26,0.025
21:55:33.468,-0.27,0.035
21:55:33.472,-0.275,0.045
21:55:33.476,-0.27,0.025
21:55:33.480,-0.265,0.01
21:55:33.484,-0.24,0.01
21:55:33.488,-0.23,0.015
21:55:33.492,-0.25,-0.025
21:55:33.496,-0.235,-0.01
21:55:33.500,-0.235,-0.03
21:55:33.504,-0.25,-0.015
21:55:33.508,-0.265,-0.01
21:55:33.512,-0.26,-0.01
21:55:33.516,-0.24,-0.01
21:55:33.520,-0.24,0.005
21:55:33.524,-0.2,0.0
21:55:33.528,-0.195,-0.025
21:55:33.532,-0.2,-0.01
21:55:33.536,-0.2,0.0
21:55:33.540,-0.2,0.0
21:55:33.544,-0.2,-0.01
21:55:33.548,-0.185,0.005
21:55:33.552,-0.17,0.01
21:55:33.556,-0.11,-0.01
21:55:33.560,-0.07,0.005
21:55:33.564,0.025,-0.015
21:55:33.568,0.135,-0.04
21:55:33.572,0.21,-0.07
21:55:33.576,0.27,-0.11
21:55:33.580,0.29,-0.165
21:55:33.584,0.33,-0.15
21:55:33.588,0.305,-0.18
21:55:33.592,0.29,-0.275
21:55:33.596,0.32,-0.37
21:55:33.600,0.505,-0.5
21:55:33.604,0.775,-0.72
21:55:33.608,1.05,-0.935
21:55:33.612,1.18,-1.14
21:55:33.616,0.985,-1.21
21:55:33.620,0.53,-1.035
21:55:33.624,0.1,-0.67
21:55:33.628,-0.125,-0.39
21:55:33.632,-0.21,-0.2
21:55:33.636,-0.24,-0.1
21:55:33.640,-0.245,-0.01
21:55:33.644,-0.28,0.04
21:55:33.648,-0.29,0.045
21:55:33.652,-0.32,0.06
21:55:33.656,-0.33,0.035
21:55:33.660,-0.33,0.02
21:55:33.664,-0.33,0.01
21:55:33.668,-0.34,-0.01
21:55:33.672,-0.335,0.0
21:55:33.676,-0.34,-0.02
21:55:33.680,-0.36,-0.02
21:55:33.684,-0.37,-0.015
21:55:33.688,-0.37,-0.025
21:55:33.692,-0.37,-0.06
21:55:33.696,-0.375,-0.05
21:55:33.700,-0.375,-0.06
21:55:33.704,-0.38,-0.075
21:55:33.708,-0.38,-0.07
21:55:33.712,-0.39,-0.08
21:55:33.716,-0.395,-0.08
21:55:33.720,-0.38,-0.07
21:55:33.724,-0.395,-0.08
21:55:33.728,-0.39,-0.095
21:55:33.732,-0.39,-0.1
21:55:33.736,-0.405,-0.1
21:55:33.740,-0.4,-0.11
21:55:33.744,-0.41,-0.115
21:55:33.748,-0.39,-0.125
21:55:33.752,-0.395,-0.13
21:55:33.756,-0.36,-0.13
21:55:33.760,-0.385,-0.1
21:55:33.764,-0.38,-0.095
21:55:33.768,-0.385,-0.105
21:55:33.772,-0.385,-0.12
21:55:33.776,-0.375,-0.115
21:55:33.780,-0.37,-0.125
21:55:33.784,-0.35,-0.115
21:55:33.788,-0.355,-0.11
21:55:33.792,-0.355,-0.12
21:55:33.796,-0.385,-0.14
21:55:33.800,-0.38,-0.15
21:55:33.804,-0.38,-0.185
21:55:33.808,-0.335,-0.16
21:55:33.812,-0.335,-0.16
21:55:33.816,-0.305,-0.18
21:55:33.820,-0.305,-0.21
21:55:33.824,-0.295,-0.22
21:55:33.828,-0.29,-0.2
21:55:33.832,-0.285,-0.215
21:55:33.836,-0.26,-0.24
21:55:33.840,-0.27,-0.225
21:55:33.844,-0.27,-0.27
21:55:33.848,-0.26,-0.27
21:55:33.852,-0.255,-0.285
21:55:33.856,-0.22,-0.27
21:55:33.860,-0.22,-0.285
21:55:33.864,-0.205,-0.275
21:55:33.868,-0.19,-0.28
21:55:33.872,-0.18,-0.29
21:55:33.876,-0.185,-0.3
21:55:33.880,-0.185,-0.31
21:55:33.884,-0.18,-0.3
21:55:33.888,-0.175,-0.3
21:55:33.892,-0.175,-0.29
21:55:33.896,-0.185,-0.32
21:55:33.900,-0.17,-0.315
21:55:33.904,-0.18,-0.325
21:55:33.908,-0.15,-0.3
21:55:33.912,-0.16,-0.29
21:55:33.916,-0.18,-0.32
21:55:33.920,-0.185,-0.31
21:55:33.924,-0.18,-0.325
21:55:33.928,-0.2,-0.32
21:55:33.932,-0.175,-0.315
21:55:33.936,-0.175,-0.32
21:55:33.940,-0.19,-0.33
21:55:33.944,-0.18,-0.345
21:55:33.948,-0.185,-0.335
21:55:33.952,-0.145,-0.335
21:55:33.956,-0.15,-0.32
21:55:33.960,-0.145,-0.3
21:55:33.964,-0.13,-0.33
21:55:33.968,-0.105,-0.32
21:55:33.972,-0.1,-0.31
21:55:33.976,-0.09,-0.305
21:55:33.980,-0.045,-0.31
21:55:33.984,0.0,-0.31
21:55:33.988,0.035,-0.27
21:55:33.992,0.07,-0.27
21:55:33.996,0.115,-0.265
21:55:34.000,0.155,-0.29
21:55:34.004,0.155,-0.29
21:55:34.008,0.15,-0.26
21:55:34.012,0.14,-0.285
21:55:34.016,0.12,-0.3
21:55:34.020,0.08,-0.33
21:55:34.024,0.0,-0.33
21:55:34.028,-0.04,-0.34
21:55:34.032,-0.1,-0.36
21:55:34.036,-0.145,-0.36
21:55:34.040,-0.205,-0.34
21:55:34.044,-0.25,-0.33
21:55:34.048,-0.26,-0.3
21:55:34.052,-0.275,-0.29
21:55:34.056,-0.26,-0.305
21:55:34.060,-0.255,-0.29
21:55:34.064,-0.255,-0.32
21:55:34.068,-0.235,-0.3
21:55:34.072,-0.22,-0.295
21:55:34.076,-0.21,-0.305
21:55:34.080,-0.195,-0.3
21:55:34.084,-0.22,-0.28
21:55:34.088,-0.2,-0.28
21:55:34.092,-0.21,-0.26
21:55:34.096,-0.195,-0.29
21:55:34.100,-0.18,-0.25
21:55:34.104,-0.2,-0.235
21:55:34.108,-0.195,-0.25
21:55:34.112,-0.185,-0.245
21:55:34.116,-0.17,-0.235
21:55:34.120,-0.17,-0.215
21:55:34.124,-0.205,-0.22
21:55:34.128,-0.185,-0.195
21:55:34.132,-0.21,-0.21
21:55:34.136,-0.205,-0.2
21:55:34.140,-0.195,-0.2
21:55:34.144,-0.185,-0.2
21:55:34.148,-0.19,-0.21
21:55:34.152,-0.17,-0.2
21:55:34.156,-0.115,-0.205
21:55:34.160,-0.05,-0.195
21:55:34.164,0.035,-0.2
21:55:34.168,0.12,-0.19
21:55:34.172,0.19,-0.2
21:55:34.176,0.28,-0.25
21:55:34.180,0.32,-0.29
21:55:34.184,0.36,-0.31
21:55:34.188,0.4,-0.295
21:55:34.192,0.405,-0.345
21:55:34.196,0.42,-0.44
21:55:34.200,0.545,-0.57
21:55:34.204,0.83,-0.75
21:55:34.208,1.115,-0.97
21:55:34.212,1.28,-1.16
21:55:34.216,1.145,-1.28
21:55:34.220,0.72,-1.14
21:55:34.224,0.23,-0.775
21:55:34.228,-0.04,-0.49
21:55:34.232,-0.16,-0.315
21:55:34.236,-0.195,-0.175
21:55:34.240,-0.235,-0.06
21:55:34.244,-0.26,-0.01
21:55:34.248,-0.29,0.01
21:55:34.252,-0.305,0.04
21:55:34.256,-0.315,0.045
21:55:34.260,-0.33,0.005
21:55:34.264,-0.36,-0.005
21:55:34.268,-0.345,0.0
21:55:34.272,-0.35,-0.025
21:55:34.276,-0.335,0.0
21:55:34.280,-0.35,-0.005
21:55:34.284,-0.37,0.0
21:55:34.288,-0.365,0.0
21:55:34.292,-0.35,0.0
21:55:34.296,-0.355,0.0
21:55:34.300,-0.34,0.01
21:55:34.304,-0.33,0.005
21:55:34.308,-0.34,-0.005
21:55:34.312,-0.345,0.03
21:55:34.316,-0.355,0.04
21:55:34.320,-0.36,0.03
21:55:34.324,-0.36,0.025
21:55:34.328,-0.36,0.02
21:55:34.332,-0.36,0.02
21:55:34.336,-0.355,0.015
21:55:34.340,-0.36,0.015
21:55:34.344,-0.4,0.015
21:55:34.348,-0.4,0.01
21:55:34.352,-0.4,0.005
21:55:34.356,-0.4,0.03
21:55:34.360,-0.4,0.025
21:55:34.364,-0.4,0.03
21:55:34.368,-0.4,0.015
21:55:34.372,-0.385,0.03
21:55:34.376,-0.37,0.035
21:55:34.380,-0.39,0.035
21:55:34.384,-0.395,0.01
21:55:34.388,-0.37,0.02
21:55:34.392,-0.37,0.015
21:55:34.396,-0.35,0.02
21:55:34.400,-0.32,0.0
21:55:34.404,-0.335,0.0
21:55:34.408,-0.315,-0.005
21:55:34.412,-0.29,0.02
21:55:34.416,-0.27,0.0
21:55:34.420,-0.265,-0.015
21:55:34.424,-0.25,-0.04
21:55:34.428,-0.25,-0.025
21:55:34.432,-0.225,-0.005
21:55:34.436,-0.235,-0.05
21:55:34.440,-0.225,-0.045
21:55:34.444,-0.215,-0.06
21:55:34.448,-0.21,-0.09
21:55:34.452,-0.21,-0.09
21:55:34.456,-0.195,-0.09
21:55:34.460,-0.23,-0.11
21:55:34.464,-0.205,-0.11
21:55:34.468,-0.18,-0.1
21:55:34.472,-0.185,-0.11
21:55:34.476,-0.185,-0.11
21:55:34.480,-0.18,-0.1
21:55:34.484,-0.16,-0.105
21:55:34.488,-0.15,-0.105
21:55:34.492,-0.15,-0.125
21:55:34.496,-0.155,-0.1
21:55:34.500,-0.145,-0.09
21:55:34.504,-0.15,-0.105
21:55:34.508,-0.145,-0.08
21:55:34.512,-0.145,-0.08
21:55:34.516,-0.14,-0.06
21:55:34.520,-0.13,-0.08
21:55:34.524,-0.145,-0.045
21:55:34.528,-0.135,-0.055
21:55:34.532,-0.14,-0.07
21:55:34.536,-0.115,-0.05
21:55:34.540,-0.14,-0.055
21:55:34.544,-0.125,-0.06
21:55:34.548,-0.105,-0.06
21:55:34.552,-0.08,-0.04
21:55:34.556,-0.08,-0.045
21:55:34.560,-0.1,-0.055
21:55:34.564,-0.08,-0.04
21:55:34.568,-0.05,-0.035
21:55:34.572,-0.01,-0.03
21:55:34.576,0.03,-0.005
21:55:34.580,0.05,-0.015
21:55:34.584,0.095,-0.01
21:55:34.588,0.125,-0.005
21:55:34.592,0.14,0.0
21:55:34.596,0.15,0.01
21:55:34.600,0.135,-0.005
21:55:34.604,0.125,-0.02
21:55:34.608,0.07,-0.05
21:55:34.612,0.01,-0.075
21:55:34.616,-0.01,-0.075
21:55:34.620,-0.06,-0.08
21:55:34.624,-0.1,-0.065
21:55:34.628,-0.17,-0.045
21:55:34.632,-0.2,-0.025
21:55:34.636,-0.225,-0.025
21:55:34.640,-0.22,0.01
21:55:34.644,-0.245,0.005
21:55:34.648,-0.225,-0.045
21:55:34.652,-0.23,-0.03
21:55:34.656,-0.23,-0.02
21:55:34.660,-0.23,-0.02
21:55:34.664,-0.19,-0.03
21:55:34.668,-0.215,-0.03
21:55:34.672,-0.21,-0.02
21:55:34.676,-0.23,-0.04
21:55:34.680,-0.22,-0.04
21:55:34.684,-0.2,-0.04
21:55:34.688,-0.205,-0.035
21:55:34.692,-0.21,-0.055
21:55:34.696,-0.21,-0.06
21:55:34.700,-0.21,-0.07
21:55:34.704,-0.2,-0.04
21:55:34.708,-0.21,-0.05
21:55:34.712,-0.2,-0.065
21:55:34.716,-0.215,-0.06
21:55:34.720,-0.22,-0.03
21:55:34.724,-0.215,-0.04
21:55:34.728,-0.195,-0.03
21:55:34.732,-0.16,-0.035
21:55:34.736,-0.165,-0.03
21:55:34.740,-0.15,-0.02
21:55:34.744,-0.13,-0.045
21:55:34.748,-0.085,-0.04
21:55:34.752,-0.01,-0.05
21:55:34.756,0.07,-0.04
21:55:34.760,0.16,-0.05
21:55:34.764,0.22,-0.1
21:55:34.768,0.24,-0.12
21:55:34.772,0.245,-0.15
21:55:34.776,0.285,-0.2
21:55:34.780,0.28,-0.225
21:55:34.784,0.29,-0.33
21:55:34.788,0.355,-0.46
21:55:34.792,0.6,-0.635
21:55:34.796,0.89,-0.9
21:55:34.800,1.135,-1.13
21:55:34.804,1.145,-1.27
21:55:34.808,0.88,-1.255
21:55:34.812,0.375,-0.965
21:55:34.816,0.0,-0.585
21:55:34.820,-0.19,-0.285
21:55:34.824,-0.27,-0.14
21:55:34.828,-0.285,-0.025
21:55:34.832,-0.29,0.05
21:55:34.836,-0.31,0.09
21:55:34.840,-0.3,0.1
21:55:34.844,-0.295,0.095
21:55:34.848,-0.295,0.09
21:55:34.852,-0.3,0.085
21:55:34.856,-0.31,0.095
21:55:34.860,-0.285,0.08
21:55:34.864,-0.31,0.08
21:55:34.868,-0.32,0.07
21:55:34.872,-0.31,0.08
21:55:34.876,-0.305,0.07
21:55:34.880,-0.305,0.065
21:55:34.884,-0.305,0.085
21:55:34.888,-0.32,0.06
21:55:34.892,-0.32,0.06
21:55:34.896,-0.33,0.07
21:55:34.900,-0.335,0.07
21:55:34.904,-0.345,0.06
21:55:34.908,-0.35,0.075
21:55:34.912,-0.35,0.065
21:55:34.916,-0.33,0.07
21:55:34.920,-0.345,0.06
21:55:34.924,-0.35,0.075
21:55:34.928,-0.355,0.07
21:55:34.932,-0.355,0.06
21:55:34.936,-0.34,0.06
21:55:34.940,-0.34,0.075
21:55:34.944,-0.34,0.09
21:55:34.948,-0.36,0.075
21:55:34.952,-0.345,0.105
21:55:34.956,-0.35,0.1
21:55:34.960,-0.345,0.085
21:55:34.964,-0.32,0.105
21:55:34.968,-0.32,0.1
21:55:34.972,-0.32,0.09
21:55:34.976,-0.31,0.105
21:55:34.980,-0.31,0.105
21:55:34.984,-0.295,0.105
21:55:34.988,-0.29,0.11
21:55:34.992,-0.28,0.105
21:55:34.996,-0.265,0.095
21:55:35.000,-0.29,0.07
21:55:35.004,-0.3,0.09
21:55:35.008,-0.28,0.065
21:55:35.012,-0.28,0.065
21:55:35.016,-0.27,0.065
21:55:35.020,-0.25,0.05
21:55:35.024,-0.225,0.045
21:55:35.028,-0.24,0.04
21:55:35.032,-0.235,0.04
21:55:35.036,-0.205,0.05
21:55:35.040,-0.195,0.015
21:55:35.044,-0.22,0.02
21:55:35.048,-0.2,0.02
21:55:35.052,-0.18,0.02
21:55:35.056,-0.145,0.015
21:55:35.060,-0.145,0.0
21:55:35.064,-0.15,0.015
21:55:35.068,-0.145,0.025
21:55:35.072,-0.13,0.0
21:55:35.076,-0.12,0.015
21:55:35.080,-0.155,0.035
21:55:35.084,-0.13,0.035
21:55:35.088,-0.125,0.03
21:55:35.092,-0.12,0.035
21:55:35.096,-0.135,0.055
21:55:35.100,-0.14,0.035
21:55:35.104,-0.13,0.05
21:55:35.108,-0.14,0.03
21:55:35.112,-0.17,0.045
21:55:35.116,-0.185,0.05
21:55:35.120,-0.18,0.03
21:55:35.124,-0.175,0.025
21:55:35.128,-0.18,0.05
21:55:35.132,-0.16,0.02
21:55:35.136,-0.165,0.035
21:55:35.140,-0.13,0.015
21:55:35.144,-0.12,0.02
21:55:35.148,-0.1,0.01
21:55:35.152,-0.085,0.025
21:55:35.156,-0.075,0.01
21:55:35.160,-0.06,0.02
21:55:35.164,-0.03,0.03
21:55:35.168,0.03,0.05
21:55:35.172,0.05,0.065
21:55:35.176,0.085,0.065
21:55:35.180,0.09,0.075
21:55:35.184,0.11,0.07
21:55:35.188,0.13,0.09
21:55:35.192,0.12,0.07
21:55:35.196,0.09,0.045
21:55:35.200,0.055,-0.005
21:55:35.204,0.015,-0.015
21:55:35.208,-0.02,-0.025
21:55:35.212,-0.09,-0.025
21:55:35.216,-0.16,-0.025
21:55:35.220,-0.23,-0.02
21:55:35.224,-0.28,0.015
21:55:35.228,-0.33,0.005
21:55:35.232,-0.31,0.005
21:55:35.236,-0.3,0.005
21:55:35.240,-0.28,-0.015
21:55:35.244,-0.3,-0.03
21:55:35.248,-0.295,-0.04
21:55:35.252,-0.28,-0.05
21:55:35.256,-0.285,-0.045
21:55:35.260,-0.26,-0.01
21:55:35.264,-0.275,-0.05
21:55:35.268,-0.26,-0.045
21:55:35.272,-0.25,-0.045
21:55:35.276,-0.25,-0.04
21:55:35.280,-0.22,-0.04
21:55:35.284,-0.24,-0.055
21:55:35.288,-0.25,-0.06
21:55:35.292,-0.235,-0.075
21:55:35.296,-0.23,-0.065
21:55:35.300,-0.235,-0.065
21:55:35.304,-0.22,-0.06
21:55:35.308,-0.235,-0.08
21:55:35.312,-0.24,-0.08
21:55:35.316,-0.23,-0.095
21:55:35.320,-0.225,-0.09
21:55:35.324,-0.24,-0.085
21:55:35.328,-0.245,-0.08
21:55:35.332,-0.235,-0.1
21:55:35.336,-0.215,-0.1
21:55:35.340,-0.15,-0.115
21:55:35.344,-0.075,-0.115
21:55:35.348,0.025,-0.135
21:55:35.352,0.105,-0.15
21:55:35.356,0.19,-0.21
21:55:35.360,0.25,-0.25
21:55:35.364,0.26,-0.31
21:55:35.368,0.305,-0.3
21:55:35.372,0.305,-0.285
21:55:35.376,0.3,-0.385
21:55:35.380,0.345,-0.47
21:55:35.384,0.545,-0.61
21:55:35.388,0.835,-0.82
21:55:35.392,1.1,-1.04
21:55:35.396,1.185,-1.21
21:55:35.400,0.92,-1.28
21:55:35.404,0.46,-1.05
21:55:35.408,0.06,-0.685
21:55:35.412,-0.13,-0.475
21:55:35.416,-0.23,-0.32
21:55:35.420,-0.275,-0.18
21:55:35.424,-0.3,-0.105
21:55:35.428,-0.345,-0.065
21:55:35.432,-0.355,-0.05
21:55:35.436,-0.385,-0.065
21:55:35.440,-0.405,-0.065
21:55:35.444,-0.395,-0.09
21:55:35.448,-0.41,-0.11
21:55:35.452,-0.43,-0.12
21:55:35.456,-0.415,-0.135
21:55:35.460,-0.41,-0.15
21:55:35.464,-0.405,-0.165
21:55:35.468,-0.415,-0.15
21:55:35.472,-0.415,-0.165
21:55:35.476,-0.44,-0.17
21:55:35.480,-0.415,-0.145
21:55:35.484,-0.42,-0.17
21:55:35.488,-0.41,-0.18
21:55:35.492,-0.42,-0.185
21:55:35.496,-0.41,-0.185
21:55:35.500,-0.42,-0.185
21:55:35.504,-0.42,-0.185
21:55:35.508,-0.44,-0.175
21:55:35.512,-0.425,-0.195
21:55:35.516,-0.425,-0.175
21:55:35.520,-0.43,-0.175
21:55:35.524,-0.42,-0.15
21:55:35.528,-0.435,-0.16
21:55:35.532,-0.43,-0.185
21:55:35.536,-0.45,-0.175
21:55:35.540,-0.445,-0.195
21:55:35.544,-0.455,-0.185
21:55:35.548,-0.43,-0.205
21:55:35.552,-0.455,-0.165
21:55:35.556,-0.47,-0.175
21:55:35.560,-0.465,-0.16
21:55:35.564,-0.445,-0.18
21:55:35.568,-0.435,-0.185
21:55:35.572,-0.445,-0.195
21:55:35.576,-0.405,-0.185
21:55:35.580,-0.415,-0.18
21:55:35.584,-0.41,-0.18
21:55:35.588,-0.385,-0.19
21:55:35.592,-0.38,-0.185
21:55:35.596,-0.37,-0.22
21:55:35.600,-0.34,-0.21
21:55:35.604,-0.325,-0.205
21:55:35.608,-0.3,-0.22
21:55:35.612,-0.29,-0.225
21:55:35.616,-0.29,-0.245
21:55:35.620,-0.285,-0.23
21:55:35.624,-0.255,-0.235
21:55:35.628,-0.25,-0.23
21:55:35.632,-0.24,-0.24
21:55:35.636,-0.23,-0.23
21:55:35.640,-0.225,-0.22
21:55:35.644,-0.22,-0.235
21:55:35.648,-0.22,-0.25
21:55:35.652,-0.2,-0.245
21:55:35.656,-0.215,-0.255
21:55:35.660,-0.215,-0.27
21:55:35.664,-0.195,-0.245
21:55:35.668,-0.225,-0.25
21:55:35.672,-0.215,-0.25
21:55:35.676,-0.205,-0.255
21:55:35.680,-0.195,-0.23
21:55:35.684,-0.19,-0.24
21:55:35.688,-0.185,-0.22
21:55:35.692,-0.155,-0.23
21:55:35.696,-0.185,-0.24
21:55:35.700,-0.2,-0.2
21:55:35.704,-0.19,-0.215
21:55:35.708,-0.17,-0.195
21:55:35.712,-0.18,-0.18
21:55:35.716,-0.16,-0.17
21:55:35.720,-0.15,-0.15
21:55:35.724,-0.175,-0.14
21:55:35.728,-0.155,-0.155
21:55:35.732,-0.15,-0.145
21:55:35.736,-0.16,-0.125
21:55:35.740,-0.165,-0.105
21:55:35.744,-0.15,-0.13
21:55:35.748,-0.125,-0.12
21:55:35.752,-0.12,-0.11
21:55:35.756,-0.12,-0.11
21:55:35.760,-0.11,-0.12
21:55:35.764,-0.105,-0.085
21:55:35.768,-0.1,-0.085
21:55:35.772,-0.025,-0.06
21:55:35.776,0.01,-0.05
21:55:35.780,0.05,-0.03
21:55:35.784,0.105,-0.04
21:55:35.788,0.135,-0.05
21:55:35.792,0.15,-0.045
21:55:35.796,0.15,-0.01
21:55:35.800,0.125,-0.025
21:55:35.804,0.105,-0.03
21:55:35.808,0.04,-0.07
21:55:35.812,-0.005,-0.075
21:55:35.816,-0.055,-0.05
21:55:35.820,-0.105,-0.07
21:55:35.824,-0.14,-0.075
21:55:35.828,-0.19,-0.06
21:55:35.832,-0.23,-0.01
21:55:35.836,-0.23,-0.01
21:55:35.840,-0.235,-0.02
21:55:35.844,-0.22,0.0
21:55:35.848,-0.245,-0.005
21:55:35.852,-0.22,-0.01
21:55:35.856,-0.225,-0.035
21:55:35.860,-0.225,-0.045
21:55:35.864,-0.22,-0.035
21:55:35.868,-0.215,-0.035
21:55:35.872,-0.2,-0.055
21:55:35.876,-0.235,-0.055
21:55:35.880,-0.23,-0.035
21:55:35.884,-0.215,-0.05
21:55:35.888,-0.19,-0.065
21:55:35.892,-0.205,-0.035
21:55:35.896,-0.195,-0.045
21:55:35.900,-0.205,-0.06
21:55:35.904,-0.195,-0.05
21:55:35.908,-0.2,-0.05
21:55:35.912,-0.19,-0.06
21:55:35.916,-0.185,-0.05
21:55:35.920,-0.19,-0.06
21:55:35.924,-0.19,-0.065
21:55:35.928,-0.19,-0.04
21:55:35.932,-0.17,-0.045
21:55:35.936,-0.145,-0.055
21:55:35.940,-0.135,-0.055
21:55:35.944,-0.105,-0.045
21:55:35.948,-0.045,-0.045
21:55:35.952,0.04,-0.045
21:55:35.956,0.11,-0.045
21:55:35.960,0.18,-0.07
21:55:35.964,0.24,-0.115
21:55:35.968,0.295,-0.16
21:55:35.972,0.335,-0.205
21:55:35.976,0.345,-0.215
21:55:35.980,0.35,-0.265
21:55:35.984,0.355,-0.365
21:55:35.988,0.445,-0.52
21:55:35.992,0.68,-0.705
21:55:35.996,0.99,-0.945
21:55:36.000,1.21,-1.135
21:55:36.004,1.225,-1.29
21:55:36.008,0.895,-1.24
21:55:36.012,0.41,-0.945
21:55:36.016,0.01,-0.56
21:55:36.020,-0.165,-0.31
21:55:36.024,-0.235,-0.175
21:55:36.028,-0.26,-0.045
21:55:36.032,-0.26,0.01
21:55:36.036,-0.255,0.05
21:55:36.040,-0.265,0.06
21:55:36.044,-0.275,0.075
21:55:36.048,-0.32,0.09
21:55:36.052,-0.3,0.06
21:55:36.056,-0.295,0.065
21:55:36.060,-0.3,0.075
21:55:36.064,-0.32,0.065
21:55:36.068,-0.315,0.045
21:55:36.072,-0.31,0.04
21:55:36.076,-0.305,0.04
21:55:36.080,-0.32,0.05
21:55:36.084,-0.32,0.04
21:55:36.088,-0.315,0.035
21:55:36.092,-0.315,0.05
21:55:36.096,-0.345,0.04
21:55:36.100,-0.35,0.035
21:55:36.104,-0.34,0.045
21:55:36.108,-0.37,0.03
21:55:36.112,-0.34,0.03
21:55:36.116,-0.34,0.02
21:55:36.120,-0.345,0.01
21:55:36.124,-0.335,0.015
21:55:36.128,-0.35,0.015
21:55:36.132,-0.345,0.01
21:55:36.136,-0.37,0.0
21:55:36.140,-0.35,0.01
21:55:36.144,-0.37,0.035
21:55:36.148,-0.36,0.03
21:55:36.152,-0.35,0.015
21:55:36.156,-0.33,0.03
21:55:36.160,-0.32,0.025
21:55:36.164,-0.32,0.04
21:55:36.168,-0.31,0.035
21:55:36.172,-0.32,0.045
21:55:36.176,-0.315,0.03
21:55:36.180,-0.305,0.055
21:55:36.184,-0.3,0.05
21:55:36.188,-0.315,0.035
21:55:36.192,-0.3,0.035
21:55:36.196,-0.31,0.02
21:55:36.200,-0.29,0.01
21:55:36.204,-0.28,0.015
21:55:36.208,-0.285,0.02
21:55:36.212,-0.27,-0.015
21:55:36.216,-0.265,0.0
21:55:36.220,-0.24,-0.025
21:55:36.224,-0.24,-0.025
21:55:36.228,-0.24,-0.035
21:55:36.232,-0.215,-0.04
21:55:36.236,-0.205,-0.055
21:55:36.240,-0.215,-0.065
21:55:36.244,-0.2,-0.05
21:55:36.248,-0.165,-0.06
21:55:36.252,-0.18,-0.08
21:55:36.256,-0.18,-0.1
21:55:36.260,-0.145,-0.07
21:55:36.264,-0.12,-0.08
21:55:36.268,-0.135,-0.1
21:55:36.272,-0.145,-0.1
21:55:36.276,-0.145,-0.1
21:55:36.280,-0.105,-0.1
21:55:36.284,-0.115,-0.075
21:55:36.288,-0.125,-0.055
21:55:36.292,-0.13,-0.07
21:55:36.296,-0.115,-0.06
21:55:36.300,-0.125,-0.065
21:55:36.304,-0.14,-0.065
21:55:36.308,-0.14,-0.055
21:55:36.312,-0.14,-0.045
21:55:36.316,-0.155,-0.085
21:55:36.320,-0.15,-0.075
21:55:36.324,-0.175,-0.05
21:55:36.328,-0.16,-0.06
21:55:36.332,-0.14,-0.09
21:55:36.336,-0.13,-0.065
21:55:36.340,-0.125,-0.07
21:55:36.344,-0.1,-0.055
21:55:36.348,-0.06,-0.06
21:55:36.352,-0.08,-0.07
21:55:36.356,-0.1,-0.03
21:55:36.360,-0.07,-0.05
21:55:36.364,-0.015,-0.03
21:55:36.368,0.015,-0.03
21:55:36.372,0.055,-0.01
21:55:36.376,0.075,0.01
21:55:36.380,0.105,0.02
21:55:36.384,0.145,-0.01
21:55:36.388,0.145,0.005
21:55:36.392,0.15,0.02
21:55:36.396,0.155,0.01
21:55:36.400,0.145,-0.01
21:55:36.404,0.085,-0.035
21:55:36.408,0.035,-0.06
21:55:36.412,-0.015,-0.085
21:55:36.416,-0.06,-0.08
21:55:36.420,-0.13,-0.09
21:55:36.424,-0.185,-0.075
21:55:36.428,-0.215,-0.07
21:55:36.432,-0.235,-0.055
21:55:36.436,-0.25,-0.035
21:55:36.440,-0.265,-0.04
21:55:36.444,-0.27,-0.06
21:55:36.448,-0.265,-0.06
21:55:36.452,-0.24,-0.065
21:55:36.456,-0.24,-0.065
21:55:36.460,-0.24,-0.065
21:55:36.464,-0.23,-0.075
21:55:36.468,-0.235,-0.075
21:55:36.472,-0.22,-0.08
21:55:36.476,-0.215,-0.07
21:55:36.480,-0.205,-0.085
21:55:36.484,-0.19,-0.07
21:55:36.488,-0.21,-0.07
21:55:36.492,-0.21,-0.07
21:55:36.496,-0.19,-0.07
21:55:36.500,-0.19,-0.085
21:55:36.504,-0.19,-0.08
21:55:36.508,-0.195,-0.07
21:55:36.512,-0.19,-0.085
21:55:36.516,-0.19,-0.065
21:55:36.520,-0.195,-0.065
21:55:36.524,-0.2,-0.085
21:55:36.528,-0.2,-0.08
21:55:36.532,-0.215,-0.095
21:55:36.536,-0.19,-0.085
21:55:36.540,-0.185,-0.085
21:55:36.544,-0.12,-0.095
21:55:36.548,-0.06,-0.1
21:55:36.552,0.02,-0.12
21:55:36.556,0.08,-0.115
21:55:36.560,0.16,-0.13
21:55:36.564,0.19,-0.18
21:55:36.568,0.225,-0.22
21:55:36.572,0.245,-0.265
21:55:36.576,0.265,-0.28
21:55:36.580,0.245,-0.35
21:55:36.584,0.315,-0.485
21:55:36.588,0.485,-0.63
21:55:36.592,0.77,-0.87
21:55:36.596,1.065,-1.105
21:55:36.600,1.175,-1.305
21:55:36.604,1.015,-1.37
21:55:36.608,0.575,-1.18
21:55:36.612,0.11,-0.8
21:55:36.616,-0.155,-0.45
21:55:36.620,-0.24,-0.25
21:55:36.624,-0.29,-0.13
21:55:36.628,-0.305,-0.025
21:55:36.632,-0.305,0.02
21:55:36.636,-0.33,0.04
21:55:36.640,-0.345,0.045
21:55:36.644,-0.36,0.04
21:55:36.648,-0.375,0.04
21:55:36.652,-0.375,0.025
21:55:36.656,-0.35,0.02
21:55:36.660,-0.365,0.015
21:55:36.664,-0.365,-0.005
21:55:36.668,-0.35,0.015
21:55:36.672,-0.35,-0.01
21:55:36.676,-0.35,0.0
21:55:36.680,-0.36,-0.02
21:55:36.684,-0.35,-0.005
21:55:36.688,-0.375,0.005
21:55:36.692,-0.355,-0.005
21:55:36.696,-0.37,0.0
21:55:36.700,-0.34,0.02
21:55:36.704,-0.335,0.03
21:55:36.708,-0.335,0.02
21:55:36.712,-0.35,0.045
21:55:36.716,-0.35,0.045
21:55:36.720,-0.36,0.035
21:55:36.724,-0.365,0.03
21:55:36.728,-0.365,0.02
21:55:36.732,-0.375,0.045
21:55:36.736,-0.36,0.045
21:55:36.740,-0.37,0.045
21:55:36.744,-0.37,0.02
21:55:36.748,-0.39,0.045
21:55:36.752,-0.39,0.07
21:55:36.756,-0.37,0.035
21:55:36.760,-0.365,0.03
21:55:36.764,-0.36,0.035
21:55:36.768,-0.365,0.05
21:55:36.772,-0.36,0.04
21:55:36.776,-0.335,0.04
21:55:36.780,-0.35,0.025
21:55:36.784,-0.335,0.01
21:55:36.788,-0.32,0.03
21:55:36.792,-0.3,0.03
21:55:36.796,-0.31,0.04
21:55:36.800,-0.285,0.03
21:55:36.804,-0.27,0.01
21:55:36.808,-0.245,0.0
21:55:36.812,-0.245,0.005
21:55:36.816,-0.24,-0.005
21:55:36.820,-0.225,-0.01
21:55:36.824,-0.19,-0.005
21:55:36.828,-0.19,0.01
21:55:36.832,-0.19,0.0
21:55:36.836,-0.185,-0.005
21:55:36.840,-0.175,-0.02
21:55:36.844,-0.155,-0.025
21:55:36.848,-0.145,-0.005
21:55:36.852,-0.15,-0.02
21:55:36.856,-0.15,-0.045
21:55:36.860,-0.15,-0.045
21:55:36.864,-0.145,-0.03
21:55:36.868,-0.145,-0.03
21:55:36.872,-0.125,-0.04
21:55:36.876,-0.125,-0.05
21:55:36.880,-0.125,-0.04
21:55:36.884,-0.13,-0.06
21:55:36.888,-0.14,-0.04
21:55:36.892,-0.15,-0.04
21:55:36.896,-0.155,-0.04
21:55:36.900,-0.155,-0.04
21:55:36.904,-0.14,-0.025
21:55:36.908,-0.125,-0.03
21:55:36.912,-0.13,-0.03
21:55:36.916,-0.125,-0.015
21:55:36.920,-0.12,-0.03
21:55:36.924,-0.095,-0.025
21:55:36.928,-0.085,-0.01
21:55:36.932,-0.08,-0.01
21:55:36.936,-0.07,0.015
21:55:36.940,-0.08,0.01
21:55:36.944,-0.09,0.025
21:55:36.948,-0.05,0.02
21:55:36.952,-0.015,0.025
21:55:36.956,0.03,0.045
21:55:36.960,0.045,0.055
21:55:36.964,0.04,0.06
21:55:36.968,0.06,0.045
21:55:36.972,0.09,0.06
21:55:36.976,0.115,0.07
21:55:36.980,0.1,0.065
21:55:36.984,0.115,0.05
21:55:36.988,0.075,0.03
21:55:36.992,0.03,-0.005
21:55:36.996,-0.005,-0.015
21:55:37.000,-0.075,-0.03
21:55:37.004,-0.11,-0.06
21:55:37.008,-0.2,-0.04
21:55:37.012,-0.26,-0.015
21:55:37.016,-0.275,-0.005
21:55:37.020,-0.27,-0.01
21:55:37.024,-0.28,0.005
21:55:37.028,-0.28,0.0
21:55:37.032,-0.28,0.005
21:55:37.036,-0.255,-0.025
21:55:37.040,-0.25,-0.02
21:55:37.044,-0.265,-0.03
21:55:37.048,-0.25,-0.03
21:55:37.052,-0.23,-0.045
21:55:37.056,-0.235,-0.05
21:55:37.060,-0.255,-0.035
21:55:37.064,-0.24,-0.035
21:55:37.068,-0.25,-0.055
21:55:37.072,-0.25,-0.045
21:55:37.076,-0.275,-0.04
21:55:37.080,-0.26,-0.08
21:55:37.084,-0.27,-0.08
21:55:37.088,-0.265,-0.06
21:55:37.092,-0.265,-0.085
21:55:37.096,-0.265,-0.095
21:55:37.100,-0.275,-0.1
21:55:37.104,-0.26,-0.1
21:55:37.108,-0.27,-0.095
21:55:37.112,-0.265,-0.105
21:55:37.116,-0.25,-0.1
21:55:37.120,-0.255,-0.09
21:55:37.124,-0.23,-0.09
21:55:37.128,-0.205,-0.09
21:55:37.132,-0.13,-0.095
21:55:37.136,-0.06,-0.07
21:55:37.140,0.0,-0.095
21:55:37.144,0.095,-0.11
21:55:37.148,0.155,-0.15
21:55:37.152,0.2,-0.195
21:55:37.156,0.235,-0.21
21:55:37.160,0.265,-0.195
21:55:37.164,0.265,-0.235
21:55:37.168,0.26,-0.34
21:55:37.172,0.305,-0.43
21:55:37.176,0.485,-0.585
21:55:37.180,0.765,-0.825
21:55:37.184,1.04,-1.05
21:55:37.188,1.09,-1.23
21:55:37.192,0.845,-1.255
21:55:37.196,0.39,-1.02
21:55:37.200,0.0,-0.665
21:55:37.204,-0.23,-0.41
21:55:37.208,-0.285,-0.255
21:55:37.212,-0.32,-0.16
21:55:37.216,-0.345,-0.08
21:55:37.220,-0.355,-0.03
21:55:37.224,-0.385,-0.015
21:55:37.228,-0.37,-0.025
21:55:37.232,-0.375,-0.055
21:55:37.236,-0.41,-0.055
21:55:37.240,-0.435,-0.07
21:55:37.244,-0.44,-0.085
21:55:37.248,-0.42,-0.105
21:55:37.252,-0.415,-0.1
21:55:37.256,-0.415,-0.09
21:55:37.260,-0.4,-0.115
21:55:37.264,-0.41,-0.1
21:55:37.268,-0.42,-0.105
21:55:37.272,-0.43,-0.11
21:55:37.276,-0.42,-0.1
21:55:37.280,-0.415,-0.125
21:55:37.284,-0.43,-0.135
21:55:37.288,-0.43,-0.11
21:55:37.292,-0.45,-0.15
21:55:37.296,-0.455,-0.145
21:55:37.300,-0.48,-0.15
21:55:37.304,-0.48,-0.135
21:55:37.308,-0.49,-0.145
21:55:37.312,-0.465,-0.155
21:55:37.316,-0.49,-0.15
21:55:37.320,-0.48,-0.16
21:55:37.324,-0.475,-0.18
21:55:37.328,-0.455,-0.165
21:55:37.332,-0.465,-0.18
21:55:37.336,-0.49,-0.175
21:55:37.340,-0.48,-0.155
21:55:37.344,-0.48,-0.19
21:55:37.348,-0.485,-0.175
21:55:37.352,-0.475,-0.16
21:55:37.356,-0.44,-0.19
21:55:37.360,-0.45,-0.195
21:55:37.364,-0.435,-0.175
21:55:37.368,-0.425,-0.19
21:55:37.372,-0.43,-0.2
21:55:37.376,-0.44,-0.22
21:55:37.380,-0.44,-0.22
21:55:37.384,-0.425,-0.185
21:55:37.388,-0.395,-0.195
21:55:37.392,-0.39,-0.235
21:55:37.396,-0.375,-0.25
21:55:37.400,-0.375,-0.25
21:55:37.404,-0.36,-0.26
21:55:37.408,-0.35,-0.27
21:55:37.412,-0.35,-0.255
21:55:37.416,-0.35,-0.27
21:55:37.420,-0.365,-0.275
21:55:37.424,-0.355,-0.31
21:55:37.428,-0.335,-0.335
21:55:37.432,-0.305,-0.35
21:55:37.436,-0.33,-0.345
21:55:37.440,-0.29,-0.33
21:55:37.444,-0.305,-0.345
21:55:37.448,-0.28,-0.34
21:55:37.452,-0.29,-0.36
21:55:37.456,-0.295,-0.36
21:55:37.460,-0.305,-0.355
21:55:37.464,-0.285,-0.35
21:55:37.468,-0.265,-0.35
21:55:37.472,-0.255,-0.33
21:55:37.476,-0.255,-0.34
21:55:37.480,-0.255,-0.36
21:55:37.484,-0.24,-0.34
21:55:37.488,-0.27,-0.35
21:55:37.492,-0.27,-0.36
21:55:37.496,-0.25,-0.34
21:55:37.500,-0.255,-0.34
21:55:37.504,-0.255,-0.34
21:55:37.508,-0.23,-0.36
21:55:37.512,-0.245,-0.35
21:55:37.516,-0.255,-0.345
21:55:37.520,-0.25,-0.345
21:55:37.524,-0.275,-0.375
21:55:37.528,-0.255,-0.365
21:55:37.532,-0.25,-0.375
21:55:37.536,-0.255,-0.35
21:55:37.540,-0.235,-0.37
21:55:37.544,-0.225,-0.38
21:55:37.548,-0.22,-0.385
21:55:37.552,-0.23,-0.355
21:55:37.556,-0.18,-0.35
21:55:37.560,-0.14,-0.36
21:55:37.564,-0.105,-0.33
21:55:37.568,-0.045,-0.315
21:55:37.572,-0.01,-0.315
21:55:37.576,0.04,-0.29
21:55:37.580,0.055,-0.29
21:55:37.584,0.09,-0.305
21:55:37.588,0.09,-0.295
21:55:37.592,0.105,-0.275
21:55:37.596,0.045,-0.32
21:55:37.600,0.0,-0.35
21:55:37.604,-0.04,-0.37
21:55:37.608,-0.095,-0.37
21:55:37.612,-0.155,-0.39
21:55:37.616,-0.235,-0.36
21:55:37.620,-0.29,-0.35
21:55:37.624,-0.315,-0.32
21:55:37.628,-0.345,-0.33
21:55:37.632,-0.35,-0.34
21:55:37.636,-0.35,-0.35
21:55:37.640,-0.32,-0.34
21:55:37.644,-0.34,-0.355
21:55:37.648,-0.345,-0.345
21:55:37.652,-0.33,-0.34
21:55:37.656,-0.32,-0.375
21:55:37.660,-0.32,-0.345
21:55:37.664,-0.315,-0.34
21:55:37.668,-0.305,-0.345
21:55:37.672,-0.275,-0.34
21:55:37.676,-0.31,-0.335
21:55:37.680,-0.29,-0.32
21:55:37.684,-0.28,-0.32
21:55:37.688,-0.28,-0.32
21:55:37.692,-0.26,-0.3
21:55:37.696,-0.265,-0.31
21:55:37.700,-0.28,-0.305
21:55:37.704,-0.255,-0.31
21:55:37.708,-0.275,-0.28
21:55:37.712,-0.26,-0.275
21:55:37.716,-0.26,-0.27
21:55:37.720,-0.255,-0.27
21:55:37.724,-0.245,-0.28
21:55:37.728,-0.25,-0.275
21:55:37.732,-0.235,-0.27
21:55:37.736,-0.225,-0.275
21:55:37.740,-0.135,-0.26
21:55:37.744,-0.04,-0.26
21:55:37.748,0.05,-0.265
21:55:37.752,0.135,-0.295
21:55:37.756,0.195,-0.36
21:55:37.760,0.24,-0.4
21:55:37.764,0.285,-0.39
21:55:37.768,0.315,-0.39
21:55:37.772,0.31,-0.46
21:55:37.776,0.325,-0.52
21:55:37.780,0.465,-0.68
21:55:37.784,0.745,-0.86
21:55:37.788,1.05,-1.1
21:55:37.792,1.19,-1.27
21:55:37.796,1.035,-1.325
21:55:37.800,0.6,-1.17
21:55:37.804,0.14,-0.835
21:55:37.808,-0.09,-0.495
21:55:37.812,-0.23,-0.345
21:55:37.816,-0.255,-0.225
21:55:37.820,-0.295,-0.155
21:55:37.824,-0.31,-0.07
21:55:37.828,-0.33,-0.07
21:55:37.832,-0.36,-0.045
21:55:37.836,-0.39,-0.07
21:55:37.840,-0.39,-0.08
21:55:37.844,-0.405,-0.075
21:55:37.848,-0.4,-0.08
21:55:37.852,-0.4,-0.09
21:55:37.856,-0.405,-0.07
21:55:37.860,-0.41,-0.095
21:55:37.864,-0.42,-0.1
21:55:37.868,-0.4,-0.08
21:55:37.872,-0.405,-0.08
21:55:37.876,-0.4,-0.105
21:55:37.880,-0.42,-0.095
21:55:37.884,-0.415,-0.085
21:55:37.888,-0.415,-0.09
21:55:37.892,-0.41,-0.095
21:55:37.896,-0.41,-0.115
21:55:37.900,-0.415,-0.095
21:55:37.904,-0.4,-0.08
21:55:37.908,-0.41,-0.09
21:55:37.912,-0.41,-0.08
21:55:37.916,-0.405,-0.095
21:55:37.920,-0.42,-0.07
21:55:37.924,-0.395,-0.06
21:55:37.928,-0.42,-0.06
21:55:37.932,-0.425,-0.07
21:55:37.936,-0.435,-0.075
21:55:37.940,-0.435,-0.055
21:55:37.944,-0.435,-0.065
21:55:37.948,-0.435,-0.065
21:55:37.952,-0.445,-0.06
21:55:37.956,-0.45,-0.05
21:55:37.960,-0.44,-0.06
21:55:37.964,-0.43,-0.08
21:55:37.968,-0.42,-0.075
21:55:37.972,-0.41,-0.075
21:55:37.976,-0.405,-0.065
21:55:37.980,-0.385,-0.105
21:55:37.984,-0.37,-0.095
21:55:37.988,-0.365,-0.075
21:55:37.992,-0.355,-0.085
21:55:37.996,-0.37,-0.08
21:55:38.000,-0.33,-0.11
21:55:38.004,-0.32,-0.11
21:55:38.008,-0.32,-0.095
21:55:38.012,-0.28,-0.12
21:55:38.016,-0.27,-0.125
21:55:38.020,-0.25,-0.125
21:55:38.024,-0.26,-0.12
21:55:38.028,-0.25,-0.12
21:55:38.032,-0.24,-0.135
21:55:38.036,-0.245,-0.155
21:55:38.040,-0.235,-0.14
21:55:38.044,-0.23,-0.155
21:55:38.048,-0.23,-0.17
21:55:38.052,-0.22,-0.185
21:55:38.056,-0.23,-0.175
21:55:38.060,-0.22,-0.19
21:55:38.064,-0.235,-0.19
21:55:38.068,-0.215,-0.19
21:55:38.072,-0.21,-0.185
21:55:38.076,-0.21,-0.175
21:55:38.080,-0.185,-0.195
21:55:38.084,-0.185,-0.185
21:55:38.088,-0.2,-0.18
21:55:38.092,-0.205,-0.175
21:55:38.096,-0.185,-0.19
21:55:38.100,-0.185,-0.16
21:55:38.104,-0.21,-0.17
21:55:38.108,-0.2,-0.175
21:55:38.112,-0.175,-0.17
21:55:38.116,-0.165,-0.15
21:55:38.120,-0.16,-0.155
21:55:38.124,-0.18,-0.14
21:55:38.128,-0.175,-0.15
21:55:38.132,-0.175,-0.165
21:55:38.136,-0.16,-0.15
21:55:38.140,-0.125,-0.15
21:55:38.144,-0.135,-0.15
21:55:38.148,-0.12,-0.135
21:55:38.152,-0.12,-0.12
21:55:38.156,-0.075,-0.14
21:55:38.160,-0.04,-0.105
21:55:38.164,0.005,-0.105
21:55:38.168,0.0,-0.095
21:55:38.172,0.02,-0.09
21:55:38.176,0.06,-0.09
21:55:38.180,0.08,-0.085
21:55:38.184,0.085,-0.09
21:55:38.188,0.085,-0.115
21:55:38.192,0.05,-0.15
21:55:38.196,-0.01,-0.17
21:55:38.200,-0.055,-0.16
21:55:38.204,-0.11,-0.155
21:55:38.208,-0.15,-0.195
21:55:38.212,-0.21,-0.185
21:55:38.216,-0.28,-0.16
21:55:38.220,-0.3,-0.15
21:55:38.224,-0.295,-0.14
21:55:38.228,-0.305,-0.135
21:55:38.232,-0.315,-0.12
21:55:38.236,-0.285,-0.14
21:55:38.240,-0.265,-0.175
21:55:38.244,-0.285,-0.14
21:55:38.248,-0.275,-0.155
21:55:38.252,-0.295,-0.16
21:55:38.256,-0.28,-0.14
21:55:38.260,-0.265,-0.17
21:55:38.264,-0.255,-0.155
21:55:38.268,-0.275,-0.16
21:55:38.272,-0.295,-0.165
21:55:38.276,-0.305,-0.16
21:55:38.280,-0.285,-0.145
21:55:38.284,-0.28,-0.16
21:55:38.288,-0.275,-0.185
21:55:38.292,-0.295,-0.185
21:55:38.296,-0.28,-0.17
21:55:38.300,-0.285,-0.17
21:55:38.304,-0.27,-0.18
21:55:38.308,-0.265,-0.195
21:55:38.312,-0.265,-0.22
21:55:38.316,-0.26,-0.195
21:55:38.320,-0.265,-0.2
21:55:38.324,-0.24,-0.185
21:55:38.328,-0.215,-0.195
21:55:38.332,-0.18,-0.195
21:55:38.336,-0.12,-0.195
21:55:38.340,-0.04,-0.19
21:55:38.344,0.04,-0.21
21:55:38.348,0.115,-0.205
21:55:38.352,0.165,-0.27
21:55:38.356,0.17,-0.34
21:55:38.360,0.19,-0.355
21:55:38.364,0.24,-0.36
21:55:38.368,0.225,-0.425
21:55:38.372,0.235,-0.56
21:55:38.376,0.36,-0.71
21:55:38.380,0.625,-0.9
21:55:38.384,0.915,-1.13
21:55:38.388,1.1,-1.365
21:55:38.392,1.03,-1.46
21:55:38.396,0.655,-1.355
21:55:38.400,0.18,-0.985
21:55:38.404,-0.155,-0.605
21:55:38.408,-0.3,-0.4
21:55:38.412,-0.36,-0.24
21:55:38.416,-0.385,-0.17
21:55:38.420,-0.38,-0.1
21:55:38.424,-0.375,-0.065
21:55:38.428,-0.42,-0.065
21:55:38.432,-0.39,-0.06
21:55:38.436,-0.41,-0.06
21:55:38.440,-0.415,-0.095
21:55:38.444,-0.4,-0.085
21:55:38.448,-0.4,-0.11
21:55:38.452,-0.395,-0.08
21:55:38.456,-0.39,-0.115
21:55:38.460,-0.385,-0.09
21:55:38.464,-0.39,-0.095
21:55:38.468,-0.4,-0.1
21:55:38.472,-0.39,-0.09
21:55:38.476,-0.405,-0.08
21:55:38.480,-0.405,-0.085
21:55:38.484,-0.405,-0.1
21:55:38.488,-0.41,-0.085
21:55:38.492,-0.405,-0.095
21:55:38.496,-0.43,-0.095
21:55:38.500,-0.455,-0.105
21:55:38.504,-0.45,-0.125
21:55:38.508,-0.445,-0.09
21:55:38.512,-0.46,-0.11
21:55:38.516,-0.44,-0.105
21:55:38.520,-0.45,-0.12
21:55:38.524,-0.46,-0.1
21:55:38.528,-0.445,-0.11
21:55:38.532,-0.455,-0.115
21:55:38.536,-0.45,-0.115
21:55:38.540,-0.46,-0.12
21:55:38.544,-0.45,-0.12
21:55:38.548,-0.435,-0.11
21:55:38.552,-0.415,-0.11
21:55:38.556,-0.385,-0.08
21:55:38.560,-0.41,-0.1
21:55:38.564,-0.39,-0.09
21:55:38.568,-0.39,-0.105
21:55:38.572,-0.38,-0.115
21:55:38.576,-0.38,-0.105
21:55:38.580,-0.37,-0.105
21:55:38.584,-0.36,-0.11
21:55:38.588,-0.35,-0.12
21:55:38.592,-0.365,-0.125
21:55:38.596,-0.335,-0.135
21:55:38.600,-0.32,-0.155
21:55:38.604,-0.305,-0.15
21:55:38.608,-0.335,-0.165
21:55:38.612,-0.32,-0.175
21:55:38.616,-0.3,-0.175
21:55:38.620,-0.28,-0.185
21:55:38.624,-0.295,-0.19
21:55:38.628,-0.28,-0.2
21:55:38.632,-0.26,-0.21
21:55:38.636,-0.265,-0.22
21:55:38.640,-0.26,-0.205
21:55:38.644,-0.25,-0.21
21:55:38.648,-0.245,-0.195
21:55:38.652,-0.24,-0.22
21:55:38.656,-0.24,-0.21
21:55:38.660,-0.21,-0.2
21:55:38.664,-0.215,-0.21
21:55:38.668,-0.2,-0.205
21:55:38.672,-0.21,-0.21
21:55:38.676,-0.185,-0.175
21:55:38.680,-0.165,-0.18
21:55:38.684,-0.185,-0.2
21:55:38.688,-0.18,-0.175
21:55:38.692,-0.185,-0.17
21:55:38.696,-0.17,-0.19
21:55:38.700,-0.17,-0.18
21:55:38.704,-0.18,-0.18
21:55:38.708,-0.2,-0.18
21:55:38.712,-0.195,-0.205
21:55:38.716,-0.2,-0.17
21:55:38.720,-0.22,-0.175
21:55:38.724,-0.195,-0.18
21:55:38.728,-0.165,-0.18
21:55:38.732,-0.165,-0.16
21:55:38.736,-0.165,-0.18
21:55:38.740,-0.145,-0.17
21:55:38.744,-0.11,-0.21
21:55:38.748,-0.085,-0.17
21:55:38.752,-0.04,-0.16
21:55:38.756,-0.01,-0.13
21:55:38.760,0.015,-0.125
21:55:38.764,0.055,-0.11
21:55:38.768,0.09,-0.13
21:55:38.772,0.1,-0.105
21:55:38.776,0.115,-0.11
21:55:38.780,0.095,-0.125
21:55:38.784,0.06,-0.15
21:55:38.788,0.025,-0.17
21:55:38.792,-0.015,-0.2
21:55:38.796,-0.075,-0.175
21:55:38.800,-0.135,-0.185
21:55:38.804,-0.2,-0.18
21:55:38.808,-0.24,-0.175
21:55:38.812,-0.285,-0.155
21:55:38.816,-0.305,-0.145
21:55:38.820,-0.305,-0.16
21:55:38.824,-0.3,-0.16
21:55:38.828,-0.315,-0.16
21:55:38.832,-0.31,-0.16
21:55:38.836,-0.29,-0.16
21:55:38.840,-0.275,-0.185
21:55:38.844,-0.275,-0.195
21:55:38.848,-0.275,-0.185
21:55:38.852,-0.275,-0.205
21:55:38.856,-0.275,-0.17
21:55:38.860,-0.26,-0.195
21:55:38.864,-0.265,-0.215
21:55:38.868,-0.26,-0.21
21:55:38.872,-0.275,-0.18
21:55:38.876,-0.245,-0.18
21:55:38.880,-0.24,-0.19
21:55:38.884,-0.235,-0.17
21:55:38.888,-0.24,-0.19
21:55:38.892,-0.23,-0.18
21:55:38.896,-0.24,-0.19
21:55:38.900,-0.245,-0.19
21:55:38.904,-0.235,-0.19
21:55:38.908,-0.215,-0.19
21:55:38.912,-0.23,-0.205
21:55:38.916,-0.23,-0.185
21:55:38.920,-0.2,-0.195
21:55:38.924,-0.17,-0.195
21:55:38.928,-0.105,-0.21
21:55:38.932,-0.04,-0.195
21:55:38.936,0.045,-0.22
21:55:38.940,0.115,-0.26
21:55:38.944,0.145,-0.33
21:55:38.948,0.19,-0.36
21:55:38.952,0.21,-0.395
21:55:38.956,0.23,-0.41
21:55:38.960,0.22,-0.475
21:55:38.964,0.25,-0.555
21:55:38.968,0.395,-0.735
21:55:38.972,0.68,-0.96
21:55:38.976,0.995,-1.175
21:55:38.980,1.16,-1.36
21:55:38.984,1.06,-1.44
21:55:38.988,0.68,-1.29
21:55:38.992,0.16,-0.92
21:55:38.996,-0.125,-0.58
21:55:39.000,-0.275,-0.365
21:55:39.004,-0.34,-0.22
21:55:39.008,-0.315,-0.17
21:55:39.012,-0.335,-0.09
21:55:39.016,-0.36,-0.065
21:55:39.020,-0.375,-0.06
21:55:39.024,-0.375,-0.065
21:55:39.028,-0.39,-0.1
21:55:39.032,-0.39,-0.09
21:55:39.036,-0.385,-0.09
21:55:39.040,-0.405,-0.11
21:55:39.044,-0.38,-0.115
21:55:39.048,-0.405,-0.095
21:55:39.052,-0.42,-0.105
21:55:39.056,-0.4,-0.095
21:55:39.060,-0.4,-0.095
21:55:39.064,-0.415,-0.085
21:55:39.068,-0.435,-0.105
21:55:39.072,-0.43,-0.1
21:55:39.076,-0.43,-0.1
21:55:39.080,-0.44,-0.105
21:55:39.084,-0.435,-0.115
21:55:39.088,-0.415,-0.095
21:55:39.092,-0.44,-0.1
21:55:39.096,-0.455,-0.105
21:55:39.100,-0.45,-0.09
21:55:39.104,-0.41,-0.11
21:55:39.108,-0.405,-0.115
21:55:39.112,-0.42,-0.11
21:55:39.116,-0.425,-0.095
21:55:39.120,-0.43,-0.09
21:55:39.124,-0.43,-0.085
21:55:39.128,-0.445,-0.07
21:55:39.132,-0.43,-0.05
21:55:39.136,-0.43,-0.065
21:55:39.140,-0.425,-0.06
21:55:39.144,-0.45,-0.055
21:55:39.148,-0.43,-0.08
21:55:39.152,-0.43,-0.09
21:55:39.156,-0.44,-0.08
21:55:39.160,-0.44,-0.08
21:55:39.164,-0.425,-0.105
21:55:39.168,-0.425,-0.095
21:55:39.172,-0.415,-0.105
21:55:39.176,-0.39,-0.115
21:55:39.180,-0.37,-0.11
21:55:39.184,-0.385,-0.125
21:55:39.188,-0.375,-0.155
21:55:39.192,-0.38,-0.16
21:55:39.196,-0.375,-0.155
21:55:39.200,-0.355,-0.17
21:55:39.204,-0.335,-0.16
21:55:39.208,-0.325,-0.17
21:55:39.212,-0.32,-0.185
21:55:39.216,-0.3,-0.22
21:55:39.220,-0.285,-0.2
21:55:39.224,-0.28,-0.22
21:55:39.228,-0.28,-0.215
21:55:39.232,-0.27,-0.215
21:55:39.236,-0.27,-0.225
21:55:39.240,-0.275,-0.22
21:55:39.244,-0.29,-0.21
21:55:39.248,-0.27,-0.22
21:55:39.252,-0.245,-0.21
21:55:39.256,-0.255,-0.235
21:55:39.260,-0.275,-0.24
21:55:39.264,-0.265,-0.24
21:55:39.268,-0.24,-0.26
21:55:39.272,-0.25,-0.24
21:55:39.276,-0.26,-0.245
21:55:39.280,-0.275,-0.24
21:55:39.284,-0.27,-0.23
21:55:39.288,-0.26,-0.23
21:55:39.292,-0.26,-0.205
21:55:39.296,-0.24,-0.225
21:55:39.300,-0.245,-0.215
21:55:39.304,-0.265,-0.22
21:55:39.308,-0.285,-0.205
21:55:39.312,-0.26,-0.205
21:55:39.316,-0.24,-0.21
21:55:39.320,-0.245,-0.225
21:55:39.324,-0.205,-0.215
21:55:39.328,-0.2,-0.225
21:55:39.332,-0.21,-0.23
21:55:39.336,-0.21,-0.23
21:55:39.340,-0.18,-0.22
21:55:39.344,-0.13,-0.195
21:55:39.348,-0.08,-0.18
21:55:39.352,-0.07,-0.17
21:55:39.356,-0.005,-0.16
21:55:39.360,0.03,-0.17
21:55:39.364,0.04,-0.19
21:55:39.368,0.035,-0.215
21:55:39.372,0.03,-0.195
21:55:39.376,0.01,-0.22
21:55:39.380,-0.04,-0.255
21:55:39.384,-0.1,-0.29
21:55:39.388,-0.16,-0.31
21:55:39.392,-0.215,-0.315
21:55:39.396,-0.285,-0.295
21:55:39.400,-0.34,-0.3
21:55:39.404,-0.36,-0.295
21:55:39.408,-0.37,-0.28
21:55:39.412,-0.38,-0.3
21:55:39.416,-0.4,-0.315
21:55:39.420,-0.415,-0.32
21:55:39.424,-0.415,-0.3
21:55:39.428,-0.395,-0.335
21:55:39.432,-0.375,-0.345
21:55:39.436,-0.355,-0.32
21:55:39.440,-0.345,-0.31
21:55:39.444,-0.34,-0.325
21:55:39.448,-0.35,-0.32
21:55:39.452,-0.35,-0.325
21:55:39.456,-0.37,-0.335
21:55:39.460,-0.36,-0.34
21:55:39.464,-0.36,-0.355
21:55:39.468,-0.35,-0.36
21:55:39.472,-0.35,-0.33
21:55:39.476,-0.375,-0.345
21:55:39.480,-0.365,-0.375
21:55:39.484,-0.36,-0.37
21:55:39.488,-0.365,-0.38
21:55:39.492,-0.365,-0.38
21:55:39.496,-0.35,-0.415
21:55:39.500,-0.365,-0.41
21:55:39.504,-0.36,-0.42
21:55:39.508,-0.355,-0.425
21:55:39.512,-0.35,-0.435
21:55:39.516,-0.315,-0.425
21:55:39.520,-0.285,-0.41
21:55:39.524,-0.215,-0.43
21:55:39.528,-0.11,-0.445
21:55:39.532,-0.02,-0.47
21:55:39.536,0.065,-0.48
21:55:39.540,0.11,-0.53
21:55:39.544,0.15,-0.575
21:55:39.548,0.2,-0.59
21:55:39.552,0.21,-0.58
21:55:39.556,0.21,-0.61
21:55:39.560,0.24,-0.685
21:55:39.564,0.395,-0.84
21:55:39.568,0.645,-1.035
21:55:39.572,0.925,-1.265
21:55:39.576,1.04,-1.465
21:55:39.580,0.88,-1.54
21:55:39.584,0.43,-1.39
21:55:39.588,-0.015,-1.045
21:55:39.592,-0.25,-0.77
21:55:39.596,-0.37,-0.625
21:55:39.600,-0.4,-0.52
21:55:39.604,-0.415,-0.44
21:55:39.608,-0.425,-0.4
21:55:39.612,-0.44,-0.375
21:55:39.616,-0.495,-0.375
21:55:39.620,-0.51,-0.385
21:55:39.624,-0.52,-0.37
21:55:39.628,-0.51,-0.4
21:55:39.632,-0.5,-0.42
21:55:39.636,-0.515,-0.42
21:55:39.640,-0.515,-0.42
21:55:39.644,-0.505,-0.435
21:55:39.648,-0.495,-0.435
21:55:39.652,-0.51,-0.4
21:55:39.656,-0.495,-0.425
21:55:39.660,-0.5,-0.425
21:55:39.664,-0.48,-0.44
21:55:39.668,-0.49,-0.43
21:55:39.672,-0.525,-0.425
21:55:39.676,-0.495,-0.42
21:55:39.680,-0.52,-0.41
21:55:39.684,-0.525,-0.395
21:55:39.688,-0.525,-0.395
21:55:39.692,-0.53,-0.42
21:55:39.696,-0.545,-0.43
21:55:39.700,-0.56,-0.42
21:55:39.704,-0.565,-0.42
21:55:39.708,-0.55,-0.42
21:55:39.712,-0.55,-0.4
21:55:39.716,-0.57,-0.41
21:55:39.720,-0.58,-0.4
21:55:39.724,-0.575,-0.42
21:55:39.728,-0.535,-0.385
21:55:39.732,-0.545,-0.39
21:55:39.736,-0.545,-0.375
21:55:39.740,-0.54,-0.385
21:55:39.744,-0.535,-0.37
21:55:39.748,-0.515,-0.37
21:55:39.752,-0.515,-0.37
21:55:39.756,-0.515,-0.365
21:55:39.760,-0.495,-0.355
21:55:39.764,-0.465,-0.355
21:55:39.768,-0.47,-0.32
21:55:39.772,-0.455,-0.34
21:55:39.776,-0.44,-0.35
21:55:39.780,-0.43,-0.34
21:55:39.784,-0.42,-0.335
21:55:39.788,-0.42,-0.365
21:55:39.792,-0.385,-0.35
21:55:39.796,-0.4,-0.345
21:55:39.800,-0.4,-0.375
21:55:39.804,-0.38,-0.375
21:55:39.808,-0.36,-0.355
21:55:39.812,-0.365,-0.375
21:55:39.816,-0.37,-0.38
21:55:39.820,-0.34,-0.37
21:55:39.824,-0.325,-0.41
21:55:39.828,-0.33,-0.375
21:55:39.832,-0.33,-0.38
21:55:39.836,-0.33,-0.365
21:55:39.840,-0.295,-0.37
21:55:39.844,-0.285,-0.385
21:55:39.848,-0.3,-0.365
21:55:39.852,-0.285,-0.36
21:55:39.856,-0.29,-0.34
21:55:39.860,-0.285,-0.345
21:55:39.864,-0.285,-0.345
21:55:39.868,-0.28,-0.335
21:55:39.872,-0.26,-0.34
21:55:39.876,-0.27,-0.335
21:55:39.880,-0.25,-0.315
21:55:39.884,-0.285,-0.295
21:55:39.888,-0.255,-0.295
21:55:39.892,-0.28,-0.295
21:55:39.896,-0.265,-0.3
21:55:39.900,-0.285,-0.27
21:55:39.904,-0.27,-0.29
21:55:39.908,-0.28,-0.275
21:55:39.912,-0.285,-0.27
21:55:39.916,-0.295,-0.29
21:55:39.920,-0.29,-0.28
21:55:39.924,-0.27,-0.26
21:55:39.928,-0.28,-0.27
21:55:39.932,-0.26,-0.25
21:55:39.936,-0.245,-0.255
21:55:39.940,-0.215,-0.27
21:55:39.944,-0.19,-0.255
21:55:39.948,-0.175,-0.235
21:55:39.952,-0.135,-0.22
21:55:39.956,-0.085,-0.215
21:55:39.960,-0.03,-0.195
21:55:39.964,-0.025,-0.195
21:55:39.968,0.025,-0.205
21:55:39.972,0.04,-0.2
21:55:39.976,0.06,-0.175
21:55:39.980,0.06,-0.18
21:55:39.984,0.025,-0.185
21:55:39.988,-0.005,-0.225
21:55:39.992,-0.055,-0.24
21:55:39.996,-0.1,-0.225
21:55:40.000,-0.17,-0.27
21:55:40.004,-0.225,-0.245
21:55:40.008,-0.29,-0.22
21:55:40.012,-0.32,-0.195
21:55:40.016,-0.36,-0.16
21:55:40.020,-0.355,-0.18
21:55:40.024,-0.365,-0.215
21:55:40.028,-0.395,-0.215
21:55:40.032,-0.365,-0.215
21:55:40.036,-0.365,-0.22
21:55:40.040,-0.365,-0.22
21:55:40.044,-0.36,-0.21
21:55:40.048,-0.345,-0.24
21:55:40.052,-0.34,-0.245
21:55:40.056,-0.325,-0.24
21:55:40.060,-0.335,-0.24
21:55:40.064,-0.345,-0.23
21:55:40.068,-0.34,-0.25
21:55:40.072,-0.33,-0.24
21:55:40.076,-0.325,-0.255
21:55:40.080,-0.33,-0.245
21:55:40.084,-0.325,-0.24
21:55:40.088,-0.32,-0.26
21:55:40.092,-0.295,-0.22
21:55:40.096,-0.28,-0.245
21:55:40.100,-0.29,-0.23
21:55:40.104,-0.3,-0.23
21:55:40.108,-0.29,-0.235
21:55:40.112,-0.3,-0.225
21:55:40.116,-0.29,-0.235
21:55:40.120,-0.3,-0.22
21:55:40.124,-0.24,-0.245
21:55:40.128,-0.215,-0.23
21:55:40.132,-0.16,-0.215
21:55:40.136,-0.06,-0.24
21:55:40.140,0.02,-0.255
21:55:40.144,0.06,-0.29
21:55:40.148,0.1,-0.345
21:55:40.152,0.14,-0.4
21:55:40.156,0.17,-0.405
21:55:40.160,0.175,-0.435
21:55:40.164,0.155,-0.55
21:55:40.168,0.24,-0.655
21:55:40.172,0.445,-0.84
21:55:40.176,0.75,-1.05
21:55:40.180,1.015,-1.3
21:55:40.184,1.065,-1.455
21:55:40.188,0.82,-1.455
21:55:40.192,0.345,-1.16
21:55:40.196,-0.08,-0.775
21:55:40.200,-0.295,-0.505
21:55:40.204,-0.35,-0.365
21:55:40.208,-0.4,-0.24
21:55:40.212,-0.42,-0.165
21:55:40.216,-0.45,-0.115
21:55:40.220,-0.45,-0.105
21:55:40.224,-0.45,-0.095
21:55:40.228,-0.485,-0.08
21:55:40.232,-0.48,-0.11
21:55:40.236,-0.49,-0.1
21:55:40.240,-0.5,-0.115
21:55:40.244,-0.48,-0.135
21:55:40.248,-0.48,-0.13
21:55:40.252,-0.505,-0.135
21:55:40.256,-0.5,-0.14
21:55:40.260,-0.525,-0.145
21:55:40.264,-0.515,-0.15
21:55:40.268,-0.515,-0.16
21:55:40.272,-0.515,-0.17
21:55:40.276,-0.53,-0.155
21:55:40.280,-0.52,-0.16
21:55:40.284,-0.54,-0.155
21:55:40.288,-0.53,-0.16
21:55:40.292,-0.515,-0.16
21:55:40.296,-0.54,-0.14
21:55:40.300,-0.535,-0.15
21:55:40.304,-0.55,-0.15
21:55:40.308,-0.55,-0.145
21:55:40.312,-0.55,-0.12
21:55:40.316,-0.525,-0.145
21:55:40.320,-0.53,-0.14
21:55:40.324,-0.535,-0.15
21:55:40.328,-0.535,-0.155
21:55:40.332,-0.515,-0.125
21:55:40.336,-0.53,-0.15
21:55:40.340,-0.52,-0.115
21:55:40.344,-0.515,-0.135
21:55:40.348,-0.52,-0.145
21:55:40.352,-0.515,-0.115
21:55:40.356,-0.505,-0.13
21:55:40.360,-0.505,-0.12
21:55:40.364,-0.5,-0.13
21:55:40.368,-0.5,-0.14
