Time,ECG1,ECG2
20:58:52.844,-0.25,0.165
20:58:52.848,-0.25,0.165
20:58:52.852,-0.25,0.17
20:58:52.856,-0.245,0.17
20:58:52.860,-0.24,0.155
20:58:52.864,-0.255,0.165
20:58:52.868,-0.245,0.17
20:58:52.872,-0.255,0.195
20:58:52.876,-0.26,0.165
20:58:52.880,-0.235,0.165
20:58:52.884,-0.245,0.17
20:58:52.888,-0.23,0.19
20:58:52.892,-0.215,0.19
20:58:52.896,-0.22,0.185
20:58:52.900,-0.235,0.18
20:58:52.904,-0.21,0.185
20:58:52.908,-0.22,0.175
20:58:52.912,-0.23,0.2
20:58:52.916,-0.23,0.2
20:58:52.920,-0.235,0.195
20:58:52.924,-0.24,0.17
20:58:52.928,-0.225,0.21
20:58:52.932,-0.22,0.185
20:58:52.936,-0.235,0.19
20:58:52.940,-0.235,0.19
20:58:52.944,-0.225,0.17
20:58:52.948,-0.215,0.19
20:58:52.952,-0.225,0.195
20:58:52.956,-0.215,0.195
20:58:52.960,-0.21,0.175
20:58:52.964,-0.215,0.15
20:58:52.968,-0.23,0.175
20:58:52.972,-0.215,0.18
20:58:52.976,-0.215,0.165
20:58:52.980,-0.21,0.195
20:58:52.984,-0.21,0.175
20:58:52.988,-0.22,0.175
20:58:52.992,-0.215,0.185
20:58:52.996,-0.215,0.18
20:58:53.000,-0.19,0.2
20:58:53.004,-0.175,0.19
20:58:53.008,-0.185,0.195
20:58:53.012,-0.18,0.205
20:58:53.016,-0.19,0.19
20:58:53.020,-0.195,0.185
20:58:53.024,-0.185,0.205
20:58:53.028,-0.17,0.21
20:58:53.032,-0.195,0.215
20:58:53.036,-0.2,0.2
20:58:53.040,-0.185,0.21
20:58:53.044,-0.2,0.205
20:58:53.048,-0.19,0.22
20:58:53.052,-0.185,0.185
20:58:53.056,-0.205,0.19
20:58:53.060,-0.2,0.205
20:58:53.064,-0.21,0.18
20:58:53.068,-0.205,0.19
20:58:53.072,-0.22,0.185
20:58:53.076,-0.215,0.2
20:58:53.080,-0.205,0.21
20:58:53.084,-0.215,0.195
20:58:53.088,-0.205,0.185
20:58:53.092,-0.185,0.19
20:58:53.096,-0.18,0.18
20:58:53.100,-0.195,0.2
20:58:53.104,-0.17,0.195
20:58:53.108,-0.15,0.18
20:58:53.112,-0.15,0.175
20:58:53.116,-0.16,0.195
20:58:53.120,-0.115,0.215
20:58:53.124,-0.12,0.205
20:58:53.128,-0.12,0.23
20:58:53.132,-0.1,0.235
20:58:53.136,-0.075,0.255
20:58:53.140,-0.045,0.26
20:58:53.144,-0.02,0.26
20:58:53.148,-0.02,0.28
20:58:53.152,0.02,0.275
20:58:53.156,0.05,0.265
20:58:53.160,0.045,0.265
20:58:53.164,0.05,0.26
20:58:53.168,0.02,0.24
20:58:53.172,0.005,0.19
20:58:53.176,-0.05,0.165
20:58:53.180,-0.1,0.155
20:58:53.184,-0.13,0.155
20:58:53.188,-0.19,0.15
20:58:53.192,-0.22,0.175
20:58:53.196,-0.275,0.195
20:58:53.200,-0.28,0.2
20:58:53.204,-0.315,0.2
20:58:53.208,-0.33,0.21
20:58:53.212,-0.325,0.2
20:58:53.216,-0.32,0.19
20:58:53.220,-0.32,0.205
20:58:53.224,-0.315,0.18
20:58:53.228,-0.32,0.195
20:58:53.232,-0.305,0.205
20:58:53.236,-0.28,0.2
20:58:53.240,-0.3,0.19
20:58:53.244,-0.315,0.19
20:58:53.248,-0.33,0.2
20:58:53.252,-0.33,0.21
20:58:53.256,-0.325,0.185
20:58:53.260,-0.31,0.22
20:58:53.264,-0.32,0.22
20:58:53.268,-0.34,0.215
20:58:53.272,-0.335,0.2
20:58:53.276,-0.325,0.24
20:58:53.280,-0.32,0.24
20:58:53.284,-0.335,0.225
20:58:53.288,-0.36,0.22
20:58:53.292,-0.35,0.215
20:58:53.296,-0.365,0.225
20:58:53.300,-0.35,0.23
20:58:53.304,-0.37,0.225
20:58:53.308,-0.345,0.2
20:58:53.312,-0.325,0.18
20:58:53.316,-0.235,0.2
20:58:53.320,-0.16,0.2
20:58:53.324,-0.065,0.185
20:58:53.328,0.025,0.2
20:58:53.332,0.07,0.145
20:58:53.336,0.08,0.12
20:58:53.340,0.11,0.105
20:58:53.344,0.11,0.07
20:58:53.348,0.075,0.045
20:58:53.352,0.045,-0.015
20:58:53.356,0.095,-0.135
20:58:53.360,0.3,-0.285
20:58:53.364,0.555,-0.525
20:58:53.368,0.875,-0.77
20:58:53.372,1.065,-1.01
20:58:53.376,1.095,-1.095
20:58:53.380,0.88,-0.965
20:58:53.384,0.415,-0.635
20:58:53.388,0.0,-0.25
20:58:53.392,-0.255,0.04
20:58:53.396,-0.35,0.18
20:58:53.400,-0.43,0.285
20:58:53.404,-0.445,0.305
20:58:53.408,-0.46,0.325
20:58:53.412,-0.485,0.305
20:58:53.416,-0.5,0.305
20:58:53.420,-0.535,0.3
20:58:53.424,-0.525,0.29
20:58:53.428,-0.525,0.25
20:58:53.432,-0.535,0.225
20:58:53.436,-0.525,0.215
20:58:53.440,-0.555,0.21
20:58:53.444,-0.565,0.205
20:58:53.448,-0.59,0.195
20:58:53.452,-0.56,0.205
20:58:53.456,-0.55,0.185
20:58:53.460,-0.54,0.195
20:58:53.464,-0.535,0.195
20:58:53.468,-0.55,0.175
20:58:53.472,-0.53,0.175
20:58:53.476,-0.545,0.16
20:58:53.480,-0.545,0.155
20:58:53.484,-0.53,0.175
20:58:53.488,-0.55,0.175
20:58:53.492,-0.56,0.145
20:58:53.496,-0.555,0.14
20:58:53.500,-0.54,0.155
20:58:53.504,-0.565,0.15
20:58:53.508,-0.55,0.14
20:58:53.512,-0.545,0.155
20:58:53.516,-0.555,0.135
20:58:53.520,-0.54,0.135
20:58:53.524,-0.555,0.125
20:58:53.528,-0.575,0.11
20:58:53.532,-0.58,0.12
20:58:53.536,-0.59,0.115
20:58:53.540,-0.6,0.115
20:58:53.544,-0.595,0.125
20:58:53.548,-0.56,0.125
20:58:53.552,-0.53,0.1
20:58:53.556,-0.53,0.105
20:58:53.560,-0.535,0.075
20:58:53.564,-0.54,0.075
20:58:53.568,-0.53,0.075
20:58:53.572,-0.545,0.075
20:58:53.576,-0.56,0.07
20:58:53.580,-0.515,0.06
20:58:53.584,-0.495,0.07
20:58:53.588,-0.485,0.08
20:58:53.592,-0.49,0.05
20:58:53.596,-0.47,0.045
20:58:53.600,-0.465,0.025
20:58:53.604,-0.445,0.045
20:58:53.608,-0.42,0.0
20:58:53.612,-0.42,0.005
20:58:53.616,-0.445,0.005
20:58:53.620,-0.44,0.0
20:58:53.624,-0.435,-0.03
20:58:53.628,-0.41,-0.045
20:58:53.632,-0.42,-0.05
20:58:53.636,-0.405,-0.08
20:58:53.640,-0.405,-0.08
20:58:53.644,-0.375,-0.105
20:58:53.648,-0.375,-0.1
20:58:53.652,-0.37,-0.12
20:58:53.656,-0.375,-0.115
20:58:53.660,-0.37,-0.12
20:58:53.664,-0.35,-0.14
20:58:53.668,-0.365,-0.15
20:58:53.672,-0.34,-0.17
20:58:53.676,-0.33,-0.195
20:58:53.680,-0.34,-0.18
20:58:53.684,-0.35,-0.17
20:58:53.688,-0.35,-0.195
20:58:53.692,-0.34,-0.195
20:58:53.696,-0.315,-0.2
20:58:53.700,-0.315,-0.22
20:58:53.704,-0.3,-0.225
20:58:53.708,-0.3,-0.23
20:58:53.712,-0.285,-0.2
20:58:53.716,-0.295,-0.225
20:58:53.720,-0.32,-0.22
20:58:53.724,-0.33,-0.205
20:58:53.728,-0.32,-0.225
20:58:53.732,-0.31,-0.23
20:58:53.736,-0.315,-0.22
20:58:53.740,-0.335,-0.245
20:58:53.744,-0.32,-0.24
20:58:53.748,-0.33,-0.265
20:58:53.752,-0.355,-0.245
20:58:53.756,-0.36,-0.255
20:58:53.760,-0.37,-0.255
20:58:53.764,-0.365,-0.28
20:58:53.768,-0.39,-0.27
20:58:53.772,-0.365,-0.315
20:58:53.776,-0.33,-0.315
20:58:53.780,-0.33,-0.32
20:58:53.784,-0.38,-0.32
20:58:53.788,-0.38,-0.335
20:58:53.792,-0.4,-0.35
20:58:53.796,-0.38,-0.34
20:58:53.800,-0.36,-0.35
20:58:53.804,-0.385,-0.37
20:58:53.808,-0.365,-0.36
20:58:53.812,-0.34,-0.365
20:58:53.816,-0.34,-0.36
20:58:53.820,-0.345,-0.37
20:58:53.824,-0.33,-0.375
20:58:53.828,-0.345,-0.385
20:58:53.832,-0.35,-0.385
20:58:53.836,-0.365,-0.38
20:58:53.840,-0.355,-0.37
20:58:53.844,-0.345,-0.37
20:58:53.848,-0.325,-0.39
20:58:53.852,-0.32,-0.395
20:58:53.856,-0.32,-0.4
20:58:53.860,-0.335,-0.4
20:58:53.864,-0.33,-0.41
20:58:53.868,-0.36,-0.405
20:58:53.872,-0.355,-0.415
20:58:53.876,-0.325,-0.41
20:58:53.880,-0.31,-0.43
20:58:53.884,-0.3,-0.41
20:58:53.888,-0.3,-0.42
20:58:53.892,-0.275,-0.44
20:58:53.896,-0.285,-0.44
20:58:53.900,-0.28,-0.435
20:58:53.904,-0.26,-0.4
20:58:53.908,-0.2,-0.4
20:58:53.912,-0.145,-0.385
20:58:53.916,-0.13,-0.37
20:58:53.920,-0.09,-0.38
20:58:53.924,-0.075,-0.38
20:58:53.928,-0.01,-0.385
20:58:53.932,0.0,-0.36
20:58:53.936,0.005,-0.36
20:58:53.940,0.01,-0.365
20:58:53.944,-0.015,-0.375
20:58:53.948,-0.06,-0.38
20:58:53.952,-0.115,-0.39
20:58:53.956,-0.145,-0.39
20:58:53.960,-0.16,-0.385
20:58:53.964,-0.24,-0.385
20:58:53.968,-0.305,-0.39
20:58:53.972,-0.335,-0.37
20:58:53.976,-0.385,-0.39
20:58:53.980,-0.39,-0.35
20:58:53.984,-0.4,-0.335
20:58:53.988,-0.41,-0.35
20:58:53.992,-0.4,-0.34
20:58:53.996,-0.41,-0.325
20:58:54.000,-0.385,-0.345
20:58:54.004,-0.395,-0.345
20:58:54.008,-0.36,-0.355
20:58:54.012,-0.375,-0.34
20:58:54.016,-0.37,-0.315
20:58:54.020,-0.385,-0.315
20:58:54.024,-0.355,-0.29
20:58:54.028,-0.38,-0.28
20:58:54.032,-0.375,-0.275
20:58:54.036,-0.385,-0.26
20:58:54.040,-0.375,-0.26
20:58:54.044,-0.36,-0.225
20:58:54.048,-0.35,-0.23
20:58:54.052,-0.33,-0.215
20:58:54.056,-0.34,-0.205
20:58:54.060,-0.345,-0.2
20:58:54.064,-0.32,-0.16
20:58:54.068,-0.32,-0.17
20:58:54.072,-0.33,-0.15
20:58:54.076,-0.335,-0.15
20:58:54.080,-0.325,-0.16
20:58:54.084,-0.285,-0.145
20:58:54.088,-0.245,-0.13
20:58:54.092,-0.155,-0.115
20:58:54.096,-0.07,-0.12
20:58:54.100,0.015,-0.115
20:58:54.104,0.1,-0.16
20:58:54.108,0.175,-0.21
20:58:54.112,0.245,-0.225
20:58:54.116,0.275,-0.225
20:58:54.120,0.305,-0.24
20:58:54.124,0.285,-0.3
20:58:54.128,0.315,-0.385
20:58:54.132,0.485,-0.52
20:58:54.136,0.805,-0.745
20:58:54.140,1.11,-0.955
20:58:54.144,1.22,-1.15
20:58:54.148,1.08,-1.22
20:58:54.152,0.625,-1.055
20:58:54.156,0.14,-0.715
20:58:54.160,-0.15,-0.41
20:58:54.164,-0.27,-0.215
20:58:54.168,-0.315,-0.08
20:58:54.172,-0.345,0.035
20:58:54.176,-0.36,0.1
20:58:54.180,-0.39,0.14
20:58:54.184,-0.395,0.14
20:58:54.188,-0.415,0.135
20:58:54.192,-0.43,0.145
20:58:54.196,-0.42,0.135
20:58:54.200,-0.43,0.135
20:58:54.204,-0.43,0.11
20:58:54.208,-0.435,0.13
20:58:54.212,-0.445,0.12
20:58:54.216,-0.445,0.135
20:58:54.220,-0.465,0.135
20:58:54.224,-0.46,0.11
20:58:54.228,-0.455,0.13
20:58:54.232,-0.46,0.125
20:58:54.236,-0.46,0.12
20:58:54.240,-0.44,0.1
20:58:54.244,-0.44,0.095
20:58:54.248,-0.47,0.11
20:58:54.252,-0.435,0.1
20:58:54.256,-0.46,0.085
20:58:54.260,-0.465,0.11
20:58:54.264,-0.48,0.1
20:58:54.268,-0.46,0.1
20:58:54.272,-0.46,0.105
20:58:54.276,-0.445,0.1
20:58:54.280,-0.465,0.12
20:58:54.284,-0.465,0.105
20:58:54.288,-0.465,0.12
20:58:54.292,-0.465,0.145
20:58:54.296,-0.47,0.135
20:58:54.300,-0.46,0.145
20:58:54.304,-0.475,0.165
20:58:54.308,-0.475,0.175
20:58:54.312,-0.475,0.15
20:58:54.316,-0.45,0.135
20:58:54.320,-0.46,0.15
20:58:54.324,-0.465,0.17
20:58:54.328,-0.455,0.15
20:58:54.332,-0.485,0.15
20:58:54.336,-0.485,0.15
20:58:54.340,-0.46,0.135
20:58:54.344,-0.43,0.13
20:58:54.348,-0.425,0.12
20:58:54.352,-0.43,0.105
20:58:54.356,-0.42,0.1
20:58:54.360,-0.415,0.095
20:58:54.364,-0.385,0.09
20:58:54.368,-0.37,0.105
20:58:54.372,-0.355,0.085
20:58:54.376,-0.355,0.08
20:58:54.380,-0.34,0.07
20:58:54.384,-0.32,0.06
20:58:54.388,-0.29,0.075
20:58:54.392,-0.29,0.06
20:58:54.396,-0.285,0.055
20:58:54.400,-0.27,0.045
20:58:54.404,-0.25,0.035
20:58:54.408,-0.24,0.035
20:58:54.412,-0.24,0.065
20:58:54.416,-0.24,0.03
20:58:54.420,-0.22,0.045
20:58:54.424,-0.215,0.035
20:58:54.428,-0.205,0.035
20:58:54.432,-0.21,0.05
20:58:54.436,-0.215,0.035
20:58:54.440,-0.245,0.045
20:58:54.444,-0.25,0.04
20:58:54.448,-0.245,0.05
20:58:54.452,-0.23,0.05
20:58:54.456,-0.225,0.055
20:58:54.460,-0.23,0.04
20:58:54.464,-0.245,0.055
20:58:54.468,-0.25,0.05
20:58:54.472,-0.265,0.05
20:58:54.476,-0.255,0.055
20:58:54.480,-0.25,0.06
20:58:54.484,-0.25,0.06
20:58:54.488,-0.25,0.065
20:58:54.492,-0.26,0.05
20:58:54.496,-0.26,0.055
20:58:54.500,-0.25,0.065
20:58:54.504,-0.255,0.095
20:58:54.508,-0.235,0.07
20:58:54.512,-0.24,0.075
20:58:54.516,-0.25,0.1
20:58:54.520,-0.25,0.09
20:58:54.524,-0.21,0.08
20:58:54.528,-0.23,0.085
20:58:54.532,-0.225,0.095
20:58:54.536,-0.22,0.095
20:58:54.540,-0.24,0.085
20:58:54.544,-0.23,0.1
20:58:54.548,-0.23,0.095
20:58:54.552,-0.205,0.095
20:58:54.556,-0.19,0.065
20:58:54.560,-0.2,0.09
20:58:54.564,-0.23,0.11
20:58:54.568,-0.21,0.105
20:58:54.572,-0.165,0.115
20:58:54.576,-0.125,0.11
20:58:54.580,-0.105,0.12
20:58:54.584,-0.08,0.105
20:58:54.588,-0.08,0.125
20:58:54.592,-0.045,0.135
20:58:54.596,-0.03,0.11
20:58:54.600,-0.015,0.14
20:58:54.604,0.02,0.14
20:58:54.608,0.005,0.14
20:58:54.612,0.01,0.1
20:58:54.616,-0.03,0.085
20:58:54.620,-0.045,0.08
20:58:54.624,-0.115,0.07
20:58:54.628,-0.14,0.06
20:58:54.632,-0.195,0.04
20:58:54.636,-0.245,0.07
20:58:54.640,-0.26,0.095
20:58:54.644,-0.33,0.095
20:58:54.648,-0.33,0.105
20:58:54.652,-0.355,0.105
20:58:54.656,-0.36,0.085
20:58:54.660,-0.35,0.07
20:58:54.664,-0.34,0.07
20:58:54.668,-0.35,0.075
20:58:54.672,-0.345,0.055
20:58:54.676,-0.37,0.06
20:58:54.680,-0.365,0.055
20:58:54.684,-0.37,0.04
20:58:54.688,-0.35,0.05
20:58:54.692,-0.35,0.045
20:58:54.696,-0.355,0.03
20:58:54.700,-0.34,0.05
20:58:54.704,-0.335,0.045
20:58:54.708,-0.33,0.07
20:58:54.712,-0.34,0.055
20:58:54.716,-0.325,0.075
20:58:54.720,-0.345,0.06
20:58:54.724,-0.325,0.05
20:58:54.728,-0.325,0.045
20:58:54.732,-0.295,0.04
20:58:54.736,-0.3,0.045
20:58:54.740,-0.29,0.055
20:58:54.744,-0.295,0.045
20:58:54.748,-0.285,0.06
20:58:54.752,-0.28,0.055
20:58:54.756,-0.26,0.08
20:58:54.760,-0.205,0.065
20:58:54.764,-0.145,0.07
20:58:54.768,-0.065,0.08
20:58:54.772,0.03,0.07
20:58:54.776,0.09,0.03
20:58:54.780,0.15,-0.03
20:58:54.784,0.175,-0.06
20:58:54.788,0.19,-0.08
20:58:54.792,0.19,-0.13
20:58:54.796,0.19,-0.215
20:58:54.800,0.23,-0.305
20:58:54.804,0.435,-0.48
20:58:54.808,0.765,-0.715
20:58:54.812,1.03,-0.965
20:58:54.816,1.14,-1.17
20:58:54.820,0.94,-1.22
20:58:54.824,0.46,-1.05
20:58:54.828,0.0,-0.67
20:58:54.832,-0.245,-0.315
20:58:54.836,-0.34,-0.09
20:58:54.840,-0.395,0.025
20:58:54.844,-0.395,0.125
20:58:54.848,-0.38,0.165
20:58:54.852,-0.4,0.215
20:58:54.856,-0.395,0.215
20:58:54.860,-0.41,0.23
20:58:54.864,-0.415,0.22
20:58:54.868,-0.43,0.205
20:58:54.872,-0.425,0.22
20:58:54.876,-0.42,0.215
20:58:54.880,-0.41,0.195
20:58:54.884,-0.42,0.19
20:58:54.888,-0.425,0.19
20:58:54.892,-0.43,0.19
20:58:54.896,-0.445,0.215
20:58:54.900,-0.435,0.2
20:58:54.904,-0.445,0.18
20:58:54.908,-0.435,0.175
20:58:54.912,-0.435,0.205
20:58:54.916,-0.425,0.185
20:58:54.920,-0.45,0.195
20:58:54.924,-0.43,0.18
20:58:54.928,-0.435,0.17
20:58:54.932,-0.43,0.21
20:58:54.936,-0.445,0.195
20:58:54.940,-0.455,0.175
20:58:54.944,-0.455,0.19
20:58:54.948,-0.45,0.21
20:58:54.952,-0.46,0.195
20:58:54.956,-0.465,0.195
20:58:54.960,-0.46,0.215
20:58:54.964,-0.455,0.21
20:58:54.968,-0.44,0.215
20:58:54.972,-0.455,0.23
20:58:54.976,-0.455,0.24
20:58:54.980,-0.45,0.235
20:58:54.984,-0.44,0.235
20:58:54.988,-0.46,0.265
20:58:54.992,-0.465,0.25
20:58:54.996,-0.45,0.24
20:58:55.000,-0.445,0.215
20:58:55.004,-0.43,0.23
20:58:55.008,-0.435,0.215
20:58:55.012,-0.425,0.23
20:58:55.016,-0.43,0.22
20:58:55.020,-0.43,0.205
20:58:55.024,-0.425,0.23
20:58:55.028,-0.395,0.21
20:58:55.032,-0.39,0.185
20:58:55.036,-0.385,0.17
20:58:55.040,-0.4,0.195
20:58:55.044,-0.38,0.18
20:58:55.048,-0.37,0.16
20:58:55.052,-0.33,0.15
20:58:55.056,-0.345,0.15
20:58:55.060,-0.335,0.16
20:58:55.064,-0.325,0.175
20:58:55.068,-0.33,0.165
20:58:55.072,-0.305,0.16
20:58:55.076,-0.285,0.175
20:58:55.080,-0.29,0.17
20:58:55.084,-0.28,0.155
20:58:55.088,-0.27,0.165
20:58:55.092,-0.28,0.165
20:58:55.096,-0.28,0.175
20:58:55.100,-0.27,0.18
20:58:55.104,-0.245,0.18
20:58:55.108,-0.26,0.175
20:58:55.112,-0.255,0.165
20:58:55.116,-0.28,0.185
20:58:55.120,-0.27,0.185
20:58:55.124,-0.28,0.185
20:58:55.128,-0.27,0.175
20:58:55.132,-0.295,0.19
20:58:55.136,-0.3,0.17
20:58:55.140,-0.27,0.175
20:58:55.144,-0.275,0.185
20:58:55.148,-0.285,0.175
20:58:55.152,-0.28,0.175
20:58:55.156,-0.3,0.16
20:58:55.160,-0.295,0.165
20:58:55.164,-0.305,0.17
20:58:55.168,-0.31,0.19
20:58:55.172,-0.33,0.17
20:58:55.176,-0.325,0.17
20:58:55.180,-0.3,0.17
20:58:55.184,-0.335,0.16
20:58:55.188,-0.31,0.155
20:58:55.192,-0.29,0.145
20:58:55.196,-0.26,0.165
20:58:55.200,-0.265,0.155
20:58:55.204,-0.285,0.16
20:58:55.208,-0.295,0.14
20:58:55.212,-0.28,0.165
20:58:55.216,-0.25,0.14
20:58:55.220,-0.27,0.16
20:58:55.224,-0.245,0.15
20:58:55.228,-0.25,0.14
20:58:55.232,-0.21,0.16
20:58:55.236,-0.17,0.17
20:58:55.240,-0.14,0.165
20:58:55.244,-0.125,0.165
20:58:55.248,-0.14,0.18
20:58:55.252,-0.12,0.145
20:58:55.256,-0.075,0.15
20:58:55.260,-0.055,0.165
20:58:55.264,-0.03,0.155
20:58:55.268,-0.025,0.13
20:58:55.272,-0.055,0.125
20:58:55.276,-0.115,0.065
20:58:55.280,-0.13,0.06
20:58:55.284,-0.18,0.045
20:58:55.288,-0.255,0.04
20:58:55.292,-0.32,0.04
20:58:55.296,-0.365,0.055
20:58:55.300,-0.38,0.05
20:58:55.304,-0.41,0.055
20:58:55.308,-0.44,0.045
20:58:55.312,-0.44,0.045
20:58:55.316,-0.425,0.03
20:58:55.320,-0.405,0.02
20:58:55.324,-0.385,0.01
20:58:55.328,-0.4,0.005
20:58:55.332,-0.39,0.02
20:58:55.336,-0.4,0.0
20:58:55.340,-0.415,-0.035
20:58:55.344,-0.43,-0.005
20:58:55.348,-0.405,-0.03
20:58:55.352,-0.43,-0.04
20:58:55.356,-0.42,-0.065
20:58:55.360,-0.435,-0.04
20:58:55.364,-0.425,-0.065
20:58:55.368,-0.405,-0.08
20:58:55.372,-0.41,-0.105
20:58:55.376,-0.41,-0.09
20:58:55.380,-0.41,-0.115
20:58:55.384,-0.4,-0.12
20:58:55.388,-0.395,-0.135
20:58:55.392,-0.405,-0.135
20:58:55.396,-0.415,-0.15
20:58:55.400,-0.41,-0.16
20:58:55.404,-0.415,-0.155
20:58:55.408,-0.4,-0.17
20:58:55.412,-0.37,-0.175
20:58:55.416,-0.32,-0.2
20:58:55.420,-0.26,-0.19
20:58:55.424,-0.175,-0.21
20:58:55.428,-0.075,-0.22
20:58:55.432,0.01,-0.225
20:58:55.436,0.105,-0.26
20:58:55.440,0.145,-0.33
20:58:55.444,0.215,-0.335
20:58:55.448,0.26,-0.38
20:58:55.452,0.235,-0.395
20:58:55.456,0.225,-0.46
20:58:55.460,0.31,-0.585
20:58:55.464,0.555,-0.74
20:58:55.468,0.855,-0.99
20:58:55.472,1.05,-1.225
20:58:55.476,0.98,-1.4
20:58:55.480,0.615,-1.4
20:58:55.484,0.12,-1.125
20:58:55.488,-0.245,-0.79
20:58:55.492,-0.39,-0.565
20:58:55.496,-0.435,-0.475
20:58:55.500,-0.43,-0.35
20:58:55.504,-0.46,-0.275
20:58:55.508,-0.48,-0.25
20:58:55.512,-0.5,-0.255
20:58:55.516,-0.545,-0.245
20:58:55.520,-0.545,-0.26
20:58:55.524,-0.57,-0.26
20:58:55.528,-0.54,-0.29
20:58:55.532,-0.525,-0.315
20:58:55.536,-0.55,-0.315
20:58:55.540,-0.545,-0.305
20:58:55.544,-0.545,-0.285
20:58:55.548,-0.55,-0.325
20:58:55.552,-0.56,-0.32
20:58:55.556,-0.565,-0.31
20:58:55.560,-0.55,-0.365
20:58:55.564,-0.57,-0.355
20:58:55.568,-0.575,-0.345
20:58:55.572,-0.57,-0.35
20:58:55.576,-0.55,-0.37
20:58:55.580,-0.56,-0.36
20:58:55.584,-0.585,-0.355
20:58:55.588,-0.595,-0.4
20:58:55.592,-0.6,-0.38
20:58:55.596,-0.6,-0.405
20:58:55.600,-0.6,-0.43
20:58:55.604,-0.605,-0.415
20:58:55.608,-0.615,-0.415
20:58:55.612,-0.615,-0.42
20:58:55.616,-0.61,-0.42
20:58:55.620,-0.62,-0.405
20:58:55.624,-0.625,-0.4
20:58:55.628,-0.63,-0.41
20:58:55.632,-0.64,-0.405
20:58:55.636,-0.64,-0.39
20:58:55.640,-0.615,-0.405
20:58:55.644,-0.61,-0.4
20:58:55.648,-0.61,-0.435
20:58:55.652,-0.61,-0.405
20:58:55.656,-0.605,-0.42
20:58:55.660,-0.6,-0.415
20:58:55.664,-0.575,-0.4
20:58:55.668,-0.565,-0.415
20:58:55.672,-0.575,-0.42
20:58:55.676,-0.545,-0.415
20:58:55.680,-0.54,-0.445
20:58:55.684,-0.52,-0.42
20:58:55.688,-0.525,-0.42
20:58:55.692,-0.52,-0.44
20:58:55.696,-0.51,-0.435
20:58:55.700,-0.495,-0.44
20:58:55.704,-0.47,-0.46
20:58:55.708,-0.48,-0.44
20:58:55.712,-0.46,-0.485
20:58:55.716,-0.435,-0.48
20:58:55.720,-0.43,-0.5
20:58:55.724,-0.42,-0.5
20:58:55.728,-0.405,-0.49
20:58:55.732,-0.395,-0.48
20:58:55.736,-0.375,-0.5
20:58:55.740,-0.385,-0.485
20:58:55.744,-0.375,-0.49
20:58:55.748,-0.38,-0.48
20:58:55.752,-0.34,-0.485
20:58:55.756,-0.325,-0.465
20:58:55.760,-0.315,-0.46
20:58:55.764,-0.295,-0.46
20:58:55.768,-0.31,-0.44
20:58:55.772,-0.3,-0.44
20:58:55.776,-0.315,-0.425
20:58:55.780,-0.305,-0.435
20:58:55.784,-0.32,-0.405
20:58:55.788,-0.3,-0.385
20:58:55.792,-0.315,-0.385
20:58:55.796,-0.3,-0.37
20:58:55.800,-0.295,-0.365
20:58:55.804,-0.305,-0.365
20:58:55.808,-0.29,-0.365
20:58:55.812,-0.335,-0.34
20:58:55.816,-0.34,-0.33
20:58:55.820,-0.32,-0.34
20:58:55.824,-0.32,-0.315
20:58:55.828,-0.32,-0.325
20:58:55.832,-0.31,-0.32
20:58:55.836,-0.32,-0.32
20:58:55.840,-0.3,-0.305
20:58:55.844,-0.335,-0.275
20:58:55.848,-0.335,-0.275
20:58:55.852,-0.315,-0.27
20:58:55.856,-0.325,-0.27
20:58:55.860,-0.315,-0.245
20:58:55.864,-0.32,-0.23
20:58:55.868,-0.3,-0.26
20:58:55.872,-0.27,-0.22
20:58:55.876,-0.26,-0.205
20:58:55.880,-0.25,-0.185
20:58:55.884,-0.25,-0.19
20:58:55.888,-0.25,-0.19
20:58:55.892,-0.21,-0.15
20:58:55.896,-0.17,-0.135
20:58:55.900,-0.12,-0.135
20:58:55.904,-0.095,-0.1
20:58:55.908,-0.07,-0.075
20:58:55.912,-0.05,-0.07
20:58:55.916,-0.045,-0.075
20:58:55.920,-0.015,-0.07
20:58:55.924,0.0,-0.06
20:58:55.928,0.0,-0.035
20:58:55.932,-0.005,-0.08
20:58:55.936,-0.045,-0.085
20:58:55.940,-0.085,-0.115
20:58:55.944,-0.12,-0.125
20:58:55.948,-0.17,-0.13
20:58:55.952,-0.24,-0.125
20:58:55.956,-0.285,-0.12
20:58:55.960,-0.33,-0.095
20:58:55.964,-0.35,-0.07
20:58:55.968,-0.38,-0.05
20:58:55.972,-0.38,-0.06
20:58:55.976,-0.385,-0.06
20:58:55.980,-0.36,-0.045
20:58:55.984,-0.35,-0.065
20:58:55.988,-0.32,-0.055
20:58:55.992,-0.335,-0.055
20:58:55.996,-0.31,-0.06
20:58:56.000,-0.31,-0.04
20:58:56.004,-0.32,-0.03
20:58:56.008,-0.31,-0.035
20:58:56.012,-0.3,-0.03
20:58:56.016,-0.325,-0.02
20:58:56.020,-0.325,-0.035
20:58:56.024,-0.3,-0.02
20:58:56.028,-0.3,-0.035
20:58:56.032,-0.295,-0.015
20:58:56.036,-0.305,-0.03
20:58:56.040,-0.32,-0.035
20:58:56.044,-0.295,-0.045
20:58:56.048,-0.295,-0.045
20:58:56.052,-0.295,-0.035
20:58:56.056,-0.305,-0.045
20:58:56.060,-0.29,-0.04
20:58:56.064,-0.28,-0.065
20:58:56.068,-0.27,-0.06
20:58:56.072,-0.265,-0.035
20:58:56.076,-0.22,-0.07
20:58:56.080,-0.17,-0.075
20:58:56.084,-0.075,-0.065
20:58:56.088,0.01,-0.08
20:58:56.092,0.115,-0.075
20:58:56.096,0.145,-0.13
20:58:56.100,0.215,-0.175
20:58:56.104,0.265,-0.195
20:58:56.108,0.3,-0.215
20:58:56.112,0.31,-0.26
20:58:56.116,0.325,-0.34
20:58:56.120,0.425,-0.49
20:58:56.124,0.67,-0.685
20:58:56.128,0.965,-0.92
20:58:56.132,1.175,-1.13
20:58:56.136,1.155,-1.3
20:58:56.140,0.83,-1.28
20:58:56.144,0.305,-0.985
20:58:56.148,-0.1,-0.585
20:58:56.152,-0.285,-0.295
20:58:56.156,-0.35,-0.145
20:58:56.160,-0.34,-0.045
20:58:56.164,-0.365,0.06
20:58:56.168,-0.37,0.09
20:58:56.172,-0.375,0.115
20:58:56.176,-0.395,0.105
20:58:56.180,-0.415,0.105
20:58:56.184,-0.395,0.105
20:58:56.188,-0.385,0.1
20:58:56.192,-0.38,0.1
20:58:56.196,-0.415,0.11
20:58:56.200,-0.415,0.1
20:58:56.204,-0.405,0.095
20:58:56.208,-0.41,0.11
20:58:56.212,-0.41,0.1
20:58:56.216,-0.41,0.105
20:58:56.220,-0.4,0.115
20:58:56.224,-0.41,0.115
20:58:56.228,-0.4,0.095
20:58:56.232,-0.395,0.115
20:58:56.236,-0.41,0.14
20:58:56.240,-0.405,0.095
20:58:56.244,-0.415,0.125
20:58:56.248,-0.41,0.105
20:58:56.252,-0.43,0.12
20:58:56.256,-0.435,0.11
20:58:56.260,-0.46,0.105
20:58:56.264,-0.465,0.12
20:58:56.268,-0.46,0.1
20:58:56.272,-0.47,0.135
20:58:56.276,-0.475,0.125
20:58:56.280,-0.49,0.115
20:58:56.284,-0.485,0.13
20:58:56.288,-0.48,0.125
20:58:56.292,-0.475,0.12
20:58:56.296,-0.465,0.135
20:58:56.300,-0.46,0.125
20:58:56.304,-0.47,0.13
20:58:56.308,-0.47,0.125
20:58:56.312,-0.445,0.115
20:58:56.316,-0.45,0.13
20:58:56.320,-0.44,0.125
20:58:56.324,-0.415,0.115
20:58:56.328,-0.415,0.135
20:58:56.332,-0.395,0.11
20:58:56.336,-0.385,0.115
20:58:56.340,-0.38,0.125
20:58:56.344,-0.375,0.135
20:58:56.348,-0.36,0.095
20:58:56.352,-0.355,0.085
20:58:56.356,-0.325,0.095
20:58:56.360,-0.335,0.075
20:58:56.364,-0.33,0.065
20:58:56.368,-0.32,0.07
20:58:56.372,-0.31,0.045
20:58:56.376,-0.31,0.05
20:58:56.380,-0.3,0.03
20:58:56.384,-0.28,0.04
20:58:56.388,-0.295,0.03
20:58:56.392,-0.26,0.03
20:58:56.396,-0.26,0.015
20:58:56.400,-0.245,0.02
20:58:56.404,-0.24,0.025
20:58:56.408,-0.215,0.02
20:58:56.412,-0.195,0.025
20:58:56.416,-0.22,0.035
20:58:56.420,-0.23,0.02
20:58:56.424,-0.23,0.035
20:58:56.428,-0.235,0.05
20:58:56.432,-0.215,0.05
20:58:56.436,-0.205,0.035
20:58:56.440,-0.205,0.04
20:58:56.444,-0.215,0.05
20:58:56.448,-0.22,0.05
20:58:56.452,-0.21,0.05
20:58:56.456,-0.21,0.05
20:58:56.460,-0.22,0.055
20:58:56.464,-0.23,0.06
20:58:56.468,-0.225,0.075
20:58:56.472,-0.23,0.06
20:58:56.476,-0.225,0.1
20:58:56.480,-0.225,0.09
20:58:56.484,-0.225,0.07
20:58:56.488,-0.25,0.08
20:58:56.492,-0.235,0.085
20:58:56.496,-0.255,0.07
20:58:56.500,-0.24,0.035
20:58:56.504,-0.23,0.075
20:58:56.508,-0.22,0.05
20:58:56.512,-0.22,0.055
20:58:56.516,-0.2,0.035
20:58:56.520,-0.2,0.06
20:58:56.524,-0.19,0.055
20:58:56.528,-0.18,0.055
20:58:56.532,-0.135,0.085
20:58:56.536,-0.09,0.09
20:58:56.540,-0.07,0.11
20:58:56.544,-0.05,0.11
20:58:56.548,-0.02,0.09
20:58:56.552,0.0,0.105
20:58:56.556,0.02,0.14
20:58:56.560,0.03,0.125
20:58:56.564,0.025,0.105
20:58:56.568,0.02,0.09
20:58:56.572,-0.015,0.065
20:58:56.576,-0.045,0.035
20:58:56.580,-0.09,0.035
20:58:56.584,-0.145,0.015
20:58:56.588,-0.2,0.035
20:58:56.592,-0.26,0.04
20:58:56.596,-0.3,0.045
20:58:56.600,-0.35,0.05
20:58:56.604,-0.385,0.055
20:58:56.608,-0.38,0.045
20:58:56.612,-0.38,0.05
20:58:56.616,-0.385,0.035
20:58:56.620,-0.365,0.02
20:58:56.624,-0.35,0.0
20:58:56.628,-0.37,-0.015
20:58:56.632,-0.35,0.0
20:58:56.636,-0.34,-0.005
20:58:56.640,-0.34,-0.01
20:58:56.644,-0.35,-0.01
20:58:56.648,-0.335,0.0
20:58:56.652,-0.335,0.01
20:58:56.656,-0.335,0.005
20:58:56.660,-0.31,0.005
20:58:56.664,-0.3,0.015
20:58:56.668,-0.3,0.025
20:58:56.672,-0.305,0.0
20:58:56.676,-0.3,0.015
20:58:56.680,-0.3,0.02
20:58:56.684,-0.3,0.005
20:58:56.688,-0.285,0.01
20:58:56.692,-0.28,0.005
20:58:56.696,-0.285,0.02
20:58:56.700,-0.275,0.015
20:58:56.704,-0.265,0.015
20:58:56.708,-0.255,0.015
20:58:56.712,-0.24,0.01
20:58:56.716,-0.215,0.0
20:58:56.720,-0.16,0.0
20:58:56.724,-0.095,0.0
20:58:56.728,-0.015,-0.01
20:58:56.732,0.07,-0.03
20:58:56.736,0.11,-0.06
20:58:56.740,0.155,-0.115
20:58:56.744,0.19,-0.14
20:58:56.748,0.18,-0.175
20:58:56.752,0.165,-0.22
20:58:56.756,0.205,-0.36
20:58:56.760,0.37,-0.5
20:58:56.764,0.69,-0.695
20:58:56.768,0.995,-0.96
20:58:56.772,1.16,-1.155
20:58:56.776,1.02,-1.295
20:58:56.780,0.57,-1.16
20:58:56.784,0.11,-0.785
20:58:56.788,-0.19,-0.37
20:58:56.792,-0.345,-0.16
20:58:56.796,-0.38,0.0
20:58:56.800,-0.42,0.09
20:58:56.804,-0.43,0.145
20:58:56.808,-0.45,0.165
20:58:56.812,-0.46,0.185
20:58:56.816,-0.46,0.2
20:58:56.820,-0.46,0.195
20:58:56.824,-0.485,0.175
20:58:56.828,-0.45,0.185
20:58:56.832,-0.45,0.17
20:58:56.836,-0.45,0.155
20:58:56.840,-0.47,0.155
20:58:56.844,-0.485,0.155
20:58:56.848,-0.49,0.155
20:58:56.852,-0.5,0.16
20:58:56.856,-0.495,0.15
20:58:56.860,-0.5,0.175
20:58:56.864,-0.495,0.18
20:58:56.868,-0.5,0.185
20:58:56.872,-0.505,0.185
20:58:56.876,-0.5,0.155
20:58:56.880,-0.52,0.18
20:58:56.884,-0.5,0.155
20:58:56.888,-0.5,0.18
20:58:56.892,-0.5,0.18
20:58:56.896,-0.52,0.18
20:58:56.900,-0.505,0.195
20:58:56.904,-0.535,0.195
20:58:56.908,-0.54,0.175
20:58:56.912,-0.53,0.195
20:58:56.916,-0.55,0.195
20:58:56.920,-0.545,0.185
20:58:56.924,-0.56,0.195
20:58:56.928,-0.54,0.2
20:58:56.932,-0.54,0.18
20:58:56.936,-0.55,0.17
20:58:56.940,-0.57,0.18
20:58:56.944,-0.545,0.2
20:58:56.948,-0.54,0.18
20:58:56.952,-0.55,0.155
20:58:56.956,-0.545,0.16
20:58:56.960,-0.54,0.165
20:58:56.964,-0.525,0.165
20:58:56.968,-0.515,0.125
20:58:56.972,-0.5,0.12
20:58:56.976,-0.485,0.135
20:58:56.980,-0.475,0.12
20:58:56.984,-0.48,0.13
20:58:56.988,-0.465,0.12
20:58:56.992,-0.44,0.11
20:58:56.996,-0.405,0.115
20:58:57.000,-0.39,0.11
20:58:57.004,-0.37,0.075
20:58:57.008,-0.38,0.075
20:58:57.012,-0.36,0.065
20:58:57.016,-0.335,0.09
20:58:57.020,-0.32,0.065
20:58:57.024,-0.305,0.065
20:58:57.028,-0.295,0.03
20:58:57.032,-0.315,0.055
20:58:57.036,-0.305,0.045
20:58:57.040,-0.32,0.02
20:58:57.044,-0.305,0.03
20:58:57.048,-0.3,0.04
20:58:57.052,-0.285,0.0
20:58:57.056,-0.29,0.015
20:58:57.060,-0.275,0.01
20:58:57.064,-0.285,0.0
20:58:57.068,-0.29,-0.01
20:58:57.072,-0.285,0.0
20:58:57.076,-0.275,0.0
20:58:57.080,-0.27,-0.005
20:58:57.084,-0.3,-0.03
20:58:57.088,-0.315,-0.025
20:58:57.092,-0.315,-0.03
20:58:57.096,-0.285,-0.02
20:58:57.100,-0.295,0.0
20:58:57.104,-0.28,-0.02
20:58:57.108,-0.285,-0.03
20:58:57.112,-0.27,-0.03
20:58:57.116,-0.29,-0.035
20:58:57.120,-0.27,-0.035
20:58:57.124,-0.275,-0.02
20:58:57.128,-0.255,-0.04
20:58:57.132,-0.275,-0.05
20:58:57.136,-0.28,-0.045
20:58:57.140,-0.28,-0.03
20:58:57.144,-0.295,-0.03
20:58:57.148,-0.29,-0.045
20:58:57.152,-0.29,-0.065
20:58:57.156,-0.27,-0.075
20:58:57.160,-0.28,-0.08
20:58:57.164,-0.29,-0.09
20:58:57.168,-0.27,-0.105
20:58:57.172,-0.275,-0.09
20:58:57.176,-0.275,-0.13
20:58:57.180,-0.28,-0.12
20:58:57.184,-0.27,-0.14
20:58:57.188,-0.245,-0.14
20:58:57.192,-0.23,-0.135
20:58:57.196,-0.18,-0.145
20:58:57.200,-0.13,-0.135
20:58:57.204,-0.11,-0.145
20:58:57.208,-0.1,-0.13
20:58:57.212,-0.075,-0.14
20:58:57.216,-0.045,-0.13
20:58:57.220,-0.01,-0.155
20:58:57.224,0.02,-0.14
20:58:57.228,0.01,-0.15
20:58:57.232,0.015,-0.16
20:58:57.236,-0.055,-0.22
20:58:57.240,-0.08,-0.24
20:58:57.244,-0.15,-0.27
20:58:57.248,-0.17,-0.28
20:58:57.252,-0.245,-0.265
20:58:57.256,-0.3,-0.285
20:58:57.260,-0.335,-0.295
20:58:57.264,-0.36,-0.29
20:58:57.268,-0.38,-0.28
20:58:57.272,-0.405,-0.305
20:58:57.276,-0.42,-0.315
20:58:57.280,-0.415,-0.34
20:58:57.284,-0.405,-0.35
20:58:57.288,-0.405,-0.37
20:58:57.292,-0.405,-0.375
20:58:57.296,-0.41,-0.375
20:58:57.300,-0.37,-0.395
20:58:57.304,-0.375,-0.39
20:58:57.308,-0.39,-0.4
20:58:57.312,-0.39,-0.41
20:58:57.316,-0.395,-0.425
20:58:57.320,-0.395,-0.425
20:58:57.324,-0.385,-0.445
20:58:57.328,-0.385,-0.425
20:58:57.332,-0.37,-0.435
20:58:57.336,-0.37,-0.44
20:58:57.340,-0.34,-0.425
20:58:57.344,-0.345,-0.425
20:58:57.348,-0.325,-0.435
20:58:57.352,-0.34,-0.43
20:58:57.356,-0.33,-0.44
20:58:57.360,-0.34,-0.44
20:58:57.364,-0.315,-0.46
20:58:57.368,-0.32,-0.445
20:58:57.372,-0.305,-0.46
20:58:57.376,-0.26,-0.45
20:58:57.380,-0.205,-0.47
20:58:57.384,-0.11,-0.46
20:58:57.388,-0.025,-0.45
20:58:57.392,0.06,-0.475
20:58:57.396,0.12,-0.52
20:58:57.400,0.19,-0.57
20:58:57.404,0.23,-0.58
20:58:57.408,0.295,-0.59
20:58:57.412,0.28,-0.64
20:58:57.416,0.31,-0.73
20:58:57.420,0.4,-0.825
20:58:57.424,0.635,-1.0
20:58:57.428,0.93,-1.23
20:58:57.432,1.11,-1.43
20:58:57.436,1.04,-1.57
20:58:57.440,0.66,-1.56
20:58:57.444,0.175,-1.285
20:58:57.448,-0.155,-0.94
20:58:57.452,-0.265,-0.705
20:58:57.456,-0.32,-0.57
20:58:57.460,-0.325,-0.445
20:58:57.464,-0.345,-0.37
20:58:57.468,-0.38,-0.325
20:58:57.472,-0.43,-0.3
20:58:57.476,-0.44,-0.295
20:58:57.480,-0.44,-0.27
20:58:57.484,-0.445,-0.285
20:58:57.488,-0.445,-0.285
20:58:57.492,-0.455,-0.31
20:58:57.496,-0.46,-0.31
20:58:57.500,-0.465,-0.275
20:58:57.504,-0.465,-0.29
20:58:57.508,-0.495,-0.27
20:58:57.512,-0.505,-0.285
20:58:57.516,-0.495,-0.275
20:58:57.520,-0.5,-0.255
20:58:57.524,-0.495,-0.275
20:58:57.528,-0.49,-0.275
20:58:57.532,-0.49,-0.265
20:58:57.536,-0.49,-0.255
20:58:57.540,-0.495,-0.215
20:58:57.544,-0.505,-0.215
20:58:57.548,-0.515,-0.2
20:58:57.552,-0.5,-0.195
20:58:57.556,-0.525,-0.19
20:58:57.560,-0.515,-0.165
20:58:57.564,-0.505,-0.165
20:58:57.568,-0.495,-0.145
20:58:57.572,-0.5,-0.125
20:58:57.576,-0.5,-0.12
20:58:57.580,-0.5,-0.125
20:58:57.584,-0.515,-0.09
20:58:57.588,-0.505,-0.1
20:58:57.592,-0.5,-0.085
20:58:57.596,-0.51,-0.07
20:58:57.600,-0.505,-0.035
20:58:57.604,-0.51,-0.07
20:58:57.608,-0.51,-0.045
20:58:57.612,-0.5,-0.03
20:58:57.616,-0.485,-0.04
20:58:57.620,-0.5,-0.03
20:58:57.624,-0.5,-0.025
20:58:57.628,-0.48,-0.02
20:58:57.632,-0.45,-0.01
20:58:57.636,-0.43,-0.02
20:58:57.640,-0.44,-0.01
20:58:57.644,-0.43,-0.035
20:58:57.648,-0.42,-0.04
20:58:57.652,-0.41,-0.03
20:58:57.656,-0.38,-0.05
20:58:57.660,-0.4,-0.065
20:58:57.664,-0.365,-0.04
20:58:57.668,-0.36,-0.05
20:58:57.672,-0.34,-0.05
20:58:57.676,-0.32,-0.05
20:58:57.680,-0.32,-0.045
20:58:57.684,-0.295,-0.06
20:58:57.688,-0.26,-0.05
20:58:57.692,-0.255,-0.05
20:58:57.696,-0.245,-0.05
20:58:57.700,-0.225,-0.04
20:58:57.704,-0.24,-0.05
20:58:57.708,-0.24,-0.05
20:58:57.712,-0.235,-0.055
20:58:57.716,-0.245,-0.055
20:58:57.720,-0.21,-0.06
20:58:57.724,-0.22,-0.03
20:58:57.728,-0.215,-0.02
20:58:57.732,-0.235,-0.05
20:58:57.736,-0.235,-0.025
20:58:57.740,-0.245,-0.055
20:58:57.744,-0.245,-0.035
20:58:57.748,-0.22,-0.03
20:58:57.752,-0.22,-0.025
20:58:57.756,-0.215,-0.025
20:58:57.760,-0.235,-0.02
20:58:57.764,-0.21,-0.025
20:58:57.768,-0.235,-0.05
20:58:57.772,-0.225,-0.015
20:58:57.776,-0.23,-0.01
20:58:57.780,-0.22,-0.025
20:58:57.784,-0.23,-0.03
20:58:57.788,-0.22,-0.02
20:58:57.792,-0.205,-0.01
20:58:57.796,-0.195,0.005
20:58:57.800,-0.21,0.0
20:58:57.804,-0.205,0.0
20:58:57.808,-0.215,0.015
20:58:57.812,-0.205,0.005
20:58:57.816,-0.195,0.0
20:58:57.820,-0.185,0.01
20:58:57.824,-0.195,-0.025
20:58:57.828,-0.18,0.015
20:58:57.832,-0.16,0.03
20:58:57.836,-0.17,0.03
20:58:57.840,-0.16,0.01
20:58:57.844,-0.135,0.02
20:58:57.848,-0.09,0.05
20:58:57.852,-0.06,0.04
20:58:57.856,-0.035,0.06
20:58:57.860,-0.03,0.065
20:58:57.864,0.01,0.055
20:58:57.868,0.03,0.05
20:58:57.872,0.055,0.045
20:58:57.876,0.055,0.045
20:58:57.880,0.07,0.03
20:58:57.884,0.055,0.015
20:58:57.888,0.025,0.01
20:58:57.892,-0.02,-0.015
20:58:57.896,-0.085,-0.005
20:58:57.900,-0.115,-0.01
20:58:57.904,-0.14,-0.005
20:58:57.908,-0.21,0.02
20:58:57.912,-0.215,0.025
20:58:57.916,-0.265,0.045
20:58:57.920,-0.295,0.04
20:58:57.924,-0.325,0.06
20:58:57.928,-0.32,0.05
20:58:57.932,-0.325,0.045
20:58:57.936,-0.305,0.005
20:58:57.940,-0.295,0.015
20:58:57.944,-0.28,0.035
20:58:57.948,-0.275,0.01
20:58:57.952,-0.275,0.005
20:58:57.956,-0.295,0.025
20:58:57.960,-0.28,0.005
20:58:57.964,-0.26,0.0
20:58:57.968,-0.255,0.005
20:58:57.972,-0.275,0.0
20:58:57.976,-0.275,0.005
20:58:57.980,-0.28,0.0
20:58:57.984,-0.27,0.015
20:58:57.988,-0.275,0.0
20:58:57.992,-0.245,0.015
20:58:57.996,-0.27,0.02
20:58:58.000,-0.26,0.025
20:58:58.004,-0.25,0.005
20:58:58.008,-0.255,0.01
20:58:58.012,-0.26,0.015
20:58:58.016,-0.23,0.0
20:58:58.020,-0.225,0.015
20:58:58.024,-0.2,0.015
20:58:58.028,-0.17,0.0
20:58:58.032,-0.095,0.015
20:58:58.036,-0.03,0.005
20:58:58.040,0.055,0.01
20:58:58.044,0.135,0.0
20:58:58.048,0.2,-0.035
20:58:58.052,0.235,-0.11
20:58:58.056,0.27,-0.125
20:58:58.060,0.29,-0.14
20:58:58.064,0.28,-0.2
20:58:58.068,0.285,-0.295
20:58:58.072,0.355,-0.44
20:58:58.076,0.585,-0.63
20:58:58.080,0.935,-0.875
20:58:58.084,1.18,-1.12
20:58:58.088,1.2,-1.3
20:58:58.092,0.92,-1.3
20:58:58.096,0.44,-1.02
20:58:58.100,0.0,-0.635
20:58:58.104,-0.205,-0.31
20:58:58.108,-0.295,-0.14
20:58:58.112,-0.305,0.0
20:58:58.116,-0.32,0.075
20:58:58.120,-0.33,0.115
20:58:58.124,-0.34,0.165
20:58:58.128,-0.36,0.16
20:58:58.132,-0.33,0.17
20:58:58.136,-0.35,0.165
20:58:58.140,-0.33,0.15
20:58:58.144,-0.345,0.145
20:58:58.148,-0.355,0.155
20:58:58.152,-0.34,0.145
20:58:58.156,-0.35,0.17
20:58:58.160,-0.32,0.155
20:58:58.164,-0.355,0.135
20:58:58.168,-0.36,0.15
20:58:58.172,-0.36,0.135
20:58:58.176,-0.355,0.145
20:58:58.180,-0.365,0.15
20:58:58.184,-0.38,0.155
20:58:58.188,-0.395,0.155
20:58:58.192,-0.4,0.135
20:58:58.196,-0.395,0.125
20:58:58.200,-0.4,0.14
20:58:58.204,-0.4,0.14
20:58:58.208,-0.41,0.145
20:58:58.212,-0.425,0.155
20:58:58.216,-0.42,0.145
20:58:58.220,-0.435,0.14
20:58:58.224,-0.42,0.14
20:58:58.228,-0.43,0.165
20:58:58.232,-0.42,0.14
20:58:58.236,-0.435,0.15
20:58:58.240,-0.42,0.15
20:58:58.244,-0.41,0.135
20:58:58.248,-0.405,0.155
20:58:58.252,-0.385,0.165
20:58:58.256,-0.41,0.13
20:58:58.260,-0.39,0.17
20:58:58.264,-0.385,0.18
20:58:58.268,-0.38,0.17
20:58:58.272,-0.38,0.165
20:58:58.276,-0.38,0.17
20:58:58.280,-0.375,0.155
20:58:58.284,-0.37,0.15
20:58:58.288,-0.345,0.145
20:58:58.292,-0.325,0.135
20:58:58.296,-0.355,0.135
20:58:58.300,-0.36,0.125
20:58:58.304,-0.33,0.135
20:58:58.308,-0.315,0.09
20:58:58.312,-0.295,0.085
20:58:58.316,-0.29,0.085
20:58:58.320,-0.25,0.07
20:58:58.324,-0.285,0.055
20:58:58.328,-0.24,0.055
20:58:58.332,-0.24,0.05
20:58:58.336,-0.215,0.06
20:58:58.340,-0.225,0.055
20:58:58.344,-0.205,0.065
20:58:58.348,-0.195,0.045
20:58:58.352,-0.17,0.04
20:58:58.356,-0.16,0.05
20:58:58.360,-0.16,0.07
20:58:58.364,-0.15,0.05
20:58:58.368,-0.15,0.055
20:58:58.372,-0.155,0.07
20:58:58.376,-0.15,0.065
20:58:58.380,-0.16,0.065
20:58:58.384,-0.16,0.06
20:58:58.388,-0.145,0.08
20:58:58.392,-0.155,0.08
20:58:58.396,-0.145,0.09
20:58:58.400,-0.15,0.09
20:58:58.404,-0.15,0.075
20:58:58.408,-0.175,0.07
20:58:58.412,-0.17,0.08
20:58:58.416,-0.17,0.09
20:58:58.420,-0.18,0.08
20:58:58.424,-0.175,0.07
20:58:58.428,-0.18,0.08
20:58:58.432,-0.18,0.09
20:58:58.436,-0.185,0.09
20:58:58.440,-0.175,0.09
20:58:58.444,-0.16,0.095
20:58:58.448,-0.18,0.07
20:58:58.452,-0.18,0.07
20:58:58.456,-0.155,0.08
20:58:58.460,-0.14,0.075
20:58:58.464,-0.13,0.075
20:58:58.468,-0.09,0.075
20:58:58.472,-0.11,0.085
20:58:58.476,-0.095,0.075
20:58:58.480,-0.07,0.095
20:58:58.484,-0.045,0.115
20:58:58.488,-0.005,0.135
20:58:58.492,0.005,0.13
20:58:58.496,0.045,0.14
20:58:58.500,0.065,0.145
20:58:58.504,0.075,0.135
20:58:58.508,0.085,0.125
20:58:58.512,0.075,0.115
20:58:58.516,0.08,0.11
20:58:58.520,0.04,0.09
20:58:58.524,-0.02,0.055
20:58:58.528,-0.07,0.055
20:58:58.532,-0.115,0.045
20:58:58.536,-0.17,0.015
20:58:58.540,-0.235,0.025
20:58:58.544,-0.265,0.035
20:58:58.548,-0.295,0.04
20:58:58.552,-0.34,0.045
20:58:58.556,-0.355,0.05
20:58:58.560,-0.35,0.035
20:58:58.564,-0.335,0.06
20:58:58.568,-0.33,0.05
20:58:58.572,-0.32,0.055
20:58:58.576,-0.315,0.035
20:58:58.580,-0.3,0.045
20:58:58.584,-0.295,0.055
20:58:58.588,-0.305,0.05
20:58:58.592,-0.315,0.06
20:58:58.596,-0.325,0.08
20:58:58.600,-0.32,0.07
20:58:58.604,-0.315,0.075
20:58:58.608,-0.32,0.09
20:58:58.612,-0.31,0.055
20:58:58.616,-0.3,0.07
20:58:58.620,-0.295,0.08
20:58:58.624,-0.3,0.07
20:58:58.628,-0.31,0.08
20:58:58.632,-0.345,0.065
20:58:58.636,-0.34,0.075
20:58:58.640,-0.33,0.055
20:58:58.644,-0.33,0.06
20:58:58.648,-0.33,0.05
20:58:58.652,-0.315,0.045
20:58:58.656,-0.31,0.05
20:58:58.660,-0.29,0.055
20:58:58.664,-0.235,0.06
20:58:58.668,-0.16,0.04
20:58:58.672,-0.08,0.055
20:58:58.676,0.015,0.035
20:58:58.680,0.085,0.0
20:58:58.684,0.145,-0.025
20:58:58.688,0.175,-0.08
20:58:58.692,0.22,-0.065
20:58:58.696,0.235,-0.105
20:58:58.700,0.22,-0.165
20:58:58.704,0.245,-0.27
20:58:58.708,0.41,-0.44
20:58:58.712,0.72,-0.655
20:58:58.716,0.98,-0.935
20:58:58.720,1.105,-1.145
20:58:58.724,0.935,-1.25
20:58:58.728,0.49,-1.09
20:58:58.732,0.025,-0.68
20:58:58.736,-0.255,-0.35
20:58:58.740,-0.38,-0.155
20:58:58.744,-0.39,-0.01
20:58:58.748,-0.4,0.08
20:58:58.752,-0.395,0.12
20:58:58.756,-0.44,0.14
20:58:58.760,-0.46,0.17
20:58:58.764,-0.455,0.15
20:58:58.768,-0.485,0.135
20:58:58.772,-0.485,0.11
20:58:58.776,-0.5,0.105
20:58:58.780,-0.48,0.085
20:58:58.784,-0.5,0.09
20:58:58.788,-0.515,0.08
20:58:58.792,-0.515,0.09
20:58:58.796,-0.52,0.095
20:58:58.800,-0.51,0.095
20:58:58.804,-0.52,0.09
20:58:58.808,-0.485,0.09
20:58:58.812,-0.495,0.09
20:58:58.816,-0.495,0.08
20:58:58.820,-0.51,0.09
20:58:58.824,-0.5,0.075
20:58:58.828,-0.49,0.065
20:58:58.832,-0.51,0.07
20:58:58.836,-0.5,0.06
20:58:58.840,-0.52,0.055
20:58:58.844,-0.525,0.06
20:58:58.848,-0.53,0.035
20:58:58.852,-0.53,0.055
20:58:58.856,-0.55,0.055
20:58:58.860,-0.545,0.045
20:58:58.864,-0.565,0.065
20:58:58.868,-0.58,0.06
20:58:58.872,-0.585,0.04
20:58:58.876,-0.585,0.035
20:58:58.880,-0.57,0.035
20:58:58.884,-0.555,0.03
20:58:58.888,-0.555,0.025
20:58:58.892,-0.53,0.01
20:58:58.896,-0.515,0.015
20:58:58.900,-0.535,0.035
20:58:58.904,-0.515,0.035
20:58:58.908,-0.505,0.02
20:58:58.912,-0.505,0.015
20:58:58.916,-0.475,-0.01
20:58:58.920,-0.465,-0.015
20:58:58.924,-0.445,-0.005
20:58:58.928,-0.44,-0.04
20:58:58.932,-0.44,-0.05
20:58:58.936,-0.41,-0.055
20:58:58.940,-0.41,-0.025
20:58:58.944,-0.385,-0.045
20:58:58.948,-0.365,-0.065
20:58:58.952,-0.36,-0.075
20:58:58.956,-0.355,-0.115
20:58:58.960,-0.36,-0.115
20:58:58.964,-0.34,-0.105
20:58:58.968,-0.32,-0.125
20:58:58.972,-0.32,-0.145
20:58:58.976,-0.31,-0.16
20:58:58.980,-0.31,-0.155
20:58:58.984,-0.285,-0.16
20:58:58.988,-0.29,-0.155
20:58:58.992,-0.285,-0.185
20:58:58.996,-0.27,-0.19
20:58:59.000,-0.265,-0.2
20:58:59.004,-0.275,-0.185
20:58:59.008,-0.26,-0.19
20:58:59.012,-0.27,-0.23
20:58:59.016,-0.28,-0.2
20:58:59.020,-0.285,-0.2
20:58:59.024,-0.255,-0.205
20:58:59.028,-0.275,-0.22
20:58:59.032,-0.23,-0.2
20:58:59.036,-0.25,-0.21
20:58:59.040,-0.24,-0.23
20:58:59.044,-0.25,-0.21
20:58:59.048,-0.245,-0.23
20:58:59.052,-0.22,-0.21
20:58:59.056,-0.255,-0.22
20:58:59.060,-0.28,-0.215
20:58:59.064,-0.285,-0.25
20:58:59.068,-0.285,-0.245
20:58:59.072,-0.275,-0.235
20:58:59.076,-0.27,-0.255
20:58:59.080,-0.255,-0.265
20:58:59.084,-0.26,-0.27
20:58:59.088,-0.26,-0.275
20:58:59.092,-0.265,-0.285
20:58:59.096,-0.29,-0.31
20:58:59.100,-0.285,-0.3
20:58:59.104,-0.3,-0.31
20:58:59.108,-0.295,-0.34
20:58:59.112,-0.29,-0.32
20:58:59.116,-0.265,-0.34
20:58:59.120,-0.27,-0.35
20:58:59.124,-0.245,-0.36
20:58:59.128,-0.225,-0.34
20:58:59.132,-0.225,-0.34
20:58:59.136,-0.195,-0.36
20:58:59.140,-0.15,-0.335
20:58:59.144,-0.125,-0.335
20:58:59.148,-0.085,-0.315
20:58:59.152,-0.06,-0.285
20:58:59.156,0.0,-0.305
20:58:59.160,0.0,-0.32
20:58:59.164,0.025,-0.315
20:58:59.168,0.025,-0.315
20:58:59.172,0.02,-0.31
20:58:59.176,-0.01,-0.36
20:58:59.180,-0.055,-0.37
20:58:59.184,-0.1,-0.385
20:58:59.188,-0.14,-0.395
20:58:59.192,-0.2,-0.4
20:58:59.196,-0.26,-0.395
20:58:59.200,-0.315,-0.4
20:58:59.204,-0.36,-0.38
20:58:59.208,-0.365,-0.395
20:58:59.212,-0.385,-0.37
20:58:59.216,-0.385,-0.405
20:58:59.220,-0.39,-0.4
20:58:59.224,-0.385,-0.405
20:58:59.228,-0.37,-0.415
20:58:59.232,-0.355,-0.42
20:58:59.236,-0.365,-0.42
20:58:59.240,-0.355,-0.415
20:58:59.244,-0.355,-0.42
20:58:59.248,-0.345,-0.41
20:58:59.252,-0.345,-0.405
20:58:59.256,-0.345,-0.385
20:58:59.260,-0.335,-0.4
20:58:59.264,-0.32,-0.4
20:58:59.268,-0.335,-0.39
20:58:59.272,-0.32,-0.375
20:58:59.276,-0.305,-0.355
20:58:59.280,-0.295,-0.37
20:58:59.284,-0.315,-0.375
20:58:59.288,-0.31,-0.37
20:58:59.292,-0.305,-0.355
20:58:59.296,-0.295,-0.35
20:58:59.300,-0.285,-0.32
20:58:59.304,-0.29,-0.345
20:58:59.308,-0.295,-0.335
20:58:59.312,-0.29,-0.315
20:58:59.316,-0.26,-0.32
20:58:59.320,-0.185,-0.32
20:58:59.324,-0.125,-0.33
20:58:59.328,-0.035,-0.34
20:58:59.332,0.075,-0.325
20:58:59.336,0.155,-0.375
20:58:59.340,0.215,-0.43
20:58:59.344,0.295,-0.445
20:58:59.348,0.33,-0.43
20:58:59.352,0.32,-0.46
20:58:59.356,0.32,-0.505
20:58:59.360,0.37,-0.61
20:58:59.364,0.575,-0.765
20:58:59.368,0.905,-0.965
20:58:59.372,1.16,-1.18
20:58:59.376,1.205,-1.36
20:58:59.380,0.955,-1.415
20:58:59.384,0.48,-1.215
20:58:59.388,0.055,-0.83
20:58:59.392,-0.18,-0.55
20:58:59.396,-0.27,-0.375
20:58:59.400,-0.305,-0.255
20:58:59.404,-0.305,-0.15
20:58:59.408,-0.32,-0.09
20:58:59.412,-0.345,-0.065
20:58:59.416,-0.38,-0.045
20:58:59.420,-0.375,-0.05
20:58:59.424,-0.395,-0.05
20:58:59.428,-0.4,-0.055
20:58:59.432,-0.425,-0.06
20:58:59.436,-0.4,-0.06
20:58:59.440,-0.415,-0.035
20:58:59.444,-0.425,-0.08
20:58:59.448,-0.425,-0.04
20:58:59.452,-0.425,-0.055
20:58:59.456,-0.415,-0.07
20:58:59.460,-0.43,-0.095
20:58:59.464,-0.425,-0.06
20:58:59.468,-0.45,-0.055
20:58:59.472,-0.43,-0.055
20:58:59.476,-0.43,-0.055
20:58:59.480,-0.44,-0.05
20:58:59.484,-0.44,-0.05
20:58:59.488,-0.42,-0.045
20:58:59.492,-0.435,-0.055
20:58:59.496,-0.44,-0.055
20:58:59.500,-0.44,-0.02
20:58:59.504,-0.445,0.0
20:58:59.508,-0.44,-0.05
20:58:59.512,-0.44,-0.03
20:58:59.516,-0.44,-0.035
20:58:59.520,-0.445,-0.05
20:58:59.524,-0.47,-0.02
20:58:59.528,-0.47,-0.025
20:58:59.532,-0.47,-0.035
20:58:59.536,-0.47,-0.05
20:58:59.540,-0.46,-0.04
20:58:59.544,-0.465,-0.02
20:58:59.548,-0.485,-0.02
20:58:59.552,-0.47,-0.01
20:58:59.556,-0.46,-0.02
20:58:59.560,-0.45,-0.035
20:58:59.564,-0.455,-0.035
20:58:59.568,-0.445,-0.04
20:58:59.572,-0.425,-0.035
20:58:59.576,-0.41,-0.08
20:58:59.580,-0.405,-0.065
20:58:59.584,-0.38,-0.055
20:58:59.588,-0.4,-0.04
20:58:59.592,-0.37,-0.055
20:58:59.596,-0.35,-0.06
20:58:59.600,-0.325,-0.075
20:58:59.604,-0.31,-0.055
20:58:59.608,-0.295,-0.06
20:58:59.612,-0.295,-0.065
20:58:59.616,-0.26,-0.05
20:58:59.620,-0.26,-0.07
20:58:59.624,-0.265,-0.065
20:58:59.628,-0.26,-0.07
20:58:59.632,-0.24,-0.09
20:58:59.636,-0.225,-0.08
20:58:59.640,-0.235,-0.07
20:58:59.644,-0.2,-0.08
20:58:59.648,-0.22,-0.075
20:58:59.652,-0.2,-0.08
20:58:59.656,-0.21,-0.08
20:58:59.660,-0.21,-0.075
20:58:59.664,-0.205,-0.095
20:58:59.668,-0.21,-0.08
20:58:59.672,-0.195,-0.07
20:58:59.676,-0.195,-0.085
20:58:59.680,-0.205,-0.065
20:58:59.684,-0.195,-0.06
20:58:59.688,-0.19,-0.075
20:58:59.692,-0.21,-0.06
20:58:59.696,-0.195,-0.065
20:58:59.700,-0.18,-0.065
20:58:59.704,-0.175,-0.045
20:58:59.708,-0.17,-0.06
20:58:59.712,-0.17,-0.06
20:58:59.716,-0.17,-0.05
20:58:59.720,-0.165,-0.04
20:58:59.724,-0.145,-0.045
20:58:59.728,-0.15,-0.045
20:58:59.732,-0.185,-0.045
20:58:59.736,-0.19,-0.04
20:58:59.740,-0.175,-0.02
20:58:59.744,-0.16,-0.02
20:58:59.748,-0.18,-0.035
20:58:59.752,-0.145,-0.035
20:58:59.756,-0.14,-0.04
20:58:59.760,-0.14,-0.02
20:58:59.764,-0.14,-0.01
20:58:59.768,-0.145,-0.025
20:58:59.772,-0.145,0.0
20:58:59.776,-0.105,-0.015
20:58:59.780,-0.07,-0.02
20:58:59.784,-0.04,0.0
20:58:59.788,-0.015,0.0
20:58:59.792,0.0,0.0
20:58:59.796,0.025,0.035
20:58:59.800,0.045,0.02
20:58:59.804,0.065,0.03
20:58:59.808,0.065,0.035
20:58:59.812,0.085,0.025
20:58:59.816,0.07,-0.01
20:58:59.820,0.055,-0.025
20:58:59.824,0.0,-0.025
20:58:59.828,-0.03,-0.035
20:58:59.832,-0.09,-0.04
20:58:59.836,-0.14,-0.05
20:58:59.840,-0.185,-0.055
20:58:59.844,-0.235,-0.015
20:58:59.848,-0.27,-0.01
20:58:59.852,-0.28,0.005
20:58:59.856,-0.285,0.0
20:58:59.860,-0.295,-0.015
20:58:59.864,-0.295,-0.025
20:58:59.868,-0.295,-0.03
20:58:59.872,-0.28,-0.02
20:58:59.876,-0.28,-0.035
20:58:59.880,-0.28,-0.025
20:58:59.884,-0.285,-0.025
20:58:59.888,-0.28,-0.045
20:58:59.892,-0.285,-0.03
20:58:59.896,-0.28,-0.05
20:58:59.900,-0.275,-0.04
20:58:59.904,-0.275,-0.06
20:58:59.908,-0.27,-0.03
20:58:59.912,-0.27,-0.055
20:58:59.916,-0.26,-0.045
20:58:59.920,-0.26,-0.04
20:58:59.924,-0.255,-0.05
20:58:59.928,-0.25,-0.06
20:58:59.932,-0.225,-0.06
20:58:59.936,-0.22,-0.04
20:58:59.940,-0.225,-0.05
20:58:59.944,-0.21,-0.06
20:58:59.948,-0.215,-0.04
20:58:59.952,-0.21,-0.035
20:58:59.956,-0.16,-0.04
20:58:59.960,-0.125,-0.02
20:58:59.964,-0.075,-0.02
20:58:59.968,0.015,-0.035
20:58:59.972,0.115,-0.055
20:58:59.976,0.175,-0.07
20:58:59.980,0.225,-0.12
20:58:59.984,0.265,-0.165
20:58:59.988,0.27,-0.19
20:58:59.992,0.275,-0.215
20:58:59.996,0.265,-0.28
20:59:00.000,0.32,-0.395
20:59:00.004,0.485,-0.57
20:59:00.008,0.795,-0.785
20:59:00.012,1.1,-1.015
20:59:00.016,1.225,-1.215
20:59:00.020,1.11,-1.31
20:59:00.024,0.665,-1.16
20:59:00.028,0.18,-0.805
20:59:00.032,-0.145,-0.435
20:59:00.036,-0.27,-0.2
20:59:00.040,-0.3,-0.06
20:59:00.044,-0.3,0.035
20:59:00.048,-0.29,0.09
20:59:00.052,-0.31,0.14
20:59:00.056,-0.32,0.135
20:59:00.060,-0.335,0.14
20:59:00.064,-0.315,0.13
20:59:00.068,-0.335,0.12
20:59:00.072,-0.345,0.125
20:59:00.076,-0.34,0.12
20:59:00.080,-0.32,0.13
20:59:00.084,-0.345,0.12
20:59:00.088,-0.34,0.135
20:59:00.092,-0.34,0.135
20:59:00.096,-0.355,0.125
20:59:00.100,-0.365,0.13
20:59:00.104,-0.355,0.115
20:59:00.108,-0.37,0.095
20:59:00.112,-0.395,0.115
20:59:00.116,-0.375,0.115
20:59:00.120,-0.38,0.11
20:59:00.124,-0.385,0.13
20:59:00.128,-0.395,0.115
20:59:00.132,-0.39,0.125
20:59:00.136,-0.4,0.12
20:59:00.140,-0.4,0.135
20:59:00.144,-0.41,0.11
20:59:00.148,-0.415,0.115
20:59:00.152,-0.42,0.1
20:59:00.156,-0.41,0.11
20:59:00.160,-0.405,0.14
20:59:00.164,-0.415,0.11
20:59:00.168,-0.42,0.145
20:59:00.172,-0.415,0.115
20:59:00.176,-0.4,0.125
20:59:00.180,-0.4,0.145
20:59:00.184,-0.395,0.16
20:59:00.188,-0.395,0.14
20:59:00.192,-0.395,0.15
20:59:00.196,-0.39,0.155
20:59:00.200,-0.375,0.15
20:59:00.204,-0.35,0.115
20:59:00.208,-0.36,0.125
20:59:00.212,-0.375,0.1
20:59:00.216,-0.37,0.115
20:59:00.220,-0.35,0.1
20:59:00.224,-0.345,0.085
20:59:00.228,-0.335,0.09
20:59:00.232,-0.3,0.095
20:59:00.236,-0.29,0.08
20:59:00.240,-0.29,0.035
20:59:00.244,-0.27,0.065
20:59:00.248,-0.25,0.05
20:59:00.252,-0.255,0.045
20:59:00.256,-0.255,0.05
20:59:00.260,-0.23,0.05
20:59:00.264,-0.225,0.04
20:59:00.268,-0.2,0.03
20:59:00.272,-0.19,0.03
20:59:00.276,-0.17,0.045
20:59:00.280,-0.14,0.05
20:59:00.284,-0.155,0.065
20:59:00.288,-0.13,0.055
20:59:00.292,-0.135,0.05
20:59:00.296,-0.135,0.045
20:59:00.300,-0.13,0.07
20:59:00.304,-0.145,0.065
20:59:00.308,-0.13,0.065
20:59:00.312,-0.12,0.055
20:59:00.316,-0.14,0.06
20:59:00.320,-0.14,0.05
20:59:00.324,-0.145,0.075
20:59:00.328,-0.16,0.045
20:59:00.332,-0.145,0.065
20:59:00.336,-0.15,0.065
20:59:00.340,-0.165,0.07
20:59:00.344,-0.13,0.075
20:59:00.348,-0.155,0.06
20:59:00.352,-0.145,0.06
20:59:00.356,-0.16,0.065
20:59:00.360,-0.15,0.07
20:59:00.364,-0.18,0.065
20:59:00.368,-0.17,0.08
20:59:00.372,-0.165,0.055
20:59:00.376,-0.175,0.06
20:59:00.380,-0.15,0.065
20:59:00.384,-0.135,0.07
20:59:00.388,-0.135,0.065
20:59:00.392,-0.1,0.08
20:59:00.396,-0.1,0.06
20:59:00.400,-0.1,0.085
20:59:00.404,-0.095,0.09
20:59:00.408,-0.09,0.075
20:59:00.412,-0.065,0.1
20:59:00.416,-0.055,0.105
20:59:00.420,-0.005,0.12
20:59:00.424,0.015,0.12
20:59:00.428,0.03,0.115
20:59:00.432,0.035,0.12
20:59:00.436,0.06,0.12
20:59:00.440,0.075,0.105
20:59:00.444,0.08,0.095
20:59:00.448,0.08,0.095
20:59:00.452,0.045,0.075
20:59:00.456,0.005,0.015
20:59:00.460,-0.05,0.0
20:59:00.464,-0.07,0.0
20:59:00.468,-0.125,-0.005
20:59:00.472,-0.195,0.0
20:59:00.476,-0.245,0.005
20:59:00.480,-0.27,0.02
20:59:00.484,-0.305,0.035
20:59:00.488,-0.31,0.04
20:59:00.492,-0.335,0.035
20:59:00.496,-0.315,0.055
20:59:00.500,-0.3,0.055
20:59:00.504,-0.305,0.04
20:59:00.508,-0.295,0.035
20:59:00.512,-0.28,0.035
20:59:00.516,-0.295,0.03
20:59:00.520,-0.295,0.025
20:59:00.524,-0.285,0.03
20:59:00.528,-0.29,0.035
20:59:00.532,-0.29,0.03
20:59:00.536,-0.26,0.02
20:59:00.540,-0.285,0.01
20:59:00.544,-0.27,0.0
20:59:00.548,-0.275,0.015
20:59:00.552,-0.28,0.005
20:59:00.556,-0.29,0.025
20:59:00.560,-0.285,0.005
20:59:00.564,-0.285,-0.005
20:59:00.568,-0.285,-0.005
20:59:00.572,-0.27,0.005
20:59:00.576,-0.28,-0.01
20:59:00.580,-0.28,-0.015
20:59:00.584,-0.255,0.0
20:59:00.588,-0.245,0.0
20:59:00.592,-0.23,0.01
20:59:00.596,-0.165,0.0
20:59:00.600,-0.09,-0.03
20:59:00.604,0.0,-0.015
20:59:00.608,0.085,-0.005
20:59:00.612,0.125,-0.065
20:59:00.616,0.18,-0.11
20:59:00.620,0.195,-0.13
20:59:00.624,0.205,-0.15
20:59:00.628,0.22,-0.185
20:59:00.632,0.205,-0.265
20:59:00.636,0.31,-0.36
20:59:00.640,0.55,-0.575
20:59:00.644,0.885,-0.84
20:59:00.648,1.145,-1.085
20:59:00.652,1.15,-1.28
20:59:00.656,0.84,-1.255
20:59:00.660,0.355,-0.975
20:59:00.664,-0.06,-0.59
20:59:00.668,-0.265,-0.29
20:59:00.672,-0.34,-0.105
20:59:00.676,-0.335,0.025
20:59:00.680,-0.37,0.085
20:59:00.684,-0.37,0.105
20:59:00.688,-0.4,0.115
20:59:00.692,-0.385,0.135
20:59:00.696,-0.395,0.135
20:59:00.700,-0.395,0.11
20:59:00.704,-0.415,0.115
20:59:00.708,-0.4,0.11
20:59:00.712,-0.425,0.11
20:59:00.716,-0.41,0.12
20:59:00.720,-0.415,0.125
20:59:00.724,-0.4,0.105
20:59:00.728,-0.4,0.12
20:59:00.732,-0.4,0.12
20:59:00.736,-0.415,0.12
20:59:00.740,-0.415,0.145
20:59:00.744,-0.415,0.135
20:59:00.748,-0.425,0.12
20:59:00.752,-0.43,0.125
20:59:00.756,-0.43,0.125
20:59:00.760,-0.425,0.12
20:59:00.764,-0.425,0.135
20:59:00.768,-0.43,0.12
20:59:00.772,-0.44,0.135
20:59:00.776,-0.46,0.135
20:59:00.780,-0.465,0.1
20:59:00.784,-0.475,0.135
20:59:00.788,-0.48,0.13
20:59:00.792,-0.475,0.13
20:59:00.796,-0.475,0.11
20:59:00.800,-0.475,0.125
20:59:00.804,-0.48,0.11
20:59:00.808,-0.455,0.11
20:59:00.812,-0.465,0.11
20:59:00.816,-0.465,0.115
20:59:00.820,-0.465,0.095
20:59:00.824,-0.47,0.13
20:59:00.828,-0.455,0.125
20:59:00.832,-0.44,0.12
20:59:00.836,-0.435,0.09
20:59:00.840,-0.43,0.11
20:59:00.844,-0.405,0.1
20:59:00.848,-0.38,0.1
20:59:00.852,-0.365,0.105
20:59:00.856,-0.365,0.12
20:59:00.860,-0.36,0.09
20:59:00.864,-0.36,0.085
20:59:00.868,-0.35,0.07
20:59:00.872,-0.32,0.06
20:59:00.876,-0.32,0.05
20:59:00.880,-0.29,0.06
20:59:00.884,-0.31,0.05
20:59:00.888,-0.305,0.01
20:59:00.892,-0.285,0.02
20:59:00.896,-0.29,0.02
20:59:00.900,-0.28,0.015
20:59:00.904,-0.285,0.015
20:59:00.908,-0.27,0.005
20:59:00.912,-0.275,0.0
20:59:00.916,-0.26,0.005
20:59:00.920,-0.265,0.01
20:59:00.924,-0.255,0.0
20:59:00.928,-0.25,0.02
20:59:00.932,-0.26,0.01
20:59:00.936,-0.245,0.01
20:59:00.940,-0.215,0.0
20:59:00.944,-0.215,0.045
20:59:00.948,-0.22,0.055
20:59:00.952,-0.235,0.035
20:59:00.956,-0.225,0.045
20:59:00.960,-0.215,0.075
20:59:00.964,-0.215,0.075
20:59:00.968,-0.21,0.06
20:59:00.972,-0.24,0.1
20:59:00.976,-0.22,0.09
20:59:00.980,-0.245,0.085
20:59:00.984,-0.23,0.095
20:59:00.988,-0.245,0.11
20:59:00.992,-0.245,0.11
20:59:00.996,-0.275,0.095
20:59:01.000,-0.285,0.105
20:59:01.004,-0.285,0.12
20:59:01.008,-0.275,0.125
20:59:01.012,-0.25,0.115
20:59:01.016,-0.25,0.12
20:59:01.020,-0.255,0.115
20:59:01.024,-0.235,0.095
20:59:01.028,-0.23,0.11
20:59:01.032,-0.225,0.11
20:59:01.036,-0.24,0.11
20:59:01.040,-0.24,0.14
20:59:01.044,-0.23,0.115
20:59:01.048,-0.205,0.125
20:59:01.052,-0.16,0.135
20:59:01.056,-0.125,0.16
20:59:01.060,-0.075,0.17
20:59:01.064,-0.045,0.165
20:59:01.068,-0.01,0.18
20:59:01.072,0.0,0.18
20:59:01.076,0.02,0.15
20:59:01.080,0.015,0.18
20:59:01.084,0.025,0.165
20:59:01.088,0.0,0.15
20:59:01.092,-0.065,0.13
20:59:01.096,-0.1,0.105
20:59:01.100,-0.15,0.08
20:59:01.104,-0.22,0.075
20:59:01.108,-0.275,0.075
20:59:01.112,-0.32,0.08
20:59:01.116,-0.38,0.08
20:59:01.120,-0.41,0.09
20:59:01.124,-0.43,0.09
20:59:01.128,-0.405,0.09
20:59:01.132,-0.39,0.1
20:59:01.136,-0.4,0.06
20:59:01.140,-0.395,0.065
20:59:01.144,-0.39,0.035
20:59:01.148,-0.4,0.065
20:59:01.152,-0.405,0.055
20:59:01.156,-0.395,0.04
20:59:01.160,-0.385,0.055
20:59:01.164,-0.37,0.04
20:59:01.168,-0.365,0.045
20:59:01.172,-0.35,0.035
20:59:01.176,-0.365,0.045
20:59:01.180,-0.365,0.04
20:59:01.184,-0.365,0.04
20:59:01.188,-0.355,0.055
20:59:01.192,-0.36,0.04
20:59:01.196,-0.365,0.045
20:59:01.200,-0.345,0.03
20:59:01.204,-0.35,0.03
20:59:01.208,-0.345,0.02
20:59:01.212,-0.385,0.04
20:59:01.216,-0.37,0.04
20:59:01.220,-0.37,0.04
20:59:01.224,-0.34,0.03
20:59:01.228,-0.31,0.015
20:59:01.232,-0.275,0.03
20:59:01.236,-0.195,0.03
20:59:01.240,-0.105,-0.005
20:59:01.244,0.0,0.005
20:59:01.248,0.06,-0.055
20:59:01.252,0.12,-0.095
20:59:01.256,0.18,-0.155
20:59:01.260,0.23,-0.15
20:59:01.264,0.22,-0.15
20:59:01.268,0.215,-0.21
20:59:01.272,0.3,-0.29
20:59:01.276,0.46,-0.465
20:59:01.280,0.75,-0.68
20:59:01.284,1.005,-0.93
20:59:01.288,1.11,-1.13
20:59:01.292,0.895,-1.225
20:59:01.296,0.445,-1.065
20:59:01.300,-0.02,-0.72
20:59:01.304,-0.27,-0.41
20:59:01.308,-0.365,-0.215
20:59:01.312,-0.375,-0.09
20:59:01.316,-0.375,-0.005
20:59:01.320,-0.42,0.055
20:59:01.324,-0.455,0.085
20:59:01.328,-0.49,0.07
20:59:01.332,-0.5,0.055
20:59:01.336,-0.515,0.04
20:59:01.340,-0.515,0.015
20:59:01.344,-0.52,0.015
20:59:01.348,-0.5,-0.005
20:59:01.352,-0.505,-0.01
20:59:01.356,-0.51,-0.01
20:59:01.360,-0.505,-0.03
20:59:01.364,-0.5,-0.055
20:59:01.368,-0.51,-0.065
20:59:01.372,-0.52,-0.055
20:59:01.376,-0.53,-0.07
20:59:01.380,-0.535,-0.04
20:59:01.384,-0.54,-0.045
20:59:01.388,-0.535,-0.06
20:59:01.392,-0.53,-0.05
20:59:01.396,-0.52,-0.06
20:59:01.400,-0.5,-0.075
20:59:01.404,-0.52,-0.06
20:59:01.408,-0.535,-0.085
20:59:01.412,-0.535,-0.085
20:59:01.416,-0.53,-0.09
20:59:01.420,-0.54,-0.105
20:59:01.424,-0.54,-0.105
20:59:01.428,-0.57,-0.12
20:59:01.432,-0.565,-0.1
20:59:01.436,-0.575,-0.11
20:59:01.440,-0.56,-0.09
20:59:01.444,-0.59,-0.125
20:59:01.448,-0.585,-0.125
20:59:01.452,-0.605,-0.135
20:59:01.456,-0.575,-0.17
20:59:01.460,-0.555,-0.16
20:59:01.464,-0.56,-0.155
20:59:01.468,-0.57,-0.17
20:59:01.472,-0.575,-0.185
20:59:01.476,-0.58,-0.175
20:59:01.480,-0.555,-0.175
20:59:01.484,-0.55,-0.195
20:59:01.488,-0.55,-0.22
20:59:01.492,-0.525,-0.21
20:59:01.496,-0.5,-0.2
20:59:01.500,-0.49,-0.225
20:59:01.504,-0.46,-0.27
20:59:01.508,-0.45,-0.23
20:59:01.512,-0.445,-0.265
20:59:01.516,-0.43,-0.255
20:59:01.520,-0.42,-0.26
20:59:01.524,-0.405,-0.275
20:59:01.528,-0.4,-0.275
20:59:01.532,-0.41,-0.315
20:59:01.536,-0.385,-0.305
20:59:01.540,-0.385,-0.3
20:59:01.544,-0.39,-0.305
20:59:01.548,-0.38,-0.335
20:59:01.552,-0.365,-0.335
20:59:01.556,-0.37,-0.34
20:59:01.560,-0.37,-0.355
20:59:01.564,-0.335,-0.35
20:59:01.568,-0.345,-0.375
20:59:01.572,-0.335,-0.385
20:59:01.576,-0.335,-0.39
20:59:01.580,-0.32,-0.365
20:59:01.584,-0.345,-0.35
20:59:01.588,-0.33,-0.37
20:59:01.592,-0.32,-0.35
20:59:01.596,-0.33,-0.365
20:59:01.600,-0.345,-0.385
20:59:01.604,-0.34,-0.375
20:59:01.608,-0.33,-0.36
20:59:01.612,-0.32,-0.35
20:59:01.616,-0.29,-0.365
20:59:01.620,-0.29,-0.355
20:59:01.624,-0.3,-0.345
20:59:01.628,-0.3,-0.355
20:59:01.632,-0.31,-0.34
20:59:01.636,-0.315,-0.345
20:59:01.640,-0.335,-0.335
20:59:01.644,-0.315,-0.335
20:59:01.648,-0.32,-0.32
20:59:01.652,-0.315,-0.33
20:59:01.656,-0.315,-0.33
20:59:01.660,-0.32,-0.35
20:59:01.664,-0.315,-0.33
20:59:01.668,-0.32,-0.32
20:59:01.672,-0.315,-0.34
20:59:01.676,-0.305,-0.355
20:59:01.680,-0.295,-0.355
20:59:01.684,-0.28,-0.345
20:59:01.688,-0.275,-0.33
20:59:01.692,-0.275,-0.32
20:59:01.696,-0.27,-0.34
20:59:01.700,-0.255,-0.35
20:59:01.704,-0.205,-0.305
20:59:01.708,-0.165,-0.31
20:59:01.712,-0.135,-0.285
20:59:01.716,-0.12,-0.3
20:59:01.720,-0.11,-0.29
20:59:01.724,-0.065,-0.28
20:59:01.728,-0.015,-0.255
20:59:01.732,0.0,-0.24
20:59:01.736,0.005,-0.26
20:59:01.740,-0.025,-0.265
20:59:01.744,-0.085,-0.285
20:59:01.748,-0.115,-0.305
20:59:01.752,-0.165,-0.315
20:59:01.756,-0.225,-0.295
20:59:01.760,-0.275,-0.305
20:59:01.764,-0.32,-0.315
20:59:01.768,-0.37,-0.28
20:59:01.772,-0.405,-0.265
20:59:01.776,-0.43,-0.25
20:59:01.780,-0.445,-0.26
20:59:01.784,-0.415,-0.255
20:59:01.788,-0.405,-0.255
20:59:01.792,-0.415,-0.275
20:59:01.796,-0.39,-0.265
20:59:01.800,-0.4,-0.25
20:59:01.804,-0.38,-0.25
20:59:01.808,-0.39,-0.255
20:59:01.812,-0.375,-0.245
20:59:01.816,-0.37,-0.235
20:59:01.820,-0.38,-0.225
20:59:01.824,-0.365,-0.23
20:59:01.828,-0.37,-0.225
20:59:01.832,-0.37,-0.22
20:59:01.836,-0.345,-0.2
20:59:01.840,-0.365,-0.215
20:59:01.844,-0.33,-0.2
20:59:01.848,-0.32,-0.2
20:59:01.852,-0.33,-0.2
20:59:01.856,-0.33,-0.175
20:59:01.860,-0.335,-0.16
20:59:01.864,-0.325,-0.175
20:59:01.868,-0.315,-0.165
20:59:01.872,-0.325,-0.15
20:59:01.876,-0.29,-0.175
20:59:01.880,-0.275,-0.16
20:59:01.884,-0.235,-0.145
20:59:01.888,-0.195,-0.17
20:59:01.892,-0.085,-0.15
20:59:01.896,-0.01,-0.205
20:59:01.900,0.09,-0.205
20:59:01.904,0.145,-0.25
20:59:01.908,0.2,-0.295
20:59:01.912,0.235,-0.315
20:59:01.916,0.265,-0.33
20:59:01.920,0.25,-0.39
20:59:01.924,0.265,-0.48
20:59:01.928,0.44,-0.625
20:59:01.932,0.735,-0.825
20:59:01.936,1.045,-1.065
20:59:01.940,1.19,-1.265
20:59:01.944,1.055,-1.33
20:59:01.948,0.59,-1.24
20:59:01.952,0.12,-0.875
20:59:01.956,-0.16,-0.53
20:59:01.960,-0.3,-0.3
20:59:01.964,-0.34,-0.175
20:59:01.968,-0.355,-0.065
20:59:01.972,-0.35,-0.005
20:59:01.976,-0.395,0.025
20:59:01.980,-0.425,0.055
20:59:01.984,-0.41,0.06
20:59:01.988,-0.43,0.04
20:59:01.992,-0.425,0.05
20:59:01.996,-0.445,0.015
20:59:02.000,-0.46,0.05
20:59:02.004,-0.465,0.015
20:59:02.008,-0.465,0.04
20:59:02.012,-0.465,0.035
20:59:02.016,-0.465,0.05
20:59:02.020,-0.47,0.035
20:59:02.024,-0.435,0.035
20:59:02.028,-0.45,0.05
20:59:02.032,-0.445,0.035
20:59:02.036,-0.46,0.025
20:59:02.040,-0.445,0.02
20:59:02.044,-0.45,0.04
20:59:02.048,-0.445,0.055
20:59:02.052,-0.48,0.05
20:59:02.056,-0.47,0.03
20:59:02.060,-0.465,0.03
20:59:02.064,-0.46,0.03
20:59:02.068,-0.455,0.05
20:59:02.072,-0.46,0.035
20:59:02.076,-0.465,0.055
20:59:02.080,-0.465,0.06
20:59:02.084,-0.47,0.055
20:59:02.088,-0.5,0.06
20:59:02.092,-0.49,0.055
20:59:02.096,-0.475,0.06
20:59:02.100,-0.48,0.075
20:59:02.104,-0.46,0.06
20:59:02.108,-0.48,0.055
20:59:02.112,-0.485,0.065
20:59:02.116,-0.48,0.055
20:59:02.120,-0.485,0.055
20:59:02.124,-0.475,0.065
20:59:02.128,-0.48,0.065
20:59:02.132,-0.465,0.06
20:59:02.136,-0.445,0.04
20:59:02.140,-0.46,0.03
20:59:02.144,-0.435,0.02
20:59:02.148,-0.415,0.015
20:59:02.152,-0.405,0.01
20:59:02.156,-0.41,0.0
20:59:02.160,-0.39,0.0
20:59:02.164,-0.385,-0.01
20:59:02.168,-0.37,0.0
20:59:02.172,-0.35,-0.025
20:59:02.176,-0.32,-0.03
20:59:02.180,-0.31,-0.025
20:59:02.184,-0.28,-0.015
20:59:02.188,-0.275,-0.04
20:59:02.192,-0.27,-0.015
20:59:02.196,-0.27,-0.025
20:59:02.200,-0.245,-0.025
20:59:02.204,-0.25,-0.04
20:59:02.208,-0.245,-0.04
20:59:02.212,-0.24,-0.035
20:59:02.216,-0.23,-0.025
20:59:02.220,-0.235,-0.05
20:59:02.224,-0.225,-0.025
20:59:02.228,-0.235,-0.025
20:59:02.232,-0.24,-0.045
20:59:02.236,-0.22,-0.04
20:59:02.240,-0.205,-0.03
20:59:02.244,-0.22,-0.045
20:59:02.248,-0.215,-0.04
20:59:02.252,-0.21,-0.025
20:59:02.256,-0.215,-0.03
20:59:02.260,-0.205,-0.02
20:59:02.264,-0.21,-0.015
20:59:02.268,-0.22,-0.015
20:59:02.272,-0.21,-0.005
20:59:02.276,-0.22,-0.005
20:59:02.280,-0.22,0.0
20:59:02.284,-0.205,-0.025
20:59:02.288,-0.215,-0.02
20:59:02.292,-0.215,-0.01
20:59:02.296,-0.21,-0.025
20:59:02.300,-0.205,-0.015
20:59:02.304,-0.2,-0.005
20:59:02.308,-0.195,0.0
20:59:02.312,-0.2,-0.015
20:59:02.316,-0.155,0.0
20:59:02.320,-0.165,0.005
20:59:02.324,-0.155,-0.01
20:59:02.328,-0.145,0.0
20:59:02.332,-0.17,0.0
20:59:02.336,-0.14,-0.005
20:59:02.340,-0.115,-0.005
20:59:02.344,-0.08,0.025
20:59:02.348,-0.05,0.035
20:59:02.352,-0.025,0.03
20:59:02.356,0.005,0.05
20:59:02.360,0.025,0.005
20:59:02.364,0.055,0.02
20:59:02.368,0.055,0.035
20:59:02.372,0.05,0.02
20:59:02.376,0.015,0.005
20:59:02.380,-0.01,-0.025
20:59:02.384,-0.08,-0.055
20:59:02.388,-0.11,-0.055
20:59:02.392,-0.16,-0.06
20:59:02.396,-0.195,-0.05
20:59:02.400,-0.26,-0.045
20:59:02.404,-0.27,-0.03
20:59:02.408,-0.305,0.0
20:59:02.412,-0.315,0.0
20:59:02.416,-0.32,-0.015
20:59:02.420,-0.325,-0.02
20:59:02.424,-0.335,-0.015
20:59:02.428,-0.33,-0.045
20:59:02.432,-0.325,-0.03
20:59:02.436,-0.325,-0.05
20:59:02.440,-0.33,-0.035
20:59:02.444,-0.31,-0.05
20:59:02.448,-0.325,-0.055
20:59:02.452,-0.325,-0.065
20:59:02.456,-0.325,-0.04
20:59:02.460,-0.325,-0.06
20:59:02.464,-0.305,-0.07
20:59:02.468,-0.305,-0.045
20:59:02.472,-0.315,-0.075
20:59:02.476,-0.325,-0.05
20:59:02.480,-0.32,-0.055
20:59:02.484,-0.315,-0.065
20:59:02.488,-0.315,-0.08
20:59:02.492,-0.305,-0.08
20:59:02.496,-0.32,-0.065
20:59:02.500,-0.31,-0.065
20:59:02.504,-0.3,-0.07
20:59:02.508,-0.28,-0.08
20:59:02.512,-0.27,-0.075
20:59:02.516,-0.235,-0.06
20:59:02.520,-0.17,-0.06
20:59:02.524,-0.11,-0.08
20:59:02.528,-0.015,-0.115
20:59:02.532,0.06,-0.105
20:59:02.536,0.125,-0.14
20:59:02.540,0.14,-0.215
20:59:02.544,0.17,-0.23
20:59:02.548,0.2,-0.25
20:59:02.552,0.19,-0.315
20:59:02.556,0.17,-0.38
20:59:02.560,0.285,-0.52
20:59:02.564,0.535,-0.74
20:59:02.568,0.85,-0.975
20:59:02.572,1.06,-1.21
20:59:02.576,1.06,-1.38
20:59:02.580,0.795,-1.37
20:59:02.584,0.31,-1.08
20:59:02.588,-0.105,-0.685
20:59:02.592,-0.325,-0.385
20:59:02.596,-0.41,-0.22
20:59:02.600,-0.435,-0.1
20:59:02.604,-0.42,-0.02
20:59:02.608,-0.435,0.01
20:59:02.612,-0.43,0.05
20:59:02.616,-0.445,0.065
20:59:02.620,-0.44,0.05
20:59:02.624,-0.46,0.05
20:59:02.628,-0.445,0.03
20:59:02.632,-0.445,0.025
20:59:02.636,-0.44,0.035
20:59:02.640,-0.455,0.05
20:59:02.644,-0.455,0.05
20:59:02.648,-0.44,0.03
20:59:02.652,-0.455,0.05
20:59:02.656,-0.455,0.05
20:59:02.660,-0.44,0.045
20:59:02.664,-0.44,0.06
20:59:02.668,-0.45,0.05
20:59:02.672,-0.465,0.04
20:59:02.676,-0.46,0.045
20:59:02.680,-0.46,0.04
20:59:02.684,-0.485,0.03
20:59:02.688,-0.485,0.035
20:59:02.692,-0.48,0.035
20:59:02.696,-0.5,0.04
20:59:02.700,-0.51,0.035
20:59:02.704,-0.495,0.045
20:59:02.708,-0.495,0.035
20:59:02.712,-0.48,0.035
20:59:02.716,-0.5,0.075
20:59:02.720,-0.535,0.035
20:59:02.724,-0.52,0.04
20:59:02.728,-0.51,0.055
20:59:02.732,-0.515,0.055
20:59:02.736,-0.51,0.05
20:59:02.740,-0.495,0.05
20:59:02.744,-0.495,0.05
20:59:02.748,-0.48,0.035
20:59:02.752,-0.48,0.05
20:59:02.756,-0.475,0.055
20:59:02.760,-0.49,0.05
20:59:02.764,-0.48,0.06
20:59:02.768,-0.465,0.05
20:59:02.772,-0.445,0.045
20:59:02.776,-0.44,0.045
20:59:02.780,-0.435,0.045
20:59:02.784,-0.415,0.02
20:59:02.788,-0.425,0.01
20:59:02.792,-0.425,0.01
20:59:02.796,-0.39,0.0
20:59:02.800,-0.41,-0.005
20:59:02.804,-0.39,-0.025
20:59:02.808,-0.38,-0.01
20:59:02.812,-0.345,-0.005
20:59:02.816,-0.33,-0.025
20:59:02.820,-0.325,-0.05
20:59:02.824,-0.315,-0.03
20:59:02.828,-0.295,-0.03
20:59:02.832,-0.29,-0.04
20:59:02.836,-0.29,-0.045
20:59:02.840,-0.28,-0.025
20:59:02.844,-0.255,-0.04
20:59:02.848,-0.26,-0.04
20:59:02.852,-0.235,-0.03
20:59:02.856,-0.225,-0.015
20:59:02.860,-0.21,-0.035
20:59:02.864,-0.215,-0.035
20:59:02.868,-0.195,-0.02
20:59:02.872,-0.2,0.0
20:59:02.876,-0.21,-0.01
20:59:02.880,-0.21,-0.01
20:59:02.884,-0.205,-0.015
20:59:02.888,-0.21,-0.03
20:59:02.892,-0.21,-0.02
20:59:02.896,-0.22,0.0
20:59:02.900,-0.22,0.0
20:59:02.904,-0.235,0.01
20:59:02.908,-0.24,0.0
20:59:02.912,-0.255,0.0
20:59:02.916,-0.225,-0.01
20:59:02.920,-0.23,0.0
20:59:02.924,-0.24,-0.005
20:59:02.928,-0.235,-0.035
20:59:02.932,-0.25,-0.035
20:59:02.936,-0.265,-0.02
20:59:02.940,-0.255,-0.015
20:59:02.944,-0.23,0.0
20:59:02.948,-0.22,-0.01
20:59:02.952,-0.21,0.0
20:59:02.956,-0.19,-0.02
20:59:02.960,-0.205,0.0
20:59:02.964,-0.195,0.005
20:59:02.968,-0.18,0.005
20:59:02.972,-0.155,0.025
20:59:02.976,-0.12,0.03
20:59:02.980,-0.08,0.04
20:59:02.984,-0.045,0.05
20:59:02.988,-0.025,0.08
20:59:02.992,0.0,0.07
20:59:02.996,0.01,0.045
20:59:03.000,0.02,0.07
20:59:03.004,0.025,0.065
20:59:03.008,0.03,0.07
20:59:03.012,0.015,0.02
20:59:03.016,-0.035,0.0
20:59:03.020,-0.085,-0.02
20:59:03.024,-0.135,-0.035
20:59:03.028,-0.2,-0.045
20:59:03.032,-0.265,-0.035
20:59:03.036,-0.275,-0.03
20:59:03.040,-0.33,-0.035
20:59:03.044,-0.36,-0.005
20:59:03.048,-0.365,-0.02
20:59:03.052,-0.365,0.01
20:59:03.056,-0.365,-0.015
20:59:03.060,-0.36,-0.015
20:59:03.064,-0.365,-0.025
20:59:03.068,-0.36,-0.045
20:59:03.072,-0.355,-0.025
20:59:03.076,-0.34,-0.02
20:59:03.080,-0.32,-0.015
20:59:03.084,-0.32,-0.025
20:59:03.088,-0.31,-0.02
20:59:03.092,-0.305,-0.015
20:59:03.096,-0.29,-0.025
20:59:03.100,-0.31,-0.045
20:59:03.104,-0.32,-0.02
20:59:03.108,-0.31,-0.035
20:59:03.112,-0.315,-0.03
20:59:03.116,-0.32,-0.055
20:59:03.120,-0.315,-0.035
20:59:03.124,-0.3,-0.02
20:59:03.128,-0.295,-0.035
20:59:03.132,-0.285,-0.045
20:59:03.136,-0.3,-0.025
20:59:03.140,-0.31,-0.03
20:59:03.144,-0.335,-0.045
20:59:03.148,-0.315,-0.06
20:59:03.152,-0.265,-0.055
20:59:03.156,-0.22,-0.05
20:59:03.160,-0.145,-0.065
20:59:03.164,-0.035,-0.08
20:59:03.168,0.04,-0.07
20:59:03.172,0.095,-0.115
20:59:03.176,0.14,-0.15
20:59:03.180,0.165,-0.21
20:59:03.184,0.185,-0.2
20:59:03.188,0.195,-0.245
20:59:03.192,0.2,-0.3
20:59:03.196,0.29,-0.44
20:59:03.200,0.52,-0.65
20:59:03.204,0.86,-0.9
20:59:03.208,1.11,-1.1
20:59:03.212,1.135,-1.305
20:59:03.216,0.945,-1.345
20:59:03.220,0.46,-1.07
20:59:03.224,-0.02,-0.66
20:59:03.228,-0.255,-0.355
20:59:03.232,-0.335,-0.16
20:59:03.236,-0.37,-0.055
20:59:03.240,-0.365,0.03
20:59:03.244,-0.39,0.075
20:59:03.248,-0.41,0.08
20:59:03.252,-0.425,0.08
20:59:03.256,-0.44,0.105
20:59:03.260,-0.415,0.095
20:59:03.264,-0.43,0.085
20:59:03.268,-0.445,0.055
20:59:03.272,-0.44,0.06
20:59:03.276,-0.435,0.045
20:59:03.280,-0.44,0.04
20:59:03.284,-0.435,0.045
20:59:03.288,-0.43,0.055
20:59:03.292,-0.425,0.06
20:59:03.296,-0.445,0.05
20:59:03.300,-0.45,0.045
20:59:03.304,-0.465,0.055
20:59:03.308,-0.455,0.055
20:59:03.312,-0.465,0.055
20:59:03.316,-0.415,0.055
20:59:03.320,-0.425,0.075
20:59:03.324,-0.465,0.07
20:59:03.328,-0.475,0.07
20:59:03.332,-0.505,0.095
20:59:03.336,-0.485,0.085
20:59:03.340,-0.5,0.09
20:59:03.344,-0.485,0.08
20:59:03.348,-0.5,0.09
20:59:03.352,-0.52,0.09
20:59:03.356,-0.51,0.085
20:59:03.360,-0.52,0.08
20:59:03.364,-0.525,0.095
20:59:03.368,-0.53,0.085
20:59:03.372,-0.54,0.095
20:59:03.376,-0.53,0.1
20:59:03.380,-0.545,0.065
20:59:03.384,-0.53,0.105
20:59:03.388,-0.52,0.085
20:59:03.392,-0.51,0.075
20:59:03.396,-0.5,0.08
20:59:03.400,-0.515,0.075
20:59:03.404,-0.505,0.06
20:59:03.408,-0.515,0.07
20:59:03.412,-0.485,0.07
20:59:03.416,-0.48,0.045
20:59:03.420,-0.465,0.06
20:59:03.424,-0.465,0.04
20:59:03.428,-0.43,0.065
20:59:03.432,-0.42,0.045
20:59:03.436,-0.415,0.035
20:59:03.440,-0.405,0.045
20:59:03.444,-0.355,0.015
20:59:03.448,-0.37,0.015
20:59:03.452,-0.365,0.02
20:59:03.456,-0.355,0.005
20:59:03.460,-0.355,0.0
20:59:03.464,-0.36,-0.005
20:59:03.468,-0.37,0.0
20:59:03.472,-0.355,-0.005
20:59:03.476,-0.345,-0.02
20:59:03.480,-0.33,-0.015
20:59:03.484,-0.345,0.0
20:59:03.488,-0.33,-0.005
20:59:03.492,-0.32,-0.025
20:59:03.496,-0.32,-0.02
20:59:03.500,-0.31,-0.045
20:59:03.504,-0.315,-0.04
20:59:03.508,-0.32,-0.025
20:59:03.512,-0.335,-0.045
20:59:03.516,-0.33,-0.025
20:59:03.520,-0.34,-0.01
20:59:03.524,-0.315,0.0
20:59:03.528,-0.325,-0.015
20:59:03.532,-0.28,0.0
20:59:03.536,-0.295,0.01
20:59:03.540,-0.31,0.0
20:59:03.544,-0.3,0.01
20:59:03.548,-0.335,0.0
20:59:03.552,-0.32,0.005
20:59:03.556,-0.32,0.01
20:59:03.560,-0.33,0.02
20:59:03.564,-0.335,0.025
20:59:03.568,-0.33,0.015
20:59:03.572,-0.34,0.01
20:59:03.576,-0.325,0.005
20:59:03.580,-0.32,0.0
20:59:03.584,-0.32,0.0
20:59:03.588,-0.325,0.0
20:59:03.592,-0.34,-0.01
20:59:03.596,-0.33,0.0
20:59:03.600,-0.34,-0.02
20:59:03.604,-0.345,-0.005
20:59:03.608,-0.315,-0.015
20:59:03.612,-0.27,-0.01
20:59:03.616,-0.235,-0.02
20:59:03.620,-0.2,-0.015
20:59:03.624,-0.16,-0.005
20:59:03.628,-0.125,0.0
20:59:03.632,-0.105,0.025
20:59:03.636,-0.08,0.005
20:59:03.640,-0.06,0.0
20:59:03.644,-0.04,0.015
20:59:03.648,-0.055,0.005
20:59:03.652,-0.095,-0.01
20:59:03.656,-0.12,-0.04
20:59:03.660,-0.185,-0.075
20:59:03.664,-0.22,-0.085
20:59:03.668,-0.29,-0.085
20:59:03.672,-0.355,-0.09
20:59:03.676,-0.39,-0.095
20:59:03.680,-0.44,-0.09
20:59:03.684,-0.45,-0.085
20:59:03.688,-0.455,-0.075
20:59:03.692,-0.475,-0.105
20:59:03.696,-0.485,-0.115
20:59:03.700,-0.475,-0.115
20:59:03.704,-0.48,-0.105
20:59:03.708,-0.475,-0.145
20:59:03.712,-0.48,-0.165
20:59:03.716,-0.46,-0.15
20:59:03.720,-0.46,-0.185
20:59:03.724,-0.445,-0.185
20:59:03.728,-0.43,-0.19
20:59:03.732,-0.445,-0.18
20:59:03.736,-0.43,-0.19
20:59:03.740,-0.445,-0.195
20:59:03.744,-0.46,-0.205
20:59:03.748,-0.44,-0.22
20:59:03.752,-0.445,-0.215
20:59:03.756,-0.435,-0.225
20:59:03.760,-0.42,-0.21
20:59:03.764,-0.42,-0.245
20:59:03.768,-0.405,-0.23
20:59:03.772,-0.405,-0.235
20:59:03.776,-0.405,-0.24
20:59:03.780,-0.405,-0.24
20:59:03.784,-0.4,-0.245
20:59:03.788,-0.385,-0.275
20:59:03.792,-0.34,-0.28
20:59:03.796,-0.275,-0.26
20:59:03.800,-0.2,-0.29
20:59:03.804,-0.085,-0.295
20:59:03.808,-0.015,-0.31
20:59:03.812,0.04,-0.355
20:59:03.816,0.095,-0.385
20:59:03.820,0.155,-0.425
20:59:03.824,0.205,-0.43
20:59:03.828,0.2,-0.465
20:59:03.832,0.19,-0.565
20:59:03.836,0.28,-0.675
20:59:03.840,0.56,-0.875
20:59:03.844,0.855,-1.095
20:59:03.848,1.025,-1.335
20:59:03.852,0.935,-1.505
20:59:03.856,0.58,-1.405
20:59:03.860,0.065,-1.12
20:59:03.864,-0.26,-0.79
20:59:03.868,-0.41,-0.57
20:59:03.872,-0.44,-0.46
20:59:03.876,-0.45,-0.35
20:59:03.880,-0.45,-0.27
20:59:03.884,-0.46,-0.235
20:59:03.888,-0.52,-0.21
20:59:03.892,-0.535,-0.22
20:59:03.896,-0.555,-0.22
20:59:03.900,-0.56,-0.255
20:59:03.904,-0.56,-0.255
20:59:03.908,-0.57,-0.28
20:59:03.912,-0.55,-0.3
20:59:03.916,-0.54,-0.29
20:59:03.920,-0.545,-0.31
20:59:03.924,-0.55,-0.31
20:59:03.928,-0.58,-0.33
20:59:03.932,-0.575,-0.315
20:59:03.936,-0.565,-0.325
20:59:03.940,-0.57,-0.32
20:59:03.944,-0.58,-0.32
20:59:03.948,-0.585,-0.32
20:59:03.952,-0.58,-0.335
20:59:03.956,-0.58,-0.34
20:59:03.960,-0.595,-0.34
20:59:03.964,-0.58,-0.32
20:59:03.968,-0.59,-0.33
20:59:03.972,-0.585,-0.31
20:59:03.976,-0.595,-0.32
20:59:03.980,-0.595,-0.3
20:59:03.984,-0.58,-0.3
20:59:03.988,-0.59,-0.315
20:59:03.992,-0.59,-0.31
20:59:03.996,-0.58,-0.315
20:59:04.000,-0.56,-0.295
20:59:04.004,-0.57,-0.3
20:59:04.008,-0.58,-0.3
20:59:04.012,-0.56,-0.29
20:59:04.016,-0.57,-0.28
20:59:04.020,-0.565,-0.265
20:59:04.024,-0.565,-0.27
20:59:04.028,-0.565,-0.29
20:59:04.032,-0.55,-0.295
20:59:04.036,-0.565,-0.27
20:59:04.040,-0.545,-0.265
20:59:04.044,-0.535,-0.275
20:59:04.048,-0.525,-0.29
20:59:04.052,-0.515,-0.29
20:59:04.056,-0.51,-0.285
20:59:04.060,-0.485,-0.31
20:59:04.064,-0.48,-0.3
20:59:04.068,-0.47,-0.315
20:59:04.072,-0.455,-0.3
20:59:04.076,-0.43,-0.32
20:59:04.080,-0.445,-0.31
20:59:04.084,-0.41,-0.31
20:59:04.088,-0.41,-0.32
20:59:04.092,-0.4,-0.32
20:59:04.096,-0.36,-0.315
20:59:04.100,-0.34,-0.34
20:59:04.104,-0.32,-0.31
20:59:04.108,-0.325,-0.325
20:59:04.112,-0.33,-0.325
20:59:04.116,-0.33,-0.32
20:59:04.120,-0.29,-0.3
20:59:04.124,-0.265,-0.31
20:59:04.128,-0.275,-0.29
20:59:04.132,-0.27,-0.305
20:59:04.136,-0.275,-0.285
20:59:04.140,-0.26,-0.31
20:59:04.144,-0.28,-0.305
20:59:04.148,-0.27,-0.31
20:59:04.152,-0.275,-0.3
20:59:04.156,-0.27,-0.28
20:59:04.160,-0.28,-0.275
20:59:04.164,-0.29,-0.3
20:59:04.168,-0.28,-0.27
20:59:04.172,-0.265,-0.285
20:59:04.176,-0.275,-0.29
20:59:04.180,-0.26,-0.28
20:59:04.184,-0.27,-0.285
20:59:04.188,-0.28,-0.27
20:59:04.192,-0.275,-0.295
20:59:04.196,-0.25,-0.275
20:59:04.200,-0.275,-0.26
20:59:04.204,-0.28,-0.265
20:59:04.208,-0.28,-0.24
20:59:04.212,-0.275,-0.245
20:59:04.216,-0.27,-0.235
20:59:04.220,-0.27,-0.24
20:59:04.224,-0.25,-0.23
20:59:04.228,-0.27,-0.23
20:59:04.232,-0.25,-0.205
20:59:04.236,-0.24,-0.225
20:59:04.240,-0.21,-0.2
20:59:04.244,-0.225,-0.205
20:59:04.248,-0.23,-0.21
20:59:04.252,-0.215,-0.18
20:59:04.256,-0.225,-0.19
20:59:04.260,-0.21,-0.18
20:59:04.264,-0.2,-0.185
20:59:04.268,-0.16,-0.155
20:59:04.272,-0.125,-0.16
20:59:04.276,-0.09,-0.16
20:59:04.280,-0.08,-0.15
20:59:04.284,-0.025,-0.12
20:59:04.288,-0.015,-0.14
20:59:04.292,0.01,-0.16
20:59:04.296,0.01,-0.14
20:59:04.300,0.0,-0.14
20:59:04.304,-0.005,-0.16
20:59:04.308,-0.06,-0.18
20:59:04.312,-0.105,-0.205
20:59:04.316,-0.14,-0.22
20:59:04.320,-0.195,-0.21
20:59:04.324,-0.245,-0.2
20:59:04.328,-0.285,-0.205
20:59:04.332,-0.31,-0.18
20:59:04.336,-0.35,-0.16
20:59:04.340,-0.35,-0.14
20:59:04.344,-0.35,-0.15
20:59:04.348,-0.355,-0.14
20:59:04.352,-0.35,-0.15
20:59:04.356,-0.34,-0.175
20:59:04.360,-0.345,-0.175
20:59:04.364,-0.33,-0.155
20:59:04.368,-0.35,-0.17
20:59:04.372,-0.32,-0.185
20:59:04.376,-0.345,-0.185
20:59:04.380,-0.32,-0.18
20:59:04.384,-0.34,-0.175
20:59:04.388,-0.345,-0.21
20:59:04.392,-0.32,-0.215
20:59:04.396,-0.305,-0.2
20:59:04.400,-0.33,-0.22
20:59:04.404,-0.32,-0.23
20:59:04.408,-0.305,-0.22
20:59:04.412,-0.33,-0.215
20:59:04.416,-0.325,-0.22
20:59:04.420,-0.32,-0.21
20:59:04.424,-0.325,-0.2
20:59:04.428,-0.305,-0.205
20:59:04.432,-0.315,-0.205
20:59:04.436,-0.27,-0.19
20:59:04.440,-0.25,-0.19
20:59:04.444,-0.205,-0.215
20:59:04.448,-0.155,-0.22
20:59:04.452,-0.075,-0.21
20:59:04.456,0.02,-0.2
20:59:04.460,0.1,-0.245
20:59:04.464,0.155,-0.27
20:59:04.468,0.21,-0.32
20:59:04.472,0.235,-0.365
20:59:04.476,0.24,-0.365
20:59:04.480,0.21,-0.41
20:59:04.484,0.25,-0.54
20:59:04.488,0.39,-0.69
20:59:04.492,0.685,-0.905
20:59:04.496,0.985,-1.155
20:59:04.500,1.13,-1.4
20:59:04.504,1.03,-1.51
20:59:04.508,0.655,-1.4
20:59:04.512,0.13,-1.06
20:59:04.516,-0.195,-0.685
20:59:04.520,-0.325,-0.45
20:59:04.524,-0.385,-0.29
20:59:04.528,-0.39,-0.195
20:59:04.532,-0.4,-0.13
20:59:04.536,-0.4,-0.08
20:59:04.540,-0.43,-0.075
20:59:04.544,-0.42,-0.075
20:59:04.548,-0.43,-0.08
20:59:04.552,-0.41,-0.075
20:59:04.556,-0.405,-0.08
20:59:04.560,-0.44,-0.08
20:59:04.564,-0.415,-0.09
20:59:04.568,-0.42,-0.11
20:59:04.572,-0.405,-0.115
20:59:04.576,-0.425,-0.08
20:59:04.580,-0.42,-0.095
20:59:04.584,-0.44,-0.085
20:59:04.588,-0.425,-0.09
20:59:04.592,-0.43,-0.08
20:59:04.596,-0.435,-0.08
20:59:04.600,-0.43,-0.11
20:59:04.604,-0.45,-0.095
20:59:04.608,-0.465,-0.095
20:59:04.612,-0.47,-0.1
20:59:04.616,-0.47,-0.11
20:59:04.620,-0.465,-0.105
20:59:04.624,-0.49,-0.09
20:59:04.628,-0.475,-0.125
20:59:04.632,-0.495,-0.09
20:59:04.636,-0.49,-0.1
20:59:04.640,-0.49,-0.12
20:59:04.644,-0.51,-0.1
20:59:04.648,-0.52,-0.08
20:59:04.652,-0.52,-0.11
20:59:04.656,-0.5,-0.1
20:59:04.660,-0.5,-0.07
20:59:04.664,-0.49,-0.085
20:59:04.668,-0.5,-0.095
20:59:04.672,-0.48,-0.1
20:59:04.676,-0.475,-0.08
20:59:04.680,-0.46,-0.075
20:59:04.684,-0.47,-0.08
20:59:04.688,-0.455,-0.09
20:59:04.692,-0.46,-0.07
20:59:04.696,-0.45,-0.085
20:59:04.700,-0.43,-0.09
20:59:04.704,-0.41,-0.1
20:59:04.708,-0.405,-0.09
20:59:04.712,-0.4,-0.1
20:59:04.716,-0.395,-0.125
20:59:04.720,-0.39,-0.12
20:59:04.724,-0.39,-0.125
20:59:04.728,-0.365,-0.145
20:59:04.732,-0.35,-0.14
20:59:04.736,-0.33,-0.17
20:59:04.740,-0.315,-0.16
20:59:04.744,-0.31,-0.185
20:59:04.748,-0.3,-0.175
20:59:04.752,-0.29,-0.195
20:59:04.756,-0.27,-0.195
20:59:04.760,-0.27,-0.175
20:59:04.764,-0.255,-0.18
20:59:04.768,-0.255,-0.18
20:59:04.772,-0.22,-0.17
20:59:04.776,-0.225,-0.185
20:59:04.780,-0.21,-0.17
20:59:04.784,-0.2,-0.16
20:59:04.788,-0.215,-0.165
20:59:04.792,-0.2,-0.17
20:59:04.796,-0.19,-0.18
20:59:04.800,-0.19,-0.155
20:59:04.804,-0.215,-0.155
20:59:04.808,-0.2,-0.14
20:59:04.812,-0.205,-0.165
20:59:04.816,-0.18,-0.16
20:59:04.820,-0.2,-0.155
20:59:04.824,-0.21,-0.17
20:59:04.828,-0.22,-0.145
20:59:04.832,-0.225,-0.165
20:59:04.836,-0.225,-0.17
20:59:04.840,-0.21,-0.165
20:59:04.844,-0.205,-0.165
20:59:04.848,-0.22,-0.17
20:59:04.852,-0.225,-0.16
20:59:04.856,-0.2,-0.17
20:59:04.860,-0.21,-0.17
20:59:04.864,-0.22,-0.16
20:59:04.868,-0.195,-0.16
20:59:04.872,-0.18,-0.16
20:59:04.876,-0.165,-0.155
20:59:04.880,-0.17,-0.16
20:59:04.884,-0.17,-0.135
20:59:04.888,-0.145,-0.16
20:59:04.892,-0.14,-0.14
20:59:04.896,-0.09,-0.135
20:59:04.900,-0.06,-0.14
20:59:04.904,-0.015,-0.11
20:59:04.908,-0.005,-0.105
20:59:04.912,0.005,-0.08
20:59:04.916,0.045,-0.11
20:59:04.920,0.06,-0.115
20:59:04.924,0.06,-0.1
20:59:04.928,0.065,-0.11
20:59:04.932,0.04,-0.135
20:59:04.936,-0.01,-0.145
20:59:04.940,-0.06,-0.19
20:59:04.944,-0.12,-0.195
20:59:04.948,-0.175,-0.195
20:59:04.952,-0.22,-0.2
20:59:04.956,-0.27,-0.205
20:59:04.960,-0.275,-0.18
20:59:04.964,-0.325,-0.175
20:59:04.968,-0.345,-0.16
20:59:04.972,-0.335,-0.17
20:59:04.976,-0.325,-0.175
20:59:04.980,-0.325,-0.18
20:59:04.984,-0.325,-0.18
20:59:04.988,-0.3,-0.2
20:59:04.992,-0.305,-0.18
20:59:04.996,-0.3,-0.185
20:59:05.000,-0.285,-0.185
20:59:05.004,-0.275,-0.195
20:59:05.008,-0.28,-0.195
20:59:05.012,-0.26,-0.19
20:59:05.016,-0.27,-0.19
20:59:05.020,-0.265,-0.17
20:59:05.024,-0.28,-0.195
20:59:05.028,-0.27,-0.2
20:59:05.032,-0.285,-0.185
20:59:05.036,-0.28,-0.175
20:59:05.040,-0.26,-0.18
20:59:05.044,-0.28,-0.17
20:59:05.048,-0.275,-0.17
20:59:05.052,-0.305,-0.19
20:59:05.056,-0.28,-0.19
20:59:05.060,-0.285,-0.18
20:59:05.064,-0.285,-0.195
20:59:05.068,-0.265,-0.195
20:59:05.072,-0.235,-0.185
20:59:05.076,-0.18,-0.22
20:59:05.080,-0.12,-0.2
20:59:05.084,-0.04,-0.215
20:59:05.088,0.06,-0.215
20:59:05.092,0.12,-0.265
20:59:05.096,0.165,-0.32
20:59:05.100,0.155,-0.365
20:59:05.104,0.205,-0.36
20:59:05.108,0.215,-0.395
20:59:05.112,0.21,-0.445
20:59:05.116,0.275,-0.6
20:59:05.120,0.47,-0.745
20:59:05.124,0.8,-0.965
20:59:05.128,1.07,-1.225
20:59:05.132,1.16,-1.42
20:59:05.136,0.96,-1.47
20:59:05.140,0.51,-1.29
20:59:05.144,0.05,-0.88
20:59:05.148,-0.195,-0.525
20:59:05.152,-0.31,-0.34
20:59:05.156,-0.355,-0.215
20:59:05.160,-0.355,-0.13
20:59:05.164,-0.35,-0.065
20:59:05.168,-0.38,-0.045
20:59:05.172,-0.39,-0.025
20:59:05.176,-0.4,-0.015
20:59:05.180,-0.405,-0.035
20:59:05.184,-0.405,-0.05
20:59:05.188,-0.405,-0.075
20:59:05.192,-0.405,-0.1
20:59:05.196,-0.41,-0.055
20:59:05.200,-0.41,-0.06
20:59:05.204,-0.43,-0.08
20:59:05.208,-0.415,-0.075
20:59:05.212,-0.43,-0.08
20:59:05.216,-0.43,-0.07
20:59:05.220,-0.435,-0.08
20:59:05.224,-0.42,-0.08
20:59:05.228,-0.39,-0.08
20:59:05.232,-0.39,-0.065
20:59:05.236,-0.42,-0.045
20:59:05.240,-0.41,-0.055
20:59:05.244,-0.41,-0.04
20:59:05.248,-0.42,-0.06
20:59:05.252,-0.42,-0.06
20:59:05.256,-0.43,-0.06
20:59:05.260,-0.43,-0.065
20:59:05.264,-0.435,-0.06
20:59:05.268,-0.44,-0.05
20:59:05.272,-0.45,-0.045
20:59:05.276,-0.445,-0.05
20:59:05.280,-0.475,-0.05
20:59:05.284,-0.46,-0.045
20:59:05.288,-0.46,-0.055
20:59:05.292,-0.48,-0.06
20:59:05.296,-0.47,-0.07
20:59:05.300,-0.47,-0.06
20:59:05.304,-0.47,-0.055
20:59:05.308,-0.475,-0.075
20:59:05.312,-0.475,-0.07
20:59:05.316,-0.445,-0.07
20:59:05.320,-0.43,-0.095
20:59:05.324,-0.44,-0.07
20:59:05.328,-0.435,-0.075
20:59:05.332,-0.41,-0.085
20:59:05.336,-0.39,-0.09
20:59:05.340,-0.375,-0.075
20:59:05.344,-0.36,-0.08
20:59:05.348,-0.355,-0.115
20:59:05.352,-0.32,-0.115
20:59:05.356,-0.325,-0.105
20:59:05.360,-0.315,-0.12
20:59:05.364,-0.29,-0.12
20:59:05.368,-0.3,-0.135
20:59:05.372,-0.28,-0.14
20:59:05.376,-0.275,-0.14
20:59:05.380,-0.25,-0.15
20:59:05.384,-0.235,-0.155
20:59:05.388,-0.24,-0.145
20:59:05.392,-0.23,-0.14
20:59:05.396,-0.24,-0.15
20:59:05.400,-0.235,-0.18
20:59:05.404,-0.22,-0.16
20:59:05.408,-0.22,-0.16
20:59:05.412,-0.21,-0.16
20:59:05.416,-0.19,-0.17
20:59:05.420,-0.185,-0.16
20:59:05.424,-0.205,-0.15
20:59:05.428,-0.2,-0.14
20:59:05.432,-0.2,-0.15
20:59:05.436,-0.2,-0.15
20:59:05.440,-0.205,-0.16
20:59:05.444,-0.195,-0.16
20:59:05.448,-0.18,-0.155
20:59:05.452,-0.15,-0.15
20:59:05.456,-0.165,-0.125
20:59:05.460,-0.165,-0.12
20:59:05.464,-0.185,-0.125
20:59:05.468,-0.18,-0.13
20:59:05.472,-0.18,-0.135
20:59:05.476,-0.18,-0.125
20:59:05.480,-0.185,-0.125
20:59:05.484,-0.19,-0.13
20:59:05.488,-0.185,-0.095
20:59:05.492,-0.205,-0.12
20:59:05.496,-0.2,-0.115
20:59:05.500,-0.2,-0.11
20:59:05.504,-0.2,-0.11
20:59:05.508,-0.205,-0.1
20:59:05.512,-0.195,-0.11
20:59:05.516,-0.17,-0.125
20:59:05.520,-0.17,-0.15
20:59:05.524,-0.16,-0.13
20:59:05.528,-0.155,-0.14
20:59:05.532,-0.13,-0.125
20:59:05.536,-0.09,-0.125
20:59:05.540,-0.04,-0.13
20:59:05.544,-0.02,-0.105
20:59:05.548,0.01,-0.095
20:59:05.552,0.025,-0.12
20:59:05.556,0.03,-0.1
20:59:05.560,0.05,-0.1
20:59:05.564,0.065,-0.09
20:59:05.568,0.075,-0.09
20:59:05.572,0.025,-0.13
20:59:05.576,-0.005,-0.17
20:59:05.580,-0.055,-0.155
20:59:05.584,-0.09,-0.17
20:59:05.588,-0.16,-0.16
20:59:05.592,-0.21,-0.175
20:59:05.596,-0.245,-0.18
20:59:05.600,-0.3,-0.165
20:59:05.604,-0.305,-0.145
20:59:05.608,-0.325,-0.15
20:59:05.612,-0.35,-0.16
20:59:05.616,-0.335,-0.155
20:59:05.620,-0.32,-0.18
20:59:05.624,-0.335,-0.18
20:59:05.628,-0.32,-0.2
20:59:05.632,-0.315,-0.205
20:59:05.636,-0.31,-0.195
20:59:05.640,-0.32,-0.19
20:59:05.644,-0.3,-0.185
20:59:05.648,-0.29,-0.2
20:59:05.652,-0.285,-0.18
20:59:05.656,-0.32,-0.175
20:59:05.660,-0.3,-0.17
20:59:05.664,-0.32,-0.18
20:59:05.668,-0.3,-0.18
20:59:05.672,-0.305,-0.195
20:59:05.676,-0.295,-0.19
20:59:05.680,-0.27,-0.18
20:59:05.684,-0.28,-0.18
20:59:05.688,-0.26,-0.205
20:59:05.692,-0.25,-0.185
20:59:05.696,-0.27,-0.195
20:59:05.700,-0.26,-0.19
20:59:05.704,-0.26,-0.16
20:59:05.708,-0.24,-0.18
20:59:05.712,-0.2,-0.185
20:59:05.716,-0.14,-0.19
20:59:05.720,-0.06,-0.18
20:59:05.724,0.025,-0.195
20:59:05.728,0.095,-0.215
20:59:05.732,0.14,-0.235
20:59:05.736,0.18,-0.295
20:59:05.740,0.195,-0.34
20:59:05.744,0.215,-0.355
20:59:05.748,0.185,-0.4
20:59:05.752,0.215,-0.525
20:59:05.756,0.39,-0.685
20:59:05.760,0.69,-0.9
20:59:05.764,1.005,-1.13
20:59:05.768,1.155,-1.37
20:59:05.772,1.025,-1.475
20:59:05.776,0.615,-1.385
20:59:05.780,0.115,-1.015
20:59:05.784,-0.19,-0.64
20:59:05.788,-0.335,-0.37
20:59:05.792,-0.37,-0.245
20:59:05.796,-0.37,-0.155
20:59:05.800,-0.37,-0.075
20:59:05.804,-0.375,-0.04
20:59:05.808,-0.4,-0.04
20:59:05.812,-0.395,-0.01
20:59:05.816,-0.41,-0.015
20:59:05.820,-0.415,-0.055
20:59:05.824,-0.43,-0.03
20:59:05.828,-0.42,-0.05
20:59:05.832,-0.44,-0.055
20:59:05.836,-0.42,-0.04
20:59:05.840,-0.445,-0.055
20:59:05.844,-0.45,-0.055
20:59:05.848,-0.445,-0.04
20:59:05.852,-0.47,-0.06
20:59:05.856,-0.46,-0.02
20:59:05.860,-0.47,-0.045
20:59:05.864,-0.45,-0.05
20:59:05.868,-0.455,-0.06
20:59:05.872,-0.46,-0.06
20:59:05.876,-0.465,-0.05
20:59:05.880,-0.495,-0.04
20:59:05.884,-0.5,-0.025
20:59:05.888,-0.485,-0.025
20:59:05.892,-0.5,-0.025
20:59:05.896,-0.5,-0.025
20:59:05.900,-0.525,-0.02
20:59:05.904,-0.515,-0.015
20:59:05.908,-0.525,-0.025
20:59:05.912,-0.49,0.0
20:59:05.916,-0.49,-0.01
20:59:05.920,-0.48,-0.005
20:59:05.924,-0.49,-0.03
20:59:05.928,-0.515,-0.005
20:59:05.932,-0.505,0.0
20:59:05.936,-0.49,0.005
20:59:05.940,-0.495,0.01
20:59:05.944,-0.485,0.005
20:59:05.948,-0.495,0.005
20:59:05.952,-0.495,0.005
20:59:05.956,-0.505,0.005
20:59:05.960,-0.5,-0.02
20:59:05.964,-0.495,0.005
20:59:05.968,-0.48,-0.01
20:59:05.972,-0.47,0.005
20:59:05.976,-0.455,-0.02
20:59:05.980,-0.45,0.005
20:59:05.984,-0.43,-0.03
20:59:05.988,-0.425,-0.03
20:59:05.992,-0.41,-0.025
20:59:05.996,-0.405,-0.045
20:59:06.000,-0.39,-0.045
20:59:06.004,-0.385,-0.05
20:59:06.008,-0.38,-0.055
20:59:06.012,-0.365,-0.06
20:59:06.016,-0.33,-0.05
20:59:06.020,-0.325,-0.055
20:59:06.024,-0.315,-0.05
20:59:06.028,-0.3,-0.07
20:59:06.032,-0.29,-0.06
20:59:06.036,-0.3,-0.04
20:59:06.040,-0.295,-0.04
20:59:06.044,-0.26,-0.035
20:59:06.048,-0.255,-0.055
20:59:06.052,-0.255,-0.045
20:59:06.056,-0.245,-0.065
20:59:06.060,-0.265,-0.035
20:59:06.064,-0.265,-0.045
20:59:06.068,-0.265,-0.035
20:59:06.072,-0.26,-0.05
20:59:06.076,-0.255,-0.04
20:59:06.080,-0.27,-0.04
20:59:06.084,-0.275,-0.03
20:59:06.088,-0.27,-0.025
20:59:06.092,-0.255,-0.055
20:59:06.096,-0.26,-0.035
20:59:06.100,-0.28,-0.03
20:59:06.104,-0.275,-0.03
20:59:06.108,-0.275,-0.025
20:59:06.112,-0.27,-0.03
20:59:06.116,-0.25,-0.025
20:59:06.120,-0.285,-0.035
20:59:06.124,-0.26,-0.03
20:59:06.128,-0.255,-0.04
20:59:06.132,-0.23,-0.035
20:59:06.136,-0.235,-0.04
20:59:06.140,-0.24,-0.04
20:59:06.144,-0.235,-0.02
20:59:06.148,-0.235,-0.02
20:59:06.152,-0.23,-0.03
20:59:06.156,-0.195,-0.035
20:59:06.160,-0.215,-0.045
20:59:06.164,-0.21,-0.055
20:59:06.168,-0.19,-0.05
20:59:06.172,-0.185,-0.05
20:59:06.176,-0.155,-0.03
20:59:06.180,-0.13,-0.05
20:59:06.184,-0.09,-0.025
20:59:06.188,-0.075,-0.02
20:59:06.192,-0.035,-0.015
20:59:06.196,-0.025,-0.045
20:59:06.200,0.005,-0.04
20:59:06.204,-0.005,-0.03
20:59:06.208,0.005,-0.07
20:59:06.212,-0.015,-0.055
20:59:06.216,-0.065,-0.1
20:59:06.220,-0.09,-0.12
20:59:06.224,-0.14,-0.145
20:59:06.228,-0.195,-0.13
20:59:06.232,-0.255,-0.135
20:59:06.236,-0.29,-0.135
20:59:06.240,-0.325,-0.15
20:59:06.244,-0.35,-0.135
20:59:06.248,-0.35,-0.14
20:59:06.252,-0.36,-0.13
20:59:06.256,-0.365,-0.12
20:59:06.260,-0.365,-0.155
20:59:06.264,-0.345,-0.165
20:59:06.268,-0.36,-0.16
20:59:06.272,-0.34,-0.175
20:59:06.276,-0.35,-0.195
20:59:06.280,-0.33,-0.195
20:59:06.284,-0.325,-0.18
20:59:06.288,-0.34,-0.195
20:59:06.292,-0.335,-0.19
20:59:06.296,-0.335,-0.185
20:59:06.300,-0.345,-0.19
20:59:06.304,-0.365,-0.205
20:59:06.308,-0.37,-0.215
20:59:06.312,-0.35,-0.225
20:59:06.316,-0.345,-0.225
20:59:06.320,-0.335,-0.215
20:59:06.324,-0.32,-0.225
20:59:06.328,-0.32,-0.25
20:59:06.332,-0.34,-0.255
20:59:06.336,-0.325,-0.245
20:59:06.340,-0.32,-0.26
20:59:06.344,-0.31,-0.25
20:59:06.348,-0.315,-0.24
20:59:06.352,-0.265,-0.265
20:59:06.356,-0.21,-0.26
20:59:06.360,-0.135,-0.285
20:59:06.364,-0.045,-0.25
20:59:06.368,0.025,-0.255
20:59:06.372,0.135,-0.32
20:59:06.376,0.18,-0.355
20:59:06.380,0.245,-0.4
20:59:06.384,0.295,-0.41
20:59:06.388,0.31,-0.425
20:59:06.392,0.285,-0.47
20:59:06.396,0.31,-0.565
20:59:06.400,0.495,-0.69
20:59:06.404,0.81,-0.905
20:59:06.408,1.045,-1.155
20:59:06.412,1.12,-1.385
20:59:06.416,0.9,-1.47
20:59:06.420,0.42,-1.315
20:59:06.424,-0.025,-0.955
20:59:06.428,-0.245,-0.655
20:59:06.432,-0.335,-0.49
20:59:06.436,-0.365,-0.38
20:59:06.440,-0.365,-0.275
20:59:06.444,-0.385,-0.215
20:59:06.448,-0.415,-0.18
20:59:06.452,-0.435,-0.16
20:59:06.456,-0.445,-0.165
20:59:06.460,-0.465,-0.205
20:59:06.464,-0.455,-0.21
20:59:06.468,-0.455,-0.215
20:59:06.472,-0.465,-0.22
20:59:06.476,-0.465,-0.23
20:59:06.480,-0.46,-0.225
20:59:06.484,-0.465,-0.225
20:59:06.488,-0.45,-0.215
20:59:06.492,-0.44,-0.225
20:59:06.496,-0.445,-0.24
20:59:06.500,-0.45,-0.235
20:59:06.504,-0.455,-0.22
20:59:06.508,-0.465,-0.22
20:59:06.512,-0.475,-0.235
20:59:06.516,-0.48,-0.24
20:59:06.520,-0.495,-0.245
20:59:06.524,-0.495,-0.245
20:59:06.528,-0.5,-0.255
20:59:06.532,-0.505,-0.265
20:59:06.536,-0.525,-0.26
20:59:06.540,-0.52,-0.24
20:59:06.544,-0.52,-0.25
20:59:06.548,-0.515,-0.25
20:59:06.552,-0.515,-0.265
20:59:06.556,-0.515,-0.24
20:59:06.560,-0.535,-0.26
20:59:06.564,-0.53,-0.255
20:59:06.568,-0.54,-0.25
20:59:06.572,-0.54,-0.235
20:59:06.576,-0.53,-0.23
20:59:06.580,-0.53,-0.235
20:59:06.584,-0.515,-0.23
20:59:06.588,-0.52,-0.23
20:59:06.592,-0.51,-0.25
20:59:06.596,-0.475,-0.23
20:59:06.600,-0.48,-0.2
20:59:06.604,-0.465,-0.225
20:59:06.608,-0.475,-0.21
20:59:06.612,-0.47,-0.23
20:59:06.616,-0.465,-0.215
20:59:06.620,-0.445,-0.225
20:59:06.624,-0.435,-0.215
20:59:06.628,-0.42,-0.235
20:59:06.632,-0.42,-0.23
20:59:06.636,-0.415,-0.25
20:59:06.640,-0.395,-0.255
20:59:06.644,-0.395,-0.255
20:59:06.648,-0.365,-0.26
20:59:06.652,-0.35,-0.245
20:59:06.656,-0.33,-0.275
20:59:06.660,-0.32,-0.275
20:59:06.664,-0.32,-0.285
20:59:06.668,-0.3,-0.27
20:59:06.672,-0.29,-0.285
20:59:06.676,-0.285,-0.29
20:59:06.680,-0.265,-0.3
20:59:06.684,-0.26,-0.275
20:59:06.688,-0.255,-0.275
20:59:06.692,-0.26,-0.265
20:59:06.696,-0.225,-0.275
20:59:06.700,-0.22,-0.285
20:59:06.704,-0.21,-0.285
20:59:06.708,-0.225,-0.28
20:59:06.712,-0.205,-0.285
20:59:06.716,-0.215,-0.25
20:59:06.720,-0.2,-0.275
20:59:06.724,-0.21,-0.255
20:59:06.728,-0.205,-0.265
20:59:06.732,-0.215,-0.25
20:59:06.736,-0.205,-0.24
20:59:06.740,-0.23,-0.24
20:59:06.744,-0.205,-0.235
20:59:06.748,-0.21,-0.255
20:59:06.752,-0.235,-0.27
20:59:06.756,-0.24,-0.24
20:59:06.760,-0.26,-0.24
20:59:06.764,-0.255,-0.23
20:59:06.768,-0.24,-0.24
20:59:06.772,-0.245,-0.28
20:59:06.776,-0.245,-0.265
20:59:06.780,-0.24,-0.26
20:59:06.784,-0.255,-0.24
20:59:06.788,-0.23,-0.24
20:59:06.792,-0.24,-0.225
20:59:06.796,-0.225,-0.255
20:59:06.800,-0.21,-0.24
20:59:06.804,-0.2,-0.22
20:59:06.808,-0.19,-0.205
20:59:06.812,-0.16,-0.205
20:59:06.816,-0.135,-0.21
20:59:06.820,-0.115,-0.2
20:59:06.824,-0.065,-0.2
20:59:06.828,-0.045,-0.14
20:59:06.832,-0.005,-0.16
20:59:06.836,0.005,-0.16
20:59:06.840,0.03,-0.145
20:59:06.844,0.04,-0.155
20:59:06.848,0.055,-0.13
20:59:06.852,0.055,-0.15
20:59:06.856,0.05,-0.155
20:59:06.860,0.005,-0.185
20:59:06.864,-0.05,-0.235
20:59:06.868,-0.105,-0.225
20:59:06.872,-0.16,-0.24
20:59:06.876,-0.215,-0.24
20:59:06.880,-0.24,-0.22
20:59:06.884,-0.295,-0.215
20:59:06.888,-0.33,-0.215
20:59:06.892,-0.34,-0.195
20:59:06.896,-0.35,-0.2
20:59:06.900,-0.36,-0.2
20:59:06.904,-0.34,-0.215
20:59:06.908,-0.335,-0.21
20:59:06.912,-0.345,-0.215
20:59:06.916,-0.325,-0.24
20:59:06.920,-0.33,-0.24
20:59:06.924,-0.33,-0.23
20:59:06.928,-0.31,-0.225
20:59:06.932,-0.3,-0.225
20:59:06.936,-0.3,-0.24
20:59:06.940,-0.3,-0.245
20:59:06.944,-0.28,-0.23
20:59:06.948,-0.305,-0.22
20:59:06.952,-0.275,-0.235
20:59:06.956,-0.28,-0.225
20:59:06.960,-0.275,-0.215
20:59:06.964,-0.305,-0.225
20:59:06.968,-0.295,-0.23
20:59:06.972,-0.295,-0.22
20:59:06.976,-0.305,-0.25
20:59:06.980,-0.3,-0.235
20:59:06.984,-0.29,-0.225
20:59:06.988,-0.285,-0.22
20:59:06.992,-0.265,-0.235
20:59:06.996,-0.23,-0.22
20:59:07.000,-0.205,-0.24
20:59:07.004,-0.115,-0.24
20:59:07.008,-0.05,-0.23
20:59:07.012,0.055,-0.255
20:59:07.016,0.12,-0.295
20:59:07.020,0.175,-0.325
20:59:07.024,0.215,-0.355
20:59:07.028,0.25,-0.4
20:59:07.032,0.25,-0.4
20:59:07.036,0.255,-0.48
20:59:07.040,0.33,-0.605
20:59:07.044,0.565,-0.795
20:59:07.048,0.88,-1.01
20:59:07.052,1.115,-1.25
20:59:07.056,1.19,-1.45
20:59:07.060,0.975,-1.5
20:59:07.064,0.47,-1.28
20:59:07.068,0.005,-0.87
20:59:07.072,-0.235,-0.535
20:59:07.076,-0.315,-0.33
20:59:07.080,-0.355,-0.18
20:59:07.084,-0.32,-0.125
20:59:07.088,-0.365,-0.065
20:59:07.092,-0.395,-0.05
20:59:07.096,-0.385,-0.045
20:59:07.100,-0.385,-0.04
20:59:07.104,-0.39,-0.05
20:59:07.108,-0.395,-0.035
20:59:07.112,-0.405,-0.045
20:59:07.116,-0.385,-0.05
20:59:07.120,-0.395,-0.085
20:59:07.124,-0.385,-0.07
20:59:07.128,-0.395,-0.07
20:59:07.132,-0.405,-0.065
20:59:07.136,-0.4,-0.085
20:59:07.140,-0.42,-0.07
20:59:07.144,-0.42,-0.07
20:59:07.148,-0.4,-0.065
20:59:07.152,-0.415,-0.075
20:59:07.156,-0.395,-0.065
20:59:07.160,-0.395,-0.07
20:59:07.164,-0.385,-0.08
20:59:07.168,-0.4,-0.075
20:59:07.172,-0.4,-0.06
20:59:07.176,-0.415,-0.05
20:59:07.180,-0.43,-0.065
20:59:07.184,-0.42,-0.055
20:59:07.188,-0.435,-0.06
20:59:07.192,-0.45,-0.065
20:59:07.196,-0.435,-0.085
20:59:07.200,-0.445,-0.055
20:59:07.204,-0.44,-0.075
20:59:07.208,-0.45,-0.08
20:59:07.212,-0.45,-0.075
20:59:07.216,-0.46,-0.09
20:59:07.220,-0.475,-0.1
20:59:07.224,-0.445,-0.08
20:59:07.228,-0.465,-0.1
20:59:07.232,-0.45,-0.085
20:59:07.236,-0.44,-0.105
20:59:07.240,-0.44,-0.095
20:59:07.244,-0.44,-0.1
20:59:07.248,-0.43,-0.1
20:59:07.252,-0.415,-0.1
20:59:07.256,-0.395,-0.105
20:59:07.260,-0.37,-0.1
20:59:07.264,-0.385,-0.1
20:59:07.268,-0.35,-0.125
20:59:07.272,-0.36,-0.11
20:59:07.276,-0.325,-0.135
20:59:07.280,-0.32,-0.13
20:59:07.284,-0.31,-0.125
20:59:07.288,-0.285,-0.145
20:59:07.292,-0.28,-0.13
20:59:07.296,-0.27,-0.155
20:59:07.300,-0.27,-0.16
20:59:07.304,-0.245,-0.17
20:59:07.308,-0.25,-0.175
20:59:07.312,-0.225,-0.17
20:59:07.316,-0.225,-0.175
20:59:07.320,-0.215,-0.165
20:59:07.324,-0.22,-0.18
20:59:07.328,-0.215,-0.18
20:59:07.332,-0.22,-0.17
20:59:07.336,-0.205,-0.2
20:59:07.340,-0.2,-0.17
20:59:07.344,-0.205,-0.185
20:59:07.348,-0.185,-0.195
20:59:07.352,-0.18,-0.185
20:59:07.356,-0.18,-0.165
20:59:07.360,-0.18,-0.145
20:59:07.364,-0.175,-0.175
20:59:07.368,-0.19,-0.165
20:59:07.372,-0.18,-0.165
20:59:07.376,-0.18,-0.16
20:59:07.380,-0.175,-0.155
20:59:07.384,-0.175,-0.17
20:59:07.388,-0.165,-0.16
20:59:07.392,-0.195,-0.155
20:59:07.396,-0.18,-0.16
20:59:07.400,-0.18,-0.16
20:59:07.404,-0.18,-0.155
20:59:07.408,-0.185,-0.15
20:59:07.412,-0.185,-0.155
20:59:07.416,-0.185,-0.16
20:59:07.420,-0.165,-0.16
20:59:07.424,-0.18,-0.16
20:59:07.428,-0.175,-0.155
20:59:07.432,-0.16,-0.175
20:59:07.436,-0.155,-0.17
20:59:07.440,-0.18,-0.16
20:59:07.444,-0.15,-0.14
20:59:07.448,-0.115,-0.13
20:59:07.452,-0.08,-0.155
20:59:07.456,-0.05,-0.145
20:59:07.460,-0.01,-0.13
20:59:07.464,0.015,-0.11
20:59:07.468,0.02,-0.115
20:59:07.472,0.045,-0.125
20:59:07.476,0.055,-0.12
20:59:07.480,0.06,-0.14
20:59:07.484,0.045,-0.15
20:59:07.488,0.0,-0.18
20:59:07.492,-0.03,-0.19
20:59:07.496,-0.06,-0.19
20:59:07.500,-0.14,-0.185
20:59:07.504,-0.165,-0.19
20:59:07.508,-0.24,-0.19
20:59:07.512,-0.275,-0.175
20:59:07.516,-0.33,-0.14
20:59:07.520,-0.335,-0.135
20:59:07.524,-0.31,-0.17
20:59:07.528,-0.33,-0.165
20:59:07.532,-0.32,-0.165
20:59:07.536,-0.325,-0.17
20:59:07.540,-0.35,-0.185
20:59:07.544,-0.325,-0.18
20:59:07.548,-0.33,-0.195
20:59:07.552,-0.34,-0.19
20:59:07.556,-0.345,-0.2
20:59:07.560,-0.345,-0.205
20:59:07.564,-0.34,-0.21
20:59:07.568,-0.335,-0.21
20:59:07.572,-0.35,-0.22
20:59:07.576,-0.325,-0.205
20:59:07.580,-0.33,-0.2
20:59:07.584,-0.335,-0.23
20:59:07.588,-0.34,-0.22
20:59:07.592,-0.315,-0.215
20:59:07.596,-0.335,-0.23
20:59:07.600,-0.315,-0.21
20:59:07.604,-0.315,-0.22
20:59:07.608,-0.32,-0.22
20:59:07.612,-0.29,-0.22
20:59:07.616,-0.305,-0.215
20:59:07.620,-0.285,-0.225
20:59:07.624,-0.265,-0.22
20:59:07.628,-0.2,-0.22
20:59:07.632,-0.15,-0.215
20:59:07.636,-0.075,-0.225
20:59:07.640,0.01,-0.21
20:59:07.644,0.08,-0.255
20:59:07.648,0.12,-0.31
20:59:07.652,0.165,-0.365
20:59:07.656,0.185,-0.36
20:59:07.660,0.175,-0.415
20:59:07.664,0.165,-0.465
20:59:07.668,0.22,-0.605
20:59:07.672,0.425,-0.755
20:59:07.676,0.73,-0.97
20:59:07.680,1.03,-1.22
20:59:07.684,1.115,-1.44
20:59:07.688,0.925,-1.525
20:59:07.692,0.44,-1.325
20:59:07.696,-0.015,-0.955
20:59:07.700,-0.28,-0.62
20:59:07.704,-0.375,-0.38
20:59:07.708,-0.39,-0.255
20:59:07.712,-0.415,-0.155
20:59:07.716,-0.415,-0.11
20:59:07.720,-0.435,-0.105
20:59:07.724,-0.435,-0.06
20:59:07.728,-0.425,-0.055
20:59:07.732,-0.43,-0.055
20:59:07.736,-0.42,-0.065
20:59:07.740,-0.435,-0.06
20:59:07.744,-0.435,-0.08
20:59:07.748,-0.43,-0.035
20:59:07.752,-0.42,-0.065
20:59:07.756,-0.43,-0.05
20:59:07.760,-0.44,-0.065
20:59:07.764,-0.445,-0.07
20:59:07.768,-0.435,-0.08
20:59:07.772,-0.455,-0.065
20:59:07.776,-0.47,-0.075
20:59:07.780,-0.475,-0.07
20:59:07.784,-0.48,-0.08
20:59:07.788,-0.485,-0.085
20:59:07.792,-0.495,-0.06
20:59:07.796,-0.455,-0.075
20:59:07.800,-0.475,-0.075
20:59:07.804,-0.48,-0.075
20:59:07.808,-0.485,-0.08
20:59:07.812,-0.505,-0.08
20:59:07.816,-0.505,-0.065
20:59:07.820,-0.505,-0.09
20:59:07.824,-0.51,-0.075
20:59:07.828,-0.505,-0.075
20:59:07.832,-0.505,-0.07
20:59:07.836,-0.515,-0.065
20:59:07.840,-0.515,-0.075
20:59:07.844,-0.52,-0.07
20:59:07.848,-0.495,-0.06
20:59:07.852,-0.495,-0.065
20:59:07.856,-0.48,-0.065
20:59:07.860,-0.49,-0.07
20:59:07.864,-0.48,-0.055
20:59:07.868,-0.47,-0.06
20:59:07.872,-0.455,-0.065
20:59:07.876,-0.465,-0.065
20:59:07.880,-0.45,-0.09
20:59:07.884,-0.455,-0.095
20:59:07.888,-0.44,-0.1
20:59:07.892,-0.45,-0.12
20:59:07.896,-0.44,-0.115
20:59:07.900,-0.44,-0.12
20:59:07.904,-0.42,-0.14
20:59:07.908,-0.415,-0.145
20:59:07.912,-0.395,-0.14
20:59:07.916,-0.365,-0.175
20:59:07.920,-0.355,-0.155
20:59:07.924,-0.325,-0.16
20:59:07.928,-0.345,-0.17
20:59:07.932,-0.32,-0.15
20:59:07.936,-0.3,-0.16
20:59:07.940,-0.305,-0.16
20:59:07.944,-0.26,-0.17
20:59:07.948,-0.26,-0.18
20:59:07.952,-0.24,-0.17
20:59:07.956,-0.24,-0.145
20:59:07.960,-0.24,-0.165
20:59:07.964,-0.215,-0.18
20:59:07.968,-0.215,-0.155
20:59:07.972,-0.22,-0.155
20:59:07.976,-0.205,-0.13
20:59:07.980,-0.205,-0.135
20:59:07.984,-0.21,-0.15
20:59:07.988,-0.23,-0.145
20:59:07.992,-0.2,-0.145
20:59:07.996,-0.225,-0.13
20:59:08.000,-0.24,-0.13
20:59:08.004,-0.225,-0.125
20:59:08.008,-0.22,-0.13
20:59:08.012,-0.23,-0.12
20:59:08.016,-0.24,-0.11
20:59:08.020,-0.225,-0.13
20:59:08.024,-0.225,-0.13
20:59:08.028,-0.25,-0.145
20:59:08.032,-0.24,-0.13
20:59:08.036,-0.225,-0.125
20:59:08.040,-0.24,-0.115
20:59:08.044,-0.25,-0.125
20:59:08.048,-0.225,-0.115
20:59:08.052,-0.22,-0.12
20:59:08.056,-0.21,-0.11
20:59:08.060,-0.215,-0.135
20:59:08.064,-0.185,-0.105
20:59:08.068,-0.175,-0.1
20:59:08.072,-0.165,-0.105
20:59:08.076,-0.16,-0.105
20:59:08.080,-0.16,-0.075
20:59:08.084,-0.13,-0.08
20:59:08.088,-0.085,-0.08
20:59:08.092,-0.045,-0.07
20:59:08.096,-0.01,-0.065
20:59:08.100,0.01,-0.06
20:59:08.104,0.035,-0.05
20:59:08.108,0.045,-0.075
20:59:08.112,0.05,-0.04
20:59:08.116,0.06,-0.055
20:59:08.120,0.015,-0.06
20:59:08.124,-0.02,-0.095
20:59:08.128,-0.05,-0.12
20:59:08.132,-0.095,-0.135
20:59:08.136,-0.16,-0.155
20:59:08.140,-0.22,-0.155
20:59:08.144,-0.29,-0.145
20:59:08.148,-0.315,-0.145
20:59:08.152,-0.32,-0.11
20:59:08.156,-0.35,-0.12
20:59:08.160,-0.36,-0.12
20:59:08.164,-0.375,-0.11
20:59:08.168,-0.365,-0.125
20:59:08.172,-0.345,-0.135
20:59:08.176,-0.335,-0.125
20:59:08.180,-0.335,-0.145
20:59:08.184,-0.32,-0.145
20:59:08.188,-0.32,-0.125
20:59:08.192,-0.31,-0.13
20:59:08.196,-0.325,-0.135
20:59:08.200,-0.315,-0.155
20:59:08.204,-0.315,-0.14
20:59:08.208,-0.32,-0.145
20:59:08.212,-0.32,-0.155
20:59:08.216,-0.3,-0.15
20:59:08.220,-0.305,-0.155
20:59:08.224,-0.315,-0.14
20:59:08.228,-0.32,-0.135
20:59:08.232,-0.315,-0.135
20:59:08.236,-0.32,-0.135
20:59:08.240,-0.34,-0.155
20:59:08.244,-0.31,-0.15
20:59:08.248,-0.305,-0.14
20:59:08.252,-0.305,-0.17
20:59:08.256,-0.29,-0.165
20:59:08.260,-0.285,-0.165
20:59:08.264,-0.235,-0.175
20:59:08.268,-0.16,-0.155
20:59:08.272,-0.06,-0.17
20:59:08.276,0.025,-0.165
20:59:08.280,0.08,-0.185
20:59:08.284,0.13,-0.235
20:59:08.288,0.175,-0.285
20:59:08.292,0.2,-0.29
20:59:08.296,0.21,-0.315
20:59:08.300,0.21,-0.39
20:59:08.304,0.255,-0.515
20:59:08.308,0.445,-0.67
20:59:08.312,0.79,-0.88
20:59:08.316,1.05,-1.13
20:59:08.320,1.15,-1.35
20:59:08.324,0.935,-1.425
20:59:08.328,0.475,-1.225
20:59:08.332,0.01,-0.875
20:59:08.336,-0.25,-0.505
20:59:08.340,-0.365,-0.295
20:59:08.344,-0.39,-0.195
20:59:08.348,-0.385,-0.085
20:59:08.352,-0.39,-0.03
20:59:08.356,-0.415,-0.01
20:59:08.360,-0.425,-0.01
20:59:08.364,-0.44,0.005
20:59:08.368,-0.415,-0.015
20:59:08.372,-0.42,-0.025
20:59:08.376,-0.435,-0.06
20:59:08.380,-0.435,-0.055
20:59:08.384,-0.44,-0.045
20:59:08.388,-0.465,-0.06
20:59:08.392,-0.435,-0.035
20:59:08.396,-0.45,-0.045
20:59:08.400,-0.45,-0.035
20:59:08.404,-0.425,-0.02
20:59:08.408,-0.445,-0.015
20:59:08.412,-0.435,0.0
20:59:08.416,-0.445,-0.005
20:59:08.420,-0.45,-0.025
20:59:08.424,-0.46,0.0
20:59:08.428,-0.465,-0.005
20:59:08.432,-0.475,-0.01
20:59:08.436,-0.485,-0.005
20:59:08.440,-0.465,0.005
20:59:08.444,-0.465,0.01
20:59:08.448,-0.48,-0.01
20:59:08.452,-0.475,0.0
20:59:08.456,-0.5,0.005
20:59:08.460,-0.515,0.005
20:59:08.464,-0.535,0.0
20:59:08.468,-0.555,0.0
20:59:08.472,-0.545,0.01
20:59:08.476,-0.53,0.015
20:59:08.480,-0.53,0.0
20:59:08.484,-0.535,0.0
20:59:08.488,-0.545,0.0
20:59:08.492,-0.54,0.0
20:59:08.496,-0.52,0.0
20:59:08.500,-0.52,0.01
20:59:08.504,-0.535,0.0
20:59:08.508,-0.51,0.005
20:59:08.512,-0.5,0.01
20:59:08.516,-0.48,0.01
20:59:08.520,-0.465,0.02
20:59:08.524,-0.455,0.005
20:59:08.528,-0.465,0.02
20:59:08.532,-0.455,0.0
20:59:08.536,-0.45,-0.02
20:59:08.540,-0.445,-0.025
20:59:08.544,-0.425,-0.035
20:59:08.548,-0.41,-0.035
20:59:08.552,-0.41,-0.035
20:59:08.556,-0.4,-0.04
20:59:08.560,-0.385,-0.04
20:59:08.564,-0.375,-0.045
20:59:08.568,-0.36,-0.035
20:59:08.572,-0.355,-0.045
20:59:08.576,-0.34,-0.035
20:59:08.580,-0.35,-0.035
20:59:08.584,-0.345,-0.045
20:59:08.588,-0.33,-0.03
20:59:08.592,-0.32,-0.035
20:59:08.596,-0.32,-0.035
20:59:08.600,-0.33,-0.055
20:59:08.604,-0.295,-0.045
20:59:08.608,-0.305,-0.03
20:59:08.612,-0.3,-0.015
20:59:08.616,-0.32,0.0
20:59:08.620,-0.32,0.01
20:59:08.624,-0.305,0.01
20:59:08.628,-0.3,0.02
20:59:08.632,-0.29,0.025
20:59:08.636,-0.3,0.02
20:59:08.640,-0.28,0.03
20:59:08.644,-0.3,0.04
20:59:08.648,-0.29,0.03
20:59:08.652,-0.29,0.04
20:59:08.656,-0.295,0.04
20:59:08.660,-0.295,0.05
20:59:08.664,-0.295,0.035
20:59:08.668,-0.295,0.05
20:59:08.672,-0.275,0.04
20:59:08.676,-0.3,0.045
20:59:08.680,-0.3,0.055
20:59:08.684,-0.32,0.045
20:59:08.688,-0.32,0.04
20:59:08.692,-0.32,0.04
20:59:08.696,-0.3,0.04
20:59:08.700,-0.29,0.04
20:59:08.704,-0.285,0.035
20:59:08.708,-0.29,0.025
20:59:08.712,-0.275,0.025
20:59:08.716,-0.285,0.045
20:59:08.720,-0.24,0.01
20:59:08.724,-0.205,0.025
20:59:08.728,-0.18,0.045
20:59:08.732,-0.14,0.05
20:59:08.736,-0.115,0.07
20:59:08.740,-0.075,0.07
20:59:08.744,-0.05,0.075
20:59:08.748,-0.03,0.085
20:59:08.752,0.0,0.08
20:59:08.756,-0.005,0.05
20:59:08.760,-0.055,0.06
20:59:08.764,-0.115,0.055
20:59:08.768,-0.16,0.0
20:59:08.772,-0.21,-0.025
20:59:08.776,-0.265,-0.035
20:59:08.780,-0.305,-0.005
20:59:08.784,-0.36,-0.005
20:59:08.788,-0.405,0.0
20:59:08.792,-0.455,-0.01
20:59:08.796,-0.475,0.0
20:59:08.800,-0.455,-0.01
20:59:08.804,-0.46,-0.005
20:59:08.808,-0.46,-0.025
20:59:08.812,-0.45,-0.035
20:59:08.816,-0.42,-0.055
20:59:08.820,-0.415,-0.055
20:59:08.824,-0.43,-0.075
20:59:08.828,-0.415,-0.065
20:59:08.832,-0.41,-0.085
20:59:08.836,-0.415,-0.065
20:59:08.840,-0.415,-0.07
20:59:08.844,-0.43,-0.075
20:59:08.848,-0.425,-0.07
20:59:08.852,-0.43,-0.08
20:59:08.856,-0.4,-0.075
20:59:08.860,-0.4,-0.07
20:59:08.864,-0.385,-0.06
20:59:08.868,-0.385,-0.075
20:59:08.872,-0.38,-0.08
20:59:08.876,-0.39,-0.08
20:59:08.880,-0.385,-0.085
20:59:08.884,-0.375,-0.065
20:59:08.888,-0.39,-0.085
20:59:08.892,-0.39,-0.08
20:59:08.896,-0.365,-0.06
20:59:08.900,-0.33,-0.09
20:59:08.904,-0.28,-0.105
20:59:08.908,-0.2,-0.1
20:59:08.912,-0.125,-0.11
20:59:08.916,-0.03,-0.12
20:59:08.920,0.06,-0.16
20:59:08.924,0.11,-0.185
20:59:08.928,0.17,-0.255
20:59:08.932,0.21,-0.275
20:59:08.936,0.22,-0.255
20:59:08.940,0.21,-0.34
20:59:08.944,0.255,-0.435
20:59:08.948,0.44,-0.575
20:59:08.952,0.75,-0.79
20:59:08.956,1.02,-1.06
20:59:08.960,1.06,-1.265
20:59:08.964,0.785,-1.325
20:59:08.968,0.3,-1.125
20:59:08.972,-0.125,-0.765
20:59:08.976,-0.32,-0.465
20:59:08.980,-0.385,-0.305
20:59:08.984,-0.405,-0.16
20:59:08.988,-0.41,-0.085
20:59:08.992,-0.43,-0.02
20:59:08.996,-0.47,0.005
20:59:09.000,-0.475,0.005
20:59:09.004,-0.515,0.015
20:59:09.008,-0.51,-0.02
20:59:09.012,-0.52,-0.04
20:59:09.016,-0.51,-0.06
20:59:09.020,-0.505,-0.04
20:59:09.024,-0.515,-0.055
20:59:09.028,-0.525,-0.07
20:59:09.032,-0.545,-0.055
20:59:09.036,-0.525,-0.06
20:59:09.040,-0.535,-0.07
20:59:09.044,-0.525,-0.085
20:59:09.048,-0.52,-0.085
20:59:09.052,-0.525,-0.095
20:59:09.056,-0.54,-0.08
20:59:09.060,-0.54,-0.095
20:59:09.064,-0.53,-0.09
20:59:09.068,-0.55,-0.09
20:59:09.072,-0.55,-0.09
20:59:09.076,-0.55,-0.095
20:59:09.080,-0.54,-0.07
20:59:09.084,-0.54,-0.075
20:59:09.088,-0.535,-0.075
20:59:09.092,-0.525,-0.07
20:59:09.096,-0.54,-0.085
20:59:09.100,-0.545,-0.075
20:59:09.104,-0.535,-0.07
20:59:09.108,-0.57,-0.04
20:59:09.112,-0.545,-0.065
20:59:09.116,-0.535,-0.05
20:59:09.120,-0.54,-0.055
20:59:09.124,-0.545,-0.065
20:59:09.128,-0.54,-0.05
20:59:09.132,-0.54,-0.035
20:59:09.136,-0.53,-0.045
20:59:09.140,-0.52,-0.065
20:59:09.144,-0.52,-0.06
20:59:09.148,-0.52,-0.06
20:59:09.152,-0.5,-0.06
20:59:09.156,-0.505,-0.09
20:59:09.160,-0.475,-0.07
20:59:09.164,-0.465,-0.09
20:59:09.168,-0.445,-0.11
20:59:09.172,-0.465,-0.09
20:59:09.176,-0.43,-0.125
20:59:09.180,-0.43,-0.13
20:59:09.184,-0.42,-0.135
20:59:09.188,-0.42,-0.13
20:59:09.192,-0.38,-0.15
20:59:09.196,-0.38,-0.15
20:59:09.200,-0.35,-0.16
20:59:09.204,-0.335,-0.155
20:59:09.208,-0.32,-0.155
20:59:09.212,-0.315,-0.155
20:59:09.216,-0.29,-0.18
20:59:09.220,-0.28,-0.16
20:59:09.224,-0.295,-0.185
20:59:09.228,-0.26,-0.165
20:59:09.232,-0.24,-0.21
20:59:09.236,-0.255,-0.18
20:59:09.240,-0.25,-0.175
20:59:09.244,-0.255,-0.2
20:59:09.248,-0.235,-0.185
20:59:09.252,-0.245,-0.195
20:59:09.256,-0.275,-0.18
20:59:09.260,-0.255,-0.18
20:59:09.264,-0.245,-0.175
20:59:09.268,-0.25,-0.18
20:59:09.272,-0.25,-0.195
20:59:09.276,-0.25,-0.195
20:59:09.280,-0.23,-0.2
20:59:09.284,-0.23,-0.185
20:59:09.288,-0.235,-0.17
20:59:09.292,-0.23,-0.18
20:59:09.296,-0.245,-0.185
20:59:09.300,-0.245,-0.185
20:59:09.304,-0.24,-0.175
20:59:09.308,-0.235,-0.175
20:59:09.312,-0.245,-0.165
20:59:09.316,-0.245,-0.155
20:59:09.320,-0.22,-0.165
20:59:09.324,-0.225,-0.175
20:59:09.328,-0.205,-0.175
20:59:09.332,-0.22,-0.145
20:59:09.336,-0.21,-0.145
20:59:09.340,-0.18,-0.145
20:59:09.344,-0.18,-0.16
20:59:09.348,-0.195,-0.13
20:59:09.352,-0.175,-0.135
20:59:09.356,-0.17,-0.165
20:59:09.360,-0.14,-0.145
20:59:09.364,-0.11,-0.155
20:59:09.368,-0.08,-0.13
20:59:09.372,-0.04,-0.135
20:59:09.376,-0.035,-0.11
20:59:09.380,-0.025,-0.125
20:59:09.384,0.015,-0.15
20:59:09.388,0.03,-0.125
20:59:09.392,0.035,-0.135
20:59:09.396,0.05,-0.145
20:59:09.400,0.025,-0.155
20:59:09.404,-0.015,-0.18
20:59:09.408,-0.065,-0.205
20:59:09.412,-0.1,-0.21
20:59:09.416,-0.18,-0.215
20:59:09.420,-0.225,-0.205
20:59:09.424,-0.28,-0.21
20:59:09.428,-0.315,-0.18
20:59:09.432,-0.31,-0.17
20:59:09.436,-0.34,-0.165
20:59:09.440,-0.355,-0.17
20:59:09.444,-0.33,-0.18
20:59:09.448,-0.33,-0.19
20:59:09.452,-0.32,-0.175
20:59:09.456,-0.335,-0.205
20:59:09.460,-0.305,-0.205
20:59:09.464,-0.31,-0.18
20:59:09.468,-0.31,-0.195
20:59:09.472,-0.33,-0.19
20:59:09.476,-0.325,-0.18
20:59:09.480,-0.315,-0.18
20:59:09.484,-0.315,-0.22
20:59:09.488,-0.32,-0.22
20:59:09.492,-0.32,-0.22
20:59:09.496,-0.325,-0.195
20:59:09.500,-0.305,-0.215
20:59:09.504,-0.295,-0.205
20:59:09.508,-0.32,-0.21
20:59:09.512,-0.315,-0.195
20:59:09.516,-0.31,-0.225
20:59:09.520,-0.31,-0.21
20:59:09.524,-0.3,-0.225
20:59:09.528,-0.3,-0.22
20:59:09.532,-0.28,-0.215
20:59:09.536,-0.295,-0.21
20:59:09.540,-0.245,-0.225
20:59:09.544,-0.185,-0.22
20:59:09.548,-0.125,-0.21
20:59:09.552,-0.055,-0.22
20:59:09.556,0.05,-0.235
20:59:09.560,0.09,-0.27
20:59:09.564,0.15,-0.32
20:59:09.568,0.175,-0.355
20:59:09.572,0.215,-0.36
20:59:09.576,0.225,-0.38
20:59:09.580,0.19,-0.475
20:59:09.584,0.235,-0.555
20:59:09.588,0.415,-0.72
20:59:09.592,0.725,-0.93
20:59:09.596,1.0,-1.19
20:59:09.600,1.125,-1.395
20:59:09.604,0.95,-1.505
20:59:09.608,0.505,-1.36
20:59:09.612,0.03,-1.005
20:59:09.616,-0.26,-0.64
20:59:09.620,-0.38,-0.415
20:59:09.624,-0.415,-0.265
20:59:09.628,-0.42,-0.175
20:59:09.632,-0.425,-0.11
20:59:09.636,-0.445,-0.07
20:59:09.640,-0.45,-0.045
20:59:09.644,-0.435,-0.05
20:59:09.648,-0.425,-0.07
20:59:09.652,-0.455,-0.065
20:59:09.656,-0.445,-0.095
20:59:09.660,-0.445,-0.085
20:59:09.664,-0.44,-0.08
20:59:09.668,-0.44,-0.09
20:59:09.672,-0.435,-0.08
20:59:09.676,-0.44,-0.07
20:59:09.680,-0.435,-0.06
20:59:09.684,-0.44,-0.05
20:59:09.688,-0.43,-0.075
20:59:09.692,-0.45,-0.075
20:59:09.696,-0.455,-0.065
20:59:09.700,-0.475,-0.07
20:59:09.704,-0.455,-0.075
20:59:09.708,-0.465,-0.09
20:59:09.712,-0.465,-0.075
20:59:09.716,-0.49,-0.105
20:59:09.720,-0.485,-0.08
20:59:09.724,-0.505,-0.085
20:59:09.728,-0.495,-0.08
20:59:09.732,-0.475,-0.065
20:59:09.736,-0.51,-0.095
20:59:09.740,-0.505,-0.085
20:59:09.744,-0.525,-0.055
20:59:09.748,-0.51,-0.085
20:59:09.752,-0.505,-0.085
20:59:09.756,-0.51,-0.08
20:59:09.760,-0.515,-0.05
20:59:09.764,-0.515,-0.06
20:59:09.768,-0.51,-0.065
20:59:09.772,-0.515,-0.07
20:59:09.776,-0.5,-0.075
20:59:09.780,-0.48,-0.075
20:59:09.784,-0.495,-0.06
20:59:09.788,-0.465,-0.075
20:59:09.792,-0.465,-0.06
20:59:09.796,-0.44,-0.06
20:59:09.800,-0.445,-0.075
20:59:09.804,-0.42,-0.065
20:59:09.808,-0.415,-0.075
20:59:09.812,-0.42,-0.095
20:59:09.816,-0.43,-0.095
20:59:09.820,-0.42,-0.11
20:59:09.824,-0.39,-0.12
20:59:09.828,-0.4,-0.13
20:59:09.832,-0.35,-0.13
20:59:09.836,-0.375,-0.13
20:59:09.840,-0.37,-0.145
20:59:09.844,-0.345,-0.13
20:59:09.848,-0.34,-0.155
20:59:09.852,-0.32,-0.14
20:59:09.856,-0.3,-0.16
20:59:09.860,-0.275,-0.15
20:59:09.864,-0.295,-0.17
20:59:09.868,-0.26,-0.17
20:59:09.872,-0.26,-0.145
20:59:09.876,-0.265,-0.16
20:59:09.880,-0.255,-0.16
20:59:09.884,-0.23,-0.16
20:59:09.888,-0.255,-0.135
20:59:09.892,-0.235,-0.145
20:59:09.896,-0.205,-0.145
20:59:09.900,-0.21,-0.16
20:59:09.904,-0.21,-0.13
20:59:09.908,-0.205,-0.12
20:59:09.912,-0.205,-0.12
20:59:09.916,-0.2,-0.13
20:59:09.920,-0.195,-0.125
20:59:09.924,-0.22,-0.1
20:59:09.928,-0.23,-0.125
20:59:09.932,-0.23,-0.105
20:59:09.936,-0.22,-0.115
20:59:09.940,-0.24,-0.115
20:59:09.944,-0.24,-0.14
20:59:09.948,-0.26,-0.1
20:59:09.952,-0.24,-0.125
20:59:09.956,-0.245,-0.12
20:59:09.960,-0.22,-0.115
20:59:09.964,-0.22,-0.135
20:59:09.968,-0.22,-0.12
20:59:09.972,-0.215,-0.115
20:59:09.976,-0.175,-0.115
20:59:09.980,-0.165,-0.105
20:59:09.984,-0.115,-0.1
20:59:09.988,-0.085,-0.09
20:59:09.992,-0.075,-0.07
20:59:09.996,-0.04,-0.06
20:59:10.000,-0.005,-0.045
20:59:10.004,0.025,-0.035
20:59:10.008,0.035,-0.06
20:59:10.012,0.04,-0.065
20:59:10.016,0.04,-0.06
20:59:10.020,0.005,-0.07
20:59:10.024,-0.015,-0.08
20:59:10.028,-0.07,-0.095
20:59:10.032,-0.115,-0.115
20:59:10.036,-0.165,-0.1
20:59:10.040,-0.22,-0.11
20:59:10.044,-0.275,-0.11
20:59:10.048,-0.305,-0.11
20:59:10.052,-0.345,-0.09
20:59:10.056,-0.35,-0.09
20:59:10.060,-0.365,-0.1
20:59:10.064,-0.355,-0.1
20:59:10.068,-0.365,-0.105
20:59:10.072,-0.345,-0.105
20:59:10.076,-0.335,-0.115
20:59:10.080,-0.34,-0.115
20:59:10.084,-0.325,-0.125
20:59:10.088,-0.32,-0.12
20:59:10.092,-0.295,-0.125
20:59:10.096,-0.305,-0.145
20:59:10.100,-0.315,-0.115
20:59:10.104,-0.305,-0.13
20:59:10.108,-0.32,-0.135
20:59:10.112,-0.31,-0.135
20:59:10.116,-0.3,-0.155
20:59:10.120,-0.3,-0.14
20:59:10.124,-0.295,-0.165
20:59:10.128,-0.275,-0.135
20:59:10.132,-0.285,-0.125
20:59:10.136,-0.285,-0.125
20:59:10.140,-0.28,-0.11
20:59:10.144,-0.28,-0.12
20:59:10.148,-0.27,-0.115
20:59:10.152,-0.275,-0.135
20:59:10.156,-0.275,-0.145
20:59:10.160,-0.235,-0.14
20:59:10.164,-0.2,-0.145
20:59:10.168,-0.155,-0.16
20:59:10.172,-0.1,-0.155
20:59:10.176,0.0,-0.16
20:59:10.180,0.08,-0.18
20:59:10.184,0.12,-0.225
20:59:10.188,0.155,-0.285
20:59:10.192,0.2,-0.295
20:59:10.196,0.215,-0.32
20:59:10.200,0.205,-0.365
20:59:10.204,0.2,-0.495
20:59:10.208,0.345,-0.63
20:59:10.212,0.635,-0.81
20:59:10.216,0.955,-1.055
20:59:10.220,1.155,-1.26
20:59:10.224,1.12,-1.425
20:59:10.228,0.755,-1.37
20:59:10.232,0.26,-1.09
20:59:10.236,-0.115,-0.68
20:59:10.240,-0.29,-0.385
20:59:10.244,-0.345,-0.245
20:59:10.248,-0.365,-0.145
20:59:10.252,-0.37,-0.06
20:59:10.256,-0.375,-0.02
20:59:10.260,-0.39,0.0
20:59:10.264,-0.39,0.01
20:59:10.268,-0.385,-0.005
20:59:10.272,-0.4,0.0
20:59:10.276,-0.39,-0.025
20:59:10.280,-0.385,-0.01
20:59:10.284,-0.435,-0.03
20:59:10.288,-0.425,-0.025
20:59:10.292,-0.415,-0.025
20:59:10.296,-0.405,-0.045
20:59:10.300,-0.425,-0.03
20:59:10.304,-0.425,-0.01
20:59:10.308,-0.43,-0.025
20:59:10.312,-0.42,-0.025
20:59:10.316,-0.42,-0.045
20:59:10.320,-0.435,-0.045
20:59:10.324,-0.43,-0.025
20:59:10.328,-0.43,-0.02
20:59:10.332,-0.435,-0.04
20:59:10.336,-0.45,-0.04
20:59:10.340,-0.445,-0.02
20:59:10.344,-0.465,-0.02
20:59:10.348,-0.44,-0.025
20:59:10.352,-0.445,-0.005
20:59:10.356,-0.43,-0.005
20:59:10.360,-0.425,-0.035
20:59:10.364,-0.425,-0.015
20:59:10.368,-0.45,-0.03
20:59:10.372,-0.435,-0.025
20:59:10.376,-0.44,-0.005
20:59:10.380,-0.43,0.005
20:59:10.384,-0.45,0.0
20:59:10.388,-0.44,-0.015
20:59:10.392,-0.445,-0.01
20:59:10.396,-0.44,-0.02
20:59:10.400,-0.445,-0.02
20:59:10.404,-0.445,-0.035
20:59:10.408,-0.45,-0.035
20:59:10.412,-0.435,-0.04
20:59:10.416,-0.435,-0.015
20:59:10.420,-0.425,-0.04
20:59:10.424,-0.405,-0.05
20:59:10.428,-0.39,-0.045
20:59:10.432,-0.38,-0.05
20:59:10.436,-0.39,-0.065
20:59:10.440,-0.36,-0.055
20:59:10.444,-0.355,-0.085
20:59:10.448,-0.345,-0.08
20:59:10.452,-0.34,-0.12
20:59:10.456,-0.32,-0.115
20:59:10.460,-0.31,-0.1
20:59:10.464,-0.29,-0.11
20:59:10.468,-0.275,-0.095
20:59:10.472,-0.27,-0.095
20:59:10.476,-0.25,-0.13
20:59:10.480,-0.24,-0.115
20:59:10.484,-0.235,-0.08
20:59:10.488,-0.215,-0.095
20:59:10.492,-0.215,-0.105
20:59:10.496,-0.2,-0.125
20:59:10.500,-0.2,-0.105
20:59:10.504,-0.185,-0.105
20:59:10.508,-0.19,-0.12
20:59:10.512,-0.2,-0.105
20:59:10.516,-0.19,-0.11
20:59:10.520,-0.2,-0.1
20:59:10.524,-0.2,-0.09
20:59:10.528,-0.225,-0.11
20:59:10.532,-0.215,-0.11
20:59:10.536,-0.205,-0.115
20:59:10.540,-0.205,-0.095
20:59:10.544,-0.21,-0.11
20:59:10.548,-0.2,-0.115
20:59:10.552,-0.2,-0.09
20:59:10.556,-0.2,-0.095
20:59:10.560,-0.22,-0.105
20:59:10.564,-0.215,-0.11
20:59:10.568,-0.225,-0.1
20:59:10.572,-0.215,-0.08
20:59:10.576,-0.21,-0.075
20:59:10.580,-0.195,-0.095
20:59:10.584,-0.2,-0.08
20:59:10.588,-0.2,-0.105
20:59:10.592,-0.15,-0.08
20:59:10.596,-0.145,-0.095
20:59:10.600,-0.175,-0.08
20:59:10.604,-0.13,-0.105
20:59:10.608,-0.13,-0.075
20:59:10.612,-0.095,-0.075
20:59:10.616,-0.075,-0.08
20:59:10.620,-0.045,-0.085
20:59:10.624,-0.03,-0.055
20:59:10.628,-0.015,-0.04
20:59:10.632,0.005,-0.06
20:59:10.636,0.03,-0.04
20:59:10.640,0.025,-0.065
20:59:10.644,0.05,-0.055
20:59:10.648,0.02,-0.08
20:59:10.652,-0.02,-0.115
20:59:10.656,-0.045,-0.16
20:59:10.660,-0.1,-0.155
20:59:10.664,-0.16,-0.145
20:59:10.668,-0.215,-0.16
20:59:10.672,-0.275,-0.155
20:59:10.676,-0.31,-0.15
20:59:10.680,-0.33,-0.165
20:59:10.684,-0.345,-0.125
20:59:10.688,-0.36,-0.115
20:59:10.692,-0.33,-0.115
20:59:10.696,-0.32,-0.12
20:59:10.700,-0.31,-0.13
20:59:10.704,-0.33,-0.13
20:59:10.708,-0.32,-0.125
20:59:10.712,-0.31,-0.125
20:59:10.716,-0.315,-0.14
20:59:10.720,-0.29,-0.1
20:59:10.724,-0.315,-0.14
20:59:10.728,-0.3,-0.125
20:59:10.732,-0.3,-0.135
20:59:10.736,-0.29,-0.135
20:59:10.740,-0.31,-0.14
20:59:10.744,-0.32,-0.13
20:59:10.748,-0.33,-0.15
20:59:10.752,-0.32,-0.145
20:59:10.756,-0.305,-0.13
20:59:10.760,-0.3,-0.17
20:59:10.764,-0.305,-0.165
20:59:10.768,-0.3,-0.155
20:59:10.772,-0.3,-0.15
20:59:10.776,-0.29,-0.16
20:59:10.780,-0.285,-0.135
20:59:10.784,-0.275,-0.16
20:59:10.788,-0.26,-0.14
20:59:10.792,-0.25,-0.135
20:59:10.796,-0.175,-0.15
20:59:10.800,-0.09,-0.16
20:59:10.804,0.01,-0.155
20:59:10.808,0.11,-0.175
20:59:10.812,0.145,-0.175
20:59:10.816,0.175,-0.245
20:59:10.820,0.205,-0.28
20:59:10.824,0.225,-0.29
20:59:10.828,0.21,-0.315
20:59:10.832,0.235,-0.445
20:59:10.836,0.36,-0.565
20:59:10.840,0.62,-0.755
20:59:10.844,0.955,-1.005
20:59:10.848,1.16,-1.26
20:59:10.852,1.075,-1.43
20:59:10.856,0.715,-1.355
20:59:10.860,0.21,-1.06
20:59:10.864,-0.135,-0.65
20:59:10.868,-0.305,-0.385
20:59:10.872,-0.37,-0.21
20:59:10.876,-0.39,-0.11
20:59:10.880,-0.39,-0.05
20:59:10.884,-0.415,0.0
20:59:10.888,-0.43,0.005
20:59:10.892,-0.445,0.035
20:59:10.896,-0.45,0.025
20:59:10.900,-0.455,0.005
20:59:10.904,-0.46,0.01
20:59:10.908,-0.455,0.01
20:59:10.912,-0.435,0.01
20:59:10.916,-0.44,0.0
20:59:10.920,-0.445,0.005
20:59:10.924,-0.45,0.015
20:59:10.928,-0.44,0.015
20:59:10.932,-0.435,0.025
20:59:10.936,-0.445,0.015
20:59:10.940,-0.45,0.025
20:59:10.944,-0.465,0.01
20:59:10.948,-0.47,0.045
20:59:10.952,-0.48,0.045
20:59:10.956,-0.475,0.045
20:59:10.960,-0.47,0.055
20:59:10.964,-0.45,0.05
20:59:10.968,-0.49,0.06
20:59:10.972,-0.49,0.06
20:59:10.976,-0.51,0.06
20:59:10.980,-0.525,0.055
20:59:10.984,-0.505,0.06
20:59:10.988,-0.515,0.085
20:59:10.992,-0.51,0.055
20:59:10.996,-0.515,0.075
20:59:11.000,-0.52,0.06
20:59:11.004,-0.515,0.075
20:59:11.008,-0.51,0.08
20:59:11.012,-0.53,0.11
20:59:11.016,-0.51,0.105
20:59:11.020,-0.545,0.115
20:59:11.024,-0.51,0.115
20:59:11.028,-0.49,0.11
20:59:11.032,-0.48,0.12
20:59:11.036,-0.465,0.105
20:59:11.040,-0.455,0.125
20:59:11.044,-0.455,0.1
20:59:11.048,-0.45,0.115
20:59:11.052,-0.43,0.125
20:59:11.056,-0.425,0.115
20:59:11.060,-0.425,0.105
20:59:11.064,-0.425,0.105
20:59:11.068,-0.39,0.08
20:59:11.072,-0.405,0.085
20:59:11.076,-0.365,0.09
20:59:11.080,-0.375,0.065
20:59:11.084,-0.36,0.08
20:59:11.088,-0.35,0.045
20:59:11.092,-0.33,0.02
20:59:11.096,-0.32,0.045
20:59:11.100,-0.32,0.04
20:59:11.104,-0.285,0.025
20:59:11.108,-0.29,0.045
20:59:11.112,-0.28,0.015
20:59:11.116,-0.24,0.03
20:59:11.120,-0.245,0.025
20:59:11.124,-0.225,0.03
20:59:11.128,-0.22,0.015
20:59:11.132,-0.23,0.02
20:59:11.136,-0.235,0.005
20:59:11.140,-0.22,0.035
20:59:11.144,-0.21,0.015
20:59:11.148,-0.2,0.025
20:59:11.152,-0.2,0.05
20:59:11.156,-0.18,0.025
20:59:11.160,-0.195,0.055
20:59:11.164,-0.19,0.045
20:59:11.168,-0.22,0.045
20:59:11.172,-0.18,0.035
20:59:11.176,-0.2,0.05
20:59:11.180,-0.19,0.03
20:59:11.184,-0.185,0.045
20:59:11.188,-0.205,0.06
20:59:11.192,-0.205,0.035
20:59:11.196,-0.2,0.035
20:59:11.200,-0.21,0.05
20:59:11.204,-0.22,0.05
20:59:11.208,-0.22,0.045
20:59:11.212,-0.21,0.045
20:59:11.216,-0.23,0.035
20:59:11.220,-0.21,0.035
20:59:11.224,-0.19,0.03
20:59:11.228,-0.18,0.01
20:59:11.232,-0.185,0.02
20:59:11.236,-0.175,0.0
20:59:11.240,-0.175,0.0
20:59:11.244,-0.135,0.015
20:59:11.248,-0.12,0.04
20:59:11.252,-0.075,0.03
20:59:11.256,-0.04,0.015
20:59:11.260,-0.005,0.05
20:59:11.264,0.01,0.065
20:59:11.268,0.055,0.065
20:59:11.272,0.085,0.065
20:59:11.276,0.1,0.065
20:59:11.280,0.075,0.07
20:59:11.284,0.055,0.04
20:59:11.288,0.005,0.01
20:59:11.292,-0.04,0.02
20:59:11.296,-0.105,-0.01
20:59:11.300,-0.16,-0.035
20:59:11.304,-0.2,-0.03
20:59:11.308,-0.245,-0.025
20:59:11.312,-0.315,-0.04
20:59:11.316,-0.35,-0.045
20:59:11.320,-0.345,-0.04
20:59:11.324,-0.36,-0.035
20:59:11.328,-0.345,-0.03
20:59:11.332,-0.34,-0.06
20:59:11.336,-0.335,-0.08
20:59:11.340,-0.315,-0.065
20:59:11.344,-0.33,-0.055
20:59:11.348,-0.31,-0.095
20:59:11.352,-0.335,-0.08
20:59:11.356,-0.31,-0.1
20:59:11.360,-0.305,-0.06
20:59:11.364,-0.295,-0.08
20:59:11.368,-0.315,-0.08
20:59:11.372,-0.3,-0.085
20:59:11.376,-0.3,-0.09
20:59:11.380,-0.3,-0.075
20:59:11.384,-0.3,-0.07
20:59:11.388,-0.28,-0.095
20:59:11.392,-0.275,-0.08
20:59:11.396,-0.305,-0.1
20:59:11.400,-0.28,-0.105
20:59:11.404,-0.28,-0.105
20:59:11.408,-0.275,-0.105
20:59:11.412,-0.28,-0.11
20:59:11.416,-0.265,-0.125
20:59:11.420,-0.295,-0.1
20:59:11.424,-0.245,-0.1
20:59:11.428,-0.195,-0.095
20:59:11.432,-0.155,-0.11
20:59:11.436,-0.04,-0.145
20:59:11.440,0.05,-0.145
20:59:11.444,0.135,-0.17
20:59:11.448,0.19,-0.205
20:59:11.452,0.275,-0.265
20:59:11.456,0.3,-0.245
20:59:11.460,0.335,-0.245
20:59:11.464,0.315,-0.315
20:59:11.468,0.345,-0.41
20:59:11.472,0.525,-0.54
20:59:11.476,0.825,-0.74
20:59:11.480,1.085,-1.005
20:59:11.484,1.215,-1.195
20:59:11.488,1.035,-1.31
20:59:11.492,0.56,-1.17
20:59:11.496,0.105,-0.815
20:59:11.500,-0.17,-0.49
20:59:11.504,-0.265,-0.31
20:59:11.508,-0.28,-0.17
20:59:11.512,-0.305,-0.07
20:59:11.516,-0.315,-0.02
20:59:11.520,-0.37,0.01
20:59:11.524,-0.36,0.035
20:59:11.528,-0.39,0.02
20:59:11.532,-0.4,0.005
20:59:11.536,-0.425,0.0
20:59:11.540,-0.43,-0.005
20:59:11.544,-0.41,-0.02
20:59:11.548,-0.405,-0.05
20:59:11.552,-0.41,-0.035
20:59:11.556,-0.41,-0.05
20:59:11.560,-0.44,-0.04
20:59:11.564,-0.43,-0.055
20:59:11.568,-0.42,-0.05
20:59:11.572,-0.44,-0.035
20:59:11.576,-0.46,-0.035
20:59:11.580,-0.45,-0.03
20:59:11.584,-0.455,-0.04
20:59:11.588,-0.45,-0.03
20:59:11.592,-0.44,-0.045
20:59:11.596,-0.435,-0.05
20:59:11.600,-0.43,-0.035
20:59:11.604,-0.425,-0.03
20:59:11.608,-0.445,-0.045
20:59:11.612,-0.465,-0.01
20:59:11.616,-0.455,-0.035
20:59:11.620,-0.475,-0.025
20:59:11.624,-0.47,-0.025
20:59:11.628,-0.48,-0.02
20:59:11.632,-0.475,-0.02
20:59:11.636,-0.465,-0.01
20:59:11.640,-0.49,-0.015
20:59:11.644,-0.5,-0.025
20:59:11.648,-0.49,-0.015
20:59:11.652,-0.505,-0.025
20:59:11.656,-0.49,-0.025
20:59:11.660,-0.49,-0.01
20:59:11.664,-0.48,-0.02
20:59:11.668,-0.48,-0.03
20:59:11.672,-0.49,-0.035
20:59:11.676,-0.46,-0.025
20:59:11.680,-0.455,-0.055
20:59:11.684,-0.425,-0.07
20:59:11.688,-0.415,-0.07
20:59:11.692,-0.42,-0.08
20:59:11.696,-0.42,-0.075
20:59:11.700,-0.385,-0.05
20:59:11.704,-0.36,-0.07
20:59:11.708,-0.34,-0.095
20:59:11.712,-0.31,-0.09
20:59:11.716,-0.295,-0.1
20:59:11.720,-0.31,-0.085
20:59:11.724,-0.28,-0.115
20:59:11.728,-0.27,-0.11
20:59:11.732,-0.265,-0.115
20:59:11.736,-0.24,-0.12
20:59:11.740,-0.23,-0.135
20:59:11.744,-0.235,-0.13
20:59:11.748,-0.22,-0.13
20:59:11.752,-0.215,-0.145
20:59:11.756,-0.21,-0.16
20:59:11.760,-0.215,-0.195
20:59:11.764,-0.2,-0.175
