Time,ECG1,ECG2
21:16:32.288,-0.345,0.02
21:16:32.292,-0.365,0.0
21:16:32.296,-0.36,0.025
21:16:32.300,-0.35,0.04
21:16:32.304,-0.35,0.015
21:16:32.308,-0.38,0.03
21:16:32.312,-0.38,0.005
21:16:32.316,-0.38,0.025
21:16:32.320,-0.385,0.03
21:16:32.324,-0.39,0.025
21:16:32.328,-0.38,0.015
21:16:32.332,-0.355,0.035
21:16:32.336,-0.36,0.015
21:16:32.340,-0.36,0.005
21:16:32.344,-0.345,0.0
21:16:32.348,-0.33,0.0
21:16:32.352,-0.315,0.0
21:16:32.356,-0.315,-0.015
21:16:32.360,-0.31,-0.02
21:16:32.364,-0.29,-0.02
21:16:32.368,-0.265,-0.02
21:16:32.372,-0.27,-0.04
21:16:32.376,-0.245,-0.05
21:16:32.380,-0.24,-0.055
21:16:32.384,-0.21,-0.06
21:16:32.388,-0.2,-0.045
21:16:32.392,-0.18,-0.06
21:16:32.396,-0.19,-0.045
21:16:32.400,-0.165,-0.045
21:16:32.404,-0.155,-0.04
21:16:32.408,-0.165,-0.045
21:16:32.412,-0.155,-0.05
21:16:32.416,-0.14,-0.045
21:16:32.420,-0.115,-0.04
21:16:32.424,-0.14,-0.025
21:16:32.428,-0.135,-0.05
21:16:32.432,-0.12,-0.035
21:16:32.436,-0.145,-0.035
21:16:32.440,-0.15,-0.06
21:16:32.444,-0.145,-0.065
21:16:32.448,-0.12,-0.07
21:16:32.452,-0.15,-0.04
21:16:32.456,-0.125,-0.045
21:16:32.460,-0.135,-0.045
21:16:32.464,-0.115,-0.055
21:16:32.468,-0.125,-0.07
21:16:32.472,-0.12,-0.03
21:16:32.476,-0.135,-0.04
21:16:32.480,-0.125,-0.035
21:16:32.484,-0.125,-0.035
21:16:32.488,-0.125,-0.045
21:16:32.492,-0.115,-0.03
21:16:32.496,-0.105,-0.035
21:16:32.500,-0.085,-0.04
21:16:32.504,-0.07,-0.025
21:16:32.508,-0.065,-0.04
21:16:32.512,-0.06,-0.005
21:16:32.516,-0.04,-0.01
21:16:32.520,-0.03,-0.005
21:16:32.524,-0.02,0.015
21:16:32.528,0.04,0.04
21:16:32.532,0.075,0.045
21:16:32.536,0.105,0.05
21:16:32.540,0.145,0.035
21:16:32.544,0.14,0.035
21:16:32.548,0.145,0.045
21:16:32.552,0.125,0.05
21:16:32.556,0.12,0.035
21:16:32.560,0.085,0.0
21:16:32.564,0.03,-0.02
21:16:32.568,-0.02,-0.02
21:16:32.572,-0.06,-0.055
21:16:32.576,-0.115,-0.05
21:16:32.580,-0.17,-0.065
21:16:32.584,-0.235,-0.025
21:16:32.588,-0.27,-0.005
21:16:32.592,-0.28,-0.01
21:16:32.596,-0.295,0.0
21:16:32.600,-0.3,-0.025
21:16:32.604,-0.28,-0.015
21:16:32.608,-0.255,-0.02
21:16:32.612,-0.265,-0.025
21:16:32.616,-0.25,-0.025
21:16:32.620,-0.24,-0.01
21:16:32.624,-0.24,0.005
21:16:32.628,-0.235,0.0
21:16:32.632,-0.245,-0.005
21:16:32.636,-0.22,-0.005
21:16:32.640,-0.225,0.01
21:16:32.644,-0.225,0.0
21:16:32.648,-0.23,-0.005
21:16:32.652,-0.225,0.0
21:16:32.656,-0.215,-0.005
21:16:32.660,-0.21,-0.02
21:16:32.664,-0.22,-0.03
21:16:32.668,-0.225,-0.09
21:16:32.672,-0.22,-0.19
21:16:32.676,-0.205,-0.235
21:16:32.680,-0.215,-0.24
21:16:32.684,-0.18,-0.225
21:16:32.688,-0.205,-0.24
21:16:32.692,-0.19,-0.235
21:16:32.696,-0.19,-0.24
21:16:32.700,-0.17,-0.215
21:16:32.704,-0.115,-0.23
21:16:32.708,-0.07,-0.215
21:16:32.712,0.03,-0.23
21:16:32.716,0.125,-0.23
21:16:32.720,0.21,-0.265
21:16:32.724,0.25,-0.31
21:16:32.728,0.285,-0.36
21:16:32.732,0.295,-0.35
21:16:32.736,0.265,-0.35
21:16:32.740,0.27,-0.425
21:16:32.744,0.355,-0.55
21:16:32.748,0.615,-0.7
21:16:32.752,0.93,-0.91
21:16:32.756,1.125,-1.16
21:16:32.760,1.075,-1.345
21:16:32.764,0.755,-1.35
21:16:32.768,0.28,-1.05
21:16:32.772,-0.06,-0.7
21:16:32.776,-0.23,-0.46
21:16:32.780,-0.27,-0.275
21:16:32.784,-0.3,-0.175
21:16:32.788,-0.32,-0.125
21:16:32.792,-0.33,-0.065
21:16:32.796,-0.355,-0.045
21:16:32.800,-0.355,-0.065
21:16:32.804,-0.36,-0.08
21:16:32.808,-0.38,-0.09
21:16:32.812,-0.385,-0.11
21:16:32.816,-0.41,-0.135
21:16:32.820,-0.415,-0.125
21:16:32.824,-0.425,-0.1
21:16:32.828,-0.41,-0.12
21:16:32.832,-0.415,-0.1
21:16:32.836,-0.405,-0.115
21:16:32.840,-0.42,-0.13
21:16:32.844,-0.42,-0.115
21:16:32.848,-0.405,-0.115
21:16:32.852,-0.415,-0.115
21:16:32.856,-0.385,-0.11
21:16:32.860,-0.415,-0.115
21:16:32.864,-0.435,-0.15
21:16:32.868,-0.44,-0.13
21:16:32.872,-0.45,-0.135
21:16:32.876,-0.465,-0.13
21:16:32.880,-0.465,-0.14
21:16:32.884,-0.465,-0.145
21:16:32.888,-0.445,-0.15
21:16:32.892,-0.455,-0.17
21:16:32.896,-0.465,-0.165
21:16:32.900,-0.455,-0.165
21:16:32.904,-0.475,-0.185
21:16:32.908,-0.485,-0.19
21:16:32.912,-0.47,-0.17
21:16:32.916,-0.46,-0.2
21:16:32.920,-0.45,-0.185
21:16:32.924,-0.46,-0.205
21:16:32.928,-0.47,-0.21
21:16:32.932,-0.45,-0.235
21:16:32.936,-0.465,-0.205
21:16:32.940,-0.47,-0.225
21:16:32.944,-0.45,-0.24
21:16:32.948,-0.44,-0.21
21:16:32.952,-0.405,-0.205
21:16:32.956,-0.405,-0.21
21:16:32.960,-0.385,-0.195
21:16:32.964,-0.37,-0.235
21:16:32.968,-0.33,-0.26
21:16:32.972,-0.335,-0.235
21:16:32.976,-0.325,-0.24
21:16:32.980,-0.33,-0.265
21:16:32.984,-0.32,-0.26
21:16:32.988,-0.29,-0.265
21:16:32.992,-0.29,-0.27
21:16:32.996,-0.28,-0.305
21:16:33.000,-0.26,-0.32
21:16:33.004,-0.27,-0.305
21:16:33.008,-0.265,-0.32
21:16:33.012,-0.265,-0.295
21:16:33.016,-0.265,-0.31
21:16:33.020,-0.22,-0.33
21:16:33.024,-0.21,-0.315
21:16:33.028,-0.215,-0.31
21:16:33.032,-0.215,-0.32
21:16:33.036,-0.185,-0.365
21:16:33.040,-0.195,-0.35
21:16:33.044,-0.205,-0.325
21:16:33.048,-0.205,-0.345
21:16:33.052,-0.195,-0.345
21:16:33.056,-0.19,-0.31
21:16:33.060,-0.18,-0.33
21:16:33.064,-0.185,-0.325
21:16:33.068,-0.18,-0.32
21:16:33.072,-0.175,-0.31
21:16:33.076,-0.165,-0.31
21:16:33.080,-0.185,-0.31
21:16:33.084,-0.185,-0.335
21:16:33.088,-0.205,-0.315
21:16:33.092,-0.215,-0.345
21:16:33.096,-0.205,-0.325
21:16:33.100,-0.2,-0.32
21:16:33.104,-0.18,-0.295
21:16:33.108,-0.185,-0.305
21:16:33.112,-0.17,-0.305
21:16:33.116,-0.165,-0.32
21:16:33.120,-0.18,-0.32
21:16:33.124,-0.17,-0.32
21:16:33.128,-0.175,-0.33
21:16:33.132,-0.115,-0.32
21:16:33.136,-0.06,-0.305
21:16:33.140,-0.065,-0.32
21:16:33.144,-0.045,-0.3
21:16:33.148,0.0,-0.285
21:16:33.152,0.035,-0.3
21:16:33.156,0.07,-0.33
21:16:33.160,0.05,-0.32
21:16:33.164,0.015,-0.33
21:16:33.168,-0.02,-0.36
21:16:33.172,-0.05,-0.385
21:16:33.176,-0.085,-0.385
21:16:33.180,-0.125,-0.42
21:16:33.184,-0.15,-0.42
21:16:33.188,-0.22,-0.42
21:16:33.192,-0.29,-0.415
21:16:33.196,-0.35,-0.415
21:16:33.200,-0.37,-0.405
21:16:33.204,-0.4,-0.415
21:16:33.208,-0.4,-0.43
21:16:33.212,-0.38,-0.445
21:16:33.216,-0.375,-0.45
21:16:33.220,-0.385,-0.455
21:16:33.224,-0.365,-0.46
21:16:33.228,-0.365,-0.47
21:16:33.232,-0.365,-0.49
21:16:33.236,-0.385,-0.49
21:16:33.240,-0.385,-0.48
21:16:33.244,-0.36,-0.48
21:16:33.248,-0.355,-0.49
21:16:33.252,-0.37,-0.48
21:16:33.256,-0.37,-0.52
21:16:33.260,-0.365,-0.53
21:16:33.264,-0.36,-0.525
21:16:33.268,-0.36,-0.535
21:16:33.272,-0.35,-0.53
21:16:33.276,-0.335,-0.52
21:16:33.280,-0.32,-0.52
21:16:33.284,-0.36,-0.54
21:16:33.288,-0.365,-0.54
21:16:33.292,-0.36,-0.53
21:16:33.296,-0.33,-0.515
21:16:33.300,-0.315,-0.525
21:16:33.304,-0.295,-0.53
21:16:33.308,-0.265,-0.53
21:16:33.312,-0.215,-0.545
21:16:33.316,-0.17,-0.54
21:16:33.320,-0.08,-0.535
21:16:33.324,0.03,-0.535
21:16:33.328,0.12,-0.58
21:16:33.332,0.185,-0.59
21:16:33.336,0.245,-0.655
21:16:33.340,0.28,-0.64
21:16:33.344,0.31,-0.64
21:16:33.348,0.28,-0.67
21:16:33.352,0.28,-0.745
21:16:33.356,0.435,-0.84
21:16:33.360,0.7,-1.05
21:16:33.364,0.97,-1.28
21:16:33.368,1.075,-1.495
21:16:33.372,0.915,-1.615
21:16:33.376,0.485,-1.545
21:16:33.380,0.03,-1.215
21:16:33.384,-0.2,-0.89
21:16:33.388,-0.3,-0.71
21:16:33.392,-0.34,-0.58
21:16:33.396,-0.335,-0.495
21:16:33.400,-0.375,-0.42
21:16:33.404,-0.385,-0.37
21:16:33.408,-0.415,-0.355
21:16:33.412,-0.435,-0.385
21:16:33.416,-0.43,-0.385
21:16:33.420,-0.425,-0.385
21:16:33.424,-0.44,-0.42
21:16:33.428,-0.435,-0.38
21:16:33.432,-0.435,-0.395
21:16:33.436,-0.44,-0.37
21:16:33.440,-0.43,-0.36
21:16:33.444,-0.44,-0.37
21:16:33.448,-0.425,-0.39
21:16:33.452,-0.42,-0.385
21:16:33.456,-0.43,-0.365
21:16:33.460,-0.44,-0.37
21:16:33.464,-0.46,-0.37
21:16:33.468,-0.47,-0.38
21:16:33.472,-0.475,-0.36
21:16:33.476,-0.445,-0.37
21:16:33.480,-0.47,-0.355
21:16:33.484,-0.48,-0.36
21:16:33.488,-0.46,-0.355
21:16:33.492,-0.455,-0.355
21:16:33.496,-0.47,-0.355
21:16:33.500,-0.465,-0.325
21:16:33.504,-0.48,-0.35
21:16:33.508,-0.475,-0.35
21:16:33.512,-0.495,-0.325
21:16:33.516,-0.485,-0.33
21:16:33.520,-0.495,-0.31
21:16:33.524,-0.48,-0.31
21:16:33.528,-0.47,-0.27
21:16:33.532,-0.455,-0.255
21:16:33.536,-0.455,-0.265
21:16:33.540,-0.45,-0.25
21:16:33.544,-0.45,-0.27
21:16:33.548,-0.445,-0.24
21:16:33.552,-0.425,-0.24
21:16:33.556,-0.42,-0.25
21:16:33.560,-0.41,-0.25
21:16:33.564,-0.385,-0.255
21:16:33.568,-0.375,-0.25
21:16:33.572,-0.365,-0.27
21:16:33.576,-0.36,-0.275
21:16:33.580,-0.36,-0.275
21:16:33.584,-0.335,-0.26
21:16:33.588,-0.345,-0.29
21:16:33.592,-0.335,-0.295
21:16:33.596,-0.315,-0.33
21:16:33.600,-0.295,-0.32
21:16:33.604,-0.3,-0.325
21:16:33.608,-0.26,-0.34
21:16:33.612,-0.275,-0.33
21:16:33.616,-0.255,-0.35
21:16:33.620,-0.235,-0.345
21:16:33.624,-0.205,-0.36
21:16:33.628,-0.205,-0.33
21:16:33.632,-0.21,-0.33
21:16:33.636,-0.19,-0.335
21:16:33.640,-0.17,-0.335
21:16:33.644,-0.17,-0.315
21:16:33.648,-0.15,-0.315
21:16:33.652,-0.155,-0.32
21:16:33.656,-0.12,-0.335
21:16:33.660,-0.15,-0.335
21:16:33.664,-0.135,-0.32
21:16:33.668,-0.13,-0.31
21:16:33.672,-0.14,-0.32
21:16:33.676,-0.12,-0.34
21:16:33.680,-0.145,-0.305
21:16:33.684,-0.14,-0.305
21:16:33.688,-0.135,-0.305
21:16:33.692,-0.145,-0.315
21:16:33.696,-0.165,-0.295
21:16:33.700,-0.18,-0.295
21:16:33.704,-0.19,-0.29
21:16:33.708,-0.18,-0.29
21:16:33.712,-0.17,-0.3
21:16:33.716,-0.18,-0.28
21:16:33.720,-0.175,-0.305
21:16:33.724,-0.155,-0.28
21:16:33.728,-0.155,-0.29
21:16:33.732,-0.165,-0.275
21:16:33.736,-0.155,-0.265
21:16:33.740,-0.135,-0.295
21:16:33.744,-0.11,-0.26
21:16:33.748,-0.12,-0.265
21:16:33.752,-0.075,-0.26
21:16:33.756,-0.04,-0.26
21:16:33.760,0.01,-0.24
21:16:33.764,0.05,-0.23
21:16:33.768,0.085,-0.215
21:16:33.772,0.115,-0.22
21:16:33.776,0.145,-0.2
21:16:33.780,0.145,-0.205
21:16:33.784,0.14,-0.2
21:16:33.788,0.135,-0.2
21:16:33.792,0.1,-0.22
21:16:33.796,0.07,-0.235
21:16:33.800,0.0,-0.28
21:16:33.804,-0.045,-0.3
21:16:33.808,-0.09,-0.3
21:16:33.812,-0.165,-0.295
21:16:33.816,-0.215,-0.295
21:16:33.820,-0.27,-0.285
21:16:33.824,-0.28,-0.29
21:16:33.828,-0.295,-0.27
21:16:33.832,-0.27,-0.305
21:16:33.836,-0.29,-0.31
21:16:33.840,-0.265,-0.295
21:16:33.844,-0.29,-0.32
21:16:33.848,-0.275,-0.3
21:16:33.852,-0.255,-0.31
21:16:33.856,-0.245,-0.295
21:16:33.860,-0.255,-0.28
21:16:33.864,-0.255,-0.31
21:16:33.868,-0.24,-0.3
21:16:33.872,-0.215,-0.285
21:16:33.876,-0.23,-0.3
21:16:33.880,-0.22,-0.295
21:16:33.884,-0.215,-0.295
21:16:33.888,-0.22,-0.3
21:16:33.892,-0.225,-0.29
21:16:33.896,-0.23,-0.29
21:16:33.900,-0.21,-0.305
21:16:33.904,-0.23,-0.3
21:16:33.908,-0.23,-0.295
21:16:33.912,-0.215,-0.325
21:16:33.916,-0.21,-0.295
21:16:33.920,-0.22,-0.32
21:16:33.924,-0.215,-0.315
21:16:33.928,-0.21,-0.335
21:16:33.932,-0.16,-0.32
21:16:33.936,-0.11,-0.33
21:16:33.940,-0.055,-0.31
21:16:33.944,0.035,-0.315
21:16:33.948,0.125,-0.335
21:16:33.952,0.18,-0.37
21:16:33.956,0.225,-0.435
21:16:33.960,0.245,-0.445
21:16:33.964,0.25,-0.44
21:16:33.968,0.245,-0.45
21:16:33.972,0.24,-0.535
21:16:33.976,0.355,-0.635
21:16:33.980,0.635,-0.835
21:16:33.984,0.965,-1.07
21:16:33.988,1.155,-1.27
21:16:33.992,1.09,-1.46
21:16:33.996,0.725,-1.44
21:16:34.000,0.255,-1.16
21:16:34.004,-0.09,-0.785
21:16:34.008,-0.265,-0.53
21:16:34.012,-0.295,-0.355
21:16:34.016,-0.315,-0.265
21:16:34.020,-0.32,-0.18
21:16:34.024,-0.355,-0.155
21:16:34.028,-0.335,-0.14
21:16:34.032,-0.35,-0.13
21:16:34.036,-0.37,-0.14
21:16:34.040,-0.39,-0.17
21:16:34.044,-0.39,-0.175
21:16:34.048,-0.395,-0.195
21:16:34.052,-0.41,-0.195
21:16:34.056,-0.405,-0.2
21:16:34.060,-0.4,-0.21
21:16:34.064,-0.4,-0.195
21:16:34.068,-0.405,-0.2
21:16:34.072,-0.4,-0.205
21:16:34.076,-0.38,-0.205
21:16:34.080,-0.395,-0.235
21:16:34.084,-0.41,-0.205
21:16:34.088,-0.425,-0.21
21:16:34.092,-0.42,-0.185
21:16:34.096,-0.405,-0.195
21:16:34.100,-0.385,-0.21
21:16:34.104,-0.405,-0.195
21:16:34.108,-0.4,-0.2
21:16:34.112,-0.41,-0.19
21:16:34.116,-0.415,-0.18
21:16:34.120,-0.43,-0.17
21:16:34.124,-0.415,-0.17
21:16:34.128,-0.42,-0.18
21:16:34.132,-0.42,-0.2
21:16:34.136,-0.42,-0.195
21:16:34.140,-0.43,-0.165
21:16:34.144,-0.415,-0.175
21:16:34.148,-0.445,-0.175
21:16:34.152,-0.435,-0.17
21:16:34.156,-0.44,-0.195
21:16:34.160,-0.445,-0.185
21:16:34.164,-0.415,-0.19
21:16:34.168,-0.405,-0.195
21:16:34.172,-0.4,-0.225
21:16:34.176,-0.395,-0.21
21:16:34.180,-0.38,-0.195
21:16:34.184,-0.39,-0.19
21:16:34.188,-0.37,-0.205
21:16:34.192,-0.345,-0.215
21:16:34.196,-0.345,-0.22
21:16:34.200,-0.33,-0.22
21:16:34.204,-0.33,-0.21
21:16:34.208,-0.315,-0.225
21:16:34.212,-0.29,-0.23
21:16:34.216,-0.285,-0.26
21:16:34.220,-0.275,-0.24
21:16:34.224,-0.27,-0.26
21:16:34.228,-0.26,-0.255
21:16:34.232,-0.25,-0.255
21:16:34.236,-0.25,-0.275
21:16:34.240,-0.22,-0.255
21:16:34.244,-0.22,-0.28
21:16:34.248,-0.22,-0.27
21:16:34.252,-0.19,-0.275
21:16:34.256,-0.195,-0.295
21:16:34.260,-0.195,-0.255
21:16:34.264,-0.19,-0.27
21:16:34.268,-0.2,-0.27
21:16:34.272,-0.19,-0.275
21:16:34.276,-0.175,-0.255
21:16:34.280,-0.165,-0.275
21:16:34.284,-0.185,-0.3
21:16:34.288,-0.17,-0.27
21:16:34.292,-0.17,-0.265
21:16:34.296,-0.175,-0.285
21:16:34.300,-0.165,-0.265
21:16:34.304,-0.185,-0.25
21:16:34.308,-0.19,-0.27
21:16:34.312,-0.19,-0.255
21:16:34.316,-0.195,-0.26
21:16:34.320,-0.185,-0.24
21:16:34.324,-0.165,-0.225
21:16:34.328,-0.15,-0.24
21:16:34.332,-0.145,-0.245
21:16:34.336,-0.145,-0.215
21:16:34.340,-0.12,-0.235
21:16:34.344,-0.1,-0.245
21:16:34.348,-0.115,-0.22
21:16:34.352,-0.1,-0.225
21:16:34.356,-0.05,-0.185
21:16:34.360,-0.01,-0.175
21:16:34.364,0.015,-0.18
21:16:34.368,0.025,-0.155
21:16:34.372,0.04,-0.17
21:16:34.376,0.04,-0.16
21:16:34.380,0.06,-0.18
21:16:34.384,0.065,-0.175
21:16:34.388,0.05,-0.15
21:16:34.392,0.035,-0.2
21:16:34.396,-0.015,-0.23
21:16:34.400,-0.065,-0.23
21:16:34.404,-0.125,-0.245
21:16:34.408,-0.19,-0.25
21:16:34.412,-0.24,-0.24
21:16:34.416,-0.31,-0.225
21:16:34.420,-0.325,-0.19
21:16:34.424,-0.36,-0.21
21:16:34.428,-0.36,-0.21
21:16:34.432,-0.34,-0.2
21:16:34.436,-0.345,-0.215
21:16:34.440,-0.335,-0.225
21:16:34.444,-0.325,-0.22
21:16:34.448,-0.315,-0.23
21:16:34.452,-0.3,-0.215
21:16:34.456,-0.31,-0.225
21:16:34.460,-0.31,-0.235
21:16:34.464,-0.325,-0.235
21:16:34.468,-0.315,-0.2
21:16:34.472,-0.325,-0.225
21:16:34.476,-0.32,-0.21
21:16:34.480,-0.32,-0.215
21:16:34.484,-0.315,-0.22
21:16:34.488,-0.33,-0.25
21:16:34.492,-0.335,-0.24
21:16:34.496,-0.325,-0.23
21:16:34.500,-0.32,-0.225
21:16:34.504,-0.32,-0.25
21:16:34.508,-0.325,-0.26
21:16:34.512,-0.335,-0.24
21:16:34.516,-0.33,-0.26
21:16:34.520,-0.32,-0.24
21:16:34.524,-0.315,-0.255
21:16:34.528,-0.3,-0.255
21:16:34.532,-0.255,-0.275
21:16:34.536,-0.18,-0.27
21:16:34.540,-0.125,-0.26
21:16:34.544,-0.045,-0.28
21:16:34.548,0.06,-0.28
21:16:34.552,0.095,-0.32
21:16:34.556,0.14,-0.36
21:16:34.560,0.16,-0.37
21:16:34.564,0.15,-0.38
21:16:34.568,0.155,-0.405
21:16:34.572,0.16,-0.48
21:16:34.576,0.305,-0.6
21:16:34.580,0.595,-0.785
21:16:34.584,0.895,-1.035
21:16:34.588,1.015,-1.27
21:16:34.592,0.855,-1.4
21:16:34.596,0.445,-1.305
21:16:34.600,0.0,-0.995
21:16:34.604,-0.275,-0.635
21:16:34.608,-0.37,-0.395
21:16:34.612,-0.42,-0.26
21:16:34.616,-0.41,-0.16
21:16:34.620,-0.445,-0.115
21:16:34.624,-0.425,-0.1
21:16:34.628,-0.46,-0.085
21:16:34.632,-0.44,-0.095
21:16:34.636,-0.46,-0.105
21:16:34.640,-0.465,-0.11
21:16:34.644,-0.465,-0.12
21:16:34.648,-0.46,-0.135
21:16:34.652,-0.49,-0.13
21:16:34.656,-0.475,-0.115
21:16:34.660,-0.46,-0.135
21:16:34.664,-0.445,-0.12
21:16:34.668,-0.425,-0.11
21:16:34.672,-0.435,-0.12
21:16:34.676,-0.45,-0.105
21:16:34.680,-0.435,-0.1
21:16:34.684,-0.455,-0.105
21:16:34.688,-0.445,-0.12
21:16:34.692,-0.46,-0.125
21:16:34.696,-0.455,-0.11
21:16:34.700,-0.46,-0.1
21:16:34.704,-0.465,-0.12
21:16:34.708,-0.475,-0.115
21:16:34.712,-0.48,-0.125
21:16:34.716,-0.48,-0.125
21:16:34.720,-0.49,-0.125
21:16:34.724,-0.495,-0.095
21:16:34.728,-0.5,-0.125
21:16:34.732,-0.5,-0.12
21:16:34.736,-0.54,-0.12
21:16:34.740,-0.515,-0.135
21:16:34.744,-0.505,-0.14
21:16:34.748,-0.49,-0.125
21:16:34.752,-0.51,-0.135
21:16:34.756,-0.49,-0.135
21:16:34.760,-0.495,-0.14
21:16:34.764,-0.47,-0.125
21:16:34.768,-0.47,-0.11
21:16:34.772,-0.435,-0.12
21:16:34.776,-0.42,-0.115
21:16:34.780,-0.415,-0.115
21:16:34.784,-0.405,-0.12
21:16:34.788,-0.395,-0.11
21:16:34.792,-0.375,-0.135
21:16:34.796,-0.365,-0.115
21:16:34.800,-0.35,-0.13
21:16:34.804,-0.345,-0.145
21:16:34.808,-0.345,-0.12
21:16:34.812,-0.315,-0.155
21:16:34.816,-0.31,-0.16
21:16:34.820,-0.3,-0.175
21:16:34.824,-0.285,-0.19
21:16:34.828,-0.29,-0.18
21:16:34.832,-0.295,-0.2
21:16:34.836,-0.275,-0.195
21:16:34.840,-0.255,-0.2
21:16:34.844,-0.255,-0.18
21:16:34.848,-0.24,-0.205
21:16:34.852,-0.235,-0.19
21:16:34.856,-0.22,-0.185
21:16:34.860,-0.2,-0.215
21:16:34.864,-0.2,-0.2
21:16:34.868,-0.205,-0.185
21:16:34.872,-0.22,-0.19
21:16:34.876,-0.205,-0.18
21:16:34.880,-0.19,-0.185
21:16:34.884,-0.195,-0.175
21:16:34.888,-0.19,-0.185
21:16:34.892,-0.18,-0.165
21:16:34.896,-0.16,-0.175
21:16:34.900,-0.17,-0.185
21:16:34.904,-0.195,-0.155
21:16:34.908,-0.18,-0.16
21:16:34.912,-0.17,-0.15
21:16:34.916,-0.185,-0.17
21:16:34.920,-0.17,-0.16
21:16:34.924,-0.16,-0.17
21:16:34.928,-0.145,-0.145
21:16:34.932,-0.14,-0.135
21:16:34.936,-0.155,-0.145
21:16:34.940,-0.145,-0.14
21:16:34.944,-0.14,-0.155
21:16:34.948,-0.095,-0.12
21:16:34.952,-0.06,-0.125
21:16:34.956,-0.035,-0.115
21:16:34.960,0.01,-0.11
21:16:34.964,0.03,-0.095
21:16:34.968,0.04,-0.125
21:16:34.972,0.055,-0.125
21:16:34.976,0.09,-0.085
21:16:34.980,0.075,-0.105
21:16:34.984,0.03,-0.135
21:16:34.988,-0.015,-0.155
21:16:34.992,-0.06,-0.17
21:16:34.996,-0.1,-0.18
21:16:35.000,-0.14,-0.19
21:16:35.004,-0.19,-0.17
21:16:35.008,-0.235,-0.18
21:16:35.012,-0.3,-0.18
21:16:35.016,-0.31,-0.15
21:16:35.020,-0.315,-0.155
21:16:35.024,-0.32,-0.16
21:16:35.028,-0.34,-0.155
21:16:35.032,-0.31,-0.165
21:16:35.036,-0.325,-0.16
21:16:35.040,-0.32,-0.16
21:16:35.044,-0.33,-0.155
21:16:35.048,-0.32,-0.17
21:16:35.052,-0.34,-0.155
21:16:35.056,-0.35,-0.16
21:16:35.060,-0.38,-0.165
21:16:35.064,-0.365,-0.165
21:16:35.068,-0.37,-0.145
21:16:35.072,-0.355,-0.16
21:16:35.076,-0.34,-0.17
21:16:35.080,-0.34,-0.16
21:16:35.084,-0.34,-0.165
21:16:35.088,-0.35,-0.175
21:16:35.092,-0.335,-0.16
21:16:35.096,-0.355,-0.175
21:16:35.100,-0.36,-0.165
21:16:35.104,-0.35,-0.155
21:16:35.108,-0.345,-0.145
21:16:35.112,-0.335,-0.155
21:16:35.116,-0.355,-0.165
21:16:35.120,-0.32,-0.175
21:16:35.124,-0.28,-0.18
21:16:35.128,-0.225,-0.175
21:16:35.132,-0.145,-0.165
21:16:35.136,-0.06,-0.15
21:16:35.140,-0.015,-0.18
21:16:35.144,0.035,-0.195
21:16:35.148,0.1,-0.225
21:16:35.152,0.135,-0.26
21:16:35.156,0.165,-0.27
21:16:35.160,0.14,-0.275
21:16:35.164,0.125,-0.33
21:16:35.168,0.185,-0.425
21:16:35.172,0.375,-0.58
21:16:35.176,0.655,-0.775
21:16:35.180,0.89,-1.06
21:16:35.184,0.945,-1.28
21:16:35.188,0.69,-1.355
21:16:35.192,0.23,-1.165
21:16:35.196,-0.145,-0.81
21:16:35.200,-0.345,-0.475
21:16:35.204,-0.435,-0.31
21:16:35.208,-0.47,-0.165
21:16:35.212,-0.45,-0.12
21:16:35.216,-0.455,-0.04
21:16:35.220,-0.475,-0.04
21:16:35.224,-0.48,-0.035
21:16:35.228,-0.495,-0.035
21:16:35.232,-0.51,-0.04
21:16:35.236,-0.53,-0.065
21:16:35.240,-0.545,-0.09
21:16:35.244,-0.535,-0.085
21:16:35.248,-0.52,-0.075
21:16:35.252,-0.51,-0.1
21:16:35.256,-0.525,-0.085
21:16:35.260,-0.535,-0.085
21:16:35.264,-0.53,-0.105
21:16:35.268,-0.54,-0.12
21:16:35.272,-0.54,-0.115
21:16:35.276,-0.55,-0.12
21:16:35.280,-0.555,-0.11
21:16:35.284,-0.56,-0.14
21:16:35.288,-0.605,-0.13
21:16:35.292,-0.58,-0.12
21:16:35.296,-0.59,-0.15
21:16:35.300,-0.585,-0.135
21:16:35.304,-0.605,-0.14
21:16:35.308,-0.605,-0.16
21:16:35.312,-0.605,-0.145
21:16:35.316,-0.595,-0.15
21:16:35.320,-0.59,-0.175
21:16:35.324,-0.59,-0.175
21:16:35.328,-0.585,-0.18
21:16:35.332,-0.605,-0.17
21:16:35.336,-0.61,-0.165
21:16:35.340,-0.615,-0.185
21:16:35.344,-0.6,-0.185
21:16:35.348,-0.58,-0.155
21:16:35.352,-0.575,-0.155
21:16:35.356,-0.56,-0.175
21:16:35.360,-0.56,-0.18
21:16:35.364,-0.555,-0.165
21:16:35.368,-0.54,-0.18
21:16:35.372,-0.555,-0.205
21:16:35.376,-0.535,-0.185
21:16:35.380,-0.535,-0.195
21:16:35.384,-0.525,-0.21
21:16:35.388,-0.51,-0.225
21:16:35.392,-0.5,-0.22
21:16:35.396,-0.5,-0.205
21:16:35.400,-0.46,-0.23
21:16:35.404,-0.465,-0.25
21:16:35.408,-0.475,-0.26
21:16:35.412,-0.465,-0.26
21:16:35.416,-0.425,-0.265
21:16:35.420,-0.395,-0.28
21:16:35.424,-0.405,-0.295
21:16:35.428,-0.41,-0.305
21:16:35.432,-0.4,-0.31
21:16:35.436,-0.39,-0.28
21:16:35.440,-0.375,-0.305
21:16:35.444,-0.36,-0.285
21:16:35.448,-0.365,-0.31
21:16:35.452,-0.345,-0.31
21:16:35.456,-0.345,-0.285
21:16:35.460,-0.33,-0.3
21:16:35.464,-0.305,-0.305
21:16:35.468,-0.29,-0.3
21:16:35.472,-0.32,-0.305
21:16:35.476,-0.315,-0.3
21:16:35.480,-0.32,-0.295
21:16:35.484,-0.33,-0.295
21:16:35.488,-0.305,-0.295
21:16:35.492,-0.33,-0.285
21:16:35.496,-0.305,-0.295
21:16:35.500,-0.33,-0.285
21:16:35.504,-0.325,-0.295
21:16:35.508,-0.315,-0.29
21:16:35.512,-0.305,-0.29
21:16:35.516,-0.335,-0.275
21:16:35.520,-0.35,-0.29
21:16:35.524,-0.36,-0.305
21:16:35.528,-0.35,-0.33
21:16:35.532,-0.35,-0.35
21:16:35.536,-0.325,-0.325
21:16:35.540,-0.295,-0.35
21:16:35.544,-0.29,-0.355
21:16:35.548,-0.3,-0.34
21:16:35.552,-0.28,-0.355
21:16:35.556,-0.27,-0.33
21:16:35.560,-0.225,-0.32
21:16:35.564,-0.19,-0.32
21:16:35.568,-0.12,-0.32
21:16:35.572,-0.08,-0.32
21:16:35.576,-0.06,-0.315
21:16:35.580,-0.05,-0.305
21:16:35.584,-0.035,-0.265
21:16:35.588,-0.065,-0.285
21:16:35.592,-0.085,-0.3
21:16:35.596,-0.12,-0.35
21:16:35.600,-0.165,-0.36
21:16:35.604,-0.24,-0.39
21:16:35.608,-0.29,-0.4
21:16:35.612,-0.37,-0.395
21:16:35.616,-0.425,-0.405
21:16:35.620,-0.46,-0.41
21:16:35.624,-0.47,-0.415
21:16:35.628,-0.48,-0.385
21:16:35.632,-0.48,-0.415
21:16:35.636,-0.485,-0.445
21:16:35.640,-0.46,-0.445
21:16:35.644,-0.465,-0.455
21:16:35.648,-0.465,-0.455
21:16:35.652,-0.46,-0.44
21:16:35.656,-0.465,-0.465
21:16:35.660,-0.46,-0.465
21:16:35.664,-0.455,-0.48
21:16:35.668,-0.45,-0.465
21:16:35.672,-0.43,-0.47
21:16:35.676,-0.43,-0.42
21:16:35.680,-0.425,-0.375
21:16:35.684,-0.435,-0.36
21:16:35.688,-0.435,-0.335
21:16:35.692,-0.435,-0.35
21:16:35.696,-0.41,-0.355
21:16:35.700,-0.425,-0.355
21:16:35.704,-0.42,-0.355
21:16:35.708,-0.42,-0.35
21:16:35.712,-0.41,-0.375
21:16:35.716,-0.395,-0.375
21:16:35.720,-0.41,-0.37
21:16:35.724,-0.38,-0.365
21:16:35.728,-0.39,-0.39
21:16:35.732,-0.365,-0.385
21:16:35.736,-0.32,-0.375
21:16:35.740,-0.265,-0.39
21:16:35.744,-0.17,-0.405
21:16:35.748,-0.1,-0.425
21:16:35.752,-0.01,-0.44
21:16:35.756,0.065,-0.48
21:16:35.760,0.135,-0.515
21:16:35.764,0.17,-0.525
21:16:35.768,0.195,-0.505
21:16:35.772,0.2,-0.525
21:16:35.776,0.185,-0.585
21:16:35.780,0.31,-0.665
21:16:35.784,0.535,-0.83
21:16:35.788,0.84,-1.04
21:16:35.792,0.99,-1.265
21:16:35.796,0.915,-1.405
21:16:35.800,0.55,-1.42
21:16:35.804,0.08,-1.17
21:16:35.808,-0.21,-0.855
21:16:35.812,-0.32,-0.62
21:16:35.816,-0.365,-0.515
21:16:35.820,-0.395,-0.38
21:16:35.824,-0.4,-0.31
21:16:35.828,-0.435,-0.26
21:16:35.832,-0.465,-0.225
21:16:35.836,-0.495,-0.255
21:16:35.840,-0.5,-0.245
21:16:35.844,-0.515,-0.27
21:16:35.848,-0.51,-0.295
21:16:35.852,-0.51,-0.285
21:16:35.856,-0.52,-0.31
21:16:35.860,-0.53,-0.28
21:16:35.864,-0.5,-0.29
21:16:35.868,-0.52,-0.27
21:16:35.872,-0.52,-0.28
21:16:35.876,-0.51,-0.3
21:16:35.880,-0.53,-0.305
21:16:35.884,-0.53,-0.295
21:16:35.888,-0.54,-0.28
21:16:35.892,-0.545,-0.265
21:16:35.896,-0.53,-0.27
21:16:35.900,-0.54,-0.29
21:16:35.904,-0.535,-0.275
21:16:35.908,-0.55,-0.28
21:16:35.912,-0.535,-0.285
21:16:35.916,-0.545,-0.26
21:16:35.920,-0.545,-0.255
21:16:35.924,-0.55,-0.25
21:16:35.928,-0.53,-0.24
21:16:35.932,-0.54,-0.24
21:16:35.936,-0.52,-0.21
21:16:35.940,-0.54,-0.225
21:16:35.944,-0.535,-0.21
21:16:35.948,-0.53,-0.21
21:16:35.952,-0.545,-0.2
21:16:35.956,-0.54,-0.205
21:16:35.960,-0.525,-0.19
21:16:35.964,-0.525,-0.195
21:16:35.968,-0.51,-0.2
21:16:35.972,-0.505,-0.18
21:16:35.976,-0.525,-0.195
21:16:35.980,-0.51,-0.18
21:16:35.984,-0.5,-0.175
21:16:35.988,-0.48,-0.18
21:16:35.992,-0.45,-0.18
21:16:35.996,-0.445,-0.205
21:16:36.000,-0.45,-0.215
21:16:36.004,-0.44,-0.175
21:16:36.008,-0.42,-0.17
21:16:36.012,-0.395,-0.195
21:16:36.016,-0.385,-0.205
21:16:36.020,-0.385,-0.21
21:16:36.024,-0.36,-0.22
21:16:36.028,-0.335,-0.235
21:16:36.032,-0.315,-0.215
21:16:36.036,-0.29,-0.205
21:16:36.040,-0.275,-0.205
21:16:36.044,-0.25,-0.195
21:16:36.048,-0.26,-0.19
21:16:36.052,-0.26,-0.2
21:16:36.056,-0.22,-0.19
21:16:36.060,-0.23,-0.18
21:16:36.064,-0.205,-0.185
21:16:36.068,-0.245,-0.17
21:16:36.072,-0.23,-0.16
21:16:36.076,-0.215,-0.16
21:16:36.080,-0.2,-0.185
21:16:36.084,-0.21,-0.16
21:16:36.088,-0.215,-0.155
21:16:36.092,-0.235,-0.155
21:16:36.096,-0.225,-0.14
21:16:36.100,-0.225,-0.13
21:16:36.104,-0.225,-0.145
21:16:36.108,-0.205,-0.125
21:16:36.112,-0.205,-0.145
21:16:36.116,-0.18,-0.15
21:16:36.120,-0.19,-0.11
21:16:36.124,-0.19,-0.115
21:16:36.128,-0.185,-0.115
21:16:36.132,-0.195,-0.115
21:16:36.136,-0.2,-0.105
21:16:36.140,-0.19,-0.1
21:16:36.144,-0.185,-0.115
21:16:36.148,-0.15,-0.105
21:16:36.152,-0.155,-0.08
21:16:36.156,-0.135,-0.08
21:16:36.160,-0.135,-0.08
21:16:36.164,-0.115,-0.09
21:16:36.168,-0.11,-0.065
21:16:36.172,-0.105,-0.045
21:16:36.176,-0.06,-0.03
21:16:36.180,-0.03,-0.025
21:16:36.184,0.005,-0.005
21:16:36.188,0.045,0.005
21:16:36.192,0.085,0.0
21:16:36.196,0.085,0.005
21:16:36.200,0.1,0.005
21:16:36.204,0.08,0.025
21:16:36.208,0.06,0.0
21:16:36.212,0.02,-0.005
21:16:36.216,-0.01,-0.045
21:16:36.220,-0.07,-0.055
21:16:36.224,-0.14,-0.07
21:16:36.228,-0.18,-0.06
21:16:36.232,-0.25,-0.065
21:16:36.236,-0.265,-0.05
21:16:36.240,-0.345,-0.04
21:16:36.244,-0.35,-0.035
21:16:36.248,-0.37,-0.025
21:16:36.252,-0.35,-0.025
21:16:36.256,-0.33,-0.01
21:16:36.260,-0.315,-0.04
21:16:36.264,-0.32,-0.045
21:16:36.268,-0.32,-0.04
21:16:36.272,-0.315,-0.055
21:16:36.276,-0.31,-0.04
21:16:36.280,-0.32,-0.05
21:16:36.284,-0.32,-0.05
21:16:36.288,-0.305,-0.045
21:16:36.292,-0.31,-0.02
21:16:36.296,-0.31,-0.015
21:16:36.300,-0.295,-0.045
21:16:36.304,-0.3,-0.06
21:16:36.308,-0.305,-0.035
21:16:36.312,-0.3,-0.055
21:16:36.316,-0.305,-0.04
21:16:36.320,-0.3,-0.05
21:16:36.324,-0.32,-0.06
21:16:36.328,-0.32,-0.065
21:16:36.332,-0.32,-0.075
21:16:36.336,-0.315,-0.09
21:16:36.340,-0.295,-0.095
21:16:36.344,-0.3,-0.1
21:16:36.348,-0.28,-0.095
21:16:36.352,-0.265,-0.09
21:16:36.356,-0.185,-0.1
21:16:36.360,-0.11,-0.095
21:16:36.364,-0.025,-0.09
21:16:36.368,0.08,-0.1
21:16:36.372,0.105,-0.125
21:16:36.376,0.17,-0.175
21:16:36.380,0.205,-0.21
21:16:36.384,0.225,-0.225
21:16:36.388,0.22,-0.225
21:16:36.392,0.2,-0.26
21:16:36.396,0.28,-0.38
21:16:36.400,0.5,-0.56
21:16:36.404,0.82,-0.75
21:16:36.408,1.045,-0.975
21:16:36.412,1.035,-1.195
21:16:36.416,0.785,-1.27
21:16:36.420,0.295,-1.075
21:16:36.424,-0.095,-0.71
21:16:36.428,-0.3,-0.395
21:16:36.432,-0.35,-0.215
21:16:36.436,-0.42,-0.05
21:16:36.440,-0.37,0.015
21:16:36.444,-0.395,0.055
21:16:36.448,-0.44,0.085
21:16:36.452,-0.44,0.1
21:16:36.456,-0.455,0.08
21:16:36.460,-0.465,0.09
21:16:36.464,-0.455,0.045
21:16:36.468,-0.455,0.06
21:16:36.472,-0.445,0.06
21:16:36.476,-0.45,0.07
21:16:36.480,-0.465,0.06
21:16:36.484,-0.45,0.055
21:16:36.488,-0.435,0.06
21:16:36.492,-0.425,0.07
21:16:36.496,-0.43,0.07
21:16:36.500,-0.465,0.07
21:16:36.504,-0.435,0.07
21:16:36.508,-0.48,0.065
21:16:36.512,-0.455,0.075
21:16:36.516,-0.465,0.065
21:16:36.520,-0.455,0.08
21:16:36.524,-0.47,0.06
21:16:36.528,-0.485,0.08
21:16:36.532,-0.485,0.075
21:16:36.536,-0.49,0.065
21:16:36.540,-0.51,0.055
21:16:36.544,-0.5,0.075
21:16:36.548,-0.51,0.085
21:16:36.552,-0.505,0.065
21:16:36.556,-0.52,0.065
21:16:36.560,-0.525,0.065
21:16:36.564,-0.53,0.055
21:16:36.568,-0.525,0.045
21:16:36.572,-0.515,0.06
21:16:36.576,-0.52,0.06
21:16:36.580,-0.535,0.06
21:16:36.584,-0.485,0.06
21:16:36.588,-0.495,0.055
21:16:36.592,-0.5,0.045
21:16:36.596,-0.475,0.07
21:16:36.600,-0.48,0.05
21:16:36.604,-0.46,0.065
21:16:36.608,-0.425,0.055
21:16:36.612,-0.435,0.03
21:16:36.616,-0.415,0.05
21:16:36.620,-0.4,0.03
21:16:36.624,-0.38,0.035
21:16:36.628,-0.39,0.015
21:16:36.632,-0.375,0.035
21:16:36.636,-0.355,0.02
21:16:36.640,-0.375,0.005
21:16:36.644,-0.34,0.005
21:16:36.648,-0.32,-0.035
21:16:36.652,-0.325,-0.03
21:16:36.656,-0.335,-0.015
21:16:36.660,-0.305,-0.035
21:16:36.664,-0.29,0.005
21:16:36.668,-0.28,-0.015
21:16:36.672,-0.275,0.0
21:16:36.676,-0.275,-0.025
21:16:36.680,-0.26,-0.035
21:16:36.684,-0.255,-0.025
21:16:36.688,-0.25,-0.03
21:16:36.692,-0.245,-0.025
21:16:36.696,-0.23,-0.01
21:16:36.700,-0.225,-0.025
21:16:36.704,-0.235,-0.01
21:16:36.708,-0.235,-0.005
21:16:36.712,-0.21,-0.01
21:16:36.716,-0.21,0.0
21:16:36.720,-0.21,0.005
21:16:36.724,-0.21,0.0
21:16:36.728,-0.195,-0.025
21:16:36.732,-0.2,-0.105
21:16:36.736,-0.225,-0.17
21:16:36.740,-0.21,-0.185
21:16:36.744,-0.215,-0.145
21:16:36.748,-0.215,-0.17
21:16:36.752,-0.22,-0.175
21:16:36.756,-0.215,-0.165
21:16:36.760,-0.21,-0.16
21:16:36.764,-0.21,-0.17
21:16:36.768,-0.2,-0.15
21:16:36.772,-0.185,-0.16
21:16:36.776,-0.19,-0.145
21:16:36.780,-0.18,-0.165
21:16:36.784,-0.16,-0.15
21:16:36.788,-0.115,-0.155
21:16:36.792,-0.095,-0.14
21:16:36.796,-0.045,-0.14
21:16:36.800,-0.035,-0.1
21:16:36.804,0.0,-0.12
21:16:36.808,0.025,-0.1
21:16:36.812,0.04,-0.095
21:16:36.816,0.06,-0.09
21:16:36.820,0.05,-0.095
21:16:36.824,0.02,-0.11
21:16:36.828,-0.025,-0.115
21:16:36.832,-0.05,-0.16
21:16:36.836,-0.11,-0.165
21:16:36.840,-0.175,-0.155
21:16:36.844,-0.225,-0.155
21:16:36.848,-0.28,-0.14
21:16:36.852,-0.33,-0.12
21:16:36.856,-0.32,-0.105
21:16:36.860,-0.355,-0.13
21:16:36.864,-0.33,-0.13
21:16:36.868,-0.335,-0.14
21:16:36.872,-0.355,-0.14
21:16:36.876,-0.335,-0.12
21:16:36.880,-0.335,-0.13
21:16:36.884,-0.35,-0.14
21:16:36.888,-0.355,-0.135
21:16:36.892,-0.325,-0.15
21:16:36.896,-0.34,-0.15
21:16:36.900,-0.34,-0.16
21:16:36.904,-0.31,-0.15
21:16:36.908,-0.335,-0.16
21:16:36.912,-0.32,-0.16
21:16:36.916,-0.325,-0.165
21:16:36.920,-0.335,-0.14
21:16:36.924,-0.32,-0.155
21:16:36.928,-0.32,-0.16
21:16:36.932,-0.31,-0.145
21:16:36.936,-0.32,-0.16
21:16:36.940,-0.3,-0.17
21:16:36.944,-0.305,-0.15
21:16:36.948,-0.285,-0.165
21:16:36.952,-0.27,-0.165
21:16:36.956,-0.285,-0.15
21:16:36.960,-0.255,-0.155
21:16:36.964,-0.24,-0.14
21:16:36.968,-0.17,-0.155
21:16:36.972,-0.115,-0.145
21:16:36.976,-0.025,-0.155
21:16:36.980,0.08,-0.165
21:16:36.984,0.1,-0.22
21:16:36.988,0.12,-0.26
21:16:36.992,0.155,-0.265
21:16:36.996,0.165,-0.295
21:16:37.000,0.125,-0.32
21:16:37.004,0.125,-0.375
21:16:37.008,0.25,-0.51
21:16:37.012,0.5,-0.64
21:16:37.016,0.815,-0.885
21:16:37.020,1.01,-1.145
21:16:37.024,0.97,-1.315
21:16:37.028,0.63,-1.33
21:16:37.032,0.17,-1.085
21:16:37.036,-0.175,-0.69
21:16:37.040,-0.32,-0.41
21:16:37.044,-0.395,-0.21
21:16:37.048,-0.41,-0.12
21:16:37.052,-0.43,-0.05
21:16:37.056,-0.405,-0.015
21:16:37.060,-0.425,0.0
21:16:37.064,-0.42,0.0
21:16:37.068,-0.435,-0.01
21:16:37.072,-0.415,-0.015
21:16:37.076,-0.425,-0.03
21:16:37.080,-0.435,-0.045
21:16:37.084,-0.45,-0.02
21:16:37.088,-0.445,-0.04
21:16:37.092,-0.42,-0.045
21:16:37.096,-0.445,-0.05
21:16:37.100,-0.45,-0.03
21:16:37.104,-0.455,-0.04
21:16:37.108,-0.47,-0.05
21:16:37.112,-0.455,-0.04
21:16:37.116,-0.455,-0.06
21:16:37.120,-0.48,-0.06
21:16:37.124,-0.465,-0.05
21:16:37.128,-0.475,-0.06
21:16:37.132,-0.48,-0.065
21:16:37.136,-0.475,-0.045
21:16:37.140,-0.49,-0.065
21:16:37.144,-0.47,-0.065
21:16:37.148,-0.48,-0.07
21:16:37.152,-0.48,-0.075
21:16:37.156,-0.495,-0.04
21:16:37.160,-0.485,-0.065
21:16:37.164,-0.49,-0.06
21:16:37.168,-0.49,-0.075
21:16:37.172,-0.485,-0.04
21:16:37.176,-0.465,-0.035
21:16:37.180,-0.475,-0.03
21:16:37.184,-0.475,-0.02
21:16:37.188,-0.465,-0.04
21:16:37.192,-0.465,-0.015
21:16:37.196,-0.45,-0.035
21:16:37.200,-0.46,-0.03
21:16:37.204,-0.45,-0.04
21:16:37.208,-0.435,-0.04
21:16:37.212,-0.425,-0.045
21:16:37.216,-0.425,-0.045
21:16:37.220,-0.42,-0.055
21:16:37.224,-0.4,-0.035
21:16:37.228,-0.395,-0.065
21:16:37.232,-0.39,-0.09
21:16:37.236,-0.395,-0.08
21:16:37.240,-0.395,-0.085
21:16:37.244,-0.375,-0.11
21:16:37.248,-0.345,-0.13
21:16:37.252,-0.34,-0.125
21:16:37.256,-0.325,-0.12
21:16:37.260,-0.32,-0.135
21:16:37.264,-0.3,-0.15
21:16:37.268,-0.315,-0.135
21:16:37.272,-0.28,-0.145
21:16:37.276,-0.295,-0.15
21:16:37.280,-0.255,-0.145
21:16:37.284,-0.25,-0.14
21:16:37.288,-0.225,-0.15
21:16:37.292,-0.225,-0.145
21:16:37.296,-0.205,-0.155
21:16:37.300,-0.215,-0.145
21:16:37.304,-0.215,-0.145
21:16:37.308,-0.19,-0.135
21:16:37.312,-0.18,-0.125
21:16:37.316,-0.185,-0.12
21:16:37.320,-0.17,-0.125
21:16:37.324,-0.16,-0.09
21:16:37.328,-0.165,-0.11
21:16:37.332,-0.195,-0.125
21:16:37.336,-0.215,-0.115
21:16:37.340,-0.215,-0.095
21:16:37.344,-0.21,-0.09
21:16:37.348,-0.215,-0.125
21:16:37.352,-0.2,-0.11
21:16:37.356,-0.19,-0.085
21:16:37.360,-0.17,-0.09
21:16:37.364,-0.17,-0.1
21:16:37.368,-0.16,-0.075
21:16:37.372,-0.16,-0.075
21:16:37.376,-0.14,-0.065
21:16:37.380,-0.14,-0.05
21:16:37.384,-0.1,-0.035
21:16:37.388,-0.06,-0.035
21:16:37.392,-0.03,-0.03
21:16:37.396,-0.005,-0.015
21:16:37.400,0.03,-0.015
21:16:37.404,0.04,-0.015
21:16:37.408,0.05,0.0
21:16:37.412,0.055,0.0
21:16:37.416,0.065,0.005
21:16:37.420,0.025,0.015
21:16:37.424,-0.025,-0.015
21:16:37.428,-0.085,-0.05
21:16:37.432,-0.14,-0.045
21:16:37.436,-0.195,-0.05
21:16:37.440,-0.26,-0.065
21:16:37.444,-0.32,-0.075
21:16:37.448,-0.35,-0.05
21:16:37.452,-0.38,-0.04
21:16:37.456,-0.38,-0.045
21:16:37.460,-0.395,-0.055
21:16:37.464,-0.405,-0.06
21:16:37.468,-0.385,-0.065
21:16:37.472,-0.385,-0.07
21:16:37.476,-0.37,-0.07
21:16:37.480,-0.35,-0.095
21:16:37.484,-0.365,-0.08
21:16:37.488,-0.38,-0.085
21:16:37.492,-0.37,-0.1
21:16:37.496,-0.37,-0.085
21:16:37.500,-0.365,-0.09
21:16:37.504,-0.37,-0.1
21:16:37.508,-0.385,-0.08
21:16:37.512,-0.38,-0.1
21:16:37.516,-0.365,-0.115
21:16:37.520,-0.345,-0.105
21:16:37.524,-0.355,-0.08
21:16:37.528,-0.35,-0.085
21:16:37.532,-0.33,-0.11
21:16:37.536,-0.325,-0.1
21:16:37.540,-0.355,-0.1
21:16:37.544,-0.35,-0.095
21:16:37.548,-0.355,-0.1
21:16:37.552,-0.335,-0.1
21:16:37.556,-0.32,-0.085
21:16:37.560,-0.3,-0.115
21:16:37.564,-0.275,-0.105
21:16:37.568,-0.2,-0.105
21:16:37.572,-0.145,-0.11
21:16:37.576,-0.045,-0.13
21:16:37.580,0.035,-0.145
21:16:37.584,0.095,-0.17
21:16:37.588,0.135,-0.19
21:16:37.592,0.155,-0.215
21:16:37.596,0.15,-0.225
21:16:37.600,0.12,-0.235
21:16:37.604,0.165,-0.315
21:16:37.608,0.37,-0.44
21:16:37.612,0.685,-0.67
21:16:37.616,0.945,-0.925
21:16:37.620,1.005,-1.155
21:16:37.624,0.715,-1.24
21:16:37.628,0.245,-1.1
21:16:37.632,-0.115,-0.775
21:16:37.636,-0.31,-0.45
21:16:37.640,-0.4,-0.26
21:16:37.644,-0.41,-0.125
21:16:37.648,-0.405,-0.025
21:16:37.652,-0.415,-0.005
21:16:37.656,-0.475,0.015
21:16:37.660,-0.455,0.03
21:16:37.664,-0.49,0.005
21:16:37.668,-0.49,-0.01
21:16:37.672,-0.5,-0.015
21:16:37.676,-0.5,-0.04
21:16:37.680,-0.52,-0.055
21:16:37.684,-0.535,-0.075
21:16:37.688,-0.54,-0.065
21:16:37.692,-0.54,-0.065
21:16:37.696,-0.525,-0.08
21:16:37.700,-0.53,-0.07
21:16:37.704,-0.54,-0.06
21:16:37.708,-0.545,-0.07
21:16:37.712,-0.53,-0.095
21:16:37.716,-0.52,-0.095
21:16:37.720,-0.52,-0.095
21:16:37.724,-0.54,-0.1
21:16:37.728,-0.55,-0.11
21:16:37.732,-0.555,-0.1
21:16:37.736,-0.56,-0.12
21:16:37.740,-0.555,-0.115
21:16:37.744,-0.545,-0.135
21:16:37.748,-0.535,-0.12
21:16:37.752,-0.55,-0.13
21:16:37.756,-0.54,-0.125
21:16:37.760,-0.555,-0.13
21:16:37.764,-0.55,-0.125
21:16:37.768,-0.54,-0.13
21:16:37.772,-0.55,-0.12
21:16:37.776,-0.55,-0.115
21:16:37.780,-0.535,-0.12
21:16:37.784,-0.535,-0.12
21:16:37.788,-0.535,-0.135
21:16:37.792,-0.53,-0.145
21:16:37.796,-0.5,-0.14
21:16:37.800,-0.51,-0.135
21:16:37.804,-0.51,-0.155
21:16:37.808,-0.475,-0.15
21:16:37.812,-0.48,-0.145
21:16:37.816,-0.455,-0.17
21:16:37.820,-0.46,-0.16
21:16:37.824,-0.435,-0.165
21:16:37.828,-0.43,-0.2
21:16:37.832,-0.425,-0.205
21:16:37.836,-0.405,-0.185
21:16:37.840,-0.4,-0.2
21:16:37.844,-0.395,-0.19
21:16:37.848,-0.37,-0.21
21:16:37.852,-0.35,-0.2
21:16:37.856,-0.35,-0.22
21:16:37.860,-0.3,-0.235
21:16:37.864,-0.285,-0.24
21:16:37.868,-0.28,-0.24
21:16:37.872,-0.27,-0.23
21:16:37.876,-0.28,-0.24
21:16:37.880,-0.29,-0.25
21:16:37.884,-0.285,-0.24
21:16:37.888,-0.275,-0.255
21:16:37.892,-0.225,-0.255
21:16:37.896,-0.225,-0.26
21:16:37.900,-0.22,-0.265
21:16:37.904,-0.22,-0.27
21:16:37.908,-0.245,-0.28
21:16:37.912,-0.25,-0.275
21:16:37.916,-0.255,-0.28
21:16:37.920,-0.28,-0.29
21:16:37.924,-0.255,-0.285
21:16:37.928,-0.225,-0.3
21:16:37.932,-0.225,-0.29
21:16:37.936,-0.24,-0.275
21:16:37.940,-0.255,-0.28
21:16:37.944,-0.235,-0.305
21:16:37.948,-0.235,-0.34
21:16:37.952,-0.255,-0.32
21:16:37.956,-0.225,-0.305
21:16:37.960,-0.25,-0.32
21:16:37.964,-0.25,-0.315
21:16:37.968,-0.225,-0.315
21:16:37.972,-0.22,-0.33
21:16:37.976,-0.185,-0.305
21:16:37.980,-0.195,-0.32
21:16:37.984,-0.185,-0.285
21:16:37.988,-0.175,-0.315
21:16:37.992,-0.145,-0.325
21:16:37.996,-0.13,-0.3
21:16:38.000,-0.075,-0.285
21:16:38.004,-0.035,-0.265
21:16:38.008,-0.005,-0.29
21:16:38.012,0.025,-0.27
21:16:38.016,0.04,-0.285
21:16:38.020,0.055,-0.27
21:16:38.024,0.065,-0.255
21:16:38.028,0.05,-0.25
21:16:38.032,0.015,-0.28
21:16:38.036,-0.01,-0.26
21:16:38.040,-0.06,-0.25
21:16:38.044,-0.1,-0.225
21:16:38.048,-0.165,-0.23
21:16:38.052,-0.225,-0.24
21:16:38.056,-0.28,-0.25
21:16:38.060,-0.32,-0.24
21:16:38.064,-0.34,-0.25
21:16:38.068,-0.355,-0.24
21:16:38.072,-0.35,-0.24
21:16:38.076,-0.37,-0.25
21:16:38.080,-0.365,-0.25
21:16:38.084,-0.345,-0.265
21:16:38.088,-0.31,-0.24
21:16:38.092,-0.305,-0.24
21:16:38.096,-0.3,-0.255
21:16:38.100,-0.3,-0.25
21:16:38.104,-0.28,-0.25
21:16:38.108,-0.29,-0.25
21:16:38.112,-0.285,-0.265
21:16:38.116,-0.27,-0.245
21:16:38.120,-0.26,-0.25
21:16:38.124,-0.28,-0.24
21:16:38.128,-0.275,-0.24
21:16:38.132,-0.29,-0.26
21:16:38.136,-0.265,-0.26
21:16:38.140,-0.285,-0.255
21:16:38.144,-0.28,-0.26
21:16:38.148,-0.285,-0.25
21:16:38.152,-0.265,-0.255
21:16:38.156,-0.28,-0.265
21:16:38.160,-0.27,-0.26
21:16:38.164,-0.255,-0.28
21:16:38.168,-0.235,-0.26
21:16:38.172,-0.215,-0.27
21:16:38.176,-0.165,-0.27
21:16:38.180,-0.08,-0.23
21:16:38.184,0.005,-0.265
21:16:38.188,0.1,-0.25
21:16:38.192,0.18,-0.285
21:16:38.196,0.265,-0.305
21:16:38.200,0.31,-0.35
21:16:38.204,0.38,-0.345
21:16:38.208,0.385,-0.335
21:16:38.212,0.35,-0.345
21:16:38.216,0.385,-0.43
21:16:38.220,0.535,-0.505
21:16:38.224,0.82,-0.7
21:16:38.228,1.09,-0.92
21:16:38.232,1.155,-1.13
21:16:38.236,0.945,-1.25
21:16:38.240,0.5,-1.14
21:16:38.244,0.09,-0.855
21:16:38.248,-0.135,-0.54
21:16:38.252,-0.225,-0.34
21:16:38.256,-0.24,-0.21
21:16:38.260,-0.28,-0.1
21:16:38.264,-0.31,-0.035
21:16:38.268,-0.32,0.025
21:16:38.272,-0.355,0.035
21:16:38.276,-0.355,0.025
21:16:38.280,-0.36,0.0
21:16:38.284,-0.36,0.0
21:16:38.288,-0.38,-0.025
21:16:38.292,-0.375,-0.04
21:16:38.296,-0.385,-0.02
21:16:38.300,-0.36,-0.03
21:16:38.304,-0.375,-0.015
21:16:38.308,-0.38,-0.02
21:16:38.312,-0.385,-0.015
21:16:38.316,-0.36,-0.01
21:16:38.320,-0.355,0.005
21:16:38.324,-0.37,0.015
21:16:38.328,-0.36,0.03
21:16:38.332,-0.36,0.035
21:16:38.336,-0.355,0.025
21:16:38.340,-0.36,0.015
21:16:38.344,-0.375,0.035
21:16:38.348,-0.355,0.03
21:16:38.352,-0.375,0.03
21:16:38.356,-0.36,0.07
21:16:38.360,-0.38,0.04
21:16:38.364,-0.39,0.04
21:16:38.368,-0.395,0.03
21:16:38.372,-0.38,0.06
21:16:38.376,-0.385,0.075
21:16:38.380,-0.39,0.055
21:16:38.384,-0.395,0.06
21:16:38.388,-0.39,0.065
21:16:38.392,-0.385,0.065
21:16:38.396,-0.39,0.06
21:16:38.400,-0.385,0.055
21:16:38.404,-0.37,0.04
21:16:38.408,-0.365,0.035
21:16:38.412,-0.345,0.035
21:16:38.416,-0.33,0.055
21:16:38.420,-0.34,0.03
21:16:38.424,-0.33,0.035
21:16:38.428,-0.32,0.04
21:16:38.432,-0.29,0.025
21:16:38.436,-0.265,0.025
21:16:38.440,-0.265,0.015
21:16:38.444,-0.235,0.02
21:16:38.448,-0.235,0.015
21:16:38.452,-0.23,0.025
21:16:38.456,-0.23,0.015
21:16:38.460,-0.215,0.015
21:16:38.464,-0.19,0.0
21:16:38.468,-0.185,-0.02
21:16:38.472,-0.17,0.0
21:16:38.476,-0.155,-0.01
21:16:38.480,-0.16,0.0
21:16:38.484,-0.145,-0.01
21:16:38.488,-0.145,-0.02
21:16:38.492,-0.135,-0.015
21:16:38.496,-0.105,-0.01
21:16:38.500,-0.095,-0.035
21:16:38.504,-0.12,-0.01
21:16:38.508,-0.09,-0.03
21:16:38.512,-0.095,-0.025
21:16:38.516,-0.075,-0.005
21:16:38.520,-0.085,-0.025
21:16:38.524,-0.075,-0.005
21:16:38.528,-0.065,0.005
21:16:38.532,-0.07,-0.03
21:16:38.536,-0.08,-0.005
21:16:38.540,-0.075,-0.005
21:16:38.544,-0.05,0.01
21:16:38.548,-0.07,0.005
21:16:38.552,-0.045,0.01
21:16:38.556,-0.07,0.035
21:16:38.560,-0.06,0.015
21:16:38.564,-0.06,0.02
21:16:38.568,-0.07,0.035
21:16:38.572,-0.085,0.01
21:16:38.576,-0.08,0.025
21:16:38.580,-0.075,0.03
21:16:38.584,-0.075,0.035
21:16:38.588,-0.07,0.045
21:16:38.592,-0.055,0.03
21:16:38.596,-0.075,0.015
21:16:38.600,-0.055,0.025
21:16:38.604,-0.06,0.02
21:16:38.608,-0.04,0.03
21:16:38.612,-0.02,0.03
21:16:38.616,0.02,0.045
21:16:38.620,0.055,0.045
21:16:38.624,0.09,0.07
21:16:38.628,0.135,0.07
21:16:38.632,0.155,0.07
21:16:38.636,0.195,0.085
21:16:38.640,0.22,0.08
21:16:38.644,0.2,0.085
21:16:38.648,0.19,0.09
21:16:38.652,0.17,0.07
21:16:38.656,0.115,0.05
21:16:38.660,0.07,0.02
21:16:38.664,0.035,0.0
21:16:38.668,-0.03,0.02
21:16:38.672,-0.075,0.015
21:16:38.676,-0.135,0.03
21:16:38.680,-0.175,0.025
21:16:38.684,-0.2,0.055
21:16:38.688,-0.21,0.045
21:16:38.692,-0.22,0.075
21:16:38.696,-0.22,0.065
21:16:38.700,-0.21,0.045
21:16:38.704,-0.215,0.045
21:16:38.708,-0.205,0.055
21:16:38.712,-0.22,0.03
21:16:38.716,-0.21,0.015
21:16:38.720,-0.205,0.025
21:16:38.724,-0.205,0.035
21:16:38.728,-0.19,0.03
21:16:38.732,-0.19,0.02
21:16:38.736,-0.185,0.02
21:16:38.740,-0.18,0.03
21:16:38.744,-0.185,0.015
21:16:38.748,-0.19,0.03
21:16:38.752,-0.18,0.025
21:16:38.756,-0.185,0.02
21:16:38.760,-0.17,0.02
21:16:38.764,-0.195,0.03
21:16:38.768,-0.16,0.035
21:16:38.772,-0.17,0.025
21:16:38.776,-0.165,0.03
21:16:38.780,-0.155,0.035
21:16:38.784,-0.125,0.04
21:16:38.788,-0.125,0.04
21:16:38.792,-0.1,0.05
21:16:38.796,-0.04,0.025
21:16:38.800,0.03,0.02
21:16:38.804,0.1,0.025
21:16:38.808,0.19,0.01
21:16:38.812,0.25,0.0
21:16:38.816,0.3,-0.045
21:16:38.820,0.31,-0.1
21:16:38.824,0.34,-0.1
21:16:38.828,0.3,-0.1
21:16:38.832,0.3,-0.16
21:16:38.836,0.36,-0.26
21:16:38.840,0.585,-0.42
21:16:38.844,0.9,-0.655
21:16:38.848,1.15,-0.89
21:16:38.852,1.195,-1.09
21:16:38.856,0.955,-1.175
21:16:38.860,0.47,-1.02
21:16:38.864,0.06,-0.65
21:16:38.868,-0.13,-0.31
21:16:38.872,-0.2,-0.125
21:16:38.876,-0.24,0.02
21:16:38.880,-0.235,0.11
21:16:38.884,-0.25,0.135
21:16:38.888,-0.245,0.155
21:16:38.892,-0.25,0.19
21:16:38.896,-0.25,0.17
21:16:38.900,-0.27,0.19
21:16:38.904,-0.28,0.15
21:16:38.908,-0.255,0.14
21:16:38.912,-0.285,0.12
21:16:38.916,-0.27,0.105
21:16:38.920,-0.27,0.135
21:16:38.924,-0.285,0.15
21:16:38.928,-0.29,0.13
21:16:38.932,-0.275,0.115
21:16:38.936,-0.26,0.11
21:16:38.940,-0.3,0.11
21:16:38.944,-0.3,0.095
21:16:38.948,-0.31,0.11
21:16:38.952,-0.31,0.13
21:16:38.956,-0.31,0.125
21:16:38.960,-0.31,0.1
21:16:38.964,-0.32,0.115
21:16:38.968,-0.31,0.115
21:16:38.972,-0.295,0.12
21:16:38.976,-0.31,0.12
21:16:38.980,-0.33,0.115
21:16:38.984,-0.345,0.11
21:16:38.988,-0.33,0.11
21:16:38.992,-0.34,0.13
21:16:38.996,-0.345,0.13
21:16:39.000,-0.32,0.1
21:16:39.004,-0.3,0.115
21:16:39.008,-0.32,0.11
21:16:39.012,-0.31,0.12
21:16:39.016,-0.315,0.115
21:16:39.020,-0.31,0.125
21:16:39.024,-0.305,0.13
21:16:39.028,-0.295,0.115
21:16:39.032,-0.28,0.12
21:16:39.036,-0.26,0.14
21:16:39.040,-0.27,0.14
21:16:39.044,-0.255,0.135
21:16:39.048,-0.255,0.11
21:16:39.052,-0.23,0.1
21:16:39.056,-0.25,0.11
21:16:39.060,-0.22,0.095
21:16:39.064,-0.235,0.075
21:16:39.068,-0.205,0.055
21:16:39.072,-0.2,0.065
21:16:39.076,-0.185,0.045
21:16:39.080,-0.16,0.02
21:16:39.084,-0.15,0.02
21:16:39.088,-0.16,0.01
21:16:39.092,-0.14,0.03
21:16:39.096,-0.135,0.02
21:16:39.100,-0.115,0.01
21:16:39.104,-0.1,0.015
21:16:39.108,-0.095,0.015
21:16:39.112,-0.05,0.0
21:16:39.116,-0.05,0.0
21:16:39.120,-0.035,-0.01
21:16:39.124,-0.025,0.03
21:16:39.128,-0.02,0.015
21:16:39.132,-0.01,0.025
21:16:39.136,0.0,0.035
21:16:39.140,-0.015,0.02
21:16:39.144,-0.01,0.02
21:16:39.148,0.0,0.025
21:16:39.152,0.01,0.03
21:16:39.156,0.0,0.03
21:16:39.160,-0.01,0.04
21:16:39.164,-0.015,0.025
21:16:39.168,-0.02,0.03
21:16:39.172,-0.01,0.06
21:16:39.176,-0.025,0.06
21:16:39.180,-0.02,0.03
21:16:39.184,-0.005,0.06
21:16:39.188,-0.025,0.045
21:16:39.192,-0.02,0.03
21:16:39.196,-0.015,0.05
21:16:39.200,0.01,0.07
21:16:39.204,0.02,0.035
21:16:39.208,0.01,0.075
21:16:39.212,0.015,0.08
21:16:39.216,0.05,0.07
21:16:39.220,0.08,0.085
21:16:39.224,0.12,0.08
21:16:39.228,0.175,0.09
21:16:39.232,0.165,0.095
21:16:39.236,0.19,0.115
21:16:39.240,0.23,0.115
21:16:39.244,0.225,0.13
21:16:39.248,0.23,0.14
21:16:39.252,0.2,0.1
21:16:39.256,0.17,0.07
21:16:39.260,0.13,0.065
21:16:39.264,0.09,0.045
21:16:39.268,0.035,0.06
21:16:39.272,-0.04,0.025
21:16:39.276,-0.105,0.035
21:16:39.280,-0.155,0.04
21:16:39.284,-0.21,0.045
21:16:39.288,-0.2,0.07
21:16:39.292,-0.225,0.05
21:16:39.296,-0.235,0.03
21:16:39.300,-0.22,0.02
21:16:39.304,-0.21,0.02
21:16:39.308,-0.19,0.0
21:16:39.312,-0.21,-0.01
21:16:39.316,-0.2,0.0
21:16:39.320,-0.215,-0.025
21:16:39.324,-0.2,-0.025
21:16:39.328,-0.2,-0.07
21:16:39.332,-0.19,-0.17
21:16:39.336,-0.185,-0.195
21:16:39.340,-0.18,-0.205
21:16:39.344,-0.165,-0.205
21:16:39.348,-0.18,-0.21
21:16:39.352,-0.18,-0.215
21:16:39.356,-0.18,-0.215
21:16:39.360,-0.19,-0.21
21:16:39.364,-0.175,-0.2
21:16:39.368,-0.18,-0.205
21:16:39.372,-0.2,-0.21
21:16:39.376,-0.165,-0.225
21:16:39.380,-0.18,-0.2
21:16:39.384,-0.2,-0.21
21:16:39.388,-0.185,-0.225
21:16:39.392,-0.17,-0.21
21:16:39.396,-0.12,-0.19
21:16:39.400,-0.105,-0.23
21:16:39.404,-0.025,-0.21
21:16:39.408,0.07,-0.235
21:16:39.412,0.14,-0.235
21:16:39.416,0.19,-0.28
21:16:39.420,0.215,-0.32
21:16:39.424,0.255,-0.34
21:16:39.428,0.26,-0.325
21:16:39.432,0.26,-0.34
21:16:39.436,0.235,-0.435
21:16:39.440,0.355,-0.535
21:16:39.444,0.615,-0.665
21:16:39.448,0.94,-0.89
21:16:39.452,1.14,-1.13
21:16:39.456,1.09,-1.325
21:16:39.460,0.785,-1.35
21:16:39.464,0.3,-1.12
21:16:39.468,-0.03,-0.745
21:16:39.472,-0.185,-0.455
21:16:39.476,-0.255,-0.265
21:16:39.480,-0.27,-0.155
21:16:39.484,-0.27,-0.08
21:16:39.488,-0.3,-0.05
21:16:39.492,-0.305,-0.03
21:16:39.496,-0.335,-0.02
21:16:39.500,-0.345,-0.04
21:16:39.504,-0.365,-0.065
21:16:39.508,-0.355,-0.07
21:16:39.512,-0.335,-0.09
21:16:39.516,-0.335,-0.09
21:16:39.520,-0.33,-0.12
21:16:39.524,-0.355,-0.115
21:16:39.528,-0.33,-0.12
21:16:39.532,-0.335,-0.145
21:16:39.536,-0.32,-0.125
21:16:39.540,-0.33,-0.12
21:16:39.544,-0.325,-0.115
21:16:39.548,-0.345,-0.105
21:16:39.552,-0.335,-0.115
21:16:39.556,-0.34,-0.12
21:16:39.560,-0.33,-0.115
21:16:39.564,-0.345,-0.12
21:16:39.568,-0.34,-0.1
21:16:39.572,-0.36,-0.13
21:16:39.576,-0.355,-0.115
21:16:39.580,-0.37,-0.11
21:16:39.584,-0.345,-0.09
21:16:39.588,-0.36,-0.095
21:16:39.592,-0.365,-0.1
21:16:39.596,-0.375,-0.1
21:16:39.600,-0.36,-0.105
21:16:39.604,-0.36,-0.115
21:16:39.608,-0.36,-0.11
21:16:39.612,-0.37,-0.1
21:16:39.616,-0.37,-0.105
21:16:39.620,-0.37,-0.1
21:16:39.624,-0.38,-0.11
21:16:39.628,-0.35,-0.095
21:16:39.632,-0.34,-0.075
21:16:39.636,-0.355,-0.12
21:16:39.640,-0.36,-0.09
21:16:39.644,-0.34,-0.11
21:16:39.648,-0.32,-0.095
21:16:39.652,-0.31,-0.085
21:16:39.656,-0.3,-0.085
21:16:39.660,-0.29,-0.08
21:16:39.664,-0.29,-0.09
21:16:39.668,-0.29,-0.1
21:16:39.672,-0.27,-0.095
21:16:39.676,-0.27,-0.105
21:16:39.680,-0.24,-0.11
21:16:39.684,-0.215,-0.09
21:16:39.688,-0.22,-0.115
21:16:39.692,-0.195,-0.11
21:16:39.696,-0.18,-0.11
21:16:39.700,-0.19,-0.125
21:16:39.704,-0.2,-0.115
21:16:39.708,-0.175,-0.115
21:16:39.712,-0.18,-0.13
21:16:39.716,-0.155,-0.115
21:16:39.720,-0.145,-0.125
21:16:39.724,-0.13,-0.105
21:16:39.728,-0.13,-0.11
21:16:39.732,-0.16,-0.12
21:16:39.736,-0.15,-0.09
21:16:39.740,-0.13,-0.095
21:16:39.744,-0.13,-0.115
21:16:39.748,-0.14,-0.115
21:16:39.752,-0.15,-0.1
21:16:39.756,-0.14,-0.1
21:16:39.760,-0.135,-0.1
21:16:39.764,-0.13,-0.1
21:16:39.768,-0.14,-0.11
21:16:39.772,-0.135,-0.08
21:16:39.776,-0.14,-0.07
21:16:39.780,-0.12,-0.06
21:16:39.784,-0.11,-0.075
21:16:39.788,-0.1,-0.07
21:16:39.792,-0.11,-0.08
21:16:39.796,-0.11,-0.06
21:16:39.800,-0.1,-0.05
21:16:39.804,-0.085,-0.065
21:16:39.808,-0.08,-0.07
21:16:39.812,-0.09,-0.06
21:16:39.816,-0.05,-0.06
21:16:39.820,-0.02,-0.04
21:16:39.824,0.04,-0.04
21:16:39.828,0.045,-0.03
21:16:39.832,0.08,-0.015
21:16:39.836,0.13,0.0
21:16:39.840,0.125,0.005
21:16:39.844,0.135,0.0
21:16:39.848,0.15,0.0
21:16:39.852,0.13,0.015
21:16:39.856,0.095,-0.01
21:16:39.860,0.04,-0.035
21:16:39.864,-0.005,-0.085
21:16:39.868,-0.06,-0.09
21:16:39.872,-0.09,-0.12
21:16:39.876,-0.16,-0.12
21:16:39.880,-0.21,-0.13
21:16:39.884,-0.255,-0.09
21:16:39.888,-0.305,-0.09
21:16:39.892,-0.305,-0.09
21:16:39.896,-0.3,-0.095
21:16:39.900,-0.29,-0.08
21:16:39.904,-0.275,-0.09
21:16:39.908,-0.265,-0.105
21:16:39.912,-0.265,-0.105
21:16:39.916,-0.25,-0.11
21:16:39.920,-0.245,-0.135
21:16:39.924,-0.245,-0.15
21:16:39.928,-0.24,-0.12
21:16:39.932,-0.23,-0.13
21:16:39.936,-0.245,-0.155
21:16:39.940,-0.24,-0.12
21:16:39.944,-0.24,-0.13
21:16:39.948,-0.245,-0.15
21:16:39.952,-0.27,-0.16
21:16:39.956,-0.245,-0.165
21:16:39.960,-0.255,-0.16
21:16:39.964,-0.245,-0.17
21:16:39.968,-0.235,-0.19
21:16:39.972,-0.24,-0.185
21:16:39.976,-0.235,-0.21
21:16:39.980,-0.245,-0.2
21:16:39.984,-0.27,-0.215
21:16:39.988,-0.25,-0.215
21:16:39.992,-0.215,-0.22
21:16:39.996,-0.19,-0.23
21:16:40.000,-0.15,-0.21
21:16:40.004,-0.095,-0.23
21:16:40.008,-0.015,-0.245
21:16:40.012,0.1,-0.25
21:16:40.016,0.18,-0.27
21:16:40.020,0.25,-0.29
21:16:40.024,0.305,-0.325
21:16:40.028,0.37,-0.34
21:16:40.032,0.385,-0.31
21:16:40.036,0.36,-0.34
21:16:40.040,0.375,-0.39
21:16:40.044,0.51,-0.465
21:16:40.048,0.77,-0.655
21:16:40.052,1.065,-0.905
21:16:40.056,1.145,-1.115
21:16:40.060,0.98,-1.275
21:16:40.064,0.555,-1.225
21:16:40.068,0.12,-0.955
21:16:40.072,-0.125,-0.62
21:16:40.076,-0.23,-0.42
21:16:40.080,-0.27,-0.31
21:16:40.084,-0.28,-0.2
21:16:40.088,-0.295,-0.125
21:16:40.092,-0.34,-0.14
21:16:40.096,-0.34,-0.11
21:16:40.100,-0.36,-0.135
21:16:40.104,-0.355,-0.19
21:16:40.108,-0.38,-0.175
21:16:40.112,-0.4,-0.215
21:16:40.116,-0.405,-0.235
21:16:40.120,-0.41,-0.22
21:16:40.124,-0.405,-0.235
21:16:40.128,-0.39,-0.245
21:16:40.132,-0.375,-0.235
21:16:40.136,-0.37,-0.225
21:16:40.140,-0.385,-0.23
21:16:40.144,-0.385,-0.26
21:16:40.148,-0.36,-0.255
21:16:40.152,-0.39,-0.245
21:16:40.156,-0.39,-0.26
21:16:40.160,-0.405,-0.25
21:16:40.164,-0.41,-0.245
21:16:40.168,-0.41,-0.26
21:16:40.172,-0.4,-0.28
21:16:40.176,-0.415,-0.26
21:16:40.180,-0.45,-0.255
21:16:40.184,-0.43,-0.28
21:16:40.188,-0.41,-0.28
21:16:40.192,-0.42,-0.29
21:16:40.196,-0.455,-0.285
21:16:40.200,-0.45,-0.29
21:16:40.204,-0.48,-0.28
21:16:40.208,-0.46,-0.285
21:16:40.212,-0.44,-0.305
21:16:40.216,-0.46,-0.29
21:16:40.220,-0.455,-0.3
21:16:40.224,-0.44,-0.305
21:16:40.228,-0.46,-0.32
21:16:40.232,-0.44,-0.315
21:16:40.236,-0.41,-0.335
21:16:40.240,-0.41,-0.315
21:16:40.244,-0.41,-0.325
21:16:40.248,-0.41,-0.325
21:16:40.252,-0.39,-0.3
21:16:40.256,-0.385,-0.33
21:16:40.260,-0.355,-0.335
21:16:40.264,-0.355,-0.335
21:16:40.268,-0.34,-0.345
21:16:40.272,-0.33,-0.345
21:16:40.276,-0.315,-0.375
21:16:40.280,-0.33,-0.36
21:16:40.284,-0.31,-0.36
21:16:40.288,-0.29,-0.39
21:16:40.292,-0.28,-0.385
21:16:40.296,-0.275,-0.36
21:16:40.300,-0.285,-0.375
21:16:40.304,-0.265,-0.385
21:16:40.308,-0.255,-0.385
21:16:40.312,-0.25,-0.405
21:16:40.316,-0.245,-0.425
21:16:40.320,-0.235,-0.405
21:16:40.324,-0.21,-0.405
21:16:40.328,-0.195,-0.39
21:16:40.332,-0.22,-0.4
21:16:40.336,-0.2,-0.4
21:16:40.340,-0.2,-0.4
21:16:40.344,-0.19,-0.385
21:16:40.348,-0.195,-0.38
21:16:40.352,-0.165,-0.37
21:16:40.356,-0.185,-0.395
21:16:40.360,-0.15,-0.38
21:16:40.364,-0.15,-0.37
21:16:40.368,-0.16,-0.375
21:16:40.372,-0.155,-0.375
21:16:40.376,-0.155,-0.37
21:16:40.380,-0.155,-0.365
21:16:40.384,-0.18,-0.34
21:16:40.388,-0.17,-0.345
21:16:40.392,-0.165,-0.335
21:16:40.396,-0.155,-0.32
21:16:40.400,-0.16,-0.335
21:16:40.404,-0.155,-0.315
21:16:40.408,-0.16,-0.32
21:16:40.412,-0.17,-0.32
21:16:40.416,-0.15,-0.315
21:16:40.420,-0.15,-0.345
21:16:40.424,-0.13,-0.335
21:16:40.428,-0.11,-0.32
21:16:40.432,-0.135,-0.315
21:16:40.436,-0.1,-0.315
21:16:40.440,-0.08,-0.29
21:16:40.444,-0.02,-0.28
21:16:40.448,0.025,-0.275
21:16:40.452,0.065,-0.255
21:16:40.456,0.095,-0.255
21:16:40.460,0.14,-0.245
21:16:40.464,0.15,-0.235
21:16:40.468,0.145,-0.23
21:16:40.472,0.165,-0.215
21:16:40.476,0.145,-0.24
21:16:40.480,0.11,-0.245
21:16:40.484,0.035,-0.26
21:16:40.488,0.01,-0.27
21:16:40.492,-0.065,-0.24
21:16:40.496,-0.13,-0.245
21:16:40.500,-0.195,-0.26
21:16:40.504,-0.22,-0.215
21:16:40.508,-0.26,-0.235
21:16:40.512,-0.27,-0.21
21:16:40.516,-0.24,-0.205
21:16:40.520,-0.265,-0.215
21:16:40.524,-0.275,-0.21
21:16:40.528,-0.275,-0.225
21:16:40.532,-0.245,-0.205
21:16:40.536,-0.25,-0.225
21:16:40.540,-0.25,-0.235
21:16:40.544,-0.25,-0.225
21:16:40.548,-0.245,-0.225
21:16:40.552,-0.225,-0.23
21:16:40.556,-0.215,-0.205
21:16:40.560,-0.21,-0.21
21:16:40.564,-0.22,-0.23
21:16:40.568,-0.23,-0.235
21:16:40.572,-0.205,-0.225
21:16:40.576,-0.205,-0.215
21:16:40.580,-0.205,-0.225
21:16:40.584,-0.205,-0.21
21:16:40.588,-0.19,-0.2
21:16:40.592,-0.18,-0.205
21:16:40.596,-0.17,-0.205
21:16:40.600,-0.165,-0.185
21:16:40.604,-0.145,-0.2
21:16:40.608,-0.13,-0.19
21:16:40.612,-0.15,-0.195
21:16:40.616,-0.135,-0.17
21:16:40.620,-0.095,-0.18
21:16:40.624,-0.025,-0.16
21:16:40.628,0.075,-0.2
21:16:40.632,0.13,-0.2
21:16:40.636,0.22,-0.23
21:16:40.640,0.28,-0.26
21:16:40.644,0.325,-0.31
21:16:40.648,0.36,-0.34
21:16:40.652,0.375,-0.335
21:16:40.656,0.36,-0.345
21:16:40.660,0.345,-0.42
21:16:40.664,0.475,-0.51
21:16:40.668,0.735,-0.68
21:16:40.672,1.04,-0.9
21:16:40.676,1.225,-1.125
21:16:40.680,1.12,-1.275
21:16:40.684,0.75,-1.295
21:16:40.688,0.285,-1.07
21:16:40.692,-0.04,-0.705
21:16:40.696,-0.18,-0.445
21:16:40.700,-0.22,-0.28
21:16:40.704,-0.23,-0.18
21:16:40.708,-0.225,-0.11
21:16:40.712,-0.255,-0.045
21:16:40.716,-0.275,-0.035
21:16:40.720,-0.28,-0.02
21:16:40.724,-0.295,-0.03
21:16:40.728,-0.295,-0.04
21:16:40.732,-0.315,-0.06
21:16:40.736,-0.3,-0.09
21:16:40.740,-0.305,-0.09
21:16:40.744,-0.315,-0.075
21:16:40.748,-0.305,-0.08
21:16:40.752,-0.305,-0.09
21:16:40.756,-0.31,-0.11
21:16:40.760,-0.315,-0.095
21:16:40.764,-0.34,-0.095
21:16:40.768,-0.33,-0.11
21:16:40.772,-0.325,-0.105
21:16:40.776,-0.32,-0.095
21:16:40.780,-0.335,-0.125
21:16:40.784,-0.315,-0.135
21:16:40.788,-0.335,-0.135
21:16:40.792,-0.345,-0.135
21:16:40.796,-0.345,-0.135
21:16:40.800,-0.34,-0.13
21:16:40.804,-0.34,-0.125
21:16:40.808,-0.35,-0.125
21:16:40.812,-0.355,-0.105
21:16:40.816,-0.355,-0.115
21:16:40.820,-0.35,-0.125
21:16:40.824,-0.345,-0.13
21:16:40.828,-0.34,-0.12
21:16:40.832,-0.315,-0.11
21:16:40.836,-0.32,-0.12
21:16:40.840,-0.33,-0.115
21:16:40.844,-0.32,-0.115
21:16:40.848,-0.32,-0.105
21:16:40.852,-0.325,-0.1
21:16:40.856,-0.305,-0.115
21:16:40.860,-0.32,-0.105
21:16:40.864,-0.285,-0.1
21:16:40.868,-0.285,-0.1
21:16:40.872,-0.275,-0.11
21:16:40.876,-0.29,-0.12
21:16:40.880,-0.27,-0.115
21:16:40.884,-0.275,-0.125
21:16:40.888,-0.25,-0.13
21:16:40.892,-0.235,-0.14
21:16:40.896,-0.235,-0.16
21:16:40.900,-0.225,-0.15
21:16:40.904,-0.19,-0.17
21:16:40.908,-0.185,-0.18
21:16:40.912,-0.19,-0.165
21:16:40.916,-0.175,-0.175
21:16:40.920,-0.175,-0.21
21:16:40.924,-0.14,-0.195
21:16:40.928,-0.135,-0.21
21:16:40.932,-0.125,-0.22
21:16:40.936,-0.11,-0.205
21:16:40.940,-0.1,-0.21
21:16:40.944,-0.085,-0.205
21:16:40.948,-0.09,-0.205
21:16:40.952,-0.08,-0.215
21:16:40.956,-0.075,-0.2
21:16:40.960,-0.065,-0.2
21:16:40.964,-0.07,-0.19
21:16:40.968,-0.08,-0.175
21:16:40.972,-0.06,-0.205
21:16:40.976,-0.075,-0.205
21:16:40.980,-0.07,-0.195
21:16:40.984,-0.08,-0.2
21:16:40.988,-0.105,-0.195
21:16:40.992,-0.09,-0.19
21:16:40.996,-0.09,-0.175
21:16:41.000,-0.105,-0.175
21:16:41.004,-0.08,-0.175
21:16:41.008,-0.09,-0.175
21:16:41.012,-0.075,-0.205
21:16:41.016,-0.09,-0.215
21:16:41.020,-0.065,-0.18
21:16:41.024,-0.065,-0.185
21:16:41.028,-0.085,-0.195
21:16:41.032,-0.06,-0.165
21:16:41.036,-0.025,-0.16
21:16:41.040,-0.04,-0.175
21:16:41.044,-0.005,-0.145
21:16:41.048,-0.01,-0.145
21:16:41.052,0.04,-0.14
21:16:41.056,0.085,-0.125
21:16:41.060,0.125,-0.11
21:16:41.064,0.15,-0.1
21:16:41.068,0.165,-0.095
21:16:41.072,0.2,-0.095
21:16:41.076,0.195,-0.085
21:16:41.080,0.205,-0.075
21:16:41.084,0.185,-0.085
21:16:41.088,0.145,-0.1
21:16:41.092,0.095,-0.13
21:16:41.096,0.045,-0.15
21:16:41.100,-0.01,-0.155
21:16:41.104,-0.065,-0.16
21:16:41.108,-0.13,-0.17
21:16:41.112,-0.175,-0.155
21:16:41.116,-0.21,-0.15
21:16:41.120,-0.24,-0.15
21:16:41.124,-0.245,-0.15
21:16:41.128,-0.26,-0.145
21:16:41.132,-0.24,-0.16
21:16:41.136,-0.23,-0.185
21:16:41.140,-0.23,-0.17
21:16:41.144,-0.225,-0.185
21:16:41.148,-0.215,-0.19
21:16:41.152,-0.245,-0.17
21:16:41.156,-0.225,-0.145
21:16:41.160,-0.2,-0.175
21:16:41.164,-0.185,-0.185
21:16:41.168,-0.19,-0.17
21:16:41.172,-0.195,-0.155
21:16:41.176,-0.19,-0.17
21:16:41.180,-0.19,-0.175
21:16:41.184,-0.19,-0.165
21:16:41.188,-0.2,-0.155
21:16:41.192,-0.195,-0.16
21:16:41.196,-0.19,-0.16
21:16:41.200,-0.195,-0.17
21:16:41.204,-0.19,-0.15
21:16:41.208,-0.2,-0.16
21:16:41.212,-0.195,-0.175
21:16:41.216,-0.2,-0.14
21:16:41.220,-0.21,-0.19
21:16:41.224,-0.19,-0.155
21:16:41.228,-0.14,-0.18
21:16:41.232,-0.1,-0.175
21:16:41.236,-0.035,-0.195
21:16:41.240,0.04,-0.205
21:16:41.244,0.135,-0.21
21:16:41.248,0.175,-0.23
21:16:41.252,0.22,-0.27
21:16:41.256,0.235,-0.305
21:16:41.260,0.275,-0.32
21:16:41.264,0.275,-0.315
21:16:41.268,0.245,-0.35
21:16:41.272,0.3,-0.455
21:16:41.276,0.515,-0.605
21:16:41.280,0.81,-0.775
21:16:41.284,1.065,-1.01
21:16:41.288,1.165,-1.265
21:16:41.292,0.99,-1.36
21:16:41.296,0.555,-1.26
21:16:41.300,0.12,-0.95
21:16:41.304,-0.11,-0.57
21:16:41.308,-0.265,-0.345
21:16:41.312,-0.295,-0.205
21:16:41.316,-0.32,-0.11
21:16:41.320,-0.315,-0.065
21:16:41.324,-0.33,-0.045
21:16:41.328,-0.35,-0.035
21:16:41.332,-0.36,-0.04
21:16:41.336,-0.36,-0.07
21:16:41.340,-0.37,-0.08
21:16:41.344,-0.38,-0.08
21:16:41.348,-0.375,-0.105
21:16:41.352,-0.37,-0.105
21:16:41.356,-0.385,-0.13
21:16:41.360,-0.39,-0.13
21:16:41.364,-0.365,-0.1
21:16:41.368,-0.38,-0.11
21:16:41.372,-0.39,-0.135
21:16:41.376,-0.375,-0.115
21:16:41.380,-0.4,-0.105
21:16:41.384,-0.375,-0.11
21:16:41.388,-0.385,-0.105
21:16:41.392,-0.375,-0.11
21:16:41.396,-0.375,-0.11
21:16:41.400,-0.39,-0.12
21:16:41.404,-0.39,-0.105
21:16:41.408,-0.38,-0.1
21:16:41.412,-0.38,-0.1
21:16:41.416,-0.385,-0.115
21:16:41.420,-0.38,-0.1
21:16:41.424,-0.405,-0.1
21:16:41.428,-0.395,-0.125
21:16:41.432,-0.415,-0.075
21:16:41.436,-0.42,-0.105
21:16:41.440,-0.42,-0.115
21:16:41.444,-0.445,-0.11
21:16:41.448,-0.445,-0.11
21:16:41.452,-0.425,-0.08
21:16:41.456,-0.41,-0.095
21:16:41.460,-0.4,-0.1
21:16:41.464,-0.41,-0.1
21:16:41.468,-0.395,-0.135
21:16:41.472,-0.385,-0.12
21:16:41.476,-0.37,-0.12
21:16:41.480,-0.375,-0.115
21:16:41.484,-0.37,-0.11
21:16:41.488,-0.345,-0.125
21:16:41.492,-0.335,-0.125
21:16:41.496,-0.335,-0.13
21:16:41.500,-0.31,-0.125
21:16:41.504,-0.29,-0.125
21:16:41.508,-0.28,-0.12
21:16:41.512,-0.265,-0.155
21:16:41.516,-0.255,-0.13
21:16:41.520,-0.235,-0.15
21:16:41.524,-0.225,-0.145
21:16:41.528,-0.225,-0.135
21:16:41.532,-0.225,-0.165
21:16:41.536,-0.215,-0.155
21:16:41.540,-0.195,-0.16
21:16:41.544,-0.18,-0.18
21:16:41.548,-0.16,-0.175
21:16:41.552,-0.155,-0.165
21:16:41.556,-0.15,-0.18
21:16:41.560,-0.145,-0.155
21:16:41.564,-0.16,-0.17
21:16:41.568,-0.145,-0.17
21:16:41.572,-0.145,-0.145
21:16:41.576,-0.16,-0.16
21:16:41.580,-0.155,-0.14
21:16:41.584,-0.145,-0.16
21:16:41.588,-0.135,-0.11
21:16:41.592,-0.115,-0.105
21:16:41.596,-0.145,-0.105
21:16:41.600,-0.145,-0.105
21:16:41.604,-0.165,-0.115
21:16:41.608,-0.18,-0.115
21:16:41.612,-0.16,-0.105
21:16:41.616,-0.135,-0.08
21:16:41.620,-0.145,-0.105
21:16:41.624,-0.135,-0.1
21:16:41.628,-0.125,-0.09
21:16:41.632,-0.125,-0.075
21:16:41.636,-0.1,-0.08
21:16:41.640,-0.105,-0.06
21:16:41.644,-0.08,-0.05
21:16:41.648,-0.12,-0.065
21:16:41.652,-0.1,-0.055
21:16:41.656,-0.065,-0.035
21:16:41.660,-0.005,-0.05
21:16:41.664,0.025,-0.035
21:16:41.668,0.03,-0.005
21:16:41.672,0.065,-0.03
21:16:41.676,0.09,-0.01
21:16:41.680,0.095,-0.02
21:16:41.684,0.095,-0.025
21:16:41.688,0.075,-0.03
21:16:41.692,0.035,-0.025
21:16:41.696,0.0,-0.09
21:16:41.700,-0.065,-0.1
21:16:41.704,-0.13,-0.125
21:16:41.708,-0.195,-0.105
21:16:41.712,-0.24,-0.1
21:16:41.716,-0.295,-0.09
21:16:41.720,-0.32,-0.065
21:16:41.724,-0.35,-0.085
21:16:41.728,-0.345,-0.095
21:16:41.732,-0.33,-0.07
21:16:41.736,-0.315,-0.09
21:16:41.740,-0.305,-0.09
21:16:41.744,-0.31,-0.08
21:16:41.748,-0.29,-0.075
21:16:41.752,-0.315,-0.09
21:16:41.756,-0.305,-0.085
21:16:41.760,-0.305,-0.095
21:16:41.764,-0.325,-0.08
21:16:41.768,-0.275,-0.055
21:16:41.772,-0.295,-0.07
21:16:41.776,-0.3,-0.08
21:16:41.780,-0.305,-0.1
21:16:41.784,-0.3,-0.085
21:16:41.788,-0.295,-0.08
21:16:41.792,-0.31,-0.085
21:16:41.796,-0.32,-0.09
21:16:41.800,-0.31,-0.1
21:16:41.804,-0.295,-0.1
21:16:41.808,-0.305,-0.115
21:16:41.812,-0.305,-0.125
21:16:41.816,-0.29,-0.145
21:16:41.820,-0.28,-0.13
21:16:41.824,-0.285,-0.135
21:16:41.828,-0.25,-0.12
21:16:41.832,-0.24,-0.125
21:16:41.836,-0.19,-0.135
21:16:41.840,-0.11,-0.13
21:16:41.844,-0.01,-0.155
21:16:41.848,0.095,-0.14
21:16:41.852,0.18,-0.18
21:16:41.856,0.225,-0.195
21:16:41.860,0.245,-0.225
21:16:41.864,0.28,-0.235
21:16:41.868,0.285,-0.245
21:16:41.872,0.26,-0.275
21:16:41.876,0.335,-0.345
21:16:41.880,0.55,-0.465
21:16:41.884,0.82,-0.675
21:16:41.888,1.055,-0.925
21:16:41.892,1.05,-1.16
21:16:41.896,0.765,-1.24
21:16:41.900,0.3,-1.115
21:16:41.904,-0.075,-0.785
21:16:41.908,-0.25,-0.48
21:16:41.912,-0.305,-0.31
21:16:41.916,-0.315,-0.17
21:16:41.920,-0.345,-0.075
21:16:41.924,-0.375,-0.04
21:16:41.928,-0.405,-0.01
21:16:41.932,-0.42,-0.015
21:16:41.936,-0.44,-0.025
21:16:41.940,-0.44,-0.055
21:16:41.944,-0.44,-0.085
21:16:41.948,-0.44,-0.08
21:16:41.952,-0.44,-0.1
21:16:41.956,-0.445,-0.11
21:16:41.960,-0.425,-0.09
21:16:41.964,-0.43,-0.105
21:16:41.968,-0.435,-0.115
21:16:41.972,-0.445,-0.115
21:16:41.976,-0.435,-0.105
21:16:41.980,-0.445,-0.09
21:16:41.984,-0.435,-0.095
21:16:41.988,-0.46,-0.1
21:16:41.992,-0.445,-0.1
21:16:41.996,-0.46,-0.115
21:16:42.000,-0.47,-0.115
21:16:42.004,-0.48,-0.12
21:16:42.008,-0.45,-0.12
21:16:42.012,-0.5,-0.135
21:16:42.016,-0.495,-0.13
21:16:42.020,-0.505,-0.135
21:16:42.024,-0.485,-0.16
21:16:42.028,-0.485,-0.15
21:16:42.032,-0.485,-0.145
21:16:42.036,-0.48,-0.18
21:16:42.040,-0.495,-0.165
21:16:42.044,-0.49,-0.18
21:16:42.048,-0.495,-0.185
21:16:42.052,-0.5,-0.16
21:16:42.056,-0.515,-0.16
21:16:42.060,-0.5,-0.16
21:16:42.064,-0.47,-0.155
21:16:42.068,-0.455,-0.175
21:16:42.072,-0.42,-0.175
21:16:42.076,-0.425,-0.145
21:16:42.080,-0.42,-0.175
21:16:42.084,-0.44,-0.175
21:16:42.088,-0.415,-0.175
21:16:42.092,-0.41,-0.205
21:16:42.096,-0.39,-0.185
21:16:42.100,-0.39,-0.18
21:16:42.104,-0.37,-0.2
21:16:42.108,-0.365,-0.2
21:16:42.112,-0.35,-0.21
21:16:42.116,-0.35,-0.215
21:16:42.120,-0.36,-0.245
21:16:42.124,-0.345,-0.235
21:16:42.128,-0.34,-0.235
21:16:42.132,-0.325,-0.235
21:16:42.136,-0.31,-0.24
21:16:42.140,-0.285,-0.255
21:16:42.144,-0.29,-0.27
21:16:42.148,-0.28,-0.275
21:16:42.152,-0.27,-0.28
21:16:42.156,-0.26,-0.26
21:16:42.160,-0.24,-0.26
21:16:42.164,-0.245,-0.25
21:16:42.168,-0.255,-0.255
21:16:42.172,-0.255,-0.25
21:16:42.176,-0.215,-0.245
21:16:42.180,-0.215,-0.24
21:16:42.184,-0.2,-0.265
21:16:42.188,-0.195,-0.265
21:16:42.192,-0.2,-0.24
21:16:42.196,-0.205,-0.23
21:16:42.200,-0.205,-0.235
21:16:42.204,-0.195,-0.22
21:16:42.208,-0.195,-0.23
21:16:42.212,-0.19,-0.225
21:16:42.216,-0.195,-0.225
21:16:42.220,-0.19,-0.215
21:16:42.224,-0.195,-0.245
21:16:42.228,-0.2,-0.23
21:16:42.232,-0.22,-0.235
21:16:42.236,-0.205,-0.225
21:16:42.240,-0.185,-0.22
21:16:42.244,-0.16,-0.245
21:16:42.248,-0.16,-0.25
21:16:42.252,-0.15,-0.25
21:16:42.256,-0.14,-0.24
21:16:42.260,-0.1,-0.23
21:16:42.264,-0.05,-0.235
21:16:42.268,-0.03,-0.24
21:16:42.272,0.01,-0.21
21:16:42.276,0.03,-0.22
21:16:42.280,0.075,-0.205
21:16:42.284,0.1,-0.175
21:16:42.288,0.11,-0.175
21:16:42.292,0.125,-0.175
21:16:42.296,0.09,-0.19
21:16:42.300,0.045,-0.22
21:16:42.304,0.0,-0.265
21:16:42.308,-0.03,-0.255
21:16:42.312,-0.1,-0.275
21:16:42.316,-0.185,-0.27
21:16:42.320,-0.25,-0.265
21:16:42.324,-0.28,-0.255
21:16:42.328,-0.315,-0.255
21:16:42.332,-0.33,-0.255
21:16:42.336,-0.315,-0.255
21:16:42.340,-0.315,-0.26
21:16:42.344,-0.31,-0.265
21:16:42.348,-0.315,-0.28
21:16:42.352,-0.315,-0.28
21:16:42.356,-0.305,-0.26
21:16:42.360,-0.295,-0.26
21:16:42.364,-0.295,-0.285
21:16:42.368,-0.29,-0.3
21:16:42.372,-0.275,-0.295
21:16:42.376,-0.265,-0.29
21:16:42.380,-0.27,-0.28
21:16:42.384,-0.275,-0.275
21:16:42.388,-0.275,-0.3
21:16:42.392,-0.275,-0.275
21:16:42.396,-0.27,-0.29
21:16:42.400,-0.265,-0.28
21:16:42.404,-0.26,-0.27
21:16:42.408,-0.24,-0.28
21:16:42.412,-0.225,-0.27
21:16:42.416,-0.21,-0.275
21:16:42.420,-0.215,-0.265
21:16:42.424,-0.195,-0.265
21:16:42.428,-0.205,-0.265
21:16:42.432,-0.2,-0.275
21:16:42.436,-0.175,-0.265
21:16:42.440,-0.155,-0.255
21:16:42.444,-0.08,-0.255
21:16:42.448,-0.005,-0.255
21:16:42.452,0.09,-0.26
21:16:42.456,0.18,-0.29
21:16:42.460,0.215,-0.315
21:16:42.464,0.28,-0.36
21:16:42.468,0.335,-0.38
21:16:42.472,0.36,-0.37
21:16:42.476,0.32,-0.41
21:16:42.480,0.33,-0.47
21:16:42.484,0.485,-0.55
21:16:42.488,0.75,-0.715
21:16:42.492,1.04,-0.93
21:16:42.496,1.22,-1.15
21:16:42.500,1.115,-1.325
21:16:42.504,0.71,-1.325
21:16:42.508,0.235,-1.06
21:16:42.512,-0.055,-0.72
21:16:42.516,-0.215,-0.48
21:16:42.520,-0.25,-0.325
21:16:42.524,-0.265,-0.215
21:16:42.528,-0.265,-0.135
21:16:42.532,-0.285,-0.065
21:16:42.536,-0.3,-0.05
21:16:42.540,-0.32,-0.035
21:16:42.544,-0.315,-0.065
21:16:42.548,-0.335,-0.08
21:16:42.552,-0.325,-0.09
21:16:42.556,-0.34,-0.125
21:16:42.560,-0.335,-0.14
21:16:42.564,-0.335,-0.155
21:16:42.568,-0.35,-0.145
21:16:42.572,-0.365,-0.16
21:16:42.576,-0.385,-0.14
21:16:42.580,-0.385,-0.16
21:16:42.584,-0.385,-0.17
21:16:42.588,-0.375,-0.155
21:16:42.592,-0.36,-0.13
21:16:42.596,-0.365,-0.16
21:16:42.600,-0.37,-0.175
21:16:42.604,-0.37,-0.15
21:16:42.608,-0.375,-0.155
21:16:42.612,-0.365,-0.16
21:16:42.616,-0.385,-0.155
21:16:42.620,-0.39,-0.175
21:16:42.624,-0.39,-0.16
21:16:42.628,-0.395,-0.15
21:16:42.632,-0.39,-0.155
21:16:42.636,-0.39,-0.15
21:16:42.640,-0.375,-0.145
21:16:42.644,-0.38,-0.145
21:16:42.648,-0.385,-0.135
21:16:42.652,-0.385,-0.135
21:16:42.656,-0.37,-0.145
21:16:42.660,-0.375,-0.135
21:16:42.664,-0.375,-0.135
21:16:42.668,-0.385,-0.135
21:16:42.672,-0.38,-0.14
21:16:42.676,-0.36,-0.135
21:16:42.680,-0.35,-0.135
21:16:42.684,-0.36,-0.16
21:16:42.688,-0.335,-0.14
21:16:42.692,-0.34,-0.125
21:16:42.696,-0.34,-0.16
21:16:42.700,-0.32,-0.17
21:16:42.704,-0.32,-0.155
21:16:42.708,-0.31,-0.19
21:16:42.712,-0.275,-0.18
21:16:42.716,-0.28,-0.185
21:16:42.720,-0.265,-0.195
21:16:42.724,-0.25,-0.215
21:16:42.728,-0.24,-0.22
21:16:42.732,-0.21,-0.2
21:16:42.736,-0.215,-0.2
21:16:42.740,-0.21,-0.215
21:16:42.744,-0.19,-0.205
21:16:42.748,-0.175,-0.23
21:16:42.752,-0.16,-0.225
21:16:42.756,-0.16,-0.225
21:16:42.760,-0.12,-0.22
21:16:42.764,-0.13,-0.23
21:16:42.768,-0.105,-0.215
21:16:42.772,-0.115,-0.225
21:16:42.776,-0.105,-0.19
21:16:42.780,-0.09,-0.185
21:16:42.784,-0.095,-0.19
21:16:42.788,-0.08,-0.2
21:16:42.792,-0.095,-0.175
21:16:42.796,-0.09,-0.185
21:16:42.800,-0.11,-0.16
21:16:42.804,-0.09,-0.185
21:16:42.808,-0.125,-0.16
21:16:42.812,-0.105,-0.165
21:16:42.816,-0.09,-0.17
21:16:42.820,-0.09,-0.17
21:16:42.824,-0.11,-0.19
21:16:42.828,-0.105,-0.165
21:16:42.832,-0.095,-0.14
21:16:42.836,-0.1,-0.175
21:16:42.840,-0.115,-0.135
21:16:42.844,-0.095,-0.14
21:16:42.848,-0.1,-0.145
21:16:42.852,-0.11,-0.14
21:16:42.856,-0.07,-0.135
21:16:42.860,-0.04,-0.13
21:16:42.864,-0.05,-0.13
21:16:42.868,-0.025,-0.145
21:16:42.872,0.0,-0.125
21:16:42.876,0.02,-0.1
21:16:42.880,0.07,-0.07
21:16:42.884,0.1,-0.065
21:16:42.888,0.13,-0.05
21:16:42.892,0.145,-0.05
21:16:42.896,0.18,-0.065
21:16:42.900,0.19,-0.065
21:16:42.904,0.165,-0.05
21:16:42.908,0.185,-0.075
21:16:42.912,0.16,-0.095
21:16:42.916,0.115,-0.12
21:16:42.920,0.07,-0.125
21:16:42.924,0.005,-0.16
21:16:42.928,-0.035,-0.135
21:16:42.932,-0.105,-0.145
21:16:42.936,-0.17,-0.16
21:16:42.940,-0.21,-0.14
21:16:42.944,-0.22,-0.135
21:16:42.948,-0.22,-0.12
21:16:42.952,-0.23,-0.135
21:16:42.956,-0.24,-0.125
21:16:42.960,-0.225,-0.13
21:16:42.964,-0.23,-0.15
21:16:42.968,-0.215,-0.14
21:16:42.972,-0.215,-0.12
21:16:42.976,-0.2,-0.135
21:16:42.980,-0.19,-0.16
21:16:42.984,-0.195,-0.135
21:16:42.988,-0.175,-0.14
21:16:42.992,-0.175,-0.16
21:16:42.996,-0.185,-0.145
21:16:43.000,-0.185,-0.15
21:16:43.004,-0.185,-0.16
21:16:43.008,-0.18,-0.15
21:16:43.012,-0.18,-0.155
21:16:43.016,-0.19,-0.155
21:16:43.020,-0.185,-0.15
21:16:43.024,-0.18,-0.175
21:16:43.028,-0.2,-0.15
21:16:43.032,-0.205,-0.15
21:16:43.036,-0.195,-0.155
21:16:43.040,-0.2,-0.165
21:16:43.044,-0.165,-0.16
21:16:43.048,-0.165,-0.165
21:16:43.052,-0.155,-0.19
21:16:43.056,-0.1,-0.175
21:16:43.060,-0.035,-0.195
21:16:43.064,0.055,-0.18
21:16:43.068,0.145,-0.2
21:16:43.072,0.215,-0.22
21:16:43.076,0.25,-0.25
21:16:43.080,0.27,-0.275
21:16:43.084,0.305,-0.295
21:16:43.088,0.305,-0.31
21:16:43.092,0.285,-0.35
21:16:43.096,0.35,-0.45
21:16:43.100,0.58,-0.58
21:16:43.104,0.885,-0.795
21:16:43.108,1.125,-1.025
21:16:43.112,1.18,-1.245
21:16:43.116,0.91,-1.365
21:16:43.120,0.46,-1.175
21:16:43.124,0.045,-0.805
21:16:43.128,-0.16,-0.49
21:16:43.132,-0.235,-0.27
21:16:43.136,-0.27,-0.15
21:16:43.140,-0.265,-0.08
21:16:43.144,-0.3,-0.03
21:16:43.148,-0.32,0.0
21:16:43.152,-0.33,-0.01
21:16:43.156,-0.345,-0.005
21:16:43.160,-0.345,-0.02
21:16:43.164,-0.335,-0.045
21:16:43.168,-0.32,-0.07
21:16:43.172,-0.32,-0.06
21:16:43.176,-0.335,-0.07
21:16:43.180,-0.34,-0.075
21:16:43.184,-0.335,-0.06
21:16:43.188,-0.33,-0.075
21:16:43.192,-0.335,-0.09
21:16:43.196,-0.335,-0.075
21:16:43.200,-0.335,-0.06
21:16:43.204,-0.315,-0.045
21:16:43.208,-0.29,-0.07
21:16:43.212,-0.305,-0.055
21:16:43.216,-0.315,-0.055
21:16:43.220,-0.31,-0.065
21:16:43.224,-0.315,-0.065
21:16:43.228,-0.33,-0.07
21:16:43.232,-0.315,-0.05
21:16:43.236,-0.32,-0.055
21:16:43.240,-0.33,-0.06
21:16:43.244,-0.31,-0.045
21:16:43.248,-0.335,-0.06
21:16:43.252,-0.34,-0.05
21:16:43.256,-0.35,-0.07
21:16:43.260,-0.365,-0.055
21:16:43.264,-0.36,-0.06
21:16:43.268,-0.37,-0.045
21:16:43.272,-0.36,-0.05
21:16:43.276,-0.36,-0.06
21:16:43.280,-0.365,-0.065
21:16:43.284,-0.36,-0.075
21:16:43.288,-0.34,-0.08
21:16:43.292,-0.34,-0.1
21:16:43.296,-0.325,-0.09
21:16:43.300,-0.315,-0.085
21:16:43.304,-0.315,-0.08
21:16:43.308,-0.305,-0.085
21:16:43.312,-0.285,-0.095
21:16:43.316,-0.28,-0.09
21:16:43.320,-0.27,-0.095
21:16:43.324,-0.25,-0.105
21:16:43.328,-0.24,-0.105
21:16:43.332,-0.24,-0.13
21:16:43.336,-0.235,-0.11
21:16:43.340,-0.21,-0.13
21:16:43.344,-0.195,-0.145
21:16:43.348,-0.2,-0.14
21:16:43.352,-0.2,-0.135
21:16:43.356,-0.18,-0.14
21:16:43.360,-0.195,-0.165
21:16:43.364,-0.175,-0.15
21:16:43.368,-0.18,-0.17
21:16:43.372,-0.16,-0.155
21:16:43.376,-0.155,-0.16
21:16:43.380,-0.16,-0.17
21:16:43.384,-0.14,-0.17
21:16:43.388,-0.115,-0.15
21:16:43.392,-0.125,-0.175
21:16:43.396,-0.135,-0.185
21:16:43.400,-0.115,-0.185
21:16:43.404,-0.12,-0.16
21:16:43.408,-0.12,-0.16
21:16:43.412,-0.115,-0.14
21:16:43.416,-0.11,-0.15
21:16:43.420,-0.11,-0.15
21:16:43.424,-0.105,-0.14
21:16:43.428,-0.09,-0.12
21:16:43.432,-0.1,-0.12
21:16:43.436,-0.07,-0.105
21:16:43.440,-0.085,-0.105
21:16:43.444,-0.09,-0.1
21:16:43.448,-0.09,-0.12
21:16:43.452,-0.055,-0.12
21:16:43.456,-0.045,-0.09
21:16:43.460,-0.04,-0.1
21:16:43.464,-0.05,-0.11
21:16:43.468,-0.025,-0.09
21:16:43.472,0.01,-0.075
21:16:43.476,0.035,-0.07
21:16:43.480,0.075,-0.08
21:16:43.484,0.09,-0.05
21:16:43.488,0.115,-0.04
21:16:43.492,0.14,-0.035
21:16:43.496,0.14,-0.02
21:16:43.500,0.15,-0.025
21:16:43.504,0.12,-0.045
21:16:43.508,0.075,-0.05
21:16:43.512,0.055,-0.105
21:16:43.516,0.0,-0.11
21:16:43.520,-0.055,-0.095
21:16:43.524,-0.12,-0.115
21:16:43.528,-0.18,-0.11
21:16:43.532,-0.235,-0.09
21:16:43.536,-0.255,-0.085
21:16:43.540,-0.28,-0.07
21:16:43.544,-0.265,-0.06
21:16:43.548,-0.255,-0.06
21:16:43.552,-0.25,-0.075
21:16:43.556,-0.26,-0.065
21:16:43.560,-0.255,-0.085
21:16:43.564,-0.24,-0.075
21:16:43.568,-0.25,-0.09
21:16:43.572,-0.24,-0.095
21:16:43.576,-0.24,-0.11
21:16:43.580,-0.24,-0.095
21:16:43.584,-0.24,-0.09
21:16:43.588,-0.245,-0.09
21:16:43.592,-0.225,-0.09
21:16:43.596,-0.24,-0.105
21:16:43.600,-0.24,-0.115
21:16:43.604,-0.26,-0.095
21:16:43.608,-0.26,-0.115
21:16:43.612,-0.255,-0.125
21:16:43.616,-0.24,-0.12
21:16:43.620,-0.235,-0.15
21:16:43.624,-0.23,-0.12
21:16:43.628,-0.225,-0.12
21:16:43.632,-0.23,-0.14
21:16:43.636,-0.24,-0.13
21:16:43.640,-0.23,-0.125
21:16:43.644,-0.2,-0.115
21:16:43.648,-0.16,-0.1
21:16:43.652,-0.11,-0.105
21:16:43.656,-0.02,-0.125
21:16:43.660,0.03,-0.13
21:16:43.664,0.115,-0.115
21:16:43.668,0.175,-0.155
21:16:43.672,0.215,-0.17
21:16:43.676,0.23,-0.205
21:16:43.680,0.27,-0.24
21:16:43.684,0.25,-0.235
21:16:43.688,0.215,-0.28
21:16:43.692,0.28,-0.355
21:16:43.696,0.465,-0.5
21:16:43.700,0.755,-0.71
21:16:43.704,1.035,-0.935
21:16:43.708,1.125,-1.13
21:16:43.712,0.89,-1.28
21:16:43.716,0.45,-1.185
21:16:43.720,0.02,-0.83
21:16:43.724,-0.2,-0.51
21:16:43.728,-0.295,-0.28
21:16:43.732,-0.32,-0.14
21:16:43.736,-0.31,-0.045
21:16:43.740,-0.35,0.0
21:16:43.744,-0.345,0.035
21:16:43.748,-0.35,0.03
21:16:43.752,-0.355,0.035
21:16:43.756,-0.365,0.02
21:16:43.760,-0.365,0.01
21:16:43.764,-0.37,-0.025
21:16:43.768,-0.375,-0.025
21:16:43.772,-0.35,-0.005
21:16:43.776,-0.335,0.0
21:16:43.780,-0.35,-0.015
21:16:43.784,-0.345,-0.01
21:16:43.788,-0.35,-0.01
21:16:43.792,-0.355,0.01
21:16:43.796,-0.335,0.01
21:16:43.800,-0.36,-0.01
21:16:43.804,-0.365,0.01
21:16:43.808,-0.35,-0.01
21:16:43.812,-0.36,-0.005
21:16:43.816,-0.36,-0.01
21:16:43.820,-0.37,0.025
21:16:43.824,-0.375,0.01
21:16:43.828,-0.37,0.005
21:16:43.832,-0.4,-0.005
21:16:43.836,-0.395,0.015
21:16:43.840,-0.405,0.0
21:16:43.844,-0.375,0.005
21:16:43.848,-0.39,-0.005
21:16:43.852,-0.38,0.0
21:16:43.856,-0.385,0.0
21:16:43.860,-0.39,0.0
21:16:43.864,-0.4,-0.005
21:16:43.868,-0.375,-0.01
21:16:43.872,-0.375,0.0
21:16:43.876,-0.395,-0.015
21:16:43.880,-0.37,0.015
21:16:43.884,-0.34,0.015
21:16:43.888,-0.335,0.015
21:16:43.892,-0.325,0.0
21:16:43.896,-0.305,0.0
21:16:43.900,-0.3,0.0
21:16:43.904,-0.285,-0.005
21:16:43.908,-0.28,-0.02
21:16:43.912,-0.28,-0.02
21:16:43.916,-0.28,-0.005
21:16:43.920,-0.25,-0.01
21:16:43.924,-0.25,-0.03
21:16:43.928,-0.235,-0.02
21:16:43.932,-0.24,-0.025
21:16:43.936,-0.235,-0.06
21:16:43.940,-0.225,-0.075
21:16:43.944,-0.205,-0.08
21:16:43.948,-0.2,-0.07
21:16:43.952,-0.18,-0.07
21:16:43.956,-0.185,-0.06
21:16:43.960,-0.18,-0.075
21:16:43.964,-0.155,-0.08
21:16:43.968,-0.145,-0.095
21:16:43.972,-0.14,-0.08
21:16:43.976,-0.13,-0.1
21:16:43.980,-0.12,-0.075
21:16:43.984,-0.135,-0.07
21:16:43.988,-0.125,-0.065
21:16:43.992,-0.115,-0.07
21:16:43.996,-0.105,-0.065
21:16:44.000,-0.09,-0.06
21:16:44.004,-0.085,-0.07
21:16:44.008,-0.08,-0.04
21:16:44.012,-0.08,-0.05
21:16:44.016,-0.065,-0.06
21:16:44.020,-0.08,-0.065
21:16:44.024,-0.08,-0.035
21:16:44.028,-0.08,-0.04
21:16:44.032,-0.1,-0.05
21:16:44.036,-0.105,-0.04
21:16:44.040,-0.085,-0.04
21:16:44.044,-0.08,-0.04
21:16:44.048,-0.09,-0.015
21:16:44.052,-0.04,-0.03
21:16:44.056,-0.075,-0.03
21:16:44.060,-0.065,-0.055
21:16:44.064,-0.07,-0.025
21:16:44.068,-0.025,-0.035
21:16:44.072,0.005,-0.03
21:16:44.076,0.045,-0.02
21:16:44.080,0.08,0.02
21:16:44.084,0.105,0.01
21:16:44.088,0.145,0.01
21:16:44.092,0.15,0.035
21:16:44.096,0.17,0.04
21:16:44.100,0.175,0.06
21:16:44.104,0.155,0.055
21:16:44.108,0.115,0.045
21:16:44.112,0.045,0.01
21:16:44.116,0.0,-0.02
21:16:44.120,-0.05,-0.035
21:16:44.124,-0.09,-0.03
21:16:44.128,-0.18,-0.04
21:16:44.132,-0.21,0.0
21:16:44.136,-0.25,0.0
21:16:44.140,-0.26,0.025
21:16:44.144,-0.26,0.035
21:16:44.148,-0.25,0.025
21:16:44.152,-0.255,0.02
21:16:44.156,-0.26,0.0
21:16:44.160,-0.27,0.01
21:16:44.164,-0.265,0.0
21:16:44.168,-0.27,-0.02
21:16:44.172,-0.265,-0.02
21:16:44.176,-0.27,-0.01
21:16:44.180,-0.265,-0.035
21:16:44.184,-0.25,-0.01
21:16:44.188,-0.265,-0.035
21:16:44.192,-0.255,-0.04
21:16:44.196,-0.265,-0.025
21:16:44.200,-0.26,-0.01
21:16:44.204,-0.26,-0.04
21:16:44.208,-0.26,-0.035
21:16:44.212,-0.275,-0.02
21:16:44.216,-0.27,-0.035
21:16:44.220,-0.26,-0.025
21:16:44.224,-0.28,-0.035
21:16:44.228,-0.25,-0.035
21:16:44.232,-0.225,-0.035
21:16:44.236,-0.21,-0.025
21:16:44.240,-0.23,-0.01
21:16:44.244,-0.205,-0.03
21:16:44.248,-0.17,-0.015
21:16:44.252,-0.145,-0.015
21:16:44.256,-0.065,-0.015
21:16:44.260,0.01,-0.04
21:16:44.264,0.09,-0.06
21:16:44.268,0.18,-0.07
21:16:44.272,0.22,-0.11
21:16:44.276,0.25,-0.125
21:16:44.280,0.255,-0.13
21:16:44.284,0.235,-0.155
21:16:44.288,0.21,-0.18
21:16:44.292,0.255,-0.25
21:16:44.296,0.47,-0.385
21:16:44.300,0.76,-0.585
21:16:44.304,1.02,-0.86
21:16:44.308,1.07,-1.085
21:16:44.312,0.83,-1.195
21:16:44.316,0.39,-1.065
21:16:44.320,-0.01,-0.77
21:16:44.324,-0.225,-0.42
21:16:44.328,-0.31,-0.21
21:16:44.332,-0.32,-0.09
21:16:44.336,-0.34,0.0
21:16:44.340,-0.37,0.04
21:16:44.344,-0.38,0.075
21:16:44.348,-0.39,0.075
21:16:44.352,-0.395,0.075
21:16:44.356,-0.415,0.06
21:16:44.360,-0.42,0.025
21:16:44.364,-0.395,0.03
21:16:44.368,-0.405,0.025
21:16:44.372,-0.42,0.005
21:16:44.376,-0.42,0.015
21:16:44.380,-0.42,0.01
21:16:44.384,-0.43,-0.005
21:16:44.388,-0.42,-0.005
21:16:44.392,-0.46,-0.015
21:16:44.396,-0.44,-0.005
21:16:44.400,-0.465,-0.01
21:16:44.404,-0.48,-0.02
21:16:44.408,-0.465,-0.03
21:16:44.412,-0.465,-0.03
21:16:44.416,-0.485,-0.015
21:16:44.420,-0.48,-0.04
21:16:44.424,-0.48,-0.055
21:16:44.428,-0.485,-0.065
21:16:44.432,-0.485,-0.06
21:16:44.436,-0.495,-0.06
21:16:44.440,-0.48,-0.055
21:16:44.444,-0.495,-0.06
21:16:44.448,-0.505,-0.055
21:16:44.452,-0.49,-0.06
21:16:44.456,-0.495,-0.09
21:16:44.460,-0.5,-0.07
21:16:44.464,-0.46,-0.06
21:16:44.468,-0.47,-0.06
21:16:44.472,-0.47,-0.065
21:16:44.476,-0.46,-0.08
21:16:44.480,-0.445,-0.075
21:16:44.484,-0.45,-0.075
21:16:44.488,-0.45,-0.06
21:16:44.492,-0.45,-0.075
21:16:44.496,-0.45,-0.075
21:16:44.500,-0.425,-0.095
21:16:44.504,-0.405,-0.085
21:16:44.508,-0.4,-0.1
21:16:44.512,-0.395,-0.11
21:16:44.516,-0.405,-0.09
21:16:44.520,-0.38,-0.11
21:16:44.524,-0.415,-0.125
21:16:44.528,-0.4,-0.12
21:16:44.532,-0.37,-0.155
21:16:44.536,-0.36,-0.135
21:16:44.540,-0.32,-0.155
21:16:44.544,-0.3,-0.145
21:16:44.548,-0.31,-0.14
21:16:44.552,-0.32,-0.165
21:16:44.556,-0.315,-0.15
21:16:44.560,-0.28,-0.165
21:16:44.564,-0.255,-0.185
21:16:44.568,-0.225,-0.175
21:16:44.572,-0.23,-0.185
21:16:44.576,-0.24,-0.165
21:16:44.580,-0.24,-0.185
21:16:44.584,-0.235,-0.175
21:16:44.588,-0.23,-0.16
21:16:44.592,-0.21,-0.155
21:16:44.596,-0.2,-0.155
21:16:44.600,-0.23,-0.155
21:16:44.604,-0.22,-0.15
21:16:44.608,-0.21,-0.16
21:16:44.612,-0.195,-0.16
21:16:44.616,-0.185,-0.14
21:16:44.620,-0.215,-0.15
21:16:44.624,-0.245,-0.145
21:16:44.628,-0.24,-0.16
21:16:44.632,-0.23,-0.15
21:16:44.636,-0.225,-0.16
21:16:44.640,-0.235,-0.16
21:16:44.644,-0.24,-0.155
21:16:44.648,-0.235,-0.13
21:16:44.652,-0.23,-0.125
21:16:44.656,-0.23,-0.145
21:16:44.660,-0.2,-0.145
21:16:44.664,-0.195,-0.16
21:16:44.668,-0.205,-0.14
21:16:44.672,-0.185,-0.14
21:16:44.676,-0.16,-0.13
21:16:44.680,-0.11,-0.13
21:16:44.684,-0.07,-0.13
21:16:44.688,-0.02,-0.085
21:16:44.692,0.02,-0.1
21:16:44.696,0.05,-0.085
21:16:44.700,0.07,-0.095
21:16:44.704,0.07,-0.075
21:16:44.708,0.075,-0.065
21:16:44.712,0.055,-0.075
21:16:44.716,0.0,-0.115
21:16:44.720,-0.04,-0.125
21:16:44.724,-0.115,-0.17
21:16:44.728,-0.155,-0.16
21:16:44.732,-0.225,-0.19
21:16:44.736,-0.265,-0.2
21:16:44.740,-0.335,-0.19
21:16:44.744,-0.385,-0.175
21:16:44.748,-0.395,-0.16
21:16:44.752,-0.4,-0.175
21:16:44.756,-0.39,-0.19
21:16:44.760,-0.37,-0.18
21:16:44.764,-0.39,-0.205
21:16:44.768,-0.38,-0.22
21:16:44.772,-0.37,-0.21
21:16:44.776,-0.365,-0.225
21:16:44.780,-0.355,-0.215
21:16:44.784,-0.35,-0.21
21:16:44.788,-0.36,-0.195
21:16:44.792,-0.34,-0.2
21:16:44.796,-0.345,-0.215
21:16:44.800,-0.315,-0.215
21:16:44.804,-0.305,-0.215
21:16:44.808,-0.31,-0.215
21:16:44.812,-0.315,-0.18
21:16:44.816,-0.315,-0.185
21:16:44.820,-0.31,-0.2
21:16:44.824,-0.305,-0.19
21:16:44.828,-0.3,-0.2
21:16:44.832,-0.305,-0.2
21:16:44.836,-0.275,-0.195
21:16:44.840,-0.27,-0.185
21:16:44.844,-0.27,-0.19
21:16:44.848,-0.26,-0.18
21:16:44.852,-0.265,-0.2
21:16:44.856,-0.26,-0.185
21:16:44.860,-0.2,-0.195
21:16:44.864,-0.14,-0.185
21:16:44.868,-0.055,-0.185
21:16:44.872,0.03,-0.21
21:16:44.876,0.155,-0.205
21:16:44.880,0.22,-0.235
21:16:44.884,0.265,-0.275
21:16:44.888,0.325,-0.315
21:16:44.892,0.315,-0.29
21:16:44.896,0.28,-0.305
21:16:44.900,0.325,-0.365
21:16:44.904,0.505,-0.43
21:16:44.908,0.795,-0.615
21:16:44.912,1.075,-0.83
21:16:44.916,1.18,-1.045
21:16:44.920,0.96,-1.215
21:16:44.924,0.535,-1.17
21:16:44.928,0.12,-0.88
21:16:44.932,-0.12,-0.55
21:16:44.936,-0.225,-0.325
21:16:44.940,-0.235,-0.205
21:16:44.944,-0.26,-0.09
21:16:44.948,-0.28,-0.04
21:16:44.952,-0.315,0.0
21:16:44.956,-0.33,0.03
21:16:44.960,-0.33,0.005
21:16:44.964,-0.36,-0.01
21:16:44.968,-0.37,-0.01
21:16:44.972,-0.375,-0.04
21:16:44.976,-0.375,-0.025
21:16:44.980,-0.35,-0.055
21:16:44.984,-0.35,-0.06
21:16:44.988,-0.365,-0.05
21:16:44.992,-0.34,-0.05
21:16:44.996,-0.36,-0.055
21:16:45.000,-0.375,-0.07
21:16:45.004,-0.37,-0.045
21:16:45.008,-0.365,-0.045
21:16:45.012,-0.36,-0.055
21:16:45.016,-0.36,-0.045
21:16:45.020,-0.365,-0.035
21:16:45.024,-0.36,-0.06
21:16:45.028,-0.37,-0.045
21:16:45.032,-0.38,-0.06
21:16:45.036,-0.365,-0.055
21:16:45.040,-0.37,-0.045
21:16:45.044,-0.38,-0.055
21:16:45.048,-0.375,-0.05
21:16:45.052,-0.4,-0.02
21:16:45.056,-0.38,-0.04
21:16:45.060,-0.395,-0.01
21:16:45.064,-0.38,-0.05
21:16:45.068,-0.385,-0.05
21:16:45.072,-0.41,-0.04
21:16:45.076,-0.385,-0.04
21:16:45.080,-0.405,-0.035
21:16:45.084,-0.415,-0.03
21:16:45.088,-0.4,-0.02
21:16:45.092,-0.395,-0.035
21:16:45.096,-0.37,-0.05
21:16:45.100,-0.365,-0.035
21:16:45.104,-0.38,-0.04
21:16:45.108,-0.36,-0.05
21:16:45.112,-0.335,-0.07
21:16:45.116,-0.335,-0.07
21:16:45.120,-0.31,-0.06
21:16:45.124,-0.3,-0.08
21:16:45.128,-0.295,-0.095
21:16:45.132,-0.285,-0.08
21:16:45.136,-0.27,-0.1
21:16:45.140,-0.26,-0.1
21:16:45.144,-0.24,-0.1
21:16:45.148,-0.205,-0.115
21:16:45.152,-0.215,-0.125
21:16:45.156,-0.18,-0.11
21:16:45.160,-0.17,-0.14
21:16:45.164,-0.185,-0.145
21:16:45.168,-0.155,-0.13
21:16:45.172,-0.17,-0.13
21:16:45.176,-0.15,-0.125
21:16:45.180,-0.15,-0.13
21:16:45.184,-0.145,-0.14
21:16:45.188,-0.135,-0.13
21:16:45.192,-0.145,-0.155
21:16:45.196,-0.14,-0.155
21:16:45.200,-0.13,-0.145
21:16:45.204,-0.135,-0.14
21:16:45.208,-0.12,-0.14
21:16:45.212,-0.12,-0.155
21:16:45.216,-0.135,-0.15
21:16:45.220,-0.125,-0.145
21:16:45.224,-0.13,-0.12
21:16:45.228,-0.135,-0.125
21:16:45.232,-0.145,-0.13
21:16:45.236,-0.135,-0.105
21:16:45.240,-0.12,-0.12
21:16:45.244,-0.145,-0.13
21:16:45.248,-0.13,-0.115
21:16:45.252,-0.12,-0.1
21:16:45.256,-0.115,-0.085
21:16:45.260,-0.12,-0.095
21:16:45.264,-0.125,-0.115
21:16:45.268,-0.135,-0.11
21:16:45.272,-0.135,-0.08
21:16:45.276,-0.11,-0.09
21:16:45.280,-0.11,-0.085
21:16:45.284,-0.095,-0.085
21:16:45.288,-0.065,-0.09
21:16:45.292,-0.09,-0.105
21:16:45.296,-0.085,-0.11
21:16:45.300,-0.045,-0.08
21:16:45.304,0.0,-0.06
21:16:45.308,0.03,-0.055
21:16:45.312,0.055,-0.06
21:16:45.316,0.095,-0.07
21:16:45.320,0.105,-0.045
21:16:45.324,0.135,-0.055
21:16:45.328,0.115,-0.05
21:16:45.332,0.13,-0.065
21:16:45.336,0.11,-0.06
21:16:45.340,0.07,-0.09
21:16:45.344,0.01,-0.125
21:16:45.348,-0.025,-0.145
21:16:45.352,-0.09,-0.135
21:16:45.356,-0.175,-0.125
21:16:45.360,-0.225,-0.125
21:16:45.364,-0.23,-0.12
21:16:45.368,-0.29,-0.09
21:16:45.372,-0.275,-0.095
21:16:45.376,-0.285,-0.08
21:16:45.380,-0.275,-0.095
21:16:45.384,-0.26,-0.115
21:16:45.388,-0.255,-0.11
21:16:45.392,-0.255,-0.12
21:16:45.396,-0.25,-0.12
21:16:45.400,-0.265,-0.125
21:16:45.404,-0.25,-0.115
21:16:45.408,-0.23,-0.12
21:16:45.412,-0.235,-0.11
21:16:45.416,-0.245,-0.12
21:16:45.420,-0.25,-0.13
21:16:45.424,-0.255,-0.13
21:16:45.428,-0.245,-0.12
21:16:45.432,-0.27,-0.145
21:16:45.436,-0.245,-0.135
21:16:45.440,-0.265,-0.145
21:16:45.444,-0.245,-0.135
21:16:45.448,-0.25,-0.145
21:16:45.452,-0.265,-0.17
21:16:45.456,-0.255,-0.155
21:16:45.460,-0.245,-0.14
21:16:45.464,-0.235,-0.135
21:16:45.468,-0.23,-0.14
21:16:45.472,-0.225,-0.15
21:16:45.476,-0.19,-0.145
21:16:45.480,-0.125,-0.15
21:16:45.484,-0.08,-0.145
21:16:45.488,-0.005,-0.155
21:16:45.492,0.08,-0.155
21:16:45.496,0.15,-0.165
21:16:45.500,0.175,-0.195
21:16:45.504,0.2,-0.245
21:16:45.508,0.225,-0.245
21:16:45.512,0.225,-0.225
21:16:45.516,0.21,-0.265
21:16:45.520,0.275,-0.375
21:16:45.524,0.475,-0.5
21:16:45.528,0.76,-0.72
21:16:45.532,1.03,-0.935
21:16:45.536,1.07,-1.18
21:16:45.540,0.855,-1.28
21:16:45.544,0.385,-1.18
21:16:45.548,-0.02,-0.85
21:16:45.552,-0.255,-0.52
21:16:45.556,-0.34,-0.31
21:16:45.560,-0.345,-0.185
21:16:45.564,-0.345,-0.065
21:16:45.568,-0.34,-0.015
21:16:45.572,-0.38,0.0
21:16:45.576,-0.405,0.015
21:16:45.580,-0.39,0.0
21:16:45.584,-0.395,0.0
21:16:45.588,-0.4,0.0
21:16:45.592,-0.38,-0.03
21:16:45.596,-0.38,-0.045
21:16:45.600,-0.36,-0.015
21:16:45.604,-0.375,-0.04
21:16:45.608,-0.36,-0.035
21:16:45.612,-0.365,-0.025
21:16:45.616,-0.375,-0.025
21:16:45.620,-0.37,-0.03
21:16:45.624,-0.375,-0.025
21:16:45.628,-0.37,-0.02
21:16:45.632,-0.385,-0.02
21:16:45.636,-0.385,-0.03
21:16:45.640,-0.415,-0.05
21:16:45.644,-0.42,-0.045
21:16:45.648,-0.42,-0.04
21:16:45.652,-0.425,-0.03
21:16:45.656,-0.435,-0.025
21:16:45.660,-0.41,-0.055
21:16:45.664,-0.435,-0.05
21:16:45.668,-0.43,-0.05
21:16:45.672,-0.445,-0.07
21:16:45.676,-0.425,-0.05
21:16:45.680,-0.425,-0.05
21:16:45.684,-0.45,-0.04
21:16:45.688,-0.455,-0.055
21:16:45.692,-0.44,-0.05
21:16:45.696,-0.445,-0.055
21:16:45.700,-0.43,-0.055
21:16:45.704,-0.395,-0.045
21:16:45.708,-0.395,-0.04
21:16:45.712,-0.395,-0.04
21:16:45.716,-0.4,-0.035
21:16:45.720,-0.405,-0.025
21:16:45.724,-0.375,-0.04
21:16:45.728,-0.35,-0.025
21:16:45.732,-0.36,-0.055
21:16:45.736,-0.35,-0.055
21:16:45.740,-0.33,-0.04
21:16:45.744,-0.335,-0.075
21:16:45.748,-0.3,-0.08
21:16:45.752,-0.32,-0.06
21:16:45.756,-0.305,-0.085
21:16:45.760,-0.3,-0.085
21:16:45.764,-0.28,-0.085
21:16:45.768,-0.275,-0.09
21:16:45.772,-0.255,-0.09
21:16:45.776,-0.245,-0.09
21:16:45.780,-0.24,-0.1
21:16:45.784,-0.235,-0.1
21:16:45.788,-0.21,-0.12
21:16:45.792,-0.21,-0.115
21:16:45.796,-0.195,-0.115
21:16:45.800,-0.19,-0.1
21:16:45.804,-0.18,-0.11
21:16:45.808,-0.18,-0.1
21:16:45.812,-0.16,-0.105
21:16:45.816,-0.14,-0.1
21:16:45.820,-0.125,-0.09
21:16:45.824,-0.135,-0.08
21:16:45.828,-0.125,-0.08
21:16:45.832,-0.14,-0.085
21:16:45.836,-0.135,-0.075
21:16:45.840,-0.13,-0.07
21:16:45.844,-0.155,-0.065
21:16:45.848,-0.14,-0.065
21:16:45.852,-0.125,-0.055
21:16:45.856,-0.135,-0.04
21:16:45.860,-0.155,-0.045
21:16:45.864,-0.135,-0.05
21:16:45.868,-0.16,-0.05
21:16:45.872,-0.13,-0.05
21:16:45.876,-0.13,-0.05
21:16:45.880,-0.12,-0.035
21:16:45.884,-0.125,-0.05
21:16:45.888,-0.09,-0.06
21:16:45.892,-0.095,-0.07
21:16:45.896,-0.1,-0.035
21:16:45.900,-0.065,-0.015
21:16:45.904,-0.02,-0.035
21:16:45.908,0.02,-0.02
21:16:45.912,0.045,0.0
21:16:45.916,0.105,0.02
21:16:45.920,0.12,0.01
21:16:45.924,0.125,-0.01
21:16:45.928,0.15,0.02
21:16:45.932,0.15,0.035
21:16:45.936,0.13,0.04
21:16:45.940,0.095,0.005
21:16:45.944,0.04,-0.01
21:16:45.948,-0.015,-0.03
21:16:45.952,-0.075,-0.03
21:16:45.956,-0.11,-0.025
21:16:45.960,-0.2,-0.04
21:16:45.964,-0.245,-0.035
21:16:45.968,-0.275,-0.015
21:16:45.972,-0.285,0.01
21:16:45.976,-0.285,-0.01
21:16:45.980,-0.315,-0.015
21:16:45.984,-0.3,-0.01
21:16:45.988,-0.31,-0.035
21:16:45.992,-0.29,-0.02
21:16:45.996,-0.275,-0.025
21:16:46.000,-0.285,-0.05
21:16:46.004,-0.27,-0.055
21:16:46.008,-0.275,-0.035
21:16:46.012,-0.24,-0.065
21:16:46.016,-0.265,-0.07
21:16:46.020,-0.265,-0.065
21:16:46.024,-0.255,-0.075
21:16:46.028,-0.27,-0.06
21:16:46.032,-0.245,-0.075
21:16:46.036,-0.245,-0.05
21:16:46.040,-0.245,-0.065
21:16:46.044,-0.255,-0.105
21:16:46.048,-0.21,-0.07
21:16:46.052,-0.24,-0.06
21:16:46.056,-0.235,-0.065
21:16:46.060,-0.24,-0.06
21:16:46.064,-0.25,-0.06
21:16:46.068,-0.225,-0.075
21:16:46.072,-0.23,-0.06
21:16:46.076,-0.22,-0.05
21:16:46.080,-0.21,-0.07
21:16:46.084,-0.14,-0.07
21:16:46.088,-0.07,-0.06
21:16:46.092,0.02,-0.07
21:16:46.096,0.075,-0.095
21:16:46.100,0.155,-0.12
21:16:46.104,0.175,-0.155
21:16:46.108,0.215,-0.21
21:16:46.112,0.22,-0.21
21:16:46.116,0.23,-0.245
21:16:46.120,0.21,-0.275
21:16:46.124,0.3,-0.36
21:16:46.128,0.525,-0.51
21:16:46.132,0.825,-0.715
21:16:46.136,1.065,-0.965
21:16:46.140,1.075,-1.165
21:16:46.144,0.8,-1.255
21:16:46.148,0.32,-1.07
21:16:46.152,-0.05,-0.685
21:16:46.156,-0.235,-0.38
21:16:46.160,-0.315,-0.215
21:16:46.164,-0.305,-0.07
21:16:46.168,-0.32,-0.005
21:16:46.172,-0.32,0.06
21:16:46.176,-0.36,0.075
21:16:46.180,-0.355,0.085
21:16:46.184,-0.36,0.075
21:16:46.188,-0.365,0.065
21:16:46.192,-0.36,0.035
21:16:46.196,-0.38,0.025
21:16:46.200,-0.38,0.035
21:16:46.204,-0.365,0.03
21:16:46.208,-0.38,0.015
21:16:46.212,-0.4,0.025
21:16:46.216,-0.395,0.03
21:16:46.220,-0.4,0.02
21:16:46.224,-0.4,0.025
21:16:46.228,-0.395,0.02
21:16:46.232,-0.395,0.01
21:16:46.236,-0.41,0.01
21:16:46.240,-0.39,0.01
21:16:46.244,-0.39,0.01
21:16:46.248,-0.405,0.0
21:16:46.252,-0.39,0.0
21:16:46.256,-0.415,0.015
21:16:46.260,-0.435,0.0
21:16:46.264,-0.415,0.005
21:16:46.268,-0.415,0.04
21:16:46.272,-0.42,0.015
21:16:46.276,-0.405,0.01
21:16:46.280,-0.39,0.0
21:16:46.284,-0.405,0.01
21:16:46.288,-0.415,0.04
21:16:46.292,-0.41,0.04
21:16:46.296,-0.41,0.03
21:16:46.300,-0.42,0.035
21:16:46.304,-0.39,0.03
21:16:46.308,-0.38,0.035
21:16:46.312,-0.405,0.035
21:16:46.316,-0.4,0.03
21:16:46.320,-0.395,0.02
21:16:46.324,-0.385,0.01
21:16:46.328,-0.375,-0.01
21:16:46.332,-0.375,0.0
21:16:46.336,-0.365,0.0
21:16:46.340,-0.355,-0.01
21:16:46.344,-0.34,-0.01
21:16:46.348,-0.35,-0.04
21:16:46.352,-0.32,-0.05
21:16:46.356,-0.32,-0.05
21:16:46.360,-0.32,-0.05
21:16:46.364,-0.305,-0.065
21:16:46.368,-0.295,-0.065
21:16:46.372,-0.285,-0.08
21:16:46.376,-0.26,-0.085
21:16:46.380,-0.225,-0.075
21:16:46.384,-0.23,-0.095
21:16:46.388,-0.22,-0.08
21:16:46.392,-0.205,-0.095
21:16:46.396,-0.205,-0.075
21:16:46.400,-0.17,-0.095
21:16:46.404,-0.185,-0.07
21:16:46.408,-0.175,-0.075
21:16:46.412,-0.165,-0.06
21:16:46.416,-0.19,-0.065
21:16:46.420,-0.175,-0.06
21:16:46.424,-0.16,-0.055
21:16:46.428,-0.17,-0.055
21:16:46.432,-0.165,-0.055
21:16:46.436,-0.185,-0.055
21:16:46.440,-0.19,-0.04
21:16:46.444,-0.19,-0.055
21:16:46.448,-0.195,-0.03
21:16:46.452,-0.21,-0.045
21:16:46.456,-0.19,-0.055
21:16:46.460,-0.205,-0.04
21:16:46.464,-0.2,-0.04
21:16:46.468,-0.185,-0.055
21:16:46.472,-0.18,-0.035
21:16:46.476,-0.175,-0.04
21:16:46.480,-0.17,-0.05
21:16:46.484,-0.17,-0.02
21:16:46.488,-0.145,0.0
21:16:46.492,-0.14,-0.015
21:16:46.496,-0.085,-0.015
21:16:46.500,-0.035,-0.015
21:16:46.504,0.02,-0.015
21:16:46.508,0.03,0.0
21:16:46.512,0.055,0.025
21:16:46.516,0.055,0.035
21:16:46.520,0.095,0.01
21:16:46.524,0.12,0.05
21:16:46.528,0.09,0.045
21:16:46.532,0.055,0.035
21:16:46.536,0.015,0.005
21:16:46.540,-0.035,-0.03
21:16:46.544,-0.075,-0.035
21:16:46.548,-0.15,-0.045
21:16:46.552,-0.205,-0.06
21:16:46.556,-0.275,-0.065
21:16:46.560,-0.295,-0.04
21:16:46.564,-0.32,-0.01
21:16:46.568,-0.345,-0.01
21:16:46.572,-0.35,-0.035
21:16:46.576,-0.35,-0.015
21:16:46.580,-0.35,-0.035
21:16:46.584,-0.345,-0.03
21:16:46.588,-0.345,-0.02
21:16:46.592,-0.35,-0.025
21:16:46.596,-0.34,-0.04
21:16:46.600,-0.32,-0.04
21:16:46.604,-0.31,-0.04
21:16:46.608,-0.32,-0.005
21:16:46.612,-0.32,-0.025
21:16:46.616,-0.305,-0.035
21:16:46.620,-0.305,-0.015
21:16:46.624,-0.3,-0.015
21:16:46.628,-0.315,0.005
21:16:46.632,-0.315,-0.01
21:16:46.636,-0.3,-0.005
21:16:46.640,-0.31,0.0
21:16:46.644,-0.31,-0.015
21:16:46.648,-0.305,-0.02
21:16:46.652,-0.31,-0.02
21:16:46.656,-0.325,-0.02
21:16:46.660,-0.345,-0.015
21:16:46.664,-0.315,-0.025
21:16:46.668,-0.32,-0.015
21:16:46.672,-0.305,-0.015
21:16:46.676,-0.285,-0.015
21:16:46.680,-0.235,-0.025
21:16:46.684,-0.16,-0.03
21:16:46.688,-0.07,-0.035
21:16:46.692,0.01,-0.05
21:16:46.696,0.075,-0.045
21:16:46.700,0.1,-0.07
21:16:46.704,0.14,-0.125
21:16:46.708,0.15,-0.125
21:16:46.712,0.15,-0.115
21:16:46.716,0.135,-0.155
21:16:46.720,0.21,-0.24
21:16:46.724,0.445,-0.39
21:16:46.728,0.725,-0.565
21:16:46.732,0.965,-0.81
21:16:46.736,0.97,-1.055
21:16:46.740,0.68,-1.165
21:16:46.744,0.245,-0.985
21:16:46.748,-0.145,-0.655
21:16:46.752,-0.33,-0.335
21:16:46.756,-0.395,-0.135
21:16:46.760,-0.41,0.0
21:16:46.764,-0.42,0.1
21:16:46.768,-0.45,0.11
21:16:46.772,-0.465,0.125
21:16:46.776,-0.485,0.155
21:16:46.780,-0.485,0.13
21:16:46.784,-0.485,0.115
21:16:46.788,-0.49,0.095
21:16:46.792,-0.515,0.065
21:16:46.796,-0.51,0.06
21:16:46.800,-0.51,0.055
21:16:46.804,-0.49,0.05
21:16:46.808,-0.51,0.04
21:16:46.812,-0.505,0.045
21:16:46.816,-0.5,0.055
21:16:46.820,-0.49,0.05
21:16:46.824,-0.515,0.05
21:16:46.828,-0.5,0.05
21:16:46.832,-0.5,0.09
21:16:46.836,-0.485,0.06
21:16:46.840,-0.48,0.06
21:16:46.844,-0.51,0.07
21:16:46.848,-0.49,0.065
21:16:46.852,-0.485,0.065
21:16:46.856,-0.51,0.05
21:16:46.860,-0.505,0.065
21:16:46.864,-0.525,0.08
21:16:46.868,-0.515,0.06
21:16:46.872,-0.515,0.075
21:16:46.876,-0.51,0.085
21:16:46.880,-0.545,0.08
21:16:46.884,-0.55,0.105
21:16:46.888,-0.55,0.085
21:16:46.892,-0.54,0.07
21:16:46.896,-0.535,0.065
21:16:46.900,-0.53,0.08
21:16:46.904,-0.535,0.075
21:16:46.908,-0.515,0.07
21:16:46.912,-0.51,0.07
21:16:46.916,-0.505,0.055
21:16:46.920,-0.48,0.045
21:16:46.924,-0.47,0.05
21:16:46.928,-0.485,0.045
21:16:46.932,-0.45,0.04
21:16:46.936,-0.445,0.02
21:16:46.940,-0.455,0.025
21:16:46.944,-0.44,0.02
21:16:46.948,-0.415,-0.005
21:16:46.952,-0.385,0.02
21:16:46.956,-0.385,0.015
21:16:46.960,-0.36,-0.005
21:16:46.964,-0.36,-0.01
21:16:46.968,-0.345,-0.015
21:16:46.972,-0.335,-0.015
21:16:46.976,-0.315,-0.01
21:16:46.980,-0.305,-0.01
21:16:46.984,-0.285,0.0
21:16:46.988,-0.29,-0.015
21:16:46.992,-0.31,-0.035
21:16:46.996,-0.275,-0.02
21:16:47.000,-0.3,-0.05
21:16:47.004,-0.285,-0.025
21:16:47.008,-0.305,-0.055
21:16:47.012,-0.275,-0.045
21:16:47.016,-0.28,-0.04
21:16:47.020,-0.265,-0.04
21:16:47.024,-0.255,-0.04
21:16:47.028,-0.26,-0.035
21:16:47.032,-0.26,-0.055
21:16:47.036,-0.26,-0.05
21:16:47.040,-0.255,-0.07
21:16:47.044,-0.28,-0.06
21:16:47.048,-0.24,-0.045
21:16:47.052,-0.26,-0.04
21:16:47.056,-0.25,-0.035
21:16:47.060,-0.245,-0.035
21:16:47.064,-0.24,-0.045
21:16:47.068,-0.24,-0.035
21:16:47.072,-0.24,-0.015
21:16:47.076,-0.255,-0.035
21:16:47.080,-0.26,-0.01
21:16:47.084,-0.26,-0.02
21:16:47.088,-0.26,-0.035
21:16:47.092,-0.225,-0.02
21:16:47.096,-0.215,-0.03
21:16:47.100,-0.2,-0.06
21:16:47.104,-0.2,-0.05
21:16:47.108,-0.18,-0.04
21:16:47.112,-0.135,-0.015
21:16:47.116,-0.12,0.005
21:16:47.120,-0.08,-0.015
21:16:47.124,-0.045,0.005
21:16:47.128,0.0,-0.01
21:16:47.132,0.015,-0.02
21:16:47.136,0.025,-0.02
21:16:47.140,0.025,-0.02
21:16:47.144,-0.005,-0.02
21:16:47.148,-0.025,-0.045
21:16:47.152,-0.105,-0.075
21:16:47.156,-0.145,-0.085
21:16:47.160,-0.21,-0.095
21:16:47.164,-0.285,-0.105
21:16:47.168,-0.32,-0.095
21:16:47.172,-0.365,-0.09
21:16:47.176,-0.365,-0.07
21:16:47.180,-0.39,-0.07
21:16:47.184,-0.38,-0.09
21:16:47.188,-0.39,-0.08
21:16:47.192,-0.385,-0.1
21:16:47.196,-0.375,-0.105
21:16:47.200,-0.385,-0.1
21:16:47.204,-0.365,-0.105
21:16:47.208,-0.355,-0.11
21:16:47.212,-0.355,-0.12
21:16:47.216,-0.375,-0.125
21:16:47.220,-0.365,-0.13
21:16:47.224,-0.385,-0.13
21:16:47.228,-0.37,-0.135
21:16:47.232,-0.385,-0.13
21:16:47.236,-0.365,-0.15
21:16:47.240,-0.375,-0.125
21:16:47.244,-0.34,-0.14
21:16:47.248,-0.365,-0.16
21:16:47.252,-0.345,-0.145
21:16:47.256,-0.365,-0.165
21:16:47.260,-0.355,-0.15
21:16:47.264,-0.36,-0.175
21:16:47.268,-0.355,-0.14
21:16:47.272,-0.335,-0.165
21:16:47.276,-0.35,-0.155
21:16:47.280,-0.34,-0.15
21:16:47.284,-0.31,-0.165
21:16:47.288,-0.28,-0.175
21:16:47.292,-0.21,-0.135
21:16:47.296,-0.15,-0.15
21:16:47.300,-0.07,-0.17
21:16:47.304,0.035,-0.17
21:16:47.308,0.115,-0.205
21:16:47.312,0.16,-0.225
21:16:47.316,0.21,-0.255
21:16:47.320,0.265,-0.255
21:16:47.324,0.255,-0.255
21:16:47.328,0.23,-0.26
21:16:47.332,0.255,-0.35
21:16:47.336,0.43,-0.43
21:16:47.340,0.715,-0.605
21:16:47.344,0.955,-0.84
21:16:47.348,1.01,-1.07
21:16:47.352,0.77,-1.2
21:16:47.356,0.31,-1.14
21:16:47.360,-0.065,-0.845
21:16:47.364,-0.295,-0.55
21:16:47.368,-0.365,-0.34
21:16:47.372,-0.39,-0.215
21:16:47.376,-0.405,-0.12
21:16:47.380,-0.43,-0.06
21:16:47.384,-0.47,-0.015
21:16:47.388,-0.465,0.0
21:16:47.392,-0.48,-0.015
21:16:47.396,-0.47,-0.07
21:16:47.400,-0.47,-0.07
21:16:47.404,-0.47,-0.08
21:16:47.408,-0.455,-0.1
21:16:47.412,-0.445,-0.07
21:16:47.416,-0.455,-0.08
21:16:47.420,-0.455,-0.07
21:16:47.424,-0.465,-0.08
21:16:47.428,-0.485,-0.06
21:16:47.432,-0.475,-0.065
21:16:47.436,-0.47,-0.085
21:16:47.440,-0.47,-0.085
21:16:47.444,-0.48,-0.075
21:16:47.448,-0.485,-0.055
21:16:47.452,-0.5,-0.06
21:16:47.456,-0.5,-0.06
21:16:47.460,-0.495,-0.06
21:16:47.464,-0.52,-0.06
21:16:47.468,-0.5,-0.07
21:16:47.472,-0.51,-0.07
21:16:47.476,-0.52,-0.07
21:16:47.480,-0.52,-0.06
21:16:47.484,-0.515,-0.075
21:16:47.488,-0.51,-0.06
21:16:47.492,-0.525,-0.06
21:16:47.496,-0.505,-0.045
21:16:47.500,-0.51,-0.055
21:16:47.504,-0.51,-0.05
21:16:47.508,-0.505,-0.045
21:16:47.512,-0.505,-0.06
21:16:47.516,-0.48,-0.03
21:16:47.520,-0.47,-0.03
21:16:47.524,-0.455,-0.02
21:16:47.528,-0.455,-0.005
21:16:47.532,-0.44,-0.015
21:16:47.536,-0.435,-0.02
21:16:47.540,-0.415,-0.005
21:16:47.544,-0.43,-0.005
21:16:47.548,-0.42,0.0
21:16:47.552,-0.395,-0.02
21:16:47.556,-0.4,-0.025
21:16:47.560,-0.39,-0.025
21:16:47.564,-0.385,-0.025
21:16:47.568,-0.375,-0.025
21:16:47.572,-0.37,-0.055
21:16:47.576,-0.35,-0.065
21:16:47.580,-0.35,-0.05
21:16:47.584,-0.33,-0.08
21:16:47.588,-0.335,-0.075
21:16:47.592,-0.305,-0.115
21:16:47.596,-0.305,-0.125
21:16:47.600,-0.285,-0.13
21:16:47.604,-0.28,-0.085
21:16:47.608,-0.265,-0.09
21:16:47.612,-0.265,-0.08
21:16:47.616,-0.24,-0.105
21:16:47.620,-0.23,-0.095
21:16:47.624,-0.23,-0.11
21:16:47.628,-0.22,-0.085
21:16:47.632,-0.2,-0.08
21:16:47.636,-0.2,-0.09
21:16:47.640,-0.2,-0.065
21:16:47.644,-0.185,-0.07
21:16:47.648,-0.185,-0.07
21:16:47.652,-0.195,-0.08
21:16:47.656,-0.195,-0.07
21:16:47.660,-0.205,-0.045
21:16:47.664,-0.2,-0.055
21:16:47.668,-0.21,-0.04
21:16:47.672,-0.21,-0.045
21:16:47.676,-0.215,-0.04
21:16:47.680,-0.23,-0.04
21:16:47.684,-0.235,-0.07
21:16:47.688,-0.245,-0.035
21:16:47.692,-0.235,-0.07
21:16:47.696,-0.225,-0.06
21:16:47.700,-0.215,-0.065
21:16:47.704,-0.175,-0.06
21:16:47.708,-0.195,-0.045
21:16:47.712,-0.19,-0.06
21:16:47.716,-0.15,-0.06
21:16:47.720,-0.155,-0.045
21:16:47.724,-0.13,-0.05
21:16:47.728,-0.08,-0.035
21:16:47.732,-0.04,-0.04
21:16:47.736,0.005,0.0
21:16:47.740,0.04,-0.01
21:16:47.744,0.055,0.005
21:16:47.748,0.07,-0.015
21:16:47.752,0.085,0.0
21:16:47.756,0.06,0.005
21:16:47.760,0.04,0.005
21:16:47.764,-0.005,-0.01
21:16:47.768,-0.06,-0.05
21:16:47.772,-0.13,-0.075
21:16:47.776,-0.16,-0.06
21:16:47.780,-0.22,-0.07
21:16:47.784,-0.275,-0.075
21:16:47.788,-0.315,-0.065
21:16:47.792,-0.34,-0.04
21:16:47.796,-0.35,-0.04
21:16:47.800,-0.37,-0.065
21:16:47.804,-0.37,-0.035
21:16:47.808,-0.37,-0.065
21:16:47.812,-0.36,-0.08
21:16:47.816,-0.34,-0.085
21:16:47.820,-0.335,-0.07
21:16:47.824,-0.345,-0.095
21:16:47.828,-0.325,-0.05
21:16:47.832,-0.33,-0.095
21:16:47.836,-0.33,-0.075
21:16:47.840,-0.325,-0.075
21:16:47.844,-0.33,-0.08
21:16:47.848,-0.3,-0.06
21:16:47.852,-0.305,-0.085
21:16:47.856,-0.3,-0.08
21:16:47.860,-0.29,-0.065
21:16:47.864,-0.305,-0.065
21:16:47.868,-0.29,-0.05
21:16:47.872,-0.29,-0.06
21:16:47.876,-0.275,-0.055
21:16:47.880,-0.285,-0.06
21:16:47.884,-0.28,-0.05
21:16:47.888,-0.285,-0.07
21:16:47.892,-0.28,-0.045
21:16:47.896,-0.28,-0.07
21:16:47.900,-0.255,-0.065
21:16:47.904,-0.225,-0.07
21:16:47.908,-0.17,-0.07
21:16:47.912,-0.08,-0.08
21:16:47.916,0.005,-0.08
21:16:47.920,0.085,-0.075
21:16:47.924,0.145,-0.105
21:16:47.928,0.155,-0.18
21:16:47.932,0.195,-0.2
21:16:47.936,0.205,-0.21
21:16:47.940,0.195,-0.22
21:16:47.944,0.195,-0.285
21:16:47.948,0.325,-0.415
21:16:47.952,0.61,-0.58
21:16:47.956,0.92,-0.77
21:16:47.960,1.085,-1.01
21:16:47.964,1.005,-1.185
21:16:47.968,0.615,-1.175
21:16:47.972,0.145,-0.95
21:16:47.976,-0.155,-0.56
21:16:47.980,-0.285,-0.285
21:16:47.984,-0.36,-0.13
21:16:47.988,-0.36,-0.01
21:16:47.992,-0.385,0.065
21:16:47.996,-0.355,0.1
21:16:48.000,-0.39,0.11
21:16:48.004,-0.4,0.105
21:16:48.008,-0.4,0.09
21:16:48.012,-0.385,0.07
21:16:48.016,-0.41,0.06
21:16:48.020,-0.435,0.05
21:16:48.024,-0.43,0.035
21:16:48.028,-0.41,0.04
21:16:48.032,-0.395,0.035
21:16:48.036,-0.41,0.035
21:16:48.040,-0.415,0.035
21:16:48.044,-0.43,0.03
21:16:48.048,-0.43,0.015
21:16:48.052,-0.435,0.02
21:16:48.056,-0.41,0.045
21:16:48.060,-0.44,0.025
21:16:48.064,-0.42,0.015
21:16:48.068,-0.43,0.01
21:16:48.072,-0.445,0.02
21:16:48.076,-0.425,0.025
21:16:48.080,-0.44,0.025
21:16:48.084,-0.445,0.015
21:16:48.088,-0.42,0.025
21:16:48.092,-0.44,0.015
21:16:48.096,-0.415,0.03
21:16:48.100,-0.455,0.015
21:16:48.104,-0.455,0.03
21:16:48.108,-0.46,0.015
21:16:48.112,-0.45,0.03
21:16:48.116,-0.46,0.05
21:16:48.120,-0.46,0.025
21:16:48.124,-0.46,0.025
21:16:48.128,-0.47,0.015
21:16:48.132,-0.46,0.03
21:16:48.136,-0.46,0.02
21:16:48.140,-0.47,0.02
21:16:48.144,-0.455,0.015
21:16:48.148,-0.435,0.015
21:16:48.152,-0.435,0.01
21:16:48.156,-0.415,0.0
21:16:48.160,-0.4,0.005
21:16:48.164,-0.405,0.01
21:16:48.168,-0.39,0.01
21:16:48.172,-0.365,0.005
21:16:48.176,-0.355,-0.005
21:16:48.180,-0.37,0.0
21:16:48.184,-0.35,-0.035
21:16:48.188,-0.335,-0.015
21:16:48.192,-0.29,-0.015
21:16:48.196,-0.285,-0.025
21:16:48.200,-0.27,-0.045
21:16:48.204,-0.25,-0.055
21:16:48.208,-0.24,-0.055
21:16:48.212,-0.23,-0.045
21:16:48.216,-0.215,-0.04
21:16:48.220,-0.24,-0.045
21:16:48.224,-0.205,-0.045
21:16:48.228,-0.195,-0.06
21:16:48.232,-0.2,-0.06
21:16:48.236,-0.205,-0.06
21:16:48.240,-0.205,-0.045
21:16:48.244,-0.195,-0.045
21:16:48.248,-0.2,-0.045
21:16:48.252,-0.21,-0.03
21:16:48.256,-0.185,-0.04
21:16:48.260,-0.18,-0.05
21:16:48.264,-0.195,-0.03
21:16:48.268,-0.18,-0.04
21:16:48.272,-0.18,-0.02
21:16:48.276,-0.19,-0.035
21:16:48.280,-0.2,-0.025
21:16:48.284,-0.18,-0.02
21:16:48.288,-0.18,-0.005
21:16:48.292,-0.195,-0.025
21:16:48.296,-0.195,-0.005
21:16:48.300,-0.185,-0.01
21:16:48.304,-0.16,0.0
21:16:48.308,-0.135,-0.015
21:16:48.312,-0.125,-0.005
21:16:48.316,-0.105,-0.005
21:16:48.320,-0.095,0.01
21:16:48.324,-0.105,0.005
21:16:48.328,-0.07,0.005
21:16:48.332,-0.02,0.02
21:16:48.336,0.01,0.045
21:16:48.340,0.045,0.04
21:16:48.344,0.05,0.035
21:16:48.348,0.065,0.04
21:16:48.352,0.085,0.05
21:16:48.356,0.095,0.05
21:16:48.360,0.075,0.035
21:16:48.364,0.025,0.03
21:16:48.368,0.0,0.005
21:16:48.372,-0.065,-0.03
21:16:48.376,-0.11,-0.05
21:16:48.380,-0.16,-0.045
21:16:48.384,-0.205,-0.03
21:16:48.388,-0.275,-0.03
21:16:48.392,-0.3,-0.04
21:16:48.396,-0.345,-0.025
21:16:48.400,-0.365,-0.02
21:16:48.404,-0.375,-0.035
21:16:48.408,-0.34,-0.01
21:16:48.412,-0.34,-0.04
21:16:48.416,-0.33,-0.015
21:16:48.420,-0.32,-0.015
21:16:48.424,-0.315,-0.055
21:16:48.428,-0.32,-0.03
21:16:48.432,-0.31,-0.035
21:16:48.436,-0.3,-0.04
21:16:48.440,-0.315,-0.025
21:16:48.444,-0.315,-0.035
21:16:48.448,-0.305,-0.045
21:16:48.452,-0.315,-0.055
21:16:48.456,-0.31,-0.05
21:16:48.460,-0.31,-0.055
21:16:48.464,-0.305,-0.055
21:16:48.468,-0.315,-0.06
21:16:48.472,-0.32,-0.04
21:16:48.476,-0.315,-0.04
21:16:48.480,-0.32,-0.04
21:16:48.484,-0.32,-0.04
21:16:48.488,-0.32,-0.075
21:16:48.492,-0.295,-0.08
21:16:48.496,-0.3,-0.09
21:16:48.500,-0.285,-0.07
21:16:48.504,-0.265,-0.07
21:16:48.508,-0.27,-0.08
21:16:48.512,-0.195,-0.08
21:16:48.516,-0.12,-0.08
21:16:48.520,-0.04,-0.07
21:16:48.524,0.035,-0.08
21:16:48.528,0.1,-0.105
21:16:48.532,0.15,-0.16
21:16:48.536,0.165,-0.17
21:16:48.540,0.19,-0.175
21:16:48.544,0.185,-0.19
21:16:48.548,0.18,-0.265
21:16:48.552,0.29,-0.34
21:16:48.556,0.56,-0.495
21:16:48.560,0.85,-0.75
21:16:48.564,1.04,-0.965
21:16:48.568,0.945,-1.14
21:16:48.572,0.59,-1.19
21:16:48.576,0.135,-0.95
21:16:48.580,-0.185,-0.6
21:16:48.584,-0.34,-0.31
21:16:48.588,-0.385,-0.12
21:16:48.592,-0.39,-0.01
21:16:48.596,-0.39,0.05
21:16:48.600,-0.405,0.095
21:16:48.604,-0.45,0.1
21:16:48.608,-0.435,0.105
21:16:48.612,-0.45,0.075
21:16:48.616,-0.445,0.05
21:16:48.620,-0.44,0.03
21:16:48.624,-0.445,0.015
21:16:48.628,-0.45,0.02
21:16:48.632,-0.45,0.025
21:16:48.636,-0.455,0.03
21:16:48.640,-0.435,0.045
21:16:48.644,-0.435,0.035
21:16:48.648,-0.41,0.045
21:16:48.652,-0.415,0.045
21:16:48.656,-0.425,0.055
21:16:48.660,-0.415,0.045
21:16:48.664,-0.435,0.05
21:16:48.668,-0.435,0.035
21:16:48.672,-0.435,0.04
21:16:48.676,-0.44,0.07
21:16:48.680,-0.44,0.045
21:16:48.684,-0.46,0.035
21:16:48.688,-0.465,0.04
21:16:48.692,-0.475,0.05
21:16:48.696,-0.475,0.055
21:16:48.700,-0.51,0.07
21:16:48.704,-0.49,0.04
21:16:48.708,-0.485,0.045
21:16:48.712,-0.48,0.02
21:16:48.716,-0.48,0.025
21:16:48.720,-0.49,0.015
21:16:48.724,-0.49,0.015
21:16:48.728,-0.48,0.03
21:16:48.732,-0.475,0.02
21:16:48.736,-0.47,0.04
21:16:48.740,-0.48,0.03
21:16:48.744,-0.455,0.025
21:16:48.748,-0.44,0.05
21:16:48.752,-0.44,0.05
21:16:48.756,-0.4,0.06
21:16:48.760,-0.41,0.045
21:16:48.764,-0.395,0.035
21:16:48.768,-0.375,0.015
21:16:48.772,-0.36,0.01
21:16:48.776,-0.375,0.0
21:16:48.780,-0.345,-0.01
21:16:48.784,-0.32,-0.025
21:16:48.788,-0.32,0.005
21:16:48.792,-0.295,-0.01
21:16:48.796,-0.305,-0.015
21:16:48.800,-0.295,-0.02
21:16:48.804,-0.295,-0.035
21:16:48.808,-0.285,-0.065
21:16:48.812,-0.285,-0.03
21:16:48.816,-0.28,-0.06
21:16:48.820,-0.26,-0.025
21:16:48.824,-0.24,-0.025
21:16:48.828,-0.24,-0.05
21:16:48.832,-0.23,-0.025
21:16:48.836,-0.215,-0.035
21:16:48.840,-0.22,-0.035
21:16:48.844,-0.235,-0.04
21:16:48.848,-0.19,-0.035
21:16:48.852,-0.185,-0.015
21:16:48.856,-0.18,-0.025
21:16:48.860,-0.2,-0.005
21:16:48.864,-0.19,0.0
21:16:48.868,-0.18,0.0
21:16:48.872,-0.18,0.0
21:16:48.876,-0.165,0.0
21:16:48.880,-0.17,0.015
21:16:48.884,-0.15,0.0
21:16:48.888,-0.17,0.01
21:16:48.892,-0.16,0.015
21:16:48.896,-0.16,0.04
21:16:48.900,-0.14,0.035
21:16:48.904,-0.145,0.045
21:16:48.908,-0.135,0.05
21:16:48.912,-0.11,0.04
21:16:48.916,-0.11,0.055
21:16:48.920,-0.12,0.05
21:16:48.924,-0.085,0.04
21:16:48.928,-0.04,0.08
21:16:48.932,0.0,0.06
21:16:48.936,0.025,0.09
21:16:48.940,0.04,0.115
21:16:48.944,0.07,0.1
21:16:48.948,0.09,0.1
21:16:48.952,0.09,0.085
21:16:48.956,0.06,0.105
21:16:48.960,0.065,0.08
21:16:48.964,0.01,0.07
21:16:48.968,-0.03,0.04
21:16:48.972,-0.085,0.025
21:16:48.976,-0.155,0.025
21:16:48.980,-0.165,0.015
21:16:48.984,-0.24,0.02
21:16:48.988,-0.285,0.04
21:16:48.992,-0.31,0.05
21:16:48.996,-0.3,0.055
21:16:49.000,-0.32,0.065
21:16:49.004,-0.31,0.05
21:16:49.008,-0.295,0.05
21:16:49.012,-0.3,0.035
21:16:49.016,-0.29,0.035
21:16:49.020,-0.285,0.015
21:16:49.024,-0.285,0.025
21:16:49.028,-0.29,0.04
21:16:49.032,-0.3,0.04
21:16:49.036,-0.305,0.025
21:16:49.040,-0.3,0.025
21:16:49.044,-0.31,0.02
21:16:49.048,-0.285,0.03
21:16:49.052,-0.29,0.01
21:16:49.056,-0.3,0.015
21:16:49.060,-0.285,0.01
21:16:49.064,-0.29,0.0
21:16:49.068,-0.275,0.0
21:16:49.072,-0.29,-0.005
21:16:49.076,-0.305,0.0
21:16:49.080,-0.31,0.01
21:16:49.084,-0.3,0.0
21:16:49.088,-0.3,-0.005
21:16:49.092,-0.29,-0.005
21:16:49.096,-0.27,0.01
21:16:49.100,-0.265,0.0
21:16:49.104,-0.225,0.025
21:16:49.108,-0.18,0.0
21:16:49.112,-0.095,0.0
21:16:49.116,-0.005,0.0
21:16:49.120,0.08,-0.005
21:16:49.124,0.135,-0.03
21:16:49.128,0.175,-0.06
21:16:49.132,0.21,-0.095
21:16:49.136,0.21,-0.1
21:16:49.140,0.2,-0.1
21:16:49.144,0.18,-0.13
21:16:49.148,0.24,-0.225
21:16:49.152,0.465,-0.37
21:16:49.156,0.78,-0.56
21:16:49.160,1.005,-0.83
21:16:49.164,1.01,-1.05
21:16:49.168,0.73,-1.16
21:16:49.172,0.25,-0.995
21:16:49.176,-0.11,-0.64
21:16:49.180,-0.31,-0.315
21:16:49.184,-0.355,-0.115
21:16:49.188,-0.395,0.0
21:16:49.192,-0.39,0.06
21:16:49.196,-0.395,0.115
21:16:49.200,-0.415,0.15
21:16:49.204,-0.43,0.165
21:16:49.208,-0.42,0.155
21:16:49.212,-0.44,0.15
21:16:49.216,-0.445,0.135
21:16:49.220,-0.435,0.09
21:16:49.224,-0.425,0.085
21:16:49.228,-0.435,0.1
21:16:49.232,-0.455,0.115
21:16:49.236,-0.45,0.13
21:16:49.240,-0.44,0.11
21:16:49.244,-0.45,0.095
21:16:49.248,-0.445,0.11
21:16:49.252,-0.455,0.08
21:16:49.256,-0.45,0.095
21:16:49.260,-0.45,0.085
21:16:49.264,-0.48,0.1
21:16:49.268,-0.48,0.075
21:16:49.272,-0.49,0.07
21:16:49.276,-0.48,0.085
21:16:49.280,-0.5,0.08
21:16:49.284,-0.5,0.075
21:16:49.288,-0.51,0.07
21:16:49.292,-0.505,0.065
21:16:49.296,-0.525,0.055
21:16:49.300,-0.505,0.07
21:16:49.304,-0.5,0.045
21:16:49.308,-0.505,0.065
21:16:49.312,-0.5,0.04
21:16:49.316,-0.495,0.05
21:16:49.320,-0.5,0.065
21:16:49.324,-0.495,0.06
21:16:49.328,-0.485,0.04
21:16:49.332,-0.485,0.06
21:16:49.336,-0.465,0.05
21:16:49.340,-0.48,0.035
21:16:49.344,-0.46,0.045
21:16:49.348,-0.465,0.045
21:16:49.352,-0.45,0.04
21:16:49.356,-0.43,0.035
21:16:49.360,-0.425,0.015
21:16:49.364,-0.435,0.0
21:16:49.368,-0.415,0.005
21:16:49.372,-0.395,-0.01
21:16:49.376,-0.4,-0.02
21:16:49.380,-0.405,-0.02
21:16:49.384,-0.41,-0.03
21:16:49.388,-0.37,-0.03
21:16:49.392,-0.375,-0.035
21:16:49.396,-0.34,-0.06
21:16:49.400,-0.335,-0.06
21:16:49.404,-0.33,-0.055
21:16:49.408,-0.33,-0.085
21:16:49.412,-0.31,-0.095
21:16:49.416,-0.3,-0.09
21:16:49.420,-0.28,-0.065
21:16:49.424,-0.275,-0.065
21:16:49.428,-0.28,-0.07
21:16:49.432,-0.265,-0.075
21:16:49.436,-0.27,-0.075
21:16:49.440,-0.245,-0.075
21:16:49.444,-0.245,-0.09
21:16:49.448,-0.245,-0.055
21:16:49.452,-0.225,-0.06
21:16:49.456,-0.195,-0.06
21:16:49.460,-0.23,-0.06
21:16:49.464,-0.21,-0.07
21:16:49.468,-0.235,-0.07
21:16:49.472,-0.21,-0.06
21:16:49.476,-0.23,-0.075
21:16:49.480,-0.25,-0.075
21:16:49.484,-0.245,-0.06
21:16:49.488,-0.24,-0.05
21:16:49.492,-0.23,-0.075
21:16:49.496,-0.27,-0.08
21:16:49.500,-0.25,-0.08
21:16:49.504,-0.255,-0.085
21:16:49.508,-0.24,-0.09
21:16:49.512,-0.23,-0.07
21:16:49.516,-0.215,-0.1
21:16:49.520,-0.2,-0.1
21:16:49.524,-0.22,-0.08
21:16:49.528,-0.21,-0.095
21:16:49.532,-0.17,-0.075
21:16:49.536,-0.15,-0.08
21:16:49.540,-0.11,-0.05
21:16:49.544,-0.08,-0.05
21:16:49.548,-0.005,-0.02
21:16:49.552,0.035,-0.005
21:16:49.556,0.06,-0.015
21:16:49.560,0.075,-0.015
21:16:49.564,0.065,0.0
21:16:49.568,0.055,0.005
21:16:49.572,0.015,0.0
21:16:49.576,-0.03,-0.035
21:16:49.580,-0.09,-0.06
21:16:49.584,-0.14,-0.08
21:16:49.588,-0.2,-0.115
21:16:49.592,-0.24,-0.09
21:16:49.596,-0.3,-0.115
21:16:49.600,-0.36,-0.08
21:16:49.604,-0.355,-0.09
21:16:49.608,-0.39,-0.105
21:16:49.612,-0.38,-0.09
21:16:49.616,-0.39,-0.1
21:16:49.620,-0.375,-0.1
21:16:49.624,-0.375,-0.125
21:16:49.628,-0.355,-0.115
21:16:49.632,-0.345,-0.125
21:16:49.636,-0.35,-0.13
21:16:49.640,-0.34,-0.13
21:16:49.644,-0.35,-0.14
21:16:49.648,-0.355,-0.14
21:16:49.652,-0.34,-0.15
21:16:49.656,-0.335,-0.17
21:16:49.660,-0.31,-0.14
21:16:49.664,-0.33,-0.155
21:16:49.668,-0.315,-0.16
21:16:49.672,-0.31,-0.17
21:16:49.676,-0.315,-0.16
21:16:49.680,-0.31,-0.17
21:16:49.684,-0.29,-0.165
21:16:49.688,-0.3,-0.17
21:16:49.692,-0.3,-0.18
21:16:49.696,-0.295,-0.18
21:16:49.700,-0.3,-0.19
21:16:49.704,-0.28,-0.17
21:16:49.708,-0.29,-0.18
21:16:49.712,-0.28,-0.165
21:16:49.716,-0.24,-0.18
21:16:49.720,-0.205,-0.19
21:16:49.724,-0.11,-0.21
21:16:49.728,-0.015,-0.21
21:16:49.732,0.08,-0.245
21:16:49.736,0.17,-0.26
21:16:49.740,0.21,-0.305
21:16:49.744,0.265,-0.33
21:16:49.748,0.305,-0.31
21:16:49.752,0.27,-0.305
21:16:49.756,0.255,-0.34
21:16:49.760,0.355,-0.42
21:16:49.764,0.605,-0.54
21:16:49.768,0.905,-0.73
21:16:49.772,1.1,-0.99
21:16:49.776,1.035,-1.16
21:16:49.780,0.7,-1.2
21:16:49.784,0.26,-0.995
21:16:49.788,-0.1,-0.68
21:16:49.792,-0.26,-0.42
21:16:49.796,-0.29,-0.26
21:16:49.800,-0.31,-0.18
21:16:49.804,-0.34,-0.085
21:16:49.808,-0.365,-0.035
21:16:49.812,-0.385,-0.02
21:16:49.816,-0.41,-0.02
21:16:49.820,-0.41,-0.035
21:16:49.824,-0.42,-0.06
21:16:49.828,-0.44,-0.08
21:16:49.832,-0.44,-0.1
21:16:49.836,-0.44,-0.095
21:16:49.840,-0.425,-0.11
21:16:49.844,-0.44,-0.1
21:16:49.848,-0.42,-0.1
21:16:49.852,-0.425,-0.115
21:16:49.856,-0.435,-0.085
21:16:49.860,-0.42,-0.095
21:16:49.864,-0.42,-0.1
21:16:49.868,-0.425,-0.1
21:16:49.872,-0.415,-0.105
21:16:49.876,-0.42,-0.09
21:16:49.880,-0.43,-0.075
21:16:49.884,-0.43,-0.07
21:16:49.888,-0.425,-0.095
21:16:49.892,-0.43,-0.07
21:16:49.896,-0.41,-0.075
21:16:49.900,-0.43,-0.07
21:16:49.904,-0.41,-0.055
21:16:49.908,-0.4,-0.05
21:16:49.912,-0.4,-0.04
21:16:49.916,-0.41,-0.035
21:16:49.920,-0.42,-0.045
21:16:49.924,-0.395,-0.045
21:16:49.928,-0.4,-0.045
21:16:49.932,-0.41,-0.035
21:16:49.936,-0.39,-0.005
21:16:49.940,-0.405,-0.01
21:16:49.944,-0.405,-0.025
21:16:49.948,-0.395,-0.03
21:16:49.952,-0.4,-0.045
21:16:49.956,-0.4,-0.01
21:16:49.960,-0.39,-0.02
21:16:49.964,-0.36,-0.025
21:16:49.968,-0.355,-0.02
21:16:49.972,-0.345,-0.05
21:16:49.976,-0.34,-0.045
21:16:49.980,-0.34,-0.05
21:16:49.984,-0.315,-0.02
21:16:49.988,-0.315,-0.04
21:16:49.992,-0.3,-0.04
21:16:49.996,-0.29,-0.08
21:16:50.000,-0.25,-0.085
21:16:50.004,-0.22,-0.06
21:16:50.008,-0.215,-0.065
21:16:50.012,-0.2,-0.09
21:16:50.016,-0.205,-0.085
21:16:50.020,-0.19,-0.085
21:16:50.024,-0.185,-0.08
21:16:50.028,-0.165,-0.06
21:16:50.032,-0.155,-0.08
21:16:50.036,-0.14,-0.065
21:16:50.040,-0.15,-0.09
21:16:50.044,-0.14,-0.09
21:16:50.048,-0.13,-0.1
21:16:50.052,-0.14,-0.11
21:16:50.056,-0.14,-0.105
21:16:50.060,-0.13,-0.08
21:16:50.064,-0.13,-0.1
21:16:50.068,-0.125,-0.095
21:16:50.072,-0.135,-0.085
21:16:50.076,-0.12,-0.09
21:16:50.080,-0.14,-0.115
21:16:50.084,-0.125,-0.095
21:16:50.088,-0.13,-0.1
21:16:50.092,-0.13,-0.08
21:16:50.096,-0.135,-0.1
21:16:50.100,-0.14,-0.1
21:16:50.104,-0.145,-0.11
21:16:50.108,-0.145,-0.08
21:16:50.112,-0.12,-0.08
21:16:50.116,-0.12,-0.08
21:16:50.120,-0.115,-0.08
21:16:50.124,-0.1,-0.08
21:16:50.128,-0.105,-0.075
21:16:50.132,-0.08,-0.075
21:16:50.136,-0.07,-0.07
21:16:50.140,-0.075,-0.075
21:16:50.144,-0.075,-0.05
21:16:50.148,-0.065,-0.08
21:16:50.152,-0.03,-0.065
21:16:50.156,0.0,-0.065
21:16:50.160,0.05,-0.04
21:16:50.164,0.07,-0.03
21:16:50.168,0.08,-0.01
21:16:50.172,0.135,-0.01
21:16:50.176,0.14,-0.015
21:16:50.180,0.15,0.0
21:16:50.184,0.13,-0.025
21:16:50.188,0.125,-0.005
21:16:50.192,0.075,-0.025
21:16:50.196,0.035,-0.07
21:16:50.200,-0.02,-0.09
21:16:50.204,-0.08,-0.105
21:16:50.208,-0.13,-0.1
21:16:50.212,-0.18,-0.065
21:16:50.216,-0.235,-0.07
21:16:50.220,-0.275,-0.045
21:16:50.224,-0.27,-0.045
21:16:50.228,-0.265,-0.07
21:16:50.232,-0.25,-0.065
21:16:50.236,-0.225,-0.07
21:16:50.240,-0.235,-0.07
21:16:50.244,-0.23,-0.075
21:16:50.248,-0.23,-0.065
21:16:50.252,-0.225,-0.08
21:16:50.256,-0.22,-0.07
21:16:50.260,-0.23,-0.07
21:16:50.264,-0.22,-0.055
21:16:50.268,-0.225,-0.065
21:16:50.272,-0.21,-0.075
21:16:50.276,-0.22,-0.08
21:16:50.280,-0.235,-0.08
21:16:50.284,-0.225,-0.085
21:16:50.288,-0.23,-0.08
21:16:50.292,-0.24,-0.08
21:16:50.296,-0.225,-0.09
21:16:50.300,-0.21,-0.1
21:16:50.304,-0.23,-0.095
21:16:50.308,-0.21,-0.09
21:16:50.312,-0.21,-0.11
21:16:50.316,-0.21,-0.1
21:16:50.320,-0.2,-0.095
21:16:50.324,-0.18,-0.11
21:16:50.328,-0.175,-0.105
21:16:50.332,-0.12,-0.1
21:16:50.336,-0.08,-0.095
21:16:50.340,-0.005,-0.11
21:16:50.344,0.075,-0.115
21:16:50.348,0.165,-0.135
21:16:50.352,0.205,-0.14
21:16:50.356,0.24,-0.18
21:16:50.360,0.265,-0.24
21:16:50.364,0.285,-0.225
21:16:50.368,0.28,-0.24
21:16:50.372,0.265,-0.29
21:16:50.376,0.38,-0.42
21:16:50.380,0.62,-0.56
21:16:50.384,0.945,-0.79
21:16:50.388,1.13,-1.03
21:16:50.392,1.055,-1.21
21:16:50.396,0.7,-1.22
21:16:50.400,0.22,-1.0
21:16:50.404,-0.105,-0.66
21:16:50.408,-0.25,-0.365
21:16:50.412,-0.335,-0.22
21:16:50.416,-0.32,-0.11
21:16:50.420,-0.3,-0.04
21:16:50.424,-0.34,0.005
21:16:50.428,-0.34,0.02
21:16:50.432,-0.345,0.015
21:16:50.436,-0.355,-0.01
21:16:50.440,-0.355,0.005
21:16:50.444,-0.35,-0.005
21:16:50.448,-0.37,-0.04
21:16:50.452,-0.35,-0.02
21:16:50.456,-0.35,-0.03
21:16:50.460,-0.345,-0.03
21:16:50.464,-0.34,-0.01
21:16:50.468,-0.35,-0.035
21:16:50.472,-0.345,-0.02
21:16:50.476,-0.34,-0.045
21:16:50.480,-0.345,-0.025
21:16:50.484,-0.35,-0.02
21:16:50.488,-0.38,-0.02
21:16:50.492,-0.36,-0.03
21:16:50.496,-0.375,-0.025
21:16:50.500,-0.37,-0.02
21:16:50.504,-0.38,-0.04
21:16:50.508,-0.39,-0.035
21:16:50.512,-0.39,-0.055
21:16:50.516,-0.41,-0.025
21:16:50.520,-0.4,-0.04
21:16:50.524,-0.42,-0.035
21:16:50.528,-0.415,-0.025
21:16:50.532,-0.4,-0.03
21:16:50.536,-0.395,-0.035
21:16:50.540,-0.4,-0.025
21:16:50.544,-0.385,-0.055
21:16:50.548,-0.395,-0.05
21:16:50.552,-0.42,-0.04
21:16:50.556,-0.415,-0.045
21:16:50.560,-0.38,-0.035
21:16:50.564,-0.385,-0.02
21:16:50.568,-0.375,-0.045
21:16:50.572,-0.34,-0.045
21:16:50.576,-0.335,-0.045
21:16:50.580,-0.33,-0.015
21:16:50.584,-0.305,-0.03
21:16:50.588,-0.305,-0.045
21:16:50.592,-0.31,-0.05
21:16:50.596,-0.3,-0.065
21:16:50.600,-0.27,-0.045
21:16:50.604,-0.275,-0.045
21:16:50.608,-0.25,-0.055
21:16:50.612,-0.25,-0.07
21:16:50.616,-0.225,-0.065
21:16:50.620,-0.23,-0.08
21:16:50.624,-0.245,-0.085
21:16:50.628,-0.23,-0.1
21:16:50.632,-0.22,-0.115
21:16:50.636,-0.195,-0.11
21:16:50.640,-0.18,-0.135
21:16:50.644,-0.175,-0.125
21:16:50.648,-0.16,-0.125
21:16:50.652,-0.16,-0.115
21:16:50.656,-0.15,-0.11
21:16:50.660,-0.155,-0.12
21:16:50.664,-0.14,-0.11
21:16:50.668,-0.135,-0.115
21:16:50.672,-0.145,-0.11
21:16:50.676,-0.135,-0.115
21:16:50.680,-0.13,-0.09
21:16:50.684,-0.105,-0.085
21:16:50.688,-0.105,-0.095
21:16:50.692,-0.12,-0.09
21:16:50.696,-0.12,-0.065
21:16:50.700,-0.115,-0.075
21:16:50.704,-0.105,-0.075
21:16:50.708,-0.11,-0.06
21:16:50.712,-0.1,-0.06
21:16:50.716,-0.11,-0.06
21:16:50.720,-0.125,-0.05
21:16:50.724,-0.11,-0.065
21:16:50.728,-0.105,-0.06
21:16:50.732,-0.09,-0.065
21:16:50.736,-0.1,-0.08
21:16:50.740,-0.09,-0.07
21:16:50.744,-0.09,-0.065
21:16:50.748,-0.08,-0.06
21:16:50.752,-0.035,-0.065
21:16:50.756,-0.01,-0.065
21:16:50.760,0.015,-0.07
21:16:50.764,0.06,-0.035
21:16:50.768,0.085,-0.025
21:16:50.772,0.095,-0.015
21:16:50.776,0.13,-0.015
21:16:50.780,0.125,0.0
21:16:50.784,0.135,-0.01
21:16:50.788,0.115,-0.02
21:16:50.792,0.085,-0.045
21:16:50.796,0.07,-0.055
21:16:50.800,0.005,-0.07
21:16:50.804,-0.04,-0.085
21:16:50.808,-0.105,-0.075
21:16:50.812,-0.15,-0.07
21:16:50.816,-0.195,-0.075
21:16:50.820,-0.245,-0.045
21:16:50.824,-0.26,-0.055
21:16:50.828,-0.26,-0.035
21:16:50.832,-0.285,-0.05
21:16:50.836,-0.26,-0.07
21:16:50.840,-0.26,-0.08
21:16:50.844,-0.26,-0.085
21:16:50.848,-0.275,-0.08
21:16:50.852,-0.26,-0.095
21:16:50.856,-0.26,-0.075
21:16:50.860,-0.245,-0.075
21:16:50.864,-0.24,-0.095
21:16:50.868,-0.23,-0.1
21:16:50.872,-0.245,-0.08
21:16:50.876,-0.23,-0.11
21:16:50.880,-0.22,-0.08
21:16:50.884,-0.235,-0.1
21:16:50.888,-0.22,-0.075
21:16:50.892,-0.22,-0.095
21:16:50.896,-0.22,-0.085
21:16:50.900,-0.235,-0.1
21:16:50.904,-0.225,-0.08
21:16:50.908,-0.2,-0.08
21:16:50.912,-0.215,-0.065
21:16:50.916,-0.19,-0.065
21:16:50.920,-0.195,-0.07
21:16:50.924,-0.19,-0.06
21:16:50.928,-0.18,-0.075
21:16:50.932,-0.15,-0.065
21:16:50.936,-0.145,-0.065
21:16:50.940,-0.035,-0.055
21:16:50.944,0.045,-0.075
21:16:50.948,0.105,-0.065
21:16:50.952,0.175,-0.11
21:16:50.956,0.22,-0.13
21:16:50.960,0.25,-0.175
21:16:50.964,0.255,-0.175
21:16:50.968,0.265,-0.195
21:16:50.972,0.26,-0.215
21:16:50.976,0.275,-0.305
21:16:50.980,0.44,-0.41
21:16:50.984,0.725,-0.565
21:16:50.988,1.01,-0.855
21:16:50.992,1.12,-1.045
21:16:50.996,0.9,-1.225
21:16:51.000,0.47,-1.12
21:16:51.004,0.05,-0.805
21:16:51.008,-0.17,-0.47
21:16:51.012,-0.275,-0.24
21:16:51.016,-0.295,-0.1
21:16:51.020,-0.3,-0.02
21:16:51.024,-0.3,0.045
21:16:51.028,-0.32,0.07
21:16:51.032,-0.32,0.085
21:16:51.036,-0.325,0.08
21:16:51.040,-0.31,0.045
21:16:51.044,-0.32,0.035
21:16:51.048,-0.32,0.035
21:16:51.052,-0.335,0.05
21:16:51.056,-0.325,0.035
21:16:51.060,-0.34,0.04
21:16:51.064,-0.315,0.025
21:16:51.068,-0.335,0.04
21:16:51.072,-0.335,0.025
21:16:51.076,-0.345,0.03
21:16:51.080,-0.36,0.015
21:16:51.084,-0.345,0.0
21:16:51.088,-0.35,0.02
21:16:51.092,-0.365,0.015
21:16:51.096,-0.355,0.01
21:16:51.100,-0.35,0.005
21:16:51.104,-0.365,0.025
21:16:51.108,-0.365,0.015
21:16:51.112,-0.375,0.015
