Time,ECG1,ECG2
21:31:04.688,-0.15,0.18
21:31:04.692,-0.16,0.175
21:31:04.696,-0.165,0.19
21:31:04.700,-0.17,0.165
21:31:04.704,-0.17,0.165
21:31:04.708,-0.19,0.175
21:31:04.712,-0.2,0.175
21:31:04.716,-0.215,0.165
21:31:04.720,-0.21,0.17
21:31:04.724,-0.205,0.15
21:31:04.728,-0.195,0.155
21:31:04.732,-0.195,0.11
21:31:04.736,-0.19,0.145
21:31:04.740,-0.17,0.145
21:31:04.744,-0.175,0.14
21:31:04.748,-0.18,0.15
21:31:04.752,-0.145,0.16
21:31:04.756,-0.13,0.15
21:31:04.760,-0.14,0.17
21:31:04.764,-0.14,0.155
21:31:04.768,-0.13,0.175
21:31:04.772,-0.14,0.185
21:31:04.776,-0.115,0.2
21:31:04.780,-0.13,0.215
21:31:04.784,-0.145,0.215
21:31:04.788,-0.15,0.235
21:31:04.792,-0.15,0.235
21:31:04.796,-0.175,0.235
21:31:04.800,-0.165,0.23
21:31:04.804,-0.155,0.23
21:31:04.808,-0.155,0.215
21:31:04.812,-0.16,0.23
21:31:04.816,-0.19,0.235
21:31:04.820,-0.185,0.245
21:31:04.824,-0.195,0.265
21:31:04.828,-0.2,0.25
21:31:04.832,-0.22,0.255
21:31:04.836,-0.22,0.24
21:31:04.840,-0.225,0.22
21:31:04.844,-0.225,0.26
21:31:04.848,-0.215,0.245
21:31:04.852,-0.185,0.235
21:31:04.856,-0.19,0.215
21:31:04.860,-0.165,0.23
21:31:04.864,-0.15,0.24
21:31:04.868,-0.17,0.215
21:31:04.872,-0.145,0.2
21:31:04.876,-0.15,0.18
21:31:04.880,-0.17,0.18
21:31:04.884,-0.145,0.155
21:31:04.888,-0.12,0.17
21:31:04.892,-0.115,0.185
21:31:04.896,-0.15,0.155
21:31:04.900,-0.135,0.175
21:31:04.904,-0.13,0.175
21:31:04.908,-0.145,0.17
21:31:04.912,-0.165,0.195
21:31:04.916,-0.155,0.155
21:31:04.920,-0.16,0.155
21:31:04.924,-0.14,0.135
21:31:04.928,-0.165,0.15
21:31:04.932,-0.155,0.145
21:31:04.936,-0.145,0.155
21:31:04.940,-0.155,0.17
21:31:04.944,-0.17,0.165
21:31:04.948,-0.17,0.14
21:31:04.952,-0.16,0.17
21:31:04.956,-0.17,0.16
21:31:04.960,-0.17,0.145
21:31:04.964,-0.155,0.155
21:31:04.968,-0.145,0.12
21:31:04.972,-0.11,0.15
21:31:04.976,-0.135,0.15
21:31:04.980,-0.125,0.145
21:31:04.984,-0.115,0.18
21:31:04.988,-0.105,0.175
21:31:04.992,-0.135,0.175
21:31:04.996,-0.135,0.175
21:31:05.000,-0.125,0.185
21:31:05.004,-0.14,0.195
21:31:05.008,-0.135,0.21
21:31:05.012,-0.135,0.195
21:31:05.016,-0.12,0.2
21:31:05.020,-0.12,0.22
21:31:05.024,-0.115,0.21
21:31:05.028,-0.155,0.235
21:31:05.032,-0.15,0.25
21:31:05.036,-0.145,0.225
21:31:05.040,-0.16,0.235
21:31:05.044,-0.19,0.255
21:31:05.048,-0.185,0.245
21:31:05.052,-0.16,0.215
21:31:05.056,-0.095,0.24
21:31:05.060,-0.01,0.235
21:31:05.064,0.07,0.22
21:31:05.068,0.15,0.23
21:31:05.072,0.205,0.19
21:31:05.076,0.245,0.14
21:31:05.080,0.26,0.135
21:31:05.084,0.29,0.13
21:31:05.088,0.27,0.105
21:31:05.092,0.25,0.025
21:31:05.096,0.325,-0.115
21:31:05.100,0.545,-0.305
21:31:05.104,0.86,-0.545
21:31:05.108,1.12,-0.805
21:31:05.112,1.245,-0.975
21:31:05.116,1.125,-1.005
21:31:05.120,0.73,-0.74
21:31:05.124,0.25,-0.37
21:31:05.128,-0.02,-0.065
21:31:05.132,-0.16,0.13
21:31:05.136,-0.22,0.235
21:31:05.140,-0.245,0.295
21:31:05.144,-0.27,0.31
21:31:05.148,-0.28,0.325
21:31:05.152,-0.275,0.31
21:31:05.156,-0.305,0.29
21:31:05.160,-0.33,0.285
21:31:05.164,-0.335,0.265
21:31:05.168,-0.345,0.235
21:31:05.172,-0.345,0.25
21:31:05.176,-0.35,0.235
21:31:05.180,-0.34,0.215
21:31:05.184,-0.335,0.225
21:31:05.188,-0.33,0.215
21:31:05.192,-0.345,0.195
21:31:05.196,-0.345,0.205
21:31:05.200,-0.34,0.21
21:31:05.204,-0.365,0.175
21:31:05.208,-0.385,0.2
21:31:05.212,-0.37,0.215
21:31:05.216,-0.405,0.23
21:31:05.220,-0.405,0.215
21:31:05.224,-0.41,0.205
21:31:05.228,-0.38,0.215
21:31:05.232,-0.375,0.24
21:31:05.236,-0.355,0.24
21:31:05.240,-0.38,0.245
21:31:05.244,-0.38,0.24
21:31:05.248,-0.385,0.235
21:31:05.252,-0.385,0.27
21:31:05.256,-0.4,0.28
21:31:05.260,-0.395,0.28
21:31:05.264,-0.41,0.285
21:31:05.268,-0.38,0.28
21:31:05.272,-0.4,0.285
21:31:05.276,-0.41,0.295
21:31:05.280,-0.39,0.29
21:31:05.284,-0.425,0.265
21:31:05.288,-0.44,0.275
21:31:05.292,-0.46,0.24
21:31:05.296,-0.4,0.25
21:31:05.300,-0.36,0.215
21:31:05.304,-0.345,0.215
21:31:05.308,-0.315,0.165
21:31:05.312,-0.33,0.16
21:31:05.316,-0.315,0.14
21:31:05.320,-0.325,0.16
21:31:05.324,-0.34,0.13
21:31:05.328,-0.315,0.155
21:31:05.332,-0.32,0.145
21:31:05.336,-0.345,0.125
21:31:05.340,-0.35,0.12
21:31:05.344,-0.35,0.12
21:31:05.348,-0.33,0.09
21:31:05.352,-0.34,0.09
21:31:05.356,-0.34,0.1
21:31:05.360,-0.31,0.055
21:31:05.364,-0.295,0.06
21:31:05.368,-0.275,0.05
21:31:05.372,-0.285,0.05
21:31:05.376,-0.27,0.055
21:31:05.380,-0.27,0.045
21:31:05.384,-0.29,0.035
21:31:05.388,-0.28,0.045
21:31:05.392,-0.29,0.025
21:31:05.396,-0.275,0.015
21:31:05.400,-0.295,0.01
21:31:05.404,-0.3,0.005
21:31:05.408,-0.29,-0.005
21:31:05.412,-0.29,0.005
21:31:05.416,-0.31,0.0
21:31:05.420,-0.325,0.005
21:31:05.424,-0.315,-0.015
21:31:05.428,-0.31,0.0
21:31:05.432,-0.305,-0.01
21:31:05.436,-0.31,0.0
21:31:05.440,-0.33,0.0
21:31:05.444,-0.305,0.0
21:31:05.448,-0.295,-0.02
21:31:05.452,-0.255,-0.015
21:31:05.456,-0.21,0.035
21:31:05.460,-0.195,0.025
21:31:05.464,-0.175,0.025
21:31:05.468,-0.18,0.035
21:31:05.472,-0.2,0.05
21:31:05.476,-0.205,0.09
21:31:05.480,-0.23,0.09
21:31:05.484,-0.24,0.08
21:31:05.488,-0.25,0.085
21:31:05.492,-0.26,0.095
21:31:05.496,-0.26,0.105
21:31:05.500,-0.275,0.07
21:31:05.504,-0.28,0.08
21:31:05.508,-0.295,0.085
21:31:05.512,-0.28,0.065
21:31:05.516,-0.3,0.045
21:31:05.520,-0.27,0.03
21:31:05.524,-0.275,0.0
21:31:05.528,-0.25,-0.005
21:31:05.532,-0.26,-0.01
21:31:05.536,-0.26,-0.06
21:31:05.540,-0.255,-0.09
21:31:05.544,-0.245,-0.1
21:31:05.548,-0.255,-0.1
21:31:05.552,-0.275,-0.105
21:31:05.556,-0.27,-0.125
21:31:05.560,-0.28,-0.13
21:31:05.564,-0.275,-0.145
21:31:05.568,-0.295,-0.125
21:31:05.572,-0.295,-0.16
21:31:05.576,-0.275,-0.17
21:31:05.580,-0.265,-0.17
21:31:05.584,-0.27,-0.175
21:31:05.588,-0.265,-0.185
21:31:05.592,-0.255,-0.15
21:31:05.596,-0.29,-0.175
21:31:05.600,-0.28,-0.165
21:31:05.604,-0.28,-0.18
21:31:05.608,-0.28,-0.19
21:31:05.612,-0.29,-0.175
21:31:05.616,-0.29,-0.205
21:31:05.620,-0.29,-0.22
21:31:05.624,-0.315,-0.21
21:31:05.628,-0.315,-0.21
21:31:05.632,-0.35,-0.22
21:31:05.636,-0.335,-0.22
21:31:05.640,-0.34,-0.235
21:31:05.644,-0.38,-0.25
21:31:05.648,-0.37,-0.28
21:31:05.652,-0.355,-0.285
21:31:05.656,-0.345,-0.285
21:31:05.660,-0.355,-0.245
21:31:05.664,-0.345,-0.27
21:31:05.668,-0.35,-0.28
21:31:05.672,-0.33,-0.275
21:31:05.676,-0.315,-0.295
21:31:05.680,-0.315,-0.3
21:31:05.684,-0.305,-0.315
21:31:05.688,-0.28,-0.28
21:31:05.692,-0.27,-0.31
21:31:05.696,-0.235,-0.3
21:31:05.700,-0.22,-0.295
21:31:05.704,-0.2,-0.295
21:31:05.708,-0.195,-0.285
21:31:05.712,-0.215,-0.275
21:31:05.716,-0.22,-0.28
21:31:05.720,-0.22,-0.3
21:31:05.724,-0.21,-0.27
21:31:05.728,-0.21,-0.265
21:31:05.732,-0.215,-0.265
21:31:05.736,-0.215,-0.27
21:31:05.740,-0.18,-0.3
21:31:05.744,-0.18,-0.29
21:31:05.748,-0.165,-0.32
21:31:05.752,-0.165,-0.325
21:31:05.756,-0.16,-0.34
21:31:05.760,-0.18,-0.385
21:31:05.764,-0.18,-0.405
21:31:05.768,-0.19,-0.415
21:31:05.772,-0.175,-0.455
21:31:05.776,-0.145,-0.465
21:31:05.780,-0.055,-0.445
21:31:05.784,0.015,-0.465
21:31:05.788,0.115,-0.495
21:31:05.792,0.185,-0.52
21:31:05.796,0.255,-0.575
21:31:05.800,0.31,-0.595
21:31:05.804,0.38,-0.615
21:31:05.808,0.38,-0.605
21:31:05.812,0.35,-0.62
21:31:05.816,0.32,-0.66
21:31:05.820,0.49,-0.77
21:31:05.824,0.755,-0.995
21:31:05.828,1.01,-1.21
21:31:05.832,1.135,-1.38
21:31:05.836,0.99,-1.48
21:31:05.840,0.55,-1.295
21:31:05.844,0.08,-1.02
21:31:05.848,-0.175,-0.755
21:31:05.852,-0.24,-0.62
21:31:05.856,-0.285,-0.54
21:31:05.860,-0.35,-0.475
21:31:05.864,-0.365,-0.435
21:31:05.868,-0.435,-0.39
21:31:05.872,-0.45,-0.39
21:31:05.876,-0.46,-0.43
21:31:05.880,-0.465,-0.42
21:31:05.884,-0.435,-0.455
21:31:05.888,-0.44,-0.49
21:31:05.892,-0.455,-0.5
21:31:05.896,-0.46,-0.51
21:31:05.900,-0.46,-0.505
21:31:05.904,-0.45,-0.5
21:31:05.908,-0.425,-0.49
21:31:05.912,-0.415,-0.465
21:31:05.916,-0.42,-0.475
21:31:05.920,-0.455,-0.465
21:31:05.924,-0.5,-0.47
21:31:05.928,-0.52,-0.47
21:31:05.932,-0.535,-0.45
21:31:05.936,-0.535,-0.435
21:31:05.940,-0.535,-0.46
21:31:05.944,-0.53,-0.445
21:31:05.948,-0.515,-0.475
21:31:05.952,-0.5,-0.455
21:31:05.956,-0.495,-0.45
21:31:05.960,-0.485,-0.475
21:31:05.964,-0.485,-0.495
21:31:05.968,-0.475,-0.51
21:31:05.972,-0.485,-0.51
21:31:05.976,-0.495,-0.485
21:31:05.980,-0.49,-0.525
21:31:05.984,-0.51,-0.495
21:31:05.988,-0.49,-0.51
21:31:05.992,-0.51,-0.5
21:31:05.996,-0.5,-0.505
21:31:06.000,-0.505,-0.5
21:31:06.004,-0.495,-0.5
21:31:06.008,-0.5,-0.525
21:31:06.012,-0.49,-0.525
21:31:06.016,-0.465,-0.51
21:31:06.020,-0.455,-0.51
21:31:06.024,-0.475,-0.505
21:31:06.028,-0.46,-0.51
21:31:06.032,-0.455,-0.505
21:31:06.036,-0.435,-0.485
21:31:06.040,-0.415,-0.49
21:31:06.044,-0.395,-0.51
21:31:06.048,-0.38,-0.495
21:31:06.052,-0.395,-0.5
21:31:06.056,-0.395,-0.495
21:31:06.060,-0.38,-0.49
21:31:06.064,-0.355,-0.465
21:31:06.068,-0.335,-0.475
21:31:06.072,-0.335,-0.49
21:31:06.076,-0.345,-0.47
21:31:06.080,-0.315,-0.465
21:31:06.084,-0.285,-0.475
21:31:06.088,-0.3,-0.475
21:31:06.092,-0.31,-0.455
21:31:06.096,-0.315,-0.45
21:31:06.100,-0.27,-0.405
21:31:06.104,-0.27,-0.4
21:31:06.108,-0.245,-0.4
21:31:06.112,-0.215,-0.385
21:31:06.116,-0.18,-0.375
21:31:06.120,-0.18,-0.355
21:31:06.124,-0.18,-0.3
21:31:06.128,-0.185,-0.32
21:31:06.132,-0.175,-0.29
21:31:06.136,-0.205,-0.245
21:31:06.140,-0.23,-0.235
21:31:06.144,-0.215,-0.225
21:31:06.148,-0.2,-0.215
21:31:06.152,-0.22,-0.18
21:31:06.156,-0.215,-0.175
21:31:06.160,-0.21,-0.15
21:31:06.164,-0.235,-0.145
21:31:06.168,-0.26,-0.145
21:31:06.172,-0.275,-0.14
21:31:06.176,-0.29,-0.155
21:31:06.180,-0.285,-0.12
21:31:06.184,-0.29,-0.105
21:31:06.188,-0.305,-0.12
21:31:06.192,-0.295,-0.1
21:31:06.196,-0.28,-0.11
21:31:06.200,-0.29,-0.105
21:31:06.204,-0.3,-0.12
21:31:06.208,-0.275,-0.12
21:31:06.212,-0.265,-0.11
21:31:06.216,-0.29,-0.115
21:31:06.220,-0.29,-0.105
21:31:06.224,-0.29,-0.095
21:31:06.228,-0.28,-0.075
21:31:06.232,-0.28,-0.07
21:31:06.236,-0.29,-0.07
21:31:06.240,-0.275,-0.055
21:31:06.244,-0.275,-0.085
21:31:06.248,-0.275,-0.055
21:31:06.252,-0.26,-0.045
21:31:06.256,-0.27,-0.04
21:31:06.260,-0.27,-0.055
21:31:06.264,-0.27,-0.045
21:31:06.268,-0.275,-0.03
21:31:06.272,-0.265,-0.025
21:31:06.276,-0.25,-0.02
21:31:06.280,-0.265,-0.025
21:31:06.284,-0.25,-0.02
21:31:06.288,-0.255,0.0
21:31:06.292,-0.245,-0.01
21:31:06.296,-0.265,0.0
21:31:06.300,-0.245,-0.01
21:31:06.304,-0.24,-0.005
21:31:06.308,-0.225,0.015
21:31:06.312,-0.235,0.01
21:31:06.316,-0.215,0.0
21:31:06.320,-0.155,0.0
21:31:06.324,-0.105,0.0
21:31:06.328,-0.045,-0.01
21:31:06.332,0.025,-0.015
21:31:06.336,0.12,-0.045
21:31:06.340,0.175,-0.09
21:31:06.344,0.235,-0.125
21:31:06.348,0.275,-0.115
21:31:06.352,0.295,-0.13
21:31:06.356,0.32,-0.17
21:31:06.360,0.38,-0.255
21:31:06.364,0.575,-0.395
21:31:06.368,0.895,-0.6
21:31:06.372,1.215,-0.825
21:31:06.376,1.38,-1.005
21:31:06.380,1.225,-1.06
21:31:06.384,0.79,-0.89
21:31:06.388,0.37,-0.525
21:31:06.392,0.115,-0.275
21:31:06.396,0.02,-0.155
21:31:06.400,-0.035,-0.06
21:31:06.404,-0.075,0.02
21:31:06.408,-0.15,0.085
21:31:06.412,-0.24,0.08
21:31:06.416,-0.305,0.095
21:31:06.420,-0.37,0.105
21:31:06.424,-0.4,0.105
21:31:06.428,-0.42,0.105
21:31:06.432,-0.46,0.09
21:31:06.436,-0.435,0.075
21:31:06.440,-0.455,0.055
21:31:06.444,-0.445,0.055
21:31:06.448,-0.47,0.025
21:31:06.452,-0.455,0.03
21:31:06.456,-0.45,0.035
21:31:06.460,-0.465,0.025
21:31:06.464,-0.46,0.015
21:31:06.468,-0.45,0.01
21:31:06.472,-0.445,0.025
21:31:06.476,-0.45,0.01
21:31:06.480,-0.455,0.01
21:31:06.484,-0.455,0.0
21:31:06.488,-0.475,0.015
21:31:06.492,-0.455,0.025
21:31:06.496,-0.475,0.02
21:31:06.500,-0.475,0.0
21:31:06.504,-0.46,-0.005
21:31:06.508,-0.455,0.02
21:31:06.512,-0.46,0.025
21:31:06.516,-0.45,0.015
21:31:06.520,-0.44,0.015
21:31:06.524,-0.445,0.035
21:31:06.528,-0.44,0.015
21:31:06.532,-0.435,0.055
21:31:06.536,-0.42,0.05
21:31:06.540,-0.44,0.035
21:31:06.544,-0.435,0.03
21:31:06.548,-0.425,0.04
21:31:06.552,-0.405,0.05
21:31:06.556,-0.385,0.04
21:31:06.560,-0.385,0.025
21:31:06.564,-0.365,0.005
21:31:06.568,-0.365,-0.005
21:31:06.572,-0.36,-0.03
21:31:06.576,-0.34,-0.04
21:31:06.580,-0.325,-0.055
21:31:06.584,-0.305,-0.07
21:31:06.588,-0.305,-0.06
21:31:06.592,-0.285,-0.08
21:31:06.596,-0.265,-0.08
21:31:06.600,-0.23,-0.105
21:31:06.604,-0.2,-0.08
21:31:06.608,-0.16,-0.085
21:31:06.612,-0.14,-0.08
21:31:06.616,-0.12,-0.05
21:31:06.620,-0.09,-0.045
21:31:06.624,-0.065,-0.005
21:31:06.628,-0.045,0.0
21:31:06.632,0.0,0.0
21:31:06.636,0.02,0.005
21:31:06.640,0.03,-0.025
21:31:06.644,0.035,0.01
21:31:06.648,0.095,0.0
21:31:06.652,0.115,0.005
21:31:06.656,0.12,-0.005
21:31:06.660,0.12,0.035
21:31:06.664,0.105,0.015
21:31:06.668,0.06,0.04
21:31:06.672,0.005,0.01
21:31:06.676,-0.035,0.03
21:31:06.680,-0.085,0.025
21:31:06.684,-0.15,0.045
21:31:06.688,-0.185,0.045
21:31:06.692,-0.215,0.05
21:31:06.696,-0.235,0.065
21:31:06.700,-0.255,0.055
21:31:06.704,-0.25,0.07
21:31:06.708,-0.28,0.065
21:31:06.712,-0.27,0.055
21:31:06.716,-0.27,0.065
21:31:06.720,-0.245,0.05
21:31:06.724,-0.275,0.04
21:31:06.728,-0.255,0.045
21:31:06.732,-0.24,0.04
21:31:06.736,-0.235,0.01
21:31:06.740,-0.24,0.025
21:31:06.744,-0.22,0.01
21:31:06.748,-0.235,0.01
21:31:06.752,-0.21,-0.01
21:31:06.756,-0.23,0.01
21:31:06.760,-0.215,0.0
21:31:06.764,-0.22,-0.015
21:31:06.768,-0.22,-0.01
21:31:06.772,-0.215,-0.015
21:31:06.776,-0.22,-0.03
21:31:06.780,-0.235,-0.02
21:31:06.784,-0.215,-0.03
21:31:06.788,-0.235,-0.03
21:31:06.792,-0.215,-0.005
21:31:06.796,-0.22,-0.005
21:31:06.800,-0.21,-0.03
21:31:06.804,-0.22,-0.005
21:31:06.808,-0.22,-0.02
21:31:06.812,-0.2,-0.015
21:31:06.816,-0.205,-0.02
21:31:06.820,-0.2,-0.015
21:31:06.824,-0.185,-0.02
21:31:06.828,-0.195,0.0
21:31:06.832,-0.16,0.015
21:31:06.836,-0.17,0.0
21:31:06.840,-0.155,-0.005
21:31:06.844,-0.135,0.01
21:31:06.848,-0.09,-0.005
21:31:06.852,-0.025,0.0
21:31:06.856,0.03,0.0
21:31:06.860,0.125,-0.01
21:31:06.864,0.195,-0.02
21:31:06.868,0.24,-0.04
21:31:06.872,0.295,-0.08
21:31:06.876,0.34,-0.105
21:31:06.880,0.375,-0.065
21:31:06.884,0.38,-0.095
21:31:06.888,0.42,-0.16
21:31:06.892,0.555,-0.275
21:31:06.896,0.845,-0.48
21:31:06.900,1.125,-0.69
21:31:06.904,1.34,-0.935
21:31:06.908,1.295,-1.055
21:31:06.912,0.985,-0.97
21:31:06.916,0.48,-0.67
21:31:06.920,0.085,-0.28
21:31:06.924,-0.1,-0.06
21:31:06.928,-0.195,0.055
21:31:06.932,-0.255,0.15
21:31:06.936,-0.305,0.19
21:31:06.940,-0.345,0.185
21:31:06.944,-0.395,0.18
21:31:06.948,-0.4,0.16
21:31:06.952,-0.445,0.13
21:31:06.956,-0.46,0.085
21:31:06.960,-0.45,0.085
21:31:06.964,-0.47,0.04
21:31:06.968,-0.465,0.025
21:31:06.972,-0.44,0.045
21:31:06.976,-0.43,0.03
21:31:06.980,-0.45,0.05
21:31:06.984,-0.44,0.045
21:31:06.988,-0.445,0.08
21:31:06.992,-0.425,0.08
21:31:06.996,-0.44,0.085
21:31:07.000,-0.43,0.09
21:31:07.004,-0.42,0.095
21:31:07.008,-0.42,0.105
21:31:07.012,-0.42,0.12
21:31:07.016,-0.425,0.11
21:31:07.020,-0.43,0.105
21:31:07.024,-0.45,0.105
21:31:07.028,-0.445,0.095
21:31:07.032,-0.445,0.1
21:31:07.036,-0.435,0.105
21:31:07.040,-0.43,0.11
21:31:07.044,-0.44,0.095
21:31:07.048,-0.44,0.095
21:31:07.052,-0.45,0.12
21:31:07.056,-0.435,0.115
21:31:07.060,-0.43,0.125
21:31:07.064,-0.445,0.12
21:31:07.068,-0.43,0.13
21:31:07.072,-0.42,0.145
21:31:07.076,-0.405,0.125
21:31:07.080,-0.38,0.145
21:31:07.084,-0.37,0.145
21:31:07.088,-0.355,0.15
21:31:07.092,-0.305,0.135
21:31:07.096,-0.28,0.135
21:31:07.100,-0.245,0.145
21:31:07.104,-0.22,0.145
21:31:07.108,-0.18,0.17
21:31:07.112,-0.17,0.17
21:31:07.116,-0.165,0.175
21:31:07.120,-0.13,0.165
21:31:07.124,-0.115,0.165
21:31:07.128,-0.115,0.14
21:31:07.132,-0.115,0.125
21:31:07.136,-0.1,0.13
21:31:07.140,-0.1,0.12
21:31:07.144,-0.11,0.115
21:31:07.148,-0.105,0.1
21:31:07.152,-0.1,0.085
21:31:07.156,-0.12,0.075
21:31:07.160,-0.135,0.065
21:31:07.164,-0.155,0.07
21:31:07.168,-0.175,0.035
21:31:07.172,-0.205,0.025
21:31:07.176,-0.21,0.015
21:31:07.180,-0.24,0.005
21:31:07.184,-0.26,0.02
21:31:07.188,-0.24,0.025
21:31:07.192,-0.23,0.04
21:31:07.196,-0.23,0.015
21:31:07.200,-0.245,0.03
21:31:07.204,-0.23,0.03
21:31:07.208,-0.255,0.035
21:31:07.212,-0.24,0.045
21:31:07.216,-0.245,0.055
21:31:07.220,-0.26,0.05
21:31:07.224,-0.26,0.05
21:31:07.228,-0.25,0.045
21:31:07.232,-0.25,0.06
21:31:07.236,-0.255,0.055
21:31:07.240,-0.26,0.065
21:31:07.244,-0.26,0.07
21:31:07.248,-0.26,0.055
21:31:07.252,-0.28,0.065
21:31:07.256,-0.265,0.07
21:31:07.260,-0.285,0.06
21:31:07.264,-0.275,0.06
21:31:07.268,-0.25,0.04
21:31:07.272,-0.25,0.065
21:31:07.276,-0.235,0.035
21:31:07.280,-0.235,0.05
21:31:07.284,-0.23,0.055
21:31:07.288,-0.225,0.03
21:31:07.292,-0.22,0.035
21:31:07.296,-0.21,0.07
21:31:07.300,-0.2,0.075
21:31:07.304,-0.18,0.08
21:31:07.308,-0.155,0.075
21:31:07.312,-0.145,0.08
21:31:07.316,-0.12,0.12
21:31:07.320,-0.135,0.11
21:31:07.324,-0.125,0.105
21:31:07.328,-0.14,0.12
21:31:07.332,-0.14,0.125
21:31:07.336,-0.16,0.135
21:31:07.340,-0.165,0.145
21:31:07.344,-0.165,0.145
21:31:07.348,-0.155,0.135
21:31:07.352,-0.14,0.135
21:31:07.356,-0.155,0.115
21:31:07.360,-0.14,0.11
21:31:07.364,-0.135,0.07
21:31:07.368,-0.16,0.06
21:31:07.372,-0.16,0.045
21:31:07.376,-0.19,0.035
21:31:07.380,-0.205,0.005
21:31:07.384,-0.18,0.015
21:31:07.388,-0.185,0.025
21:31:07.392,-0.205,0.04
21:31:07.396,-0.18,0.035
21:31:07.400,-0.15,0.03
21:31:07.404,-0.1,0.01
21:31:07.408,-0.08,-0.005
21:31:07.412,-0.045,-0.015
21:31:07.416,0.025,-0.035
21:31:07.420,0.055,-0.075
21:31:07.424,0.08,-0.085
21:31:07.428,0.105,-0.075
21:31:07.432,0.14,-0.095
21:31:07.436,0.14,-0.16
21:31:07.440,0.165,-0.25
21:31:07.444,0.345,-0.38
21:31:07.448,0.655,-0.57
21:31:07.452,0.895,-0.83
21:31:07.456,0.985,-1.04
21:31:07.460,0.8,-1.075
21:31:07.464,0.37,-0.855
21:31:07.468,-0.09,-0.49
21:31:07.472,-0.32,-0.195
21:31:07.476,-0.425,-0.05
21:31:07.480,-0.425,0.045
21:31:07.484,-0.425,0.1
21:31:07.488,-0.45,0.13
21:31:07.492,-0.47,0.145
21:31:07.496,-0.485,0.15
21:31:07.500,-0.46,0.155
21:31:07.504,-0.5,0.135
21:31:07.508,-0.48,0.095
21:31:07.512,-0.445,0.09
21:31:07.516,-0.46,0.11
21:31:07.520,-0.45,0.105
21:31:07.524,-0.415,0.12
21:31:07.528,-0.46,0.12
21:31:07.532,-0.465,0.125
21:31:07.536,-0.475,0.135
21:31:07.540,-0.475,0.155
21:31:07.544,-0.45,0.15
21:31:07.548,-0.455,0.135
21:31:07.552,-0.45,0.145
21:31:07.556,-0.43,0.15
21:31:07.560,-0.435,0.15
21:31:07.564,-0.43,0.14
21:31:07.568,-0.44,0.135
21:31:07.572,-0.45,0.16
21:31:07.576,-0.435,0.15
21:31:07.580,-0.41,0.155
21:31:07.584,-0.395,0.135
21:31:07.588,-0.38,0.12
21:31:07.592,-0.38,0.105
21:31:07.596,-0.395,0.11
21:31:07.600,-0.415,0.085
21:31:07.604,-0.465,0.085
21:31:07.608,-0.47,0.08
21:31:07.612,-0.46,0.075
21:31:07.616,-0.47,0.06
21:31:07.620,-0.48,0.035
21:31:07.624,-0.46,0.025
21:31:07.628,-0.48,0.02
21:31:07.632,-0.505,0.0
21:31:07.636,-0.51,-0.015
21:31:07.640,-0.51,-0.02
21:31:07.644,-0.53,-0.025
21:31:07.648,-0.52,-0.045
21:31:07.652,-0.515,-0.04
21:31:07.656,-0.485,-0.05
21:31:07.660,-0.45,-0.05
21:31:07.664,-0.475,-0.095
21:31:07.668,-0.475,-0.105
21:31:07.672,-0.435,-0.125
21:31:07.676,-0.41,-0.11
21:31:07.680,-0.385,-0.11
21:31:07.684,-0.395,-0.11
21:31:07.688,-0.34,-0.11
21:31:07.692,-0.345,-0.12
21:31:07.696,-0.32,-0.14
21:31:07.700,-0.32,-0.145
21:31:07.704,-0.315,-0.13
21:31:07.708,-0.31,-0.11
21:31:07.712,-0.265,-0.115
21:31:07.716,-0.26,-0.1
21:31:07.720,-0.235,-0.095
21:31:07.724,-0.25,-0.12
21:31:07.728,-0.235,-0.09
21:31:07.732,-0.24,-0.105
21:31:07.736,-0.24,-0.075
21:31:07.740,-0.24,-0.06
21:31:07.744,-0.265,-0.08
21:31:07.748,-0.295,-0.075
21:31:07.752,-0.29,-0.12
21:31:07.756,-0.29,-0.105
21:31:07.760,-0.3,-0.08
21:31:07.764,-0.3,-0.08
21:31:07.768,-0.29,-0.075
21:31:07.772,-0.245,-0.065
21:31:07.776,-0.235,-0.1
21:31:07.780,-0.235,-0.095
21:31:07.784,-0.225,-0.105
21:31:07.788,-0.215,-0.115
21:31:07.792,-0.185,-0.12
21:31:07.796,-0.2,-0.14
21:31:07.800,-0.21,-0.15
21:31:07.804,-0.215,-0.155
21:31:07.808,-0.21,-0.165
21:31:07.812,-0.215,-0.19
21:31:07.816,-0.21,-0.18
21:31:07.820,-0.205,-0.175
21:31:07.824,-0.23,-0.21
21:31:07.828,-0.25,-0.225
21:31:07.832,-0.27,-0.24
21:31:07.836,-0.285,-0.24
21:31:07.840,-0.29,-0.255
21:31:07.844,-0.32,-0.275
21:31:07.848,-0.305,-0.265
21:31:07.852,-0.31,-0.295
21:31:07.856,-0.325,-0.3
21:31:07.860,-0.345,-0.315
21:31:07.864,-0.33,-0.335
21:31:07.868,-0.33,-0.345
21:31:07.872,-0.335,-0.345
21:31:07.876,-0.335,-0.345
21:31:07.880,-0.345,-0.365
21:31:07.884,-0.36,-0.375
21:31:07.888,-0.34,-0.385
21:31:07.892,-0.32,-0.405
21:31:07.896,-0.265,-0.385
21:31:07.900,-0.26,-0.38
21:31:07.904,-0.21,-0.405
21:31:07.908,-0.16,-0.385
21:31:07.912,-0.085,-0.385
21:31:07.916,0.005,-0.39
21:31:07.920,0.1,-0.415
21:31:07.924,0.14,-0.48
21:31:07.928,0.195,-0.52
21:31:07.932,0.27,-0.535
21:31:07.936,0.32,-0.5
21:31:07.940,0.3,-0.535
21:31:07.944,0.305,-0.585
21:31:07.948,0.4,-0.665
21:31:07.952,0.67,-0.83
21:31:07.956,0.935,-1.05
21:31:07.960,1.085,-1.26
21:31:07.964,0.98,-1.38
21:31:07.968,0.58,-1.28
21:31:07.972,0.09,-0.99
21:31:07.976,-0.19,-0.73
21:31:07.980,-0.3,-0.585
21:31:07.984,-0.335,-0.495
21:31:07.988,-0.36,-0.415
21:31:07.992,-0.39,-0.36
21:31:07.996,-0.41,-0.355
21:31:08.000,-0.4,-0.385
21:31:08.004,-0.39,-0.42
21:31:08.008,-0.41,-0.42
21:31:08.012,-0.395,-0.455
21:31:08.016,-0.365,-0.455
21:31:08.020,-0.36,-0.47
21:31:08.024,-0.37,-0.5
21:31:08.028,-0.39,-0.48
21:31:08.032,-0.38,-0.5
21:31:08.036,-0.4,-0.5
21:31:08.040,-0.385,-0.485
21:31:08.044,-0.39,-0.49
21:31:08.048,-0.375,-0.51
21:31:08.052,-0.37,-0.49
21:31:08.056,-0.405,-0.51
21:31:08.060,-0.42,-0.53
21:31:08.064,-0.43,-0.52
21:31:08.068,-0.445,-0.51
21:31:08.072,-0.47,-0.505
21:31:08.076,-0.495,-0.49
21:31:08.080,-0.525,-0.5
21:31:08.084,-0.55,-0.495
21:31:08.088,-0.565,-0.475
21:31:08.092,-0.6,-0.46
21:31:08.096,-0.61,-0.46
21:31:08.100,-0.615,-0.475
21:31:08.104,-0.625,-0.48
21:31:08.108,-0.64,-0.49
21:31:08.112,-0.625,-0.495
21:31:08.116,-0.635,-0.49
21:31:08.120,-0.63,-0.495
21:31:08.124,-0.62,-0.5
21:31:08.128,-0.595,-0.5
21:31:08.132,-0.56,-0.47
21:31:08.136,-0.545,-0.5
21:31:08.140,-0.555,-0.505
21:31:08.144,-0.54,-0.455
21:31:08.148,-0.545,-0.465
21:31:08.152,-0.52,-0.46
21:31:08.156,-0.525,-0.45
21:31:08.160,-0.505,-0.455
21:31:08.164,-0.47,-0.46
21:31:08.168,-0.48,-0.455
21:31:08.172,-0.475,-0.455
21:31:08.176,-0.435,-0.485
21:31:08.180,-0.43,-0.475
21:31:08.184,-0.44,-0.46
21:31:08.188,-0.45,-0.485
21:31:08.192,-0.43,-0.465
21:31:08.196,-0.4,-0.465
21:31:08.200,-0.395,-0.46
21:31:08.204,-0.37,-0.435
21:31:08.208,-0.355,-0.435
21:31:08.212,-0.335,-0.43
21:31:08.216,-0.33,-0.425
21:31:08.220,-0.305,-0.41
21:31:08.224,-0.28,-0.42
21:31:08.228,-0.255,-0.395
21:31:08.232,-0.22,-0.395
21:31:08.236,-0.21,-0.375
21:31:08.240,-0.2,-0.365
21:31:08.244,-0.165,-0.365
21:31:08.248,-0.165,-0.355
21:31:08.252,-0.17,-0.35
21:31:08.256,-0.155,-0.305
21:31:08.260,-0.16,-0.32
21:31:08.264,-0.13,-0.285
21:31:08.268,-0.135,-0.255
21:31:08.272,-0.125,-0.24
21:31:08.276,-0.085,-0.24
21:31:08.280,-0.11,-0.225
21:31:08.284,-0.07,-0.21
21:31:08.288,-0.025,-0.21
21:31:08.292,0.015,-0.21
21:31:08.296,0.05,-0.185
21:31:08.300,0.085,-0.2
21:31:08.304,0.095,-0.22
21:31:08.308,0.125,-0.24
21:31:08.312,0.105,-0.28
21:31:08.316,0.07,-0.265
21:31:08.320,0.04,-0.245
21:31:08.324,0.06,-0.255
21:31:08.328,0.18,-0.33
21:31:08.332,0.44,-0.455
21:31:08.336,0.74,-0.71
21:31:08.340,0.99,-0.995
21:31:08.344,1.095,-1.185
21:31:08.348,0.95,-1.12
21:31:08.352,0.525,-0.875
21:31:08.356,0.08,-0.555
21:31:08.360,-0.16,-0.26
21:31:08.364,-0.285,-0.12
21:31:08.368,-0.335,-0.055
21:31:08.372,-0.345,0.0
21:31:08.376,-0.375,0.04
21:31:08.380,-0.4,0.045
21:31:08.384,-0.44,0.055
21:31:08.388,-0.455,0.06
21:31:08.392,-0.455,0.04
21:31:08.396,-0.425,0.025
21:31:08.400,-0.455,0.005
21:31:08.404,-0.455,0.03
21:31:08.408,-0.47,0.015
21:31:08.412,-0.47,0.025
21:31:08.416,-0.465,0.005
21:31:08.420,-0.465,0.01
21:31:08.424,-0.455,0.02
21:31:08.428,-0.475,0.02
21:31:08.432,-0.48,0.025
21:31:08.436,-0.475,0.005
21:31:08.440,-0.47,0.02
21:31:08.444,-0.465,0.03
21:31:08.448,-0.465,0.035
21:31:08.452,-0.465,0.055
21:31:08.456,-0.455,0.045
21:31:08.460,-0.44,0.035
21:31:08.464,-0.425,0.07
21:31:08.468,-0.405,0.075
21:31:08.472,-0.405,0.09
21:31:08.476,-0.395,0.08
21:31:08.480,-0.395,0.1
21:31:08.484,-0.375,0.12
21:31:08.488,-0.375,0.13
21:31:08.492,-0.355,0.14
21:31:08.496,-0.34,0.12
21:31:08.500,-0.305,0.14
21:31:08.504,-0.29,0.15
21:31:08.508,-0.295,0.165
21:31:08.512,-0.28,0.175
21:31:08.516,-0.29,0.15
21:31:08.520,-0.32,0.15
21:31:08.524,-0.335,0.15
21:31:08.528,-0.365,0.145
21:31:08.532,-0.39,0.15
21:31:08.536,-0.39,0.12
21:31:08.540,-0.37,0.11
21:31:08.544,-0.38,0.095
21:31:08.548,-0.375,0.075
21:31:08.552,-0.345,0.075
21:31:08.556,-0.32,0.075
21:31:08.560,-0.3,0.07
21:31:08.564,-0.285,0.04
21:31:08.568,-0.285,0.035
21:31:08.572,-0.26,0.025
21:31:08.576,-0.27,-0.005
21:31:08.580,-0.26,-0.035
21:31:08.584,-0.255,-0.055
21:31:08.588,-0.235,-0.04
21:31:08.592,-0.225,-0.045
21:31:08.596,-0.25,-0.07
21:31:08.600,-0.25,-0.055
21:31:08.604,-0.24,-0.05
21:31:08.608,-0.235,-0.075
21:31:08.612,-0.24,-0.065
21:31:08.616,-0.235,-0.05
21:31:08.620,-0.23,-0.045
21:31:08.624,-0.235,-0.05
21:31:08.628,-0.24,-0.055
21:31:08.632,-0.255,-0.03
21:31:08.636,-0.24,-0.035
21:31:08.640,-0.255,-0.045
21:31:08.644,-0.265,-0.04
21:31:08.648,-0.265,-0.05
21:31:08.652,-0.255,-0.06
21:31:08.656,-0.26,-0.035
21:31:08.660,-0.275,-0.05
21:31:08.664,-0.255,-0.045
21:31:08.668,-0.255,-0.04
21:31:08.672,-0.25,-0.045
21:31:08.676,-0.245,-0.03
21:31:08.680,-0.23,-0.04
21:31:08.684,-0.24,-0.035
21:31:08.688,-0.255,-0.02
21:31:08.692,-0.255,-0.015
21:31:08.696,-0.225,-0.02
21:31:08.700,-0.21,-0.02
21:31:08.704,-0.185,-0.015
21:31:08.708,-0.17,0.0
21:31:08.712,-0.16,-0.02
21:31:08.716,-0.12,-0.015
21:31:08.720,-0.11,0.025
21:31:08.724,-0.085,0.025
21:31:08.728,-0.065,0.05
21:31:08.732,-0.05,0.055
21:31:08.736,-0.035,0.08
21:31:08.740,-0.015,0.08
21:31:08.744,-0.02,0.085
21:31:08.748,-0.035,0.1
21:31:08.752,-0.05,0.09
21:31:08.756,-0.05,0.13
21:31:08.760,-0.075,0.145
21:31:08.764,-0.09,0.155
21:31:08.768,-0.08,0.145
21:31:08.772,-0.105,0.145
21:31:08.776,-0.145,0.145
21:31:08.780,-0.165,0.155
21:31:08.784,-0.19,0.13
21:31:08.788,-0.195,0.135
21:31:08.792,-0.205,0.105
21:31:08.796,-0.23,0.11
21:31:08.800,-0.25,0.095
21:31:08.804,-0.25,0.085
21:31:08.808,-0.255,0.085
21:31:08.812,-0.23,0.095
21:31:08.816,-0.22,0.085
21:31:08.820,-0.205,0.035
21:31:08.824,-0.215,0.05
21:31:08.828,-0.215,0.035
21:31:08.832,-0.21,0.025
21:31:08.836,-0.215,0.0
21:31:08.840,-0.225,0.005
21:31:08.844,-0.25,0.025
21:31:08.848,-0.23,0.025
21:31:08.852,-0.25,0.005
21:31:08.856,-0.255,-0.015
21:31:08.860,-0.245,-0.025
21:31:08.864,-0.27,-0.015
21:31:08.868,-0.285,-0.015
21:31:08.872,-0.29,-0.02
21:31:08.876,-0.29,-0.02
21:31:08.880,-0.29,-0.015
21:31:08.884,-0.3,-0.01
21:31:08.888,-0.29,-0.01
21:31:08.892,-0.305,-0.02
21:31:08.896,-0.28,-0.01
21:31:08.900,-0.27,-0.01
21:31:08.904,-0.265,-0.025
21:31:08.908,-0.255,-0.005
21:31:08.912,-0.215,0.0
21:31:08.916,-0.215,0.0
21:31:08.920,-0.22,-0.005
21:31:08.924,-0.22,0.005
21:31:08.928,-0.195,0.0
21:31:08.932,-0.145,0.015
21:31:08.936,-0.125,0.015
21:31:08.940,-0.115,0.055
21:31:08.944,-0.125,0.03
21:31:08.948,-0.115,0.045
21:31:08.952,-0.14,0.075
21:31:08.956,-0.135,0.07
21:31:08.960,-0.135,0.09
21:31:08.964,-0.13,0.12
21:31:08.968,-0.125,0.125
21:31:08.972,-0.095,0.125
21:31:08.976,-0.135,0.115
21:31:08.980,-0.09,0.135
21:31:08.984,-0.1,0.165
21:31:08.988,-0.11,0.145
21:31:08.992,-0.12,0.18
21:31:08.996,-0.14,0.16
21:31:09.000,-0.145,0.16
21:31:09.004,-0.155,0.17
21:31:09.008,-0.14,0.18
21:31:09.012,-0.14,0.15
21:31:09.016,-0.14,0.135
21:31:09.020,-0.145,0.125
21:31:09.024,-0.15,0.12
21:31:09.028,-0.16,0.11
21:31:09.032,-0.165,0.085
21:31:09.036,-0.18,0.07
21:31:09.040,-0.2,0.05
21:31:09.044,-0.215,0.055
21:31:09.048,-0.21,0.04
21:31:09.052,-0.24,0.015
21:31:09.056,-0.245,0.02
21:31:09.060,-0.22,0.015
21:31:09.064,-0.225,0.02
21:31:09.068,-0.24,0.025
21:31:09.072,-0.24,0.02
21:31:09.076,-0.23,0.0
21:31:09.080,-0.21,0.015
21:31:09.084,-0.19,0.025
21:31:09.088,-0.145,0.0
21:31:09.092,-0.07,-0.005
21:31:09.096,0.005,-0.03
21:31:09.100,0.075,-0.045
21:31:09.104,0.11,-0.07
21:31:09.108,0.135,-0.1
21:31:09.112,0.165,-0.1
21:31:09.116,0.15,-0.095
21:31:09.120,0.13,-0.14
21:31:09.124,0.11,-0.225
21:31:09.128,0.2,-0.335
21:31:09.132,0.405,-0.495
21:31:09.136,0.715,-0.75
21:31:09.140,0.99,-0.99
21:31:09.144,1.095,-1.13
21:31:09.148,0.95,-1.11
21:31:09.152,0.54,-0.845
21:31:09.156,0.075,-0.47
21:31:09.160,-0.165,-0.18
21:31:09.164,-0.27,-0.025
21:31:09.168,-0.32,0.075
21:31:09.172,-0.355,0.125
21:31:09.176,-0.365,0.155
21:31:09.180,-0.38,0.15
21:31:09.184,-0.385,0.175
21:31:09.188,-0.405,0.16
21:31:09.192,-0.39,0.135
21:31:09.196,-0.39,0.13
21:31:09.200,-0.43,0.13
21:31:09.204,-0.415,0.12
21:31:09.208,-0.42,0.115
21:31:09.212,-0.425,0.135
21:31:09.216,-0.42,0.105
21:31:09.220,-0.43,0.11
21:31:09.224,-0.43,0.095
21:31:09.228,-0.425,0.105
21:31:09.232,-0.42,0.115
21:31:09.236,-0.43,0.13
21:31:09.240,-0.44,0.09
21:31:09.244,-0.42,0.095
21:31:09.248,-0.435,0.08
21:31:09.252,-0.445,0.1
21:31:09.256,-0.445,0.08
21:31:09.260,-0.43,0.085
21:31:09.264,-0.445,0.095
21:31:09.268,-0.435,0.08
21:31:09.272,-0.455,0.09
21:31:09.276,-0.42,0.09
21:31:09.280,-0.4,0.095
21:31:09.284,-0.415,0.105
21:31:09.288,-0.42,0.095
21:31:09.292,-0.415,0.075
21:31:09.296,-0.405,0.1
21:31:09.300,-0.39,0.11
21:31:09.304,-0.405,0.105
21:31:09.308,-0.42,0.105
21:31:09.312,-0.38,0.115
21:31:09.316,-0.39,0.115
21:31:09.320,-0.375,0.11
21:31:09.324,-0.365,0.11
21:31:09.328,-0.36,0.11
21:31:09.332,-0.37,0.11
21:31:09.336,-0.36,0.115
21:31:09.340,-0.355,0.11
21:31:09.344,-0.33,0.105
21:31:09.348,-0.33,0.085
21:31:09.352,-0.32,0.1
21:31:09.356,-0.315,0.075
21:31:09.360,-0.31,0.07
21:31:09.364,-0.325,0.09
21:31:09.368,-0.315,0.07
21:31:09.372,-0.32,0.065
21:31:09.376,-0.295,0.05
21:31:09.380,-0.28,0.055
21:31:09.384,-0.285,0.045
21:31:09.388,-0.305,0.045
21:31:09.392,-0.29,0.06
21:31:09.396,-0.24,0.06
21:31:09.400,-0.23,0.055
21:31:09.404,-0.24,0.05
21:31:09.408,-0.245,0.045
21:31:09.412,-0.23,0.05
21:31:09.416,-0.235,0.05
21:31:09.420,-0.21,0.05
21:31:09.424,-0.225,0.04
21:31:09.428,-0.21,0.045
21:31:09.432,-0.21,0.06
21:31:09.436,-0.225,0.06
21:31:09.440,-0.21,0.06
21:31:09.444,-0.2,0.065
21:31:09.448,-0.23,0.07
21:31:09.452,-0.23,0.065
21:31:09.456,-0.23,0.065
21:31:09.460,-0.245,0.08
21:31:09.464,-0.25,0.08
21:31:09.468,-0.26,0.085
21:31:09.472,-0.24,0.09
21:31:09.476,-0.24,0.085
21:31:09.480,-0.24,0.1
21:31:09.484,-0.25,0.09
21:31:09.488,-0.25,0.105
21:31:09.492,-0.245,0.09
21:31:09.496,-0.27,0.075
21:31:09.500,-0.26,0.085
21:31:09.504,-0.25,0.07
21:31:09.508,-0.255,0.09
21:31:09.512,-0.27,0.09
21:31:09.516,-0.28,0.085
21:31:09.520,-0.275,0.1
21:31:09.524,-0.295,0.08
21:31:09.528,-0.275,0.09
21:31:09.532,-0.3,0.07
21:31:09.536,-0.3,0.07
21:31:09.540,-0.285,0.085
21:31:09.544,-0.295,0.09
21:31:09.548,-0.3,0.07
21:31:09.552,-0.295,0.055
21:31:09.556,-0.295,0.065
21:31:09.560,-0.31,0.06
21:31:09.564,-0.3,0.095
21:31:09.568,-0.315,0.06
21:31:09.572,-0.32,0.055
21:31:09.576,-0.34,0.03
21:31:09.580,-0.325,0.02
21:31:09.584,-0.35,0.02
21:31:09.588,-0.33,0.015
21:31:09.592,-0.31,0.025
21:31:09.596,-0.295,0.015
21:31:09.600,-0.33,0.01
21:31:09.604,-0.34,0.015
21:31:09.608,-0.325,0.03
21:31:09.612,-0.34,0.0
21:31:09.616,-0.345,0.02
21:31:09.620,-0.34,0.015
21:31:09.624,-0.315,0.005
21:31:09.628,-0.3,0.0
21:31:09.632,-0.3,-0.005
21:31:09.636,-0.295,-0.01
21:31:09.640,-0.295,0.0
21:31:09.644,-0.31,0.0
21:31:09.648,-0.32,0.0
21:31:09.652,-0.315,-0.015
21:31:09.656,-0.295,-0.025
21:31:09.660,-0.315,-0.02
21:31:09.664,-0.31,-0.015
21:31:09.668,-0.305,-0.02
21:31:09.672,-0.3,-0.045
21:31:09.676,-0.31,-0.05
21:31:09.680,-0.295,-0.045
21:31:09.684,-0.32,-0.04
21:31:09.688,-0.32,-0.055
21:31:09.692,-0.32,-0.07
21:31:09.696,-0.315,-0.07
21:31:09.700,-0.33,-0.075
21:31:09.704,-0.325,-0.07
21:31:09.708,-0.32,-0.085
21:31:09.712,-0.315,-0.075
21:31:09.716,-0.3,-0.08
21:31:09.720,-0.29,-0.08
21:31:09.724,-0.3,-0.07
21:31:09.728,-0.305,-0.05
21:31:09.732,-0.31,-0.08
21:31:09.736,-0.315,-0.1
21:31:09.740,-0.3,-0.11
21:31:09.744,-0.3,-0.105
21:31:09.748,-0.28,-0.1
21:31:09.752,-0.26,-0.075
21:31:09.756,-0.265,-0.1
21:31:09.760,-0.27,-0.1
21:31:09.764,-0.27,-0.085
21:31:09.768,-0.275,-0.055
21:31:09.772,-0.275,-0.07
21:31:09.776,-0.28,-0.09
21:31:09.780,-0.285,-0.105
21:31:09.784,-0.285,-0.095
21:31:09.788,-0.28,-0.1
21:31:09.792,-0.3,-0.08
21:31:09.796,-0.305,-0.11
21:31:09.800,-0.305,-0.125
21:31:09.804,-0.3,-0.14
21:31:09.808,-0.3,-0.14
21:31:09.812,-0.3,-0.165
21:31:09.816,-0.29,-0.17
21:31:09.820,-0.28,-0.17
21:31:09.824,-0.31,-0.2
21:31:09.828,-0.315,-0.21
21:31:09.832,-0.3,-0.205
21:31:09.836,-0.31,-0.2
21:31:09.840,-0.31,-0.205
21:31:09.844,-0.28,-0.205
21:31:09.848,-0.3,-0.22
21:31:09.852,-0.31,-0.245
21:31:09.856,-0.285,-0.225
21:31:09.860,-0.26,-0.23
21:31:09.864,-0.27,-0.21
21:31:09.868,-0.27,-0.24
21:31:09.872,-0.265,-0.245
21:31:09.876,-0.285,-0.25
21:31:09.880,-0.25,-0.25
21:31:09.884,-0.26,-0.24
21:31:09.888,-0.225,-0.24
21:31:09.892,-0.22,-0.275
21:31:09.896,-0.245,-0.245
21:31:09.900,-0.245,-0.24
21:31:09.904,-0.25,-0.265
21:31:09.908,-0.255,-0.275
21:31:09.912,-0.245,-0.275
21:31:09.916,-0.24,-0.31
21:31:09.920,-0.235,-0.37
21:31:09.924,-0.21,-0.395
21:31:09.928,-0.245,-0.385
21:31:09.932,-0.25,-0.395
21:31:09.936,-0.265,-0.395
21:31:09.940,-0.285,-0.39
21:31:09.944,-0.34,-0.38
21:31:09.948,-0.34,-0.38
21:31:09.952,-0.33,-0.365
21:31:09.956,-0.32,-0.38
21:31:09.960,-0.34,-0.37
21:31:09.964,-0.335,-0.385
21:31:09.968,-0.31,-0.37
21:31:09.972,-0.29,-0.38
21:31:09.976,-0.31,-0.395
21:31:09.980,-0.29,-0.4
21:31:09.984,-0.3,-0.42
21:31:09.988,-0.31,-0.435
21:31:09.992,-0.3,-0.44
21:31:09.996,-0.29,-0.43
21:31:10.000,-0.28,-0.46
21:31:10.004,-0.305,-0.44
21:31:10.008,-0.31,-0.455
21:31:10.012,-0.3,-0.46
21:31:10.016,-0.29,-0.445
21:31:10.020,-0.29,-0.42
21:31:10.024,-0.29,-0.44
21:31:10.028,-0.28,-0.45
21:31:10.032,-0.275,-0.485
21:31:10.036,-0.22,-0.475
21:31:10.040,-0.15,-0.475
21:31:10.044,-0.055,-0.49
21:31:10.048,0.055,-0.525
21:31:10.052,0.13,-0.555
21:31:10.056,0.185,-0.59
21:31:10.060,0.235,-0.615
21:31:10.064,0.265,-0.58
21:31:10.068,0.255,-0.595
21:31:10.072,0.21,-0.64
21:31:10.076,0.24,-0.74
21:31:10.080,0.505,-0.89
21:31:10.084,0.76,-1.11
21:31:10.088,1.04,-1.33
21:31:10.092,1.165,-1.52
21:31:10.096,1.07,-1.51
21:31:10.100,0.71,-1.26
21:31:10.104,0.21,-0.92
21:31:10.108,-0.085,-0.685
21:31:10.112,-0.22,-0.55
21:31:10.116,-0.275,-0.47
21:31:10.120,-0.335,-0.385
21:31:10.124,-0.385,-0.34
21:31:10.128,-0.385,-0.355
21:31:10.132,-0.43,-0.36
21:31:10.136,-0.45,-0.35
21:31:10.140,-0.485,-0.385
21:31:10.144,-0.49,-0.4
21:31:10.148,-0.485,-0.38
21:31:10.152,-0.495,-0.4
21:31:10.156,-0.49,-0.4
21:31:10.160,-0.49,-0.4
21:31:10.164,-0.505,-0.41
21:31:10.168,-0.505,-0.395
21:31:10.172,-0.51,-0.39
21:31:10.176,-0.515,-0.39
21:31:10.180,-0.5,-0.4
21:31:10.184,-0.53,-0.405
21:31:10.188,-0.505,-0.4
21:31:10.192,-0.54,-0.38
21:31:10.196,-0.51,-0.365
21:31:10.200,-0.51,-0.365
21:31:10.204,-0.53,-0.38
21:31:10.208,-0.53,-0.385
21:31:10.212,-0.51,-0.35
21:31:10.216,-0.52,-0.35
21:31:10.220,-0.51,-0.345
21:31:10.224,-0.525,-0.33
21:31:10.228,-0.515,-0.33
21:31:10.232,-0.52,-0.32
21:31:10.236,-0.52,-0.31
21:31:10.240,-0.52,-0.3
21:31:10.244,-0.52,-0.29
21:31:10.248,-0.51,-0.28
21:31:10.252,-0.52,-0.28
21:31:10.256,-0.535,-0.26
21:31:10.260,-0.525,-0.255
21:31:10.264,-0.53,-0.235
21:31:10.268,-0.53,-0.23
21:31:10.272,-0.52,-0.22
21:31:10.276,-0.5,-0.22
21:31:10.280,-0.495,-0.2
21:31:10.284,-0.5,-0.2
21:31:10.288,-0.49,-0.185
21:31:10.292,-0.47,-0.185
21:31:10.296,-0.46,-0.17
21:31:10.300,-0.455,-0.185
21:31:10.304,-0.44,-0.17
21:31:10.308,-0.445,-0.16
21:31:10.312,-0.405,-0.145
21:31:10.316,-0.395,-0.14
21:31:10.320,-0.395,-0.165
21:31:10.324,-0.395,-0.17
21:31:10.328,-0.37,-0.15
21:31:10.332,-0.37,-0.135
21:31:10.336,-0.36,-0.17
21:31:10.340,-0.345,-0.14
21:31:10.344,-0.335,-0.135
21:31:10.348,-0.34,-0.13
21:31:10.352,-0.34,-0.155
21:31:10.356,-0.33,-0.155
21:31:10.360,-0.325,-0.125
21:31:10.364,-0.285,-0.12
21:31:10.368,-0.3,-0.14
21:31:10.372,-0.29,-0.135
21:31:10.376,-0.285,-0.145
21:31:10.380,-0.25,-0.14
21:31:10.384,-0.26,-0.155
21:31:10.388,-0.27,-0.13
21:31:10.392,-0.245,-0.15
21:31:10.396,-0.255,-0.145
21:31:10.400,-0.25,-0.145
21:31:10.404,-0.245,-0.13
21:31:10.408,-0.225,-0.115
21:31:10.412,-0.235,-0.115
21:31:10.416,-0.24,-0.115
21:31:10.420,-0.25,-0.1
21:31:10.424,-0.25,-0.095
21:31:10.428,-0.2,-0.08
21:31:10.432,-0.22,-0.075
21:31:10.436,-0.245,-0.07
21:31:10.440,-0.24,-0.08
21:31:10.444,-0.215,-0.08
21:31:10.448,-0.24,-0.08
21:31:10.452,-0.225,-0.075
21:31:10.456,-0.24,-0.07
21:31:10.460,-0.235,-0.065
21:31:10.464,-0.22,-0.075
21:31:10.468,-0.23,-0.05
21:31:10.472,-0.235,-0.06
21:31:10.476,-0.245,-0.055
21:31:10.480,-0.24,-0.065
21:31:10.484,-0.255,-0.06
21:31:10.488,-0.26,-0.07
21:31:10.492,-0.235,-0.065
21:31:10.496,-0.25,-0.06
21:31:10.500,-0.255,-0.075
21:31:10.504,-0.245,-0.065
21:31:10.508,-0.25,-0.07
21:31:10.512,-0.245,-0.05
21:31:10.516,-0.25,-0.075
21:31:10.520,-0.245,-0.075
21:31:10.524,-0.225,-0.075
21:31:10.528,-0.23,-0.07
21:31:10.532,-0.24,-0.06
21:31:10.536,-0.22,-0.06
21:31:10.540,-0.21,-0.07
21:31:10.544,-0.195,-0.065
21:31:10.548,-0.205,-0.075
21:31:10.552,-0.22,-0.09
21:31:10.556,-0.195,-0.075
21:31:10.560,-0.17,-0.06
21:31:10.564,-0.195,-0.05
21:31:10.568,-0.18,-0.045
21:31:10.572,-0.16,-0.04
21:31:10.576,-0.14,-0.04
21:31:10.580,-0.15,-0.02
21:31:10.584,-0.145,-0.05
21:31:10.588,-0.105,-0.03
21:31:10.592,-0.125,-0.01
21:31:10.596,-0.145,-0.025
21:31:10.600,-0.13,-0.015
21:31:10.604,-0.14,-0.02
21:31:10.608,-0.115,-0.02
21:31:10.612,-0.1,-0.01
21:31:10.616,-0.11,-0.085
21:31:10.620,-0.115,-0.095
21:31:10.624,-0.14,-0.1
21:31:10.628,-0.18,-0.09
21:31:10.632,-0.22,-0.095
21:31:10.636,-0.225,-0.095
21:31:10.640,-0.235,-0.08
21:31:10.644,-0.26,-0.05
21:31:10.648,-0.26,-0.03
21:31:10.652,-0.245,-0.02
21:31:10.656,-0.235,-0.005
21:31:10.660,-0.215,-0.01
21:31:10.664,-0.21,-0.01
21:31:10.668,-0.2,-0.015
21:31:10.672,-0.22,-0.025
21:31:10.676,-0.205,-0.03
21:31:10.680,-0.2,-0.01
21:31:10.684,-0.2,-0.01
21:31:10.688,-0.2,-0.035
21:31:10.692,-0.2,-0.015
21:31:10.696,-0.205,-0.025
21:31:10.700,-0.21,-0.02
21:31:10.704,-0.21,-0.03
21:31:10.708,-0.22,-0.05
21:31:10.712,-0.22,-0.025
21:31:10.716,-0.21,-0.035
21:31:10.720,-0.195,-0.04
21:31:10.724,-0.2,-0.04
21:31:10.728,-0.18,-0.04
21:31:10.732,-0.165,-0.055
21:31:10.736,-0.13,-0.05
21:31:10.740,-0.075,-0.055
21:31:10.744,0.025,-0.06
21:31:10.748,0.115,-0.075
21:31:10.752,0.19,-0.085
21:31:10.756,0.245,-0.155
21:31:10.760,0.27,-0.19
21:31:10.764,0.3,-0.17
21:31:10.768,0.325,-0.185
21:31:10.772,0.315,-0.25
21:31:10.776,0.34,-0.385
21:31:10.780,0.54,-0.55
21:31:10.784,0.88,-0.775
21:31:10.788,1.14,-0.995
21:31:10.792,1.21,-1.15
21:31:10.796,0.97,-1.115
21:31:10.800,0.51,-0.825
21:31:10.804,0.065,-0.46
21:31:10.808,-0.15,-0.215
21:31:10.812,-0.215,-0.065
21:31:10.816,-0.3,0.03
21:31:10.820,-0.305,0.095
21:31:10.824,-0.325,0.115
21:31:10.828,-0.35,0.14
21:31:10.832,-0.37,0.145
21:31:10.836,-0.37,0.125
21:31:10.840,-0.39,0.13
21:31:10.844,-0.38,0.09
21:31:10.848,-0.375,0.07
21:31:10.852,-0.385,0.085
21:31:10.856,-0.405,0.06
21:31:10.860,-0.4,0.06
21:31:10.864,-0.37,0.07
21:31:10.868,-0.395,0.06
21:31:10.872,-0.415,0.075
21:31:10.876,-0.415,0.075
21:31:10.880,-0.405,0.07
21:31:10.884,-0.41,0.055
21:31:10.888,-0.39,0.085
21:31:10.892,-0.395,0.075
21:31:10.896,-0.385,0.065
21:31:10.900,-0.42,0.075
21:31:10.904,-0.405,0.09
21:31:10.908,-0.395,0.085
21:31:10.912,-0.43,0.09
21:31:10.916,-0.435,0.095
21:31:10.920,-0.445,0.09
21:31:10.924,-0.43,0.085
21:31:10.928,-0.45,0.105
21:31:10.932,-0.44,0.095
21:31:10.936,-0.455,0.095
21:31:10.940,-0.445,0.09
21:31:10.944,-0.455,0.095
21:31:10.948,-0.455,0.09
21:31:10.952,-0.47,0.075
21:31:10.956,-0.47,0.085
21:31:10.960,-0.445,0.075
21:31:10.964,-0.455,0.065
21:31:10.968,-0.445,0.06
21:31:10.972,-0.445,0.07
21:31:10.976,-0.415,0.065
21:31:10.980,-0.415,0.075
21:31:10.984,-0.385,0.06
21:31:10.988,-0.39,0.045
21:31:10.992,-0.365,0.045
21:31:10.996,-0.36,0.035
21:31:11.000,-0.345,0.045
21:31:11.004,-0.34,0.035
21:31:11.008,-0.305,0.03
21:31:11.012,-0.3,0.015
21:31:11.016,-0.295,0.01
21:31:11.020,-0.295,0.015
21:31:11.024,-0.285,0.015
21:31:11.028,-0.285,0.015
21:31:11.032,-0.25,0.02
21:31:11.036,-0.26,0.02
21:31:11.040,-0.245,0.02
21:31:11.044,-0.25,0.01
21:31:11.048,-0.25,0.0
21:31:11.052,-0.24,-0.01
21:31:11.056,-0.24,-0.01
21:31:11.060,-0.22,-0.015
21:31:11.064,-0.225,-0.015
21:31:11.068,-0.205,-0.005
21:31:11.072,-0.215,0.0
21:31:11.076,-0.215,0.0
21:31:11.080,-0.21,-0.01
21:31:11.084,-0.215,0.01
21:31:11.088,-0.21,0.0
21:31:11.092,-0.215,0.03
21:31:11.096,-0.215,0.015
21:31:11.100,-0.23,0.01
21:31:11.104,-0.215,-0.005
21:31:11.108,-0.21,0.015
21:31:11.112,-0.205,0.015
21:31:11.116,-0.205,0.04
21:31:11.120,-0.2,0.02
21:31:11.124,-0.2,0.035
21:31:11.128,-0.215,0.035
21:31:11.132,-0.22,0.025
21:31:11.136,-0.19,0.045
21:31:11.140,-0.205,0.025
21:31:11.144,-0.225,0.04
21:31:11.148,-0.235,0.03
21:31:11.152,-0.23,0.015
21:31:11.156,-0.22,0.02
21:31:11.160,-0.23,0.02
21:31:11.164,-0.275,0.03
21:31:11.168,-0.265,0.015
21:31:11.172,-0.24,0.005
21:31:11.176,-0.265,0.005
21:31:11.180,-0.265,0.0
21:31:11.184,-0.275,-0.005
21:31:11.188,-0.235,0.005
21:31:11.192,-0.275,-0.005
21:31:11.196,-0.28,0.0
21:31:11.200,-0.26,-0.02
21:31:11.204,-0.245,0.0
21:31:11.208,-0.23,0.01
21:31:11.212,-0.225,0.0
21:31:11.216,-0.22,0.0
21:31:11.220,-0.21,0.005
21:31:11.224,-0.2,0.015
21:31:11.228,-0.195,0.035
21:31:11.232,-0.19,0.04
21:31:11.236,-0.175,0.04
21:31:11.240,-0.18,0.06
21:31:11.244,-0.195,0.04
21:31:11.248,-0.185,0.045
21:31:11.252,-0.165,0.04
21:31:11.256,-0.16,0.02
21:31:11.260,-0.165,-0.005
21:31:11.264,-0.185,-0.045
21:31:11.268,-0.2,-0.04
21:31:11.272,-0.215,-0.05
21:31:11.276,-0.275,-0.05
21:31:11.280,-0.315,-0.015
21:31:11.284,-0.345,-0.035
21:31:11.288,-0.37,0.0
21:31:11.292,-0.365,0.03
21:31:11.296,-0.35,0.035
21:31:11.300,-0.33,0.03
21:31:11.304,-0.335,0.015
21:31:11.308,-0.33,0.01
21:31:11.312,-0.34,0.025
21:31:11.316,-0.335,0.025
21:31:11.320,-0.335,0.02
21:31:11.324,-0.365,0.005
21:31:11.328,-0.355,-0.005
21:31:11.332,-0.335,0.01
21:31:11.336,-0.33,0.01
21:31:11.340,-0.32,0.01
21:31:11.344,-0.32,0.02
21:31:11.348,-0.31,0.015
21:31:11.352,-0.315,0.005
21:31:11.356,-0.315,0.04
21:31:11.360,-0.33,0.035
21:31:11.364,-0.31,0.02
21:31:11.368,-0.3,0.04
21:31:11.372,-0.29,0.035
21:31:11.376,-0.295,0.03
21:31:11.380,-0.275,0.025
21:31:11.384,-0.23,0.015
21:31:11.388,-0.16,0.025
21:31:11.392,-0.085,0.0
21:31:11.396,0.0,0.0
21:31:11.400,0.07,-0.045
21:31:11.404,0.11,-0.095
21:31:11.408,0.15,-0.105
21:31:11.412,0.18,-0.105
21:31:11.416,0.18,-0.14
21:31:11.420,0.15,-0.205
21:31:11.424,0.2,-0.33
21:31:11.428,0.435,-0.51
21:31:11.432,0.755,-0.775
21:31:11.436,0.995,-0.985
21:31:11.440,0.995,-1.13
21:31:11.444,0.7,-1.035
21:31:11.448,0.19,-0.69
21:31:11.452,-0.175,-0.34
21:31:11.456,-0.31,-0.13
21:31:11.460,-0.37,0.0
21:31:11.464,-0.415,0.055
21:31:11.468,-0.44,0.105
21:31:11.472,-0.48,0.16
21:31:11.476,-0.485,0.155
21:31:11.480,-0.49,0.14
21:31:11.484,-0.5,0.12
21:31:11.488,-0.505,0.11
21:31:11.492,-0.51,0.09
21:31:11.496,-0.51,0.075
21:31:11.500,-0.525,0.075
21:31:11.504,-0.55,0.065
21:31:11.508,-0.57,0.055
21:31:11.512,-0.57,0.065
21:31:11.516,-0.545,0.06
21:31:11.520,-0.58,0.06
21:31:11.524,-0.575,0.025
21:31:11.528,-0.545,0.03
21:31:11.532,-0.56,0.03
21:31:11.536,-0.58,0.015
21:31:11.540,-0.59,0.005
21:31:11.544,-0.58,0.01
21:31:11.548,-0.59,0.01
21:31:11.552,-0.59,0.0
21:31:11.556,-0.605,-0.01
21:31:11.560,-0.605,0.01
21:31:11.564,-0.625,-0.015
21:31:11.568,-0.605,0.0
21:31:11.572,-0.59,0.0
21:31:11.576,-0.635,-0.02
21:31:11.580,-0.62,-0.02
21:31:11.584,-0.6,-0.02
21:31:11.588,-0.615,-0.025
21:31:11.592,-0.615,-0.02
21:31:11.596,-0.59,-0.015
21:31:11.600,-0.59,-0.015
21:31:11.604,-0.605,-0.02
21:31:11.608,-0.605,-0.02
21:31:11.612,-0.605,-0.02
21:31:11.616,-0.62,-0.035
21:31:11.620,-0.6,-0.04
21:31:11.624,-0.595,-0.045
21:31:11.628,-0.57,-0.04
21:31:11.632,-0.58,-0.06
21:31:11.636,-0.58,-0.055
21:31:11.640,-0.565,-0.055
21:31:11.644,-0.555,-0.065
21:31:11.648,-0.545,-0.07
21:31:11.652,-0.555,-0.085
21:31:11.656,-0.505,-0.09
21:31:11.660,-0.495,-0.12
21:31:11.664,-0.48,-0.115
21:31:11.668,-0.465,-0.11
21:31:11.672,-0.455,-0.12
21:31:11.676,-0.45,-0.13
21:31:11.680,-0.42,-0.15
21:31:11.684,-0.425,-0.13
21:31:11.688,-0.415,-0.12
21:31:11.692,-0.405,-0.145
21:31:11.696,-0.37,-0.145
21:31:11.700,-0.385,-0.155
21:31:11.704,-0.375,-0.14
21:31:11.708,-0.355,-0.125
21:31:11.712,-0.345,-0.12
21:31:11.716,-0.355,-0.125
21:31:11.720,-0.335,-0.105
21:31:11.724,-0.335,-0.115
21:31:11.728,-0.33,-0.12
21:31:11.732,-0.36,-0.135
21:31:11.736,-0.38,-0.16
21:31:11.740,-0.375,-0.145
21:31:11.744,-0.35,-0.145
21:31:11.748,-0.35,-0.16
21:31:11.752,-0.33,-0.18
21:31:11.756,-0.34,-0.17
21:31:11.760,-0.34,-0.17
21:31:11.764,-0.335,-0.19
21:31:11.768,-0.35,-0.17
21:31:11.772,-0.345,-0.16
21:31:11.776,-0.34,-0.2
21:31:11.780,-0.33,-0.16
21:31:11.784,-0.3,-0.2
21:31:11.788,-0.285,-0.19
21:31:11.792,-0.24,-0.18
21:31:11.796,-0.225,-0.16
21:31:11.800,-0.205,-0.175
21:31:11.804,-0.185,-0.17
21:31:11.808,-0.195,-0.16
21:31:11.812,-0.19,-0.16
21:31:11.816,-0.19,-0.175
21:31:11.820,-0.165,-0.205
21:31:11.824,-0.2,-0.225
21:31:11.828,-0.23,-0.265
21:31:11.832,-0.285,-0.28
21:31:11.836,-0.315,-0.305
21:31:11.840,-0.36,-0.305
21:31:11.844,-0.385,-0.29
21:31:11.848,-0.415,-0.295
21:31:11.852,-0.43,-0.295
21:31:11.856,-0.44,-0.28
21:31:11.860,-0.45,-0.275
21:31:11.864,-0.455,-0.28
21:31:11.868,-0.44,-0.3
21:31:11.872,-0.435,-0.31
21:31:11.876,-0.455,-0.315
21:31:11.880,-0.445,-0.335
21:31:11.884,-0.42,-0.32
21:31:11.888,-0.425,-0.335
21:31:11.892,-0.425,-0.32
21:31:11.896,-0.39,-0.33
21:31:11.900,-0.42,-0.325
21:31:11.904,-0.425,-0.335
21:31:11.908,-0.425,-0.345
21:31:11.912,-0.42,-0.335
21:31:11.916,-0.425,-0.345
21:31:11.920,-0.41,-0.335
21:31:11.924,-0.395,-0.345
21:31:11.928,-0.39,-0.34
21:31:11.932,-0.385,-0.32
21:31:11.936,-0.395,-0.315
21:31:11.940,-0.385,-0.345
21:31:11.944,-0.365,-0.325
21:31:11.948,-0.36,-0.32
21:31:11.952,-0.37,-0.36
21:31:11.956,-0.35,-0.345
21:31:11.960,-0.34,-0.325
21:31:11.964,-0.295,-0.35
21:31:11.968,-0.25,-0.325
21:31:11.972,-0.155,-0.35
21:31:11.976,-0.045,-0.36
21:31:11.980,0.05,-0.36
21:31:11.984,0.1,-0.43
21:31:11.988,0.175,-0.46
21:31:11.992,0.24,-0.455
21:31:11.996,0.26,-0.465
21:31:12.000,0.27,-0.49
21:31:12.004,0.26,-0.565
21:31:12.008,0.39,-0.69
21:31:12.012,0.675,-0.88
21:31:12.016,0.965,-1.11
21:31:12.020,1.14,-1.28
21:31:12.024,1.005,-1.335
21:31:12.028,0.6,-1.115
21:31:12.032,0.105,-0.79
21:31:12.036,-0.18,-0.535
21:31:12.040,-0.3,-0.415
21:31:12.044,-0.355,-0.295
21:31:12.048,-0.35,-0.205
21:31:12.052,-0.36,-0.155
21:31:12.056,-0.4,-0.12
21:31:12.060,-0.435,-0.11
21:31:12.064,-0.46,-0.12
21:31:12.068,-0.455,-0.125
21:31:12.072,-0.48,-0.125
21:31:12.076,-0.495,-0.14
21:31:12.080,-0.52,-0.14
21:31:12.084,-0.515,-0.135
21:31:12.088,-0.51,-0.125
21:31:12.092,-0.525,-0.105
21:31:12.096,-0.5,-0.115
21:31:12.100,-0.51,-0.13
21:31:12.104,-0.525,-0.125
21:31:12.108,-0.52,-0.11
21:31:12.112,-0.53,-0.075
21:31:12.116,-0.53,-0.09
21:31:12.120,-0.545,-0.1
21:31:12.124,-0.535,-0.08
21:31:12.128,-0.545,-0.09
21:31:12.132,-0.55,-0.06
21:31:12.136,-0.52,-0.07
21:31:12.140,-0.515,-0.045
21:31:12.144,-0.525,-0.03
21:31:12.148,-0.52,-0.04
21:31:12.152,-0.52,-0.02
21:31:12.156,-0.53,-0.02
21:31:12.160,-0.54,-0.01
21:31:12.164,-0.55,0.0
21:31:12.168,-0.54,0.015
21:31:12.172,-0.55,0.0
21:31:12.176,-0.565,0.0
21:31:12.180,-0.555,-0.01
21:31:12.184,-0.55,-0.015
21:31:12.188,-0.55,-0.015
21:31:12.192,-0.565,-0.005
21:31:12.196,-0.555,-0.02
21:31:12.200,-0.565,-0.04
21:31:12.204,-0.535,0.0
21:31:12.208,-0.535,-0.04
21:31:12.212,-0.525,-0.025
21:31:12.216,-0.52,-0.02
21:31:12.220,-0.49,-0.01
21:31:12.224,-0.48,-0.04
21:31:12.228,-0.465,-0.055
21:31:12.232,-0.455,-0.03
21:31:12.236,-0.44,-0.045
21:31:12.240,-0.44,-0.06
21:31:12.244,-0.425,-0.055
21:31:12.248,-0.4,-0.07
21:31:12.252,-0.38,-0.065
21:31:12.256,-0.36,-0.055
21:31:12.260,-0.36,-0.07
21:31:12.264,-0.335,-0.07
21:31:12.268,-0.31,-0.05
21:31:12.272,-0.315,-0.075
21:31:12.276,-0.32,-0.06
21:31:12.280,-0.295,-0.065
21:31:12.284,-0.29,-0.075
21:31:12.288,-0.305,-0.055
21:31:12.292,-0.3,-0.065
21:31:12.296,-0.295,-0.07
21:31:12.300,-0.29,-0.085
21:31:12.304,-0.31,-0.07
21:31:12.308,-0.305,-0.075
21:31:12.312,-0.29,-0.05
21:31:12.316,-0.3,-0.07
21:31:12.320,-0.295,-0.06
21:31:12.324,-0.295,-0.075
21:31:12.328,-0.27,-0.065
21:31:12.332,-0.27,-0.05
21:31:12.336,-0.295,-0.05
21:31:12.340,-0.285,-0.055
21:31:12.344,-0.305,-0.04
21:31:12.348,-0.305,-0.025
21:31:12.352,-0.28,-0.03
21:31:12.356,-0.305,-0.035
21:31:12.360,-0.295,-0.02
21:31:12.364,-0.275,-0.01
21:31:12.368,-0.29,-0.005
21:31:12.372,-0.28,-0.015
21:31:12.376,-0.285,0.0
21:31:12.380,-0.27,0.0
21:31:12.384,-0.285,0.0
21:31:12.388,-0.295,0.0
21:31:12.392,-0.3,-0.015
21:31:12.396,-0.295,-0.01
21:31:12.400,-0.28,-0.015
21:31:12.404,-0.305,-0.025
21:31:12.408,-0.295,0.0
21:31:12.412,-0.295,-0.015
21:31:12.416,-0.29,-0.005
21:31:12.420,-0.315,-0.015
21:31:12.424,-0.33,-0.015
21:31:12.428,-0.32,-0.005
21:31:12.432,-0.305,-0.005
21:31:12.436,-0.31,-0.04
21:31:12.440,-0.31,-0.04
21:31:12.444,-0.3,-0.02
21:31:12.448,-0.305,-0.05
21:31:12.452,-0.3,-0.01
21:31:12.456,-0.325,-0.02
21:31:12.460,-0.295,-0.025
21:31:12.464,-0.295,-0.015
21:31:12.468,-0.3,-0.005
21:31:12.472,-0.31,-0.01
21:31:12.476,-0.305,-0.005
21:31:12.480,-0.29,0.005
21:31:12.484,-0.275,0.005
21:31:12.488,-0.28,0.0
21:31:12.492,-0.275,0.0
21:31:12.496,-0.25,0.005
21:31:12.500,-0.26,0.005
21:31:12.504,-0.285,0.015
21:31:12.508,-0.28,0.005
21:31:12.512,-0.265,0.01
21:31:12.516,-0.265,0.015
21:31:12.520,-0.26,0.0
21:31:12.524,-0.265,0.005
21:31:12.528,-0.265,-0.01
21:31:12.532,-0.255,-0.01
21:31:12.536,-0.255,0.01
21:31:12.540,-0.21,0.04
21:31:12.544,-0.18,0.065
21:31:12.548,-0.16,0.05
21:31:12.552,-0.165,0.05
21:31:12.556,-0.145,0.06
21:31:12.560,-0.16,0.05
21:31:12.564,-0.135,0.06
21:31:12.568,-0.155,0.025
21:31:12.572,-0.185,-0.005
21:31:12.576,-0.2,-0.01
21:31:12.580,-0.22,-0.035
21:31:12.584,-0.25,-0.03
21:31:12.588,-0.28,-0.015
21:31:12.592,-0.31,0.005
21:31:12.596,-0.31,0.0
21:31:12.600,-0.335,0.025
21:31:12.604,-0.325,0.04
21:31:12.608,-0.32,0.04
21:31:12.612,-0.325,0.045
21:31:12.616,-0.33,0.05
21:31:12.620,-0.32,0.04
21:31:12.624,-0.315,0.035
21:31:12.628,-0.305,0.015
21:31:12.632,-0.32,0.03
21:31:12.636,-0.34,0.04
21:31:12.640,-0.335,0.005
21:31:12.644,-0.32,0.02
21:31:12.648,-0.335,0.005
21:31:12.652,-0.355,0.005
21:31:12.656,-0.355,0.005
21:31:12.660,-0.33,0.0
21:31:12.664,-0.33,0.01
21:31:12.668,-0.335,-0.005
21:31:12.672,-0.33,-0.02
21:31:12.676,-0.335,-0.005
21:31:12.680,-0.315,-0.015
21:31:12.684,-0.33,0.0
21:31:12.688,-0.32,0.01
21:31:12.692,-0.29,0.005
21:31:12.696,-0.27,0.005
21:31:12.700,-0.235,0.01
21:31:12.704,-0.16,-0.01
21:31:12.708,-0.06,0.005
21:31:12.712,0.02,0.0
21:31:12.716,0.08,-0.015
21:31:12.720,0.14,-0.065
21:31:12.724,0.17,-0.09
21:31:12.728,0.19,-0.12
21:31:12.732,0.18,-0.105
21:31:12.736,0.15,-0.185
21:31:12.740,0.185,-0.3
21:31:12.744,0.33,-0.475
21:31:12.748,0.625,-0.68
21:31:12.752,0.935,-0.93
21:31:12.756,1.095,-1.1
21:31:12.760,1.04,-1.145
21:31:12.764,0.655,-0.915
21:31:12.768,0.165,-0.555
21:31:12.772,-0.16,-0.255
21:31:12.776,-0.295,-0.065
21:31:12.780,-0.355,0.01
21:31:12.784,-0.395,0.115
21:31:12.788,-0.385,0.145
21:31:12.792,-0.41,0.155
21:31:12.796,-0.425,0.155
21:31:12.800,-0.445,0.15
21:31:12.804,-0.46,0.145
21:31:12.808,-0.45,0.15
21:31:12.812,-0.455,0.125
21:31:12.816,-0.45,0.12
21:31:12.820,-0.445,0.115
21:31:12.824,-0.45,0.125
21:31:12.828,-0.46,0.135
21:31:12.832,-0.47,0.12
21:31:12.836,-0.475,0.135
21:31:12.840,-0.46,0.145
21:31:12.844,-0.45,0.12
21:31:12.848,-0.465,0.13
21:31:12.852,-0.49,0.14
21:31:12.856,-0.46,0.13
21:31:12.860,-0.465,0.135
21:31:12.864,-0.495,0.13
21:31:12.868,-0.51,0.125
21:31:12.872,-0.49,0.12
21:31:12.876,-0.515,0.13
21:31:12.880,-0.52,0.13
21:31:12.884,-0.53,0.11
21:31:12.888,-0.54,0.11
21:31:12.892,-0.555,0.135
21:31:12.896,-0.555,0.11
21:31:12.900,-0.56,0.09
21:31:12.904,-0.565,0.115
21:31:12.908,-0.535,0.1
21:31:12.912,-0.52,0.12
21:31:12.916,-0.555,0.12
21:31:12.920,-0.535,0.105
21:31:12.924,-0.54,0.105
21:31:12.928,-0.545,0.12
21:31:12.932,-0.525,0.13
21:31:12.936,-0.52,0.115
21:31:12.940,-0.49,0.135
21:31:12.944,-0.48,0.135
21:31:12.948,-0.5,0.125
21:31:12.952,-0.495,0.12
21:31:12.956,-0.455,0.12
21:31:12.960,-0.455,0.125
21:31:12.964,-0.46,0.14
21:31:12.968,-0.455,0.125
21:31:12.972,-0.425,0.135
21:31:12.976,-0.42,0.105
21:31:12.980,-0.42,0.09
21:31:12.984,-0.42,0.08
21:31:12.988,-0.39,0.07
21:31:12.992,-0.385,0.07
21:31:12.996,-0.38,0.055
21:31:13.000,-0.37,0.05
21:31:13.004,-0.35,0.055
21:31:13.008,-0.335,0.04
21:31:13.012,-0.31,0.015
21:31:13.016,-0.32,0.035
21:31:13.020,-0.32,0.025
21:31:13.024,-0.315,0.05
21:31:13.028,-0.295,0.02
21:31:13.032,-0.315,0.045
21:31:13.036,-0.285,0.045
21:31:13.040,-0.285,0.025
21:31:13.044,-0.28,0.05
21:31:13.048,-0.265,0.045
21:31:13.052,-0.24,0.035
21:31:13.056,-0.225,0.055
21:31:13.060,-0.25,0.04
21:31:13.064,-0.27,0.045
21:31:13.068,-0.255,0.035
21:31:13.072,-0.265,0.06
21:31:13.076,-0.265,0.05
21:31:13.080,-0.275,0.055
21:31:13.084,-0.26,0.075
21:31:13.088,-0.26,0.07
21:31:13.092,-0.265,0.075
21:31:13.096,-0.275,0.08
21:31:13.100,-0.305,0.035
21:31:13.104,-0.28,0.06
21:31:13.108,-0.3,0.045
21:31:13.112,-0.285,0.05
21:31:13.116,-0.29,0.06
21:31:13.120,-0.3,0.065
21:31:13.124,-0.315,0.055
21:31:13.128,-0.31,0.035
21:31:13.132,-0.3,0.055
21:31:13.136,-0.29,0.035
21:31:13.140,-0.315,0.04
21:31:13.144,-0.31,0.055
21:31:13.148,-0.31,0.06
21:31:13.152,-0.3,0.06
21:31:13.156,-0.29,0.05
21:31:13.160,-0.305,0.05
21:31:13.164,-0.305,0.06
21:31:13.168,-0.28,0.065
21:31:13.172,-0.295,0.055
21:31:13.176,-0.305,0.07
21:31:13.180,-0.305,0.06
21:31:13.184,-0.295,0.095
21:31:13.188,-0.295,0.07
21:31:13.192,-0.3,0.065
21:31:13.196,-0.295,0.045
21:31:13.200,-0.3,0.05
21:31:13.204,-0.315,0.06
21:31:13.208,-0.305,0.075
21:31:13.212,-0.33,0.05
21:31:13.216,-0.345,0.04
21:31:13.220,-0.34,0.04
21:31:13.224,-0.375,0.04
21:31:13.228,-0.35,0.055
21:31:13.232,-0.345,0.045
21:31:13.236,-0.34,0.045
21:31:13.240,-0.345,0.025
21:31:13.244,-0.37,0.03
21:31:13.248,-0.35,0.035
21:31:13.252,-0.34,0.035
21:31:13.256,-0.345,0.05
21:31:13.260,-0.36,0.04
21:31:13.264,-0.35,0.05
21:31:13.268,-0.32,0.04
21:31:13.272,-0.335,0.06
21:31:13.276,-0.305,0.04
21:31:13.280,-0.315,0.045
21:31:13.284,-0.315,0.055
21:31:13.288,-0.315,0.06
21:31:13.292,-0.3,0.055
21:31:13.296,-0.26,0.075
21:31:13.300,-0.22,0.085
21:31:13.304,-0.2,0.105
21:31:13.308,-0.22,0.095
21:31:13.312,-0.21,0.085
21:31:13.316,-0.215,0.08
21:31:13.320,-0.235,0.065
21:31:13.324,-0.245,0.065
21:31:13.328,-0.28,0.035
21:31:13.332,-0.3,0.015
21:31:13.336,-0.34,-0.02
21:31:13.340,-0.355,-0.015
21:31:13.344,-0.38,-0.025
21:31:13.348,-0.42,-0.035
21:31:13.352,-0.45,-0.015
21:31:13.356,-0.475,-0.005
21:31:13.360,-0.48,0.015
21:31:13.364,-0.49,0.01
21:31:13.368,-0.46,0.02
21:31:13.372,-0.47,0.02
21:31:13.376,-0.47,0.0
21:31:13.380,-0.455,0.01
21:31:13.384,-0.44,-0.015
21:31:13.388,-0.425,0.005
21:31:13.392,-0.42,0.0
21:31:13.396,-0.415,0.005
21:31:13.400,-0.4,0.0
21:31:13.404,-0.395,0.0
21:31:13.408,-0.42,-0.02
21:31:13.412,-0.425,0.0
21:31:13.416,-0.4,0.0
21:31:13.420,-0.415,-0.005
21:31:13.424,-0.41,-0.005
21:31:13.428,-0.43,-0.02
21:31:13.432,-0.395,-0.01
21:31:13.436,-0.405,-0.03
21:31:13.440,-0.41,-0.04
21:31:13.444,-0.4,-0.035
21:31:13.448,-0.39,-0.05
21:31:13.452,-0.365,-0.06
21:31:13.456,-0.34,-0.065
21:31:13.460,-0.275,-0.065
21:31:13.464,-0.175,-0.08
21:31:13.468,-0.09,-0.105
21:31:13.472,0.0,-0.13
21:31:13.476,0.06,-0.16
21:31:13.480,0.115,-0.185
21:31:13.484,0.13,-0.18
21:31:13.488,0.13,-0.2
21:31:13.492,0.105,-0.245
21:31:13.496,0.115,-0.325
21:31:13.500,0.265,-0.475
21:31:13.504,0.53,-0.69
21:31:13.508,0.86,-0.92
21:31:13.512,1.04,-1.125
21:31:13.516,0.96,-1.2
21:31:13.520,0.62,-0.99
21:31:13.524,0.145,-0.655
21:31:13.528,-0.18,-0.36
21:31:13.532,-0.31,-0.19
21:31:13.536,-0.4,-0.095
21:31:13.540,-0.44,-0.025
21:31:13.544,-0.46,0.02
21:31:13.548,-0.485,0.055
21:31:13.552,-0.54,0.045
21:31:13.556,-0.565,0.045
21:31:13.560,-0.585,0.035
21:31:13.564,-0.605,-0.005
21:31:13.568,-0.58,-0.025
21:31:13.572,-0.605,-0.07
21:31:13.576,-0.6,-0.065
21:31:13.580,-0.585,-0.07
21:31:13.584,-0.61,-0.075
21:31:13.588,-0.585,-0.08
21:31:13.592,-0.605,-0.075
21:31:13.596,-0.63,-0.095
21:31:13.600,-0.64,-0.085
21:31:13.604,-0.645,-0.085
21:31:13.608,-0.625,-0.045
21:31:13.612,-0.62,-0.06
21:31:13.616,-0.595,-0.05
21:31:13.620,-0.595,-0.055
21:31:13.624,-0.61,-0.08
21:31:13.628,-0.625,-0.085
21:31:13.632,-0.625,-0.095
21:31:13.636,-0.64,-0.075
21:31:13.640,-0.66,-0.1
21:31:13.644,-0.65,-0.095
21:31:13.648,-0.615,-0.11
21:31:13.652,-0.63,-0.125
21:31:13.656,-0.655,-0.15
21:31:13.660,-0.67,-0.135
21:31:13.664,-0.68,-0.145
21:31:13.668,-0.675,-0.14
21:31:13.672,-0.695,-0.155
21:31:13.676,-0.665,-0.17
21:31:13.680,-0.675,-0.18
21:31:13.684,-0.67,-0.18
21:31:13.688,-0.655,-0.21
21:31:13.692,-0.63,-0.205
21:31:13.696,-0.635,-0.215
21:31:13.700,-0.64,-0.22
21:31:13.704,-0.625,-0.2
21:31:13.708,-0.62,-0.21
21:31:13.712,-0.615,-0.195
21:31:13.716,-0.615,-0.235
21:31:13.720,-0.59,-0.22
21:31:13.724,-0.555,-0.235
21:31:13.728,-0.53,-0.235
21:31:13.732,-0.525,-0.265
21:31:13.736,-0.52,-0.275
21:31:13.740,-0.495,-0.26
21:31:13.744,-0.475,-0.265
21:31:13.748,-0.475,-0.275
21:31:13.752,-0.49,-0.295
21:31:13.756,-0.475,-0.29
21:31:13.760,-0.455,-0.28
21:31:13.764,-0.445,-0.275
21:31:13.768,-0.44,-0.29
21:31:13.772,-0.43,-0.31
21:31:13.776,-0.415,-0.285
21:31:13.780,-0.435,-0.295
21:31:13.784,-0.435,-0.305
21:31:13.788,-0.4,-0.335
21:31:13.792,-0.405,-0.34
21:31:13.796,-0.4,-0.31
21:31:13.800,-0.405,-0.335
21:31:13.804,-0.415,-0.315
21:31:13.808,-0.39,-0.32
21:31:13.812,-0.38,-0.32
21:31:13.816,-0.38,-0.3
21:31:13.820,-0.37,-0.34
21:31:13.824,-0.375,-0.33
21:31:13.828,-0.37,-0.32
21:31:13.832,-0.365,-0.295
21:31:13.836,-0.365,-0.31
21:31:13.840,-0.37,-0.315
21:31:13.844,-0.355,-0.295
21:31:13.848,-0.365,-0.295
21:31:13.852,-0.35,-0.31
21:31:13.856,-0.35,-0.295
21:31:13.860,-0.355,-0.315
21:31:13.864,-0.365,-0.3
21:31:13.868,-0.36,-0.305
21:31:13.872,-0.375,-0.285
21:31:13.876,-0.37,-0.29
21:31:13.880,-0.38,-0.305
21:31:13.884,-0.385,-0.3
21:31:13.888,-0.38,-0.3
21:31:13.892,-0.38,-0.295
21:31:13.896,-0.4,-0.31
21:31:13.900,-0.395,-0.29
21:31:13.904,-0.405,-0.295
21:31:13.908,-0.395,-0.3
21:31:13.912,-0.385,-0.305
21:31:13.916,-0.39,-0.31
21:31:13.920,-0.355,-0.315
21:31:13.924,-0.38,-0.335
21:31:13.928,-0.4,-0.31
21:31:13.932,-0.4,-0.31
21:31:13.936,-0.39,-0.315
21:31:13.940,-0.395,-0.31
21:31:13.944,-0.4,-0.31
21:31:13.948,-0.36,-0.31
21:31:13.952,-0.35,-0.29
21:31:13.956,-0.35,-0.285
21:31:13.960,-0.33,-0.265
21:31:13.964,-0.315,-0.265
21:31:13.968,-0.275,-0.24
21:31:13.972,-0.265,-0.225
21:31:13.976,-0.265,-0.225
21:31:13.980,-0.245,-0.195
21:31:13.984,-0.215,-0.185
21:31:13.988,-0.21,-0.195
21:31:13.992,-0.21,-0.2
21:31:13.996,-0.22,-0.19
21:31:14.000,-0.205,-0.24
21:31:14.004,-0.205,-0.24
21:31:14.008,-0.26,-0.275
21:31:14.012,-0.32,-0.275
21:31:14.016,-0.345,-0.25
21:31:14.020,-0.36,-0.235
21:31:14.024,-0.4,-0.22
21:31:14.028,-0.41,-0.2
21:31:14.032,-0.41,-0.18
21:31:14.036,-0.395,-0.175
21:31:14.040,-0.38,-0.125
21:31:14.044,-0.385,-0.145
21:31:14.048,-0.38,-0.155
21:31:14.052,-0.355,-0.15
21:31:14.056,-0.365,-0.14
21:31:14.060,-0.36,-0.15
21:31:14.064,-0.355,-0.105
21:31:14.068,-0.35,-0.115
21:31:14.072,-0.325,-0.11
21:31:14.076,-0.31,-0.12
21:31:14.080,-0.29,-0.1
21:31:14.084,-0.305,-0.12
21:31:14.088,-0.305,-0.09
21:31:14.092,-0.335,-0.1
21:31:14.096,-0.32,-0.08
21:31:14.100,-0.31,-0.08
21:31:14.104,-0.305,-0.085
21:31:14.108,-0.31,-0.075
21:31:14.112,-0.29,-0.085
21:31:14.116,-0.28,-0.09
21:31:14.120,-0.26,-0.115
21:31:14.124,-0.26,-0.09
21:31:14.128,-0.22,-0.1
21:31:14.132,-0.155,-0.1
21:31:14.136,-0.065,-0.1
21:31:14.140,0.01,-0.14
21:31:14.144,0.105,-0.17
21:31:14.148,0.18,-0.2
21:31:14.152,0.235,-0.225
21:31:14.156,0.265,-0.205
21:31:14.160,0.285,-0.225
21:31:14.164,0.25,-0.27
21:31:14.168,0.295,-0.385
21:31:14.172,0.435,-0.545
21:31:14.176,0.76,-0.735
21:31:14.180,1.055,-0.995
21:31:14.184,1.195,-1.14
21:31:14.188,1.03,-1.125
21:31:14.192,0.59,-0.88
21:31:14.196,0.1,-0.515
21:31:14.200,-0.14,-0.27
21:31:14.204,-0.27,-0.125
21:31:14.208,-0.315,-0.03
21:31:14.212,-0.335,0.045
21:31:14.216,-0.345,0.08
21:31:14.220,-0.365,0.105
21:31:14.224,-0.415,0.09
21:31:14.228,-0.43,0.1
21:31:14.232,-0.435,0.075
21:31:14.236,-0.465,0.04
21:31:14.240,-0.465,0.05
21:31:14.244,-0.49,0.03
21:31:14.248,-0.465,0.035
21:31:14.252,-0.465,0.025
21:31:14.256,-0.46,0.04
21:31:14.260,-0.48,0.025
21:31:14.264,-0.475,0.03
21:31:14.268,-0.48,0.035
21:31:14.272,-0.475,0.035
21:31:14.276,-0.48,0.025
21:31:14.280,-0.48,0.025
21:31:14.284,-0.485,0.035
21:31:14.288,-0.5,0.03
21:31:14.292,-0.505,0.07
21:31:14.296,-0.495,0.055
21:31:14.300,-0.48,0.045
21:31:14.304,-0.49,0.04
21:31:14.308,-0.49,0.015
21:31:14.312,-0.49,0.025
21:31:14.316,-0.465,0.04
21:31:14.320,-0.49,0.035
21:31:14.324,-0.5,0.04
21:31:14.328,-0.495,0.07
21:31:14.332,-0.49,0.035
21:31:14.336,-0.52,0.045
21:31:14.340,-0.52,0.04
21:31:14.344,-0.52,0.03
21:31:14.348,-0.51,0.035
21:31:14.352,-0.525,0.045
21:31:14.356,-0.53,0.03
21:31:14.360,-0.515,0.005
21:31:14.364,-0.505,0.04
21:31:14.368,-0.505,0.035
21:31:14.372,-0.5,0.01
21:31:14.376,-0.465,0.0
21:31:14.380,-0.475,0.01
21:31:14.384,-0.465,0.005
21:31:14.388,-0.455,0.005
21:31:14.392,-0.46,-0.01
21:31:14.396,-0.425,-0.02
21:31:14.400,-0.415,-0.015
21:31:14.404,-0.43,-0.005
21:31:14.408,-0.39,-0.025
21:31:14.412,-0.375,-0.03
21:31:14.416,-0.36,-0.045
21:31:14.420,-0.35,-0.02
21:31:14.424,-0.33,-0.05
21:31:14.428,-0.3,-0.03
21:31:14.432,-0.3,-0.025
21:31:14.436,-0.31,-0.025
21:31:14.440,-0.325,-0.02
21:31:14.444,-0.295,-0.04
21:31:14.448,-0.28,-0.035
21:31:14.452,-0.285,-0.05
21:31:14.456,-0.28,-0.02
21:31:14.460,-0.27,-0.05
21:31:14.464,-0.27,-0.045
21:31:14.468,-0.28,-0.05
21:31:14.472,-0.27,-0.03
21:31:14.476,-0.25,-0.045
21:31:14.480,-0.26,-0.055
21:31:14.484,-0.26,-0.05
21:31:14.488,-0.27,-0.04
21:31:14.492,-0.25,-0.045
21:31:14.496,-0.245,-0.055
21:31:14.500,-0.255,-0.055
21:31:14.504,-0.27,-0.03
21:31:14.508,-0.255,-0.025
21:31:14.512,-0.27,-0.03
21:31:14.516,-0.27,-0.025
21:31:14.520,-0.25,-0.03
21:31:14.524,-0.25,-0.01
21:31:14.528,-0.25,-0.005
21:31:14.532,-0.27,-0.01
21:31:14.536,-0.26,-0.01
21:31:14.540,-0.255,-0.01
21:31:14.544,-0.25,0.01
21:31:14.548,-0.27,0.01
21:31:14.552,-0.275,0.005
21:31:14.556,-0.275,0.015
21:31:14.560,-0.265,0.005
21:31:14.564,-0.285,0.0
21:31:14.568,-0.305,-0.02
21:31:14.572,-0.295,0.0
21:31:14.576,-0.3,0.0
21:31:14.580,-0.295,-0.005
21:31:14.584,-0.3,-0.015
21:31:14.588,-0.285,0.0
21:31:14.592,-0.265,0.0
21:31:14.596,-0.26,-0.005
21:31:14.600,-0.26,-0.02
21:31:14.604,-0.255,-0.01
21:31:14.608,-0.24,-0.005
21:31:14.612,-0.245,0.01
21:31:14.616,-0.25,0.015
21:31:14.620,-0.22,0.03
21:31:14.624,-0.175,0.03
21:31:14.628,-0.145,0.035
21:31:14.632,-0.13,0.05
21:31:14.636,-0.1,0.065
21:31:14.640,-0.08,0.07
21:31:14.644,-0.085,0.06
21:31:14.648,-0.08,0.065
21:31:14.652,-0.1,0.045
21:31:14.656,-0.12,0.02
21:31:14.660,-0.175,0.005
21:31:14.664,-0.24,-0.01
21:31:14.668,-0.25,0.0
21:31:14.672,-0.28,-0.015
21:31:14.676,-0.315,-0.01
21:31:14.680,-0.345,0.01
21:31:14.684,-0.37,0.015
21:31:14.688,-0.375,0.035
21:31:14.692,-0.375,0.02
21:31:14.696,-0.39,0.03
21:31:14.700,-0.39,0.03
21:31:14.704,-0.365,0.025
21:31:14.708,-0.335,0.02
21:31:14.712,-0.34,0.015
21:31:14.716,-0.355,0.02
21:31:14.720,-0.335,-0.01
21:31:14.724,-0.34,0.0
21:31:14.728,-0.335,0.0
21:31:14.732,-0.34,0.005
21:31:14.736,-0.34,0.01
21:31:14.740,-0.32,0.01
21:31:14.744,-0.315,0.005
21:31:14.748,-0.295,0.005
21:31:14.752,-0.31,0.0
21:31:14.756,-0.31,0.025
21:31:14.760,-0.315,0.035
21:31:14.764,-0.3,0.03
21:31:14.768,-0.3,0.025
21:31:14.772,-0.285,0.045
21:31:14.776,-0.29,0.015
21:31:14.780,-0.295,0.015
21:31:14.784,-0.29,0.04
21:31:14.788,-0.23,0.02
21:31:14.792,-0.19,0.035
21:31:14.796,-0.115,0.015
21:31:14.800,-0.03,0.01
21:31:14.804,0.045,0.01
21:31:14.808,0.105,-0.045
21:31:14.812,0.13,-0.09
21:31:14.816,0.165,-0.11
21:31:14.820,0.18,-0.12
21:31:14.824,0.16,-0.175
21:31:14.828,0.16,-0.26
21:31:14.832,0.265,-0.395
21:31:14.836,0.52,-0.61
21:31:14.840,0.865,-0.85
21:31:14.844,1.1,-1.065
21:31:14.848,1.065,-1.13
21:31:14.852,0.74,-0.99
21:31:14.856,0.24,-0.625
21:31:14.860,-0.13,-0.27
21:31:14.864,-0.275,-0.085
21:31:14.868,-0.365,0.02
21:31:14.872,-0.37,0.12
21:31:14.876,-0.355,0.145
21:31:14.880,-0.415,0.18
21:31:14.884,-0.405,0.18
21:31:14.888,-0.425,0.175
21:31:14.892,-0.425,0.15
21:31:14.896,-0.44,0.16
21:31:14.900,-0.435,0.135
21:31:14.904,-0.425,0.125
21:31:14.908,-0.445,0.11
21:31:14.912,-0.455,0.1
21:31:14.916,-0.475,0.11
21:31:14.920,-0.465,0.13
21:31:14.924,-0.475,0.105
21:31:14.928,-0.49,0.13
21:31:14.932,-0.47,0.1
21:31:14.936,-0.48,0.105
21:31:14.940,-0.49,0.1
21:31:14.944,-0.49,0.09
21:31:14.948,-0.495,0.08
21:31:14.952,-0.495,0.08
21:31:14.956,-0.51,0.095
21:31:14.960,-0.51,0.1
21:31:14.964,-0.52,0.115
21:31:14.968,-0.51,0.115
21:31:14.972,-0.51,0.135
21:31:14.976,-0.515,0.1
21:31:14.980,-0.51,0.115
21:31:14.984,-0.495,0.145
21:31:14.988,-0.495,0.125
21:31:14.992,-0.515,0.115
21:31:14.996,-0.5,0.135
21:31:15.000,-0.5,0.14
21:31:15.004,-0.51,0.155
21:31:15.008,-0.515,0.13
21:31:15.012,-0.51,0.16
21:31:15.016,-0.495,0.16
21:31:15.020,-0.5,0.145
21:31:15.024,-0.52,0.145
21:31:15.028,-0.52,0.135
21:31:15.032,-0.505,0.115
21:31:15.036,-0.495,0.13
21:31:15.040,-0.48,0.125
21:31:15.044,-0.47,0.12
21:31:15.048,-0.455,0.095
21:31:15.052,-0.425,0.1
21:31:15.056,-0.445,0.085
21:31:15.060,-0.435,0.07
21:31:15.064,-0.42,0.09
21:31:15.068,-0.4,0.04
21:31:15.072,-0.385,0.055
21:31:15.076,-0.375,0.06
21:31:15.080,-0.345,0.04
21:31:15.084,-0.335,0.05
21:31:15.088,-0.32,0.055
21:31:15.092,-0.315,0.045
21:31:15.096,-0.28,0.055
21:31:15.100,-0.27,0.05
21:31:15.104,-0.27,0.05
21:31:15.108,-0.265,0.05
21:31:15.112,-0.265,0.06
21:31:15.116,-0.245,0.06
21:31:15.120,-0.245,0.055
21:31:15.124,-0.245,0.055
21:31:15.128,-0.24,0.045
21:31:15.132,-0.24,0.035
21:31:15.136,-0.21,0.03
21:31:15.140,-0.255,0.04
21:31:15.144,-0.26,0.06
21:31:15.148,-0.24,0.07
21:31:15.152,-0.25,0.06
21:31:15.156,-0.265,0.04
21:31:15.160,-0.245,0.045
21:31:15.164,-0.25,0.055
21:31:15.168,-0.255,0.055
21:31:15.172,-0.245,0.045
21:31:15.176,-0.24,0.075
21:31:15.180,-0.24,0.07
21:31:15.184,-0.25,0.08
21:31:15.188,-0.255,0.085
21:31:15.192,-0.27,0.09
21:31:15.196,-0.265,0.065
21:31:15.200,-0.26,0.085
21:31:15.204,-0.28,0.095
21:31:15.208,-0.265,0.085
21:31:15.212,-0.26,0.095
21:31:15.216,-0.265,0.09
21:31:15.220,-0.26,0.08
21:31:15.224,-0.27,0.075
21:31:15.228,-0.265,0.09
21:31:15.232,-0.29,0.085
21:31:15.236,-0.23,0.065
21:31:15.240,-0.245,0.075
21:31:15.244,-0.22,0.08
21:31:15.248,-0.21,0.065
21:31:15.252,-0.225,0.09
21:31:15.256,-0.23,0.08
21:31:15.260,-0.235,0.085
21:31:15.264,-0.215,0.105
21:31:15.268,-0.185,0.09
21:31:15.272,-0.17,0.09
21:31:15.276,-0.135,0.105
21:31:15.280,-0.145,0.125
21:31:15.284,-0.135,0.105
21:31:15.288,-0.08,0.115
21:31:15.292,-0.075,0.11
21:31:15.296,-0.07,0.09
21:31:15.300,-0.115,0.09
21:31:15.304,-0.165,0.05
21:31:15.308,-0.205,0.05
21:31:15.312,-0.23,0.035
21:31:15.316,-0.28,0.035
21:31:15.320,-0.32,0.01
21:31:15.324,-0.335,0.035
21:31:15.328,-0.365,0.055
21:31:15.332,-0.385,0.075
21:31:15.336,-0.41,0.085
21:31:15.340,-0.405,0.09
21:31:15.344,-0.4,0.085
21:31:15.348,-0.38,0.075
21:31:15.352,-0.38,0.05
21:31:15.356,-0.39,0.045
21:31:15.360,-0.405,0.05
21:31:15.364,-0.42,0.04
21:31:15.368,-0.4,0.05
21:31:15.372,-0.385,0.04
21:31:15.376,-0.4,0.035
21:31:15.380,-0.41,0.02
21:31:15.384,-0.42,0.025
21:31:15.388,-0.425,0.04
21:31:15.392,-0.425,0.025
21:31:15.396,-0.405,0.03
21:31:15.400,-0.4,0.015
21:31:15.404,-0.4,0.015
21:31:15.408,-0.38,0.03
21:31:15.412,-0.38,0.0
21:31:15.416,-0.37,0.02
21:31:15.420,-0.35,0.02
21:31:15.424,-0.35,0.0
21:31:15.428,-0.35,0.015
21:31:15.432,-0.35,0.0
21:31:15.436,-0.34,0.0
21:31:15.440,-0.295,0.01
21:31:15.444,-0.22,0.01
21:31:15.448,-0.175,0.025
21:31:15.452,-0.06,-0.005
21:31:15.456,0.025,-0.035
21:31:15.460,0.085,-0.08
21:31:15.464,0.1,-0.1
21:31:15.468,0.14,-0.09
21:31:15.472,0.125,-0.105
21:31:15.476,0.09,-0.165
21:31:15.480,0.12,-0.255
21:31:15.484,0.28,-0.4
21:31:15.488,0.6,-0.66
21:31:15.492,0.865,-0.915
21:31:15.496,0.99,-1.095
21:31:15.500,0.8,-1.12
21:31:15.504,0.365,-0.855
21:31:15.508,-0.08,-0.49
21:31:15.512,-0.31,-0.205
21:31:15.516,-0.39,-0.065
21:31:15.520,-0.44,0.0
21:31:15.524,-0.45,0.075
21:31:15.528,-0.47,0.1
21:31:15.532,-0.49,0.1
21:31:15.536,-0.49,0.105
21:31:15.540,-0.505,0.085
21:31:15.544,-0.51,0.06
21:31:15.548,-0.515,0.06
21:31:15.552,-0.525,0.035
21:31:15.556,-0.55,0.05
21:31:15.560,-0.565,0.035
21:31:15.564,-0.555,0.03
21:31:15.568,-0.56,0.035
21:31:15.572,-0.55,0.035
21:31:15.576,-0.545,0.025
21:31:15.580,-0.555,0.0
21:31:15.584,-0.59,0.015
21:31:15.588,-0.58,0.01
21:31:15.592,-0.575,0.015
21:31:15.596,-0.565,0.0
21:31:15.600,-0.56,0.0
21:31:15.604,-0.565,-0.015
21:31:15.608,-0.59,-0.025
21:31:15.612,-0.585,-0.03
21:31:15.616,-0.605,-0.015
21:31:15.620,-0.6,-0.01
21:31:15.624,-0.62,-0.02
21:31:15.628,-0.61,-0.025
21:31:15.632,-0.615,-0.03
21:31:15.636,-0.59,-0.03
21:31:15.640,-0.61,-0.06
21:31:15.644,-0.615,-0.035
21:31:15.648,-0.605,-0.025
21:31:15.652,-0.58,-0.01
21:31:15.656,-0.6,-0.005
21:31:15.660,-0.61,-0.005
21:31:15.664,-0.575,-0.025
21:31:15.668,-0.58,-0.02
21:31:15.672,-0.57,-0.015
21:31:15.676,-0.565,-0.025
21:31:15.680,-0.57,-0.025
21:31:15.684,-0.565,-0.035
21:31:15.688,-0.55,-0.04
21:31:15.692,-0.55,-0.04
21:31:15.696,-0.515,-0.03
21:31:15.700,-0.515,-0.05
21:31:15.704,-0.5,-0.055
21:31:15.708,-0.5,-0.06
21:31:15.712,-0.48,-0.055
21:31:15.716,-0.47,-0.065
21:31:15.720,-0.47,-0.085
21:31:15.724,-0.465,-0.095
21:31:15.728,-0.445,-0.12
21:31:15.732,-0.45,-0.105
21:31:15.736,-0.415,-0.125
21:31:15.740,-0.4,-0.125
21:31:15.744,-0.395,-0.105
21:31:15.748,-0.375,-0.125
21:31:15.752,-0.38,-0.13
21:31:15.756,-0.375,-0.105
21:31:15.760,-0.355,-0.13
21:31:15.764,-0.315,-0.15
21:31:15.768,-0.315,-0.15
21:31:15.772,-0.335,-0.13
21:31:15.776,-0.355,-0.16
21:31:15.780,-0.315,-0.13
21:31:15.784,-0.32,-0.13
21:31:15.788,-0.315,-0.13
21:31:15.792,-0.325,-0.135
21:31:15.796,-0.335,-0.13
21:31:15.800,-0.33,-0.145
21:31:15.804,-0.32,-0.155
21:31:15.808,-0.31,-0.155
21:31:15.812,-0.295,-0.145
21:31:15.816,-0.305,-0.16
21:31:15.820,-0.34,-0.165
21:31:15.824,-0.35,-0.2
21:31:15.828,-0.34,-0.19
21:31:15.832,-0.315,-0.17
21:31:15.836,-0.335,-0.17
21:31:15.840,-0.345,-0.195
21:31:15.844,-0.34,-0.19
21:31:15.848,-0.34,-0.19
21:31:15.852,-0.35,-0.19
21:31:15.856,-0.365,-0.18
21:31:15.860,-0.35,-0.215
21:31:15.864,-0.355,-0.205
21:31:15.868,-0.34,-0.21
21:31:15.872,-0.335,-0.205
21:31:15.876,-0.31,-0.225
21:31:15.880,-0.315,-0.195
21:31:15.884,-0.28,-0.215
21:31:15.888,-0.315,-0.215
21:31:15.892,-0.3,-0.225
21:31:15.896,-0.295,-0.24
21:31:15.900,-0.295,-0.25
21:31:15.904,-0.29,-0.23
21:31:15.908,-0.29,-0.23
21:31:15.912,-0.3,-0.225
21:31:15.916,-0.28,-0.225
21:31:15.920,-0.28,-0.225
21:31:15.924,-0.24,-0.205
21:31:15.928,-0.21,-0.205
21:31:15.932,-0.205,-0.2
21:31:15.936,-0.175,-0.2
21:31:15.940,-0.15,-0.215
21:31:15.944,-0.12,-0.215
21:31:15.948,-0.12,-0.22
21:31:15.952,-0.16,-0.25
21:31:15.956,-0.205,-0.255
21:31:15.960,-0.26,-0.275
21:31:15.964,-0.26,-0.285
21:31:15.968,-0.3,-0.305
21:31:15.972,-0.335,-0.27
21:31:15.976,-0.36,-0.285
21:31:15.980,-0.36,-0.275
21:31:15.984,-0.36,-0.24
21:31:15.988,-0.38,-0.22
21:31:15.992,-0.365,-0.22
21:31:15.996,-0.35,-0.225
21:31:16.000,-0.345,-0.23
21:31:16.004,-0.34,-0.23
21:31:16.008,-0.32,-0.235
21:31:16.012,-0.31,-0.22
21:31:16.016,-0.315,-0.215
21:31:16.020,-0.335,-0.23
21:31:16.024,-0.32,-0.22
21:31:16.028,-0.31,-0.22
21:31:16.032,-0.29,-0.24
21:31:16.036,-0.32,-0.245
21:31:16.040,-0.335,-0.22
21:31:16.044,-0.31,-0.215
21:31:16.048,-0.295,-0.205
21:31:16.052,-0.32,-0.22
21:31:16.056,-0.28,-0.22
21:31:16.060,-0.31,-0.215
21:31:16.064,-0.315,-0.18
21:31:16.068,-0.32,-0.23
21:31:16.072,-0.315,-0.22
21:31:16.076,-0.3,-0.205
21:31:16.080,-0.295,-0.195
21:31:16.084,-0.265,-0.205
21:31:16.088,-0.19,-0.185
21:31:16.092,-0.135,-0.175
21:31:16.096,-0.03,-0.19
21:31:16.100,0.06,-0.21
21:31:16.104,0.155,-0.24
21:31:16.108,0.23,-0.26
21:31:16.112,0.25,-0.275
21:31:16.116,0.315,-0.245
21:31:16.120,0.325,-0.265
21:31:16.124,0.31,-0.325
21:31:16.128,0.33,-0.41
21:31:16.132,0.495,-0.57
21:31:16.136,0.82,-0.78
21:31:16.140,1.095,-1.01
21:31:16.144,1.155,-1.145
21:31:16.148,0.905,-1.12
21:31:16.152,0.435,-0.85
21:31:16.156,0.01,-0.51
21:31:16.160,-0.195,-0.285
21:31:16.164,-0.3,-0.165
21:31:16.168,-0.32,-0.095
21:31:16.172,-0.35,-0.015
21:31:16.176,-0.355,0.01
21:31:16.180,-0.38,0.03
21:31:16.184,-0.415,0.03
21:31:16.188,-0.425,0.035
21:31:16.192,-0.44,0.03
21:31:16.196,-0.45,0.015
21:31:16.200,-0.455,0.0
21:31:16.204,-0.44,-0.005
21:31:16.208,-0.445,0.005
21:31:16.212,-0.44,0.005
21:31:16.216,-0.44,0.005
21:31:16.220,-0.425,0.01
21:31:16.224,-0.435,0.0
21:31:16.228,-0.45,-0.01
21:31:16.232,-0.47,0.015
21:31:16.236,-0.455,0.015
21:31:16.240,-0.45,-0.015
21:31:16.244,-0.46,0.0
21:31:16.248,-0.465,0.0
21:31:16.252,-0.455,0.0
21:31:16.256,-0.44,-0.005
21:31:16.260,-0.455,-0.015
21:31:16.264,-0.485,-0.005
21:31:16.268,-0.505,-0.005
21:31:16.272,-0.485,-0.01
21:31:16.276,-0.525,-0.005
21:31:16.280,-0.51,-0.015
21:31:16.284,-0.52,-0.015
21:31:16.288,-0.51,-0.025
21:31:16.292,-0.505,-0.015
21:31:16.296,-0.5,-0.025
21:31:16.300,-0.5,-0.01
21:31:16.304,-0.505,-0.035
21:31:16.308,-0.5,-0.025
21:31:16.312,-0.505,-0.025
21:31:16.316,-0.5,-0.015
21:31:16.320,-0.475,0.0
21:31:16.324,-0.46,0.0
21:31:16.328,-0.46,-0.01
21:31:16.332,-0.46,-0.025
21:31:16.336,-0.425,-0.02
21:31:16.340,-0.415,-0.02
21:31:16.344,-0.42,-0.03
21:31:16.348,-0.405,-0.02
21:31:16.352,-0.375,-0.04
21:31:16.356,-0.36,-0.045
21:31:16.360,-0.37,-0.04
21:31:16.364,-0.38,-0.055
21:31:16.368,-0.34,-0.07
21:31:16.372,-0.355,-0.055
21:31:16.376,-0.355,-0.09
21:31:16.380,-0.34,-0.095
21:31:16.384,-0.34,-0.095
21:31:16.388,-0.31,-0.085
21:31:16.392,-0.315,-0.115
21:31:16.396,-0.295,-0.115
21:31:16.400,-0.285,-0.09
21:31:16.404,-0.275,-0.11
21:31:16.408,-0.265,-0.11
21:31:16.412,-0.28,-0.115
21:31:16.416,-0.24,-0.1
21:31:16.420,-0.23,-0.095
21:31:16.424,-0.25,-0.12
21:31:16.428,-0.255,-0.085
21:31:16.432,-0.245,-0.105
21:31:16.436,-0.225,-0.085
21:31:16.440,-0.21,-0.09
21:31:16.444,-0.225,-0.08
21:31:16.448,-0.2,-0.1
21:31:16.452,-0.205,-0.08
21:31:16.456,-0.22,-0.055
21:31:16.460,-0.225,-0.065
21:31:16.464,-0.225,-0.03
21:31:16.468,-0.22,-0.035
21:31:16.472,-0.235,-0.03
21:31:16.476,-0.225,-0.045
21:31:16.480,-0.245,-0.075
21:31:16.484,-0.235,-0.06
21:31:16.488,-0.225,-0.05
21:31:16.492,-0.27,-0.06
21:31:16.496,-0.245,-0.055
21:31:16.500,-0.265,-0.04
21:31:16.504,-0.25,-0.04
21:31:16.508,-0.25,-0.05
21:31:16.512,-0.255,-0.05
21:31:16.516,-0.265,-0.05
21:31:16.520,-0.245,-0.055
21:31:16.524,-0.265,-0.05
21:31:16.528,-0.25,-0.04
21:31:16.532,-0.25,-0.05
21:31:16.536,-0.215,-0.035
21:31:16.540,-0.21,-0.065
21:31:16.544,-0.21,-0.05
21:31:16.548,-0.195,-0.015
21:31:16.552,-0.185,-0.03
21:31:16.556,-0.19,-0.02
21:31:16.560,-0.18,-0.02
21:31:16.564,-0.14,0.005
21:31:16.568,-0.095,0.01
21:31:16.572,-0.065,0.015
21:31:16.576,-0.045,0.04
21:31:16.580,-0.055,0.01
21:31:16.584,0.0,0.03
21:31:16.588,0.01,0.02
21:31:16.592,-0.005,0.03
21:31:16.596,-0.01,-0.015
21:31:16.600,-0.07,-0.035
21:31:16.604,-0.135,-0.055
21:31:16.608,-0.19,-0.065
21:31:16.612,-0.26,-0.065
21:31:16.616,-0.29,-0.06
21:31:16.620,-0.32,-0.055
21:31:16.624,-0.33,-0.04
21:31:16.628,-0.365,-0.025
21:31:16.632,-0.375,-0.02
21:31:16.636,-0.355,-0.03
21:31:16.640,-0.375,-0.055
21:31:16.644,-0.36,-0.05
21:31:16.648,-0.355,-0.045
21:31:16.652,-0.34,-0.055
21:31:16.656,-0.35,-0.035
21:31:16.660,-0.35,-0.05
21:31:16.664,-0.33,-0.06
21:31:16.668,-0.315,-0.05
21:31:16.672,-0.33,-0.04
21:31:16.676,-0.315,-0.05
21:31:16.680,-0.305,-0.05
21:31:16.684,-0.315,-0.05
21:31:16.688,-0.31,-0.05
21:31:16.692,-0.305,-0.04
21:31:16.696,-0.3,-0.055
21:31:16.700,-0.305,-0.06
21:31:16.704,-0.3,-0.08
21:31:16.708,-0.29,-0.095
21:31:16.712,-0.31,-0.085
21:31:16.716,-0.29,-0.075
21:31:16.720,-0.295,-0.06
21:31:16.724,-0.305,-0.055
21:31:16.728,-0.305,-0.07
21:31:16.732,-0.3,-0.06
21:31:16.736,-0.245,-0.06
21:31:16.740,-0.225,-0.065
21:31:16.744,-0.16,-0.06
21:31:16.748,-0.07,-0.07
21:31:16.752,0.03,-0.07
21:31:16.756,0.075,-0.1
21:31:16.760,0.13,-0.14
21:31:16.764,0.15,-0.185
21:31:16.768,0.21,-0.18
21:31:16.772,0.195,-0.205
21:31:16.776,0.165,-0.25
21:31:16.780,0.19,-0.365
21:31:16.784,0.365,-0.51
21:31:16.788,0.68,-0.755
21:31:16.792,0.965,-0.975
21:31:16.796,1.135,-1.155
21:31:16.800,1.035,-1.18
21:31:16.804,0.615,-0.93
21:31:16.808,0.115,-0.545
21:31:16.812,-0.185,-0.255
21:31:16.816,-0.295,-0.095
21:31:16.820,-0.35,0.01
21:31:16.824,-0.37,0.07
21:31:16.828,-0.355,0.1
21:31:16.832,-0.375,0.105
21:31:16.836,-0.405,0.115
21:31:16.840,-0.43,0.11
21:31:16.844,-0.415,0.085
21:31:16.848,-0.41,0.085
21:31:16.852,-0.425,0.085
21:31:16.856,-0.435,0.065
21:31:16.860,-0.43,0.065
21:31:16.864,-0.42,0.065
21:31:16.868,-0.415,0.05
21:31:16.872,-0.45,0.065
21:31:16.876,-0.43,0.055
21:31:16.880,-0.415,0.065
21:31:16.884,-0.435,0.055
21:31:16.888,-0.45,0.065
21:31:16.892,-0.45,0.08
21:31:16.896,-0.42,0.045
21:31:16.900,-0.42,0.06
21:31:16.904,-0.445,0.06
21:31:16.908,-0.425,0.07
21:31:16.912,-0.425,0.085
21:31:16.916,-0.435,0.07
21:31:16.920,-0.45,0.085
21:31:16.924,-0.46,0.08
21:31:16.928,-0.455,0.075
21:31:16.932,-0.445,0.065
21:31:16.936,-0.47,0.08
21:31:16.940,-0.47,0.07
21:31:16.944,-0.455,0.065
21:31:16.948,-0.475,0.085
21:31:16.952,-0.47,0.085
21:31:16.956,-0.47,0.07
21:31:16.960,-0.46,0.07
21:31:16.964,-0.465,0.06
21:31:16.968,-0.47,0.08
21:31:16.972,-0.48,0.055
21:31:16.976,-0.44,0.05
21:31:16.980,-0.455,0.045
21:31:16.984,-0.44,0.05
21:31:16.988,-0.435,0.045
21:31:16.992,-0.415,0.065
21:31:16.996,-0.4,0.06
21:31:17.000,-0.395,0.055
21:31:17.004,-0.37,0.065
21:31:17.008,-0.36,0.045
21:31:17.012,-0.33,0.04
21:31:17.016,-0.33,0.045
21:31:17.020,-0.335,0.005
21:31:17.024,-0.31,0.04
21:31:17.028,-0.295,0.035
21:31:17.032,-0.28,0.02
21:31:17.036,-0.27,0.02
21:31:17.040,-0.26,0.02
21:31:17.044,-0.25,0.0
21:31:17.048,-0.225,-0.005
21:31:17.052,-0.23,0.0
21:31:17.056,-0.215,-0.02
21:31:17.060,-0.225,-0.01
21:31:17.064,-0.23,-0.005
21:31:17.068,-0.24,0.015
21:31:17.072,-0.24,-0.005
21:31:17.076,-0.215,-0.02
21:31:17.080,-0.205,0.02
21:31:17.084,-0.225,0.0
21:31:17.088,-0.21,0.0
21:31:17.092,-0.2,0.01
21:31:17.096,-0.2,0.02
21:31:17.100,-0.19,0.015
21:31:17.104,-0.19,0.01
21:31:17.108,-0.2,0.0
21:31:17.112,-0.2,0.0
21:31:17.116,-0.2,0.02
21:31:17.120,-0.19,0.01
21:31:17.124,-0.18,0.01
21:31:17.128,-0.18,0.03
21:31:17.132,-0.195,0.05
21:31:17.136,-0.185,0.03
21:31:17.140,-0.185,0.025
21:31:17.144,-0.18,0.035
21:31:17.148,-0.21,0.035
21:31:17.152,-0.205,0.03
21:31:17.156,-0.21,0.04
21:31:17.160,-0.21,0.025
21:31:17.164,-0.22,0.025
21:31:17.168,-0.22,0.025
21:31:17.172,-0.215,0.045
21:31:17.176,-0.225,0.03
21:31:17.180,-0.26,0.02
21:31:17.184,-0.245,0.02
21:31:17.188,-0.225,0.045
21:31:17.192,-0.205,0.02
21:31:17.196,-0.21,0.025
21:31:17.200,-0.195,0.035
21:31:17.204,-0.185,0.03
21:31:17.208,-0.205,0.05
21:31:17.212,-0.215,0.025
21:31:17.216,-0.18,0.03
21:31:17.220,-0.155,0.055
21:31:17.224,-0.12,0.07
21:31:17.228,-0.095,0.08
21:31:17.232,-0.06,0.075
21:31:17.236,-0.03,0.085
21:31:17.240,-0.005,0.075
21:31:17.244,0.0,0.07
21:31:17.248,0.0,0.06
21:31:17.252,-0.025,0.03
21:31:17.256,-0.075,0.02
21:31:17.260,-0.125,0.005
21:31:17.264,-0.17,-0.02
21:31:17.268,-0.23,-0.015
21:31:17.272,-0.26,-0.02
21:31:17.276,-0.295,-0.025
21:31:17.280,-0.32,0.0
21:31:17.284,-0.35,0.03
21:31:17.288,-0.37,0.025
21:31:17.292,-0.365,0.035
21:31:17.296,-0.39,0.005
21:31:17.300,-0.38,0.005
21:31:17.304,-0.36,0.015
21:31:17.308,-0.36,0.0
21:31:17.312,-0.35,-0.02
21:31:17.316,-0.345,-0.02
21:31:17.320,-0.345,-0.03
21:31:17.324,-0.355,-0.035
21:31:17.328,-0.34,-0.035
21:31:17.332,-0.335,-0.005
21:31:17.336,-0.33,0.0
21:31:17.340,-0.335,-0.02
21:31:17.344,-0.335,-0.015
21:31:17.348,-0.305,-0.015
21:31:17.352,-0.31,-0.04
21:31:17.356,-0.3,-0.015
21:31:17.360,-0.3,-0.03
21:31:17.364,-0.295,-0.03
21:31:17.368,-0.295,-0.005
21:31:17.372,-0.285,-0.025
21:31:17.376,-0.285,0.0
21:31:17.380,-0.29,-0.01
21:31:17.384,-0.26,-0.01
21:31:17.388,-0.275,-0.015
21:31:17.392,-0.24,-0.015
21:31:17.396,-0.185,-0.02
21:31:17.400,-0.11,-0.02
21:31:17.404,-0.02,-0.03
21:31:17.408,0.035,-0.065
21:31:17.412,0.075,-0.11
21:31:17.416,0.115,-0.135
21:31:17.420,0.14,-0.14
21:31:17.424,0.155,-0.145
21:31:17.428,0.125,-0.19
21:31:17.432,0.135,-0.3
21:31:17.436,0.26,-0.445
21:31:17.440,0.505,-0.65
21:31:17.444,0.835,-0.87
21:31:17.448,1.08,-1.085
21:31:17.452,1.075,-1.18
21:31:17.456,0.755,-1.005
21:31:17.460,0.26,-0.625
21:31:17.464,-0.125,-0.285
21:31:17.468,-0.25,-0.1
21:31:17.472,-0.34,0.0
21:31:17.476,-0.35,0.07
21:31:17.480,-0.365,0.11
21:31:17.484,-0.39,0.135
21:31:17.488,-0.415,0.15
21:31:17.492,-0.42,0.145
21:31:17.496,-0.425,0.12
21:31:17.500,-0.41,0.115
21:31:17.504,-0.43,0.09
21:31:17.508,-0.45,0.08
21:31:17.512,-0.45,0.085
21:31:17.516,-0.46,0.09
21:31:17.520,-0.47,0.075
21:31:17.524,-0.47,0.085
21:31:17.528,-0.485,0.075
21:31:17.532,-0.465,0.075
21:31:17.536,-0.48,0.06
21:31:17.540,-0.49,0.08
21:31:17.544,-0.49,0.07
21:31:17.548,-0.475,0.065
21:31:17.552,-0.49,0.075
21:31:17.556,-0.495,0.065
21:31:17.560,-0.485,0.04
21:31:17.564,-0.495,0.05
21:31:17.568,-0.49,0.07
21:31:17.572,-0.5,0.07
21:31:17.576,-0.515,0.07
21:31:17.580,-0.495,0.06
21:31:17.584,-0.49,0.075
21:31:17.588,-0.505,0.095
21:31:17.592,-0.515,0.08
21:31:17.596,-0.505,0.07
21:31:17.600,-0.5,0.09
21:31:17.604,-0.505,0.095
21:31:17.608,-0.52,0.09
21:31:17.612,-0.515,0.095
21:31:17.616,-0.505,0.095
21:31:17.620,-0.49,0.09
21:31:17.624,-0.5,0.07
21:31:17.628,-0.485,0.08
21:31:17.632,-0.49,0.07
21:31:17.636,-0.485,0.075
21:31:17.640,-0.485,0.075
21:31:17.644,-0.46,0.07
21:31:17.648,-0.44,0.075
21:31:17.652,-0.445,0.035
21:31:17.656,-0.425,0.06
21:31:17.660,-0.415,0.045
21:31:17.664,-0.405,0.03
21:31:17.668,-0.38,0.035
21:31:17.672,-0.375,0.01
21:31:17.676,-0.37,0.01
21:31:17.680,-0.35,0.005
21:31:17.684,-0.325,0.0
21:31:17.688,-0.325,-0.01
21:31:17.692,-0.28,0.0
21:31:17.696,-0.26,0.0
21:31:17.700,-0.255,-0.005
21:31:17.704,-0.24,0.0
21:31:17.708,-0.235,0.02
21:31:17.712,-0.24,0.025
21:31:17.716,-0.225,0.025
21:31:17.720,-0.23,0.03
21:31:17.724,-0.225,0.025
21:31:17.728,-0.225,0.02
21:31:17.732,-0.22,0.005
21:31:17.736,-0.23,0.01
21:31:17.740,-0.22,0.01
21:31:17.744,-0.24,0.03
21:31:17.748,-0.225,0.005
21:31:17.752,-0.235,0.02
21:31:17.756,-0.24,0.01
21:31:17.760,-0.225,0.025
21:31:17.764,-0.23,0.01
21:31:17.768,-0.225,0.01
21:31:17.772,-0.235,0.045
21:31:17.776,-0.245,0.02
21:31:17.780,-0.245,0.035
21:31:17.784,-0.265,0.045
21:31:17.788,-0.265,0.05
21:31:17.792,-0.255,0.045
21:31:17.796,-0.24,0.05
21:31:17.800,-0.255,0.05
21:31:17.804,-0.235,0.06
21:31:17.808,-0.215,0.04
21:31:17.812,-0.225,0.065
21:31:17.816,-0.21,0.06
21:31:17.820,-0.225,0.04
21:31:17.824,-0.225,0.06
21:31:17.828,-0.24,0.075
21:31:17.832,-0.24,0.06
21:31:17.836,-0.2,0.065
21:31:17.840,-0.18,0.065
21:31:17.844,-0.2,0.055
21:31:17.848,-0.18,0.03
21:31:17.852,-0.18,0.06
21:31:17.856,-0.15,0.085
21:31:17.860,-0.11,0.09
21:31:17.864,-0.095,0.1
21:31:17.868,-0.08,0.115
21:31:17.872,-0.06,0.1
21:31:17.876,-0.035,0.105
21:31:17.880,-0.005,0.085
21:31:17.884,-0.005,0.06
21:31:17.888,-0.015,0.045
21:31:17.892,-0.08,0.035
21:31:17.896,-0.135,0.0
21:31:17.900,-0.2,-0.015
21:31:17.904,-0.225,0.01
21:31:17.908,-0.275,-0.01
21:31:17.912,-0.32,0.005
21:31:17.916,-0.385,0.0
21:31:17.920,-0.385,0.035
21:31:17.924,-0.39,0.035
21:31:17.928,-0.395,0.05
21:31:17.932,-0.415,0.04
21:31:17.936,-0.39,0.015
21:31:17.940,-0.38,0.0
21:31:17.944,-0.385,0.03
21:31:17.948,-0.395,-0.01
21:31:17.952,-0.385,0.015
21:31:17.956,-0.37,0.0
21:31:17.960,-0.36,-0.005
21:31:17.964,-0.36,-0.005
21:31:17.968,-0.36,-0.015
21:31:17.972,-0.385,-0.035
21:31:17.976,-0.38,-0.03
21:31:17.980,-0.39,-0.03
21:31:17.984,-0.38,-0.025
21:31:17.988,-0.375,-0.05
21:31:17.992,-0.36,-0.07
21:31:17.996,-0.37,-0.07
21:31:18.000,-0.365,-0.08
21:31:18.004,-0.35,-0.06
21:31:18.008,-0.36,-0.08
21:31:18.012,-0.36,-0.075
21:31:18.016,-0.36,-0.06
21:31:18.020,-0.345,-0.055
21:31:18.024,-0.345,-0.09
21:31:18.028,-0.33,-0.07
21:31:18.032,-0.295,-0.1
21:31:18.036,-0.215,-0.095
21:31:18.040,-0.13,-0.095
21:31:18.044,-0.025,-0.1
21:31:18.048,0.055,-0.12
21:31:18.052,0.14,-0.155
21:31:18.056,0.2,-0.19
21:31:18.060,0.225,-0.19
21:31:18.064,0.25,-0.17
21:31:18.068,0.24,-0.22
21:31:18.072,0.21,-0.26
21:31:18.076,0.28,-0.415
21:31:18.080,0.5,-0.6
21:31:18.084,0.83,-0.845
21:31:18.088,1.07,-1.055
21:31:18.092,1.035,-1.175
21:31:18.096,0.685,-1.06
21:31:18.100,0.185,-0.725
21:31:18.104,-0.135,-0.42
21:31:18.108,-0.265,-0.275
21:31:18.112,-0.335,-0.135
21:31:18.116,-0.365,-0.07
21:31:18.120,-0.375,-0.025
21:31:18.124,-0.435,-0.005
21:31:18.128,-0.455,-0.015
21:31:18.132,-0.47,0.0
21:31:18.136,-0.48,-0.055
21:31:18.140,-0.49,-0.05
21:31:18.144,-0.495,-0.07
21:31:18.148,-0.5,-0.06
21:31:18.152,-0.475,-0.09
21:31:18.156,-0.495,-0.065
21:31:18.160,-0.5,-0.075
21:31:18.164,-0.495,-0.08
21:31:18.168,-0.505,-0.09
21:31:18.172,-0.5,-0.08
21:31:18.176,-0.53,-0.085
21:31:18.180,-0.515,-0.09
21:31:18.184,-0.505,-0.085
21:31:18.188,-0.51,-0.08
21:31:18.192,-0.5,-0.08
21:31:18.196,-0.53,-0.08
21:31:18.200,-0.555,-0.07
21:31:18.204,-0.57,-0.07
21:31:18.208,-0.58,-0.1
21:31:18.212,-0.575,-0.095
21:31:18.216,-0.555,-0.095
21:31:18.220,-0.58,-0.12
21:31:18.224,-0.59,-0.13
21:31:18.228,-0.565,-0.12
21:31:18.232,-0.555,-0.12
21:31:18.236,-0.535,-0.105
21:31:18.240,-0.585,-0.135
21:31:18.244,-0.58,-0.14
21:31:18.248,-0.595,-0.155
21:31:18.252,-0.585,-0.15
21:31:18.256,-0.58,-0.155
21:31:18.260,-0.58,-0.15
21:31:18.264,-0.525,-0.16
21:31:18.268,-0.51,-0.18
21:31:18.272,-0.515,-0.16
21:31:18.276,-0.525,-0.165
21:31:18.280,-0.5,-0.195
21:31:18.284,-0.5,-0.17
21:31:18.288,-0.475,-0.195
21:31:18.292,-0.495,-0.19
21:31:18.296,-0.475,-0.205
21:31:18.300,-0.47,-0.205
21:31:18.304,-0.45,-0.215
21:31:18.308,-0.45,-0.24
21:31:18.312,-0.45,-0.23
21:31:18.316,-0.415,-0.235
21:31:18.320,-0.42,-0.265
21:31:18.324,-0.39,-0.265
21:31:18.328,-0.39,-0.29
21:31:18.332,-0.36,-0.295
21:31:18.336,-0.365,-0.305
21:31:18.340,-0.375,-0.305
21:31:18.344,-0.36,-0.315
21:31:18.348,-0.35,-0.32
21:31:18.352,-0.35,-0.345
21:31:18.356,-0.345,-0.31
21:31:18.360,-0.355,-0.33
21:31:18.364,-0.315,-0.31
21:31:18.368,-0.32,-0.31
21:31:18.372,-0.315,-0.325
21:31:18.376,-0.285,-0.32
21:31:18.380,-0.28,-0.33
21:31:18.384,-0.265,-0.315
21:31:18.388,-0.285,-0.32
21:31:18.392,-0.29,-0.33
21:31:18.396,-0.31,-0.33
21:31:18.400,-0.28,-0.33
21:31:18.404,-0.31,-0.33
21:31:18.408,-0.305,-0.32
21:31:18.412,-0.295,-0.315
21:31:18.416,-0.3,-0.325
21:31:18.420,-0.31,-0.315
21:31:18.424,-0.31,-0.31
21:31:18.428,-0.31,-0.325
21:31:18.432,-0.325,-0.35
21:31:18.436,-0.34,-0.35
21:31:18.440,-0.335,-0.345
21:31:18.444,-0.345,-0.355
21:31:18.448,-0.33,-0.355
21:31:18.452,-0.32,-0.335
21:31:18.456,-0.31,-0.355
21:31:18.460,-0.315,-0.355
21:31:18.464,-0.33,-0.375
21:31:18.468,-0.34,-0.375
21:31:18.472,-0.32,-0.37
21:31:18.476,-0.315,-0.385
21:31:18.480,-0.295,-0.35
21:31:18.484,-0.295,-0.35
21:31:18.488,-0.27,-0.36
21:31:18.492,-0.25,-0.36
21:31:18.496,-0.245,-0.345
21:31:18.500,-0.245,-0.35
21:31:18.504,-0.215,-0.355
21:31:18.508,-0.17,-0.325
21:31:18.512,-0.14,-0.32
21:31:18.516,-0.105,-0.29
21:31:18.520,-0.085,-0.325
21:31:18.524,-0.04,-0.285
21:31:18.528,0.0,-0.28
21:31:18.532,0.0,-0.31
21:31:18.536,-0.035,-0.32
21:31:18.540,-0.085,-0.36
21:31:18.544,-0.145,-0.35
21:31:18.548,-0.205,-0.385
21:31:18.552,-0.26,-0.395
21:31:18.556,-0.295,-0.39
21:31:18.560,-0.36,-0.39
21:31:18.564,-0.36,-0.35
21:31:18.568,-0.385,-0.34
21:31:18.572,-0.39,-0.325
21:31:18.576,-0.385,-0.325
21:31:18.580,-0.39,-0.34
21:31:18.584,-0.4,-0.315
21:31:18.588,-0.38,-0.345
21:31:18.592,-0.37,-0.345
21:31:18.596,-0.355,-0.315
21:31:18.600,-0.36,-0.315
21:31:18.604,-0.35,-0.3
21:31:18.608,-0.33,-0.3
21:31:18.612,-0.335,-0.325
21:31:18.616,-0.33,-0.3
21:31:18.620,-0.33,-0.29
21:31:18.624,-0.325,-0.295
21:31:18.628,-0.32,-0.3
21:31:18.632,-0.3,-0.28
21:31:18.636,-0.31,-0.27
21:31:18.640,-0.31,-0.255
21:31:18.644,-0.3,-0.23
21:31:18.648,-0.305,-0.24
21:31:18.652,-0.325,-0.235
21:31:18.656,-0.305,-0.255
21:31:18.660,-0.3,-0.245
21:31:18.664,-0.32,-0.23
21:31:18.668,-0.315,-0.215
21:31:18.672,-0.27,-0.22
21:31:18.676,-0.27,-0.235
21:31:18.680,-0.24,-0.245
21:31:18.684,-0.2,-0.22
21:31:18.688,-0.125,-0.215
21:31:18.692,-0.03,-0.235
21:31:18.696,0.07,-0.245
21:31:18.700,0.135,-0.265
21:31:18.704,0.2,-0.3
21:31:18.708,0.265,-0.315
21:31:18.712,0.32,-0.31
21:31:18.716,0.32,-0.33
21:31:18.720,0.32,-0.395
21:31:18.724,0.39,-0.52
21:31:18.728,0.605,-0.685
21:31:18.732,0.94,-0.92
21:31:18.736,1.17,-1.125
21:31:18.740,1.175,-1.21
21:31:18.744,0.84,-1.11
21:31:18.748,0.315,-0.75
21:31:18.752,-0.025,-0.43
21:31:18.756,-0.175,-0.27
21:31:18.760,-0.235,-0.18
21:31:18.764,-0.28,-0.05
21:31:18.768,-0.295,-0.025
21:31:18.772,-0.335,0.0
21:31:18.776,-0.385,0.01
21:31:18.780,-0.375,0.005
21:31:18.784,-0.395,0.0
21:31:18.788,-0.395,-0.025
21:31:18.792,-0.39,-0.03
21:31:18.796,-0.4,-0.03
21:31:18.800,-0.4,-0.025
21:31:18.804,-0.41,-0.035
21:31:18.808,-0.41,-0.045
21:31:18.812,-0.42,-0.04
21:31:18.816,-0.43,-0.03
21:31:18.820,-0.41,-0.02
21:31:18.824,-0.415,-0.015
21:31:18.828,-0.42,-0.025
21:31:18.832,-0.41,-0.015
21:31:18.836,-0.4,-0.04
21:31:18.840,-0.39,-0.04
21:31:18.844,-0.405,-0.035
21:31:18.848,-0.41,-0.02
21:31:18.852,-0.415,-0.015
21:31:18.856,-0.435,-0.025
21:31:18.860,-0.43,-0.02
21:31:18.864,-0.43,-0.025
21:31:18.868,-0.43,0.005
21:31:18.872,-0.425,-0.005
21:31:18.876,-0.435,-0.02
21:31:18.880,-0.445,-0.04
21:31:18.884,-0.435,-0.03
21:31:18.888,-0.445,-0.03
21:31:18.892,-0.47,-0.015
21:31:18.896,-0.46,0.0
21:31:18.900,-0.455,-0.015
21:31:18.904,-0.445,-0.01
21:31:18.908,-0.465,-0.01
21:31:18.912,-0.44,-0.025
21:31:18.916,-0.44,-0.03
21:31:18.920,-0.415,-0.005
21:31:18.924,-0.415,-0.02
21:31:18.928,-0.415,-0.035
21:31:18.932,-0.4,-0.04
21:31:18.936,-0.365,-0.06
21:31:18.940,-0.385,-0.045
21:31:18.944,-0.345,-0.055
21:31:18.948,-0.33,-0.06
21:31:18.952,-0.305,-0.065
21:31:18.956,-0.295,-0.06
21:31:18.960,-0.305,-0.055
21:31:18.964,-0.285,-0.055
21:31:18.968,-0.245,-0.055
21:31:18.972,-0.245,-0.06
21:31:18.976,-0.25,-0.06
21:31:18.980,-0.255,-0.075
21:31:18.984,-0.225,-0.08
21:31:18.988,-0.235,-0.085
21:31:18.992,-0.215,-0.075
21:31:18.996,-0.2,-0.1
21:31:19.000,-0.215,-0.08
21:31:19.004,-0.2,-0.08
21:31:19.008,-0.205,-0.1
21:31:19.012,-0.195,-0.08
21:31:19.016,-0.175,-0.095
21:31:19.020,-0.18,-0.07
21:31:19.024,-0.185,-0.095
21:31:19.028,-0.18,-0.085
21:31:19.032,-0.18,-0.08
21:31:19.036,-0.175,-0.075
21:31:19.040,-0.175,-0.085
21:31:19.044,-0.19,-0.09
21:31:19.048,-0.18,-0.08
21:31:19.052,-0.155,-0.08
21:31:19.056,-0.16,-0.07
21:31:19.060,-0.145,-0.06
21:31:19.064,-0.155,-0.07
21:31:19.068,-0.135,-0.04
21:31:19.072,-0.155,-0.045
21:31:19.076,-0.16,-0.04
21:31:19.080,-0.18,-0.02
21:31:19.084,-0.165,-0.02
21:31:19.088,-0.17,-0.02
21:31:19.092,-0.175,-0.04
21:31:19.096,-0.19,-0.04
21:31:19.100,-0.185,-0.02
21:31:19.104,-0.165,-0.035
21:31:19.108,-0.175,-0.035
21:31:19.112,-0.18,-0.01
21:31:19.116,-0.165,-0.01
21:31:19.120,-0.155,-0.02
21:31:19.124,-0.16,-0.005
21:31:19.128,-0.17,-0.025
21:31:19.132,-0.14,-0.035
21:31:19.136,-0.1,-0.02
21:31:19.140,-0.08,-0.015
21:31:19.144,-0.04,-0.015
21:31:19.148,0.0,0.03
21:31:19.152,0.005,0.04
21:31:19.156,0.02,0.02
21:31:19.160,0.05,0.03
21:31:19.164,0.06,0.045
21:31:19.168,0.085,0.04
21:31:19.172,0.09,0.01
21:31:19.176,0.035,-0.005
21:31:19.180,-0.015,-0.04
21:31:19.184,-0.045,-0.05
21:31:19.188,-0.115,-0.03
21:31:19.192,-0.195,-0.035
21:31:19.196,-0.22,-0.015
21:31:19.200,-0.27,0.0
21:31:19.204,-0.3,0.0
21:31:19.208,-0.325,0.005
21:31:19.212,-0.32,0.02
21:31:19.216,-0.345,-0.005
21:31:19.220,-0.34,-0.015
21:31:19.224,-0.36,-0.015
21:31:19.228,-0.34,-0.02
21:31:19.232,-0.325,-0.03
21:31:19.236,-0.33,-0.03
21:31:19.240,-0.33,-0.025
21:31:19.244,-0.32,-0.045
21:31:19.248,-0.32,-0.05
21:31:19.252,-0.32,-0.045
21:31:19.256,-0.325,-0.05
21:31:19.260,-0.33,-0.06
21:31:19.264,-0.29,-0.05
21:31:19.268,-0.325,-0.05
21:31:19.272,-0.325,-0.045
21:31:19.276,-0.3,-0.045
21:31:19.280,-0.29,-0.05
21:31:19.284,-0.29,-0.045
21:31:19.288,-0.29,-0.04
21:31:19.292,-0.275,-0.06
21:31:19.296,-0.295,-0.06
21:31:19.300,-0.295,-0.04
21:31:19.304,-0.28,-0.05
21:31:19.308,-0.275,-0.03
21:31:19.312,-0.25,-0.04
21:31:19.316,-0.22,-0.04
21:31:19.320,-0.165,-0.045
21:31:19.324,-0.08,-0.07
21:31:19.328,0.005,-0.075
21:31:19.332,0.065,-0.095
21:31:19.336,0.1,-0.15
21:31:19.340,0.145,-0.195
21:31:19.344,0.19,-0.195
21:31:19.348,0.17,-0.215
21:31:19.352,0.145,-0.275
21:31:19.356,0.14,-0.35
21:31:19.360,0.275,-0.52
21:31:19.364,0.57,-0.74
21:31:19.368,0.885,-1.0
21:31:19.372,1.09,-1.18
21:31:19.376,1.02,-1.24
21:31:19.380,0.64,-1.01
21:31:19.384,0.125,-0.625
21:31:19.388,-0.19,-0.32
21:31:19.392,-0.32,-0.14
21:31:19.396,-0.355,-0.03
21:31:19.400,-0.38,0.04
21:31:19.404,-0.375,0.06
21:31:19.408,-0.405,0.105
21:31:19.412,-0.425,0.105
21:31:19.416,-0.41,0.11
21:31:19.420,-0.445,0.09
21:31:19.424,-0.43,0.075
21:31:19.428,-0.42,0.045
21:31:19.432,-0.435,0.055
21:31:19.436,-0.445,0.06
21:31:19.440,-0.425,0.065
21:31:19.444,-0.435,0.045
21:31:19.448,-0.46,0.055
21:31:19.452,-0.48,0.055
21:31:19.456,-0.46,0.07
21:31:19.460,-0.455,0.06
21:31:19.464,-0.48,0.045
21:31:19.468,-0.455,0.045
21:31:19.472,-0.465,0.045
21:31:19.476,-0.48,0.055
21:31:19.480,-0.465,0.015
21:31:19.484,-0.48,0.025
21:31:19.488,-0.495,0.05
21:31:19.492,-0.475,0.045
21:31:19.496,-0.49,0.045
21:31:19.500,-0.505,0.045
21:31:19.504,-0.515,0.07
21:31:19.508,-0.5,0.06
21:31:19.512,-0.515,0.07
21:31:19.516,-0.5,0.065
21:31:19.520,-0.505,0.07
21:31:19.524,-0.495,0.065
21:31:19.528,-0.495,0.075
21:31:19.532,-0.485,0.095
21:31:19.536,-0.5,0.08
21:31:19.540,-0.49,0.08
21:31:19.544,-0.49,0.075
21:31:19.548,-0.5,0.075
21:31:19.552,-0.48,0.08
21:31:19.556,-0.47,0.08
21:31:19.560,-0.45,0.08
21:31:19.564,-0.45,0.055
21:31:19.568,-0.455,0.03
21:31:19.572,-0.44,0.06
21:31:19.576,-0.43,0.06
21:31:19.580,-0.44,0.04
21:31:19.584,-0.39,0.05
21:31:19.588,-0.38,0.02
21:31:19.592,-0.38,0.005
21:31:19.596,-0.365,0.005
21:31:19.600,-0.35,-0.005
21:31:19.604,-0.34,0.005
21:31:19.608,-0.34,0.0
21:31:19.612,-0.33,0.005
21:31:19.616,-0.31,-0.01
21:31:19.620,-0.29,-0.005
21:31:19.624,-0.27,0.0
21:31:19.628,-0.28,0.03
21:31:19.632,-0.25,0.005
21:31:19.636,-0.225,0.0
21:31:19.640,-0.235,0.0
21:31:19.644,-0.225,0.0
21:31:19.648,-0.215,0.0
21:31:19.652,-0.22,0.02
21:31:19.656,-0.22,0.02
21:31:19.660,-0.22,0.01
21:31:19.664,-0.235,0.03
21:31:19.668,-0.23,0.015
21:31:19.672,-0.215,0.01
21:31:19.676,-0.23,0.04
21:31:19.680,-0.25,0.03
21:31:19.684,-0.23,0.0
21:31:19.688,-0.225,0.0
21:31:19.692,-0.235,0.015
21:31:19.696,-0.225,0.02
21:31:19.700,-0.23,0.03
21:31:19.704,-0.24,0.045
21:31:19.708,-0.24,0.035
21:31:19.712,-0.245,0.0
21:31:19.716,-0.235,0.01
21:31:19.720,-0.24,0.015
21:31:19.724,-0.255,0.02
21:31:19.728,-0.245,0.03
21:31:19.732,-0.25,0.02
21:31:19.736,-0.21,0.035
21:31:19.740,-0.24,0.025
21:31:19.744,-0.23,0.03
21:31:19.748,-0.215,0.055
21:31:19.752,-0.195,0.03
21:31:19.756,-0.205,0.025
21:31:19.760,-0.185,0.05
21:31:19.764,-0.175,0.06
21:31:19.768,-0.175,0.06
21:31:19.772,-0.195,0.055
21:31:19.776,-0.16,0.07
21:31:19.780,-0.125,0.08
21:31:19.784,-0.09,0.075
21:31:19.788,-0.06,0.11
21:31:19.792,-0.055,0.1
21:31:19.796,-0.04,0.1
21:31:19.800,-0.025,0.11
21:31:19.804,0.005,0.09
21:31:19.808,0.015,0.12
21:31:19.812,0.02,0.085
21:31:19.816,-0.005,0.05
21:31:19.820,-0.03,0.02
21:31:19.824,-0.08,0.025
21:31:19.828,-0.14,0.035
21:31:19.832,-0.18,0.02
21:31:19.836,-0.245,0.02
21:31:19.840,-0.3,0.025
21:31:19.844,-0.33,0.055
21:31:19.848,-0.345,0.05
21:31:19.852,-0.38,0.055
21:31:19.856,-0.365,0.05
21:31:19.860,-0.37,0.06
21:31:19.864,-0.35,0.05
21:31:19.868,-0.365,0.04
21:31:19.872,-0.35,0.03
21:31:19.876,-0.34,0.03
21:31:19.880,-0.34,0.025
21:31:19.884,-0.345,0.03
21:31:19.888,-0.32,0.03
21:31:19.892,-0.34,0.03
21:31:19.896,-0.335,0.03
21:31:19.900,-0.33,0.04
21:31:19.904,-0.34,0.035
21:31:19.908,-0.35,0.03
21:31:19.912,-0.35,0.04
21:31:19.916,-0.345,0.045
21:31:19.920,-0.33,0.015
21:31:19.924,-0.345,0.01
21:31:19.928,-0.33,0.02
21:31:19.932,-0.31,0.01
21:31:19.936,-0.335,0.0
21:31:19.940,-0.325,0.005
21:31:19.944,-0.325,-0.01
21:31:19.948,-0.315,-0.01
21:31:19.952,-0.32,0.01
21:31:19.956,-0.28,0.005
21:31:19.960,-0.255,0.01
21:31:19.964,-0.175,0.005
21:31:19.968,-0.095,-0.005
21:31:19.972,0.0,-0.005
21:31:19.976,0.07,-0.03
21:31:19.980,0.12,-0.08
21:31:19.984,0.145,-0.105
21:31:19.988,0.165,-0.12
21:31:19.992,0.17,-0.095
21:31:19.996,0.135,-0.185
21:31:20.000,0.165,-0.26
21:31:20.004,0.32,-0.43
21:31:20.008,0.615,-0.68
21:31:20.012,0.93,-0.925
21:31:20.016,1.07,-1.09
21:31:20.020,0.935,-1.11
21:31:20.024,0.52,-0.86
21:31:20.028,0.035,-0.47
21:31:20.032,-0.23,-0.19
21:31:20.036,-0.35,-0.05
21:31:20.040,-0.39,0.075
21:31:20.044,-0.38,0.12
21:31:20.048,-0.4,0.12
21:31:20.052,-0.46,0.135
21:31:20.056,-0.455,0.155
21:31:20.060,-0.46,0.145
21:31:20.064,-0.45,0.145
21:31:20.068,-0.465,0.12
21:31:20.072,-0.49,0.12
21:31:20.076,-0.475,0.11
21:31:20.080,-0.45,0.12
21:31:20.084,-0.43,0.11
21:31:20.088,-0.43,0.125
21:31:20.092,-0.45,0.12
21:31:20.096,-0.455,0.13
21:31:20.100,-0.455,0.13
21:31:20.104,-0.47,0.13
21:31:20.108,-0.475,0.135
21:31:20.112,-0.475,0.12
21:31:20.116,-0.465,0.105
21:31:20.120,-0.48,0.105
21:31:20.124,-0.515,0.125
21:31:20.128,-0.53,0.12
21:31:20.132,-0.525,0.12
21:31:20.136,-0.535,0.115
21:31:20.140,-0.52,0.11
21:31:20.144,-0.535,0.11
21:31:20.148,-0.54,0.1
21:31:20.152,-0.545,0.11
21:31:20.156,-0.525,0.095
21:31:20.160,-0.525,0.09
21:31:20.164,-0.54,0.095
21:31:20.168,-0.535,0.1
21:31:20.172,-0.55,0.085
21:31:20.176,-0.535,0.075
21:31:20.180,-0.555,0.085
21:31:20.184,-0.56,0.07
21:31:20.188,-0.535,0.09
21:31:20.192,-0.5,0.105
21:31:20.196,-0.495,0.095
21:31:20.200,-0.485,0.09
21:31:20.204,-0.485,0.095
21:31:20.208,-0.48,0.08
21:31:20.212,-0.475,0.06
21:31:20.216,-0.455,0.065
21:31:20.220,-0.45,0.065
21:31:20.224,-0.455,0.07
21:31:20.228,-0.435,0.055
21:31:20.232,-0.44,0.05
21:31:20.236,-0.425,0.02
21:31:20.240,-0.405,0.03
21:31:20.244,-0.42,0.01
21:31:20.248,-0.415,-0.01
21:31:20.252,-0.39,0.0
21:31:20.256,-0.365,-0.005
21:31:20.260,-0.355,-0.02
21:31:20.264,-0.365,-0.02
21:31:20.268,-0.35,-0.05
21:31:20.272,-0.335,-0.05
21:31:20.276,-0.35,-0.06
21:31:20.280,-0.345,-0.055
21:31:20.284,-0.345,-0.05
21:31:20.288,-0.3,-0.05
21:31:20.292,-0.32,-0.05
21:31:20.296,-0.32,-0.055
21:31:20.300,-0.335,-0.045
21:31:20.304,-0.305,-0.035
21:31:20.308,-0.3,-0.05
21:31:20.312,-0.31,-0.055
21:31:20.316,-0.32,-0.045
21:31:20.320,-0.275,-0.035
21:31:20.324,-0.26,-0.04
21:31:20.328,-0.305,-0.04
21:31:20.332,-0.305,-0.03
21:31:20.336,-0.305,-0.05
21:31:20.340,-0.305,-0.045
21:31:20.344,-0.315,-0.045
21:31:20.348,-0.315,-0.08
21:31:20.352,-0.32,-0.07
21:31:20.356,-0.31,-0.07
21:31:20.360,-0.31,-0.065
21:31:20.364,-0.32,-0.085
21:31:20.368,-0.345,-0.06
21:31:20.372,-0.37,-0.075
21:31:20.376,-0.34,-0.075
21:31:20.380,-0.335,-0.08
21:31:20.384,-0.34,-0.1
21:31:20.388,-0.34,-0.125
21:31:20.392,-0.32,-0.12
21:31:20.396,-0.33,-0.11
21:31:20.400,-0.305,-0.12
21:31:20.404,-0.3,-0.14
21:31:20.408,-0.285,-0.12
21:31:20.412,-0.3,-0.085
21:31:20.416,-0.28,-0.095
21:31:20.420,-0.23,-0.07
21:31:20.424,-0.195,-0.065
21:31:20.428,-0.14,-0.05
21:31:20.432,-0.1,-0.03
21:31:20.436,-0.095,-0.005
21:31:20.440,-0.07,-0.005
21:31:20.444,-0.03,-0.01
21:31:20.448,-0.045,-0.005
21:31:20.452,-0.035,-0.005
21:31:20.456,-0.045,-0.05
21:31:20.460,-0.085,-0.065
21:31:20.464,-0.15,-0.095
21:31:20.468,-0.19,-0.11
21:31:20.472,-0.235,-0.115
21:31:20.476,-0.33,-0.125
21:31:20.480,-0.375,-0.11
21:31:20.484,-0.425,-0.12
21:31:20.488,-0.44,-0.13
21:31:20.492,-0.47,-0.135
21:31:20.496,-0.495,-0.1
21:31:20.500,-0.49,-0.13
21:31:20.504,-0.49,-0.14
21:31:20.508,-0.48,-0.14
21:31:20.512,-0.46,-0.15
21:31:20.516,-0.445,-0.175
21:31:20.520,-0.44,-0.145
21:31:20.524,-0.45,-0.19
21:31:20.528,-0.485,-0.175
21:31:20.532,-0.445,-0.18
21:31:20.536,-0.44,-0.18
21:31:20.540,-0.445,-0.16
21:31:20.544,-0.4,-0.175
21:31:20.548,-0.41,-0.175
21:31:20.552,-0.41,-0.19
21:31:20.556,-0.42,-0.19
21:31:20.560,-0.445,-0.19
21:31:20.564,-0.44,-0.205
21:31:20.568,-0.41,-0.22
21:31:20.572,-0.425,-0.21
21:31:20.576,-0.42,-0.225
21:31:20.580,-0.415,-0.22
21:31:20.584,-0.41,-0.245
21:31:20.588,-0.43,-0.22
21:31:20.592,-0.43,-0.21
21:31:20.596,-0.4,-0.24
21:31:20.600,-0.365,-0.235
21:31:20.604,-0.295,-0.225
21:31:20.608,-0.195,-0.235
21:31:20.612,-0.11,-0.265
21:31:20.616,-0.01,-0.28
21:31:20.620,0.05,-0.325
21:31:20.624,0.115,-0.385
21:31:20.628,0.155,-0.36
21:31:20.632,0.185,-0.36
21:31:20.636,0.16,-0.385
21:31:20.640,0.15,-0.48
21:31:20.644,0.28,-0.615
21:31:20.648,0.59,-0.84
21:31:20.652,0.9,-1.055
21:31:20.656,1.02,-1.25
21:31:20.660,0.88,-1.25
21:31:20.664,0.435,-1.0
21:31:20.668,-0.035,-0.66
21:31:20.672,-0.29,-0.44
21:31:20.676,-0.385,-0.31
21:31:20.680,-0.41,-0.21
21:31:20.684,-0.435,-0.135
21:31:20.688,-0.465,-0.125
21:31:20.692,-0.5,-0.11
21:31:20.696,-0.51,-0.11
21:31:20.700,-0.52,-0.11
21:31:20.704,-0.56,-0.15
21:31:20.708,-0.55,-0.14
21:31:20.712,-0.55,-0.18
21:31:20.716,-0.555,-0.175
21:31:20.720,-0.575,-0.175
21:31:20.724,-0.57,-0.175
21:31:20.728,-0.565,-0.18
21:31:20.732,-0.54,-0.17
21:31:20.736,-0.56,-0.16
21:31:20.740,-0.575,-0.15
21:31:20.744,-0.565,-0.155
21:31:20.748,-0.57,-0.155
21:31:20.752,-0.58,-0.14
21:31:20.756,-0.585,-0.16
21:31:20.760,-0.56,-0.155
21:31:20.764,-0.55,-0.135
21:31:20.768,-0.57,-0.145
21:31:20.772,-0.545,-0.14
21:31:20.776,-0.56,-0.14
21:31:20.780,-0.555,-0.125
21:31:20.784,-0.56,-0.12
21:31:20.788,-0.56,-0.115
21:31:20.792,-0.565,-0.11
21:31:20.796,-0.56,-0.09
21:31:20.800,-0.57,-0.09
21:31:20.804,-0.575,-0.09
21:31:20.808,-0.575,-0.105
21:31:20.812,-0.565,-0.08
21:31:20.816,-0.56,-0.085
21:31:20.820,-0.56,-0.08
21:31:20.824,-0.555,-0.1
21:31:20.828,-0.55,-0.08
21:31:20.832,-0.53,-0.07
21:31:20.836,-0.53,-0.075
21:31:20.840,-0.53,-0.05
21:31:20.844,-0.49,-0.06
21:31:20.848,-0.505,-0.075
21:31:20.852,-0.5,-0.055
21:31:20.856,-0.5,-0.05
21:31:20.860,-0.47,-0.065
21:31:20.864,-0.465,-0.05
21:31:20.868,-0.445,-0.06
21:31:20.872,-0.445,-0.07
21:31:20.876,-0.405,-0.085
21:31:20.880,-0.37,-0.09
21:31:20.884,-0.365,-0.09
21:31:20.888,-0.36,-0.085
21:31:20.892,-0.335,-0.09
21:31:20.896,-0.31,-0.09
21:31:20.900,-0.315,-0.08
21:31:20.904,-0.33,-0.08
21:31:20.908,-0.295,-0.09
21:31:20.912,-0.29,-0.095
21:31:20.916,-0.27,-0.08
21:31:20.920,-0.27,-0.07
21:31:20.924,-0.26,-0.075
21:31:20.928,-0.25,-0.1
21:31:20.932,-0.25,-0.075
21:31:20.936,-0.235,-0.095
21:31:20.940,-0.245,-0.1
21:31:20.944,-0.215,-0.08
21:31:20.948,-0.235,-0.095
21:31:20.952,-0.24,-0.095
21:31:20.956,-0.225,-0.08
21:31:20.960,-0.22,-0.085
21:31:20.964,-0.22,-0.06
21:31:20.968,-0.23,-0.055
21:31:20.972,-0.22,-0.08
21:31:20.976,-0.21,-0.045
21:31:20.980,-0.195,-0.04
21:31:20.984,-0.215,-0.07
21:31:20.988,-0.21,-0.07
21:31:20.992,-0.205,-0.06
21:31:20.996,-0.185,-0.04
21:31:21.000,-0.22,-0.045
21:31:21.004,-0.21,-0.055
21:31:21.008,-0.21,-0.055
21:31:21.012,-0.215,-0.05
21:31:21.016,-0.22,-0.045
21:31:21.020,-0.225,-0.025
21:31:21.024,-0.215,-0.04
21:31:21.028,-0.23,-0.06
21:31:21.032,-0.23,-0.02
21:31:21.036,-0.23,-0.04
21:31:21.040,-0.23,-0.06
21:31:21.044,-0.255,-0.055
21:31:21.048,-0.24,-0.05
21:31:21.052,-0.25,-0.05
21:31:21.056,-0.25,-0.05
21:31:21.060,-0.225,-0.055
21:31:21.064,-0.235,-0.045
21:31:21.068,-0.205,-0.04
21:31:21.072,-0.185,-0.05
21:31:21.076,-0.185,-0.045
21:31:21.080,-0.16,-0.06
21:31:21.084,-0.17,-0.065
21:31:21.088,-0.145,-0.015
21:31:21.092,-0.1,-0.025
21:31:21.096,-0.08,0.01
21:31:21.100,-0.05,0.0
21:31:21.104,0.0,0.025
21:31:21.108,0.02,0.015
21:31:21.112,0.06,0.035
21:31:21.116,0.05,0.015
21:31:21.120,0.065,0.02
21:31:21.124,0.055,-0.015
21:31:21.128,0.01,-0.02
21:31:21.132,-0.045,-0.04
21:31:21.136,-0.105,-0.045
21:31:21.140,-0.155,-0.035
21:31:21.144,-0.205,-0.035
21:31:21.148,-0.27,-0.05
21:31:21.152,-0.295,-0.03
21:31:21.156,-0.32,-0.015
21:31:21.160,-0.35,-0.025
21:31:21.164,-0.375,0.0
21:31:21.168,-0.34,-0.02
21:31:21.172,-0.335,-0.025
21:31:21.176,-0.345,-0.05
21:31:21.180,-0.325,-0.025
21:31:21.184,-0.335,-0.04
21:31:21.188,-0.325,-0.055
21:31:21.192,-0.315,-0.04
21:31:21.196,-0.315,-0.04
21:31:21.200,-0.32,-0.04
21:31:21.204,-0.31,-0.04
21:31:21.208,-0.31,-0.02
21:31:21.212,-0.305,-0.045
21:31:21.216,-0.305,-0.04
21:31:21.220,-0.28,-0.025
21:31:21.224,-0.28,-0.025
21:31:21.228,-0.29,-0.01
21:31:21.232,-0.29,-0.005
21:31:21.236,-0.275,-0.015
21:31:21.240,-0.28,-0.02
21:31:21.244,-0.275,0.0
21:31:21.248,-0.295,-0.005
21:31:21.252,-0.26,-0.005
21:31:21.256,-0.275,-0.005
21:31:21.260,-0.27,-0.02
21:31:21.264,-0.22,-0.01
21:31:21.268,-0.185,-0.025
21:31:21.272,-0.12,-0.03
21:31:21.276,-0.055,-0.03
21:31:21.280,0.03,-0.07
21:31:21.284,0.1,-0.105
21:31:21.288,0.14,-0.145
21:31:21.292,0.13,-0.175
21:31:21.296,0.16,-0.15
21:31:21.300,0.16,-0.22
21:31:21.304,0.155,-0.29
21:31:21.308,0.22,-0.445
21:31:21.312,0.455,-0.655
21:31:21.316,0.82,-0.895
21:31:21.320,1.055,-1.105
21:31:21.324,1.08,-1.205
21:31:21.328,0.78,-1.035
21:31:21.332,0.28,-0.67
21:31:21.336,-0.095,-0.325
21:31:21.340,-0.255,-0.13
21:31:21.344,-0.355,-0.025
21:31:21.348,-0.375,0.065
21:31:21.352,-0.36,0.11
21:31:21.356,-0.38,0.125
21:31:21.360,-0.41,0.135
21:31:21.364,-0.41,0.13
21:31:21.368,-0.425,0.105
21:31:21.372,-0.42,0.09
21:31:21.376,-0.445,0.07
21:31:21.380,-0.445,0.08
21:31:21.384,-0.455,0.07
21:31:21.388,-0.455,0.1
21:31:21.392,-0.465,0.105
21:31:21.396,-0.465,0.08
21:31:21.400,-0.445,0.08
21:31:21.404,-0.47,0.09
21:31:21.408,-0.45,0.075
21:31:21.412,-0.48,0.095
21:31:21.416,-0.465,0.095
21:31:21.420,-0.48,0.09
21:31:21.424,-0.47,0.105
21:31:21.428,-0.515,0.09
21:31:21.432,-0.5,0.09
21:31:21.436,-0.495,0.095
21:31:21.440,-0.5,0.095
21:31:21.444,-0.495,0.1
21:31:21.448,-0.485,0.095
21:31:21.452,-0.49,0.115
21:31:21.456,-0.465,0.12
21:31:21.460,-0.505,0.115
21:31:21.464,-0.5,0.125
21:31:21.468,-0.495,0.135
21:31:21.472,-0.505,0.115
21:31:21.476,-0.495,0.115
21:31:21.480,-0.49,0.11
21:31:21.484,-0.49,0.105
21:31:21.488,-0.5,0.11
21:31:21.492,-0.5,0.125
21:31:21.496,-0.5,0.12
21:31:21.500,-0.51,0.105
21:31:21.504,-0.49,0.11
21:31:21.508,-0.51,0.115
21:31:21.512,-0.5,0.105
21:31:21.516,-0.465,0.095
21:31:21.520,-0.47,0.085
21:31:21.524,-0.45,0.065
21:31:21.528,-0.445,0.085
21:31:21.532,-0.41,0.06
21:31:21.536,-0.405,0.055
21:31:21.540,-0.41,0.065
21:31:21.544,-0.42,0.045
21:31:21.548,-0.395,0.03
21:31:21.552,-0.34,0.04
21:31:21.556,-0.355,0.03
21:31:21.560,-0.335,0.01
21:31:21.564,-0.3,0.025
21:31:21.568,-0.295,0.03
21:31:21.572,-0.285,0.025
21:31:21.576,-0.28,0.015
21:31:21.580,-0.255,0.02
21:31:21.584,-0.255,0.025
21:31:21.588,-0.265,0.015
21:31:21.592,-0.25,0.02
21:31:21.596,-0.25,0.04
21:31:21.600,-0.235,0.04
21:31:21.604,-0.225,0.035
21:31:21.608,-0.245,0.04
21:31:21.612,-0.245,0.045
21:31:21.616,-0.245,0.045
21:31:21.620,-0.265,0.035
21:31:21.624,-0.245,0.015
21:31:21.628,-0.23,0.025
21:31:21.632,-0.24,0.045
21:31:21.636,-0.24,0.035
21:31:21.640,-0.24,0.055
21:31:21.644,-0.235,0.055
21:31:21.648,-0.245,0.065
21:31:21.652,-0.225,0.065
21:31:21.656,-0.255,0.06
21:31:21.660,-0.26,0.075
21:31:21.664,-0.22,0.075
21:31:21.668,-0.235,0.075
21:31:21.672,-0.23,0.07
21:31:21.676,-0.22,0.09
21:31:21.680,-0.21,0.07
21:31:21.684,-0.23,0.085
21:31:21.688,-0.22,0.075
21:31:21.692,-0.235,0.085
21:31:21.696,-0.19,0.085
21:31:21.700,-0.195,0.1
21:31:21.704,-0.2,0.09
21:31:21.708,-0.19,0.085
21:31:21.712,-0.185,0.085
21:31:21.716,-0.19,0.09
21:31:21.720,-0.175,0.08
21:31:21.724,-0.185,0.095
21:31:21.728,-0.125,0.095
21:31:21.732,-0.09,0.115
21:31:21.736,-0.07,0.115
21:31:21.740,-0.04,0.145
21:31:21.744,-0.02,0.13
21:31:21.748,-0.01,0.13
21:31:21.752,0.025,0.135
21:31:21.756,0.03,0.12
21:31:21.760,0.02,0.075
21:31:21.764,-0.015,0.07
21:31:21.768,-0.075,0.045
21:31:21.772,-0.12,0.05
21:31:21.776,-0.2,0.04
21:31:21.780,-0.25,0.055
21:31:21.784,-0.27,0.065
21:31:21.788,-0.32,0.1
21:31:21.792,-0.34,0.08
21:31:21.796,-0.35,0.095
21:31:21.800,-0.34,0.11
21:31:21.804,-0.345,0.1
21:31:21.808,-0.345,0.07
21:31:21.812,-0.33,0.095
21:31:21.816,-0.335,0.095
21:31:21.820,-0.34,0.08
21:31:21.824,-0.33,0.07
21:31:21.828,-0.33,0.065
21:31:21.832,-0.34,0.05
21:31:21.836,-0.335,0.05
21:31:21.840,-0.335,0.08
21:31:21.844,-0.35,0.06
21:31:21.848,-0.345,0.075
21:31:21.852,-0.335,0.075
21:31:21.856,-0.32,0.065
21:31:21.860,-0.32,0.07
21:31:21.864,-0.315,0.065
21:31:21.868,-0.315,0.055
21:31:21.872,-0.315,0.04
21:31:21.876,-0.32,0.045
21:31:21.880,-0.315,0.07
21:31:21.884,-0.33,0.075
21:31:21.888,-0.3,0.075
21:31:21.892,-0.3,0.07
21:31:21.896,-0.285,0.085
21:31:21.900,-0.275,0.085
21:31:21.904,-0.205,0.065
21:31:21.908,-0.14,0.055
21:31:21.912,-0.055,0.065
21:31:21.916,0.025,0.045
21:31:21.920,0.09,0.05
21:31:21.924,0.12,-0.02
21:31:21.928,0.135,-0.04
21:31:21.932,0.17,-0.02
21:31:21.936,0.16,-0.05
21:31:21.940,0.15,-0.11
21:31:21.944,0.165,-0.245
21:31:21.948,0.315,-0.405
21:31:21.952,0.625,-0.635
21:31:21.956,0.945,-0.875
21:31:21.960,1.08,-1.06
21:31:21.964,0.885,-1.045
21:31:21.968,0.48,-0.755
21:31:21.972,0.025,-0.38
21:31:21.976,-0.215,-0.13
21:31:21.980,-0.335,0.0
21:31:21.984,-0.37,0.095
21:31:21.988,-0.375,0.17
21:31:21.992,-0.385,0.19
21:31:21.996,-0.41,0.215
21:31:22.000,-0.435,0.2
21:31:22.004,-0.435,0.195
21:31:22.008,-0.41,0.195
21:31:22.012,-0.4,0.19
21:31:22.016,-0.42,0.155
21:31:22.020,-0.425,0.155
21:31:22.024,-0.425,0.165
21:31:22.028,-0.43,0.18
21:31:22.032,-0.435,0.17
21:31:22.036,-0.43,0.18
21:31:22.040,-0.42,0.175
21:31:22.044,-0.425,0.19
21:31:22.048,-0.43,0.185
21:31:22.052,-0.42,0.195
21:31:22.056,-0.415,0.17
21:31:22.060,-0.435,0.185
21:31:22.064,-0.45,0.17
21:31:22.068,-0.455,0.2
21:31:22.072,-0.465,0.175
21:31:22.076,-0.48,0.16
21:31:22.080,-0.495,0.17
21:31:22.084,-0.485,0.18
21:31:22.088,-0.48,0.17
21:31:22.092,-0.48,0.16
21:31:22.096,-0.485,0.16
21:31:22.100,-0.49,0.175
21:31:22.104,-0.465,0.175
21:31:22.108,-0.48,0.18
21:31:22.112,-0.495,0.175
21:31:22.116,-0.5,0.18
21:31:22.120,-0.49,0.185
21:31:22.124,-0.455,0.185
21:31:22.128,-0.47,0.17
21:31:22.132,-0.47,0.18
21:31:22.136,-0.44,0.19
21:31:22.140,-0.42,0.185
21:31:22.144,-0.435,0.18
21:31:22.148,-0.44,0.185
21:31:22.152,-0.42,0.175
21:31:22.156,-0.41,0.185
21:31:22.160,-0.42,0.165
21:31:22.164,-0.385,0.17
21:31:22.168,-0.37,0.15
21:31:22.172,-0.345,0.145
21:31:22.176,-0.345,0.135
21:31:22.180,-0.34,0.14
21:31:22.184,-0.33,0.135
21:31:22.188,-0.345,0.115
21:31:22.192,-0.32,0.12
21:31:22.196,-0.315,0.095
21:31:22.200,-0.305,0.085
21:31:22.204,-0.305,0.08
21:31:22.208,-0.28,0.06
21:31:22.212,-0.265,0.075
21:31:22.216,-0.255,0.075
21:31:22.220,-0.245,0.095
21:31:22.224,-0.245,0.085
21:31:22.228,-0.265,0.065
21:31:22.232,-0.23,0.085
21:31:22.236,-0.24,0.08
21:31:22.240,-0.225,0.09
21:31:22.244,-0.215,0.1
21:31:22.248,-0.22,0.11
21:31:22.252,-0.21,0.14
21:31:22.256,-0.22,0.115
21:31:22.260,-0.235,0.13
21:31:22.264,-0.235,0.135
21:31:22.268,-0.215,0.14
21:31:22.272,-0.205,0.15
21:31:22.276,-0.22,0.16
21:31:22.280,-0.215,0.15
21:31:22.284,-0.21,0.145
21:31:22.288,-0.245,0.135
21:31:22.292,-0.26,0.12
21:31:22.296,-0.255,0.145
21:31:22.300,-0.255,0.145
21:31:22.304,-0.265,0.14
21:31:22.308,-0.275,0.135
21:31:22.312,-0.275,0.145
21:31:22.316,-0.29,0.145
21:31:22.320,-0.27,0.15
21:31:22.324,-0.295,0.13
21:31:22.328,-0.295,0.135
21:31:22.332,-0.29,0.125
21:31:22.336,-0.31,0.14
21:31:22.340,-0.285,0.15
21:31:22.344,-0.275,0.13
21:31:22.348,-0.23,0.14
21:31:22.352,-0.24,0.135
21:31:22.356,-0.23,0.13
21:31:22.360,-0.225,0.155
21:31:22.364,-0.185,0.165
21:31:22.368,-0.14,0.175
21:31:22.372,-0.115,0.175
21:31:22.376,-0.1,0.185
21:31:22.380,-0.075,0.18
21:31:22.384,-0.045,0.19
21:31:22.388,-0.04,0.175
21:31:22.392,-0.005,0.205
21:31:22.396,-0.01,0.17
21:31:22.400,-0.02,0.135
21:31:22.404,-0.075,0.115
21:31:22.408,-0.125,0.1
21:31:22.412,-0.185,0.085
21:31:22.416,-0.25,0.09
21:31:22.420,-0.31,0.075
21:31:22.424,-0.38,0.09
21:31:22.428,-0.415,0.09
21:31:22.432,-0.43,0.115
21:31:22.436,-0.44,0.1
21:31:22.440,-0.445,0.09
21:31:22.444,-0.45,0.08
21:31:22.448,-0.44,0.065
21:31:22.452,-0.425,0.08
21:31:22.456,-0.445,0.075
21:31:22.460,-0.43,0.065
21:31:22.464,-0.43,0.06
21:31:22.468,-0.42,0.055
21:31:22.472,-0.4,0.075
21:31:22.476,-0.415,0.085
21:31:22.480,-0.385,0.055
21:31:22.484,-0.375,0.075
21:31:22.488,-0.395,0.07
21:31:22.492,-0.39,0.075
21:31:22.496,-0.385,0.07
21:31:22.500,-0.385,0.055
21:31:22.504,-0.395,0.055
21:31:22.508,-0.385,0.035
21:31:22.512,-0.355,0.045
21:31:22.516,-0.37,0.04
21:31:22.520,-0.39,0.045
21:31:22.524,-0.39,0.02
21:31:22.528,-0.41,0.025
21:31:22.532,-0.385,0.03
21:31:22.536,-0.39,0.04
21:31:22.540,-0.34,0.02
21:31:22.544,-0.29,0.015
21:31:22.548,-0.225,0.015
21:31:22.552,-0.13,0.015
21:31:22.556,-0.05,-0.015
21:31:22.560,0.025,-0.04
21:31:22.564,0.07,-0.075
21:31:22.568,0.12,-0.07
21:31:22.572,0.135,-0.075
21:31:22.576,0.165,-0.085
21:31:22.580,0.13,-0.16
21:31:22.584,0.185,-0.28
21:31:22.588,0.41,-0.47
21:31:22.592,0.745,-0.7
21:31:22.596,0.99,-0.93
21:31:22.600,0.985,-1.05
21:31:22.604,0.7,-0.94
21:31:22.608,0.23,-0.61
21:31:22.612,-0.12,-0.28
21:31:22.616,-0.3,-0.105
21:31:22.620,-0.375,-0.005
21:31:22.624,-0.4,0.065
21:31:22.628,-0.43,0.12
21:31:22.632,-0.465,0.125
21:31:22.636,-0.515,0.15
21:31:22.640,-0.515,0.135
21:31:22.644,-0.53,0.1
21:31:22.648,-0.57,0.085
21:31:22.652,-0.56,0.075
21:31:22.656,-0.565,0.04
21:31:22.660,-0.57,0.07
21:31:22.664,-0.56,0.07
21:31:22.668,-0.575,0.04
21:31:22.672,-0.555,0.045
21:31:22.676,-0.57,0.07
21:31:22.680,-0.575,0.04
21:31:22.684,-0.585,0.04
21:31:22.688,-0.58,0.04
21:31:22.692,-0.565,0.025
21:31:22.696,-0.57,0.045
21:31:22.700,-0.575,0.03
21:31:22.704,-0.565,0.035
21:31:22.708,-0.575,0.035
21:31:22.712,-0.58,0.05
21:31:22.716,-0.61,0.035
21:31:22.720,-0.595,0.04
21:31:22.724,-0.605,0.04
21:31:22.728,-0.595,0.06
21:31:22.732,-0.585,0.035
21:31:22.736,-0.605,0.04
21:31:22.740,-0.6,0.05
21:31:22.744,-0.6,0.045
21:31:22.748,-0.61,0.03
21:31:22.752,-0.64,0.055
21:31:22.756,-0.65,0.055
21:31:22.760,-0.64,0.055
21:31:22.764,-0.635,0.055
21:31:22.768,-0.625,0.06
21:31:22.772,-0.61,0.055
21:31:22.776,-0.605,0.025
21:31:22.780,-0.59,0.025
21:31:22.784,-0.56,0.02
21:31:22.788,-0.575,0.025
21:31:22.792,-0.565,0.03
21:31:22.796,-0.545,0.03
21:31:22.800,-0.55,0.035
21:31:22.804,-0.525,0.01
21:31:22.808,-0.51,0.005
21:31:22.812,-0.505,0.005
21:31:22.816,-0.49,0.015
21:31:22.820,-0.455,0.0
21:31:22.824,-0.445,0.0
21:31:22.828,-0.435,-0.015
21:31:22.832,-0.43,-0.02
21:31:22.836,-0.41,0.0
21:31:22.840,-0.405,0.0
21:31:22.844,-0.41,0.005
21:31:22.848,-0.38,0.01
21:31:22.852,-0.375,0.005
21:31:22.856,-0.36,0.0
21:31:22.860,-0.36,0.005
21:31:22.864,-0.335,0.015
21:31:22.868,-0.36,0.015
21:31:22.872,-0.345,0.005
21:31:22.876,-0.33,0.01
21:31:22.880,-0.355,0.01
21:31:22.884,-0.315,-0.005
21:31:22.888,-0.31,0.01
21:31:22.892,-0.305,0.01
21:31:22.896,-0.325,0.0
21:31:22.900,-0.31,-0.015
21:31:22.904,-0.305,-0.01
21:31:22.908,-0.29,-0.005
21:31:22.912,-0.32,0.0
21:31:22.916,-0.305,0.005
21:31:22.920,-0.28,0.02
21:31:22.924,-0.28,0.025
21:31:22.928,-0.295,0.02
21:31:22.932,-0.27,0.03
21:31:22.936,-0.27,0.03
21:31:22.940,-0.295,0.025
21:31:22.944,-0.28,0.04
21:31:22.948,-0.28,0.03
21:31:22.952,-0.295,0.035
21:31:22.956,-0.27,0.04
21:31:22.960,-0.3,0.06
21:31:22.964,-0.305,0.045
21:31:22.968,-0.3,0.045
21:31:22.972,-0.29,0.05
21:31:22.976,-0.295,0.035
21:31:22.980,-0.295,0.015
21:31:22.984,-0.26,0.03
21:31:22.988,-0.26,0.025
21:31:22.992,-0.275,0.04
21:31:22.996,-0.245,0.03
21:31:23.000,-0.24,0.03
21:31:23.004,-0.22,0.04
21:31:23.008,-0.195,0.045
21:31:23.012,-0.145,0.045
21:31:23.016,-0.085,0.06
21:31:23.020,-0.065,0.075
21:31:23.024,-0.065,0.08
21:31:23.028,0.0,0.085
21:31:23.032,0.015,0.085
21:31:23.036,0.03,0.08
21:31:23.040,0.045,0.065
21:31:23.044,0.01,0.05
21:31:23.048,-0.03,0.01
21:31:23.052,-0.085,0.045
21:31:23.056,-0.11,0.03
21:31:23.060,-0.175,0.04
21:31:23.064,-0.235,0.035
21:31:23.068,-0.29,0.055
21:31:23.072,-0.315,0.06
21:31:23.076,-0.33,0.05
21:31:23.080,-0.355,0.055
21:31:23.084,-0.345,0.035
21:31:23.088,-0.35,0.04
21:31:23.092,-0.36,0.02
21:31:23.096,-0.345,0.035
21:31:23.100,-0.365,0.005
21:31:23.104,-0.36,0.015
21:31:23.108,-0.36,0.015
21:31:23.112,-0.355,0.02
21:31:23.116,-0.325,0.005
21:31:23.120,-0.3,0.02
21:31:23.124,-0.335,0.015
21:31:23.128,-0.325,0.02
21:31:23.132,-0.325,0.01
21:31:23.136,-0.295,0.0
21:31:23.140,-0.325,0.035
21:31:23.144,-0.31,0.04
21:31:23.148,-0.31,0.03
21:31:23.152,-0.3,0.035
21:31:23.156,-0.285,0.035
21:31:23.160,-0.27,0.05
21:31:23.164,-0.285,0.035
21:31:23.168,-0.265,0.035
21:31:23.172,-0.29,0.04
21:31:23.176,-0.285,0.015
21:31:23.180,-0.245,0.05
21:31:23.184,-0.225,0.055
21:31:23.188,-0.18,0.05
21:31:23.192,-0.11,0.04
21:31:23.196,-0.025,0.04
21:31:23.200,0.055,0.02
21:31:23.204,0.105,-0.005
21:31:23.208,0.15,-0.05
21:31:23.212,0.195,-0.07
21:31:23.216,0.225,-0.06
21:31:23.220,0.195,-0.1
21:31:23.224,0.185,-0.205
21:31:23.228,0.265,-0.33
21:31:23.232,0.51,-0.515
21:31:23.236,0.83,-0.725
21:31:23.240,1.09,-0.96
21:31:23.244,1.11,-1.075
21:31:23.248,0.785,-0.92
21:31:23.252,0.27,-0.55
21:31:23.256,-0.09,-0.22
21:31:23.260,-0.27,-0.055
21:31:23.264,-0.34,0.03
21:31:23.268,-0.355,0.115
21:31:23.272,-0.36,0.18
21:31:23.276,-0.38,0.205
21:31:23.280,-0.435,0.205
21:31:23.284,-0.415,0.195
21:31:23.288,-0.43,0.185
21:31:23.292,-0.425,0.19
21:31:23.296,-0.42,0.155
21:31:23.300,-0.45,0.17
21:31:23.304,-0.45,0.19
21:31:23.308,-0.435,0.16
21:31:23.312,-0.435,0.165
21:31:23.316,-0.46,0.16
21:31:23.320,-0.475,0.18
21:31:23.324,-0.465,0.16
21:31:23.328,-0.47,0.185
21:31:23.332,-0.48,0.165
21:31:23.336,-0.49,0.18
21:31:23.340,-0.49,0.18
21:31:23.344,-0.52,0.15
21:31:23.348,-0.51,0.16
21:31:23.352,-0.5,0.155
21:31:23.356,-0.525,0.15
21:31:23.360,-0.51,0.16
21:31:23.364,-0.49,0.155
21:31:23.368,-0.515,0.15
21:31:23.372,-0.54,0.165
21:31:23.376,-0.52,0.16
21:31:23.380,-0.53,0.185
21:31:23.384,-0.535,0.16
21:31:23.388,-0.51,0.155
21:31:23.392,-0.51,0.16
21:31:23.396,-0.525,0.15
21:31:23.400,-0.535,0.18
21:31:23.404,-0.49,0.195
21:31:23.408,-0.525,0.2
21:31:23.412,-0.51,0.18
21:31:23.416,-0.5,0.205
21:31:23.420,-0.525,0.18
21:31:23.424,-0.49,0.165
21:31:23.428,-0.47,0.17
21:31:23.432,-0.48,0.175
21:31:23.436,-0.455,0.18
21:31:23.440,-0.445,0.18
21:31:23.444,-0.46,0.165
21:31:23.448,-0.455,0.16
21:31:23.452,-0.45,0.15
21:31:23.456,-0.42,0.14
21:31:23.460,-0.435,0.14
21:31:23.464,-0.4,0.13
21:31:23.468,-0.39,0.12
21:31:23.472,-0.385,0.1
21:31:23.476,-0.365,0.115
21:31:23.480,-0.365,0.095
21:31:23.484,-0.365,0.085
21:31:23.488,-0.345,0.075
21:31:23.492,-0.325,0.105
21:31:23.496,-0.32,0.09
21:31:23.500,-0.3,0.11
21:31:23.504,-0.285,0.08
21:31:23.508,-0.27,0.09
21:31:23.512,-0.255,0.09
21:31:23.516,-0.28,0.105
21:31:23.520,-0.255,0.105
21:31:23.524,-0.25,0.1
21:31:23.528,-0.24,0.105
21:31:23.532,-0.24,0.115
21:31:23.536,-0.255,0.11
21:31:23.540,-0.24,0.105
21:31:23.544,-0.235,0.115
21:31:23.548,-0.24,0.12
21:31:23.552,-0.25,0.12
21:31:23.556,-0.255,0.135
21:31:23.560,-0.275,0.115
21:31:23.564,-0.275,0.105
21:31:23.568,-0.275,0.1
21:31:23.572,-0.255,0.125
21:31:23.576,-0.27,0.11
21:31:23.580,-0.265,0.125
21:31:23.584,-0.26,0.11
21:31:23.588,-0.275,0.105
21:31:23.592,-0.265,0.125
21:31:23.596,-0.28,0.14
21:31:23.600,-0.285,0.135
21:31:23.604,-0.28,0.14
21:31:23.608,-0.235,0.125
21:31:23.612,-0.225,0.14
21:31:23.616,-0.225,0.14
21:31:23.620,-0.2,0.145
21:31:23.624,-0.195,0.145
21:31:23.628,-0.185,0.15
21:31:23.632,-0.205,0.165
21:31:23.636,-0.15,0.175
21:31:23.640,-0.11,0.175
21:31:23.644,-0.08,0.2
21:31:23.648,-0.065,0.19
21:31:23.652,-0.035,0.23
21:31:23.656,-0.02,0.22
21:31:23.660,0.0,0.205
21:31:23.664,0.005,0.2
21:31:23.668,-0.005,0.185
21:31:23.672,-0.025,0.145
21:31:23.676,-0.08,0.14
21:31:23.680,-0.14,0.12
21:31:23.684,-0.19,0.115
21:31:23.688,-0.235,0.13
21:31:23.692,-0.29,0.12
21:31:23.696,-0.33,0.135
21:31:23.700,-0.375,0.135
21:31:23.704,-0.4,0.145
