Time,ECG1,ECG2
21:04:06.996,-0.43,-0.285
21:04:07.000,-0.425,-0.25
21:04:07.004,-0.42,-0.23
21:04:07.008,-0.42,-0.265
21:04:07.012,-0.405,-0.265
21:04:07.016,-0.415,-0.28
21:04:07.020,-0.385,-0.28
21:04:07.024,-0.375,-0.29
21:04:07.028,-0.35,-0.28
21:04:07.032,-0.335,-0.265
21:04:07.036,-0.325,-0.27
21:04:07.040,-0.32,-0.245
21:04:07.044,-0.33,-0.255
21:04:07.048,-0.315,-0.245
21:04:07.052,-0.31,-0.23
21:04:07.056,-0.31,-0.225
21:04:07.060,-0.32,-0.25
21:04:07.064,-0.3,-0.24
21:04:07.068,-0.335,-0.245
21:04:07.072,-0.315,-0.235
21:04:07.076,-0.315,-0.23
21:04:07.080,-0.31,-0.225
21:04:07.084,-0.345,-0.23
21:04:07.088,-0.34,-0.22
21:04:07.092,-0.33,-0.22
21:04:07.096,-0.32,-0.215
21:04:07.100,-0.33,-0.23
21:04:07.104,-0.34,-0.23
21:04:07.108,-0.335,-0.24
21:04:07.112,-0.315,-0.235
21:04:07.116,-0.32,-0.24
21:04:07.120,-0.33,-0.22
21:04:07.124,-0.33,-0.26
21:04:07.128,-0.32,-0.205
21:04:07.132,-0.365,-0.23
21:04:07.136,-0.335,-0.235
21:04:07.140,-0.34,-0.23
21:04:07.144,-0.325,-0.215
21:04:07.148,-0.28,-0.225
21:04:07.152,-0.275,-0.2
21:04:07.156,-0.265,-0.215
21:04:07.160,-0.255,-0.215
21:04:07.164,-0.245,-0.215
21:04:07.168,-0.225,-0.2
21:04:07.172,-0.19,-0.205
21:04:07.176,-0.15,-0.22
21:04:07.180,-0.105,-0.195
21:04:07.184,-0.075,-0.175
21:04:07.188,-0.045,-0.165
21:04:07.192,-0.03,-0.195
21:04:07.196,-0.01,-0.19
21:04:07.200,-0.01,-0.175
21:04:07.204,-0.02,-0.19
21:04:07.208,-0.065,-0.21
21:04:07.212,-0.115,-0.26
21:04:07.216,-0.155,-0.285
21:04:07.220,-0.225,-0.305
21:04:07.224,-0.28,-0.3
21:04:07.228,-0.335,-0.285
21:04:07.232,-0.39,-0.275
21:04:07.236,-0.42,-0.255
21:04:07.240,-0.44,-0.255
21:04:07.244,-0.425,-0.265
21:04:07.248,-0.43,-0.27
21:04:07.252,-0.41,-0.255
21:04:07.256,-0.4,-0.285
21:04:07.260,-0.395,-0.28
21:04:07.264,-0.415,-0.285
21:04:07.268,-0.385,-0.275
21:04:07.272,-0.39,-0.29
21:04:07.276,-0.37,-0.29
21:04:07.280,-0.365,-0.27
21:04:07.284,-0.39,-0.28
21:04:07.288,-0.385,-0.325
21:04:07.292,-0.385,-0.325
21:04:07.296,-0.37,-0.3
21:04:07.300,-0.375,-0.315
21:04:07.304,-0.37,-0.29
21:04:07.308,-0.365,-0.295
21:04:07.312,-0.375,-0.305
21:04:07.316,-0.39,-0.34
21:04:07.320,-0.375,-0.315
21:04:07.324,-0.38,-0.32
21:04:07.328,-0.39,-0.315
21:04:07.332,-0.38,-0.33
21:04:07.336,-0.37,-0.345
21:04:07.340,-0.36,-0.335
21:04:07.344,-0.35,-0.325
21:04:07.348,-0.315,-0.33
21:04:07.352,-0.27,-0.355
21:04:07.356,-0.22,-0.32
21:04:07.360,-0.125,-0.355
21:04:07.364,-0.01,-0.355
21:04:07.368,0.09,-0.375
21:04:07.372,0.14,-0.41
21:04:07.376,0.21,-0.45
21:04:07.380,0.26,-0.475
21:04:07.384,0.245,-0.475
21:04:07.388,0.215,-0.515
21:04:07.392,0.235,-0.615
21:04:07.396,0.435,-0.755
21:04:07.400,0.73,-0.945
21:04:07.404,1.005,-1.195
21:04:07.408,1.125,-1.415
21:04:07.412,0.95,-1.535
21:04:07.416,0.465,-1.405
21:04:07.420,0.02,-1.085
21:04:07.424,-0.245,-0.73
21:04:07.428,-0.345,-0.525
21:04:07.432,-0.41,-0.4
21:04:07.436,-0.44,-0.295
21:04:07.440,-0.44,-0.225
21:04:07.444,-0.47,-0.21
21:04:07.448,-0.5,-0.2
21:04:07.452,-0.515,-0.205
21:04:07.456,-0.515,-0.22
21:04:07.460,-0.54,-0.245
21:04:07.464,-0.53,-0.285
21:04:07.468,-0.51,-0.27
21:04:07.472,-0.505,-0.28
21:04:07.476,-0.53,-0.255
21:04:07.480,-0.51,-0.275
21:04:07.484,-0.52,-0.285
21:04:07.488,-0.545,-0.275
21:04:07.492,-0.54,-0.255
21:04:07.496,-0.52,-0.27
21:04:07.500,-0.52,-0.26
21:04:07.504,-0.525,-0.285
21:04:07.508,-0.515,-0.245
21:04:07.512,-0.54,-0.27
21:04:07.516,-0.545,-0.26
21:04:07.520,-0.535,-0.25
21:04:07.524,-0.555,-0.275
21:04:07.528,-0.56,-0.26
21:04:07.532,-0.54,-0.28
21:04:07.536,-0.56,-0.305
21:04:07.540,-0.56,-0.28
21:04:07.544,-0.59,-0.275
21:04:07.548,-0.585,-0.285
21:04:07.552,-0.615,-0.285
21:04:07.556,-0.615,-0.285
21:04:07.560,-0.605,-0.275
21:04:07.564,-0.625,-0.295
21:04:07.568,-0.61,-0.305
21:04:07.572,-0.61,-0.305
21:04:07.576,-0.605,-0.315
21:04:07.580,-0.59,-0.315
21:04:07.584,-0.59,-0.31
21:04:07.588,-0.595,-0.305
21:04:07.592,-0.615,-0.31
21:04:07.596,-0.59,-0.32
21:04:07.600,-0.585,-0.345
21:04:07.604,-0.565,-0.335
21:04:07.608,-0.54,-0.34
21:04:07.612,-0.51,-0.33
21:04:07.616,-0.505,-0.335
21:04:07.620,-0.505,-0.36
21:04:07.624,-0.49,-0.37
21:04:07.628,-0.475,-0.36
21:04:07.632,-0.48,-0.355
21:04:07.636,-0.455,-0.37
21:04:07.640,-0.45,-0.375
21:04:07.644,-0.44,-0.395
21:04:07.648,-0.405,-0.385
21:04:07.652,-0.415,-0.41
21:04:07.656,-0.39,-0.42
21:04:07.660,-0.41,-0.42
21:04:07.664,-0.39,-0.43
21:04:07.668,-0.385,-0.43
21:04:07.672,-0.375,-0.42
21:04:07.676,-0.37,-0.43
21:04:07.680,-0.385,-0.435
21:04:07.684,-0.355,-0.44
21:04:07.688,-0.345,-0.46
21:04:07.692,-0.335,-0.445
21:04:07.696,-0.34,-0.45
21:04:07.700,-0.345,-0.455
21:04:07.704,-0.36,-0.45
21:04:07.708,-0.345,-0.44
21:04:07.712,-0.335,-0.445
21:04:07.716,-0.315,-0.455
21:04:07.720,-0.33,-0.43
21:04:07.724,-0.33,-0.435
21:04:07.728,-0.32,-0.44
21:04:07.732,-0.315,-0.445
21:04:07.736,-0.295,-0.42
21:04:07.740,-0.315,-0.43
21:04:07.744,-0.335,-0.425
21:04:07.748,-0.3,-0.42
21:04:07.752,-0.33,-0.425
21:04:07.756,-0.32,-0.405
21:04:07.760,-0.335,-0.415
21:04:07.764,-0.325,-0.445
21:04:07.768,-0.335,-0.44
21:04:07.772,-0.36,-0.42
21:04:07.776,-0.33,-0.44
21:04:07.780,-0.34,-0.45
21:04:07.784,-0.34,-0.44
21:04:07.788,-0.365,-0.435
21:04:07.792,-0.36,-0.46
21:04:07.796,-0.345,-0.445
21:04:07.800,-0.335,-0.45
21:04:07.804,-0.315,-0.475
21:04:07.808,-0.295,-0.47
21:04:07.812,-0.32,-0.465
21:04:07.816,-0.315,-0.475
21:04:07.820,-0.28,-0.45
21:04:07.824,-0.235,-0.45
21:04:07.828,-0.17,-0.43
21:04:07.832,-0.14,-0.4
21:04:07.836,-0.1,-0.415
21:04:07.840,-0.05,-0.425
21:04:07.844,-0.025,-0.42
21:04:07.848,-0.01,-0.415
21:04:07.852,0.005,-0.405
21:04:07.856,-0.02,-0.405
21:04:07.860,-0.06,-0.43
21:04:07.864,-0.12,-0.445
21:04:07.868,-0.175,-0.48
21:04:07.872,-0.245,-0.49
21:04:07.876,-0.31,-0.48
21:04:07.880,-0.38,-0.49
21:04:07.884,-0.425,-0.46
21:04:07.888,-0.435,-0.465
21:04:07.892,-0.46,-0.46
21:04:07.896,-0.465,-0.46
21:04:07.900,-0.475,-0.46
21:04:07.904,-0.46,-0.46
21:04:07.908,-0.46,-0.465
21:04:07.912,-0.445,-0.49
21:04:07.916,-0.425,-0.48
21:04:07.920,-0.425,-0.47
21:04:07.924,-0.42,-0.51
21:04:07.928,-0.445,-0.52
21:04:07.932,-0.43,-0.515
21:04:07.936,-0.42,-0.5
21:04:07.940,-0.42,-0.515
21:04:07.944,-0.42,-0.495
21:04:07.948,-0.41,-0.495
21:04:07.952,-0.405,-0.5
21:04:07.956,-0.38,-0.5
21:04:07.960,-0.37,-0.49
21:04:07.964,-0.385,-0.495
21:04:07.968,-0.37,-0.475
21:04:07.972,-0.37,-0.485
21:04:07.976,-0.365,-0.495
21:04:07.980,-0.38,-0.475
21:04:07.984,-0.37,-0.465
21:04:07.988,-0.365,-0.465
21:04:07.992,-0.355,-0.465
21:04:07.996,-0.34,-0.475
21:04:08.000,-0.32,-0.47
21:04:08.004,-0.28,-0.45
21:04:08.008,-0.22,-0.46
21:04:08.012,-0.115,-0.47
21:04:08.016,-0.035,-0.485
21:04:08.020,0.035,-0.485
21:04:08.024,0.105,-0.555
21:04:08.028,0.16,-0.595
21:04:08.032,0.21,-0.595
21:04:08.036,0.22,-0.635
21:04:08.040,0.21,-0.655
21:04:08.044,0.23,-0.75
21:04:08.048,0.375,-0.835
21:04:08.052,0.655,-1.02
21:04:08.056,0.97,-1.27
21:04:08.060,1.145,-1.47
21:04:08.064,1.06,-1.605
21:04:08.068,0.65,-1.53
21:04:08.072,0.145,-1.245
21:04:08.076,-0.18,-0.905
21:04:08.080,-0.33,-0.68
21:04:08.084,-0.38,-0.52
21:04:08.088,-0.39,-0.425
21:04:08.092,-0.4,-0.325
21:04:08.096,-0.445,-0.29
21:04:08.100,-0.47,-0.275
21:04:08.104,-0.475,-0.245
21:04:08.108,-0.47,-0.25
21:04:08.112,-0.485,-0.275
21:04:08.116,-0.48,-0.285
21:04:08.120,-0.5,-0.315
21:04:08.124,-0.515,-0.3
21:04:08.128,-0.525,-0.315
21:04:08.132,-0.52,-0.32
21:04:08.136,-0.535,-0.315
21:04:08.140,-0.515,-0.305
21:04:08.144,-0.52,-0.32
21:04:08.148,-0.525,-0.31
21:04:08.152,-0.525,-0.31
21:04:08.156,-0.515,-0.31
21:04:08.160,-0.515,-0.33
21:04:08.164,-0.51,-0.345
21:04:08.168,-0.53,-0.33
21:04:08.172,-0.545,-0.32
21:04:08.176,-0.55,-0.33
21:04:08.180,-0.555,-0.33
21:04:08.184,-0.53,-0.33
21:04:08.188,-0.56,-0.33
21:04:08.192,-0.55,-0.295
21:04:08.196,-0.525,-0.305
21:04:08.200,-0.535,-0.285
21:04:08.204,-0.535,-0.285
21:04:08.208,-0.54,-0.3
21:04:08.212,-0.53,-0.29
21:04:08.216,-0.54,-0.29
21:04:08.220,-0.565,-0.275
21:04:08.224,-0.555,-0.26
21:04:08.228,-0.54,-0.29
21:04:08.232,-0.535,-0.25
21:04:08.236,-0.53,-0.25
21:04:08.240,-0.515,-0.265
21:04:08.244,-0.535,-0.265
21:04:08.248,-0.54,-0.275
21:04:08.252,-0.535,-0.285
21:04:08.256,-0.54,-0.29
21:04:08.260,-0.505,-0.29
21:04:08.264,-0.525,-0.3
21:04:08.268,-0.48,-0.3
21:04:08.272,-0.46,-0.305
21:04:08.276,-0.455,-0.315
21:04:08.280,-0.465,-0.34
21:04:08.284,-0.455,-0.335
21:04:08.288,-0.425,-0.36
21:04:08.292,-0.415,-0.355
21:04:08.296,-0.405,-0.365
21:04:08.300,-0.38,-0.37
21:04:08.304,-0.39,-0.385
21:04:08.308,-0.355,-0.385
21:04:08.312,-0.355,-0.385
21:04:08.316,-0.335,-0.375
21:04:08.320,-0.315,-0.385
21:04:08.324,-0.31,-0.385
21:04:08.328,-0.315,-0.405
21:04:08.332,-0.29,-0.405
21:04:08.336,-0.28,-0.39
21:04:08.340,-0.275,-0.365
21:04:08.344,-0.265,-0.375
21:04:08.348,-0.26,-0.39
21:04:08.352,-0.245,-0.385
21:04:08.356,-0.25,-0.385
21:04:08.360,-0.27,-0.36
21:04:08.364,-0.265,-0.365
21:04:08.368,-0.275,-0.37
21:04:08.372,-0.27,-0.38
21:04:08.376,-0.265,-0.4
21:04:08.380,-0.295,-0.37
21:04:08.384,-0.26,-0.405
21:04:08.388,-0.28,-0.385
21:04:08.392,-0.285,-0.38
21:04:08.396,-0.275,-0.37
21:04:08.400,-0.275,-0.35
21:04:08.404,-0.27,-0.365
21:04:08.408,-0.28,-0.355
21:04:08.412,-0.295,-0.33
21:04:08.416,-0.275,-0.36
21:04:08.420,-0.29,-0.36
21:04:08.424,-0.29,-0.355
21:04:08.428,-0.285,-0.36
21:04:08.432,-0.27,-0.36
21:04:08.436,-0.27,-0.365
21:04:08.440,-0.23,-0.35
21:04:08.444,-0.24,-0.355
21:04:08.448,-0.24,-0.355
21:04:08.452,-0.205,-0.335
21:04:08.456,-0.195,-0.33
21:04:08.460,-0.175,-0.335
21:04:08.464,-0.135,-0.36
21:04:08.468,-0.095,-0.335
21:04:08.472,-0.05,-0.32
21:04:08.476,-0.045,-0.295
21:04:08.480,-0.03,-0.29
21:04:08.484,-0.015,-0.305
21:04:08.488,-0.02,-0.29
21:04:08.492,0.01,-0.295
21:04:08.496,0.005,-0.3
21:04:08.500,-0.02,-0.32
21:04:08.504,-0.05,-0.36
21:04:08.508,-0.105,-0.375
21:04:08.512,-0.16,-0.385
21:04:08.516,-0.215,-0.395
21:04:08.520,-0.28,-0.375
21:04:08.524,-0.33,-0.36
21:04:08.528,-0.345,-0.38
21:04:08.532,-0.365,-0.34
21:04:08.536,-0.395,-0.36
21:04:08.540,-0.39,-0.355
21:04:08.544,-0.385,-0.33
21:04:08.548,-0.385,-0.345
21:04:08.552,-0.375,-0.355
21:04:08.556,-0.355,-0.36
21:04:08.560,-0.33,-0.355
21:04:08.564,-0.35,-0.34
21:04:08.568,-0.345,-0.33
21:04:08.572,-0.35,-0.33
21:04:08.576,-0.345,-0.355
21:04:08.580,-0.36,-0.34
21:04:08.584,-0.34,-0.35
21:04:08.588,-0.355,-0.355
21:04:08.592,-0.37,-0.365
21:04:08.596,-0.38,-0.375
21:04:08.600,-0.365,-0.39
21:04:08.604,-0.36,-0.37
21:04:08.608,-0.375,-0.39
21:04:08.612,-0.365,-0.385
21:04:08.616,-0.38,-0.395
21:04:08.620,-0.35,-0.39
21:04:08.624,-0.36,-0.39
21:04:08.628,-0.36,-0.41
21:04:08.632,-0.36,-0.39
21:04:08.636,-0.35,-0.415
21:04:08.640,-0.32,-0.415
21:04:08.644,-0.29,-0.4
21:04:08.648,-0.235,-0.41
21:04:08.652,-0.15,-0.41
21:04:08.656,-0.05,-0.4
21:04:08.660,0.035,-0.435
21:04:08.664,0.085,-0.475
21:04:08.668,0.13,-0.515
21:04:08.672,0.155,-0.555
21:04:08.676,0.185,-0.55
21:04:08.680,0.165,-0.585
21:04:08.684,0.165,-0.705
21:04:08.688,0.295,-0.85
21:04:08.692,0.56,-1.045
21:04:08.696,0.87,-1.315
21:04:08.700,1.09,-1.52
21:04:08.704,1.035,-1.68
21:04:08.708,0.705,-1.66
21:04:08.712,0.17,-1.385
21:04:08.716,-0.225,-0.98
21:04:08.720,-0.42,-0.67
21:04:08.724,-0.47,-0.51
21:04:08.728,-0.475,-0.4
21:04:08.732,-0.48,-0.3
21:04:08.736,-0.49,-0.255
21:04:08.740,-0.515,-0.24
21:04:08.744,-0.515,-0.23
21:04:08.748,-0.505,-0.225
21:04:08.752,-0.52,-0.245
21:04:08.756,-0.52,-0.245
21:04:08.760,-0.515,-0.255
21:04:08.764,-0.525,-0.245
21:04:08.768,-0.53,-0.275
21:04:08.772,-0.525,-0.255
21:04:08.776,-0.525,-0.235
21:04:08.780,-0.53,-0.245
21:04:08.784,-0.515,-0.23
21:04:08.788,-0.52,-0.245
21:04:08.792,-0.52,-0.225
21:04:08.796,-0.51,-0.22
21:04:08.800,-0.535,-0.24
21:04:08.804,-0.545,-0.225
21:04:08.808,-0.525,-0.235
21:04:08.812,-0.545,-0.245
21:04:08.816,-0.53,-0.21
21:04:08.820,-0.55,-0.23
21:04:08.824,-0.545,-0.22
21:04:08.828,-0.545,-0.21
21:04:08.832,-0.565,-0.22
21:04:08.836,-0.58,-0.235
21:04:08.840,-0.59,-0.22
21:04:08.844,-0.58,-0.22
21:04:08.848,-0.565,-0.23
21:04:08.852,-0.595,-0.23
21:04:08.856,-0.58,-0.225
21:04:08.860,-0.58,-0.24
21:04:08.864,-0.58,-0.22
21:04:08.868,-0.575,-0.23
21:04:08.872,-0.595,-0.23
21:04:08.876,-0.57,-0.215
21:04:08.880,-0.57,-0.235
21:04:08.884,-0.565,-0.225
21:04:08.888,-0.56,-0.225
21:04:08.892,-0.545,-0.26
21:04:08.896,-0.535,-0.22
21:04:08.900,-0.53,-0.24
21:04:08.904,-0.535,-0.255
21:04:08.908,-0.515,-0.24
21:04:08.912,-0.48,-0.255
21:04:08.916,-0.485,-0.245
21:04:08.920,-0.46,-0.255
21:04:08.924,-0.455,-0.255
21:04:08.928,-0.44,-0.28
21:04:08.932,-0.44,-0.29
21:04:08.936,-0.41,-0.3
21:04:08.940,-0.4,-0.295
21:04:08.944,-0.385,-0.305
21:04:08.948,-0.405,-0.285
21:04:08.952,-0.405,-0.305
21:04:08.956,-0.395,-0.315
21:04:08.960,-0.36,-0.34
21:04:08.964,-0.36,-0.325
21:04:08.968,-0.355,-0.315
21:04:08.972,-0.315,-0.335
21:04:08.976,-0.34,-0.32
21:04:08.980,-0.33,-0.335
21:04:08.984,-0.32,-0.325
21:04:08.988,-0.305,-0.325
21:04:08.992,-0.305,-0.32
21:04:08.996,-0.29,-0.31
21:04:09.000,-0.305,-0.32
21:04:09.004,-0.295,-0.32
21:04:09.008,-0.285,-0.265
21:04:09.012,-0.285,-0.28
21:04:09.016,-0.265,-0.3
21:04:09.020,-0.28,-0.29
21:04:09.024,-0.275,-0.255
21:04:09.028,-0.28,-0.265
21:04:09.032,-0.275,-0.28
21:04:09.036,-0.3,-0.27
21:04:09.040,-0.285,-0.26
21:04:09.044,-0.285,-0.275
21:04:09.048,-0.28,-0.285
21:04:09.052,-0.29,-0.265
21:04:09.056,-0.3,-0.27
21:04:09.060,-0.295,-0.23
21:04:09.064,-0.3,-0.25
21:04:09.068,-0.28,-0.245
21:04:09.072,-0.285,-0.275
21:04:09.076,-0.265,-0.275
21:04:09.080,-0.275,-0.275
21:04:09.084,-0.265,-0.255
21:04:09.088,-0.255,-0.26
21:04:09.092,-0.22,-0.24
21:04:09.096,-0.17,-0.25
21:04:09.100,-0.125,-0.23
21:04:09.104,-0.08,-0.215
21:04:09.108,-0.075,-0.21
21:04:09.112,-0.04,-0.21
21:04:09.116,-0.005,-0.225
21:04:09.120,0.0,-0.19
21:04:09.124,0.0,-0.2
21:04:09.128,-0.01,-0.215
21:04:09.132,-0.065,-0.225
21:04:09.136,-0.11,-0.265
21:04:09.140,-0.16,-0.28
21:04:09.144,-0.215,-0.28
21:04:09.148,-0.28,-0.26
21:04:09.152,-0.325,-0.245
21:04:09.156,-0.355,-0.265
21:04:09.160,-0.395,-0.24
21:04:09.164,-0.41,-0.24
21:04:09.168,-0.415,-0.25
21:04:09.172,-0.39,-0.24
21:04:09.176,-0.4,-0.26
21:04:09.180,-0.415,-0.255
21:04:09.184,-0.395,-0.265
21:04:09.188,-0.415,-0.27
21:04:09.192,-0.405,-0.275
21:04:09.196,-0.39,-0.265
21:04:09.200,-0.39,-0.265
21:04:09.204,-0.395,-0.26
21:04:09.208,-0.38,-0.285
21:04:09.212,-0.395,-0.285
21:04:09.216,-0.395,-0.25
21:04:09.220,-0.36,-0.275
21:04:09.224,-0.375,-0.29
21:04:09.228,-0.38,-0.295
21:04:09.232,-0.38,-0.29
21:04:09.236,-0.39,-0.265
21:04:09.240,-0.385,-0.265
21:04:09.244,-0.345,-0.275
21:04:09.248,-0.34,-0.28
21:04:09.252,-0.33,-0.275
21:04:09.256,-0.34,-0.28
21:04:09.260,-0.37,-0.275
21:04:09.264,-0.33,-0.285
21:04:09.268,-0.315,-0.295
21:04:09.272,-0.285,-0.275
21:04:09.276,-0.235,-0.3
21:04:09.280,-0.165,-0.285
21:04:09.284,-0.085,-0.29
21:04:09.288,-0.015,-0.315
21:04:09.292,0.04,-0.34
21:04:09.296,0.065,-0.395
21:04:09.300,0.09,-0.41
21:04:09.304,0.135,-0.455
21:04:09.308,0.105,-0.5
21:04:09.312,0.11,-0.59
21:04:09.316,0.25,-0.725
21:04:09.320,0.525,-0.915
21:04:09.324,0.835,-1.165
21:04:09.328,1.05,-1.4
21:04:09.332,1.015,-1.58
21:04:09.336,0.655,-1.555
21:04:09.340,0.165,-1.25
21:04:09.344,-0.225,-0.835
21:04:09.348,-0.4,-0.555
21:04:09.352,-0.445,-0.39
21:04:09.356,-0.475,-0.28
21:04:09.360,-0.47,-0.18
21:04:09.364,-0.465,-0.15
21:04:09.368,-0.47,-0.13
21:04:09.372,-0.47,-0.13
21:04:09.376,-0.495,-0.115
21:04:09.380,-0.48,-0.125
21:04:09.384,-0.475,-0.145
21:04:09.388,-0.495,-0.135
21:04:09.392,-0.49,-0.15
21:04:09.396,-0.515,-0.145
21:04:09.400,-0.495,-0.15
21:04:09.404,-0.5,-0.15
21:04:09.408,-0.515,-0.145
21:04:09.412,-0.525,-0.14
21:04:09.416,-0.52,-0.14
21:04:09.420,-0.545,-0.135
21:04:09.424,-0.52,-0.16
21:04:09.428,-0.53,-0.15
21:04:09.432,-0.525,-0.135
21:04:09.436,-0.53,-0.165
21:04:09.440,-0.56,-0.14
21:04:09.444,-0.55,-0.16
21:04:09.448,-0.525,-0.13
21:04:09.452,-0.55,-0.145
21:04:09.456,-0.535,-0.14
21:04:09.460,-0.56,-0.145
21:04:09.464,-0.57,-0.14
21:04:09.468,-0.57,-0.16
21:04:09.472,-0.585,-0.14
21:04:09.476,-0.55,-0.16
21:04:09.480,-0.575,-0.13
21:04:09.484,-0.575,-0.11
21:04:09.488,-0.56,-0.11
21:04:09.492,-0.565,-0.105
21:04:09.496,-0.575,-0.095
21:04:09.500,-0.6,-0.09
21:04:09.504,-0.57,-0.09
21:04:09.508,-0.56,-0.09
21:04:09.512,-0.575,-0.1
21:04:09.516,-0.58,-0.095
21:04:09.520,-0.565,-0.105
21:04:09.524,-0.545,-0.085
21:04:09.528,-0.545,-0.11
21:04:09.532,-0.55,-0.115
21:04:09.536,-0.555,-0.12
21:04:09.540,-0.535,-0.115
21:04:09.544,-0.525,-0.13
21:04:09.548,-0.535,-0.14
21:04:09.552,-0.52,-0.16
21:04:09.556,-0.48,-0.145
21:04:09.560,-0.47,-0.16
21:04:09.564,-0.46,-0.165
21:04:09.568,-0.45,-0.18
21:04:09.572,-0.47,-0.175
21:04:09.576,-0.45,-0.19
21:04:09.580,-0.43,-0.18
21:04:09.584,-0.42,-0.17
21:04:09.588,-0.42,-0.16
21:04:09.592,-0.4,-0.2
21:04:09.596,-0.395,-0.185
21:04:09.600,-0.39,-0.195
21:04:09.604,-0.39,-0.195
21:04:09.608,-0.395,-0.16
21:04:09.612,-0.375,-0.15
21:04:09.616,-0.36,-0.16
21:04:09.620,-0.36,-0.18
21:04:09.624,-0.38,-0.16
21:04:09.628,-0.36,-0.16
21:04:09.632,-0.37,-0.16
21:04:09.636,-0.375,-0.16
21:04:09.640,-0.385,-0.155
21:04:09.644,-0.395,-0.16
21:04:09.648,-0.415,-0.175
21:04:09.652,-0.395,-0.16
21:04:09.656,-0.425,-0.165
21:04:09.660,-0.425,-0.155
21:04:09.664,-0.395,-0.17
21:04:09.668,-0.41,-0.17
21:04:09.672,-0.415,-0.15
21:04:09.676,-0.405,-0.15
21:04:09.680,-0.43,-0.165
21:04:09.684,-0.42,-0.14
21:04:09.688,-0.4,-0.125
21:04:09.692,-0.435,-0.15
21:04:09.696,-0.43,-0.165
21:04:09.700,-0.405,-0.155
21:04:09.704,-0.395,-0.14
21:04:09.708,-0.395,-0.145
21:04:09.712,-0.365,-0.15
21:04:09.716,-0.365,-0.165
21:04:09.720,-0.37,-0.165
21:04:09.724,-0.35,-0.13
21:04:09.728,-0.32,-0.16
21:04:09.732,-0.305,-0.14
21:04:09.736,-0.235,-0.15
21:04:09.740,-0.21,-0.125
21:04:09.744,-0.16,-0.125
21:04:09.748,-0.14,-0.095
21:04:09.752,-0.105,-0.11
21:04:09.756,-0.09,-0.115
21:04:09.760,-0.09,-0.125
21:04:09.764,-0.105,-0.12
21:04:09.768,-0.15,-0.135
21:04:09.772,-0.185,-0.16
21:04:09.776,-0.23,-0.2
21:04:09.780,-0.285,-0.22
21:04:09.784,-0.36,-0.215
21:04:09.788,-0.44,-0.21
21:04:09.792,-0.48,-0.195
21:04:09.796,-0.495,-0.19
21:04:09.800,-0.53,-0.2
21:04:09.804,-0.53,-0.18
21:04:09.808,-0.545,-0.18
21:04:09.812,-0.525,-0.175
21:04:09.816,-0.52,-0.19
21:04:09.820,-0.495,-0.205
21:04:09.824,-0.5,-0.205
21:04:09.828,-0.49,-0.215
21:04:09.832,-0.495,-0.195
21:04:09.836,-0.5,-0.195
21:04:09.840,-0.495,-0.205
21:04:09.844,-0.48,-0.215
21:04:09.848,-0.5,-0.2
21:04:09.852,-0.47,-0.205
21:04:09.856,-0.47,-0.21
21:04:09.860,-0.475,-0.215
21:04:09.864,-0.485,-0.23
21:04:09.868,-0.49,-0.23
21:04:09.872,-0.495,-0.23
21:04:09.876,-0.495,-0.25
21:04:09.880,-0.485,-0.235
21:04:09.884,-0.48,-0.24
21:04:09.888,-0.48,-0.26
21:04:09.892,-0.475,-0.245
21:04:09.896,-0.475,-0.235
21:04:09.900,-0.47,-0.27
21:04:09.904,-0.455,-0.255
21:04:09.908,-0.46,-0.28
21:04:09.912,-0.42,-0.275
21:04:09.916,-0.36,-0.26
21:04:09.920,-0.27,-0.27
21:04:09.924,-0.185,-0.27
21:04:09.928,-0.065,-0.29
21:04:09.932,0.0,-0.32
21:04:09.936,0.06,-0.365
21:04:09.940,0.11,-0.38
21:04:09.944,0.14,-0.395
21:04:09.948,0.115,-0.42
21:04:09.952,0.125,-0.47
21:04:09.956,0.215,-0.595
21:04:09.960,0.46,-0.77
21:04:09.964,0.785,-0.99
21:04:09.968,1.015,-1.21
21:04:09.972,0.965,-1.4
21:04:09.976,0.62,-1.405
21:04:09.980,0.115,-1.135
21:04:09.984,-0.25,-0.775
21:04:09.988,-0.43,-0.54
21:04:09.992,-0.515,-0.375
21:04:09.996,-0.525,-0.24
21:04:10.000,-0.52,-0.18
21:04:10.004,-0.57,-0.145
21:04:10.008,-0.58,-0.125
21:04:10.012,-0.615,-0.115
21:04:10.016,-0.615,-0.155
21:04:10.020,-0.62,-0.13
21:04:10.024,-0.62,-0.16
21:04:10.028,-0.625,-0.195
21:04:10.032,-0.63,-0.22
21:04:10.036,-0.605,-0.185
21:04:10.040,-0.635,-0.195
21:04:10.044,-0.615,-0.175
21:04:10.048,-0.635,-0.18
21:04:10.052,-0.63,-0.18
21:04:10.056,-0.625,-0.2
21:04:10.060,-0.62,-0.175
21:04:10.064,-0.635,-0.16
21:04:10.068,-0.625,-0.165
21:04:10.072,-0.63,-0.185
21:04:10.076,-0.6,-0.17
21:04:10.080,-0.6,-0.15
21:04:10.084,-0.6,-0.16
21:04:10.088,-0.62,-0.16
21:04:10.092,-0.63,-0.18
21:04:10.096,-0.66,-0.18
21:04:10.100,-0.665,-0.19
21:04:10.104,-0.65,-0.175
21:04:10.108,-0.67,-0.185
21:04:10.112,-0.65,-0.19
21:04:10.116,-0.66,-0.175
21:04:10.120,-0.66,-0.205
21:04:10.124,-0.65,-0.195
21:04:10.128,-0.655,-0.19
21:04:10.132,-0.645,-0.195
21:04:10.136,-0.635,-0.16
21:04:10.140,-0.655,-0.18
21:04:10.144,-0.635,-0.185
21:04:10.148,-0.66,-0.2
21:04:10.152,-0.645,-0.17
21:04:10.156,-0.625,-0.16
21:04:10.160,-0.62,-0.165
21:04:10.164,-0.61,-0.18
21:04:10.168,-0.6,-0.19
21:04:10.172,-0.56,-0.205
21:04:10.176,-0.555,-0.21
21:04:10.180,-0.56,-0.205
21:04:10.184,-0.555,-0.22
21:04:10.188,-0.53,-0.2
21:04:10.192,-0.53,-0.225
21:04:10.196,-0.545,-0.215
21:04:10.200,-0.515,-0.22
21:04:10.204,-0.49,-0.24
21:04:10.208,-0.475,-0.23
21:04:10.212,-0.45,-0.24
21:04:10.216,-0.475,-0.28
21:04:10.220,-0.465,-0.27
21:04:10.224,-0.465,-0.27
21:04:10.228,-0.455,-0.265
21:04:10.232,-0.435,-0.27
21:04:10.236,-0.425,-0.285
21:04:10.240,-0.42,-0.28
21:04:10.244,-0.415,-0.275
21:04:10.248,-0.38,-0.285
21:04:10.252,-0.385,-0.31
21:04:10.256,-0.375,-0.3
21:04:10.260,-0.385,-0.31
21:04:10.264,-0.38,-0.32
21:04:10.268,-0.39,-0.305
21:04:10.272,-0.405,-0.29
21:04:10.276,-0.365,-0.29
21:04:10.280,-0.38,-0.305
21:04:10.284,-0.355,-0.295
21:04:10.288,-0.35,-0.305
21:04:10.292,-0.35,-0.295
21:04:10.296,-0.335,-0.305
21:04:10.300,-0.345,-0.305
21:04:10.304,-0.35,-0.295
21:04:10.308,-0.38,-0.295
21:04:10.312,-0.385,-0.305
21:04:10.316,-0.375,-0.285
21:04:10.320,-0.375,-0.285
21:04:10.324,-0.375,-0.315
21:04:10.328,-0.365,-0.315
21:04:10.332,-0.395,-0.32
21:04:10.336,-0.4,-0.315
21:04:10.340,-0.375,-0.315
21:04:10.344,-0.395,-0.31
21:04:10.348,-0.4,-0.33
21:04:10.352,-0.375,-0.335
21:04:10.356,-0.4,-0.33
21:04:10.360,-0.4,-0.335
21:04:10.364,-0.375,-0.35
21:04:10.368,-0.36,-0.345
21:04:10.372,-0.36,-0.345
21:04:10.376,-0.345,-0.345
21:04:10.380,-0.345,-0.345
21:04:10.384,-0.34,-0.345
21:04:10.388,-0.33,-0.34
21:04:10.392,-0.295,-0.34
21:04:10.396,-0.235,-0.335
21:04:10.400,-0.18,-0.33
21:04:10.404,-0.125,-0.32
21:04:10.408,-0.105,-0.29
21:04:10.412,-0.065,-0.29
21:04:10.416,-0.045,-0.315
21:04:10.420,-0.025,-0.29
21:04:10.424,-0.03,-0.29
21:04:10.428,-0.07,-0.295
21:04:10.432,-0.105,-0.31
21:04:10.436,-0.16,-0.345
21:04:10.440,-0.225,-0.36
21:04:10.444,-0.27,-0.365
21:04:10.448,-0.335,-0.385
21:04:10.452,-0.41,-0.39
21:04:10.456,-0.445,-0.35
21:04:10.460,-0.485,-0.355
21:04:10.464,-0.49,-0.365
21:04:10.468,-0.49,-0.36
21:04:10.472,-0.49,-0.36
21:04:10.476,-0.475,-0.375
21:04:10.480,-0.455,-0.38
21:04:10.484,-0.46,-0.405
21:04:10.488,-0.455,-0.395
21:04:10.492,-0.44,-0.4
21:04:10.496,-0.45,-0.405
21:04:10.500,-0.445,-0.41
21:04:10.504,-0.445,-0.38
21:04:10.508,-0.445,-0.39
21:04:10.512,-0.43,-0.385
21:04:10.516,-0.42,-0.405
21:04:10.520,-0.415,-0.385
21:04:10.524,-0.415,-0.37
21:04:10.528,-0.4,-0.38
21:04:10.532,-0.4,-0.385
21:04:10.536,-0.41,-0.38
21:04:10.540,-0.415,-0.38
21:04:10.544,-0.39,-0.39
21:04:10.548,-0.4,-0.4
21:04:10.552,-0.4,-0.4
21:04:10.556,-0.405,-0.405
21:04:10.560,-0.395,-0.385
21:04:10.564,-0.39,-0.4
21:04:10.568,-0.38,-0.395
21:04:10.572,-0.365,-0.395
21:04:10.576,-0.305,-0.4
21:04:10.580,-0.225,-0.405
21:04:10.584,-0.12,-0.425
21:04:10.588,-0.01,-0.435
21:04:10.592,0.065,-0.455
21:04:10.596,0.1,-0.495
21:04:10.600,0.15,-0.535
21:04:10.604,0.195,-0.56
21:04:10.608,0.2,-0.56
21:04:10.612,0.205,-0.615
21:04:10.616,0.265,-0.71
21:04:10.620,0.48,-0.835
21:04:10.624,0.79,-1.04
21:04:10.628,1.045,-1.255
21:04:10.632,1.09,-1.435
21:04:10.636,0.79,-1.495
21:04:10.640,0.29,-1.33
21:04:10.644,-0.095,-0.97
21:04:10.648,-0.33,-0.69
21:04:10.652,-0.39,-0.485
21:04:10.656,-0.42,-0.365
21:04:10.660,-0.45,-0.25
21:04:10.664,-0.45,-0.185
21:04:10.668,-0.5,-0.175
21:04:10.672,-0.535,-0.145
21:04:10.676,-0.53,-0.15
21:04:10.680,-0.555,-0.175
21:04:10.684,-0.54,-0.185
21:04:10.688,-0.57,-0.18
21:04:10.692,-0.55,-0.19
21:04:10.696,-0.56,-0.2
21:04:10.700,-0.555,-0.205
21:04:10.704,-0.555,-0.205
21:04:10.708,-0.565,-0.2
21:04:10.712,-0.575,-0.21
21:04:10.716,-0.56,-0.2
21:04:10.720,-0.56,-0.21
21:04:10.724,-0.565,-0.195
21:04:10.728,-0.56,-0.165
21:04:10.732,-0.585,-0.155
21:04:10.736,-0.575,-0.16
21:04:10.740,-0.565,-0.16
21:04:10.744,-0.58,-0.16
21:04:10.748,-0.575,-0.155
21:04:10.752,-0.59,-0.15
21:04:10.756,-0.585,-0.13
21:04:10.760,-0.585,-0.155
21:04:10.764,-0.595,-0.155
21:04:10.768,-0.595,-0.145
21:04:10.772,-0.59,-0.135
21:04:10.776,-0.6,-0.125
21:04:10.780,-0.595,-0.145
21:04:10.784,-0.61,-0.12
21:04:10.788,-0.6,-0.12
21:04:10.792,-0.6,-0.145
21:04:10.796,-0.64,-0.125
21:04:10.800,-0.625,-0.135
21:04:10.804,-0.62,-0.125
21:04:10.808,-0.61,-0.145
21:04:10.812,-0.6,-0.13
21:04:10.816,-0.6,-0.11
21:04:10.820,-0.59,-0.16
21:04:10.824,-0.59,-0.17
21:04:10.828,-0.585,-0.155
21:04:10.832,-0.585,-0.145
21:04:10.836,-0.55,-0.14
21:04:10.840,-0.54,-0.17
21:04:10.844,-0.535,-0.18
21:04:10.848,-0.53,-0.165
21:04:10.852,-0.49,-0.205
21:04:10.856,-0.46,-0.19
21:04:10.860,-0.46,-0.205
21:04:10.864,-0.44,-0.2
21:04:10.868,-0.445,-0.22
21:04:10.872,-0.42,-0.2
21:04:10.876,-0.4,-0.2
21:04:10.880,-0.38,-0.19
21:04:10.884,-0.4,-0.2
21:04:10.888,-0.35,-0.22
21:04:10.892,-0.355,-0.215
21:04:10.896,-0.36,-0.215
21:04:10.900,-0.35,-0.225
21:04:10.904,-0.355,-0.205
21:04:10.908,-0.34,-0.225
21:04:10.912,-0.365,-0.225
21:04:10.916,-0.355,-0.21
21:04:10.920,-0.35,-0.22
21:04:10.924,-0.32,-0.21
21:04:10.928,-0.32,-0.2
21:04:10.932,-0.345,-0.2
21:04:10.936,-0.335,-0.195
21:04:10.940,-0.325,-0.195
21:04:10.944,-0.335,-0.215
21:04:10.948,-0.33,-0.21
21:04:10.952,-0.345,-0.18
21:04:10.956,-0.335,-0.18
21:04:10.960,-0.335,-0.15
21:04:10.964,-0.345,-0.16
21:04:10.968,-0.315,-0.17
21:04:10.972,-0.305,-0.16
21:04:10.976,-0.315,-0.155
21:04:10.980,-0.31,-0.175
21:04:10.984,-0.305,-0.145
21:04:10.988,-0.3,-0.13
21:04:10.992,-0.31,-0.135
21:04:10.996,-0.3,-0.12
21:04:11.000,-0.295,-0.11
21:04:11.004,-0.285,-0.13
21:04:11.008,-0.255,-0.115
21:04:11.012,-0.26,-0.125
21:04:11.016,-0.27,-0.13
21:04:11.020,-0.27,-0.12
21:04:11.024,-0.275,-0.115
21:04:11.028,-0.235,-0.105
21:04:11.032,-0.19,-0.1
21:04:11.036,-0.155,-0.1
21:04:11.040,-0.12,-0.105
21:04:11.044,-0.11,-0.095
21:04:11.048,-0.08,-0.085
21:04:11.052,-0.05,-0.08
21:04:11.056,-0.03,-0.09
21:04:11.060,-0.025,-0.105
21:04:11.064,-0.05,-0.105
21:04:11.068,-0.07,-0.12
21:04:11.072,-0.13,-0.14
21:04:11.076,-0.175,-0.165
21:04:11.080,-0.225,-0.135
21:04:11.084,-0.27,-0.16
21:04:11.088,-0.31,-0.15
21:04:11.092,-0.36,-0.145
21:04:11.096,-0.39,-0.12
21:04:11.100,-0.42,-0.095
21:04:11.104,-0.425,-0.08
21:04:11.108,-0.425,-0.07
21:04:11.112,-0.415,-0.115
21:04:11.116,-0.415,-0.1
21:04:11.120,-0.405,-0.09
21:04:11.124,-0.405,-0.095
21:04:11.128,-0.39,-0.105
21:04:11.132,-0.38,-0.12
21:04:11.136,-0.395,-0.095
21:04:11.140,-0.395,-0.11
21:04:11.144,-0.4,-0.1
21:04:11.148,-0.395,-0.1
21:04:11.152,-0.39,-0.1
21:04:11.156,-0.395,-0.115
21:04:11.160,-0.39,-0.12
21:04:11.164,-0.38,-0.11
21:04:11.168,-0.36,-0.105
21:04:11.172,-0.38,-0.12
21:04:11.176,-0.355,-0.12
21:04:11.180,-0.39,-0.13
21:04:11.184,-0.365,-0.12
21:04:11.188,-0.37,-0.12
21:04:11.192,-0.355,-0.105
21:04:11.196,-0.345,-0.1
21:04:11.200,-0.34,-0.095
21:04:11.204,-0.325,-0.08
21:04:11.208,-0.31,-0.09
21:04:11.212,-0.27,-0.105
21:04:11.216,-0.2,-0.095
21:04:11.220,-0.11,-0.1
21:04:11.224,-0.025,-0.115
21:04:11.228,0.06,-0.115
21:04:11.232,0.09,-0.155
21:04:11.236,0.115,-0.21
21:04:11.240,0.145,-0.225
21:04:11.244,0.13,-0.24
21:04:11.248,0.145,-0.32
21:04:11.252,0.16,-0.43
21:04:11.256,0.34,-0.565
21:04:11.260,0.635,-0.8
21:04:11.264,0.965,-1.065
21:04:11.268,1.09,-1.29
21:04:11.272,0.92,-1.4
21:04:11.276,0.49,-1.29
21:04:11.280,-0.015,-0.92
21:04:11.284,-0.31,-0.545
21:04:11.288,-0.435,-0.3
21:04:11.292,-0.46,-0.145
21:04:11.296,-0.45,-0.055
21:04:11.300,-0.46,-0.005
21:04:11.304,-0.485,0.045
21:04:11.308,-0.505,0.06
21:04:11.312,-0.48,0.08
21:04:11.316,-0.48,0.06
21:04:11.320,-0.5,0.03
21:04:11.324,-0.49,0.025
21:04:11.328,-0.475,0.02
21:04:11.332,-0.5,0.025
21:04:11.336,-0.51,0.025
21:04:11.340,-0.51,0.04
21:04:11.344,-0.5,0.045
21:04:11.348,-0.505,0.07
21:04:11.352,-0.5,0.03
21:04:11.356,-0.51,0.045
21:04:11.360,-0.51,0.03
21:04:11.364,-0.52,0.04
21:04:11.368,-0.55,0.045
21:04:11.372,-0.53,0.05
21:04:11.376,-0.535,0.06
21:04:11.380,-0.54,0.055
21:04:11.384,-0.53,0.045
21:04:11.388,-0.55,0.045
21:04:11.392,-0.545,0.03
21:04:11.396,-0.545,0.04
21:04:11.400,-0.535,0.04
21:04:11.404,-0.565,0.04
21:04:11.408,-0.565,0.035
21:04:11.412,-0.565,0.05
21:04:11.416,-0.57,0.06
21:04:11.420,-0.585,0.07
21:04:11.424,-0.545,0.045
21:04:11.428,-0.55,0.085
21:04:11.432,-0.535,0.07
21:04:11.436,-0.52,0.09
21:04:11.440,-0.54,0.09
21:04:11.444,-0.52,0.1
21:04:11.448,-0.525,0.11
21:04:11.452,-0.545,0.11
21:04:11.456,-0.53,0.095
21:04:11.460,-0.5,0.09
21:04:11.464,-0.495,0.115
21:04:11.468,-0.505,0.1
21:04:11.472,-0.49,0.105
21:04:11.476,-0.485,0.09
21:04:11.480,-0.48,0.075
21:04:11.484,-0.475,0.065
21:04:11.488,-0.45,0.055
21:04:11.492,-0.45,0.02
21:04:11.496,-0.435,0.03
21:04:11.500,-0.43,0.015
21:04:11.504,-0.44,0.0
21:04:11.508,-0.405,0.0
21:04:11.512,-0.39,0.01
21:04:11.516,-0.39,-0.02
21:04:11.520,-0.37,-0.02
21:04:11.524,-0.35,-0.015
21:04:11.528,-0.355,0.005
21:04:11.532,-0.35,-0.01
21:04:11.536,-0.33,-0.02
21:04:11.540,-0.32,0.01
21:04:11.544,-0.31,0.015
21:04:11.548,-0.305,-0.015
21:04:11.552,-0.305,0.0
21:04:11.556,-0.285,-0.01
21:04:11.560,-0.29,0.0
21:04:11.564,-0.285,0.03
21:04:11.568,-0.3,0.02
21:04:11.572,-0.28,0.015
21:04:11.576,-0.28,0.03
21:04:11.580,-0.295,0.035
21:04:11.584,-0.295,0.03
21:04:11.588,-0.295,0.05
21:04:11.592,-0.315,0.04
21:04:11.596,-0.285,0.025
21:04:11.600,-0.325,0.035
21:04:11.604,-0.32,0.03
21:04:11.608,-0.33,0.025
21:04:11.612,-0.35,0.02
21:04:11.616,-0.335,0.01
21:04:11.620,-0.34,0.035
21:04:11.624,-0.32,0.025
21:04:11.628,-0.34,0.045
21:04:11.632,-0.305,0.03
21:04:11.636,-0.275,0.015
21:04:11.640,-0.275,0.055
21:04:11.644,-0.265,0.045
21:04:11.648,-0.285,0.045
21:04:11.652,-0.26,0.045
21:04:11.656,-0.19,0.06
21:04:11.660,-0.16,0.075
21:04:11.664,-0.115,0.09
21:04:11.668,-0.08,0.09
21:04:11.672,-0.065,0.08
21:04:11.676,-0.025,0.085
21:04:11.680,-0.06,0.095
21:04:11.684,-0.065,0.11
21:04:11.688,-0.09,0.11
21:04:11.692,-0.11,0.065
21:04:11.696,-0.175,0.05
21:04:11.700,-0.225,0.035
21:04:11.704,-0.265,0.015
21:04:11.708,-0.35,0.02
21:04:11.712,-0.42,0.025
21:04:11.716,-0.48,0.05
21:04:11.720,-0.505,0.075
21:04:11.724,-0.52,0.095
21:04:11.728,-0.535,0.08
21:04:11.732,-0.55,0.075
21:04:11.736,-0.54,0.075
21:04:11.740,-0.53,0.07
21:04:11.744,-0.53,0.105
21:04:11.748,-0.525,0.08
21:04:11.752,-0.51,0.095
21:04:11.756,-0.485,0.08
21:04:11.760,-0.515,0.085
21:04:11.764,-0.49,0.1
21:04:11.768,-0.495,0.095
21:04:11.772,-0.465,0.1
21:04:11.776,-0.505,0.1
21:04:11.780,-0.47,0.115
21:04:11.784,-0.475,0.14
21:04:11.788,-0.48,0.145
21:04:11.792,-0.505,0.125
21:04:11.796,-0.505,0.155
21:04:11.800,-0.505,0.13
21:04:11.804,-0.485,0.13
21:04:11.808,-0.5,0.15
21:04:11.812,-0.5,0.13
21:04:11.816,-0.47,0.13
21:04:11.820,-0.49,0.13
21:04:11.824,-0.495,0.12
21:04:11.828,-0.505,0.135
21:04:11.832,-0.475,0.14
21:04:11.836,-0.445,0.12
21:04:11.840,-0.365,0.155
21:04:11.844,-0.275,0.12
21:04:11.848,-0.18,0.135
21:04:11.852,-0.11,0.075
21:04:11.856,-0.055,0.07
21:04:11.860,-0.01,0.015
21:04:11.864,0.015,0.0
21:04:11.868,0.03,-0.01
21:04:11.872,0.02,-0.06
21:04:11.876,0.015,-0.145
21:04:11.880,0.22,-0.32
21:04:11.884,0.54,-0.51
21:04:11.888,0.815,-0.77
21:04:11.892,0.955,-1.015
21:04:11.896,0.78,-1.14
21:04:11.900,0.325,-1.0
21:04:11.904,-0.165,-0.65
21:04:11.908,-0.445,-0.265
21:04:11.912,-0.535,-0.04
21:04:11.916,-0.55,0.1
21:04:11.920,-0.565,0.205
21:04:11.924,-0.58,0.25
21:04:11.928,-0.63,0.31
21:04:11.932,-0.64,0.295
21:04:11.936,-0.64,0.32
21:04:11.940,-0.66,0.295
21:04:11.944,-0.655,0.29
21:04:11.948,-0.68,0.25
21:04:11.952,-0.7,0.25
21:04:11.956,-0.7,0.24
21:04:11.960,-0.705,0.23
21:04:11.964,-0.68,0.26
21:04:11.968,-0.69,0.24
21:04:11.972,-0.68,0.245
21:04:11.976,-0.685,0.235
21:04:11.980,-0.695,0.25
21:04:11.984,-0.69,0.235
21:04:11.988,-0.715,0.23
21:04:11.992,-0.725,0.23
21:04:11.996,-0.725,0.23
21:04:12.000,-0.72,0.23
21:04:12.004,-0.695,0.24
21:04:12.008,-0.66,0.235
21:04:12.012,-0.665,0.215
21:04:12.016,-0.68,0.23
21:04:12.020,-0.68,0.24
21:04:12.024,-0.71,0.245
21:04:12.028,-0.695,0.23
21:04:12.032,-0.7,0.26
21:04:12.036,-0.685,0.24
21:04:12.040,-0.715,0.235
21:04:12.044,-0.71,0.24
21:04:12.048,-0.72,0.23
21:04:12.052,-0.725,0.235
21:04:12.056,-0.745,0.235
21:04:12.060,-0.755,0.2
21:04:12.064,-0.74,0.21
21:04:12.068,-0.74,0.2
21:04:12.072,-0.715,0.205
21:04:12.076,-0.7,0.21
21:04:12.080,-0.695,0.2
21:04:12.084,-0.69,0.17
21:04:12.088,-0.69,0.18
21:04:12.092,-0.7,0.18
21:04:12.096,-0.675,0.18
21:04:12.100,-0.66,0.15
21:04:12.104,-0.64,0.18
21:04:12.108,-0.63,0.16
21:04:12.112,-0.61,0.155
21:04:12.116,-0.59,0.14
21:04:12.120,-0.575,0.11
21:04:12.124,-0.575,0.15
21:04:12.128,-0.555,0.14
21:04:12.132,-0.55,0.125
21:04:12.136,-0.54,0.125
21:04:12.140,-0.52,0.125
21:04:12.144,-0.505,0.1
21:04:12.148,-0.51,0.11
21:04:12.152,-0.49,0.095
21:04:12.156,-0.49,0.095
21:04:12.160,-0.49,0.105
21:04:12.164,-0.48,0.09
21:04:12.168,-0.465,0.08
21:04:12.172,-0.46,0.09
21:04:12.176,-0.47,0.105
21:04:12.180,-0.465,0.08
21:04:12.184,-0.465,0.08
21:04:12.188,-0.445,0.065
21:04:12.192,-0.465,0.055
21:04:12.196,-0.45,0.04
21:04:12.200,-0.445,0.055
21:04:12.204,-0.44,0.055
21:04:12.208,-0.45,0.045
21:04:12.212,-0.435,0.05
21:04:12.216,-0.445,0.045
21:04:12.220,-0.435,0.055
21:04:12.224,-0.43,0.055
21:04:12.228,-0.445,0.035
21:04:12.232,-0.45,0.03
21:04:12.236,-0.43,0.045
21:04:12.240,-0.445,0.04
21:04:12.244,-0.435,0.04
21:04:12.248,-0.42,0.04
21:04:12.252,-0.44,0.035
21:04:12.256,-0.455,0.03
21:04:12.260,-0.43,0.03
21:04:12.264,-0.435,0.04
21:04:12.268,-0.415,0.03
21:04:12.272,-0.41,0.02
21:04:12.276,-0.41,0.03
21:04:12.280,-0.415,0.0
21:04:12.284,-0.435,-0.035
21:04:12.288,-0.41,-0.03
21:04:12.292,-0.38,-0.005
21:04:12.296,-0.33,-0.01
21:04:12.300,-0.285,-0.01
21:04:12.304,-0.245,-0.01
21:04:12.308,-0.215,0.0
21:04:12.312,-0.17,-0.02
21:04:12.316,-0.14,-0.03
21:04:12.320,-0.13,-0.03
21:04:12.324,-0.145,-0.05
21:04:12.328,-0.175,-0.03
21:04:12.332,-0.24,-0.055
21:04:12.336,-0.27,-0.095
21:04:12.340,-0.31,-0.13
21:04:12.344,-0.355,-0.13
21:04:12.348,-0.42,-0.145
21:04:12.352,-0.47,-0.125
21:04:12.356,-0.505,-0.14
21:04:12.360,-0.535,-0.12
21:04:12.364,-0.545,-0.11
21:04:12.368,-0.56,-0.12
21:04:12.372,-0.57,-0.13
21:04:12.376,-0.53,-0.145
21:04:12.380,-0.54,-0.155
21:04:12.384,-0.53,-0.16
21:04:12.388,-0.515,-0.17
21:04:12.392,-0.51,-0.185
21:04:12.396,-0.535,-0.18
21:04:12.400,-0.53,-0.195
21:04:12.404,-0.545,-0.205
21:04:12.408,-0.545,-0.205
21:04:12.412,-0.53,-0.22
21:04:12.416,-0.53,-0.23
21:04:12.420,-0.55,-0.245
21:04:12.424,-0.52,-0.235
21:04:12.428,-0.54,-0.265
21:04:12.432,-0.53,-0.265
21:04:12.436,-0.52,-0.24
21:04:12.440,-0.51,-0.25
21:04:12.444,-0.51,-0.275
21:04:12.448,-0.53,-0.29
21:04:12.452,-0.525,-0.27
21:04:12.456,-0.51,-0.29
21:04:12.460,-0.505,-0.295
21:04:12.464,-0.505,-0.305
21:04:12.468,-0.48,-0.295
21:04:12.472,-0.445,-0.315
21:04:12.476,-0.375,-0.315
21:04:12.480,-0.325,-0.31
21:04:12.484,-0.27,-0.325
21:04:12.488,-0.165,-0.36
21:04:12.492,-0.09,-0.38
21:04:12.496,0.015,-0.405
21:04:12.500,0.06,-0.45
21:04:12.504,0.14,-0.47
21:04:12.508,0.17,-0.485
21:04:12.512,0.15,-0.555
21:04:12.516,0.17,-0.625
21:04:12.520,0.29,-0.73
21:04:12.524,0.565,-0.93
21:04:12.528,0.815,-1.15
21:04:12.532,0.94,-1.35
21:04:12.536,0.8,-1.52
21:04:12.540,0.335,-1.43
21:04:12.544,-0.135,-1.15
21:04:12.548,-0.415,-0.84
21:04:12.552,-0.52,-0.62
21:04:12.556,-0.56,-0.515
21:04:12.560,-0.58,-0.4
21:04:12.564,-0.6,-0.345
21:04:12.568,-0.64,-0.285
21:04:12.572,-0.655,-0.28
21:04:12.576,-0.665,-0.27
21:04:12.580,-0.66,-0.275
21:04:12.584,-0.66,-0.285
21:04:12.588,-0.655,-0.295
21:04:12.592,-0.67,-0.295
21:04:12.596,-0.67,-0.295
21:04:12.600,-0.685,-0.29
21:04:12.604,-0.7,-0.28
21:04:12.608,-0.7,-0.27
21:04:12.612,-0.72,-0.265
21:04:12.616,-0.69,-0.27
21:04:12.620,-0.695,-0.25
21:04:12.624,-0.71,-0.235
21:04:12.628,-0.705,-0.225
21:04:12.632,-0.73,-0.215
21:04:12.636,-0.725,-0.23
21:04:12.640,-0.74,-0.21
21:04:12.644,-0.74,-0.205
21:04:12.648,-0.74,-0.2
21:04:12.652,-0.75,-0.19
21:04:12.656,-0.76,-0.17
21:04:12.660,-0.765,-0.18
21:04:12.664,-0.76,-0.16
21:04:12.668,-0.745,-0.14
21:04:12.672,-0.765,-0.125
21:04:12.676,-0.775,-0.115
21:04:12.680,-0.77,-0.115
21:04:12.684,-0.79,-0.08
21:04:12.688,-0.805,-0.06
21:04:12.692,-0.8,-0.07
21:04:12.696,-0.765,-0.015
21:04:12.700,-0.755,0.0
21:04:12.704,-0.75,0.0
21:04:12.708,-0.74,0.03
21:04:12.712,-0.745,0.045
21:04:12.716,-0.73,0.08
21:04:12.720,-0.73,0.09
21:04:12.724,-0.72,0.12
21:04:12.728,-0.73,0.115
21:04:12.732,-0.705,0.15
21:04:12.736,-0.72,0.18
21:04:12.740,-0.7,0.2
21:04:12.744,-0.685,0.19
21:04:12.748,-0.67,0.195
21:04:12.752,-0.655,0.195
21:04:12.756,-0.67,0.23
21:04:12.760,-0.635,0.24
21:04:12.764,-0.625,0.22
21:04:12.768,-0.63,0.225
21:04:12.772,-0.62,0.235
21:04:12.776,-0.595,0.25
21:04:12.780,-0.575,0.255
21:04:12.784,-0.56,0.26
21:04:12.788,-0.535,0.24
21:04:12.792,-0.555,0.295
21:04:12.796,-0.52,0.315
21:04:12.800,-0.505,0.29
21:04:12.804,-0.5,0.31
21:04:12.808,-0.495,0.315
21:04:12.812,-0.495,0.33
21:04:12.816,-0.465,0.34
21:04:12.820,-0.46,0.35
21:04:12.824,-0.48,0.37
21:04:12.828,-0.47,0.375
21:04:12.832,-0.455,0.395
21:04:12.836,-0.435,0.395
21:04:12.840,-0.46,0.43
21:04:12.844,-0.44,0.44
21:04:12.848,-0.455,0.435
21:04:12.852,-0.46,0.455
21:04:12.856,-0.465,0.445
21:04:12.860,-0.45,0.45
21:04:12.864,-0.46,0.485
21:04:12.868,-0.47,0.475
21:04:12.872,-0.48,0.465
21:04:12.876,-0.51,0.48
21:04:12.880,-0.49,0.45
21:04:12.884,-0.49,0.45
21:04:12.888,-0.47,0.435
21:04:12.892,-0.48,0.445
21:04:12.896,-0.485,0.45
21:04:12.900,-0.47,0.465
21:04:12.904,-0.475,0.48
21:04:12.908,-0.48,0.465
21:04:12.912,-0.475,0.485
21:04:12.916,-0.485,0.465
21:04:12.920,-0.49,0.485
21:04:12.924,-0.45,0.485
21:04:12.928,-0.415,0.505
21:04:12.932,-0.405,0.51
21:04:12.936,-0.41,0.505
21:04:12.940,-0.39,0.515
21:04:12.944,-0.365,0.525
21:04:12.948,-0.325,0.54
21:04:12.952,-0.29,0.57
21:04:12.956,-0.26,0.59
21:04:12.960,-0.225,0.6
21:04:12.964,-0.205,0.58
21:04:12.968,-0.18,0.575
21:04:12.972,-0.155,0.59
21:04:12.976,-0.18,0.58
21:04:12.980,-0.17,0.585
21:04:12.984,-0.24,0.55
21:04:12.988,-0.295,0.54
21:04:12.992,-0.335,0.5
21:04:12.996,-0.405,0.505
21:04:13.000,-0.455,0.5
21:04:13.004,-0.49,0.5
21:04:13.008,-0.53,0.53
21:04:13.012,-0.56,0.53
21:04:13.016,-0.585,0.535
21:04:13.020,-0.56,0.55
21:04:13.024,-0.585,0.56
21:04:13.028,-0.57,0.55
21:04:13.032,-0.555,0.535
21:04:13.036,-0.555,0.56
21:04:13.040,-0.545,0.555
21:04:13.044,-0.53,0.545
21:04:13.048,-0.52,0.56
21:04:13.052,-0.52,0.555
21:04:13.056,-0.51,0.56
21:04:13.060,-0.515,0.56
21:04:13.064,-0.51,0.55
21:04:13.068,-0.52,0.565
21:04:13.072,-0.52,0.57
21:04:13.076,-0.505,0.55
21:04:13.080,-0.51,0.57
21:04:13.084,-0.505,0.575
21:04:13.088,-0.505,0.595
21:04:13.092,-0.505,0.585
21:04:13.096,-0.53,0.575
21:04:13.100,-0.535,0.59
21:04:13.104,-0.52,0.58
21:04:13.108,-0.5,0.58
21:04:13.112,-0.5,0.59
21:04:13.116,-0.475,0.57
21:04:13.120,-0.485,0.595
21:04:13.124,-0.44,0.585
21:04:13.128,-0.395,0.61
21:04:13.132,-0.325,0.59
21:04:13.136,-0.24,0.58
21:04:13.140,-0.15,0.58
21:04:13.144,-0.075,0.58
21:04:13.148,-0.025,0.52
21:04:13.152,0.025,0.46
21:04:13.156,0.075,0.455
21:04:13.160,0.075,0.425
21:04:13.164,0.085,0.365
21:04:13.168,0.175,0.23
21:04:13.172,0.4,0.06
21:04:13.176,0.695,-0.155
21:04:13.180,0.96,-0.37
21:04:13.184,0.98,-0.55
21:04:13.188,0.685,-0.615
21:04:13.192,0.17,-0.375
21:04:13.196,-0.265,0.005
21:04:13.200,-0.495,0.32
21:04:13.204,-0.57,0.5
21:04:13.208,-0.585,0.635
21:04:13.212,-0.59,0.715
21:04:13.216,-0.63,0.79
21:04:13.220,-0.64,0.82
21:04:13.224,-0.655,0.825
21:04:13.228,-0.64,0.845
21:04:13.232,-0.67,0.82
21:04:13.236,-0.675,0.805
21:04:13.240,-0.66,0.8
21:04:13.244,-0.67,0.795
21:04:13.248,-0.675,0.785
21:04:13.252,-0.675,0.805
21:04:13.256,-0.67,0.795
21:04:13.260,-0.66,0.81
21:04:13.264,-0.68,0.83
21:04:13.268,-0.685,0.82
21:04:13.272,-0.665,0.82
21:04:13.276,-0.66,0.84
21:04:13.280,-0.645,0.82
21:04:13.284,-0.65,0.815
21:04:13.288,-0.665,0.82
21:04:13.292,-0.67,0.835
21:04:13.296,-0.66,0.805
21:04:13.300,-0.67,0.815
21:04:13.304,-0.68,0.835
21:04:13.308,-0.67,0.84
21:04:13.312,-0.685,0.825
21:04:13.316,-0.695,0.83
21:04:13.320,-0.695,0.825
21:04:13.324,-0.715,0.825
21:04:13.328,-0.725,0.84
21:04:13.332,-0.72,0.835
21:04:13.336,-0.73,0.835
21:04:13.340,-0.715,0.85
21:04:13.344,-0.73,0.845
21:04:13.348,-0.72,0.84
21:04:13.352,-0.71,0.85
21:04:13.356,-0.705,0.84
21:04:13.360,-0.7,0.83
21:04:13.364,-0.69,0.86
21:04:13.368,-0.715,0.84
21:04:13.372,-0.7,0.87
21:04:13.376,-0.68,0.855
21:04:13.380,-0.685,0.85
21:04:13.384,-0.65,0.835
21:04:13.388,-0.62,0.835
21:04:13.392,-0.615,0.845
21:04:13.396,-0.6,0.84
21:04:13.400,-0.595,0.83
21:04:13.404,-0.575,0.83
21:04:13.408,-0.56,0.82
21:04:13.412,-0.55,0.82
21:04:13.416,-0.54,0.82
21:04:13.420,-0.515,0.78
21:04:13.424,-0.515,0.78
21:04:13.428,-0.515,0.78
21:04:13.432,-0.48,0.76
21:04:13.436,-0.485,0.77
21:04:13.440,-0.485,0.75
21:04:13.444,-0.475,0.755
21:04:13.448,-0.475,0.77
21:04:13.452,-0.465,0.73
21:04:13.456,-0.455,0.705
21:04:13.460,-0.445,0.675
21:04:13.464,-0.43,0.66
21:04:13.468,-0.415,0.66
21:04:13.472,-0.405,0.65
21:04:13.476,-0.43,0.665
21:04:13.480,-0.42,0.655
21:04:13.484,-0.42,0.66
21:04:13.488,-0.43,0.645
21:04:13.492,-0.42,0.66
21:04:13.496,-0.405,0.675
21:04:13.500,-0.405,0.655
21:04:13.504,-0.385,0.675
21:04:13.508,-0.41,0.68
21:04:13.512,-0.395,0.67
21:04:13.516,-0.375,0.7
21:04:13.520,-0.395,0.68
21:04:13.524,-0.395,0.705
21:04:13.528,-0.37,0.695
21:04:13.532,-0.375,0.685
21:04:13.536,-0.385,0.705
21:04:13.540,-0.345,0.705
21:04:13.544,-0.36,0.7
21:04:13.548,-0.365,0.7
21:04:13.552,-0.365,0.71
21:04:13.556,-0.36,0.705
21:04:13.560,-0.345,0.72
21:04:13.564,-0.27,0.745
21:04:13.568,-0.24,0.725
21:04:13.572,-0.21,0.74
21:04:13.576,-0.2,0.74
21:04:13.580,-0.18,0.74
21:04:13.584,-0.16,0.73
21:04:13.588,-0.145,0.735
21:04:13.592,-0.14,0.72
21:04:13.596,-0.165,0.735
21:04:13.600,-0.185,0.68
21:04:13.604,-0.225,0.685
21:04:13.608,-0.295,0.66
21:04:13.612,-0.355,0.655
21:04:13.616,-0.415,0.66
21:04:13.620,-0.435,0.675
21:04:13.624,-0.485,0.69
21:04:13.628,-0.52,0.695
21:04:13.632,-0.51,0.7
21:04:13.636,-0.515,0.72
21:04:13.640,-0.54,0.71
21:04:13.644,-0.52,0.71
21:04:13.648,-0.53,0.705
21:04:13.652,-0.515,0.72
21:04:13.656,-0.505,0.72
21:04:13.660,-0.51,0.705
21:04:13.664,-0.515,0.705
21:04:13.668,-0.505,0.71
21:04:13.672,-0.54,0.685
21:04:13.676,-0.53,0.685
21:04:13.680,-0.54,0.7
21:04:13.684,-0.535,0.685
21:04:13.688,-0.525,0.69
21:04:13.692,-0.515,0.68
21:04:13.696,-0.52,0.67
21:04:13.700,-0.505,0.65
21:04:13.704,-0.51,0.67
21:04:13.708,-0.52,0.67
21:04:13.712,-0.5,0.675
21:04:13.716,-0.5,0.665
21:04:13.720,-0.475,0.655
21:04:13.724,-0.5,0.66
21:04:13.728,-0.495,0.68
21:04:13.732,-0.49,0.665
21:04:13.736,-0.48,0.67
21:04:13.740,-0.43,0.675
21:04:13.744,-0.385,0.685
21:04:13.748,-0.31,0.67
21:04:13.752,-0.235,0.66
21:04:13.756,-0.145,0.655
21:04:13.760,-0.06,0.64
21:04:13.764,-0.045,0.595
21:04:13.768,-0.02,0.555
21:04:13.772,0.005,0.515
21:04:13.776,0.015,0.48
21:04:13.780,-0.015,0.39
21:04:13.784,0.065,0.24
21:04:13.788,0.305,0.075
21:04:13.792,0.62,-0.15
21:04:13.796,0.885,-0.4
21:04:13.800,0.92,-0.6
21:04:13.804,0.59,-0.67
21:04:13.808,0.08,-0.455
21:04:13.812,-0.36,-0.05
21:04:13.816,-0.565,0.29
21:04:13.820,-0.66,0.47
21:04:13.824,-0.635,0.63
21:04:13.828,-0.665,0.705
21:04:13.832,-0.68,0.755
21:04:13.836,-0.69,0.8
21:04:13.840,-0.705,0.81
21:04:13.844,-0.7,0.815
21:04:13.848,-0.71,0.795
21:04:13.852,-0.715,0.815
21:04:13.856,-0.725,0.785
21:04:13.860,-0.7,0.77
21:04:13.864,-0.7,0.8
21:04:13.868,-0.72,0.825
21:04:13.872,-0.72,0.785
21:04:13.876,-0.74,0.785
21:04:13.880,-0.715,0.8
21:04:13.884,-0.74,0.79
21:04:13.888,-0.75,0.79
21:04:13.892,-0.755,0.79
21:04:13.896,-0.765,0.8
21:04:13.900,-0.73,0.77
21:04:13.904,-0.76,0.775
21:04:13.908,-0.775,0.785
21:04:13.912,-0.815,0.765
21:04:13.916,-0.83,0.775
21:04:13.920,-0.825,0.745
21:04:13.924,-0.79,0.755
21:04:13.928,-0.805,0.755
21:04:13.932,-0.81,0.745
21:04:13.936,-0.83,0.77
21:04:13.940,-0.82,0.74
21:04:13.944,-0.835,0.735
21:04:13.948,-0.845,0.74
21:04:13.952,-0.855,0.74
21:04:13.956,-0.86,0.72
21:04:13.960,-0.85,0.74
21:04:13.964,-0.85,0.745
21:04:13.968,-0.825,0.76
21:04:13.972,-0.83,0.73
21:04:13.976,-0.825,0.72
21:04:13.980,-0.81,0.735
21:04:13.984,-0.795,0.725
21:04:13.988,-0.785,0.71
21:04:13.992,-0.775,0.725
21:04:13.996,-0.78,0.7
21:04:14.000,-0.77,0.685
21:04:14.004,-0.775,0.695
21:04:14.008,-0.745,0.685
21:04:14.012,-0.745,0.665
21:04:14.016,-0.725,0.675
21:04:14.020,-0.72,0.69
21:04:14.024,-0.715,0.68
21:04:14.028,-0.7,0.65
21:04:14.032,-0.68,0.645
21:04:14.036,-0.665,0.64
21:04:14.040,-0.665,0.6
21:04:14.044,-0.68,0.59
21:04:14.048,-0.655,0.59
21:04:14.052,-0.64,0.58
21:04:14.056,-0.64,0.58
21:04:14.060,-0.64,0.585
21:04:14.064,-0.615,0.605
21:04:14.068,-0.585,0.59
21:04:14.072,-0.57,0.58
21:04:14.076,-0.59,0.555
21:04:14.080,-0.575,0.56
21:04:14.084,-0.555,0.54
21:04:14.088,-0.545,0.55
21:04:14.092,-0.555,0.53
21:04:14.096,-0.555,0.55
21:04:14.100,-0.56,0.525
21:04:14.104,-0.53,0.535
21:04:14.108,-0.53,0.545
21:04:14.112,-0.51,0.535
21:04:14.116,-0.505,0.54
21:04:14.120,-0.52,0.53
21:04:14.124,-0.55,0.525
21:04:14.128,-0.565,0.52
21:04:14.132,-0.56,0.525
21:04:14.136,-0.565,0.505
21:04:14.140,-0.57,0.535
21:04:14.144,-0.585,0.525
21:04:14.148,-0.57,0.505
21:04:14.152,-0.58,0.5
21:04:14.156,-0.58,0.49
21:04:14.160,-0.575,0.465
21:04:14.164,-0.57,0.445
21:04:14.168,-0.57,0.465
21:04:14.172,-0.555,0.465
21:04:14.176,-0.56,0.44
21:04:14.180,-0.565,0.43
21:04:14.184,-0.545,0.44
21:04:14.188,-0.535,0.42
21:04:14.192,-0.525,0.42
21:04:14.196,-0.495,0.395
21:04:14.200,-0.505,0.425
21:04:14.204,-0.48,0.4
21:04:14.208,-0.465,0.39
21:04:14.212,-0.43,0.38
21:04:14.216,-0.35,0.39
21:04:14.220,-0.335,0.395
21:04:14.224,-0.295,0.4
21:04:14.228,-0.295,0.41
21:04:14.232,-0.265,0.395
21:04:14.236,-0.25,0.395
21:04:14.240,-0.235,0.385
21:04:14.244,-0.22,0.39
21:04:14.248,-0.265,0.345
21:04:14.252,-0.315,0.29
21:04:14.256,-0.37,0.275
21:04:14.260,-0.445,0.22
21:04:14.264,-0.535,0.24
21:04:14.268,-0.585,0.225
21:04:14.272,-0.615,0.22
21:04:14.276,-0.655,0.21
21:04:14.280,-0.655,0.24
21:04:14.284,-0.64,0.25
21:04:14.288,-0.63,0.2
21:04:14.292,-0.64,0.195
21:04:14.296,-0.65,0.18
21:04:14.300,-0.65,0.19
21:04:14.304,-0.67,0.17
21:04:14.308,-0.665,0.175
21:04:14.312,-0.625,0.17
21:04:14.316,-0.585,0.15
21:04:14.320,-0.59,0.14
21:04:14.324,-0.58,0.13
21:04:14.328,-0.6,0.11
21:04:14.332,-0.615,0.14
21:04:14.336,-0.59,0.12
21:04:14.340,-0.615,0.125
21:04:14.344,-0.61,0.1
21:04:14.348,-0.61,0.11
21:04:14.352,-0.59,0.085
21:04:14.356,-0.575,0.09
21:04:14.360,-0.57,0.065
21:04:14.364,-0.595,0.045
21:04:14.368,-0.595,0.065
21:04:14.372,-0.595,0.055
21:04:14.376,-0.625,0.05
21:04:14.380,-0.58,0.06
21:04:14.384,-0.56,0.02
21:04:14.388,-0.525,0.005
21:04:14.392,-0.465,0.005
21:04:14.396,-0.375,0.0
21:04:14.400,-0.29,-0.02
21:04:14.404,-0.17,-0.06
21:04:14.408,-0.1,-0.075
21:04:14.412,-0.03,-0.11
21:04:14.416,0.045,-0.155
21:04:14.420,0.085,-0.17
21:04:14.424,0.105,-0.205
21:04:14.428,0.11,-0.295
21:04:14.432,0.165,-0.385
21:04:14.436,0.38,-0.52
21:04:14.440,0.67,-0.735
21:04:14.444,0.89,-0.995
21:04:14.448,0.86,-1.19
21:04:14.452,0.515,-1.25
21:04:14.456,0.04,-1.055
21:04:14.460,-0.365,-0.755
21:04:14.464,-0.555,-0.47
21:04:14.468,-0.615,-0.33
21:04:14.472,-0.63,-0.225
21:04:14.476,-0.64,-0.15
21:04:14.480,-0.66,-0.09
21:04:14.484,-0.695,-0.065
21:04:14.488,-0.73,-0.05
21:04:14.492,-0.78,-0.07
21:04:14.496,-0.775,-0.125
21:04:14.500,-0.77,-0.16
21:04:14.504,-0.78,-0.17
21:04:14.508,-0.74,-0.155
21:04:14.512,-0.75,-0.17
21:04:14.516,-0.77,-0.16
21:04:14.520,-0.78,-0.175
21:04:14.524,-0.795,-0.185
21:04:14.528,-0.795,-0.205
21:04:14.532,-0.78,-0.205
21:04:14.536,-0.78,-0.185
21:04:14.540,-0.78,-0.205
21:04:14.544,-0.78,-0.22
21:04:14.548,-0.795,-0.225
21:04:14.552,-0.795,-0.23
21:04:14.556,-0.795,-0.265
21:04:14.560,-0.78,-0.25
21:04:14.564,-0.785,-0.255
21:04:14.568,-0.805,-0.27
21:04:14.572,-0.805,-0.27
21:04:14.576,-0.805,-0.28
21:04:14.580,-0.81,-0.29
21:04:14.584,-0.81,-0.265
21:04:14.588,-0.835,-0.29
21:04:14.592,-0.84,-0.315
21:04:14.596,-0.84,-0.3
21:04:14.600,-0.85,-0.3
21:04:14.604,-0.865,-0.305
21:04:14.608,-0.86,-0.315
21:04:14.612,-0.865,-0.31
21:04:14.616,-0.83,-0.32
21:04:14.620,-0.845,-0.32
21:04:14.624,-0.835,-0.33
21:04:14.628,-0.84,-0.335
21:04:14.632,-0.84,-0.32
21:04:14.636,-0.865,-0.33
21:04:14.640,-0.875,-0.33
21:04:14.644,-0.835,-0.35
21:04:14.648,-0.805,-0.335
21:04:14.652,-0.805,-0.365
21:04:14.656,-0.795,-0.34
21:04:14.660,-0.775,-0.355
21:04:14.664,-0.755,-0.385
21:04:14.668,-0.735,-0.38
21:04:14.672,-0.73,-0.375
21:04:14.676,-0.725,-0.385
21:04:14.680,-0.72,-0.385
21:04:14.684,-0.705,-0.405
21:04:14.688,-0.665,-0.4
21:04:14.692,-0.64,-0.41
21:04:14.696,-0.64,-0.42
21:04:14.700,-0.64,-0.42
21:04:14.704,-0.635,-0.4
21:04:14.708,-0.6,-0.415
21:04:14.712,-0.595,-0.425
21:04:14.716,-0.6,-0.42
21:04:14.720,-0.62,-0.41
21:04:14.724,-0.615,-0.425
21:04:14.728,-0.605,-0.43
21:04:14.732,-0.6,-0.415
21:04:14.736,-0.575,-0.41
21:04:14.740,-0.585,-0.405
21:04:14.744,-0.58,-0.4
21:04:14.748,-0.59,-0.39
21:04:14.752,-0.585,-0.385
21:04:14.756,-0.575,-0.38
21:04:14.760,-0.615,-0.365
21:04:14.764,-0.59,-0.345
21:04:14.768,-0.59,-0.34
21:04:14.772,-0.585,-0.335
21:04:14.776,-0.585,-0.305
21:04:14.780,-0.57,-0.305
21:04:14.784,-0.555,-0.3
21:04:14.788,-0.56,-0.29
21:04:14.792,-0.55,-0.26
21:04:14.796,-0.57,-0.265
21:04:14.800,-0.555,-0.245
21:04:14.804,-0.58,-0.245
21:04:14.808,-0.595,-0.24
21:04:14.812,-0.59,-0.23
21:04:14.816,-0.555,-0.22
21:04:14.820,-0.555,-0.2
21:04:14.824,-0.56,-0.205
21:04:14.828,-0.55,-0.18
21:04:14.832,-0.55,-0.17
21:04:14.836,-0.525,-0.155
21:04:14.840,-0.535,-0.155
21:04:14.844,-0.56,-0.155
21:04:14.848,-0.55,-0.14
21:04:14.852,-0.535,-0.12
21:04:14.856,-0.505,-0.12
21:04:14.860,-0.44,-0.105
21:04:14.864,-0.39,-0.05
21:04:14.868,-0.335,-0.055
21:04:14.872,-0.33,-0.02
21:04:14.876,-0.29,-0.015
21:04:14.880,-0.28,0.0
21:04:14.884,-0.27,0.025
21:04:14.888,-0.27,0.03
21:04:14.892,-0.295,0.02
21:04:14.896,-0.335,0.015
21:04:14.900,-0.37,0.01
21:04:14.904,-0.42,0.005
21:04:14.908,-0.465,0.025
21:04:14.912,-0.56,0.03
21:04:14.916,-0.61,0.025
21:04:14.920,-0.635,0.055
21:04:14.924,-0.655,0.085
21:04:14.928,-0.64,0.1
21:04:14.932,-0.635,0.115
21:04:14.936,-0.64,0.11
21:04:14.940,-0.64,0.13
21:04:14.944,-0.665,0.14
21:04:14.948,-0.675,0.135
21:04:14.952,-0.66,0.155
21:04:14.956,-0.67,0.145
21:04:14.960,-0.655,0.185
21:04:14.964,-0.65,0.185
21:04:14.968,-0.645,0.195
21:04:14.972,-0.65,0.21
21:04:14.976,-0.64,0.22
21:04:14.980,-0.635,0.23
21:04:14.984,-0.63,0.255
21:04:14.988,-0.62,0.245
21:04:14.992,-0.62,0.255
21:04:14.996,-0.625,0.24
21:04:15.000,-0.62,0.27
21:04:15.004,-0.65,0.28
21:04:15.008,-0.63,0.275
21:04:15.012,-0.595,0.28
21:04:15.016,-0.585,0.29
21:04:15.020,-0.59,0.305
21:04:15.024,-0.57,0.29
21:04:15.028,-0.56,0.305
21:04:15.032,-0.545,0.315
21:04:15.036,-0.525,0.315
21:04:15.040,-0.455,0.34
21:04:15.044,-0.385,0.34
21:04:15.048,-0.3,0.33
21:04:15.052,-0.205,0.35
21:04:15.056,-0.13,0.33
21:04:15.060,-0.065,0.285
21:04:15.064,-0.02,0.245
21:04:15.068,0.02,0.24
21:04:15.072,0.04,0.205
21:04:15.076,0.025,0.14
21:04:15.080,0.13,0.04
21:04:15.084,0.38,-0.15
21:04:15.088,0.675,-0.375
21:04:15.092,0.92,-0.58
21:04:15.096,0.945,-0.765
21:04:15.100,0.635,-0.83
21:04:15.104,0.095,-0.62
21:04:15.108,-0.355,-0.285
21:04:15.112,-0.55,0.03
21:04:15.116,-0.62,0.22
21:04:15.120,-0.655,0.36
21:04:15.124,-0.67,0.475
21:04:15.128,-0.685,0.525
21:04:15.132,-0.685,0.56
21:04:15.136,-0.685,0.58
21:04:15.140,-0.705,0.62
21:04:15.144,-0.695,0.615
21:04:15.148,-0.695,0.61
21:04:15.152,-0.705,0.605
21:04:15.156,-0.7,0.605
21:04:15.160,-0.69,0.585
21:04:15.164,-0.68,0.63
21:04:15.168,-0.695,0.61
21:04:15.172,-0.695,0.61
21:04:15.176,-0.685,0.58
21:04:15.180,-0.695,0.605
21:04:15.184,-0.725,0.605
21:04:15.188,-0.695,0.63
21:04:15.192,-0.735,0.62
21:04:15.196,-0.715,0.635
21:04:15.200,-0.73,0.62
21:04:15.204,-0.72,0.585
21:04:15.208,-0.725,0.58
21:04:15.212,-0.715,0.545
21:04:15.216,-0.71,0.575
21:04:15.220,-0.735,0.575
21:04:15.224,-0.725,0.605
21:04:15.228,-0.715,0.625
21:04:15.232,-0.705,0.625
21:04:15.236,-0.68,0.61
21:04:15.240,-0.705,0.62
21:04:15.244,-0.725,0.615
21:04:15.248,-0.71,0.595
21:04:15.252,-0.69,0.585
21:04:15.256,-0.675,0.605
21:04:15.260,-0.66,0.615
21:04:15.264,-0.68,0.61
21:04:15.268,-0.68,0.61
21:04:15.272,-0.67,0.615
21:04:15.276,-0.66,0.6
21:04:15.280,-0.66,0.585
21:04:15.284,-0.64,0.59
21:04:15.288,-0.63,0.585
21:04:15.292,-0.65,0.61
21:04:15.296,-0.625,0.6
21:04:15.300,-0.615,0.6
21:04:15.304,-0.605,0.59
21:04:15.308,-0.585,0.585
21:04:15.312,-0.57,0.57
21:04:15.316,-0.545,0.585
21:04:15.320,-0.54,0.56
21:04:15.324,-0.52,0.515
21:04:15.328,-0.5,0.495
21:04:15.332,-0.495,0.47
21:04:15.336,-0.45,0.505
21:04:15.340,-0.43,0.5
21:04:15.344,-0.435,0.49
21:04:15.348,-0.415,0.465
21:04:15.352,-0.385,0.425
21:04:15.356,-0.385,0.415
21:04:15.360,-0.385,0.41
21:04:15.364,-0.36,0.4
21:04:15.368,-0.335,0.43
21:04:15.372,-0.32,0.435
21:04:15.376,-0.285,0.47
21:04:15.380,-0.295,0.455
21:04:15.384,-0.285,0.465
21:04:15.388,-0.3,0.49
21:04:15.392,-0.29,0.51
21:04:15.396,-0.28,0.495
21:04:15.400,-0.31,0.475
21:04:15.404,-0.28,0.495
21:04:15.408,-0.275,0.505
21:04:15.412,-0.24,0.52
21:04:15.416,-0.22,0.53
21:04:15.420,-0.2,0.49
21:04:15.424,-0.225,0.46
21:04:15.428,-0.215,0.42
21:04:15.432,-0.23,0.415
21:04:15.436,-0.27,0.425
21:04:15.440,-0.26,0.425
21:04:15.444,-0.225,0.42
21:04:15.448,-0.22,0.44
21:04:15.452,-0.235,0.455
21:04:15.456,-0.265,0.465
21:04:15.460,-0.255,0.505
21:04:15.464,-0.245,0.5
21:04:15.468,-0.23,0.53
21:04:15.472,-0.185,0.53
21:04:15.476,-0.195,0.515
21:04:15.480,-0.18,0.485
21:04:15.484,-0.165,0.48
21:04:15.488,-0.14,0.505
21:04:15.492,-0.11,0.495
21:04:15.496,-0.05,0.505
21:04:15.500,-0.015,0.53
21:04:15.504,0.0,0.555
21:04:15.508,0.01,0.535
21:04:15.512,0.035,0.575
21:04:15.516,0.065,0.525
21:04:15.520,0.095,0.535
21:04:15.524,0.125,0.565
21:04:15.528,0.115,0.565
21:04:15.532,0.09,0.565
21:04:15.536,0.025,0.52
21:04:15.540,0.025,0.465
21:04:15.544,-0.005,0.455
21:04:15.548,-0.02,0.445
21:04:15.552,-0.08,0.465
21:04:15.556,-0.14,0.46
21:04:15.560,-0.235,0.4
21:04:15.564,-0.24,0.39
21:04:15.568,-0.235,0.36
21:04:15.572,-0.225,0.365
21:04:15.576,-0.21,0.395
21:04:15.580,-0.18,0.395
21:04:15.584,-0.125,0.42
21:04:15.588,-0.125,0.42
21:04:15.592,-0.15,0.405
21:04:15.596,-0.15,0.385
21:04:15.600,-0.115,0.335
21:04:15.604,-0.11,0.295
21:04:15.608,-0.08,0.3
21:04:15.612,-0.08,0.29
21:04:15.616,-0.09,0.3
21:04:15.620,-0.06,0.355
21:04:15.624,-0.085,0.365
21:04:15.628,-0.13,0.335
21:04:15.632,-0.145,0.295
21:04:15.636,-0.11,0.25
21:04:15.640,-0.08,0.225
21:04:15.644,-0.065,0.205
21:04:15.648,0.0,0.16
21:04:15.652,0.02,0.12
21:04:15.656,0.01,0.07
21:04:15.660,-0.06,0.015
21:04:15.664,-0.09,0.0
21:04:15.668,-0.09,-0.02
21:04:15.672,-0.04,-0.045
21:04:15.676,0.005,-0.06
21:04:15.680,0.075,-0.055
21:04:15.684,0.16,-0.07
21:04:15.688,0.245,-0.085
21:04:15.692,0.33,-0.145
21:04:15.696,0.365,-0.225
21:04:15.700,0.385,-0.315
21:04:15.704,0.44,-0.355
21:04:15.708,0.475,-0.37
21:04:15.712,0.495,-0.41
21:04:15.716,0.52,-0.495
21:04:15.720,0.655,-0.605
21:04:15.724,0.9,-0.805
21:04:15.728,1.215,-1.07
21:04:15.732,1.425,-1.385
21:04:15.736,1.39,-1.625
21:04:15.740,1.03,-1.635
21:04:15.744,0.54,-1.385
21:04:15.748,0.15,-1.0
21:04:15.752,0.005,-0.73
21:04:15.756,-0.01,-0.635
21:04:15.760,-0.025,-0.59
21:04:15.764,-0.02,-0.555
21:04:15.768,-0.025,-0.585
21:04:15.772,-0.045,-0.595
21:04:15.776,-0.015,-0.63
21:04:15.780,-0.02,-0.64
21:04:15.784,-0.015,-0.64
21:04:15.788,-0.005,-0.69
21:04:15.792,0.0,-0.71
21:04:15.796,0.025,-0.77
21:04:15.800,0.05,-0.905
21:04:15.804,0.08,-1.0
21:04:15.808,0.085,-1.06
21:04:15.812,0.095,-1.125
21:04:15.816,0.11,-1.22
21:04:15.820,0.13,-1.335
21:04:15.824,0.145,-1.45
21:04:15.828,0.105,-1.525
21:04:15.832,0.085,-1.6
21:04:15.836,0.09,-1.66
21:04:15.840,0.12,-1.685
21:04:15.844,0.14,-1.78
21:04:15.848,0.125,-1.915
21:04:15.852,0.15,-2.04
21:04:15.856,0.175,-2.13
21:04:15.860,0.18,-2.215
21:04:15.864,0.19,-2.325
21:04:15.868,0.185,-2.465
21:04:15.872,0.205,-2.555
21:04:15.876,0.22,-2.705
21:04:15.880,0.25,-2.76
21:04:15.884,0.235,-2.86
21:04:15.888,0.19,-2.92
21:04:15.892,0.19,-3.0
21:04:15.896,0.19,-3.055
21:04:15.900,0.19,-3.065
21:04:15.904,0.2,-3.065
21:04:15.908,0.21,-3.06
21:04:15.912,0.235,-3.055
21:04:15.916,0.235,-3.06
21:04:15.920,0.235,-3.06
21:04:15.924,0.225,-3.08
21:04:15.928,0.23,-3.065
21:04:15.932,0.235,-3.08
21:04:15.936,0.235,-3.075
21:04:15.940,0.25,-3.055
21:04:15.944,0.265,-3.05
21:04:15.948,0.29,-3.06
21:04:15.952,0.295,-3.08
21:04:15.956,0.325,-3.065
21:04:15.960,0.34,-3.085
21:04:15.964,0.35,-3.07
21:04:15.968,0.375,-3.07
21:04:15.972,0.36,-3.07
21:04:15.976,0.35,-3.065
21:04:15.980,0.37,-3.06
21:04:15.984,0.38,-3.09
21:04:15.988,0.385,-3.065
21:04:15.992,0.39,-3.035
21:04:15.996,0.41,-3.065
21:04:16.000,0.415,-3.055
21:04:16.004,0.41,-3.065
21:04:16.008,0.43,-3.055
21:04:16.012,0.425,-3.045
21:04:16.016,0.41,-3.05
21:04:16.020,0.415,-3.06
21:04:16.024,0.435,-3.04
21:04:16.028,0.405,-3.03
21:04:16.032,0.405,-3.055
21:04:16.036,0.4,-3.04
21:04:16.040,0.395,-3.03
21:04:16.044,0.4,-3.01
21:04:16.048,0.395,-3.015
21:04:16.052,0.39,-3.035
21:04:16.056,0.41,-3.025
21:04:16.060,0.42,-3.035
21:04:16.064,0.44,-3.04
21:04:16.068,0.415,-3.025
21:04:16.072,0.385,-3.03
21:04:16.076,0.375,-3.02
21:04:16.080,0.375,-3.045
21:04:16.084,0.375,-3.03
21:04:16.088,0.405,-3.015
21:04:16.092,0.415,-3.0
21:04:16.096,0.38,-3.0
21:04:16.100,0.315,-3.005
21:04:16.104,0.265,-3.025
21:04:16.108,0.295,-3.015
21:04:16.112,0.31,-2.985
21:04:16.116,0.32,-3.005
21:04:16.120,0.305,-3.01
21:04:16.124,0.3,-2.985
21:04:16.128,0.305,-2.97
21:04:16.132,0.32,-2.97
21:04:16.136,0.35,-2.97
21:04:16.140,0.365,-2.94
21:04:16.144,0.39,-2.96
21:04:16.148,0.39,-2.955
21:04:16.152,0.415,-2.975
21:04:16.156,0.44,-2.955
21:04:16.160,0.42,-2.97
21:04:16.164,0.42,-2.965
21:04:16.168,0.4,-2.95
21:04:16.172,0.36,-2.955
21:04:16.176,0.305,-2.96
21:04:16.180,0.275,-2.94
21:04:16.184,0.22,-2.955
21:04:16.188,0.145,-2.945
21:04:16.192,0.11,-2.945
21:04:16.196,0.08,-2.975
21:04:16.200,0.045,-2.95
21:04:16.204,0.03,-2.95
21:04:16.208,0.035,-2.95
21:04:16.212,0.035,-2.935
21:04:16.216,0.04,-2.935
21:04:16.220,0.05,-2.945
21:04:16.224,0.035,-2.945
21:04:16.228,0.03,-2.93
21:04:16.232,0.04,-2.925
21:04:16.236,0.035,-2.945
21:04:16.240,0.035,-2.905
21:04:16.244,0.055,-2.92
21:04:16.248,0.055,-2.9
21:04:16.252,0.03,-2.925
21:04:16.256,0.045,-2.925
21:04:16.260,0.025,-2.915
21:04:16.264,0.02,-2.93
21:04:16.268,0.02,-2.9
21:04:16.272,0.02,-2.9
21:04:16.276,0.0,-2.92
21:04:16.280,0.035,-2.925
21:04:16.284,0.02,-2.905
21:04:16.288,0.035,-2.905
21:04:16.292,0.04,-2.875
21:04:16.296,0.03,-2.9
21:04:16.300,0.04,-2.875
21:04:16.304,0.04,-2.88
21:04:16.308,0.06,-2.89
21:04:16.312,0.13,-2.895
21:04:16.316,0.18,-2.89
21:04:16.320,0.26,-2.88
21:04:16.324,0.33,-2.845
21:04:16.328,0.36,-2.88
21:04:16.332,0.42,-2.86
21:04:16.336,0.445,-2.845
21:04:16.340,0.425,-2.86
21:04:16.344,0.41,-2.845
21:04:16.348,0.365,-2.88
21:04:16.352,0.385,-2.865
21:04:16.356,0.535,-2.86
21:04:16.360,0.84,-2.88
21:04:16.364,1.14,-2.86
21:04:16.368,1.27,-2.86
21:04:16.372,1.135,-2.85
21:04:16.376,0.71,-2.855
21:04:16.380,0.245,-2.86
21:04:16.384,-0.03,-2.855
21:04:16.388,-0.14,-2.855
21:04:16.392,-0.21,-2.87
21:04:16.396,-0.235,-2.86
21:04:16.400,-0.23,-2.885
21:04:16.404,-0.235,-2.855
21:04:16.408,-0.255,-2.86
21:04:16.412,-0.25,-2.84
21:04:16.416,-0.28,-2.845
21:04:16.420,-0.29,-2.86
21:04:16.424,-0.295,-2.84
21:04:16.428,-0.315,-2.835
21:04:16.432,-0.325,-2.84
21:04:16.436,-0.32,-2.83
21:04:16.440,-0.315,-2.82
21:04:16.444,-0.3,-2.84
21:04:16.448,-0.33,-2.835
21:04:16.452,-0.33,-2.82
21:04:16.456,-0.315,-2.84
21:04:16.460,-0.325,-2.83
21:04:16.464,-0.35,-2.835
21:04:16.468,-0.34,-2.85
21:04:16.472,-0.345,-2.835
21:04:16.476,-0.36,-2.845
21:04:16.480,-0.38,-2.835
21:04:16.484,-0.38,-2.845
21:04:16.488,-0.405,-2.825
21:04:16.492,-0.41,-2.835
21:04:16.496,-0.415,-2.85
21:04:16.500,-0.44,-2.845
21:04:16.504,-0.455,-2.85
21:04:16.508,-0.48,-2.845
21:04:16.512,-0.495,-2.82
21:04:16.516,-0.515,-2.82
21:04:16.520,-0.555,-2.825
21:04:16.524,-0.555,-2.845
21:04:16.528,-0.56,-2.83
21:04:16.532,-0.58,-2.81
21:04:16.536,-0.6,-2.82
21:04:16.540,-0.59,-2.845
21:04:16.544,-0.6,-2.825
21:04:16.548,-0.63,-2.82
21:04:16.552,-0.625,-2.805
21:04:16.556,-0.585,-2.825
21:04:16.560,-0.6,-2.815
21:04:16.564,-0.62,-2.815
21:04:16.568,-0.61,-2.81
21:04:16.572,-0.605,-2.83
21:04:16.576,-0.6,-2.805
21:04:16.580,-0.6,-2.83
21:04:16.584,-0.585,-2.82
21:04:16.588,-0.57,-2.82
21:04:16.592,-0.58,-2.81
21:04:16.596,-0.565,-2.81
21:04:16.600,-0.56,-2.805
21:04:16.604,-0.55,-2.805
21:04:16.608,-0.53,-2.815
21:04:16.612,-0.545,-2.81
21:04:16.616,-0.525,-2.785
21:04:16.620,-0.525,-2.8
21:04:16.624,-0.535,-2.79
21:04:16.628,-0.52,-2.81
21:04:16.632,-0.545,-2.775
21:04:16.636,-0.555,-2.775
21:04:16.640,-0.55,-2.78
21:04:16.644,-0.54,-2.775
21:04:16.648,-0.53,-2.78
21:04:16.652,-0.55,-2.755
21:04:16.656,-0.55,-2.77
21:04:16.660,-0.56,-2.775
21:04:16.664,-0.55,-2.775
21:04:16.668,-0.525,-2.805
21:04:16.672,-0.54,-2.8
21:04:16.676,-0.535,-2.775
21:04:16.680,-0.55,-2.775
21:04:16.684,-0.58,-2.785
21:04:16.688,-0.555,-2.8
21:04:16.692,-0.55,-2.77
21:04:16.696,-0.555,-2.8
21:04:16.700,-0.585,-2.78
21:04:16.704,-0.575,-2.785
21:04:16.708,-0.575,-2.805
21:04:16.712,-0.555,-2.8
21:04:16.716,-0.555,-2.795
21:04:16.720,-0.585,-2.795
21:04:16.724,-0.57,-2.8
21:04:16.728,-0.575,-2.77
21:04:16.732,-0.595,-2.76
21:04:16.736,-0.56,-2.775
21:04:16.740,-0.555,-2.78
21:04:16.744,-0.57,-2.785
21:04:16.748,-0.56,-2.77
21:04:16.752,-0.555,-2.765
21:04:16.756,-0.54,-2.765
21:04:16.760,-0.53,-2.75
21:04:16.764,-0.525,-2.765
21:04:16.768,-0.535,-2.76
21:04:16.772,-0.52,-2.755
21:04:16.776,-0.49,-2.77
21:04:16.780,-0.45,-2.785
21:04:16.784,-0.42,-2.76
21:04:16.788,-0.405,-2.755
21:04:16.792,-0.38,-2.785
21:04:16.796,-0.33,-2.755
21:04:16.800,-0.29,-2.755
21:04:16.804,-0.29,-2.76
21:04:16.808,-0.305,-2.76
21:04:16.812,-0.345,-2.755
21:04:16.816,-0.395,-2.755
21:04:16.820,-0.44,-2.75
21:04:16.824,-0.51,-2.75
21:04:16.828,-0.565,-2.745
21:04:16.832,-0.6,-2.745
21:04:16.836,-0.63,-2.74
21:04:16.840,-0.66,-2.74
21:04:16.844,-0.69,-2.735
21:04:16.848,-0.695,-2.735
21:04:16.852,-0.675,-2.745
21:04:16.856,-0.69,-2.745
21:04:16.860,-0.7,-2.74
21:04:16.864,-0.69,-2.735
21:04:16.868,-0.705,-2.745
21:04:16.872,-0.69,-2.75
21:04:16.876,-0.69,-2.705
21:04:16.880,-0.7,-2.73
21:04:16.884,-0.71,-2.725
21:04:16.888,-0.725,-2.735
21:04:16.892,-0.695,-2.715
21:04:16.896,-0.685,-2.705
21:04:16.900,-0.715,-2.71
21:04:16.904,-0.715,-2.71
21:04:16.908,-0.7,-2.73
21:04:16.912,-0.71,-2.73
21:04:16.916,-0.72,-2.71
21:04:16.920,-0.705,-2.71
21:04:16.924,-0.69,-2.695
21:04:16.928,-0.71,-2.705
21:04:16.932,-0.705,-2.7
21:04:16.936,-0.7,-2.685
21:04:16.940,-0.72,-2.705
21:04:16.944,-0.705,-2.705
21:04:16.948,-0.66,-2.69
21:04:16.952,-0.625,-2.685
21:04:16.956,-0.54,-2.705
21:04:16.960,-0.48,-2.7
21:04:16.964,-0.37,-2.695
21:04:16.968,-0.27,-2.695
21:04:16.972,-0.19,-2.69
21:04:16.976,-0.11,-2.69
21:04:16.980,-0.04,-2.685
21:04:16.984,-0.035,-2.69
21:04:16.988,-0.045,-2.67
21:04:16.992,-0.035,-2.67
21:04:16.996,0.07,-2.665
21:04:17.000,0.285,-2.685
21:04:17.004,0.55,-2.655
21:04:17.008,0.785,-2.66
21:04:17.012,0.75,-2.655
21:04:17.016,0.4,-2.65
21:04:17.020,-0.095,-2.645
21:04:17.024,-0.53,-2.66
21:04:17.028,-0.7,-2.645
21:04:17.032,-0.78,-2.66
21:04:17.036,-0.765,-2.665
21:04:17.040,-0.755,-2.65
21:04:17.044,-0.79,-2.65
21:04:17.048,-0.81,-2.655
21:04:17.052,-0.835,-2.64
21:04:17.056,-0.87,-2.635
21:04:17.060,-0.86,-2.63
21:04:17.064,-0.87,-2.63
21:04:17.068,-0.845,-2.64
21:04:17.072,-0.83,-2.625
21:04:17.076,-0.83,-2.63
21:04:17.080,-0.845,-2.635
21:04:17.084,-0.87,-2.625
21:04:17.088,-0.89,-2.625
21:04:17.092,-0.89,-2.61
21:04:17.096,-0.85,-2.605
21:04:17.100,-0.815,-2.605
21:04:17.104,-0.825,-2.595
21:04:17.108,-0.865,-2.59
21:04:17.112,-0.89,-2.605
21:04:17.116,-0.885,-2.61
21:04:17.120,-0.88,-2.595
21:04:17.124,-0.87,-2.59
21:04:17.128,-0.87,-2.605
21:04:17.132,-0.86,-2.59
21:04:17.136,-0.875,-2.585
21:04:17.140,-0.905,-2.605
21:04:17.144,-0.93,-2.555
21:04:17.148,-0.955,-2.575
21:04:17.152,-0.91,-2.58
21:04:17.156,-0.93,-2.555
21:04:17.160,-0.93,-2.58
21:04:17.164,-0.92,-2.585
21:04:17.168,-0.92,-2.57
21:04:17.172,-0.94,-2.56
21:04:17.176,-0.945,-2.56
21:04:17.180,-0.95,-2.545
21:04:17.184,-0.955,-2.545
21:04:17.188,-0.945,-2.535
21:04:17.192,-0.915,-2.53
21:04:17.196,-0.905,-2.52
21:04:17.200,-0.9,-2.51
21:04:17.204,-0.89,-2.53
21:04:17.208,-0.885,-2.515
21:04:17.212,-0.87,-2.54
21:04:17.216,-0.855,-2.5
21:04:17.220,-0.865,-2.515
21:04:17.224,-0.84,-2.515
21:04:17.228,-0.795,-2.51
21:04:17.232,-0.775,-2.52
21:04:17.236,-0.785,-2.505
21:04:17.240,-0.795,-2.495
21:04:17.244,-0.795,-2.515
21:04:17.248,-0.78,-2.495
21:04:17.252,-0.735,-2.475
21:04:17.256,-0.715,-2.5
21:04:17.260,-0.665,-2.48
21:04:17.264,-0.665,-2.475
21:04:17.268,-0.68,-2.48
21:04:17.272,-0.69,-2.465
21:04:17.276,-0.7,-2.465
21:04:17.280,-0.655,-2.48
21:04:17.284,-0.68,-2.48
21:04:17.288,-0.67,-2.475
21:04:17.292,-0.65,-2.46
21:04:17.296,-0.64,-2.45
21:04:17.300,-0.64,-2.45
21:04:17.304,-0.655,-2.445
21:04:17.308,-0.64,-2.455
21:04:17.312,-0.63,-2.45
21:04:17.316,-0.615,-2.455
21:04:17.320,-0.6,-2.45
21:04:17.324,-0.605,-2.455
21:04:17.328,-0.64,-2.45
21:04:17.332,-0.645,-2.445
21:04:17.336,-0.625,-2.43
21:04:17.340,-0.625,-2.45
21:04:17.344,-0.61,-2.46
21:04:17.348,-0.585,-2.45
21:04:17.352,-0.59,-2.44
21:04:17.356,-0.59,-2.425
21:04:17.360,-0.61,-2.45
21:04:17.364,-0.61,-2.445
21:04:17.368,-0.605,-2.435
21:04:17.372,-0.64,-2.445
21:04:17.376,-0.63,-2.425
21:04:17.380,-0.62,-2.42
21:04:17.384,-0.63,-2.43
21:04:17.388,-0.61,-2.41
21:04:17.392,-0.59,-2.41
21:04:17.396,-0.61,-2.42
21:04:17.400,-0.605,-2.405
21:04:17.404,-0.58,-2.395
21:04:17.408,-0.58,-2.41
21:04:17.412,-0.58,-2.385
21:04:17.416,-0.56,-2.39
21:04:17.420,-0.525,-2.38
21:04:17.424,-0.485,-2.38
21:04:17.428,-0.44,-2.38
21:04:17.432,-0.415,-2.375
21:04:17.436,-0.37,-2.375
21:04:17.440,-0.32,-2.375
21:04:17.444,-0.28,-2.37
21:04:17.448,-0.28,-2.39
21:04:17.452,-0.27,-2.38
21:04:17.456,-0.29,-2.355
21:04:17.460,-0.305,-2.375
21:04:17.464,-0.35,-2.365
21:04:17.468,-0.395,-2.365
21:04:17.472,-0.46,-2.365
21:04:17.476,-0.53,-2.36
21:04:17.480,-0.545,-2.39
21:04:17.484,-0.605,-2.35
21:04:17.488,-0.635,-2.355
21:04:17.492,-0.64,-2.34
21:04:17.496,-0.64,-2.355
21:04:17.500,-0.63,-2.37
21:04:17.504,-0.63,-2.34
21:04:17.508,-0.63,-2.34
21:04:17.512,-0.63,-2.34
21:04:17.516,-0.61,-2.34
21:04:17.520,-0.62,-2.35
21:04:17.524,-0.63,-2.335
21:04:17.528,-0.63,-2.35
21:04:17.532,-0.62,-2.33
21:04:17.536,-0.62,-2.325
21:04:17.540,-0.595,-2.315
21:04:17.544,-0.62,-2.31
21:04:17.548,-0.605,-2.315
21:04:17.552,-0.6,-2.325
21:04:17.556,-0.595,-2.31
21:04:17.560,-0.595,-2.315
21:04:17.564,-0.55,-2.305
21:04:17.568,-0.58,-2.31
21:04:17.572,-0.56,-2.31
21:04:17.576,-0.575,-2.305
21:04:17.580,-0.555,-2.315
21:04:17.584,-0.55,-2.3
21:04:17.588,-0.54,-2.3
21:04:17.592,-0.525,-2.28
21:04:17.596,-0.485,-2.305
21:04:17.600,-0.445,-2.285
21:04:17.604,-0.365,-2.28
21:04:17.608,-0.305,-2.295
21:04:17.612,-0.205,-2.275
21:04:17.616,-0.12,-2.3
21:04:17.620,-0.055,-2.275
21:04:17.624,0.005,-2.265
21:04:17.628,0.045,-2.27
21:04:17.632,0.085,-2.28
21:04:17.636,0.1,-2.285
21:04:17.640,0.1,-2.28
21:04:17.644,0.21,-2.275
21:04:17.648,0.415,-2.255
21:04:17.652,0.735,-2.275
21:04:17.656,0.96,-2.265
21:04:17.660,0.91,-2.23
21:04:17.664,0.565,-2.235
21:04:17.668,0.02,-2.245
21:04:17.672,-0.4,-2.255
21:04:17.676,-0.58,-2.25
21:04:17.680,-0.625,-2.26
21:04:17.684,-0.635,-2.25
21:04:17.688,-0.645,-2.25
21:04:17.692,-0.645,-2.265
21:04:17.696,-0.65,-2.255
21:04:17.700,-0.665,-2.255
21:04:17.704,-0.69,-2.25
21:04:17.708,-0.685,-2.26
21:04:17.712,-0.695,-2.245
21:04:17.716,-0.685,-2.235
21:04:17.720,-0.69,-2.235
21:04:17.724,-0.675,-2.26
21:04:17.728,-0.695,-2.25
21:04:17.732,-0.685,-2.255
21:04:17.736,-0.69,-2.255
21:04:17.740,-0.685,-2.225
21:04:17.744,-0.685,-2.245
21:04:17.748,-0.7,-2.25
21:04:17.752,-0.69,-2.245
21:04:17.756,-0.695,-2.22
21:04:17.760,-0.695,-2.235
21:04:17.764,-0.705,-2.23
21:04:17.768,-0.7,-2.24
21:04:17.772,-0.72,-2.23
21:04:17.776,-0.74,-2.23
21:04:17.780,-0.73,-2.22
21:04:17.784,-0.75,-2.22
21:04:17.788,-0.755,-2.205
21:04:17.792,-0.775,-2.23
21:04:17.796,-0.755,-2.21
21:04:17.800,-0.76,-2.225
21:04:17.804,-0.76,-2.205
21:04:17.808,-0.755,-2.225
21:04:17.812,-0.755,-2.21
21:04:17.816,-0.76,-2.205
21:04:17.820,-0.765,-2.215
21:04:17.824,-0.76,-2.2
21:04:17.828,-0.76,-2.205
21:04:17.832,-0.74,-2.21
21:04:17.836,-0.74,-2.215
21:04:17.840,-0.73,-2.21
21:04:17.844,-0.715,-2.195
21:04:17.848,-0.715,-2.17
21:04:17.852,-0.71,-2.185
21:04:17.856,-0.715,-2.17
21:04:17.860,-0.695,-2.185
21:04:17.864,-0.685,-2.17
21:04:17.868,-0.655,-2.17
21:04:17.872,-0.635,-2.16
21:04:17.876,-0.635,-2.19
21:04:17.880,-0.635,-2.17
21:04:17.884,-0.625,-2.175
21:04:17.888,-0.59,-2.155
21:04:17.892,-0.605,-2.185
21:04:17.896,-0.59,-2.185
21:04:17.900,-0.59,-2.155
21:04:17.904,-0.585,-2.145
21:04:17.908,-0.575,-2.165
21:04:17.912,-0.555,-2.15
21:04:17.916,-0.55,-2.13
21:04:17.920,-0.535,-2.14
21:04:17.924,-0.52,-2.155
21:04:17.928,-0.54,-2.14
21:04:17.932,-0.52,-2.15
21:04:17.936,-0.53,-2.135
21:04:17.940,-0.505,-2.12
21:04:17.944,-0.5,-2.105
21:04:17.948,-0.5,-2.11
21:04:17.952,-0.47,-2.125
21:04:17.956,-0.45,-2.13
21:04:17.960,-0.455,-2.13
21:04:17.964,-0.455,-2.13
21:04:17.968,-0.455,-2.125
21:04:17.972,-0.465,-2.115
21:04:17.976,-0.46,-2.12
21:04:17.980,-0.465,-2.12
21:04:17.984,-0.47,-2.105
21:04:17.988,-0.465,-2.095
21:04:17.992,-0.475,-2.095
21:04:17.996,-0.475,-2.1
21:04:18.000,-0.465,-2.085
21:04:18.004,-0.485,-2.08
21:04:18.008,-0.49,-2.085
21:04:18.012,-0.495,-2.095
21:04:18.016,-0.48,-2.085
21:04:18.020,-0.515,-2.09
21:04:18.024,-0.485,-2.06
21:04:18.028,-0.47,-2.06
21:04:18.032,-0.475,-2.05
21:04:18.036,-0.475,-2.08
21:04:18.040,-0.465,-2.065
21:04:18.044,-0.45,-2.035
21:04:18.048,-0.415,-2.04
21:04:18.052,-0.355,-2.05
21:04:18.056,-0.325,-2.025
21:04:18.060,-0.325,-2.05
21:04:18.064,-0.295,-2.06
21:04:18.068,-0.255,-2.055
21:04:18.072,-0.23,-2.045
21:04:18.076,-0.21,-2.05
21:04:18.080,-0.2,-2.055
21:04:18.084,-0.23,-2.025
21:04:18.088,-0.275,-2.035
21:04:18.092,-0.3,-2.055
21:04:18.096,-0.375,-2.055
21:04:18.100,-0.42,-2.035
21:04:18.104,-0.45,-2.035
21:04:18.108,-0.54,-2.02
21:04:18.112,-0.565,-1.99
21:04:18.116,-0.595,-2.015
21:04:18.120,-0.605,-2.025
21:04:18.124,-0.595,-2.015
21:04:18.128,-0.605,-2.025
21:04:18.132,-0.59,-2.02
21:04:18.136,-0.595,-2.025
21:04:18.140,-0.6,-2.02
21:04:18.144,-0.585,-1.99
21:04:18.148,-0.605,-1.995
21:04:18.152,-0.595,-2.0
21:04:18.156,-0.605,-2.005
21:04:18.160,-0.57,-1.985
21:04:18.164,-0.58,-2.02
21:04:18.168,-0.585,-2.005
21:04:18.172,-0.58,-2.005
21:04:18.176,-0.59,-1.975
21:04:18.180,-0.575,-1.98
21:04:18.184,-0.575,-1.975
21:04:18.188,-0.56,-1.96
21:04:18.192,-0.585,-1.985
21:04:18.196,-0.565,-1.98
21:04:18.200,-0.56,-1.965
21:04:18.204,-0.545,-1.945
21:04:18.208,-0.555,-1.96
21:04:18.212,-0.53,-1.965
21:04:18.216,-0.525,-1.96
21:04:18.220,-0.525,-1.95
21:04:18.224,-0.515,-1.96
21:04:18.228,-0.485,-1.94
21:04:18.232,-0.44,-1.935
21:04:18.236,-0.345,-1.91
21:04:18.240,-0.25,-1.9
21:04:18.244,-0.155,-1.91
21:04:18.248,-0.115,-1.91
21:04:18.252,-0.08,-1.92
21:04:18.256,-0.025,-1.925
21:04:18.260,0.0,-1.925
21:04:18.264,-0.03,-1.905
21:04:18.268,-0.025,-1.91
21:04:18.272,0.09,-1.9
21:04:18.276,0.33,-1.91
21:04:18.280,0.64,-1.905
21:04:18.284,0.85,-1.9
21:04:18.288,0.795,-1.9
21:04:18.292,0.485,-1.92
21:04:18.296,-0.03,-1.895
21:04:18.300,-0.425,-1.88
21:04:18.304,-0.615,-1.885
21:04:18.308,-0.675,-1.87
21:04:18.312,-0.69,-1.885
21:04:18.316,-0.68,-1.865
21:04:18.320,-0.68,-1.85
21:04:18.324,-0.685,-1.845
21:04:18.328,-0.685,-1.86
21:04:18.332,-0.675,-1.845
21:04:18.336,-0.685,-1.865
21:04:18.340,-0.675,-1.85
21:04:18.344,-0.685,-1.845
21:04:18.348,-0.69,-1.85
21:04:18.352,-0.68,-1.855
21:04:18.356,-0.69,-1.83
21:04:18.360,-0.7,-1.84
21:04:18.364,-0.675,-1.81
21:04:18.368,-0.695,-1.815
21:04:18.372,-0.685,-1.825
21:04:18.376,-0.675,-1.845
21:04:18.380,-0.695,-1.825
21:04:18.384,-0.715,-1.835
21:04:18.388,-0.735,-1.825
21:04:18.392,-0.735,-1.825
21:04:18.396,-0.745,-1.825
21:04:18.400,-0.73,-1.815
21:04:18.404,-0.75,-1.81
21:04:18.408,-0.75,-1.8
21:04:18.412,-0.77,-1.8
21:04:18.416,-0.765,-1.8
21:04:18.420,-0.77,-1.785
21:04:18.424,-0.765,-1.795
21:04:18.428,-0.75,-1.785
21:04:18.432,-0.77,-1.79
21:04:18.436,-0.765,-1.795
21:04:18.440,-0.775,-1.775
21:04:18.444,-0.75,-1.78
21:04:18.448,-0.755,-1.79
21:04:18.452,-0.73,-1.77
21:04:18.456,-0.735,-1.755
21:04:18.460,-0.735,-1.755
21:04:18.464,-0.735,-1.76
21:04:18.468,-0.72,-1.75
21:04:18.472,-0.715,-1.74
21:04:18.476,-0.715,-1.73
21:04:18.480,-0.705,-1.74
21:04:18.484,-0.69,-1.71
21:04:18.488,-0.68,-1.72
21:04:18.492,-0.675,-1.72
21:04:18.496,-0.67,-1.73
21:04:18.500,-0.645,-1.695
21:04:18.504,-0.64,-1.705
21:04:18.508,-0.63,-1.7
21:04:18.512,-0.635,-1.7
21:04:18.516,-0.62,-1.695
21:04:18.520,-0.605,-1.71
21:04:18.524,-0.615,-1.71
21:04:18.528,-0.6,-1.7
21:04:18.532,-0.59,-1.705
21:04:18.536,-0.57,-1.695
21:04:18.540,-0.58,-1.69
21:04:18.544,-0.565,-1.695
21:04:18.548,-0.545,-1.68
21:04:18.552,-0.545,-1.69
21:04:18.556,-0.535,-1.69
21:04:18.560,-0.52,-1.675
21:04:18.564,-0.515,-1.68
21:04:18.568,-0.505,-1.69
21:04:18.572,-0.485,-1.67
21:04:18.576,-0.49,-1.67
21:04:18.580,-0.49,-1.665
21:04:18.584,-0.48,-1.655
21:04:18.588,-0.48,-1.655
21:04:18.592,-0.495,-1.66
21:04:18.596,-0.485,-1.635
21:04:18.600,-0.48,-1.625
21:04:18.604,-0.485,-1.635
21:04:18.608,-0.48,-1.63
21:04:18.612,-0.475,-1.635
21:04:18.616,-0.48,-1.625
21:04:18.620,-0.48,-1.64
21:04:18.624,-0.48,-1.615
21:04:18.628,-0.505,-1.635
21:04:18.632,-0.495,-1.62
21:04:18.636,-0.525,-1.61
21:04:18.640,-0.54,-1.595
21:04:18.644,-0.515,-1.615
21:04:18.648,-0.51,-1.59
21:04:18.652,-0.51,-1.585
21:04:18.656,-0.505,-1.585
21:04:18.660,-0.52,-1.58
21:04:18.664,-0.5,-1.57
21:04:18.668,-0.49,-1.575
21:04:18.672,-0.48,-1.56
21:04:18.676,-0.48,-1.565
21:04:18.680,-0.465,-1.555
21:04:18.684,-0.415,-1.555
21:04:18.688,-0.37,-1.55
21:04:18.692,-0.31,-1.535
21:04:18.696,-0.27,-1.535
21:04:18.700,-0.265,-1.545
21:04:18.704,-0.215,-1.53
21:04:18.708,-0.205,-1.535
21:04:18.712,-0.215,-1.52
21:04:18.716,-0.235,-1.505
21:04:18.720,-0.26,-1.515
21:04:18.724,-0.32,-1.515
21:04:18.728,-0.39,-1.51
21:04:18.732,-0.425,-1.515
21:04:18.736,-0.475,-1.5
21:04:18.740,-0.54,-1.535
21:04:18.744,-0.575,-1.49
21:04:18.748,-0.62,-1.475
21:04:18.752,-0.645,-1.475
21:04:18.756,-0.65,-1.48
21:04:18.760,-0.66,-1.475
21:04:18.764,-0.67,-1.45
21:04:18.768,-0.65,-1.485
21:04:18.772,-0.64,-1.47
21:04:18.776,-0.635,-1.435
21:04:18.780,-0.635,-1.45
21:04:18.784,-0.635,-1.46
21:04:18.788,-0.635,-1.46
21:04:18.792,-0.635,-1.45
21:04:18.796,-0.65,-1.445
21:04:18.800,-0.64,-1.445
21:04:18.804,-0.64,-1.43
21:04:18.808,-0.64,-1.455
21:04:18.812,-0.645,-1.445
21:04:18.816,-0.625,-1.43
21:04:18.820,-0.625,-1.415
21:04:18.824,-0.605,-1.42
21:04:18.828,-0.62,-1.425
21:04:18.832,-0.63,-1.405
21:04:18.836,-0.64,-1.405
21:04:18.840,-0.62,-1.4
21:04:18.844,-0.62,-1.405
21:04:18.848,-0.63,-1.38
21:04:18.852,-0.625,-1.37
21:04:18.856,-0.61,-1.36
21:04:18.860,-0.57,-1.37
21:04:18.864,-0.515,-1.36
21:04:18.868,-0.43,-1.355
21:04:18.872,-0.33,-1.35
21:04:18.876,-0.265,-1.33
21:04:18.880,-0.225,-1.36
21:04:18.884,-0.18,-1.37
21:04:18.888,-0.17,-1.39
21:04:18.892,-0.145,-1.375
21:04:18.896,-0.15,-1.36
21:04:18.900,-0.15,-1.375
21:04:18.904,-0.01,-1.395
21:04:18.908,0.25,-1.4
21:04:18.912,0.56,-1.44
21:04:18.916,0.71,-1.44
21:04:18.920,0.59,-1.455
21:04:18.924,0.16,-1.435
21:04:18.928,-0.325,-1.435
21:04:18.932,-0.61,-1.41
21:04:18.936,-0.73,-1.37
21:04:18.940,-0.755,-1.32
21:04:18.944,-0.75,-1.28
21:04:18.948,-0.765,-1.26
21:04:18.952,-0.78,-1.235
21:04:18.956,-0.81,-1.22
21:04:18.960,-0.82,-1.23
21:04:18.964,-0.82,-1.21
21:04:18.968,-0.81,-1.225
21:04:18.972,-0.825,-1.215
21:04:18.976,-0.825,-1.205
21:04:18.980,-0.805,-1.22
21:04:18.984,-0.82,-1.215
21:04:18.988,-0.84,-1.205
21:04:18.992,-0.84,-1.2
21:04:18.996,-0.865,-1.185
21:04:19.000,-0.85,-1.215
21:04:19.004,-0.865,-1.2
21:04:19.008,-0.875,-1.225
21:04:19.012,-0.86,-1.215
21:04:19.016,-0.865,-1.205
21:04:19.020,-0.86,-1.18
21:04:19.024,-0.88,-1.18
21:04:19.028,-0.885,-1.17
21:04:19.032,-0.865,-1.17
21:04:19.036,-0.87,-1.195
21:04:19.040,-0.89,-1.175
21:04:19.044,-0.88,-1.17
21:04:19.048,-0.905,-1.165
21:04:19.052,-0.925,-1.17
21:04:19.056,-0.905,-1.17
21:04:19.060,-0.875,-1.16
21:04:19.064,-0.865,-1.14
21:04:19.068,-0.89,-1.165
21:04:19.072,-0.885,-1.14
21:04:19.076,-0.9,-1.135
21:04:19.080,-0.89,-1.135
21:04:19.084,-0.885,-1.125
21:04:19.088,-0.86,-1.14
21:04:19.092,-0.87,-1.115
21:04:19.096,-0.845,-1.125
21:04:19.100,-0.86,-1.125
21:04:19.104,-0.855,-1.13
21:04:19.108,-0.83,-1.14
21:04:19.112,-0.81,-1.125
21:04:19.116,-0.815,-1.125
21:04:19.120,-0.82,-1.12
21:04:19.124,-0.8,-1.14
21:04:19.128,-0.8,-1.115
21:04:19.132,-0.77,-1.125
21:04:19.136,-0.755,-1.115
21:04:19.140,-0.755,-1.115
21:04:19.144,-0.775,-1.09
21:04:19.148,-0.76,-1.085
21:04:19.152,-0.755,-1.1
21:04:19.156,-0.74,-1.075
21:04:19.160,-0.685,-1.08
21:04:19.164,-0.705,-1.06
21:04:19.168,-0.685,-1.05
21:04:19.172,-0.68,-1.045
21:04:19.176,-0.66,-1.03
21:04:19.180,-0.62,-1.025
21:04:19.184,-0.63,-1.045
21:04:19.188,-0.605,-1.04
21:04:19.192,-0.605,-1.045
21:04:19.196,-0.615,-1.035
21:04:19.200,-0.59,-1.035
21:04:19.204,-0.58,-1.02
21:04:19.208,-0.575,-1.01
21:04:19.212,-0.575,-1.04
21:04:19.216,-0.56,-1.025
21:04:19.220,-0.555,-1.015
21:04:19.224,-0.575,-1.005
21:04:19.228,-0.585,-1.0
21:04:19.232,-0.6,-1.005
21:04:19.236,-0.595,-1.005
21:04:19.240,-0.59,-1.02
21:04:19.244,-0.595,-1.015
21:04:19.248,-0.59,-1.005
21:04:19.252,-0.58,-0.985
21:04:19.256,-0.605,-0.98
21:04:19.260,-0.6,-0.99
21:04:19.264,-0.56,-0.98
21:04:19.268,-0.575,-0.97
21:04:19.272,-0.605,-0.99
21:04:19.276,-0.595,-0.99
21:04:19.280,-0.59,-0.975
21:04:19.284,-0.595,-1.0
21:04:19.288,-0.59,-1.0
21:04:19.292,-0.57,-0.985
21:04:19.296,-0.54,-1.005
21:04:19.300,-0.51,-0.985
21:04:19.304,-0.47,-0.995
21:04:19.308,-0.47,-1.005
21:04:19.312,-0.46,-0.99
21:04:19.316,-0.425,-1.005
21:04:19.320,-0.395,-1.0
21:04:19.324,-0.34,-1.015
21:04:19.328,-0.31,-0.98
21:04:19.332,-0.285,-0.985
21:04:19.336,-0.26,-0.965
21:04:19.340,-0.24,-0.975
21:04:19.344,-0.235,-0.985
21:04:19.348,-0.275,-0.985
21:04:19.352,-0.32,-1.005
21:04:19.356,-0.4,-1.005
21:04:19.360,-0.48,-1.025
21:04:19.364,-0.535,-1.025
21:04:19.368,-0.555,-1.025
21:04:19.372,-0.61,-1.025
21:04:19.376,-0.64,-1.02
21:04:19.380,-0.695,-1.01
21:04:19.384,-0.695,-1.02
21:04:19.388,-0.725,-1.01
21:04:19.392,-0.69,-1.01
21:04:19.396,-0.705,-1.025
21:04:19.400,-0.665,-1.025
21:04:19.404,-0.64,-1.025
21:04:19.408,-0.665,-1.015
21:04:19.412,-0.675,-1.03
21:04:19.416,-0.66,-1.04
21:04:19.420,-0.655,-1.025
21:04:19.424,-0.635,-1.035
21:04:19.428,-0.64,-1.035
21:04:19.432,-0.62,-1.01
21:04:19.436,-0.605,-1.025
21:04:19.440,-0.625,-1.04
21:04:19.444,-0.61,-1.025
21:04:19.448,-0.63,-0.995
21:04:19.452,-0.64,-1.0
21:04:19.456,-0.65,-0.995
21:04:19.460,-0.645,-1.005
21:04:19.464,-0.605,-1.03
21:04:19.468,-0.59,-1.005
21:04:19.472,-0.59,-1.015
21:04:19.476,-0.58,-1.005
21:04:19.480,-0.615,-1.005
21:04:19.484,-0.61,-1.005
21:04:19.488,-0.59,-1.0
21:04:19.492,-0.54,-1.02
21:04:19.496,-0.47,-1.0
21:04:19.500,-0.355,-0.99
21:04:19.504,-0.235,-1.01
21:04:19.508,-0.125,-1.01
21:04:19.512,-0.055,-1.04
21:04:19.516,0.005,-1.025
21:04:19.520,0.055,-1.05
21:04:19.524,0.08,-1.02
21:04:19.528,0.065,-1.04
21:04:19.532,0.105,-1.07
21:04:19.536,0.295,-1.09
21:04:19.540,0.555,-1.115
21:04:19.544,0.83,-1.12
21:04:19.548,0.905,-1.12
21:04:19.552,0.655,-1.125
21:04:19.556,0.155,-1.14
21:04:19.560,-0.3,-1.115
21:04:19.564,-0.54,-1.09
21:04:19.568,-0.64,-1.065
21:04:19.572,-0.655,-1.05
21:04:19.576,-0.66,-0.995
21:04:19.580,-0.66,-0.985
21:04:19.584,-0.685,-0.955
21:04:19.588,-0.69,-0.96
21:04:19.592,-0.715,-0.955
21:04:19.596,-0.735,-0.955
21:04:19.600,-0.76,-0.98
21:04:19.604,-0.775,-0.99
21:04:19.608,-0.765,-0.97
21:04:19.612,-0.78,-0.97
21:04:19.616,-0.79,-0.965
21:04:19.620,-0.78,-0.96
21:04:19.624,-0.77,-0.96
21:04:19.628,-0.775,-0.96
21:04:19.632,-0.755,-0.95
21:04:19.636,-0.76,-0.97
21:04:19.640,-0.765,-0.965
21:04:19.644,-0.795,-0.96
21:04:19.648,-0.775,-0.96
21:04:19.652,-0.78,-0.95
21:04:19.656,-0.775,-0.94
21:04:19.660,-0.765,-0.935
21:04:19.664,-0.76,-0.955
21:04:19.668,-0.76,-0.935
21:04:19.672,-0.75,-0.955
21:04:19.676,-0.77,-0.93
21:04:19.680,-0.77,-0.94
21:04:19.684,-0.785,-0.935
21:04:19.688,-0.785,-0.96
21:04:19.692,-0.79,-0.92
21:04:19.696,-0.8,-0.905
21:04:19.700,-0.79,-0.905
21:04:19.704,-0.78,-0.895
21:04:19.708,-0.8,-0.885
21:04:19.712,-0.785,-0.865
21:04:19.716,-0.81,-0.905
21:04:19.720,-0.815,-0.92
21:04:19.724,-0.825,-0.895
21:04:19.728,-0.81,-0.885
21:04:19.732,-0.79,-0.885
21:04:19.736,-0.78,-0.855
21:04:19.740,-0.79,-0.855
21:04:19.744,-0.78,-0.845
21:04:19.748,-0.755,-0.85
21:04:19.752,-0.74,-0.84
21:04:19.756,-0.735,-0.805
21:04:19.760,-0.715,-0.81
21:04:19.764,-0.725,-0.805
21:04:19.768,-0.705,-0.8
21:04:19.772,-0.68,-0.785
21:04:19.776,-0.655,-0.805
21:04:19.780,-0.63,-0.785
21:04:19.784,-0.61,-0.785
21:04:19.788,-0.595,-0.77
21:04:19.792,-0.58,-0.785
21:04:19.796,-0.565,-0.755
21:04:19.800,-0.53,-0.76
21:04:19.804,-0.54,-0.745
21:04:19.808,-0.53,-0.745
21:04:19.812,-0.525,-0.705
21:04:19.816,-0.51,-0.725
21:04:19.820,-0.49,-0.705
21:04:19.824,-0.495,-0.68
21:04:19.828,-0.47,-0.68
21:04:19.832,-0.5,-0.68
21:04:19.836,-0.495,-0.665
21:04:19.840,-0.495,-0.635
21:04:19.844,-0.48,-0.63
21:04:19.848,-0.465,-0.625
21:04:19.852,-0.475,-0.605
21:04:19.856,-0.49,-0.595
21:04:19.860,-0.49,-0.575
21:04:19.864,-0.48,-0.575
21:04:19.868,-0.47,-0.565
21:04:19.872,-0.465,-0.525
21:04:19.876,-0.465,-0.535
21:04:19.880,-0.455,-0.505
21:04:19.884,-0.455,-0.49
21:04:19.888,-0.465,-0.49
21:04:19.892,-0.455,-0.47
21:04:19.896,-0.46,-0.46
21:04:19.900,-0.46,-0.435
21:04:19.904,-0.445,-0.425
21:04:19.908,-0.445,-0.405
21:04:19.912,-0.425,-0.395
21:04:19.916,-0.43,-0.38
21:04:19.920,-0.425,-0.37
21:04:19.924,-0.435,-0.34
21:04:19.928,-0.4,-0.345
21:04:19.932,-0.415,-0.32
21:04:19.936,-0.4,-0.31
21:04:19.940,-0.385,-0.305
21:04:19.944,-0.355,-0.305
21:04:19.948,-0.355,-0.295
21:04:19.952,-0.305,-0.24
21:04:19.956,-0.28,-0.235
21:04:19.960,-0.235,-0.24
21:04:19.964,-0.19,-0.205
21:04:19.968,-0.18,-0.185
21:04:19.972,-0.15,-0.185
21:04:19.976,-0.125,-0.15
21:04:19.980,-0.12,-0.135
21:04:19.984,-0.11,-0.135
21:04:19.988,-0.135,-0.125
21:04:19.992,-0.2,-0.16
21:04:19.996,-0.245,-0.165
21:04:20.000,-0.3,-0.16
21:04:20.004,-0.35,-0.15
21:04:20.008,-0.405,-0.155
21:04:20.012,-0.47,-0.11
21:04:20.016,-0.495,-0.1
21:04:20.020,-0.515,-0.095
21:04:20.024,-0.495,-0.07
21:04:20.028,-0.51,-0.08
21:04:20.032,-0.49,-0.08
21:04:20.036,-0.48,-0.085
21:04:20.040,-0.475,-0.06
21:04:20.044,-0.48,-0.055
21:04:20.048,-0.485,-0.05
21:04:20.052,-0.475,-0.04
21:04:20.056,-0.48,-0.02
21:04:20.060,-0.465,-0.04
21:04:20.064,-0.44,-0.01
21:04:20.068,-0.45,-0.02
21:04:20.072,-0.445,-0.02
21:04:20.076,-0.44,-0.005
21:04:20.080,-0.44,0.0
21:04:20.084,-0.455,-0.075
21:04:20.088,-0.46,-0.16
21:04:20.092,-0.455,-0.185
21:04:20.096,-0.44,-0.195
21:04:20.100,-0.46,-0.16
21:04:20.104,-0.43,-0.155
21:04:20.108,-0.44,-0.145
21:04:20.112,-0.435,-0.125
21:04:20.116,-0.44,-0.135
21:04:20.120,-0.435,-0.135
21:04:20.124,-0.415,-0.135
21:04:20.128,-0.4,-0.135
21:04:20.132,-0.335,-0.105
21:04:20.136,-0.26,-0.115
21:04:20.140,-0.14,-0.08
21:04:20.144,-0.035,-0.095
21:04:20.148,0.035,-0.12
21:04:20.152,0.095,-0.17
21:04:20.156,0.15,-0.165
21:04:20.160,0.19,-0.19
21:04:20.164,0.2,-0.17
21:04:20.168,0.19,-0.21
21:04:20.172,0.24,-0.275
21:04:20.176,0.45,-0.395
21:04:20.180,0.73,-0.515
21:04:20.184,1.01,-0.67
21:04:20.188,1.11,-0.77
21:04:20.192,0.875,-0.855
21:04:20.196,0.4,-0.81
21:04:20.200,-0.11,-0.645
21:04:20.204,-0.385,-0.405
21:04:20.208,-0.475,-0.205
21:04:20.212,-0.515,-0.095
21:04:20.216,-0.51,-0.01
21:04:20.220,-0.52,0.06
21:04:20.224,-0.525,0.095
21:04:20.228,-0.545,0.115
21:04:20.232,-0.56,0.115
21:04:20.236,-0.55,0.13
21:04:20.240,-0.56,0.125
21:04:20.244,-0.55,0.12
21:04:20.248,-0.565,0.115
21:04:20.252,-0.56,0.115
21:04:20.256,-0.545,0.11
21:04:20.260,-0.54,0.125
21:04:20.264,-0.515,0.12
21:04:20.268,-0.52,0.14
21:04:20.272,-0.53,0.14
21:04:20.276,-0.53,0.135
21:04:20.280,-0.54,0.14
21:04:20.284,-0.53,0.155
21:04:20.288,-0.52,0.15
21:04:20.292,-0.52,0.16
21:04:20.296,-0.54,0.15
21:04:20.300,-0.54,0.155
21:04:20.304,-0.555,0.175
21:04:20.308,-0.54,0.2
21:04:20.312,-0.555,0.19
21:04:20.316,-0.55,0.195
21:04:20.320,-0.57,0.22
21:04:20.324,-0.595,0.22
21:04:20.328,-0.59,0.215
21:04:20.332,-0.595,0.22
21:04:20.336,-0.58,0.215
21:04:20.340,-0.58,0.235
21:04:20.344,-0.58,0.23
21:04:20.348,-0.57,0.225
21:04:20.352,-0.57,0.26
21:04:20.356,-0.585,0.255
21:04:20.360,-0.59,0.255
21:04:20.364,-0.585,0.265
21:04:20.368,-0.58,0.245
21:04:20.372,-0.56,0.27
21:04:20.376,-0.54,0.28
21:04:20.380,-0.52,0.265
21:04:20.384,-0.525,0.275
21:04:20.388,-0.495,0.265
21:04:20.392,-0.49,0.265
21:04:20.396,-0.495,0.28
21:04:20.400,-0.48,0.255
21:04:20.404,-0.48,0.265
21:04:20.408,-0.465,0.27
21:04:20.412,-0.445,0.28
21:04:20.416,-0.43,0.27
21:04:20.420,-0.42,0.245
21:04:20.424,-0.405,0.27
21:04:20.428,-0.415,0.275
21:04:20.432,-0.395,0.275
21:04:20.436,-0.375,0.27
21:04:20.440,-0.38,0.265
21:04:20.444,-0.36,0.255
21:04:20.448,-0.37,0.26
21:04:20.452,-0.355,0.25
21:04:20.456,-0.35,0.265
21:04:20.460,-0.365,0.275
21:04:20.464,-0.345,0.26
21:04:20.468,-0.335,0.27
21:04:20.472,-0.32,0.275
21:04:20.476,-0.335,0.275
21:04:20.480,-0.335,0.3
21:04:20.484,-0.34,0.29
21:04:20.488,-0.325,0.31
21:04:20.492,-0.32,0.325
21:04:20.496,-0.3,0.345
21:04:20.500,-0.305,0.33
21:04:20.504,-0.29,0.34
21:04:20.508,-0.29,0.335
21:04:20.512,-0.285,0.34
21:04:20.516,-0.29,0.355
21:04:20.520,-0.29,0.36
21:04:20.524,-0.29,0.37
21:04:20.528,-0.29,0.36
21:04:20.532,-0.3,0.385
21:04:20.536,-0.29,0.365
21:04:20.540,-0.285,0.385
21:04:20.544,-0.285,0.39
21:04:20.548,-0.255,0.405
21:04:20.552,-0.255,0.4
21:04:20.556,-0.24,0.395
21:04:20.560,-0.25,0.415
21:04:20.564,-0.235,0.42
21:04:20.568,-0.215,0.43
21:04:20.572,-0.155,0.44
21:04:20.576,-0.13,0.445
21:04:20.580,-0.115,0.445
21:04:20.584,-0.085,0.47
21:04:20.588,-0.05,0.49
21:04:20.592,-0.04,0.485
21:04:20.596,-0.04,0.485
21:04:20.600,-0.04,0.47
21:04:20.604,-0.08,0.47
21:04:20.608,-0.13,0.45
21:04:20.612,-0.175,0.435
21:04:20.616,-0.215,0.45
21:04:20.620,-0.265,0.435
21:04:20.624,-0.295,0.435
21:04:20.628,-0.33,0.44
21:04:20.632,-0.37,0.45
21:04:20.636,-0.4,0.475
21:04:20.640,-0.42,0.505
21:04:20.644,-0.42,0.51
21:04:20.648,-0.4,0.505
21:04:20.652,-0.405,0.5
21:04:20.656,-0.41,0.505
21:04:20.660,-0.4,0.5
21:04:20.664,-0.405,0.51
21:04:20.668,-0.395,0.485
21:04:20.672,-0.365,0.5
21:04:20.676,-0.395,0.495
21:04:20.680,-0.4,0.525
21:04:20.684,-0.4,0.525
21:04:20.688,-0.385,0.51
21:04:20.692,-0.4,0.515
21:04:20.696,-0.395,0.5
21:04:20.700,-0.395,0.51
21:04:20.704,-0.385,0.53
21:04:20.708,-0.395,0.515
21:04:20.712,-0.39,0.525
21:04:20.716,-0.39,0.505
21:04:20.720,-0.41,0.525
21:04:20.724,-0.405,0.535
21:04:20.728,-0.385,0.535
21:04:20.732,-0.385,0.545
21:04:20.736,-0.375,0.55
21:04:20.740,-0.36,0.535
21:04:20.744,-0.325,0.545
21:04:20.748,-0.275,0.555
21:04:20.752,-0.24,0.56
21:04:20.756,-0.135,0.555
21:04:20.760,-0.055,0.57
21:04:20.764,0.02,0.56
21:04:20.768,0.045,0.525
21:04:20.772,0.08,0.475
21:04:20.776,0.1,0.455
21:04:20.780,0.135,0.45
21:04:20.784,0.115,0.41
21:04:20.788,0.145,0.345
21:04:20.792,0.325,0.22
21:04:20.796,0.625,0.05
21:04:20.800,0.89,-0.165
21:04:20.804,1.015,-0.345
21:04:20.808,0.84,-0.49
21:04:20.812,0.405,-0.485
21:04:20.816,-0.065,-0.19
21:04:20.820,-0.365,0.135
21:04:20.824,-0.475,0.39
21:04:20.828,-0.495,0.54
21:04:20.832,-0.495,0.64
21:04:20.836,-0.525,0.695
21:04:20.840,-0.53,0.745
21:04:20.844,-0.515,0.78
21:04:20.848,-0.525,0.79
21:04:20.852,-0.52,0.765
21:04:20.856,-0.515,0.76
21:04:20.860,-0.51,0.76
21:04:20.864,-0.51,0.75
21:04:20.868,-0.515,0.76
21:04:20.872,-0.525,0.755
21:04:20.876,-0.51,0.735
21:04:20.880,-0.505,0.745
21:04:20.884,-0.52,0.765
21:04:20.888,-0.54,0.77
21:04:20.892,-0.515,0.795
21:04:20.896,-0.525,0.81
21:04:20.900,-0.525,0.78
21:04:20.904,-0.54,0.78
21:04:20.908,-0.545,0.78
21:04:20.912,-0.555,0.795
21:04:20.916,-0.57,0.775
21:04:20.920,-0.575,0.805
21:04:20.924,-0.575,0.8
21:04:20.928,-0.575,0.805
21:04:20.932,-0.56,0.825
21:04:20.936,-0.555,0.81
21:04:20.940,-0.585,0.825
21:04:20.944,-0.575,0.825
21:04:20.948,-0.58,0.83
21:04:20.952,-0.575,0.845
21:04:20.956,-0.58,0.84
21:04:20.960,-0.59,0.845
21:04:20.964,-0.59,0.845
21:04:20.968,-0.565,0.86
21:04:20.972,-0.595,0.87
21:04:20.976,-0.56,0.865
21:04:20.980,-0.535,0.865
21:04:20.984,-0.525,0.88
21:04:20.988,-0.51,0.875
21:04:20.992,-0.53,0.885
21:04:20.996,-0.535,0.865
21:04:21.000,-0.505,0.875
21:04:21.004,-0.5,0.87
21:04:21.008,-0.505,0.875
21:04:21.012,-0.48,0.855
21:04:21.016,-0.49,0.9
21:04:21.020,-0.47,0.88
21:04:21.024,-0.455,0.865
21:04:21.028,-0.46,0.895
21:04:21.032,-0.455,0.865
21:04:21.036,-0.44,0.865
21:04:21.040,-0.42,0.86
21:04:21.044,-0.45,0.84
21:04:21.048,-0.42,0.84
21:04:21.052,-0.41,0.845
21:04:21.056,-0.41,0.835
21:04:21.060,-0.38,0.825
21:04:21.064,-0.375,0.855
21:04:21.068,-0.385,0.855
21:04:21.072,-0.38,0.86
21:04:21.076,-0.375,0.86
21:04:21.080,-0.345,0.865
21:04:21.084,-0.365,0.85
21:04:21.088,-0.34,0.875
21:04:21.092,-0.315,0.855
21:04:21.096,-0.305,0.885
21:04:21.100,-0.305,0.875
21:04:21.104,-0.3,0.88
21:04:21.108,-0.305,0.89
21:04:21.112,-0.3,0.905
21:04:21.116,-0.315,0.885
21:04:21.120,-0.3,0.895
21:04:21.124,-0.3,0.945
21:04:21.128,-0.31,0.945
21:04:21.132,-0.31,0.94
21:04:21.136,-0.3,0.935
21:04:21.140,-0.31,0.935
21:04:21.144,-0.32,0.955
21:04:21.148,-0.325,0.955
21:04:21.152,-0.31,0.955
21:04:21.156,-0.31,0.98
21:04:21.160,-0.32,0.955
21:04:21.164,-0.295,0.95
21:04:21.168,-0.295,0.935
21:04:21.172,-0.29,0.97
21:04:21.176,-0.28,0.965
21:04:21.180,-0.275,0.99
21:04:21.184,-0.255,1.0
21:04:21.188,-0.195,1.005
21:04:21.192,-0.155,1.03
21:04:21.196,-0.13,1.025
21:04:21.200,-0.1,1.035
21:04:21.204,-0.06,1.035
21:04:21.208,-0.03,1.035
21:04:21.212,-0.03,1.055
21:04:21.216,-0.045,1.06
21:04:21.220,-0.06,1.06
21:04:21.224,-0.115,1.02
21:04:21.228,-0.14,1.0
21:04:21.232,-0.225,1.0
21:04:21.236,-0.26,0.985
21:04:21.240,-0.33,1.0
21:04:21.244,-0.36,1.025
21:04:21.248,-0.42,1.05
21:04:21.252,-0.425,1.05
21:04:21.256,-0.415,1.065
21:04:21.260,-0.425,1.05
21:04:21.264,-0.43,1.035
21:04:21.268,-0.415,1.04
21:04:21.272,-0.42,1.035
21:04:21.276,-0.4,1.055
21:04:21.280,-0.405,1.035
21:04:21.284,-0.385,1.03
21:04:21.288,-0.39,1.03
21:04:21.292,-0.375,1.035
21:04:21.296,-0.35,1.035
21:04:21.300,-0.375,1.045
21:04:21.304,-0.38,1.035
21:04:21.308,-0.365,1.03
21:04:21.312,-0.38,1.05
21:04:21.316,-0.39,1.03
21:04:21.320,-0.39,1.02
21:04:21.324,-0.38,1.03
21:04:21.328,-0.38,1.025
21:04:21.332,-0.365,1.02
21:04:21.336,-0.365,1.02
21:04:21.340,-0.355,1.01
21:04:21.344,-0.37,1.0
21:04:21.348,-0.365,1.035
21:04:21.352,-0.365,1.025
21:04:21.356,-0.35,1.045
21:04:21.360,-0.32,1.02
21:04:21.364,-0.285,1.01
21:04:21.368,-0.195,1.02
21:04:21.372,-0.13,1.005
21:04:21.376,-0.04,0.975
21:04:21.380,0.015,0.975
21:04:21.384,0.035,0.955
21:04:21.388,0.07,0.9
21:04:21.392,0.08,0.88
21:04:21.396,0.11,0.855
21:04:21.400,0.075,0.8
21:04:21.404,0.16,0.715
21:04:21.408,0.335,0.585
21:04:21.412,0.63,0.42
21:04:21.416,0.9,0.19
21:04:21.420,0.985,-0.03
21:04:21.424,0.79,-0.19
21:04:21.428,0.335,-0.095
21:04:21.432,-0.135,0.205
21:04:21.436,-0.4,0.55
21:04:21.440,-0.505,0.77
21:04:21.444,-0.52,0.92
21:04:21.448,-0.51,1.015
21:04:21.452,-0.515,1.085
21:04:21.456,-0.505,1.1
21:04:21.460,-0.515,1.095
21:04:21.464,-0.54,1.09
21:04:21.468,-0.545,1.095
21:04:21.472,-0.55,1.07
21:04:21.476,-0.555,1.055
21:04:21.480,-0.55,1.06
21:04:21.484,-0.545,1.055
21:04:21.488,-0.565,1.03
21:04:21.492,-0.555,1.025
21:04:21.496,-0.565,1.025
21:04:21.500,-0.58,1.03
21:04:21.504,-0.57,1.025
21:04:21.508,-0.595,1.045
21:04:21.512,-0.57,1.01
21:04:21.516,-0.57,0.995
21:04:21.520,-0.58,1.0
21:04:21.524,-0.585,1.005
21:04:21.528,-0.61,1.005
21:04:21.532,-0.615,0.995
21:04:21.536,-0.61,0.99
21:04:21.540,-0.6,1.0
21:04:21.544,-0.61,0.985
21:04:21.548,-0.62,0.97
21:04:21.552,-0.6,0.99
21:04:21.556,-0.6,0.97
21:04:21.560,-0.585,0.97
21:04:21.564,-0.595,0.96
21:04:21.568,-0.6,0.94
21:04:21.572,-0.605,0.94
21:04:21.576,-0.6,0.96
21:04:21.580,-0.62,0.935
21:04:21.584,-0.61,0.95
21:04:21.588,-0.59,0.945
21:04:21.592,-0.605,0.945
21:04:21.596,-0.595,0.945
21:04:21.600,-0.59,0.93
21:04:21.604,-0.59,0.945
21:04:21.608,-0.56,0.935
21:04:21.612,-0.56,0.92
21:04:21.616,-0.575,0.925
21:04:21.620,-0.56,0.895
21:04:21.624,-0.57,0.91
21:04:21.628,-0.54,0.865
21:04:21.632,-0.55,0.87
21:04:21.636,-0.545,0.855
21:04:21.640,-0.53,0.86
21:04:21.644,-0.485,0.825
21:04:21.648,-0.495,0.82
21:04:21.652,-0.45,0.815
21:04:21.656,-0.475,0.805
21:04:21.660,-0.48,0.78
21:04:21.664,-0.465,0.765
21:04:21.668,-0.44,0.78
21:04:21.672,-0.425,0.77
21:04:21.676,-0.415,0.78
21:04:21.680,-0.39,0.775
21:04:21.684,-0.385,0.75
21:04:21.688,-0.37,0.76
21:04:21.692,-0.365,0.76
21:04:21.696,-0.35,0.75
21:04:21.700,-0.37,0.8
21:04:21.704,-0.375,0.835
21:04:21.708,-0.37,0.855
21:04:21.712,-0.37,0.85
21:04:21.716,-0.34,0.855
21:04:21.720,-0.345,0.85
21:04:21.724,-0.355,0.875
21:04:21.728,-0.34,0.89
21:04:21.732,-0.365,0.86
21:04:21.736,-0.36,0.84
21:04:21.740,-0.36,0.84
21:04:21.744,-0.35,0.82
21:04:21.748,-0.36,0.835
21:04:21.752,-0.365,0.825
21:04:21.756,-0.38,0.82
21:04:21.760,-0.39,0.815
21:04:21.764,-0.405,0.795
21:04:21.768,-0.395,0.775
21:04:21.772,-0.39,0.785
21:04:21.776,-0.385,0.78
21:04:21.780,-0.37,0.75
21:04:21.784,-0.34,0.735
21:04:21.788,-0.305,0.745
21:04:21.792,-0.32,0.74
21:04:21.796,-0.32,0.725
21:04:21.800,-0.305,0.695
21:04:21.804,-0.29,0.7
21:04:21.808,-0.26,0.68
21:04:21.812,-0.2,0.68
21:04:21.816,-0.14,0.71
21:04:21.820,-0.12,0.715
21:04:21.824,-0.08,0.705
21:04:21.828,-0.06,0.685
21:04:21.832,-0.06,0.68
21:04:21.836,-0.065,0.67
21:04:21.840,-0.1,0.68
21:04:21.844,-0.14,0.65
21:04:21.848,-0.19,0.605
21:04:21.852,-0.25,0.595
21:04:21.856,-0.285,0.585
21:04:21.860,-0.35,0.565
21:04:21.864,-0.41,0.545
21:04:21.868,-0.445,0.565
21:04:21.872,-0.46,0.56
21:04:21.876,-0.49,0.555
21:04:21.880,-0.515,0.54
21:04:21.884,-0.5,0.56
21:04:21.888,-0.51,0.535
21:04:21.892,-0.52,0.52
21:04:21.896,-0.5,0.52
21:04:21.900,-0.47,0.515
21:04:21.904,-0.45,0.5
21:04:21.908,-0.415,0.49
21:04:21.912,-0.43,0.485
21:04:21.916,-0.44,0.475
21:04:21.920,-0.45,0.46
21:04:21.924,-0.46,0.47
21:04:21.928,-0.46,0.455
21:04:21.932,-0.44,0.455
21:04:21.936,-0.445,0.46
21:04:21.940,-0.45,0.45
21:04:21.944,-0.455,0.46
21:04:21.948,-0.42,0.43
21:04:21.952,-0.4,0.43
21:04:21.956,-0.41,0.43
21:04:21.960,-0.415,0.42
21:04:21.964,-0.42,0.41
21:04:21.968,-0.445,0.42
21:04:21.972,-0.455,0.39
21:04:21.976,-0.45,0.37
21:04:21.980,-0.41,0.35
21:04:21.984,-0.365,0.375
21:04:21.988,-0.315,0.385
21:04:21.992,-0.225,0.405
21:04:21.996,-0.12,0.365
21:04:22.000,-0.02,0.35
21:04:22.004,0.06,0.28
21:04:22.008,0.125,0.25
21:04:22.012,0.18,0.2
21:04:22.016,0.245,0.2
21:04:22.020,0.24,0.175
21:04:22.024,0.255,0.125
21:04:22.028,0.32,0.015
21:04:22.032,0.54,-0.115
21:04:22.036,0.82,-0.31
21:04:22.040,1.05,-0.545
21:04:22.044,1.04,-0.74
21:04:22.048,0.735,-0.83
21:04:22.052,0.215,-0.68
21:04:22.056,-0.17,-0.375
21:04:22.060,-0.355,-0.135
21:04:22.064,-0.44,0.03
21:04:22.068,-0.45,0.125
21:04:22.072,-0.47,0.21
21:04:22.076,-0.51,0.29
21:04:22.080,-0.54,0.305
21:04:22.084,-0.59,0.33
21:04:22.088,-0.61,0.315
21:04:22.092,-0.585,0.31
21:04:22.096,-0.58,0.29
21:04:22.100,-0.56,0.25
21:04:22.104,-0.57,0.24
21:04:22.108,-0.6,0.245
21:04:22.112,-0.605,0.25
21:04:22.116,-0.61,0.25
21:04:22.120,-0.6,0.245
21:04:22.124,-0.6,0.23
21:04:22.128,-0.595,0.225
21:04:22.132,-0.61,0.215
21:04:22.136,-0.595,0.21
21:04:22.140,-0.575,0.22
21:04:22.144,-0.57,0.21
21:04:22.148,-0.59,0.22
21:04:22.152,-0.57,0.23
21:04:22.156,-0.565,0.235
21:04:22.160,-0.575,0.22
21:04:22.164,-0.595,0.24
21:04:22.168,-0.58,0.22
21:04:22.172,-0.6,0.195
21:04:22.176,-0.6,0.18
21:04:22.180,-0.6,0.19
21:04:22.184,-0.595,0.21
21:04:22.188,-0.61,0.21
21:04:22.192,-0.61,0.22
21:04:22.196,-0.64,0.22
21:04:22.200,-0.605,0.21
21:04:22.204,-0.6,0.22
21:04:22.208,-0.59,0.215
21:04:22.212,-0.61,0.225
21:04:22.216,-0.59,0.21
21:04:22.220,-0.585,0.21
21:04:22.224,-0.58,0.21
21:04:22.228,-0.58,0.215
21:04:22.232,-0.58,0.23
21:04:22.236,-0.565,0.225
21:04:22.240,-0.565,0.215
21:04:22.244,-0.56,0.21
21:04:22.248,-0.55,0.215
21:04:22.252,-0.52,0.225
21:04:22.256,-0.505,0.225
21:04:22.260,-0.475,0.22
21:04:22.264,-0.445,0.23
21:04:22.268,-0.435,0.21
21:04:22.272,-0.44,0.2
21:04:22.276,-0.43,0.19
21:04:22.280,-0.43,0.185
21:04:22.284,-0.385,0.195
21:04:22.288,-0.39,0.18
21:04:22.292,-0.37,0.18
21:04:22.296,-0.35,0.195
21:04:22.300,-0.36,0.185
21:04:22.304,-0.34,0.2
21:04:22.308,-0.35,0.19
21:04:22.312,-0.36,0.195
21:04:22.316,-0.335,0.21
21:04:22.320,-0.345,0.195
21:04:22.324,-0.34,0.195
21:04:22.328,-0.325,0.22
21:04:22.332,-0.325,0.24
21:04:22.336,-0.32,0.235
21:04:22.340,-0.31,0.255
21:04:22.344,-0.31,0.25
21:04:22.348,-0.32,0.245
21:04:22.352,-0.315,0.28
21:04:22.356,-0.33,0.295
21:04:22.360,-0.325,0.325
21:04:22.364,-0.335,0.34
21:04:22.368,-0.3,0.345
21:04:22.372,-0.295,0.37
21:04:22.376,-0.3,0.37
21:04:22.380,-0.28,0.375
21:04:22.384,-0.285,0.38
21:04:22.388,-0.285,0.395
21:04:22.392,-0.265,0.42
21:04:22.396,-0.26,0.415
21:04:22.400,-0.26,0.445
21:04:22.404,-0.25,0.465
21:04:22.408,-0.24,0.46
21:04:22.412,-0.25,0.465
21:04:22.416,-0.23,0.475
21:04:22.420,-0.21,0.48
21:04:22.424,-0.17,0.52
21:04:22.428,-0.155,0.535
21:04:22.432,-0.11,0.525
21:04:22.436,-0.05,0.565
21:04:22.440,-0.025,0.58
21:04:22.444,0.015,0.585
21:04:22.448,0.035,0.61
21:04:22.452,0.035,0.625
21:04:22.456,0.02,0.635
21:04:22.460,0.0,0.615
21:04:22.464,-0.06,0.59
21:04:22.468,-0.105,0.57
21:04:22.472,-0.16,0.56
21:04:22.476,-0.2,0.58
21:04:22.480,-0.26,0.58
21:04:22.484,-0.32,0.615
21:04:22.488,-0.33,0.655
21:04:22.492,-0.33,0.66
21:04:22.496,-0.355,0.67
21:04:22.500,-0.35,0.67
21:04:22.504,-0.33,0.68
21:04:22.508,-0.315,0.675
21:04:22.512,-0.31,0.67
21:04:22.516,-0.315,0.67
21:04:22.520,-0.32,0.715
21:04:22.524,-0.31,0.705
21:04:22.528,-0.285,0.7
21:04:22.532,-0.29,0.695
21:04:22.536,-0.3,0.71
21:04:22.540,-0.31,0.71
21:04:22.544,-0.3,0.725
21:04:22.548,-0.29,0.73
21:04:22.552,-0.3,0.725
21:04:22.556,-0.285,0.73
21:04:22.560,-0.3,0.745
21:04:22.564,-0.29,0.75
21:04:22.568,-0.275,0.745
21:04:22.572,-0.29,0.75
21:04:22.576,-0.295,0.74
21:04:22.580,-0.29,0.745
21:04:22.584,-0.29,0.75
21:04:22.588,-0.275,0.755
21:04:22.592,-0.27,0.755
21:04:22.596,-0.25,0.74
21:04:22.600,-0.21,0.76
21:04:22.604,-0.175,0.735
21:04:22.608,-0.075,0.745
21:04:22.612,0.01,0.78
21:04:22.616,0.1,0.775
21:04:22.620,0.2,0.77
21:04:22.624,0.265,0.72
21:04:22.628,0.32,0.66
21:04:22.632,0.37,0.65
21:04:22.636,0.38,0.675
21:04:22.640,0.355,0.645
21:04:22.644,0.42,0.55
21:04:22.648,0.615,0.43
21:04:22.652,0.88,0.215
21:04:22.656,1.14,-0.015
21:04:22.660,1.21,-0.22
21:04:22.664,0.98,-0.365
21:04:22.668,0.495,-0.275
21:04:22.672,0.02,0.02
21:04:22.676,-0.24,0.345
21:04:22.680,-0.32,0.565
21:04:22.684,-0.34,0.745
21:04:22.688,-0.345,0.855
21:04:22.692,-0.36,0.91
21:04:22.696,-0.375,0.94
21:04:22.700,-0.38,0.97
21:04:22.704,-0.41,1.015
21:04:22.708,-0.385,0.99
21:04:22.712,-0.38,0.99
21:04:22.716,-0.38,0.965
21:04:22.720,-0.37,0.975
21:04:22.724,-0.385,0.96
21:04:22.728,-0.38,0.95
21:04:22.732,-0.39,0.965
21:04:22.736,-0.385,0.975
21:04:22.740,-0.385,0.985
21:04:22.744,-0.39,0.98
21:04:22.748,-0.395,0.98
21:04:22.752,-0.4,0.975
21:04:22.756,-0.4,0.985
21:04:22.760,-0.375,0.975
21:04:22.764,-0.42,0.98
21:04:22.768,-0.43,1.01
21:04:22.772,-0.41,0.985
21:04:22.776,-0.43,0.975
21:04:22.780,-0.41,0.97
21:04:22.784,-0.42,0.98
21:04:22.788,-0.44,0.995
21:04:22.792,-0.425,0.99
21:04:22.796,-0.44,0.995
21:04:22.800,-0.455,1.0
21:04:22.804,-0.465,1.0
21:04:22.808,-0.46,1.0
21:04:22.812,-0.45,1.015
21:04:22.816,-0.45,1.02
21:04:22.820,-0.46,1.04
21:04:22.824,-0.435,0.995
21:04:22.828,-0.42,1.025
21:04:22.832,-0.43,1.025
21:04:22.836,-0.4,1.04
21:04:22.840,-0.41,1.03
21:04:22.844,-0.4,1.02
21:04:22.848,-0.375,1.025
21:04:22.852,-0.37,1.04
21:04:22.856,-0.39,1.04
21:04:22.860,-0.37,1.04
21:04:22.864,-0.345,1.035
21:04:22.868,-0.36,1.03
21:04:22.872,-0.345,1.015
21:04:22.876,-0.32,1.02
21:04:22.880,-0.3,0.99
21:04:22.884,-0.33,0.995
21:04:22.888,-0.305,1.0
21:04:22.892,-0.29,0.97
21:04:22.896,-0.3,0.98
21:04:22.900,-0.275,0.975
21:04:22.904,-0.25,0.96
21:04:22.908,-0.24,0.96
21:04:22.912,-0.24,0.955
21:04:22.916,-0.24,0.96
21:04:22.920,-0.24,0.975
21:04:22.924,-0.23,0.98
21:04:22.928,-0.21,0.965
21:04:22.932,-0.195,0.95
21:04:22.936,-0.19,0.96
21:04:22.940,-0.18,0.98
21:04:22.944,-0.15,0.985
21:04:22.948,-0.17,0.965
21:04:22.952,-0.155,0.975
21:04:22.956,-0.16,0.97
21:04:22.960,-0.16,0.975
21:04:22.964,-0.145,1.0
21:04:22.968,-0.135,0.975
21:04:22.972,-0.155,0.975
21:04:22.976,-0.15,1.0
21:04:22.980,-0.175,0.99
21:04:22.984,-0.155,0.995
21:04:22.988,-0.16,1.01
21:04:22.992,-0.17,1.03
21:04:22.996,-0.185,1.01
21:04:23.000,-0.2,1.0
21:04:23.004,-0.205,1.025
21:04:23.008,-0.19,1.015
21:04:23.012,-0.195,1.005
21:04:23.016,-0.195,1.005
21:04:23.020,-0.155,1.01
21:04:23.024,-0.15,1.025
21:04:23.028,-0.155,0.995
21:04:23.032,-0.155,1.03
21:04:23.036,-0.135,1.015
21:04:23.040,-0.1,1.03
21:04:23.044,-0.08,1.02
21:04:23.048,-0.03,1.04
21:04:23.052,0.005,1.07
21:04:23.056,0.04,1.075
21:04:23.060,0.045,1.07
21:04:23.064,0.065,1.085
21:04:23.068,0.1,1.1
21:04:23.072,0.1,1.11
21:04:23.076,0.09,1.085
21:04:23.080,0.055,1.06
21:04:23.084,0.02,1.025
21:04:23.088,-0.04,1.025
21:04:23.092,-0.075,1.005
21:04:23.096,-0.14,1.015
21:04:23.100,-0.205,1.035
21:04:23.104,-0.24,1.04
21:04:23.108,-0.285,1.05
21:04:23.112,-0.32,1.055
21:04:23.116,-0.31,1.08
21:04:23.120,-0.29,1.055
21:04:23.124,-0.3,1.07
21:04:23.128,-0.295,1.05
21:04:23.132,-0.3,1.06
21:04:23.136,-0.28,1.065
21:04:23.140,-0.27,1.055
21:04:23.144,-0.29,1.04
21:04:23.148,-0.27,1.03
21:04:23.152,-0.27,1.06
21:04:23.156,-0.275,1.05
21:04:23.160,-0.235,1.045
21:04:23.164,-0.255,1.025
21:04:23.168,-0.245,1.03
21:04:23.172,-0.235,1.04
21:04:23.176,-0.23,1.025
21:04:23.180,-0.24,1.04
21:04:23.184,-0.225,1.04
21:04:23.188,-0.235,1.035
21:04:23.192,-0.24,1.035
21:04:23.196,-0.225,1.05
21:04:23.200,-0.245,1.02
21:04:23.204,-0.23,1.05
21:04:23.208,-0.225,1.035
21:04:23.212,-0.215,1.045
21:04:23.216,-0.205,1.06
21:04:23.220,-0.185,1.055
21:04:23.224,-0.145,1.025
21:04:23.228,-0.055,1.055
21:04:23.232,0.025,1.045
21:04:23.236,0.11,1.015
21:04:23.240,0.165,1.0
21:04:23.244,0.21,0.935
21:04:23.248,0.265,0.91
21:04:23.252,0.28,0.885
21:04:23.256,0.26,0.875
21:04:23.260,0.28,0.815
21:04:23.264,0.35,0.71
21:04:23.268,0.6,0.565
21:04:23.272,0.92,0.34
21:04:23.276,1.155,0.1
21:04:23.280,1.155,-0.115
21:04:23.284,0.855,-0.155
21:04:23.288,0.34,0.015
21:04:23.292,-0.045,0.4
21:04:23.296,-0.245,0.71
21:04:23.300,-0.305,0.905
21:04:23.304,-0.335,1.035
21:04:23.308,-0.33,1.125
21:04:23.312,-0.345,1.175
21:04:23.316,-0.34,1.205
21:04:23.320,-0.34,1.21
21:04:23.324,-0.35,1.205
21:04:23.328,-0.36,1.2
21:04:23.332,-0.375,1.18
21:04:23.336,-0.38,1.165
21:04:23.340,-0.38,1.17
21:04:23.344,-0.375,1.19
21:04:23.348,-0.37,1.17
21:04:23.352,-0.39,1.165
21:04:23.356,-0.365,1.16
21:04:23.360,-0.385,1.16
21:04:23.364,-0.375,1.165
21:04:23.368,-0.375,1.175
21:04:23.372,-0.39,1.18
21:04:23.376,-0.38,1.155
21:04:23.380,-0.385,1.165
21:04:23.384,-0.4,1.165
21:04:23.388,-0.375,1.165
21:04:23.392,-0.365,1.155
21:04:23.396,-0.35,1.165
21:04:23.400,-0.39,1.165
21:04:23.404,-0.36,1.18
21:04:23.408,-0.38,1.18
21:04:23.412,-0.38,1.16
21:04:23.416,-0.385,1.165
21:04:23.420,-0.365,1.165
21:04:23.424,-0.39,1.18
21:04:23.428,-0.37,1.17
21:04:23.432,-0.385,1.17
21:04:23.436,-0.4,1.165
21:04:23.440,-0.385,1.2
21:04:23.444,-0.415,1.185
21:04:23.448,-0.41,1.16
21:04:23.452,-0.395,1.17
21:04:23.456,-0.39,1.17
21:04:23.460,-0.395,1.16
21:04:23.464,-0.385,1.16
21:04:23.468,-0.37,1.16
21:04:23.472,-0.375,1.165
21:04:23.476,-0.35,1.15
21:04:23.480,-0.34,1.145
21:04:23.484,-0.33,1.1
21:04:23.488,-0.34,1.01
21:04:23.492,-0.33,0.95
21:04:23.496,-0.31,0.935
21:04:23.500,-0.31,0.94
21:04:23.504,-0.27,0.935
21:04:23.508,-0.255,0.92
21:04:23.512,-0.235,0.915
21:04:23.516,-0.23,0.895
21:04:23.520,-0.21,0.875
21:04:23.524,-0.2,0.895
21:04:23.528,-0.195,0.91
21:04:23.532,-0.195,0.89
21:04:23.536,-0.185,0.92
21:04:23.540,-0.165,0.89
21:04:23.544,-0.175,0.885
21:04:23.548,-0.18,0.88
21:04:23.552,-0.17,0.88
21:04:23.556,-0.17,0.88
21:04:23.560,-0.18,0.88
21:04:23.564,-0.165,0.875
21:04:23.568,-0.16,0.885
21:04:23.572,-0.15,0.89
21:04:23.576,-0.16,0.875
21:04:23.580,-0.16,0.875
21:04:23.584,-0.165,0.875
21:04:23.588,-0.15,0.895
21:04:23.592,-0.145,0.885
21:04:23.596,-0.14,0.885
21:04:23.600,-0.14,0.88
21:04:23.604,-0.155,0.885
21:04:23.608,-0.15,0.89
21:04:23.612,-0.17,0.875
21:04:23.616,-0.155,0.895
21:04:23.620,-0.135,0.905
21:04:23.624,-0.13,0.91
21:04:23.628,-0.13,0.9
21:04:23.632,-0.15,0.91
21:04:23.636,-0.14,0.895
21:04:23.640,-0.14,0.935
21:04:23.644,-0.115,0.94
21:04:23.648,-0.1,0.92
21:04:23.652,-0.105,0.925
21:04:23.656,-0.12,0.925
21:04:23.660,-0.1,0.93
21:04:23.664,-0.08,0.935
21:04:23.668,-0.055,0.945
21:04:23.672,-0.005,0.95
21:04:23.676,0.035,0.975
21:04:23.680,0.05,0.965
21:04:23.684,0.075,0.96
21:04:23.688,0.11,0.955
21:04:23.692,0.12,0.95
21:04:23.696,0.12,0.935
21:04:23.700,0.09,0.95
21:04:23.704,0.06,0.94
21:04:23.708,0.015,0.89
21:04:23.712,-0.025,0.885
21:04:23.716,-0.09,0.875
21:04:23.720,-0.15,0.895
21:04:23.724,-0.21,0.865
21:04:23.728,-0.25,0.88
21:04:23.732,-0.26,0.895
21:04:23.736,-0.27,0.9
21:04:23.740,-0.285,0.865
21:04:23.744,-0.28,0.895
21:04:23.748,-0.29,0.875
21:04:23.752,-0.28,0.87
21:04:23.756,-0.28,0.865
21:04:23.760,-0.285,0.88
21:04:23.764,-0.275,0.865
21:04:23.768,-0.29,0.85
21:04:23.772,-0.285,0.87
21:04:23.776,-0.31,0.86
21:04:23.780,-0.3,0.86
21:04:23.784,-0.295,0.845
21:04:23.788,-0.29,0.83
21:04:23.792,-0.305,0.835
21:04:23.796,-0.285,0.82
21:04:23.800,-0.305,0.81
21:04:23.804,-0.295,0.81
21:04:23.808,-0.285,0.795
21:04:23.812,-0.3,0.795
21:04:23.816,-0.275,0.805
21:04:23.820,-0.295,0.785
21:04:23.824,-0.285,0.78
21:04:23.828,-0.3,0.795
21:04:23.832,-0.295,0.805
21:04:23.836,-0.285,0.775
21:04:23.840,-0.27,0.77
21:04:23.844,-0.24,0.79
21:04:23.848,-0.16,0.78
21:04:23.852,-0.1,0.76
21:04:23.856,0.015,0.75
21:04:23.860,0.095,0.74
21:04:23.864,0.135,0.72
21:04:23.868,0.17,0.655
21:04:23.872,0.205,0.62
21:04:23.876,0.2,0.645
21:04:23.880,0.18,0.62
21:04:23.884,0.205,0.525
21:04:23.888,0.355,0.41
21:04:23.892,0.61,0.235
21:04:23.896,0.91,-0.01
21:04:23.900,1.075,-0.275
21:04:23.904,0.95,-0.455
21:04:23.908,0.505,-0.43
21:04:23.912,0.025,-0.21
21:04:23.916,-0.28,0.155
21:04:23.920,-0.4,0.425
21:04:23.924,-0.445,0.585
21:04:23.928,-0.43,0.695
21:04:23.932,-0.435,0.765
21:04:23.936,-0.46,0.765
21:04:23.940,-0.495,0.78
21:04:23.944,-0.515,0.775
21:04:23.948,-0.505,0.74
21:04:23.952,-0.505,0.735
21:04:23.956,-0.495,0.72
21:04:23.960,-0.51,0.73
21:04:23.964,-0.53,0.715
21:04:23.968,-0.515,0.69
21:04:23.972,-0.525,0.715
21:04:23.976,-0.52,0.725
21:04:23.980,-0.52,0.705
21:04:23.984,-0.51,0.695
21:04:23.988,-0.515,0.675
21:04:23.992,-0.51,0.695
21:04:23.996,-0.51,0.65
21:04:24.000,-0.525,0.655
21:04:24.004,-0.535,0.645
21:04:24.008,-0.525,0.615
21:04:24.012,-0.545,0.64
21:04:24.016,-0.55,0.62
21:04:24.020,-0.56,0.625
21:04:24.024,-0.555,0.61
21:04:24.028,-0.56,0.63
21:04:24.032,-0.545,0.585
21:04:24.036,-0.525,0.585
21:04:24.040,-0.55,0.58
21:04:24.044,-0.555,0.57
21:04:24.048,-0.55,0.58
21:04:24.052,-0.575,0.58
21:04:24.056,-0.575,0.58
21:04:24.060,-0.565,0.57
21:04:24.064,-0.54,0.565
21:04:24.068,-0.535,0.55
21:04:24.072,-0.53,0.565
21:04:24.076,-0.54,0.56
21:04:24.080,-0.525,0.555
21:04:24.084,-0.525,0.545
21:04:24.088,-0.51,0.535
21:04:24.092,-0.49,0.545
21:04:24.096,-0.48,0.555
21:04:24.100,-0.5,0.615
21:04:24.104,-0.48,0.67
21:04:24.108,-0.46,0.67
21:04:24.112,-0.44,0.66
21:04:24.116,-0.445,0.64
21:04:24.120,-0.455,0.64
21:04:24.124,-0.44,0.61
21:04:24.128,-0.43,0.635
21:04:24.132,-0.405,0.59
21:04:24.136,-0.405,0.57
21:04:24.140,-0.375,0.57
21:04:24.144,-0.375,0.545
21:04:24.148,-0.375,0.525
21:04:24.152,-0.365,0.515
21:04:24.156,-0.36,0.5
21:04:24.160,-0.355,0.485
21:04:24.164,-0.365,0.48
21:04:24.168,-0.345,0.465
21:04:24.172,-0.345,0.44
21:04:24.176,-0.305,0.47
21:04:24.180,-0.26,0.435
21:04:24.184,-0.285,0.43
21:04:24.188,-0.29,0.435
21:04:24.192,-0.3,0.41
21:04:24.196,-0.295,0.41
21:04:24.200,-0.285,0.41
21:04:24.204,-0.27,0.38
21:04:24.208,-0.29,0.38
21:04:24.212,-0.285,0.375
21:04:24.216,-0.285,0.375
21:04:24.220,-0.295,0.345
21:04:24.224,-0.295,0.35
21:04:24.228,-0.28,0.345
21:04:24.232,-0.28,0.33
21:04:24.236,-0.28,0.34
21:04:24.240,-0.305,0.315
21:04:24.244,-0.3,0.295
21:04:24.248,-0.31,0.3
21:04:24.252,-0.3,0.29
21:04:24.256,-0.315,0.265
21:04:24.260,-0.28,0.26
21:04:24.264,-0.28,0.28
21:04:24.268,-0.26,0.265
21:04:24.272,-0.24,0.26
21:04:24.276,-0.24,0.24
21:04:24.280,-0.225,0.245
21:04:24.284,-0.205,0.24
21:04:24.288,-0.175,0.245
21:04:24.292,-0.12,0.24
21:04:24.296,-0.065,0.245
21:04:24.300,-0.05,0.24
21:04:24.304,0.0,0.24
21:04:24.308,0.005,0.23
21:04:24.312,0.045,0.255
21:04:24.316,0.035,0.23
21:04:24.320,-0.005,0.215
21:04:24.324,-0.055,0.19
21:04:24.328,-0.105,0.165
21:04:24.332,-0.17,0.13
21:04:24.336,-0.23,0.105
21:04:24.340,-0.295,0.1
21:04:24.344,-0.325,0.1
21:04:24.348,-0.38,0.1
21:04:24.352,-0.38,0.08
21:04:24.356,-0.42,0.085
21:04:24.360,-0.415,0.07
21:04:24.364,-0.395,0.06
21:04:24.368,-0.38,0.05
21:04:24.372,-0.385,0.035
21:04:24.376,-0.385,0.015
21:04:24.380,-0.385,0.01
21:04:24.384,-0.37,0.0
21:04:24.388,-0.4,-0.01
21:04:24.392,-0.41,-0.02
21:04:24.396,-0.37,-0.005
21:04:24.400,-0.37,0.0
21:04:24.404,-0.375,-0.04
21:04:24.408,-0.38,-0.035
21:04:24.412,-0.36,-0.055
21:04:24.416,-0.355,-0.07
21:04:24.420,-0.355,-0.07
21:04:24.424,-0.33,-0.095
21:04:24.428,-0.32,-0.095
21:04:24.432,-0.315,-0.11
21:04:24.436,-0.315,-0.08
21:04:24.440,-0.345,-0.11
21:04:24.444,-0.335,-0.11
21:04:24.448,-0.335,-0.125
21:04:24.452,-0.325,-0.11
21:04:24.456,-0.3,-0.1
21:04:24.460,-0.275,-0.115
21:04:24.464,-0.235,-0.12
21:04:24.468,-0.15,-0.125
21:04:24.472,-0.075,-0.16
21:04:24.476,0.02,-0.195
21:04:24.480,0.105,-0.21
21:04:24.484,0.165,-0.24
21:04:24.488,0.23,-0.285
21:04:24.492,0.29,-0.31
21:04:24.496,0.31,-0.315
21:04:24.500,0.32,-0.345
21:04:24.504,0.34,-0.44
21:04:24.508,0.505,-0.565
21:04:24.512,0.795,-0.785
21:04:24.516,1.05,-1.015
21:04:24.520,1.125,-1.255
21:04:24.524,0.925,-1.365
21:04:24.528,0.435,-1.32
21:04:24.532,0.005,-0.995
21:04:24.536,-0.225,-0.7
21:04:24.540,-0.315,-0.5
21:04:24.544,-0.35,-0.38
21:04:24.548,-0.36,-0.26
21:04:24.552,-0.395,-0.19
21:04:24.556,-0.445,-0.165
21:04:24.560,-0.46,-0.14
21:04:24.564,-0.47,-0.14
21:04:24.568,-0.48,-0.16
21:04:24.572,-0.48,-0.18
21:04:24.576,-0.485,-0.195
21:04:24.580,-0.495,-0.215
21:04:24.584,-0.5,-0.205
21:04:24.588,-0.515,-0.21
21:04:24.592,-0.51,-0.21
21:04:24.596,-0.52,-0.22
21:04:24.600,-0.51,-0.225
21:04:24.604,-0.515,-0.245
21:04:24.608,-0.515,-0.25
21:04:24.612,-0.535,-0.26
21:04:24.616,-0.52,-0.245
21:04:24.620,-0.53,-0.235
21:04:24.624,-0.505,-0.25
21:04:24.628,-0.53,-0.245
21:04:24.632,-0.535,-0.225
21:04:24.636,-0.525,-0.24
21:04:24.640,-0.52,-0.245
21:04:24.644,-0.505,-0.245
21:04:24.648,-0.52,-0.26
21:04:24.652,-0.52,-0.26
21:04:24.656,-0.54,-0.255
21:04:24.660,-0.525,-0.26
21:04:24.664,-0.535,-0.25
21:04:24.668,-0.51,-0.255
21:04:24.672,-0.545,-0.225
21:04:24.676,-0.545,-0.225
21:04:24.680,-0.55,-0.195
21:04:24.684,-0.545,-0.2
21:04:24.688,-0.535,-0.185
21:04:24.692,-0.53,-0.165
21:04:24.696,-0.53,-0.17
21:04:24.700,-0.52,-0.18
21:04:24.704,-0.52,-0.165
21:04:24.708,-0.515,-0.155
21:04:24.712,-0.525,-0.14
21:04:24.716,-0.51,-0.175
21:04:24.720,-0.48,-0.16
21:04:24.724,-0.495,-0.155
21:04:24.728,-0.465,-0.135
21:04:24.732,-0.47,-0.155
21:04:24.736,-0.465,-0.16
21:04:24.740,-0.44,-0.13
21:04:24.744,-0.42,-0.17
21:04:24.748,-0.41,-0.17
21:04:24.752,-0.39,-0.155
21:04:24.756,-0.4,-0.145
21:04:24.760,-0.35,-0.135
21:04:24.764,-0.35,-0.14
21:04:24.768,-0.32,-0.15
21:04:24.772,-0.33,-0.14
21:04:24.776,-0.325,-0.11
21:04:24.780,-0.33,-0.115
21:04:24.784,-0.315,-0.09
21:04:24.788,-0.275,-0.065
21:04:24.792,-0.29,-0.035
21:04:24.796,-0.285,0.01
21:04:24.800,-0.29,0.005
21:04:24.804,-0.275,0.015
21:04:24.808,-0.265,0.03
21:04:24.812,-0.285,0.05
21:04:24.816,-0.255,0.035
21:04:24.820,-0.28,0.065
21:04:24.824,-0.28,0.07
21:04:24.828,-0.27,0.08
21:04:24.832,-0.28,0.07
21:04:24.836,-0.275,0.1
21:04:24.840,-0.265,0.085
21:04:24.844,-0.285,0.1
21:04:24.848,-0.255,0.11
21:04:24.852,-0.28,0.12
21:04:24.856,-0.245,0.135
21:04:24.860,-0.26,0.15
21:04:24.864,-0.265,0.145
21:04:24.868,-0.26,0.145
21:04:24.872,-0.25,0.165
21:04:24.876,-0.26,0.18
21:04:24.880,-0.235,0.18
21:04:24.884,-0.215,0.185
21:04:24.888,-0.205,0.215
21:04:24.892,-0.185,0.185
21:04:24.896,-0.19,0.195
21:04:24.900,-0.19,0.205
21:04:24.904,-0.155,0.225
21:04:24.908,-0.125,0.24
21:04:24.912,-0.075,0.245
21:04:24.916,-0.04,0.27
21:04:24.920,-0.005,0.305
21:04:24.924,0.01,0.29
21:04:24.928,0.04,0.305
21:04:24.932,0.065,0.33
21:04:24.936,0.06,0.305
21:04:24.940,0.05,0.345
21:04:24.944,0.0,0.3
21:04:24.948,-0.02,0.28
21:04:24.952,-0.095,0.245
21:04:24.956,-0.14,0.275
21:04:24.960,-0.205,0.28
21:04:24.964,-0.25,0.29
21:04:24.968,-0.3,0.3
21:04:24.972,-0.32,0.31
21:04:24.976,-0.335,0.32
21:04:24.980,-0.32,0.325
21:04:24.984,-0.305,0.33
21:04:24.988,-0.315,0.33
21:04:24.992,-0.305,0.33
21:04:24.996,-0.285,0.315
21:04:25.000,-0.3,0.305
21:04:25.004,-0.275,0.32
21:04:25.008,-0.27,0.315
21:04:25.012,-0.27,0.335
21:04:25.016,-0.265,0.355
21:04:25.020,-0.255,0.345
21:04:25.024,-0.26,0.315
21:04:25.028,-0.275,0.35
21:04:25.032,-0.275,0.345
21:04:25.036,-0.28,0.37
21:04:25.040,-0.28,0.375
21:04:25.044,-0.275,0.375
21:04:25.048,-0.27,0.38
21:04:25.052,-0.27,0.35
21:04:25.056,-0.25,0.375
21:04:25.060,-0.265,0.375
21:04:25.064,-0.265,0.37
21:04:25.068,-0.24,0.365
21:04:25.072,-0.24,0.36
21:04:25.076,-0.225,0.375
21:04:25.080,-0.215,0.395
21:04:25.084,-0.165,0.37
21:04:25.088,-0.11,0.39
21:04:25.092,-0.01,0.385
21:04:25.096,0.09,0.38
21:04:25.100,0.175,0.36
21:04:25.104,0.235,0.34
21:04:25.108,0.295,0.285
21:04:25.112,0.36,0.25
21:04:25.116,0.38,0.275
21:04:25.120,0.365,0.215
21:04:25.124,0.375,0.17
21:04:25.128,0.515,0.045
21:04:25.132,0.765,-0.155
21:04:25.136,1.07,-0.355
21:04:25.140,1.245,-0.58
21:04:25.144,1.195,-0.75
21:04:25.148,0.765,-0.755
21:04:25.152,0.27,-0.495
21:04:25.156,-0.11,-0.15
21:04:25.160,-0.27,0.11
21:04:25.164,-0.32,0.285
21:04:25.168,-0.32,0.4
21:04:25.172,-0.32,0.475
21:04:25.176,-0.34,0.53
21:04:25.180,-0.36,0.56
21:04:25.184,-0.36,0.575
21:04:25.188,-0.37,0.56
21:04:25.192,-0.365,0.55
21:04:25.196,-0.365,0.55
21:04:25.200,-0.37,0.535
21:04:25.204,-0.38,0.54
21:04:25.208,-0.375,0.545
21:04:25.212,-0.36,0.55
21:04:25.216,-0.345,0.57
21:04:25.220,-0.37,0.55
21:04:25.224,-0.36,0.56
21:04:25.228,-0.37,0.55
21:04:25.232,-0.395,0.57
21:04:25.236,-0.39,0.565
21:04:25.240,-0.365,0.56
21:04:25.244,-0.365,0.56
21:04:25.248,-0.36,0.56
21:04:25.252,-0.375,0.57
21:04:25.256,-0.38,0.56
21:04:25.260,-0.405,0.555
21:04:25.264,-0.405,0.575
21:04:25.268,-0.415,0.58
21:04:25.272,-0.44,0.585
21:04:25.276,-0.425,0.58
21:04:25.280,-0.425,0.585
21:04:25.284,-0.42,0.575
21:04:25.288,-0.415,0.595
21:04:25.292,-0.42,0.575
21:04:25.296,-0.41,0.575
21:04:25.300,-0.415,0.585
21:04:25.304,-0.405,0.59
21:04:25.308,-0.425,0.6
21:04:25.312,-0.425,0.59
21:04:25.316,-0.405,0.585
21:04:25.320,-0.41,0.595
21:04:25.324,-0.39,0.59
21:04:25.328,-0.355,0.615
21:04:25.332,-0.345,0.62
21:04:25.336,-0.32,0.615
21:04:25.340,-0.32,0.605
21:04:25.344,-0.3,0.605
21:04:25.348,-0.32,0.615
21:04:25.352,-0.305,0.595
21:04:25.356,-0.28,0.61
21:04:25.360,-0.28,0.585
21:04:25.364,-0.29,0.57
21:04:25.368,-0.27,0.55
21:04:25.372,-0.27,0.565
21:04:25.376,-0.27,0.545
21:04:25.380,-0.25,0.535
21:04:25.384,-0.245,0.535
21:04:25.388,-0.235,0.555
21:04:25.392,-0.225,0.52
21:04:25.396,-0.205,0.52
21:04:25.400,-0.2,0.515
21:04:25.404,-0.195,0.495
21:04:25.408,-0.205,0.5
21:04:25.412,-0.18,0.515
21:04:25.416,-0.2,0.49
21:04:25.420,-0.16,0.485
21:04:25.424,-0.17,0.505
21:04:25.428,-0.155,0.52
21:04:25.432,-0.15,0.505
21:04:25.436,-0.14,0.51
21:04:25.440,-0.135,0.5
21:04:25.444,-0.13,0.51
21:04:25.448,-0.125,0.5
21:04:25.452,-0.14,0.495
21:04:25.456,-0.115,0.525
21:04:25.460,-0.115,0.515
21:04:25.464,-0.105,0.525
21:04:25.468,-0.115,0.505
21:04:25.472,-0.11,0.51
21:04:25.476,-0.115,0.505
21:04:25.480,-0.12,0.515
21:04:25.484,-0.105,0.5
21:04:25.488,-0.1,0.515
21:04:25.492,-0.085,0.525
21:04:25.496,-0.09,0.535
21:04:25.500,-0.07,0.53
21:04:25.504,-0.05,0.52
21:04:25.508,-0.005,0.53
21:04:25.512,0.025,0.555
21:04:25.516,0.055,0.565
21:04:25.520,0.06,0.575
21:04:25.524,0.08,0.565
21:04:25.528,0.11,0.585
21:04:25.532,0.115,0.595
21:04:25.536,0.13,0.59
21:04:25.540,0.08,0.595
21:04:25.544,0.065,0.56
21:04:25.548,0.035,0.525
21:04:25.552,-0.005,0.525
21:04:25.556,-0.065,0.51
21:04:25.560,-0.11,0.515
21:04:25.564,-0.15,0.535
21:04:25.568,-0.21,0.53
21:04:25.572,-0.24,0.555
21:04:25.576,-0.265,0.565
21:04:25.580,-0.27,0.565
21:04:25.584,-0.265,0.555
21:04:25.588,-0.26,0.55
21:04:25.592,-0.25,0.54
21:04:25.596,-0.26,0.54
21:04:25.600,-0.245,0.545
21:04:25.604,-0.245,0.535
21:04:25.608,-0.265,0.525
21:04:25.612,-0.25,0.535
21:04:25.616,-0.26,0.535
21:04:25.620,-0.27,0.51
21:04:25.624,-0.25,0.525
21:04:25.628,-0.25,0.52
21:04:25.632,-0.26,0.515
21:04:25.636,-0.255,0.515
21:04:25.640,-0.26,0.51
21:04:25.644,-0.25,0.51
21:04:25.648,-0.25,0.5
21:04:25.652,-0.235,0.505
21:04:25.656,-0.24,0.495
21:04:25.660,-0.22,0.515
21:04:25.664,-0.225,0.495
21:04:25.668,-0.215,0.495
21:04:25.672,-0.225,0.495
21:04:25.676,-0.205,0.51
21:04:25.680,-0.195,0.525
21:04:25.684,-0.185,0.505
21:04:25.688,-0.115,0.5
21:04:25.692,-0.06,0.495
21:04:25.696,0.01,0.51
21:04:25.700,0.1,0.5
21:04:25.704,0.16,0.465
21:04:25.708,0.19,0.41
21:04:25.712,0.225,0.37
21:04:25.716,0.24,0.37
21:04:25.720,0.23,0.34
21:04:25.724,0.22,0.295
21:04:25.728,0.3,0.19
21:04:25.732,0.5,0.065
21:04:25.736,0.795,-0.16
21:04:25.740,1.04,-0.4
21:04:25.744,1.105,-0.61
21:04:25.748,0.895,-0.715
21:04:25.752,0.415,-0.585
21:04:25.756,-0.03,-0.235
21:04:25.760,-0.275,0.085
21:04:25.764,-0.355,0.33
21:04:25.768,-0.36,0.455
21:04:25.772,-0.35,0.565
21:04:25.776,-0.34,0.605
21:04:25.780,-0.36,0.655
21:04:25.784,-0.365,0.65
21:04:25.788,-0.37,0.665
21:04:25.792,-0.36,0.66
21:04:25.796,-0.385,0.66
21:04:25.800,-0.37,0.62
21:04:25.804,-0.38,0.625
21:04:25.808,-0.375,0.625
21:04:25.812,-0.38,0.635
21:04:25.816,-0.4,0.635
21:04:25.820,-0.395,0.645
21:04:25.824,-0.4,0.61
21:04:25.828,-0.405,0.64
21:04:25.832,-0.42,0.635
21:04:25.836,-0.42,0.62
21:04:25.840,-0.425,0.61
21:04:25.844,-0.42,0.605
21:04:25.848,-0.43,0.585
21:04:25.852,-0.435,0.59
21:04:25.856,-0.435,0.57
21:04:25.860,-0.435,0.525
21:04:25.864,-0.425,0.44
21:04:25.868,-0.445,0.37
21:04:25.872,-0.445,0.385
21:04:25.876,-0.455,0.37
21:04:25.880,-0.445,0.375
21:04:25.884,-0.45,0.395
21:04:25.888,-0.44,0.385
21:04:25.892,-0.42,0.39
21:04:25.896,-0.405,0.395
21:04:25.900,-0.43,0.405
21:04:25.904,-0.44,0.405
21:04:25.908,-0.435,0.41
21:04:25.912,-0.42,0.42
21:04:25.916,-0.41,0.42
21:04:25.920,-0.405,0.41
21:04:25.924,-0.405,0.4
21:04:25.928,-0.4,0.4
21:04:25.932,-0.4,0.405
21:04:25.936,-0.395,0.4
21:04:25.940,-0.39,0.415
21:04:25.944,-0.39,0.39
21:04:25.948,-0.37,0.385
21:04:25.952,-0.36,0.385
21:04:25.956,-0.355,0.375
21:04:25.960,-0.345,0.365
21:04:25.964,-0.35,0.375
21:04:25.968,-0.33,0.36
21:04:25.972,-0.32,0.345
21:04:25.976,-0.295,0.335
21:04:25.980,-0.305,0.345
