Time,ECG1,ECG2
9:12:16.912,-0.02,-0.33
9:12:16.916,0.0,-0.325
9:12:16.920,0.03,-0.325
9:12:16.924,0.045,-0.32
9:12:16.928,0.055,-0.32
9:12:16.932,0.035,-0.3
9:12:16.936,0.05,-0.315
9:12:16.940,0.075,-0.33
9:12:16.944,0.06,-0.32
9:12:16.948,0.045,-0.305
9:12:16.952,0.04,-0.3
9:12:16.956,0.075,-0.32
9:12:16.960,0.075,-0.325
9:12:16.964,0.055,-0.32
9:12:16.968,0.07,-0.32
9:12:16.972,0.07,-0.325
9:12:16.976,0.07,-0.315
9:12:16.980,0.06,-0.33
9:12:16.984,0.06,-0.315
9:12:16.988,0.055,-0.315
9:12:16.992,0.055,-0.32
9:12:16.996,0.045,-0.325
9:12:17.000,0.07,-0.345
9:12:17.004,0.04,-0.34
9:12:17.008,0.045,-0.35
9:12:17.012,0.075,-0.34
9:12:17.016,0.085,-0.34
9:12:17.020,0.06,-0.305
9:12:17.024,0.055,-0.34
9:12:17.028,0.06,-0.34
9:12:17.032,0.045,-0.335
9:12:17.036,0.05,-0.345
9:12:17.040,0.04,-0.36
9:12:17.044,0.03,-0.365
9:12:17.048,0.04,-0.355
9:12:17.052,0.055,-0.38
9:12:17.056,0.04,-0.37
9:12:17.060,0.03,-0.37
9:12:17.064,0.05,-0.37
9:12:17.068,0.02,-0.36
9:12:17.072,0.03,-0.36
9:12:17.076,0.025,-0.355
9:12:17.080,0.03,-0.35
9:12:17.084,0.035,-0.33
9:12:17.088,0.02,-0.325
9:12:17.092,0.02,-0.32
9:12:17.096,0.02,-0.315
9:12:17.100,0.045,-0.29
9:12:17.104,0.025,-0.265
9:12:17.108,0.005,-0.26
9:12:17.112,-0.005,-0.235
9:12:17.116,-0.01,-0.21
9:12:17.120,-0.02,-0.185
9:12:17.124,0.0,-0.17
9:12:17.128,-0.005,-0.18
9:12:17.132,0.0,-0.16
9:12:17.136,-0.03,-0.15
9:12:17.140,-0.02,-0.14
9:12:17.144,-0.025,-0.14
9:12:17.148,-0.04,-0.12
9:12:17.152,-0.02,-0.135
9:12:17.156,-0.04,-0.14
9:12:17.160,-0.035,-0.15
9:12:17.164,-0.05,-0.155
9:12:17.168,-0.05,-0.155
9:12:17.172,-0.04,-0.16
9:12:17.176,-0.03,-0.15
9:12:17.180,-0.035,-0.16
9:12:17.184,-0.04,-0.15
9:12:17.188,-0.03,-0.17
9:12:17.192,-0.045,-0.17
9:12:17.196,-0.04,-0.18
9:12:17.200,-0.03,-0.2
9:12:17.204,-0.025,-0.21
9:12:17.208,-0.03,-0.2
9:12:17.212,-0.04,-0.205
9:12:17.216,-0.04,-0.215
9:12:17.220,-0.03,-0.22
9:12:17.224,-0.015,-0.205
9:12:17.228,-0.04,-0.205
9:12:17.232,-0.035,-0.21
9:12:17.236,-0.03,-0.2
9:12:17.240,-0.01,-0.205
9:12:17.244,-0.005,-0.2
9:12:17.248,-0.02,-0.2
9:12:17.252,-0.005,-0.19
9:12:17.256,-0.02,-0.2
9:12:17.260,-0.035,-0.2
9:12:17.264,-0.025,-0.225
9:12:17.268,-0.015,-0.2
9:12:17.272,-0.015,-0.19
9:12:17.276,-0.015,-0.2
9:12:17.280,-0.01,-0.205
9:12:17.284,-0.015,-0.19
9:12:17.288,-0.01,-0.195
9:12:17.292,-0.01,-0.185
9:12:17.296,-0.01,-0.215
9:12:17.300,0.0,-0.215
9:12:17.304,0.005,-0.195
9:12:17.308,-0.005,-0.19
9:12:17.312,-0.02,-0.2
9:12:17.316,0.0,-0.19
9:12:17.320,0.015,-0.185
9:12:17.324,0.0,-0.18
9:12:17.328,-0.02,-0.2
9:12:17.332,0.02,-0.175
9:12:17.336,0.005,-0.165
9:12:17.340,0.0,-0.195
9:12:17.344,-0.01,-0.205
9:12:17.348,-0.005,-0.18
9:12:17.352,-0.025,-0.19
9:12:17.356,-0.015,-0.215
9:12:17.360,-0.015,-0.2
9:12:17.364,-0.025,-0.22
9:12:17.368,0.0,-0.2
9:12:17.372,-0.01,-0.18
9:12:17.376,0.0,-0.19
9:12:17.380,-0.025,-0.195
9:12:17.384,-0.02,-0.195
9:12:17.388,-0.025,-0.195
9:12:17.392,-0.035,-0.205
9:12:17.396,-0.03,-0.19
9:12:17.400,-0.03,-0.22
9:12:17.404,-0.015,-0.23
9:12:17.408,-0.035,-0.225
9:12:17.412,-0.025,-0.24
9:12:17.416,-0.02,-0.21
9:12:17.420,-0.025,-0.21
9:12:17.424,-0.025,-0.21
9:12:17.428,-0.005,-0.22
9:12:17.432,-0.05,-0.215
9:12:17.436,-0.015,-0.22
9:12:17.440,-0.05,-0.205
9:12:17.444,-0.04,-0.225
9:12:17.448,-0.035,-0.23
9:12:17.452,-0.02,-0.215
9:12:17.456,-0.03,-0.2
9:12:17.460,-0.025,-0.19
9:12:17.464,-0.025,-0.205
9:12:17.468,-0.025,-0.21
9:12:17.472,-0.02,-0.215
9:12:17.476,-0.02,-0.21
9:12:17.480,-0.01,-0.21
9:12:17.484,-0.02,-0.2
9:12:17.488,-0.01,-0.17
9:12:17.492,-0.015,-0.18
9:12:17.496,-0.03,-0.175
9:12:17.500,-0.03,-0.185
9:12:17.504,-0.025,-0.2
9:12:17.508,-0.035,-0.2
9:12:17.512,-0.025,-0.2
9:12:17.516,-0.01,-0.19
9:12:17.520,0.0,-0.205
9:12:17.524,-0.03,-0.2
9:12:17.528,-0.02,-0.175
9:12:17.532,-0.015,-0.15
9:12:17.536,0.0,-0.12
9:12:17.540,0.0,-0.08
9:12:17.544,-0.005,-0.06
9:12:17.548,-0.015,0.0
9:12:17.552,-0.015,0.03
9:12:17.556,-0.03,0.025
9:12:17.560,-0.02,0.015
9:12:17.564,0.0,0.03
9:12:17.568,0.02,0.04
9:12:17.572,0.055,0.04
9:12:17.576,0.09,0.015
9:12:17.580,0.1,0.01
9:12:17.584,0.1,0.005
9:12:17.588,0.085,0.02
9:12:17.592,0.075,0.0
9:12:17.596,0.075,-0.01
9:12:17.600,0.035,-0.05
9:12:17.604,0.045,-0.12
9:12:17.608,0.0,-0.16
9:12:17.612,-0.01,-0.185
9:12:17.616,-0.015,-0.18
9:12:17.620,-0.065,-0.17
9:12:17.624,-0.085,-0.14
9:12:17.628,-0.08,-0.125
9:12:17.632,-0.11,-0.105
9:12:17.636,-0.12,-0.115
9:12:17.640,-0.145,-0.12
9:12:17.644,-0.12,-0.13
9:12:17.648,-0.13,-0.145
9:12:17.652,-0.08,-0.135
9:12:17.656,-0.075,-0.135
9:12:17.660,-0.08,-0.15
9:12:17.664,-0.07,-0.18
9:12:17.668,-0.07,-0.18
9:12:17.672,-0.065,-0.195
9:12:17.676,-0.06,-0.2
9:12:17.680,-0.03,-0.215
9:12:17.684,0.005,-0.205
9:12:17.688,0.0,-0.205
9:12:17.692,-0.015,-0.19
9:12:17.696,-0.005,-0.195
9:12:17.700,-0.005,-0.21
9:12:17.704,-0.025,-0.19
9:12:17.708,-0.035,-0.215
9:12:17.712,-0.02,-0.185
9:12:17.716,-0.035,-0.185
9:12:17.720,-0.025,-0.17
9:12:17.724,-0.045,-0.15
9:12:17.728,-0.02,-0.135
9:12:17.732,-0.035,-0.07
9:12:17.736,-0.025,-0.025
9:12:17.740,-0.015,0.035
9:12:17.744,-0.04,0.165
9:12:17.748,-0.025,0.38
9:12:17.752,-0.035,0.665
9:12:17.756,-0.015,0.93
9:12:17.760,0.025,1.09
9:12:17.764,0.015,1.185
9:12:17.768,0.0,1.18
9:12:17.772,-0.03,1.025
9:12:17.776,-0.05,0.725
9:12:17.780,-0.07,0.265
9:12:17.784,-0.175,-0.18
9:12:17.788,-0.365,-0.325
9:12:17.792,-0.605,-0.25
9:12:17.796,-0.89,-0.165
9:12:17.800,-1.105,-0.24
9:12:17.804,-1.22,-0.405
9:12:17.808,-1.28,-0.53
9:12:17.812,-1.155,-0.59
9:12:17.816,-0.88,-0.62
9:12:17.820,-0.565,-0.59
9:12:17.824,-0.34,-0.5
9:12:17.828,-0.225,-0.405
9:12:17.832,-0.195,-0.37
9:12:17.836,-0.21,-0.34
9:12:17.840,-0.205,-0.3
9:12:17.844,-0.195,-0.31
9:12:17.848,-0.16,-0.325
9:12:17.852,-0.115,-0.34
9:12:17.856,-0.04,-0.34
9:12:17.860,-0.02,-0.32
9:12:17.864,0.03,-0.31
9:12:17.868,0.02,-0.33
9:12:17.872,0.01,-0.31
9:12:17.876,0.035,-0.32
9:12:17.880,0.045,-0.33
9:12:17.884,0.03,-0.34
9:12:17.888,0.02,-0.325
9:12:17.892,0.045,-0.315
9:12:17.896,0.03,-0.3
9:12:17.900,0.06,-0.295
9:12:17.904,0.05,-0.32
9:12:17.908,0.06,-0.305
9:12:17.912,0.04,-0.31
9:12:17.916,0.035,-0.3
9:12:17.920,0.045,-0.315
9:12:17.924,0.05,-0.315
9:12:17.928,0.03,-0.305
9:12:17.932,0.035,-0.335
9:12:17.936,0.045,-0.3
9:12:17.940,0.045,-0.315
9:12:17.944,0.05,-0.31
9:12:17.948,0.035,-0.31
9:12:17.952,0.06,-0.315
9:12:17.956,0.045,-0.33
9:12:17.960,0.045,-0.32
9:12:17.964,0.035,-0.32
9:12:17.968,0.025,-0.32
9:12:17.972,0.035,-0.325
9:12:17.976,0.03,-0.33
9:12:17.980,0.02,-0.34
9:12:17.984,0.025,-0.35
9:12:17.988,0.02,-0.355
9:12:17.992,0.01,-0.355
9:12:17.996,0.01,-0.365
9:12:18.000,0.025,-0.38
9:12:18.004,0.03,-0.365
9:12:18.008,0.025,-0.38
9:12:18.012,0.015,-0.35
9:12:18.016,0.0,-0.39
9:12:18.020,0.01,-0.375
9:12:18.024,0.0,-0.355
9:12:18.028,-0.015,-0.37
9:12:18.032,-0.015,-0.355
9:12:18.036,0.0,-0.355
9:12:18.040,-0.015,-0.355
9:12:18.044,-0.02,-0.35
9:12:18.048,-0.02,-0.305
9:12:18.052,-0.025,-0.26
9:12:18.056,-0.005,-0.235
9:12:18.060,-0.025,-0.22
9:12:18.064,-0.05,-0.2
9:12:18.068,-0.055,-0.195
9:12:18.072,-0.035,-0.19
9:12:18.076,-0.05,-0.155
9:12:18.080,-0.065,-0.145
9:12:18.084,-0.05,-0.12
9:12:18.088,-0.035,-0.115
9:12:18.092,-0.08,-0.115
9:12:18.096,-0.06,-0.115
9:12:18.100,-0.08,-0.13
9:12:18.104,-0.085,-0.125
9:12:18.108,-0.07,-0.11
9:12:18.112,-0.06,-0.11
9:12:18.116,-0.065,-0.12
9:12:18.120,-0.055,-0.11
9:12:18.124,-0.06,-0.145
9:12:18.128,-0.06,-0.14
9:12:18.132,-0.055,-0.16
9:12:18.136,-0.055,-0.175
9:12:18.140,-0.045,-0.175
9:12:18.144,-0.05,-0.195
9:12:18.148,-0.055,-0.195
9:12:18.152,-0.035,-0.19
9:12:18.156,-0.03,-0.18
9:12:18.160,-0.03,-0.18
9:12:18.164,-0.025,-0.185
9:12:18.168,-0.035,-0.18
9:12:18.172,-0.05,-0.195
9:12:18.176,-0.04,-0.16
9:12:18.180,-0.01,-0.19
9:12:18.184,-0.035,-0.19
9:12:18.188,-0.02,-0.2
9:12:18.192,-0.045,-0.18
9:12:18.196,-0.005,-0.185
9:12:18.200,-0.04,-0.185
9:12:18.204,-0.045,-0.18
9:12:18.208,-0.03,-0.17
9:12:18.212,-0.045,-0.175
9:12:18.216,-0.03,-0.175
9:12:18.220,-0.04,-0.18
9:12:18.224,-0.02,-0.195
9:12:18.228,-0.015,-0.175
9:12:18.232,-0.015,-0.175
9:12:18.236,-0.02,-0.14
9:12:18.240,-0.03,-0.16
9:12:18.244,-0.03,-0.185
9:12:18.248,-0.01,-0.14
9:12:18.252,-0.01,-0.15
9:12:18.256,-0.005,-0.16
9:12:18.260,-0.015,-0.185
9:12:18.264,-0.005,-0.18
9:12:18.268,-0.015,-0.18
9:12:18.272,-0.015,-0.165
9:12:18.276,-0.03,-0.14
9:12:18.280,-0.035,-0.16
9:12:18.284,-0.015,-0.15
9:12:18.288,-0.03,-0.14
9:12:18.292,-0.045,-0.155
9:12:18.296,-0.015,-0.155
9:12:18.300,-0.03,-0.175
9:12:18.304,-0.01,-0.175
9:12:18.308,-0.025,-0.175
9:12:18.312,-0.03,-0.175
9:12:18.316,-0.04,-0.185
9:12:18.320,-0.03,-0.165
9:12:18.324,-0.035,-0.16
9:12:18.328,-0.045,-0.185
9:12:18.332,-0.035,-0.18
9:12:18.336,-0.05,-0.2
9:12:18.340,-0.03,-0.22
9:12:18.344,-0.055,-0.19
9:12:18.348,-0.065,-0.19
9:12:18.352,-0.05,-0.175
9:12:18.356,-0.04,-0.165
9:12:18.360,-0.055,-0.18
9:12:18.364,-0.04,-0.195
9:12:18.368,-0.04,-0.195
9:12:18.372,-0.07,-0.185
9:12:18.376,-0.05,-0.205
9:12:18.380,-0.04,-0.185
9:12:18.384,-0.045,-0.205
9:12:18.388,-0.03,-0.18
9:12:18.392,-0.04,-0.19
9:12:18.396,-0.035,-0.21
9:12:18.400,-0.04,-0.18
9:12:18.404,-0.035,-0.185
9:12:18.408,-0.045,-0.18
9:12:18.412,-0.06,-0.195
9:12:18.416,-0.07,-0.2
9:12:18.420,-0.06,-0.17
9:12:18.424,-0.07,-0.2
9:12:18.428,-0.045,-0.18
9:12:18.432,-0.05,-0.175
9:12:18.436,-0.02,-0.185
9:12:18.440,-0.045,-0.16
9:12:18.444,-0.03,-0.17
9:12:18.448,-0.06,-0.165
9:12:18.452,-0.04,-0.145
9:12:18.456,-0.055,-0.185
9:12:18.460,-0.04,-0.185
9:12:18.464,-0.035,-0.155
9:12:18.468,-0.02,-0.155
9:12:18.472,-0.025,-0.12
9:12:18.476,-0.02,-0.08
9:12:18.480,-0.025,-0.045
9:12:18.484,-0.02,-0.01
9:12:18.488,-0.02,0.005
9:12:18.492,-0.025,0.045
9:12:18.496,-0.015,0.035
9:12:18.500,0.0,0.055
9:12:18.504,0.055,0.05
9:12:18.508,0.075,0.03
9:12:18.512,0.1,0.005
9:12:18.516,0.095,0.03
9:12:18.520,0.115,0.015
9:12:18.524,0.105,0.04
9:12:18.528,0.105,0.02
9:12:18.532,0.09,0.02
9:12:18.536,0.07,-0.01
9:12:18.540,0.05,-0.06
9:12:18.544,0.0,-0.11
9:12:18.548,-0.015,-0.115
9:12:18.552,-0.025,-0.1
9:12:18.556,-0.04,-0.1
9:12:18.560,-0.065,-0.095
9:12:18.564,-0.07,-0.075
9:12:18.568,-0.08,-0.095
9:12:18.572,-0.095,-0.09
9:12:18.576,-0.105,-0.12
9:12:18.580,-0.095,-0.11
9:12:18.584,-0.08,-0.09
9:12:18.588,-0.065,-0.105
9:12:18.592,-0.055,-0.145
9:12:18.596,-0.045,-0.155
9:12:18.600,-0.07,-0.19
9:12:18.604,-0.045,-0.195
9:12:18.608,-0.02,-0.185
9:12:18.612,-0.005,-0.2
9:12:18.616,0.025,-0.195
9:12:18.620,0.005,-0.185
9:12:18.624,0.0,-0.195
9:12:18.628,0.0,-0.185
9:12:18.632,-0.02,-0.175
9:12:18.636,-0.03,-0.2
9:12:18.640,-0.005,-0.18
9:12:18.644,-0.01,-0.19
9:12:18.648,-0.02,-0.195
9:12:18.652,0.0,-0.16
9:12:18.656,-0.005,-0.135
9:12:18.660,-0.01,-0.135
9:12:18.664,-0.005,-0.08
9:12:18.668,-0.02,-0.005
9:12:18.672,-0.025,0.03
9:12:18.676,-0.03,0.165
9:12:18.680,-0.015,0.435
9:12:18.684,-0.01,0.775
9:12:18.688,0.01,1.07
9:12:18.692,0.02,1.26
9:12:18.696,0.03,1.4
9:12:18.700,0.02,1.42
9:12:18.704,-0.045,1.28
9:12:18.708,-0.055,0.92
9:12:18.712,-0.07,0.38
9:12:18.716,-0.16,-0.15
9:12:18.720,-0.34,-0.38
9:12:18.724,-0.595,-0.34
9:12:18.728,-0.86,-0.235
9:12:18.732,-1.055,-0.305
9:12:18.736,-1.165,-0.475
9:12:18.740,-1.19,-0.61
9:12:18.744,-1.085,-0.665
9:12:18.748,-0.815,-0.655
9:12:18.752,-0.515,-0.595
9:12:18.756,-0.295,-0.5
9:12:18.760,-0.215,-0.42
9:12:18.764,-0.195,-0.375
9:12:18.768,-0.18,-0.34
9:12:18.772,-0.19,-0.32
9:12:18.776,-0.17,-0.315
9:12:18.780,-0.13,-0.315
9:12:18.784,-0.08,-0.34
9:12:18.788,-0.03,-0.33
9:12:18.792,0.0,-0.33
9:12:18.796,0.02,-0.335
9:12:18.800,0.045,-0.34
9:12:18.804,0.025,-0.33
9:12:18.808,0.035,-0.335
9:12:18.812,0.055,-0.315
9:12:18.816,0.04,-0.31
9:12:18.820,0.04,-0.3
9:12:18.824,0.04,-0.315
9:12:18.828,0.05,-0.325
9:12:18.832,0.02,-0.315
9:12:18.836,0.055,-0.32
9:12:18.840,0.06,-0.315
9:12:18.844,0.075,-0.32
9:12:18.848,0.05,-0.31
9:12:18.852,0.055,-0.305
9:12:18.856,0.07,-0.31
9:12:18.860,0.045,-0.29
9:12:18.864,0.05,-0.305
9:12:18.868,0.055,-0.31
9:12:18.872,0.025,-0.295
9:12:18.876,0.035,-0.32
9:12:18.880,0.055,-0.33
9:12:18.884,0.05,-0.34
9:12:18.888,0.05,-0.34
9:12:18.892,0.06,-0.325
9:12:18.896,0.07,-0.33
9:12:18.900,0.065,-0.335
9:12:18.904,0.055,-0.33
9:12:18.908,0.045,-0.32
9:12:18.912,0.05,-0.315
9:12:18.916,0.025,-0.34
9:12:18.920,0.03,-0.315
9:12:18.924,0.045,-0.345
9:12:18.928,0.05,-0.35
9:12:18.932,0.03,-0.35
9:12:18.936,0.035,-0.34
9:12:18.940,0.025,-0.33
9:12:18.944,0.04,-0.35
9:12:18.948,0.015,-0.325
9:12:18.952,0.02,-0.32
9:12:18.956,0.02,-0.305
9:12:18.960,0.0,-0.305
9:12:18.964,0.01,-0.275
9:12:18.968,0.01,-0.265
9:12:18.972,0.01,-0.24
9:12:18.976,0.01,-0.22
9:12:18.980,0.0,-0.19
9:12:18.984,-0.015,-0.185
9:12:18.988,-0.01,-0.16
9:12:18.992,-0.02,-0.14
9:12:18.996,-0.065,-0.15
9:12:19.000,-0.03,-0.125
9:12:19.004,-0.05,-0.105
9:12:19.008,-0.035,-0.095
9:12:19.012,-0.055,-0.08
9:12:19.016,-0.045,-0.085
9:12:19.020,-0.035,-0.095
9:12:19.024,-0.05,-0.1
9:12:19.028,-0.04,-0.095
9:12:19.032,-0.045,-0.1
9:12:19.036,-0.045,-0.1
9:12:19.040,-0.045,-0.105
9:12:19.044,-0.06,-0.12
9:12:19.048,-0.04,-0.135
9:12:19.052,-0.03,-0.14
9:12:19.056,-0.025,-0.165
9:12:19.060,-0.025,-0.15
9:12:19.064,-0.05,-0.14
9:12:19.068,-0.045,-0.155
9:12:19.072,-0.01,-0.155
9:12:19.076,-0.04,-0.145
9:12:19.080,-0.055,-0.17
9:12:19.084,-0.035,-0.16
9:12:19.088,-0.03,-0.175
9:12:19.092,-0.035,-0.18
9:12:19.096,-0.03,-0.18
9:12:19.100,-0.02,-0.2
9:12:19.104,-0.025,-0.21
9:12:19.108,-0.02,-0.19
9:12:19.112,-0.03,-0.175
9:12:19.116,0.0,-0.18
9:12:19.120,-0.025,-0.205
9:12:19.124,-0.005,-0.18
9:12:19.128,-0.025,-0.18
9:12:19.132,-0.03,-0.185
9:12:19.136,-0.025,-0.19
9:12:19.140,-0.025,-0.195
9:12:19.144,-0.02,-0.19
9:12:19.148,0.0,-0.195
9:12:19.152,0.0,-0.18
9:12:19.156,-0.025,-0.185
9:12:19.160,-0.02,-0.17
9:12:19.164,-0.01,-0.165
9:12:19.168,-0.005,-0.19
9:12:19.172,-0.02,-0.175
9:12:19.176,0.0,-0.18
9:12:19.180,-0.005,-0.175
9:12:19.184,-0.005,-0.185
9:12:19.188,-0.005,-0.165
9:12:19.192,-0.015,-0.165
9:12:19.196,-0.015,-0.175
9:12:19.200,-0.02,-0.16
9:12:19.204,0.0,-0.185
9:12:19.208,0.0,-0.185
9:12:19.212,-0.01,-0.2
9:12:19.216,-0.01,-0.21
9:12:19.220,-0.01,-0.2
9:12:19.224,-0.01,-0.19
9:12:19.228,-0.02,-0.2
9:12:19.232,-0.01,-0.21
9:12:19.236,-0.02,-0.215
9:12:19.240,-0.04,-0.23
9:12:19.244,-0.03,-0.2
9:12:19.248,-0.035,-0.22
9:12:19.252,-0.04,-0.195
9:12:19.256,-0.035,-0.19
9:12:19.260,-0.015,-0.195
9:12:19.264,-0.055,-0.21
9:12:19.268,-0.03,-0.205
9:12:19.272,-0.065,-0.21
9:12:19.276,-0.035,-0.205
9:12:19.280,-0.055,-0.215
9:12:19.284,-0.045,-0.21
9:12:19.288,-0.04,-0.22
9:12:19.292,-0.03,-0.205
9:12:19.296,-0.04,-0.205
9:12:19.300,-0.03,-0.205
9:12:19.304,-0.05,-0.215
9:12:19.308,-0.06,-0.21
9:12:19.312,-0.05,-0.225
9:12:19.316,-0.04,-0.21
9:12:19.320,-0.03,-0.19
9:12:19.324,-0.04,-0.19
9:12:19.328,-0.03,-0.205
9:12:19.332,-0.025,-0.205
9:12:19.336,-0.045,-0.205
9:12:19.340,-0.065,-0.195
9:12:19.344,-0.06,-0.205
9:12:19.348,-0.025,-0.195
9:12:19.352,-0.05,-0.2
9:12:19.356,-0.045,-0.21
9:12:19.360,-0.05,-0.22
9:12:19.364,-0.035,-0.205
9:12:19.368,-0.045,-0.23
9:12:19.372,-0.065,-0.22
9:12:19.376,-0.055,-0.21
9:12:19.380,-0.045,-0.23
9:12:19.384,-0.065,-0.225
9:12:19.388,-0.055,-0.215
9:12:19.392,-0.055,-0.195
9:12:19.396,-0.055,-0.175
9:12:19.400,-0.05,-0.13
9:12:19.404,-0.065,-0.08
9:12:19.408,-0.04,-0.055
9:12:19.412,-0.055,-0.03
9:12:19.416,-0.045,0.0
9:12:19.420,-0.03,0.0
9:12:19.424,-0.015,-0.005
9:12:19.428,-0.005,0.02
9:12:19.432,0.015,0.005
9:12:19.436,0.05,0.01
9:12:19.440,0.05,0.0
9:12:19.444,0.07,-0.005
9:12:19.448,0.09,-0.01
9:12:19.452,0.075,0.005
9:12:19.456,0.07,-0.025
9:12:19.460,0.05,-0.04
9:12:19.464,0.01,-0.08
9:12:19.468,-0.01,-0.13
9:12:19.472,-0.03,-0.18
9:12:19.476,-0.05,-0.19
9:12:19.480,-0.08,-0.15
9:12:19.484,-0.085,-0.14
9:12:19.488,-0.11,-0.13
9:12:19.492,-0.11,-0.12
9:12:19.496,-0.145,-0.14
9:12:19.500,-0.15,-0.15
9:12:19.504,-0.14,-0.15
9:12:19.508,-0.1,-0.17
9:12:19.512,-0.095,-0.15
9:12:19.516,-0.095,-0.175
9:12:19.520,-0.08,-0.195
9:12:19.524,-0.09,-0.225
9:12:19.528,-0.1,-0.24
9:12:19.532,-0.07,-0.25
9:12:19.536,-0.05,-0.24
9:12:19.540,-0.02,-0.245
9:12:19.544,0.005,-0.245
9:12:19.548,-0.01,-0.23
9:12:19.552,-0.015,-0.225
9:12:19.556,-0.015,-0.225
9:12:19.560,-0.025,-0.255
9:12:19.564,-0.02,-0.225
9:12:19.568,-0.01,-0.225
9:12:19.572,-0.025,-0.22
9:12:19.576,-0.005,-0.225
9:12:19.580,-0.02,-0.2
9:12:19.584,-0.03,-0.155
9:12:19.588,-0.025,-0.095
9:12:19.592,-0.02,-0.055
9:12:19.596,-0.025,0.04
9:12:19.600,-0.03,0.235
9:12:19.604,-0.035,0.51
9:12:19.608,-0.035,0.84
9:12:19.612,-0.015,1.105
9:12:19.616,0.025,1.285
9:12:19.620,0.045,1.4
9:12:19.624,0.01,1.305
9:12:19.628,-0.03,1.055
9:12:19.632,-0.045,0.555
9:12:19.636,-0.105,-0.035
9:12:19.640,-0.24,-0.375
9:12:19.644,-0.48,-0.405
9:12:19.648,-0.765,-0.265
9:12:19.652,-1.025,-0.26
9:12:19.656,-1.185,-0.425
9:12:19.660,-1.255,-0.58
9:12:19.664,-1.21,-0.66
9:12:19.668,-0.97,-0.695
9:12:19.672,-0.67,-0.64
9:12:19.676,-0.37,-0.57
9:12:19.680,-0.255,-0.435
9:12:19.684,-0.195,-0.365
9:12:19.688,-0.185,-0.35
9:12:19.692,-0.18,-0.35
9:12:19.696,-0.19,-0.35
9:12:19.700,-0.145,-0.34
9:12:19.704,-0.09,-0.325
9:12:19.708,-0.05,-0.335
9:12:19.712,-0.02,-0.35
9:12:19.716,0.025,-0.34
9:12:19.720,0.04,-0.335
9:12:19.724,0.035,-0.35
9:12:19.728,0.055,-0.335
9:12:19.732,0.055,-0.33
9:12:19.736,0.06,-0.315
9:12:19.740,0.055,-0.305
9:12:19.744,0.055,-0.295
9:12:19.748,0.035,-0.31
9:12:19.752,0.045,-0.3
9:12:19.756,0.05,-0.305
9:12:19.760,0.055,-0.31
9:12:19.764,0.055,-0.31
9:12:19.768,0.075,-0.31
9:12:19.772,0.05,-0.29
9:12:19.776,0.045,-0.305
9:12:19.780,0.065,-0.28
9:12:19.784,0.065,-0.29
9:12:19.788,0.065,-0.3
9:12:19.792,0.065,-0.31
9:12:19.796,0.07,-0.3
9:12:19.800,0.06,-0.325
9:12:19.804,0.06,-0.315
9:12:19.808,0.05,-0.305
9:12:19.812,0.075,-0.31
9:12:19.816,0.055,-0.32
9:12:19.820,0.065,-0.305
9:12:19.824,0.04,-0.32
9:12:19.828,0.065,-0.335
9:12:19.832,0.035,-0.325
9:12:19.836,0.05,-0.34
9:12:19.840,0.06,-0.365
9:12:19.844,0.045,-0.32
9:12:19.848,0.035,-0.305
9:12:19.852,0.04,-0.305
9:12:19.856,0.045,-0.315
9:12:19.860,0.03,-0.335
9:12:19.864,0.01,-0.32
9:12:19.868,0.01,-0.32
9:12:19.872,0.01,-0.315
9:12:19.876,0.02,-0.285
9:12:19.880,0.03,-0.285
9:12:19.884,0.015,-0.26
9:12:19.888,0.015,-0.24
9:12:19.892,0.0,-0.23
9:12:19.896,0.015,-0.2
9:12:19.900,0.005,-0.19
9:12:19.904,-0.015,-0.175
9:12:19.908,-0.015,-0.135
9:12:19.912,-0.015,-0.14
9:12:19.916,-0.03,-0.145
9:12:19.920,-0.04,-0.125
9:12:19.924,-0.04,-0.125
9:12:19.928,-0.015,-0.13
9:12:19.932,-0.04,-0.09
9:12:19.936,-0.05,-0.1
9:12:19.940,-0.03,-0.08
9:12:19.944,-0.05,-0.1
9:12:19.948,-0.05,-0.11
9:12:19.952,-0.055,-0.125
9:12:19.956,-0.04,-0.12
9:12:19.960,-0.04,-0.13
9:12:19.964,-0.045,-0.135
9:12:19.968,-0.005,-0.155
9:12:19.972,-0.025,-0.135
9:12:19.976,-0.055,-0.155
9:12:19.980,-0.02,-0.165
9:12:19.984,-0.045,-0.155
9:12:19.988,-0.03,-0.16
9:12:19.992,-0.05,-0.18
9:12:19.996,-0.03,-0.18
9:12:20.000,-0.03,-0.19
9:12:20.004,-0.03,-0.215
9:12:20.008,-0.03,-0.205
9:12:20.012,-0.04,-0.205
9:12:20.016,-0.035,-0.23
9:12:20.020,-0.04,-0.21
9:12:20.024,-0.06,-0.195
9:12:20.028,-0.055,-0.21
9:12:20.032,-0.035,-0.205
9:12:20.036,-0.01,-0.205
9:12:20.040,-0.025,-0.22
9:12:20.044,-0.015,-0.23
9:12:20.048,-0.02,-0.22
9:12:20.052,-0.03,-0.23
9:12:20.056,-0.015,-0.24
9:12:20.060,-0.03,-0.215
9:12:20.064,-0.03,-0.225
9:12:20.068,-0.025,-0.21
9:12:20.072,-0.05,-0.21
9:12:20.076,-0.05,-0.205
9:12:20.080,-0.03,-0.21
9:12:20.084,-0.02,-0.24
9:12:20.088,-0.02,-0.23
9:12:20.092,-0.005,-0.215
9:12:20.096,-0.015,-0.215
9:12:20.100,-0.02,-0.21
9:12:20.104,-0.025,-0.21
9:12:20.108,-0.035,-0.225
9:12:20.112,-0.035,-0.22
9:12:20.116,-0.02,-0.225
9:12:20.120,-0.01,-0.225
9:12:20.124,-0.02,-0.225
9:12:20.128,-0.02,-0.235
9:12:20.132,-0.03,-0.23
9:12:20.136,-0.04,-0.22
9:12:20.140,-0.03,-0.22
9:12:20.144,-0.025,-0.235
9:12:20.148,-0.01,-0.225
9:12:20.152,-0.03,-0.235
9:12:20.156,-0.035,-0.225
9:12:20.160,-0.065,-0.24
9:12:20.164,-0.06,-0.245
9:12:20.168,-0.045,-0.215
9:12:20.172,-0.045,-0.215
9:12:20.176,-0.055,-0.21
9:12:20.180,-0.07,-0.23
9:12:20.184,-0.05,-0.22
9:12:20.188,-0.04,-0.225
9:12:20.192,-0.035,-0.225
9:12:20.196,-0.055,-0.225
9:12:20.200,-0.04,-0.23
9:12:20.204,-0.03,-0.25
9:12:20.208,-0.04,-0.255
9:12:20.212,-0.035,-0.235
9:12:20.216,-0.045,-0.245
9:12:20.220,-0.06,-0.235
9:12:20.224,-0.045,-0.235
9:12:20.228,-0.06,-0.23
9:12:20.232,-0.065,-0.25
9:12:20.236,-0.07,-0.24
9:12:20.240,-0.07,-0.265
9:12:20.244,-0.065,-0.255
9:12:20.248,-0.065,-0.24
9:12:20.252,-0.075,-0.255
9:12:20.256,-0.08,-0.24
9:12:20.260,-0.06,-0.24
9:12:20.264,-0.08,-0.25
9:12:20.268,-0.095,-0.255
9:12:20.272,-0.07,-0.255
9:12:20.276,-0.06,-0.255
9:12:20.280,-0.075,-0.25
9:12:20.284,-0.08,-0.25
9:12:20.288,-0.075,-0.26
9:12:20.292,-0.075,-0.24
9:12:20.296,-0.07,-0.26
9:12:20.300,-0.07,-0.255
9:12:20.304,-0.075,-0.26
9:12:20.308,-0.06,-0.245
9:12:20.312,-0.075,-0.245
9:12:20.316,-0.075,-0.265
9:12:20.320,-0.055,-0.225
9:12:20.324,-0.04,-0.215
9:12:20.328,-0.06,-0.165
9:12:20.332,-0.065,-0.145
9:12:20.336,-0.08,-0.105
9:12:20.340,-0.065,-0.08
9:12:20.344,-0.075,-0.07
9:12:20.348,-0.055,-0.045
9:12:20.352,-0.025,-0.04
9:12:20.356,-0.015,-0.025
9:12:20.360,0.005,-0.02
9:12:20.364,0.015,-0.01
9:12:20.368,0.04,-0.015
9:12:20.372,0.045,-0.05
9:12:20.376,0.045,-0.04
9:12:20.380,0.055,-0.045
9:12:20.384,0.035,-0.065
9:12:20.388,0.0,-0.095
9:12:20.392,-0.015,-0.15
9:12:20.396,-0.035,-0.18
9:12:20.400,-0.045,-0.2
9:12:20.404,-0.1,-0.22
9:12:20.408,-0.105,-0.23
9:12:20.412,-0.14,-0.205
9:12:20.416,-0.13,-0.2
9:12:20.420,-0.14,-0.2
9:12:20.424,-0.155,-0.18
9:12:20.428,-0.17,-0.2
9:12:20.432,-0.145,-0.23
9:12:20.436,-0.13,-0.215
9:12:20.440,-0.145,-0.22
9:12:20.444,-0.09,-0.22
9:12:20.448,-0.09,-0.255
9:12:20.452,-0.095,-0.285
9:12:20.456,-0.1,-0.3
9:12:20.460,-0.11,-0.31
9:12:20.464,-0.075,-0.305
9:12:20.468,-0.075,-0.305
9:12:20.472,-0.035,-0.3
9:12:20.476,-0.015,-0.29
9:12:20.480,-0.025,-0.315
9:12:20.484,-0.045,-0.31
9:12:20.488,-0.045,-0.315
9:12:20.492,-0.05,-0.28
9:12:20.496,-0.055,-0.27
9:12:20.500,-0.05,-0.3
9:12:20.504,-0.05,-0.28
9:12:20.508,-0.05,-0.285
9:12:20.512,-0.04,-0.275
9:12:20.516,-0.035,-0.225
9:12:20.520,-0.045,-0.165
9:12:20.524,-0.05,-0.135
9:12:20.528,-0.05,-0.055
9:12:20.532,-0.04,0.05
9:12:20.536,-0.04,0.28
9:12:20.540,-0.06,0.61
9:12:20.544,-0.03,0.92
9:12:20.548,0.0,1.1
9:12:20.552,0.005,1.22
9:12:20.556,-0.015,1.235
9:12:20.560,-0.035,1.115
9:12:20.564,-0.055,0.79
9:12:20.568,-0.105,0.285
9:12:20.572,-0.185,-0.25
9:12:20.576,-0.315,-0.51
9:12:20.580,-0.6,-0.445
9:12:20.584,-0.875,-0.275
9:12:20.588,-1.125,-0.285
9:12:20.592,-1.27,-0.445
9:12:20.596,-1.34,-0.635
9:12:20.600,-1.27,-0.73
9:12:20.604,-1.03,-0.735
9:12:20.608,-0.685,-0.715
9:12:20.612,-0.38,-0.63
9:12:20.616,-0.24,-0.515
9:12:20.620,-0.205,-0.435
9:12:20.624,-0.195,-0.415
9:12:20.628,-0.21,-0.395
9:12:20.632,-0.19,-0.4
9:12:20.636,-0.17,-0.41
9:12:20.640,-0.135,-0.41
9:12:20.644,-0.09,-0.39
9:12:20.648,-0.025,-0.395
9:12:20.652,0.0,-0.37
9:12:20.656,0.01,-0.4
9:12:20.660,0.025,-0.39
9:12:20.664,0.05,-0.39
9:12:20.668,0.025,-0.39
9:12:20.672,0.03,-0.39
9:12:20.676,0.045,-0.4
9:12:20.680,0.01,-0.39
9:12:20.684,0.045,-0.37
9:12:20.688,0.065,-0.37
9:12:20.692,0.045,-0.36
9:12:20.696,0.045,-0.36
9:12:20.700,0.05,-0.355
9:12:20.704,0.065,-0.355
9:12:20.708,0.055,-0.345
9:12:20.712,0.05,-0.355
9:12:20.716,0.05,-0.34
9:12:20.720,0.05,-0.345
9:12:20.724,0.08,-0.355
9:12:20.728,0.06,-0.355
9:12:20.732,0.07,-0.35
9:12:20.736,0.085,-0.38
9:12:20.740,0.075,-0.38
9:12:20.744,0.07,-0.38
9:12:20.748,0.07,-0.36
9:12:20.752,0.07,-0.37
9:12:20.756,0.075,-0.365
9:12:20.760,0.065,-0.38
9:12:20.764,0.065,-0.365
9:12:20.768,0.045,-0.375
9:12:20.772,0.065,-0.375
9:12:20.776,0.055,-0.37
9:12:20.780,0.055,-0.37
9:12:20.784,0.035,-0.38
9:12:20.788,0.06,-0.385
9:12:20.792,0.04,-0.375
9:12:20.796,0.04,-0.37
9:12:20.800,0.035,-0.37
9:12:20.804,0.03,-0.38
9:12:20.808,0.035,-0.38
9:12:20.812,0.025,-0.39
9:12:20.816,0.045,-0.36
9:12:20.820,0.0,-0.33
9:12:20.824,0.02,-0.32
9:12:20.828,0.02,-0.3
9:12:20.832,0.01,-0.315
9:12:20.836,0.01,-0.28
9:12:20.840,0.01,-0.265
9:12:20.844,0.005,-0.225
9:12:20.848,0.01,-0.225
9:12:20.852,0.005,-0.21
9:12:20.856,0.005,-0.19
9:12:20.860,-0.015,-0.19
9:12:20.864,0.0,-0.18
9:12:20.868,-0.005,-0.18
9:12:20.872,-0.04,-0.185
9:12:20.876,-0.045,-0.16
9:12:20.880,-0.05,-0.17
9:12:20.884,-0.035,-0.16
9:12:20.888,-0.05,-0.17
9:12:20.892,-0.03,-0.16
9:12:20.896,-0.055,-0.165
9:12:20.900,-0.05,-0.19
9:12:20.904,-0.06,-0.185
9:12:20.908,-0.05,-0.215
9:12:20.912,-0.045,-0.195
9:12:20.916,-0.05,-0.19
9:12:20.920,-0.045,-0.225
9:12:20.924,-0.05,-0.23
9:12:20.928,-0.055,-0.235
9:12:20.932,-0.065,-0.235
9:12:20.936,-0.05,-0.225
9:12:20.940,-0.06,-0.245
9:12:20.944,-0.05,-0.24
9:12:20.948,-0.055,-0.25
9:12:20.952,-0.055,-0.25
9:12:20.956,-0.05,-0.25
9:12:20.960,-0.055,-0.245
9:12:20.964,-0.045,-0.26
9:12:20.968,-0.04,-0.24
9:12:20.972,-0.035,-0.255
9:12:20.976,-0.025,-0.255
9:12:20.980,-0.045,-0.26
9:12:20.984,-0.025,-0.265
9:12:20.988,-0.03,-0.28
9:12:20.992,-0.005,-0.275
9:12:20.996,-0.035,-0.27
9:12:21.000,-0.04,-0.255
9:12:21.004,-0.025,-0.25
9:12:21.008,-0.03,-0.29
9:12:21.012,-0.03,-0.27
9:12:21.016,-0.045,-0.27
9:12:21.020,-0.03,-0.25
9:12:21.024,-0.03,-0.27
9:12:21.028,-0.045,-0.26
9:12:21.032,-0.025,-0.28
9:12:21.036,-0.04,-0.27
9:12:21.040,-0.015,-0.275
9:12:21.044,-0.01,-0.27
9:12:21.048,-0.02,-0.275
9:12:21.052,-0.05,-0.265
9:12:21.056,-0.04,-0.27
9:12:21.060,-0.035,-0.265
9:12:21.064,-0.025,-0.26
9:12:21.068,-0.045,-0.285
9:12:21.072,-0.035,-0.275
9:12:21.076,-0.02,-0.27
9:12:21.080,-0.025,-0.27
9:12:21.084,-0.03,-0.275
9:12:21.088,-0.04,-0.27
9:12:21.092,-0.05,-0.265
9:12:21.096,-0.06,-0.265
9:12:21.100,-0.075,-0.29
9:12:21.104,-0.055,-0.25
9:12:21.108,-0.045,-0.275
9:12:21.112,-0.065,-0.285
9:12:21.116,-0.055,-0.275
9:12:21.120,-0.04,-0.27
9:12:21.124,-0.055,-0.27
9:12:21.128,-0.065,-0.28
9:12:21.132,-0.06,-0.29
9:12:21.136,-0.06,-0.275
9:12:21.140,-0.065,-0.29
9:12:21.144,-0.075,-0.28
9:12:21.148,-0.06,-0.28
9:12:21.152,-0.08,-0.275
9:12:21.156,-0.055,-0.31
9:12:21.160,-0.055,-0.295
9:12:21.164,-0.065,-0.3
9:12:21.168,-0.06,-0.305
9:12:21.172,-0.065,-0.29
9:12:21.176,-0.065,-0.29
9:12:21.180,-0.06,-0.295
9:12:21.184,-0.055,-0.29
9:12:21.188,-0.075,-0.29
9:12:21.192,-0.08,-0.285
9:12:21.196,-0.06,-0.285
9:12:21.200,-0.055,-0.28
9:12:21.204,-0.075,-0.28
9:12:21.208,-0.07,-0.295
9:12:21.212,-0.085,-0.27
9:12:21.216,-0.085,-0.285
9:12:21.220,-0.085,-0.285
9:12:21.224,-0.09,-0.305
9:12:21.228,-0.08,-0.3
9:12:21.232,-0.055,-0.285
9:12:21.236,-0.065,-0.275
9:12:21.240,-0.075,-0.285
9:12:21.244,-0.065,-0.29
9:12:21.248,-0.08,-0.28
9:12:21.252,-0.075,-0.265
9:12:21.256,-0.06,-0.255
9:12:21.260,-0.075,-0.255
9:12:21.264,-0.075,-0.225
9:12:21.268,-0.07,-0.195
9:12:21.272,-0.08,-0.16
9:12:21.276,-0.075,-0.1
9:12:21.280,-0.065,-0.095
9:12:21.284,-0.095,-0.08
9:12:21.288,-0.085,-0.08
9:12:21.292,-0.06,-0.07
9:12:21.296,-0.02,-0.07
9:12:21.300,-0.005,-0.055
9:12:21.304,0.015,-0.075
9:12:21.308,0.025,-0.065
9:12:21.312,0.035,-0.065
9:12:21.316,0.04,-0.085
9:12:21.320,0.05,-0.08
9:12:21.324,0.025,-0.08
9:12:21.328,0.0,-0.11
9:12:21.332,0.0,-0.145
9:12:21.336,-0.055,-0.19
9:12:21.340,-0.07,-0.23
9:12:21.344,-0.105,-0.245
9:12:21.348,-0.13,-0.24
9:12:21.352,-0.155,-0.21
9:12:21.356,-0.14,-0.195
9:12:21.360,-0.155,-0.2
9:12:21.364,-0.155,-0.2
9:12:21.368,-0.155,-0.215
9:12:21.372,-0.145,-0.23
9:12:21.376,-0.175,-0.23
9:12:21.380,-0.135,-0.235
9:12:21.384,-0.12,-0.225
9:12:21.388,-0.14,-0.27
9:12:21.392,-0.12,-0.27
9:12:21.396,-0.13,-0.295
9:12:21.400,-0.13,-0.285
9:12:21.404,-0.095,-0.28
9:12:21.408,-0.07,-0.285
9:12:21.412,-0.045,-0.3
9:12:21.416,-0.045,-0.28
9:12:21.420,-0.085,-0.27
9:12:21.424,-0.06,-0.29
9:12:21.428,-0.055,-0.29
9:12:21.432,-0.055,-0.27
9:12:21.436,-0.06,-0.285
9:12:21.440,-0.055,-0.285
9:12:21.444,-0.08,-0.285
9:12:21.448,-0.065,-0.25
9:12:21.452,-0.07,-0.23
9:12:21.456,-0.07,-0.18
9:12:21.460,-0.075,-0.11
9:12:21.464,-0.05,-0.055
9:12:21.468,-0.09,0.06
9:12:21.472,-0.085,0.28
9:12:21.476,-0.065,0.57
9:12:21.480,-0.05,0.855
9:12:21.484,-0.045,1.05
9:12:21.488,-0.015,1.13
9:12:21.492,-0.015,1.12
9:12:21.496,-0.075,0.91
9:12:21.500,-0.09,0.56
9:12:21.504,-0.14,0.06
9:12:21.508,-0.225,-0.385
9:12:21.512,-0.42,-0.49
9:12:21.516,-0.695,-0.36
9:12:21.520,-0.96,-0.22
9:12:21.524,-1.2,-0.3
9:12:21.528,-1.31,-0.47
9:12:21.532,-1.34,-0.61
9:12:21.536,-1.245,-0.69
9:12:21.540,-0.975,-0.72
9:12:21.544,-0.63,-0.66
9:12:21.548,-0.355,-0.55
9:12:21.552,-0.26,-0.45
9:12:21.556,-0.225,-0.4
9:12:21.560,-0.215,-0.375
9:12:21.564,-0.195,-0.375
9:12:21.568,-0.205,-0.36
9:12:21.572,-0.15,-0.365
9:12:21.576,-0.14,-0.375
9:12:21.580,-0.055,-0.375
9:12:21.584,-0.04,-0.34
9:12:21.588,0.0,-0.345
9:12:21.592,0.03,-0.35
9:12:21.596,0.005,-0.35
9:12:21.600,0.005,-0.34
9:12:21.604,0.015,-0.345
9:12:21.608,0.03,-0.32
9:12:21.612,0.02,-0.335
9:12:21.616,0.025,-0.33
9:12:21.620,0.0,-0.33
9:12:21.624,0.035,-0.33
9:12:21.628,0.045,-0.335
9:12:21.632,0.03,-0.33
9:12:21.636,0.035,-0.31
9:12:21.640,0.045,-0.31
9:12:21.644,0.035,-0.32
9:12:21.648,0.005,-0.35
9:12:21.652,0.02,-0.36
9:12:21.656,0.02,-0.33
9:12:21.660,0.01,-0.315
9:12:21.664,0.03,-0.34
9:12:21.668,0.045,-0.335
9:12:21.672,0.03,-0.345
9:12:21.676,0.015,-0.35
9:12:21.680,0.015,-0.345
9:12:21.684,0.005,-0.355
9:12:21.688,0.005,-0.345
9:12:21.692,0.02,-0.345
9:12:21.696,0.025,-0.305
9:12:21.700,0.035,-0.315
9:12:21.704,0.02,-0.32
9:12:21.708,0.015,-0.33
9:12:21.712,0.0,-0.345
9:12:21.716,0.005,-0.345
9:12:21.720,-0.005,-0.335
9:12:21.724,0.005,-0.33
9:12:21.728,0.005,-0.34
9:12:21.732,0.015,-0.36
9:12:21.736,-0.005,-0.355
9:12:21.740,0.005,-0.34
9:12:21.744,0.005,-0.35
9:12:21.748,0.0,-0.34
9:12:21.752,-0.015,-0.325
9:12:21.756,-0.015,-0.305
9:12:21.760,-0.015,-0.285
9:12:21.764,0.0,-0.265
9:12:21.768,-0.005,-0.24
9:12:21.772,-0.04,-0.225
9:12:21.776,-0.03,-0.19
9:12:21.780,-0.025,-0.19
9:12:21.784,-0.05,-0.18
9:12:21.788,-0.05,-0.135
9:12:21.792,-0.06,-0.14
9:12:21.796,-0.06,-0.155
9:12:21.800,-0.07,-0.16
9:12:21.804,-0.11,-0.165
9:12:21.808,-0.09,-0.135
9:12:21.812,-0.085,-0.13
9:12:21.816,-0.08,-0.125
9:12:21.820,-0.075,-0.125
9:12:21.824,-0.085,-0.14
9:12:21.828,-0.08,-0.15
9:12:21.832,-0.085,-0.165
9:12:21.836,-0.085,-0.155
9:12:21.840,-0.07,-0.175
9:12:21.844,-0.07,-0.175
9:12:21.848,-0.065,-0.18
9:12:21.852,-0.08,-0.195
9:12:21.856,-0.085,-0.19
9:12:21.860,-0.065,-0.19
9:12:21.864,-0.07,-0.19
9:12:21.868,-0.075,-0.195
9:12:21.872,-0.08,-0.19
9:12:21.876,-0.065,-0.21
9:12:21.880,-0.075,-0.205
9:12:21.884,-0.08,-0.205
9:12:21.888,-0.055,-0.215
9:12:21.892,-0.07,-0.215
9:12:21.896,-0.075,-0.2
9:12:21.900,-0.07,-0.215
9:12:21.904,-0.07,-0.215
9:12:21.908,-0.08,-0.215
9:12:21.912,-0.075,-0.225
9:12:21.916,-0.07,-0.215
9:12:21.920,-0.085,-0.225
9:12:21.924,-0.075,-0.23
9:12:21.928,-0.07,-0.21
9:12:21.932,-0.07,-0.205
9:12:21.936,-0.06,-0.225
9:12:21.940,-0.06,-0.22
9:12:21.944,-0.05,-0.22
9:12:21.948,-0.06,-0.195
9:12:21.952,-0.065,-0.195
9:12:21.956,-0.045,-0.205
9:12:21.960,-0.04,-0.205
9:12:21.964,-0.02,-0.19
9:12:21.968,-0.04,-0.185
9:12:21.972,-0.055,-0.205
9:12:21.976,-0.055,-0.19
9:12:21.980,-0.05,-0.2
9:12:21.984,-0.07,-0.2
9:12:21.988,-0.09,-0.175
9:12:21.992,-0.065,-0.21
9:12:21.996,-0.05,-0.19
9:12:22.000,-0.065,-0.21
9:12:22.004,-0.06,-0.205
9:12:22.008,-0.05,-0.205
9:12:22.012,-0.06,-0.21
9:12:22.016,-0.075,-0.195
9:12:22.020,-0.065,-0.19
9:12:22.024,-0.075,-0.19
9:12:22.028,-0.085,-0.205
9:12:22.032,-0.085,-0.21
9:12:22.036,-0.11,-0.205
9:12:22.040,-0.08,-0.22
9:12:22.044,-0.125,-0.235
9:12:22.048,-0.09,-0.215
9:12:22.052,-0.1,-0.24
9:12:22.056,-0.105,-0.225
9:12:22.060,-0.11,-0.225
9:12:22.064,-0.095,-0.24
9:12:22.068,-0.1,-0.24
9:12:22.072,-0.08,-0.235
9:12:22.076,-0.1,-0.225
9:12:22.080,-0.105,-0.235
9:12:22.084,-0.095,-0.23
9:12:22.088,-0.09,-0.245
9:12:22.092,-0.105,-0.25
9:12:22.096,-0.12,-0.25
9:12:22.100,-0.09,-0.26
9:12:22.104,-0.085,-0.24
9:12:22.108,-0.125,-0.25
9:12:22.112,-0.12,-0.225
9:12:22.116,-0.13,-0.25
9:12:22.120,-0.115,-0.24
9:12:22.124,-0.11,-0.28
9:12:22.128,-0.1,-0.27
9:12:22.132,-0.125,-0.265
9:12:22.136,-0.13,-0.25
9:12:22.140,-0.12,-0.26
9:12:22.144,-0.12,-0.265
9:12:22.148,-0.135,-0.27
9:12:22.152,-0.135,-0.255
9:12:22.156,-0.12,-0.245
9:12:22.160,-0.14,-0.25
9:12:22.164,-0.155,-0.265
9:12:22.168,-0.125,-0.23
9:12:22.172,-0.12,-0.215
9:12:22.176,-0.11,-0.19
9:12:22.180,-0.115,-0.15
9:12:22.184,-0.1,-0.13
9:12:22.188,-0.1,-0.085
9:12:22.192,-0.115,-0.05
9:12:22.196,-0.11,-0.02
9:12:22.200,-0.105,-0.03
9:12:22.204,-0.075,-0.035
9:12:22.208,-0.045,-0.02
9:12:22.212,-0.02,-0.025
9:12:22.216,0.01,-0.055
9:12:22.220,0.0,-0.06
9:12:22.224,0.015,-0.055
9:12:22.228,0.025,-0.055
9:12:22.232,0.005,-0.045
9:12:22.236,-0.015,-0.05
9:12:22.240,-0.025,-0.09
9:12:22.244,-0.045,-0.13
9:12:22.248,-0.045,-0.2
9:12:22.252,-0.08,-0.195
9:12:22.256,-0.125,-0.22
9:12:22.260,-0.145,-0.205
9:12:22.264,-0.16,-0.195
9:12:22.268,-0.18,-0.185
9:12:22.272,-0.19,-0.175
9:12:22.276,-0.18,-0.19
9:12:22.280,-0.215,-0.2
9:12:22.284,-0.185,-0.215
9:12:22.288,-0.18,-0.21
9:12:22.292,-0.175,-0.225
9:12:22.296,-0.13,-0.235
9:12:22.300,-0.155,-0.26
9:12:22.304,-0.155,-0.3
9:12:22.308,-0.145,-0.295
9:12:22.312,-0.14,-0.29
9:12:22.316,-0.105,-0.28
9:12:22.320,-0.1,-0.295
9:12:22.324,-0.085,-0.275
9:12:22.328,-0.095,-0.265
9:12:22.332,-0.115,-0.26
9:12:22.336,-0.1,-0.255
9:12:22.340,-0.095,-0.275
9:12:22.344,-0.105,-0.275
9:12:22.348,-0.095,-0.27
9:12:22.352,-0.14,-0.285
9:12:22.356,-0.115,-0.275
9:12:22.360,-0.1,-0.26
9:12:22.364,-0.085,-0.225
9:12:22.368,-0.1,-0.16
9:12:22.372,-0.08,-0.11
9:12:22.376,-0.105,-0.045
9:12:22.380,-0.09,0.085
9:12:22.384,-0.105,0.29
9:12:22.388,-0.11,0.615
9:12:22.392,-0.085,0.91
9:12:22.396,-0.075,1.115
9:12:22.400,-0.07,1.245
9:12:22.404,-0.06,1.245
9:12:22.408,-0.095,1.105
9:12:22.412,-0.135,0.765
9:12:22.416,-0.155,0.21
9:12:22.420,-0.245,-0.265
9:12:22.424,-0.395,-0.425
9:12:22.428,-0.64,-0.36
9:12:22.432,-0.905,-0.28
9:12:22.436,-1.12,-0.365
9:12:22.440,-1.255,-0.54
9:12:22.444,-1.28,-0.68
9:12:22.448,-1.15,-0.72
9:12:22.452,-0.865,-0.72
9:12:22.456,-0.59,-0.655
9:12:22.460,-0.365,-0.565
9:12:22.464,-0.28,-0.48
9:12:22.468,-0.26,-0.435
9:12:22.472,-0.26,-0.42
9:12:22.476,-0.26,-0.42
9:12:22.480,-0.23,-0.42
9:12:22.484,-0.19,-0.41
9:12:22.488,-0.155,-0.41
9:12:22.492,-0.105,-0.43
9:12:22.496,-0.03,-0.415
9:12:22.500,-0.045,-0.405
9:12:22.504,-0.04,-0.425
9:12:22.508,-0.025,-0.4
9:12:22.512,-0.01,-0.4
9:12:22.516,-0.04,-0.385
9:12:22.520,-0.02,-0.385
9:12:22.524,-0.015,-0.39
9:12:22.528,-0.015,-0.375
9:12:22.532,0.015,-0.38
9:12:22.536,0.01,-0.39
9:12:22.540,0.0,-0.36
9:12:22.544,0.0,-0.365
9:12:22.548,0.025,-0.375
9:12:22.552,-0.005,-0.37
9:12:22.556,0.01,-0.37
9:12:22.560,0.01,-0.36
9:12:22.564,0.015,-0.34
9:12:22.568,0.0,-0.345
9:12:22.572,0.0,-0.34
9:12:22.576,0.02,-0.35
9:12:22.580,0.015,-0.34
9:12:22.584,0.0,-0.36
9:12:22.588,0.01,-0.365
9:12:22.592,0.0,-0.38
9:12:22.596,0.0,-0.355
9:12:22.600,0.0,-0.375
9:12:22.604,0.01,-0.36
9:12:22.608,0.015,-0.36
9:12:22.612,-0.01,-0.365
9:12:22.616,0.02,-0.36
9:12:22.620,0.01,-0.38
9:12:22.624,0.025,-0.375
9:12:22.628,0.01,-0.37
9:12:22.632,0.005,-0.39
9:12:22.636,-0.005,-0.375
9:12:22.640,-0.015,-0.38
9:12:22.644,0.005,-0.375
9:12:22.648,-0.005,-0.37
9:12:22.652,0.0,-0.38
9:12:22.656,-0.015,-0.395
9:12:22.660,0.0,-0.38
9:12:22.664,-0.015,-0.37
9:12:22.668,-0.015,-0.35
9:12:22.672,-0.03,-0.335
9:12:22.676,-0.03,-0.32
9:12:22.680,-0.03,-0.29
9:12:22.684,-0.025,-0.29
9:12:22.688,-0.03,-0.25
9:12:22.692,-0.05,-0.24
9:12:22.696,-0.065,-0.23
9:12:22.700,-0.04,-0.23
9:12:22.704,-0.065,-0.21
9:12:22.708,-0.08,-0.19
9:12:22.712,-0.09,-0.19
9:12:22.716,-0.09,-0.19
9:12:22.720,-0.095,-0.175
9:12:22.724,-0.09,-0.19
9:12:22.728,-0.1,-0.17
9:12:22.732,-0.085,-0.175
9:12:22.736,-0.11,-0.16
9:12:22.740,-0.105,-0.16
9:12:22.744,-0.085,-0.175
9:12:22.748,-0.1,-0.18
9:12:22.752,-0.1,-0.19
9:12:22.756,-0.075,-0.2
9:12:22.760,-0.1,-0.195
9:12:22.764,-0.08,-0.215
9:12:22.768,-0.065,-0.225
9:12:22.772,-0.07,-0.22
9:12:22.776,-0.07,-0.2
9:12:22.780,-0.06,-0.22
9:12:22.784,-0.07,-0.245
9:12:22.788,-0.065,-0.24
9:12:22.792,-0.075,-0.225
9:12:22.796,-0.055,-0.215
9:12:22.800,-0.04,-0.24
9:12:22.804,-0.04,-0.23
9:12:22.808,-0.06,-0.23
9:12:22.812,-0.045,-0.23
9:12:22.816,-0.065,-0.235
9:12:22.820,-0.065,-0.225
9:12:22.824,-0.065,-0.215
9:12:22.828,-0.05,-0.23
9:12:22.832,-0.055,-0.23
9:12:22.836,-0.04,-0.24
9:12:22.840,-0.06,-0.24
9:12:22.844,-0.02,-0.24
9:12:22.848,-0.03,-0.255
9:12:22.852,-0.03,-0.225
9:12:22.856,-0.05,-0.24
9:12:22.860,-0.045,-0.225
9:12:22.864,-0.045,-0.235
9:12:22.868,-0.045,-0.245
9:12:22.872,-0.045,-0.225
9:12:22.876,-0.06,-0.24
9:12:22.880,-0.055,-0.23
9:12:22.884,-0.045,-0.23
9:12:22.888,-0.055,-0.23
9:12:22.892,-0.05,-0.24
9:12:22.896,-0.065,-0.24
9:12:22.900,-0.06,-0.225
9:12:22.904,-0.055,-0.235
9:12:22.908,-0.055,-0.25
9:12:22.912,-0.04,-0.23
9:12:22.916,-0.035,-0.245
9:12:22.920,-0.06,-0.265
9:12:22.924,-0.06,-0.25
9:12:22.928,-0.065,-0.26
9:12:22.932,-0.055,-0.255
9:12:22.936,-0.05,-0.235
9:12:22.940,-0.055,-0.26
9:12:22.944,-0.04,-0.25
9:12:22.948,-0.05,-0.235
9:12:22.952,-0.055,-0.275
9:12:22.956,-0.055,-0.255
9:12:22.960,-0.055,-0.26
9:12:22.964,-0.07,-0.265
9:12:22.968,-0.07,-0.265
9:12:22.972,-0.05,-0.28
9:12:22.976,-0.065,-0.27
9:12:22.980,-0.085,-0.28
9:12:22.984,-0.07,-0.275
9:12:22.988,-0.06,-0.27
9:12:22.992,-0.075,-0.285
9:12:22.996,-0.08,-0.28
9:12:23.000,-0.08,-0.28
9:12:23.004,-0.065,-0.275
9:12:23.008,-0.08,-0.295
9:12:23.012,-0.1,-0.285
9:12:23.016,-0.075,-0.29
9:12:23.020,-0.08,-0.29
9:12:23.024,-0.065,-0.285
9:12:23.028,-0.09,-0.285
9:12:23.032,-0.08,-0.28
9:12:23.036,-0.07,-0.285
9:12:23.040,-0.07,-0.28
9:12:23.044,-0.08,-0.305
9:12:23.048,-0.08,-0.305
9:12:23.052,-0.08,-0.28
9:12:23.056,-0.095,-0.275
9:12:23.060,-0.1,-0.29
9:12:23.064,-0.115,-0.305
9:12:23.068,-0.1,-0.3
9:12:23.072,-0.12,-0.295
9:12:23.076,-0.09,-0.295
9:12:23.080,-0.095,-0.305
9:12:23.084,-0.1,-0.285
9:12:23.088,-0.095,-0.29
9:12:23.092,-0.105,-0.265
9:12:23.096,-0.09,-0.235
9:12:23.100,-0.09,-0.175
9:12:23.104,-0.09,-0.155
9:12:23.108,-0.09,-0.125
9:12:23.112,-0.095,-0.105
9:12:23.116,-0.08,-0.115
9:12:23.120,-0.05,-0.08
9:12:23.124,-0.045,-0.08
9:12:23.128,-0.02,-0.1
9:12:23.132,0.01,-0.095
9:12:23.136,0.01,-0.11
9:12:23.140,0.025,-0.11
9:12:23.144,0.025,-0.11
9:12:23.148,0.015,-0.11
9:12:23.152,0.015,-0.13
9:12:23.156,-0.02,-0.145
9:12:23.160,-0.04,-0.175
9:12:23.164,-0.06,-0.22
9:12:23.168,-0.085,-0.255
9:12:23.172,-0.11,-0.27
9:12:23.176,-0.135,-0.275
9:12:23.180,-0.16,-0.26
9:12:23.184,-0.17,-0.23
9:12:23.188,-0.175,-0.23
9:12:23.192,-0.165,-0.235
9:12:23.196,-0.15,-0.22
9:12:23.200,-0.18,-0.255
9:12:23.204,-0.155,-0.245
9:12:23.208,-0.155,-0.255
9:12:23.212,-0.13,-0.26
9:12:23.216,-0.12,-0.285
9:12:23.220,-0.09,-0.32
9:12:23.224,-0.11,-0.345
9:12:23.228,-0.11,-0.33
9:12:23.232,-0.09,-0.35
9:12:23.236,-0.09,-0.315
9:12:23.240,-0.065,-0.34
9:12:23.244,-0.065,-0.35
9:12:23.248,-0.065,-0.355
9:12:23.252,-0.06,-0.33
9:12:23.256,-0.055,-0.315
9:12:23.260,-0.065,-0.335
9:12:23.264,-0.055,-0.34
9:12:23.268,-0.06,-0.325
9:12:23.272,-0.07,-0.34
9:12:23.276,-0.07,-0.315
9:12:23.280,-0.065,-0.31
9:12:23.284,-0.06,-0.26
9:12:23.288,-0.08,-0.19
9:12:23.292,-0.07,-0.145
9:12:23.296,-0.11,-0.04
9:12:23.300,-0.07,0.19
9:12:23.304,-0.08,0.475
9:12:23.308,-0.075,0.805
9:12:23.312,-0.035,1.015
9:12:23.316,-0.03,1.19
9:12:23.320,-0.005,1.24
9:12:23.324,-0.07,1.095
9:12:23.328,-0.055,0.76
9:12:23.332,-0.115,0.195
9:12:23.336,-0.19,-0.305
9:12:23.340,-0.37,-0.49
9:12:23.344,-0.635,-0.4
9:12:23.348,-0.935,-0.28
9:12:23.352,-1.19,-0.37
9:12:23.356,-1.335,-0.585
9:12:23.360,-1.37,-0.735
9:12:23.364,-1.24,-0.815
9:12:23.368,-0.965,-0.825
9:12:23.372,-0.6,-0.745
9:12:23.376,-0.36,-0.65
9:12:23.380,-0.26,-0.55
9:12:23.384,-0.235,-0.475
9:12:23.388,-0.25,-0.455
9:12:23.392,-0.235,-0.495
9:12:23.396,-0.23,-0.46
9:12:23.400,-0.18,-0.46
9:12:23.404,-0.13,-0.45
9:12:23.408,-0.08,-0.46
9:12:23.412,-0.035,-0.44
9:12:23.416,-0.005,-0.435
9:12:23.420,0.0,-0.425
9:12:23.424,0.015,-0.445
9:12:23.428,-0.02,-0.44
9:12:23.432,0.0,-0.43
9:12:23.436,0.02,-0.42
9:12:23.440,0.015,-0.43
9:12:23.444,0.02,-0.405
9:12:23.448,0.005,-0.395
9:12:23.452,0.04,-0.395
9:12:23.456,0.035,-0.38
9:12:23.460,0.025,-0.405
9:12:23.464,0.02,-0.395
9:12:23.468,0.02,-0.375
9:12:23.472,0.045,-0.395
9:12:23.476,0.06,-0.395
9:12:23.480,0.06,-0.37
9:12:23.484,0.05,-0.385
9:12:23.488,0.065,-0.37
9:12:23.492,0.05,-0.385
9:12:23.496,0.05,-0.385
9:12:23.500,0.02,-0.395
9:12:23.504,0.045,-0.395
9:12:23.508,0.055,-0.365
9:12:23.512,0.06,-0.38
9:12:23.516,0.06,-0.36
9:12:23.520,0.05,-0.375
9:12:23.524,0.04,-0.375
9:12:23.528,0.075,-0.37
9:12:23.532,0.05,-0.355
9:12:23.536,0.035,-0.385
9:12:23.540,0.06,-0.39
9:12:23.544,0.045,-0.39
9:12:23.548,0.055,-0.39
9:12:23.552,0.055,-0.375
9:12:23.556,0.06,-0.39
9:12:23.560,0.035,-0.365
9:12:23.564,0.075,-0.35
9:12:23.568,0.055,-0.355
9:12:23.572,0.045,-0.34
9:12:23.576,0.04,-0.325
9:12:23.580,0.05,-0.32
9:12:23.584,0.06,-0.285
9:12:23.588,0.05,-0.275
9:12:23.592,0.03,-0.23
9:12:23.596,0.025,-0.21
9:12:23.600,0.035,-0.18
9:12:23.604,0.03,-0.16
9:12:23.608,0.035,-0.14
9:12:23.612,0.025,-0.145
9:12:23.616,0.0,-0.145
9:12:23.620,0.015,-0.15
9:12:23.624,0.015,-0.14
9:12:23.628,0.0,-0.125
9:12:23.632,-0.015,-0.135
9:12:23.636,-0.01,-0.145
9:12:23.640,-0.01,-0.14
9:12:23.644,-0.025,-0.14
9:12:23.648,-0.005,-0.14
9:12:23.652,0.0,-0.155
9:12:23.656,-0.005,-0.16
9:12:23.660,-0.005,-0.16
9:12:23.664,-0.03,-0.16
9:12:23.668,-0.01,-0.17
9:12:23.672,-0.01,-0.185
9:12:23.676,-0.025,-0.185
9:12:23.680,-0.02,-0.185
9:12:23.684,-0.01,-0.18
9:12:23.688,-0.01,-0.2
9:12:23.692,0.0,-0.19
9:12:23.696,0.01,-0.195
9:12:23.700,0.0,-0.19
9:12:23.704,0.0,-0.21
9:12:23.708,0.0,-0.205
9:12:23.712,0.01,-0.21
9:12:23.716,-0.005,-0.21
9:12:23.720,0.0,-0.195
9:12:23.724,0.0,-0.175
9:12:23.728,0.005,-0.19
9:12:23.732,0.0,-0.215
9:12:23.736,0.015,-0.22
9:12:23.740,0.025,-0.24
9:12:23.744,0.0,-0.22
9:12:23.748,0.01,-0.2
9:12:23.752,0.035,-0.215
9:12:23.756,0.02,-0.215
9:12:23.760,0.025,-0.18
9:12:23.764,0.025,-0.21
9:12:23.768,0.01,-0.21
9:12:23.772,0.025,-0.225
9:12:23.776,0.01,-0.215
9:12:23.780,0.015,-0.195
9:12:23.784,0.025,-0.2
9:12:23.788,0.03,-0.195
9:12:23.792,0.035,-0.215
9:12:23.796,0.035,-0.195
9:12:23.800,0.04,-0.18
9:12:23.804,0.035,-0.19
9:12:23.808,0.02,-0.185
9:12:23.812,0.035,-0.195
9:12:23.816,0.05,-0.175
9:12:23.820,0.04,-0.2
9:12:23.824,0.035,-0.195
9:12:23.828,0.015,-0.18
9:12:23.832,0.04,-0.195
9:12:23.836,0.035,-0.19
9:12:23.840,0.025,-0.19
9:12:23.844,0.025,-0.185
9:12:23.848,0.035,-0.19
9:12:23.852,0.01,-0.2
9:12:23.856,0.01,-0.19
9:12:23.860,0.025,-0.195
9:12:23.864,0.025,-0.205
9:12:23.868,0.015,-0.195
9:12:23.872,-0.02,-0.195
9:12:23.876,-0.005,-0.19
9:12:23.880,0.0,-0.2
9:12:23.884,-0.01,-0.19
9:12:23.888,0.005,-0.185
9:12:23.892,0.005,-0.17
9:12:23.896,0.01,-0.19
9:12:23.900,-0.005,-0.185
9:12:23.904,0.005,-0.2
9:12:23.908,0.0,-0.2
9:12:23.912,-0.01,-0.19
9:12:23.916,0.0,-0.195
9:12:23.920,-0.005,-0.2
9:12:23.924,-0.01,-0.2
9:12:23.928,-0.01,-0.205
9:12:23.932,-0.005,-0.185
9:12:23.936,-0.01,-0.195
9:12:23.940,-0.015,-0.19
9:12:23.944,-0.02,-0.19
9:12:23.948,0.005,-0.185
9:12:23.952,0.0,-0.195
9:12:23.956,0.0,-0.19
9:12:23.960,0.0,-0.21
9:12:23.964,-0.015,-0.185
9:12:23.968,-0.015,-0.19
9:12:23.972,-0.015,-0.19
9:12:23.976,-0.02,-0.14
9:12:23.980,-0.015,-0.125
9:12:23.984,-0.005,-0.09
9:12:23.988,-0.02,-0.075
9:12:23.992,-0.02,-0.055
9:12:23.996,-0.035,-0.04
9:12:24.000,0.0,-0.01
9:12:24.004,0.01,-0.005
9:12:24.008,0.03,0.0
9:12:24.012,0.05,0.0
9:12:24.016,0.065,0.02
9:12:24.020,0.075,0.0
9:12:24.024,0.09,-0.015
9:12:24.028,0.09,-0.015
9:12:24.032,0.09,-0.015
9:12:24.036,0.1,-0.03
9:12:24.040,0.08,-0.035
9:12:24.044,0.045,-0.09
9:12:24.048,0.025,-0.105
9:12:24.052,0.01,-0.155
9:12:24.056,-0.02,-0.17
9:12:24.060,-0.025,-0.175
9:12:24.064,-0.06,-0.165
9:12:24.068,-0.065,-0.165
9:12:24.072,-0.09,-0.14
9:12:24.076,-0.11,-0.16
9:12:24.080,-0.09,-0.18
9:12:24.084,-0.12,-0.185
9:12:24.088,-0.1,-0.18
9:12:24.092,-0.09,-0.165
9:12:24.096,-0.09,-0.195
9:12:24.100,-0.07,-0.205
9:12:24.104,-0.055,-0.255
9:12:24.108,-0.055,-0.24
9:12:24.112,-0.06,-0.25
9:12:24.116,-0.035,-0.225
9:12:24.120,-0.015,-0.245
9:12:24.124,-0.005,-0.23
9:12:24.128,-0.02,-0.235
9:12:24.132,-0.015,-0.255
9:12:24.136,-0.035,-0.26
9:12:24.140,-0.02,-0.24
9:12:24.144,-0.015,-0.24
9:12:24.148,-0.025,-0.235
9:12:24.152,-0.02,-0.24
9:12:24.156,-0.035,-0.235
9:12:24.160,-0.025,-0.2
9:12:24.164,-0.04,-0.18
9:12:24.168,-0.03,-0.145
9:12:24.172,-0.015,-0.08
9:12:24.176,-0.035,-0.02
9:12:24.180,-0.035,0.165
9:12:24.184,-0.025,0.41
9:12:24.188,-0.025,0.735
9:12:24.192,0.045,0.985
9:12:24.196,0.035,1.205
9:12:24.200,0.045,1.315
9:12:24.204,0.015,1.295
9:12:24.208,-0.01,1.13
9:12:24.212,-0.06,0.73
9:12:24.216,-0.1,0.195
9:12:24.220,-0.2,-0.2
9:12:24.224,-0.405,-0.315
9:12:24.228,-0.665,-0.275
9:12:24.232,-0.895,-0.32
9:12:24.236,-1.055,-0.465
9:12:24.240,-1.165,-0.635
9:12:24.244,-1.1,-0.705
9:12:24.248,-0.94,-0.72
9:12:24.252,-0.64,-0.715
9:12:24.256,-0.415,-0.605
9:12:24.260,-0.245,-0.5
9:12:24.264,-0.205,-0.425
9:12:24.268,-0.185,-0.395
9:12:24.272,-0.16,-0.385
9:12:24.276,-0.175,-0.375
9:12:24.280,-0.13,-0.4
9:12:24.284,-0.105,-0.41
9:12:24.288,-0.04,-0.405
9:12:24.292,-0.01,-0.405
9:12:24.296,0.03,-0.395
9:12:24.300,0.035,-0.37
9:12:24.304,0.045,-0.37
9:12:24.308,0.06,-0.38
9:12:24.312,0.045,-0.355
9:12:24.316,0.055,-0.375
9:12:24.320,0.065,-0.39
9:12:24.324,0.045,-0.38
9:12:24.328,0.06,-0.365
9:12:24.332,0.035,-0.37
9:12:24.336,0.06,-0.365
9:12:24.340,0.055,-0.38
9:12:24.344,0.065,-0.385
9:12:24.348,0.065,-0.38
9:12:24.352,0.065,-0.37
9:12:24.356,0.065,-0.38
9:12:24.360,0.055,-0.355
9:12:24.364,0.08,-0.355
9:12:24.368,0.055,-0.36
9:12:24.372,0.065,-0.365
9:12:24.376,0.085,-0.37
9:12:24.380,0.075,-0.355
9:12:24.384,0.07,-0.36
9:12:24.388,0.065,-0.35
9:12:24.392,0.06,-0.355
9:12:24.396,0.055,-0.36
9:12:24.400,0.055,-0.39
9:12:24.404,0.055,-0.405
9:12:24.408,0.05,-0.415
9:12:24.412,0.065,-0.385
9:12:24.416,0.07,-0.405
9:12:24.420,0.04,-0.405
9:12:24.424,0.035,-0.395
9:12:24.428,0.065,-0.42
9:12:24.432,0.04,-0.395
9:12:24.436,0.035,-0.395
9:12:24.440,0.06,-0.385
9:12:24.444,0.05,-0.38
9:12:24.448,0.04,-0.39
9:12:24.452,0.035,-0.385
9:12:24.456,0.02,-0.37
9:12:24.460,0.015,-0.33
9:12:24.464,0.03,-0.325
9:12:24.468,0.02,-0.32
9:12:24.472,0.005,-0.305
9:12:24.476,0.03,-0.265
9:12:24.480,0.02,-0.255
9:12:24.484,0.025,-0.22
9:12:24.488,0.025,-0.205
9:12:24.492,0.01,-0.18
9:12:24.496,0.01,-0.17
9:12:24.500,0.0,-0.185
9:12:24.504,0.015,-0.175
9:12:24.508,-0.025,-0.15
9:12:24.512,-0.015,-0.135
9:12:24.516,-0.015,-0.12
9:12:24.520,-0.015,-0.12
9:12:24.524,0.0,-0.11
9:12:24.528,0.02,-0.13
9:12:24.532,0.0,-0.13
9:12:24.536,0.005,-0.145
9:12:24.540,0.005,-0.135
9:12:24.544,0.015,-0.145
9:12:24.548,0.025,-0.135
9:12:24.552,0.01,-0.15
9:12:24.556,0.03,-0.155
9:12:24.560,-0.005,-0.125
9:12:24.564,0.03,-0.16
9:12:24.568,0.025,-0.16
9:12:24.572,0.015,-0.165
9:12:24.576,0.035,-0.16
9:12:24.580,0.02,-0.165
9:12:24.584,0.025,-0.155
9:12:24.588,0.02,-0.175
9:12:24.592,0.04,-0.16
9:12:24.596,0.04,-0.16
9:12:24.600,0.03,-0.17
9:12:24.604,0.05,-0.18
9:12:24.608,0.005,-0.205
9:12:24.612,0.025,-0.18
9:12:24.616,0.06,-0.195
9:12:24.620,0.055,-0.19
9:12:24.624,0.07,-0.205
9:12:24.628,0.04,-0.185
9:12:24.632,0.05,-0.185
9:12:24.636,0.055,-0.18
9:12:24.640,0.035,-0.195
9:12:24.644,0.045,-0.185
9:12:24.648,0.04,-0.205
9:12:24.652,0.055,-0.2
9:12:24.656,0.06,-0.18
9:12:24.660,0.04,-0.185
9:12:24.664,0.065,-0.195
9:12:24.668,0.06,-0.18
9:12:24.672,0.04,-0.18
9:12:24.676,0.05,-0.19
9:12:24.680,0.055,-0.205
9:12:24.684,0.035,-0.19
9:12:24.688,0.055,-0.16
9:12:24.692,0.04,-0.185
9:12:24.696,0.035,-0.16
9:12:24.700,0.045,-0.17
9:12:24.704,0.04,-0.185
9:12:24.708,0.075,-0.17
9:12:24.712,0.075,-0.18
9:12:24.716,0.035,-0.185
9:12:24.720,0.04,-0.19
9:12:24.724,0.065,-0.18
9:12:24.728,0.05,-0.19
9:12:24.732,0.055,-0.16
9:12:24.736,0.05,-0.17
9:12:24.740,0.035,-0.19
9:12:24.744,0.05,-0.175
9:12:24.748,0.04,-0.19
9:12:24.752,0.02,-0.18
9:12:24.756,0.02,-0.185
9:12:24.760,0.01,-0.2
9:12:24.764,0.025,-0.19
9:12:24.768,0.015,-0.185
9:12:24.772,0.025,-0.185
9:12:24.776,0.02,-0.175
9:12:24.780,0.015,-0.19
9:12:24.784,0.035,-0.185
9:12:24.788,0.005,-0.19
9:12:24.792,0.03,-0.21
9:12:24.796,0.015,-0.205
9:12:24.800,0.0,-0.205
9:12:24.804,0.02,-0.195
9:12:24.808,0.025,-0.185
9:12:24.812,0.025,-0.185
9:12:24.816,0.025,-0.18
9:12:24.820,0.025,-0.185
9:12:24.824,0.01,-0.185
9:12:24.828,0.015,-0.195
9:12:24.832,0.025,-0.19
9:12:24.836,0.025,-0.19
9:12:24.840,0.03,-0.17
9:12:24.844,0.025,-0.165
9:12:24.848,0.015,-0.175
9:12:24.852,0.035,-0.16
9:12:24.856,0.035,-0.195
9:12:24.860,0.005,-0.17
9:12:24.864,0.03,-0.15
9:12:24.868,0.0,-0.12
9:12:24.872,0.02,-0.075
9:12:24.876,0.03,-0.06
9:12:24.880,0.02,-0.04
9:12:24.884,0.015,-0.005
9:12:24.888,0.015,0.02
9:12:24.892,0.015,0.0
9:12:24.896,0.05,0.025
9:12:24.900,0.085,0.025
9:12:24.904,0.11,0.025
9:12:24.908,0.125,0.005
9:12:24.912,0.13,-0.01
9:12:24.916,0.155,0.005
9:12:24.920,0.17,0.0
9:12:24.924,0.135,-0.01
9:12:24.928,0.14,0.0
9:12:24.932,0.115,-0.03
9:12:24.936,0.115,-0.065
9:12:24.940,0.08,-0.125
9:12:24.944,0.07,-0.145
9:12:24.948,0.045,-0.14
9:12:24.952,0.015,-0.165
9:12:24.956,-0.01,-0.135
9:12:24.960,-0.03,-0.125
9:12:24.964,-0.03,-0.15
9:12:24.968,-0.04,-0.125
9:12:24.972,-0.04,-0.155
9:12:24.976,-0.04,-0.145
9:12:24.980,-0.045,-0.135
9:12:24.984,-0.04,-0.125
9:12:24.988,-0.01,-0.155
9:12:24.992,-0.03,-0.16
9:12:24.996,-0.01,-0.205
9:12:25.000,-0.01,-0.205
9:12:25.004,-0.02,-0.2
9:12:25.008,0.0,-0.215
9:12:25.012,0.035,-0.21
9:12:25.016,0.04,-0.225
9:12:25.020,0.04,-0.225
9:12:25.024,0.025,-0.22
9:12:25.028,0.045,-0.225
9:12:25.032,0.035,-0.205
9:12:25.036,0.05,-0.22
9:12:25.040,0.015,-0.215
9:12:25.044,0.025,-0.22
9:12:25.048,0.0,-0.205
9:12:25.052,0.04,-0.21
9:12:25.056,0.015,-0.19
9:12:25.060,0.005,-0.185
9:12:25.064,0.005,-0.135
9:12:25.068,0.0,-0.08
9:12:25.072,0.0,-0.005
9:12:25.076,-0.005,0.13
9:12:25.080,0.0,0.39
9:12:25.084,-0.02,0.69
9:12:25.088,0.0,1.005
9:12:25.092,0.04,1.265
9:12:25.096,0.07,1.435
9:12:25.100,0.07,1.555
9:12:25.104,0.005,1.445
9:12:25.108,-0.005,1.175
9:12:25.112,0.0,0.675
9:12:25.116,-0.085,0.115
9:12:25.120,-0.215,-0.295
9:12:25.124,-0.4,-0.435
9:12:25.128,-0.67,-0.34
9:12:25.132,-0.905,-0.37
9:12:25.136,-1.07,-0.485
9:12:25.140,-1.1,-0.62
9:12:25.144,-1.09,-0.705
9:12:25.148,-0.925,-0.73
9:12:25.152,-0.665,-0.7
9:12:25.156,-0.415,-0.625
9:12:25.160,-0.23,-0.535
9:12:25.164,-0.19,-0.43
9:12:25.168,-0.165,-0.385
9:12:25.172,-0.135,-0.365
9:12:25.176,-0.155,-0.37
9:12:25.180,-0.14,-0.365
9:12:25.184,-0.095,-0.38
9:12:25.188,-0.065,-0.375
9:12:25.192,0.015,-0.38
9:12:25.196,0.03,-0.345
9:12:25.200,0.055,-0.365
9:12:25.204,0.045,-0.355
9:12:25.208,0.06,-0.365
9:12:25.212,0.055,-0.37
9:12:25.216,0.085,-0.375
9:12:25.220,0.065,-0.365
9:12:25.224,0.075,-0.375
9:12:25.228,0.065,-0.39
9:12:25.232,0.095,-0.365
9:12:25.236,0.095,-0.365
9:12:25.240,0.095,-0.385
9:12:25.244,0.065,-0.385
9:12:25.248,0.09,-0.385
9:12:25.252,0.105,-0.375
9:12:25.256,0.105,-0.37
9:12:25.260,0.08,-0.365
9:12:25.264,0.095,-0.36
9:12:25.268,0.095,-0.365
9:12:25.272,0.1,-0.355
9:12:25.276,0.105,-0.355
9:12:25.280,0.07,-0.375
9:12:25.284,0.08,-0.385
9:12:25.288,0.07,-0.375
9:12:25.292,0.065,-0.365
9:12:25.296,0.085,-0.37
9:12:25.300,0.095,-0.36
9:12:25.304,0.08,-0.38
9:12:25.308,0.085,-0.38
9:12:25.312,0.085,-0.385
9:12:25.316,0.085,-0.4
9:12:25.320,0.085,-0.4
9:12:25.324,0.07,-0.405
9:12:25.328,0.07,-0.41
9:12:25.332,0.09,-0.41
9:12:25.336,0.075,-0.42
9:12:25.340,0.09,-0.415
9:12:25.344,0.075,-0.405
9:12:25.348,0.09,-0.4
9:12:25.352,0.085,-0.42
9:12:25.356,0.065,-0.395
9:12:25.360,0.075,-0.405
9:12:25.364,0.06,-0.415
9:12:25.368,0.075,-0.39
9:12:25.372,0.05,-0.375
9:12:25.376,0.04,-0.345
9:12:25.380,0.055,-0.345
9:12:25.384,0.045,-0.31
9:12:25.388,0.04,-0.295
9:12:25.392,0.035,-0.29
9:12:25.396,0.045,-0.26
9:12:25.400,0.03,-0.235
9:12:25.404,0.04,-0.205
9:12:25.408,0.03,-0.205
9:12:25.412,0.02,-0.19
9:12:25.416,0.015,-0.17
9:12:25.420,0.03,-0.19
9:12:25.424,0.005,-0.17
9:12:25.428,0.015,-0.155
9:12:25.432,0.005,-0.165
9:12:25.436,0.0,-0.19
9:12:25.440,0.0,-0.175
9:12:25.444,0.01,-0.155
9:12:25.448,0.005,-0.16
9:12:25.452,0.02,-0.165
9:12:25.456,0.005,-0.175
9:12:25.460,0.01,-0.185
9:12:25.464,0.02,-0.195
9:12:25.468,0.01,-0.175
9:12:25.472,0.0,-0.185
9:12:25.476,0.005,-0.2
9:12:25.480,0.02,-0.21
9:12:25.484,0.05,-0.235
9:12:25.488,0.035,-0.24
9:12:25.492,0.02,-0.23
9:12:25.496,0.04,-0.22
9:12:25.500,0.025,-0.235
9:12:25.504,0.02,-0.25
9:12:25.508,0.045,-0.235
9:12:25.512,0.035,-0.23
9:12:25.516,0.03,-0.26
9:12:25.520,0.035,-0.245
9:12:25.524,0.03,-0.245
9:12:25.528,0.045,-0.25
9:12:25.532,0.015,-0.255
9:12:25.536,0.03,-0.235
9:12:25.540,0.045,-0.235
9:12:25.544,0.05,-0.255
9:12:25.548,0.055,-0.245
9:12:25.552,0.065,-0.24
9:12:25.556,0.065,-0.245
9:12:25.560,0.055,-0.235
9:12:25.564,0.055,-0.245
9:12:25.568,0.055,-0.23
9:12:25.572,0.065,-0.22
9:12:25.576,0.055,-0.22
9:12:25.580,0.04,-0.22
9:12:25.584,0.05,-0.215
9:12:25.588,0.05,-0.225
9:12:25.592,0.06,-0.225
9:12:25.596,0.065,-0.205
9:12:25.600,0.075,-0.215
9:12:25.604,0.07,-0.215
9:12:25.608,0.065,-0.225
9:12:25.612,0.085,-0.23
9:12:25.616,0.07,-0.225
9:12:25.620,0.085,-0.215
9:12:25.624,0.085,-0.21
9:12:25.628,0.05,-0.2
9:12:25.632,0.075,-0.225
9:12:25.636,0.055,-0.215
9:12:25.640,0.07,-0.205
9:12:25.644,0.06,-0.205
9:12:25.648,0.05,-0.22
9:12:25.652,0.06,-0.215
9:12:25.656,0.07,-0.22
9:12:25.660,0.035,-0.22
9:12:25.664,0.035,-0.22
9:12:25.668,0.055,-0.21
9:12:25.672,0.05,-0.225
9:12:25.676,0.055,-0.23
9:12:25.680,0.045,-0.225
9:12:25.684,0.065,-0.23
9:12:25.688,0.055,-0.24
9:12:25.692,0.045,-0.225
9:12:25.696,0.045,-0.23
9:12:25.700,0.06,-0.255
9:12:25.704,0.055,-0.24
9:12:25.708,0.06,-0.255
9:12:25.712,0.05,-0.24
9:12:25.716,0.04,-0.26
9:12:25.720,0.025,-0.25
9:12:25.724,0.035,-0.24
9:12:25.728,0.035,-0.24
9:12:25.732,0.05,-0.255
9:12:25.736,0.04,-0.26
9:12:25.740,0.035,-0.265
9:12:25.744,0.035,-0.235
9:12:25.748,0.03,-0.215
9:12:25.752,0.025,-0.205
9:12:25.756,0.04,-0.225
9:12:25.760,0.04,-0.235
9:12:25.764,0.02,-0.225
9:12:25.768,0.01,-0.205
9:12:25.772,0.02,-0.185
9:12:25.776,0.02,-0.125
9:12:25.780,0.03,-0.115
9:12:25.784,0.035,-0.08
9:12:25.788,0.035,-0.045
9:12:25.792,0.03,-0.04
9:12:25.796,0.06,-0.03
9:12:25.800,0.06,-0.035
9:12:25.804,0.085,-0.02
9:12:25.808,0.1,-0.015
9:12:25.812,0.135,-0.01
9:12:25.816,0.135,-0.04
9:12:25.820,0.16,-0.08
9:12:25.824,0.165,-0.1
9:12:25.828,0.15,-0.1
9:12:25.832,0.15,-0.1
9:12:25.836,0.125,-0.075
9:12:25.840,0.1,-0.075
9:12:25.844,0.08,-0.1
9:12:25.848,0.04,-0.14
9:12:25.852,0.04,-0.15
9:12:25.856,-0.005,-0.17
9:12:25.860,-0.015,-0.17
9:12:25.864,-0.03,-0.155
9:12:25.868,-0.015,-0.16
9:12:25.872,-0.02,-0.155
9:12:25.876,-0.025,-0.14
9:12:25.880,-0.07,-0.16
9:12:25.884,-0.04,-0.185
9:12:25.888,-0.025,-0.2
9:12:25.892,-0.03,-0.2
9:12:25.896,-0.01,-0.185
9:12:25.900,0.025,-0.215
9:12:25.904,0.01,-0.23
9:12:25.908,0.01,-0.27
9:12:25.912,-0.005,-0.265
9:12:25.916,0.01,-0.25
9:12:25.920,0.04,-0.26
9:12:25.924,0.07,-0.26
9:12:25.928,0.09,-0.26
9:12:25.932,0.055,-0.285
9:12:25.936,0.05,-0.285
9:12:25.940,0.055,-0.28
9:12:25.944,0.05,-0.25
9:12:25.948,0.04,-0.245
9:12:25.952,0.04,-0.24
9:12:25.956,0.04,-0.23
9:12:25.960,0.03,-0.225
9:12:25.964,0.01,-0.19
9:12:25.968,0.03,-0.145
9:12:25.972,0.01,-0.095
9:12:25.976,0.03,-0.015
9:12:25.980,0.03,0.115
9:12:25.984,0.035,0.395
9:12:25.988,0.05,0.715
9:12:25.992,0.055,1.0
9:12:25.996,0.085,1.21
9:12:26.000,0.085,1.35
9:12:26.004,0.075,1.36
9:12:26.008,0.03,1.185
9:12:26.012,0.015,0.785
9:12:26.016,-0.02,0.185
9:12:26.020,-0.1,-0.305
9:12:26.024,-0.285,-0.5
9:12:26.028,-0.53,-0.41
9:12:26.032,-0.8,-0.295
9:12:26.036,-1.01,-0.335
9:12:26.040,-1.165,-0.52
9:12:26.044,-1.195,-0.65
9:12:26.048,-1.1,-0.725
9:12:26.052,-0.845,-0.735
9:12:26.056,-0.54,-0.7
9:12:26.060,-0.3,-0.6
9:12:26.064,-0.19,-0.495
9:12:26.068,-0.125,-0.41
9:12:26.072,-0.11,-0.375
9:12:26.076,-0.13,-0.385
9:12:26.080,-0.135,-0.41
9:12:26.084,-0.085,-0.42
9:12:26.088,-0.05,-0.41
9:12:26.092,0.0,-0.38
9:12:26.096,0.06,-0.385
9:12:26.100,0.08,-0.38
9:12:26.104,0.08,-0.36
9:12:26.108,0.06,-0.355
9:12:26.112,0.07,-0.34
9:12:26.116,0.08,-0.35
9:12:26.120,0.065,-0.315
9:12:26.124,0.075,-0.36
9:12:26.128,0.11,-0.34
9:12:26.132,0.09,-0.345
9:12:26.136,0.11,-0.32
9:12:26.140,0.09,-0.32
9:12:26.144,0.095,-0.3
9:12:26.148,0.075,-0.31
9:12:26.152,0.09,-0.335
9:12:26.156,0.09,-0.31
9:12:26.160,0.105,-0.3
9:12:26.164,0.1,-0.305
9:12:26.168,0.095,-0.3
9:12:26.172,0.105,-0.305
9:12:26.176,0.1,-0.32
9:12:26.180,0.1,-0.285
9:12:26.184,0.085,-0.28
9:12:26.188,0.08,-0.265
9:12:26.192,0.08,-0.225
9:12:26.196,0.08,-0.24
9:12:26.200,0.09,-0.24
9:12:26.204,0.075,-0.26
9:12:26.208,0.08,-0.27
9:12:26.212,0.105,-0.295
9:12:26.216,0.1,-0.32
9:12:26.220,0.115,-0.29
9:12:26.224,0.115,-0.265
9:12:26.228,0.11,-0.245
9:12:26.232,0.09,-0.245
9:12:26.236,0.08,-0.265
9:12:26.240,0.075,-0.25
9:12:26.244,0.05,-0.235
9:12:26.248,0.055,-0.255
9:12:26.252,0.085,-0.245
9:12:26.256,0.095,-0.265
9:12:26.260,0.07,-0.25
9:12:26.264,0.085,-0.23
9:12:26.268,0.07,-0.22
9:12:26.272,0.06,-0.22
9:12:26.276,0.06,-0.215
9:12:26.280,0.075,-0.2
9:12:26.284,0.06,-0.16
9:12:26.288,0.035,-0.1
9:12:26.292,0.06,-0.07
9:12:26.296,0.04,-0.04
9:12:26.300,0.0,-0.035
9:12:26.304,-0.01,-0.025
9:12:26.308,-0.015,-0.025
9:12:26.312,0.0,-0.03
9:12:26.316,0.0,-0.05
9:12:26.320,-0.02,-0.04
9:12:26.324,0.0,-0.045
9:12:26.328,0.01,-0.04
9:12:26.332,0.01,-0.02
9:12:26.336,0.0,-0.03
9:12:26.340,0.01,-0.04
9:12:26.344,0.0,-0.08
9:12:26.348,0.0,-0.11
9:12:26.352,-0.015,-0.1
9:12:26.356,-0.015,-0.105
9:12:26.360,0.01,-0.075
9:12:26.364,0.02,-0.08
9:12:26.368,-0.005,-0.06
9:12:26.372,0.02,-0.07
9:12:26.376,-0.005,-0.095
9:12:26.380,0.0,-0.09
9:12:26.384,-0.01,-0.07
9:12:26.388,-0.005,-0.09
9:12:26.392,0.01,-0.06
9:12:26.396,0.0,-0.08
9:12:26.400,0.01,-0.07
9:12:26.404,0.02,-0.05
9:12:26.408,0.0,-0.04
9:12:26.412,0.015,-0.07
9:12:26.416,0.01,-0.065
9:12:26.420,0.03,-0.06
9:12:26.424,0.03,-0.04
9:12:26.428,0.04,-0.02
9:12:26.432,0.035,-0.055
9:12:26.436,0.035,-0.075
9:12:26.440,0.035,-0.07
9:12:26.444,0.05,-0.07
9:12:26.448,0.055,-0.065
9:12:26.452,0.07,-0.04
9:12:26.456,0.035,-0.01
9:12:26.460,0.02,0.005
9:12:26.464,0.04,0.005
9:12:26.468,0.03,0.0
9:12:26.472,0.04,-0.005
9:12:26.476,0.02,-0.025
9:12:26.480,0.04,-0.02
9:12:26.484,0.04,-0.01
9:12:26.488,0.055,0.02
9:12:26.492,0.05,0.025
9:12:26.496,0.07,0.01
9:12:26.500,0.06,0.01
9:12:26.504,0.055,-0.005
9:12:26.508,0.045,0.015
9:12:26.512,0.06,0.02
9:12:26.516,0.06,0.005
9:12:26.520,0.055,0.005
9:12:26.524,0.06,-0.02
9:12:26.528,0.065,-0.03
9:12:26.532,0.06,-0.03
9:12:26.536,0.06,-0.05
9:12:26.540,0.07,-0.03
9:12:26.544,0.065,-0.01
9:12:26.548,0.06,-0.005
9:12:26.552,0.055,0.005
9:12:26.556,0.05,0.01
9:12:26.560,0.045,0.015
9:12:26.564,0.055,-0.01
9:12:26.568,0.06,-0.04
9:12:26.572,0.06,-0.025
9:12:26.576,0.07,-0.02
9:12:26.580,0.07,0.01
9:12:26.584,0.07,0.03
9:12:26.588,0.075,0.05
9:12:26.592,0.025,0.07
9:12:26.596,0.05,0.08
9:12:26.600,0.05,0.08
9:12:26.604,0.025,0.105
9:12:26.608,0.035,0.11
9:12:26.612,0.04,0.105
9:12:26.616,0.055,0.1
9:12:26.620,0.065,0.075
9:12:26.624,0.055,0.06
9:12:26.628,0.05,0.055
9:12:26.632,0.075,0.07
9:12:26.636,0.055,0.075
9:12:26.640,0.075,0.11
9:12:26.644,0.07,0.13
9:12:26.648,0.04,0.14
9:12:26.652,0.04,0.15
9:12:26.656,0.015,0.16
9:12:26.660,0.035,0.215
9:12:26.664,0.045,0.265
9:12:26.668,0.06,0.29
9:12:26.672,0.09,0.305
9:12:26.676,0.1,0.32
9:12:26.680,0.125,0.32
9:12:26.684,0.125,0.31
9:12:26.688,0.14,0.28
9:12:26.692,0.155,0.3
9:12:26.696,0.175,0.29
9:12:26.700,0.2,0.285
9:12:26.704,0.195,0.295
9:12:26.708,0.175,0.29
9:12:26.712,0.155,0.235
9:12:26.716,0.15,0.21
9:12:26.720,0.12,0.2
9:12:26.724,0.08,0.185
9:12:26.728,0.025,0.185
9:12:26.732,0.02,0.16
9:12:26.736,-0.005,0.15
9:12:26.740,-0.015,0.17
9:12:26.744,-0.01,0.225
9:12:26.748,0.0,0.265
9:12:26.752,0.005,0.3
9:12:26.756,-0.005,0.305
9:12:26.760,-0.035,0.31
9:12:26.764,-0.02,0.315
9:12:26.768,-0.05,0.29
9:12:26.772,-0.04,0.275
9:12:26.776,0.0,0.265
9:12:26.780,0.045,0.31
9:12:26.784,0.06,0.31
9:12:26.788,0.095,0.335
9:12:26.792,0.105,0.32
9:12:26.796,0.105,0.34
9:12:26.800,0.085,0.33
9:12:26.804,0.07,0.33
9:12:26.808,0.06,0.335
9:12:26.812,0.065,0.345
9:12:26.816,0.045,0.34
9:12:26.820,0.05,0.355
9:12:26.824,0.09,0.35
9:12:26.828,0.085,0.38
9:12:26.832,0.09,0.465
9:12:26.836,0.08,0.535
9:12:26.840,0.06,0.58
9:12:26.844,0.065,0.66
9:12:26.848,0.06,0.805
9:12:26.852,0.04,1.055
9:12:26.856,0.045,1.385
9:12:26.860,0.07,1.69
9:12:26.864,0.135,1.96
9:12:26.868,0.14,2.1
9:12:26.872,0.12,2.12
9:12:26.876,0.07,1.98
9:12:26.880,0.035,1.59
9:12:26.884,0.015,1.105
9:12:26.888,-0.105,0.62
9:12:26.892,-0.285,0.39
9:12:26.896,-0.55,0.39
9:12:26.900,-0.81,0.39
9:12:26.904,-0.985,0.29
9:12:26.908,-1.08,0.185
9:12:26.912,-1.12,0.11
9:12:26.916,-0.975,0.1
9:12:26.920,-0.72,0.105
9:12:26.924,-0.445,0.18
9:12:26.928,-0.265,0.27
9:12:26.932,-0.18,0.36
9:12:26.936,-0.11,0.4
9:12:26.940,-0.1,0.43
9:12:26.944,-0.08,0.43
9:12:26.948,-0.045,0.42
9:12:26.952,-0.05,0.44
9:12:26.956,0.025,0.435
9:12:26.960,0.08,0.445
9:12:26.964,0.12,0.45
9:12:26.968,0.11,0.46
9:12:26.972,0.11,0.475
9:12:26.976,0.115,0.455
9:12:26.980,0.155,0.445
9:12:26.984,0.115,0.47
9:12:26.988,0.135,0.49
9:12:26.992,0.16,0.5
9:12:26.996,0.125,0.52
9:12:27.000,0.13,0.505
9:12:27.004,0.13,0.52
9:12:27.008,0.14,0.51
9:12:27.012,0.16,0.515
9:12:27.016,0.17,0.515
9:12:27.020,0.165,0.52
9:12:27.024,0.16,0.535
9:12:27.028,0.155,0.515
9:12:27.032,0.155,0.53
9:12:27.036,0.155,0.535
9:12:27.040,0.145,0.54
9:12:27.044,0.14,0.555
9:12:27.048,0.13,0.58
9:12:27.052,0.14,0.57
9:12:27.056,0.13,0.575
9:12:27.060,0.15,0.55
9:12:27.064,0.155,0.525
9:12:27.068,0.145,0.57
9:12:27.072,0.14,0.59
9:12:27.076,0.125,0.64
9:12:27.080,0.135,0.675
9:12:27.084,0.145,0.695
9:12:27.088,0.125,0.69
9:12:27.092,0.135,0.685
9:12:27.096,0.11,0.7
9:12:27.100,0.11,0.73
9:12:27.104,0.135,0.72
9:12:27.108,0.12,0.755
9:12:27.112,0.12,0.75
9:12:27.116,0.125,0.73
9:12:27.120,0.115,0.755
9:12:27.124,0.105,0.765
9:12:27.128,0.115,0.8
9:12:27.132,0.135,0.8
9:12:27.136,0.12,0.81
9:12:27.140,0.085,0.81
9:12:27.144,0.105,0.81
9:12:27.148,0.09,0.845
9:12:27.152,0.09,0.85
9:12:27.156,0.065,0.87
9:12:27.160,0.085,0.9
9:12:27.164,0.07,0.915
9:12:27.168,0.1,0.925
9:12:27.172,0.09,0.92
9:12:27.176,0.06,0.89
9:12:27.180,0.04,0.9
9:12:27.184,0.035,0.92
9:12:27.188,0.035,1.02
9:12:27.192,0.05,1.09
9:12:27.196,0.045,1.14
9:12:27.200,0.05,1.1
9:12:27.204,0.05,1.085
9:12:27.208,0.04,1.08
9:12:27.212,0.05,1.04
9:12:27.216,0.065,1.05
9:12:27.220,0.06,1.035
9:12:27.224,0.08,1.02
9:12:27.228,0.075,1.02
9:12:27.232,0.1,1.01
9:12:27.236,0.09,0.995
9:12:27.240,0.105,0.975
9:12:27.244,0.08,0.945
9:12:27.248,0.06,0.92
9:12:27.252,0.075,0.895
9:12:27.256,0.075,0.875
9:12:27.260,0.065,0.88
9:12:27.264,0.06,0.885
9:12:27.268,0.06,0.88
9:12:27.272,0.07,0.84
9:12:27.276,0.07,0.79
9:12:27.280,0.075,0.77
9:12:27.284,0.095,0.78
9:12:27.288,0.095,0.795
9:12:27.292,0.1,0.815
9:12:27.296,0.065,0.81
9:12:27.300,0.09,0.805
9:12:27.304,0.08,0.79
9:12:27.308,0.055,0.78
9:12:27.312,0.07,0.765
9:12:27.316,0.065,0.76
9:12:27.320,0.09,0.755
9:12:27.324,0.09,0.735
9:12:27.328,0.13,0.73
9:12:27.332,0.095,0.745
9:12:27.336,0.105,0.71
9:12:27.340,0.1,0.72
9:12:27.344,0.1,0.705
9:12:27.348,0.1,0.68
9:12:27.352,0.095,0.69
9:12:27.356,0.085,0.7
9:12:27.360,0.085,0.685
9:12:27.364,0.09,0.655
9:12:27.368,0.085,0.61
9:12:27.372,0.105,0.6
9:12:27.376,0.065,0.6
9:12:27.380,0.08,0.58
9:12:27.384,0.085,0.575
9:12:27.388,0.085,0.55
9:12:27.392,0.07,0.54
9:12:27.396,0.065,0.515
9:12:27.400,0.085,0.52
9:12:27.404,0.085,0.5
9:12:27.408,0.11,0.465
9:12:27.412,0.055,0.435
9:12:27.416,0.07,0.43
9:12:27.420,0.07,0.43
9:12:27.424,0.07,0.415
9:12:27.428,0.075,0.41
9:12:27.432,0.07,0.395
9:12:27.436,0.045,0.395
9:12:27.440,0.055,0.39
9:12:27.444,0.065,0.39
9:12:27.448,0.05,0.36
9:12:27.452,0.075,0.34
9:12:27.456,0.08,0.35
9:12:27.460,0.07,0.32
9:12:27.464,0.04,0.3
9:12:27.468,0.05,0.305
9:12:27.472,0.05,0.305
9:12:27.476,0.075,0.28
9:12:27.480,0.06,0.255
9:12:27.484,0.045,0.275
9:12:27.488,0.07,0.26
9:12:27.492,0.055,0.245
9:12:27.496,0.04,0.235
9:12:27.500,0.05,0.23
9:12:27.504,0.05,0.24
9:12:27.508,0.06,0.24
9:12:27.512,0.05,0.245
9:12:27.516,0.04,0.215
9:12:27.520,0.045,0.205
9:12:27.524,0.04,0.19
9:12:27.528,0.055,0.15
9:12:27.532,0.055,0.15
9:12:27.536,0.06,0.165
9:12:27.540,0.075,0.165
9:12:27.544,0.1,0.16
9:12:27.548,0.12,0.16
9:12:27.552,0.125,0.155
9:12:27.556,0.145,0.13
9:12:27.560,0.165,0.135
9:12:27.564,0.165,0.11
9:12:27.568,0.16,0.09
9:12:27.572,0.17,0.105
9:12:27.576,0.135,0.065
9:12:27.580,0.125,0.05
9:12:27.584,0.125,0.0
9:12:27.588,0.09,-0.025
9:12:27.592,0.03,-0.05
9:12:27.596,0.015,-0.055
9:12:27.600,0.015,-0.065
9:12:27.604,-0.005,-0.035
9:12:27.608,0.01,-0.04
9:12:27.612,0.0,-0.025
9:12:27.616,-0.015,-0.03
9:12:27.620,-0.03,-0.025
9:12:27.624,-0.025,-0.03
9:12:27.628,0.0,-0.04
9:12:27.632,0.015,-0.045
9:12:27.636,0.02,-0.08
9:12:27.640,0.035,-0.1
9:12:27.644,0.02,-0.12
9:12:27.648,0.02,-0.125
9:12:27.652,0.045,-0.13
9:12:27.656,0.08,-0.135
9:12:27.660,0.08,-0.125
9:12:27.664,0.075,-0.14
9:12:27.668,0.065,-0.135
9:12:27.672,0.045,-0.14
9:12:27.676,0.045,-0.13
9:12:27.680,0.055,-0.15
9:12:27.684,0.06,-0.155
9:12:27.688,0.05,-0.155
9:12:27.692,0.07,-0.155
9:12:27.696,0.065,-0.125
9:12:27.700,0.045,-0.11
9:12:27.704,0.055,-0.06
9:12:27.708,0.07,-0.01
9:12:27.712,0.035,0.095
9:12:27.716,0.05,0.255
9:12:27.720,0.065,0.54
9:12:27.724,0.04,0.925
9:12:27.728,0.055,1.3
9:12:27.732,0.095,1.63
9:12:27.736,0.085,1.895
9:12:27.740,0.085,2.035
9:12:27.744,0.055,1.995
9:12:27.748,0.015,1.66
9:12:27.752,0.0,1.045
9:12:27.756,-0.07,0.375
9:12:27.760,-0.235,-0.085
9:12:27.764,-0.46,-0.27
9:12:27.768,-0.72,-0.285
9:12:27.772,-0.91,-0.37
9:12:27.776,-1.045,-0.515
9:12:27.780,-1.075,-0.62
9:12:27.784,-1.015,-0.645
9:12:27.788,-0.81,-0.66
9:12:27.792,-0.54,-0.6
9:12:27.796,-0.325,-0.5
9:12:27.800,-0.185,-0.4
9:12:27.804,-0.16,-0.33
9:12:27.808,-0.13,-0.325
9:12:27.812,-0.115,-0.32
9:12:27.816,-0.1,-0.31
9:12:27.820,-0.09,-0.33
9:12:27.824,-0.05,-0.3
9:12:27.828,0.03,-0.31
9:12:27.832,0.06,-0.29
9:12:27.836,0.095,-0.28
9:12:27.840,0.1,-0.285
9:12:27.844,0.12,-0.285
9:12:27.848,0.105,-0.31
9:12:27.852,0.105,-0.3
9:12:27.856,0.125,-0.3
9:12:27.860,0.115,-0.305
9:12:27.864,0.12,-0.295
9:12:27.868,0.13,-0.27
9:12:27.872,0.125,-0.28
9:12:27.876,0.15,-0.285
9:12:27.880,0.12,-0.285
9:12:27.884,0.125,-0.275
9:12:27.888,0.135,-0.285
9:12:27.892,0.145,-0.275
9:12:27.896,0.15,-0.295
9:12:27.900,0.13,-0.285
9:12:27.904,0.145,-0.275
9:12:27.908,0.145,-0.3
9:12:27.912,0.15,-0.3
9:12:27.916,0.135,-0.285
9:12:27.920,0.145,-0.3
9:12:27.924,0.135,-0.295
9:12:27.928,0.15,-0.275
9:12:27.932,0.14,-0.285
9:12:27.936,0.15,-0.3
9:12:27.940,0.14,-0.29
9:12:27.944,0.165,-0.3
9:12:27.948,0.14,-0.29
9:12:27.952,0.13,-0.3
9:12:27.956,0.135,-0.31
9:12:27.960,0.13,-0.32
9:12:27.964,0.145,-0.34
9:12:27.968,0.13,-0.31
9:12:27.972,0.135,-0.32
9:12:27.976,0.145,-0.32
9:12:27.980,0.135,-0.305
9:12:27.984,0.13,-0.325
9:12:27.988,0.105,-0.335
9:12:27.992,0.15,-0.31
9:12:27.996,0.125,-0.295
9:12:28.000,0.145,-0.285
9:12:28.004,0.115,-0.28
9:12:28.008,0.105,-0.265
9:12:28.012,0.115,-0.235
9:12:28.016,0.115,-0.21
9:12:28.020,0.115,-0.195
9:12:28.024,0.105,-0.165
9:12:28.028,0.105,-0.15
9:12:28.032,0.105,-0.1
9:12:28.036,0.095,-0.1
9:12:28.040,0.11,-0.08
9:12:28.044,0.11,-0.075
9:12:28.048,0.095,-0.07
9:12:28.052,0.095,-0.07
9:12:28.056,0.065,-0.065
9:12:28.060,0.08,-0.075
9:12:28.064,0.07,-0.06
9:12:28.068,0.08,-0.075
9:12:28.072,0.095,-0.08
9:12:28.076,0.1,-0.115
9:12:28.080,0.09,-0.11
9:12:28.084,0.085,-0.105
9:12:28.088,0.075,-0.115
9:12:28.092,0.1,-0.115
9:12:28.096,0.06,-0.11
9:12:28.100,0.065,-0.125
9:12:28.104,0.085,-0.13
9:12:28.108,0.08,-0.14
9:12:28.112,0.07,-0.165
9:12:28.116,0.065,-0.16
9:12:28.120,0.095,-0.155
9:12:28.124,0.09,-0.17
9:12:28.128,0.085,-0.18
9:12:28.132,0.065,-0.195
9:12:28.136,0.075,-0.2
9:12:28.140,0.095,-0.215
9:12:28.144,0.08,-0.205
9:12:28.148,0.08,-0.205
9:12:28.152,0.09,-0.19
9:12:28.156,0.085,-0.185
9:12:28.160,0.08,-0.21
9:12:28.164,0.065,-0.205
9:12:28.168,0.08,-0.225
9:12:28.172,0.1,-0.235
9:12:28.176,0.095,-0.24
9:12:28.180,0.105,-0.225
9:12:28.184,0.08,-0.22
9:12:28.188,0.1,-0.22
9:12:28.192,0.095,-0.2
9:12:28.196,0.13,-0.21
9:12:28.200,0.105,-0.215
9:12:28.204,0.085,-0.22
9:12:28.208,0.12,-0.225
9:12:28.212,0.11,-0.255
9:12:28.216,0.125,-0.28
9:12:28.220,0.105,-0.25
9:12:28.224,0.115,-0.245
9:12:28.228,0.105,-0.22
9:12:28.232,0.09,-0.205
9:12:28.236,0.1,-0.185
9:12:28.240,0.075,-0.2
9:12:28.244,0.105,-0.22
9:12:28.248,0.145,-0.21
9:12:28.252,0.135,-0.2
9:12:28.256,0.13,-0.215
9:12:28.260,0.115,-0.22
9:12:28.264,0.115,-0.22
9:12:28.268,0.095,-0.19
9:12:28.272,0.12,-0.2
9:12:28.276,0.095,-0.23
9:12:28.280,0.075,-0.24
9:12:28.284,0.09,-0.255
9:12:28.288,0.1,-0.245
9:12:28.292,0.085,-0.235
9:12:28.296,0.075,-0.23
9:12:28.300,0.095,-0.22
9:12:28.304,0.1,-0.235
9:12:28.308,0.09,-0.24
9:12:28.312,0.09,-0.24
9:12:28.316,0.1,-0.245
9:12:28.320,0.075,-0.235
9:12:28.324,0.095,-0.235
9:12:28.328,0.115,-0.245
9:12:28.332,0.09,-0.255
9:12:28.336,0.09,-0.24
9:12:28.340,0.08,-0.255
9:12:28.344,0.09,-0.25
9:12:28.348,0.09,-0.275
9:12:28.352,0.065,-0.245
9:12:28.356,0.08,-0.24
9:12:28.360,0.1,-0.26
9:12:28.364,0.095,-0.255
9:12:28.368,0.09,-0.25
9:12:28.372,0.095,-0.205
9:12:28.376,0.065,-0.17
9:12:28.380,0.075,-0.145
9:12:28.384,0.085,-0.115
9:12:28.388,0.075,-0.1
9:12:28.392,0.095,-0.04
9:12:28.396,0.105,-0.02
9:12:28.400,0.105,-0.035
9:12:28.404,0.15,-0.01
9:12:28.408,0.155,-0.025
9:12:28.412,0.18,-0.02
9:12:28.416,0.175,-0.03
9:12:28.420,0.21,-0.04
9:12:28.424,0.21,-0.04
9:12:28.428,0.24,-0.025
9:12:28.432,0.21,-0.045
9:12:28.436,0.19,-0.01
9:12:28.440,0.165,-0.02
9:12:28.444,0.165,-0.04
9:12:28.448,0.125,-0.08
9:12:28.452,0.105,-0.1
9:12:28.456,0.09,-0.105
9:12:28.460,0.075,-0.095
9:12:28.464,0.085,-0.065
9:12:28.468,0.07,-0.045
9:12:28.472,0.055,-0.045
9:12:28.476,0.06,-0.065
9:12:28.480,0.05,-0.06
9:12:28.484,0.045,-0.085
9:12:28.488,0.06,-0.07
9:12:28.492,0.055,-0.08
9:12:28.496,0.065,-0.11
9:12:28.500,0.08,-0.13
9:12:28.504,0.095,-0.18
9:12:28.508,0.09,-0.195
9:12:28.512,0.1,-0.18
9:12:28.516,0.12,-0.17
9:12:28.520,0.135,-0.175
9:12:28.524,0.15,-0.175
9:12:28.528,0.14,-0.18
9:12:28.532,0.13,-0.17
9:12:28.536,0.11,-0.15
9:12:28.540,0.13,-0.17
9:12:28.544,0.15,-0.16
9:12:28.548,0.115,-0.165
9:12:28.552,0.115,-0.145
9:12:28.556,0.12,-0.12
9:12:28.560,0.13,-0.105
9:12:28.564,0.125,-0.06
9:12:28.568,0.135,-0.02
9:12:28.572,0.125,0.065
9:12:28.576,0.135,0.26
9:12:28.580,0.15,0.605
9:12:28.584,0.135,1.01
9:12:28.588,0.135,1.405
9:12:28.592,0.155,1.755
9:12:28.596,0.2,2.03
9:12:28.600,0.195,2.165
9:12:28.604,0.16,2.04
9:12:28.608,0.14,1.615
9:12:28.612,0.13,0.955
9:12:28.616,0.035,0.275
9:12:28.620,-0.15,-0.15
9:12:28.624,-0.39,-0.295
9:12:28.628,-0.665,-0.29
9:12:28.632,-0.87,-0.41
9:12:28.636,-0.96,-0.57
9:12:28.640,-0.995,-0.655
9:12:28.644,-0.925,-0.69
9:12:28.648,-0.7,-0.665
9:12:28.652,-0.45,-0.625
9:12:28.656,-0.235,-0.52
9:12:28.660,-0.13,-0.425
9:12:28.664,-0.09,-0.37
9:12:28.668,-0.04,-0.36
9:12:28.672,-0.05,-0.33
9:12:28.676,-0.02,-0.32
9:12:28.680,-0.005,-0.345
9:12:28.684,0.05,-0.345
9:12:28.688,0.12,-0.34
9:12:28.692,0.14,-0.35
9:12:28.696,0.175,-0.345
9:12:28.700,0.155,-0.34
9:12:28.704,0.155,-0.34
9:12:28.708,0.175,-0.35
9:12:28.712,0.195,-0.335
9:12:28.716,0.205,-0.32
9:12:28.720,0.195,-0.34
9:12:28.724,0.185,-0.32
9:12:28.728,0.18,-0.325
9:12:28.732,0.2,-0.34
9:12:28.736,0.2,-0.33
9:12:28.740,0.205,-0.335
9:12:28.744,0.21,-0.33
9:12:28.748,0.195,-0.32
9:12:28.752,0.2,-0.31
9:12:28.756,0.22,-0.33
9:12:28.760,0.185,-0.32
9:12:28.764,0.205,-0.34
9:12:28.768,0.225,-0.34
9:12:28.772,0.225,-0.335
9:12:28.776,0.215,-0.355
9:12:28.780,0.225,-0.345
9:12:28.784,0.215,-0.355
9:12:28.788,0.21,-0.355
9:12:28.792,0.21,-0.35
9:12:28.796,0.22,-0.355
9:12:28.800,0.195,-0.335
9:12:28.804,0.205,-0.345
9:12:28.808,0.2,-0.33
9:12:28.812,0.21,-0.35
9:12:28.816,0.2,-0.34
9:12:28.820,0.2,-0.335
9:12:28.824,0.205,-0.34
9:12:28.828,0.215,-0.36
9:12:28.832,0.22,-0.345
9:12:28.836,0.215,-0.34
9:12:28.840,0.19,-0.34
9:12:28.844,0.185,-0.32
9:12:28.848,0.175,-0.33
9:12:28.852,0.19,-0.32
9:12:28.856,0.195,-0.3
9:12:28.860,0.185,-0.27
9:12:28.864,0.19,-0.245
9:12:28.868,0.175,-0.225
9:12:28.872,0.185,-0.18
9:12:28.876,0.185,-0.16
9:12:28.880,0.18,-0.115
9:12:28.884,0.155,-0.1
9:12:28.888,0.155,-0.08
9:12:28.892,0.145,-0.08
9:12:28.896,0.15,-0.09
9:12:28.900,0.14,-0.055
9:12:28.904,0.145,-0.055
9:12:28.908,0.15,-0.045
9:12:28.912,0.13,-0.04
9:12:28.916,0.115,-0.075
9:12:28.920,0.14,-0.075
9:12:28.924,0.13,-0.08
9:12:28.928,0.13,-0.1
9:12:28.932,0.115,-0.095
9:12:28.936,0.135,-0.1
9:12:28.940,0.1,-0.095
9:12:28.944,0.095,-0.1
9:12:28.948,0.095,-0.1
9:12:28.952,0.11,-0.105
9:12:28.956,0.095,-0.095
9:12:28.960,0.105,-0.1
9:12:28.964,0.12,-0.11
9:12:28.968,0.105,-0.12
9:12:28.972,0.105,-0.125
9:12:28.976,0.1,-0.13
9:12:28.980,0.1,-0.125
9:12:28.984,0.085,-0.115
9:12:28.988,0.095,-0.145
9:12:28.992,0.105,-0.135
9:12:28.996,0.125,-0.135
9:12:29.000,0.105,-0.14
9:12:29.004,0.115,-0.125
9:12:29.008,0.095,-0.16
9:12:29.012,0.105,-0.165
9:12:29.016,0.09,-0.16
9:12:29.020,0.095,-0.15
9:12:29.024,0.1,-0.16
9:12:29.028,0.12,-0.16
9:12:29.032,0.11,-0.165
9:12:29.036,0.11,-0.165
9:12:29.040,0.11,-0.18
9:12:29.044,0.1,-0.17
9:12:29.048,0.11,-0.175
9:12:29.052,0.125,-0.175
9:12:29.056,0.11,-0.17
9:12:29.060,0.11,-0.16
9:12:29.064,0.12,-0.18
9:12:29.068,0.135,-0.165
9:12:29.072,0.105,-0.165
9:12:29.076,0.14,-0.17
9:12:29.080,0.12,-0.17
9:12:29.084,0.12,-0.175
9:12:29.088,0.115,-0.16
9:12:29.092,0.105,-0.14
9:12:29.096,0.13,-0.17
9:12:29.100,0.12,-0.17
9:12:29.104,0.11,-0.175
9:12:29.108,0.105,-0.175
9:12:29.112,0.105,-0.17
9:12:29.116,0.1,-0.175
9:12:29.120,0.11,-0.18
9:12:29.124,0.105,-0.17
9:12:29.128,0.09,-0.185
9:12:29.132,0.08,-0.155
9:12:29.136,0.085,-0.175
9:12:29.140,0.085,-0.17
9:12:29.144,0.08,-0.165
9:12:29.148,0.085,-0.175
9:12:29.152,0.08,-0.185
9:12:29.156,0.095,-0.17
9:12:29.160,0.07,-0.165
9:12:29.164,0.075,-0.17
9:12:29.168,0.075,-0.185
9:12:29.172,0.085,-0.19
9:12:29.176,0.075,-0.185
9:12:29.180,0.07,-0.185
9:12:29.184,0.09,-0.19
9:12:29.188,0.065,-0.18
9:12:29.192,0.065,-0.175
9:12:29.196,0.06,-0.18
9:12:29.200,0.06,-0.19
9:12:29.204,0.065,-0.185
9:12:29.208,0.07,-0.175
9:12:29.212,0.06,-0.18
9:12:29.216,0.07,-0.185
9:12:29.220,0.075,-0.2
9:12:29.224,0.06,-0.215
9:12:29.228,0.055,-0.2
9:12:29.232,0.035,-0.175
9:12:29.236,0.065,-0.13
9:12:29.240,0.07,-0.1
9:12:29.244,0.075,-0.08
9:12:29.248,0.05,-0.045
9:12:29.252,0.065,-0.01
9:12:29.256,0.07,0.0
9:12:29.260,0.08,0.0
9:12:29.264,0.105,0.0
9:12:29.268,0.105,0.0
9:12:29.272,0.145,0.01
9:12:29.276,0.165,0.0
9:12:29.280,0.18,0.0
9:12:29.284,0.18,0.0
9:12:29.288,0.185,-0.005
9:12:29.292,0.165,-0.015
9:12:29.296,0.145,-0.045
9:12:29.300,0.14,-0.085
9:12:29.304,0.1,-0.12
9:12:29.308,0.07,-0.17
9:12:29.312,0.05,-0.175
9:12:29.316,0.035,-0.175
9:12:29.320,0.03,-0.165
9:12:29.324,0.015,-0.15
9:12:29.328,0.02,-0.125
9:12:29.332,-0.025,-0.13
9:12:29.336,-0.02,-0.12
9:12:29.340,-0.01,-0.125
9:12:29.344,-0.055,-0.135
9:12:29.348,0.005,-0.16
9:12:29.352,0.01,-0.17
9:12:29.356,0.015,-0.18
9:12:29.360,0.005,-0.19
9:12:29.364,0.03,-0.235
9:12:29.368,0.04,-0.23
9:12:29.372,0.025,-0.235
9:12:29.376,0.045,-0.24
9:12:29.380,0.065,-0.24
9:12:29.384,0.08,-0.245
9:12:29.388,0.08,-0.245
9:12:29.392,0.07,-0.255
9:12:29.396,0.07,-0.24
9:12:29.400,0.045,-0.265
9:12:29.404,0.07,-0.24
9:12:29.408,0.065,-0.245
9:12:29.412,0.04,-0.255
9:12:29.416,0.055,-0.25
9:12:29.420,0.06,-0.265
9:12:29.424,0.05,-0.255
9:12:29.428,0.045,-0.2
9:12:29.432,0.065,-0.14
9:12:29.436,0.015,-0.07
9:12:29.440,0.03,0.115
9:12:29.444,0.035,0.42
9:12:29.448,0.045,0.8
9:12:29.452,0.085,1.185
9:12:29.456,0.075,1.5
9:12:29.460,0.1,1.76
9:12:29.464,0.11,1.875
9:12:29.468,0.075,1.76
9:12:29.472,0.06,1.36
9:12:29.476,0.025,0.72
9:12:29.480,-0.065,0.06
9:12:29.484,-0.22,-0.425
9:12:29.488,-0.49,-0.585
9:12:29.492,-0.715,-0.55
9:12:29.496,-0.93,-0.63
9:12:29.500,-1.075,-0.75
9:12:29.504,-1.12,-0.88
9:12:29.508,-1.06,-0.925
9:12:29.512,-0.875,-0.945
9:12:29.516,-0.595,-0.895
9:12:29.520,-0.365,-0.82
9:12:29.524,-0.22,-0.715
9:12:29.528,-0.18,-0.625
9:12:29.532,-0.15,-0.59
9:12:29.536,-0.115,-0.555
9:12:29.540,-0.11,-0.545
9:12:29.544,-0.08,-0.565
9:12:29.548,-0.015,-0.565
9:12:29.552,0.01,-0.59
9:12:29.556,0.085,-0.57
9:12:29.560,0.105,-0.575
9:12:29.564,0.125,-0.555
9:12:29.568,0.125,-0.555
9:12:29.572,0.12,-0.545
9:12:29.576,0.13,-0.53
9:12:29.580,0.12,-0.535
9:12:29.584,0.145,-0.555
9:12:29.588,0.155,-0.54
9:12:29.592,0.165,-0.545
9:12:29.596,0.155,-0.525
9:12:29.600,0.16,-0.545
9:12:29.604,0.145,-0.54
9:12:29.608,0.165,-0.505
9:12:29.612,0.165,-0.53
9:12:29.616,0.175,-0.53
9:12:29.620,0.195,-0.52
9:12:29.624,0.18,-0.52
9:12:29.628,0.17,-0.52
9:12:29.632,0.175,-0.52
9:12:29.636,0.19,-0.51
9:12:29.640,0.18,-0.51
9:12:29.644,0.185,-0.54
9:12:29.648,0.165,-0.545
9:12:29.652,0.17,-0.565
9:12:29.656,0.17,-0.57
9:12:29.660,0.175,-0.56
9:12:29.664,0.19,-0.56
9:12:29.668,0.17,-0.55
9:12:29.672,0.175,-0.555
9:12:29.676,0.19,-0.56
9:12:29.680,0.185,-0.555
9:12:29.684,0.175,-0.555
9:12:29.688,0.185,-0.565
9:12:29.692,0.175,-0.56
9:12:29.696,0.175,-0.565
9:12:29.700,0.185,-0.575
9:12:29.704,0.185,-0.57
9:12:29.708,0.185,-0.565
9:12:29.712,0.155,-0.575
9:12:29.716,0.18,-0.545
9:12:29.720,0.15,-0.535
9:12:29.724,0.165,-0.535
9:12:29.728,0.16,-0.5
9:12:29.732,0.155,-0.495
9:12:29.736,0.15,-0.49
9:12:29.740,0.15,-0.44
9:12:29.744,0.13,-0.425
9:12:29.748,0.145,-0.4
9:12:29.752,0.13,-0.38
9:12:29.756,0.145,-0.355
9:12:29.760,0.12,-0.35
9:12:29.764,0.105,-0.345
9:12:29.768,0.11,-0.315
9:12:29.772,0.135,-0.31
9:12:29.776,0.1,-0.3
9:12:29.780,0.085,-0.315
9:12:29.784,0.09,-0.305
9:12:29.788,0.095,-0.325
9:12:29.792,0.09,-0.325
9:12:29.796,0.095,-0.34
9:12:29.800,0.1,-0.355
9:12:29.804,0.09,-0.36
9:12:29.808,0.09,-0.35
9:12:29.812,0.11,-0.375
9:12:29.816,0.085,-0.37
9:12:29.820,0.105,-0.365
9:12:29.824,0.105,-0.395
9:12:29.828,0.085,-0.39
9:12:29.832,0.075,-0.395
9:12:29.836,0.08,-0.41
9:12:29.840,0.1,-0.395
9:12:29.844,0.09,-0.4
9:12:29.848,0.105,-0.415
9:12:29.852,0.115,-0.415
9:12:29.856,0.09,-0.43
9:12:29.860,0.1,-0.43
9:12:29.864,0.11,-0.43
9:12:29.868,0.09,-0.44
9:12:29.872,0.135,-0.43
9:12:29.876,0.115,-0.425
9:12:29.880,0.11,-0.44
9:12:29.884,0.085,-0.435
9:12:29.888,0.12,-0.43
9:12:29.892,0.11,-0.42
9:12:29.896,0.125,-0.43
9:12:29.900,0.12,-0.445
9:12:29.904,0.115,-0.455
9:12:29.908,0.11,-0.455
9:12:29.912,0.13,-0.46
9:12:29.916,0.11,-0.455
9:12:29.920,0.14,-0.48
9:12:29.924,0.125,-0.46
9:12:29.928,0.13,-0.46
9:12:29.932,0.115,-0.455
9:12:29.936,0.12,-0.465
9:12:29.940,0.125,-0.475
9:12:29.944,0.105,-0.475
9:12:29.948,0.125,-0.48
9:12:29.952,0.13,-0.455
9:12:29.956,0.13,-0.465
9:12:29.960,0.13,-0.465
9:12:29.964,0.135,-0.475
9:12:29.968,0.14,-0.475
9:12:29.972,0.135,-0.465
9:12:29.976,0.115,-0.47
9:12:29.980,0.11,-0.47
9:12:29.984,0.13,-0.475
9:12:29.988,0.125,-0.45
9:12:29.992,0.11,-0.455
9:12:29.996,0.11,-0.435
9:12:30.000,0.12,-0.43
9:12:30.004,0.105,-0.44
9:12:30.008,0.115,-0.445
9:12:30.012,0.115,-0.435
9:12:30.016,0.115,-0.435
9:12:30.020,0.105,-0.44
9:12:30.024,0.11,-0.45
9:12:30.028,0.1,-0.435
9:12:30.032,0.11,-0.435
9:12:30.036,0.125,-0.44
9:12:30.040,0.115,-0.445
9:12:30.044,0.1,-0.45
9:12:30.048,0.105,-0.435
9:12:30.052,0.09,-0.435
9:12:30.056,0.095,-0.42
9:12:30.060,0.1,-0.42
9:12:30.064,0.075,-0.43
9:12:30.068,0.085,-0.405
9:12:30.072,0.085,-0.44
9:12:30.076,0.08,-0.45
9:12:30.080,0.1,-0.44
9:12:30.084,0.095,-0.435
9:12:30.088,0.09,-0.44
9:12:30.092,0.08,-0.44
9:12:30.096,0.085,-0.435
9:12:30.100,0.085,-0.44
9:12:30.104,0.065,-0.435
9:12:30.108,0.085,-0.43
9:12:30.112,0.07,-0.405
9:12:30.116,0.065,-0.37
9:12:30.120,0.055,-0.345
9:12:30.124,0.06,-0.315
9:12:30.128,0.06,-0.265
9:12:30.132,0.06,-0.25
9:12:30.136,0.08,-0.23
9:12:30.140,0.08,-0.21
9:12:30.144,0.105,-0.18
9:12:30.148,0.11,-0.16
9:12:30.152,0.145,-0.155
9:12:30.156,0.175,-0.17
9:12:30.160,0.19,-0.185
9:12:30.164,0.18,-0.185
9:12:30.168,0.18,-0.18
9:12:30.172,0.155,-0.21
9:12:30.176,0.145,-0.235
9:12:30.180,0.15,-0.25
9:12:30.184,0.115,-0.3
9:12:30.188,0.085,-0.315
9:12:30.192,0.05,-0.35
9:12:30.196,0.01,-0.36
9:12:30.200,0.02,-0.37
9:12:30.204,0.015,-0.36
9:12:30.208,-0.015,-0.33
9:12:30.212,0.0,-0.315
9:12:30.216,-0.01,-0.33
9:12:30.220,0.0,-0.34
9:12:30.224,-0.01,-0.33
9:12:30.228,-0.005,-0.345
9:12:30.232,0.01,-0.34
9:12:30.236,0.005,-0.365
9:12:30.240,0.01,-0.395
9:12:30.244,0.02,-0.425
9:12:30.248,0.015,-0.465
9:12:30.252,0.025,-0.46
9:12:30.256,0.045,-0.45
9:12:30.260,0.06,-0.47
9:12:30.264,0.1,-0.445
9:12:30.268,0.095,-0.47
9:12:30.272,0.1,-0.45
9:12:30.276,0.065,-0.475
9:12:30.280,0.07,-0.455
9:12:30.284,0.095,-0.44
9:12:30.288,0.07,-0.44
9:12:30.292,0.065,-0.44
9:12:30.296,0.07,-0.44
9:12:30.300,0.075,-0.435
9:12:30.304,0.075,-0.41
9:12:30.308,0.105,-0.395
9:12:30.312,0.055,-0.335
9:12:30.316,0.065,-0.28
9:12:30.320,0.075,-0.175
9:12:30.324,0.075,-0.01
9:12:30.328,0.085,0.295
9:12:30.332,0.08,0.64
9:12:30.336,0.1,0.995
9:12:30.340,0.13,1.235
9:12:30.344,0.15,1.445
9:12:30.348,0.1,1.46
9:12:30.352,0.09,1.265
9:12:30.356,0.055,0.85
9:12:30.360,0.005,0.21
9:12:30.364,-0.07,-0.36
9:12:30.368,-0.26,-0.61
9:12:30.372,-0.57,-0.62
9:12:30.376,-0.83,-0.585
9:12:30.380,-1.03,-0.7
9:12:30.384,-1.135,-0.83
9:12:30.388,-1.14,-0.935
9:12:30.392,-1.005,-0.95
9:12:30.396,-0.72,-0.96
9:12:30.400,-0.43,-0.905
9:12:30.404,-0.22,-0.81
9:12:30.408,-0.135,-0.675
9:12:30.412,-0.115,-0.61
9:12:30.416,-0.11,-0.58
9:12:30.420,-0.095,-0.58
9:12:30.424,-0.075,-0.59
9:12:30.428,-0.035,-0.6
9:12:30.432,0.01,-0.585
9:12:30.436,0.045,-0.585
9:12:30.440,0.1,-0.565
9:12:30.444,0.13,-0.6
9:12:30.448,0.155,-0.585
9:12:30.452,0.155,-0.58
9:12:30.456,0.155,-0.6
9:12:30.460,0.16,-0.575
9:12:30.464,0.155,-0.59
9:12:30.468,0.16,-0.58
9:12:30.472,0.155,-0.585
9:12:30.476,0.155,-0.575
9:12:30.480,0.175,-0.555
9:12:30.484,0.185,-0.56
9:12:30.488,0.165,-0.535
9:12:30.492,0.19,-0.525
9:12:30.496,0.18,-0.545
9:12:30.500,0.2,-0.545
9:12:30.504,0.175,-0.57
9:12:30.508,0.18,-0.555
9:12:30.512,0.185,-0.56
9:12:30.516,0.17,-0.56
9:12:30.520,0.19,-0.55
9:12:30.524,0.2,-0.535
9:12:30.528,0.18,-0.525
9:12:30.532,0.175,-0.54
9:12:30.536,0.17,-0.55
9:12:30.540,0.2,-0.545
9:12:30.544,0.19,-0.545
9:12:30.548,0.18,-0.55
9:12:30.552,0.195,-0.54
9:12:30.556,0.2,-0.525
9:12:30.560,0.2,-0.525
9:12:30.564,0.195,-0.53
9:12:30.568,0.195,-0.54
9:12:30.572,0.185,-0.525
9:12:30.576,0.185,-0.525
9:12:30.580,0.185,-0.52
9:12:30.584,0.185,-0.52
9:12:30.588,0.19,-0.52
9:12:30.592,0.185,-0.51
9:12:30.596,0.155,-0.5
9:12:30.600,0.18,-0.5
9:12:30.604,0.16,-0.485
9:12:30.608,0.18,-0.465
9:12:30.612,0.165,-0.455
9:12:30.616,0.165,-0.44
9:12:30.620,0.16,-0.415
9:12:30.624,0.155,-0.37
9:12:30.628,0.165,-0.375
9:12:30.632,0.155,-0.345
9:12:30.636,0.13,-0.325
9:12:30.640,0.13,-0.29
9:12:30.644,0.12,-0.29
9:12:30.648,0.12,-0.29
9:12:30.652,0.11,-0.285
9:12:30.656,0.115,-0.27
9:12:30.660,0.11,-0.28
9:12:30.664,0.125,-0.27
9:12:30.668,0.1,-0.275
9:12:30.672,0.115,-0.265
9:12:30.676,0.1,-0.275
9:12:30.680,0.105,-0.285
9:12:30.684,0.1,-0.285
9:12:30.688,0.11,-0.295
9:12:30.692,0.105,-0.3
9:12:30.696,0.115,-0.305
9:12:30.700,0.1,-0.31
9:12:30.704,0.1,-0.325
9:12:30.708,0.125,-0.32
9:12:30.712,0.125,-0.345
9:12:30.716,0.13,-0.35
9:12:30.720,0.105,-0.33
9:12:30.724,0.11,-0.33
9:12:30.728,0.13,-0.33
9:12:30.732,0.105,-0.35
9:12:30.736,0.12,-0.35
9:12:30.740,0.1,-0.365
9:12:30.744,0.12,-0.385
9:12:30.748,0.11,-0.38
9:12:30.752,0.105,-0.365
9:12:30.756,0.11,-0.365
9:12:30.760,0.105,-0.36
9:12:30.764,0.13,-0.36
9:12:30.768,0.11,-0.365
9:12:30.772,0.1,-0.355
9:12:30.776,0.11,-0.375
9:12:30.780,0.11,-0.365
9:12:30.784,0.13,-0.375
9:12:30.788,0.12,-0.365
9:12:30.792,0.135,-0.365
9:12:30.796,0.14,-0.37
9:12:30.800,0.125,-0.385
9:12:30.804,0.125,-0.37
9:12:30.808,0.12,-0.365
9:12:30.812,0.125,-0.365
9:12:30.816,0.115,-0.35
9:12:30.820,0.12,-0.365
9:12:30.824,0.13,-0.335
9:12:30.828,0.115,-0.34
9:12:30.832,0.135,-0.355
9:12:30.836,0.115,-0.34
9:12:30.840,0.13,-0.345
9:12:30.844,0.115,-0.365
9:12:30.848,0.13,-0.335
9:12:30.852,0.12,-0.33
9:12:30.856,0.13,-0.35
9:12:30.860,0.135,-0.34
9:12:30.864,0.13,-0.325
9:12:30.868,0.115,-0.33
9:12:30.872,0.105,-0.33
9:12:30.876,0.12,-0.35
9:12:30.880,0.1,-0.355
9:12:30.884,0.08,-0.33
9:12:30.888,0.09,-0.34
9:12:30.892,0.085,-0.335
9:12:30.896,0.095,-0.33
9:12:30.900,0.075,-0.33
9:12:30.904,0.09,-0.325
9:12:30.908,0.1,-0.32
9:12:30.912,0.085,-0.34
9:12:30.916,0.085,-0.315
9:12:30.920,0.065,-0.31
9:12:30.924,0.09,-0.33
9:12:30.928,0.08,-0.34
9:12:30.932,0.07,-0.33
9:12:30.936,0.075,-0.325
9:12:30.940,0.075,-0.335
9:12:30.944,0.06,-0.315
9:12:30.948,0.07,-0.31
9:12:30.952,0.075,-0.335
9:12:30.956,0.065,-0.335
9:12:30.960,0.065,-0.34
9:12:30.964,0.06,-0.33
9:12:30.968,0.065,-0.355
9:12:30.972,0.05,-0.33
9:12:30.976,0.055,-0.32
9:12:30.980,0.055,-0.255
9:12:30.984,0.07,-0.22
9:12:30.988,0.065,-0.195
9:12:30.992,0.06,-0.15
9:12:30.996,0.065,-0.13
9:12:31.000,0.07,-0.125
9:12:31.004,0.09,-0.14
9:12:31.008,0.105,-0.115
9:12:31.012,0.115,-0.09
9:12:31.016,0.155,-0.09
9:12:31.020,0.185,-0.085
9:12:31.024,0.18,-0.09
9:12:31.028,0.185,-0.11
9:12:31.032,0.205,-0.115
9:12:31.036,0.185,-0.135
9:12:31.040,0.175,-0.14
9:12:31.044,0.155,-0.175
9:12:31.048,0.105,-0.22
9:12:31.052,0.105,-0.26
9:12:31.056,0.055,-0.29
9:12:31.060,0.05,-0.3
9:12:31.064,0.03,-0.29
9:12:31.068,0.01,-0.285
9:12:31.072,0.0,-0.28
9:12:31.076,-0.02,-0.3
9:12:31.080,-0.015,-0.32
9:12:31.084,0.0,-0.315
9:12:31.088,-0.025,-0.305
9:12:31.092,-0.02,-0.3
9:12:31.096,0.015,-0.33
9:12:31.100,0.01,-0.355
9:12:31.104,0.015,-0.4
9:12:31.108,0.015,-0.42
9:12:31.112,0.01,-0.41
9:12:31.116,0.06,-0.41
9:12:31.120,0.035,-0.4
9:12:31.124,0.075,-0.405
9:12:31.128,0.05,-0.395
9:12:31.132,0.065,-0.4
9:12:31.136,0.055,-0.4
9:12:31.140,0.045,-0.405
9:12:31.144,0.06,-0.39
9:12:31.148,0.07,-0.425
9:12:31.152,0.04,-0.385
9:12:31.156,0.035,-0.38
9:12:31.160,0.035,-0.34
9:12:31.164,0.035,-0.295
9:12:31.168,0.045,-0.245
9:12:31.172,0.035,-0.15
9:12:31.176,0.045,0.005
9:12:31.180,0.05,0.29
9:12:31.184,0.065,0.625
9:12:31.188,0.055,0.985
9:12:31.192,0.08,1.28
9:12:31.196,0.115,1.49
9:12:31.200,0.1,1.555
9:12:31.204,0.05,1.42
9:12:31.208,0.005,1.025
9:12:31.212,-0.005,0.41
9:12:31.216,-0.105,-0.19
9:12:31.220,-0.29,-0.535
9:12:31.224,-0.565,-0.59
9:12:31.228,-0.815,-0.57
9:12:31.232,-1.02,-0.675
9:12:31.236,-1.145,-0.78
9:12:31.240,-1.15,-0.85
9:12:31.244,-1.025,-0.86
9:12:31.248,-0.79,-0.86
9:12:31.252,-0.485,-0.805
9:12:31.256,-0.27,-0.665
9:12:31.260,-0.185,-0.59
9:12:31.264,-0.175,-0.55
9:12:31.268,-0.15,-0.515
9:12:31.272,-0.13,-0.545
9:12:31.276,-0.095,-0.535
9:12:31.280,-0.05,-0.545
9:12:31.284,-0.015,-0.52
9:12:31.288,0.015,-0.52
9:12:31.292,0.08,-0.51
9:12:31.296,0.105,-0.51
9:12:31.300,0.105,-0.51
9:12:31.304,0.115,-0.505
9:12:31.308,0.1,-0.495
9:12:31.312,0.115,-0.475
9:12:31.316,0.11,-0.46
9:12:31.320,0.13,-0.46
9:12:31.324,0.125,-0.475
9:12:31.328,0.135,-0.53
9:12:31.332,0.12,-0.5
9:12:31.336,0.155,-0.49
9:12:31.340,0.14,-0.495
9:12:31.344,0.14,-0.515
9:12:31.348,0.13,-0.495
9:12:31.352,0.145,-0.49
9:12:31.356,0.135,-0.505
9:12:31.360,0.135,-0.515
9:12:31.364,0.14,-0.5
9:12:31.368,0.14,-0.485
9:12:31.372,0.135,-0.495
9:12:31.376,0.15,-0.505
9:12:31.380,0.145,-0.485
9:12:31.384,0.125,-0.5
9:12:31.388,0.14,-0.5
9:12:31.392,0.11,-0.5
9:12:31.396,0.13,-0.51
9:12:31.400,0.125,-0.525
9:12:31.404,0.135,-0.515
9:12:31.408,0.14,-0.505
9:12:31.412,0.115,-0.505
9:12:31.416,0.125,-0.5
9:12:31.420,0.11,-0.5
9:12:31.424,0.125,-0.52
9:12:31.428,0.125,-0.53
9:12:31.432,0.1,-0.495
9:12:31.436,0.105,-0.5
9:12:31.440,0.12,-0.49
9:12:31.444,0.12,-0.49
9:12:31.448,0.12,-0.51
9:12:31.452,0.095,-0.475
9:12:31.456,0.1,-0.47
9:12:31.460,0.11,-0.425
9:12:31.464,0.085,-0.41
9:12:31.468,0.085,-0.38
9:12:31.472,0.1,-0.38
9:12:31.476,0.105,-0.35
9:12:31.480,0.075,-0.35
9:12:31.484,0.095,-0.3
9:12:31.488,0.065,-0.29
9:12:31.492,0.055,-0.28
9:12:31.496,0.065,-0.255
9:12:31.500,0.07,-0.24
9:12:31.504,0.06,-0.22
9:12:31.508,0.06,-0.235
9:12:31.512,0.05,-0.24
9:12:31.516,0.06,-0.23
9:12:31.520,0.075,-0.26
9:12:31.524,0.04,-0.24
9:12:31.528,0.08,-0.23
9:12:31.532,0.06,-0.235
9:12:31.536,0.06,-0.24
9:12:31.540,0.065,-0.26
9:12:31.544,0.07,-0.27
9:12:31.548,0.07,-0.275
9:12:31.552,0.05,-0.27
9:12:31.556,0.035,-0.29
9:12:31.560,0.06,-0.3
9:12:31.564,0.055,-0.285
9:12:31.568,0.05,-0.29
9:12:31.572,0.05,-0.305
9:12:31.576,0.055,-0.31
9:12:31.580,0.065,-0.31
9:12:31.584,0.07,-0.295
9:12:31.588,0.07,-0.315
9:12:31.592,0.055,-0.31
9:12:31.596,0.07,-0.31
9:12:31.600,0.08,-0.32
9:12:31.604,0.085,-0.305
9:12:31.608,0.11,-0.31
9:12:31.612,0.095,-0.305
9:12:31.616,0.08,-0.31
9:12:31.620,0.095,-0.32
9:12:31.624,0.085,-0.32
9:12:31.628,0.075,-0.3
9:12:31.632,0.085,-0.305
9:12:31.636,0.095,-0.29
9:12:31.640,0.105,-0.285
9:12:31.644,0.105,-0.285
9:12:31.648,0.1,-0.29
9:12:31.652,0.085,-0.315
9:12:31.656,0.115,-0.305
9:12:31.660,0.095,-0.32
9:12:31.664,0.11,-0.3
9:12:31.668,0.115,-0.295
9:12:31.672,0.115,-0.26
9:12:31.676,0.12,-0.27
9:12:31.680,0.115,-0.265
9:12:31.684,0.11,-0.285
9:12:31.688,0.105,-0.28
9:12:31.692,0.105,-0.275
9:12:31.696,0.095,-0.27
9:12:31.700,0.115,-0.3
9:12:31.704,0.095,-0.3
9:12:31.708,0.105,-0.31
9:12:31.712,0.1,-0.3
9:12:31.716,0.115,-0.285
9:12:31.720,0.085,-0.275
9:12:31.724,0.095,-0.265
9:12:31.728,0.065,-0.28
9:12:31.732,0.075,-0.295
9:12:31.736,0.075,-0.29
9:12:31.740,0.08,-0.29
9:12:31.744,0.085,-0.27
9:12:31.748,0.09,-0.295
9:12:31.752,0.06,-0.295
9:12:31.756,0.08,-0.3
9:12:31.760,0.075,-0.29
9:12:31.764,0.09,-0.29
9:12:31.768,0.085,-0.3
9:12:31.772,0.07,-0.3
9:12:31.776,0.065,-0.305
9:12:31.780,0.065,-0.29
9:12:31.784,0.075,-0.28
9:12:31.788,0.055,-0.315
9:12:31.792,0.055,-0.315
9:12:31.796,0.055,-0.3
9:12:31.800,0.05,-0.315
9:12:31.804,0.045,-0.285
9:12:31.808,0.06,-0.29
9:12:31.812,0.06,-0.31
9:12:31.816,0.07,-0.32
9:12:31.820,0.055,-0.3
9:12:31.824,0.06,-0.29
9:12:31.828,0.035,-0.24
9:12:31.832,0.03,-0.18
9:12:31.836,0.04,-0.16
9:12:31.840,0.04,-0.125
9:12:31.844,0.035,-0.11
9:12:31.848,0.025,-0.095
9:12:31.852,0.045,-0.085
9:12:31.856,0.09,-0.07
9:12:31.860,0.12,-0.065
9:12:31.864,0.11,-0.05
9:12:31.868,0.13,-0.07
9:12:31.872,0.17,-0.065
9:12:31.876,0.18,-0.075
9:12:31.880,0.185,-0.07
9:12:31.884,0.19,-0.07
9:12:31.888,0.17,-0.105
9:12:31.892,0.165,-0.125
9:12:31.896,0.11,-0.18
9:12:31.900,0.095,-0.21
9:12:31.904,0.07,-0.23
9:12:31.908,0.05,-0.225
9:12:31.912,0.045,-0.245
9:12:31.916,0.015,-0.22
9:12:31.920,0.015,-0.21
9:12:31.924,-0.005,-0.21
9:12:31.928,-0.005,-0.21
9:12:31.932,-0.02,-0.23
9:12:31.936,-0.03,-0.205
9:12:31.940,-0.025,-0.21
9:12:31.944,0.0,-0.24
9:12:31.948,0.02,-0.27
9:12:31.952,0.01,-0.295
9:12:31.956,0.03,-0.31
9:12:31.960,0.03,-0.315
9:12:31.964,0.045,-0.31
9:12:31.968,0.07,-0.335
9:12:31.972,0.095,-0.32
9:12:31.976,0.07,-0.31
9:12:31.980,0.085,-0.305
9:12:31.984,0.075,-0.305
9:12:31.988,0.06,-0.315
9:12:31.992,0.075,-0.295
9:12:31.996,0.065,-0.31
9:12:32.000,0.045,-0.3
9:12:32.004,0.075,-0.28
9:12:32.008,0.055,-0.27
9:12:32.012,0.065,-0.25
9:12:32.016,0.065,-0.205
9:12:32.020,0.07,-0.16
9:12:32.024,0.04,-0.08
9:12:32.028,0.065,0.07
9:12:32.032,0.07,0.33
9:12:32.036,0.075,0.71
9:12:32.040,0.065,1.11
9:12:32.044,0.115,1.44
9:12:32.048,0.115,1.705
9:12:32.052,0.105,1.86
9:12:32.056,0.075,1.77
9:12:32.060,0.055,1.42
9:12:32.064,0.015,0.79
9:12:32.068,-0.05,0.1
9:12:32.072,-0.23,-0.37
9:12:32.076,-0.475,-0.535
9:12:32.080,-0.73,-0.51
9:12:32.084,-0.97,-0.59
9:12:32.088,-1.095,-0.7
9:12:32.092,-1.125,-0.81
9:12:32.096,-1.055,-0.845
9:12:32.100,-0.83,-0.85
9:12:32.104,-0.525,-0.78
9:12:32.108,-0.33,-0.68
9:12:32.112,-0.2,-0.59
9:12:32.116,-0.165,-0.525
9:12:32.120,-0.145,-0.515
9:12:32.124,-0.13,-0.51
9:12:32.128,-0.1,-0.495
9:12:32.132,-0.055,-0.495
9:12:32.136,-0.015,-0.495
9:12:32.140,0.045,-0.49
9:12:32.144,0.075,-0.46
9:12:32.148,0.11,-0.475
9:12:32.152,0.1,-0.47
9:12:32.156,0.12,-0.495
9:12:32.160,0.1,-0.455
9:12:32.164,0.105,-0.465
9:12:32.168,0.115,-0.48
9:12:32.172,0.11,-0.485
9:12:32.176,0.135,-0.49
9:12:32.180,0.135,-0.49
9:12:32.184,0.135,-0.465
9:12:32.188,0.125,-0.455
9:12:32.192,0.13,-0.455
9:12:32.196,0.125,-0.485
9:12:32.200,0.105,-0.475
9:12:32.204,0.135,-0.49
9:12:32.208,0.14,-0.48
9:12:32.212,0.12,-0.475
9:12:32.216,0.135,-0.485
9:12:32.220,0.125,-0.46
9:12:32.224,0.115,-0.48
9:12:32.228,0.125,-0.48
9:12:32.232,0.13,-0.495
9:12:32.236,0.145,-0.495
9:12:32.240,0.12,-0.485
9:12:32.244,0.125,-0.465
9:12:32.248,0.12,-0.47
9:12:32.252,0.14,-0.495
9:12:32.256,0.12,-0.505
9:12:32.260,0.12,-0.515
9:12:32.264,0.115,-0.515
9:12:32.268,0.135,-0.5
9:12:32.272,0.11,-0.5
9:12:32.276,0.13,-0.495
9:12:32.280,0.115,-0.485
9:12:32.284,0.11,-0.485
9:12:32.288,0.12,-0.51
9:12:32.292,0.095,-0.5
9:12:32.296,0.09,-0.5
9:12:32.300,0.105,-0.495
9:12:32.304,0.105,-0.48
9:12:32.308,0.08,-0.465
9:12:32.312,0.105,-0.44
9:12:32.316,0.08,-0.44
9:12:32.320,0.09,-0.43
9:12:32.324,0.08,-0.39
9:12:32.328,0.075,-0.395
9:12:32.332,0.075,-0.355
9:12:32.336,0.085,-0.34
9:12:32.340,0.055,-0.31
9:12:32.344,0.06,-0.275
9:12:32.348,0.055,-0.255
9:12:32.352,0.05,-0.24
9:12:32.356,0.04,-0.23
9:12:32.360,0.04,-0.235
9:12:32.364,0.01,-0.24
9:12:32.368,0.025,-0.25
9:12:32.372,0.025,-0.235
9:12:32.376,0.025,-0.225
9:12:32.380,0.04,-0.215
9:12:32.384,0.01,-0.225
9:12:32.388,0.035,-0.23
9:12:32.392,0.015,-0.22
9:12:32.396,0.015,-0.24
9:12:32.400,0.04,-0.25
9:12:32.404,0.035,-0.25
9:12:32.408,0.035,-0.275
9:12:32.412,0.025,-0.265
9:12:32.416,0.03,-0.275
9:12:32.420,0.045,-0.28
9:12:32.424,0.045,-0.295
9:12:32.428,0.035,-0.31
9:12:32.432,0.015,-0.295
9:12:32.436,0.04,-0.315
9:12:32.440,0.055,-0.315
9:12:32.444,0.03,-0.305
9:12:32.448,0.035,-0.325
9:12:32.452,0.055,-0.335
9:12:32.456,0.05,-0.335
9:12:32.460,0.065,-0.32
9:12:32.464,0.055,-0.315
9:12:32.468,0.065,-0.315
9:12:32.472,0.075,-0.315
9:12:32.476,0.06,-0.34
9:12:32.480,0.035,-0.33
9:12:32.484,0.04,-0.35
9:12:32.488,0.07,-0.34
9:12:32.492,0.07,-0.3
9:12:32.496,0.065,-0.31
9:12:32.500,0.07,-0.335
9:12:32.504,0.065,-0.34
9:12:32.508,0.08,-0.36
9:12:32.512,0.08,-0.35
9:12:32.516,0.075,-0.365
9:12:32.520,0.09,-0.35
9:12:32.524,0.09,-0.365
9:12:32.528,0.075,-0.355
9:12:32.532,0.065,-0.335
9:12:32.536,0.06,-0.335
9:12:32.540,0.075,-0.33
9:12:32.544,0.075,-0.335
9:12:32.548,0.07,-0.33
9:12:32.552,0.085,-0.315
9:12:32.556,0.075,-0.31
9:12:32.560,0.08,-0.32
9:12:32.564,0.085,-0.325
9:12:32.568,0.095,-0.335
9:12:32.572,0.08,-0.34
9:12:32.576,0.075,-0.33
9:12:32.580,0.09,-0.33
9:12:32.584,0.075,-0.345
9:12:32.588,0.085,-0.335
9:12:32.592,0.075,-0.31
9:12:32.596,0.07,-0.33
9:12:32.600,0.075,-0.335
9:12:32.604,0.075,-0.32
9:12:32.608,0.055,-0.35
9:12:32.612,0.07,-0.36
9:12:32.616,0.08,-0.365
9:12:32.620,0.09,-0.355
9:12:32.624,0.08,-0.36
9:12:32.628,0.07,-0.34
9:12:32.632,0.08,-0.35
9:12:32.636,0.07,-0.34
9:12:32.640,0.07,-0.34
9:12:32.644,0.065,-0.33
9:12:32.648,0.06,-0.33
9:12:32.652,0.06,-0.34
9:12:32.656,0.075,-0.33
9:12:32.660,0.06,-0.31
9:12:32.664,0.075,-0.34
9:12:32.668,0.085,-0.345
9:12:32.672,0.07,-0.345
9:12:32.676,0.06,-0.335
9:12:32.680,0.065,-0.34
9:12:32.684,0.07,-0.345
9:12:32.688,0.05,-0.345
9:12:32.692,0.08,-0.335
9:12:32.696,0.075,-0.33
9:12:32.700,0.08,-0.32
9:12:32.704,0.07,-0.3
9:12:32.708,0.065,-0.28
9:12:32.712,0.075,-0.23
9:12:32.716,0.055,-0.185
9:12:32.720,0.075,-0.14
9:12:32.724,0.06,-0.14
9:12:32.728,0.085,-0.13
9:12:32.732,0.075,-0.125
9:12:32.736,0.135,-0.11
9:12:32.740,0.14,-0.125
9:12:32.744,0.165,-0.11
9:12:32.748,0.215,-0.135
9:12:32.752,0.2,-0.14
9:12:32.756,0.2,-0.155
9:12:32.760,0.22,-0.155
9:12:32.764,0.2,-0.155
9:12:32.768,0.195,-0.195
9:12:32.772,0.155,-0.25
9:12:32.776,0.12,-0.28
9:12:32.780,0.09,-0.29
9:12:32.784,0.065,-0.32
9:12:32.788,0.045,-0.325
9:12:32.792,0.03,-0.315
9:12:32.796,0.0,-0.315
9:12:32.800,0.015,-0.285
9:12:32.804,0.005,-0.295
9:12:32.808,0.0,-0.29
9:12:32.812,0.0,-0.305
9:12:32.816,0.005,-0.31
9:12:32.820,0.0,-0.32
9:12:32.824,0.01,-0.33
9:12:32.828,0.045,-0.35
9:12:32.832,0.04,-0.38
9:12:32.836,0.02,-0.39
9:12:32.840,0.045,-0.39
9:12:32.844,0.05,-0.385
9:12:32.848,0.08,-0.385
9:12:32.852,0.085,-0.375
9:12:32.856,0.09,-0.395
9:12:32.860,0.05,-0.38
9:12:32.864,0.095,-0.385
9:12:32.868,0.11,-0.385
9:12:32.872,0.11,-0.4
9:12:32.876,0.11,-0.4
9:12:32.880,0.085,-0.41
9:12:32.884,0.085,-0.38
9:12:32.888,0.11,-0.365
9:12:32.892,0.115,-0.345
9:12:32.896,0.09,-0.3
9:12:32.900,0.1,-0.23
9:12:32.904,0.08,-0.155
9:12:32.908,0.075,-0.03
9:12:32.912,0.105,0.215
9:12:32.916,0.11,0.55
9:12:32.920,0.11,0.935
9:12:32.924,0.145,1.28
9:12:32.928,0.17,1.505
9:12:32.932,0.155,1.64
9:12:32.936,0.135,1.625
9:12:32.940,0.115,1.34
9:12:32.944,0.07,0.795
9:12:32.948,0.015,0.13
9:12:32.952,-0.1,-0.395
9:12:32.956,-0.345,-0.585
9:12:32.960,-0.615,-0.575
9:12:32.964,-0.88,-0.575
9:12:32.968,-1.035,-0.71
9:12:32.972,-1.105,-0.84
9:12:32.976,-1.115,-0.905
9:12:32.980,-0.945,-0.92
9:12:32.984,-0.635,-0.895
9:12:32.988,-0.34,-0.83
9:12:32.992,-0.17,-0.695
9:12:32.996,-0.08,-0.615
9:12:33.000,-0.095,-0.57
9:12:33.004,-0.075,-0.57
9:12:33.008,-0.04,-0.575
9:12:33.012,-0.025,-0.56
9:12:33.016,0.0,-0.56
9:12:33.020,0.07,-0.56
9:12:33.024,0.13,-0.57
9:12:33.028,0.165,-0.57
9:12:33.032,0.19,-0.575
9:12:33.036,0.195,-0.565
9:12:33.040,0.18,-0.56
9:12:33.044,0.175,-0.55
9:12:33.048,0.195,-0.54
9:12:33.052,0.19,-0.54
9:12:33.056,0.185,-0.55
9:12:33.060,0.18,-0.545
9:12:33.064,0.17,-0.545
9:12:33.068,0.19,-0.54
9:12:33.072,0.19,-0.54
9:12:33.076,0.225,-0.545
9:12:33.080,0.215,-0.545
9:12:33.084,0.215,-0.555
9:12:33.088,0.205,-0.55
9:12:33.092,0.215,-0.525
9:12:33.096,0.21,-0.535
9:12:33.100,0.225,-0.545
9:12:33.104,0.215,-0.575
9:12:33.108,0.22,-0.575
9:12:33.112,0.2,-0.56
9:12:33.116,0.21,-0.55
9:12:33.120,0.21,-0.56
9:12:33.124,0.22,-0.555
9:12:33.128,0.19,-0.58
9:12:33.132,0.205,-0.57
9:12:33.136,0.2,-0.585
9:12:33.140,0.2,-0.555
9:12:33.144,0.21,-0.56
9:12:33.148,0.195,-0.57
9:12:33.152,0.175,-0.59
9:12:33.156,0.175,-0.57
9:12:33.160,0.18,-0.57
9:12:33.164,0.18,-0.59
9:12:33.168,0.165,-0.57
9:12:33.172,0.17,-0.585
9:12:33.176,0.165,-0.565
9:12:33.180,0.17,-0.555
9:12:33.184,0.17,-0.55
9:12:33.188,0.175,-0.57
9:12:33.192,0.17,-0.57
9:12:33.196,0.135,-0.545
9:12:33.200,0.155,-0.53
9:12:33.204,0.16,-0.495
9:12:33.208,0.155,-0.47
9:12:33.212,0.155,-0.44
9:12:33.216,0.115,-0.45
9:12:33.220,0.13,-0.44
9:12:33.224,0.13,-0.425
9:12:33.228,0.13,-0.385
9:12:33.232,0.125,-0.38
9:12:33.236,0.14,-0.36
9:12:33.240,0.115,-0.375
9:12:33.244,0.105,-0.37
9:12:33.248,0.1,-0.37
9:12:33.252,0.095,-0.365
9:12:33.256,0.1,-0.37
9:12:33.260,0.09,-0.38
9:12:33.264,0.11,-0.385
9:12:33.268,0.11,-0.39
9:12:33.272,0.115,-0.405
9:12:33.276,0.115,-0.42
9:12:33.280,0.12,-0.41
9:12:33.284,0.12,-0.415
9:12:33.288,0.12,-0.415
9:12:33.292,0.135,-0.455
9:12:33.296,0.13,-0.435
9:12:33.300,0.13,-0.44
9:12:33.304,0.12,-0.45
9:12:33.308,0.13,-0.46
9:12:33.312,0.145,-0.455
9:12:33.316,0.13,-0.465
9:12:33.320,0.135,-0.475
9:12:33.324,0.125,-0.475
9:12:33.328,0.15,-0.49
9:12:33.332,0.16,-0.49
9:12:33.336,0.13,-0.48
9:12:33.340,0.13,-0.485
9:12:33.344,0.135,-0.485
9:12:33.348,0.125,-0.485
9:12:33.352,0.125,-0.48
9:12:33.356,0.15,-0.49
9:12:33.360,0.13,-0.49
9:12:33.364,0.135,-0.495
9:12:33.368,0.14,-0.48
9:12:33.372,0.125,-0.505
9:12:33.376,0.135,-0.485
9:12:33.380,0.14,-0.49
9:12:33.384,0.14,-0.5
9:12:33.388,0.15,-0.52
9:12:33.392,0.16,-0.51
9:12:33.396,0.13,-0.505
9:12:33.400,0.15,-0.495
9:12:33.404,0.14,-0.52
9:12:33.408,0.15,-0.495
9:12:33.412,0.16,-0.495
9:12:33.416,0.17,-0.485
9:12:33.420,0.16,-0.495
9:12:33.424,0.155,-0.495
9:12:33.428,0.155,-0.505
9:12:33.432,0.155,-0.495
9:12:33.436,0.175,-0.495
9:12:33.440,0.17,-0.505
9:12:33.444,0.135,-0.5
9:12:33.448,0.125,-0.5
9:12:33.452,0.14,-0.5
9:12:33.456,0.13,-0.49
9:12:33.460,0.14,-0.5
9:12:33.464,0.135,-0.515
9:12:33.468,0.12,-0.5
9:12:33.472,0.145,-0.505
9:12:33.476,0.14,-0.525
9:12:33.480,0.135,-0.52
9:12:33.484,0.14,-0.51
9:12:33.488,0.1,-0.5
9:12:33.492,0.12,-0.51
9:12:33.496,0.115,-0.48
9:12:33.500,0.12,-0.47
9:12:33.504,0.145,-0.5
9:12:33.508,0.1,-0.52
9:12:33.512,0.125,-0.505
9:12:33.516,0.11,-0.505
9:12:33.520,0.125,-0.505
9:12:33.524,0.11,-0.485
9:12:33.528,0.125,-0.47
9:12:33.532,0.115,-0.455
9:12:33.536,0.105,-0.43
9:12:33.540,0.11,-0.455
9:12:33.544,0.08,-0.47
9:12:33.548,0.095,-0.48
9:12:33.552,0.11,-0.465
9:12:33.556,0.095,-0.49
9:12:33.560,0.115,-0.465
9:12:33.564,0.105,-0.47
9:12:33.568,0.115,-0.455
9:12:33.572,0.09,-0.445
9:12:33.576,0.105,-0.425
9:12:33.580,0.085,-0.425
9:12:33.584,0.11,-0.385
9:12:33.588,0.09,-0.37
9:12:33.592,0.085,-0.33
9:12:33.596,0.1,-0.29
9:12:33.600,0.1,-0.27
9:12:33.604,0.115,-0.235
9:12:33.608,0.115,-0.205
9:12:33.612,0.145,-0.195
9:12:33.616,0.135,-0.205
9:12:33.620,0.16,-0.205
9:12:33.624,0.185,-0.195
9:12:33.628,0.26,-0.2
9:12:33.632,0.245,-0.175
9:12:33.636,0.25,-0.195
9:12:33.640,0.225,-0.215
9:12:33.644,0.24,-0.205
9:12:33.648,0.225,-0.215
9:12:33.652,0.185,-0.26
9:12:33.656,0.145,-0.305
9:12:33.660,0.145,-0.33
9:12:33.664,0.1,-0.35
9:12:33.668,0.075,-0.33
9:12:33.672,0.055,-0.3
9:12:33.676,0.04,-0.305
9:12:33.680,0.035,-0.275
9:12:33.684,0.03,-0.3
9:12:33.688,0.04,-0.285
9:12:33.692,0.05,-0.32
9:12:33.696,0.035,-0.32
9:12:33.700,0.035,-0.32
9:12:33.704,0.045,-0.335
9:12:33.708,0.07,-0.36
9:12:33.712,0.065,-0.365
9:12:33.716,0.085,-0.375
9:12:33.720,0.07,-0.385
9:12:33.724,0.12,-0.365
9:12:33.728,0.135,-0.39
9:12:33.732,0.145,-0.37
9:12:33.736,0.15,-0.37
9:12:33.740,0.155,-0.375
9:12:33.744,0.115,-0.375
9:12:33.748,0.125,-0.375
9:12:33.752,0.135,-0.395
9:12:33.756,0.12,-0.38
9:12:33.760,0.12,-0.36
9:12:33.764,0.11,-0.37
9:12:33.768,0.115,-0.36
9:12:33.772,0.115,-0.345
9:12:33.776,0.115,-0.31
9:12:33.780,0.12,-0.24
9:12:33.784,0.095,-0.165
9:12:33.788,0.1,-0.075
9:12:33.792,0.11,0.145
9:12:33.796,0.095,0.48
9:12:33.800,0.11,0.84
9:12:33.804,0.135,1.155
9:12:33.808,0.17,1.39
9:12:33.812,0.18,1.53
9:12:33.816,0.16,1.485
9:12:33.820,0.11,1.22
9:12:33.824,0.075,0.72
9:12:33.828,0.015,0.105
9:12:33.832,-0.14,-0.375
9:12:33.836,-0.395,-0.515
9:12:33.840,-0.67,-0.445
9:12:33.844,-0.92,-0.44
9:12:33.848,-1.12,-0.595
9:12:33.852,-1.185,-0.74
9:12:33.856,-1.165,-0.835
9:12:33.860,-0.98,-0.845
9:12:33.864,-0.655,-0.835
9:12:33.868,-0.385,-0.76
9:12:33.872,-0.18,-0.65
9:12:33.876,-0.095,-0.56
9:12:33.880,-0.075,-0.535
9:12:33.884,-0.08,-0.515
9:12:33.888,-0.05,-0.505
9:12:33.892,-0.035,-0.51
9:12:33.896,0.02,-0.51
9:12:33.900,0.075,-0.49
9:12:33.904,0.14,-0.515
9:12:33.908,0.165,-0.48
9:12:33.912,0.155,-0.495
9:12:33.916,0.195,-0.49
9:12:33.920,0.185,-0.51
9:12:33.924,0.195,-0.49
9:12:33.928,0.17,-0.48
9:12:33.932,0.19,-0.45
9:12:33.936,0.18,-0.48
9:12:33.940,0.175,-0.48
9:12:33.944,0.195,-0.46
9:12:33.948,0.185,-0.505
9:12:33.952,0.18,-0.505
9:12:33.956,0.19,-0.485
9:12:33.960,0.185,-0.485
9:12:33.964,0.19,-0.475
9:12:33.968,0.19,-0.48
9:12:33.972,0.175,-0.475
9:12:33.976,0.195,-0.47
9:12:33.980,0.18,-0.48
9:12:33.984,0.21,-0.465
9:12:33.988,0.19,-0.47
9:12:33.992,0.18,-0.46
9:12:33.996,0.185,-0.46
9:12:34.000,0.175,-0.47
9:12:34.004,0.185,-0.46
9:12:34.008,0.17,-0.46
9:12:34.012,0.185,-0.485
9:12:34.016,0.175,-0.47
9:12:34.020,0.195,-0.45
9:12:34.024,0.18,-0.45
9:12:34.028,0.19,-0.465
9:12:34.032,0.18,-0.48
9:12:34.036,0.175,-0.46
9:12:34.040,0.175,-0.47
9:12:34.044,0.155,-0.465
9:12:34.048,0.17,-0.47
9:12:34.052,0.175,-0.47
9:12:34.056,0.18,-0.44
9:12:34.060,0.17,-0.45
9:12:34.064,0.155,-0.435
9:12:34.068,0.18,-0.425
9:12:34.072,0.145,-0.415
9:12:34.076,0.14,-0.42
9:12:34.080,0.15,-0.405
9:12:34.084,0.15,-0.375
9:12:34.088,0.14,-0.345
9:12:34.092,0.135,-0.33
9:12:34.096,0.13,-0.3
9:12:34.100,0.145,-0.275
9:12:34.104,0.125,-0.225
9:12:34.108,0.1,-0.22
9:12:34.112,0.1,-0.215
9:12:34.116,0.105,-0.21
9:12:34.120,0.09,-0.175
9:12:34.124,0.075,-0.185
9:12:34.128,0.08,-0.175
9:12:34.132,0.085,-0.18
9:12:34.136,0.07,-0.18
9:12:34.140,0.085,-0.185
9:12:34.144,0.075,-0.205
9:12:34.148,0.06,-0.2
9:12:34.152,0.055,-0.18
9:12:34.156,0.08,-0.19
9:12:34.160,0.07,-0.215
9:12:34.164,0.065,-0.23
9:12:34.168,0.095,-0.225
9:12:34.172,0.09,-0.235
9:12:34.176,0.06,-0.235
9:12:34.180,0.06,-0.24
9:12:34.184,0.065,-0.24
9:12:34.188,0.05,-0.25
9:12:34.192,0.075,-0.24
9:12:34.196,0.06,-0.235
9:12:34.200,0.055,-0.235
9:12:34.204,0.065,-0.24
9:12:34.208,0.055,-0.24
9:12:34.212,0.065,-0.255
9:12:34.216,0.07,-0.265
9:12:34.220,0.065,-0.28
9:12:34.224,0.075,-0.285
9:12:34.228,0.06,-0.28
9:12:34.232,0.07,-0.285
9:12:34.236,0.065,-0.275
9:12:34.240,0.07,-0.275
9:12:34.244,0.08,-0.26
9:12:34.248,0.075,-0.27
9:12:34.252,0.05,-0.28
9:12:34.256,0.065,-0.29
9:12:34.260,0.065,-0.285
9:12:34.264,0.06,-0.27
9:12:34.268,0.07,-0.29
9:12:34.272,0.085,-0.26
9:12:34.276,0.075,-0.27
9:12:34.280,0.06,-0.265
9:12:34.284,0.065,-0.265
9:12:34.288,0.085,-0.265
9:12:34.292,0.075,-0.275
9:12:34.296,0.065,-0.275
9:12:34.300,0.075,-0.235
9:12:34.304,0.075,-0.255
9:12:34.308,0.075,-0.255
9:12:34.312,0.085,-0.26
9:12:34.316,0.08,-0.265
9:12:34.320,0.07,-0.265
9:12:34.324,0.09,-0.255
9:12:34.328,0.075,-0.225
9:12:34.332,0.08,-0.24
9:12:34.336,0.085,-0.27
9:12:34.340,0.065,-0.255
9:12:34.344,0.07,-0.255
9:12:34.348,0.07,-0.255
9:12:34.352,0.065,-0.25
9:12:34.356,0.07,-0.25
9:12:34.360,0.06,-0.245
9:12:34.364,0.07,-0.24
9:12:34.368,0.07,-0.24
9:12:34.372,0.07,-0.26
9:12:34.376,0.055,-0.26
9:12:34.380,0.07,-0.255
9:12:34.384,0.065,-0.225
9:12:34.388,0.045,-0.24
9:12:34.392,0.05,-0.26
9:12:34.396,0.04,-0.275
9:12:34.400,0.045,-0.275
9:12:34.404,0.08,-0.275
9:12:34.408,0.025,-0.27
9:12:34.412,0.06,-0.25
9:12:34.416,0.05,-0.27
9:12:34.420,0.045,-0.275
9:12:34.424,0.045,-0.265
9:12:34.428,0.055,-0.25
9:12:34.432,0.055,-0.265
9:12:34.436,0.055,-0.26
9:12:34.440,0.045,-0.25
9:12:34.444,0.045,-0.265
9:12:34.448,0.02,-0.26
9:12:34.452,0.05,-0.28
9:12:34.456,0.06,-0.25
9:12:34.460,0.07,-0.265
9:12:34.464,0.045,-0.24
9:12:34.468,0.04,-0.22
9:12:34.472,0.05,-0.195
9:12:34.476,0.04,-0.18
9:12:34.480,0.04,-0.125
9:12:34.484,0.04,-0.08
9:12:34.488,0.04,-0.06
9:12:34.492,0.055,-0.04
9:12:34.496,0.065,-0.02
9:12:34.500,0.105,-0.005
9:12:34.504,0.125,-0.025
9:12:34.508,0.16,-0.025
9:12:34.512,0.145,-0.03
9:12:34.516,0.18,-0.05
9:12:34.520,0.19,-0.04
9:12:34.524,0.17,-0.02
9:12:34.528,0.175,-0.035
9:12:34.532,0.165,-0.05
9:12:34.536,0.155,-0.065
9:12:34.540,0.125,-0.11
9:12:34.544,0.1,-0.175
9:12:34.548,0.055,-0.185
9:12:34.552,0.045,-0.205
9:12:34.556,0.035,-0.215
9:12:34.560,0.025,-0.215
9:12:34.564,0.02,-0.18
9:12:34.568,0.0,-0.17
9:12:34.572,-0.02,-0.15
9:12:34.576,-0.03,-0.15
9:12:34.580,-0.015,-0.17
9:12:34.584,-0.02,-0.2
9:12:34.588,-0.005,-0.19
9:12:34.592,0.0,-0.205
9:12:34.596,0.015,-0.23
9:12:34.600,0.01,-0.28
9:12:34.604,0.01,-0.295
9:12:34.608,0.03,-0.28
9:12:34.612,0.04,-0.29
9:12:34.616,0.05,-0.285
9:12:34.620,0.06,-0.28
9:12:34.624,0.08,-0.275
9:12:34.628,0.06,-0.25
9:12:34.632,0.075,-0.235
9:12:34.636,0.07,-0.25
9:12:34.640,0.06,-0.245
9:12:34.644,0.05,-0.26
9:12:34.648,0.075,-0.255
9:12:34.652,0.08,-0.23
9:12:34.656,0.07,-0.24
9:12:34.660,0.07,-0.205
9:12:34.664,0.065,-0.155
9:12:34.668,0.06,-0.08
9:12:34.672,0.06,-0.05
9:12:34.676,0.06,0.09
9:12:34.680,0.065,0.39
9:12:34.684,0.065,0.725
9:12:34.688,0.08,1.115
9:12:34.692,0.105,1.44
9:12:34.696,0.15,1.67
9:12:34.700,0.13,1.86
9:12:34.704,0.095,1.83
9:12:34.708,0.065,1.54
9:12:34.712,0.06,1.015
9:12:34.716,-0.005,0.34
9:12:34.720,-0.17,-0.18
9:12:34.724,-0.425,-0.36
9:12:34.728,-0.7,-0.39
9:12:34.732,-0.915,-0.42
9:12:34.736,-1.05,-0.575
9:12:34.740,-1.13,-0.69
9:12:34.744,-1.085,-0.74
9:12:34.748,-0.895,-0.745
9:12:34.752,-0.61,-0.715
9:12:34.756,-0.355,-0.655
9:12:34.760,-0.195,-0.55
9:12:34.764,-0.135,-0.49
9:12:34.768,-0.085,-0.45
9:12:34.772,-0.09,-0.41
9:12:34.776,-0.08,-0.405
9:12:34.780,-0.045,-0.405
9:12:34.784,-0.01,-0.4
9:12:34.788,0.035,-0.405
9:12:34.792,0.09,-0.4
9:12:34.796,0.11,-0.41
9:12:34.800,0.13,-0.38
9:12:34.804,0.12,-0.395
9:12:34.808,0.135,-0.395
9:12:34.812,0.15,-0.39
9:12:34.816,0.16,-0.38
9:12:34.820,0.135,-0.41
9:12:34.824,0.14,-0.415
9:12:34.828,0.15,-0.415
9:12:34.832,0.155,-0.415
9:12:34.836,0.165,-0.405
9:12:34.840,0.165,-0.405
9:12:34.844,0.165,-0.39
9:12:34.848,0.16,-0.405
9:12:34.852,0.155,-0.405
9:12:34.856,0.135,-0.39
9:12:34.860,0.15,-0.39
9:12:34.864,0.16,-0.41
9:12:34.868,0.185,-0.395
9:12:34.872,0.175,-0.395
9:12:34.876,0.185,-0.395
9:12:34.880,0.165,-0.395
9:12:34.884,0.165,-0.385
9:12:34.888,0.18,-0.37
9:12:34.892,0.195,-0.385
9:12:34.896,0.19,-0.4
9:12:34.900,0.155,-0.38
9:12:34.904,0.15,-0.38
9:12:34.908,0.165,-0.405
9:12:34.912,0.17,-0.405
9:12:34.916,0.165,-0.4
9:12:34.920,0.17,-0.39
9:12:34.924,0.16,-0.39
9:12:34.928,0.15,-0.39
9:12:34.932,0.165,-0.39
9:12:34.936,0.15,-0.4
9:12:34.940,0.15,-0.4
9:12:34.944,0.165,-0.4
9:12:34.948,0.13,-0.395
9:12:34.952,0.135,-0.385
9:12:34.956,0.145,-0.37
9:12:34.960,0.14,-0.36
9:12:34.964,0.125,-0.36
9:12:34.968,0.12,-0.345
9:12:34.972,0.125,-0.315
9:12:34.976,0.125,-0.285
9:12:34.980,0.13,-0.255
9:12:34.984,0.12,-0.235
9:12:34.988,0.13,-0.21
9:12:34.992,0.12,-0.2
9:12:34.996,0.095,-0.185
9:12:35.000,0.095,-0.145
9:12:35.004,0.105,-0.15
9:12:35.008,0.095,-0.135
9:12:35.012,0.085,-0.125
9:12:35.016,0.065,-0.125
9:12:35.020,0.065,-0.135
9:12:35.024,0.045,-0.14
9:12:35.028,0.075,-0.155
9:12:35.032,0.075,-0.135
9:12:35.036,0.08,-0.12
9:12:35.040,0.055,-0.135
9:12:35.044,0.05,-0.155
9:12:35.048,0.08,-0.145
9:12:35.052,0.08,-0.135
9:12:35.056,0.09,-0.165
9:12:35.060,0.085,-0.175
9:12:35.064,0.095,-0.185
9:12:35.068,0.075,-0.175
9:12:35.072,0.09,-0.19
9:12:35.076,0.08,-0.2
9:12:35.080,0.09,-0.2
9:12:35.084,0.105,-0.21
9:12:35.088,0.095,-0.2
9:12:35.092,0.085,-0.2
9:12:35.096,0.07,-0.215
9:12:35.100,0.085,-0.205
9:12:35.104,0.075,-0.215
9:12:35.108,0.095,-0.23
9:12:35.112,0.09,-0.235
9:12:35.116,0.085,-0.24
9:12:35.120,0.075,-0.23
9:12:35.124,0.08,-0.25
9:12:35.128,0.08,-0.235
9:12:35.132,0.11,-0.235
9:12:35.136,0.1,-0.24
9:12:35.140,0.1,-0.235
9:12:35.144,0.1,-0.26
9:12:35.148,0.095,-0.24
9:12:35.152,0.095,-0.25
9:12:35.156,0.1,-0.26
9:12:35.160,0.095,-0.235
9:12:35.164,0.08,-0.26
9:12:35.168,0.095,-0.245
9:12:35.172,0.085,-0.235
9:12:35.176,0.095,-0.235
9:12:35.180,0.1,-0.245
9:12:35.184,0.095,-0.265
9:12:35.188,0.07,-0.265
9:12:35.192,0.085,-0.265
9:12:35.196,0.09,-0.26
9:12:35.200,0.085,-0.26
9:12:35.204,0.09,-0.24
9:12:35.208,0.07,-0.24
9:12:35.212,0.09,-0.24
9:12:35.216,0.09,-0.245
9:12:35.220,0.075,-0.24
9:12:35.224,0.07,-0.245
9:12:35.228,0.095,-0.245
9:12:35.232,0.075,-0.27
9:12:35.236,0.085,-0.275
9:12:35.240,0.075,-0.265
9:12:35.244,0.07,-0.235
9:12:35.248,0.07,-0.265
9:12:35.252,0.055,-0.26
9:12:35.256,0.06,-0.265
9:12:35.260,0.055,-0.26
9:12:35.264,0.05,-0.275
9:12:35.268,0.055,-0.27
9:12:35.272,0.055,-0.28
9:12:35.276,0.065,-0.295
9:12:35.280,0.055,-0.275
9:12:35.284,0.07,-0.275
9:12:35.288,0.06,-0.28
9:12:35.292,0.055,-0.26
9:12:35.296,0.035,-0.265
9:12:35.300,0.03,-0.25
9:12:35.304,0.045,-0.26
9:12:35.308,0.03,-0.265
9:12:35.312,0.06,-0.27
9:12:35.316,0.045,-0.29
9:12:35.320,0.045,-0.295
9:12:35.324,0.03,-0.265
9:12:35.328,0.025,-0.27
9:12:35.332,0.045,-0.265
9:12:35.336,0.035,-0.26
9:12:35.340,0.045,-0.24
9:12:35.344,0.045,-0.275
9:12:35.348,0.045,-0.275
9:12:35.352,0.06,-0.265
9:12:35.356,0.04,-0.275
9:12:35.360,0.055,-0.28
9:12:35.364,0.045,-0.245
9:12:35.368,0.045,-0.23
9:12:35.372,0.035,-0.185
9:12:35.376,0.055,-0.13
9:12:35.380,0.055,-0.095
9:12:35.384,0.06,-0.08
9:12:35.388,0.055,-0.075
9:12:35.392,0.06,-0.06
9:12:35.396,0.1,-0.04
9:12:35.400,0.105,-0.04
9:12:35.404,0.125,-0.04
9:12:35.408,0.16,-0.03
9:12:35.412,0.165,-0.055
9:12:35.416,0.21,-0.04
9:12:35.420,0.19,-0.06
9:12:35.424,0.19,-0.07
9:12:35.428,0.17,-0.085
9:12:35.432,0.125,-0.09
9:12:35.436,0.135,-0.145
9:12:35.440,0.11,-0.185
9:12:35.444,0.07,-0.22
9:12:35.448,0.05,-0.225
9:12:35.452,0.025,-0.23
9:12:35.456,0.035,-0.215
9:12:35.460,0.025,-0.2
9:12:35.464,0.005,-0.19
9:12:35.468,0.005,-0.19
9:12:35.472,0.0,-0.195
9:12:35.476,-0.02,-0.22
9:12:35.480,-0.015,-0.225
9:12:35.484,0.015,-0.23
9:12:35.488,0.015,-0.22
9:12:35.492,0.015,-0.235
9:12:35.496,0.015,-0.295
9:12:35.500,0.04,-0.305
9:12:35.504,0.03,-0.295
9:12:35.508,0.06,-0.31
9:12:35.512,0.09,-0.295
9:12:35.516,0.07,-0.3
9:12:35.520,0.085,-0.325
9:12:35.524,0.08,-0.31
9:12:35.528,0.06,-0.3
9:12:35.532,0.065,-0.3
9:12:35.536,0.07,-0.29
9:12:35.540,0.065,-0.28
9:12:35.544,0.07,-0.31
9:12:35.548,0.085,-0.285
9:12:35.552,0.065,-0.285
9:12:35.556,0.075,-0.22
9:12:35.560,0.095,-0.19
9:12:35.564,0.07,-0.105
9:12:35.568,0.07,-0.02
9:12:35.572,0.055,0.185
9:12:35.576,0.075,0.51
9:12:35.580,0.065,0.875
9:12:35.584,0.08,1.205
9:12:35.588,0.115,1.505
9:12:35.592,0.13,1.665
9:12:35.596,0.085,1.67
9:12:35.600,0.075,1.435
9:12:35.604,0.045,0.955
9:12:35.608,0.005,0.28
9:12:35.612,-0.12,-0.24
9:12:35.616,-0.37,-0.45
9:12:35.620,-0.625,-0.43
9:12:35.624,-0.875,-0.43
9:12:35.628,-1.07,-0.58
9:12:35.632,-1.15,-0.705
9:12:35.636,-1.13,-0.76
9:12:35.640,-0.93,-0.77
9:12:35.644,-0.635,-0.735
9:12:35.648,-0.335,-0.64
9:12:35.652,-0.15,-0.535
9:12:35.656,-0.105,-0.45
9:12:35.660,-0.095,-0.435
9:12:35.664,-0.085,-0.415
9:12:35.668,-0.055,-0.41
9:12:35.672,-0.05,-0.425
9:12:35.676,0.0,-0.4
9:12:35.680,0.04,-0.405
9:12:35.684,0.11,-0.415
9:12:35.688,0.125,-0.395
9:12:35.692,0.14,-0.41
9:12:35.696,0.15,-0.39
9:12:35.700,0.155,-0.395
9:12:35.704,0.15,-0.385
9:12:35.708,0.17,-0.38
9:12:35.712,0.16,-0.385
9:12:35.716,0.17,-0.38
9:12:35.720,0.155,-0.38
9:12:35.724,0.195,-0.36
9:12:35.728,0.175,-0.36
9:12:35.732,0.195,-0.375
9:12:35.736,0.2,-0.37
9:12:35.740,0.18,-0.36
9:12:35.744,0.19,-0.365
9:12:35.748,0.195,-0.365
9:12:35.752,0.2,-0.37
9:12:35.756,0.175,-0.35
9:12:35.760,0.19,-0.37
9:12:35.764,0.2,-0.38
9:12:35.768,0.195,-0.375
9:12:35.772,0.185,-0.38
9:12:35.776,0.18,-0.405
9:12:35.780,0.175,-0.375
9:12:35.784,0.18,-0.39
9:12:35.788,0.18,-0.385
9:12:35.792,0.18,-0.36
9:12:35.796,0.215,-0.38
9:12:35.800,0.18,-0.4
9:12:35.804,0.2,-0.39
9:12:35.808,0.185,-0.395
9:12:35.812,0.175,-0.4
9:12:35.816,0.18,-0.385
9:12:35.820,0.195,-0.38
9:12:35.824,0.175,-0.37
9:12:35.828,0.185,-0.375
9:12:35.832,0.15,-0.35
9:12:35.836,0.155,-0.36
9:12:35.840,0.175,-0.365
9:12:35.844,0.13,-0.345
9:12:35.848,0.15,-0.34
9:12:35.852,0.145,-0.315
9:12:35.856,0.135,-0.31
9:12:35.860,0.135,-0.29
9:12:35.864,0.125,-0.255
9:12:35.868,0.14,-0.215
9:12:35.872,0.14,-0.19
9:12:35.876,0.115,-0.19
9:12:35.880,0.105,-0.16
9:12:35.884,0.11,-0.17
9:12:35.888,0.095,-0.17
9:12:35.892,0.08,-0.155
9:12:35.896,0.095,-0.155
9:12:35.900,0.085,-0.15
9:12:35.904,0.07,-0.16
9:12:35.908,0.075,-0.16
9:12:35.912,0.07,-0.17
9:12:35.916,0.045,-0.14
9:12:35.920,0.065,-0.145
9:12:35.924,0.06,-0.18
9:12:35.928,0.06,-0.2
9:12:35.932,0.06,-0.185
9:12:35.936,0.075,-0.195
9:12:35.940,0.08,-0.185
9:12:35.944,0.1,-0.2
9:12:35.948,0.075,-0.215
9:12:35.952,0.095,-0.22
9:12:35.956,0.08,-0.22
9:12:35.960,0.085,-0.23
9:12:35.964,0.11,-0.22
9:12:35.968,0.065,-0.245
9:12:35.972,0.09,-0.25
9:12:35.976,0.085,-0.265
9:12:35.980,0.1,-0.24
9:12:35.984,0.1,-0.27
9:12:35.988,0.08,-0.27
9:12:35.992,0.085,-0.27
9:12:35.996,0.095,-0.26
9:12:36.000,0.09,-0.285
9:12:36.004,0.105,-0.265
9:12:36.008,0.085,-0.27
9:12:36.012,0.11,-0.265
9:12:36.016,0.08,-0.275
9:12:36.020,0.09,-0.3
9:12:36.024,0.105,-0.295
9:12:36.028,0.12,-0.29
9:12:36.032,0.115,-0.27
9:12:36.036,0.13,-0.29
9:12:36.040,0.12,-0.29
9:12:36.044,0.12,-0.28
9:12:36.048,0.11,-0.29
9:12:36.052,0.11,-0.285
9:12:36.056,0.095,-0.305
9:12:36.060,0.12,-0.29
9:12:36.064,0.12,-0.285
9:12:36.068,0.09,-0.27
9:12:36.072,0.115,-0.27
9:12:36.076,0.115,-0.275
9:12:36.080,0.095,-0.28
9:12:36.084,0.1,-0.28
9:12:36.088,0.095,-0.29
9:12:36.092,0.105,-0.29
9:12:36.096,0.1,-0.3
9:12:36.100,0.085,-0.3
9:12:36.104,0.09,-0.31
9:12:36.108,0.085,-0.29
9:12:36.112,0.09,-0.31
9:12:36.116,0.08,-0.305
9:12:36.120,0.09,-0.315
9:12:36.124,0.08,-0.32
9:12:36.128,0.08,-0.3
9:12:36.132,0.07,-0.3
9:12:36.136,0.075,-0.305
9:12:36.140,0.08,-0.31
9:12:36.144,0.085,-0.305
9:12:36.148,0.07,-0.335
9:12:36.152,0.06,-0.33
9:12:36.156,0.065,-0.345
9:12:36.160,0.045,-0.31
9:12:36.164,0.04,-0.3
9:12:36.168,0.055,-0.3
9:12:36.172,0.05,-0.305
9:12:36.176,0.05,-0.3
9:12:36.180,0.04,-0.31
9:12:36.184,0.04,-0.33
9:12:36.188,0.055,-0.335
9:12:36.192,0.04,-0.34
9:12:36.196,0.035,-0.33
9:12:36.200,0.035,-0.315
9:12:36.204,0.035,-0.345
9:12:36.208,0.04,-0.33
9:12:36.212,0.035,-0.33
9:12:36.216,0.04,-0.33
9:12:36.220,0.045,-0.31
9:12:36.224,0.055,-0.295
9:12:36.228,0.025,-0.325
9:12:36.232,0.03,-0.32
9:12:36.236,0.04,-0.32
9:12:36.240,0.035,-0.32
9:12:36.244,0.05,-0.32
9:12:36.248,0.02,-0.3
9:12:36.252,0.05,-0.285
9:12:36.256,0.045,-0.24
9:12:36.260,0.045,-0.18
9:12:36.264,0.01,-0.15
9:12:36.268,0.05,-0.11
9:12:36.272,0.035,-0.115
9:12:36.276,0.075,-0.105
9:12:36.280,0.07,-0.11
9:12:36.284,0.1,-0.11
9:12:36.288,0.115,-0.085
9:12:36.292,0.155,-0.115
9:12:36.296,0.145,-0.11
9:12:36.300,0.155,-0.11
9:12:36.304,0.155,-0.12
9:12:36.308,0.165,-0.12
9:12:36.312,0.125,-0.155
9:12:36.316,0.11,-0.2
9:12:36.320,0.085,-0.235
9:12:36.324,0.05,-0.265
9:12:36.328,0.02,-0.29
9:12:36.332,-0.01,-0.295
9:12:36.336,-0.035,-0.285
9:12:36.340,-0.005,-0.265
9:12:36.344,-0.025,-0.285
9:12:36.348,-0.03,-0.25
9:12:36.352,-0.045,-0.26
9:12:36.356,-0.055,-0.25
9:12:36.360,-0.025,-0.265
9:12:36.364,-0.02,-0.275
9:12:36.368,0.005,-0.275
9:12:36.372,0.015,-0.33
9:12:36.376,0.02,-0.35
9:12:36.380,0.01,-0.365
9:12:36.384,0.02,-0.385
9:12:36.388,0.025,-0.385
9:12:36.392,0.05,-0.38
9:12:36.396,0.07,-0.405
9:12:36.400,0.08,-0.39
9:12:36.404,0.08,-0.395
9:12:36.408,0.05,-0.385
9:12:36.412,0.04,-0.38
9:12:36.416,0.075,-0.39
9:12:36.420,0.06,-0.38
9:12:36.424,0.06,-0.375
9:12:36.428,0.05,-0.36
9:12:36.432,0.045,-0.37
9:12:36.436,0.04,-0.335
9:12:36.440,0.035,-0.31
9:12:36.444,0.04,-0.275
9:12:36.448,0.04,-0.205
9:12:36.452,0.04,-0.13
9:12:36.456,0.045,0.03
9:12:36.460,0.055,0.34
9:12:36.464,0.045,0.67
9:12:36.468,0.075,1.005
9:12:36.472,0.13,1.29
9:12:36.476,0.12,1.48
9:12:36.480,0.135,1.54
9:12:36.484,0.085,1.38
9:12:36.488,0.04,0.99
9:12:36.492,-0.005,0.375
9:12:36.496,-0.12,-0.155
9:12:36.500,-0.355,-0.4
9:12:36.504,-0.635,-0.37
9:12:36.508,-0.95,-0.33
9:12:36.512,-1.185,-0.46
9:12:36.516,-1.32,-0.67
9:12:36.520,-1.345,-0.805
9:12:36.524,-1.18,-0.87
9:12:36.528,-0.88,-0.86
9:12:36.532,-0.545,-0.785
9:12:36.536,-0.265,-0.68
9:12:36.540,-0.15,-0.58
9:12:36.544,-0.115,-0.54
9:12:36.548,-0.12,-0.51
9:12:36.552,-0.095,-0.505
9:12:36.556,-0.085,-0.525
9:12:36.560,-0.065,-0.51
9:12:36.564,-0.01,-0.51
9:12:36.568,0.055,-0.51
9:12:36.572,0.11,-0.5
9:12:36.576,0.125,-0.51
9:12:36.580,0.135,-0.515
9:12:36.584,0.13,-0.51
9:12:36.588,0.115,-0.495
9:12:36.592,0.15,-0.485
9:12:36.596,0.18,-0.485
9:12:36.600,0.14,-0.475
9:12:36.604,0.14,-0.47
9:12:36.608,0.175,-0.46
9:12:36.612,0.155,-0.44
9:12:36.616,0.175,-0.44
9:12:36.620,0.195,-0.435
9:12:36.624,0.17,-0.44
9:12:36.628,0.19,-0.45
9:12:36.632,0.18,-0.445
9:12:36.636,0.18,-0.42
9:12:36.640,0.195,-0.42
9:12:36.644,0.175,-0.43
9:12:36.648,0.185,-0.425
9:12:36.652,0.18,-0.425
9:12:36.656,0.18,-0.43
9:12:36.660,0.195,-0.45
9:12:36.664,0.2,-0.425
9:12:36.668,0.19,-0.425
9:12:36.672,0.195,-0.44
9:12:36.676,0.205,-0.43
9:12:36.680,0.195,-0.445
9:12:36.684,0.21,-0.405
9:12:36.688,0.185,-0.405
9:12:36.692,0.195,-0.4
9:12:36.696,0.21,-0.415
9:12:36.700,0.205,-0.39
9:12:36.704,0.19,-0.385
9:12:36.708,0.18,-0.395
9:12:36.712,0.21,-0.39
9:12:36.716,0.19,-0.38
9:12:36.720,0.175,-0.37
9:12:36.724,0.18,-0.38
9:12:36.728,0.19,-0.365
9:12:36.732,0.185,-0.345
9:12:36.736,0.2,-0.32
9:12:36.740,0.195,-0.325
9:12:36.744,0.21,-0.305
9:12:36.748,0.17,-0.28
9:12:36.752,0.165,-0.29
9:12:36.756,0.175,-0.27
9:12:36.760,0.165,-0.235
9:12:36.764,0.145,-0.195
9:12:36.768,0.15,-0.19
9:12:36.772,0.12,-0.195
9:12:36.776,0.135,-0.185
9:12:36.780,0.125,-0.18
9:12:36.784,0.13,-0.17
9:12:36.788,0.135,-0.17
9:12:36.792,0.135,-0.175
9:12:36.796,0.1,-0.175
9:12:36.800,0.1,-0.18
9:12:36.804,0.105,-0.175
9:12:36.808,0.09,-0.17
9:12:36.812,0.075,-0.195
9:12:36.816,0.08,-0.165
9:12:36.820,0.05,-0.19
9:12:36.824,0.06,-0.195
9:12:36.828,0.07,-0.22
9:12:36.832,0.08,-0.225
9:12:36.836,0.07,-0.225
9:12:36.840,0.09,-0.225
9:12:36.844,0.105,-0.22
9:12:36.848,0.095,-0.22
9:12:36.852,0.105,-0.23
9:12:36.856,0.09,-0.23
9:12:36.860,0.075,-0.235
