Time,ECG1,ECG2
1:16:46.808,0.185,-0.125
1:16:46.812,0.17,-0.125
1:16:46.816,0.195,-0.1
1:16:46.820,0.18,-0.115
1:16:46.824,0.19,-0.14
1:16:46.828,0.185,-0.1
1:16:46.832,0.16,-0.105
1:16:46.836,0.185,-0.11
1:16:46.840,0.185,-0.135
1:16:46.844,0.165,-0.12
1:16:46.848,0.15,-0.135
1:16:46.852,0.17,-0.155
1:16:46.856,0.175,-0.145
1:16:46.860,0.18,-0.135
1:16:46.864,0.16,-0.145
1:16:46.868,0.16,-0.135
1:16:46.872,0.17,-0.125
1:16:46.876,0.15,-0.12
1:16:46.880,0.15,-0.14
1:16:46.884,0.165,-0.145
1:16:46.888,0.15,-0.145
1:16:46.892,0.155,-0.14
1:16:46.896,0.15,-0.125
1:16:46.900,0.165,-0.135
1:16:46.904,0.15,-0.125
1:16:46.908,0.14,-0.14
1:16:46.912,0.155,-0.135
1:16:46.916,0.145,-0.145
1:16:46.920,0.16,-0.145
1:16:46.924,0.165,-0.135
1:16:46.928,0.16,-0.15
1:16:46.932,0.145,-0.145
1:16:46.936,0.16,-0.155
1:16:46.940,0.18,-0.135
1:16:46.944,0.16,-0.14
1:16:46.948,0.15,-0.13
1:16:46.952,0.15,-0.14
1:16:46.956,0.135,-0.145
1:16:46.960,0.145,-0.145
1:16:46.964,0.145,-0.13
1:16:46.968,0.15,-0.145
1:16:46.972,0.145,-0.135
1:16:46.976,0.155,-0.125
1:16:46.980,0.14,-0.14
1:16:46.984,0.15,-0.14
1:16:46.988,0.15,-0.135
1:16:46.992,0.13,-0.145
1:16:46.996,0.145,-0.14
1:16:47.000,0.14,-0.145
1:16:47.004,0.125,-0.15
1:16:47.008,0.125,-0.13
1:16:47.012,0.13,-0.135
1:16:47.016,0.145,-0.145
1:16:47.020,0.145,-0.14
1:16:47.024,0.16,-0.13
1:16:47.028,0.15,-0.135
1:16:47.032,0.14,-0.135
1:16:47.036,0.12,-0.14
1:16:47.040,0.12,-0.13
1:16:47.044,0.13,-0.13
1:16:47.048,0.125,-0.14
1:16:47.052,0.13,-0.14
1:16:47.056,0.15,-0.145
1:16:47.060,0.14,-0.15
1:16:47.064,0.125,-0.15
1:16:47.068,0.13,-0.14
1:16:47.072,0.135,-0.155
1:16:47.076,0.145,-0.16
1:16:47.080,0.15,-0.15
1:16:47.084,0.135,-0.15
1:16:47.088,0.15,-0.14
1:16:47.092,0.135,-0.15
1:16:47.096,0.12,-0.14
1:16:47.100,0.125,-0.15
1:16:47.104,0.115,-0.15
1:16:47.108,0.14,-0.15
1:16:47.112,0.125,-0.16
1:16:47.116,0.135,-0.16
1:16:47.120,0.125,-0.14
1:16:47.124,0.125,-0.14
1:16:47.128,0.12,-0.15
1:16:47.132,0.12,-0.14
1:16:47.136,0.14,-0.15
1:16:47.140,0.115,-0.165
1:16:47.144,0.11,-0.16
1:16:47.148,0.13,-0.145
1:16:47.152,0.14,-0.16
1:16:47.156,0.1,-0.165
1:16:47.160,0.12,-0.165
1:16:47.164,0.14,-0.17
1:16:47.168,0.105,-0.145
1:16:47.172,0.135,-0.155
1:16:47.176,0.14,-0.145
1:16:47.180,0.13,-0.15
1:16:47.184,0.13,-0.165
1:16:47.188,0.125,-0.15
1:16:47.192,0.13,-0.155
1:16:47.196,0.12,-0.17
1:16:47.200,0.12,-0.17
1:16:47.204,0.145,-0.16
1:16:47.208,0.13,-0.18
1:16:47.212,0.13,-0.175
1:16:47.216,0.13,-0.175
1:16:47.220,0.13,-0.165
1:16:47.224,0.115,-0.175
1:16:47.228,0.13,-0.165
1:16:47.232,0.115,-0.175
1:16:47.236,0.105,-0.175
1:16:47.240,0.105,-0.175
1:16:47.244,0.115,-0.21
1:16:47.248,0.1,-0.19
1:16:47.252,0.095,-0.195
1:16:47.256,0.125,-0.18
1:16:47.260,0.12,-0.16
1:16:47.264,0.11,-0.19
1:16:47.268,0.125,-0.195
1:16:47.272,0.12,-0.21
1:16:47.276,0.1,-0.185
1:16:47.280,0.115,-0.2
1:16:47.284,0.11,-0.19
1:16:47.288,0.095,-0.195
1:16:47.292,0.105,-0.2
1:16:47.296,0.12,-0.19
1:16:47.300,0.13,-0.2
1:16:47.304,0.11,-0.195
1:16:47.308,0.1,-0.18
1:16:47.312,0.1,-0.19
1:16:47.316,0.105,-0.195
1:16:47.320,0.105,-0.195
1:16:47.324,0.105,-0.19
1:16:47.328,0.09,-0.19
1:16:47.332,0.105,-0.205
1:16:47.336,0.115,-0.19
1:16:47.340,0.12,-0.17
1:16:47.344,0.11,-0.19
1:16:47.348,0.11,-0.2
1:16:47.352,0.125,-0.185
1:16:47.356,0.11,-0.185
1:16:47.360,0.09,-0.195
1:16:47.364,0.09,-0.195
1:16:47.368,0.1,-0.18
1:16:47.372,0.1,-0.2
1:16:47.376,0.12,-0.21
1:16:47.380,0.1,-0.185
1:16:47.384,0.115,-0.18
1:16:47.388,0.115,-0.17
1:16:47.392,0.105,-0.185
1:16:47.396,0.105,-0.2
1:16:47.400,0.12,-0.18
1:16:47.404,0.11,-0.195
1:16:47.408,0.1,-0.19
1:16:47.412,0.12,-0.175
1:16:47.416,0.11,-0.19
1:16:47.420,0.09,-0.185
1:16:47.424,0.09,-0.19
1:16:47.428,0.105,-0.16
1:16:47.432,0.11,-0.19
1:16:47.436,0.11,-0.2
1:16:47.440,0.09,-0.19
1:16:47.444,0.105,-0.2
1:16:47.448,0.09,-0.19
1:16:47.452,0.105,-0.19
1:16:47.456,0.09,-0.185
1:16:47.460,0.11,-0.185
1:16:47.464,0.085,-0.19
1:16:47.468,0.1,-0.185
1:16:47.472,0.08,-0.185
1:16:47.476,0.075,-0.19
1:16:47.480,0.1,-0.175
1:16:47.484,0.09,-0.185
1:16:47.488,0.12,-0.18
1:16:47.492,0.1,-0.19
1:16:47.496,0.11,-0.185
1:16:47.500,0.11,-0.18
1:16:47.504,0.12,-0.185
1:16:47.508,0.11,-0.16
1:16:47.512,0.105,-0.19
1:16:47.516,0.105,-0.185
1:16:47.520,0.095,-0.155
1:16:47.524,0.105,-0.155
1:16:47.528,0.115,-0.145
1:16:47.532,0.12,-0.1
1:16:47.536,0.125,-0.06
1:16:47.540,0.11,-0.045
1:16:47.544,0.11,-0.02
1:16:47.548,0.105,-0.02
1:16:47.552,0.13,-0.045
1:16:47.556,0.16,-0.03
1:16:47.560,0.19,-0.04
1:16:47.564,0.2,-0.06
1:16:47.568,0.19,-0.07
1:16:47.572,0.22,-0.065
1:16:47.576,0.215,-0.075
1:16:47.580,0.2,-0.04
1:16:47.584,0.2,-0.01
1:16:47.588,0.21,-0.01
1:16:47.592,0.185,-0.07
1:16:47.596,0.185,-0.115
1:16:47.600,0.155,-0.15
1:16:47.604,0.145,-0.15
1:16:47.608,0.125,-0.15
1:16:47.612,0.115,-0.155
1:16:47.616,0.095,-0.14
1:16:47.620,0.07,-0.105
1:16:47.624,0.05,-0.125
1:16:47.628,0.03,-0.11
1:16:47.632,0.05,-0.14
1:16:47.636,0.065,-0.155
1:16:47.640,0.035,-0.145
1:16:47.644,0.06,-0.14
1:16:47.648,0.07,-0.14
1:16:47.652,0.095,-0.155
1:16:47.656,0.07,-0.175
1:16:47.660,0.08,-0.17
1:16:47.664,0.105,-0.165
1:16:47.668,0.115,-0.18
1:16:47.672,0.125,-0.16
1:16:47.676,0.145,-0.155
1:16:47.680,0.155,-0.17
1:16:47.684,0.16,-0.17
1:16:47.688,0.155,-0.17
1:16:47.692,0.155,-0.18
1:16:47.696,0.16,-0.17
1:16:47.700,0.155,-0.17
1:16:47.704,0.135,-0.14
1:16:47.708,0.145,-0.155
1:16:47.712,0.165,-0.14
1:16:47.716,0.14,-0.135
1:16:47.720,0.15,-0.105
1:16:47.724,0.15,-0.095
1:16:47.728,0.145,-0.065
1:16:47.732,0.155,-0.09
1:16:47.736,0.145,0.01
1:16:47.740,0.145,0.21
1:16:47.744,0.165,0.45
1:16:47.748,0.19,0.66
1:16:47.752,0.205,0.84
1:16:47.756,0.205,0.955
1:16:47.760,0.13,1.01
1:16:47.764,0.105,0.98
1:16:47.768,0.125,0.865
1:16:47.772,0.03,0.58
1:16:47.776,-0.09,0.355
1:16:47.780,-0.335,0.305
1:16:47.784,-0.635,0.35
1:16:47.788,-0.91,0.235
1:16:47.792,-1.06,-0.06
1:16:47.796,-1.09,-0.35
1:16:47.800,-0.945,-0.555
1:16:47.804,-0.63,-0.61
1:16:47.808,-0.26,-0.61
1:16:47.812,0.015,-0.535
1:16:47.816,0.07,-0.45
1:16:47.820,0.025,-0.37
1:16:47.824,0.015,-0.34
1:16:47.828,0.005,-0.375
1:16:47.832,0.015,-0.36
1:16:47.836,0.055,-0.35
1:16:47.840,0.105,-0.355
1:16:47.844,0.15,-0.35
1:16:47.848,0.19,-0.34
1:16:47.852,0.22,-0.36
1:16:47.856,0.245,-0.34
1:16:47.860,0.24,-0.345
1:16:47.864,0.24,-0.345
1:16:47.868,0.28,-0.345
1:16:47.872,0.245,-0.34
1:16:47.876,0.26,-0.34
1:16:47.880,0.25,-0.35
1:16:47.884,0.275,-0.355
1:16:47.888,0.295,-0.35
1:16:47.892,0.275,-0.34
1:16:47.896,0.28,-0.35
1:16:47.900,0.28,-0.34
1:16:47.904,0.27,-0.335
1:16:47.908,0.285,-0.32
1:16:47.912,0.285,-0.325
1:16:47.916,0.27,-0.345
1:16:47.920,0.275,-0.34
1:16:47.924,0.275,-0.35
1:16:47.928,0.275,-0.345
1:16:47.932,0.29,-0.355
1:16:47.936,0.26,-0.345
1:16:47.940,0.275,-0.35
1:16:47.944,0.255,-0.34
1:16:47.948,0.255,-0.355
1:16:47.952,0.27,-0.345
1:16:47.956,0.26,-0.355
1:16:47.960,0.265,-0.345
1:16:47.964,0.265,-0.37
1:16:47.968,0.28,-0.36
1:16:47.972,0.27,-0.37
1:16:47.976,0.265,-0.36
1:16:47.980,0.255,-0.38
1:16:47.984,0.255,-0.38
1:16:47.988,0.235,-0.385
1:16:47.992,0.25,-0.38
1:16:47.996,0.235,-0.37
1:16:48.000,0.235,-0.365
1:16:48.004,0.245,-0.39
1:16:48.008,0.24,-0.395
1:16:48.012,0.225,-0.39
1:16:48.016,0.23,-0.355
1:16:48.020,0.215,-0.375
1:16:48.024,0.215,-0.375
1:16:48.028,0.22,-0.36
1:16:48.032,0.18,-0.345
1:16:48.036,0.195,-0.365
1:16:48.040,0.185,-0.355
1:16:48.044,0.195,-0.33
1:16:48.048,0.195,-0.345
1:16:48.052,0.2,-0.32
1:16:48.056,0.165,-0.32
1:16:48.060,0.18,-0.29
1:16:48.064,0.185,-0.295
1:16:48.068,0.16,-0.27
1:16:48.072,0.165,-0.26
1:16:48.076,0.155,-0.25
1:16:48.080,0.175,-0.21
1:16:48.084,0.165,-0.215
1:16:48.088,0.14,-0.195
1:16:48.092,0.12,-0.2
1:16:48.096,0.15,-0.17
1:16:48.100,0.13,-0.17
1:16:48.104,0.13,-0.15
1:16:48.108,0.145,-0.13
1:16:48.112,0.155,-0.135
1:16:48.116,0.155,-0.13
1:16:48.120,0.125,-0.115
1:16:48.124,0.125,-0.11
1:16:48.128,0.125,-0.09
1:16:48.132,0.135,-0.095
1:16:48.136,0.115,-0.11
1:16:48.140,0.145,-0.095
1:16:48.144,0.14,-0.08
1:16:48.148,0.125,-0.09
1:16:48.152,0.14,-0.105
1:16:48.156,0.16,-0.095
1:16:48.160,0.14,-0.105
1:16:48.164,0.165,-0.095
1:16:48.168,0.13,-0.105
1:16:48.172,0.165,-0.105
1:16:48.176,0.165,-0.105
1:16:48.180,0.155,-0.1
1:16:48.184,0.165,-0.12
1:16:48.188,0.18,-0.11
1:16:48.192,0.165,-0.105
1:16:48.196,0.175,-0.115
1:16:48.200,0.185,-0.12
1:16:48.204,0.185,-0.11
1:16:48.208,0.18,-0.12
1:16:48.212,0.195,-0.12
1:16:48.216,0.2,-0.11
1:16:48.220,0.19,-0.13
1:16:48.224,0.22,-0.155
1:16:48.228,0.21,-0.14
1:16:48.232,0.21,-0.155
1:16:48.236,0.195,-0.125
1:16:48.240,0.2,-0.15
1:16:48.244,0.2,-0.135
1:16:48.248,0.21,-0.145
1:16:48.252,0.225,-0.14
1:16:48.256,0.175,-0.145
1:16:48.260,0.195,-0.15
1:16:48.264,0.215,-0.15
1:16:48.268,0.2,-0.17
1:16:48.272,0.195,-0.155
1:16:48.276,0.205,-0.16
1:16:48.280,0.18,-0.18
1:16:48.284,0.17,-0.2
1:16:48.288,0.185,-0.19
1:16:48.292,0.195,-0.17
1:16:48.296,0.215,-0.185
1:16:48.300,0.2,-0.18
1:16:48.304,0.195,-0.155
1:16:48.308,0.18,-0.17
1:16:48.312,0.185,-0.17
1:16:48.316,0.17,-0.165
1:16:48.320,0.15,-0.175
1:16:48.324,0.18,-0.165
1:16:48.328,0.185,-0.175
1:16:48.332,0.15,-0.19
1:16:48.336,0.155,-0.2
1:16:48.340,0.155,-0.185
1:16:48.344,0.155,-0.17
1:16:48.348,0.17,-0.16
1:16:48.352,0.155,-0.18
1:16:48.356,0.155,-0.18
1:16:48.360,0.17,-0.18
1:16:48.364,0.165,-0.185
1:16:48.368,0.165,-0.185
1:16:48.372,0.17,-0.19
1:16:48.376,0.145,-0.2
1:16:48.380,0.16,-0.18
1:16:48.384,0.185,-0.185
1:16:48.388,0.155,-0.18
1:16:48.392,0.17,-0.2
1:16:48.396,0.17,-0.18
1:16:48.400,0.18,-0.205
1:16:48.404,0.165,-0.19
1:16:48.408,0.155,-0.195
1:16:48.412,0.19,-0.18
1:16:48.416,0.19,-0.19
1:16:48.420,0.165,-0.195
1:16:48.424,0.18,-0.21
1:16:48.428,0.17,-0.185
1:16:48.432,0.18,-0.175
1:16:48.436,0.175,-0.2
1:16:48.440,0.18,-0.19
1:16:48.444,0.165,-0.205
1:16:48.448,0.185,-0.195
1:16:48.452,0.2,-0.205
1:16:48.456,0.185,-0.175
1:16:48.460,0.175,-0.18
1:16:48.464,0.2,-0.2
1:16:48.468,0.185,-0.185
1:16:48.472,0.175,-0.195
1:16:48.476,0.19,-0.21
1:16:48.480,0.19,-0.19
1:16:48.484,0.165,-0.185
1:16:48.488,0.18,-0.205
1:16:48.492,0.185,-0.185
1:16:48.496,0.165,-0.19
1:16:48.500,0.175,-0.21
1:16:48.504,0.19,-0.2
1:16:48.508,0.16,-0.19
1:16:48.512,0.21,-0.2
1:16:48.516,0.17,-0.21
1:16:48.520,0.17,-0.195
1:16:48.524,0.175,-0.21
1:16:48.528,0.185,-0.185
1:16:48.532,0.175,-0.2
1:16:48.536,0.21,-0.205
1:16:48.540,0.165,-0.21
1:16:48.544,0.175,-0.2
1:16:48.548,0.18,-0.195
1:16:48.552,0.18,-0.21
1:16:48.556,0.18,-0.19
1:16:48.560,0.19,-0.195
1:16:48.564,0.165,-0.195
1:16:48.568,0.18,-0.18
1:16:48.572,0.17,-0.18
1:16:48.576,0.185,-0.12
1:16:48.580,0.175,-0.11
1:16:48.584,0.19,-0.085
1:16:48.588,0.19,-0.065
1:16:48.592,0.2,-0.045
1:16:48.596,0.225,-0.035
1:16:48.600,0.22,-0.03
1:16:48.604,0.23,-0.02
1:16:48.608,0.27,-0.03
1:16:48.612,0.29,-0.02
1:16:48.616,0.29,-0.055
1:16:48.620,0.285,-0.03
1:16:48.624,0.3,-0.03
1:16:48.628,0.28,-0.015
1:16:48.632,0.275,-0.03
1:16:48.636,0.27,-0.04
1:16:48.640,0.22,-0.075
1:16:48.644,0.225,-0.115
1:16:48.648,0.22,-0.145
1:16:48.652,0.19,-0.145
1:16:48.656,0.155,-0.17
1:16:48.660,0.155,-0.14
1:16:48.664,0.13,-0.11
1:16:48.668,0.12,-0.13
1:16:48.672,0.105,-0.12
1:16:48.676,0.11,-0.135
1:16:48.680,0.13,-0.16
1:16:48.684,0.115,-0.16
1:16:48.688,0.14,-0.16
1:16:48.692,0.145,-0.17
1:16:48.696,0.145,-0.17
1:16:48.700,0.15,-0.2
1:16:48.704,0.155,-0.2
1:16:48.708,0.155,-0.245
1:16:48.712,0.17,-0.22
1:16:48.716,0.185,-0.22
1:16:48.720,0.2,-0.22
1:16:48.724,0.22,-0.23
1:16:48.728,0.205,-0.21
1:16:48.732,0.215,-0.2
1:16:48.736,0.23,-0.21
1:16:48.740,0.22,-0.195
1:16:48.744,0.21,-0.2
1:16:48.748,0.23,-0.2
1:16:48.752,0.235,-0.2
1:16:48.756,0.215,-0.19
1:16:48.760,0.22,-0.185
1:16:48.764,0.24,-0.175
1:16:48.768,0.235,-0.185
1:16:48.772,0.225,-0.17
1:16:48.776,0.2,-0.14
1:16:48.780,0.23,-0.095
1:16:48.784,0.23,-0.1
1:16:48.788,0.22,-0.095
1:16:48.792,0.215,0.025
1:16:48.796,0.22,0.23
1:16:48.800,0.24,0.45
1:16:48.804,0.295,0.62
1:16:48.808,0.325,0.735
1:16:48.812,0.245,0.785
1:16:48.816,0.185,0.81
1:16:48.820,0.165,0.735
1:16:48.824,0.105,0.53
1:16:48.828,0.0,0.305
1:16:48.832,-0.2,0.17
1:16:48.836,-0.505,0.27
1:16:48.840,-0.82,0.325
1:16:48.844,-1.055,0.115
1:16:48.848,-1.155,-0.21
1:16:48.852,-1.15,-0.48
1:16:48.856,-0.93,-0.595
1:16:48.860,-0.48,-0.665
1:16:48.864,-0.065,-0.63
1:16:48.868,0.135,-0.51
1:16:48.872,0.125,-0.39
1:16:48.876,0.105,-0.36
1:16:48.880,0.08,-0.325
1:16:48.884,0.1,-0.32
1:16:48.888,0.11,-0.325
1:16:48.892,0.145,-0.325
1:16:48.896,0.21,-0.35
1:16:48.900,0.245,-0.35
1:16:48.904,0.28,-0.345
1:16:48.908,0.32,-0.34
1:16:48.912,0.34,-0.355
1:16:48.916,0.315,-0.345
1:16:48.920,0.315,-0.345
1:16:48.924,0.345,-0.335
1:16:48.928,0.34,-0.33
1:16:48.932,0.34,-0.35
1:16:48.936,0.335,-0.345
1:16:48.940,0.33,-0.315
1:16:48.944,0.335,-0.335
1:16:48.948,0.35,-0.34
1:16:48.952,0.32,-0.34
1:16:48.956,0.35,-0.325
1:16:48.960,0.355,-0.345
1:16:48.964,0.335,-0.32
1:16:48.968,0.365,-0.325
1:16:48.972,0.36,-0.33
1:16:48.976,0.355,-0.34
1:16:48.980,0.36,-0.345
1:16:48.984,0.375,-0.355
1:16:48.988,0.38,-0.345
1:16:48.992,0.35,-0.32
1:16:48.996,0.35,-0.345
1:16:49.000,0.33,-0.34
1:16:49.004,0.37,-0.34
1:16:49.008,0.355,-0.34
1:16:49.012,0.34,-0.36
1:16:49.016,0.345,-0.365
1:16:49.020,0.335,-0.355
1:16:49.024,0.355,-0.35
1:16:49.028,0.355,-0.365
1:16:49.032,0.335,-0.365
1:16:49.036,0.335,-0.37
1:16:49.040,0.335,-0.36
1:16:49.044,0.32,-0.37
1:16:49.048,0.32,-0.36
1:16:49.052,0.325,-0.37
1:16:49.056,0.325,-0.37
1:16:49.060,0.31,-0.365
1:16:49.064,0.3,-0.345
1:16:49.068,0.335,-0.35
1:16:49.072,0.33,-0.35
1:16:49.076,0.33,-0.35
1:16:49.080,0.315,-0.335
1:16:49.084,0.3,-0.32
1:16:49.088,0.315,-0.315
1:16:49.092,0.305,-0.31
1:16:49.096,0.305,-0.305
1:16:49.100,0.285,-0.275
1:16:49.104,0.275,-0.285
1:16:49.108,0.295,-0.255
1:16:49.112,0.28,-0.255
1:16:49.116,0.27,-0.23
1:16:49.120,0.26,-0.225
1:16:49.124,0.28,-0.215
1:16:49.128,0.24,-0.21
1:16:49.132,0.24,-0.195
1:16:49.136,0.26,-0.2
1:16:49.140,0.26,-0.145
1:16:49.144,0.245,-0.16
1:16:49.148,0.255,-0.15
1:16:49.152,0.26,-0.16
1:16:49.156,0.24,-0.145
1:16:49.160,0.235,-0.16
1:16:49.164,0.235,-0.145
1:16:49.168,0.245,-0.145
1:16:49.172,0.25,-0.17
1:16:49.176,0.25,-0.155
1:16:49.180,0.28,-0.16
1:16:49.184,0.26,-0.16
1:16:49.188,0.26,-0.155
1:16:49.192,0.25,-0.16
1:16:49.196,0.25,-0.16
1:16:49.200,0.24,-0.16
1:16:49.204,0.265,-0.175
1:16:49.208,0.26,-0.175
1:16:49.212,0.255,-0.17
1:16:49.216,0.28,-0.19
1:16:49.220,0.285,-0.195
1:16:49.224,0.275,-0.185
1:16:49.228,0.25,-0.185
1:16:49.232,0.28,-0.185
1:16:49.236,0.275,-0.17
1:16:49.240,0.27,-0.17
1:16:49.244,0.28,-0.19
1:16:49.248,0.27,-0.185
1:16:49.252,0.27,-0.195
1:16:49.256,0.27,-0.21
1:16:49.260,0.3,-0.195
1:16:49.264,0.295,-0.195
1:16:49.268,0.29,-0.205
1:16:49.272,0.265,-0.185
1:16:49.276,0.29,-0.18
1:16:49.280,0.295,-0.19
1:16:49.284,0.29,-0.185
1:16:49.288,0.285,-0.195
1:16:49.292,0.3,-0.2
1:16:49.296,0.285,-0.185
1:16:49.300,0.28,-0.175
1:16:49.304,0.275,-0.17
1:16:49.308,0.295,-0.18
1:16:49.312,0.285,-0.18
1:16:49.316,0.295,-0.18
1:16:49.320,0.295,-0.185
1:16:49.324,0.295,-0.18
1:16:49.328,0.3,-0.2
1:16:49.332,0.29,-0.18
1:16:49.336,0.275,-0.2
1:16:49.340,0.27,-0.2
1:16:49.344,0.26,-0.195
1:16:49.348,0.27,-0.205
1:16:49.352,0.275,-0.18
1:16:49.356,0.255,-0.205
1:16:49.360,0.255,-0.19
1:16:49.364,0.245,-0.185
1:16:49.368,0.255,-0.18
1:16:49.372,0.265,-0.185
1:16:49.376,0.27,-0.195
1:16:49.380,0.28,-0.19
1:16:49.384,0.265,-0.18
1:16:49.388,0.245,-0.17
1:16:49.392,0.265,-0.195
1:16:49.396,0.25,-0.2
1:16:49.400,0.265,-0.185
1:16:49.404,0.27,-0.19
1:16:49.408,0.25,-0.18
1:16:49.412,0.275,-0.18
1:16:49.416,0.25,-0.17
1:16:49.420,0.245,-0.19
1:16:49.424,0.265,-0.185
1:16:49.428,0.27,-0.185
1:16:49.432,0.255,-0.185
1:16:49.436,0.265,-0.175
1:16:49.440,0.255,-0.205
1:16:49.444,0.265,-0.19
1:16:49.448,0.275,-0.205
1:16:49.452,0.26,-0.185
1:16:49.456,0.255,-0.17
1:16:49.460,0.25,-0.19
1:16:49.464,0.235,-0.18
1:16:49.468,0.255,-0.175
1:16:49.472,0.255,-0.185
1:16:49.476,0.25,-0.185
1:16:49.480,0.27,-0.19
1:16:49.484,0.26,-0.195
1:16:49.488,0.25,-0.18
1:16:49.492,0.24,-0.19
1:16:49.496,0.26,-0.19
1:16:49.500,0.27,-0.18
1:16:49.504,0.27,-0.18
1:16:49.508,0.255,-0.18
1:16:49.512,0.255,-0.175
1:16:49.516,0.275,-0.19
1:16:49.520,0.27,-0.185
1:16:49.524,0.275,-0.17
1:16:49.528,0.275,-0.18
1:16:49.532,0.25,-0.16
1:16:49.536,0.26,-0.17
1:16:49.540,0.265,-0.18
1:16:49.544,0.265,-0.16
1:16:49.548,0.28,-0.18
1:16:49.552,0.26,-0.18
1:16:49.556,0.255,-0.185
1:16:49.560,0.28,-0.18
1:16:49.564,0.285,-0.175
1:16:49.568,0.285,-0.18
1:16:49.572,0.265,-0.165
1:16:49.576,0.27,-0.175
1:16:49.580,0.24,-0.14
1:16:49.584,0.24,-0.14
1:16:49.588,0.255,-0.125
1:16:49.592,0.28,-0.065
1:16:49.596,0.275,-0.055
1:16:49.600,0.27,-0.025
1:16:49.604,0.265,0.01
1:16:49.608,0.28,0.005
1:16:49.612,0.295,0.01
1:16:49.616,0.32,-0.005
1:16:49.620,0.345,0.01
1:16:49.624,0.38,0.005
1:16:49.628,0.385,-0.01
1:16:49.632,0.38,-0.01
1:16:49.636,0.385,0.0
1:16:49.640,0.365,0.015
1:16:49.644,0.355,0.035
1:16:49.648,0.355,0.015
1:16:49.652,0.33,0.02
1:16:49.656,0.32,0.005
1:16:49.660,0.31,-0.02
1:16:49.664,0.3,-0.075
1:16:49.668,0.26,-0.115
1:16:49.672,0.235,-0.105
1:16:49.676,0.235,-0.12
1:16:49.680,0.21,-0.085
1:16:49.684,0.21,-0.08
1:16:49.688,0.195,-0.085
1:16:49.692,0.2,-0.075
1:16:49.696,0.2,-0.09
1:16:49.700,0.19,-0.09
1:16:49.704,0.205,-0.1
1:16:49.708,0.24,-0.115
1:16:49.712,0.24,-0.12
1:16:49.716,0.25,-0.145
1:16:49.720,0.25,-0.15
1:16:49.724,0.23,-0.16
1:16:49.728,0.255,-0.175
1:16:49.732,0.265,-0.155
1:16:49.736,0.3,-0.16
1:16:49.740,0.32,-0.16
1:16:49.744,0.285,-0.15
1:16:49.748,0.295,-0.15
1:16:49.752,0.33,-0.16
1:16:49.756,0.305,-0.155
1:16:49.760,0.29,-0.145
1:16:49.764,0.315,-0.14
1:16:49.768,0.3,-0.125
1:16:49.772,0.305,-0.135
1:16:49.776,0.305,-0.135
1:16:49.780,0.31,-0.135
1:16:49.784,0.305,-0.125
1:16:49.788,0.29,-0.13
1:16:49.792,0.3,-0.115
1:16:49.796,0.295,-0.085
1:16:49.800,0.3,-0.025
1:16:49.804,0.305,-0.025
1:16:49.808,0.31,-0.04
1:16:49.812,0.3,0.0
1:16:49.816,0.295,0.155
1:16:49.820,0.315,0.35
1:16:49.824,0.345,0.56
1:16:49.828,0.395,0.705
1:16:49.832,0.385,0.795
1:16:49.836,0.33,0.82
1:16:49.840,0.275,0.81
1:16:49.844,0.24,0.765
1:16:49.848,0.22,0.61
1:16:49.852,0.05,0.355
1:16:49.856,-0.145,0.195
1:16:49.860,-0.465,0.235
1:16:49.864,-0.78,0.38
1:16:49.868,-0.995,0.335
1:16:49.872,-1.1,0.07
1:16:49.876,-1.13,-0.22
1:16:49.880,-0.995,-0.445
1:16:49.884,-0.66,-0.555
1:16:49.888,-0.2,-0.59
1:16:49.892,0.125,-0.555
1:16:49.896,0.245,-0.435
1:16:49.900,0.225,-0.32
1:16:49.904,0.195,-0.27
1:16:49.908,0.175,-0.27
1:16:49.912,0.195,-0.27
1:16:49.916,0.185,-0.26
1:16:49.920,0.23,-0.28
1:16:49.924,0.29,-0.275
1:16:49.928,0.36,-0.25
1:16:49.932,0.405,-0.255
1:16:49.936,0.415,-0.245
1:16:49.940,0.405,-0.28
1:16:49.944,0.405,-0.255
1:16:49.948,0.415,-0.255
1:16:49.952,0.415,-0.25
1:16:49.956,0.405,-0.24
1:16:49.960,0.42,-0.26
1:16:49.964,0.425,-0.245
1:16:49.968,0.43,-0.245
1:16:49.972,0.43,-0.235
1:16:49.976,0.425,-0.245
1:16:49.980,0.445,-0.23
1:16:49.984,0.445,-0.22
1:16:49.988,0.44,-0.255
1:16:49.992,0.44,-0.23
1:16:49.996,0.435,-0.23
1:16:50.000,0.44,-0.23
1:16:50.004,0.445,-0.235
1:16:50.008,0.46,-0.24
1:16:50.012,0.44,-0.24
1:16:50.016,0.445,-0.235
1:16:50.020,0.465,-0.25
1:16:50.024,0.435,-0.235
1:16:50.028,0.435,-0.235
1:16:50.032,0.435,-0.235
1:16:50.036,0.445,-0.22
1:16:50.040,0.44,-0.26
1:16:50.044,0.44,-0.24
1:16:50.048,0.41,-0.24
1:16:50.052,0.415,-0.275
1:16:50.056,0.415,-0.265
1:16:50.060,0.43,-0.265
1:16:50.064,0.425,-0.28
1:16:50.068,0.405,-0.285
1:16:50.072,0.395,-0.26
1:16:50.076,0.425,-0.27
1:16:50.080,0.43,-0.28
1:16:50.084,0.41,-0.26
1:16:50.088,0.44,-0.275
1:16:50.092,0.4,-0.255
1:16:50.096,0.4,-0.255
1:16:50.100,0.395,-0.25
1:16:50.104,0.405,-0.245
1:16:50.108,0.405,-0.245
1:16:50.112,0.395,-0.225
1:16:50.116,0.375,-0.225
1:16:50.120,0.395,-0.21
1:16:50.124,0.395,-0.2
1:16:50.128,0.375,-0.2
1:16:50.132,0.39,-0.185
1:16:50.136,0.36,-0.17
1:16:50.140,0.37,-0.155
1:16:50.144,0.36,-0.14
1:16:50.148,0.365,-0.11
1:16:50.152,0.355,-0.11
1:16:50.156,0.335,-0.09
1:16:50.160,0.315,-0.09
1:16:50.164,0.335,-0.085
1:16:50.168,0.335,-0.08
1:16:50.172,0.315,-0.085
1:16:50.176,0.315,-0.09
1:16:50.180,0.33,-0.085
1:16:50.184,0.315,-0.07
1:16:50.188,0.31,-0.07
1:16:50.192,0.315,-0.075
1:16:50.196,0.32,-0.06
1:16:50.200,0.325,-0.08
1:16:50.204,0.335,-0.075
1:16:50.208,0.305,-0.07
1:16:50.212,0.315,-0.1
1:16:50.216,0.315,-0.08
1:16:50.220,0.305,-0.08
1:16:50.224,0.315,-0.07
1:16:50.228,0.32,-0.085
1:16:50.232,0.31,-0.11
1:16:50.236,0.315,-0.11
1:16:50.240,0.325,-0.105
1:16:50.244,0.325,-0.11
1:16:50.248,0.33,-0.105
1:16:50.252,0.315,-0.11
1:16:50.256,0.295,-0.115
1:16:50.260,0.305,-0.105
1:16:50.264,0.305,-0.115
1:16:50.268,0.32,-0.1
1:16:50.272,0.33,-0.11
1:16:50.276,0.33,-0.11
1:16:50.280,0.325,-0.125
1:16:50.284,0.31,-0.115
1:16:50.288,0.32,-0.12
1:16:50.292,0.315,-0.135
1:16:50.296,0.325,-0.14
1:16:50.300,0.33,-0.12
1:16:50.304,0.335,-0.125
1:16:50.308,0.33,-0.13
1:16:50.312,0.305,-0.12
1:16:50.316,0.33,-0.12
1:16:50.320,0.325,-0.13
1:16:50.324,0.32,-0.125
1:16:50.328,0.325,-0.115
1:16:50.332,0.34,-0.125
1:16:50.336,0.33,-0.13
1:16:50.340,0.335,-0.13
1:16:50.344,0.325,-0.13
1:16:50.348,0.31,-0.13
1:16:50.352,0.32,-0.13
1:16:50.356,0.315,-0.135
1:16:50.360,0.315,-0.12
1:16:50.364,0.305,-0.135
1:16:50.368,0.31,-0.15
1:16:50.372,0.305,-0.135
1:16:50.376,0.31,-0.14
1:16:50.380,0.315,-0.155
1:16:50.384,0.3,-0.15
1:16:50.388,0.31,-0.135
1:16:50.392,0.295,-0.145
1:16:50.396,0.29,-0.14
1:16:50.400,0.295,-0.135
1:16:50.404,0.315,-0.135
1:16:50.408,0.3,-0.14
1:16:50.412,0.295,-0.15
1:16:50.416,0.295,-0.145
1:16:50.420,0.285,-0.16
1:16:50.424,0.305,-0.145
1:16:50.428,0.295,-0.155
1:16:50.432,0.295,-0.14
1:16:50.436,0.29,-0.135
1:16:50.440,0.33,-0.14
1:16:50.444,0.31,-0.145
1:16:50.448,0.315,-0.145
1:16:50.452,0.315,-0.14
1:16:50.456,0.315,-0.15
1:16:50.460,0.31,-0.175
1:16:50.464,0.3,-0.16
1:16:50.468,0.32,-0.17
1:16:50.472,0.31,-0.14
1:16:50.476,0.295,-0.145
1:16:50.480,0.29,-0.14
1:16:50.484,0.305,-0.13
1:16:50.488,0.295,-0.135
1:16:50.492,0.31,-0.155
1:16:50.496,0.32,-0.15
1:16:50.500,0.3,-0.155
1:16:50.504,0.29,-0.165
1:16:50.508,0.295,-0.155
1:16:50.512,0.305,-0.15
1:16:50.516,0.29,-0.155
1:16:50.520,0.29,-0.175
1:16:50.524,0.295,-0.16
1:16:50.528,0.285,-0.175
1:16:50.532,0.3,-0.17
1:16:50.536,0.285,-0.18
1:16:50.540,0.29,-0.155
1:16:50.544,0.29,-0.17
1:16:50.548,0.305,-0.165
1:16:50.552,0.285,-0.155
1:16:50.556,0.305,-0.135
1:16:50.560,0.31,-0.15
1:16:50.564,0.295,-0.14
1:16:50.568,0.285,-0.14
1:16:50.572,0.31,-0.095
1:16:50.576,0.305,-0.075
1:16:50.580,0.29,-0.04
1:16:50.584,0.3,-0.01
1:16:50.588,0.315,-0.005
1:16:50.592,0.31,-0.005
1:16:50.596,0.335,0.005
1:16:50.600,0.35,-0.005
1:16:50.604,0.36,-0.005
1:16:50.608,0.38,0.01
1:16:50.612,0.415,-0.005
1:16:50.616,0.41,-0.005
1:16:50.620,0.41,-0.015
1:16:50.624,0.38,0.01
1:16:50.628,0.37,0.015
1:16:50.632,0.395,0.01
1:16:50.636,0.39,-0.01
1:16:50.640,0.33,-0.025
1:16:50.644,0.315,-0.07
1:16:50.648,0.335,-0.12
1:16:50.652,0.31,-0.12
1:16:50.656,0.29,-0.13
1:16:50.660,0.28,-0.115
1:16:50.664,0.25,-0.1
1:16:50.668,0.24,-0.105
1:16:50.672,0.225,-0.12
1:16:50.676,0.24,-0.135
1:16:50.680,0.24,-0.145
1:16:50.684,0.25,-0.145
1:16:50.688,0.27,-0.16
1:16:50.692,0.27,-0.135
1:16:50.696,0.265,-0.175
1:16:50.700,0.265,-0.19
1:16:50.704,0.265,-0.21
1:16:50.708,0.27,-0.205
1:16:50.712,0.295,-0.2
1:16:50.716,0.29,-0.2
1:16:50.720,0.3,-0.2
1:16:50.724,0.315,-0.21
1:16:50.728,0.305,-0.21
1:16:50.732,0.305,-0.205
1:16:50.736,0.325,-0.21
1:16:50.740,0.31,-0.2
1:16:50.744,0.305,-0.205
1:16:50.748,0.32,-0.21
1:16:50.752,0.33,-0.185
1:16:50.756,0.305,-0.18
1:16:50.760,0.31,-0.175
1:16:50.764,0.31,-0.195
1:16:50.768,0.315,-0.175
1:16:50.772,0.32,-0.16
1:16:50.776,0.32,-0.13
1:16:50.780,0.32,-0.115
1:16:50.784,0.315,-0.12
1:16:50.788,0.31,-0.06
1:16:50.792,0.34,0.12
1:16:50.796,0.345,0.345
1:16:50.800,0.37,0.525
1:16:50.804,0.385,0.665
1:16:50.808,0.37,0.735
1:16:50.812,0.315,0.79
1:16:50.816,0.265,0.8
1:16:50.820,0.265,0.71
1:16:50.824,0.185,0.5
1:16:50.828,0.05,0.275
1:16:50.832,-0.22,0.235
1:16:50.836,-0.505,0.305
1:16:50.840,-0.76,0.21
1:16:50.844,-0.93,-0.07
1:16:50.848,-0.945,-0.365
1:16:50.852,-0.845,-0.555
1:16:50.856,-0.545,-0.62
1:16:50.860,-0.135,-0.64
1:16:50.864,0.145,-0.53
1:16:50.868,0.23,-0.45
1:16:50.872,0.215,-0.375
1:16:50.876,0.195,-0.355
1:16:50.880,0.19,-0.355
1:16:50.884,0.185,-0.355
1:16:50.888,0.23,-0.375
1:16:50.892,0.26,-0.36
1:16:50.896,0.325,-0.365
1:16:50.900,0.38,-0.35
1:16:50.904,0.395,-0.36
1:16:50.908,0.415,-0.345
1:16:50.912,0.405,-0.355
1:16:50.916,0.4,-0.355
1:16:50.920,0.405,-0.365
1:16:50.924,0.415,-0.36
1:16:50.928,0.415,-0.375
1:16:50.932,0.405,-0.37
1:16:50.936,0.42,-0.365
1:16:50.940,0.405,-0.36
1:16:50.944,0.415,-0.35
1:16:50.948,0.435,-0.35
1:16:50.952,0.415,-0.35
1:16:50.956,0.42,-0.36
1:16:50.960,0.425,-0.345
1:16:50.964,0.415,-0.345
1:16:50.968,0.425,-0.365
1:16:50.972,0.4,-0.375
1:16:50.976,0.41,-0.35
1:16:50.980,0.43,-0.365
1:16:50.984,0.41,-0.355
1:16:50.988,0.4,-0.375
1:16:50.992,0.41,-0.38
1:16:50.996,0.415,-0.395
1:16:51.000,0.405,-0.375
1:16:51.004,0.395,-0.375
1:16:51.008,0.4,-0.375
1:16:51.012,0.38,-0.37
1:16:51.016,0.385,-0.365
1:16:51.020,0.4,-0.365
1:16:51.024,0.405,-0.365
1:16:51.028,0.395,-0.385
1:16:51.032,0.395,-0.38
1:16:51.036,0.4,-0.385
1:16:51.040,0.405,-0.385
1:16:51.044,0.38,-0.375
1:16:51.048,0.375,-0.385
1:16:51.052,0.385,-0.39
1:16:51.056,0.385,-0.375
1:16:51.060,0.385,-0.4
1:16:51.064,0.36,-0.39
1:16:51.068,0.365,-0.375
1:16:51.072,0.36,-0.35
1:16:51.076,0.37,-0.355
1:16:51.080,0.365,-0.34
1:16:51.084,0.355,-0.355
1:16:51.088,0.37,-0.32
1:16:51.092,0.345,-0.31
1:16:51.096,0.34,-0.3
1:16:51.100,0.34,-0.275
1:16:51.104,0.315,-0.275
1:16:51.108,0.315,-0.25
1:16:51.112,0.3,-0.26
1:16:51.116,0.305,-0.23
1:16:51.120,0.32,-0.245
1:16:51.124,0.305,-0.225
1:16:51.128,0.305,-0.2
1:16:51.132,0.28,-0.19
1:16:51.136,0.275,-0.185
1:16:51.140,0.28,-0.185
1:16:51.144,0.28,-0.185
1:16:51.148,0.28,-0.185
1:16:51.152,0.27,-0.17
1:16:51.156,0.29,-0.17
1:16:51.160,0.29,-0.17
1:16:51.164,0.29,-0.195
1:16:51.168,0.285,-0.18
1:16:51.172,0.3,-0.2
1:16:51.176,0.29,-0.195
1:16:51.180,0.305,-0.19
1:16:51.184,0.3,-0.19
1:16:51.188,0.285,-0.21
1:16:51.192,0.31,-0.195
1:16:51.196,0.32,-0.205
1:16:51.200,0.305,-0.2
1:16:51.204,0.3,-0.21
1:16:51.208,0.33,-0.215
1:16:51.212,0.31,-0.225
1:16:51.216,0.305,-0.205
1:16:51.220,0.3,-0.215
1:16:51.224,0.3,-0.22
1:16:51.228,0.31,-0.225
1:16:51.232,0.31,-0.23
1:16:51.236,0.3,-0.23
1:16:51.240,0.305,-0.215
1:16:51.244,0.32,-0.24
1:16:51.248,0.295,-0.24
1:16:51.252,0.305,-0.22
1:16:51.256,0.305,-0.245
1:16:51.260,0.305,-0.24
1:16:51.264,0.3,-0.24
1:16:51.268,0.3,-0.23
1:16:51.272,0.31,-0.25
1:16:51.276,0.29,-0.245
1:16:51.280,0.295,-0.25
1:16:51.284,0.305,-0.255
1:16:51.288,0.305,-0.25
1:16:51.292,0.29,-0.255
1:16:51.296,0.285,-0.255
1:16:51.300,0.295,-0.24
1:16:51.304,0.29,-0.255
1:16:51.308,0.305,-0.255
1:16:51.312,0.295,-0.265
1:16:51.316,0.295,-0.27
1:16:51.320,0.305,-0.27
1:16:51.324,0.295,-0.255
1:16:51.328,0.29,-0.26
1:16:51.332,0.275,-0.27
1:16:51.336,0.28,-0.285
1:16:51.340,0.295,-0.265
1:16:51.344,0.27,-0.25
1:16:51.348,0.265,-0.27
1:16:51.352,0.27,-0.255
1:16:51.356,0.285,-0.26
1:16:51.360,0.27,-0.265
1:16:51.364,0.27,-0.27
1:16:51.368,0.255,-0.245
1:16:51.372,0.275,-0.25
1:16:51.376,0.27,-0.26
1:16:51.380,0.275,-0.26
1:16:51.384,0.28,-0.26
1:16:51.388,0.275,-0.265
1:16:51.392,0.28,-0.265
1:16:51.396,0.265,-0.27
1:16:51.400,0.28,-0.265
1:16:51.404,0.265,-0.28
1:16:51.408,0.29,-0.275
1:16:51.412,0.275,-0.275
1:16:51.416,0.275,-0.275
1:16:51.420,0.28,-0.25
1:16:51.424,0.27,-0.245
1:16:51.428,0.29,-0.245
1:16:51.432,0.27,-0.26
1:16:51.436,0.28,-0.24
1:16:51.440,0.275,-0.26
1:16:51.444,0.275,-0.27
1:16:51.448,0.29,-0.26
1:16:51.452,0.275,-0.255
1:16:51.456,0.275,-0.285
1:16:51.460,0.28,-0.25
1:16:51.464,0.295,-0.27
1:16:51.468,0.275,-0.265
1:16:51.472,0.295,-0.25
1:16:51.476,0.3,-0.265
1:16:51.480,0.28,-0.255
1:16:51.484,0.29,-0.255
1:16:51.488,0.275,-0.265
1:16:51.492,0.3,-0.25
1:16:51.496,0.285,-0.265
1:16:51.500,0.29,-0.26
1:16:51.504,0.29,-0.28
1:16:51.508,0.295,-0.255
1:16:51.512,0.305,-0.235
1:16:51.516,0.285,-0.2
1:16:51.520,0.295,-0.185
1:16:51.524,0.285,-0.145
1:16:51.528,0.295,-0.12
1:16:51.532,0.275,-0.1
1:16:51.536,0.285,-0.09
1:16:51.540,0.31,-0.09
1:16:51.544,0.34,-0.06
1:16:51.548,0.34,-0.09
1:16:51.552,0.365,-0.08
1:16:51.556,0.4,-0.085
1:16:51.560,0.41,-0.085
1:16:51.564,0.395,-0.085
1:16:51.568,0.4,-0.08
1:16:51.572,0.395,-0.075
1:16:51.576,0.38,-0.08
1:16:51.580,0.36,-0.125
1:16:51.584,0.335,-0.165
1:16:51.588,0.32,-0.205
1:16:51.592,0.285,-0.215
1:16:51.596,0.255,-0.22
1:16:51.600,0.23,-0.215
1:16:51.604,0.255,-0.215
1:16:51.608,0.24,-0.2
1:16:51.612,0.225,-0.185
1:16:51.616,0.215,-0.19
1:16:51.620,0.22,-0.195
1:16:51.624,0.205,-0.235
1:16:51.628,0.235,-0.235
1:16:51.632,0.23,-0.23
1:16:51.636,0.27,-0.255
1:16:51.640,0.26,-0.27
1:16:51.644,0.26,-0.295
1:16:51.648,0.24,-0.285
1:16:51.652,0.275,-0.315
1:16:51.656,0.28,-0.305
1:16:51.660,0.32,-0.29
1:16:51.664,0.32,-0.3
1:16:51.668,0.305,-0.29
1:16:51.672,0.29,-0.3
1:16:51.676,0.29,-0.28
1:16:51.680,0.31,-0.28
1:16:51.684,0.295,-0.295
1:16:51.688,0.29,-0.29
1:16:51.692,0.29,-0.28
1:16:51.696,0.305,-0.295
1:16:51.700,0.275,-0.29
1:16:51.704,0.29,-0.275
1:16:51.708,0.295,-0.275
1:16:51.712,0.285,-0.26
1:16:51.716,0.29,-0.225
1:16:51.720,0.28,-0.21
1:16:51.724,0.28,-0.185
1:16:51.728,0.275,-0.19
1:16:51.732,0.29,-0.105
1:16:51.736,0.31,0.08
1:16:51.740,0.33,0.335
1:16:51.744,0.345,0.53
1:16:51.748,0.36,0.675
1:16:51.752,0.345,0.765
1:16:51.756,0.31,0.8
1:16:51.760,0.25,0.78
1:16:51.764,0.215,0.63
1:16:51.768,0.17,0.375
1:16:51.772,-0.015,0.1
1:16:51.776,-0.28,0.055
1:16:51.780,-0.59,0.175
1:16:51.784,-0.885,0.18
1:16:51.788,-1.05,-0.03
1:16:51.792,-1.105,-0.36
1:16:51.796,-1.055,-0.61
1:16:51.800,-0.79,-0.71
1:16:51.804,-0.35,-0.76
1:16:51.808,0.015,-0.725
1:16:51.812,0.195,-0.605
1:16:51.816,0.195,-0.495
1:16:51.820,0.19,-0.425
1:16:51.824,0.155,-0.43
1:16:51.828,0.17,-0.43
1:16:51.832,0.185,-0.44
1:16:51.836,0.24,-0.42
1:16:51.840,0.29,-0.435
1:16:51.844,0.36,-0.435
1:16:51.848,0.4,-0.41
1:16:51.852,0.41,-0.435
1:16:51.856,0.41,-0.43
1:16:51.860,0.405,-0.425
1:16:51.864,0.44,-0.43
1:16:51.868,0.435,-0.42
1:16:51.872,0.445,-0.425
1:16:51.876,0.445,-0.435
1:16:51.880,0.46,-0.43
1:16:51.884,0.455,-0.415
1:16:51.888,0.435,-0.415
1:16:51.892,0.425,-0.405
1:16:51.896,0.42,-0.41
1:16:51.900,0.415,-0.415
1:16:51.904,0.44,-0.415
1:16:51.908,0.44,-0.415
1:16:51.912,0.45,-0.43
1:16:51.916,0.455,-0.415
1:16:51.920,0.44,-0.425
1:16:51.924,0.435,-0.415
1:16:51.928,0.445,-0.44
1:16:51.932,0.435,-0.425
1:16:51.936,0.44,-0.435
1:16:51.940,0.435,-0.435
1:16:51.944,0.44,-0.425
1:16:51.948,0.435,-0.43
1:16:51.952,0.435,-0.45
1:16:51.956,0.44,-0.47
1:16:51.960,0.415,-0.46
1:16:51.964,0.42,-0.46
1:16:51.968,0.42,-0.465
1:16:51.972,0.42,-0.46
1:16:51.976,0.445,-0.46
1:16:51.980,0.44,-0.465
1:16:51.984,0.42,-0.43
1:16:51.988,0.41,-0.46
1:16:51.992,0.41,-0.455
1:16:51.996,0.41,-0.45
1:16:52.000,0.425,-0.445
1:16:52.004,0.4,-0.445
1:16:52.008,0.405,-0.46
1:16:52.012,0.39,-0.445
1:16:52.016,0.395,-0.44
1:16:52.020,0.41,-0.425
1:16:52.024,0.395,-0.425
1:16:52.028,0.385,-0.42
1:16:52.032,0.385,-0.4
1:16:52.036,0.39,-0.38
1:16:52.040,0.375,-0.38
1:16:52.044,0.36,-0.37
1:16:52.048,0.39,-0.33
1:16:52.052,0.345,-0.35
1:16:52.056,0.35,-0.33
1:16:52.060,0.36,-0.31
1:16:52.064,0.345,-0.315
1:16:52.068,0.34,-0.305
1:16:52.072,0.34,-0.29
1:16:52.076,0.34,-0.3
1:16:52.080,0.33,-0.27
1:16:52.084,0.335,-0.265
1:16:52.088,0.33,-0.275
1:16:52.092,0.315,-0.255
1:16:52.096,0.31,-0.26
1:16:52.100,0.335,-0.265
1:16:52.104,0.31,-0.26
1:16:52.108,0.315,-0.265
1:16:52.112,0.31,-0.27
1:16:52.116,0.33,-0.265
1:16:52.120,0.31,-0.27
1:16:52.124,0.305,-0.275
1:16:52.128,0.325,-0.275
1:16:52.132,0.34,-0.275
1:16:52.136,0.325,-0.305
1:16:52.140,0.34,-0.3
1:16:52.144,0.325,-0.29
1:16:52.148,0.345,-0.29
1:16:52.152,0.34,-0.315
1:16:52.156,0.32,-0.305
1:16:52.160,0.345,-0.305
1:16:52.164,0.34,-0.305
1:16:52.168,0.325,-0.3
1:16:52.172,0.34,-0.32
1:16:52.176,0.335,-0.315
1:16:52.180,0.36,-0.315
1:16:52.184,0.335,-0.32
1:16:52.188,0.325,-0.315
1:16:52.192,0.345,-0.32
1:16:52.196,0.35,-0.33
1:16:52.200,0.355,-0.33
1:16:52.204,0.365,-0.32
1:16:52.208,0.355,-0.33
1:16:52.212,0.35,-0.32
1:16:52.216,0.34,-0.32
1:16:52.220,0.345,-0.31
1:16:52.224,0.365,-0.33
1:16:52.228,0.355,-0.315
1:16:52.232,0.35,-0.33
1:16:52.236,0.34,-0.315
1:16:52.240,0.355,-0.32
1:16:52.244,0.345,-0.33
1:16:52.248,0.345,-0.315
1:16:52.252,0.33,-0.31
1:16:52.256,0.335,-0.335
1:16:52.260,0.34,-0.32
1:16:52.264,0.35,-0.32
1:16:52.268,0.36,-0.3
1:16:52.272,0.325,-0.32
1:16:52.276,0.315,-0.34
1:16:52.280,0.31,-0.33
1:16:52.284,0.325,-0.315
1:16:52.288,0.325,-0.315
1:16:52.292,0.335,-0.32
1:16:52.296,0.33,-0.32
1:16:52.300,0.315,-0.315
1:16:52.304,0.305,-0.32
1:16:52.308,0.315,-0.325
1:16:52.312,0.315,-0.34
1:16:52.316,0.3,-0.335
1:16:52.320,0.325,-0.335
1:16:52.324,0.29,-0.33
1:16:52.328,0.29,-0.33
1:16:52.332,0.305,-0.315
1:16:52.336,0.295,-0.345
1:16:52.340,0.315,-0.345
1:16:52.344,0.3,-0.34
1:16:52.348,0.315,-0.35
1:16:52.352,0.29,-0.335
1:16:52.356,0.295,-0.33
1:16:52.360,0.305,-0.33
1:16:52.364,0.29,-0.325
1:16:52.368,0.31,-0.335
1:16:52.372,0.295,-0.345
1:16:52.376,0.28,-0.335
1:16:52.380,0.31,-0.335
1:16:52.384,0.29,-0.325
1:16:52.388,0.31,-0.325
1:16:52.392,0.295,-0.34
1:16:52.396,0.28,-0.335
1:16:52.400,0.29,-0.32
1:16:52.404,0.31,-0.3
1:16:52.408,0.295,-0.31
1:16:52.412,0.285,-0.325
1:16:52.416,0.285,-0.32
1:16:52.420,0.285,-0.315
1:16:52.424,0.3,-0.32
1:16:52.428,0.285,-0.32
1:16:52.432,0.28,-0.305
1:16:52.436,0.28,-0.31
1:16:52.440,0.29,-0.31
1:16:52.444,0.28,-0.31
1:16:52.448,0.275,-0.32
1:16:52.452,0.295,-0.32
1:16:52.456,0.285,-0.31
1:16:52.460,0.285,-0.31
1:16:52.464,0.29,-0.31
1:16:52.468,0.3,-0.31
1:16:52.472,0.31,-0.25
1:16:52.476,0.29,-0.205
1:16:52.480,0.305,-0.175
1:16:52.484,0.27,-0.16
1:16:52.488,0.315,-0.14
1:16:52.492,0.29,-0.14
1:16:52.496,0.33,-0.135
1:16:52.500,0.355,-0.13
1:16:52.504,0.38,-0.125
1:16:52.508,0.385,-0.14
1:16:52.512,0.395,-0.145
1:16:52.516,0.4,-0.145
1:16:52.520,0.425,-0.145
1:16:52.524,0.375,-0.14
1:16:52.528,0.375,-0.125
1:16:52.532,0.38,-0.13
1:16:52.536,0.365,-0.16
1:16:52.540,0.335,-0.21
1:16:52.544,0.315,-0.25
1:16:52.548,0.3,-0.27
1:16:52.552,0.26,-0.28
1:16:52.556,0.25,-0.255
1:16:52.560,0.26,-0.275
1:16:52.564,0.225,-0.265
1:16:52.568,0.235,-0.26
1:16:52.572,0.235,-0.255
1:16:52.576,0.22,-0.26
1:16:52.580,0.22,-0.26
1:16:52.584,0.255,-0.305
1:16:52.588,0.255,-0.3
1:16:52.592,0.25,-0.305
1:16:52.596,0.255,-0.35
1:16:52.600,0.235,-0.355
1:16:52.604,0.235,-0.365
1:16:52.608,0.25,-0.36
1:16:52.612,0.285,-0.34
1:16:52.616,0.33,-0.37
1:16:52.620,0.335,-0.36
1:16:52.624,0.32,-0.335
1:16:52.628,0.305,-0.35
1:16:52.632,0.29,-0.335
1:16:52.636,0.305,-0.355
1:16:52.640,0.3,-0.34
1:16:52.644,0.28,-0.345
1:16:52.648,0.3,-0.36
1:16:52.652,0.285,-0.345
1:16:52.656,0.305,-0.345
1:16:52.660,0.29,-0.35
1:16:52.664,0.295,-0.32
1:16:52.668,0.285,-0.315
1:16:52.672,0.29,-0.265
1:16:52.676,0.315,-0.22
1:16:52.680,0.29,-0.245
1:16:52.684,0.295,-0.19
1:16:52.688,0.285,-0.01
1:16:52.692,0.305,0.21
1:16:52.696,0.32,0.42
1:16:52.700,0.335,0.52
1:16:52.704,0.345,0.595
1:16:52.708,0.29,0.625
1:16:52.712,0.255,0.59
1:16:52.716,0.215,0.445
1:16:52.720,0.14,0.2
1:16:52.724,-0.035,-0.02
1:16:52.728,-0.32,-0.01
1:16:52.732,-0.65,0.135
1:16:52.736,-0.955,0.09
1:16:52.740,-1.14,-0.185
1:16:52.744,-1.175,-0.495
1:16:52.748,-1.07,-0.695
1:16:52.752,-0.725,-0.775
1:16:52.756,-0.28,-0.79
1:16:52.760,0.06,-0.695
1:16:52.764,0.18,-0.6
1:16:52.768,0.175,-0.52
1:16:52.772,0.155,-0.495
1:16:52.776,0.14,-0.49
1:16:52.780,0.15,-0.475
1:16:52.784,0.19,-0.475
1:16:52.788,0.225,-0.465
1:16:52.792,0.31,-0.46
1:16:52.796,0.365,-0.475
1:16:52.800,0.39,-0.485
1:16:52.804,0.4,-0.48
1:16:52.808,0.38,-0.465
1:16:52.812,0.41,-0.47
1:16:52.816,0.395,-0.47
1:16:52.820,0.395,-0.47
1:16:52.824,0.395,-0.465
1:16:52.828,0.425,-0.455
1:16:52.832,0.405,-0.455
1:16:52.836,0.42,-0.435
1:16:52.840,0.43,-0.445
1:16:52.844,0.425,-0.42
1:16:52.848,0.41,-0.44
1:16:52.852,0.425,-0.435
1:16:52.856,0.41,-0.435
1:16:52.860,0.435,-0.45
1:16:52.864,0.395,-0.445
1:16:52.868,0.41,-0.43
1:16:52.872,0.41,-0.435
1:16:52.876,0.4,-0.45
1:16:52.880,0.405,-0.45
1:16:52.884,0.415,-0.445
1:16:52.888,0.405,-0.465
1:16:52.892,0.41,-0.47
1:16:52.896,0.425,-0.47
1:16:52.900,0.425,-0.455
1:16:52.904,0.41,-0.455
1:16:52.908,0.4,-0.465
1:16:52.912,0.4,-0.465
1:16:52.916,0.37,-0.49
1:16:52.920,0.4,-0.46
1:16:52.924,0.395,-0.465
1:16:52.928,0.385,-0.455
1:16:52.932,0.4,-0.475
1:16:52.936,0.39,-0.465
1:16:52.940,0.385,-0.465
1:16:52.944,0.38,-0.475
1:16:52.948,0.375,-0.47
1:16:52.952,0.36,-0.45
1:16:52.956,0.37,-0.46
1:16:52.960,0.365,-0.445
1:16:52.964,0.335,-0.43
1:16:52.968,0.34,-0.425
1:16:52.972,0.33,-0.435
1:16:52.976,0.335,-0.44
1:16:52.980,0.335,-0.425
1:16:52.984,0.34,-0.405
1:16:52.988,0.33,-0.375
1:16:52.992,0.32,-0.37
1:16:52.996,0.315,-0.355
1:16:53.000,0.31,-0.35
1:16:53.004,0.29,-0.335
1:16:53.008,0.285,-0.31
1:16:53.012,0.28,-0.305
1:16:53.016,0.28,-0.31
1:16:53.020,0.285,-0.3
1:16:53.024,0.275,-0.28
1:16:53.028,0.26,-0.28
1:16:53.032,0.28,-0.28
1:16:53.036,0.28,-0.275
1:16:53.040,0.265,-0.265
1:16:53.044,0.26,-0.265
1:16:53.048,0.26,-0.265
1:16:53.052,0.255,-0.28
1:16:53.056,0.275,-0.275
1:16:53.060,0.26,-0.29
1:16:53.064,0.275,-0.285
1:16:53.068,0.26,-0.28
1:16:53.072,0.27,-0.285
1:16:53.076,0.28,-0.29
1:16:53.080,0.275,-0.29
1:16:53.084,0.27,-0.295
1:16:53.088,0.29,-0.295
1:16:53.092,0.28,-0.3
1:16:53.096,0.275,-0.305
1:16:53.100,0.285,-0.32
1:16:53.104,0.285,-0.32
1:16:53.108,0.28,-0.315
1:16:53.112,0.29,-0.305
1:16:53.116,0.285,-0.33
1:16:53.120,0.28,-0.325
1:16:53.124,0.29,-0.31
1:16:53.128,0.275,-0.305
1:16:53.132,0.28,-0.305
1:16:53.136,0.29,-0.31
1:16:53.140,0.27,-0.33
1:16:53.144,0.295,-0.34
1:16:53.148,0.275,-0.315
1:16:53.152,0.295,-0.325
1:16:53.156,0.3,-0.315
1:16:53.160,0.285,-0.31
1:16:53.164,0.285,-0.32
1:16:53.168,0.29,-0.325
1:16:53.172,0.3,-0.32
1:16:53.176,0.29,-0.33
1:16:53.180,0.305,-0.315
1:16:53.184,0.295,-0.315
1:16:53.188,0.295,-0.32
1:16:53.192,0.28,-0.335
1:16:53.196,0.305,-0.325
1:16:53.200,0.29,-0.32
1:16:53.204,0.295,-0.32
1:16:53.208,0.3,-0.325
1:16:53.212,0.285,-0.325
1:16:53.216,0.28,-0.33
1:16:53.220,0.285,-0.335
1:16:53.224,0.28,-0.33
1:16:53.228,0.28,-0.325
1:16:53.232,0.275,-0.315
1:16:53.236,0.28,-0.34
1:16:53.240,0.275,-0.325
1:16:53.244,0.28,-0.32
1:16:53.248,0.27,-0.32
1:16:53.252,0.26,-0.335
1:16:53.256,0.275,-0.33
1:16:53.260,0.265,-0.335
1:16:53.264,0.255,-0.32
1:16:53.268,0.255,-0.32
1:16:53.272,0.25,-0.32
1:16:53.276,0.255,-0.32
1:16:53.280,0.25,-0.34
1:16:53.284,0.26,-0.335
1:16:53.288,0.25,-0.335
1:16:53.292,0.27,-0.335
1:16:53.296,0.26,-0.33
1:16:53.300,0.24,-0.335
1:16:53.304,0.245,-0.33
1:16:53.308,0.235,-0.33
1:16:53.312,0.255,-0.35
1:16:53.316,0.23,-0.32
1:16:53.320,0.22,-0.33
1:16:53.324,0.215,-0.32
1:16:53.328,0.245,-0.325
1:16:53.332,0.235,-0.33
1:16:53.336,0.23,-0.335
1:16:53.340,0.235,-0.335
1:16:53.344,0.235,-0.315
1:16:53.348,0.225,-0.33
1:16:53.352,0.22,-0.335
1:16:53.356,0.215,-0.33
1:16:53.360,0.205,-0.32
1:16:53.364,0.24,-0.32
1:16:53.368,0.23,-0.325
1:16:53.372,0.23,-0.345
1:16:53.376,0.225,-0.34
1:16:53.380,0.24,-0.345
1:16:53.384,0.24,-0.335
1:16:53.388,0.21,-0.335
1:16:53.392,0.205,-0.355
1:16:53.396,0.21,-0.335
1:16:53.400,0.215,-0.33
1:16:53.404,0.23,-0.325
1:16:53.408,0.225,-0.325
1:16:53.412,0.215,-0.305
1:16:53.416,0.22,-0.285
1:16:53.420,0.215,-0.235
1:16:53.424,0.19,-0.205
1:16:53.428,0.215,-0.18
1:16:53.432,0.235,-0.165
1:16:53.436,0.235,-0.15
1:16:53.440,0.26,-0.16
1:16:53.444,0.275,-0.155
1:16:53.448,0.29,-0.155
1:16:53.452,0.335,-0.16
1:16:53.456,0.31,-0.155
1:16:53.460,0.31,-0.155
1:16:53.464,0.325,-0.155
1:16:53.468,0.31,-0.115
1:16:53.472,0.315,-0.13
1:16:53.476,0.31,-0.15
1:16:53.480,0.28,-0.165
1:16:53.484,0.25,-0.205
1:16:53.488,0.245,-0.25
1:16:53.492,0.255,-0.28
1:16:53.496,0.21,-0.275
1:16:53.500,0.205,-0.29
1:16:53.504,0.21,-0.27
1:16:53.508,0.165,-0.25
1:16:53.512,0.165,-0.27
1:16:53.516,0.165,-0.285
1:16:53.520,0.15,-0.275
1:16:53.524,0.13,-0.285
1:16:53.528,0.16,-0.29
1:16:53.532,0.18,-0.305
1:16:53.536,0.175,-0.32
1:16:53.540,0.18,-0.325
1:16:53.544,0.175,-0.355
1:16:53.548,0.185,-0.375
1:16:53.552,0.175,-0.36
1:16:53.556,0.22,-0.35
1:16:53.560,0.23,-0.34
1:16:53.564,0.235,-0.34
1:16:53.568,0.235,-0.345
1:16:53.572,0.25,-0.36
1:16:53.576,0.235,-0.355
1:16:53.580,0.23,-0.36
1:16:53.584,0.235,-0.35
1:16:53.588,0.22,-0.35
1:16:53.592,0.22,-0.355
1:16:53.596,0.225,-0.34
1:16:53.600,0.225,-0.34
1:16:53.604,0.21,-0.33
1:16:53.608,0.215,-0.335
1:16:53.612,0.235,-0.31
1:16:53.616,0.215,-0.285
1:16:53.620,0.225,-0.245
1:16:53.624,0.235,-0.24
1:16:53.628,0.24,-0.24
1:16:53.632,0.225,-0.105
1:16:53.636,0.24,0.08
1:16:53.640,0.25,0.29
1:16:53.644,0.28,0.46
1:16:53.648,0.3,0.595
1:16:53.652,0.27,0.665
1:16:53.656,0.195,0.69
1:16:53.660,0.155,0.665
1:16:53.664,0.145,0.495
1:16:53.668,0.05,0.265
1:16:53.672,-0.16,0.07
1:16:53.676,-0.44,0.085
1:16:53.680,-0.755,0.165
1:16:53.684,-0.99,0.055
1:16:53.688,-1.085,-0.23
1:16:53.692,-1.09,-0.495
1:16:53.696,-0.94,-0.675
1:16:53.700,-0.595,-0.75
1:16:53.704,-0.185,-0.745
1:16:53.708,0.06,-0.66
1:16:53.712,0.14,-0.56
1:16:53.716,0.11,-0.495
1:16:53.720,0.095,-0.445
1:16:53.724,0.075,-0.46
1:16:53.728,0.105,-0.445
1:16:53.732,0.11,-0.455
1:16:53.736,0.16,-0.44
1:16:53.740,0.23,-0.45
1:16:53.744,0.28,-0.445
1:16:53.748,0.29,-0.45
1:16:53.752,0.315,-0.44
1:16:53.756,0.325,-0.435
1:16:53.760,0.315,-0.455
1:16:53.764,0.315,-0.445
1:16:53.768,0.33,-0.44
1:16:53.772,0.35,-0.44
1:16:53.776,0.34,-0.45
1:16:53.780,0.34,-0.435
1:16:53.784,0.335,-0.42
1:16:53.788,0.355,-0.43
1:16:53.792,0.355,-0.42
1:16:53.796,0.355,-0.42
1:16:53.800,0.365,-0.415
1:16:53.804,0.365,-0.43
1:16:53.808,0.355,-0.41
1:16:53.812,0.345,-0.415
1:16:53.816,0.36,-0.405
1:16:53.820,0.365,-0.415
1:16:53.824,0.36,-0.43
1:16:53.828,0.335,-0.41
1:16:53.832,0.355,-0.415
1:16:53.836,0.35,-0.425
1:16:53.840,0.36,-0.415
1:16:53.844,0.355,-0.42
1:16:53.848,0.335,-0.415
1:16:53.852,0.355,-0.41
1:16:53.856,0.36,-0.385
1:16:53.860,0.35,-0.41
1:16:53.864,0.345,-0.41
1:16:53.868,0.355,-0.415
1:16:53.872,0.35,-0.4
1:16:53.876,0.335,-0.405
1:16:53.880,0.34,-0.4
1:16:53.884,0.355,-0.41
1:16:53.888,0.365,-0.415
1:16:53.892,0.34,-0.395
1:16:53.896,0.345,-0.41
1:16:53.900,0.35,-0.385
1:16:53.904,0.355,-0.395
1:16:53.908,0.35,-0.385
1:16:53.912,0.345,-0.375
1:16:53.916,0.32,-0.36
1:16:53.920,0.325,-0.355
1:16:53.924,0.34,-0.36
1:16:53.928,0.33,-0.35
1:16:53.932,0.33,-0.33
1:16:53.936,0.315,-0.32
1:16:53.940,0.315,-0.305
1:16:53.944,0.335,-0.295
1:16:53.948,0.285,-0.275
1:16:53.952,0.31,-0.28
1:16:53.956,0.295,-0.26
1:16:53.960,0.29,-0.24
1:16:53.964,0.27,-0.245
1:16:53.968,0.285,-0.215
1:16:53.972,0.265,-0.195
1:16:53.976,0.265,-0.225
1:16:53.980,0.27,-0.19
1:16:53.984,0.28,-0.19
1:16:53.988,0.28,-0.185
1:16:53.992,0.275,-0.185
1:16:53.996,0.26,-0.185
1:16:54.000,0.255,-0.19
1:16:54.004,0.275,-0.18
1:16:54.008,0.25,-0.19
1:16:54.012,0.28,-0.195
1:16:54.016,0.27,-0.18
1:16:54.020,0.27,-0.195
1:16:54.024,0.3,-0.21
1:16:54.028,0.28,-0.195
1:16:54.032,0.285,-0.205
1:16:54.036,0.29,-0.185
1:16:54.040,0.295,-0.19
1:16:54.044,0.295,-0.2
1:16:54.048,0.295,-0.21
1:16:54.052,0.305,-0.22
1:16:54.056,0.29,-0.17
1:16:54.060,0.305,-0.2
1:16:54.064,0.305,-0.22
1:16:54.068,0.31,-0.2
1:16:54.072,0.3,-0.2
1:16:54.076,0.315,-0.22
1:16:54.080,0.31,-0.225
1:16:54.084,0.315,-0.2
1:16:54.088,0.325,-0.23
1:16:54.092,0.31,-0.235
1:16:54.096,0.33,-0.215
1:16:54.100,0.315,-0.19
1:16:54.104,0.315,-0.22
1:16:54.108,0.3,-0.21
1:16:54.112,0.31,-0.215
1:16:54.116,0.325,-0.21
1:16:54.120,0.32,-0.225
1:16:54.124,0.32,-0.22
1:16:54.128,0.325,-0.22
1:16:54.132,0.33,-0.215
1:16:54.136,0.315,-0.21
1:16:54.140,0.32,-0.22
1:16:54.144,0.31,-0.23
1:16:54.148,0.34,-0.205
1:16:54.152,0.325,-0.23
1:16:54.156,0.325,-0.235
1:16:54.160,0.3,-0.235
1:16:54.164,0.31,-0.235
1:16:54.168,0.3,-0.22
1:16:54.172,0.315,-0.22
1:16:54.176,0.31,-0.22
1:16:54.180,0.3,-0.22
1:16:54.184,0.285,-0.22
1:16:54.188,0.295,-0.215
1:16:54.192,0.29,-0.215
1:16:54.196,0.3,-0.21
1:16:54.200,0.31,-0.22
1:16:54.204,0.295,-0.195
1:16:54.208,0.3,-0.21
1:16:54.212,0.305,-0.225
1:16:54.216,0.295,-0.195
1:16:54.220,0.295,-0.2
1:16:54.224,0.315,-0.215
1:16:54.228,0.295,-0.205
1:16:54.232,0.29,-0.21
1:16:54.236,0.275,-0.205
1:16:54.240,0.27,-0.215
1:16:54.244,0.29,-0.19
1:16:54.248,0.29,-0.215
1:16:54.252,0.3,-0.19
1:16:54.256,0.295,-0.19
1:16:54.260,0.275,-0.18
1:16:54.264,0.285,-0.19
1:16:54.268,0.265,-0.17
1:16:54.272,0.285,-0.185
1:16:54.276,0.275,-0.205
1:16:54.280,0.275,-0.185
1:16:54.284,0.27,-0.195
1:16:54.288,0.26,-0.185
1:16:54.292,0.265,-0.195
1:16:54.296,0.27,-0.18
1:16:54.300,0.275,-0.19
1:16:54.304,0.27,-0.185
1:16:54.308,0.255,-0.18
1:16:54.312,0.275,-0.18
1:16:54.316,0.26,-0.185
1:16:54.320,0.255,-0.185
1:16:54.324,0.26,-0.18
1:16:54.328,0.25,-0.18
1:16:54.332,0.235,-0.195
1:16:54.336,0.25,-0.195
1:16:54.340,0.255,-0.18
1:16:54.344,0.26,-0.16
1:16:54.348,0.235,-0.135
1:16:54.352,0.235,-0.1
1:16:54.356,0.255,-0.09
1:16:54.360,0.26,-0.04
1:16:54.364,0.245,-0.005
1:16:54.368,0.265,0.0
1:16:54.372,0.275,-0.01
1:16:54.376,0.3,-0.015
1:16:54.380,0.32,-0.005
1:16:54.384,0.34,0.015
1:16:54.388,0.335,-0.005
1:16:54.392,0.36,-0.015
1:16:54.396,0.36,-0.02
1:16:54.400,0.35,-0.005
1:16:54.404,0.335,-0.005
1:16:54.408,0.35,-0.005
1:16:54.412,0.31,-0.005
1:16:54.416,0.295,-0.015
1:16:54.420,0.28,-0.08
1:16:54.424,0.28,-0.125
1:16:54.428,0.26,-0.13
1:16:54.432,0.23,-0.15
1:16:54.436,0.21,-0.14
1:16:54.440,0.18,-0.13
1:16:54.444,0.185,-0.12
1:16:54.448,0.16,-0.1
1:16:54.452,0.14,-0.115
1:16:54.456,0.14,-0.135
1:16:54.460,0.175,-0.145
1:16:54.464,0.18,-0.135
1:16:54.468,0.18,-0.16
1:16:54.472,0.205,-0.16
1:16:54.476,0.22,-0.185
1:16:54.480,0.2,-0.22
1:16:54.484,0.195,-0.22
1:16:54.488,0.215,-0.21
1:16:54.492,0.23,-0.205
1:16:54.496,0.255,-0.2
1:16:54.500,0.27,-0.2
1:16:54.504,0.275,-0.205
1:16:54.508,0.255,-0.205
1:16:54.512,0.275,-0.21
1:16:54.516,0.26,-0.205
1:16:54.520,0.26,-0.205
1:16:54.524,0.265,-0.21
1:16:54.528,0.265,-0.195
1:16:54.532,0.24,-0.21
1:16:54.536,0.25,-0.195
1:16:54.540,0.245,-0.2
1:16:54.544,0.235,-0.175
1:16:54.548,0.245,-0.175
1:16:54.552,0.24,-0.135
1:16:54.556,0.25,-0.11
1:16:54.560,0.245,-0.08
1:16:54.564,0.26,-0.08
1:16:54.568,0.235,-0.065
1:16:54.572,0.23,0.055
1:16:54.576,0.23,0.28
1:16:54.580,0.265,0.48
1:16:54.584,0.295,0.65
1:16:54.588,0.305,0.765
1:16:54.592,0.275,0.825
1:16:54.596,0.24,0.84
1:16:54.600,0.165,0.765
1:16:54.604,0.14,0.6
1:16:54.608,0.035,0.335
1:16:54.612,-0.165,0.095
1:16:54.616,-0.475,0.125
1:16:54.620,-0.835,0.3
1:16:54.624,-1.095,0.315
1:16:54.628,-1.23,0.045
1:16:54.632,-1.25,-0.27
1:16:54.636,-1.17,-0.5
1:16:54.640,-0.8,-0.62
1:16:54.644,-0.315,-0.615
1:16:54.648,0.015,-0.585
1:16:54.652,0.13,-0.465
1:16:54.656,0.125,-0.36
1:16:54.660,0.11,-0.31
1:16:54.664,0.13,-0.3
1:16:54.668,0.11,-0.3
1:16:54.672,0.135,-0.31
1:16:54.676,0.195,-0.295
1:16:54.680,0.23,-0.315
1:16:54.684,0.3,-0.315
1:16:54.688,0.315,-0.315
1:16:54.692,0.325,-0.32
1:16:54.696,0.33,-0.32
1:16:54.700,0.37,-0.32
1:16:54.704,0.38,-0.32
1:16:54.708,0.375,-0.305
1:16:54.712,0.365,-0.305
1:16:54.716,0.365,-0.28
1:16:54.720,0.385,-0.315
1:16:54.724,0.375,-0.305
1:16:54.728,0.365,-0.295
1:16:54.732,0.37,-0.295
1:16:54.736,0.38,-0.29
1:16:54.740,0.385,-0.3
1:16:54.744,0.37,-0.28
1:16:54.748,0.36,-0.295
1:16:54.752,0.365,-0.285
1:16:54.756,0.395,-0.275
1:16:54.760,0.38,-0.3
1:16:54.764,0.395,-0.29
1:16:54.768,0.385,-0.285
1:16:54.772,0.39,-0.28
1:16:54.776,0.395,-0.28
1:16:54.780,0.395,-0.275
1:16:54.784,0.385,-0.29
1:16:54.788,0.385,-0.305
1:16:54.792,0.375,-0.295
1:16:54.796,0.4,-0.275
1:16:54.800,0.4,-0.3
1:16:54.804,0.385,-0.285
1:16:54.808,0.385,-0.295
1:16:54.812,0.39,-0.29
1:16:54.816,0.375,-0.275
1:16:54.820,0.385,-0.28
1:16:54.824,0.375,-0.27
1:16:54.828,0.395,-0.255
1:16:54.832,0.39,-0.26
1:16:54.836,0.37,-0.275
1:16:54.840,0.375,-0.27
1:16:54.844,0.355,-0.275
1:16:54.848,0.365,-0.265
1:16:54.852,0.375,-0.235
1:16:54.856,0.385,-0.2
1:16:54.860,0.37,-0.2
1:16:54.864,0.38,-0.205
1:16:54.868,0.365,-0.2
1:16:54.872,0.365,-0.19
1:16:54.876,0.355,-0.16
1:16:54.880,0.355,-0.155
1:16:54.884,0.355,-0.14
1:16:54.888,0.33,-0.14
1:16:54.892,0.345,-0.11
1:16:54.896,0.34,-0.115
1:16:54.900,0.32,-0.085
1:16:54.904,0.295,-0.09
1:16:54.908,0.305,-0.075
1:16:54.912,0.32,-0.075
1:16:54.916,0.29,-0.06
1:16:54.920,0.31,-0.045
1:16:54.924,0.295,-0.055
1:16:54.928,0.3,-0.055
1:16:54.932,0.3,-0.055
1:16:54.936,0.3,-0.05
1:16:54.940,0.29,-0.05
1:16:54.944,0.275,-0.055
1:16:54.948,0.255,-0.055
1:16:54.952,0.255,-0.06
1:16:54.956,0.28,-0.07
1:16:54.960,0.27,-0.055
1:16:54.964,0.28,-0.065
1:16:54.968,0.28,-0.06
1:16:54.972,0.28,-0.075
1:16:54.976,0.285,-0.07
1:16:54.980,0.28,-0.08
1:16:54.984,0.28,-0.08
1:16:54.988,0.29,-0.09
1:16:54.992,0.28,-0.08
1:16:54.996,0.28,-0.095
1:16:55.000,0.285,-0.07
1:16:55.004,0.285,-0.085
1:16:55.008,0.29,-0.095
1:16:55.012,0.3,-0.075
1:16:55.016,0.31,-0.09
1:16:55.020,0.31,-0.11
1:16:55.024,0.3,-0.09
1:16:55.028,0.295,-0.11
1:16:55.032,0.285,-0.095
1:16:55.036,0.305,-0.105
1:16:55.040,0.285,-0.09
1:16:55.044,0.295,-0.115
1:16:55.048,0.315,-0.115
1:16:55.052,0.305,-0.115
1:16:55.056,0.295,-0.105
1:16:55.060,0.33,-0.08
1:16:55.064,0.3,-0.13
1:16:55.068,0.29,-0.1
1:16:55.072,0.3,-0.125
1:16:55.076,0.31,-0.11
1:16:55.080,0.315,-0.11
1:16:55.084,0.295,-0.11
1:16:55.088,0.285,-0.1
1:16:55.092,0.29,-0.11
1:16:55.096,0.29,-0.1
1:16:55.100,0.275,-0.1
1:16:55.104,0.285,-0.105
1:16:55.108,0.28,-0.115
1:16:55.112,0.27,-0.125
1:16:55.116,0.29,-0.12
1:16:55.120,0.285,-0.1
1:16:55.124,0.285,-0.11
1:16:55.128,0.275,-0.105
1:16:55.132,0.28,-0.12
1:16:55.136,0.275,-0.115
1:16:55.140,0.285,-0.12
1:16:55.144,0.275,-0.105
1:16:55.148,0.285,-0.12
1:16:55.152,0.285,-0.1
1:16:55.156,0.28,-0.1
1:16:55.160,0.255,-0.095
1:16:55.164,0.275,-0.1
1:16:55.168,0.27,-0.095
1:16:55.172,0.245,-0.095
1:16:55.176,0.23,-0.08
1:16:55.180,0.265,-0.085
1:16:55.184,0.245,-0.09
1:16:55.188,0.24,-0.085
1:16:55.192,0.265,-0.09
1:16:55.196,0.245,-0.08
1:16:55.200,0.26,-0.075
1:16:55.204,0.235,-0.09
1:16:55.208,0.23,-0.07
1:16:55.212,0.245,-0.1
1:16:55.216,0.25,-0.075
1:16:55.220,0.245,-0.08
1:16:55.224,0.24,-0.075
1:16:55.228,0.255,-0.09
1:16:55.232,0.255,-0.085
1:16:55.236,0.26,-0.08
1:16:55.240,0.255,-0.07
1:16:55.244,0.265,-0.085
1:16:55.248,0.26,-0.08
1:16:55.252,0.27,-0.105
1:16:55.256,0.255,-0.085
1:16:55.260,0.25,-0.07
1:16:55.264,0.25,-0.08
1:16:55.268,0.26,-0.08
1:16:55.272,0.26,-0.075
1:16:55.276,0.23,-0.08
1:16:55.280,0.245,-0.075
1:16:55.284,0.245,-0.055
1:16:55.288,0.265,-0.025
1:16:55.292,0.245,-0.005
1:16:55.296,0.255,0.03
1:16:55.300,0.255,0.065
1:16:55.304,0.28,0.08
1:16:55.308,0.27,0.07
1:16:55.312,0.285,0.075
1:16:55.316,0.305,0.075
1:16:55.320,0.32,0.09
1:16:55.324,0.35,0.095
1:16:55.328,0.355,0.07
1:16:55.332,0.355,0.075
1:16:55.336,0.345,0.105
1:16:55.340,0.34,0.12
1:16:55.344,0.35,0.11
1:16:55.348,0.33,0.1
1:16:55.352,0.31,0.085
1:16:55.356,0.27,0.03
1:16:55.360,0.265,-0.025
1:16:55.364,0.235,-0.03
1:16:55.368,0.235,-0.03
1:16:55.372,0.205,-0.01
1:16:55.376,0.18,-0.02
1:16:55.380,0.165,-0.015
1:16:55.384,0.165,-0.015
1:16:55.388,0.17,-0.025
1:16:55.392,0.16,-0.05
1:16:55.396,0.175,-0.055
1:16:55.400,0.18,-0.045
1:16:55.404,0.2,-0.06
1:16:55.408,0.185,-0.07
1:16:55.412,0.185,-0.1
1:16:55.416,0.18,-0.12
1:16:55.420,0.21,-0.09
1:16:55.424,0.23,-0.08
1:16:55.428,0.27,-0.105
1:16:55.432,0.285,-0.11
1:16:55.436,0.275,-0.09
1:16:55.440,0.26,-0.09
1:16:55.444,0.26,-0.075
1:16:55.448,0.25,-0.075
1:16:55.452,0.27,-0.09
1:16:55.456,0.27,-0.08
1:16:55.460,0.255,-0.09
1:16:55.464,0.255,-0.1
1:16:55.468,0.27,-0.08
1:16:55.472,0.25,-0.075
1:16:55.476,0.245,-0.055
1:16:55.480,0.275,-0.035
1:16:55.484,0.26,0.03
1:16:55.488,0.24,0.02
1:16:55.492,0.25,0.025
1:16:55.496,0.215,0.1
1:16:55.500,0.235,0.285
1:16:55.504,0.28,0.5
1:16:55.508,0.28,0.705
1:16:55.512,0.305,0.815
1:16:55.516,0.3,0.88
1:16:55.520,0.23,0.93
1:16:55.524,0.2,0.895
1:16:55.528,0.19,0.765
1:16:55.532,0.085,0.48
1:16:55.536,-0.09,0.275
1:16:55.540,-0.385,0.28
1:16:55.544,-0.74,0.395
1:16:55.548,-1.01,0.355
1:16:55.552,-1.14,0.085
1:16:55.556,-1.18,-0.245
1:16:55.560,-1.055,-0.445
1:16:55.564,-0.71,-0.51
1:16:55.568,-0.26,-0.51
1:16:55.572,0.05,-0.445
1:16:55.576,0.15,-0.325
1:16:55.580,0.135,-0.255
1:16:55.584,0.125,-0.215
1:16:55.588,0.115,-0.225
1:16:55.592,0.11,-0.205
1:16:55.596,0.11,-0.22
1:16:55.600,0.185,-0.205
1:16:55.604,0.235,-0.22
1:16:55.608,0.285,-0.235
1:16:55.612,0.3,-0.225
1:16:55.616,0.33,-0.22
1:16:55.620,0.34,-0.22
1:16:55.624,0.335,-0.21
1:16:55.628,0.33,-0.215
1:16:55.632,0.345,-0.2
1:16:55.636,0.345,-0.2
1:16:55.640,0.345,-0.2
1:16:55.644,0.355,-0.21
1:16:55.648,0.37,-0.215
1:16:55.652,0.35,-0.215
1:16:55.656,0.35,-0.225
1:16:55.660,0.35,-0.215
1:16:55.664,0.365,-0.2
1:16:55.668,0.35,-0.2
1:16:55.672,0.35,-0.205
1:16:55.676,0.345,-0.2
1:16:55.680,0.335,-0.19
1:16:55.684,0.355,-0.2
1:16:55.688,0.335,-0.195
1:16:55.692,0.34,-0.21
1:16:55.696,0.355,-0.21
1:16:55.700,0.36,-0.21
1:16:55.704,0.325,-0.205
1:16:55.708,0.34,-0.215
1:16:55.712,0.325,-0.215
1:16:55.716,0.315,-0.215
1:16:55.720,0.345,-0.23
1:16:55.724,0.34,-0.235
1:16:55.728,0.345,-0.24
1:16:55.732,0.325,-0.215
1:16:55.736,0.3,-0.21
1:16:55.740,0.315,-0.22
1:16:55.744,0.315,-0.22
1:16:55.748,0.315,-0.2
1:16:55.752,0.325,-0.22
1:16:55.756,0.31,-0.21
1:16:55.760,0.3,-0.21
1:16:55.764,0.315,-0.195
1:16:55.768,0.3,-0.21
1:16:55.772,0.305,-0.16
1:16:55.776,0.305,-0.18
1:16:55.780,0.31,-0.16
1:16:55.784,0.3,-0.15
1:16:55.788,0.305,-0.15
1:16:55.792,0.28,-0.12
1:16:55.796,0.3,-0.115
1:16:55.800,0.29,-0.095
1:16:55.804,0.285,-0.085
1:16:55.808,0.265,-0.08
1:16:55.812,0.28,-0.06
1:16:55.816,0.265,-0.05
1:16:55.820,0.26,-0.02
1:16:55.824,0.255,-0.015
1:16:55.828,0.265,0.005
1:16:55.832,0.26,-0.005
1:16:55.836,0.265,0.005
1:16:55.840,0.26,-0.005
1:16:55.844,0.26,0.005
1:16:55.848,0.245,0.0
1:16:55.852,0.235,0.01
1:16:55.856,0.245,0.015
1:16:55.860,0.255,0.015
1:16:55.864,0.255,0.015
1:16:55.868,0.275,0.0
1:16:55.872,0.25,0.0
1:16:55.876,0.26,0.015
1:16:55.880,0.265,0.015
1:16:55.884,0.285,0.0
1:16:55.888,0.275,-0.005
1:16:55.892,0.27,-0.015
1:16:55.896,0.28,0.005
1:16:55.900,0.28,-0.01
1:16:55.904,0.275,0.0
1:16:55.908,0.295,-0.015
1:16:55.912,0.275,0.005
1:16:55.916,0.265,-0.005
1:16:55.920,0.255,-0.015
1:16:55.924,0.27,-0.035
1:16:55.928,0.29,-0.025
1:16:55.932,0.28,-0.02
1:16:55.936,0.295,-0.025
1:16:55.940,0.27,-0.01
1:16:55.944,0.285,-0.035
1:16:55.948,0.285,-0.035
1:16:55.952,0.29,-0.035
1:16:55.956,0.29,-0.03
1:16:55.960,0.29,-0.035
1:16:55.964,0.295,-0.02
1:16:55.968,0.285,-0.04
1:16:55.972,0.28,-0.055
1:16:55.976,0.285,-0.045
1:16:55.980,0.275,-0.045
1:16:55.984,0.28,-0.03
1:16:55.988,0.28,-0.06
1:16:55.992,0.275,-0.05
1:16:55.996,0.275,-0.05
1:16:56.000,0.28,-0.055
1:16:56.004,0.265,-0.07
1:16:56.008,0.29,-0.06
1:16:56.012,0.275,-0.055
1:16:56.016,0.275,-0.055
1:16:56.020,0.27,-0.055
1:16:56.024,0.25,-0.055
1:16:56.028,0.27,-0.06
1:16:56.032,0.275,-0.065
1:16:56.036,0.27,-0.07
1:16:56.040,0.255,-0.075
1:16:56.044,0.27,-0.085
1:16:56.048,0.275,-0.07
1:16:56.052,0.275,-0.07
1:16:56.056,0.26,-0.06
1:16:56.060,0.275,-0.055
1:16:56.064,0.25,-0.065
1:16:56.068,0.28,-0.075
1:16:56.072,0.255,-0.065
1:16:56.076,0.235,-0.06
1:16:56.080,0.245,-0.055
1:16:56.084,0.255,-0.075
1:16:56.088,0.29,-0.085
1:16:56.092,0.27,-0.06
1:16:56.096,0.255,-0.045
1:16:56.100,0.25,-0.04
1:16:56.104,0.285,-0.06
1:16:56.108,0.26,-0.065
1:16:56.112,0.275,-0.08
1:16:56.116,0.26,-0.07
1:16:56.120,0.265,-0.06
1:16:56.124,0.245,-0.08
1:16:56.128,0.25,-0.065
1:16:56.132,0.25,-0.055
1:16:56.136,0.26,-0.07
1:16:56.140,0.27,-0.07
1:16:56.144,0.26,-0.055
1:16:56.148,0.24,-0.06
1:16:56.152,0.255,-0.07
1:16:56.156,0.25,-0.09
1:16:56.160,0.265,-0.08
1:16:56.164,0.24,-0.085
1:16:56.168,0.245,-0.08
1:16:56.172,0.25,-0.09
1:16:56.176,0.235,-0.08
1:16:56.180,0.235,-0.08
1:16:56.184,0.235,-0.08
1:16:56.188,0.24,-0.05
1:16:56.192,0.24,-0.035
1:16:56.196,0.245,-0.005
1:16:56.200,0.23,0.04
1:16:56.204,0.255,0.075
1:16:56.208,0.27,0.095
1:16:56.212,0.265,0.08
1:16:56.216,0.27,0.09
1:16:56.220,0.295,0.1
1:16:56.224,0.305,0.075
1:16:56.228,0.33,0.07
1:16:56.232,0.37,0.05
1:16:56.236,0.345,0.055
1:16:56.240,0.37,0.08
1:16:56.244,0.355,0.095
1:16:56.248,0.36,0.1
1:16:56.252,0.33,0.095
1:16:56.256,0.315,0.07
1:16:56.260,0.285,0.02
1:16:56.264,0.305,-0.025
1:16:56.268,0.255,-0.05
1:16:56.272,0.225,-0.04
1:16:56.276,0.21,-0.05
1:16:56.280,0.21,-0.025
1:16:56.284,0.19,-0.035
1:16:56.288,0.16,-0.03
1:16:56.292,0.16,-0.04
1:16:56.296,0.18,-0.035
1:16:56.300,0.185,-0.05
1:16:56.304,0.195,-0.07
1:16:56.308,0.185,-0.065
1:16:56.312,0.21,-0.08
1:16:56.316,0.205,-0.135
1:16:56.320,0.205,-0.12
1:16:56.324,0.205,-0.135
1:16:56.328,0.22,-0.135
1:16:56.332,0.235,-0.13
1:16:56.336,0.285,-0.135
1:16:56.340,0.265,-0.14
1:16:56.344,0.26,-0.14
1:16:56.348,0.245,-0.14
1:16:56.352,0.245,-0.12
1:16:56.356,0.24,-0.125
1:16:56.360,0.245,-0.135
1:16:56.364,0.26,-0.115
1:16:56.368,0.24,-0.13
1:16:56.372,0.24,-0.115
1:16:56.376,0.245,-0.125
1:16:56.380,0.255,-0.12
1:16:56.384,0.27,-0.085
1:16:56.388,0.255,-0.07
1:16:56.392,0.23,-0.045
1:16:56.396,0.225,-0.025
1:16:56.400,0.235,-0.03
1:16:56.404,0.25,0.04
1:16:56.408,0.25,0.225
1:16:56.412,0.26,0.46
1:16:56.416,0.305,0.65
1:16:56.420,0.33,0.81
1:16:56.424,0.315,0.9
1:16:56.428,0.245,0.935
1:16:56.432,0.195,0.92
1:16:56.436,0.185,0.78
1:16:56.440,0.11,0.53
1:16:56.444,-0.055,0.275
1:16:56.448,-0.32,0.22
1:16:56.452,-0.66,0.33
1:16:56.456,-0.935,0.34
1:16:56.460,-1.075,0.09
1:16:56.464,-1.135,-0.23
1:16:56.468,-1.055,-0.46
1:16:56.472,-0.75,-0.59
1:16:56.476,-0.34,-0.6
1:16:56.480,0.02,-0.54
1:16:56.484,0.16,-0.435
1:16:56.488,0.14,-0.34
1:16:56.492,0.125,-0.305
1:16:56.496,0.1,-0.285
1:16:56.500,0.12,-0.3
1:16:56.504,0.135,-0.31
1:16:56.508,0.2,-0.305
1:16:56.512,0.25,-0.29
1:16:56.516,0.315,-0.29
1:16:56.520,0.31,-0.305
1:16:56.524,0.325,-0.31
1:16:56.528,0.33,-0.31
1:16:56.532,0.345,-0.285
1:16:56.536,0.355,-0.285
1:16:56.540,0.365,-0.305
1:16:56.544,0.345,-0.28
1:16:56.548,0.345,-0.29
1:16:56.552,0.355,-0.28
1:16:56.556,0.36,-0.275
1:16:56.560,0.355,-0.28
1:16:56.564,0.36,-0.275
1:16:56.568,0.345,-0.28
1:16:56.572,0.35,-0.285
1:16:56.576,0.365,-0.27
1:16:56.580,0.345,-0.275
1:16:56.584,0.355,-0.275
1:16:56.588,0.355,-0.28
1:16:56.592,0.36,-0.29
1:16:56.596,0.34,-0.27
1:16:56.600,0.36,-0.27
1:16:56.604,0.345,-0.285
1:16:56.608,0.37,-0.28
1:16:56.612,0.355,-0.275
1:16:56.616,0.34,-0.29
1:16:56.620,0.33,-0.29
1:16:56.624,0.365,-0.295
1:16:56.628,0.36,-0.3
1:16:56.632,0.325,-0.305
1:16:56.636,0.335,-0.295
1:16:56.640,0.33,-0.305
1:16:56.644,0.34,-0.305
1:16:56.648,0.345,-0.3
1:16:56.652,0.35,-0.295
1:16:56.656,0.34,-0.315
1:16:56.660,0.345,-0.295
1:16:56.664,0.33,-0.295
1:16:56.668,0.315,-0.285
1:16:56.672,0.325,-0.29
1:16:56.676,0.3,-0.28
1:16:56.680,0.32,-0.29
1:16:56.684,0.31,-0.285
1:16:56.688,0.295,-0.27
1:16:56.692,0.29,-0.235
1:16:56.696,0.3,-0.23
1:16:56.700,0.305,-0.235
1:16:56.704,0.31,-0.23
1:16:56.708,0.3,-0.215
1:16:56.712,0.295,-0.2
1:16:56.716,0.27,-0.18
1:16:56.720,0.285,-0.165
1:16:56.724,0.275,-0.16
1:16:56.728,0.28,-0.125
1:16:56.732,0.285,-0.125
1:16:56.736,0.265,-0.13
1:16:56.740,0.25,-0.12
1:16:56.744,0.26,-0.1
1:16:56.748,0.24,-0.11
1:16:56.752,0.25,-0.1
1:16:56.756,0.25,-0.1
1:16:56.760,0.225,-0.095
1:16:56.764,0.24,-0.085
1:16:56.768,0.235,-0.085
1:16:56.772,0.265,-0.08
1:16:56.776,0.25,-0.085
1:16:56.780,0.25,-0.095
1:16:56.784,0.255,-0.105
1:16:56.788,0.275,-0.09
1:16:56.792,0.25,-0.1
1:16:56.796,0.27,-0.095
1:16:56.800,0.27,-0.1
1:16:56.804,0.265,-0.115
1:16:56.808,0.27,-0.115
1:16:56.812,0.26,-0.115
1:16:56.816,0.28,-0.105
1:16:56.820,0.29,-0.105
1:16:56.824,0.28,-0.125
1:16:56.828,0.275,-0.12
1:16:56.832,0.305,-0.11
1:16:56.836,0.285,-0.12
1:16:56.840,0.3,-0.115
1:16:56.844,0.285,-0.12
1:16:56.848,0.295,-0.125
1:16:56.852,0.305,-0.125
1:16:56.856,0.295,-0.12
1:16:56.860,0.31,-0.115
1:16:56.864,0.305,-0.135
1:16:56.868,0.305,-0.13
1:16:56.872,0.33,-0.13
1:16:56.876,0.305,-0.125
1:16:56.880,0.305,-0.125
1:16:56.884,0.29,-0.13
1:16:56.888,0.315,-0.14
1:16:56.892,0.325,-0.135
1:16:56.896,0.32,-0.14
1:16:56.900,0.31,-0.13
1:16:56.904,0.31,-0.13
1:16:56.908,0.29,-0.13
1:16:56.912,0.295,-0.13
1:16:56.916,0.32,-0.115
1:16:56.920,0.29,-0.13
1:16:56.924,0.295,-0.13
1:16:56.928,0.305,-0.125
1:16:56.932,0.315,-0.14
1:16:56.936,0.315,-0.13
1:16:56.940,0.305,-0.15
1:16:56.944,0.29,-0.14
1:16:56.948,0.295,-0.145
1:16:56.952,0.29,-0.14
1:16:56.956,0.3,-0.16
1:16:56.960,0.285,-0.15
1:16:56.964,0.3,-0.15
1:16:56.968,0.285,-0.145
1:16:56.972,0.27,-0.15
1:16:56.976,0.27,-0.165
1:16:56.980,0.275,-0.165
1:16:56.984,0.285,-0.17
1:16:56.988,0.275,-0.145
1:16:56.992,0.27,-0.15
1:16:56.996,0.27,-0.135
1:16:57.000,0.27,-0.15
1:16:57.004,0.285,-0.165
1:16:57.008,0.265,-0.15
1:16:57.012,0.255,-0.16
1:16:57.016,0.265,-0.16
1:16:57.020,0.27,-0.15
1:16:57.024,0.25,-0.145
1:16:57.028,0.25,-0.145
1:16:57.032,0.265,-0.16
1:16:57.036,0.26,-0.16
1:16:57.040,0.255,-0.165
1:16:57.044,0.255,-0.165
1:16:57.048,0.25,-0.15
1:16:57.052,0.27,-0.16
1:16:57.056,0.275,-0.17
1:16:57.060,0.265,-0.17
1:16:57.064,0.265,-0.155
1:16:57.068,0.27,-0.16
1:16:57.072,0.275,-0.15
1:16:57.076,0.28,-0.15
1:16:57.080,0.26,-0.15
1:16:57.084,0.28,-0.155
1:16:57.088,0.25,-0.16
1:16:57.092,0.285,-0.165
1:16:57.096,0.275,-0.17
1:16:57.100,0.275,-0.165
1:16:57.104,0.25,-0.16
1:16:57.108,0.255,-0.16
1:16:57.112,0.255,-0.155
1:16:57.116,0.27,-0.14
1:16:57.120,0.26,-0.15
1:16:57.124,0.235,-0.125
1:16:57.128,0.265,-0.1
1:16:57.132,0.265,-0.075
1:16:57.136,0.255,-0.05
1:16:57.140,0.26,-0.01
1:16:57.144,0.265,0.005
1:16:57.148,0.295,0.01
1:16:57.152,0.275,0.01
1:16:57.156,0.29,0.025
1:16:57.160,0.34,0.015
1:16:57.164,0.355,0.0
1:16:57.168,0.36,-0.01
1:16:57.172,0.345,-0.02
1:16:57.176,0.37,0.02
1:16:57.180,0.355,0.025
1:16:57.184,0.365,0.015
1:16:57.188,0.33,0.025
1:16:57.192,0.295,-0.01
1:16:57.196,0.265,-0.065
1:16:57.200,0.265,-0.11
1:16:57.204,0.25,-0.13
1:16:57.208,0.22,-0.14
1:16:57.212,0.215,-0.13
1:16:57.216,0.195,-0.13
1:16:57.220,0.185,-0.12
1:16:57.224,0.17,-0.105
1:16:57.228,0.145,-0.135
1:16:57.232,0.155,-0.13
1:16:57.236,0.18,-0.14
1:16:57.240,0.175,-0.155
1:16:57.244,0.185,-0.17
1:16:57.248,0.21,-0.185
1:16:57.252,0.2,-0.205
1:16:57.256,0.22,-0.225
1:16:57.260,0.195,-0.225
1:16:57.264,0.21,-0.215
1:16:57.268,0.235,-0.225
1:16:57.272,0.275,-0.22
1:16:57.276,0.275,-0.235
1:16:57.280,0.28,-0.22
1:16:57.284,0.265,-0.215
1:16:57.288,0.25,-0.225
1:16:57.292,0.245,-0.225
1:16:57.296,0.25,-0.235
1:16:57.300,0.245,-0.23
1:16:57.304,0.23,-0.24
1:16:57.308,0.23,-0.21
1:16:57.312,0.235,-0.235
1:16:57.316,0.22,-0.225
1:16:57.320,0.235,-0.205
1:16:57.324,0.235,-0.19
1:16:57.328,0.24,-0.145
1:16:57.332,0.225,-0.135
1:16:57.336,0.245,-0.12
1:16:57.340,0.215,-0.085
1:16:57.344,0.205,0.065
1:16:57.348,0.245,0.285
1:16:57.352,0.255,0.505
1:16:57.356,0.28,0.69
1:16:57.360,0.28,0.82
1:16:57.364,0.26,0.835
1:16:57.368,0.22,0.815
1:16:57.372,0.18,0.7
1:16:57.376,0.125,0.47
1:16:57.380,-0.015,0.15
1:16:57.384,-0.285,0.0
1:16:57.388,-0.63,0.11
1:16:57.392,-0.98,0.26
1:16:57.396,-1.235,0.18
1:16:57.400,-1.36,-0.14
1:16:57.404,-1.35,-0.45
1:16:57.408,-1.17,-0.64
1:16:57.412,-0.755,-0.705
1:16:57.416,-0.295,-0.705
1:16:57.420,0.02,-0.64
1:16:57.424,0.09,-0.52
1:16:57.428,0.1,-0.44
1:16:57.432,0.075,-0.395
1:16:57.436,0.055,-0.425
1:16:57.440,0.065,-0.415
1:16:57.444,0.13,-0.43
1:16:57.448,0.145,-0.435
1:16:57.452,0.25,-0.425
1:16:57.456,0.275,-0.425
1:16:57.460,0.315,-0.42
1:16:57.464,0.325,-0.44
1:16:57.468,0.335,-0.425
1:16:57.472,0.315,-0.43
1:16:57.476,0.335,-0.44
1:16:57.480,0.33,-0.43
1:16:57.484,0.34,-0.41
1:16:57.488,0.32,-0.425
1:16:57.492,0.33,-0.44
1:16:57.496,0.33,-0.415
1:16:57.500,0.35,-0.415
1:16:57.504,0.35,-0.42
1:16:57.508,0.35,-0.415
1:16:57.512,0.325,-0.415
1:16:57.516,0.36,-0.405
1:16:57.520,0.35,-0.42
1:16:57.524,0.345,-0.42
1:16:57.528,0.34,-0.425
1:16:57.532,0.35,-0.415
1:16:57.536,0.335,-0.425
1:16:57.540,0.335,-0.43
1:16:57.544,0.34,-0.42
1:16:57.548,0.33,-0.45
1:16:57.552,0.33,-0.445
1:16:57.556,0.36,-0.44
1:16:57.560,0.33,-0.455
1:16:57.564,0.325,-0.45
1:16:57.568,0.335,-0.46
1:16:57.572,0.315,-0.43
1:16:57.576,0.33,-0.45
1:16:57.580,0.305,-0.43
1:16:57.584,0.325,-0.45
1:16:57.588,0.33,-0.44
1:16:57.592,0.325,-0.44
1:16:57.596,0.305,-0.44
1:16:57.600,0.325,-0.425
1:16:57.604,0.32,-0.44
1:16:57.608,0.3,-0.44
1:16:57.612,0.3,-0.435
1:16:57.616,0.305,-0.445
1:16:57.620,0.3,-0.43
1:16:57.624,0.28,-0.42
1:16:57.628,0.285,-0.42
1:16:57.632,0.28,-0.39
1:16:57.636,0.285,-0.365
1:16:57.640,0.29,-0.365
1:16:57.644,0.285,-0.375
1:16:57.648,0.265,-0.35
1:16:57.652,0.28,-0.34
1:16:57.656,0.275,-0.33
1:16:57.660,0.26,-0.31
1:16:57.664,0.255,-0.305
1:16:57.668,0.24,-0.27
1:16:57.672,0.24,-0.285
1:16:57.676,0.225,-0.275
1:16:57.680,0.21,-0.26
1:16:57.684,0.21,-0.27
1:16:57.688,0.21,-0.24
1:16:57.692,0.22,-0.27
1:16:57.696,0.215,-0.265
1:16:57.700,0.21,-0.26
1:16:57.704,0.195,-0.27
1:16:57.708,0.21,-0.26
1:16:57.712,0.225,-0.25
1:16:57.716,0.23,-0.245
1:16:57.720,0.21,-0.24
1:16:57.724,0.205,-0.26
1:16:57.728,0.23,-0.28
1:16:57.732,0.215,-0.28
1:16:57.736,0.225,-0.275
1:16:57.740,0.22,-0.29
1:16:57.744,0.215,-0.295
1:16:57.748,0.22,-0.295
1:16:57.752,0.215,-0.275
1:16:57.756,0.225,-0.315
1:16:57.760,0.22,-0.3
1:16:57.764,0.215,-0.3
1:16:57.768,0.23,-0.3
1:16:57.772,0.25,-0.315
1:16:57.776,0.235,-0.325
1:16:57.780,0.22,-0.32
1:16:57.784,0.235,-0.305
1:16:57.788,0.235,-0.335
1:16:57.792,0.25,-0.33
1:16:57.796,0.25,-0.345
1:16:57.800,0.255,-0.35
1:16:57.804,0.225,-0.34
1:16:57.808,0.24,-0.37
1:16:57.812,0.245,-0.345
1:16:57.816,0.255,-0.35
1:16:57.820,0.245,-0.35
1:16:57.824,0.245,-0.35
1:16:57.828,0.235,-0.35
1:16:57.832,0.245,-0.365
1:16:57.836,0.26,-0.345
1:16:57.840,0.25,-0.345
1:16:57.844,0.265,-0.35
1:16:57.848,0.265,-0.355
1:16:57.852,0.24,-0.375
1:16:57.856,0.25,-0.36
1:16:57.860,0.25,-0.37
1:16:57.864,0.255,-0.37
1:16:57.868,0.25,-0.36
1:16:57.872,0.255,-0.345
1:16:57.876,0.25,-0.375
1:16:57.880,0.235,-0.365
1:16:57.884,0.235,-0.355
1:16:57.888,0.25,-0.36
1:16:57.892,0.255,-0.365
1:16:57.896,0.245,-0.35
1:16:57.900,0.245,-0.36
1:16:57.904,0.25,-0.35
1:16:57.908,0.235,-0.355
1:16:57.912,0.25,-0.365
1:16:57.916,0.245,-0.35
1:16:57.920,0.23,-0.35
1:16:57.924,0.24,-0.345
1:16:57.928,0.23,-0.36
1:16:57.932,0.235,-0.345
1:16:57.936,0.235,-0.35
1:16:57.940,0.23,-0.355
1:16:57.944,0.235,-0.36
1:16:57.948,0.215,-0.355
1:16:57.952,0.23,-0.355
1:16:57.956,0.245,-0.37
1:16:57.960,0.225,-0.37
1:16:57.964,0.215,-0.34
1:16:57.968,0.23,-0.375
1:16:57.972,0.22,-0.355
1:16:57.976,0.23,-0.375
1:16:57.980,0.21,-0.37
1:16:57.984,0.21,-0.38
1:16:57.988,0.235,-0.36
1:16:57.992,0.23,-0.355
1:16:57.996,0.22,-0.37
1:16:58.000,0.225,-0.38
1:16:58.004,0.225,-0.375
1:16:58.008,0.2,-0.37
1:16:58.012,0.21,-0.37
1:16:58.016,0.195,-0.365
1:16:58.020,0.195,-0.35
1:16:58.024,0.185,-0.38
1:16:58.028,0.21,-0.375
1:16:58.032,0.195,-0.38
1:16:58.036,0.19,-0.38
1:16:58.040,0.195,-0.385
1:16:58.044,0.195,-0.385
1:16:58.048,0.19,-0.375
1:16:58.052,0.22,-0.36
1:16:58.056,0.2,-0.38
1:16:58.060,0.2,-0.365
1:16:58.064,0.19,-0.345
1:16:58.068,0.185,-0.32
1:16:58.072,0.19,-0.29
1:16:58.076,0.22,-0.255
1:16:58.080,0.195,-0.22
1:16:58.084,0.2,-0.215
1:16:58.088,0.21,-0.21
1:16:58.092,0.23,-0.22
1:16:58.096,0.255,-0.2
1:16:58.100,0.29,-0.21
1:16:58.104,0.295,-0.205
1:16:58.108,0.285,-0.195
1:16:58.112,0.3,-0.185
1:16:58.116,0.3,-0.185
1:16:58.120,0.285,-0.18
1:16:58.124,0.285,-0.18
1:16:58.128,0.27,-0.205
1:16:58.132,0.26,-0.22
1:16:58.136,0.24,-0.285
1:16:58.140,0.23,-0.32
1:16:58.144,0.2,-0.32
1:16:58.148,0.2,-0.34
1:16:58.152,0.145,-0.31
1:16:58.156,0.125,-0.31
1:16:58.160,0.12,-0.325
1:16:58.164,0.115,-0.315
1:16:58.168,0.105,-0.32
1:16:58.172,0.1,-0.32
1:16:58.176,0.115,-0.34
1:16:58.180,0.125,-0.35
1:16:58.184,0.115,-0.36
1:16:58.188,0.15,-0.37
1:16:58.192,0.145,-0.4
1:16:58.196,0.13,-0.42
1:16:58.200,0.135,-0.405
1:16:58.204,0.175,-0.415
1:16:58.208,0.18,-0.4
1:16:58.212,0.205,-0.43
1:16:58.216,0.18,-0.42
1:16:58.220,0.195,-0.41
1:16:58.224,0.205,-0.405
1:16:58.228,0.19,-0.405
1:16:58.232,0.18,-0.415
1:16:58.236,0.185,-0.41
1:16:58.240,0.185,-0.41
1:16:58.244,0.155,-0.4
1:16:58.248,0.175,-0.41
1:16:58.252,0.18,-0.395
1:16:58.256,0.16,-0.405
1:16:58.260,0.155,-0.395
1:16:58.264,0.175,-0.38
1:16:58.268,0.17,-0.33
1:16:58.272,0.165,-0.29
1:16:58.276,0.18,-0.305
1:16:58.280,0.175,-0.28
1:16:58.284,0.175,-0.13
1:16:58.288,0.19,0.075
1:16:58.292,0.21,0.31
1:16:58.296,0.24,0.44
1:16:58.300,0.25,0.555
1:16:58.304,0.175,0.61
1:16:58.308,0.13,0.595
1:16:58.312,0.105,0.52
1:16:58.316,0.05,0.285
1:16:58.320,-0.09,0.02
1:16:58.324,-0.33,-0.115
1:16:58.328,-0.67,-0.03
1:16:58.332,-0.965,0.095
1:16:58.336,-1.225,-0.04
1:16:58.340,-1.32,-0.35
1:16:58.344,-1.31,-0.635
1:16:58.348,-1.095,-0.795
1:16:58.352,-0.695,-0.865
1:16:58.356,-0.235,-0.85
1:16:58.360,0.01,-0.785
1:16:58.364,0.055,-0.67
1:16:58.368,0.015,-0.625
1:16:58.372,0.0,-0.595
1:16:58.376,0.0,-0.575
1:16:58.380,-0.01,-0.575
1:16:58.384,0.035,-0.59
1:16:58.388,0.09,-0.58
1:16:58.392,0.15,-0.57
1:16:58.396,0.19,-0.585
1:16:58.400,0.2,-0.575
1:16:58.404,0.215,-0.58
1:16:58.408,0.21,-0.595
1:16:58.412,0.225,-0.575
1:16:58.416,0.24,-0.585
1:16:58.420,0.225,-0.57
1:16:58.424,0.235,-0.58
1:16:58.428,0.23,-0.58
1:16:58.432,0.235,-0.585
1:16:58.436,0.23,-0.595
1:16:58.440,0.225,-0.565
1:16:58.444,0.215,-0.565
1:16:58.448,0.23,-0.575
1:16:58.452,0.23,-0.59
1:16:58.456,0.22,-0.58
1:16:58.460,0.22,-0.575
1:16:58.464,0.235,-0.585
1:16:58.468,0.23,-0.61
1:16:58.472,0.23,-0.585
1:16:58.476,0.215,-0.585
1:16:58.480,0.215,-0.585
1:16:58.484,0.225,-0.585
1:16:58.488,0.225,-0.59
1:16:58.492,0.225,-0.595
1:16:58.496,0.215,-0.585
1:16:58.500,0.23,-0.585
1:16:58.504,0.225,-0.6
1:16:58.508,0.23,-0.62
1:16:58.512,0.215,-0.615
1:16:58.516,0.215,-0.6
1:16:58.520,0.2,-0.61
1:16:58.524,0.2,-0.62
1:16:58.528,0.215,-0.605
1:16:58.532,0.2,-0.605
1:16:58.536,0.205,-0.61
1:16:58.540,0.205,-0.605
1:16:58.544,0.21,-0.605
1:16:58.548,0.185,-0.605
1:16:58.552,0.195,-0.605
1:16:58.556,0.185,-0.58
1:16:58.560,0.175,-0.58
1:16:58.564,0.17,-0.57
1:16:58.568,0.175,-0.59
1:16:58.572,0.175,-0.58
1:16:58.576,0.175,-0.55
1:16:58.580,0.16,-0.555
1:16:58.584,0.135,-0.545
1:16:58.588,0.135,-0.52
1:16:58.592,0.125,-0.51
1:16:58.596,0.14,-0.495
1:16:58.600,0.15,-0.475
1:16:58.604,0.14,-0.455
1:16:58.608,0.11,-0.45
1:16:58.612,0.13,-0.435
1:16:58.616,0.13,-0.425
1:16:58.620,0.115,-0.43
1:16:58.624,0.13,-0.4
1:16:58.628,0.115,-0.405
1:16:58.632,0.1,-0.405
1:16:58.636,0.1,-0.38
1:16:58.640,0.1,-0.395
1:16:58.644,0.095,-0.385
1:16:58.648,0.115,-0.38
1:16:58.652,0.11,-0.375
1:16:58.656,0.11,-0.37
1:16:58.660,0.11,-0.395
1:16:58.664,0.1,-0.375
1:16:58.668,0.1,-0.395
1:16:58.672,0.105,-0.39
1:16:58.676,0.12,-0.39
1:16:58.680,0.105,-0.4
1:16:58.684,0.13,-0.41
1:16:58.688,0.125,-0.425
1:16:58.692,0.11,-0.405
1:16:58.696,0.115,-0.43
1:16:58.700,0.135,-0.42
1:16:58.704,0.135,-0.425
1:16:58.708,0.125,-0.42
1:16:58.712,0.125,-0.43
1:16:58.716,0.13,-0.43
1:16:58.720,0.15,-0.425
1:16:58.724,0.135,-0.44
1:16:58.728,0.135,-0.44
1:16:58.732,0.12,-0.435
1:16:58.736,0.14,-0.43
1:16:58.740,0.135,-0.44
1:16:58.744,0.135,-0.435
1:16:58.748,0.14,-0.46
1:16:58.752,0.12,-0.435
1:16:58.756,0.14,-0.445
1:16:58.760,0.155,-0.455
1:16:58.764,0.13,-0.44
1:16:58.768,0.125,-0.445
1:16:58.772,0.165,-0.46
1:16:58.776,0.14,-0.45
1:16:58.780,0.125,-0.45
1:16:58.784,0.14,-0.45
1:16:58.788,0.13,-0.455
1:16:58.792,0.15,-0.445
1:16:58.796,0.14,-0.47
1:16:58.800,0.125,-0.45
1:16:58.804,0.13,-0.445
1:16:58.808,0.14,-0.46
1:16:58.812,0.115,-0.46
1:16:58.816,0.13,-0.445
1:16:58.820,0.135,-0.465
1:16:58.824,0.115,-0.44
1:16:58.828,0.11,-0.44
1:16:58.832,0.135,-0.43
1:16:58.836,0.135,-0.45
1:16:58.840,0.115,-0.435
1:16:58.844,0.105,-0.435
1:16:58.848,0.11,-0.45
1:16:58.852,0.12,-0.44
1:16:58.856,0.135,-0.42
1:16:58.860,0.125,-0.44
1:16:58.864,0.125,-0.44
1:16:58.868,0.12,-0.425
1:16:58.872,0.125,-0.43
1:16:58.876,0.135,-0.445
1:16:58.880,0.145,-0.425
1:16:58.884,0.13,-0.43
1:16:58.888,0.125,-0.43
1:16:58.892,0.115,-0.425
1:16:58.896,0.125,-0.43
1:16:58.900,0.13,-0.41
1:16:58.904,0.115,-0.435
1:16:58.908,0.12,-0.445
1:16:58.912,0.12,-0.445
1:16:58.916,0.115,-0.42
1:16:58.920,0.125,-0.435
1:16:58.924,0.12,-0.42
1:16:58.928,0.115,-0.43
1:16:58.932,0.115,-0.44
1:16:58.936,0.11,-0.43
1:16:58.940,0.12,-0.43
1:16:58.944,0.135,-0.425
1:16:58.948,0.11,-0.435
1:16:58.952,0.115,-0.425
1:16:58.956,0.11,-0.42
1:16:58.960,0.13,-0.415
1:16:58.964,0.105,-0.41
1:16:58.968,0.115,-0.425
1:16:58.972,0.115,-0.445
1:16:58.976,0.11,-0.42
1:16:58.980,0.11,-0.44
1:16:58.984,0.08,-0.43
1:16:58.988,0.1,-0.43
1:16:58.992,0.1,-0.43
1:16:58.996,0.115,-0.425
1:16:59.000,0.115,-0.405
1:16:59.004,0.115,-0.415
1:16:59.008,0.1,-0.4
1:16:59.012,0.13,-0.37
1:16:59.016,0.115,-0.365
1:16:59.020,0.095,-0.335
1:16:59.024,0.115,-0.29
1:16:59.028,0.105,-0.25
1:16:59.032,0.115,-0.245
1:16:59.036,0.105,-0.25
1:16:59.040,0.125,-0.24
1:16:59.044,0.135,-0.235
1:16:59.048,0.185,-0.235
1:16:59.052,0.21,-0.245
1:16:59.056,0.21,-0.24
1:16:59.060,0.225,-0.225
1:16:59.064,0.235,-0.26
1:16:59.068,0.22,-0.22
1:16:59.072,0.175,-0.215
1:16:59.076,0.18,-0.21
1:16:59.080,0.17,-0.245
1:16:59.084,0.16,-0.27
1:16:59.088,0.155,-0.32
1:16:59.092,0.125,-0.355
1:16:59.096,0.1,-0.35
1:16:59.100,0.085,-0.33
1:16:59.104,0.07,-0.335
1:16:59.108,0.06,-0.32
1:16:59.112,0.03,-0.315
1:16:59.116,0.02,-0.335
1:16:59.120,0.035,-0.345
1:16:59.124,0.045,-0.345
1:16:59.128,0.04,-0.37
1:16:59.132,0.055,-0.36
1:16:59.136,0.055,-0.355
1:16:59.140,0.085,-0.39
1:16:59.144,0.055,-0.405
1:16:59.148,0.065,-0.415
1:16:59.152,0.06,-0.42
1:16:59.156,0.115,-0.425
1:16:59.160,0.13,-0.42
1:16:59.164,0.125,-0.425
1:16:59.168,0.12,-0.42
1:16:59.172,0.105,-0.405
1:16:59.176,0.095,-0.42
1:16:59.180,0.115,-0.42
1:16:59.184,0.12,-0.405
1:16:59.188,0.105,-0.405
1:16:59.192,0.13,-0.41
1:16:59.196,0.1,-0.39
1:16:59.200,0.12,-0.4
1:16:59.204,0.105,-0.385
1:16:59.208,0.08,-0.38
1:16:59.212,0.1,-0.365
1:16:59.216,0.09,-0.355
1:16:59.220,0.095,-0.325
1:16:59.224,0.105,-0.33
1:16:59.228,0.115,-0.305
1:16:59.232,0.095,-0.205
1:16:59.236,0.115,-0.015
1:16:59.240,0.13,0.205
1:16:59.244,0.175,0.44
1:16:59.248,0.165,0.59
1:16:59.252,0.14,0.715
1:16:59.256,0.075,0.78
1:16:59.260,0.06,0.79
1:16:59.264,0.04,0.705
1:16:59.268,-0.005,0.46
1:16:59.272,-0.155,0.155
1:16:59.276,-0.4,0.05
1:16:59.280,-0.715,0.11
1:16:59.284,-1.0,0.105
1:16:59.288,-1.165,-0.14
1:16:59.292,-1.22,-0.475
1:16:59.296,-1.17,-0.69
1:16:59.300,-0.9,-0.815
1:16:59.304,-0.49,-0.865
1:16:59.308,-0.155,-0.82
1:16:59.312,0.0,-0.725
1:16:59.316,0.005,-0.61
1:16:59.320,0.0,-0.57
1:16:59.324,-0.025,-0.555
1:16:59.328,-0.025,-0.56
1:16:59.332,0.0,-0.58
1:16:59.336,0.035,-0.555
1:16:59.340,0.095,-0.555
1:16:59.344,0.135,-0.555
1:16:59.348,0.18,-0.57
1:16:59.352,0.205,-0.57
1:16:59.356,0.18,-0.57
1:16:59.360,0.195,-0.565
1:16:59.364,0.2,-0.565
1:16:59.368,0.205,-0.575
1:16:59.372,0.195,-0.57
1:16:59.376,0.215,-0.565
1:16:59.380,0.2,-0.555
1:16:59.384,0.205,-0.54
1:16:59.388,0.2,-0.55
1:16:59.392,0.22,-0.57
1:16:59.396,0.205,-0.555
1:16:59.400,0.205,-0.555
1:16:59.404,0.205,-0.575
1:16:59.408,0.225,-0.56
1:16:59.412,0.21,-0.555
1:16:59.416,0.215,-0.55
1:16:59.420,0.2,-0.565
1:16:59.424,0.205,-0.55
1:16:59.428,0.23,-0.55
1:16:59.432,0.215,-0.56
1:16:59.436,0.19,-0.55
1:16:59.440,0.195,-0.57
1:16:59.444,0.21,-0.575
1:16:59.448,0.225,-0.57
1:16:59.452,0.185,-0.57
1:16:59.456,0.2,-0.565
1:16:59.460,0.2,-0.56
1:16:59.464,0.2,-0.55
1:16:59.468,0.2,-0.575
1:16:59.472,0.195,-0.545
1:16:59.476,0.195,-0.56
1:16:59.480,0.195,-0.555
1:16:59.484,0.185,-0.565
1:16:59.488,0.19,-0.575
1:16:59.492,0.19,-0.56
1:16:59.496,0.19,-0.575
1:16:59.500,0.175,-0.57
1:16:59.504,0.175,-0.565
1:16:59.508,0.175,-0.55
1:16:59.512,0.175,-0.545
1:16:59.516,0.19,-0.545
1:16:59.520,0.175,-0.53
1:16:59.524,0.17,-0.525
1:16:59.528,0.17,-0.515
1:16:59.532,0.17,-0.495
1:16:59.536,0.17,-0.48
1:16:59.540,0.17,-0.455
1:16:59.544,0.14,-0.44
1:16:59.548,0.145,-0.435
1:16:59.552,0.145,-0.405
1:16:59.556,0.135,-0.4
1:16:59.560,0.13,-0.385
1:16:59.564,0.135,-0.38
1:16:59.568,0.125,-0.37
1:16:59.572,0.13,-0.365
1:16:59.576,0.13,-0.35
1:16:59.580,0.135,-0.34
1:16:59.584,0.12,-0.35
1:16:59.588,0.115,-0.335
1:16:59.592,0.13,-0.335
1:16:59.596,0.12,-0.315
1:16:59.600,0.12,-0.325
1:16:59.604,0.105,-0.35
1:16:59.608,0.145,-0.325
1:16:59.612,0.145,-0.33
1:16:59.616,0.13,-0.335
1:16:59.620,0.13,-0.335
1:16:59.624,0.14,-0.34
1:16:59.628,0.135,-0.37
1:16:59.632,0.125,-0.37
1:16:59.636,0.12,-0.355
1:16:59.640,0.145,-0.36
1:16:59.644,0.155,-0.345
1:16:59.648,0.14,-0.365
1:16:59.652,0.145,-0.355
1:16:59.656,0.155,-0.365
1:16:59.660,0.145,-0.355
1:16:59.664,0.155,-0.35
1:16:59.668,0.155,-0.345
1:16:59.672,0.14,-0.355
1:16:59.676,0.17,-0.345
1:16:59.680,0.145,-0.365
1:16:59.684,0.155,-0.37
1:16:59.688,0.17,-0.365
1:16:59.692,0.15,-0.37
1:16:59.696,0.155,-0.37
1:16:59.700,0.145,-0.365
1:16:59.704,0.175,-0.37
1:16:59.708,0.16,-0.375
1:16:59.712,0.155,-0.385
1:16:59.716,0.175,-0.37
1:16:59.720,0.18,-0.365
1:16:59.724,0.19,-0.37
1:16:59.728,0.185,-0.37
1:16:59.732,0.195,-0.38
1:16:59.736,0.175,-0.39
1:16:59.740,0.175,-0.38
1:16:59.744,0.16,-0.385
1:16:59.748,0.16,-0.365
1:16:59.752,0.165,-0.37
1:16:59.756,0.175,-0.38
1:16:59.760,0.15,-0.385
1:16:59.764,0.15,-0.39
1:16:59.768,0.15,-0.375
1:16:59.772,0.14,-0.38
1:16:59.776,0.14,-0.365
1:16:59.780,0.145,-0.375
1:16:59.784,0.15,-0.38
1:16:59.788,0.13,-0.375
1:16:59.792,0.13,-0.385
1:16:59.796,0.15,-0.375
1:16:59.800,0.16,-0.37
1:16:59.804,0.15,-0.385
1:16:59.808,0.125,-0.36
1:16:59.812,0.14,-0.38
1:16:59.816,0.15,-0.37
1:16:59.820,0.15,-0.375
1:16:59.824,0.135,-0.37
1:16:59.828,0.145,-0.385
1:16:59.832,0.155,-0.355
1:16:59.836,0.155,-0.37
1:16:59.840,0.145,-0.365
1:16:59.844,0.145,-0.365
1:16:59.848,0.155,-0.37
1:16:59.852,0.155,-0.37
1:16:59.856,0.15,-0.37
1:16:59.860,0.155,-0.355
1:16:59.864,0.16,-0.36
1:16:59.868,0.16,-0.335
1:16:59.872,0.19,-0.33
1:16:59.876,0.19,-0.325
1:16:59.880,0.165,-0.335
1:16:59.884,0.175,-0.335
1:16:59.888,0.165,-0.34
1:16:59.892,0.175,-0.33
1:16:59.896,0.155,-0.315
1:16:59.900,0.175,-0.34
1:16:59.904,0.175,-0.33
1:16:59.908,0.17,-0.345
1:16:59.912,0.175,-0.34
1:16:59.916,0.175,-0.315
1:16:59.920,0.17,-0.325
1:16:59.924,0.17,-0.335
1:16:59.928,0.18,-0.345
1:16:59.932,0.15,-0.34
1:16:59.936,0.175,-0.33
1:16:59.940,0.18,-0.32
1:16:59.944,0.18,-0.33
1:16:59.948,0.2,-0.33
1:16:59.952,0.165,-0.31
1:16:59.956,0.185,-0.285
1:16:59.960,0.175,-0.26
1:16:59.964,0.16,-0.22
1:16:59.968,0.18,-0.18
1:16:59.972,0.175,-0.16
1:16:59.976,0.18,-0.145
1:16:59.980,0.185,-0.13
1:16:59.984,0.225,-0.13
1:16:59.988,0.225,-0.12
1:16:59.992,0.275,-0.135
1:16:59.996,0.255,-0.12
1:17:00.000,0.28,-0.16
1:17:00.004,0.29,-0.14
1:17:00.008,0.305,-0.105
1:17:00.012,0.295,-0.11
1:17:00.016,0.27,-0.135
1:17:00.020,0.225,-0.15
1:17:00.024,0.235,-0.18
1:17:00.028,0.235,-0.245
1:17:00.032,0.215,-0.285
1:17:00.036,0.15,-0.28
1:17:00.040,0.135,-0.28
1:17:00.044,0.125,-0.265
1:17:00.048,0.1,-0.235
1:17:00.052,0.09,-0.22
1:17:00.056,0.085,-0.22
1:17:00.060,0.09,-0.26
1:17:00.064,0.11,-0.24
1:17:00.068,0.105,-0.28
1:17:00.072,0.11,-0.285
1:17:00.076,0.125,-0.285
1:17:00.080,0.15,-0.29
1:17:00.084,0.125,-0.33
1:17:00.088,0.15,-0.345
1:17:00.092,0.13,-0.335
1:17:00.096,0.18,-0.33
1:17:00.100,0.2,-0.33
1:17:00.104,0.215,-0.32
1:17:00.108,0.2,-0.35
1:17:00.112,0.2,-0.34
1:17:00.116,0.175,-0.32
1:17:00.120,0.17,-0.33
1:17:00.124,0.19,-0.325
1:17:00.128,0.2,-0.32
1:17:00.132,0.185,-0.29
1:17:00.136,0.19,-0.31
1:17:00.140,0.18,-0.305
1:17:00.144,0.18,-0.32
1:17:00.148,0.185,-0.29
1:17:00.152,0.17,-0.255
1:17:00.156,0.165,-0.225
1:17:00.160,0.185,-0.21
1:17:00.164,0.175,-0.16
1:17:00.168,0.18,-0.025
1:17:00.172,0.175,0.215
1:17:00.176,0.215,0.47
1:17:00.180,0.245,0.685
1:17:00.184,0.26,0.82
1:17:00.188,0.24,0.89
1:17:00.192,0.17,0.885
1:17:00.196,0.145,0.74
1:17:00.200,0.1,0.47
1:17:00.204,-0.045,0.1
1:17:00.208,-0.31,-0.03
1:17:00.212,-0.675,0.065
1:17:00.216,-1.02,0.195
1:17:00.220,-1.25,0.035
1:17:00.224,-1.4,-0.3
1:17:00.228,-1.4,-0.56
1:17:00.232,-1.155,-0.74
1:17:00.236,-0.685,-0.775
1:17:00.240,-0.235,-0.73
1:17:00.244,0.0,-0.625
1:17:00.248,0.055,-0.515
1:17:00.252,0.045,-0.485
1:17:00.256,0.035,-0.475
1:17:00.260,0.045,-0.475
1:17:00.264,0.055,-0.465
1:17:00.268,0.105,-0.46
1:17:00.272,0.16,-0.46
1:17:00.276,0.225,-0.475
1:17:00.280,0.27,-0.47
1:17:00.284,0.27,-0.465
1:17:00.288,0.28,-0.465
1:17:00.292,0.295,-0.45
1:17:00.296,0.3,-0.465
1:17:00.300,0.315,-0.445
1:17:00.304,0.3,-0.455
1:17:00.308,0.31,-0.47
1:17:00.312,0.29,-0.46
1:17:00.316,0.305,-0.445
1:17:00.320,0.315,-0.46
1:17:00.324,0.32,-0.455
1:17:00.328,0.315,-0.455
1:17:00.332,0.31,-0.455
1:17:00.336,0.335,-0.465
1:17:00.340,0.3,-0.45
1:17:00.344,0.305,-0.445
1:17:00.348,0.285,-0.455
1:17:00.352,0.28,-0.44
1:17:00.356,0.3,-0.46
1:17:00.360,0.3,-0.47
1:17:00.364,0.285,-0.465
1:17:00.368,0.285,-0.455
1:17:00.372,0.3,-0.45
1:17:00.376,0.295,-0.455
1:17:00.380,0.28,-0.48
1:17:00.384,0.29,-0.46
1:17:00.388,0.27,-0.49
1:17:00.392,0.28,-0.48
1:17:00.396,0.26,-0.475
1:17:00.400,0.265,-0.46
1:17:00.404,0.27,-0.46
1:17:00.408,0.26,-0.455
1:17:00.412,0.27,-0.47
1:17:00.416,0.26,-0.465
1:17:00.420,0.265,-0.46
1:17:00.424,0.255,-0.455
1:17:00.428,0.255,-0.46
1:17:00.432,0.225,-0.44
1:17:00.436,0.25,-0.455
1:17:00.440,0.24,-0.45
1:17:00.444,0.25,-0.435
1:17:00.448,0.255,-0.43
1:17:00.452,0.225,-0.415
1:17:00.456,0.225,-0.415
1:17:00.460,0.2,-0.4
1:17:00.464,0.235,-0.38
1:17:00.468,0.23,-0.37
1:17:00.472,0.23,-0.33
1:17:00.476,0.19,-0.335
1:17:00.480,0.175,-0.315
1:17:00.484,0.19,-0.31
1:17:00.488,0.19,-0.285
1:17:00.492,0.175,-0.285
1:17:00.496,0.19,-0.28
1:17:00.500,0.155,-0.285
1:17:00.504,0.155,-0.265
1:17:00.508,0.155,-0.26
1:17:00.512,0.165,-0.275
1:17:00.516,0.165,-0.27
1:17:00.520,0.145,-0.26
1:17:00.524,0.175,-0.26
1:17:00.528,0.155,-0.265
1:17:00.532,0.17,-0.27
1:17:00.536,0.18,-0.235
1:17:00.540,0.17,-0.27
1:17:00.544,0.18,-0.285
1:17:00.548,0.165,-0.275
1:17:00.552,0.175,-0.28
1:17:00.556,0.185,-0.29
1:17:00.560,0.195,-0.29
1:17:00.564,0.185,-0.29
1:17:00.568,0.18,-0.285
1:17:00.572,0.185,-0.31
1:17:00.576,0.18,-0.285
1:17:00.580,0.18,-0.3
1:17:00.584,0.195,-0.31
1:17:00.588,0.205,-0.31
1:17:00.592,0.195,-0.31
1:17:00.596,0.185,-0.32
1:17:00.600,0.185,-0.305
1:17:00.604,0.22,-0.31
1:17:00.608,0.21,-0.32
1:17:00.612,0.19,-0.31
1:17:00.616,0.2,-0.315
1:17:00.620,0.215,-0.32
1:17:00.624,0.195,-0.325
1:17:00.628,0.21,-0.34
1:17:00.632,0.205,-0.325
1:17:00.636,0.225,-0.355
1:17:00.640,0.205,-0.34
1:17:00.644,0.205,-0.345
1:17:00.648,0.225,-0.345
1:17:00.652,0.225,-0.345
1:17:00.656,0.225,-0.345
1:17:00.660,0.205,-0.345
1:17:00.664,0.2,-0.33
1:17:00.668,0.2,-0.34
1:17:00.672,0.21,-0.355
1:17:00.676,0.19,-0.355
1:17:00.680,0.205,-0.355
1:17:00.684,0.205,-0.355
1:17:00.688,0.2,-0.33
1:17:00.692,0.19,-0.345
1:17:00.696,0.2,-0.365
1:17:00.700,0.23,-0.35
1:17:00.704,0.2,-0.35
1:17:00.708,0.2,-0.34
1:17:00.712,0.19,-0.335
1:17:00.716,0.195,-0.335
1:17:00.720,0.185,-0.335
1:17:00.724,0.19,-0.335
1:17:00.728,0.18,-0.325
1:17:00.732,0.19,-0.32
1:17:00.736,0.195,-0.33
1:17:00.740,0.18,-0.345
1:17:00.744,0.17,-0.34
1:17:00.748,0.155,-0.345
1:17:00.752,0.17,-0.335
1:17:00.756,0.17,-0.325
1:17:00.760,0.155,-0.33
1:17:00.764,0.17,-0.32
1:17:00.768,0.15,-0.325
1:17:00.772,0.17,-0.345
1:17:00.776,0.185,-0.325
1:17:00.780,0.17,-0.33
1:17:00.784,0.165,-0.335
1:17:00.788,0.155,-0.32
1:17:00.792,0.165,-0.315
1:17:00.796,0.15,-0.325
1:17:00.800,0.17,-0.315
1:17:00.804,0.155,-0.32
1:17:00.808,0.165,-0.32
1:17:00.812,0.16,-0.315
1:17:00.816,0.165,-0.32
1:17:00.820,0.165,-0.315
1:17:00.824,0.175,-0.31
1:17:00.828,0.18,-0.305
1:17:00.832,0.175,-0.3
1:17:00.836,0.17,-0.32
1:17:00.840,0.17,-0.3
1:17:00.844,0.175,-0.31
1:17:00.848,0.185,-0.32
1:17:00.852,0.175,-0.28
1:17:00.856,0.18,-0.295
1:17:00.860,0.17,-0.295
1:17:00.864,0.17,-0.315
1:17:00.868,0.18,-0.305
1:17:00.872,0.165,-0.295
1:17:00.876,0.19,-0.3
1:17:00.880,0.185,-0.3
1:17:00.884,0.19,-0.305
1:17:00.888,0.18,-0.295
1:17:00.892,0.18,-0.295
1:17:00.896,0.2,-0.295
1:17:00.900,0.18,-0.29
1:17:00.904,0.185,-0.25
1:17:00.908,0.17,-0.225
1:17:00.912,0.16,-0.2
1:17:00.916,0.185,-0.16
1:17:00.920,0.18,-0.145
1:17:00.924,0.185,-0.12
1:17:00.928,0.205,-0.115
1:17:00.932,0.205,-0.11
1:17:00.936,0.235,-0.09
1:17:00.940,0.26,-0.1
1:17:00.944,0.29,-0.105
1:17:00.948,0.295,-0.115
1:17:00.952,0.33,-0.11
1:17:00.956,0.31,-0.1
1:17:00.960,0.29,-0.08
1:17:00.964,0.275,-0.075
1:17:00.968,0.27,-0.09
1:17:00.972,0.245,-0.125
1:17:00.976,0.23,-0.165
1:17:00.980,0.21,-0.215
1:17:00.984,0.19,-0.235
1:17:00.988,0.165,-0.225
1:17:00.992,0.125,-0.22
1:17:00.996,0.115,-0.21
1:17:01.000,0.125,-0.205
1:17:01.004,0.11,-0.21
1:17:01.008,0.11,-0.185
1:17:01.012,0.105,-0.2
1:17:01.016,0.095,-0.225
1:17:01.020,0.11,-0.245
1:17:01.024,0.125,-0.245
1:17:01.028,0.135,-0.26
1:17:01.032,0.14,-0.275
1:17:01.036,0.125,-0.3
1:17:01.040,0.105,-0.29
1:17:01.044,0.145,-0.3
1:17:01.048,0.185,-0.28
1:17:01.052,0.205,-0.275
1:17:01.056,0.215,-0.29
1:17:01.060,0.195,-0.295
1:17:01.064,0.205,-0.285
1:17:01.068,0.185,-0.305
1:17:01.072,0.16,-0.28
1:17:01.076,0.19,-0.29
1:17:01.080,0.17,-0.27
1:17:01.084,0.185,-0.275
1:17:01.088,0.19,-0.275
1:17:01.092,0.185,-0.27
1:17:01.096,0.175,-0.27
1:17:01.100,0.165,-0.26
1:17:01.104,0.17,-0.22
1:17:01.108,0.185,-0.205
1:17:01.112,0.165,-0.17
1:17:01.116,0.16,-0.155
1:17:01.120,0.165,-0.14
1:17:01.124,0.18,0.005
1:17:01.128,0.165,0.22
1:17:01.132,0.19,0.455
1:17:01.136,0.25,0.635
1:17:01.140,0.26,0.745
1:17:01.144,0.225,0.805
1:17:01.148,0.16,0.81
1:17:01.152,0.12,0.715
1:17:01.156,0.065,0.485
1:17:01.160,-0.07,0.16
1:17:01.164,-0.32,-0.035
1:17:01.168,-0.685,0.035
1:17:01.172,-1.005,0.215
1:17:01.176,-1.315,0.195
1:17:01.180,-1.425,-0.095
1:17:01.184,-1.465,-0.405
1:17:01.188,-1.305,-0.62
1:17:01.192,-0.92,-0.705
1:17:01.196,-0.405,-0.73
1:17:01.200,-0.055,-0.675
1:17:01.204,0.035,-0.565
1:17:01.208,0.05,-0.475
1:17:01.212,0.03,-0.44
1:17:01.216,0.005,-0.4
1:17:01.220,0.005,-0.42
1:17:01.224,0.045,-0.43
1:17:01.228,0.115,-0.425
1:17:01.232,0.19,-0.42
1:17:01.236,0.225,-0.425
1:17:01.240,0.23,-0.435
1:17:01.244,0.255,-0.41
1:17:01.248,0.28,-0.41
1:17:01.252,0.29,-0.41
1:17:01.256,0.285,-0.43
1:17:01.260,0.29,-0.435
1:17:01.264,0.305,-0.42
1:17:01.268,0.3,-0.435
1:17:01.272,0.29,-0.42
1:17:01.276,0.285,-0.425
1:17:01.280,0.295,-0.425
1:17:01.284,0.295,-0.405
1:17:01.288,0.31,-0.415
1:17:01.292,0.28,-0.41
1:17:01.296,0.295,-0.41
1:17:01.300,0.29,-0.41
1:17:01.304,0.29,-0.41
1:17:01.308,0.295,-0.41
1:17:01.312,0.295,-0.41
1:17:01.316,0.295,-0.41
1:17:01.320,0.28,-0.415
1:17:01.324,0.28,-0.405
1:17:01.328,0.28,-0.425
1:17:01.332,0.275,-0.425
1:17:01.336,0.28,-0.42
1:17:01.340,0.265,-0.41
1:17:01.344,0.26,-0.43
1:17:01.348,0.27,-0.435
1:17:01.352,0.265,-0.44
1:17:01.356,0.265,-0.435
1:17:01.360,0.26,-0.445
1:17:01.364,0.275,-0.44
1:17:01.368,0.255,-0.45
1:17:01.372,0.255,-0.45
1:17:01.376,0.245,-0.44
1:17:01.380,0.245,-0.45
1:17:01.384,0.235,-0.435
1:17:01.388,0.23,-0.45
1:17:01.392,0.245,-0.44
1:17:01.396,0.225,-0.44
1:17:01.400,0.205,-0.43
1:17:01.404,0.21,-0.43
1:17:01.408,0.205,-0.435
1:17:01.412,0.205,-0.405
1:17:01.416,0.195,-0.425
1:17:01.420,0.21,-0.395
1:17:01.424,0.18,-0.38
1:17:01.428,0.18,-0.36
1:17:01.432,0.165,-0.36
1:17:01.436,0.185,-0.35
1:17:01.440,0.16,-0.335
1:17:01.444,0.15,-0.34
1:17:01.448,0.17,-0.315
1:17:01.452,0.12,-0.305
1:17:01.456,0.13,-0.305
1:17:01.460,0.14,-0.3
1:17:01.464,0.13,-0.305
1:17:01.468,0.14,-0.3
1:17:01.472,0.115,-0.27
1:17:01.476,0.12,-0.275
1:17:01.480,0.12,-0.275
1:17:01.484,0.105,-0.27
1:17:01.488,0.1,-0.28
1:17:01.492,0.09,-0.265
1:17:01.496,0.105,-0.255
1:17:01.500,0.105,-0.245
1:17:01.504,0.09,-0.275
1:17:01.508,0.1,-0.24
1:17:01.512,0.105,-0.25
1:17:01.516,0.105,-0.27
1:17:01.520,0.105,-0.26
1:17:01.524,0.115,-0.27
1:17:01.528,0.1,-0.275
1:17:01.532,0.11,-0.29
1:17:01.536,0.105,-0.3
1:17:01.540,0.11,-0.285
1:17:01.544,0.115,-0.29
1:17:01.548,0.11,-0.325
1:17:01.552,0.11,-0.29
1:17:01.556,0.125,-0.29
1:17:01.560,0.11,-0.295
1:17:01.564,0.115,-0.3
1:17:01.568,0.135,-0.32
1:17:01.572,0.115,-0.31
1:17:01.576,0.12,-0.33
1:17:01.580,0.13,-0.32
1:17:01.584,0.135,-0.335
1:17:01.588,0.12,-0.32
1:17:01.592,0.14,-0.325
1:17:01.596,0.135,-0.3
1:17:01.600,0.13,-0.34
1:17:01.604,0.135,-0.335
1:17:01.608,0.15,-0.34
1:17:01.612,0.135,-0.33
1:17:01.616,0.125,-0.335
1:17:01.620,0.14,-0.335
1:17:01.624,0.13,-0.345
1:17:01.628,0.135,-0.355
1:17:01.632,0.145,-0.35
1:17:01.636,0.145,-0.34
1:17:01.640,0.105,-0.34
1:17:01.644,0.135,-0.35
1:17:01.648,0.14,-0.365
1:17:01.652,0.135,-0.365
1:17:01.656,0.115,-0.36
1:17:01.660,0.13,-0.35
1:17:01.664,0.11,-0.335
1:17:01.668,0.11,-0.36
1:17:01.672,0.105,-0.36
1:17:01.676,0.11,-0.36
1:17:01.680,0.12,-0.37
1:17:01.684,0.105,-0.36
1:17:01.688,0.095,-0.35
1:17:01.692,0.095,-0.365
1:17:01.696,0.085,-0.37
1:17:01.700,0.1,-0.37
1:17:01.704,0.105,-0.365
1:17:01.708,0.09,-0.37
1:17:01.712,0.105,-0.36
1:17:01.716,0.105,-0.36
1:17:01.720,0.09,-0.36
1:17:01.724,0.08,-0.35
1:17:01.728,0.085,-0.35
1:17:01.732,0.06,-0.34
1:17:01.736,0.08,-0.36
1:17:01.740,0.09,-0.355
1:17:01.744,0.08,-0.35
1:17:01.748,0.05,-0.35
1:17:01.752,0.07,-0.34
1:17:01.756,0.075,-0.355
1:17:01.760,0.075,-0.345
1:17:01.764,0.075,-0.355
1:17:01.768,0.055,-0.355
1:17:01.772,0.05,-0.345
1:17:01.776,0.055,-0.345
1:17:01.780,0.07,-0.35
1:17:01.784,0.055,-0.355
1:17:01.788,0.05,-0.345
1:17:01.792,0.05,-0.36
1:17:01.796,0.065,-0.345
1:17:01.800,0.035,-0.355
1:17:01.804,0.06,-0.355
1:17:01.808,0.05,-0.355
1:17:01.812,0.065,-0.355
1:17:01.816,0.055,-0.355
1:17:01.820,0.05,-0.345
1:17:01.824,0.055,-0.335
1:17:01.828,0.08,-0.345
1:17:01.832,0.075,-0.34
1:17:01.836,0.07,-0.34
1:17:01.840,0.055,-0.355
1:17:01.844,0.07,-0.355
1:17:01.848,0.04,-0.35
1:17:01.852,0.08,-0.345
1:17:01.856,0.075,-0.33
1:17:01.860,0.065,-0.345
1:17:01.864,0.065,-0.335
1:17:01.868,0.055,-0.34
1:17:01.872,0.06,-0.32
1:17:01.876,0.06,-0.315
1:17:01.880,0.055,-0.29
1:17:01.884,0.06,-0.255
1:17:01.888,0.09,-0.23
1:17:01.892,0.07,-0.18
1:17:01.896,0.06,-0.175
1:17:01.900,0.075,-0.155
1:17:01.904,0.08,-0.16
1:17:01.908,0.095,-0.16
1:17:01.912,0.13,-0.145
1:17:01.916,0.14,-0.12
1:17:01.920,0.165,-0.135
1:17:01.924,0.175,-0.14
1:17:01.928,0.16,-0.125
1:17:01.932,0.16,-0.125
1:17:01.936,0.175,-0.12
1:17:01.940,0.155,-0.13
1:17:01.944,0.145,-0.13
1:17:01.948,0.13,-0.155
1:17:01.952,0.11,-0.215
1:17:01.956,0.085,-0.255
1:17:01.960,0.07,-0.275
1:17:01.964,0.055,-0.285
1:17:01.968,0.05,-0.25
1:17:01.972,0.01,-0.245
1:17:01.976,0.005,-0.27
1:17:01.980,-0.005,-0.26
1:17:01.984,0.0,-0.28
1:17:01.988,-0.03,-0.275
1:17:01.992,0.005,-0.28
1:17:01.996,-0.02,-0.27
1:17:02.000,-0.005,-0.285
1:17:02.004,0.01,-0.32
1:17:02.008,-0.01,-0.335
1:17:02.012,0.01,-0.355
1:17:02.016,0.015,-0.345
1:17:02.020,0.025,-0.355
1:17:02.024,0.045,-0.345
1:17:02.028,0.07,-0.34
1:17:02.032,0.08,-0.335
1:17:02.036,0.065,-0.34
1:17:02.040,0.05,-0.35
1:17:02.044,0.08,-0.345
1:17:02.048,0.06,-0.335
1:17:02.052,0.03,-0.335
1:17:02.056,0.045,-0.33
1:17:02.060,0.055,-0.34
1:17:02.064,0.045,-0.355
1:17:02.068,0.065,-0.325
1:17:02.072,0.055,-0.31
1:17:02.076,0.04,-0.32
1:17:02.080,0.055,-0.31
1:17:02.084,0.045,-0.285
1:17:02.088,0.035,-0.255
1:17:02.092,0.02,-0.225
1:17:02.096,0.015,-0.2
1:17:02.100,0.035,-0.125
1:17:02.104,0.03,0.095
1:17:02.108,0.045,0.33
1:17:02.112,0.1,0.52
1:17:02.116,0.105,0.65
1:17:02.120,0.05,0.725
1:17:02.124,0.0,0.745
1:17:02.128,-0.025,0.695
1:17:02.132,-0.055,0.51
1:17:02.136,-0.17,0.235
1:17:02.140,-0.39,0.07
1:17:02.144,-0.72,0.095
1:17:02.148,-1.04,0.175
1:17:02.152,-1.28,0.04
1:17:02.156,-1.365,-0.265
1:17:02.160,-1.355,-0.535
1:17:02.164,-1.165,-0.7
1:17:02.168,-0.775,-0.765
1:17:02.172,-0.36,-0.77
1:17:02.176,-0.115,-0.695
1:17:02.180,-0.065,-0.58
1:17:02.184,-0.09,-0.505
1:17:02.188,-0.12,-0.5
1:17:02.192,-0.12,-0.48
1:17:02.196,-0.12,-0.485
1:17:02.200,-0.085,-0.49
1:17:02.204,-0.025,-0.5
1:17:02.208,0.025,-0.49
1:17:02.212,0.08,-0.51
1:17:02.216,0.095,-0.49
1:17:02.220,0.105,-0.48
1:17:02.224,0.125,-0.48
1:17:02.228,0.13,-0.475
1:17:02.232,0.11,-0.49
1:17:02.236,0.1,-0.505
1:17:02.240,0.125,-0.495
1:17:02.244,0.1,-0.485
1:17:02.248,0.105,-0.51
1:17:02.252,0.12,-0.505
1:17:02.256,0.13,-0.5
1:17:02.260,0.135,-0.49
1:17:02.264,0.115,-0.47
1:17:02.268,0.14,-0.495
1:17:02.272,0.135,-0.5
1:17:02.276,0.145,-0.505
1:17:02.280,0.13,-0.5
1:17:02.284,0.115,-0.51
1:17:02.288,0.12,-0.5
1:17:02.292,0.115,-0.5
1:17:02.296,0.115,-0.495
1:17:02.300,0.095,-0.5
1:17:02.304,0.105,-0.51
1:17:02.308,0.125,-0.52
1:17:02.312,0.09,-0.525
1:17:02.316,0.105,-0.53
1:17:02.320,0.11,-0.53
1:17:02.324,0.12,-0.515
1:17:02.328,0.09,-0.515
1:17:02.332,0.08,-0.51
1:17:02.336,0.085,-0.52
1:17:02.340,0.065,-0.535
1:17:02.344,0.08,-0.515
1:17:02.348,0.07,-0.54
1:17:02.352,0.08,-0.54
1:17:02.356,0.07,-0.53
1:17:02.360,0.07,-0.535
1:17:02.364,0.075,-0.53
1:17:02.368,0.075,-0.52
1:17:02.372,0.065,-0.5
1:17:02.376,0.05,-0.52
1:17:02.380,0.07,-0.515
1:17:02.384,0.06,-0.505
1:17:02.388,0.05,-0.485
1:17:02.392,0.03,-0.505
1:17:02.396,0.01,-0.49
1:17:02.400,0.02,-0.47
1:17:02.404,0.02,-0.45
1:17:02.408,0.0,-0.425
1:17:02.412,0.02,-0.425
1:17:02.416,0.015,-0.415
1:17:02.420,0.0,-0.38
1:17:02.424,-0.01,-0.36
1:17:02.428,-0.01,-0.36
1:17:02.432,0.0,-0.36
1:17:02.436,-0.005,-0.34
1:17:02.440,-0.035,-0.33
1:17:02.444,-0.03,-0.31
1:17:02.448,-0.045,-0.31
1:17:02.452,-0.04,-0.29
1:17:02.456,-0.025,-0.315
1:17:02.460,-0.04,-0.31
1:17:02.464,-0.045,-0.31
1:17:02.468,-0.04,-0.32
1:17:02.472,-0.055,-0.32
1:17:02.476,-0.03,-0.315
1:17:02.480,-0.015,-0.3
1:17:02.484,-0.01,-0.33
1:17:02.488,-0.025,-0.315
1:17:02.492,-0.01,-0.32
1:17:02.496,-0.03,-0.33
1:17:02.500,-0.005,-0.32
1:17:02.504,-0.025,-0.33
1:17:02.508,-0.015,-0.32
1:17:02.512,-0.02,-0.325
1:17:02.516,0.0,-0.33
1:17:02.520,-0.02,-0.32
1:17:02.524,-0.005,-0.34
1:17:02.528,0.0,-0.345
1:17:02.532,-0.02,-0.32
1:17:02.536,0.0,-0.34
1:17:02.540,-0.01,-0.335
1:17:02.544,0.0,-0.35
1:17:02.548,0.005,-0.35
1:17:02.552,0.0,-0.34
1:17:02.556,0.0,-0.34
1:17:02.560,0.0,-0.335
1:17:02.564,-0.005,-0.345
1:17:02.568,0.0,-0.345
1:17:02.572,0.02,-0.36
1:17:02.576,0.01,-0.345
1:17:02.580,-0.015,-0.34
1:17:02.584,-0.01,-0.36
1:17:02.588,0.01,-0.355
1:17:02.592,-0.01,-0.345
1:17:02.596,-0.015,-0.355
1:17:02.600,0.0,-0.355
1:17:02.604,0.0,-0.35
1:17:02.608,0.02,-0.37
1:17:02.612,-0.005,-0.35
1:17:02.616,0.005,-0.34
1:17:02.620,-0.005,-0.37
1:17:02.624,-0.005,-0.34
1:17:02.628,0.01,-0.36
1:17:02.632,-0.005,-0.34
1:17:02.636,0.0,-0.345
1:17:02.640,0.0,-0.35
1:17:02.644,0.005,-0.34
1:17:02.648,-0.02,-0.36
1:17:02.652,-0.015,-0.36
1:17:02.656,-0.01,-0.345
1:17:02.660,-0.025,-0.36
1:17:02.664,0.0,-0.355
1:17:02.668,0.0,-0.345
1:17:02.672,0.0,-0.36
1:17:02.676,-0.01,-0.34
1:17:02.680,0.015,-0.35
1:17:02.684,0.01,-0.365
1:17:02.688,-0.005,-0.365
1:17:02.692,-0.01,-0.365
1:17:02.696,-0.01,-0.36
1:17:02.700,-0.025,-0.365
1:17:02.704,-0.005,-0.345
1:17:02.708,-0.01,-0.37
1:17:02.712,-0.025,-0.37
1:17:02.716,-0.015,-0.355
1:17:02.720,-0.01,-0.34
1:17:02.724,-0.015,-0.37
1:17:02.728,0.0,-0.34
1:17:02.732,-0.02,-0.335
1:17:02.736,-0.025,-0.345
1:17:02.740,0.005,-0.36
1:17:02.744,0.0,-0.355
1:17:02.748,0.005,-0.365
1:17:02.752,-0.015,-0.345
1:17:02.756,-0.015,-0.345
1:17:02.760,-0.025,-0.34
1:17:02.764,-0.015,-0.36
1:17:02.768,-0.02,-0.345
1:17:02.772,-0.015,-0.355
1:17:02.776,0.0,-0.365
1:17:02.780,-0.01,-0.35
1:17:02.784,0.005,-0.36
1:17:02.788,-0.015,-0.35
1:17:02.792,-0.005,-0.355
1:17:02.796,0.0,-0.345
1:17:02.800,0.0,-0.365
1:17:02.804,0.01,-0.355
1:17:02.808,-0.01,-0.35
1:17:02.812,0.0,-0.35
1:17:02.816,0.0,-0.33
1:17:02.820,0.005,-0.365
1:17:02.824,0.0,-0.33
1:17:02.828,-0.015,-0.31
1:17:02.832,-0.01,-0.26
1:17:02.836,0.0,-0.235
1:17:02.840,0.0,-0.19
1:17:02.844,-0.01,-0.17
1:17:02.848,0.0,-0.17
1:17:02.852,0.005,-0.17
1:17:02.856,0.03,-0.16
1:17:02.860,0.065,-0.14
1:17:02.864,0.085,-0.145
1:17:02.868,0.105,-0.145
1:17:02.872,0.12,-0.16
1:17:02.876,0.12,-0.15
1:17:02.880,0.125,-0.145
1:17:02.884,0.1,-0.145
1:17:02.888,0.1,-0.125
1:17:02.892,0.085,-0.16
1:17:02.896,0.06,-0.2
1:17:02.900,0.03,-0.24
1:17:02.904,0.035,-0.28
1:17:02.908,0.01,-0.3
1:17:02.912,0.0,-0.285
1:17:02.916,-0.025,-0.265
1:17:02.920,-0.03,-0.245
1:17:02.924,-0.055,-0.235
1:17:02.928,-0.06,-0.245
1:17:02.932,-0.055,-0.255
1:17:02.936,-0.05,-0.265
1:17:02.940,-0.045,-0.28
1:17:02.944,-0.04,-0.285
1:17:02.948,-0.035,-0.275
1:17:02.952,-0.01,-0.305
1:17:02.956,-0.02,-0.335
1:17:02.960,-0.015,-0.33
1:17:02.964,-0.02,-0.345
1:17:02.968,0.02,-0.34
1:17:02.972,0.02,-0.325
1:17:02.976,0.04,-0.335
1:17:02.980,0.04,-0.33
1:17:02.984,0.04,-0.335
1:17:02.988,0.02,-0.335
1:17:02.992,0.04,-0.325
1:17:02.996,0.04,-0.33
1:17:03.000,0.03,-0.315
1:17:03.004,0.035,-0.33
1:17:03.008,0.03,-0.29
1:17:03.012,0.03,-0.3
1:17:03.016,0.005,-0.305
1:17:03.020,0.005,-0.305
1:17:03.024,0.025,-0.295
1:17:03.028,0.02,-0.27
1:17:03.032,0.01,-0.23
1:17:03.036,0.04,-0.205
1:17:03.040,0.015,-0.225
1:17:03.044,0.01,-0.145
1:17:03.048,0.015,-0.015
1:17:03.052,0.01,0.23
1:17:03.056,0.05,0.46
1:17:03.060,0.085,0.655
1:17:03.064,0.09,0.78
1:17:03.068,0.04,0.875
1:17:03.072,0.0,0.89
1:17:03.076,-0.025,0.8
1:17:03.080,-0.075,0.55
1:17:03.084,-0.195,0.25
1:17:03.088,-0.42,0.055
1:17:03.092,-0.71,0.095
1:17:03.096,-1.015,0.17
1:17:03.100,-1.225,0.025
1:17:03.104,-1.32,-0.29
1:17:03.108,-1.325,-0.55
1:17:03.112,-1.105,-0.71
1:17:03.116,-0.735,-0.765
1:17:03.120,-0.34,-0.755
1:17:03.124,-0.125,-0.635
1:17:03.128,-0.085,-0.545
1:17:03.132,-0.11,-0.49
1:17:03.136,-0.115,-0.46
1:17:03.140,-0.11,-0.44
1:17:03.144,-0.105,-0.45
1:17:03.148,-0.05,-0.47
1:17:03.152,0.005,-0.46
1:17:03.156,0.085,-0.455
1:17:03.160,0.095,-0.455
1:17:03.164,0.105,-0.445
1:17:03.168,0.125,-0.45
1:17:03.172,0.12,-0.44
1:17:03.176,0.1,-0.45
1:17:03.180,0.13,-0.46
1:17:03.184,0.14,-0.45
1:17:03.188,0.13,-0.46
1:17:03.192,0.14,-0.45
1:17:03.196,0.12,-0.445
1:17:03.200,0.14,-0.45
1:17:03.204,0.145,-0.43
1:17:03.208,0.135,-0.425
1:17:03.212,0.145,-0.42
1:17:03.216,0.135,-0.43
1:17:03.220,0.135,-0.43
1:17:03.224,0.15,-0.44
1:17:03.228,0.13,-0.435
1:17:03.232,0.145,-0.445
1:17:03.236,0.145,-0.435
1:17:03.240,0.135,-0.44
1:17:03.244,0.165,-0.455
1:17:03.248,0.135,-0.45
1:17:03.252,0.125,-0.435
1:17:03.256,0.14,-0.45
1:17:03.260,0.135,-0.445
1:17:03.264,0.135,-0.44
1:17:03.268,0.14,-0.455
1:17:03.272,0.135,-0.45
1:17:03.276,0.125,-0.47
1:17:03.280,0.125,-0.455
1:17:03.284,0.115,-0.455
1:17:03.288,0.115,-0.455
1:17:03.292,0.135,-0.46
1:17:03.296,0.125,-0.46
1:17:03.300,0.1,-0.46
1:17:03.304,0.125,-0.46
1:17:03.308,0.13,-0.46
1:17:03.312,0.115,-0.47
1:17:03.316,0.12,-0.46
1:17:03.320,0.11,-0.44
1:17:03.324,0.1,-0.45
1:17:03.328,0.105,-0.45
1:17:03.332,0.09,-0.445
1:17:03.336,0.1,-0.425
1:17:03.340,0.08,-0.405
1:17:03.344,0.08,-0.385
1:17:03.348,0.1,-0.38
1:17:03.352,0.06,-0.36
1:17:03.356,0.08,-0.35
1:17:03.360,0.055,-0.335
1:17:03.364,0.06,-0.325
1:17:03.368,0.06,-0.3
1:17:03.372,0.06,-0.29
1:17:03.376,0.045,-0.275
1:17:03.380,0.045,-0.27
1:17:03.384,0.055,-0.245
1:17:03.388,0.04,-0.255
1:17:03.392,0.025,-0.25
1:17:03.396,0.01,-0.245
1:17:03.400,0.03,-0.235
1:17:03.404,0.03,-0.255
1:17:03.408,0.03,-0.245
1:17:03.412,0.02,-0.225
1:17:03.416,0.035,-0.23
1:17:03.420,0.005,-0.225
1:17:03.424,0.03,-0.225
1:17:03.428,0.035,-0.24
1:17:03.432,0.02,-0.235
1:17:03.436,0.02,-0.23
1:17:03.440,0.04,-0.25
1:17:03.444,0.035,-0.235
1:17:03.448,0.045,-0.245
1:17:03.452,0.03,-0.23
1:17:03.456,0.025,-0.25
1:17:03.460,0.025,-0.245
1:17:03.464,0.04,-0.25
1:17:03.468,0.035,-0.255
1:17:03.472,0.035,-0.27
1:17:03.476,0.035,-0.28
1:17:03.480,0.025,-0.285
1:17:03.484,0.03,-0.27
1:17:03.488,0.05,-0.275
1:17:03.492,0.05,-0.275
1:17:03.496,0.055,-0.29
1:17:03.500,0.06,-0.265
1:17:03.504,0.055,-0.28
1:17:03.508,0.055,-0.27
1:17:03.512,0.065,-0.285
1:17:03.516,0.065,-0.28
1:17:03.520,0.075,-0.29
1:17:03.524,0.055,-0.27
1:17:03.528,0.06,-0.295
1:17:03.532,0.08,-0.285
1:17:03.536,0.075,-0.3
1:17:03.540,0.065,-0.28
1:17:03.544,0.075,-0.3
1:17:03.548,0.075,-0.285
1:17:03.552,0.065,-0.28
1:17:03.556,0.07,-0.28
1:17:03.560,0.065,-0.3
1:17:03.564,0.05,-0.295
1:17:03.568,0.065,-0.295
1:17:03.572,0.065,-0.29
1:17:03.576,0.065,-0.3
1:17:03.580,0.07,-0.295
1:17:03.584,0.055,-0.295
1:17:03.588,0.075,-0.31
1:17:03.592,0.06,-0.29
1:17:03.596,0.055,-0.295
1:17:03.600,0.07,-0.3
1:17:03.604,0.06,-0.315
1:17:03.608,0.06,-0.29
1:17:03.612,0.07,-0.305
1:17:03.616,0.06,-0.29
1:17:03.620,0.07,-0.3
1:17:03.624,0.05,-0.31
1:17:03.628,0.035,-0.305
1:17:03.632,0.055,-0.31
1:17:03.636,0.04,-0.3
1:17:03.640,0.05,-0.305
1:17:03.644,0.075,-0.3
1:17:03.648,0.06,-0.29
1:17:03.652,0.055,-0.29
1:17:03.656,0.04,-0.275
1:17:03.660,0.04,-0.29
1:17:03.664,0.05,-0.285
1:17:03.668,0.045,-0.3
1:17:03.672,0.035,-0.295
1:17:03.676,0.05,-0.295
1:17:03.680,0.04,-0.275
1:17:03.684,0.045,-0.275
1:17:03.688,0.055,-0.3
1:17:03.692,0.055,-0.295
1:17:03.696,0.05,-0.29
1:17:03.700,0.05,-0.305
1:17:03.704,0.055,-0.305
1:17:03.708,0.06,-0.285
1:17:03.712,0.065,-0.305
1:17:03.716,0.055,-0.295
1:17:03.720,0.05,-0.295
1:17:03.724,0.025,-0.3
1:17:03.728,0.04,-0.3
1:17:03.732,0.04,-0.3
1:17:03.736,0.05,-0.28
1:17:03.740,0.03,-0.305
1:17:03.744,0.06,-0.3
1:17:03.748,0.05,-0.29
1:17:03.752,0.05,-0.28
1:17:03.756,0.05,-0.285
1:17:03.760,0.05,-0.28
1:17:03.764,0.055,-0.28
1:17:03.768,0.045,-0.28
1:17:03.772,0.04,-0.27
1:17:03.776,0.035,-0.25
1:17:03.780,0.02,-0.215
1:17:03.784,0.06,-0.19
1:17:03.788,0.06,-0.135
1:17:03.792,0.055,-0.115
1:17:03.796,0.04,-0.09
1:17:03.800,0.075,-0.105
1:17:03.804,0.09,-0.095
1:17:03.808,0.095,-0.09
1:17:03.812,0.115,-0.09
1:17:03.816,0.145,-0.11
1:17:03.820,0.155,-0.095
1:17:03.824,0.19,-0.08
1:17:03.828,0.165,-0.09
1:17:03.832,0.16,-0.085
1:17:03.836,0.15,-0.07
1:17:03.840,0.14,-0.09
1:17:03.844,0.115,-0.12
1:17:03.848,0.075,-0.17
1:17:03.852,0.08,-0.2
1:17:03.856,0.06,-0.22
1:17:03.860,0.015,-0.205
1:17:03.864,0.025,-0.2
1:17:03.868,0.0,-0.19
1:17:03.872,-0.01,-0.185
1:17:03.876,-0.025,-0.2
1:17:03.880,-0.025,-0.19
1:17:03.884,-0.01,-0.21
1:17:03.888,0.0,-0.235
1:17:03.892,0.01,-0.2
1:17:03.896,0.015,-0.235
1:17:03.900,0.025,-0.25
1:17:03.904,0.04,-0.255
1:17:03.908,0.04,-0.29
1:17:03.912,0.03,-0.29
1:17:03.916,0.04,-0.285
1:17:03.920,0.055,-0.275
1:17:03.924,0.08,-0.265
1:17:03.928,0.085,-0.28
1:17:03.932,0.08,-0.27
1:17:03.936,0.085,-0.27
1:17:03.940,0.055,-0.285
1:17:03.944,0.07,-0.27
1:17:03.948,0.075,-0.27
1:17:03.952,0.075,-0.26
1:17:03.956,0.075,-0.26
1:17:03.960,0.085,-0.23
1:17:03.964,0.075,-0.25
1:17:03.968,0.065,-0.23
1:17:03.972,0.075,-0.24
1:17:03.976,0.095,-0.235
1:17:03.980,0.09,-0.21
1:17:03.984,0.07,-0.18
1:17:03.988,0.07,-0.14
1:17:03.992,0.085,-0.14
1:17:03.996,0.085,-0.08
1:17:04.000,0.08,0.075
1:17:04.004,0.095,0.315
1:17:04.008,0.125,0.585
1:17:04.012,0.15,0.76
1:17:04.016,0.17,0.87
1:17:04.020,0.115,0.94
1:17:04.024,0.045,0.92
1:17:04.028,0.03,0.765
1:17:04.032,-0.035,0.47
1:17:04.036,-0.165,0.14
1:17:04.040,-0.45,0.01
1:17:04.044,-0.8,0.135
1:17:04.048,-1.12,0.265
1:17:04.052,-1.375,0.115
1:17:04.056,-1.49,-0.205
1:17:04.060,-1.46,-0.48
1:17:04.064,-1.225,-0.655
1:17:04.068,-0.795,-0.7
1:17:04.072,-0.35,-0.695
1:17:04.076,-0.085,-0.6
1:17:04.080,-0.05,-0.495
1:17:04.084,-0.07,-0.415
1:17:04.088,-0.05,-0.4
1:17:04.092,-0.07,-0.395
1:17:04.096,-0.075,-0.38
1:17:04.100,-0.01,-0.41
1:17:04.104,0.05,-0.395
1:17:04.108,0.085,-0.375
1:17:04.112,0.14,-0.385
1:17:04.116,0.165,-0.385
1:17:04.120,0.175,-0.39
1:17:04.124,0.17,-0.385
1:17:04.128,0.165,-0.38
1:17:04.132,0.17,-0.39
1:17:04.136,0.19,-0.38
1:17:04.140,0.19,-0.365
1:17:04.144,0.19,-0.37
1:17:04.148,0.195,-0.36
1:17:04.152,0.2,-0.355
1:17:04.156,0.195,-0.375
1:17:04.160,0.18,-0.35
1:17:04.164,0.19,-0.365
1:17:04.168,0.19,-0.37
1:17:04.172,0.19,-0.37
1:17:04.176,0.205,-0.355
1:17:04.180,0.195,-0.355
1:17:04.184,0.195,-0.34
1:17:04.188,0.2,-0.36
1:17:04.192,0.205,-0.37
1:17:04.196,0.2,-0.375
1:17:04.200,0.195,-0.39
1:17:04.204,0.18,-0.35
1:17:04.208,0.195,-0.36
1:17:04.212,0.17,-0.39
1:17:04.216,0.175,-0.375
1:17:04.220,0.185,-0.365
1:17:04.224,0.19,-0.37
1:17:04.228,0.175,-0.375
1:17:04.232,0.175,-0.375
1:17:04.236,0.195,-0.375
1:17:04.240,0.18,-0.37
1:17:04.244,0.17,-0.37
1:17:04.248,0.17,-0.37
1:17:04.252,0.15,-0.385
1:17:04.256,0.135,-0.36
1:17:04.260,0.155,-0.355
1:17:04.264,0.165,-0.35
1:17:04.268,0.15,-0.345
1:17:04.272,0.155,-0.34
1:17:04.276,0.15,-0.335
1:17:04.280,0.155,-0.335
1:17:04.284,0.155,-0.3
1:17:04.288,0.13,-0.305
1:17:04.292,0.125,-0.285
1:17:04.296,0.15,-0.28
1:17:04.300,0.135,-0.275
1:17:04.304,0.145,-0.255
1:17:04.308,0.105,-0.255
1:17:04.312,0.1,-0.23
1:17:04.316,0.095,-0.225
1:17:04.320,0.1,-0.205
1:17:04.324,0.085,-0.195
1:17:04.328,0.085,-0.175
1:17:04.332,0.075,-0.18
1:17:04.336,0.085,-0.185
1:17:04.340,0.07,-0.15
1:17:04.344,0.065,-0.145
1:17:04.348,0.07,-0.155
1:17:04.352,0.075,-0.15
1:17:04.356,0.035,-0.145
1:17:04.360,0.065,-0.135
1:17:04.364,0.085,-0.14
1:17:04.368,0.07,-0.14
1:17:04.372,0.07,-0.125
1:17:04.376,0.055,-0.155
1:17:04.380,0.065,-0.155
1:17:04.384,0.065,-0.145
1:17:04.388,0.055,-0.14
1:17:04.392,0.075,-0.155
1:17:04.396,0.065,-0.17
1:17:04.400,0.085,-0.185
1:17:04.404,0.065,-0.16
1:17:04.408,0.05,-0.17
1:17:04.412,0.08,-0.18
1:17:04.416,0.065,-0.16
1:17:04.420,0.07,-0.18
1:17:04.424,0.07,-0.185
1:17:04.428,0.07,-0.2
1:17:04.432,0.07,-0.19
1:17:04.436,0.085,-0.185
1:17:04.440,0.075,-0.19
1:17:04.444,0.09,-0.195
1:17:04.448,0.095,-0.185
1:17:04.452,0.08,-0.205
1:17:04.456,0.095,-0.19
1:17:04.460,0.105,-0.185
1:17:04.464,0.105,-0.195
1:17:04.468,0.115,-0.185
1:17:04.472,0.085,-0.19
1:17:04.476,0.105,-0.18
1:17:04.480,0.095,-0.19
1:17:04.484,0.125,-0.2
1:17:04.488,0.09,-0.19
1:17:04.492,0.09,-0.205
1:17:04.496,0.095,-0.19
1:17:04.500,0.105,-0.215
1:17:04.504,0.075,-0.18
1:17:04.508,0.08,-0.195
1:17:04.512,0.1,-0.205
1:17:04.516,0.085,-0.2
1:17:04.520,0.1,-0.19
1:17:04.524,0.105,-0.215
1:17:04.528,0.09,-0.2
1:17:04.532,0.085,-0.195
1:17:04.536,0.095,-0.18
1:17:04.540,0.075,-0.2
1:17:04.544,0.07,-0.205
1:17:04.548,0.08,-0.21
1:17:04.552,0.095,-0.195
1:17:04.556,0.095,-0.19
1:17:04.560,0.08,-0.2
1:17:04.564,0.08,-0.18
1:17:04.568,0.08,-0.195
1:17:04.572,0.065,-0.18
1:17:04.576,0.075,-0.185
1:17:04.580,0.08,-0.19
1:17:04.584,0.07,-0.205
1:17:04.588,0.095,-0.2
1:17:04.592,0.1,-0.18
1:17:04.596,0.095,-0.19
1:17:04.600,0.05,-0.17
1:17:04.604,0.07,-0.2
1:17:04.608,0.055,-0.185
1:17:04.612,0.05,-0.175
1:17:04.616,0.065,-0.19
1:17:04.620,0.075,-0.19
1:17:04.624,0.085,-0.195
1:17:04.628,0.07,-0.185
1:17:04.632,0.065,-0.19
1:17:04.636,0.06,-0.17
1:17:04.640,0.045,-0.195
1:17:04.644,0.065,-0.17
1:17:04.648,0.075,-0.175
1:17:04.652,0.07,-0.18
1:17:04.656,0.06,-0.195
1:17:04.660,0.075,-0.195
1:17:04.664,0.06,-0.175
1:17:04.668,0.045,-0.195
1:17:04.672,0.04,-0.2
1:17:04.676,0.055,-0.195
1:17:04.680,0.05,-0.19
1:17:04.684,0.05,-0.185
1:17:04.688,0.05,-0.185
1:17:04.692,0.055,-0.205
1:17:04.696,0.05,-0.2
1:17:04.700,0.04,-0.18
1:17:04.704,0.05,-0.195
1:17:04.708,0.04,-0.19
1:17:04.712,0.065,-0.195
1:17:04.716,0.06,-0.18
1:17:04.720,0.06,-0.17
1:17:04.724,0.05,-0.13
1:17:04.728,0.045,-0.085
1:17:04.732,0.065,-0.06
1:17:04.736,0.055,-0.03
1:17:04.740,0.05,-0.02
1:17:04.744,0.07,-0.035
1:17:04.748,0.085,-0.035
1:17:04.752,0.105,-0.035
1:17:04.756,0.14,-0.02
1:17:04.760,0.16,-0.025
1:17:04.764,0.165,-0.03
1:17:04.768,0.195,-0.005
1:17:04.772,0.17,0.0
1:17:04.776,0.165,0.02
1:17:04.780,0.14,0.005
1:17:04.784,0.11,-0.035
1:17:04.788,0.085,-0.08
1:17:04.792,0.08,-0.12
1:17:04.796,0.06,-0.155
1:17:04.800,0.045,-0.14
1:17:04.804,0.0,-0.135
1:17:04.808,0.0,-0.125
1:17:04.812,-0.005,-0.125
1:17:04.816,-0.03,-0.12
1:17:04.820,-0.01,-0.11
1:17:04.824,-0.025,-0.135
1:17:04.828,-0.03,-0.14
1:17:04.832,-0.005,-0.155
1:17:04.836,-0.02,-0.155
1:17:04.840,0.02,-0.165
1:17:04.844,0.0,-0.19
1:17:04.848,0.03,-0.2
1:17:04.852,0.0,-0.21
1:17:04.856,0.02,-0.21
1:17:04.860,0.055,-0.19
1:17:04.864,0.065,-0.2
1:17:04.868,0.055,-0.2
1:17:04.872,0.07,-0.205
1:17:04.876,0.06,-0.215
1:17:04.880,0.05,-0.23
1:17:04.884,0.04,-0.21
1:17:04.888,0.05,-0.215
1:17:04.892,0.06,-0.2
1:17:04.896,0.04,-0.19
1:17:04.900,0.05,-0.185
1:17:04.904,0.025,-0.2
1:17:04.908,0.06,-0.19
1:17:04.912,0.025,-0.15
1:17:04.916,0.06,-0.13
1:17:04.920,0.05,-0.11
1:17:04.924,0.05,-0.08
1:17:04.928,0.045,-0.09
1:17:04.932,0.055,-0.015
1:17:04.936,0.085,0.17
1:17:04.940,0.06,0.42
1:17:04.944,0.105,0.615
1:17:04.948,0.105,0.765
1:17:04.952,0.115,0.84
1:17:04.956,0.06,0.865
1:17:04.960,0.025,0.795
1:17:04.964,-0.02,0.63
1:17:04.968,-0.12,0.35
1:17:04.972,-0.325,0.14
1:17:04.976,-0.625,0.185
1:17:04.980,-0.975,0.295
1:17:04.984,-1.245,0.23
1:17:04.988,-1.41,-0.075
1:17:04.992,-1.425,-0.385
1:17:04.996,-1.27,-0.595
1:17:05.000,-0.895,-0.65
1:17:05.004,-0.42,-0.635
1:17:05.008,-0.125,-0.56
1:17:05.012,-0.04,-0.445
1:17:05.016,-0.05,-0.37
1:17:05.020,-0.075,-0.35
1:17:05.024,-0.085,-0.335
1:17:05.028,-0.085,-0.34
1:17:05.032,-0.05,-0.345
1:17:05.036,0.015,-0.35
1:17:05.040,0.07,-0.33
1:17:05.044,0.115,-0.325
1:17:05.048,0.16,-0.345
1:17:05.052,0.135,-0.36
1:17:05.056,0.135,-0.375
1:17:05.060,0.125,-0.36
1:17:05.064,0.14,-0.36
1:17:05.068,0.135,-0.36
1:17:05.072,0.145,-0.365
1:17:05.076,0.16,-0.365
1:17:05.080,0.155,-0.365
1:17:05.084,0.16,-0.365
1:17:05.088,0.16,-0.35
1:17:05.092,0.155,-0.32
1:17:05.096,0.165,-0.335
1:17:05.100,0.15,-0.355
1:17:05.104,0.15,-0.35
1:17:05.108,0.13,-0.35
1:17:05.112,0.155,-0.345
1:17:05.116,0.145,-0.345
1:17:05.120,0.15,-0.35
1:17:05.124,0.13,-0.35
1:17:05.128,0.14,-0.375
1:17:05.132,0.14,-0.365
1:17:05.136,0.14,-0.345
1:17:05.140,0.14,-0.385
1:17:05.144,0.13,-0.365
1:17:05.148,0.11,-0.375
1:17:05.152,0.145,-0.375
1:17:05.156,0.14,-0.38
1:17:05.160,0.125,-0.38
1:17:05.164,0.105,-0.38
1:17:05.168,0.12,-0.39
1:17:05.172,0.1,-0.38
1:17:05.176,0.09,-0.375
1:17:05.180,0.115,-0.395
1:17:05.184,0.105,-0.375
1:17:05.188,0.095,-0.365
1:17:05.192,0.1,-0.355
1:17:05.196,0.09,-0.375
1:17:05.200,0.095,-0.38
1:17:05.204,0.1,-0.375
1:17:05.208,0.09,-0.365
1:17:05.212,0.09,-0.355
1:17:05.216,0.11,-0.36
1:17:05.220,0.08,-0.34
1:17:05.224,0.06,-0.335
1:17:05.228,0.075,-0.33
1:17:05.232,0.065,-0.29
1:17:05.236,0.07,-0.28
1:17:05.240,0.06,-0.27
1:17:05.244,0.05,-0.255
1:17:05.248,0.045,-0.22
1:17:05.252,0.045,-0.235
1:17:05.256,0.04,-0.215
1:17:05.260,0.03,-0.19
1:17:05.264,0.02,-0.18
1:17:05.268,0.015,-0.2
1:17:05.272,0.02,-0.2
1:17:05.276,0.0,-0.18
1:17:05.280,0.0,-0.18
1:17:05.284,0.005,-0.16
1:17:05.288,0.01,-0.175
1:17:05.292,0.02,-0.195
1:17:05.296,0.0,-0.185
1:17:05.300,0.0,-0.185
1:17:05.304,-0.005,-0.19
1:17:05.308,0.02,-0.18
1:17:05.312,0.01,-0.17
1:17:05.316,0.02,-0.2
1:17:05.320,0.02,-0.18
1:17:05.324,0.01,-0.205
1:17:05.328,0.02,-0.21
1:17:05.332,0.035,-0.21
1:17:05.336,0.02,-0.2
1:17:05.340,0.02,-0.21
1:17:05.344,0.025,-0.23
1:17:05.348,0.025,-0.225
1:17:05.352,0.03,-0.22
1:17:05.356,0.035,-0.225
1:17:05.360,0.03,-0.24
1:17:05.364,0.045,-0.23
1:17:05.368,0.045,-0.225
1:17:05.372,0.025,-0.23
1:17:05.376,0.035,-0.245
1:17:05.380,0.05,-0.245
1:17:05.384,0.025,-0.24
1:17:05.388,0.04,-0.245
1:17:05.392,0.03,-0.23
1:17:05.396,0.005,-0.24
1:17:05.400,0.025,-0.245
1:17:05.404,0.035,-0.255
1:17:05.408,0.045,-0.27
1:17:05.412,0.015,-0.275
1:17:05.416,0.015,-0.265
1:17:05.420,0.03,-0.245
1:17:05.424,0.02,-0.26
1:17:05.428,0.045,-0.275
1:17:05.432,0.025,-0.28
1:17:05.436,0.03,-0.28
1:17:05.440,0.005,-0.27
1:17:05.444,0.03,-0.27
1:17:05.448,0.03,-0.285
1:17:05.452,0.03,-0.295
1:17:05.456,0.015,-0.29
1:17:05.460,0.005,-0.305
1:17:05.464,0.005,-0.27
1:17:05.468,-0.005,-0.27
1:17:05.472,0.02,-0.27
1:17:05.476,-0.01,-0.255
1:17:05.480,0.0,-0.27
1:17:05.484,0.0,-0.275
1:17:05.488,-0.015,-0.28
1:17:05.492,-0.005,-0.3
1:17:05.496,-0.005,-0.29
1:17:05.500,0.005,-0.275
1:17:05.504,-0.01,-0.265
1:17:05.508,-0.015,-0.265
1:17:05.512,-0.005,-0.285
1:17:05.516,-0.035,-0.29
1:17:05.520,-0.015,-0.285
1:17:05.524,-0.025,-0.295
1:17:05.528,-0.02,-0.295
1:17:05.532,-0.04,-0.285
1:17:05.536,-0.025,-0.315
1:17:05.540,0.0,-0.29
1:17:05.544,-0.01,-0.28
1:17:05.548,-0.015,-0.29
1:17:05.552,-0.02,-0.27
1:17:05.556,-0.02,-0.28
1:17:05.560,-0.025,-0.295
1:17:05.564,-0.03,-0.305
1:17:05.568,-0.045,-0.285
1:17:05.572,-0.035,-0.275
1:17:05.576,-0.035,-0.285
1:17:05.580,-0.035,-0.28
1:17:05.584,-0.045,-0.28
1:17:05.588,-0.03,-0.295
1:17:05.592,-0.045,-0.3
1:17:05.596,-0.045,-0.285
1:17:05.600,-0.01,-0.275
1:17:05.604,-0.035,-0.295
1:17:05.608,-0.035,-0.29
1:17:05.612,-0.04,-0.3
1:17:05.616,-0.065,-0.305
1:17:05.620,-0.05,-0.295
1:17:05.624,-0.04,-0.295
1:17:05.628,-0.03,-0.3
1:17:05.632,-0.045,-0.29
1:17:05.636,-0.035,-0.265
1:17:05.640,-0.05,-0.255
1:17:05.644,-0.045,-0.23
1:17:05.648,-0.05,-0.195
1:17:05.652,-0.04,-0.17
1:17:05.656,-0.04,-0.135
1:17:05.660,-0.04,-0.13
1:17:05.664,-0.005,-0.115
1:17:05.668,0.0,-0.115
1:17:05.672,0.01,-0.115
1:17:05.676,0.035,-0.12
1:17:05.680,0.055,-0.125
1:17:05.684,0.065,-0.125
1:17:05.688,0.07,-0.135
1:17:05.692,0.065,-0.11
1:17:05.696,0.06,-0.09
1:17:05.700,0.035,-0.08
1:17:05.704,0.035,-0.1
1:17:05.708,0.0,-0.14
1:17:05.712,0.015,-0.195
1:17:05.716,-0.01,-0.235
1:17:05.720,-0.045,-0.25
1:17:05.724,-0.045,-0.265
1:17:05.728,-0.05,-0.245
1:17:05.732,-0.07,-0.255
1:17:05.736,-0.095,-0.24
1:17:05.740,-0.095,-0.25
1:17:05.744,-0.12,-0.26
1:17:05.748,-0.135,-0.26
1:17:05.752,-0.11,-0.28
1:17:05.756,-0.105,-0.26
1:17:05.760,-0.1,-0.27
1:17:05.764,-0.06,-0.29
1:17:05.768,-0.07,-0.32
1:17:05.772,-0.095,-0.335
1:17:05.776,-0.105,-0.335
1:17:05.780,-0.075,-0.335
1:17:05.784,-0.03,-0.34
1:17:05.788,-0.025,-0.32
1:17:05.792,-0.015,-0.32
1:17:05.796,-0.025,-0.31
1:17:05.800,-0.055,-0.3
1:17:05.804,-0.04,-0.34
1:17:05.808,-0.05,-0.315
1:17:05.812,-0.065,-0.32
1:17:05.816,-0.055,-0.315
1:17:05.820,-0.055,-0.315
1:17:05.824,-0.065,-0.325
1:17:05.828,-0.055,-0.34
1:17:05.832,-0.045,-0.305
1:17:05.836,-0.07,-0.295
1:17:05.840,-0.055,-0.285
1:17:05.844,-0.04,-0.245
1:17:05.848,-0.065,-0.24
1:17:05.852,-0.075,-0.245
1:17:05.856,-0.05,-0.19
1:17:05.860,-0.07,-0.04
1:17:05.864,-0.03,0.195
1:17:05.868,-0.025,0.425
1:17:05.872,-0.01,0.635
1:17:05.876,0.015,0.815
1:17:05.880,-0.055,0.93
1:17:05.884,-0.1,1.01
1:17:05.888,-0.115,1.005
1:17:05.892,-0.115,0.84
1:17:05.896,-0.2,0.515
1:17:05.900,-0.36,0.28
1:17:05.904,-0.625,0.18
1:17:05.908,-0.905,0.17
1:17:05.912,-1.08,0.015
1:17:05.916,-1.185,-0.28
1:17:05.920,-1.17,-0.55
1:17:05.924,-1.04,-0.72
1:17:05.928,-0.765,-0.81
1:17:05.932,-0.4,-0.805
1:17:05.936,-0.175,-0.73
1:17:05.940,-0.14,-0.62
1:17:05.944,-0.175,-0.545
1:17:05.948,-0.195,-0.485
1:17:05.952,-0.21,-0.48
1:17:05.956,-0.18,-0.495
1:17:05.960,-0.165,-0.51
1:17:05.964,-0.12,-0.51
1:17:05.968,-0.045,-0.495
1:17:05.972,0.005,-0.495
1:17:05.976,0.02,-0.5
1:17:05.980,0.025,-0.48
1:17:05.984,0.025,-0.485
1:17:05.988,0.04,-0.49
1:17:05.992,0.035,-0.505
1:17:05.996,0.03,-0.505
1:17:06.000,0.05,-0.5
1:17:06.004,0.01,-0.465
1:17:06.008,0.06,-0.49
1:17:06.012,0.055,-0.485
1:17:06.016,0.04,-0.48
1:17:06.020,0.045,-0.475
1:17:06.024,0.045,-0.49
1:17:06.028,0.06,-0.48
1:17:06.032,0.035,-0.47
1:17:06.036,0.035,-0.495
1:17:06.040,0.035,-0.5
1:17:06.044,0.015,-0.49
1:17:06.048,0.03,-0.485
1:17:06.052,0.02,-0.485
1:17:06.056,0.01,-0.485
1:17:06.060,0.015,-0.5
1:17:06.064,0.025,-0.5
1:17:06.068,0.02,-0.505
1:17:06.072,0.015,-0.505
1:17:06.076,0.005,-0.51
1:17:06.080,0.005,-0.505
1:17:06.084,0.0,-0.51
1:17:06.088,0.01,-0.51
1:17:06.092,0.025,-0.49
1:17:06.096,0.0,-0.52
1:17:06.100,0.0,-0.51
1:17:06.104,-0.01,-0.51
1:17:06.108,0.01,-0.515
1:17:06.112,0.0,-0.53
1:17:06.116,-0.02,-0.505
1:17:06.120,0.0,-0.51
1:17:06.124,0.0,-0.51
1:17:06.128,0.005,-0.505
1:17:06.132,0.0,-0.505
1:17:06.136,-0.015,-0.5
1:17:06.140,0.0,-0.505
1:17:06.144,-0.015,-0.5
1:17:06.148,0.0,-0.49
1:17:06.152,0.0,-0.475
1:17:06.156,0.0,-0.465
1:17:06.160,0.0,-0.445
1:17:06.164,0.0,-0.435
1:17:06.168,-0.03,-0.42
1:17:06.172,-0.035,-0.39
1:17:06.176,-0.035,-0.38
1:17:06.180,-0.04,-0.37
1:17:06.184,-0.055,-0.34
1:17:06.188,-0.025,-0.33
1:17:06.192,-0.045,-0.305
1:17:06.196,-0.055,-0.31
1:17:06.200,-0.055,-0.27
1:17:06.204,-0.07,-0.255
1:17:06.208,-0.075,-0.255
1:17:06.212,-0.07,-0.25
1:17:06.216,-0.07,-0.23
1:17:06.220,-0.07,-0.23
1:17:06.224,-0.095,-0.24
1:17:06.228,-0.07,-0.23
1:17:06.232,-0.085,-0.245
1:17:06.236,-0.07,-0.245
1:17:06.240,-0.065,-0.23
1:17:06.244,-0.075,-0.24
1:17:06.248,-0.06,-0.24
1:17:06.252,-0.08,-0.26
1:17:06.256,-0.055,-0.255
1:17:06.260,-0.07,-0.245
1:17:06.264,-0.045,-0.265
1:17:06.268,-0.045,-0.265
1:17:06.272,-0.05,-0.27
1:17:06.276,-0.04,-0.27
1:17:06.280,-0.04,-0.27
1:17:06.284,-0.055,-0.26
1:17:06.288,-0.045,-0.26
1:17:06.292,-0.03,-0.27
1:17:06.296,-0.02,-0.29
1:17:06.300,-0.02,-0.275
1:17:06.304,-0.03,-0.25
1:17:06.308,-0.04,-0.25
1:17:06.312,-0.05,-0.27
1:17:06.316,0.0,-0.26
1:17:06.320,-0.04,-0.295
1:17:06.324,-0.015,-0.295
1:17:06.328,-0.015,-0.28
1:17:06.332,-0.01,-0.295
1:17:06.336,-0.015,-0.275
1:17:06.340,-0.005,-0.285
1:17:06.344,-0.03,-0.285
1:17:06.348,-0.015,-0.29
1:17:06.352,-0.025,-0.275
1:17:06.356,-0.025,-0.275
1:17:06.360,-0.025,-0.275
1:17:06.364,-0.035,-0.285
1:17:06.368,-0.015,-0.27
1:17:06.372,-0.03,-0.28
1:17:06.376,-0.025,-0.275
1:17:06.380,-0.035,-0.275
1:17:06.384,-0.04,-0.28
1:17:06.388,-0.03,-0.275
1:17:06.392,-0.04,-0.26
1:17:06.396,-0.025,-0.29
1:17:06.400,-0.035,-0.28
1:17:06.404,-0.035,-0.275
1:17:06.408,-0.045,-0.27
1:17:06.412,-0.055,-0.29
1:17:06.416,-0.04,-0.295
1:17:06.420,-0.065,-0.28
1:17:06.424,-0.065,-0.29
1:17:06.428,-0.07,-0.285
1:17:06.432,-0.06,-0.3
1:17:06.436,-0.04,-0.28
1:17:06.440,-0.06,-0.285
1:17:06.444,-0.07,-0.255
1:17:06.448,-0.06,-0.3
1:17:06.452,-0.07,-0.275
1:17:06.456,-0.065,-0.28
1:17:06.460,-0.06,-0.285
1:17:06.464,-0.065,-0.285
1:17:06.468,-0.075,-0.275
1:17:06.472,-0.06,-0.285
1:17:06.476,-0.07,-0.28
1:17:06.480,-0.065,-0.275
1:17:06.484,-0.095,-0.265
1:17:06.488,-0.08,-0.28
1:17:06.492,-0.065,-0.27
1:17:06.496,-0.065,-0.275
1:17:06.500,-0.075,-0.285
1:17:06.504,-0.07,-0.295
1:17:06.508,-0.08,-0.275
1:17:06.512,-0.095,-0.275
1:17:06.516,-0.07,-0.29
1:17:06.520,-0.075,-0.285
1:17:06.524,-0.1,-0.29
1:17:06.528,-0.095,-0.29
1:17:06.532,-0.075,-0.285
1:17:06.536,-0.08,-0.305
1:17:06.540,-0.06,-0.29
1:17:06.544,-0.06,-0.29
1:17:06.548,-0.085,-0.285
1:17:06.552,-0.065,-0.285
1:17:06.556,-0.075,-0.27
1:17:06.560,-0.08,-0.285
1:17:06.564,-0.065,-0.28
1:17:06.568,-0.07,-0.275
1:17:06.572,-0.075,-0.285
1:17:06.576,-0.075,-0.25
1:17:06.580,-0.055,-0.25
1:17:06.584,-0.06,-0.215
1:17:06.588,-0.065,-0.185
1:17:06.592,-0.07,-0.16
1:17:06.596,-0.08,-0.12
1:17:06.600,-0.085,-0.12
1:17:06.604,-0.055,-0.11
1:17:06.608,-0.045,-0.105
1:17:06.612,0.0,-0.08
1:17:06.616,0.0,-0.08
1:17:06.620,0.035,-0.095
1:17:06.624,0.05,-0.095
1:17:06.628,0.065,-0.12
1:17:06.632,0.035,-0.11
1:17:06.636,0.04,-0.1
1:17:06.640,0.045,-0.115
1:17:06.644,0.02,-0.115
1:17:06.648,-0.01,-0.155
1:17:06.652,-0.015,-0.245
1:17:06.656,-0.045,-0.265
1:17:06.660,-0.09,-0.27
1:17:06.664,-0.115,-0.265
1:17:06.668,-0.125,-0.245
1:17:06.672,-0.13,-0.235
1:17:06.676,-0.135,-0.22
1:17:06.680,-0.13,-0.235
1:17:06.684,-0.13,-0.245
1:17:06.688,-0.135,-0.24
1:17:06.692,-0.145,-0.255
1:17:06.696,-0.115,-0.275
1:17:06.700,-0.11,-0.27
1:17:06.704,-0.12,-0.315
1:17:06.708,-0.085,-0.335
1:17:06.712,-0.115,-0.335
1:17:06.716,-0.08,-0.315
1:17:06.720,-0.075,-0.32
1:17:06.724,-0.04,-0.34
1:17:06.728,-0.035,-0.31
1:17:06.732,-0.04,-0.305
1:17:06.736,-0.055,-0.335
1:17:06.740,-0.05,-0.305
1:17:06.744,-0.05,-0.315
1:17:06.748,-0.07,-0.315
1:17:06.752,-0.055,-0.32
1:17:06.756,-0.055,-0.32
1:17:06.760,-0.065,-0.31
1:17:06.764,-0.05,-0.32
1:17:06.768,-0.045,-0.32
1:17:06.772,-0.055,-0.305
1:17:06.776,-0.065,-0.275
1:17:06.780,-0.06,-0.25
1:17:06.784,-0.04,-0.22
1:17:06.788,-0.06,-0.195
1:17:06.792,-0.055,-0.15
1:17:06.796,-0.07,-0.04
1:17:06.800,-0.05,0.215
1:17:06.804,-0.05,0.49
1:17:06.808,-0.01,0.725
1:17:06.812,0.015,0.895
1:17:06.816,0.01,1.035
1:17:06.820,-0.04,1.07
1:17:06.824,-0.04,0.985
1:17:06.828,-0.11,0.73
1:17:06.832,-0.23,0.34
1:17:06.836,-0.41,0.06
1:17:06.840,-0.735,0.06
1:17:06.844,-1.05,0.16
1:17:06.848,-1.31,0.055
1:17:06.852,-1.465,-0.25
1:17:06.856,-1.49,-0.55
1:17:06.860,-1.345,-0.71
1:17:06.864,-0.98,-0.81
1:17:06.868,-0.54,-0.835
1:17:06.872,-0.26,-0.74
1:17:06.876,-0.165,-0.61
1:17:06.880,-0.165,-0.51
1:17:06.884,-0.19,-0.485
