Time,ECG1,ECG2
08:52:00.000,-0.175,-0.255
08:52:00.008,-0.145,-0.265
08:52:00.016,-0.105,-0.285
08:52:00.023,-0.095,-0.325
08:52:00.031,-0.075,-0.345
08:52:00.039,-0.095,-0.345
08:52:00.047,0.005,-0.315
08:52:00.055,-0.005,-0.295
08:52:00.063,-0.025,-0.245
08:52:00.070,-0.035,-0.175
08:52:00.078,-0.055,-0.115
08:52:00.086,-0.085,-0.065
08:52:00.094,-0.135,-0.045
08:52:00.102,-0.145,-0.005
08:52:00.109,-0.145,0.025
08:52:00.117,-0.135,0.025
08:52:00.125,-0.165,0.015
08:52:00.133,-0.145,0.035
08:52:00.141,-0.155,0.025
08:52:00.148,-0.115,0.015
08:52:00.156,-0.145,-0.005
08:52:00.164,-0.135,0.015
08:52:00.172,-0.125,0.005
08:52:00.180,-0.135,-0.005
08:52:00.188,-0.165,0.035
08:52:00.195,-0.145,0.025
08:52:00.203,-0.135,0.045
08:52:00.211,-0.125,0.025
08:52:00.219,-0.155,-0.005
08:52:00.227,-0.115,0.005
08:52:00.234,-0.145,0.025
08:52:00.242,-0.145,0.005
08:52:00.250,-0.155,-0.005
08:52:00.258,-0.155,-0.005
08:52:00.266,-0.135,0.015
08:52:00.273,-0.125,-0.005
08:52:00.281,-0.135,0.005
08:52:00.289,-0.135,0.005
08:52:00.297,-0.135,-0.025
08:52:00.305,-0.155,-0.005
08:52:00.313,-0.125,0.015
08:52:00.320,-0.155,0.015
08:52:00.328,-0.135,0.005
08:52:00.336,-0.125,-0.005
08:52:00.344,-0.135,-0.025
08:52:00.352,-0.105,0.015
08:52:00.359,-0.075,0.025
08:52:00.367,-0.065,0.005
08:52:00.375,-0.065,-0.005
08:52:00.383,-0.025,-0.005
08:52:00.391,-0.045,-0.025
08:52:00.398,-0.065,-0.065
08:52:00.406,-0.085,-0.045
08:52:00.414,-0.085,-0.035
08:52:00.422,-0.085,-0.025
08:52:00.430,-0.125,-0.025
08:52:00.438,-0.125,-0.035
08:52:00.445,-0.155,-0.055
08:52:00.453,-0.145,-0.045
08:52:00.461,-0.145,-0.015
08:52:00.469,-0.155,-0.045
08:52:00.477,-0.165,-0.045
08:52:00.484,-0.135,-0.035
08:52:00.492,-0.405,0.085
08:52:00.500,-1.015,0.165
08:52:00.508,-0.835,-0.105
08:52:00.516,0.645,-0.665
08:52:00.523,2.515,-0.465
08:52:00.531,2.935,0.135
08:52:00.539,2.815,0.605
08:52:00.547,1.325,0.245
08:52:00.555,-0.185,-0.605
08:52:00.563,-0.345,-0.315
08:52:00.570,-0.285,-0.095
08:52:00.578,-0.285,-0.045
08:52:00.586,-0.325,-0.075
08:52:00.594,-0.385,-0.115
08:52:00.602,-0.325,-0.095
08:52:00.609,-0.365,-0.105
08:52:00.617,-0.375,-0.135
08:52:00.625,-0.355,-0.095
08:52:00.633,-0.345,-0.125
08:52:00.641,-0.305,-0.125
08:52:00.648,-0.325,-0.125
08:52:00.656,-0.325,-0.165
08:52:00.664,-0.275,-0.165
08:52:00.672,-0.255,-0.165
08:52:00.680,-0.285,-0.215
08:52:00.688,-0.245,-0.245
08:52:00.695,-0.255,-0.255
08:52:00.703,-0.245,-0.245
08:52:00.711,-0.225,-0.305
08:52:00.719,-0.215,-0.325
08:52:00.727,-0.135,-0.345
08:52:00.734,-0.155,-0.365
08:52:00.742,-0.125,-0.385
08:52:00.750,-0.125,-0.405
08:52:00.758,-0.045,-0.375
08:52:00.766,-0.045,-0.405
08:52:00.773,-0.065,-0.335
08:52:00.781,-0.075,-0.255
08:52:00.789,-0.025,-0.205
08:52:00.797,-0.075,-0.135
08:52:00.805,-0.125,-0.115
08:52:00.813,-0.135,-0.075
08:52:00.820,-0.115,-0.015
08:52:00.828,-0.155,-0.005
08:52:00.836,-0.165,-0.015
08:52:00.844,-0.205,-0.025
08:52:00.852,-0.135,-0.025
08:52:00.859,-0.135,-0.025
08:52:00.867,-0.205,-0.015
08:52:00.875,-0.185,0.015
08:52:00.883,-0.175,-0.015
08:52:00.891,-0.145,0.015
08:52:00.898,-0.145,0.005
08:52:00.906,-0.185,-0.015
08:52:00.914,-0.175,-0.005
08:52:00.922,-0.145,-0.015
08:52:00.930,-0.135,-0.025
08:52:00.938,-0.215,-0.075
08:52:00.945,-0.165,0.015
08:52:00.953,-0.165,0.025
08:52:00.961,-0.145,-0.005
08:52:00.969,-0.165,-0.035
08:52:00.977,-0.165,-0.015
08:52:00.984,-0.155,-0.025
08:52:00.992,-0.145,-0.005
08:52:01.000,-0.175,-0.025
08:52:01.008,-0.155,-0.045
08:52:01.016,-0.175,-0.025
08:52:01.023,-0.155,-0.015
08:52:01.031,-0.185,-0.005
08:52:01.039,-0.145,-0.035
08:52:01.047,-0.155,-0.005
08:52:01.055,-0.105,-0.005
08:52:01.063,-0.145,0.005
08:52:01.070,-0.085,0.005
08:52:01.078,-0.025,0.005
08:52:01.086,-0.075,-0.065
08:52:01.094,-0.075,-0.015
08:52:01.102,-0.085,-0.045
08:52:01.109,-0.115,-0.045
08:52:01.117,-0.105,-0.085
08:52:01.125,-0.095,-0.015
08:52:01.133,-0.135,-0.005
08:52:01.141,-0.175,-0.035
08:52:01.148,-0.135,-0.025
08:52:01.156,-0.175,-0.045
08:52:01.164,-0.165,-0.065
08:52:01.172,-0.165,-0.035
08:52:01.180,-0.135,-0.035
08:52:01.188,-0.125,-0.065
08:52:01.195,-0.425,0.075
08:52:01.203,-1.045,0.215
08:52:01.211,-0.735,-0.065
08:52:01.219,0.865,-0.595
08:52:01.227,2.655,-0.375
08:52:01.234,2.905,0.145
08:52:01.242,2.675,0.535
08:52:01.250,0.975,-0.005
08:52:01.258,-0.325,-0.705
08:52:01.266,-0.335,-0.265
08:52:01.273,-0.265,-0.065
08:52:01.281,-0.315,-0.025
08:52:01.289,-0.285,-0.065
08:52:01.297,-0.375,-0.105
08:52:01.305,-0.375,-0.055
08:52:01.313,-0.385,-0.075
08:52:01.320,-0.355,-0.035
08:52:01.328,-0.325,-0.045
08:52:01.336,-0.315,-0.095
08:52:01.344,-0.345,-0.125
08:52:01.352,-0.285,-0.095
08:52:01.359,-0.265,-0.095
08:52:01.367,-0.295,-0.115
08:52:01.375,-0.255,-0.135
08:52:01.383,-0.265,-0.135
08:52:01.391,-0.265,-0.165
08:52:01.398,-0.245,-0.165
08:52:01.406,-0.185,-0.205
08:52:01.414,-0.215,-0.225
08:52:01.422,-0.215,-0.235
08:52:01.430,-0.115,-0.265
08:52:01.438,-0.145,-0.295
08:52:01.445,-0.115,-0.295
08:52:01.453,-0.075,-0.295
08:52:01.461,-0.105,-0.325
08:52:01.469,-0.065,-0.275
08:52:01.477,-0.085,-0.235
08:52:01.484,-0.105,-0.185
08:52:01.492,-0.175,-0.125
08:52:01.500,-0.085,-0.085
08:52:01.508,-0.155,-0.025
08:52:01.516,-0.135,0.005
08:52:01.523,-0.205,-0.045
08:52:01.531,-0.125,-0.025
08:52:01.539,-0.155,0.005
08:52:01.547,-0.235,-0.005
08:52:01.555,-0.225,-0.015
08:52:01.563,-0.195,0.005
08:52:01.570,-0.225,0.005
08:52:01.578,-0.175,0.025
08:52:01.586,-0.215,-0.005
08:52:01.594,-0.215,-0.045
08:52:01.602,-0.215,-0.005
08:52:01.609,-0.215,0.005
08:52:01.617,-0.215,-0.005
08:52:01.625,-0.235,-0.045
08:52:01.633,-0.265,0.005
08:52:01.641,-0.115,-0.025
08:52:01.648,-0.245,0.005
08:52:01.656,-0.345,-0.065
08:52:01.664,-0.285,-0.085
08:52:01.672,-0.165,-0.015
08:52:01.680,-0.215,0.015
08:52:01.688,-0.265,-0.085
08:52:01.695,-0.295,-0.035
08:52:01.703,-0.215,-0.035
08:52:01.711,-0.205,0.005
08:52:01.719,-0.215,0.025
08:52:01.727,-0.205,-0.025
08:52:01.734,-0.235,-0.015
08:52:01.742,-0.275,0.005
08:52:01.750,-0.185,0.015
08:52:01.758,-0.255,0.045
08:52:01.766,-0.205,0.025
08:52:01.773,-0.085,-0.005
08:52:01.781,-0.105,-0.005
08:52:01.789,-0.135,0.065
08:52:01.797,-0.215,0.005
08:52:01.805,-0.125,-0.015
08:52:01.813,-0.195,-0.045
08:52:01.820,-0.215,-0.025
08:52:01.828,-0.205,-0.035
08:52:01.836,-0.185,-0.045
08:52:01.844,-0.235,-0.015
08:52:01.852,-0.185,-0.015
08:52:01.859,-0.125,-0.005
08:52:01.867,-0.205,0.015
08:52:01.875,-0.185,0.035
08:52:01.883,-0.215,0.185
08:52:01.891,-0.785,0.275
08:52:01.898,-0.975,-0.085
08:52:01.906,-0.325,-0.445
08:52:01.914,1.815,-0.595
08:52:01.922,2.895,0.095
08:52:01.930,2.925,0.545
08:52:01.938,2.145,0.445
08:52:01.945,0.375,-0.555
08:52:01.953,-0.295,-0.445
08:52:01.961,-0.275,-0.045
08:52:01.969,-0.235,-0.015
08:52:01.977,-0.275,0.015
08:52:01.984,-0.245,-0.035
08:52:01.992,-0.285,-0.025
08:52:02.000,-0.255,-0.045
08:52:02.008,-0.315,-0.035
08:52:02.016,-0.325,-0.095
08:52:02.023,-0.225,-0.025
08:52:02.031,-0.185,-0.065
08:52:02.039,-0.245,-0.105
08:52:02.047,-0.185,-0.075
08:52:02.055,-0.205,-0.125
08:52:02.063,-0.195,-0.085
08:52:02.070,-0.165,-0.095
08:52:02.078,-0.045,-0.155
08:52:02.086,-0.115,-0.135
08:52:02.094,-0.075,-0.175
08:52:02.102,-0.135,-0.205
08:52:02.109,-0.025,-0.235
08:52:02.117,-0.015,-0.255
08:52:02.125,0.015,-0.255
08:52:02.133,0.025,-0.245
08:52:02.141,0.075,-0.275
08:52:02.148,0.205,-0.285
08:52:02.156,0.045,-0.195
08:52:02.164,0.065,-0.205
08:52:02.172,0.125,-0.135
08:52:02.180,0.085,-0.125
08:52:02.188,-0.005,-0.045
08:52:02.195,-0.075,-0.005
08:52:02.203,-0.045,0.035
08:52:02.211,-0.075,0.035
08:52:02.219,-0.135,0.035
08:52:02.227,-0.195,0.045
08:52:02.234,-0.135,0.085
08:52:02.242,-0.125,0.065
08:52:02.250,-0.145,0.025
08:52:02.258,-0.125,0.035
08:52:02.266,-0.095,0.115
08:52:02.273,-0.155,0.025
08:52:02.281,-0.005,0.065
08:52:02.289,-0.205,0.045
08:52:02.297,-0.185,0.055
08:52:02.305,-0.155,0.025
08:52:02.313,-0.155,0.025
08:52:02.320,-0.205,0.045
08:52:02.328,-0.145,0.085
08:52:02.336,-0.125,0.165
08:52:02.344,-0.135,-0.005
08:52:02.352,-0.115,-0.025
08:52:02.359,-0.155,0.035
08:52:02.367,-0.165,0.045
08:52:02.375,-0.165,0.045
08:52:02.383,-0.185,0.025
08:52:02.391,-0.145,0.065
08:52:02.398,-0.225,0.045
08:52:02.406,-0.135,0.025
08:52:02.414,-0.215,0.065
08:52:02.422,-0.195,0.015
08:52:02.430,-0.195,0.095
08:52:02.438,-0.155,0.015
08:52:02.445,-0.195,0.025
08:52:02.453,-0.115,0.045
08:52:02.461,-0.115,0.045
08:52:02.469,-0.085,0.085
08:52:02.477,-0.115,0.085
08:52:02.484,-0.065,0.055
08:52:02.492,-0.105,0.075
08:52:02.500,-0.085,0.005
08:52:02.508,-0.165,0.045
08:52:02.516,-0.155,0.015
08:52:02.523,-0.075,0.045
08:52:02.531,-0.035,-0.005
08:52:02.539,-0.225,0.075
08:52:02.547,-0.315,0.015
08:52:02.555,-0.255,0.025
08:52:02.563,-0.265,0.035
08:52:02.570,-0.255,0.015
08:52:02.578,-0.185,-0.015
08:52:02.586,-0.235,0.045
08:52:02.594,-0.195,0.065
08:52:02.602,-0.455,0.065
08:52:02.609,-0.815,0.105
08:52:02.617,-0.395,-0.075
08:52:02.625,1.095,-0.505
08:52:02.633,2.525,-0.125
08:52:02.641,2.795,0.345
08:52:02.648,2.355,0.615
08:52:02.656,0.815,0.135
08:52:02.664,-0.365,-0.635
08:52:02.672,-0.305,-0.335
08:52:02.680,-0.255,-0.055
08:52:02.688,-0.375,-0.035
08:52:02.695,-0.325,-0.015
08:52:02.703,-0.355,-0.005
08:52:02.711,-0.395,-0.045
08:52:02.719,-0.365,-0.045
08:52:02.727,-0.315,-0.055
08:52:02.734,-0.305,-0.035
08:52:02.742,-0.345,-0.075
08:52:02.750,-0.305,-0.055
08:52:02.758,-0.315,-0.065
08:52:02.766,-0.265,-0.075
08:52:02.773,-0.235,-0.075
08:52:02.781,-0.195,-0.045
08:52:02.789,-0.205,-0.065
08:52:02.797,-0.195,-0.155
08:52:02.805,-0.135,-0.175
08:52:02.813,-0.115,-0.125
08:52:02.820,-0.085,-0.185
08:52:02.828,-0.065,-0.235
08:52:02.836,0.025,-0.165
08:52:02.844,0.125,-0.275
08:52:02.852,-0.055,-0.215
08:52:02.859,-0.055,-0.195
08:52:02.867,0.075,-0.185
08:52:02.875,0.115,-0.205
08:52:02.883,0.075,-0.205
08:52:02.891,-0.105,-0.115
08:52:02.898,-0.095,-0.105
08:52:02.906,-0.085,-0.065
08:52:02.914,-0.085,-0.075
08:52:02.922,-0.175,-0.025
08:52:02.930,-0.165,-0.015
08:52:02.938,-0.005,-0.035
08:52:02.945,-0.275,0.005
08:52:02.953,-0.425,0.005
08:52:02.961,-0.295,-0.045
08:52:02.969,-0.195,-0.045
08:52:02.977,-0.225,0.015
08:52:02.984,-0.175,-0.025
08:52:02.992,-0.175,-0.045
08:52:03.000,-0.135,-0.045
08:52:03.008,-0.175,-0.035
08:52:03.016,-0.275,-0.055
08:52:03.023,-0.255,-0.035
08:52:03.031,-0.035,-0.055
08:52:03.039,-0.165,-0.045
08:52:03.047,-0.285,-0.025
08:52:03.055,-0.205,-0.025
08:52:03.063,-0.165,-0.055
08:52:03.070,-0.135,-0.025
08:52:03.078,-0.145,-0.035
08:52:03.086,-0.285,-0.045
08:52:03.094,-0.185,-0.065
08:52:03.102,-0.055,-0.065
08:52:03.109,-0.225,0.005
08:52:03.117,-0.245,-0.025
08:52:03.125,-0.215,-0.085
08:52:03.133,-0.185,-0.045
08:52:03.141,-0.195,-0.015
08:52:03.148,-0.175,-0.025
08:52:03.156,-0.085,-0.035
08:52:03.164,-0.085,-0.015
08:52:03.172,-0.135,0.015
08:52:03.180,0.075,-0.055
08:52:03.188,-0.025,-0.075
08:52:03.195,-0.325,-0.065
08:52:03.203,-0.105,-0.135
08:52:03.211,0.005,-0.205
08:52:03.219,-0.145,-0.065
08:52:03.227,-0.185,0.065
08:52:03.234,-0.175,0.005
08:52:03.242,-0.215,-0.065
08:52:03.250,-0.205,-0.115
08:52:03.258,-0.205,-0.085
08:52:03.266,-0.225,-0.065
08:52:03.273,-0.245,-0.075
08:52:03.281,-0.155,-0.125
08:52:03.289,-0.175,-0.135
08:52:03.297,-0.085,-0.155
08:52:03.305,-0.825,-0.065
08:52:03.313,-0.805,-0.055
08:52:03.320,0.495,-0.545
08:52:03.328,2.265,-0.365
08:52:03.336,2.825,0.275
08:52:03.344,2.615,0.565
08:52:03.352,1.815,0.445
08:52:03.359,0.065,-0.645
08:52:03.367,-0.475,-0.545
08:52:03.375,-0.315,-0.195
08:52:03.383,-0.325,-0.145
08:52:03.391,-0.285,-0.155
08:52:03.398,-0.365,-0.135
08:52:03.406,-0.435,-0.145
08:52:03.414,-0.375,-0.055
08:52:03.422,-0.285,-0.115
08:52:03.430,-0.325,-0.255
08:52:03.438,-0.355,-0.245
08:52:03.445,-0.345,-0.195
08:52:03.453,-0.235,-0.205
08:52:03.461,-0.265,-0.235
08:52:03.469,-0.295,-0.235
08:52:03.477,-0.295,-0.255
08:52:03.484,-0.285,-0.265
08:52:03.492,-0.255,-0.265
08:52:03.500,-0.215,-0.325
08:52:03.508,-0.175,-0.285
08:52:03.516,-0.115,-0.315
08:52:03.523,-0.065,-0.385
08:52:03.531,-0.115,-0.365
08:52:03.539,-0.025,-0.405
08:52:03.547,-0.075,-0.395
08:52:03.555,-0.115,-0.385
08:52:03.563,-0.065,-0.435
08:52:03.570,0.055,-0.385
08:52:03.578,-0.105,-0.325
08:52:03.586,-0.095,-0.315
08:52:03.594,0.015,-0.255
08:52:03.602,-0.095,-0.135
08:52:03.609,-0.285,-0.115
08:52:03.617,-0.255,-0.105
08:52:03.625,-0.195,-0.045
08:52:03.633,-0.225,-0.095
08:52:03.641,-0.235,-0.085
08:52:03.648,-0.215,-0.065
08:52:03.656,-0.195,-0.025
08:52:03.664,-0.235,-0.035
08:52:03.672,-0.275,-0.055
08:52:03.680,-0.255,-0.075
08:52:03.688,-0.175,-0.085
08:52:03.695,-0.205,-0.075
08:52:03.703,-0.215,-0.045
08:52:03.711,-0.195,-0.065
08:52:03.719,-0.205,-0.065
08:52:03.727,-0.215,-0.065
08:52:03.734,-0.215,-0.075
08:52:03.742,-0.235,-0.085
08:52:03.750,-0.215,-0.085
08:52:03.758,-0.225,-0.065
08:52:03.766,-0.215,-0.065
08:52:03.773,-0.205,-0.065
08:52:03.781,-0.225,-0.065
08:52:03.789,-0.225,-0.075
08:52:03.797,-0.235,-0.065
08:52:03.805,-0.205,-0.065
08:52:03.813,-0.215,-0.085
08:52:03.820,-0.235,-0.075
08:52:03.828,-0.225,-0.055
08:52:03.836,-0.195,-0.085
08:52:03.844,-0.215,-0.085
08:52:03.852,-0.245,-0.095
08:52:03.859,-0.205,-0.075
08:52:03.867,-0.165,-0.065
08:52:03.875,-0.205,-0.045
08:52:03.883,-0.135,-0.045
08:52:03.891,-0.105,-0.045
08:52:03.898,-0.075,-0.095
08:52:03.906,-0.125,-0.095
08:52:03.914,-0.145,-0.105
08:52:03.922,-0.195,-0.095
08:52:03.930,-0.165,-0.075
08:52:03.938,-0.195,-0.065
08:52:03.945,-0.215,-0.075
08:52:03.953,-0.225,-0.095
08:52:03.961,-0.265,-0.085
08:52:03.969,-0.255,-0.115
08:52:03.977,-0.275,-0.085
08:52:03.984,-0.225,-0.075
08:52:03.992,-0.235,-0.095
08:52:04.000,-0.255,-0.105
08:52:04.008,-0.725,0.005
08:52:04.016,-1.075,-0.015
08:52:04.023,-0.305,-0.255
08:52:04.031,1.415,-0.605
08:52:04.039,2.765,-0.315
08:52:04.047,2.775,0.205
08:52:04.055,2.455,0.695
08:52:04.063,0.535,0.315
08:52:04.070,-0.525,-0.735
08:52:04.078,-0.405,-0.425
08:52:04.086,-0.275,-0.175
08:52:04.094,-0.345,-0.115
08:52:04.102,-0.365,-0.135
08:52:04.109,-0.325,-0.115
08:52:04.117,-0.365,-0.125
08:52:04.125,-0.345,-0.145
08:52:04.133,-0.335,-0.145
08:52:04.141,-0.325,-0.125
08:52:04.148,-0.295,-0.145
08:52:04.156,-0.305,-0.145
08:52:04.164,-0.285,-0.155
08:52:04.172,-0.245,-0.165
08:52:04.180,-0.225,-0.165
08:52:04.188,-0.225,-0.175
08:52:04.195,-0.215,-0.195
08:52:04.203,-0.175,-0.195
08:52:04.211,-0.145,-0.225
08:52:04.219,-0.125,-0.225
08:52:04.227,-0.085,-0.275
08:52:04.234,-0.045,-0.265
08:52:04.242,-0.045,-0.295
08:52:04.250,-0.035,-0.285
08:52:04.258,-0.025,-0.295
08:52:04.266,0.025,-0.295
08:52:04.273,0.005,-0.275
08:52:04.281,-0.015,-0.255
08:52:04.289,-0.025,-0.245
08:52:04.297,-0.035,-0.185
08:52:04.305,-0.055,-0.145
08:52:04.313,-0.125,-0.125
08:52:04.320,-0.145,-0.105
08:52:04.328,-0.165,-0.055
08:52:04.336,-0.205,-0.055
08:52:04.344,-0.225,-0.045
08:52:04.352,-0.225,-0.035
08:52:04.359,-0.215,-0.025
08:52:04.367,-0.225,-0.025
08:52:04.375,-0.225,-0.035
08:52:04.383,-0.215,-0.035
08:52:04.391,-0.215,-0.015
08:52:04.398,-0.215,-0.025
08:52:04.406,-0.225,-0.025
08:52:04.414,-0.205,-0.035
08:52:04.422,-0.205,-0.025
08:52:04.430,-0.205,-0.035
08:52:04.438,-0.195,-0.035
08:52:04.445,-0.195,-0.035
08:52:04.453,-0.205,-0.035
08:52:04.461,-0.185,-0.055
08:52:04.469,-0.185,-0.035
08:52:04.477,-0.215,-0.025
08:52:04.484,-0.175,-0.015
08:52:04.492,-0.205,-0.035
08:52:04.500,-0.215,-0.045
08:52:04.508,-0.195,-0.035
08:52:04.516,-0.175,-0.005
08:52:04.523,-0.145,-0.015
08:52:04.531,-0.155,0.005
08:52:04.539,-0.105,0.025
08:52:04.547,-0.035,0.015
08:52:04.555,-0.065,-0.045
08:52:04.563,-0.125,-0.035
08:52:04.570,-0.165,-0.045
08:52:04.578,-0.175,-0.035
08:52:04.586,-0.145,-0.025
08:52:04.594,-0.185,-0.015
08:52:04.602,-0.195,-0.035
08:52:04.609,-0.215,-0.025
08:52:04.617,-0.225,-0.025
08:52:04.625,-0.235,-0.045
08:52:04.633,-0.225,-0.035
08:52:04.641,-0.185,-0.015
08:52:04.648,-0.155,-0.025
08:52:04.656,-0.265,-0.015
08:52:04.664,-0.885,0.145
08:52:04.672,-0.715,-0.005
08:52:04.680,0.465,-0.315
08:52:04.688,2.225,-0.425
08:52:04.695,2.975,-0.065
08:52:04.703,2.755,0.345
08:52:04.711,1.885,0.545
08:52:04.719,-0.005,-0.555
08:52:04.727,-0.395,-0.525
08:52:04.734,-0.225,-0.115
08:52:04.742,-0.265,-0.015
08:52:04.750,-0.305,-0.035
08:52:04.758,-0.325,-0.045
08:52:04.766,-0.305,-0.035
08:52:04.773,-0.315,-0.035
08:52:04.781,-0.295,-0.045
08:52:04.789,-0.275,-0.035
08:52:04.797,-0.265,-0.045
08:52:04.805,-0.245,-0.055
08:52:04.813,-0.225,-0.045
08:52:04.820,-0.195,-0.055
08:52:04.828,-0.165,-0.055
08:52:04.836,-0.155,-0.065
08:52:04.844,-0.115,-0.085
08:52:04.852,-0.095,-0.075
08:52:04.859,-0.075,-0.095
08:52:04.867,-0.045,-0.115
08:52:04.875,-0.025,-0.125
08:52:04.883,0.005,-0.145
08:52:04.891,0.035,-0.165
08:52:04.898,0.045,-0.195
08:52:04.906,0.075,-0.205
08:52:04.914,0.065,-0.215
08:52:04.922,0.075,-0.205
08:52:04.930,0.065,-0.195
08:52:04.938,0.045,-0.175
08:52:04.945,0.015,-0.135
08:52:04.953,-0.035,-0.085
08:52:04.961,-0.095,-0.065
08:52:04.969,-0.125,-0.035
08:52:04.977,-0.145,-0.015
08:52:04.984,-0.165,0.005
08:52:04.992,-0.175,0.005
08:52:05.000,-0.175,0.015
08:52:05.008,-0.205,0.015
08:52:05.016,-0.195,0.015
08:52:05.023,-0.165,0.025
08:52:05.031,-0.155,0.015
08:52:05.039,-0.165,0.035
08:52:05.047,-0.195,0.035
08:52:05.055,-0.145,0.005
08:52:05.063,-0.135,0.015
08:52:05.070,-0.155,0.015
08:52:05.078,-0.145,0.015
08:52:05.086,-0.155,0.005
08:52:05.094,-0.165,0.005
08:52:05.102,-0.155,0.005
08:52:05.109,-0.145,0.015
08:52:05.117,-0.155,0.005
08:52:05.125,-0.155,0.005
08:52:05.133,-0.155,0.005
08:52:05.141,-0.155,0.005
08:52:05.148,-0.155,0.005
08:52:05.156,-0.145,-0.005
08:52:05.164,-0.115,0.015
08:52:05.172,-0.085,0.075
08:52:05.180,-0.075,0.055
08:52:05.188,-0.055,0.065
08:52:05.195,-0.005,0.025
08:52:05.203,-0.045,-0.005
08:52:05.211,-0.085,-0.005
08:52:05.219,-0.125,-0.035
08:52:05.227,-0.135,-0.015
08:52:05.234,-0.115,0.015
08:52:05.242,-0.165,0.025
08:52:05.250,-0.195,-0.015
08:52:05.258,-0.155,-0.005
08:52:05.266,-0.175,0.015
08:52:05.273,-0.215,-0.005
08:52:05.281,-0.195,-0.015
08:52:05.289,-0.175,-0.005
08:52:05.297,-0.145,0.015
08:52:05.305,-0.245,0.035
08:52:05.313,-0.815,0.185
08:52:05.320,-0.725,-0.005
08:52:05.328,0.445,-0.415
08:52:05.336,2.195,-0.425
08:52:05.344,2.915,-0.025
08:52:05.352,2.715,0.455
08:52:05.359,1.455,0.155
08:52:05.367,-0.085,-0.725
08:52:05.375,-0.265,-0.415
08:52:05.383,-0.195,-0.055
08:52:05.391,-0.255,-0.005
08:52:05.398,-0.295,-0.035
08:52:05.406,-0.325,-0.045
08:52:05.414,-0.325,-0.035
08:52:05.422,-0.305,-0.045
08:52:05.430,-0.305,-0.045
08:52:05.438,-0.295,-0.055
08:52:05.445,-0.275,-0.055
08:52:05.453,-0.235,-0.045
08:52:05.461,-0.235,-0.045
08:52:05.469,-0.205,-0.065
08:52:05.477,-0.185,-0.075
08:52:05.484,-0.155,-0.075
08:52:05.492,-0.145,-0.085
08:52:05.500,-0.115,-0.115
08:52:05.508,-0.085,-0.125
08:52:05.516,-0.055,-0.135
08:52:05.523,-0.045,-0.155
08:52:05.531,-0.015,-0.175
08:52:05.539,0.005,-0.185
08:52:05.547,0.025,-0.205
08:52:05.555,0.025,-0.225
08:52:05.563,0.035,-0.245
08:52:05.570,0.035,-0.235
08:52:05.578,0.035,-0.205
08:52:05.586,0.005,-0.185
08:52:05.594,-0.045,-0.145
08:52:05.602,-0.075,-0.105
08:52:05.609,-0.115,-0.045
08:52:05.617,-0.155,-0.025
08:52:05.625,-0.155,-0.015
08:52:05.633,-0.175,0.015
08:52:05.641,-0.185,0.035
08:52:05.648,-0.195,0.015
08:52:05.656,-0.175,0.015
08:52:05.664,-0.175,0.025
08:52:05.672,-0.165,0.035
08:52:05.680,-0.165,0.035
08:52:05.688,-0.165,0.025
08:52:05.695,-0.165,0.025
08:52:05.703,-0.165,0.025
08:52:05.711,-0.175,0.025
08:52:05.719,-0.175,0.025
08:52:05.727,-0.165,0.035
08:52:05.734,-0.165,0.035
08:52:05.742,-0.175,0.025
08:52:05.750,-0.165,0.015
08:52:05.758,-0.155,0.015
08:52:05.766,-0.145,0.035
08:52:05.773,-0.165,0.015
08:52:05.781,-0.165,0.005
08:52:05.789,-0.175,0.015
08:52:05.797,-0.135,0.025
08:52:05.805,-0.115,0.025
08:52:05.813,-0.095,0.055
08:52:05.820,-0.105,0.045
08:52:05.828,-0.055,0.065
08:52:05.836,0.015,0.015
08:52:05.844,-0.055,-0.005
08:52:05.852,-0.105,-0.015
08:52:05.859,-0.135,-0.005
08:52:05.867,-0.115,-0.005
08:52:05.875,-0.125,0.015
08:52:05.883,-0.155,0.025
08:52:05.891,-0.165,0.005
08:52:05.898,-0.205,0.005
08:52:05.906,-0.215,-0.005
08:52:05.914,-0.205,-0.005
08:52:05.922,-0.195,0.015
08:52:05.930,-0.185,-0.005
08:52:05.938,-0.185,-0.005
08:52:05.945,-0.285,0.045
08:52:05.953,-0.805,0.165
08:52:05.961,-0.685,-0.095
08:52:05.969,0.525,-0.625
08:52:05.977,2.305,-0.365
08:52:05.984,2.905,0.255
08:52:05.992,2.595,0.665
08:52:06.000,1.345,0.095
08:52:06.008,-0.075,-0.735
08:52:06.016,-0.275,-0.405
08:52:06.023,-0.175,-0.065
08:52:06.031,-0.235,-0.025
08:52:06.039,-0.295,-0.045
08:52:06.047,-0.295,-0.045
08:52:06.055,-0.315,-0.055
08:52:06.063,-0.315,-0.065
08:52:06.070,-0.295,-0.065
08:52:06.078,-0.275,-0.065
08:52:06.086,-0.275,-0.075
08:52:06.094,-0.255,-0.085
08:52:06.102,-0.225,-0.095
08:52:06.109,-0.205,-0.085
08:52:06.117,-0.185,-0.105
08:52:06.125,-0.175,-0.115
08:52:06.133,-0.175,-0.135
08:52:06.141,-0.095,-0.135
08:52:06.148,-0.105,-0.155
08:52:06.156,-0.075,-0.185
08:52:06.164,-0.045,-0.205
08:52:06.172,-0.025,-0.225
08:52:06.180,-0.005,-0.255
08:52:06.188,0.005,-0.285
08:52:06.195,0.005,-0.285
08:52:06.203,0.045,-0.275
08:52:06.211,0.025,-0.295
08:52:06.219,0.015,-0.275
08:52:06.227,0.005,-0.235
08:52:06.234,-0.015,-0.165
08:52:06.242,-0.065,-0.125
08:52:06.250,-0.105,-0.085
08:52:06.258,-0.135,-0.035
08:52:06.266,-0.175,-0.005
08:52:06.273,-0.145,0.005
08:52:06.281,-0.175,-0.005
08:52:06.289,-0.175,0.005
08:52:06.297,-0.175,0.015
08:52:06.305,-0.175,0.005
08:52:06.313,-0.175,0.005
08:52:06.320,-0.155,0.015
08:52:06.328,-0.145,0.015
08:52:06.336,-0.155,0.005
08:52:06.344,-0.155,0.005
08:52:06.352,-0.145,0.005
08:52:06.359,-0.165,0.015
08:52:06.367,-0.155,0.015
08:52:06.375,-0.155,0.005
08:52:06.383,-0.165,-0.005
08:52:06.391,-0.155,0.005
08:52:06.398,-0.155,0.005
08:52:06.406,-0.155,0.005
08:52:06.414,-0.145,0.005
08:52:06.422,-0.145,0.005
08:52:06.430,-0.165,-0.005
08:52:06.438,-0.155,-0.005
08:52:06.445,-0.145,-0.005
08:52:06.453,-0.135,0.005
08:52:06.461,-0.115,0.005
08:52:06.469,-0.085,0.025
08:52:06.477,-0.105,0.025
08:52:06.484,-0.045,0.035
08:52:06.492,0.015,-0.015
08:52:06.500,-0.025,-0.035
08:52:06.508,-0.075,-0.035
08:52:06.516,-0.115,-0.025
08:52:06.523,-0.115,-0.025
08:52:06.531,-0.105,-0.015
08:52:06.539,-0.145,0.005
08:52:06.547,-0.155,-0.025
08:52:06.555,-0.175,-0.035
08:52:06.563,-0.195,-0.025
08:52:06.570,-0.195,-0.035
08:52:06.578,-0.165,-0.025
08:52:06.586,-0.165,-0.025
08:52:06.594,-0.155,-0.035
08:52:06.602,-0.195,-0.015
08:52:06.609,-0.765,0.145
08:52:06.617,-0.725,-0.105
08:52:06.625,0.455,-0.665
08:52:06.633,2.295,-0.405
08:52:06.641,2.895,0.305
08:52:06.648,2.665,0.745
08:52:06.656,1.525,0.405
08:52:06.664,-0.085,-0.715
08:52:06.672,-0.345,-0.465
08:52:06.680,-0.185,-0.135
08:52:06.688,-0.225,-0.055
08:52:06.695,-0.285,-0.065
08:52:06.703,-0.275,-0.085
08:52:06.711,-0.305,-0.095
08:52:06.719,-0.305,-0.105
08:52:06.727,-0.295,-0.105
08:52:06.734,-0.255,-0.105
08:52:06.742,-0.275,-0.105
08:52:06.750,-0.215,-0.115
08:52:06.758,-0.215,-0.115
08:52:06.766,-0.205,-0.115
08:52:06.773,-0.195,-0.145
08:52:06.781,-0.195,-0.155
08:52:06.789,-0.155,-0.185
08:52:06.797,-0.115,-0.185
08:52:06.805,-0.115,-0.205
08:52:06.813,-0.095,-0.235
08:52:06.820,-0.075,-0.275
08:52:06.828,-0.035,-0.285
08:52:06.836,-0.045,-0.315
08:52:06.844,-0.015,-0.335
08:52:06.852,0.025,-0.325
08:52:06.859,-0.005,-0.315
08:52:06.867,0.045,-0.325
08:52:06.875,0.025,-0.305
08:52:06.883,0.005,-0.255
08:52:06.891,0.005,-0.185
08:52:06.898,-0.045,-0.125
08:52:06.906,-0.075,-0.085
08:52:06.914,-0.105,-0.045
08:52:06.922,-0.145,-0.015
08:52:06.930,-0.135,0.005
08:52:06.938,-0.175,0.005
08:52:06.945,-0.165,0.015
08:52:06.953,-0.165,0.005
08:52:06.961,-0.145,-0.015
08:52:06.969,-0.175,-0.005
08:52:06.977,-0.155,0.005
08:52:06.984,-0.155,0.005
08:52:06.992,-0.155,0.015
08:52:07.000,-0.165,0.005
08:52:07.008,-0.165,0.015
08:52:07.016,-0.155,0.005
08:52:07.023,-0.145,-0.005
08:52:07.031,-0.155,-0.015
08:52:07.039,-0.155,-0.005
08:52:07.047,-0.135,-0.005
08:52:07.055,-0.155,0.005
08:52:07.063,-0.165,0.005
08:52:07.070,-0.145,-0.005
08:52:07.078,-0.145,0.005
08:52:07.086,-0.155,-0.005
08:52:07.094,-0.145,-0.025
08:52:07.102,-0.145,-0.005
08:52:07.109,-0.105,0.005
08:52:07.117,-0.105,0.035
08:52:07.125,-0.115,0.025
08:52:07.133,-0.015,0.035
08:52:07.141,-0.005,-0.005
08:52:07.148,-0.055,-0.035
08:52:07.156,-0.095,-0.045
08:52:07.164,-0.145,-0.025
08:52:07.172,-0.115,-0.025
08:52:07.180,-0.135,-0.005
08:52:07.188,-0.165,-0.015
08:52:07.195,-0.155,-0.035
08:52:07.203,-0.175,-0.025
08:52:07.211,-0.195,-0.025
08:52:07.219,-0.195,-0.035
08:52:07.227,-0.215,-0.025
08:52:07.234,-0.175,-0.045
08:52:07.242,-0.115,-0.025
08:52:07.250,-0.265,0.035
08:52:07.258,-0.845,0.135
08:52:07.266,-0.585,-0.085
08:52:07.273,0.585,-0.465
08:52:07.281,2.355,-0.425
08:52:07.289,2.935,0.105
08:52:07.297,2.715,0.585
08:52:07.305,1.475,0.425
08:52:07.313,-0.145,-0.705
08:52:07.320,-0.405,-0.495
08:52:07.328,-0.185,-0.125
08:52:07.336,-0.225,-0.025
08:52:07.344,-0.305,-0.065
08:52:07.352,-0.305,-0.085
08:52:07.359,-0.285,-0.065
08:52:07.367,-0.305,-0.065
08:52:07.375,-0.295,-0.095
08:52:07.383,-0.295,-0.085
08:52:07.391,-0.235,-0.075
08:52:07.398,-0.245,-0.085
08:52:07.406,-0.235,-0.105
08:52:07.414,-0.245,-0.115
08:52:07.422,-0.185,-0.135
08:52:07.430,-0.165,-0.145
08:52:07.438,-0.155,-0.155
08:52:07.445,-0.145,-0.155
08:52:07.453,-0.105,-0.165
08:52:07.461,-0.105,-0.195
08:52:07.469,-0.075,-0.225
08:52:07.477,-0.075,-0.235
08:52:07.484,-0.025,-0.225
08:52:07.492,-0.005,-0.255
08:52:07.500,-0.025,-0.245
08:52:07.508,-0.015,-0.255
08:52:07.516,-0.005,-0.225
08:52:07.523,-0.025,-0.215
08:52:07.531,-0.015,-0.195
08:52:07.539,-0.035,-0.135
08:52:07.547,-0.065,-0.085
08:52:07.555,-0.095,-0.055
08:52:07.563,-0.125,-0.055
08:52:07.570,-0.145,-0.015
08:52:07.578,-0.155,0.015
08:52:07.586,-0.165,0.005
08:52:07.594,-0.185,-0.015
08:52:07.602,-0.145,-0.005
08:52:07.609,-0.175,0.015
08:52:07.617,-0.155,-0.005
08:52:07.625,-0.165,-0.005
08:52:07.633,-0.155,0.005
08:52:07.641,-0.145,0.005
08:52:07.648,-0.155,-0.005
08:52:07.656,-0.155,-0.015
08:52:07.664,-0.135,-0.025
08:52:07.672,-0.155,-0.015
08:52:07.680,-0.145,-0.015
08:52:07.688,-0.145,-0.015
08:52:07.695,-0.145,-0.025
08:52:07.703,-0.145,-0.005
08:52:07.711,-0.135,-0.015
08:52:07.719,-0.145,-0.015
08:52:07.727,-0.145,-0.025
08:52:07.734,-0.135,-0.005
08:52:07.742,-0.145,-0.005
08:52:07.750,-0.105,-0.015
08:52:07.758,-0.065,0.015
08:52:07.766,-0.085,0.045
08:52:07.773,-0.035,0.025
08:52:07.781,0.005,-0.025
08:52:07.789,-0.055,-0.035
08:52:07.797,-0.095,-0.045
08:52:07.805,-0.125,-0.035
08:52:07.813,-0.115,-0.045
08:52:07.820,-0.125,-0.015
08:52:07.828,-0.145,-0.005
08:52:07.836,-0.165,-0.025
08:52:07.844,-0.195,-0.035
08:52:07.852,-0.205,-0.025
08:52:07.859,-0.155,-0.015
08:52:07.867,-0.175,-0.025
08:52:07.875,-0.165,-0.035
08:52:07.883,-0.125,-0.025
08:52:07.891,-0.405,0.095
08:52:07.898,-0.865,0.135
08:52:07.906,-0.315,-0.115
08:52:07.914,1.295,-0.495
08:52:07.922,2.715,-0.195
08:52:07.930,2.945,0.155
08:52:07.938,2.535,0.495
08:52:07.945,0.635,-0.375
08:52:07.953,-0.325,-0.685
08:52:07.961,-0.215,-0.215
08:52:07.969,-0.205,-0.015
08:52:07.977,-0.275,-0.025
08:52:07.984,-0.275,-0.035
08:52:07.992,-0.295,-0.045
08:52:08.000,-0.295,-0.055
08:52:08.008,-0.285,-0.055
08:52:08.016,-0.265,-0.045
08:52:08.023,-0.265,-0.065
08:52:08.031,-0.265,-0.065
08:52:08.039,-0.215,-0.075
08:52:08.047,-0.195,-0.065
08:52:08.055,-0.205,-0.085
08:52:08.063,-0.175,-0.095
08:52:08.070,-0.155,-0.105
08:52:08.078,-0.115,-0.105
08:52:08.086,-0.125,-0.105
08:52:08.094,-0.085,-0.135
08:52:08.102,-0.045,-0.165
08:52:08.109,-0.025,-0.165
08:52:08.117,-0.035,-0.185
08:52:08.125,-0.015,-0.205
08:52:08.133,-0.005,-0.215
08:52:08.141,0.025,-0.205
08:52:08.148,0.015,-0.225
08:52:08.156,-0.005,-0.215
08:52:08.164,-0.015,-0.195
08:52:08.172,-0.025,-0.155
08:52:08.180,-0.035,-0.125
08:52:08.188,-0.085,-0.085
08:52:08.195,-0.095,-0.035
08:52:08.203,-0.125,-0.015
08:52:08.211,-0.165,-0.005
08:52:08.219,-0.155,0.005
08:52:08.227,-0.155,0.005
08:52:08.234,-0.165,0.005
08:52:08.242,-0.165,0.015
08:52:08.250,-0.175,0.005
08:52:08.258,-0.155,-0.005
08:52:08.266,-0.155,0.025
08:52:08.273,-0.145,0.015
08:52:08.281,-0.165,-0.005
08:52:08.289,-0.155,0.005
08:52:08.297,-0.135,0.015
08:52:08.305,-0.155,0.025
08:52:08.313,-0.145,-0.005
08:52:08.320,-0.145,0.005
08:52:08.328,-0.165,-0.005
08:52:08.336,-0.125,0.005
08:52:08.344,-0.155,-0.005
08:52:08.352,-0.125,-0.015
08:52:08.359,-0.135,0.025
08:52:08.367,-0.135,0.005
08:52:08.375,-0.135,-0.005
08:52:08.383,-0.145,-0.005
08:52:08.391,-0.125,0.005
08:52:08.398,-0.095,0.005
08:52:08.406,-0.075,0.035
08:52:08.414,-0.095,0.035
08:52:08.422,-0.035,0.045
08:52:08.430,0.015,-0.005
08:52:08.438,-0.045,-0.025
08:52:08.445,-0.105,-0.045
08:52:08.453,-0.115,-0.035
08:52:08.461,-0.115,-0.025
08:52:08.469,-0.135,0.005
08:52:08.477,-0.145,-0.005
08:52:08.484,-0.145,-0.015
08:52:08.492,-0.175,-0.015
08:52:08.500,-0.185,-0.025
08:52:08.508,-0.175,-0.015
08:52:08.516,-0.165,-0.005
08:52:08.523,-0.165,-0.015
08:52:08.531,-0.145,-0.025
08:52:08.539,-0.225,0.045
08:52:08.547,-0.795,0.195
08:52:08.555,-0.635,-0.025
08:52:08.563,0.575,-0.485
08:52:08.570,2.295,-0.345
08:52:08.578,2.945,0.065
08:52:08.586,2.685,0.465
08:52:08.594,1.485,-0.045
08:52:08.602,-0.105,-0.815
08:52:08.609,-0.245,-0.345
08:52:08.617,-0.165,-0.025
08:52:08.625,-0.235,-0.015
08:52:08.633,-0.275,-0.035
08:52:08.641,-0.285,-0.045
08:52:08.648,-0.315,-0.045
08:52:08.656,-0.295,-0.055
08:52:08.664,-0.275,-0.055
08:52:08.672,-0.265,-0.045
08:52:08.680,-0.255,-0.065
08:52:08.688,-0.255,-0.075
08:52:08.695,-0.205,-0.075
08:52:08.703,-0.205,-0.085
08:52:08.711,-0.185,-0.095
08:52:08.719,-0.155,-0.115
08:52:08.727,-0.135,-0.105
08:52:08.734,-0.115,-0.115
08:52:08.742,-0.115,-0.135
08:52:08.750,-0.095,-0.165
08:52:08.758,-0.065,-0.175
08:52:08.766,-0.035,-0.195
08:52:08.773,-0.045,-0.225
08:52:08.781,-0.035,-0.255
08:52:08.789,-0.015,-0.235
08:52:08.797,-0.005,-0.265
08:52:08.805,-0.025,-0.255
08:52:08.813,-0.065,-0.235
08:52:08.820,-0.035,-0.205
08:52:08.828,-0.075,-0.145
08:52:08.836,-0.115,-0.105
08:52:08.844,-0.125,-0.085
08:52:08.852,-0.135,-0.035
08:52:08.859,-0.175,-0.005
08:52:08.867,-0.185,-0.015
08:52:08.875,-0.175,0.005
08:52:08.883,-0.175,0.005
08:52:08.891,-0.205,0.015
08:52:08.898,-0.155,0.005
08:52:08.906,-0.165,-0.005
08:52:08.914,-0.175,0.005
08:52:08.922,-0.175,0.005
08:52:08.930,-0.155,0.005
08:52:08.938,-0.155,-0.005
08:52:08.945,-0.155,-0.005
08:52:08.953,-0.165,0.005
08:52:08.961,-0.165,-0.005
08:52:08.969,-0.175,0.005
08:52:08.977,-0.185,-0.005
08:52:08.984,-0.135,0.015
08:52:08.992,-0.145,-0.005
08:52:09.000,-0.165,-0.015
08:52:09.008,-0.165,-0.015
08:52:09.016,-0.175,0.005
08:52:09.023,-0.165,-0.005
08:52:09.031,-0.165,-0.005
08:52:09.039,-0.175,-0.015
08:52:09.047,-0.175,0.005
08:52:09.055,-0.125,0.005
08:52:09.063,-0.095,0.025
08:52:09.070,-0.135,0.025
08:52:09.078,-0.035,0.035
08:52:09.086,-0.015,-0.025
08:52:09.094,-0.055,-0.045
08:52:09.102,-0.105,-0.055
08:52:09.109,-0.145,-0.035
08:52:09.117,-0.145,-0.025
08:52:09.125,-0.125,-0.025
08:52:09.133,-0.175,0.005
08:52:09.141,-0.175,-0.015
08:52:09.148,-0.205,-0.025
08:52:09.156,-0.215,-0.025
08:52:09.164,-0.215,-0.025
08:52:09.172,-0.225,-0.005
08:52:09.180,-0.185,-0.015
08:52:09.188,-0.175,-0.025
08:52:09.195,-0.225,0.005
08:52:09.203,-0.785,0.195
08:52:09.211,-0.825,-0.015
08:52:09.219,0.095,-0.475
08:52:09.227,1.935,-0.465
08:52:09.234,2.825,0.035
08:52:09.242,2.675,0.505
08:52:09.250,1.815,0.155
08:52:09.258,0.095,-0.745
08:52:09.266,-0.325,-0.465
08:52:09.273,-0.205,-0.065
08:52:09.281,-0.255,-0.015
08:52:09.289,-0.325,-0.045
08:52:09.297,-0.345,-0.035
08:52:09.305,-0.345,-0.045
08:52:09.313,-0.355,-0.065
08:52:09.320,-0.335,-0.065
08:52:09.328,-0.315,-0.055
08:52:09.336,-0.285,-0.065
08:52:09.344,-0.295,-0.075
08:52:09.352,-0.275,-0.085
08:52:09.359,-0.255,-0.085
08:52:09.367,-0.225,-0.105
08:52:09.375,-0.205,-0.115
08:52:09.383,-0.185,-0.115
08:52:09.391,-0.155,-0.125
08:52:09.398,-0.125,-0.155
08:52:09.406,-0.125,-0.175
08:52:09.414,-0.065,-0.185
08:52:09.422,-0.055,-0.185
08:52:09.430,-0.055,-0.225
08:52:09.438,-0.035,-0.265
08:52:09.445,-0.025,-0.255
08:52:09.453,-0.045,-0.265
08:52:09.461,-0.045,-0.275
08:52:09.469,-0.045,-0.275
08:52:09.477,-0.025,-0.245
08:52:09.484,-0.075,-0.175
08:52:09.492,-0.135,-0.125
08:52:09.500,-0.135,-0.085
08:52:09.508,-0.115,-0.045
08:52:09.516,-0.165,-0.015
08:52:09.523,-0.205,-0.005
08:52:09.531,-0.195,0.005
08:52:09.539,-0.235,0.005
08:52:09.547,-0.185,0.045
08:52:09.555,-0.225,0.025
08:52:09.563,-0.175,0.015
08:52:09.570,-0.165,0.035
08:52:09.578,-0.185,0.045
08:52:09.586,-0.165,0.015
08:52:09.594,-0.195,0.035
08:52:09.602,-0.155,0.015
08:52:09.609,-0.175,0.055
08:52:09.617,-0.205,0.015
08:52:09.625,-0.165,0.005
08:52:09.633,-0.165,0.005
08:52:09.641,-0.175,0.045
08:52:09.648,-0.175,0.025
08:52:09.656,-0.155,0.025
08:52:09.664,-0.175,0.025
08:52:09.672,-0.125,0.045
08:52:09.680,-0.155,0.025
08:52:09.688,-0.185,0.025
08:52:09.695,-0.205,0.005
08:52:09.703,-0.165,0.045
08:52:09.711,-0.165,0.045
08:52:09.719,-0.175,0.005
08:52:09.727,-0.165,0.005
08:52:09.734,-0.155,0.035
08:52:09.742,-0.095,0.025
08:52:09.750,-0.105,0.025
08:52:09.758,-0.195,0.025
08:52:09.766,-0.195,0.025
08:52:09.773,-0.145,0.055
08:52:09.781,-0.115,0.015
08:52:09.789,-0.045,-0.015
08:52:09.797,0.005,-0.055
08:52:09.805,-0.075,-0.005
08:52:09.813,-0.095,-0.015
08:52:09.820,-0.145,-0.025
08:52:09.828,-0.155,0.005
08:52:09.836,-0.075,0.005
08:52:09.844,-0.035,0.005
08:52:09.852,-0.155,0.025
08:52:09.859,-0.205,0.025
08:52:09.867,-0.205,0.025
08:52:09.875,-0.235,0.025
08:52:09.883,-0.205,0.005
08:52:09.891,-0.165,0.015
08:52:09.898,-0.145,0.025
08:52:09.906,-0.205,0.085
08:52:09.914,-0.685,0.185
08:52:09.922,-0.555,-0.045
08:52:09.930,0.615,-0.555
08:52:09.938,2.275,-0.245
08:52:09.945,2.755,0.235
08:52:09.953,2.555,0.765
08:52:09.961,1.215,0.065
08:52:09.969,-0.145,-0.805
08:52:09.977,-0.245,-0.355
08:52:09.984,-0.105,-0.025
08:52:09.992,-0.085,-0.015
08:52:10.000,-0.345,-0.005
08:52:10.008,-0.335,-0.045
08:52:10.016,-0.405,0.115
08:52:10.023,-0.385,0.155
08:52:10.031,-0.275,-0.045
08:52:10.039,-0.265,0.005
08:52:10.047,-0.255,0.045
08:52:10.055,-0.225,-0.095
08:52:10.063,-0.215,-0.145
08:52:10.070,-0.205,-0.125
08:52:10.078,-0.105,-0.065
08:52:10.086,-0.095,-0.055
08:52:10.094,-0.155,-0.055
08:52:10.102,-0.105,0.085
08:52:10.109,-0.075,-0.275
08:52:10.117,-0.125,-0.185
08:52:10.125,-0.065,-0.075
08:52:10.133,-0.155,-0.165
08:52:10.141,-0.035,-0.035
08:52:10.148,0.085,-0.355
08:52:10.156,0.165,-0.315
08:52:10.164,-0.015,-0.305
08:52:10.172,0.165,-0.195
08:52:10.180,-0.095,-0.225
08:52:10.188,0.135,-0.215
08:52:10.195,0.165,-0.115
08:52:10.203,0.055,0.005
08:52:10.211,-0.155,0.065
08:52:10.219,-0.235,0.095
08:52:10.227,-0.075,-0.025
08:52:10.234,-0.145,-0.045
08:52:10.242,-0.195,0.055
08:52:10.250,-0.195,0.045
08:52:10.258,-0.165,0.065
08:52:10.266,-0.125,0.025
08:52:10.273,-0.135,0.095
08:52:10.281,-0.195,0.045
08:52:10.289,-0.105,0.045
08:52:10.297,-0.235,0.045
08:52:10.305,-0.335,0.055
08:52:10.313,-0.195,0.045
08:52:10.320,-0.115,0.005
08:52:10.328,-0.155,0.025
08:52:10.336,-0.085,0.035
08:52:10.344,-0.095,0.065
08:52:10.352,-0.155,0.025
08:52:10.359,-0.255,0.035
08:52:10.367,-0.225,0.035
08:52:10.375,-0.115,0.005
08:52:10.383,-0.185,0.025
08:52:10.391,-0.185,0.035
08:52:10.398,-0.125,0.055
08:52:10.406,-0.135,0.045
08:52:10.414,-0.145,-0.015
08:52:10.422,-0.115,0.045
08:52:10.430,-0.165,0.035
08:52:10.438,-0.165,0.065
08:52:10.445,-0.065,-0.015
08:52:10.453,-0.065,-0.005
08:52:10.461,-0.135,0.035
08:52:10.469,-0.135,-0.015
08:52:10.477,-0.165,0.095
08:52:10.484,-0.135,0.155
08:52:10.492,-0.025,0.125
08:52:10.500,0.015,-0.125
08:52:10.508,-0.065,-0.155
08:52:10.516,0.005,-0.035
08:52:10.523,-0.075,-0.035
08:52:10.531,-0.115,0.005
08:52:10.539,-0.085,-0.055
08:52:10.547,-0.135,-0.005
08:52:10.555,-0.125,-0.015
08:52:10.563,-0.175,0.025
08:52:10.570,-0.165,-0.035
08:52:10.578,-0.145,-0.035
08:52:10.586,-0.125,-0.045
08:52:10.594,-0.145,0.025
08:52:10.602,-0.065,0.085
08:52:10.609,-0.145,-0.045
08:52:10.617,-0.735,0.105
08:52:10.625,-0.865,-0.115
08:52:10.633,0.185,-0.365
08:52:10.641,1.975,-0.265
08:52:10.648,2.905,0.085
08:52:10.656,2.755,0.345
08:52:10.664,2.065,0.335
08:52:10.672,0.315,-0.655
08:52:10.680,-0.245,-0.535
08:52:10.688,-0.105,-0.165
08:52:10.695,-0.205,-0.035
08:52:10.703,-0.185,-0.025
08:52:10.711,-0.225,-0.115
08:52:10.719,-0.285,-0.125
08:52:10.727,-0.325,-0.015
08:52:10.734,-0.295,-0.085
08:52:10.742,-0.165,-0.105
08:52:10.750,-0.165,-0.035
08:52:10.758,-0.105,-0.115
08:52:10.766,-0.225,-0.115
08:52:10.773,-0.185,-0.135
08:52:10.781,-0.125,-0.165
08:52:10.789,-0.215,-0.155
08:52:10.797,-0.085,-0.165
08:52:10.805,0.035,-0.085
08:52:10.813,0.005,-0.145
08:52:10.820,-0.035,-0.195
08:52:10.828,-0.135,-0.215
08:52:10.836,0.005,-0.285
08:52:10.844,0.045,-0.275
08:52:10.852,-0.015,-0.305
08:52:10.859,-0.005,-0.295
08:52:10.867,0.005,-0.355
08:52:10.875,0.005,-0.245
08:52:10.883,-0.075,-0.275
08:52:10.891,-0.085,-0.255
08:52:10.898,-0.015,-0.175
08:52:10.906,-0.055,-0.165
08:52:10.914,-0.115,-0.065
08:52:10.922,-0.135,-0.155
08:52:10.930,-0.165,-0.045
08:52:10.938,-0.195,-0.035
08:52:10.945,-0.175,-0.015
08:52:10.953,-0.225,-0.095
08:52:10.961,-0.135,-0.055
08:52:10.969,-0.105,-0.115
08:52:10.977,-0.305,-0.065
08:52:10.984,-0.085,-0.085
08:52:10.992,-0.055,0.005
08:52:11.000,-0.175,-0.125
08:52:11.008,-0.125,-0.065
08:52:11.016,-0.235,0.085
08:52:11.023,-0.135,-0.055
08:52:11.031,-0.275,0.065
08:52:11.039,-0.135,-0.045
08:52:11.047,-0.085,-0.065
08:52:11.055,-0.225,-0.045
08:52:11.063,-0.175,-0.165
08:52:11.070,-0.125,-0.125
08:52:11.078,-0.185,-0.065
08:52:11.086,-0.195,-0.165
08:52:11.094,-0.145,-0.105
08:52:11.102,-0.145,-0.035
08:52:11.109,-0.175,-0.065
08:52:11.117,-0.205,-0.105
08:52:11.125,-0.135,-0.115
08:52:11.133,-0.155,-0.055
08:52:11.141,-0.265,-0.075
08:52:11.148,-0.115,-0.105
08:52:11.156,-0.245,-0.145
08:52:11.164,-0.165,-0.075
08:52:11.172,-0.065,-0.015
08:52:11.180,-0.195,-0.155
08:52:11.188,-0.135,-0.155
08:52:11.195,-0.195,-0.065
08:52:11.203,-0.215,-0.045
08:52:11.211,-0.115,-0.155
08:52:11.219,-0.125,-0.085
08:52:11.227,-0.135,-0.085
08:52:11.234,-0.035,-0.075
08:52:11.242,-0.185,0.025
08:52:11.250,0.045,-0.175
08:52:11.258,0.005,-0.165
08:52:11.266,-0.105,-0.135
08:52:11.273,-0.065,-0.125
08:52:11.281,-0.215,-0.045
08:52:11.289,-0.125,-0.165
08:52:11.297,-0.245,-0.085
08:52:11.305,-0.205,-0.105
08:52:11.313,-0.115,-0.155
08:52:11.320,-0.205,-0.165
08:52:11.328,-0.225,-0.055
08:52:11.336,-0.105,-0.095
08:52:11.344,-0.155,-0.255
08:52:11.352,-0.245,-0.175
08:52:11.359,-0.335,-0.005
08:52:11.367,-0.945,0.005
08:52:11.375,-0.645,-0.135
08:52:11.383,0.935,-0.585
08:52:11.391,2.455,-0.435
08:52:11.398,2.915,0.115
08:52:11.406,2.515,0.405
08:52:11.414,0.765,-0.365
08:52:11.422,-0.315,-0.705
08:52:11.430,-0.235,-0.365
08:52:11.438,-0.205,-0.235
08:52:11.445,-0.325,-0.155
08:52:11.453,-0.275,-0.135
08:52:11.461,-0.375,-0.245
08:52:11.469,-0.355,-0.225
08:52:11.477,-0.365,-0.185
08:52:11.484,-0.305,-0.305
08:52:11.492,-0.345,-0.195
08:52:11.500,-0.345,-0.195
08:52:11.508,-0.255,-0.165
08:52:11.516,-0.235,-0.305
08:52:11.523,-0.235,-0.235
08:52:11.531,-0.295,-0.285
08:52:11.539,-0.225,-0.235
08:52:11.547,-0.205,-0.265
08:52:11.555,-0.175,-0.425
08:52:11.563,-0.155,-0.335
08:52:11.570,-0.115,-0.265
08:52:11.578,-0.205,-0.345
08:52:11.586,-0.035,-0.365
08:52:11.594,-0.075,-0.445
08:52:11.602,-0.075,-0.345
08:52:11.609,-0.005,-0.355
08:52:11.617,-0.295,-0.415
08:52:11.625,-0.165,-0.395
08:52:11.633,-0.105,-0.535
08:52:11.641,0.005,-0.435
08:52:11.648,-0.045,-0.305
08:52:11.656,-0.145,-0.245
08:52:11.664,-0.075,-0.225
08:52:11.672,-0.035,-0.175
08:52:11.680,-0.205,-0.145
08:52:11.688,-0.365,-0.195
08:52:11.695,-0.335,-0.095
08:52:11.703,-0.295,-0.115
08:52:11.711,-0.275,-0.135
08:52:11.719,-0.275,-0.155
08:52:11.727,-0.265,-0.145
08:52:11.734,-0.265,-0.195
08:52:11.742,-0.315,-0.075
08:52:11.750,-0.245,-0.065
08:52:11.758,-0.295,-0.125
08:52:11.766,-0.205,-0.195
08:52:11.773,-0.605,-0.135
08:52:11.781,-0.325,-0.115
08:52:11.789,-0.315,-0.095
08:52:11.797,-0.405,-0.155
08:52:11.805,-0.295,-0.145
08:52:11.813,-0.355,-0.295
08:52:11.820,-0.215,-0.025
08:52:11.828,-0.215,-0.115
08:52:11.836,-0.215,-0.095
08:52:11.844,-0.245,-0.125
08:52:11.852,-0.505,-0.165
08:52:11.859,-0.505,-0.085
08:52:11.867,-0.135,-0.195
08:52:11.875,-0.575,-0.215
08:52:11.883,-0.275,-0.015
08:52:11.891,-0.175,-0.075
08:52:11.898,-0.525,-0.145
08:52:11.906,-0.385,-0.045
08:52:11.914,-0.245,-0.145
08:52:11.922,-0.245,-0.135
08:52:11.930,-0.115,-0.055
08:52:11.938,-0.235,-0.085
08:52:11.945,-0.315,-0.125
08:52:11.953,-0.315,-0.105
08:52:11.961,-0.205,-0.055
08:52:11.969,-0.205,-0.115
08:52:11.977,-0.125,-0.145
08:52:11.984,-0.325,-0.135
08:52:11.992,-0.315,-0.135
08:52:12.000,-0.155,-0.105
08:52:12.008,-0.175,-0.115
08:52:12.016,-0.265,-0.045
08:52:12.023,-0.305,-0.085
08:52:12.031,-0.215,0.015
08:52:12.039,-0.285,-0.045
08:52:12.047,-0.285,-0.005
08:52:12.055,-0.305,-0.055
08:52:12.063,-0.485,-0.045
08:52:12.070,-0.285,-0.025
08:52:12.078,-0.195,-0.035
08:52:12.086,-0.035,-0.005
08:52:12.094,-0.475,0.065
08:52:12.102,-1.185,0.165
08:52:12.109,-0.945,-0.025
08:52:12.117,0.445,-0.455
08:52:12.125,2.375,-0.205
08:52:12.133,2.985,0.225
08:52:12.141,2.675,0.535
08:52:12.148,1.365,0.015
08:52:12.156,-0.275,-0.575
08:52:12.164,-0.425,-0.255
08:52:12.172,-0.335,-0.005
08:52:12.180,-0.485,0.015
08:52:12.188,-0.415,0.025
08:52:12.195,-0.455,0.035
08:52:12.203,-0.435,0.025
08:52:12.211,-0.385,-0.035
08:52:12.219,-0.385,0.015
08:52:12.227,-0.505,0.015
08:52:12.234,-0.465,-0.005
08:52:12.242,-0.485,0.055
08:52:12.250,-0.335,0.015
08:52:12.258,-0.295,0.015
08:52:12.266,-0.295,0.055
08:52:12.273,-0.315,0.005
08:52:12.281,-0.325,0.015
08:52:12.289,-0.215,-0.015
08:52:12.297,-0.145,0.025
08:52:12.305,-0.215,0.005
08:52:12.313,-0.135,-0.035
08:52:12.320,-0.055,-0.065
08:52:12.328,-0.175,-0.085
08:52:12.336,-0.135,-0.065
08:52:12.344,-0.015,-0.135
08:52:12.352,-0.045,-0.105
08:52:12.359,-0.055,-0.085
08:52:12.367,0.015,-0.095
08:52:12.375,-0.065,-0.115
08:52:12.383,-0.125,-0.075
08:52:12.391,-0.205,-0.025
08:52:12.398,-0.235,-0.045
08:52:12.406,-0.205,0.015
08:52:12.414,-0.285,0.065
08:52:12.422,-0.295,0.035
08:52:12.430,-0.265,0.025
08:52:12.438,-0.235,0.045
08:52:12.445,-0.305,0.125
08:52:12.453,-0.275,0.005
08:52:12.461,-0.345,0.025
08:52:12.469,-0.295,0.015
08:52:12.477,-0.375,0.065
08:52:12.484,-0.175,0.085
08:52:12.492,-0.335,0.035
08:52:12.500,-0.355,0.045
08:52:12.508,-0.175,-0.025
08:52:12.516,-0.235,0.085
08:52:12.523,-0.215,-0.005
08:52:12.531,-0.195,-0.025
08:52:12.539,-0.245,-0.005
08:52:12.547,-0.295,0.025
08:52:12.555,-0.245,0.035
08:52:12.563,-0.245,0.045
08:52:12.570,-0.235,-0.005
08:52:12.578,-0.205,0.105
08:52:12.586,-0.575,0.065
08:52:12.594,-0.065,0.045
08:52:12.602,-0.055,-0.055
08:52:12.609,-0.225,-0.045
08:52:12.617,-0.195,0.035
08:52:12.625,-0.235,-0.015
08:52:12.633,-0.205,-0.005
08:52:12.641,-0.225,0.025
08:52:12.648,-0.315,0.015
08:52:12.656,-0.285,0.105
08:52:12.664,-0.225,-0.025
08:52:12.672,-0.125,-0.065
08:52:12.680,-0.205,-0.045
08:52:12.688,-0.125,0.035
08:52:12.695,-0.195,-0.025
08:52:12.703,-0.065,-0.085
08:52:12.711,-0.195,-0.115
08:52:12.719,-0.095,-0.025
08:52:12.727,-0.115,-0.055
08:52:12.734,-0.185,-0.095
08:52:12.742,-0.215,-0.035
08:52:12.750,-0.315,-0.065
08:52:12.758,-0.175,0.055
08:52:12.766,-0.275,-0.035
08:52:12.773,-0.215,-0.075
08:52:12.781,-0.175,-0.095
08:52:12.789,-0.205,-0.075
08:52:12.797,-0.165,-0.045
08:52:12.805,-0.245,-0.035
08:52:12.813,-0.235,-0.035
08:52:12.820,-0.285,0.005
08:52:12.828,-0.805,0.195
08:52:12.836,-0.825,-0.025
08:52:12.844,0.405,-0.355
08:52:12.852,2.095,-0.355
08:52:12.859,2.905,-0.085
08:52:12.867,2.705,0.295
08:52:12.875,1.655,0.065
08:52:12.883,-0.045,-0.855
08:52:12.891,-0.395,-0.435
08:52:12.898,-0.175,-0.085
08:52:12.906,-0.175,-0.005
08:52:12.914,-0.255,-0.025
08:52:12.922,-0.255,-0.025
08:52:12.930,-0.255,-0.035
08:52:12.938,-0.265,-0.025
08:52:12.945,-0.235,-0.045
08:52:12.953,-0.225,-0.015
08:52:12.961,-0.215,-0.045
08:52:12.969,-0.215,-0.065
08:52:12.977,-0.165,-0.065
08:52:12.984,-0.145,-0.015
08:52:12.992,-0.125,-0.045
08:52:13.000,-0.075,-0.055
08:52:13.008,-0.045,-0.075
08:52:13.016,-0.035,-0.065
08:52:13.023,-0.045,-0.075
08:52:13.031,-0.005,-0.125
08:52:13.039,0.065,-0.115
08:52:13.047,0.025,-0.105
08:52:13.055,0.095,-0.165
08:52:13.063,0.075,-0.185
08:52:13.070,0.105,-0.155
08:52:13.078,0.115,-0.195
08:52:13.086,0.115,-0.225
08:52:13.094,0.065,-0.225
08:52:13.102,0.105,-0.205
08:52:13.109,-0.055,-0.135
08:52:13.117,-0.115,-0.195
08:52:13.125,0.045,-0.185
08:52:13.133,-0.065,-0.065
08:52:13.141,-0.135,-0.005
08:52:13.148,-0.225,-0.035
08:52:13.156,-0.155,-0.025
08:52:13.164,-0.185,-0.015
08:52:13.172,-0.215,-0.055
08:52:13.180,-0.225,-0.045
08:52:13.188,-0.185,-0.015
08:52:13.195,-0.215,-0.025
08:52:13.203,-0.215,0.025
08:52:13.211,-0.135,-0.005
08:52:13.219,-0.175,-0.035
08:52:13.227,-0.185,-0.025
08:52:13.234,-0.195,0.005
08:52:13.242,-0.145,-0.045
08:52:13.250,-0.175,-0.025
08:52:13.258,-0.215,-0.045
08:52:13.266,-0.165,-0.045
08:52:13.273,-0.165,-0.025
08:52:13.281,-0.155,-0.015
08:52:13.289,-0.165,-0.025
08:52:13.297,-0.195,0.005
08:52:13.305,-0.095,0.005
08:52:13.313,-0.145,-0.015
08:52:13.320,-0.145,-0.015
08:52:13.328,-0.145,-0.015
08:52:13.336,-0.155,-0.025
08:52:13.344,-0.145,-0.055
08:52:13.352,-0.155,-0.025
08:52:13.359,-0.135,-0.045
08:52:13.367,-0.165,-0.045
08:52:13.375,-0.135,-0.065
08:52:13.383,-0.115,-0.005
08:52:13.391,-0.135,-0.025
08:52:13.398,-0.125,-0.025
08:52:13.406,-0.065,-0.045
08:52:13.414,-0.025,-0.065
08:52:13.422,-0.005,-0.035
08:52:13.430,-0.135,-0.095
08:52:13.438,-0.095,-0.055
08:52:13.445,-0.085,-0.055
08:52:13.453,-0.235,-0.075
08:52:13.461,-0.095,-0.055
08:52:13.469,-0.165,-0.085
08:52:13.477,-0.215,-0.045
08:52:13.484,-0.225,0.015
08:52:13.492,-0.245,-0.045
08:52:13.500,-0.235,-0.045
08:52:13.508,0.005,-0.045
08:52:13.516,-0.145,0.055
08:52:13.523,-0.135,-0.035
08:52:13.531,-0.855,0.125
08:52:13.539,-0.965,0.065
08:52:13.547,0.135,-0.175
08:52:13.555,1.935,-0.265
08:52:13.563,2.955,-0.165
08:52:13.570,2.695,0.065
08:52:13.578,2.215,0.585
08:52:13.586,0.245,-0.055
08:52:13.594,-0.525,-0.615
08:52:13.602,-0.385,-0.285
08:52:13.609,-0.205,-0.015
08:52:13.617,-0.415,0.075
08:52:13.625,-0.365,0.315
08:52:13.633,-0.295,0.095
08:52:13.641,-0.255,-0.055
08:52:13.648,-0.285,0.005
08:52:13.656,-0.265,-0.025
08:52:13.664,-0.295,-0.115
08:52:13.672,-0.275,-0.025
08:52:13.680,-0.245,0.005
08:52:13.688,-0.225,-0.045
08:52:13.695,-0.215,-0.005
08:52:13.703,-0.225,-0.045
08:52:13.711,-0.155,-0.035
08:52:13.719,-0.135,-0.105
08:52:13.727,-0.065,-0.075
08:52:13.734,-0.055,-0.095
08:52:13.742,0.065,-0.125
08:52:13.750,-0.015,-0.115
08:52:13.758,-0.015,-0.195
08:52:13.766,0.045,-0.175
08:52:13.773,0.075,-0.205
08:52:13.781,0.155,-0.175
08:52:13.789,0.205,-0.195
08:52:13.797,0.155,-0.175
08:52:13.805,0.145,-0.195
08:52:13.813,0.215,-0.015
08:52:13.820,0.115,-0.205
08:52:13.828,0.005,-0.125
08:52:13.836,-0.055,-0.035
08:52:13.844,-0.145,-0.025
08:52:13.852,-0.215,-0.045
08:52:13.859,-0.235,-0.025
08:52:13.867,-0.245,-0.045
08:52:13.875,-0.175,0.045
08:52:13.883,-0.135,-0.015
08:52:13.891,-0.145,0.005
08:52:13.898,-0.155,0.095
08:52:13.906,-0.235,0.055
08:52:13.914,-0.145,0.075
08:52:13.922,-0.195,0.045
08:52:13.930,-0.135,-0.045
08:52:13.938,-0.185,-0.015
08:52:13.945,-0.155,-0.005
08:52:13.953,-0.185,0.015
08:52:13.961,-0.145,-0.035
08:52:13.969,-0.225,-0.045
08:52:13.977,-0.155,-0.005
08:52:13.984,-0.195,-0.005
08:52:13.992,-0.115,-0.025
08:52:14.000,-0.155,-0.045
08:52:14.008,-0.185,-0.025
08:52:14.016,-0.155,-0.015
08:52:14.023,-0.175,-0.005
08:52:14.031,-0.155,-0.025
08:52:14.039,-0.185,-0.005
08:52:14.047,-0.095,0.045
08:52:14.055,-0.105,-0.015
08:52:14.063,-0.125,0.045
08:52:14.070,-0.085,0.045
08:52:14.078,-0.005,-0.055
08:52:14.086,0.005,-0.005
08:52:14.094,0.045,-0.005
08:52:14.102,-0.115,-0.015
08:52:14.109,-0.225,-0.035
08:52:14.117,-0.215,0.005
08:52:14.125,-0.195,0.035
08:52:14.133,-0.125,0.005
08:52:14.141,-0.165,0.005
08:52:14.148,-0.185,-0.005
08:52:14.156,-0.155,0.015
08:52:14.164,-0.025,0.015
08:52:14.172,-0.205,0.005
08:52:14.180,-0.135,-0.025
08:52:14.188,-0.325,0.025
08:52:14.195,-0.915,0.145
08:52:14.203,-0.495,-0.015
08:52:14.211,1.085,-0.415
08:52:14.219,2.625,-0.185
08:52:14.227,2.985,0.155
08:52:14.234,2.785,0.575
08:52:14.242,1.165,0.105
08:52:14.250,-0.315,-0.665
08:52:14.258,-0.325,-0.345
08:52:14.266,-0.075,-0.075
08:52:14.273,-0.125,-0.005
08:52:14.281,-0.265,-0.025
08:52:14.289,-0.355,-0.035
08:52:14.297,-0.185,-0.025
08:52:14.305,-0.155,-0.015
08:52:14.313,-0.275,-0.005
08:52:14.320,-0.215,-0.055
08:52:14.328,-0.175,-0.025
08:52:14.336,-0.165,-0.055
08:52:14.344,-0.035,-0.055
08:52:14.352,-0.045,-0.065
08:52:14.359,-0.205,-0.055
08:52:14.367,-0.145,-0.065
08:52:14.375,0.025,-0.125
08:52:14.383,-0.045,-0.055
08:52:14.391,-0.155,-0.115
08:52:14.398,-0.015,-0.125
08:52:14.406,0.045,-0.175
08:52:14.414,0.045,-0.165
08:52:14.422,0.115,-0.195
08:52:14.430,0.095,-0.185
08:52:14.438,0.145,-0.215
08:52:14.445,0.125,-0.215
08:52:14.453,0.105,-0.215
08:52:14.461,0.145,-0.205
08:52:14.469,0.065,-0.165
08:52:14.477,0.035,-0.135
08:52:14.484,-0.035,-0.095
08:52:14.492,-0.055,-0.055
08:52:14.500,-0.095,-0.065
08:52:14.508,-0.095,-0.025
08:52:14.516,-0.115,-0.015
08:52:14.523,-0.065,-0.025
08:52:14.531,-0.175,-0.035
08:52:14.539,-0.185,-0.015
08:52:14.547,-0.165,-0.025
08:52:14.555,-0.105,-0.035
08:52:14.563,-0.145,-0.005
08:52:14.570,-0.135,-0.055
08:52:14.578,-0.145,0.015
08:52:14.586,-0.125,-0.045
08:52:14.594,-0.115,0.015
08:52:14.602,-0.135,-0.035
08:52:14.609,-0.065,0.005
08:52:14.617,-0.105,0.045
08:52:14.625,-0.105,-0.025
08:52:14.633,-0.125,-0.025
08:52:14.641,-0.095,-0.015
08:52:14.648,-0.075,0.015
08:52:14.656,-0.145,0.005
08:52:14.664,-0.035,-0.005
08:52:14.672,-0.085,0.015
08:52:14.680,-0.215,-0.025
08:52:14.688,-0.125,-0.005
08:52:14.695,-0.115,-0.045
08:52:14.703,-0.095,0.005
08:52:14.711,-0.045,0.005
08:52:14.719,-0.085,0.055
08:52:14.727,-0.055,0.085
08:52:14.734,-0.015,-0.015
08:52:14.742,0.055,-0.075
08:52:14.750,0.035,-0.025
08:52:14.758,-0.025,-0.075
08:52:14.766,-0.135,-0.115
08:52:14.773,-0.145,-0.075
08:52:14.781,-0.025,0.005
08:52:14.789,-0.145,0.005
08:52:14.797,-0.195,0.005
08:52:14.805,-0.155,0.105
08:52:14.813,-0.205,-0.045
08:52:14.820,-0.145,0.005
08:52:14.828,-0.195,-0.045
08:52:14.836,-0.165,0.085
08:52:14.844,-0.085,0.085
08:52:14.852,-0.685,0.025
08:52:14.859,-0.825,0.065
08:52:14.867,0.075,-0.255
08:52:14.875,1.985,-0.385
08:52:14.883,2.935,-0.125
08:52:14.891,2.955,0.145
08:52:14.898,2.485,0.315
08:52:14.906,0.485,-0.675
08:52:14.914,-0.385,-0.675
08:52:14.922,-0.225,-0.165
08:52:14.930,-0.255,-0.005
08:52:14.938,-0.225,0.005
08:52:14.945,-0.285,-0.015
08:52:14.953,-0.295,0.005
08:52:14.961,-0.315,0.005
08:52:14.969,-0.265,-0.005
08:52:14.977,-0.255,0.005
08:52:14.984,-0.225,0.025
08:52:14.992,-0.205,0.005
08:52:15.000,-0.205,-0.005
08:52:15.008,-0.195,-0.035
08:52:15.016,-0.155,-0.015
08:52:15.023,-0.145,-0.035
08:52:15.031,-0.135,-0.075
08:52:15.039,-0.115,-0.075
08:52:15.047,-0.075,-0.105
08:52:15.055,-0.045,-0.145
08:52:15.063,-0.015,-0.165
08:52:15.070,0.025,-0.165
08:52:15.078,0.065,-0.175
08:52:15.086,0.105,-0.215
08:52:15.094,0.115,-0.215
08:52:15.102,0.135,-0.185
08:52:15.109,0.135,-0.185
08:52:15.117,0.155,-0.205
08:52:15.125,0.145,-0.165
08:52:15.133,0.105,-0.165
08:52:15.141,0.075,-0.105
08:52:15.148,0.005,-0.075
08:52:15.156,-0.085,-0.065
08:52:15.164,-0.065,-0.035
08:52:15.172,-0.085,-0.005
08:52:15.180,-0.135,-0.005
08:52:15.188,-0.105,0.005
08:52:15.195,-0.135,-0.005
08:52:15.203,-0.125,-0.005
08:52:15.211,-0.145,-0.035
08:52:15.219,-0.155,-0.015
08:52:15.227,-0.155,-0.015
08:52:15.234,-0.085,0.005
08:52:15.242,-0.125,-0.005
08:52:15.250,-0.145,-0.025
08:52:15.258,-0.115,-0.005
08:52:15.266,-0.125,0.005
08:52:15.273,-0.155,-0.005
08:52:15.281,-0.115,0.005
08:52:15.289,-0.125,-0.025
08:52:15.297,-0.105,0.015
08:52:15.305,-0.105,-0.015
08:52:15.313,-0.115,-0.005
08:52:15.320,-0.135,0.005
08:52:15.328,-0.145,-0.015
08:52:15.336,-0.115,-0.015
08:52:15.344,-0.065,0.085
08:52:15.352,-0.085,0.015
08:52:15.359,-0.035,0.065
08:52:15.367,0.005,-0.005
08:52:15.375,-0.015,-0.025
08:52:15.383,-0.115,-0.045
08:52:15.391,-0.135,-0.035
08:52:15.398,-0.115,-0.045
08:52:15.406,-0.085,-0.025
08:52:15.414,-0.165,0.005
08:52:15.422,-0.135,-0.035
08:52:15.430,-0.175,-0.005
08:52:15.438,-0.165,-0.055
08:52:15.445,-0.185,-0.045
08:52:15.453,-0.155,-0.005
08:52:15.461,-0.175,-0.015
08:52:15.469,-0.145,-0.065
08:52:15.477,-0.255,-0.005
08:52:15.484,-0.855,0.185
08:52:15.492,-0.645,0.075
08:52:15.500,0.625,-0.255
08:52:15.508,2.405,-0.385
08:52:15.516,3.065,-0.195
08:52:15.523,2.845,0.165
08:52:15.531,1.715,0.455
08:52:15.539,-0.165,-0.585
08:52:15.547,-0.425,-0.515
08:52:15.555,-0.175,-0.175
08:52:15.563,-0.255,-0.045
08:52:15.570,-0.265,-0.045
08:52:15.578,-0.255,-0.035
08:52:15.586,-0.295,-0.065
08:52:15.594,-0.285,-0.065
08:52:15.602,-0.285,-0.045
08:52:15.609,-0.265,-0.075
08:52:15.617,-0.285,-0.055
08:52:15.625,-0.195,-0.055
08:52:15.633,-0.185,-0.085
08:52:15.641,-0.225,-0.075
08:52:15.648,-0.155,-0.095
08:52:15.656,-0.155,-0.095
08:52:15.664,-0.145,-0.105
08:52:15.672,-0.095,-0.095
08:52:15.680,-0.115,-0.125
08:52:15.688,-0.015,-0.145
08:52:15.695,-0.025,-0.145
08:52:15.703,0.035,-0.145
08:52:15.711,0.075,-0.155
08:52:15.719,0.065,-0.165
08:52:15.727,0.105,-0.185
08:52:15.734,0.105,-0.165
08:52:15.742,0.135,-0.195
08:52:15.750,0.105,-0.185
08:52:15.758,0.055,-0.115
08:52:15.766,0.065,-0.125
08:52:15.773,-0.035,-0.105
08:52:15.781,-0.115,-0.095
08:52:15.789,-0.145,-0.065
08:52:15.797,-0.155,-0.055
08:52:15.805,-0.155,-0.055
08:52:15.813,-0.205,-0.055
08:52:15.820,-0.205,-0.055
08:52:15.828,-0.235,-0.025
08:52:15.836,-0.205,-0.075
08:52:15.844,-0.225,-0.055
08:52:15.852,-0.255,-0.065
08:52:15.859,-0.165,-0.065
08:52:15.867,-0.185,-0.045
08:52:15.875,-0.205,-0.045
08:52:15.883,-0.205,-0.065
08:52:15.891,-0.195,-0.035
08:52:15.898,-0.185,-0.065
08:52:15.906,-0.145,-0.045
08:52:15.914,-0.155,-0.055
08:52:15.922,-0.185,-0.075
08:52:15.930,-0.155,-0.035
08:52:15.938,-0.195,-0.065
08:52:15.945,-0.095,-0.045
08:52:15.953,-0.085,0.005
08:52:15.961,-0.135,-0.005
08:52:15.969,-0.125,-0.015
08:52:15.977,-0.045,-0.015
08:52:15.984,0.005,-0.055
08:52:15.992,-0.135,-0.075
08:52:16.000,-0.145,-0.095
08:52:16.008,-0.165,-0.065
08:52:16.016,-0.135,-0.055
08:52:16.023,-0.205,-0.055
08:52:16.031,-0.165,-0.065
08:52:16.039,-0.205,-0.045
08:52:16.047,-0.235,-0.065
08:52:16.055,-0.225,-0.075
08:52:16.063,-0.245,-0.055
08:52:16.070,-0.195,-0.055
08:52:16.078,-0.135,-0.065
08:52:16.086,-0.225,-0.065
08:52:16.094,-0.805,0.155
08:52:16.102,-0.835,0.185
08:52:16.109,0.375,0.045
08:52:16.117,2.235,-0.135
08:52:16.125,3.105,-0.355
08:52:16.133,3.085,-0.265
08:52:16.141,2.405,0.105
08:52:16.148,0.095,-0.405
08:52:16.156,-0.465,-0.565
08:52:16.164,-0.225,-0.165
08:52:16.172,-0.165,-0.005
08:52:16.180,-0.295,-0.005
08:52:16.188,-0.335,-0.025
08:52:16.195,-0.305,-0.045
08:52:16.203,-0.335,-0.025
08:52:16.211,-0.335,-0.035
08:52:16.219,-0.295,-0.005
08:52:16.227,-0.265,-0.015
08:52:16.234,-0.265,-0.015
08:52:16.242,-0.255,-0.045
08:52:16.250,-0.225,-0.035
08:52:16.258,-0.205,-0.015
08:52:16.266,-0.185,-0.045
08:52:16.273,-0.135,-0.015
08:52:16.281,-0.125,-0.025
08:52:16.289,-0.095,-0.025
08:52:16.297,-0.055,-0.035
08:52:16.305,-0.015,-0.025
08:52:16.313,-0.005,-0.025
08:52:16.320,0.105,-0.035
08:52:16.328,0.145,-0.055
08:52:16.336,0.105,-0.045
08:52:16.344,0.125,-0.045
08:52:16.352,0.175,-0.055
08:52:16.359,0.205,-0.075
08:52:16.367,0.125,-0.065
08:52:16.375,0.025,-0.085
08:52:16.383,0.095,-0.075
08:52:16.391,-0.155,-0.045
08:52:16.398,-0.155,-0.075
08:52:16.406,-0.195,-0.075
08:52:16.414,-0.165,-0.055
08:52:16.422,-0.265,-0.065
08:52:16.430,-0.285,-0.065
08:52:16.438,-0.295,-0.075
08:52:16.445,-0.255,-0.065
08:52:16.453,-0.275,-0.065
08:52:16.461,-0.275,-0.055
08:52:16.469,-0.265,-0.065
08:52:16.477,-0.285,-0.065
08:52:16.484,-0.245,-0.075
08:52:16.492,-0.225,-0.055
08:52:16.500,-0.235,-0.085
08:52:16.508,-0.215,-0.075
08:52:16.516,-0.275,-0.065
08:52:16.523,-0.225,-0.065
08:52:16.531,-0.155,-0.065
08:52:16.539,-0.225,-0.075
08:52:16.547,-0.215,-0.075
08:52:16.555,-0.215,-0.065
08:52:16.563,-0.055,-0.055
08:52:16.570,-0.075,-0.045
08:52:16.578,-0.055,-0.025
08:52:16.586,-0.075,-0.055
08:52:16.594,-0.185,-0.075
08:52:16.602,-0.185,-0.095
08:52:16.609,-0.215,-0.135
08:52:16.617,-0.185,-0.085
08:52:16.625,-0.275,-0.105
08:52:16.633,-0.135,-0.065
08:52:16.641,-0.045,-0.085
08:52:16.648,-0.395,-0.055
08:52:16.656,-0.395,-0.115
08:52:16.664,-0.245,-0.095
08:52:16.672,-0.165,-0.065
08:52:16.680,-0.315,-0.055
08:52:16.688,-0.285,-0.085
08:52:16.695,-0.415,-0.065
08:52:16.703,-1.025,0.195
08:52:16.711,-0.385,0.185
08:52:16.719,1.305,0.025
08:52:16.727,2.745,-0.125
08:52:16.734,3.185,-0.425
08:52:16.742,2.905,-0.175
08:52:16.750,1.085,-0.165
08:52:16.758,-0.265,-0.635
08:52:16.766,-0.225,-0.205
08:52:16.773,-0.235,-0.055
08:52:16.781,-0.315,-0.055
08:52:16.789,-0.315,-0.075
08:52:16.797,-0.285,-0.035
08:52:16.805,-0.445,-0.035
08:52:16.813,-0.315,-0.055
08:52:16.820,-0.285,-0.055
08:52:16.828,-0.265,-0.005
08:52:16.836,-0.295,-0.045
08:52:16.844,-0.295,-0.055
08:52:16.852,-0.245,-0.025
08:52:16.859,-0.225,-0.015
08:52:16.867,-0.035,-0.055
08:52:16.875,-0.035,-0.015
08:52:16.883,-0.245,-0.015
08:52:16.891,-0.115,-0.015
08:52:16.898,-0.075,-0.055
08:52:16.906,-0.065,-0.015
08:52:16.914,0.055,-0.025
08:52:16.922,0.085,-0.035
08:52:16.930,0.085,-0.045
08:52:16.938,0.175,-0.035
08:52:16.945,0.175,-0.045
08:52:16.953,0.215,-0.055
08:52:16.961,0.135,-0.055
08:52:16.969,0.065,-0.085
08:52:16.977,0.085,-0.115
08:52:16.984,-0.105,-0.105
08:52:16.992,-0.175,-0.095
08:52:17.000,-0.205,-0.105
08:52:17.008,-0.235,-0.135
08:52:17.016,-0.215,-0.115
08:52:17.023,-0.235,-0.095
08:52:17.031,-0.255,-0.125
08:52:17.039,-0.275,-0.115
08:52:17.047,-0.305,-0.115
08:52:17.055,-0.245,-0.105
08:52:17.063,-0.235,-0.095
08:52:17.070,-0.265,-0.105
08:52:17.078,-0.255,-0.085
08:52:17.086,-0.245,-0.115
08:52:17.094,-0.225,-0.115
08:52:17.102,-0.275,-0.085
08:52:17.109,-0.225,-0.105
08:52:17.117,-0.225,-0.085
08:52:17.125,-0.165,-0.095
08:52:17.133,-0.275,-0.105
08:52:17.141,-0.265,-0.105
08:52:17.148,-0.165,-0.085
08:52:17.156,-0.185,-0.075
08:52:17.164,-0.205,-0.045
08:52:17.172,-0.185,-0.065
08:52:17.180,-0.165,-0.075
08:52:17.188,-0.135,-0.085
08:52:17.195,-0.165,-0.095
08:52:17.203,-0.205,-0.125
08:52:17.211,-0.145,-0.135
08:52:17.219,-0.255,-0.105
08:52:17.227,-0.265,-0.135
08:52:17.234,-0.225,-0.065
08:52:17.242,-0.225,-0.085
08:52:17.250,-0.255,-0.125
08:52:17.258,-0.295,-0.105
08:52:17.266,-0.265,-0.115
08:52:17.273,-0.275,-0.055
08:52:17.281,-0.275,-0.105
08:52:17.289,-0.225,-0.115
08:52:17.297,-0.305,-0.055
08:52:17.305,-0.965,0.135
08:52:17.313,-0.885,0.215
08:52:17.320,0.445,0.055
08:52:17.328,2.285,-0.055
08:52:17.336,3.065,-0.575
08:52:17.344,3.005,-0.535
08:52:17.352,2.355,-0.335
08:52:17.359,0.225,-0.745
08:52:17.367,-0.345,-0.445
08:52:17.375,-0.185,-0.055
08:52:17.383,-0.265,0.015
08:52:17.391,-0.345,0.005
08:52:17.398,-0.365,-0.025
08:52:17.406,-0.405,-0.035
08:52:17.414,-0.385,-0.005
08:52:17.422,-0.335,0.005
08:52:17.430,-0.345,0.015
08:52:17.438,-0.345,-0.025
08:52:17.445,-0.315,-0.015
08:52:17.453,-0.275,0.015
08:52:17.461,-0.285,0.025
08:52:17.469,-0.255,-0.005
08:52:17.477,-0.225,0.035
08:52:17.484,-0.205,0.035
08:52:17.492,-0.155,0.005
08:52:17.500,-0.105,0.015
08:52:17.508,-0.135,0.035
08:52:17.516,-0.075,0.015
08:52:17.523,-0.035,0.025
08:52:17.531,-0.025,-0.005
08:52:17.539,0.005,-0.005
08:52:17.547,0.045,0.015
08:52:17.555,0.035,-0.025
08:52:17.563,0.055,-0.045
08:52:17.570,-0.005,-0.075
08:52:17.578,-0.015,-0.095
08:52:17.586,-0.055,-0.085
08:52:17.594,-0.135,-0.085
08:52:17.602,-0.165,-0.105
08:52:17.609,-0.235,-0.095
08:52:17.617,-0.215,-0.115
08:52:17.625,-0.275,-0.075
08:52:17.633,-0.315,-0.095
08:52:17.641,-0.295,-0.095
08:52:17.648,-0.275,-0.105
08:52:17.656,-0.265,-0.125
08:52:17.664,-0.265,-0.075
08:52:17.672,-0.205,-0.065
08:52:17.680,-0.245,-0.095
08:52:17.688,-0.245,-0.105
08:52:17.695,-0.235,-0.065
08:52:17.703,-0.225,-0.075
08:52:17.711,-0.255,-0.085
08:52:17.719,-0.245,-0.095
08:52:17.727,-0.235,-0.085
08:52:17.734,-0.235,-0.085
08:52:17.742,-0.245,-0.095
08:52:17.750,-0.265,-0.105
08:52:17.758,-0.225,-0.075
08:52:17.766,-0.225,-0.065
08:52:17.773,-0.245,-0.095
08:52:17.781,-0.215,-0.085
08:52:17.789,-0.155,-0.045
08:52:17.797,-0.155,-0.035
08:52:17.805,-0.165,-0.035
08:52:17.813,-0.065,-0.075
08:52:17.820,-0.125,-0.095
08:52:17.828,-0.185,-0.105
08:52:17.836,-0.205,-0.125
08:52:17.844,-0.225,-0.125
08:52:17.852,-0.195,-0.105
08:52:17.859,-0.215,-0.085
08:52:17.867,-0.225,-0.095
08:52:17.875,-0.225,-0.105
08:52:17.883,-0.295,-0.085
08:52:17.891,-0.255,-0.095
08:52:17.898,-0.255,-0.075
08:52:17.906,-0.225,-0.075
08:52:17.914,-0.165,-0.065
08:52:17.922,-0.275,-0.015
08:52:17.930,-0.885,0.235
08:52:17.938,-0.835,0.305
08:52:17.945,0.385,0.085
08:52:17.953,2.195,-0.105
08:52:17.961,3.025,-0.785
08:52:17.969,2.895,-0.685
08:52:17.977,1.985,-0.545
08:52:17.984,0.085,-0.905
08:52:17.992,-0.375,-0.405
08:52:18.000,-0.185,-0.015
08:52:18.008,-0.215,0.045
08:52:18.016,-0.345,0.045
08:52:18.023,-0.355,0.015
08:52:18.031,-0.325,0.025
08:52:18.039,-0.315,0.045
08:52:18.047,-0.325,0.045
08:52:18.055,-0.315,0.035
08:52:18.063,-0.325,0.025
08:52:18.070,-0.265,0.045
08:52:18.078,-0.255,0.065
08:52:18.086,-0.245,0.065
08:52:18.094,-0.235,0.045
08:52:18.102,-0.175,0.055
08:52:18.109,-0.135,0.065
08:52:18.117,-0.135,0.065
08:52:18.125,-0.105,0.045
08:52:18.133,-0.065,0.055
08:52:18.141,-0.025,0.045
08:52:18.148,-0.005,0.055
08:52:18.156,0.015,0.025
08:52:18.164,0.065,0.015
08:52:18.172,0.085,0.005
08:52:18.180,0.095,-0.045
08:52:18.188,0.055,-0.045
08:52:18.195,0.115,-0.065
08:52:18.203,0.065,-0.065
08:52:18.211,-0.035,-0.085
08:52:18.219,-0.015,-0.085
08:52:18.227,-0.135,-0.055
08:52:18.234,-0.135,-0.065
08:52:18.242,-0.175,-0.065
08:52:18.250,-0.225,-0.075
08:52:18.258,-0.205,-0.065
08:52:18.266,-0.205,-0.035
08:52:18.273,-0.225,-0.055
08:52:18.281,-0.205,-0.075
08:52:18.289,-0.185,-0.055
08:52:18.297,-0.205,-0.045
08:52:18.305,-0.205,-0.065
08:52:18.313,-0.185,-0.065
08:52:18.320,-0.175,-0.065
08:52:18.328,-0.185,-0.055
08:52:18.336,-0.225,-0.055
08:52:18.344,-0.185,-0.065
08:52:18.352,-0.185,-0.045
08:52:18.359,-0.195,-0.045
08:52:18.367,-0.265,-0.085
08:52:18.375,-0.195,-0.085
08:52:18.383,-0.155,-0.055
08:52:18.391,-0.185,-0.045
08:52:18.398,-0.215,-0.085
08:52:18.406,-0.185,-0.085
08:52:18.414,-0.195,-0.055
08:52:18.422,-0.165,-0.055
08:52:18.430,-0.245,-0.055
08:52:18.438,-0.045,-0.055
08:52:18.445,-0.085,0.005
08:52:18.453,-0.085,-0.045
08:52:18.461,-0.095,-0.125
08:52:18.469,-0.195,-0.105
08:52:18.477,-0.095,-0.105
08:52:18.484,-0.165,-0.095
08:52:18.492,-0.215,-0.105
08:52:18.500,-0.215,-0.085
08:52:18.508,-0.185,-0.075
08:52:18.516,-0.205,-0.105
08:52:18.523,-0.235,-0.055
08:52:18.531,-0.265,-0.075
08:52:18.539,-0.235,-0.105
08:52:18.547,-0.185,-0.075
08:52:18.555,-0.175,-0.055
08:52:18.563,-0.255,-0.005
08:52:18.570,-0.905,0.275
08:52:18.578,-0.745,0.255
08:52:18.586,0.465,-0.035
08:52:18.594,2.185,-0.275
08:52:18.602,2.965,-0.815
08:52:18.609,2.795,-0.515
08:52:18.617,1.795,-0.535
08:52:18.625,0.065,-0.965
08:52:18.633,-0.335,-0.415
08:52:18.641,-0.195,-0.025
08:52:18.648,-0.185,0.015
08:52:18.656,-0.305,0.005
08:52:18.664,-0.305,-0.005
08:52:18.672,-0.385,0.015
08:52:18.680,-0.325,-0.005
08:52:18.688,-0.295,0.075
08:52:18.695,-0.345,0.045
08:52:18.703,-0.355,-0.055
08:52:18.711,-0.215,-0.025
08:52:18.719,-0.225,0.015
08:52:18.727,-0.255,0.045
08:52:18.734,-0.155,0.005
08:52:18.742,-0.185,0.015
08:52:18.750,-0.165,0.005
08:52:18.758,-0.135,-0.015
08:52:18.766,-0.085,-0.005
08:52:18.773,-0.045,-0.005
08:52:18.781,-0.105,-0.035
08:52:18.789,0.035,-0.065
08:52:18.797,0.035,-0.005
08:52:18.805,0.035,-0.065
08:52:18.813,0.025,-0.085
08:52:18.820,0.105,-0.095
08:52:18.828,0.055,-0.105
08:52:18.836,0.065,-0.135
08:52:18.844,0.045,-0.145
08:52:18.852,-0.015,-0.125
08:52:18.859,-0.055,-0.105
08:52:18.867,-0.145,-0.085
08:52:18.875,-0.135,-0.105
08:52:18.883,-0.195,-0.055
08:52:18.891,-0.225,-0.085
08:52:18.898,-0.195,-0.075
08:52:18.906,-0.245,-0.075
08:52:18.914,-0.235,-0.085
08:52:18.922,-0.215,-0.065
08:52:18.930,-0.215,-0.085
08:52:18.938,-0.195,-0.095
08:52:18.945,-0.215,-0.045
08:52:18.953,-0.205,-0.035
08:52:18.961,-0.205,-0.065
08:52:18.969,-0.185,-0.075
08:52:18.977,-0.225,-0.055
08:52:18.984,-0.185,-0.045
08:52:18.992,-0.225,-0.055
08:52:19.000,-0.215,-0.055
08:52:19.008,-0.195,-0.065
08:52:19.016,-0.195,-0.045
08:52:19.023,-0.215,-0.055
08:52:19.031,-0.195,-0.045
08:52:19.039,-0.165,-0.055
08:52:19.047,-0.195,-0.065
08:52:19.055,-0.225,-0.075
08:52:19.063,-0.195,-0.065
08:52:19.070,-0.175,-0.065
08:52:19.078,-0.155,-0.085
08:52:19.086,-0.215,-0.035
08:52:19.094,-0.075,-0.035
08:52:19.102,-0.095,-0.035
08:52:19.109,-0.045,-0.115
08:52:19.117,-0.205,-0.105
08:52:19.125,-0.135,-0.125
08:52:19.133,-0.175,-0.105
08:52:19.141,-0.195,-0.085
08:52:19.148,-0.235,-0.095
08:52:19.156,-0.205,-0.085
08:52:19.164,-0.185,-0.075
08:52:19.172,-0.195,-0.075
08:52:19.180,-0.375,-0.085
08:52:19.188,-0.225,-0.105
08:52:19.195,-0.225,-0.065
08:52:19.203,-0.255,-0.065
08:52:19.211,-0.325,-0.045
08:52:19.219,-0.555,0.105
08:52:19.227,-1.025,0.235
08:52:19.234,-0.195,0.015
08:52:19.242,1.685,-0.255
08:52:19.250,2.775,-0.555
08:52:19.258,2.875,-0.385
08:52:19.266,2.215,-0.215
08:52:19.273,0.485,-0.875
08:52:19.281,-0.535,-0.665
08:52:19.289,-0.275,-0.145
08:52:19.297,-0.235,0.015
08:52:19.305,-0.285,-0.005
08:52:19.313,-0.485,-0.045
08:52:19.320,-0.345,-0.045
08:52:19.328,-0.255,-0.005
08:52:19.336,-0.365,-0.025
08:52:19.344,-0.425,-0.015
08:52:19.352,-0.345,-0.035
08:52:19.359,-0.295,-0.025
08:52:19.367,-0.255,-0.015
08:52:19.375,-0.255,-0.045
08:52:19.383,-0.275,-0.045
08:52:19.391,-0.155,-0.025
08:52:19.398,-0.205,-0.025
08:52:19.406,-0.245,-0.055
08:52:19.414,-0.055,-0.045
08:52:19.422,-0.145,-0.055
08:52:19.430,-0.065,-0.065
08:52:19.438,-0.025,-0.085
08:52:19.445,-0.025,-0.095
08:52:19.453,0.015,-0.115
08:52:19.461,0.045,-0.145
08:52:19.469,0.065,-0.165
08:52:19.477,0.025,-0.145
08:52:19.484,0.035,-0.175
08:52:19.492,0.065,-0.175
08:52:19.500,0.005,-0.175
08:52:19.508,-0.085,-0.155
08:52:19.516,-0.095,-0.145
08:52:19.523,-0.215,-0.115
08:52:19.531,-0.145,-0.165
08:52:19.539,-0.095,-0.125
08:52:19.547,-0.295,-0.065
08:52:19.555,-0.195,-0.085
08:52:19.563,-0.275,-0.085
08:52:19.570,-0.275,-0.075
08:52:19.578,-0.355,-0.075
08:52:19.586,-0.255,-0.095
08:52:19.594,-0.315,-0.095
08:52:19.602,-0.185,-0.115
08:52:19.609,-0.095,-0.075
08:52:19.617,-0.285,-0.065
08:52:19.625,-0.215,-0.115
08:52:19.633,-0.205,-0.105
08:52:19.641,-0.145,-0.055
08:52:19.648,-0.265,-0.105
08:52:19.656,-0.305,-0.095
08:52:19.664,-0.285,-0.095
08:52:19.672,-0.285,-0.085
08:52:19.680,-0.315,-0.085
08:52:19.688,-0.205,-0.115
08:52:19.695,-0.225,-0.065
08:52:19.703,-0.225,-0.055
08:52:19.711,-0.185,-0.115
08:52:19.719,-0.285,-0.165
08:52:19.727,-0.195,-0.145
08:52:19.734,-0.155,-0.145
08:52:19.742,-0.315,-0.035
08:52:19.750,-0.145,-0.065
08:52:19.758,-0.075,0.015
08:52:19.766,-0.045,-0.095
08:52:19.773,-0.205,-0.095
08:52:19.781,-0.195,-0.135
08:52:19.789,-0.295,-0.145
08:52:19.797,-0.125,-0.105
08:52:19.805,-0.275,-0.105
08:52:19.813,-0.375,-0.145
08:52:19.820,-0.225,-0.125
08:52:19.828,-0.305,-0.035
08:52:19.836,-0.255,-0.075
08:52:19.844,-0.175,-0.095
08:52:19.852,-0.315,-0.065
08:52:19.859,-0.285,-0.105
08:52:19.867,-0.165,-0.045
08:52:19.875,-0.535,-0.015
08:52:19.883,-1.125,0.185
08:52:19.891,-0.385,-0.005
08:52:19.898,1.185,-0.315
08:52:19.906,2.635,-0.395
08:52:19.914,2.885,-0.305
08:52:19.922,2.525,-0.065
08:52:19.930,0.595,-0.705
08:52:19.938,-0.375,-0.835
08:52:19.945,-0.315,-0.235
08:52:19.953,-0.235,0.005
08:52:19.961,-0.325,-0.025
08:52:19.969,-0.425,-0.055
08:52:19.977,-0.475,-0.025
08:52:19.984,-0.425,0.035
08:52:19.992,-0.355,0.025
08:52:20.000,-0.425,-0.095
08:52:20.008,-0.345,-0.075
08:52:20.016,-0.315,-0.065
08:52:20.023,-0.355,-0.025
08:52:20.031,-0.315,0.015
08:52:20.039,-0.235,0.015
08:52:20.047,-0.205,0.015
08:52:20.055,-0.335,-0.005
08:52:20.063,-0.245,-0.035
08:52:20.070,-0.235,-0.005
08:52:20.078,-0.105,-0.055
08:52:20.086,-0.215,0.025
08:52:20.094,-0.195,-0.085
08:52:20.102,-0.135,-0.175
08:52:20.109,-0.085,-0.165
08:52:20.117,-0.165,-0.135
08:52:20.125,-0.075,-0.155
08:52:20.133,-0.075,-0.165
08:52:20.141,-0.035,-0.145
08:52:20.148,-0.015,-0.105
08:52:20.156,-0.075,-0.115
08:52:20.164,-0.175,-0.155
08:52:20.172,-0.175,-0.095
08:52:20.180,-0.205,-0.055
08:52:20.188,-0.305,-0.065
08:52:20.195,-0.305,-0.035
08:52:20.203,-0.265,0.025
08:52:20.211,-0.255,-0.045
08:52:20.219,-0.305,-0.105
08:52:20.227,-0.235,-0.035
08:52:20.234,-0.255,-0.045
08:52:20.242,-0.235,-0.025
08:52:20.250,-0.235,-0.025
08:52:20.258,-0.225,-0.055
08:52:20.266,-0.335,-0.025
08:52:20.273,-0.325,0.005
08:52:20.281,-0.285,-0.065
08:52:20.289,-0.245,-0.005
08:52:20.297,-0.235,-0.055
08:52:20.305,-0.185,-0.015
08:52:20.313,-0.235,-0.065
08:52:20.320,-0.265,-0.075
08:52:20.328,-0.225,-0.015
08:52:20.336,-0.235,-0.055
08:52:20.344,-0.295,-0.025
08:52:20.352,-0.215,-0.025
08:52:20.359,-0.235,-0.015
08:52:20.367,-0.275,-0.045
08:52:20.375,-0.235,-0.065
08:52:20.383,-0.305,-0.015
08:52:20.391,-0.245,-0.005
08:52:20.398,-0.235,-0.025
08:52:20.406,-0.245,-0.105
08:52:20.414,-0.215,-0.045
08:52:20.422,-0.185,0.005
08:52:20.430,-0.135,-0.005
08:52:20.438,-0.145,-0.045
08:52:20.445,-0.145,-0.105
08:52:20.453,-0.215,-0.075
08:52:20.461,-0.195,-0.085
08:52:20.469,-0.235,-0.075
08:52:20.477,-0.265,-0.065
08:52:20.484,-0.275,0.005
08:52:20.492,-0.295,-0.055
08:52:20.500,-0.245,-0.055
08:52:20.508,-0.265,-0.065
08:52:20.516,-0.225,-0.085
08:52:20.523,-0.255,-0.065
08:52:20.531,-0.255,-0.045
08:52:20.539,-0.235,-0.045
08:52:20.547,-0.155,-0.025
08:52:20.555,-0.795,0.185
08:52:20.563,-1.025,0.245
08:52:20.570,-0.375,-0.025
08:52:20.578,1.395,-0.325
08:52:20.586,2.705,-0.495
08:52:20.594,2.825,-0.255
08:52:20.602,2.375,-0.065
08:52:20.609,0.585,-0.725
08:52:20.617,-0.455,-0.755
08:52:20.625,-0.295,-0.195
08:52:20.633,-0.275,0.125
08:52:20.641,-0.325,0.045
08:52:20.648,-0.355,-0.025
08:52:20.656,-0.395,-0.015
08:52:20.664,-0.345,-0.005
08:52:20.672,-0.465,0.015
08:52:20.680,-0.425,0.025
08:52:20.688,-0.375,0.025
08:52:20.695,-0.355,-0.045
08:52:20.703,-0.305,0.005
08:52:20.711,-0.345,-0.035
08:52:20.719,-0.215,-0.035
08:52:20.727,-0.175,-0.025
08:52:20.734,-0.315,-0.015
08:52:20.742,-0.215,-0.055
08:52:20.750,-0.185,-0.005
08:52:20.758,-0.205,-0.015
08:52:20.766,-0.115,-0.095
08:52:20.773,-0.155,-0.145
08:52:20.781,-0.095,-0.145
08:52:20.789,-0.045,-0.095
08:52:20.797,0.015,-0.145
08:52:20.805,0.015,-0.185
08:52:20.813,-0.115,-0.195
08:52:20.820,-0.035,-0.165
08:52:20.828,-0.035,-0.145
08:52:20.836,-0.035,-0.115
08:52:20.844,-0.085,-0.135
08:52:20.852,-0.235,-0.055
08:52:20.859,-0.135,-0.105
08:52:20.867,-0.135,-0.055
08:52:20.875,-0.305,-0.015
08:52:20.883,-0.255,-0.035
08:52:20.891,-0.245,-0.035
08:52:20.898,-0.155,-0.035
08:52:20.906,-0.305,-0.005
08:52:20.914,-0.315,-0.045
08:52:20.922,-0.245,-0.025
08:52:20.930,-0.215,0.065
08:52:20.938,-0.215,-0.045
08:52:20.945,-0.185,-0.005
08:52:20.953,-0.145,0.005
08:52:20.961,-0.255,0.015
08:52:20.969,-0.235,-0.005
08:52:20.977,-0.235,-0.015
08:52:20.984,-0.225,0.005
08:52:20.992,-0.205,-0.005
08:52:21.000,-0.195,-0.025
08:52:21.008,-0.245,0.035
08:52:21.016,-0.235,-0.025
08:52:21.023,-0.145,-0.035
08:52:21.031,-0.165,-0.025
08:52:21.039,-0.215,-0.005
08:52:21.047,-0.185,-0.015
08:52:21.055,-0.175,-0.015
08:52:21.063,-0.215,-0.015
08:52:21.070,-0.205,0.005
08:52:21.078,-0.205,0.035
08:52:21.086,-0.225,-0.025
08:52:21.094,-0.155,-0.035
08:52:21.102,-0.165,-0.005
08:52:21.109,-0.155,0.035
08:52:21.117,-0.105,0.045
08:52:21.125,-0.045,-0.085
08:52:21.133,-0.115,-0.085
08:52:21.141,-0.145,-0.015
08:52:21.148,-0.115,-0.075
08:52:21.156,-0.235,-0.085
08:52:21.164,-0.155,0.015
08:52:21.172,-0.145,-0.025
08:52:21.180,-0.205,-0.065
08:52:21.188,-0.245,0.025
08:52:21.195,-0.225,-0.055
08:52:21.203,-0.185,-0.085
08:52:21.211,-0.175,-0.025
08:52:21.219,-0.155,-0.035
08:52:21.227,-0.125,-0.035
08:52:21.234,-0.265,0.045
08:52:21.242,-0.805,0.215
08:52:21.250,-0.555,0.045
08:52:21.258,0.765,-0.265
08:52:21.266,2.355,-0.325
08:52:21.273,2.835,-0.205
08:52:21.281,2.545,0.175
08:52:21.289,1.295,-0.065
08:52:21.297,-0.155,-0.855
08:52:21.305,-0.265,-0.455
08:52:21.313,-0.195,-0.115
08:52:21.320,-0.205,-0.015
08:52:21.328,-0.215,-0.035
08:52:21.336,-0.255,-0.025
08:52:21.344,-0.315,-0.025
08:52:21.352,-0.275,-0.015
08:52:21.359,-0.225,-0.025
08:52:21.367,-0.245,-0.045
08:52:21.375,-0.185,-0.025
08:52:21.383,-0.215,-0.035
08:52:21.391,-0.255,0.015
08:52:21.398,-0.175,-0.045
08:52:21.406,-0.145,-0.115
08:52:21.414,-0.105,-0.085
08:52:21.422,-0.095,-0.085
08:52:21.430,-0.115,-0.105
08:52:21.438,-0.085,-0.085
08:52:21.445,-0.045,-0.125
08:52:21.453,0.005,-0.125
08:52:21.461,0.065,-0.145
08:52:21.469,0.045,-0.185
08:52:21.477,0.085,-0.165
08:52:21.484,0.095,-0.185
08:52:21.492,0.115,-0.255
08:52:21.500,0.205,-0.255
08:52:21.508,0.035,-0.255
08:52:21.516,0.005,-0.225
08:52:21.523,0.045,-0.175
08:52:21.531,0.005,-0.125
08:52:21.539,-0.045,-0.085
08:52:21.547,-0.075,-0.035
08:52:21.555,-0.095,-0.045
08:52:21.563,-0.145,-0.025
08:52:21.570,-0.125,-0.025
08:52:21.578,-0.105,-0.055
08:52:21.586,-0.255,-0.085
08:52:21.594,-0.175,-0.065
08:52:21.602,-0.115,-0.045
08:52:21.609,-0.135,0.005
08:52:21.617,-0.195,-0.015
08:52:21.625,-0.105,-0.015
08:52:21.633,-0.105,0.035
08:52:21.641,-0.005,-0.035
08:52:21.648,-0.135,-0.065
08:52:21.656,-0.175,-0.005
08:52:21.664,-0.135,-0.025
08:52:21.672,-0.085,-0.015
08:52:21.680,-0.115,-0.045
08:52:21.688,-0.115,-0.035
08:52:21.695,-0.125,-0.015
08:52:21.703,-0.095,0.015
08:52:21.711,-0.125,-0.015
08:52:21.719,-0.125,-0.015
08:52:21.727,-0.105,-0.015
08:52:21.734,-0.115,-0.015
08:52:21.742,-0.105,0.005
08:52:21.750,-0.115,0.005
08:52:21.758,-0.125,-0.075
08:52:21.766,-0.115,-0.065
08:52:21.773,-0.085,-0.005
08:52:21.781,-0.045,-0.025
08:52:21.789,-0.095,0.015
08:52:21.797,0.085,0.045
08:52:21.805,-0.025,0.005
08:52:21.813,-0.045,-0.045
08:52:21.820,-0.075,-0.115
08:52:21.828,-0.095,-0.075
08:52:21.836,-0.085,-0.035
08:52:21.844,-0.075,-0.045
08:52:21.852,-0.085,-0.075
08:52:21.859,-0.105,-0.035
08:52:21.867,-0.145,-0.065
08:52:21.875,-0.145,-0.065
08:52:21.883,-0.145,-0.025
08:52:21.891,-0.165,-0.045
08:52:21.898,-0.115,-0.065
08:52:21.906,-0.105,-0.035
08:52:21.914,-0.575,0.205
08:52:21.922,-0.875,0.155
08:52:21.930,-0.065,-0.085
08:52:21.938,1.545,-0.575
08:52:21.945,2.735,-0.355
08:52:21.953,2.775,-0.095
08:52:21.961,2.355,0.275
08:52:21.969,0.525,-0.375
08:52:21.977,-0.355,-0.725
08:52:21.984,-0.185,-0.295
08:52:21.992,-0.155,-0.055
08:52:22.000,-0.255,-0.025
08:52:22.008,-0.255,-0.015
08:52:22.016,-0.225,-0.065
08:52:22.023,-0.225,-0.075
08:52:22.031,-0.185,-0.055
08:52:22.039,-0.245,-0.055
08:52:22.047,-0.215,-0.045
08:52:22.055,-0.165,-0.055
08:52:22.063,-0.175,-0.065
08:52:22.070,-0.195,-0.065
08:52:22.078,-0.125,-0.065
08:52:22.086,-0.065,-0.075
08:52:22.094,-0.075,-0.105
08:52:22.102,-0.065,-0.065
08:52:22.109,-0.065,-0.115
08:52:22.117,-0.015,-0.145
08:52:22.125,-0.025,-0.115
08:52:22.133,0.055,-0.165
08:52:22.141,0.245,-0.175
08:52:22.148,0.075,-0.185
08:52:22.156,0.065,-0.225
08:52:22.164,0.135,-0.225
08:52:22.172,0.175,-0.245
08:52:22.180,0.075,-0.245
08:52:22.188,0.155,-0.215
08:52:22.195,0.115,-0.195
08:52:22.203,0.085,-0.135
08:52:22.211,-0.015,-0.115
08:52:22.219,-0.035,-0.085
08:52:22.227,-0.025,-0.075
08:52:22.234,-0.035,-0.055
08:52:22.242,0.045,-0.015
08:52:22.250,-0.195,-0.025
08:52:22.258,-0.145,-0.005
08:52:22.266,-0.085,0.025
08:52:22.273,-0.155,-0.065
08:52:22.281,-0.075,-0.055
08:52:22.289,-0.185,-0.035
08:52:22.297,-0.085,-0.045
08:52:22.305,-0.055,-0.025
08:52:22.313,-0.015,-0.035
08:52:22.320,-0.025,-0.045
08:52:22.328,-0.115,-0.015
08:52:22.336,-0.095,-0.045
08:52:22.344,-0.145,-0.075
08:52:22.352,-0.145,-0.005
08:52:22.359,-0.075,0.015
08:52:22.367,-0.045,-0.025
08:52:22.375,-0.105,-0.015
08:52:22.383,-0.095,-0.045
08:52:22.391,-0.025,-0.025
08:52:22.398,-0.025,-0.025
08:52:22.406,-0.175,-0.025
08:52:22.414,-0.145,-0.025
08:52:22.422,-0.035,-0.005
08:52:22.430,0.005,-0.025
08:52:22.438,-0.075,0.015
08:52:22.445,-0.025,0.025
08:52:22.453,0.005,0.015
08:52:22.461,0.035,-0.035
08:52:22.469,0.015,-0.065
08:52:22.477,-0.005,-0.065
08:52:22.484,0.035,-0.085
08:52:22.492,-0.005,-0.065
08:52:22.500,-0.145,-0.035
08:52:22.508,-0.175,-0.045
08:52:22.516,-0.105,-0.045
08:52:22.523,-0.125,-0.025
08:52:22.531,-0.125,-0.055
08:52:22.539,-0.205,0.005
08:52:22.547,-0.075,-0.075
08:52:22.555,-0.105,-0.075
08:52:22.563,-0.075,0.015
08:52:22.570,-0.105,0.015
08:52:22.578,-0.785,0.225
08:52:22.586,-0.555,0.035
08:52:22.594,0.885,-0.295
08:52:22.602,2.425,-0.415
08:52:22.609,2.935,-0.305
08:52:22.617,2.655,0.125
08:52:22.625,1.195,-0.285
08:52:22.633,-0.165,-0.925
08:52:22.641,-0.255,-0.405
08:52:22.648,-0.165,-0.065
08:52:22.656,-0.165,0.005
08:52:22.664,-0.145,0.085
08:52:22.672,-0.255,-0.025
08:52:22.680,-0.305,-0.035
08:52:22.688,-0.255,0.005
08:52:22.695,-0.175,-0.005
08:52:22.703,-0.145,-0.005
08:52:22.711,-0.205,-0.015
08:52:22.719,-0.235,-0.025
08:52:22.727,-0.155,0.015
08:52:22.734,-0.065,-0.025
08:52:22.742,-0.195,-0.065
08:52:22.750,-0.135,-0.075
08:52:22.758,-0.105,-0.055
08:52:22.766,-0.065,-0.055
08:52:22.773,-0.005,-0.095
08:52:22.781,-0.015,-0.135
08:52:22.789,0.025,-0.125
08:52:22.797,0.075,-0.175
08:52:22.805,0.035,-0.235
08:52:22.813,0.085,-0.205
08:52:22.820,0.105,-0.225
08:52:22.828,0.115,-0.245
08:52:22.836,0.105,-0.225
08:52:22.844,0.105,-0.195
08:52:22.852,0.055,-0.185
08:52:22.859,0.035,-0.145
08:52:22.867,-0.005,-0.115
08:52:22.875,-0.075,-0.125
08:52:22.883,-0.165,-0.065
08:52:22.891,-0.135,-0.045
08:52:22.898,-0.205,-0.025
08:52:22.906,-0.225,0.005
08:52:22.914,-0.225,0.015
08:52:22.922,-0.185,-0.005
08:52:22.930,-0.175,-0.115
08:52:22.938,-0.225,-0.055
08:52:22.945,-0.175,0.005
08:52:22.953,-0.195,-0.015
08:52:22.961,-0.225,-0.095
08:52:22.969,-0.155,-0.045
08:52:22.977,-0.195,0.045
08:52:22.984,-0.205,-0.035
08:52:22.992,-0.175,-0.005
08:52:23.000,-0.195,-0.005
08:52:23.008,-0.165,-0.005
08:52:23.016,-0.155,0.015
08:52:23.023,-0.155,-0.025
08:52:23.031,-0.165,-0.005
08:52:23.039,-0.185,-0.015
08:52:23.047,-0.085,-0.005
08:52:23.055,-0.135,-0.005
08:52:23.063,-0.205,-0.035
08:52:23.070,-0.145,-0.025
08:52:23.078,-0.085,0.095
08:52:23.086,-0.085,0.025
08:52:23.094,-0.085,0.025
08:52:23.102,-0.045,-0.005
08:52:23.109,-0.065,-0.015
08:52:23.117,-0.095,-0.045
08:52:23.125,-0.155,-0.065
08:52:23.133,-0.135,-0.055
08:52:23.141,-0.115,-0.025
08:52:23.148,-0.075,0.015
08:52:23.156,-0.215,0.015
08:52:23.164,-0.205,-0.055
08:52:23.172,-0.225,-0.045
08:52:23.180,-0.135,-0.055
08:52:23.188,-0.225,-0.025
08:52:23.195,-0.195,-0.045
08:52:23.203,-0.125,-0.025
08:52:23.211,-0.595,0.125
08:52:23.219,-0.855,0.145
08:52:23.227,0.045,-0.075
08:52:23.234,1.795,-0.375
08:52:23.242,2.865,-0.275
08:52:23.250,2.795,-0.145
08:52:23.258,2.205,0.185
08:52:23.266,0.335,-0.425
08:52:23.273,-0.385,-0.675
08:52:23.281,-0.195,-0.265
08:52:23.289,-0.225,-0.025
08:52:23.297,-0.295,-0.005
08:52:23.305,-0.305,-0.025
08:52:23.313,-0.325,-0.025
08:52:23.320,-0.285,-0.005
08:52:23.328,-0.235,-0.025
08:52:23.336,-0.245,-0.065
08:52:23.344,-0.245,-0.025
08:52:23.352,-0.235,-0.045
08:52:23.359,-0.165,-0.055
08:52:23.367,-0.185,-0.035
08:52:23.375,-0.175,-0.055
08:52:23.383,-0.135,-0.085
08:52:23.391,-0.125,-0.075
08:52:23.398,-0.085,-0.085
08:52:23.406,-0.065,-0.095
08:52:23.414,-0.025,-0.165
08:52:23.422,-0.005,-0.145
08:52:23.430,-0.005,-0.185
08:52:23.438,0.085,-0.215
08:52:23.445,0.065,-0.195
08:52:23.453,0.095,-0.225
08:52:23.461,0.105,-0.245
08:52:23.469,0.145,-0.205
08:52:23.477,0.115,-0.245
08:52:23.484,0.075,-0.195
08:52:23.492,0.045,-0.185
08:52:23.500,-0.025,-0.105
08:52:23.508,-0.095,-0.105
08:52:23.516,-0.125,-0.095
08:52:23.523,-0.125,-0.055
08:52:23.531,-0.205,-0.055
08:52:23.539,-0.215,0.005
08:52:23.547,-0.205,-0.035
08:52:23.555,-0.215,-0.055
08:52:23.563,-0.195,-0.045
08:52:23.570,-0.265,-0.035
08:52:23.578,-0.205,0.005
08:52:23.586,-0.185,-0.065
08:52:23.594,-0.165,-0.075
08:52:23.602,-0.185,-0.035
08:52:23.609,-0.185,-0.025
08:52:23.617,-0.175,-0.025
08:52:23.625,-0.175,-0.055
08:52:23.633,-0.195,-0.055
08:52:23.641,-0.185,-0.035
08:52:23.648,-0.165,-0.055
08:52:23.656,-0.155,-0.075
08:52:23.664,-0.175,-0.075
08:52:23.672,-0.175,-0.055
08:52:23.680,-0.145,-0.045
08:52:23.688,-0.125,-0.045
08:52:23.695,-0.185,-0.065
08:52:23.703,-0.195,-0.055
08:52:23.711,-0.195,-0.055
08:52:23.719,-0.185,-0.095
08:52:23.727,-0.155,-0.025
08:52:23.734,-0.095,-0.045
08:52:23.742,-0.085,-0.005
08:52:23.750,-0.095,-0.035
08:52:23.758,-0.085,-0.035
08:52:23.766,-0.045,-0.075
08:52:23.773,-0.095,-0.065
08:52:23.781,-0.125,-0.095
08:52:23.789,-0.205,-0.085
08:52:23.797,-0.165,-0.065
08:52:23.805,-0.165,-0.015
08:52:23.813,-0.165,-0.055
08:52:23.820,-0.185,-0.085
08:52:23.828,-0.215,-0.055
08:52:23.836,-0.155,-0.035
08:52:23.844,-0.175,-0.055
08:52:23.852,-0.155,-0.065
08:52:23.859,-0.155,-0.055
08:52:23.867,-0.215,-0.035
08:52:23.875,-0.825,0.125
08:52:23.883,-0.795,0.125
08:52:23.891,0.305,-0.165
08:52:23.898,2.135,-0.355
08:52:23.906,2.965,-0.285
08:52:23.914,2.815,-0.045
08:52:23.922,2.065,0.165
08:52:23.930,0.185,-0.585
08:52:23.938,-0.445,-0.655
08:52:23.945,-0.255,-0.215
08:52:23.953,-0.215,0.005
08:52:23.961,-0.285,-0.035
08:52:23.969,-0.365,-0.035
08:52:23.977,-0.285,-0.015
08:52:23.984,-0.285,0.005
08:52:23.992,-0.315,-0.025
08:52:24.000,-0.295,-0.025
08:52:24.008,-0.245,-0.015
08:52:24.016,-0.225,-0.045
08:52:24.023,-0.205,-0.045
08:52:24.031,-0.215,-0.035
08:52:24.039,-0.175,-0.035
08:52:24.047,-0.145,-0.065
08:52:24.055,-0.145,-0.085
08:52:24.063,-0.115,-0.075
08:52:24.070,-0.085,-0.085
08:52:24.078,-0.065,-0.115
08:52:24.086,-0.005,-0.145
08:52:24.094,0.005,-0.155
08:52:24.102,0.045,-0.175
08:52:24.109,0.085,-0.175
08:52:24.117,0.095,-0.185
08:52:24.125,0.105,-0.205
08:52:24.133,0.145,-0.205
08:52:24.141,0.155,-0.205
08:52:24.148,0.105,-0.195
08:52:24.156,0.035,-0.175
08:52:24.164,0.025,-0.105
08:52:24.172,-0.035,-0.085
08:52:24.180,-0.135,-0.085
08:52:24.188,-0.165,-0.055
08:52:24.195,-0.175,-0.065
08:52:24.203,-0.195,-0.025
08:52:24.211,-0.175,-0.035
08:52:24.219,-0.215,-0.035
08:52:24.227,-0.195,-0.035
08:52:24.234,-0.175,-0.035
08:52:24.242,-0.195,-0.065
08:52:24.250,-0.195,-0.055
08:52:24.258,-0.185,-0.045
08:52:24.266,-0.185,-0.025
08:52:24.273,-0.175,-0.065
08:52:24.281,-0.165,-0.045
08:52:24.289,-0.185,-0.045
08:52:24.297,-0.145,-0.045
08:52:24.305,-0.165,-0.045
08:52:24.313,-0.155,-0.035
08:52:24.320,-0.165,-0.065
08:52:24.328,-0.115,-0.045
08:52:24.336,-0.155,-0.045
08:52:24.344,-0.165,-0.025
08:52:24.352,-0.145,-0.095
08:52:24.359,-0.145,-0.055
08:52:24.367,-0.165,-0.065
08:52:24.375,-0.145,-0.055
08:52:24.383,-0.135,-0.075
08:52:24.391,-0.155,-0.065
08:52:24.398,-0.145,-0.055
08:52:24.406,-0.145,-0.055
08:52:24.414,-0.115,-0.055
08:52:24.422,-0.085,-0.035
08:52:24.430,-0.105,-0.015
08:52:24.438,-0.045,0.015
08:52:24.445,-0.025,-0.065
08:52:24.453,0.005,-0.125
08:52:24.461,-0.055,-0.105
08:52:24.469,-0.125,-0.115
08:52:24.477,-0.145,-0.095
08:52:24.484,-0.115,-0.075
08:52:24.492,-0.135,-0.065
08:52:24.500,-0.155,-0.085
08:52:24.508,-0.155,-0.065
08:52:24.516,-0.165,-0.045
08:52:24.523,-0.185,-0.075
08:52:24.531,-0.205,-0.075
08:52:24.539,-0.175,-0.065
08:52:24.547,-0.135,-0.045
08:52:24.555,-0.135,-0.055
08:52:24.563,-0.565,0.075
08:52:24.570,-0.895,0.165
08:52:24.578,-0.165,-0.055
08:52:24.586,1.485,-0.375
08:52:24.594,2.775,-0.325
08:52:24.602,3.055,-0.275
08:52:24.609,2.545,0.005
08:52:24.617,0.665,-0.525
08:52:24.625,-0.345,-0.785
08:52:24.633,-0.295,-0.335
08:52:24.641,-0.175,-0.055
08:52:24.648,-0.205,0.005
08:52:24.656,-0.295,-0.025
08:52:24.664,-0.325,-0.065
08:52:24.672,-0.255,-0.035
08:52:24.680,-0.325,-0.005
08:52:24.688,-0.325,0.015
08:52:24.695,-0.285,-0.055
08:52:24.703,-0.235,-0.025
08:52:24.711,-0.245,-0.005
08:52:24.719,-0.195,-0.025
08:52:24.727,-0.175,-0.035
08:52:24.734,-0.145,-0.055
08:52:24.742,-0.145,-0.045
08:52:24.750,-0.125,-0.025
08:52:24.758,-0.095,-0.065
08:52:24.766,-0.075,-0.085
08:52:24.773,-0.065,-0.095
08:52:24.781,-0.015,-0.095
08:52:24.789,0.035,-0.095
08:52:24.797,0.075,-0.135
08:52:24.805,0.075,-0.165
08:52:24.813,0.115,-0.145
08:52:24.820,0.095,-0.165
08:52:24.828,0.125,-0.135
08:52:24.836,0.095,-0.165
08:52:24.844,0.085,-0.155
08:52:24.852,0.025,-0.115
08:52:24.859,-0.065,-0.085
08:52:24.867,-0.085,-0.055
08:52:24.875,-0.145,-0.045
08:52:24.883,-0.175,-0.085
08:52:24.891,-0.195,-0.025
08:52:24.898,-0.205,-0.035
08:52:24.906,-0.215,-0.035
08:52:24.914,-0.225,-0.025
08:52:24.922,-0.215,-0.025
08:52:24.930,-0.205,-0.045
08:52:24.938,-0.215,-0.025
08:52:24.945,-0.185,-0.025
08:52:24.953,-0.185,-0.045
08:52:24.961,-0.215,-0.045
08:52:24.969,-0.195,-0.035
08:52:24.977,-0.185,0.005
08:52:24.984,-0.165,-0.035
08:52:24.992,-0.165,-0.035
08:52:25.000,-0.175,-0.035
08:52:25.008,-0.165,-0.045
08:52:25.016,-0.165,-0.025
08:52:25.023,-0.175,-0.015
08:52:25.031,-0.185,-0.045
08:52:25.039,-0.185,-0.035
08:52:25.047,-0.165,-0.035
08:52:25.055,-0.175,-0.025
08:52:25.063,-0.185,-0.075
08:52:25.070,-0.165,-0.055
08:52:25.078,-0.155,-0.045
08:52:25.086,-0.175,-0.075
08:52:25.094,-0.165,-0.055
08:52:25.102,-0.165,-0.045
08:52:25.109,-0.155,-0.045
08:52:25.117,-0.155,-0.045
08:52:25.125,-0.145,-0.055
08:52:25.133,-0.155,-0.065
08:52:25.141,-0.135,-0.055
08:52:25.148,-0.075,-0.005
08:52:25.156,-0.125,-0.055
08:52:25.164,-0.115,-0.055
08:52:25.172,-0.045,-0.045
08:52:25.180,0.035,-0.105
08:52:25.188,-0.105,-0.115
08:52:25.195,-0.125,-0.105
08:52:25.203,-0.155,-0.075
08:52:25.211,-0.085,-0.075
08:52:25.219,-0.115,-0.095
08:52:25.227,-0.145,-0.075
08:52:25.234,-0.175,0.015
08:52:25.242,-0.165,-0.075
08:52:25.250,-0.175,-0.115
08:52:25.258,-0.195,-0.055
08:52:25.266,-0.155,-0.055
08:52:25.273,-0.125,-0.045
08:52:25.281,-0.155,-0.025
08:52:25.289,-0.595,0.175
08:52:25.297,-0.825,0.195
08:52:25.305,-0.015,-0.055
08:52:25.313,1.795,-0.315
08:52:25.320,2.895,-0.355
08:52:25.328,3.035,-0.195
08:52:25.336,2.485,-0.015
08:52:25.344,0.555,-0.795
08:52:25.352,-0.285,-0.705
08:52:25.359,-0.175,-0.175
08:52:25.367,-0.145,0.045
08:52:25.375,-0.255,-0.035
08:52:25.383,-0.335,-0.005
08:52:25.391,-0.295,0.025
08:52:25.398,-0.275,-0.015
08:52:25.406,-0.255,0.035
08:52:25.414,-0.355,-0.015
08:52:25.422,-0.305,0.015
08:52:25.430,-0.215,-0.005
08:52:25.438,-0.235,-0.055
08:52:25.445,-0.215,-0.005
08:52:25.453,-0.185,0.045
08:52:25.461,-0.145,-0.015
08:52:25.469,-0.165,-0.075
08:52:25.477,-0.155,-0.075
08:52:25.484,-0.165,-0.045
08:52:25.492,-0.055,-0.005
08:52:25.500,-0.055,-0.115
08:52:25.508,-0.045,-0.085
08:52:25.516,0.035,-0.095
08:52:25.523,0.075,-0.115
08:52:25.531,0.065,-0.105
08:52:25.539,0.095,-0.185
08:52:25.547,0.105,-0.155
08:52:25.555,0.105,-0.155
08:52:25.563,0.135,-0.125
08:52:25.570,0.095,-0.195
08:52:25.578,0.055,-0.105
08:52:25.586,-0.045,-0.105
08:52:25.594,-0.065,-0.075
08:52:25.602,-0.145,-0.075
08:52:25.609,-0.155,-0.045
08:52:25.617,-0.195,-0.035
08:52:25.625,-0.235,-0.065
08:52:25.633,-0.235,-0.045
08:52:25.641,-0.235,-0.035
08:52:25.648,-0.285,-0.045
08:52:25.656,-0.235,-0.065
08:52:25.664,-0.205,-0.035
08:52:25.672,-0.265,0.005
08:52:25.680,-0.245,-0.055
08:52:25.688,-0.215,-0.035
08:52:25.695,-0.245,-0.035
08:52:25.703,-0.195,0.005
08:52:25.711,-0.215,-0.025
08:52:25.719,-0.225,-0.035
08:52:25.727,-0.215,-0.015
08:52:25.734,-0.235,-0.005
08:52:25.742,-0.255,-0.015
08:52:25.750,-0.245,-0.025
08:52:25.758,-0.225,-0.035
08:52:25.766,-0.225,-0.015
08:52:25.773,-0.225,-0.015
08:52:25.781,-0.215,-0.035
08:52:25.789,-0.245,-0.035
08:52:25.797,-0.255,-0.025
08:52:25.805,-0.295,-0.025
08:52:25.813,-0.195,-0.045
08:52:25.820,-0.205,-0.095
08:52:25.828,-0.225,-0.065
08:52:25.836,-0.195,-0.055
08:52:25.844,-0.225,-0.045
08:52:25.852,-0.245,-0.105
08:52:25.859,-0.185,-0.075
08:52:25.867,-0.195,-0.035
08:52:25.875,-0.195,-0.075
08:52:25.883,-0.195,-0.055
08:52:25.891,-0.185,-0.075
08:52:25.898,-0.205,-0.075
08:52:25.906,-0.135,-0.065
08:52:25.914,-0.135,-0.075
08:52:25.922,-0.115,-0.035
08:52:25.930,-0.155,-0.065
08:52:25.938,-0.055,-0.125
08:52:25.945,-0.035,-0.105
08:52:25.953,-0.115,-0.065
08:52:25.961,-0.115,-0.055
08:52:25.969,-0.175,-0.095
08:52:25.977,-0.135,-0.055
08:52:25.984,-0.155,-0.055
08:52:25.992,-0.135,-0.045
08:52:26.000,-0.155,-0.055
08:52:26.008,-0.235,-0.085
08:52:26.016,-0.165,-0.055
08:52:26.023,-0.175,-0.055
08:52:26.031,-0.095,-0.035
08:52:26.039,-0.125,-0.035
08:52:26.047,-0.365,0.045
08:52:26.055,-0.785,0.245
08:52:26.063,-0.485,0.105
08:52:26.070,0.915,-0.225
08:52:26.078,2.515,-0.295
08:52:26.086,3.035,-0.415
08:52:26.094,2.685,-0.115
08:52:26.102,1.045,-0.705
08:52:26.109,-0.215,-0.875
08:52:26.117,-0.215,-0.325
08:52:26.125,-0.175,-0.025
08:52:26.133,-0.245,-0.045
08:52:26.141,-0.285,-0.055
08:52:26.148,-0.315,-0.075
08:52:26.156,-0.295,-0.055
08:52:26.164,-0.285,-0.075
08:52:26.172,-0.345,-0.025
08:52:26.180,-0.305,-0.025
08:52:26.188,-0.265,-0.025
08:52:26.195,-0.245,-0.035
08:52:26.203,-0.235,-0.035
08:52:26.211,-0.215,-0.035
08:52:26.219,-0.175,-0.035
08:52:26.227,-0.115,-0.035
08:52:26.234,-0.075,-0.015
08:52:26.242,-0.095,-0.015
08:52:26.250,-0.085,-0.035
08:52:26.258,-0.055,-0.035
08:52:26.266,-0.005,-0.065
08:52:26.273,0.025,-0.075
08:52:26.281,0.095,-0.115
08:52:26.289,0.065,-0.095
08:52:26.297,0.105,-0.095
08:52:26.305,0.175,-0.115
08:52:26.313,0.155,-0.145
08:52:26.320,0.095,-0.135
08:52:26.328,0.125,-0.125
08:52:26.336,0.045,-0.135
08:52:26.344,0.025,-0.115
08:52:26.352,-0.025,-0.105
08:52:26.359,-0.085,-0.055
08:52:26.367,-0.105,-0.085
08:52:26.375,-0.225,-0.065
08:52:26.383,-0.215,-0.075
08:52:26.391,-0.195,-0.045
08:52:26.398,-0.205,-0.055
08:52:26.406,-0.235,-0.055
08:52:26.414,-0.225,-0.085
08:52:26.422,-0.205,-0.075
08:52:26.430,-0.175,-0.065
08:52:26.438,-0.145,-0.055
08:52:26.445,-0.265,-0.025
08:52:26.453,-0.225,-0.045
08:52:26.461,-0.165,-0.065
08:52:26.469,-0.155,-0.025
08:52:26.477,-0.275,-0.055
08:52:26.484,-0.245,-0.025
08:52:26.492,-0.165,-0.055
08:52:26.500,-0.185,-0.025
08:52:26.508,-0.225,-0.055
08:52:26.516,-0.205,-0.035
08:52:26.523,-0.195,-0.005
08:52:26.531,-0.165,-0.065
08:52:26.539,-0.115,-0.065
08:52:26.547,-0.235,-0.045
08:52:26.555,-0.265,-0.045
08:52:26.563,-0.195,-0.075
08:52:26.570,-0.175,-0.065
08:52:26.578,-0.225,-0.045
08:52:26.586,-0.265,-0.085
08:52:26.594,-0.205,0.035
08:52:26.602,-0.175,-0.065
08:52:26.609,-0.215,-0.115
08:52:26.617,-0.165,-0.025
08:52:26.625,-0.155,-0.085
08:52:26.633,-0.235,-0.105
08:52:26.641,-0.135,-0.085
08:52:26.648,-0.105,-0.045
08:52:26.656,-0.175,-0.065
08:52:26.664,-0.235,-0.075
08:52:26.672,-0.175,-0.085
08:52:26.680,-0.125,-0.005
08:52:26.688,-0.085,-0.055
08:52:26.695,-0.115,-0.105
08:52:26.703,0.035,-0.095
08:52:26.711,-0.085,-0.065
08:52:26.719,-0.175,-0.115
08:52:26.727,-0.135,-0.115
08:52:26.734,-0.145,-0.085
08:52:26.742,-0.145,-0.075
08:52:26.750,-0.195,-0.075
08:52:26.758,-0.195,-0.075
08:52:26.766,-0.255,-0.065
08:52:26.773,-0.205,-0.065
08:52:26.781,-0.255,-0.065
08:52:26.789,-0.165,-0.055
08:52:26.797,-0.145,-0.045
08:52:26.805,-0.195,-0.025
08:52:26.813,-0.765,0.195
08:52:26.820,-0.815,0.155
08:52:26.828,0.355,-0.155
08:52:26.836,2.155,-0.305
08:52:26.844,2.925,-0.445
08:52:26.852,2.835,-0.045
08:52:26.859,1.715,-0.415
08:52:26.867,-0.065,-0.975
08:52:26.875,-0.305,-0.425
08:52:26.883,-0.185,-0.025
08:52:26.891,-0.265,0.005
08:52:26.898,-0.315,-0.025
08:52:26.906,-0.315,-0.025
08:52:26.914,-0.325,-0.015
08:52:26.922,-0.325,-0.025
08:52:26.930,-0.325,-0.015
08:52:26.938,-0.285,-0.035
08:52:26.945,-0.285,-0.025
08:52:26.953,-0.275,-0.035
08:52:26.961,-0.245,-0.015
08:52:26.969,-0.225,-0.025
08:52:26.977,-0.165,-0.025
08:52:26.984,-0.155,-0.005
08:52:26.992,-0.135,-0.025
08:52:27.000,-0.125,-0.045
08:52:27.008,-0.085,-0.055
08:52:27.016,-0.055,-0.045
08:52:27.023,-0.035,-0.085
08:52:27.031,-0.015,-0.095
08:52:27.039,0.025,-0.105
08:52:27.047,0.085,-0.125
08:52:27.055,0.085,-0.135
08:52:27.063,0.075,-0.175
08:52:27.070,0.155,-0.195
08:52:27.078,0.075,-0.195
08:52:27.086,0.065,-0.205
08:52:27.094,0.055,-0.175
08:52:27.102,-0.005,-0.135
08:52:27.109,-0.065,-0.125
08:52:27.117,-0.145,-0.115
08:52:27.125,-0.175,-0.085
08:52:27.133,-0.205,-0.075
08:52:27.141,-0.205,-0.045
08:52:27.148,-0.235,-0.065
08:52:27.156,-0.245,-0.065
08:52:27.164,-0.265,-0.065
08:52:27.172,-0.215,-0.045
08:52:27.180,-0.215,-0.035
08:52:27.188,-0.265,-0.065
08:52:27.195,-0.235,-0.065
08:52:27.203,-0.135,-0.055
08:52:27.211,-0.015,-0.055
08:52:27.219,-0.215,-0.045
08:52:27.227,-0.455,-0.045
08:52:27.234,-0.325,-0.055
08:52:27.242,-0.265,0.015
08:52:27.250,-0.235,-0.065
08:52:27.258,-0.215,0.045
08:52:27.266,-0.225,-0.115
08:52:27.273,-0.185,-0.075
08:52:27.281,0.015,-0.065
08:52:27.289,0.075,-0.045
08:52:27.297,-0.425,-0.045
08:52:27.305,-0.375,-0.095
08:52:27.313,-0.205,-0.045
08:52:27.320,-0.155,-0.035
08:52:27.328,-0.235,-0.035
08:52:27.336,-0.285,-0.085
08:52:27.344,-0.255,-0.085
08:52:27.352,-0.145,-0.015
08:52:27.359,-0.145,-0.085
08:52:27.367,-0.145,-0.115
08:52:27.375,-0.155,-0.085
08:52:27.383,-0.185,-0.095
08:52:27.391,-0.155,-0.075
08:52:27.398,-0.155,-0.065
08:52:27.406,-0.115,-0.065
08:52:27.414,-0.145,-0.055
08:52:27.422,-0.045,-0.065
08:52:27.430,-0.115,-0.055
08:52:27.438,-0.285,-0.085
08:52:27.445,-0.255,-0.105
08:52:27.453,-0.165,-0.015
08:52:27.461,-0.055,-0.045
08:52:27.469,-0.045,-0.075
08:52:27.477,-0.065,-0.085
08:52:27.484,0.025,-0.125
08:52:27.492,-0.035,-0.095
08:52:27.500,-0.115,-0.125
08:52:27.508,-0.065,-0.125
08:52:27.516,-0.065,-0.105
08:52:27.523,-0.265,-0.115
08:52:27.531,-0.225,-0.075
08:52:27.539,-0.145,-0.075
08:52:27.547,-0.255,-0.115
08:52:27.555,-0.165,-0.065
08:52:27.563,-0.205,-0.065
08:52:27.570,-0.225,-0.085
08:52:27.578,-0.145,-0.015
08:52:27.586,-0.135,0.075
08:52:27.594,-0.375,0.155
08:52:27.602,-0.915,0.275
08:52:27.609,-0.395,-0.005
08:52:27.617,1.285,-0.335
08:52:27.625,2.705,-0.305
08:52:27.633,2.985,-0.175
08:52:27.641,2.545,0.145
08:52:27.648,0.775,-0.455
08:52:27.656,-0.335,-0.805
08:52:27.664,-0.315,-0.315
08:52:27.672,-0.235,-0.045
08:52:27.680,-0.335,-0.005
08:52:27.688,-0.335,-0.045
08:52:27.695,-0.275,-0.035
08:52:27.703,-0.315,0.005
08:52:27.711,-0.365,-0.035
08:52:27.719,-0.345,-0.035
08:52:27.727,-0.305,-0.015
08:52:27.734,-0.215,-0.025
08:52:27.742,-0.315,-0.045
08:52:27.750,-0.295,-0.015
08:52:27.758,-0.245,-0.045
08:52:27.766,-0.215,-0.045
08:52:27.773,-0.245,-0.065
08:52:27.781,-0.155,-0.065
08:52:27.789,-0.185,-0.095
08:52:27.797,-0.125,-0.095
08:52:27.805,-0.105,-0.155
08:52:27.813,-0.085,-0.175
08:52:27.820,-0.035,-0.165
08:52:27.828,0.035,-0.155
08:52:27.836,0.025,-0.165
08:52:27.844,0.065,-0.195
08:52:27.852,0.095,-0.175
08:52:27.859,0.055,-0.185
08:52:27.867,0.075,-0.205
08:52:27.875,0.005,-0.225
08:52:27.883,-0.005,-0.215
08:52:27.891,-0.085,-0.135
08:52:27.898,-0.175,-0.175
08:52:27.906,-0.215,-0.135
08:52:27.914,-0.275,-0.135
08:52:27.922,-0.325,-0.125
08:52:27.930,-0.265,-0.155
08:52:27.938,-0.355,-0.105
08:52:27.945,-0.385,-0.135
08:52:27.953,-0.365,-0.095
08:52:27.961,-0.335,-0.125
08:52:27.969,-0.335,-0.085
08:52:27.977,-0.405,-0.105
08:52:27.984,-0.365,-0.115
08:52:27.992,-0.235,-0.115
08:52:28.000,-0.415,-0.075
08:52:28.008,-0.485,-0.125
08:52:28.016,-0.365,-0.125
08:52:28.023,-0.355,-0.105
08:52:28.031,-0.365,-0.115
08:52:28.039,-0.375,-0.105
08:52:28.047,-0.385,-0.145
08:52:28.055,-0.345,-0.045
08:52:28.063,-0.335,-0.115
08:52:28.070,-0.335,-0.135
08:52:28.078,-0.325,-0.125
08:52:28.086,-0.285,-0.135
08:52:28.094,-0.405,-0.105
08:52:28.102,-0.395,-0.115
08:52:28.109,-0.205,-0.125
08:52:28.117,-0.205,-0.095
08:52:28.125,-0.465,-0.105
08:52:28.133,-0.415,-0.095
08:52:28.141,-0.425,-0.085
08:52:28.148,-0.275,-0.105
08:52:28.156,-0.355,-0.175
08:52:28.164,-0.315,-0.155
08:52:28.172,-0.205,-0.185
08:52:28.180,-0.205,-0.085
08:52:28.188,-0.155,0.005
08:52:28.195,-0.195,0.015
08:52:28.203,-0.425,-0.025
08:52:28.211,-0.345,-0.035
08:52:28.219,-0.325,-0.065
08:52:28.227,-0.265,-0.035
08:52:28.234,-0.155,-0.015
08:52:28.242,-0.205,-0.105
08:52:28.250,-0.295,-0.095
08:52:28.258,0.005,-0.165
08:52:28.266,-0.025,-0.165
08:52:28.273,-0.315,-0.155
08:52:28.281,-0.275,-0.125
08:52:28.289,-0.265,-0.135
08:52:28.297,-0.135,-0.135
08:52:28.305,-0.225,-0.065
08:52:28.313,-0.295,-0.085
08:52:28.320,-0.265,-0.125
08:52:28.328,-0.275,-0.075
08:52:28.336,-0.315,-0.095
08:52:28.344,-0.285,-0.075
08:52:28.352,-0.225,-0.085
08:52:28.359,-0.245,-0.075
08:52:28.367,-0.635,0.065
08:52:28.375,-1.015,0.045
08:52:28.383,-0.355,-0.225
08:52:28.391,1.515,-0.475
08:52:28.398,2.775,-0.255
08:52:28.406,2.835,0.095
08:52:28.414,2.435,0.245
08:52:28.422,0.335,-0.715
08:52:28.430,-0.495,-0.695
08:52:28.438,-0.335,-0.235
08:52:28.445,-0.245,-0.085
08:52:28.453,-0.345,-0.085
08:52:28.461,-0.385,-0.085
08:52:28.469,-0.365,-0.105
08:52:28.477,-0.385,-0.115
08:52:28.484,-0.415,-0.095
08:52:28.492,-0.285,-0.105
08:52:28.500,-0.345,-0.075
08:52:28.508,-0.305,-0.085
08:52:28.516,-0.325,-0.105
08:52:28.523,-0.275,-0.125
08:52:28.531,-0.285,-0.105
08:52:28.539,-0.275,-0.095
08:52:28.547,-0.235,-0.095
08:52:28.555,-0.195,-0.135
08:52:28.563,-0.115,-0.165
08:52:28.570,-0.095,-0.155
08:52:28.578,-0.185,-0.175
08:52:28.586,-0.025,-0.235
08:52:28.594,-0.045,-0.245
08:52:28.602,-0.025,-0.185
08:52:28.609,0.095,-0.295
08:52:28.617,-0.075,-0.275
08:52:28.625,0.035,-0.195
08:52:28.633,0.065,-0.205
08:52:28.641,0.005,-0.235
08:52:28.648,0.155,-0.285
08:52:28.656,-0.025,-0.175
08:52:28.664,-0.075,-0.135
08:52:28.672,-0.105,-0.085
08:52:28.680,-0.225,-0.065
08:52:28.688,-0.275,-0.025
08:52:28.695,-0.205,-0.025
08:52:28.703,-0.245,-0.035
08:52:28.711,-0.315,-0.065
08:52:28.719,-0.265,-0.025
08:52:28.727,-0.225,-0.025
08:52:28.734,-0.255,-0.025
08:52:28.742,-0.205,-0.065
08:52:28.750,-0.235,-0.025
08:52:28.758,-0.325,-0.035
08:52:28.766,-0.145,-0.075
08:52:28.773,-0.155,-0.065
08:52:28.781,-0.305,0.005
08:52:28.789,-0.315,0.005
08:52:28.797,-0.255,-0.035
08:52:28.805,-0.235,-0.015
08:52:28.813,-0.255,-0.035
08:52:28.820,-0.235,-0.045
08:52:28.828,-0.225,-0.025
08:52:28.836,-0.255,-0.035
08:52:28.844,-0.255,-0.045
08:52:28.852,-0.175,-0.055
08:52:28.859,-0.195,-0.065
08:52:28.867,-0.265,-0.025
08:52:28.875,-0.265,-0.005
08:52:28.883,-0.255,-0.005
08:52:28.891,-0.215,-0.025
08:52:28.898,-0.195,-0.075
08:52:28.906,-0.175,0.005
08:52:28.914,-0.185,-0.025
08:52:28.922,-0.225,-0.035
08:52:28.930,-0.205,-0.055
08:52:28.938,-0.225,-0.025
08:52:28.945,-0.215,-0.045
08:52:28.953,-0.155,-0.035
08:52:28.961,-0.165,-0.025
08:52:28.969,-0.235,-0.015
08:52:28.977,-0.215,-0.005
08:52:28.984,-0.105,-0.015
08:52:28.992,-0.075,-0.015
08:52:29.000,-0.075,-0.035
08:52:29.008,-0.025,-0.085
08:52:29.016,-0.175,-0.045
08:52:29.023,-0.175,-0.065
08:52:29.031,-0.195,-0.065
08:52:29.039,-0.185,-0.065
08:52:29.047,-0.195,-0.055
08:52:29.055,-0.145,-0.025
08:52:29.063,-0.155,-0.025
08:52:29.070,-0.215,-0.025
08:52:29.078,-0.195,-0.025
08:52:29.086,-0.225,-0.025
08:52:29.094,-0.235,-0.035
08:52:29.102,-0.205,-0.025
08:52:29.109,-0.175,-0.015
08:52:29.117,-0.715,0.135
08:52:29.125,-1.055,0.075
08:52:29.133,-0.165,-0.165
08:52:29.141,1.765,-0.415
08:52:29.148,2.915,-0.205
08:52:29.156,2.805,0.155
08:52:29.164,2.315,0.425
08:52:29.172,0.315,-0.385
08:52:29.180,-0.505,-0.595
08:52:29.188,-0.285,-0.225
08:52:29.195,-0.235,-0.025
08:52:29.203,-0.335,-0.015
08:52:29.211,-0.295,-0.065
08:52:29.219,-0.295,-0.015
08:52:29.227,-0.295,-0.025
08:52:29.234,-0.285,-0.065
08:52:29.242,-0.245,-0.015
08:52:29.250,-0.315,-0.025
08:52:29.258,-0.245,-0.075
08:52:29.266,-0.215,-0.085
08:52:29.273,-0.195,-0.075
08:52:29.281,-0.205,-0.085
08:52:29.289,-0.225,-0.105
08:52:29.297,-0.215,-0.085
08:52:29.305,-0.175,-0.105
08:52:29.313,-0.085,-0.125
08:52:29.320,-0.035,-0.145
08:52:29.328,-0.055,-0.175
08:52:29.336,-0.075,-0.185
08:52:29.344,-0.045,-0.225
08:52:29.352,0.095,-0.225
08:52:29.359,0.075,-0.225
08:52:29.367,0.045,-0.245
08:52:29.375,0.095,-0.265
08:52:29.383,0.065,-0.225
08:52:29.391,0.115,-0.235
08:52:29.398,0.095,-0.195
08:52:29.406,-0.015,-0.145
08:52:29.414,-0.085,-0.105
08:52:29.422,-0.095,-0.085
08:52:29.430,-0.125,-0.045
08:52:29.438,-0.235,-0.045
08:52:29.445,-0.255,-0.045
08:52:29.453,-0.175,-0.035
08:52:29.461,-0.225,-0.045
08:52:29.469,-0.255,-0.035
08:52:29.477,-0.185,-0.015
08:52:29.484,-0.265,-0.005
08:52:29.492,-0.265,0.015
08:52:29.500,-0.215,-0.025
08:52:29.508,-0.185,-0.055
08:52:29.516,-0.215,-0.005
08:52:29.523,-0.215,-0.035
08:52:29.531,-0.175,-0.075
08:52:29.539,-0.215,-0.045
08:52:29.547,-0.185,-0.065
08:52:29.555,-0.195,-0.055
08:52:29.563,-0.245,-0.005
08:52:29.570,-0.205,-0.035
08:52:29.578,-0.135,-0.075
08:52:29.586,-0.185,-0.045
08:52:29.594,-0.185,-0.065
08:52:29.602,-0.195,-0.085
08:52:29.609,-0.165,-0.075
08:52:29.617,-0.155,-0.095
08:52:29.625,-0.245,-0.045
08:52:29.633,-0.195,-0.025
08:52:29.641,-0.175,-0.035
08:52:29.648,-0.195,-0.095
08:52:29.656,-0.185,-0.095
08:52:29.664,-0.195,-0.085
08:52:29.672,-0.105,-0.105
08:52:29.680,-0.155,-0.085
08:52:29.688,-0.125,-0.085
08:52:29.695,-0.135,-0.115
08:52:29.703,-0.205,-0.005
08:52:29.711,-0.205,-0.065
08:52:29.719,-0.065,-0.065
08:52:29.727,-0.045,-0.005
08:52:29.734,0.005,-0.075
08:52:29.742,-0.045,-0.065
08:52:29.750,-0.095,-0.115
08:52:29.758,-0.085,-0.125
08:52:29.766,-0.135,-0.095
08:52:29.773,-0.185,-0.055
08:52:29.781,-0.065,-0.045
08:52:29.789,-0.135,-0.105
08:52:29.797,-0.195,-0.025
08:52:29.805,-0.215,-0.025
08:52:29.813,-0.165,-0.075
08:52:29.820,-0.175,-0.055
08:52:29.828,-0.115,-0.065
08:52:29.836,-0.085,-0.065
08:52:29.844,-0.245,0.045
08:52:29.852,-0.955,0.235
08:52:29.859,-0.725,0.085
08:52:29.867,0.565,-0.195
08:52:29.875,2.425,-0.295
08:52:29.883,3.065,-0.375
08:52:29.891,2.975,0.015
08:52:29.898,1.805,-0.085
08:52:29.906,-0.045,-0.875
08:52:29.914,-0.305,-0.505
08:52:29.922,-0.195,0.015
08:52:29.930,-0.305,0.085
08:52:29.938,-0.265,0.035
08:52:29.945,-0.245,0.005
08:52:29.953,-0.295,0.015
08:52:29.961,-0.335,0.005
08:52:29.969,-0.285,0.045
08:52:29.977,-0.195,0.005
08:52:29.984,-0.205,0.015
08:52:29.992,-0.235,0.005
08:52:30.000,-0.185,0.025
08:52:30.008,-0.105,-0.015
08:52:30.016,-0.185,0.025
08:52:30.023,-0.165,0.035
08:52:30.031,-0.055,-0.015
08:52:30.039,-0.085,-0.015
08:52:30.047,-0.105,0.025
08:52:30.055,-0.075,-0.015
08:52:30.063,0.025,-0.045
08:52:30.070,0.055,-0.065
08:52:30.078,0.045,-0.065
08:52:30.086,0.095,-0.085
08:52:30.094,0.095,-0.095
08:52:30.102,0.165,-0.145
08:52:30.109,0.245,-0.185
08:52:30.117,0.115,-0.085
08:52:30.125,0.105,-0.085
08:52:30.133,0.135,-0.125
08:52:30.141,0.055,-0.085
08:52:30.148,0.015,-0.105
08:52:30.156,-0.075,-0.055
08:52:30.164,-0.145,-0.015
08:52:30.172,-0.155,-0.045
08:52:30.180,-0.115,-0.095
08:52:30.188,-0.205,-0.035
08:52:30.195,-0.225,0.035
08:52:30.203,-0.185,-0.005
08:52:30.211,-0.185,-0.035
08:52:30.219,-0.125,-0.065
08:52:30.227,-0.155,-0.005
08:52:30.234,-0.215,0.005
08:52:30.242,-0.175,-0.035
08:52:30.250,-0.215,-0.065
08:52:30.258,-0.115,-0.055
08:52:30.266,-0.195,0.035
08:52:30.273,-0.195,-0.035
08:52:30.281,-0.165,-0.055
08:52:30.289,-0.145,-0.055
08:52:30.297,-0.135,-0.045
08:52:30.305,-0.075,-0.095
08:52:30.313,-0.215,-0.015
08:52:30.320,-0.075,-0.045
08:52:30.328,-0.175,-0.095
08:52:30.336,-0.205,0.055
08:52:30.344,-0.125,-0.005
08:52:30.352,-0.185,-0.055
08:52:30.359,-0.185,-0.065
08:52:30.367,-0.135,-0.075
08:52:30.375,-0.105,-0.025
08:52:30.383,-0.125,-0.035
08:52:30.391,-0.105,-0.095
08:52:30.398,-0.125,-0.075
08:52:30.406,-0.135,-0.055
08:52:30.414,-0.155,-0.005
08:52:30.422,-0.165,-0.015
08:52:30.430,-0.105,-0.085
08:52:30.438,-0.065,-0.065
08:52:30.445,-0.025,-0.025
08:52:30.453,-0.095,-0.025
08:52:30.461,0.075,-0.125
08:52:30.469,-0.055,-0.055
08:52:30.477,-0.115,-0.065
08:52:30.484,-0.145,-0.085
08:52:30.492,-0.105,-0.085
08:52:30.500,-0.075,-0.075
08:52:30.508,-0.105,-0.025
08:52:30.516,-0.155,-0.015
08:52:30.523,-0.135,-0.055
08:52:30.531,-0.115,-0.095
08:52:30.539,-0.135,-0.025
08:52:30.547,-0.185,-0.025
08:52:30.555,-0.085,-0.045
08:52:30.563,-0.185,-0.005
08:52:30.570,-0.765,0.245
08:52:30.578,-0.885,0.245
08:52:30.586,0.265,-0.075
08:52:30.594,2.175,-0.275
08:52:30.602,3.055,-0.545
08:52:30.609,3.035,-0.175
08:52:30.617,2.405,-0.275
08:52:30.625,0.325,-0.965
08:52:30.633,-0.295,-0.565
08:52:30.641,-0.135,-0.065
08:52:30.648,-0.165,0.045
08:52:30.656,-0.275,0.065
08:52:30.664,-0.285,0.005
08:52:30.672,-0.345,0.045
08:52:30.680,-0.255,-0.005
08:52:30.688,-0.265,0.025
08:52:30.695,-0.315,0.025
08:52:30.703,-0.185,-0.015
08:52:30.711,-0.185,-0.015
08:52:30.719,-0.255,0.015
08:52:30.727,-0.215,0.005
08:52:30.734,-0.155,0.025
08:52:30.742,-0.145,0.065
08:52:30.750,-0.125,0.035
08:52:30.758,-0.155,0.025
08:52:30.766,-0.025,0.015
08:52:30.773,-0.025,0.005
08:52:30.781,-0.015,-0.025
08:52:30.789,0.035,-0.025
08:52:30.797,0.085,-0.025
08:52:30.805,0.105,-0.035
08:52:30.813,0.115,-0.105
08:52:30.820,0.185,-0.105
08:52:30.828,0.175,-0.095
08:52:30.836,0.145,-0.105
08:52:30.844,0.135,-0.125
08:52:30.852,0.135,-0.125
08:52:30.859,0.065,-0.075
08:52:30.867,-0.015,-0.075
08:52:30.875,-0.065,-0.095
08:52:30.883,-0.155,-0.075
08:52:30.891,-0.235,-0.035
08:52:30.898,-0.085,-0.065
08:52:30.906,-0.235,-0.025
08:52:30.914,-0.225,-0.025
08:52:30.922,-0.215,-0.025
08:52:30.930,-0.225,-0.035
08:52:30.938,-0.215,-0.055
08:52:30.945,-0.215,-0.045
08:52:30.953,-0.185,-0.025
08:52:30.961,-0.145,-0.055
08:52:30.969,-0.245,-0.055
08:52:30.977,-0.225,-0.055
08:52:30.984,-0.195,-0.025
08:52:30.992,-0.205,-0.025
08:52:31.000,-0.185,-0.065
08:52:31.008,-0.215,-0.035
08:52:31.016,-0.165,-0.025
08:52:31.023,-0.165,-0.055
08:52:31.031,-0.235,-0.035
08:52:31.039,-0.185,-0.035
08:52:31.047,-0.175,-0.015
08:52:31.055,-0.135,-0.085
08:52:31.063,-0.195,-0.065
08:52:31.070,-0.195,-0.015
08:52:31.078,-0.215,-0.035
08:52:31.086,-0.165,-0.065
08:52:31.094,-0.165,-0.075
08:52:31.102,-0.155,-0.025
08:52:31.109,-0.155,-0.055
08:52:31.117,-0.205,-0.055
08:52:31.125,-0.135,-0.055
08:52:31.133,-0.165,-0.105
08:52:31.141,-0.205,-0.055
08:52:31.148,-0.135,-0.045
08:52:31.156,-0.095,-0.045
08:52:31.164,-0.115,-0.045
08:52:31.172,-0.055,-0.095
08:52:31.180,0.025,-0.155
08:52:31.188,-0.185,-0.055
08:52:31.195,-0.175,-0.045
08:52:31.203,-0.195,-0.095
08:52:31.211,-0.115,-0.085
08:52:31.219,-0.145,-0.045
08:52:31.227,-0.135,-0.085
08:52:31.234,-0.235,-0.075
08:52:31.242,-0.205,-0.055
08:52:31.250,-0.185,-0.085
08:52:31.258,-0.155,-0.065
08:52:31.266,-0.165,-0.055
08:52:31.273,-0.135,-0.045
08:52:31.281,-0.285,0.015
08:52:31.289,-0.925,0.265
08:52:31.297,-0.745,0.185
08:52:31.305,0.645,-0.085
08:52:31.313,2.425,-0.315
08:52:31.320,3.095,-0.595
08:52:31.328,2.985,-0.275
08:52:31.336,1.685,-0.585
08:52:31.344,-0.085,-0.945
08:52:31.352,-0.315,-0.345
08:52:31.359,-0.145,0.015
08:52:31.367,-0.235,0.045
08:52:31.375,-0.285,0.005
08:52:31.383,-0.285,0.005
08:52:31.391,-0.365,0.015
08:52:31.398,-0.335,0.005
08:52:31.406,-0.315,0.035
08:52:31.414,-0.265,-0.015
08:52:31.422,-0.285,0.035
08:52:31.430,-0.275,-0.005
08:52:31.438,-0.265,0.045
08:52:31.445,-0.195,0.035
08:52:31.453,-0.205,0.005
08:52:31.461,-0.175,0.005
08:52:31.469,-0.165,0.005
08:52:31.477,-0.175,0.025
08:52:31.484,-0.085,0.015
08:52:31.492,-0.025,-0.005
08:52:31.500,-0.025,-0.045
08:52:31.508,-0.065,-0.035
08:52:31.516,0.055,-0.055
08:52:31.523,0.065,-0.045
08:52:31.531,0.115,-0.135
08:52:31.539,0.065,-0.115
08:52:31.547,0.105,-0.095
08:52:31.555,0.125,-0.115
08:52:31.563,0.115,-0.145
08:52:31.570,0.085,-0.135
08:52:31.578,0.025,-0.105
08:52:31.586,-0.065,-0.085
08:52:31.594,-0.095,-0.135
08:52:31.602,-0.135,-0.075
08:52:31.609,-0.175,-0.055
08:52:31.617,-0.245,-0.065
08:52:31.625,-0.195,-0.075
08:52:31.633,-0.215,-0.035
08:52:31.641,-0.225,-0.065
08:52:31.648,-0.225,-0.025
08:52:31.656,-0.235,-0.025
08:52:31.664,-0.215,-0.065
08:52:31.672,-0.215,-0.065
08:52:31.680,-0.195,-0.085
08:52:31.688,-0.195,-0.095
08:52:31.695,-0.195,-0.055
08:52:31.703,-0.195,-0.015
08:52:31.711,-0.225,-0.085
08:52:31.719,-0.185,-0.055
08:52:31.727,-0.195,-0.025
08:52:31.734,-0.165,-0.065
08:52:31.742,-0.245,-0.085
08:52:31.750,-0.155,-0.065
08:52:31.758,-0.175,-0.075
08:52:31.766,-0.205,-0.015
08:52:31.773,-0.225,-0.055
08:52:31.781,-0.155,-0.095
08:52:31.789,-0.175,-0.045
08:52:31.797,-0.225,-0.045
08:52:31.805,-0.165,-0.075
08:52:31.813,-0.175,-0.085
08:52:31.820,-0.185,-0.095
08:52:31.828,-0.115,-0.095
08:52:31.836,-0.225,-0.095
08:52:31.844,-0.155,-0.105
08:52:31.852,-0.175,-0.055
08:52:31.859,-0.155,-0.005
08:52:31.867,-0.155,-0.015
08:52:31.875,-0.105,-0.045
08:52:31.883,-0.105,-0.055
08:52:31.891,0.025,-0.115
08:52:31.898,-0.065,-0.135
08:52:31.906,-0.095,-0.155
08:52:31.914,-0.155,-0.075
08:52:31.922,-0.145,-0.115
08:52:31.930,-0.155,-0.065
08:52:31.938,-0.145,-0.065
08:52:31.945,-0.145,-0.115
08:52:31.953,-0.185,-0.085
08:52:31.961,-0.205,-0.025
08:52:31.969,-0.225,-0.085
08:52:31.977,-0.155,-0.105
08:52:31.984,-0.125,-0.065
08:52:31.992,-0.165,-0.065
08:52:32.000,-0.605,0.135
08:52:32.008,-0.905,0.165
08:52:32.016,-0.075,-0.105
08:52:32.023,1.715,-0.325
08:52:32.031,2.885,-0.435
08:52:32.039,3.005,-0.165
08:52:32.047,2.375,-0.065
08:52:32.055,0.385,-0.945
08:52:32.063,-0.335,-0.645
08:52:32.070,-0.225,-0.065
08:52:32.078,-0.245,0.025
08:52:32.086,-0.265,-0.025
08:52:32.094,-0.285,-0.045
08:52:32.102,-0.335,-0.025
08:52:32.109,-0.335,-0.045
08:52:32.117,-0.275,-0.025
08:52:32.125,-0.255,-0.045
08:52:32.133,-0.295,-0.045
08:52:32.141,-0.245,-0.045
08:52:32.148,-0.235,-0.055
08:52:32.156,-0.215,-0.085
08:52:32.164,-0.185,-0.055
08:52:32.172,-0.165,-0.065
08:52:32.180,-0.135,-0.075
08:52:32.188,-0.105,-0.005
08:52:32.195,-0.095,0.005
08:52:32.203,-0.045,-0.055
08:52:32.211,0.005,-0.115
08:52:32.219,0.015,-0.135
08:52:32.227,0.065,-0.125
08:52:32.234,0.075,-0.115
08:52:32.242,0.085,-0.145
08:52:32.250,0.055,-0.175
08:52:32.258,0.135,-0.205
08:52:32.266,0.145,-0.185
08:52:32.273,0.075,-0.175
08:52:32.281,0.015,-0.175
08:52:32.289,-0.025,-0.135
08:52:32.297,-0.045,-0.095
08:52:32.305,-0.105,-0.075
08:52:32.313,-0.135,-0.065
08:52:32.320,-0.205,-0.055
08:52:32.328,-0.145,-0.065
08:52:32.336,-0.185,-0.045
08:52:32.344,-0.215,0.005
08:52:32.352,-0.265,-0.005
08:52:32.359,-0.185,-0.035
08:52:32.367,-0.195,-0.035
08:52:32.375,-0.185,-0.055
08:52:32.383,-0.165,-0.015
08:52:32.391,-0.195,-0.015
08:52:32.398,-0.185,-0.035
08:52:32.406,-0.205,-0.065
08:52:32.414,-0.185,-0.025
08:52:32.422,-0.085,-0.045
08:52:32.430,-0.175,-0.035
08:52:32.438,-0.185,-0.065
08:52:32.445,-0.225,-0.025
08:52:32.453,-0.145,-0.025
08:52:32.461,-0.155,-0.015
08:52:32.469,-0.115,-0.055
08:52:32.477,-0.185,-0.015
08:52:32.484,-0.175,0.005
08:52:32.492,-0.165,-0.025
08:52:32.500,-0.165,-0.035
08:52:32.508,-0.175,-0.055
08:52:32.516,-0.155,-0.035
08:52:32.523,-0.175,-0.055
08:52:32.531,-0.175,-0.075
08:52:32.539,-0.115,-0.075
08:52:32.547,-0.155,-0.035
08:52:32.555,-0.185,-0.035
08:52:32.563,-0.135,-0.035
08:52:32.570,-0.165,-0.055
08:52:32.578,-0.185,-0.025
08:52:32.586,-0.165,-0.025
08:52:32.594,-0.155,-0.055
08:52:32.602,-0.095,-0.045
08:52:32.609,-0.065,-0.005
08:52:32.617,-0.115,-0.075
08:52:32.625,-0.015,-0.095
08:52:32.633,-0.015,-0.095
08:52:32.641,-0.075,-0.085
08:52:32.648,-0.145,-0.065
08:52:32.656,-0.175,-0.075
08:52:32.664,-0.095,-0.085
08:52:32.672,-0.135,-0.035
08:52:32.680,-0.215,-0.005
08:52:32.688,-0.165,-0.055
08:52:32.695,-0.145,-0.065
08:52:32.703,-0.145,-0.035
08:52:32.711,-0.145,-0.035
08:52:32.719,-0.145,-0.055
08:52:32.727,-0.135,-0.055
08:52:32.734,-0.495,0.145
08:52:32.742,-0.875,0.185
08:52:32.750,-0.305,-0.095
08:52:32.758,1.475,-0.405
08:52:32.766,2.785,-0.325
08:52:32.773,2.985,-0.025
08:52:32.781,2.445,0.115
08:52:32.789,0.615,-0.815
08:52:32.797,-0.245,-0.735
08:52:32.805,-0.165,-0.185
08:52:32.813,-0.185,-0.015
08:52:32.820,-0.235,-0.035
08:52:32.828,-0.235,-0.045
08:52:32.836,-0.305,-0.025
08:52:32.844,-0.305,-0.045
08:52:32.852,-0.295,-0.025
08:52:32.859,-0.235,-0.045
08:52:32.867,-0.205,-0.075
08:52:32.875,-0.215,-0.065
08:52:32.883,-0.265,-0.085
08:52:32.891,-0.195,-0.095
08:52:32.898,-0.175,-0.055
08:52:32.906,-0.155,-0.065
08:52:32.914,-0.175,-0.135
08:52:32.922,-0.125,-0.045
08:52:32.930,-0.025,-0.155
08:52:32.938,-0.015,-0.195
08:52:32.945,-0.035,-0.175
08:52:32.953,0.035,-0.175
08:52:32.961,0.045,-0.215
08:52:32.969,0.075,-0.215
08:52:32.977,0.135,-0.235
08:52:32.984,0.175,-0.255
08:52:32.992,0.145,-0.275
08:52:33.000,0.125,-0.255
08:52:33.008,0.125,-0.215
08:52:33.016,0.165,-0.185
08:52:33.023,0.085,-0.275
08:52:33.031,0.015,-0.225
08:52:33.039,-0.045,-0.155
08:52:33.047,-0.105,-0.095
08:52:33.055,-0.155,-0.085
08:52:33.063,-0.175,-0.115
08:52:33.070,-0.175,-0.085
08:52:33.078,-0.195,-0.085
08:52:33.086,-0.215,-0.095
08:52:33.094,-0.195,-0.115
08:52:33.102,-0.195,-0.075
08:52:33.109,-0.175,-0.065
08:52:33.117,-0.195,-0.075
08:52:33.125,-0.195,-0.105
08:52:33.133,-0.215,-0.065
08:52:33.141,-0.185,-0.075
08:52:33.148,-0.165,-0.095
08:52:33.156,-0.195,-0.085
08:52:33.164,-0.165,-0.095
08:52:33.172,-0.165,-0.085
08:52:33.180,-0.175,-0.065
08:52:33.188,-0.175,-0.065
08:52:33.195,-0.145,-0.065
08:52:33.203,-0.185,-0.065
08:52:33.211,-0.145,-0.075
08:52:33.219,-0.145,-0.125
08:52:33.227,-0.165,-0.045
08:52:33.234,-0.115,-0.005
08:52:33.242,-0.155,-0.085
08:52:33.250,-0.175,-0.075
08:52:33.258,-0.145,-0.075
08:52:33.266,-0.125,-0.065
08:52:33.273,-0.125,-0.095
08:52:33.281,-0.145,-0.085
08:52:33.289,-0.155,-0.125
08:52:33.297,-0.105,-0.155
08:52:33.305,-0.175,-0.215
08:52:33.313,-0.145,-0.175
08:52:33.320,-0.135,-0.095
08:52:33.328,-0.095,-0.105
08:52:33.336,-0.085,-0.085
08:52:33.344,-0.125,-0.075
08:52:33.352,-0.075,-0.095
08:52:33.359,-0.025,-0.115
08:52:33.367,-0.065,-0.135
08:52:33.375,-0.155,-0.145
08:52:33.383,-0.115,-0.165
08:52:33.391,-0.115,-0.105
08:52:33.398,-0.105,-0.075
08:52:33.406,-0.145,-0.015
08:52:33.414,-0.155,-0.125
08:52:33.422,-0.165,-0.085
08:52:33.430,-0.145,-0.075
08:52:33.438,-0.125,-0.025
08:52:33.445,-0.145,-0.055
08:52:33.453,-0.115,-0.075
08:52:33.461,-0.065,-0.055
08:52:33.469,-0.275,0.085
08:52:33.477,-0.875,0.175
08:52:33.484,-0.525,0.105
08:52:33.492,0.855,-0.245
08:52:33.500,2.495,-0.345
08:52:33.508,3.025,-0.175
08:52:33.516,2.845,0.265
08:52:33.523,1.335,0.035
08:52:33.531,-0.465,-0.835
08:52:33.539,-0.415,-0.565
08:52:33.547,-0.095,-0.145
08:52:33.555,-0.235,-0.005
08:52:33.563,-0.225,-0.025
08:52:33.570,-0.315,-0.035
08:52:33.578,-0.315,-0.055
08:52:33.586,-0.265,0.115
08:52:33.594,-0.265,-0.125
08:52:33.602,-0.195,-0.085
08:52:33.609,-0.225,-0.085
08:52:33.617,-0.195,-0.075
08:52:33.625,-0.175,-0.085
08:52:33.633,-0.205,-0.105
08:52:33.641,-0.165,-0.055
08:52:33.648,-0.175,-0.035
08:52:33.656,-0.135,-0.115
08:52:33.664,-0.135,-0.125
08:52:33.672,-0.065,-0.105
08:52:33.680,-0.065,-0.135
08:52:33.688,-0.015,-0.165
08:52:33.695,0.025,-0.175
08:52:33.703,0.085,-0.165
08:52:33.711,0.055,-0.185
08:52:33.719,0.125,-0.225
08:52:33.727,0.135,-0.225
08:52:33.734,0.155,-0.215
08:52:33.742,0.085,-0.195
08:52:33.750,0.125,-0.175
08:52:33.758,0.045,-0.155
08:52:33.766,-0.055,-0.115
08:52:33.773,-0.065,-0.095
08:52:33.781,-0.115,-0.065
08:52:33.789,-0.165,-0.085
08:52:33.797,-0.175,-0.055
08:52:33.805,-0.185,-0.045
08:52:33.813,-0.185,-0.045
08:52:33.820,-0.175,-0.065
08:52:33.828,-0.215,-0.025
08:52:33.836,-0.225,-0.065
08:52:33.844,-0.225,-0.065
08:52:33.852,-0.205,-0.065
08:52:33.859,-0.185,-0.045
08:52:33.867,-0.225,-0.045
08:52:33.875,-0.185,-0.095
08:52:33.883,-0.195,-0.055
08:52:33.891,-0.195,-0.045
08:52:33.898,-0.235,-0.065
08:52:33.906,-0.155,-0.055
08:52:33.914,-0.175,-0.015
08:52:33.922,-0.145,-0.025
08:52:33.930,-0.175,-0.055
08:52:33.938,-0.135,-0.035
08:52:33.945,-0.175,-0.045
08:52:33.953,-0.165,-0.055
08:52:33.961,-0.155,-0.095
08:52:33.969,-0.155,-0.075
08:52:33.977,-0.145,-0.105
08:52:33.984,-0.175,-0.055
08:52:33.992,-0.165,-0.085
08:52:34.000,-0.155,-0.055
08:52:34.008,-0.235,-0.095
08:52:34.016,-0.135,-0.085
08:52:34.023,-0.145,-0.095
08:52:34.031,-0.185,-0.135
08:52:34.039,-0.165,-0.105
08:52:34.047,-0.215,-0.095
08:52:34.055,-0.185,-0.045
08:52:34.063,-0.105,-0.125
08:52:34.070,-0.135,-0.185
08:52:34.078,-0.125,-0.165
08:52:34.086,-0.055,-0.195
08:52:34.094,-0.025,-0.195
08:52:34.102,-0.095,-0.045
08:52:34.109,-0.185,-0.075
08:52:34.117,-0.135,-0.095
08:52:34.125,-0.125,-0.035
08:52:34.133,-0.125,-0.005
08:52:34.141,-0.215,-0.035
08:52:34.148,-0.135,-0.115
08:52:34.156,-0.185,-0.085
08:52:34.164,-0.185,-0.025
08:52:34.172,-0.195,-0.075
08:52:34.180,-0.125,-0.095
08:52:34.188,-0.165,-0.095
08:52:34.195,-0.145,-0.065
08:52:34.203,-0.685,0.135
08:52:34.211,-1.025,0.195
08:52:34.219,-0.125,-0.085
08:52:34.227,1.615,-0.305
08:52:34.234,2.865,-0.345
08:52:34.242,3.065,-0.265
08:52:34.250,2.755,-0.005
08:52:34.258,0.785,-0.635
08:52:34.266,-0.415,-0.735
08:52:34.273,-0.215,-0.155
08:52:34.281,-0.185,-0.015
08:52:34.289,-0.255,-0.005
08:52:34.297,-0.325,0.045
08:52:34.305,-0.285,0.055
08:52:34.313,-0.325,-0.005
08:52:34.320,-0.285,-0.025
08:52:34.328,-0.325,0.065
08:52:34.336,-0.325,-0.005
08:52:34.344,-0.255,-0.015
08:52:34.352,-0.225,-0.025
08:52:34.359,-0.255,-0.015
08:52:34.367,-0.265,-0.025
08:52:34.375,-0.205,0.025
08:52:34.383,-0.195,-0.045
08:52:34.391,-0.155,-0.035
08:52:34.398,-0.135,-0.095
08:52:34.406,-0.135,-0.105
08:52:34.414,-0.065,-0.025
08:52:34.422,-0.145,-0.125
08:52:34.430,-0.045,-0.085
08:52:34.438,-0.025,-0.085
08:52:34.445,0.025,-0.115
08:52:34.453,0.135,-0.165
08:52:34.461,0.085,-0.195
08:52:34.469,0.095,-0.205
08:52:34.477,0.065,-0.185
08:52:34.484,0.155,-0.165
08:52:34.492,-0.015,-0.145
08:52:34.500,-0.005,-0.105
08:52:34.508,-0.045,-0.115
08:52:34.516,-0.175,-0.055
08:52:34.523,-0.175,-0.055
08:52:34.531,-0.275,-0.035
08:52:34.539,-0.175,-0.095
08:52:34.547,-0.295,-0.015
08:52:34.555,-0.175,-0.025
08:52:34.563,-0.245,-0.105
08:52:34.570,-0.185,-0.095
08:52:34.578,-0.265,-0.075
08:52:34.586,-0.205,-0.015
08:52:34.594,-0.335,-0.015
08:52:34.602,-0.265,0.025
08:52:34.609,-0.185,-0.045
08:52:34.617,-0.155,-0.075
08:52:34.625,-0.175,-0.115
08:52:34.633,-0.255,-0.015
08:52:34.641,-0.165,-0.085
08:52:34.648,-0.245,-0.125
08:52:34.656,-0.225,-0.045
08:52:34.664,-0.195,-0.005
08:52:34.672,-0.235,0.015
08:52:34.680,-0.185,0.015
08:52:34.688,-0.135,-0.095
08:52:34.695,-0.205,-0.045
08:52:34.703,-0.145,-0.085
08:52:34.711,-0.185,-0.055
08:52:34.719,-0.145,-0.065
08:52:34.727,-0.125,-0.095
08:52:34.734,-0.125,-0.055
08:52:34.742,-0.175,-0.045
08:52:34.750,-0.265,-0.005
08:52:34.758,-0.165,-0.035
08:52:34.766,-0.085,-0.105
08:52:34.773,-0.105,-0.055
08:52:34.781,-0.145,-0.005
08:52:34.789,-0.055,-0.025
08:52:34.797,-0.035,-0.045
08:52:34.805,0.035,-0.035
08:52:34.813,-0.035,-0.075
08:52:34.820,0.055,-0.115
08:52:34.828,-0.155,-0.075
08:52:34.836,-0.165,-0.075
08:52:34.844,-0.145,-0.055
08:52:34.852,-0.175,-0.005
08:52:34.859,-0.105,-0.015
08:52:34.867,-0.185,-0.065
08:52:34.875,-0.135,-0.045
08:52:34.883,-0.085,-0.095
08:52:34.891,-0.165,-0.095
08:52:34.898,-0.195,-0.015
08:52:34.906,-0.155,-0.055
08:52:34.914,-0.185,-0.005
08:52:34.922,-0.425,0.085
08:52:34.930,-0.975,0.225
08:52:34.938,-0.565,0.045
08:52:34.945,1.175,-0.305
08:52:34.953,2.755,-0.325
08:52:34.961,3.085,-0.155
08:52:34.969,2.805,0.065
08:52:34.977,0.845,-0.615
08:52:34.984,-0.285,-0.765
08:52:34.992,-0.315,-0.065
08:52:35.000,-0.275,0.075
08:52:35.008,-0.305,0.055
08:52:35.016,-0.295,0.025
08:52:35.023,-0.305,-0.015
08:52:35.031,-0.285,-0.055
08:52:35.039,-0.195,-0.095
08:52:35.047,-0.325,0.015
08:52:35.055,-0.315,0.075
08:52:35.063,-0.325,0.045
08:52:35.070,-0.055,0.005
08:52:35.078,-0.215,-0.005
08:52:35.086,-0.215,0.055
08:52:35.094,-0.215,0.055
08:52:35.102,-0.215,0.025
08:52:35.109,-0.115,0.025
08:52:35.117,-0.115,-0.005
08:52:35.125,-0.065,-0.015
08:52:35.133,-0.045,-0.035
