Time,ECG1,ECG2
20:07:00.000,-0.085,0.055
20:07:00.008,-0.075,0.055
20:07:00.016,-0.055,0.065
20:07:00.023,-0.045,0.085
20:07:00.031,-0.005,0.095
20:07:00.039,-0.005,0.105
20:07:00.047,0.005,0.105
20:07:00.055,0.035,0.135
20:07:00.063,0.045,0.155
20:07:00.070,0.055,0.155
20:07:00.078,0.055,0.145
20:07:00.086,0.075,0.155
20:07:00.094,0.065,0.145
20:07:00.102,0.055,0.125
20:07:00.109,0.065,0.115
20:07:00.117,0.095,0.115
20:07:00.125,0.055,0.085
20:07:00.133,0.045,0.065
20:07:00.141,0.025,0.035
20:07:00.148,-0.005,0.025
20:07:00.156,-0.065,-0.015
20:07:00.164,-0.085,-0.035
20:07:00.172,-0.105,-0.055
20:07:00.180,-0.115,-0.045
20:07:00.188,-0.115,-0.055
20:07:00.195,-0.105,-0.065
20:07:00.203,-0.115,-0.065
20:07:00.211,-0.105,-0.045
20:07:00.219,-0.115,-0.045
20:07:00.227,-0.095,-0.055
20:07:00.234,-0.095,-0.045
20:07:00.242,-0.095,-0.035
20:07:00.250,-0.105,-0.055
20:07:00.258,-0.105,-0.065
20:07:00.266,-0.105,-0.055
20:07:00.273,-0.095,-0.055
20:07:00.281,-0.095,-0.055
20:07:00.289,-0.115,-0.065
20:07:00.297,-0.105,-0.075
20:07:00.305,-0.105,-0.065
20:07:00.313,-0.105,-0.075
20:07:00.320,-0.105,-0.085
20:07:00.328,-0.115,-0.085
20:07:00.336,-0.115,-0.075
20:07:00.344,-0.115,-0.085
20:07:00.352,-0.115,-0.085
20:07:00.359,-0.095,-0.075
20:07:00.367,-0.105,-0.075
20:07:00.375,-0.105,-0.075
20:07:00.383,-0.105,-0.065
20:07:00.391,-0.075,-0.055
20:07:00.398,-0.075,-0.035
20:07:00.406,-0.055,-0.025
20:07:00.414,-0.015,-0.045
20:07:00.422,0.025,-0.045
20:07:00.430,0.035,-0.035
20:07:00.438,0.025,-0.025
20:07:00.445,0.075,-0.045
20:07:00.453,-0.005,-0.085
20:07:00.461,-0.025,-0.065
20:07:00.469,-0.075,-0.085
20:07:00.477,-0.105,-0.105
20:07:00.484,-0.105,-0.105
20:07:00.492,-0.095,-0.105
20:07:00.500,-0.115,-0.095
20:07:00.508,-0.115,-0.115
20:07:00.516,-0.125,-0.105
20:07:00.523,-0.105,-0.095
20:07:00.531,-0.105,-0.095
20:07:00.539,-0.125,-0.105
20:07:00.547,-0.105,-0.105
20:07:00.555,-0.085,-0.095
20:07:00.563,-0.135,-0.065
20:07:00.570,-0.005,-0.045
20:07:00.578,0.315,-0.015
20:07:00.586,1.205,-0.225
20:07:00.594,1.605,-0.545
20:07:00.602,0.035,-0.845
20:07:00.609,-0.795,-0.585
20:07:00.617,-0.525,-0.205
20:07:00.625,-0.205,-0.025
20:07:00.633,-0.105,-0.015
20:07:00.641,-0.105,-0.025
20:07:00.648,-0.095,-0.015
20:07:00.656,-0.095,-0.005
20:07:00.664,-0.105,-0.015
20:07:00.672,-0.085,-0.005
20:07:00.680,-0.075,0.005
20:07:00.688,-0.085,-0.005
20:07:00.695,-0.055,-0.005
20:07:00.703,-0.055,0.005
20:07:00.711,-0.055,0.025
20:07:00.719,-0.045,0.025
20:07:00.727,-0.035,0.025
20:07:00.734,-0.015,0.025
20:07:00.742,0.015,0.055
20:07:00.750,0.025,0.045
20:07:00.758,0.015,0.045
20:07:00.766,0.035,0.065
20:07:00.773,0.045,0.095
20:07:00.781,0.065,0.095
20:07:00.789,0.075,0.105
20:07:00.797,0.085,0.115
20:07:00.805,0.115,0.125
20:07:00.813,0.105,0.115
20:07:00.820,0.085,0.105
20:07:00.828,0.105,0.085
20:07:00.836,0.075,0.095
20:07:00.844,0.095,0.075
20:07:00.852,0.105,0.065
20:07:00.859,0.115,0.045
20:07:00.867,0.085,0.035
20:07:00.875,0.045,0.005
20:07:00.883,0.025,-0.015
20:07:00.891,-0.015,-0.035
20:07:00.898,-0.025,-0.025
20:07:00.906,-0.045,-0.055
20:07:00.914,-0.055,-0.055
20:07:00.922,-0.055,-0.065
20:07:00.930,-0.045,-0.045
20:07:00.938,-0.045,-0.055
20:07:00.945,-0.055,-0.055
20:07:00.953,-0.065,-0.055
20:07:00.961,-0.055,-0.035
20:07:00.969,-0.055,-0.045
20:07:00.977,-0.035,-0.055
20:07:00.984,-0.025,-0.055
20:07:00.992,-0.035,-0.035
20:07:01.000,-0.045,-0.045
20:07:01.008,-0.035,-0.055
20:07:01.016,-0.055,-0.065
20:07:01.023,-0.045,-0.065
20:07:01.031,-0.055,-0.055
20:07:01.039,-0.075,-0.065
20:07:01.047,-0.055,-0.065
20:07:01.055,-0.075,-0.075
20:07:01.063,-0.085,-0.075
20:07:01.070,-0.085,-0.085
20:07:01.078,-0.075,-0.075
20:07:01.086,-0.075,-0.065
20:07:01.094,-0.055,-0.045
20:07:01.102,-0.035,-0.035
20:07:01.109,-0.025,-0.035
20:07:01.117,-0.005,-0.025
20:07:01.125,-0.005,-0.045
20:07:01.133,0.045,-0.035
20:07:01.141,0.075,-0.045
20:07:01.148,0.065,-0.035
20:07:01.156,0.065,-0.045
20:07:01.164,0.015,-0.075
20:07:01.172,-0.005,-0.075
20:07:01.180,-0.045,-0.085
20:07:01.188,-0.085,-0.105
20:07:01.195,-0.085,-0.105
20:07:01.203,-0.095,-0.105
20:07:01.211,-0.095,-0.105
20:07:01.219,-0.115,-0.115
20:07:01.227,-0.105,-0.105
20:07:01.234,-0.105,-0.115
20:07:01.242,-0.115,-0.115
20:07:01.250,-0.105,-0.105
20:07:01.258,-0.105,-0.105
20:07:01.266,-0.085,-0.105
20:07:01.273,-0.115,-0.095
20:07:01.281,-0.105,-0.065
20:07:01.289,0.115,-0.015
20:07:01.297,0.545,-0.095
20:07:01.305,1.665,-0.345
20:07:01.313,0.925,-0.755
20:07:01.320,-0.475,-0.785
20:07:01.328,-0.775,-0.405
20:07:01.336,-0.345,-0.105
20:07:01.344,-0.135,-0.005
20:07:01.352,-0.105,-0.015
20:07:01.359,-0.095,-0.035
20:07:01.367,-0.095,-0.025
20:07:01.375,-0.095,-0.015
20:07:01.383,-0.085,-0.015
20:07:01.391,-0.075,-0.025
20:07:01.398,-0.075,-0.015
20:07:01.406,-0.065,0.005
20:07:01.414,-0.045,0.005
20:07:01.422,-0.045,0.005
20:07:01.430,-0.035,0.005
20:07:01.438,-0.025,0.025
20:07:01.445,-0.005,0.035
20:07:01.453,0.015,0.035
20:07:01.461,0.005,0.045
20:07:01.469,0.025,0.065
20:07:01.477,0.035,0.065
20:07:01.484,0.055,0.085
20:07:01.492,0.085,0.095
20:07:01.500,0.075,0.115
20:07:01.508,0.095,0.115
20:07:01.516,0.095,0.105
20:07:01.523,0.115,0.125
20:07:01.531,0.115,0.125
20:07:01.539,0.105,0.095
20:07:01.547,0.105,0.085
20:07:01.555,0.115,0.075
20:07:01.563,0.125,0.055
20:07:01.570,0.095,0.035
20:07:01.578,0.065,0.005
20:07:01.586,0.045,0.005
20:07:01.594,0.015,-0.025
20:07:01.602,-0.035,-0.055
20:07:01.609,-0.065,-0.065
20:07:01.617,-0.065,-0.065
20:07:01.625,-0.075,-0.065
20:07:01.633,-0.065,-0.065
20:07:01.641,-0.075,-0.075
20:07:01.648,-0.065,-0.055
20:07:01.656,-0.055,-0.065
20:07:01.664,-0.055,-0.055
20:07:01.672,-0.045,-0.055
20:07:01.680,-0.045,-0.055
20:07:01.688,-0.065,-0.055
20:07:01.695,-0.045,-0.055
20:07:01.703,-0.055,-0.065
20:07:01.711,-0.055,-0.055
20:07:01.719,-0.065,-0.065
20:07:01.727,-0.065,-0.075
20:07:01.734,-0.055,-0.075
20:07:01.742,-0.055,-0.075
20:07:01.750,-0.065,-0.085
20:07:01.758,-0.075,-0.095
20:07:01.766,-0.085,-0.085
20:07:01.773,-0.075,-0.095
20:07:01.781,-0.085,-0.095
20:07:01.789,-0.075,-0.095
20:07:01.797,-0.075,-0.095
20:07:01.805,-0.075,-0.085
20:07:01.813,-0.075,-0.095
20:07:01.820,-0.085,-0.105
20:07:01.828,-0.075,-0.085
20:07:01.836,-0.045,-0.045
20:07:01.844,-0.035,-0.055
20:07:01.852,-0.025,-0.045
20:07:01.859,-0.005,-0.055
20:07:01.867,0.035,-0.045
20:07:01.875,0.065,-0.055
20:07:01.883,0.055,-0.055
20:07:01.891,0.075,-0.065
20:07:01.898,0.025,-0.095
20:07:01.906,-0.005,-0.095
20:07:01.914,-0.055,-0.115
20:07:01.922,-0.085,-0.125
20:07:01.930,-0.085,-0.125
20:07:01.938,-0.085,-0.115
20:07:01.945,-0.095,-0.125
20:07:01.953,-0.105,-0.125
20:07:01.961,-0.105,-0.125
20:07:01.969,-0.115,-0.125
20:07:01.977,-0.115,-0.135
20:07:01.984,-0.095,-0.125
20:07:01.992,-0.075,-0.115
20:07:02.000,-0.085,-0.135
20:07:02.008,-0.145,-0.095
20:07:02.016,0.025,-0.055
20:07:02.023,0.335,-0.085
20:07:02.031,1.325,-0.395
20:07:02.039,1.655,-0.735
20:07:02.047,0.045,-0.935
20:07:02.055,-0.715,-0.525
20:07:02.063,-0.385,-0.125
20:07:02.070,-0.165,-0.005
20:07:02.078,-0.105,-0.025
20:07:02.086,-0.105,-0.015
20:07:02.094,-0.115,-0.025
20:07:02.102,-0.115,-0.035
20:07:02.109,-0.085,-0.035
20:07:02.117,-0.085,-0.005
20:07:02.125,-0.075,-0.015
20:07:02.133,-0.075,-0.015
20:07:02.141,-0.055,-0.005
20:07:02.148,-0.055,0.005
20:07:02.156,-0.055,0.005
20:07:02.164,-0.035,0.005
20:07:02.172,-0.015,0.025
20:07:02.180,0.005,0.045
20:07:02.188,0.005,0.055
20:07:02.195,0.025,0.045
20:07:02.203,0.015,0.065
20:07:02.211,0.045,0.095
20:07:02.219,0.055,0.095
20:07:02.227,0.065,0.105
20:07:02.234,0.095,0.125
20:07:02.242,0.105,0.145
20:07:02.250,0.095,0.145
20:07:02.258,0.105,0.125
20:07:02.266,0.095,0.125
20:07:02.273,0.105,0.125
20:07:02.281,0.115,0.105
20:07:02.289,0.105,0.075
20:07:02.297,0.115,0.065
20:07:02.305,0.115,0.055
20:07:02.313,0.075,0.025
20:07:02.320,0.045,-0.005
20:07:02.328,0.005,-0.035
20:07:02.336,-0.015,-0.045
20:07:02.344,-0.045,-0.075
20:07:02.352,-0.045,-0.085
20:07:02.359,-0.055,-0.085
20:07:02.367,-0.065,-0.075
20:07:02.375,-0.055,-0.075
20:07:02.383,-0.065,-0.095
20:07:02.391,-0.075,-0.075
20:07:02.398,-0.045,-0.065
20:07:02.406,-0.045,-0.065
20:07:02.414,-0.055,-0.085
20:07:02.422,-0.045,-0.075
20:07:02.430,-0.045,-0.065
20:07:02.438,-0.045,-0.065
20:07:02.445,-0.035,-0.085
20:07:02.453,-0.065,-0.095
20:07:02.461,-0.045,-0.075
20:07:02.469,-0.055,-0.085
20:07:02.477,-0.055,-0.095
20:07:02.484,-0.055,-0.095
20:07:02.492,-0.055,-0.085
20:07:02.500,-0.045,-0.095
20:07:02.508,-0.055,-0.105
20:07:02.516,-0.085,-0.105
20:07:02.523,-0.055,-0.085
20:07:02.531,-0.055,-0.095
20:07:02.539,-0.075,-0.105
20:07:02.547,-0.065,-0.095
20:07:02.555,-0.065,-0.075
20:07:02.563,-0.025,-0.055
20:07:02.570,-0.035,-0.065
20:07:02.578,0.005,-0.055
20:07:02.586,0.015,-0.035
20:07:02.594,0.035,-0.055
20:07:02.602,0.085,-0.055
20:07:02.609,0.075,-0.065
20:07:02.617,0.115,-0.045
20:07:02.625,0.075,-0.085
20:07:02.633,0.025,-0.085
20:07:02.641,-0.035,-0.095
20:07:02.648,-0.035,-0.105
20:07:02.656,-0.065,-0.115
20:07:02.664,-0.075,-0.115
20:07:02.672,-0.075,-0.115
20:07:02.680,-0.075,-0.115
20:07:02.688,-0.085,-0.125
20:07:02.695,-0.085,-0.115
20:07:02.703,-0.075,-0.115
20:07:02.711,-0.075,-0.115
20:07:02.719,-0.065,-0.105
20:07:02.727,-0.065,-0.115
20:07:02.734,-0.085,-0.105
20:07:02.742,-0.035,-0.055
20:07:02.750,0.195,-0.015
20:07:02.758,0.705,-0.135
20:07:02.766,1.745,-0.425
20:07:02.773,0.915,-0.785
20:07:02.781,-0.455,-0.765
20:07:02.789,-0.735,-0.415
20:07:02.797,-0.345,-0.125
20:07:02.805,-0.095,-0.025
20:07:02.813,-0.085,-0.025
20:07:02.820,-0.075,-0.025
20:07:02.828,-0.065,-0.045
20:07:02.836,-0.075,-0.035
20:07:02.844,-0.065,-0.025
20:07:02.852,-0.045,-0.015
20:07:02.859,-0.055,-0.025
20:07:02.867,-0.035,-0.025
20:07:02.875,-0.045,-0.005
20:07:02.883,-0.015,-0.005
20:07:02.891,-0.025,-0.005
20:07:02.898,-0.005,0.015
20:07:02.906,-0.005,0.025
20:07:02.914,0.025,0.025
20:07:02.922,0.025,0.025
20:07:02.930,0.055,0.055
20:07:02.938,0.045,0.055
20:07:02.945,0.055,0.055
20:07:02.953,0.075,0.065
20:07:02.961,0.105,0.095
20:07:02.969,0.125,0.115
20:07:02.977,0.115,0.095
20:07:02.984,0.115,0.085
20:07:02.992,0.135,0.105
20:07:03.000,0.125,0.095
20:07:03.008,0.115,0.065
20:07:03.016,0.135,0.045
20:07:03.023,0.125,0.045
20:07:03.031,0.115,0.035
20:07:03.039,0.085,0.005
20:07:03.047,0.095,-0.005
20:07:03.055,0.045,-0.015
20:07:03.063,0.005,-0.035
20:07:03.070,-0.025,-0.055
20:07:03.078,-0.045,-0.065
20:07:03.086,-0.035,-0.055
20:07:03.094,-0.035,-0.055
20:07:03.102,-0.025,-0.065
20:07:03.109,-0.035,-0.055
20:07:03.117,-0.035,-0.045
20:07:03.125,-0.025,-0.045
20:07:03.133,-0.025,-0.045
20:07:03.141,-0.045,-0.045
20:07:03.148,-0.025,-0.045
20:07:03.156,-0.015,-0.045
20:07:03.164,-0.015,-0.045
20:07:03.172,-0.015,-0.055
20:07:03.180,-0.005,-0.055
20:07:03.188,-0.025,-0.065
20:07:03.195,-0.035,-0.055
20:07:03.203,-0.045,-0.075
20:07:03.211,-0.025,-0.055
20:07:03.219,-0.035,-0.075
20:07:03.227,-0.055,-0.075
20:07:03.234,-0.045,-0.055
20:07:03.242,-0.045,-0.055
20:07:03.250,-0.045,-0.055
20:07:03.258,-0.015,-0.045
20:07:03.266,-0.015,-0.035
20:07:03.273,0.015,-0.015
20:07:03.281,0.025,-0.025
20:07:03.289,0.055,-0.045
20:07:03.297,0.085,-0.035
20:07:03.305,0.085,-0.025
20:07:03.313,0.115,-0.035
20:07:03.320,0.055,-0.085
20:07:03.328,-0.015,-0.075
20:07:03.336,-0.045,-0.065
20:07:03.344,-0.055,-0.085
20:07:03.352,-0.065,-0.115
20:07:03.359,-0.075,-0.095
20:07:03.367,-0.065,-0.085
20:07:03.375,-0.085,-0.105
20:07:03.383,-0.085,-0.115
20:07:03.391,-0.105,-0.115
20:07:03.398,-0.075,-0.095
20:07:03.406,-0.095,-0.095
20:07:03.414,-0.075,-0.105
20:07:03.422,-0.075,-0.095
20:07:03.430,-0.105,-0.075
20:07:03.438,-0.015,-0.025
20:07:03.445,0.215,-0.015
20:07:03.453,0.875,-0.165
20:07:03.461,1.775,-0.445
20:07:03.469,0.425,-0.815
20:07:03.477,-0.675,-0.695
20:07:03.484,-0.705,-0.325
20:07:03.492,-0.255,-0.055
20:07:03.500,-0.115,-0.005
20:07:03.508,-0.095,-0.015
20:07:03.516,-0.085,-0.015
20:07:03.523,-0.075,-0.005
20:07:03.531,-0.075,-0.015
20:07:03.539,-0.095,-0.025
20:07:03.547,-0.065,-0.015
20:07:03.555,-0.055,0.005
20:07:03.563,-0.055,0.005
20:07:03.570,-0.045,0.005
20:07:03.578,-0.045,0.005
20:07:03.586,-0.035,0.025
20:07:03.594,-0.015,0.035
20:07:03.602,-0.005,0.035
20:07:03.609,0.005,0.035
20:07:03.617,0.025,0.065
20:07:03.625,0.025,0.075
20:07:03.633,0.045,0.075
20:07:03.641,0.045,0.095
20:07:03.648,0.065,0.125
20:07:03.656,0.085,0.125
20:07:03.664,0.105,0.125
20:07:03.672,0.115,0.135
20:07:03.680,0.115,0.125
20:07:03.688,0.115,0.125
20:07:03.695,0.105,0.105
20:07:03.703,0.105,0.105
20:07:03.711,0.115,0.085
20:07:03.719,0.115,0.065
20:07:03.727,0.105,0.055
20:07:03.734,0.075,0.035
20:07:03.742,0.045,0.025
20:07:03.750,-0.015,0.005
20:07:03.758,-0.035,-0.015
20:07:03.766,-0.065,-0.035
20:07:03.773,-0.075,-0.025
20:07:03.781,-0.075,-0.035
20:07:03.789,-0.065,-0.035
20:07:03.797,-0.055,-0.035
20:07:03.805,-0.085,-0.025
20:07:03.813,-0.075,-0.025
20:07:03.820,-0.075,-0.035
20:07:03.828,-0.065,-0.025
20:07:03.836,-0.055,-0.015
20:07:03.844,-0.055,-0.015
20:07:03.852,-0.065,-0.025
20:07:03.859,-0.055,-0.015
20:07:03.867,-0.065,-0.015
20:07:03.875,-0.065,-0.025
20:07:03.883,-0.075,-0.035
20:07:03.891,-0.075,-0.045
20:07:03.898,-0.065,-0.035
20:07:03.906,-0.085,-0.045
20:07:03.914,-0.085,-0.045
20:07:03.922,-0.095,-0.045
20:07:03.930,-0.085,-0.045
20:07:03.938,-0.075,-0.045
20:07:03.945,-0.105,-0.055
20:07:03.953,-0.085,-0.055
20:07:03.961,-0.095,-0.055
20:07:03.969,-0.085,-0.045
20:07:03.977,-0.095,-0.055
20:07:03.984,-0.085,-0.045
20:07:03.992,-0.045,-0.015
20:07:04.000,-0.035,-0.005
20:07:04.008,-0.045,-0.005
20:07:04.016,-0.015,0.005
20:07:04.023,-0.005,-0.005
20:07:04.031,0.045,0.005
20:07:04.039,0.035,-0.015
20:07:04.047,0.055,-0.005
20:07:04.055,0.065,-0.025
20:07:04.063,0.005,-0.055
20:07:04.070,-0.045,-0.055
20:07:04.078,-0.075,-0.065
20:07:04.086,-0.085,-0.075
20:07:04.094,-0.095,-0.065
20:07:04.102,-0.115,-0.075
20:07:04.109,-0.125,-0.085
20:07:04.117,-0.105,-0.075
20:07:04.125,-0.115,-0.075
20:07:04.133,-0.135,-0.085
20:07:04.141,-0.125,-0.085
20:07:04.148,-0.125,-0.075
20:07:04.156,-0.115,-0.065
20:07:04.164,-0.105,-0.065
20:07:04.172,-0.125,-0.045
20:07:04.180,0.055,0.005
20:07:04.188,0.495,-0.095
20:07:04.195,1.575,-0.385
20:07:04.203,1.225,-0.795
20:07:04.211,-0.385,-0.825
20:07:04.219,-0.705,-0.355
20:07:04.227,-0.295,-0.015
20:07:04.234,-0.145,0.045
20:07:04.242,-0.095,0.005
20:07:04.250,-0.125,0.005
20:07:04.258,-0.145,0.005
20:07:04.266,-0.105,0.005
20:07:04.273,-0.125,0.015
20:07:04.281,-0.105,0.025
20:07:04.289,-0.095,0.015
20:07:04.297,-0.095,0.025
20:07:04.305,-0.075,0.045
20:07:04.313,-0.065,0.035
20:07:04.320,-0.065,0.045
20:07:04.328,-0.055,0.035
20:07:04.336,-0.045,0.065
20:07:04.344,-0.035,0.075
20:07:04.352,-0.005,0.065
20:07:04.359,-0.005,0.095
20:07:04.367,0.005,0.115
20:07:04.375,0.015,0.125
20:07:04.383,0.045,0.135
20:07:04.391,0.045,0.145
20:07:04.398,0.065,0.165
20:07:04.406,0.075,0.165
20:07:04.414,0.095,0.145
20:07:04.422,0.095,0.145
20:07:04.430,0.095,0.135
20:07:04.438,0.095,0.125
20:07:04.445,0.105,0.105
20:07:04.453,0.095,0.085
20:07:04.461,0.075,0.065
20:07:04.469,0.055,0.055
20:07:04.477,0.015,0.005
20:07:04.484,-0.015,-0.015
20:07:04.492,-0.045,-0.025
20:07:04.500,-0.065,-0.045
20:07:04.508,-0.095,-0.055
20:07:04.516,-0.095,-0.055
20:07:04.523,-0.085,-0.045
20:07:04.531,-0.095,-0.055
20:07:04.539,-0.095,-0.055
20:07:04.547,-0.075,-0.045
20:07:04.555,-0.075,-0.035
20:07:04.563,-0.095,-0.045
20:07:04.570,-0.095,-0.055
20:07:04.578,-0.085,-0.045
20:07:04.586,-0.085,-0.045
20:07:04.594,-0.075,-0.045
20:07:04.602,-0.085,-0.045
20:07:04.609,-0.105,-0.065
20:07:04.617,-0.095,-0.055
20:07:04.625,-0.085,-0.065
20:07:04.633,-0.095,-0.065
20:07:04.641,-0.115,-0.075
20:07:04.648,-0.095,-0.075
20:07:04.656,-0.115,-0.075
20:07:04.664,-0.115,-0.075
20:07:04.672,-0.095,-0.085
20:07:04.680,-0.115,-0.075
20:07:04.688,-0.115,-0.075
20:07:04.695,-0.115,-0.095
20:07:04.703,-0.125,-0.095
20:07:04.711,-0.115,-0.065
20:07:04.719,-0.095,-0.055
20:07:04.727,-0.085,-0.055
20:07:04.734,-0.075,-0.045
20:07:04.742,-0.035,-0.025
20:07:04.750,-0.025,-0.045
20:07:04.758,0.015,-0.055
20:07:04.766,0.005,-0.045
20:07:04.773,0.045,-0.025
20:07:04.781,0.015,-0.075
20:07:04.789,-0.035,-0.095
20:07:04.797,-0.095,-0.085
20:07:04.805,-0.105,-0.075
20:07:04.813,-0.115,-0.115
20:07:04.820,-0.135,-0.115
20:07:04.828,-0.145,-0.105
20:07:04.836,-0.135,-0.095
20:07:04.844,-0.145,-0.105
20:07:04.852,-0.145,-0.115
20:07:04.859,-0.155,-0.125
20:07:04.867,-0.135,-0.105
20:07:04.875,-0.135,-0.105
20:07:04.883,-0.125,-0.115
20:07:04.891,-0.115,-0.105
20:07:04.898,-0.165,-0.065
20:07:04.906,0.045,-0.025
20:07:04.914,0.355,-0.055
20:07:04.922,1.395,-0.335
20:07:04.930,1.235,-0.705
20:07:04.938,-0.325,-0.825
20:07:04.945,-0.805,-0.475
20:07:04.953,-0.405,-0.135
20:07:04.961,-0.175,-0.005
20:07:04.969,-0.155,-0.015
20:07:04.977,-0.145,-0.025
20:07:04.984,-0.145,-0.035
20:07:04.992,-0.125,-0.015
20:07:05.000,-0.115,-0.025
20:07:05.008,-0.135,-0.025
20:07:05.016,-0.115,-0.025
20:07:05.023,-0.105,-0.005
20:07:05.031,-0.105,0.005
20:07:05.039,-0.095,-0.015
20:07:05.047,-0.075,0.005
20:07:05.055,-0.075,0.005
20:07:05.063,-0.055,0.015
20:07:05.070,-0.055,0.015
20:07:05.078,-0.055,0.025
20:07:05.086,-0.025,0.055
20:07:05.094,-0.015,0.055
20:07:05.102,0.005,0.065
20:07:05.109,0.025,0.075
20:07:05.117,0.025,0.085
20:07:05.125,0.035,0.085
20:07:05.133,0.045,0.095
20:07:05.141,0.065,0.085
20:07:05.148,0.065,0.085
20:07:05.156,0.045,0.085
20:07:05.164,0.055,0.055
20:07:05.172,0.065,0.055
20:07:05.180,0.075,0.045
20:07:05.188,0.065,0.025
20:07:05.195,0.065,-0.005
20:07:05.203,0.015,-0.015
20:07:05.211,-0.015,-0.015
20:07:05.219,-0.035,-0.055
20:07:05.227,-0.065,-0.075
20:07:05.234,-0.085,-0.075
20:07:05.242,-0.105,-0.075
20:07:05.250,-0.105,-0.075
20:07:05.258,-0.095,-0.075
20:07:05.266,-0.105,-0.085
20:07:05.273,-0.105,-0.065
20:07:05.281,-0.095,-0.075
20:07:05.289,-0.095,-0.085
20:07:05.297,-0.075,-0.075
20:07:05.305,-0.085,-0.065
20:07:05.313,-0.095,-0.065
20:07:05.320,-0.075,-0.085
20:07:05.328,-0.075,-0.075
20:07:05.336,-0.095,-0.065
20:07:05.344,-0.095,-0.075
20:07:05.352,-0.095,-0.085
20:07:05.359,-0.085,-0.085
20:07:05.367,-0.085,-0.085
20:07:05.375,-0.115,-0.095
20:07:05.383,-0.105,-0.105
20:07:05.391,-0.115,-0.105
20:07:05.398,-0.095,-0.095
20:07:05.406,-0.115,-0.095
20:07:05.414,-0.115,-0.105
20:07:05.422,-0.105,-0.105
20:07:05.430,-0.085,-0.075
20:07:05.438,-0.075,-0.065
20:07:05.445,-0.095,-0.075
20:07:05.453,-0.045,-0.055
20:07:05.461,-0.035,-0.045
20:07:05.469,-0.015,-0.055
20:07:05.477,-0.005,-0.075
20:07:05.484,0.025,-0.025
20:07:05.492,0.035,-0.035
20:07:05.500,-0.025,-0.065
20:07:05.508,-0.085,-0.075
20:07:05.516,-0.115,-0.085
20:07:05.523,-0.115,-0.085
20:07:05.531,-0.125,-0.105
20:07:05.539,-0.145,-0.105
20:07:05.547,-0.165,-0.115
20:07:05.555,-0.165,-0.105
20:07:05.563,-0.155,-0.095
20:07:05.570,-0.165,-0.095
20:07:05.578,-0.155,-0.115
20:07:05.586,-0.165,-0.105
20:07:05.594,-0.155,-0.105
20:07:05.602,-0.135,-0.115
20:07:05.609,-0.185,-0.095
20:07:05.617,-0.085,-0.045
20:07:05.625,0.175,-0.015
20:07:05.633,0.855,-0.145
20:07:05.641,1.675,-0.455
20:07:05.648,0.295,-0.805
20:07:05.656,-0.775,-0.665
20:07:05.664,-0.725,-0.325
20:07:05.672,-0.325,-0.085
20:07:05.680,-0.185,-0.015
20:07:05.688,-0.175,-0.035
20:07:05.695,-0.175,-0.045
20:07:05.703,-0.175,-0.025
20:07:05.711,-0.165,-0.025
20:07:05.719,-0.145,-0.025
20:07:05.727,-0.155,-0.025
20:07:05.734,-0.155,-0.025
20:07:05.742,-0.125,-0.015
20:07:05.750,-0.125,0.005
20:07:05.758,-0.105,-0.005
20:07:05.766,-0.115,-0.005
20:07:05.773,-0.115,0.015
20:07:05.781,-0.085,0.005
20:07:05.789,-0.085,0.025
20:07:05.797,-0.045,0.015
20:07:05.805,-0.055,0.045
20:07:05.813,-0.035,0.055
20:07:05.820,-0.015,0.045
20:07:05.828,-0.015,0.075
20:07:05.836,0.005,0.085
20:07:05.844,0.015,0.085
20:07:05.852,0.025,0.085
20:07:05.859,0.035,0.085
20:07:05.867,0.035,0.085
20:07:05.875,0.025,0.075
20:07:05.883,0.015,0.045
20:07:05.891,0.025,0.025
20:07:05.898,0.025,0.025
20:07:05.906,0.025,0.005
20:07:05.914,-0.005,-0.005
20:07:05.922,-0.035,-0.025
20:07:05.930,-0.085,-0.025
20:07:05.938,-0.115,-0.045
20:07:05.945,-0.145,-0.065
20:07:05.953,-0.155,-0.065
20:07:05.961,-0.155,-0.065
20:07:05.969,-0.165,-0.055
20:07:05.977,-0.155,-0.085
20:07:05.984,-0.145,-0.075
20:07:05.992,-0.135,-0.055
20:07:06.000,-0.145,-0.065
20:07:06.008,-0.135,-0.065
20:07:06.016,-0.155,-0.065
20:07:06.023,-0.135,-0.055
20:07:06.031,-0.145,-0.065
20:07:06.039,-0.155,-0.075
20:07:06.047,-0.145,-0.065
20:07:06.055,-0.145,-0.065
20:07:06.063,-0.145,-0.065
20:07:06.070,-0.155,-0.095
20:07:06.078,-0.165,-0.085
20:07:06.086,-0.155,-0.085
20:07:06.094,-0.155,-0.085
20:07:06.102,-0.165,-0.105
20:07:06.109,-0.175,-0.085
20:07:06.117,-0.175,-0.085
20:07:06.125,-0.165,-0.095
20:07:06.133,-0.165,-0.105
20:07:06.141,-0.165,-0.105
20:07:06.148,-0.155,-0.095
20:07:06.156,-0.165,-0.095
20:07:06.164,-0.145,-0.075
20:07:06.172,-0.125,-0.055
20:07:06.180,-0.115,-0.055
20:07:06.188,-0.095,-0.045
20:07:06.195,-0.055,-0.065
20:07:06.203,-0.045,-0.055
20:07:06.211,-0.025,-0.055
20:07:06.219,-0.025,-0.065
20:07:06.227,-0.025,-0.095
20:07:06.234,-0.065,-0.095
20:07:06.242,-0.115,-0.095
20:07:06.250,-0.165,-0.105
20:07:06.258,-0.175,-0.135
20:07:06.266,-0.195,-0.125
20:07:06.273,-0.175,-0.115
20:07:06.281,-0.175,-0.125
20:07:06.289,-0.195,-0.145
20:07:06.297,-0.185,-0.125
20:07:06.305,-0.185,-0.115
20:07:06.313,-0.185,-0.115
20:07:06.320,-0.185,-0.135
20:07:06.328,-0.185,-0.125
20:07:06.336,-0.195,-0.115
20:07:06.344,-0.175,-0.065
20:07:06.352,0.025,-0.055
20:07:06.359,0.685,-0.205
20:07:06.367,1.765,-0.485
20:07:06.375,0.685,-0.875
20:07:06.383,-0.665,-0.815
20:07:06.391,-0.715,-0.345
20:07:06.398,-0.355,-0.045
20:07:06.406,-0.215,-0.005
20:07:06.414,-0.175,-0.035
20:07:06.422,-0.205,-0.035
20:07:06.430,-0.185,-0.025
20:07:06.438,-0.185,-0.025
20:07:06.445,-0.185,-0.035
20:07:06.453,-0.185,-0.025
20:07:06.461,-0.155,-0.015
20:07:06.469,-0.155,-0.015
20:07:06.477,-0.145,-0.015
20:07:06.484,-0.145,-0.005
20:07:06.492,-0.125,0.005
20:07:06.500,-0.125,0.025
20:07:06.508,-0.115,0.005
20:07:06.516,-0.115,0.015
20:07:06.523,-0.095,0.045
20:07:06.531,-0.075,0.045
20:07:06.539,-0.075,0.055
20:07:06.547,-0.045,0.075
20:07:06.555,-0.045,0.095
20:07:06.563,-0.035,0.105
20:07:06.570,-0.005,0.095
20:07:06.578,0.005,0.105
20:07:06.586,0.005,0.115
20:07:06.594,0.015,0.105
20:07:06.602,0.005,0.105
20:07:06.609,0.035,0.085
20:07:06.617,0.025,0.065
20:07:06.625,0.015,0.055
20:07:06.633,0.015,0.045
20:07:06.641,0.015,0.025
20:07:06.648,-0.025,0.005
20:07:06.656,-0.065,-0.025
20:07:06.664,-0.105,-0.045
20:07:06.672,-0.115,-0.065
20:07:06.680,-0.145,-0.075
20:07:06.688,-0.175,-0.095
20:07:06.695,-0.165,-0.105
20:07:06.703,-0.175,-0.095
20:07:06.711,-0.175,-0.075
20:07:06.719,-0.175,-0.085
20:07:06.727,-0.175,-0.095
20:07:06.734,-0.165,-0.095
20:07:06.742,-0.165,-0.085
20:07:06.750,-0.165,-0.085
20:07:06.758,-0.165,-0.095
20:07:06.766,-0.165,-0.085
20:07:06.773,-0.155,-0.075
20:07:06.781,-0.145,-0.085
20:07:06.789,-0.165,-0.095
20:07:06.797,-0.175,-0.105
20:07:06.805,-0.145,-0.095
20:07:06.813,-0.175,-0.105
20:07:06.820,-0.175,-0.105
20:07:06.828,-0.185,-0.105
20:07:06.836,-0.175,-0.115
20:07:06.844,-0.175,-0.105
20:07:06.852,-0.175,-0.125
20:07:06.859,-0.205,-0.125
20:07:06.867,-0.185,-0.115
20:07:06.875,-0.185,-0.115
20:07:06.883,-0.185,-0.125
20:07:06.891,-0.195,-0.125
20:07:06.898,-0.205,-0.125
20:07:06.906,-0.175,-0.125
20:07:06.914,-0.195,-0.115
20:07:06.922,-0.165,-0.105
20:07:06.930,-0.155,-0.085
20:07:06.938,-0.125,-0.075
20:07:06.945,-0.115,-0.075
20:07:06.953,-0.095,-0.095
20:07:06.961,-0.065,-0.095
20:07:06.969,-0.065,-0.075
20:07:06.977,-0.025,-0.075
20:07:06.984,-0.075,-0.125
20:07:06.992,-0.115,-0.115
20:07:07.000,-0.175,-0.135
20:07:07.008,-0.185,-0.145
20:07:07.016,-0.205,-0.165
20:07:07.023,-0.205,-0.145
20:07:07.031,-0.195,-0.145
20:07:07.039,-0.225,-0.155
20:07:07.047,-0.225,-0.155
20:07:07.055,-0.205,-0.145
20:07:07.063,-0.215,-0.145
20:07:07.070,-0.205,-0.145
20:07:07.078,-0.195,-0.155
20:07:07.086,-0.205,-0.145
20:07:07.094,-0.225,-0.105
20:07:07.102,-0.025,-0.075
20:07:07.109,0.465,-0.165
20:07:07.117,1.655,-0.455
20:07:07.125,0.785,-0.875
20:07:07.133,-0.685,-0.825
20:07:07.141,-0.805,-0.405
20:07:07.148,-0.365,-0.085
20:07:07.156,-0.225,-0.035
20:07:07.164,-0.205,-0.055
20:07:07.172,-0.195,-0.055
20:07:07.180,-0.205,-0.055
20:07:07.188,-0.185,-0.045
20:07:07.195,-0.185,-0.045
20:07:07.203,-0.185,-0.045
20:07:07.211,-0.175,-0.045
20:07:07.219,-0.175,-0.035
20:07:07.227,-0.165,-0.035
20:07:07.234,-0.145,-0.015
20:07:07.242,-0.135,-0.015
20:07:07.250,-0.135,-0.015
20:07:07.258,-0.125,-0.005
20:07:07.266,-0.115,0.005
20:07:07.273,-0.105,0.025
20:07:07.281,-0.085,0.025
20:07:07.289,-0.075,0.025
20:07:07.297,-0.045,0.045
20:07:07.305,-0.045,0.065
20:07:07.313,-0.035,0.075
20:07:07.320,-0.015,0.065
20:07:07.328,-0.015,0.085
20:07:07.336,-0.005,0.085
20:07:07.344,-0.005,0.075
20:07:07.352,-0.015,0.045
20:07:07.359,-0.005,0.045
20:07:07.367,0.005,0.045
20:07:07.375,-0.005,0.025
20:07:07.383,0.005,0.025
20:07:07.391,-0.015,-0.015
20:07:07.398,-0.045,-0.025
20:07:07.406,-0.075,-0.045
20:07:07.414,-0.085,-0.065
20:07:07.422,-0.105,-0.075
20:07:07.430,-0.135,-0.085
20:07:07.438,-0.145,-0.095
20:07:07.445,-0.155,-0.105
20:07:07.453,-0.175,-0.105
20:07:07.461,-0.155,-0.085
20:07:07.469,-0.155,-0.095
20:07:07.477,-0.145,-0.105
20:07:07.484,-0.135,-0.085
20:07:07.492,-0.145,-0.095
20:07:07.500,-0.155,-0.095
20:07:07.508,-0.145,-0.105
20:07:07.516,-0.145,-0.095
20:07:07.523,-0.145,-0.085
20:07:07.531,-0.145,-0.095
20:07:07.539,-0.155,-0.105
20:07:07.547,-0.135,-0.105
20:07:07.555,-0.135,-0.095
20:07:07.563,-0.145,-0.105
20:07:07.570,-0.165,-0.115
20:07:07.578,-0.155,-0.115
20:07:07.586,-0.155,-0.105
20:07:07.594,-0.155,-0.115
20:07:07.602,-0.165,-0.135
20:07:07.609,-0.155,-0.125
20:07:07.617,-0.155,-0.105
20:07:07.625,-0.155,-0.115
20:07:07.633,-0.155,-0.105
20:07:07.641,-0.135,-0.085
20:07:07.648,-0.115,-0.065
20:07:07.656,-0.075,-0.055
20:07:07.664,-0.065,-0.085
20:07:07.672,-0.045,-0.075
20:07:07.680,-0.025,-0.065
20:07:07.688,-0.005,-0.065
20:07:07.695,-0.015,-0.095
20:07:07.703,-0.065,-0.115
20:07:07.711,-0.125,-0.125
20:07:07.719,-0.135,-0.125
20:07:07.727,-0.175,-0.145
20:07:07.734,-0.165,-0.155
20:07:07.742,-0.165,-0.145
20:07:07.750,-0.185,-0.145
20:07:07.758,-0.195,-0.155
20:07:07.766,-0.185,-0.145
20:07:07.773,-0.195,-0.145
20:07:07.781,-0.195,-0.145
20:07:07.789,-0.185,-0.145
20:07:07.797,-0.175,-0.145
20:07:07.805,-0.175,-0.125
20:07:07.813,-0.195,-0.105
20:07:07.820,-0.025,-0.055
20:07:07.828,0.455,-0.105
20:07:07.836,1.585,-0.365
20:07:07.844,0.805,-0.765
20:07:07.852,-0.565,-0.805
20:07:07.859,-0.845,-0.455
20:07:07.867,-0.435,-0.135
20:07:07.875,-0.225,-0.045
20:07:07.883,-0.185,-0.065
20:07:07.891,-0.185,-0.065
20:07:07.898,-0.185,-0.065
20:07:07.906,-0.175,-0.065
20:07:07.914,-0.165,-0.045
20:07:07.922,-0.155,-0.045
20:07:07.930,-0.135,-0.025
20:07:07.938,-0.145,-0.035
20:07:07.945,-0.145,-0.035
20:07:07.953,-0.145,-0.035
20:07:07.961,-0.115,-0.015
20:07:07.969,-0.105,-0.015
20:07:07.977,-0.105,-0.015
20:07:07.984,-0.075,0.005
20:07:07.992,-0.075,0.015
20:07:08.000,-0.045,0.035
20:07:08.008,-0.045,0.035
20:07:08.016,-0.045,0.055
20:07:08.023,-0.015,0.065
20:07:08.031,0.005,0.085
20:07:08.039,0.025,0.075
20:07:08.047,0.015,0.085
20:07:08.055,0.025,0.105
20:07:08.063,0.035,0.095
20:07:08.070,0.045,0.075
20:07:08.078,0.025,0.045
20:07:08.086,0.035,0.065
20:07:08.094,0.055,0.045
20:07:08.102,0.055,0.005
20:07:08.109,0.015,0.005
20:07:08.117,0.005,-0.005
20:07:08.125,-0.035,-0.025
20:07:08.133,-0.065,-0.045
20:07:08.141,-0.085,-0.065
20:07:08.148,-0.115,-0.065
20:07:08.156,-0.135,-0.065
20:07:08.164,-0.125,-0.075
20:07:08.172,-0.125,-0.075
20:07:08.180,-0.115,-0.075
20:07:08.188,-0.125,-0.075
20:07:08.195,-0.115,-0.075
20:07:08.203,-0.115,-0.075
20:07:08.211,-0.105,-0.065
20:07:08.219,-0.115,-0.065
20:07:08.227,-0.105,-0.065
20:07:08.234,-0.105,-0.075
20:07:08.242,-0.105,-0.055
20:07:08.250,-0.095,-0.065
20:07:08.258,-0.115,-0.065
20:07:08.266,-0.105,-0.075
20:07:08.273,-0.115,-0.075
20:07:08.281,-0.115,-0.085
20:07:08.289,-0.135,-0.075
20:07:08.297,-0.105,-0.095
20:07:08.305,-0.115,-0.085
20:07:08.313,-0.125,-0.095
20:07:08.320,-0.135,-0.095
20:07:08.328,-0.125,-0.095
20:07:08.336,-0.125,-0.095
20:07:08.344,-0.125,-0.095
20:07:08.352,-0.115,-0.095
20:07:08.359,-0.115,-0.095
20:07:08.367,-0.105,-0.075
20:07:08.375,-0.085,-0.055
20:07:08.383,-0.075,-0.055
20:07:08.391,-0.045,-0.045
20:07:08.398,-0.035,-0.055
20:07:08.406,-0.005,-0.045
20:07:08.414,0.015,-0.055
20:07:08.422,0.015,-0.055
20:07:08.430,0.035,-0.065
20:07:08.438,-0.025,-0.095
20:07:08.445,-0.075,-0.095
20:07:08.453,-0.105,-0.105
20:07:08.461,-0.125,-0.125
20:07:08.469,-0.145,-0.125
20:07:08.477,-0.145,-0.115
20:07:08.484,-0.135,-0.125
20:07:08.492,-0.155,-0.115
20:07:08.500,-0.155,-0.115
20:07:08.508,-0.165,-0.125
20:07:08.516,-0.155,-0.135
20:07:08.523,-0.135,-0.115
20:07:08.531,-0.125,-0.115
20:07:08.539,-0.175,-0.115
20:07:08.547,-0.105,-0.075
20:07:08.555,0.145,-0.045
20:07:08.563,0.995,-0.315
20:07:08.570,1.715,-0.655
20:07:08.578,0.165,-0.965
20:07:08.586,-0.745,-0.605
20:07:08.594,-0.475,-0.165
20:07:08.602,-0.215,-0.005
20:07:08.609,-0.145,-0.025
20:07:08.617,-0.135,-0.015
20:07:08.625,-0.135,-0.035
20:07:08.633,-0.145,-0.035
20:07:08.641,-0.155,-0.025
20:07:08.648,-0.115,-0.005
20:07:08.656,-0.115,-0.015
20:07:08.664,-0.105,-0.015
20:07:08.672,-0.105,-0.015
20:07:08.680,-0.085,0.015
20:07:08.688,-0.075,0.005
20:07:08.695,-0.085,0.005
20:07:08.703,-0.075,0.015
20:07:08.711,-0.055,0.035
20:07:08.719,-0.045,0.045
20:07:08.727,-0.025,0.035
20:07:08.734,-0.015,0.055
20:07:08.742,-0.005,0.075
20:07:08.750,0.015,0.105
20:07:08.758,0.015,0.085
20:07:08.766,0.045,0.115
20:07:08.773,0.045,0.125
20:07:08.781,0.065,0.125
20:07:08.789,0.065,0.115
20:07:08.797,0.075,0.105
20:07:08.805,0.075,0.105
20:07:08.813,0.085,0.095
20:07:08.820,0.075,0.075
20:07:08.828,0.075,0.065
20:07:08.836,0.075,0.055
20:07:08.844,0.065,0.035
20:07:08.852,0.035,-0.015
20:07:08.859,-0.005,-0.035
20:07:08.867,-0.035,-0.035
20:07:08.875,-0.075,-0.075
20:07:08.883,-0.105,-0.085
20:07:08.891,-0.115,-0.095
20:07:08.898,-0.105,-0.085
20:07:08.906,-0.105,-0.085
20:07:08.914,-0.115,-0.095
20:07:08.922,-0.105,-0.095
20:07:08.930,-0.105,-0.075
20:07:08.938,-0.115,-0.075
20:07:08.945,-0.115,-0.085
20:07:08.953,-0.105,-0.085
20:07:08.961,-0.115,-0.075
20:07:08.969,-0.105,-0.085
20:07:08.977,-0.105,-0.095
20:07:08.984,-0.095,-0.095
20:07:08.992,-0.105,-0.095
20:07:09.000,-0.105,-0.095
20:07:09.008,-0.105,-0.105
20:07:09.016,-0.105,-0.105
20:07:09.023,-0.115,-0.095
20:07:09.031,-0.115,-0.105
20:07:09.039,-0.115,-0.115
20:07:09.047,-0.125,-0.125
20:07:09.055,-0.115,-0.125
20:07:09.063,-0.115,-0.125
20:07:09.070,-0.135,-0.125
20:07:09.078,-0.125,-0.135
20:07:09.086,-0.125,-0.115
20:07:09.094,-0.115,-0.115
20:07:09.102,-0.135,-0.125
20:07:09.109,-0.085,-0.095
20:07:09.117,-0.085,-0.065
20:07:09.125,-0.065,-0.075
20:07:09.133,-0.045,-0.085
20:07:09.141,-0.015,-0.105
20:07:09.148,0.035,-0.085
20:07:09.156,0.005,-0.085
20:07:09.164,0.045,-0.085
20:07:09.172,-0.025,-0.145
20:07:09.180,-0.065,-0.115
20:07:09.188,-0.105,-0.125
20:07:09.195,-0.125,-0.155
20:07:09.203,-0.135,-0.155
20:07:09.211,-0.145,-0.165
20:07:09.219,-0.145,-0.155
20:07:09.227,-0.145,-0.165
20:07:09.234,-0.155,-0.155
20:07:09.242,-0.145,-0.155
20:07:09.250,-0.145,-0.165
20:07:09.258,-0.165,-0.165
20:07:09.266,-0.145,-0.165
20:07:09.273,-0.145,-0.155
20:07:09.281,-0.155,-0.105
20:07:09.289,0.065,-0.075
20:07:09.297,0.565,-0.195
20:07:09.305,1.625,-0.465
20:07:09.313,1.165,-0.865
20:07:09.320,-0.355,-0.915
20:07:09.328,-0.805,-0.495
20:07:09.336,-0.465,-0.155
20:07:09.344,-0.195,-0.055
20:07:09.352,-0.145,-0.065
20:07:09.359,-0.135,-0.065
20:07:09.367,-0.135,-0.065
20:07:09.375,-0.135,-0.075
20:07:09.383,-0.135,-0.075
20:07:09.391,-0.125,-0.075
20:07:09.398,-0.115,-0.055
20:07:09.406,-0.115,-0.055
20:07:09.414,-0.105,-0.055
20:07:09.422,-0.095,-0.055
20:07:09.430,-0.085,-0.035
20:07:09.438,-0.085,-0.035
20:07:09.445,-0.055,-0.035
20:07:09.453,-0.065,-0.025
20:07:09.461,-0.045,-0.005
20:07:09.469,-0.035,0.005
20:07:09.477,-0.045,0.005
20:07:09.484,-0.015,0.015
20:07:09.492,0.005,0.035
20:07:09.500,0.015,0.055
20:07:09.508,0.025,0.045
20:07:09.516,0.045,0.055
20:07:09.523,0.035,0.075
20:07:09.531,0.045,0.065
20:07:09.539,0.025,0.065
20:07:09.547,0.055,0.045
20:07:09.555,0.055,0.035
20:07:09.563,0.035,0.025
20:07:09.570,0.035,0.005
20:07:09.578,0.065,-0.005
20:07:09.586,0.025,-0.005
20:07:09.594,0.015,-0.035
20:07:09.602,0.015,-0.055
20:07:09.609,-0.025,-0.075
20:07:09.617,-0.045,-0.095
20:07:09.625,-0.075,-0.105
20:07:09.633,-0.115,-0.115
20:07:09.641,-0.095,-0.125
20:07:09.648,-0.095,-0.125
20:07:09.656,-0.095,-0.105
20:07:09.664,-0.105,-0.105
20:07:09.672,-0.095,-0.125
20:07:09.680,-0.095,-0.115
20:07:09.688,-0.085,-0.095
20:07:09.695,-0.095,-0.115
20:07:09.703,-0.085,-0.115
20:07:09.711,-0.095,-0.115
20:07:09.719,-0.065,-0.115
20:07:09.727,-0.085,-0.115
20:07:09.734,-0.095,-0.125
20:07:09.742,-0.085,-0.135
20:07:09.750,-0.065,-0.115
20:07:09.758,-0.075,-0.125
20:07:09.766,-0.105,-0.145
20:07:09.773,-0.105,-0.135
20:07:09.781,-0.125,-0.135
20:07:09.789,-0.085,-0.135
20:07:09.797,-0.105,-0.145
20:07:09.805,-0.105,-0.135
20:07:09.813,-0.115,-0.125
20:07:09.820,-0.065,-0.095
20:07:09.828,-0.085,-0.105
20:07:09.836,-0.045,-0.085
20:07:09.844,-0.035,-0.095
20:07:09.852,-0.005,-0.115
20:07:09.859,0.025,-0.105
20:07:09.867,0.045,-0.075
20:07:09.875,0.045,-0.105
20:07:09.883,-0.025,-0.135
20:07:09.891,-0.075,-0.145
20:07:09.898,-0.115,-0.135
20:07:09.906,-0.115,-0.145
20:07:09.914,-0.115,-0.165
20:07:09.922,-0.135,-0.165
20:07:09.930,-0.115,-0.155
20:07:09.938,-0.135,-0.155
20:07:09.945,-0.145,-0.165
20:07:09.953,-0.145,-0.155
20:07:09.961,-0.135,-0.145
20:07:09.969,-0.135,-0.145
20:07:09.977,-0.145,-0.165
20:07:09.984,-0.175,-0.135
20:07:09.992,-0.065,-0.075
20:07:10.000,0.225,-0.035
20:07:10.008,1.125,-0.265
20:07:10.016,1.515,-0.615
20:07:10.023,-0.005,-0.865
20:07:10.031,-0.845,-0.605
20:07:10.039,-0.615,-0.275
20:07:10.047,-0.255,-0.085
20:07:10.055,-0.155,-0.065
20:07:10.063,-0.145,-0.085
20:07:10.070,-0.135,-0.095
20:07:10.078,-0.135,-0.075
20:07:10.086,-0.135,-0.065
20:07:10.094,-0.125,-0.065
20:07:10.102,-0.125,-0.065
20:07:10.109,-0.095,-0.055
20:07:10.117,-0.095,-0.035
20:07:10.125,-0.095,-0.045
20:07:10.133,-0.075,-0.045
20:07:10.141,-0.085,-0.035
20:07:10.148,-0.055,-0.015
20:07:10.156,-0.045,-0.025
20:07:10.164,-0.035,-0.015
20:07:10.172,-0.025,-0.005
20:07:10.180,-0.005,0.025
20:07:10.188,0.005,0.025
20:07:10.195,0.015,0.035
20:07:10.203,0.015,0.045
20:07:10.211,0.045,0.055
20:07:10.219,0.055,0.065
20:07:10.227,0.055,0.055
20:07:10.234,0.065,0.055
20:07:10.242,0.065,0.055
20:07:10.250,0.065,0.045
20:07:10.258,0.055,0.015
20:07:10.266,0.055,0.005
20:07:10.273,0.065,0.005
20:07:10.281,0.075,-0.005
20:07:10.289,0.045,-0.015
20:07:10.297,0.015,-0.035
20:07:10.305,-0.005,-0.045
20:07:10.313,-0.035,-0.065
20:07:10.320,-0.065,-0.095
20:07:10.328,-0.085,-0.095
20:07:10.336,-0.085,-0.085
20:07:10.344,-0.085,-0.095
20:07:10.352,-0.095,-0.105
20:07:10.359,-0.095,-0.095
20:07:10.367,-0.075,-0.085
20:07:10.375,-0.065,-0.095
20:07:10.383,-0.075,-0.095
20:07:10.391,-0.075,-0.095
20:07:10.398,-0.075,-0.075
20:07:10.406,-0.075,-0.085
20:07:10.414,-0.075,-0.105
20:07:10.422,-0.075,-0.095
20:07:10.430,-0.065,-0.085
20:07:10.438,-0.065,-0.105
20:07:10.445,-0.095,-0.095
20:07:10.453,-0.085,-0.115
20:07:10.461,-0.075,-0.095
20:07:10.469,-0.085,-0.095
20:07:10.477,-0.095,-0.105
20:07:10.484,-0.095,-0.115
20:07:10.492,-0.095,-0.105
20:07:10.500,-0.085,-0.095
20:07:10.508,-0.085,-0.115
20:07:10.516,-0.075,-0.085
20:07:10.523,-0.045,-0.055
20:07:10.531,-0.045,-0.055
20:07:10.539,-0.005,-0.055
20:07:10.547,0.015,-0.065
20:07:10.555,0.025,-0.075
20:07:10.563,0.045,-0.075
20:07:10.570,0.055,-0.055
20:07:10.578,0.055,-0.105
20:07:10.586,0.005,-0.105
20:07:10.594,-0.045,-0.105
20:07:10.602,-0.085,-0.125
20:07:10.609,-0.105,-0.135
20:07:10.617,-0.085,-0.115
20:07:10.625,-0.105,-0.125
20:07:10.633,-0.125,-0.135
20:07:10.641,-0.115,-0.135
20:07:10.648,-0.115,-0.125
20:07:10.656,-0.115,-0.125
20:07:10.664,-0.115,-0.125
20:07:10.672,-0.115,-0.135
20:07:10.680,-0.105,-0.125
20:07:10.688,-0.095,-0.115
20:07:10.695,-0.125,-0.085
20:07:10.703,0.075,-0.055
20:07:10.711,0.565,-0.175
20:07:10.719,1.775,-0.455
20:07:10.727,0.935,-0.895
20:07:10.734,-0.525,-0.795
20:07:10.742,-0.655,-0.335
20:07:10.750,-0.275,-0.035
20:07:10.758,-0.135,-0.015
20:07:10.766,-0.105,-0.025
20:07:10.773,-0.095,-0.025
20:07:10.781,-0.105,-0.015
20:07:10.789,-0.095,-0.035
20:07:10.797,-0.075,-0.035
20:07:10.805,-0.065,-0.015
20:07:10.813,-0.065,-0.015
20:07:10.820,-0.055,-0.015
20:07:10.828,-0.065,-0.005
20:07:10.836,-0.035,0.005
20:07:10.844,-0.025,0.015
20:07:10.852,-0.015,0.015
20:07:10.859,-0.015,0.005
20:07:10.867,0.015,0.045
20:07:10.875,0.015,0.055
20:07:10.883,0.025,0.055
20:07:10.891,0.035,0.065
20:07:10.898,0.065,0.095
20:07:10.906,0.075,0.105
20:07:10.914,0.105,0.115
20:07:10.922,0.095,0.125
20:07:10.930,0.105,0.135
20:07:10.938,0.115,0.125
20:07:10.945,0.105,0.125
20:07:10.953,0.125,0.115
20:07:10.961,0.115,0.115
20:07:10.969,0.125,0.105
20:07:10.977,0.125,0.065
20:07:10.984,0.125,0.055
20:07:10.992,0.135,0.055
20:07:11.000,0.095,0.025
20:07:11.008,0.055,-0.015
20:07:11.016,0.035,-0.035
20:07:11.023,0.005,-0.045
20:07:11.031,-0.045,-0.065
20:07:11.039,-0.055,-0.075
20:07:11.047,-0.055,-0.085
20:07:11.055,-0.045,-0.075
20:07:11.063,-0.065,-0.065
20:07:11.070,-0.045,-0.075
20:07:11.078,-0.035,-0.075
20:07:11.086,-0.045,-0.055
20:07:11.094,-0.045,-0.065
20:07:11.102,-0.055,-0.075
20:07:11.109,-0.045,-0.065
20:07:11.117,-0.035,-0.055
20:07:11.125,-0.045,-0.065
20:07:11.133,-0.045,-0.075
20:07:11.141,-0.045,-0.085
20:07:11.148,-0.055,-0.075
20:07:11.156,-0.055,-0.075
20:07:11.164,-0.055,-0.075
20:07:11.172,-0.065,-0.085
20:07:11.180,-0.055,-0.095
20:07:11.188,-0.065,-0.095
20:07:11.195,-0.065,-0.095
20:07:11.203,-0.065,-0.105
20:07:11.211,-0.065,-0.085
20:07:11.219,-0.065,-0.095
20:07:11.227,-0.075,-0.095
20:07:11.234,-0.055,-0.055
20:07:11.242,-0.015,-0.045
20:07:11.250,-0.005,-0.045
20:07:11.258,0.005,-0.055
20:07:11.266,0.035,-0.065
20:07:11.273,0.065,-0.045
20:07:11.281,0.065,-0.045
20:07:11.289,0.085,-0.065
20:07:11.297,0.035,-0.105
20:07:11.305,0.005,-0.085
20:07:11.313,-0.045,-0.095
20:07:11.320,-0.065,-0.115
20:07:11.328,-0.085,-0.125
20:07:11.336,-0.095,-0.115
20:07:11.344,-0.105,-0.125
20:07:11.352,-0.105,-0.125
20:07:11.359,-0.105,-0.125
20:07:11.367,-0.115,-0.115
20:07:11.375,-0.125,-0.135
20:07:11.383,-0.095,-0.125
20:07:11.391,-0.115,-0.135
20:07:11.398,-0.095,-0.115
20:07:11.406,-0.145,-0.095
20:07:11.414,-0.035,-0.065
20:07:11.422,0.275,-0.065
20:07:11.430,1.145,-0.335
20:07:11.438,1.765,-0.695
20:07:11.445,0.165,-0.965
20:07:11.453,-0.745,-0.585
20:07:11.461,-0.495,-0.175
20:07:11.469,-0.195,-0.005
20:07:11.477,-0.115,-0.025
20:07:11.484,-0.115,-0.025
20:07:11.492,-0.135,-0.025
20:07:11.500,-0.115,-0.025
20:07:11.508,-0.095,-0.045
20:07:11.516,-0.105,-0.025
20:07:11.523,-0.105,-0.015
20:07:11.531,-0.085,-0.015
20:07:11.539,-0.085,-0.025
20:07:11.547,-0.065,-0.025
20:07:11.555,-0.055,-0.005
20:07:11.563,-0.055,-0.005
20:07:11.570,-0.055,0.005
20:07:11.578,-0.045,0.005
20:07:11.586,-0.025,0.035
20:07:11.594,-0.015,0.035
20:07:11.602,-0.015,0.045
20:07:11.609,-0.005,0.045
20:07:11.617,0.025,0.085
20:07:11.625,0.035,0.085
20:07:11.633,0.055,0.085
20:07:11.641,0.065,0.095
20:07:11.648,0.065,0.105
20:07:11.656,0.085,0.105
20:07:11.664,0.075,0.105
20:07:11.672,0.065,0.085
20:07:11.680,0.075,0.095
20:07:11.688,0.095,0.075
20:07:11.695,0.075,0.055
20:07:11.703,0.075,0.045
20:07:11.711,0.065,0.035
20:07:11.719,0.055,0.015
20:07:11.727,0.005,-0.025
20:07:11.734,-0.025,-0.045
20:07:11.742,-0.015,-0.045
20:07:11.750,-0.055,-0.055
20:07:11.758,-0.085,-0.085
20:07:11.766,-0.065,-0.075
20:07:11.773,-0.065,-0.065
20:07:11.781,-0.075,-0.075
20:07:11.789,-0.065,-0.075
20:07:11.797,-0.065,-0.065
20:07:11.805,-0.045,-0.055
20:07:11.813,-0.075,-0.065
20:07:11.820,-0.065,-0.075
20:07:11.828,-0.055,-0.075
20:07:11.836,-0.065,-0.065
20:07:11.844,-0.065,-0.075
20:07:11.852,-0.065,-0.075
20:07:11.859,-0.065,-0.075
20:07:11.867,-0.055,-0.065
20:07:11.875,-0.085,-0.085
20:07:11.883,-0.085,-0.085
20:07:11.891,-0.075,-0.085
20:07:11.898,-0.075,-0.075
20:07:11.906,-0.095,-0.085
20:07:11.914,-0.095,-0.095
20:07:11.922,-0.105,-0.095
20:07:11.930,-0.095,-0.075
20:07:11.938,-0.055,-0.065
20:07:11.945,-0.065,-0.065
20:07:11.953,-0.065,-0.055
20:07:11.961,-0.025,-0.045
20:07:11.969,-0.015,-0.055
20:07:11.977,0.035,-0.065
20:07:11.984,0.025,-0.055
20:07:11.992,0.045,-0.035
20:07:12.000,0.035,-0.075
20:07:12.008,-0.005,-0.095
20:07:12.016,-0.065,-0.095
20:07:12.023,-0.085,-0.105
20:07:12.031,-0.115,-0.115
20:07:12.039,-0.125,-0.125
20:07:12.047,-0.115,-0.115
20:07:12.055,-0.125,-0.105
20:07:12.063,-0.125,-0.125
20:07:12.070,-0.145,-0.125
20:07:12.078,-0.145,-0.125
20:07:12.086,-0.135,-0.105
20:07:12.094,-0.125,-0.115
20:07:12.102,-0.135,-0.125
20:07:12.109,-0.125,-0.125
20:07:12.117,-0.145,-0.075
20:07:12.125,0.015,-0.045
20:07:12.133,0.385,-0.045
20:07:12.141,1.375,-0.265
20:07:12.148,1.105,-0.665
20:07:12.156,-0.345,-0.795
20:07:12.164,-0.835,-0.495
20:07:12.172,-0.515,-0.195
20:07:12.180,-0.215,-0.055
20:07:12.188,-0.155,-0.035
20:07:12.195,-0.125,-0.055
20:07:12.203,-0.145,-0.045
20:07:12.211,-0.135,-0.045
20:07:12.219,-0.125,-0.045
20:07:12.227,-0.115,-0.055
20:07:12.234,-0.115,-0.035
20:07:12.242,-0.095,-0.035
20:07:12.250,-0.105,-0.025
20:07:12.258,-0.105,-0.025
20:07:12.266,-0.065,-0.025
20:07:12.273,-0.085,-0.015
20:07:12.281,-0.065,-0.005
20:07:12.289,-0.075,-0.005
20:07:12.297,-0.055,-0.005
20:07:12.305,-0.045,0.025
20:07:12.313,-0.035,0.015
20:07:12.320,-0.035,0.025
20:07:12.328,0.005,0.025
20:07:12.336,0.015,0.045
20:07:12.344,0.015,0.065
20:07:12.352,0.035,0.065
20:07:12.359,0.035,0.055
20:07:12.367,0.055,0.065
20:07:12.375,0.025,0.065
20:07:12.383,0.035,0.055
20:07:12.391,0.035,0.025
20:07:12.398,0.035,0.035
20:07:12.406,0.035,0.015
20:07:12.414,0.035,0.015
20:07:12.422,0.045,-0.005
20:07:12.430,0.015,-0.015
20:07:12.438,-0.005,-0.015
20:07:12.445,-0.065,-0.055
20:07:12.453,-0.085,-0.065
20:07:12.461,-0.105,-0.065
20:07:12.469,-0.115,-0.065
20:07:12.477,-0.115,-0.075
20:07:12.484,-0.125,-0.085
20:07:12.492,-0.105,-0.075
20:07:12.500,-0.105,-0.075
20:07:12.508,-0.125,-0.075
20:07:12.516,-0.125,-0.085
20:07:12.523,-0.115,-0.075
20:07:12.531,-0.115,-0.075
20:07:12.539,-0.105,-0.075
20:07:12.547,-0.105,-0.075
20:07:12.555,-0.095,-0.075
20:07:12.563,-0.115,-0.085
20:07:12.570,-0.125,-0.085
20:07:12.578,-0.105,-0.085
20:07:12.586,-0.115,-0.085
20:07:12.594,-0.125,-0.085
20:07:12.602,-0.125,-0.085
20:07:12.609,-0.145,-0.095
20:07:12.617,-0.125,-0.095
20:07:12.625,-0.135,-0.095
20:07:12.633,-0.135,-0.105
20:07:12.641,-0.135,-0.095
20:07:12.648,-0.125,-0.055
20:07:12.656,-0.105,-0.045
20:07:12.664,-0.065,-0.055
20:07:12.672,-0.055,-0.065
20:07:12.680,-0.035,-0.055
20:07:12.688,-0.015,-0.045
20:07:12.695,-0.005,-0.055
20:07:12.703,0.015,-0.065
20:07:12.711,-0.035,-0.095
20:07:12.719,-0.095,-0.095
20:07:12.727,-0.145,-0.125
20:07:12.734,-0.145,-0.125
20:07:12.742,-0.155,-0.125
20:07:12.750,-0.165,-0.125
20:07:12.758,-0.155,-0.135
20:07:12.766,-0.175,-0.125
20:07:12.773,-0.185,-0.115
20:07:12.781,-0.185,-0.125
20:07:12.789,-0.165,-0.125
20:07:12.797,-0.145,-0.125
20:07:12.805,-0.165,-0.115
20:07:12.813,-0.175,-0.125
20:07:12.820,-0.195,-0.085
20:07:12.828,0.005,-0.055
20:07:12.836,0.445,-0.115
20:07:12.844,1.545,-0.395
20:07:12.852,1.085,-0.785
20:07:12.859,-0.495,-0.855
20:07:12.867,-0.795,-0.425
20:07:12.875,-0.385,-0.085
20:07:12.883,-0.195,-0.025
20:07:12.891,-0.165,-0.035
20:07:12.898,-0.165,-0.025
20:07:12.906,-0.175,-0.055
20:07:12.914,-0.155,-0.045
20:07:12.922,-0.155,-0.035
20:07:12.930,-0.155,-0.015
20:07:12.938,-0.145,-0.025
20:07:12.945,-0.125,-0.025
20:07:12.953,-0.135,-0.015
20:07:12.961,-0.115,0.005
20:07:12.969,-0.115,-0.005
20:07:12.977,-0.095,-0.005
20:07:12.984,-0.095,-0.005
20:07:12.992,-0.085,0.015
20:07:13.000,-0.065,0.025
20:07:13.008,-0.055,0.025
20:07:13.016,-0.055,0.045
20:07:13.023,-0.035,0.065
20:07:13.031,-0.005,0.085
20:07:13.039,-0.005,0.085
20:07:13.047,0.025,0.085
20:07:13.055,0.025,0.105
20:07:13.063,0.045,0.115
20:07:13.070,0.035,0.105
20:07:13.078,0.025,0.085
20:07:13.086,0.035,0.085
20:07:13.094,0.035,0.065
20:07:13.102,0.045,0.055
20:07:13.109,0.055,0.045
20:07:13.117,0.055,0.035
20:07:13.125,-0.005,0.005
20:07:13.133,-0.025,-0.015
20:07:13.141,-0.055,-0.045
20:07:13.148,-0.075,-0.055
20:07:13.156,-0.115,-0.075
20:07:13.164,-0.125,-0.085
20:07:13.172,-0.135,-0.105
20:07:13.180,-0.125,-0.085
20:07:13.188,-0.125,-0.085
20:07:13.195,-0.135,-0.095
20:07:13.203,-0.125,-0.095
20:07:13.211,-0.115,-0.075
20:07:13.219,-0.115,-0.085
20:07:13.227,-0.115,-0.095
20:07:13.234,-0.115,-0.095
20:07:13.242,-0.125,-0.085
20:07:13.250,-0.105,-0.085
20:07:13.258,-0.115,-0.095
20:07:13.266,-0.115,-0.095
20:07:13.273,-0.125,-0.085
20:07:13.281,-0.115,-0.095
20:07:13.289,-0.115,-0.105
20:07:13.297,-0.125,-0.115
20:07:13.305,-0.125,-0.105
20:07:13.313,-0.135,-0.125
20:07:13.320,-0.135,-0.115
20:07:13.328,-0.135,-0.125
20:07:13.336,-0.135,-0.115
20:07:13.344,-0.125,-0.115
20:07:13.352,-0.125,-0.125
20:07:13.359,-0.135,-0.125
20:07:13.367,-0.125,-0.105
20:07:13.375,-0.125,-0.105
20:07:13.383,-0.095,-0.085
20:07:13.391,-0.095,-0.085
20:07:13.398,-0.035,-0.065
20:07:13.406,-0.035,-0.075
20:07:13.414,-0.015,-0.095
20:07:13.422,0.005,-0.085
20:07:13.430,0.005,-0.065
20:07:13.438,-0.005,-0.095
20:07:13.445,-0.035,-0.135
20:07:13.453,-0.105,-0.125
20:07:13.461,-0.125,-0.125
20:07:13.469,-0.135,-0.145
20:07:13.477,-0.145,-0.155
20:07:13.484,-0.135,-0.145
20:07:13.492,-0.145,-0.145
20:07:13.500,-0.165,-0.145
20:07:13.508,-0.155,-0.165
20:07:13.516,-0.155,-0.155
20:07:13.523,-0.165,-0.145
20:07:13.531,-0.145,-0.145
20:07:13.539,-0.135,-0.155
20:07:13.547,-0.145,-0.155
20:07:13.555,-0.165,-0.105
20:07:13.563,-0.015,-0.075
20:07:13.570,0.395,-0.175
20:07:13.578,1.495,-0.445
20:07:13.586,1.295,-0.785
20:07:13.594,-0.335,-0.905
20:07:13.602,-0.755,-0.465
20:07:13.609,-0.375,-0.115
20:07:13.617,-0.185,-0.015
20:07:13.625,-0.135,-0.045
20:07:13.633,-0.135,-0.055
20:07:13.641,-0.145,-0.055
20:07:13.648,-0.125,-0.045
20:07:13.656,-0.135,-0.055
20:07:13.664,-0.115,-0.045
20:07:13.672,-0.115,-0.055
20:07:13.680,-0.125,-0.045
20:07:13.688,-0.115,-0.035
20:07:13.695,-0.095,-0.035
20:07:13.703,-0.095,-0.025
20:07:13.711,-0.085,-0.025
20:07:13.719,-0.085,-0.005
20:07:13.727,-0.065,-0.005
20:07:13.734,-0.045,0.005
20:07:13.742,-0.035,0.015
20:07:13.750,-0.035,0.025
20:07:13.758,-0.015,0.035
20:07:13.766,0.005,0.045
20:07:13.773,-0.005,0.065
20:07:13.781,0.015,0.085
20:07:13.789,0.025,0.075
20:07:13.797,0.035,0.065
20:07:13.805,0.055,0.085
20:07:13.813,0.045,0.075
20:07:13.820,0.055,0.065
20:07:13.828,0.045,0.055
20:07:13.836,0.045,0.045
20:07:13.844,0.055,0.035
20:07:13.852,0.055,0.025
20:07:13.859,0.045,-0.005
20:07:13.867,0.025,-0.015
20:07:13.875,-0.015,-0.045
20:07:13.883,-0.055,-0.075
20:07:13.891,-0.075,-0.085
20:07:13.898,-0.095,-0.105
20:07:13.906,-0.115,-0.105
20:07:13.914,-0.115,-0.115
20:07:13.922,-0.115,-0.115
20:07:13.930,-0.115,-0.105
20:07:13.938,-0.105,-0.095
20:07:13.945,-0.115,-0.105
20:07:13.953,-0.125,-0.115
20:07:13.961,-0.115,-0.105
20:07:13.969,-0.095,-0.095
20:07:13.977,-0.105,-0.095
20:07:13.984,-0.105,-0.125
20:07:13.992,-0.105,-0.115
20:07:14.000,-0.105,-0.105
20:07:14.008,-0.115,-0.115
20:07:14.016,-0.105,-0.115
20:07:14.023,-0.125,-0.125
20:07:14.031,-0.115,-0.125
20:07:14.039,-0.125,-0.125
20:07:14.047,-0.115,-0.135
20:07:14.055,-0.105,-0.125
20:07:14.063,-0.125,-0.135
20:07:14.070,-0.135,-0.135
20:07:14.078,-0.135,-0.135
20:07:14.086,-0.135,-0.125
20:07:14.094,-0.125,-0.125
20:07:14.102,-0.115,-0.125
20:07:14.109,-0.095,-0.105
20:07:14.117,-0.075,-0.085
20:07:14.125,-0.055,-0.085
20:07:14.133,-0.035,-0.105
20:07:14.141,-0.005,-0.095
20:07:14.148,-0.005,-0.095
20:07:14.156,0.025,-0.085
20:07:14.164,0.015,-0.125
20:07:14.172,-0.035,-0.125
20:07:14.180,-0.085,-0.135
20:07:14.188,-0.125,-0.145
20:07:14.195,-0.135,-0.155
20:07:14.203,-0.145,-0.155
20:07:14.211,-0.135,-0.135
20:07:14.219,-0.145,-0.145
20:07:14.227,-0.155,-0.155
20:07:14.234,-0.145,-0.155
20:07:14.242,-0.145,-0.145
20:07:14.250,-0.155,-0.145
20:07:14.258,-0.125,-0.145
20:07:14.266,-0.135,-0.145
20:07:14.273,-0.155,-0.135
20:07:14.281,-0.135,-0.095
20:07:14.289,0.105,-0.065
20:07:14.297,0.675,-0.165
20:07:14.305,1.695,-0.445
20:07:14.313,0.745,-0.805
20:07:14.320,-0.595,-0.765
20:07:14.328,-0.785,-0.415
20:07:14.336,-0.405,-0.155
20:07:14.344,-0.185,-0.075
20:07:14.352,-0.155,-0.075
20:07:14.359,-0.145,-0.075
20:07:14.367,-0.145,-0.055
20:07:14.375,-0.145,-0.065
20:07:14.383,-0.125,-0.055
20:07:14.391,-0.125,-0.065
20:07:14.398,-0.115,-0.045
20:07:14.406,-0.105,-0.045
20:07:14.414,-0.105,-0.055
20:07:14.422,-0.095,-0.045
20:07:14.430,-0.075,-0.035
20:07:14.438,-0.085,-0.035
20:07:14.445,-0.075,-0.025
20:07:14.453,-0.065,-0.025
20:07:14.461,-0.045,0.005
20:07:14.469,-0.035,0.005
20:07:14.477,-0.025,-0.005
20:07:14.484,-0.025,0.015
20:07:14.492,-0.005,0.025
20:07:14.500,0.015,0.045
20:07:14.508,0.005,0.035
20:07:14.516,0.025,0.045
20:07:14.523,0.035,0.065
20:07:14.531,0.045,0.065
20:07:14.539,0.035,0.045
20:07:14.547,0.035,0.025
20:07:14.555,0.035,0.025
20:07:14.563,0.035,0.005
20:07:14.570,0.035,-0.005
20:07:14.578,0.035,-0.025
20:07:14.586,0.015,-0.015
20:07:14.594,-0.015,-0.035
20:07:14.602,-0.035,-0.055
20:07:14.609,-0.055,-0.065
20:07:14.617,-0.085,-0.075
20:07:14.625,-0.125,-0.085
20:07:14.633,-0.115,-0.095
20:07:14.641,-0.115,-0.095
20:07:14.648,-0.115,-0.085
20:07:14.656,-0.125,-0.085
20:07:14.664,-0.125,-0.095
20:07:14.672,-0.115,-0.095
20:07:14.680,-0.105,-0.075
20:07:14.688,-0.115,-0.085
20:07:14.695,-0.105,-0.095
20:07:14.703,-0.115,-0.095
20:07:14.711,-0.105,-0.075
20:07:14.719,-0.115,-0.075
20:07:14.727,-0.125,-0.095
20:07:14.734,-0.125,-0.095
20:07:14.742,-0.115,-0.085
20:07:14.750,-0.115,-0.095
20:07:14.758,-0.135,-0.095
20:07:14.766,-0.145,-0.105
20:07:14.773,-0.145,-0.095
20:07:14.781,-0.145,-0.105
20:07:14.789,-0.145,-0.105
20:07:14.797,-0.125,-0.085
20:07:14.805,-0.125,-0.065
20:07:14.813,-0.105,-0.065
20:07:14.820,-0.085,-0.055
20:07:14.828,-0.065,-0.055
20:07:14.836,-0.045,-0.065
20:07:14.844,-0.015,-0.065
20:07:14.852,-0.015,-0.075
20:07:14.859,0.025,-0.055
20:07:14.867,-0.015,-0.095
20:07:14.875,-0.065,-0.105
20:07:14.883,-0.125,-0.115
20:07:14.891,-0.155,-0.125
20:07:14.898,-0.145,-0.125
20:07:14.906,-0.145,-0.125
20:07:14.914,-0.175,-0.135
20:07:14.922,-0.175,-0.135
20:07:14.930,-0.175,-0.125
20:07:14.938,-0.185,-0.135
20:07:14.945,-0.175,-0.125
20:07:14.953,-0.185,-0.125
20:07:14.961,-0.175,-0.125
20:07:14.969,-0.165,-0.115
20:07:14.977,-0.175,-0.135
20:07:14.984,-0.195,-0.075
20:07:14.992,0.005,-0.045
20:07:15.000,0.365,-0.095
20:07:15.008,1.445,-0.375
20:07:15.016,1.065,-0.745
20:07:15.023,-0.365,-0.825
20:07:15.031,-0.885,-0.475
20:07:15.039,-0.505,-0.125
20:07:15.047,-0.215,-0.015
20:07:15.055,-0.175,-0.035
20:07:15.063,-0.175,-0.035
20:07:15.070,-0.185,-0.045
20:07:15.078,-0.165,-0.035
20:07:15.086,-0.145,-0.025
20:07:15.094,-0.155,-0.025
20:07:15.102,-0.155,-0.025
20:07:15.109,-0.145,-0.015
20:07:15.117,-0.115,0.005
20:07:15.125,-0.105,-0.005
20:07:15.133,-0.115,-0.015
20:07:15.141,-0.105,-0.005
20:07:15.148,-0.075,0.025
20:07:15.156,-0.075,0.025
20:07:15.164,-0.075,0.025
20:07:15.172,-0.065,0.035
20:07:15.180,-0.035,0.065
20:07:15.188,-0.025,0.075
20:07:15.195,-0.015,0.075
20:07:15.203,-0.005,0.075
20:07:15.211,0.015,0.105
20:07:15.219,0.035,0.115
20:07:15.227,0.025,0.095
20:07:15.234,0.045,0.095
20:07:15.242,0.055,0.105
20:07:15.250,0.045,0.095
20:07:15.258,0.045,0.065
20:07:15.266,0.045,0.065
20:07:15.273,0.035,0.035
20:07:15.281,0.045,0.045
20:07:15.289,0.035,0.015
20:07:15.297,-0.005,-0.005
20:07:15.305,-0.045,-0.025
20:07:15.313,-0.065,-0.035
20:07:15.320,-0.105,-0.055
20:07:15.328,-0.125,-0.065
20:07:15.336,-0.145,-0.065
20:07:15.344,-0.145,-0.075
20:07:15.352,-0.135,-0.075
20:07:15.359,-0.135,-0.075
20:07:15.367,-0.115,-0.065
20:07:15.375,-0.125,-0.065
20:07:15.383,-0.125,-0.075
20:07:15.391,-0.105,-0.065
20:07:15.398,-0.135,-0.055
20:07:15.406,-0.125,-0.045
20:07:15.414,-0.125,-0.075
20:07:15.422,-0.105,-0.065
20:07:15.430,-0.135,-0.055
20:07:15.438,-0.115,-0.065
20:07:15.445,-0.145,-0.075
20:07:15.453,-0.135,-0.085
20:07:15.461,-0.145,-0.085
20:07:15.469,-0.135,-0.075
20:07:15.477,-0.135,-0.095
20:07:15.484,-0.145,-0.095
20:07:15.492,-0.135,-0.085
20:07:15.500,-0.155,-0.085
20:07:15.508,-0.155,-0.105
20:07:15.516,-0.135,-0.085
20:07:15.523,-0.145,-0.085
20:07:15.531,-0.135,-0.075
20:07:15.539,-0.145,-0.085
20:07:15.547,-0.095,-0.055
20:07:15.555,-0.105,-0.045
20:07:15.563,-0.075,-0.035
20:07:15.570,-0.055,-0.055
20:07:15.578,-0.025,-0.045
20:07:15.586,-0.015,-0.045
20:07:15.594,0.015,-0.045
20:07:15.602,-0.005,-0.085
20:07:15.609,-0.045,-0.085
20:07:15.617,-0.105,-0.085
20:07:15.625,-0.135,-0.105
20:07:15.633,-0.155,-0.115
20:07:15.641,-0.155,-0.125
20:07:15.648,-0.155,-0.105
20:07:15.656,-0.165,-0.115
20:07:15.664,-0.165,-0.115
20:07:15.672,-0.155,-0.115
20:07:15.680,-0.165,-0.105
20:07:15.688,-0.155,-0.115
20:07:15.695,-0.155,-0.115
20:07:15.703,-0.175,-0.125
20:07:15.711,-0.135,-0.105
20:07:15.719,-0.185,-0.065
20:07:15.727,-0.005,-0.045
20:07:15.734,0.405,-0.135
20:07:15.742,1.475,-0.405
20:07:15.750,1.305,-0.785
20:07:15.758,-0.295,-0.875
20:07:15.766,-0.775,-0.455
20:07:15.773,-0.415,-0.065
20:07:15.781,-0.185,0.015
20:07:15.789,-0.165,-0.015
20:07:15.797,-0.155,-0.025
20:07:15.805,-0.165,-0.005
20:07:15.813,-0.155,-0.025
20:07:15.820,-0.145,-0.025
20:07:15.828,-0.145,-0.025
20:07:15.836,-0.135,0.005
20:07:15.844,-0.135,-0.005
20:07:15.852,-0.115,-0.005
20:07:15.859,-0.105,-0.005
20:07:15.867,-0.105,0.025
20:07:15.875,-0.095,0.015
20:07:15.883,-0.085,0.035
20:07:15.891,-0.075,0.045
20:07:15.898,-0.055,0.065
20:07:15.906,-0.055,0.065
20:07:15.914,-0.035,0.065
20:07:15.922,-0.005,0.085
20:07:15.930,0.005,0.115
20:07:15.938,0.005,0.115
20:07:15.945,0.035,0.115
20:07:15.953,0.025,0.135
20:07:15.961,0.055,0.135
20:07:15.969,0.055,0.135
20:07:15.977,0.065,0.115
20:07:15.984,0.065,0.105
20:07:15.992,0.055,0.115
20:07:16.000,0.075,0.095
20:07:16.008,0.065,0.075
20:07:16.016,0.085,0.065
20:07:16.023,0.045,0.055
20:07:16.031,0.025,0.025
20:07:16.039,-0.015,-0.025
20:07:16.047,-0.065,-0.045
20:07:16.055,-0.085,-0.045
20:07:16.063,-0.095,-0.065
20:07:16.070,-0.105,-0.085
20:07:16.078,-0.105,-0.075
20:07:16.086,-0.105,-0.065
20:07:16.094,-0.095,-0.075
20:07:16.102,-0.095,-0.065
20:07:16.109,-0.105,-0.075
20:07:16.117,-0.095,-0.065
20:07:16.125,-0.105,-0.065
20:07:16.133,-0.085,-0.065
20:07:16.141,-0.095,-0.075
20:07:16.148,-0.085,-0.065
20:07:16.156,-0.105,-0.075
20:07:16.164,-0.105,-0.095
20:07:16.172,-0.095,-0.095
20:07:16.180,-0.095,-0.085
20:07:16.188,-0.115,-0.085
20:07:16.195,-0.125,-0.105
20:07:16.203,-0.105,-0.095
20:07:16.211,-0.105,-0.095
20:07:16.219,-0.115,-0.095
20:07:16.227,-0.125,-0.115
20:07:16.234,-0.105,-0.115
20:07:16.242,-0.125,-0.095
20:07:16.250,-0.115,-0.105
20:07:16.258,-0.125,-0.115
20:07:16.266,-0.115,-0.105
20:07:16.273,-0.115,-0.095
20:07:16.281,-0.095,-0.075
20:07:16.289,-0.075,-0.065
20:07:16.297,-0.055,-0.065
20:07:16.305,-0.035,-0.045
20:07:16.313,-0.025,-0.065
20:07:16.320,-0.005,-0.065
20:07:16.328,0.015,-0.075
20:07:16.336,0.055,-0.045
20:07:16.344,0.015,-0.095
20:07:16.352,-0.035,-0.115
20:07:16.359,-0.095,-0.105
20:07:16.367,-0.085,-0.095
20:07:16.375,-0.095,-0.135
20:07:16.383,-0.115,-0.125
20:07:16.391,-0.135,-0.135
20:07:16.398,-0.135,-0.125
20:07:16.406,-0.115,-0.125
20:07:16.414,-0.125,-0.135
20:07:16.422,-0.115,-0.125
20:07:16.430,-0.125,-0.125
20:07:16.438,-0.125,-0.125
20:07:16.445,-0.105,-0.125
20:07:16.453,-0.135,-0.125
20:07:16.461,-0.115,-0.075
20:07:16.469,0.085,-0.045
20:07:16.477,0.565,-0.135
20:07:16.484,1.665,-0.425
20:07:16.492,1.045,-0.785
20:07:16.500,-0.385,-0.825
20:07:16.508,-0.775,-0.475
20:07:16.516,-0.395,-0.155
20:07:16.523,-0.165,-0.025
20:07:16.531,-0.115,-0.045
20:07:16.539,-0.125,-0.045
20:07:16.547,-0.105,-0.055
20:07:16.555,-0.105,-0.045
20:07:16.563,-0.115,-0.045
20:07:16.570,-0.105,-0.045
20:07:16.578,-0.075,-0.045
20:07:16.586,-0.085,-0.025
20:07:16.594,-0.085,-0.035
20:07:16.602,-0.075,-0.025
20:07:16.609,-0.055,-0.025
20:07:16.617,-0.035,-0.005
20:07:16.625,-0.045,-0.005
20:07:16.633,-0.025,-0.005
20:07:16.641,-0.025,0.005
20:07:16.648,-0.015,0.025
20:07:16.656,0.015,0.025
20:07:16.664,0.005,0.045
20:07:16.672,0.025,0.045
20:07:16.680,0.055,0.065
20:07:16.688,0.065,0.085
20:07:16.695,0.075,0.085
20:07:16.703,0.085,0.085
20:07:16.711,0.075,0.085
20:07:16.719,0.085,0.085
20:07:16.727,0.085,0.055
20:07:16.734,0.065,0.035
20:07:16.742,0.095,0.035
20:07:16.750,0.095,0.025
20:07:16.758,0.095,0.005
20:07:16.766,0.085,-0.015
20:07:16.773,0.045,-0.025
20:07:16.781,0.015,-0.045
20:07:16.789,-0.005,-0.075
20:07:16.797,-0.035,-0.085
20:07:16.805,-0.045,-0.075
20:07:16.813,-0.055,-0.095
20:07:16.820,-0.075,-0.095
20:07:16.828,-0.055,-0.095
20:07:16.836,-0.045,-0.075
20:07:16.844,-0.055,-0.085
20:07:16.852,-0.055,-0.085
20:07:16.859,-0.055,-0.085
20:07:16.867,-0.035,-0.075
20:07:16.875,-0.035,-0.075
20:07:16.883,-0.045,-0.085
20:07:16.891,-0.055,-0.095
20:07:16.898,-0.035,-0.085
20:07:16.906,-0.035,-0.085
20:07:16.914,-0.045,-0.105
20:07:16.922,-0.045,-0.095
20:07:16.930,-0.055,-0.095
20:07:16.938,-0.065,-0.105
20:07:16.945,-0.075,-0.115
20:07:16.953,-0.055,-0.105
20:07:16.961,-0.075,-0.095
20:07:16.969,-0.075,-0.115
20:07:16.977,-0.075,-0.125
20:07:16.984,-0.075,-0.105
20:07:16.992,-0.045,-0.085
20:07:17.000,-0.035,-0.065
20:07:17.008,-0.035,-0.085
20:07:17.016,-0.015,-0.065
20:07:17.023,0.015,-0.075
20:07:17.031,0.045,-0.075
20:07:17.039,0.035,-0.085
20:07:17.047,0.085,-0.065
20:07:17.055,0.055,-0.105
20:07:17.063,-0.005,-0.105
20:07:17.070,-0.055,-0.125
20:07:17.078,-0.085,-0.135
20:07:17.086,-0.095,-0.135
20:07:17.094,-0.105,-0.135
20:07:17.102,-0.115,-0.155
20:07:17.109,-0.105,-0.145
20:07:17.117,-0.105,-0.135
20:07:17.125,-0.115,-0.145
20:07:17.133,-0.125,-0.145
20:07:17.141,-0.135,-0.145
20:07:17.148,-0.095,-0.135
20:07:17.156,-0.115,-0.135
20:07:17.164,-0.105,-0.145
20:07:17.172,-0.125,-0.095
20:07:17.180,0.075,-0.065
20:07:17.188,0.485,-0.105
20:07:17.195,1.555,-0.385
20:07:17.203,1.005,-0.765
20:07:17.211,-0.395,-0.825
20:07:17.219,-0.795,-0.495
20:07:17.227,-0.435,-0.185
20:07:17.234,-0.165,-0.065
20:07:17.242,-0.115,-0.055
20:07:17.250,-0.105,-0.065
20:07:17.258,-0.105,-0.075
20:07:17.266,-0.135,-0.065
20:07:17.273,-0.105,-0.045
20:07:17.281,-0.095,-0.055
20:07:17.289,-0.085,-0.055
20:07:17.297,-0.085,-0.055
20:07:17.305,-0.065,-0.045
20:07:17.313,-0.065,-0.035
20:07:17.320,-0.065,-0.035
20:07:17.328,-0.055,-0.035
20:07:17.336,-0.045,-0.015
20:07:17.344,-0.035,-0.015
20:07:17.352,-0.025,-0.005
20:07:17.359,-0.005,-0.005
20:07:17.367,0.015,0.025
20:07:17.375,0.015,0.025
20:07:17.383,0.015,0.025
20:07:17.391,0.035,0.045
20:07:17.398,0.065,0.075
20:07:17.406,0.065,0.065
20:07:17.414,0.065,0.065
20:07:17.422,0.065,0.065
20:07:17.430,0.075,0.055
20:07:17.438,0.065,0.045
20:07:17.445,0.055,0.015
20:07:17.453,0.065,0.005
20:07:17.461,0.075,0.005
20:07:17.469,0.065,-0.005
20:07:17.477,0.045,-0.045
20:07:17.484,0.025,-0.055
20:07:17.492,-0.015,-0.065
20:07:17.500,-0.035,-0.075
20:07:17.508,-0.065,-0.105
20:07:17.516,-0.105,-0.115
20:07:17.523,-0.095,-0.105
20:07:17.531,-0.085,-0.105
20:07:17.539,-0.095,-0.115
20:07:17.547,-0.085,-0.095
20:07:17.555,-0.075,-0.095
20:07:17.563,-0.075,-0.095
20:07:17.570,-0.085,-0.095
20:07:17.578,-0.085,-0.105
20:07:17.586,-0.075,-0.085
20:07:17.594,-0.075,-0.095
20:07:17.602,-0.075,-0.115
20:07:17.609,-0.075,-0.105
20:07:17.617,-0.065,-0.095
20:07:17.625,-0.095,-0.105
20:07:17.633,-0.105,-0.115
20:07:17.641,-0.095,-0.115
20:07:17.648,-0.095,-0.115
20:07:17.656,-0.095,-0.125
20:07:17.664,-0.105,-0.125
20:07:17.672,-0.095,-0.125
20:07:17.680,-0.105,-0.115
20:07:17.688,-0.105,-0.115
20:07:17.695,-0.105,-0.135
20:07:17.703,-0.115,-0.125
20:07:17.711,-0.105,-0.105
20:07:17.719,-0.115,-0.105
20:07:17.727,-0.065,-0.105
20:07:17.734,-0.045,-0.075
20:07:17.742,-0.045,-0.055
20:07:17.750,-0.025,-0.075
20:07:17.758,0.005,-0.085
20:07:17.766,0.025,-0.075
20:07:17.773,0.035,-0.075
20:07:17.781,0.055,-0.075
20:07:17.789,0.015,-0.125
20:07:17.797,-0.005,-0.115
20:07:17.805,-0.065,-0.105
20:07:17.813,-0.105,-0.125
20:07:17.820,-0.115,-0.145
20:07:17.828,-0.115,-0.145
20:07:17.836,-0.125,-0.135
20:07:17.844,-0.125,-0.135
20:07:17.852,-0.135,-0.135
20:07:17.859,-0.125,-0.145
20:07:17.867,-0.115,-0.135
20:07:17.875,-0.125,-0.135
20:07:17.883,-0.125,-0.145
20:07:17.891,-0.115,-0.145
20:07:17.898,-0.105,-0.135
20:07:17.906,-0.135,-0.095
20:07:17.914,0.005,-0.075
20:07:17.922,0.365,-0.115
20:07:17.930,1.395,-0.385
20:07:17.938,1.515,-0.715
20:07:17.945,-0.075,-0.935
20:07:17.953,-0.725,-0.595
20:07:17.961,-0.435,-0.185
20:07:17.969,-0.185,-0.015
20:07:17.977,-0.135,-0.035
20:07:17.984,-0.115,-0.045
20:07:17.992,-0.105,-0.025
20:07:18.000,-0.115,-0.035
20:07:18.008,-0.105,-0.035
20:07:18.016,-0.105,-0.035
20:07:18.023,-0.105,-0.025
20:07:18.031,-0.095,-0.025
20:07:18.039,-0.085,-0.015
20:07:18.047,-0.075,-0.025
20:07:18.055,-0.055,-0.005
20:07:18.063,-0.055,0.005
20:07:18.070,-0.055,0.015
20:07:18.078,-0.035,0.015
20:07:18.086,-0.035,0.025
20:07:18.094,-0.025,0.035
20:07:18.102,-0.005,0.055
20:07:18.109,0.015,0.065
20:07:18.117,0.035,0.085
20:07:18.125,0.035,0.095
20:07:18.133,0.045,0.095
20:07:18.141,0.065,0.115
20:07:18.148,0.075,0.135
20:07:18.156,0.075,0.115
20:07:18.164,0.085,0.105
20:07:18.172,0.075,0.105
20:07:18.180,0.085,0.085
20:07:18.188,0.085,0.085
20:07:18.195,0.085,0.055
20:07:18.203,0.095,0.025
20:07:18.211,0.065,0.025
20:07:18.219,0.025,-0.005
20:07:18.227,-0.005,-0.035
20:07:18.234,-0.035,-0.055
20:07:18.242,-0.055,-0.075
20:07:18.250,-0.075,-0.085
20:07:18.258,-0.085,-0.095
20:07:18.266,-0.085,-0.085
20:07:18.273,-0.085,-0.085
20:07:18.281,-0.085,-0.085
20:07:18.289,-0.085,-0.095
20:07:18.297,-0.065,-0.085
20:07:18.305,-0.065,-0.065
20:07:18.313,-0.065,-0.075
20:07:18.320,-0.075,-0.085
20:07:18.328,-0.075,-0.075
20:07:18.336,-0.065,-0.075
20:07:18.344,-0.065,-0.075
20:07:18.352,-0.085,-0.095
20:07:18.359,-0.075,-0.095
20:07:18.367,-0.085,-0.085
20:07:18.375,-0.095,-0.095
20:07:18.383,-0.065,-0.115
20:07:18.391,-0.085,-0.105
20:07:18.398,-0.075,-0.095
20:07:18.406,-0.095,-0.115
20:07:18.414,-0.075,-0.115
20:07:18.422,-0.075,-0.115
20:07:18.430,-0.095,-0.105
20:07:18.438,-0.095,-0.105
20:07:18.445,-0.085,-0.115
20:07:18.453,-0.105,-0.115
20:07:18.461,-0.085,-0.095
20:07:18.469,-0.055,-0.065
20:07:18.477,-0.045,-0.075
20:07:18.484,-0.015,-0.055
20:07:18.492,-0.005,-0.055
20:07:18.500,0.015,-0.075
20:07:18.508,0.055,-0.085
20:07:18.516,0.055,-0.065
20:07:18.523,0.065,-0.075
20:07:18.531,0.015,-0.115
20:07:18.539,-0.015,-0.115
20:07:18.547,-0.065,-0.115
20:07:18.555,-0.095,-0.115
20:07:18.563,-0.105,-0.135
20:07:18.570,-0.095,-0.135
20:07:18.578,-0.105,-0.135
20:07:18.586,-0.115,-0.135
20:07:18.594,-0.115,-0.135
20:07:18.602,-0.105,-0.135
20:07:18.609,-0.105,-0.145
20:07:18.617,-0.105,-0.125
20:07:18.625,-0.105,-0.135
20:07:18.633,-0.095,-0.135
20:07:18.641,-0.135,-0.125
20:07:18.648,-0.045,-0.065
20:07:18.656,0.225,-0.065
20:07:18.664,0.985,-0.265
20:07:18.672,1.805,-0.565
20:07:18.680,0.375,-0.895
20:07:18.688,-0.695,-0.715
20:07:18.695,-0.585,-0.315
20:07:18.703,-0.235,-0.055
20:07:18.711,-0.125,-0.015
20:07:18.719,-0.095,-0.035
20:07:18.727,-0.115,-0.055
20:07:18.734,-0.105,-0.045
20:07:18.742,-0.095,-0.035
20:07:18.750,-0.085,-0.035
20:07:18.758,-0.085,-0.035
20:07:18.766,-0.095,-0.035
20:07:18.773,-0.065,-0.015
20:07:18.781,-0.055,-0.015
20:07:18.789,-0.055,-0.015
20:07:18.797,-0.025,-0.015
20:07:18.805,-0.025,0.005
20:07:18.813,-0.025,0.005
20:07:18.820,-0.005,0.015
20:07:18.828,-0.005,0.025
20:07:18.836,0.025,0.045
20:07:18.844,0.015,0.045
20:07:18.852,0.055,0.055
20:07:18.859,0.055,0.065
20:07:18.867,0.065,0.095
20:07:18.875,0.075,0.085
20:07:18.883,0.065,0.095
20:07:18.891,0.085,0.095
20:07:18.898,0.085,0.105
20:07:18.906,0.065,0.085
20:07:18.914,0.075,0.055
20:07:18.922,0.075,0.045
20:07:18.930,0.075,0.055
20:07:18.938,0.085,0.025
20:07:18.945,0.095,0.005
20:07:18.953,0.055,-0.005
20:07:18.961,0.055,-0.005
20:07:18.969,0.015,-0.025
20:07:18.977,-0.025,-0.065
20:07:18.984,-0.035,-0.065
20:07:18.992,-0.045,-0.065
20:07:19.000,-0.055,-0.065
20:07:19.008,-0.065,-0.085
20:07:19.016,-0.055,-0.085
20:07:19.023,-0.055,-0.065
20:07:19.031,-0.035,-0.055
20:07:19.039,-0.035,-0.065
20:07:19.047,-0.035,-0.075
20:07:19.055,-0.015,-0.065
20:07:19.063,-0.045,-0.065
20:07:19.070,-0.055,-0.075
20:07:19.078,-0.045,-0.075
20:07:19.086,-0.035,-0.065
20:07:19.094,-0.045,-0.075
20:07:19.102,-0.045,-0.085
20:07:19.109,-0.055,-0.075
20:07:19.117,-0.045,-0.085
20:07:19.125,-0.065,-0.085
20:07:19.133,-0.055,-0.105
20:07:19.141,-0.065,-0.095
20:07:19.148,-0.075,-0.085
20:07:19.156,-0.075,-0.095
20:07:19.164,-0.055,-0.095
20:07:19.172,-0.065,-0.095
20:07:19.180,-0.065,-0.075
20:07:19.188,-0.055,-0.055
20:07:19.195,-0.035,-0.065
20:07:19.203,-0.015,-0.055
20:07:19.211,0.005,-0.045
20:07:19.219,0.015,-0.065
20:07:19.227,0.075,-0.065
20:07:19.234,0.075,-0.045
20:07:19.242,0.085,-0.045
20:07:19.250,0.045,-0.075
20:07:19.258,0.005,-0.085
20:07:19.266,-0.045,-0.095
20:07:19.273,-0.065,-0.105
20:07:19.281,-0.095,-0.115
20:07:19.289,-0.085,-0.125
20:07:19.297,-0.075,-0.115
20:07:19.305,-0.095,-0.105
20:07:19.313,-0.115,-0.115
20:07:19.320,-0.125,-0.125
20:07:19.328,-0.105,-0.125
20:07:19.336,-0.105,-0.105
20:07:19.344,-0.125,-0.105
20:07:19.352,-0.095,-0.115
20:07:19.359,-0.095,-0.125
20:07:19.367,-0.135,-0.075
20:07:19.375,-0.005,-0.045
20:07:19.383,0.275,-0.025
20:07:19.391,1.105,-0.215
20:07:19.398,1.645,-0.495
20:07:19.406,0.135,-0.815
20:07:19.414,-0.795,-0.655
20:07:19.422,-0.665,-0.295
20:07:19.430,-0.255,-0.075
20:07:19.438,-0.135,-0.025
20:07:19.445,-0.115,-0.035
20:07:19.453,-0.115,-0.035
20:07:19.461,-0.125,-0.035
20:07:19.469,-0.105,-0.025
20:07:19.477,-0.105,-0.035
20:07:19.484,-0.105,-0.035
20:07:19.492,-0.085,-0.025
20:07:19.500,-0.065,-0.015
20:07:19.508,-0.075,-0.015
20:07:19.516,-0.065,-0.015
20:07:19.523,-0.075,-0.005
20:07:19.531,-0.045,0.005
20:07:19.539,-0.045,0.005
20:07:19.547,-0.035,0.005
20:07:19.555,-0.025,0.025
20:07:19.563,-0.015,0.045
20:07:19.570,0.005,0.045
20:07:19.578,0.015,0.055
20:07:19.586,0.015,0.065
20:07:19.594,0.045,0.085
20:07:19.602,0.045,0.085
20:07:19.609,0.055,0.085
20:07:19.617,0.075,0.085
20:07:19.625,0.055,0.065
20:07:19.633,0.045,0.075
20:07:19.641,0.045,0.055
20:07:19.648,0.055,0.045
20:07:19.656,0.055,0.045
20:07:19.664,0.045,0.015
20:07:19.672,0.015,0.005
20:07:19.680,0.015,-0.005
20:07:19.688,-0.015,-0.005
20:07:19.695,-0.025,-0.045
20:07:19.703,-0.075,-0.065
20:07:19.711,-0.095,-0.055
20:07:19.719,-0.105,-0.055
20:07:19.727,-0.115,-0.065
20:07:19.734,-0.095,-0.065
20:07:19.742,-0.095,-0.055
20:07:19.750,-0.095,-0.055
20:07:19.758,-0.105,-0.065
20:07:19.766,-0.095,-0.065
20:07:19.773,-0.075,-0.055
20:07:19.781,-0.085,-0.065
20:07:19.789,-0.085,-0.075
20:07:19.797,-0.085,-0.065
20:07:19.805,-0.095,-0.045
20:07:19.813,-0.085,-0.055
20:07:19.820,-0.095,-0.075
20:07:19.828,-0.115,-0.075
20:07:19.836,-0.115,-0.075
20:07:19.844,-0.105,-0.075
20:07:19.852,-0.115,-0.085
20:07:19.859,-0.105,-0.085
20:07:19.867,-0.115,-0.085
20:07:19.875,-0.115,-0.095
20:07:19.883,-0.115,-0.095
20:07:19.891,-0.105,-0.095
20:07:19.898,-0.115,-0.075
20:07:19.906,-0.125,-0.085
20:07:19.914,-0.095,-0.065
20:07:19.922,-0.075,-0.045
20:07:19.930,-0.055,-0.025
20:07:19.938,-0.045,-0.035
20:07:19.945,0.005,-0.055
20:07:19.953,0.005,-0.045
20:07:19.961,0.015,-0.045
20:07:19.969,0.035,-0.035
20:07:19.977,-0.005,-0.095
20:07:19.984,-0.055,-0.095
20:07:19.992,-0.095,-0.095
20:07:20.000,-0.125,-0.095
20:07:20.008,-0.115,-0.125
20:07:20.016,-0.135,-0.115
20:07:20.023,-0.145,-0.115
20:07:20.031,-0.145,-0.115
20:07:20.039,-0.155,-0.125
20:07:20.047,-0.145,-0.115
20:07:20.055,-0.155,-0.115
20:07:20.063,-0.155,-0.115
20:07:20.070,-0.135,-0.125
20:07:20.078,-0.135,-0.115
20:07:20.086,-0.165,-0.105
20:07:20.094,-0.135,-0.065
20:07:20.102,0.045,-0.055
20:07:20.109,0.645,-0.155
20:07:20.117,1.735,-0.425
20:07:20.125,0.895,-0.815
20:07:20.133,-0.505,-0.855
20:07:20.141,-0.735,-0.425
20:07:20.148,-0.325,-0.065
20:07:20.156,-0.165,0.005
20:07:20.164,-0.135,-0.025
20:07:20.172,-0.135,-0.025
20:07:20.180,-0.135,-0.015
20:07:20.188,-0.135,-0.015
20:07:20.195,-0.135,-0.025
20:07:20.203,-0.135,-0.015
20:07:20.211,-0.115,0.005
20:07:20.219,-0.105,-0.005
20:07:20.227,-0.095,-0.015
20:07:20.234,-0.085,-0.005
20:07:20.242,-0.085,0.005
20:07:20.250,-0.075,0.025
20:07:20.258,-0.065,0.005
20:07:20.266,-0.075,0.025
20:07:20.273,-0.045,0.045
20:07:20.281,-0.015,0.065
20:07:20.289,-0.035,0.045
20:07:20.297,0.005,0.075
20:07:20.305,0.005,0.105
20:07:20.313,0.025,0.105
20:07:20.320,0.035,0.105
20:07:20.328,0.035,0.115
20:07:20.336,0.045,0.125
20:07:20.344,0.045,0.115
20:07:20.352,0.045,0.095
20:07:20.359,0.055,0.095
20:07:20.367,0.055,0.085
20:07:20.375,0.055,0.065
20:07:20.383,0.045,0.045
20:07:20.391,0.045,0.025
20:07:20.398,0.025,0.025
20:07:20.406,-0.005,-0.005
20:07:20.414,-0.035,-0.045
20:07:20.422,-0.055,-0.055
20:07:20.430,-0.085,-0.065
20:07:20.438,-0.105,-0.075
20:07:20.445,-0.105,-0.085
20:07:20.453,-0.115,-0.095
20:07:20.461,-0.095,-0.075
20:07:20.469,-0.105,-0.085
20:07:20.477,-0.105,-0.085
20:07:20.484,-0.095,-0.075
20:07:20.492,-0.105,-0.075
20:07:20.500,-0.105,-0.075
20:07:20.508,-0.095,-0.075
20:07:20.516,-0.115,-0.075
20:07:20.523,-0.095,-0.075
20:07:20.531,-0.105,-0.075
20:07:20.539,-0.115,-0.095
20:07:20.547,-0.095,-0.085
20:07:20.555,-0.105,-0.095
20:07:20.563,-0.105,-0.095
20:07:20.570,-0.125,-0.105
20:07:20.578,-0.125,-0.105
20:07:20.586,-0.115,-0.095
20:07:20.594,-0.115,-0.105
20:07:20.602,-0.115,-0.115
20:07:20.609,-0.105,-0.115
20:07:20.617,-0.105,-0.095
20:07:20.625,-0.125,-0.105
20:07:20.633,-0.125,-0.115
20:07:20.641,-0.125,-0.115
20:07:20.648,-0.115,-0.095
20:07:20.656,-0.125,-0.105
20:07:20.664,-0.095,-0.095
20:07:20.672,-0.085,-0.065
20:07:20.680,-0.065,-0.055
20:07:20.688,-0.055,-0.055
20:07:20.695,-0.035,-0.075
20:07:20.703,-0.015,-0.075
20:07:20.711,0.015,-0.065
20:07:20.719,0.025,-0.065
20:07:20.727,0.015,-0.095
20:07:20.734,-0.015,-0.135
20:07:20.742,-0.065,-0.115
20:07:20.750,-0.105,-0.115
20:07:20.758,-0.125,-0.145
20:07:20.766,-0.125,-0.155
20:07:20.773,-0.145,-0.135
20:07:20.781,-0.125,-0.145
20:07:20.789,-0.145,-0.145
20:07:20.797,-0.145,-0.155
20:07:20.805,-0.145,-0.145
20:07:20.813,-0.145,-0.135
20:07:20.820,-0.135,-0.145
20:07:20.828,-0.115,-0.155
20:07:20.836,-0.105,-0.145
20:07:20.844,-0.165,-0.115
20:07:20.852,0.015,-0.065
20:07:20.859,0.385,-0.075
20:07:20.867,1.445,-0.375
20:07:20.875,1.355,-0.725
20:07:20.883,-0.165,-0.935
20:07:20.891,-0.775,-0.615
20:07:20.898,-0.425,-0.195
20:07:20.906,-0.165,-0.035
20:07:20.914,-0.135,-0.055
20:07:20.922,-0.135,-0.075
20:07:20.930,-0.125,-0.055
20:07:20.938,-0.115,-0.045
20:07:20.945,-0.125,-0.065
20:07:20.953,-0.105,-0.055
20:07:20.961,-0.105,-0.045
20:07:20.969,-0.085,-0.035
20:07:20.977,-0.095,-0.035
20:07:20.984,-0.085,-0.035
20:07:20.992,-0.075,-0.025
20:07:21.000,-0.055,-0.025
20:07:21.008,-0.055,-0.015
20:07:21.016,-0.035,-0.025
20:07:21.023,-0.035,-0.005
20:07:21.031,-0.015,0.015
20:07:21.039,0.005,0.015
20:07:21.047,0.005,0.015
20:07:21.055,0.025,0.045
20:07:21.063,0.035,0.055
20:07:21.070,0.045,0.055
20:07:21.078,0.075,0.065
20:07:21.086,0.065,0.065
20:07:21.094,0.065,0.065
20:07:21.102,0.045,0.045
20:07:21.109,0.065,0.045
20:07:21.117,0.055,0.035
20:07:21.125,0.055,0.025
20:07:21.133,0.065,-0.005
20:07:21.141,0.055,-0.015
20:07:21.148,0.065,-0.025
20:07:21.156,0.035,-0.045
20:07:21.164,-0.005,-0.075
20:07:21.172,-0.015,-0.095
20:07:21.180,-0.035,-0.105
20:07:21.188,-0.075,-0.105
20:07:21.195,-0.075,-0.115
20:07:21.203,-0.065,-0.115
20:07:21.211,-0.065,-0.105
20:07:21.219,-0.065,-0.105
20:07:21.227,-0.065,-0.105
20:07:21.234,-0.055,-0.105
20:07:21.242,-0.045,-0.095
20:07:21.250,-0.045,-0.105
20:07:21.258,-0.045,-0.115
20:07:21.266,-0.065,-0.105
20:07:21.273,-0.055,-0.095
20:07:21.281,-0.045,-0.105
20:07:21.289,-0.055,-0.105
20:07:21.297,-0.055,-0.125
20:07:21.305,-0.065,-0.105
20:07:21.313,-0.055,-0.115
20:07:21.320,-0.055,-0.125
20:07:21.328,-0.065,-0.135
20:07:21.336,-0.085,-0.115
20:07:21.344,-0.075,-0.135
20:07:21.352,-0.075,-0.135
20:07:21.359,-0.065,-0.125
20:07:21.367,-0.065,-0.125
20:07:21.375,-0.055,-0.105
20:07:21.383,-0.055,-0.085
20:07:21.391,-0.035,-0.095
20:07:21.398,-0.005,-0.075
20:07:21.406,0.015,-0.105
20:07:21.414,0.055,-0.085
20:07:21.422,0.055,-0.095
20:07:21.430,0.095,-0.065
20:07:21.438,0.035,-0.115
20:07:21.445,-0.005,-0.135
20:07:21.453,-0.055,-0.145
20:07:21.461,-0.065,-0.135
20:07:21.469,-0.085,-0.145
20:07:21.477,-0.095,-0.155
20:07:21.484,-0.095,-0.145
20:07:21.492,-0.115,-0.145
20:07:21.500,-0.095,-0.155
20:07:21.508,-0.115,-0.155
20:07:21.516,-0.125,-0.155
20:07:21.523,-0.105,-0.135
20:07:21.531,-0.095,-0.145
20:07:21.539,-0.095,-0.145
20:07:21.547,-0.115,-0.155
20:07:21.555,-0.105,-0.105
20:07:21.563,0.135,-0.065
20:07:21.570,0.565,-0.095
20:07:21.578,1.615,-0.345
20:07:21.586,0.835,-0.725
20:07:21.594,-0.435,-0.795
20:07:21.602,-0.815,-0.525
20:07:21.609,-0.415,-0.205
20:07:21.617,-0.165,-0.075
20:07:21.625,-0.135,-0.075
20:07:21.633,-0.105,-0.085
20:07:21.641,-0.125,-0.075
20:07:21.648,-0.115,-0.065
20:07:21.656,-0.095,-0.075
20:07:21.664,-0.105,-0.075
20:07:21.672,-0.085,-0.065
20:07:21.680,-0.075,-0.045
20:07:21.688,-0.075,-0.055
20:07:21.695,-0.065,-0.065
20:07:21.703,-0.065,-0.055
20:07:21.711,-0.045,-0.025
20:07:21.719,-0.035,-0.025
20:07:21.727,-0.025,-0.035
20:07:21.734,-0.005,-0.015
20:07:21.742,-0.005,-0.005
20:07:21.750,-0.005,0.005
20:07:21.758,0.005,0.005
20:07:21.766,0.025,0.025
20:07:21.773,0.025,0.035
20:07:21.781,0.045,0.045
20:07:21.789,0.055,0.045
20:07:21.797,0.065,0.045
20:07:21.805,0.055,0.045
20:07:21.813,0.045,0.035
20:07:21.820,0.055,0.025
20:07:21.828,0.045,0.005
20:07:21.836,0.055,-0.005
20:07:21.844,0.045,-0.015
20:07:21.852,0.045,-0.035
20:07:21.859,0.035,-0.045
20:07:21.867,0.015,-0.035
20:07:21.875,-0.035,-0.075
20:07:21.883,-0.055,-0.085
20:07:21.891,-0.095,-0.095
20:07:21.898,-0.095,-0.085
20:07:21.906,-0.095,-0.095
20:07:21.914,-0.105,-0.105
20:07:21.922,-0.095,-0.095
20:07:21.930,-0.085,-0.085
20:07:21.938,-0.105,-0.095
20:07:21.945,-0.085,-0.105
20:07:21.953,-0.105,-0.095
20:07:21.961,-0.085,-0.085
20:07:21.969,-0.095,-0.095
20:07:21.977,-0.095,-0.105
20:07:21.984,-0.095,-0.095
20:07:21.992,-0.105,-0.095
20:07:22.000,-0.105,-0.095
20:07:22.008,-0.105,-0.115
20:07:22.016,-0.115,-0.105
20:07:22.023,-0.105,-0.105
20:07:22.031,-0.115,-0.115
20:07:22.039,-0.135,-0.125
20:07:22.047,-0.115,-0.115
20:07:22.055,-0.105,-0.125
20:07:22.063,-0.115,-0.125
20:07:22.070,-0.135,-0.125
20:07:22.078,-0.125,-0.125
20:07:22.086,-0.115,-0.105
20:07:22.094,-0.115,-0.115
20:07:22.102,-0.095,-0.095
20:07:22.109,-0.075,-0.085
20:07:22.117,-0.035,-0.055
20:07:22.125,-0.055,-0.075
20:07:22.133,-0.025,-0.085
20:07:22.141,0.015,-0.085
20:07:22.148,0.015,-0.065
20:07:22.156,0.035,-0.065
20:07:22.164,-0.035,-0.135
20:07:22.172,-0.055,-0.115
20:07:22.180,-0.095,-0.115
20:07:22.188,-0.125,-0.125
20:07:22.195,-0.155,-0.155
20:07:22.203,-0.135,-0.145
20:07:22.211,-0.155,-0.135
20:07:22.219,-0.145,-0.135
20:07:22.227,-0.175,-0.145
20:07:22.234,-0.165,-0.145
20:07:22.242,-0.155,-0.145
20:07:22.250,-0.145,-0.135
20:07:22.258,-0.155,-0.135
20:07:22.266,-0.145,-0.145
20:07:22.273,-0.175,-0.135
20:07:22.281,-0.135,-0.095
20:07:22.289,0.055,-0.065
20:07:22.297,0.595,-0.185
20:07:22.305,1.725,-0.435
20:07:22.313,0.855,-0.845
20:07:22.320,-0.555,-0.855
20:07:22.328,-0.755,-0.435
20:07:22.336,-0.335,-0.095
20:07:22.344,-0.175,-0.015
20:07:22.352,-0.155,-0.045
20:07:22.359,-0.155,-0.045
20:07:22.367,-0.145,-0.045
20:07:22.375,-0.155,-0.045
20:07:22.383,-0.145,-0.045
20:07:22.391,-0.135,-0.035
20:07:22.398,-0.125,-0.025
20:07:22.406,-0.115,-0.025
20:07:22.414,-0.115,-0.035
20:07:22.422,-0.115,-0.025
20:07:22.430,-0.085,-0.005
20:07:22.438,-0.095,-0.005
20:07:22.445,-0.085,0.005
20:07:22.453,-0.075,0.005
20:07:22.461,-0.055,0.025
20:07:22.469,-0.035,0.045
20:07:22.477,-0.035,0.045
20:07:22.484,-0.005,0.075
20:07:22.492,0.015,0.085
20:07:22.500,0.015,0.095
20:07:22.508,0.015,0.105
20:07:22.516,0.035,0.115
20:07:22.523,0.045,0.125
20:07:22.531,0.025,0.095
20:07:22.539,0.025,0.065
20:07:22.547,0.035,0.075
20:07:22.555,0.045,0.065
20:07:22.563,0.045,0.055
20:07:22.570,0.045,0.025
20:07:22.578,0.005,-0.005
20:07:22.586,0.005,-0.005
20:07:22.594,-0.045,-0.045
20:07:22.602,-0.085,-0.065
20:07:22.609,-0.105,-0.075
20:07:22.617,-0.115,-0.085
20:07:22.625,-0.135,-0.095
20:07:22.633,-0.115,-0.085
20:07:22.641,-0.115,-0.085
20:07:22.648,-0.125,-0.075
20:07:22.656,-0.115,-0.085
20:07:22.664,-0.105,-0.085
20:07:22.672,-0.105,-0.075
20:07:22.680,-0.115,-0.075
20:07:22.688,-0.115,-0.085
20:07:22.695,-0.115,-0.085
20:07:22.703,-0.125,-0.075
20:07:22.711,-0.115,-0.065
20:07:22.719,-0.125,-0.095
20:07:22.727,-0.125,-0.095
20:07:22.734,-0.125,-0.085
20:07:22.742,-0.135,-0.085
20:07:22.750,-0.145,-0.105
20:07:22.758,-0.155,-0.115
20:07:22.766,-0.145,-0.095
20:07:22.773,-0.145,-0.105
20:07:22.781,-0.155,-0.105
20:07:22.789,-0.165,-0.115
20:07:22.797,-0.145,-0.115
20:07:22.805,-0.145,-0.105
20:07:22.813,-0.135,-0.105
20:07:22.820,-0.145,-0.115
20:07:22.828,-0.155,-0.115
20:07:22.836,-0.135,-0.085
20:07:22.844,-0.115,-0.065
20:07:22.852,-0.125,-0.075
20:07:22.859,-0.075,-0.055
20:07:22.867,-0.065,-0.055
20:07:22.875,-0.055,-0.075
20:07:22.883,-0.015,-0.075
20:07:22.891,-0.025,-0.075
20:07:22.898,-0.005,-0.065
20:07:22.906,-0.055,-0.105
20:07:22.914,-0.095,-0.115
20:07:22.922,-0.125,-0.105
20:07:22.930,-0.155,-0.125
20:07:22.938,-0.175,-0.125
20:07:22.945,-0.175,-0.145
20:07:22.953,-0.155,-0.135
20:07:22.961,-0.175,-0.125
20:07:22.969,-0.185,-0.135
20:07:22.977,-0.185,-0.145
20:07:22.984,-0.175,-0.135
20:07:22.992,-0.175,-0.135
20:07:23.000,-0.165,-0.135
20:07:23.008,-0.165,-0.145
20:07:23.016,-0.195,-0.125
20:07:23.023,-0.125,-0.075
20:07:23.031,0.135,-0.065
20:07:23.039,0.735,-0.225
20:07:23.047,1.775,-0.525
20:07:23.055,0.595,-0.905
20:07:23.063,-0.685,-0.775
20:07:23.070,-0.715,-0.345
20:07:23.078,-0.335,-0.085
20:07:23.086,-0.185,-0.025
20:07:23.094,-0.175,-0.045
20:07:23.102,-0.165,-0.045
20:07:23.109,-0.175,-0.065
20:07:23.117,-0.165,-0.045
20:07:23.125,-0.165,-0.035
20:07:23.133,-0.155,-0.045
20:07:23.141,-0.145,-0.045
20:07:23.148,-0.145,-0.035
20:07:23.156,-0.135,-0.015
20:07:23.164,-0.125,-0.015
20:07:23.172,-0.125,-0.015
20:07:23.180,-0.095,0.005
20:07:23.188,-0.085,0.015
20:07:23.195,-0.085,0.005
20:07:23.203,-0.075,0.015
20:07:23.211,-0.045,0.045
20:07:23.219,-0.035,0.055
20:07:23.227,-0.035,0.045
20:07:23.234,-0.015,0.075
20:07:23.242,-0.005,0.095
20:07:23.250,0.005,0.105
20:07:23.258,0.015,0.085
20:07:23.266,0.005,0.085
20:07:23.273,-0.005,0.095
20:07:23.281,0.005,0.085
20:07:23.289,-0.005,0.045
20:07:23.297,0.015,0.045
20:07:23.305,0.015,0.035
20:07:23.313,-0.015,0.025
20:07:23.320,0.005,0.005
20:07:23.328,-0.035,-0.025
20:07:23.336,-0.055,-0.025
20:07:23.344,-0.085,-0.055
20:07:23.352,-0.125,-0.075
20:07:23.359,-0.125,-0.075
20:07:23.367,-0.125,-0.075
20:07:23.375,-0.135,-0.075
20:07:23.383,-0.125,-0.085
20:07:23.391,-0.135,-0.075
20:07:23.398,-0.135,-0.065
20:07:23.406,-0.115,-0.065
20:07:23.414,-0.125,-0.075
20:07:23.422,-0.105,-0.075
20:07:23.430,-0.095,-0.065
20:07:23.438,-0.145,-0.065
20:07:23.445,-0.115,-0.075
20:07:23.453,-0.135,-0.075
20:07:23.461,-0.125,-0.075
20:07:23.469,-0.125,-0.075
20:07:23.477,-0.115,-0.085
20:07:23.484,-0.125,-0.085
20:07:23.492,-0.135,-0.085
20:07:23.500,-0.135,-0.095
20:07:23.508,-0.145,-0.105
20:07:23.516,-0.145,-0.105
20:07:23.523,-0.135,-0.085
20:07:23.531,-0.135,-0.085
20:07:23.539,-0.145,-0.095
20:07:23.547,-0.135,-0.105
20:07:23.555,-0.115,-0.085
20:07:23.563,-0.145,-0.075
20:07:23.570,-0.115,-0.065
20:07:23.578,-0.105,-0.065
20:07:23.586,-0.085,-0.045
20:07:23.594,-0.075,-0.045
20:07:23.602,-0.045,-0.065
20:07:23.609,-0.015,-0.065
20:07:23.617,-0.015,-0.055
20:07:23.625,0.005,-0.045
20:07:23.633,-0.025,-0.085
20:07:23.641,-0.085,-0.105
20:07:23.648,-0.125,-0.105
20:07:23.656,-0.145,-0.105
20:07:23.664,-0.155,-0.115
20:07:23.672,-0.135,-0.125
20:07:23.680,-0.175,-0.125
20:07:23.688,-0.165,-0.105
20:07:23.695,-0.175,-0.105
20:07:23.703,-0.175,-0.115
20:07:23.711,-0.185,-0.115
20:07:23.719,-0.175,-0.115
20:07:23.727,-0.165,-0.095
20:07:23.734,-0.145,-0.105
20:07:23.742,-0.155,-0.095
20:07:23.750,-0.165,-0.065
20:07:23.758,0.035,-0.025
20:07:23.766,0.435,-0.055
20:07:23.773,1.435,-0.285
20:07:23.781,1.025,-0.655
20:07:23.789,-0.455,-0.785
20:07:23.797,-0.865,-0.495
20:07:23.805,-0.465,-0.165
20:07:23.813,-0.215,-0.035
20:07:23.820,-0.165,-0.025
20:07:23.828,-0.165,-0.055
20:07:23.836,-0.165,-0.045
20:07:23.844,-0.165,-0.025
20:07:23.852,-0.145,-0.025
20:07:23.859,-0.135,-0.035
20:07:23.867,-0.125,-0.015
20:07:23.875,-0.125,-0.015
20:07:23.883,-0.125,-0.015
20:07:23.891,-0.105,-0.005
20:07:23.898,-0.095,0.005
20:07:23.906,-0.095,0.015
20:07:23.914,-0.085,0.005
20:07:23.922,-0.075,0.005
20:07:23.930,-0.055,0.035
20:07:23.938,-0.045,0.045
20:07:23.945,-0.025,0.045
20:07:23.953,-0.025,0.045
20:07:23.961,-0.005,0.085
20:07:23.969,0.005,0.095
20:07:23.977,0.005,0.085
20:07:23.984,0.035,0.085
20:07:23.992,0.015,0.095
20:07:24.000,0.025,0.075
20:07:24.008,0.005,0.045
20:07:24.016,-0.005,0.045
20:07:24.023,0.015,0.045
20:07:24.031,0.015,0.025
20:07:24.039,0.005,0.005
20:07:24.047,-0.005,-0.005
20:07:24.055,-0.035,-0.005
20:07:24.063,-0.065,-0.025
20:07:24.070,-0.095,-0.045
20:07:24.078,-0.115,-0.055
20:07:24.086,-0.135,-0.055
20:07:24.094,-0.125,-0.055
20:07:24.102,-0.125,-0.065
20:07:24.109,-0.125,-0.065
20:07:24.117,-0.135,-0.065
20:07:24.125,-0.125,-0.065
20:07:24.133,-0.115,-0.055
20:07:24.141,-0.125,-0.055
20:07:24.148,-0.115,-0.045
20:07:24.156,-0.125,-0.055
20:07:24.164,-0.105,-0.055
20:07:24.172,-0.105,-0.055
20:07:24.180,-0.115,-0.055
20:07:24.188,-0.125,-0.065
20:07:24.195,-0.115,-0.065
20:07:24.203,-0.125,-0.065
20:07:24.211,-0.125,-0.065
20:07:24.219,-0.135,-0.075
20:07:24.227,-0.135,-0.085
20:07:24.234,-0.125,-0.075
20:07:24.242,-0.135,-0.075
20:07:24.250,-0.135,-0.085
20:07:24.258,-0.135,-0.095
20:07:24.266,-0.145,-0.085
20:07:24.273,-0.125,-0.075
20:07:24.281,-0.145,-0.085
20:07:24.289,-0.135,-0.085
20:07:24.297,-0.135,-0.075
20:07:24.305,-0.095,-0.045
20:07:24.313,-0.095,-0.035
20:07:24.320,-0.075,-0.035
20:07:24.328,-0.065,-0.045
20:07:24.336,-0.025,-0.035
20:07:24.344,0.005,-0.045
20:07:24.352,-0.005,-0.045
20:07:24.359,0.025,-0.055
20:07:24.367,-0.015,-0.075
20:07:24.375,-0.065,-0.075
20:07:24.383,-0.105,-0.095
20:07:24.391,-0.135,-0.105
20:07:24.398,-0.145,-0.105
20:07:24.406,-0.145,-0.105
20:07:24.414,-0.145,-0.115
20:07:24.422,-0.155,-0.115
20:07:24.430,-0.155,-0.115
20:07:24.438,-0.155,-0.105
20:07:24.445,-0.165,-0.115
20:07:24.453,-0.145,-0.115
20:07:24.461,-0.155,-0.105
20:07:24.469,-0.135,-0.105
20:07:24.477,-0.165,-0.115
20:07:24.484,-0.155,-0.075
20:07:24.492,0.055,-0.025
20:07:24.500,0.565,-0.155
20:07:24.508,1.705,-0.425
20:07:24.516,0.885,-0.845
20:07:24.523,-0.565,-0.805
20:07:24.531,-0.745,-0.395
20:07:24.539,-0.355,-0.075
20:07:24.547,-0.175,-0.005
20:07:24.555,-0.135,-0.005
20:07:24.563,-0.155,-0.015
20:07:24.570,-0.155,-0.025
20:07:24.578,-0.145,-0.025
20:07:24.586,-0.135,-0.015
20:07:24.594,-0.125,-0.005
20:07:24.602,-0.115,-0.015
20:07:24.609,-0.115,-0.005
20:07:24.617,-0.095,0.005
20:07:24.625,-0.095,0.015
20:07:24.633,-0.085,0.015
20:07:24.641,-0.065,0.015
20:07:24.648,-0.065,0.035
20:07:24.656,-0.045,0.045
20:07:24.664,-0.035,0.045
20:07:24.672,-0.015,0.055
20:07:24.680,0.005,0.085
20:07:24.688,0.015,0.095
20:07:24.695,0.025,0.095
20:07:24.703,0.025,0.115
20:07:24.711,0.045,0.135
20:07:24.719,0.045,0.135
20:07:24.727,0.055,0.125
20:07:24.734,0.075,0.115
20:07:24.742,0.065,0.105
20:07:24.750,0.055,0.105
20:07:24.758,0.055,0.065
20:07:24.766,0.055,0.055
20:07:24.773,0.055,0.055
20:07:24.781,0.035,0.015
20:07:24.789,0.015,-0.005
20:07:24.797,-0.015,-0.025
20:07:24.805,-0.045,-0.045
20:07:24.813,-0.075,-0.065
20:07:24.820,-0.095,-0.075
20:07:24.828,-0.095,-0.085
20:07:24.836,-0.095,-0.075
20:07:24.844,-0.105,-0.075
20:07:24.852,-0.095,-0.075
20:07:24.859,-0.105,-0.075
20:07:24.867,-0.095,-0.065
20:07:24.875,-0.105,-0.055
20:07:24.883,-0.085,-0.065
20:07:24.891,-0.085,-0.065
20:07:24.898,-0.075,-0.065
20:07:24.906,-0.085,-0.065
20:07:24.914,-0.095,-0.075
20:07:24.922,-0.085,-0.075
20:07:24.930,-0.075,-0.075
20:07:24.938,-0.095,-0.085
20:07:24.945,-0.105,-0.085
20:07:24.953,-0.085,-0.085
20:07:24.961,-0.115,-0.085
20:07:24.969,-0.105,-0.095
20:07:24.977,-0.115,-0.105
20:07:24.984,-0.115,-0.105
20:07:24.992,-0.105,-0.095
20:07:25.000,-0.115,-0.095
20:07:25.008,-0.125,-0.105
20:07:25.016,-0.105,-0.105
20:07:25.023,-0.105,-0.105
20:07:25.031,-0.105,-0.105
20:07:25.039,-0.105,-0.105
20:07:25.047,-0.105,-0.115
20:07:25.055,-0.105,-0.105
20:07:25.063,-0.105,-0.085
20:07:25.070,-0.065,-0.065
20:07:25.078,-0.075,-0.075
20:07:25.086,-0.045,-0.055
20:07:25.094,-0.025,-0.065
20:07:25.102,0.015,-0.065
20:07:25.109,0.025,-0.065
20:07:25.117,0.045,-0.065
20:07:25.125,0.055,-0.065
20:07:25.133,0.005,-0.115
20:07:25.141,-0.045,-0.115
20:07:25.148,-0.095,-0.125
20:07:25.156,-0.115,-0.125
20:07:25.164,-0.105,-0.135
20:07:25.172,-0.105,-0.135
20:07:25.180,-0.125,-0.135
20:07:25.188,-0.135,-0.125
20:07:25.195,-0.135,-0.145
20:07:25.203,-0.125,-0.145
20:07:25.211,-0.115,-0.125
20:07:25.219,-0.115,-0.125
20:07:25.227,-0.125,-0.135
20:07:25.234,-0.105,-0.145
20:07:25.242,-0.135,-0.105
20:07:25.250,0.025,-0.055
20:07:25.258,0.405,-0.125
20:07:25.266,1.485,-0.435
20:07:25.273,1.265,-0.835
20:07:25.281,-0.295,-0.905
20:07:25.289,-0.715,-0.465
20:07:25.297,-0.345,-0.105
20:07:25.305,-0.125,-0.005
20:07:25.313,-0.135,-0.035
20:07:25.320,-0.125,-0.055
20:07:25.328,-0.115,-0.055
20:07:25.336,-0.115,-0.035
20:07:25.344,-0.115,-0.035
20:07:25.352,-0.115,-0.045
20:07:25.359,-0.105,-0.045
20:07:25.367,-0.095,-0.025
20:07:25.375,-0.085,-0.025
20:07:25.383,-0.075,-0.025
20:07:25.391,-0.065,-0.025
20:07:25.398,-0.065,0.005
20:07:25.406,-0.055,-0.005
20:07:25.414,-0.035,0.005
20:07:25.422,-0.015,0.025
20:07:25.430,-0.015,0.045
20:07:25.438,-0.005,0.025
20:07:25.445,0.015,0.045
20:07:25.453,0.035,0.065
20:07:25.461,0.025,0.075
20:07:25.469,0.035,0.085
20:07:25.477,0.065,0.085
20:07:25.484,0.075,0.095
20:07:25.492,0.065,0.085
20:07:25.500,0.055,0.075
20:07:25.508,0.065,0.045
20:07:25.516,0.035,0.055
20:07:25.523,0.055,0.045
20:07:25.531,0.055,0.025
20:07:25.539,0.065,-0.005
20:07:25.547,0.035,-0.015
20:07:25.555,0.005,-0.035
20:07:25.563,-0.025,-0.065
20:07:25.570,-0.055,-0.095
20:07:25.578,-0.085,-0.105
20:07:25.586,-0.075,-0.095
20:07:25.594,-0.075,-0.105
20:07:25.602,-0.095,-0.105
20:07:25.609,-0.095,-0.105
20:07:25.617,-0.085,-0.085
20:07:25.625,-0.085,-0.085
20:07:25.633,-0.065,-0.095
20:07:25.641,-0.095,-0.095
20:07:25.648,-0.075,-0.095
20:07:25.656,-0.085,-0.085
20:07:25.664,-0.075,-0.095
20:07:25.672,-0.075,-0.095
20:07:25.680,-0.075,-0.095
20:07:25.688,-0.095,-0.095
20:07:25.695,-0.085,-0.105
20:07:25.703,-0.085,-0.115
20:07:25.711,-0.085,-0.105
20:07:25.719,-0.095,-0.105
20:07:25.727,-0.105,-0.115
20:07:25.734,-0.085,-0.105
20:07:25.742,-0.085,-0.115
20:07:25.750,-0.105,-0.125
20:07:25.758,-0.115,-0.125
20:07:25.766,-0.095,-0.125
20:07:25.773,-0.105,-0.105
20:07:25.781,-0.115,-0.125
20:07:25.789,-0.105,-0.125
20:07:25.797,-0.085,-0.125
20:07:25.805,-0.075,-0.115
20:07:25.813,-0.095,-0.115
20:07:25.820,-0.065,-0.095
20:07:25.828,-0.065,-0.095
20:07:25.836,-0.045,-0.065
20:07:25.844,-0.015,-0.065
20:07:25.852,-0.005,-0.085
20:07:25.859,0.045,-0.075
20:07:25.867,0.055,-0.065
20:07:25.875,0.075,-0.065
20:07:25.883,0.025,-0.115
20:07:25.891,-0.035,-0.115
20:07:25.898,-0.075,-0.115
20:07:25.906,-0.075,-0.115
20:07:25.914,-0.085,-0.135
20:07:25.922,-0.095,-0.135
20:07:25.930,-0.095,-0.135
20:07:25.938,-0.095,-0.125
20:07:25.945,-0.105,-0.135
20:07:25.953,-0.105,-0.145
20:07:25.961,-0.105,-0.135
20:07:25.969,-0.105,-0.125
20:07:25.977,-0.095,-0.145
20:07:25.984,-0.075,-0.135
20:07:25.992,-0.135,-0.115
20:07:26.000,-0.055,-0.065
20:07:26.008,0.215,-0.035
20:07:26.016,0.945,-0.185
20:07:26.023,1.775,-0.465
20:07:26.031,0.255,-0.825
20:07:26.039,-0.795,-0.655
20:07:26.047,-0.605,-0.315
20:07:26.055,-0.235,-0.075
20:07:26.063,-0.115,-0.045
20:07:26.070,-0.095,-0.075
20:07:26.078,-0.095,-0.065
20:07:26.086,-0.085,-0.055
20:07:26.094,-0.105,-0.055
20:07:26.102,-0.085,-0.055
20:07:26.109,-0.065,-0.055
20:07:26.117,-0.065,-0.035
20:07:26.125,-0.065,-0.045
20:07:26.133,-0.055,-0.045
20:07:26.141,-0.055,-0.035
20:07:26.148,-0.045,-0.015
20:07:26.156,-0.025,-0.025
20:07:26.164,-0.015,-0.015
20:07:26.172,-0.015,-0.005
20:07:26.180,-0.005,0.015
20:07:26.188,0.005,0.015
20:07:26.195,0.035,0.015
20:07:26.203,0.025,0.035
20:07:26.211,0.055,0.055
20:07:26.219,0.055,0.075
20:07:26.227,0.065,0.065
20:07:26.234,0.075,0.065
20:07:26.242,0.075,0.075
20:07:26.250,0.065,0.055
20:07:26.258,0.055,0.035
20:07:26.266,0.045,0.025
20:07:26.273,0.055,0.025
20:07:26.281,0.065,0.015
20:07:26.289,0.075,0.005
20:07:26.297,0.075,-0.015
20:07:26.305,0.025,-0.015
20:07:26.313,0.005,-0.025
20:07:26.320,-0.015,-0.055
20:07:26.328,-0.055,-0.065
20:07:26.336,-0.055,-0.065
20:07:26.344,-0.065,-0.075
20:07:26.352,-0.075,-0.085
20:07:26.359,-0.075,-0.085
20:07:26.367,-0.075,-0.075
20:07:26.375,-0.065,-0.075
20:07:26.383,-0.065,-0.075
20:07:26.391,-0.055,-0.065
20:07:26.398,-0.065,-0.075
20:07:26.406,-0.065,-0.065
20:07:26.414,-0.065,-0.075
20:07:26.422,-0.055,-0.065
20:07:26.430,-0.055,-0.075
20:07:26.438,-0.055,-0.065
20:07:26.445,-0.075,-0.075
20:07:26.453,-0.065,-0.075
20:07:26.461,-0.065,-0.075
20:07:26.469,-0.075,-0.095
20:07:26.477,-0.085,-0.085
20:07:26.484,-0.065,-0.105
20:07:26.492,-0.085,-0.085
20:07:26.500,-0.085,-0.095
20:07:26.508,-0.095,-0.095
20:07:26.516,-0.085,-0.095
20:07:26.523,-0.095,-0.095
20:07:26.531,-0.075,-0.095
20:07:26.539,-0.105,-0.085
20:07:26.547,-0.065,-0.065
20:07:26.555,-0.045,-0.045
20:07:26.563,-0.035,-0.045
20:07:26.570,-0.005,-0.045
20:07:26.578,0.025,-0.055
20:07:26.586,0.025,-0.055
20:07:26.594,0.045,-0.045
20:07:26.602,0.085,-0.045
20:07:26.609,0.015,-0.085
20:07:26.617,-0.015,-0.075
20:07:26.625,-0.065,-0.095
20:07:26.633,-0.095,-0.115
20:07:26.641,-0.105,-0.125
20:07:26.648,-0.095,-0.105
20:07:26.656,-0.105,-0.105
20:07:26.664,-0.115,-0.125
20:07:26.672,-0.115,-0.115
20:07:26.680,-0.095,-0.105
20:07:26.688,-0.125,-0.105
20:07:26.695,-0.125,-0.125
20:07:26.703,-0.125,-0.115
20:07:26.711,-0.085,-0.095
20:07:26.719,-0.145,-0.085
20:07:26.727,-0.015,-0.055
20:07:26.734,0.255,-0.025
20:07:26.742,1.185,-0.235
20:07:26.750,1.455,-0.585
20:07:26.758,-0.145,-0.865
20:07:26.766,-0.815,-0.555
20:07:26.773,-0.455,-0.175
20:07:26.781,-0.165,-0.025
20:07:26.789,-0.115,-0.025
20:07:26.797,-0.095,-0.015
20:07:26.805,-0.105,-0.015
20:07:26.813,-0.095,-0.025
20:07:26.820,-0.085,-0.025
20:07:26.828,-0.095,-0.015
20:07:26.836,-0.085,0.005
20:07:26.844,-0.065,-0.005
20:07:26.852,-0.065,-0.005
20:07:26.859,-0.055,0.005
20:07:26.867,-0.055,0.025
20:07:26.875,-0.035,0.015
20:07:26.883,-0.025,0.005
20:07:26.891,-0.015,0.025
20:07:26.898,-0.005,0.055
20:07:26.906,0.005,0.055
20:07:26.914,0.025,0.065
20:07:26.922,0.045,0.085
20:07:26.930,0.065,0.105
20:07:26.938,0.065,0.115
20:07:26.945,0.075,0.105
20:07:26.953,0.075,0.125
20:07:26.961,0.095,0.125
20:07:26.969,0.085,0.125
20:07:26.977,0.085,0.115
20:07:26.984,0.105,0.115
20:07:26.992,0.105,0.105
20:07:27.000,0.085,0.085
20:07:27.008,0.095,0.055
20:07:27.016,0.085,0.055
20:07:27.023,0.075,0.035
20:07:27.031,0.035,0.005
20:07:27.039,0.015,-0.015
20:07:27.047,-0.005,-0.035
20:07:27.055,-0.025,-0.035
20:07:27.063,-0.035,-0.055
20:07:27.070,-0.075,-0.075
20:07:27.078,-0.085,-0.055
20:07:27.086,-0.055,-0.045
20:07:27.094,-0.065,-0.055
20:07:27.102,-0.085,-0.065
20:07:27.109,-0.055,-0.065
20:07:27.117,-0.055,-0.035
20:07:27.125,-0.055,-0.045
20:07:27.133,-0.045,-0.055
20:07:27.141,-0.065,-0.055
20:07:27.148,-0.055,-0.045
20:07:27.156,-0.055,-0.045
20:07:27.164,-0.055,-0.055
20:07:27.172,-0.055,-0.065
20:07:27.180,-0.055,-0.055
20:07:27.188,-0.065,-0.055
20:07:27.195,-0.065,-0.075
20:07:27.203,-0.075,-0.075
20:07:27.211,-0.085,-0.065
20:07:27.219,-0.095,-0.065
20:07:27.227,-0.085,-0.085
20:07:27.234,-0.075,-0.085
20:07:27.242,-0.085,-0.075
20:07:27.250,-0.095,-0.085
20:07:27.258,-0.095,-0.085
20:07:27.266,-0.075,-0.085
20:07:27.273,-0.075,-0.075
20:07:27.281,-0.075,-0.085
20:07:27.289,-0.085,-0.075
20:07:27.297,-0.085,-0.075
20:07:27.305,-0.045,-0.045
20:07:27.313,-0.045,-0.045
20:07:27.320,-0.045,-0.045
20:07:27.328,-0.015,-0.035
20:07:27.336,0.005,-0.035
20:07:27.344,0.055,-0.035
20:07:27.352,0.055,-0.035
20:07:27.359,0.065,-0.035
20:07:27.367,0.045,-0.065
20:07:27.375,-0.015,-0.075
20:07:27.383,-0.065,-0.075
20:07:27.391,-0.085,-0.095
20:07:27.398,-0.095,-0.095
20:07:27.406,-0.105,-0.105
20:07:27.414,-0.115,-0.115
20:07:27.422,-0.105,-0.105
20:07:27.430,-0.105,-0.105
20:07:27.438,-0.125,-0.105
20:07:27.445,-0.125,-0.115
20:07:27.453,-0.125,-0.105
20:07:27.461,-0.095,-0.085
20:07:27.469,-0.085,-0.105
20:07:27.477,-0.165,-0.105
20:07:27.484,-0.045,-0.035
20:07:27.492,0.225,-0.025
20:07:27.500,1.175,-0.295
20:07:27.508,1.535,-0.645
20:07:27.516,0.005,-0.915
20:07:27.523,-0.755,-0.585
20:07:27.531,-0.445,-0.165
20:07:27.539,-0.185,-0.005
20:07:27.547,-0.105,-0.005
20:07:27.555,-0.105,0.005
20:07:27.563,-0.115,-0.015
20:07:27.570,-0.115,-0.015
20:07:27.578,-0.105,-0.005
20:07:27.586,-0.105,0.005
20:07:27.594,-0.095,-0.005
20:07:27.602,-0.095,0.005
20:07:27.609,-0.085,0.005
20:07:27.617,-0.065,0.025
20:07:27.625,-0.065,0.015
20:07:27.633,-0.055,0.005
20:07:27.641,-0.065,0.035
20:07:27.648,-0.035,0.045
20:07:27.656,-0.035,0.045
20:07:27.664,-0.025,0.045
20:07:27.672,-0.015,0.075
20:07:27.680,0.005,0.085
20:07:27.688,0.015,0.085
20:07:27.695,0.045,0.095
20:07:27.703,0.015,0.105
20:07:27.711,0.055,0.125
20:07:27.719,0.055,0.135
20:07:27.727,0.045,0.105
20:07:27.734,0.055,0.115
20:07:27.742,0.045,0.125
20:07:27.750,0.055,0.105
20:07:27.758,0.055,0.085
20:07:27.766,0.035,0.065
20:07:27.773,0.055,0.045
20:07:27.781,0.045,0.025
20:07:27.789,0.025,0.005
20:07:27.797,0.005,-0.015
20:07:27.805,-0.035,-0.025
20:07:27.813,-0.055,-0.045
20:07:27.820,-0.085,-0.065
20:07:27.828,-0.115,-0.085
20:07:27.836,-0.095,-0.065
20:07:27.844,-0.105,-0.075
20:07:27.852,-0.105,-0.075
20:07:27.859,-0.105,-0.075
20:07:27.867,-0.095,-0.055
20:07:27.875,-0.085,-0.055
20:07:27.883,-0.085,-0.075
20:07:27.891,-0.085,-0.065
20:07:27.898,-0.085,-0.065
20:07:27.906,-0.095,-0.065
20:07:27.914,-0.105,-0.065
20:07:27.922,-0.105,-0.065
20:07:27.930,-0.095,-0.065
20:07:27.938,-0.105,-0.075
20:07:27.945,-0.115,-0.085
20:07:27.953,-0.105,-0.085
20:07:27.961,-0.105,-0.075
20:07:27.969,-0.115,-0.085
20:07:27.977,-0.125,-0.095
20:07:27.984,-0.115,-0.095
20:07:27.992,-0.105,-0.085
20:07:28.000,-0.115,-0.095
20:07:28.008,-0.125,-0.095
20:07:28.016,-0.125,-0.105
20:07:28.023,-0.135,-0.095
20:07:28.031,-0.115,-0.095
20:07:28.039,-0.125,-0.095
20:07:28.047,-0.125,-0.085
20:07:28.055,-0.085,-0.055
20:07:28.063,-0.085,-0.045
20:07:28.070,-0.045,-0.035
20:07:28.078,-0.035,-0.055
20:07:28.086,-0.005,-0.055
20:07:28.094,0.005,-0.055
20:07:28.102,0.045,-0.045
20:07:28.109,-0.005,-0.085
20:07:28.117,-0.035,-0.085
20:07:28.125,-0.115,-0.095
20:07:28.133,-0.135,-0.115
20:07:28.141,-0.135,-0.125
20:07:28.148,-0.125,-0.105
20:07:28.156,-0.145,-0.105
20:07:28.164,-0.165,-0.125
20:07:28.172,-0.155,-0.115
20:07:28.180,-0.145,-0.105
20:07:28.188,-0.155,-0.105
20:07:28.195,-0.145,-0.115
20:07:28.203,-0.145,-0.125
20:07:28.211,-0.135,-0.105
20:07:28.219,-0.175,-0.085
20:07:28.227,0.025,-0.045
20:07:28.234,0.455,-0.055
20:07:28.242,1.425,-0.265
20:07:28.250,1.065,-0.625
20:07:28.258,-0.415,-0.805
20:07:28.266,-0.835,-0.485
20:07:28.273,-0.485,-0.195
20:07:28.281,-0.205,-0.045
20:07:28.289,-0.165,-0.045
20:07:28.297,-0.145,-0.035
20:07:28.305,-0.135,-0.025
20:07:28.313,-0.145,-0.035
20:07:28.320,-0.135,-0.045
20:07:28.328,-0.125,-0.035
20:07:28.336,-0.125,-0.015
20:07:28.344,-0.105,-0.015
20:07:28.352,-0.095,-0.025
20:07:28.359,-0.095,-0.025
20:07:28.367,-0.085,-0.005
20:07:28.375,-0.085,-0.005
20:07:28.383,-0.085,0.005
20:07:28.391,-0.075,-0.005
20:07:28.398,-0.055,0.015
20:07:28.406,-0.055,0.015
20:07:28.414,-0.025,0.005
20:07:28.422,-0.015,0.035
20:07:28.430,-0.005,0.045
20:07:28.438,0.005,0.055
20:07:28.445,0.025,0.045
20:07:28.453,0.025,0.065
20:07:28.461,0.035,0.085
20:07:28.469,0.035,0.065
20:07:28.477,0.035,0.055
20:07:28.484,0.045,0.045
20:07:28.492,0.045,0.045
20:07:28.500,0.015,0.015
20:07:28.508,0.015,0.005
20:07:28.516,0.035,-0.005
20:07:28.523,0.035,-0.005
20:07:28.531,-0.005,-0.025
20:07:28.539,-0.035,-0.045
20:07:28.547,-0.045,-0.055
20:07:28.555,-0.075,-0.065
20:07:28.563,-0.105,-0.065
20:07:28.570,-0.115,-0.095
20:07:28.578,-0.135,-0.085
20:07:28.586,-0.115,-0.075
20:07:28.594,-0.125,-0.085
20:07:28.602,-0.125,-0.085
20:07:28.609,-0.105,-0.085
20:07:28.617,-0.115,-0.065
20:07:28.625,-0.115,-0.065
20:07:28.633,-0.105,-0.075
20:07:28.641,-0.115,-0.075
20:07:28.648,-0.105,-0.085
20:07:28.656,-0.115,-0.075
20:07:28.664,-0.105,-0.085
20:07:28.672,-0.115,-0.095
20:07:28.680,-0.105,-0.095
20:07:28.688,-0.135,-0.105
20:07:28.695,-0.115,-0.105
20:07:28.703,-0.145,-0.105
20:07:28.711,-0.125,-0.095
20:07:28.719,-0.135,-0.095
20:07:28.727,-0.135,-0.115
20:07:28.734,-0.135,-0.105
20:07:28.742,-0.135,-0.095
20:07:28.750,-0.135,-0.095
20:07:28.758,-0.105,-0.075
20:07:28.766,-0.105,-0.065
20:07:28.773,-0.065,-0.045
20:07:28.781,-0.065,-0.055
20:07:28.789,-0.035,-0.075
20:07:28.797,-0.005,-0.075
20:07:28.805,0.005,-0.055
20:07:28.813,0.005,-0.075
20:07:28.820,-0.045,-0.105
20:07:28.828,-0.105,-0.105
20:07:28.836,-0.145,-0.105
20:07:28.844,-0.165,-0.125
20:07:28.852,-0.165,-0.135
20:07:28.859,-0.155,-0.125
20:07:28.867,-0.175,-0.125
20:07:28.875,-0.175,-0.145
20:07:28.883,-0.185,-0.135
20:07:28.891,-0.185,-0.135
20:07:28.898,-0.175,-0.135
20:07:28.906,-0.175,-0.135
20:07:28.914,-0.175,-0.135
20:07:28.922,-0.165,-0.135
20:07:28.930,-0.205,-0.105
20:07:28.938,-0.035,-0.065
20:07:28.945,0.305,-0.045
20:07:28.953,1.225,-0.255
20:07:28.961,1.355,-0.525
20:07:28.969,-0.155,-0.855
20:07:28.977,-0.865,-0.635
20:07:28.984,-0.595,-0.275
20:07:28.992,-0.275,-0.075
20:07:29.000,-0.185,-0.045
20:07:29.008,-0.165,-0.065
20:07:29.016,-0.185,-0.065
20:07:29.023,-0.175,-0.045
20:07:29.031,-0.165,-0.045
20:07:29.039,-0.155,-0.055
20:07:29.047,-0.135,-0.045
20:07:29.055,-0.135,-0.035
20:07:29.063,-0.135,-0.035
20:07:29.070,-0.125,-0.035
20:07:29.078,-0.115,-0.025
20:07:29.086,-0.095,-0.015
20:07:29.094,-0.105,-0.015
20:07:29.102,-0.085,-0.005
20:07:29.109,-0.065,-0.005
20:07:29.117,-0.055,0.005
20:07:29.125,-0.055,0.015
20:07:29.133,-0.035,0.025
20:07:29.141,-0.015,0.025
20:07:29.148,0.005,0.055
20:07:29.156,0.015,0.065
20:07:29.164,0.015,0.065
20:07:29.172,0.025,0.075
20:07:29.180,0.045,0.085
20:07:29.188,0.045,0.085
20:07:29.195,0.035,0.085
20:07:29.203,0.055,0.045
20:07:29.211,0.025,0.045
20:07:29.219,0.035,0.035
20:07:29.227,0.035,0.025
20:07:29.234,0.045,0.005
20:07:29.242,0.025,-0.005
20:07:29.250,-0.015,-0.025
20:07:29.258,-0.055,-0.055
20:07:29.266,-0.075,-0.075
20:07:29.273,-0.105,-0.085
20:07:29.281,-0.115,-0.085
20:07:29.289,-0.125,-0.095
20:07:29.297,-0.135,-0.105
20:07:29.305,-0.125,-0.085
20:07:29.313,-0.135,-0.095
20:07:29.320,-0.125,-0.095
20:07:29.328,-0.125,-0.105
20:07:29.336,-0.125,-0.095
20:07:29.344,-0.115,-0.085
20:07:29.352,-0.115,-0.085
20:07:29.359,-0.125,-0.095
20:07:29.367,-0.115,-0.085
20:07:29.375,-0.115,-0.085
20:07:29.383,-0.115,-0.095
20:07:29.391,-0.115,-0.105
20:07:29.398,-0.125,-0.105
20:07:29.406,-0.135,-0.105
20:07:29.414,-0.135,-0.105
20:07:29.422,-0.135,-0.115
20:07:29.430,-0.125,-0.115
20:07:29.438,-0.135,-0.115
20:07:29.445,-0.145,-0.115
20:07:29.453,-0.145,-0.125
20:07:29.461,-0.145,-0.115
20:07:29.469,-0.145,-0.115
20:07:29.477,-0.155,-0.125
20:07:29.484,-0.155,-0.115
20:07:29.492,-0.125,-0.085
20:07:29.500,-0.105,-0.065
20:07:29.508,-0.095,-0.085
20:07:29.516,-0.065,-0.075
20:07:29.523,-0.045,-0.075
20:07:29.531,-0.015,-0.075
20:07:29.539,-0.025,-0.085
20:07:29.547,0.025,-0.075
20:07:29.555,-0.025,-0.105
20:07:29.563,-0.075,-0.115
20:07:29.570,-0.135,-0.135
20:07:29.578,-0.145,-0.125
20:07:29.586,-0.155,-0.135
20:07:29.594,-0.145,-0.145
20:07:29.602,-0.165,-0.155
20:07:29.609,-0.175,-0.145
20:07:29.617,-0.175,-0.135
20:07:29.625,-0.175,-0.135
20:07:29.633,-0.175,-0.145
20:07:29.641,-0.175,-0.145
20:07:29.648,-0.165,-0.135
20:07:29.656,-0.165,-0.145
20:07:29.664,-0.205,-0.125
20:07:29.672,-0.055,-0.075
20:07:29.680,0.215,-0.065
20:07:29.688,1.125,-0.345
20:07:29.695,1.495,-0.635
20:07:29.703,-0.015,-0.925
20:07:29.711,-0.745,-0.685
20:07:29.719,-0.545,-0.265
20:07:29.727,-0.255,-0.045
20:07:29.734,-0.175,-0.025
20:07:29.742,-0.165,-0.045
20:07:29.750,-0.175,-0.045
20:07:29.758,-0.175,-0.055
20:07:29.766,-0.175,-0.045
20:07:29.773,-0.155,-0.035
20:07:29.781,-0.155,-0.035
20:07:29.789,-0.155,-0.045
20:07:29.797,-0.135,-0.015
20:07:29.805,-0.135,-0.015
20:07:29.813,-0.125,-0.015
20:07:29.820,-0.115,-0.015
20:07:29.828,-0.115,-0.005
20:07:29.836,-0.085,0.015
20:07:29.844,-0.085,0.015
20:07:29.852,-0.085,0.025
20:07:29.859,-0.045,0.035
20:07:29.867,-0.045,0.065
20:07:29.875,-0.025,0.065
20:07:29.883,-0.005,0.075
20:07:29.891,-0.005,0.085
20:07:29.898,0.025,0.125
20:07:29.906,0.025,0.105
20:07:29.914,0.045,0.115
20:07:29.922,0.055,0.105
20:07:29.930,0.035,0.105
20:07:29.938,0.035,0.085
20:07:29.945,0.045,0.075
20:07:29.953,0.045,0.055
20:07:29.961,0.055,0.055
20:07:29.969,0.025,0.025
20:07:29.977,0.015,-0.005
20:07:29.984,-0.015,-0.025
20:07:29.992,-0.055,-0.045
20:07:30.000,-0.095,-0.065
20:07:30.008,-0.135,-0.085
20:07:30.016,-0.125,-0.105
20:07:30.023,-0.125,-0.095
20:07:30.031,-0.135,-0.095
20:07:30.039,-0.135,-0.105
20:07:30.047,-0.125,-0.085
20:07:30.055,-0.125,-0.085
20:07:30.063,-0.125,-0.095
20:07:30.070,-0.125,-0.095
20:07:30.078,-0.125,-0.095
20:07:30.086,-0.125,-0.075
20:07:30.094,-0.115,-0.085
20:07:30.102,-0.115,-0.095
20:07:30.109,-0.135,-0.095
20:07:30.117,-0.125,-0.095
20:07:30.125,-0.135,-0.095
20:07:30.133,-0.135,-0.115
20:07:30.141,-0.155,-0.115
20:07:30.148,-0.135,-0.105
20:07:30.156,-0.145,-0.105
20:07:30.164,-0.145,-0.115
20:07:30.172,-0.145,-0.125
20:07:30.180,-0.135,-0.115
20:07:30.188,-0.155,-0.125
20:07:30.195,-0.155,-0.135
20:07:30.203,-0.145,-0.125
20:07:30.211,-0.135,-0.105
20:07:30.219,-0.125,-0.105
20:07:30.227,-0.115,-0.095
20:07:30.234,-0.095,-0.075
20:07:30.242,-0.075,-0.065
20:07:30.250,-0.045,-0.085
20:07:30.258,-0.015,-0.085
20:07:30.266,-0.025,-0.085
20:07:30.273,0.005,-0.075
20:07:30.281,-0.035,-0.105
20:07:30.289,-0.075,-0.125
20:07:30.297,-0.125,-0.135
20:07:30.305,-0.155,-0.135
20:07:30.313,-0.165,-0.145
20:07:30.320,-0.155,-0.155
20:07:30.328,-0.175,-0.145
20:07:30.336,-0.175,-0.145
20:07:30.344,-0.185,-0.145
20:07:30.352,-0.185,-0.145
20:07:30.359,-0.175,-0.145
20:07:30.367,-0.165,-0.135
20:07:30.375,-0.155,-0.145
20:07:30.383,-0.165,-0.145
20:07:30.391,-0.195,-0.145
20:07:30.398,-0.145,-0.085
20:07:30.406,0.085,-0.065
20:07:30.414,0.645,-0.145
20:07:30.422,1.735,-0.425
20:07:30.430,0.745,-0.775
20:07:30.438,-0.605,-0.815
20:07:30.445,-0.805,-0.485
20:07:30.453,-0.395,-0.155
20:07:30.461,-0.205,-0.055
20:07:30.469,-0.175,-0.065
20:07:30.477,-0.175,-0.075
20:07:30.484,-0.165,-0.055
20:07:30.492,-0.155,-0.055
20:07:30.500,-0.165,-0.055
20:07:30.508,-0.155,-0.065
20:07:30.516,-0.155,-0.065
20:07:30.523,-0.145,-0.035
20:07:30.531,-0.135,-0.045
20:07:30.539,-0.135,-0.045
20:07:30.547,-0.115,-0.035
20:07:30.555,-0.115,-0.025
20:07:30.563,-0.105,-0.015
20:07:30.570,-0.095,-0.025
20:07:30.578,-0.085,-0.015
20:07:30.586,-0.055,0.015
20:07:30.594,-0.055,0.025
20:07:30.602,-0.055,0.015
20:07:30.609,-0.035,0.025
20:07:30.617,-0.005,0.045
20:07:30.625,-0.005,0.065
20:07:30.633,0.005,0.065
20:07:30.641,0.015,0.055
20:07:30.648,0.035,0.065
20:07:30.656,0.025,0.075
20:07:30.664,0.025,0.055
20:07:30.672,0.025,0.035
20:07:30.680,0.025,0.025
20:07:30.688,0.015,0.025
20:07:30.695,0.025,0.005
20:07:30.703,0.015,-0.015
20:07:30.711,-0.005,-0.025
20:07:30.719,-0.035,-0.045
20:07:30.727,-0.075,-0.075
20:07:30.734,-0.095,-0.085
20:07:30.742,-0.115,-0.085
20:07:30.750,-0.125,-0.095
20:07:30.758,-0.125,-0.095
20:07:30.766,-0.125,-0.095
20:07:30.773,-0.125,-0.095
20:07:30.781,-0.115,-0.085
20:07:30.789,-0.115,-0.095
20:07:30.797,-0.115,-0.095
20:07:30.805,-0.115,-0.085
20:07:30.813,-0.105,-0.075
20:07:30.820,-0.105,-0.085
20:07:30.828,-0.105,-0.085
20:07:30.836,-0.115,-0.085
20:07:30.844,-0.115,-0.075
20:07:30.852,-0.115,-0.095
20:07:30.859,-0.115,-0.105
20:07:30.867,-0.115,-0.095
20:07:30.875,-0.125,-0.095
20:07:30.883,-0.135,-0.105
20:07:30.891,-0.135,-0.105
20:07:30.898,-0.125,-0.105
20:07:30.906,-0.135,-0.105
20:07:30.914,-0.145,-0.115
20:07:30.922,-0.135,-0.115
20:07:30.930,-0.125,-0.085
20:07:30.938,-0.105,-0.075
20:07:30.945,-0.105,-0.075
20:07:30.953,-0.085,-0.055
20:07:30.961,-0.065,-0.065
20:07:30.969,-0.035,-0.075
20:07:30.977,-0.015,-0.085
20:07:30.984,0.005,-0.055
20:07:30.992,0.015,-0.065
20:07:31.000,-0.055,-0.115
20:07:31.008,-0.105,-0.115
20:07:31.016,-0.145,-0.115
20:07:31.023,-0.145,-0.125
20:07:31.031,-0.165,-0.135
20:07:31.039,-0.175,-0.135
20:07:31.047,-0.165,-0.135
20:07:31.055,-0.165,-0.125
20:07:31.063,-0.175,-0.135
20:07:31.070,-0.185,-0.145
20:07:31.078,-0.185,-0.135
20:07:31.086,-0.175,-0.115
20:07:31.094,-0.165,-0.125
20:07:31.102,-0.165,-0.135
20:07:31.109,-0.215,-0.125
20:07:31.117,-0.125,-0.065
20:07:31.125,0.125,-0.045
20:07:31.133,0.735,-0.145
20:07:31.141,1.675,-0.415
20:07:31.148,0.465,-0.765
20:07:31.156,-0.715,-0.765
20:07:31.164,-0.795,-0.425
20:07:31.172,-0.375,-0.125
20:07:31.180,-0.205,-0.035
20:07:31.188,-0.185,-0.035
20:07:31.195,-0.175,-0.045
20:07:31.203,-0.185,-0.055
20:07:31.211,-0.165,-0.035
20:07:31.219,-0.165,-0.035
20:07:31.227,-0.155,-0.035
20:07:31.234,-0.135,-0.025
20:07:31.242,-0.135,-0.025
20:07:31.250,-0.125,-0.025
20:07:31.258,-0.115,-0.015
20:07:31.266,-0.115,-0.005
20:07:31.273,-0.095,0.005
20:07:31.281,-0.085,0.015
20:07:31.289,-0.075,0.005
20:07:31.297,-0.065,0.015
20:07:31.305,-0.045,0.035
20:07:31.313,-0.035,0.045
20:07:31.320,-0.025,0.055
20:07:31.328,-0.015,0.065
20:07:31.336,0.005,0.085
20:07:31.344,0.015,0.095
20:07:31.352,0.025,0.085
20:07:31.359,0.035,0.085
20:07:31.367,0.035,0.105
20:07:31.375,0.035,0.085
20:07:31.383,0.035,0.075
20:07:31.391,0.035,0.055
20:07:31.398,0.035,0.055
20:07:31.406,0.035,0.035
20:07:31.414,0.035,0.015
20:07:31.422,0.015,0.005
20:07:31.430,-0.015,-0.015
20:07:31.438,-0.055,-0.035
20:07:31.445,-0.085,-0.055
20:07:31.453,-0.115,-0.065
20:07:31.461,-0.115,-0.065
20:07:31.469,-0.135,-0.075
20:07:31.477,-0.135,-0.075
20:07:31.484,-0.115,-0.075
20:07:31.492,-0.115,-0.065
20:07:31.500,-0.125,-0.065
20:07:31.508,-0.125,-0.075
20:07:31.516,-0.115,-0.065
20:07:31.523,-0.095,-0.055
20:07:31.531,-0.105,-0.065
20:07:31.539,-0.115,-0.065
20:07:31.547,-0.095,-0.055
20:07:31.555,-0.105,-0.055
20:07:31.563,-0.105,-0.065
20:07:31.570,-0.125,-0.085
20:07:31.578,-0.125,-0.075
20:07:31.586,-0.115,-0.075
20:07:31.594,-0.115,-0.075
20:07:31.602,-0.125,-0.085
20:07:31.609,-0.125,-0.085
20:07:31.617,-0.125,-0.075
20:07:31.625,-0.135,-0.085
20:07:31.633,-0.135,-0.095
20:07:31.641,-0.135,-0.095
20:07:31.648,-0.115,-0.095
20:07:31.656,-0.135,-0.095
20:07:31.664,-0.125,-0.095
20:07:31.672,-0.115,-0.085
20:07:31.680,-0.115,-0.075
20:07:31.688,-0.085,-0.055
20:07:31.695,-0.085,-0.045
20:07:31.703,-0.065,-0.045
20:07:31.711,-0.035,-0.035
20:07:31.719,-0.005,-0.055
20:07:31.727,0.025,-0.055
20:07:31.734,0.025,-0.045
20:07:31.742,0.025,-0.055
20:07:31.750,-0.015,-0.085
20:07:31.758,-0.065,-0.085
20:07:31.766,-0.105,-0.095
20:07:31.773,-0.115,-0.095
20:07:31.781,-0.125,-0.115
20:07:31.789,-0.135,-0.115
20:07:31.797,-0.135,-0.115
20:07:31.805,-0.145,-0.105
20:07:31.813,-0.135,-0.115
20:07:31.820,-0.155,-0.115
20:07:31.828,-0.155,-0.115
20:07:31.836,-0.145,-0.095
20:07:31.844,-0.135,-0.105
20:07:31.852,-0.125,-0.115
20:07:31.859,-0.155,-0.115
20:07:31.867,-0.115,-0.055
20:07:31.875,0.095,-0.025
20:07:31.883,0.645,-0.195
20:07:31.891,1.705,-0.455
20:07:31.898,0.905,-0.835
20:07:31.906,-0.525,-0.825
20:07:31.914,-0.705,-0.405
20:07:31.922,-0.325,-0.075
20:07:31.930,-0.145,0.015
20:07:31.938,-0.135,-0.005
20:07:31.945,-0.145,-0.035
20:07:31.953,-0.145,-0.035
20:07:31.961,-0.135,-0.025
20:07:31.969,-0.135,-0.005
20:07:31.977,-0.125,-0.015
20:07:31.984,-0.115,-0.015
20:07:31.992,-0.095,0.005
20:07:32.000,-0.085,-0.005
20:07:32.008,-0.095,0.005
20:07:32.016,-0.065,0.005
20:07:32.023,-0.075,0.025
20:07:32.031,-0.075,0.025
20:07:32.039,-0.065,0.035
20:07:32.047,-0.045,0.045
20:07:32.055,-0.025,0.055
20:07:32.063,-0.015,0.065
20:07:32.070,0.005,0.085
20:07:32.078,0.015,0.095
20:07:32.086,0.025,0.095
20:07:32.094,0.035,0.125
20:07:32.102,0.045,0.125
20:07:32.109,0.055,0.135
20:07:32.117,0.085,0.135
20:07:32.125,0.075,0.135
20:07:32.133,0.065,0.115
20:07:32.141,0.075,0.085
20:07:32.148,0.085,0.085
20:07:32.156,0.095,0.085
20:07:32.164,0.085,0.065
20:07:32.172,0.075,0.025
20:07:32.180,0.045,0.015
20:07:32.188,0.005,-0.005
20:07:32.195,-0.035,-0.035
20:07:32.203,-0.065,-0.065
20:07:32.211,-0.075,-0.075
20:07:32.219,-0.095,-0.065
20:07:32.227,-0.085,-0.065
20:07:32.234,-0.085,-0.085
20:07:32.242,-0.085,-0.075
20:07:32.250,-0.085,-0.075
20:07:32.258,-0.095,-0.075
20:07:32.266,-0.095,-0.075
20:07:32.273,-0.085,-0.065
20:07:32.281,-0.065,-0.065
20:07:32.289,-0.085,-0.075
20:07:32.297,-0.085,-0.085
20:07:32.305,-0.075,-0.065
20:07:32.313,-0.075,-0.065
20:07:32.320,-0.095,-0.085
20:07:32.328,-0.095,-0.095
20:07:32.336,-0.085,-0.085
20:07:32.344,-0.095,-0.095
20:07:32.352,-0.115,-0.105
20:07:32.359,-0.095,-0.105
20:07:32.367,-0.095,-0.085
20:07:32.375,-0.115,-0.105
20:07:32.383,-0.095,-0.105
20:07:32.391,-0.095,-0.105
20:07:32.398,-0.095,-0.105
20:07:32.406,-0.105,-0.105
20:07:32.414,-0.105,-0.115
20:07:32.422,-0.095,-0.105
20:07:32.430,-0.085,-0.085
20:07:32.438,-0.065,-0.065
20:07:32.445,-0.065,-0.075
20:07:32.453,-0.035,-0.065
20:07:32.461,-0.015,-0.065
20:07:32.469,0.025,-0.065
20:07:32.477,0.035,-0.065
20:07:32.484,0.075,-0.045
20:07:32.492,0.045,-0.085
20:07:32.500,-0.005,-0.105
20:07:32.508,-0.045,-0.125
20:07:32.516,-0.065,-0.115
20:07:32.523,-0.085,-0.125
20:07:32.531,-0.105,-0.135
20:07:32.539,-0.125,-0.135
20:07:32.547,-0.105,-0.125
20:07:32.555,-0.115,-0.125
20:07:32.563,-0.115,-0.135
20:07:32.570,-0.115,-0.135
20:07:32.578,-0.115,-0.135
20:07:32.586,-0.115,-0.115
20:07:32.594,-0.095,-0.125
20:07:32.602,-0.095,-0.135
20:07:32.609,-0.135,-0.125
20:07:32.617,-0.075,-0.065
20:07:32.625,0.175,-0.035
20:07:32.633,0.825,-0.185
20:07:32.641,1.785,-0.475
20:07:32.648,0.585,-0.825
20:07:32.656,-0.665,-0.735
20:07:32.664,-0.665,-0.355
20:07:32.672,-0.265,-0.095
20:07:32.680,-0.135,-0.025
20:07:32.688,-0.105,-0.035
20:07:32.695,-0.115,-0.055
20:07:32.703,-0.115,-0.045
20:07:32.711,-0.105,-0.035
20:07:32.719,-0.095,-0.035
20:07:32.727,-0.085,-0.035
20:07:32.734,-0.075,-0.035
20:07:32.742,-0.065,-0.025
20:07:32.750,-0.065,-0.015
20:07:32.758,-0.065,-0.015
20:07:32.766,-0.055,-0.015
20:07:32.773,-0.045,-0.005
20:07:32.781,-0.025,0.005
20:07:32.789,-0.025,0.005
20:07:32.797,-0.005,0.015
20:07:32.805,0.015,0.025
20:07:32.813,0.015,0.035
20:07:32.820,0.025,0.045
20:07:32.828,0.025,0.065
20:07:32.836,0.065,0.085
20:07:32.844,0.075,0.085
20:07:32.852,0.075,0.075
20:07:32.859,0.085,0.085
20:07:32.867,0.095,0.095
20:07:32.875,0.085,0.065
20:07:32.883,0.065,0.055
20:07:32.891,0.065,0.045
20:07:32.898,0.095,0.035
20:07:32.906,0.085,0.025
20:07:32.914,0.065,-0.005
20:07:32.922,0.055,-0.015
20:07:32.930,0.025,-0.025
20:07:32.938,-0.005,-0.045
20:07:32.945,-0.025,-0.065
20:07:32.953,-0.065,-0.075
20:07:32.961,-0.065,-0.085
20:07:32.969,-0.085,-0.075
20:07:32.977,-0.085,-0.095
20:07:32.984,-0.065,-0.085
20:07:32.992,-0.075,-0.075
20:07:33.000,-0.075,-0.085
20:07:33.008,-0.065,-0.085
20:07:33.016,-0.065,-0.085
20:07:33.023,-0.055,-0.065
20:07:33.031,-0.055,-0.075
20:07:33.039,-0.065,-0.085
20:07:33.047,-0.055,-0.085
20:07:33.055,-0.055,-0.085
20:07:33.063,-0.065,-0.085
20:07:33.070,-0.065,-0.095
20:07:33.078,-0.085,-0.105
20:07:33.086,-0.085,-0.095
20:07:33.094,-0.085,-0.095
20:07:33.102,-0.095,-0.105
20:07:33.109,-0.075,-0.105
20:07:33.117,-0.095,-0.105
20:07:33.125,-0.105,-0.105
20:07:33.133,-0.095,-0.105
20:07:33.141,-0.105,-0.115
20:07:33.148,-0.095,-0.095
20:07:33.156,-0.065,-0.075
20:07:33.164,-0.055,-0.075
20:07:33.172,-0.035,-0.055
20:07:33.180,-0.015,-0.045
20:07:33.188,-0.005,-0.075
20:07:33.195,0.035,-0.065
20:07:33.203,0.025,-0.065
20:07:33.211,0.065,-0.055
20:07:33.219,0.005,-0.105
20:07:33.227,-0.035,-0.105
20:07:33.234,-0.075,-0.105
20:07:33.242,-0.105,-0.125
20:07:33.250,-0.115,-0.135
20:07:33.258,-0.135,-0.135
20:07:33.266,-0.135,-0.135
20:07:33.273,-0.125,-0.125
20:07:33.281,-0.135,-0.135
20:07:33.289,-0.155,-0.135
20:07:33.297,-0.135,-0.135
20:07:33.305,-0.125,-0.135
20:07:33.313,-0.135,-0.135
20:07:33.320,-0.135,-0.135
20:07:33.328,-0.115,-0.135
20:07:33.336,-0.165,-0.105
20:07:33.344,-0.065,-0.065
20:07:33.352,0.205,-0.035
20:07:33.359,0.905,-0.195
20:07:33.367,1.645,-0.475
20:07:33.375,0.205,-0.855
20:07:33.383,-0.775,-0.705
20:07:33.391,-0.685,-0.335
20:07:33.398,-0.275,-0.075
20:07:33.406,-0.155,-0.035
20:07:33.414,-0.145,-0.055
20:07:33.422,-0.145,-0.055
20:07:33.430,-0.135,-0.055
20:07:33.438,-0.115,-0.045
20:07:33.445,-0.115,-0.045
20:07:33.453,-0.105,-0.035
20:07:33.461,-0.105,-0.035
20:07:33.469,-0.095,-0.025
20:07:33.477,-0.085,-0.025
20:07:33.484,-0.075,-0.025
20:07:33.492,-0.065,-0.005
20:07:33.500,-0.055,-0.005
20:07:33.508,-0.055,-0.005
20:07:33.516,-0.025,0.005
20:07:33.523,-0.015,0.025
20:07:33.531,0.005,0.035
20:07:33.539,-0.005,0.035
20:07:33.547,0.015,0.055
20:07:33.555,0.045,0.085
20:07:33.563,0.055,0.085
20:07:33.570,0.055,0.085
20:07:33.578,0.055,0.095
20:07:33.586,0.085,0.105
20:07:33.594,0.085,0.095
20:07:33.602,0.075,0.065
20:07:33.609,0.065,0.055
20:07:33.617,0.075,0.055
20:07:33.625,0.065,0.045
20:07:33.633,0.065,0.025
20:07:33.641,0.045,0.005
20:07:33.648,0.025,-0.005
20:07:33.656,-0.025,-0.035
20:07:33.664,-0.045,-0.055
20:07:33.672,-0.065,-0.065
20:07:33.680,-0.075,-0.055
20:07:33.688,-0.085,-0.065
20:07:33.695,-0.095,-0.085
20:07:33.703,-0.105,-0.065
20:07:33.711,-0.095,-0.055
20:07:33.719,-0.085,-0.065
20:07:33.727,-0.085,-0.075
20:07:33.734,-0.075,-0.055
20:07:33.742,-0.075,-0.055
20:07:33.750,-0.085,-0.055
20:07:33.758,-0.065,-0.065
20:07:33.766,-0.085,-0.055
20:07:33.773,-0.075,-0.055
20:07:33.781,-0.085,-0.065
20:07:33.789,-0.085,-0.075
20:07:33.797,-0.075,-0.065
20:07:33.805,-0.095,-0.075
20:07:33.813,-0.095,-0.085
20:07:33.820,-0.095,-0.085
20:07:33.828,-0.105,-0.075
20:07:33.836,-0.095,-0.075
20:07:33.844,-0.095,-0.085
20:07:33.852,-0.105,-0.095
20:07:33.859,-0.105,-0.095
20:07:33.867,-0.105,-0.085
20:07:33.875,-0.095,-0.095
20:07:33.883,-0.095,-0.095
20:07:33.891,-0.105,-0.095
20:07:33.898,-0.095,-0.085
20:07:33.906,-0.095,-0.085
20:07:33.914,-0.055,-0.065
20:07:33.922,-0.045,-0.045
20:07:33.930,-0.045,-0.035
20:07:33.938,-0.015,-0.035
20:07:33.945,0.005,-0.055
20:07:33.953,0.025,-0.055
20:07:33.961,0.045,-0.035
20:07:33.969,0.065,-0.045
20:07:33.977,0.035,-0.095
20:07:33.984,-0.015,-0.085
20:07:33.992,-0.065,-0.085
20:07:34.000,-0.085,-0.095
20:07:34.008,-0.095,-0.115
20:07:34.016,-0.115,-0.115
20:07:34.023,-0.115,-0.115
20:07:34.031,-0.115,-0.115
20:07:34.039,-0.125,-0.115
20:07:34.047,-0.115,-0.115
20:07:34.055,-0.105,-0.105
20:07:34.063,-0.125,-0.105
20:07:34.070,-0.125,-0.115
20:07:34.078,-0.115,-0.115
20:07:34.086,-0.095,-0.105
20:07:34.094,-0.125,-0.085
20:07:34.102,0.045,-0.055
20:07:34.109,0.455,-0.125
20:07:34.117,1.535,-0.405
20:07:34.125,1.285,-0.765
20:07:34.133,-0.245,-0.895
20:07:34.141,-0.735,-0.515
20:07:34.148,-0.365,-0.115
20:07:34.156,-0.155,0.015
20:07:34.164,-0.105,-0.015
20:07:34.172,-0.115,-0.025
20:07:34.180,-0.115,-0.015
20:07:34.188,-0.095,-0.005
20:07:34.195,-0.115,-0.015
20:07:34.203,-0.105,-0.015
20:07:34.211,-0.085,0.015
20:07:34.219,-0.075,0.005
20:07:34.227,-0.085,-0.005
20:07:34.234,-0.075,0.015
20:07:34.242,-0.055,0.035
20:07:34.250,-0.045,0.025
20:07:34.258,-0.035,0.035
20:07:34.266,-0.035,0.035
20:07:34.273,-0.025,0.065
20:07:34.281,-0.005,0.065
20:07:34.289,0.005,0.075
20:07:34.297,0.045,0.085
20:07:34.305,0.055,0.105
20:07:34.313,0.045,0.115
20:07:34.320,0.055,0.125
20:07:34.328,0.085,0.125
20:07:34.336,0.105,0.145
20:07:34.344,0.095,0.135
20:07:34.352,0.095,0.125
20:07:34.359,0.095,0.115
20:07:34.367,0.115,0.115
20:07:34.375,0.115,0.095
20:07:34.383,0.105,0.075
20:07:34.391,0.095,0.045
20:07:34.398,0.095,0.045
20:07:34.406,0.045,0.005
20:07:34.414,0.025,-0.035
20:07:34.422,-0.015,-0.045
20:07:34.430,-0.035,-0.055
20:07:34.438,-0.065,-0.065
20:07:34.445,-0.075,-0.075
20:07:34.453,-0.075,-0.075
20:07:34.461,-0.055,-0.065
20:07:34.469,-0.075,-0.065
20:07:34.477,-0.075,-0.075
20:07:34.484,-0.065,-0.065
20:07:34.492,-0.065,-0.065
20:07:34.500,-0.065,-0.065
20:07:34.508,-0.065,-0.075
20:07:34.516,-0.075,-0.065
20:07:34.523,-0.065,-0.055
20:07:34.531,-0.045,-0.065
20:07:34.539,-0.065,-0.085
20:07:34.547,-0.045,-0.075
20:07:34.555,-0.065,-0.065
20:07:34.563,-0.075,-0.075
20:07:34.570,-0.085,-0.095
20:07:34.578,-0.095,-0.095
20:07:34.586,-0.075,-0.085
20:07:34.594,-0.075,-0.095
20:07:34.602,-0.095,-0.105
20:07:34.609,-0.085,-0.095
20:07:34.617,-0.075,-0.095
20:07:34.625,-0.085,-0.105
20:07:34.633,-0.075,-0.105
20:07:34.641,-0.095,-0.095
20:07:34.648,-0.065,-0.095
20:07:34.656,-0.085,-0.095
20:07:34.664,-0.085,-0.085
20:07:34.672,-0.035,-0.065
20:07:34.680,-0.045,-0.055
20:07:34.688,-0.025,-0.035
20:07:34.695,-0.015,-0.055
20:07:34.703,0.015,-0.065
20:07:34.711,0.055,-0.055
20:07:34.719,0.065,-0.055
20:07:34.727,0.075,-0.045
20:07:34.734,0.035,-0.105
20:07:34.742,-0.015,-0.095
20:07:34.750,-0.055,-0.095
20:07:34.758,-0.085,-0.115
20:07:34.766,-0.075,-0.125
20:07:34.773,-0.085,-0.125
20:07:34.781,-0.095,-0.115
20:07:34.789,-0.105,-0.115
20:07:34.797,-0.105,-0.125
20:07:34.805,-0.095,-0.115
20:07:34.813,-0.095,-0.115
20:07:34.820,-0.105,-0.115
20:07:34.828,-0.095,-0.115
20:07:34.836,-0.095,-0.115
20:07:34.844,-0.125,-0.095
20:07:34.852,-0.075,-0.065
20:07:34.859,0.165,-0.035
20:07:34.867,0.775,-0.125
20:07:34.875,1.825,-0.415
20:07:34.883,0.675,-0.795
20:07:34.891,-0.615,-0.755
20:07:34.898,-0.705,-0.375
20:07:34.906,-0.295,-0.105
20:07:34.914,-0.125,-0.035
20:07:34.922,-0.115,-0.035
20:07:34.930,-0.105,-0.035
20:07:34.938,-0.095,-0.025
20:07:34.945,-0.085,-0.035
20:07:34.953,-0.095,-0.045
20:07:34.961,-0.095,-0.025
20:07:34.969,-0.065,-0.015
20:07:34.977,-0.075,-0.015
20:07:34.984,-0.065,-0.025
20:07:34.992,-0.045,-0.005
20:07:35.000,-0.045,0.005
20:07:35.008,-0.035,0.005
20:07:35.016,-0.025,0.005
20:07:35.023,-0.005,0.025
20:07:35.031,-0.005,0.025
20:07:35.039,0.005,0.025
20:07:35.047,0.015,0.045
20:07:35.055,0.045,0.075
20:07:35.063,0.045,0.075
20:07:35.070,0.055,0.065
20:07:35.078,0.065,0.095
20:07:35.086,0.085,0.095
20:07:35.094,0.085,0.105
20:07:35.102,0.075,0.085
20:07:35.109,0.085,0.065
20:07:35.117,0.085,0.075
20:07:35.125,0.065,0.065
20:07:35.133,0.085,0.025
20:07:35.141,0.065,0.015
20:07:35.148,0.065,0.025
20:07:35.156,0.035,0.005
20:07:35.164,0.005,-0.025
20:07:35.172,-0.015,-0.045
20:07:35.180,-0.035,-0.045
20:07:35.188,-0.065,-0.055
20:07:35.195,-0.055,-0.065
20:07:35.203,-0.085,-0.075
20:07:35.211,-0.085,-0.055
20:07:35.219,-0.085,-0.055
20:07:35.227,-0.065,-0.065
20:07:35.234,-0.055,-0.055
20:07:35.242,-0.075,-0.055
20:07:35.250,-0.075,-0.055
20:07:35.258,-0.065,-0.045
20:07:35.266,-0.065,-0.045
20:07:35.273,-0.055,-0.055
20:07:35.281,-0.065,-0.065
