Time,ECG1,ECG2
17:29:30.000,-0.245,-0.255
17:29:30.008,-0.225,-0.215
17:29:30.016,-0.205,-0.155
17:29:30.023,-0.215,-0.185
17:29:30.031,-0.125,-0.225
17:29:30.039,-0.055,-0.135
17:29:30.047,-0.065,-0.105
17:29:30.055,-0.055,-0.095
17:29:30.063,0.045,-0.115
17:29:30.070,0.025,0.005
17:29:30.078,-0.005,-0.225
17:29:30.086,0.055,-0.205
17:29:30.094,-0.035,-0.155
17:29:30.102,-0.255,-0.205
17:29:30.109,-0.305,-0.335
17:29:30.117,-0.315,-0.285
17:29:30.125,-0.325,-0.295
17:29:30.133,-0.305,-0.335
17:29:30.141,-0.305,-0.305
17:29:30.148,-0.295,-0.275
17:29:30.156,-0.305,-0.285
17:29:30.164,-0.285,-0.305
17:29:30.172,-0.295,-0.265
17:29:30.180,-0.375,-0.275
17:29:30.188,-0.685,-0.215
17:29:30.195,-0.445,-0.015
17:29:30.203,0.655,0.025
17:29:30.211,1.665,-0.115
17:29:30.219,0.585,-0.735
17:29:30.227,-1.455,-1.645
17:29:30.234,-1.815,-2.095
17:29:30.242,-1.035,-1.755
17:29:30.250,-0.445,-0.855
17:29:30.258,-0.235,-0.285
17:29:30.266,-0.155,-0.085
17:29:30.273,-0.145,-0.105
17:29:30.281,-0.125,-0.105
17:29:30.289,-0.105,-0.005
17:29:30.297,-0.065,-0.065
17:29:30.305,-0.055,-0.035
17:29:30.313,-0.025,-0.015
17:29:30.320,-0.025,0.015
17:29:30.328,0.035,0.015
17:29:30.336,0.065,0.045
17:29:30.344,0.075,0.065
17:29:30.352,0.115,0.135
17:29:30.359,0.175,0.195
17:29:30.367,0.245,0.215
17:29:30.375,0.305,0.205
17:29:30.383,0.395,0.365
17:29:30.391,0.445,0.325
17:29:30.398,0.555,0.425
17:29:30.406,0.595,0.495
17:29:30.414,0.605,0.495
17:29:30.422,0.575,0.535
17:29:30.430,0.575,0.455
17:29:30.438,0.485,0.405
17:29:30.445,0.355,0.325
17:29:30.453,0.225,0.245
17:29:30.461,0.095,0.105
17:29:30.469,0.005,-0.075
17:29:30.477,-0.035,-0.095
17:29:30.484,-0.095,-0.145
17:29:30.492,-0.105,-0.135
17:29:30.500,-0.145,-0.155
17:29:30.508,-0.125,-0.155
17:29:30.516,-0.125,-0.145
17:29:30.523,-0.115,-0.135
17:29:30.531,-0.105,-0.125
17:29:30.539,-0.105,-0.125
17:29:30.547,-0.065,-0.085
17:29:30.555,-0.055,-0.095
17:29:30.563,-0.085,-0.095
17:29:30.570,-0.085,-0.135
17:29:30.578,-0.055,-0.115
17:29:30.586,-0.055,-0.075
17:29:30.594,-0.045,-0.105
17:29:30.602,-0.035,-0.105
17:29:30.609,0.055,-0.075
17:29:30.617,0.085,-0.025
17:29:30.625,0.075,0.015
17:29:30.633,0.125,0.025
17:29:30.641,0.215,0.025
17:29:30.648,0.155,0.015
17:29:30.656,0.165,-0.055
17:29:30.664,0.195,-0.045
17:29:30.672,0.095,-0.065
17:29:30.680,-0.155,-0.145
17:29:30.688,-0.175,-0.205
17:29:30.695,-0.195,-0.215
17:29:30.703,-0.165,-0.155
17:29:30.711,-0.185,-0.165
17:29:30.719,-0.205,-0.185
17:29:30.727,-0.165,-0.135
17:29:30.734,-0.165,-0.165
17:29:30.742,-0.175,-0.245
17:29:30.750,-0.165,-0.175
17:29:30.758,-0.315,-0.175
17:29:30.766,-0.595,-0.065
17:29:30.773,-0.295,0.145
17:29:30.781,0.905,0.125
17:29:30.789,1.765,-0.075
17:29:30.797,0.205,-0.865
17:29:30.805,-1.465,-1.765
17:29:30.813,-1.595,-2.065
17:29:30.820,-0.705,-1.545
17:29:30.828,-0.255,-0.585
17:29:30.836,-0.105,-0.175
17:29:30.844,-0.085,-0.055
17:29:30.852,-0.045,0.035
17:29:30.859,-0.055,0.055
17:29:30.867,-0.035,0.085
17:29:30.875,-0.015,0.145
17:29:30.883,0.015,0.105
17:29:30.891,0.045,0.115
17:29:30.898,0.075,0.085
17:29:30.906,0.105,0.105
17:29:30.914,0.115,0.145
17:29:30.922,0.155,0.205
17:29:30.930,0.165,0.235
17:29:30.938,0.215,0.285
17:29:30.945,0.295,0.315
17:29:30.953,0.345,0.405
17:29:30.961,0.415,0.445
17:29:30.969,0.505,0.495
17:29:30.977,0.565,0.525
17:29:30.984,0.585,0.585
17:29:30.992,0.615,0.595
17:29:31.000,0.615,0.635
17:29:31.008,0.585,0.555
17:29:31.016,0.525,0.485
17:29:31.023,0.415,0.425
17:29:31.031,0.265,0.305
17:29:31.039,0.145,0.185
17:29:31.047,0.075,0.055
17:29:31.055,-0.035,0.015
17:29:31.063,-0.055,-0.115
17:29:31.070,-0.075,-0.075
17:29:31.078,-0.105,-0.025
17:29:31.086,-0.105,-0.095
17:29:31.094,-0.105,-0.115
17:29:31.102,-0.095,-0.085
17:29:31.109,-0.065,-0.065
17:29:31.117,-0.085,-0.125
17:29:31.125,-0.065,-0.115
17:29:31.133,-0.055,-0.075
17:29:31.141,-0.065,-0.055
17:29:31.148,-0.045,-0.065
17:29:31.156,-0.065,-0.055
17:29:31.164,-0.065,-0.055
17:29:31.172,-0.045,-0.035
17:29:31.180,-0.005,-0.045
17:29:31.188,0.065,-0.025
17:29:31.195,0.105,0.135
17:29:31.203,0.095,0.025
17:29:31.211,0.195,-0.015
17:29:31.219,0.215,-0.015
17:29:31.227,0.125,-0.005
17:29:31.234,0.205,-0.055
17:29:31.242,0.165,-0.005
17:29:31.250,-0.035,-0.055
17:29:31.258,-0.175,-0.135
17:29:31.266,-0.165,-0.135
17:29:31.273,-0.175,-0.165
17:29:31.281,-0.175,-0.175
17:29:31.289,-0.195,-0.245
17:29:31.297,-0.195,-0.175
17:29:31.305,-0.185,-0.195
17:29:31.313,-0.185,-0.185
17:29:31.320,-0.185,-0.175
17:29:31.328,-0.305,-0.165
17:29:31.336,-0.625,-0.065
17:29:31.344,-0.445,0.135
17:29:31.352,0.515,0.155
17:29:31.359,1.645,-0.035
17:29:31.367,1.005,-0.565
17:29:31.375,-1.085,-1.665
17:29:31.383,-1.665,-2.125
17:29:31.391,-1.085,-1.865
17:29:31.398,-0.395,-0.985
17:29:31.406,-0.165,-0.305
17:29:31.414,-0.085,-0.035
17:29:31.422,-0.075,0.035
17:29:31.430,-0.065,0.005
17:29:31.438,-0.075,0.065
17:29:31.445,-0.055,0.065
17:29:31.453,-0.035,0.095
17:29:31.461,-0.005,0.115
17:29:31.469,0.025,0.045
17:29:31.477,0.055,0.115
17:29:31.484,0.075,0.175
17:29:31.492,0.095,0.115
17:29:31.500,0.125,0.185
17:29:31.508,0.185,0.235
17:29:31.516,0.235,0.305
17:29:31.523,0.305,0.335
17:29:31.531,0.355,0.395
17:29:31.539,0.415,0.465
17:29:31.547,0.505,0.515
17:29:31.555,0.575,0.545
17:29:31.563,0.565,0.655
17:29:31.570,0.575,0.565
17:29:31.578,0.555,0.535
17:29:31.586,0.485,0.475
17:29:31.594,0.385,0.395
17:29:31.602,0.285,0.275
17:29:31.609,0.175,0.185
17:29:31.617,0.065,0.085
17:29:31.625,-0.005,-0.015
17:29:31.633,-0.085,-0.065
17:29:31.641,-0.115,-0.105
17:29:31.648,-0.145,-0.105
17:29:31.656,-0.165,-0.145
17:29:31.664,-0.135,-0.125
17:29:31.672,-0.125,-0.115
17:29:31.680,-0.125,-0.115
17:29:31.688,-0.145,-0.125
17:29:31.695,-0.135,-0.105
17:29:31.703,-0.095,-0.115
17:29:31.711,-0.135,-0.135
17:29:31.719,-0.125,-0.145
17:29:31.727,-0.115,-0.115
17:29:31.734,-0.125,-0.085
17:29:31.742,-0.125,-0.125
17:29:31.750,-0.105,-0.125
17:29:31.758,-0.015,-0.095
17:29:31.766,0.025,-0.035
17:29:31.773,0.005,-0.005
17:29:31.781,0.025,-0.015
17:29:31.789,0.135,-0.035
17:29:31.797,0.105,-0.005
17:29:31.805,0.075,-0.075
17:29:31.813,0.115,-0.135
17:29:31.820,0.055,-0.075
17:29:31.828,-0.165,-0.125
17:29:31.836,-0.255,-0.225
17:29:31.844,-0.265,-0.225
17:29:31.852,-0.275,-0.245
17:29:31.859,-0.285,-0.235
17:29:31.867,-0.255,-0.175
17:29:31.875,-0.255,-0.255
17:29:31.883,-0.255,-0.295
17:29:31.891,-0.265,-0.265
17:29:31.898,-0.275,-0.235
17:29:31.906,-0.345,-0.265
17:29:31.914,-0.695,-0.185
17:29:31.922,-0.525,0.055
17:29:31.930,0.795,0.065
17:29:31.938,1.515,-0.145
17:29:31.945,-0.425,-1.075
17:29:31.953,-1.675,-2.035
17:29:31.961,-1.385,-2.035
17:29:31.969,-0.635,-1.295
17:29:31.977,-0.285,-0.475
17:29:31.984,-0.155,-0.165
17:29:31.992,-0.155,-0.055
17:29:32.000,-0.155,-0.045
17:29:32.008,-0.125,-0.025
17:29:32.016,-0.125,-0.025
17:29:32.023,-0.105,-0.015
17:29:32.031,-0.075,-0.005
17:29:32.039,-0.055,0.045
17:29:32.047,-0.055,0.055
17:29:32.055,-0.015,0.095
17:29:32.063,0.035,0.075
17:29:32.070,0.095,0.055
17:29:32.078,0.085,0.105
17:29:32.086,0.145,0.175
17:29:32.094,0.225,0.225
17:29:32.102,0.275,0.245
17:29:32.109,0.325,0.325
17:29:32.117,0.385,0.415
17:29:32.125,0.445,0.455
17:29:32.133,0.465,0.505
17:29:32.141,0.455,0.505
17:29:32.148,0.465,0.585
17:29:32.156,0.435,0.405
17:29:32.164,0.355,0.375
17:29:32.172,0.265,0.245
17:29:32.180,0.125,0.085
17:29:32.188,-0.005,-0.005
17:29:32.195,-0.075,-0.055
17:29:32.203,-0.135,-0.105
17:29:32.211,-0.155,-0.115
17:29:32.219,-0.185,-0.165
17:29:32.227,-0.245,-0.165
17:29:32.234,-0.225,-0.195
17:29:32.242,-0.215,-0.175
17:29:32.250,-0.235,-0.205
17:29:32.258,-0.205,-0.185
17:29:32.266,-0.185,-0.175
17:29:32.273,-0.175,-0.185
17:29:32.281,-0.205,-0.175
17:29:32.289,-0.205,-0.185
17:29:32.297,-0.195,-0.155
17:29:32.305,-0.185,-0.165
17:29:32.313,-0.205,-0.135
17:29:32.320,-0.185,-0.095
17:29:32.328,-0.095,-0.155
17:29:32.336,-0.055,-0.125
17:29:32.344,-0.045,-0.095
17:29:32.352,-0.025,-0.105
17:29:32.359,0.065,-0.085
17:29:32.367,-0.015,-0.085
17:29:32.375,0.005,-0.155
17:29:32.383,0.045,-0.145
17:29:32.391,-0.085,-0.125
17:29:32.398,-0.345,-0.175
17:29:32.406,-0.365,-0.305
17:29:32.414,-0.355,-0.315
17:29:32.422,-0.345,-0.305
17:29:32.430,-0.365,-0.305
17:29:32.438,-0.335,-0.265
17:29:32.445,-0.335,-0.275
17:29:32.453,-0.365,-0.275
17:29:32.461,-0.345,-0.235
17:29:32.469,-0.365,-0.285
17:29:32.477,-0.605,-0.245
17:29:32.484,-0.785,-0.165
17:29:32.492,-0.305,0.005
17:29:32.500,1.075,-0.035
17:29:32.508,1.475,-0.345
17:29:32.516,-0.335,-1.415
17:29:32.523,-1.615,-2.115
17:29:32.531,-1.475,-2.175
17:29:32.539,-0.625,-1.345
17:29:32.547,-0.295,-0.455
17:29:32.555,-0.235,-0.235
17:29:32.563,-0.245,-0.115
17:29:32.570,-0.215,-0.055
17:29:32.578,-0.215,-0.035
17:29:32.586,-0.235,-0.015
17:29:32.594,-0.195,-0.005
17:29:32.602,-0.155,0.025
17:29:32.609,-0.135,0.045
17:29:32.617,-0.115,0.085
17:29:32.625,-0.085,0.085
17:29:32.633,-0.055,0.105
17:29:32.641,-0.035,0.165
17:29:32.648,0.005,0.175
17:29:32.656,0.065,0.175
17:29:32.664,0.135,0.285
17:29:32.672,0.195,0.315
17:29:32.680,0.265,0.375
17:29:32.688,0.355,0.455
17:29:32.695,0.385,0.525
17:29:32.703,0.375,0.555
17:29:32.711,0.395,0.555
17:29:32.719,0.345,0.525
17:29:32.727,0.275,0.405
17:29:32.734,0.165,0.335
17:29:32.742,0.025,0.185
17:29:32.750,-0.065,0.015
17:29:32.758,-0.175,-0.055
17:29:32.766,-0.245,-0.135
17:29:32.773,-0.285,-0.175
17:29:32.781,-0.305,-0.195
17:29:32.789,-0.305,-0.205
17:29:32.797,-0.305,-0.205
17:29:32.805,-0.295,-0.195
17:29:32.813,-0.305,-0.215
17:29:32.820,-0.275,-0.175
17:29:32.828,-0.285,-0.185
17:29:32.836,-0.295,-0.195
17:29:32.844,-0.285,-0.175
17:29:32.852,-0.275,-0.185
17:29:32.859,-0.265,-0.175
17:29:32.867,-0.265,-0.165
17:29:32.875,-0.265,-0.165
17:29:32.883,-0.275,-0.165
17:29:32.891,-0.255,-0.165
17:29:32.898,-0.135,-0.115
17:29:32.906,-0.145,-0.075
17:29:32.914,-0.145,-0.095
17:29:32.922,-0.085,-0.075
17:29:32.930,-0.015,-0.045
17:29:32.938,-0.085,-0.075
17:29:32.945,-0.055,-0.175
17:29:32.953,-0.045,-0.115
17:29:32.961,-0.165,-0.105
17:29:32.969,-0.375,-0.215
17:29:32.977,-0.385,-0.315
17:29:32.984,-0.405,-0.285
17:29:32.992,-0.415,-0.275
17:29:33.000,-0.425,-0.285
17:29:33.008,-0.415,-0.255
17:29:33.016,-0.405,-0.245
17:29:33.023,-0.385,-0.245
17:29:33.031,-0.415,-0.255
17:29:33.039,-0.385,-0.265
17:29:33.047,-0.645,-0.225
17:29:33.055,-0.865,-0.115
17:29:33.063,-0.415,0.055
17:29:33.070,0.865,-0.005
17:29:33.078,1.505,-0.155
17:29:33.086,0.015,-0.965
17:29:33.094,-1.595,-1.905
17:29:33.102,-1.785,-2.185
17:29:33.109,-0.995,-1.715
17:29:33.117,-0.555,-0.825
17:29:33.125,-0.345,-0.285
17:29:33.133,-0.295,-0.085
17:29:33.141,-0.275,-0.005
17:29:33.148,-0.295,0.015
17:29:33.156,-0.255,0.005
17:29:33.164,-0.235,0.005
17:29:33.172,-0.215,-0.005
17:29:33.180,-0.165,0.025
17:29:33.188,-0.155,0.065
17:29:33.195,-0.155,0.105
17:29:33.203,-0.115,0.125
17:29:33.211,-0.075,0.145
17:29:33.219,-0.025,0.185
17:29:33.227,0.005,0.225
17:29:33.234,0.075,0.265
17:29:33.242,0.125,0.375
17:29:33.250,0.225,0.405
17:29:33.258,0.315,0.445
17:29:33.266,0.365,0.525
17:29:33.273,0.405,0.585
17:29:33.281,0.385,0.565
17:29:33.289,0.385,0.555
17:29:33.297,0.365,0.525
17:29:33.305,0.275,0.465
17:29:33.313,0.155,0.345
17:29:33.320,0.025,0.245
17:29:33.328,-0.095,0.115
17:29:33.336,-0.175,0.015
17:29:33.344,-0.235,-0.015
17:29:33.352,-0.275,-0.085
17:29:33.359,-0.275,-0.075
17:29:33.367,-0.275,-0.125
17:29:33.375,-0.305,-0.175
17:29:33.383,-0.265,-0.115
17:29:33.391,-0.275,-0.105
17:29:33.398,-0.275,-0.075
17:29:33.406,-0.265,-0.115
17:29:33.414,-0.235,-0.095
17:29:33.422,-0.235,-0.085
17:29:33.430,-0.235,-0.085
17:29:33.438,-0.215,-0.055
17:29:33.445,-0.225,-0.075
17:29:33.453,-0.235,-0.065
17:29:33.461,-0.175,-0.065
17:29:33.469,-0.085,-0.045
17:29:33.477,-0.115,0.015
17:29:33.484,-0.085,0.025
17:29:33.492,-0.005,0.015
17:29:33.500,0.035,0.045
17:29:33.508,-0.035,0.005
17:29:33.516,0.005,-0.025
17:29:33.523,-0.015,0.005
17:29:33.531,-0.145,-0.095
17:29:33.539,-0.315,-0.155
17:29:33.547,-0.335,-0.155
17:29:33.555,-0.345,-0.195
17:29:33.563,-0.355,-0.215
17:29:33.570,-0.355,-0.185
17:29:33.578,-0.345,-0.175
17:29:33.586,-0.335,-0.185
17:29:33.594,-0.355,-0.185
17:29:33.602,-0.355,-0.165
17:29:33.609,-0.385,-0.175
17:29:33.617,-0.695,-0.135
17:29:33.625,-0.725,0.045
17:29:33.633,0.005,0.165
17:29:33.641,1.305,0.085
17:29:33.648,1.225,-0.385
17:29:33.656,-0.755,-1.505
17:29:33.664,-1.685,-2.165
17:29:33.672,-1.225,-2.025
17:29:33.680,-0.495,-1.105
17:29:33.688,-0.295,-0.305
17:29:33.695,-0.255,-0.015
17:29:33.703,-0.215,0.045
17:29:33.711,-0.205,0.055
17:29:33.719,-0.215,0.065
17:29:33.727,-0.175,0.125
17:29:33.734,-0.145,0.085
17:29:33.742,-0.155,0.135
17:29:33.750,-0.135,0.145
17:29:33.758,-0.075,0.175
17:29:33.766,-0.045,0.225
17:29:33.773,-0.005,0.205
17:29:33.781,-0.005,0.245
17:29:33.789,0.045,0.285
17:29:33.797,0.125,0.345
17:29:33.805,0.175,0.445
17:29:33.813,0.255,0.405
17:29:33.820,0.315,0.555
17:29:33.828,0.395,0.585
17:29:33.836,0.455,0.635
17:29:33.844,0.465,0.615
17:29:33.852,0.445,0.655
17:29:33.859,0.465,0.695
17:29:33.867,0.415,0.575
17:29:33.875,0.315,0.425
17:29:33.883,0.175,0.345
17:29:33.891,0.045,0.275
17:29:33.898,-0.065,0.105
17:29:33.906,-0.145,0.085
17:29:33.914,-0.155,-0.035
17:29:33.922,-0.245,-0.085
17:29:33.930,-0.245,-0.115
17:29:33.938,-0.245,-0.095
17:29:33.945,-0.245,-0.085
17:29:33.953,-0.205,-0.075
17:29:33.961,-0.195,-0.115
17:29:33.969,-0.215,-0.105
17:29:33.977,-0.165,-0.055
17:29:33.984,-0.175,-0.085
17:29:33.992,-0.165,-0.095
17:29:34.000,-0.185,-0.075
17:29:34.008,-0.155,-0.095
17:29:34.016,-0.145,-0.035
17:29:34.023,-0.145,-0.085
17:29:34.031,-0.155,-0.095
17:29:34.039,-0.055,-0.065
17:29:34.047,-0.025,0.005
17:29:34.055,-0.025,-0.035
17:29:34.063,0.025,-0.005
17:29:34.070,0.105,0.035
17:29:34.078,0.045,0.055
17:29:34.086,0.065,-0.065
17:29:34.094,0.055,-0.085
17:29:34.102,-0.055,-0.105
17:29:34.109,-0.245,-0.115
17:29:34.117,-0.225,-0.155
17:29:34.125,-0.275,-0.235
17:29:34.133,-0.295,-0.225
17:29:34.141,-0.295,-0.235
17:29:34.148,-0.305,-0.195
17:29:34.156,-0.335,-0.205
17:29:34.164,-0.315,-0.235
17:29:34.172,-0.265,-0.205
17:29:34.180,-0.275,-0.235
17:29:34.188,-0.405,-0.175
17:29:34.195,-0.715,-0.155
17:29:34.203,-0.615,0.025
17:29:34.211,0.355,-0.005
17:29:34.219,1.425,-0.115
17:29:34.227,0.745,-0.605
17:29:34.234,-1.135,-1.665
17:29:34.242,-1.655,-2.155
17:29:34.250,-1.135,-1.965
17:29:34.258,-0.485,-1.105
17:29:34.266,-0.235,-0.285
17:29:34.273,-0.185,-0.095
17:29:34.281,-0.185,-0.035
17:29:34.289,-0.185,0.025
17:29:34.297,-0.125,0.025
17:29:34.305,-0.105,0.045
17:29:34.313,-0.055,0.065
17:29:34.320,-0.065,0.045
17:29:34.328,-0.035,0.045
17:29:34.336,0.015,0.115
17:29:34.344,0.025,0.145
17:29:34.352,0.075,0.195
17:29:34.359,0.105,0.225
17:29:34.367,0.145,0.215
17:29:34.375,0.215,0.305
17:29:34.383,0.315,0.425
17:29:34.391,0.375,0.365
17:29:34.398,0.485,0.445
17:29:34.406,0.545,0.565
17:29:34.414,0.565,0.565
17:29:34.422,0.565,0.525
17:29:34.430,0.515,0.545
17:29:34.438,0.485,0.565
17:29:34.445,0.365,0.385
17:29:34.453,0.235,0.225
17:29:34.461,0.115,0.145
17:29:34.469,0.015,0.065
17:29:34.477,-0.065,-0.045
17:29:34.484,-0.115,-0.035
17:29:34.492,-0.145,-0.175
17:29:34.500,-0.145,-0.135
17:29:34.508,-0.185,-0.235
17:29:34.516,-0.175,-0.175
17:29:34.523,-0.205,-0.145
17:29:34.531,-0.195,-0.185
17:29:34.539,-0.155,-0.165
17:29:34.547,-0.155,-0.185
17:29:34.555,-0.135,-0.145
17:29:34.563,-0.135,-0.085
17:29:34.570,-0.135,-0.245
17:29:34.578,-0.125,-0.205
17:29:34.586,-0.135,-0.125
17:29:34.594,-0.135,-0.105
17:29:34.602,-0.105,-0.165
17:29:34.609,-0.035,-0.165
17:29:34.617,0.005,-0.095
17:29:34.625,-0.005,-0.085
17:29:34.633,0.065,0.005
17:29:34.641,0.115,-0.055
17:29:34.648,0.025,-0.025
17:29:34.656,0.055,-0.155
17:29:34.664,0.155,-0.145
17:29:34.672,-0.045,-0.165
17:29:34.680,-0.225,-0.205
17:29:34.688,-0.225,-0.325
17:29:34.695,-0.235,-0.325
17:29:34.703,-0.265,-0.255
17:29:34.711,-0.265,-0.285
17:29:34.719,-0.255,-0.245
17:29:34.727,-0.255,-0.295
17:29:34.734,-0.265,-0.265
17:29:34.742,-0.245,-0.205
17:29:34.750,-0.225,-0.255
17:29:34.758,-0.445,-0.305
17:29:34.766,-0.695,-0.145
17:29:34.773,-0.385,-0.045
17:29:34.781,0.785,-0.085
17:29:34.789,1.435,-0.185
17:29:34.797,0.125,-0.785
17:29:34.805,-1.265,-1.795
17:29:34.813,-1.445,-2.165
17:29:34.820,-0.755,-1.805
17:29:34.828,-0.315,-0.945
17:29:34.836,-0.115,-0.215
17:29:34.844,-0.105,-0.105
17:29:34.852,-0.095,-0.115
17:29:34.859,-0.095,-0.035
17:29:34.867,-0.065,-0.025
17:29:34.875,-0.035,-0.035
17:29:34.883,-0.035,0.005
17:29:34.891,0.005,0.045
17:29:34.898,0.025,0.015
17:29:34.906,0.065,0.085
17:29:34.914,0.075,0.125
17:29:34.922,0.115,0.115
17:29:34.930,0.165,0.185
17:29:34.938,0.235,0.145
17:29:34.945,0.275,0.225
17:29:34.953,0.345,0.345
17:29:34.961,0.425,0.345
17:29:34.969,0.495,0.395
17:29:34.977,0.575,0.485
17:29:34.984,0.615,0.555
17:29:34.992,0.625,0.595
17:29:35.000,0.585,0.545
17:29:35.008,0.585,0.555
17:29:35.016,0.495,0.425
17:29:35.023,0.385,0.305
17:29:35.031,0.225,0.195
17:29:35.039,0.115,0.075
17:29:35.047,0.025,0.015
17:29:35.055,-0.045,-0.035
17:29:35.063,-0.075,-0.095
17:29:35.070,-0.085,-0.095
17:29:35.078,-0.095,-0.135
17:29:35.086,-0.095,-0.115
17:29:35.094,-0.105,-0.135
17:29:35.102,-0.105,-0.145
17:29:35.109,-0.065,-0.095
17:29:35.117,-0.095,-0.145
17:29:35.125,-0.085,-0.115
17:29:35.133,-0.045,-0.085
17:29:35.141,-0.025,-0.065
17:29:35.148,-0.055,-0.075
17:29:35.156,-0.045,-0.115
17:29:35.164,-0.035,-0.075
17:29:35.172,-0.025,-0.055
17:29:35.180,0.065,0.005
17:29:35.188,0.075,0.005
17:29:35.195,0.095,0.005
17:29:35.203,0.155,0.035
17:29:35.211,0.195,0.065
17:29:35.219,0.145,0.015
17:29:35.227,0.195,-0.025
17:29:35.234,0.195,-0.015
17:29:35.242,0.035,-0.085
17:29:35.250,-0.145,-0.095
17:29:35.258,-0.155,-0.105
17:29:35.266,-0.155,-0.175
17:29:35.273,-0.165,-0.175
17:29:35.281,-0.175,-0.155
17:29:35.289,-0.185,-0.145
17:29:35.297,-0.155,-0.145
17:29:35.305,-0.155,-0.145
17:29:35.313,-0.175,-0.155
17:29:35.320,-0.175,-0.125
17:29:35.328,-0.255,-0.095
17:29:35.336,-0.525,-0.035
17:29:35.344,-0.475,0.075
17:29:35.352,0.255,0.085
17:29:35.359,1.515,0.105
17:29:35.367,1.125,-0.275
17:29:35.375,-0.615,-1.355
17:29:35.383,-1.235,-1.985
17:29:35.391,-0.925,-1.875
17:29:35.398,-0.335,-1.135
17:29:35.406,-0.135,-0.325
17:29:35.414,-0.075,-0.015
17:29:35.422,-0.065,0.085
17:29:35.430,-0.035,0.115
17:29:35.438,-0.045,0.125
17:29:35.445,-0.005,0.125
17:29:35.453,0.005,0.145
17:29:35.461,0.025,0.155
17:29:35.469,0.035,0.195
17:29:35.477,0.095,0.305
17:29:35.484,0.105,0.185
17:29:35.492,0.155,0.205
17:29:35.500,0.175,0.245
17:29:35.508,0.235,0.285
17:29:35.516,0.285,0.345
17:29:35.523,0.355,0.405
17:29:35.531,0.455,0.465
17:29:35.539,0.545,0.555
17:29:35.547,0.615,0.615
17:29:35.555,0.685,0.665
17:29:35.563,0.675,0.675
17:29:35.570,0.675,0.675
17:29:35.578,0.655,0.605
17:29:35.586,0.565,0.545
17:29:35.594,0.425,0.465
17:29:35.602,0.295,0.375
17:29:35.609,0.215,0.255
17:29:35.617,0.105,0.165
17:29:35.625,0.035,0.075
17:29:35.633,0.005,0.065
17:29:35.641,-0.005,0.015
17:29:35.648,-0.045,-0.035
17:29:35.656,-0.075,-0.025
17:29:35.664,-0.055,-0.045
17:29:35.672,-0.045,-0.025
17:29:35.680,-0.035,-0.005
17:29:35.688,-0.055,-0.005
17:29:35.695,-0.035,0.005
17:29:35.703,-0.035,0.015
17:29:35.711,-0.015,0.005
17:29:35.719,-0.045,0.005
17:29:35.727,-0.025,0.005
17:29:35.734,-0.005,0.065
17:29:35.742,0.035,0.075
17:29:35.750,0.095,0.005
17:29:35.758,0.115,0.035
17:29:35.766,0.135,0.095
17:29:35.773,0.175,0.115
17:29:35.781,0.235,0.115
17:29:35.789,0.175,0.105
17:29:35.797,0.195,0.015
17:29:35.805,0.215,0.025
17:29:35.813,0.105,0.005
17:29:35.820,-0.095,-0.025
17:29:35.828,-0.095,-0.075
17:29:35.836,-0.135,-0.125
17:29:35.844,-0.135,-0.115
17:29:35.852,-0.115,-0.085
17:29:35.859,-0.135,-0.085
17:29:35.867,-0.115,-0.175
17:29:35.875,-0.125,-0.155
17:29:35.883,-0.115,-0.125
17:29:35.891,-0.125,-0.115
17:29:35.898,-0.215,-0.115
17:29:35.906,-0.495,-0.055
17:29:35.914,-0.325,0.175
17:29:35.922,0.615,0.165
17:29:35.930,1.655,0.045
17:29:35.938,0.695,-0.375
17:29:35.945,-1.125,-1.335
17:29:35.953,-1.435,-1.855
17:29:35.961,-0.935,-1.695
17:29:35.969,-0.375,-0.945
17:29:35.977,-0.165,-0.295
17:29:35.984,-0.075,-0.045
17:29:35.992,-0.065,0.045
17:29:36.000,-0.045,0.065
17:29:36.008,-0.025,0.045
17:29:36.016,-0.015,0.075
17:29:36.023,0.015,0.075
17:29:36.031,0.015,0.085
17:29:36.039,0.035,0.095
17:29:36.047,0.045,0.125
17:29:36.055,0.095,0.175
17:29:36.063,0.135,0.205
17:29:36.070,0.175,0.115
17:29:36.078,0.215,0.245
17:29:36.086,0.245,0.225
17:29:36.094,0.305,0.215
17:29:36.102,0.395,0.335
17:29:36.109,0.485,0.395
17:29:36.117,0.545,0.435
17:29:36.125,0.605,0.495
17:29:36.133,0.645,0.545
17:29:36.141,0.625,0.545
17:29:36.148,0.575,0.495
17:29:36.156,0.535,0.425
17:29:36.164,0.405,0.415
17:29:36.172,0.285,0.305
17:29:36.180,0.155,0.195
17:29:36.188,0.025,0.085
17:29:36.195,-0.025,0.015
17:29:36.203,-0.105,-0.085
17:29:36.211,-0.105,-0.115
17:29:36.219,-0.125,-0.095
17:29:36.227,-0.135,-0.105
17:29:36.234,-0.155,-0.115
17:29:36.242,-0.165,-0.115
17:29:36.250,-0.185,-0.115
17:29:36.258,-0.145,-0.055
17:29:36.266,-0.145,-0.115
17:29:36.273,-0.145,-0.105
17:29:36.281,-0.145,-0.125
17:29:36.289,-0.135,-0.115
17:29:36.297,-0.135,-0.105
17:29:36.305,-0.155,-0.075
17:29:36.313,-0.135,-0.095
17:29:36.320,-0.105,0.005
17:29:36.328,-0.015,-0.075
17:29:36.336,-0.005,-0.015
17:29:36.344,0.015,-0.025
17:29:36.352,0.045,-0.045
17:29:36.359,0.095,0.015
17:29:36.367,0.035,0.005
17:29:36.375,0.035,-0.095
17:29:36.383,0.065,-0.055
17:29:36.391,-0.015,-0.065
17:29:36.398,-0.245,-0.105
17:29:36.406,-0.265,-0.205
17:29:36.414,-0.255,-0.105
17:29:36.422,-0.265,-0.245
17:29:36.430,-0.265,-0.265
17:29:36.438,-0.305,-0.235
17:29:36.445,-0.275,-0.195
17:29:36.453,-0.285,-0.215
17:29:36.461,-0.295,-0.215
17:29:36.469,-0.275,-0.205
17:29:36.477,-0.355,-0.175
17:29:36.484,-0.615,-0.115
17:29:36.492,-0.475,0.095
17:29:36.500,0.355,0.085
17:29:36.508,1.525,0.015
17:29:36.516,0.815,-0.385
17:29:36.523,-1.135,-1.445
17:29:36.531,-1.645,-2.005
17:29:36.539,-1.125,-1.845
17:29:36.547,-0.485,-1.025
17:29:36.555,-0.335,-0.335
17:29:36.563,-0.235,-0.095
17:29:36.570,-0.185,-0.055
17:29:36.578,-0.165,-0.045
17:29:36.586,-0.155,-0.065
17:29:36.594,-0.145,-0.015
17:29:36.602,-0.105,0.035
17:29:36.609,-0.095,0.055
17:29:36.617,-0.085,0.025
17:29:36.625,-0.045,0.055
17:29:36.633,-0.035,0.085
17:29:36.641,0.025,0.175
17:29:36.648,0.075,0.175
17:29:36.656,0.115,0.155
17:29:36.664,0.165,0.215
17:29:36.672,0.255,0.285
17:29:36.680,0.335,0.385
17:29:36.688,0.445,0.435
17:29:36.695,0.495,0.495
17:29:36.703,0.545,0.555
17:29:36.711,0.555,0.525
17:29:36.719,0.525,0.505
17:29:36.727,0.475,0.525
17:29:36.734,0.345,0.385
17:29:36.742,0.185,0.275
17:29:36.750,0.045,0.145
17:29:36.758,-0.075,0.005
17:29:36.766,-0.135,-0.055
17:29:36.773,-0.225,-0.115
17:29:36.781,-0.255,-0.145
17:29:36.789,-0.265,-0.155
17:29:36.797,-0.275,-0.205
17:29:36.805,-0.285,-0.175
17:29:36.813,-0.285,-0.155
17:29:36.820,-0.305,-0.205
17:29:36.828,-0.265,-0.215
17:29:36.836,-0.285,-0.175
17:29:36.844,-0.285,-0.185
17:29:36.852,-0.265,-0.195
17:29:36.859,-0.255,-0.175
17:29:36.867,-0.255,-0.155
17:29:36.875,-0.265,-0.165
17:29:36.883,-0.235,-0.155
17:29:36.891,-0.215,-0.155
17:29:36.898,-0.135,-0.125
17:29:36.906,-0.115,-0.065
17:29:36.914,-0.105,-0.065
17:29:36.922,-0.085,-0.045
17:29:36.930,0.015,-0.025
17:29:36.938,-0.035,-0.085
17:29:36.945,-0.065,-0.155
17:29:36.953,-0.005,-0.145
17:29:36.961,-0.105,-0.115
17:29:36.969,-0.305,-0.195
17:29:36.977,-0.315,-0.245
17:29:36.984,-0.345,-0.195
17:29:36.992,-0.345,-0.265
17:29:37.000,-0.355,-0.275
17:29:37.008,-0.345,-0.265
17:29:37.016,-0.355,-0.275
17:29:37.023,-0.345,-0.265
17:29:37.031,-0.355,-0.245
17:29:37.039,-0.325,-0.225
17:29:37.047,-0.375,-0.245
17:29:37.055,-0.635,-0.205
17:29:37.063,-0.635,-0.005
17:29:37.070,0.025,0.085
17:29:37.078,1.335,0.025
17:29:37.086,1.395,-0.165
17:29:37.094,-0.625,-1.105
17:29:37.102,-1.695,-1.935
17:29:37.109,-1.475,-2.005
17:29:37.117,-0.695,-1.395
17:29:37.125,-0.365,-0.505
17:29:37.133,-0.245,-0.115
17:29:37.141,-0.195,-0.085
17:29:37.148,-0.175,-0.065
17:29:37.156,-0.155,-0.045
17:29:37.164,-0.125,0.045
17:29:37.172,-0.095,-0.075
17:29:37.180,-0.075,-0.045
17:29:37.188,-0.025,0.055
17:29:37.195,-0.005,0.035
17:29:37.203,0.005,0.045
17:29:37.211,0.045,0.075
17:29:37.219,0.075,0.155
17:29:37.227,0.115,0.165
17:29:37.234,0.185,0.265
17:29:37.242,0.275,0.245
17:29:37.250,0.335,0.205
17:29:37.258,0.425,0.355
17:29:37.266,0.525,0.445
17:29:37.273,0.625,0.495
17:29:37.281,0.665,0.515
17:29:37.289,0.685,0.535
17:29:37.297,0.665,0.555
17:29:37.305,0.585,0.525
17:29:37.313,0.465,0.425
17:29:37.320,0.335,0.295
17:29:37.328,0.225,0.195
17:29:37.336,0.085,0.055
17:29:37.344,-0.035,-0.065
17:29:37.352,-0.095,-0.095
17:29:37.359,-0.125,-0.105
17:29:37.367,-0.145,-0.125
17:29:37.375,-0.155,-0.155
17:29:37.383,-0.145,-0.135
17:29:37.391,-0.155,-0.165
17:29:37.398,-0.165,-0.165
17:29:37.406,-0.155,-0.175
17:29:37.414,-0.135,-0.135
17:29:37.422,-0.115,-0.095
17:29:37.430,-0.125,-0.175
17:29:37.438,-0.115,-0.155
17:29:37.445,-0.105,-0.105
17:29:37.453,-0.115,-0.095
17:29:37.461,-0.085,-0.125
17:29:37.469,-0.095,-0.115
17:29:37.477,-0.045,-0.045
17:29:37.484,0.065,-0.015
17:29:37.492,0.035,0.015
17:29:37.500,0.035,-0.015
17:29:37.508,0.135,0.025
17:29:37.516,0.135,-0.025
17:29:37.523,0.085,-0.065
17:29:37.531,0.105,-0.115
17:29:37.539,0.115,-0.055
17:29:37.547,-0.045,-0.055
17:29:37.555,-0.175,-0.105
17:29:37.563,-0.195,-0.185
17:29:37.570,-0.205,-0.145
17:29:37.578,-0.205,-0.175
17:29:37.586,-0.205,-0.225
17:29:37.594,-0.215,-0.215
17:29:37.602,-0.205,-0.175
17:29:37.609,-0.185,-0.135
17:29:37.617,-0.185,-0.185
17:29:37.625,-0.175,-0.165
17:29:37.633,-0.365,-0.125
17:29:37.641,-0.545,0.015
17:29:37.648,-0.015,0.285
17:29:37.656,1.305,0.165
17:29:37.664,1.705,-0.115
17:29:37.672,0.135,-0.965
17:29:37.680,-1.395,-1.785
17:29:37.688,-1.455,-2.145
17:29:37.695,-0.595,-1.535
17:29:37.703,-0.265,-0.645
17:29:37.711,-0.155,-0.105
17:29:37.719,-0.085,0.045
17:29:37.727,-0.055,0.005
17:29:37.734,-0.025,0.055
17:29:37.742,-0.005,0.095
17:29:37.750,0.025,0.145
17:29:37.758,0.045,0.115
17:29:37.766,0.095,0.115
17:29:37.773,0.105,0.185
17:29:37.781,0.115,0.135
17:29:37.789,0.145,0.185
17:29:37.797,0.205,0.235
17:29:37.805,0.235,0.245
17:29:37.813,0.275,0.275
17:29:37.820,0.335,0.385
17:29:37.828,0.395,0.425
17:29:37.836,0.465,0.485
17:29:37.844,0.565,0.535
17:29:37.852,0.695,0.665
17:29:37.859,0.745,0.655
17:29:37.867,0.755,0.655
17:29:37.875,0.745,0.665
17:29:37.883,0.725,0.665
17:29:37.891,0.675,0.615
17:29:37.898,0.525,0.525
17:29:37.906,0.375,0.365
17:29:37.914,0.205,0.245
17:29:37.922,0.085,0.175
17:29:37.930,0.025,0.025
17:29:37.938,-0.045,-0.035
17:29:37.945,-0.115,-0.075
17:29:37.953,-0.085,-0.095
17:29:37.961,-0.125,-0.075
17:29:37.969,-0.075,-0.075
17:29:37.977,-0.095,-0.105
17:29:37.984,-0.145,-0.135
17:29:37.992,-0.125,-0.135
17:29:38.000,-0.115,-0.115
17:29:38.008,-0.075,-0.095
17:29:38.016,-0.055,-0.095
17:29:38.023,-0.065,-0.085
17:29:38.031,-0.075,-0.075
17:29:38.039,-0.055,-0.115
17:29:38.047,-0.015,-0.095
17:29:38.055,-0.015,-0.105
17:29:38.063,0.055,-0.095
17:29:38.070,0.125,-0.015
17:29:38.078,0.105,0.015
17:29:38.086,0.125,-0.005
17:29:38.094,0.185,0.005
17:29:38.102,0.155,-0.005
17:29:38.109,0.115,-0.065
17:29:38.117,0.175,-0.125
17:29:38.125,0.105,-0.095
17:29:38.133,-0.055,-0.135
17:29:38.141,-0.145,-0.125
17:29:38.148,-0.175,-0.195
17:29:38.156,-0.195,-0.225
17:29:38.164,-0.185,-0.245
17:29:38.172,-0.175,-0.175
17:29:38.180,-0.185,-0.245
17:29:38.188,-0.205,-0.235
17:29:38.195,-0.165,-0.155
17:29:38.203,-0.175,-0.195
17:29:38.211,-0.205,-0.205
17:29:38.219,-0.475,-0.195
17:29:38.227,-0.575,-0.015
17:29:38.234,0.105,0.125
17:29:38.242,1.465,0.015
17:29:38.250,1.585,-0.205
17:29:38.258,-0.275,-1.225
17:29:38.266,-1.335,-2.005
17:29:38.273,-1.185,-2.075
17:29:38.281,-0.455,-1.405
17:29:38.289,-0.175,-0.435
17:29:38.297,-0.095,-0.025
17:29:38.305,-0.065,-0.005
17:29:38.313,-0.065,0.015
17:29:38.320,-0.035,0.045
17:29:38.328,-0.005,0.095
17:29:38.336,0.015,0.065
17:29:38.344,0.035,0.075
17:29:38.352,0.055,0.105
17:29:38.359,0.055,0.125
17:29:38.367,0.095,0.145
17:29:38.375,0.125,0.175
17:29:38.383,0.155,0.225
17:29:38.391,0.205,0.275
17:29:38.398,0.285,0.325
17:29:38.406,0.345,0.375
17:29:38.414,0.435,0.425
17:29:38.422,0.515,0.485
17:29:38.430,0.595,0.535
17:29:38.438,0.675,0.615
17:29:38.445,0.725,0.655
17:29:38.453,0.745,0.665
17:29:38.461,0.715,0.645
17:29:38.469,0.625,0.605
17:29:38.477,0.495,0.485
17:29:38.484,0.345,0.375
17:29:38.492,0.245,0.225
17:29:38.500,0.095,0.055
17:29:38.508,0.025,-0.045
17:29:38.516,-0.015,-0.065
17:29:38.523,-0.075,-0.095
17:29:38.531,-0.085,-0.115
17:29:38.539,-0.135,-0.115
17:29:38.547,-0.135,-0.135
17:29:38.555,-0.115,-0.135
17:29:38.563,-0.145,-0.135
17:29:38.570,-0.135,-0.155
17:29:38.578,-0.105,-0.135
17:29:38.586,-0.105,-0.155
17:29:38.594,-0.095,-0.145
17:29:38.602,-0.075,-0.125
17:29:38.609,-0.085,-0.135
17:29:38.617,-0.105,-0.125
17:29:38.625,-0.095,-0.135
17:29:38.633,-0.075,-0.105
17:29:38.641,-0.085,-0.095
17:29:38.648,-0.015,-0.105
17:29:38.656,0.035,-0.065
17:29:38.664,0.015,0.015
17:29:38.672,0.055,-0.005
17:29:38.680,0.135,-0.005
17:29:38.688,0.145,0.015
17:29:38.695,0.085,-0.085
17:29:38.703,0.135,-0.165
17:29:38.711,0.085,-0.105
17:29:38.719,-0.055,-0.135
17:29:38.727,-0.185,-0.165
17:29:38.734,-0.185,-0.215
17:29:38.742,-0.205,-0.225
17:29:38.750,-0.215,-0.235
17:29:38.758,-0.195,-0.215
17:29:38.766,-0.195,-0.205
17:29:38.773,-0.205,-0.205
17:29:38.781,-0.215,-0.195
17:29:38.789,-0.195,-0.165
17:29:38.797,-0.195,-0.165
17:29:38.805,-0.275,-0.245
17:29:38.813,-0.555,-0.075
17:29:38.820,-0.455,0.045
17:29:38.828,0.485,0.065
17:29:38.836,1.705,-0.025
17:29:38.844,1.275,-0.455
17:29:38.852,-0.705,-1.565
17:29:38.859,-1.425,-2.155
17:29:38.867,-1.065,-1.915
17:29:38.875,-0.415,-1.095
17:29:38.883,-0.245,-0.365
17:29:38.891,-0.155,-0.095
17:29:38.898,-0.075,0.045
17:29:38.906,-0.085,0.025
17:29:38.914,-0.065,-0.035
17:29:38.922,-0.065,0.035
17:29:38.930,-0.075,0.075
17:29:38.938,-0.035,0.055
17:29:38.945,0.005,0.095
17:29:38.953,0.035,0.095
17:29:38.961,0.055,0.135
17:29:38.969,0.085,0.165
17:29:38.977,0.135,0.205
17:29:38.984,0.155,0.245
17:29:38.992,0.235,0.305
17:29:39.000,0.295,0.305
17:29:39.008,0.375,0.365
17:29:39.016,0.475,0.475
17:29:39.023,0.575,0.535
17:29:39.031,0.635,0.585
17:29:39.039,0.665,0.615
17:29:39.047,0.665,0.625
17:29:39.055,0.605,0.565
17:29:39.063,0.525,0.475
17:29:39.070,0.385,0.415
17:29:39.078,0.255,0.295
17:29:39.086,0.115,0.155
17:29:39.094,-0.035,0.055
17:29:39.102,-0.095,-0.045
17:29:39.109,-0.135,-0.075
17:29:39.117,-0.165,-0.115
17:29:39.125,-0.195,-0.145
17:29:39.133,-0.205,-0.135
17:29:39.141,-0.215,-0.135
17:29:39.148,-0.215,-0.085
17:29:39.156,-0.205,-0.105
17:29:39.164,-0.205,-0.165
17:29:39.172,-0.165,-0.135
17:29:39.180,-0.165,-0.165
17:29:39.188,-0.175,-0.155
17:29:39.195,-0.155,-0.135
17:29:39.203,-0.155,-0.105
17:29:39.211,-0.155,-0.115
17:29:39.219,-0.135,-0.105
17:29:39.227,-0.125,-0.095
17:29:39.234,-0.075,-0.075
17:29:39.242,-0.035,-0.035
17:29:39.250,-0.055,-0.015
17:29:39.258,0.025,0.055
17:29:39.266,0.085,0.025
17:29:39.273,0.065,-0.055
17:29:39.281,0.005,-0.155
17:29:39.289,0.045,-0.165
17:29:39.297,0.025,-0.085
17:29:39.305,-0.095,-0.135
17:29:39.313,-0.285,-0.185
17:29:39.320,-0.265,-0.225
17:29:39.328,-0.275,-0.215
17:29:39.336,-0.325,-0.235
17:29:39.344,-0.335,-0.245
17:29:39.352,-0.305,-0.205
17:29:39.359,-0.305,-0.225
17:29:39.367,-0.315,-0.245
17:29:39.375,-0.295,-0.235
17:29:39.383,-0.275,-0.185
17:29:39.391,-0.475,-0.195
17:29:39.398,-0.715,-0.085
17:29:39.406,-0.375,0.115
17:29:39.414,0.775,0.095
17:29:39.422,1.685,-0.055
17:29:39.430,0.655,-0.825
17:29:39.438,-1.195,-1.825
17:29:39.445,-1.625,-2.205
17:29:39.453,-0.995,-1.845
17:29:39.461,-0.425,-0.945
17:29:39.469,-0.295,-0.225
17:29:39.477,-0.245,-0.045
17:29:39.484,-0.195,-0.035
17:29:39.492,-0.195,0.005
17:29:39.500,-0.185,0.005
17:29:39.508,-0.145,0.045
17:29:39.516,-0.115,0.055
17:29:39.523,-0.105,0.075
17:29:39.531,-0.085,0.075
17:29:39.539,-0.065,0.135
17:29:39.547,-0.045,0.145
17:29:39.555,0.005,0.155
17:29:39.563,0.035,0.195
17:29:39.570,0.095,0.185
17:29:39.578,0.125,0.265
17:29:39.586,0.215,0.355
17:29:39.594,0.315,0.415
17:29:39.602,0.415,0.445
17:29:39.609,0.485,0.515
17:29:39.617,0.555,0.595
17:29:39.625,0.565,0.635
17:29:39.633,0.585,0.585
17:29:39.641,0.555,0.555
17:29:39.648,0.435,0.465
17:29:39.656,0.295,0.345
17:29:39.664,0.135,0.245
17:29:39.672,0.025,0.135
17:29:39.680,-0.105,0.035
17:29:39.688,-0.185,-0.065
17:29:39.695,-0.215,-0.065
17:29:39.703,-0.215,-0.135
17:29:39.711,-0.255,-0.115
17:29:39.719,-0.265,-0.215
17:29:39.727,-0.275,-0.175
17:29:39.734,-0.295,-0.165
17:29:39.742,-0.285,-0.185
17:29:39.750,-0.275,-0.155
17:29:39.758,-0.255,-0.135
17:29:39.766,-0.235,-0.135
17:29:39.773,-0.215,-0.145
17:29:39.781,-0.255,-0.145
17:29:39.789,-0.245,-0.145
17:29:39.797,-0.235,-0.085
17:29:39.805,-0.215,-0.135
17:29:39.813,-0.125,-0.125
17:29:39.820,-0.075,-0.065
17:29:39.828,-0.095,0.005
17:29:39.836,-0.065,-0.035
17:29:39.844,0.015,-0.035
17:29:39.852,-0.015,-0.055
17:29:39.859,-0.055,-0.115
17:29:39.867,-0.035,-0.155
17:29:39.875,-0.085,-0.135
17:29:39.883,-0.245,-0.145
17:29:39.891,-0.345,-0.215
17:29:39.898,-0.365,-0.255
17:29:39.906,-0.375,-0.255
17:29:39.914,-0.365,-0.215
17:29:39.922,-0.365,-0.225
17:29:39.930,-0.375,-0.245
17:29:39.938,-0.375,-0.235
17:29:39.945,-0.345,-0.265
17:29:39.953,-0.335,-0.225
17:29:39.961,-0.325,-0.265
17:29:39.969,-0.505,-0.215
17:29:39.977,-0.785,-0.115
17:29:39.984,-0.375,0.125
17:29:39.992,0.965,0.115
17:29:40.000,1.655,-0.165
17:29:40.008,0.375,-1.185
17:29:40.016,-1.295,-2.015
17:29:40.023,-1.585,-2.265
17:29:40.031,-0.805,-1.765
17:29:40.039,-0.395,-0.675
17:29:40.047,-0.285,-0.135
17:29:40.055,-0.245,-0.055
17:29:40.063,-0.225,-0.015
17:29:40.070,-0.195,0.025
17:29:40.078,-0.185,0.045
17:29:40.086,-0.175,0.045
17:29:40.094,-0.135,0.075
17:29:40.102,-0.105,0.085
17:29:40.109,-0.085,0.105
17:29:40.117,-0.085,0.125
17:29:40.125,-0.055,0.135
17:29:40.133,-0.025,0.205
17:29:40.141,0.045,0.225
17:29:40.148,0.085,0.265
17:29:40.156,0.135,0.295
17:29:40.164,0.225,0.415
17:29:40.172,0.325,0.445
17:29:40.180,0.415,0.495
17:29:40.188,0.465,0.575
17:29:40.195,0.545,0.645
17:29:40.203,0.585,0.695
17:29:40.211,0.555,0.635
17:29:40.219,0.535,0.585
17:29:40.227,0.445,0.535
17:29:40.234,0.315,0.455
17:29:40.242,0.165,0.265
17:29:40.250,0.025,0.105
17:29:40.258,-0.085,0.025
17:29:40.266,-0.135,-0.015
17:29:40.273,-0.215,-0.135
17:29:40.281,-0.245,-0.145
17:29:40.289,-0.255,-0.135
17:29:40.297,-0.255,-0.155
17:29:40.305,-0.235,-0.155
17:29:40.313,-0.255,-0.155
17:29:40.320,-0.265,-0.145
17:29:40.328,-0.225,-0.115
17:29:40.336,-0.205,-0.115
17:29:40.344,-0.215,-0.125
17:29:40.352,-0.195,-0.135
17:29:40.359,-0.205,-0.125
17:29:40.367,-0.205,-0.125
17:29:40.375,-0.165,-0.105
17:29:40.383,-0.125,-0.115
17:29:40.391,-0.035,-0.075
17:29:40.398,-0.015,-0.005
17:29:40.406,-0.005,0.005
17:29:40.414,0.025,-0.005
17:29:40.422,0.105,0.065
17:29:40.430,0.035,0.065
17:29:40.438,0.055,-0.205
17:29:40.445,0.055,-0.055
17:29:40.453,-0.045,-0.135
17:29:40.461,-0.245,-0.165
17:29:40.469,-0.245,-0.245
17:29:40.477,-0.265,-0.225
17:29:40.484,-0.265,-0.225
17:29:40.492,-0.285,-0.205
17:29:40.500,-0.275,-0.195
17:29:40.508,-0.255,-0.205
17:29:40.516,-0.275,-0.195
17:29:40.523,-0.275,-0.195
17:29:40.531,-0.255,-0.165
17:29:40.539,-0.365,-0.225
17:29:40.547,-0.665,-0.115
17:29:40.555,-0.435,0.075
17:29:40.563,0.585,0.065
17:29:40.570,1.755,-0.035
17:29:40.578,1.095,-0.575
17:29:40.586,-0.915,-1.575
17:29:40.594,-1.475,-2.105
17:29:40.602,-1.015,-1.755
17:29:40.609,-0.465,-0.845
17:29:40.617,-0.255,-0.245
17:29:40.625,-0.205,-0.085
17:29:40.633,-0.175,0.005
17:29:40.641,-0.135,0.065
17:29:40.648,-0.125,0.005
17:29:40.656,-0.085,0.025
17:29:40.664,-0.065,0.065
17:29:40.672,-0.055,0.095
17:29:40.680,-0.025,0.095
17:29:40.688,0.015,0.115
17:29:40.695,0.075,0.145
17:29:40.703,0.045,0.185
17:29:40.711,0.105,0.205
17:29:40.719,0.135,0.255
17:29:40.727,0.245,0.245
17:29:40.734,0.285,0.345
17:29:40.742,0.385,0.405
17:29:40.750,0.485,0.475
17:29:40.758,0.595,0.535
17:29:40.766,0.625,0.585
17:29:40.773,0.635,0.595
17:29:40.781,0.625,0.585
17:29:40.789,0.585,0.545
17:29:40.797,0.505,0.455
17:29:40.805,0.385,0.375
17:29:40.813,0.215,0.245
17:29:40.820,0.105,0.145
17:29:40.828,0.005,0.055
17:29:40.836,-0.095,-0.025
17:29:40.844,-0.135,-0.045
17:29:40.852,-0.165,-0.085
17:29:40.859,-0.165,-0.115
17:29:40.867,-0.195,-0.135
17:29:40.875,-0.205,-0.155
17:29:40.883,-0.185,-0.125
17:29:40.891,-0.195,-0.115
17:29:40.898,-0.175,-0.105
17:29:40.906,-0.175,-0.115
17:29:40.914,-0.175,-0.085
17:29:40.922,-0.145,-0.085
17:29:40.930,-0.165,-0.115
17:29:40.938,-0.145,-0.115
17:29:40.945,-0.165,-0.105
17:29:40.953,-0.135,-0.095
17:29:40.961,-0.075,-0.085
17:29:40.969,-0.025,-0.045
17:29:40.977,0.015,-0.015
17:29:40.984,0.065,0.015
17:29:40.992,0.105,0.025
17:29:41.000,0.115,0.015
17:29:41.008,0.055,-0.025
17:29:41.016,0.115,-0.095
17:29:41.023,0.135,-0.055
17:29:41.031,-0.085,-0.075
17:29:41.039,-0.215,-0.185
17:29:41.047,-0.205,-0.215
17:29:41.055,-0.195,-0.215
17:29:41.063,-0.245,-0.245
17:29:41.070,-0.225,-0.235
17:29:41.078,-0.215,-0.215
17:29:41.086,-0.215,-0.225
17:29:41.094,-0.215,-0.225
17:29:41.102,-0.185,-0.215
17:29:41.109,-0.165,-0.215
17:29:41.117,-0.315,-0.195
17:29:41.125,-0.575,-0.095
17:29:41.133,-0.305,0.095
17:29:41.141,0.695,0.075
17:29:41.148,1.715,-0.055
17:29:41.156,0.855,-0.465
17:29:41.164,-1.195,-1.455
17:29:41.172,-1.765,-1.975
17:29:41.180,-1.185,-1.765
17:29:41.188,-0.475,-0.995
17:29:41.195,-0.195,-0.355
17:29:41.203,-0.095,-0.145
17:29:41.211,-0.055,-0.055
17:29:41.219,-0.045,0.075
17:29:41.227,0.005,-0.095
17:29:41.234,0.015,-0.065
17:29:41.242,0.025,-0.005
17:29:41.250,0.045,-0.035
17:29:41.258,0.065,-0.005
17:29:41.266,0.075,0.025
17:29:41.273,0.075,0.045
17:29:41.281,0.155,0.065
17:29:41.289,0.215,0.125
17:29:41.297,0.245,0.105
17:29:41.305,0.305,0.155
17:29:41.313,0.335,0.165
17:29:41.320,0.445,0.235
17:29:41.328,0.545,0.325
17:29:41.336,0.605,0.405
17:29:41.344,0.655,0.445
17:29:41.352,0.665,0.475
17:29:41.359,0.695,0.465
17:29:41.367,0.645,0.425
17:29:41.375,0.505,0.325
17:29:41.383,0.335,0.205
17:29:41.391,0.205,0.125
17:29:41.398,0.085,0.005
17:29:41.406,0.025,-0.075
17:29:41.414,-0.045,-0.125
17:29:41.422,-0.095,-0.155
17:29:41.430,-0.085,-0.165
17:29:41.438,-0.105,-0.195
17:29:41.445,-0.125,-0.175
17:29:41.453,-0.125,-0.185
17:29:41.461,-0.105,-0.185
17:29:41.469,-0.095,-0.175
17:29:41.477,-0.085,-0.165
17:29:41.484,-0.085,-0.145
17:29:41.492,-0.085,-0.135
17:29:41.500,-0.085,-0.135
17:29:41.508,-0.055,-0.135
17:29:41.516,-0.055,-0.135
17:29:41.523,-0.015,-0.125
17:29:41.531,0.065,-0.095
17:29:41.539,0.105,-0.025
17:29:41.547,0.095,0.005
17:29:41.555,0.115,-0.015
17:29:41.563,0.165,-0.005
17:29:41.570,0.165,0.005
17:29:41.578,0.105,-0.055
17:29:41.586,0.155,-0.075
17:29:41.594,0.155,0.025
17:29:41.602,0.005,-0.065
17:29:41.609,-0.175,-0.205
17:29:41.617,-0.175,-0.245
17:29:41.625,-0.195,-0.255
17:29:41.633,-0.185,-0.215
17:29:41.641,-0.175,-0.205
17:29:41.648,-0.195,-0.185
17:29:41.656,-0.205,-0.195
17:29:41.664,-0.185,-0.195
17:29:41.672,-0.185,-0.175
17:29:41.680,-0.155,-0.115
17:29:41.688,-0.285,-0.205
17:29:41.695,-0.505,-0.085
17:29:41.703,-0.355,0.125
17:29:41.711,0.575,0.165
17:29:41.719,1.685,-0.035
17:29:41.727,0.995,-0.875
17:29:41.734,-1.125,-1.885
17:29:41.742,-1.725,-2.275
17:29:41.750,-0.845,-1.825
17:29:41.758,-0.265,-0.775
17:29:41.766,-0.085,-0.125
17:29:41.773,-0.045,-0.065
17:29:41.781,-0.065,0.025
17:29:41.789,-0.045,0.065
17:29:41.797,-0.015,0.085
17:29:41.805,-0.015,0.105
17:29:41.813,0.015,0.125
17:29:41.820,0.035,0.125
17:29:41.828,0.085,0.145
17:29:41.836,0.115,0.175
17:29:41.844,0.115,0.205
17:29:41.852,0.135,0.235
17:29:41.859,0.185,0.305
17:29:41.867,0.215,0.305
17:29:41.875,0.285,0.285
17:29:41.883,0.355,0.375
17:29:41.891,0.425,0.455
17:29:41.898,0.525,0.525
17:29:41.906,0.585,0.565
17:29:41.914,0.625,0.625
17:29:41.922,0.635,0.655
17:29:41.930,0.615,0.605
17:29:41.938,0.575,0.585
17:29:41.945,0.525,0.505
17:29:41.953,0.385,0.325
17:29:41.961,0.205,0.185
17:29:41.969,0.075,0.085
17:29:41.977,0.015,0.015
17:29:41.984,-0.045,-0.045
17:29:41.992,-0.055,-0.075
17:29:42.000,-0.125,-0.095
17:29:42.008,-0.105,-0.125
17:29:42.016,-0.085,-0.145
17:29:42.023,-0.115,-0.125
17:29:42.031,-0.155,-0.155
17:29:42.039,-0.105,-0.165
17:29:42.047,-0.085,-0.085
17:29:42.055,-0.105,-0.145
17:29:42.063,-0.125,-0.165
17:29:42.070,-0.095,-0.165
17:29:42.078,-0.065,-0.125
17:29:42.086,-0.095,-0.125
17:29:42.094,-0.065,-0.125
17:29:42.102,-0.065,-0.105
17:29:42.109,0.045,-0.095
17:29:42.117,0.065,-0.025
17:29:42.125,0.055,0.005
17:29:42.133,0.125,-0.045
17:29:42.141,0.175,-0.005
17:29:42.148,0.095,0.005
17:29:42.156,0.125,-0.055
17:29:42.164,0.165,-0.115
17:29:42.172,0.035,-0.085
17:29:42.180,-0.205,-0.165
17:29:42.188,-0.245,-0.265
17:29:42.195,-0.215,-0.235
17:29:42.203,-0.205,-0.225
17:29:42.211,-0.245,-0.215
17:29:42.219,-0.235,-0.205
17:29:42.227,-0.225,-0.195
17:29:42.234,-0.235,-0.195
17:29:42.242,-0.215,-0.145
17:29:42.250,-0.205,-0.225
17:29:42.258,-0.325,-0.275
17:29:42.266,-0.645,-0.145
17:29:42.273,-0.445,0.055
17:29:42.281,0.645,0.065
17:29:42.289,1.825,-0.015
17:29:42.297,0.905,-0.685
17:29:42.305,-1.065,-1.685
17:29:42.313,-1.595,-2.125
17:29:42.320,-0.875,-1.765
17:29:42.328,-0.385,-0.855
17:29:42.336,-0.205,-0.245
17:29:42.344,-0.145,-0.075
17:29:42.352,-0.145,0.025
17:29:42.359,-0.135,0.035
17:29:42.367,-0.095,0.045
17:29:42.375,-0.075,0.005
17:29:42.383,-0.055,0.065
17:29:42.391,-0.045,0.075
17:29:42.398,-0.025,0.095
17:29:42.406,0.015,0.085
17:29:42.414,0.025,0.145
17:29:42.422,0.065,0.175
17:29:42.430,0.095,0.205
17:29:42.438,0.125,0.225
17:29:42.445,0.175,0.285
17:29:42.453,0.225,0.335
17:29:42.461,0.325,0.405
17:29:42.469,0.415,0.445
17:29:42.477,0.505,0.525
17:29:42.484,0.565,0.605
17:29:42.492,0.525,0.585
17:29:42.500,0.535,0.565
17:29:42.508,0.505,0.535
17:29:42.516,0.465,0.485
17:29:42.523,0.385,0.385
17:29:42.531,0.195,0.255
17:29:42.539,0.095,0.125
17:29:42.547,0.015,0.065
17:29:42.555,-0.055,-0.045
17:29:42.563,-0.095,-0.125
17:29:42.570,-0.115,-0.135
17:29:42.578,-0.155,-0.155
17:29:42.586,-0.205,-0.165
17:29:42.594,-0.185,-0.195
17:29:42.602,-0.155,-0.175
17:29:42.609,-0.175,-0.155
17:29:42.617,-0.175,-0.165
17:29:42.625,-0.165,-0.185
17:29:42.633,-0.135,-0.135
17:29:42.641,-0.145,-0.125
17:29:42.648,-0.145,-0.115
17:29:42.656,-0.135,-0.195
17:29:42.664,-0.145,-0.175
17:29:42.672,-0.145,-0.165
17:29:42.680,-0.075,-0.135
17:29:42.688,-0.035,-0.095
17:29:42.695,0.005,-0.065
17:29:42.703,0.025,-0.025
17:29:42.711,0.075,-0.015
17:29:42.719,0.115,-0.015
17:29:42.727,0.025,-0.075
17:29:42.734,0.125,-0.115
17:29:42.742,0.045,-0.075
17:29:42.750,-0.185,-0.135
17:29:42.758,-0.265,-0.235
17:29:42.766,-0.295,-0.275
17:29:42.773,-0.305,-0.255
17:29:42.781,-0.315,-0.275
17:29:42.789,-0.295,-0.275
17:29:42.797,-0.295,-0.245
17:29:42.805,-0.325,-0.245
17:29:42.813,-0.325,-0.235
17:29:42.820,-0.305,-0.245
17:29:42.828,-0.285,-0.255
17:29:42.836,-0.495,-0.235
17:29:42.844,-0.705,-0.115
17:29:42.852,-0.245,0.065
17:29:42.859,1.185,-0.005
17:29:42.867,1.385,-0.205
17:29:42.875,-0.515,-1.215
17:29:42.883,-1.735,-2.005
17:29:42.891,-1.515,-2.095
17:29:42.898,-0.705,-1.395
17:29:42.906,-0.355,-0.515
17:29:42.914,-0.195,-0.175
17:29:42.922,-0.165,-0.035
17:29:42.930,-0.195,-0.065
17:29:42.938,-0.185,-0.065
17:29:42.945,-0.155,-0.025
17:29:42.953,-0.125,-0.005
17:29:42.961,-0.145,0.005
17:29:42.969,-0.125,-0.005
17:29:42.977,-0.075,0.025
17:29:42.984,-0.065,0.075
17:29:42.992,-0.035,0.065
17:29:43.000,-0.015,0.115
17:29:43.008,0.045,0.125
17:29:43.016,0.095,0.275
17:29:43.023,0.185,0.225
17:29:43.031,0.225,0.235
17:29:43.039,0.325,0.325
17:29:43.047,0.385,0.405
17:29:43.055,0.415,0.435
17:29:43.063,0.455,0.465
17:29:43.070,0.435,0.465
17:29:43.078,0.425,0.445
17:29:43.086,0.365,0.405
17:29:43.094,0.245,0.305
17:29:43.102,0.155,0.205
17:29:43.109,0.015,0.145
17:29:43.117,-0.085,-0.075
17:29:43.125,-0.155,-0.145
17:29:43.133,-0.205,-0.165
17:29:43.141,-0.225,-0.195
17:29:43.148,-0.225,-0.185
17:29:43.156,-0.275,-0.225
17:29:43.164,-0.275,-0.225
17:29:43.172,-0.245,-0.195
17:29:43.180,-0.275,-0.205
17:29:43.188,-0.255,-0.215
17:29:43.195,-0.245,-0.205
17:29:43.203,-0.225,-0.175
17:29:43.211,-0.245,-0.175
17:29:43.219,-0.255,-0.195
17:29:43.227,-0.265,-0.195
17:29:43.234,-0.245,-0.135
17:29:43.242,-0.255,-0.175
17:29:43.250,-0.225,-0.175
17:29:43.258,-0.085,-0.145
17:29:43.266,-0.105,-0.095
17:29:43.273,-0.095,-0.105
17:29:43.281,-0.015,-0.105
17:29:43.289,0.025,-0.045
17:29:43.297,-0.065,-0.075
17:29:43.305,0.005,-0.185
17:29:43.313,0.005,-0.115
17:29:43.320,-0.155,-0.125
17:29:43.328,-0.375,-0.235
17:29:43.336,-0.375,-0.295
17:29:43.344,-0.385,-0.315
17:29:43.352,-0.395,-0.275
17:29:43.359,-0.385,-0.305
17:29:43.367,-0.405,-0.315
17:29:43.375,-0.385,-0.285
17:29:43.383,-0.415,-0.285
17:29:43.391,-0.415,-0.305
17:29:43.398,-0.375,-0.285
17:29:43.406,-0.485,-0.315
17:29:43.414,-0.805,-0.235
17:29:43.422,-0.655,0.025
17:29:43.430,0.345,-0.005
17:29:43.438,1.395,-0.225
17:29:43.445,0.755,-1.005
17:29:43.453,-1.235,-1.895
17:29:43.461,-1.935,-2.285
17:29:43.469,-1.245,-2.025
17:29:43.477,-0.605,-1.065
17:29:43.484,-0.345,-0.345
17:29:43.492,-0.295,-0.145
17:29:43.500,-0.315,-0.065
17:29:43.508,-0.305,-0.025
17:29:43.516,-0.275,-0.025
17:29:43.523,-0.235,-0.065
17:29:43.531,-0.235,-0.055
17:29:43.539,-0.205,-0.055
17:29:43.547,-0.215,0.035
17:29:43.555,-0.205,0.025
17:29:43.563,-0.155,0.045
17:29:43.570,-0.145,0.085
17:29:43.578,-0.105,0.115
17:29:43.586,-0.075,0.175
17:29:43.594,-0.015,0.215
17:29:43.602,0.015,0.235
17:29:43.609,0.085,0.355
17:29:43.617,0.155,0.355
17:29:43.625,0.235,0.385
17:29:43.633,0.265,0.415
17:29:43.641,0.265,0.475
17:29:43.648,0.255,0.505
17:29:43.656,0.265,0.435
17:29:43.664,0.215,0.415
17:29:43.672,0.135,0.325
17:29:43.680,0.045,0.205
17:29:43.688,-0.115,0.065
17:29:43.695,-0.175,-0.015
17:29:43.703,-0.235,-0.055
17:29:43.711,-0.275,-0.185
17:29:43.719,-0.315,-0.255
17:29:43.727,-0.335,-0.275
17:29:43.734,-0.335,-0.235
17:29:43.742,-0.365,-0.235
17:29:43.750,-0.345,-0.235
17:29:43.758,-0.345,-0.215
17:29:43.766,-0.355,-0.225
17:29:43.773,-0.335,-0.175
17:29:43.781,-0.295,-0.205
17:29:43.789,-0.375,-0.225
17:29:43.797,-0.295,-0.175
17:29:43.805,-0.285,-0.165
17:29:43.813,-0.295,-0.245
17:29:43.820,-0.325,-0.235
17:29:43.828,-0.255,-0.195
17:29:43.836,-0.185,-0.125
17:29:43.844,-0.165,-0.095
17:29:43.852,-0.135,-0.065
17:29:43.859,-0.035,-0.105
17:29:43.867,-0.085,-0.035
17:29:43.875,-0.105,-0.155
17:29:43.883,-0.055,-0.135
17:29:43.891,-0.065,-0.075
17:29:43.898,-0.345,-0.195
17:29:43.906,-0.455,-0.335
17:29:43.914,-0.435,-0.355
17:29:43.922,-0.425,-0.285
17:29:43.930,-0.425,-0.325
17:29:43.938,-0.465,-0.325
17:29:43.945,-0.445,-0.315
17:29:43.953,-0.445,-0.275
17:29:43.961,-0.445,-0.275
17:29:43.969,-0.455,-0.305
17:29:43.977,-0.435,-0.255
17:29:43.984,-0.725,-0.275
17:29:43.992,-0.875,-0.185
17:29:44.000,-0.235,-0.025
17:29:44.008,1.185,-0.075
17:29:44.016,1.125,-0.525
17:29:44.023,-0.805,-1.675
17:29:44.031,-1.825,-2.225
17:29:44.039,-1.495,-2.145
17:29:44.047,-0.725,-1.365
17:29:44.055,-0.415,-0.505
17:29:44.063,-0.295,-0.155
17:29:44.070,-0.315,-0.025
17:29:44.078,-0.275,-0.045
17:29:44.086,-0.275,-0.075
17:29:44.094,-0.265,-0.075
17:29:44.102,-0.235,-0.015
17:29:44.109,-0.245,0.025
17:29:44.117,-0.225,0.005
17:29:44.125,-0.205,0.035
17:29:44.133,-0.155,0.055
17:29:44.141,-0.135,0.075
17:29:44.148,-0.095,0.135
17:29:44.156,-0.065,0.155
17:29:44.164,-0.015,0.215
17:29:44.172,0.005,0.265
17:29:44.180,0.095,0.345
17:29:44.188,0.185,0.435
17:29:44.195,0.265,0.395
17:29:44.203,0.255,0.465
17:29:44.211,0.275,0.505
17:29:44.219,0.265,0.495
17:29:44.227,0.265,0.485
17:29:44.234,0.235,0.435
17:29:44.242,0.165,0.355
17:29:44.250,0.055,0.255
17:29:44.258,-0.085,0.145
17:29:44.266,-0.175,-0.025
17:29:44.273,-0.235,-0.125
17:29:44.281,-0.285,-0.155
17:29:44.289,-0.305,-0.175
17:29:44.297,-0.325,-0.195
17:29:44.305,-0.355,-0.195
17:29:44.313,-0.395,-0.215
17:29:44.320,-0.375,-0.195
17:29:44.328,-0.335,-0.185
17:29:44.336,-0.335,-0.205
17:29:44.344,-0.345,-0.185
17:29:44.352,-0.335,-0.165
17:29:44.359,-0.295,-0.135
17:29:44.367,-0.305,-0.215
17:29:44.375,-0.315,-0.195
17:29:44.383,-0.295,-0.165
17:29:44.391,-0.305,-0.195
17:29:44.398,-0.245,-0.175
17:29:44.406,-0.165,-0.115
17:29:44.414,-0.145,-0.025
17:29:44.422,-0.135,-0.085
17:29:44.430,-0.025,-0.085
17:29:44.438,-0.045,-0.025
17:29:44.445,-0.085,-0.075
17:29:44.453,0.005,-0.135
17:29:44.461,-0.065,-0.095
17:29:44.469,-0.355,-0.155
17:29:44.477,-0.405,-0.285
17:29:44.484,-0.415,-0.275
17:29:44.492,-0.425,-0.275
17:29:44.500,-0.415,-0.295
17:29:44.508,-0.415,-0.285
17:29:44.516,-0.395,-0.265
17:29:44.523,-0.395,-0.265
17:29:44.531,-0.415,-0.295
17:29:44.539,-0.385,-0.245
17:29:44.547,-0.435,-0.215
17:29:44.555,-0.745,-0.215
17:29:44.563,-0.795,-0.085
17:29:44.570,-0.065,0.045
17:29:44.578,1.235,-0.065
17:29:44.586,1.045,-0.605
17:29:44.594,-0.895,-1.765
17:29:44.602,-1.755,-2.225
17:29:44.609,-1.305,-2.095
17:29:44.617,-0.585,-1.255
17:29:44.625,-0.335,-0.405
17:29:44.633,-0.235,-0.085
17:29:44.641,-0.235,-0.035
17:29:44.648,-0.225,-0.005
17:29:44.656,-0.225,0.005
17:29:44.664,-0.205,0.005
17:29:44.672,-0.185,0.045
17:29:44.680,-0.145,0.065
17:29:44.688,-0.125,0.095
17:29:44.695,-0.095,0.115
17:29:44.703,-0.085,0.155
17:29:44.711,-0.035,0.175
17:29:44.719,0.005,0.235
17:29:44.727,0.045,0.245
17:29:44.734,0.075,0.275
17:29:44.742,0.145,0.405
17:29:44.750,0.195,0.375
17:29:44.758,0.255,0.465
17:29:44.766,0.335,0.555
17:29:44.773,0.355,0.585
17:29:44.781,0.395,0.605
17:29:44.789,0.405,0.615
17:29:44.797,0.375,0.625
17:29:44.805,0.355,0.525
17:29:44.813,0.265,0.405
17:29:44.820,0.175,0.325
17:29:44.828,0.065,0.145
17:29:44.836,-0.055,0.035
17:29:44.844,-0.085,-0.035
17:29:44.852,-0.145,-0.065
17:29:44.859,-0.215,-0.085
17:29:44.867,-0.175,-0.075
17:29:44.875,-0.175,-0.125
17:29:44.883,-0.205,-0.135
17:29:44.891,-0.195,-0.085
17:29:44.898,-0.175,-0.075
17:29:44.906,-0.175,-0.055
17:29:44.914,-0.145,-0.095
17:29:44.922,-0.135,-0.075
17:29:44.930,-0.135,-0.055
17:29:44.938,-0.125,-0.075
17:29:44.945,-0.125,-0.105
17:29:44.953,-0.125,-0.115
17:29:44.961,-0.105,-0.075
17:29:44.969,-0.025,-0.045
17:29:44.977,0.045,0.035
17:29:44.984,0.025,0.065
17:29:44.992,0.045,0.065
17:29:45.000,0.175,0.055
17:29:45.008,0.115,0.105
17:29:45.016,0.145,0.025
17:29:45.023,0.175,0.015
17:29:45.031,-0.015,-0.045
17:29:45.039,-0.215,-0.135
17:29:45.047,-0.225,-0.175
17:29:45.055,-0.205,-0.165
17:29:45.063,-0.215,-0.165
17:29:45.070,-0.235,-0.155
17:29:45.078,-0.225,-0.135
17:29:45.086,-0.225,-0.115
17:29:45.094,-0.235,-0.145
17:29:45.102,-0.195,-0.195
17:29:45.109,-0.205,-0.085
17:29:45.117,-0.445,-0.165
17:29:45.125,-0.705,-0.045
17:29:45.133,-0.425,0.105
17:29:45.141,0.715,0.085
17:29:45.148,1.485,-0.115
17:29:45.156,0.285,-1.175
17:29:45.164,-1.295,-1.995
17:29:45.172,-1.445,-2.175
17:29:45.180,-0.625,-1.655
17:29:45.188,-0.215,-0.545
17:29:45.195,-0.075,-0.035
17:29:45.203,-0.065,0.075
17:29:45.211,-0.055,0.145
17:29:45.219,-0.045,0.155
17:29:45.227,-0.055,0.125
17:29:45.234,-0.025,0.175
17:29:45.242,-0.015,0.185
17:29:45.250,0.035,0.225
17:29:45.258,0.035,0.245
17:29:45.266,0.045,0.265
17:29:45.273,0.055,0.305
17:29:45.281,0.095,0.335
17:29:45.289,0.135,0.405
17:29:45.297,0.155,0.465
17:29:45.305,0.225,0.545
17:29:45.313,0.285,0.515
17:29:45.320,0.345,0.565
17:29:45.328,0.425,0.715
17:29:45.336,0.475,0.695
17:29:45.344,0.505,0.745
17:29:45.352,0.505,0.735
17:29:45.359,0.505,0.735
17:29:45.367,0.475,0.685
17:29:45.375,0.405,0.575
17:29:45.383,0.315,0.455
17:29:45.391,0.165,0.335
17:29:45.398,0.085,0.225
17:29:45.406,0.045,0.125
17:29:45.414,-0.025,0.025
17:29:45.422,-0.075,0.015
17:29:45.430,-0.035,-0.005
17:29:45.438,-0.035,-0.035
17:29:45.445,-0.065,-0.035
17:29:45.453,-0.035,-0.025
17:29:45.461,-0.065,-0.015
17:29:45.469,-0.035,-0.035
17:29:45.477,-0.015,0.025
17:29:45.484,0.005,0.005
17:29:45.492,0.005,-0.045
17:29:45.500,-0.005,-0.065
17:29:45.508,0.015,-0.025
17:29:45.516,0.015,-0.015
17:29:45.523,-0.015,-0.045
17:29:45.531,0.085,0.005
17:29:45.539,0.105,0.065
17:29:45.547,0.115,0.095
17:29:45.555,0.205,0.125
17:29:45.563,0.275,0.145
17:29:45.570,0.195,0.105
17:29:45.578,0.275,-0.025
17:29:45.586,0.275,0.025
17:29:45.594,0.105,0.005
17:29:45.602,-0.105,-0.075
17:29:45.609,-0.135,-0.135
17:29:45.617,-0.105,-0.095
17:29:45.625,-0.145,-0.115
17:29:45.633,-0.155,-0.145
17:29:45.641,-0.135,-0.125
17:29:45.648,-0.155,-0.145
17:29:45.656,-0.155,-0.105
17:29:45.664,-0.125,-0.165
17:29:45.672,-0.105,-0.145
17:29:45.680,-0.245,-0.135
17:29:45.688,-0.445,-0.025
17:29:45.695,-0.095,0.175
17:29:45.703,1.055,0.115
17:29:45.711,1.445,-0.065
17:29:45.719,-0.135,-0.525
17:29:45.727,-1.455,-1.465
17:29:45.734,-1.425,-1.845
17:29:45.742,-0.865,-1.465
17:29:45.750,-0.355,-0.835
17:29:45.758,-0.095,-0.295
17:29:45.766,-0.015,-0.055
17:29:45.773,-0.015,0.045
17:29:45.781,-0.015,-0.005
17:29:45.789,0.015,0.035
17:29:45.797,-0.005,0.055
17:29:45.805,0.035,0.055
17:29:45.813,0.065,0.105
17:29:45.820,0.065,0.105
17:29:45.828,0.065,0.145
17:29:45.836,0.125,0.095
17:29:45.844,0.155,0.115
17:29:45.852,0.205,0.115
17:29:45.859,0.265,0.195
17:29:45.867,0.305,0.255
17:29:45.875,0.365,0.275
17:29:45.883,0.425,0.345
17:29:45.891,0.495,0.395
17:29:45.898,0.545,0.445
17:29:45.906,0.545,0.515
17:29:45.914,0.585,0.525
17:29:45.922,0.565,0.445
17:29:45.930,0.545,0.415
17:29:45.938,0.475,0.335
17:29:45.945,0.365,0.335
17:29:45.953,0.245,0.195
17:29:45.961,0.145,0.085
17:29:45.969,0.055,0.045
17:29:45.977,-0.005,-0.015
17:29:45.984,-0.035,-0.065
17:29:45.992,-0.045,-0.035
17:29:46.000,-0.095,-0.135
17:29:46.008,-0.095,-0.145
17:29:46.016,-0.075,-0.065
17:29:46.023,-0.095,-0.135
17:29:46.031,-0.065,-0.105
17:29:46.039,-0.075,-0.065
17:29:46.047,-0.035,-0.105
17:29:46.055,-0.055,-0.055
17:29:46.063,-0.065,-0.075
17:29:46.070,-0.025,-0.055
17:29:46.078,0.025,-0.065
17:29:46.086,0.045,-0.015
17:29:46.094,0.095,0.045
17:29:46.102,0.085,0.055
17:29:46.109,0.115,0.045
17:29:46.117,0.255,0.095
17:29:46.125,0.165,0.095
17:29:46.133,0.195,-0.025
17:29:46.141,0.215,-0.015
17:29:46.148,0.025,-0.045
17:29:46.156,-0.155,-0.095
17:29:46.164,-0.185,-0.185
17:29:46.172,-0.205,-0.185
17:29:46.180,-0.205,-0.165
17:29:46.188,-0.205,-0.185
17:29:46.195,-0.205,-0.165
17:29:46.203,-0.195,-0.195
17:29:46.211,-0.215,-0.195
17:29:46.219,-0.185,-0.205
17:29:46.227,-0.195,-0.175
17:29:46.234,-0.365,-0.165
17:29:46.242,-0.655,-0.075
17:29:46.250,-0.415,0.085
17:29:46.258,0.725,0.085
17:29:46.266,1.475,-0.105
17:29:46.273,0.115,-1.005
17:29:46.281,-1.535,-1.915
17:29:46.289,-1.665,-2.185
17:29:46.297,-0.835,-1.685
17:29:46.305,-0.345,-0.755
17:29:46.313,-0.115,-0.205
17:29:46.320,-0.075,0.005
17:29:46.328,-0.075,0.075
17:29:46.336,-0.075,0.065
17:29:46.344,-0.045,0.075
17:29:46.352,-0.035,0.095
17:29:46.359,-0.055,0.115
17:29:46.367,-0.015,0.125
17:29:46.375,0.005,0.145
17:29:46.383,0.025,0.165
17:29:46.391,0.025,0.185
17:29:46.398,0.065,0.225
17:29:46.406,0.115,0.235
17:29:46.414,0.175,0.245
17:29:46.422,0.215,0.335
17:29:46.430,0.245,0.345
17:29:46.438,0.295,0.395
17:29:46.445,0.365,0.465
17:29:46.453,0.415,0.545
17:29:46.461,0.445,0.595
17:29:46.469,0.455,0.585
17:29:46.477,0.445,0.585
17:29:46.484,0.405,0.555
17:29:46.492,0.365,0.515
17:29:46.500,0.255,0.425
17:29:46.508,0.175,0.245
17:29:46.516,0.085,0.175
17:29:46.523,0.005,0.045
17:29:46.531,-0.075,-0.055
17:29:46.539,-0.095,-0.095
17:29:46.547,-0.115,-0.105
17:29:46.555,-0.145,-0.115
17:29:46.563,-0.155,-0.125
17:29:46.570,-0.155,-0.125
17:29:46.578,-0.135,-0.115
17:29:46.586,-0.135,-0.105
17:29:46.594,-0.125,-0.095
17:29:46.602,-0.145,-0.095
17:29:46.609,-0.125,-0.095
17:29:46.617,-0.115,-0.085
17:29:46.625,-0.105,-0.095
17:29:46.633,-0.095,-0.065
17:29:46.641,-0.035,-0.055
17:29:46.648,0.055,-0.015
17:29:46.656,0.025,0.045
17:29:46.664,0.045,0.045
17:29:46.672,0.175,0.065
17:29:46.680,0.165,0.015
17:29:46.688,0.065,-0.035
17:29:46.695,0.175,-0.075
17:29:46.703,0.125,0.005
17:29:46.711,-0.135,-0.045
17:29:46.719,-0.235,-0.165
17:29:46.727,-0.245,-0.175
17:29:46.734,-0.225,-0.195
17:29:46.742,-0.255,-0.165
17:29:46.750,-0.265,-0.135
17:29:46.758,-0.225,-0.225
17:29:46.766,-0.215,-0.205
17:29:46.773,-0.225,-0.205
17:29:46.781,-0.225,-0.175
17:29:46.789,-0.375,-0.165
17:29:46.797,-0.705,-0.125
17:29:46.805,-0.515,0.045
17:29:46.813,0.545,0.065
17:29:46.820,1.525,-0.095
17:29:46.828,0.195,-0.965
17:29:46.836,-1.475,-1.885
17:29:46.844,-1.535,-2.135
17:29:46.852,-0.645,-1.575
17:29:46.859,-0.285,-0.575
17:29:46.867,-0.105,-0.135
17:29:46.875,-0.125,0.025
17:29:46.883,-0.075,0.055
17:29:46.891,-0.075,0.085
17:29:46.898,-0.065,0.095
17:29:46.906,-0.055,0.095
17:29:46.914,-0.025,0.145
17:29:46.922,0.005,0.175
17:29:46.930,0.035,0.175
17:29:46.938,0.055,0.175
17:29:46.945,0.075,0.235
17:29:46.953,0.115,0.255
17:29:46.961,0.185,0.315
17:29:46.969,0.205,0.355
17:29:46.977,0.275,0.405
17:29:46.984,0.335,0.475
17:29:46.992,0.405,0.495
17:29:47.000,0.435,0.575
17:29:47.008,0.485,0.635
17:29:47.016,0.505,0.665
17:29:47.023,0.515,0.685
17:29:47.031,0.475,0.625
17:29:47.039,0.435,0.585
17:29:47.047,0.395,0.525
17:29:47.055,0.275,0.395
17:29:47.063,0.155,0.265
17:29:47.070,0.065,0.155
17:29:47.078,0.015,0.095
17:29:47.086,-0.045,0.065
17:29:47.094,-0.075,-0.005
17:29:47.102,-0.095,-0.005
17:29:47.109,-0.085,0.005
17:29:47.117,-0.055,-0.015
17:29:47.125,-0.045,-0.055
17:29:47.133,-0.035,-0.035
17:29:47.141,-0.015,-0.025
17:29:47.148,-0.045,-0.005
17:29:47.156,-0.025,-0.005
17:29:47.164,-0.015,0.015
17:29:47.172,0.015,0.015
17:29:47.180,0.015,0.005
17:29:47.188,0.085,0.015
17:29:47.195,0.155,0.095
17:29:47.203,0.155,0.115
17:29:47.211,0.185,0.165
17:29:47.219,0.215,0.145
17:29:47.227,0.335,0.165
17:29:47.234,0.255,0.095
17:29:47.242,0.245,0.045
17:29:47.250,0.325,0.055
17:29:47.258,0.215,0.075
17:29:47.266,-0.015,0.025
17:29:47.273,-0.055,-0.085
17:29:47.281,-0.055,-0.075
17:29:47.289,-0.055,-0.075
17:29:47.297,-0.075,-0.085
17:29:47.305,-0.095,-0.065
17:29:47.313,-0.065,-0.075
17:29:47.320,-0.085,-0.065
17:29:47.328,-0.055,-0.065
17:29:47.336,-0.085,-0.065
17:29:47.344,-0.355,-0.045
17:29:47.352,-0.435,0.025
17:29:47.359,0.275,0.165
17:29:47.367,1.525,0.125
17:29:47.375,1.235,-0.125
17:29:47.383,-0.525,-1.135
17:29:47.391,-1.335,-1.835
17:29:47.398,-1.045,-1.895
17:29:47.406,-0.325,-1.225
17:29:47.414,-0.035,-0.375
17:29:47.422,0.045,0.025
17:29:47.430,0.065,0.105
17:29:47.438,0.065,0.105
17:29:47.445,0.075,0.135
17:29:47.453,0.065,0.165
17:29:47.461,0.085,0.185
17:29:47.469,0.115,0.185
17:29:47.477,0.165,0.205
17:29:47.484,0.175,0.265
17:29:47.492,0.215,0.235
17:29:47.500,0.245,0.245
17:29:47.508,0.265,0.295
17:29:47.516,0.315,0.345
17:29:47.523,0.355,0.375
17:29:47.531,0.405,0.435
17:29:47.539,0.525,0.495
17:29:47.547,0.585,0.595
17:29:47.555,0.635,0.605
17:29:47.563,0.715,0.665
17:29:47.570,0.695,0.705
17:29:47.578,0.665,0.675
17:29:47.586,0.645,0.645
17:29:47.594,0.615,0.605
17:29:47.602,0.465,0.435
17:29:47.609,0.335,0.325
17:29:47.617,0.245,0.235
17:29:47.625,0.145,0.145
17:29:47.633,0.075,0.095
17:29:47.641,0.085,0.055
17:29:47.648,0.045,0.015
17:29:47.656,0.005,0.005
17:29:47.664,0.015,0.015
17:29:47.672,0.005,0.005
17:29:47.680,0.035,0.015
17:29:47.688,0.005,0.015
17:29:47.695,0.015,-0.015
17:29:47.703,0.065,-0.015
17:29:47.711,0.045,0.025
17:29:47.719,0.065,0.005
17:29:47.727,0.065,0.005
17:29:47.734,0.125,0.045
17:29:47.742,0.155,0.075
17:29:47.750,0.185,0.065
17:29:47.758,0.235,0.105
17:29:47.766,0.265,0.145
17:29:47.773,0.385,0.145
17:29:47.781,0.265,0.125
17:29:47.789,0.315,0.045
17:29:47.797,0.305,0.055
17:29:47.805,0.075,0.045
17:29:47.813,-0.045,-0.055
17:29:47.820,-0.015,-0.105
17:29:47.828,-0.025,-0.075
17:29:47.836,-0.085,-0.115
17:29:47.844,-0.085,-0.125
17:29:47.852,-0.085,-0.095
17:29:47.859,-0.055,-0.075
17:29:47.867,-0.085,-0.095
17:29:47.875,-0.065,-0.125
17:29:47.883,-0.125,-0.095
17:29:47.891,-0.305,-0.015
17:29:47.898,-0.305,0.095
17:29:47.906,0.395,0.155
17:29:47.914,1.495,0.035
17:29:47.922,0.985,-0.085
17:29:47.930,-0.965,-0.825
17:29:47.938,-1.495,-1.585
17:29:47.945,-1.095,-1.715
17:29:47.953,-0.495,-1.125
17:29:47.961,-0.175,-0.475
17:29:47.969,-0.025,-0.095
17:29:47.977,0.015,0.035
17:29:47.984,0.015,0.045
17:29:47.992,0.045,0.005
17:29:48.000,0.065,0.105
17:29:48.008,0.095,0.065
17:29:48.016,0.085,0.055
17:29:48.023,0.095,0.075
17:29:48.031,0.125,0.065
17:29:48.039,0.145,0.105
17:29:48.047,0.205,0.145
17:29:48.055,0.255,0.155
17:29:48.063,0.255,0.175
17:29:48.070,0.315,0.215
17:29:48.078,0.365,0.265
17:29:48.086,0.435,0.315
17:29:48.094,0.515,0.345
17:29:48.102,0.575,0.425
17:29:48.109,0.655,0.445
17:29:48.117,0.635,0.475
17:29:48.125,0.645,0.495
17:29:48.133,0.595,0.435
17:29:48.141,0.535,0.365
17:29:48.148,0.425,0.305
17:29:48.156,0.295,0.235
17:29:48.164,0.195,0.185
17:29:48.172,0.095,0.075
17:29:48.180,0.045,-0.005
17:29:48.188,-0.015,-0.035
17:29:48.195,-0.075,-0.055
17:29:48.203,-0.105,-0.085
17:29:48.211,-0.105,-0.095
17:29:48.219,-0.105,-0.105
17:29:48.227,-0.075,-0.085
17:29:48.234,-0.105,-0.105
17:29:48.242,-0.115,-0.085
17:29:48.250,-0.065,-0.105
17:29:48.258,-0.055,-0.095
17:29:48.266,-0.065,-0.065
17:29:48.273,-0.065,-0.065
17:29:48.281,-0.025,-0.065
17:29:48.289,0.015,-0.045
17:29:48.297,0.055,0.005
17:29:48.305,0.075,0.045
17:29:48.313,0.115,0.065
17:29:48.320,0.215,0.045
17:29:48.328,0.205,0.085
17:29:48.336,0.125,-0.015
17:29:48.344,0.185,-0.095
17:29:48.352,0.125,-0.035
17:29:48.359,-0.085,-0.065
17:29:48.367,-0.135,-0.165
17:29:48.375,-0.175,-0.165
17:29:48.383,-0.215,-0.155
17:29:48.391,-0.195,-0.165
17:29:48.398,-0.185,-0.215
17:29:48.406,-0.205,-0.215
17:29:48.414,-0.195,-0.175
17:29:48.422,-0.175,-0.185
17:29:48.430,-0.225,-0.195
17:29:48.438,-0.485,-0.175
17:29:48.445,-0.485,-0.015
17:29:48.453,0.275,0.075
17:29:48.461,1.495,-0.055
17:29:48.469,0.855,-0.255
17:29:48.477,-1.135,-1.145
17:29:48.484,-1.525,-1.775
17:29:48.492,-1.095,-1.715
17:29:48.500,-0.525,-0.995
17:29:48.508,-0.245,-0.385
17:29:48.516,-0.145,-0.185
17:29:48.523,-0.095,-0.045
17:29:48.531,-0.105,-0.035
17:29:48.539,-0.065,-0.035
17:29:48.547,-0.075,-0.015
17:29:48.555,-0.035,0.015
17:29:48.563,-0.025,-0.005
17:29:48.570,0.005,-0.015
17:29:48.578,0.015,0.005
17:29:48.586,0.035,0.105
17:29:48.594,0.085,0.015
17:29:48.602,0.115,0.015
17:29:48.609,0.165,0.125
17:29:48.617,0.235,0.105
17:29:48.625,0.295,0.175
17:29:48.633,0.345,0.225
17:29:48.641,0.415,0.295
17:29:48.648,0.485,0.325
17:29:48.656,0.525,0.365
17:29:48.664,0.545,0.395
17:29:48.672,0.565,0.415
17:29:48.680,0.525,0.385
17:29:48.688,0.445,0.335
17:29:48.695,0.375,0.315
17:29:48.703,0.245,0.165
17:29:48.711,0.105,0.035
17:29:48.719,-0.015,-0.045
17:29:48.727,-0.095,-0.085
17:29:48.734,-0.135,-0.155
17:29:48.742,-0.165,-0.125
17:29:48.750,-0.175,-0.195
17:29:48.758,-0.205,-0.195
17:29:48.766,-0.215,-0.155
17:29:48.773,-0.195,-0.195
17:29:48.781,-0.225,-0.245
17:29:48.789,-0.205,-0.215
17:29:48.797,-0.195,-0.175
17:29:48.805,-0.175,-0.195
17:29:48.813,-0.195,-0.175
17:29:48.820,-0.175,-0.175
17:29:48.828,-0.115,-0.135
17:29:48.836,-0.075,-0.145
17:29:48.844,-0.055,-0.075
17:29:48.852,-0.005,-0.035
17:29:48.859,0.055,-0.045
17:29:48.867,0.095,-0.035
17:29:48.875,0.055,-0.035
17:29:48.883,0.025,-0.135
17:29:48.891,0.085,-0.155
17:29:48.898,0.015,-0.115
17:29:48.906,-0.185,-0.175
17:29:48.914,-0.245,-0.225
17:29:48.922,-0.265,-0.275
17:29:48.930,-0.285,-0.235
17:29:48.938,-0.295,-0.295
17:29:48.945,-0.295,-0.295
17:29:48.953,-0.295,-0.285
17:29:48.961,-0.305,-0.235
17:29:48.969,-0.315,-0.305
17:29:48.977,-0.305,-0.295
17:29:48.984,-0.445,-0.275
17:29:48.992,-0.735,-0.225
17:29:49.000,-0.475,-0.055
17:29:49.008,0.705,-0.075
17:29:49.016,1.645,-0.175
17:29:49.023,0.375,-0.675
17:29:49.031,-1.355,-1.605
17:29:49.039,-1.625,-2.005
17:29:49.047,-1.075,-1.695
17:29:49.055,-0.545,-0.965
17:29:49.063,-0.305,-0.325
17:29:49.070,-0.235,-0.205
17:29:49.078,-0.215,-0.125
17:29:49.086,-0.195,-0.055
17:29:49.094,-0.185,-0.075
17:29:49.102,-0.165,-0.135
17:29:49.109,-0.125,-0.065
17:29:49.117,-0.105,-0.055
17:29:49.125,-0.075,-0.045
17:29:49.133,-0.065,-0.035
17:29:49.141,0.005,-0.005
17:29:49.148,0.035,0.035
17:29:49.156,0.055,0.005
17:29:49.164,0.115,0.085
17:29:49.172,0.175,0.145
17:29:49.180,0.295,0.175
17:29:49.188,0.365,0.235
17:29:49.195,0.455,0.315
17:29:49.203,0.505,0.385
17:29:49.211,0.545,0.395
17:29:49.219,0.545,0.355
17:29:49.227,0.505,0.375
17:29:49.234,0.415,0.355
17:29:49.242,0.335,0.215
17:29:49.250,0.165,0.105
17:29:49.258,0.025,-0.015
17:29:49.266,-0.075,-0.085
17:29:49.273,-0.145,-0.145
17:29:49.281,-0.195,-0.215
17:29:49.289,-0.225,-0.225
17:29:49.297,-0.225,-0.225
17:29:49.305,-0.215,-0.245
17:29:49.313,-0.215,-0.265
17:29:49.320,-0.225,-0.235
17:29:49.328,-0.225,-0.265
17:29:49.336,-0.215,-0.265
17:29:49.344,-0.195,-0.245
17:29:49.352,-0.195,-0.265
17:29:49.359,-0.195,-0.225
17:29:49.367,-0.195,-0.235
17:29:49.375,-0.165,-0.205
17:29:49.383,-0.115,-0.215
17:29:49.391,-0.025,-0.135
17:29:49.398,-0.025,-0.145
17:29:49.406,-0.065,-0.135
17:29:49.414,0.045,-0.145
17:29:49.422,0.095,-0.085
17:29:49.430,-0.005,-0.115
17:29:49.438,0.025,-0.215
17:29:49.445,0.045,-0.175
17:29:49.453,-0.085,-0.175
17:29:49.461,-0.285,-0.245
17:29:49.469,-0.295,-0.325
17:29:49.477,-0.275,-0.295
17:29:49.484,-0.305,-0.305
17:29:49.492,-0.295,-0.305
17:29:49.500,-0.295,-0.275
17:29:49.508,-0.275,-0.355
17:29:49.516,-0.275,-0.335
17:29:49.523,-0.285,-0.315
17:29:49.531,-0.305,-0.325
17:29:49.539,-0.605,-0.295
17:29:49.547,-0.635,-0.155
17:29:49.555,0.045,-0.005
17:29:49.563,1.425,-0.065
17:29:49.570,1.705,-0.405
17:29:49.578,-0.135,-1.295
17:29:49.586,-1.495,-1.935
17:29:49.594,-1.545,-2.085
17:29:49.602,-0.675,-1.615
17:29:49.609,-0.285,-0.715
17:29:49.617,-0.215,-0.245
17:29:49.625,-0.175,-0.185
17:29:49.633,-0.145,-0.075
17:29:49.641,-0.155,-0.095
17:29:49.648,-0.115,-0.105
17:29:49.656,-0.085,-0.075
17:29:49.664,-0.065,-0.045
17:29:49.672,-0.035,-0.015
17:29:49.680,-0.005,-0.005
17:29:49.688,0.015,0.035
17:29:49.695,0.045,0.045
17:29:49.703,0.095,0.085
17:29:49.711,0.135,0.155
17:29:49.719,0.185,0.165
17:29:49.727,0.275,0.225
17:29:49.734,0.345,0.305
17:29:49.742,0.435,0.375
17:29:49.750,0.555,0.455
17:29:49.758,0.605,0.485
17:29:49.766,0.625,0.485
17:29:49.773,0.665,0.515
17:29:49.781,0.625,0.495
17:29:49.789,0.555,0.455
17:29:49.797,0.405,0.355
17:29:49.805,0.245,0.235
17:29:49.813,0.105,0.105
17:29:49.820,0.035,0.015
17:29:49.828,-0.045,-0.035
17:29:49.836,-0.125,-0.095
17:29:49.844,-0.125,-0.125
17:29:49.852,-0.115,-0.185
17:29:49.859,-0.125,-0.205
17:29:49.867,-0.135,-0.165
17:29:49.875,-0.115,-0.155
17:29:49.883,-0.125,-0.155
17:29:49.891,-0.135,-0.135
17:29:49.898,-0.105,-0.135
17:29:49.906,-0.125,-0.125
17:29:49.914,-0.125,-0.115
17:29:49.922,-0.085,-0.095
17:29:49.930,-0.095,-0.075
17:29:49.938,-0.075,-0.115
17:29:49.945,-0.035,-0.045
17:29:49.953,-0.045,-0.125
17:29:49.961,-0.035,-0.165
17:29:49.969,0.055,-0.085
17:29:49.977,0.115,-0.015
17:29:49.984,0.095,0.025
17:29:49.992,0.155,0.015
17:29:50.000,0.265,0.065
17:29:50.008,0.165,0.085
17:29:50.016,0.175,-0.025
17:29:50.023,0.205,-0.045
17:29:50.031,0.115,-0.035
17:29:50.039,-0.095,-0.145
17:29:50.047,-0.125,-0.185
17:29:50.055,-0.145,-0.175
17:29:50.063,-0.145,-0.185
17:29:50.070,-0.165,-0.165
17:29:50.078,-0.145,-0.155
17:29:50.086,-0.155,-0.135
17:29:50.094,-0.195,-0.125
17:29:50.102,-0.155,-0.145
17:29:50.109,-0.135,-0.155
17:29:50.117,-0.285,-0.165
17:29:50.125,-0.505,-0.075
17:29:50.133,-0.225,0.165
17:29:50.141,0.945,0.155
17:29:50.148,1.965,-0.005
17:29:50.156,1.255,-0.465
17:29:50.164,-0.885,-1.425
17:29:50.172,-1.595,-2.045
17:29:50.180,-1.115,-1.835
17:29:50.188,-0.435,-1.105
17:29:50.195,-0.185,-0.305
17:29:50.203,-0.105,-0.035
17:29:50.211,-0.095,0.035
17:29:50.219,-0.065,0.075
17:29:50.227,-0.045,0.125
17:29:50.234,-0.015,0.055
17:29:50.242,-0.015,0.085
17:29:50.250,0.045,0.135
17:29:50.258,0.045,0.095
17:29:50.266,0.075,0.145
17:29:50.273,0.115,0.165
17:29:50.281,0.115,0.195
17:29:50.289,0.135,0.205
17:29:50.297,0.235,0.255
17:29:50.305,0.245,0.305
17:29:50.313,0.335,0.355
17:29:50.320,0.455,0.425
17:29:50.328,0.485,0.525
17:29:50.336,0.605,0.575
17:29:50.344,0.685,0.625
17:29:50.352,0.685,0.635
17:29:50.359,0.735,0.685
17:29:50.367,0.655,0.635
17:29:50.375,0.525,0.505
17:29:50.383,0.395,0.405
17:29:50.391,0.255,0.365
17:29:50.398,0.125,0.155
17:29:50.406,-0.045,0.085
17:29:50.414,-0.135,0.025
17:29:50.422,-0.155,-0.005
17:29:50.430,-0.145,-0.035
17:29:50.438,-0.195,-0.045
17:29:50.445,-0.185,-0.055
17:29:50.453,-0.195,-0.075
17:29:50.461,-0.225,-0.055
17:29:50.469,-0.215,-0.025
17:29:50.477,-0.195,-0.125
17:29:50.484,-0.165,-0.115
17:29:50.492,-0.155,-0.095
17:29:50.500,-0.205,-0.045
17:29:50.508,-0.165,-0.095
17:29:50.516,-0.165,-0.035
17:29:50.523,-0.125,-0.055
17:29:50.531,-0.145,-0.075
17:29:50.539,-0.135,-0.055
17:29:50.547,-0.145,-0.045
17:29:50.555,-0.135,-0.075
17:29:50.563,-0.115,-0.065
17:29:50.570,-0.045,-0.005
17:29:50.578,-0.015,0.025
17:29:50.586,-0.005,0.025
17:29:50.594,0.055,0.035
17:29:50.602,0.115,0.065
17:29:50.609,0.085,0.125
17:29:50.617,0.085,0.025
17:29:50.625,0.125,-0.095
17:29:50.633,0.005,-0.085
17:29:50.641,-0.205,-0.085
17:29:50.648,-0.225,-0.175
17:29:50.656,-0.235,-0.155
17:29:50.664,-0.275,-0.185
17:29:50.672,-0.265,-0.165
17:29:50.680,-0.285,-0.145
17:29:50.688,-0.235,-0.165
17:29:50.695,-0.215,-0.145
17:29:50.703,-0.245,-0.175
17:29:50.711,-0.245,-0.165
17:29:50.719,-0.455,-0.205
17:29:50.727,-0.585,-0.045
17:29:50.734,0.035,0.165
17:29:50.742,1.445,0.075
17:29:50.750,1.755,-0.065
17:29:50.758,-0.235,-0.865
17:29:50.766,-1.535,-1.705
17:29:50.773,-1.515,-1.915
17:29:50.781,-0.735,-1.455
17:29:50.789,-0.335,-0.555
17:29:50.797,-0.205,-0.135
17:29:50.805,-0.135,-0.055
17:29:50.813,-0.135,-0.015
17:29:50.820,-0.115,-0.005
17:29:50.828,-0.105,0.045
17:29:50.836,-0.065,0.045
17:29:50.844,-0.005,0.035
17:29:50.852,0.015,-0.025
17:29:50.859,0.015,0.025
17:29:50.867,0.035,0.105
17:29:50.875,0.065,0.035
17:29:50.883,0.115,0.125
17:29:50.891,0.145,0.165
17:29:50.898,0.205,0.205
17:29:50.906,0.285,0.255
17:29:50.914,0.365,0.325
17:29:50.922,0.445,0.325
17:29:50.930,0.545,0.425
17:29:50.938,0.645,0.495
17:29:50.945,0.705,0.485
17:29:50.953,0.705,0.485
17:29:50.961,0.685,0.505
17:29:50.969,0.595,0.415
17:29:50.977,0.435,0.365
17:29:50.984,0.285,0.295
17:29:50.992,0.165,0.205
17:29:51.000,0.025,0.035
17:29:51.008,-0.045,-0.025
17:29:51.016,-0.145,-0.065
17:29:51.023,-0.195,-0.105
17:29:51.031,-0.205,-0.145
17:29:51.039,-0.215,-0.195
17:29:51.047,-0.225,-0.175
17:29:51.055,-0.225,-0.165
17:29:51.063,-0.215,-0.185
17:29:51.070,-0.235,-0.165
17:29:51.078,-0.205,-0.155
17:29:51.086,-0.235,-0.175
17:29:51.094,-0.235,-0.185
17:29:51.102,-0.195,-0.145
17:29:51.109,-0.185,-0.115
17:29:51.117,-0.205,-0.125
17:29:51.125,-0.225,-0.155
17:29:51.133,-0.215,-0.155
17:29:51.141,-0.195,-0.155
17:29:51.148,-0.215,-0.145
17:29:51.156,-0.235,-0.125
17:29:51.164,-0.205,-0.125
17:29:51.172,-0.215,-0.175
17:29:51.180,-0.235,-0.165
17:29:51.188,-0.205,-0.165
17:29:51.195,-0.205,-0.095
17:29:51.203,-0.245,-0.175
17:29:51.211,-0.205,-0.205
17:29:51.219,-0.115,-0.135
17:29:51.227,-0.085,-0.085
17:29:51.234,-0.085,-0.075
17:29:51.242,0.015,-0.045
17:29:51.250,0.045,-0.015
17:29:51.258,-0.005,-0.025
17:29:51.266,0.035,-0.145
17:29:51.273,0.035,-0.065
17:29:51.281,-0.145,-0.075
17:29:51.289,-0.295,-0.215
17:29:51.297,-0.285,-0.215
17:29:51.305,-0.355,-0.185
17:29:51.313,-0.365,-0.275
17:29:51.320,-0.355,-0.265
17:29:51.328,-0.355,-0.225
17:29:51.336,-0.345,-0.215
17:29:51.344,-0.355,-0.225
17:29:51.352,-0.325,-0.215
17:29:51.359,-0.385,-0.205
17:29:51.367,-0.635,-0.175
17:29:51.375,-0.505,0.115
17:29:51.383,0.375,0.175
17:29:51.391,1.675,0.055
17:29:51.398,1.145,-0.585
17:29:51.406,-1.045,-1.555
17:29:51.414,-1.865,-2.165
17:29:51.422,-1.285,-1.945
17:29:51.430,-0.615,-1.075
17:29:51.438,-0.425,-0.325
17:29:51.445,-0.315,-0.155
17:29:51.453,-0.285,-0.065
17:29:51.461,-0.255,-0.025
17:29:51.469,-0.235,-0.015
17:29:51.477,-0.225,0.015
17:29:51.484,-0.205,0.065
17:29:51.492,-0.165,0.075
17:29:51.500,-0.145,0.005
17:29:51.508,-0.095,0.055
17:29:51.516,-0.085,0.075
17:29:51.523,-0.065,0.135
17:29:51.531,-0.025,0.145
17:29:51.539,0.065,0.225
17:29:51.547,0.125,0.265
17:29:51.555,0.155,0.285
17:29:51.563,0.245,0.365
17:29:51.570,0.355,0.435
17:29:51.578,0.465,0.505
17:29:51.586,0.535,0.565
17:29:51.594,0.585,0.615
17:29:51.602,0.595,0.575
17:29:51.609,0.535,0.505
17:29:51.617,0.435,0.485
17:29:51.625,0.285,0.305
17:29:51.633,0.145,0.225
17:29:51.641,-0.035,0.115
17:29:51.648,-0.155,0.015
17:29:51.656,-0.255,-0.055
17:29:51.664,-0.295,-0.115
17:29:51.672,-0.325,-0.135
17:29:51.680,-0.325,-0.125
17:29:51.688,-0.415,-0.175
17:29:51.695,-0.385,-0.195
17:29:51.703,-0.355,-0.215
17:29:51.711,-0.365,-0.205
17:29:51.719,-0.385,-0.205
17:29:51.727,-0.375,-0.185
17:29:51.734,-0.375,-0.185
17:29:51.742,-0.355,-0.165
17:29:51.750,-0.365,-0.175
17:29:51.758,-0.355,-0.175
17:29:51.766,-0.325,-0.185
17:29:51.773,-0.335,-0.115
17:29:51.781,-0.335,-0.185
17:29:51.789,-0.335,-0.205
17:29:51.797,-0.335,-0.145
17:29:51.805,-0.315,-0.175
17:29:51.813,-0.335,-0.205
17:29:51.820,-0.335,-0.195
17:29:51.828,-0.355,-0.185
17:29:51.836,-0.345,-0.195
17:29:51.844,-0.345,-0.195
17:29:51.852,-0.335,-0.165
17:29:51.859,-0.345,-0.185
17:29:51.867,-0.365,-0.215
17:29:51.875,-0.375,-0.285
17:29:51.883,-0.365,-0.225
17:29:51.891,-0.345,-0.235
17:29:51.898,-0.295,-0.195
17:29:51.906,-0.195,-0.145
17:29:51.914,-0.215,-0.095
17:29:51.922,-0.205,-0.105
17:29:51.930,-0.065,-0.065
17:29:51.938,-0.125,-0.015
17:29:51.945,-0.115,-0.065
17:29:51.953,-0.045,-0.095
17:29:51.961,-0.155,-0.105
17:29:51.969,-0.375,-0.235
17:29:51.977,-0.415,-0.305
17:29:51.984,-0.455,-0.235
17:29:51.992,-0.445,-0.265
17:29:52.000,-0.435,-0.275
17:29:52.008,-0.435,-0.245
17:29:52.016,-0.425,-0.255
17:29:52.023,-0.445,-0.265
17:29:52.031,-0.455,-0.275
17:29:52.039,-0.435,-0.245
17:29:52.047,-0.575,-0.195
17:29:52.055,-0.725,-0.045
17:29:52.063,-0.175,0.135
17:29:52.070,1.185,0.075
17:29:52.078,1.685,-0.195
17:29:52.086,0.265,-1.015
17:29:52.094,-1.575,-1.845
17:29:52.102,-1.955,-2.195
17:29:52.109,-1.255,-1.775
17:29:52.117,-0.675,-0.905
17:29:52.125,-0.475,-0.305
17:29:52.133,-0.395,-0.105
17:29:52.141,-0.335,-0.045
17:29:52.148,-0.305,-0.025
17:29:52.156,-0.315,-0.025
17:29:52.164,-0.265,-0.025
17:29:52.172,-0.265,0.015
17:29:52.180,-0.235,-0.025
17:29:52.188,-0.205,0.025
17:29:52.195,-0.175,0.035
17:29:52.203,-0.175,0.075
17:29:52.211,-0.135,0.125
17:29:52.219,-0.055,0.125
17:29:52.227,-0.015,0.185
17:29:52.234,0.025,0.225
17:29:52.242,0.095,0.285
17:29:52.250,0.185,0.295
17:29:52.258,0.315,0.425
17:29:52.266,0.435,0.505
17:29:52.273,0.505,0.525
17:29:52.281,0.555,0.555
17:29:52.289,0.555,0.565
17:29:52.297,0.545,0.545
17:29:52.305,0.455,0.465
17:29:52.313,0.245,0.335
17:29:52.320,0.085,0.205
17:29:52.328,-0.055,0.125
17:29:52.336,-0.185,0.005
17:29:52.344,-0.265,-0.085
17:29:52.352,-0.325,-0.085
17:29:52.359,-0.375,-0.205
17:29:52.367,-0.385,-0.185
17:29:52.375,-0.415,-0.195
17:29:52.383,-0.385,-0.205
17:29:52.391,-0.435,-0.195
17:29:52.398,-0.435,-0.195
17:29:52.406,-0.435,-0.205
17:29:52.414,-0.405,-0.225
17:29:52.422,-0.405,-0.165
17:29:52.430,-0.415,-0.235
17:29:52.438,-0.415,-0.205
17:29:52.445,-0.405,-0.185
17:29:52.453,-0.375,-0.185
17:29:52.461,-0.385,-0.145
17:29:52.469,-0.405,-0.185
17:29:52.477,-0.375,-0.195
17:29:52.484,-0.375,-0.135
17:29:52.492,-0.365,-0.175
17:29:52.500,-0.385,-0.185
17:29:52.508,-0.365,-0.175
17:29:52.516,-0.385,-0.185
17:29:52.523,-0.375,-0.215
17:29:52.531,-0.395,-0.175
17:29:52.539,-0.415,-0.185
17:29:52.547,-0.405,-0.195
17:29:52.555,-0.395,-0.215
17:29:52.563,-0.415,-0.245
17:29:52.570,-0.405,-0.275
17:29:52.578,-0.395,-0.205
17:29:52.586,-0.395,-0.175
17:29:52.594,-0.445,-0.275
17:29:52.602,-0.435,-0.235
17:29:52.609,-0.415,-0.215
17:29:52.617,-0.415,-0.215
17:29:52.625,-0.415,-0.185
17:29:52.633,-0.305,-0.165
17:29:52.641,-0.245,-0.165
17:29:52.648,-0.305,-0.105
17:29:52.656,-0.185,-0.115
17:29:52.664,-0.125,-0.065
17:29:52.672,-0.195,-0.055
17:29:52.680,-0.155,-0.145
17:29:52.688,-0.135,-0.125
17:29:52.695,-0.275,-0.145
17:29:52.703,-0.445,-0.215
17:29:52.711,-0.455,-0.215
17:29:52.719,-0.435,-0.295
17:29:52.727,-0.475,-0.265
17:29:52.734,-0.445,-0.265
17:29:52.742,-0.455,-0.265
17:29:52.750,-0.475,-0.335
17:29:52.758,-0.445,-0.275
17:29:52.766,-0.435,-0.265
17:29:52.773,-0.425,-0.255
17:29:52.781,-0.595,-0.225
17:29:52.789,-0.695,-0.045
17:29:52.797,-0.125,0.145
17:29:52.805,1.165,0.065
17:29:52.813,1.645,-0.165
17:29:52.820,-0.105,-0.985
17:29:52.828,-1.685,-1.835
17:29:52.836,-1.785,-2.055
17:29:52.844,-1.065,-1.625
17:29:52.852,-0.645,-0.745
17:29:52.859,-0.465,-0.295
17:29:52.867,-0.375,-0.175
17:29:52.875,-0.285,-0.095
17:29:52.883,-0.295,-0.055
17:29:52.891,-0.275,-0.075
17:29:52.898,-0.235,-0.035
17:29:52.906,-0.225,-0.015
17:29:52.914,-0.175,-0.015
17:29:52.922,-0.165,0.005
17:29:52.930,-0.165,0.045
17:29:52.938,-0.125,0.075
17:29:52.945,-0.025,0.095
17:29:52.953,-0.035,0.065
17:29:52.961,0.005,0.135
17:29:52.969,0.095,0.215
17:29:52.977,0.145,0.235
17:29:52.984,0.285,0.325
17:29:52.992,0.375,0.395
17:29:53.000,0.475,0.495
17:29:53.008,0.555,0.485
17:29:53.016,0.625,0.545
17:29:53.023,0.645,0.535
17:29:53.031,0.615,0.475
17:29:53.039,0.525,0.455
17:29:53.047,0.395,0.345
17:29:53.055,0.195,0.235
17:29:53.063,0.055,0.125
17:29:53.070,-0.055,0.015
17:29:53.078,-0.165,-0.065
17:29:53.086,-0.245,-0.085
17:29:53.094,-0.295,-0.145
17:29:53.102,-0.315,-0.205
17:29:53.109,-0.315,-0.195
17:29:53.117,-0.315,-0.185
17:29:53.125,-0.355,-0.185
17:29:53.133,-0.325,-0.195
17:29:53.141,-0.325,-0.215
17:29:53.148,-0.345,-0.215
17:29:53.156,-0.315,-0.135
17:29:53.164,-0.325,-0.195
17:29:53.172,-0.325,-0.205
17:29:53.180,-0.285,-0.155
17:29:53.188,-0.285,-0.195
17:29:53.195,-0.295,-0.195
17:29:53.203,-0.295,-0.175
17:29:53.211,-0.255,-0.155
17:29:53.219,-0.285,-0.185
17:29:53.227,-0.275,-0.185
17:29:53.234,-0.245,-0.175
17:29:53.242,-0.265,-0.155
17:29:53.250,-0.235,-0.205
17:29:53.258,-0.295,-0.195
17:29:53.266,-0.265,-0.195
17:29:53.273,-0.265,-0.205
17:29:53.281,-0.295,-0.215
17:29:53.289,-0.295,-0.165
17:29:53.297,-0.265,-0.185
17:29:53.305,-0.245,-0.205
17:29:53.313,-0.265,-0.225
17:29:53.320,-0.255,-0.235
17:29:53.328,-0.195,-0.225
17:29:53.336,-0.295,-0.195
17:29:53.344,-0.285,-0.215
17:29:53.352,-0.245,-0.215
17:29:53.359,-0.205,-0.195
17:29:53.367,-0.225,-0.225
17:29:53.375,-0.255,-0.235
17:29:53.383,-0.205,-0.165
17:29:53.391,-0.125,-0.115
17:29:53.398,-0.045,-0.205
17:29:53.406,-0.105,-0.145
17:29:53.414,-0.005,-0.085
17:29:53.422,0.125,-0.045
17:29:53.430,0.025,-0.035
17:29:53.438,0.055,-0.135
17:29:53.445,0.055,-0.105
17:29:53.453,-0.005,-0.105
17:29:53.461,-0.215,-0.175
17:29:53.469,-0.205,-0.225
17:29:53.477,-0.205,-0.175
17:29:53.484,-0.205,-0.225
17:29:53.492,-0.185,-0.225
17:29:53.500,-0.195,-0.235
17:29:53.508,-0.165,-0.235
17:29:53.516,-0.175,-0.175
17:29:53.523,-0.165,-0.215
17:29:53.531,-0.165,-0.205
17:29:53.539,-0.285,-0.135
17:29:53.547,-0.415,0.055
17:29:53.555,0.175,0.185
17:29:53.563,1.475,0.135
17:29:53.570,1.875,-0.085
17:29:53.578,-0.055,-0.795
17:29:53.586,-1.465,-1.535
17:29:53.594,-1.495,-1.815
17:29:53.602,-0.905,-1.375
17:29:53.609,-0.425,-0.655
17:29:53.617,-0.165,-0.205
17:29:53.625,-0.035,-0.085
17:29:53.633,-0.015,0.025
17:29:53.641,0.005,0.005
17:29:53.648,0.055,0.045
17:29:53.656,0.065,0.075
17:29:53.664,0.095,0.055
17:29:53.672,0.115,0.035
17:29:53.680,0.135,0.075
17:29:53.688,0.175,0.095
17:29:53.695,0.205,0.095
17:29:53.703,0.245,0.125
17:29:53.711,0.285,0.195
17:29:53.719,0.365,0.205
17:29:53.727,0.415,0.275
17:29:53.734,0.475,0.325
17:29:53.742,0.565,0.375
17:29:53.750,0.675,0.425
17:29:53.758,0.815,0.515
17:29:53.766,0.885,0.565
17:29:53.773,0.905,0.575
17:29:53.781,0.965,0.535
17:29:53.789,0.945,0.535
17:29:53.797,0.855,0.435
17:29:53.805,0.655,0.375
17:29:53.813,0.515,0.285
17:29:53.820,0.355,0.215
17:29:53.828,0.225,0.145
17:29:53.836,0.135,0.095
17:29:53.844,0.085,0.035
17:29:53.852,0.045,0.035
17:29:53.859,0.035,0.005
17:29:53.867,0.035,-0.005
17:29:53.875,-0.025,-0.005
17:29:53.883,0.005,-0.005
17:29:53.891,-0.025,0.025
17:29:53.898,-0.015,0.005
17:29:53.906,0.015,-0.015
17:29:53.914,0.045,-0.005
17:29:53.922,0.025,0.015
17:29:53.930,0.015,0.035
17:29:53.938,0.055,0.055
17:29:53.945,0.055,0.065
17:29:53.953,0.035,0.055
17:29:53.961,0.075,0.065
17:29:53.969,0.075,0.075
17:29:53.977,0.045,0.085
17:29:53.984,0.065,0.075
17:29:53.992,0.065,0.085
17:29:54.000,0.085,0.065
17:29:54.008,0.095,0.145
17:29:54.016,0.065,0.045
17:29:54.023,0.045,0.015
17:29:54.031,0.035,0.035
17:29:54.039,0.055,0.075
17:29:54.047,0.075,0.015
17:29:54.055,0.045,0.025
17:29:54.063,0.055,0.025
17:29:54.070,0.065,0.035
17:29:54.078,0.055,0.055
17:29:54.086,0.035,0.055
17:29:54.094,0.045,0.015
17:29:54.102,0.075,0.045
17:29:54.109,0.045,0.065
17:29:54.117,0.085,0.055
17:29:54.125,0.065,0.055
17:29:54.133,0.075,0.045
17:29:54.141,0.145,0.065
17:29:54.148,0.205,0.115
17:29:54.156,0.195,0.145
17:29:54.164,0.225,0.155
17:29:54.172,0.295,0.155
17:29:54.180,0.335,0.175
17:29:54.188,0.275,0.105
17:29:54.195,0.315,0.115
17:29:54.203,0.305,0.165
17:29:54.211,0.185,0.125
17:29:54.219,0.065,0.015
17:29:54.227,0.065,-0.005
17:29:54.234,0.055,0.015
17:29:54.242,0.065,-0.025
17:29:54.250,0.025,0.005
17:29:54.258,0.065,0.015
17:29:54.266,0.075,0.025
17:29:54.273,0.045,0.035
17:29:54.281,0.085,0.025
17:29:54.289,0.085,0.055
17:29:54.297,-0.095,0.055
17:29:54.305,-0.155,0.285
17:29:54.313,0.515,0.395
17:29:54.320,1.925,0.335
17:29:54.328,2.025,0.095
17:29:54.336,-0.275,-0.815
17:29:54.344,-1.415,-1.625
17:29:54.352,-1.225,-1.655
17:29:54.359,-0.435,-0.925
17:29:54.367,-0.055,-0.215
17:29:54.375,0.055,0.045
17:29:54.383,0.135,0.145
17:29:54.391,0.195,0.225
17:29:54.398,0.245,0.195
17:29:54.406,0.255,0.185
17:29:54.414,0.305,0.195
17:29:54.422,0.265,0.215
17:29:54.430,0.255,0.235
17:29:54.438,0.295,0.255
17:29:54.445,0.345,0.295
17:29:54.453,0.345,0.295
17:29:54.461,0.395,0.305
17:29:54.469,0.435,0.325
17:29:54.477,0.455,0.405
17:29:54.484,0.545,0.405
17:29:54.492,0.595,0.485
17:29:54.500,0.695,0.585
17:29:54.508,0.805,0.585
17:29:54.516,0.935,0.635
17:29:54.523,1.015,0.735
17:29:54.531,1.045,0.725
17:29:54.539,1.035,0.675
17:29:54.547,1.005,0.685
17:29:54.555,0.915,0.575
17:29:54.563,0.745,0.495
17:29:54.570,0.555,0.385
17:29:54.578,0.365,0.255
17:29:54.586,0.275,0.195
17:29:54.594,0.185,0.075
17:29:54.602,0.105,0.005
17:29:54.609,0.075,0.005
17:29:54.617,0.105,0.005
17:29:54.625,0.035,0.025
17:29:54.633,0.005,-0.035
17:29:54.641,0.035,-0.035
17:29:54.648,0.045,-0.025
17:29:54.656,0.045,-0.015
17:29:54.664,-0.015,-0.015
17:29:54.672,0.005,-0.015
17:29:54.680,0.045,0.005
17:29:54.688,0.045,-0.015
17:29:54.695,0.055,-0.035
17:29:54.703,0.055,-0.015
17:29:54.711,0.045,0.035
17:29:54.719,0.065,-0.025
17:29:54.727,0.055,-0.015
17:29:54.734,0.075,0.005
17:29:54.742,0.055,-0.005
17:29:54.750,0.055,0.005
17:29:54.758,0.025,0.035
17:29:54.766,0.055,0.005
17:29:54.773,0.045,-0.055
17:29:54.781,0.045,-0.055
17:29:54.789,0.025,-0.095
17:29:54.797,0.045,-0.085
17:29:54.805,0.025,-0.075
17:29:54.813,0.015,-0.075
17:29:54.820,0.025,-0.065
17:29:54.828,0.015,-0.055
17:29:54.836,0.015,-0.085
17:29:54.844,0.015,-0.075
17:29:54.852,0.005,-0.075
17:29:54.859,0.015,-0.075
17:29:54.867,0.075,-0.055
17:29:54.875,0.125,-0.055
17:29:54.883,0.145,-0.025
17:29:54.891,0.175,0.035
17:29:54.898,0.245,-0.005
17:29:54.906,0.255,0.015
17:29:54.914,0.245,-0.005
17:29:54.922,0.245,-0.035
17:29:54.930,0.285,-0.025
17:29:54.938,0.195,-0.035
17:29:54.945,0.015,-0.095
17:29:54.953,-0.015,-0.135
17:29:54.961,-0.025,-0.135
17:29:54.969,-0.015,-0.125
17:29:54.977,-0.005,-0.125
17:29:54.984,0.035,-0.115
17:29:54.992,0.025,-0.145
17:29:55.000,0.005,-0.115
17:29:55.008,0.045,-0.135
17:29:55.016,0.015,-0.135
17:29:55.023,-0.165,-0.095
17:29:55.031,-0.195,0.135
17:29:55.039,0.625,0.235
17:29:55.047,1.985,0.185
17:29:55.055,1.825,-0.055
17:29:55.063,-0.275,-0.975
17:29:55.070,-1.435,-1.695
17:29:55.078,-1.315,-1.825
17:29:55.086,-0.525,-1.225
17:29:55.094,-0.135,-0.455
17:29:55.102,0.005,-0.185
17:29:55.109,0.045,-0.065
17:29:55.117,0.105,0.025
17:29:55.125,0.115,0.005
17:29:55.133,0.155,0.015
17:29:55.141,0.185,0.065
17:29:55.148,0.175,0.075
17:29:55.156,0.185,0.065
17:29:55.164,0.195,0.085
17:29:55.172,0.235,0.115
17:29:55.180,0.255,0.125
17:29:55.188,0.265,0.145
17:29:55.195,0.315,0.165
17:29:55.203,0.375,0.215
17:29:55.211,0.425,0.245
17:29:55.219,0.475,0.305
17:29:55.227,0.585,0.385
17:29:55.234,0.665,0.455
17:29:55.242,0.765,0.485
17:29:55.250,0.885,0.585
17:29:55.258,0.955,0.585
17:29:55.266,0.945,0.545
17:29:55.273,0.925,0.545
17:29:55.281,0.875,0.505
17:29:55.289,0.695,0.395
17:29:55.297,0.495,0.255
17:29:55.305,0.305,0.155
17:29:55.313,0.175,0.055
17:29:55.320,0.075,-0.015
17:29:55.328,0.025,-0.095
17:29:55.336,0.005,-0.105
17:29:55.344,-0.015,-0.095
17:29:55.352,-0.045,-0.145
17:29:55.359,-0.035,-0.155
17:29:55.367,-0.035,-0.145
17:29:55.375,-0.055,-0.145
17:29:55.383,-0.055,-0.155
17:29:55.391,-0.055,-0.155
17:29:55.398,-0.045,-0.115
17:29:55.406,-0.075,-0.155
17:29:55.414,-0.035,-0.165
17:29:55.422,-0.025,-0.115
17:29:55.430,-0.035,-0.135
17:29:55.438,-0.045,-0.115
17:29:55.445,-0.005,-0.125
17:29:55.453,-0.025,-0.115
17:29:55.461,-0.015,-0.145
17:29:55.469,-0.015,-0.095
17:29:55.477,-0.015,-0.095
17:29:55.484,-0.035,-0.105
17:29:55.492,-0.035,-0.135
17:29:55.500,-0.025,-0.205
17:29:55.508,-0.035,-0.165
17:29:55.516,-0.065,-0.175
17:29:55.523,-0.045,-0.165
17:29:55.531,-0.045,-0.165
17:29:55.539,-0.045,-0.175
17:29:55.547,-0.075,-0.165
17:29:55.555,-0.065,-0.175
17:29:55.563,-0.045,-0.185
17:29:55.570,-0.045,-0.165
17:29:55.578,-0.015,-0.185
17:29:55.586,0.055,-0.125
17:29:55.594,0.095,-0.065
17:29:55.602,0.065,-0.035
17:29:55.609,0.115,-0.045
17:29:55.617,0.215,0.015
17:29:55.625,0.165,-0.095
17:29:55.633,0.165,-0.145
17:29:55.641,0.195,-0.075
17:29:55.648,0.115,-0.145
17:29:55.656,-0.105,-0.145
17:29:55.664,-0.115,-0.205
17:29:55.672,-0.105,-0.215
17:29:55.680,-0.165,-0.225
17:29:55.688,-0.145,-0.235
17:29:55.695,-0.115,-0.205
17:29:55.703,-0.125,-0.185
17:29:55.711,-0.115,-0.205
17:29:55.719,-0.145,-0.215
17:29:55.727,-0.115,-0.255
17:29:55.734,-0.185,-0.185
17:29:55.742,-0.395,-0.065
17:29:55.750,-0.255,0.125
17:29:55.758,0.545,0.205
17:29:55.766,1.855,0.075
17:29:55.773,1.595,-0.425
17:29:55.781,-0.645,-1.345
17:29:55.789,-1.705,-2.055
17:29:55.797,-1.375,-1.925
17:29:55.805,-0.595,-1.255
17:29:55.813,-0.265,-0.495
17:29:55.820,-0.135,-0.205
17:29:55.828,-0.105,-0.075
17:29:55.836,-0.075,-0.015
17:29:55.844,-0.055,-0.025
17:29:55.852,-0.015,0.055
17:29:55.859,-0.005,0.045
17:29:55.867,0.015,0.005
17:29:55.875,0.035,0.005
17:29:55.883,0.055,0.045
17:29:55.891,0.065,0.095
17:29:55.898,0.095,0.085
17:29:55.906,0.105,0.135
17:29:55.914,0.145,0.145
17:29:55.922,0.205,0.195
17:29:55.930,0.265,0.255
17:29:55.938,0.295,0.305
17:29:55.945,0.405,0.365
17:29:55.953,0.515,0.475
17:29:55.961,0.645,0.475
17:29:55.969,0.725,0.555
17:29:55.977,0.745,0.585
17:29:55.984,0.785,0.575
17:29:55.992,0.755,0.575
17:29:56.000,0.655,0.455
17:29:56.008,0.525,0.385
17:29:56.016,0.345,0.245
17:29:56.023,0.165,0.095
17:29:56.031,0.015,-0.015
17:29:56.039,-0.095,-0.085
17:29:56.047,-0.145,-0.145
17:29:56.055,-0.175,-0.175
17:29:56.063,-0.215,-0.135
17:29:56.070,-0.205,-0.185
17:29:56.078,-0.235,-0.185
17:29:56.086,-0.245,-0.225
17:29:56.094,-0.255,-0.205
17:29:56.102,-0.245,-0.255
17:29:56.109,-0.245,-0.155
17:29:56.117,-0.225,-0.155
17:29:56.125,-0.235,-0.245
17:29:56.133,-0.235,-0.235
17:29:56.141,-0.205,-0.155
17:29:56.148,-0.215,-0.205
17:29:56.156,-0.195,-0.195
17:29:56.164,-0.205,-0.185
17:29:56.172,-0.225,-0.185
17:29:56.180,-0.225,-0.185
17:29:56.188,-0.225,-0.175
17:29:56.195,-0.215,-0.215
17:29:56.203,-0.225,-0.165
17:29:56.211,-0.215,-0.235
17:29:56.219,-0.205,-0.215
17:29:56.227,-0.225,-0.205
17:29:56.234,-0.235,-0.265
17:29:56.242,-0.295,-0.195
17:29:56.250,-0.245,-0.225
17:29:56.258,-0.245,-0.215
17:29:56.266,-0.255,-0.215
17:29:56.273,-0.145,-0.195
17:29:56.281,-0.085,-0.135
17:29:56.289,-0.115,-0.105
17:29:56.297,-0.085,-0.105
17:29:56.305,-0.005,-0.045
17:29:56.313,-0.035,-0.155
17:29:56.320,-0.075,-0.195
17:29:56.328,-0.005,-0.175
17:29:56.336,-0.055,-0.145
17:29:56.344,-0.285,-0.195
17:29:56.352,-0.335,-0.295
17:29:56.359,-0.335,-0.265
17:29:56.367,-0.335,-0.275
17:29:56.375,-0.325,-0.265
17:29:56.383,-0.345,-0.265
17:29:56.391,-0.355,-0.285
17:29:56.398,-0.355,-0.275
17:29:56.406,-0.325,-0.225
17:29:56.414,-0.305,-0.255
17:29:56.422,-0.365,-0.285
17:29:56.430,-0.585,-0.235
17:29:56.438,-0.495,0.055
17:29:56.445,0.355,0.105
17:29:56.453,1.655,0.035
17:29:56.461,1.415,-0.465
17:29:56.469,-0.765,-1.395
17:29:56.477,-1.905,-2.065
17:29:56.484,-1.665,-2.065
17:29:56.492,-0.795,-1.445
17:29:56.500,-0.405,-0.575
17:29:56.508,-0.295,-0.195
17:29:56.516,-0.255,-0.095
17:29:56.523,-0.245,-0.055
17:29:56.531,-0.245,-0.085
17:29:56.539,-0.175,-0.055
17:29:56.547,-0.165,-0.055
17:29:56.555,-0.155,-0.055
17:29:56.563,-0.155,-0.015
17:29:56.570,-0.105,-0.005
17:29:56.578,-0.115,0.035
17:29:56.586,-0.065,0.045
17:29:56.594,-0.025,0.085
17:29:56.602,-0.005,0.095
17:29:56.609,0.045,0.155
17:29:56.617,0.075,0.205
17:29:56.625,0.145,0.215
17:29:56.633,0.235,0.295
17:29:56.641,0.355,0.385
17:29:56.648,0.465,0.445
17:29:56.656,0.525,0.455
17:29:56.664,0.585,0.525
17:29:56.672,0.605,0.505
17:29:56.680,0.565,0.485
17:29:56.688,0.515,0.435
17:29:56.695,0.385,0.345
17:29:56.703,0.165,0.235
17:29:56.711,-0.015,0.075
17:29:56.719,-0.115,-0.025
17:29:56.727,-0.195,-0.165
17:29:56.734,-0.285,-0.165
17:29:56.742,-0.335,-0.205
17:29:56.750,-0.375,-0.215
17:29:56.758,-0.335,-0.245
17:29:56.766,-0.345,-0.265
17:29:56.773,-0.375,-0.265
17:29:56.781,-0.365,-0.255
17:29:56.789,-0.345,-0.285
17:29:56.797,-0.355,-0.265
17:29:56.805,-0.345,-0.245
17:29:56.813,-0.325,-0.275
17:29:56.820,-0.345,-0.245
17:29:56.828,-0.325,-0.215
17:29:56.836,-0.325,-0.235
17:29:56.844,-0.325,-0.255
17:29:56.852,-0.315,-0.235
17:29:56.859,-0.315,-0.225
17:29:56.867,-0.315,-0.265
17:29:56.875,-0.315,-0.225
17:29:56.883,-0.325,-0.275
17:29:56.891,-0.325,-0.255
17:29:56.898,-0.315,-0.255
17:29:56.906,-0.335,-0.295
17:29:56.914,-0.315,-0.265
17:29:56.922,-0.315,-0.245
17:29:56.930,-0.325,-0.285
17:29:56.938,-0.245,-0.265
17:29:56.945,-0.145,-0.155
17:29:56.953,-0.185,-0.115
17:29:56.961,-0.135,-0.165
17:29:56.969,-0.075,-0.105
17:29:56.977,-0.065,-0.155
17:29:56.984,-0.105,-0.195
17:29:56.992,-0.065,-0.195
17:29:57.000,-0.115,-0.175
17:29:57.008,-0.355,-0.245
17:29:57.016,-0.395,-0.335
17:29:57.023,-0.385,-0.325
17:29:57.031,-0.385,-0.315
17:29:57.039,-0.375,-0.315
17:29:57.047,-0.405,-0.315
17:29:57.055,-0.405,-0.315
17:29:57.063,-0.405,-0.315
17:29:57.070,-0.395,-0.305
17:29:57.078,-0.375,-0.295
17:29:57.086,-0.405,-0.285
17:29:57.094,-0.615,-0.265
17:29:57.102,-0.485,-0.005
17:29:57.109,0.165,0.085
17:29:57.117,1.525,0.005
17:29:57.125,1.305,-0.395
17:29:57.133,-0.815,-1.475
17:29:57.141,-1.895,-2.145
17:29:57.148,-1.625,-2.165
17:29:57.156,-0.785,-1.515
17:29:57.164,-0.415,-0.615
17:29:57.172,-0.305,-0.245
17:29:57.180,-0.235,-0.115
17:29:57.188,-0.235,-0.135
17:29:57.195,-0.235,-0.085
17:29:57.203,-0.205,-0.085
17:29:57.211,-0.155,-0.045
17:29:57.219,-0.145,-0.025
17:29:57.227,-0.135,-0.035
17:29:57.234,-0.095,0.005
17:29:57.242,-0.075,0.005
17:29:57.250,-0.065,0.005
17:29:57.258,-0.025,0.065
17:29:57.266,0.045,0.095
17:29:57.273,0.055,0.145
17:29:57.281,0.115,0.185
17:29:57.289,0.195,0.245
17:29:57.297,0.285,0.305
17:29:57.305,0.415,0.405
17:29:57.313,0.485,0.455
17:29:57.320,0.555,0.505
17:29:57.328,0.605,0.485
17:29:57.336,0.605,0.505
17:29:57.344,0.565,0.515
17:29:57.352,0.505,0.405
17:29:57.359,0.385,0.345
17:29:57.367,0.205,0.215
17:29:57.375,0.065,0.115
17:29:57.383,-0.075,-0.005
17:29:57.391,-0.145,-0.085
17:29:57.398,-0.225,-0.125
17:29:57.406,-0.235,-0.235
17:29:57.414,-0.255,-0.215
17:29:57.422,-0.275,-0.225
17:29:57.430,-0.275,-0.225
17:29:57.438,-0.275,-0.215
17:29:57.445,-0.285,-0.205
17:29:57.453,-0.265,-0.215
17:29:57.461,-0.275,-0.205
17:29:57.469,-0.255,-0.215
17:29:57.477,-0.205,-0.165
17:29:57.484,-0.225,-0.165
17:29:57.492,-0.215,-0.205
17:29:57.500,-0.215,-0.215
17:29:57.508,-0.225,-0.175
17:29:57.516,-0.195,-0.175
17:29:57.523,-0.215,-0.175
17:29:57.531,-0.215,-0.205
17:29:57.539,-0.185,-0.165
17:29:57.547,-0.205,-0.145
17:29:57.555,-0.195,-0.185
17:29:57.563,-0.205,-0.215
17:29:57.570,-0.225,-0.175
17:29:57.578,-0.185,-0.175
17:29:57.586,-0.145,-0.145
17:29:57.594,-0.095,-0.175
17:29:57.602,-0.025,-0.115
17:29:57.609,-0.035,-0.045
17:29:57.617,0.005,-0.065
17:29:57.625,0.095,-0.025
17:29:57.633,0.045,-0.045
17:29:57.641,0.085,-0.115
17:29:57.648,0.085,-0.055
17:29:57.656,0.005,-0.075
17:29:57.664,-0.225,-0.125
17:29:57.672,-0.215,-0.245
17:29:57.680,-0.245,-0.225
17:29:57.688,-0.245,-0.245
17:29:57.695,-0.235,-0.205
17:29:57.703,-0.235,-0.195
17:29:57.711,-0.225,-0.185
17:29:57.719,-0.245,-0.215
17:29:57.727,-0.205,-0.195
17:29:57.734,-0.175,-0.175
17:29:57.742,-0.315,-0.155
17:29:57.750,-0.525,-0.065
17:29:57.758,-0.145,0.205
17:29:57.766,1.175,0.215
17:29:57.773,1.765,0.005
17:29:57.781,0.455,-0.885
17:29:57.789,-1.335,-1.745
17:29:57.797,-1.705,-2.145
17:29:57.805,-1.025,-1.835
17:29:57.813,-0.455,-1.005
17:29:57.820,-0.215,-0.285
17:29:57.828,-0.135,-0.035
17:29:57.836,-0.115,0.065
17:29:57.844,-0.105,0.085
17:29:57.852,-0.065,0.085
17:29:57.859,-0.055,0.085
17:29:57.867,-0.025,0.105
17:29:57.875,0.025,0.115
17:29:57.883,0.005,0.135
17:29:57.891,0.045,0.165
17:29:57.898,0.085,0.215
17:29:57.906,0.125,0.225
17:29:57.914,0.155,0.275
17:29:57.922,0.185,0.315
17:29:57.930,0.265,0.385
17:29:57.938,0.345,0.425
17:29:57.945,0.425,0.465
17:29:57.953,0.515,0.615
17:29:57.961,0.585,0.575
17:29:57.969,0.645,0.645
17:29:57.977,0.675,0.695
17:29:57.984,0.675,0.685
17:29:57.992,0.635,0.685
17:29:58.000,0.575,0.605
17:29:58.008,0.455,0.465
17:29:58.016,0.315,0.345
17:29:58.023,0.175,0.245
17:29:58.031,0.105,0.185
17:29:58.039,0.015,0.045
17:29:58.047,-0.025,-0.005
17:29:58.055,-0.095,-0.035
17:29:58.063,-0.095,-0.075
17:29:58.070,-0.105,-0.065
17:29:58.078,-0.125,-0.055
17:29:58.086,-0.115,-0.075
17:29:58.094,-0.115,-0.025
17:29:58.102,-0.105,-0.085
17:29:58.109,-0.095,-0.095
17:29:58.117,-0.085,-0.065
17:29:58.125,-0.095,-0.055
17:29:58.133,-0.065,-0.015
17:29:58.141,-0.065,-0.085
17:29:58.148,-0.075,-0.065
17:29:58.156,-0.075,-0.045
17:29:58.164,-0.075,-0.055
17:29:58.172,-0.075,-0.045
17:29:58.180,-0.075,-0.075
17:29:58.188,-0.085,-0.065
17:29:58.195,-0.065,-0.065
17:29:58.203,-0.105,-0.035
17:29:58.211,-0.095,-0.065
17:29:58.219,-0.025,-0.035
17:29:58.227,0.055,-0.025
17:29:58.234,0.055,0.065
17:29:58.242,0.065,0.085
17:29:58.250,0.165,0.045
17:29:58.258,0.175,0.035
17:29:58.266,0.125,0.025
17:29:58.273,0.185,-0.035
17:29:58.281,0.155,0.025
17:29:58.289,-0.095,0.005
17:29:58.297,-0.165,-0.105
17:29:58.305,-0.155,-0.155
17:29:58.313,-0.185,-0.135
17:29:58.320,-0.185,-0.125
17:29:58.328,-0.185,-0.125
17:29:58.336,-0.185,-0.115
17:29:58.344,-0.185,-0.135
17:29:58.352,-0.195,-0.115
17:29:58.359,-0.165,-0.115
17:29:58.367,-0.205,-0.115
17:29:58.375,-0.445,-0.095
17:29:58.383,-0.355,0.135
17:29:58.391,0.505,0.225
17:29:58.398,1.715,0.075
17:29:58.406,1.215,-0.325
17:29:58.414,-0.905,-1.425
17:29:58.422,-1.695,-2.065
17:29:58.430,-1.095,-1.875
17:29:58.438,-0.445,-1.015
17:29:58.445,-0.215,-0.295
17:29:58.453,-0.095,-0.025
17:29:58.461,-0.105,0.035
17:29:58.469,-0.085,0.075
17:29:58.477,-0.095,0.085
17:29:58.484,-0.065,0.065
17:29:58.492,-0.035,0.145
17:29:58.500,-0.035,0.125
17:29:58.508,0.015,0.145
17:29:58.516,0.035,0.125
17:29:58.523,0.045,0.175
17:29:58.531,0.075,0.215
17:29:58.539,0.115,0.265
17:29:58.547,0.145,0.245
17:29:58.555,0.185,0.345
17:29:58.563,0.255,0.365
17:29:58.570,0.305,0.445
17:29:58.578,0.385,0.525
17:29:58.586,0.495,0.615
17:29:58.594,0.545,0.615
17:29:58.602,0.535,0.645
17:29:58.609,0.575,0.665
17:29:58.617,0.555,0.655
17:29:58.625,0.485,0.585
17:29:58.633,0.405,0.525
17:29:58.641,0.255,0.405
17:29:58.648,0.135,0.265
17:29:58.656,0.055,0.145
17:29:58.664,-0.045,0.065
17:29:58.672,-0.075,0.015
17:29:58.680,-0.145,-0.045
17:29:58.688,-0.195,-0.095
17:29:58.695,-0.175,-0.145
17:29:58.703,-0.165,-0.105
17:29:58.711,-0.185,-0.105
17:29:58.719,-0.195,-0.115
17:29:58.727,-0.175,-0.095
17:29:58.734,-0.175,-0.075
17:29:58.742,-0.155,-0.075
17:29:58.750,-0.145,-0.115
17:29:58.758,-0.155,-0.075
17:29:58.766,-0.145,-0.075
17:29:58.773,-0.155,-0.145
17:29:58.781,-0.125,-0.105
17:29:58.789,-0.165,-0.075
17:29:58.797,-0.155,-0.095
17:29:58.805,-0.175,-0.105
17:29:58.813,-0.205,-0.095
17:29:58.820,-0.175,-0.135
17:29:58.828,-0.145,-0.115
17:29:58.836,-0.055,-0.075
17:29:58.844,-0.045,0.005
17:29:58.852,-0.035,-0.025
17:29:58.859,0.005,-0.015
17:29:58.867,0.095,0.005
17:29:58.875,0.005,-0.005
17:29:58.883,0.055,-0.105
17:29:58.891,0.075,-0.045
17:29:58.898,-0.055,-0.055
17:29:58.906,-0.285,-0.135
17:29:58.914,-0.305,-0.225
17:29:58.922,-0.285,-0.195
17:29:58.930,-0.295,-0.185
17:29:58.938,-0.305,-0.235
17:29:58.945,-0.295,-0.195
17:29:58.953,-0.275,-0.205
17:29:58.961,-0.295,-0.205
17:29:58.969,-0.285,-0.185
17:29:58.977,-0.275,-0.225
17:29:58.984,-0.475,-0.205
17:29:58.992,-0.645,-0.075
17:29:59.000,-0.235,0.115
17:29:59.008,0.955,0.105
17:29:59.016,1.485,-0.115
17:29:59.023,0.015,-0.965
17:29:59.031,-1.475,-1.905
17:29:59.039,-1.635,-2.225
17:29:59.047,-0.865,-1.755
17:29:59.055,-0.435,-0.785
17:29:59.063,-0.275,-0.265
17:29:59.070,-0.245,-0.085
17:29:59.078,-0.215,0.005
17:29:59.086,-0.205,0.005
17:29:59.094,-0.215,0.005
17:29:59.102,-0.165,0.055
17:29:59.109,-0.165,0.045
17:29:59.117,-0.155,0.085
17:29:59.125,-0.105,0.085
17:29:59.133,-0.085,0.105
17:29:59.141,-0.065,0.135
17:29:59.148,-0.045,0.175
17:29:59.156,0.005,0.155
17:29:59.164,0.025,0.235
17:29:59.172,0.105,0.275
17:29:59.180,0.175,0.335
17:29:59.188,0.225,0.395
17:29:59.195,0.285,0.455
17:29:59.203,0.385,0.525
17:29:59.211,0.425,0.585
17:29:59.219,0.415,0.585
17:29:59.227,0.415,0.585
17:29:59.234,0.375,0.545
17:29:59.242,0.295,0.475
17:29:59.250,0.205,0.395
17:29:59.258,0.085,0.245
17:29:59.266,-0.015,0.125
17:29:59.273,-0.135,0.025
17:29:59.281,-0.225,-0.055
17:29:59.289,-0.265,-0.105
17:29:59.297,-0.295,-0.135
17:29:59.305,-0.325,-0.165
17:29:59.313,-0.345,-0.195
17:29:59.320,-0.305,-0.205
17:29:59.328,-0.325,-0.195
17:29:59.336,-0.335,-0.185
17:29:59.344,-0.325,-0.165
17:29:59.352,-0.295,-0.135
17:29:59.359,-0.315,-0.205
17:29:59.367,-0.285,-0.205
17:29:59.375,-0.285,-0.215
17:29:59.383,-0.275,-0.185
17:29:59.391,-0.285,-0.195
17:29:59.398,-0.285,-0.175
17:29:59.406,-0.305,-0.195
17:29:59.414,-0.295,-0.185
17:29:59.422,-0.285,-0.165
17:29:59.430,-0.255,-0.185
17:29:59.438,-0.195,-0.195
17:29:59.445,-0.155,-0.095
17:29:59.453,-0.145,-0.115
17:29:59.461,-0.065,-0.095
17:29:59.469,-0.025,-0.075
17:29:59.477,-0.095,-0.085
17:29:59.484,-0.045,-0.175
17:29:59.492,-0.045,-0.155
17:29:59.500,-0.235,-0.145
17:29:59.508,-0.395,-0.235
17:29:59.516,-0.375,-0.315
17:29:59.523,-0.385,-0.305
17:29:59.531,-0.355,-0.315
17:29:59.539,-0.405,-0.275
17:29:59.547,-0.375,-0.295
17:29:59.555,-0.365,-0.275
17:29:59.563,-0.365,-0.265
17:29:59.570,-0.345,-0.305
17:29:59.578,-0.365,-0.255
17:29:59.586,-0.595,-0.265
17:29:59.594,-0.645,-0.105
17:29:59.602,-0.075,0.045
17:29:59.609,1.095,-0.045
17:29:59.617,1.385,-0.205
17:29:59.625,-0.305,-0.845
17:29:59.633,-1.565,-1.715
17:29:59.641,-1.565,-2.065
17:29:59.648,-0.895,-1.635
17:29:59.656,-0.485,-0.875
17:29:59.664,-0.325,-0.395
17:29:59.672,-0.255,-0.155
17:29:59.680,-0.235,-0.105
17:29:59.688,-0.225,-0.095
17:29:59.695,-0.195,-0.075
17:29:59.703,-0.175,-0.065
17:29:59.711,-0.165,-0.055
17:29:59.719,-0.155,-0.045
17:29:59.727,-0.095,0.025
17:29:59.734,-0.085,0.005
17:29:59.742,-0.065,0.035
17:29:59.750,-0.005,-0.005
17:29:59.758,0.045,0.065
17:29:59.766,0.085,0.125
17:29:59.773,0.135,0.165
17:29:59.781,0.205,0.205
17:29:59.789,0.305,0.265
17:29:59.797,0.385,0.325
17:29:59.805,0.425,0.395
17:29:59.813,0.465,0.445
17:29:59.820,0.475,0.455
17:29:59.828,0.465,0.455
17:29:59.836,0.455,0.415
17:29:59.844,0.405,0.375
17:29:59.852,0.315,0.275
17:29:59.859,0.195,0.175
17:29:59.867,0.055,0.055
17:29:59.875,-0.045,-0.045
17:29:59.883,-0.085,-0.085
17:29:59.891,-0.115,-0.135
17:29:59.898,-0.165,-0.225
17:29:59.906,-0.205,-0.225
17:29:59.914,-0.205,-0.205
17:29:59.922,-0.215,-0.205
17:29:59.930,-0.205,-0.195
17:29:59.938,-0.165,-0.165
17:29:59.945,-0.125,-0.145
17:29:59.953,-0.135,-0.165
17:29:59.961,-0.145,-0.135
17:29:59.969,-0.155,-0.175
17:29:59.977,-0.095,-0.115
17:29:59.984,-0.095,-0.205
17:29:59.992,-0.135,-0.175
17:30:00.000,-0.145,-0.165
17:30:00.008,-0.105,-0.165
17:30:00.016,-0.105,-0.135
17:30:00.023,-0.035,-0.115
17:30:00.031,0.035,-0.075
17:30:00.039,0.025,-0.045
17:30:00.047,0.075,0.025
17:30:00.055,0.175,-0.015
17:30:00.063,0.125,-0.035
17:30:00.070,0.115,-0.095
17:30:00.078,0.195,-0.125
17:30:00.086,0.115,-0.045
17:30:00.094,-0.105,-0.095
17:30:00.102,-0.185,-0.155
17:30:00.109,-0.185,-0.265
17:30:00.117,-0.205,-0.245
17:30:00.125,-0.195,-0.255
17:30:00.133,-0.175,-0.235
17:30:00.141,-0.195,-0.195
17:30:00.148,-0.185,-0.175
17:30:00.156,-0.185,-0.205
17:30:00.164,-0.165,-0.165
17:30:00.172,-0.205,-0.175
17:30:00.180,-0.505,-0.195
17:30:00.188,-0.435,0.015
17:30:00.195,0.605,0.145
17:30:00.203,1.705,-0.035
17:30:00.211,0.685,-0.755
17:30:00.219,-1.225,-1.735
17:30:00.227,-1.575,-2.135
17:30:00.234,-0.765,-1.805
17:30:00.242,-0.295,-0.835
17:30:00.250,-0.155,-0.225
17:30:00.258,-0.045,-0.005
17:30:00.266,-0.015,0.015
17:30:00.273,-0.035,0.095
17:30:00.281,-0.015,0.045
17:30:00.289,0.005,0.105
17:30:00.297,0.025,0.135
17:30:00.305,0.055,0.175
17:30:00.313,0.045,0.175
17:30:00.320,0.115,0.165
17:30:00.328,0.125,0.205
17:30:00.336,0.155,0.215
17:30:00.344,0.215,0.255
17:30:00.352,0.185,0.335
17:30:00.359,0.275,0.325
17:30:00.367,0.315,0.395
17:30:00.375,0.365,0.405
17:30:00.383,0.475,0.495
17:30:00.391,0.565,0.635
17:30:00.398,0.545,0.595
17:30:00.406,0.635,0.675
17:30:00.414,0.665,0.705
17:30:00.422,0.645,0.635
17:30:00.430,0.595,0.615
17:30:00.438,0.495,0.585
17:30:00.445,0.455,0.455
17:30:00.453,0.315,0.355
17:30:00.461,0.215,0.215
17:30:00.469,0.135,0.105
17:30:00.477,0.045,0.055
17:30:00.484,0.045,0.005
17:30:00.492,-0.015,-0.035
17:30:00.500,-0.055,-0.035
17:30:00.508,-0.045,-0.085
17:30:00.516,-0.005,-0.045
17:30:00.523,-0.015,-0.065
17:30:00.531,-0.005,-0.045
17:30:00.539,0.025,-0.075
17:30:00.547,0.025,-0.025
17:30:00.555,0.015,-0.075
17:30:00.563,0.025,-0.035
17:30:00.570,0.045,0.015
17:30:00.578,0.035,-0.075
17:30:00.586,0.035,-0.025
17:30:00.594,0.035,-0.045
17:30:00.602,0.055,-0.005
17:30:00.609,0.125,0.005
17:30:00.617,0.215,0.015
17:30:00.625,0.175,0.055
17:30:00.633,0.195,0.065
17:30:00.641,0.295,0.145
17:30:00.648,0.365,0.065
17:30:00.656,0.245,0.055
17:30:00.664,0.315,-0.025
17:30:00.672,0.295,0.025
17:30:00.680,0.075,0.005
17:30:00.688,-0.045,-0.135
17:30:00.695,-0.065,-0.165
17:30:00.703,-0.065,-0.135
17:30:00.711,-0.045,-0.105
17:30:00.719,-0.055,-0.175
17:30:00.727,-0.065,-0.195
17:30:00.734,-0.035,-0.125
17:30:00.742,-0.075,-0.135
17:30:00.750,-0.065,-0.155
17:30:00.758,-0.165,-0.165
17:30:00.766,-0.455,-0.075
17:30:00.773,-0.295,0.105
17:30:00.781,0.775,0.135
17:30:00.789,1.815,0.015
17:30:00.797,0.705,-0.785
17:30:00.805,-1.085,-1.815
17:30:00.813,-1.325,-2.175
17:30:00.820,-0.485,-1.685
17:30:00.828,-0.115,-0.665
17:30:00.836,0.005,-0.165
17:30:00.844,0.055,-0.045
17:30:00.852,0.055,0.115
17:30:00.859,0.075,0.145
17:30:00.867,0.095,0.095
17:30:00.875,0.125,0.095
17:30:00.883,0.155,0.135
17:30:00.891,0.125,0.175
17:30:00.898,0.185,0.205
17:30:00.906,0.195,0.175
17:30:00.914,0.235,0.215
17:30:00.922,0.255,0.275
17:30:00.930,0.285,0.255
17:30:00.938,0.275,0.315
17:30:00.945,0.335,0.355
17:30:00.953,0.415,0.435
17:30:00.961,0.475,0.475
17:30:00.969,0.535,0.555
17:30:00.977,0.595,0.645
17:30:00.984,0.625,0.685
17:30:00.992,0.635,0.725
17:30:01.000,0.635,0.735
17:30:01.008,0.575,0.665
17:30:01.016,0.545,0.595
17:30:01.023,0.465,0.455
17:30:01.031,0.355,0.385
17:30:01.039,0.245,0.195
17:30:01.047,0.145,0.065
17:30:01.055,0.085,0.025
17:30:01.063,0.035,-0.025
17:30:01.070,0.025,-0.055
17:30:01.078,0.015,-0.075
17:30:01.086,-0.025,-0.085
17:30:01.094,-0.025,-0.105
17:30:01.102,0.015,-0.075
17:30:01.109,0.015,-0.085
17:30:01.117,0.015,-0.095
17:30:01.125,0.005,-0.095
17:30:01.133,0.035,-0.065
17:30:01.141,0.055,-0.145
17:30:01.148,0.035,-0.125
17:30:01.156,0.035,-0.135
17:30:01.164,0.015,-0.085
17:30:01.172,0.015,-0.115
17:30:01.180,0.045,-0.125
17:30:01.188,0.065,-0.105
17:30:01.195,0.115,-0.045
17:30:01.203,0.145,-0.015
17:30:01.211,0.155,-0.005
17:30:01.219,0.235,-0.005
17:30:01.227,0.205,0.035
17:30:01.234,0.175,-0.055
17:30:01.242,0.235,-0.085
17:30:01.250,0.185,-0.055
17:30:01.258,-0.055,-0.165
17:30:01.266,-0.115,-0.265
17:30:01.273,-0.145,-0.245
17:30:01.281,-0.125,-0.165
17:30:01.289,-0.145,-0.255
17:30:01.297,-0.135,-0.295
17:30:01.305,-0.145,-0.225
17:30:01.313,-0.155,-0.245
17:30:01.320,-0.115,-0.225
17:30:01.328,-0.115,-0.195
17:30:01.336,-0.315,-0.205
17:30:01.344,-0.535,-0.125
17:30:01.352,-0.165,0.085
17:30:01.359,1.025,0.025
17:30:01.367,1.635,-0.075
17:30:01.375,0.245,-0.875
17:30:01.383,-1.185,-1.815
17:30:01.391,-1.415,-2.175
17:30:01.398,-0.815,-1.885
17:30:01.406,-0.305,-1.055
17:30:01.414,-0.125,-0.345
17:30:01.422,-0.065,-0.085
17:30:01.430,-0.055,-0.015
17:30:01.438,-0.065,-0.015
17:30:01.445,-0.055,-0.005
17:30:01.453,-0.025,0.015
17:30:01.461,-0.025,0.035
17:30:01.469,-0.025,0.035
17:30:01.477,0.015,0.055
17:30:01.484,0.045,0.095
17:30:01.492,0.055,0.075
17:30:01.500,0.075,0.075
17:30:01.508,0.155,0.145
17:30:01.516,0.185,0.185
17:30:01.523,0.235,0.215
17:30:01.531,0.285,0.275
17:30:01.539,0.355,0.355
17:30:01.547,0.445,0.425
17:30:01.555,0.455,0.485
17:30:01.563,0.485,0.515
17:30:01.570,0.515,0.545
17:30:01.578,0.505,0.545
17:30:01.586,0.485,0.505
17:30:01.594,0.455,0.475
17:30:01.602,0.405,0.415
17:30:01.609,0.285,0.245
17:30:01.617,0.185,0.085
17:30:01.625,0.075,0.055
17:30:01.633,-0.015,-0.055
17:30:01.641,-0.095,-0.135
17:30:01.648,-0.115,-0.135
17:30:01.656,-0.155,-0.155
17:30:01.664,-0.115,-0.145
17:30:01.672,-0.105,-0.145
17:30:01.680,-0.115,-0.225
17:30:01.688,-0.095,-0.205
17:30:01.695,-0.085,-0.155
17:30:01.703,-0.085,-0.165
17:30:01.711,-0.075,-0.105
17:30:01.719,-0.095,-0.175
17:30:01.727,-0.095,-0.135
17:30:01.734,-0.095,-0.125
17:30:01.742,-0.095,-0.165
17:30:01.750,-0.065,-0.205
17:30:01.758,-0.035,-0.145
17:30:01.766,0.025,-0.095
17:30:01.773,0.035,-0.065
17:30:01.781,0.075,-0.025
17:30:01.789,0.135,-0.045
17:30:01.797,0.135,0.005
17:30:01.805,0.095,-0.125
17:30:01.813,0.135,-0.175
17:30:01.820,0.035,-0.145
17:30:01.828,-0.155,-0.165
17:30:01.836,-0.205,-0.275
17:30:01.844,-0.225,-0.305
17:30:01.852,-0.235,-0.295
17:30:01.859,-0.245,-0.275
17:30:01.867,-0.245,-0.255
17:30:01.875,-0.225,-0.275
17:30:01.883,-0.275,-0.255
17:30:01.891,-0.205,-0.285
17:30:01.898,-0.165,-0.265
17:30:01.906,-0.305,-0.225
17:30:01.914,-0.625,-0.225
17:30:01.922,-0.435,-0.035
17:30:01.930,0.525,-0.005
17:30:01.938,1.585,-0.065
17:30:01.945,0.855,-0.555
17:30:01.953,-1.035,-1.735
17:30:01.961,-1.545,-2.215
17:30:01.969,-1.015,-1.995
17:30:01.977,-0.385,-1.215
17:30:01.984,-0.215,-0.425
17:30:01.992,-0.165,-0.155
17:30:02.000,-0.105,0.015
17:30:02.008,-0.205,-0.075
17:30:02.016,-0.145,-0.055
17:30:02.023,-0.085,-0.025
17:30:02.031,-0.045,0.035
17:30:02.039,-0.025,0.035
17:30:02.047,-0.045,0.045
17:30:02.055,-0.055,0.105
17:30:02.063,0.075,0.035
17:30:02.070,0.055,0.095
17:30:02.078,0.115,0.175
17:30:02.086,0.155,0.135
17:30:02.094,0.185,0.175
17:30:02.102,0.245,0.265
17:30:02.109,0.335,0.365
17:30:02.117,0.385,0.395
17:30:02.125,0.425,0.475
17:30:02.133,0.465,0.505
17:30:02.141,0.525,0.595
17:30:02.148,0.505,0.485
17:30:02.156,0.495,0.535
17:30:02.164,0.425,0.425
17:30:02.172,0.345,0.315
17:30:02.180,0.245,0.185
17:30:02.188,0.115,0.135
17:30:02.195,0.045,-0.005
17:30:02.203,-0.045,-0.095
17:30:02.211,-0.085,-0.145
17:30:02.219,-0.125,-0.155
17:30:02.227,-0.155,-0.115
17:30:02.234,-0.135,-0.155
17:30:02.242,-0.145,-0.215
17:30:02.250,-0.125,-0.195
17:30:02.258,-0.095,-0.145
17:30:02.266,-0.145,-0.225
17:30:02.273,-0.125,-0.165
17:30:02.281,-0.105,-0.175
17:30:02.289,-0.065,-0.155
17:30:02.297,-0.175,-0.135
17:30:02.305,-0.125,-0.185
17:30:02.313,-0.115,-0.185
17:30:02.320,-0.025,-0.145
17:30:02.328,-0.015,-0.075
17:30:02.336,-0.065,-0.045
17:30:02.344,0.085,-0.005
17:30:02.352,0.135,-0.015
17:30:02.359,0.095,-0.105
17:30:02.367,-0.035,-0.075
17:30:02.375,0.105,-0.165
17:30:02.383,0.125,-0.185
17:30:02.391,-0.075,-0.125
17:30:02.398,-0.205,-0.245
17:30:02.406,-0.225,-0.335
17:30:02.414,-0.215,-0.265
17:30:02.422,-0.235,-0.295
17:30:02.430,-0.265,-0.265
17:30:02.438,-0.245,-0.315
17:30:02.445,-0.245,-0.255
17:30:02.453,-0.235,-0.245
17:30:02.461,-0.225,-0.285
17:30:02.469,-0.335,-0.305
17:30:02.477,-0.615,-0.255
17:30:02.484,-0.545,-0.035
17:30:02.492,0.175,-0.015
17:30:02.500,1.375,-0.065
17:30:02.508,1.165,-0.415
17:30:02.516,-0.585,-1.495
17:30:02.523,-1.345,-2.105
17:30:02.531,-1.075,-2.095
17:30:02.539,-0.455,-1.375
17:30:02.547,-0.245,-0.525
17:30:02.555,-0.175,-0.175
17:30:02.563,-0.195,-0.075
17:30:02.570,-0.165,0.015
17:30:02.578,-0.115,-0.005
17:30:02.586,-0.135,-0.025
17:30:02.594,-0.095,-0.025
17:30:02.602,-0.055,0.045
17:30:02.609,-0.055,0.095
17:30:02.617,-0.045,0.015
17:30:02.625,-0.015,0.035
17:30:02.633,0.015,0.125
17:30:02.641,0.055,0.135
17:30:02.648,0.075,0.165
17:30:02.656,0.155,0.145
17:30:02.664,0.195,0.245
17:30:02.672,0.275,0.345
17:30:02.680,0.345,0.395
17:30:02.688,0.385,0.425
17:30:02.695,0.415,0.515
17:30:02.703,0.425,0.535
17:30:02.711,0.425,0.525
17:30:02.719,0.355,0.475
17:30:02.727,0.385,0.445
17:30:02.734,0.325,0.435
17:30:02.742,0.195,0.235
17:30:02.750,0.025,0.105
17:30:02.758,-0.005,0.035
17:30:02.766,-0.075,-0.025
17:30:02.773,-0.175,-0.095
17:30:02.781,-0.205,-0.135
17:30:02.789,-0.225,-0.185
17:30:02.797,-0.215,-0.205
17:30:02.805,-0.235,-0.195
17:30:02.813,-0.245,-0.195
17:30:02.820,-0.225,-0.185
17:30:02.828,-0.195,-0.175
17:30:02.836,-0.215,-0.155
17:30:02.844,-0.235,-0.165
17:30:02.852,-0.195,-0.135
17:30:02.859,-0.215,-0.135
17:30:02.867,-0.175,-0.195
17:30:02.875,-0.165,-0.155
17:30:02.883,-0.105,-0.165
17:30:02.891,-0.075,-0.075
17:30:02.898,-0.055,-0.025
17:30:02.906,-0.015,0.015
17:30:02.914,0.015,-0.015
17:30:02.922,0.045,-0.025
17:30:02.930,-0.045,-0.105
17:30:02.938,0.045,-0.185
17:30:02.945,0.015,-0.155
17:30:02.953,-0.105,-0.165
17:30:02.961,-0.315,-0.205
17:30:02.969,-0.305,-0.285
17:30:02.977,-0.365,-0.225
17:30:02.984,-0.305,-0.265
17:30:02.992,-0.305,-0.295
17:30:03.000,-0.325,-0.245
17:30:03.008,-0.325,-0.365
17:30:03.016,-0.335,-0.305
17:30:03.023,-0.345,-0.285
17:30:03.031,-0.365,-0.275
17:30:03.039,-0.705,-0.245
17:30:03.047,-0.725,-0.105
17:30:03.055,-0.045,-0.005
17:30:03.063,1.255,-0.135
17:30:03.070,1.285,-0.545
17:30:03.078,-0.575,-1.715
17:30:03.086,-1.575,-2.265
17:30:03.094,-1.275,-2.185
17:30:03.102,-0.585,-1.445
17:30:03.109,-0.365,-0.465
17:30:03.117,-0.325,-0.155
17:30:03.125,-0.315,-0.065
17:30:03.133,-0.295,-0.045
17:30:03.141,-0.275,-0.015
17:30:03.148,-0.245,0.005
17:30:03.156,-0.235,0.025
17:30:03.164,-0.215,0.045
17:30:03.172,-0.225,0.065
17:30:03.180,-0.185,0.065
17:30:03.188,-0.155,0.085
17:30:03.195,-0.145,0.135
17:30:03.203,-0.125,0.145
17:30:03.211,-0.055,0.185
17:30:03.219,-0.025,0.235
17:30:03.227,0.025,0.305
17:30:03.234,0.075,0.375
17:30:03.242,0.175,0.445
17:30:03.250,0.205,0.525
17:30:03.258,0.265,0.575
17:30:03.266,0.275,0.615
17:30:03.273,0.255,0.615
17:30:03.281,0.255,0.545
17:30:03.289,0.215,0.535
17:30:03.297,0.125,0.405
17:30:03.305,0.005,0.245
17:30:03.313,-0.105,0.105
17:30:03.320,-0.205,0.015
17:30:03.328,-0.265,-0.085
17:30:03.336,-0.315,-0.145
17:30:03.344,-0.355,-0.185
17:30:03.352,-0.375,-0.215
17:30:03.359,-0.415,-0.225
17:30:03.367,-0.395,-0.225
17:30:03.375,-0.405,-0.235
17:30:03.383,-0.395,-0.245
17:30:03.391,-0.335,-0.215
17:30:03.398,-0.345,-0.205
17:30:03.406,-0.325,-0.195
17:30:03.414,-0.335,-0.235
17:30:03.422,-0.325,-0.215
17:30:03.430,-0.295,-0.205
17:30:03.438,-0.305,-0.155
17:30:03.445,-0.225,-0.195
17:30:03.453,-0.185,-0.125
17:30:03.461,-0.175,-0.095
17:30:03.469,-0.155,-0.095
17:30:03.477,-0.055,-0.075
17:30:03.484,-0.095,-0.075
17:30:03.492,-0.115,-0.155
17:30:03.500,-0.115,-0.195
17:30:03.508,-0.185,-0.185
17:30:03.516,-0.385,-0.215
17:30:03.523,-0.425,-0.295
17:30:03.531,-0.425,-0.275
17:30:03.539,-0.445,-0.305
17:30:03.547,-0.445,-0.335
17:30:03.555,-0.455,-0.315
17:30:03.563,-0.435,-0.325
17:30:03.570,-0.435,-0.305
17:30:03.578,-0.455,-0.295
17:30:03.586,-0.445,-0.295
17:30:03.594,-0.535,-0.315
17:30:03.602,-0.875,-0.235
17:30:03.609,-0.705,-0.045
17:30:03.617,0.395,-0.065
17:30:03.625,1.415,-0.185
17:30:03.633,0.455,-1.075
17:30:03.641,-1.195,-2.125
17:30:03.648,-1.555,-2.405
17:30:03.656,-0.815,-1.915
17:30:03.664,-0.475,-0.845
17:30:03.672,-0.385,-0.255
17:30:03.680,-0.375,-0.105
17:30:03.688,-0.355,-0.035
17:30:03.695,-0.345,-0.015
17:30:03.703,-0.355,-0.005
17:30:03.711,-0.335,0.015
17:30:03.719,-0.315,0.025
17:30:03.727,-0.235,0.105
17:30:03.734,-0.225,0.045
17:30:03.742,-0.225,0.085
17:30:03.750,-0.205,0.065
17:30:03.758,-0.165,0.165
17:30:03.766,-0.105,0.145
17:30:03.773,-0.095,0.205
17:30:03.781,-0.045,0.295
17:30:03.789,0.035,0.295
17:30:03.797,0.125,0.385
17:30:03.805,0.155,0.425
17:30:03.813,0.225,0.505
17:30:03.820,0.315,0.585
17:30:03.828,0.325,0.545
17:30:03.836,0.335,0.565
17:30:03.844,0.295,0.545
17:30:03.852,0.245,0.485
17:30:03.859,0.145,0.375
17:30:03.867,0.015,0.225
17:30:03.875,-0.135,0.105
17:30:03.883,-0.235,-0.015
17:30:03.891,-0.245,0.005
17:30:03.898,-0.315,-0.135
17:30:03.906,-0.325,-0.225
17:30:03.914,-0.345,-0.215
17:30:03.922,-0.325,-0.195
17:30:03.930,-0.405,-0.245
17:30:03.938,-0.385,-0.265
17:30:03.945,-0.325,-0.205
17:30:03.953,-0.345,-0.195
17:30:03.961,-0.335,-0.195
17:30:03.969,-0.315,-0.195
17:30:03.977,-0.305,-0.165
17:30:03.984,-0.325,-0.195
17:30:03.992,-0.305,-0.185
17:30:04.000,-0.285,-0.205
17:30:04.008,-0.195,-0.175
17:30:04.016,-0.145,-0.065
17:30:04.023,-0.135,-0.085
17:30:04.031,-0.105,-0.135
17:30:04.039,-0.025,-0.075
17:30:04.047,-0.085,-0.035
17:30:04.055,-0.065,-0.205
17:30:04.063,-0.035,-0.215
17:30:04.070,-0.125,-0.145
17:30:04.078,-0.325,-0.215
17:30:04.086,-0.355,-0.285
17:30:04.094,-0.395,-0.275
17:30:04.102,-0.415,-0.315
17:30:04.109,-0.385,-0.315
17:30:04.117,-0.375,-0.305
17:30:04.125,-0.375,-0.315
17:30:04.133,-0.385,-0.325
17:30:04.141,-0.365,-0.305
17:30:04.148,-0.385,-0.285
17:30:04.156,-0.535,-0.295
17:30:04.164,-0.805,-0.175
17:30:04.172,-0.455,0.035
17:30:04.180,0.735,-0.085
17:30:04.188,1.555,-0.135
17:30:04.195,0.305,-0.565
17:30:04.203,-1.355,-1.555
17:30:04.211,-1.645,-2.045
17:30:04.219,-1.215,-1.845
17:30:04.227,-0.665,-1.215
17:30:04.234,-0.385,-0.525
17:30:04.242,-0.295,-0.255
17:30:04.250,-0.305,-0.115
17:30:04.258,-0.205,-0.085
17:30:04.266,-0.235,-0.105
17:30:04.273,-0.255,-0.065
17:30:04.281,-0.205,-0.085
17:30:04.289,-0.165,-0.045
17:30:04.297,-0.085,-0.025
17:30:04.305,-0.085,-0.015
17:30:04.313,-0.095,0.035
17:30:04.320,-0.055,0.025
17:30:04.328,0.015,-0.015
17:30:04.336,0.015,0.085
17:30:04.344,0.105,0.085
17:30:04.352,0.145,0.145
17:30:04.359,0.245,0.215
17:30:04.367,0.295,0.305
17:30:04.375,0.405,0.325
17:30:04.383,0.465,0.365
17:30:04.391,0.475,0.385
17:30:04.398,0.475,0.375
17:30:04.406,0.415,0.365
17:30:04.414,0.385,0.265
17:30:04.422,0.265,0.225
17:30:04.430,0.175,0.155
17:30:04.438,0.015,0.085
17:30:04.445,-0.065,-0.065
17:30:04.453,-0.145,-0.125
17:30:04.461,-0.215,-0.145
17:30:04.469,-0.265,-0.215
17:30:04.477,-0.275,-0.205
17:30:04.484,-0.275,-0.205
17:30:04.492,-0.275,-0.205
17:30:04.500,-0.295,-0.215
17:30:04.508,-0.265,-0.195
17:30:04.516,-0.235,-0.195
17:30:04.523,-0.235,-0.165
17:30:04.531,-0.275,-0.195
17:30:04.539,-0.225,-0.145
17:30:04.547,-0.205,-0.165
17:30:04.555,-0.165,-0.165
17:30:04.563,-0.145,-0.185
17:30:04.570,-0.095,-0.165
17:30:04.578,-0.145,-0.095
17:30:04.586,-0.055,-0.075
17:30:04.594,0.055,-0.075
17:30:04.602,0.055,-0.065
17:30:04.609,0.045,-0.035
17:30:04.617,0.075,-0.135
17:30:04.625,0.105,-0.165
17:30:04.633,-0.015,-0.125
17:30:04.641,-0.235,-0.165
17:30:04.648,-0.245,-0.285
17:30:04.656,-0.295,-0.275
17:30:04.664,-0.285,-0.285
17:30:04.672,-0.275,-0.275
17:30:04.680,-0.235,-0.275
17:30:04.688,-0.275,-0.275
17:30:04.695,-0.255,-0.265
17:30:04.703,-0.265,-0.245
17:30:04.711,-0.285,-0.255
17:30:04.719,-0.385,-0.245
17:30:04.727,-0.585,-0.155
17:30:04.734,-0.215,0.015
17:30:04.742,0.925,-0.025
17:30:04.750,1.585,-0.135
17:30:04.758,-0.005,-0.455
17:30:04.766,-1.685,-1.285
17:30:04.773,-1.745,-1.775
17:30:04.781,-1.145,-1.585
17:30:04.789,-0.565,-0.895
17:30:04.797,-0.275,-0.395
17:30:04.805,-0.165,-0.185
17:30:04.813,-0.145,-0.135
17:30:04.820,-0.155,-0.135
17:30:04.828,-0.105,-0.115
17:30:04.836,-0.095,-0.085
17:30:04.844,-0.085,-0.085
17:30:04.852,-0.065,-0.065
17:30:04.859,-0.005,-0.055
17:30:04.867,-0.015,-0.025
17:30:04.875,0.005,-0.025
17:30:04.883,0.065,-0.025
17:30:04.891,0.115,0.025
17:30:04.898,0.165,0.035
17:30:04.906,0.195,0.025
17:30:04.914,0.275,0.105
17:30:04.922,0.335,0.165
17:30:04.930,0.425,0.205
17:30:04.938,0.515,0.265
17:30:04.945,0.555,0.305
17:30:04.953,0.575,0.325
17:30:04.961,0.565,0.325
17:30:04.969,0.445,0.245
17:30:04.977,0.345,0.145
17:30:04.984,0.245,0.105
17:30:04.992,0.135,0.025
17:30:05.000,0.015,-0.025
17:30:05.008,-0.045,-0.105
17:30:05.016,-0.145,-0.135
17:30:05.023,-0.155,-0.195
17:30:05.031,-0.185,-0.195
17:30:05.039,-0.185,-0.185
17:30:05.047,-0.215,-0.205
17:30:05.055,-0.205,-0.205
17:30:05.063,-0.175,-0.205
17:30:05.070,-0.195,-0.185
17:30:05.078,-0.165,-0.185
17:30:05.086,-0.185,-0.185
17:30:05.094,-0.155,-0.175
17:30:05.102,-0.135,-0.155
17:30:05.109,-0.135,-0.135
17:30:05.117,-0.135,-0.125
17:30:05.125,-0.105,-0.095
17:30:05.133,-0.005,-0.115
17:30:05.141,0.025,-0.045
17:30:05.148,0.065,-0.015
17:30:05.156,0.075,-0.005
17:30:05.164,0.135,0.015
17:30:05.172,0.135,0.025
17:30:05.180,0.065,-0.065
17:30:05.188,0.145,-0.115
17:30:05.195,0.135,-0.065
17:30:05.203,-0.055,-0.045
17:30:05.211,-0.195,-0.215
17:30:05.219,-0.235,-0.235
17:30:05.227,-0.245,-0.235
17:30:05.234,-0.225,-0.215
17:30:05.242,-0.205,-0.225
17:30:05.250,-0.215,-0.225
17:30:05.258,-0.225,-0.205
17:30:05.266,-0.195,-0.215
17:30:05.273,-0.215,-0.185
17:30:05.281,-0.285,-0.205
17:30:05.289,-0.545,-0.135
17:30:05.297,-0.415,0.065
17:30:05.305,0.485,0.125
17:30:05.313,1.725,0.045
17:30:05.320,0.965,-0.505
17:30:05.328,-1.245,-1.435
17:30:05.336,-1.825,-2.015
17:30:05.344,-1.245,-1.805
17:30:05.352,-0.485,-1.015
17:30:05.359,-0.165,-0.275
17:30:05.367,-0.085,-0.045
17:30:05.375,-0.075,0.015
17:30:05.383,-0.075,-0.015
17:30:05.391,-0.015,0.045
17:30:05.398,0.015,0.045
17:30:05.406,-0.005,0.085
17:30:05.414,0.045,0.065
17:30:05.422,0.065,0.145
17:30:05.430,0.105,0.125
17:30:05.438,0.125,0.155
17:30:05.445,0.165,0.185
17:30:05.453,0.185,0.225
17:30:05.461,0.245,0.265
17:30:05.469,0.305,0.275
17:30:05.477,0.315,0.345
17:30:05.484,0.455,0.445
17:30:05.492,0.545,0.495
17:30:05.500,0.565,0.495
17:30:05.508,0.605,0.565
17:30:05.516,0.645,0.575
17:30:05.523,0.615,0.585
17:30:05.531,0.555,0.535
17:30:05.539,0.475,0.495
17:30:05.547,0.395,0.385
17:30:05.555,0.275,0.305
17:30:05.563,0.155,0.165
17:30:05.570,0.045,0.085
17:30:05.578,0.005,-0.005
17:30:05.586,-0.055,-0.005
17:30:05.594,-0.055,-0.075
17:30:05.602,-0.065,-0.055
17:30:05.609,-0.035,-0.045
17:30:05.617,-0.075,-0.025
17:30:05.625,-0.065,-0.065
17:30:05.633,-0.015,-0.025
17:30:05.641,-0.035,-0.015
17:30:05.648,-0.035,-0.005
17:30:05.656,-0.005,-0.035
17:30:05.664,0.035,-0.015
17:30:05.672,0.025,-0.005
17:30:05.680,0.045,-0.005
17:30:05.688,0.045,0.005
17:30:05.695,0.065,0.025
17:30:05.703,0.135,0.045
17:30:05.711,0.205,0.085
17:30:05.719,0.195,0.105
17:30:05.727,0.255,0.135
