Time,ECG1,ECG2
00:41:00.000:1,1.305,-0.185
00:41:00.008:1,1.545,-0.375
00:41:00.016:1,-0.305,-0.655
00:41:00.023:1,-0.905,-0.415
00:41:00.031:1,-0.585,-0.135
00:41:00.039:1,-0.215,-0.035
00:41:00.047:1,-0.125,-0.015
00:41:00.055:1,-0.105,-0.005
00:41:00.063:1,-0.095,-0.005
00:41:00.070:1,-0.135,-0.015
00:41:00.078:1,-0.085,-0.015
00:41:00.086:1,-0.095,-0.005
00:41:00.094:1,-0.095,-0.005
00:41:00.102:1,-0.115,-0.045
00:41:00.109:1,-0.065,0.005
00:41:00.117:1,-0.095,-0.005
00:41:00.125:1,-0.065,0.005
00:41:00.133:1,-0.065,0.015
00:41:00.141:1,-0.055,0.035
00:41:00.148:1,-0.045,0.025
00:41:00.156:1,-0.045,0.025
00:41:00.164:1,-0.015,0.055
00:41:00.172:1,-0.015,0.025
00:41:00.180:1,-0.005,0.045
00:41:00.188:1,0.015,0.055
00:41:00.195:1,0.035,0.065
00:41:00.203:1,0.035,0.095
00:41:00.211:1,0.075,0.095
00:41:00.219:1,0.045,0.085
00:41:00.227:1,0.075,0.075
00:41:00.234:1,0.085,0.095
00:41:00.242:1,0.115,0.105
00:41:00.250:1,0.105,0.075
00:41:00.258:1,0.075,0.065
00:41:00.266:1,0.085,0.045
00:41:00.273:1,0.105,0.045
00:41:00.281:1,0.075,0.045
00:41:00.289:1,0.045,0.045
00:41:00.297:1,0.035,-0.005
00:41:00.305:1,0.005,0.045
00:41:00.313:1,-0.045,-0.005
00:41:00.320:1,-0.075,-0.045
00:41:00.328:1,-0.095,-0.015
00:41:00.336:1,-0.075,-0.025
00:41:00.344:1,-0.095,-0.035
00:41:00.352:1,-0.085,-0.035
00:41:00.359:1,-0.085,-0.045
00:41:00.367:1,-0.085,-0.015
00:41:00.375:1,-0.095,-0.035
00:41:00.383:1,-0.085,-0.045
00:41:00.391:1,-0.075,-0.035
00:41:00.398:1,-0.075,-0.025
00:41:00.406:1,-0.085,-0.005
00:41:00.414:1,-0.065,-0.025
00:41:00.422:1,-0.065,-0.005
00:41:00.430:1,-0.055,0.035
00:41:00.438:1,-0.085,-0.025
00:41:00.445:1,-0.045,-0.015
00:41:00.453:1,-0.065,-0.005
00:41:00.461:1,-0.065,-0.015
00:41:00.469:1,-0.085,-0.015
00:41:00.477:1,-0.045,-0.025
00:41:00.484:1,-0.075,-0.025
00:41:00.492:1,-0.065,-0.005
00:41:00.500:1,-0.065,-0.015
00:41:00.508:1,-0.045,-0.005
00:41:00.516:1,-0.035,0.045
00:41:00.523:1,0.005,0.045
00:41:00.531:1,0.015,-0.005
00:41:00.539:1,0.035,0.015
00:41:00.547:1,0.025,0.025
00:41:00.555:1,0.035,-0.005
00:41:00.563:1,0.045,0.005
00:41:00.570:1,0.045,-0.005
00:41:00.578:1,-0.025,-0.035
00:41:00.586:1,-0.035,-0.025
00:41:00.594:1,-0.075,-0.055
00:41:00.602:1,-0.105,-0.065
00:41:00.609:1,-0.105,-0.035
00:41:00.617:1,-0.095,-0.075
00:41:00.625:1,-0.145,-0.095
00:41:00.633:1,-0.115,-0.065
00:41:00.641:1,-0.115,-0.075
00:41:00.648:1,-0.115,-0.075
00:41:00.656:1,-0.135,-0.095
00:41:00.664:1,-0.165,-0.075
00:41:00.672:1,-0.095,-0.065
00:41:00.680:1,-0.095,-0.065
00:41:00.688:1,-0.115,-0.085
00:41:00.695:1,-0.105,-0.085
00:41:00.703:1,-0.075,-0.055
00:41:00.711:1,-0.085,-0.055
00:41:00.719:1,-0.065,-0.015
00:41:00.727:1,0.085,-0.025
00:41:00.734:1,0.585,-0.055
00:41:00.742:1,1.525,-0.255
00:41:00.750:1,1.205,-0.475
00:41:00.758:1,-0.555,-0.675
00:41:00.766:1,-0.885,-0.375
00:41:00.773:1,-0.415,-0.115
00:41:00.781:1,-0.135,0.015
00:41:00.789:1,-0.095,-0.005
00:41:00.797:1,-0.095,0.025
00:41:00.805:1,-0.075,-0.025
00:41:00.813:1,-0.085,0.005
00:41:00.820:1,-0.065,0.035
00:41:00.828:1,-0.055,-0.015
00:41:00.836:1,-0.065,0.005
00:41:00.844:1,-0.055,0.015
00:41:00.852:1,-0.045,0.015
00:41:00.859:1,-0.045,0.005
00:41:00.867:1,-0.025,0.015
00:41:00.875:1,-0.055,0.015
00:41:00.883:1,-0.025,0.025
00:41:00.891:1,-0.015,0.015
00:41:00.898:1,0.005,0.055
00:41:00.906:1,0.015,0.045
00:41:00.914:1,-0.015,0.035
00:41:00.922:1,0.035,0.085
00:41:00.930:1,0.055,0.035
00:41:00.938:1,0.025,0.075
00:41:00.945:1,0.065,0.085
00:41:00.953:1,0.075,0.055
00:41:00.961:1,0.105,0.085
00:41:00.969:1,0.095,0.085
00:41:00.977:1,0.105,0.095
00:41:00.984:1,0.105,0.065
00:41:00.992:1,0.105,0.055
00:41:01.000:1,0.105,0.055
00:41:01.008:1,0.095,0.045
00:41:01.016:1,0.085,0.015
00:41:01.023:1,0.075,0.045
00:41:01.031:1,0.075,0.005
00:41:01.039:1,0.035,0.005
00:41:01.047:1,0.015,-0.015
00:41:01.055:1,-0.015,-0.035
00:41:01.063:1,-0.045,-0.035
00:41:01.070:1,-0.065,-0.055
00:41:01.078:1,-0.055,-0.025
00:41:01.086:1,-0.075,-0.055
00:41:01.094:1,-0.065,-0.035
00:41:01.102:1,-0.085,-0.065
00:41:01.109:1,-0.075,-0.065
00:41:01.117:1,-0.055,-0.015
00:41:01.125:1,-0.065,-0.035
00:41:01.133:1,-0.045,-0.025
00:41:01.141:1,-0.065,-0.045
00:41:01.148:1,-0.065,-0.015
00:41:01.156:1,-0.065,-0.025
00:41:01.164:1,-0.055,-0.005
00:41:01.172:1,-0.045,-0.055
00:41:01.180:1,-0.035,-0.055
00:41:01.188:1,-0.045,-0.035
00:41:01.195:1,-0.035,-0.035
00:41:01.203:1,-0.055,-0.045
00:41:01.211:1,-0.035,-0.035
00:41:01.219:1,-0.065,-0.055
00:41:01.227:1,-0.055,-0.045
00:41:01.234:1,-0.055,-0.035
00:41:01.242:1,-0.065,-0.035
00:41:01.250:1,-0.015,-0.025
00:41:01.258:1,0.005,0.005
00:41:01.266:1,-0.015,-0.005
00:41:01.273:1,0.015,0.015
00:41:01.281:1,0.025,-0.005
00:41:01.289:1,0.045,-0.025
00:41:01.297:1,0.075,-0.025
00:41:01.305:1,0.065,-0.005
00:41:01.313:1,0.075,-0.015
00:41:01.320:1,0.025,-0.055
00:41:01.328:1,-0.005,-0.045
00:41:01.336:1,-0.055,-0.055
00:41:01.344:1,-0.075,-0.075
00:41:01.352:1,-0.095,-0.105
00:41:01.359:1,-0.095,-0.095
00:41:01.367:1,-0.075,-0.065
00:41:01.375:1,-0.105,-0.085
00:41:01.383:1,-0.115,-0.085
00:41:01.391:1,-0.125,-0.075
00:41:01.398:1,-0.125,-0.075
00:41:01.406:1,-0.135,-0.085
00:41:01.414:1,-0.135,-0.115
00:41:01.422:1,-0.125,-0.125
00:41:01.430:1,-0.115,-0.105
00:41:01.438:1,-0.115,-0.115
00:41:01.445:1,-0.115,-0.125
00:41:01.453:1,-0.135,-0.105
00:41:01.461:1,-0.045,-0.085
00:41:01.469:1,0.255,-0.075
00:41:01.477:1,0.915,-0.175
00:41:01.484:1,1.865,-0.315
00:41:01.492:1,0.425,-0.545
00:41:01.500:1,-0.885,-0.565
00:41:01.508:1,-0.825,-0.285
00:41:01.516:1,-0.375,-0.125
00:41:01.523:1,-0.155,-0.095
00:41:01.531:1,-0.115,-0.085
00:41:01.539:1,-0.115,-0.075
00:41:01.547:1,-0.115,-0.085
00:41:01.555:1,-0.115,-0.065
00:41:01.563:1,-0.095,-0.055
00:41:01.570:1,-0.125,-0.075
00:41:01.578:1,-0.115,-0.065
00:41:01.586:1,-0.085,-0.035
00:41:01.594:1,-0.085,-0.065
00:41:01.602:1,-0.085,-0.055
00:41:01.609:1,-0.055,-0.055
00:41:01.617:1,-0.055,-0.075
00:41:01.625:1,-0.045,-0.065
00:41:01.633:1,-0.025,-0.045
00:41:01.641:1,-0.055,-0.045
00:41:01.648:1,-0.005,-0.015
00:41:01.656:1,-0.005,-0.025
00:41:01.664:1,-0.005,-0.015
00:41:01.672:1,0.015,-0.005
00:41:01.680:1,0.045,0.025
00:41:01.688:1,0.035,0.025
00:41:01.695:1,0.045,0.015
00:41:01.703:1,0.055,0.035
00:41:01.711:1,0.085,0.045
00:41:01.719:1,0.065,0.035
00:41:01.727:1,0.065,0.025
00:41:01.734:1,0.055,0.015
00:41:01.742:1,0.045,0.005
00:41:01.750:1,0.035,-0.005
00:41:01.758:1,0.025,-0.025
00:41:01.766:1,0.015,-0.035
00:41:01.773:1,0.005,-0.045
00:41:01.781:1,-0.035,-0.055
00:41:01.789:1,-0.065,-0.075
00:41:01.797:1,-0.075,-0.085
00:41:01.805:1,-0.085,-0.075
00:41:01.813:1,-0.085,-0.085
00:41:01.820:1,-0.105,-0.105
00:41:01.828:1,-0.115,-0.095
00:41:01.836:1,-0.105,-0.095
00:41:01.844:1,-0.095,-0.085
00:41:01.852:1,-0.095,-0.085
00:41:01.859:1,-0.085,-0.095
00:41:01.867:1,-0.095,-0.075
00:41:01.875:1,-0.095,-0.065
00:41:01.883:1,-0.085,-0.065
00:41:01.891:1,-0.095,-0.065
00:41:01.898:1,-0.075,-0.055
00:41:01.906:1,-0.065,-0.065
00:41:01.914:1,-0.065,-0.055
00:41:01.922:1,-0.065,-0.055
00:41:01.930:1,-0.065,-0.055
00:41:01.938:1,-0.065,-0.055
00:41:01.945:1,-0.075,-0.065
00:41:01.953:1,-0.085,-0.065
00:41:01.961:1,-0.075,-0.045
00:41:01.969:1,-0.085,-0.055
00:41:01.977:1,-0.085,-0.055
00:41:01.984:1,-0.045,-0.025
00:41:01.992:1,-0.045,0.005
00:41:02.000:1,-0.035,-0.005
00:41:02.008:1,-0.005,-0.015
00:41:02.016:1,-0.025,-0.035
00:41:02.023:1,0.025,-0.035
00:41:02.031:1,0.035,-0.035
00:41:02.039:1,0.055,-0.035
00:41:02.047:1,0.005,-0.045
00:41:02.055:1,-0.005,-0.055
00:41:02.063:1,-0.065,-0.065
00:41:02.070:1,-0.105,-0.105
00:41:02.078:1,-0.125,-0.125
00:41:02.086:1,-0.125,-0.095
00:41:02.094:1,-0.115,-0.095
00:41:02.102:1,-0.135,-0.095
00:41:02.109:1,-0.125,-0.095
00:41:02.117:1,-0.115,-0.085
00:41:02.125:1,-0.135,-0.085
00:41:02.133:1,-0.135,-0.095
00:41:02.141:1,-0.135,-0.085
00:41:02.148:1,-0.125,-0.075
00:41:02.156:1,-0.125,-0.075
00:41:02.164:1,-0.115,-0.075
00:41:02.172:1,-0.105,-0.075
00:41:02.180:1,-0.105,-0.045
00:41:02.188:1,-0.025,-0.045
00:41:02.195:1,0.335,-0.045
00:41:02.203:1,1.015,-0.185
00:41:02.211:1,1.945,-0.315
00:41:02.219:1,0.495,-0.525
00:41:02.227:1,-0.845,-0.515
00:41:02.234:1,-0.775,-0.215
00:41:02.242:1,-0.295,-0.045
00:41:02.250:1,-0.115,-0.005
00:41:02.258:1,-0.095,-0.005
00:41:02.266:1,-0.085,-0.005
00:41:02.273:1,-0.095,0.005
00:41:02.281:1,-0.065,0.005
00:41:02.289:1,-0.085,0.005
00:41:02.297:1,-0.075,0.005
00:41:02.305:1,-0.065,0.005
00:41:02.313:1,-0.035,0.025
00:41:02.320:1,-0.045,0.015
00:41:02.328:1,-0.055,0.005
00:41:02.336:1,-0.045,0.025
00:41:02.344:1,-0.045,0.025
00:41:02.352:1,-0.025,0.025
00:41:02.359:1,-0.015,0.005
00:41:02.367:1,-0.005,0.035
00:41:02.375:1,0.015,0.045
00:41:02.383:1,0.025,0.035
00:41:02.391:1,0.045,0.045
00:41:02.398:1,0.055,0.065
00:41:02.406:1,0.045,0.075
00:41:02.414:1,0.065,0.095
00:41:02.422:1,0.065,0.095
00:41:02.430:1,0.095,0.105
00:41:02.438:1,0.105,0.095
00:41:02.445:1,0.095,0.085
00:41:02.453:1,0.085,0.075
00:41:02.461:1,0.105,0.075
00:41:02.469:1,0.075,0.055
00:41:02.477:1,0.095,0.035
00:41:02.484:1,0.075,0.025
00:41:02.492:1,0.035,0.015
00:41:02.500:1,-0.005,-0.005
00:41:02.508:1,-0.025,-0.035
00:41:02.516:1,-0.045,-0.045
00:41:02.523:1,-0.065,-0.055
00:41:02.531:1,-0.075,-0.065
00:41:02.539:1,-0.095,-0.075
00:41:02.547:1,-0.105,-0.065
00:41:02.555:1,-0.085,-0.065
00:41:02.563:1,-0.085,-0.055
00:41:02.570:1,-0.095,-0.065
00:41:02.578:1,-0.105,-0.045
00:41:02.586:1,-0.095,-0.045
00:41:02.594:1,-0.085,-0.045
00:41:02.602:1,-0.085,-0.055
00:41:02.609:1,-0.075,-0.035
00:41:02.617:1,-0.105,-0.025
00:41:02.625:1,-0.085,-0.015
00:41:02.633:1,-0.085,-0.035
00:41:02.641:1,-0.085,-0.025
00:41:02.648:1,-0.085,-0.015
00:41:02.656:1,-0.095,-0.035
00:41:02.664:1,-0.095,-0.015
00:41:02.672:1,-0.065,-0.015
00:41:02.680:1,-0.095,-0.015
00:41:02.688:1,-0.105,-0.035
00:41:02.695:1,-0.085,-0.025
00:41:02.703:1,-0.065,0.015
00:41:02.711:1,-0.035,0.035
00:41:02.719:1,-0.025,0.025
00:41:02.727:1,-0.015,0.035
00:41:02.734:1,-0.005,0.025
00:41:02.742:1,0.035,0.015
00:41:02.750:1,0.005,-0.035
00:41:02.758:1,0.025,-0.015
00:41:02.766:1,0.015,-0.015
00:41:02.773:1,0.005,-0.035
00:41:02.781:1,-0.035,-0.035
00:41:02.789:1,-0.115,-0.045
00:41:02.797:1,-0.125,-0.065
00:41:02.805:1,-0.125,-0.065
00:41:02.813:1,-0.145,-0.065
00:41:02.820:1,-0.155,-0.065
00:41:02.828:1,-0.125,-0.065
00:41:02.836:1,-0.105,-0.065
00:41:02.844:1,-0.135,-0.065
00:41:02.852:1,-0.205,-0.075
00:41:02.859:1,-0.065,-0.085
00:41:02.867:1,-0.095,-0.095
00:41:02.875:1,-0.145,-0.065
00:41:02.883:1,-0.145,-0.045
00:41:02.891:1,-0.145,-0.065
00:41:02.898:1,-0.165,-0.035
00:41:02.906:1,0.015,-0.025
00:41:02.914:1,0.315,-0.035
00:41:02.922:1,1.085,-0.205
00:41:02.930:1,1.915,-0.365
00:41:02.938:1,0.315,-0.595
00:41:02.945:1,-0.915,-0.535
00:41:02.953:1,-0.735,-0.225
00:41:02.961:1,-0.285,-0.045
00:41:02.969:1,-0.175,-0.005
00:41:02.977:1,-0.125,0.005
00:41:02.984:1,-0.095,0.025
00:41:02.992:1,-0.095,0.015
00:41:03.000:1,-0.125,0.015
00:41:03.008:1,-0.095,0.005
00:41:03.016:1,-0.075,0.025
00:41:03.023:1,-0.115,0.025
00:41:03.031:1,-0.105,0.025
00:41:03.039:1,-0.115,0.025
00:41:03.047:1,-0.075,0.045
00:41:03.055:1,-0.065,0.025
00:41:03.063:1,-0.065,0.065
00:41:03.070:1,-0.055,0.025
00:41:03.078:1,-0.065,0.045
00:41:03.086:1,-0.055,0.065
00:41:03.094:1,-0.055,0.065
00:41:03.102:1,0.005,0.095
00:41:03.109:1,-0.005,0.085
00:41:03.117:1,0.005,0.115
00:41:03.125:1,0.025,0.135
00:41:03.133:1,0.025,0.135
00:41:03.141:1,0.035,0.125
00:41:03.148:1,0.045,0.135
00:41:03.156:1,0.065,0.145
00:41:03.164:1,0.085,0.135
00:41:03.172:1,0.065,0.155
00:41:03.180:1,0.025,0.145
00:41:03.188:1,0.055,0.145
00:41:03.195:1,0.055,0.085
00:41:03.203:1,0.015,0.065
00:41:03.211:1,0.045,0.075
00:41:03.219:1,-0.005,0.025
00:41:03.227:1,-0.035,-0.005
00:41:03.234:1,-0.065,-0.005
00:41:03.242:1,-0.095,-0.015
00:41:03.250:1,-0.135,-0.025
00:41:03.258:1,-0.115,-0.055
00:41:03.266:1,-0.125,-0.035
00:41:03.273:1,-0.135,-0.035
00:41:03.281:1,-0.115,-0.035
00:41:03.289:1,-0.115,-0.035
00:41:03.297:1,-0.125,-0.025
00:41:03.305:1,-0.145,-0.015
00:41:03.313:1,-0.115,-0.005
00:41:03.320:1,-0.105,0.015
00:41:03.328:1,-0.135,0.005
00:41:03.336:1,-0.105,-0.015
00:41:03.344:1,-0.125,-0.005
00:41:03.352:1,-0.075,0.005
00:41:03.359:1,-0.075,0.015
00:41:03.367:1,-0.085,0.015
00:41:03.375:1,-0.115,0.015
00:41:03.383:1,-0.065,0.005
00:41:03.391:1,-0.095,-0.005
00:41:03.398:1,-0.095,0.045
00:41:03.406:1,-0.075,0.025
00:41:03.414:1,-0.105,-0.015
00:41:03.422:1,-0.085,-0.005
00:41:03.430:1,-0.095,0.025
00:41:03.438:1,-0.125,-0.015
00:41:03.445:1,-0.095,-0.015
00:41:03.453:1,-0.075,0.005
00:41:03.461:1,-0.075,0.045
00:41:03.469:1,-0.035,0.065
00:41:03.477:1,-0.025,0.055
00:41:03.484:1,0.005,0.055
00:41:03.492:1,0.015,0.065
00:41:03.500:1,0.035,0.035
00:41:03.508:1,0.035,0.025
00:41:03.516:1,0.045,0.025
00:41:03.523:1,0.035,0.035
00:41:03.531:1,-0.005,-0.005
00:41:03.539:1,-0.045,-0.015
00:41:03.547:1,-0.065,-0.035
00:41:03.555:1,-0.125,-0.045
00:41:03.563:1,-0.135,-0.045
00:41:03.570:1,-0.105,-0.045
00:41:03.578:1,-0.105,-0.045
00:41:03.586:1,-0.125,-0.015
00:41:03.594:1,-0.115,-0.045
00:41:03.602:1,-0.125,-0.045
00:41:03.609:1,-0.125,-0.025
00:41:03.617:1,-0.115,-0.035
00:41:03.625:1,-0.135,-0.065
00:41:03.633:1,-0.105,-0.025
00:41:03.641:1,-0.095,-0.045
00:41:03.648:1,-0.115,-0.045
00:41:03.656:1,-0.125,-0.035
00:41:03.664:1,-0.055,-0.025
00:41:03.672:1,0.175,-0.065
00:41:03.680:1,0.665,-0.215
00:41:03.688:1,1.635,-0.415
00:41:03.695:1,0.725,-0.655
00:41:03.703:1,-0.815,-0.595
00:41:03.711:1,-0.785,-0.305
00:41:03.719:1,-0.265,-0.045
00:41:03.727:1,-0.105,0.045
00:41:03.734:1,-0.085,0.045
00:41:03.742:1,-0.095,0.035
00:41:03.750:1,-0.085,0.025
00:41:03.758:1,-0.115,0.035
00:41:03.766:1,-0.095,0.035
00:41:03.773:1,-0.075,0.035
00:41:03.781:1,-0.075,0.045
00:41:03.789:1,-0.085,0.035
00:41:03.797:1,-0.085,0.045
00:41:03.805:1,-0.065,0.075
00:41:03.813:1,-0.045,0.035
00:41:03.820:1,-0.055,0.065
00:41:03.828:1,-0.055,0.065
00:41:03.836:1,-0.045,0.095
00:41:03.844:1,-0.015,0.075
00:41:03.852:1,-0.015,0.095
00:41:03.859:1,-0.035,0.085
00:41:03.867:1,0.025,0.115
00:41:03.875:1,-0.005,0.135
00:41:03.883:1,0.075,0.155
00:41:03.891:1,0.055,0.135
00:41:03.898:1,0.065,0.165
00:41:03.906:1,0.095,0.185
00:41:03.914:1,0.075,0.185
00:41:03.922:1,0.075,0.175
00:41:03.930:1,0.095,0.175
00:41:03.938:1,0.065,0.145
00:41:03.945:1,0.105,0.155
00:41:03.953:1,0.095,0.095
00:41:03.961:1,0.085,0.115
00:41:03.969:1,0.035,0.065
00:41:03.977:1,0.035,0.065
00:41:03.984:1,0.015,0.025
00:41:03.992:1,-0.045,-0.025
00:41:04.000:1,-0.075,-0.025
00:41:04.008:1,-0.085,-0.025
00:41:04.016:1,-0.085,-0.005
00:41:04.023:1,-0.085,0.015
00:41:04.031:1,-0.075,-0.035
00:41:04.039:1,-0.115,-0.115
00:41:04.047:1,-0.085,-0.095
00:41:04.055:1,-0.105,-0.005
00:41:04.063:1,-0.115,-0.055
00:41:04.070:1,-0.095,-0.035
00:41:04.078:1,-0.065,0.045
00:41:04.086:1,-0.085,-0.015
00:41:04.094:1,-0.105,-0.025
00:41:04.102:1,-0.125,-0.015
00:41:04.109:1,-0.085,-0.025
00:41:04.117:1,-0.105,0.005
00:41:04.125:1,-0.125,0.035
00:41:04.133:1,-0.105,-0.085
00:41:04.141:1,-0.115,-0.085
00:41:04.148:1,-0.105,-0.015
00:41:04.156:1,-0.125,-0.065
00:41:04.164:1,-0.125,-0.065
00:41:04.172:1,-0.075,0.005
00:41:04.180:1,-0.065,-0.025
00:41:04.188:1,-0.175,-0.075
00:41:04.195:1,-0.135,0.025
00:41:04.203:1,-0.115,-0.115
00:41:04.211:1,-0.105,-0.095
00:41:04.219:1,-0.095,-0.065
00:41:04.227:1,-0.075,-0.045
00:41:04.234:1,-0.055,-0.025
00:41:04.242:1,-0.065,0.025
00:41:04.250:1,-0.095,-0.015
00:41:04.258:1,-0.055,-0.075
00:41:04.266:1,-0.035,-0.065
00:41:04.273:1,0.075,-0.005
00:41:04.281:1,0.055,-0.055
00:41:04.289:1,0.015,-0.055
00:41:04.297:1,-0.065,-0.065
00:41:04.305:1,-0.075,-0.045
00:41:04.313:1,-0.095,-0.045
00:41:04.320:1,-0.175,-0.105
00:41:04.328:1,-0.135,-0.065
00:41:04.336:1,-0.135,-0.135
00:41:04.344:1,-0.175,-0.115
00:41:04.352:1,-0.175,-0.185
00:41:04.359:1,-0.115,-0.175
00:41:04.367:1,-0.155,-0.105
00:41:04.375:1,-0.145,-0.125
00:41:04.383:1,-0.225,-0.095
00:41:04.391:1,-0.115,-0.165
00:41:04.398:1,-0.135,-0.065
00:41:04.406:1,-0.065,-0.075
00:41:04.414:1,-0.145,-0.115
00:41:04.422:1,-0.185,-0.105
00:41:04.430:1,-0.015,-0.075
00:41:04.438:1,0.375,-0.105
00:41:04.445:1,1.235,-0.245
00:41:04.453:1,1.395,-0.485
00:41:04.461:1,-0.305,-0.575
00:41:04.469:1,-0.905,-0.395
00:41:04.477:1,-0.535,-0.225
00:41:04.484:1,-0.225,-0.135
00:41:04.492:1,-0.115,-0.055
00:41:04.500:1,-0.105,-0.045
00:41:04.508:1,-0.125,-0.045
00:41:04.516:1,-0.115,-0.035
00:41:04.523:1,-0.105,-0.005
00:41:04.531:1,-0.115,-0.055
00:41:04.539:1,-0.125,-0.035
00:41:04.547:1,-0.085,-0.005
00:41:04.555:1,-0.085,-0.105
00:41:04.563:1,-0.105,-0.035
00:41:04.570:1,-0.095,-0.025
00:41:04.578:1,-0.085,-0.035
00:41:04.586:1,-0.085,-0.035
00:41:04.594:1,-0.055,0.015
00:41:04.602:1,-0.065,0.005
00:41:04.609:1,-0.045,-0.085
00:41:04.617:1,-0.015,-0.005
00:41:04.625:1,-0.045,-0.005
00:41:04.633:1,0.045,-0.025
00:41:04.641:1,-0.005,-0.005
00:41:04.648:1,-0.005,0.035
00:41:04.656:1,0.005,0.015
00:41:04.664:1,0.035,0.055
00:41:04.672:1,0.065,0.025
00:41:04.680:1,0.025,0.135
00:41:04.688:1,0.035,0.035
00:41:04.695:1,-0.005,-0.025
00:41:04.703:1,-0.015,-0.015
00:41:04.711:1,0.055,-0.025
00:41:04.719:1,0.005,-0.055
00:41:04.727:1,0.005,-0.035
00:41:04.734:1,-0.015,-0.035
00:41:04.742:1,-0.015,0.025
00:41:04.750:1,-0.115,-0.115
00:41:04.758:1,-0.075,-0.045
00:41:04.766:1,-0.115,-0.125
00:41:04.773:1,-0.145,-0.105
00:41:04.781:1,-0.105,-0.045
00:41:04.789:1,-0.145,-0.125
00:41:04.797:1,-0.135,-0.145
00:41:04.805:1,-0.135,-0.095
00:41:04.813:1,-0.125,-0.115
00:41:04.820:1,-0.115,-0.115
00:41:04.828:1,-0.125,-0.085
00:41:04.836:1,-0.135,-0.135
00:41:04.844:1,-0.115,-0.045
00:41:04.852:1,-0.135,-0.075
00:41:04.859:1,-0.095,-0.095
00:41:04.867:1,-0.105,-0.115
00:41:04.875:1,-0.085,-0.035
00:41:04.883:1,-0.145,-0.025
00:41:04.891:1,-0.155,-0.105
00:41:04.898:1,-0.065,-0.105
00:41:04.906:1,-0.105,-0.105
00:41:04.914:1,-0.105,-0.075
00:41:04.922:1,-0.115,-0.105
00:41:04.930:1,-0.135,-0.105
00:41:04.938:1,-0.085,-0.115
00:41:04.945:1,-0.125,-0.115
00:41:04.953:1,-0.135,-0.035
00:41:04.961:1,-0.085,-0.045
00:41:04.969:1,-0.095,-0.075
00:41:04.977:1,-0.055,-0.055
00:41:04.984:1,-0.045,-0.005
00:41:04.992:1,-0.045,-0.075
00:41:05.000:1,-0.035,-0.045
00:41:05.008:1,-0.025,-0.105
00:41:05.016:1,0.015,-0.045
00:41:05.023:1,0.035,-0.085
00:41:05.031:1,-0.015,-0.135
00:41:05.039:1,-0.075,-0.105
00:41:05.047:1,-0.115,-0.105
00:41:05.055:1,-0.165,-0.135
00:41:05.063:1,-0.145,-0.065
00:41:05.070:1,-0.135,-0.165
00:41:05.078:1,-0.185,-0.155
00:41:05.086:1,-0.205,-0.145
00:41:05.094:1,-0.165,-0.185
00:41:05.102:1,-0.175,-0.185
00:41:05.109:1,-0.145,-0.145
00:41:05.117:1,-0.175,-0.155
00:41:05.125:1,-0.205,-0.145
00:41:05.133:1,-0.095,-0.055
00:41:05.141:1,-0.155,-0.165
00:41:05.148:1,-0.175,-0.145
00:41:05.156:1,-0.165,-0.085
00:41:05.164:1,-0.075,-0.235
00:41:05.172:1,0.285,-0.135
00:41:05.180:1,1.195,-0.345
00:41:05.188:1,1.635,-0.505
00:41:05.195:1,-0.225,-0.695
00:41:05.203:1,-0.985,-0.475
00:41:05.211:1,-0.585,-0.235
00:41:05.219:1,-0.245,-0.155
00:41:05.227:1,-0.165,-0.105
00:41:05.234:1,-0.105,0.005
00:41:05.242:1,-0.155,-0.155
00:41:05.250:1,-0.135,-0.095
00:41:05.258:1,-0.125,-0.075
00:41:05.266:1,-0.115,-0.075
00:41:05.273:1,-0.095,-0.065
00:41:05.281:1,-0.135,-0.115
00:41:05.289:1,-0.105,-0.075
00:41:05.297:1,-0.075,-0.035
00:41:05.305:1,-0.065,-0.015
00:41:05.313:1,-0.105,-0.075
00:41:05.320:1,-0.085,-0.085
00:41:05.328:1,-0.065,-0.055
00:41:05.336:1,-0.035,0.065
00:41:05.344:1,-0.015,-0.065
00:41:05.352:1,-0.055,-0.065
00:41:05.359:1,-0.025,-0.005
00:41:05.367:1,-0.005,-0.065
00:41:05.375:1,-0.015,-0.015
00:41:05.383:1,0.045,0.015
00:41:05.391:1,-0.005,0.005
00:41:05.398:1,0.035,0.005
00:41:05.406:1,0.015,0.065
00:41:05.414:1,0.095,0.085
00:41:05.422:1,-0.005,-0.075
00:41:05.430:1,0.025,-0.005
00:41:05.438:1,-0.005,-0.015
00:41:05.445:1,0.005,0.025
00:41:05.453:1,-0.005,-0.085
00:41:05.461:1,0.025,0.005
00:41:05.469:1,-0.065,-0.105
00:41:05.477:1,-0.085,-0.065
00:41:05.484:1,-0.055,-0.085
00:41:05.492:1,-0.115,-0.135
00:41:05.500:1,-0.135,-0.165
00:41:05.508:1,-0.125,-0.135
00:41:05.516:1,-0.105,-0.125
00:41:05.523:1,-0.135,-0.105
00:41:05.531:1,-0.095,-0.125
00:41:05.539:1,-0.115,-0.125
00:41:05.547:1,-0.145,-0.135
00:41:05.555:1,-0.125,-0.115
00:41:05.563:1,-0.105,-0.115
00:41:05.570:1,-0.115,-0.135
00:41:05.578:1,-0.125,-0.115
00:41:05.586:1,-0.105,-0.115
00:41:05.594:1,-0.095,-0.105
00:41:05.602:1,-0.075,-0.095
00:41:05.609:1,-0.095,-0.115
00:41:05.617:1,-0.075,-0.095
00:41:05.625:1,-0.105,-0.095
00:41:05.633:1,-0.115,-0.135
00:41:05.641:1,-0.095,-0.125
00:41:05.648:1,-0.095,-0.105
00:41:05.656:1,-0.085,-0.105
00:41:05.664:1,-0.085,-0.115
00:41:05.672:1,-0.095,-0.065
00:41:05.680:1,-0.055,-0.095
00:41:05.688:1,-0.145,-0.155
00:41:05.695:1,-0.095,-0.055
00:41:05.703:1,-0.105,-0.175
00:41:05.711:1,-0.095,-0.145
00:41:05.719:1,-0.095,-0.135
00:41:05.727:1,-0.095,-0.105
00:41:05.734:1,-0.075,-0.085
00:41:05.742:1,-0.025,-0.055
00:41:05.750:1,-0.025,-0.055
00:41:05.758:1,-0.025,-0.045
00:41:05.766:1,-0.035,-0.085
00:41:05.773:1,0.025,-0.075
00:41:05.781:1,0.045,-0.075
00:41:05.789:1,0.055,-0.065
00:41:05.797:1,0.035,-0.115
00:41:05.805:1,-0.005,-0.135
00:41:05.813:1,-0.035,-0.115
00:41:05.820:1,-0.115,-0.135
00:41:05.828:1,-0.115,-0.175
00:41:05.836:1,-0.125,-0.145
00:41:05.844:1,-0.125,-0.155
00:41:05.852:1,-0.155,-0.115
00:41:05.859:1,-0.145,-0.095
00:41:05.867:1,-0.175,-0.155
00:41:05.875:1,-0.145,-0.205
00:41:05.883:1,-0.145,-0.215
00:41:05.891:1,-0.145,-0.155
00:41:05.898:1,-0.105,-0.115
00:41:05.906:1,-0.135,-0.175
00:41:05.914:1,-0.095,-0.135
00:41:05.922:1,-0.135,-0.145
00:41:05.930:1,-0.115,-0.135
00:41:05.938:1,0.055,-0.095
00:41:05.945:1,0.525,-0.285
00:41:05.953:1,1.495,-0.575
00:41:05.961:1,0.985,-0.775
00:41:05.969:1,-0.765,-0.765
00:41:05.977:1,-0.805,-0.415
00:41:05.984:1,-0.345,-0.175
00:41:05.992:1,-0.105,-0.025
00:41:06.000:1,-0.115,-0.075
00:41:06.008:1,-0.115,-0.045
00:41:06.016:1,-0.095,-0.065
00:41:06.023:1,-0.105,-0.055
00:41:06.031:1,-0.085,-0.035
00:41:06.039:1,-0.095,-0.085
00:41:06.047:1,-0.095,-0.055
00:41:06.055:1,-0.075,-0.025
00:41:06.063:1,-0.085,-0.025
00:41:06.070:1,-0.105,-0.075
00:41:06.078:1,-0.055,-0.055
00:41:06.086:1,-0.055,-0.025
00:41:06.094:1,-0.045,-0.015
00:41:06.102:1,-0.055,-0.005
00:41:06.109:1,-0.015,0.015
00:41:06.117:1,-0.005,0.015
00:41:06.125:1,-0.005,0.025
00:41:06.133:1,-0.015,0.055
00:41:06.141:1,0.045,0.025
00:41:06.148:1,0.035,0.015
00:41:06.156:1,0.025,0.045
00:41:06.164:1,0.035,0.065
00:41:06.172:1,0.085,0.085
00:41:06.180:1,0.055,0.115
00:41:06.188:1,0.085,0.165
00:41:06.195:1,0.085,-0.005
00:41:06.203:1,0.035,0.025
00:41:06.211:1,0.065,0.045
00:41:06.219:1,0.095,0.005
00:41:06.227:1,0.085,-0.045
00:41:06.234:1,0.095,-0.015
00:41:06.242:1,0.025,-0.005
00:41:06.250:1,-0.045,-0.045
00:41:06.258:1,-0.035,-0.075
00:41:06.266:1,-0.065,-0.075
00:41:06.273:1,-0.075,-0.055
00:41:06.281:1,-0.085,-0.055
00:41:06.289:1,-0.125,-0.125
00:41:06.297:1,-0.085,-0.115
00:41:06.305:1,-0.115,-0.135
00:41:06.313:1,-0.085,-0.135
00:41:06.320:1,-0.105,-0.125
00:41:06.328:1,-0.105,-0.095
00:41:06.336:1,-0.105,-0.075
00:41:06.344:1,-0.075,-0.065
00:41:06.352:1,-0.085,-0.055
00:41:06.359:1,-0.085,-0.095
00:41:06.367:1,-0.095,-0.075
00:41:06.375:1,-0.095,-0.105
00:41:06.383:1,-0.095,-0.095
00:41:06.391:1,-0.105,-0.085
00:41:06.398:1,-0.075,-0.025
00:41:06.406:1,-0.085,-0.115
00:41:06.414:1,-0.075,-0.125
00:41:06.422:1,-0.065,-0.105
00:41:06.430:1,-0.085,-0.095
00:41:06.438:1,-0.095,-0.075
00:41:06.445:1,-0.055,-0.065
00:41:06.453:1,-0.085,-0.085
00:41:06.461:1,-0.105,-0.095
00:41:06.469:1,-0.105,-0.125
00:41:06.477:1,-0.085,-0.085
00:41:06.484:1,-0.105,-0.125
00:41:06.492:1,-0.095,-0.125
00:41:06.500:1,-0.065,-0.105
00:41:06.508:1,-0.115,-0.135
00:41:06.516:1,-0.085,-0.115
00:41:06.523:1,-0.055,-0.055
00:41:06.531:1,-0.025,-0.035
00:41:06.539:1,0.005,-0.045
00:41:06.547:1,-0.015,-0.055
00:41:06.555:1,-0.005,-0.055
00:41:06.563:1,0.045,-0.075
00:41:06.570:1,0.035,-0.075
00:41:06.578:1,0.075,-0.085
00:41:06.586:1,0.015,-0.095
00:41:06.594:1,-0.015,-0.105
00:41:06.602:1,-0.095,-0.125
00:41:06.609:1,-0.105,-0.145
00:41:06.617:1,-0.115,-0.145
00:41:06.625:1,-0.125,-0.125
00:41:06.633:1,-0.135,-0.195
00:41:06.641:1,-0.155,-0.175
00:41:06.648:1,-0.135,-0.165
00:41:06.656:1,-0.145,-0.165
00:41:06.664:1,-0.145,-0.145
00:41:06.672:1,-0.115,-0.175
00:41:06.680:1,-0.125,-0.165
00:41:06.688:1,-0.125,-0.125
00:41:06.695:1,-0.085,-0.165
00:41:06.703:1,-0.135,-0.175
00:41:06.711:1,-0.045,-0.125
00:41:06.719:1,0.185,-0.175
00:41:06.727:1,0.775,-0.435
00:41:06.734:1,1.755,-0.645
00:41:06.742:1,0.325,-0.855
00:41:06.750:1,-0.955,-0.665
00:41:06.758:1,-0.575,-0.315
00:41:06.766:1,-0.175,-0.105
00:41:06.773:1,-0.085,-0.055
00:41:06.781:1,-0.105,-0.065
00:41:06.789:1,-0.095,-0.075
00:41:06.797:1,-0.095,-0.065
00:41:06.805:1,-0.085,-0.065
00:41:06.813:1,-0.085,-0.025
00:41:06.820:1,-0.085,-0.115
00:41:06.828:1,-0.055,-0.065
00:41:06.836:1,-0.075,-0.035
00:41:06.844:1,-0.085,-0.095
00:41:06.852:1,-0.075,-0.075
00:41:06.859:1,-0.065,-0.055
00:41:06.867:1,-0.055,-0.045
00:41:06.875:1,-0.055,-0.035
00:41:06.883:1,-0.015,-0.035
00:41:06.891:1,-0.045,-0.025
00:41:06.898:1,-0.015,-0.015
00:41:06.906:1,-0.005,0.005
00:41:06.914:1,0.005,-0.005
00:41:06.922:1,0.025,0.035
00:41:06.930:1,0.025,0.075
00:41:06.938:1,0.025,0.005
00:41:06.945:1,0.035,0.035
00:41:06.953:1,0.065,0.075
00:41:06.961:1,0.055,0.055
00:41:06.969:1,0.075,0.025
00:41:06.977:1,0.045,0.035
00:41:06.984:1,0.025,0.015
00:41:06.992:1,0.035,0.015
00:41:07.000:1,0.035,-0.005
00:41:07.008:1,0.005,-0.005
00:41:07.016:1,-0.015,-0.015
00:41:07.023:1,-0.025,-0.045
00:41:07.031:1,-0.075,-0.065
00:41:07.039:1,-0.095,-0.125
00:41:07.047:1,-0.145,-0.095
00:41:07.055:1,-0.135,-0.105
00:41:07.063:1,-0.155,-0.125
00:41:07.070:1,-0.165,-0.125
00:41:07.078:1,-0.175,-0.135
00:41:07.086:1,-0.165,-0.115
00:41:07.094:1,-0.135,-0.105
00:41:07.102:1,-0.155,-0.125
00:41:07.109:1,-0.125,-0.085
00:41:07.117:1,-0.135,-0.115
00:41:07.125:1,-0.155,-0.105
00:41:07.133:1,-0.135,-0.105
00:41:07.141:1,-0.145,-0.105
00:41:07.148:1,-0.155,-0.105
00:41:07.156:1,-0.155,-0.105
00:41:07.164:1,-0.155,-0.105
00:41:07.172:1,-0.145,-0.115
00:41:07.180:1,-0.135,-0.095
00:41:07.188:1,-0.155,-0.115
00:41:07.195:1,-0.165,-0.125
00:41:07.203:1,-0.155,-0.115
00:41:07.211:1,-0.145,-0.115
00:41:07.219:1,-0.165,-0.135
00:41:07.227:1,-0.165,-0.145
00:41:07.234:1,-0.195,-0.155
00:41:07.242:1,-0.155,-0.135
00:41:07.250:1,-0.175,-0.135
00:41:07.258:1,-0.185,-0.155
00:41:07.266:1,-0.165,-0.135
00:41:07.273:1,-0.165,-0.135
00:41:07.281:1,-0.155,-0.105
00:41:07.289:1,-0.115,-0.095
00:41:07.297:1,-0.125,-0.075
00:41:07.305:1,-0.085,-0.075
00:41:07.313:1,-0.055,-0.105
00:41:07.320:1,-0.045,-0.095
00:41:07.328:1,-0.055,-0.105
00:41:07.336:1,0.005,-0.075
00:41:07.344:1,-0.035,-0.125
00:41:07.352:1,-0.085,-0.135
00:41:07.359:1,-0.145,-0.175
00:41:07.367:1,-0.185,-0.175
00:41:07.375:1,-0.155,-0.185
00:41:07.383:1,-0.205,-0.185
00:41:07.391:1,-0.195,-0.185
00:41:07.398:1,-0.195,-0.165
00:41:07.406:1,-0.185,-0.175
00:41:07.414:1,-0.195,-0.175
00:41:07.422:1,-0.175,-0.175
00:41:07.430:1,-0.195,-0.195
00:41:07.438:1,-0.175,-0.175
00:41:07.445:1,-0.175,-0.175
00:41:07.453:1,-0.175,-0.195
00:41:07.461:1,-0.155,-0.155
00:41:07.469:1,-0.185,-0.145
00:41:07.477:1,-0.045,-0.165
00:41:07.484:1,0.415,-0.215
00:41:07.492:1,1.355,-0.445
00:41:07.500:1,0.795,-0.665
00:41:07.508:1,-0.725,-0.745
00:41:07.516:1,-0.895,-0.395
00:41:07.523:1,-0.395,-0.185
00:41:07.531:1,-0.255,-0.165
00:41:07.539:1,-0.175,-0.135
00:41:07.547:1,-0.135,-0.095
00:41:07.555:1,-0.145,-0.095
00:41:07.563:1,-0.145,-0.095
00:41:07.570:1,-0.165,-0.095
00:41:07.578:1,-0.165,-0.095
00:41:07.586:1,-0.165,-0.085
00:41:07.594:1,-0.145,-0.095
00:41:07.602:1,-0.145,-0.095
00:41:07.609:1,-0.125,-0.095
00:41:07.617:1,-0.115,-0.075
00:41:07.625:1,-0.115,-0.075
00:41:07.633:1,-0.145,-0.085
00:41:07.641:1,-0.145,-0.095
00:41:07.648:1,-0.085,-0.045
00:41:07.656:1,-0.055,-0.075
00:41:07.664:1,-0.105,-0.075
00:41:07.672:1,-0.095,-0.055
00:41:07.680:1,-0.055,-0.035
00:41:07.688:1,-0.065,-0.045
00:41:07.695:1,-0.055,-0.045
00:41:07.703:1,-0.045,-0.035
00:41:07.711:1,-0.005,-0.015
00:41:07.719:1,-0.025,-0.045
00:41:07.727:1,-0.025,-0.035
00:41:07.734:1,-0.005,-0.035
00:41:07.742:1,-0.005,-0.045
00:41:07.750:1,-0.055,-0.075
00:41:07.758:1,-0.055,-0.095
00:41:07.766:1,-0.095,-0.105
00:41:07.773:1,-0.035,-0.085
00:41:07.781:1,-0.075,-0.095
00:41:07.789:1,-0.125,-0.125
00:41:07.797:1,-0.155,-0.145
00:41:07.805:1,-0.155,-0.135
00:41:07.813:1,-0.155,-0.125
00:41:07.820:1,-0.145,-0.135
00:41:07.828:1,-0.165,-0.135
00:41:07.836:1,-0.175,-0.135
00:41:07.844:1,-0.165,-0.125
00:41:07.852:1,-0.175,-0.145
00:41:07.859:1,-0.175,-0.145
00:41:07.867:1,-0.155,-0.125
00:41:07.875:1,-0.175,-0.135
00:41:07.883:1,-0.165,-0.135
00:41:07.891:1,-0.155,-0.145
00:41:07.898:1,-0.125,-0.105
00:41:07.906:1,-0.135,-0.135
00:41:07.914:1,-0.145,-0.135
00:41:07.922:1,-0.145,-0.125
00:41:07.930:1,-0.095,-0.115
00:41:07.938:1,-0.185,-0.115
00:41:07.945:1,-0.115,-0.115
00:41:07.953:1,-0.145,-0.135
00:41:07.961:1,-0.105,-0.105
00:41:07.969:1,-0.155,-0.115
00:41:07.977:1,-0.095,-0.115
00:41:07.984:1,-0.125,-0.125
00:41:07.992:1,-0.105,-0.105
00:41:08.000:1,-0.125,-0.065
00:41:08.008:1,-0.125,-0.075
00:41:08.016:1,-0.055,-0.055
00:41:08.023:1,-0.055,-0.055
00:41:08.031:1,-0.025,-0.065
00:41:08.039:1,0.025,-0.065
00:41:08.047:1,0.035,-0.075
00:41:08.055:1,0.035,-0.065
00:41:08.063:1,-0.025,-0.115
00:41:08.070:1,-0.085,-0.125
00:41:08.078:1,-0.115,-0.135
00:41:08.086:1,-0.145,-0.145
00:41:08.094:1,-0.145,-0.155
00:41:08.102:1,-0.095,-0.145
00:41:08.109:1,-0.125,-0.165
00:41:08.117:1,-0.115,-0.135
00:41:08.125:1,-0.185,-0.155
00:41:08.133:1,-0.135,-0.135
00:41:08.141:1,-0.145,-0.145
00:41:08.148:1,-0.175,-0.135
00:41:08.156:1,-0.135,-0.145
00:41:08.164:1,-0.085,-0.145
00:41:08.172:1,-0.095,-0.145
00:41:08.180:1,-0.135,-0.135
00:41:08.188:1,-0.125,-0.105
00:41:08.195:1,0.015,-0.165
00:41:08.203:1,0.465,-0.125
00:41:08.211:1,1.545,-0.295
00:41:08.219:1,0.385,-0.605
00:41:08.227:1,-0.715,-0.605
00:41:08.234:1,-0.675,-0.255
00:41:08.242:1,-0.325,-0.195
00:41:08.250:1,-0.205,-0.155
00:41:08.258:1,-0.045,-0.095
00:41:08.266:1,-0.035,-0.095
00:41:08.273:1,-0.075,-0.095
00:41:08.281:1,-0.085,-0.095
00:41:08.289:1,-0.065,-0.085
00:41:08.297:1,-0.025,-0.085
00:41:08.305:1,-0.035,-0.095
00:41:08.313:1,-0.065,-0.095
00:41:08.320:1,-0.035,-0.095
00:41:08.328:1,0.035,-0.085
00:41:08.336:1,0.025,-0.075
00:41:08.344:1,0.045,-0.075
00:41:08.352:1,-0.025,-0.095
00:41:08.359:1,-0.005,-0.075
00:41:08.367:1,0.055,-0.065
00:41:08.375:1,0.015,-0.055
00:41:08.383:1,-0.005,-0.085
00:41:08.391:1,0.095,-0.055
00:41:08.398:1,0.075,-0.045
00:41:08.406:1,0.015,-0.035
00:41:08.414:1,0.095,-0.035
00:41:08.422:1,0.085,-0.045
00:41:08.430:1,0.025,-0.025
00:41:08.438:1,0.025,-0.055
00:41:08.445:1,0.015,-0.055
00:41:08.453:1,0.105,-0.045
00:41:08.461:1,-0.015,-0.075
00:41:08.469:1,-0.065,-0.105
00:41:08.477:1,0.045,-0.095
00:41:08.484:1,-0.025,-0.125
00:41:08.492:1,-0.035,-0.105
00:41:08.500:1,-0.025,-0.135
00:41:08.508:1,-0.035,-0.115
00:41:08.516:1,-0.065,-0.115
00:41:08.523:1,-0.025,-0.115
00:41:08.531:1,-0.005,-0.125
00:41:08.539:1,-0.055,-0.145
00:41:08.547:1,-0.035,-0.135
00:41:08.555:1,-0.065,-0.135
00:41:08.563:1,-0.035,-0.125
00:41:08.570:1,-0.055,-0.165
00:41:08.578:1,-0.055,-0.135
00:41:08.586:1,-0.055,-0.115
00:41:08.594:1,-0.025,-0.125
00:41:08.602:1,-0.095,-0.135
00:41:08.609:1,0.005,-0.125
00:41:08.617:1,-0.055,-0.115
00:41:08.625:1,-0.005,-0.105
00:41:08.633:1,-0.055,-0.125
00:41:08.641:1,0.045,-0.105
00:41:08.648:1,0.005,-0.095
00:41:08.656:1,-0.085,-0.105
00:41:08.664:1,0.005,-0.115
00:41:08.672:1,-0.055,-0.115
00:41:08.680:1,0.035,-0.085
00:41:08.688:1,0.015,-0.065
00:41:08.695:1,-0.015,-0.065
00:41:08.703:1,0.065,-0.045
00:41:08.711:1,0.005,-0.055
00:41:08.719:1,0.035,-0.075
00:41:08.727:1,0.065,-0.085
00:41:08.734:1,0.035,-0.075
00:41:08.742:1,0.075,-0.105
00:41:08.750:1,-0.025,-0.165
00:41:08.758:1,-0.115,-0.165
00:41:08.766:1,-0.005,-0.185
00:41:08.773:1,0.005,-0.145
00:41:08.781:1,-0.165,-0.145
00:41:08.789:1,-0.155,-0.155
00:41:08.797:1,-0.125,-0.175
00:41:08.805:1,-0.155,-0.155
00:41:08.813:1,-0.095,-0.155
00:41:08.820:1,-0.085,-0.195
00:41:08.828:1,-0.105,-0.155
00:41:08.836:1,0.055,-0.195
00:41:08.844:1,-0.185,-0.145
00:41:08.852:1,-0.155,-0.115
00:41:08.859:1,-0.175,-0.155
00:41:08.867:1,-0.125,-0.125
00:41:08.875:1,0.005,-0.145
00:41:08.883:1,0.265,-0.115
00:41:08.891:1,1.295,-0.145
00:41:08.898:1,1.355,-0.365
00:41:08.906:1,-0.315,-0.615
00:41:08.914:1,-0.715,-0.385
00:41:08.922:1,-0.505,-0.145
00:41:08.930:1,-0.245,-0.145
00:41:08.938:1,-0.135,-0.135
00:41:08.945:1,-0.075,-0.115
00:41:08.953:1,-0.125,-0.095
00:41:08.961:1,-0.035,-0.065
00:41:08.969:1,-0.065,-0.105
00:41:08.977:1,-0.145,-0.095
00:41:08.984:1,0.025,-0.105
00:41:08.992:1,-0.005,-0.105
00:41:09.000:1,-0.125,-0.085
00:41:09.008:1,-0.085,-0.055
00:41:09.016:1,-0.085,-0.065
00:41:09.023:1,0.045,-0.035
00:41:09.031:1,-0.065,-0.095
00:41:09.039:1,-0.035,-0.065
00:41:09.047:1,-0.015,-0.075
00:41:09.055:1,0.045,-0.055
00:41:09.063:1,0.025,-0.045
00:41:09.070:1,-0.025,-0.075
00:41:09.078:1,-0.035,-0.055
00:41:09.086:1,0.175,-0.035
00:41:09.094:1,0.005,-0.035
00:41:09.102:1,0.025,-0.015
00:41:09.109:1,0.025,-0.025
00:41:09.117:1,0.025,0.005
00:41:09.125:1,-0.035,-0.005
00:41:09.133:1,0.015,-0.015
00:41:09.141:1,-0.005,-0.055
00:41:09.148:1,0.045,-0.015
00:41:09.156:1,-0.065,-0.065
00:41:09.164:1,-0.115,-0.075
00:41:09.172:1,-0.085,-0.085
00:41:09.180:1,0.035,-0.085
00:41:09.188:1,-0.075,-0.105
00:41:09.195:1,-0.045,-0.135
00:41:09.203:1,0.065,-0.145
00:41:09.211:1,-0.125,-0.135
00:41:09.219:1,-0.115,-0.115
00:41:09.227:1,-0.075,-0.135
00:41:09.234:1,-0.035,-0.105
00:41:09.242:1,-0.115,-0.165
00:41:09.250:1,-0.065,-0.155
00:41:09.258:1,-0.045,-0.135
00:41:09.266:1,-0.145,-0.125
00:41:09.273:1,-0.015,-0.135
00:41:09.281:1,-0.015,-0.135
00:41:09.289:1,-0.095,-0.125
00:41:09.297:1,-0.015,-0.125
00:41:09.305:1,-0.125,-0.105
00:41:09.313:1,0.005,-0.085
00:41:09.320:1,-0.045,-0.105
00:41:09.328:1,-0.085,-0.105
00:41:09.336:1,-0.075,-0.095
00:41:09.344:1,-0.035,-0.095
00:41:09.352:1,-0.045,-0.115
00:41:09.359:1,-0.015,-0.145
00:41:09.367:1,-0.045,-0.105
00:41:09.375:1,0.015,-0.115
00:41:09.383:1,-0.055,-0.135
00:41:09.391:1,-0.125,-0.075
00:41:09.398:1,0.035,-0.035
00:41:09.406:1,-0.005,-0.055
00:41:09.414:1,-0.065,-0.075
00:41:09.422:1,0.065,-0.075
00:41:09.430:1,0.065,-0.065
00:41:09.438:1,0.125,-0.075
00:41:09.445:1,0.055,-0.085
00:41:09.453:1,-0.055,-0.095
00:41:09.461:1,-0.085,-0.075
00:41:09.469:1,-0.085,-0.105
00:41:09.477:1,-0.105,-0.145
00:41:09.484:1,-0.085,-0.155
00:41:09.492:1,-0.105,-0.125
00:41:09.500:1,-0.115,-0.135
00:41:09.508:1,-0.115,-0.145
00:41:09.516:1,-0.155,-0.125
00:41:09.523:1,-0.125,-0.135
00:41:09.531:1,-0.065,-0.135
00:41:09.539:1,-0.005,-0.125
00:41:09.547:1,-0.185,-0.135
00:41:09.555:1,-0.095,-0.135
00:41:09.563:1,-0.085,-0.135
00:41:09.570:1,-0.155,-0.105
00:41:09.578:1,0.015,-0.105
00:41:09.586:1,0.395,-0.095
00:41:09.594:1,1.415,-0.315
00:41:09.602:1,1.455,-0.535
00:41:09.609:1,-0.395,-0.805
00:41:09.617:1,-0.645,-0.495
00:41:09.625:1,-0.355,-0.215
00:41:09.633:1,-0.255,-0.075
00:41:09.641:1,-0.165,-0.065
00:41:09.648:1,-0.125,-0.015
00:41:09.656:1,-0.085,-0.045
00:41:09.664:1,-0.075,-0.055
00:41:09.672:1,0.005,-0.025
00:41:09.680:1,0.095,-0.055
00:41:09.688:1,0.035,0.005
00:41:09.695:1,-0.095,-0.055
00:41:09.703:1,-0.135,-0.055
00:41:09.711:1,-0.055,-0.015
00:41:09.719:1,-0.075,-0.015
00:41:09.727:1,-0.005,-0.025
00:41:09.734:1,0.055,-0.025
00:41:09.742:1,0.325,-0.005
00:41:09.750:1,-0.135,0.025
00:41:09.758:1,0.035,0.045
00:41:09.766:1,-0.035,0.025
00:41:09.773:1,0.135,0.045
00:41:09.781:1,0.115,0.045
00:41:09.789:1,0.085,0.055
00:41:09.797:1,0.105,0.045
00:41:09.805:1,0.105,0.125
00:41:09.813:1,0.125,0.095
00:41:09.820:1,0.095,0.105
00:41:09.828:1,0.045,0.135
00:41:09.836:1,0.525,0.105
00:41:09.844:1,-0.025,0.095
00:41:09.852:1,-0.005,0.105
00:41:09.859:1,0.085,0.035
00:41:09.867:1,0.175,0.055
00:41:09.875:1,0.135,0.025
00:41:09.883:1,0.075,0.015
00:41:09.891:1,0.165,-0.035
00:41:09.898:1,0.075,-0.065
00:41:09.906:1,-0.105,-0.025
00:41:09.914:1,-0.065,-0.105
00:41:09.922:1,-0.035,-0.085
00:41:09.930:1,-0.075,-0.065
00:41:09.938:1,-0.005,-0.065
00:41:09.945:1,-0.035,-0.055
00:41:09.953:1,-0.075,-0.065
00:41:09.961:1,-0.045,-0.035
00:41:09.969:1,-0.045,-0.045
00:41:09.977:1,-0.025,-0.045
00:41:09.984:1,-0.035,-0.045
00:41:09.992:1,-0.065,-0.035
00:41:10.000:1,-0.005,-0.045
00:41:10.008:1,0.015,-0.025
00:41:10.016:1,0.015,-0.055
00:41:10.023:1,-0.045,-0.025
00:41:10.031:1,0.065,-0.015
00:41:10.039:1,-0.065,-0.035
00:41:10.047:1,-0.055,-0.045
00:41:10.055:1,-0.055,-0.025
00:41:10.063:1,0.085,-0.035
00:41:10.070:1,-0.015,-0.045
00:41:10.078:1,-0.035,-0.025
00:41:10.086:1,0.035,-0.045
00:41:10.094:1,-0.005,0.025
00:41:10.102:1,-0.025,0.005
00:41:10.109:1,-0.015,0.025
00:41:10.117:1,0.005,0.025
00:41:10.125:1,-0.025,0.035
00:41:10.133:1,0.085,-0.005
00:41:10.141:1,0.065,-0.005
00:41:10.148:1,0.035,0.005
00:41:10.156:1,0.075,0.005
00:41:10.164:1,0.025,-0.045
00:41:10.172:1,0.015,-0.045
00:41:10.180:1,-0.025,-0.035
00:41:10.188:1,-0.105,-0.085
00:41:10.195:1,0.035,-0.095
00:41:10.203:1,-0.105,-0.085
00:41:10.211:1,-0.185,-0.045
00:41:10.219:1,-0.095,-0.075
00:41:10.227:1,-0.175,-0.075
00:41:10.234:1,-0.165,-0.065
00:41:10.242:1,-0.125,-0.055
00:41:10.250:1,-0.125,-0.065
00:41:10.258:1,-0.095,-0.085
00:41:10.266:1,-0.005,-0.085
00:41:10.273:1,-0.055,-0.055
00:41:10.281:1,-0.135,-0.055
00:41:10.289:1,0.045,-0.045
00:41:10.297:1,0.155,-0.025
00:41:10.305:1,0.785,-0.145
00:41:10.313:1,1.865,-0.405
00:41:10.320:1,0.485,-0.705
00:41:10.328:1,-0.795,-0.635
00:41:10.336:1,-0.595,-0.295
00:41:10.344:1,-0.285,-0.055
00:41:10.352:1,-0.125,0.005
00:41:10.359:1,-0.015,0.015
00:41:10.367:1,-0.105,0.075
00:41:10.375:1,-0.155,0.045
00:41:10.383:1,-0.105,0.035
00:41:10.391:1,-0.045,0.045
00:41:10.398:1,-0.055,0.065
00:41:10.406:1,-0.045,0.035
00:41:10.414:1,-0.045,0.015
00:41:10.422:1,-0.045,0.045
00:41:10.430:1,0.015,0.065
00:41:10.438:1,-0.055,0.055
00:41:10.445:1,0.025,0.095
00:41:10.453:1,0.005,0.075
00:41:10.461:1,-0.025,0.095
00:41:10.469:1,-0.035,0.045
00:41:10.477:1,-0.045,0.075
00:41:10.484:1,0.005,0.075
00:41:10.492:1,0.025,0.135
00:41:10.500:1,0.065,0.185
00:41:10.508:1,0.025,0.145
00:41:10.516:1,0.105,0.155
00:41:10.523:1,0.225,0.145
00:41:10.531:1,0.125,0.205
00:41:10.539:1,0.025,0.165
00:41:10.547:1,0.115,0.195
00:41:10.555:1,0.175,0.165
00:41:10.563:1,0.235,0.155
00:41:10.570:1,0.055,0.175
00:41:10.578:1,0.105,0.085
00:41:10.586:1,0.125,0.275
00:41:10.594:1,0.105,0.125
00:41:10.602:1,0.085,0.005
00:41:10.609:1,0.035,0.045
00:41:10.617:1,0.015,0.015
00:41:10.625:1,-0.015,0.025
00:41:10.633:1,-0.025,-0.015
00:41:10.641:1,-0.055,-0.015
00:41:10.648:1,-0.045,0.015
00:41:10.656:1,-0.095,0.075
00:41:10.664:1,-0.085,0.065
00:41:10.672:1,-0.045,0.155
00:41:10.680:1,-0.045,-0.005
00:41:10.688:1,-0.095,0.015
00:41:10.695:1,-0.045,0.075
00:41:10.703:1,-0.055,-0.165
00:41:10.711:1,-0.035,-0.025
00:41:10.719:1,-0.045,0.025
00:41:10.727:1,-0.065,0.025
00:41:10.734:1,-0.065,0.025
00:41:10.742:1,-0.065,0.055
00:41:10.750:1,-0.075,0.145
00:41:10.758:1,-0.075,0.155
00:41:10.766:1,-0.075,0.015
00:41:10.773:1,-0.065,0.015
00:41:10.781:1,-0.005,0.005
00:41:10.789:1,-0.025,-0.065
00:41:10.797:1,-0.035,-0.015
00:41:10.805:1,-0.055,0.025
00:41:10.813:1,-0.045,0.025
00:41:10.820:1,-0.055,0.025
00:41:10.828:1,-0.015,0.045
00:41:10.836:1,-0.005,0.085
00:41:10.844:1,0.015,0.105
00:41:10.852:1,0.025,0.085
00:41:10.859:1,0.045,0.065
00:41:10.867:1,0.095,0.065
00:41:10.875:1,0.085,0.055
00:41:10.883:1,0.075,0.055
00:41:10.891:1,0.055,0.045
00:41:10.898:1,0.035,0.025
00:41:10.906:1,-0.025,0.005
00:41:10.914:1,-0.055,-0.015
00:41:10.922:1,-0.075,-0.025
00:41:10.930:1,-0.085,-0.025
00:41:10.938:1,-0.105,-0.035
00:41:10.945:1,-0.085,-0.075
00:41:10.953:1,-0.115,-0.035
00:41:10.961:1,-0.115,0.075
00:41:10.969:1,-0.085,-0.075
00:41:10.977:1,-0.105,-0.135
00:41:10.984:1,-0.105,-0.065
00:41:10.992:1,-0.095,-0.025
00:41:11.000:1,-0.095,-0.065
00:41:11.008:1,-0.105,0.005
00:41:11.016:1,-0.055,-0.035
00:41:11.023:1,0.115,0.115
00:41:11.031:1,0.625,-0.085
00:41:11.039:1,1.685,-0.365
00:41:11.047:1,0.875,-0.745
00:41:11.055:1,-0.645,-0.715
00:41:11.063:1,-0.815,-0.265
00:41:11.070:1,-0.345,-0.135
00:41:11.078:1,-0.105,0.055
00:41:11.086:1,-0.085,0.045
00:41:11.094:1,-0.065,0.085
00:41:11.102:1,-0.085,0.005
00:41:11.109:1,-0.065,0.005
00:41:11.117:1,-0.065,0.125
00:41:11.125:1,-0.065,0.115
00:41:11.133:1,-0.055,0.045
00:41:11.141:1,-0.035,0.015
00:41:11.148:1,-0.035,-0.005
00:41:11.156:1,-0.025,0.035
00:41:11.164:1,-0.045,0.085
00:41:11.172:1,0.005,0.075
00:41:11.180:1,-0.005,0.065
00:41:11.188:1,0.005,0.205
00:41:11.195:1,-0.005,0.085
00:41:11.203:1,0.025,0.055
00:41:11.211:1,0.035,0.065
00:41:11.219:1,0.035,0.165
00:41:11.227:1,0.095,0.165
00:41:11.234:1,0.055,0.145
00:41:11.242:1,0.095,0.125
00:41:11.250:1,0.165,0.095
00:41:11.258:1,0.095,0.195
00:41:11.266:1,0.105,0.185
00:41:11.273:1,0.165,0.115
00:41:11.281:1,0.175,0.145
00:41:11.289:1,0.175,0.155
00:41:11.297:1,0.165,0.145
00:41:11.305:1,0.175,0.105
00:41:11.313:1,0.135,0.175
00:41:11.320:1,0.155,0.125
00:41:11.328:1,0.075,0.005
00:41:11.336:1,0.015,0.105
00:41:11.344:1,0.005,0.005
00:41:11.352:1,-0.035,-0.105
00:41:11.359:1,-0.055,-0.015
00:41:11.367:1,-0.075,0.055
00:41:11.375:1,-0.055,0.005
00:41:11.383:1,-0.075,-0.065
00:41:11.391:1,-0.035,-0.035
00:41:11.398:1,-0.075,0.115
00:41:11.406:1,-0.065,0.015
00:41:11.414:1,-0.045,-0.065
00:41:11.422:1,-0.025,-0.015
00:41:11.430:1,-0.045,0.005
00:41:11.438:1,-0.045,-0.035
00:41:11.445:1,-0.035,-0.005
00:41:11.453:1,-0.065,-0.025
00:41:11.461:1,-0.035,0.045
00:41:11.469:1,-0.035,-0.005
00:41:11.477:1,-0.075,-0.015
00:41:11.484:1,-0.065,-0.015
00:41:11.492:1,-0.005,0.025
00:41:11.500:1,-0.035,0.075
00:41:11.508:1,-0.025,-0.015
00:41:11.516:1,-0.055,-0.015
00:41:11.523:1,-0.025,0.025
00:41:11.531:1,-0.045,-0.025
00:41:11.539:1,-0.035,-0.055
00:41:11.547:1,-0.055,-0.035
00:41:11.555:1,0.005,0.045
00:41:11.563:1,0.005,0.065
00:41:11.570:1,0.045,0.065
00:41:11.578:1,0.015,0.045
00:41:11.586:1,0.065,0.045
00:41:11.594:1,0.065,-0.035
00:41:11.602:1,0.045,0.005
00:41:11.609:1,0.085,0.025
00:41:11.617:1,0.035,-0.015
00:41:11.625:1,0.015,-0.005
00:41:11.633:1,-0.055,-0.025
00:41:11.641:1,-0.085,-0.015
00:41:11.648:1,-0.085,-0.035
00:41:11.656:1,-0.115,-0.065
00:41:11.664:1,-0.115,-0.065
00:41:11.672:1,-0.115,-0.045
00:41:11.680:1,-0.115,0.045
00:41:11.688:1,-0.105,-0.135
00:41:11.695:1,-0.135,-0.075
00:41:11.703:1,-0.115,-0.065
00:41:11.711:1,-0.095,-0.085
00:41:11.719:1,-0.085,-0.045
00:41:11.727:1,-0.095,-0.095
00:41:11.734:1,-0.095,-0.025
00:41:11.742:1,-0.105,0.025
00:41:11.750:1,-0.005,0.015
00:41:11.758:1,0.285,-0.025
00:41:11.766:1,0.935,-0.205
00:41:11.773:1,1.695,-0.335
00:41:11.781:1,0.135,-0.735
00:41:11.789:1,-0.865,-0.575
00:41:11.797:1,-0.655,-0.245
00:41:11.805:1,-0.205,-0.065
00:41:11.813:1,-0.095,0.045
00:41:11.820:1,-0.095,-0.035
00:41:11.828:1,-0.085,0.045
00:41:11.836:1,-0.085,0.015
00:41:11.844:1,-0.095,-0.025
00:41:11.852:1,-0.065,0.005
00:41:11.859:1,-0.065,-0.005
00:41:11.867:1,-0.045,0.055
00:41:11.875:1,-0.055,0.075
00:41:11.883:1,-0.055,-0.025
00:41:11.891:1,-0.035,0.065
00:41:11.898:1,-0.015,0.035
00:41:11.906:1,-0.005,0.095
00:41:11.914:1,-0.005,0.015
00:41:11.922:1,-0.035,0.055
00:41:11.930:1,0.025,0.065
00:41:11.938:1,0.025,0.005
00:41:11.945:1,0.025,0.065
00:41:11.953:1,0.045,0.065
00:41:11.961:1,0.065,0.085
00:41:11.969:1,0.075,0.045
00:41:11.977:1,0.075,0.125
00:41:11.984:1,0.085,0.185
00:41:11.992:1,0.125,0.105
00:41:12.000:1,0.135,0.125
00:41:12.008:1,0.135,0.155
00:41:12.016:1,0.165,0.125
00:41:12.023:1,0.175,0.105
00:41:12.031:1,0.155,0.125
00:41:12.039:1,0.165,0.145
00:41:12.047:1,0.175,0.045
00:41:12.055:1,0.135,0.085
00:41:12.063:1,0.105,0.025
00:41:12.070:1,0.065,0.105
00:41:12.078:1,0.035,-0.005
00:41:12.086:1,-0.025,-0.075
00:41:12.094:1,-0.025,-0.015
00:41:12.102:1,-0.075,-0.025
00:41:12.109:1,-0.105,-0.035
00:41:12.117:1,-0.095,0.025
00:41:12.125:1,-0.095,-0.095
00:41:12.133:1,-0.075,-0.135
00:41:12.141:1,-0.105,-0.085
00:41:12.148:1,-0.125,-0.035
00:41:12.156:1,-0.095,0.025
00:41:12.164:1,-0.095,-0.075
00:41:12.172:1,-0.145,0.035
00:41:12.180:1,-0.125,-0.075
00:41:12.188:1,-0.155,-0.095
00:41:12.195:1,-0.105,-0.015
00:41:12.203:1,-0.125,0.025
00:41:12.211:1,-0.135,-0.055
00:41:12.219:1,-0.115,-0.005
00:41:12.227:1,-0.125,-0.005
00:41:12.234:1,-0.115,-0.055
00:41:12.242:1,-0.085,-0.085
00:41:12.250:1,-0.115,-0.085
00:41:12.258:1,-0.105,-0.075
00:41:12.266:1,-0.105,-0.055
00:41:12.273:1,-0.065,0.005
00:41:12.281:1,-0.035,0.005
00:41:12.289:1,-0.055,0.045
00:41:12.297:1,-0.025,0.005
00:41:12.305:1,0.005,-0.025
00:41:12.313:1,-0.005,-0.005
00:41:12.320:1,0.025,-0.035
00:41:12.328:1,0.015,-0.055
00:41:12.336:1,-0.055,-0.045
00:41:12.344:1,-0.075,-0.065
00:41:12.352:1,-0.165,-0.075
00:41:12.359:1,-0.155,-0.045
00:41:12.367:1,-0.175,-0.105
00:41:12.375:1,-0.165,-0.145
00:41:12.383:1,-0.195,-0.145
00:41:12.391:1,-0.185,-0.095
00:41:12.398:1,-0.195,-0.075
00:41:12.406:1,-0.205,-0.105
00:41:12.414:1,-0.185,-0.075
00:41:12.422:1,-0.155,-0.115
00:41:12.430:1,-0.165,-0.095
00:41:12.438:1,-0.225,-0.125
00:41:12.445:1,-0.155,-0.055
00:41:12.453:1,-0.185,-0.115
00:41:12.461:1,-0.085,-0.065
00:41:12.469:1,0.165,-0.055
00:41:12.477:1,0.955,-0.135
00:41:12.484:1,1.715,-0.345
00:41:12.492:1,0.305,-0.455
00:41:12.500:1,-0.825,-0.595
00:41:12.508:1,-0.765,-0.285
00:41:12.516:1,-0.365,-0.035
00:41:12.523:1,-0.165,-0.145
00:41:12.531:1,-0.135,-0.045
00:41:12.539:1,-0.105,-0.085
00:41:12.547:1,-0.145,-0.055
00:41:12.555:1,-0.115,-0.045
00:41:12.563:1,-0.115,-0.045
00:41:12.570:1,-0.095,-0.045
00:41:12.578:1,-0.125,-0.045
00:41:12.586:1,-0.115,-0.035
00:41:12.594:1,-0.105,-0.105
00:41:12.602:1,-0.105,-0.065
00:41:12.609:1,-0.125,-0.025
00:41:12.617:1,-0.085,-0.005
00:41:12.625:1,-0.045,-0.005
00:41:12.633:1,-0.055,-0.065
00:41:12.641:1,-0.045,-0.045
00:41:12.648:1,-0.035,-0.015
00:41:12.656:1,-0.005,0.005
00:41:12.664:1,0.015,0.045
00:41:12.672:1,0.035,-0.025
00:41:12.680:1,0.075,-0.005
00:41:12.688:1,0.055,0.005
00:41:12.695:1,0.085,0.025
00:41:12.703:1,0.075,0.055
00:41:12.711:1,0.105,0.025
00:41:12.719:1,0.085,0.085
00:41:12.727:1,0.115,0.005
00:41:12.734:1,0.115,0.005
00:41:12.742:1,0.125,0.025
00:41:12.750:1,0.055,0.005
00:41:12.758:1,0.105,0.035
00:41:12.766:1,0.045,0.005
00:41:12.773:1,0.015,-0.035
00:41:12.781:1,-0.055,-0.045
00:41:12.789:1,-0.085,-0.075
00:41:12.797:1,-0.095,-0.045
00:41:12.805:1,-0.125,-0.045
00:41:12.813:1,-0.155,-0.085
00:41:12.820:1,-0.145,-0.075
00:41:12.828:1,-0.155,-0.065
00:41:12.836:1,-0.105,-0.105
00:41:12.844:1,-0.115,-0.075
00:41:12.852:1,-0.155,-0.065
00:41:12.859:1,-0.155,-0.095
00:41:12.867:1,-0.145,-0.085
00:41:12.875:1,-0.125,-0.045
00:41:12.883:1,-0.155,-0.085
00:41:12.891:1,-0.145,-0.085
00:41:12.898:1,-0.125,-0.075
00:41:12.906:1,-0.145,-0.115
00:41:12.914:1,-0.095,-0.025
00:41:12.922:1,-0.115,-0.045
00:41:12.930:1,-0.115,-0.105
00:41:12.938:1,-0.105,-0.085
00:41:12.945:1,-0.095,-0.015
00:41:12.953:1,-0.095,-0.065
00:41:12.961:1,-0.105,-0.075
00:41:12.969:1,-0.075,-0.025
00:41:12.977:1,-0.065,-0.005
00:41:12.984:1,-0.065,-0.025
00:41:12.992:1,-0.025,-0.035
00:41:13.000:1,-0.025,-0.035
00:41:13.008:1,-0.025,-0.055
00:41:13.016:1,0.015,-0.025
00:41:13.023:1,0.035,-0.015
00:41:13.031:1,0.025,-0.085
00:41:13.039:1,-0.065,-0.065
00:41:13.047:1,-0.085,-0.095
00:41:13.055:1,-0.105,-0.105
00:41:13.063:1,-0.145,-0.145
00:41:13.070:1,-0.145,-0.105
00:41:13.078:1,-0.165,-0.175
00:41:13.086:1,-0.175,-0.155
00:41:13.094:1,-0.175,-0.125
00:41:13.102:1,-0.195,-0.155
00:41:13.109:1,-0.135,-0.135
00:41:13.117:1,-0.165,-0.165
00:41:13.125:1,-0.165,-0.165
00:41:13.133:1,-0.155,-0.145
00:41:13.141:1,-0.155,-0.145
00:41:13.148:1,-0.145,-0.125
00:41:13.156:1,-0.175,-0.145
00:41:13.164:1,-0.045,-0.095
00:41:13.172:1,0.265,-0.125
00:41:13.180:1,0.975,-0.225
00:41:13.188:1,1.715,-0.425
00:41:13.195:1,-0.125,-0.715
00:41:13.203:1,-0.925,-0.515
00:41:13.211:1,-0.675,-0.285
00:41:13.219:1,-0.295,-0.165
00:41:13.227:1,-0.145,-0.035
00:41:13.234:1,-0.145,-0.095
00:41:13.242:1,-0.145,-0.035
00:41:13.250:1,-0.155,-0.055
00:41:13.258:1,-0.135,-0.115
00:41:13.266:1,-0.135,-0.045
00:41:13.273:1,-0.105,-0.055
00:41:13.281:1,-0.125,-0.085
00:41:13.289:1,-0.115,-0.095
00:41:13.297:1,-0.115,-0.055
00:41:13.305:1,-0.075,-0.045
00:41:13.313:1,-0.095,-0.085
00:41:13.320:1,-0.085,-0.065
00:41:13.328:1,-0.085,-0.085
00:41:13.336:1,-0.035,-0.005
00:41:13.344:1,-0.065,-0.025
00:41:13.352:1,-0.035,-0.075
00:41:13.359:1,-0.005,-0.035
00:41:13.367:1,0.005,0.045
00:41:13.375:1,0.045,-0.015
00:41:13.383:1,0.015,-0.015
00:41:13.391:1,0.045,0.035
00:41:13.398:1,0.065,0.035
00:41:13.406:1,0.085,0.055
00:41:13.414:1,0.085,0.015
00:41:13.422:1,0.115,0.035
00:41:13.430:1,0.125,0.005
00:41:13.438:1,0.095,0.035
00:41:13.445:1,0.145,0.045
00:41:13.453:1,0.115,-0.035
00:41:13.461:1,0.135,-0.005
00:41:13.469:1,0.095,-0.025
00:41:13.477:1,0.045,-0.035
00:41:13.484:1,-0.005,-0.045
00:41:13.492:1,-0.045,-0.085
00:41:13.500:1,-0.055,-0.045
00:41:13.508:1,-0.125,-0.105
00:41:13.516:1,-0.105,-0.135
00:41:13.523:1,-0.125,-0.165
00:41:13.531:1,-0.125,-0.125
00:41:13.539:1,-0.125,-0.155
00:41:13.547:1,-0.135,-0.125
00:41:13.555:1,-0.125,-0.095
00:41:13.563:1,-0.105,-0.095
00:41:13.570:1,-0.135,-0.125
00:41:13.578:1,-0.105,-0.085
00:41:13.586:1,-0.115,-0.075
00:41:13.594:1,-0.125,-0.165
00:41:13.602:1,-0.115,-0.135
00:41:13.609:1,-0.105,-0.085
00:41:13.617:1,-0.115,-0.085
00:41:13.625:1,-0.105,-0.115
00:41:13.633:1,-0.095,-0.075
00:41:13.641:1,-0.105,-0.135
00:41:13.648:1,-0.095,-0.125
00:41:13.656:1,-0.105,-0.075
00:41:13.664:1,-0.095,-0.125
00:41:13.672:1,-0.075,-0.095
00:41:13.680:1,-0.095,-0.095
00:41:13.688:1,-0.065,-0.105
00:41:13.695:1,-0.035,-0.085
00:41:13.703:1,-0.035,-0.045
00:41:13.711:1,-0.025,-0.065
00:41:13.719:1,-0.025,-0.065
00:41:13.727:1,0.015,-0.115
00:41:13.734:1,0.035,-0.065
00:41:13.742:1,0.035,-0.055
00:41:13.750:1,-0.015,-0.115
00:41:13.758:1,-0.015,-0.115
00:41:13.766:1,-0.085,-0.135
00:41:13.773:1,-0.115,-0.165
00:41:13.781:1,-0.135,-0.145
00:41:13.789:1,-0.125,-0.165
00:41:13.797:1,-0.145,-0.125
00:41:13.805:1,-0.145,-0.135
00:41:13.813:1,-0.155,-0.185
00:41:13.820:1,-0.145,-0.155
00:41:13.828:1,-0.155,-0.175
00:41:13.836:1,-0.145,-0.165
00:41:13.844:1,-0.125,-0.135
00:41:13.852:1,-0.125,-0.145
00:41:13.859:1,-0.135,-0.205
00:41:13.867:1,-0.125,-0.135
00:41:13.875:1,-0.115,-0.155
00:41:13.883:1,0.035,-0.135
00:41:13.891:1,0.425,-0.195
00:41:13.898:1,1.345,-0.395
00:41:13.906:1,1.345,-0.585
00:41:13.914:1,-0.445,-0.725
00:41:13.922:1,-0.895,-0.525
00:41:13.930:1,-0.515,-0.235
00:41:13.938:1,-0.185,-0.105
00:41:13.945:1,-0.105,-0.095
00:41:13.953:1,-0.125,-0.085
00:41:13.961:1,-0.115,-0.015
00:41:13.969:1,-0.095,-0.085
00:41:13.977:1,-0.105,-0.055
00:41:13.984:1,-0.105,-0.055
00:41:13.992:1,-0.095,-0.065
00:41:14.000:1,-0.085,-0.045
00:41:14.008:1,-0.095,-0.055
00:41:14.016:1,-0.095,-0.055
00:41:14.023:1,-0.055,-0.035
00:41:14.031:1,-0.065,-0.065
00:41:14.039:1,-0.075,-0.045
00:41:14.047:1,-0.055,-0.025
00:41:14.055:1,-0.035,-0.015
00:41:14.063:1,-0.035,-0.025
00:41:14.070:1,-0.035,-0.035
00:41:14.078:1,-0.005,0.055
00:41:14.086:1,0.005,-0.025
00:41:14.094:1,0.025,0.015
00:41:14.102:1,0.035,0.025
00:41:14.109:1,0.065,0.055
00:41:14.117:1,0.095,0.045
00:41:14.125:1,0.095,0.025
00:41:14.133:1,0.115,0.045
00:41:14.141:1,0.125,-0.005
00:41:14.148:1,0.135,0.025
00:41:14.156:1,0.145,0.045
00:41:14.164:1,0.155,-0.035
00:41:14.172:1,0.145,-0.025
00:41:14.180:1,0.115,0.025
00:41:14.188:1,0.035,-0.055
00:41:14.195:1,0.015,-0.085
00:41:14.203:1,-0.045,-0.065
00:41:14.211:1,-0.085,-0.095
00:41:14.219:1,-0.115,-0.095
00:41:14.227:1,-0.125,-0.115
00:41:14.234:1,-0.125,-0.135
00:41:14.242:1,-0.115,-0.115
00:41:14.250:1,-0.165,-0.135
00:41:14.258:1,-0.155,-0.095
00:41:14.266:1,-0.155,-0.135
00:41:14.273:1,-0.145,-0.045
00:41:14.281:1,-0.155,-0.095
00:41:14.289:1,-0.175,-0.125
00:41:14.297:1,-0.155,-0.145
00:41:14.305:1,-0.145,-0.065
00:41:14.313:1,-0.155,-0.115
00:41:14.320:1,-0.145,-0.075
00:41:14.328:1,-0.155,-0.045
00:41:14.336:1,-0.145,-0.125
00:41:14.344:1,-0.135,-0.105
00:41:14.352:1,-0.125,-0.105
00:41:14.359:1,-0.135,-0.105
00:41:14.367:1,-0.135,-0.095
00:41:14.375:1,-0.125,-0.075
00:41:14.383:1,-0.115,-0.115
00:41:14.391:1,-0.125,-0.115
00:41:14.398:1,-0.125,-0.105
00:41:14.406:1,-0.125,-0.085
00:41:14.414:1,-0.105,-0.075
00:41:14.422:1,-0.075,-0.035
00:41:14.430:1,-0.055,-0.005
00:41:14.438:1,-0.065,-0.055
00:41:14.445:1,-0.045,-0.135
00:41:14.453:1,-0.025,-0.085
00:41:14.461:1,-0.025,-0.035
00:41:14.469:1,-0.005,-0.095
00:41:14.477:1,-0.035,-0.115
00:41:14.484:1,-0.075,-0.105
00:41:14.492:1,-0.115,-0.125
00:41:14.500:1,-0.155,-0.115
00:41:14.508:1,-0.165,-0.185
00:41:14.516:1,-0.195,-0.165
00:41:14.523:1,-0.175,-0.165
00:41:14.531:1,-0.185,-0.135
00:41:14.539:1,-0.195,-0.195
00:41:14.547:1,-0.215,-0.205
00:41:14.555:1,-0.205,-0.155
00:41:14.563:1,-0.205,-0.085
00:41:14.570:1,-0.195,-0.215
00:41:14.578:1,-0.195,-0.165
00:41:14.586:1,-0.185,-0.175
00:41:14.594:1,-0.165,-0.115
00:41:14.602:1,-0.205,-0.165
00:41:14.609:1,-0.095,-0.105
00:41:14.617:1,0.145,-0.135
00:41:14.625:1,0.705,-0.175
00:41:14.633:1,1.605,-0.435
00:41:14.641:1,0.465,-0.605
00:41:14.648:1,-0.825,-0.625
00:41:14.656:1,-0.835,-0.345
00:41:14.664:1,-0.385,-0.205
00:41:14.672:1,-0.185,-0.065
00:41:14.680:1,-0.175,-0.065
00:41:14.688:1,-0.175,-0.095
00:41:14.695:1,-0.165,-0.115
00:41:14.703:1,-0.155,-0.105
00:41:14.711:1,-0.155,-0.025
00:41:14.719:1,-0.125,-0.115
00:41:14.727:1,-0.125,-0.105
00:41:14.734:1,-0.165,-0.075
00:41:14.742:1,-0.125,-0.035
00:41:14.750:1,-0.125,-0.105
00:41:14.758:1,-0.115,-0.085
00:41:14.766:1,-0.125,-0.045
00:41:14.773:1,-0.115,-0.075
00:41:14.781:1,-0.085,-0.065
00:41:14.789:1,-0.085,-0.105
00:41:14.797:1,-0.055,-0.045
00:41:14.805:1,-0.045,-0.005
00:41:14.813:1,-0.035,-0.035
00:41:14.820:1,-0.035,-0.005
00:41:14.828:1,-0.015,-0.035
00:41:14.836:1,0.015,-0.015
00:41:14.844:1,0.015,0.015
00:41:14.852:1,0.045,-0.005
00:41:14.859:1,0.035,0.035
00:41:14.867:1,0.085,0.015
00:41:14.875:1,0.095,-0.015
00:41:14.883:1,0.095,-0.005
00:41:14.891:1,0.085,-0.045
00:41:14.898:1,0.075,0.035
00:41:14.906:1,0.075,-0.065
00:41:14.914:1,0.035,-0.055
00:41:14.922:1,-0.015,-0.075
00:41:14.930:1,-0.055,-0.075
00:41:14.938:1,-0.095,-0.075
00:41:14.945:1,-0.115,-0.125
00:41:14.953:1,-0.125,-0.125
00:41:14.961:1,-0.145,-0.065
00:41:14.969:1,-0.145,-0.095
00:41:14.977:1,-0.185,-0.145
00:41:14.984:1,-0.155,-0.095
00:41:14.992:1,-0.165,-0.085
00:41:15.000:1,-0.175,-0.125
00:41:15.008:1,-0.185,-0.165
00:41:15.016:1,-0.175,-0.125
00:41:15.023:1,-0.165,-0.125
00:41:15.031:1,-0.145,-0.085
00:41:15.039:1,-0.165,-0.125
00:41:15.047:1,-0.165,-0.105
00:41:15.055:1,-0.135,-0.085
00:41:15.063:1,-0.155,-0.115
00:41:15.070:1,-0.155,-0.125
00:41:15.078:1,-0.155,-0.105
00:41:15.086:1,-0.165,-0.105
00:41:15.094:1,-0.135,-0.045
00:41:15.102:1,-0.165,-0.095
00:41:15.109:1,-0.095,-0.055
00:41:15.117:1,-0.065,-0.065
00:41:15.125:1,-0.095,-0.055
00:41:15.133:1,-0.085,-0.025
00:41:15.141:1,-0.035,-0.065
00:41:15.148:1,-0.015,-0.025
00:41:15.156:1,-0.015,-0.095
00:41:15.164:1,-0.045,-0.025
00:41:15.172:1,-0.045,-0.095
00:41:15.180:1,-0.085,-0.105
00:41:15.188:1,-0.135,-0.105
00:41:15.195:1,-0.155,-0.095
00:41:15.203:1,-0.175,-0.175
00:41:15.211:1,-0.195,-0.185
00:41:15.219:1,-0.185,-0.145
00:41:15.227:1,-0.205,-0.115
00:41:15.234:1,-0.235,-0.175
00:41:15.242:1,-0.215,-0.165
00:41:15.250:1,-0.185,-0.105
00:41:15.258:1,-0.215,-0.165
00:41:15.266:1,-0.185,-0.155
00:41:15.273:1,-0.215,-0.155
00:41:15.281:1,-0.175,-0.065
00:41:15.289:1,-0.165,-0.145
00:41:15.297:1,-0.195,-0.125
00:41:15.305:1,-0.115,-0.075
00:41:15.313:1,0.175,-0.085
00:41:15.320:1,0.875,-0.195
00:41:15.328:1,1.815,-0.345
00:41:15.336:1,0.295,-0.605
00:41:15.344:1,-0.925,-0.555
00:41:15.352:1,-0.745,-0.265
00:41:15.359:1,-0.325,-0.105
00:41:15.367:1,-0.175,-0.055
00:41:15.375:1,-0.175,-0.045
00:41:15.383:1,-0.165,-0.055
00:41:15.391:1,-0.185,-0.075
00:41:15.398:1,-0.145,-0.035
00:41:15.406:1,-0.115,-0.055
00:41:15.414:1,-0.105,-0.055
00:41:15.422:1,-0.145,-0.005
00:41:15.430:1,-0.145,-0.045
00:41:15.438:1,-0.135,-0.035
00:41:15.445:1,-0.125,0.005
00:41:15.453:1,-0.105,-0.055
00:41:15.461:1,-0.095,0.055
00:41:15.469:1,-0.075,-0.015
00:41:15.477:1,-0.075,-0.005
00:41:15.484:1,-0.045,-0.025
00:41:15.492:1,-0.015,0.025
00:41:15.500:1,-0.035,0.015
00:41:15.508:1,0.005,0.065
00:41:15.516:1,-0.005,0.025
00:41:15.523:1,0.015,0.025
00:41:15.531:1,0.015,0.045
00:41:15.539:1,0.065,0.045
00:41:15.547:1,0.105,0.115
00:41:15.555:1,0.155,0.095
00:41:15.563:1,0.135,0.025
00:41:15.570:1,0.145,0.055
00:41:15.578:1,0.125,-0.005
00:41:15.586:1,0.105,0.025
00:41:15.594:1,0.135,0.055
00:41:15.602:1,0.055,0.025
00:41:15.609:1,0.045,-0.045
00:41:15.617:1,0.035,-0.005
00:41:15.625:1,0.005,0.015
00:41:15.633:1,-0.065,-0.055
00:41:15.641:1,-0.085,-0.075
00:41:15.648:1,-0.075,-0.025
00:41:15.656:1,-0.105,-0.045
00:41:15.664:1,-0.105,-0.025
00:41:15.672:1,-0.115,-0.045
00:41:15.680:1,-0.095,-0.005
00:41:15.688:1,-0.165,-0.085
00:41:15.695:1,-0.115,-0.045
00:41:15.703:1,-0.095,0.005
00:41:15.711:1,-0.155,-0.065
00:41:15.719:1,-0.155,-0.085
00:41:15.727:1,-0.135,-0.005
00:41:15.734:1,-0.125,-0.035
00:41:15.742:1,-0.105,-0.025
00:41:15.750:1,-0.115,-0.055
00:41:15.758:1,-0.105,-0.045
00:41:15.766:1,-0.145,-0.025
00:41:15.773:1,-0.095,0.035
00:41:15.781:1,-0.055,-0.035
00:41:15.789:1,-0.085,0.005
00:41:15.797:1,-0.025,0.025
00:41:15.805:1,0.035,0.015
00:41:15.813:1,0.035,-0.025
00:41:15.820:1,0.035,-0.025
00:41:15.828:1,0.035,0.025
00:41:15.836:1,0.015,-0.025
00:41:15.844:1,-0.025,-0.065
00:41:15.852:1,-0.035,-0.025
00:41:15.859:1,-0.095,-0.055
00:41:15.867:1,-0.155,-0.075
00:41:15.875:1,-0.165,-0.105
00:41:15.883:1,-0.185,-0.105
00:41:15.891:1,-0.165,-0.105
00:41:15.898:1,-0.155,-0.115
00:41:15.906:1,-0.135,-0.085
00:41:15.914:1,-0.215,-0.115
00:41:15.922:1,-0.215,-0.115
00:41:15.930:1,-0.165,-0.085
00:41:15.938:1,-0.195,-0.125
00:41:15.945:1,-0.155,-0.145
00:41:15.953:1,-0.185,-0.085
00:41:15.961:1,-0.155,-0.105
00:41:15.969:1,-0.225,-0.135
00:41:15.977:1,-0.105,-0.025
00:41:15.984:1,0.155,-0.075
00:41:15.992:1,0.785,-0.115
00:41:16.000:1,1.725,-0.255
00:41:16.008:1,0.415,-0.385
00:41:16.016:1,-0.885,-0.565
00:41:16.023:1,-0.825,-0.215
00:41:16.031:1,-0.425,-0.045
00:41:16.039:1,-0.235,-0.125
00:41:16.047:1,-0.155,-0.075
00:41:16.055:1,-0.165,-0.015
00:41:16.063:1,-0.195,-0.105
00:41:16.070:1,-0.165,-0.065
00:41:16.078:1,-0.165,-0.065
00:41:16.086:1,-0.165,-0.065
00:41:16.094:1,-0.135,-0.055
00:41:16.102:1,-0.155,-0.055
00:41:16.109:1,-0.115,-0.045
00:41:16.117:1,-0.125,-0.015
00:41:16.125:1,-0.095,-0.005
00:41:16.133:1,-0.105,-0.065
00:41:16.141:1,-0.155,-0.065
00:41:16.148:1,-0.075,-0.045
00:41:16.156:1,-0.065,0.055
00:41:16.164:1,-0.065,-0.055
00:41:16.172:1,-0.035,-0.005
00:41:16.180:1,-0.035,0.015
00:41:16.188:1,-0.025,0.005
00:41:16.195:1,0.005,0.015
00:41:16.203:1,-0.005,-0.005
00:41:16.211:1,0.015,0.005
00:41:16.219:1,-0.015,-0.005
00:41:16.227:1,0.025,0.045
00:41:16.234:1,0.035,0.015
00:41:16.242:1,0.055,0.065
00:41:16.250:1,0.055,-0.015
00:41:16.258:1,0.055,-0.025
00:41:16.266:1,0.035,-0.025
00:41:16.273:1,-0.025,-0.055
00:41:16.281:1,0.015,-0.035
00:41:16.289:1,-0.065,-0.025
00:41:16.297:1,-0.115,-0.045
00:41:16.305:1,-0.115,-0.065
00:41:16.313:1,-0.145,-0.085
00:41:16.320:1,-0.155,-0.085
00:41:16.328:1,-0.175,-0.045
00:41:16.336:1,-0.185,-0.075
00:41:16.344:1,-0.195,-0.095
00:41:16.352:1,-0.165,-0.065
00:41:16.359:1,-0.175,-0.095
00:41:16.367:1,-0.225,-0.075
00:41:16.375:1,-0.205,-0.065
00:41:16.383:1,-0.155,-0.095
00:41:16.391:1,-0.165,-0.075
00:41:16.398:1,-0.175,-0.015
00:41:16.406:1,-0.165,-0.085
00:41:16.414:1,-0.175,-0.085
00:41:16.422:1,-0.145,-0.025
00:41:16.430:1,-0.145,-0.065
00:41:16.438:1,-0.125,-0.065
00:41:16.445:1,-0.125,-0.065
00:41:16.453:1,-0.135,-0.065
00:41:16.461:1,-0.145,-0.015
00:41:16.469:1,-0.095,-0.055
00:41:16.477:1,-0.135,-0.095
00:41:16.484:1,-0.055,-0.015
00:41:16.492:1,-0.065,-0.005
00:41:16.500:1,-0.085,-0.005
00:41:16.508:1,-0.075,-0.035
00:41:16.516:1,-0.015,-0.045
00:41:16.523:1,-0.055,-0.025
00:41:16.531:1,-0.005,-0.065
00:41:16.539:1,0.035,-0.035
00:41:16.547:1,-0.005,-0.045
00:41:16.555:1,-0.055,-0.015
00:41:16.563:1,-0.075,-0.065
00:41:16.570:1,-0.175,-0.135
00:41:16.578:1,-0.165,-0.135
00:41:16.586:1,-0.155,-0.125
00:41:16.594:1,-0.175,-0.125
00:41:16.602:1,-0.195,-0.135
00:41:16.609:1,-0.165,-0.125
00:41:16.617:1,-0.155,-0.115
00:41:16.625:1,-0.185,-0.085
00:41:16.633:1,-0.145,-0.115
00:41:16.641:1,-0.145,-0.125
00:41:16.648:1,-0.145,-0.115
00:41:16.656:1,-0.165,-0.105
00:41:16.664:1,-0.145,-0.105
00:41:16.672:1,-0.125,-0.135
00:41:16.680:1,-0.125,-0.075
00:41:16.688:1,0.055,-0.085
00:41:16.695:1,0.505,-0.105
00:41:16.703:1,1.525,-0.285
00:41:16.711:1,1.305,-0.425
00:41:16.719:1,-0.545,-0.595
00:41:16.727:1,-0.915,-0.335
00:41:16.734:1,-0.535,-0.165
00:41:16.742:1,-0.205,-0.085
00:41:16.750:1,-0.105,0.025
00:41:16.758:1,-0.125,-0.105
00:41:16.766:1,-0.115,-0.095
00:41:16.773:1,-0.115,-0.055
00:41:16.781:1,-0.085,-0.015
00:41:16.789:1,-0.075,-0.095
00:41:16.797:1,-0.065,-0.065
00:41:16.805:1,-0.075,-0.015
00:41:16.813:1,-0.085,-0.075
00:41:16.820:1,-0.105,-0.065
00:41:16.828:1,-0.095,-0.065
00:41:16.836:1,-0.045,-0.015
00:41:16.844:1,-0.075,-0.075
00:41:16.852:1,-0.065,-0.025
00:41:16.859:1,-0.035,-0.075
00:41:16.867:1,-0.035,-0.045
00:41:16.875:1,-0.005,0.005
00:41:16.883:1,-0.005,-0.025
00:41:16.891:1,-0.015,-0.025
00:41:16.898:1,0.025,0.005
00:41:16.906:1,0.045,-0.005
00:41:16.914:1,0.055,0.015
00:41:16.922:1,0.095,0.015
00:41:16.930:1,0.095,0.015
00:41:16.938:1,0.075,0.005
00:41:16.945:1,0.105,0.025
00:41:16.953:1,0.085,-0.035
00:41:16.961:1,0.105,-0.015
00:41:16.969:1,0.105,-0.015
00:41:16.977:1,0.125,-0.015
00:41:16.984:1,0.105,-0.045
00:41:16.992:1,0.055,-0.045
00:41:17.000:1,-0.035,-0.105
00:41:17.008:1,-0.075,-0.085
00:41:17.016:1,-0.095,-0.135
00:41:17.023:1,-0.105,-0.105
00:41:17.031:1,-0.125,-0.125
00:41:17.039:1,-0.145,-0.135
00:41:17.047:1,-0.105,-0.075
00:41:17.055:1,-0.115,-0.135
00:41:17.063:1,-0.135,-0.145
00:41:17.070:1,-0.155,-0.105
00:41:17.078:1,-0.125,-0.095
00:41:17.086:1,-0.105,-0.115
00:41:17.094:1,-0.155,-0.135
00:41:17.102:1,-0.155,-0.135
00:41:17.109:1,-0.105,-0.085
00:41:17.117:1,-0.105,-0.105
00:41:17.125:1,-0.095,-0.115
00:41:17.133:1,-0.125,-0.115
00:41:17.141:1,-0.095,-0.075
00:41:17.148:1,-0.105,-0.075
00:41:17.156:1,-0.075,-0.105
00:41:17.164:1,-0.085,-0.115
00:41:17.172:1,-0.065,-0.125
00:41:17.180:1,-0.035,-0.095
00:41:17.188:1,-0.065,-0.105
00:41:17.195:1,-0.055,-0.105
00:41:17.203:1,-0.085,-0.095
00:41:17.211:1,-0.045,-0.055
00:41:17.219:1,0.005,0.005
00:41:17.227:1,-0.005,-0.075
00:41:17.234:1,-0.005,-0.085
00:41:17.242:1,0.025,-0.055
00:41:17.250:1,0.035,-0.115
00:41:17.258:1,0.055,-0.105
00:41:17.266:1,0.045,-0.085
00:41:17.273:1,0.045,-0.095
00:41:17.281:1,0.015,-0.115
00:41:17.289:1,-0.075,-0.145
00:41:17.297:1,-0.105,-0.155
00:41:17.305:1,-0.115,-0.175
00:41:17.313:1,-0.115,-0.165
00:41:17.320:1,-0.095,-0.165
00:41:17.328:1,-0.155,-0.195
00:41:17.336:1,-0.135,-0.165
00:41:17.344:1,-0.135,-0.135
00:41:17.352:1,-0.105,-0.165
00:41:17.359:1,-0.125,-0.145
00:41:17.367:1,-0.135,-0.175
00:41:17.375:1,-0.105,-0.155
00:41:17.383:1,-0.105,-0.145
00:41:17.391:1,-0.115,-0.145
00:41:17.398:1,-0.085,-0.135
00:41:17.406:1,-0.115,-0.155
00:41:17.414:1,-0.045,-0.135
00:41:17.422:1,0.275,-0.135
00:41:17.430:1,0.905,-0.255
00:41:17.438:1,1.875,-0.385
00:41:17.445:1,0.795,-0.565
00:41:17.453:1,-0.815,-0.595
00:41:17.461:1,-0.805,-0.335
00:41:17.469:1,-0.325,-0.195
00:41:17.477:1,-0.105,-0.145
00:41:17.484:1,-0.095,-0.165
00:41:17.492:1,-0.085,-0.145
00:41:17.500:1,-0.115,-0.135
00:41:17.508:1,-0.085,-0.155
00:41:17.516:1,-0.075,-0.165
00:41:17.523:1,-0.095,-0.145
00:41:17.531:1,-0.065,-0.155
00:41:17.539:1,-0.075,-0.135
00:41:17.547:1,-0.085,-0.125
00:41:17.555:1,-0.045,-0.115
00:41:17.563:1,-0.035,-0.115
00:41:17.570:1,-0.045,-0.105
00:41:17.578:1,-0.035,-0.095
00:41:17.586:1,-0.025,-0.065
00:41:17.594:1,-0.015,-0.095
00:41:17.602:1,0.035,-0.075
00:41:17.609:1,0.015,-0.085
00:41:17.617:1,0.025,-0.075
00:41:17.625:1,0.025,-0.035
00:41:17.633:1,0.055,-0.055
00:41:17.641:1,0.055,-0.045
00:41:17.648:1,0.075,-0.085
00:41:17.656:1,0.125,0.005
00:41:17.664:1,0.155,-0.015
00:41:17.672:1,0.145,-0.045
00:41:17.680:1,0.165,-0.025
00:41:17.688:1,0.175,-0.025
00:41:17.695:1,0.155,-0.035
00:41:17.703:1,0.165,-0.045
00:41:17.711:1,0.165,-0.065
00:41:17.719:1,0.185,-0.065
00:41:17.727:1,0.115,-0.105
00:41:17.734:1,0.065,-0.125
00:41:17.742:1,0.015,-0.135
00:41:17.750:1,-0.025,-0.155
00:41:17.758:1,-0.045,-0.165
00:41:17.766:1,-0.015,-0.185
00:41:17.773:1,-0.095,-0.165
00:41:17.781:1,-0.025,-0.145
00:41:17.789:1,-0.025,-0.155
00:41:17.797:1,-0.045,-0.165
00:41:17.805:1,-0.045,-0.175
00:41:17.813:1,-0.055,-0.135
00:41:17.820:1,-0.075,-0.145
00:41:17.828:1,-0.055,-0.155
00:41:17.836:1,-0.065,-0.155
00:41:17.844:1,-0.045,-0.155
00:41:17.852:1,-0.015,-0.155
00:41:17.859:1,-0.015,-0.165
00:41:17.867:1,0.025,-0.155
00:41:17.875:1,0.065,-0.135
00:41:17.883:1,0.065,-0.155
00:41:17.891:1,-0.045,-0.125
00:41:17.898:1,-0.015,-0.115
00:41:17.906:1,-0.015,-0.135
00:41:17.914:1,-0.015,-0.135
00:41:17.922:1,-0.025,-0.145
00:41:17.930:1,-0.005,-0.115
00:41:17.938:1,-0.005,-0.125
00:41:17.945:1,-0.005,-0.115
00:41:17.953:1,0.005,-0.085
00:41:17.961:1,0.035,-0.055
00:41:17.969:1,0.065,-0.075
00:41:17.977:1,0.025,-0.105
00:41:17.984:1,0.085,-0.125
00:41:17.992:1,0.125,-0.115
00:41:18.000:1,0.065,-0.085
00:41:18.008:1,0.055,-0.115
00:41:18.016:1,0.055,-0.135
00:41:18.023:1,-0.025,-0.135
00:41:18.031:1,-0.045,-0.175
00:41:18.039:1,-0.125,-0.185
00:41:18.047:1,-0.075,-0.175
00:41:18.055:1,-0.055,-0.185
00:41:18.063:1,-0.115,-0.185
00:41:18.070:1,-0.085,-0.195
00:41:18.078:1,-0.085,-0.165
00:41:18.086:1,-0.125,-0.155
00:41:18.094:1,-0.115,-0.155
00:41:18.102:1,-0.155,-0.155
00:41:18.109:1,-0.125,-0.155
00:41:18.117:1,-0.075,-0.155
00:41:18.125:1,-0.085,-0.165
00:41:18.133:1,-0.105,-0.165
00:41:18.141:1,-0.115,-0.125
00:41:18.148:1,0.025,-0.115
00:41:18.156:1,0.415,-0.155
00:41:18.164:1,1.145,-0.415
00:41:18.172:1,1.825,-0.545
00:41:18.180:1,0.195,-0.705
00:41:18.188:1,-0.835,-0.565
00:41:18.195:1,-0.615,-0.285
00:41:18.203:1,-0.215,-0.115
00:41:18.211:1,-0.065,-0.045
00:41:18.219:1,-0.095,-0.065
00:41:18.227:1,-0.005,-0.055
00:41:18.234:1,-0.025,-0.095
00:41:18.242:1,-0.125,-0.055
00:41:18.250:1,-0.085,-0.035
00:41:18.258:1,-0.015,-0.055
00:41:18.266:1,-0.085,-0.065
00:41:18.273:1,-0.025,-0.035
00:41:18.281:1,-0.045,-0.035
00:41:18.289:1,-0.005,-0.045
00:41:18.297:1,-0.035,-0.025
00:41:18.305:1,0.015,-0.045
00:41:18.313:1,0.175,-0.015
00:41:18.320:1,-0.035,-0.025
00:41:18.328:1,-0.025,-0.025
00:41:18.336:1,0.025,-0.005
00:41:18.344:1,0.065,0.025
00:41:18.352:1,0.045,-0.005
00:41:18.359:1,0.095,0.085
00:41:18.367:1,0.115,0.095
00:41:18.375:1,0.115,0.075
00:41:18.383:1,0.135,0.065
00:41:18.391:1,0.145,0.065
00:41:18.398:1,0.155,0.115
00:41:18.406:1,0.165,0.125
00:41:18.414:1,0.175,0.075
00:41:18.422:1,0.195,0.045
00:41:18.430:1,0.175,0.055
00:41:18.438:1,0.125,0.065
00:41:18.445:1,0.175,0.025
00:41:18.453:1,0.145,-0.015
00:41:18.461:1,0.095,0.015
00:41:18.469:1,0.025,-0.025
00:41:18.477:1,-0.015,-0.065
00:41:18.484:1,-0.025,-0.055
00:41:18.492:1,-0.055,-0.065
00:41:18.500:1,-0.035,-0.075
00:41:18.508:1,-0.065,-0.085
00:41:18.516:1,-0.055,-0.115
00:41:18.523:1,-0.075,-0.095
00:41:18.531:1,-0.055,-0.095
00:41:18.539:1,-0.055,-0.135
00:41:18.547:1,-0.075,-0.075
00:41:18.555:1,-0.095,-0.105
00:41:18.563:1,-0.095,-0.075
00:41:18.570:1,-0.085,-0.095
00:41:18.578:1,-0.045,-0.085
00:41:18.586:1,-0.085,-0.055
00:41:18.594:1,-0.025,-0.045
00:41:18.602:1,-0.095,-0.045
00:41:18.609:1,-0.065,-0.055
00:41:18.617:1,0.005,-0.055
00:41:18.625:1,-0.045,-0.055
00:41:18.633:1,-0.075,-0.075
00:41:18.641:1,-0.075,-0.065
00:41:18.648:1,-0.095,-0.035
00:41:18.656:1,-0.045,-0.045
00:41:18.664:1,-0.045,-0.055
00:41:18.672:1,-0.055,-0.065
00:41:18.680:1,-0.075,-0.065
00:41:18.688:1,-0.065,-0.045
00:41:18.695:1,-0.015,-0.005
00:41:18.703:1,-0.005,-0.005
00:41:18.711:1,0.015,0.025
00:41:18.719:1,-0.005,-0.025
00:41:18.727:1,0.015,-0.035
00:41:18.734:1,0.045,-0.025
00:41:18.742:1,0.075,-0.035
00:41:18.750:1,0.065,-0.045
00:41:18.758:1,-0.005,-0.085
00:41:18.766:1,-0.035,-0.065
00:41:18.773:1,-0.075,-0.095
00:41:18.781:1,-0.125,-0.155
00:41:18.789:1,-0.125,-0.115
00:41:18.797:1,-0.125,-0.155
00:41:18.805:1,-0.105,-0.125
00:41:18.813:1,-0.115,-0.135
00:41:18.820:1,-0.115,-0.145
00:41:18.828:1,-0.145,-0.095
00:41:18.836:1,-0.135,-0.095
00:41:18.844:1,-0.165,-0.145
00:41:18.852:1,-0.105,-0.105
00:41:18.859:1,-0.125,-0.165
00:41:18.867:1,-0.125,-0.125
00:41:18.875:1,-0.095,-0.115
00:41:18.883:1,-0.135,-0.095
00:41:18.891:1,-0.065,-0.085
00:41:18.898:1,0.175,-0.105
00:41:18.906:1,0.705,-0.295
00:41:18.914:1,1.635,-0.545
00:41:18.922:1,0.615,-0.715
00:41:18.930:1,-0.815,-0.645
00:41:18.938:1,-0.795,-0.355
00:41:18.945:1,-0.315,-0.145
00:41:18.953:1,-0.105,-0.045
00:41:18.961:1,-0.085,-0.015
00:41:18.969:1,-0.095,-0.025
00:41:18.977:1,-0.075,-0.045
00:41:18.984:1,-0.065,-0.035
00:41:18.992:1,-0.035,-0.015
00:41:19.000:1,-0.075,-0.015
00:41:19.008:1,-0.075,-0.015
00:41:19.016:1,-0.065,-0.015
00:41:19.023:1,-0.045,-0.005
00:41:19.031:1,-0.065,0.005
00:41:19.039:1,-0.035,-0.015
00:41:19.047:1,-0.005,-0.005
00:41:19.055:1,-0.005,0.005
00:41:19.063:1,-0.015,0.025
00:41:19.070:1,-0.005,0.015
00:41:19.078:1,-0.005,0.025
00:41:19.086:1,0.025,0.035
00:41:19.094:1,0.015,0.045
00:41:19.102:1,0.045,0.045
00:41:19.109:1,0.065,0.055
00:41:19.117:1,0.085,0.095
00:41:19.125:1,0.075,0.085
00:41:19.133:1,0.085,0.095
00:41:19.141:1,0.125,0.085
00:41:19.148:1,0.125,0.095
00:41:19.156:1,0.135,0.095
00:41:19.164:1,0.105,0.075
00:41:19.172:1,0.145,0.045
00:41:19.180:1,0.165,0.045
00:41:19.188:1,0.115,0.025
00:41:19.195:1,0.105,0.005
00:41:19.203:1,0.055,-0.005
00:41:19.211:1,0.055,-0.005
00:41:19.219:1,-0.015,-0.045
00:41:19.227:1,0.015,-0.065
00:41:19.234:1,-0.055,-0.065
00:41:19.242:1,-0.025,-0.065
00:41:19.250:1,-0.015,-0.065
00:41:19.258:1,-0.025,-0.075
00:41:19.266:1,-0.045,-0.085
00:41:19.273:1,-0.025,-0.065
00:41:19.281:1,-0.035,-0.085
00:41:19.289:1,-0.035,-0.085
00:41:19.297:1,-0.065,-0.075
00:41:19.305:1,-0.055,-0.055
00:41:19.313:1,-0.055,-0.055
00:41:19.320:1,-0.055,-0.055
00:41:19.328:1,-0.055,-0.045
00:41:19.336:1,-0.055,-0.045
00:41:19.344:1,-0.055,-0.045
00:41:19.352:1,-0.065,-0.055
00:41:19.359:1,-0.045,-0.045
00:41:19.367:1,-0.035,-0.035
00:41:19.375:1,-0.025,-0.055
00:41:19.383:1,-0.045,-0.065
00:41:19.391:1,-0.025,-0.055
00:41:19.398:1,-0.055,-0.055
00:41:19.406:1,-0.035,-0.055
00:41:19.414:1,-0.025,-0.045
00:41:19.422:1,0.005,-0.015
00:41:19.430:1,-0.025,0.005
00:41:19.438:1,-0.015,-0.005
00:41:19.445:1,0.035,-0.005
00:41:19.453:1,0.055,-0.025
00:41:19.461:1,0.065,-0.015
00:41:19.469:1,0.085,-0.025
00:41:19.477:1,0.075,-0.015
00:41:19.484:1,0.045,-0.055
00:41:19.492:1,-0.005,-0.055
00:41:19.500:1,-0.075,-0.075
00:41:19.508:1,-0.055,-0.095
00:41:19.516:1,-0.095,-0.095
00:41:19.523:1,-0.095,-0.085
00:41:19.531:1,-0.105,-0.095
00:41:19.539:1,-0.115,-0.095
00:41:19.547:1,-0.115,-0.085
00:41:19.555:1,-0.105,-0.085
00:41:19.563:1,-0.125,-0.085
00:41:19.570:1,-0.125,-0.095
00:41:19.578:1,-0.135,-0.085
00:41:19.586:1,-0.105,-0.075
00:41:19.594:1,-0.095,-0.085
00:41:19.602:1,-0.075,-0.085
00:41:19.609:1,-0.105,-0.065
00:41:19.617:1,-0.025,-0.025
00:41:19.625:1,0.195,-0.045
00:41:19.633:1,0.835,-0.145
00:41:19.641:1,1.825,-0.355
00:41:19.648:1,0.715,-0.555
00:41:19.656:1,-0.765,-0.615
00:41:19.664:1,-0.775,-0.265
00:41:19.672:1,-0.355,-0.115
00:41:19.680:1,-0.105,-0.025
00:41:19.688:1,-0.085,0.005
00:41:19.695:1,-0.095,-0.015
00:41:19.703:1,-0.085,-0.015
00:41:19.711:1,-0.085,-0.005
00:41:19.719:1,-0.085,0.005
00:41:19.727:1,-0.055,-0.005
00:41:19.734:1,-0.055,0.005
00:41:19.742:1,-0.065,0.005
00:41:19.750:1,-0.035,0.025
00:41:19.758:1,-0.075,-0.005
00:41:19.766:1,-0.075,-0.005
00:41:19.773:1,-0.015,0.035
00:41:19.781:1,-0.035,0.025
00:41:19.789:1,-0.015,0.025
00:41:19.797:1,-0.005,0.015
00:41:19.805:1,0.025,0.045
00:41:19.813:1,-0.015,0.045
00:41:19.820:1,-0.015,0.055
00:41:19.828:1,0.015,0.065
00:41:19.836:1,0.045,0.085
00:41:19.844:1,0.065,0.105
00:41:19.852:1,0.055,0.105
00:41:19.859:1,0.095,0.105
00:41:19.867:1,0.075,0.125
00:41:19.875:1,0.075,0.105
00:41:19.883:1,0.065,0.085
00:41:19.891:1,0.095,0.085
00:41:19.898:1,0.095,0.095
00:41:19.906:1,0.055,0.045
00:41:19.914:1,0.035,0.035
00:41:19.922:1,0.045,0.005
00:41:19.930:1,0.025,0.025
00:41:19.938:1,-0.055,-0.015
00:41:19.945:1,-0.075,-0.035
00:41:19.953:1,-0.075,-0.045
00:41:19.961:1,-0.095,-0.035
00:41:19.969:1,-0.125,-0.045
00:41:19.977:1,-0.115,-0.055
00:41:19.984:1,-0.115,-0.055
00:41:19.992:1,-0.125,-0.045
00:41:20.000:1,-0.125,-0.055
00:41:20.008:1,-0.125,-0.045
00:41:20.016:1,-0.125,-0.035
00:41:20.023:1,-0.105,-0.025
00:41:20.031:1,-0.105,-0.045
00:41:20.039:1,-0.105,-0.035
00:41:20.047:1,-0.085,-0.025
00:41:20.055:1,-0.085,-0.015
00:41:20.063:1,-0.085,-0.015
00:41:20.070:1,-0.095,-0.045
00:41:20.078:1,-0.065,-0.025
00:41:20.086:1,-0.055,-0.005
00:41:20.094:1,-0.065,-0.025
00:41:20.102:1,-0.095,-0.035
00:41:20.109:1,-0.075,-0.035
00:41:20.117:1,-0.075,-0.015
00:41:20.125:1,-0.055,0.005
00:41:20.133:1,-0.055,0.015
00:41:20.141:1,-0.025,0.035
00:41:20.148:1,0.015,0.035
00:41:20.156:1,0.005,0.005
00:41:20.164:1,0.005,-0.005
00:41:20.172:1,0.065,0.005
00:41:20.180:1,0.045,0.005
00:41:20.188:1,0.015,-0.035
00:41:20.195:1,-0.055,-0.055
00:41:20.203:1,-0.085,-0.035
00:41:20.211:1,-0.095,-0.065
00:41:20.219:1,-0.135,-0.095
00:41:20.227:1,-0.145,-0.095
00:41:20.234:1,-0.155,-0.095
00:41:20.242:1,-0.135,-0.085
00:41:20.250:1,-0.185,-0.105
00:41:20.258:1,-0.155,-0.095
00:41:20.266:1,-0.155,-0.105
00:41:20.273:1,-0.175,-0.085
00:41:20.281:1,-0.155,-0.085
00:41:20.289:1,-0.155,-0.095
00:41:20.297:1,-0.135,-0.085
00:41:20.305:1,-0.125,-0.075
00:41:20.313:1,-0.125,-0.085
00:41:20.320:1,-0.155,-0.075
00:41:20.328:1,-0.055,-0.055
00:41:20.336:1,0.195,-0.055
00:41:20.344:1,0.855,-0.155
00:41:20.352:1,1.845,-0.375
00:41:20.359:1,0.845,-0.515
00:41:20.367:1,-0.745,-0.585
00:41:20.375:1,-0.855,-0.255
00:41:20.383:1,-0.455,-0.135
00:41:20.391:1,-0.155,-0.065
00:41:20.398:1,-0.115,-0.015
00:41:20.406:1,-0.155,-0.025
00:41:20.414:1,-0.105,-0.015
00:41:20.422:1,-0.125,-0.025
00:41:20.430:1,-0.085,-0.015
00:41:20.438:1,-0.105,-0.025
00:41:20.445:1,-0.115,-0.025
00:41:20.453:1,-0.075,-0.005
00:41:20.461:1,-0.105,-0.005
00:41:20.469:1,-0.075,-0.005
00:41:20.477:1,-0.075,0.005
00:41:20.484:1,-0.065,-0.005
00:41:20.492:1,-0.055,-0.005
00:41:20.500:1,-0.055,0.015
00:41:20.508:1,-0.035,0.005
00:41:20.516:1,-0.025,0.015
00:41:20.523:1,-0.015,0.035
00:41:20.531:1,0.015,0.045
00:41:20.539:1,0.015,0.045
00:41:20.547:1,0.035,0.035
00:41:20.555:1,0.045,0.065
00:41:20.563:1,0.035,0.075
00:41:20.570:1,0.065,0.085
00:41:20.578:1,0.085,0.075
00:41:20.586:1,0.075,0.075
00:41:20.594:1,0.045,0.075
00:41:20.602:1,0.045,0.045
00:41:20.609:1,0.035,0.035
00:41:20.617:1,0.055,0.045
00:41:20.625:1,0.025,0.015
00:41:20.633:1,0.005,-0.005
00:41:20.641:1,-0.015,-0.025
00:41:20.648:1,-0.055,-0.035
00:41:20.656:1,-0.105,-0.055
00:41:20.664:1,-0.135,-0.075
00:41:20.672:1,-0.135,-0.095
00:41:20.680:1,-0.135,-0.075
00:41:20.688:1,-0.135,-0.075
00:41:20.695:1,-0.155,-0.085
00:41:20.703:1,-0.145,-0.085
00:41:20.711:1,-0.155,-0.075
00:41:20.719:1,-0.155,-0.085
00:41:20.727:1,-0.155,-0.075
00:41:20.734:1,-0.145,-0.065
00:41:20.742:1,-0.125,-0.055
00:41:20.750:1,-0.135,-0.055
00:41:20.758:1,-0.135,-0.065
00:41:20.766:1,-0.125,-0.065
00:41:20.773:1,-0.135,-0.045
00:41:20.781:1,-0.135,-0.055
00:41:20.789:1,-0.085,-0.055
00:41:20.797:1,-0.085,-0.045
00:41:20.805:1,-0.105,-0.055
00:41:20.813:1,-0.125,-0.065
00:41:20.820:1,-0.115,-0.065
00:41:20.828:1,-0.125,-0.065
00:41:20.836:1,-0.095,-0.035
00:41:20.844:1,-0.065,-0.015
00:41:20.852:1,-0.095,-0.015
00:41:20.859:1,-0.065,-0.005
00:41:20.867:1,-0.025,-0.005
00:41:20.875:1,-0.025,-0.035
00:41:20.883:1,-0.025,-0.065
00:41:20.891:1,0.005,-0.025
00:41:20.898:1,0.005,-0.025
00:41:20.906:1,-0.025,-0.075
00:41:20.914:1,-0.065,-0.085
00:41:20.922:1,-0.125,-0.095
00:41:20.930:1,-0.165,-0.095
00:41:20.938:1,-0.175,-0.115
00:41:20.945:1,-0.155,-0.135
00:41:20.953:1,-0.175,-0.125
00:41:20.961:1,-0.165,-0.105
00:41:20.969:1,-0.195,-0.115
00:41:20.977:1,-0.205,-0.135
00:41:20.984:1,-0.185,-0.125
00:41:20.992:1,-0.165,-0.105
00:41:21.000:1,-0.185,-0.125
00:41:21.008:1,-0.185,-0.125
00:41:21.016:1,-0.155,-0.115
00:41:21.023:1,-0.125,-0.105
00:41:21.031:1,-0.185,-0.105
00:41:21.039:1,-0.125,-0.085
00:41:21.047:1,0.115,-0.105
00:41:21.055:1,0.675,-0.215
00:41:21.063:1,1.725,-0.455
00:41:21.070:1,1.055,-0.585
00:41:21.078:1,-0.745,-0.635
00:41:21.086:1,-0.945,-0.315
00:41:21.094:1,-0.455,-0.145
00:41:21.102:1,-0.205,-0.065
00:41:21.109:1,-0.135,-0.045
00:41:21.117:1,-0.125,-0.035
00:41:21.125:1,-0.135,-0.035
00:41:21.133:1,-0.155,-0.055
00:41:21.141:1,-0.155,-0.035
00:41:21.148:1,-0.115,-0.025
00:41:21.156:1,-0.115,-0.025
00:41:21.164:1,-0.125,-0.045
00:41:21.172:1,-0.095,-0.035
00:41:21.180:1,-0.105,-0.015
00:41:21.188:1,-0.085,-0.015
00:41:21.195:1,-0.075,-0.015
00:41:21.203:1,-0.095,-0.015
00:41:21.211:1,-0.055,-0.005
00:41:21.219:1,-0.055,0.005
00:41:21.227:1,-0.055,0.005
00:41:21.234:1,-0.025,0.005
00:41:21.242:1,-0.025,0.025
00:41:21.250:1,-0.015,0.035
00:41:21.258:1,0.005,0.045
00:41:21.266:1,0.035,0.065
00:41:21.273:1,0.055,0.085
00:41:21.281:1,0.045,0.085
00:41:21.289:1,0.065,0.085
00:41:21.297:1,0.075,0.085
00:41:21.305:1,0.085,0.085
00:41:21.313:1,0.065,0.065
00:41:21.320:1,0.045,0.055
00:41:21.328:1,0.065,0.035
00:41:21.336:1,0.055,0.025
00:41:21.344:1,0.035,-0.005
00:41:21.352:1,-0.015,-0.025
00:41:21.359:1,-0.035,-0.045
00:41:21.367:1,-0.085,-0.045
00:41:21.375:1,-0.115,-0.075
00:41:21.383:1,-0.125,-0.095
00:41:21.391:1,-0.145,-0.105
00:41:21.398:1,-0.145,-0.085
00:41:21.406:1,-0.145,-0.105
00:41:21.414:1,-0.155,-0.125
00:41:21.422:1,-0.165,-0.105
00:41:21.430:1,-0.145,-0.085
00:41:21.438:1,-0.175,-0.095
00:41:21.445:1,-0.145,-0.105
00:41:21.453:1,-0.145,-0.095
00:41:21.461:1,-0.125,-0.075
00:41:21.469:1,-0.135,-0.075
00:41:21.477:1,-0.125,-0.085
00:41:21.484:1,-0.125,-0.085
00:41:21.492:1,-0.105,-0.065
00:41:21.500:1,-0.125,-0.075
00:41:21.508:1,-0.105,-0.085
00:41:21.516:1,-0.125,-0.075
00:41:21.523:1,-0.115,-0.075
00:41:21.531:1,-0.105,-0.085
00:41:21.539:1,-0.105,-0.095
00:41:21.547:1,-0.115,-0.095
00:41:21.555:1,-0.115,-0.085
00:41:21.563:1,-0.135,-0.085
00:41:21.570:1,-0.075,-0.065
00:41:21.578:1,-0.085,-0.035
00:41:21.586:1,-0.075,-0.025
00:41:21.594:1,-0.035,-0.025
00:41:21.602:1,-0.035,-0.075
00:41:21.609:1,-0.015,-0.075
00:41:21.617:1,0.005,-0.065
00:41:21.625:1,0.015,-0.065
00:41:21.633:1,-0.005,-0.095
00:41:21.641:1,-0.045,-0.105
00:41:21.648:1,-0.105,-0.105
00:41:21.656:1,-0.135,-0.135
00:41:21.664:1,-0.155,-0.155
00:41:21.672:1,-0.155,-0.145
00:41:21.680:1,-0.175,-0.145
00:41:21.688:1,-0.175,-0.135
00:41:21.695:1,-0.175,-0.145
00:41:21.703:1,-0.195,-0.155
00:41:21.711:1,-0.175,-0.135
00:41:21.719:1,-0.185,-0.145
00:41:21.727:1,-0.175,-0.155
00:41:21.734:1,-0.165,-0.145
00:41:21.742:1,-0.145,-0.135
00:41:21.750:1,-0.145,-0.145
00:41:21.758:1,-0.135,-0.155
00:41:21.766:1,-0.195,-0.125
00:41:21.773:1,-0.075,-0.095
00:41:21.781:1,0.275,-0.145
00:41:21.789:1,0.995,-0.395
00:41:21.797:1,1.935,-0.555
00:41:21.805:1,0.485,-0.705
00:41:21.813:1,-0.965,-0.555
00:41:21.820:1,-0.795,-0.285
00:41:21.828:1,-0.305,-0.115
00:41:21.836:1,-0.115,-0.045
00:41:21.844:1,-0.125,-0.045
00:41:21.852:1,-0.135,-0.065
00:41:21.859:1,-0.145,-0.065
00:41:21.867:1,-0.115,-0.045
00:41:21.875:1,-0.115,-0.045
00:41:21.883:1,-0.115,-0.065
00:41:21.891:1,-0.135,-0.065
00:41:21.898:1,-0.095,-0.035
00:41:21.906:1,-0.095,-0.035
00:41:21.914:1,-0.115,-0.045
00:41:21.922:1,-0.085,-0.035
00:41:21.930:1,-0.055,-0.025
00:41:21.938:1,-0.065,-0.025
00:41:21.945:1,-0.055,-0.015
00:41:21.953:1,-0.035,-0.015
00:41:21.961:1,-0.025,-0.005
00:41:21.969:1,-0.015,0.015
00:41:21.977:1,-0.015,0.005
00:41:21.984:1,0.015,0.025
00:41:21.992:1,0.035,0.055
00:41:22.000:1,0.035,0.065
00:41:22.008:1,0.035,0.065
00:41:22.016:1,0.065,0.085
00:41:22.023:1,0.095,0.085
00:41:22.031:1,0.075,0.085
00:41:22.039:1,0.085,0.045
00:41:22.047:1,0.095,0.065
00:41:22.055:1,0.075,0.045
00:41:22.063:1,0.085,0.025
00:41:22.070:1,0.075,0.005
00:41:22.078:1,0.025,-0.015
00:41:22.086:1,-0.005,-0.065
00:41:22.094:1,-0.065,-0.055
00:41:22.102:1,-0.065,-0.075
00:41:22.109:1,-0.095,-0.105
00:41:22.117:1,-0.115,-0.105
00:41:22.125:1,-0.135,-0.095
00:41:22.133:1,-0.125,-0.105
00:41:22.141:1,-0.135,-0.105
00:41:22.148:1,-0.135,-0.095
00:41:22.156:1,-0.135,-0.095
00:41:22.164:1,-0.135,-0.095
00:41:22.172:1,-0.135,-0.085
00:41:22.180:1,-0.115,-0.075
00:41:22.188:1,-0.105,-0.085
00:41:22.195:1,-0.125,-0.095
00:41:22.203:1,-0.135,-0.075
00:41:22.211:1,-0.115,-0.055
00:41:22.219:1,-0.095,-0.055
00:41:22.227:1,-0.105,-0.065
00:41:22.234:1,-0.095,-0.055
00:41:22.242:1,-0.085,-0.055
00:41:22.250:1,-0.085,-0.065
00:41:22.258:1,-0.095,-0.075
00:41:22.266:1,-0.105,-0.085
00:41:22.273:1,-0.105,-0.065
00:41:22.281:1,-0.095,-0.075
00:41:22.289:1,-0.105,-0.085
00:41:22.297:1,-0.115,-0.075
00:41:22.305:1,-0.095,-0.065
00:41:22.313:1,-0.085,-0.055
00:41:22.320:1,-0.075,-0.035
00:41:22.328:1,-0.055,-0.015
00:41:22.336:1,-0.025,-0.015
00:41:22.344:1,-0.025,-0.025
00:41:22.352:1,-0.025,-0.055
00:41:22.359:1,0.015,-0.065
00:41:22.367:1,0.045,-0.035
00:41:22.375:1,0.035,-0.055
00:41:22.383:1,-0.025,-0.105
00:41:22.391:1,-0.025,-0.085
00:41:22.398:1,-0.085,-0.075
00:41:22.406:1,-0.115,-0.115
00:41:22.414:1,-0.135,-0.115
00:41:22.422:1,-0.145,-0.145
00:41:22.430:1,-0.135,-0.155
00:41:22.438:1,-0.145,-0.135
00:41:22.445:1,-0.145,-0.135
00:41:22.453:1,-0.155,-0.135
00:41:22.461:1,-0.155,-0.125
00:41:22.469:1,-0.145,-0.125
00:41:22.477:1,-0.135,-0.125
00:41:22.484:1,-0.125,-0.135
00:41:22.492:1,-0.145,-0.115
00:41:22.500:1,-0.105,-0.115
00:41:22.508:1,-0.155,-0.115
00:41:22.516:1,-0.115,-0.085
00:41:22.523:1,0.105,-0.115
00:41:22.531:1,0.655,-0.285
00:41:22.539:1,1.675,-0.565
00:41:22.547:1,0.955,-0.695
00:41:22.555:1,-0.755,-0.635
00:41:22.563:1,-0.875,-0.305
00:41:22.570:1,-0.365,-0.115
00:41:22.578:1,-0.135,-0.035
00:41:22.586:1,-0.105,-0.025
00:41:22.594:1,-0.135,-0.025
00:41:22.602:1,-0.115,-0.035
00:41:22.609:1,-0.115,-0.025
00:41:22.617:1,-0.105,-0.025
00:41:22.625:1,-0.135,-0.055
00:41:22.633:1,-0.125,0.015
00:41:22.641:1,-0.085,-0.015
00:41:22.648:1,-0.075,-0.035
00:41:22.656:1,-0.075,-0.035
00:41:22.664:1,-0.075,-0.025
00:41:22.672:1,-0.065,-0.005
00:41:22.680:1,-0.055,0.015
00:41:22.688:1,-0.055,0.015
00:41:22.695:1,-0.045,0.005
00:41:22.703:1,-0.035,0.025
00:41:22.711:1,-0.035,0.065
00:41:22.719:1,0.005,0.055
00:41:22.727:1,-0.005,0.045
00:41:22.734:1,0.015,0.075
00:41:22.742:1,0.025,0.095
00:41:22.750:1,0.065,0.145
00:41:22.758:1,0.055,0.045
00:41:22.766:1,0.065,0.095
00:41:22.773:1,0.085,0.095
00:41:22.781:1,0.065,0.085
00:41:22.789:1,0.085,0.085
00:41:22.797:1,0.085,0.075
00:41:22.805:1,0.075,0.065
00:41:22.813:1,0.065,0.045
00:41:22.820:1,0.035,0.025
00:41:22.828:1,-0.015,0.005
00:41:22.836:1,-0.025,-0.005
00:41:22.844:1,-0.055,-0.025
00:41:22.852:1,-0.095,-0.075
00:41:22.859:1,-0.115,-0.075
00:41:22.867:1,-0.125,-0.065
00:41:22.875:1,-0.145,-0.075
00:41:22.883:1,-0.135,-0.085
00:41:22.891:1,-0.165,-0.085
00:41:22.898:1,-0.145,-0.075
00:41:22.906:1,-0.145,-0.075
00:41:22.914:1,-0.135,-0.085
00:41:22.922:1,-0.135,-0.075
00:41:22.930:1,-0.115,-0.055
00:41:22.938:1,-0.135,-0.065
00:41:22.945:1,-0.065,-0.055
00:41:22.953:1,-0.175,-0.065
00:41:22.961:1,-0.055,-0.055
00:41:22.969:1,-0.145,-0.025
00:41:22.977:1,-0.155,-0.035
00:41:22.984:1,-0.095,-0.035
00:41:22.992:1,-0.155,-0.075
00:41:23.000:1,-0.015,-0.105
00:41:23.008:1,-0.145,-0.065
00:41:23.016:1,-0.085,-0.065
00:41:23.023:1,-0.075,-0.075
00:41:23.031:1,-0.075,-0.085
00:41:23.039:1,-0.155,-0.085
00:41:23.047:1,-0.045,-0.095
00:41:23.055:1,-0.055,-0.105
00:41:23.063:1,-0.025,-0.095
00:41:23.070:1,-0.165,-0.105
00:41:23.078:1,-0.035,-0.075
00:41:23.086:1,-0.115,-0.015
00:41:23.094:1,-0.025,-0.005
00:41:23.102:1,-0.065,-0.005
00:41:23.109:1,-0.085,-0.025
00:41:23.117:1,-0.035,-0.045
00:41:23.125:1,0.075,-0.065
00:41:23.133:1,0.045,-0.045
00:41:23.141:1,0.045,-0.075
00:41:23.148:1,0.035,-0.075
00:41:23.156:1,-0.065,-0.025
00:41:23.164:1,-0.085,-0.115
00:41:23.172:1,-0.125,-0.155
00:41:23.180:1,-0.055,-0.105
00:41:23.188:1,-0.135,-0.155
00:41:23.195:1,-0.275,-0.095
00:41:23.203:1,-0.225,-0.165
00:41:23.211:1,-0.125,-0.135
00:41:23.219:1,-0.215,-0.085
00:41:23.227:1,-0.155,-0.195
00:41:23.234:1,-0.145,-0.165
00:41:23.242:1,-0.145,-0.165
00:41:23.250:1,-0.165,-0.115
00:41:23.258:1,-0.115,-0.125
00:41:23.266:1,-0.185,-0.135
00:41:23.273:1,-0.105,-0.145
00:41:23.281:1,-0.255,-0.055
00:41:23.289:1,0.105,-0.155
00:41:23.297:1,0.685,-0.305
00:41:23.305:1,1.785,-0.585
00:41:23.313:1,0.615,-0.715
00:41:23.320:1,-1.055,-0.565
00:41:23.328:1,-0.915,-0.225
00:41:23.336:1,-0.095,-0.155
00:41:23.344:1,-0.305,-0.075
00:41:23.352:1,-0.385,0.005
00:41:23.359:1,-0.185,-0.015
00:41:23.367:1,-0.165,0.035
00:41:23.375:1,0.155,-0.155
00:41:23.383:1,-0.275,-0.075
00:41:23.391:1,0.005,-0.095
00:41:23.398:1,-0.255,-0.085
00:41:23.406:1,-0.295,0.015
00:41:23.414:1,-0.165,-0.005
00:41:23.422:1,-0.285,-0.005
00:41:23.430:1,-0.135,-0.035
00:41:23.438:1,-0.195,0.025
00:41:23.445:1,0.105,-0.025
00:41:23.453:1,-0.105,-0.045
00:41:23.461:1,-0.335,0.095
00:41:23.469:1,-0.225,0.075
00:41:23.477:1,-0.115,0.065
00:41:23.484:1,-0.075,0.015
00:41:23.492:1,-0.065,0.065
00:41:23.500:1,-0.115,0.095
00:41:23.508:1,-0.035,0.075
00:41:23.516:1,-0.045,0.095
00:41:23.523:1,-0.035,0.075
00:41:23.531:1,-0.035,0.125
00:41:23.539:1,0.045,0.055
00:41:23.547:1,0.085,0.045
00:41:23.555:1,-0.125,0.085
00:41:23.563:1,0.045,0.035
00:41:23.570:1,-0.065,0.035
00:41:23.578:1,-0.125,0.015
00:41:23.586:1,-0.095,0.015
00:41:23.594:1,-0.105,-0.025
00:41:23.602:1,-0.115,-0.075
00:41:23.609:1,-0.165,-0.075
00:41:23.617:1,-0.165,-0.075
00:41:23.625:1,-0.175,-0.095
00:41:23.633:1,-0.195,-0.125
00:41:23.641:1,-0.185,-0.105
00:41:23.648:1,-0.205,-0.105
00:41:23.656:1,-0.105,-0.075
00:41:23.664:1,-0.095,-0.115
00:41:23.672:1,-0.185,-0.075
00:41:23.680:1,-0.135,-0.065
00:41:23.688:1,-0.135,-0.075
00:41:23.695:1,-0.135,-0.095
00:41:23.703:1,-0.095,-0.075
00:41:23.711:1,-0.055,-0.075
00:41:23.719:1,-0.165,-0.105
00:41:23.727:1,-0.085,-0.085
00:41:23.734:1,-0.045,-0.105
00:41:23.742:1,-0.045,-0.085
00:41:23.750:1,-0.015,-0.095
00:41:23.758:1,-0.075,-0.115
00:41:23.766:1,-0.095,-0.105
00:41:23.773:1,-0.095,-0.095
00:41:23.781:1,-0.055,-0.095
00:41:23.789:1,-0.055,-0.085
00:41:23.797:1,-0.055,-0.075
00:41:23.805:1,-0.055,-0.055
00:41:23.813:1,-0.025,-0.065
00:41:23.820:1,-0.005,-0.085
00:41:23.828:1,0.015,-0.065
00:41:23.836:1,0.055,-0.085
00:41:23.844:1,0.065,-0.085
00:41:23.852:1,-0.025,-0.125
00:41:23.859:1,-0.025,-0.115
00:41:23.867:1,-0.065,-0.135
00:41:23.875:1,-0.135,-0.135
00:41:23.883:1,-0.145,-0.175
00:41:23.891:1,-0.175,-0.175
00:41:23.898:1,-0.175,-0.155
00:41:23.906:1,-0.145,-0.165
00:41:23.914:1,-0.165,-0.175
00:41:23.922:1,-0.175,-0.165
00:41:23.930:1,-0.165,-0.135
00:41:23.938:1,-0.125,-0.145
00:41:23.945:1,-0.195,-0.145
00:41:23.953:1,-0.185,-0.155
00:41:23.961:1,-0.155,-0.135
00:41:23.969:1,-0.165,-0.155
00:41:23.977:1,-0.175,-0.135
00:41:23.984:1,-0.115,-0.135
00:41:23.992:1,0.095,-0.115
00:41:24.000:1,0.635,-0.155
00:41:24.008:1,1.745,-0.375
00:41:24.016:1,0.615,-0.565
00:41:24.023:1,-0.795,-0.575
00:41:24.031:1,-0.915,-0.275
00:41:24.039:1,-0.495,-0.185
00:41:24.047:1,-0.245,-0.125
00:41:24.055:1,-0.175,-0.075
00:41:24.063:1,-0.145,-0.075
00:41:24.070:1,-0.125,-0.085
00:41:24.078:1,-0.135,-0.065
00:41:24.086:1,-0.165,-0.055
00:41:24.094:1,-0.145,-0.045
00:41:24.102:1,-0.125,-0.065
00:41:24.109:1,-0.105,-0.075
00:41:24.117:1,-0.095,-0.065
00:41:24.125:1,-0.105,-0.085
00:41:24.133:1,-0.135,-0.065
00:41:24.141:1,-0.075,-0.065
00:41:24.148:1,-0.055,-0.015
00:41:24.156:1,-0.075,-0.035
00:41:24.164:1,-0.055,-0.045
00:41:24.172:1,-0.035,-0.045
00:41:24.180:1,-0.015,-0.005
00:41:24.188:1,0.005,-0.005
00:41:24.195:1,0.045,-0.005
00:41:24.203:1,-0.005,0.005
00:41:24.211:1,0.015,0.035
00:41:24.219:1,0.035,0.025
00:41:24.227:1,0.055,0.065
00:41:24.234:1,0.095,0.005
00:41:24.242:1,0.085,0.065
00:41:24.250:1,0.105,0.035
00:41:24.258:1,0.075,0.015
00:41:24.266:1,0.065,-0.015
00:41:24.273:1,0.105,0.015
00:41:24.281:1,0.125,-0.015
00:41:24.289:1,0.065,-0.035
00:41:24.297:1,0.045,-0.055
00:41:24.305:1,0.045,-0.055
00:41:24.313:1,0.005,-0.125
00:41:24.320:1,-0.025,-0.145
00:41:24.328:1,-0.055,-0.045
00:41:24.336:1,-0.055,-0.115
00:41:24.344:1,-0.055,-0.085
00:41:24.352:1,-0.075,-0.095
00:41:24.359:1,-0.075,-0.105
00:41:24.367:1,-0.065,-0.075
00:41:24.375:1,-0.125,-0.085
00:41:24.383:1,-0.055,-0.075
00:41:24.391:1,-0.125,-0.085
00:41:24.398:1,-0.105,-0.075
00:41:24.406:1,-0.045,-0.125
00:41:24.414:1,-0.045,-0.155
00:41:24.422:1,-0.065,-0.115
00:41:24.430:1,-0.065,-0.055
00:41:24.438:1,-0.065,-0.075
00:41:24.445:1,-0.045,-0.055
00:41:24.453:1,-0.075,-0.085
00:41:24.461:1,-0.055,-0.065
00:41:24.469:1,-0.055,-0.055
00:41:24.477:1,-0.015,-0.055
00:41:24.484:1,-0.035,-0.105
00:41:24.492:1,-0.035,-0.075
00:41:24.500:1,-0.045,-0.025
00:41:24.508:1,-0.005,0.005
00:41:24.516:1,-0.015,0.005
00:41:24.523:1,0.015,-0.005
00:41:24.531:1,0.035,0.025
00:41:24.539:1,0.075,-0.035
00:41:24.547:1,0.065,-0.075
00:41:24.555:1,0.085,-0.025
00:41:24.563:1,-0.025,-0.035
00:41:24.570:1,-0.025,-0.055
00:41:24.578:1,-0.045,-0.065
00:41:24.586:1,-0.105,-0.075
00:41:24.594:1,-0.085,-0.095
00:41:24.602:1,-0.105,-0.055
00:41:24.609:1,-0.125,-0.105
00:41:24.617:1,-0.135,-0.085
00:41:24.625:1,-0.145,-0.055
00:41:24.633:1,-0.135,-0.095
00:41:24.641:1,-0.095,-0.085
00:41:24.648:1,-0.125,-0.115
00:41:24.656:1,-0.115,-0.105
00:41:24.664:1,-0.125,-0.095
00:41:24.672:1,-0.135,-0.105
00:41:24.680:1,-0.095,-0.075
00:41:24.688:1,-0.095,-0.065
00:41:24.695:1,-0.005,-0.075
00:41:24.703:1,0.315,-0.055
00:41:24.711:1,1.275,-0.175
00:41:24.719:1,1.365,-0.395
00:41:24.727:1,-0.515,-0.655
00:41:24.734:1,-0.955,-0.345
00:41:24.742:1,-0.485,-0.065
00:41:24.750:1,-0.235,-0.065
00:41:24.758:1,-0.055,-0.065
00:41:24.766:1,-0.105,-0.035
00:41:24.773:1,-0.065,0.005
00:41:24.781:1,-0.095,-0.025
00:41:24.789:1,-0.115,-0.055
00:41:24.797:1,-0.105,-0.065
00:41:24.805:1,-0.065,-0.035
00:41:24.813:1,-0.065,-0.025
00:41:24.820:1,-0.055,-0.035
00:41:24.828:1,-0.075,-0.015
00:41:24.836:1,-0.055,-0.005
00:41:24.844:1,-0.015,0.045
00:41:24.852:1,-0.065,-0.055
00:41:24.859:1,-0.055,-0.035
00:41:24.867:1,-0.025,-0.035
00:41:24.875:1,-0.045,0.015
00:41:24.883:1,-0.005,0.005
00:41:24.891:1,0.015,0.005
00:41:24.898:1,0.025,0.025
00:41:24.906:1,0.095,0.075
00:41:24.914:1,0.045,0.055
00:41:24.922:1,0.075,0.035
00:41:24.930:1,0.085,0.065
00:41:24.938:1,0.075,0.055
00:41:24.945:1,0.055,0.005
00:41:24.953:1,0.105,0.055
00:41:24.961:1,0.115,0.035
00:41:24.969:1,0.115,-0.015
00:41:24.977:1,0.025,-0.025
00:41:24.984:1,0.035,-0.005
00:41:24.992:1,0.075,0.025
00:41:25.000:1,0.025,-0.005
00:41:25.008:1,0.005,-0.055
00:41:25.016:1,-0.065,-0.085
00:41:25.023:1,-0.065,-0.065
00:41:25.031:1,-0.095,-0.095
00:41:25.039:1,-0.065,-0.085
00:41:25.047:1,-0.055,-0.105
00:41:25.055:1,-0.095,-0.055
00:41:25.063:1,-0.115,-0.065
00:41:25.070:1,-0.095,-0.075
00:41:25.078:1,-0.105,-0.055
00:41:25.086:1,-0.095,-0.075
00:41:25.094:1,-0.085,-0.085
00:41:25.102:1,-0.115,-0.075
00:41:25.109:1,-0.075,-0.085
00:41:25.117:1,-0.115,-0.065
00:41:25.125:1,-0.055,-0.055
00:41:25.133:1,-0.075,-0.075
00:41:25.141:1,-0.055,-0.035
00:41:25.148:1,-0.025,-0.015
00:41:25.156:1,-0.035,-0.045
00:41:25.164:1,-0.065,-0.075
00:41:25.172:1,-0.065,-0.075
00:41:25.180:1,-0.095,-0.065
00:41:25.188:1,-0.035,-0.065
00:41:25.195:1,-0.045,-0.035
00:41:25.203:1,-0.055,-0.065
00:41:25.211:1,-0.005,-0.005
00:41:25.219:1,0.005,-0.015
00:41:25.227:1,0.035,-0.055
00:41:25.234:1,0.035,-0.025
00:41:25.242:1,0.055,-0.025
00:41:25.250:1,0.105,-0.015
00:41:25.258:1,-0.005,-0.095
00:41:25.266:1,0.015,-0.075
00:41:25.273:1,-0.045,-0.085
00:41:25.281:1,-0.055,-0.105
00:41:25.289:1,-0.115,-0.145
00:41:25.297:1,-0.085,-0.135
00:41:25.305:1,-0.105,-0.115
00:41:25.313:1,-0.145,-0.125
00:41:25.320:1,-0.155,-0.145
00:41:25.328:1,-0.135,-0.105
00:41:25.336:1,-0.075,-0.135
00:41:25.344:1,-0.135,-0.145
00:41:25.352:1,-0.125,-0.125
00:41:25.359:1,-0.085,-0.115
00:41:25.367:1,-0.125,-0.125
00:41:25.375:1,-0.105,-0.125
00:41:25.383:1,-0.105,-0.125
00:41:25.391:1,-0.075,-0.065
00:41:25.398:1,0.145,-0.095
00:41:25.406:1,0.745,-0.145
00:41:25.414:1,1.775,-0.375
00:41:25.422:1,0.885,-0.635
00:41:25.430:1,-0.795,-0.655
00:41:25.438:1,-0.825,-0.305
00:41:25.445:1,-0.335,-0.115
00:41:25.453:1,-0.135,-0.095
00:41:25.461:1,-0.085,-0.065
00:41:25.469:1,-0.105,-0.065
00:41:25.477:1,-0.085,-0.065
00:41:25.484:1,-0.075,-0.075
00:41:25.492:1,-0.065,-0.065
00:41:25.500:1,-0.075,-0.095
00:41:25.508:1,-0.075,-0.075
00:41:25.516:1,-0.065,-0.095
00:41:25.523:1,-0.045,-0.045
00:41:25.531:1,-0.045,-0.075
00:41:25.539:1,-0.065,-0.055
00:41:25.547:1,-0.045,-0.085
00:41:25.555:1,-0.005,-0.015
00:41:25.563:1,-0.005,-0.065
00:41:25.570:1,-0.025,-0.075
00:41:25.578:1,0.025,-0.015
00:41:25.586:1,0.005,-0.025
00:41:25.594:1,0.035,-0.015
00:41:25.602:1,0.045,0.005
00:41:25.609:1,0.065,0.005
00:41:25.617:1,0.095,0.025
00:41:25.625:1,0.095,0.035
00:41:25.633:1,0.105,0.005
00:41:25.641:1,0.095,0.015
00:41:25.648:1,0.115,0.025
00:41:25.656:1,0.085,-0.015
00:41:25.664:1,0.115,-0.015
00:41:25.672:1,0.085,-0.025
00:41:25.680:1,0.095,-0.015
00:41:25.688:1,0.105,-0.035
00:41:25.695:1,0.065,-0.075
00:41:25.703:1,-0.015,-0.095
00:41:25.711:1,-0.025,-0.095
00:41:25.719:1,-0.035,-0.105
00:41:25.727:1,-0.065,-0.145
00:41:25.734:1,-0.075,-0.125
00:41:25.742:1,-0.085,-0.115
00:41:25.750:1,-0.095,-0.115
00:41:25.758:1,-0.095,-0.145
00:41:25.766:1,-0.105,-0.165
00:41:25.773:1,-0.085,-0.115
00:41:25.781:1,-0.105,-0.125
00:41:25.789:1,-0.115,-0.135
00:41:25.797:1,-0.085,-0.115
00:41:25.805:1,-0.065,-0.105
00:41:25.813:1,-0.085,-0.085
00:41:25.820:1,-0.115,-0.145
00:41:25.828:1,-0.025,-0.105
00:41:25.836:1,-0.045,-0.065
00:41:25.844:1,-0.075,-0.115
00:41:25.852:1,-0.085,-0.095
00:41:25.859:1,-0.035,-0.095
00:41:25.867:1,-0.045,-0.065
00:41:25.875:1,-0.055,-0.085
00:41:25.883:1,-0.045,-0.085
00:41:25.891:1,-0.035,-0.075
00:41:25.898:1,-0.005,-0.045
00:41:25.906:1,-0.015,-0.035
00:41:25.914:1,-0.005,-0.015
00:41:25.922:1,0.045,-0.065
00:41:25.930:1,0.055,-0.055
00:41:25.938:1,0.045,-0.075
00:41:25.945:1,0.065,-0.065
00:41:25.953:1,0.095,-0.085
00:41:25.961:1,0.035,-0.095
00:41:25.969:1,-0.005,-0.085
00:41:25.977:1,-0.065,-0.125
00:41:25.984:1,-0.105,-0.145
00:41:25.992:1,-0.085,-0.125
00:41:26.000:1,-0.085,-0.115
00:41:26.008:1,-0.125,-0.145
00:41:26.016:1,-0.115,-0.155
00:41:26.023:1,-0.145,-0.175
00:41:26.031:1,-0.105,-0.155
00:41:26.039:1,-0.125,-0.155
00:41:26.047:1,-0.155,-0.165
00:41:26.055:1,-0.115,-0.135
00:41:26.063:1,-0.095,-0.135
00:41:26.070:1,-0.125,-0.125
00:41:26.078:1,-0.085,-0.145
00:41:26.086:1,-0.125,-0.135
00:41:26.094:1,-0.065,-0.125
00:41:26.102:1,0.245,-0.115
00:41:26.109:1,0.925,-0.265
00:41:26.117:1,1.895,-0.435
00:41:26.125:1,0.115,-0.665
00:41:26.133:1,-0.975,-0.505
00:41:26.141:1,-0.665,-0.245
00:41:26.148:1,-0.235,-0.105
00:41:26.156:1,-0.115,-0.085
00:41:26.164:1,-0.105,-0.085
00:41:26.172:1,-0.115,-0.085
00:41:26.180:1,-0.095,-0.045
00:41:26.188:1,-0.055,-0.015
00:41:26.195:1,-0.065,-0.105
00:41:26.203:1,-0.075,-0.085
00:41:26.211:1,-0.035,-0.045
00:41:26.219:1,-0.045,-0.045
00:41:26.227:1,-0.025,-0.055
00:41:26.234:1,0.005,-0.035
00:41:26.242:1,-0.005,-0.055
00:41:26.250:1,0.005,-0.055
00:41:26.258:1,-0.005,-0.025
00:41:26.266:1,0.005,-0.045
00:41:26.273:1,0.055,0.005
00:41:26.281:1,0.075,-0.005
00:41:26.289:1,0.075,0.015
00:41:26.297:1,0.075,0.015
00:41:26.305:1,0.095,0.035
00:41:26.313:1,0.115,0.035
00:41:26.320:1,0.155,0.045
00:41:26.328:1,0.135,0.035
00:41:26.336:1,0.165,0.055
00:41:26.344:1,0.145,0.025
00:41:26.352:1,0.135,0.005
00:41:26.359:1,0.165,0.025
00:41:26.367:1,0.185,0.035
00:41:26.375:1,0.155,-0.035
00:41:26.383:1,0.145,-0.045
00:41:26.391:1,0.085,-0.015
00:41:26.398:1,0.045,-0.045
00:41:26.406:1,0.035,-0.045
00:41:26.414:1,0.005,-0.065
00:41:26.422:1,-0.045,-0.075
00:41:26.430:1,-0.015,-0.095
00:41:26.438:1,-0.055,-0.075
00:41:26.445:1,-0.075,-0.075
00:41:26.453:1,-0.065,-0.095
00:41:26.461:1,-0.045,-0.075
00:41:26.469:1,-0.045,-0.095
00:41:26.477:1,-0.055,-0.105
00:41:26.484:1,-0.055,-0.095
00:41:26.492:1,-0.055,-0.065
00:41:26.500:1,-0.085,-0.095
00:41:26.508:1,-0.025,-0.025
00:41:26.516:1,-0.055,-0.085
00:41:26.523:1,-0.045,-0.055
00:41:26.531:1,-0.045,-0.055
00:41:26.539:1,-0.025,-0.055
00:41:26.547:1,-0.035,-0.075
00:41:26.555:1,-0.025,-0.055
00:41:26.563:1,-0.035,-0.055
00:41:26.570:1,-0.015,-0.055
00:41:26.578:1,-0.045,-0.045
00:41:26.586:1,-0.035,-0.045
00:41:26.594:1,-0.025,-0.055
00:41:26.602:1,-0.015,-0.055
00:41:26.609:1,0.055,-0.005
00:41:26.617:1,0.065,-0.005
00:41:26.625:1,0.065,0.005
00:41:26.633:1,0.075,-0.055
00:41:26.641:1,0.085,-0.035
00:41:26.648:1,0.095,-0.015
00:41:26.656:1,0.115,-0.035
00:41:26.664:1,0.065,-0.035
00:41:26.672:1,0.065,-0.055
00:41:26.680:1,0.035,-0.065
00:41:26.688:1,-0.015,-0.095
00:41:26.695:1,-0.065,-0.135
00:41:26.703:1,-0.085,-0.115
00:41:26.711:1,-0.055,-0.075
00:41:26.719:1,-0.085,-0.105
00:41:26.727:1,-0.075,-0.105
00:41:26.734:1,-0.085,-0.135
00:41:26.742:1,-0.075,-0.095
00:41:26.750:1,-0.085,-0.085
00:41:26.758:1,-0.085,-0.095
00:41:26.766:1,-0.095,-0.095
00:41:26.773:1,-0.085,-0.105
00:41:26.781:1,-0.055,-0.065
00:41:26.789:1,-0.065,-0.135
00:41:26.797:1,-0.075,-0.105
00:41:26.805:1,0.025,-0.055
00:41:26.813:1,0.305,-0.095
00:41:26.820:1,0.945,-0.335
00:41:26.828:1,1.715,-0.475
00:41:26.836:1,0.095,-0.625
00:41:26.844:1,-0.895,-0.475
00:41:26.852:1,-0.615,-0.235
00:41:26.859:1,-0.175,-0.065
00:41:26.867:1,-0.055,0.015
00:41:26.875:1,-0.025,-0.025
00:41:26.883:1,-0.065,-0.005
00:41:26.891:1,-0.065,-0.035
00:41:26.898:1,-0.045,-0.005
00:41:26.906:1,-0.055,-0.015
00:41:26.914:1,-0.035,-0.015
00:41:26.922:1,-0.035,-0.005
00:41:26.930:1,-0.015,0.015
00:41:26.938:1,-0.025,0.035
00:41:26.945:1,-0.005,0.035
00:41:26.953:1,-0.025,-0.015
00:41:26.961:1,-0.005,0.015
00:41:26.969:1,0.015,0.045
00:41:26.977:1,0.005,0.015
00:41:26.984:1,0.035,0.025
00:41:26.992:1,0.065,0.075
00:41:27.000:1,0.015,0.075
00:41:27.008:1,0.125,0.065
00:41:27.016:1,0.125,0.015
00:41:27.023:1,0.055,0.135
00:41:27.031:1,0.095,0.085
00:41:27.039:1,0.185,0.055
00:41:27.047:1,0.125,0.105
00:41:27.055:1,0.095,0.145
00:41:27.063:1,0.135,0.115
00:41:27.070:1,0.135,0.075
00:41:27.078:1,0.125,0.065
00:41:27.086:1,0.165,0.055
00:41:27.094:1,0.135,0.065
00:41:27.102:1,0.115,0.025
00:41:27.109:1,0.095,0.025
00:41:27.117:1,0.065,-0.005
00:41:27.125:1,0.005,-0.015
00:41:27.133:1,-0.035,-0.045
00:41:27.141:1,-0.045,-0.045
00:41:27.148:1,-0.055,-0.035
00:41:27.156:1,-0.055,-0.045
00:41:27.164:1,-0.075,-0.035
00:41:27.172:1,-0.075,-0.075
00:41:27.180:1,-0.095,-0.055
00:41:27.188:1,-0.055,-0.065
00:41:27.195:1,-0.045,-0.055
00:41:27.203:1,-0.065,-0.055
00:41:27.211:1,-0.055,-0.025
00:41:27.219:1,-0.055,-0.025
00:41:27.227:1,-0.065,-0.025
00:41:27.234:1,-0.055,-0.035
00:41:27.242:1,-0.035,-0.015
00:41:27.250:1,-0.055,-0.035
00:41:27.258:1,-0.055,-0.035
00:41:27.266:1,-0.045,-0.045
00:41:27.273:1,-0.015,-0.015
00:41:27.281:1,-0.035,-0.025
00:41:27.289:1,-0.055,-0.045
00:41:27.297:1,-0.025,-0.005
00:41:27.305:1,-0.015,-0.025
00:41:27.313:1,-0.015,-0.005
00:41:27.320:1,0.005,-0.005
00:41:27.328:1,-0.005,0.045
00:41:27.336:1,0.035,0.045
00:41:27.344:1,0.025,0.045
00:41:27.352:1,0.015,-0.015
00:41:27.359:1,0.065,-0.005
00:41:27.367:1,0.085,0.005
00:41:27.375:1,0.135,0.025
00:41:27.383:1,0.025,-0.025
00:41:27.391:1,-0.015,-0.045
00:41:27.398:1,-0.055,-0.065
00:41:27.406:1,-0.075,-0.045
00:41:27.414:1,-0.085,-0.065
00:41:27.422:1,-0.095,-0.095
00:41:27.430:1,-0.075,-0.085
00:41:27.438:1,-0.085,-0.065
00:41:27.445:1,-0.115,-0.065
00:41:27.453:1,-0.115,-0.085
00:41:27.461:1,-0.115,-0.075
00:41:27.469:1,-0.095,-0.075
00:41:27.477:1,-0.065,-0.055
00:41:27.484:1,-0.125,-0.045
00:41:27.492:1,-0.065,-0.105
00:41:27.500:1,-0.105,-0.065
00:41:27.508:1,-0.065,-0.045
00:41:27.516:1,-0.095,-0.035
00:41:27.523:1,0.075,-0.035
00:41:27.531:1,0.455,-0.065
00:41:27.539:1,1.395,-0.275
00:41:27.547:1,1.195,-0.435
00:41:27.555:1,-0.535,-0.625
00:41:27.563:1,-0.865,-0.295
00:41:27.570:1,-0.495,-0.135
00:41:27.578:1,-0.165,-0.035
00:41:27.586:1,-0.095,-0.005
00:41:27.594:1,-0.085,-0.005
00:41:27.602:1,-0.075,-0.015
00:41:27.609:1,-0.065,0.015
00:41:27.617:1,-0.105,-0.015
00:41:27.625:1,-0.055,-0.005
00:41:27.633:1,-0.085,-0.015
00:41:27.641:1,-0.095,-0.015
00:41:27.648:1,-0.065,0.015
00:41:27.656:1,-0.025,0.015
00:41:27.664:1,-0.065,0.005
00:41:27.672:1,-0.035,0.005
00:41:27.680:1,-0.005,0.025
00:41:27.688:1,-0.045,0.015
00:41:27.695:1,-0.035,0.025
00:41:27.703:1,-0.005,0.025
00:41:27.711:1,0.005,0.065
00:41:27.719:1,0.095,0.055
00:41:27.727:1,0.025,0.075
00:41:27.734:1,0.045,0.055
00:41:27.742:1,0.045,0.065
00:41:27.750:1,0.055,0.085
00:41:27.758:1,0.105,0.095
00:41:27.766:1,0.065,0.065
00:41:27.773:1,0.115,0.095
00:41:27.781:1,0.095,0.065
00:41:27.789:1,0.105,0.065
00:41:27.797:1,0.085,0.055
00:41:27.805:1,0.065,0.035
00:41:27.813:1,0.045,0.045
00:41:27.820:1,0.035,0.025
00:41:27.828:1,0.005,0.005
00:41:27.836:1,-0.045,0.005
00:41:27.844:1,-0.045,0.005
00:41:27.852:1,-0.065,-0.025
00:41:27.859:1,-0.085,-0.025
00:41:27.867:1,-0.075,-0.025
00:41:27.875:1,-0.065,-0.035
00:41:27.883:1,-0.105,-0.045
00:41:27.891:1,-0.105,-0.035
00:41:27.898:1,-0.095,-0.025
00:41:27.906:1,-0.095,-0.015
00:41:27.914:1,-0.055,-0.025
00:41:27.922:1,-0.105,-0.045
00:41:27.930:1,-0.095,-0.025
00:41:27.938:1,-0.065,-0.015
00:41:27.945:1,-0.085,-0.045
00:41:27.953:1,-0.055,-0.005
00:41:27.961:1,-0.075,-0.015
00:41:27.969:1,-0.065,-0.015
00:41:27.977:1,-0.055,-0.005
00:41:27.984:1,-0.045,-0.035
00:41:27.992:1,-0.065,-0.025
00:41:28.000:1,-0.075,-0.015
00:41:28.008:1,-0.015,0.005
00:41:28.016:1,-0.015,0.005
00:41:28.023:1,-0.015,0.045
00:41:28.031:1,0.005,0.025
00:41:28.039:1,0.055,0.005
00:41:28.047:1,0.055,0.005
00:41:28.055:1,0.055,-0.005
00:41:28.063:1,0.075,-0.005
00:41:28.070:1,0.045,-0.045
00:41:28.078:1,-0.015,-0.065
00:41:28.086:1,-0.025,-0.055
00:41:28.094:1,-0.095,-0.085
00:41:28.102:1,-0.135,-0.135
00:41:28.109:1,-0.095,-0.125
00:41:28.117:1,-0.095,-0.105
00:41:28.125:1,-0.135,-0.105
00:41:28.133:1,-0.145,-0.125
00:41:28.141:1,-0.135,-0.115
00:41:28.148:1,-0.115,-0.115
00:41:28.156:1,-0.115,-0.115
00:41:28.164:1,-0.175,-0.135
00:41:28.172:1,-0.125,-0.135
00:41:28.180:1,-0.105,-0.155
00:41:28.188:1,-0.005,-0.145
00:41:28.195:1,-0.135,-0.105
00:41:28.203:1,-0.155,-0.095
00:41:28.211:1,-0.065,-0.085
00:41:28.219:1,0.225,-0.095
00:41:28.227:1,1.095,-0.225
00:41:28.234:1,1.735,-0.445
00:41:28.242:1,-0.135,-0.705
00:41:28.250:1,-0.875,-0.515
00:41:28.258:1,-0.615,-0.235
00:41:28.266:1,-0.255,-0.135
00:41:28.273:1,-0.115,-0.095
00:41:28.281:1,-0.115,-0.065
00:41:28.289:1,-0.085,-0.055
00:41:28.297:1,-0.075,-0.065
00:41:28.305:1,-0.075,-0.065
00:41:28.313:1,-0.085,-0.055
00:41:28.320:1,-0.075,-0.055
00:41:28.328:1,-0.085,-0.045
00:41:28.336:1,-0.045,-0.035
00:41:28.344:1,-0.025,-0.025
00:41:28.352:1,-0.035,-0.055
00:41:28.359:1,0.015,-0.045
00:41:28.367:1,-0.005,-0.015
00:41:28.375:1,-0.055,-0.015
00:41:28.383:1,-0.075,-0.035
00:41:28.391:1,-0.025,-0.025
00:41:28.398:1,0.025,-0.005
00:41:28.406:1,0.025,0.035
00:41:28.414:1,-0.005,0.025
00:41:28.422:1,0.055,0.035
00:41:28.430:1,0.025,0.045
00:41:28.438:1,0.075,0.045
00:41:28.445:1,0.085,0.045
00:41:28.453:1,0.045,0.065
00:41:28.461:1,0.055,0.065
00:41:28.469:1,0.075,0.045
00:41:28.477:1,0.095,0.035
00:41:28.484:1,0.065,0.015
00:41:28.492:1,0.025,0.055
00:41:28.500:1,0.005,-0.015
00:41:28.508:1,0.015,0.015
00:41:28.516:1,-0.025,-0.045
00:41:28.523:1,0.015,-0.055
00:41:28.531:1,-0.115,-0.095
00:41:28.539:1,-0.135,-0.075
00:41:28.547:1,-0.165,-0.075
00:41:28.555:1,-0.145,-0.075
00:41:28.563:1,-0.155,-0.075
00:41:28.570:1,-0.125,-0.035
00:41:28.578:1,-0.165,-0.075
00:41:28.586:1,-0.145,-0.065
00:41:28.594:1,-0.165,-0.045
00:41:28.602:1,-0.155,-0.075
00:41:28.609:1,-0.125,-0.075
00:41:28.617:1,-0.085,-0.085
00:41:28.625:1,-0.055,-0.065
00:41:28.633:1,-0.155,-0.105
00:41:28.641:1,-0.145,-0.075
00:41:28.648:1,-0.125,-0.035
00:41:28.656:1,-0.155,-0.045
00:41:28.664:1,-0.135,-0.055
00:41:28.672:1,-0.125,-0.045
00:41:28.680:1,-0.115,-0.045
00:41:28.688:1,-0.105,-0.045
00:41:28.695:1,-0.135,-0.055
00:41:28.703:1,-0.105,-0.025
00:41:28.711:1,-0.085,-0.035
00:41:28.719:1,-0.125,-0.065
00:41:28.727:1,-0.125,-0.035
00:41:28.734:1,-0.095,-0.005
00:41:28.742:1,-0.085,0.015
00:41:28.750:1,-0.055,0.005
00:41:28.758:1,-0.055,-0.025
00:41:28.766:1,-0.065,-0.045
00:41:28.773:1,0.005,-0.045
00:41:28.781:1,0.005,-0.005
00:41:28.789:1,-0.045,-0.045
00:41:28.797:1,-0.075,-0.065
00:41:28.805:1,-0.065,-0.065
00:41:28.813:1,-0.185,-0.145
00:41:28.820:1,-0.175,-0.125
00:41:28.828:1,-0.175,-0.145
00:41:28.836:1,-0.215,-0.135
00:41:28.844:1,-0.195,-0.105
00:41:28.852:1,-0.165,-0.115
00:41:28.859:1,-0.225,-0.145
00:41:28.867:1,-0.215,-0.145
00:41:28.875:1,-0.215,-0.125
00:41:28.883:1,-0.215,-0.125
00:41:28.891:1,-0.185,-0.125
00:41:28.898:1,-0.175,-0.135
00:41:28.906:1,-0.185,-0.125
00:41:28.914:1,-0.175,-0.115
00:41:28.922:1,-0.215,-0.105
00:41:28.930:1,-0.115,-0.095
00:41:28.938:1,0.215,-0.125
00:41:28.945:1,0.825,-0.375
00:41:28.953:1,1.805,-0.565
00:41:28.961:1,0.345,-0.835
00:41:28.969:1,-0.995,-0.675
00:41:28.977:1,-0.685,-0.295
00:41:28.984:1,-0.285,-0.105
00:41:28.992:1,-0.145,-0.045
00:41:29.000:1,-0.145,-0.005
00:41:29.008:1,-0.135,-0.025
00:41:29.016:1,-0.155,-0.055
00:41:29.023:1,-0.135,-0.025
00:41:29.031:1,-0.125,-0.035
00:41:29.039:1,-0.115,-0.035
00:41:29.047:1,-0.125,-0.015
00:41:29.055:1,-0.145,-0.005
00:41:29.063:1,-0.095,0.005
00:41:29.070:1,-0.135,-0.045
00:41:29.078:1,-0.105,-0.035
00:41:29.086:1,-0.095,-0.015
00:41:29.094:1,-0.075,0.045
00:41:29.102:1,-0.085,-0.015
00:41:29.109:1,-0.065,0.025
00:41:29.117:1,-0.035,0.045
00:41:29.125:1,-0.035,0.065
00:41:29.133:1,-0.025,0.055
00:41:29.141:1,-0.015,0.075
00:41:29.148:1,0.005,0.105
00:41:29.156:1,0.035,0.115
00:41:29.164:1,0.025,0.125
00:41:29.172:1,0.065,0.125
00:41:29.180:1,0.065,0.125
00:41:29.188:1,0.055,0.105
00:41:29.195:1,0.065,0.075
00:41:29.203:1,0.075,0.075
00:41:29.211:1,0.075,0.065
00:41:29.219:1,0.085,0.035
00:41:29.227:1,0.055,-0.015
00:41:29.234:1,0.045,-0.035
00:41:29.242:1,-0.035,-0.005
00:41:29.250:1,-0.075,-0.055
00:41:29.258:1,-0.075,-0.085
00:41:29.266:1,-0.055,-0.075
00:41:29.273:1,-0.095,-0.055
00:41:29.281:1,-0.095,-0.085
00:41:29.289:1,-0.105,-0.085
00:41:29.297:1,-0.095,-0.135
00:41:29.305:1,-0.095,-0.095
00:41:29.313:1,-0.095,-0.095
00:41:29.320:1,-0.115,-0.095
00:41:29.328:1,-0.085,-0.085
00:41:29.336:1,-0.095,-0.065
00:41:29.344:1,-0.125,-0.055
00:41:29.352:1,-0.105,-0.045
00:41:29.359:1,-0.115,-0.095
00:41:29.367:1,-0.065,-0.135
00:41:29.375:1,-0.095,-0.135
00:41:29.383:1,-0.115,-0.095
00:41:29.391:1,-0.115,-0.115
00:41:29.398:1,-0.125,-0.115
00:41:29.406:1,-0.125,-0.105
00:41:29.414:1,-0.135,-0.095
00:41:29.422:1,-0.135,-0.065
00:41:29.430:1,-0.095,-0.045
00:41:29.438:1,-0.085,-0.025
00:41:29.445:1,-0.085,-0.025
00:41:29.453:1,-0.055,-0.005
00:41:29.461:1,-0.015,-0.015
00:41:29.469:1,-0.025,-0.045
00:41:29.477:1,-0.005,-0.065
00:41:29.484:1,-0.035,-0.055
00:41:29.492:1,0.015,-0.035
00:41:29.500:1,-0.045,-0.075
00:41:29.508:1,-0.055,-0.065
00:41:29.516:1,-0.095,-0.095
00:41:29.523:1,-0.145,-0.105
00:41:29.531:1,-0.145,-0.095
00:41:29.539:1,-0.155,-0.185
00:41:29.547:1,-0.155,-0.145
00:41:29.555:1,-0.145,-0.125
00:41:29.563:1,-0.165,-0.135
00:41:29.570:1,-0.145,-0.145
00:41:29.578:1,-0.145,-0.125
00:41:29.586:1,-0.155,-0.125
00:41:29.594:1,-0.115,-0.095
00:41:29.602:1,-0.155,-0.135
00:41:29.609:1,-0.135,-0.155
00:41:29.617:1,-0.065,-0.145
00:41:29.625:1,-0.145,-0.055
00:41:29.633:1,-0.065,-0.085
00:41:29.641:1,0.245,-0.155
00:41:29.648:1,0.945,-0.385
00:41:29.656:1,1.755,-0.625
00:41:29.664:1,0.075,-0.855
00:41:29.672:1,-0.895,-0.605
00:41:29.680:1,-0.625,-0.275
00:41:29.688:1,-0.185,-0.075
00:41:29.695:1,-0.105,-0.055
00:41:29.703:1,-0.105,-0.055
00:41:29.711:1,-0.095,-0.025
00:41:29.719:1,-0.115,-0.045
00:41:29.727:1,-0.085,-0.045
00:41:29.734:1,-0.055,-0.015
00:41:29.742:1,-0.055,-0.005
00:41:29.750:1,-0.065,-0.025
00:41:29.758:1,-0.055,-0.035
00:41:29.766:1,-0.055,-0.025
00:41:29.773:1,-0.055,-0.015
00:41:29.781:1,-0.035,-0.005
00:41:29.789:1,-0.025,-0.005
00:41:29.797:1,-0.025,-0.015
00:41:29.805:1,-0.015,0.035
00:41:29.813:1,-0.045,0.055
00:41:29.820:1,0.015,0.075
00:41:29.828:1,0.035,-0.035
00:41:29.836:1,0.035,0.005
00:41:29.844:1,0.015,0.075
00:41:29.852:1,0.035,0.035
00:41:29.859:1,0.045,0.065
00:41:29.867:1,0.085,0.075
00:41:29.875:1,0.125,0.115
00:41:29.883:1,0.085,0.095
00:41:29.891:1,0.095,0.115
00:41:29.898:1,0.085,0.105
00:41:29.906:1,0.105,0.075
00:41:29.914:1,0.095,0.025
00:41:29.922:1,0.095,0.025
00:41:29.930:1,0.115,0.025
00:41:29.938:1,0.045,0.025
00:41:29.945:1,0.025,0.015
00:41:29.953:1,-0.025,-0.015
00:41:29.961:1,-0.265,0.125
00:41:29.969:1,-0.085,0.045
00:41:29.977:1,-0.475,0.505
00:41:29.984:1,-0.005,-0.175
00:41:29.992:1,0.025,-0.525
00:41:30.000:1,-0.065,-0.255
00:41:30.008:1,-0.125,-0.085
00:41:30.016:1,-0.145,-0.055
00:41:30.023:1,-0.135,-0.035
00:41:30.031:1,-0.145,-0.055
00:41:30.039:1,-0.145,-0.045
00:41:30.047:1,-0.135,-0.055
00:41:30.055:1,-0.115,-0.025
00:41:30.063:1,-0.115,-0.025
00:41:30.070:1,-0.135,-0.025
00:41:30.078:1,-0.155,-0.045
00:41:30.086:1,-0.135,-0.045
00:41:30.094:1,-0.115,-0.025
00:41:30.102:1,-0.105,0.005
00:41:30.109:1,-0.095,-0.075
00:41:30.117:1,-0.085,-0.045
00:41:30.125:1,-0.095,0.005
00:41:30.133:1,-0.115,-0.055
00:41:30.141:1,-0.085,0.155
00:41:30.148:1,-0.055,0.005
00:41:30.156:1,-0.015,-0.055
00:41:30.164:1,-0.005,0.015
00:41:30.172:1,0.005,0.015
00:41:30.180:1,0.005,-0.135
00:41:30.188:1,0.045,-0.025
00:41:30.195:1,0.035,-0.045
00:41:30.203:1,-0.035,-0.005
00:41:30.211:1,-0.105,-0.105
00:41:30.219:1,-0.135,-0.045
00:41:30.227:1,-0.145,-0.055
00:41:30.234:1,-0.185,-0.165
00:41:30.242:1,-0.145,-0.045
00:41:30.250:1,-0.145,-0.045
00:41:30.258:1,-0.155,-0.195
00:41:30.266:1,-0.155,-0.045
00:41:30.273:1,-0.175,-0.145
00:41:30.281:1,-0.165,-0.125
00:41:30.289:1,-0.155,-0.115
00:41:30.297:1,-0.155,-0.105
00:41:30.305:1,-0.135,-0.085
00:41:30.313:1,-0.165,-0.085
00:41:30.320:1,-0.115,-0.085
00:41:30.328:1,-0.205,0.005
00:41:30.336:1,-0.005,-0.075
00:41:30.344:1,0.355,0.165
00:41:30.352:1,1.175,-0.645
00:41:30.359:1,1.495,-0.755
00:41:30.367:1,-0.265,-0.685
00:41:30.375:1,-0.845,-0.415
00:41:30.383:1,-0.495,-0.245
00:41:30.391:1,-0.125,-0.135
00:41:30.398:1,-0.105,-0.025
00:41:30.406:1,-0.115,-0.005
00:41:30.414:1,-0.085,0.065
00:41:30.422:1,-0.025,0.105
00:41:30.430:1,-0.065,-0.115
00:41:30.438:1,-0.125,0.215
00:41:30.445:1,-0.065,-0.035
00:41:30.453:1,-0.065,-0.115
00:41:30.461:1,-0.075,-0.085
00:41:30.469:1,-0.095,-0.035
00:41:30.477:1,-0.065,-0.045
00:41:30.484:1,-0.075,-0.045
00:41:30.492:1,-0.085,0.065
00:41:30.500:1,0.045,-0.025
00:41:30.508:1,0.035,-0.145
00:41:30.516:1,-0.065,0.045
00:41:30.523:1,0.045,0.025
00:41:30.531:1,-0.055,0.005
00:41:30.539:1,-0.015,-0.005
00:41:30.547:1,0.005,-0.005
00:41:30.555:1,0.045,0.085
00:41:30.563:1,0.055,0.065
00:41:30.570:1,0.035,0.095
00:41:30.578:1,0.055,0.015
00:41:30.586:1,0.005,0.055
00:41:30.594:1,0.055,0.085
00:41:30.602:1,0.165,-0.125
00:41:30.609:1,0.095,-0.075
00:41:30.617:1,0.005,0.015
00:41:30.625:1,-0.015,-0.045
00:41:30.633:1,-0.065,-0.055
00:41:30.641:1,-0.045,-0.055
00:41:30.648:1,-0.085,0.025
00:41:30.656:1,-0.105,-0.035
00:41:30.664:1,-0.125,-0.125
00:41:30.672:1,-0.125,-0.125
00:41:30.680:1,-0.125,-0.085
00:41:30.688:1,-0.155,-0.075
00:41:30.695:1,-0.165,-0.125
00:41:30.703:1,-0.165,-0.075
00:41:30.711:1,-0.165,-0.055
00:41:30.719:1,-0.155,-0.105
00:41:30.727:1,-0.145,-0.025
00:41:30.734:1,-0.135,-0.145
00:41:30.742:1,-0.175,-0.145
00:41:30.750:1,-0.135,-0.085
00:41:30.758:1,-0.115,-0.085
00:41:30.766:1,-0.125,-0.075
00:41:30.773:1,-0.175,-0.085
00:41:30.781:1,-0.125,-0.055
00:41:30.789:1,-0.125,-0.035
00:41:30.797:1,-0.135,-0.055
00:41:30.805:1,-0.115,-0.055
00:41:30.813:1,-0.155,-0.025
00:41:30.820:1,-0.035,0.305
00:41:30.828:1,-0.105,-0.175
00:41:30.836:1,-0.025,0.015
00:41:30.844:1,-0.005,-0.045
00:41:30.852:1,-0.035,-0.075
00:41:30.859:1,-0.005,0.005
00:41:30.867:1,0.025,0.025
00:41:30.875:1,-0.055,0.085
00:41:30.883:1,-0.055,-0.095
00:41:30.891:1,-0.095,-0.215
00:41:30.898:1,-0.135,-0.145
00:41:30.906:1,-0.185,-0.095
00:41:30.914:1,-0.255,-0.125
00:41:30.922:1,-0.175,-0.075
00:41:30.930:1,-0.175,0.155
00:41:30.938:1,-0.205,-0.215
00:41:30.945:1,-0.285,-0.215
00:41:30.953:1,-0.195,0.085
00:41:30.961:1,-0.205,-0.175
00:41:30.969:1,-0.215,-0.195
00:41:30.977:1,-0.215,-0.155
00:41:30.984:1,-0.185,-0.105
00:41:30.992:1,-0.225,-0.125
00:41:31.000:1,-0.185,-0.145
00:41:31.008:1,-0.225,-0.115
00:41:31.016:1,-0.125,-0.125
00:41:31.023:1,0.215,-0.085
00:41:31.031:1,1.125,-0.235
00:41:31.039:1,1.675,-0.425
00:41:31.047:1,-0.205,-0.615
00:41:31.055:1,-0.895,-0.355
00:41:31.063:1,-0.705,-0.185
00:41:31.070:1,-0.335,-0.245
00:41:31.078:1,-0.185,-0.165
00:41:31.086:1,-0.135,-0.095
00:41:31.094:1,-0.185,-0.085
00:41:31.102:1,-0.185,-0.095
00:41:31.109:1,-0.195,-0.105
00:41:31.117:1,-0.155,-0.075
00:41:31.125:1,-0.175,-0.075
00:41:31.133:1,-0.155,-0.085
00:41:31.141:1,-0.135,-0.075
00:41:31.148:1,-0.145,-0.045
00:41:31.156:1,-0.115,-0.065
00:41:31.164:1,-0.145,-0.085
00:41:31.172:1,-0.115,-0.065
00:41:31.180:1,-0.125,-0.045
00:41:31.188:1,-0.105,-0.045
00:41:31.195:1,-0.105,-0.065
00:41:31.203:1,-0.105,-0.035
00:41:31.211:1,-0.055,-0.005
00:41:31.219:1,-0.075,-0.005
00:41:31.227:1,-0.035,-0.005
00:41:31.234:1,-0.025,0.025
00:41:31.242:1,-0.035,0.015
00:41:31.250:1,-0.005,0.015
00:41:31.258:1,-0.035,0.015
00:41:31.266:1,-0.015,0.015
00:41:31.273:1,-0.015,0.015
00:41:31.281:1,-0.065,0.005
00:41:31.289:1,-0.045,-0.005
00:41:31.297:1,-0.025,-0.025
00:41:31.305:1,-0.035,-0.005
00:41:31.313:1,-0.035,-0.045
00:41:31.320:1,-0.095,-0.045
00:41:31.328:1,-0.155,-0.065
00:41:31.336:1,-0.095,-0.055
00:41:31.344:1,-0.175,-0.095
00:41:31.352:1,-0.155,-0.105
00:41:31.359:1,-0.185,-0.105
00:41:31.367:1,-0.175,-0.095
00:41:31.375:1,-0.185,-0.095
00:41:31.383:1,-0.195,-0.105
00:41:31.391:1,-0.215,-0.085
00:41:31.398:1,-0.195,-0.085
00:41:31.406:1,-0.165,-0.085
00:41:31.414:1,-0.175,-0.095
00:41:31.422:1,-0.135,-0.075
00:41:31.430:1,-0.175,-0.075
00:41:31.438:1,-0.145,-0.055
00:41:31.445:1,-0.165,-0.115
00:41:31.453:1,-0.155,-0.105
00:41:31.461:1,-0.145,-0.075
00:41:31.469:1,-0.155,-0.075
00:41:31.477:1,-0.125,-0.065
00:41:31.484:1,-0.105,-0.065
00:41:31.492:1,-0.045,-0.015
00:41:31.500:1,-0.045,-0.005
00:41:31.508:1,-0.035,0.005
00:41:31.516:1,-0.035,-0.005
00:41:31.523:1,-0.055,-0.035
00:41:31.531:1,-0.015,-0.025
00:41:31.539:1,-0.005,-0.025
00:41:31.547:1,-0.005,-0.025
00:41:31.555:1,0.015,-0.035
00:41:31.563:1,-0.065,-0.045
00:41:31.570:1,-0.115,-0.085
00:41:31.578:1,-0.125,-0.105
00:41:31.586:1,-0.195,-0.115
00:41:31.594:1,-0.175,-0.115
00:41:31.602:1,-0.205,-0.115
00:41:31.609:1,-0.185,-0.125
00:41:31.617:1,-0.195,-0.125
00:41:31.625:1,-0.195,-0.115
00:41:31.633:1,-0.195,-0.125
00:41:31.641:1,-0.175,-0.125
00:41:31.648:1,-0.215,-0.125
00:41:31.656:1,-0.245,-0.135
00:41:31.664:1,-0.205,-0.115
00:41:31.672:1,-0.155,-0.125
00:41:31.680:1,-0.165,-0.115
00:41:31.688:1,-0.195,-0.095
00:41:31.695:1,-0.075,-0.115
00:41:31.703:1,0.285,-0.135
00:41:31.711:1,1.265,-0.365
00:41:31.719:1,1.515,-0.555
00:41:31.727:1,-0.415,-0.805
00:41:31.734:1,-0.985,-0.505
00:41:31.742:1,-0.565,-0.225
00:41:31.750:1,-0.255,-0.075
00:41:31.758:1,-0.145,-0.035
00:41:31.766:1,-0.175,-0.045
00:41:31.773:1,-0.165,-0.045
00:41:31.781:1,-0.185,-0.035
00:41:31.789:1,-0.105,-0.025
00:41:31.797:1,-0.135,-0.035
00:41:31.805:1,-0.145,-0.035
00:41:31.813:1,-0.145,-0.015
00:41:31.820:1,-0.175,-0.035
00:41:31.828:1,-0.115,-0.005
00:41:31.836:1,-0.115,-0.015
00:41:31.844:1,-0.105,-0.005
00:41:31.852:1,-0.105,-0.015
00:41:31.859:1,-0.095,-0.005
00:41:31.867:1,-0.065,0.025
00:41:31.875:1,-0.035,0.025
00:41:31.883:1,-0.065,0.025
00:41:31.891:1,-0.045,0.045
00:41:31.898:1,-0.045,0.065
00:41:31.906:1,-0.015,0.075
00:41:31.914:1,-0.015,0.075
00:41:31.922:1,0.045,0.115
00:41:31.930:1,0.045,0.105
00:41:31.938:1,0.045,0.095
00:41:31.945:1,0.025,0.095
00:41:31.953:1,0.025,0.085
00:41:31.961:1,0.035,0.075
00:41:31.969:1,0.045,0.065
00:41:31.977:1,0.005,0.025
00:41:31.984:1,0.015,0.015
00:41:31.992:1,-0.075,0.015
00:41:32.000:1,-0.055,-0.045
00:41:32.008:1,-0.125,-0.105
00:41:32.016:1,-0.105,-0.075
00:41:32.023:1,-0.135,-0.075
00:41:32.031:1,-0.165,-0.085
00:41:32.039:1,-0.145,-0.095
00:41:32.047:1,-0.225,-0.075
00:41:32.055:1,-0.195,-0.025
00:41:32.063:1,-0.325,-0.135
00:41:32.070:1,-0.305,-0.075
00:41:32.078:1,-0.195,-0.075
00:41:32.086:1,-0.025,-0.125
00:41:32.094:1,-0.095,-0.045
00:41:32.102:1,-0.135,-0.095
00:41:32.109:1,-0.125,0.005
00:41:32.117:1,-0.095,-0.115
00:41:32.125:1,-0.165,-0.125
00:41:32.133:1,-0.185,0.005
00:41:32.141:1,-0.135,-0.015
00:41:32.148:1,-0.115,-0.125
00:41:32.156:1,-0.195,-0.025
00:41:32.164:1,-0.055,-0.015
00:41:32.172:1,-0.015,-0.105
00:41:32.180:1,-0.055,0.255
00:41:32.188:1,-0.045,0.015
00:41:32.195:1,-0.085,-0.005
00:41:32.203:1,-0.115,-0.005
00:41:32.211:1,0.035,-0.095
00:41:32.219:1,0.015,-0.125
00:41:32.227:1,0.025,0.055
00:41:32.234:1,-0.025,-0.025
00:41:32.242:1,-0.075,-0.125
00:41:32.250:1,-0.095,-0.065
00:41:32.258:1,-0.115,-0.065
00:41:32.266:1,-0.235,-0.025
00:41:32.273:1,-0.125,-0.035
00:41:32.281:1,-0.235,-0.315
00:41:32.289:1,-0.185,-0.085
00:41:32.297:1,-0.175,-0.225
00:41:32.305:1,-0.205,-0.095
00:41:32.313:1,-0.175,-0.065
00:41:32.320:1,-0.225,-0.195
00:41:32.328:1,-0.115,-0.095
00:41:32.336:1,-0.225,-0.165
00:41:32.344:1,-0.205,-0.135
00:41:32.352:1,-0.135,-0.235
00:41:32.359:1,-0.145,-0.195
00:41:32.367:1,-0.235,-0.155
00:41:32.375:1,-0.115,-0.135
00:41:32.383:1,0.245,-0.165
00:41:32.391:1,1.005,-0.495
00:41:32.398:1,1.825,-0.625
00:41:32.406:1,0.125,-0.755
00:41:32.414:1,-1.015,-0.665
00:41:32.422:1,-0.735,-0.305
00:41:32.430:1,-0.285,-0.165
00:41:32.438:1,-0.155,-0.105
00:41:32.445:1,-0.135,-0.125
00:41:32.453:1,-0.095,-0.135
00:41:32.461:1,-0.105,-0.105
00:41:32.469:1,-0.025,-0.025
00:41:32.477:1,-0.235,-0.125
00:41:32.484:1,-0.325,-0.125
00:41:32.492:1,-0.135,-0.145
00:41:32.500:1,0.035,-0.195
00:41:32.508:1,-0.155,-0.105
00:41:32.516:1,0.015,-0.175
00:41:32.523:1,-0.015,-0.145
00:41:32.531:1,-0.015,-0.155
00:41:32.539:1,-0.125,-0.025
00:41:32.547:1,-0.125,0.105
00:41:32.555:1,-0.075,-0.135
00:41:32.563:1,-0.105,-0.095
00:41:32.570:1,-0.005,-0.135
00:41:32.578:1,0.015,-0.105
00:41:32.586:1,0.145,-0.095
00:41:32.594:1,0.055,-0.105
00:41:32.602:1,0.205,-0.075
00:41:32.609:1,0.165,-0.035
00:41:32.617:1,-0.215,0.065
00:41:32.625:1,-0.085,-0.015
00:41:32.633:1,0.005,0.335
00:41:32.641:1,0.095,-0.165
00:41:32.648:1,0.135,-0.295
00:41:32.656:1,0.115,-0.165
00:41:32.664:1,0.195,-0.145
00:41:32.672:1,0.125,-0.115
00:41:32.680:1,-0.105,-0.175
00:41:32.688:1,-0.115,-0.145
00:41:32.695:1,-0.085,-0.185
00:41:32.703:1,-0.065,-0.215
00:41:32.711:1,-0.115,-0.135
00:41:32.719:1,-0.175,-0.215
00:41:32.727:1,-0.035,0.065
00:41:32.734:1,-0.235,-0.375
00:41:32.742:1,-0.235,-0.365
00:41:32.750:1,-0.135,-0.195
00:41:32.758:1,-0.095,-0.175
00:41:32.766:1,-0.095,-0.275
00:41:32.773:1,-0.165,-0.135
00:41:32.781:1,-0.185,-0.185
00:41:32.789:1,-0.115,-0.185
00:41:32.797:1,-0.135,-0.125
00:41:32.805:1,-0.215,-0.235
00:41:32.813:1,-0.165,-0.235
00:41:32.820:1,-0.165,-0.275
00:41:32.828:1,-0.175,-0.205
00:41:32.836:1,-0.085,-0.065
