'Time','ECG1','ECG2'
'hh:mm:ss.mmm','mV','mV'
'[12:03:00.000]',-0.125,-0.045
'[12:03:00.008]',-0.115,-0.105
'[12:03:00.016]',-0.145,-0.115
'[12:03:00.023]',-0.135,-0.075
'[12:03:00.031]',-0.135,-0.045
'[12:03:00.039]',-0.135,-0.055
'[12:03:00.047]',-0.135,-0.035
'[12:03:00.055]',-0.115,-0.025
'[12:03:00.063]',-0.135,-0.065
'[12:03:00.070]',-0.155,-0.055
'[12:03:00.078]',-0.135,0.015
'[12:03:00.086]',-0.125,-0.095
'[12:03:00.094]',-0.125,-0.115
'[12:03:00.102]',-0.115,-0.055
'[12:03:00.109]',-0.125,-0.085
'[12:03:00.117]',-0.115,-0.045
'[12:03:00.125]',-0.105,-0.065
'[12:03:00.133]',-0.115,-0.105
'[12:03:00.141]',-0.135,-0.065
'[12:03:00.148]',-0.095,0.005
'[12:03:00.156]',-0.035,0.005
'[12:03:00.164]',-0.055,-0.005
'[12:03:00.172]',-0.005,-0.005
'[12:03:00.180]',0.025,0.055
'[12:03:00.188]',0.045,0.025
'[12:03:00.195]',0.025,-0.055
'[12:03:00.203]',0.005,-0.025
'[12:03:00.211]',-0.015,-0.115
'[12:03:00.219]',-0.055,-0.095
'[12:03:00.227]',-0.085,-0.085
'[12:03:00.234]',-0.105,-0.095
'[12:03:00.242]',-0.105,-0.135
'[12:03:00.250]',-0.125,-0.085
'[12:03:00.258]',-0.105,-0.005
'[12:03:00.266]',-0.095,-0.115
'[12:03:00.273]',-0.015,0.035
'[12:03:00.281]',0.015,-0.005
'[12:03:00.289]',0.525,-0.205
'[12:03:00.297]',1.145,-0.335
'[12:03:00.305]',1.215,-0.545
'[12:03:00.313]',-0.125,-0.685
'[12:03:00.320]',-0.755,-0.525
'[12:03:00.328]',-0.555,-0.105
'[12:03:00.336]',-0.195,-0.095
'[12:03:00.344]',-0.095,-0.045
'[12:03:00.352]',-0.105,-0.055
'[12:03:00.359]',-0.095,-0.065
'[12:03:00.367]',-0.125,-0.095
'[12:03:00.375]',-0.105,-0.035
'[12:03:00.383]',-0.095,-0.085
'[12:03:00.391]',-0.115,-0.045
'[12:03:00.398]',-0.075,-0.045
'[12:03:00.406]',-0.065,-0.095
'[12:03:00.414]',-0.085,-0.045
'[12:03:00.422]',-0.065,0.025
'[12:03:00.430]',-0.035,-0.085
'[12:03:00.438]',-0.065,-0.045
'[12:03:00.445]',-0.025,-0.065
'[12:03:00.453]',-0.055,-0.065
'[12:03:00.461]',-0.025,0.075
'[12:03:00.469]',-0.005,-0.095
'[12:03:00.477]',0.005,-0.085
'[12:03:00.484]',0.005,-0.045
'[12:03:00.492]',0.035,-0.025
'[12:03:00.500]',0.055,-0.015
'[12:03:00.508]',0.045,-0.045
'[12:03:00.516]',0.045,0.025
'[12:03:00.523]',0.125,-0.045
'[12:03:00.531]',0.145,-0.065
'[12:03:00.539]',0.155,-0.035
'[12:03:00.547]',0.215,-0.075
'[12:03:00.555]',0.235,-0.005
'[12:03:00.563]',0.265,-0.105
'[12:03:00.570]',0.295,-0.095
'[12:03:00.578]',0.295,-0.065
'[12:03:00.586]',0.335,-0.045
'[12:03:00.594]',0.295,0.005
'[12:03:00.602]',0.345,-0.105
'[12:03:00.609]',0.295,-0.065
'[12:03:00.617]',0.265,-0.075
'[12:03:00.625]',0.195,-0.045
'[12:03:00.633]',0.085,-0.025
'[12:03:00.641]',0.035,-0.075
'[12:03:00.648]',-0.025,-0.065
'[12:03:00.656]',-0.085,-0.025
'[12:03:00.664]',-0.105,0.035
'[12:03:00.672]',-0.085,-0.055
'[12:03:00.680]',-0.105,-0.105
'[12:03:00.688]',-0.155,-0.065
'[12:03:00.695]',-0.135,0.025
'[12:03:00.703]',-0.135,-0.085
'[12:03:00.711]',-0.125,-0.115
'[12:03:00.719]',-0.145,-0.065
'[12:03:00.727]',-0.135,-0.045
'[12:03:00.734]',-0.125,-0.005
'[12:03:00.742]',-0.145,-0.035
'[12:03:00.750]',-0.125,0.045
'[12:03:00.758]',-0.125,-0.085
'[12:03:00.766]',-0.135,-0.085
'[12:03:00.773]',-0.105,-0.045
'[12:03:00.781]',-0.105,-0.045
'[12:03:00.789]',-0.115,-0.055
'[12:03:00.797]',-0.105,-0.085
'[12:03:00.805]',-0.095,-0.075
'[12:03:00.813]',-0.105,-0.035
'[12:03:00.820]',-0.125,-0.005
'[12:03:00.828]',-0.135,-0.025
'[12:03:00.836]',-0.115,-0.015
'[12:03:00.844]',-0.095,-0.095
'[12:03:00.852]',-0.105,-0.065
'[12:03:00.859]',-0.085,-0.045
'[12:03:00.867]',-0.115,-0.135
'[12:03:00.875]',-0.115,-0.065
'[12:03:00.883]',-0.125,-0.055
'[12:03:00.891]',-0.155,-0.065
'[12:03:00.898]',-0.145,-0.055
'[12:03:00.906]',-0.145,-0.005
'[12:03:00.914]',-0.135,-0.005
'[12:03:00.922]',-0.135,-0.115
'[12:03:00.930]',-0.125,-0.045
'[12:03:00.938]',-0.135,-0.155
'[12:03:00.945]',-0.125,-0.115
'[12:03:00.953]',-0.145,-0.095
'[12:03:00.961]',-0.135,-0.075
'[12:03:00.969]',-0.135,-0.075
'[12:03:00.977]',-0.135,-0.045
'[12:03:00.984]',-0.135,-0.075
'[12:03:00.992]',-0.145,-0.055
'[12:03:01.000]',-0.155,0.005
'[12:03:01.008]',-0.145,0.035
'[12:03:01.016]',-0.145,-0.125
'[12:03:01.023]',-0.145,-0.045
'[12:03:01.031]',-0.105,-0.145
'[12:03:01.039]',-0.125,-0.115
'[12:03:01.047]',-0.115,-0.105
'[12:03:01.055]',-0.145,-0.055
'[12:03:01.063]',-0.125,-0.055
'[12:03:01.070]',-0.125,-0.045
'[12:03:01.078]',-0.155,-0.055
'[12:03:01.086]',-0.145,-0.045
'[12:03:01.094]',-0.145,-0.035
'[12:03:01.102]',-0.135,-0.025
'[12:03:01.109]',-0.105,-0.055
'[12:03:01.117]',-0.095,-0.185
'[12:03:01.125]',-0.115,-0.125
'[12:03:01.133]',-0.115,-0.075
'[12:03:01.141]',-0.125,-0.075
'[12:03:01.148]',-0.115,-0.045
'[12:03:01.156]',-0.115,-0.065
'[12:03:01.164]',-0.115,-0.045
'[12:03:01.172]',-0.105,-0.065
'[12:03:01.180]',-0.135,-0.055
'[12:03:01.188]',-0.095,0.035
'[12:03:01.195]',-0.105,-0.165
'[12:03:01.203]',-0.095,-0.135
'[12:03:01.211]',-0.075,-0.085
'[12:03:01.219]',-0.035,-0.005
'[12:03:01.227]',-0.025,-0.025
'[12:03:01.234]',-0.035,-0.005
'[12:03:01.242]',0.015,0.025
'[12:03:01.250]',0.025,0.085
'[12:03:01.258]',0.065,0.085
'[12:03:01.266]',0.025,-0.135
'[12:03:01.273]',-0.015,-0.105
'[12:03:01.281]',-0.025,-0.045
'[12:03:01.289]',-0.055,-0.135
'[12:03:01.297]',-0.105,-0.145
'[12:03:01.305]',-0.115,-0.125
'[12:03:01.313]',-0.105,-0.105
'[12:03:01.320]',-0.105,-0.095
'[12:03:01.328]',-0.135,-0.095
'[12:03:01.336]',-0.075,0.065
'[12:03:01.344]',-0.025,0.035
'[12:03:01.352]',0.275,-0.165
'[12:03:01.359]',0.885,-0.275
'[12:03:01.367]',1.275,-0.425
'[12:03:01.375]',0.275,-0.685
'[12:03:01.383]',-0.645,-0.595
'[12:03:01.391]',-0.625,-0.245
'[12:03:01.398]',-0.305,-0.075
'[12:03:01.406]',-0.095,-0.065
'[12:03:01.414]',-0.085,-0.105
'[12:03:01.422]',-0.125,-0.085
'[12:03:01.430]',-0.105,-0.015
'[12:03:01.438]',-0.125,-0.085
'[12:03:01.445]',-0.105,-0.045
'[12:03:01.453]',-0.105,-0.095
'[12:03:01.461]',-0.105,-0.065
'[12:03:01.469]',-0.085,-0.085
'[12:03:01.477]',-0.095,-0.075
'[12:03:01.484]',-0.075,-0.035
'[12:03:01.492]',-0.075,-0.085
'[12:03:01.500]',-0.075,-0.015
'[12:03:01.508]',-0.065,-0.055
'[12:03:01.516]',-0.065,-0.045
'[12:03:01.523]',-0.055,-0.035
'[12:03:01.531]',-0.025,-0.095
'[12:03:01.539]',-0.035,-0.045
'[12:03:01.547]',0.005,-0.045
'[12:03:01.555]',0.025,-0.065
'[12:03:01.563]',0.035,-0.105
'[12:03:01.570]',0.055,-0.065
'[12:03:01.578]',0.025,-0.035
'[12:03:01.586]',0.065,-0.075
'[12:03:01.594]',0.105,-0.055
'[12:03:01.602]',0.135,-0.105
'[12:03:01.609]',0.155,-0.055
'[12:03:01.617]',0.165,-0.035
'[12:03:01.625]',0.215,-0.105
'[12:03:01.633]',0.255,-0.115
'[12:03:01.641]',0.255,-0.105
'[12:03:01.648]',0.285,-0.125
'[12:03:01.656]',0.275,-0.095
'[12:03:01.664]',0.285,-0.125
'[12:03:01.672]',0.255,-0.115
'[12:03:01.680]',0.205,-0.105
'[12:03:01.688]',0.125,-0.005
'[12:03:01.695]',0.085,-0.085
'[12:03:01.703]',-0.005,-0.045
'[12:03:01.711]',-0.055,0.015
'[12:03:01.719]',-0.085,-0.005
'[12:03:01.727]',-0.115,-0.075
'[12:03:01.734]',-0.145,-0.075
'[12:03:01.742]',-0.145,-0.055
'[12:03:01.750]',-0.165,-0.005
'[12:03:01.758]',-0.125,-0.085
'[12:03:01.766]',-0.165,-0.125
'[12:03:01.773]',-0.165,0.005
'[12:03:01.781]',-0.155,-0.055
'[12:03:01.789]',-0.155,-0.075
'[12:03:01.797]',-0.175,-0.055
'[12:03:01.805]',-0.165,0.005
'[12:03:01.813]',-0.145,-0.065
'[12:03:01.820]',-0.135,-0.085
'[12:03:01.828]',-0.165,-0.095
'[12:03:01.836]',-0.135,-0.115
'[12:03:01.844]',-0.125,0.005
'[12:03:01.852]',-0.135,-0.085
'[12:03:01.859]',-0.115,-0.065
'[12:03:01.867]',-0.125,-0.085
'[12:03:01.875]',-0.125,0.025
'[12:03:01.883]',-0.115,-0.085
'[12:03:01.891]',-0.155,-0.035
'[12:03:01.898]',-0.105,-0.075
'[12:03:01.906]',-0.095,-0.135
'[12:03:01.914]',-0.125,-0.105
'[12:03:01.922]',-0.105,-0.085
'[12:03:01.930]',-0.115,-0.055
'[12:03:01.938]',-0.155,-0.005
'[12:03:01.945]',-0.125,-0.015
'[12:03:01.953]',-0.135,-0.115
'[12:03:01.961]',-0.135,-0.085
'[12:03:01.969]',-0.155,-0.015
'[12:03:01.977]',-0.125,-0.045
'[12:03:01.984]',-0.135,-0.115
'[12:03:01.992]',-0.125,-0.105
'[12:03:02.000]',-0.145,-0.095
'[12:03:02.008]',-0.125,-0.105
'[12:03:02.016]',-0.165,-0.045
'[12:03:02.023]',-0.145,-0.065
'[12:03:02.031]',-0.125,-0.075
'[12:03:02.039]',-0.135,-0.055
'[12:03:02.047]',-0.155,0.025
'[12:03:02.055]',-0.115,-0.125
'[12:03:02.063]',-0.125,-0.175
'[12:03:02.070]',-0.145,-0.085
'[12:03:02.078]',-0.145,-0.035
'[12:03:02.086]',-0.135,-0.105
'[12:03:02.094]',-0.115,-0.105
'[12:03:02.102]',-0.135,-0.035
'[12:03:02.109]',-0.125,-0.055
'[12:03:02.117]',-0.115,-0.065
'[12:03:02.125]',-0.125,-0.065
'[12:03:02.133]',-0.125,-0.005
'[12:03:02.141]',-0.105,-0.095
'[12:03:02.148]',-0.125,-0.145
'[12:03:02.156]',-0.105,-0.125
'[12:03:02.164]',-0.135,-0.085
'[12:03:02.172]',-0.115,0.005
'[12:03:02.180]',-0.105,-0.075
'[12:03:02.188]',-0.095,-0.115
'[12:03:02.195]',-0.115,-0.065
'[12:03:02.203]',-0.125,-0.015
'[12:03:02.211]',-0.105,-0.055
'[12:03:02.219]',-0.095,-0.065
'[12:03:02.227]',-0.095,-0.135
'[12:03:02.234]',-0.125,-0.105
'[12:03:02.242]',-0.115,-0.045
'[12:03:02.250]',-0.095,-0.025
'[12:03:02.258]',-0.095,-0.125
'[12:03:02.266]',-0.105,-0.085
'[12:03:02.273]',-0.095,-0.045
'[12:03:02.281]',-0.075,-0.045
'[12:03:02.289]',-0.105,-0.025
'[12:03:02.297]',-0.065,-0.065
'[12:03:02.305]',-0.075,-0.145
'[12:03:02.313]',-0.075,-0.045
'[12:03:02.320]',-0.065,-0.085
'[12:03:02.328]',-0.075,-0.115
'[12:03:02.336]',-0.065,-0.095
'[12:03:02.344]',-0.055,0.015
'[12:03:02.352]',-0.005,-0.035
'[12:03:02.359]',0.005,-0.045
'[12:03:02.367]',0.025,0.005
'[12:03:02.375]',0.055,0.025
'[12:03:02.383]',0.095,0.135
'[12:03:02.391]',0.085,-0.095
'[12:03:02.398]',0.075,-0.095
'[12:03:02.406]',0.045,-0.105
'[12:03:02.414]',-0.025,-0.065
'[12:03:02.422]',-0.055,-0.085
'[12:03:02.430]',-0.065,-0.015
'[12:03:02.438]',-0.075,-0.105
'[12:03:02.445]',-0.085,-0.105
'[12:03:02.453]',-0.105,-0.095
'[12:03:02.461]',-0.025,-0.085
'[12:03:02.469]',0.005,0.015
'[12:03:02.477]',0.025,0.005
'[12:03:02.484]',0.515,-0.205
'[12:03:02.492]',1.175,-0.285
'[12:03:02.500]',0.985,-0.575
'[12:03:02.508]',-0.275,-0.575
'[12:03:02.516]',-0.685,-0.415
'[12:03:02.523]',-0.425,-0.145
'[12:03:02.531]',-0.125,-0.085
'[12:03:02.539]',-0.075,-0.085
'[12:03:02.547]',-0.075,-0.035
'[12:03:02.555]',-0.055,-0.095
'[12:03:02.563]',-0.045,-0.105
'[12:03:02.570]',-0.045,-0.125
'[12:03:02.578]',-0.095,-0.075
'[12:03:02.586]',-0.095,0.015
'[12:03:02.594]',-0.085,0.025
'[12:03:02.602]',-0.085,-0.045
'[12:03:02.609]',-0.015,-0.095
'[12:03:02.617]',-0.045,-0.075
'[12:03:02.625]',-0.035,-0.025
'[12:03:02.633]',0.005,-0.015
'[12:03:02.641]',-0.015,0.005
'[12:03:02.648]',0.015,0.015
'[12:03:02.656]',0.045,-0.055
'[12:03:02.664]',0.035,-0.095
'[12:03:02.672]',0.085,-0.015
'[12:03:02.680]',0.095,-0.025
'[12:03:02.688]',0.105,-0.035
'[12:03:02.695]',0.125,-0.075
'[12:03:02.703]',0.115,-0.005
'[12:03:02.711]',0.155,0.005
'[12:03:02.719]',0.165,-0.035
'[12:03:02.727]',0.205,-0.055
'[12:03:02.734]',0.245,-0.115
'[12:03:02.742]',0.295,-0.085
'[12:03:02.750]',0.295,-0.035
'[12:03:02.758]',0.345,-0.035
'[12:03:02.766]',0.325,-0.105
'[12:03:02.773]',0.365,-0.035
'[12:03:02.781]',0.385,-0.065
'[12:03:02.789]',0.395,-0.085
'[12:03:02.797]',0.375,-0.065
'[12:03:02.805]',0.345,-0.065
'[12:03:02.813]',0.285,-0.065
'[12:03:02.820]',0.205,0.105
'[12:03:02.828]',0.165,0.005
'[12:03:02.836]',0.095,-0.155
'[12:03:02.844]',0.015,-0.035
'[12:03:02.852]',-0.005,-0.005
'[12:03:02.859]',-0.035,-0.015
'[12:03:02.867]',-0.055,-0.045
'[12:03:02.875]',-0.075,-0.015
'[12:03:02.883]',-0.065,-0.035
'[12:03:02.891]',-0.115,-0.025
'[12:03:02.898]',-0.095,-0.025
'[12:03:02.906]',-0.115,-0.005
'[12:03:02.914]',-0.085,0.035
'[12:03:02.922]',-0.085,-0.115
'[12:03:02.930]',-0.095,0.045
'[12:03:02.938]',-0.095,-0.075
'[12:03:02.945]',-0.095,-0.025
'[12:03:02.953]',-0.105,-0.055
'[12:03:02.961]',-0.065,-0.055
'[12:03:02.969]',-0.085,0.005
'[12:03:02.977]',-0.045,-0.005
'[12:03:02.984]',-0.045,-0.065
'[12:03:02.992]',-0.055,-0.045
'[12:03:03.000]',-0.065,0.005
'[12:03:03.008]',-0.065,0.005
'[12:03:03.016]',-0.065,0.015
'[12:03:03.023]',-0.045,-0.135
'[12:03:03.031]',-0.065,0.015
'[12:03:03.039]',-0.065,-0.035
'[12:03:03.047]',-0.045,-0.085
'[12:03:03.055]',-0.045,-0.065
'[12:03:03.063]',-0.075,-0.055
'[12:03:03.070]',-0.075,0.015
'[12:03:03.078]',-0.095,-0.035
'[12:03:03.086]',-0.095,0.025
'[12:03:03.094]',-0.095,-0.045
'[12:03:03.102]',-0.075,-0.065
'[12:03:03.109]',-0.065,-0.085
'[12:03:03.117]',-0.115,-0.045
'[12:03:03.125]',-0.085,-0.075
'[12:03:03.133]',-0.085,-0.015
'[12:03:03.141]',-0.105,-0.055
'[12:03:03.148]',-0.115,0.035
'[12:03:03.156]',-0.075,-0.065
'[12:03:03.164]',-0.085,-0.075
'[12:03:03.172]',-0.085,-0.105
'[12:03:03.180]',-0.065,-0.055
'[12:03:03.188]',-0.105,-0.085
'[12:03:03.195]',-0.075,-0.025
'[12:03:03.203]',-0.105,-0.085
'[12:03:03.211]',-0.105,-0.045
'[12:03:03.219]',-0.085,-0.025
'[12:03:03.227]',-0.095,-0.045
'[12:03:03.234]',-0.095,-0.065
'[12:03:03.242]',-0.085,-0.035
'[12:03:03.250]',-0.075,-0.065
'[12:03:03.258]',-0.095,-0.045
'[12:03:03.266]',-0.125,0.005
'[12:03:03.273]',-0.065,-0.105
'[12:03:03.281]',-0.075,-0.105
'[12:03:03.289]',-0.095,-0.055
'[12:03:03.297]',-0.085,-0.045
'[12:03:03.305]',-0.085,-0.055
'[12:03:03.313]',-0.085,-0.045
'[12:03:03.320]',-0.075,-0.045
'[12:03:03.328]',-0.105,-0.045
'[12:03:03.336]',-0.095,-0.035
'[12:03:03.344]',-0.105,-0.015
'[12:03:03.352]',-0.085,-0.005
'[12:03:03.359]',-0.075,-0.075
'[12:03:03.367]',-0.075,-0.055
'[12:03:03.375]',-0.085,-0.065
'[12:03:03.383]',-0.075,-0.065
'[12:03:03.391]',-0.105,-0.055
'[12:03:03.398]',-0.085,-0.025
'[12:03:03.406]',-0.095,0.005
'[12:03:03.414]',-0.065,-0.065
'[12:03:03.422]',-0.085,-0.075
'[12:03:03.430]',-0.095,0.015
'[12:03:03.438]',-0.055,-0.025
'[12:03:03.445]',-0.065,-0.145
'[12:03:03.453]',-0.095,-0.025
'[12:03:03.461]',-0.055,-0.065
'[12:03:03.469]',-0.065,-0.075
'[12:03:03.477]',-0.055,-0.025
'[12:03:03.484]',0.015,0.055
'[12:03:03.492]',-0.015,0.015
'[12:03:03.500]',0.035,0.085
'[12:03:03.508]',0.115,0.105
'[12:03:03.516]',0.075,-0.035
'[12:03:03.523]',0.065,-0.035
'[12:03:03.531]',0.045,-0.055
'[12:03:03.539]',0.005,-0.055
'[12:03:03.547]',-0.045,-0.075
'[12:03:03.555]',-0.065,-0.055
'[12:03:03.563]',-0.105,-0.055
'[12:03:03.570]',-0.075,-0.035
'[12:03:03.578]',-0.085,-0.165
'[12:03:03.586]',-0.055,-0.095
'[12:03:03.594]',-0.045,-0.075
'[12:03:03.602]',-0.025,0.105
'[12:03:03.609]',0.065,-0.015
'[12:03:03.617]',0.645,-0.215
'[12:03:03.625]',1.285,-0.355
'[12:03:03.633]',0.795,-0.525
'[12:03:03.641]',-0.455,-0.695
'[12:03:03.648]',-0.645,-0.335
'[12:03:03.656]',-0.425,-0.075
'[12:03:03.664]',-0.115,0.025
'[12:03:03.672]',-0.045,-0.125
'[12:03:03.680]',-0.075,-0.095
'[12:03:03.688]',-0.095,-0.015
'[12:03:03.695]',-0.095,-0.035
'[12:03:03.703]',-0.095,-0.065
'[12:03:03.711]',-0.085,-0.065
'[12:03:03.719]',-0.075,-0.025
'[12:03:03.727]',-0.095,0.015
'[12:03:03.734]',-0.065,0.055
'[12:03:03.742]',-0.055,-0.075
'[12:03:03.750]',-0.065,0.055
'[12:03:03.758]',-0.065,-0.045
'[12:03:03.766]',-0.055,-0.045
'[12:03:03.773]',-0.035,-0.095
'[12:03:03.781]',-0.015,-0.025
'[12:03:03.789]',-0.015,-0.035
'[12:03:03.797]',0.005,0.005
'[12:03:03.805]',0.025,-0.025
'[12:03:03.813]',0.025,0.025
'[12:03:03.820]',0.055,0.035
'[12:03:03.828]',0.045,-0.045
'[12:03:03.836]',0.085,-0.035
'[12:03:03.844]',0.125,-0.015
'[12:03:03.852]',0.135,-0.065
'[12:03:03.859]',0.175,-0.045
'[12:03:03.867]',0.175,-0.065
'[12:03:03.875]',0.205,-0.005
'[12:03:03.883]',0.245,-0.035
'[12:03:03.891]',0.255,-0.025
'[12:03:03.898]',0.295,-0.035
'[12:03:03.906]',0.335,0.015
'[12:03:03.914]',0.375,0.055
'[12:03:03.922]',0.405,-0.125
'[12:03:03.930]',0.375,-0.085
'[12:03:03.938]',0.375,-0.045
'[12:03:03.945]',0.295,-0.105
'[12:03:03.953]',0.225,-0.075
'[12:03:03.961]',0.165,-0.035
'[12:03:03.969]',0.065,-0.015
'[12:03:03.977]',-0.015,0.005
'[12:03:03.984]',-0.055,0.025
'[12:03:03.992]',-0.075,0.035
'[12:03:04.000]',-0.075,0.005
'[12:03:04.008]',-0.075,-0.125
'[12:03:04.016]',-0.135,-0.045
'[12:03:04.023]',-0.115,-0.015
'[12:03:04.031]',-0.115,-0.075
'[12:03:04.039]',-0.115,-0.025
'[12:03:04.047]',-0.135,-0.035
'[12:03:04.055]',-0.145,-0.005
'[12:03:04.063]',-0.125,-0.015
'[12:03:04.070]',-0.095,-0.055
'[12:03:04.078]',-0.115,0.045
'[12:03:04.086]',-0.065,-0.085
'[12:03:04.094]',-0.075,-0.095
'[12:03:04.102]',-0.085,-0.055
'[12:03:04.109]',-0.085,-0.025
'[12:03:04.117]',-0.075,-0.005
'[12:03:04.125]',-0.065,-0.065
'[12:03:04.133]',-0.075,-0.035
'[12:03:04.141]',-0.095,0.015
'[12:03:04.148]',-0.065,-0.065
'[12:03:04.156]',-0.065,-0.045
'[12:03:04.164]',-0.075,-0.055
'[12:03:04.172]',-0.055,-0.055
'[12:03:04.180]',-0.075,-0.055
'[12:03:04.188]',-0.065,0.005
'[12:03:04.195]',-0.075,-0.085
'[12:03:04.203]',-0.105,-0.105
'[12:03:04.211]',-0.095,-0.015
'[12:03:04.219]',-0.085,-0.055
'[12:03:04.227]',-0.085,-0.065
'[12:03:04.234]',-0.095,-0.035
'[12:03:04.242]',-0.115,-0.045
'[12:03:04.250]',-0.105,-0.085
'[12:03:04.258]',-0.105,-0.035
'[12:03:04.266]',-0.125,-0.085
'[12:03:04.273]',-0.105,-0.105
'[12:03:04.281]',-0.075,-0.105
'[12:03:04.289]',-0.085,-0.055
'[12:03:04.297]',-0.095,-0.085
'[12:03:04.305]',-0.095,-0.075
'[12:03:04.313]',-0.105,-0.035
'[12:03:04.320]',-0.105,-0.065
'[12:03:04.328]',-0.135,-0.025
'[12:03:04.336]',-0.095,-0.085
'[12:03:04.344]',-0.105,-0.015
'[12:03:04.352]',-0.095,-0.135
'[12:03:04.359]',-0.095,-0.095
'[12:03:04.367]',-0.115,-0.035
'[12:03:04.375]',-0.105,-0.015
'[12:03:04.383]',-0.105,-0.065
'[12:03:04.391]',-0.105,-0.045
'[12:03:04.398]',-0.095,-0.155
'[12:03:04.406]',-0.085,-0.105
'[12:03:04.414]',-0.115,-0.025
'[12:03:04.422]',-0.075,-0.075
'[12:03:04.430]',-0.075,-0.115
'[12:03:04.438]',-0.105,-0.055
'[12:03:04.445]',-0.115,-0.045
'[12:03:04.453]',-0.145,-0.025
'[12:03:04.461]',-0.095,-0.045
'[12:03:04.469]',-0.085,-0.095
'[12:03:04.477]',-0.075,-0.105
'[12:03:04.484]',-0.085,-0.055
'[12:03:04.492]',-0.085,-0.065
'[12:03:04.500]',-0.085,-0.085
'[12:03:04.508]',-0.125,-0.085
'[12:03:04.516]',-0.115,-0.005
'[12:03:04.523]',-0.075,-0.015
'[12:03:04.531]',-0.095,-0.085
'[12:03:04.539]',-0.095,-0.065
'[12:03:04.547]',-0.085,-0.075
'[12:03:04.555]',-0.105,-0.085
'[12:03:04.563]',-0.075,-0.075
'[12:03:04.570]',-0.115,-0.025
'[12:03:04.578]',-0.085,-0.075
'[12:03:04.586]',-0.095,-0.085
'[12:03:04.594]',-0.105,-0.085
'[12:03:04.602]',-0.095,0.005
'[12:03:04.609]',-0.065,-0.065
'[12:03:04.617]',-0.035,-0.045
'[12:03:04.625]',-0.025,0.025
'[12:03:04.633]',-0.005,0.005
'[12:03:04.641]',0.005,0.065
'[12:03:04.648]',0.085,-0.025
'[12:03:04.656]',0.095,0.015
'[12:03:04.664]',0.045,-0.035
'[12:03:04.672]',0.025,-0.045
'[12:03:04.680]',-0.005,-0.135
'[12:03:04.688]',-0.085,-0.005
'[12:03:04.695]',-0.075,-0.095
'[12:03:04.703]',-0.125,-0.185
'[12:03:04.711]',-0.125,-0.155
'[12:03:04.719]',-0.085,-0.065
'[12:03:04.727]',-0.085,-0.115
'[12:03:04.734]',-0.085,-0.005
'[12:03:04.742]',-0.015,0.135
'[12:03:04.750]',0.315,-0.245
'[12:03:04.758]',0.905,-0.325
'[12:03:04.766]',1.245,-0.445
'[12:03:04.773]',0.185,-0.645
'[12:03:04.781]',-0.695,-0.585
'[12:03:04.789]',-0.565,-0.225
'[12:03:04.797]',-0.235,-0.035
'[12:03:04.805]',-0.105,-0.135
'[12:03:04.813]',-0.075,-0.105
'[12:03:04.820]',-0.105,-0.085
'[12:03:04.828]',-0.125,-0.065
'[12:03:04.836]',-0.125,-0.035
'[12:03:04.844]',-0.075,-0.035
'[12:03:04.852]',-0.075,-0.105
'[12:03:04.859]',-0.095,-0.105
'[12:03:04.867]',-0.095,-0.015
'[12:03:04.875]',-0.085,0.005
'[12:03:04.883]',-0.035,-0.135
'[12:03:04.891]',-0.085,-0.095
'[12:03:04.898]',-0.075,-0.035
'[12:03:04.906]',-0.035,-0.015
'[12:03:04.914]',-0.035,-0.055
'[12:03:04.922]',-0.025,-0.055
'[12:03:04.930]',-0.015,0.005
'[12:03:04.938]',0.015,-0.055
'[12:03:04.945]',0.025,-0.105
'[12:03:04.953]',-0.005,-0.045
'[12:03:04.961]',0.035,-0.045
'[12:03:04.969]',0.055,-0.065
'[12:03:04.977]',0.065,-0.015
'[12:03:04.984]',0.075,-0.115
'[12:03:04.992]',0.105,-0.065
'[12:03:05.000]',0.125,0.035
'[12:03:05.008]',0.165,-0.085
'[12:03:05.016]',0.165,-0.165
'[12:03:05.023]',0.225,-0.085
'[12:03:05.031]',0.215,-0.025
'[12:03:05.039]',0.265,-0.075
'[12:03:05.047]',0.295,-0.165
'[12:03:05.055]',0.295,-0.115
'[12:03:05.063]',0.295,-0.095
'[12:03:05.070]',0.295,-0.155
'[12:03:05.078]',0.215,-0.105
'[12:03:05.086]',0.165,-0.075
'[12:03:05.094]',0.105,-0.055
'[12:03:05.102]',0.025,-0.095
'[12:03:05.109]',-0.055,-0.025
'[12:03:05.117]',-0.065,-0.075
'[12:03:05.125]',-0.115,-0.105
'[12:03:05.133]',-0.125,-0.055
'[12:03:05.141]',-0.165,-0.095
'[12:03:05.148]',-0.155,-0.075
'[12:03:05.156]',-0.175,-0.085
'[12:03:05.164]',-0.195,-0.065
'[12:03:05.172]',-0.175,-0.035
'[12:03:05.180]',-0.155,-0.145
'[12:03:05.188]',-0.185,-0.115
'[12:03:05.195]',-0.165,-0.095
'[12:03:05.203]',-0.185,-0.095
'[12:03:05.211]',-0.175,-0.065
'[12:03:05.219]',-0.175,-0.105
'[12:03:05.227]',-0.175,-0.065
'[12:03:05.234]',-0.165,-0.085
'[12:03:05.242]',-0.155,-0.065
'[12:03:05.250]',-0.165,-0.065
'[12:03:05.258]',-0.155,-0.105
'[12:03:05.266]',-0.165,-0.075
'[12:03:05.273]',-0.145,-0.125
'[12:03:05.281]',-0.165,-0.105
'[12:03:05.289]',-0.145,-0.045
'[12:03:05.297]',-0.135,-0.135
'[12:03:05.305]',-0.155,-0.095
'[12:03:05.313]',-0.165,-0.095
'[12:03:05.320]',-0.175,-0.055
'[12:03:05.328]',-0.185,-0.065
'[12:03:05.336]',-0.145,-0.095
'[12:03:05.344]',-0.175,-0.065
'[12:03:05.352]',-0.195,-0.105
'[12:03:05.359]',-0.155,-0.065
'[12:03:05.367]',-0.145,-0.145
'[12:03:05.375]',-0.175,-0.085
'[12:03:05.383]',-0.175,-0.105
'[12:03:05.391]',-0.175,-0.145
'[12:03:05.398]',-0.155,-0.115
'[12:03:05.406]',-0.175,-0.085
'[12:03:05.414]',-0.165,-0.055
'[12:03:05.422]',-0.165,-0.135
'[12:03:05.430]',-0.155,-0.135
'[12:03:05.438]',-0.165,-0.105
'[12:03:05.445]',-0.165,-0.135
'[12:03:05.453]',-0.185,-0.095
'[12:03:05.461]',-0.165,-0.115
'[12:03:05.469]',-0.155,-0.095
'[12:03:05.477]',-0.155,-0.115
'[12:03:05.484]',-0.185,-0.075
'[12:03:05.492]',-0.165,-0.115
'[12:03:05.500]',-0.155,-0.105
'[12:03:05.508]',-0.155,-0.055
'[12:03:05.516]',-0.175,-0.085
'[12:03:05.523]',-0.165,-0.175
'[12:03:05.531]',-0.165,-0.125
'[12:03:05.539]',-0.145,-0.075
'[12:03:05.547]',-0.145,-0.175
'[12:03:05.555]',-0.155,-0.135
'[12:03:05.563]',-0.165,-0.105
'[12:03:05.570]',-0.145,-0.105
'[12:03:05.578]',-0.175,-0.095
'[12:03:05.586]',-0.145,-0.115
'[12:03:05.594]',-0.155,-0.065
'[12:03:05.602]',-0.185,-0.075
'[12:03:05.609]',-0.165,-0.045
'[12:03:05.617]',-0.135,-0.065
'[12:03:05.625]',-0.125,-0.175
'[12:03:05.633]',-0.135,-0.175
'[12:03:05.641]',-0.145,-0.165
'[12:03:05.648]',-0.145,-0.125
'[12:03:05.656]',-0.135,-0.085
'[12:03:05.664]',-0.135,-0.095
'[12:03:05.672]',-0.125,-0.105
'[12:03:05.680]',-0.125,-0.085
'[12:03:05.688]',-0.115,-0.025
'[12:03:05.695]',-0.065,0.035
'[12:03:05.703]',-0.075,-0.065
'[12:03:05.711]',-0.015,-0.015
'[12:03:05.719]',0.055,-0.045
'[12:03:05.727]',0.045,-0.065
'[12:03:05.734]',0.035,-0.095
'[12:03:05.742]',0.005,-0.125
'[12:03:05.750]',-0.045,-0.135
'[12:03:05.758]',-0.125,-0.125
'[12:03:05.766]',-0.175,-0.085
'[12:03:05.773]',-0.145,-0.125
'[12:03:05.781]',-0.135,-0.105
'[12:03:05.789]',-0.145,-0.115
'[12:03:05.797]',-0.125,-0.115
'[12:03:05.805]',-0.065,-0.045
'[12:03:05.813]',-0.045,0.015
'[12:03:05.820]',0.215,-0.125
'[12:03:05.828]',0.755,-0.365
'[12:03:05.836]',1.295,-0.405
'[12:03:05.844]',0.375,-0.565
'[12:03:05.852]',-0.555,-0.495
'[12:03:05.859]',-0.625,-0.255
'[12:03:05.867]',-0.375,-0.115
'[12:03:05.875]',-0.165,-0.065
'[12:03:05.883]',-0.155,-0.055
'[12:03:05.891]',-0.145,-0.125
'[12:03:05.898]',-0.125,-0.145
'[12:03:05.906]',-0.115,-0.165
'[12:03:05.914]',-0.125,-0.125
'[12:03:05.922]',-0.115,-0.125
'[12:03:05.930]',-0.125,-0.125
'[12:03:05.938]',-0.145,-0.095
'[12:03:05.945]',-0.105,-0.095
'[12:03:05.953]',-0.135,-0.065
'[12:03:05.961]',-0.115,-0.065
'[12:03:05.969]',-0.115,-0.075
'[12:03:05.977]',-0.085,-0.055
'[12:03:05.984]',-0.075,-0.105
'[12:03:05.992]',-0.045,-0.195
'[12:03:06.000]',-0.075,-0.125
'[12:03:06.008]',-0.045,-0.065
'[12:03:06.016]',-0.055,-0.105
'[12:03:06.023]',-0.025,-0.115
'[12:03:06.031]',-0.025,-0.095
'[12:03:06.039]',-0.015,-0.095
'[12:03:06.047]',0.025,-0.125
'[12:03:06.055]',0.025,-0.085
'[12:03:06.063]',0.045,-0.045
'[12:03:06.070]',0.085,-0.155
'[12:03:06.078]',0.065,-0.105
'[12:03:06.086]',0.125,-0.125
'[12:03:06.094]',0.165,-0.195
'[12:03:06.102]',0.165,-0.185
'[12:03:06.109]',0.205,-0.155
'[12:03:06.117]',0.215,-0.145
'[12:03:06.125]',0.225,-0.165
'[12:03:06.133]',0.235,-0.165
'[12:03:06.141]',0.195,-0.155
'[12:03:06.148]',0.175,-0.045
'[12:03:06.156]',0.145,-0.035
'[12:03:06.164]',0.075,-0.075
'[12:03:06.172]',0.025,-0.115
'[12:03:06.180]',-0.005,-0.105
'[12:03:06.188]',-0.055,-0.135
'[12:03:06.195]',-0.105,-0.085
'[12:03:06.203]',-0.145,-0.075
'[12:03:06.211]',-0.155,-0.055
'[12:03:06.219]',-0.155,-0.025
'[12:03:06.227]',-0.165,0.015
'[12:03:06.234]',-0.165,-0.075
'[12:03:06.242]',-0.165,-0.005
'[12:03:06.250]',-0.165,0.035
'[12:03:06.258]',-0.155,-0.145
'[12:03:06.266]',-0.155,-0.085
'[12:03:06.273]',-0.155,-0.105
'[12:03:06.281]',-0.145,-0.065
'[12:03:06.289]',-0.135,-0.065
'[12:03:06.297]',-0.135,-0.075
'[12:03:06.305]',-0.155,-0.065
'[12:03:06.313]',-0.165,-0.005
'[12:03:06.320]',-0.135,-0.015
'[12:03:06.328]',-0.145,-0.015
'[12:03:06.336]',-0.125,-0.165
'[12:03:06.344]',-0.125,-0.125
'[12:03:06.352]',-0.135,-0.085
'[12:03:06.359]',-0.125,-0.085
'[12:03:06.367]',-0.125,-0.085
'[12:03:06.375]',-0.145,-0.075
'[12:03:06.383]',-0.145,-0.075
'[12:03:06.391]',-0.165,-0.035
'[12:03:06.398]',-0.165,-0.045
'[12:03:06.406]',-0.155,-0.075
'[12:03:06.414]',-0.145,-0.055
'[12:03:06.422]',-0.155,-0.125
'[12:03:06.430]',-0.145,-0.025
'[12:03:06.438]',-0.135,-0.115
'[12:03:06.445]',-0.135,-0.115
'[12:03:06.453]',-0.165,-0.095
'[12:03:06.461]',-0.145,-0.085
'[12:03:06.469]',-0.155,-0.055
'[12:03:06.477]',-0.145,-0.075
'[12:03:06.484]',-0.135,-0.105
'[12:03:06.492]',-0.175,-0.095
'[12:03:06.500]',-0.135,-0.055
'[12:03:06.508]',-0.115,-0.115
'[12:03:06.516]',-0.155,-0.085
'[12:03:06.523]',-0.165,-0.115
'[12:03:06.531]',-0.145,-0.095
'[12:03:06.539]',-0.125,-0.095
'[12:03:06.547]',-0.135,-0.095
'[12:03:06.555]',-0.165,-0.065
'[12:03:06.563]',-0.155,-0.035
'[12:03:06.570]',-0.135,-0.055
'[12:03:06.578]',-0.145,-0.095
'[12:03:06.586]',-0.145,-0.125
'[12:03:06.594]',-0.135,-0.055
'[12:03:06.602]',-0.115,-0.155
'[12:03:06.609]',-0.135,-0.115
'[12:03:06.617]',-0.135,-0.095
'[12:03:06.625]',-0.125,-0.055
'[12:03:06.633]',-0.135,-0.035
'[12:03:06.641]',-0.155,-0.035
'[12:03:06.648]',-0.115,-0.125
'[12:03:06.656]',-0.115,-0.095
'[12:03:06.664]',-0.115,-0.085
'[12:03:06.672]',-0.105,-0.115
'[12:03:06.680]',-0.125,-0.035
'[12:03:06.688]',-0.135,-0.075
'[12:03:06.695]',-0.105,-0.105
'[12:03:06.703]',-0.125,-0.115
'[12:03:06.711]',-0.085,-0.095
'[12:03:06.719]',-0.045,0.005
'[12:03:06.727]',-0.045,-0.005
'[12:03:06.734]',-0.015,-0.025
'[12:03:06.742]',0.025,-0.005
'[12:03:06.750]',0.045,-0.005
'[12:03:06.758]',0.025,-0.025
'[12:03:06.766]',-0.005,-0.095
'[12:03:06.773]',-0.035,-0.035
'[12:03:06.781]',-0.065,-0.095
'[12:03:06.789]',-0.115,-0.125
'[12:03:06.797]',-0.125,-0.135
'[12:03:06.805]',-0.125,-0.145
'[12:03:06.813]',-0.115,-0.115
'[12:03:06.820]',-0.115,-0.065
'[12:03:06.828]',-0.075,-0.115
'[12:03:06.836]',-0.045,0.025
'[12:03:06.844]',0.025,-0.015
'[12:03:06.852]',0.655,-0.195
'[12:03:06.859]',1.345,-0.475
'[12:03:06.867]',0.835,-0.665
'[12:03:06.875]',-0.525,-0.645
'[12:03:06.883]',-0.675,-0.345
'[12:03:06.891]',-0.415,-0.085
'[12:03:06.898]',-0.135,-0.095
'[12:03:06.906]',-0.115,-0.055
'[12:03:06.914]',-0.105,-0.065
'[12:03:06.922]',-0.115,-0.115
'[12:03:06.930]',-0.115,-0.055
'[12:03:06.938]',-0.125,0.005
'[12:03:06.945]',-0.095,-0.105
'[12:03:06.953]',-0.105,-0.155
'[12:03:06.961]',-0.095,-0.075
'[12:03:06.969]',-0.085,-0.055
'[12:03:06.977]',-0.075,-0.085
'[12:03:06.984]',-0.075,-0.035
'[12:03:06.992]',-0.065,-0.075
'[12:03:07.000]',-0.045,-0.045
'[12:03:07.008]',-0.055,-0.015
'[12:03:07.016]',-0.075,-0.025
'[12:03:07.023]',-0.025,-0.095
'[12:03:07.031]',-0.015,-0.045
'[12:03:07.039]',-0.005,-0.065
'[12:03:07.047]',0.025,-0.055
'[12:03:07.055]',0.015,-0.005
'[12:03:07.063]',0.035,-0.055
'[12:03:07.070]',0.055,-0.085
'[12:03:07.078]',0.045,0.005
'[12:03:07.086]',0.105,0.035
'[12:03:07.094]',0.155,-0.115
'[12:03:07.102]',0.155,-0.055
'[12:03:07.109]',0.185,-0.075
'[12:03:07.117]',0.225,-0.085
'[12:03:07.125]',0.255,-0.035
'[12:03:07.133]',0.295,-0.065
'[12:03:07.141]',0.275,-0.085
'[12:03:07.148]',0.315,-0.035
'[12:03:07.156]',0.325,-0.085
'[12:03:07.164]',0.295,-0.065
'[12:03:07.172]',0.265,-0.005
'[12:03:07.180]',0.215,-0.085
'[12:03:07.188]',0.135,-0.055
'[12:03:07.195]',0.045,-0.075
'[12:03:07.203]',-0.005,-0.035
'[12:03:07.211]',-0.045,-0.095
'[12:03:07.219]',-0.095,-0.075
'[12:03:07.227]',-0.115,-0.015
'[12:03:07.234]',-0.115,-0.065
'[12:03:07.242]',-0.145,-0.055
'[12:03:07.250]',-0.155,0.035
'[12:03:07.258]',-0.145,-0.065
'[12:03:07.266]',-0.175,-0.015
'[12:03:07.273]',-0.145,-0.085
'[12:03:07.281]',-0.145,-0.095
'[12:03:07.289]',-0.145,-0.065
'[12:03:07.297]',-0.135,-0.055
'[12:03:07.305]',-0.145,-0.065
'[12:03:07.313]',-0.145,-0.055
'[12:03:07.320]',-0.125,-0.065
'[12:03:07.328]',-0.135,-0.045
'[12:03:07.336]',-0.135,-0.045
'[12:03:07.344]',-0.105,-0.075
'[12:03:07.352]',-0.125,-0.065
'[12:03:07.359]',-0.115,-0.015
'[12:03:07.367]',-0.105,-0.095
'[12:03:07.375]',-0.115,-0.025
'[12:03:07.383]',-0.105,-0.085
'[12:03:07.391]',-0.115,-0.105
'[12:03:07.398]',-0.115,-0.035
'[12:03:07.406]',-0.115,-0.055
'[12:03:07.414]',-0.115,-0.025
'[12:03:07.422]',-0.125,-0.075
'[12:03:07.430]',-0.125,-0.005
'[12:03:07.438]',-0.115,-0.055
'[12:03:07.445]',-0.115,-0.155
'[12:03:07.453]',-0.145,-0.075
'[12:03:07.461]',-0.135,-0.075
'[12:03:07.469]',-0.135,-0.035
'[12:03:07.477]',-0.135,-0.085
'[12:03:07.484]',-0.135,-0.075
'[12:03:07.492]',-0.135,-0.035
'[12:03:07.500]',-0.125,-0.065
'[12:03:07.508]',-0.125,-0.065
'[12:03:07.516]',-0.165,-0.055
'[12:03:07.523]',-0.145,-0.005
'[12:03:07.531]',-0.115,-0.185
'[12:03:07.539]',-0.125,-0.125
'[12:03:07.547]',-0.115,-0.055
'[12:03:07.555]',-0.135,-0.045
'[12:03:07.563]',-0.115,-0.095
'[12:03:07.570]',-0.125,-0.085
'[12:03:07.578]',-0.155,-0.075
'[12:03:07.586]',-0.135,-0.055
'[12:03:07.594]',-0.155,-0.025
'[12:03:07.602]',-0.125,-0.065
'[12:03:07.609]',-0.115,-0.035
'[12:03:07.617]',-0.125,-0.125
'[12:03:07.625]',-0.115,-0.095
'[12:03:07.633]',-0.115,-0.075
'[12:03:07.641]',-0.135,-0.105
'[12:03:07.648]',-0.135,-0.055
'[12:03:07.656]',-0.115,-0.075
'[12:03:07.664]',-0.135,-0.085
'[12:03:07.672]',-0.125,0.025
'[12:03:07.680]',-0.145,-0.045
'[12:03:07.688]',-0.105,-0.095
'[12:03:07.695]',-0.105,-0.145
'[12:03:07.703]',-0.125,-0.095
'[12:03:07.711]',-0.115,-0.085
'[12:03:07.719]',-0.095,-0.055
'[12:03:07.727]',-0.115,-0.065
'[12:03:07.734]',-0.095,-0.085
'[12:03:07.742]',-0.085,-0.005
'[12:03:07.750]',-0.035,-0.025
'[12:03:07.758]',-0.045,0.075
'[12:03:07.766]',-0.045,0.015
'[12:03:07.773]',0.035,-0.005
'[12:03:07.781]',0.055,0.055
'[12:03:07.789]',0.055,-0.095
'[12:03:07.797]',0.035,-0.105
'[12:03:07.805]',0.005,-0.085
'[12:03:07.813]',-0.055,-0.105
'[12:03:07.820]',-0.095,-0.095
'[12:03:07.828]',-0.145,-0.065
'[12:03:07.836]',-0.135,0.025
'[12:03:07.844]',-0.085,-0.135
'[12:03:07.852]',-0.095,-0.135
'[12:03:07.859]',-0.075,-0.105
'[12:03:07.867]',-0.025,-0.005
'[12:03:07.875]',0.025,0.045
'[12:03:07.883]',0.475,-0.205
'[12:03:07.891]',1.125,-0.355
'[12:03:07.898]',1.245,-0.645
'[12:03:07.906]',-0.175,-0.755
'[12:03:07.914]',-0.745,-0.375
'[12:03:07.922]',-0.525,-0.085
'[12:03:07.930]',-0.195,-0.105
'[12:03:07.938]',-0.085,-0.045
'[12:03:07.945]',-0.095,-0.135
'[12:03:07.953]',-0.105,-0.125
'[12:03:07.961]',-0.135,-0.035
'[12:03:07.969]',-0.085,-0.035
'[12:03:07.977]',-0.105,-0.085
'[12:03:07.984]',-0.105,-0.045
'[12:03:07.992]',-0.105,-0.045
'[12:03:08.000]',-0.065,-0.045
'[12:03:08.008]',-0.095,-0.055
'[12:03:08.016]',-0.095,-0.045
'[12:03:08.023]',-0.065,-0.085
'[12:03:08.031]',-0.055,-0.055
'[12:03:08.039]',-0.055,-0.045
'[12:03:08.047]',-0.025,-0.055
'[12:03:08.055]',-0.015,-0.025
'[12:03:08.063]',-0.025,-0.005
'[12:03:08.070]',-0.015,0.005
'[12:03:08.078]',-0.005,-0.075
'[12:03:08.086]',0.035,-0.055
'[12:03:08.094]',0.045,-0.075
'[12:03:08.102]',0.065,-0.025
'[12:03:08.109]',0.095,-0.035
'[12:03:08.117]',0.115,-0.055
'[12:03:08.125]',0.135,-0.015
'[12:03:08.133]',0.165,-0.025
'[12:03:08.141]',0.175,-0.015
'[12:03:08.148]',0.225,-0.075
'[12:03:08.156]',0.265,-0.025
'[12:03:08.164]',0.285,-0.055
'[12:03:08.172]',0.315,-0.065
'[12:03:08.180]',0.335,0.015
'[12:03:08.188]',0.365,-0.085
'[12:03:08.195]',0.325,-0.125
'[12:03:08.203]',0.275,-0.045
'[12:03:08.211]',0.245,-0.035
'[12:03:08.219]',0.185,-0.035
'[12:03:08.227]',0.085,-0.085
'[12:03:08.234]',0.005,-0.085
'[12:03:08.242]',-0.025,-0.045
'[12:03:08.250]',-0.105,-0.025
'[12:03:08.258]',-0.135,0.015
'[12:03:08.266]',-0.115,-0.045
'[12:03:08.273]',-0.115,-0.045
'[12:03:08.281]',-0.145,-0.055
'[12:03:08.289]',-0.155,0.035
'[12:03:08.297]',-0.135,-0.065
'[12:03:08.305]',-0.115,-0.085
'[12:03:08.313]',-0.115,-0.075
'[12:03:08.320]',-0.135,-0.065
'[12:03:08.328]',-0.125,-0.045
'[12:03:08.336]',-0.105,-0.075
'[12:03:08.344]',-0.125,-0.045
'[12:03:08.352]',-0.105,-0.035
'[12:03:08.359]',-0.095,-0.035
'[12:03:08.367]',-0.095,0.015
'[12:03:08.375]',-0.105,0.005
'[12:03:08.383]',-0.055,-0.025
'[12:03:08.391]',-0.075,-0.075
'[12:03:08.398]',-0.075,-0.065
'[12:03:08.406]',-0.065,0.005
'[12:03:08.414]',-0.075,-0.045
'[12:03:08.422]',-0.085,-0.045
'[12:03:08.430]',-0.065,-0.005
'[12:03:08.438]',-0.085,-0.005
'[12:03:08.445]',-0.055,0.025
'[12:03:08.453]',-0.115,-0.035
'[12:03:08.461]',-0.075,-0.065
'[12:03:08.469]',-0.085,-0.055
'[12:03:08.477]',-0.095,-0.025
'[12:03:08.484]',-0.095,-0.035
'[12:03:08.492]',-0.065,0.005
'[12:03:08.500]',-0.055,-0.095
'[12:03:08.508]',-0.085,-0.065
'[12:03:08.516]',-0.165,-0.025
'[12:03:08.523]',-0.125,-0.005
'[12:03:08.531]',-0.095,-0.035
'[12:03:08.539]',-0.095,-0.075
'[12:03:08.547]',-0.125,0.025
'[12:03:08.555]',-0.105,0.005
'[12:03:08.563]',-0.105,-0.095
'[12:03:08.570]',-0.095,-0.095
'[12:03:08.578]',-0.125,-0.095
'[12:03:08.586]',-0.115,-0.055
'[12:03:08.594]',-0.105,-0.015
'[12:03:08.602]',-0.105,-0.035
'[12:03:08.609]',-0.115,-0.025
'[12:03:08.617]',-0.135,0.035
'[12:03:08.625]',-0.075,-0.065
'[12:03:08.633]',-0.105,-0.015
'[12:03:08.641]',-0.135,-0.045
'[12:03:08.648]',-0.095,-0.065
'[12:03:08.656]',-0.115,-0.075
'[12:03:08.664]',-0.105,-0.065
'[12:03:08.672]',-0.105,-0.035
'[12:03:08.680]',-0.085,-0.055
'[12:03:08.688]',-0.085,-0.025
'[12:03:08.695]',-0.105,-0.005
'[12:03:08.703]',-0.135,-0.035
'[12:03:08.711]',-0.105,-0.015
'[12:03:08.719]',-0.105,-0.015
'[12:03:08.727]',-0.075,-0.005
'[12:03:08.734]',-0.105,-0.025
'[12:03:08.742]',-0.095,-0.035
'[12:03:08.750]',-0.085,-0.015
'[12:03:08.758]',-0.085,-0.015
'[12:03:08.766]',-0.105,-0.005
'[12:03:08.773]',-0.105,-0.005
'[12:03:08.781]',-0.055,-0.015
'[12:03:08.789]',-0.035,0.015
'[12:03:08.797]',0.045,0.045
'[12:03:08.805]',0.025,0.035
'[12:03:08.813]',0.055,0.065
'[12:03:08.820]',0.075,0.085
'[12:03:08.828]',0.045,-0.015
'[12:03:08.836]',0.095,-0.005
'[12:03:08.844]',0.045,-0.035
'[12:03:08.852]',-0.025,-0.035
'[12:03:08.859]',-0.065,-0.055
'[12:03:08.867]',-0.055,-0.025
'[12:03:08.875]',-0.085,-0.025
'[12:03:08.883]',-0.055,-0.095
'[12:03:08.891]',-0.085,-0.085
'[12:03:08.898]',-0.045,-0.045
'[12:03:08.906]',-0.035,0.085
'[12:03:08.914]',0.025,0.075
'[12:03:08.922]',0.485,-0.155
'[12:03:08.930]',1.155,-0.315
'[12:03:08.938]',1.425,-0.565
'[12:03:08.945]',0.005,-0.725
'[12:03:08.953]',-0.715,-0.405
'[12:03:08.961]',-0.465,-0.035
'[12:03:08.969]',-0.145,-0.005
'[12:03:08.977]',-0.085,-0.025
'[12:03:08.984]',-0.095,-0.045
'[12:03:08.992]',-0.095,-0.005
'[12:03:09.000]',-0.125,-0.015
'[12:03:09.008]',-0.095,-0.025
'[12:03:09.016]',-0.085,-0.025
'[12:03:09.023]',-0.115,0.095
'[12:03:09.031]',-0.045,0.025
'[12:03:09.039]',-0.045,-0.085
'[12:03:09.047]',-0.055,-0.065
'[12:03:09.055]',-0.075,-0.005
'[12:03:09.063]',-0.045,-0.005
'[12:03:09.070]',-0.015,-0.005
'[12:03:09.078]',-0.035,0.005
'[12:03:09.086]',-0.025,0.015
'[12:03:09.094]',-0.015,0.025
'[12:03:09.102]',-0.005,0.075
'[12:03:09.109]',0.045,-0.035
'[12:03:09.117]',0.025,0.035
'[12:03:09.125]',0.065,-0.035
'[12:03:09.133]',0.065,-0.005
'[12:03:09.141]',0.045,-0.015
'[12:03:09.148]',0.095,0.005
'[12:03:09.156]',0.145,0.005
'[12:03:09.164]',0.165,0.015
'[12:03:09.172]',0.195,0.005
'[12:03:09.180]',0.205,-0.005
'[12:03:09.188]',0.255,0.005
'[12:03:09.195]',0.275,-0.015
'[12:03:09.203]',0.265,-0.005
'[12:03:09.211]',0.315,-0.005
'[12:03:09.219]',0.365,0.025
'[12:03:09.227]',0.395,-0.025
'[12:03:09.234]',0.365,-0.075
'[12:03:09.242]',0.345,-0.045
'[12:03:09.250]',0.285,-0.035
'[12:03:09.258]',0.195,-0.035
'[12:03:09.266]',0.095,0.015
'[12:03:09.273]',0.045,-0.025
'[12:03:09.281]',-0.005,0.005
'[12:03:09.289]',-0.045,-0.015
'[12:03:09.297]',-0.105,-0.005
'[12:03:09.305]',-0.095,-0.015
'[12:03:09.313]',-0.155,-0.005
'[12:03:09.320]',-0.125,-0.015
'[12:03:09.328]',-0.145,-0.025
'[12:03:09.336]',-0.155,-0.035
'[12:03:09.344]',-0.135,-0.005
'[12:03:09.352]',-0.155,-0.035
'[12:03:09.359]',-0.155,-0.045
'[12:03:09.367]',-0.135,-0.015
'[12:03:09.375]',-0.165,-0.025
'[12:03:09.383]',-0.135,-0.035
'[12:03:09.391]',-0.155,-0.045
'[12:03:09.398]',-0.145,-0.035
'[12:03:09.406]',-0.125,-0.015
'[12:03:09.414]',-0.135,-0.025
'[12:03:09.422]',-0.125,-0.005
'[12:03:09.430]',-0.105,-0.055
'[12:03:09.438]',-0.135,-0.025
'[12:03:09.445]',-0.135,0.025
'[12:03:09.453]',-0.135,-0.055
'[12:03:09.461]',-0.115,-0.065
'[12:03:09.469]',-0.145,-0.025
'[12:03:09.477]',-0.145,-0.045
'[12:03:09.484]',-0.135,-0.045
'[12:03:09.492]',-0.105,-0.035
'[12:03:09.500]',-0.145,-0.025
'[12:03:09.508]',-0.155,-0.025
'[12:03:09.516]',-0.165,-0.065
'[12:03:09.523]',-0.155,-0.055
'[12:03:09.531]',-0.145,-0.045
'[12:03:09.539]',-0.165,-0.055
'[12:03:09.547]',-0.155,-0.045
'[12:03:09.555]',-0.155,-0.035
'[12:03:09.563]',-0.135,-0.055
'[12:03:09.570]',-0.155,-0.065
'[12:03:09.578]',-0.165,-0.035
'[12:03:09.586]',-0.155,-0.055
'[12:03:09.594]',-0.165,-0.055
'[12:03:09.602]',-0.135,-0.055
'[12:03:09.609]',-0.155,-0.075
'[12:03:09.617]',-0.165,-0.055
'[12:03:09.625]',-0.155,-0.015
'[12:03:09.633]',-0.145,-0.055
'[12:03:09.641]',-0.165,-0.025
'[12:03:09.648]',-0.145,-0.105
'[12:03:09.656]',-0.155,-0.075
'[12:03:09.664]',-0.145,-0.065
'[12:03:09.672]',-0.135,-0.055
'[12:03:09.680]',-0.145,-0.065
'[12:03:09.688]',-0.125,-0.055
'[12:03:09.695]',-0.165,-0.055
'[12:03:09.703]',-0.165,-0.085
'[12:03:09.711]',-0.145,-0.065
'[12:03:09.719]',-0.135,-0.045
'[12:03:09.727]',-0.165,-0.085
'[12:03:09.734]',-0.125,-0.025
'[12:03:09.742]',-0.135,-0.075
'[12:03:09.750]',-0.135,-0.065
'[12:03:09.758]',-0.125,-0.065
'[12:03:09.766]',-0.175,-0.075
'[12:03:09.773]',-0.135,-0.065
'[12:03:09.781]',-0.115,-0.055
'[12:03:09.789]',-0.105,-0.045
'[12:03:09.797]',-0.135,-0.055
'[12:03:09.805]',-0.095,0.045
'[12:03:09.813]',-0.045,-0.045
'[12:03:09.820]',-0.055,-0.045
'[12:03:09.828]',-0.025,0.025
'[12:03:09.836]',0.045,0.015
'[12:03:09.844]',0.045,-0.015
'[12:03:09.852]',0.025,-0.075
'[12:03:09.859]',0.015,-0.085
'[12:03:09.867]',-0.055,-0.095
'[12:03:09.875]',-0.095,-0.075
'[12:03:09.883]',-0.145,-0.095
'[12:03:09.891]',-0.155,-0.045
'[12:03:09.898]',-0.105,-0.085
'[12:03:09.906]',-0.105,-0.155
'[12:03:09.914]',-0.105,-0.075
'[12:03:09.922]',-0.065,-0.035
'[12:03:09.930]',-0.035,0.075
'[12:03:09.938]',0.245,-0.125
'[12:03:09.945]',0.905,-0.335
'[12:03:09.953]',1.375,-0.525
'[12:03:09.961]',0.355,-0.685
'[12:03:09.969]',-0.665,-0.515
'[12:03:09.977]',-0.635,-0.195
'[12:03:09.984]',-0.385,-0.065
'[12:03:09.992]',-0.125,-0.095
'[12:03:10.000]',-0.105,-0.085
'[12:03:10.008]',-0.085,-0.085
'[12:03:10.016]',-0.145,-0.095
'[12:03:10.023]',-0.155,-0.075
'[12:03:10.031]',-0.095,-0.065
'[12:03:10.039]',-0.115,-0.085
'[12:03:10.047]',-0.125,-0.095
'[12:03:10.055]',-0.165,-0.075
'[12:03:10.063]',-0.095,-0.075
'[12:03:10.070]',-0.055,-0.065
'[12:03:10.078]',-0.165,-0.065
'[12:03:10.086]',-0.075,-0.085
'[12:03:10.094]',-0.035,-0.055
'[12:03:10.102]',-0.055,-0.075
'[12:03:10.109]',-0.055,-0.085
'[12:03:10.117]',-0.105,-0.105
'[12:03:10.125]',-0.035,-0.075
'[12:03:10.133]',-0.135,-0.055
'[12:03:10.141]',0.065,-0.095
'[12:03:10.148]',0.085,-0.075
'[12:03:10.156]',0.035,-0.055
'[12:03:10.164]',0.045,-0.075
'[12:03:10.172]',0.065,-0.105
'[12:03:10.180]',0.125,-0.075
'[12:03:10.188]',0.105,-0.085
'[12:03:10.195]',0.145,-0.095
'[12:03:10.203]',0.155,-0.115
'[12:03:10.211]',0.215,-0.105
'[12:03:10.219]',0.305,-0.105
'[12:03:10.227]',0.275,-0.095
'[12:03:10.234]',0.315,-0.125
'[12:03:10.242]',0.265,-0.105
'[12:03:10.250]',0.315,-0.115
'[12:03:10.258]',0.295,-0.105
'[12:03:10.266]',0.225,-0.095
'[12:03:10.273]',0.205,-0.085
'[12:03:10.281]',0.095,-0.055
'[12:03:10.289]',0.035,-0.055
'[12:03:10.297]',0.005,-0.055
'[12:03:10.305]',-0.045,-0.045
'[12:03:10.313]',-0.125,-0.055
'[12:03:10.320]',-0.105,-0.055
'[12:03:10.328]',-0.185,-0.065
'[12:03:10.336]',-0.155,-0.045
'[12:03:10.344]',-0.145,-0.055
'[12:03:10.352]',-0.155,-0.055
'[12:03:10.359]',-0.135,-0.055
'[12:03:10.367]',-0.175,-0.045
'[12:03:10.375]',-0.235,-0.065
'[12:03:10.383]',-0.185,-0.075
'[12:03:10.391]',-0.195,-0.065
'[12:03:10.398]',-0.125,-0.045
'[12:03:10.406]',-0.145,-0.025
'[12:03:10.414]',-0.185,-0.045
'[12:03:10.422]',-0.145,-0.075
'[12:03:10.430]',-0.105,-0.045
'[12:03:10.438]',-0.185,-0.055
'[12:03:10.445]',-0.175,-0.045
'[12:03:10.453]',-0.165,-0.065
'[12:03:10.461]',-0.125,-0.055
'[12:03:10.469]',-0.125,-0.045
'[12:03:10.477]',-0.165,-0.045
'[12:03:10.484]',-0.155,-0.075
'[12:03:10.492]',-0.115,-0.055
'[12:03:10.500]',-0.135,-0.045
'[12:03:10.508]',-0.195,-0.065
'[12:03:10.516]',-0.195,-0.065
'[12:03:10.523]',-0.165,-0.065
'[12:03:10.531]',-0.165,-0.055
'[12:03:10.539]',-0.185,-0.055
'[12:03:10.547]',-0.155,-0.055
'[12:03:10.555]',-0.165,-0.055
'[12:03:10.563]',-0.165,-0.065
'[12:03:10.570]',-0.175,-0.065
'[12:03:10.578]',-0.175,-0.075
'[12:03:10.586]',-0.155,-0.065
'[12:03:10.594]',-0.235,-0.065
'[12:03:10.602]',-0.165,-0.085
'[12:03:10.609]',-0.155,-0.065
'[12:03:10.617]',-0.175,-0.065
'[12:03:10.625]',-0.175,-0.045
'[12:03:10.633]',-0.175,-0.055
'[12:03:10.641]',-0.165,-0.075
'[12:03:10.648]',-0.185,-0.065
'[12:03:10.656]',-0.175,-0.055
'[12:03:10.664]',-0.135,-0.065
'[12:03:10.672]',-0.135,-0.065
'[12:03:10.680]',-0.185,-0.065
'[12:03:10.688]',-0.165,-0.075
'[12:03:10.695]',-0.145,-0.065
'[12:03:10.703]',-0.175,-0.065
'[12:03:10.711]',-0.125,-0.055
'[12:03:10.719]',-0.125,-0.065
'[12:03:10.727]',-0.145,-0.075
'[12:03:10.734]',-0.135,-0.075
'[12:03:10.742]',-0.105,-0.085
'[12:03:10.750]',-0.125,-0.065
'[12:03:10.758]',-0.125,-0.065
'[12:03:10.766]',-0.155,-0.065
'[12:03:10.773]',-0.175,-0.075
'[12:03:10.781]',-0.105,-0.055
'[12:03:10.789]',-0.155,-0.045
'[12:03:10.797]',-0.015,-0.055
'[12:03:10.805]',-0.035,-0.005
'[12:03:10.813]',-0.045,0.005
'[12:03:10.820]',0.025,0.025
'[12:03:10.828]',0.085,0.005
'[12:03:10.836]',0.085,-0.015
'[12:03:10.844]',0.025,-0.035
'[12:03:10.852]',0.035,-0.075
'[12:03:10.859]',0.025,-0.075
'[12:03:10.867]',-0.045,-0.085
'[12:03:10.875]',-0.105,-0.085
'[12:03:10.883]',-0.085,-0.105
'[12:03:10.891]',-0.105,-0.105
'[12:03:10.898]',-0.085,-0.085
'[12:03:10.906]',-0.075,-0.105
'[12:03:10.914]',-0.065,-0.025
'[12:03:10.922]',0.005,0.075
'[12:03:10.930]',0.175,-0.075
'[12:03:10.938]',0.855,-0.265
'[12:03:10.945]',1.525,-0.405
'[12:03:10.953]',0.495,-0.645
'[12:03:10.961]',-0.625,-0.605
'[12:03:10.969]',-0.625,-0.275
'[12:03:10.977]',-0.345,-0.085
'[12:03:10.984]',-0.085,-0.095
'[12:03:10.992]',-0.105,-0.075
'[12:03:11.000]',-0.095,-0.085
'[12:03:11.008]',-0.085,-0.085
'[12:03:11.016]',-0.155,-0.075
'[12:03:11.023]',-0.135,-0.075
'[12:03:11.031]',-0.075,-0.055
'[12:03:11.039]',-0.105,-0.055
'[12:03:11.047]',-0.085,-0.095
'[12:03:11.055]',-0.085,-0.055
'[12:03:11.063]',-0.085,-0.065
'[12:03:11.070]',-0.085,-0.045
'[12:03:11.078]',-0.085,-0.075
'[12:03:11.086]',-0.065,-0.035
'[12:03:11.094]',-0.015,-0.055
'[12:03:11.102]',-0.035,-0.025
'[12:03:11.109]',0.005,-0.045
'[12:03:11.117]',-0.015,-0.055
'[12:03:11.125]',-0.005,-0.045
'[12:03:11.133]',-0.025,-0.055
'[12:03:11.141]',-0.015,-0.045
'[12:03:11.148]',0.025,-0.055
'[12:03:11.156]',0.065,-0.045
'[12:03:11.164]',0.035,-0.025
'[12:03:11.172]',0.105,-0.055
'[12:03:11.180]',0.105,-0.055
'[12:03:11.188]',0.135,-0.065
'[12:03:11.195]',0.145,-0.075
'[12:03:11.203]',0.185,-0.065
'[12:03:11.211]',0.185,-0.095
'[12:03:11.219]',0.195,-0.105
'[12:03:11.227]',0.255,-0.095
'[12:03:11.234]',0.315,-0.095
'[12:03:11.242]',0.285,-0.105
'[12:03:11.250]',0.225,-0.095
'[12:03:11.258]',0.265,-0.105
'[12:03:11.266]',0.155,-0.075
'[12:03:11.273]',0.085,-0.055
'[12:03:11.281]',0.045,-0.055
'[12:03:11.289]',-0.055,-0.065
'[12:03:11.297]',-0.055,-0.065
'[12:03:11.305]',-0.105,-0.035
'[12:03:11.313]',-0.135,-0.075
'[12:03:11.320]',-0.155,-0.075
'[12:03:11.328]',-0.225,-0.095
'[12:03:11.336]',-0.185,-0.085
'[12:03:11.344]',-0.165,-0.075
'[12:03:11.352]',-0.145,-0.065
'[12:03:11.359]',-0.175,-0.075
'[12:03:11.367]',-0.175,-0.065
'[12:03:11.375]',-0.135,-0.095
'[12:03:11.383]',-0.175,-0.095
'[12:03:11.391]',-0.195,-0.105
'[12:03:11.398]',-0.185,-0.085
'[12:03:11.406]',-0.145,-0.095
'[12:03:11.414]',-0.145,-0.075
'[12:03:11.422]',-0.135,-0.095
'[12:03:11.430]',-0.145,-0.095
'[12:03:11.438]',-0.105,-0.095
'[12:03:11.445]',-0.155,-0.075
'[12:03:11.453]',-0.165,-0.115
'[12:03:11.461]',-0.115,-0.085
'[12:03:11.469]',-0.115,-0.075
'[12:03:11.477]',-0.155,-0.095
'[12:03:11.484]',-0.105,-0.105
'[12:03:11.492]',-0.105,-0.105
'[12:03:11.500]',-0.155,-0.125
'[12:03:11.508]',-0.125,-0.085
'[12:03:11.516]',-0.145,-0.115
'[12:03:11.523]',-0.125,-0.105
'[12:03:11.531]',-0.125,-0.085
'[12:03:11.539]',-0.145,-0.125
'[12:03:11.547]',-0.105,-0.145
'[12:03:11.555]',-0.095,-0.095
'[12:03:11.563]',-0.105,-0.105
'[12:03:11.570]',-0.155,-0.115
'[12:03:11.578]',-0.245,-0.155
'[12:03:11.586]',-0.115,-0.125
'[12:03:11.594]',-0.105,-0.095
'[12:03:11.602]',-0.125,-0.105
'[12:03:11.609]',-0.115,-0.115
'[12:03:11.617]',-0.115,-0.105
'[12:03:11.625]',-0.045,-0.095
'[12:03:11.633]',-0.125,-0.115
'[12:03:11.641]',-0.115,-0.135
'[12:03:11.648]',-0.025,-0.105
'[12:03:11.656]',-0.145,-0.105
'[12:03:11.664]',-0.095,-0.125
'[12:03:11.672]',-0.095,-0.115
'[12:03:11.680]',-0.105,-0.105
'[12:03:11.688]',-0.065,-0.105
'[12:03:11.695]',-0.095,-0.105
'[12:03:11.703]',-0.085,-0.115
'[12:03:11.711]',-0.075,-0.105
'[12:03:11.719]',-0.015,-0.075
'[12:03:11.727]',0.035,-0.065
'[12:03:11.734]',-0.055,-0.015
'[12:03:11.742]',0.005,-0.015
'[12:03:11.750]',0.025,0.005
'[12:03:11.758]',0.075,-0.005
'[12:03:11.766]',0.145,0.005
'[12:03:11.773]',0.165,-0.075
'[12:03:11.781]',0.025,-0.095
'[12:03:11.789]',0.015,-0.095
'[12:03:11.797]',-0.025,-0.095
'[12:03:11.805]',-0.035,-0.095
'[12:03:11.813]',-0.065,-0.105
'[12:03:11.820]',-0.135,-0.115
'[12:03:11.828]',-0.065,-0.105
'[12:03:11.836]',-0.055,-0.085
'[12:03:11.844]',0.005,-0.035
'[12:03:11.852]',0.115,0.115
'[12:03:11.859]',0.135,-0.045
'[12:03:11.867]',0.695,-0.265
'[12:03:11.875]',1.475,-0.305
'[12:03:11.883]',0.735,-0.555
'[12:03:11.891]',-0.315,-0.575
'[12:03:11.898]',-0.685,-0.255
'[12:03:11.906]',-0.405,-0.085
'[12:03:11.914]',-0.065,-0.055
'[12:03:11.922]',-0.075,-0.075
'[12:03:11.930]',-0.055,-0.045
'[12:03:11.938]',-0.115,-0.045
'[12:03:11.945]',-0.075,-0.055
'[12:03:11.953]',-0.085,-0.045
'[12:03:11.961]',-0.005,-0.025
'[12:03:11.969]',-0.105,-0.005
'[12:03:11.977]',-0.095,-0.055
'[12:03:11.984]',0.025,-0.005
'[12:03:11.992]',-0.035,-0.015
'[12:03:12.000]',-0.065,0.005
'[12:03:12.008]',-0.055,-0.025
'[12:03:12.016]',-0.025,-0.005
'[12:03:12.023]',0.015,0.005
'[12:03:12.031]',0.075,0.015
'[12:03:12.039]',-0.065,-0.005
'[12:03:12.047]',-0.005,-0.035
'[12:03:12.055]',0.045,0.005
'[12:03:12.063]',0.095,0.005
'[12:03:12.070]',0.135,0.015
'[12:03:12.078]',0.025,-0.005
'[12:03:12.086]',0.075,-0.035
'[12:03:12.094]',0.095,0.015
'[12:03:12.102]',0.085,-0.015
'[12:03:12.109]',0.165,-0.035
'[12:03:12.117]',0.285,-0.015
'[12:03:12.125]',0.225,-0.025
'[12:03:12.133]',0.195,-0.045
'[12:03:12.141]',0.255,-0.025
'[12:03:12.148]',0.305,-0.055
'[12:03:12.156]',0.415,-0.035
'[12:03:12.164]',0.285,-0.045
'[12:03:12.172]',0.255,-0.085
'[12:03:12.180]',0.285,-0.055
'[12:03:12.188]',0.265,-0.015
'[12:03:12.195]',0.225,0.005
'[12:03:12.203]',0.145,0.005
'[12:03:12.211]',0.035,0.015
'[12:03:12.219]',0.035,0.035
'[12:03:12.227]',-0.025,0.035
'[12:03:12.234]',-0.105,-0.005
'[12:03:12.242]',-0.095,-0.005
'[12:03:12.250]',-0.115,0.005
'[12:03:12.258]',-0.035,0.025
'[12:03:12.266]',-0.285,-0.025
'[12:03:12.273]',-0.185,-0.035
'[12:03:12.281]',-0.065,0.015
'[12:03:12.289]',-0.105,0.005
'[12:03:12.297]',-0.155,-0.025
'[12:03:12.305]',-0.215,-0.035
'[12:03:12.313]',-0.085,0.005
'[12:03:12.320]',-0.105,0.005
'[12:03:12.328]',-0.145,-0.015
'[12:03:12.336]',-0.175,-0.025
'[12:03:12.344]',-0.065,-0.035
'[12:03:12.352]',-0.145,-0.025
'[12:03:12.359]',-0.145,-0.035
'[12:03:12.367]',-0.135,-0.025
'[12:03:12.375]',-0.115,-0.025
'[12:03:12.383]',-0.125,-0.035
'[12:03:12.391]',-0.085,-0.025
'[12:03:12.398]',-0.145,-0.045
'[12:03:12.406]',-0.135,-0.045
'[12:03:12.414]',-0.105,-0.015
'[12:03:12.422]',-0.065,-0.055
'[12:03:12.430]',-0.055,-0.045
'[12:03:12.438]',-0.235,-0.065
'[12:03:12.445]',-0.145,-0.085
'[12:03:12.453]',-0.155,-0.055
'[12:03:12.461]',-0.145,-0.055
'[12:03:12.469]',-0.145,-0.045
'[12:03:12.477]',-0.115,-0.075
'[12:03:12.484]',-0.125,-0.065
'[12:03:12.492]',-0.195,-0.075
'[12:03:12.500]',-0.095,-0.065
'[12:03:12.508]',-0.135,-0.065
'[12:03:12.516]',-0.165,-0.085
'[12:03:12.523]',-0.125,-0.075
'[12:03:12.531]',-0.165,-0.075
'[12:03:12.539]',-0.105,-0.075
'[12:03:12.547]',-0.135,-0.085
'[12:03:12.555]',-0.105,-0.065
'[12:03:12.563]',-0.095,-0.065
'[12:03:12.570]',-0.185,-0.075
'[12:03:12.578]',-0.165,-0.095
'[12:03:12.586]',-0.115,-0.075
'[12:03:12.594]',-0.115,-0.065
'[12:03:12.602]',-0.155,-0.085
'[12:03:12.609]',-0.105,-0.085
'[12:03:12.617]',-0.095,-0.075
'[12:03:12.625]',-0.135,-0.065
'[12:03:12.633]',-0.105,-0.065
'[12:03:12.641]',-0.145,-0.095
'[12:03:12.648]',-0.125,-0.075
'[12:03:12.656]',-0.035,-0.035
'[12:03:12.664]',-0.015,0.015
'[12:03:12.672]',-0.075,-0.025
'[12:03:12.680]',0.045,0.025
'[12:03:12.688]',0.095,0.045
'[12:03:12.695]',0.055,-0.025
'[12:03:12.703]',0.025,-0.105
'[12:03:12.711]',0.005,-0.095
'[12:03:12.719]',-0.075,-0.115
'[12:03:12.727]',-0.075,-0.105
'[12:03:12.734]',-0.075,-0.115
'[12:03:12.742]',-0.145,-0.115
'[12:03:12.750]',-0.085,-0.115
'[12:03:12.758]',-0.175,-0.125
'[12:03:12.766]',-0.105,-0.135
'[12:03:12.773]',-0.055,-0.005
'[12:03:12.781]',-0.035,0.015
'[12:03:12.789]',0.365,-0.215
'[12:03:12.797]',1.095,-0.315
'[12:03:12.805]',1.365,-0.535
'[12:03:12.813]',-0.045,-0.745
'[12:03:12.820]',-0.705,-0.515
'[12:03:12.828]',-0.615,-0.205
'[12:03:12.836]',-0.275,-0.115
'[12:03:12.844]',-0.115,-0.105
'[12:03:12.852]',-0.115,-0.105
'[12:03:12.859]',-0.115,-0.115
'[12:03:12.867]',-0.125,-0.095
'[12:03:12.875]',-0.065,-0.085
'[12:03:12.883]',-0.025,-0.075
'[12:03:12.891]',-0.105,-0.095
'[12:03:12.898]',-0.175,-0.095
'[12:03:12.906]',-0.145,-0.065
'[12:03:12.914]',-0.075,-0.095
'[12:03:12.922]',-0.065,-0.065
'[12:03:12.930]',-0.055,-0.085
'[12:03:12.938]',-0.045,-0.045
'[12:03:12.945]',0.005,-0.065
'[12:03:12.953]',-0.085,-0.075
'[12:03:12.961]',-0.035,-0.065
'[12:03:12.969]',-0.025,-0.045
'[12:03:12.977]',-0.015,-0.075
'[12:03:12.984]',0.065,-0.055
'[12:03:12.992]',0.035,-0.055
'[12:03:13.000]',0.005,-0.045
'[12:03:13.008]',0.025,-0.065
'[12:03:13.016]',0.065,-0.065
'[12:03:13.023]',0.105,-0.055
'[12:03:13.031]',0.145,-0.075
'[12:03:13.039]',0.135,-0.085
'[12:03:13.047]',0.225,-0.095
'[12:03:13.055]',0.235,-0.075
'[12:03:13.063]',0.255,-0.085
'[12:03:13.070]',0.305,-0.135
'[12:03:13.078]',0.295,-0.105
'[12:03:13.086]',0.305,-0.085
'[12:03:13.094]',0.305,-0.115
'[12:03:13.102]',0.325,-0.095
'[12:03:13.109]',0.285,-0.115
'[12:03:13.117]',0.245,-0.115
'[12:03:13.125]',0.155,-0.085
'[12:03:13.133]',0.085,-0.095
'[12:03:13.141]',0.005,-0.125
'[12:03:13.148]',-0.055,-0.105
'[12:03:13.156]',-0.105,-0.105
'[12:03:13.164]',-0.095,-0.105
'[12:03:13.172]',-0.125,-0.115
'[12:03:13.180]',-0.135,-0.115
'[12:03:13.188]',-0.165,-0.105
'[12:03:13.195]',-0.175,-0.125
'[12:03:13.203]',-0.185,-0.135
'[12:03:13.211]',-0.145,-0.145
'[12:03:13.219]',-0.165,-0.125
'[12:03:13.227]',-0.155,-0.125
'[12:03:13.234]',-0.165,-0.145
'[12:03:13.242]',-0.155,-0.125
'[12:03:13.250]',-0.135,-0.135
'[12:03:13.258]',-0.115,-0.125
'[12:03:13.266]',-0.135,-0.145
'[12:03:13.273]',-0.155,-0.135
'[12:03:13.281]',-0.175,-0.135
'[12:03:13.289]',-0.105,-0.145
'[12:03:13.297]',-0.085,-0.145
'[12:03:13.305]',-0.105,-0.135
'[12:03:13.313]',-0.115,-0.135
'[12:03:13.320]',-0.105,-0.135
'[12:03:13.328]',-0.085,-0.115
'[12:03:13.336]',-0.085,-0.135
'[12:03:13.344]',-0.155,-0.135
'[12:03:13.352]',-0.115,-0.155
'[12:03:13.359]',-0.115,-0.155
'[12:03:13.367]',-0.105,-0.135
'[12:03:13.375]',-0.135,-0.135
'[12:03:13.383]',-0.135,-0.135
'[12:03:13.391]',-0.165,-0.145
'[12:03:13.398]',-0.105,-0.145
'[12:03:13.406]',-0.095,-0.135
'[12:03:13.414]',-0.145,-0.115
'[12:03:13.422]',-0.115,-0.155
'[12:03:13.430]',-0.105,-0.145
'[12:03:13.438]',-0.165,-0.115
'[12:03:13.445]',-0.115,-0.125
'[12:03:13.453]',-0.115,-0.145
'[12:03:13.461]',-0.135,-0.105
'[12:03:13.469]',-0.155,-0.115
'[12:03:13.477]',-0.135,-0.125
'[12:03:13.484]',-0.125,-0.125
'[12:03:13.492]',-0.075,-0.145
'[12:03:13.500]',-0.135,-0.085
'[12:03:13.508]',-0.155,-0.105
'[12:03:13.516]',-0.135,-0.125
'[12:03:13.523]',-0.155,-0.125
'[12:03:13.531]',-0.065,-0.145
'[12:03:13.539]',-0.145,-0.105
'[12:03:13.547]',-0.115,-0.125
'[12:03:13.555]',-0.125,-0.125
'[12:03:13.563]',-0.075,-0.135
'[12:03:13.570]',-0.105,-0.085
'[12:03:13.578]',-0.105,-0.105
'[12:03:13.586]',-0.085,-0.065
'[12:03:13.594]',-0.035,-0.055
'[12:03:13.602]',0.005,-0.025
'[12:03:13.609]',0.065,-0.015
'[12:03:13.617]',0.045,-0.085
'[12:03:13.625]',0.035,-0.125
'[12:03:13.633]',-0.005,-0.145
'[12:03:13.641]',-0.015,-0.135
'[12:03:13.648]',-0.095,-0.135
'[12:03:13.656]',-0.105,-0.135
'[12:03:13.664]',-0.115,-0.145
'[12:03:13.672]',-0.145,-0.165
'[12:03:13.680]',-0.145,-0.165
'[12:03:13.688]',-0.065,-0.175
'[12:03:13.695]',-0.055,-0.125
'[12:03:13.703]',-0.085,0.055
'[12:03:13.711]',0.005,-0.085
'[12:03:13.719]',0.605,-0.355
'[12:03:13.727]',1.335,-0.585
'[12:03:13.734]',0.695,-0.815
'[12:03:13.742]',-0.515,-0.855
'[12:03:13.750]',-0.695,-0.455
'[12:03:13.758]',-0.435,-0.135
'[12:03:13.766]',-0.155,-0.145
'[12:03:13.773]',-0.125,-0.145
'[12:03:13.781]',-0.135,-0.115
'[12:03:13.789]',-0.125,-0.105
'[12:03:13.797]',-0.145,-0.115
'[12:03:13.805]',-0.145,-0.135
'[12:03:13.813]',-0.085,-0.105
'[12:03:13.820]',-0.125,-0.085
'[12:03:13.828]',-0.175,-0.095
'[12:03:13.836]',-0.125,-0.065
'[12:03:13.844]',-0.105,-0.035
'[12:03:13.852]',-0.105,-0.115
'[12:03:13.859]',-0.085,-0.115
'[12:03:13.867]',-0.095,-0.105
'[12:03:13.875]',-0.095,-0.085
'[12:03:13.883]',-0.065,-0.085
'[12:03:13.891]',-0.055,-0.065
'[12:03:13.898]',-0.035,-0.065
'[12:03:13.906]',-0.045,-0.035
'[12:03:13.914]',-0.025,-0.045
'[12:03:13.922]',0.025,-0.185
'[12:03:13.930]',0.005,-0.105
'[12:03:13.938]',-0.005,-0.045
'[12:03:13.945]',0.055,-0.075
'[12:03:13.953]',0.075,-0.105
'[12:03:13.961]',0.105,-0.095
'[12:03:13.969]',0.155,-0.065
'[12:03:13.977]',0.165,-0.085
'[12:03:13.984]',0.215,-0.115
'[12:03:13.992]',0.235,-0.105
'[12:03:14.000]',0.245,-0.115
'[12:03:14.008]',0.295,-0.105
'[12:03:14.016]',0.265,-0.115
'[12:03:14.023]',0.285,-0.115
'[12:03:14.031]',0.245,-0.085
'[12:03:14.039]',0.205,-0.105
'[12:03:14.047]',0.175,-0.095
'[12:03:14.055]',0.075,-0.105
'[12:03:14.063]',0.035,-0.075
'[12:03:14.070]',-0.055,-0.135
'[12:03:14.078]',-0.125,-0.165
'[12:03:14.086]',-0.095,-0.115
'[12:03:14.094]',-0.095,-0.105
'[12:03:14.102]',-0.145,-0.105
'[12:03:14.109]',-0.155,-0.135
'[12:03:14.117]',-0.175,-0.145
'[12:03:14.125]',-0.145,-0.115
'[12:03:14.133]',-0.195,-0.125
'[12:03:14.141]',-0.155,-0.115
'[12:03:14.148]',-0.185,-0.125
'[12:03:14.156]',-0.155,-0.125
'[12:03:14.164]',-0.125,-0.105
'[12:03:14.172]',-0.145,-0.125
'[12:03:14.180]',-0.135,-0.115
'[12:03:14.188]',-0.205,-0.115
'[12:03:14.195]',-0.135,-0.155
'[12:03:14.203]',-0.115,-0.085
'[12:03:14.211]',-0.125,-0.095
'[12:03:14.219]',-0.095,-0.105
'[12:03:14.227]',-0.155,-0.095
'[12:03:14.234]',-0.155,-0.105
'[12:03:14.242]',-0.145,-0.125
'[12:03:14.250]',-0.095,-0.105
'[12:03:14.258]',-0.155,-0.175
'[12:03:14.266]',-0.115,-0.155
'[12:03:14.273]',-0.155,-0.185
'[12:03:14.281]',-0.145,-0.075
'[12:03:14.289]',-0.175,-0.055
'[12:03:14.297]',-0.125,-0.215
'[12:03:14.305]',-0.155,-0.075
'[12:03:14.313]',-0.155,-0.165
'[12:03:14.320]',-0.135,-0.225
'[12:03:14.328]',-0.175,-0.185
'[12:03:14.336]',-0.205,-0.155
'[12:03:14.344]',-0.155,-0.085
'[12:03:14.352]',-0.115,-0.165
'[12:03:14.359]',-0.115,-0.245
'[12:03:14.367]',-0.135,-0.145
'[12:03:14.375]',-0.165,-0.125
'[12:03:14.383]',-0.125,-0.155
'[12:03:14.391]',-0.195,-0.045
'[12:03:14.398]',-0.145,-0.065
'[12:03:14.406]',-0.135,-0.225
'[12:03:14.414]',-0.145,-0.225
'[12:03:14.422]',-0.105,-0.205
'[12:03:14.430]',-0.095,-0.165
'[12:03:14.438]',-0.195,-0.025
'[12:03:14.445]',-0.145,-0.215
'[12:03:14.453]',-0.185,-0.075
'[12:03:14.461]',-0.105,-0.195
'[12:03:14.469]',-0.085,-0.195
'[12:03:14.477]',-0.155,-0.245
'[12:03:14.484]',-0.145,-0.085
'[12:03:14.492]',-0.105,-0.125
'[12:03:14.500]',-0.115,-0.205
'[12:03:14.508]',-0.145,-0.075
'[12:03:14.516]',-0.105,-0.175
'[12:03:14.523]',-0.035,-0.085
'[12:03:14.531]',-0.055,0.005
'[12:03:14.539]',0.005,-0.135
'[12:03:14.547]',0.065,-0.175
'[12:03:14.555]',0.085,-0.025
'[12:03:14.563]',0.005,0.005
'[12:03:14.570]',0.055,-0.155
'[12:03:14.578]',-0.015,-0.115
'[12:03:14.586]',-0.085,-0.165
'[12:03:14.594]',-0.105,-0.235
'[12:03:14.602]',-0.065,-0.295
'[12:03:14.609]',-0.145,-0.265
'[12:03:14.617]',-0.075,-0.215
'[12:03:14.625]',-0.065,-0.175
'[12:03:14.633]',-0.165,-0.165
'[12:03:14.641]',-0.065,0.065
'[12:03:14.648]',-0.015,0.065
'[12:03:14.656]',0.555,-0.315
'[12:03:14.664]',1.165,-0.615
'[12:03:14.672]',0.875,-0.935
'[12:03:14.680]',-0.265,-0.905
'[12:03:14.688]',-0.685,-0.635
'[12:03:14.695]',-0.385,-0.185
'[12:03:14.703]',-0.205,-0.155
'[12:03:14.711]',-0.155,-0.065
'[12:03:14.719]',-0.115,-0.105
'[12:03:14.727]',-0.065,-0.205
'[12:03:14.734]',-0.145,-0.215
'[12:03:14.742]',-0.145,-0.115
'[12:03:14.750]',-0.135,-0.155
'[12:03:14.758]',-0.175,-0.035
'[12:03:14.766]',-0.155,0.065
'[12:03:14.773]',-0.105,-0.165
'[12:03:14.781]',-0.135,-0.045
'[12:03:14.789]',-0.145,-0.165
'[12:03:14.797]',-0.115,-0.175
'[12:03:14.805]',-0.055,-0.245
'[12:03:14.813]',-0.125,-0.145
'[12:03:14.820]',-0.135,-0.045
'[12:03:14.828]',-0.105,0.045
'[12:03:14.836]',-0.095,-0.155
'[12:03:14.844]',-0.055,-0.085
'[12:03:14.852]',-0.025,-0.225
'[12:03:14.859]',-0.055,-0.075
'[12:03:14.867]',-0.055,0.035
'[12:03:14.875]',-0.005,-0.125
'[12:03:14.883]',0.055,-0.255
'[12:03:14.891]',0.015,-0.195
'[12:03:14.898]',0.045,-0.095
'[12:03:14.906]',0.065,0.075
'[12:03:14.914]',0.055,0.015
'[12:03:14.922]',0.145,-0.165
'[12:03:14.930]',0.145,-0.285
'[12:03:14.938]',0.205,-0.095
'[12:03:14.945]',0.225,-0.245
'[12:03:14.953]',0.185,-0.205
'[12:03:14.961]',0.225,-0.145
'[12:03:14.969]',0.205,-0.045
'[12:03:14.977]',0.175,-0.145
'[12:03:14.984]',0.095,-0.165
'[12:03:14.992]',0.065,-0.005
'[12:03:15.000]',0.015,-0.105
'[12:03:15.008]',-0.105,-0.025
'[12:03:15.016]',-0.095,-0.115
'[12:03:15.023]',-0.165,-0.165
'[12:03:15.031]',-0.175,-0.075
'[12:03:15.039]',-0.175,-0.105
'[12:03:15.047]',-0.215,-0.115
'[12:03:15.055]',-0.225,-0.065
'[12:03:15.063]',-0.195,-0.065
'[12:03:15.070]',-0.205,-0.105
'[12:03:15.078]',-0.205,-0.015
'[12:03:15.086]',-0.225,-0.155
'[12:03:15.094]',-0.215,0.185
'[12:03:15.102]',-0.185,-0.135
'[12:03:15.109]',-0.165,-0.195
'[12:03:15.117]',-0.185,-0.145
'[12:03:15.125]',-0.175,-0.115
'[12:03:15.133]',-0.195,-0.055
'[12:03:15.141]',-0.155,0.005
'[12:03:15.148]',-0.175,-0.025
'[12:03:15.156]',-0.135,-0.145
'[12:03:15.164]',-0.205,0.065
'[12:03:15.172]',-0.115,-0.125
'[12:03:15.180]',-0.135,-0.245
'[12:03:15.188]',-0.175,-0.125
'[12:03:15.195]',-0.175,-0.095
'[12:03:15.203]',-0.175,-0.055
'[12:03:15.211]',-0.175,-0.105
'[12:03:15.219]',-0.155,-0.125
'[12:03:15.227]',-0.185,-0.045
'[12:03:15.234]',-0.195,-0.095
'[12:03:15.242]',-0.155,-0.185
'[12:03:15.250]',-0.195,-0.125
'[12:03:15.258]',-0.195,-0.095
'[12:03:15.266]',-0.175,-0.125
'[12:03:15.273]',-0.125,-0.175
'[12:03:15.281]',-0.145,-0.095
'[12:03:15.289]',-0.215,-0.075
'[12:03:15.297]',-0.185,-0.025
'[12:03:15.305]',-0.155,-0.195
'[12:03:15.313]',-0.185,-0.035
'[12:03:15.320]',-0.175,-0.045
'[12:03:15.328]',-0.195,-0.175
'[12:03:15.336]',-0.175,-0.115
'[12:03:15.344]',-0.165,-0.155
'[12:03:15.352]',-0.165,-0.145
'[12:03:15.359]',-0.165,0.005
'[12:03:15.367]',-0.175,-0.125
'[12:03:15.375]',-0.185,-0.175
'[12:03:15.383]',-0.145,-0.115
'[12:03:15.391]',-0.195,-0.075
'[12:03:15.398]',-0.155,-0.145
'[12:03:15.406]',-0.145,-0.155
'[12:03:15.414]',-0.155,-0.135
'[12:03:15.422]',-0.195,-0.025
'[12:03:15.430]',-0.145,-0.155
'[12:03:15.438]',-0.135,-0.115
'[12:03:15.445]',-0.095,-0.025
'[12:03:15.453]',-0.095,-0.005
'[12:03:15.461]',-0.075,-0.045
'[12:03:15.469]',0.005,-0.015
'[12:03:15.477]',0.055,-0.025
'[12:03:15.484]',0.025,-0.065
'[12:03:15.492]',0.015,-0.095
'[12:03:15.500]',-0.025,-0.115
'[12:03:15.508]',-0.105,-0.125
'[12:03:15.516]',-0.155,-0.085
'[12:03:15.523]',-0.165,-0.135
'[12:03:15.531]',-0.165,-0.135
'[12:03:15.539]',-0.145,-0.165
'[12:03:15.547]',-0.155,-0.135
'[12:03:15.555]',-0.145,-0.145
'[12:03:15.563]',-0.065,-0.065
'[12:03:15.570]',-0.055,0.075
'[12:03:15.578]',0.255,-0.185
'[12:03:15.586]',0.865,-0.375
'[12:03:15.594]',1.185,-0.495
'[12:03:15.602]',-0.075,-0.725
'[12:03:15.609]',-0.765,-0.595
'[12:03:15.617]',-0.585,-0.235
'[12:03:15.625]',-0.275,-0.125
'[12:03:15.633]',-0.125,-0.185
'[12:03:15.641]',-0.155,-0.125
'[12:03:15.648]',-0.175,-0.085
'[12:03:15.656]',-0.175,-0.075
'[12:03:15.664]',-0.175,-0.115
'[12:03:15.672]',-0.165,-0.065
'[12:03:15.680]',-0.135,-0.065
'[12:03:15.688]',-0.125,-0.145
'[12:03:15.695]',-0.165,-0.075
'[12:03:15.703]',-0.165,-0.085
'[12:03:15.711]',-0.105,-0.085
'[12:03:15.719]',-0.135,-0.115
'[12:03:15.727]',-0.125,-0.045
'[12:03:15.734]',-0.095,-0.075
'[12:03:15.742]',-0.115,-0.065
'[12:03:15.750]',-0.075,-0.045
'[12:03:15.758]',-0.085,-0.105
'[12:03:15.766]',-0.095,-0.065
'[12:03:15.773]',-0.065,-0.075
'[12:03:15.781]',-0.055,-0.075
'[12:03:15.789]',0.005,-0.035
'[12:03:15.797]',-0.005,-0.125
'[12:03:15.805]',0.005,-0.105
'[12:03:15.813]',0.035,0.005
'[12:03:15.820]',0.055,-0.055
'[12:03:15.828]',0.045,-0.085
'[12:03:15.836]',0.075,-0.055
'[12:03:15.844]',0.135,-0.145
'[12:03:15.852]',0.165,-0.135
'[12:03:15.859]',0.165,-0.105
'[12:03:15.867]',0.155,0.025
'[12:03:15.875]',0.215,-0.115
'[12:03:15.883]',0.255,-0.125
'[12:03:15.891]',0.205,-0.145
'[12:03:15.898]',0.225,-0.105
'[12:03:15.906]',0.175,-0.065
'[12:03:15.914]',0.145,-0.055
'[12:03:15.922]',0.055,-0.045
'[12:03:15.930]',0.015,-0.035
'[12:03:15.938]',-0.065,-0.015
'[12:03:15.945]',-0.105,-0.035
'[12:03:15.953]',-0.175,-0.065
'[12:03:15.961]',-0.105,0.025
'[12:03:15.969]',-0.155,-0.075
'[12:03:15.977]',-0.155,-0.045
'[12:03:15.984]',-0.165,-0.045
'[12:03:15.992]',-0.185,-0.045
'[12:03:16.000]',-0.165,0.015
'[12:03:16.008]',-0.185,-0.045
'[12:03:16.016]',-0.195,-0.115
'[12:03:16.023]',-0.185,-0.095
'[12:03:16.031]',-0.145,-0.025
'[12:03:16.039]',-0.175,-0.025
'[12:03:16.047]',-0.165,-0.035
'[12:03:16.055]',-0.135,-0.045
'[12:03:16.063]',-0.155,-0.025
'[12:03:16.070]',-0.155,-0.085
'[12:03:16.078]',-0.175,-0.045
'[12:03:16.086]',-0.135,-0.065
'[12:03:16.094]',-0.125,-0.065
'[12:03:16.102]',-0.175,-0.005
'[12:03:16.109]',-0.105,-0.075
'[12:03:16.117]',-0.145,-0.115
'[12:03:16.125]',-0.135,-0.075
'[12:03:16.133]',-0.155,-0.045
'[12:03:16.141]',-0.175,-0.055
'[12:03:16.148]',-0.155,-0.065
'[12:03:16.156]',-0.165,-0.055
'[12:03:16.164]',-0.165,-0.035
'[12:03:16.172]',-0.155,-0.085
'[12:03:16.180]',-0.145,0.025
'[12:03:16.188]',-0.175,-0.075
'[12:03:16.195]',-0.135,-0.115
'[12:03:16.203]',-0.185,-0.095
'[12:03:16.211]',-0.205,-0.075
'[12:03:16.219]',-0.155,-0.025
'[12:03:16.227]',-0.165,-0.075
'[12:03:16.234]',-0.165,-0.085
'[12:03:16.242]',-0.165,-0.045
'[12:03:16.250]',-0.165,-0.035
'[12:03:16.258]',-0.165,-0.035
'[12:03:16.266]',-0.185,-0.075
'[12:03:16.273]',-0.165,-0.045
'[12:03:16.281]',-0.145,-0.125
'[12:03:16.289]',-0.145,-0.075
'[12:03:16.297]',-0.165,-0.075
'[12:03:16.305]',-0.185,0.025
'[12:03:16.313]',-0.155,-0.085
'[12:03:16.320]',-0.165,-0.095
'[12:03:16.328]',-0.185,-0.015
'[12:03:16.336]',-0.155,-0.075
'[12:03:16.344]',-0.145,-0.115
'[12:03:16.352]',-0.165,-0.115
'[12:03:16.359]',-0.155,0.025
'[12:03:16.367]',-0.155,-0.095
'[12:03:16.375]',-0.155,-0.115
'[12:03:16.383]',-0.115,-0.065
'[12:03:16.391]',-0.195,-0.065
'[12:03:16.398]',-0.105,-0.055
'[12:03:16.406]',-0.095,0.015
'[12:03:16.414]',-0.075,0.095
'[12:03:16.422]',-0.055,-0.015
'[12:03:16.430]',0.055,0.035
'[12:03:16.438]',0.085,0.015
'[12:03:16.445]',0.015,-0.065
'[12:03:16.453]',0.005,-0.095
'[12:03:16.461]',-0.035,-0.065
'[12:03:16.469]',-0.085,-0.065
'[12:03:16.477]',-0.155,-0.085
'[12:03:16.484]',-0.185,-0.055
'[12:03:16.492]',-0.135,-0.005
'[12:03:16.500]',-0.155,-0.125
'[12:03:16.508]',-0.125,-0.175
'[12:03:16.516]',-0.085,-0.145
'[12:03:16.523]',-0.045,0.035
'[12:03:16.531]',-0.045,-0.025
'[12:03:16.539]',0.465,-0.235
'[12:03:16.547]',1.115,-0.305
'[12:03:16.555]',0.975,-0.605
'[12:03:16.563]',-0.225,-0.795
'[12:03:16.570]',-0.755,-0.505
'[12:03:16.578]',-0.535,-0.095
'[12:03:16.586]',-0.205,-0.145
'[12:03:16.594]',-0.125,-0.135
'[12:03:16.602]',-0.115,-0.045
'[12:03:16.609]',-0.125,-0.085
'[12:03:16.617]',-0.135,-0.095
'[12:03:16.625]',-0.105,-0.095
'[12:03:16.633]',-0.095,-0.085
'[12:03:16.641]',-0.115,-0.085
'[12:03:16.648]',-0.105,-0.055
'[12:03:16.656]',-0.125,-0.035
'[12:03:16.664]',-0.105,-0.065
'[12:03:16.672]',-0.095,-0.035
'[12:03:16.680]',-0.085,-0.075
'[12:03:16.688]',-0.085,-0.065
'[12:03:16.695]',-0.055,-0.055
'[12:03:16.703]',-0.045,-0.045
'[12:03:16.711]',-0.065,-0.075
'[12:03:16.719]',-0.055,-0.055
'[12:03:16.727]',-0.025,-0.035
'[12:03:16.734]',0.015,-0.055
'[12:03:16.742]',-0.015,-0.035
'[12:03:16.750]',-0.005,-0.035
'[12:03:16.758]',0.055,0.025
'[12:03:16.766]',0.045,-0.085
'[12:03:16.773]',0.055,-0.035
'[12:03:16.781]',0.105,-0.035
'[12:03:16.789]',0.085,-0.045
'[12:03:16.797]',0.125,0.035
'[12:03:16.805]',0.185,-0.075
'[12:03:16.813]',0.195,-0.095
'[12:03:16.820]',0.225,-0.045
'[12:03:16.828]',0.225,-0.085
'[12:03:16.836]',0.265,-0.065
'[12:03:16.844]',0.275,-0.075
'[12:03:16.852]',0.245,-0.065
'[12:03:16.859]',0.245,-0.045
'[12:03:16.867]',0.185,-0.025
'[12:03:16.875]',0.145,-0.095
'[12:03:16.883]',0.085,-0.015
'[12:03:16.891]',-0.035,-0.045
'[12:03:16.898]',-0.025,-0.015
'[12:03:16.906]',-0.065,-0.075
'[12:03:16.914]',-0.095,-0.075
'[12:03:16.922]',-0.125,-0.045
'[12:03:16.930]',-0.135,-0.035
'[12:03:16.938]',-0.135,-0.035
'[12:03:16.945]',-0.145,-0.025
'[12:03:16.953]',-0.175,-0.065
'[12:03:16.961]',-0.145,-0.035
'[12:03:16.969]',-0.145,-0.025
'[12:03:16.977]',-0.165,-0.035
'[12:03:16.984]',-0.145,-0.065
'[12:03:16.992]',-0.135,-0.025
'[12:03:17.000]',-0.135,-0.045
'[12:03:17.008]',-0.125,-0.015
'[12:03:17.016]',-0.135,-0.035
'[12:03:17.023]',-0.135,-0.045
'[12:03:17.031]',-0.125,-0.045
'[12:03:17.039]',-0.135,-0.005
'[12:03:17.047]',-0.135,0.015
'[12:03:17.055]',-0.135,-0.055
'[12:03:17.063]',-0.095,-0.065
'[12:03:17.070]',-0.105,-0.055
'[12:03:17.078]',-0.145,-0.055
'[12:03:17.086]',-0.125,-0.025
'[12:03:17.094]',-0.135,-0.025
'[12:03:17.102]',-0.145,-0.005
'[12:03:17.109]',-0.165,0.125
'[12:03:17.117]',-0.135,-0.095
'[12:03:17.125]',-0.125,-0.075
'[12:03:17.133]',-0.085,-0.075
'[12:03:17.141]',-0.175,-0.025
'[12:03:17.148]',-0.135,-0.025
'[12:03:17.156]',-0.155,-0.065
'[12:03:17.164]',-0.145,0.005
'[12:03:17.172]',-0.145,-0.005
'[12:03:17.180]',-0.125,-0.125
'[12:03:17.188]',-0.115,-0.135
'[12:03:17.195]',-0.135,-0.035
'[12:03:17.203]',-0.175,-0.055
'[12:03:17.211]',-0.165,0.075
'[12:03:17.219]',-0.135,-0.105
'[12:03:17.227]',-0.125,-0.015
'[12:03:17.234]',-0.125,-0.095
'[12:03:17.242]',-0.085,-0.175
'[12:03:17.250]',-0.115,-0.055
'[12:03:17.258]',-0.145,-0.005
'[12:03:17.266]',-0.145,-0.055
'[12:03:17.273]',-0.125,-0.095
'[12:03:17.281]',-0.135,-0.015
'[12:03:17.289]',-0.115,-0.005
'[12:03:17.297]',-0.105,-0.125
'[12:03:17.305]',-0.135,-0.025
'[12:03:17.313]',-0.085,-0.035
'[12:03:17.320]',-0.095,-0.145
'[12:03:17.328]',-0.145,-0.015
'[12:03:17.336]',-0.135,-0.075
'[12:03:17.344]',-0.105,-0.105
'[12:03:17.352]',-0.085,-0.075
'[12:03:17.359]',-0.105,-0.055
'[12:03:17.367]',-0.135,0.065
'[12:03:17.375]',-0.095,-0.065
'[12:03:17.383]',-0.065,-0.165
'[12:03:17.391]',-0.065,0.005
'[12:03:17.398]',-0.005,0.035
'[12:03:17.406]',-0.015,-0.015
'[12:03:17.414]',0.035,0.125
'[12:03:17.422]',0.085,0.085
'[12:03:17.430]',0.075,-0.125
'[12:03:17.438]',0.035,-0.155
'[12:03:17.445]',-0.015,-0.005
'[12:03:17.453]',-0.085,-0.115
'[12:03:17.461]',-0.085,-0.095
'[12:03:17.469]',-0.125,-0.155
'[12:03:17.477]',-0.145,-0.105
'[12:03:17.484]',-0.115,-0.085
'[12:03:17.492]',-0.155,-0.075
'[12:03:17.500]',-0.095,0.075
'[12:03:17.508]',-0.075,-0.105
'[12:03:17.516]',-0.065,0.085
'[12:03:17.523]',0.335,-0.195
'[12:03:17.531]',0.955,-0.365
'[12:03:17.539]',1.195,-0.535
'[12:03:17.547]',-0.015,-0.805
'[12:03:17.555]',-0.715,-0.565
'[12:03:17.563]',-0.585,-0.195
'[12:03:17.570]',-0.255,-0.105
'[12:03:17.578]',-0.165,-0.015
'[12:03:17.586]',-0.075,-0.015
'[12:03:17.594]',-0.095,-0.215
'[12:03:17.602]',-0.115,-0.135
'[12:03:17.609]',-0.085,-0.105
'[12:03:17.617]',-0.095,-0.095
'[12:03:17.625]',-0.095,-0.085
'[12:03:17.633]',-0.105,-0.055
'[12:03:17.641]',-0.115,-0.035
'[12:03:17.648]',-0.115,-0.045
'[12:03:17.656]',-0.075,-0.085
'[12:03:17.664]',-0.095,-0.005
'[12:03:17.672]',-0.055,0.045
'[12:03:17.680]',-0.025,-0.195
'[12:03:17.688]',-0.045,-0.105
'[12:03:17.695]',-0.025,-0.065
'[12:03:17.703]',-0.035,-0.095
'[12:03:17.711]',-0.015,-0.085
'[12:03:17.719]',0.005,0.025
'[12:03:17.727]',0.025,-0.075
'[12:03:17.734]',0.015,-0.015
'[12:03:17.742]',0.065,-0.075
'[12:03:17.750]',0.065,-0.055
'[12:03:17.758]',0.115,-0.055
'[12:03:17.766]',0.105,-0.185
'[12:03:17.773]',0.145,-0.105
'[12:03:17.781]',0.185,-0.065
'[12:03:17.789]',0.205,-0.085
'[12:03:17.797]',0.235,-0.085
'[12:03:17.805]',0.245,-0.085
'[12:03:17.813]',0.285,-0.065
'[12:03:17.820]',0.275,-0.055
'[12:03:17.828]',0.285,-0.085
'[12:03:17.836]',0.305,-0.145
'[12:03:17.844]',0.255,-0.065
'[12:03:17.852]',0.235,-0.035
'[12:03:17.859]',0.205,-0.045
'[12:03:17.867]',0.145,-0.115
'[12:03:17.875]',0.095,-0.055
'[12:03:17.883]',0.015,-0.025
'[12:03:17.891]',-0.065,0.015
'[12:03:17.898]',-0.055,0.005
'[12:03:17.906]',-0.045,0.015
'[12:03:17.914]',-0.045,-0.075
'[12:03:17.922]',-0.075,-0.075
'[12:03:17.930]',-0.085,-0.035
'[12:03:17.938]',-0.095,0.035
'[12:03:17.945]',-0.085,-0.045
'[12:03:17.953]',-0.115,-0.075
'[12:03:17.961]',-0.145,0.125
'[12:03:17.969]',-0.065,-0.085
'[12:03:17.977]',-0.055,-0.135
'[12:03:17.984]',-0.075,-0.055
'[12:03:17.992]',-0.105,0.035
'[12:03:18.000]',-0.065,0.005
'[12:03:18.008]',-0.045,-0.115
'[12:03:18.016]',-0.065,-0.065
'[12:03:18.023]',-0.085,-0.005
'[12:03:18.031]',-0.075,0.015
'[12:03:18.039]',-0.085,0.045
'[12:03:18.047]',-0.045,-0.105
'[12:03:18.055]',-0.025,-0.135
'[12:03:18.063]',0.065,-0.045
'[12:03:18.070]',-0.015,-0.085
'[12:03:18.078]',-0.155,-0.015
'[12:03:18.086]',-0.155,-0.055
'[12:03:18.094]',-0.115,-0.005
'[12:03:18.102]',-0.105,-0.045
'[12:03:18.109]',-0.135,-0.065
'[12:03:18.117]',-0.105,-0.015
'[12:03:18.125]',-0.095,-0.065
'[12:03:18.133]',-0.125,-0.045
'[12:03:18.141]',-0.095,-0.025
'[12:03:18.148]',-0.095,-0.135
'[12:03:18.156]',-0.125,-0.095
'[12:03:18.164]',-0.065,-0.065
'[12:03:18.172]',-0.055,-0.075
'[12:03:18.180]',-0.065,0.035
'[12:03:18.188]',-0.145,-0.105
'[12:03:18.195]',0.015,-0.005
'[12:03:18.203]',-0.165,-0.165
'[12:03:18.211]',-0.145,-0.065
'[12:03:18.219]',-0.115,-0.085
'[12:03:18.227]',-0.075,-0.105
'[12:03:18.234]',-0.105,-0.105
'[12:03:18.242]',-0.145,-0.075
'[12:03:18.250]',-0.065,0.045
'[12:03:18.258]',-0.105,-0.175
'[12:03:18.266]',-0.085,-0.095
'[12:03:18.273]',-0.115,-0.065
'[12:03:18.281]',-0.105,-0.125
'[12:03:18.289]',-0.135,-0.105
'[12:03:18.297]',-0.085,-0.025
'[12:03:18.305]',-0.105,-0.145
'[12:03:18.313]',-0.035,-0.065
'[12:03:18.320]',-0.095,0.005
'[12:03:18.328]',-0.105,-0.165
'[12:03:18.336]',-0.105,-0.095
'[12:03:18.344]',-0.125,-0.015
'[12:03:18.352]',-0.055,-0.135
'[12:03:18.359]',-0.085,-0.155
'[12:03:18.367]',-0.115,-0.105
'[12:03:18.375]',-0.005,-0.025
'[12:03:18.383]',-0.025,0.015
'[12:03:18.391]',-0.065,0.175
'[12:03:18.398]',0.015,0.005
'[12:03:18.406]',0.045,-0.035
'[12:03:18.414]',0.085,-0.035
'[12:03:18.422]',0.175,-0.065
'[12:03:18.430]',0.085,-0.145
'[12:03:18.438]',-0.075,-0.155
'[12:03:18.445]',-0.105,-0.065
'[12:03:18.453]',-0.075,-0.115
'[12:03:18.461]',-0.225,-0.085
'[12:03:18.469]',-0.115,0.015
'[12:03:18.477]',-0.045,-0.085
'[12:03:18.484]',-0.105,-0.175
'[12:03:18.492]',0.025,-0.175
'[12:03:18.500]',-0.095,0.095
'[12:03:18.508]',0.145,-0.135
'[12:03:18.516]',0.815,-0.315
'[12:03:18.523]',1.295,-0.375
'[12:03:18.531]',0.225,-0.485
'[12:03:18.539]',-0.715,-0.415
'[12:03:18.547]',-0.305,-0.345
'[12:03:18.555]',-0.405,-0.335
'[12:03:18.563]',-0.145,-0.185
'[12:03:18.570]',0.005,-0.165
'[12:03:18.578]',-0.135,-0.275
'[12:03:18.586]',-0.175,-0.105
'[12:03:18.594]',-0.095,-0.045
'[12:03:18.602]',-0.055,-0.065
'[12:03:18.609]',-0.115,-0.105
'[12:03:18.617]',-0.165,-0.115
'[12:03:18.625]',-0.155,-0.055
'[12:03:18.633]',-0.065,-0.065
'[12:03:18.641]',-0.075,-0.205
'[12:03:18.648]',0.085,-0.145
'[12:03:18.656]',-0.175,-0.145
'[12:03:18.664]',-0.105,-0.045
'[12:03:18.672]',-0.105,-0.035
'[12:03:18.680]',-0.055,0.025
'[12:03:18.688]',-0.045,-0.035
'[12:03:18.695]',-0.015,-0.185
'[12:03:18.703]',-0.045,-0.115
'[12:03:18.711]',0.005,-0.115
'[12:03:18.719]',-0.005,-0.115
'[12:03:18.727]',0.005,-0.095
'[12:03:18.734]',0.035,-0.085
'[12:03:18.742]',0.035,-0.055
'[12:03:18.750]',0.045,-0.065
'[12:03:18.758]',0.055,-0.095
'[12:03:18.766]',0.085,-0.025
'[12:03:18.773]',0.125,-0.105
'[12:03:18.781]',0.125,-0.025
'[12:03:18.789]',0.145,-0.225
'[12:03:18.797]',0.195,-0.145
'[12:03:18.805]',0.225,-0.165
'[12:03:18.813]',0.195,-0.165
'[12:03:18.820]',0.165,-0.115
'[12:03:18.828]',0.135,-0.085
'[12:03:18.836]',0.105,-0.035
'[12:03:18.844]',0.075,0.045
'[12:03:18.852]',0.025,-0.025
'[12:03:18.859]',-0.005,0.045
'[12:03:18.867]',-0.055,-0.125
'[12:03:18.875]',-0.095,-0.055
'[12:03:18.883]',-0.105,-0.055
'[12:03:18.891]',-0.145,-0.035
'[12:03:18.898]',-0.155,-0.025
'[12:03:18.906]',-0.165,0.035
'[12:03:18.914]',-0.155,0.085
'[12:03:18.922]',-0.155,0.035
'[12:03:18.930]',-0.135,-0.045
'[12:03:18.938]',-0.125,-0.125
'[12:03:18.945]',-0.125,-0.055
'[12:03:18.953]',-0.155,-0.025
'[12:03:18.961]',-0.135,-0.005
'[12:03:18.969]',-0.135,0.005
'[12:03:18.977]',-0.155,0.005
'[12:03:18.984]',-0.145,0.045
'[12:03:18.992]',-0.125,0.105
'[12:03:19.000]',-0.105,-0.095
'[12:03:19.008]',-0.135,-0.025
'[12:03:19.016]',-0.135,-0.045
'[12:03:19.023]',-0.135,-0.005
'[12:03:19.031]',-0.115,-0.035
'[12:03:19.039]',-0.135,-0.025
'[12:03:19.047]',-0.135,-0.045
'[12:03:19.055]',-0.165,0.045
'[12:03:19.063]',-0.155,0.115
'[12:03:19.070]',-0.125,-0.125
'[12:03:19.078]',-0.175,-0.085
'[12:03:19.086]',-0.155,-0.005
'[12:03:19.094]',-0.155,0.125
'[12:03:19.102]',-0.125,-0.105
'[12:03:19.109]',-0.115,-0.105
'[12:03:19.117]',-0.135,-0.045
'[12:03:19.125]',-0.135,-0.015
'[12:03:19.133]',-0.155,0.025
'[12:03:19.141]',-0.155,0.025
'[12:03:19.148]',-0.175,0.045
'[12:03:19.156]',-0.135,0.015
'[12:03:19.164]',-0.115,-0.065
'[12:03:19.172]',-0.115,-0.095
'[12:03:19.180]',-0.115,-0.075
'[12:03:19.188]',-0.155,-0.005
'[12:03:19.195]',-0.125,-0.035
'[12:03:19.203]',-0.145,-0.065
'[12:03:19.211]',-0.115,-0.035
'[12:03:19.219]',-0.145,0.045
'[12:03:19.227]',-0.145,0.075
'[12:03:19.234]',-0.105,-0.015
'[12:03:19.242]',-0.105,-0.145
'[12:03:19.250]',-0.115,-0.055
'[12:03:19.258]',-0.105,-0.025
'[12:03:19.266]',-0.145,-0.025
'[12:03:19.273]',-0.115,0.005
'[12:03:19.281]',-0.095,-0.015
'[12:03:19.289]',-0.095,-0.025
'[12:03:19.297]',-0.065,0.075
'[12:03:19.305]',-0.035,0.135
'[12:03:19.313]',-0.005,-0.065
'[12:03:19.320]',0.035,0.005
'[12:03:19.328]',0.045,0.085
'[12:03:19.336]',0.065,0.075
'[12:03:19.344]',0.055,0.035
'[12:03:19.352]',0.045,-0.095
'[12:03:19.359]',-0.005,-0.125
'[12:03:19.367]',-0.055,-0.045
'[12:03:19.375]',-0.105,-0.025
'[12:03:19.383]',-0.095,-0.025
'[12:03:19.391]',-0.095,-0.075
'[12:03:19.398]',-0.085,-0.055
'[12:03:19.406]',-0.075,-0.055
'[12:03:19.414]',-0.035,0.075
'[12:03:19.422]',-0.005,0.085
'[12:03:19.430]',0.285,-0.175
'[12:03:19.438]',0.825,-0.265
'[12:03:19.445]',1.205,-0.285
'[12:03:19.453]',0.295,-0.465
'[12:03:19.461]',-0.455,-0.365
'[12:03:19.469]',-0.555,-0.145
'[12:03:19.477]',-0.345,-0.025
'[12:03:19.484]',-0.155,-0.095
'[12:03:19.492]',-0.065,-0.025
'[12:03:19.500]',-0.075,-0.105
'[12:03:19.508]',-0.105,0.085
'[12:03:19.516]',-0.105,-0.045
'[12:03:19.523]',-0.085,-0.115
'[12:03:19.531]',-0.075,-0.045
'[12:03:19.539]',-0.075,-0.075
'[12:03:19.547]',-0.065,-0.075
'[12:03:19.555]',-0.065,-0.055
'[12:03:19.563]',-0.065,-0.015
'[12:03:19.570]',-0.055,-0.025
'[12:03:19.578]',-0.085,0.005
'[12:03:19.586]',-0.055,0.025
'[12:03:19.594]',-0.025,-0.055
'[12:03:19.602]',-0.025,-0.105
'[12:03:19.609]',-0.025,-0.035
'[12:03:19.617]',0.015,-0.065
'[12:03:19.625]',0.015,-0.055
'[12:03:19.633]',0.015,-0.005
'[12:03:19.641]',-0.005,0.045
'[12:03:19.648]',0.045,-0.055
'[12:03:19.656]',0.055,-0.115
'[12:03:19.664]',0.075,-0.015
'[12:03:19.672]',0.085,-0.045
'[12:03:19.680]',0.125,-0.075
'[12:03:19.688]',0.145,-0.105
'[12:03:19.695]',0.175,-0.075
'[12:03:19.703]',0.175,-0.105
'[12:03:19.711]',0.185,-0.065
'[12:03:19.719]',0.225,-0.085
'[12:03:19.727]',0.245,-0.105
'[12:03:19.734]',0.255,-0.125
'[12:03:19.742]',0.245,-0.095
'[12:03:19.750]',0.235,-0.085
'[12:03:19.758]',0.215,-0.085
'[12:03:19.766]',0.145,0.045
'[12:03:19.773]',0.115,-0.105
'[12:03:19.781]',0.065,-0.055
'[12:03:19.789]',0.005,0.055
'[12:03:19.797]',-0.015,0.045
'[12:03:19.805]',-0.035,-0.035
'[12:03:19.813]',-0.035,-0.015
'[12:03:19.820]',-0.065,0.055
'[12:03:19.828]',-0.075,-0.025
'[12:03:19.836]',-0.075,0.025
'[12:03:19.844]',-0.075,0.035
'[12:03:19.852]',-0.075,0.025
'[12:03:19.859]',-0.065,-0.045
'[12:03:19.867]',-0.065,0.035
'[12:03:19.875]',-0.075,0.055
'[12:03:19.883]',-0.055,-0.035
'[12:03:19.891]',-0.065,-0.025
'[12:03:19.898]',-0.045,-0.035
'[12:03:19.906]',-0.055,0.025
'[12:03:19.914]',-0.065,0.065
'[12:03:19.922]',-0.045,-0.025
'[12:03:19.930]',-0.055,-0.005
'[12:03:19.938]',-0.075,0.015
'[12:03:19.945]',-0.055,0.055
'[12:03:19.953]',-0.065,-0.085
'[12:03:19.961]',-0.065,0.005
'[12:03:19.969]',-0.065,-0.025
'[12:03:19.977]',-0.065,-0.035
'[12:03:19.984]',-0.065,-0.045
'[12:03:19.992]',-0.075,-0.015
'[12:03:20.000]',-0.085,-0.015
'[12:03:20.008]',-0.095,0.015
'[12:03:20.016]',-0.095,0.015
'[12:03:20.023]',-0.065,0.015
'[12:03:20.031]',-0.075,-0.015
'[12:03:20.039]',-0.085,-0.025
'[12:03:20.047]',-0.085,-0.005
'[12:03:20.055]',-0.085,-0.015
'[12:03:20.063]',-0.085,-0.065
'[12:03:20.070]',-0.085,-0.035
'[12:03:20.078]',-0.105,-0.035
'[12:03:20.086]',-0.095,-0.015
'[12:03:20.094]',-0.095,0.005
'[12:03:20.102]',-0.085,0.005
'[12:03:20.109]',-0.095,-0.025
'[12:03:20.117]',-0.095,-0.065
'[12:03:20.125]',-0.085,-0.005
'[12:03:20.133]',-0.095,-0.035
'[12:03:20.141]',-0.105,-0.005
'[12:03:20.148]',-0.075,-0.095
'[12:03:20.156]',-0.085,-0.045
'[12:03:20.164]',-0.105,0.005
'[12:03:20.172]',-0.075,-0.005
'[12:03:20.180]',-0.085,-0.045
'[12:03:20.188]',-0.095,0.045
'[12:03:20.195]',-0.065,-0.005
'[12:03:20.203]',-0.085,-0.115
'[12:03:20.211]',-0.085,-0.055
'[12:03:20.219]',-0.065,0.005
'[12:03:20.227]',-0.055,-0.005
'[12:03:20.234]',-0.025,-0.055
'[12:03:20.242]',0.015,0.035
'[12:03:20.250]',0.005,0.045
'[12:03:20.258]',0.045,0.045
'[12:03:20.266]',0.065,0.105
'[12:03:20.273]',0.075,0.085
'[12:03:20.281]',0.095,0.005
'[12:03:20.289]',0.045,-0.105
'[12:03:20.297]',-0.025,0.005
'[12:03:20.305]',-0.045,-0.065
'[12:03:20.313]',-0.085,-0.135
'[12:03:20.320]',-0.095,-0.085
'[12:03:20.328]',-0.105,-0.115
'[12:03:20.336]',-0.095,-0.095
'[12:03:20.344]',-0.065,-0.065
'[12:03:20.352]',-0.025,0.005
'[12:03:20.359]',-0.025,0.075
'[12:03:20.367]',0.175,0.005
'[12:03:20.375]',0.755,-0.255
'[12:03:20.383]',1.275,-0.335
'[12:03:20.391]',0.485,-0.495
'[12:03:20.398]',-0.555,-0.525
'[12:03:20.406]',-0.605,-0.185
'[12:03:20.414]',-0.345,-0.105
'[12:03:20.422]',-0.095,-0.205
'[12:03:20.430]',-0.085,-0.075
'[12:03:20.438]',-0.095,0.005
'[12:03:20.445]',-0.095,-0.045
'[12:03:20.453]',-0.095,-0.055
'[12:03:20.461]',-0.095,-0.085
'[12:03:20.469]',-0.095,0.005
'[12:03:20.477]',-0.075,-0.095
'[12:03:20.484]',-0.085,-0.015
'[12:03:20.492]',-0.065,-0.065
'[12:03:20.500]',-0.075,-0.075
'[12:03:20.508]',-0.085,-0.025
'[12:03:20.516]',-0.075,-0.035
'[12:03:20.523]',-0.045,-0.055
'[12:03:20.531]',-0.035,-0.075
'[12:03:20.539]',-0.045,-0.015
'[12:03:20.547]',-0.005,-0.075
'[12:03:20.555]',-0.005,-0.075
'[12:03:20.563]',0.005,-0.055
'[12:03:20.570]',-0.015,0.005
'[12:03:20.578]',-0.005,0.005
'[12:03:20.586]',0.035,-0.075
'[12:03:20.594]',0.055,-0.075
'[12:03:20.602]',0.065,-0.095
'[12:03:20.609]',0.095,-0.075
'[12:03:20.617]',0.105,-0.085
'[12:03:20.625]',0.145,-0.055
'[12:03:20.633]',0.175,-0.125
'[12:03:20.641]',0.175,-0.135
'[12:03:20.648]',0.205,-0.105
'[12:03:20.656]',0.225,-0.095
'[12:03:20.664]',0.225,-0.075
'[12:03:20.672]',0.245,-0.095
'[12:03:20.680]',0.235,0.035
'[12:03:20.688]',0.245,-0.105
'[12:03:20.695]',0.215,-0.125
'[12:03:20.703]',0.165,-0.145
'[12:03:20.711]',0.115,-0.135
'[12:03:20.719]',0.055,-0.045
'[12:03:20.727]',-0.005,-0.055
'[12:03:20.734]',-0.055,-0.025
'[12:03:20.742]',-0.095,-0.045
'[12:03:20.750]',-0.105,-0.025
'[12:03:20.758]',-0.135,-0.005
'[12:03:20.766]',-0.155,0.055
'[12:03:20.773]',-0.115,-0.115
'[12:03:20.781]',-0.135,-0.035
'[12:03:20.789]',-0.125,-0.045
'[12:03:20.797]',-0.135,-0.115
'[12:03:20.805]',-0.125,-0.095
'[12:03:20.813]',-0.125,-0.065
'[12:03:20.820]',-0.135,-0.045
'[12:03:20.828]',-0.165,-0.015
'[12:03:20.836]',-0.125,-0.045
'[12:03:20.844]',-0.115,-0.035
'[12:03:20.852]',-0.125,-0.035
'[12:03:20.859]',-0.115,-0.035
'[12:03:20.867]',-0.105,-0.065
'[12:03:20.875]',-0.115,-0.065
'[12:03:20.883]',-0.105,-0.085
'[12:03:20.891]',-0.145,-0.085
'[12:03:20.898]',-0.115,-0.035
'[12:03:20.906]',-0.125,-0.035
'[12:03:20.914]',-0.115,-0.075
'[12:03:20.922]',-0.125,-0.105
'[12:03:20.930]',-0.125,-0.085
'[12:03:20.938]',-0.145,-0.055
'[12:03:20.945]',-0.145,0.035
'[12:03:20.953]',-0.155,-0.065
'[12:03:20.961]',-0.135,-0.085
'[12:03:20.969]',-0.145,-0.105
'[12:03:20.977]',-0.155,-0.035
'[12:03:20.984]',-0.135,-0.105
'[12:03:20.992]',-0.145,-0.105
'[12:03:21.000]',-0.145,-0.065
'[12:03:21.008]',-0.135,-0.105
'[12:03:21.016]',-0.155,-0.045
'[12:03:21.023]',-0.165,-0.075
'[12:03:21.031]',-0.155,0.025
'[12:03:21.039]',-0.125,-0.105
'[12:03:21.047]',-0.135,-0.105
'[12:03:21.055]',-0.145,-0.045
'[12:03:21.063]',-0.135,-0.115
'[12:03:21.070]',-0.135,-0.075
'[12:03:21.078]',-0.165,-0.075
'[12:03:21.086]',-0.135,-0.085
'[12:03:21.094]',-0.135,-0.075
'[12:03:21.102]',-0.145,-0.095
'[12:03:21.109]',-0.145,-0.015
'[12:03:21.117]',-0.145,-0.065
'[12:03:21.125]',-0.135,-0.135
'[12:03:21.133]',-0.135,-0.025
'[12:03:21.141]',-0.155,-0.135
'[12:03:21.148]',-0.135,0.015
'[12:03:21.156]',-0.135,-0.155
'[12:03:21.164]',-0.135,-0.035
'[12:03:21.172]',-0.115,-0.075
'[12:03:21.180]',-0.105,-0.075
'[12:03:21.188]',-0.055,-0.055
'[12:03:21.195]',-0.075,0.025
'[12:03:21.203]',-0.055,0.015
'[12:03:21.211]',0.025,0.035
'[12:03:21.219]',0.055,0.055
'[12:03:21.227]',0.025,-0.085
'[12:03:21.234]',0.025,-0.135
'[12:03:21.242]',-0.035,-0.095
'[12:03:21.250]',-0.085,-0.095
'[12:03:21.258]',-0.125,-0.075
'[12:03:21.266]',-0.155,-0.155
'[12:03:21.273]',-0.145,-0.135
'[12:03:21.281]',-0.155,-0.105
'[12:03:21.289]',-0.155,-0.015
'[12:03:21.297]',-0.105,-0.015
'[12:03:21.305]',-0.045,-0.145
'[12:03:21.313]',-0.075,-0.015
'[12:03:21.320]',0.365,-0.265
'[12:03:21.328]',0.975,-0.325
'[12:03:21.336]',0.905,-0.445
'[12:03:21.344]',-0.215,-0.575
'[12:03:21.352]',-0.715,-0.415
'[12:03:21.359]',-0.505,-0.205
'[12:03:21.367]',-0.245,-0.135
'[12:03:21.375]',-0.135,-0.025
'[12:03:21.383]',-0.155,-0.045
'[12:03:21.391]',-0.135,-0.115
'[12:03:21.398]',-0.135,-0.205
'[12:03:21.406]',-0.125,-0.105
'[12:03:21.414]',-0.145,-0.115
'[12:03:21.422]',-0.125,-0.105
'[12:03:21.430]',-0.125,-0.085
'[12:03:21.438]',-0.125,-0.105
'[12:03:21.445]',-0.105,-0.105
'[12:03:21.453]',-0.135,-0.085
'[12:03:21.461]',-0.115,-0.055
'[12:03:21.469]',-0.105,0.005
'[12:03:21.477]',-0.105,-0.035
'[12:03:21.484]',-0.055,-0.145
'[12:03:21.492]',-0.055,-0.125
'[12:03:21.500]',-0.055,-0.105
'[12:03:21.508]',-0.045,-0.085
'[12:03:21.516]',-0.045,-0.095
'[12:03:21.523]',-0.025,-0.115
'[12:03:21.531]',-0.005,0.025
'[12:03:21.539]',0.005,-0.095
'[12:03:21.547]',0.025,-0.105
'[12:03:21.555]',0.045,-0.145
'[12:03:21.563]',0.065,-0.115
'[12:03:21.570]',0.105,-0.135
'[12:03:21.578]',0.095,-0.105
'[12:03:21.586]',0.125,-0.075
'[12:03:21.594]',0.175,-0.135
'[12:03:21.602]',0.185,-0.165
'[12:03:21.609]',0.205,-0.105
'[12:03:21.617]',0.205,-0.135
'[12:03:21.625]',0.215,-0.105
'[12:03:21.633]',0.215,-0.065
'[12:03:21.641]',0.175,-0.155
'[12:03:21.648]',0.175,-0.135
'[12:03:21.656]',0.115,-0.125
'[12:03:21.664]',0.035,-0.105
'[12:03:21.672]',0.005,-0.075
'[12:03:21.680]',-0.055,-0.065
'[12:03:21.688]',-0.095,-0.055
'[12:03:21.695]',-0.125,-0.025
'[12:03:21.703]',-0.165,-0.065
'[12:03:21.711]',-0.155,-0.015
'[12:03:21.719]',-0.155,0.015
'[12:03:21.727]',-0.155,-0.125
'[12:03:21.734]',-0.165,-0.095
'[12:03:21.742]',-0.155,-0.065
'[12:03:21.750]',-0.155,-0.085
'[12:03:21.758]',-0.155,-0.065
'[12:03:21.766]',-0.175,-0.065
'[12:03:21.773]',-0.145,-0.025
'[12:03:21.781]',-0.135,-0.095
'[12:03:21.789]',-0.135,-0.045
'[12:03:21.797]',-0.125,-0.035
'[12:03:21.805]',-0.145,-0.045
'[12:03:21.813]',-0.125,0.015
'[12:03:21.820]',-0.125,-0.085
'[12:03:21.828]',-0.145,-0.085
'[12:03:21.836]',-0.135,-0.105
'[12:03:21.844]',-0.125,-0.055
'[12:03:21.852]',-0.145,-0.065
'[12:03:21.859]',-0.115,-0.075
'[12:03:21.867]',-0.135,-0.075
'[12:03:21.875]',-0.135,-0.015
'[12:03:21.883]',-0.145,-0.075
'[12:03:21.891]',-0.175,-0.075
'[12:03:21.898]',-0.155,0.015
'[12:03:21.906]',-0.145,-0.055
'[12:03:21.914]',-0.145,-0.105
'[12:03:21.922]',-0.145,-0.135
'[12:03:21.930]',-0.145,-0.115
'[12:03:21.938]',-0.165,-0.075
'[12:03:21.945]',-0.155,-0.065
'[12:03:21.953]',-0.165,-0.045
'[12:03:21.961]',-0.165,-0.015
'[12:03:21.969]',-0.135,-0.035
'[12:03:21.977]',-0.155,-0.085
'[12:03:21.984]',-0.135,-0.085
'[12:03:21.992]',-0.145,-0.115
'[12:03:22.000]',-0.145,-0.075
'[12:03:22.008]',-0.125,-0.135
'[12:03:22.016]',-0.165,-0.105
'[12:03:22.023]',-0.145,-0.085
'[12:03:22.031]',-0.155,-0.055
'[12:03:22.039]',-0.145,-0.035
'[12:03:22.047]',-0.155,-0.075
'[12:03:22.055]',-0.125,-0.035
'[12:03:22.063]',-0.155,-0.095
'[12:03:22.070]',-0.135,-0.065
'[12:03:22.078]',-0.165,-0.095
'[12:03:22.086]',-0.125,-0.075
'[12:03:22.094]',-0.135,-0.115
'[12:03:22.102]',-0.135,-0.075
'[12:03:22.109]',-0.125,-0.105
'[12:03:22.117]',-0.125,-0.085
'[12:03:22.125]',-0.125,-0.065
'[12:03:22.133]',-0.135,-0.075
'[12:03:22.141]',-0.145,-0.065
'[12:03:22.148]',-0.115,-0.075
'[12:03:22.156]',-0.115,0.005
'[12:03:22.164]',-0.065,-0.005
'[12:03:22.172]',-0.035,-0.075
'[12:03:22.180]',-0.025,-0.025
'[12:03:22.188]',0.005,0.075
'[12:03:22.195]',0.065,0.005
'[12:03:22.203]',0.035,-0.045
'[12:03:22.211]',0.035,-0.105
'[12:03:22.219]',-0.025,-0.055
'[12:03:22.227]',-0.065,-0.065
'[12:03:22.234]',-0.105,-0.115
'[12:03:22.242]',-0.135,-0.105
'[12:03:22.250]',-0.135,-0.095
'[12:03:22.258]',-0.125,-0.035
'[12:03:22.266]',-0.135,-0.145
'[12:03:22.273]',-0.095,-0.125
'[12:03:22.281]',-0.065,-0.005
'[12:03:22.289]',-0.055,0.015
'[12:03:22.297]',0.315,-0.215
'[12:03:22.305]',0.905,-0.285
'[12:03:22.313]',1.065,-0.345
'[12:03:22.320]',-0.095,-0.585
'[12:03:22.328]',-0.725,-0.465
'[12:03:22.336]',-0.505,-0.205
'[12:03:22.344]',-0.245,-0.135
'[12:03:22.352]',-0.125,-0.135
'[12:03:22.359]',-0.105,-0.065
'[12:03:22.367]',-0.105,-0.145
'[12:03:22.375]',-0.125,-0.115
'[12:03:22.383]',-0.115,-0.115
'[12:03:22.391]',-0.135,-0.095
'[12:03:22.398]',-0.135,-0.085
'[12:03:22.406]',-0.115,-0.065
'[12:03:22.414]',-0.105,-0.085
'[12:03:22.422]',-0.115,-0.045
'[12:03:22.430]',-0.115,0.025
'[12:03:22.438]',-0.085,-0.085
'[12:03:22.445]',-0.075,-0.145
'[12:03:22.453]',-0.095,-0.125
'[12:03:22.461]',-0.065,-0.005
'[12:03:22.469]',-0.045,-0.125
'[12:03:22.477]',-0.065,-0.105
'[12:03:22.484]',-0.035,-0.075
'[12:03:22.492]',-0.025,-0.075
'[12:03:22.500]',-0.005,-0.115
'[12:03:22.508]',0.005,-0.095
'[12:03:22.516]',-0.005,-0.085
'[12:03:22.523]',0.025,-0.065
'[12:03:22.531]',0.045,-0.045
'[12:03:22.539]',0.075,-0.085
'[12:03:22.547]',0.095,-0.175
'[12:03:22.555]',0.105,-0.075
'[12:03:22.563]',0.135,-0.055
'[12:03:22.570]',0.175,-0.165
'[12:03:22.578]',0.155,-0.175
'[12:03:22.586]',0.185,-0.125
'[12:03:22.594]',0.215,-0.115
'[12:03:22.602]',0.235,-0.155
'[12:03:22.609]',0.245,-0.135
'[12:03:22.617]',0.225,-0.115
'[12:03:22.625]',0.195,-0.115
'[12:03:22.633]',0.145,-0.085
'[12:03:22.641]',0.025,-0.035
'[12:03:22.648]',0.005,0.025
'[12:03:22.656]',0.005,-0.045
'[12:03:22.664]',-0.045,-0.085
'[12:03:22.672]',-0.065,0.015
'[12:03:22.680]',-0.095,0.035
'[12:03:22.688]',-0.085,-0.025
'[12:03:22.695]',-0.085,-0.075
'[12:03:22.703]',-0.095,-0.065
'[12:03:22.711]',-0.095,-0.035
'[12:03:22.719]',-0.115,0.025
'[12:03:22.727]',-0.085,0.065
'[12:03:22.734]',-0.095,-0.105
'[12:03:22.742]',-0.075,-0.035
'[12:03:22.750]',-0.055,-0.035
'[12:03:22.758]',-0.065,-0.065
'[12:03:22.766]',-0.075,-0.035
'[12:03:22.773]',-0.065,-0.005
'[12:03:22.781]',-0.065,0.045
'[12:03:22.789]',-0.075,-0.065
'[12:03:22.797]',-0.055,0.015
'[12:03:22.805]',-0.065,-0.035
'[12:03:22.813]',-0.065,0.025
'[12:03:22.820]',-0.055,-0.085
'[12:03:22.828]',-0.075,-0.105
'[12:03:22.836]',-0.075,-0.065
'[12:03:22.844]',-0.095,0.015
'[12:03:22.852]',-0.085,-0.055
'[12:03:22.859]',-0.085,-0.065
'[12:03:22.867]',-0.105,0.015
'[12:03:22.875]',-0.115,-0.005
'[12:03:22.883]',-0.085,-0.095
'[12:03:22.891]',-0.125,-0.085
'[12:03:22.898]',-0.115,0.075
'[12:03:22.906]',-0.105,-0.105
'[12:03:22.914]',-0.115,-0.125
'[12:03:22.922]',-0.125,-0.025
'[12:03:22.930]',-0.145,-0.065
'[12:03:22.938]',-0.125,-0.045
'[12:03:22.945]',-0.115,-0.045
'[12:03:22.953]',-0.185,-0.025
'[12:03:22.961]',-0.125,-0.045
'[12:03:22.969]',-0.155,-0.055
'[12:03:22.977]',-0.155,-0.045
'[12:03:22.984]',-0.105,-0.075
'[12:03:22.992]',-0.175,-0.105
'[12:03:23.000]',-0.115,-0.075
'[12:03:23.008]',-0.085,-0.075
'[12:03:23.016]',-0.115,-0.055
'[12:03:23.023]',-0.105,-0.035
'[12:03:23.031]',-0.115,-0.005
'[12:03:23.039]',-0.125,-0.025
'[12:03:23.047]',-0.095,-0.065
'[12:03:23.055]',-0.105,-0.065
'[12:03:23.063]',-0.105,-0.105
'[12:03:23.070]',-0.095,-0.015
'[12:03:23.078]',-0.105,-0.025
'[12:03:23.086]',-0.085,-0.075
'[12:03:23.094]',-0.095,-0.105
'[12:03:23.102]',-0.095,-0.035
'[12:03:23.109]',-0.105,-0.025
'[12:03:23.117]',-0.065,-0.035
'[12:03:23.125]',-0.095,-0.075
'[12:03:23.133]',-0.105,-0.005
'[12:03:23.141]',-0.115,0.095
'[12:03:23.148]',-0.025,-0.085
'[12:03:23.156]',0.005,-0.055
'[12:03:23.164]',0.005,-0.025
'[12:03:23.172]',0.055,0.005
'[12:03:23.180]',0.065,0.035
'[12:03:23.188]',0.105,0.005
'[12:03:23.195]',0.075,-0.035
'[12:03:23.203]',0.015,-0.035
'[12:03:23.211]',-0.025,-0.055
'[12:03:23.219]',-0.075,0.005
'[12:03:23.227]',-0.095,-0.065
'[12:03:23.234]',-0.105,-0.075
'[12:03:23.242]',-0.095,-0.095
'[12:03:23.250]',-0.075,-0.185
'[12:03:23.258]',-0.085,-0.125
'[12:03:23.266]',-0.055,-0.025
'[12:03:23.273]',-0.015,0.045
'[12:03:23.281]',0.125,-0.105
'[12:03:23.289]',0.685,-0.215
'[12:03:23.297]',1.235,-0.295
'[12:03:23.305]',0.415,-0.495
'[12:03:23.313]',-0.595,-0.505
'[12:03:23.320]',-0.595,-0.325
'[12:03:23.328]',-0.345,-0.145
'[12:03:23.336]',-0.125,-0.105
'[12:03:23.344]',-0.115,-0.025
'[12:03:23.352]',-0.125,-0.025
'[12:03:23.359]',-0.135,-0.065
'[12:03:23.367]',-0.125,-0.115
'[12:03:23.375]',-0.135,-0.065
'[12:03:23.383]',-0.135,-0.015
'[12:03:23.391]',-0.145,-0.135
'[12:03:23.398]',-0.145,-0.095
'[12:03:23.406]',-0.115,-0.035
'[12:03:23.414]',-0.135,-0.145
'[12:03:23.422]',-0.125,-0.055
'[12:03:23.430]',-0.155,-0.055
'[12:03:23.438]',-0.125,0.065
'[12:03:23.445]',-0.095,-0.135
'[12:03:23.453]',-0.145,-0.125
'[12:03:23.461]',-0.125,-0.005
'[12:03:23.469]',-0.055,-0.075
'[12:03:23.477]',-0.015,-0.135
'[12:03:23.484]',-0.085,-0.105
'[12:03:23.492]',0.015,-0.035
'[12:03:23.500]',0.015,-0.055
'[12:03:23.508]',0.015,-0.065
'[12:03:23.516]',0.045,-0.105
'[12:03:23.523]',0.065,-0.055
'[12:03:23.531]',0.095,-0.065
'[12:03:23.539]',0.125,-0.055
'[12:03:23.547]',0.095,-0.015
'[12:03:23.555]',0.195,0.035
'[12:03:23.563]',0.235,-0.215
'[12:03:23.570]',0.255,-0.205
'[12:03:23.578]',0.235,-0.155
'[12:03:23.586]',0.255,-0.115
'[12:03:23.594]',0.245,-0.075
'[12:03:23.602]',0.245,-0.075
'[12:03:23.609]',0.225,-0.105
'[12:03:23.617]',0.165,-0.045
'[12:03:23.625]',0.095,-0.025
'[12:03:23.633]',0.035,-0.045
'[12:03:23.641]',-0.035,-0.015
'[12:03:23.648]',-0.075,-0.035
'[12:03:23.656]',-0.085,-0.025
'[12:03:23.664]',-0.125,-0.055
'[12:03:23.672]',-0.135,-0.065
'[12:03:23.680]',-0.135,-0.015
'[12:03:23.688]',-0.165,-0.085
'[12:03:23.695]',-0.155,-0.035
'[12:03:23.703]',-0.175,-0.095
'[12:03:23.711]',-0.175,-0.005
'[12:03:23.719]',-0.155,-0.035
'[12:03:23.727]',-0.165,-0.045
'[12:03:23.734]',-0.145,-0.085
'[12:03:23.742]',-0.135,-0.135
'[12:03:23.750]',-0.145,-0.095
'[12:03:23.758]',-0.155,-0.055
'[12:03:23.766]',-0.155,-0.025
'[12:03:23.773]',-0.145,-0.055
'[12:03:23.781]',-0.165,-0.055
'[12:03:23.789]',-0.165,-0.025
'[12:03:23.797]',-0.145,-0.045
'[12:03:23.805]',-0.155,-0.125
'[12:03:23.813]',-0.155,-0.085
'[12:03:23.820]',-0.145,-0.105
'[12:03:23.828]',-0.175,-0.155
'[12:03:23.836]',-0.165,-0.045
'[12:03:23.844]',-0.155,-0.095
'[12:03:23.852]',-0.185,-0.085
'[12:03:23.859]',-0.185,-0.035
'[12:03:23.867]',-0.165,-0.135
'[12:03:23.875]',-0.185,-0.085
'[12:03:23.883]',-0.175,-0.095
'[12:03:23.891]',-0.185,-0.115
'[12:03:23.898]',-0.175,-0.135
'[12:03:23.906]',-0.185,-0.125
'[12:03:23.914]',-0.195,-0.125
'[12:03:23.922]',-0.175,-0.135
'[12:03:23.930]',-0.195,-0.115
'[12:03:23.938]',-0.185,-0.105
'[12:03:23.945]',-0.195,-0.085
'[12:03:23.953]',-0.205,-0.095
'[12:03:23.961]',-0.185,-0.065
'[12:03:23.969]',-0.175,-0.175
'[12:03:23.977]',-0.185,-0.135
'[12:03:23.984]',-0.205,-0.055
'[12:03:23.992]',-0.185,-0.045
'[12:03:24.000]',-0.175,-0.185
'[12:03:24.008]',-0.195,-0.135
'[12:03:24.016]',-0.225,-0.105
'[12:03:24.023]',-0.175,-0.145
'[12:03:24.031]',-0.185,-0.105
'[12:03:24.039]',-0.185,-0.135
'[12:03:24.047]',-0.185,-0.155
'[12:03:24.055]',-0.205,-0.115
'[12:03:24.063]',-0.195,-0.105
'[12:03:24.070]',-0.175,-0.135
'[12:03:24.078]',-0.215,-0.005
'[12:03:24.086]',-0.185,-0.115
'[12:03:24.094]',-0.175,-0.165
'[12:03:24.102]',-0.195,-0.165
'[12:03:24.109]',-0.185,-0.155
'[12:03:24.117]',-0.165,-0.185
'[12:03:24.125]',-0.185,-0.105
'[12:03:24.133]',-0.165,-0.125
'[12:03:24.141]',-0.155,-0.135
'[12:03:24.148]',-0.145,-0.115
'[12:03:24.156]',-0.085,-0.005
'[12:03:24.164]',-0.075,-0.055
'[12:03:24.172]',-0.035,-0.135
'[12:03:24.180]',0.025,-0.045
'[12:03:24.188]',0.035,-0.055
'[12:03:24.195]',0.015,-0.035
'[12:03:24.203]',-0.025,-0.105
'[12:03:24.211]',-0.035,-0.095
'[12:03:24.219]',-0.075,-0.185
'[12:03:24.227]',-0.115,-0.115
'[12:03:24.234]',-0.125,-0.125
'[12:03:24.242]',-0.115,-0.185
'[12:03:24.250]',-0.115,-0.135
'[12:03:24.258]',-0.115,-0.075
'[12:03:24.266]',-0.095,-0.185
'[12:03:24.273]',-0.015,-0.095
'[12:03:24.281]',0.005,-0.025
'[12:03:24.289]',0.455,-0.225
'[12:03:24.297]',1.105,-0.335
'[12:03:24.305]',0.775,-0.395
'[12:03:24.313]',-0.315,-0.535
'[12:03:24.320]',-0.635,-0.435
'[12:03:24.328]',-0.445,-0.185
'[12:03:24.336]',-0.175,-0.085
'[12:03:24.344]',-0.095,-0.185
'[12:03:24.352]',-0.105,-0.175
'[12:03:24.359]',-0.105,-0.135
'[12:03:24.367]',-0.135,-0.075
'[12:03:24.375]',-0.105,-0.155
'[12:03:24.383]',-0.115,-0.105
'[12:03:24.391]',-0.135,-0.075
'[12:03:24.398]',-0.095,-0.155
'[12:03:24.406]',-0.135,-0.035
'[12:03:24.414]',-0.115,-0.075
'[12:03:24.422]',-0.095,-0.115
'[12:03:24.430]',-0.085,-0.165
'[12:03:24.438]',-0.095,-0.145
'[12:03:24.445]',-0.085,-0.145
'[12:03:24.453]',-0.085,-0.145
'[12:03:24.461]',-0.075,-0.125
'[12:03:24.469]',-0.075,-0.095
'[12:03:24.477]',-0.065,-0.025
'[12:03:24.484]',-0.025,-0.175
'[12:03:24.492]',-0.065,-0.035
'[12:03:24.500]',-0.015,-0.105
'[12:03:24.508]',0.025,-0.235
'[12:03:24.516]',0.015,-0.185
'[12:03:24.523]',0.025,-0.135
'[12:03:24.531]',0.075,-0.175
'[12:03:24.539]',0.065,-0.165
'[12:03:24.547]',0.095,-0.115
'[12:03:24.555]',0.115,-0.135
'[12:03:24.563]',0.145,-0.175
'[12:03:24.570]',0.165,-0.185
'[12:03:24.578]',0.165,-0.155
'[12:03:24.586]',0.195,-0.205
'[12:03:24.594]',0.185,-0.175
'[12:03:24.602]',0.175,-0.135
'[12:03:24.609]',0.185,-0.235
'[12:03:24.617]',0.135,-0.155
'[12:03:24.625]',0.075,-0.105
'[12:03:24.633]',0.015,-0.035
'[12:03:24.641]',-0.055,-0.055
'[12:03:24.648]',-0.075,-0.115
'[12:03:24.656]',-0.095,-0.095
'[12:03:24.664]',-0.135,-0.035
'[12:03:24.672]',-0.125,-0.115
'[12:03:24.680]',-0.135,-0.115
'[12:03:24.688]',-0.155,-0.105
'[12:03:24.695]',-0.145,-0.055
'[12:03:24.703]',-0.155,-0.085
'[12:03:24.711]',-0.155,-0.105
'[12:03:24.719]',-0.115,-0.125
'[12:03:24.727]',-0.145,-0.115
'[12:03:24.734]',-0.145,-0.025
'[12:03:24.742]',-0.135,-0.065
'[12:03:24.750]',-0.125,-0.065
'[12:03:24.758]',-0.105,-0.115
'[12:03:24.766]',-0.145,-0.115
'[12:03:24.773]',-0.115,-0.095
'[12:03:24.781]',-0.105,-0.105
'[12:03:24.789]',-0.115,-0.105
'[12:03:24.797]',-0.115,-0.045
'[12:03:24.805]',-0.135,-0.115
'[12:03:24.813]',-0.105,-0.045
'[12:03:24.820]',-0.105,-0.095
'[12:03:24.828]',-0.155,-0.065
'[12:03:24.836]',-0.125,-0.015
'[12:03:24.844]',-0.095,-0.195
'[12:03:24.852]',-0.115,-0.115
'[12:03:24.859]',-0.135,-0.055
'[12:03:24.867]',-0.125,-0.105
'[12:03:24.875]',-0.125,-0.135
'[12:03:24.883]',-0.125,-0.095
'[12:03:24.891]',-0.165,-0.105
'[12:03:24.898]',-0.135,-0.035
'[12:03:24.906]',-0.145,-0.015
'[12:03:24.914]',-0.125,-0.065
'[12:03:24.922]',-0.115,-0.165
'[12:03:24.930]',-0.115,-0.125
'[12:03:24.938]',-0.135,-0.095
'[12:03:24.945]',-0.135,-0.125
'[12:03:24.953]',-0.145,-0.145
'[12:03:24.961]',-0.135,-0.075
'[12:03:24.969]',-0.135,-0.085
'[12:03:24.977]',-0.125,-0.085
'[12:03:24.984]',-0.125,-0.065
'[12:03:24.992]',-0.115,-0.035
'[12:03:25.000]',-0.125,-0.095
'[12:03:25.008]',-0.105,-0.155
'[12:03:25.016]',-0.155,-0.095
'[12:03:25.023]',-0.115,-0.085
'[12:03:25.031]',-0.115,-0.125
'[12:03:25.039]',-0.105,-0.125
'[12:03:25.047]',-0.115,-0.105
'[12:03:25.055]',-0.125,-0.065
'[12:03:25.063]',-0.135,-0.035
'[12:03:25.070]',-0.115,-0.045
'[12:03:25.078]',-0.125,-0.155
'[12:03:25.086]',-0.115,-0.055
'[12:03:25.094]',-0.105,-0.085
'[12:03:25.102]',-0.115,-0.165
'[12:03:25.109]',-0.095,-0.145
'[12:03:25.117]',-0.105,-0.085
'[12:03:25.125]',-0.105,-0.075
'[12:03:25.133]',-0.105,-0.055
'[12:03:25.141]',-0.135,-0.065
'[12:03:25.148]',-0.115,-0.005
'[12:03:25.156]',-0.085,-0.165
'[12:03:25.164]',-0.105,-0.125
'[12:03:25.172]',-0.085,-0.005
'[12:03:25.180]',-0.035,-0.045
'[12:03:25.188]',0.005,-0.075
'[12:03:25.195]',0.005,-0.035
'[12:03:25.203]',0.055,0.005
'[12:03:25.211]',0.115,-0.005
'[12:03:25.219]',0.025,-0.025
'[12:03:25.227]',0.025,-0.035
'[12:03:25.234]',-0.005,-0.145
'[12:03:25.242]',-0.045,-0.165
'[12:03:25.250]',-0.115,-0.045
'[12:03:25.258]',-0.105,-0.065
'[12:03:25.266]',-0.135,-0.125
'[12:03:25.273]',-0.095,-0.165
'[12:03:25.281]',-0.105,-0.165
'[12:03:25.289]',-0.055,-0.115
'[12:03:25.297]',-0.025,0.005
'[12:03:25.305]',0.005,-0.025
'[12:03:25.313]',0.505,-0.265
'[12:03:25.320]',1.135,-0.275
'[12:03:25.328]',0.655,-0.415
'[12:03:25.336]',-0.465,-0.675
'[12:03:25.344]',-0.675,-0.405
'[12:03:25.352]',-0.395,-0.165
'[12:03:25.359]',-0.135,-0.205
'[12:03:25.367]',-0.085,-0.095
'[12:03:25.375]',-0.095,-0.095
'[12:03:25.383]',-0.105,-0.085
'[12:03:25.391]',-0.115,-0.075
'[12:03:25.398]',-0.105,-0.115
'[12:03:25.406]',-0.105,-0.095
'[12:03:25.414]',-0.105,-0.035
'[12:03:25.422]',-0.105,-0.025
'[12:03:25.430]',-0.085,-0.095
'[12:03:25.438]',-0.065,-0.095
'[12:03:25.445]',-0.055,-0.125
'[12:03:25.453]',-0.075,-0.115
'[12:03:25.461]',-0.075,-0.075
'[12:03:25.469]',-0.055,-0.045
'[12:03:25.477]',-0.055,-0.045
'[12:03:25.484]',-0.045,-0.045
'[12:03:25.492]',-0.025,-0.095
'[12:03:25.500]',-0.035,0.015
'[12:03:25.508]',0.015,-0.065
'[12:03:25.516]',0.015,-0.165
'[12:03:25.523]',0.025,-0.155
'[12:03:25.531]',0.055,-0.105
'[12:03:25.539]',0.065,-0.095
'[12:03:25.547]',0.085,-0.115
'[12:03:25.555]',0.095,-0.095
'[12:03:25.563]',0.125,-0.085
'[12:03:25.570]',0.155,-0.075
'[12:03:25.578]',0.155,-0.075
'[12:03:25.586]',0.195,-0.045
'[12:03:25.594]',0.215,-0.125
'[12:03:25.602]',0.245,-0.165
'[12:03:25.609]',0.255,-0.215
'[12:03:25.617]',0.275,-0.205
'[12:03:25.625]',0.245,-0.155
'[12:03:25.633]',0.215,-0.125
'[12:03:25.641]',0.155,-0.105
'[12:03:25.648]',0.115,-0.065
'[12:03:25.656]',0.045,-0.055
'[12:03:25.664]',-0.005,-0.055
'[12:03:25.672]',-0.055,-0.055
'[12:03:25.680]',-0.105,-0.015
'[12:03:25.688]',-0.115,0.015
'[12:03:25.695]',-0.115,-0.065
'[12:03:25.703]',-0.145,-0.055
'[12:03:25.711]',-0.125,-0.095
'[12:03:25.719]',-0.145,-0.075
'[12:03:25.727]',-0.145,-0.075
'[12:03:25.734]',-0.145,-0.075
'[12:03:25.742]',-0.155,-0.055
'[12:03:25.750]',-0.155,-0.015
'[12:03:25.758]',-0.145,-0.065
'[12:03:25.766]',-0.145,-0.075
'[12:03:25.773]',-0.125,-0.075
'[12:03:25.781]',-0.125,-0.025
'[12:03:25.789]',-0.115,-0.045
'[12:03:25.797]',-0.105,-0.105
'[12:03:25.805]',-0.115,-0.065
'[12:03:25.813]',-0.125,-0.115
'[12:03:25.820]',-0.105,-0.055
'[12:03:25.828]',-0.155,-0.075
'[12:03:25.836]',-0.125,0.005
'[12:03:25.844]',-0.115,-0.115
'[12:03:25.852]',-0.125,-0.075
'[12:03:25.859]',-0.135,-0.015
'[12:03:25.867]',-0.115,-0.055
'[12:03:25.875]',-0.125,-0.105
'[12:03:25.883]',-0.135,-0.045
'[12:03:25.891]',-0.145,-0.115
'[12:03:25.898]',-0.145,-0.085
'[12:03:25.906]',-0.145,-0.075
'[12:03:25.914]',-0.145,-0.105
'[12:03:25.922]',-0.155,-0.085
'[12:03:25.930]',-0.155,-0.015
'[12:03:25.938]',-0.145,-0.085
'[12:03:25.945]',-0.135,-0.125
'[12:03:25.953]',-0.175,-0.065
'[12:03:25.961]',-0.135,-0.085
'[12:03:25.969]',-0.145,-0.095
'[12:03:25.977]',-0.145,-0.145
'[12:03:25.984]',-0.145,-0.095
'[12:03:25.992]',-0.155,-0.105
'[12:03:26.000]',-0.155,-0.055
'[12:03:26.008]',-0.145,-0.085
'[12:03:26.016]',-0.165,-0.135
'[12:03:26.023]',-0.165,-0.055
'[12:03:26.031]',-0.155,-0.055
'[12:03:26.039]',-0.145,-0.085
'[12:03:26.047]',-0.145,-0.115
'[12:03:26.055]',-0.155,-0.065
'[12:03:26.063]',-0.145,-0.085
'[12:03:26.070]',-0.135,-0.155
'[12:03:26.078]',-0.145,-0.145
'[12:03:26.086]',-0.145,-0.105
'[12:03:26.094]',-0.155,-0.055
'[12:03:26.102]',-0.145,-0.085
'[12:03:26.109]',-0.155,-0.075
'[12:03:26.117]',-0.145,-0.035
'[12:03:26.125]',-0.145,-0.115
'[12:03:26.133]',-0.115,-0.115
'[12:03:26.141]',-0.145,-0.155
'[12:03:26.148]',-0.125,-0.105
'[12:03:26.156]',-0.135,-0.065
'[12:03:26.164]',-0.135,-0.095
'[12:03:26.172]',-0.135,-0.115
'[12:03:26.180]',-0.135,-0.085
'[12:03:26.188]',-0.115,-0.055
'[12:03:26.195]',-0.085,-0.105
'[12:03:26.203]',-0.095,0.045
'[12:03:26.211]',-0.065,-0.005
'[12:03:26.219]',-0.015,0.015
'[12:03:26.227]',0.045,-0.015
'[12:03:26.234]',0.055,-0.105
'[12:03:26.242]',0.045,-0.095
'[12:03:26.250]',-0.005,-0.095
'[12:03:26.258]',-0.035,-0.105
'[12:03:26.266]',-0.095,-0.115
'[12:03:26.273]',-0.135,-0.085
'[12:03:26.281]',-0.145,-0.035
'[12:03:26.289]',-0.155,-0.095
'[12:03:26.297]',-0.125,-0.075
'[12:03:26.305]',-0.105,-0.115
'[12:03:26.313]',-0.095,-0.095
'[12:03:26.320]',-0.035,0.005
'[12:03:26.328]',0.055,-0.135
'[12:03:26.336]',0.605,-0.295
'[12:03:26.344]',1.245,-0.295
'[12:03:26.352]',0.605,-0.485
'[12:03:26.359]',-0.435,-0.545
'[12:03:26.367]',-0.665,-0.335
'[12:03:26.375]',-0.435,-0.065
'[12:03:26.383]',-0.185,-0.085
'[12:03:26.391]',-0.125,-0.135
'[12:03:26.398]',-0.125,-0.135
'[12:03:26.406]',-0.125,-0.095
'[12:03:26.414]',-0.135,-0.095
'[12:03:26.422]',-0.125,-0.125
'[12:03:26.430]',-0.115,-0.085
'[12:03:26.438]',-0.115,-0.055
'[12:03:26.445]',-0.105,-0.095
'[12:03:26.453]',-0.125,-0.105
'[12:03:26.461]',-0.105,-0.065
'[12:03:26.469]',-0.105,-0.055
'[12:03:26.477]',-0.085,-0.095
'[12:03:26.484]',-0.085,-0.095
'[12:03:26.492]',-0.065,-0.135
'[12:03:26.500]',-0.065,-0.115
'[12:03:26.508]',-0.045,-0.095
'[12:03:26.516]',-0.065,-0.085
'[12:03:26.523]',-0.055,-0.085
'[12:03:26.531]',-0.035,-0.055
'[12:03:26.539]',-0.025,-0.005
'[12:03:26.547]',-0.005,0.065
'[12:03:26.555]',0.025,-0.125
'[12:03:26.563]',0.045,-0.195
'[12:03:26.570]',0.055,-0.175
'[12:03:26.578]',0.065,-0.105
'[12:03:26.586]',0.115,-0.145
'[12:03:26.594]',0.125,-0.125
'[12:03:26.602]',0.135,-0.075
'[12:03:26.609]',0.185,-0.155
'[12:03:26.617]',0.205,-0.145
'[12:03:26.625]',0.205,-0.115
'[12:03:26.633]',0.235,-0.105
'[12:03:26.641]',0.215,-0.145
'[12:03:26.648]',0.215,-0.065
'[12:03:26.656]',0.205,-0.045
'[12:03:26.664]',0.195,-0.135
'[12:03:26.672]',0.145,-0.195
'[12:03:26.680]',0.085,-0.105
'[12:03:26.688]',0.015,-0.035
'[12:03:26.695]',-0.035,-0.025
'[12:03:26.703]',-0.075,-0.045
'[12:03:26.711]',-0.095,-0.045
'[12:03:26.719]',-0.135,0.005
'[12:03:26.727]',-0.135,0.065
'[12:03:26.734]',-0.135,-0.005
'[12:03:26.742]',-0.125,-0.025
'[12:03:26.750]',-0.135,-0.085
'[12:03:26.758]',-0.125,-0.095
'[12:03:26.766]',-0.145,-0.085
'[12:03:26.773]',-0.125,-0.035
'[12:03:26.781]',-0.125,-0.025
'[12:03:26.789]',-0.135,-0.025
'[12:03:26.797]',-0.115,-0.015
'[12:03:26.805]',-0.125,-0.045
'[12:03:26.813]',-0.105,0.015
'[12:03:26.820]',-0.115,0.005
'[12:03:26.828]',-0.135,-0.015
'[12:03:26.836]',-0.095,-0.085
'[12:03:26.844]',-0.085,-0.055
'[12:03:26.852]',-0.085,-0.085
'[12:03:26.859]',-0.085,-0.085
'[12:03:26.867]',-0.095,-0.045
'[12:03:26.875]',-0.085,-0.025
'[12:03:26.883]',-0.095,-0.055
'[12:03:26.891]',-0.125,-0.045
'[12:03:26.898]',-0.105,-0.045
'[12:03:26.906]',-0.105,-0.015
'[12:03:26.914]',-0.145,0.095
'[12:03:26.922]',-0.095,-0.015
'[12:03:26.930]',-0.095,-0.115
'[12:03:26.938]',-0.105,-0.015
'[12:03:26.945]',-0.105,-0.175
'[12:03:26.953]',-0.125,-0.055
'[12:03:26.961]',-0.105,-0.055
'[12:03:26.969]',-0.095,-0.065
'[12:03:26.977]',-0.105,-0.055
'[12:03:26.984]',-0.115,-0.035
'[12:03:26.992]',-0.095,-0.045
'[12:03:27.000]',-0.105,-0.035
'[12:03:27.008]',-0.105,-0.015
'[12:03:27.016]',-0.115,-0.055
'[12:03:27.023]',-0.105,-0.065
'[12:03:27.031]',-0.125,-0.005
'[12:03:27.039]',-0.095,-0.065
'[12:03:27.047]',-0.085,-0.065
'[12:03:27.055]',-0.105,0.015
'[12:03:27.063]',-0.085,-0.025
'[12:03:27.070]',-0.095,-0.045
'[12:03:27.078]',-0.065,-0.135
'[12:03:27.086]',-0.065,-0.095
'[12:03:27.094]',-0.055,-0.065
'[12:03:27.102]',-0.065,-0.055
'[12:03:27.109]',-0.075,-0.045
'[12:03:27.117]',-0.055,-0.055
'[12:03:27.125]',-0.035,-0.035
'[12:03:27.133]',-0.035,-0.025
'[12:03:27.141]',-0.065,-0.035
'[12:03:27.148]',-0.045,-0.025
'[12:03:27.156]',-0.025,-0.045
'[12:03:27.164]',-0.025,-0.075
'[12:03:27.172]',-0.025,-0.065
'[12:03:27.180]',-0.035,-0.035
'[12:03:27.188]',-0.035,-0.045
'[12:03:27.195]',-0.025,-0.035
'[12:03:27.203]',-0.025,-0.035
'[12:03:27.211]',-0.015,-0.035
'[12:03:27.219]',-0.015,-0.025
'[12:03:27.227]',-0.005,-0.025
'[12:03:27.234]',-0.015,-0.025
'[12:03:27.242]',-0.005,-0.005
'[12:03:27.250]',-0.025,-0.015
'[12:03:27.258]',-0.015,-0.005
'[12:03:27.266]',0.045,0.015
'[12:03:27.273]',0.055,0.055
'[12:03:27.281]',0.075,0.075
'[12:03:27.289]',0.105,0.075
'[12:03:27.297]',0.135,0.075
'[12:03:27.305]',0.125,-0.005
'[12:03:27.313]',0.115,-0.025
'[12:03:27.320]',0.105,-0.025
'[12:03:27.328]',-0.005,-0.025
'[12:03:27.336]',0.025,-0.045
'[12:03:27.344]',0.015,-0.045
'[12:03:27.352]',-0.055,-0.025
'[12:03:27.359]',-0.035,-0.045
'[12:03:27.367]',-0.015,-0.045
'[12:03:27.375]',0.045,-0.005
'[12:03:27.383]',0.065,0.085
'[12:03:27.391]',0.115,0.015
'[12:03:27.398]',0.725,-0.165
'[12:03:27.406]',1.435,-0.275
'[12:03:27.414]',0.835,-0.545
'[12:03:27.422]',-0.425,-0.625
'[12:03:27.430]',-0.515,-0.245
'[12:03:27.438]',-0.295,-0.015
'[12:03:27.445]',-0.015,-0.035
'[12:03:27.453]',-0.015,-0.025
'[12:03:27.461]',-0.015,-0.015
'[12:03:27.469]',-0.025,-0.005
'[12:03:27.477]',-0.025,-0.015
'[12:03:27.484]',0.005,-0.025
'[12:03:27.492]',-0.005,0.005
'[12:03:27.500]',0.005,0.025
'[12:03:27.508]',-0.025,0.005
'[12:03:27.516]',-0.035,-0.005
'[12:03:27.523]',-0.005,0.005
'[12:03:27.531]',-0.005,0.025
'[12:03:27.539]',-0.005,0.015
'[12:03:27.547]',0.025,-0.005
'[12:03:27.555]',0.025,0.015
'[12:03:27.563]',0.015,0.035
'[12:03:27.570]',0.055,0.015
'[12:03:27.578]',0.045,0.005
'[12:03:27.586]',0.085,0.025
'[12:03:27.594]',0.095,0.035
'[12:03:27.602]',0.075,0.015
'[12:03:27.609]',0.145,-0.035
'[12:03:27.617]',0.175,-0.005
'[12:03:27.625]',0.125,0.055
'[12:03:27.633]',0.085,0.015
'[12:03:27.641]',0.215,-0.005
'[12:03:27.648]',0.235,-0.005
'[12:03:27.656]',0.245,0.025
'[12:03:27.664]',0.285,0.015
'[12:03:27.672]',0.295,0.005
'[12:03:27.680]',0.325,0.005
'[12:03:27.688]',0.425,-0.025
'[12:03:27.695]',0.385,-0.005
'[12:03:27.703]',0.385,0.015
'[12:03:27.711]',0.365,-0.015
'[12:03:27.719]',0.325,-0.005
'[12:03:27.727]',0.225,-0.005
'[12:03:27.734]',0.255,0.015
'[12:03:27.742]',0.075,0.025
'[12:03:27.750]',0.045,0.025
'[12:03:27.758]',-0.015,0.025
'[12:03:27.766]',-0.055,0.025
'[12:03:27.773]',-0.065,0.015
'[12:03:27.781]',-0.015,0.015
'[12:03:27.789]',-0.065,0.005
'[12:03:27.797]',-0.105,0.005
'[12:03:27.805]',-0.015,0.015
'[12:03:27.813]',-0.065,0.005
'[12:03:27.820]',-0.095,0.005
'[12:03:27.828]',-0.085,0.005
'[12:03:27.836]',-0.065,0.015
'[12:03:27.844]',-0.035,-0.005
'[12:03:27.852]',-0.055,0.025
'[12:03:27.859]',-0.055,0.005
'[12:03:27.867]',-0.065,0.025
'[12:03:27.875]',-0.015,0.015
'[12:03:27.883]',0.025,-0.005
'[12:03:27.891]',-0.025,0.035
'[12:03:27.898]',-0.085,0.025
'[12:03:27.906]',-0.005,0.005
'[12:03:27.914]',-0.065,0.015
'[12:03:27.922]',-0.055,-0.005
'[12:03:27.930]',-0.035,0.005
'[12:03:27.938]',-0.025,0.015
'[12:03:27.945]',0.005,0.025
'[12:03:27.953]',-0.035,0.005
'[12:03:27.961]',-0.075,0.005
'[12:03:27.969]',-0.055,0.005
'[12:03:27.977]',-0.065,-0.015
'[12:03:27.984]',-0.085,-0.025
'[12:03:27.992]',-0.065,-0.025
'[12:03:28.000]',-0.055,0.005
'[12:03:28.008]',-0.065,-0.015
'[12:03:28.016]',-0.105,-0.045
'[12:03:28.023]',-0.065,-0.025
'[12:03:28.031]',-0.065,-0.015
'[12:03:28.039]',-0.055,-0.045
'[12:03:28.047]',-0.095,-0.025
'[12:03:28.055]',-0.085,-0.025
'[12:03:28.063]',-0.075,-0.025
'[12:03:28.070]',-0.065,-0.015
'[12:03:28.078]',-0.105,-0.045
'[12:03:28.086]',-0.075,-0.035
'[12:03:28.094]',-0.075,-0.015
'[12:03:28.102]',-0.075,-0.045
'[12:03:28.109]',-0.095,-0.035
'[12:03:28.117]',-0.095,-0.035
'[12:03:28.125]',-0.095,-0.025
'[12:03:28.133]',-0.105,-0.045
'[12:03:28.141]',-0.105,-0.045
'[12:03:28.148]',-0.055,-0.035
'[12:03:28.156]',-0.065,-0.025
'[12:03:28.164]',-0.095,-0.025
'[12:03:28.172]',-0.095,-0.035
'[12:03:28.180]',-0.095,-0.045
'[12:03:28.188]',-0.105,-0.035
'[12:03:28.195]',-0.105,-0.045
'[12:03:28.203]',-0.125,-0.055
'[12:03:28.211]',-0.095,-0.065
'[12:03:28.219]',-0.095,-0.035
'[12:03:28.227]',-0.095,-0.045
'[12:03:28.234]',-0.075,-0.075
'[12:03:28.242]',-0.105,-0.065
'[12:03:28.250]',-0.065,-0.055
'[12:03:28.258]',-0.105,-0.045
'[12:03:28.266]',-0.095,-0.035
'[12:03:28.273]',-0.065,-0.055
'[12:03:28.281]',-0.115,-0.055
'[12:03:28.289]',-0.165,-0.065
'[12:03:28.297]',-0.105,-0.075
'[12:03:28.305]',-0.145,-0.075
'[12:03:28.313]',-0.055,-0.065
'[12:03:28.320]',0.115,-0.155
'[12:03:28.328]',-0.115,-0.085
'[12:03:28.336]',-0.095,0.045
'[12:03:28.344]',-0.035,0.025
'[12:03:28.352]',-0.035,0.045
'[12:03:28.359]',-0.005,0.075
'[12:03:28.367]',0.045,0.045
'[12:03:28.375]',0.065,-0.005
'[12:03:28.383]',0.135,-0.075
'[12:03:28.391]',-0.025,-0.085
'[12:03:28.398]',-0.105,-0.045
'[12:03:28.406]',-0.145,-0.085
'[12:03:28.414]',-0.125,-0.085
'[12:03:28.422]',-0.105,-0.095
'[12:03:28.430]',-0.125,-0.065
'[12:03:28.438]',-0.115,-0.105
'[12:03:28.445]',-0.105,-0.085
'[12:03:28.453]',-0.135,-0.035
'[12:03:28.461]',-0.055,0.075
'[12:03:28.469]',0.075,-0.055
'[12:03:28.477]',0.645,-0.245
'[12:03:28.484]',1.305,-0.435
'[12:03:28.492]',0.555,-0.675
'[12:03:28.500]',-0.645,-0.785
'[12:03:28.508]',-0.675,-0.415
'[12:03:28.516]',-0.375,-0.085
'[12:03:28.523]',-0.105,-0.065
'[12:03:28.531]',-0.125,-0.025
'[12:03:28.539]',-0.125,-0.055
'[12:03:28.547]',-0.095,-0.045
'[12:03:28.555]',-0.105,-0.015
'[12:03:28.563]',-0.145,-0.025
'[12:03:28.570]',-0.095,-0.035
'[12:03:28.578]',-0.135,-0.015
'[12:03:28.586]',-0.075,-0.025
'[12:03:28.594]',-0.115,-0.015
'[12:03:28.602]',-0.085,-0.015
'[12:03:28.609]',0.045,-0.055
'[12:03:28.617]',-0.105,-0.005
'[12:03:28.625]',0.005,-0.015
'[12:03:28.633]',-0.115,0.025
'[12:03:28.641]',-0.045,0.005
'[12:03:28.648]',-0.035,-0.005
'[12:03:28.656]',-0.035,0.015
'[12:03:28.664]',-0.025,0.015
'[12:03:28.672]',0.045,-0.005
'[12:03:28.680]',0.035,0.005
'[12:03:28.688]',0.055,0.015
'[12:03:28.695]',0.075,-0.005
'[12:03:28.703]',0.045,-0.015
'[12:03:28.711]',0.135,-0.025
'[12:03:28.719]',0.135,0.025
'[12:03:28.727]',0.145,0.005
'[12:03:28.734]',0.185,-0.005
'[12:03:28.742]',0.215,-0.015
'[12:03:28.750]',0.265,-0.015
'[12:03:28.758]',0.255,-0.015
'[12:03:28.766]',0.305,-0.035
'[12:03:28.773]',0.315,-0.015
'[12:03:28.781]',0.305,-0.005
'[12:03:28.789]',0.325,-0.045
'[12:03:28.797]',0.285,-0.045
'[12:03:28.805]',0.215,-0.025
'[12:03:28.813]',0.135,0.005
'[12:03:28.820]',0.035,-0.015
'[12:03:28.828]',-0.005,-0.025
'[12:03:28.836]',-0.065,-0.015
'[12:03:28.844]',-0.135,-0.025
'[12:03:28.852]',-0.125,-0.025
'[12:03:28.859]',-0.135,-0.015
'[12:03:28.867]',-0.135,-0.025
'[12:03:28.875]',-0.175,-0.025
'[12:03:28.883]',-0.175,-0.045
'[12:03:28.891]',-0.185,-0.045
'[12:03:28.898]',-0.175,-0.035
'[12:03:28.906]',-0.185,-0.035
'[12:03:28.914]',-0.185,-0.035
'[12:03:28.922]',-0.175,-0.035
'[12:03:28.930]',-0.185,-0.035
'[12:03:28.938]',-0.185,-0.025
'[12:03:28.945]',-0.175,-0.035
'[12:03:28.953]',-0.175,-0.045
'[12:03:28.961]',-0.175,-0.025
'[12:03:28.969]',-0.195,-0.045
'[12:03:28.977]',-0.175,-0.025
'[12:03:28.984]',-0.185,-0.045
'[12:03:28.992]',-0.185,-0.055
'[12:03:29.000]',-0.195,-0.055
'[12:03:29.008]',-0.195,-0.045
'[12:03:29.016]',-0.215,-0.055
'[12:03:29.023]',-0.195,-0.055
'[12:03:29.031]',-0.205,-0.055
'[12:03:29.039]',-0.225,-0.075
'[12:03:29.047]',-0.215,-0.095
'[12:03:29.055]',-0.225,-0.065
'[12:03:29.063]',-0.215,-0.075
'[12:03:29.070]',-0.205,-0.085
'[12:03:29.078]',-0.235,-0.105
'[12:03:29.086]',-0.205,-0.105
'[12:03:29.094]',-0.205,-0.095
'[12:03:29.102]',-0.245,-0.095
'[12:03:29.109]',-0.235,-0.135
'[12:03:29.117]',-0.215,-0.105
'[12:03:29.125]',-0.235,-0.105
'[12:03:29.133]',-0.235,-0.105
'[12:03:29.141]',-0.225,-0.125
'[12:03:29.148]',-0.205,-0.115
'[12:03:29.156]',-0.205,-0.125
'[12:03:29.164]',-0.195,-0.125
'[12:03:29.172]',-0.185,-0.125
'[12:03:29.180]',-0.195,-0.125
'[12:03:29.188]',-0.245,-0.115
'[12:03:29.195]',-0.205,-0.135
'[12:03:29.203]',-0.205,-0.135
'[12:03:29.211]',-0.205,-0.135
'[12:03:29.219]',-0.205,-0.125
'[12:03:29.227]',-0.205,-0.135
'[12:03:29.234]',-0.175,-0.145
'[12:03:29.242]',-0.195,-0.125
'[12:03:29.250]',-0.185,-0.125
'[12:03:29.258]',-0.195,-0.145
'[12:03:29.266]',-0.185,-0.135
'[12:03:29.273]',-0.195,-0.135
'[12:03:29.281]',-0.195,-0.135
'[12:03:29.289]',-0.195,-0.135
'[12:03:29.297]',-0.175,-0.135
'[12:03:29.305]',-0.175,-0.125
'[12:03:29.313]',-0.175,-0.135
'[12:03:29.320]',-0.165,-0.135
'[12:03:29.328]',-0.185,-0.135
'[12:03:29.336]',-0.165,-0.135
'[12:03:29.344]',-0.175,-0.115
'[12:03:29.352]',-0.165,-0.135
'[12:03:29.359]',-0.165,-0.135
'[12:03:29.367]',-0.155,-0.115
'[12:03:29.375]',-0.155,-0.125
'[12:03:29.383]',-0.155,-0.125
'[12:03:29.391]',-0.125,-0.125
'[12:03:29.398]',-0.085,-0.065
'[12:03:29.406]',-0.075,-0.035
'[12:03:29.414]',-0.075,-0.035
'[12:03:29.422]',0.025,-0.025
'[12:03:29.430]',0.045,0.005
'[12:03:29.438]',0.015,-0.085
'[12:03:29.445]',0.025,-0.135
'[12:03:29.453]',-0.065,-0.135
'[12:03:29.461]',-0.085,-0.145
'[12:03:29.469]',-0.075,-0.125
'[12:03:29.477]',-0.175,-0.145
'[12:03:29.484]',-0.135,-0.165
'[12:03:29.492]',-0.145,-0.155
'[12:03:29.500]',-0.115,-0.145
'[12:03:29.508]',-0.075,-0.135
'[12:03:29.516]',-0.095,-0.035
'[12:03:29.523]',-0.065,-0.015
'[12:03:29.531]',0.405,-0.235
'[12:03:29.539]',1.055,-0.305
'[12:03:29.547]',1.215,-0.525
'[12:03:29.555]',0.085,-0.775
'[12:03:29.563]',-0.655,-0.595
'[12:03:29.570]',-0.545,-0.315
'[12:03:29.578]',-0.315,-0.155
'[12:03:29.586]',-0.105,-0.125
'[12:03:29.594]',-0.075,-0.105
'[12:03:29.602]',-0.065,-0.105
'[12:03:29.609]',-0.085,-0.105
'[12:03:29.617]',-0.105,-0.105
'[12:03:29.625]',-0.085,-0.085
'[12:03:29.633]',-0.075,-0.105
'[12:03:29.641]',-0.105,-0.115
'[12:03:29.648]',-0.105,-0.085
'[12:03:29.656]',-0.065,-0.075
'[12:03:29.664]',-0.065,-0.075
'[12:03:29.672]',-0.075,-0.085
'[12:03:29.680]',-0.055,-0.065
'[12:03:29.688]',-0.065,-0.075
'[12:03:29.695]',-0.055,-0.065
'[12:03:29.703]',-0.055,-0.085
'[12:03:29.711]',-0.035,-0.065
'[12:03:29.719]',-0.055,-0.055
'[12:03:29.727]',-0.025,-0.065
'[12:03:29.734]',0.005,-0.075
'[12:03:29.742]',0.025,-0.055
'[12:03:29.750]',0.035,-0.055
'[12:03:29.758]',0.025,-0.065
'[12:03:29.766]',0.025,-0.065
'[12:03:29.773]',0.065,-0.045
'[12:03:29.781]',0.125,-0.065
'[12:03:29.789]',0.125,-0.075
'[12:03:29.797]',0.175,-0.065
'[12:03:29.805]',0.215,-0.035
'[12:03:29.813]',0.185,-0.075
'[12:03:29.820]',0.205,-0.065
'[12:03:29.828]',0.235,-0.065
'[12:03:29.836]',0.245,-0.085
'[12:03:29.844]',0.275,-0.045
'[12:03:29.852]',0.245,-0.075
'[12:03:29.859]',0.215,-0.085
'[12:03:29.867]',0.165,-0.035
'[12:03:29.875]',0.115,-0.035
'[12:03:29.883]',0.015,-0.045
'[12:03:29.891]',-0.055,-0.055
'[12:03:29.898]',-0.075,-0.055
'[12:03:29.906]',-0.115,-0.075
'[12:03:29.914]',-0.105,-0.085
'[12:03:29.922]',-0.115,-0.065
'[12:03:29.930]',-0.145,-0.065
'[12:03:29.938]',-0.115,-0.075
'[12:03:29.945]',-0.135,-0.095
'[12:03:29.953]',-0.165,-0.085
'[12:03:29.961]',-0.125,-0.065
'[12:03:29.969]',-0.125,-0.085
'[12:03:29.977]',-0.115,-0.095
'[12:03:29.984]',-0.105,-0.095
'[12:03:29.992]',-0.135,-0.075
'[12:03:30.000]',-0.115,-0.065
'[12:03:30.008]',-0.105,-0.065
'[12:03:30.016]',-0.135,-0.085
'[12:03:30.023]',-0.125,-0.095
'[12:03:30.031]',-0.105,-0.065
'[12:03:30.039]',-0.105,-0.075
'[12:03:30.047]',-0.085,-0.085
'[12:03:30.055]',-0.095,-0.075
'[12:03:30.063]',-0.125,-0.075
'[12:03:30.070]',-0.125,-0.105
'[12:03:30.078]',-0.135,-0.095
'[12:03:30.086]',-0.135,-0.075
'[12:03:30.094]',-0.145,-0.085
'[12:03:30.102]',-0.145,-0.115
'[12:03:30.109]',-0.145,-0.105
'[12:03:30.117]',-0.135,-0.085
'[12:03:30.125]',-0.155,-0.105
'[12:03:30.133]',-0.135,-0.095
'[12:03:30.141]',-0.165,-0.085
'[12:03:30.148]',-0.145,-0.105
'[12:03:30.156]',-0.155,-0.095
'[12:03:30.164]',-0.145,-0.095
'[12:03:30.172]',-0.135,-0.125
'[12:03:30.180]',-0.155,-0.095
'[12:03:30.188]',-0.155,-0.095
'[12:03:30.195]',-0.155,-0.105
'[12:03:30.203]',-0.175,-0.115
'[12:03:30.211]',-0.165,-0.095
'[12:03:30.219]',-0.145,-0.095
'[12:03:30.227]',-0.145,-0.085
'[12:03:30.234]',-0.155,-0.105
'[12:03:30.242]',-0.185,-0.085
'[12:03:30.250]',-0.145,-0.085
'[12:03:30.258]',-0.155,-0.085
'[12:03:30.266]',-0.185,-0.085
'[12:03:30.273]',-0.175,-0.095
'[12:03:30.281]',-0.175,-0.095
'[12:03:30.289]',-0.135,-0.075
'[12:03:30.297]',-0.115,-0.075
'[12:03:30.305]',-0.165,-0.085
'[12:03:30.313]',-0.175,-0.095
'[12:03:30.320]',-0.145,-0.095
'[12:03:30.328]',-0.185,-0.085
'[12:03:30.336]',-0.135,-0.085
'[12:03:30.344]',-0.165,-0.095
'[12:03:30.352]',-0.175,-0.115
'[12:03:30.359]',-0.145,-0.085
'[12:03:30.367]',-0.115,-0.075
'[12:03:30.375]',-0.165,-0.085
'[12:03:30.383]',-0.125,-0.095
'[12:03:30.391]',-0.155,-0.105
'[12:03:30.398]',-0.175,-0.105
'[12:03:30.406]',-0.125,-0.105
'[12:03:30.414]',-0.115,-0.085
'[12:03:30.422]',-0.115,-0.115
'[12:03:30.430]',-0.155,-0.125
'[12:03:30.438]',-0.115,-0.045
'[12:03:30.445]',-0.065,-0.055
'[12:03:30.453]',-0.075,-0.025
'[12:03:30.461]',-0.085,0.015
'[12:03:30.469]',0.065,0.025
'[12:03:30.477]',0.055,-0.005
'[12:03:30.484]',0.005,-0.085
'[12:03:30.492]',0.015,-0.095
'[12:03:30.500]',-0.045,-0.105
'[12:03:30.508]',-0.115,-0.135
'[12:03:30.516]',-0.175,-0.135
'[12:03:30.523]',-0.165,-0.125
'[12:03:30.531]',-0.175,-0.145
'[12:03:30.539]',-0.165,-0.165
'[12:03:30.547]',-0.155,-0.165
