'Time','ECG1','ECG2'
'hh:mm:ss.mmm','mV','mV'
'[10:00:00.000]',-0.255,0.035
'[10:00:00.008]',-0.085,0.085
'[10:00:00.016]',-0.135,0.045
'[10:00:00.023]',-0.125,-0.035
'[10:00:00.031]',-0.195,-0.035
'[10:00:00.039]',-0.245,-0.075
'[10:00:00.047]',-0.335,-0.095
'[10:00:00.055]',-0.435,-0.105
'[10:00:00.063]',-0.435,-0.125
'[10:00:00.070]',-0.435,-0.145
'[10:00:00.078]',-0.455,-0.145
'[10:00:00.086]',-0.475,-0.135
'[10:00:00.094]',-0.415,-0.165
'[10:00:00.102]',-0.355,-0.155
'[10:00:00.109]',-0.535,-0.095
'[10:00:00.117]',-0.875,0.015
'[10:00:00.125]',-0.445,0.255
'[10:00:00.133]',1.035,0.385
'[10:00:00.141]',2.535,0.045
'[10:00:00.148]',2.905,-0.765
'[10:00:00.156]',1.325,-1.205
'[10:00:00.164]',-0.005,-0.885
'[10:00:00.172]',-0.415,-0.445
'[10:00:00.180]',-0.505,-0.095
'[10:00:00.188]',-0.545,-0.045
'[10:00:00.195]',-0.565,-0.035
'[10:00:00.203]',-0.585,-0.095
'[10:00:00.211]',-0.555,-0.115
'[10:00:00.219]',-0.585,-0.085
'[10:00:00.227]',-0.585,-0.085
'[10:00:00.234]',-0.465,-0.075
'[10:00:00.242]',-0.535,-0.065
'[10:00:00.250]',-0.535,-0.025
'[10:00:00.258]',-0.565,-0.095
'[10:00:00.266]',-0.575,-0.095
'[10:00:00.273]',-0.495,-0.095
'[10:00:00.281]',-0.475,-0.065
'[10:00:00.289]',-0.475,-0.025
'[10:00:00.297]',-0.425,-0.045
'[10:00:00.305]',-0.415,-0.105
'[10:00:00.313]',-0.465,-0.105
'[10:00:00.320]',-0.435,-0.105
'[10:00:00.328]',-0.395,-0.115
'[10:00:00.336]',-0.355,-0.135
'[10:00:00.344]',-0.395,-0.125
'[10:00:00.352]',-0.365,-0.095
'[10:00:00.359]',-0.345,-0.125
'[10:00:00.367]',-0.355,-0.135
'[10:00:00.375]',-0.375,-0.165
'[10:00:00.383]',-0.285,-0.155
'[10:00:00.391]',-0.285,-0.115
'[10:00:00.398]',-0.275,-0.085
'[10:00:00.406]',-0.205,-0.115
'[10:00:00.414]',-0.185,-0.055
'[10:00:00.422]',-0.215,-0.005
'[10:00:00.430]',-0.205,0.015
'[10:00:00.438]',-0.215,0.015
'[10:00:00.445]',-0.255,0.035
'[10:00:00.453]',-0.255,0.015
'[10:00:00.461]',-0.205,-0.005
'[10:00:00.469]',-0.235,0.035
'[10:00:00.477]',-0.285,0.045
'[10:00:00.484]',-0.255,-0.005
'[10:00:00.492]',-0.235,0.005
'[10:00:00.500]',-0.205,0.035
'[10:00:00.508]',-0.185,0.005
'[10:00:00.516]',-0.225,0.005
'[10:00:00.523]',-0.195,-0.035
'[10:00:00.531]',-0.175,0.005
'[10:00:00.539]',-0.165,0.025
'[10:00:00.547]',-0.165,-0.005
'[10:00:00.555]',-0.185,-0.015
'[10:00:00.563]',-0.215,-0.005
'[10:00:00.570]',-0.185,-0.005
'[10:00:00.578]',-0.215,-0.005
'[10:00:00.586]',-0.255,-0.005
'[10:00:00.594]',-0.215,-0.015
'[10:00:00.602]',-0.205,0.015
'[10:00:00.609]',-0.095,0.025
'[10:00:00.617]',-0.105,0.085
'[10:00:00.625]',-0.105,0.125
'[10:00:00.633]',-0.045,0.155
'[10:00:00.641]',0.055,0.145
'[10:00:00.648]',0.015,0.065
'[10:00:00.656]',-0.035,0.045
'[10:00:00.664]',-0.075,0.015
'[10:00:00.672]',-0.075,-0.015
'[10:00:00.680]',-0.195,-0.055
'[10:00:00.688]',-0.305,-0.095
'[10:00:00.695]',-0.325,-0.095
'[10:00:00.703]',-0.295,-0.095
'[10:00:00.711]',-0.305,-0.105
'[10:00:00.719]',-0.285,-0.095
'[10:00:00.727]',-0.265,-0.095
'[10:00:00.734]',-0.245,-0.085
'[10:00:00.742]',-0.305,-0.095
'[10:00:00.750]',-0.695,0.005
'[10:00:00.758]',-0.525,0.255
'[10:00:00.766]',0.415,0.415
'[10:00:00.773]',2.075,0.135
'[10:00:00.781]',3.015,-0.645
'[10:00:00.789]',2.485,-1.335
'[10:00:00.797]',0.725,-1.165
'[10:00:00.805]',-0.075,-0.635
'[10:00:00.813]',-0.285,-0.185
'[10:00:00.820]',-0.345,-0.025
'[10:00:00.828]',-0.365,-0.035
'[10:00:00.836]',-0.365,-0.075
'[10:00:00.844]',-0.345,-0.075
'[10:00:00.852]',-0.335,-0.055
'[10:00:00.859]',-0.295,-0.055
'[10:00:00.867]',-0.315,-0.065
'[10:00:00.875]',-0.285,-0.055
'[10:00:00.883]',-0.255,-0.055
'[10:00:00.891]',-0.245,-0.035
'[10:00:00.898]',-0.245,-0.055
'[10:00:00.906]',-0.225,-0.025
'[10:00:00.914]',-0.185,-0.005
'[10:00:00.922]',-0.185,-0.025
'[10:00:00.930]',-0.195,-0.045
'[10:00:00.938]',-0.185,-0.035
'[10:00:00.945]',-0.125,-0.025
'[10:00:00.953]',-0.115,-0.025
'[10:00:00.961]',-0.135,-0.055
'[10:00:00.969]',-0.085,-0.045
'[10:00:00.977]',-0.065,-0.055
'[10:00:00.984]',-0.055,-0.075
'[10:00:00.992]',-0.015,-0.075
'[10:00:01.000]',-0.005,-0.065
'[10:00:01.008]',0.025,-0.045
'[10:00:01.016]',0.045,-0.065
'[10:00:01.023]',0.085,-0.035
'[10:00:01.031]',0.105,-0.045
'[10:00:01.039]',0.145,-0.005
'[10:00:01.047]',0.135,0.015
'[10:00:01.055]',0.145,0.035
'[10:00:01.063]',0.105,0.035
'[10:00:01.070]',0.125,0.055
'[10:00:01.078]',0.105,0.045
'[10:00:01.086]',0.095,0.025
'[10:00:01.094]',0.095,0.015
'[10:00:01.102]',0.075,0.015
'[10:00:01.109]',0.085,0.015
'[10:00:01.117]',0.105,0.005
'[10:00:01.125]',0.065,0.005
'[10:00:01.133]',0.075,0.025
'[10:00:01.141]',0.125,0.005
'[10:00:01.148]',0.115,0.005
'[10:00:01.156]',0.145,0.015
'[10:00:01.164]',0.145,0.025
'[10:00:01.172]',0.125,0.025
'[10:00:01.180]',0.115,0.005
'[10:00:01.188]',0.125,0.005
'[10:00:01.195]',0.115,0.015
'[10:00:01.203]',0.115,0.005
'[10:00:01.211]',0.085,-0.005
'[10:00:01.219]',0.095,0.015
'[10:00:01.227]',0.095,0.025
'[10:00:01.234]',0.065,0.015
'[10:00:01.242]',0.085,0.005
'[10:00:01.250]',0.175,0.055
'[10:00:01.258]',0.155,0.135
'[10:00:01.266]',0.155,0.165
'[10:00:01.273]',0.325,0.165
'[10:00:01.281]',0.365,0.195
'[10:00:01.289]',0.325,0.075
'[10:00:01.297]',0.235,0.065
'[10:00:01.305]',0.195,-0.005
'[10:00:01.313]',0.145,-0.025
'[10:00:01.320]',0.045,-0.015
'[10:00:01.328]',-0.065,-0.075
'[10:00:01.336]',-0.095,-0.115
'[10:00:01.344]',-0.075,-0.115
'[10:00:01.352]',-0.065,-0.095
'[10:00:01.359]',-0.055,-0.105
'[10:00:01.367]',-0.055,-0.105
'[10:00:01.375]',-0.015,-0.115
'[10:00:01.383]',-0.315,-0.065
'[10:00:01.391]',-0.585,0.095
'[10:00:01.398]',-0.105,0.385
'[10:00:01.406]',1.445,0.225
'[10:00:01.414]',2.745,-0.415
'[10:00:01.422]',3.275,-1.285
'[10:00:01.430]',2.035,-1.365
'[10:00:01.438]',0.545,-0.975
'[10:00:01.445]',0.015,-0.345
'[10:00:01.453]',-0.185,-0.035
'[10:00:01.461]',-0.245,-0.015
'[10:00:01.469]',-0.245,-0.045
'[10:00:01.477]',-0.225,-0.055
'[10:00:01.484]',-0.225,-0.045
'[10:00:01.492]',-0.225,-0.035
'[10:00:01.500]',-0.215,-0.035
'[10:00:01.508]',-0.185,-0.025
'[10:00:01.516]',-0.195,-0.025
'[10:00:01.523]',-0.195,-0.025
'[10:00:01.531]',-0.195,-0.015
'[10:00:01.539]',-0.185,0.005
'[10:00:01.547]',-0.155,-0.005
'[10:00:01.555]',-0.165,0.005
'[10:00:01.563]',-0.155,-0.015
'[10:00:01.570]',-0.125,0.005
'[10:00:01.578]',-0.115,-0.015
'[10:00:01.586]',-0.105,-0.035
'[10:00:01.594]',-0.105,-0.005
'[10:00:01.602]',-0.075,0.015
'[10:00:01.609]',-0.055,-0.015
'[10:00:01.617]',-0.035,-0.015
'[10:00:01.625]',-0.005,-0.025
'[10:00:01.633]',0.025,-0.015
'[10:00:01.641]',0.035,-0.005
'[10:00:01.648]',0.035,-0.005
'[10:00:01.656]',0.095,0.025
'[10:00:01.664]',0.115,0.075
'[10:00:01.672]',0.155,0.045
'[10:00:01.680]',0.155,0.045
'[10:00:01.688]',0.175,0.065
'[10:00:01.695]',0.165,0.065
'[10:00:01.703]',0.135,0.075
'[10:00:01.711]',0.115,0.055
'[10:00:01.719]',0.105,0.075
'[10:00:01.727]',0.105,0.075
'[10:00:01.734]',0.075,0.005
'[10:00:01.742]',0.075,0.025
'[10:00:01.750]',0.095,0.025
'[10:00:01.758]',0.115,0.025
'[10:00:01.766]',0.085,0.005
'[10:00:01.773]',0.075,0.005
'[10:00:01.781]',0.095,0.005
'[10:00:01.789]',0.115,0.025
'[10:00:01.797]',0.135,0.025
'[10:00:01.805]',0.125,0.025
'[10:00:01.813]',0.135,0.025
'[10:00:01.820]',0.135,0.055
'[10:00:01.828]',0.125,0.025
'[10:00:01.836]',0.115,0.005
'[10:00:01.844]',0.125,0.015
'[10:00:01.852]',0.125,0.025
'[10:00:01.859]',0.115,0.025
'[10:00:01.867]',0.085,0.025
'[10:00:01.875]',0.105,0.025
'[10:00:01.883]',0.085,0.035
'[10:00:01.891]',0.085,0.015
'[10:00:01.898]',0.185,0.045
'[10:00:01.906]',0.215,0.145
'[10:00:01.914]',0.185,0.175
'[10:00:01.922]',0.315,0.175
'[10:00:01.930]',0.415,0.195
'[10:00:01.938]',0.375,0.105
'[10:00:01.945]',0.305,0.085
'[10:00:01.953]',0.245,0.025
'[10:00:01.961]',0.195,-0.025
'[10:00:01.969]',0.105,-0.015
'[10:00:01.977]',0.025,-0.055
'[10:00:01.984]',-0.015,-0.095
'[10:00:01.992]',-0.045,-0.115
'[10:00:02.000]',-0.015,-0.105
'[10:00:02.008]',-0.015,-0.095
'[10:00:02.016]',0.025,-0.095
'[10:00:02.023]',0.055,-0.085
'[10:00:02.031]',0.005,-0.075
'[10:00:02.039]',-0.395,0.035
'[10:00:02.047]',-0.285,0.245
'[10:00:02.055]',0.705,0.375
'[10:00:02.063]',2.345,-0.015
'[10:00:02.070]',3.185,-0.885
'[10:00:02.078]',2.705,-1.335
'[10:00:02.086]',1.035,-1.105
'[10:00:02.094]',0.245,-0.505
'[10:00:02.102]',-0.005,-0.055
'[10:00:02.109]',-0.095,0.025
'[10:00:02.117]',-0.115,-0.005
'[10:00:02.125]',-0.095,-0.035
'[10:00:02.133]',-0.085,-0.015
'[10:00:02.141]',-0.065,-0.015
'[10:00:02.148]',-0.055,-0.005
'[10:00:02.156]',-0.015,0.005
'[10:00:02.164]',0.015,0.015
'[10:00:02.172]',-0.005,0.005
'[10:00:02.180]',0.025,-0.005
'[10:00:02.188]',0.025,0.015
'[10:00:02.195]',0.035,0.015
'[10:00:02.203]',0.085,0.025
'[10:00:02.211]',0.065,0.025
'[10:00:02.219]',0.075,0.035
'[10:00:02.227]',0.095,0.025
'[10:00:02.234]',0.125,0.005
'[10:00:02.242]',0.125,-0.005
'[10:00:02.250]',0.115,0.005
'[10:00:02.258]',0.145,-0.005
'[10:00:02.266]',0.155,-0.005
'[10:00:02.273]',0.165,-0.025
'[10:00:02.281]',0.195,-0.025
'[10:00:02.289]',0.215,-0.015
'[10:00:02.297]',0.225,-0.015
'[10:00:02.305]',0.255,-0.005
'[10:00:02.313]',0.285,0.015
'[10:00:02.320]',0.305,0.045
'[10:00:02.328]',0.345,0.025
'[10:00:02.336]',0.355,0.065
'[10:00:02.344]',0.325,0.075
'[10:00:02.352]',0.315,0.085
'[10:00:02.359]',0.305,0.075
'[10:00:02.367]',0.275,0.055
'[10:00:02.375]',0.265,0.045
'[10:00:02.383]',0.275,0.055
'[10:00:02.391]',0.265,0.045
'[10:00:02.398]',0.255,0.035
'[10:00:02.406]',0.275,0.035
'[10:00:02.414]',0.265,0.035
'[10:00:02.422]',0.275,0.025
'[10:00:02.430]',0.275,0.025
'[10:00:02.438]',0.285,0.045
'[10:00:02.445]',0.285,0.055
'[10:00:02.453]',0.275,0.045
'[10:00:02.461]',0.265,0.015
'[10:00:02.469]',0.275,0.035
'[10:00:02.477]',0.265,0.035
'[10:00:02.484]',0.255,0.035
'[10:00:02.492]',0.255,0.025
'[10:00:02.500]',0.255,0.045
'[10:00:02.508]',0.235,0.035
'[10:00:02.516]',0.235,0.025
'[10:00:02.523]',0.235,0.005
'[10:00:02.531]',0.195,0.005
'[10:00:02.539]',0.205,0.015
'[10:00:02.547]',0.165,-0.005
'[10:00:02.555]',0.175,-0.005
'[10:00:02.563]',0.175,-0.015
'[10:00:02.570]',0.165,0.005
'[10:00:02.578]',0.145,-0.015
'[10:00:02.586]',0.185,-0.005
'[10:00:02.594]',0.275,0.065
'[10:00:02.602]',0.245,0.145
'[10:00:02.609]',0.295,0.155
'[10:00:02.617]',0.425,0.155
'[10:00:02.625]',0.425,0.125
'[10:00:02.633]',0.375,0.095
'[10:00:02.641]',0.295,0.045
'[10:00:02.648]',0.245,-0.015
'[10:00:02.656]',0.155,-0.025
'[10:00:02.664]',0.035,-0.045
'[10:00:02.672]',-0.005,-0.085
'[10:00:02.680]',-0.015,-0.115
'[10:00:02.688]',0.005,-0.115
'[10:00:02.695]',0.005,-0.105
'[10:00:02.703]',0.025,-0.115
'[10:00:02.711]',0.035,-0.105
'[10:00:02.719]',0.015,-0.105
'[10:00:02.727]',-0.375,-0.025
'[10:00:02.734]',-0.425,0.185
'[10:00:02.742]',0.235,0.405
'[10:00:02.750]',1.815,0.135
'[10:00:02.758]',2.865,-0.575
'[10:00:02.766]',2.965,-1.295
'[10:00:02.773]',1.415,-1.215
'[10:00:02.781]',0.325,-0.715
'[10:00:02.789]',-0.035,-0.205
'[10:00:02.797]',-0.155,-0.015
'[10:00:02.805]',-0.185,-0.025
'[10:00:02.813]',-0.175,-0.055
'[10:00:02.820]',-0.165,-0.065
'[10:00:02.828]',-0.175,-0.045
'[10:00:02.836]',-0.185,-0.065
'[10:00:02.844]',-0.185,-0.045
'[10:00:02.852]',-0.155,-0.015
'[10:00:02.859]',-0.155,-0.035
'[10:00:02.867]',-0.165,-0.065
'[10:00:02.875]',-0.155,-0.045
'[10:00:02.883]',-0.155,-0.015
'[10:00:02.891]',-0.125,-0.015
'[10:00:02.898]',-0.135,-0.025
'[10:00:02.906]',-0.105,-0.015
'[10:00:02.914]',-0.095,-0.035
'[10:00:02.922]',-0.085,-0.045
'[10:00:02.930]',-0.065,-0.055
'[10:00:02.938]',-0.055,-0.065
'[10:00:02.945]',-0.055,-0.045
'[10:00:02.953]',-0.055,-0.055
'[10:00:02.961]',-0.035,-0.065
'[10:00:02.969]',-0.015,-0.075
'[10:00:02.977]',0.005,-0.065
'[10:00:02.984]',0.035,-0.075
'[10:00:02.992]',0.055,-0.075
'[10:00:03.000]',0.055,-0.055
'[10:00:03.008]',0.105,-0.035
'[10:00:03.016]',0.125,-0.015
'[10:00:03.023]',0.145,-0.005
'[10:00:03.031]',0.135,0.025
'[10:00:03.039]',0.135,0.035
'[10:00:03.047]',0.105,0.035
'[10:00:03.055]',0.075,0.035
'[10:00:03.063]',0.075,0.025
'[10:00:03.070]',0.055,0.045
'[10:00:03.078]',0.045,0.025
'[10:00:03.086]',0.035,0.015
'[10:00:03.094]',0.025,0.015
'[10:00:03.102]',0.025,0.025
'[10:00:03.109]',0.055,0.005
'[10:00:03.117]',0.055,0.005
'[10:00:03.125]',0.065,-0.005
'[10:00:03.133]',0.055,0.015
'[10:00:03.141]',0.055,0.015
'[10:00:03.148]',0.045,-0.015
'[10:00:03.156]',0.045,-0.005
'[10:00:03.164]',0.035,0.005
'[10:00:03.172]',0.035,-0.015
'[10:00:03.180]',0.025,-0.015
'[10:00:03.188]',0.025,-0.015
'[10:00:03.195]',0.015,-0.005
'[10:00:03.203]',0.005,-0.015
'[10:00:03.211]',-0.015,-0.035
'[10:00:03.219]',-0.025,-0.025
'[10:00:03.227]',-0.025,-0.015
'[10:00:03.234]',-0.045,-0.035
'[10:00:03.242]',-0.045,-0.045
'[10:00:03.250]',-0.065,-0.045
'[10:00:03.258]',-0.075,-0.025
'[10:00:03.266]',-0.095,-0.045
'[10:00:03.273]',-0.095,-0.055
'[10:00:03.281]',-0.075,-0.035
'[10:00:03.289]',0.025,0.025
'[10:00:03.297]',0.035,0.095
'[10:00:03.305]',0.045,0.115
'[10:00:03.313]',0.175,0.125
'[10:00:03.320]',0.205,0.125
'[10:00:03.328]',0.145,0.055
'[10:00:03.336]',0.085,0.005
'[10:00:03.344]',0.035,-0.045
'[10:00:03.352]',-0.055,-0.055
'[10:00:03.359]',-0.165,-0.095
'[10:00:03.367]',-0.235,-0.125
'[10:00:03.375]',-0.235,-0.145
'[10:00:03.383]',-0.205,-0.135
'[10:00:03.391]',-0.205,-0.145
'[10:00:03.398]',-0.205,-0.145
'[10:00:03.406]',-0.185,-0.135
'[10:00:03.414]',-0.155,-0.115
'[10:00:03.422]',-0.535,-0.075
'[10:00:03.430]',-0.635,0.105
'[10:00:03.438]',-0.015,0.375
'[10:00:03.445]',1.665,0.145
'[10:00:03.453]',2.805,-0.545
'[10:00:03.461]',2.735,-1.275
'[10:00:03.469]',1.115,-1.165
'[10:00:03.477]',0.085,-0.725
'[10:00:03.484]',-0.265,-0.235
'[10:00:03.492]',-0.375,-0.065
'[10:00:03.500]',-0.385,-0.075
'[10:00:03.508]',-0.375,-0.085
'[10:00:03.516]',-0.385,-0.085
'[10:00:03.523]',-0.375,-0.085
'[10:00:03.531]',-0.395,-0.085
'[10:00:03.539]',-0.375,-0.085
'[10:00:03.547]',-0.365,-0.075
'[10:00:03.555]',-0.355,-0.085
'[10:00:03.563]',-0.365,-0.075
'[10:00:03.570]',-0.355,-0.065
'[10:00:03.578]',-0.355,-0.075
'[10:00:03.586]',-0.345,-0.065
'[10:00:03.594]',-0.345,-0.065
'[10:00:03.602]',-0.335,-0.065
'[10:00:03.609]',-0.325,-0.065
'[10:00:03.617]',-0.315,-0.075
'[10:00:03.625]',-0.295,-0.085
'[10:00:03.633]',-0.275,-0.085
'[10:00:03.641]',-0.255,-0.095
'[10:00:03.648]',-0.255,-0.105
'[10:00:03.656]',-0.235,-0.115
'[10:00:03.664]',-0.215,-0.105
'[10:00:03.672]',-0.205,-0.125
'[10:00:03.680]',-0.195,-0.125
'[10:00:03.688]',-0.175,-0.105
'[10:00:03.695]',-0.135,-0.095
'[10:00:03.703]',-0.125,-0.085
'[10:00:03.711]',-0.115,-0.075
'[10:00:03.719]',-0.085,-0.035
'[10:00:03.727]',-0.085,-0.015
'[10:00:03.734]',-0.095,0.005
'[10:00:03.742]',-0.115,-0.015
'[10:00:03.750]',-0.135,0.015
'[10:00:03.758]',-0.135,0.005
'[10:00:03.766]',-0.135,0.005
'[10:00:03.773]',-0.185,-0.005
'[10:00:03.781]',-0.195,-0.015
'[10:00:03.789]',-0.185,0.005
'[10:00:03.797]',-0.195,-0.025
'[10:00:03.805]',-0.185,-0.035
'[10:00:03.813]',-0.165,-0.025
'[10:00:03.820]',-0.165,-0.005
'[10:00:03.828]',-0.175,-0.035
'[10:00:03.836]',-0.185,-0.025
'[10:00:03.844]',-0.185,-0.025
'[10:00:03.852]',-0.175,-0.015
'[10:00:03.859]',-0.195,-0.025
'[10:00:03.867]',-0.225,-0.025
'[10:00:03.875]',-0.205,-0.025
'[10:00:03.883]',-0.225,-0.015
'[10:00:03.891]',-0.215,-0.025
'[10:00:03.898]',-0.275,-0.045
'[10:00:03.906]',-0.245,-0.045
'[10:00:03.914]',-0.245,-0.025
'[10:00:03.922]',-0.275,-0.035
'[10:00:03.930]',-0.285,-0.055
'[10:00:03.938]',-0.285,-0.055
'[10:00:03.945]',-0.305,-0.065
'[10:00:03.953]',-0.315,-0.055
'[10:00:03.961]',-0.325,-0.065
'[10:00:03.969]',-0.345,-0.055
'[10:00:03.977]',-0.335,-0.055
'[10:00:03.984]',-0.355,-0.065
'[10:00:03.992]',-0.325,-0.055
'[10:00:04.000]',-0.255,-0.015
'[10:00:04.008]',-0.215,0.095
'[10:00:04.016]',-0.225,0.115
'[10:00:04.023]',-0.105,0.105
'[10:00:04.031]',-0.085,0.105
'[10:00:04.039]',-0.065,0.095
'[10:00:04.047]',-0.195,0.015
'[10:00:04.055]',-0.225,-0.065
'[10:00:04.063]',-0.315,-0.065
'[10:00:04.070]',-0.405,-0.085
'[10:00:04.078]',-0.455,-0.135
'[10:00:04.086]',-0.455,-0.145
'[10:00:04.094]',-0.455,-0.145
'[10:00:04.102]',-0.435,-0.125
'[10:00:04.109]',-0.415,-0.145
'[10:00:04.117]',-0.405,-0.155
'[10:00:04.125]',-0.415,-0.125
'[10:00:04.133]',-0.825,-0.025
'[10:00:04.141]',-0.775,0.215
'[10:00:04.148]',-0.065,0.395
'[10:00:04.156]',1.665,0.135
'[10:00:04.164]',2.785,-0.545
'[10:00:04.172]',2.555,-1.265
'[10:00:04.180]',0.775,-1.175
'[10:00:04.188]',-0.195,-0.685
'[10:00:04.195]',-0.505,-0.205
'[10:00:04.203]',-0.595,-0.055
'[10:00:04.211]',-0.625,-0.075
'[10:00:04.219]',-0.625,-0.085
'[10:00:04.227]',-0.605,-0.075
'[10:00:04.234]',-0.605,-0.075
'[10:00:04.242]',-0.595,-0.085
'[10:00:04.250]',-0.605,-0.075
'[10:00:04.258]',-0.585,-0.065
'[10:00:04.266]',-0.575,-0.075
'[10:00:04.273]',-0.585,-0.065
'[10:00:04.281]',-0.565,-0.055
'[10:00:04.289]',-0.555,-0.035
'[10:00:04.297]',-0.565,-0.085
'[10:00:04.305]',-0.555,-0.075
'[10:00:04.313]',-0.555,-0.075
'[10:00:04.320]',-0.535,-0.065
'[10:00:04.328]',-0.505,-0.075
'[10:00:04.336]',-0.485,-0.075
'[10:00:04.344]',-0.475,-0.085
'[10:00:04.352]',-0.465,-0.085
'[10:00:04.359]',-0.455,-0.105
'[10:00:04.367]',-0.455,-0.115
'[10:00:04.375]',-0.425,-0.125
'[10:00:04.383]',-0.405,-0.115
'[10:00:04.391]',-0.395,-0.135
'[10:00:04.398]',-0.395,-0.115
'[10:00:04.406]',-0.365,-0.095
'[10:00:04.414]',-0.335,-0.085
'[10:00:04.422]',-0.305,-0.075
'[10:00:04.430]',-0.285,-0.055
'[10:00:04.438]',-0.275,-0.035
'[10:00:04.445]',-0.285,0.015
'[10:00:04.453]',-0.295,0.025
'[10:00:04.461]',-0.335,0.005
'[10:00:04.469]',-0.335,0.015
'[10:00:04.477]',-0.335,0.015
'[10:00:04.484]',-0.345,0.005
'[10:00:04.492]',-0.345,-0.005
'[10:00:04.500]',-0.335,0.005
'[10:00:04.508]',-0.335,0.015
'[10:00:04.516]',-0.325,-0.015
'[10:00:04.523]',-0.325,-0.015
'[10:00:04.531]',-0.305,-0.005
'[10:00:04.539]',-0.275,0.005
'[10:00:04.547]',-0.295,-0.005
'[10:00:04.555]',-0.295,-0.015
'[10:00:04.563]',-0.285,-0.015
'[10:00:04.570]',-0.285,0.005
'[10:00:04.578]',-0.275,-0.025
'[10:00:04.586]',-0.305,-0.035
'[10:00:04.594]',-0.265,-0.025
'[10:00:04.602]',-0.285,-0.035
'[10:00:04.609]',-0.305,-0.015
'[10:00:04.617]',-0.295,-0.025
'[10:00:04.625]',-0.305,-0.025
'[10:00:04.633]',-0.305,-0.015
'[10:00:04.641]',-0.305,-0.025
'[10:00:04.648]',-0.325,-0.045
'[10:00:04.656]',-0.315,-0.045
'[10:00:04.664]',-0.315,-0.025
'[10:00:04.672]',-0.245,-0.015
'[10:00:04.680]',-0.205,0.055
'[10:00:04.688]',-0.185,0.115
'[10:00:04.695]',-0.105,0.125
'[10:00:04.703]',-0.025,0.155
'[10:00:04.711]',-0.055,0.055
'[10:00:04.719]',-0.075,0.005
'[10:00:04.727]',-0.135,-0.035
'[10:00:04.734]',-0.185,-0.035
'[10:00:04.742]',-0.295,-0.065
'[10:00:04.750]',-0.365,-0.105
'[10:00:04.758]',-0.365,-0.135
'[10:00:04.766]',-0.345,-0.125
'[10:00:04.773]',-0.345,-0.135
'[10:00:04.781]',-0.325,-0.145
'[10:00:04.789]',-0.295,-0.115
'[10:00:04.797]',-0.265,-0.115
'[10:00:04.805]',-0.335,-0.115
'[10:00:04.813]',-0.735,0.005
'[10:00:04.820]',-0.615,0.255
'[10:00:04.828]',0.175,0.415
'[10:00:04.836]',2.015,0.175
'[10:00:04.844]',3.095,-0.575
'[10:00:04.852]',2.415,-1.275
'[10:00:04.859]',0.705,-1.145
'[10:00:04.867]',-0.035,-0.645
'[10:00:04.875]',-0.275,-0.225
'[10:00:04.883]',-0.345,-0.025
'[10:00:04.891]',-0.375,-0.045
'[10:00:04.898]',-0.395,-0.075
'[10:00:04.906]',-0.355,-0.065
'[10:00:04.914]',-0.335,-0.055
'[10:00:04.922]',-0.315,-0.065
'[10:00:04.930]',-0.305,-0.075
'[10:00:04.938]',-0.285,-0.055
'[10:00:04.945]',-0.285,-0.055
'[10:00:04.953]',-0.275,-0.045
'[10:00:04.961]',-0.265,-0.055
'[10:00:04.969]',-0.255,-0.045
'[10:00:04.977]',-0.235,-0.045
'[10:00:04.984]',-0.205,-0.045
'[10:00:04.992]',-0.175,-0.055
'[10:00:05.000]',-0.175,-0.055
'[10:00:05.008]',-0.135,-0.045
'[10:00:05.016]',-0.145,-0.055
'[10:00:05.023]',-0.135,-0.055
'[10:00:05.031]',-0.115,-0.075
'[10:00:05.039]',-0.085,-0.085
'[10:00:05.047]',-0.085,-0.095
'[10:00:05.055]',-0.065,-0.105
'[10:00:05.063]',-0.035,-0.105
'[10:00:05.070]',-0.015,-0.085
'[10:00:05.078]',-0.005,-0.095
'[10:00:05.086]',0.005,-0.095
'[10:00:05.094]',0.025,-0.085
'[10:00:05.102]',0.065,-0.055
'[10:00:05.109]',0.085,-0.015
'[10:00:05.117]',0.075,-0.005
'[10:00:05.125]',0.085,0.015
'[10:00:05.133]',0.055,0.045
'[10:00:05.141]',0.035,0.065
'[10:00:05.148]',0.015,0.045
'[10:00:05.156]',0.035,0.055
'[10:00:05.164]',0.015,0.025
'[10:00:05.172]',0.025,0.045
'[10:00:05.180]',0.015,0.025
'[10:00:05.188]',0.035,0.035
'[10:00:05.195]',0.045,0.035
'[10:00:05.203]',0.055,0.035
'[10:00:05.211]',0.075,0.015
'[10:00:05.219]',0.065,0.025
'[10:00:05.227]',0.055,0.045
'[10:00:05.234]',0.045,0.035
'[10:00:05.242]',0.065,0.025
'[10:00:05.250]',0.055,0.005
'[10:00:05.258]',0.085,0.035
'[10:00:05.266]',0.075,0.015
'[10:00:05.273]',0.055,0.005
'[10:00:05.281]',0.045,0.005
'[10:00:05.289]',0.055,0.015
'[10:00:05.297]',0.025,-0.015
'[10:00:05.305]',0.025,-0.005
'[10:00:05.313]',0.015,-0.005
'[10:00:05.320]',0.015,-0.005
'[10:00:05.328]',0.025,-0.015
'[10:00:05.336]',-0.015,-0.025
'[10:00:05.344]',-0.015,-0.015
'[10:00:05.352]',-0.025,-0.005
'[10:00:05.359]',0.065,-0.005
'[10:00:05.367]',0.095,0.085
'[10:00:05.375]',0.095,0.125
'[10:00:05.383]',0.185,0.145
'[10:00:05.391]',0.265,0.165
'[10:00:05.398]',0.225,0.075
'[10:00:05.406]',0.195,0.055
'[10:00:05.414]',0.135,0.005
'[10:00:05.422]',0.045,-0.035
'[10:00:05.430]',-0.095,-0.075
'[10:00:05.438]',-0.145,-0.115
'[10:00:05.445]',-0.155,-0.115
'[10:00:05.453]',-0.145,-0.125
'[10:00:05.461]',-0.145,-0.135
'[10:00:05.469]',-0.135,-0.125
'[10:00:05.477]',-0.115,-0.115
'[10:00:05.484]',-0.065,-0.105
'[10:00:05.492]',-0.345,-0.095
'[10:00:05.500]',-0.625,0.105
'[10:00:05.508]',-0.245,0.385
'[10:00:05.516]',1.215,0.205
'[10:00:05.523]',2.635,-0.385
'[10:00:05.531]',3.135,-1.235
'[10:00:05.539]',1.845,-1.335
'[10:00:05.547]',0.415,-0.945
'[10:00:05.555]',-0.065,-0.375
'[10:00:05.563]',-0.245,-0.055
'[10:00:05.570]',-0.275,-0.015
'[10:00:05.578]',-0.285,-0.065
'[10:00:05.586]',-0.295,-0.065
'[10:00:05.594]',-0.295,-0.075
'[10:00:05.602]',-0.275,-0.055
'[10:00:05.609]',-0.275,-0.065
'[10:00:05.617]',-0.285,-0.065
'[10:00:05.625]',-0.265,-0.055
'[10:00:05.633]',-0.265,-0.045
'[10:00:05.641]',-0.245,-0.045
'[10:00:05.648]',-0.255,-0.055
'[10:00:05.656]',-0.255,-0.045
'[10:00:05.664]',-0.215,-0.055
'[10:00:05.672]',-0.225,-0.055
'[10:00:05.680]',-0.215,-0.045
'[10:00:05.688]',-0.205,-0.035
'[10:00:05.695]',-0.175,-0.045
'[10:00:05.703]',-0.165,-0.045
'[10:00:05.711]',-0.145,-0.065
'[10:00:05.719]',-0.125,-0.055
'[10:00:05.727]',-0.095,-0.055
'[10:00:05.734]',-0.085,-0.065
'[10:00:05.742]',-0.055,-0.075
'[10:00:05.750]',-0.045,-0.075
'[10:00:05.758]',-0.005,-0.055
'[10:00:05.766]',-0.005,-0.065
'[10:00:05.773]',0.025,-0.065
'[10:00:05.781]',0.055,-0.055
'[10:00:05.789]',0.095,-0.015
'[10:00:05.797]',0.085,-0.005
'[10:00:05.805]',0.085,0.005
'[10:00:05.813]',0.085,0.005
'[10:00:05.820]',0.075,0.035
'[10:00:05.828]',0.045,0.005
'[10:00:05.836]',0.015,-0.005
'[10:00:05.844]',0.015,0.005
'[10:00:05.852]',0.005,-0.005
'[10:00:05.859]',-0.005,-0.015
'[10:00:05.867]',0.015,-0.015
'[10:00:05.875]',0.015,-0.015
'[10:00:05.883]',0.025,-0.005
'[10:00:05.891]',0.025,-0.005
'[10:00:05.898]',0.005,-0.045
'[10:00:05.906]',0.025,-0.045
'[10:00:05.914]',0.035,-0.045
'[10:00:05.922]',0.025,-0.015
'[10:00:05.930]',0.025,-0.025
'[10:00:05.938]',-0.005,-0.025
'[10:00:05.945]',0.025,-0.015
'[10:00:05.953]',0.035,-0.025
'[10:00:05.961]',0.015,-0.045
'[10:00:05.969]',0.005,-0.035
'[10:00:05.977]',0.005,-0.045
'[10:00:05.984]',-0.005,-0.045
'[10:00:05.992]',-0.005,-0.055
'[10:00:06.000]',-0.025,-0.045
'[10:00:06.008]',-0.035,-0.045
'[10:00:06.016]',-0.035,-0.035
'[10:00:06.023]',-0.055,-0.025
'[10:00:06.031]',-0.065,-0.055
'[10:00:06.039]',-0.075,-0.045
'[10:00:06.047]',-0.065,-0.035
'[10:00:06.055]',0.015,-0.005
'[10:00:06.063]',0.045,0.085
'[10:00:06.070]',0.005,0.085
'[10:00:06.078]',0.135,0.115
'[10:00:06.086]',0.225,0.125
'[10:00:06.094]',0.185,0.055
'[10:00:06.102]',0.125,0.025
'[10:00:06.109]',0.005,-0.015
'[10:00:06.117]',-0.105,-0.015
'[10:00:06.125]',-0.225,-0.065
'[10:00:06.133]',-0.255,-0.105
'[10:00:06.141]',-0.235,-0.115
'[10:00:06.148]',-0.235,-0.125
'[10:00:06.156]',-0.245,-0.115
'[10:00:06.164]',-0.235,-0.095
'[10:00:06.172]',-0.235,-0.095
'[10:00:06.180]',-0.175,-0.105
'[10:00:06.188]',-0.525,-0.075
'[10:00:06.195]',-0.665,0.095
'[10:00:06.203]',-0.165,0.375
'[10:00:06.211]',1.335,0.215
'[10:00:06.219]',2.615,-0.325
'[10:00:06.227]',2.865,-1.105
'[10:00:06.234]',1.295,-1.165
'[10:00:06.242]',0.125,-0.825
'[10:00:06.250]',-0.225,-0.285
'[10:00:06.258]',-0.345,-0.025
'[10:00:06.266]',-0.355,-0.045
'[10:00:06.273]',-0.365,-0.055
'[10:00:06.281]',-0.375,-0.055
'[10:00:06.289]',-0.385,-0.045
'[10:00:06.297]',-0.355,-0.045
'[10:00:06.305]',-0.335,-0.055
'[10:00:06.313]',-0.315,-0.055
'[10:00:06.320]',-0.325,-0.045
'[10:00:06.328]',-0.335,-0.065
'[10:00:06.336]',-0.325,-0.055
'[10:00:06.344]',-0.295,-0.045
'[10:00:06.352]',-0.295,-0.035
'[10:00:06.359]',-0.295,-0.055
'[10:00:06.367]',-0.275,-0.055
'[10:00:06.375]',-0.275,-0.065
'[10:00:06.383]',-0.265,-0.055
'[10:00:06.391]',-0.255,-0.075
'[10:00:06.398]',-0.215,-0.065
'[10:00:06.406]',-0.185,-0.075
'[10:00:06.414]',-0.175,-0.075
'[10:00:06.422]',-0.155,-0.095
'[10:00:06.430]',-0.125,-0.115
'[10:00:06.438]',-0.115,-0.105
'[10:00:06.445]',-0.085,-0.075
'[10:00:06.453]',-0.055,-0.095
'[10:00:06.461]',-0.035,-0.105
'[10:00:06.469]',-0.015,-0.065
'[10:00:06.477]',0.005,-0.045
'[10:00:06.484]',0.005,-0.045
'[10:00:06.492]',0.005,-0.015
'[10:00:06.500]',-0.005,0.015
'[10:00:06.508]',-0.025,0.025
'[10:00:06.516]',-0.045,0.015
'[10:00:06.523]',-0.065,-0.005
'[10:00:06.531]',-0.095,-0.005
'[10:00:06.539]',-0.065,0.025
'[10:00:06.547]',-0.105,0.005
'[10:00:06.555]',-0.105,-0.025
'[10:00:06.563]',-0.095,-0.025
'[10:00:06.570]',-0.065,-0.025
'[10:00:06.578]',-0.065,-0.035
'[10:00:06.586]',-0.095,-0.035
'[10:00:06.594]',-0.075,-0.025
'[10:00:06.602]',-0.075,-0.015
'[10:00:06.609]',-0.055,-0.045
'[10:00:06.617]',-0.055,-0.035
'[10:00:06.625]',-0.055,-0.045
'[10:00:06.633]',-0.065,-0.045
'[10:00:06.641]',-0.055,-0.045
'[10:00:06.648]',-0.095,-0.055
'[10:00:06.656]',-0.095,-0.055
'[10:00:06.664]',-0.125,-0.055
'[10:00:06.672]',-0.115,-0.055
'[10:00:06.680]',-0.125,-0.065
'[10:00:06.688]',-0.115,-0.065
'[10:00:06.695]',-0.125,-0.065
'[10:00:06.703]',-0.135,-0.075
'[10:00:06.711]',-0.175,-0.085
'[10:00:06.719]',-0.185,-0.065
'[10:00:06.727]',-0.155,-0.085
'[10:00:06.734]',-0.175,-0.075
'[10:00:06.742]',-0.185,-0.085
'[10:00:06.750]',-0.175,-0.085
'[10:00:06.758]',-0.085,-0.035
'[10:00:06.766]',-0.075,0.055
'[10:00:06.773]',-0.065,0.055
'[10:00:06.781]',0.095,0.085
'[10:00:06.789]',0.105,0.065
'[10:00:06.797]',0.015,-0.005
'[10:00:06.805]',-0.025,-0.065
'[10:00:06.813]',-0.055,-0.095
'[10:00:06.820]',-0.175,-0.085
'[10:00:06.828]',-0.295,-0.145
'[10:00:06.836]',-0.345,-0.195
'[10:00:06.844]',-0.335,-0.195
'[10:00:06.852]',-0.325,-0.185
'[10:00:06.859]',-0.325,-0.205
'[10:00:06.867]',-0.315,-0.185
'[10:00:06.875]',-0.305,-0.195
'[10:00:06.883]',-0.265,-0.175
'[10:00:06.891]',-0.625,-0.155
'[10:00:06.898]',-0.775,0.005
'[10:00:06.906]',-0.265,0.305
'[10:00:06.914]',1.335,0.125
'[10:00:06.922]',2.555,-0.425
'[10:00:06.930]',2.635,-1.225
'[10:00:06.938]',0.965,-1.275
'[10:00:06.945]',-0.065,-0.795
'[10:00:06.953]',-0.435,-0.305
'[10:00:06.961]',-0.505,-0.115
'[10:00:06.969]',-0.535,-0.115
'[10:00:06.977]',-0.535,-0.125
'[10:00:06.984]',-0.565,-0.125
'[10:00:06.992]',-0.545,-0.155
'[10:00:07.000]',-0.545,-0.135
'[10:00:07.008]',-0.535,-0.115
'[10:00:07.016]',-0.555,-0.135
'[10:00:07.023]',-0.545,-0.135
'[10:00:07.031]',-0.555,-0.135
'[10:00:07.039]',-0.555,-0.105
'[10:00:07.047]',-0.555,-0.125
'[10:00:07.055]',-0.555,-0.115
'[10:00:07.063]',-0.545,-0.125
'[10:00:07.070]',-0.535,-0.105
'[10:00:07.078]',-0.535,-0.115
'[10:00:07.086]',-0.525,-0.145
'[10:00:07.094]',-0.505,-0.145
'[10:00:07.102]',-0.495,-0.145
'[10:00:07.109]',-0.475,-0.165
'[10:00:07.117]',-0.455,-0.165
'[10:00:07.125]',-0.435,-0.165
'[10:00:07.133]',-0.415,-0.165
'[10:00:07.141]',-0.405,-0.155
'[10:00:07.148]',-0.395,-0.165
'[10:00:07.156]',-0.385,-0.175
'[10:00:07.164]',-0.375,-0.175
'[10:00:07.172]',-0.335,-0.165
'[10:00:07.180]',-0.305,-0.135
'[10:00:07.188]',-0.305,-0.105
'[10:00:07.195]',-0.295,-0.075
'[10:00:07.203]',-0.345,-0.055
'[10:00:07.211]',-0.375,-0.055
'[10:00:07.219]',-0.385,-0.045
'[10:00:07.227]',-0.425,-0.045
'[10:00:07.234]',-0.415,-0.045
'[10:00:07.242]',-0.415,-0.055
'[10:00:07.250]',-0.445,-0.045
'[10:00:07.258]',-0.445,-0.055
'[10:00:07.266]',-0.445,-0.055
'[10:00:07.273]',-0.465,-0.095
'[10:00:07.281]',-0.465,-0.065
'[10:00:07.289]',-0.445,-0.055
'[10:00:07.297]',-0.415,-0.065
'[10:00:07.305]',-0.405,-0.065
'[10:00:07.313]',-0.445,-0.055
'[10:00:07.320]',-0.425,-0.065
'[10:00:07.328]',-0.445,-0.065
'[10:00:07.336]',-0.445,-0.065
'[10:00:07.344]',-0.445,-0.085
'[10:00:07.352]',-0.445,-0.065
'[10:00:07.359]',-0.455,-0.055
'[10:00:07.367]',-0.475,-0.055
'[10:00:07.375]',-0.485,-0.095
'[10:00:07.383]',-0.495,-0.075
'[10:00:07.391]',-0.475,-0.085
'[10:00:07.398]',-0.505,-0.075
'[10:00:07.406]',-0.535,-0.085
'[10:00:07.414]',-0.535,-0.085
'[10:00:07.422]',-0.535,-0.085
'[10:00:07.430]',-0.485,-0.075
'[10:00:07.438]',-0.435,0.005
'[10:00:07.445]',-0.455,0.045
'[10:00:07.453]',-0.355,0.035
'[10:00:07.461]',-0.275,0.085
'[10:00:07.469]',-0.305,-0.015
'[10:00:07.477]',-0.335,-0.015
'[10:00:07.484]',-0.405,-0.065
'[10:00:07.492]',-0.455,-0.115
'[10:00:07.500]',-0.545,-0.085
'[10:00:07.508]',-0.605,-0.135
'[10:00:07.516]',-0.645,-0.145
'[10:00:07.523]',-0.655,-0.175
'[10:00:07.531]',-0.635,-0.175
'[10:00:07.539]',-0.645,-0.175
'[10:00:07.547]',-0.615,-0.145
'[10:00:07.555]',-0.545,-0.155
'[10:00:07.563]',-0.705,-0.145
'[10:00:07.570]',-1.065,-0.035
'[10:00:07.578]',-0.935,0.185
'[10:00:07.586]',0.105,0.375
'[10:00:07.594]',1.975,0.145
'[10:00:07.602]',2.885,-0.555
'[10:00:07.609]',1.855,-1.235
'[10:00:07.617]',0.085,-1.145
'[10:00:07.625]',-0.525,-0.675
'[10:00:07.633]',-0.715,-0.255
'[10:00:07.641]',-0.795,-0.105
'[10:00:07.648]',-0.785,-0.105
'[10:00:07.656]',-0.735,-0.135
'[10:00:07.664]',-0.745,-0.105
'[10:00:07.672]',-0.735,-0.105
'[10:00:07.680]',-0.735,-0.105
'[10:00:07.688]',-0.735,-0.105
'[10:00:07.695]',-0.715,-0.095
'[10:00:07.703]',-0.675,-0.095
'[10:00:07.711]',-0.695,-0.085
'[10:00:07.719]',-0.705,-0.115
'[10:00:07.727]',-0.685,-0.095
'[10:00:07.734]',-0.685,-0.095
'[10:00:07.742]',-0.705,-0.095
'[10:00:07.750]',-0.665,-0.095
'[10:00:07.758]',-0.635,-0.105
'[10:00:07.766]',-0.645,-0.115
'[10:00:07.773]',-0.655,-0.125
'[10:00:07.781]',-0.665,-0.135
'[10:00:07.789]',-0.635,-0.145
'[10:00:07.797]',-0.655,-0.145
'[10:00:07.805]',-0.655,-0.165
'[10:00:07.813]',-0.615,-0.165
'[10:00:07.820]',-0.605,-0.165
'[10:00:07.828]',-0.545,-0.195
'[10:00:07.836]',-0.585,-0.195
'[10:00:07.844]',-0.535,-0.165
'[10:00:07.852]',-0.515,-0.165
'[10:00:07.859]',-0.545,-0.135
'[10:00:07.867]',-0.545,-0.125
'[10:00:07.875]',-0.545,-0.105
'[10:00:07.883]',-0.545,-0.055
'[10:00:07.891]',-0.555,-0.035
'[10:00:07.898]',-0.565,-0.025
'[10:00:07.906]',-0.605,-0.025
'[10:00:07.914]',-0.655,-0.005
'[10:00:07.922]',-0.615,-0.005
'[10:00:07.930]',-0.645,-0.015
'[10:00:07.938]',-0.695,0.005
'[10:00:07.945]',-0.665,-0.005
'[10:00:07.953]',-0.655,-0.015
'[10:00:07.961]',-0.625,-0.025
'[10:00:07.969]',-0.645,-0.025
'[10:00:07.977]',-0.655,-0.015
'[10:00:07.984]',-0.595,-0.015
'[10:00:07.992]',-0.605,-0.015
'[10:00:08.000]',-0.635,-0.005
'[10:00:08.008]',-0.635,-0.005
'[10:00:08.016]',-0.635,-0.025
'[10:00:08.023]',-0.645,-0.035
'[10:00:08.031]',-0.645,-0.025
'[10:00:08.039]',-0.635,-0.005
'[10:00:08.047]',-0.645,-0.015
'[10:00:08.055]',-0.615,-0.015
'[10:00:08.063]',-0.635,-0.005
'[10:00:08.070]',-0.635,0.005
'[10:00:08.078]',-0.595,0.025
'[10:00:08.086]',-0.575,0.065
'[10:00:08.094]',-0.585,0.075
'[10:00:08.102]',-0.455,0.115
'[10:00:08.109]',-0.465,0.105
'[10:00:08.117]',-0.475,-0.015
'[10:00:08.125]',-0.495,-0.005
'[10:00:08.133]',-0.545,-0.045
'[10:00:08.141]',-0.625,-0.045
'[10:00:08.148]',-0.715,-0.045
'[10:00:08.156]',-0.765,-0.105
'[10:00:08.164]',-0.765,-0.135
'[10:00:08.172]',-0.755,-0.135
'[10:00:08.180]',-0.725,-0.165
'[10:00:08.188]',-0.725,-0.145
'[10:00:08.195]',-0.705,-0.115
'[10:00:08.203]',-0.635,-0.105
'[10:00:08.211]',-0.965,-0.115
'[10:00:08.219]',-1.175,0.065
'[10:00:08.227]',-0.595,0.245
'[10:00:08.234]',1.085,0.345
'[10:00:08.242]',2.535,-0.055
'[10:00:08.250]',2.815,-0.765
'[10:00:08.258]',1.005,-1.255
'[10:00:08.266]',-0.435,-0.915
'[10:00:08.273]',-0.735,-0.425
'[10:00:08.281]',-0.765,-0.135
'[10:00:08.289]',-0.735,-0.095
'[10:00:08.297]',-0.735,-0.105
'[10:00:08.305]',-0.745,-0.105
'[10:00:08.313]',-0.695,-0.105
'[10:00:08.320]',-0.675,-0.095
'[10:00:08.328]',-0.675,-0.115
'[10:00:08.336]',-0.645,-0.095
'[10:00:08.344]',-0.635,-0.095
'[10:00:08.352]',-0.605,-0.075
'[10:00:08.359]',-0.615,-0.085
'[10:00:08.367]',-0.615,-0.105
'[10:00:08.375]',-0.555,-0.095
'[10:00:08.383]',-0.525,-0.095
'[10:00:08.391]',-0.525,-0.105
'[10:00:08.398]',-0.525,-0.095
'[10:00:08.406]',-0.475,-0.095
'[10:00:08.414]',-0.455,-0.095
'[10:00:08.422]',-0.425,-0.115
'[10:00:08.430]',-0.395,-0.135
'[10:00:08.438]',-0.365,-0.145
'[10:00:08.445]',-0.315,-0.135
'[10:00:08.453]',-0.335,-0.165
'[10:00:08.461]',-0.345,-0.185
'[10:00:08.469]',-0.295,-0.175
'[10:00:08.477]',-0.255,-0.175
'[10:00:08.484]',-0.265,-0.165
'[10:00:08.492]',-0.215,-0.155
'[10:00:08.500]',-0.145,-0.145
'[10:00:08.508]',-0.185,-0.095
'[10:00:08.516]',-0.145,-0.055
'[10:00:08.523]',-0.175,-0.055
'[10:00:08.531]',-0.255,-0.035
'[10:00:08.539]',-0.215,-0.015
'[10:00:08.547]',-0.165,-0.025
'[10:00:08.555]',-0.215,-0.015
'[10:00:08.563]',-0.165,-0.025
'[10:00:08.570]',-0.115,-0.005
'[10:00:08.578]',-0.145,-0.005
'[10:00:08.586]',-0.165,-0.015
'[10:00:08.594]',-0.145,-0.015
'[10:00:08.602]',-0.115,-0.015
'[10:00:08.609]',-0.135,-0.015
'[10:00:08.617]',-0.095,-0.015
'[10:00:08.625]',-0.075,-0.025
'[10:00:08.633]',-0.035,-0.015
'[10:00:08.641]',-0.015,-0.025
'[10:00:08.648]',-0.035,0.005
'[10:00:08.656]',-0.035,-0.015
'[10:00:08.664]',-0.035,-0.015
'[10:00:08.672]',-0.045,-0.015
'[10:00:08.680]',-0.065,-0.025
'[10:00:08.688]',-0.045,-0.025
'[10:00:08.695]',-0.035,-0.025
'[10:00:08.703]',-0.015,-0.015
'[10:00:08.711]',-0.025,-0.005
'[10:00:08.719]',-0.045,-0.005
'[10:00:08.727]',0.025,-0.015
'[10:00:08.734]',0.085,0.055
'[10:00:08.742]',0.095,0.105
'[10:00:08.750]',0.155,0.105
'[10:00:08.758]',0.225,0.135
'[10:00:08.766]',0.195,0.085
'[10:00:08.773]',0.245,0.005
'[10:00:08.781]',0.155,-0.005
'[10:00:08.789]',0.125,-0.025
'[10:00:08.797]',0.045,-0.025
'[10:00:08.805]',-0.095,-0.065
'[10:00:08.813]',-0.165,-0.105
'[10:00:08.820]',-0.085,-0.115
'[10:00:08.828]',-0.045,-0.105
'[10:00:08.836]',-0.025,-0.105
'[10:00:08.844]',-0.005,-0.095
'[10:00:08.852]',0.035,-0.095
'[10:00:08.859]',-0.085,-0.085
'[10:00:08.867]',-0.535,0.025
'[10:00:08.875]',-0.475,0.225
'[10:00:08.883]',0.465,0.425
'[10:00:08.891]',2.185,0.055
'[10:00:08.898]',3.055,-0.725
'[10:00:08.906]',3.135,-1.385
'[10:00:08.914]',1.305,-1.375
'[10:00:08.922]',0.235,-0.705
'[10:00:08.930]',-0.085,-0.195
'[10:00:08.938]',-0.115,-0.015
'[10:00:08.945]',-0.135,-0.015
'[10:00:08.953]',-0.145,-0.045
'[10:00:08.961]',-0.115,-0.045
'[10:00:08.969]',-0.115,-0.035
'[10:00:08.977]',-0.085,-0.055
'[10:00:08.984]',-0.115,-0.045
'[10:00:08.992]',-0.085,-0.025
'[10:00:09.000]',-0.075,-0.045
'[10:00:09.008]',-0.055,-0.015
'[10:00:09.016]',-0.075,-0.035
'[10:00:09.023]',-0.005,0.005
'[10:00:09.031]',0.005,-0.005
'[10:00:09.039]',-0.015,0.015
'[10:00:09.047]',0.005,0.015
'[10:00:09.055]',0.005,-0.015
'[10:00:09.063]',0.035,0.005
'[10:00:09.070]',0.075,0.015
'[10:00:09.078]',0.055,-0.015
'[10:00:09.086]',0.085,-0.015
'[10:00:09.094]',0.155,-0.015
'[10:00:09.102]',0.245,0.025
'[10:00:09.109]',0.175,-0.005
'[10:00:09.117]',0.205,-0.085
'[10:00:09.125]',0.265,-0.085
'[10:00:09.133]',0.265,-0.025
'[10:00:09.141]',0.325,-0.055
'[10:00:09.148]',0.295,-0.045
'[10:00:09.156]',0.305,0.005
'[10:00:09.164]',0.305,0.005
'[10:00:09.172]',0.315,0.015
'[10:00:09.180]',0.315,0.025
'[10:00:09.188]',0.235,0.045
'[10:00:09.195]',0.195,0.005
'[10:00:09.203]',0.175,-0.005
'[10:00:09.211]',0.155,0.015
'[10:00:09.219]',0.215,0.015
'[10:00:09.227]',0.215,-0.015
'[10:00:09.234]',0.145,0.015
'[10:00:09.242]',0.165,-0.055
'[10:00:09.250]',0.195,-0.025
'[10:00:09.258]',0.205,0.015
'[10:00:09.266]',0.195,0.005
'[10:00:09.273]',0.225,-0.025
'[10:00:09.281]',0.235,-0.005
'[10:00:09.289]',0.225,0.035
'[10:00:09.297]',0.185,-0.005
'[10:00:09.305]',0.175,-0.015
'[10:00:09.313]',0.185,0.005
'[10:00:09.320]',0.185,-0.005
'[10:00:09.328]',0.215,0.005
'[10:00:09.336]',0.245,-0.005
'[10:00:09.344]',0.205,0.035
'[10:00:09.352]',0.195,-0.005
'[10:00:09.359]',0.215,-0.025
'[10:00:09.367]',0.165,0.005
'[10:00:09.375]',0.155,-0.015
'[10:00:09.383]',0.185,-0.005
'[10:00:09.391]',0.235,0.005
'[10:00:09.398]',0.305,0.055
'[10:00:09.406]',0.305,0.125
'[10:00:09.414]',0.305,0.145
'[10:00:09.422]',0.435,0.135
'[10:00:09.430]',0.465,0.125
'[10:00:09.438]',0.425,0.005
'[10:00:09.445]',0.355,0.025
'[10:00:09.453]',0.305,-0.005
'[10:00:09.461]',0.225,-0.035
'[10:00:09.469]',0.165,-0.025
'[10:00:09.477]',0.055,-0.095
'[10:00:09.484]',0.045,-0.105
'[10:00:09.492]',0.065,-0.145
'[10:00:09.500]',0.045,-0.125
'[10:00:09.508]',0.065,-0.125
'[10:00:09.516]',0.095,-0.105
'[10:00:09.523]',0.075,-0.085
'[10:00:09.531]',-0.055,-0.135
'[10:00:09.539]',-0.425,0.025
'[10:00:09.547]',-0.195,0.285
'[10:00:09.555]',1.095,0.305
'[10:00:09.563]',2.595,-0.195
'[10:00:09.570]',3.275,-1.075
'[10:00:09.578]',2.415,-1.465
'[10:00:09.586]',0.715,-1.145
'[10:00:09.594]',0.085,-0.475
'[10:00:09.602]',-0.075,-0.075
'[10:00:09.609]',-0.085,-0.025
'[10:00:09.617]',-0.095,-0.055
'[10:00:09.625]',-0.095,-0.085
'[10:00:09.633]',-0.105,-0.065
'[10:00:09.641]',-0.075,-0.075
'[10:00:09.648]',-0.085,-0.075
'[10:00:09.656]',-0.075,-0.055
'[10:00:09.664]',-0.065,-0.055
'[10:00:09.672]',-0.045,-0.065
'[10:00:09.680]',-0.065,-0.055
'[10:00:09.688]',-0.075,-0.045
'[10:00:09.695]',-0.065,-0.045
'[10:00:09.703]',-0.035,-0.045
'[10:00:09.711]',-0.035,-0.055
'[10:00:09.719]',-0.005,-0.045
'[10:00:09.727]',0.015,-0.055
'[10:00:09.734]',0.035,-0.045
'[10:00:09.742]',0.075,-0.065
'[10:00:09.750]',0.095,-0.075
'[10:00:09.758]',0.115,-0.065
'[10:00:09.766]',0.145,-0.075
'[10:00:09.773]',0.175,-0.075
'[10:00:09.781]',0.195,-0.075
'[10:00:09.789]',0.245,-0.085
'[10:00:09.797]',0.265,-0.075
'[10:00:09.805]',0.275,-0.075
'[10:00:09.813]',0.305,-0.085
'[10:00:09.820]',0.325,-0.045
'[10:00:09.828]',0.325,-0.055
'[10:00:09.836]',0.295,-0.035
'[10:00:09.844]',0.315,-0.025
'[10:00:09.852]',0.275,0.005
'[10:00:09.859]',0.245,0.005
'[10:00:09.867]',0.215,-0.025
'[10:00:09.875]',0.195,-0.035
'[10:00:09.883]',0.185,-0.005
'[10:00:09.891]',0.175,-0.015
'[10:00:09.898]',0.155,-0.045
'[10:00:09.906]',0.175,-0.055
'[10:00:09.914]',0.195,-0.045
'[10:00:09.922]',0.195,-0.045
'[10:00:09.930]',0.205,-0.055
'[10:00:09.938]',0.185,-0.055
'[10:00:09.945]',0.205,-0.035
'[10:00:09.953]',0.195,-0.055
'[10:00:09.961]',0.195,-0.065
'[10:00:09.969]',0.215,-0.065
'[10:00:09.977]',0.185,-0.055
'[10:00:09.984]',0.195,-0.045
'[10:00:09.992]',0.205,-0.055
'[10:00:10.000]',0.195,-0.055
'[10:00:10.008]',0.195,-0.065
'[10:00:10.016]',0.195,-0.065
'[10:00:10.023]',0.185,-0.075
'[10:00:10.031]',0.185,-0.065
'[10:00:10.039]',0.165,-0.075
'[10:00:10.047]',0.155,-0.085
'[10:00:10.055]',0.145,-0.095
'[10:00:10.063]',0.135,-0.085
'[10:00:10.070]',0.155,-0.075
'[10:00:10.078]',0.115,-0.085
'[10:00:10.086]',0.095,-0.085
'[10:00:10.094]',0.155,-0.075
'[10:00:10.102]',0.235,0.005
'[10:00:10.109]',0.235,0.045
'[10:00:10.117]',0.265,0.075
'[10:00:10.125]',0.375,0.065
'[10:00:10.133]',0.355,0.095
'[10:00:10.141]',0.335,-0.025
'[10:00:10.148]',0.265,-0.035
'[10:00:10.156]',0.205,-0.105
'[10:00:10.164]',0.125,-0.095
'[10:00:10.172]',0.035,-0.125
'[10:00:10.180]',-0.015,-0.175
'[10:00:10.188]',-0.025,-0.185
'[10:00:10.195]',-0.035,-0.165
'[10:00:10.203]',-0.015,-0.165
'[10:00:10.211]',-0.015,-0.175
'[10:00:10.219]',-0.005,-0.175
'[10:00:10.227]',0.025,-0.145
'[10:00:10.234]',-0.025,-0.165
'[10:00:10.242]',-0.425,-0.055
'[10:00:10.250]',-0.385,0.155
'[10:00:10.258]',0.515,0.325
'[10:00:10.266]',2.185,-0.105
'[10:00:10.273]',3.105,-0.945
'[10:00:10.281]',2.645,-1.455
'[10:00:10.289]',0.835,-1.215
'[10:00:10.297]',0.095,-0.585
'[10:00:10.305]',-0.115,-0.155
'[10:00:10.313]',-0.175,-0.045
'[10:00:10.320]',-0.175,-0.065
'[10:00:10.328]',-0.185,-0.095
'[10:00:10.336]',-0.175,-0.075
'[10:00:10.344]',-0.165,-0.085
'[10:00:10.352]',-0.145,-0.075
'[10:00:10.359]',-0.135,-0.075
'[10:00:10.367]',-0.135,-0.085
'[10:00:10.375]',-0.135,-0.075
'[10:00:10.383]',-0.135,-0.055
'[10:00:10.391]',-0.115,-0.075
'[10:00:10.398]',-0.135,-0.065
'[10:00:10.406]',-0.105,-0.055
'[10:00:10.414]',-0.115,-0.055
'[10:00:10.422]',-0.095,-0.065
'[10:00:10.430]',-0.095,-0.065
'[10:00:10.438]',-0.065,-0.065
'[10:00:10.445]',-0.035,-0.055
'[10:00:10.453]',-0.035,-0.065
'[10:00:10.461]',-0.015,-0.075
'[10:00:10.469]',0.015,-0.065
'[10:00:10.477]',0.065,-0.085
'[10:00:10.484]',0.105,-0.095
'[10:00:10.492]',0.125,-0.095
'[10:00:10.500]',0.165,-0.085
'[10:00:10.508]',0.175,-0.075
'[10:00:10.516]',0.185,-0.065
'[10:00:10.523]',0.195,-0.045
'[10:00:10.531]',0.205,-0.015
'[10:00:10.539]',0.195,0.005
'[10:00:10.547]',0.175,0.005
'[10:00:10.555]',0.125,0.025
'[10:00:10.563]',0.105,0.035
'[10:00:10.570]',0.075,0.015
'[10:00:10.578]',0.035,0.005
'[10:00:10.586]',0.055,-0.015
'[10:00:10.594]',0.045,-0.005
'[10:00:10.602]',0.055,-0.005
'[10:00:10.609]',0.055,-0.025
'[10:00:10.617]',0.065,-0.025
'[10:00:10.625]',0.075,-0.025
'[10:00:10.633]',0.075,-0.005
'[10:00:10.641]',0.055,-0.025
'[10:00:10.648]',0.065,-0.035
'[10:00:10.656]',0.095,-0.035
'[10:00:10.664]',0.075,-0.015
'[10:00:10.672]',0.055,-0.025
'[10:00:10.680]',0.055,-0.025
'[10:00:10.688]',0.075,-0.015
'[10:00:10.695]',0.055,-0.025
'[10:00:10.703]',0.065,-0.025
'[10:00:10.711]',0.055,-0.035
'[10:00:10.719]',0.065,-0.025
'[10:00:10.727]',0.065,-0.015
'[10:00:10.734]',0.045,-0.035
'[10:00:10.742]',0.035,-0.055
'[10:00:10.750]',0.025,-0.035
'[10:00:10.758]',0.025,-0.035
'[10:00:10.766]',0.005,-0.065
'[10:00:10.773]',0.005,-0.065
'[10:00:10.781]',0.005,-0.055
'[10:00:10.789]',-0.005,-0.065
'[10:00:10.797]',-0.015,-0.065
'[10:00:10.805]',-0.015,-0.065
'[10:00:10.813]',-0.025,-0.065
'[10:00:10.820]',-0.005,-0.075
'[10:00:10.828]',-0.015,-0.075
'[10:00:10.836]',-0.015,-0.085
'[10:00:10.844]',-0.015,-0.075
'[10:00:10.852]',-0.025,-0.065
'[10:00:10.859]',-0.015,-0.095
'[10:00:10.867]',-0.015,-0.085
'[10:00:10.875]',-0.025,-0.075
'[10:00:10.883]',-0.025,-0.075
'[10:00:10.891]',0.065,-0.045
'[10:00:10.898]',0.105,0.025
'[10:00:10.906]',0.115,0.065
'[10:00:10.914]',0.155,0.085
'[10:00:10.922]',0.215,0.075
'[10:00:10.930]',0.185,-0.005
'[10:00:10.938]',0.085,-0.065
'[10:00:10.945]',0.035,-0.105
'[10:00:10.953]',0.035,-0.105
'[10:00:10.961]',-0.005,-0.065
'[10:00:10.969]',-0.075,-0.105
'[10:00:10.977]',-0.095,-0.135
'[10:00:10.984]',-0.095,-0.135
'[10:00:10.992]',-0.065,-0.135
'[10:00:11.000]',-0.075,-0.135
'[10:00:11.008]',-0.065,-0.125
'[10:00:11.016]',-0.025,-0.125
'[10:00:11.023]',-0.395,-0.065
'[10:00:11.031]',-0.485,0.125
'[10:00:11.039]',0.105,0.375
'[10:00:11.047]',1.615,0.075
'[10:00:11.055]',2.655,-0.555
'[10:00:11.063]',2.945,-1.245
'[10:00:11.070]',1.415,-1.275
'[10:00:11.078]',0.245,-0.805
'[10:00:11.086]',-0.155,-0.245
'[10:00:11.094]',-0.245,-0.015
'[10:00:11.102]',-0.265,-0.025
'[10:00:11.109]',-0.245,-0.055
'[10:00:11.117]',-0.255,-0.055
'[10:00:11.125]',-0.245,-0.055
'[10:00:11.133]',-0.245,-0.045
'[10:00:11.141]',-0.245,-0.045
'[10:00:11.148]',-0.245,-0.055
'[10:00:11.156]',-0.235,-0.045
'[10:00:11.164]',-0.225,-0.035
'[10:00:11.172]',-0.225,-0.035
'[10:00:11.180]',-0.245,-0.035
'[10:00:11.188]',-0.215,-0.025
'[10:00:11.195]',-0.205,-0.025
'[10:00:11.203]',-0.205,-0.035
'[10:00:11.211]',-0.205,-0.045
'[10:00:11.219]',-0.195,-0.035
'[10:00:11.227]',-0.165,-0.045
'[10:00:11.234]',-0.155,-0.045
'[10:00:11.242]',-0.135,-0.055
'[10:00:11.250]',-0.105,-0.055
'[10:00:11.258]',-0.065,-0.055
'[10:00:11.266]',-0.055,-0.065
'[10:00:11.273]',-0.035,-0.075
'[10:00:11.281]',-0.005,-0.075
'[10:00:11.289]',0.035,-0.065
'[10:00:11.297]',0.055,-0.065
'[10:00:11.305]',0.085,-0.045
'[10:00:11.313]',0.115,-0.025
'[10:00:11.320]',0.105,-0.005
'[10:00:11.328]',0.075,-0.005
'[10:00:11.336]',0.075,0.015
'[10:00:11.344]',0.035,0.025
'[10:00:11.352]',0.005,0.005
'[10:00:11.359]',-0.005,0.005
'[10:00:11.367]',-0.025,0.005
'[10:00:11.375]',-0.035,-0.005
'[10:00:11.383]',-0.035,-0.015
'[10:00:11.391]',-0.035,-0.015
'[10:00:11.398]',-0.045,-0.025
'[10:00:11.406]',-0.035,-0.015
'[10:00:11.414]',-0.025,-0.005
'[10:00:11.422]',-0.025,-0.005
'[10:00:11.430]',-0.035,-0.005
'[10:00:11.438]',-0.035,-0.005
'[10:00:11.445]',-0.025,-0.015
'[10:00:11.453]',-0.015,-0.015
'[10:00:11.461]',-0.025,-0.025
'[10:00:11.469]',-0.025,-0.005
'[10:00:11.477]',-0.015,-0.005
'[10:00:11.484]',-0.035,-0.005
'[10:00:11.492]',-0.035,-0.025
'[10:00:11.500]',-0.035,-0.005
'[10:00:11.508]',-0.035,-0.005
'[10:00:11.516]',-0.055,-0.015
'[10:00:11.523]',-0.055,-0.035
'[10:00:11.531]',-0.055,-0.045
'[10:00:11.539]',-0.055,-0.015
'[10:00:11.547]',-0.075,-0.045
'[10:00:11.555]',-0.095,-0.055
'[10:00:11.563]',-0.065,-0.065
'[10:00:11.570]',-0.075,-0.035
'[10:00:11.578]',-0.115,-0.055
'[10:00:11.586]',-0.115,-0.075
'[10:00:11.594]',-0.105,-0.075
'[10:00:11.602]',-0.105,-0.065
'[10:00:11.609]',-0.095,-0.075
'[10:00:11.617]',-0.095,-0.085
'[10:00:11.625]',-0.095,-0.075
'[10:00:11.633]',-0.095,-0.075
'[10:00:11.641]',-0.095,-0.085
'[10:00:11.648]',-0.105,-0.075
'[10:00:11.656]',-0.075,-0.085
'[10:00:11.664]',-0.085,-0.075
'[10:00:11.672]',-0.085,-0.055
'[10:00:11.680]',-0.075,-0.075
'[10:00:11.688]',-0.065,-0.065
'[10:00:11.695]',-0.085,-0.085
'[10:00:11.703]',-0.065,-0.075
'[10:00:11.711]',0.025,-0.015
'[10:00:11.719]',0.055,0.045
'[10:00:11.727]',0.055,0.105
'[10:00:11.734]',0.135,0.085
'[10:00:11.742]',0.145,0.045
'[10:00:11.750]',0.045,-0.045
'[10:00:11.758]',-0.025,-0.105
'[10:00:11.766]',-0.015,-0.105
'[10:00:11.773]',-0.055,-0.055
'[10:00:11.781]',-0.145,-0.095
'[10:00:11.789]',-0.175,-0.115
'[10:00:11.797]',-0.175,-0.125
'[10:00:11.805]',-0.135,-0.125
'[10:00:11.813]',-0.125,-0.115
'[10:00:11.820]',-0.095,-0.125
'[10:00:11.828]',-0.095,-0.125
'[10:00:11.836]',-0.465,-0.045
'[10:00:11.844]',-0.545,0.145
'[10:00:11.852]',0.175,0.375
'[10:00:11.859]',1.765,0.085
'[10:00:11.867]',2.845,-0.615
'[10:00:11.875]',2.695,-1.285
'[10:00:11.883]',1.095,-1.175
'[10:00:11.891]',0.135,-0.665
'[10:00:11.898]',-0.185,-0.185
'[10:00:11.906]',-0.265,-0.015
'[10:00:11.914]',-0.285,-0.045
'[10:00:11.922]',-0.285,-0.075
'[10:00:11.930]',-0.285,-0.065
'[10:00:11.938]',-0.275,-0.055
'[10:00:11.945]',-0.275,-0.055
'[10:00:11.953]',-0.275,-0.055
'[10:00:11.961]',-0.265,-0.055
'[10:00:11.969]',-0.265,-0.055
'[10:00:11.977]',-0.265,-0.055
'[10:00:11.984]',-0.255,-0.055
'[10:00:11.992]',-0.245,-0.055
'[10:00:12.000]',-0.245,-0.045
'[10:00:12.008]',-0.235,-0.035
'[10:00:12.016]',-0.235,-0.045
'[10:00:12.023]',-0.215,-0.055
'[10:00:12.031]',-0.205,-0.055
'[10:00:12.039]',-0.195,-0.045
'[10:00:12.047]',-0.185,-0.065
'[10:00:12.055]',-0.155,-0.075
'[10:00:12.063]',-0.145,-0.075
'[10:00:12.070]',-0.115,-0.065
'[10:00:12.078]',-0.085,-0.085
'[10:00:12.086]',-0.075,-0.085
'[10:00:12.094]',-0.055,-0.085
'[10:00:12.102]',-0.015,-0.075
'[10:00:12.109]',0.015,-0.085
'[10:00:12.117]',0.035,-0.075
'[10:00:12.125]',0.065,-0.065
'[10:00:12.133]',0.075,-0.025
'[10:00:12.141]',0.065,-0.015
'[10:00:12.148]',0.025,0.015
'[10:00:12.156]',0.015,0.025
'[10:00:12.164]',-0.035,0.035
'[10:00:12.172]',-0.055,0.025
'[10:00:12.180]',-0.095,0.005
'[10:00:12.188]',-0.085,0.015
'[10:00:12.195]',-0.095,0.015
'[10:00:12.203]',-0.095,-0.005
'[10:00:12.211]',-0.085,-0.015
'[10:00:12.219]',-0.095,-0.005
'[10:00:12.227]',-0.095,0.005
'[10:00:12.234]',-0.085,-0.005
'[10:00:12.242]',-0.075,-0.005
'[10:00:12.250]',-0.075,0.005
'[10:00:12.258]',-0.065,0.005
'[10:00:12.266]',-0.085,-0.005
'[10:00:12.273]',-0.075,-0.015
'[10:00:12.281]',-0.085,-0.005
'[10:00:12.289]',-0.065,-0.015
'[10:00:12.297]',-0.075,0.005
'[10:00:12.305]',-0.075,-0.015
'[10:00:12.313]',-0.085,-0.015
'[10:00:12.320]',-0.085,-0.015
'[10:00:12.328]',-0.095,-0.035
'[10:00:12.336]',-0.095,-0.025
'[10:00:12.344]',-0.115,-0.025
'[10:00:12.352]',-0.105,-0.025
'[10:00:12.359]',-0.115,-0.035
'[10:00:12.367]',-0.125,-0.055
'[10:00:12.375]',-0.135,-0.045
'[10:00:12.383]',-0.135,-0.025
'[10:00:12.391]',-0.135,-0.055
'[10:00:12.398]',-0.145,-0.055
'[10:00:12.406]',-0.135,-0.055
'[10:00:12.414]',-0.145,-0.045
'[10:00:12.422]',-0.155,-0.055
'[10:00:12.430]',-0.145,-0.075
'[10:00:12.438]',-0.145,-0.045
'[10:00:12.445]',-0.145,-0.045
'[10:00:12.453]',-0.145,-0.065
'[10:00:12.461]',-0.155,-0.065
'[10:00:12.469]',-0.155,-0.065
'[10:00:12.477]',-0.155,-0.055
'[10:00:12.484]',-0.155,-0.055
'[10:00:12.492]',-0.155,-0.065
'[10:00:12.500]',-0.145,-0.045
'[10:00:12.508]',-0.025,-0.005
'[10:00:12.516]',-0.005,0.075
'[10:00:12.523]',-0.015,0.105
'[10:00:12.531]',0.075,0.105
'[10:00:12.539]',0.085,0.085
'[10:00:12.547]',0.055,-0.025
'[10:00:12.555]',-0.045,-0.055
'[10:00:12.563]',-0.075,-0.105
'[10:00:12.570]',-0.075,-0.055
'[10:00:12.578]',-0.155,-0.075
'[10:00:12.586]',-0.235,-0.115
'[10:00:12.594]',-0.235,-0.125
'[10:00:12.602]',-0.215,-0.115
'[10:00:12.609]',-0.225,-0.135
'[10:00:12.617]',-0.205,-0.125
'[10:00:12.625]',-0.155,-0.105
'[10:00:12.633]',-0.245,-0.105
'[10:00:12.641]',-0.615,0.005
'[10:00:12.648]',-0.495,0.235
'[10:00:12.656]',0.425,0.325
'[10:00:12.664]',2.025,0.015
'[10:00:12.672]',2.905,-0.745
'[10:00:12.680]',2.525,-1.285
'[10:00:12.688]',0.975,-1.125
'[10:00:12.695]',0.035,-0.645
'[10:00:12.703]',-0.295,-0.175
'[10:00:12.711]',-0.385,-0.015
'[10:00:12.719]',-0.405,-0.035
'[10:00:12.727]',-0.395,-0.055
'[10:00:12.734]',-0.395,-0.055
'[10:00:12.742]',-0.395,-0.055
'[10:00:12.750]',-0.375,-0.045
'[10:00:12.758]',-0.365,-0.035
'[10:00:12.766]',-0.385,-0.035
'[10:00:12.773]',-0.375,-0.035
'[10:00:12.781]',-0.375,-0.045
'[10:00:12.789]',-0.385,-0.025
'[10:00:12.797]',-0.385,-0.035
'[10:00:12.805]',-0.375,-0.035
'[10:00:12.813]',-0.365,-0.035
'[10:00:12.820]',-0.355,-0.015
'[10:00:12.828]',-0.355,-0.035
'[10:00:12.836]',-0.345,-0.045
'[10:00:12.844]',-0.325,-0.055
'[10:00:12.852]',-0.295,-0.045
'[10:00:12.859]',-0.305,-0.055
'[10:00:12.867]',-0.285,-0.075
'[10:00:12.875]',-0.255,-0.075
'[10:00:12.883]',-0.235,-0.065
'[10:00:12.891]',-0.225,-0.085
'[10:00:12.898]',-0.205,-0.095
'[10:00:12.906]',-0.175,-0.075
'[10:00:12.914]',-0.135,-0.075
'[10:00:12.922]',-0.125,-0.055
'[10:00:12.930]',-0.125,-0.045
'[10:00:12.938]',-0.105,-0.015
'[10:00:12.945]',-0.125,0.015
'[10:00:12.953]',-0.145,0.015
'[10:00:12.961]',-0.175,0.015
'[10:00:12.969]',-0.205,0.035
'[10:00:12.977]',-0.225,0.025
'[10:00:12.984]',-0.255,0.015
'[10:00:12.992]',-0.265,-0.005
'[10:00:13.000]',-0.265,0.015
'[10:00:13.008]',-0.265,0.015
'[10:00:13.016]',-0.275,0.005
'[10:00:13.023]',-0.275,-0.005
'[10:00:13.031]',-0.265,0.005
'[10:00:13.039]',-0.255,-0.005
'[10:00:13.047]',-0.255,0.005
'[10:00:13.055]',-0.255,-0.005
'[10:00:13.063]',-0.255,-0.005
'[10:00:13.070]',-0.245,0.015
'[10:00:13.078]',-0.255,-0.005
'[10:00:13.086]',-0.265,-0.005
'[10:00:13.094]',-0.265,-0.005
'[10:00:13.102]',-0.255,0.015
'[10:00:13.109]',-0.255,-0.005
'[10:00:13.117]',-0.265,-0.015
'[10:00:13.125]',-0.275,-0.005
'[10:00:13.133]',-0.285,0.005
'[10:00:13.141]',-0.295,-0.015
'[10:00:13.148]',-0.315,-0.025
'[10:00:13.156]',-0.305,-0.015
'[10:00:13.164]',-0.295,-0.005
'[10:00:13.172]',-0.305,-0.025
'[10:00:13.180]',-0.305,-0.035
'[10:00:13.188]',-0.325,-0.025
'[10:00:13.195]',-0.325,-0.025
'[10:00:13.203]',-0.325,-0.025
'[10:00:13.211]',-0.355,-0.045
'[10:00:13.219]',-0.355,-0.045
'[10:00:13.227]',-0.345,-0.035
'[10:00:13.234]',-0.345,-0.035
'[10:00:13.242]',-0.335,-0.045
'[10:00:13.250]',-0.345,-0.035
'[10:00:13.258]',-0.255,0.005
'[10:00:13.266]',-0.225,0.085
'[10:00:13.273]',-0.225,0.105
'[10:00:13.281]',-0.125,0.105
'[10:00:13.289]',-0.115,0.125
'[10:00:13.297]',-0.145,-0.005
'[10:00:13.305]',-0.245,-0.015
'[10:00:13.313]',-0.245,-0.075
'[10:00:13.320]',-0.295,-0.015
'[10:00:13.328]',-0.385,-0.065
'[10:00:13.336]',-0.435,-0.115
'[10:00:13.344]',-0.425,-0.105
'[10:00:13.352]',-0.395,-0.085
'[10:00:13.359]',-0.395,-0.095
'[10:00:13.367]',-0.395,-0.105
'[10:00:13.375]',-0.365,-0.095
'[10:00:13.383]',-0.385,-0.065
'[10:00:13.391]',-0.815,0.005
'[10:00:13.398]',-0.795,0.205
'[10:00:13.406]',0.005,0.425
'[10:00:13.414]',1.835,0.235
'[10:00:13.422]',2.845,-0.425
'[10:00:13.430]',2.545,-1.145
'[10:00:13.438]',0.775,-1.135
'[10:00:13.445]',-0.165,-0.645
'[10:00:13.453]',-0.445,-0.205
'[10:00:13.461]',-0.535,-0.035
'[10:00:13.469]',-0.535,-0.035
'[10:00:13.477]',-0.525,-0.045
'[10:00:13.484]',-0.525,-0.055
'[10:00:13.492]',-0.525,-0.065
'[10:00:13.500]',-0.505,-0.065
'[10:00:13.508]',-0.495,-0.045
'[10:00:13.516]',-0.485,-0.045
'[10:00:13.523]',-0.485,-0.055
'[10:00:13.531]',-0.485,-0.045
'[10:00:13.539]',-0.455,-0.025
'[10:00:13.547]',-0.455,-0.035
'[10:00:13.555]',-0.445,-0.045
'[10:00:13.563]',-0.435,-0.045
'[10:00:13.570]',-0.415,-0.045
'[10:00:13.578]',-0.405,-0.045
'[10:00:13.586]',-0.415,-0.065
'[10:00:13.594]',-0.365,-0.065
'[10:00:13.602]',-0.355,-0.055
'[10:00:13.609]',-0.335,-0.075
'[10:00:13.617]',-0.315,-0.095
'[10:00:13.625]',-0.285,-0.095
'[10:00:13.633]',-0.255,-0.105
'[10:00:13.641]',-0.235,-0.105
'[10:00:13.648]',-0.225,-0.125
'[10:00:13.656]',-0.185,-0.115
'[10:00:13.664]',-0.155,-0.095
'[10:00:13.672]',-0.125,-0.085
'[10:00:13.680]',-0.105,-0.075
'[10:00:13.688]',-0.095,-0.055
'[10:00:13.695]',-0.085,-0.005
'[10:00:13.703]',-0.115,0.015
'[10:00:13.711]',-0.135,0.025
'[10:00:13.719]',-0.165,0.035
'[10:00:13.727]',-0.185,0.045
'[10:00:13.734]',-0.215,0.025
'[10:00:13.742]',-0.195,0.015
'[10:00:13.750]',-0.205,0.015
'[10:00:13.758]',-0.175,0.025
'[10:00:13.766]',-0.185,0.015
'[10:00:13.773]',-0.195,0.005
'[10:00:13.781]',-0.175,0.015
'[10:00:13.789]',-0.145,0.025
'[10:00:13.797]',-0.135,0.015
'[10:00:13.805]',-0.125,0.005
'[10:00:13.813]',-0.105,-0.005
'[10:00:13.820]',-0.085,0.025
'[10:00:13.828]',-0.095,0.005
'[10:00:13.836]',-0.105,0.005
'[10:00:13.844]',-0.095,-0.005
'[10:00:13.852]',-0.095,0.005
'[10:00:13.859]',-0.095,0.005
'[10:00:13.867]',-0.105,-0.005
'[10:00:13.875]',-0.105,0.005
'[10:00:13.883]',-0.115,0.005
'[10:00:13.891]',-0.125,0.005
'[10:00:13.898]',-0.145,-0.005
'[10:00:13.906]',-0.145,-0.005
'[10:00:13.914]',-0.135,0.005
'[10:00:13.922]',-0.125,0.005
'[10:00:13.930]',-0.135,-0.015
'[10:00:13.938]',-0.125,-0.015
'[10:00:13.945]',-0.125,-0.005
'[10:00:13.953]',-0.125,-0.015
'[10:00:13.961]',-0.125,-0.035
'[10:00:13.969]',-0.115,-0.025
'[10:00:13.977]',-0.075,-0.005
'[10:00:13.984]',0.005,0.055
'[10:00:13.992]',0.045,0.125
'[10:00:14.000]',0.045,0.145
'[10:00:14.008]',0.195,0.145
'[10:00:14.016]',0.155,0.115
'[10:00:14.023]',0.135,0.045
'[10:00:14.031]',0.055,0.005
'[10:00:14.039]',0.015,-0.015
'[10:00:14.047]',-0.085,-0.035
'[10:00:14.055]',-0.165,-0.065
'[10:00:14.063]',-0.185,-0.095
'[10:00:14.070]',-0.175,-0.095
'[10:00:14.078]',-0.155,-0.115
'[10:00:14.086]',-0.155,-0.095
'[10:00:14.094]',-0.145,-0.095
'[10:00:14.102]',-0.115,-0.075
'[10:00:14.109]',-0.105,-0.075
'[10:00:14.117]',-0.515,-0.015
'[10:00:14.125]',-0.555,0.205
'[10:00:14.133]',0.185,0.425
'[10:00:14.141]',1.895,0.065
'[10:00:14.148]',2.895,-0.655
'[10:00:14.156]',2.905,-1.325
'[10:00:14.164]',1.295,-1.225
'[10:00:14.172]',0.235,-0.715
'[10:00:14.180]',-0.125,-0.215
'[10:00:14.188]',-0.245,-0.005
'[10:00:14.195]',-0.235,-0.005
'[10:00:14.203]',-0.255,-0.025
'[10:00:14.211]',-0.265,-0.045
'[10:00:14.219]',-0.255,-0.015
'[10:00:14.227]',-0.245,-0.025
'[10:00:14.234]',-0.255,-0.025
'[10:00:14.242]',-0.245,-0.035
'[10:00:14.250]',-0.235,-0.025
'[10:00:14.258]',-0.215,-0.005
'[10:00:14.266]',-0.215,-0.015
'[10:00:14.273]',-0.215,-0.015
'[10:00:14.281]',-0.205,0.005
'[10:00:14.289]',-0.185,-0.005
'[10:00:14.297]',-0.185,-0.015
'[10:00:14.305]',-0.165,-0.015
'[10:00:14.313]',-0.165,-0.015
'[10:00:14.320]',-0.145,-0.005
'[10:00:14.328]',-0.125,-0.025
'[10:00:14.336]',-0.115,-0.025
'[10:00:14.344]',-0.085,-0.035
'[10:00:14.352]',-0.055,-0.035
'[10:00:14.359]',-0.025,-0.055
'[10:00:14.367]',-0.015,-0.055
'[10:00:14.375]',0.015,-0.055
'[10:00:14.383]',0.045,-0.045
'[10:00:14.391]',0.065,-0.035
'[10:00:14.398]',0.085,-0.035
'[10:00:14.406]',0.115,-0.015
'[10:00:14.414]',0.125,0.005
'[10:00:14.422]',0.115,0.025
'[10:00:14.430]',0.085,0.055
'[10:00:14.438]',0.065,0.055
'[10:00:14.445]',0.025,0.055
'[10:00:14.453]',0.005,0.045
'[10:00:14.461]',-0.015,0.035
'[10:00:14.469]',-0.025,0.035
'[10:00:14.477]',-0.025,0.025
'[10:00:14.484]',-0.035,0.005
'[10:00:14.492]',-0.025,0.005
'[10:00:14.500]',-0.015,0.005
'[10:00:14.508]',-0.005,0.005
'[10:00:14.516]',0.005,0.015
'[10:00:14.523]',-0.005,0.015
'[10:00:14.531]',0.015,0.015
'[10:00:14.539]',0.025,0.015
'[10:00:14.547]',0.015,0.005
'[10:00:14.555]',0.015,-0.005
'[10:00:14.563]',0.015,-0.015
'[10:00:14.570]',0.015,0.015
'[10:00:14.578]',-0.015,0.005
'[10:00:14.586]',-0.015,-0.005
'[10:00:14.594]',-0.035,-0.005
'[10:00:14.602]',-0.025,0.015
'[10:00:14.609]',-0.035,0.005
'[10:00:14.617]',-0.035,-0.005
'[10:00:14.625]',-0.045,0.005
'[10:00:14.633]',-0.045,-0.005
'[10:00:14.641]',-0.055,-0.015
'[10:00:14.648]',-0.075,-0.015
'[10:00:14.656]',-0.075,-0.035
'[10:00:14.664]',-0.065,-0.015
'[10:00:14.672]',-0.075,-0.025
'[10:00:14.680]',-0.075,-0.045
'[10:00:14.688]',-0.075,-0.025
'[10:00:14.695]',0.035,0.015
'[10:00:14.703]',0.065,0.095
'[10:00:14.711]',0.055,0.125
'[10:00:14.719]',0.185,0.125
'[10:00:14.727]',0.225,0.165
'[10:00:14.734]',0.185,0.055
'[10:00:14.742]',0.115,0.005
'[10:00:14.750]',0.075,-0.035
'[10:00:14.758]',-0.005,-0.025
'[10:00:14.766]',-0.125,-0.075
'[10:00:14.773]',-0.175,-0.115
'[10:00:14.781]',-0.185,-0.135
'[10:00:14.789]',-0.165,-0.125
'[10:00:14.797]',-0.175,-0.135
'[10:00:14.805]',-0.155,-0.135
'[10:00:14.813]',-0.145,-0.125
'[10:00:14.820]',-0.095,-0.105
'[10:00:14.828]',-0.415,-0.085
'[10:00:14.836]',-0.645,0.085
'[10:00:14.844]',-0.155,0.355
'[10:00:14.852]',1.295,0.185
'[10:00:14.859]',2.585,-0.375
'[10:00:14.867]',3.075,-1.195
'[10:00:14.875]',1.675,-1.335
'[10:00:14.883]',0.345,-0.915
'[10:00:14.891]',-0.135,-0.355
'[10:00:14.898]',-0.285,-0.045
'[10:00:14.906]',-0.305,-0.015
'[10:00:14.914]',-0.305,-0.055
'[10:00:14.922]',-0.305,-0.065
'[10:00:14.930]',-0.315,-0.055
'[10:00:14.938]',-0.295,-0.065
'[10:00:14.945]',-0.305,-0.055
'[10:00:14.953]',-0.295,-0.055
'[10:00:14.961]',-0.295,-0.055
'[10:00:14.969]',-0.285,-0.045
'[10:00:14.977]',-0.275,-0.045
'[10:00:14.984]',-0.265,-0.045
'[10:00:14.992]',-0.255,-0.055
'[10:00:15.000]',-0.255,-0.035
'[10:00:15.008]',-0.255,-0.035
'[10:00:15.016]',-0.245,-0.045
'[10:00:15.023]',-0.225,-0.045
'[10:00:15.031]',-0.215,-0.055
'[10:00:15.039]',-0.185,-0.045
'[10:00:15.047]',-0.175,-0.065
'[10:00:15.055]',-0.155,-0.065
'[10:00:15.063]',-0.145,-0.065
'[10:00:15.070]',-0.115,-0.075
'[10:00:15.078]',-0.095,-0.075
'[10:00:15.086]',-0.075,-0.085
'[10:00:15.094]',-0.045,-0.075
'[10:00:15.102]',-0.005,-0.065
'[10:00:15.109]',0.015,-0.065
'[10:00:15.117]',0.035,-0.045
'[10:00:15.125]',0.065,-0.035
'[10:00:15.133]',0.065,-0.005
'[10:00:15.141]',0.045,0.015
'[10:00:15.148]',0.005,0.015
'[10:00:15.156]',-0.025,0.015
'[10:00:15.164]',-0.035,0.025
'[10:00:15.172]',-0.065,0.005
'[10:00:15.180]',-0.085,0.005
'[10:00:15.188]',-0.085,0.005
'[10:00:15.195]',-0.085,-0.005
'[10:00:15.203]',-0.075,-0.005
'[10:00:15.211]',-0.085,-0.015
'[10:00:15.219]',-0.065,-0.025
'[10:00:15.227]',-0.055,-0.005
'[10:00:15.234]',-0.055,-0.015
'[10:00:15.242]',-0.045,-0.035
'[10:00:15.250]',-0.035,-0.015
'[10:00:15.258]',-0.045,-0.015
'[10:00:15.266]',-0.045,-0.025
'[10:00:15.273]',-0.045,-0.035
'[10:00:15.281]',-0.055,-0.015
'[10:00:15.289]',-0.045,-0.015
'[10:00:15.297]',-0.075,-0.025
'[10:00:15.305]',-0.065,-0.045
'[10:00:15.313]',-0.065,-0.025
'[10:00:15.320]',-0.085,-0.025
'[10:00:15.328]',-0.095,-0.045
'[10:00:15.336]',-0.105,-0.045
'[10:00:15.344]',-0.105,-0.045
'[10:00:15.352]',-0.105,-0.025
'[10:00:15.359]',-0.125,-0.065
'[10:00:15.367]',-0.135,-0.055
'[10:00:15.375]',-0.135,-0.055
'[10:00:15.383]',-0.145,-0.035
'[10:00:15.391]',-0.135,-0.055
'[10:00:15.398]',-0.035,-0.015
'[10:00:15.406]',-0.005,0.075
'[10:00:15.414]',-0.015,0.115
'[10:00:15.422]',0.125,0.105
'[10:00:15.430]',0.155,0.125
'[10:00:15.438]',0.125,0.025
'[10:00:15.445]',0.065,0.005
'[10:00:15.453]',0.005,-0.055
'[10:00:15.461]',-0.075,-0.065
'[10:00:15.469]',-0.195,-0.095
'[10:00:15.477]',-0.235,-0.135
'[10:00:15.484]',-0.255,-0.165
'[10:00:15.492]',-0.235,-0.165
'[10:00:15.500]',-0.235,-0.145
'[10:00:15.508]',-0.215,-0.145
'[10:00:15.516]',-0.205,-0.145
'[10:00:15.523]',-0.175,-0.145
'[10:00:15.531]',-0.285,-0.145
'[10:00:15.539]',-0.665,-0.015
'[10:00:15.547]',-0.525,0.215
'[10:00:15.555]',0.465,0.285
'[10:00:15.563]',2.075,-0.085
'[10:00:15.570]',2.955,-0.875
'[10:00:15.578]',2.425,-1.375
'[10:00:15.586]',0.805,-1.185
'[10:00:15.594]',0.025,-0.675
'[10:00:15.602]',-0.265,-0.215
'[10:00:15.609]',-0.355,-0.035
'[10:00:15.617]',-0.365,-0.075
'[10:00:15.625]',-0.365,-0.075
'[10:00:15.633]',-0.365,-0.065
'[10:00:15.641]',-0.365,-0.065
'[10:00:15.648]',-0.375,-0.095
'[10:00:15.656]',-0.345,-0.085
'[10:00:15.664]',-0.335,-0.065
'[10:00:15.672]',-0.335,-0.065
'[10:00:15.680]',-0.325,-0.085
'[10:00:15.688]',-0.315,-0.065
'[10:00:15.695]',-0.315,-0.065
'[10:00:15.703]',-0.325,-0.065
'[10:00:15.711]',-0.305,-0.075
'[10:00:15.719]',-0.305,-0.075
'[10:00:15.727]',-0.275,-0.055
'[10:00:15.734]',-0.265,-0.065
'[10:00:15.742]',-0.255,-0.075
'[10:00:15.750]',-0.245,-0.095
'[10:00:15.758]',-0.205,-0.085
'[10:00:15.766]',-0.205,-0.085
'[10:00:15.773]',-0.185,-0.105
'[10:00:15.781]',-0.155,-0.115
'[10:00:15.789]',-0.115,-0.105
'[10:00:15.797]',-0.105,-0.105
'[10:00:15.805]',-0.075,-0.105
'[10:00:15.813]',-0.045,-0.105
'[10:00:15.820]',-0.015,-0.075
'[10:00:15.828]',-0.005,-0.065
'[10:00:15.836]',-0.005,-0.055
'[10:00:15.844]',0.005,-0.025
'[10:00:15.852]',-0.015,-0.005
'[10:00:15.859]',-0.045,-0.005
'[10:00:15.867]',-0.095,-0.005
'[10:00:15.875]',-0.115,-0.025
'[10:00:15.883]',-0.115,-0.015
'[10:00:15.891]',-0.115,-0.025
'[10:00:15.898]',-0.125,-0.035
'[10:00:15.906]',-0.105,-0.035
'[10:00:15.914]',-0.105,-0.025
'[10:00:15.922]',-0.105,-0.035
'[10:00:15.930]',-0.105,-0.045
'[10:00:15.938]',-0.085,-0.035
'[10:00:15.945]',-0.075,-0.035
'[10:00:15.953]',-0.075,-0.035
'[10:00:15.961]',-0.085,-0.045
'[10:00:15.969]',-0.075,-0.035
'[10:00:15.977]',-0.075,-0.035
'[10:00:15.984]',-0.085,-0.045
'[10:00:15.992]',-0.075,-0.045
'[10:00:16.000]',-0.085,-0.055
'[10:00:16.008]',-0.085,-0.045
'[10:00:16.016]',-0.105,-0.055
'[10:00:16.023]',-0.115,-0.055
'[10:00:16.031]',-0.125,-0.055
'[10:00:16.039]',-0.125,-0.055
'[10:00:16.047]',-0.135,-0.065
'[10:00:16.055]',-0.155,-0.055
'[10:00:16.063]',-0.145,-0.065
'[10:00:16.070]',-0.145,-0.045
'[10:00:16.078]',-0.155,-0.055
'[10:00:16.086]',-0.175,-0.055
'[10:00:16.094]',-0.075,-0.035
'[10:00:16.102]',-0.025,0.045
'[10:00:16.109]',-0.035,0.085
'[10:00:16.117]',0.055,0.085
'[10:00:16.125]',0.145,0.125
'[10:00:16.133]',0.135,0.025
'[10:00:16.141]',0.065,-0.015
'[10:00:16.148]',0.015,-0.065
'[10:00:16.156]',-0.055,-0.055
'[10:00:16.164]',-0.175,-0.105
'[10:00:16.172]',-0.255,-0.135
'[10:00:16.180]',-0.265,-0.175
'[10:00:16.188]',-0.265,-0.175
'[10:00:16.195]',-0.235,-0.165
'[10:00:16.203]',-0.225,-0.155
'[10:00:16.211]',-0.235,-0.175
'[10:00:16.219]',-0.195,-0.175
'[10:00:16.227]',-0.395,-0.135
'[10:00:16.234]',-0.695,0.005
'[10:00:16.242]',-0.355,0.275
'[10:00:16.250]',0.945,0.175
'[10:00:16.258]',2.385,-0.255
'[10:00:16.266]',3.015,-1.105
'[10:00:16.273]',1.905,-1.385
'[10:00:16.281]',0.445,-1.045
'[10:00:16.289]',-0.125,-0.485
'[10:00:16.297]',-0.345,-0.115
'[10:00:16.305]',-0.375,-0.075
'[10:00:16.313]',-0.385,-0.105
'[10:00:16.320]',-0.375,-0.095
'[10:00:16.328]',-0.375,-0.105
'[10:00:16.336]',-0.385,-0.105
'[10:00:16.344]',-0.365,-0.115
'[10:00:16.352]',-0.355,-0.085
'[10:00:16.359]',-0.355,-0.095
'[10:00:16.367]',-0.345,-0.095
'[10:00:16.375]',-0.335,-0.085
'[10:00:16.383]',-0.335,-0.075
'[10:00:16.391]',-0.325,-0.095
'[10:00:16.398]',-0.325,-0.085
'[10:00:16.406]',-0.315,-0.085
'[10:00:16.414]',-0.315,-0.085
'[10:00:16.422]',-0.285,-0.095
'[10:00:16.430]',-0.265,-0.105
'[10:00:16.438]',-0.255,-0.105
'[10:00:16.445]',-0.225,-0.085
'[10:00:16.453]',-0.225,-0.105
'[10:00:16.461]',-0.195,-0.135
'[10:00:16.469]',-0.175,-0.125
'[10:00:16.477]',-0.145,-0.125
'[10:00:16.484]',-0.125,-0.135
'[10:00:16.492]',-0.095,-0.135
'[10:00:16.500]',-0.075,-0.115
'[10:00:16.508]',-0.045,-0.115
'[10:00:16.516]',-0.045,-0.085
'[10:00:16.523]',-0.015,-0.075
'[10:00:16.531]',-0.005,-0.045
'[10:00:16.539]',-0.015,-0.015
'[10:00:16.547]',-0.055,-0.015
'[10:00:16.555]',-0.075,-0.015
'[10:00:16.563]',-0.095,-0.015
'[10:00:16.570]',-0.115,-0.005
'[10:00:16.578]',-0.135,-0.025
'[10:00:16.586]',-0.135,-0.045
'[10:00:16.594]',-0.135,-0.045
'[10:00:16.602]',-0.105,-0.035
'[10:00:16.609]',-0.105,-0.035
'[10:00:16.617]',-0.105,-0.045
'[10:00:16.625]',-0.095,-0.045
'[10:00:16.633]',-0.095,-0.045
'[10:00:16.641]',-0.075,-0.045
'[10:00:16.648]',-0.095,-0.045
'[10:00:16.656]',-0.075,-0.045
'[10:00:16.664]',-0.085,-0.045
'[10:00:16.672]',-0.085,-0.045
'[10:00:16.680]',-0.095,-0.055
'[10:00:16.688]',-0.085,-0.055
'[10:00:16.695]',-0.085,-0.045
'[10:00:16.703]',-0.095,-0.055
'[10:00:16.711]',-0.115,-0.055
'[10:00:16.719]',-0.115,-0.055
'[10:00:16.727]',-0.125,-0.055
'[10:00:16.734]',-0.135,-0.055
'[10:00:16.742]',-0.145,-0.065
'[10:00:16.750]',-0.155,-0.065
'[10:00:16.758]',-0.175,-0.055
'[10:00:16.766]',-0.095,-0.035
'[10:00:16.773]',-0.025,0.035
'[10:00:16.781]',-0.035,0.085
'[10:00:16.789]',0.025,0.115
'[10:00:16.797]',0.155,0.125
'[10:00:16.805]',0.145,0.075
'[10:00:16.813]',0.075,0.005
'[10:00:16.820]',0.025,-0.025
'[10:00:16.828]',-0.045,-0.055
'[10:00:16.836]',-0.165,-0.085
'[10:00:16.844]',-0.255,-0.125
'[10:00:16.852]',-0.275,-0.145
'[10:00:16.859]',-0.275,-0.165
'[10:00:16.867]',-0.265,-0.165
'[10:00:16.875]',-0.255,-0.165
'[10:00:16.883]',-0.245,-0.145
'[10:00:16.891]',-0.205,-0.145
'[10:00:16.898]',-0.215,-0.145
'[10:00:16.906]',-0.645,-0.075
'[10:00:16.914]',-0.625,0.145
'[10:00:16.922]',0.045,0.365
'[10:00:16.930]',1.695,0.075
'[10:00:16.938]',2.775,-0.575
'[10:00:16.945]',2.675,-1.295
'[10:00:16.953]',1.015,-1.235
'[10:00:16.961]',0.045,-0.725
'[10:00:16.969]',-0.295,-0.215
'[10:00:16.977]',-0.395,-0.035
'[10:00:16.984]',-0.395,-0.065
'[10:00:16.992]',-0.375,-0.095
'[10:00:17.000]',-0.385,-0.075
'[10:00:17.008]',-0.375,-0.075
'[10:00:17.016]',-0.375,-0.075
'[10:00:17.023]',-0.375,-0.085
'[10:00:17.031]',-0.365,-0.075
'[10:00:17.039]',-0.355,-0.065
'[10:00:17.047]',-0.355,-0.075
'[10:00:17.055]',-0.345,-0.075
'[10:00:17.063]',-0.345,-0.085
'[10:00:17.070]',-0.315,-0.035
'[10:00:17.078]',-0.325,-0.055
'[10:00:17.086]',-0.315,-0.075
'[10:00:17.094]',-0.295,-0.065
'[10:00:17.102]',-0.285,-0.055
'[10:00:17.109]',-0.265,-0.075
'[10:00:17.117]',-0.255,-0.085
'[10:00:17.125]',-0.215,-0.085
'[10:00:17.133]',-0.205,-0.075
'[10:00:17.141]',-0.205,-0.105
'[10:00:17.148]',-0.175,-0.135
'[10:00:17.156]',-0.145,-0.105
'[10:00:17.164]',-0.125,-0.105
'[10:00:17.172]',-0.105,-0.105
'[10:00:17.180]',-0.075,-0.115
'[10:00:17.188]',-0.055,-0.085
'[10:00:17.195]',-0.015,-0.065
'[10:00:17.203]',-0.005,-0.035
'[10:00:17.211]',-0.025,-0.025
'[10:00:17.219]',-0.035,-0.005
'[10:00:17.227]',-0.065,0.005
'[10:00:17.234]',-0.085,0.015
'[10:00:17.242]',-0.105,-0.005
'[10:00:17.250]',-0.125,0.015
'[10:00:17.258]',-0.135,0.005
'[10:00:17.266]',-0.135,-0.005
'[10:00:17.273]',-0.125,-0.015
'[10:00:17.281]',-0.125,-0.015
'[10:00:17.289]',-0.115,-0.005
'[10:00:17.297]',-0.125,-0.025
'[10:00:17.305]',-0.095,-0.035
'[10:00:17.313]',-0.105,-0.015
'[10:00:17.320]',-0.105,-0.005
'[10:00:17.328]',-0.115,-0.015
'[10:00:17.336]',-0.115,-0.015
'[10:00:17.344]',-0.105,-0.015
'[10:00:17.352]',-0.095,-0.005
'[10:00:17.359]',-0.105,-0.025
'[10:00:17.367]',-0.115,-0.015
'[10:00:17.375]',-0.125,-0.035
'[10:00:17.383]',-0.125,-0.035
'[10:00:17.391]',-0.135,-0.035
'[10:00:17.398]',-0.165,-0.035
'[10:00:17.406]',-0.155,-0.035
'[10:00:17.414]',-0.175,-0.025
'[10:00:17.422]',-0.175,-0.025
'[10:00:17.430]',-0.085,-0.005
'[10:00:17.438]',-0.045,0.085
'[10:00:17.445]',-0.065,0.125
'[10:00:17.453]',0.045,0.125
'[10:00:17.461]',0.125,0.175
'[10:00:17.469]',0.095,0.065
'[10:00:17.477]',0.045,0.025
'[10:00:17.484]',-0.015,-0.015
'[10:00:17.492]',-0.105,-0.035
'[10:00:17.500]',-0.235,-0.075
'[10:00:17.508]',-0.315,-0.105
'[10:00:17.516]',-0.325,-0.135
'[10:00:17.523]',-0.305,-0.145
'[10:00:17.531]',-0.305,-0.125
'[10:00:17.539]',-0.275,-0.135
'[10:00:17.547]',-0.265,-0.135
'[10:00:17.555]',-0.235,-0.125
'[10:00:17.563]',-0.415,-0.125
'[10:00:17.570]',-0.725,0.035
'[10:00:17.578]',-0.465,0.245
'[10:00:17.586]',0.675,0.305
'[10:00:17.594]',2.245,-0.025
'[10:00:17.602]',3.045,-0.825
'[10:00:17.609]',2.075,-1.315
'[10:00:17.617]',0.505,-1.065
'[10:00:17.625]',-0.125,-0.535
'[10:00:17.633]',-0.365,-0.135
'[10:00:17.641]',-0.415,-0.035
'[10:00:17.648]',-0.405,-0.065
'[10:00:17.656]',-0.405,-0.065
'[10:00:17.664]',-0.385,-0.075
'[10:00:17.672]',-0.395,-0.075
'[10:00:17.680]',-0.395,-0.095
'[10:00:17.688]',-0.385,-0.075
'[10:00:17.695]',-0.365,-0.065
'[10:00:17.703]',-0.385,-0.065
'[10:00:17.711]',-0.365,-0.075
'[10:00:17.719]',-0.365,-0.045
'[10:00:17.727]',-0.355,-0.055
'[10:00:17.734]',-0.355,-0.055
'[10:00:17.742]',-0.345,-0.065
'[10:00:17.750]',-0.315,-0.065
'[10:00:17.758]',-0.305,-0.055
'[10:00:17.766]',-0.305,-0.065
'[10:00:17.773]',-0.295,-0.085
'[10:00:17.781]',-0.265,-0.075
'[10:00:17.789]',-0.245,-0.075
'[10:00:17.797]',-0.225,-0.085
'[10:00:17.805]',-0.215,-0.095
'[10:00:17.813]',-0.195,-0.115
'[10:00:17.820]',-0.175,-0.105
'[10:00:17.828]',-0.155,-0.105
'[10:00:17.836]',-0.145,-0.095
'[10:00:17.844]',-0.115,-0.085
'[10:00:17.852]',-0.055,-0.065
'[10:00:17.859]',-0.035,-0.045
'[10:00:17.867]',-0.035,-0.025
'[10:00:17.875]',-0.045,0.015
'[10:00:17.883]',-0.095,0.035
'[10:00:17.891]',-0.075,0.055
'[10:00:17.898]',-0.135,0.025
'[10:00:17.906]',-0.165,0.015
'[10:00:17.914]',-0.175,0.015
'[10:00:17.922]',-0.145,0.025
'[10:00:17.930]',-0.165,0.025
'[10:00:17.938]',-0.165,0.015
'[10:00:17.945]',-0.165,0.045
'[10:00:17.953]',-0.165,0.045
'[10:00:17.961]',-0.155,0.025
'[10:00:17.969]',-0.165,0.035
'[10:00:17.977]',-0.145,0.025
'[10:00:17.984]',-0.145,0.025
'[10:00:17.992]',-0.145,0.025
'[10:00:18.000]',-0.155,0.035
'[10:00:18.008]',-0.135,0.045
'[10:00:18.016]',-0.145,0.035
'[10:00:18.023]',-0.175,0.035
'[10:00:18.031]',-0.165,0.035
'[10:00:18.039]',-0.175,0.055
'[10:00:18.047]',-0.165,0.035
'[10:00:18.055]',-0.185,0.025
'[10:00:18.063]',-0.195,0.015
'[10:00:18.070]',-0.195,0.025
'[10:00:18.078]',-0.155,0.045
'[10:00:18.086]',-0.105,0.125
'[10:00:18.094]',-0.085,0.165
'[10:00:18.102]',-0.005,0.205
'[10:00:18.109]',0.095,0.235
'[10:00:18.117]',0.055,0.105
'[10:00:18.125]',0.025,0.055
'[10:00:18.133]',-0.045,0.035
'[10:00:18.141]',-0.095,0.025
'[10:00:18.148]',-0.215,0.005
'[10:00:18.156]',-0.305,-0.045
'[10:00:18.164]',-0.365,-0.095
'[10:00:18.172]',-0.315,-0.095
'[10:00:18.180]',-0.315,-0.115
'[10:00:18.188]',-0.265,-0.085
'[10:00:18.195]',-0.265,-0.075
'[10:00:18.203]',-0.215,-0.085
'[10:00:18.211]',-0.505,-0.065
'[10:00:18.219]',-0.735,0.085
'[10:00:18.227]',-0.375,0.355
'[10:00:18.234]',0.865,0.375
'[10:00:18.242]',2.415,0.025
'[10:00:18.250]',2.955,-0.875
'[10:00:18.258]',1.775,-1.185
'[10:00:18.266]',0.355,-0.875
'[10:00:18.273]',-0.195,-0.385
'[10:00:18.281]',-0.415,-0.035
'[10:00:18.289]',-0.445,0.015
'[10:00:18.297]',-0.445,-0.025
'[10:00:18.305]',-0.425,-0.045
'[10:00:18.313]',-0.425,-0.035
'[10:00:18.320]',-0.425,-0.015
'[10:00:18.328]',-0.405,-0.025
'[10:00:18.336]',-0.395,-0.025
'[10:00:18.344]',-0.385,-0.035
'[10:00:18.352]',-0.375,-0.025
'[10:00:18.359]',-0.375,-0.025
'[10:00:18.367]',-0.385,-0.015
'[10:00:18.375]',-0.355,-0.015
'[10:00:18.383]',-0.355,-0.025
'[10:00:18.391]',-0.345,-0.035
'[10:00:18.398]',-0.355,-0.035
'[10:00:18.406]',-0.315,-0.045
'[10:00:18.414]',-0.295,-0.035
'[10:00:18.422]',-0.275,-0.055
'[10:00:18.430]',-0.245,-0.055
'[10:00:18.438]',-0.225,-0.055
'[10:00:18.445]',-0.215,-0.105
'[10:00:18.453]',-0.185,-0.095
'[10:00:18.461]',-0.205,-0.085
'[10:00:18.469]',-0.145,-0.105
'[10:00:18.477]',-0.125,-0.135
'[10:00:18.484]',-0.115,-0.085
'[10:00:18.492]',-0.075,-0.075
'[10:00:18.500]',-0.015,-0.045
'[10:00:18.508]',-0.025,-0.015
'[10:00:18.516]',-0.025,-0.005
'[10:00:18.523]',-0.025,0.025
'[10:00:18.531]',-0.045,0.045
'[10:00:18.539]',-0.085,0.055
'[10:00:18.547]',-0.065,0.055
'[10:00:18.555]',-0.105,0.025
'[10:00:18.563]',-0.145,0.005
'[10:00:18.570]',-0.145,0.015
'[10:00:18.578]',-0.095,0.015
'[10:00:18.586]',-0.135,0.005
'[10:00:18.594]',-0.125,-0.005
'[10:00:18.602]',-0.095,0.035
'[10:00:18.609]',-0.115,0.005
'[10:00:18.617]',-0.105,-0.035
'[10:00:18.625]',-0.085,0.005
'[10:00:18.633]',-0.095,0.005
'[10:00:18.641]',-0.095,0.015
'[10:00:18.648]',-0.095,0.025
'[10:00:18.656]',-0.095,-0.015
'[10:00:18.664]',-0.095,-0.015
'[10:00:18.672]',-0.125,-0.005
'[10:00:18.680]',-0.105,-0.005
'[10:00:18.688]',-0.105,-0.005
'[10:00:18.695]',-0.125,0.005
'[10:00:18.703]',-0.145,-0.015
'[10:00:18.711]',-0.155,-0.005
'[10:00:18.719]',-0.075,0.025
'[10:00:18.727]',-0.015,0.065
'[10:00:18.734]',-0.025,0.145
'[10:00:18.742]',-0.005,0.155
'[10:00:18.750]',0.135,0.165
'[10:00:18.758]',0.145,0.145
'[10:00:18.766]',0.085,0.035
'[10:00:18.773]',0.005,-0.005
'[10:00:18.781]',-0.045,-0.025
'[10:00:18.789]',-0.115,-0.015
'[10:00:18.797]',-0.245,-0.075
'[10:00:18.805]',-0.295,-0.125
'[10:00:18.813]',-0.275,-0.135
'[10:00:18.820]',-0.255,-0.125
'[10:00:18.828]',-0.265,-0.135
'[10:00:18.836]',-0.265,-0.135
'[10:00:18.844]',-0.225,-0.125
'[10:00:18.852]',-0.215,-0.105
'[10:00:18.859]',-0.625,-0.065
'[10:00:18.867]',-0.615,0.125
'[10:00:18.875]',0.055,0.385
'[10:00:18.883]',1.765,0.155
'[10:00:18.891]',2.825,-0.435
'[10:00:18.898]',2.585,-1.175
'[10:00:18.906]',1.075,-1.125
'[10:00:18.914]',0.075,-0.655
'[10:00:18.922]',-0.305,-0.195
'[10:00:18.930]',-0.405,-0.025
'[10:00:18.938]',-0.425,-0.055
'[10:00:18.945]',-0.425,-0.085
'[10:00:18.953]',-0.435,-0.085
'[10:00:18.961]',-0.425,-0.085
'[10:00:18.969]',-0.415,-0.075
'[10:00:18.977]',-0.405,-0.065
'[10:00:18.984]',-0.415,-0.065
'[10:00:18.992]',-0.405,-0.085
'[10:00:19.000]',-0.405,-0.075
'[10:00:19.008]',-0.395,-0.055
'[10:00:19.016]',-0.375,-0.065
'[10:00:19.023]',-0.375,-0.055
'[10:00:19.031]',-0.355,-0.065
'[10:00:19.039]',-0.335,-0.075
'[10:00:19.047]',-0.375,-0.085
'[10:00:19.055]',-0.345,-0.075
'[10:00:19.063]',-0.325,-0.085
'[10:00:19.070]',-0.305,-0.085
'[10:00:19.078]',-0.285,-0.085
'[10:00:19.086]',-0.265,-0.095
'[10:00:19.094]',-0.225,-0.135
'[10:00:19.102]',-0.225,-0.135
'[10:00:19.109]',-0.235,-0.135
'[10:00:19.117]',-0.205,-0.105
'[10:00:19.125]',-0.165,-0.115
'[10:00:19.133]',-0.155,-0.095
'[10:00:19.141]',-0.115,-0.095
'[10:00:19.148]',-0.115,-0.075
'[10:00:19.156]',-0.075,-0.045
'[10:00:19.164]',-0.075,-0.005
'[10:00:19.172]',-0.095,0.005
'[10:00:19.180]',-0.105,0.025
'[10:00:19.188]',-0.175,-0.015
'[10:00:19.195]',-0.205,-0.025
'[10:00:19.203]',-0.165,-0.025
'[10:00:19.211]',-0.165,-0.035
'[10:00:19.219]',-0.175,-0.025
'[10:00:19.227]',-0.155,-0.015
'[10:00:19.234]',-0.175,-0.035
'[10:00:19.242]',-0.155,-0.045
'[10:00:19.250]',-0.145,-0.015
'[10:00:19.258]',-0.135,-0.015
'[10:00:19.266]',-0.145,-0.045
'[10:00:19.273]',-0.165,-0.065
'[10:00:19.281]',-0.145,-0.055
'[10:00:19.289]',-0.175,-0.045
'[10:00:19.297]',-0.165,-0.045
'[10:00:19.305]',-0.165,-0.045
'[10:00:19.313]',-0.215,-0.025
'[10:00:19.320]',-0.175,-0.025
'[10:00:19.328]',-0.195,-0.055
'[10:00:19.336]',-0.205,-0.075
'[10:00:19.344]',-0.215,-0.065
'[10:00:19.352]',-0.205,-0.045
'[10:00:19.359]',-0.205,-0.045
'[10:00:19.367]',-0.255,-0.055
'[10:00:19.375]',-0.145,-0.025
'[10:00:19.383]',-0.135,0.055
'[10:00:19.391]',-0.105,0.085
'[10:00:19.398]',-0.055,0.095
'[10:00:19.406]',0.055,0.145
'[10:00:19.414]',0.035,0.055
'[10:00:19.422]',-0.005,0.005
'[10:00:19.430]',-0.065,-0.035
'[10:00:19.438]',-0.125,-0.065
'[10:00:19.445]',-0.285,-0.095
'[10:00:19.453]',-0.365,-0.145
'[10:00:19.461]',-0.405,-0.165
'[10:00:19.469]',-0.365,-0.165
'[10:00:19.477]',-0.345,-0.145
'[10:00:19.484]',-0.345,-0.155
'[10:00:19.492]',-0.335,-0.155
'[10:00:19.500]',-0.295,-0.145
'[10:00:19.508]',-0.435,-0.125
'[10:00:19.516]',-0.795,-0.035
'[10:00:19.523]',-0.575,0.245
'[10:00:19.531]',0.505,0.345
'[10:00:19.539]',2.215,0.085
'[10:00:19.547]',3.035,-0.715
'[10:00:19.555]',2.095,-1.315
'[10:00:19.563]',0.505,-1.065
'[10:00:19.570]',-0.155,-0.595
'[10:00:19.578]',-0.405,-0.205
'[10:00:19.586]',-0.485,-0.075
'[10:00:19.594]',-0.455,-0.085
'[10:00:19.602]',-0.525,-0.105
'[10:00:19.609]',-0.495,-0.095
'[10:00:19.617]',-0.455,-0.105
'[10:00:19.625]',-0.455,-0.115
'[10:00:19.633]',-0.465,-0.085
'[10:00:19.641]',-0.445,-0.085
'[10:00:19.648]',-0.475,-0.095
'[10:00:19.656]',-0.425,-0.085
'[10:00:19.664]',-0.435,-0.075
'[10:00:19.672]',-0.425,-0.065
'[10:00:19.680]',-0.415,-0.085
'[10:00:19.688]',-0.395,-0.075
'[10:00:19.695]',-0.375,-0.085
'[10:00:19.703]',-0.375,-0.105
'[10:00:19.711]',-0.365,-0.115
'[10:00:19.719]',-0.365,-0.105
'[10:00:19.727]',-0.315,-0.105
'[10:00:19.734]',-0.315,-0.125
'[10:00:19.742]',-0.345,-0.115
'[10:00:19.750]',-0.275,-0.115
'[10:00:19.758]',-0.225,-0.105
'[10:00:19.766]',-0.245,-0.145
'[10:00:19.773]',-0.235,-0.155
'[10:00:19.781]',-0.225,-0.165
'[10:00:19.789]',-0.195,-0.105
'[10:00:19.797]',-0.135,-0.105
'[10:00:19.805]',-0.075,-0.075
'[10:00:19.813]',-0.065,-0.045
'[10:00:19.820]',-0.085,-0.025
'[10:00:19.828]',-0.095,-0.025
'[10:00:19.836]',-0.135,-0.015
'[10:00:19.844]',-0.135,0.005
'[10:00:19.852]',-0.125,0.015
'[10:00:19.859]',-0.125,0.015
'[10:00:19.867]',-0.135,-0.005
'[10:00:19.875]',-0.155,-0.025
'[10:00:19.883]',-0.105,-0.005
'[10:00:19.891]',-0.105,-0.025
'[10:00:19.898]',-0.065,-0.005
'[10:00:19.906]',-0.075,-0.005
'[10:00:19.914]',-0.075,-0.035
'[10:00:19.922]',-0.065,-0.035
'[10:00:19.930]',-0.075,-0.025
'[10:00:19.938]',-0.065,-0.025
'[10:00:19.945]',-0.055,-0.015
'[10:00:19.953]',-0.075,-0.015
'[10:00:19.961]',-0.075,-0.035
'[10:00:19.969]',-0.055,-0.025
'[10:00:19.977]',-0.085,-0.025
'[10:00:19.984]',-0.065,-0.025
'[10:00:19.992]',-0.065,-0.045
'[10:00:20.000]',-0.115,-0.025
'[10:00:20.008]',-0.055,-0.015
'[10:00:20.016]',-0.085,-0.035
'[10:00:20.023]',-0.085,-0.045
'[10:00:20.031]',-0.085,-0.035
'[10:00:20.039]',-0.035,-0.005
'[10:00:20.047]',0.015,0.055
'[10:00:20.055]',0.045,0.125
'[10:00:20.063]',0.065,0.125
'[10:00:20.070]',0.225,0.135
'[10:00:20.078]',0.215,0.065
'[10:00:20.086]',0.155,0.025
'[10:00:20.094]',0.075,0.005
'[10:00:20.102]',0.035,-0.025
'[10:00:20.109]',-0.095,-0.075
'[10:00:20.117]',-0.165,-0.115
'[10:00:20.125]',-0.185,-0.145
'[10:00:20.133]',-0.185,-0.145
'[10:00:20.141]',-0.155,-0.145
'[10:00:20.148]',-0.155,-0.125
'[10:00:20.156]',-0.105,-0.125
'[10:00:20.164]',-0.105,-0.125
'[10:00:20.172]',-0.205,-0.135
'[10:00:20.180]',-0.595,-0.025
'[10:00:20.188]',-0.425,0.225
'[10:00:20.195]',0.535,0.335
'[10:00:20.203]',2.245,-0.005
'[10:00:20.211]',3.085,-0.835
'[10:00:20.219]',2.435,-1.375
'[10:00:20.227]',0.845,-1.145
'[10:00:20.234]',0.105,-0.575
'[10:00:20.242]',-0.195,-0.175
'[10:00:20.250]',-0.265,-0.035
'[10:00:20.258]',-0.265,-0.065
'[10:00:20.266]',-0.275,-0.085
'[10:00:20.273]',-0.245,-0.075
'[10:00:20.281]',-0.275,-0.065
'[10:00:20.289]',-0.265,-0.105
'[10:00:20.297]',-0.265,-0.075
'[10:00:20.305]',-0.225,-0.085
'[10:00:20.313]',-0.245,-0.075
'[10:00:20.320]',-0.215,-0.055
'[10:00:20.328]',-0.215,-0.055
'[10:00:20.336]',-0.205,-0.085
'[10:00:20.344]',-0.215,-0.055
'[10:00:20.352]',-0.185,-0.035
'[10:00:20.359]',-0.195,-0.055
'[10:00:20.367]',-0.195,-0.095
'[10:00:20.375]',-0.155,-0.085
'[10:00:20.383]',-0.145,-0.065
'[10:00:20.391]',-0.145,-0.085
'[10:00:20.398]',-0.115,-0.085
'[10:00:20.406]',-0.085,-0.065
'[10:00:20.414]',-0.075,-0.085
'[10:00:20.422]',-0.065,-0.095
'[10:00:20.430]',-0.035,-0.095
'[10:00:20.438]',-0.025,-0.095
'[10:00:20.445]',0.015,-0.095
'[10:00:20.453]',0.015,-0.075
'[10:00:20.461]',0.035,-0.075
'[10:00:20.469]',0.095,-0.055
'[10:00:20.477]',0.135,-0.025
'[10:00:20.484]',0.095,-0.005
'[10:00:20.492]',0.075,0.005
'[10:00:20.500]',0.025,0.015
'[10:00:20.508]',0.015,0.005
'[10:00:20.516]',0.015,-0.005
'[10:00:20.523]',-0.005,0.005
'[10:00:20.531]',0.015,-0.005
'[10:00:20.539]',0.035,-0.025
'[10:00:20.547]',0.035,-0.025
'[10:00:20.555]',0.035,-0.035
'[10:00:20.563]',0.015,-0.055
'[10:00:20.570]',0.035,-0.035
'[10:00:20.578]',0.045,-0.025
'[10:00:20.586]',0.055,-0.025
'[10:00:20.594]',0.045,-0.025
'[10:00:20.602]',0.045,-0.025
'[10:00:20.609]',0.055,-0.035
'[10:00:20.617]',0.065,-0.045
'[10:00:20.625]',0.055,-0.055
'[10:00:20.633]',0.065,-0.025
'[10:00:20.641]',0.025,-0.055
'[10:00:20.648]',0.015,-0.055
'[10:00:20.656]',0.025,-0.035
'[10:00:20.664]',-0.005,-0.045
'[10:00:20.672]',0.005,-0.055
'[10:00:20.680]',-0.015,-0.055
'[10:00:20.688]',0.015,-0.065
'[10:00:20.695]',-0.015,-0.045
'[10:00:20.703]',-0.015,-0.055
'[10:00:20.711]',-0.045,-0.095
'[10:00:20.719]',-0.025,-0.085
'[10:00:20.727]',-0.045,-0.065
'[10:00:20.734]',-0.045,-0.045
'[10:00:20.742]',0.085,-0.035
'[10:00:20.750]',0.105,0.085
'[10:00:20.758]',0.115,0.105
'[10:00:20.766]',0.185,0.095
'[10:00:20.773]',0.265,0.115
'[10:00:20.781]',0.245,0.055
'[10:00:20.789]',0.195,0.015
'[10:00:20.797]',0.115,-0.065
'[10:00:20.805]',0.035,-0.075
'[10:00:20.813]',-0.045,-0.105
'[10:00:20.820]',-0.105,-0.125
'[10:00:20.828]',-0.115,-0.145
'[10:00:20.836]',-0.115,-0.145
'[10:00:20.844]',-0.105,-0.165
'[10:00:20.852]',-0.085,-0.145
'[10:00:20.859]',-0.095,-0.155
'[10:00:20.867]',-0.045,-0.135
'[10:00:20.875]',-0.345,-0.115
'[10:00:20.883]',-0.525,0.055
'[10:00:20.891]',-0.135,0.315
'[10:00:20.898]',1.325,0.145
'[10:00:20.906]',2.625,-0.325
'[10:00:20.914]',3.105,-1.115
'[10:00:20.922]',1.815,-1.295
'[10:00:20.930]',0.435,-0.935
'[10:00:20.938]',-0.065,-0.375
'[10:00:20.945]',-0.205,-0.075
'[10:00:20.953]',-0.245,-0.055
'[10:00:20.961]',-0.235,-0.095
'[10:00:20.969]',-0.245,-0.085
'[10:00:20.977]',-0.245,-0.075
'[10:00:20.984]',-0.215,-0.095
'[10:00:20.992]',-0.255,-0.095
'[10:00:21.000]',-0.235,-0.075
'[10:00:21.008]',-0.205,-0.065
'[10:00:21.016]',-0.215,-0.075
'[10:00:21.023]',-0.215,-0.085
'[10:00:21.031]',-0.205,-0.075
'[10:00:21.039]',-0.185,-0.055
'[10:00:21.047]',-0.195,-0.065
'[10:00:21.055]',-0.165,-0.065
'[10:00:21.063]',-0.155,-0.055
'[10:00:21.070]',-0.145,-0.055
'[10:00:21.078]',-0.145,-0.085
'[10:00:21.086]',-0.145,-0.095
'[10:00:21.094]',-0.125,-0.065
'[10:00:21.102]',-0.115,-0.075
'[10:00:21.109]',-0.085,-0.095
'[10:00:21.117]',-0.055,-0.115
'[10:00:21.125]',-0.035,-0.105
'[10:00:21.133]',-0.015,-0.085
'[10:00:21.141]',0.015,-0.095
'[10:00:21.148]',0.025,-0.085
'[10:00:21.156]',0.045,-0.065
'[10:00:21.164]',0.095,-0.055
'[10:00:21.172]',0.125,-0.035
'[10:00:21.180]',0.135,-0.015
'[10:00:21.188]',0.135,0.005
'[10:00:21.195]',0.115,-0.005
'[10:00:21.203]',0.075,0.025
'[10:00:21.211]',0.045,0.025
'[10:00:21.219]',0.025,0.025
'[10:00:21.227]',0.005,-0.005
'[10:00:21.234]',-0.005,-0.015
'[10:00:21.242]',-0.025,-0.015
'[10:00:21.250]',0.015,-0.005
'[10:00:21.258]',0.025,-0.025
'[10:00:21.266]',0.025,-0.025
'[10:00:21.273]',0.015,-0.005
'[10:00:21.281]',0.055,-0.015
'[10:00:21.289]',0.045,-0.025
'[10:00:21.297]',0.055,-0.025
'[10:00:21.305]',0.035,-0.015
'[10:00:21.313]',0.035,-0.015
'[10:00:21.320]',0.045,-0.025
'[10:00:21.328]',0.045,-0.035
'[10:00:21.336]',0.015,-0.035
'[10:00:21.344]',0.035,-0.035
'[10:00:21.352]',0.005,-0.015
'[10:00:21.359]',-0.005,-0.035
'[10:00:21.367]',0.005,-0.025
'[10:00:21.375]',-0.025,-0.035
'[10:00:21.383]',-0.015,-0.045
'[10:00:21.391]',-0.045,-0.055
'[10:00:21.398]',-0.065,-0.045
'[10:00:21.406]',-0.055,-0.055
'[10:00:21.414]',-0.055,-0.045
'[10:00:21.422]',-0.085,-0.045
'[10:00:21.430]',-0.065,-0.055
'[10:00:21.438]',-0.045,-0.065
'[10:00:21.445]',-0.085,-0.075
'[10:00:21.453]',-0.075,-0.065
'[10:00:21.461]',0.015,-0.045
'[10:00:21.469]',0.085,0.065
'[10:00:21.477]',0.055,0.095
'[10:00:21.484]',0.145,0.105
'[10:00:21.492]',0.255,0.135
'[10:00:21.500]',0.185,0.065
'[10:00:21.508]',0.125,-0.005
'[10:00:21.516]',0.065,-0.095
'[10:00:21.523]',0.015,-0.075
'[10:00:21.531]',-0.115,-0.075
'[10:00:21.539]',-0.155,-0.135
'[10:00:21.547]',-0.145,-0.145
'[10:00:21.555]',-0.125,-0.145
'[10:00:21.563]',-0.145,-0.145
'[10:00:21.570]',-0.145,-0.145
'[10:00:21.578]',-0.105,-0.145
'[10:00:21.586]',-0.055,-0.115
'[10:00:21.594]',-0.385,-0.105
'[10:00:21.602]',-0.545,0.045
'[10:00:21.609]',-0.095,0.325
'[10:00:21.617]',1.375,0.185
'[10:00:21.625]',2.585,-0.245
'[10:00:21.633]',3.015,-1.075
'[10:00:21.641]',1.745,-1.225
'[10:00:21.648]',0.375,-0.925
'[10:00:21.656]',-0.085,-0.425
'[10:00:21.664]',-0.245,-0.075
'[10:00:21.672]',-0.255,-0.025
'[10:00:21.680]',-0.295,-0.075
'[10:00:21.688]',-0.305,-0.055
'[10:00:21.695]',-0.285,-0.055
'[10:00:21.703]',-0.295,-0.065
'[10:00:21.711]',-0.295,-0.065
'[10:00:21.719]',-0.315,-0.045
'[10:00:21.727]',-0.295,-0.055
'[10:00:21.734]',-0.295,-0.075
'[10:00:21.742]',-0.305,-0.055
'[10:00:21.750]',-0.305,-0.065
'[10:00:21.758]',-0.265,-0.055
'[10:00:21.766]',-0.245,-0.045
'[10:00:21.773]',-0.245,-0.045
'[10:00:21.781]',-0.255,-0.065
'[10:00:21.789]',-0.225,-0.055
'[10:00:21.797]',-0.235,-0.065
'[10:00:21.805]',-0.245,-0.055
'[10:00:21.813]',-0.225,-0.055
'[10:00:21.820]',-0.155,-0.095
'[10:00:21.828]',-0.145,-0.105
'[10:00:21.836]',-0.205,-0.075
'[10:00:21.844]',-0.165,-0.115
'[10:00:21.852]',-0.105,-0.105
'[10:00:21.859]',-0.125,-0.085
'[10:00:21.867]',-0.115,-0.065
'[10:00:21.875]',-0.085,-0.065
'[10:00:21.883]',-0.055,-0.035
'[10:00:21.891]',-0.015,-0.025
'[10:00:21.898]',0.015,-0.015
'[10:00:21.906]',0.045,-0.005
'[10:00:21.914]',-0.025,0.005
'[10:00:21.922]',-0.095,0.045
'[10:00:21.930]',-0.125,0.005
'[10:00:21.938]',-0.075,0.025
'[10:00:21.945]',-0.115,0.005
'[10:00:21.953]',-0.145,0.025
'[10:00:21.961]',-0.115,-0.005
'[10:00:21.969]',-0.105,-0.025
'[10:00:21.977]',-0.105,-0.025
'[10:00:21.984]',-0.105,-0.055
'[10:00:21.992]',-0.125,-0.025
'[10:00:22.000]',-0.115,-0.035
'[10:00:22.008]',-0.135,-0.005
'[10:00:22.016]',-0.125,-0.055
'[10:00:22.023]',-0.125,-0.045
'[10:00:22.031]',-0.115,-0.045
'[10:00:22.039]',-0.115,-0.005
'[10:00:22.047]',-0.155,-0.055
'[10:00:22.055]',-0.155,-0.075
'[10:00:22.063]',-0.155,-0.065
'[10:00:22.070]',-0.155,-0.035
'[10:00:22.078]',-0.185,-0.045
'[10:00:22.086]',-0.215,-0.045
'[10:00:22.094]',-0.225,-0.075
'[10:00:22.102]',-0.185,-0.055
'[10:00:22.109]',-0.225,-0.055
'[10:00:22.117]',-0.265,-0.085
'[10:00:22.125]',-0.245,-0.085
'[10:00:22.133]',-0.235,-0.055
'[10:00:22.141]',-0.275,-0.045
'[10:00:22.148]',-0.215,-0.075
'[10:00:22.156]',-0.255,-0.085
'[10:00:22.164]',-0.295,-0.045
'[10:00:22.172]',-0.185,-0.065
'[10:00:22.180]',-0.135,0.055
'[10:00:22.188]',-0.135,0.105
'[10:00:22.195]',-0.055,0.105
'[10:00:22.203]',0.015,0.085
'[10:00:22.211]',-0.025,0.055
'[10:00:22.219]',-0.085,-0.005
'[10:00:22.227]',-0.145,-0.055
'[10:00:22.234]',-0.235,-0.065
'[10:00:22.242]',-0.315,-0.085
'[10:00:22.250]',-0.375,-0.125
'[10:00:22.258]',-0.335,-0.145
'[10:00:22.266]',-0.405,-0.155
'[10:00:22.273]',-0.335,-0.135
'[10:00:22.281]',-0.395,-0.145
'[10:00:22.289]',-0.355,-0.115
'[10:00:22.297]',-0.285,-0.125
'[10:00:22.305]',-0.685,-0.105
'[10:00:22.313]',-0.785,0.075
'[10:00:22.320]',-0.225,0.365
'[10:00:22.328]',1.395,0.245
'[10:00:22.336]',2.655,-0.245
'[10:00:22.344]',2.595,-1.125
'[10:00:22.352]',0.985,-1.195
'[10:00:22.359]',-0.005,-0.785
'[10:00:22.367]',-0.425,-0.325
'[10:00:22.375]',-0.525,-0.085
'[10:00:22.383]',-0.535,-0.065
'[10:00:22.391]',-0.535,-0.085
'[10:00:22.398]',-0.595,-0.095
'[10:00:22.406]',-0.445,-0.115
'[10:00:22.414]',-0.545,-0.085
'[10:00:22.422]',-0.565,-0.065
'[10:00:22.430]',-0.535,-0.095
'[10:00:22.438]',-0.495,-0.085
'[10:00:22.445]',-0.555,-0.075
'[10:00:22.453]',-0.525,-0.045
'[10:00:22.461]',-0.545,-0.085
'[10:00:22.469]',-0.505,-0.075
'[10:00:22.477]',-0.505,-0.075
'[10:00:22.484]',-0.475,-0.065
'[10:00:22.492]',-0.465,-0.085
'[10:00:22.500]',-0.465,-0.085
'[10:00:22.508]',-0.465,-0.095
'[10:00:22.516]',-0.395,-0.105
'[10:00:22.523]',-0.435,-0.145
'[10:00:22.531]',-0.425,-0.095
'[10:00:22.539]',-0.415,-0.115
'[10:00:22.547]',-0.395,-0.125
'[10:00:22.555]',-0.365,-0.135
'[10:00:22.563]',-0.345,-0.145
'[10:00:22.570]',-0.325,-0.125
'[10:00:22.578]',-0.305,-0.135
'[10:00:22.586]',-0.285,-0.125
'[10:00:22.594]',-0.255,-0.105
'[10:00:22.602]',-0.235,-0.075
'[10:00:22.609]',-0.135,-0.075
'[10:00:22.617]',-0.225,-0.055
'[10:00:22.625]',-0.255,0.015
'[10:00:22.633]',-0.255,0.015
'[10:00:22.641]',-0.295,0.005
'[10:00:22.648]',-0.295,-0.015
'[10:00:22.656]',-0.295,-0.005
'[10:00:22.664]',-0.275,-0.005
'[10:00:22.672]',-0.295,-0.015
'[10:00:22.680]',-0.305,-0.025
'[10:00:22.688]',-0.275,-0.025
'[10:00:22.695]',-0.235,-0.025
'[10:00:22.703]',-0.235,-0.015
'[10:00:22.711]',-0.235,-0.025
'[10:00:22.719]',-0.225,-0.025
'[10:00:22.727]',-0.215,0.005
'[10:00:22.734]',-0.235,-0.005
'[10:00:22.742]',-0.225,-0.015
'[10:00:22.750]',-0.215,-0.035
'[10:00:22.758]',-0.215,0.005
'[10:00:22.766]',-0.225,-0.025
'[10:00:22.773]',-0.255,-0.025
'[10:00:22.781]',-0.245,-0.025
'[10:00:22.789]',-0.235,-0.005
'[10:00:22.797]',-0.245,-0.015
'[10:00:22.805]',-0.255,-0.015
'[10:00:22.813]',-0.235,-0.035
'[10:00:22.820]',-0.265,-0.025
'[10:00:22.828]',-0.255,-0.035
'[10:00:22.836]',-0.265,-0.035
'[10:00:22.844]',-0.245,-0.025
'[10:00:22.852]',-0.245,-0.015
'[10:00:22.859]',-0.205,-0.015
'[10:00:22.867]',-0.145,0.055
'[10:00:22.875]',-0.145,0.085
'[10:00:22.883]',-0.105,0.115
'[10:00:22.891]',0.055,0.125
'[10:00:22.898]',0.045,0.095
'[10:00:22.906]',-0.005,0.005
'[10:00:22.914]',-0.095,-0.025
'[10:00:22.922]',-0.105,-0.055
'[10:00:22.930]',-0.195,-0.045
'[10:00:22.938]',-0.275,-0.085
'[10:00:22.945]',-0.295,-0.125
'[10:00:22.953]',-0.255,-0.105
'[10:00:22.961]',-0.245,-0.115
'[10:00:22.969]',-0.245,-0.105
'[10:00:22.977]',-0.235,-0.105
'[10:00:22.984]',-0.205,-0.095
'[10:00:22.992]',-0.225,-0.105
'[10:00:23.000]',-0.645,-0.015
'[10:00:23.008]',-0.495,0.245
'[10:00:23.016]',0.515,0.405
'[10:00:23.023]',2.305,0.105
'[10:00:23.031]',3.155,-0.715
'[10:00:23.039]',2.095,-1.315
'[10:00:23.047]',0.525,-1.025
'[10:00:23.055]',-0.015,-0.495
'[10:00:23.063]',-0.225,-0.125
'[10:00:23.070]',-0.255,-0.005
'[10:00:23.078]',-0.275,-0.035
'[10:00:23.086]',-0.265,-0.055
'[10:00:23.094]',-0.245,-0.035
'[10:00:23.102]',-0.235,-0.035
'[10:00:23.109]',-0.225,-0.035
'[10:00:23.117]',-0.215,-0.035
'[10:00:23.125]',-0.205,-0.015
'[10:00:23.133]',-0.185,-0.005
'[10:00:23.141]',-0.165,-0.015
'[10:00:23.148]',-0.165,-0.035
'[10:00:23.156]',-0.155,-0.025
'[10:00:23.164]',-0.155,-0.015
'[10:00:23.172]',-0.105,-0.025
'[10:00:23.180]',-0.095,-0.045
'[10:00:23.188]',-0.085,-0.035
'[10:00:23.195]',-0.055,-0.025
'[10:00:23.203]',-0.015,-0.035
'[10:00:23.211]',-0.035,-0.055
'[10:00:23.219]',0.025,-0.055
'[10:00:23.227]',0.025,-0.055
'[10:00:23.234]',0.055,-0.075
'[10:00:23.242]',0.075,-0.085
'[10:00:23.250]',0.085,-0.075
'[10:00:23.258]',0.125,-0.055
'[10:00:23.266]',0.155,-0.055
'[10:00:23.273]',0.175,-0.045
'[10:00:23.281]',0.205,-0.025
'[10:00:23.289]',0.235,-0.005
'[10:00:23.297]',0.235,0.005
'[10:00:23.305]',0.235,0.035
'[10:00:23.313]',0.205,0.025
'[10:00:23.320]',0.195,0.055
'[10:00:23.328]',0.155,0.025
'[10:00:23.336]',0.155,0.045
'[10:00:23.344]',0.155,0.025
'[10:00:23.352]',0.145,0.045
'[10:00:23.359]',0.135,0.025
'[10:00:23.367]',0.165,0.025
'[10:00:23.375]',0.195,0.015
'[10:00:23.383]',0.205,0.025
'[10:00:23.391]',0.175,0.005
'[10:00:23.398]',0.175,-0.005
'[10:00:23.406]',0.205,0.005
'[10:00:23.414]',0.215,0.005
'[10:00:23.422]',0.205,-0.005
'[10:00:23.430]',0.185,-0.005
'[10:00:23.438]',0.205,0.005
'[10:00:23.445]',0.195,-0.005
'[10:00:23.453]',0.195,-0.005
'[10:00:23.461]',0.185,-0.015
'[10:00:23.469]',0.175,-0.025
'[10:00:23.477]',0.175,-0.015
'[10:00:23.484]',0.155,-0.015
'[10:00:23.492]',0.145,-0.035
'[10:00:23.500]',0.145,-0.025
'[10:00:23.508]',0.125,-0.025
'[10:00:23.516]',0.115,-0.035
'[10:00:23.523]',0.115,-0.025
'[10:00:23.531]',0.095,-0.025
'[10:00:23.539]',0.095,-0.025
'[10:00:23.547]',0.105,-0.035
'[10:00:23.555]',0.075,-0.025
'[10:00:23.563]',0.085,-0.025
'[10:00:23.570]',0.085,-0.025
'[10:00:23.578]',0.165,-0.015
'[10:00:23.586]',0.245,0.065
'[10:00:23.594]',0.245,0.105
'[10:00:23.602]',0.305,0.155
'[10:00:23.609]',0.425,0.135
'[10:00:23.617]',0.375,0.085
'[10:00:23.625]',0.345,0.045
'[10:00:23.633]',0.275,-0.005
'[10:00:23.641]',0.215,-0.045
'[10:00:23.648]',0.115,-0.065
'[10:00:23.656]',0.035,-0.085
'[10:00:23.664]',0.005,-0.105
'[10:00:23.672]',-0.015,-0.135
'[10:00:23.680]',-0.005,-0.155
'[10:00:23.688]',0.005,-0.135
'[10:00:23.695]',0.025,-0.125
'[10:00:23.703]',0.025,-0.115
'[10:00:23.711]',0.065,-0.135
'[10:00:23.719]',-0.315,-0.085
'[10:00:23.727]',-0.445,0.115
'[10:00:23.734]',0.085,0.345
'[10:00:23.742]',1.575,0.105
'[10:00:23.750]',2.765,-0.495
'[10:00:23.758]',3.145,-1.275
'[10:00:23.766]',1.765,-1.285
'[10:00:23.773]',0.475,-0.865
'[10:00:23.781]',0.035,-0.305
'[10:00:23.789]',-0.115,-0.025
'[10:00:23.797]',-0.155,-0.045
'[10:00:23.805]',-0.145,-0.085
'[10:00:23.813]',-0.145,-0.085
'[10:00:23.820]',-0.165,-0.065
'[10:00:23.828]',-0.135,-0.065
'[10:00:23.836]',-0.125,-0.075
'[10:00:23.844]',-0.115,-0.065
'[10:00:23.852]',-0.105,-0.055
'[10:00:23.859]',-0.135,-0.055
'[10:00:23.867]',-0.115,-0.065
'[10:00:23.875]',-0.105,-0.055
'[10:00:23.883]',-0.115,-0.035
'[10:00:23.891]',-0.105,-0.055
'[10:00:23.898]',-0.115,-0.055
'[10:00:23.906]',-0.085,-0.055
'[10:00:23.914]',-0.065,-0.045
'[10:00:23.922]',-0.065,-0.055
'[10:00:23.930]',-0.055,-0.065
'[10:00:23.938]',-0.015,-0.065
'[10:00:23.945]',0.005,-0.065
'[10:00:23.953]',0.005,-0.075
'[10:00:23.961]',0.035,-0.085
'[10:00:23.969]',0.045,-0.095
'[10:00:23.977]',0.095,-0.085
'[10:00:23.984]',0.105,-0.075
'[10:00:23.992]',0.135,-0.055
'[10:00:24.000]',0.165,-0.055
'[10:00:24.008]',0.195,-0.035
'[10:00:24.016]',0.195,-0.015
'[10:00:24.023]',0.205,0.005
'[10:00:24.031]',0.195,0.005
'[10:00:24.039]',0.205,0.025
'[10:00:24.047]',0.155,0.005
'[10:00:24.055]',0.105,0.005
'[10:00:24.063]',0.085,-0.005
'[10:00:24.070]',0.085,0.005
'[10:00:24.078]',0.075,-0.015
'[10:00:24.086]',0.075,-0.035
'[10:00:24.094]',0.095,-0.025
'[10:00:24.102]',0.095,-0.025
'[10:00:24.109]',0.085,-0.035
'[10:00:24.117]',0.085,-0.035
'[10:00:24.125]',0.095,-0.035
'[10:00:24.133]',0.115,-0.025
'[10:00:24.141]',0.115,-0.025
'[10:00:24.148]',0.105,-0.045
'[10:00:24.156]',0.115,-0.025
'[10:00:24.164]',0.105,-0.035
'[10:00:24.172]',0.075,-0.035
'[10:00:24.180]',0.095,-0.055
'[10:00:24.188]',0.085,-0.035
'[10:00:24.195]',0.075,-0.045
'[10:00:24.203]',0.045,-0.035
'[10:00:24.211]',0.025,-0.055
'[10:00:24.219]',0.005,-0.055
'[10:00:24.227]',0.015,-0.055
'[10:00:24.234]',0.015,-0.065
'[10:00:24.242]',-0.005,-0.065
'[10:00:24.250]',0.005,-0.065
'[10:00:24.258]',-0.015,-0.075
'[10:00:24.266]',-0.035,-0.065
'[10:00:24.273]',-0.045,-0.075
'[10:00:24.281]',-0.035,-0.065
'[10:00:24.289]',-0.035,-0.065
'[10:00:24.297]',0.045,-0.055
'[10:00:24.305]',0.105,0.035
'[10:00:24.313]',0.085,0.075
'[10:00:24.320]',0.185,0.085
'[10:00:24.328]',0.265,0.105
'[10:00:24.336]',0.255,0.025
'[10:00:24.344]',0.195,-0.005
'[10:00:24.352]',0.155,-0.045
'[10:00:24.359]',0.085,-0.085
'[10:00:24.367]',-0.025,-0.105
'[10:00:24.375]',-0.115,-0.135
'[10:00:24.383]',-0.135,-0.155
'[10:00:24.391]',-0.135,-0.175
'[10:00:24.398]',-0.155,-0.165
'[10:00:24.406]',-0.135,-0.165
'[10:00:24.414]',-0.105,-0.155
'[10:00:24.422]',-0.085,-0.165
'[10:00:24.430]',-0.185,-0.165
'[10:00:24.438]',-0.555,-0.035
'[10:00:24.445]',-0.395,0.215
'[10:00:24.453]',0.685,0.265
'[10:00:24.461]',2.265,-0.125
'[10:00:24.469]',3.125,-0.935
'[10:00:24.477]',2.335,-1.325
'[10:00:24.484]',0.735,-1.095
'[10:00:24.492]',0.045,-0.585
'[10:00:24.500]',-0.215,-0.165
'[10:00:24.508]',-0.275,-0.055
'[10:00:24.516]',-0.305,-0.095
'[10:00:24.523]',-0.295,-0.115
'[10:00:24.531]',-0.305,-0.095
'[10:00:24.539]',-0.305,-0.095
'[10:00:24.547]',-0.295,-0.105
'[10:00:24.555]',-0.305,-0.095
'[10:00:24.563]',-0.265,-0.105
'[10:00:24.570]',-0.275,-0.075
'[10:00:24.578]',-0.275,-0.095
'[10:00:24.586]',-0.275,-0.085
'[10:00:24.594]',-0.275,-0.085
'[10:00:24.602]',-0.265,-0.065
'[10:00:24.609]',-0.255,-0.075
'[10:00:24.617]',-0.255,-0.095
'[10:00:24.625]',-0.235,-0.085
'[10:00:24.633]',-0.215,-0.075
'[10:00:24.641]',-0.215,-0.085
'[10:00:24.648]',-0.195,-0.105
'[10:00:24.656]',-0.175,-0.095
'[10:00:24.664]',-0.155,-0.095
'[10:00:24.672]',-0.145,-0.105
'[10:00:24.680]',-0.145,-0.115
'[10:00:24.688]',-0.115,-0.115
'[10:00:24.695]',-0.095,-0.105
'[10:00:24.703]',-0.085,-0.105
'[10:00:24.711]',-0.075,-0.115
'[10:00:24.719]',-0.025,-0.085
'[10:00:24.727]',0.005,-0.055
'[10:00:24.734]',0.005,-0.045
'[10:00:24.742]',0.005,-0.025
'[10:00:24.750]',-0.005,-0.015
'[10:00:24.758]',-0.035,0.015
'[10:00:24.766]',-0.065,0.005
'[10:00:24.773]',-0.095,0.005
'[10:00:24.781]',-0.125,-0.015
'[10:00:24.789]',-0.115,0.005
'[10:00:24.797]',-0.135,-0.015
'[10:00:24.805]',-0.145,-0.035
'[10:00:24.813]',-0.125,-0.035
'[10:00:24.820]',-0.115,-0.025
'[10:00:24.828]',-0.115,-0.035
'[10:00:24.836]',-0.125,-0.045
'[10:00:24.844]',-0.105,-0.045
'[10:00:24.852]',-0.105,-0.035
'[10:00:24.859]',-0.115,-0.035
'[10:00:24.867]',-0.115,-0.045
'[10:00:24.875]',-0.135,-0.045
'[10:00:24.883]',-0.135,-0.035
'[10:00:24.891]',-0.145,-0.045
'[10:00:24.898]',-0.145,-0.045
'[10:00:24.906]',-0.155,-0.045
'[10:00:24.914]',-0.165,-0.035
'[10:00:24.922]',-0.185,-0.045
'[10:00:24.930]',-0.195,-0.065
'[10:00:24.938]',-0.195,-0.055
'[10:00:24.945]',-0.205,-0.055
'[10:00:24.953]',-0.225,-0.065
'[10:00:24.961]',-0.235,-0.075
'[10:00:24.969]',-0.255,-0.075
'[10:00:24.977]',-0.255,-0.075
'[10:00:24.984]',-0.265,-0.085
'[10:00:24.992]',-0.275,-0.105
'[10:00:25.000]',-0.275,-0.095
'[10:00:25.008]',-0.265,-0.075
'[10:00:25.016]',-0.285,-0.075
'[10:00:25.023]',-0.185,-0.055
'[10:00:25.031]',-0.145,0.045
'[10:00:25.039]',-0.175,0.075
'[10:00:25.047]',-0.105,0.075
'[10:00:25.055]',0.005,0.105
'[10:00:25.063]',-0.005,0.015
'[10:00:25.070]',-0.065,0.015
'[10:00:25.078]',-0.115,-0.065
'[10:00:25.086]',-0.205,-0.085
'[10:00:25.094]',-0.305,-0.105
'[10:00:25.102]',-0.375,-0.125
'[10:00:25.109]',-0.385,-0.165
'[10:00:25.117]',-0.395,-0.175
'[10:00:25.125]',-0.365,-0.165
'[10:00:25.133]',-0.375,-0.145
'[10:00:25.141]',-0.365,-0.145
'[10:00:25.148]',-0.325,-0.155
'[10:00:25.156]',-0.595,-0.115
'[10:00:25.164]',-0.825,0.045
'[10:00:25.172]',-0.465,0.325
'[10:00:25.180]',0.925,0.205
'[10:00:25.188]',2.405,-0.265
'[10:00:25.195]',2.805,-1.155
'[10:00:25.203]',1.275,-1.275
'[10:00:25.211]',0.035,-0.845
'[10:00:25.219]',-0.385,-0.325
'[10:00:25.227]',-0.515,-0.085
'[10:00:25.234]',-0.545,-0.065
'[10:00:25.242]',-0.555,-0.105
'[10:00:25.250]',-0.575,-0.095
'[10:00:25.258]',-0.555,-0.085
'[10:00:25.266]',-0.565,-0.085
'[10:00:25.273]',-0.555,-0.095
'[10:00:25.281]',-0.555,-0.085
'[10:00:25.289]',-0.545,-0.075
'[10:00:25.297]',-0.555,-0.085
'[10:00:25.305]',-0.555,-0.085
'[10:00:25.313]',-0.555,-0.075
'[10:00:25.320]',-0.545,-0.055
'[10:00:25.328]',-0.535,-0.075
'[10:00:25.336]',-0.535,-0.065
'[10:00:25.344]',-0.545,-0.075
'[10:00:25.352]',-0.515,-0.075
'[10:00:25.359]',-0.505,-0.085
'[10:00:25.367]',-0.505,-0.085
'[10:00:25.375]',-0.475,-0.095
'[10:00:25.383]',-0.475,-0.095
'[10:00:25.391]',-0.445,-0.115
'[10:00:25.398]',-0.435,-0.125
'[10:00:25.406]',-0.415,-0.125
'[10:00:25.414]',-0.405,-0.125
'[10:00:25.422]',-0.385,-0.115
'[10:00:25.430]',-0.365,-0.115
'[10:00:25.438]',-0.345,-0.115
'[10:00:25.445]',-0.315,-0.085
'[10:00:25.453]',-0.305,-0.065
'[10:00:25.461]',-0.285,-0.055
'[10:00:25.469]',-0.295,-0.025
'[10:00:25.477]',-0.295,-0.005
'[10:00:25.484]',-0.335,0.005
'[10:00:25.492]',-0.365,0.005
'[10:00:25.500]',-0.375,0.005
'[10:00:25.508]',-0.385,0.005
'[10:00:25.516]',-0.405,-0.015
'[10:00:25.523]',-0.405,-0.015
'[10:00:25.531]',-0.395,-0.025
'[10:00:25.539]',-0.375,-0.025
'[10:00:25.547]',-0.385,-0.025
'[10:00:25.555]',-0.375,-0.035
'[10:00:25.563]',-0.375,-0.025
'[10:00:25.570]',-0.365,-0.025
'[10:00:25.578]',-0.375,-0.025
'[10:00:25.586]',-0.375,-0.025
'[10:00:25.594]',-0.365,-0.025
'[10:00:25.602]',-0.365,-0.015
'[10:00:25.609]',-0.365,-0.015
'[10:00:25.617]',-0.375,-0.035
'[10:00:25.625]',-0.375,-0.025
'[10:00:25.633]',-0.385,-0.025
'[10:00:25.641]',-0.385,-0.035
'[10:00:25.648]',-0.415,-0.035
'[10:00:25.656]',-0.415,-0.045
'[10:00:25.664]',-0.405,-0.035
'[10:00:25.672]',-0.415,-0.025
'[10:00:25.680]',-0.425,-0.045
'[10:00:25.688]',-0.425,-0.045
'[10:00:25.695]',-0.415,-0.035
'[10:00:25.703]',-0.425,-0.045
'[10:00:25.711]',-0.375,-0.035
'[10:00:25.719]',-0.325,0.045
'[10:00:25.727]',-0.305,0.095
'[10:00:25.734]',-0.275,0.095
'[10:00:25.742]',-0.185,0.115
'[10:00:25.750]',-0.185,0.045
'[10:00:25.758]',-0.235,0.015
'[10:00:25.766]',-0.285,-0.055
'[10:00:25.773]',-0.335,-0.065
'[10:00:25.781]',-0.425,-0.065
'[10:00:25.789]',-0.475,-0.085
'[10:00:25.797]',-0.495,-0.125
'[10:00:25.805]',-0.485,-0.135
'[10:00:25.813]',-0.465,-0.125
'[10:00:25.820]',-0.455,-0.105
'[10:00:25.828]',-0.435,-0.125
'[10:00:25.836]',-0.375,-0.115
'[10:00:25.844]',-0.625,-0.095
'[10:00:25.852]',-0.885,0.105
'[10:00:25.859]',-0.475,0.355
'[10:00:25.867]',0.955,0.345
'[10:00:25.875]',2.525,-0.045
'[10:00:25.883]',2.855,-0.895
'[10:00:25.891]',1.305,-1.245
'[10:00:25.898]',0.035,-0.875
'[10:00:25.906]',-0.335,-0.395
'[10:00:25.914]',-0.475,-0.085
'[10:00:25.922]',-0.505,-0.025
'[10:00:25.930]',-0.505,-0.075
'[10:00:25.938]',-0.505,-0.065
'[10:00:25.945]',-0.485,-0.065
'[10:00:25.953]',-0.485,-0.065
'[10:00:25.961]',-0.485,-0.075
'[10:00:25.969]',-0.475,-0.065
'[10:00:25.977]',-0.445,-0.045
'[10:00:25.984]',-0.435,-0.055
'[10:00:25.992]',-0.415,-0.075
'[10:00:26.000]',-0.415,-0.055
'[10:00:26.008]',-0.395,-0.035
'[10:00:26.016]',-0.385,-0.045
'[10:00:26.023]',-0.365,-0.065
'[10:00:26.031]',-0.345,-0.055
'[10:00:26.039]',-0.325,-0.065
'[10:00:26.047]',-0.315,-0.065
'[10:00:26.055]',-0.295,-0.085
'[10:00:26.063]',-0.275,-0.085
'[10:00:26.070]',-0.235,-0.085
'[10:00:26.078]',-0.215,-0.105
'[10:00:26.086]',-0.215,-0.115
'[10:00:26.094]',-0.175,-0.115
'[10:00:26.102]',-0.155,-0.115
'[10:00:26.109]',-0.135,-0.105
'[10:00:26.117]',-0.115,-0.105
'[10:00:26.125]',-0.075,-0.095
'[10:00:26.133]',-0.055,-0.075
'[10:00:26.141]',-0.025,-0.055
'[10:00:26.148]',-0.035,-0.015
'[10:00:26.156]',-0.025,0.015
'[10:00:26.164]',-0.055,0.045
'[10:00:26.172]',-0.055,0.055
'[10:00:26.180]',-0.065,0.045
'[10:00:26.188]',-0.085,0.045
'[10:00:26.195]',-0.085,0.055
'[10:00:26.203]',-0.105,0.035
'[10:00:26.211]',-0.095,0.035
'[10:00:26.219]',-0.095,0.025
'[10:00:26.227]',-0.075,0.045
'[10:00:26.234]',-0.055,0.035
'[10:00:26.242]',-0.055,0.025
'[10:00:26.250]',-0.035,0.015
'[10:00:26.258]',-0.015,0.045
'[10:00:26.266]',-0.025,0.025
'[10:00:26.273]',-0.015,0.015
'[10:00:26.281]',-0.035,0.005
'[10:00:26.289]',-0.015,0.025
'[10:00:26.297]',-0.005,0.015
'[10:00:26.305]',-0.015,0.015
'[10:00:26.313]',-0.005,0.005
'[10:00:26.320]',-0.025,0.015
'[10:00:26.328]',-0.035,0.015
'[10:00:26.336]',-0.045,-0.005
'[10:00:26.344]',-0.035,-0.005
'[10:00:26.352]',-0.045,0.005
'[10:00:26.359]',-0.055,-0.005
'[10:00:26.367]',-0.065,-0.015
'[10:00:26.375]',-0.055,-0.005
'[10:00:26.383]',-0.065,0.005
'[10:00:26.391]',-0.075,-0.005
'[10:00:26.398]',-0.075,-0.025
'[10:00:26.406]',-0.075,-0.015
'[10:00:26.414]',-0.045,-0.005
'[10:00:26.422]',0.045,0.035
'[10:00:26.430]',0.065,0.115
'[10:00:26.438]',0.085,0.145
'[10:00:26.445]',0.215,0.145
'[10:00:26.453]',0.235,0.155
'[10:00:26.461]',0.185,0.055
'[10:00:26.469]',0.145,0.025
'[10:00:26.477]',0.095,-0.015
'[10:00:26.484]',-0.015,-0.025
'[10:00:26.492]',-0.105,-0.075
'[10:00:26.500]',-0.155,-0.105
'[10:00:26.508]',-0.155,-0.105
'[10:00:26.516]',-0.135,-0.105
'[10:00:26.523]',-0.145,-0.125
'[10:00:26.531]',-0.115,-0.105
'[10:00:26.539]',-0.095,-0.095
'[10:00:26.547]',-0.075,-0.105
'[10:00:26.555]',-0.475,-0.035
'[10:00:26.563]',-0.585,0.205
'[10:00:26.570]',0.045,0.405
'[10:00:26.578]',1.705,0.025
'[10:00:26.586]',2.875,-0.745
'[10:00:26.594]',2.895,-1.365
'[10:00:26.602]',1.335,-1.225
'[10:00:26.609]',0.255,-0.665
'[10:00:26.617]',-0.135,-0.175
'[10:00:26.625]',-0.245,0.005
'[10:00:26.633]',-0.265,-0.005
'[10:00:26.641]',-0.255,-0.045
'[10:00:26.648]',-0.265,-0.045
'[10:00:26.656]',-0.235,-0.025
'[10:00:26.664]',-0.235,-0.035
'[10:00:26.672]',-0.235,-0.025
'[10:00:26.680]',-0.225,-0.035
'[10:00:26.688]',-0.225,-0.025
'[10:00:26.695]',-0.215,-0.015
'[10:00:26.703]',-0.215,-0.025
'[10:00:26.711]',-0.215,-0.025
'[10:00:26.719]',-0.195,-0.005
'[10:00:26.727]',-0.195,-0.005
'[10:00:26.734]',-0.195,-0.015
'[10:00:26.742]',-0.165,-0.025
'[10:00:26.750]',-0.155,-0.015
'[10:00:26.758]',-0.145,-0.015
'[10:00:26.766]',-0.135,-0.025
'[10:00:26.773]',-0.105,-0.025
'[10:00:26.781]',-0.095,-0.035
'[10:00:26.789]',-0.075,-0.035
'[10:00:26.797]',-0.045,-0.035
'[10:00:26.805]',-0.015,-0.055
'[10:00:26.813]',-0.005,-0.055
'[10:00:26.820]',0.025,-0.045
'[10:00:26.828]',0.065,-0.035
'[10:00:26.836]',0.065,-0.035
'[10:00:26.844]',0.105,-0.025
'[10:00:26.852]',0.135,0.025
'[10:00:26.859]',0.135,0.035
'[10:00:26.867]',0.125,0.035
'[10:00:26.875]',0.105,0.055
'[10:00:26.883]',0.075,0.055
'[10:00:26.891]',0.045,0.055
'[10:00:26.898]',0.035,0.035
'[10:00:26.906]',0.015,0.045
'[10:00:26.914]',0.015,0.025
'[10:00:26.922]',0.015,0.015
'[10:00:26.930]',0.015,0.015
'[10:00:26.938]',0.015,0.015
'[10:00:26.945]',0.045,0.015
'[10:00:26.953]',0.045,0.005
'[10:00:26.961]',0.045,-0.005
'[10:00:26.969]',0.055,-0.005
'[10:00:26.977]',0.075,0.015
'[10:00:26.984]',0.075,0.015
'[10:00:26.992]',0.075,0.005
'[10:00:27.000]',0.075,-0.005
'[10:00:27.008]',0.075,0.015
'[10:00:27.016]',0.085,0.015
'[10:00:27.023]',0.055,0.005
'[10:00:27.031]',0.055,-0.005
'[10:00:27.039]',0.065,0.005
'[10:00:27.047]',0.055,0.005
'[10:00:27.055]',0.035,-0.005
'[10:00:27.063]',0.035,-0.015
'[10:00:27.070]',0.015,-0.015
'[10:00:27.078]',0.005,-0.015
'[10:00:27.086]',0.005,-0.025
'[10:00:27.094]',-0.005,-0.015
'[10:00:27.102]',0.015,-0.015
'[10:00:27.109]',-0.015,-0.015
'[10:00:27.117]',-0.005,-0.035
'[10:00:27.125]',0.085,0.025
'[10:00:27.133]',0.135,0.115
'[10:00:27.141]',0.125,0.145
'[10:00:27.148]',0.265,0.135
'[10:00:27.156]',0.315,0.185
'[10:00:27.164]',0.315,0.065
'[10:00:27.172]',0.255,0.025
'[10:00:27.180]',0.195,-0.015
'[10:00:27.188]',0.095,-0.025
'[10:00:27.195]',-0.025,-0.065
'[10:00:27.203]',-0.075,-0.105
'[10:00:27.211]',-0.075,-0.115
'[10:00:27.219]',-0.065,-0.105
'[10:00:27.227]',-0.065,-0.095
'[10:00:27.234]',-0.045,-0.105
'[10:00:27.242]',-0.045,-0.105
'[10:00:27.250]',0.005,-0.095
'[10:00:27.258]',-0.365,-0.035
'[10:00:27.266]',-0.515,0.165
'[10:00:27.273]',0.035,0.415
'[10:00:27.281]',1.655,0.115
'[10:00:27.289]',2.845,-0.545
'[10:00:27.297]',2.925,-1.275
'[10:00:27.305]',1.335,-1.185
'[10:00:27.313]',0.285,-0.685
'[10:00:27.320]',-0.095,-0.185
'[10:00:27.328]',-0.225,-0.005
'[10:00:27.336]',-0.225,-0.015
'[10:00:27.344]',-0.225,-0.035
'[10:00:27.352]',-0.225,-0.025
'[10:00:27.359]',-0.225,-0.025
'[10:00:27.367]',-0.235,-0.035
'[10:00:27.375]',-0.215,-0.035
'[10:00:27.383]',-0.215,-0.015
'[10:00:27.391]',-0.215,-0.025
'[10:00:27.398]',-0.215,-0.025
'[10:00:27.406]',-0.205,-0.015
'[10:00:27.414]',-0.205,-0.015
'[10:00:27.422]',-0.215,-0.005
'[10:00:27.430]',-0.195,-0.015
'[10:00:27.438]',-0.185,-0.005
'[10:00:27.445]',-0.165,-0.015
'[10:00:27.453]',-0.155,-0.015
'[10:00:27.461]',-0.155,-0.045
'[10:00:27.469]',-0.145,-0.025
'[10:00:27.477]',-0.135,-0.025
'[10:00:27.484]',-0.125,-0.035
'[10:00:27.492]',-0.095,-0.045
'[10:00:27.500]',-0.075,-0.055
'[10:00:27.508]',-0.055,-0.035
'[10:00:27.516]',-0.045,-0.055
'[10:00:27.523]',-0.025,-0.045
'[10:00:27.531]',-0.005,-0.045
'[10:00:27.539]',0.035,-0.015
'[10:00:27.547]',0.045,-0.015
'[10:00:27.555]',0.065,0.005
'[10:00:27.563]',0.045,0.045
'[10:00:27.570]',0.025,0.065
'[10:00:27.578]',-0.005,0.055
'[10:00:27.586]',-0.055,0.055
'[10:00:27.594]',-0.065,0.055
'[10:00:27.602]',-0.095,0.065
'[10:00:27.609]',-0.095,0.055
'[10:00:27.617]',-0.115,0.035
'[10:00:27.625]',-0.105,0.035
'[10:00:27.633]',-0.105,0.045
'[10:00:27.641]',-0.105,0.035
'[10:00:27.648]',-0.105,0.015
'[10:00:27.656]',-0.095,0.035
'[10:00:27.664]',-0.085,0.045
'[10:00:27.672]',-0.085,0.035
'[10:00:27.680]',-0.095,0.025
'[10:00:27.688]',-0.095,0.045
'[10:00:27.695]',-0.085,0.045
'[10:00:27.703]',-0.095,0.045
'[10:00:27.711]',-0.105,0.025
'[10:00:27.719]',-0.115,0.045
'[10:00:27.727]',-0.095,0.035
'[10:00:27.734]',-0.125,0.035
'[10:00:27.742]',-0.125,0.015
'[10:00:27.750]',-0.155,0.025
'[10:00:27.758]',-0.145,0.035
'[10:00:27.766]',-0.165,0.015
'[10:00:27.773]',-0.175,0.015
'[10:00:27.781]',-0.175,0.015
'[10:00:27.789]',-0.195,0.015
'[10:00:27.797]',-0.205,0.005
'[10:00:27.805]',-0.215,0.005
'[10:00:27.813]',-0.205,0.005
'[10:00:27.820]',-0.205,0.015
'[10:00:27.828]',-0.145,0.035
'[10:00:27.836]',-0.105,0.105
'[10:00:27.844]',-0.105,0.155
'[10:00:27.852]',-0.055,0.165
'[10:00:27.859]',0.065,0.195
'[10:00:27.867]',0.035,0.115
'[10:00:27.875]',0.005,0.075
'[10:00:27.883]',-0.075,0.025
'[10:00:27.891]',-0.115,0.005
'[10:00:27.898]',-0.215,-0.005
'[10:00:27.906]',-0.295,-0.035
'[10:00:27.914]',-0.315,-0.065
'[10:00:27.922]',-0.315,-0.075
'[10:00:27.930]',-0.315,-0.075
'[10:00:27.938]',-0.315,-0.075
'[10:00:27.945]',-0.295,-0.055
'[10:00:27.953]',-0.295,-0.055
'[10:00:27.961]',-0.295,-0.045
'[10:00:27.969]',-0.695,0.045
'[10:00:27.977]',-0.695,0.295
'[10:00:27.984]',-0.025,0.465
'[10:00:27.992]',1.785,0.245
'[10:00:28.000]',2.915,-0.445
'[10:00:28.008]',2.615,-1.185
'[10:00:28.016]',0.915,-1.085
'[10:00:28.023]',-0.065,-0.615
'[10:00:28.031]',-0.385,-0.155
'[10:00:28.039]',-0.455,0.035
'[10:00:28.047]',-0.455,0.005
'[10:00:28.055]',-0.475,-0.025
'[10:00:28.063]',-0.455,-0.025
'[10:00:28.070]',-0.455,-0.015
'[10:00:28.078]',-0.455,-0.025
'[10:00:28.086]',-0.465,-0.035
'[10:00:28.094]',-0.445,-0.015
'[10:00:28.102]',-0.425,-0.005
'[10:00:28.109]',-0.415,-0.005
'[10:00:28.117]',-0.425,-0.015
'[10:00:28.125]',-0.415,-0.005
'[10:00:28.133]',-0.415,-0.005
'[10:00:28.141]',-0.395,-0.005
'[10:00:28.148]',-0.395,-0.025
'[10:00:28.156]',-0.375,-0.025
'[10:00:28.164]',-0.355,-0.025
'[10:00:28.172]',-0.355,-0.035
'[10:00:28.180]',-0.325,-0.055
'[10:00:28.188]',-0.325,-0.065
'[10:00:28.195]',-0.295,-0.065
'[10:00:28.203]',-0.285,-0.075
'[10:00:28.211]',-0.265,-0.085
'[10:00:28.219]',-0.265,-0.095
'[10:00:28.227]',-0.215,-0.105
'[10:00:28.234]',-0.215,-0.105
'[10:00:28.242]',-0.185,-0.105
'[10:00:28.250]',-0.165,-0.085
'[10:00:28.258]',-0.145,-0.045
'[10:00:28.266]',-0.135,-0.025
'[10:00:28.273]',-0.145,-0.005
'[10:00:28.281]',-0.165,0.025
'[10:00:28.289]',-0.185,0.045
'[10:00:28.297]',-0.205,0.015
'[10:00:28.305]',-0.235,0.025
'[10:00:28.313]',-0.225,0.015
'[10:00:28.320]',-0.225,0.025
'[10:00:28.328]',-0.215,0.025
'[10:00:28.336]',-0.235,0.005
'[10:00:28.344]',-0.225,0.005
'[10:00:28.352]',-0.215,0.015
'[10:00:28.359]',-0.195,-0.005
'[10:00:28.367]',-0.185,-0.005
'[10:00:28.375]',-0.175,0.005
'[10:00:28.383]',-0.165,0.015
'[10:00:28.391]',-0.165,0.005
'[10:00:28.398]',-0.175,0.005
'[10:00:28.406]',-0.155,0.015
'[10:00:28.414]',-0.165,0.005
'[10:00:28.422]',-0.155,-0.015
'[10:00:28.430]',-0.155,-0.015
'[10:00:28.438]',-0.155,-0.015
'[10:00:28.445]',-0.155,-0.025
'[10:00:28.453]',-0.175,-0.035
'[10:00:28.461]',-0.185,-0.035
'[10:00:28.469]',-0.195,-0.025
'[10:00:28.477]',-0.175,-0.025
'[10:00:28.484]',-0.195,-0.045
'[10:00:28.492]',-0.195,-0.045
'[10:00:28.500]',-0.195,-0.055
'[10:00:28.508]',-0.175,-0.045
'[10:00:28.516]',-0.105,-0.005
'[10:00:28.523]',-0.085,0.065
'[10:00:28.531]',-0.085,0.085
'[10:00:28.539]',0.045,0.095
'[10:00:28.547]',0.045,0.125
'[10:00:28.555]',0.055,-0.025
'[10:00:28.563]',-0.045,-0.015
'[10:00:28.570]',-0.065,-0.075
'[10:00:28.578]',-0.115,-0.065
'[10:00:28.586]',-0.235,-0.085
'[10:00:28.594]',-0.285,-0.145
'[10:00:28.602]',-0.255,-0.155
'[10:00:28.609]',-0.255,-0.155
'[10:00:28.617]',-0.255,-0.165
'[10:00:28.625]',-0.235,-0.155
'[10:00:28.633]',-0.225,-0.145
'[10:00:28.641]',-0.165,-0.135
'[10:00:28.648]',-0.505,-0.115
'[10:00:28.656]',-0.715,0.095
'[10:00:28.664]',-0.245,0.375
'[10:00:28.672]',1.205,0.235
'[10:00:28.680]',2.675,-0.295
'[10:00:28.688]',3.085,-1.115
'[10:00:28.695]',1.565,-1.385
'[10:00:28.703]',0.235,-0.935
'[10:00:28.711]',-0.185,-0.405
'[10:00:28.719]',-0.335,-0.095
'[10:00:28.727]',-0.335,-0.065
'[10:00:28.734]',-0.355,-0.095
'[10:00:28.742]',-0.335,-0.105
'[10:00:28.750]',-0.345,-0.115
'[10:00:28.758]',-0.335,-0.095
'[10:00:28.766]',-0.325,-0.105
'[10:00:28.773]',-0.315,-0.105
'[10:00:28.781]',-0.315,-0.105
'[10:00:28.789]',-0.295,-0.085
'[10:00:28.797]',-0.315,-0.095
'[10:00:28.805]',-0.295,-0.095
'[10:00:28.813]',-0.295,-0.105
'[10:00:28.820]',-0.275,-0.095
'[10:00:28.828]',-0.275,-0.095
'[10:00:28.836]',-0.265,-0.105
'[10:00:28.844]',-0.255,-0.125
'[10:00:28.852]',-0.225,-0.105
'[10:00:28.859]',-0.215,-0.115
'[10:00:28.867]',-0.205,-0.125
'[10:00:28.875]',-0.185,-0.145
'[10:00:28.883]',-0.145,-0.145
'[10:00:28.891]',-0.135,-0.165
'[10:00:28.898]',-0.115,-0.175
'[10:00:28.906]',-0.085,-0.165
'[10:00:28.914]',-0.065,-0.155
'[10:00:28.922]',-0.045,-0.145
'[10:00:28.930]',-0.025,-0.155
'[10:00:28.938]',-0.005,-0.145
'[10:00:28.945]',-0.005,-0.095
'[10:00:28.953]',-0.005,-0.075
'[10:00:28.961]',-0.025,-0.065
'[10:00:28.969]',-0.035,-0.045
'[10:00:28.977]',-0.055,-0.025
'[10:00:28.984]',-0.095,-0.045
'[10:00:28.992]',-0.115,-0.055
'[10:00:29.000]',-0.115,-0.065
'[10:00:29.008]',-0.095,-0.045
'[10:00:29.016]',-0.095,-0.055
'[10:00:29.023]',-0.105,-0.065
'[10:00:29.031]',-0.105,-0.065
'[10:00:29.039]',-0.075,-0.045
'[10:00:29.047]',-0.075,-0.065
'[10:00:29.055]',-0.065,-0.065
'[10:00:29.063]',-0.055,-0.075
'[10:00:29.070]',-0.045,-0.065
'[10:00:29.078]',-0.045,-0.065
'[10:00:29.086]',-0.065,-0.075
'[10:00:29.094]',-0.045,-0.055
'[10:00:29.102]',-0.045,-0.055
'[10:00:29.109]',-0.055,-0.075
'[10:00:29.117]',-0.065,-0.085
'[10:00:29.125]',-0.065,-0.065
'[10:00:29.133]',-0.075,-0.095
'[10:00:29.141]',-0.085,-0.095
'[10:00:29.148]',-0.105,-0.095
'[10:00:29.156]',-0.085,-0.095
'[10:00:29.164]',-0.095,-0.095
'[10:00:29.172]',-0.125,-0.085
'[10:00:29.180]',-0.145,-0.095
'[10:00:29.188]',-0.135,-0.095
'[10:00:29.195]',-0.135,-0.105
'[10:00:29.203]',-0.155,-0.095
'[10:00:29.211]',-0.155,-0.105
'[10:00:29.219]',-0.155,-0.105
'[10:00:29.227]',-0.095,-0.065
'[10:00:29.234]',-0.045,-0.015
'[10:00:29.242]',-0.045,0.025
'[10:00:29.250]',-0.005,0.035
'[10:00:29.258]',0.095,0.045
'[10:00:29.266]',0.065,-0.045
'[10:00:29.273]',0.025,-0.075
'[10:00:29.281]',-0.065,-0.115
'[10:00:29.289]',-0.105,-0.095
'[10:00:29.297]',-0.195,-0.125
'[10:00:29.305]',-0.275,-0.165
'[10:00:29.313]',-0.285,-0.185
'[10:00:29.320]',-0.275,-0.175
'[10:00:29.328]',-0.265,-0.195
'[10:00:29.336]',-0.265,-0.175
'[10:00:29.344]',-0.255,-0.185
'[10:00:29.352]',-0.195,-0.155
'[10:00:29.359]',-0.495,-0.135
'[10:00:29.367]',-0.755,0.065
'[10:00:29.375]',-0.345,0.325
'[10:00:29.383]',0.995,0.185
'[10:00:29.391]',2.535,-0.285
'[10:00:29.398]',3.185,-1.065
'[10:00:29.406]',2.015,-1.445
'[10:00:29.414]',0.415,-1.065
'[10:00:29.422]',-0.185,-0.535
'[10:00:29.430]',-0.395,-0.185
'[10:00:29.438]',-0.435,-0.085
'[10:00:29.445]',-0.435,-0.115
'[10:00:29.453]',-0.445,-0.125
'[10:00:29.461]',-0.445,-0.135
'[10:00:29.469]',-0.455,-0.135
'[10:00:29.477]',-0.425,-0.125
'[10:00:29.484]',-0.435,-0.125
'[10:00:29.492]',-0.425,-0.125
'[10:00:29.500]',-0.415,-0.125
'[10:00:29.508]',-0.395,-0.095
'[10:00:29.516]',-0.405,-0.115
'[10:00:29.523]',-0.415,-0.105
'[10:00:29.531]',-0.405,-0.105
'[10:00:29.539]',-0.375,-0.105
'[10:00:29.547]',-0.375,-0.115
'[10:00:29.555]',-0.355,-0.135
'[10:00:29.563]',-0.335,-0.125
'[10:00:29.570]',-0.325,-0.135
'[10:00:29.578]',-0.315,-0.135
'[10:00:29.586]',-0.285,-0.155
'[10:00:29.594]',-0.265,-0.155
'[10:00:29.602]',-0.225,-0.155
'[10:00:29.609]',-0.225,-0.175
'[10:00:29.617]',-0.185,-0.195
'[10:00:29.625]',-0.155,-0.175
'[10:00:29.633]',-0.145,-0.155
'[10:00:29.641]',-0.135,-0.165
'[10:00:29.648]',-0.105,-0.145
'[10:00:29.656]',-0.085,-0.115
'[10:00:29.664]',-0.075,-0.085
'[10:00:29.672]',-0.095,-0.075
'[10:00:29.680]',-0.105,-0.075
'[10:00:29.688]',-0.125,-0.045
'[10:00:29.695]',-0.155,-0.035
'[10:00:29.703]',-0.165,-0.045
'[10:00:29.711]',-0.175,-0.075
'[10:00:29.719]',-0.165,-0.065
'[10:00:29.727]',-0.145,-0.055
'[10:00:29.734]',-0.155,-0.055
'[10:00:29.742]',-0.125,-0.075
'[10:00:29.750]',-0.115,-0.055
'[10:00:29.758]',-0.095,-0.055
'[10:00:29.766]',-0.085,-0.065
'[10:00:29.773]',-0.075,-0.065
'[10:00:29.781]',-0.075,-0.055
'[10:00:29.789]',-0.045,-0.045
'[10:00:29.797]',-0.055,-0.055
'[10:00:29.805]',-0.045,-0.055
'[10:00:29.813]',-0.035,-0.065
'[10:00:29.820]',-0.035,-0.035
'[10:00:29.828]',-0.035,-0.065
'[10:00:29.836]',-0.035,-0.055
'[10:00:29.844]',-0.035,-0.065
'[10:00:29.852]',-0.055,-0.055
'[10:00:29.859]',-0.035,-0.065
'[10:00:29.867]',-0.065,-0.075
'[10:00:29.875]',-0.055,-0.065
'[10:00:29.883]',-0.065,-0.055
'[10:00:29.891]',-0.065,-0.055
'[10:00:29.898]',-0.085,-0.085
'[10:00:29.906]',-0.065,-0.055
'[10:00:29.914]',0.025,-0.025
'[10:00:29.922]',0.035,0.035
'[10:00:29.930]',0.035,0.065
'[10:00:29.938]',0.145,0.075
'[10:00:29.945]',0.185,0.115
'[10:00:29.953]',0.175,-0.015
'[10:00:29.961]',0.115,-0.025
'[10:00:29.969]',0.055,-0.085
'[10:00:29.977]',0.005,-0.055
'[10:00:29.984]',-0.095,-0.095
'[10:00:29.992]',-0.155,-0.135
'[10:00:30.000]',-0.145,-0.145
'[10:00:30.008]',-0.145,-0.145
'[10:00:30.016]',-0.135,-0.155
'[10:00:30.023]',-0.145,-0.155
'[10:00:30.031]',-0.115,-0.145
'[10:00:30.039]',-0.075,-0.115
'[10:00:30.047]',-0.255,-0.125
'[10:00:30.055]',-0.655,0.045
'[10:00:30.063]',-0.405,0.295
'[10:00:30.070]',0.825,0.275
'[10:00:30.078]',2.525,-0.265
'[10:00:30.086]',3.295,-1.105
'[10:00:30.094]',2.545,-1.525
'[10:00:30.102]',0.695,-1.145
'[10:00:30.109]',-0.025,-0.495
'[10:00:30.117]',-0.255,-0.105
'[10:00:30.125]',-0.275,-0.025
'[10:00:30.133]',-0.275,-0.055
'[10:00:30.141]',-0.275,-0.065
'[10:00:30.148]',-0.275,-0.075
'[10:00:30.156]',-0.255,-0.065
'[10:00:30.164]',-0.245,-0.045
'[10:00:30.172]',-0.235,-0.055
'[10:00:30.180]',-0.235,-0.055
'[10:00:30.188]',-0.225,-0.045
'[10:00:30.195]',-0.215,-0.035
'[10:00:30.203]',-0.195,-0.035
'[10:00:30.211]',-0.205,-0.045
'[10:00:30.219]',-0.185,-0.035
'[10:00:30.227]',-0.165,-0.025
'[10:00:30.234]',-0.165,-0.035
'[10:00:30.242]',-0.155,-0.025
'[10:00:30.250]',-0.145,-0.035
'[10:00:30.258]',-0.105,-0.045
'[10:00:30.266]',-0.105,-0.045
'[10:00:30.273]',-0.075,-0.055
'[10:00:30.281]',-0.045,-0.055
'[10:00:30.289]',-0.005,-0.045
'[10:00:30.297]',0.015,-0.065
'[10:00:30.305]',0.035,-0.065
'[10:00:30.313]',0.075,-0.055
'[10:00:30.320]',0.095,-0.035
'[10:00:30.328]',0.125,-0.035
'[10:00:30.336]',0.125,-0.025
'[10:00:30.344]',0.145,-0.015
'[10:00:30.352]',0.145,0.005
'[10:00:30.359]',0.135,0.025
'[10:00:30.367]',0.105,0.005
'[10:00:30.375]',0.075,0.035
'[10:00:30.383]',0.055,0.045
'[10:00:30.391]',0.035,0.025
'[10:00:30.398]',0.005,0.005
'[10:00:30.406]',0.025,0.015
'[10:00:30.414]',0.035,0.015
'[10:00:30.422]',0.025,0.015
'[10:00:30.430]',0.035,0.005
'[10:00:30.438]',0.045,0.015
'[10:00:30.445]',0.055,0.015
'[10:00:30.453]',0.065,0.005
'[10:00:30.461]',0.055,-0.005
'[10:00:30.469]',0.085,0.015
'[10:00:30.477]',0.095,0.015
'[10:00:30.484]',0.095,0.005
'[10:00:30.492]',0.095,0.005
'[10:00:30.500]',0.085,0.005
'[10:00:30.508]',0.095,0.015
'[10:00:30.516]',0.095,0.015
'[10:00:30.523]',0.085,0.005
'[10:00:30.531]',0.085,-0.005
'[10:00:30.539]',0.085,0.015
'[10:00:30.547]',0.075,-0.005
'[10:00:30.555]',0.075,-0.005
'[10:00:30.563]',0.065,0.005
'[10:00:30.570]',0.065,0.005
'[10:00:30.578]',0.045,-0.015
'[10:00:30.586]',0.035,0.005
'[10:00:30.594]',0.035,0.005
'[10:00:30.602]',0.035,0.015
'[10:00:30.609]',0.025,-0.005
'[10:00:30.617]',0.015,-0.025
'[10:00:30.625]',0.035,0.005
'[10:00:30.633]',0.145,0.045
'[10:00:30.641]',0.185,0.125
'[10:00:30.648]',0.165,0.135
'[10:00:30.656]',0.255,0.145
'[10:00:30.664]',0.335,0.145
'[10:00:30.672]',0.295,0.075
'[10:00:30.680]',0.265,0.045
'[10:00:30.688]',0.205,-0.005
'[10:00:30.695]',0.125,-0.005
'[10:00:30.703]',0.025,-0.025
'[10:00:30.711]',-0.015,-0.065
'[10:00:30.719]',-0.045,-0.075
'[10:00:30.727]',-0.025,-0.075
'[10:00:30.734]',-0.025,-0.085
