Time,ECG1,ECG2
00:17:29.252:1,-0.3,-0.09
00:17:29.256:1,-0.295,-0.075
00:17:29.260:1,-0.29,-0.07
00:17:29.264:1,-0.29,-0.1
00:17:29.268:1,-0.305,-0.07
00:17:29.272:1,-0.31,-0.095
00:17:29.276:1,-0.285,-0.085
00:17:29.280:1,-0.315,-0.085
00:17:29.284:1,-0.305,-0.07
00:17:29.288:1,-0.305,-0.085
00:17:29.292:1,-0.305,-0.09
00:17:29.296:1,-0.315,-0.075
00:17:29.300:1,-0.32,-0.065
00:17:29.304:1,-0.31,-0.085
00:17:29.308:1,-0.305,-0.095
00:17:29.312:1,-0.31,-0.125
00:17:29.316:1,-0.32,-0.115
00:17:29.320:1,-0.31,-0.095
00:17:29.324:1,-0.32,-0.1
00:17:29.328:1,-0.32,-0.105
00:17:29.332:1,-0.31,-0.09
00:17:29.336:1,-0.315,-0.1
00:17:29.340:1,-0.285,-0.085
00:17:29.344:1,-0.295,-0.09
00:17:29.348:1,-0.29,-0.105
00:17:29.352:1,-0.285,-0.095
00:17:29.356:1,-0.285,-0.08
00:17:29.360:1,-0.29,-0.08
00:17:29.364:1,-0.29,-0.075
00:17:29.368:1,-0.29,-0.08
00:17:29.372:1,-0.29,-0.095
00:17:29.376:1,-0.3,-0.075
00:17:29.380:1,-0.285,-0.085
00:17:29.384:1,-0.3,-0.1
00:17:29.388:1,-0.305,-0.085
00:17:29.392:1,-0.325,-0.105
00:17:29.396:1,-0.31,-0.105
00:17:29.400:1,-0.315,-0.095
00:17:29.404:1,-0.32,-0.09
00:17:29.408:1,-0.31,-0.11
00:17:29.412:1,-0.33,-0.095
00:17:29.416:1,-0.33,-0.08
00:17:29.420:1,-0.32,-0.085
00:17:29.424:1,-0.315,-0.12
00:17:29.428:1,-0.31,-0.105
00:17:29.432:1,-0.335,-0.095
00:17:29.436:1,-0.33,-0.11
00:17:29.440:1,-0.3,-0.08
00:17:29.444:1,-0.295,-0.085
00:17:29.448:1,-0.27,-0.1
00:17:29.452:1,-0.275,-0.095
00:17:29.456:1,-0.27,-0.085
00:17:29.460:1,-0.265,-0.06
00:17:29.464:1,-0.285,-0.075
00:17:29.468:1,-0.275,-0.07
00:17:29.472:1,-0.29,-0.08
00:17:29.476:1,-0.27,-0.085
00:17:29.480:1,-0.275,-0.04
00:17:29.484:1,-0.245,-0.07
00:17:29.488:1,-0.23,-0.06
00:17:29.492:1,-0.24,-0.06
00:17:29.496:1,-0.255,-0.045
00:17:29.500:1,-0.225,-0.045
00:17:29.504:1,-0.225,-0.04
00:17:29.508:1,-0.205,-0.015
00:17:29.512:1,-0.13,-0.035
00:17:29.516:1,-0.1,-0.015
00:17:29.520:1,-0.095,-0.02
00:17:29.524:1,-0.05,0.0
00:17:29.528:1,-0.045,0.02
00:17:29.532:1,-0.025,-0.005
00:17:29.536:1,0.0,-0.005
00:17:29.540:1,-0.005,-0.025
00:17:29.544:1,-0.04,-0.055
00:17:29.548:1,-0.07,-0.07
00:17:29.552:1,-0.1,-0.075
00:17:29.556:1,-0.13,-0.065
00:17:29.560:1,-0.205,-0.065
00:17:29.564:1,-0.24,-0.09
00:17:29.568:1,-0.29,-0.065
00:17:29.572:1,-0.33,-0.045
00:17:29.576:1,-0.35,-0.04
00:17:29.580:1,-0.365,-0.045
00:17:29.584:1,-0.38,-0.05
00:17:29.588:1,-0.375,-0.055
00:17:29.592:1,-0.365,-0.055
00:17:29.596:1,-0.38,-0.055
00:17:29.600:1,-0.355,-0.065
00:17:29.604:1,-0.35,-0.06
00:17:29.608:1,-0.37,-0.07
00:17:29.612:1,-0.355,-0.09
00:17:29.616:1,-0.36,-0.06
00:17:29.620:1,-0.34,-0.08
00:17:29.624:1,-0.345,-0.08
00:17:29.628:1,-0.33,-0.065
00:17:29.632:1,-0.335,-0.08
00:17:29.636:1,-0.345,-0.095
00:17:29.640:1,-0.355,-0.095
00:17:29.644:1,-0.335,-0.085
00:17:29.648:1,-0.33,-0.06
00:17:29.652:1,-0.295,-0.08
00:17:29.656:1,-0.3,-0.075
00:17:29.660:1,-0.32,-0.085
00:17:29.664:1,-0.305,-0.08
00:17:29.668:1,-0.29,-0.075
00:17:29.672:1,-0.295,-0.075
00:17:29.676:1,-0.285,-0.08
00:17:29.680:1,-0.235,-0.07
00:17:29.684:1,-0.17,-0.06
00:17:29.688:1,-0.07,-0.04
00:17:29.692:1,0.015,-0.07
00:17:29.696:1,0.07,-0.105
00:17:29.700:1,0.11,-0.12
00:17:29.704:1,0.11,-0.155
00:17:29.708:1,0.1,-0.165
00:17:29.712:1,0.065,-0.175
00:17:29.716:1,-0.01,-0.23
00:17:29.720:1,0.01,-0.34
00:17:29.724:1,0.18,-0.515
00:17:29.728:1,0.5,-0.72
00:17:29.732:1,0.76,-0.985
00:17:29.736:1,1.035,-1.2
00:17:29.740:1,1.155,-1.24
00:17:29.744:1,1.05,-1.06
00:17:29.748:1,0.685,-0.72
00:17:29.752:1,0.24,-0.35
00:17:29.756:1,-0.07,-0.075
00:17:29.760:1,-0.195,0.09
00:17:29.764:1,-0.275,0.13
00:17:29.768:1,-0.32,0.16
00:17:29.772:1,-0.385,0.145
00:17:29.776:1,-0.39,0.13
00:17:29.780:1,-0.41,0.115
00:17:29.784:1,-0.425,0.135
00:17:29.788:1,-0.445,0.11
00:17:29.792:1,-0.435,0.075
00:17:29.796:1,-0.46,0.065
00:17:29.800:1,-0.46,0.055
00:17:29.804:1,-0.44,0.075
00:17:29.808:1,-0.455,0.055
00:17:29.812:1,-0.46,0.055
00:17:29.816:1,-0.445,0.06
00:17:29.820:1,-0.455,0.04
00:17:29.824:1,-0.455,0.045
00:17:29.828:1,-0.465,0.035
00:17:29.832:1,-0.455,0.04
00:17:29.836:1,-0.465,0.05
00:17:29.840:1,-0.47,0.04
00:17:29.844:1,-0.465,0.065
00:17:29.848:1,-0.465,0.065
00:17:29.852:1,-0.47,0.035
00:17:29.856:1,-0.46,0.02
00:17:29.860:1,-0.46,0.04
00:17:29.864:1,-0.45,0.05
00:17:29.868:1,-0.465,0.035
00:17:29.872:1,-0.465,0.05
00:17:29.876:1,-0.445,0.04
00:17:29.880:1,-0.45,0.035
00:17:29.884:1,-0.45,0.04
00:17:29.888:1,-0.435,0.05
00:17:29.892:1,-0.44,0.07
00:17:29.896:1,-0.42,0.045
00:17:29.900:1,-0.44,0.05
00:17:29.904:1,-0.44,0.06
00:17:29.908:1,-0.425,0.035
00:17:29.912:1,-0.455,0.05
00:17:29.916:1,-0.45,0.065
00:17:29.920:1,-0.44,0.045
00:17:29.924:1,-0.435,0.045
00:17:29.928:1,-0.435,0.05
00:17:29.932:1,-0.445,0.045
00:17:29.936:1,-0.42,0.04
00:17:29.940:1,-0.415,0.025
00:17:29.944:1,-0.4,0.005
00:17:29.948:1,-0.39,0.04
00:17:29.952:1,-0.39,0.03
00:17:29.956:1,-0.41,0.01
00:17:29.960:1,-0.39,0.005
00:17:29.964:1,-0.375,0.02
00:17:29.968:1,-0.4,0.01
00:17:29.972:1,-0.385,0.005
00:17:29.976:1,-0.345,-0.015
00:17:29.980:1,-0.355,-0.02
00:17:29.984:1,-0.35,0.0
00:17:29.988:1,-0.33,-0.02
00:17:29.992:1,-0.34,-0.02
00:17:29.996:1,-0.305,-0.03
00:17:30.000:1,-0.305,-0.015
00:17:30.004:1,-0.3,-0.005
00:17:30.008:1,-0.295,-0.005
00:17:30.012:1,-0.265,-0.01
00:17:30.016:1,-0.26,-0.01
00:17:30.020:1,-0.245,0.0
00:17:30.024:1,-0.25,-0.015
00:17:30.028:1,-0.23,0.0
00:17:30.032:1,-0.25,-0.015
00:17:30.036:1,-0.23,0.0
00:17:30.040:1,-0.245,-0.01
00:17:30.044:1,-0.22,0.0
00:17:30.048:1,-0.225,-0.015
00:17:30.052:1,-0.215,-0.02
00:17:30.056:1,-0.205,-0.005
00:17:30.060:1,-0.195,0.0
00:17:30.064:1,-0.185,-0.005
00:17:30.068:1,-0.185,0.01
00:17:30.072:1,-0.195,0.03
00:17:30.076:1,-0.185,0.005
00:17:30.080:1,-0.185,0.03
00:17:30.084:1,-0.19,0.01
00:17:30.088:1,-0.16,0.01
00:17:30.092:1,-0.15,0.02
00:17:30.096:1,-0.185,0.03
00:17:30.100:1,-0.18,0.02
00:17:30.104:1,-0.18,0.005
00:17:30.108:1,-0.17,0.045
00:17:30.112:1,-0.155,0.04
00:17:30.116:1,-0.16,0.05
00:17:30.120:1,-0.17,0.025
00:17:30.124:1,-0.185,0.03
00:17:30.128:1,-0.195,0.035
00:17:30.132:1,-0.19,0.02
00:17:30.136:1,-0.215,0.015
00:17:30.140:1,-0.21,0.015
00:17:30.144:1,-0.205,0.01
00:17:30.148:1,-0.215,0.0
00:17:30.152:1,-0.21,0.015
00:17:30.156:1,-0.205,-0.005
00:17:30.160:1,-0.2,0.0
00:17:30.164:1,-0.2,-0.02
00:17:30.168:1,-0.19,-0.025
00:17:30.172:1,-0.19,-0.015
00:17:30.176:1,-0.155,-0.01
00:17:30.180:1,-0.135,-0.01
00:17:30.184:1,-0.125,0.0
00:17:30.188:1,-0.14,0.0
00:17:30.192:1,-0.11,0.01
00:17:30.196:1,-0.08,0.015
00:17:30.200:1,-0.04,0.03
00:17:30.204:1,0.005,0.04
00:17:30.208:1,0.045,0.045
00:17:30.212:1,0.04,0.065
00:17:30.216:1,0.055,0.065
00:17:30.220:1,0.06,0.05
00:17:30.224:1,0.125,0.05
00:17:30.228:1,0.11,0.035
00:17:30.232:1,0.1,0.005
00:17:30.236:1,0.04,-0.02
00:17:30.240:1,-0.01,-0.025
00:17:30.244:1,-0.05,-0.03
00:17:30.248:1,-0.12,-0.04
00:17:30.252:1,-0.18,-0.06
00:17:30.256:1,-0.215,-0.04
00:17:30.260:1,-0.24,-0.025
00:17:30.264:1,-0.27,-0.04
00:17:30.268:1,-0.31,-0.05
00:17:30.272:1,-0.315,-0.035
00:17:30.276:1,-0.325,-0.06
00:17:30.280:1,-0.305,-0.04
00:17:30.284:1,-0.29,-0.06
00:17:30.288:1,-0.305,-0.055
00:17:30.292:1,-0.275,-0.065
00:17:30.296:1,-0.275,-0.08
00:17:30.300:1,-0.27,-0.09
00:17:30.304:1,-0.28,-0.1
00:17:30.308:1,-0.27,-0.08
00:17:30.312:1,-0.265,-0.07
00:17:30.316:1,-0.265,-0.06
00:17:30.320:1,-0.295,-0.09
00:17:30.324:1,-0.265,-0.095
00:17:30.328:1,-0.27,-0.095
00:17:30.332:1,-0.27,-0.105
00:17:30.336:1,-0.25,-0.085
00:17:30.340:1,-0.275,-0.1
00:17:30.344:1,-0.265,-0.095
00:17:30.348:1,-0.285,-0.1
00:17:30.352:1,-0.29,-0.115
00:17:30.356:1,-0.295,-0.085
00:17:30.360:1,-0.285,-0.1
00:17:30.364:1,-0.25,-0.12
00:17:30.368:1,-0.265,-0.135
00:17:30.372:1,-0.245,-0.125
00:17:30.376:1,-0.215,-0.135
00:17:30.380:1,-0.145,-0.115
00:17:30.384:1,-0.04,-0.12
00:17:30.388:1,0.055,-0.16
00:17:30.392:1,0.135,-0.195
00:17:30.396:1,0.175,-0.225
00:17:30.400:1,0.235,-0.235
00:17:30.404:1,0.285,-0.175
00:17:30.408:1,0.25,-0.2
00:17:30.412:1,0.19,-0.225
00:17:30.416:1,0.195,-0.335
00:17:30.420:1,0.315,-0.45
00:17:30.424:1,0.605,-0.69
00:17:30.428:1,0.95,-0.96
00:17:30.432:1,1.19,-1.14
00:17:30.436:1,1.155,-1.21
00:17:30.440:1,0.83,-1.005
00:17:30.444:1,0.36,-0.635
00:17:30.448:1,0.015,-0.315
00:17:30.452:1,-0.145,-0.15
00:17:30.456:1,-0.26,-0.04
00:17:30.460:1,-0.305,0.005
00:17:30.464:1,-0.33,0.015
00:17:30.468:1,-0.395,0.005
00:17:30.472:1,-0.42,0.0
00:17:30.476:1,-0.44,-0.015
00:17:30.480:1,-0.455,-0.045
00:17:30.484:1,-0.465,-0.095
00:17:30.488:1,-0.47,-0.08
00:17:30.492:1,-0.47,-0.1
00:17:30.496:1,-0.47,-0.11
00:17:30.500:1,-0.5,-0.13
00:17:30.504:1,-0.505,-0.1
00:17:30.508:1,-0.5,-0.095
00:17:30.512:1,-0.49,-0.095
00:17:30.516:1,-0.49,-0.09
00:17:30.520:1,-0.495,-0.09
00:17:30.524:1,-0.495,-0.12
00:17:30.528:1,-0.495,-0.105
00:17:30.532:1,-0.485,-0.1
00:17:30.536:1,-0.505,-0.1
00:17:30.540:1,-0.47,-0.11
00:17:30.544:1,-0.5,-0.12
00:17:30.548:1,-0.505,-0.1
00:17:30.552:1,-0.545,-0.115
00:17:30.556:1,-0.53,-0.1
00:17:30.560:1,-0.55,-0.09
00:17:30.564:1,-0.555,-0.1
00:17:30.568:1,-0.535,-0.12
00:17:30.572:1,-0.54,-0.135
00:17:30.576:1,-0.54,-0.165
00:17:30.580:1,-0.535,-0.135
00:17:30.584:1,-0.535,-0.14
00:17:30.588:1,-0.55,-0.17
00:17:30.592:1,-0.535,-0.155
00:17:30.596:1,-0.53,-0.155
00:17:30.600:1,-0.535,-0.15
00:17:30.604:1,-0.525,-0.15
00:17:30.608:1,-0.525,-0.155
00:17:30.612:1,-0.515,-0.15
00:17:30.616:1,-0.515,-0.14
00:17:30.620:1,-0.475,-0.165
00:17:30.624:1,-0.47,-0.17
00:17:30.628:1,-0.445,-0.17
00:17:30.632:1,-0.46,-0.155
00:17:30.636:1,-0.465,-0.14
00:17:30.640:1,-0.45,-0.15
00:17:30.644:1,-0.45,-0.165
00:17:30.648:1,-0.44,-0.16
00:17:30.652:1,-0.43,-0.175
00:17:30.656:1,-0.42,-0.175
00:17:30.660:1,-0.415,-0.195
00:17:30.664:1,-0.425,-0.195
00:17:30.668:1,-0.425,-0.205
00:17:30.672:1,-0.43,-0.205
00:17:30.676:1,-0.42,-0.22
00:17:30.680:1,-0.395,-0.21
00:17:30.684:1,-0.375,-0.235
00:17:30.688:1,-0.37,-0.24
00:17:30.692:1,-0.37,-0.255
00:17:30.696:1,-0.35,-0.24
00:17:30.700:1,-0.345,-0.22
00:17:30.704:1,-0.36,-0.245
00:17:30.708:1,-0.32,-0.245
00:17:30.712:1,-0.32,-0.23
00:17:30.716:1,-0.315,-0.215
00:17:30.720:1,-0.31,-0.23
00:17:30.724:1,-0.285,-0.23
00:17:30.728:1,-0.29,-0.2
00:17:30.732:1,-0.28,-0.22
00:17:30.736:1,-0.295,-0.2
00:17:30.740:1,-0.3,-0.2
00:17:30.744:1,-0.29,-0.21
00:17:30.748:1,-0.29,-0.205
00:17:30.752:1,-0.285,-0.215
00:17:30.756:1,-0.29,-0.235
00:17:30.760:1,-0.285,-0.23
00:17:30.764:1,-0.305,-0.22
00:17:30.768:1,-0.315,-0.2
00:17:30.772:1,-0.31,-0.22
00:17:30.776:1,-0.335,-0.22
00:17:30.780:1,-0.345,-0.21
00:17:30.784:1,-0.335,-0.185
00:17:30.788:1,-0.335,-0.19
00:17:30.792:1,-0.325,-0.21
00:17:30.796:1,-0.32,-0.21
00:17:30.800:1,-0.315,-0.22
00:17:30.804:1,-0.3,-0.2
00:17:30.808:1,-0.29,-0.24
00:17:30.812:1,-0.315,-0.215
00:17:30.816:1,-0.32,-0.235
00:17:30.820:1,-0.305,-0.215
00:17:30.824:1,-0.295,-0.215
00:17:30.828:1,-0.285,-0.215
00:17:30.832:1,-0.29,-0.22
00:17:30.836:1,-0.25,-0.2
00:17:30.840:1,-0.24,-0.21
00:17:30.844:1,-0.215,-0.195
00:17:30.848:1,-0.21,-0.2
00:17:30.852:1,-0.21,-0.205
00:17:30.856:1,-0.2,-0.175
00:17:30.860:1,-0.185,-0.16
00:17:30.864:1,-0.155,-0.16
00:17:30.868:1,-0.105,-0.145
00:17:30.872:1,-0.09,-0.13
00:17:30.876:1,-0.05,-0.13
00:17:30.880:1,-0.035,-0.1
00:17:30.884:1,-0.005,-0.1
00:17:30.888:1,0.015,-0.115
00:17:30.892:1,0.02,-0.12
00:17:30.896:1,0.035,-0.135
00:17:30.900:1,0.01,-0.15
00:17:30.904:1,-0.02,-0.155
00:17:30.908:1,-0.08,-0.18
00:17:30.912:1,-0.115,-0.18
00:17:30.916:1,-0.165,-0.18
00:17:30.920:1,-0.225,-0.18
00:17:30.924:1,-0.28,-0.165
00:17:30.928:1,-0.32,-0.17
00:17:30.932:1,-0.365,-0.16
00:17:30.936:1,-0.335,-0.14
00:17:30.940:1,-0.345,-0.15
00:17:30.944:1,-0.34,-0.16
00:17:30.948:1,-0.34,-0.13
00:17:30.952:1,-0.335,-0.145
00:17:30.956:1,-0.315,-0.14
00:17:30.960:1,-0.305,-0.135
00:17:30.964:1,-0.32,-0.145
00:17:30.968:1,-0.315,-0.14
00:17:30.972:1,-0.3,-0.13
00:17:30.976:1,-0.31,-0.145
00:17:30.980:1,-0.32,-0.16
00:17:30.984:1,-0.31,-0.125
00:17:30.988:1,-0.335,-0.13
00:17:30.992:1,-0.33,-0.135
00:17:30.996:1,-0.32,-0.135
00:17:31.000:1,-0.32,-0.155
00:17:31.004:1,-0.315,-0.17
00:17:31.008:1,-0.315,-0.155
00:17:31.012:1,-0.32,-0.16
00:17:31.016:1,-0.315,-0.14
00:17:31.020:1,-0.33,-0.145
00:17:31.024:1,-0.32,-0.14
00:17:31.028:1,-0.315,-0.15
00:17:31.032:1,-0.3,-0.155
00:17:31.036:1,-0.295,-0.14
00:17:31.040:1,-0.25,-0.145
00:17:31.044:1,-0.215,-0.12
00:17:31.048:1,-0.16,-0.125
00:17:31.052:1,-0.035,-0.115
00:17:31.056:1,0.055,-0.13
00:17:31.060:1,0.115,-0.185
00:17:31.064:1,0.18,-0.205
00:17:31.068:1,0.24,-0.215
00:17:31.072:1,0.26,-0.21
00:17:31.076:1,0.275,-0.24
00:17:31.080:1,0.23,-0.29
00:17:31.084:1,0.25,-0.37
00:17:31.088:1,0.4,-0.535
00:17:31.092:1,0.705,-0.785
00:17:31.096:1,1.03,-1.035
00:17:31.100:1,1.245,-1.18
00:17:31.104:1,1.195,-1.245
00:17:31.108:1,0.85,-1.02
00:17:31.112:1,0.38,-0.63
00:17:31.116:1,0.03,-0.32
00:17:31.120:1,-0.12,-0.17
00:17:31.124:1,-0.26,-0.06
00:17:31.128:1,-0.3,0.04
00:17:31.132:1,-0.315,0.045
00:17:31.136:1,-0.36,0.055
00:17:31.140:1,-0.395,0.07
00:17:31.144:1,-0.41,0.06
00:17:31.148:1,-0.415,0.06
00:17:31.152:1,-0.41,0.02
00:17:31.156:1,-0.41,0.01
00:17:31.160:1,-0.415,0.04
00:17:31.164:1,-0.405,0.035
00:17:31.168:1,-0.415,0.01
00:17:31.172:1,-0.415,0.03
00:17:31.176:1,-0.415,0.015
00:17:31.180:1,-0.445,0.005
00:17:31.184:1,-0.43,0.015
00:17:31.188:1,-0.455,0.02
00:17:31.192:1,-0.45,0.01
00:17:31.196:1,-0.46,0.005
00:17:31.200:1,-0.465,-0.005
00:17:31.204:1,-0.47,0.005
00:17:31.208:1,-0.49,0.005
00:17:31.212:1,-0.495,0.0
00:17:31.216:1,-0.495,0.005
00:17:31.220:1,-0.5,-0.005
00:17:31.224:1,-0.485,-0.005
00:17:31.228:1,-0.52,-0.015
00:17:31.232:1,-0.49,-0.015
00:17:31.236:1,-0.505,0.0
00:17:31.240:1,-0.505,-0.015
00:17:31.244:1,-0.51,-0.025
00:17:31.248:1,-0.5,-0.005
00:17:31.252:1,-0.52,-0.02
00:17:31.256:1,-0.5,-0.01
00:17:31.260:1,-0.49,0.0
00:17:31.264:1,-0.485,0.0
00:17:31.268:1,-0.475,-0.01
00:17:31.272:1,-0.48,0.015
00:17:31.276:1,-0.48,0.0
00:17:31.280:1,-0.47,0.01
00:17:31.284:1,-0.46,0.0
00:17:31.288:1,-0.465,-0.01
00:17:31.292:1,-0.455,-0.015
00:17:31.296:1,-0.46,-0.02
00:17:31.300:1,-0.455,-0.025
00:17:31.304:1,-0.44,-0.01
00:17:31.308:1,-0.45,-0.03
00:17:31.312:1,-0.445,-0.035
00:17:31.316:1,-0.44,-0.03
00:17:31.320:1,-0.42,-0.045
00:17:31.324:1,-0.415,-0.06
00:17:31.328:1,-0.4,-0.08
00:17:31.332:1,-0.375,-0.08
00:17:31.336:1,-0.38,-0.075
00:17:31.340:1,-0.36,-0.075
00:17:31.344:1,-0.36,-0.085
00:17:31.348:1,-0.355,-0.1
00:17:31.352:1,-0.33,-0.095
00:17:31.356:1,-0.32,-0.1
00:17:31.360:1,-0.295,-0.09
00:17:31.364:1,-0.3,-0.08
00:17:31.368:1,-0.295,-0.065
00:17:31.372:1,-0.28,-0.095
00:17:31.376:1,-0.265,-0.095
00:17:31.380:1,-0.255,-0.085
00:17:31.384:1,-0.245,-0.09
00:17:31.388:1,-0.25,-0.075
00:17:31.392:1,-0.27,-0.075
00:17:31.396:1,-0.265,-0.07
00:17:31.400:1,-0.245,-0.085
00:17:31.404:1,-0.235,-0.08
00:17:31.408:1,-0.24,-0.075
00:17:31.412:1,-0.25,-0.085
00:17:31.416:1,-0.26,-0.05
00:17:31.420:1,-0.265,-0.065
00:17:31.424:1,-0.26,-0.06
00:17:31.428:1,-0.26,-0.07
00:17:31.432:1,-0.25,-0.07
00:17:31.436:1,-0.235,-0.08
00:17:31.440:1,-0.24,-0.07
00:17:31.444:1,-0.265,-0.065
00:17:31.448:1,-0.25,-0.085
00:17:31.452:1,-0.245,-0.05
00:17:31.456:1,-0.265,-0.06
00:17:31.460:1,-0.26,-0.055
00:17:31.464:1,-0.24,-0.06
00:17:31.468:1,-0.255,-0.045
00:17:31.472:1,-0.24,-0.065
00:17:31.476:1,-0.2,-0.055
00:17:31.480:1,-0.205,-0.045
00:17:31.484:1,-0.18,-0.05
00:17:31.488:1,-0.155,-0.055
00:17:31.492:1,-0.175,-0.045
00:17:31.496:1,-0.16,-0.06
00:17:31.500:1,-0.145,-0.015
00:17:31.504:1,-0.115,0.0
00:17:31.508:1,-0.085,-0.02
00:17:31.512:1,-0.04,-0.03
00:17:31.516:1,-0.02,-0.005
00:17:31.520:1,-0.01,0.015
00:17:31.524:1,-0.005,-0.01
00:17:31.528:1,0.005,0.0
00:17:31.532:1,0.025,0.0
00:17:31.536:1,0.03,-0.015
00:17:31.540:1,0.05,-0.065
00:17:31.544:1,-0.01,-0.08
00:17:31.548:1,-0.03,-0.09
00:17:31.552:1,-0.075,-0.09
00:17:31.556:1,-0.14,-0.105
00:17:31.560:1,-0.21,-0.115
00:17:31.564:1,-0.23,-0.08
00:17:31.568:1,-0.27,-0.06
00:17:31.572:1,-0.31,-0.05
00:17:31.576:1,-0.32,-0.06
00:17:31.580:1,-0.32,-0.065
00:17:31.584:1,-0.315,-0.045
00:17:31.588:1,-0.315,-0.05
00:17:31.592:1,-0.305,-0.06
00:17:31.596:1,-0.295,-0.055
00:17:31.600:1,-0.305,-0.04
00:17:31.604:1,-0.3,-0.075
00:17:31.608:1,-0.29,-0.07
00:17:31.612:1,-0.31,-0.065
00:17:31.616:1,-0.31,-0.085
00:17:31.620:1,-0.3,-0.075
00:17:31.624:1,-0.29,-0.06
00:17:31.628:1,-0.3,-0.07
00:17:31.632:1,-0.325,-0.09
00:17:31.636:1,-0.335,-0.07
00:17:31.640:1,-0.32,-0.075
00:17:31.644:1,-0.31,-0.075
00:17:31.648:1,-0.305,-0.095
00:17:31.652:1,-0.31,-0.075
00:17:31.656:1,-0.3,-0.095
00:17:31.660:1,-0.295,-0.08
00:17:31.664:1,-0.295,-0.065
00:17:31.668:1,-0.305,-0.08
00:17:31.672:1,-0.295,-0.075
00:17:31.676:1,-0.29,-0.07
00:17:31.680:1,-0.28,-0.08
00:17:31.684:1,-0.24,-0.065
00:17:31.688:1,-0.18,-0.065
00:17:31.692:1,-0.115,-0.07
00:17:31.696:1,-0.015,-0.085
00:17:31.700:1,0.06,-0.09
00:17:31.704:1,0.1,-0.135
00:17:31.708:1,0.145,-0.16
00:17:31.712:1,0.145,-0.18
00:17:31.716:1,0.155,-0.15
00:17:31.720:1,0.115,-0.175
00:17:31.724:1,0.095,-0.27
00:17:31.728:1,0.205,-0.39
00:17:31.732:1,0.42,-0.61
00:17:31.736:1,0.76,-0.865
00:17:31.740:1,1.025,-1.095
00:17:31.744:1,1.175,-1.24
00:17:31.748:1,1.045,-1.155
00:17:31.752:1,0.66,-0.84
00:17:31.756:1,0.215,-0.46
00:17:31.760:1,-0.055,-0.155
00:17:31.764:1,-0.2,0.0
00:17:31.768:1,-0.3,0.09
00:17:31.772:1,-0.32,0.1
00:17:31.776:1,-0.34,0.135
00:17:31.780:1,-0.385,0.12
00:17:31.784:1,-0.41,0.115
00:17:31.788:1,-0.41,0.105
00:17:31.792:1,-0.42,0.1
00:17:31.796:1,-0.415,0.08
00:17:31.800:1,-0.395,0.055
00:17:31.804:1,-0.415,0.065
00:17:31.808:1,-0.42,0.09
00:17:31.812:1,-0.43,0.075
00:17:31.816:1,-0.425,0.065
00:17:31.820:1,-0.435,0.055
00:17:31.824:1,-0.425,0.07
00:17:31.828:1,-0.42,0.065
00:17:31.832:1,-0.435,0.085
00:17:31.836:1,-0.44,0.065
00:17:31.840:1,-0.44,0.06
00:17:31.844:1,-0.46,0.07
00:17:31.848:1,-0.47,0.05
00:17:31.852:1,-0.48,0.04
00:17:31.856:1,-0.475,0.055
00:17:31.860:1,-0.475,0.04
00:17:31.864:1,-0.465,0.015
00:17:31.868:1,-0.48,0.025
00:17:31.872:1,-0.5,0.025
00:17:31.876:1,-0.49,0.05
00:17:31.880:1,-0.49,0.045
00:17:31.884:1,-0.5,0.04
00:17:31.888:1,-0.49,0.03
00:17:31.892:1,-0.49,0.045
00:17:31.896:1,-0.505,0.04
00:17:31.900:1,-0.455,0.065
00:17:31.904:1,-0.485,0.03
00:17:31.908:1,-0.475,0.045
00:17:31.912:1,-0.455,0.045
00:17:31.916:1,-0.465,0.065
00:17:31.920:1,-0.445,0.07
00:17:31.924:1,-0.455,0.065
00:17:31.928:1,-0.45,0.075
00:17:31.932:1,-0.43,0.055
00:17:31.936:1,-0.435,0.045
00:17:31.940:1,-0.43,0.025
00:17:31.944:1,-0.425,0.04
00:17:31.948:1,-0.405,0.03
00:17:31.952:1,-0.4,0.03
00:17:31.956:1,-0.395,0.02
00:17:31.960:1,-0.395,0.025
00:17:31.964:1,-0.385,0.025
00:17:31.968:1,-0.36,0.03
00:17:31.972:1,-0.35,0.0
00:17:31.976:1,-0.335,0.005
00:17:31.980:1,-0.345,-0.01
00:17:31.984:1,-0.32,-0.025
00:17:31.988:1,-0.29,-0.02
00:17:31.992:1,-0.28,-0.025
00:17:31.996:1,-0.28,-0.02
00:17:32.000:1,-0.265,-0.035
00:17:32.004:1,-0.24,-0.01
00:17:32.008:1,-0.22,-0.025
00:17:32.012:1,-0.215,-0.035
00:17:32.016:1,-0.215,-0.01
00:17:32.020:1,-0.22,-0.03
00:17:32.024:1,-0.23,-0.015
00:17:32.028:1,-0.215,0.0
00:17:32.032:1,-0.215,0.01
00:17:32.036:1,-0.22,0.015
00:17:32.040:1,-0.215,-0.02
00:17:32.044:1,-0.215,-0.025
00:17:32.048:1,-0.19,-0.02
00:17:32.052:1,-0.225,-0.005
00:17:32.056:1,-0.225,-0.015
00:17:32.060:1,-0.225,-0.01
00:17:32.064:1,-0.235,-0.025
00:17:32.068:1,-0.24,-0.025
00:17:32.072:1,-0.215,-0.015
00:17:32.076:1,-0.225,-0.03
00:17:32.080:1,-0.215,-0.005
00:17:32.084:1,-0.22,-0.02
00:17:32.088:1,-0.215,0.0
00:17:32.092:1,-0.215,-0.025
00:17:32.096:1,-0.225,-0.015
00:17:32.100:1,-0.24,-0.01
00:17:32.104:1,-0.235,-0.015
00:17:32.108:1,-0.245,-0.01
00:17:32.112:1,-0.215,-0.005
00:17:32.116:1,-0.225,-0.025
00:17:32.120:1,-0.21,-0.01
00:17:32.124:1,-0.17,-0.02
00:17:32.128:1,-0.15,-0.015
00:17:32.132:1,-0.13,-0.005
00:17:32.136:1,-0.15,-0.005
00:17:32.140:1,-0.185,-0.01
00:17:32.144:1,-0.155,0.0
00:17:32.148:1,-0.13,0.005
00:17:32.152:1,-0.09,0.005
00:17:32.156:1,-0.05,0.005
00:17:32.160:1,-0.025,0.01
00:17:32.164:1,0.0,0.03
00:17:32.168:1,-0.005,0.03
00:17:32.172:1,0.015,0.01
00:17:32.176:1,0.035,0.01
00:17:32.180:1,0.03,0.0
00:17:32.184:1,0.02,-0.04
00:17:32.188:1,-0.01,-0.08
00:17:32.192:1,-0.07,-0.095
00:17:32.196:1,-0.1,-0.09
00:17:32.200:1,-0.14,-0.1
00:17:32.204:1,-0.21,-0.095
00:17:32.208:1,-0.27,-0.1
00:17:32.212:1,-0.31,-0.09
00:17:32.216:1,-0.37,-0.075
00:17:32.220:1,-0.375,-0.085
00:17:32.224:1,-0.37,-0.06
00:17:32.228:1,-0.375,-0.075
00:17:32.232:1,-0.36,-0.085
00:17:32.236:1,-0.345,-0.075
00:17:32.240:1,-0.35,-0.08
00:17:32.244:1,-0.345,-0.09
00:17:32.248:1,-0.355,-0.095
00:17:32.252:1,-0.355,-0.1
00:17:32.256:1,-0.34,-0.07
00:17:32.260:1,-0.34,-0.11
00:17:32.264:1,-0.325,-0.105
00:17:32.268:1,-0.33,-0.105
00:17:32.272:1,-0.325,-0.1
00:17:32.276:1,-0.325,-0.12
00:17:32.280:1,-0.365,-0.105
00:17:32.284:1,-0.355,-0.115
00:17:32.288:1,-0.35,-0.125
00:17:32.292:1,-0.355,-0.145
00:17:32.296:1,-0.34,-0.125
00:17:32.300:1,-0.345,-0.15
00:17:32.304:1,-0.315,-0.16
00:17:32.308:1,-0.325,-0.145
00:17:32.312:1,-0.32,-0.15
00:17:32.316:1,-0.31,-0.15
00:17:32.320:1,-0.31,-0.14
00:17:32.324:1,-0.295,-0.16
00:17:32.328:1,-0.265,-0.185
00:17:32.332:1,-0.2,-0.165
00:17:32.336:1,-0.11,-0.19
00:17:32.340:1,-0.005,-0.175
00:17:32.344:1,0.08,-0.21
00:17:32.348:1,0.145,-0.24
00:17:32.352:1,0.185,-0.255
00:17:32.356:1,0.215,-0.245
00:17:32.360:1,0.22,-0.21
00:17:32.364:1,0.175,-0.275
00:17:32.368:1,0.135,-0.34
00:17:32.372:1,0.235,-0.45
00:17:32.376:1,0.46,-0.65
00:17:32.380:1,0.8,-0.925
00:17:32.384:1,1.08,-1.145
00:17:32.388:1,1.14,-1.26
00:17:32.392:1,0.94,-1.19
00:17:32.396:1,0.505,-0.87
00:17:32.400:1,0.1,-0.515
00:17:32.404:1,-0.135,-0.295
00:17:32.408:1,-0.245,-0.15
00:17:32.412:1,-0.3,-0.065
00:17:32.416:1,-0.335,-0.025
00:17:32.420:1,-0.375,-0.025
00:17:32.424:1,-0.44,-0.04
00:17:32.428:1,-0.49,-0.065
00:17:32.432:1,-0.495,-0.045
00:17:32.436:1,-0.52,-0.1
00:17:32.440:1,-0.515,-0.11
00:17:32.444:1,-0.52,-0.12
00:17:32.448:1,-0.505,-0.13
00:17:32.452:1,-0.495,-0.13
00:17:32.456:1,-0.49,-0.15
00:17:32.460:1,-0.48,-0.15
00:17:32.464:1,-0.505,-0.145
00:17:32.468:1,-0.53,-0.14
00:17:32.472:1,-0.54,-0.135
00:17:32.476:1,-0.555,-0.125
00:17:32.480:1,-0.55,-0.13
00:17:32.484:1,-0.53,-0.155
00:17:32.488:1,-0.575,-0.135
00:17:32.492:1,-0.565,-0.13
00:17:32.496:1,-0.56,-0.125
00:17:32.500:1,-0.565,-0.145
00:17:32.504:1,-0.57,-0.18
00:17:32.508:1,-0.585,-0.19
00:17:32.512:1,-0.585,-0.16
00:17:32.516:1,-0.585,-0.195
00:17:32.520:1,-0.57,-0.185
00:17:32.524:1,-0.58,-0.15
00:17:32.528:1,-0.6,-0.17
00:17:32.532:1,-0.58,-0.155
00:17:32.536:1,-0.61,-0.17
00:17:32.540:1,-0.625,-0.155
00:17:32.544:1,-0.605,-0.165
00:17:32.548:1,-0.595,-0.16
00:17:32.552:1,-0.58,-0.18
00:17:32.556:1,-0.55,-0.155
00:17:32.560:1,-0.565,-0.16
00:17:32.564:1,-0.56,-0.19
00:17:32.568:1,-0.555,-0.18
00:17:32.572:1,-0.56,-0.18
00:17:32.576:1,-0.55,-0.16
00:17:32.580:1,-0.555,-0.17
00:17:32.584:1,-0.55,-0.185
00:17:32.588:1,-0.52,-0.15
00:17:32.592:1,-0.525,-0.175
00:17:32.596:1,-0.515,-0.215
00:17:32.600:1,-0.53,-0.2
00:17:32.604:1,-0.53,-0.205
00:17:32.608:1,-0.51,-0.22
00:17:32.612:1,-0.48,-0.215
00:17:32.616:1,-0.465,-0.23
00:17:32.620:1,-0.455,-0.25
00:17:32.624:1,-0.435,-0.255
00:17:32.628:1,-0.43,-0.265
00:17:32.632:1,-0.41,-0.24
00:17:32.636:1,-0.415,-0.25
00:17:32.640:1,-0.4,-0.245
00:17:32.644:1,-0.405,-0.24
00:17:32.648:1,-0.405,-0.235
00:17:32.652:1,-0.395,-0.24
00:17:32.656:1,-0.365,-0.255
00:17:32.660:1,-0.355,-0.255
00:17:32.664:1,-0.34,-0.245
00:17:32.668:1,-0.355,-0.235
00:17:32.672:1,-0.34,-0.24
00:17:32.676:1,-0.355,-0.235
00:17:32.680:1,-0.33,-0.235
00:17:32.684:1,-0.32,-0.215
00:17:32.688:1,-0.32,-0.225
00:17:32.692:1,-0.335,-0.205
00:17:32.696:1,-0.315,-0.23
00:17:32.700:1,-0.335,-0.23
00:17:32.704:1,-0.36,-0.23
00:17:32.708:1,-0.36,-0.21
00:17:32.712:1,-0.365,-0.225
00:17:32.716:1,-0.34,-0.205
00:17:32.720:1,-0.36,-0.2
00:17:32.724:1,-0.35,-0.23
00:17:32.728:1,-0.365,-0.215
00:17:32.732:1,-0.36,-0.215
00:17:32.736:1,-0.36,-0.21
00:17:32.740:1,-0.365,-0.21
00:17:32.744:1,-0.385,-0.205
00:17:32.748:1,-0.375,-0.215
00:17:32.752:1,-0.39,-0.215
00:17:32.756:1,-0.365,-0.2
00:17:32.760:1,-0.34,-0.19
00:17:32.764:1,-0.31,-0.205
00:17:32.768:1,-0.31,-0.185
00:17:32.772:1,-0.28,-0.18
00:17:32.776:1,-0.275,-0.155
00:17:32.780:1,-0.275,-0.17
00:17:32.784:1,-0.25,-0.17
00:17:32.788:1,-0.21,-0.145
00:17:32.792:1,-0.18,-0.15
00:17:32.796:1,-0.14,-0.135
00:17:32.800:1,-0.11,-0.13
00:17:32.804:1,-0.1,-0.14
00:17:32.808:1,-0.08,-0.125
00:17:32.812:1,-0.06,-0.11
00:17:32.816:1,-0.035,-0.11
00:17:32.820:1,-0.02,-0.12
00:17:32.824:1,-0.045,-0.14
00:17:32.828:1,-0.055,-0.165
00:17:32.832:1,-0.085,-0.175
00:17:32.836:1,-0.14,-0.19
00:17:32.840:1,-0.185,-0.19
00:17:32.844:1,-0.24,-0.175
00:17:32.848:1,-0.29,-0.16
00:17:32.852:1,-0.33,-0.175
00:17:32.856:1,-0.375,-0.17
00:17:32.860:1,-0.415,-0.145
00:17:32.864:1,-0.39,-0.12
00:17:32.868:1,-0.41,-0.14
00:17:32.872:1,-0.4,-0.15
00:17:32.876:1,-0.39,-0.135
00:17:32.880:1,-0.36,-0.145
00:17:32.884:1,-0.365,-0.135
00:17:32.888:1,-0.35,-0.145
00:17:32.892:1,-0.35,-0.135
00:17:32.896:1,-0.35,-0.135
00:17:32.900:1,-0.345,-0.125
00:17:32.904:1,-0.335,-0.135
00:17:32.908:1,-0.335,-0.12
00:17:32.912:1,-0.345,-0.11
00:17:32.916:1,-0.33,-0.1
00:17:32.920:1,-0.34,-0.12
00:17:32.924:1,-0.355,-0.105
00:17:32.928:1,-0.37,-0.13
00:17:32.932:1,-0.36,-0.13
00:17:32.936:1,-0.36,-0.125
00:17:32.940:1,-0.365,-0.13
00:17:32.944:1,-0.355,-0.135
00:17:32.948:1,-0.35,-0.13
00:17:32.952:1,-0.36,-0.14
00:17:32.956:1,-0.355,-0.115
00:17:32.960:1,-0.33,-0.105
00:17:32.964:1,-0.31,-0.115
00:17:32.968:1,-0.295,-0.115
00:17:32.972:1,-0.22,-0.095
00:17:32.976:1,-0.135,-0.1
00:17:32.980:1,-0.03,-0.135
00:17:32.984:1,0.07,-0.15
00:17:32.988:1,0.115,-0.175
00:17:32.992:1,0.16,-0.2
00:17:32.996:1,0.205,-0.215
00:17:33.000:1,0.195,-0.195
00:17:33.004:1,0.165,-0.255
00:17:33.008:1,0.17,-0.35
00:17:33.012:1,0.275,-0.475
00:17:33.016:1,0.525,-0.715
00:17:33.020:1,0.89,-0.99
00:17:33.024:1,1.15,-1.17
00:17:33.028:1,1.18,-1.23
00:17:33.032:1,0.915,-1.075
00:17:33.036:1,0.425,-0.705
00:17:33.040:1,0.04,-0.365
00:17:33.044:1,-0.19,-0.17
00:17:33.048:1,-0.28,-0.04
00:17:33.052:1,-0.33,0.035
00:17:33.056:1,-0.37,0.075
00:17:33.060:1,-0.415,0.065
00:17:33.064:1,-0.445,0.065
00:17:33.068:1,-0.455,0.05
00:17:33.072:1,-0.475,0.05
00:17:33.076:1,-0.49,0.03
00:17:33.080:1,-0.48,0.015
00:17:33.084:1,-0.49,0.0
00:17:33.088:1,-0.46,0.02
00:17:33.092:1,-0.455,0.025
00:17:33.096:1,-0.47,0.035
00:17:33.100:1,-0.46,0.0
00:17:33.104:1,-0.48,0.005
00:17:33.108:1,-0.475,0.02
00:17:33.112:1,-0.475,0.025
00:17:33.116:1,-0.485,0.04
00:17:33.120:1,-0.49,0.03
00:17:33.124:1,-0.5,0.02
00:17:33.128:1,-0.47,0.04
00:17:33.132:1,-0.505,0.02
00:17:33.136:1,-0.51,0.02
00:17:33.140:1,-0.51,0.02
00:17:33.144:1,-0.53,0.01
00:17:33.148:1,-0.53,0.015
00:17:33.152:1,-0.535,0.005
00:17:33.156:1,-0.545,-0.015
00:17:33.160:1,-0.55,-0.005
00:17:33.164:1,-0.53,0.0
00:17:33.168:1,-0.555,0.015
00:17:33.172:1,-0.54,-0.015
00:17:33.176:1,-0.54,0.0
00:17:33.180:1,-0.53,0.0
00:17:33.184:1,-0.545,0.03
00:17:33.188:1,-0.54,0.0
00:17:33.192:1,-0.53,0.0
00:17:33.196:1,-0.525,0.015
00:17:33.200:1,-0.515,0.01
00:17:33.204:1,-0.49,0.015
00:17:33.208:1,-0.5,0.005
00:17:33.212:1,-0.49,0.01
00:17:33.216:1,-0.475,0.025
00:17:33.220:1,-0.49,0.005
00:17:33.224:1,-0.46,0.02
00:17:33.228:1,-0.45,0.005
00:17:33.232:1,-0.44,0.01
00:17:33.236:1,-0.46,-0.005
00:17:33.240:1,-0.445,-0.005
00:17:33.244:1,-0.415,-0.005
00:17:33.248:1,-0.425,-0.04
00:17:33.252:1,-0.405,-0.05
00:17:33.256:1,-0.395,-0.035
00:17:33.260:1,-0.405,-0.05
00:17:33.264:1,-0.39,-0.07
00:17:33.268:1,-0.385,-0.045
00:17:33.272:1,-0.335,-0.05
00:17:33.276:1,-0.34,-0.05
00:17:33.280:1,-0.325,-0.08
00:17:33.284:1,-0.31,-0.07
00:17:33.288:1,-0.31,-0.075
00:17:33.292:1,-0.285,-0.05
00:17:33.296:1,-0.28,-0.065
00:17:33.300:1,-0.26,-0.04
00:17:33.304:1,-0.255,-0.055
00:17:33.308:1,-0.26,-0.06
00:17:33.312:1,-0.27,-0.05
00:17:33.316:1,-0.26,-0.04
00:17:33.320:1,-0.25,-0.03
00:17:33.324:1,-0.255,-0.02
00:17:33.328:1,-0.265,-0.015
00:17:33.332:1,-0.265,-0.02
00:17:33.336:1,-0.245,-0.03
00:17:33.340:1,-0.24,-0.035
00:17:33.344:1,-0.25,-0.02
00:17:33.348:1,-0.265,-0.02
00:17:33.352:1,-0.28,-0.005
00:17:33.356:1,-0.28,-0.02
00:17:33.360:1,-0.275,-0.03
00:17:33.364:1,-0.265,-0.035
00:17:33.368:1,-0.28,-0.04
00:17:33.372:1,-0.27,-0.035
00:17:33.376:1,-0.265,-0.03
00:17:33.380:1,-0.275,-0.05
00:17:33.384:1,-0.25,-0.035
00:17:33.388:1,-0.235,-0.03
00:17:33.392:1,-0.22,-0.03
00:17:33.396:1,-0.215,-0.01
00:17:33.400:1,-0.19,-0.015
00:17:33.404:1,-0.185,0.0
00:17:33.408:1,-0.15,-0.02
00:17:33.412:1,-0.12,0.02
00:17:33.416:1,-0.08,0.02
00:17:33.420:1,-0.055,0.055
00:17:33.424:1,-0.04,0.04
00:17:33.428:1,-0.02,0.04
00:17:33.432:1,0.005,0.01
00:17:33.436:1,0.02,0.04
00:17:33.440:1,0.02,0.015
00:17:33.444:1,0.005,0.01
00:17:33.448:1,-0.01,-0.03
00:17:33.452:1,-0.05,-0.05
00:17:33.456:1,-0.1,-0.07
00:17:33.460:1,-0.16,-0.06
00:17:33.464:1,-0.22,-0.07
00:17:33.468:1,-0.26,-0.05
00:17:33.472:1,-0.305,-0.05
00:17:33.476:1,-0.33,-0.035
00:17:33.480:1,-0.35,-0.015
00:17:33.484:1,-0.365,-0.015
00:17:33.488:1,-0.385,-0.03
00:17:33.492:1,-0.385,-0.045
00:17:33.496:1,-0.36,-0.06
00:17:33.500:1,-0.355,-0.05
00:17:33.504:1,-0.34,-0.05
00:17:33.508:1,-0.345,-0.05
00:17:33.512:1,-0.32,-0.06
00:17:33.516:1,-0.325,-0.04
00:17:33.520:1,-0.335,-0.06
00:17:33.524:1,-0.34,-0.04
00:17:33.528:1,-0.34,-0.055
00:17:33.532:1,-0.31,-0.02
00:17:33.536:1,-0.32,-0.03
00:17:33.540:1,-0.32,-0.055
00:17:33.544:1,-0.33,-0.035
00:17:33.548:1,-0.32,-0.05
00:17:33.552:1,-0.335,-0.06
00:17:33.556:1,-0.33,-0.06
00:17:33.560:1,-0.345,-0.05
00:17:33.564:1,-0.355,-0.06
00:17:33.568:1,-0.355,-0.07
00:17:33.572:1,-0.33,-0.06
00:17:33.576:1,-0.33,-0.07
00:17:33.580:1,-0.32,-0.05
00:17:33.584:1,-0.29,-0.065
00:17:33.588:1,-0.26,-0.055
00:17:33.592:1,-0.22,-0.06
00:17:33.596:1,-0.135,-0.085
00:17:33.600:1,-0.05,-0.08
00:17:33.604:1,0.025,-0.08
00:17:33.608:1,0.07,-0.12
00:17:33.612:1,0.105,-0.14
00:17:33.616:1,0.12,-0.145
00:17:33.620:1,0.115,-0.135
00:17:33.624:1,0.07,-0.195
00:17:33.628:1,0.06,-0.3
00:17:33.632:1,0.2,-0.465
00:17:33.636:1,0.475,-0.66
00:17:33.640:1,0.82,-0.94
00:17:33.644:1,1.07,-1.17
00:17:33.648:1,1.11,-1.2
00:17:33.652:1,0.89,-1.05
00:17:33.656:1,0.445,-0.655
00:17:33.660:1,0.04,-0.285
00:17:33.664:1,-0.17,-0.05
00:17:33.668:1,-0.27,0.06
00:17:33.672:1,-0.34,0.125
00:17:33.676:1,-0.37,0.125
00:17:33.680:1,-0.405,0.12
00:17:33.684:1,-0.435,0.115
00:17:33.688:1,-0.42,0.115
00:17:33.692:1,-0.44,0.11
00:17:33.696:1,-0.445,0.055
00:17:33.700:1,-0.47,0.035
00:17:33.704:1,-0.465,0.035
00:17:33.708:1,-0.475,0.045
00:17:33.712:1,-0.485,0.03
00:17:33.716:1,-0.475,0.045
00:17:33.720:1,-0.465,0.055
00:17:33.724:1,-0.45,0.06
00:17:33.728:1,-0.45,0.05
00:17:33.732:1,-0.465,0.05
00:17:33.736:1,-0.475,0.065
00:17:33.740:1,-0.48,0.055
00:17:33.744:1,-0.47,0.045
00:17:33.748:1,-0.485,0.08
00:17:33.752:1,-0.505,0.065
00:17:33.756:1,-0.505,0.065
00:17:33.760:1,-0.51,0.07
00:17:33.764:1,-0.525,0.075
00:17:33.768:1,-0.53,0.045
00:17:33.772:1,-0.545,0.03
00:17:33.776:1,-0.535,0.045
00:17:33.780:1,-0.545,0.06
00:17:33.784:1,-0.54,0.07
00:17:33.788:1,-0.565,0.05
00:17:33.792:1,-0.545,0.04
00:17:33.796:1,-0.56,0.035
00:17:33.800:1,-0.55,0.03
00:17:33.804:1,-0.54,0.055
00:17:33.808:1,-0.545,0.045
00:17:33.812:1,-0.555,0.065
00:17:33.816:1,-0.515,0.055
00:17:33.820:1,-0.52,0.05
00:17:33.824:1,-0.515,0.055
00:17:33.828:1,-0.51,0.08
00:17:33.832:1,-0.5,0.06
00:17:33.836:1,-0.485,0.065
00:17:33.840:1,-0.49,0.065
00:17:33.844:1,-0.455,0.05
00:17:33.848:1,-0.45,0.07
00:17:33.852:1,-0.445,0.07
00:17:33.856:1,-0.425,0.07
00:17:33.860:1,-0.425,0.055
00:17:33.864:1,-0.43,0.055
00:17:33.868:1,-0.41,0.04
00:17:33.872:1,-0.39,0.02
00:17:33.876:1,-0.39,0.03
00:17:33.880:1,-0.395,0.025
00:17:33.884:1,-0.375,0.005
00:17:33.888:1,-0.37,0.015
00:17:33.892:1,-0.345,0.01
00:17:33.896:1,-0.32,0.005
00:17:33.900:1,-0.305,0.005
00:17:33.904:1,-0.32,-0.005
00:17:33.908:1,-0.295,0.0
00:17:33.912:1,-0.295,-0.005
00:17:33.916:1,-0.29,0.0
00:17:33.920:1,-0.28,0.015
00:17:33.924:1,-0.275,0.015
00:17:33.928:1,-0.285,0.02
00:17:33.932:1,-0.26,0.02
00:17:33.936:1,-0.235,0.025
00:17:33.940:1,-0.24,0.03
00:17:33.944:1,-0.235,0.015
00:17:33.948:1,-0.23,0.025
00:17:33.952:1,-0.24,0.01
00:17:33.956:1,-0.25,0.025
00:17:33.960:1,-0.22,0.03
00:17:33.964:1,-0.24,0.04
00:17:33.968:1,-0.225,0.0
00:17:33.972:1,-0.23,0.01
00:17:33.976:1,-0.26,0.01
00:17:33.980:1,-0.25,0.04
00:17:33.984:1,-0.27,0.02
00:17:33.988:1,-0.27,0.035
00:17:33.992:1,-0.28,0.02
00:17:33.996:1,-0.265,0.0
00:17:34.000:1,-0.265,0.0
00:17:34.004:1,-0.25,0.0
00:17:34.008:1,-0.255,0.005
00:17:34.012:1,-0.265,-0.005
00:17:34.016:1,-0.25,-0.005
00:17:34.020:1,-0.25,0.0
00:17:34.024:1,-0.215,-0.015
00:17:34.028:1,-0.21,-0.015
00:17:34.032:1,-0.215,0.01
00:17:34.036:1,-0.225,0.0
00:17:34.040:1,-0.19,0.0
00:17:34.044:1,-0.145,-0.01
00:17:34.048:1,-0.1,0.02
00:17:34.052:1,-0.08,0.02
00:17:34.056:1,-0.05,0.035
00:17:34.060:1,-0.04,0.045
00:17:34.064:1,-0.025,0.055
00:17:34.068:1,0.025,0.045
00:17:34.072:1,0.03,0.015
00:17:34.076:1,0.03,0.005
00:17:34.080:1,-0.005,-0.04
00:17:34.084:1,-0.03,-0.03
00:17:34.088:1,-0.09,-0.065
00:17:34.092:1,-0.15,-0.095
00:17:34.096:1,-0.21,-0.07
00:17:34.100:1,-0.25,-0.06
00:17:34.104:1,-0.29,-0.08
00:17:34.108:1,-0.33,-0.07
00:17:34.112:1,-0.37,-0.08
00:17:34.116:1,-0.39,-0.045
00:17:34.120:1,-0.405,-0.05
00:17:34.124:1,-0.38,-0.06
00:17:34.128:1,-0.365,-0.075
00:17:34.132:1,-0.365,-0.08
00:17:34.136:1,-0.365,-0.09
00:17:34.140:1,-0.365,-0.085
00:17:34.144:1,-0.335,-0.1
00:17:34.148:1,-0.32,-0.1
00:17:34.152:1,-0.315,-0.085
00:17:34.156:1,-0.3,-0.08
00:17:34.160:1,-0.33,-0.085
00:17:34.164:1,-0.315,-0.1
00:17:34.168:1,-0.33,-0.1
00:17:34.172:1,-0.335,-0.075
00:17:34.176:1,-0.31,-0.095
00:17:34.180:1,-0.32,-0.11
00:17:34.184:1,-0.33,-0.11
00:17:34.188:1,-0.345,-0.105
00:17:34.192:1,-0.355,-0.11
00:17:34.196:1,-0.345,-0.11
00:17:34.200:1,-0.345,-0.11
00:17:34.204:1,-0.36,-0.09
00:17:34.208:1,-0.345,-0.145
00:17:34.212:1,-0.315,-0.13
00:17:34.216:1,-0.335,-0.13
00:17:34.220:1,-0.325,-0.12
00:17:34.224:1,-0.27,-0.13
00:17:34.228:1,-0.185,-0.145
00:17:34.232:1,-0.09,-0.16
00:17:34.236:1,-0.005,-0.16
00:17:34.240:1,0.075,-0.2
00:17:34.244:1,0.14,-0.225
00:17:34.248:1,0.19,-0.225
00:17:34.252:1,0.23,-0.225
00:17:34.256:1,0.195,-0.22
00:17:34.260:1,0.15,-0.26
00:17:34.264:1,0.17,-0.335
00:17:34.268:1,0.355,-0.505
00:17:34.272:1,0.64,-0.745
00:17:34.276:1,0.98,-1.02
00:17:34.280:1,1.15,-1.2
00:17:34.284:1,1.08,-1.205
00:17:34.288:1,0.71,-0.95
00:17:34.292:1,0.27,-0.58
00:17:34.296:1,-0.04,-0.295
00:17:34.300:1,-0.205,-0.15
00:17:34.304:1,-0.29,-0.04
00:17:34.308:1,-0.345,0.01
00:17:34.312:1,-0.345,0.02
00:17:34.316:1,-0.42,0.005
00:17:34.320:1,-0.47,-0.015
00:17:34.324:1,-0.485,-0.015
00:17:34.328:1,-0.5,-0.045
00:17:34.332:1,-0.515,-0.07
00:17:34.336:1,-0.53,-0.085
00:17:34.340:1,-0.525,-0.085
00:17:34.344:1,-0.515,-0.125
00:17:34.348:1,-0.54,-0.1
00:17:34.352:1,-0.56,-0.1
00:17:34.356:1,-0.55,-0.09
00:17:34.360:1,-0.53,-0.09
00:17:34.364:1,-0.53,-0.105
00:17:34.368:1,-0.535,-0.115
00:17:34.372:1,-0.53,-0.14
00:17:34.376:1,-0.55,-0.12
00:17:34.380:1,-0.57,-0.105
00:17:34.384:1,-0.58,-0.11
00:17:34.388:1,-0.555,-0.1
00:17:34.392:1,-0.565,-0.11
00:17:34.396:1,-0.555,-0.12
00:17:34.400:1,-0.59,-0.12
00:17:34.404:1,-0.58,-0.11
00:17:34.408:1,-0.605,-0.13
00:17:34.412:1,-0.605,-0.115
00:17:34.416:1,-0.605,-0.125
00:17:34.420:1,-0.595,-0.13
00:17:34.424:1,-0.6,-0.135
00:17:34.428:1,-0.61,-0.16
00:17:34.432:1,-0.61,-0.155
00:17:34.436:1,-0.625,-0.18
00:17:34.440:1,-0.615,-0.175
00:17:34.444:1,-0.605,-0.14
00:17:34.448:1,-0.615,-0.15
00:17:34.452:1,-0.6,-0.145
00:17:34.456:1,-0.59,-0.15
00:17:34.460:1,-0.59,-0.175
00:17:34.464:1,-0.585,-0.14
00:17:34.468:1,-0.57,-0.145
00:17:34.472:1,-0.55,-0.125
00:17:34.476:1,-0.53,-0.15
00:17:34.480:1,-0.525,-0.135
00:17:34.484:1,-0.515,-0.155
00:17:34.488:1,-0.54,-0.16
00:17:34.492:1,-0.52,-0.15
00:17:34.496:1,-0.51,-0.15
00:17:34.500:1,-0.505,-0.15
00:17:34.504:1,-0.47,-0.18
00:17:34.508:1,-0.44,-0.18
00:17:34.512:1,-0.47,-0.18
00:17:34.516:1,-0.47,-0.185
00:17:34.520:1,-0.47,-0.17
00:17:34.524:1,-0.47,-0.155
00:17:34.528:1,-0.445,-0.185
00:17:34.532:1,-0.43,-0.18
00:17:34.536:1,-0.43,-0.18
00:17:34.540:1,-0.39,-0.21
00:17:34.544:1,-0.4,-0.195
00:17:34.548:1,-0.4,-0.205
00:17:34.552:1,-0.38,-0.175
00:17:34.556:1,-0.37,-0.19
00:17:34.560:1,-0.38,-0.185
00:17:34.564:1,-0.37,-0.18
00:17:34.568:1,-0.38,-0.17
00:17:34.572:1,-0.355,-0.15
00:17:34.576:1,-0.34,-0.16
00:17:34.580:1,-0.34,-0.16
00:17:34.584:1,-0.355,-0.15
00:17:34.588:1,-0.335,-0.14
00:17:34.592:1,-0.345,-0.135
00:17:34.596:1,-0.34,-0.14
00:17:34.600:1,-0.34,-0.145
00:17:34.604:1,-0.34,-0.145
00:17:34.608:1,-0.34,-0.12
00:17:34.612:1,-0.34,-0.11
00:17:34.616:1,-0.35,-0.12
00:17:34.620:1,-0.36,-0.105
00:17:34.624:1,-0.365,-0.135
00:17:34.628:1,-0.37,-0.115
00:17:34.632:1,-0.355,-0.115
00:17:34.636:1,-0.35,-0.115
00:17:34.640:1,-0.35,-0.12
00:17:34.644:1,-0.355,-0.135
00:17:34.648:1,-0.35,-0.115
00:17:34.652:1,-0.33,-0.11
00:17:34.656:1,-0.335,-0.12
00:17:34.660:1,-0.315,-0.12
00:17:34.664:1,-0.295,-0.105
00:17:34.668:1,-0.3,-0.125
00:17:34.672:1,-0.285,-0.11
00:17:34.676:1,-0.28,-0.09
00:17:34.680:1,-0.25,-0.07
00:17:34.684:1,-0.21,-0.08
00:17:34.688:1,-0.17,-0.065
00:17:34.692:1,-0.14,-0.045
00:17:34.696:1,-0.125,-0.035
00:17:34.700:1,-0.095,-0.025
00:17:34.704:1,-0.055,-0.03
00:17:34.708:1,-0.025,-0.035
00:17:34.712:1,-0.015,-0.04
00:17:34.716:1,-0.005,-0.075
00:17:34.720:1,-0.05,-0.095
00:17:34.724:1,-0.075,-0.085
00:17:34.728:1,-0.135,-0.1
00:17:34.732:1,-0.19,-0.125
00:17:34.736:1,-0.24,-0.12
00:17:34.740:1,-0.31,-0.135
00:17:34.744:1,-0.345,-0.12
00:17:34.748:1,-0.375,-0.09
00:17:34.752:1,-0.42,-0.1
00:17:34.756:1,-0.43,-0.085
00:17:34.760:1,-0.43,-0.075
00:17:34.764:1,-0.435,-0.085
00:17:34.768:1,-0.42,-0.085
00:17:34.772:1,-0.405,-0.11
00:17:34.776:1,-0.395,-0.11
00:17:34.780:1,-0.39,-0.115
00:17:34.784:1,-0.38,-0.115
00:17:34.788:1,-0.38,-0.105
00:17:34.792:1,-0.38,-0.095
00:17:34.796:1,-0.385,-0.085
00:17:34.800:1,-0.385,-0.085
00:17:34.804:1,-0.375,-0.08
00:17:34.808:1,-0.37,-0.085
00:17:34.812:1,-0.38,-0.07
00:17:34.816:1,-0.355,-0.105
00:17:34.820:1,-0.375,-0.08
00:17:34.824:1,-0.355,-0.09
00:17:34.828:1,-0.375,-0.085
00:17:34.832:1,-0.34,-0.1
00:17:34.836:1,-0.39,-0.1
00:17:34.840:1,-0.4,-0.08
00:17:34.844:1,-0.395,-0.07
00:17:34.848:1,-0.37,-0.09
00:17:34.852:1,-0.375,-0.085
00:17:34.856:1,-0.365,-0.085
00:17:34.860:1,-0.34,-0.085
00:17:34.864:1,-0.285,-0.08
00:17:34.868:1,-0.23,-0.085
00:17:34.872:1,-0.14,-0.085
00:17:34.876:1,-0.04,-0.11
00:17:34.880:1,0.01,-0.135
00:17:34.884:1,0.07,-0.18
00:17:34.888:1,0.13,-0.195
00:17:34.892:1,0.145,-0.16
00:17:34.896:1,0.12,-0.18
00:17:34.900:1,0.09,-0.225
00:17:34.904:1,0.1,-0.32
00:17:34.908:1,0.25,-0.48
00:17:34.912:1,0.55,-0.72
00:17:34.916:1,0.87,-1.0
00:17:34.920:1,1.125,-1.185
00:17:34.924:1,1.155,-1.21
00:17:34.928:1,0.855,-1.0
00:17:34.932:1,0.395,-0.63
00:17:34.936:1,0.01,-0.27
00:17:34.940:1,-0.2,-0.09
00:17:34.944:1,-0.32,0.04
00:17:34.948:1,-0.385,0.115
00:17:34.952:1,-0.425,0.115
00:17:34.956:1,-0.46,0.12
00:17:34.960:1,-0.45,0.14
00:17:34.964:1,-0.48,0.105
00:17:34.968:1,-0.49,0.105
00:17:34.972:1,-0.495,0.075
00:17:34.976:1,-0.52,0.035
00:17:34.980:1,-0.52,0.045
00:17:34.984:1,-0.52,0.045
00:17:34.988:1,-0.525,0.035
00:17:34.992:1,-0.515,0.015
00:17:34.996:1,-0.51,0.06
00:17:35.000:1,-0.505,0.055
00:17:35.004:1,-0.505,0.045
00:17:35.008:1,-0.49,0.055
00:17:35.012:1,-0.49,0.055
00:17:35.016:1,-0.485,0.06
00:17:35.020:1,-0.525,0.05
00:17:35.024:1,-0.5,0.05
00:17:35.028:1,-0.51,0.065
00:17:35.032:1,-0.52,0.06
00:17:35.036:1,-0.54,0.055
00:17:35.040:1,-0.515,0.06
00:17:35.044:1,-0.535,0.065
00:17:35.048:1,-0.565,0.07
00:17:35.052:1,-0.57,0.075
00:17:35.056:1,-0.57,0.06
00:17:35.060:1,-0.56,0.05
00:17:35.064:1,-0.57,0.04
00:17:35.068:1,-0.585,0.045
00:17:35.072:1,-0.58,0.03
00:17:35.076:1,-0.585,0.045
00:17:35.080:1,-0.58,0.03
00:17:35.084:1,-0.58,0.045
00:17:35.088:1,-0.565,0.045
00:17:35.092:1,-0.57,0.045
00:17:35.096:1,-0.555,0.045
00:17:35.100:1,-0.54,0.045
00:17:35.104:1,-0.545,0.055
00:17:35.108:1,-0.525,0.065
00:17:35.112:1,-0.5,0.04
00:17:35.116:1,-0.51,0.045
00:17:35.120:1,-0.51,0.06
00:17:35.124:1,-0.495,0.05
00:17:35.128:1,-0.48,0.065
00:17:35.132:1,-0.475,0.04
00:17:35.136:1,-0.475,0.03
00:17:35.140:1,-0.465,0.015
00:17:35.144:1,-0.435,0.02
00:17:35.148:1,-0.445,0.015
00:17:35.152:1,-0.44,0.0
00:17:35.156:1,-0.425,0.0
00:17:35.160:1,-0.42,0.005
00:17:35.164:1,-0.415,0.015
00:17:35.168:1,-0.4,0.0
00:17:35.172:1,-0.4,-0.02
00:17:35.176:1,-0.37,-0.005
00:17:35.180:1,-0.35,-0.02
00:17:35.184:1,-0.34,-0.035
00:17:35.188:1,-0.32,-0.025
00:17:35.192:1,-0.315,-0.03
00:17:35.196:1,-0.32,-0.02
00:17:35.200:1,-0.3,-0.01
00:17:35.204:1,-0.305,-0.03
00:17:35.208:1,-0.295,-0.005
00:17:35.212:1,-0.27,-0.005
00:17:35.216:1,-0.28,-0.01
00:17:35.220:1,-0.28,0.0
00:17:35.224:1,-0.275,0.0
00:17:35.228:1,-0.27,0.01
00:17:35.232:1,-0.26,0.015
00:17:35.236:1,-0.27,0.015
00:17:35.240:1,-0.27,0.015
00:17:35.244:1,-0.3,0.025
00:17:35.248:1,-0.26,0.015
00:17:35.252:1,-0.285,0.0
00:17:35.256:1,-0.295,0.005
00:17:35.260:1,-0.31,0.01
00:17:35.264:1,-0.3,0.015
00:17:35.268:1,-0.285,0.03
00:17:35.272:1,-0.28,0.005
00:17:35.276:1,-0.28,0.005
00:17:35.280:1,-0.27,0.025
00:17:35.284:1,-0.235,0.0
00:17:35.288:1,-0.24,0.0
00:17:35.292:1,-0.24,0.005
00:17:35.296:1,-0.24,0.02
00:17:35.300:1,-0.23,0.035
00:17:35.304:1,-0.215,0.045
00:17:35.308:1,-0.16,0.055
00:17:35.312:1,-0.11,0.065
00:17:35.316:1,-0.075,0.065
00:17:35.320:1,-0.04,0.085
00:17:35.324:1,-0.025,0.075
00:17:35.328:1,-0.02,0.09
00:17:35.332:1,-0.005,0.085
00:17:35.336:1,0.015,0.085
00:17:35.340:1,0.0,0.04
00:17:35.344:1,-0.02,0.005
00:17:35.348:1,-0.065,0.0
00:17:35.352:1,-0.12,-0.02
00:17:35.356:1,-0.18,-0.03
00:17:35.360:1,-0.215,-0.03
00:17:35.364:1,-0.255,-0.03
00:17:35.368:1,-0.32,0.005
00:17:35.372:1,-0.385,0.015
00:17:35.376:1,-0.41,0.015
00:17:35.380:1,-0.4,0.005
00:17:35.384:1,-0.42,-0.025
00:17:35.388:1,-0.42,-0.01
00:17:35.392:1,-0.415,-0.025
00:17:35.396:1,-0.405,-0.045
00:17:35.400:1,-0.39,-0.025
00:17:35.404:1,-0.415,-0.04
00:17:35.408:1,-0.385,-0.045
00:17:35.412:1,-0.385,-0.04
00:17:35.416:1,-0.395,-0.05
00:17:35.420:1,-0.37,-0.03
00:17:35.424:1,-0.355,-0.04
00:17:35.428:1,-0.38,-0.03
00:17:35.432:1,-0.37,-0.04
00:17:35.436:1,-0.39,-0.06
00:17:35.440:1,-0.375,-0.04
00:17:35.444:1,-0.375,-0.02
00:17:35.448:1,-0.38,-0.025
00:17:35.452:1,-0.38,-0.055
00:17:35.456:1,-0.38,-0.035
00:17:35.460:1,-0.37,-0.045
00:17:35.464:1,-0.365,-0.045
00:17:35.468:1,-0.4,-0.04
00:17:35.472:1,-0.385,-0.035
00:17:35.476:1,-0.365,-0.065
00:17:35.480:1,-0.375,-0.05
00:17:35.484:1,-0.36,-0.055
00:17:35.488:1,-0.315,-0.06
00:17:35.492:1,-0.26,-0.07
00:17:35.496:1,-0.175,-0.085
00:17:35.500:1,-0.095,-0.065
00:17:35.504:1,-0.025,-0.105
00:17:35.508:1,-0.005,-0.16
00:17:35.512:1,0.01,-0.145
00:17:35.516:1,0.03,-0.14
00:17:35.520:1,0.015,-0.15
00:17:35.524:1,-0.03,-0.21
00:17:35.528:1,-0.01,-0.305
00:17:35.532:1,0.145,-0.465
00:17:35.536:1,0.425,-0.7
00:17:35.540:1,0.785,-0.99
00:17:35.544:1,1.045,-1.18
00:17:35.548:1,1.07,-1.21
00:17:35.552:1,0.825,-1.02
00:17:35.556:1,0.365,-0.64
00:17:35.560:1,-0.035,-0.3
00:17:35.564:1,-0.22,-0.075
00:17:35.568:1,-0.32,0.05
00:17:35.572:1,-0.395,0.13
00:17:35.576:1,-0.42,0.14
00:17:35.580:1,-0.445,0.13
00:17:35.584:1,-0.47,0.16
00:17:35.588:1,-0.495,0.13
00:17:35.592:1,-0.495,0.12
00:17:35.596:1,-0.525,0.075
00:17:35.600:1,-0.53,0.095
00:17:35.604:1,-0.53,0.105
00:17:35.608:1,-0.51,0.06
00:17:35.612:1,-0.535,0.06
00:17:35.616:1,-0.54,0.05
00:17:35.620:1,-0.52,0.03
00:17:35.624:1,-0.525,0.06
00:17:35.628:1,-0.545,0.08
00:17:35.632:1,-0.525,0.075
00:17:35.636:1,-0.515,0.065
00:17:35.640:1,-0.54,0.07
00:17:35.644:1,-0.525,0.06
00:17:35.648:1,-0.53,0.065
00:17:35.652:1,-0.55,0.055
00:17:35.656:1,-0.545,0.075
00:17:35.660:1,-0.545,0.08
00:17:35.664:1,-0.545,0.07
00:17:35.668:1,-0.55,0.07
00:17:35.672:1,-0.575,0.06
00:17:35.676:1,-0.575,0.065
00:17:35.680:1,-0.565,0.045
00:17:35.684:1,-0.585,0.055
00:17:35.688:1,-0.61,0.075
00:17:35.692:1,-0.605,0.065
00:17:35.696:1,-0.605,0.035
00:17:35.700:1,-0.595,0.05
00:17:35.704:1,-0.62,0.05
00:17:35.708:1,-0.595,0.04
00:17:35.712:1,-0.59,0.035
00:17:35.716:1,-0.6,0.04
00:17:35.720:1,-0.585,0.05
00:17:35.724:1,-0.585,0.05
00:17:35.728:1,-0.595,0.03
00:17:35.732:1,-0.585,0.035
00:17:35.736:1,-0.57,0.01
00:17:35.740:1,-0.545,0.03
00:17:35.744:1,-0.535,0.015
00:17:35.748:1,-0.51,0.02
00:17:35.752:1,-0.51,0.03
00:17:35.756:1,-0.485,0.015
00:17:35.760:1,-0.505,0.04
00:17:35.764:1,-0.505,0.02
00:17:35.768:1,-0.48,0.025
00:17:35.772:1,-0.445,0.01
00:17:35.776:1,-0.45,0.015
00:17:35.780:1,-0.44,0.0
00:17:35.784:1,-0.445,0.0
00:17:35.788:1,-0.43,-0.025
00:17:35.792:1,-0.4,-0.025
00:17:35.796:1,-0.43,-0.015
00:17:35.800:1,-0.385,-0.03
00:17:35.804:1,-0.4,-0.04
00:17:35.808:1,-0.385,-0.02
00:17:35.812:1,-0.375,-0.055
00:17:35.816:1,-0.34,-0.035
00:17:35.820:1,-0.36,-0.045
00:17:35.824:1,-0.35,-0.03
00:17:35.828:1,-0.34,-0.025
00:17:35.832:1,-0.345,-0.035
00:17:35.836:1,-0.33,-0.025
00:17:35.840:1,-0.315,-0.02
00:17:35.844:1,-0.305,-0.02
00:17:35.848:1,-0.31,-0.02
00:17:35.852:1,-0.32,-0.025
00:17:35.856:1,-0.32,-0.005
00:17:35.860:1,-0.31,-0.01
00:17:35.864:1,-0.3,-0.005
00:17:35.868:1,-0.29,0.02
00:17:35.872:1,-0.32,0.01
00:17:35.876:1,-0.34,0.0
00:17:35.880:1,-0.335,0.0
00:17:35.884:1,-0.325,0.005
00:17:35.888:1,-0.315,-0.01
00:17:35.892:1,-0.32,0.005
00:17:35.896:1,-0.335,-0.015
00:17:35.900:1,-0.33,-0.015
00:17:35.904:1,-0.335,-0.02
00:17:35.908:1,-0.35,-0.015
00:17:35.912:1,-0.34,-0.035
00:17:35.916:1,-0.325,-0.025
00:17:35.920:1,-0.325,-0.035
00:17:35.924:1,-0.31,-0.02
00:17:35.928:1,-0.32,-0.03
00:17:35.932:1,-0.29,-0.045
00:17:35.936:1,-0.28,-0.035
00:17:35.940:1,-0.27,-0.03
00:17:35.944:1,-0.28,-0.035
00:17:35.948:1,-0.28,-0.01
00:17:35.952:1,-0.24,-0.005
00:17:35.956:1,-0.205,-0.005
00:17:35.960:1,-0.15,0.015
00:17:35.964:1,-0.09,0.01
00:17:35.968:1,-0.08,0.015
00:17:35.972:1,-0.065,0.045
00:17:35.976:1,-0.06,0.025
00:17:35.980:1,-0.025,0.005
00:17:35.984:1,0.01,0.015
00:17:35.988:1,-0.015,0.005
00:17:35.992:1,-0.04,-0.03
00:17:35.996:1,-0.09,-0.055
00:17:36.000:1,-0.13,-0.06
00:17:36.004:1,-0.17,-0.065
00:17:36.008:1,-0.23,-0.07
00:17:36.012:1,-0.295,-0.1
00:17:36.016:1,-0.325,-0.105
00:17:36.020:1,-0.36,-0.08
00:17:36.024:1,-0.385,-0.075
00:17:36.028:1,-0.4,-0.09
00:17:36.032:1,-0.41,-0.1
00:17:36.036:1,-0.415,-0.105
00:17:36.040:1,-0.415,-0.09
00:17:36.044:1,-0.395,-0.11
00:17:36.048:1,-0.39,-0.095
00:17:36.052:1,-0.375,-0.11
00:17:36.056:1,-0.365,-0.13
00:17:36.060:1,-0.355,-0.105
00:17:36.064:1,-0.345,-0.115
00:17:36.068:1,-0.37,-0.11
00:17:36.072:1,-0.375,-0.12
00:17:36.076:1,-0.375,-0.125
00:17:36.080:1,-0.395,-0.12
00:17:36.084:1,-0.37,-0.125
00:17:36.088:1,-0.355,-0.12
00:17:36.092:1,-0.36,-0.13
00:17:36.096:1,-0.38,-0.14
00:17:36.100:1,-0.39,-0.14
00:17:36.104:1,-0.39,-0.125
00:17:36.108:1,-0.38,-0.155
00:17:36.112:1,-0.385,-0.155
00:17:36.116:1,-0.385,-0.15
00:17:36.120:1,-0.395,-0.16
00:17:36.124:1,-0.395,-0.175
00:17:36.128:1,-0.34,-0.17
00:17:36.132:1,-0.31,-0.155
00:17:36.136:1,-0.255,-0.155
00:17:36.140:1,-0.165,-0.165
00:17:36.144:1,-0.065,-0.18
00:17:36.148:1,0.01,-0.2
00:17:36.152:1,0.09,-0.23
00:17:36.156:1,0.155,-0.28
00:17:36.160:1,0.18,-0.245
00:17:36.164:1,0.21,-0.21
00:17:36.168:1,0.16,-0.25
00:17:36.172:1,0.125,-0.305
00:17:36.176:1,0.23,-0.405
00:17:36.180:1,0.495,-0.62
00:17:36.184:1,0.82,-0.88
00:17:36.188:1,1.065,-1.12
00:17:36.192:1,1.105,-1.2
00:17:36.196:1,0.82,-1.055
00:17:36.200:1,0.355,-0.745
00:17:36.204:1,-0.01,-0.415
00:17:36.208:1,-0.195,-0.205
00:17:36.212:1,-0.295,-0.095
00:17:36.216:1,-0.355,-0.035
00:17:36.220:1,-0.39,0.005
00:17:36.224:1,-0.42,0.01
00:17:36.228:1,-0.445,-0.015
00:17:36.232:1,-0.47,-0.025
00:17:36.236:1,-0.5,-0.04
00:17:36.240:1,-0.505,-0.075
00:17:36.244:1,-0.525,-0.08
00:17:36.248:1,-0.53,-0.07
00:17:36.252:1,-0.55,-0.07
00:17:36.256:1,-0.53,-0.08
00:17:36.260:1,-0.52,-0.075
00:17:36.264:1,-0.51,-0.095
00:17:36.268:1,-0.505,-0.085
00:17:36.272:1,-0.535,-0.075
00:17:36.276:1,-0.525,-0.08
00:17:36.280:1,-0.525,-0.085
00:17:36.284:1,-0.56,-0.075
00:17:36.288:1,-0.54,-0.085
00:17:36.292:1,-0.55,-0.075
00:17:36.296:1,-0.555,-0.075
00:17:36.300:1,-0.57,-0.08
00:17:36.304:1,-0.57,-0.075
00:17:36.308:1,-0.58,-0.065
00:17:36.312:1,-0.6,-0.075
00:17:36.316:1,-0.605,-0.095
00:17:36.320:1,-0.61,-0.08
00:17:36.324:1,-0.61,-0.075
00:17:36.328:1,-0.61,-0.1
00:17:36.332:1,-0.625,-0.1
00:17:36.336:1,-0.63,-0.08
00:17:36.340:1,-0.62,-0.09
00:17:36.344:1,-0.615,-0.095
00:17:36.348:1,-0.63,-0.08
00:17:36.352:1,-0.63,-0.08
00:17:36.356:1,-0.605,-0.1
00:17:36.360:1,-0.6,-0.08
00:17:36.364:1,-0.6,-0.07
00:17:36.368:1,-0.59,-0.08
00:17:36.372:1,-0.58,-0.085
00:17:36.376:1,-0.565,-0.075
00:17:36.380:1,-0.575,-0.07
00:17:36.384:1,-0.555,-0.065
00:17:36.388:1,-0.545,-0.06
00:17:36.392:1,-0.535,-0.07
00:17:36.396:1,-0.535,-0.065
00:17:36.400:1,-0.51,-0.08
00:17:36.404:1,-0.52,-0.09
00:17:36.408:1,-0.51,-0.07
00:17:36.412:1,-0.505,-0.065
00:17:36.416:1,-0.505,-0.095
00:17:36.420:1,-0.485,-0.085
00:17:36.424:1,-0.455,-0.095
00:17:36.428:1,-0.46,-0.095
00:17:36.432:1,-0.45,-0.085
00:17:36.436:1,-0.425,-0.125
00:17:36.440:1,-0.42,-0.14
00:17:36.444:1,-0.395,-0.115
00:17:36.448:1,-0.385,-0.105
00:17:36.452:1,-0.38,-0.105
00:17:36.456:1,-0.375,-0.1
00:17:36.460:1,-0.375,-0.1
00:17:36.464:1,-0.355,-0.115
00:17:36.468:1,-0.35,-0.11
00:17:36.472:1,-0.335,-0.095
00:17:36.476:1,-0.32,-0.1
00:17:36.480:1,-0.33,-0.08
00:17:36.484:1,-0.32,-0.07
00:17:36.488:1,-0.32,-0.08
00:17:36.492:1,-0.335,-0.07
00:17:36.496:1,-0.345,-0.065
00:17:36.500:1,-0.33,-0.065
00:17:36.504:1,-0.345,-0.06
00:17:36.508:1,-0.345,-0.05
00:17:36.512:1,-0.33,-0.035
00:17:36.516:1,-0.34,-0.07
00:17:36.520:1,-0.33,-0.055
00:17:36.524:1,-0.325,-0.025
00:17:36.528:1,-0.355,-0.03
00:17:36.532:1,-0.355,-0.03
00:17:36.536:1,-0.33,-0.03
00:17:36.540:1,-0.34,-0.05
00:17:36.544:1,-0.345,-0.045
00:17:36.548:1,-0.36,-0.04
00:17:36.552:1,-0.355,-0.04
00:17:36.556:1,-0.355,-0.025
00:17:36.560:1,-0.34,-0.04
00:17:36.564:1,-0.345,-0.05
00:17:36.568:1,-0.34,-0.02
00:17:36.572:1,-0.315,-0.035
00:17:36.576:1,-0.295,-0.025
00:17:36.580:1,-0.27,-0.03
00:17:36.584:1,-0.275,-0.02
00:17:36.588:1,-0.27,-0.005
00:17:36.592:1,-0.255,0.0
00:17:36.596:1,-0.23,0.015
00:17:36.600:1,-0.22,0.02
00:17:36.604:1,-0.16,0.015
00:17:36.608:1,-0.13,0.03
00:17:36.612:1,-0.1,0.065
00:17:36.616:1,-0.1,0.07
00:17:36.620:1,-0.07,0.05
00:17:36.624:1,-0.05,0.045
00:17:36.628:1,-0.025,0.035
00:17:36.632:1,-0.01,0.035
00:17:36.636:1,-0.055,0.005
00:17:36.640:1,-0.09,-0.025
00:17:36.644:1,-0.125,-0.03
00:17:36.648:1,-0.175,-0.06
00:17:36.652:1,-0.25,-0.04
00:17:36.656:1,-0.315,-0.04
00:17:36.660:1,-0.33,-0.015
00:17:36.664:1,-0.37,-0.035
00:17:36.668:1,-0.385,-0.01
00:17:36.672:1,-0.43,0.0
00:17:36.676:1,-0.43,0.005
00:17:36.680:1,-0.41,0.015
00:17:36.684:1,-0.405,-0.02
00:17:36.688:1,-0.395,-0.005
00:17:36.692:1,-0.385,-0.01
00:17:36.696:1,-0.385,-0.02
00:17:36.700:1,-0.385,-0.015
00:17:36.704:1,-0.37,-0.02
00:17:36.708:1,-0.365,-0.015
00:17:36.712:1,-0.385,-0.01
00:17:36.716:1,-0.39,-0.005
00:17:36.720:1,-0.38,-0.005
00:17:36.724:1,-0.39,-0.02
00:17:36.728:1,-0.4,-0.005
00:17:36.732:1,-0.38,-0.02
00:17:36.736:1,-0.39,-0.02
00:17:36.740:1,-0.375,-0.01
00:17:36.744:1,-0.385,-0.025
00:17:36.748:1,-0.37,-0.015
00:17:36.752:1,-0.37,-0.02
00:17:36.756:1,-0.39,-0.01
00:17:36.760:1,-0.375,-0.04
00:17:36.764:1,-0.375,-0.03
00:17:36.768:1,-0.38,-0.02
00:17:36.772:1,-0.365,-0.005
00:17:36.776:1,-0.32,-0.015
00:17:36.780:1,-0.25,0.0
00:17:36.784:1,-0.175,-0.03
00:17:36.788:1,-0.085,-0.03
00:17:36.792:1,0.015,-0.06
00:17:36.796:1,0.065,-0.08
00:17:36.800:1,0.095,-0.135
00:17:36.804:1,0.12,-0.12
00:17:36.808:1,0.105,-0.105
00:17:36.812:1,0.065,-0.16
00:17:36.816:1,0.05,-0.255
00:17:36.820:1,0.155,-0.365
00:17:36.824:1,0.425,-0.58
00:17:36.828:1,0.75,-0.86
00:17:36.832:1,1.02,-1.08
00:17:36.836:1,1.115,-1.175
00:17:36.840:1,0.93,-1.075
00:17:36.844:1,0.48,-0.715
00:17:36.848:1,0.055,-0.325
00:17:36.852:1,-0.195,-0.1
00:17:36.856:1,-0.305,0.03
00:17:36.860:1,-0.375,0.135
00:17:36.864:1,-0.415,0.17
00:17:36.868:1,-0.435,0.18
00:17:36.872:1,-0.475,0.175
00:17:36.876:1,-0.49,0.165
00:17:36.880:1,-0.48,0.165
00:17:36.884:1,-0.495,0.185
00:17:36.888:1,-0.515,0.13
00:17:36.892:1,-0.5,0.135
00:17:36.896:1,-0.49,0.135
00:17:36.900:1,-0.485,0.125
00:17:36.904:1,-0.49,0.14
00:17:36.908:1,-0.505,0.13
00:17:36.912:1,-0.49,0.14
00:17:36.916:1,-0.505,0.155
00:17:36.920:1,-0.49,0.14
00:17:36.924:1,-0.495,0.125
00:17:36.928:1,-0.5,0.13
00:17:36.932:1,-0.49,0.155
00:17:36.936:1,-0.515,0.14
00:17:36.940:1,-0.53,0.145
00:17:36.944:1,-0.535,0.14
00:17:36.948:1,-0.535,0.13
00:17:36.952:1,-0.54,0.135
00:17:36.956:1,-0.54,0.14
00:17:36.960:1,-0.535,0.135
00:17:36.964:1,-0.55,0.145
00:17:36.968:1,-0.555,0.14
00:17:36.972:1,-0.565,0.13
00:17:36.976:1,-0.565,0.13
00:17:36.980:1,-0.56,0.125
00:17:36.984:1,-0.585,0.15
00:17:36.988:1,-0.565,0.155
00:17:36.992:1,-0.545,0.145
00:17:36.996:1,-0.53,0.14
00:17:37.000:1,-0.525,0.15
00:17:37.004:1,-0.52,0.14
00:17:37.008:1,-0.52,0.135
00:17:37.012:1,-0.515,0.145
00:17:37.016:1,-0.515,0.14
00:17:37.020:1,-0.48,0.155
00:17:37.024:1,-0.495,0.145
00:17:37.028:1,-0.495,0.145
00:17:37.032:1,-0.49,0.135
00:17:37.036:1,-0.455,0.125
00:17:37.040:1,-0.455,0.13
00:17:37.044:1,-0.44,0.115
00:17:37.048:1,-0.45,0.105
00:17:37.052:1,-0.455,0.1
00:17:37.056:1,-0.45,0.11
00:17:37.060:1,-0.425,0.085
00:17:37.064:1,-0.405,0.08
00:17:37.068:1,-0.4,0.075
00:17:37.072:1,-0.395,0.08
00:17:37.076:1,-0.355,0.065
00:17:37.080:1,-0.335,0.08
00:17:37.084:1,-0.345,0.06
00:17:37.088:1,-0.335,0.055
00:17:37.092:1,-0.325,0.045
00:17:37.096:1,-0.32,0.05
00:17:37.100:1,-0.295,0.07
00:17:37.104:1,-0.27,0.055
00:17:37.108:1,-0.255,0.055
00:17:37.112:1,-0.26,0.055
00:17:37.116:1,-0.24,0.055
00:17:37.120:1,-0.25,0.08
00:17:37.124:1,-0.255,0.075
00:17:37.128:1,-0.255,0.07
00:17:37.132:1,-0.225,0.105
00:17:37.136:1,-0.245,0.08
00:17:37.140:1,-0.225,0.085
00:17:37.144:1,-0.22,0.095
00:17:37.148:1,-0.245,0.07
00:17:37.152:1,-0.245,0.1
00:17:37.156:1,-0.255,0.1
00:17:37.160:1,-0.255,0.1
00:17:37.164:1,-0.245,0.105
00:17:37.168:1,-0.25,0.095
00:17:37.172:1,-0.255,0.105
00:17:37.176:1,-0.25,0.1
00:17:37.180:1,-0.245,0.09
00:17:37.184:1,-0.26,0.105
00:17:37.188:1,-0.25,0.08
00:17:37.192:1,-0.26,0.105
00:17:37.196:1,-0.255,0.085
00:17:37.200:1,-0.25,0.09
00:17:37.204:1,-0.18,0.1
00:17:37.208:1,-0.16,0.105
00:17:37.212:1,-0.17,0.115
00:17:37.216:1,-0.16,0.105
00:17:37.220:1,-0.16,0.135
00:17:37.224:1,-0.15,0.12
00:17:37.228:1,-0.13,0.12
00:17:37.232:1,-0.08,0.165
00:17:37.236:1,-0.05,0.165
00:17:37.240:1,-0.025,0.175
00:17:37.244:1,-0.025,0.175
00:17:37.248:1,0.01,0.165
00:17:37.252:1,0.025,0.155
00:17:37.256:1,0.015,0.165
00:17:37.260:1,-0.005,0.13
00:17:37.264:1,0.0,0.095
00:17:37.268:1,-0.05,0.065
00:17:37.272:1,-0.09,0.05
00:17:37.276:1,-0.14,0.055
00:17:37.280:1,-0.19,0.04
00:17:37.284:1,-0.24,0.045
00:17:37.288:1,-0.305,0.055
00:17:37.292:1,-0.345,0.075
00:17:37.296:1,-0.35,0.095
00:17:37.300:1,-0.37,0.095
00:17:37.304:1,-0.36,0.095
00:17:37.308:1,-0.345,0.085
00:17:37.312:1,-0.34,0.08
00:17:37.316:1,-0.33,0.06
00:17:37.320:1,-0.325,0.065
00:17:37.324:1,-0.335,0.07
00:17:37.328:1,-0.33,0.06
00:17:37.332:1,-0.31,0.07
00:17:37.336:1,-0.32,0.075
00:17:37.340:1,-0.34,0.08
00:17:37.344:1,-0.335,0.07
00:17:37.348:1,-0.315,0.065
00:17:37.352:1,-0.34,0.075
00:17:37.356:1,-0.335,0.05
00:17:37.360:1,-0.355,0.05
00:17:37.364:1,-0.345,0.065
00:17:37.368:1,-0.345,0.05
00:17:37.372:1,-0.33,0.045
00:17:37.376:1,-0.34,0.045
00:17:37.380:1,-0.325,0.045
00:17:37.384:1,-0.33,0.05
00:17:37.388:1,-0.325,0.03
00:17:37.392:1,-0.345,0.025
00:17:37.396:1,-0.33,0.035
00:17:37.400:1,-0.3,0.025
00:17:37.404:1,-0.25,0.04
00:17:37.408:1,-0.19,0.045
00:17:37.412:1,-0.095,0.03
00:17:37.416:1,-0.02,0.0
00:17:37.420:1,0.04,-0.005
00:17:37.424:1,0.1,-0.035
00:17:37.428:1,0.105,-0.05
00:17:37.432:1,0.13,-0.05
00:17:37.436:1,0.11,-0.05
00:17:37.440:1,0.04,-0.105
00:17:37.444:1,0.055,-0.215
00:17:37.448:1,0.22,-0.385
00:17:37.452:1,0.505,-0.61
00:17:37.456:1,0.84,-0.89
00:17:37.460:1,1.085,-1.115
00:17:37.464:1,1.125,-1.14
00:17:37.468:1,0.86,-0.965
00:17:37.472:1,0.395,-0.585
00:17:37.476:1,0.015,-0.205
00:17:37.480:1,-0.185,0.0
00:17:37.484:1,-0.28,0.135
00:17:37.488:1,-0.365,0.2
00:17:37.492:1,-0.385,0.205
00:17:37.496:1,-0.415,0.195
00:17:37.500:1,-0.425,0.18
00:17:37.504:1,-0.435,0.175
00:17:37.508:1,-0.47,0.18
00:17:37.512:1,-0.48,0.13
00:17:37.516:1,-0.46,0.14
00:17:37.520:1,-0.47,0.12
00:17:37.524:1,-0.45,0.095
00:17:37.528:1,-0.45,0.135
00:17:37.532:1,-0.445,0.13
00:17:37.536:1,-0.45,0.145
00:17:37.540:1,-0.455,0.125
00:17:37.544:1,-0.465,0.14
00:17:37.548:1,-0.465,0.15
00:17:37.552:1,-0.47,0.14
00:17:37.556:1,-0.465,0.15
00:17:37.560:1,-0.47,0.13
00:17:37.564:1,-0.47,0.13
00:17:37.568:1,-0.475,0.155
00:17:37.572:1,-0.505,0.145
00:17:37.576:1,-0.49,0.12
00:17:37.580:1,-0.5,0.14
00:17:37.584:1,-0.525,0.125
00:17:37.588:1,-0.505,0.12
00:17:37.592:1,-0.515,0.11
00:17:37.596:1,-0.52,0.12
00:17:37.600:1,-0.52,0.13
00:17:37.604:1,-0.535,0.12
00:17:37.608:1,-0.52,0.095
00:17:37.612:1,-0.525,0.12
00:17:37.616:1,-0.53,0.115
00:17:37.620:1,-0.53,0.115
00:17:37.624:1,-0.535,0.11
00:17:37.628:1,-0.51,0.12
00:17:37.632:1,-0.495,0.105
00:17:37.636:1,-0.53,0.105
00:17:37.640:1,-0.505,0.125
00:17:37.644:1,-0.52,0.115
00:17:37.648:1,-0.495,0.115
00:17:37.652:1,-0.465,0.125
00:17:37.656:1,-0.47,0.125
00:17:37.660:1,-0.46,0.115
00:17:37.664:1,-0.465,0.105
00:17:37.668:1,-0.45,0.1
00:17:37.672:1,-0.46,0.1
00:17:37.676:1,-0.45,0.085
00:17:37.680:1,-0.46,0.07
00:17:37.684:1,-0.43,0.06
00:17:37.688:1,-0.42,0.07
00:17:37.692:1,-0.39,0.065
00:17:37.696:1,-0.38,0.065
00:17:37.700:1,-0.38,0.04
00:17:37.704:1,-0.36,0.02
00:17:37.708:1,-0.36,0.04
00:17:37.712:1,-0.36,0.04
00:17:37.716:1,-0.31,0.03
00:17:37.720:1,-0.315,0.03
00:17:37.724:1,-0.3,0.01
00:17:37.728:1,-0.29,0.02
00:17:37.732:1,-0.275,0.01
00:17:37.736:1,-0.28,0.035
00:17:37.740:1,-0.275,0.045
00:17:37.744:1,-0.27,0.04
00:17:37.748:1,-0.25,0.03
00:17:37.752:1,-0.23,0.05
00:17:37.756:1,-0.24,0.05
00:17:37.760:1,-0.25,0.025
00:17:37.764:1,-0.25,0.04
00:17:37.768:1,-0.26,0.045
00:17:37.772:1,-0.25,0.03
00:17:37.776:1,-0.285,0.055
00:17:37.780:1,-0.29,0.055
00:17:37.784:1,-0.29,0.045
00:17:37.788:1,-0.275,0.045
00:17:37.792:1,-0.275,0.035
00:17:37.796:1,-0.265,0.06
00:17:37.800:1,-0.265,0.035
00:17:37.804:1,-0.275,0.025
00:17:37.808:1,-0.28,0.03
00:17:37.812:1,-0.27,0.04
00:17:37.816:1,-0.27,0.035
00:17:37.820:1,-0.265,0.035
00:17:37.824:1,-0.265,0.02
00:17:37.828:1,-0.285,0.035
00:17:37.832:1,-0.275,0.035
00:17:37.836:1,-0.26,0.04
00:17:37.840:1,-0.23,0.03
00:17:37.844:1,-0.225,0.02
00:17:37.848:1,-0.23,0.01
00:17:37.852:1,-0.22,0.025
00:17:37.856:1,-0.215,0.025
00:17:37.860:1,-0.21,0.035
00:17:37.864:1,-0.19,0.035
00:17:37.868:1,-0.14,0.055
00:17:37.872:1,-0.095,0.05
00:17:37.876:1,-0.055,0.06
00:17:37.880:1,-0.045,0.065
00:17:37.884:1,-0.025,0.07
00:17:37.888:1,-0.025,0.07
00:17:37.892:1,-0.005,0.08
00:17:37.896:1,0.01,0.055
00:17:37.900:1,0.045,0.02
00:17:37.904:1,0.005,-0.005
00:17:37.908:1,-0.075,-0.05
00:17:37.912:1,-0.115,-0.035
00:17:37.916:1,-0.16,-0.035
00:17:37.920:1,-0.185,-0.025
00:17:37.924:1,-0.245,-0.04
00:17:37.928:1,-0.29,-0.04
00:17:37.932:1,-0.335,-0.01
00:17:37.936:1,-0.345,-0.02
00:17:37.940:1,-0.36,-0.015
00:17:37.944:1,-0.345,-0.025
00:17:37.948:1,-0.33,-0.025
00:17:37.952:1,-0.345,-0.035
00:17:37.956:1,-0.32,-0.02
00:17:37.960:1,-0.335,-0.04
00:17:37.964:1,-0.325,-0.03
00:17:37.968:1,-0.32,-0.015
00:17:37.972:1,-0.315,-0.035
00:17:37.976:1,-0.31,-0.04
00:17:37.980:1,-0.305,-0.035
00:17:37.984:1,-0.32,-0.025
00:17:37.988:1,-0.33,-0.05
00:17:37.992:1,-0.32,-0.04
00:17:37.996:1,-0.33,-0.04
00:17:38.000:1,-0.33,-0.07
00:17:38.004:1,-0.305,-0.045
00:17:38.008:1,-0.32,-0.06
00:17:38.012:1,-0.31,-0.08
00:17:38.016:1,-0.315,-0.065
00:17:38.020:1,-0.315,-0.07
00:17:38.024:1,-0.32,-0.07
00:17:38.028:1,-0.3,-0.06
00:17:38.032:1,-0.295,-0.06
00:17:38.036:1,-0.29,-0.06
00:17:38.040:1,-0.24,-0.09
00:17:38.044:1,-0.175,-0.075
00:17:38.048:1,-0.085,-0.075
00:17:38.052:1,0.015,-0.06
00:17:38.056:1,0.115,-0.09
00:17:38.060:1,0.16,-0.13
00:17:38.064:1,0.21,-0.165
00:17:38.068:1,0.255,-0.155
00:17:38.072:1,0.25,-0.12
00:17:38.076:1,0.22,-0.155
00:17:38.080:1,0.18,-0.205
00:17:38.084:1,0.265,-0.3
00:17:38.088:1,0.535,-0.515
00:17:38.092:1,0.835,-0.8
00:17:38.096:1,1.12,-1.04
00:17:38.100:1,1.19,-1.18
00:17:38.104:1,0.985,-1.085
00:17:38.108:1,0.525,-0.79
00:17:38.112:1,0.13,-0.405
00:17:38.116:1,-0.08,-0.195
00:17:38.120:1,-0.195,-0.06
00:17:38.124:1,-0.255,0.025
00:17:38.128:1,-0.29,0.06
00:17:38.132:1,-0.345,0.085
00:17:38.136:1,-0.375,0.08
00:17:38.140:1,-0.41,0.09
00:17:38.144:1,-0.45,0.08
00:17:38.148:1,-0.445,0.05
00:17:38.152:1,-0.43,0.035
00:17:38.156:1,-0.415,0.02
00:17:38.160:1,-0.435,0.03
00:17:38.164:1,-0.44,0.04
00:17:38.168:1,-0.445,0.035
00:17:38.172:1,-0.435,0.025
00:17:38.176:1,-0.455,0.03
00:17:38.180:1,-0.45,0.05
00:17:38.184:1,-0.46,0.065
00:17:38.188:1,-0.445,0.035
00:17:38.192:1,-0.475,0.045
00:17:38.196:1,-0.465,0.045
00:17:38.200:1,-0.475,0.03
00:17:38.204:1,-0.505,0.035
00:17:38.208:1,-0.48,0.045
00:17:38.212:1,-0.495,0.045
00:17:38.216:1,-0.505,0.045
00:17:38.220:1,-0.495,0.045
00:17:38.224:1,-0.505,0.04
00:17:38.228:1,-0.495,0.045
00:17:38.232:1,-0.515,0.025
00:17:38.236:1,-0.53,0.025
00:17:38.240:1,-0.53,0.01
00:17:38.244:1,-0.525,0.035
00:17:38.248:1,-0.515,0.04
00:17:38.252:1,-0.515,0.03
00:17:38.256:1,-0.52,0.045
00:17:38.260:1,-0.485,0.04
00:17:38.264:1,-0.51,0.055
00:17:38.268:1,-0.495,0.04
00:17:38.272:1,-0.495,0.05
00:17:38.276:1,-0.51,0.04
00:17:38.280:1,-0.51,0.06
00:17:38.284:1,-0.495,0.06
00:17:38.288:1,-0.51,0.05
00:17:38.292:1,-0.48,0.065
00:17:38.296:1,-0.475,0.025
00:17:38.300:1,-0.485,0.04
00:17:38.304:1,-0.485,0.05
00:17:38.308:1,-0.48,0.025
00:17:38.312:1,-0.46,0.02
00:17:38.316:1,-0.46,0.03
00:17:38.320:1,-0.435,0.03
00:17:38.324:1,-0.42,0.01
00:17:38.328:1,-0.415,-0.005
00:17:38.332:1,-0.39,0.01
00:17:38.336:1,-0.4,0.01
00:17:38.340:1,-0.39,0.005
00:17:38.344:1,-0.365,0.005
00:17:38.348:1,-0.345,0.01
00:17:38.352:1,-0.32,0.0
00:17:38.356:1,-0.315,-0.01
00:17:38.360:1,-0.295,-0.01
00:17:38.364:1,-0.295,-0.005
00:17:38.368:1,-0.28,0.0
00:17:38.372:1,-0.265,0.0
00:17:38.376:1,-0.265,0.015
00:17:38.380:1,-0.25,-0.005
00:17:38.384:1,-0.24,0.015
00:17:38.388:1,-0.265,0.005
00:17:38.392:1,-0.255,0.005
00:17:38.396:1,-0.255,0.015
00:17:38.400:1,-0.25,0.01
00:17:38.404:1,-0.26,0.005
00:17:38.408:1,-0.28,0.01
00:17:38.412:1,-0.27,0.01
00:17:38.416:1,-0.265,0.0
00:17:38.420:1,-0.29,0.0
00:17:38.424:1,-0.265,-0.015
00:17:38.428:1,-0.245,0.0
00:17:38.432:1,-0.26,0.0
00:17:38.436:1,-0.25,-0.005
00:17:38.440:1,-0.27,0.0
00:17:38.444:1,-0.24,0.02
00:17:38.448:1,-0.275,0.01
00:17:38.452:1,-0.265,0.015
00:17:38.456:1,-0.24,0.01
00:17:38.460:1,-0.26,0.0
00:17:38.464:1,-0.245,-0.005
00:17:38.468:1,-0.245,0.02
00:17:38.472:1,-0.225,0.03
00:17:38.476:1,-0.245,0.01
00:17:38.480:1,-0.21,0.03
00:17:38.484:1,-0.195,0.035
00:17:38.488:1,-0.205,0.015
00:17:38.492:1,-0.19,0.035
00:17:38.496:1,-0.19,0.03
00:17:38.500:1,-0.19,0.04
00:17:38.504:1,-0.16,0.03
00:17:38.508:1,-0.145,0.055
00:17:38.512:1,-0.12,0.05
00:17:38.516:1,-0.06,0.065
00:17:38.520:1,-0.04,0.075
00:17:38.524:1,-0.04,0.06
00:17:38.528:1,-0.015,0.08
00:17:38.532:1,0.01,0.08
00:17:38.536:1,0.02,0.075
00:17:38.540:1,0.015,0.035
00:17:38.544:1,0.0,0.02
00:17:38.548:1,-0.06,0.005
00:17:38.552:1,-0.105,-0.005
00:17:38.556:1,-0.155,0.005
00:17:38.560:1,-0.22,-0.02
00:17:38.564:1,-0.265,-0.015
00:17:38.568:1,-0.29,0.0
00:17:38.572:1,-0.34,0.005
00:17:38.576:1,-0.355,0.015
00:17:38.580:1,-0.38,0.02
00:17:38.584:1,-0.37,0.035
00:17:38.588:1,-0.365,0.05
00:17:38.592:1,-0.35,0.025
00:17:38.596:1,-0.355,-0.005
00:17:38.600:1,-0.35,0.005
00:17:38.604:1,-0.345,-0.005
00:17:38.608:1,-0.365,0.005
00:17:38.612:1,-0.35,-0.005
00:17:38.616:1,-0.365,0.015
00:17:38.620:1,-0.37,0.005
00:17:38.624:1,-0.36,0.0
00:17:38.628:1,-0.35,0.0
00:17:38.632:1,-0.37,0.0
00:17:38.636:1,-0.35,0.0
00:17:38.640:1,-0.365,-0.02
00:17:38.644:1,-0.34,-0.035
00:17:38.648:1,-0.37,-0.02
00:17:38.652:1,-0.365,-0.02
00:17:38.656:1,-0.34,-0.02
00:17:38.660:1,-0.355,-0.025
00:17:38.664:1,-0.375,-0.02
00:17:38.668:1,-0.34,-0.01
00:17:38.672:1,-0.325,-0.035
00:17:38.676:1,-0.315,-0.025
00:17:38.680:1,-0.265,-0.02
00:17:38.684:1,-0.235,-0.01
00:17:38.688:1,-0.15,-0.02
00:17:38.692:1,-0.07,-0.01
00:17:38.696:1,0.0,-0.04
00:17:38.700:1,0.065,-0.05
00:17:38.704:1,0.105,-0.095
00:17:38.708:1,0.125,-0.09
00:17:38.712:1,0.12,-0.095
00:17:38.716:1,0.1,-0.105
00:17:38.720:1,0.045,-0.2
00:17:38.724:1,0.105,-0.305
00:17:38.728:1,0.295,-0.49
00:17:38.732:1,0.61,-0.72
00:17:38.736:1,0.96,-1.015
00:17:38.740:1,1.09,-1.18
00:17:38.744:1,1.03,-1.15
00:17:38.748:1,0.68,-0.88
00:17:38.752:1,0.215,-0.48
00:17:38.756:1,-0.105,-0.17
00:17:38.760:1,-0.275,0.0
00:17:38.764:1,-0.355,0.135
00:17:38.768:1,-0.395,0.15
00:17:38.772:1,-0.4,0.18
00:17:38.776:1,-0.435,0.17
00:17:38.780:1,-0.455,0.16
00:17:38.784:1,-0.45,0.155
00:17:38.788:1,-0.465,0.165
00:17:38.792:1,-0.495,0.135
00:17:38.796:1,-0.485,0.13
00:17:38.800:1,-0.485,0.105
00:17:38.804:1,-0.475,0.09
00:17:38.808:1,-0.5,0.1
00:17:38.812:1,-0.5,0.12
00:17:38.816:1,-0.51,0.105
00:17:38.820:1,-0.5,0.12
00:17:38.824:1,-0.51,0.115
00:17:38.828:1,-0.525,0.11
00:17:38.832:1,-0.54,0.105
00:17:38.836:1,-0.53,0.1
00:17:38.840:1,-0.535,0.115
00:17:38.844:1,-0.545,0.11
00:17:38.848:1,-0.53,0.08
00:17:38.852:1,-0.54,0.105
00:17:38.856:1,-0.545,0.1
00:17:38.860:1,-0.555,0.105
00:17:38.864:1,-0.565,0.1
00:17:38.868:1,-0.55,0.105
00:17:38.872:1,-0.59,0.12
00:17:38.876:1,-0.56,0.105
00:17:38.880:1,-0.575,0.115
00:17:38.884:1,-0.575,0.125
00:17:38.888:1,-0.59,0.1
00:17:38.892:1,-0.56,0.09
00:17:38.896:1,-0.575,0.095
00:17:38.900:1,-0.575,0.1
00:17:38.904:1,-0.575,0.11
00:17:38.908:1,-0.56,0.105
00:17:38.912:1,-0.56,0.12
00:17:38.916:1,-0.55,0.11
00:17:38.920:1,-0.54,0.095
00:17:38.924:1,-0.53,0.1
00:17:38.928:1,-0.54,0.12
00:17:38.932:1,-0.525,0.12
00:17:38.936:1,-0.51,0.095
00:17:38.940:1,-0.52,0.09
00:17:38.944:1,-0.53,0.11
00:17:38.948:1,-0.515,0.09
00:17:38.952:1,-0.495,0.085
00:17:38.956:1,-0.475,0.075
00:17:38.960:1,-0.455,0.065
00:17:38.964:1,-0.44,0.055
00:17:38.968:1,-0.455,0.065
00:17:38.972:1,-0.435,0.075
00:17:38.976:1,-0.42,0.07
00:17:38.980:1,-0.39,0.065
00:17:38.984:1,-0.39,0.05
00:17:38.988:1,-0.39,0.04
00:17:38.992:1,-0.365,0.025
00:17:38.996:1,-0.345,0.04
00:17:39.000:1,-0.315,0.04
00:17:39.004:1,-0.305,0.035
00:17:39.008:1,-0.3,0.045
00:17:39.012:1,-0.3,0.05
00:17:39.016:1,-0.28,0.07
00:17:39.020:1,-0.29,0.075
00:17:39.024:1,-0.28,0.06
00:17:39.028:1,-0.27,0.065
00:17:39.032:1,-0.265,0.05
00:17:39.036:1,-0.24,0.045
00:17:39.040:1,-0.265,0.03
00:17:39.044:1,-0.265,0.035
00:17:39.048:1,-0.275,0.05
00:17:39.052:1,-0.265,0.045
00:17:39.056:1,-0.28,0.06
00:17:39.060:1,-0.255,0.05
00:17:39.064:1,-0.25,0.045
00:17:39.068:1,-0.255,0.05
00:17:39.072:1,-0.27,0.055
00:17:39.076:1,-0.26,0.06
00:17:39.080:1,-0.27,0.055
00:17:39.084:1,-0.255,0.05
00:17:39.088:1,-0.26,0.05
00:17:39.092:1,-0.28,0.045
00:17:39.096:1,-0.265,0.04
00:17:39.100:1,-0.26,0.065
00:17:39.104:1,-0.245,0.045
00:17:39.108:1,-0.25,0.07
00:17:39.112:1,-0.24,0.05
00:17:39.116:1,-0.24,0.045
00:17:39.120:1,-0.23,0.05
00:17:39.124:1,-0.2,0.05
00:17:39.128:1,-0.21,0.065
00:17:39.132:1,-0.185,0.055
00:17:39.136:1,-0.19,0.055
00:17:39.140:1,-0.185,0.06
00:17:39.144:1,-0.155,0.06
00:17:39.148:1,-0.125,0.07
00:17:39.152:1,-0.085,0.08
00:17:39.156:1,-0.07,0.095
00:17:39.160:1,-0.06,0.105
00:17:39.164:1,-0.03,0.11
00:17:39.168:1,0.0,0.11
00:17:39.172:1,0.0,0.115
00:17:39.176:1,0.015,0.08
00:17:39.180:1,0.025,0.045
00:17:39.184:1,0.0,0.03
00:17:39.188:1,-0.055,0.005
00:17:39.192:1,-0.115,0.0
00:17:39.196:1,-0.16,0.005
00:17:39.200:1,-0.205,0.02
00:17:39.204:1,-0.245,0.01
00:17:39.208:1,-0.275,0.02
00:17:39.212:1,-0.31,0.03
00:17:39.216:1,-0.33,0.05
00:17:39.220:1,-0.355,0.045
00:17:39.224:1,-0.355,0.03
00:17:39.228:1,-0.345,0.025
00:17:39.232:1,-0.34,0.03
00:17:39.236:1,-0.33,0.02
00:17:39.240:1,-0.345,0.03
00:17:39.244:1,-0.345,0.0
00:17:39.248:1,-0.35,-0.02
00:17:39.252:1,-0.35,0.0
00:17:39.256:1,-0.355,0.0
00:17:39.260:1,-0.33,-0.01
00:17:39.264:1,-0.325,-0.025
00:17:39.268:1,-0.335,-0.02
00:17:39.272:1,-0.36,0.0
00:17:39.276:1,-0.37,-0.025
00:17:39.280:1,-0.375,-0.02
00:17:39.284:1,-0.345,-0.03
00:17:39.288:1,-0.335,-0.025
00:17:39.292:1,-0.34,-0.03
00:17:39.296:1,-0.32,-0.02
00:17:39.300:1,-0.33,-0.06
00:17:39.304:1,-0.34,-0.025
00:17:39.308:1,-0.315,-0.05
00:17:39.312:1,-0.3,-0.03
00:17:39.316:1,-0.28,-0.035
00:17:39.320:1,-0.255,-0.055
00:17:39.324:1,-0.23,-0.035
00:17:39.328:1,-0.17,-0.025
00:17:39.332:1,-0.09,-0.04
00:17:39.336:1,0.02,-0.07
00:17:39.340:1,0.085,-0.075
00:17:39.344:1,0.135,-0.1
00:17:39.348:1,0.16,-0.11
00:17:39.352:1,0.17,-0.12
00:17:39.356:1,0.15,-0.12
00:17:39.360:1,0.095,-0.16
00:17:39.364:1,0.095,-0.255
00:17:39.368:1,0.24,-0.395
00:17:39.372:1,0.525,-0.625
00:17:39.376:1,0.83,-0.91
00:17:39.380:1,1.1,-1.13
00:17:39.384:1,1.13,-1.19
00:17:39.388:1,0.855,-1.045
00:17:39.392:1,0.435,-0.675
00:17:39.396:1,0.045,-0.32
00:17:39.400:1,-0.135,-0.085
00:17:39.404:1,-0.24,0.025
00:17:39.408:1,-0.305,0.095
00:17:39.412:1,-0.355,0.09
00:17:39.416:1,-0.36,0.105
00:17:39.420:1,-0.405,0.1
00:17:39.424:1,-0.43,0.085
00:17:39.428:1,-0.43,0.045
00:17:39.432:1,-0.45,0.06
00:17:39.436:1,-0.475,0.04
00:17:39.440:1,-0.48,0.0
00:17:39.444:1,-0.48,0.005
00:17:39.448:1,-0.49,0.0
00:17:39.452:1,-0.495,0.02
00:17:39.456:1,-0.48,0.0
00:17:39.460:1,-0.495,0.015
00:17:39.464:1,-0.505,0.0
00:17:39.468:1,-0.5,-0.015
00:17:39.472:1,-0.505,-0.025
00:17:39.476:1,-0.515,-0.01
00:17:39.480:1,-0.525,-0.03
00:17:39.484:1,-0.52,-0.015
00:17:39.488:1,-0.53,-0.025
00:17:39.492:1,-0.54,-0.045
00:17:39.496:1,-0.54,-0.04
00:17:39.500:1,-0.54,-0.05
00:17:39.504:1,-0.54,-0.06
00:17:39.508:1,-0.555,-0.03
00:17:39.512:1,-0.535,-0.04
00:17:39.516:1,-0.54,-0.04
00:17:39.520:1,-0.565,-0.065
00:17:39.524:1,-0.585,-0.045
00:17:39.528:1,-0.56,-0.045
00:17:39.532:1,-0.59,-0.05
00:17:39.536:1,-0.58,-0.055
00:17:39.540:1,-0.56,-0.05
00:17:39.544:1,-0.57,-0.05
00:17:39.548:1,-0.565,-0.05
00:17:39.552:1,-0.555,-0.055
00:17:39.556:1,-0.55,-0.04
00:17:39.560:1,-0.54,-0.04
00:17:39.564:1,-0.535,-0.045
00:17:39.568:1,-0.54,-0.07
00:17:39.572:1,-0.55,-0.04
00:17:39.576:1,-0.54,-0.055
00:17:39.580:1,-0.545,-0.055
00:17:39.584:1,-0.52,-0.075
00:17:39.588:1,-0.49,-0.06
00:17:39.592:1,-0.505,-0.08
00:17:39.596:1,-0.475,-0.095
00:17:39.600:1,-0.485,-0.085
00:17:39.604:1,-0.475,-0.095
00:17:39.608:1,-0.47,-0.13
00:17:39.612:1,-0.44,-0.12
00:17:39.616:1,-0.425,-0.125
00:17:39.620:1,-0.425,-0.13
00:17:39.624:1,-0.425,-0.13
00:17:39.628:1,-0.395,-0.13
00:17:39.632:1,-0.37,-0.135
00:17:39.636:1,-0.365,-0.14
00:17:39.640:1,-0.34,-0.14
00:17:39.644:1,-0.33,-0.13
00:17:39.648:1,-0.31,-0.145
00:17:39.652:1,-0.315,-0.15
00:17:39.656:1,-0.325,-0.145
00:17:39.660:1,-0.335,-0.175
00:17:39.664:1,-0.34,-0.135
00:17:39.668:1,-0.32,-0.135
00:17:39.672:1,-0.32,-0.16
00:17:39.676:1,-0.32,-0.145
00:17:39.680:1,-0.315,-0.165
00:17:39.684:1,-0.335,-0.175
00:17:39.688:1,-0.3,-0.15
00:17:39.692:1,-0.315,-0.17
00:17:39.696:1,-0.305,-0.155
00:17:39.700:1,-0.33,-0.185
00:17:39.704:1,-0.32,-0.185
00:17:39.708:1,-0.335,-0.195
00:17:39.712:1,-0.325,-0.195
00:17:39.716:1,-0.325,-0.155
00:17:39.720:1,-0.315,-0.165
00:17:39.724:1,-0.35,-0.18
00:17:39.728:1,-0.335,-0.16
00:17:39.732:1,-0.325,-0.16
00:17:39.736:1,-0.32,-0.17
00:17:39.740:1,-0.315,-0.165
00:17:39.744:1,-0.3,-0.185
00:17:39.748:1,-0.34,-0.185
00:17:39.752:1,-0.335,-0.165
00:17:39.756:1,-0.35,-0.17
00:17:39.760:1,-0.36,-0.165
00:17:39.764:1,-0.34,-0.19
00:17:39.768:1,-0.325,-0.19
00:17:39.772:1,-0.29,-0.195
00:17:39.776:1,-0.29,-0.2
00:17:39.780:1,-0.295,-0.22
00:17:39.784:1,-0.285,-0.225
00:17:39.788:1,-0.3,-0.225
00:17:39.792:1,-0.295,-0.23
00:17:39.796:1,-0.295,-0.22
00:17:39.800:1,-0.27,-0.21
00:17:39.804:1,-0.21,-0.205
00:17:39.808:1,-0.175,-0.21
00:17:39.812:1,-0.14,-0.175
00:17:39.816:1,-0.095,-0.155
00:17:39.820:1,-0.09,-0.175
00:17:39.824:1,-0.055,-0.185
00:17:39.828:1,-0.03,-0.175
00:17:39.832:1,-0.005,-0.18
00:17:39.836:1,-0.005,-0.195
00:17:39.840:1,-0.035,-0.225
00:17:39.844:1,-0.095,-0.25
00:17:39.848:1,-0.13,-0.265
00:17:39.852:1,-0.18,-0.26
00:17:39.856:1,-0.22,-0.275
00:17:39.860:1,-0.28,-0.25
00:17:39.864:1,-0.34,-0.25
00:17:39.868:1,-0.375,-0.245
00:17:39.872:1,-0.395,-0.245
00:17:39.876:1,-0.395,-0.235
00:17:39.880:1,-0.395,-0.235
00:17:39.884:1,-0.405,-0.235
00:17:39.888:1,-0.41,-0.275
00:17:39.892:1,-0.43,-0.28
00:17:39.896:1,-0.41,-0.28
00:17:39.900:1,-0.395,-0.285
00:17:39.904:1,-0.37,-0.28
00:17:39.908:1,-0.37,-0.3
00:17:39.912:1,-0.37,-0.295
00:17:39.916:1,-0.345,-0.295
00:17:39.920:1,-0.355,-0.275
00:17:39.924:1,-0.37,-0.29
00:17:39.928:1,-0.355,-0.285
00:17:39.932:1,-0.365,-0.295
00:17:39.936:1,-0.375,-0.28
00:17:39.940:1,-0.36,-0.28
00:17:39.944:1,-0.36,-0.28
00:17:39.948:1,-0.33,-0.28
00:17:39.952:1,-0.335,-0.29
00:17:39.956:1,-0.325,-0.27
00:17:39.960:1,-0.33,-0.26
00:17:39.964:1,-0.325,-0.275
00:17:39.968:1,-0.33,-0.27
00:17:39.972:1,-0.315,-0.265
00:17:39.976:1,-0.275,-0.265
00:17:39.980:1,-0.255,-0.255
00:17:39.984:1,-0.165,-0.28
00:17:39.988:1,-0.1,-0.27
00:17:39.992:1,-0.005,-0.27
00:17:39.996:1,0.08,-0.3
00:17:40.000:1,0.14,-0.33
00:17:40.004:1,0.18,-0.34
00:17:40.008:1,0.24,-0.345
00:17:40.012:1,0.24,-0.33
00:17:40.016:1,0.185,-0.4
00:17:40.020:1,0.195,-0.465
00:17:40.024:1,0.315,-0.57
00:17:40.028:1,0.575,-0.78
00:17:40.032:1,0.9,-1.04
00:17:40.036:1,1.135,-1.255
00:17:40.040:1,1.15,-1.295
00:17:40.044:1,0.86,-1.18
00:17:40.048:1,0.42,-0.82
00:17:40.052:1,0.04,-0.495
00:17:40.056:1,-0.15,-0.305
00:17:40.060:1,-0.215,-0.18
00:17:40.064:1,-0.285,-0.08
00:17:40.068:1,-0.32,-0.05
00:17:40.072:1,-0.34,-0.035
00:17:40.076:1,-0.39,-0.02
00:17:40.080:1,-0.42,-0.025
00:17:40.084:1,-0.42,-0.055
00:17:40.088:1,-0.43,-0.065
00:17:40.092:1,-0.46,-0.07
00:17:40.096:1,-0.465,-0.075
00:17:40.100:1,-0.48,-0.08
00:17:40.104:1,-0.475,-0.06
00:17:40.108:1,-0.475,-0.075
00:17:40.112:1,-0.51,-0.08
00:17:40.116:1,-0.505,-0.065
00:17:40.120:1,-0.495,-0.075
00:17:40.124:1,-0.49,-0.075
00:17:40.128:1,-0.5,-0.065
00:17:40.132:1,-0.515,-0.075
00:17:40.136:1,-0.52,-0.08
00:17:40.140:1,-0.505,-0.06
00:17:40.144:1,-0.525,-0.06
00:17:40.148:1,-0.51,-0.05
00:17:40.152:1,-0.52,-0.025
00:17:40.156:1,-0.525,-0.035
00:17:40.160:1,-0.51,-0.03
00:17:40.164:1,-0.51,-0.045
00:17:40.168:1,-0.515,-0.035
00:17:40.172:1,-0.54,-0.03
00:17:40.176:1,-0.525,-0.01
00:17:40.180:1,-0.525,-0.015
00:17:40.184:1,-0.515,-0.005
00:17:40.188:1,-0.525,-0.02
00:17:40.192:1,-0.545,-0.01
00:17:40.196:1,-0.545,-0.025
00:17:40.200:1,-0.555,-0.005
00:17:40.204:1,-0.55,0.0
00:17:40.208:1,-0.545,0.01
00:17:40.212:1,-0.56,-0.005
00:17:40.216:1,-0.545,-0.005
00:17:40.220:1,-0.56,-0.01
00:17:40.224:1,-0.525,0.005
00:17:40.228:1,-0.525,-0.025
00:17:40.232:1,-0.535,-0.03
00:17:40.236:1,-0.52,-0.025
00:17:40.240:1,-0.5,-0.025
00:17:40.244:1,-0.505,-0.03
00:17:40.248:1,-0.49,-0.045
00:17:40.252:1,-0.485,-0.04
00:17:40.256:1,-0.475,-0.045
00:17:40.260:1,-0.465,-0.045
00:17:40.264:1,-0.435,-0.055
00:17:40.268:1,-0.43,-0.05
00:17:40.272:1,-0.42,-0.055
00:17:40.276:1,-0.375,-0.07
00:17:40.280:1,-0.4,-0.06
00:17:40.284:1,-0.37,-0.075
00:17:40.288:1,-0.365,-0.065
00:17:40.292:1,-0.365,-0.08
00:17:40.296:1,-0.35,-0.07
00:17:40.300:1,-0.355,-0.065
00:17:40.304:1,-0.35,-0.07
00:17:40.308:1,-0.33,-0.06
00:17:40.312:1,-0.31,-0.065
00:17:40.316:1,-0.325,-0.06
00:17:40.320:1,-0.325,-0.085
00:17:40.324:1,-0.315,-0.065
00:17:40.328:1,-0.295,-0.075
00:17:40.332:1,-0.32,-0.07
00:17:40.336:1,-0.32,-0.085
00:17:40.340:1,-0.315,-0.085
00:17:40.344:1,-0.315,-0.085
00:17:40.348:1,-0.31,-0.07
00:17:40.352:1,-0.285,-0.08
00:17:40.356:1,-0.31,-0.085
00:17:40.360:1,-0.29,-0.04
00:17:40.364:1,-0.295,-0.045
00:17:40.368:1,-0.29,-0.06
00:17:40.372:1,-0.295,-0.065
00:17:40.376:1,-0.285,-0.05
00:17:40.380:1,-0.28,-0.055
00:17:40.384:1,-0.27,-0.04
00:17:40.388:1,-0.275,-0.035
00:17:40.392:1,-0.285,-0.04
00:17:40.396:1,-0.295,-0.025
00:17:40.400:1,-0.295,-0.035
00:17:40.404:1,-0.3,-0.03
00:17:40.408:1,-0.305,-0.05
00:17:40.412:1,-0.305,-0.06
00:17:40.416:1,-0.31,-0.025
00:17:40.420:1,-0.29,-0.03
00:17:40.424:1,-0.31,-0.06
00:17:40.428:1,-0.28,-0.05
00:17:40.432:1,-0.28,-0.055
00:17:40.436:1,-0.26,-0.06
00:17:40.440:1,-0.27,-0.09
00:17:40.444:1,-0.26,-0.07
00:17:40.448:1,-0.245,-0.065
00:17:40.452:1,-0.195,-0.055
00:17:40.456:1,-0.16,-0.035
00:17:40.460:1,-0.125,-0.035
00:17:40.464:1,-0.105,-0.01
00:17:40.468:1,-0.085,-0.005
00:17:40.472:1,-0.07,0.005
00:17:40.476:1,-0.025,0.0
00:17:40.480:1,-0.015,0.0
00:17:40.484:1,-0.02,-0.025
00:17:40.488:1,-0.05,-0.06
00:17:40.492:1,-0.11,-0.07
00:17:40.496:1,-0.16,-0.075
00:17:40.500:1,-0.195,-0.065
00:17:40.504:1,-0.265,-0.07
00:17:40.508:1,-0.3,-0.06
00:17:40.512:1,-0.365,-0.08
00:17:40.516:1,-0.4,-0.055
00:17:40.520:1,-0.43,-0.055
00:17:40.524:1,-0.445,-0.045
00:17:40.528:1,-0.45,-0.04
00:17:40.532:1,-0.445,-0.07
00:17:40.536:1,-0.45,-0.085
00:17:40.540:1,-0.45,-0.09
00:17:40.544:1,-0.445,-0.11
00:17:40.548:1,-0.445,-0.095
00:17:40.552:1,-0.435,-0.09
00:17:40.556:1,-0.44,-0.105
00:17:40.560:1,-0.43,-0.115
00:17:40.564:1,-0.41,-0.105
00:17:40.568:1,-0.425,-0.09
00:17:40.572:1,-0.42,-0.1
00:17:40.576:1,-0.425,-0.09
00:17:40.580:1,-0.41,-0.09
00:17:40.584:1,-0.405,-0.07
00:17:40.588:1,-0.4,-0.085
00:17:40.592:1,-0.395,-0.095
00:17:40.596:1,-0.395,-0.08
00:17:40.600:1,-0.405,-0.095
00:17:40.604:1,-0.38,-0.075
00:17:40.608:1,-0.39,-0.1
00:17:40.612:1,-0.375,-0.085
00:17:40.616:1,-0.395,-0.08
00:17:40.620:1,-0.375,-0.08
00:17:40.624:1,-0.34,-0.125
00:17:40.628:1,-0.31,-0.09
00:17:40.632:1,-0.245,-0.105
00:17:40.636:1,-0.15,-0.115
00:17:40.640:1,-0.045,-0.125
00:17:40.644:1,0.01,-0.155
00:17:40.648:1,0.045,-0.205
00:17:40.652:1,0.075,-0.215
00:17:40.656:1,0.085,-0.2
00:17:40.660:1,0.015,-0.225
00:17:40.664:1,-0.025,-0.3
00:17:40.668:1,0.045,-0.42
00:17:40.672:1,0.26,-0.58
00:17:40.676:1,0.59,-0.845
00:17:40.680:1,0.905,-1.08
00:17:40.684:1,1.085,-1.255
00:17:40.688:1,1.01,-1.24
00:17:40.692:1,0.65,-0.965
00:17:40.696:1,0.18,-0.57
00:17:40.700:1,-0.135,-0.255
00:17:40.704:1,-0.29,-0.08
00:17:40.708:1,-0.365,0.04
00:17:40.712:1,-0.425,0.065
00:17:40.716:1,-0.465,0.085
00:17:40.720:1,-0.48,0.075
00:17:40.724:1,-0.49,0.06
00:17:40.728:1,-0.51,0.055
00:17:40.732:1,-0.56,0.055
00:17:40.736:1,-0.555,0.045
00:17:40.740:1,-0.55,0.005
00:17:40.744:1,-0.55,0.01
00:17:40.748:1,-0.55,0.02
00:17:40.752:1,-0.555,0.02
00:17:40.756:1,-0.55,0.005
00:17:40.760:1,-0.57,0.02
00:17:40.764:1,-0.565,0.03
00:17:40.768:1,-0.58,0.01
00:17:40.772:1,-0.575,0.005
00:17:40.776:1,-0.56,0.01
00:17:40.780:1,-0.565,0.01
00:17:40.784:1,-0.58,0.015
00:17:40.788:1,-0.555,0.005
00:17:40.792:1,-0.565,0.01
00:17:40.796:1,-0.6,0.02
00:17:40.800:1,-0.62,0.02
00:17:40.804:1,-0.615,0.01
00:17:40.808:1,-0.595,0.02
00:17:40.812:1,-0.635,0.0
00:17:40.816:1,-0.635,0.005
00:17:40.820:1,-0.615,0.005
00:17:40.824:1,-0.615,0.025
00:17:40.828:1,-0.64,0.04
00:17:40.832:1,-0.635,0.02
00:17:40.836:1,-0.655,0.03
00:17:40.840:1,-0.665,0.01
00:17:40.844:1,-0.64,0.03
00:17:40.848:1,-0.64,0.015
00:17:40.852:1,-0.655,0.0
00:17:40.856:1,-0.635,0.0
00:17:40.860:1,-0.64,0.0
00:17:40.864:1,-0.64,0.005
00:17:40.868:1,-0.61,-0.03
00:17:40.872:1,-0.61,0.005
00:17:40.876:1,-0.6,-0.01
00:17:40.880:1,-0.61,0.0
00:17:40.884:1,-0.6,-0.015
00:17:40.888:1,-0.565,-0.01
00:17:40.892:1,-0.565,-0.01
00:17:40.896:1,-0.535,-0.015
00:17:40.900:1,-0.525,-0.02
00:17:40.904:1,-0.505,-0.025
00:17:40.908:1,-0.485,-0.03
00:17:40.912:1,-0.49,-0.005
00:17:40.916:1,-0.495,-0.02
00:17:40.920:1,-0.455,-0.035
00:17:40.924:1,-0.445,-0.03
00:17:40.928:1,-0.43,-0.045
00:17:40.932:1,-0.425,-0.04
00:17:40.936:1,-0.405,-0.055
00:17:40.940:1,-0.425,-0.045
00:17:40.944:1,-0.43,-0.045
00:17:40.948:1,-0.4,-0.05
00:17:40.952:1,-0.385,-0.06
00:17:40.956:1,-0.395,-0.04
00:17:40.960:1,-0.375,-0.035
00:17:40.964:1,-0.37,-0.045
00:17:40.968:1,-0.365,-0.055
00:17:40.972:1,-0.36,-0.065
00:17:40.976:1,-0.355,-0.055
00:17:40.980:1,-0.36,-0.05
00:17:40.984:1,-0.33,-0.04
00:17:40.988:1,-0.325,-0.02
00:17:40.992:1,-0.34,-0.01
00:17:40.996:1,-0.33,-0.02
00:17:41.000:1,-0.31,-0.02
00:17:41.004:1,-0.32,-0.01
00:17:41.008:1,-0.315,-0.005
00:17:41.012:1,-0.315,0.005
00:17:41.016:1,-0.31,0.03
00:17:41.020:1,-0.31,0.005
00:17:41.024:1,-0.32,0.01
00:17:41.028:1,-0.32,0.0
00:17:41.032:1,-0.32,0.015
00:17:41.036:1,-0.31,0.005
00:17:41.040:1,-0.32,0.0
00:17:41.044:1,-0.345,0.005
00:17:41.048:1,-0.335,0.0
00:17:41.052:1,-0.33,0.0
00:17:41.056:1,-0.34,0.0
00:17:41.060:1,-0.345,0.005
00:17:41.064:1,-0.3,-0.01
00:17:41.068:1,-0.275,0.0
00:17:41.072:1,-0.275,-0.005
00:17:41.076:1,-0.285,-0.025
00:17:41.080:1,-0.265,0.0
00:17:41.084:1,-0.26,-0.005
00:17:41.088:1,-0.225,0.02
00:17:41.092:1,-0.18,0.015
00:17:41.096:1,-0.135,0.04
00:17:41.100:1,-0.115,0.06
00:17:41.104:1,-0.085,0.065
00:17:41.108:1,-0.05,0.06
00:17:41.112:1,-0.055,0.055
00:17:41.116:1,-0.05,0.05
00:17:41.120:1,-0.06,0.01
00:17:41.124:1,-0.08,0.005
00:17:41.128:1,-0.125,-0.025
00:17:41.132:1,-0.175,-0.025
00:17:41.136:1,-0.225,-0.02
00:17:41.140:1,-0.27,-0.03
00:17:41.144:1,-0.31,-0.05
00:17:41.148:1,-0.38,-0.035
00:17:41.152:1,-0.425,-0.02
00:17:41.156:1,-0.445,-0.01
00:17:41.160:1,-0.45,-0.005
00:17:41.164:1,-0.425,-0.02
00:17:41.168:1,-0.445,-0.03
00:17:41.172:1,-0.43,-0.025
00:17:41.176:1,-0.455,-0.07
00:17:41.180:1,-0.435,-0.045
00:17:41.184:1,-0.425,-0.035
00:17:41.188:1,-0.435,-0.045
00:17:41.192:1,-0.405,-0.055
00:17:41.196:1,-0.43,-0.055
00:17:41.200:1,-0.4,-0.04
00:17:41.204:1,-0.415,-0.04
00:17:41.208:1,-0.4,-0.04
00:17:41.212:1,-0.41,-0.055
00:17:41.216:1,-0.415,-0.045
00:17:41.220:1,-0.395,-0.035
00:17:41.224:1,-0.395,-0.065
00:17:41.228:1,-0.38,-0.045
00:17:41.232:1,-0.395,-0.045
00:17:41.236:1,-0.39,-0.03
00:17:41.240:1,-0.39,-0.04
00:17:41.244:1,-0.39,-0.065
00:17:41.248:1,-0.39,-0.065
00:17:41.252:1,-0.375,-0.045
00:17:41.256:1,-0.385,-0.065
00:17:41.260:1,-0.365,-0.05
00:17:41.264:1,-0.32,-0.055
00:17:41.268:1,-0.24,-0.055
00:17:41.272:1,-0.145,-0.07
00:17:41.276:1,-0.045,-0.095
00:17:41.280:1,-0.005,-0.115
00:17:41.284:1,0.045,-0.17
00:17:41.288:1,0.07,-0.175
00:17:41.292:1,0.065,-0.145
00:17:41.296:1,0.025,-0.17
00:17:41.300:1,-0.025,-0.235
00:17:41.304:1,0.015,-0.345
00:17:41.308:1,0.255,-0.505
00:17:41.312:1,0.555,-0.75
00:17:41.316:1,0.9,-1.01
00:17:41.320:1,1.11,-1.22
00:17:41.324:1,1.095,-1.21
00:17:41.328:1,0.775,-0.965
00:17:41.332:1,0.31,-0.585
00:17:41.336:1,-0.04,-0.235
00:17:41.340:1,-0.235,-0.015
00:17:41.344:1,-0.33,0.085
00:17:41.348:1,-0.385,0.12
00:17:41.352:1,-0.43,0.145
00:17:41.356:1,-0.47,0.125
00:17:41.360:1,-0.495,0.14
00:17:41.364:1,-0.51,0.125
00:17:41.368:1,-0.53,0.1
00:17:41.372:1,-0.525,0.085
00:17:41.376:1,-0.52,0.045
00:17:41.380:1,-0.515,0.03
00:17:41.384:1,-0.525,0.035
00:17:41.388:1,-0.54,0.03
00:17:41.392:1,-0.56,0.01
00:17:41.396:1,-0.565,0.035
00:17:41.400:1,-0.57,0.05
00:17:41.404:1,-0.6,0.045
00:17:41.408:1,-0.575,0.025
00:17:41.412:1,-0.57,0.03
00:17:41.416:1,-0.55,0.035
00:17:41.420:1,-0.535,0.03
00:17:41.424:1,-0.55,0.025
00:17:41.428:1,-0.56,0.015
00:17:41.432:1,-0.58,0.025
00:17:41.436:1,-0.585,0.035
00:17:41.440:1,-0.6,0.015
00:17:41.444:1,-0.61,0.02
00:17:41.448:1,-0.605,0.0
00:17:41.452:1,-0.625,0.01
00:17:41.456:1,-0.61,0.015
00:17:41.460:1,-0.62,0.025
00:17:41.464:1,-0.64,0.0
00:17:41.468:1,-0.64,0.01
00:17:41.472:1,-0.65,-0.005
00:17:41.476:1,-0.625,0.0
00:17:41.480:1,-0.635,0.0
00:17:41.484:1,-0.635,-0.03
00:17:41.488:1,-0.645,-0.035
00:17:41.492:1,-0.62,-0.02
00:17:41.496:1,-0.63,-0.035
00:17:41.500:1,-0.64,-0.02
00:17:41.504:1,-0.64,-0.015
00:17:41.508:1,-0.63,-0.045
00:17:41.512:1,-0.595,-0.06
00:17:41.516:1,-0.58,-0.03
00:17:41.520:1,-0.57,-0.05
00:17:41.524:1,-0.55,-0.06
00:17:41.528:1,-0.555,-0.07
00:17:41.532:1,-0.55,-0.06
00:17:41.536:1,-0.55,-0.06
00:17:41.540:1,-0.55,-0.055
00:17:41.544:1,-0.53,-0.055
00:17:41.548:1,-0.525,-0.08
00:17:41.552:1,-0.49,-0.1
00:17:41.556:1,-0.48,-0.1
00:17:41.560:1,-0.465,-0.09
00:17:41.564:1,-0.465,-0.11
00:17:41.568:1,-0.47,-0.095
00:17:41.572:1,-0.475,-0.11
00:17:41.576:1,-0.47,-0.125
00:17:41.580:1,-0.47,-0.12
00:17:41.584:1,-0.445,-0.15
00:17:41.588:1,-0.425,-0.135
00:17:41.592:1,-0.415,-0.14
00:17:41.596:1,-0.415,-0.14
00:17:41.600:1,-0.405,-0.135
00:17:41.604:1,-0.39,-0.14
00:17:41.608:1,-0.4,-0.145
00:17:41.612:1,-0.41,-0.125
00:17:41.616:1,-0.415,-0.13
00:17:41.620:1,-0.405,-0.12
00:17:41.624:1,-0.38,-0.13
00:17:41.628:1,-0.385,-0.14
00:17:41.632:1,-0.375,-0.105
00:17:41.636:1,-0.375,-0.115
00:17:41.640:1,-0.38,-0.115
00:17:41.644:1,-0.355,-0.115
00:17:41.648:1,-0.37,-0.105
00:17:41.652:1,-0.355,-0.1
00:17:41.656:1,-0.36,-0.125
00:17:41.660:1,-0.385,-0.14
00:17:41.664:1,-0.395,-0.12
00:17:41.668:1,-0.39,-0.135
00:17:41.672:1,-0.415,-0.135
00:17:41.676:1,-0.41,-0.14
00:17:41.680:1,-0.395,-0.14
00:17:41.684:1,-0.4,-0.16
00:17:41.688:1,-0.405,-0.165
00:17:41.692:1,-0.385,-0.17
00:17:41.696:1,-0.385,-0.16
00:17:41.700:1,-0.4,-0.155
00:17:41.704:1,-0.38,-0.185
00:17:41.708:1,-0.38,-0.18
00:17:41.712:1,-0.35,-0.18
00:17:41.716:1,-0.33,-0.195
00:17:41.720:1,-0.33,-0.19
00:17:41.724:1,-0.31,-0.185
00:17:41.728:1,-0.3,-0.19
00:17:41.732:1,-0.275,-0.175
00:17:41.736:1,-0.225,-0.16
00:17:41.740:1,-0.2,-0.16
00:17:41.744:1,-0.185,-0.135
00:17:41.748:1,-0.14,-0.14
00:17:41.752:1,-0.11,-0.145
00:17:41.756:1,-0.09,-0.155
00:17:41.760:1,-0.045,-0.13
00:17:41.764:1,-0.055,-0.15
00:17:41.768:1,-0.08,-0.16
00:17:41.772:1,-0.09,-0.195
00:17:41.776:1,-0.18,-0.21
00:17:41.780:1,-0.25,-0.215
00:17:41.784:1,-0.305,-0.24
00:17:41.788:1,-0.33,-0.235
00:17:41.792:1,-0.365,-0.235
00:17:41.796:1,-0.42,-0.22
00:17:41.800:1,-0.47,-0.24
00:17:41.804:1,-0.5,-0.265
00:17:41.808:1,-0.505,-0.235
00:17:41.812:1,-0.495,-0.245
00:17:41.816:1,-0.5,-0.245
00:17:41.820:1,-0.465,-0.245
00:17:41.824:1,-0.475,-0.23
00:17:41.828:1,-0.455,-0.265
00:17:41.832:1,-0.45,-0.28
00:17:41.836:1,-0.425,-0.275
00:17:41.840:1,-0.425,-0.275
00:17:41.844:1,-0.42,-0.255
00:17:41.848:1,-0.425,-0.25
00:17:41.852:1,-0.445,-0.265
00:17:41.856:1,-0.42,-0.27
00:17:41.860:1,-0.415,-0.27
00:17:41.864:1,-0.43,-0.28
00:17:41.868:1,-0.425,-0.28
00:17:41.872:1,-0.435,-0.275
00:17:41.876:1,-0.445,-0.29
00:17:41.880:1,-0.44,-0.31
00:17:41.884:1,-0.435,-0.29
00:17:41.888:1,-0.44,-0.32
00:17:41.892:1,-0.41,-0.305
00:17:41.896:1,-0.42,-0.31
00:17:41.900:1,-0.39,-0.3
00:17:41.904:1,-0.365,-0.31
00:17:41.908:1,-0.32,-0.3
00:17:41.912:1,-0.3,-0.31
00:17:41.916:1,-0.225,-0.32
00:17:41.920:1,-0.11,-0.32
00:17:41.924:1,-0.035,-0.345
00:17:41.928:1,0.06,-0.37
00:17:41.932:1,0.12,-0.39
00:17:41.936:1,0.19,-0.39
00:17:41.940:1,0.205,-0.36
00:17:41.944:1,0.16,-0.375
00:17:41.948:1,0.135,-0.42
00:17:41.952:1,0.22,-0.515
00:17:41.956:1,0.44,-0.68
00:17:41.960:1,0.745,-0.945
00:17:41.964:1,1.02,-1.205
00:17:41.968:1,1.08,-1.345
00:17:41.972:1,0.87,-1.255
00:17:41.976:1,0.435,-0.975
00:17:41.980:1,0.045,-0.65
00:17:41.984:1,-0.17,-0.42
00:17:41.988:1,-0.31,-0.29
00:17:41.992:1,-0.38,-0.205
00:17:41.996:1,-0.405,-0.17
00:17:42.000:1,-0.445,-0.165
00:17:42.004:1,-0.47,-0.165
00:17:42.008:1,-0.495,-0.175
00:17:42.012:1,-0.51,-0.19
00:17:42.016:1,-0.525,-0.215
00:17:42.020:1,-0.535,-0.22
00:17:42.024:1,-0.555,-0.235
00:17:42.028:1,-0.565,-0.255
00:17:42.032:1,-0.565,-0.235
00:17:42.036:1,-0.555,-0.245
00:17:42.040:1,-0.55,-0.245
00:17:42.044:1,-0.555,-0.24
00:17:42.048:1,-0.565,-0.225
00:17:42.052:1,-0.555,-0.24
00:17:42.056:1,-0.565,-0.225
00:17:42.060:1,-0.55,-0.22
00:17:42.064:1,-0.58,-0.235
00:17:42.068:1,-0.57,-0.23
00:17:42.072:1,-0.585,-0.215
00:17:42.076:1,-0.585,-0.22
00:17:42.080:1,-0.595,-0.245
00:17:42.084:1,-0.61,-0.24
00:17:42.088:1,-0.605,-0.25
00:17:42.092:1,-0.625,-0.225
00:17:42.096:1,-0.625,-0.235
00:17:42.100:1,-0.625,-0.24
00:17:42.104:1,-0.61,-0.28
00:17:42.108:1,-0.61,-0.27
00:17:42.112:1,-0.64,-0.28
00:17:42.116:1,-0.62,-0.25
00:17:42.120:1,-0.62,-0.27
00:17:42.124:1,-0.62,-0.26
00:17:42.128:1,-0.635,-0.27
00:17:42.132:1,-0.61,-0.26
00:17:42.136:1,-0.63,-0.25
00:17:42.140:1,-0.62,-0.25
00:17:42.144:1,-0.61,-0.235
00:17:42.148:1,-0.59,-0.24
00:17:42.152:1,-0.58,-0.235
00:17:42.156:1,-0.565,-0.24
00:17:42.160:1,-0.565,-0.245
00:17:42.164:1,-0.545,-0.25
00:17:42.168:1,-0.545,-0.23
00:17:42.172:1,-0.53,-0.245
00:17:42.176:1,-0.535,-0.24
00:17:42.180:1,-0.52,-0.24
00:17:42.184:1,-0.5,-0.245
00:17:42.188:1,-0.5,-0.26
00:17:42.192:1,-0.515,-0.25
00:17:42.196:1,-0.49,-0.27
00:17:42.200:1,-0.465,-0.27
00:17:42.204:1,-0.455,-0.25
00:17:42.208:1,-0.455,-0.24
00:17:42.212:1,-0.435,-0.245
00:17:42.216:1,-0.425,-0.25
00:17:42.220:1,-0.41,-0.27
00:17:42.224:1,-0.415,-0.255
00:17:42.228:1,-0.395,-0.255
00:17:42.232:1,-0.4,-0.265
00:17:42.236:1,-0.385,-0.245
00:17:42.240:1,-0.38,-0.23
00:17:42.244:1,-0.355,-0.26
00:17:42.248:1,-0.34,-0.245
00:17:42.252:1,-0.35,-0.235
00:17:42.256:1,-0.335,-0.245
00:17:42.260:1,-0.335,-0.22
00:17:42.264:1,-0.315,-0.2
00:17:42.268:1,-0.32,-0.21
00:17:42.272:1,-0.335,-0.18
00:17:42.276:1,-0.315,-0.175
00:17:42.280:1,-0.33,-0.18
00:17:42.284:1,-0.34,-0.185
00:17:42.288:1,-0.345,-0.185
00:17:42.292:1,-0.35,-0.18
00:17:42.296:1,-0.33,-0.17
00:17:42.300:1,-0.345,-0.175
00:17:42.304:1,-0.34,-0.165
00:17:42.308:1,-0.35,-0.175
00:17:42.312:1,-0.35,-0.205
00:17:42.316:1,-0.37,-0.17
00:17:42.320:1,-0.355,-0.17
00:17:42.324:1,-0.355,-0.14
00:17:42.328:1,-0.35,-0.155
00:17:42.332:1,-0.345,-0.18
00:17:42.336:1,-0.375,-0.155
00:17:42.340:1,-0.355,-0.16
00:17:42.344:1,-0.34,-0.16
00:17:42.348:1,-0.32,-0.16
00:17:42.352:1,-0.305,-0.15
00:17:42.356:1,-0.3,-0.165
00:17:42.360:1,-0.27,-0.175
00:17:42.364:1,-0.275,-0.14
00:17:42.368:1,-0.29,-0.15
00:17:42.372:1,-0.265,-0.14
00:17:42.376:1,-0.23,-0.14
00:17:42.380:1,-0.205,-0.13
00:17:42.384:1,-0.145,-0.11
00:17:42.388:1,-0.135,-0.08
00:17:42.392:1,-0.08,-0.095
00:17:42.396:1,-0.06,-0.08
00:17:42.400:1,-0.07,-0.075
00:17:42.404:1,-0.045,-0.08
00:17:42.408:1,-0.05,-0.09
00:17:42.412:1,-0.055,-0.14
00:17:42.416:1,-0.06,-0.14
00:17:42.420:1,-0.145,-0.185
00:17:42.424:1,-0.205,-0.185
00:17:42.428:1,-0.24,-0.175
00:17:42.432:1,-0.31,-0.17
00:17:42.436:1,-0.35,-0.18
00:17:42.440:1,-0.4,-0.16
00:17:42.444:1,-0.42,-0.135
00:17:42.448:1,-0.455,-0.135
00:17:42.452:1,-0.46,-0.165
00:17:42.456:1,-0.455,-0.15
00:17:42.460:1,-0.445,-0.17
00:17:42.464:1,-0.4,-0.16
00:17:42.468:1,-0.415,-0.17
00:17:42.472:1,-0.42,-0.18
00:17:42.476:1,-0.415,-0.18
00:17:42.480:1,-0.415,-0.165
00:17:42.484:1,-0.41,-0.155
00:17:42.488:1,-0.4,-0.17
00:17:42.492:1,-0.385,-0.16
00:17:42.496:1,-0.405,-0.18
00:17:42.500:1,-0.4,-0.16
00:17:42.504:1,-0.405,-0.155
00:17:42.508:1,-0.425,-0.17
00:17:42.512:1,-0.415,-0.18
00:17:42.516:1,-0.42,-0.165
00:17:42.520:1,-0.41,-0.18
00:17:42.524:1,-0.415,-0.185
00:17:42.528:1,-0.405,-0.195
00:17:42.532:1,-0.415,-0.19
00:17:42.536:1,-0.425,-0.2
00:17:42.540:1,-0.405,-0.215
00:17:42.544:1,-0.39,-0.185
00:17:42.548:1,-0.38,-0.18
00:17:42.552:1,-0.365,-0.175
00:17:42.556:1,-0.315,-0.185
00:17:42.560:1,-0.205,-0.185
00:17:42.564:1,-0.115,-0.17
00:17:42.568:1,-0.015,-0.2
00:17:42.572:1,0.04,-0.225
00:17:42.576:1,0.075,-0.27
00:17:42.580:1,0.12,-0.29
00:17:42.584:1,0.115,-0.275
00:17:42.588:1,0.085,-0.285
00:17:42.592:1,0.06,-0.385
00:17:42.596:1,0.13,-0.495
00:17:42.600:1,0.365,-0.69
00:17:42.604:1,0.67,-0.96
00:17:42.608:1,0.96,-1.205
00:17:42.612:1,1.065,-1.355
00:17:42.616:1,0.87,-1.275
00:17:42.620:1,0.445,-1.01
00:17:42.624:1,0.0,-0.6
00:17:42.628:1,-0.265,-0.315
00:17:42.632:1,-0.38,-0.155
00:17:42.636:1,-0.46,-0.05
00:17:42.640:1,-0.485,0.0
00:17:42.644:1,-0.51,0.02
00:17:42.648:1,-0.53,0.005
00:17:42.652:1,-0.545,0.0
00:17:42.656:1,-0.565,0.0
00:17:42.660:1,-0.57,-0.02
00:17:42.664:1,-0.555,-0.02
00:17:42.668:1,-0.56,-0.05
00:17:42.672:1,-0.57,-0.045
00:17:42.676:1,-0.57,-0.045
00:17:42.680:1,-0.565,-0.02
00:17:42.684:1,-0.59,-0.03
00:17:42.688:1,-0.57,-0.02
00:17:42.692:1,-0.565,-0.005
00:17:42.696:1,-0.59,-0.035
00:17:42.700:1,-0.575,-0.03
00:17:42.704:1,-0.585,-0.025
00:17:42.708:1,-0.59,-0.04
00:17:42.712:1,-0.62,-0.015
00:17:42.716:1,-0.625,-0.025
00:17:42.720:1,-0.62,-0.035
00:17:42.724:1,-0.64,-0.02
00:17:42.728:1,-0.64,-0.025
00:17:42.732:1,-0.64,-0.03
00:17:42.736:1,-0.635,-0.03
00:17:42.740:1,-0.625,-0.04
00:17:42.744:1,-0.64,-0.04
00:17:42.748:1,-0.66,-0.02
00:17:42.752:1,-0.67,-0.03
00:17:42.756:1,-0.665,-0.03
00:17:42.760:1,-0.64,-0.035
00:17:42.764:1,-0.65,-0.02
00:17:42.768:1,-0.655,-0.035
00:17:42.772:1,-0.645,-0.02
00:17:42.776:1,-0.635,-0.04
00:17:42.780:1,-0.635,-0.035
00:17:42.784:1,-0.625,-0.025
00:17:42.788:1,-0.625,-0.025
00:17:42.792:1,-0.62,-0.055
00:17:42.796:1,-0.625,-0.035
00:17:42.800:1,-0.615,-0.035
00:17:42.804:1,-0.605,-0.055
00:17:42.808:1,-0.595,-0.05
00:17:42.812:1,-0.575,-0.07
00:17:42.816:1,-0.575,-0.07
00:17:42.820:1,-0.565,-0.04
00:17:42.824:1,-0.565,-0.08
00:17:42.828:1,-0.555,-0.08
00:17:42.832:1,-0.535,-0.08
00:17:42.836:1,-0.535,-0.085
00:17:42.840:1,-0.5,-0.11
00:17:42.844:1,-0.51,-0.08
00:17:42.848:1,-0.505,-0.095
00:17:42.852:1,-0.485,-0.11
00:17:42.856:1,-0.46,-0.12
00:17:42.860:1,-0.455,-0.11
00:17:42.864:1,-0.435,-0.135
00:17:42.868:1,-0.435,-0.11
00:17:42.872:1,-0.415,-0.11
00:17:42.876:1,-0.395,-0.105
00:17:42.880:1,-0.38,-0.09
00:17:42.884:1,-0.38,-0.1
00:17:42.888:1,-0.375,-0.1
00:17:42.892:1,-0.38,-0.1
00:17:42.896:1,-0.365,-0.085
00:17:42.900:1,-0.36,-0.095
00:17:42.904:1,-0.365,-0.095
00:17:42.908:1,-0.375,-0.095
00:17:42.912:1,-0.36,-0.095
00:17:42.916:1,-0.34,-0.09
00:17:42.920:1,-0.35,-0.08
00:17:42.924:1,-0.37,-0.08
00:17:42.928:1,-0.365,-0.065
00:17:42.932:1,-0.36,-0.06
00:17:42.936:1,-0.365,-0.05
00:17:42.940:1,-0.355,-0.055
00:17:42.944:1,-0.35,-0.085
00:17:42.948:1,-0.36,-0.07
00:17:42.952:1,-0.36,-0.065
00:17:42.956:1,-0.35,-0.07
00:17:42.960:1,-0.35,-0.065
00:17:42.964:1,-0.355,-0.05
00:17:42.968:1,-0.355,-0.06
00:17:42.972:1,-0.365,-0.055
00:17:42.976:1,-0.33,-0.055
00:17:42.980:1,-0.3,-0.05
00:17:42.984:1,-0.275,-0.025
00:17:42.988:1,-0.285,-0.03
00:17:42.992:1,-0.28,-0.04
00:17:42.996:1,-0.27,-0.025
00:17:43.000:1,-0.25,-0.025
00:17:43.004:1,-0.195,-0.02
00:17:43.008:1,-0.14,-0.015
00:17:43.012:1,-0.12,0.01
00:17:43.016:1,-0.1,0.02
00:17:43.020:1,-0.07,0.015
00:17:43.024:1,-0.06,0.035
00:17:43.028:1,-0.05,0.035
00:17:43.032:1,-0.045,0.02
00:17:43.036:1,-0.045,-0.01
00:17:43.040:1,-0.08,-0.025
00:17:43.044:1,-0.12,-0.075
00:17:43.048:1,-0.165,-0.085
00:17:43.052:1,-0.22,-0.07
00:17:43.056:1,-0.28,-0.095
00:17:43.060:1,-0.31,-0.07
00:17:43.064:1,-0.37,-0.075
00:17:43.068:1,-0.41,-0.065
00:17:43.072:1,-0.425,-0.045
00:17:43.076:1,-0.435,-0.025
00:17:43.080:1,-0.445,-0.055
00:17:43.084:1,-0.425,-0.06
00:17:43.088:1,-0.39,-0.065
00:17:43.092:1,-0.405,-0.055
00:17:43.096:1,-0.4,-0.075
00:17:43.100:1,-0.38,-0.07
00:17:43.104:1,-0.37,-0.065
00:17:43.108:1,-0.38,-0.06
00:17:43.112:1,-0.375,-0.07
00:17:43.116:1,-0.395,-0.08
00:17:43.120:1,-0.385,-0.08
00:17:43.124:1,-0.375,-0.065
00:17:43.128:1,-0.38,-0.085
00:17:43.132:1,-0.415,-0.065
00:17:43.136:1,-0.4,-0.075
00:17:43.140:1,-0.405,-0.09
00:17:43.144:1,-0.4,-0.08
00:17:43.148:1,-0.415,-0.085
00:17:43.152:1,-0.4,-0.085
00:17:43.156:1,-0.38,-0.105
00:17:43.160:1,-0.385,-0.12
00:17:43.164:1,-0.385,-0.11
00:17:43.168:1,-0.395,-0.125
00:17:43.172:1,-0.36,-0.115
00:17:43.176:1,-0.345,-0.13
00:17:43.180:1,-0.295,-0.115
00:17:43.184:1,-0.215,-0.125
00:17:43.188:1,-0.115,-0.12
00:17:43.192:1,-0.035,-0.125
00:17:43.196:1,0.015,-0.15
00:17:43.200:1,0.055,-0.185
00:17:43.204:1,0.085,-0.185
00:17:43.208:1,0.11,-0.17
00:17:43.212:1,0.055,-0.18
00:17:43.216:1,0.0,-0.26
00:17:43.220:1,0.085,-0.35
00:17:43.224:1,0.31,-0.54
00:17:43.228:1,0.635,-0.78
00:17:43.232:1,0.915,-1.07
00:17:43.236:1,1.085,-1.225
00:17:43.240:1,0.985,-1.205
00:17:43.244:1,0.625,-0.945
00:17:43.248:1,0.18,-0.555
00:17:43.252:1,-0.13,-0.26
00:17:43.256:1,-0.28,-0.07
00:17:43.260:1,-0.35,0.015
00:17:43.264:1,-0.41,0.08
00:17:43.268:1,-0.44,0.07
00:17:43.272:1,-0.445,0.05
00:17:43.276:1,-0.475,0.05
00:17:43.280:1,-0.495,0.045
00:17:43.284:1,-0.515,0.02
00:17:43.288:1,-0.51,0.02
00:17:43.292:1,-0.52,0.005
00:17:43.296:1,-0.51,0.005
00:17:43.300:1,-0.49,0.005
00:17:43.304:1,-0.505,0.005
00:17:43.308:1,-0.52,-0.005
00:17:43.312:1,-0.515,0.0
00:17:43.316:1,-0.52,0.0
00:17:43.320:1,-0.54,-0.005
00:17:43.324:1,-0.54,0.015
00:17:43.328:1,-0.565,0.005
00:17:43.332:1,-0.545,0.005
00:17:43.336:1,-0.555,0.02
00:17:43.340:1,-0.585,-0.015
00:17:43.344:1,-0.57,0.0
00:17:43.348:1,-0.58,-0.01
00:17:43.352:1,-0.575,-0.005
00:17:43.356:1,-0.595,-0.005
00:17:43.360:1,-0.58,0.0
00:17:43.364:1,-0.58,-0.03
00:17:43.368:1,-0.61,-0.025
00:17:43.372:1,-0.62,-0.015
00:17:43.376:1,-0.605,-0.035
00:17:43.380:1,-0.605,-0.015
00:17:43.384:1,-0.63,-0.035
00:17:43.388:1,-0.625,-0.03
00:17:43.392:1,-0.62,-0.04
00:17:43.396:1,-0.615,-0.025
00:17:43.400:1,-0.615,-0.02
00:17:43.404:1,-0.6,-0.05
00:17:43.408:1,-0.59,-0.035
00:17:43.412:1,-0.57,-0.02
00:17:43.416:1,-0.56,-0.025
00:17:43.420:1,-0.565,-0.04
00:17:43.424:1,-0.585,-0.02
00:17:43.428:1,-0.56,-0.03
00:17:43.432:1,-0.59,-0.045
00:17:43.436:1,-0.55,-0.035
00:17:43.440:1,-0.545,-0.055
00:17:43.444:1,-0.545,-0.06
00:17:43.448:1,-0.54,-0.055
00:17:43.452:1,-0.53,-0.08
00:17:43.456:1,-0.49,-0.09
00:17:43.460:1,-0.52,-0.085
00:17:43.464:1,-0.505,-0.115
00:17:43.468:1,-0.49,-0.115
00:17:43.472:1,-0.485,-0.1
00:17:43.476:1,-0.47,-0.11
00:17:43.480:1,-0.45,-0.15
00:17:43.484:1,-0.445,-0.135
00:17:43.488:1,-0.435,-0.14
00:17:43.492:1,-0.42,-0.125
00:17:43.496:1,-0.42,-0.135
00:17:43.500:1,-0.39,-0.145
00:17:43.504:1,-0.37,-0.125
00:17:43.508:1,-0.345,-0.13
00:17:43.512:1,-0.36,-0.13
00:17:43.516:1,-0.365,-0.12
00:17:43.520:1,-0.365,-0.13
00:17:43.524:1,-0.34,-0.115
00:17:43.528:1,-0.35,-0.125
00:17:43.532:1,-0.355,-0.12
00:17:43.536:1,-0.36,-0.14
00:17:43.540:1,-0.35,-0.12
00:17:43.544:1,-0.35,-0.11
00:17:43.548:1,-0.37,-0.105
00:17:43.552:1,-0.38,-0.115
00:17:43.556:1,-0.38,-0.14
00:17:43.560:1,-0.38,-0.13
00:17:43.564:1,-0.37,-0.13
00:17:43.568:1,-0.37,-0.115
00:17:43.572:1,-0.35,-0.115
00:17:43.576:1,-0.35,-0.145
00:17:43.580:1,-0.365,-0.13
00:17:43.584:1,-0.36,-0.125
00:17:43.588:1,-0.38,-0.12
00:17:43.592:1,-0.375,-0.11
00:17:43.596:1,-0.37,-0.145
00:17:43.600:1,-0.39,-0.14
00:17:43.604:1,-0.365,-0.145
00:17:43.608:1,-0.345,-0.165
00:17:43.612:1,-0.35,-0.135
00:17:43.616:1,-0.355,-0.13
00:17:43.620:1,-0.335,-0.17
00:17:43.624:1,-0.295,-0.155
00:17:43.628:1,-0.28,-0.145
00:17:43.632:1,-0.28,-0.15
00:17:43.636:1,-0.27,-0.15
00:17:43.640:1,-0.28,-0.145
00:17:43.644:1,-0.26,-0.14
00:17:43.648:1,-0.255,-0.145
00:17:43.652:1,-0.19,-0.14
00:17:43.656:1,-0.18,-0.12
00:17:43.660:1,-0.16,-0.115
00:17:43.664:1,-0.13,-0.105
00:17:43.668:1,-0.11,-0.105
00:17:43.672:1,-0.075,-0.12
00:17:43.676:1,-0.07,-0.12
00:17:43.680:1,-0.08,-0.14
00:17:43.684:1,-0.08,-0.155
00:17:43.688:1,-0.125,-0.18
00:17:43.692:1,-0.18,-0.18
00:17:43.696:1,-0.22,-0.21
00:17:43.700:1,-0.27,-0.215
00:17:43.704:1,-0.31,-0.235
00:17:43.708:1,-0.365,-0.205
00:17:43.712:1,-0.4,-0.205
00:17:43.716:1,-0.42,-0.18
00:17:43.720:1,-0.42,-0.185
00:17:43.724:1,-0.43,-0.195
00:17:43.728:1,-0.425,-0.205
00:17:43.732:1,-0.425,-0.215
00:17:43.736:1,-0.43,-0.21
00:17:43.740:1,-0.41,-0.2
00:17:43.744:1,-0.41,-0.22
00:17:43.748:1,-0.405,-0.225
00:17:43.752:1,-0.405,-0.225
00:17:43.756:1,-0.415,-0.22
00:17:43.760:1,-0.415,-0.23
00:17:43.764:1,-0.415,-0.25
00:17:43.768:1,-0.41,-0.235
00:17:43.772:1,-0.41,-0.245
00:17:43.776:1,-0.4,-0.24
00:17:43.780:1,-0.405,-0.25
00:17:43.784:1,-0.41,-0.25
00:17:43.788:1,-0.425,-0.275
00:17:43.792:1,-0.43,-0.245
00:17:43.796:1,-0.395,-0.26
00:17:43.800:1,-0.395,-0.25
00:17:43.804:1,-0.38,-0.26
00:17:43.808:1,-0.4,-0.25
00:17:43.812:1,-0.4,-0.27
00:17:43.816:1,-0.365,-0.26
00:17:43.820:1,-0.365,-0.24
00:17:43.824:1,-0.32,-0.25
00:17:43.828:1,-0.24,-0.25
00:17:43.832:1,-0.15,-0.26
00:17:43.836:1,-0.05,-0.29
00:17:43.840:1,0.03,-0.29
00:17:43.844:1,0.09,-0.3
00:17:43.848:1,0.15,-0.36
00:17:43.852:1,0.21,-0.35
00:17:43.856:1,0.2,-0.34
00:17:43.860:1,0.125,-0.32
00:17:43.864:1,0.09,-0.37
00:17:43.868:1,0.18,-0.44
00:17:43.872:1,0.375,-0.65
00:17:43.876:1,0.675,-0.9
00:17:43.880:1,0.96,-1.145
00:17:43.884:1,1.07,-1.305
00:17:43.888:1,0.91,-1.27
00:17:43.892:1,0.515,-1.01
00:17:43.896:1,0.07,-0.67
00:17:43.900:1,-0.17,-0.43
00:17:43.904:1,-0.305,-0.285
00:17:43.908:1,-0.38,-0.175
00:17:43.912:1,-0.405,-0.12
00:17:43.916:1,-0.445,-0.12
00:17:43.920:1,-0.455,-0.12
00:17:43.924:1,-0.49,-0.12
00:17:43.928:1,-0.49,-0.14
00:17:43.932:1,-0.53,-0.15
00:17:43.936:1,-0.54,-0.16
00:17:43.940:1,-0.54,-0.175
00:17:43.944:1,-0.54,-0.19
00:17:43.948:1,-0.565,-0.185
00:17:43.952:1,-0.57,-0.18
00:17:43.956:1,-0.56,-0.17
00:17:43.960:1,-0.55,-0.165
00:17:43.964:1,-0.57,-0.17
00:17:43.968:1,-0.565,-0.17
00:17:43.972:1,-0.57,-0.17
00:17:43.976:1,-0.59,-0.16
00:17:43.980:1,-0.585,-0.19
00:17:43.984:1,-0.605,-0.17
00:17:43.988:1,-0.6,-0.18
00:17:43.992:1,-0.61,-0.19
00:17:43.996:1,-0.595,-0.2
00:17:44.000:1,-0.605,-0.205
00:17:44.004:1,-0.61,-0.205
00:17:44.008:1,-0.61,-0.18
00:17:44.012:1,-0.6,-0.185
00:17:44.016:1,-0.625,-0.2
00:17:44.020:1,-0.615,-0.185
00:17:44.024:1,-0.615,-0.15
00:17:44.028:1,-0.62,-0.185
00:17:44.032:1,-0.615,-0.15
00:17:44.036:1,-0.6,-0.175
00:17:44.040:1,-0.6,-0.18
00:17:44.044:1,-0.605,-0.19
00:17:44.048:1,-0.585,-0.14
00:17:44.052:1,-0.595,-0.135
00:17:44.056:1,-0.585,-0.115
00:17:44.060:1,-0.58,-0.145
00:17:44.064:1,-0.57,-0.145
00:17:44.068:1,-0.575,-0.125
00:17:44.072:1,-0.56,-0.14
00:17:44.076:1,-0.555,-0.15
00:17:44.080:1,-0.55,-0.13
00:17:44.084:1,-0.565,-0.135
00:17:44.088:1,-0.55,-0.135
00:17:44.092:1,-0.54,-0.155
00:17:44.096:1,-0.525,-0.14
00:17:44.100:1,-0.505,-0.16
00:17:44.104:1,-0.49,-0.145
00:17:44.108:1,-0.475,-0.14
00:17:44.112:1,-0.48,-0.135
00:17:44.116:1,-0.475,-0.15
00:17:44.120:1,-0.465,-0.16
00:17:44.124:1,-0.455,-0.15
00:17:44.128:1,-0.425,-0.145
00:17:44.132:1,-0.42,-0.17
00:17:44.136:1,-0.4,-0.13
00:17:44.140:1,-0.385,-0.145
00:17:44.144:1,-0.375,-0.135
00:17:44.148:1,-0.37,-0.14
00:17:44.152:1,-0.35,-0.135
00:17:44.156:1,-0.365,-0.125
00:17:44.160:1,-0.36,-0.14
00:17:44.164:1,-0.36,-0.11
00:17:44.168:1,-0.34,-0.115
00:17:44.172:1,-0.34,-0.115
00:17:44.176:1,-0.33,-0.13
00:17:44.180:1,-0.335,-0.115
00:17:44.184:1,-0.33,-0.1
00:17:44.188:1,-0.34,-0.105
00:17:44.192:1,-0.34,-0.08
00:17:44.196:1,-0.33,-0.09
00:17:44.200:1,-0.325,-0.09
00:17:44.204:1,-0.33,-0.09
00:17:44.208:1,-0.34,-0.065
00:17:44.212:1,-0.33,-0.075
00:17:44.216:1,-0.315,-0.08
00:17:44.220:1,-0.305,-0.055
00:17:44.224:1,-0.305,-0.08
00:17:44.228:1,-0.31,-0.07
00:17:44.232:1,-0.315,-0.075
00:17:44.236:1,-0.285,-0.085
00:17:44.240:1,-0.27,-0.1
00:17:44.244:1,-0.31,-0.07
00:17:44.248:1,-0.31,-0.045
00:17:44.252:1,-0.28,-0.05
00:17:44.256:1,-0.305,-0.06
00:17:44.260:1,-0.275,-0.05
00:17:44.264:1,-0.275,-0.05
00:17:44.268:1,-0.255,-0.05
00:17:44.272:1,-0.23,-0.04
00:17:44.276:1,-0.215,-0.055
00:17:44.280:1,-0.235,-0.05
00:17:44.284:1,-0.245,-0.04
00:17:44.288:1,-0.23,-0.045
00:17:44.292:1,-0.195,-0.01
00:17:44.296:1,-0.155,-0.04
00:17:44.300:1,-0.13,-0.025
00:17:44.304:1,-0.115,-0.025
00:17:44.308:1,-0.09,-0.03
00:17:44.312:1,-0.045,-0.025
00:17:44.316:1,-0.01,0.0
00:17:44.320:1,0.005,-0.005
00:17:44.324:1,0.0,-0.015
00:17:44.328:1,0.01,-0.04
00:17:44.332:1,-0.02,-0.07
00:17:44.336:1,-0.06,-0.08
00:17:44.340:1,-0.125,-0.09
00:17:44.344:1,-0.165,-0.07
00:17:44.348:1,-0.22,-0.085
00:17:44.352:1,-0.25,-0.075
00:17:44.356:1,-0.3,-0.06
00:17:44.360:1,-0.32,-0.05
00:17:44.364:1,-0.35,-0.025
00:17:44.368:1,-0.38,0.0
00:17:44.372:1,-0.36,-0.05
00:17:44.376:1,-0.37,-0.05
00:17:44.380:1,-0.355,-0.05
00:17:44.384:1,-0.345,-0.065
00:17:44.388:1,-0.345,-0.08
00:17:44.392:1,-0.345,-0.07
00:17:44.396:1,-0.355,-0.085
00:17:44.400:1,-0.34,-0.075
00:17:44.404:1,-0.335,-0.07
00:17:44.408:1,-0.345,-0.08
00:17:44.412:1,-0.365,-0.075
00:17:44.416:1,-0.355,-0.08
00:17:44.420:1,-0.34,-0.08
00:17:44.424:1,-0.33,-0.065
00:17:44.428:1,-0.35,-0.08
00:17:44.432:1,-0.34,-0.1
00:17:44.436:1,-0.345,-0.105
00:17:44.440:1,-0.33,-0.09
00:17:44.444:1,-0.335,-0.1
00:17:44.448:1,-0.33,-0.09
00:17:44.452:1,-0.34,-0.08
00:17:44.456:1,-0.32,-0.09
00:17:44.460:1,-0.305,-0.09
00:17:44.464:1,-0.295,-0.1
00:17:44.468:1,-0.275,-0.07
00:17:44.472:1,-0.25,-0.065
00:17:44.476:1,-0.17,-0.08
00:17:44.480:1,-0.1,-0.095
00:17:44.484:1,-0.005,-0.11
00:17:44.488:1,0.055,-0.14
00:17:44.492:1,0.095,-0.185
00:17:44.496:1,0.11,-0.21
00:17:44.500:1,0.14,-0.19
00:17:44.504:1,0.105,-0.215
00:17:44.508:1,0.05,-0.28
00:17:44.512:1,0.085,-0.37
00:17:44.516:1,0.28,-0.49
00:17:44.520:1,0.585,-0.745
00:17:44.524:1,0.91,-1.01
00:17:44.528:1,1.095,-1.21
00:17:44.532:1,1.07,-1.255
00:17:44.536:1,0.77,-1.025
00:17:44.540:1,0.295,-0.66
00:17:44.544:1,-0.07,-0.33
00:17:44.548:1,-0.24,-0.145
00:17:44.552:1,-0.35,0.0
00:17:44.556:1,-0.365,0.06
00:17:44.560:1,-0.39,0.09
00:17:44.564:1,-0.42,0.085
00:17:44.568:1,-0.44,0.065
00:17:44.572:1,-0.45,0.085
00:17:44.576:1,-0.475,0.08
00:17:44.580:1,-0.485,0.06
00:17:44.584:1,-0.47,0.05
00:17:44.588:1,-0.49,0.065
00:17:44.592:1,-0.5,0.04
00:17:44.596:1,-0.52,0.045
00:17:44.600:1,-0.51,0.035
00:17:44.604:1,-0.52,0.025
00:17:44.608:1,-0.53,0.025
00:17:44.612:1,-0.545,0.045
00:17:44.616:1,-0.55,0.015
00:17:44.620:1,-0.545,0.02
00:17:44.624:1,-0.54,0.03
00:17:44.628:1,-0.56,0.035
00:17:44.632:1,-0.545,0.025
00:17:44.636:1,-0.555,0.04
00:17:44.640:1,-0.555,0.015
00:17:44.644:1,-0.555,0.04
00:17:44.648:1,-0.575,0.03
00:17:44.652:1,-0.585,0.05
00:17:44.656:1,-0.575,0.025
00:17:44.660:1,-0.575,0.02
00:17:44.664:1,-0.575,0.045
00:17:44.668:1,-0.56,0.045
00:17:44.672:1,-0.56,0.055
00:17:44.676:1,-0.57,0.015
00:17:44.680:1,-0.58,0.04
00:17:44.684:1,-0.565,0.045
00:17:44.688:1,-0.565,0.03
00:17:44.692:1,-0.575,0.04
00:17:44.696:1,-0.595,0.05
00:17:44.700:1,-0.57,0.045
00:17:44.704:1,-0.58,0.05
00:17:44.708:1,-0.585,0.035
00:17:44.712:1,-0.58,0.025
00:17:44.716:1,-0.57,0.025
00:17:44.720:1,-0.57,0.015
00:17:44.724:1,-0.57,0.04
00:17:44.728:1,-0.54,0.015
00:17:44.732:1,-0.53,0.02
00:17:44.736:1,-0.54,0.01
00:17:44.740:1,-0.54,0.0
00:17:44.744:1,-0.52,0.015
00:17:44.748:1,-0.515,0.01
00:17:44.752:1,-0.48,0.01
00:17:44.756:1,-0.48,-0.005
00:17:44.760:1,-0.46,0.0
00:17:44.764:1,-0.445,-0.035
00:17:44.768:1,-0.41,-0.01
00:17:44.772:1,-0.42,-0.02
00:17:44.776:1,-0.405,-0.01
00:17:44.780:1,-0.375,-0.02
00:17:44.784:1,-0.375,-0.01
00:17:44.788:1,-0.365,-0.02
00:17:44.792:1,-0.36,0.0
00:17:44.796:1,-0.36,-0.02
00:17:44.800:1,-0.35,0.0
00:17:44.804:1,-0.34,-0.005
00:17:44.808:1,-0.34,-0.01
00:17:44.812:1,-0.31,-0.01
00:17:44.816:1,-0.325,0.0
00:17:44.820:1,-0.335,0.0
00:17:44.824:1,-0.335,-0.005
00:17:44.828:1,-0.325,0.0
00:17:44.832:1,-0.29,0.02
00:17:44.836:1,-0.325,0.01
00:17:44.840:1,-0.33,-0.005
00:17:44.844:1,-0.33,0.0
00:17:44.848:1,-0.315,0.01
00:17:44.852:1,-0.31,0.0
00:17:44.856:1,-0.31,0.015
00:17:44.860:1,-0.3,0.02
00:17:44.864:1,-0.305,0.025
00:17:44.868:1,-0.3,0.015
00:17:44.872:1,-0.3,0.045
00:17:44.876:1,-0.29,0.035
00:17:44.880:1,-0.285,0.045
00:17:44.884:1,-0.28,0.04
00:17:44.888:1,-0.265,0.04
00:17:44.892:1,-0.24,0.05
00:17:44.896:1,-0.23,0.035
00:17:44.900:1,-0.235,0.05
00:17:44.904:1,-0.23,0.05
00:17:44.908:1,-0.2,0.04
00:17:44.912:1,-0.19,0.055
00:17:44.916:1,-0.16,0.055
00:17:44.920:1,-0.14,0.085
00:17:44.924:1,-0.1,0.095
00:17:44.928:1,-0.075,0.095
00:17:44.932:1,-0.065,0.13
00:17:44.936:1,-0.035,0.09
00:17:44.940:1,-0.015,0.085
00:17:44.944:1,-0.015,0.095
00:17:44.948:1,-0.025,0.065
00:17:44.952:1,-0.03,0.045
00:17:44.956:1,-0.09,0.03
00:17:44.960:1,-0.145,0.045
00:17:44.964:1,-0.19,0.025
00:17:44.968:1,-0.225,0.0
00:17:44.972:1,-0.265,0.02
00:17:44.976:1,-0.32,0.025
00:17:44.980:1,-0.365,0.06
00:17:44.984:1,-0.36,0.065
00:17:44.988:1,-0.37,0.06
00:17:44.992:1,-0.37,0.075
00:17:44.996:1,-0.365,0.07
00:17:45.000:1,-0.355,0.045
00:17:45.004:1,-0.36,0.055
00:17:45.008:1,-0.36,0.05
00:17:45.012:1,-0.355,0.04
00:17:45.016:1,-0.365,0.03
00:17:45.020:1,-0.365,0.045
00:17:45.024:1,-0.37,0.045
00:17:45.028:1,-0.36,0.04
00:17:45.032:1,-0.345,0.05
00:17:45.036:1,-0.345,0.04
00:17:45.040:1,-0.325,0.02
00:17:45.044:1,-0.335,0.025
00:17:45.048:1,-0.335,0.03
00:17:45.052:1,-0.33,0.01
00:17:45.056:1,-0.355,0.005
00:17:45.060:1,-0.33,0.0
00:17:45.064:1,-0.35,0.025
00:17:45.068:1,-0.325,0.025
00:17:45.072:1,-0.325,0.025
00:17:45.076:1,-0.32,0.025
00:17:45.080:1,-0.29,0.025
00:17:45.084:1,-0.29,0.025
00:17:45.088:1,-0.25,0.03
00:17:45.092:1,-0.22,0.005
00:17:45.096:1,-0.16,0.02
00:17:45.100:1,-0.05,0.025
00:17:45.104:1,0.045,-0.005
00:17:45.108:1,0.06,-0.035
00:17:45.112:1,0.1,-0.07
00:17:45.116:1,0.115,-0.075
00:17:45.120:1,0.08,-0.06
00:17:45.124:1,0.035,-0.08
00:17:45.128:1,0.04,-0.155
00:17:45.132:1,0.12,-0.26
00:17:45.136:1,0.38,-0.48
00:17:45.140:1,0.715,-0.74
00:17:45.144:1,0.995,-0.99
00:17:45.148:1,1.12,-1.13
00:17:45.152:1,0.945,-1.05
00:17:45.156:1,0.515,-0.755
00:17:45.160:1,0.105,-0.36
00:17:45.164:1,-0.15,-0.055
00:17:45.168:1,-0.28,0.1
00:17:45.172:1,-0.325,0.17
00:17:45.176:1,-0.37,0.195
00:17:45.180:1,-0.39,0.2
00:17:45.184:1,-0.4,0.2
00:17:45.188:1,-0.415,0.18
00:17:45.192:1,-0.42,0.195
00:17:45.196:1,-0.43,0.165
00:17:45.200:1,-0.455,0.14
00:17:45.204:1,-0.455,0.145
00:17:45.208:1,-0.46,0.135
00:17:45.212:1,-0.48,0.115
00:17:45.216:1,-0.47,0.115
00:17:45.220:1,-0.48,0.115
00:17:45.224:1,-0.485,0.1
00:17:45.228:1,-0.465,0.15
00:17:45.232:1,-0.475,0.13
00:17:45.236:1,-0.48,0.12
00:17:45.240:1,-0.505,0.11
00:17:45.244:1,-0.52,0.11
00:17:45.248:1,-0.535,0.105
00:17:45.252:1,-0.55,0.1
00:17:45.256:1,-0.555,0.11
00:17:45.260:1,-0.535,0.1
00:17:45.264:1,-0.53,0.095
00:17:45.268:1,-0.55,0.09
00:17:45.272:1,-0.55,0.095
00:17:45.276:1,-0.535,0.105
00:17:45.280:1,-0.545,0.08
00:17:45.284:1,-0.55,0.09
00:17:45.288:1,-0.56,0.095
00:17:45.292:1,-0.545,0.095
00:17:45.296:1,-0.555,0.12
00:17:45.300:1,-0.535,0.1
00:17:45.304:1,-0.555,0.095
00:17:45.308:1,-0.55,0.105
00:17:45.312:1,-0.52,0.085
00:17:45.316:1,-0.535,0.09
00:17:45.320:1,-0.54,0.07
00:17:45.324:1,-0.535,0.1
00:17:45.328:1,-0.545,0.09
00:17:45.332:1,-0.53,0.07
00:17:45.336:1,-0.53,0.08
00:17:45.340:1,-0.545,0.06
00:17:45.344:1,-0.515,0.055
00:17:45.348:1,-0.515,0.055
00:17:45.352:1,-0.515,0.045
00:17:45.356:1,-0.505,0.045
00:17:45.360:1,-0.5,0.01
00:17:45.364:1,-0.475,0.015
00:17:45.368:1,-0.47,0.02
00:17:45.372:1,-0.46,0.01
00:17:45.376:1,-0.445,0.01
00:17:45.380:1,-0.43,-0.01
00:17:45.384:1,-0.425,0.005
00:17:45.388:1,-0.395,0.015
00:17:45.392:1,-0.4,0.005
00:17:45.396:1,-0.375,-0.01
00:17:45.400:1,-0.355,-0.01
00:17:45.404:1,-0.365,0.0
00:17:45.408:1,-0.33,0.005
00:17:45.412:1,-0.33,-0.005
00:17:45.416:1,-0.325,0.0
00:17:45.420:1,-0.31,0.0
00:17:45.424:1,-0.32,0.0
00:17:45.428:1,-0.32,0.0
00:17:45.432:1,-0.315,-0.01
00:17:45.436:1,-0.33,-0.015
00:17:45.440:1,-0.32,-0.015
00:17:45.444:1,-0.305,-0.005
00:17:45.448:1,-0.32,-0.035
00:17:45.452:1,-0.32,-0.02
00:17:45.456:1,-0.32,-0.02
00:17:45.460:1,-0.325,-0.015
00:17:45.464:1,-0.31,-0.025
00:17:45.468:1,-0.325,-0.045
00:17:45.472:1,-0.325,-0.045
00:17:45.476:1,-0.325,-0.005
00:17:45.480:1,-0.335,-0.03
00:17:45.484:1,-0.345,-0.025
00:17:45.488:1,-0.32,-0.03
00:17:45.492:1,-0.315,-0.04
00:17:45.496:1,-0.32,-0.025
00:17:45.500:1,-0.305,-0.045
00:17:45.504:1,-0.315,-0.04
00:17:45.508:1,-0.325,-0.03
00:17:45.512:1,-0.33,-0.04
00:17:45.516:1,-0.31,-0.035
00:17:45.520:1,-0.32,-0.05
00:17:45.524:1,-0.31,-0.035
00:17:45.528:1,-0.29,-0.05
00:17:45.532:1,-0.29,-0.065
00:17:45.536:1,-0.26,-0.08
00:17:45.540:1,-0.26,-0.045
00:17:45.544:1,-0.275,-0.045
00:17:45.548:1,-0.26,-0.07
00:17:45.552:1,-0.205,-0.055
00:17:45.556:1,-0.15,-0.04
00:17:45.560:1,-0.12,-0.04
00:17:45.564:1,-0.095,-0.035
00:17:45.568:1,-0.045,-0.03
00:17:45.572:1,-0.04,-0.035
00:17:45.576:1,-0.04,-0.035
00:17:45.580:1,-0.035,-0.045
00:17:45.584:1,-0.06,-0.07
00:17:45.588:1,-0.07,-0.095
00:17:45.592:1,-0.12,-0.11
00:17:45.596:1,-0.16,-0.115
00:17:45.600:1,-0.215,-0.13
00:17:45.604:1,-0.255,-0.115
00:17:45.608:1,-0.3,-0.115
00:17:45.612:1,-0.355,-0.13
00:17:45.616:1,-0.39,-0.105
00:17:45.620:1,-0.42,-0.1
00:17:45.624:1,-0.4,-0.11
00:17:45.628:1,-0.425,-0.125
00:17:45.632:1,-0.41,-0.135
00:17:45.636:1,-0.39,-0.1
00:17:45.640:1,-0.39,-0.135
00:17:45.644:1,-0.4,-0.13
00:17:45.648:1,-0.4,-0.155
00:17:45.652:1,-0.395,-0.165
00:17:45.656:1,-0.395,-0.155
00:17:45.660:1,-0.4,-0.16
00:17:45.664:1,-0.385,-0.17
00:17:45.668:1,-0.39,-0.14
00:17:45.672:1,-0.38,-0.165
00:17:45.676:1,-0.39,-0.16
00:17:45.680:1,-0.37,-0.195
00:17:45.684:1,-0.36,-0.195
00:17:45.688:1,-0.35,-0.175
00:17:45.692:1,-0.35,-0.17
00:17:45.696:1,-0.34,-0.18
00:17:45.700:1,-0.35,-0.195
00:17:45.704:1,-0.335,-0.18
00:17:45.708:1,-0.34,-0.19
00:17:45.712:1,-0.33,-0.19
00:17:45.716:1,-0.315,-0.18
00:17:45.720:1,-0.295,-0.2
00:17:45.724:1,-0.27,-0.18
00:17:45.728:1,-0.235,-0.185
00:17:45.732:1,-0.11,-0.195
00:17:45.736:1,-0.015,-0.215
00:17:45.740:1,0.075,-0.235
00:17:45.744:1,0.145,-0.28
00:17:45.748:1,0.215,-0.29
00:17:45.752:1,0.22,-0.275
00:17:45.756:1,0.215,-0.245
00:17:45.760:1,0.18,-0.285
00:17:45.764:1,0.16,-0.355
00:17:45.768:1,0.285,-0.47
00:17:45.772:1,0.54,-0.67
00:17:45.776:1,0.875,-0.915
00:17:45.780:1,1.105,-1.155
00:17:45.784:1,1.09,-1.275
00:17:45.788:1,0.78,-1.13
00:17:45.792:1,0.315,-0.8
00:17:45.796:1,-0.03,-0.47
00:17:45.800:1,-0.2,-0.265
00:17:45.804:1,-0.295,-0.135
00:17:45.808:1,-0.32,-0.06
00:17:45.812:1,-0.355,-0.02
00:17:45.816:1,-0.38,-0.035
00:17:45.820:1,-0.415,-0.04
00:17:45.824:1,-0.45,-0.04
00:17:45.828:1,-0.455,-0.045
00:17:45.832:1,-0.465,-0.065
00:17:45.836:1,-0.475,-0.09
00:17:45.840:1,-0.48,-0.11
00:17:45.844:1,-0.505,-0.115
00:17:45.848:1,-0.49,-0.12
00:17:45.852:1,-0.515,-0.125
00:17:45.856:1,-0.525,-0.1
00:17:45.860:1,-0.535,-0.13
00:17:45.864:1,-0.525,-0.11
00:17:45.868:1,-0.535,-0.12
00:17:45.872:1,-0.535,-0.12
00:17:45.876:1,-0.535,-0.13
00:17:45.880:1,-0.53,-0.15
00:17:45.884:1,-0.53,-0.12
00:17:45.888:1,-0.54,-0.135
00:17:45.892:1,-0.545,-0.11
00:17:45.896:1,-0.52,-0.12
00:17:45.900:1,-0.535,-0.13
00:17:45.904:1,-0.555,-0.12
00:17:45.908:1,-0.57,-0.125
00:17:45.912:1,-0.555,-0.125
00:17:45.916:1,-0.55,-0.135
00:17:45.920:1,-0.54,-0.085
00:17:45.924:1,-0.545,-0.115
00:17:45.928:1,-0.535,-0.12
00:17:45.932:1,-0.535,-0.095
00:17:45.936:1,-0.54,-0.095
00:17:45.940:1,-0.53,-0.085
00:17:45.944:1,-0.55,-0.07
00:17:45.948:1,-0.55,-0.08
00:17:45.952:1,-0.545,-0.095
00:17:45.956:1,-0.53,-0.09
00:17:45.960:1,-0.56,-0.095
00:17:45.964:1,-0.545,-0.1
00:17:45.968:1,-0.54,-0.07
00:17:45.972:1,-0.53,-0.095
00:17:45.976:1,-0.54,-0.08
00:17:45.980:1,-0.52,-0.065
00:17:45.984:1,-0.52,-0.095
00:17:45.988:1,-0.505,-0.085
00:17:45.992:1,-0.49,-0.08
00:17:45.996:1,-0.48,-0.09
00:17:46.000:1,-0.46,-0.095
00:17:46.004:1,-0.445,-0.105
00:17:46.008:1,-0.425,-0.1
00:17:46.012:1,-0.435,-0.12
00:17:46.016:1,-0.4,-0.08
00:17:46.020:1,-0.385,-0.09
00:17:46.024:1,-0.37,-0.095
00:17:46.028:1,-0.355,-0.09
00:17:46.032:1,-0.33,-0.08
00:17:46.036:1,-0.345,-0.095
00:17:46.040:1,-0.315,-0.08
00:17:46.044:1,-0.29,-0.07
00:17:46.048:1,-0.295,-0.085
00:17:46.052:1,-0.29,-0.1
00:17:46.056:1,-0.285,-0.08
00:17:46.060:1,-0.28,-0.08
00:17:46.064:1,-0.28,-0.085
00:17:46.068:1,-0.29,-0.055
00:17:46.072:1,-0.295,-0.08
00:17:46.076:1,-0.28,-0.07
00:17:46.080:1,-0.27,-0.07
00:17:46.084:1,-0.26,-0.06
00:17:46.088:1,-0.24,-0.055
00:17:46.092:1,-0.235,-0.05
00:17:46.096:1,-0.26,-0.06
00:17:46.100:1,-0.265,-0.055
00:17:46.104:1,-0.26,-0.065
00:17:46.108:1,-0.25,-0.05
00:17:46.112:1,-0.25,-0.04
00:17:46.116:1,-0.235,-0.05
00:17:46.120:1,-0.24,-0.055
00:17:46.124:1,-0.24,-0.04
00:17:46.128:1,-0.23,-0.03
00:17:46.132:1,-0.24,-0.015
00:17:46.136:1,-0.24,-0.035
00:17:46.140:1,-0.245,-0.02
00:17:46.144:1,-0.235,-0.035
00:17:46.148:1,-0.235,-0.01
00:17:46.152:1,-0.205,-0.025
00:17:46.156:1,-0.21,-0.025
00:17:46.160:1,-0.18,-0.025
00:17:46.164:1,-0.18,-0.025
00:17:46.168:1,-0.18,-0.015
00:17:46.172:1,-0.175,-0.04
00:17:46.176:1,-0.17,-0.015
00:17:46.180:1,-0.16,0.0
00:17:46.184:1,-0.11,-0.005
00:17:46.188:1,-0.065,-0.005
00:17:46.192:1,-0.025,0.01
00:17:46.196:1,-0.02,0.02
00:17:46.200:1,0.025,0.005
00:17:46.204:1,0.025,0.005
00:17:46.208:1,0.06,0.035
00:17:46.212:1,0.055,0.03
00:17:46.216:1,0.045,0.015
00:17:46.220:1,0.01,-0.025
00:17:46.224:1,-0.03,-0.045
00:17:46.228:1,-0.05,-0.05
00:17:46.232:1,-0.1,-0.015
00:17:46.236:1,-0.16,-0.03
00:17:46.240:1,-0.21,-0.02
00:17:46.244:1,-0.25,-0.015
00:17:46.248:1,-0.295,-0.015
00:17:46.252:1,-0.295,0.0
00:17:46.256:1,-0.31,-0.02
00:17:46.260:1,-0.305,0.0
00:17:46.264:1,-0.3,0.0
00:17:46.268:1,-0.305,0.0
00:17:46.272:1,-0.29,-0.04
00:17:46.276:1,-0.305,-0.035
00:17:46.280:1,-0.325,-0.035
00:17:46.284:1,-0.3,-0.03
00:17:46.288:1,-0.29,-0.055
00:17:46.292:1,-0.3,-0.055
00:17:46.296:1,-0.295,-0.04
00:17:46.300:1,-0.28,-0.065
00:17:46.304:1,-0.265,-0.055
00:17:46.308:1,-0.28,-0.06
00:17:46.312:1,-0.265,-0.065
00:17:46.316:1,-0.27,-0.055
00:17:46.320:1,-0.26,-0.06
00:17:46.324:1,-0.255,-0.065
00:17:46.328:1,-0.28,-0.05
00:17:46.332:1,-0.25,-0.06
00:17:46.336:1,-0.245,-0.055
00:17:46.340:1,-0.22,-0.08
00:17:46.344:1,-0.245,-0.06
00:17:46.348:1,-0.235,-0.045
00:17:46.352:1,-0.22,-0.06
00:17:46.356:1,-0.185,-0.03
00:17:46.360:1,-0.13,-0.06
00:17:46.364:1,-0.065,-0.07
00:17:46.368:1,0.005,-0.065
00:17:46.372:1,0.085,-0.075
00:17:46.376:1,0.145,-0.14
00:17:46.380:1,0.175,-0.16
00:17:46.384:1,0.195,-0.16
00:17:46.388:1,0.19,-0.165
00:17:46.392:1,0.15,-0.18
00:17:46.396:1,0.12,-0.26
00:17:46.400:1,0.235,-0.385
00:17:46.404:1,0.48,-0.555
00:17:46.408:1,0.81,-0.825
00:17:46.412:1,1.08,-1.095
00:17:46.416:1,1.185,-1.21
00:17:46.420:1,1.035,-1.15
00:17:46.424:1,0.58,-0.84
00:17:46.428:1,0.15,-0.44
00:17:46.432:1,-0.11,-0.17
00:17:46.436:1,-0.2,-0.01
00:17:46.440:1,-0.265,0.06
00:17:46.444:1,-0.28,0.12
00:17:46.448:1,-0.305,0.12
00:17:46.452:1,-0.34,0.13
00:17:46.456:1,-0.36,0.13
00:17:46.460:1,-0.385,0.14
00:17:46.464:1,-0.39,0.095
00:17:46.468:1,-0.39,0.09
00:17:46.472:1,-0.4,0.08
00:17:46.476:1,-0.42,0.07
00:17:46.480:1,-0.415,0.035
00:17:46.484:1,-0.415,0.045
00:17:46.488:1,-0.46,0.05
00:17:46.492:1,-0.445,0.05
00:17:46.496:1,-0.45,0.04
00:17:46.500:1,-0.45,0.04
00:17:46.504:1,-0.445,0.035
00:17:46.508:1,-0.455,0.04
00:17:46.512:1,-0.475,0.05
00:17:46.516:1,-0.46,0.035
00:17:46.520:1,-0.45,0.025
00:17:46.524:1,-0.48,0.045
00:17:46.528:1,-0.47,0.03
00:17:46.532:1,-0.49,0.035
00:17:46.536:1,-0.485,0.05
00:17:46.540:1,-0.485,0.05
00:17:46.544:1,-0.495,0.035
00:17:46.548:1,-0.495,0.055
00:17:46.552:1,-0.5,0.05
00:17:46.556:1,-0.495,0.035
00:17:46.560:1,-0.49,0.06
00:17:46.564:1,-0.505,0.045
00:17:46.568:1,-0.495,0.055
00:17:46.572:1,-0.51,0.055
00:17:46.576:1,-0.5,0.06
00:17:46.580:1,-0.505,0.055
00:17:46.584:1,-0.5,0.075
00:17:46.588:1,-0.49,0.045
00:17:46.592:1,-0.495,0.045
00:17:46.596:1,-0.505,0.05
00:17:46.600:1,-0.495,0.05
00:17:46.604:1,-0.485,0.045
00:17:46.608:1,-0.475,0.04
00:17:46.612:1,-0.455,0.02
00:17:46.616:1,-0.465,0.015
00:17:46.620:1,-0.46,0.03
00:17:46.624:1,-0.44,0.0
00:17:46.628:1,-0.415,0.0
00:17:46.632:1,-0.395,0.0
00:17:46.636:1,-0.405,-0.02
00:17:46.640:1,-0.39,0.005
00:17:46.644:1,-0.36,0.0
00:17:46.648:1,-0.33,-0.015
00:17:46.652:1,-0.33,-0.01
00:17:46.656:1,-0.34,0.0
00:17:46.660:1,-0.315,0.0
00:17:46.664:1,-0.305,-0.01
00:17:46.668:1,-0.295,0.0
00:17:46.672:1,-0.29,0.0
00:17:46.676:1,-0.29,-0.005
00:17:46.680:1,-0.27,-0.02
00:17:46.684:1,-0.245,0.0
00:17:46.688:1,-0.275,-0.025
00:17:46.692:1,-0.285,0.0
00:17:46.696:1,-0.27,-0.015
00:17:46.700:1,-0.26,-0.01
00:17:46.704:1,-0.28,0.02
00:17:46.708:1,-0.25,-0.01
00:17:46.712:1,-0.255,0.0
00:17:46.716:1,-0.255,0.015
00:17:46.720:1,-0.245,0.0
00:17:46.724:1,-0.255,0.015
00:17:46.728:1,-0.24,-0.01
00:17:46.732:1,-0.245,-0.015
00:17:46.736:1,-0.25,0.015
00:17:46.740:1,-0.25,0.02
00:17:46.744:1,-0.23,0.04
00:17:46.748:1,-0.23,0.02
00:17:46.752:1,-0.23,0.02
00:17:46.756:1,-0.235,0.04
00:17:46.760:1,-0.23,0.025
00:17:46.764:1,-0.235,0.035
00:17:46.768:1,-0.215,0.045
00:17:46.772:1,-0.21,0.045
