Time,ECG1,ECG2
11:48:00.000,-0.275,-0.015
11:48:00.008,-0.245,0.005
11:48:00.016,-0.285,-0.015
11:48:00.023,-0.265,-0.015
11:48:00.031,-0.235,-0.005
11:48:00.039,-0.215,-0.015
11:48:00.047,-0.165,0.005
11:48:00.055,-0.165,0.005
11:48:00.063,-0.145,0.005
11:48:00.070,-0.095,0.035
11:48:00.078,-0.085,0.025
11:48:00.086,-0.045,0.005
11:48:00.094,0.025,0.005
11:48:00.102,0.085,0.025
11:48:00.109,0.175,0.025
11:48:00.117,0.215,0.005
11:48:00.125,0.255,0.015
11:48:00.133,0.305,0.025
11:48:00.141,0.285,0.035
11:48:00.148,0.285,0.035
11:48:00.156,0.245,0.045
11:48:00.164,0.175,0.045
11:48:00.172,0.125,0.045
11:48:00.180,0.015,0.005
11:48:00.188,-0.075,-0.005
11:48:00.195,-0.125,-0.025
11:48:00.203,-0.175,-0.035
11:48:00.211,-0.205,-0.035
11:48:00.219,-0.195,-0.045
11:48:00.227,-0.205,-0.025
11:48:00.234,-0.165,-0.035
11:48:00.242,-0.185,-0.045
11:48:00.250,-0.185,-0.045
11:48:00.258,-0.185,-0.015
11:48:00.266,-0.195,-0.035
11:48:00.273,-0.195,-0.025
11:48:00.281,-0.185,-0.035
11:48:00.289,-0.165,-0.025
11:48:00.297,-0.145,-0.015
11:48:00.305,-0.135,-0.025
11:48:00.313,-0.145,-0.025
11:48:00.320,-0.155,-0.025
11:48:00.328,-0.185,-0.055
11:48:00.336,-0.185,-0.055
11:48:00.344,-0.165,-0.055
11:48:00.352,-0.175,-0.065
11:48:00.359,-0.145,-0.045
11:48:00.367,-0.165,-0.085
11:48:00.375,-0.165,-0.085
11:48:00.383,-0.175,-0.065
11:48:00.391,-0.185,-0.075
11:48:00.398,-0.195,-0.085
11:48:00.406,-0.195,-0.085
11:48:00.414,-0.175,-0.065
11:48:00.422,-0.165,-0.075
11:48:00.430,-0.165,-0.095
11:48:00.438,-0.175,-0.095
11:48:00.445,-0.175,-0.095
11:48:00.453,-0.185,-0.095
11:48:00.461,-0.205,-0.105
11:48:00.469,-0.195,-0.105
11:48:00.477,-0.185,-0.105
11:48:00.484,-0.165,-0.065
11:48:00.492,-0.135,-0.095
11:48:00.500,-0.115,-0.065
11:48:00.508,-0.065,-0.035
11:48:00.516,-0.075,-0.055
11:48:00.523,-0.075,-0.065
11:48:00.531,0.035,-0.095
11:48:00.539,0.005,-0.125
11:48:00.547,-0.065,-0.125
11:48:00.555,-0.085,-0.145
11:48:00.563,-0.105,-0.165
11:48:00.570,-0.155,-0.125
11:48:00.578,-0.175,-0.115
11:48:00.586,-0.195,-0.135
11:48:00.594,-0.185,-0.135
11:48:00.602,-0.175,-0.115
11:48:00.609,-0.145,-0.115
11:48:00.617,-0.155,-0.125
11:48:00.625,-0.165,-0.125
11:48:00.633,-0.175,-0.115
11:48:00.641,-0.175,-0.125
11:48:00.648,-0.155,-0.035
11:48:00.656,-0.335,0.175
11:48:00.664,-0.675,0.235
11:48:00.672,-0.345,-0.605
11:48:00.680,1.275,-1.515
11:48:00.688,2.465,-0.915
11:48:00.695,2.895,-0.705
11:48:00.703,1.805,-0.385
11:48:00.711,0.195,-0.055
11:48:00.719,-0.125,0.025
11:48:00.727,-0.155,0.025
11:48:00.734,-0.175,0.025
11:48:00.742,-0.215,0.015
11:48:00.750,-0.235,0.005
11:48:00.758,-0.215,0.025
11:48:00.766,-0.255,0.005
11:48:00.773,-0.255,0.005
11:48:00.781,-0.225,0.015
11:48:00.789,-0.225,0.025
11:48:00.797,-0.195,0.015
11:48:00.805,-0.195,0.005
11:48:00.813,-0.195,0.005
11:48:00.820,-0.165,0.035
11:48:00.828,-0.195,0.015
11:48:00.836,-0.165,0.025
11:48:00.844,-0.125,0.025
11:48:00.852,-0.105,0.055
11:48:00.859,-0.035,0.065
11:48:00.867,-0.015,0.065
11:48:00.875,0.025,0.085
11:48:00.883,0.085,0.085
11:48:00.891,0.105,0.085
11:48:00.898,0.175,0.075
11:48:00.906,0.235,0.085
11:48:00.914,0.275,0.085
11:48:00.922,0.355,0.115
11:48:00.930,0.395,0.085
11:48:00.938,0.395,0.115
11:48:00.945,0.405,0.115
11:48:00.953,0.295,0.085
11:48:00.961,0.215,0.045
11:48:00.969,0.145,0.005
11:48:00.977,0.045,-0.005
11:48:00.984,0.015,-0.005
11:48:00.992,-0.045,-0.055
11:48:01.000,-0.075,-0.055
11:48:01.008,-0.085,-0.055
11:48:01.016,-0.135,-0.055
11:48:01.023,-0.135,-0.065
11:48:01.031,-0.115,-0.055
11:48:01.039,-0.105,-0.055
11:48:01.047,-0.085,-0.045
11:48:01.055,-0.085,-0.065
11:48:01.063,-0.095,-0.065
11:48:01.070,-0.095,-0.035
11:48:01.078,-0.115,-0.045
11:48:01.086,-0.105,-0.035
11:48:01.094,-0.105,-0.035
11:48:01.102,-0.085,-0.045
11:48:01.109,-0.065,-0.045
11:48:01.117,-0.085,-0.045
11:48:01.125,-0.095,-0.045
11:48:01.133,-0.075,-0.035
11:48:01.141,-0.105,-0.055
11:48:01.148,-0.105,-0.075
11:48:01.156,-0.105,-0.055
11:48:01.164,-0.095,-0.065
11:48:01.172,-0.085,-0.065
11:48:01.180,-0.085,-0.085
11:48:01.188,-0.105,-0.095
11:48:01.195,-0.105,-0.085
11:48:01.203,-0.115,-0.105
11:48:01.211,-0.125,-0.105
11:48:01.219,-0.125,-0.105
11:48:01.227,-0.115,-0.095
11:48:01.234,-0.105,-0.105
11:48:01.242,-0.115,-0.095
11:48:01.250,-0.105,-0.115
11:48:01.258,-0.115,-0.115
11:48:01.266,-0.135,-0.105
11:48:01.273,-0.145,-0.145
11:48:01.281,-0.125,-0.125
11:48:01.289,-0.115,-0.115
11:48:01.297,-0.095,-0.095
11:48:01.305,-0.095,-0.115
11:48:01.313,-0.095,-0.095
11:48:01.320,-0.105,-0.095
11:48:01.328,-0.105,-0.095
11:48:01.336,-0.105,-0.125
11:48:01.344,-0.055,-0.055
11:48:01.352,-0.015,-0.055
11:48:01.359,-0.025,-0.085
11:48:01.367,0.045,-0.095
11:48:01.375,0.075,-0.105
11:48:01.383,0.015,-0.115
11:48:01.391,-0.085,-0.115
11:48:01.398,-0.075,-0.145
11:48:01.406,-0.075,-0.145
11:48:01.414,-0.135,-0.115
11:48:01.422,-0.105,-0.115
11:48:01.430,-0.125,-0.145
11:48:01.438,-0.125,-0.145
11:48:01.445,-0.115,-0.135
11:48:01.453,-0.145,-0.135
11:48:01.461,-0.145,-0.155
11:48:01.469,-0.135,-0.135
11:48:01.477,-0.125,-0.135
11:48:01.484,-0.085,-0.125
11:48:01.492,-0.075,-0.025
11:48:01.500,-0.365,0.055
11:48:01.508,-0.615,-0.055
11:48:01.516,-0.035,-0.805
11:48:01.523,1.565,-1.175
11:48:01.531,2.575,-0.805
11:48:01.539,2.895,-0.625
11:48:01.547,1.415,-0.275
11:48:01.555,0.065,-0.085
11:48:01.563,-0.085,-0.015
11:48:01.570,-0.115,-0.005
11:48:01.578,-0.185,-0.015
11:48:01.586,-0.205,-0.015
11:48:01.594,-0.205,-0.015
11:48:01.602,-0.215,-0.005
11:48:01.609,-0.185,-0.005
11:48:01.617,-0.195,-0.015
11:48:01.625,-0.195,0.005
11:48:01.633,-0.185,0.005
11:48:01.641,-0.205,0.005
11:48:01.648,-0.205,-0.005
11:48:01.656,-0.185,0.005
11:48:01.664,-0.185,0.025
11:48:01.672,-0.135,0.045
11:48:01.680,-0.125,0.025
11:48:01.688,-0.115,0.045
11:48:01.695,-0.085,0.055
11:48:01.703,-0.085,0.055
11:48:01.711,-0.045,0.055
11:48:01.719,0.005,0.065
11:48:01.727,0.055,0.095
11:48:01.734,0.135,0.105
11:48:01.742,0.175,0.085
11:48:01.750,0.225,0.085
11:48:01.758,0.285,0.105
11:48:01.766,0.305,0.095
11:48:01.773,0.345,0.085
11:48:01.781,0.365,0.085
11:48:01.789,0.355,0.095
11:48:01.797,0.335,0.075
11:48:01.805,0.245,0.035
11:48:01.813,0.135,0.005
11:48:01.820,0.055,-0.005
11:48:01.828,-0.065,-0.055
11:48:01.836,-0.115,-0.065
11:48:01.844,-0.135,-0.075
11:48:01.852,-0.165,-0.085
11:48:01.859,-0.135,-0.075
11:48:01.867,-0.155,-0.085
11:48:01.875,-0.145,-0.085
11:48:01.883,-0.155,-0.075
11:48:01.891,-0.175,-0.095
11:48:01.898,-0.175,-0.105
11:48:01.906,-0.165,-0.085
11:48:01.914,-0.155,-0.075
11:48:01.922,-0.135,-0.075
11:48:01.930,-0.135,-0.085
11:48:01.938,-0.145,-0.065
11:48:01.945,-0.135,-0.055
11:48:01.953,-0.155,-0.075
11:48:01.961,-0.175,-0.085
11:48:01.969,-0.165,-0.075
11:48:01.977,-0.155,-0.055
11:48:01.984,-0.135,-0.075
11:48:01.992,-0.135,-0.085
11:48:02.000,-0.135,-0.075
11:48:02.008,-0.145,-0.075
11:48:02.016,-0.165,-0.075
11:48:02.023,-0.165,-0.085
11:48:02.031,-0.175,-0.105
11:48:02.039,-0.165,-0.095
11:48:02.047,-0.155,-0.075
11:48:02.055,-0.165,-0.105
11:48:02.063,-0.175,-0.105
11:48:02.070,-0.165,-0.105
11:48:02.078,-0.195,-0.125
11:48:02.086,-0.205,-0.135
11:48:02.094,-0.185,-0.135
11:48:02.102,-0.175,-0.125
11:48:02.109,-0.165,-0.115
11:48:02.117,-0.165,-0.125
11:48:02.125,-0.165,-0.115
11:48:02.133,-0.185,-0.105
11:48:02.141,-0.185,-0.125
11:48:02.148,-0.185,-0.135
11:48:02.156,-0.165,-0.125
11:48:02.164,-0.155,-0.115
11:48:02.172,-0.145,-0.115
11:48:02.180,-0.145,-0.115
11:48:02.188,-0.135,-0.115
11:48:02.195,-0.135,-0.135
11:48:02.203,-0.135,-0.085
11:48:02.211,-0.085,-0.065
11:48:02.219,-0.065,-0.105
11:48:02.227,-0.015,-0.105
11:48:02.234,0.075,-0.125
11:48:02.242,-0.015,-0.165
11:48:02.250,-0.095,-0.135
11:48:02.258,-0.065,-0.145
11:48:02.266,-0.135,-0.165
11:48:02.273,-0.175,-0.165
11:48:02.281,-0.175,-0.165
11:48:02.289,-0.175,-0.155
11:48:02.297,-0.145,-0.145
11:48:02.305,-0.145,-0.155
11:48:02.313,-0.145,-0.155
11:48:02.320,-0.145,-0.165
11:48:02.328,-0.175,-0.155
11:48:02.336,-0.185,-0.155
11:48:02.344,-0.165,-0.155
11:48:02.352,-0.155,0.005
11:48:02.359,-0.505,0.125
11:48:02.367,-0.695,0.065
11:48:02.375,-0.005,-0.985
11:48:02.383,1.605,-1.265
11:48:02.391,2.585,-0.805
11:48:02.398,2.905,-0.745
11:48:02.406,1.545,-0.375
11:48:02.414,0.025,-0.095
11:48:02.422,-0.125,0.005
11:48:02.430,-0.145,-0.005
11:48:02.438,-0.205,-0.035
11:48:02.445,-0.225,-0.015
11:48:02.453,-0.265,-0.015
11:48:02.461,-0.275,-0.035
11:48:02.469,-0.275,-0.025
11:48:02.477,-0.265,-0.025
11:48:02.484,-0.245,-0.015
11:48:02.492,-0.245,-0.025
11:48:02.500,-0.245,-0.045
11:48:02.508,-0.225,-0.025
11:48:02.516,-0.235,-0.025
11:48:02.523,-0.215,-0.035
11:48:02.531,-0.185,-0.025
11:48:02.539,-0.185,-0.025
11:48:02.547,-0.125,-0.015
11:48:02.555,-0.125,-0.015
11:48:02.563,-0.085,0.015
11:48:02.570,-0.055,0.035
11:48:02.578,-0.035,0.025
11:48:02.586,-0.015,-0.005
11:48:02.594,0.055,0.015
11:48:02.602,0.125,0.035
11:48:02.609,0.205,0.035
11:48:02.617,0.245,0.025
11:48:02.625,0.285,0.025
11:48:02.633,0.325,0.035
11:48:02.641,0.345,0.025
11:48:02.648,0.325,0.045
11:48:02.656,0.295,0.015
11:48:02.664,0.245,0.025
11:48:02.672,0.155,0.005
11:48:02.680,0.085,-0.005
11:48:02.688,-0.015,-0.055
11:48:02.695,-0.095,-0.075
11:48:02.703,-0.145,-0.095
11:48:02.711,-0.205,-0.095
11:48:02.719,-0.195,-0.075
11:48:02.727,-0.175,-0.075
11:48:02.734,-0.175,-0.075
11:48:02.742,-0.175,-0.065
11:48:02.750,-0.185,-0.075
11:48:02.758,-0.185,-0.075
11:48:02.766,-0.195,-0.065
11:48:02.773,-0.215,-0.075
11:48:02.781,-0.195,-0.065
11:48:02.789,-0.185,-0.075
11:48:02.797,-0.185,-0.055
11:48:02.805,-0.175,-0.065
11:48:02.813,-0.175,-0.085
11:48:02.820,-0.175,-0.085
11:48:02.828,-0.185,-0.085
11:48:02.836,-0.215,-0.105
11:48:02.844,-0.205,-0.115
11:48:02.852,-0.185,-0.095
11:48:02.859,-0.175,-0.095
11:48:02.867,-0.175,-0.115
11:48:02.875,-0.185,-0.135
11:48:02.883,-0.195,-0.135
11:48:02.891,-0.215,-0.135
11:48:02.898,-0.225,-0.135
11:48:02.906,-0.215,-0.125
11:48:02.914,-0.205,-0.125
11:48:02.922,-0.195,-0.115
11:48:02.930,-0.195,-0.145
11:48:02.938,-0.215,-0.115
11:48:02.945,-0.205,-0.105
11:48:02.953,-0.225,-0.115
11:48:02.961,-0.225,-0.145
11:48:02.969,-0.215,-0.125
11:48:02.977,-0.215,-0.105
11:48:02.984,-0.175,-0.105
11:48:02.992,-0.165,-0.115
11:48:03.000,-0.165,-0.135
11:48:03.008,-0.135,-0.065
11:48:03.016,-0.125,-0.075
11:48:03.023,-0.115,-0.115
11:48:03.031,-0.065,-0.095
11:48:03.039,0.005,-0.125
11:48:03.047,-0.015,-0.145
11:48:03.055,-0.105,-0.135
11:48:03.063,-0.115,-0.145
11:48:03.070,-0.125,-0.145
11:48:03.078,-0.205,-0.135
11:48:03.086,-0.215,-0.145
11:48:03.094,-0.225,-0.155
11:48:03.102,-0.215,-0.165
11:48:03.109,-0.185,-0.145
11:48:03.117,-0.185,-0.145
11:48:03.125,-0.185,-0.155
11:48:03.133,-0.185,-0.135
11:48:03.141,-0.215,-0.145
11:48:03.148,-0.195,-0.145
11:48:03.156,-0.155,-0.065
11:48:03.164,-0.305,0.135
11:48:03.172,-0.675,0.215
11:48:03.180,-0.575,-0.235
11:48:03.188,0.765,-1.375
11:48:03.195,2.195,-0.955
11:48:03.203,2.855,-0.765
11:48:03.211,2.415,-0.545
11:48:03.219,0.505,-0.145
11:48:03.227,-0.165,0.005
11:48:03.234,-0.145,0.025
11:48:03.242,-0.195,-0.005
11:48:03.250,-0.235,-0.015
11:48:03.258,-0.255,0.015
11:48:03.266,-0.275,-0.005
11:48:03.273,-0.285,-0.025
11:48:03.281,-0.265,-0.005
11:48:03.289,-0.255,-0.005
11:48:03.297,-0.225,0.005
11:48:03.305,-0.225,-0.025
11:48:03.313,-0.225,0.005
11:48:03.320,-0.215,0.025
11:48:03.328,-0.215,-0.005
11:48:03.336,-0.215,-0.005
11:48:03.344,-0.175,0.015
11:48:03.352,-0.155,0.025
11:48:03.359,-0.095,0.035
11:48:03.367,-0.085,0.045
11:48:03.375,-0.045,0.055
11:48:03.383,-0.005,0.065
11:48:03.391,0.025,0.045
11:48:03.398,0.075,0.045
11:48:03.406,0.155,0.065
11:48:03.414,0.215,0.055
11:48:03.422,0.285,0.055
11:48:03.430,0.335,0.055
11:48:03.438,0.365,0.055
11:48:03.445,0.395,0.075
11:48:03.453,0.365,0.055
11:48:03.461,0.325,0.045
11:48:03.469,0.255,0.025
11:48:03.477,0.185,0.025
11:48:03.484,0.115,0.015
11:48:03.492,0.005,-0.015
11:48:03.500,-0.035,-0.035
11:48:03.508,-0.095,-0.035
11:48:03.516,-0.145,-0.055
11:48:03.523,-0.155,-0.065
11:48:03.531,-0.145,-0.065
11:48:03.539,-0.155,-0.065
11:48:03.547,-0.125,-0.055
11:48:03.555,-0.125,-0.085
11:48:03.563,-0.135,-0.055
11:48:03.570,-0.125,-0.035
11:48:03.578,-0.145,-0.045
11:48:03.586,-0.135,-0.055
11:48:03.594,-0.135,-0.045
11:48:03.602,-0.135,-0.045
11:48:03.609,-0.095,-0.025
11:48:03.617,-0.095,-0.045
11:48:03.625,-0.095,-0.045
11:48:03.633,-0.095,-0.045
11:48:03.641,-0.125,-0.055
11:48:03.648,-0.115,-0.065
11:48:03.656,-0.105,-0.065
11:48:03.664,-0.115,-0.065
11:48:03.672,-0.095,-0.065
11:48:03.680,-0.105,-0.075
11:48:03.688,-0.115,-0.085
11:48:03.695,-0.115,-0.065
11:48:03.703,-0.135,-0.075
11:48:03.711,-0.145,-0.105
11:48:03.719,-0.145,-0.095
11:48:03.727,-0.115,-0.085
11:48:03.734,-0.105,-0.085
11:48:03.742,-0.115,-0.115
11:48:03.750,-0.125,-0.115
11:48:03.758,-0.115,-0.095
11:48:03.766,-0.135,-0.105
11:48:03.773,-0.135,-0.115
11:48:03.781,-0.125,-0.125
11:48:03.789,-0.125,-0.115
11:48:03.797,-0.095,-0.115
11:48:03.805,-0.105,-0.115
11:48:03.813,-0.105,-0.115
11:48:03.820,-0.095,-0.095
11:48:03.828,-0.115,-0.105
11:48:03.836,-0.095,-0.115
11:48:03.844,-0.085,-0.085
11:48:03.852,-0.025,-0.035
11:48:03.859,0.025,-0.045
11:48:03.867,0.005,-0.095
11:48:03.875,0.095,-0.105
11:48:03.883,0.095,-0.115
11:48:03.891,-0.015,-0.165
11:48:03.898,-0.065,-0.135
11:48:03.906,-0.045,-0.155
11:48:03.914,-0.065,-0.155
11:48:03.922,-0.085,-0.105
11:48:03.930,-0.105,-0.135
11:48:03.938,-0.125,-0.155
11:48:03.945,-0.115,-0.135
11:48:03.953,-0.145,-0.155
11:48:03.961,-0.135,-0.155
11:48:03.969,-0.135,-0.165
11:48:03.977,-0.135,-0.145
11:48:03.984,-0.095,-0.115
11:48:03.992,-0.085,-0.155
11:48:04.000,-0.095,0.055
11:48:04.008,-0.415,0.195
11:48:04.016,-0.665,0.035
11:48:04.023,0.155,-1.235
11:48:04.031,1.755,-1.375
11:48:04.039,2.675,-0.815
11:48:04.047,2.915,-0.655
11:48:04.055,1.225,-0.175
11:48:04.063,0.015,0.005
11:48:04.070,-0.065,0.025
11:48:04.078,-0.145,0.005
11:48:04.086,-0.185,-0.015
11:48:04.094,-0.205,-0.005
11:48:04.102,-0.215,0.005
11:48:04.109,-0.185,0.015
11:48:04.117,-0.195,0.015
11:48:04.125,-0.205,0.005
11:48:04.133,-0.205,0.025
11:48:04.141,-0.205,-0.005
11:48:04.148,-0.205,0.005
11:48:04.156,-0.195,0.025
11:48:04.164,-0.175,0.035
11:48:04.172,-0.145,0.025
11:48:04.180,-0.135,0.025
11:48:04.188,-0.115,0.035
11:48:04.195,-0.095,0.055
11:48:04.203,-0.095,0.065
11:48:04.211,-0.065,0.075
11:48:04.219,-0.015,0.075
11:48:04.227,0.035,0.085
11:48:04.234,0.115,0.115
11:48:04.242,0.165,0.105
11:48:04.250,0.205,0.105
11:48:04.258,0.255,0.125
11:48:04.266,0.295,0.115
11:48:04.273,0.335,0.105
11:48:04.281,0.395,0.095
11:48:04.289,0.415,0.125
11:48:04.297,0.415,0.115
11:48:04.305,0.365,0.085
11:48:04.313,0.265,0.045
11:48:04.320,0.175,0.045
11:48:04.328,0.055,-0.005
11:48:04.336,-0.015,-0.035
11:48:04.344,-0.045,-0.045
11:48:04.352,-0.075,-0.045
11:48:04.359,-0.075,-0.045
11:48:04.367,-0.085,-0.065
11:48:04.375,-0.095,-0.065
11:48:04.383,-0.105,-0.055
11:48:04.391,-0.115,-0.055
11:48:04.398,-0.115,-0.065
11:48:04.406,-0.105,-0.055
11:48:04.414,-0.095,-0.055
11:48:04.422,-0.075,-0.025
11:48:04.430,-0.075,-0.045
11:48:04.438,-0.085,-0.035
11:48:04.445,-0.085,-0.025
11:48:04.453,-0.105,-0.045
11:48:04.461,-0.115,-0.055
11:48:04.469,-0.105,-0.055
11:48:04.477,-0.105,-0.035
11:48:04.484,-0.085,-0.045
11:48:04.492,-0.095,-0.075
11:48:04.500,-0.105,-0.055
11:48:04.508,-0.105,-0.045
11:48:04.516,-0.135,-0.085
11:48:04.523,-0.135,-0.095
11:48:04.531,-0.135,-0.095
11:48:04.539,-0.135,-0.095
11:48:04.547,-0.115,-0.085
11:48:04.555,-0.135,-0.115
11:48:04.563,-0.145,-0.105
11:48:04.570,-0.135,-0.085
11:48:04.578,-0.155,-0.115
11:48:04.586,-0.165,-0.125
11:48:04.594,-0.155,-0.115
11:48:04.602,-0.165,-0.125
11:48:04.609,-0.125,-0.115
11:48:04.617,-0.135,-0.135
11:48:04.625,-0.135,-0.115
11:48:04.633,-0.145,-0.105
11:48:04.641,-0.165,-0.105
11:48:04.648,-0.165,-0.135
11:48:04.656,-0.155,-0.115
11:48:04.664,-0.155,-0.115
11:48:04.672,-0.125,-0.115
11:48:04.680,-0.135,-0.115
11:48:04.688,-0.135,-0.115
11:48:04.695,-0.135,-0.085
11:48:04.703,-0.135,-0.085
11:48:04.711,-0.135,-0.145
11:48:04.719,-0.105,-0.085
11:48:04.727,-0.065,-0.065
11:48:04.734,-0.035,-0.095
11:48:04.742,0.005,-0.095
11:48:04.750,0.065,-0.135
11:48:04.758,0.015,-0.135
11:48:04.766,-0.115,-0.135
11:48:04.773,-0.105,-0.145
11:48:04.781,-0.105,-0.145
11:48:04.789,-0.135,-0.135
11:48:04.797,-0.135,-0.115
11:48:04.805,-0.155,-0.155
11:48:04.813,-0.175,-0.145
11:48:04.820,-0.165,-0.125
11:48:04.828,-0.175,-0.155
11:48:04.836,-0.185,-0.135
11:48:04.844,-0.175,-0.155
11:48:04.852,-0.165,-0.135
11:48:04.859,-0.165,-0.135
11:48:04.867,-0.145,-0.115
11:48:04.875,-0.185,0.115
11:48:04.883,-0.605,0.165
11:48:04.891,-0.665,-0.135
11:48:04.898,0.415,-1.335
11:48:04.906,1.885,-1.135
11:48:04.914,2.735,-0.745
11:48:04.922,2.425,-0.495
11:48:04.930,0.505,-0.105
11:48:04.938,-0.135,0.005
11:48:04.945,-0.175,0.005
11:48:04.953,-0.235,-0.015
11:48:04.961,-0.265,-0.045
11:48:04.969,-0.285,-0.035
11:48:04.977,-0.295,-0.025
11:48:04.984,-0.265,-0.025
11:48:04.992,-0.265,-0.025
11:48:05.000,-0.275,-0.015
11:48:05.008,-0.255,0.005
11:48:05.016,-0.275,-0.025
11:48:05.023,-0.275,-0.045
11:48:05.031,-0.255,-0.015
11:48:05.039,-0.255,0.005
11:48:05.047,-0.205,0.025
11:48:05.055,-0.195,0.015
11:48:05.063,-0.185,0.005
11:48:05.070,-0.165,0.025
11:48:05.078,-0.155,0.045
11:48:05.086,-0.125,0.035
11:48:05.094,-0.075,0.045
11:48:05.102,-0.035,0.045
11:48:05.109,0.055,0.065
11:48:05.117,0.105,0.075
11:48:05.125,0.155,0.065
11:48:05.133,0.205,0.085
11:48:05.141,0.235,0.075
11:48:05.148,0.265,0.065
11:48:05.156,0.305,0.045
11:48:05.164,0.325,0.075
11:48:05.172,0.325,0.055
11:48:05.180,0.245,0.045
11:48:05.188,0.155,-0.005
11:48:05.195,0.065,-0.005
11:48:05.203,-0.075,-0.045
11:48:05.211,-0.145,-0.065
11:48:05.219,-0.175,-0.085
11:48:05.227,-0.205,-0.105
11:48:05.234,-0.195,-0.085
11:48:05.242,-0.195,-0.105
11:48:05.250,-0.205,-0.105
11:48:05.258,-0.195,-0.085
11:48:05.266,-0.235,-0.105
11:48:05.273,-0.215,-0.115
11:48:05.281,-0.215,-0.105
11:48:05.289,-0.235,-0.095
11:48:05.297,-0.195,-0.095
11:48:05.305,-0.195,-0.095
11:48:05.313,-0.205,-0.105
11:48:05.320,-0.195,-0.075
11:48:05.328,-0.215,-0.095
11:48:05.336,-0.215,-0.105
11:48:05.344,-0.215,-0.095
11:48:05.352,-0.225,-0.105
11:48:05.359,-0.205,-0.085
11:48:05.367,-0.225,-0.095
11:48:05.375,-0.225,-0.115
11:48:05.383,-0.215,-0.105
11:48:05.391,-0.255,-0.115
11:48:05.398,-0.245,-0.125
11:48:05.406,-0.255,-0.145
11:48:05.414,-0.265,-0.145
11:48:05.422,-0.225,-0.125
11:48:05.430,-0.235,-0.145
11:48:05.438,-0.245,-0.145
11:48:05.445,-0.245,-0.135
11:48:05.453,-0.265,-0.155
11:48:05.461,-0.275,-0.165
11:48:05.469,-0.265,-0.145
11:48:05.477,-0.255,-0.145
11:48:05.484,-0.235,-0.135
11:48:05.492,-0.235,-0.165
11:48:05.500,-0.255,-0.165
11:48:05.508,-0.235,-0.145
11:48:05.516,-0.245,-0.155
11:48:05.523,-0.255,-0.175
11:48:05.531,-0.245,-0.155
11:48:05.539,-0.235,-0.145
11:48:05.547,-0.195,-0.175
11:48:05.555,-0.205,-0.135
11:48:05.563,-0.165,-0.115
11:48:05.570,-0.145,-0.115
11:48:05.578,-0.175,-0.135
11:48:05.586,-0.075,-0.155
11:48:05.594,-0.065,-0.185
11:48:05.602,-0.155,-0.165
11:48:05.609,-0.145,-0.135
11:48:05.617,-0.155,-0.185
11:48:05.625,-0.215,-0.175
11:48:05.633,-0.235,-0.155
11:48:05.641,-0.265,-0.165
11:48:05.648,-0.265,-0.185
11:48:05.656,-0.245,-0.175
11:48:05.664,-0.255,-0.175
11:48:05.672,-0.225,-0.165
11:48:05.680,-0.225,-0.175
11:48:05.688,-0.235,-0.165
11:48:05.695,-0.225,-0.155
11:48:05.703,-0.235,-0.135
11:48:05.711,-0.365,0.065
11:48:05.719,-0.775,0.135
11:48:05.727,-0.705,-0.165
11:48:05.734,0.735,-1.275
11:48:05.742,2.155,-0.915
11:48:05.750,2.785,-0.755
11:48:05.758,2.305,-0.565
11:48:05.766,0.335,-0.185
11:48:05.773,-0.275,-0.045
11:48:05.781,-0.235,-0.025
11:48:05.789,-0.275,-0.045
11:48:05.797,-0.295,-0.015
11:48:05.805,-0.305,-0.055
11:48:05.813,-0.325,-0.035
11:48:05.820,-0.315,-0.035
11:48:05.828,-0.345,-0.025
11:48:05.836,-0.335,-0.055
11:48:05.844,-0.325,-0.025
11:48:05.852,-0.315,-0.025
11:48:05.859,-0.285,-0.015
11:48:05.867,-0.285,-0.035
11:48:05.875,-0.275,-0.025
11:48:05.883,-0.245,-0.005
11:48:05.891,-0.265,-0.025
11:48:05.898,-0.245,-0.025
11:48:05.906,-0.205,0.005
11:48:05.914,-0.185,0.005
11:48:05.922,-0.125,0.035
11:48:05.930,-0.085,0.015
11:48:05.938,-0.035,0.005
11:48:05.945,0.015,0.045
11:48:05.953,0.035,0.025
11:48:05.961,0.095,0.025
11:48:05.969,0.155,0.025
11:48:05.977,0.205,0.025
11:48:05.984,0.275,0.025
11:48:05.992,0.305,0.045
11:48:06.000,0.295,0.045
11:48:06.008,0.285,0.065
11:48:06.016,0.155,0.035
11:48:06.023,0.075,0.025
11:48:06.031,-0.005,0.005
11:48:06.039,-0.095,-0.025
11:48:06.047,-0.115,-0.035
11:48:06.055,-0.175,-0.055
11:48:06.063,-0.215,-0.075
11:48:06.070,-0.215,-0.065
11:48:06.078,-0.245,-0.075
11:48:06.086,-0.235,-0.085
11:48:06.094,-0.225,-0.075
11:48:06.102,-0.235,-0.075
11:48:06.109,-0.205,-0.055
11:48:06.117,-0.195,-0.045
11:48:06.125,-0.205,-0.035
11:48:06.133,-0.205,-0.045
11:48:06.141,-0.215,-0.065
11:48:06.148,-0.205,-0.055
11:48:06.156,-0.185,-0.055
11:48:06.164,-0.205,-0.055
11:48:06.172,-0.175,-0.045
11:48:06.180,-0.175,-0.065
11:48:06.188,-0.185,-0.065
11:48:06.195,-0.175,-0.065
11:48:06.203,-0.195,-0.075
11:48:06.211,-0.195,-0.075
11:48:06.219,-0.185,-0.075
11:48:06.227,-0.195,-0.085
11:48:06.234,-0.175,-0.075
11:48:06.242,-0.175,-0.085
11:48:06.250,-0.175,-0.095
11:48:06.258,-0.185,-0.085
11:48:06.266,-0.195,-0.105
11:48:06.273,-0.205,-0.105
11:48:06.281,-0.195,-0.095
11:48:06.289,-0.205,-0.095
11:48:06.297,-0.185,-0.075
11:48:06.305,-0.195,-0.095
11:48:06.313,-0.185,-0.085
11:48:06.320,-0.185,-0.085
11:48:06.328,-0.215,-0.085
11:48:06.336,-0.215,-0.105
11:48:06.344,-0.195,-0.075
11:48:06.352,-0.195,-0.095
11:48:06.359,-0.115,-0.035
11:48:06.367,-0.095,-0.035
11:48:06.375,-0.115,-0.065
11:48:06.383,-0.105,-0.055
11:48:06.391,-0.035,-0.075
11:48:06.398,-0.055,-0.125
11:48:06.406,-0.135,-0.115
11:48:06.414,-0.135,-0.115
11:48:06.422,-0.135,-0.115
11:48:06.430,-0.175,-0.105
11:48:06.438,-0.185,-0.105
11:48:06.445,-0.205,-0.115
11:48:06.453,-0.225,-0.115
11:48:06.461,-0.225,-0.125
11:48:06.469,-0.215,-0.115
11:48:06.477,-0.195,-0.105
11:48:06.484,-0.185,-0.105
11:48:06.492,-0.185,-0.105
11:48:06.500,-0.185,-0.105
11:48:06.508,-0.155,-0.005
11:48:06.516,-0.395,0.145
11:48:06.523,-0.725,0.155
11:48:06.531,-0.415,-0.565
11:48:06.539,1.235,-1.345
11:48:06.547,2.345,-0.895
11:48:06.555,2.815,-0.715
11:48:06.563,2.095,-0.425
11:48:06.570,0.265,-0.075
11:48:06.578,-0.175,0.045
11:48:06.586,-0.205,0.035
11:48:06.594,-0.255,0.035
11:48:06.602,-0.285,0.045
11:48:06.609,-0.245,0.055
11:48:06.617,-0.265,0.015
11:48:06.625,-0.275,0.025
11:48:06.633,-0.265,0.045
11:48:06.641,-0.275,0.025
11:48:06.648,-0.285,0.015
11:48:06.656,-0.255,0.035
11:48:06.664,-0.235,0.045
11:48:06.672,-0.205,0.045
11:48:06.680,-0.195,0.045
11:48:06.688,-0.175,0.045
11:48:06.695,-0.155,0.055
11:48:06.703,-0.175,0.055
11:48:06.711,-0.125,0.055
11:48:06.719,-0.095,0.075
11:48:06.727,-0.065,0.085
11:48:06.734,-0.005,0.105
11:48:06.742,0.035,0.115
11:48:06.750,0.085,0.125
11:48:06.758,0.165,0.125
11:48:06.766,0.195,0.125
11:48:06.773,0.245,0.105
11:48:06.781,0.295,0.115
11:48:06.789,0.345,0.135
11:48:06.797,0.395,0.135
11:48:06.805,0.365,0.115
11:48:06.813,0.325,0.115
11:48:06.820,0.235,0.105
11:48:06.828,0.115,0.045
11:48:06.836,0.005,0.005
11:48:06.844,-0.065,-0.015
11:48:06.852,-0.105,-0.025
11:48:06.859,-0.115,-0.025
11:48:06.867,-0.135,-0.045
11:48:06.875,-0.155,-0.035
11:48:06.883,-0.165,-0.035
11:48:06.891,-0.185,-0.045
11:48:06.898,-0.185,-0.055
11:48:06.906,-0.175,-0.045
11:48:06.914,-0.155,-0.035
11:48:06.922,-0.125,-0.025
11:48:06.930,-0.135,-0.035
11:48:06.938,-0.155,-0.025
11:48:06.945,-0.135,-0.005
11:48:06.953,-0.155,-0.025
11:48:06.961,-0.165,-0.035
11:48:06.969,-0.135,-0.025
11:48:06.977,-0.135,-0.035
11:48:06.984,-0.105,-0.015
11:48:06.992,-0.105,-0.035
11:48:07.000,-0.125,-0.045
11:48:07.008,-0.115,-0.035
11:48:07.016,-0.145,-0.035
11:48:07.023,-0.135,-0.055
11:48:07.031,-0.135,-0.065
11:48:07.039,-0.145,-0.055
11:48:07.047,-0.125,-0.065
11:48:07.055,-0.145,-0.075
11:48:07.063,-0.145,-0.085
11:48:07.070,-0.135,-0.085
11:48:07.078,-0.185,-0.095
11:48:07.086,-0.185,-0.095
11:48:07.094,-0.165,-0.095
11:48:07.102,-0.155,-0.095
11:48:07.109,-0.145,-0.095
11:48:07.117,-0.145,-0.095
11:48:07.125,-0.155,-0.095
11:48:07.133,-0.145,-0.095
11:48:07.141,-0.185,-0.095
11:48:07.148,-0.185,-0.105
11:48:07.156,-0.175,-0.095
11:48:07.164,-0.165,-0.095
11:48:07.172,-0.135,-0.085
11:48:07.180,-0.135,-0.075
11:48:07.188,-0.115,-0.075
11:48:07.195,-0.095,-0.025
11:48:07.203,-0.075,-0.035
11:48:07.211,-0.085,-0.065
11:48:07.219,-0.045,-0.075
11:48:07.227,0.035,-0.085
11:48:07.234,0.035,-0.095
11:48:07.242,-0.065,-0.105
11:48:07.250,-0.085,-0.105
11:48:07.258,-0.085,-0.115
11:48:07.266,-0.135,-0.115
11:48:07.273,-0.165,-0.105
11:48:07.281,-0.175,-0.115
11:48:07.289,-0.175,-0.125
11:48:07.297,-0.135,-0.105
11:48:07.305,-0.155,-0.115
11:48:07.313,-0.155,-0.105
11:48:07.320,-0.135,-0.105
11:48:07.328,-0.165,-0.095
11:48:07.336,-0.165,-0.125
11:48:07.344,-0.135,-0.095
11:48:07.352,-0.235,0.165
11:48:07.359,-0.625,0.205
11:48:07.367,-0.505,-0.485
11:48:07.375,1.115,-1.465
11:48:07.383,2.365,-0.945
11:48:07.391,2.855,-0.725
11:48:07.398,2.125,-0.435
11:48:07.406,0.405,-0.045
11:48:07.414,-0.095,0.055
11:48:07.422,-0.095,0.055
11:48:07.430,-0.165,0.005
11:48:07.438,-0.215,0.025
11:48:07.445,-0.225,0.035
11:48:07.453,-0.275,0.015
11:48:07.461,-0.265,0.025
11:48:07.469,-0.265,0.015
11:48:07.477,-0.275,0.035
11:48:07.484,-0.215,0.035
11:48:07.492,-0.235,0.015
11:48:07.500,-0.235,0.025
11:48:07.508,-0.215,0.045
11:48:07.516,-0.235,0.035
11:48:07.523,-0.215,0.035
11:48:07.531,-0.195,0.055
11:48:07.539,-0.175,0.055
11:48:07.547,-0.125,0.065
11:48:07.555,-0.105,0.075
11:48:07.563,-0.085,0.095
11:48:07.570,-0.025,0.105
11:48:07.578,0.005,0.095
11:48:07.586,0.065,0.115
11:48:07.594,0.115,0.135
11:48:07.602,0.165,0.135
11:48:07.609,0.235,0.145
11:48:07.617,0.285,0.125
11:48:07.625,0.305,0.135
11:48:07.633,0.355,0.155
11:48:07.641,0.355,0.145
11:48:07.648,0.305,0.115
11:48:07.656,0.245,0.105
11:48:07.664,0.145,0.075
11:48:07.672,0.085,0.055
11:48:07.680,-0.015,-0.005
11:48:07.688,-0.095,-0.025
11:48:07.695,-0.125,-0.035
11:48:07.703,-0.185,-0.035
11:48:07.711,-0.195,-0.045
11:48:07.719,-0.195,-0.065
11:48:07.727,-0.195,-0.085
11:48:07.734,-0.175,-0.055
11:48:07.742,-0.175,-0.065
11:48:07.750,-0.185,-0.075
11:48:07.758,-0.185,-0.045
11:48:07.766,-0.225,-0.055
11:48:07.773,-0.225,-0.055
11:48:07.781,-0.205,-0.045
11:48:07.789,-0.175,-0.035
11:48:07.797,-0.175,-0.035
11:48:07.805,-0.185,-0.055
11:48:07.813,-0.185,-0.045
11:48:07.820,-0.195,-0.025
11:48:07.828,-0.215,-0.045
11:48:07.836,-0.205,-0.065
11:48:07.844,-0.195,-0.065
11:48:07.852,-0.205,-0.075
11:48:07.859,-0.185,-0.065
11:48:07.867,-0.185,-0.055
11:48:07.875,-0.195,-0.075
11:48:07.883,-0.205,-0.085
11:48:07.891,-0.225,-0.075
11:48:07.898,-0.235,-0.105
11:48:07.906,-0.235,-0.105
11:48:07.914,-0.235,-0.085
11:48:07.922,-0.205,-0.095
11:48:07.930,-0.215,-0.105
11:48:07.938,-0.225,-0.125
11:48:07.945,-0.225,-0.115
11:48:07.953,-0.235,-0.115
11:48:07.961,-0.245,-0.125
11:48:07.969,-0.235,-0.135
11:48:07.977,-0.235,-0.115
11:48:07.984,-0.195,-0.095
11:48:07.992,-0.225,-0.125
11:48:08.000,-0.215,-0.115
11:48:08.008,-0.215,-0.115
11:48:08.016,-0.245,-0.105
11:48:08.023,-0.215,-0.105
11:48:08.031,-0.215,-0.135
11:48:08.039,-0.175,-0.075
11:48:08.047,-0.115,-0.055
11:48:08.055,-0.135,-0.105
11:48:08.063,-0.105,-0.095
11:48:08.070,-0.015,-0.115
11:48:08.078,-0.115,-0.155
11:48:08.086,-0.175,-0.135
11:48:08.094,-0.145,-0.145
11:48:08.102,-0.175,-0.155
11:48:08.109,-0.185,-0.115
11:48:08.117,-0.195,-0.145
11:48:08.125,-0.225,-0.155
11:48:08.133,-0.225,-0.135
11:48:08.141,-0.245,-0.135
11:48:08.148,-0.255,-0.135
11:48:08.156,-0.245,-0.135
11:48:08.164,-0.235,-0.135
11:48:08.172,-0.215,-0.125
11:48:08.180,-0.205,-0.125
11:48:08.188,-0.205,-0.015
11:48:08.195,-0.495,0.135
11:48:08.203,-0.785,0.145
11:48:08.211,-0.465,-0.495
11:48:08.219,1.035,-1.335
11:48:08.227,2.345,-0.825
11:48:08.234,2.885,-0.695
11:48:08.242,1.625,-0.385
11:48:08.250,0.005,-0.075
11:48:08.258,-0.195,0.025
11:48:08.266,-0.265,-0.015
11:48:08.273,-0.305,-0.035
11:48:08.281,-0.315,-0.035
11:48:08.289,-0.325,-0.035
11:48:08.297,-0.295,-0.025
11:48:08.305,-0.305,-0.035
11:48:08.313,-0.305,-0.005
11:48:08.320,-0.285,-0.005
11:48:08.328,-0.315,-0.015
11:48:08.336,-0.325,-0.015
11:48:08.344,-0.285,-0.005
11:48:08.352,-0.275,0.005
11:48:08.359,-0.235,0.015
11:48:08.367,-0.245,-0.015
11:48:08.375,-0.215,0.015
11:48:08.383,-0.185,0.045
11:48:08.391,-0.185,0.015
11:48:08.398,-0.175,0.015
11:48:08.406,-0.135,0.015
11:48:08.414,-0.085,0.025
11:48:08.422,-0.025,0.035
11:48:08.430,0.015,0.025
11:48:08.438,0.075,0.025
11:48:08.445,0.145,0.025
11:48:08.453,0.175,0.025
11:48:08.461,0.215,0.035
11:48:08.469,0.275,0.045
11:48:08.477,0.305,0.055
11:48:08.484,0.315,0.065
11:48:08.492,0.265,0.055
11:48:08.500,0.185,0.025
11:48:08.508,0.085,0.045
11:48:08.516,-0.015,0.005
11:48:08.523,-0.115,-0.045
11:48:08.531,-0.155,-0.065
11:48:08.539,-0.185,-0.055
11:48:08.547,-0.185,-0.055
11:48:08.555,-0.205,-0.075
11:48:08.563,-0.225,-0.065
11:48:08.570,-0.215,-0.065
11:48:08.578,-0.255,-0.075
11:48:08.586,-0.245,-0.075
11:48:08.594,-0.245,-0.065
11:48:08.602,-0.225,-0.055
11:48:08.609,-0.195,-0.045
11:48:08.617,-0.205,-0.055
11:48:08.625,-0.205,-0.045
11:48:08.633,-0.195,-0.045
11:48:08.641,-0.225,-0.055
11:48:08.648,-0.225,-0.065
11:48:08.656,-0.215,-0.065
11:48:08.664,-0.225,-0.065
11:48:08.672,-0.175,-0.055
11:48:08.680,-0.185,-0.065
11:48:08.688,-0.205,-0.065
11:48:08.695,-0.195,-0.075
11:48:08.703,-0.235,-0.095
11:48:08.711,-0.235,-0.105
11:48:08.719,-0.215,-0.095
11:48:08.727,-0.235,-0.105
11:48:08.734,-0.195,-0.095
11:48:08.742,-0.225,-0.115
11:48:08.750,-0.225,-0.115
11:48:08.758,-0.215,-0.095
11:48:08.766,-0.255,-0.115
11:48:08.773,-0.245,-0.105
11:48:08.781,-0.225,-0.105
11:48:08.789,-0.235,-0.115
11:48:08.797,-0.195,-0.105
11:48:08.805,-0.225,-0.095
11:48:08.813,-0.195,-0.075
11:48:08.820,-0.165,-0.095
11:48:08.828,-0.175,-0.055
11:48:08.836,-0.135,-0.065
11:48:08.844,-0.125,-0.065
11:48:08.852,-0.125,-0.065
11:48:08.859,0.005,-0.075
11:48:08.867,-0.035,-0.115
11:48:08.875,-0.125,-0.105
11:48:08.883,-0.115,-0.105
11:48:08.891,-0.165,-0.165
11:48:08.898,-0.215,-0.145
11:48:08.906,-0.195,-0.105
11:48:08.914,-0.235,-0.145
11:48:08.922,-0.205,-0.135
11:48:08.930,-0.195,-0.135
11:48:08.938,-0.205,-0.125
11:48:08.945,-0.195,-0.135
11:48:08.953,-0.215,-0.135
11:48:08.961,-0.215,-0.145
11:48:08.969,-0.195,-0.135
11:48:08.977,-0.175,-0.105
11:48:08.984,-0.205,0.125
11:48:08.992,-0.655,0.185
11:48:09.000,-0.685,-0.035
11:48:09.008,0.535,-1.225
11:48:09.016,2.015,-1.015
11:48:09.023,2.735,-0.755
11:48:09.031,2.615,-0.595
11:48:09.039,0.795,-0.185
11:48:09.047,-0.105,0.025
11:48:09.055,-0.135,0.035
11:48:09.063,-0.175,0.035
11:48:09.070,-0.215,0.035
11:48:09.078,-0.265,0.015
11:48:09.086,-0.275,0.005
11:48:09.094,-0.275,0.005
11:48:09.102,-0.255,0.025
11:48:09.109,-0.235,0.035
11:48:09.117,-0.235,0.025
11:48:09.125,-0.235,0.015
11:48:09.133,-0.215,0.015
11:48:09.141,-0.235,0.025
11:48:09.148,-0.225,0.005
11:48:09.156,-0.205,0.005
11:48:09.164,-0.195,0.035
11:48:09.172,-0.145,0.035
11:48:09.180,-0.135,0.035
11:48:09.188,-0.105,0.035
11:48:09.195,-0.055,0.065
11:48:09.203,-0.055,0.045
11:48:09.211,0.005,0.045
11:48:09.219,0.065,0.065
11:48:09.227,0.135,0.075
11:48:09.234,0.215,0.095
11:48:09.242,0.265,0.055
11:48:09.250,0.315,0.065
11:48:09.258,0.365,0.075
11:48:09.266,0.355,0.075
11:48:09.273,0.355,0.075
11:48:09.281,0.365,0.075
11:48:09.289,0.305,0.075
11:48:09.297,0.235,0.065
11:48:09.305,0.155,0.055
11:48:09.313,0.045,0.015
11:48:09.320,-0.015,0.005
11:48:09.328,-0.095,-0.035
11:48:09.336,-0.145,-0.055
11:48:09.344,-0.145,-0.055
11:48:09.352,-0.135,-0.065
11:48:09.359,-0.155,-0.065
11:48:09.367,-0.135,-0.055
11:48:09.375,-0.135,-0.055
11:48:09.383,-0.135,-0.065
11:48:09.391,-0.155,-0.055
11:48:09.398,-0.155,-0.055
11:48:09.406,-0.145,-0.065
11:48:09.414,-0.115,-0.055
11:48:09.422,-0.105,-0.035
11:48:09.430,-0.105,-0.045
11:48:09.438,-0.105,-0.035
11:48:09.445,-0.105,-0.045
11:48:09.453,-0.115,-0.035
11:48:09.461,-0.125,-0.055
11:48:09.469,-0.125,-0.055
11:48:09.477,-0.115,-0.055
11:48:09.484,-0.095,-0.035
11:48:09.492,-0.085,-0.055
11:48:09.500,-0.105,-0.045
11:48:09.508,-0.105,-0.065
11:48:09.516,-0.125,-0.065
11:48:09.523,-0.135,-0.065
11:48:09.531,-0.125,-0.065
11:48:09.539,-0.115,-0.065
11:48:09.547,-0.115,-0.065
11:48:09.555,-0.115,-0.075
11:48:09.563,-0.115,-0.085
11:48:09.570,-0.115,-0.065
11:48:09.578,-0.125,-0.075
11:48:09.586,-0.145,-0.085
11:48:09.594,-0.125,-0.075
11:48:09.602,-0.115,-0.095
11:48:09.609,-0.105,-0.095
11:48:09.617,-0.115,-0.085
11:48:09.625,-0.105,-0.085
11:48:09.633,-0.085,-0.075
11:48:09.641,-0.095,-0.085
11:48:09.648,-0.065,-0.045
11:48:09.656,-0.015,-0.025
11:48:09.664,-0.005,-0.045
11:48:09.672,0.045,-0.055
11:48:09.680,0.125,-0.075
11:48:09.688,0.065,-0.115
11:48:09.695,-0.015,-0.095
11:48:09.703,-0.055,-0.115
11:48:09.711,-0.075,-0.155
11:48:09.719,-0.095,-0.115
11:48:09.727,-0.095,-0.115
11:48:09.734,-0.105,-0.115
11:48:09.742,-0.095,-0.115
11:48:09.750,-0.095,-0.115
11:48:09.758,-0.095,-0.105
11:48:09.766,-0.115,-0.115
11:48:09.773,-0.115,-0.115
11:48:09.781,-0.105,-0.105
11:48:09.789,-0.095,-0.105
11:48:09.797,-0.035,-0.005
11:48:09.805,-0.265,0.205
11:48:09.813,-0.615,0.235
11:48:09.820,-0.295,-0.625
11:48:09.828,1.285,-1.545
11:48:09.836,2.475,-0.925
11:48:09.844,2.965,-0.725
11:48:09.852,1.875,-0.325
11:48:09.859,0.245,0.015
11:48:09.867,-0.045,0.055
11:48:09.875,-0.085,0.045
11:48:09.883,-0.115,0.025
11:48:09.891,-0.185,0.025
11:48:09.898,-0.195,0.015
11:48:09.906,-0.175,0.025
11:48:09.914,-0.185,0.025
11:48:09.922,-0.155,0.045
11:48:09.930,-0.165,0.035
11:48:09.938,-0.165,0.045
11:48:09.945,-0.135,0.055
11:48:09.953,-0.165,0.025
11:48:09.961,-0.145,0.035
11:48:09.969,-0.115,0.045
11:48:09.977,-0.115,0.045
11:48:09.984,-0.065,0.065
11:48:09.992,-0.055,0.065
11:48:10.000,-0.035,0.065
11:48:10.008,0.015,0.085
11:48:10.016,0.005,0.095
11:48:10.023,0.055,0.105
11:48:10.031,0.115,0.115
11:48:10.039,0.175,0.125
11:48:10.047,0.275,0.125
11:48:10.055,0.325,0.105
11:48:10.063,0.355,0.125
11:48:10.070,0.405,0.135
11:48:10.078,0.405,0.125
11:48:10.086,0.425,0.115
11:48:10.094,0.435,0.125
11:48:10.102,0.395,0.105
11:48:10.109,0.345,0.095
11:48:10.117,0.255,0.045
11:48:10.125,0.155,0.025
11:48:10.133,0.085,0.015
11:48:10.141,0.005,-0.035
11:48:10.148,-0.025,-0.055
11:48:10.156,-0.045,-0.035
11:48:10.164,-0.055,-0.055
11:48:10.172,-0.035,-0.035
11:48:10.180,-0.035,-0.055
11:48:10.188,-0.035,-0.065
11:48:10.195,-0.025,-0.045
11:48:10.203,-0.035,-0.065
11:48:10.211,-0.045,-0.055
11:48:10.219,-0.035,-0.045
11:48:10.227,-0.035,-0.035
11:48:10.234,-0.005,-0.025
11:48:10.242,-0.005,-0.035
11:48:10.250,-0.005,-0.045
11:48:10.258,-0.005,-0.025
11:48:10.266,-0.015,-0.035
11:48:10.273,-0.025,-0.055
11:48:10.281,-0.015,-0.045
11:48:10.289,-0.015,-0.065
11:48:10.297,0.005,-0.055
11:48:10.305,-0.015,-0.065
11:48:10.313,-0.015,-0.065
11:48:10.320,-0.015,-0.085
11:48:10.328,-0.035,-0.075
11:48:10.336,-0.045,-0.095
11:48:10.344,-0.035,-0.085
11:48:10.352,-0.035,-0.105
11:48:10.359,-0.035,-0.095
11:48:10.367,-0.035,-0.105
11:48:10.375,-0.045,-0.115
11:48:10.383,-0.055,-0.115
11:48:10.391,-0.075,-0.115
11:48:10.398,-0.085,-0.135
11:48:10.406,-0.085,-0.125
11:48:10.414,-0.085,-0.115
11:48:10.422,-0.075,-0.115
11:48:10.430,-0.075,-0.135
11:48:10.438,-0.075,-0.125
11:48:10.445,-0.075,-0.125
11:48:10.453,-0.095,-0.125
11:48:10.461,-0.115,-0.125
11:48:10.469,-0.105,-0.115
11:48:10.477,-0.085,-0.105
11:48:10.484,-0.075,-0.115
11:48:10.492,-0.055,-0.095
11:48:10.500,-0.025,-0.085
11:48:10.508,-0.035,-0.105
11:48:10.516,0.015,-0.125
11:48:10.523,0.065,-0.155
11:48:10.531,-0.005,-0.175
11:48:10.539,-0.085,-0.155
11:48:10.547,-0.045,-0.145
11:48:10.555,-0.075,-0.155
11:48:10.563,-0.145,-0.135
11:48:10.570,-0.135,-0.125
11:48:10.578,-0.175,-0.145
11:48:10.586,-0.175,-0.145
11:48:10.594,-0.155,-0.145
11:48:10.602,-0.165,-0.135
11:48:10.609,-0.125,-0.125
11:48:10.617,-0.125,-0.145
11:48:10.625,-0.135,-0.145
11:48:10.633,-0.135,-0.125
11:48:10.641,-0.135,-0.055
11:48:10.648,-0.305,0.045
11:48:10.656,-0.695,-0.045
11:48:10.664,-0.365,-0.655
11:48:10.672,1.225,-1.175
11:48:10.680,2.455,-0.875
11:48:10.688,2.945,-0.675
11:48:10.695,1.825,-0.345
11:48:10.703,0.115,-0.115
11:48:10.711,-0.145,-0.035
11:48:10.719,-0.155,-0.025
11:48:10.727,-0.205,-0.015
11:48:10.734,-0.215,-0.015
11:48:10.742,-0.215,-0.025
11:48:10.750,-0.245,-0.035
11:48:10.758,-0.255,-0.025
11:48:10.766,-0.255,-0.015
11:48:10.773,-0.255,-0.025
11:48:10.781,-0.245,-0.025
11:48:10.789,-0.235,-0.015
11:48:10.797,-0.215,-0.015
11:48:10.805,-0.215,-0.025
11:48:10.813,-0.205,-0.015
11:48:10.820,-0.185,0.005
11:48:10.828,-0.195,-0.005
11:48:10.836,-0.175,0.005
11:48:10.844,-0.135,0.015
11:48:10.852,-0.095,0.025
11:48:10.859,-0.045,0.055
11:48:10.867,-0.015,0.055
11:48:10.875,0.025,0.055
11:48:10.883,0.085,0.055
11:48:10.891,0.115,0.065
11:48:10.898,0.155,0.055
11:48:10.906,0.235,0.045
11:48:10.914,0.285,0.065
11:48:10.922,0.345,0.065
11:48:10.930,0.375,0.065
11:48:10.938,0.375,0.045
11:48:10.945,0.325,0.055
11:48:10.953,0.245,0.015
11:48:10.961,0.145,-0.015
11:48:10.969,0.065,-0.035
11:48:10.977,-0.015,-0.075
11:48:10.984,-0.065,-0.085
11:48:10.992,-0.115,-0.115
11:48:11.000,-0.155,-0.155
11:48:11.008,-0.165,-0.135
11:48:11.016,-0.185,-0.135
11:48:11.023,-0.195,-0.175
11:48:11.031,-0.195,-0.165
11:48:11.039,-0.185,-0.155
11:48:11.047,-0.165,-0.135
11:48:11.055,-0.165,-0.135
11:48:11.063,-0.175,-0.145
11:48:11.070,-0.175,-0.145
11:48:11.078,-0.185,-0.135
11:48:11.086,-0.205,-0.165
11:48:11.094,-0.185,-0.145
11:48:11.102,-0.175,-0.125
11:48:11.109,-0.155,-0.145
11:48:11.117,-0.165,-0.165
11:48:11.125,-0.175,-0.155
11:48:11.133,-0.185,-0.135
11:48:11.141,-0.185,-0.145
11:48:11.148,-0.215,-0.165
11:48:11.156,-0.205,-0.165
11:48:11.164,-0.205,-0.145
11:48:11.172,-0.185,-0.135
11:48:11.180,-0.195,-0.155
11:48:11.188,-0.205,-0.185
11:48:11.195,-0.205,-0.145
11:48:11.203,-0.225,-0.175
11:48:11.211,-0.225,-0.175
11:48:11.219,-0.215,-0.175
11:48:11.227,-0.215,-0.175
11:48:11.234,-0.185,-0.165
11:48:11.242,-0.195,-0.195
11:48:11.250,-0.215,-0.195
11:48:11.258,-0.205,-0.165
11:48:11.266,-0.235,-0.195
11:48:11.273,-0.225,-0.205
11:48:11.281,-0.215,-0.205
11:48:11.289,-0.195,-0.175
11:48:11.297,-0.165,-0.145
11:48:11.305,-0.165,-0.205
11:48:11.313,-0.145,-0.155
11:48:11.320,-0.105,-0.135
11:48:11.328,-0.125,-0.165
11:48:11.336,-0.135,-0.165
11:48:11.344,-0.025,-0.185
11:48:11.352,-0.055,-0.215
11:48:11.359,-0.125,-0.185
11:48:11.367,-0.125,-0.195
11:48:11.375,-0.145,-0.215
11:48:11.383,-0.195,-0.175
11:48:11.391,-0.225,-0.205
11:48:11.398,-0.255,-0.215
11:48:11.406,-0.225,-0.195
11:48:11.414,-0.225,-0.185
11:48:11.422,-0.195,-0.205
11:48:11.430,-0.205,-0.205
11:48:11.438,-0.215,-0.195
11:48:11.445,-0.195,-0.185
11:48:11.453,-0.225,-0.195
11:48:11.461,-0.195,-0.085
11:48:11.469,-0.435,0.085
11:48:11.477,-0.775,0.115
11:48:11.484,-0.415,-0.675
11:48:11.492,1.275,-1.355
11:48:11.500,2.525,-0.865
11:48:11.508,2.935,-0.755
11:48:11.516,1.715,-0.445
11:48:11.523,0.055,-0.155
11:48:11.531,-0.215,-0.045
11:48:11.539,-0.205,-0.065
11:48:11.547,-0.215,-0.055
11:48:11.555,-0.275,-0.075
11:48:11.563,-0.295,-0.045
11:48:11.570,-0.305,-0.045
11:48:11.578,-0.335,-0.065
11:48:11.586,-0.315,-0.055
11:48:11.594,-0.285,-0.065
11:48:11.602,-0.285,-0.075
11:48:11.609,-0.255,-0.055
11:48:11.617,-0.265,-0.055
11:48:11.625,-0.245,-0.055
11:48:11.633,-0.235,-0.035
11:48:11.641,-0.245,-0.045
11:48:11.648,-0.225,-0.065
11:48:11.656,-0.195,-0.055
11:48:11.664,-0.175,-0.035
11:48:11.672,-0.105,-0.015
11:48:11.680,-0.075,-0.035
11:48:11.688,-0.055,-0.035
11:48:11.695,0.005,-0.005
11:48:11.703,0.045,-0.015
11:48:11.711,0.115,-0.015
11:48:11.719,0.185,-0.015
11:48:11.727,0.225,-0.005
11:48:11.734,0.305,0.015
11:48:11.742,0.325,-0.015
11:48:11.750,0.335,0.025
11:48:11.758,0.335,0.045
11:48:11.766,0.275,0.025
11:48:11.773,0.205,0.005
11:48:11.781,0.115,-0.015
11:48:11.789,0.015,-0.035
11:48:11.797,-0.045,-0.035
11:48:11.805,-0.115,-0.065
11:48:11.813,-0.165,-0.075
11:48:11.820,-0.185,-0.075
11:48:11.828,-0.205,-0.115
11:48:11.836,-0.225,-0.105
11:48:11.844,-0.205,-0.095
11:48:11.852,-0.205,-0.085
11:48:11.859,-0.195,-0.085
11:48:11.867,-0.195,-0.095
11:48:11.875,-0.205,-0.085
11:48:11.883,-0.185,-0.085
11:48:11.891,-0.205,-0.075
11:48:11.898,-0.205,-0.105
11:48:11.906,-0.205,-0.065
11:48:11.914,-0.185,-0.065
11:48:11.922,-0.165,-0.065
11:48:11.930,-0.165,-0.075
11:48:11.938,-0.175,-0.075
11:48:11.945,-0.175,-0.065
11:48:11.953,-0.185,-0.085
11:48:11.961,-0.205,-0.085
11:48:11.969,-0.185,-0.085
11:48:11.977,-0.185,-0.085
11:48:11.984,-0.175,-0.085
11:48:11.992,-0.175,-0.085
11:48:12.000,-0.165,-0.105
11:48:12.008,-0.185,-0.085
11:48:12.016,-0.175,-0.095
11:48:12.023,-0.215,-0.115
11:48:12.031,-0.195,-0.105
11:48:12.039,-0.185,-0.105
11:48:12.047,-0.185,-0.105
11:48:12.055,-0.175,-0.115
11:48:12.063,-0.165,-0.125
11:48:12.070,-0.175,-0.105
11:48:12.078,-0.185,-0.135
11:48:12.086,-0.185,-0.125
11:48:12.094,-0.175,-0.105
11:48:12.102,-0.145,-0.115
11:48:12.109,-0.125,-0.085
11:48:12.117,-0.075,-0.055
11:48:12.125,-0.045,-0.045
11:48:12.133,-0.075,-0.065
11:48:12.141,-0.005,-0.085
11:48:12.148,0.025,-0.125
11:48:12.156,-0.025,-0.145
11:48:12.164,-0.075,-0.125
11:48:12.172,-0.045,-0.135
11:48:12.180,-0.065,-0.145
11:48:12.188,-0.115,-0.115
11:48:12.195,-0.125,-0.115
11:48:12.203,-0.145,-0.135
11:48:12.211,-0.155,-0.145
11:48:12.219,-0.135,-0.135
11:48:12.227,-0.125,-0.125
11:48:12.234,-0.115,-0.125
11:48:12.242,-0.115,-0.145
11:48:12.250,-0.105,-0.135
11:48:12.258,-0.105,-0.105
11:48:12.266,-0.115,0.095
11:48:12.273,-0.425,0.185
11:48:12.281,-0.595,0.065
11:48:12.289,-0.055,-1.185
11:48:12.297,1.405,-1.255
11:48:12.305,2.265,-0.825
11:48:12.313,2.525,-0.665
11:48:12.320,1.305,-0.225
11:48:12.328,0.125,-0.015
11:48:12.336,-0.065,0.025
11:48:12.344,-0.125,0.005
11:48:12.352,-0.175,-0.015
11:48:12.359,-0.195,0.005
11:48:12.367,-0.205,-0.015
11:48:12.375,-0.215,-0.005
11:48:12.383,-0.215,0.015
11:48:12.391,-0.245,-0.015
11:48:12.398,-0.235,-0.025
11:48:12.406,-0.235,-0.015
11:48:12.414,-0.215,-0.005
11:48:12.422,-0.185,0.015
11:48:12.430,-0.185,0.005
11:48:12.438,-0.185,0.005
11:48:12.445,-0.165,0.035
11:48:12.453,-0.165,0.015
11:48:12.461,-0.135,0.035
11:48:12.469,-0.115,0.055
11:48:12.477,-0.085,0.075
11:48:12.484,-0.025,0.085
11:48:12.492,0.015,0.085
11:48:12.500,0.055,0.075
11:48:12.508,0.105,0.095
11:48:12.516,0.165,0.085
11:48:12.523,0.215,0.105
11:48:12.531,0.275,0.105
11:48:12.539,0.325,0.095
11:48:12.547,0.375,0.105
11:48:12.555,0.395,0.105
11:48:12.563,0.395,0.095
11:48:12.570,0.345,0.085
11:48:12.578,0.255,0.065
11:48:12.586,0.145,0.005
11:48:12.594,0.055,-0.005
11:48:12.602,-0.025,-0.025
11:48:12.609,-0.065,-0.035
11:48:12.617,-0.115,-0.065
11:48:12.625,-0.125,-0.045
11:48:12.633,-0.145,-0.055
11:48:12.641,-0.175,-0.055
11:48:12.648,-0.175,-0.085
11:48:12.656,-0.165,-0.095
11:48:12.664,-0.165,-0.065
11:48:12.672,-0.135,-0.065
11:48:12.680,-0.135,-0.065
11:48:12.688,-0.145,-0.065
11:48:12.695,-0.145,-0.055
11:48:12.703,-0.155,-0.055
11:48:12.711,-0.155,-0.065
11:48:12.719,-0.155,-0.055
11:48:12.727,-0.155,-0.045
11:48:12.734,-0.115,-0.045
11:48:12.742,-0.115,-0.055
11:48:12.750,-0.125,-0.055
11:48:12.758,-0.125,-0.065
11:48:12.766,-0.165,-0.065
11:48:12.773,-0.165,-0.075
11:48:12.781,-0.165,-0.075
11:48:12.789,-0.155,-0.085
11:48:12.797,-0.135,-0.075
11:48:12.805,-0.135,-0.095
11:48:12.813,-0.165,-0.095
11:48:12.820,-0.175,-0.085
11:48:12.828,-0.195,-0.085
11:48:12.836,-0.185,-0.105
11:48:12.844,-0.165,-0.105
11:48:12.852,-0.175,-0.105
11:48:12.859,-0.155,-0.105
11:48:12.867,-0.165,-0.105
11:48:12.875,-0.165,-0.115
11:48:12.883,-0.165,-0.105
11:48:12.891,-0.185,-0.125
11:48:12.898,-0.185,-0.135
11:48:12.906,-0.175,-0.115
11:48:12.914,-0.185,-0.115
11:48:12.922,-0.145,-0.105
11:48:12.930,-0.155,-0.115
11:48:12.938,-0.165,-0.125
11:48:12.945,-0.145,-0.085
11:48:12.953,-0.145,-0.095
11:48:12.961,-0.145,-0.105
11:48:12.969,-0.075,-0.055
11:48:12.977,-0.065,-0.055
11:48:12.984,-0.035,-0.095
11:48:12.992,0.035,-0.125
11:48:13.000,0.045,-0.115
11:48:13.008,-0.015,-0.135
11:48:13.016,-0.115,-0.125
11:48:13.023,-0.085,-0.155
11:48:13.031,-0.105,-0.155
11:48:13.039,-0.155,-0.125
11:48:13.047,-0.135,-0.115
11:48:13.055,-0.155,-0.135
11:48:13.063,-0.165,-0.135
11:48:13.070,-0.155,-0.125
11:48:13.078,-0.175,-0.145
11:48:13.086,-0.195,-0.155
11:48:13.094,-0.175,-0.135
11:48:13.102,-0.165,-0.135
11:48:13.109,-0.135,-0.145
11:48:13.117,-0.115,-0.005
11:48:13.125,-0.355,0.175
11:48:13.133,-0.685,0.175
11:48:13.141,-0.395,-0.835
11:48:13.148,1.215,-1.625
11:48:13.156,2.395,-0.925
11:48:13.164,2.865,-0.765
11:48:13.172,1.945,-0.355
11:48:13.180,0.325,-0.055
11:48:13.188,-0.095,0.005
11:48:13.195,-0.115,0.005
11:48:13.203,-0.175,-0.015
11:48:13.211,-0.255,-0.025
11:48:13.219,-0.255,-0.035
11:48:13.227,-0.255,-0.015
11:48:13.234,-0.255,-0.015
11:48:13.242,-0.255,-0.015
11:48:13.250,-0.245,-0.005
11:48:13.258,-0.245,-0.015
11:48:13.266,-0.245,-0.015
11:48:13.273,-0.255,-0.025
11:48:13.281,-0.235,-0.005
11:48:13.289,-0.215,0.005
11:48:13.297,-0.175,0.025
11:48:13.305,-0.175,0.015
11:48:13.313,-0.165,0.035
11:48:13.320,-0.125,0.055
11:48:13.328,-0.125,0.045
11:48:13.336,-0.105,0.055
11:48:13.344,-0.055,0.065
11:48:13.352,-0.005,0.085
11:48:13.359,0.045,0.105
11:48:13.367,0.115,0.105
11:48:13.375,0.165,0.115
11:48:13.383,0.225,0.135
11:48:13.391,0.265,0.105
11:48:13.398,0.285,0.105
11:48:13.406,0.335,0.095
11:48:13.414,0.365,0.095
11:48:13.422,0.345,0.105
11:48:13.430,0.295,0.075
11:48:13.438,0.205,0.045
11:48:13.445,0.095,0.035
11:48:13.453,-0.005,-0.005
11:48:13.461,-0.105,-0.045
11:48:13.469,-0.135,-0.045
11:48:13.477,-0.165,-0.055
11:48:13.484,-0.195,-0.065
11:48:13.492,-0.185,-0.065
11:48:13.500,-0.205,-0.085
11:48:13.508,-0.195,-0.075
11:48:13.516,-0.205,-0.075
11:48:13.523,-0.225,-0.095
11:48:13.531,-0.215,-0.075
11:48:13.539,-0.195,-0.085
11:48:13.547,-0.185,-0.065
11:48:13.555,-0.185,-0.065
11:48:13.563,-0.185,-0.065
11:48:13.570,-0.185,-0.075
11:48:13.578,-0.195,-0.075
11:48:13.586,-0.225,-0.065
11:48:13.594,-0.225,-0.075
11:48:13.602,-0.205,-0.065
11:48:13.609,-0.195,-0.055
11:48:13.617,-0.215,-0.085
11:48:13.625,-0.215,-0.075
11:48:13.633,-0.215,-0.065
11:48:13.641,-0.245,-0.075
11:48:13.648,-0.255,-0.115
11:48:13.656,-0.245,-0.105
11:48:13.664,-0.235,-0.095
11:48:13.672,-0.215,-0.085
11:48:13.680,-0.245,-0.105
11:48:13.688,-0.255,-0.115
11:48:13.695,-0.245,-0.115
11:48:13.703,-0.275,-0.115
11:48:13.711,-0.275,-0.135
11:48:13.719,-0.265,-0.135
11:48:13.727,-0.265,-0.125
11:48:13.734,-0.235,-0.115
11:48:13.742,-0.255,-0.135
11:48:13.750,-0.255,-0.125
11:48:13.758,-0.245,-0.115
11:48:13.766,-0.285,-0.125
11:48:13.773,-0.265,-0.115
11:48:13.781,-0.255,-0.115
11:48:13.789,-0.265,-0.125
11:48:13.797,-0.245,-0.105
11:48:13.805,-0.245,-0.125
11:48:13.813,-0.245,-0.125
11:48:13.820,-0.245,-0.125
11:48:13.828,-0.275,-0.135
11:48:13.836,-0.265,-0.135
11:48:13.844,-0.235,-0.135
11:48:13.852,-0.245,-0.145
11:48:13.859,-0.185,-0.105
11:48:13.867,-0.155,-0.085
11:48:13.875,-0.165,-0.115
11:48:13.883,-0.125,-0.105
11:48:13.891,-0.065,-0.145
11:48:13.898,-0.105,-0.185
11:48:13.906,-0.215,-0.175
11:48:13.914,-0.185,-0.165
11:48:13.922,-0.175,-0.175
11:48:13.930,-0.215,-0.165
11:48:13.938,-0.255,-0.165
11:48:13.945,-0.255,-0.175
11:48:13.953,-0.295,-0.185
11:48:13.961,-0.265,-0.155
11:48:13.969,-0.265,-0.165
11:48:13.977,-0.265,-0.165
11:48:13.984,-0.245,-0.155
11:48:13.992,-0.235,-0.165
11:48:14.000,-0.225,-0.155
11:48:14.008,-0.205,-0.055
11:48:14.016,-0.455,0.125
11:48:14.023,-0.805,0.145
11:48:14.031,-0.535,-0.535
11:48:14.039,1.135,-1.385
11:48:14.047,2.365,-0.805
11:48:14.055,2.805,-0.725
11:48:14.063,1.845,-0.455
11:48:14.070,0.165,-0.115
11:48:14.078,-0.215,-0.015
11:48:14.086,-0.235,-0.035
11:48:14.094,-0.285,-0.025
11:48:14.102,-0.305,-0.025
11:48:14.109,-0.305,-0.015
11:48:14.117,-0.325,-0.025
11:48:14.125,-0.335,-0.025
11:48:14.133,-0.335,-0.015
11:48:14.141,-0.365,-0.015
11:48:14.148,-0.345,-0.035
11:48:14.156,-0.325,-0.025
11:48:14.164,-0.325,-0.015
11:48:14.172,-0.305,-0.005
11:48:14.180,-0.295,-0.005
11:48:14.188,-0.275,-0.005
11:48:14.195,-0.285,0.015
11:48:14.203,-0.275,0.015
11:48:14.211,-0.265,-0.015
11:48:14.219,-0.225,-0.005
11:48:14.227,-0.195,0.015
11:48:14.234,-0.145,0.025
11:48:14.242,-0.075,0.025
11:48:14.250,-0.025,0.025
11:48:14.258,0.025,0.035
11:48:14.266,0.075,0.045
11:48:14.273,0.125,0.035
11:48:14.281,0.195,0.035
11:48:14.289,0.235,0.035
11:48:14.297,0.285,0.045
11:48:14.305,0.295,0.055
11:48:14.313,0.255,0.045
11:48:14.320,0.185,0.035
11:48:14.328,0.065,0.025
11:48:14.336,-0.025,-0.005
11:48:14.344,-0.105,-0.025
11:48:14.352,-0.165,-0.055
11:48:14.359,-0.195,-0.055
11:48:14.367,-0.235,-0.075
11:48:14.375,-0.265,-0.105
11:48:14.383,-0.275,-0.065
11:48:14.391,-0.285,-0.085
11:48:14.398,-0.295,-0.085
11:48:14.406,-0.275,-0.085
11:48:14.414,-0.265,-0.095
11:48:14.422,-0.255,-0.085
11:48:14.430,-0.275,-0.065
11:48:14.438,-0.255,-0.075
11:48:14.445,-0.255,-0.065
11:48:14.453,-0.275,-0.075
11:48:14.461,-0.275,-0.085
11:48:14.469,-0.265,-0.085
11:48:14.477,-0.275,-0.085
11:48:14.484,-0.245,-0.085
11:48:14.492,-0.245,-0.105
11:48:14.500,-0.255,-0.105
11:48:14.508,-0.255,-0.095
11:48:14.516,-0.285,-0.095
11:48:14.523,-0.305,-0.115
11:48:14.531,-0.295,-0.125
11:48:14.539,-0.285,-0.125
11:48:14.547,-0.255,-0.125
11:48:14.555,-0.275,-0.155
11:48:14.563,-0.285,-0.125
11:48:14.570,-0.295,-0.115
11:48:14.578,-0.315,-0.135
11:48:14.586,-0.305,-0.145
11:48:14.594,-0.295,-0.165
11:48:14.602,-0.305,-0.155
11:48:14.609,-0.285,-0.135
11:48:14.617,-0.285,-0.135
11:48:14.625,-0.285,-0.145
11:48:14.633,-0.265,-0.135
11:48:14.641,-0.295,-0.155
11:48:14.648,-0.305,-0.165
11:48:14.656,-0.275,-0.135
11:48:14.664,-0.285,-0.145
11:48:14.672,-0.255,-0.125
11:48:14.680,-0.265,-0.135
11:48:14.688,-0.255,-0.145
11:48:14.695,-0.255,-0.115
11:48:14.703,-0.235,-0.085
11:48:14.711,-0.195,-0.075
11:48:14.719,-0.195,-0.115
11:48:14.727,-0.105,-0.115
11:48:14.734,-0.045,-0.125
11:48:14.742,-0.135,-0.165
11:48:14.750,-0.185,-0.135
11:48:14.758,-0.175,-0.155
11:48:14.766,-0.255,-0.185
11:48:14.773,-0.285,-0.155
11:48:14.781,-0.275,-0.165
11:48:14.789,-0.295,-0.165
11:48:14.797,-0.245,-0.155
11:48:14.805,-0.255,-0.165
11:48:14.813,-0.255,-0.145
11:48:14.820,-0.235,-0.145
11:48:14.828,-0.275,-0.165
11:48:14.836,-0.265,-0.165
11:48:14.844,-0.225,-0.105
11:48:14.852,-0.325,0.085
11:48:14.859,-0.735,0.175
11:48:14.867,-0.725,-0.155
11:48:14.875,0.715,-1.335
11:48:14.883,2.145,-0.895
11:48:14.891,2.755,-0.745
11:48:14.898,2.465,-0.595
11:48:14.906,0.585,-0.185
11:48:14.914,-0.195,-0.025
11:48:14.922,-0.185,0.015
11:48:14.930,-0.225,-0.005
11:48:14.938,-0.285,-0.005
11:48:14.945,-0.305,-0.005
11:48:14.953,-0.335,0.015
11:48:14.961,-0.325,-0.015
11:48:14.969,-0.325,-0.015
11:48:14.977,-0.315,0.005
11:48:14.984,-0.275,0.005
11:48:14.992,-0.285,-0.005
11:48:15.000,-0.295,-0.005
11:48:15.008,-0.265,-0.005
11:48:15.016,-0.285,-0.005
11:48:15.023,-0.255,-0.015
11:48:15.031,-0.235,-0.005
11:48:15.039,-0.205,0.005
11:48:15.047,-0.165,0.015
11:48:15.055,-0.155,0.005
11:48:15.063,-0.125,0.025
11:48:15.070,-0.085,0.025
11:48:15.078,-0.065,0.025
11:48:15.086,-0.025,0.035
11:48:15.094,0.045,0.035
11:48:15.102,0.115,0.065
11:48:15.109,0.195,0.065
11:48:15.117,0.255,0.045
11:48:15.125,0.295,0.045
11:48:15.133,0.335,0.075
11:48:15.141,0.325,0.075
11:48:15.148,0.315,0.065
11:48:15.156,0.275,0.065
11:48:15.164,0.195,0.045
11:48:15.172,0.125,0.045
11:48:15.180,0.035,0.005
11:48:15.188,-0.055,-0.015
11:48:15.195,-0.105,-0.025
11:48:15.203,-0.165,-0.055
11:48:15.211,-0.215,-0.065
11:48:15.219,-0.205,-0.075
11:48:15.227,-0.205,-0.075
11:48:15.234,-0.185,-0.045
11:48:15.242,-0.175,-0.065
11:48:15.250,-0.185,-0.075
11:48:15.258,-0.185,-0.045
11:48:15.266,-0.205,-0.065
11:48:15.273,-0.205,-0.075
11:48:15.281,-0.185,-0.055
11:48:15.289,-0.165,-0.055
11:48:15.297,-0.135,-0.015
11:48:15.305,-0.145,-0.055
11:48:15.313,-0.155,-0.065
11:48:15.320,-0.175,-0.045
11:48:15.328,-0.185,-0.045
11:48:15.336,-0.195,-0.075
11:48:15.344,-0.195,-0.085
11:48:15.352,-0.185,-0.045
11:48:15.359,-0.155,-0.045
11:48:15.367,-0.165,-0.095
11:48:15.375,-0.185,-0.085
11:48:15.383,-0.195,-0.085
11:48:15.391,-0.215,-0.105
11:48:15.398,-0.215,-0.115
11:48:15.406,-0.205,-0.095
11:48:15.414,-0.195,-0.085
11:48:15.422,-0.175,-0.065
11:48:15.430,-0.185,-0.085
11:48:15.438,-0.215,-0.065
11:48:15.445,-0.195,-0.075
11:48:15.453,-0.215,-0.085
11:48:15.461,-0.215,-0.115
11:48:15.469,-0.215,-0.095
11:48:15.477,-0.195,-0.095
11:48:15.484,-0.175,-0.085
11:48:15.492,-0.175,-0.095
11:48:15.500,-0.185,-0.095
11:48:15.508,-0.165,-0.085
11:48:15.516,-0.195,-0.075
11:48:15.523,-0.175,-0.095
11:48:15.531,-0.155,-0.055
11:48:15.539,-0.085,-0.035
11:48:15.547,-0.065,-0.015
11:48:15.555,-0.085,-0.055
11:48:15.563,0.025,-0.075
11:48:15.570,0.015,-0.085
11:48:15.578,-0.105,-0.105
11:48:15.586,-0.125,-0.095
11:48:15.594,-0.115,-0.115
11:48:15.602,-0.155,-0.105
11:48:15.609,-0.145,-0.075
11:48:15.617,-0.175,-0.125
11:48:15.625,-0.195,-0.115
11:48:15.633,-0.175,-0.105
11:48:15.641,-0.195,-0.115
11:48:15.648,-0.195,-0.115
11:48:15.656,-0.175,-0.105
11:48:15.664,-0.185,-0.115
11:48:15.672,-0.145,-0.095
11:48:15.680,-0.135,-0.055
11:48:15.688,-0.275,0.175
11:48:15.695,-0.645,0.275
11:48:15.703,-0.545,-0.305
11:48:15.711,0.865,-1.435
11:48:15.719,2.155,-1.065
11:48:15.727,2.765,-0.745
11:48:15.734,2.525,-0.545
11:48:15.742,0.745,-0.105
11:48:15.750,-0.085,0.045
11:48:15.758,-0.115,0.065
11:48:15.766,-0.195,0.025
11:48:15.773,-0.245,0.025
11:48:15.781,-0.255,0.025
11:48:15.789,-0.255,0.035
11:48:15.797,-0.225,0.025
11:48:15.805,-0.235,0.025
11:48:15.813,-0.245,0.025
11:48:15.820,-0.245,0.025
11:48:15.828,-0.265,0.005
11:48:15.836,-0.265,0.015
11:48:15.844,-0.235,0.025
11:48:15.852,-0.215,0.035
11:48:15.859,-0.185,0.035
11:48:15.867,-0.175,0.055
11:48:15.875,-0.155,0.045
11:48:15.883,-0.125,0.085
11:48:15.891,-0.125,0.065
11:48:15.898,-0.095,0.095
11:48:15.906,-0.045,0.105
11:48:15.914,-0.005,0.125
11:48:15.922,0.075,0.135
11:48:15.930,0.125,0.135
11:48:15.938,0.185,0.135
11:48:15.945,0.245,0.145
11:48:15.953,0.275,0.155
11:48:15.961,0.305,0.155
11:48:15.969,0.375,0.145
11:48:15.977,0.395,0.145
11:48:15.984,0.385,0.135
11:48:15.992,0.325,0.115
11:48:16.000,0.245,0.085
11:48:16.008,0.145,0.055
11:48:16.016,0.025,0.005
11:48:16.023,-0.055,-0.025
11:48:16.031,-0.095,-0.045
11:48:16.039,-0.145,-0.045
11:48:16.047,-0.115,-0.035
11:48:16.055,-0.135,-0.055
11:48:16.063,-0.155,-0.045
11:48:16.070,-0.145,-0.035
11:48:16.078,-0.175,-0.055
11:48:16.086,-0.165,-0.055
11:48:16.094,-0.145,-0.045
11:48:16.102,-0.155,-0.065
11:48:16.109,-0.125,-0.045
11:48:16.117,-0.125,-0.035
11:48:16.125,-0.125,-0.035
11:48:16.133,-0.125,-0.025
11:48:16.141,-0.155,-0.035
11:48:16.148,-0.155,-0.045
11:48:16.156,-0.135,-0.035
11:48:16.164,-0.155,-0.035
11:48:16.172,-0.125,-0.035
11:48:16.180,-0.135,-0.055
11:48:16.188,-0.135,-0.055
11:48:16.195,-0.125,-0.045
11:48:16.203,-0.165,-0.055
11:48:16.211,-0.175,-0.065
11:48:16.219,-0.165,-0.075
11:48:16.227,-0.175,-0.075
11:48:16.234,-0.145,-0.055
11:48:16.242,-0.155,-0.065
11:48:16.250,-0.165,-0.085
11:48:16.258,-0.165,-0.065
11:48:16.266,-0.185,-0.095
11:48:16.273,-0.195,-0.095
11:48:16.281,-0.185,-0.085
11:48:16.289,-0.175,-0.095
11:48:16.297,-0.145,-0.075
11:48:16.305,-0.165,-0.095
11:48:16.313,-0.165,-0.105
11:48:16.320,-0.165,-0.085
11:48:16.328,-0.185,-0.095
11:48:16.336,-0.185,-0.105
11:48:16.344,-0.175,-0.105
11:48:16.352,-0.165,-0.115
11:48:16.359,-0.145,-0.115
11:48:16.367,-0.165,-0.125
11:48:16.375,-0.145,-0.095
11:48:16.383,-0.135,-0.065
11:48:16.391,-0.105,-0.035
11:48:16.398,-0.085,-0.065
11:48:16.406,-0.095,-0.085
11:48:16.414,-0.015,-0.065
11:48:16.422,0.065,-0.085
11:48:16.430,-0.025,-0.115
11:48:16.438,-0.095,-0.115
11:48:16.445,-0.075,-0.125
11:48:16.453,-0.125,-0.155
11:48:16.461,-0.165,-0.125
11:48:16.469,-0.155,-0.135
11:48:16.477,-0.185,-0.125
11:48:16.484,-0.155,-0.125
11:48:16.492,-0.165,-0.125
11:48:16.500,-0.165,-0.125
11:48:16.508,-0.155,-0.125
11:48:16.516,-0.195,-0.135
11:48:16.523,-0.195,-0.135
11:48:16.531,-0.175,-0.125
11:48:16.539,-0.185,0.055
11:48:16.547,-0.435,0.185
11:48:16.555,-0.705,0.125
11:48:16.563,-0.175,-0.835
11:48:16.570,1.405,-1.495
11:48:16.578,2.445,-0.845
11:48:16.586,2.805,-0.735
11:48:16.594,1.805,-0.425
11:48:16.602,0.235,-0.065
11:48:16.609,-0.105,0.025
11:48:16.617,-0.135,0.015
11:48:16.625,-0.215,-0.005
11:48:16.633,-0.265,0.015
11:48:16.641,-0.285,-0.005
11:48:16.648,-0.315,-0.015
11:48:16.656,-0.295,-0.015
11:48:16.664,-0.295,-0.005
11:48:16.672,-0.255,0.005
11:48:16.680,-0.255,-0.015
11:48:16.688,-0.245,-0.005
11:48:16.695,-0.225,0.005
11:48:16.703,-0.245,-0.005
11:48:16.711,-0.225,-0.005
11:48:16.719,-0.215,0.015
11:48:16.727,-0.195,0.025
11:48:16.734,-0.155,0.025
11:48:16.742,-0.145,0.035
11:48:16.750,-0.105,0.045
11:48:16.758,-0.045,0.035
11:48:16.766,-0.055,0.065
11:48:16.773,0.005,0.065
11:48:16.781,0.055,0.065
11:48:16.789,0.115,0.085
11:48:16.797,0.205,0.095
11:48:16.805,0.245,0.075
11:48:16.813,0.285,0.075
11:48:16.820,0.325,0.105
11:48:16.828,0.325,0.105
11:48:16.836,0.315,0.085
11:48:16.844,0.285,0.055
11:48:16.852,0.205,0.035
11:48:16.859,0.155,0.025
11:48:16.867,0.045,-0.015
11:48:16.875,-0.055,-0.035
11:48:16.883,-0.095,-0.045
11:48:16.891,-0.175,-0.075
11:48:16.898,-0.205,-0.095
11:48:16.906,-0.215,-0.085
11:48:16.914,-0.235,-0.075
11:48:16.922,-0.195,-0.085
11:48:16.930,-0.205,-0.095
11:48:16.938,-0.205,-0.095
11:48:16.945,-0.195,-0.065
11:48:16.953,-0.235,-0.095
11:48:16.961,-0.225,-0.105
11:48:16.969,-0.225,-0.085
11:48:16.977,-0.215,-0.065
11:48:16.984,-0.195,-0.055
11:48:16.992,-0.195,-0.085
11:48:17.000,-0.195,-0.075
11:48:17.008,-0.185,-0.075
11:48:17.016,-0.225,-0.075
11:48:17.023,-0.225,-0.085
11:48:17.031,-0.215,-0.085
11:48:17.039,-0.195,-0.095
11:48:17.047,-0.185,-0.085
11:48:17.055,-0.185,-0.105
11:48:17.063,-0.215,-0.095
11:48:17.070,-0.225,-0.085
11:48:17.078,-0.235,-0.085
11:48:17.086,-0.245,-0.105
11:48:17.094,-0.245,-0.125
11:48:17.102,-0.235,-0.125
11:48:17.109,-0.215,-0.105
11:48:17.117,-0.235,-0.135
11:48:17.125,-0.235,-0.135
11:48:17.133,-0.225,-0.135
11:48:17.141,-0.265,-0.145
11:48:17.148,-0.245,-0.155
11:48:17.156,-0.235,-0.145
11:48:17.164,-0.235,-0.125
11:48:17.172,-0.205,-0.115
11:48:17.180,-0.215,-0.115
11:48:17.188,-0.215,-0.125
11:48:17.195,-0.195,-0.115
11:48:17.203,-0.175,-0.065
11:48:17.211,-0.145,-0.085
11:48:17.219,-0.165,-0.125
11:48:17.227,-0.085,-0.105
11:48:17.234,0.015,-0.135
11:48:17.242,-0.085,-0.145
11:48:17.250,-0.135,-0.125
11:48:17.258,-0.135,-0.135
11:48:17.266,-0.205,-0.155
11:48:17.273,-0.235,-0.155
11:48:17.281,-0.225,-0.165
11:48:17.289,-0.255,-0.165
11:48:17.297,-0.225,-0.155
11:48:17.305,-0.235,-0.165
11:48:17.313,-0.215,-0.145
11:48:17.320,-0.215,-0.145
11:48:17.328,-0.245,-0.155
11:48:17.336,-0.255,-0.165
11:48:17.344,-0.225,-0.175
11:48:17.352,-0.205,-0.005
11:48:17.359,-0.505,0.125
11:48:17.367,-0.785,0.115
11:48:17.375,-0.245,-0.785
11:48:17.383,1.415,-1.225
11:48:17.391,2.465,-0.785
11:48:17.398,2.825,-0.705
11:48:17.406,1.625,-0.445
11:48:17.414,0.095,-0.115
11:48:17.422,-0.155,0.015
11:48:17.430,-0.185,-0.005
11:48:17.438,-0.225,-0.025
11:48:17.445,-0.255,-0.015
11:48:17.453,-0.295,-0.035
11:48:17.461,-0.305,-0.035
11:48:17.469,-0.285,-0.015
11:48:17.477,-0.275,-0.025
11:48:17.484,-0.245,-0.015
11:48:17.492,-0.255,-0.025
11:48:17.500,-0.265,-0.035
11:48:17.508,-0.255,-0.015
11:48:17.516,-0.265,-0.015
11:48:17.523,-0.255,-0.025
11:48:17.531,-0.235,-0.025
11:48:17.539,-0.225,-0.025
11:48:17.547,-0.175,0.005
11:48:17.555,-0.165,-0.015
11:48:17.563,-0.145,-0.005
11:48:17.570,-0.115,0.015
11:48:17.578,-0.095,0.015
11:48:17.586,-0.055,-0.005
11:48:17.594,0.015,0.015
11:48:17.602,0.085,0.005
11:48:17.609,0.165,0.015
11:48:17.617,0.215,0.005
11:48:17.625,0.265,0.025
11:48:17.633,0.305,0.025
11:48:17.641,0.325,0.025
11:48:17.648,0.305,0.025
11:48:17.656,0.275,0.025
11:48:17.664,0.215,0.035
11:48:17.672,0.145,0.015
11:48:17.680,0.025,-0.025
11:48:17.688,-0.065,-0.055
11:48:17.695,-0.125,-0.055
11:48:17.703,-0.185,-0.085
11:48:17.711,-0.215,-0.095
11:48:17.719,-0.205,-0.085
11:48:17.727,-0.205,-0.095
11:48:17.734,-0.195,-0.065
11:48:17.742,-0.205,-0.075
11:48:17.750,-0.205,-0.075
11:48:17.758,-0.205,-0.075
11:48:17.766,-0.195,-0.065
11:48:17.773,-0.225,-0.075
11:48:17.781,-0.215,-0.075
11:48:17.789,-0.205,-0.055
11:48:17.797,-0.195,-0.055
11:48:17.805,-0.165,-0.055
11:48:17.813,-0.175,-0.065
11:48:17.820,-0.175,-0.065
11:48:17.828,-0.155,-0.065
11:48:17.836,-0.195,-0.065
11:48:17.844,-0.195,-0.085
11:48:17.852,-0.175,-0.085
11:48:17.859,-0.185,-0.095
11:48:17.867,-0.185,-0.095
11:48:17.875,-0.185,-0.115
11:48:17.883,-0.185,-0.115
11:48:17.891,-0.185,-0.105
11:48:17.898,-0.215,-0.125
11:48:17.906,-0.205,-0.115
11:48:17.914,-0.195,-0.115
11:48:17.922,-0.185,-0.125
11:48:17.930,-0.175,-0.125
11:48:17.938,-0.185,-0.135
11:48:17.945,-0.185,-0.125
11:48:17.953,-0.185,-0.145
11:48:17.961,-0.205,-0.135
11:48:17.969,-0.185,-0.125
11:48:17.977,-0.135,-0.095
11:48:17.984,-0.055,-0.045
11:48:17.992,-0.035,-0.045
11:48:18.000,-0.095,-0.085
11:48:18.008,-0.025,-0.025
11:48:18.016,0.045,-0.085
11:48:18.023,-0.045,-0.125
11:48:18.031,-0.045,-0.095
11:48:18.039,-0.105,-0.155
11:48:18.047,-0.125,-0.135
11:48:18.055,-0.155,-0.155
11:48:18.063,-0.185,-0.155
11:48:18.070,-0.185,-0.145
11:48:18.078,-0.205,-0.165
11:48:18.086,-0.195,-0.165
11:48:18.094,-0.195,-0.175
11:48:18.102,-0.195,-0.155
11:48:18.109,-0.155,-0.135
11:48:18.117,-0.165,-0.155
11:48:18.125,-0.155,-0.145
11:48:18.133,-0.175,0.095
11:48:18.141,-0.605,0.175
11:48:18.148,-0.705,-0.035
11:48:18.156,0.385,-1.335
11:48:18.164,1.945,-1.185
11:48:18.172,2.805,-0.805
11:48:18.180,2.685,-0.615
11:48:18.188,0.725,-0.155
11:48:18.195,-0.115,0.005
11:48:18.203,-0.165,0.005
11:48:18.211,-0.195,0.005
11:48:18.219,-0.235,0.005
11:48:18.227,-0.265,0.005
11:48:18.234,-0.225,-0.005
11:48:18.242,-0.235,0.005
11:48:18.250,-0.255,0.005
11:48:18.258,-0.235,0.025
11:48:18.266,-0.265,0.015
11:48:18.273,-0.235,-0.005
11:48:18.281,-0.235,-0.005
11:48:18.289,-0.235,0.025
11:48:18.297,-0.185,0.025
11:48:18.305,-0.185,0.015
11:48:18.313,-0.165,0.025
11:48:18.320,-0.145,0.055
11:48:18.328,-0.145,0.035
11:48:18.336,-0.125,0.045
11:48:18.344,-0.085,0.065
11:48:18.352,-0.055,0.085
11:48:18.359,0.035,0.105
11:48:18.367,0.085,0.085
11:48:18.375,0.115,0.105
11:48:18.383,0.195,0.125
11:48:18.391,0.225,0.105
11:48:18.398,0.275,0.095
11:48:18.406,0.345,0.095
11:48:18.414,0.375,0.105
11:48:18.422,0.425,0.105
11:48:18.430,0.385,0.085
11:48:18.438,0.315,0.075
11:48:18.445,0.235,0.085
11:48:18.453,0.105,0.035
11:48:18.461,0.025,-0.005
11:48:18.469,-0.035,-0.025
11:48:18.477,-0.095,-0.045
11:48:18.484,-0.095,-0.045
11:48:18.492,-0.125,-0.065
11:48:18.500,-0.145,-0.065
11:48:18.508,-0.145,-0.055
11:48:18.516,-0.165,-0.065
11:48:18.523,-0.175,-0.075
11:48:18.531,-0.155,-0.065
11:48:18.539,-0.145,-0.065
11:48:18.547,-0.115,-0.065
11:48:18.555,-0.125,-0.065
11:48:18.563,-0.145,-0.075
11:48:18.570,-0.125,-0.035
11:48:18.578,-0.145,-0.045
11:48:18.586,-0.145,-0.055
11:48:18.594,-0.125,-0.055
11:48:18.602,-0.135,-0.055
11:48:18.609,-0.095,-0.045
11:48:18.617,-0.105,-0.055
11:48:18.625,-0.125,-0.075
11:48:18.633,-0.115,-0.055
11:48:18.641,-0.145,-0.075
11:48:18.648,-0.165,-0.095
11:48:18.656,-0.155,-0.085
11:48:18.664,-0.145,-0.075
11:48:18.672,-0.125,-0.075
11:48:18.680,-0.135,-0.085
11:48:18.688,-0.165,-0.115
11:48:18.695,-0.155,-0.085
11:48:18.703,-0.185,-0.085
11:48:18.711,-0.175,-0.105
11:48:18.719,-0.175,-0.115
11:48:18.727,-0.165,-0.115
11:48:18.734,-0.145,-0.105
11:48:18.742,-0.145,-0.115
11:48:18.750,-0.155,-0.125
11:48:18.758,-0.145,-0.095
11:48:18.766,-0.165,-0.105
11:48:18.773,-0.165,-0.125
11:48:18.781,-0.155,-0.105
11:48:18.789,-0.125,-0.065
11:48:18.797,-0.035,-0.035
11:48:18.805,-0.015,-0.025
11:48:18.813,-0.065,-0.055
11:48:18.820,0.015,-0.015
11:48:18.828,0.045,-0.095
11:48:18.836,-0.025,-0.125
11:48:18.844,-0.035,-0.095
11:48:18.852,-0.085,-0.125
11:48:18.859,-0.075,-0.135
11:48:18.867,-0.125,-0.125
11:48:18.875,-0.155,-0.145
11:48:18.883,-0.165,-0.115
11:48:18.891,-0.195,-0.135
11:48:18.898,-0.185,-0.135
11:48:18.906,-0.185,-0.125
11:48:18.914,-0.195,-0.125
11:48:18.922,-0.145,-0.115
11:48:18.930,-0.165,-0.145
11:48:18.938,-0.165,-0.135
11:48:18.945,-0.125,-0.055
11:48:18.953,-0.265,0.175
11:48:18.961,-0.655,0.235
11:48:18.969,-0.505,-0.355
11:48:18.977,0.895,-1.475
11:48:18.984,2.245,-1.005
11:48:18.992,2.835,-0.735
11:48:19.000,2.335,-0.485
11:48:19.008,0.535,-0.045
11:48:19.016,-0.125,0.055
11:48:19.023,-0.155,0.035
11:48:19.031,-0.185,0.025
11:48:19.039,-0.245,0.025
11:48:19.047,-0.235,0.045
11:48:19.055,-0.255,0.035
11:48:19.063,-0.255,0.025
11:48:19.070,-0.255,0.035
11:48:19.078,-0.265,0.045
11:48:19.086,-0.275,0.025
11:48:19.094,-0.265,0.025
11:48:19.102,-0.245,0.045
11:48:19.109,-0.215,0.065
11:48:19.117,-0.205,0.045
11:48:19.125,-0.195,0.055
11:48:19.133,-0.185,0.065
11:48:19.141,-0.165,0.085
11:48:19.148,-0.155,0.085
11:48:19.156,-0.135,0.085
11:48:19.164,-0.085,0.105
11:48:19.172,-0.035,0.115
11:48:19.180,0.015,0.125
11:48:19.188,0.055,0.125
11:48:19.195,0.115,0.145
11:48:19.203,0.175,0.145
11:48:19.211,0.225,0.145
11:48:19.219,0.275,0.155
11:48:19.227,0.335,0.145
11:48:19.234,0.385,0.155
11:48:19.242,0.395,0.135
11:48:19.250,0.385,0.135
11:48:19.258,0.305,0.105
11:48:19.266,0.205,0.095
11:48:19.273,0.095,0.065
11:48:19.281,0.005,0.025
11:48:19.289,-0.085,-0.005
11:48:19.297,-0.095,-0.015
11:48:19.305,-0.145,-0.035
11:48:19.313,-0.165,-0.045
11:48:19.320,-0.155,-0.035
11:48:19.328,-0.195,-0.055
11:48:19.336,-0.195,-0.075
11:48:19.344,-0.185,-0.055
11:48:19.352,-0.175,-0.045
11:48:19.359,-0.135,-0.045
11:48:19.367,-0.165,-0.055
11:48:19.375,-0.155,-0.055
11:48:19.383,-0.145,-0.025
11:48:19.391,-0.175,-0.035
11:48:19.398,-0.175,-0.035
11:48:19.406,-0.165,-0.045
11:48:19.414,-0.175,-0.045
11:48:19.422,-0.135,-0.035
11:48:19.430,-0.165,-0.055
11:48:19.438,-0.165,-0.045
11:48:19.445,-0.165,-0.045
11:48:19.453,-0.205,-0.065
11:48:19.461,-0.205,-0.075
11:48:19.469,-0.205,-0.075
11:48:19.477,-0.215,-0.065
11:48:19.484,-0.185,-0.055
11:48:19.492,-0.185,-0.085
11:48:19.500,-0.205,-0.085
11:48:19.508,-0.195,-0.085
11:48:19.516,-0.225,-0.085
11:48:19.523,-0.225,-0.105
11:48:19.531,-0.225,-0.105
11:48:19.539,-0.235,-0.095
11:48:19.547,-0.195,-0.085
11:48:19.555,-0.205,-0.115
11:48:19.563,-0.215,-0.105
11:48:19.570,-0.195,-0.105
11:48:19.578,-0.225,-0.115
11:48:19.586,-0.225,-0.125
11:48:19.594,-0.225,-0.105
11:48:19.602,-0.225,-0.105
11:48:19.609,-0.185,-0.095
11:48:19.617,-0.195,-0.125
11:48:19.625,-0.185,-0.105
11:48:19.633,-0.145,-0.075
11:48:19.641,-0.175,-0.095
11:48:19.648,-0.135,-0.065
11:48:19.656,-0.105,-0.075
11:48:19.664,-0.145,-0.105
11:48:19.672,0.005,-0.085
11:48:19.680,0.005,-0.145
11:48:19.688,-0.085,-0.155
11:48:19.695,-0.115,-0.115
11:48:19.703,-0.165,-0.155
11:48:19.711,-0.165,-0.175
11:48:19.719,-0.215,-0.145
11:48:19.727,-0.225,-0.155
11:48:19.734,-0.205,-0.155
11:48:19.742,-0.205,-0.155
11:48:19.750,-0.205,-0.145
11:48:19.758,-0.205,-0.145
11:48:19.766,-0.225,-0.165
11:48:19.773,-0.225,-0.165
11:48:19.781,-0.215,-0.165
11:48:19.789,-0.205,-0.145
11:48:19.797,-0.155,-0.075
11:48:19.805,-0.355,0.115
11:48:19.813,-0.745,0.185
11:48:19.820,-0.405,-0.615
11:48:19.828,1.295,-1.465
11:48:19.836,2.515,-0.845
11:48:19.844,2.895,-0.745
11:48:19.852,1.465,-0.385
11:48:19.859,0.025,-0.075
11:48:19.867,-0.165,-0.015
11:48:19.875,-0.195,-0.015
11:48:19.883,-0.235,-0.005
11:48:19.891,-0.305,-0.035
11:48:19.898,-0.315,-0.045
11:48:19.906,-0.305,-0.045
11:48:19.914,-0.325,-0.035
11:48:19.922,-0.265,-0.015
11:48:19.930,-0.285,-0.045
11:48:19.938,-0.285,-0.035
11:48:19.945,-0.255,-0.015
11:48:19.953,-0.295,-0.045
11:48:19.961,-0.295,-0.035
11:48:19.969,-0.265,-0.025
11:48:19.977,-0.245,-0.015
11:48:19.984,-0.205,0.005
11:48:19.992,-0.185,-0.015
11:48:20.000,-0.155,-0.005
11:48:20.008,-0.115,0.015
11:48:20.016,-0.135,0.015
11:48:20.023,-0.075,0.005
11:48:20.031,-0.025,0.025
11:48:20.039,0.015,0.025
11:48:20.047,0.115,0.045
11:48:20.055,0.165,0.025
11:48:20.063,0.205,0.055
11:48:20.070,0.305,0.055
11:48:20.078,0.315,0.045
11:48:20.086,0.335,0.045
11:48:20.094,0.345,0.065
11:48:20.102,0.285,0.045
11:48:20.109,0.245,0.025
11:48:20.117,0.115,-0.025
11:48:20.125,0.005,-0.035
11:48:20.133,-0.055,-0.055
11:48:20.141,-0.145,-0.085
11:48:20.148,-0.185,-0.085
11:48:20.156,-0.195,-0.095
11:48:20.164,-0.215,-0.105
11:48:20.172,-0.205,-0.095
11:48:20.180,-0.205,-0.105
11:48:20.188,-0.215,-0.115
11:48:20.195,-0.195,-0.095
11:48:20.203,-0.235,-0.115
11:48:20.211,-0.245,-0.115
11:48:20.219,-0.235,-0.105
11:48:20.227,-0.235,-0.095
11:48:20.234,-0.195,-0.085
11:48:20.242,-0.205,-0.105
11:48:20.250,-0.215,-0.065
11:48:20.258,-0.225,-0.065
11:48:20.266,-0.235,-0.085
11:48:20.273,-0.245,-0.095
11:48:20.281,-0.215,-0.095
11:48:20.289,-0.235,-0.085
11:48:20.297,-0.225,-0.085
11:48:20.305,-0.225,-0.105
11:48:20.313,-0.245,-0.115
11:48:20.320,-0.225,-0.115
11:48:20.328,-0.255,-0.125
11:48:20.336,-0.265,-0.145
11:48:20.344,-0.255,-0.135
11:48:20.352,-0.255,-0.135
11:48:20.359,-0.245,-0.135
11:48:20.367,-0.245,-0.165
11:48:20.375,-0.255,-0.155
11:48:20.383,-0.255,-0.135
11:48:20.391,-0.275,-0.145
11:48:20.398,-0.285,-0.145
11:48:20.406,-0.265,-0.145
11:48:20.414,-0.255,-0.145
11:48:20.422,-0.235,-0.125
11:48:20.430,-0.235,-0.135
11:48:20.438,-0.245,-0.135
11:48:20.445,-0.215,-0.125
11:48:20.453,-0.225,-0.125
11:48:20.461,-0.195,-0.085
11:48:20.469,-0.155,-0.095
11:48:20.477,-0.185,-0.115
11:48:20.484,-0.045,-0.095
11:48:20.492,-0.035,-0.125
11:48:20.500,-0.105,-0.145
11:48:20.508,-0.145,-0.135
11:48:20.516,-0.155,-0.165
11:48:20.523,-0.215,-0.195
11:48:20.531,-0.245,-0.165
11:48:20.539,-0.225,-0.165
11:48:20.547,-0.215,-0.155
11:48:20.555,-0.235,-0.185
11:48:20.563,-0.235,-0.175
11:48:20.570,-0.225,-0.155
11:48:20.578,-0.245,-0.165
11:48:20.586,-0.255,-0.175
11:48:20.594,-0.225,-0.175
11:48:20.602,-0.205,-0.175
11:48:20.609,-0.175,-0.075
11:48:20.617,-0.365,0.095
11:48:20.625,-0.695,0.135
11:48:20.633,-0.375,-0.585
11:48:20.641,1.105,-1.275
11:48:20.648,2.135,-0.845
11:48:20.656,2.525,-0.725
11:48:20.664,1.685,-0.445
11:48:20.672,0.245,-0.125
11:48:20.680,-0.105,-0.025
11:48:20.688,-0.155,-0.045
11:48:20.695,-0.225,-0.035
11:48:20.703,-0.285,-0.045
11:48:20.711,-0.305,-0.045
11:48:20.719,-0.315,-0.045
11:48:20.727,-0.305,-0.035
11:48:20.734,-0.275,-0.035
11:48:20.742,-0.275,-0.045
11:48:20.750,-0.275,-0.055
11:48:20.758,-0.265,-0.035
11:48:20.766,-0.275,-0.065
11:48:20.773,-0.275,-0.055
11:48:20.781,-0.255,-0.055
11:48:20.789,-0.225,-0.055
11:48:20.797,-0.195,-0.045
11:48:20.805,-0.185,-0.045
11:48:20.813,-0.165,-0.045
11:48:20.820,-0.135,-0.025
11:48:20.828,-0.125,-0.025
11:48:20.836,-0.075,-0.035
11:48:20.844,-0.015,-0.015
11:48:20.852,0.055,-0.005
11:48:20.859,0.155,-0.005
11:48:20.867,0.195,-0.025
11:48:20.875,0.245,-0.005
11:48:20.883,0.295,0.005
11:48:20.891,0.315,-0.005
11:48:20.898,0.335,-0.015
11:48:20.906,0.325,0.005
11:48:20.914,0.265,0.005
11:48:20.922,0.205,-0.005
11:48:20.930,0.095,-0.035
11:48:20.938,-0.005,-0.045
11:48:20.945,-0.065,-0.055
11:48:20.953,-0.155,-0.085
11:48:20.961,-0.185,-0.115
11:48:20.969,-0.195,-0.115
11:48:20.977,-0.215,-0.125
11:48:20.984,-0.185,-0.115
11:48:20.992,-0.205,-0.115
11:48:21.000,-0.215,-0.105
11:48:21.008,-0.195,-0.095
11:48:21.016,-0.225,-0.105
11:48:21.023,-0.225,-0.115
11:48:21.031,-0.215,-0.095
11:48:21.039,-0.205,-0.105
11:48:21.047,-0.165,-0.095
11:48:21.055,-0.175,-0.085
11:48:21.063,-0.175,-0.095
11:48:21.070,-0.165,-0.085
11:48:21.078,-0.205,-0.095
11:48:21.086,-0.195,-0.105
11:48:21.094,-0.185,-0.115
11:48:21.102,-0.185,-0.115
11:48:21.109,-0.165,-0.105
11:48:21.117,-0.185,-0.125
11:48:21.125,-0.185,-0.135
11:48:21.133,-0.175,-0.125
11:48:21.141,-0.215,-0.135
11:48:21.148,-0.225,-0.155
11:48:21.156,-0.225,-0.145
11:48:21.164,-0.235,-0.135
11:48:21.172,-0.195,-0.125
11:48:21.180,-0.205,-0.145
11:48:21.188,-0.215,-0.145
11:48:21.195,-0.215,-0.135
11:48:21.203,-0.235,-0.145
11:48:21.211,-0.215,-0.155
11:48:21.219,-0.215,-0.155
11:48:21.227,-0.225,-0.155
11:48:21.234,-0.195,-0.155
11:48:21.242,-0.195,-0.145
11:48:21.250,-0.205,-0.145
11:48:21.258,-0.175,-0.125
11:48:21.266,-0.205,-0.135
11:48:21.273,-0.145,-0.085
11:48:21.281,-0.105,-0.085
11:48:21.289,-0.125,-0.115
11:48:21.297,-0.075,-0.115
11:48:21.305,0.015,-0.125
11:48:21.313,-0.035,-0.155
11:48:21.320,-0.115,-0.155
11:48:21.328,-0.155,-0.165
11:48:21.336,-0.155,-0.195
11:48:21.344,-0.195,-0.175
11:48:21.352,-0.205,-0.155
11:48:21.359,-0.205,-0.185
11:48:21.367,-0.215,-0.175
11:48:21.375,-0.205,-0.175
11:48:21.383,-0.215,-0.145
11:48:21.391,-0.235,-0.165
11:48:21.398,-0.245,-0.175
11:48:21.406,-0.215,-0.155
11:48:21.414,-0.215,-0.145
11:48:21.422,-0.135,-0.085
11:48:21.430,-0.275,0.165
11:48:21.438,-0.695,0.215
11:48:21.445,-0.545,-0.315
11:48:21.453,0.865,-1.525
11:48:21.461,2.255,-1.065
11:48:21.469,2.835,-0.775
11:48:21.477,2.115,-0.445
11:48:21.484,0.305,-0.035
11:48:21.492,-0.145,0.025
11:48:21.500,-0.185,-0.005
11:48:21.508,-0.205,0.035
11:48:21.516,-0.295,-0.005
11:48:21.523,-0.295,-0.025
11:48:21.531,-0.285,0.005
11:48:21.539,-0.285,0.005
11:48:21.547,-0.265,0.025
11:48:21.555,-0.265,-0.005
11:48:21.563,-0.275,-0.005
11:48:21.570,-0.245,0.015
11:48:21.578,-0.285,0.005
11:48:21.586,-0.275,-0.005
11:48:21.594,-0.245,0.015
11:48:21.602,-0.235,0.015
11:48:21.609,-0.175,0.035
11:48:21.617,-0.165,0.015
11:48:21.625,-0.145,0.025
11:48:21.633,-0.105,0.065
11:48:21.641,-0.105,0.055
11:48:21.648,-0.065,0.035
11:48:21.656,-0.015,0.085
11:48:21.664,0.045,0.085
11:48:21.672,0.125,0.105
11:48:21.680,0.185,0.095
11:48:21.688,0.215,0.085
11:48:21.695,0.275,0.105
11:48:21.703,0.285,0.095
11:48:21.711,0.315,0.065
11:48:21.719,0.325,0.075
11:48:21.727,0.295,0.065
11:48:21.734,0.265,0.055
11:48:21.742,0.175,0.005
11:48:21.750,0.085,-0.025
11:48:21.758,0.025,-0.045
11:48:21.766,-0.065,-0.075
11:48:21.773,-0.095,-0.095
11:48:21.781,-0.105,-0.105
11:48:21.789,-0.125,-0.105
11:48:21.797,-0.105,-0.095
11:48:21.805,-0.115,-0.115
11:48:21.813,-0.125,-0.105
11:48:21.820,-0.115,-0.095
11:48:21.828,-0.145,-0.115
11:48:21.836,-0.145,-0.125
11:48:21.844,-0.125,-0.105
11:48:21.852,-0.135,-0.105
11:48:21.859,-0.115,-0.085
11:48:21.867,-0.115,-0.105
11:48:21.875,-0.115,-0.105
11:48:21.883,-0.125,-0.095
11:48:21.891,-0.145,-0.105
11:48:21.898,-0.155,-0.105
11:48:21.906,-0.155,-0.095
11:48:21.914,-0.155,-0.095
11:48:21.922,-0.145,-0.095
11:48:21.930,-0.145,-0.105
11:48:21.938,-0.155,-0.115
11:48:21.945,-0.165,-0.105
11:48:21.953,-0.195,-0.135
11:48:21.961,-0.185,-0.135
11:48:21.969,-0.185,-0.145
11:48:21.977,-0.185,-0.145
11:48:21.984,-0.165,-0.125
11:48:21.992,-0.175,-0.145
11:48:22.000,-0.175,-0.145
11:48:22.008,-0.195,-0.135
11:48:22.016,-0.215,-0.135
11:48:22.023,-0.215,-0.165
11:48:22.031,-0.215,-0.145
11:48:22.039,-0.215,-0.145
11:48:22.047,-0.175,-0.145
11:48:22.055,-0.185,-0.165
11:48:22.063,-0.195,-0.135
11:48:22.070,-0.175,-0.125
11:48:22.078,-0.205,-0.145
11:48:22.086,-0.205,-0.155
11:48:22.094,-0.195,-0.145
11:48:22.102,-0.175,-0.135
11:48:22.109,-0.175,-0.125
11:48:22.117,-0.155,-0.115
11:48:22.125,-0.155,-0.135
11:48:22.133,-0.115,-0.075
11:48:22.141,-0.115,-0.065
11:48:22.148,-0.115,-0.095
11:48:22.156,-0.065,-0.115
11:48:22.164,0.025,-0.115
11:48:22.172,-0.005,-0.145
11:48:22.180,-0.085,-0.155
11:48:22.188,-0.105,-0.155
11:48:22.195,-0.115,-0.165
11:48:22.203,-0.205,-0.155
11:48:22.211,-0.195,-0.165
11:48:22.219,-0.215,-0.175
11:48:22.227,-0.205,-0.155
11:48:22.234,-0.175,-0.155
11:48:22.242,-0.185,-0.155
11:48:22.250,-0.195,-0.175
11:48:22.258,-0.195,-0.155
11:48:22.266,-0.215,-0.165
11:48:22.273,-0.205,-0.185
11:48:22.281,-0.165,-0.085
11:48:22.289,-0.345,0.135
11:48:22.297,-0.685,0.185
11:48:22.305,-0.515,-0.495
11:48:22.313,0.985,-1.495
11:48:22.320,2.265,-1.025
11:48:22.328,2.795,-0.765
11:48:22.336,2.425,-0.555
11:48:22.344,0.475,-0.115
11:48:22.352,-0.155,0.025
11:48:22.359,-0.165,-0.005
11:48:22.367,-0.215,-0.045
11:48:22.375,-0.265,-0.035
11:48:22.383,-0.285,-0.005
11:48:22.391,-0.305,-0.035
11:48:22.398,-0.305,-0.035
11:48:22.406,-0.305,-0.015
11:48:22.414,-0.285,-0.015
11:48:22.422,-0.255,-0.005
11:48:22.430,-0.265,-0.035
11:48:22.438,-0.265,-0.005
11:48:22.445,-0.255,-0.005
11:48:22.453,-0.255,-0.005
11:48:22.461,-0.235,-0.015
11:48:22.469,-0.225,-0.015
11:48:22.477,-0.205,0.025
11:48:22.484,-0.135,0.025
11:48:22.492,-0.125,0.025
11:48:22.500,-0.095,0.055
11:48:22.508,-0.045,0.065
11:48:22.516,-0.035,0.045
11:48:22.523,0.015,0.065
11:48:22.531,0.095,0.075
11:48:22.539,0.155,0.065
11:48:22.547,0.225,0.095
11:48:22.555,0.265,0.085
11:48:22.563,0.295,0.085
11:48:22.570,0.355,0.085
11:48:22.578,0.335,0.085
11:48:22.586,0.305,0.065
11:48:22.594,0.245,0.025
11:48:22.602,0.165,0.015
11:48:22.609,0.085,-0.015
11:48:22.617,-0.015,-0.045
11:48:22.625,-0.105,-0.085
11:48:22.633,-0.155,-0.065
11:48:22.641,-0.185,-0.095
11:48:22.648,-0.215,-0.125
11:48:22.656,-0.225,-0.125
11:48:22.664,-0.215,-0.115
11:48:22.672,-0.195,-0.105
11:48:22.680,-0.205,-0.115
11:48:22.688,-0.215,-0.105
11:48:22.695,-0.205,-0.095
11:48:22.703,-0.215,-0.115
11:48:22.711,-0.235,-0.115
11:48:22.719,-0.215,-0.135
11:48:22.727,-0.215,-0.085
11:48:22.734,-0.195,-0.085
11:48:22.742,-0.195,-0.095
11:48:22.750,-0.195,-0.085
11:48:22.758,-0.185,-0.095
11:48:22.766,-0.205,-0.085
11:48:22.773,-0.225,-0.095
11:48:22.781,-0.215,-0.115
11:48:22.789,-0.205,-0.105
11:48:22.797,-0.195,-0.095
11:48:22.805,-0.195,-0.125
11:48:22.813,-0.205,-0.135
11:48:22.820,-0.215,-0.135
11:48:22.828,-0.235,-0.135
11:48:22.836,-0.245,-0.135
11:48:22.844,-0.235,-0.145
11:48:22.852,-0.225,-0.145
11:48:22.859,-0.225,-0.135
11:48:22.867,-0.225,-0.155
11:48:22.875,-0.235,-0.155
11:48:22.883,-0.225,-0.155
11:48:22.891,-0.245,-0.135
11:48:22.898,-0.255,-0.165
11:48:22.906,-0.255,-0.165
11:48:22.914,-0.235,-0.165
11:48:22.922,-0.215,-0.165
11:48:22.930,-0.215,-0.155
11:48:22.938,-0.225,-0.165
11:48:22.945,-0.205,-0.165
11:48:22.953,-0.225,-0.185
11:48:22.961,-0.245,-0.195
11:48:22.969,-0.225,-0.145
11:48:22.977,-0.205,-0.165
11:48:22.984,-0.165,-0.135
11:48:22.992,-0.125,-0.115
11:48:23.000,-0.125,-0.145
11:48:23.008,-0.135,-0.125
11:48:23.016,-0.025,-0.165
11:48:23.023,-0.065,-0.195
11:48:23.031,-0.145,-0.185
11:48:23.039,-0.155,-0.185
11:48:23.047,-0.135,-0.185
11:48:23.055,-0.185,-0.175
11:48:23.063,-0.195,-0.185
11:48:23.070,-0.225,-0.185
11:48:23.078,-0.255,-0.195
11:48:23.086,-0.255,-0.195
11:48:23.094,-0.235,-0.195
11:48:23.102,-0.235,-0.185
11:48:23.109,-0.215,-0.165
11:48:23.117,-0.225,-0.185
11:48:23.125,-0.225,-0.185
11:48:23.133,-0.205,-0.105
11:48:23.141,-0.365,0.095
11:48:23.148,-0.765,0.135
11:48:23.156,-0.705,-0.265
11:48:23.164,0.635,-1.405
11:48:23.172,2.095,-0.895
11:48:23.180,2.775,-0.765
11:48:23.188,2.085,-0.515
11:48:23.195,0.375,-0.145
11:48:23.203,-0.205,-0.015
11:48:23.211,-0.235,-0.025
11:48:23.219,-0.275,-0.025
11:48:23.227,-0.325,-0.035
11:48:23.234,-0.315,-0.035
11:48:23.242,-0.325,-0.045
11:48:23.250,-0.315,-0.035
11:48:23.258,-0.325,-0.025
11:48:23.266,-0.335,-0.045
11:48:23.273,-0.335,-0.045
11:48:23.281,-0.325,-0.045
11:48:23.289,-0.315,-0.025
11:48:23.297,-0.275,-0.005
11:48:23.305,-0.255,-0.025
11:48:23.313,-0.265,-0.015
11:48:23.320,-0.245,0.015
11:48:23.328,-0.245,0.005
11:48:23.336,-0.215,0.005
11:48:23.344,-0.195,0.005
11:48:23.352,-0.165,0.005
11:48:23.359,-0.085,0.025
11:48:23.367,-0.055,0.025
11:48:23.375,-0.005,0.035
11:48:23.383,0.065,0.045
11:48:23.391,0.105,0.025
11:48:23.398,0.145,0.015
11:48:23.406,0.205,0.035
11:48:23.414,0.245,0.045
11:48:23.422,0.325,0.075
11:48:23.430,0.335,0.065
11:48:23.438,0.285,0.045
11:48:23.445,0.235,0.065
11:48:23.453,0.135,0.045
11:48:23.461,0.055,-0.005
11:48:23.469,-0.045,-0.025
11:48:23.477,-0.135,-0.035
11:48:23.484,-0.165,-0.045
11:48:23.492,-0.205,-0.055
11:48:23.500,-0.215,-0.065
11:48:23.508,-0.235,-0.065
11:48:23.516,-0.265,-0.085
11:48:23.523,-0.265,-0.095
11:48:23.531,-0.265,-0.075
11:48:23.539,-0.255,-0.055
11:48:23.547,-0.215,-0.055
11:48:23.555,-0.235,-0.065
11:48:23.563,-0.235,-0.055
11:48:23.570,-0.245,-0.055
11:48:23.578,-0.265,-0.055
11:48:23.586,-0.265,-0.055
11:48:23.594,-0.255,-0.055
11:48:23.602,-0.235,-0.045
11:48:23.609,-0.225,-0.055
11:48:23.617,-0.245,-0.065
11:48:23.625,-0.255,-0.045
11:48:23.633,-0.255,-0.065
11:48:23.641,-0.275,-0.075
11:48:23.648,-0.275,-0.085
11:48:23.656,-0.265,-0.095
11:48:23.664,-0.265,-0.085
11:48:23.672,-0.245,-0.085
11:48:23.680,-0.265,-0.105
11:48:23.688,-0.265,-0.105
11:48:23.695,-0.275,-0.105
11:48:23.703,-0.295,-0.115
11:48:23.711,-0.305,-0.115
11:48:23.719,-0.275,-0.125
11:48:23.727,-0.265,-0.105
11:48:23.734,-0.255,-0.085
11:48:23.742,-0.255,-0.125
11:48:23.750,-0.265,-0.125
11:48:23.758,-0.245,-0.095
11:48:23.766,-0.265,-0.105
11:48:23.773,-0.285,-0.105
11:48:23.781,-0.265,-0.105
11:48:23.789,-0.225,-0.115
11:48:23.797,-0.195,-0.065
11:48:23.805,-0.165,-0.045
11:48:23.813,-0.135,-0.075
11:48:23.820,-0.165,-0.075
11:48:23.828,-0.085,-0.085
11:48:23.836,-0.035,-0.125
11:48:23.844,-0.105,-0.125
11:48:23.852,-0.155,-0.105
11:48:23.859,-0.135,-0.125
11:48:23.867,-0.185,-0.135
11:48:23.875,-0.235,-0.105
11:48:23.883,-0.235,-0.135
11:48:23.891,-0.265,-0.135
11:48:23.898,-0.265,-0.125
11:48:23.906,-0.245,-0.125
11:48:23.914,-0.235,-0.125
11:48:23.922,-0.215,-0.115
11:48:23.930,-0.235,-0.135
11:48:23.938,-0.215,-0.115
11:48:23.945,-0.215,-0.095
11:48:23.953,-0.215,0.045
11:48:23.961,-0.565,0.165
11:48:23.969,-0.775,0.135
11:48:23.977,-0.185,-0.975
11:48:23.984,1.505,-1.265
11:48:23.992,2.535,-0.825
11:48:24.000,2.855,-0.705
11:48:24.008,1.315,-0.255
11:48:24.016,-0.085,-0.055
11:48:24.023,-0.205,0.015
11:48:24.031,-0.215,-0.005
11:48:24.039,-0.255,-0.015
11:48:24.047,-0.275,0.015
11:48:24.055,-0.295,0.015
11:48:24.063,-0.305,0.015
11:48:24.070,-0.315,0.025
11:48:24.078,-0.325,-0.005
11:48:24.086,-0.315,0.005
11:48:24.094,-0.295,0.005
11:48:24.102,-0.295,0.025
11:48:24.109,-0.265,0.015
11:48:24.117,-0.255,0.005
11:48:24.125,-0.245,0.005
11:48:24.133,-0.235,0.035
11:48:24.141,-0.245,0.005
11:48:24.148,-0.215,0.015
11:48:24.156,-0.175,0.025
11:48:24.164,-0.155,0.055
11:48:24.172,-0.075,0.065
11:48:24.180,-0.035,0.075
11:48:24.188,0.005,0.075
11:48:24.195,0.065,0.085
11:48:24.203,0.105,0.065
11:48:24.211,0.155,0.075
11:48:24.219,0.225,0.085
11:48:24.227,0.275,0.075
11:48:24.234,0.335,0.085
11:48:24.242,0.355,0.095
11:48:24.250,0.345,0.065
11:48:24.258,0.305,0.085
11:48:24.266,0.215,0.065
11:48:24.273,0.105,0.045
11:48:24.281,0.035,0.005
11:48:24.289,-0.045,-0.005
11:48:24.297,-0.085,-0.015
11:48:24.305,-0.145,-0.055
11:48:24.313,-0.165,-0.055
11:48:24.320,-0.185,-0.035
11:48:24.328,-0.195,-0.065
11:48:24.336,-0.215,-0.065
11:48:24.344,-0.195,-0.065
11:48:24.352,-0.185,-0.045
11:48:24.359,-0.155,-0.035
11:48:24.367,-0.165,-0.055
11:48:24.375,-0.165,-0.055
11:48:24.383,-0.185,-0.045
11:48:24.391,-0.195,-0.035
11:48:24.398,-0.185,-0.045
11:48:24.406,-0.175,-0.045
11:48:24.414,-0.165,-0.045
11:48:24.422,-0.145,-0.045
11:48:24.430,-0.155,-0.065
11:48:24.438,-0.165,-0.055
11:48:24.445,-0.155,-0.045
11:48:24.453,-0.175,-0.065
11:48:24.461,-0.185,-0.075
11:48:24.469,-0.185,-0.075
11:48:24.477,-0.185,-0.075
11:48:24.484,-0.165,-0.055
11:48:24.492,-0.165,-0.075
11:48:24.500,-0.175,-0.085
11:48:24.508,-0.185,-0.095
11:48:24.516,-0.205,-0.095
11:48:24.523,-0.215,-0.095
11:48:24.531,-0.205,-0.105
11:48:24.539,-0.205,-0.095
11:48:24.547,-0.175,-0.095
11:48:24.555,-0.185,-0.095
11:48:24.563,-0.195,-0.105
11:48:24.570,-0.195,-0.105
11:48:24.578,-0.205,-0.105
11:48:24.586,-0.215,-0.115
11:48:24.594,-0.195,-0.105
11:48:24.602,-0.185,-0.115
11:48:24.609,-0.175,-0.105
11:48:24.617,-0.165,-0.105
11:48:24.625,-0.165,-0.085
11:48:24.633,-0.155,-0.095
11:48:24.641,-0.145,-0.025
11:48:24.648,-0.105,-0.035
11:48:24.656,-0.105,-0.065
11:48:24.664,-0.105,-0.065
11:48:24.672,0.035,-0.075
11:48:24.680,0.015,-0.115
11:48:24.688,-0.085,-0.115
11:48:24.695,-0.105,-0.115
11:48:24.703,-0.125,-0.145
11:48:24.711,-0.175,-0.145
11:48:24.719,-0.175,-0.115
11:48:24.727,-0.185,-0.135
11:48:24.734,-0.175,-0.135
11:48:24.742,-0.185,-0.135
11:48:24.750,-0.185,-0.145
11:48:24.758,-0.195,-0.115
11:48:24.766,-0.215,-0.135
11:48:24.773,-0.215,-0.135
11:48:24.781,-0.185,-0.125
11:48:24.789,-0.155,-0.075
11:48:24.797,-0.215,0.195
11:48:24.805,-0.625,0.215
11:48:24.813,-0.645,-0.185
11:48:24.820,0.565,-1.505
11:48:24.828,2.135,-1.065
11:48:24.836,2.835,-0.775
11:48:24.844,2.425,-0.475
11:48:24.852,0.585,-0.095
11:48:24.859,-0.075,0.045
11:48:24.867,-0.135,0.005
11:48:24.875,-0.185,0.005
11:48:24.883,-0.215,0.005
11:48:24.891,-0.255,0.015
11:48:24.898,-0.285,-0.005
11:48:24.906,-0.275,-0.005
11:48:24.914,-0.255,0.015
11:48:24.922,-0.235,0.015
11:48:24.930,-0.235,0.005
11:48:24.938,-0.235,0.005
11:48:24.945,-0.235,0.025
11:48:24.953,-0.245,0.025
11:48:24.961,-0.235,0.025
11:48:24.969,-0.195,0.035
11:48:24.977,-0.185,0.045
11:48:24.984,-0.155,0.055
11:48:24.992,-0.135,0.065
11:48:25.000,-0.115,0.075
11:48:25.008,-0.085,0.075
11:48:25.016,-0.065,0.085
11:48:25.023,-0.015,0.085
11:48:25.031,0.045,0.105
11:48:25.039,0.105,0.115
11:48:25.047,0.195,0.125
11:48:25.055,0.255,0.135
11:48:25.063,0.295,0.115
11:48:25.070,0.345,0.145
11:48:25.078,0.385,0.125
11:48:25.086,0.385,0.125
11:48:25.094,0.395,0.115
11:48:25.102,0.355,0.115
11:48:25.109,0.285,0.085
11:48:25.117,0.195,0.045
11:48:25.125,0.085,0.015
11:48:25.133,0.015,-0.015
11:48:25.141,-0.055,-0.015
11:48:25.148,-0.125,-0.045
11:48:25.156,-0.135,-0.045
11:48:25.164,-0.135,-0.045
11:48:25.172,-0.135,-0.045
11:48:25.180,-0.135,-0.035
11:48:25.188,-0.145,-0.055
11:48:25.195,-0.125,-0.035
11:48:25.203,-0.135,-0.045
11:48:25.211,-0.145,-0.055
11:48:25.219,-0.125,-0.045
11:48:25.227,-0.115,-0.025
11:48:25.234,-0.095,-0.015
11:48:25.242,-0.105,-0.035
11:48:25.250,-0.115,-0.035
11:48:25.258,-0.125,-0.045
11:48:25.266,-0.135,-0.015
11:48:25.273,-0.145,-0.025
11:48:25.281,-0.135,-0.035
11:48:25.289,-0.135,-0.035
11:48:25.297,-0.135,-0.045
11:48:25.305,-0.125,-0.055
11:48:25.313,-0.135,-0.055
11:48:25.320,-0.155,-0.055
11:48:25.328,-0.165,-0.075
11:48:25.336,-0.185,-0.085
11:48:25.344,-0.175,-0.095
11:48:25.352,-0.165,-0.085
11:48:25.359,-0.145,-0.085
11:48:25.367,-0.155,-0.095
11:48:25.375,-0.165,-0.095
11:48:25.383,-0.165,-0.085
11:48:25.391,-0.185,-0.125
11:48:25.398,-0.175,-0.105
11:48:25.406,-0.185,-0.105
11:48:25.414,-0.175,-0.105
11:48:25.422,-0.145,-0.095
11:48:25.430,-0.145,-0.105
11:48:25.438,-0.155,-0.105
11:48:25.445,-0.155,-0.085
11:48:25.453,-0.175,-0.095
11:48:25.461,-0.165,-0.115
11:48:25.469,-0.165,-0.115
11:48:25.477,-0.175,-0.095
11:48:25.484,-0.135,-0.095
11:48:25.492,-0.135,-0.095
11:48:25.500,-0.135,-0.075
11:48:25.508,-0.115,-0.075
11:48:25.516,-0.135,-0.075
11:48:25.523,-0.075,-0.045
11:48:25.531,-0.045,-0.045
11:48:25.539,-0.065,-0.085
11:48:25.547,0.015,-0.075
11:48:25.555,0.075,-0.115
11:48:25.563,-0.025,-0.145
11:48:25.570,-0.105,-0.095
11:48:25.578,-0.105,-0.135
11:48:25.586,-0.125,-0.145
11:48:25.594,-0.155,-0.105
11:48:25.602,-0.165,-0.115
11:48:25.609,-0.155,-0.115
11:48:25.617,-0.155,-0.135
11:48:25.625,-0.155,-0.105
11:48:25.633,-0.165,-0.105
11:48:25.641,-0.175,-0.125
11:48:25.648,-0.175,-0.105
11:48:25.656,-0.155,-0.115
11:48:25.664,-0.155,-0.105
11:48:25.672,-0.105,0.095
11:48:25.680,-0.455,0.175
11:48:25.688,-0.675,0.045
11:48:25.695,-0.025,-1.095
11:48:25.703,1.605,-1.375
11:48:25.711,2.595,-0.785
11:48:25.719,2.925,-0.705
11:48:25.727,1.585,-0.265
11:48:25.734,0.135,-0.025
11:48:25.742,-0.085,0.025
11:48:25.750,-0.165,0.005
11:48:25.758,-0.205,0.005
11:48:25.766,-0.245,0.015
11:48:25.773,-0.285,-0.005
11:48:25.781,-0.265,-0.015
11:48:25.789,-0.275,0.015
11:48:25.797,-0.245,0.045
11:48:25.805,-0.245,0.025
11:48:25.813,-0.255,0.015
11:48:25.820,-0.255,0.025
11:48:25.828,-0.255,0.025
11:48:25.836,-0.255,0.025
11:48:25.844,-0.225,0.025
11:48:25.852,-0.205,0.045
11:48:25.859,-0.165,0.075
11:48:25.867,-0.155,0.045
11:48:25.875,-0.155,0.075
11:48:25.883,-0.115,0.095
11:48:25.891,-0.095,0.065
11:48:25.898,-0.045,0.075
11:48:25.906,0.005,0.085
11:48:25.914,0.075,0.105
11:48:25.922,0.165,0.115
11:48:25.930,0.215,0.115
11:48:25.938,0.255,0.115
11:48:25.945,0.305,0.145
11:48:25.953,0.325,0.115
11:48:25.961,0.355,0.115
11:48:25.969,0.365,0.125
11:48:25.977,0.335,0.095
11:48:25.984,0.275,0.085
11:48:25.992,0.175,0.045
11:48:26.000,0.055,0.005
11:48:26.008,-0.025,0.005
11:48:26.016,-0.115,-0.015
11:48:26.023,-0.155,-0.065
11:48:26.031,-0.185,-0.055
11:48:26.039,-0.195,-0.055
11:48:26.047,-0.175,-0.045
11:48:26.055,-0.185,-0.075
11:48:26.063,-0.185,-0.055
11:48:26.070,-0.175,-0.065
11:48:26.078,-0.185,-0.075
11:48:26.086,-0.205,-0.075
11:48:26.094,-0.195,-0.065
11:48:26.102,-0.195,-0.065
11:48:26.109,-0.175,-0.045
11:48:26.117,-0.175,-0.065
11:48:26.125,-0.185,-0.055
11:48:26.133,-0.175,-0.055
11:48:26.141,-0.195,-0.055
11:48:26.148,-0.205,-0.065
11:48:26.156,-0.195,-0.065
11:48:26.164,-0.195,-0.055
11:48:26.172,-0.185,-0.055
11:48:26.180,-0.185,-0.065
11:48:26.188,-0.195,-0.085
11:48:26.195,-0.205,-0.065
11:48:26.203,-0.225,-0.085
11:48:26.211,-0.235,-0.105
11:48:26.219,-0.245,-0.085
11:48:26.227,-0.235,-0.075
11:48:26.234,-0.205,-0.105
11:48:26.242,-0.215,-0.115
11:48:26.250,-0.225,-0.095
11:48:26.258,-0.225,-0.105
11:48:26.266,-0.265,-0.115
11:48:26.273,-0.265,-0.125
11:48:26.281,-0.265,-0.115
11:48:26.289,-0.255,-0.135
11:48:26.297,-0.225,-0.115
11:48:26.305,-0.235,-0.115
11:48:26.313,-0.235,-0.105
11:48:26.320,-0.225,-0.105
11:48:26.328,-0.255,-0.115
11:48:26.336,-0.255,-0.125
11:48:26.344,-0.255,-0.125
11:48:26.352,-0.265,-0.125
11:48:26.359,-0.215,-0.095
11:48:26.367,-0.205,-0.135
11:48:26.375,-0.225,-0.105
11:48:26.383,-0.165,-0.055
11:48:26.391,-0.175,-0.085
11:48:26.398,-0.175,-0.105
11:48:26.406,-0.085,-0.105
11:48:26.414,-0.035,-0.125
11:48:26.422,-0.095,-0.125
11:48:26.430,-0.165,-0.145
11:48:26.438,-0.155,-0.165
11:48:26.445,-0.185,-0.135
11:48:26.453,-0.245,-0.125
11:48:26.461,-0.245,-0.175
11:48:26.469,-0.225,-0.145
11:48:26.477,-0.235,-0.145
11:48:26.484,-0.215,-0.125
11:48:26.492,-0.215,-0.135
11:48:26.500,-0.215,-0.125
11:48:26.508,-0.235,-0.135
11:48:26.516,-0.225,-0.105
11:48:26.523,-0.225,-0.135
11:48:26.531,-0.195,0.015
11:48:26.539,-0.485,0.145
11:48:26.547,-0.765,0.215
11:48:26.555,-0.495,-0.565
11:48:26.563,1.195,-1.365
11:48:26.570,2.475,-0.805
11:48:26.578,2.925,-0.705
11:48:26.586,2.025,-0.485
11:48:26.594,0.325,-0.125
11:48:26.602,-0.185,0.035
11:48:26.609,-0.185,0.015
11:48:26.617,-0.235,-0.025
11:48:26.625,-0.285,-0.015
11:48:26.633,-0.295,-0.005
11:48:26.641,-0.315,-0.025
11:48:26.648,-0.325,-0.045
11:48:26.656,-0.335,-0.025
11:48:26.664,-0.315,0.005
11:48:26.672,-0.295,0.005
11:48:26.680,-0.285,-0.005
11:48:26.688,-0.295,-0.025
11:48:26.695,-0.295,-0.015
11:48:26.703,-0.275,-0.005
11:48:26.711,-0.275,-0.015
11:48:26.719,-0.255,-0.005
11:48:26.727,-0.215,0.005
11:48:26.734,-0.195,0.025
11:48:26.742,-0.155,0.015
11:48:26.750,-0.135,0.005
11:48:26.758,-0.085,0.025
11:48:26.766,-0.055,0.035
11:48:26.773,-0.025,0.025
11:48:26.781,0.055,0.025
11:48:26.789,0.125,0.055
11:48:26.797,0.195,0.045
11:48:26.805,0.255,0.045
11:48:26.813,0.295,0.035
11:48:26.820,0.335,0.055
11:48:26.828,0.335,0.035
11:48:26.836,0.275,0.045
11:48:26.844,0.215,0.035
11:48:26.852,0.135,0.035
11:48:26.859,0.045,0.015
11:48:26.867,-0.045,-0.025
11:48:26.875,-0.125,-0.055
11:48:26.883,-0.195,-0.055
11:48:26.891,-0.235,-0.075
11:48:26.898,-0.255,-0.085
11:48:26.906,-0.245,-0.065
11:48:26.914,-0.225,-0.065
11:48:26.922,-0.225,-0.075
11:48:26.930,-0.235,-0.085
11:48:26.938,-0.215,-0.075
11:48:26.945,-0.215,-0.055
11:48:26.953,-0.245,-0.055
11:48:26.961,-0.255,-0.075
11:48:26.969,-0.245,-0.055
11:48:26.977,-0.235,-0.055
11:48:26.984,-0.205,-0.055
11:48:26.992,-0.205,-0.055
11:48:27.000,-0.205,-0.055
11:48:27.008,-0.215,-0.065
11:48:27.016,-0.225,-0.075
11:48:27.023,-0.225,-0.105
11:48:27.031,-0.225,-0.075
11:48:27.039,-0.225,-0.075
11:48:27.047,-0.195,-0.065
11:48:27.055,-0.195,-0.085
11:48:27.063,-0.215,-0.095
11:48:27.070,-0.215,-0.075
11:48:27.078,-0.215,-0.095
11:48:27.086,-0.245,-0.125
11:48:27.094,-0.235,-0.105
11:48:27.102,-0.225,-0.105
11:48:27.109,-0.205,-0.095
11:48:27.117,-0.195,-0.105
11:48:27.125,-0.205,-0.105
11:48:27.133,-0.205,-0.095
11:48:27.141,-0.225,-0.095
11:48:27.148,-0.235,-0.105
11:48:27.156,-0.225,-0.105
11:48:27.164,-0.215,-0.115
11:48:27.172,-0.175,-0.095
11:48:27.180,-0.195,-0.125
11:48:27.188,-0.185,-0.075
11:48:27.195,-0.175,-0.095
11:48:27.203,-0.185,-0.055
11:48:27.211,-0.115,-0.055
11:48:27.219,-0.105,-0.065
11:48:27.227,-0.125,-0.065
11:48:27.234,0.015,-0.075
11:48:27.242,0.005,-0.125
11:48:27.250,-0.095,-0.105
11:48:27.258,-0.115,-0.105
11:48:27.266,-0.145,-0.135
11:48:27.273,-0.185,-0.145
11:48:27.281,-0.195,-0.135
11:48:27.289,-0.195,-0.135
11:48:27.297,-0.185,-0.125
11:48:27.305,-0.195,-0.135
11:48:27.313,-0.195,-0.125
11:48:27.320,-0.185,-0.115
11:48:27.328,-0.225,-0.125
11:48:27.336,-0.205,-0.135
11:48:27.344,-0.195,-0.135
11:48:27.352,-0.175,-0.095
11:48:27.359,-0.215,0.135
11:48:27.367,-0.625,0.215
11:48:27.375,-0.645,-0.115
11:48:27.383,0.575,-1.305
11:48:27.391,2.095,-1.005
11:48:27.398,2.775,-0.755
11:48:27.406,2.275,-0.485
11:48:27.414,0.555,-0.075
11:48:27.422,-0.095,0.055
11:48:27.430,-0.145,0.045
11:48:27.438,-0.195,0.025
11:48:27.445,-0.215,0.025
11:48:27.453,-0.275,0.015
11:48:27.461,-0.265,0.005
11:48:27.469,-0.265,0.015
11:48:27.477,-0.275,0.015
11:48:27.484,-0.245,0.035
11:48:27.492,-0.245,0.025
11:48:27.500,-0.235,0.025
11:48:27.508,-0.215,0.025
11:48:27.516,-0.235,0.025
11:48:27.523,-0.215,0.005
11:48:27.531,-0.195,0.035
11:48:27.539,-0.185,0.035
11:48:27.547,-0.125,0.075
11:48:27.555,-0.125,0.045
11:48:27.563,-0.115,0.055
11:48:27.570,-0.075,0.065
11:48:27.578,-0.065,0.065
11:48:27.586,-0.025,0.065
11:48:27.594,0.035,0.095
11:48:27.602,0.085,0.095
11:48:27.609,0.195,0.115
11:48:27.617,0.245,0.085
11:48:27.625,0.295,0.105
11:48:27.633,0.365,0.125
11:48:27.641,0.345,0.125
11:48:27.648,0.375,0.115
11:48:27.656,0.365,0.135
11:48:27.664,0.295,0.105
11:48:27.672,0.235,0.085
11:48:27.680,0.125,0.045
11:48:27.688,0.025,0.035
11:48:27.695,-0.035,0.015
11:48:27.703,-0.115,-0.015
11:48:27.711,-0.145,-0.045
11:48:27.719,-0.165,-0.055
11:48:27.727,-0.175,-0.045
11:48:27.734,-0.145,-0.045
11:48:27.742,-0.155,-0.065
11:48:27.750,-0.155,-0.065
11:48:27.758,-0.145,-0.045
11:48:27.766,-0.185,-0.045
11:48:27.773,-0.185,-0.045
11:48:27.781,-0.165,-0.045
11:48:27.789,-0.165,-0.055
11:48:27.797,-0.135,-0.025
11:48:27.805,-0.135,-0.035
11:48:27.813,-0.145,-0.055
11:48:27.820,-0.135,-0.035
11:48:27.828,-0.145,-0.045
11:48:27.836,-0.145,-0.065
11:48:27.844,-0.145,-0.065
11:48:27.852,-0.155,-0.065
11:48:27.859,-0.115,-0.055
11:48:27.867,-0.135,-0.075
11:48:27.875,-0.145,-0.065
11:48:27.883,-0.135,-0.065
11:48:27.891,-0.165,-0.065
11:48:27.898,-0.165,-0.095
11:48:27.906,-0.165,-0.075
11:48:27.914,-0.165,-0.065
11:48:27.922,-0.125,-0.075
11:48:27.930,-0.155,-0.095
11:48:27.938,-0.155,-0.105
11:48:27.945,-0.145,-0.105
11:48:27.953,-0.185,-0.105
11:48:27.961,-0.155,-0.105
11:48:27.969,-0.155,-0.105
11:48:27.977,-0.165,-0.115
11:48:27.984,-0.125,-0.085
11:48:27.992,-0.135,-0.115
11:48:28.000,-0.145,-0.115
11:48:28.008,-0.125,-0.095
11:48:28.016,-0.155,-0.105
11:48:28.023,-0.155,-0.125
11:48:28.031,-0.145,-0.115
11:48:28.039,-0.125,-0.085
11:48:28.047,-0.095,-0.085
11:48:28.055,-0.055,-0.035
11:48:28.063,-0.035,-0.045
11:48:28.070,-0.025,-0.045
11:48:28.078,0.005,-0.075
11:48:28.086,0.055,-0.105
11:48:28.094,0.005,-0.125
11:48:28.102,-0.075,-0.115
11:48:28.109,-0.045,-0.125
11:48:28.117,-0.055,-0.155
11:48:28.125,-0.105,-0.145
11:48:28.133,-0.115,-0.135
11:48:28.141,-0.155,-0.145
11:48:28.148,-0.155,-0.145
11:48:28.156,-0.145,-0.135
11:48:28.164,-0.135,-0.145
11:48:28.172,-0.115,-0.125
11:48:28.180,-0.125,-0.135
11:48:28.188,-0.125,-0.135
11:48:28.195,-0.125,-0.125
11:48:28.203,-0.105,-0.115
11:48:28.211,-0.155,0.125
11:48:28.219,-0.565,0.215
11:48:28.227,-0.615,-0.095
11:48:28.234,0.655,-1.355
11:48:28.242,2.125,-1.185
11:48:28.250,2.785,-0.795
11:48:28.258,2.725,-0.615
11:48:28.266,0.915,-0.135
11:48:28.273,-0.045,-0.005
11:48:28.281,-0.065,0.025
11:48:28.289,-0.125,0.015
11:48:28.297,-0.145,-0.005
11:48:28.305,-0.175,-0.005
11:48:28.313,-0.205,0.015
11:48:28.320,-0.195,0.025
11:48:28.328,-0.215,0.015
11:48:28.336,-0.225,-0.005
11:48:28.344,-0.195,-0.005
11:48:28.352,-0.185,0.015
11:48:28.359,-0.165,0.015
11:48:28.367,-0.155,0.005
11:48:28.375,-0.155,0.015
11:48:28.383,-0.135,0.025
11:48:28.391,-0.145,0.025
11:48:28.398,-0.145,0.005
11:48:28.406,-0.095,0.025
11:48:28.414,-0.065,0.065
11:48:28.422,-0.025,0.085
11:48:28.430,0.015,0.075
11:48:28.438,0.045,0.065
11:48:28.445,0.095,0.115
11:48:28.453,0.145,0.125
11:48:28.461,0.175,0.105
11:48:28.469,0.275,0.125
11:48:28.477,0.335,0.135
11:48:28.484,0.415,0.145
11:48:28.492,0.455,0.115
11:48:28.500,0.465,0.125
11:48:28.508,0.445,0.125
11:48:28.516,0.365,0.085
11:48:28.523,0.285,0.045
11:48:28.531,0.195,0.025
11:48:28.539,0.105,0.005
11:48:28.547,0.045,-0.005
11:48:28.555,-0.025,-0.035
11:48:28.563,-0.065,-0.055
11:48:28.570,-0.095,-0.055
11:48:28.578,-0.125,-0.075
11:48:28.586,-0.115,-0.085
11:48:28.594,-0.115,-0.085
11:48:28.602,-0.115,-0.085
11:48:28.609,-0.085,-0.055
11:48:28.617,-0.095,-0.065
11:48:28.625,-0.095,-0.065
11:48:28.633,-0.095,-0.065
11:48:28.641,-0.105,-0.065
11:48:28.648,-0.125,-0.075
11:48:28.656,-0.115,-0.065
11:48:28.664,-0.115,-0.065
11:48:28.672,-0.075,-0.045
11:48:28.680,-0.085,-0.055
11:48:28.688,-0.105,-0.075
11:48:28.695,-0.115,-0.055
11:48:28.703,-0.125,-0.065
11:48:28.711,-0.135,-0.075
11:48:28.719,-0.135,-0.085
11:48:28.727,-0.135,-0.095
11:48:28.734,-0.115,-0.085
11:48:28.742,-0.125,-0.125
11:48:28.750,-0.135,-0.105
11:48:28.758,-0.135,-0.115
11:48:28.766,-0.165,-0.145
11:48:28.773,-0.175,-0.135
11:48:28.781,-0.175,-0.125
11:48:28.789,-0.165,-0.115
11:48:28.797,-0.145,-0.125
11:48:28.805,-0.145,-0.145
11:48:28.813,-0.165,-0.145
11:48:28.820,-0.155,-0.135
11:48:28.828,-0.185,-0.145
11:48:28.836,-0.185,-0.145
11:48:28.844,-0.165,-0.145
11:48:28.852,-0.165,-0.145
11:48:28.859,-0.135,-0.135
11:48:28.867,-0.155,-0.145
11:48:28.875,-0.155,-0.125
11:48:28.883,-0.145,-0.145
11:48:28.891,-0.175,-0.155
11:48:28.898,-0.165,-0.155
11:48:28.906,-0.155,-0.155
11:48:28.914,-0.165,-0.145
11:48:28.922,-0.125,-0.135
11:48:28.930,-0.115,-0.155
11:48:28.938,-0.115,-0.105
11:48:28.945,-0.065,-0.085
11:48:28.953,-0.095,-0.125
11:48:28.961,-0.075,-0.125
11:48:28.969,0.025,-0.155
11:48:28.977,-0.015,-0.175
11:48:28.984,-0.095,-0.155
11:48:28.992,-0.095,-0.185
11:48:29.000,-0.105,-0.195
11:48:29.008,-0.135,-0.175
11:48:29.016,-0.205,-0.165
11:48:29.023,-0.205,-0.175
11:48:29.031,-0.205,-0.185
11:48:29.039,-0.205,-0.195
11:48:29.047,-0.165,-0.155
11:48:29.055,-0.195,-0.195
11:48:29.063,-0.195,-0.175
11:48:29.070,-0.185,-0.165
11:48:29.078,-0.205,-0.185
11:48:29.086,-0.175,-0.145
11:48:29.094,-0.305,0.105
11:48:29.102,-0.695,0.145
11:48:29.109,-0.465,-0.405
11:48:29.117,0.925,-1.505
11:48:29.125,2.205,-0.995
11:48:29.133,2.765,-0.765
11:48:29.141,2.135,-0.555
11:48:29.148,0.445,-0.145
11:48:29.156,-0.135,-0.015
11:48:29.164,-0.165,-0.015
11:48:29.172,-0.205,-0.055
11:48:29.180,-0.265,-0.035
11:48:29.188,-0.285,-0.025
11:48:29.195,-0.285,-0.015
11:48:29.203,-0.325,-0.025
11:48:29.211,-0.325,-0.045
11:48:29.219,-0.305,-0.025
11:48:29.227,-0.315,-0.025
11:48:29.234,-0.275,-0.015
11:48:29.242,-0.285,-0.045
11:48:29.250,-0.275,-0.015
11:48:29.258,-0.245,-0.005
11:48:29.266,-0.275,-0.025
11:48:29.273,-0.245,-0.025
11:48:29.281,-0.225,-0.025
11:48:29.289,-0.205,0.015
11:48:29.297,-0.155,0.005
11:48:29.305,-0.135,0.025
11:48:29.313,-0.095,0.045
11:48:29.320,-0.035,0.075
11:48:29.328,-0.025,0.055
11:48:29.336,0.045,0.055
11:48:29.344,0.095,0.055
11:48:29.352,0.155,0.065
11:48:29.359,0.245,0.085
11:48:29.367,0.275,0.085
11:48:29.375,0.315,0.095
11:48:29.383,0.335,0.115
11:48:29.391,0.285,0.105
11:48:29.398,0.225,0.065
11:48:29.406,0.145,0.035
11:48:29.414,0.035,0.015
11:48:29.422,-0.025,0.005
11:48:29.430,-0.125,-0.035
11:48:29.438,-0.185,-0.065
11:48:29.445,-0.215,-0.065
11:48:29.453,-0.275,-0.085
11:48:29.461,-0.275,-0.095
11:48:29.469,-0.265,-0.085
11:48:29.477,-0.265,-0.075
11:48:29.484,-0.245,-0.085
11:48:29.492,-0.255,-0.095
11:48:29.500,-0.265,-0.095
11:48:29.508,-0.245,-0.065
11:48:29.516,-0.285,-0.075
11:48:29.523,-0.285,-0.085
11:48:29.531,-0.265,-0.085
11:48:29.539,-0.265,-0.065
11:48:29.547,-0.235,-0.055
11:48:29.555,-0.255,-0.085
11:48:29.563,-0.265,-0.085
11:48:29.570,-0.265,-0.075
11:48:29.578,-0.285,-0.085
11:48:29.586,-0.285,-0.095
11:48:29.594,-0.295,-0.085
11:48:29.602,-0.285,-0.065
11:48:29.609,-0.265,-0.065
11:48:29.617,-0.275,-0.105
11:48:29.625,-0.285,-0.095
11:48:29.633,-0.275,-0.105
11:48:29.641,-0.305,-0.115
11:48:29.648,-0.305,-0.115
11:48:29.656,-0.305,-0.105
11:48:29.664,-0.315,-0.115
11:48:29.672,-0.295,-0.105
11:48:29.680,-0.305,-0.115
11:48:29.688,-0.305,-0.135
11:48:29.695,-0.295,-0.115
11:48:29.703,-0.345,-0.125
11:48:29.711,-0.315,-0.145
11:48:29.719,-0.305,-0.145
11:48:29.727,-0.325,-0.135
11:48:29.734,-0.295,-0.125
11:48:29.742,-0.285,-0.135
11:48:29.750,-0.295,-0.135
11:48:29.758,-0.285,-0.125
11:48:29.766,-0.305,-0.115
11:48:29.773,-0.305,-0.145
11:48:29.781,-0.285,-0.105
11:48:29.789,-0.235,-0.075
11:48:29.797,-0.195,-0.085
11:48:29.805,-0.215,-0.115
11:48:29.813,-0.115,-0.125
11:48:29.820,-0.105,-0.145
11:48:29.828,-0.225,-0.155
11:48:29.836,-0.235,-0.135
11:48:29.844,-0.215,-0.165
11:48:29.852,-0.275,-0.155
11:48:29.859,-0.275,-0.115
11:48:29.867,-0.295,-0.165
11:48:29.875,-0.295,-0.165
11:48:29.883,-0.285,-0.155
11:48:29.891,-0.305,-0.145
11:48:29.898,-0.325,-0.155
11:48:29.906,-0.305,-0.155
11:48:29.914,-0.295,-0.135
11:48:29.922,-0.275,-0.135
11:48:29.930,-0.265,-0.145
11:48:29.938,-0.265,0.015
11:48:29.945,-0.635,0.115
11:48:29.953,-0.835,0.075
11:48:29.961,0.025,-1.045
11:48:29.969,1.665,-1.115
11:48:29.977,2.615,-0.775
11:48:29.984,2.655,-0.635
11:48:29.992,0.795,-0.245
11:48:30.000,-0.195,-0.035
11:48:30.008,-0.255,0.005
11:48:30.016,-0.295,-0.015
11:48:30.023,-0.335,-0.025
11:48:30.031,-0.345,-0.025
11:48:30.039,-0.375,-0.015
11:48:30.047,-0.355,-0.015
11:48:30.055,-0.355,-0.035
11:48:30.063,-0.365,-0.025
11:48:30.070,-0.355,-0.025
11:48:30.078,-0.375,-0.005
11:48:30.086,-0.365,-0.035
11:48:30.094,-0.345,-0.035
11:48:30.102,-0.325,-0.025
11:48:30.109,-0.295,-0.005
11:48:30.117,-0.285,-0.015
11:48:30.125,-0.265,-0.025
11:48:30.133,-0.255,0.005
11:48:30.141,-0.235,-0.005
11:48:30.148,-0.205,-0.005
11:48:30.156,-0.155,0.005
11:48:30.164,-0.115,0.005
11:48:30.172,-0.015,0.025
11:48:30.180,0.025,0.025
11:48:30.188,0.085,0.035
11:48:30.195,0.145,0.045
11:48:30.203,0.175,0.045
11:48:30.211,0.215,0.035
11:48:30.219,0.265,0.065
11:48:30.227,0.295,0.065
11:48:30.234,0.315,0.085
11:48:30.242,0.255,0.065
11:48:30.250,0.165,0.055
11:48:30.258,0.065,0.045
11:48:30.266,-0.065,0.015
11:48:30.273,-0.135,-0.035
11:48:30.281,-0.185,-0.055
11:48:30.289,-0.235,-0.065
11:48:30.297,-0.235,-0.045
11:48:30.305,-0.255,-0.065
11:48:30.313,-0.275,-0.055
11:48:30.320,-0.255,-0.055
11:48:30.328,-0.285,-0.065
11:48:30.336,-0.265,-0.055
11:48:30.344,-0.255,-0.045
11:48:30.352,-0.265,-0.045
11:48:30.359,-0.225,-0.035
11:48:30.367,-0.235,-0.045
11:48:30.375,-0.225,-0.055
11:48:30.383,-0.205,-0.045
11:48:30.391,-0.245,-0.045
11:48:30.398,-0.235,-0.055
11:48:30.406,-0.235,-0.065
11:48:30.414,-0.225,-0.065
11:48:30.422,-0.195,-0.055
11:48:30.430,-0.205,-0.065
11:48:30.438,-0.215,-0.065
11:48:30.445,-0.205,-0.055
11:48:30.453,-0.245,-0.075
11:48:30.461,-0.245,-0.095
11:48:30.469,-0.245,-0.085
11:48:30.477,-0.235,-0.075
11:48:30.484,-0.215,-0.065
11:48:30.492,-0.235,-0.085
11:48:30.500,-0.235,-0.095
11:48:30.508,-0.235,-0.085
11:48:30.516,-0.265,-0.095
11:48:30.523,-0.265,-0.115
11:48:30.531,-0.245,-0.095
11:48:30.539,-0.235,-0.085
11:48:30.547,-0.225,-0.095
11:48:30.555,-0.225,-0.085
11:48:30.563,-0.215,-0.095
11:48:30.570,-0.215,-0.105
11:48:30.578,-0.225,-0.095
11:48:30.586,-0.215,-0.075
11:48:30.594,-0.195,-0.105
11:48:30.602,-0.145,-0.025
11:48:30.609,-0.095,-0.015
11:48:30.617,-0.115,-0.065
11:48:30.625,-0.085,-0.065
11:48:30.633,0.005,-0.095
11:48:30.641,-0.075,-0.115
11:48:30.648,-0.175,-0.125
11:48:30.656,-0.145,-0.135
11:48:30.664,-0.145,-0.145
11:48:30.672,-0.175,-0.105
11:48:30.680,-0.195,-0.135
11:48:30.688,-0.205,-0.145
11:48:30.695,-0.205,-0.135
11:48:30.703,-0.225,-0.125
11:48:30.711,-0.235,-0.135
11:48:30.719,-0.215,-0.145
11:48:30.727,-0.215,-0.135
11:48:30.734,-0.195,-0.105
11:48:30.742,-0.195,-0.135
11:48:30.750,-0.185,-0.055
11:48:30.758,-0.335,0.175
11:48:30.766,-0.705,0.255
11:48:30.773,-0.575,-0.405
11:48:30.781,0.955,-1.515
11:48:30.789,2.305,-0.965
11:48:30.797,2.845,-0.765
11:48:30.805,2.215,-0.475
11:48:30.813,0.445,-0.085
11:48:30.820,-0.155,0.025
11:48:30.828,-0.135,0.025
11:48:30.836,-0.205,0.015
11:48:30.844,-0.235,0.035
11:48:30.852,-0.265,0.025
11:48:30.859,-0.275,0.025
11:48:30.867,-0.265,0.035
11:48:30.875,-0.275,0.025
11:48:30.883,-0.275,0.025
11:48:30.891,-0.285,0.025
11:48:30.898,-0.295,0.025
11:48:30.906,-0.265,0.025
11:48:30.914,-0.245,0.035
11:48:30.922,-0.215,0.045
11:48:30.930,-0.205,0.065
11:48:30.938,-0.195,0.055
11:48:30.945,-0.175,0.065
11:48:30.953,-0.145,0.075
11:48:30.961,-0.125,0.075
11:48:30.969,-0.085,0.095
11:48:30.977,-0.035,0.085
11:48:30.984,0.055,0.125
11:48:30.992,0.105,0.125
11:48:31.000,0.155,0.115
11:48:31.008,0.215,0.125
11:48:31.016,0.245,0.115
11:48:31.023,0.295,0.115
11:48:31.031,0.355,0.115
11:48:31.039,0.375,0.105
11:48:31.047,0.425,0.135
11:48:31.055,0.355,0.115
11:48:31.063,0.265,0.105
11:48:31.070,0.175,0.095
11:48:31.078,0.045,0.015
11:48:31.086,-0.045,-0.005
11:48:31.094,-0.115,-0.035
11:48:31.102,-0.145,-0.025
11:48:31.109,-0.135,-0.025
11:48:31.117,-0.155,-0.065
11:48:31.125,-0.175,-0.055
11:48:31.133,-0.155,-0.045
11:48:31.141,-0.195,-0.055
11:48:31.148,-0.185,-0.055
11:48:31.156,-0.175,-0.045
11:48:31.164,-0.185,-0.045
11:48:31.172,-0.145,-0.025
11:48:31.180,-0.155,-0.055
11:48:31.188,-0.145,-0.035
11:48:31.195,-0.135,-0.005
11:48:31.203,-0.175,-0.035
11:48:31.211,-0.165,-0.045
11:48:31.219,-0.155,-0.055
11:48:31.227,-0.165,-0.035
11:48:31.234,-0.135,-0.015
11:48:31.242,-0.145,-0.045
11:48:31.250,-0.155,-0.055
11:48:31.258,-0.145,-0.035
11:48:31.266,-0.175,-0.055
11:48:31.273,-0.175,-0.075
11:48:31.281,-0.175,-0.075
11:48:31.289,-0.175,-0.085
11:48:31.297,-0.145,-0.065
11:48:31.305,-0.155,-0.085
11:48:31.313,-0.175,-0.105
11:48:31.320,-0.165,-0.085
11:48:31.328,-0.195,-0.085
11:48:31.336,-0.205,-0.105
11:48:31.344,-0.185,-0.095
11:48:31.352,-0.185,-0.095
11:48:31.359,-0.155,-0.085
11:48:31.367,-0.165,-0.095
11:48:31.375,-0.175,-0.095
11:48:31.383,-0.175,-0.095
11:48:31.391,-0.195,-0.105
11:48:31.398,-0.185,-0.125
11:48:31.406,-0.175,-0.105
11:48:31.414,-0.165,-0.115
11:48:31.422,-0.145,-0.105
11:48:31.430,-0.145,-0.095
11:48:31.438,-0.125,-0.105
11:48:31.445,-0.115,-0.075
11:48:31.453,-0.075,-0.045
11:48:31.461,-0.075,-0.055
11:48:31.469,-0.085,-0.085
11:48:31.477,0.015,-0.095
11:48:31.484,0.045,-0.135
11:48:31.492,-0.055,-0.145
11:48:31.500,-0.085,-0.135
11:48:31.508,-0.095,-0.145
11:48:31.516,-0.125,-0.145
11:48:31.523,-0.175,-0.135
11:48:31.531,-0.165,-0.155
11:48:31.539,-0.185,-0.155
11:48:31.547,-0.155,-0.135
11:48:31.555,-0.155,-0.145
11:48:31.563,-0.165,-0.145
11:48:31.570,-0.165,-0.145
11:48:31.578,-0.175,-0.155
11:48:31.586,-0.185,-0.165
11:48:31.594,-0.155,-0.155
11:48:31.602,-0.135,0.025
11:48:31.609,-0.405,0.175
11:48:31.617,-0.675,0.055
11:48:31.625,-0.025,-1.165
11:48:31.633,1.665,-1.375
11:48:31.641,2.635,-0.825
11:48:31.648,2.815,-0.685
11:48:31.656,1.135,-0.155
11:48:31.664,-0.035,0.025
11:48:31.672,-0.105,0.015
11:48:31.680,-0.165,-0.015
11:48:31.688,-0.215,-0.025
11:48:31.695,-0.245,0.005
11:48:31.703,-0.265,-0.015
11:48:31.711,-0.275,-0.035
11:48:31.719,-0.275,-0.005
11:48:31.727,-0.265,-0.005
11:48:31.734,-0.245,0.025
11:48:31.742,-0.245,0.005
11:48:31.750,-0.235,-0.005
11:48:31.758,-0.235,0.005
11:48:31.766,-0.235,-0.005
11:48:31.773,-0.235,-0.005
11:48:31.781,-0.215,0.025
11:48:31.789,-0.185,0.025
11:48:31.797,-0.125,0.045
11:48:31.805,-0.105,0.025
11:48:31.813,-0.095,0.045
11:48:31.820,-0.045,0.085
11:48:31.828,-0.025,0.085
11:48:31.836,0.035,0.085
11:48:31.844,0.095,0.085
11:48:31.852,0.165,0.105
11:48:31.859,0.255,0.135
11:48:31.867,0.295,0.105
11:48:31.875,0.315,0.085
11:48:31.883,0.365,0.105
11:48:31.891,0.365,0.115
11:48:31.898,0.375,0.115
11:48:31.906,0.325,0.095
11:48:31.914,0.245,0.055
11:48:31.922,0.165,0.025
11:48:31.930,0.055,-0.005
11:48:31.938,-0.035,-0.045
11:48:31.945,-0.095,-0.045
11:48:31.953,-0.155,-0.075
11:48:31.961,-0.195,-0.095
11:48:31.969,-0.205,-0.105
11:48:31.977,-0.195,-0.085
11:48:31.984,-0.175,-0.095
11:48:31.992,-0.195,-0.105
11:48:32.000,-0.195,-0.105
11:48:32.008,-0.195,-0.095
11:48:32.016,-0.215,-0.105
11:48:32.023,-0.215,-0.125
11:48:32.031,-0.215,-0.085
11:48:32.039,-0.205,-0.095
11:48:32.047,-0.185,-0.095
11:48:32.055,-0.195,-0.115
11:48:32.063,-0.185,-0.105
11:48:32.070,-0.185,-0.105
11:48:32.078,-0.215,-0.135
11:48:32.086,-0.225,-0.105
11:48:32.094,-0.215,-0.105
11:48:32.102,-0.195,-0.135
11:48:32.109,-0.175,-0.125
11:48:32.117,-0.185,-0.135
11:48:32.125,-0.205,-0.155
11:48:32.133,-0.215,-0.135
11:48:32.141,-0.235,-0.145
11:48:32.148,-0.225,-0.165
11:48:32.156,-0.235,-0.165
11:48:32.164,-0.215,-0.155
11:48:32.172,-0.205,-0.155
11:48:32.180,-0.215,-0.175
11:48:32.188,-0.225,-0.175
11:48:32.195,-0.235,-0.175
11:48:32.203,-0.255,-0.165
11:48:32.211,-0.255,-0.185
11:48:32.219,-0.245,-0.175
11:48:32.227,-0.235,-0.175
11:48:32.234,-0.215,-0.165
11:48:32.242,-0.215,-0.185
11:48:32.250,-0.225,-0.205
11:48:32.258,-0.225,-0.165
11:48:32.266,-0.235,-0.185
11:48:32.273,-0.255,-0.185
11:48:32.281,-0.225,-0.155
11:48:32.289,-0.215,-0.175
11:48:32.297,-0.175,-0.155
11:48:32.305,-0.145,-0.135
11:48:32.313,-0.135,-0.125
11:48:32.320,-0.165,-0.165
11:48:32.328,-0.095,-0.175
11:48:32.336,-0.045,-0.195
11:48:32.344,-0.105,-0.215
11:48:32.352,-0.165,-0.195
11:48:32.359,-0.135,-0.195
11:48:32.367,-0.155,-0.215
11:48:32.375,-0.225,-0.195
11:48:32.383,-0.225,-0.205
11:48:32.391,-0.255,-0.225
11:48:32.398,-0.245,-0.225
11:48:32.406,-0.245,-0.215
11:48:32.414,-0.225,-0.205
11:48:32.422,-0.195,-0.185
11:48:32.430,-0.215,-0.215
11:48:32.438,-0.225,-0.205
11:48:32.445,-0.205,-0.195
11:48:32.453,-0.225,-0.005
11:48:32.461,-0.595,0.065
11:48:32.469,-0.785,-0.015
11:48:32.477,-0.185,-1.055
11:48:32.484,1.495,-1.285
11:48:32.492,2.525,-0.825
11:48:32.500,2.875,-0.755
11:48:32.508,1.595,-0.415
11:48:32.516,0.035,-0.145
11:48:32.523,-0.215,-0.065
11:48:32.531,-0.215,-0.055
11:48:32.539,-0.255,-0.085
11:48:32.547,-0.285,-0.085
11:48:32.555,-0.305,-0.085
11:48:32.563,-0.325,-0.085
11:48:32.570,-0.305,-0.065
11:48:32.578,-0.315,-0.075
11:48:32.586,-0.325,-0.085
11:48:32.594,-0.315,-0.105
11:48:32.602,-0.305,-0.085
11:48:32.609,-0.275,-0.085
11:48:32.617,-0.275,-0.095
11:48:32.625,-0.275,-0.095
11:48:32.633,-0.255,-0.075
11:48:32.641,-0.255,-0.055
11:48:32.648,-0.245,-0.075
11:48:32.656,-0.185,-0.055
11:48:32.664,-0.145,-0.065
11:48:32.672,-0.115,-0.045
11:48:32.680,-0.065,-0.045
11:48:32.688,-0.025,-0.045
11:48:32.695,0.035,-0.045
11:48:32.703,0.075,-0.045
11:48:32.711,0.135,-0.045
11:48:32.719,0.205,-0.035
11:48:32.727,0.265,-0.025
11:48:32.734,0.335,-0.005
11:48:32.742,0.355,-0.025
11:48:32.750,0.365,-0.015
11:48:32.758,0.335,0.005
11:48:32.766,0.265,-0.015
11:48:32.773,0.155,-0.045
11:48:32.781,0.055,-0.065
11:48:32.789,-0.045,-0.085
11:48:32.797,-0.105,-0.095
11:48:32.805,-0.165,-0.115
11:48:32.813,-0.205,-0.125
11:48:32.820,-0.215,-0.125
11:48:32.828,-0.245,-0.125
11:48:32.836,-0.255,-0.145
11:48:32.844,-0.235,-0.135
11:48:32.852,-0.225,-0.115
11:48:32.859,-0.205,-0.135
11:48:32.867,-0.225,-0.145
11:48:32.875,-0.225,-0.135
11:48:32.883,-0.225,-0.115
11:48:32.891,-0.215,-0.115
11:48:32.898,-0.225,-0.125
11:48:32.906,-0.215,-0.115
11:48:32.914,-0.205,-0.105
11:48:32.922,-0.195,-0.105
11:48:32.930,-0.195,-0.125
11:48:32.938,-0.215,-0.125
11:48:32.945,-0.205,-0.125
11:48:32.953,-0.215,-0.115
11:48:32.961,-0.215,-0.145
11:48:32.969,-0.215,-0.145
11:48:32.977,-0.205,-0.145
11:48:32.984,-0.195,-0.155
11:48:32.992,-0.195,-0.155
11:48:33.000,-0.205,-0.145
11:48:33.008,-0.205,-0.155
11:48:33.016,-0.215,-0.155
11:48:33.023,-0.245,-0.175
11:48:33.031,-0.235,-0.165
11:48:33.039,-0.205,-0.165
11:48:33.047,-0.215,-0.145
11:48:33.055,-0.205,-0.165
11:48:33.063,-0.225,-0.175
11:48:33.070,-0.215,-0.165
11:48:33.078,-0.235,-0.175
11:48:33.086,-0.235,-0.175
11:48:33.094,-0.225,-0.155
11:48:33.102,-0.195,-0.155
11:48:33.109,-0.165,-0.155
11:48:33.117,-0.145,-0.105
11:48:33.125,-0.105,-0.105
11:48:33.133,-0.115,-0.105
11:48:33.141,-0.075,-0.115
11:48:33.148,-0.005,-0.145
11:48:33.156,-0.065,-0.165
11:48:33.164,-0.135,-0.155
11:48:33.172,-0.105,-0.175
11:48:33.180,-0.125,-0.185
11:48:33.188,-0.185,-0.175
11:48:33.195,-0.195,-0.165
11:48:33.203,-0.225,-0.155
11:48:33.211,-0.215,-0.185
11:48:33.219,-0.215,-0.175
11:48:33.227,-0.205,-0.175
11:48:33.234,-0.195,-0.145
11:48:33.242,-0.195,-0.165
11:48:33.250,-0.185,-0.165
11:48:33.258,-0.165,-0.155
11:48:33.266,-0.155,-0.105
11:48:33.273,-0.315,0.105
11:48:33.281,-0.675,0.195
11:48:33.289,-0.505,-0.385
11:48:33.297,0.965,-1.445
11:48:33.305,2.285,-0.915
11:48:33.313,2.815,-0.775
11:48:33.320,2.195,-0.505
11:48:33.328,0.475,-0.125
11:48:33.336,-0.135,0.005
11:48:33.344,-0.155,-0.005
11:48:33.352,-0.185,-0.015
11:48:33.359,-0.215,-0.005
11:48:33.367,-0.225,-0.025
11:48:33.375,-0.245,-0.035
11:48:33.383,-0.245,-0.015
11:48:33.391,-0.265,-0.025
11:48:33.398,-0.255,-0.045
11:48:33.406,-0.235,-0.025
11:48:33.414,-0.235,-0.015
11:48:33.422,-0.205,0.015
11:48:33.430,-0.215,-0.005
11:48:33.438,-0.215,-0.005
11:48:33.445,-0.195,-0.005
11:48:33.453,-0.195,0.015
11:48:33.461,-0.165,0.005
11:48:33.469,-0.125,0.025
11:48:33.477,-0.085,0.025
11:48:33.484,-0.025,0.025
11:48:33.492,0.015,0.035
11:48:33.500,0.045,0.055
11:48:33.508,0.115,0.055
11:48:33.516,0.165,0.045
11:48:33.523,0.215,0.035
11:48:33.531,0.295,0.045
11:48:33.539,0.355,0.055
11:48:33.547,0.425,0.085
11:48:33.555,0.445,0.075
11:48:33.563,0.435,0.085
11:48:33.570,0.405,0.085
11:48:33.578,0.305,0.045
11:48:33.586,0.205,0.025
11:48:33.594,0.095,0.005
11:48:33.602,-0.005,-0.015
11:48:33.609,-0.025,-0.045
11:48:33.617,-0.085,-0.055
11:48:33.625,-0.125,-0.055
11:48:33.633,-0.115,-0.055
11:48:33.641,-0.155,-0.075
11:48:33.648,-0.145,-0.075
11:48:33.656,-0.145,-0.065
11:48:33.664,-0.145,-0.065
11:48:33.672,-0.125,-0.055
11:48:33.680,-0.135,-0.075
11:48:33.688,-0.135,-0.065
11:48:33.695,-0.125,-0.045
11:48:33.703,-0.145,-0.055
11:48:33.711,-0.145,-0.065
11:48:33.719,-0.135,-0.075
11:48:33.727,-0.125,-0.055
11:48:33.734,-0.105,-0.045
11:48:33.742,-0.095,-0.055
11:48:33.750,-0.105,-0.065
11:48:33.758,-0.115,-0.045
11:48:33.766,-0.125,-0.055
11:48:33.773,-0.125,-0.065
11:48:33.781,-0.125,-0.065
11:48:33.789,-0.125,-0.055
11:48:33.797,-0.105,-0.055
11:48:33.805,-0.115,-0.075
11:48:33.813,-0.135,-0.075
11:48:33.820,-0.125,-0.065
11:48:33.828,-0.145,-0.085
11:48:33.836,-0.155,-0.115
11:48:33.844,-0.155,-0.095
11:48:33.852,-0.135,-0.095
11:48:33.859,-0.115,-0.085
11:48:33.867,-0.125,-0.095
11:48:33.875,-0.125,-0.095
11:48:33.883,-0.135,-0.075
11:48:33.891,-0.145,-0.105
11:48:33.898,-0.145,-0.095
11:48:33.906,-0.145,-0.095
11:48:33.914,-0.135,-0.095
11:48:33.922,-0.115,-0.075
11:48:33.930,-0.125,-0.085
11:48:33.938,-0.135,-0.075
11:48:33.945,-0.115,-0.045
11:48:33.953,-0.115,-0.085
11:48:33.961,-0.115,-0.075
11:48:33.969,-0.045,-0.035
11:48:33.977,-0.045,-0.035
11:48:33.984,-0.035,-0.035
11:48:33.992,0.045,-0.065
11:48:34.000,0.055,-0.095
11:48:34.008,-0.015,-0.095
11:48:34.016,-0.095,-0.075
11:48:34.023,-0.085,-0.115
11:48:34.031,-0.085,-0.125
11:48:34.039,-0.145,-0.085
11:48:34.047,-0.115,-0.075
11:48:34.055,-0.135,-0.115
11:48:34.063,-0.155,-0.115
11:48:34.070,-0.155,-0.115
11:48:34.078,-0.175,-0.115
11:48:34.086,-0.175,-0.105
11:48:34.094,-0.175,-0.115
11:48:34.102,-0.165,-0.095
11:48:34.109,-0.135,-0.115
11:48:34.117,-0.105,-0.035
11:48:34.125,-0.275,0.175
11:48:34.133,-0.655,0.235
11:48:34.141,-0.345,-0.785
11:48:34.148,1.285,-1.575
11:48:34.156,2.485,-0.905
11:48:34.164,2.935,-0.735
11:48:34.172,2.035,-0.365
11:48:34.180,0.375,-0.035
11:48:34.188,-0.065,0.055
11:48:34.195,-0.115,0.035
11:48:34.203,-0.195,0.025
11:48:34.211,-0.215,0.015
11:48:34.219,-0.225,0.015
11:48:34.227,-0.225,0.005
11:48:34.234,-0.225,0.035
11:48:34.242,-0.225,0.025
11:48:34.250,-0.215,0.025
11:48:34.258,-0.225,0.025
11:48:34.266,-0.235,0.035
11:48:34.273,-0.225,0.035
11:48:34.281,-0.205,0.045
11:48:34.289,-0.185,0.065
11:48:34.297,-0.165,0.065
11:48:34.305,-0.145,0.055
11:48:34.313,-0.145,0.045
11:48:34.320,-0.125,0.085
11:48:34.328,-0.105,0.075
11:48:34.336,-0.075,0.075
11:48:34.344,-0.015,0.095
11:48:34.352,0.015,0.125
11:48:34.359,0.095,0.135
11:48:34.367,0.155,0.135
11:48:34.375,0.205,0.145
11:48:34.383,0.275,0.135
11:48:34.391,0.315,0.135
11:48:34.398,0.365,0.125
11:48:34.406,0.415,0.135
11:48:34.414,0.425,0.125
11:48:34.422,0.415,0.135
11:48:34.430,0.355,0.105
11:48:34.438,0.255,0.065
11:48:34.445,0.155,0.045
11:48:34.453,0.055,0.025
11:48:34.461,-0.045,-0.025
11:48:34.469,-0.085,-0.025
11:48:34.477,-0.115,-0.025
11:48:34.484,-0.105,-0.035
11:48:34.492,-0.135,-0.055
11:48:34.500,-0.135,-0.055
11:48:34.508,-0.135,-0.035
11:48:34.516,-0.135,-0.045
11:48:34.523,-0.145,-0.065
11:48:34.531,-0.145,-0.035
11:48:34.539,-0.145,-0.045
11:48:34.547,-0.115,-0.025
11:48:34.555,-0.115,-0.045
11:48:34.563,-0.125,-0.025
11:48:34.570,-0.135,-0.015
11:48:34.578,-0.145,-0.015
11:48:34.586,-0.145,-0.035
11:48:34.594,-0.135,-0.025
11:48:34.602,-0.135,-0.035
11:48:34.609,-0.125,-0.025
11:48:34.617,-0.125,-0.045
11:48:34.625,-0.145,-0.055
11:48:34.633,-0.135,-0.045
11:48:34.641,-0.165,-0.065
11:48:34.648,-0.165,-0.075
11:48:34.656,-0.155,-0.085
11:48:34.664,-0.175,-0.085
11:48:34.672,-0.155,-0.085
11:48:34.680,-0.165,-0.095
11:48:34.688,-0.165,-0.095
11:48:34.695,-0.175,-0.085
11:48:34.703,-0.195,-0.105
11:48:34.711,-0.195,-0.115
11:48:34.719,-0.195,-0.105
11:48:34.727,-0.195,-0.095
11:48:34.734,-0.155,-0.075
11:48:34.742,-0.175,-0.095
11:48:34.750,-0.185,-0.105
11:48:34.758,-0.175,-0.085
11:48:34.766,-0.205,-0.105
11:48:34.773,-0.195,-0.105
11:48:34.781,-0.185,-0.095
11:48:34.789,-0.195,-0.105
11:48:34.797,-0.155,-0.095
11:48:34.805,-0.155,-0.095
11:48:34.813,-0.155,-0.095
11:48:34.820,-0.155,-0.095
11:48:34.828,-0.185,-0.095
11:48:34.836,-0.175,-0.115
11:48:34.844,-0.165,-0.105
11:48:34.852,-0.165,-0.075
11:48:34.859,-0.135,-0.085
11:48:34.867,-0.155,-0.095
11:48:34.875,-0.115,-0.065
11:48:34.883,-0.065,-0.045
11:48:34.891,-0.085,-0.095
11:48:34.898,-0.075,-0.085
11:48:34.906,0.015,-0.115
11:48:34.914,-0.045,-0.125
11:48:34.922,-0.125,-0.105
11:48:34.930,-0.095,-0.125
11:48:34.938,-0.125,-0.135
11:48:34.945,-0.145,-0.105
11:48:34.953,-0.175,-0.105
11:48:34.961,-0.215,-0.125
11:48:34.969,-0.195,-0.115
11:48:34.977,-0.195,-0.125
11:48:34.984,-0.195,-0.105
11:48:34.992,-0.185,-0.115
11:48:35.000,-0.175,-0.115
11:48:35.008,-0.185,-0.115
11:48:35.016,-0.175,-0.095
11:48:35.023,-0.185,-0.045
11:48:35.031,-0.265,0.185
11:48:35.039,-0.655,0.245
11:48:35.047,-0.605,-0.255
11:48:35.055,0.705,-1.455
11:48:35.063,2.065,-1.005
11:48:35.070,2.775,-0.705
11:48:35.078,2.495,-0.455
11:48:35.086,0.685,-0.065
11:48:35.094,-0.095,0.055
11:48:35.102,-0.135,0.045
11:48:35.109,-0.195,0.045
11:48:35.117,-0.235,0.025
11:48:35.125,-0.255,0.045
11:48:35.133,-0.255,0.025
11:48:35.141,-0.275,0.035
11:48:35.148,-0.295,0.005
11:48:35.156,-0.285,0.045
11:48:35.164,-0.265,0.045
11:48:35.172,-0.245,0.045
11:48:35.180,-0.245,0.045
11:48:35.188,-0.235,0.045
11:48:35.195,-0.225,0.045
11:48:35.203,-0.225,0.055
11:48:35.211,-0.225,0.045
11:48:35.219,-0.205,0.045
11:48:35.227,-0.165,0.065
11:48:35.234,-0.125,0.085
11:48:35.242,-0.095,0.085
11:48:35.250,-0.055,0.105
11:48:35.258,-0.015,0.115
11:48:35.266,0.025,0.105
