Time,ECG1,ECG2
2:45:16.268,0.285,0.03
2:45:16.272,0.28,0.01
2:45:16.276,0.24,0.015
2:45:16.280,0.215,-0.03
2:45:16.284,0.205,-0.055
2:45:16.288,0.165,-0.09
2:45:16.292,0.135,-0.125
2:45:16.296,0.115,-0.095
2:45:16.300,0.11,-0.09
2:45:16.304,0.1,-0.095
2:45:16.308,0.085,-0.065
2:45:16.312,0.075,-0.06
2:45:16.316,0.07,-0.075
2:45:16.320,0.09,-0.09
2:45:16.324,0.105,-0.085
2:45:16.328,0.11,-0.1
2:45:16.332,0.135,-0.105
2:45:16.336,0.13,-0.115
2:45:16.340,0.145,-0.145
2:45:16.344,0.125,-0.16
2:45:16.348,0.12,-0.17
2:45:16.352,0.145,-0.17
2:45:16.356,0.17,-0.17
2:45:16.360,0.195,-0.165
2:45:16.364,0.205,-0.17
2:45:16.368,0.18,-0.175
2:45:16.372,0.16,-0.16
2:45:16.376,0.175,-0.175
2:45:16.380,0.19,-0.155
2:45:16.384,0.18,-0.17
2:45:16.388,0.17,-0.17
2:45:16.392,0.175,-0.145
2:45:16.396,0.16,-0.16
2:45:16.400,0.165,-0.155
2:45:16.404,0.155,-0.135
2:45:16.408,0.175,-0.1
2:45:16.412,0.17,-0.035
2:45:16.416,0.165,-0.005
2:45:16.420,0.165,0.035
2:45:16.424,0.175,0.195
2:45:16.428,0.16,0.5
2:45:16.432,0.2,0.82
2:45:16.436,0.225,1.07
2:45:16.440,0.24,1.245
2:45:16.444,0.225,1.355
2:45:16.448,0.18,1.355
2:45:16.452,0.18,1.185
2:45:16.456,0.135,0.82
2:45:16.460,0.025,0.34
2:45:16.464,-0.195,-0.045
2:45:16.468,-0.52,-0.065
2:45:16.472,-0.85,0.125
2:45:16.476,-1.095,0.155
2:45:16.480,-1.26,-0.095
2:45:16.484,-1.26,-0.36
2:45:16.488,-1.135,-0.58
2:45:16.492,-0.8,-0.68
2:45:16.496,-0.43,-0.685
2:45:16.500,-0.155,-0.625
2:45:16.504,-0.035,-0.5
2:45:16.508,-0.03,-0.38
2:45:16.512,-0.03,-0.34
2:45:16.516,-0.01,-0.325
2:45:16.520,-0.025,-0.32
2:45:16.524,0.015,-0.305
2:45:16.528,0.055,-0.31
2:45:16.532,0.115,-0.295
2:45:16.536,0.19,-0.325
2:45:16.540,0.215,-0.32
2:45:16.544,0.25,-0.305
2:45:16.548,0.235,-0.31
2:45:16.552,0.25,-0.305
2:45:16.556,0.245,-0.3
2:45:16.560,0.265,-0.295
2:45:16.564,0.27,-0.29
2:45:16.568,0.29,-0.295
2:45:16.572,0.26,-0.28
2:45:16.576,0.28,-0.28
2:45:16.580,0.26,-0.275
2:45:16.584,0.28,-0.27
2:45:16.588,0.275,-0.26
2:45:16.592,0.285,-0.265
2:45:16.596,0.3,-0.255
2:45:16.600,0.285,-0.255
2:45:16.604,0.295,-0.255
2:45:16.608,0.315,-0.25
2:45:16.612,0.285,-0.25
2:45:16.616,0.295,-0.26
2:45:16.620,0.285,-0.25
2:45:16.624,0.29,-0.245
2:45:16.628,0.27,-0.24
2:45:16.632,0.29,-0.25
2:45:16.636,0.29,-0.25
2:45:16.640,0.295,-0.26
2:45:16.644,0.275,-0.255
2:45:16.648,0.255,-0.255
2:45:16.652,0.27,-0.26
2:45:16.656,0.29,-0.265
2:45:16.660,0.285,-0.23
2:45:16.664,0.295,-0.235
2:45:16.668,0.27,-0.235
2:45:16.672,0.255,-0.23
2:45:16.676,0.25,-0.235
2:45:16.680,0.27,-0.235
2:45:16.684,0.245,-0.24
2:45:16.688,0.25,-0.225
2:45:16.692,0.285,-0.235
2:45:16.696,0.245,-0.23
2:45:16.700,0.275,-0.2
2:45:16.704,0.24,-0.195
2:45:16.708,0.25,-0.185
2:45:16.712,0.245,-0.16
2:45:16.716,0.23,-0.155
2:45:16.720,0.21,-0.125
2:45:16.724,0.225,-0.135
2:45:16.728,0.26,-0.13
2:45:16.732,0.23,-0.09
2:45:16.736,0.245,-0.095
2:45:16.740,0.245,-0.08
2:45:16.744,0.23,-0.06
2:45:16.748,0.23,-0.06
2:45:16.752,0.235,-0.055
2:45:16.756,0.23,-0.06
2:45:16.760,0.2,-0.04
2:45:16.764,0.215,-0.03
2:45:16.768,0.205,-0.045
2:45:16.772,0.21,-0.02
2:45:16.776,0.19,-0.02
2:45:16.780,0.2,-0.035
2:45:16.784,0.195,-0.04
2:45:16.788,0.2,-0.065
2:45:16.792,0.21,-0.06
2:45:16.796,0.215,-0.05
2:45:16.800,0.2,-0.065
2:45:16.804,0.195,-0.075
2:45:16.808,0.205,-0.07
2:45:16.812,0.21,-0.085
2:45:16.816,0.22,-0.095
2:45:16.820,0.21,-0.105
2:45:16.824,0.235,-0.11
2:45:16.828,0.21,-0.115
2:45:16.832,0.215,-0.12
2:45:16.836,0.195,-0.12
2:45:16.840,0.21,-0.13
2:45:16.844,0.21,-0.14
2:45:16.848,0.215,-0.12
2:45:16.852,0.225,-0.135
2:45:16.856,0.205,-0.12
2:45:16.860,0.23,-0.155
2:45:16.864,0.245,-0.14
2:45:16.868,0.22,-0.145
2:45:16.872,0.245,-0.16
2:45:16.876,0.245,-0.17
2:45:16.880,0.225,-0.135
2:45:16.884,0.235,-0.14
2:45:16.888,0.24,-0.145
2:45:16.892,0.245,-0.13
2:45:16.896,0.24,-0.15
2:45:16.900,0.25,-0.155
2:45:16.904,0.24,-0.14
2:45:16.908,0.265,-0.14
2:45:16.912,0.245,-0.135
2:45:16.916,0.26,-0.13
2:45:16.920,0.25,-0.13
2:45:16.924,0.27,-0.125
2:45:16.928,0.265,-0.15
2:45:16.932,0.25,-0.125
2:45:16.936,0.255,-0.145
2:45:16.940,0.245,-0.13
2:45:16.944,0.25,-0.12
2:45:16.948,0.25,-0.125
2:45:16.952,0.24,-0.12
2:45:16.956,0.245,-0.12
2:45:16.960,0.24,-0.115
2:45:16.964,0.24,-0.13
2:45:16.968,0.25,-0.13
2:45:16.972,0.255,-0.12
2:45:16.976,0.235,-0.135
2:45:16.980,0.235,-0.105
2:45:16.984,0.23,-0.12
2:45:16.988,0.24,-0.12
2:45:16.992,0.23,-0.1
2:45:16.996,0.24,-0.105
2:45:17.000,0.245,-0.12
2:45:17.004,0.265,-0.125
2:45:17.008,0.225,-0.125
2:45:17.012,0.225,-0.12
2:45:17.016,0.26,-0.13
2:45:17.020,0.25,-0.125
2:45:17.024,0.25,-0.12
2:45:17.028,0.245,-0.12
2:45:17.032,0.24,-0.125
2:45:17.036,0.245,-0.125
2:45:17.040,0.245,-0.135
2:45:17.044,0.24,-0.13
2:45:17.048,0.245,-0.135
2:45:17.052,0.255,-0.125
2:45:17.056,0.235,-0.12
2:45:17.060,0.22,-0.125
2:45:17.064,0.245,-0.14
2:45:17.068,0.235,-0.1
2:45:17.072,0.245,-0.1
2:45:17.076,0.255,-0.05
2:45:17.080,0.26,-0.03
2:45:17.084,0.23,-0.01
2:45:17.088,0.255,0.035
2:45:17.092,0.26,0.055
2:45:17.096,0.26,0.08
2:45:17.100,0.275,0.08
2:45:17.104,0.305,0.1
2:45:17.108,0.34,0.095
2:45:17.112,0.345,0.075
2:45:17.116,0.37,0.09
2:45:17.120,0.375,0.06
2:45:17.124,0.37,0.06
2:45:17.128,0.34,0.035
2:45:17.132,0.335,0.035
2:45:17.136,0.32,0.035
2:45:17.140,0.265,-0.005
2:45:17.144,0.275,-0.06
2:45:17.148,0.23,-0.095
2:45:17.152,0.2,-0.11
2:45:17.156,0.175,-0.09
2:45:17.160,0.185,-0.07
2:45:17.164,0.165,-0.075
2:45:17.168,0.155,-0.07
2:45:17.172,0.14,-0.07
2:45:17.176,0.16,-0.055
2:45:17.180,0.17,-0.06
2:45:17.184,0.16,-0.045
2:45:17.188,0.185,-0.075
2:45:17.192,0.195,-0.08
2:45:17.196,0.21,-0.11
2:45:17.200,0.215,-0.125
2:45:17.204,0.2,-0.155
2:45:17.208,0.22,-0.15
2:45:17.212,0.23,-0.14
2:45:17.216,0.255,-0.14
2:45:17.220,0.27,-0.165
2:45:17.224,0.265,-0.155
2:45:17.228,0.265,-0.14
2:45:17.232,0.265,-0.13
2:45:17.236,0.25,-0.145
2:45:17.240,0.27,-0.14
2:45:17.244,0.265,-0.13
2:45:17.248,0.29,-0.12
2:45:17.252,0.25,-0.13
2:45:17.256,0.265,-0.135
2:45:17.260,0.25,-0.13
2:45:17.264,0.24,-0.11
2:45:17.268,0.23,-0.055
2:45:17.272,0.24,-0.01
2:45:17.276,0.24,0.005
2:45:17.280,0.235,0.115
2:45:17.284,0.245,0.35
2:45:17.288,0.265,0.685
2:45:17.292,0.29,0.975
2:45:17.296,0.315,1.16
2:45:17.300,0.32,1.275
2:45:17.304,0.27,1.32
2:45:17.308,0.25,1.2
2:45:17.312,0.215,0.885
2:45:17.316,0.15,0.44
2:45:17.320,-0.04,0.01
2:45:17.324,-0.34,-0.08
2:45:17.328,-0.7,0.1
2:45:17.332,-1.03,0.225
2:45:17.336,-1.225,0.02
2:45:17.340,-1.28,-0.28
2:45:17.344,-1.2,-0.53
2:45:17.348,-0.865,-0.65
2:45:17.352,-0.44,-0.67
2:45:17.356,-0.12,-0.6
2:45:17.360,0.045,-0.475
2:45:17.364,0.07,-0.37
2:45:17.368,0.055,-0.305
2:45:17.372,0.05,-0.275
2:45:17.376,0.07,-0.28
2:45:17.380,0.08,-0.29
2:45:17.384,0.14,-0.285
2:45:17.388,0.215,-0.285
2:45:17.392,0.265,-0.29
2:45:17.396,0.305,-0.27
2:45:17.400,0.325,-0.265
2:45:17.404,0.315,-0.26
2:45:17.408,0.325,-0.265
2:45:17.412,0.325,-0.245
2:45:17.416,0.33,-0.255
2:45:17.420,0.335,-0.24
2:45:17.424,0.325,-0.265
2:45:17.428,0.34,-0.245
2:45:17.432,0.345,-0.255
2:45:17.436,0.34,-0.245
2:45:17.440,0.335,-0.255
2:45:17.444,0.345,-0.26
2:45:17.448,0.355,-0.25
2:45:17.452,0.345,-0.25
2:45:17.456,0.35,-0.245
2:45:17.460,0.365,-0.27
2:45:17.464,0.355,-0.25
2:45:17.468,0.34,-0.265
2:45:17.472,0.34,-0.26
2:45:17.476,0.35,-0.24
2:45:17.480,0.325,-0.26
2:45:17.484,0.325,-0.26
2:45:17.488,0.335,-0.24
2:45:17.492,0.34,-0.24
2:45:17.496,0.33,-0.26
2:45:17.500,0.325,-0.255
2:45:17.504,0.32,-0.245
2:45:17.508,0.305,-0.235
2:45:17.512,0.32,-0.24
2:45:17.516,0.335,-0.25
2:45:17.520,0.31,-0.235
2:45:17.524,0.31,-0.23
2:45:17.528,0.305,-0.245
2:45:17.532,0.325,-0.255
2:45:17.536,0.32,-0.235
2:45:17.540,0.3,-0.23
2:45:17.544,0.31,-0.23
2:45:17.548,0.31,-0.215
2:45:17.552,0.305,-0.205
2:45:17.556,0.3,-0.19
2:45:17.560,0.29,-0.18
2:45:17.564,0.315,-0.155
2:45:17.568,0.29,-0.145
2:45:17.572,0.28,-0.145
2:45:17.576,0.295,-0.12
2:45:17.580,0.28,-0.09
2:45:17.584,0.28,-0.085
2:45:17.588,0.255,-0.09
2:45:17.592,0.28,-0.07
2:45:17.596,0.265,-0.055
2:45:17.600,0.26,-0.055
2:45:17.604,0.25,-0.025
2:45:17.608,0.23,-0.025
2:45:17.612,0.26,-0.025
2:45:17.616,0.245,-0.03
2:45:17.620,0.24,-0.01
2:45:17.624,0.255,-0.025
2:45:17.628,0.225,-0.015
2:45:17.632,0.235,-0.045
2:45:17.636,0.215,-0.025
2:45:17.640,0.225,-0.025
2:45:17.644,0.23,-0.035
2:45:17.648,0.22,-0.055
2:45:17.652,0.235,-0.055
2:45:17.656,0.215,-0.07
2:45:17.660,0.22,-0.105
2:45:17.664,0.225,-0.07
2:45:17.668,0.22,-0.085
2:45:17.672,0.235,-0.1
2:45:17.676,0.235,-0.115
2:45:17.680,0.23,-0.13
2:45:17.684,0.195,-0.125
2:45:17.688,0.2,-0.125
2:45:17.692,0.225,-0.125
2:45:17.696,0.225,-0.145
2:45:17.700,0.22,-0.155
2:45:17.704,0.23,-0.145
2:45:17.708,0.24,-0.15
2:45:17.712,0.23,-0.165
2:45:17.716,0.235,-0.16
2:45:17.720,0.225,-0.14
2:45:17.724,0.23,-0.16
2:45:17.728,0.245,-0.145
2:45:17.732,0.27,-0.16
2:45:17.736,0.235,-0.16
2:45:17.740,0.23,-0.16
2:45:17.744,0.25,-0.17
2:45:17.748,0.26,-0.185
2:45:17.752,0.25,-0.155
2:45:17.756,0.26,-0.175
2:45:17.760,0.25,-0.165
2:45:17.764,0.24,-0.15
2:45:17.768,0.25,-0.16
2:45:17.772,0.25,-0.175
2:45:17.776,0.26,-0.165
2:45:17.780,0.245,-0.175
2:45:17.784,0.265,-0.16
2:45:17.788,0.255,-0.155
2:45:17.792,0.255,-0.155
2:45:17.796,0.265,-0.16
2:45:17.800,0.26,-0.19
2:45:17.804,0.26,-0.19
2:45:17.808,0.27,-0.185
2:45:17.812,0.25,-0.18
2:45:17.816,0.22,-0.175
2:45:17.820,0.25,-0.165
2:45:17.824,0.25,-0.16
2:45:17.828,0.235,-0.15
2:45:17.832,0.225,-0.165
2:45:17.836,0.22,-0.155
2:45:17.840,0.235,-0.155
2:45:17.844,0.225,-0.17
2:45:17.848,0.22,-0.175
2:45:17.852,0.24,-0.19
2:45:17.856,0.255,-0.19
2:45:17.860,0.215,-0.2
2:45:17.864,0.215,-0.195
2:45:17.868,0.235,-0.185
2:45:17.872,0.23,-0.185
2:45:17.876,0.235,-0.195
2:45:17.880,0.225,-0.18
2:45:17.884,0.215,-0.195
2:45:17.888,0.24,-0.2
2:45:17.892,0.225,-0.18
2:45:17.896,0.205,-0.18
2:45:17.900,0.22,-0.19
2:45:17.904,0.215,-0.22
2:45:17.908,0.21,-0.2
2:45:17.912,0.21,-0.195
2:45:17.916,0.205,-0.185
2:45:17.920,0.23,-0.16
2:45:17.924,0.23,-0.145
2:45:17.928,0.22,-0.115
2:45:17.932,0.22,-0.08
2:45:17.936,0.21,-0.04
2:45:17.940,0.21,-0.02
2:45:17.944,0.21,0.005
2:45:17.948,0.245,0.005
2:45:17.952,0.235,-0.005
2:45:17.956,0.27,0.015
2:45:17.960,0.285,0.02
2:45:17.964,0.305,0.01
2:45:17.968,0.3,0.01
2:45:17.972,0.335,0.015
2:45:17.976,0.335,0.0
2:45:17.980,0.315,-0.005
2:45:17.984,0.295,-0.005
2:45:17.988,0.28,-0.005
2:45:17.992,0.26,-0.035
2:45:17.996,0.255,-0.1
2:45:18.000,0.205,-0.135
2:45:18.004,0.19,-0.15
2:45:18.008,0.15,-0.16
2:45:18.012,0.155,-0.155
2:45:18.016,0.135,-0.14
2:45:18.020,0.13,-0.145
2:45:18.024,0.13,-0.14
2:45:18.028,0.125,-0.125
2:45:18.032,0.13,-0.14
2:45:18.036,0.125,-0.15
2:45:18.040,0.13,-0.14
2:45:18.044,0.12,-0.16
2:45:18.048,0.155,-0.16
2:45:18.052,0.155,-0.2
2:45:18.056,0.15,-0.22
2:45:18.060,0.155,-0.21
2:45:18.064,0.165,-0.205
2:45:18.068,0.195,-0.225
2:45:18.072,0.25,-0.215
2:45:18.076,0.24,-0.23
2:45:18.080,0.215,-0.225
2:45:18.084,0.24,-0.22
2:45:18.088,0.235,-0.215
2:45:18.092,0.22,-0.23
2:45:18.096,0.2,-0.22
2:45:18.100,0.205,-0.205
2:45:18.104,0.2,-0.225
2:45:18.108,0.2,-0.205
2:45:18.112,0.185,-0.195
2:45:18.116,0.195,-0.18
2:45:18.120,0.195,-0.145
2:45:18.124,0.19,-0.12
2:45:18.128,0.2,-0.08
2:45:18.132,0.19,-0.085
2:45:18.136,0.195,0.025
2:45:18.140,0.185,0.235
2:45:18.144,0.195,0.5
2:45:18.148,0.225,0.795
2:45:18.152,0.245,0.96
2:45:18.156,0.245,1.055
2:45:18.160,0.195,1.07
2:45:18.164,0.165,1.025
2:45:18.168,0.155,0.825
2:45:18.172,0.07,0.46
2:45:18.176,-0.07,0.04
2:45:18.180,-0.345,-0.17
2:45:18.184,-0.665,-0.1
2:45:18.188,-0.975,0.07
2:45:18.192,-1.17,0.01
2:45:18.196,-1.25,-0.245
2:45:18.200,-1.21,-0.475
2:45:18.204,-0.97,-0.63
2:45:18.208,-0.605,-0.695
2:45:18.212,-0.22,-0.72
2:45:18.216,-0.025,-0.65
2:45:18.220,0.01,-0.515
2:45:18.224,0.02,-0.425
2:45:18.228,0.0,-0.385
2:45:18.232,0.0,-0.365
2:45:18.236,0.02,-0.38
2:45:18.240,0.04,-0.38
2:45:18.244,0.095,-0.39
2:45:18.248,0.16,-0.38
2:45:18.252,0.2,-0.39
2:45:18.256,0.235,-0.385
2:45:18.260,0.255,-0.375
2:45:18.264,0.245,-0.375
2:45:18.268,0.24,-0.38
2:45:18.272,0.265,-0.375
2:45:18.276,0.25,-0.37
2:45:18.280,0.25,-0.375
2:45:18.284,0.27,-0.375
2:45:18.288,0.26,-0.375
2:45:18.292,0.265,-0.365
2:45:18.296,0.28,-0.37
2:45:18.300,0.26,-0.355
2:45:18.304,0.265,-0.345
2:45:18.308,0.265,-0.345
2:45:18.312,0.27,-0.365
2:45:18.316,0.265,-0.365
2:45:18.320,0.245,-0.375
2:45:18.324,0.245,-0.355
2:45:18.328,0.27,-0.355
2:45:18.332,0.26,-0.37
2:45:18.336,0.245,-0.35
2:45:18.340,0.245,-0.365
2:45:18.344,0.255,-0.375
2:45:18.348,0.26,-0.36
2:45:18.352,0.265,-0.37
2:45:18.356,0.245,-0.37
2:45:18.360,0.255,-0.395
2:45:18.364,0.235,-0.37
2:45:18.368,0.255,-0.375
2:45:18.372,0.25,-0.375
2:45:18.376,0.245,-0.365
2:45:18.380,0.23,-0.365
2:45:18.384,0.225,-0.38
2:45:18.388,0.235,-0.385
2:45:18.392,0.205,-0.395
2:45:18.396,0.23,-0.39
2:45:18.400,0.195,-0.37
2:45:18.404,0.205,-0.355
2:45:18.408,0.2,-0.37
2:45:18.412,0.19,-0.35
2:45:18.416,0.21,-0.36
2:45:18.420,0.2,-0.38
2:45:18.424,0.19,-0.36
2:45:18.428,0.19,-0.35
2:45:18.432,0.205,-0.325
2:45:18.436,0.18,-0.305
2:45:18.440,0.175,-0.31
2:45:18.444,0.18,-0.29
2:45:18.448,0.16,-0.28
2:45:18.452,0.16,-0.285
2:45:18.456,0.16,-0.26
2:45:18.460,0.155,-0.26
2:45:18.464,0.15,-0.22
2:45:18.468,0.135,-0.21
2:45:18.472,0.15,-0.19
2:45:18.476,0.14,-0.19
2:45:18.480,0.115,-0.18
2:45:18.484,0.13,-0.175
2:45:18.488,0.115,-0.19
2:45:18.492,0.115,-0.195
2:45:18.496,0.1,-0.205
2:45:18.500,0.11,-0.2
2:45:18.504,0.105,-0.185
2:45:18.508,0.115,-0.22
2:45:18.512,0.125,-0.2
2:45:18.516,0.13,-0.215
2:45:18.520,0.13,-0.185
2:45:18.524,0.13,-0.2
2:45:18.528,0.125,-0.215
2:45:18.532,0.125,-0.215
2:45:18.536,0.115,-0.22
2:45:18.540,0.12,-0.25
2:45:18.544,0.135,-0.235
2:45:18.548,0.115,-0.23
2:45:18.552,0.135,-0.23
2:45:18.556,0.15,-0.255
2:45:18.560,0.155,-0.245
2:45:18.564,0.14,-0.255
2:45:18.568,0.145,-0.255
2:45:18.572,0.15,-0.24
2:45:18.576,0.155,-0.24
2:45:18.580,0.14,-0.245
2:45:18.584,0.135,-0.25
2:45:18.588,0.155,-0.25
2:45:18.592,0.165,-0.255
2:45:18.596,0.15,-0.255
2:45:18.600,0.155,-0.25
2:45:18.604,0.155,-0.255
2:45:18.608,0.16,-0.27
2:45:18.612,0.15,-0.265
2:45:18.616,0.165,-0.26
2:45:18.620,0.15,-0.245
2:45:18.624,0.155,-0.25
2:45:18.628,0.15,-0.245
2:45:18.632,0.125,-0.245
2:45:18.636,0.145,-0.24
2:45:18.640,0.155,-0.235
2:45:18.644,0.155,-0.23
2:45:18.648,0.165,-0.22
2:45:18.652,0.135,-0.25
2:45:18.656,0.14,-0.225
2:45:18.660,0.14,-0.255
2:45:18.664,0.14,-0.25
2:45:18.668,0.14,-0.275
2:45:18.672,0.115,-0.265
2:45:18.676,0.165,-0.26
2:45:18.680,0.155,-0.265
2:45:18.684,0.14,-0.25
2:45:18.688,0.14,-0.245
2:45:18.692,0.13,-0.265
2:45:18.696,0.13,-0.265
2:45:18.700,0.11,-0.275
2:45:18.704,0.125,-0.275
2:45:18.708,0.13,-0.295
2:45:18.712,0.11,-0.275
2:45:18.716,0.125,-0.245
2:45:18.720,0.12,-0.265
2:45:18.724,0.125,-0.27
2:45:18.728,0.13,-0.255
2:45:18.732,0.115,-0.245
2:45:18.736,0.135,-0.27
2:45:18.740,0.12,-0.28
2:45:18.744,0.12,-0.275
2:45:18.748,0.115,-0.27
2:45:18.752,0.12,-0.275
2:45:18.756,0.105,-0.245
2:45:18.760,0.1,-0.245
2:45:18.764,0.105,-0.27
2:45:18.768,0.1,-0.275
2:45:18.772,0.095,-0.265
2:45:18.776,0.1,-0.275
2:45:18.780,0.105,-0.255
2:45:18.784,0.115,-0.24
2:45:18.788,0.115,-0.21
2:45:18.792,0.135,-0.18
2:45:18.796,0.12,-0.165
2:45:18.800,0.105,-0.12
2:45:18.804,0.105,-0.085
2:45:18.808,0.105,-0.07
2:45:18.812,0.12,-0.075
2:45:18.816,0.135,-0.065
2:45:18.820,0.165,-0.08
2:45:18.824,0.18,-0.065
2:45:18.828,0.2,-0.07
2:45:18.832,0.235,-0.09
2:45:18.836,0.22,-0.085
2:45:18.840,0.195,-0.085
2:45:18.844,0.185,-0.085
2:45:18.848,0.185,-0.095
2:45:18.852,0.17,-0.13
2:45:18.856,0.155,-0.15
2:45:18.860,0.105,-0.22
2:45:18.864,0.09,-0.25
2:45:18.868,0.07,-0.25
2:45:18.872,0.04,-0.235
2:45:18.876,0.05,-0.225
2:45:18.880,0.035,-0.21
2:45:18.884,0.03,-0.2
2:45:18.888,0.005,-0.2
2:45:18.892,0.0,-0.205
2:45:18.896,0.0,-0.215
2:45:18.900,0.02,-0.22
2:45:18.904,0.035,-0.255
2:45:18.908,0.055,-0.25
2:45:18.912,0.045,-0.28
2:45:18.916,0.045,-0.305
2:45:18.920,0.055,-0.305
2:45:18.924,0.07,-0.29
2:45:18.928,0.105,-0.3
2:45:18.932,0.105,-0.285
2:45:18.936,0.125,-0.28
2:45:18.940,0.11,-0.285
2:45:18.944,0.12,-0.255
2:45:18.948,0.105,-0.285
2:45:18.952,0.115,-0.27
2:45:18.956,0.105,-0.265
2:45:18.960,0.11,-0.255
2:45:18.964,0.1,-0.24
2:45:18.968,0.09,-0.25
2:45:18.972,0.12,-0.265
2:45:18.976,0.115,-0.235
2:45:18.980,0.11,-0.18
2:45:18.984,0.12,-0.15
2:45:18.988,0.125,-0.145
2:45:18.992,0.12,-0.07
2:45:18.996,0.11,0.1
2:45:19.000,0.12,0.385
2:45:19.004,0.15,0.7
2:45:19.008,0.19,0.965
2:45:19.012,0.21,1.19
2:45:19.016,0.17,1.35
2:45:19.020,0.135,1.38
2:45:19.024,0.125,1.31
2:45:19.028,0.11,1.03
2:45:19.032,0.005,0.565
2:45:19.036,-0.165,0.12
2:45:19.040,-0.425,-0.085
2:45:19.044,-0.69,-0.07
2:45:19.048,-0.93,-0.125
2:45:19.052,-1.065,-0.325
2:45:19.056,-1.07,-0.55
2:45:19.060,-0.965,-0.71
2:45:19.064,-0.68,-0.765
2:45:19.068,-0.395,-0.77
2:45:19.072,-0.175,-0.7
2:45:19.076,-0.1,-0.545
2:45:19.080,-0.09,-0.465
2:45:19.084,-0.085,-0.455
2:45:19.088,-0.065,-0.44
2:45:19.092,-0.03,-0.435
2:45:19.096,0.005,-0.435
2:45:19.100,0.045,-0.435
2:45:19.104,0.1,-0.445
2:45:19.108,0.135,-0.425
2:45:19.112,0.165,-0.425
2:45:19.116,0.185,-0.43
2:45:19.120,0.19,-0.43
2:45:19.124,0.2,-0.445
2:45:19.128,0.18,-0.43
2:45:19.132,0.175,-0.44
2:45:19.136,0.17,-0.44
2:45:19.140,0.195,-0.43
2:45:19.144,0.17,-0.44
2:45:19.148,0.18,-0.41
2:45:19.152,0.18,-0.4
2:45:19.156,0.19,-0.4
2:45:19.160,0.185,-0.42
2:45:19.164,0.175,-0.42
2:45:19.168,0.175,-0.41
2:45:19.172,0.19,-0.39
2:45:19.176,0.185,-0.4
2:45:19.180,0.19,-0.405
2:45:19.184,0.17,-0.41
2:45:19.188,0.195,-0.43
2:45:19.192,0.205,-0.42
2:45:19.196,0.2,-0.42
2:45:19.200,0.18,-0.44
2:45:19.204,0.18,-0.43
2:45:19.208,0.18,-0.415
2:45:19.212,0.175,-0.41
2:45:19.216,0.195,-0.4
2:45:19.220,0.19,-0.425
2:45:19.224,0.18,-0.43
2:45:19.228,0.17,-0.43
2:45:19.232,0.155,-0.42
2:45:19.236,0.16,-0.41
2:45:19.240,0.185,-0.415
2:45:19.244,0.15,-0.425
2:45:19.248,0.175,-0.42
2:45:19.252,0.165,-0.415
2:45:19.256,0.15,-0.415
2:45:19.260,0.135,-0.4
2:45:19.264,0.175,-0.42
2:45:19.268,0.13,-0.41
2:45:19.272,0.13,-0.435
2:45:19.276,0.13,-0.425
2:45:19.280,0.13,-0.4
2:45:19.284,0.1,-0.395
2:45:19.288,0.115,-0.39
2:45:19.292,0.115,-0.355
2:45:19.296,0.12,-0.335
2:45:19.300,0.115,-0.335
2:45:19.304,0.105,-0.32
2:45:19.308,0.125,-0.29
2:45:19.312,0.125,-0.275
2:45:19.316,0.095,-0.265
2:45:19.320,0.07,-0.255
2:45:19.324,0.1,-0.235
2:45:19.328,0.075,-0.2
2:45:19.332,0.105,-0.195
2:45:19.336,0.11,-0.195
2:45:19.340,0.08,-0.185
2:45:19.344,0.1,-0.195
2:45:19.348,0.085,-0.185
2:45:19.352,0.12,-0.18
2:45:19.356,0.105,-0.175
2:45:19.360,0.09,-0.175
2:45:19.364,0.095,-0.17
2:45:19.368,0.095,-0.17
2:45:19.372,0.11,-0.185
2:45:19.376,0.145,-0.2
2:45:19.380,0.13,-0.19
2:45:19.384,0.135,-0.205
2:45:19.388,0.125,-0.2
2:45:19.392,0.125,-0.2
2:45:19.396,0.135,-0.2
2:45:19.400,0.13,-0.19
2:45:19.404,0.135,-0.2
2:45:19.408,0.155,-0.19
2:45:19.412,0.17,-0.205
2:45:19.416,0.15,-0.21
2:45:19.420,0.14,-0.205
2:45:19.424,0.165,-0.2
2:45:19.428,0.155,-0.225
2:45:19.432,0.165,-0.225
2:45:19.436,0.155,-0.21
2:45:19.440,0.155,-0.2
2:45:19.444,0.135,-0.23
2:45:19.448,0.155,-0.245
2:45:19.452,0.15,-0.24
2:45:19.456,0.16,-0.23
2:45:19.460,0.175,-0.235
2:45:19.464,0.165,-0.22
2:45:19.468,0.135,-0.215
2:45:19.472,0.145,-0.205
2:45:19.476,0.14,-0.23
2:45:19.480,0.135,-0.235
2:45:19.484,0.13,-0.23
2:45:19.488,0.13,-0.225
2:45:19.492,0.15,-0.225
2:45:19.496,0.13,-0.215
2:45:19.500,0.13,-0.225
2:45:19.504,0.14,-0.225
2:45:19.508,0.135,-0.24
2:45:19.512,0.12,-0.225
2:45:19.516,0.13,-0.22
2:45:19.520,0.105,-0.225
2:45:19.524,0.115,-0.235
2:45:19.528,0.095,-0.235
2:45:19.532,0.095,-0.24
2:45:19.536,0.09,-0.235
2:45:19.540,0.095,-0.245
2:45:19.544,0.095,-0.235
2:45:19.548,0.09,-0.255
2:45:19.552,0.085,-0.275
2:45:19.556,0.11,-0.24
2:45:19.560,0.115,-0.24
2:45:19.564,0.105,-0.235
2:45:19.568,0.1,-0.24
2:45:19.572,0.08,-0.245
2:45:19.576,0.09,-0.23
2:45:19.580,0.085,-0.26
2:45:19.584,0.09,-0.245
2:45:19.588,0.09,-0.23
2:45:19.592,0.1,-0.245
2:45:19.596,0.09,-0.28
2:45:19.600,0.1,-0.27
2:45:19.604,0.095,-0.24
2:45:19.608,0.095,-0.24
2:45:19.612,0.11,-0.23
2:45:19.616,0.085,-0.225
2:45:19.620,0.1,-0.245
2:45:19.624,0.08,-0.24
2:45:19.628,0.09,-0.21
2:45:19.632,0.105,-0.17
2:45:19.636,0.105,-0.125
2:45:19.640,0.105,-0.105
2:45:19.644,0.07,-0.07
2:45:19.648,0.11,-0.06
2:45:19.652,0.13,-0.05
2:45:19.656,0.155,-0.055
2:45:19.660,0.19,-0.04
2:45:19.664,0.195,-0.035
2:45:19.668,0.205,-0.04
2:45:19.672,0.235,-0.06
2:45:19.676,0.235,-0.075
2:45:19.680,0.23,-0.04
2:45:19.684,0.235,-0.07
2:45:19.688,0.2,-0.07
2:45:19.692,0.165,-0.135
2:45:19.696,0.145,-0.165
2:45:19.700,0.115,-0.23
2:45:19.704,0.06,-0.24
2:45:19.708,0.035,-0.24
2:45:19.712,0.035,-0.205
2:45:19.716,0.03,-0.195
2:45:19.720,0.01,-0.19
2:45:19.724,0.02,-0.175
2:45:19.728,0.04,-0.195
2:45:19.732,0.01,-0.2
2:45:19.736,0.03,-0.235
2:45:19.740,0.025,-0.22
2:45:19.744,0.04,-0.22
2:45:19.748,0.045,-0.215
2:45:19.752,0.05,-0.245
2:45:19.756,0.065,-0.265
2:45:19.760,0.08,-0.275
2:45:19.764,0.09,-0.265
2:45:19.768,0.12,-0.28
2:45:19.772,0.135,-0.27
2:45:19.776,0.135,-0.23
2:45:19.780,0.11,-0.26
2:45:19.784,0.11,-0.26
2:45:19.788,0.105,-0.24
2:45:19.792,0.095,-0.255
2:45:19.796,0.1,-0.245
2:45:19.800,0.09,-0.25
2:45:19.804,0.115,-0.235
2:45:19.808,0.11,-0.225
2:45:19.812,0.1,-0.21
2:45:19.816,0.095,-0.18
2:45:19.820,0.125,-0.14
2:45:19.824,0.085,-0.075
2:45:19.828,0.085,-0.045
2:45:19.832,0.1,0.09
2:45:19.836,0.105,0.375
2:45:19.840,0.125,0.74
2:45:19.844,0.13,1.09
2:45:19.848,0.175,1.34
2:45:19.852,0.175,1.535
2:45:19.856,0.135,1.65
2:45:19.860,0.135,1.62
2:45:19.864,0.115,1.37
2:45:19.868,0.055,0.895
2:45:19.872,-0.095,0.335
2:45:19.876,-0.34,-0.045
2:45:19.880,-0.665,-0.11
2:45:19.884,-0.92,-0.095
2:45:19.888,-1.07,-0.18
2:45:19.892,-1.16,-0.42
2:45:19.896,-1.12,-0.605
2:45:19.900,-0.88,-0.715
2:45:19.904,-0.55,-0.77
2:45:19.908,-0.24,-0.735
2:45:19.912,-0.135,-0.62
2:45:19.916,-0.1,-0.5
2:45:19.920,-0.07,-0.445
2:45:19.924,-0.08,-0.415
2:45:19.928,-0.045,-0.4
2:45:19.932,-0.02,-0.41
2:45:19.936,0.005,-0.405
2:45:19.940,0.06,-0.39
2:45:19.944,0.11,-0.375
2:45:19.948,0.18,-0.375
2:45:19.952,0.19,-0.37
2:45:19.956,0.185,-0.35
2:45:19.960,0.19,-0.37
2:45:19.964,0.215,-0.36
2:45:19.968,0.23,-0.355
2:45:19.972,0.205,-0.345
2:45:19.976,0.215,-0.35
2:45:19.980,0.215,-0.335
2:45:19.984,0.225,-0.34
2:45:19.988,0.245,-0.345
2:45:19.992,0.22,-0.34
2:45:19.996,0.23,-0.34
2:45:20.000,0.25,-0.335
2:45:20.004,0.255,-0.335
2:45:20.008,0.255,-0.33
2:45:20.012,0.235,-0.335
2:45:20.016,0.25,-0.315
2:45:20.020,0.25,-0.335
2:45:20.024,0.255,-0.3
2:45:20.028,0.26,-0.32
2:45:20.032,0.245,-0.305
2:45:20.036,0.245,-0.31
2:45:20.040,0.23,-0.32
2:45:20.044,0.26,-0.34
2:45:20.048,0.245,-0.335
2:45:20.052,0.26,-0.33
2:45:20.056,0.235,-0.325
2:45:20.060,0.24,-0.34
2:45:20.064,0.225,-0.36
2:45:20.068,0.215,-0.335
2:45:20.072,0.245,-0.335
2:45:20.076,0.255,-0.335
2:45:20.080,0.23,-0.31
2:45:20.084,0.21,-0.33
2:45:20.088,0.215,-0.335
2:45:20.092,0.215,-0.32
2:45:20.096,0.205,-0.315
2:45:20.100,0.205,-0.315
2:45:20.104,0.205,-0.305
2:45:20.108,0.215,-0.295
2:45:20.112,0.19,-0.305
2:45:20.116,0.195,-0.28
2:45:20.120,0.19,-0.27
2:45:20.124,0.195,-0.245
2:45:20.128,0.185,-0.245
2:45:20.132,0.2,-0.215
2:45:20.136,0.185,-0.21
2:45:20.140,0.185,-0.19
2:45:20.144,0.165,-0.18
2:45:20.148,0.16,-0.155
2:45:20.152,0.165,-0.125
2:45:20.156,0.15,-0.115
2:45:20.160,0.155,-0.105
2:45:20.164,0.16,-0.09
2:45:20.168,0.14,-0.095
2:45:20.172,0.155,-0.09
2:45:20.176,0.115,-0.08
2:45:20.180,0.13,-0.085
2:45:20.184,0.13,-0.07
2:45:20.188,0.14,-0.055
2:45:20.192,0.14,-0.065
2:45:20.196,0.14,-0.07
2:45:20.200,0.14,-0.065
2:45:20.204,0.155,-0.08
2:45:20.208,0.16,-0.065
2:45:20.212,0.165,-0.09
2:45:20.216,0.175,-0.095
2:45:20.220,0.19,-0.09
2:45:20.224,0.17,-0.105
2:45:20.228,0.2,-0.105
2:45:20.232,0.19,-0.12
2:45:20.236,0.175,-0.12
2:45:20.240,0.21,-0.115
2:45:20.244,0.195,-0.135
2:45:20.248,0.185,-0.135
2:45:20.252,0.195,-0.12
2:45:20.256,0.2,-0.12
2:45:20.260,0.195,-0.135
2:45:20.264,0.215,-0.12
2:45:20.268,0.205,-0.115
2:45:20.272,0.215,-0.13
2:45:20.276,0.215,-0.145
2:45:20.280,0.24,-0.135
2:45:20.284,0.215,-0.135
2:45:20.288,0.2,-0.135
2:45:20.292,0.205,-0.16
2:45:20.296,0.21,-0.14
2:45:20.300,0.235,-0.14
2:45:20.304,0.23,-0.14
2:45:20.308,0.215,-0.16
2:45:20.312,0.21,-0.17
2:45:20.316,0.21,-0.155
2:45:20.320,0.21,-0.14
2:45:20.324,0.23,-0.155
2:45:20.328,0.23,-0.145
2:45:20.332,0.2,-0.13
2:45:20.336,0.195,-0.15
2:45:20.340,0.21,-0.16
2:45:20.344,0.21,-0.14
2:45:20.348,0.205,-0.145
2:45:20.352,0.225,-0.135
2:45:20.356,0.225,-0.14
2:45:20.360,0.21,-0.125
2:45:20.364,0.235,-0.15
2:45:20.368,0.21,-0.15
2:45:20.372,0.215,-0.12
2:45:20.376,0.21,-0.14
2:45:20.380,0.2,-0.135
2:45:20.384,0.205,-0.12
2:45:20.388,0.195,-0.13
2:45:20.392,0.2,-0.155
2:45:20.396,0.205,-0.15
2:45:20.400,0.19,-0.145
2:45:20.404,0.205,-0.14
2:45:20.408,0.195,-0.15
2:45:20.412,0.215,-0.155
2:45:20.416,0.19,-0.135
2:45:20.420,0.205,-0.13
2:45:20.424,0.18,-0.13
2:45:20.428,0.22,-0.14
2:45:20.432,0.22,-0.125
2:45:20.436,0.185,-0.135
2:45:20.440,0.205,-0.135
2:45:20.444,0.205,-0.155
2:45:20.448,0.175,-0.14
2:45:20.452,0.18,-0.145
2:45:20.456,0.2,-0.15
2:45:20.460,0.21,-0.13
2:45:20.464,0.195,-0.1
2:45:20.468,0.185,-0.045
2:45:20.472,0.185,-0.005
2:45:20.476,0.175,0.015
2:45:20.480,0.185,0.05
2:45:20.484,0.205,0.08
2:45:20.488,0.2,0.055
2:45:20.492,0.22,0.045
2:45:20.496,0.25,0.065
2:45:20.500,0.285,0.08
2:45:20.504,0.295,0.055
2:45:20.508,0.325,0.045
2:45:20.512,0.315,0.035
2:45:20.516,0.305,0.035
2:45:20.520,0.3,0.045
2:45:20.524,0.28,0.035
2:45:20.528,0.25,0.0
2:45:20.532,0.22,-0.04
2:45:20.536,0.18,-0.055
2:45:20.540,0.15,-0.1
2:45:20.544,0.13,-0.11
2:45:20.548,0.095,-0.075
2:45:20.552,0.095,-0.07
2:45:20.556,0.075,-0.08
2:45:20.560,0.08,-0.065
2:45:20.564,0.11,-0.05
2:45:20.568,0.1,-0.04
2:45:20.572,0.08,-0.055
2:45:20.576,0.115,-0.08
2:45:20.580,0.115,-0.075
2:45:20.584,0.125,-0.075
2:45:20.588,0.115,-0.1
2:45:20.592,0.13,-0.13
2:45:20.596,0.145,-0.135
2:45:20.600,0.15,-0.14
2:45:20.604,0.19,-0.15
2:45:20.608,0.195,-0.145
2:45:20.612,0.24,-0.14
2:45:20.616,0.215,-0.145
2:45:20.620,0.21,-0.14
2:45:20.624,0.205,-0.145
2:45:20.628,0.21,-0.15
2:45:20.632,0.23,-0.11
2:45:20.636,0.215,-0.12
2:45:20.640,0.2,-0.115
2:45:20.644,0.205,-0.12
2:45:20.648,0.2,-0.115
2:45:20.652,0.2,-0.105
2:45:20.656,0.23,-0.065
2:45:20.660,0.205,-0.035
2:45:20.664,0.225,0.015
2:45:20.668,0.225,0.055
2:45:20.672,0.195,0.165
2:45:20.676,0.195,0.415
2:45:20.680,0.22,0.785
2:45:20.684,0.25,1.095
2:45:20.688,0.285,1.34
2:45:20.692,0.3,1.535
2:45:20.696,0.245,1.64
2:45:20.700,0.195,1.6
2:45:20.704,0.195,1.37
2:45:20.708,0.115,0.9
2:45:20.712,-0.075,0.355
2:45:20.716,-0.375,0.035
2:45:20.720,-0.74,0.085
2:45:20.724,-1.08,0.235
2:45:20.728,-1.295,0.145
2:45:20.732,-1.355,-0.12
2:45:20.736,-1.31,-0.41
2:45:20.740,-1.05,-0.6
2:45:20.744,-0.665,-0.655
2:45:20.748,-0.29,-0.64
2:45:20.752,-0.075,-0.58
2:45:20.756,0.01,-0.45
2:45:20.760,0.025,-0.345
2:45:20.764,0.01,-0.28
2:45:20.768,0.02,-0.26
2:45:20.772,0.025,-0.265
2:45:20.776,0.05,-0.265
2:45:20.780,0.12,-0.25
2:45:20.784,0.205,-0.28
2:45:20.788,0.26,-0.26
2:45:20.792,0.265,-0.25
2:45:20.796,0.285,-0.24
2:45:20.800,0.305,-0.24
2:45:20.804,0.29,-0.235
2:45:20.808,0.29,-0.24
2:45:20.812,0.29,-0.22
2:45:20.816,0.3,-0.225
2:45:20.820,0.34,-0.21
2:45:20.824,0.315,-0.23
2:45:20.828,0.315,-0.205
2:45:20.832,0.33,-0.195
2:45:20.836,0.325,-0.21
2:45:20.840,0.325,-0.19
2:45:20.844,0.305,-0.205
2:45:20.848,0.315,-0.195
2:45:20.852,0.31,-0.185
2:45:20.856,0.32,-0.185
2:45:20.860,0.335,-0.205
2:45:20.864,0.31,-0.2
2:45:20.868,0.335,-0.19
2:45:20.872,0.32,-0.195
2:45:20.876,0.32,-0.18
2:45:20.880,0.33,-0.18
2:45:20.884,0.315,-0.18
2:45:20.888,0.335,-0.175
2:45:20.892,0.325,-0.18
2:45:20.896,0.325,-0.18
2:45:20.900,0.32,-0.155
2:45:20.904,0.33,-0.18
2:45:20.908,0.31,-0.165
2:45:20.912,0.31,-0.175
2:45:20.916,0.315,-0.165
2:45:20.920,0.305,-0.165
2:45:20.924,0.305,-0.16
2:45:20.928,0.29,-0.16
2:45:20.932,0.32,-0.13
2:45:20.936,0.295,-0.14
2:45:20.940,0.285,-0.125
2:45:20.944,0.285,-0.11
2:45:20.948,0.27,-0.085
2:45:20.952,0.285,-0.08
2:45:20.956,0.28,-0.09
2:45:20.960,0.265,-0.08
2:45:20.964,0.29,-0.055
2:45:20.968,0.26,-0.05
2:45:20.972,0.28,-0.02
2:45:20.976,0.28,-0.01
2:45:20.980,0.255,0.015
2:45:20.984,0.245,0.015
2:45:20.988,0.285,0.035
2:45:20.992,0.25,0.04
2:45:20.996,0.255,0.05
2:45:21.000,0.235,0.055
2:45:21.004,0.24,0.075
2:45:21.008,0.245,0.065
2:45:21.012,0.25,0.085
2:45:21.016,0.255,0.07
2:45:21.020,0.23,0.075
2:45:21.024,0.235,0.065
2:45:21.028,0.225,0.07
2:45:21.032,0.23,0.055
2:45:21.036,0.24,0.035
2:45:21.040,0.235,0.045
2:45:21.044,0.25,0.065
2:45:21.048,0.245,0.02
2:45:21.052,0.24,0.015
2:45:21.056,0.23,0.02
2:45:21.060,0.23,0.0
2:45:21.064,0.235,-0.005
2:45:21.068,0.23,0.0
2:45:21.072,0.23,-0.005
2:45:21.076,0.255,-0.015
2:45:21.080,0.24,-0.035
2:45:21.084,0.245,-0.03
2:45:21.088,0.255,-0.035
2:45:21.092,0.23,-0.045
2:45:21.096,0.24,-0.045
2:45:21.100,0.235,-0.025
2:45:21.104,0.235,-0.045
2:45:21.108,0.26,-0.045
2:45:21.112,0.26,-0.04
2:45:21.116,0.255,-0.05
2:45:21.120,0.25,-0.06
2:45:21.124,0.25,-0.06
2:45:21.128,0.245,-0.04
2:45:21.132,0.235,-0.055
2:45:21.136,0.24,-0.065
2:45:21.140,0.27,-0.05
2:45:21.144,0.24,-0.065
2:45:21.148,0.245,-0.05
2:45:21.152,0.25,-0.05
2:45:21.156,0.265,-0.05
2:45:21.160,0.26,-0.045
2:45:21.164,0.26,-0.045
2:45:21.168,0.28,-0.055
2:45:21.172,0.265,-0.055
2:45:21.176,0.255,-0.04
2:45:21.180,0.255,-0.055
2:45:21.184,0.255,-0.04
2:45:21.188,0.265,-0.04
2:45:21.192,0.265,-0.045
2:45:21.196,0.265,-0.06
2:45:21.200,0.255,-0.035
2:45:21.204,0.245,-0.035
2:45:21.208,0.255,-0.025
2:45:21.212,0.26,-0.055
2:45:21.216,0.265,-0.045
2:45:21.220,0.265,-0.02
2:45:21.224,0.26,-0.015
2:45:21.228,0.24,-0.03
2:45:21.232,0.235,-0.03
2:45:21.236,0.27,-0.045
2:45:21.240,0.255,-0.045
2:45:21.244,0.245,-0.035
2:45:21.248,0.245,-0.03
2:45:21.252,0.235,-0.04
2:45:21.256,0.24,-0.045
2:45:21.260,0.23,-0.05
2:45:21.264,0.24,-0.035
2:45:21.268,0.25,-0.045
2:45:21.272,0.245,-0.055
2:45:21.276,0.235,-0.035
2:45:21.280,0.225,-0.035
2:45:21.284,0.25,-0.04
2:45:21.288,0.24,-0.01
2:45:21.292,0.23,-0.035
2:45:21.296,0.235,0.02
2:45:21.300,0.215,0.04
2:45:21.304,0.23,0.055
2:45:21.308,0.215,0.12
2:45:21.312,0.235,0.11
2:45:21.316,0.24,0.145
2:45:21.320,0.265,0.17
2:45:21.324,0.29,0.15
2:45:21.328,0.31,0.15
2:45:21.332,0.33,0.145
2:45:21.336,0.365,0.145
2:45:21.340,0.365,0.145
2:45:21.344,0.365,0.145
2:45:21.348,0.365,0.135
2:45:21.352,0.325,0.105
2:45:21.356,0.315,0.1
2:45:21.360,0.3,0.065
2:45:21.364,0.24,0.04
2:45:21.368,0.235,-0.02
2:45:21.372,0.225,-0.045
2:45:21.376,0.165,-0.04
2:45:21.380,0.15,-0.03
2:45:21.384,0.155,0.0
2:45:21.388,0.14,0.005
2:45:21.392,0.125,0.015
2:45:21.396,0.145,0.005
2:45:21.400,0.12,-0.005
2:45:21.404,0.14,-0.005
2:45:21.408,0.155,0.005
2:45:21.412,0.175,0.0
2:45:21.416,0.155,-0.015
2:45:21.420,0.18,-0.045
2:45:21.424,0.18,-0.08
2:45:21.428,0.17,-0.09
2:45:21.432,0.18,-0.065
2:45:21.436,0.24,-0.085
2:45:21.440,0.25,-0.09
2:45:21.444,0.245,-0.09
2:45:21.448,0.245,-0.1
2:45:21.452,0.22,-0.09
2:45:21.456,0.235,-0.09
2:45:21.460,0.2,-0.11
2:45:21.464,0.24,-0.11
2:45:21.468,0.235,-0.1
2:45:21.472,0.23,-0.07
2:45:21.476,0.24,-0.085
2:45:21.480,0.235,-0.055
2:45:21.484,0.215,-0.035
2:45:21.488,0.225,0.02
2:45:21.492,0.22,0.04
2:45:21.496,0.22,0.075
2:45:21.500,0.23,0.225
2:45:21.504,0.24,0.52
2:45:21.508,0.235,0.85
2:45:21.512,0.28,1.14
2:45:21.516,0.305,1.305
2:45:21.520,0.27,1.375
2:45:21.524,0.255,1.39
2:45:21.528,0.21,1.22
2:45:21.532,0.16,0.855
2:45:21.536,0.01,0.335
2:45:21.540,-0.22,-0.02
2:45:21.544,-0.59,0.0
2:45:21.548,-0.955,0.205
2:45:21.552,-1.26,0.18
2:45:21.556,-1.395,-0.09
2:45:21.560,-1.385,-0.39
2:45:21.564,-1.175,-0.56
2:45:21.568,-0.755,-0.61
2:45:21.572,-0.33,-0.605
2:45:21.576,-0.06,-0.52
2:45:21.580,0.02,-0.405
2:45:21.584,0.02,-0.315
2:45:21.588,0.03,-0.3
2:45:21.592,0.015,-0.265
2:45:21.596,0.04,-0.28
2:45:21.600,0.09,-0.27
2:45:21.604,0.145,-0.27
2:45:21.608,0.215,-0.31
2:45:21.612,0.245,-0.295
2:45:21.616,0.29,-0.27
2:45:21.620,0.29,-0.265
2:45:21.624,0.295,-0.255
2:45:21.628,0.295,-0.27
2:45:21.632,0.28,-0.28
2:45:21.636,0.3,-0.275
2:45:21.640,0.295,-0.29
2:45:21.644,0.3,-0.26
2:45:21.648,0.31,-0.255
2:45:21.652,0.32,-0.25
2:45:21.656,0.325,-0.245
2:45:21.660,0.315,-0.24
2:45:21.664,0.33,-0.28
2:45:21.668,0.305,-0.26
2:45:21.672,0.315,-0.25
2:45:21.676,0.315,-0.25
2:45:21.680,0.3,-0.245
2:45:21.684,0.3,-0.24
2:45:21.688,0.31,-0.225
2:45:21.692,0.315,-0.24
2:45:21.696,0.345,-0.25
2:45:21.700,0.315,-0.23
2:45:21.704,0.31,-0.235
2:45:21.708,0.315,-0.27
2:45:21.712,0.325,-0.255
2:45:21.716,0.3,-0.225
2:45:21.720,0.3,-0.25
2:45:21.724,0.3,-0.255
2:45:21.728,0.305,-0.24
2:45:21.732,0.305,-0.24
2:45:21.736,0.27,-0.25
2:45:21.740,0.27,-0.24
2:45:21.744,0.275,-0.25
2:45:21.748,0.28,-0.22
2:45:21.752,0.29,-0.23
2:45:21.756,0.28,-0.235
2:45:21.760,0.285,-0.245
2:45:21.764,0.27,-0.215
2:45:21.768,0.29,-0.195
2:45:21.772,0.29,-0.19
2:45:21.776,0.255,-0.195
2:45:21.780,0.27,-0.195
2:45:21.784,0.245,-0.18
2:45:21.788,0.245,-0.16
2:45:21.792,0.27,-0.145
2:45:21.796,0.245,-0.135
2:45:21.800,0.265,-0.12
2:45:21.804,0.25,-0.105
2:45:21.808,0.245,-0.08
2:45:21.812,0.23,-0.07
2:45:21.816,0.23,-0.06
2:45:21.820,0.215,-0.07
2:45:21.824,0.225,-0.085
2:45:21.828,0.21,-0.075
2:45:21.832,0.2,-0.065
2:45:21.836,0.205,-0.065
2:45:21.840,0.21,-0.08
2:45:21.844,0.205,-0.075
2:45:21.848,0.19,-0.07
2:45:21.852,0.2,-0.075
2:45:21.856,0.21,-0.075
2:45:21.860,0.205,-0.095
2:45:21.864,0.19,-0.1
2:45:21.868,0.19,-0.12
2:45:21.872,0.195,-0.15
2:45:21.876,0.185,-0.16
2:45:21.880,0.18,-0.17
2:45:21.884,0.19,-0.17
2:45:21.888,0.205,-0.17
2:45:21.892,0.21,-0.165
2:45:21.896,0.205,-0.18
2:45:21.900,0.18,-0.18
2:45:21.904,0.22,-0.18
2:45:21.908,0.185,-0.17
2:45:21.912,0.21,-0.17
2:45:21.916,0.185,-0.17
2:45:21.920,0.18,-0.175
2:45:21.924,0.21,-0.21
2:45:21.928,0.23,-0.22
2:45:21.932,0.19,-0.205
2:45:21.936,0.21,-0.205
2:45:21.940,0.19,-0.225
2:45:21.944,0.22,-0.215
2:45:21.948,0.2,-0.215
2:45:21.952,0.225,-0.205
2:45:21.956,0.23,-0.21
2:45:21.960,0.22,-0.225
2:45:21.964,0.22,-0.215
2:45:21.968,0.22,-0.24
2:45:21.972,0.235,-0.23
2:45:21.976,0.23,-0.2
2:45:21.980,0.24,-0.205
2:45:21.984,0.225,-0.2
2:45:21.988,0.22,-0.2
2:45:21.992,0.25,-0.2
2:45:21.996,0.24,-0.21
2:45:22.000,0.23,-0.205
2:45:22.004,0.225,-0.21
2:45:22.008,0.23,-0.205
2:45:22.012,0.25,-0.205
2:45:22.016,0.225,-0.205
2:45:22.020,0.23,-0.175
2:45:22.024,0.23,-0.2
2:45:22.028,0.23,-0.22
2:45:22.032,0.23,-0.19
2:45:22.036,0.24,-0.215
2:45:22.040,0.21,-0.22
2:45:22.044,0.23,-0.24
2:45:22.048,0.22,-0.215
2:45:22.052,0.205,-0.185
2:45:22.056,0.205,-0.195
2:45:22.060,0.205,-0.2
2:45:22.064,0.215,-0.21
2:45:22.068,0.19,-0.2
2:45:22.072,0.23,-0.19
2:45:22.076,0.195,-0.22
2:45:22.080,0.21,-0.21
2:45:22.084,0.215,-0.21
2:45:22.088,0.21,-0.21
2:45:22.092,0.18,-0.215
2:45:22.096,0.185,-0.205
2:45:22.100,0.22,-0.19
2:45:22.104,0.21,-0.195
2:45:22.108,0.19,-0.185
2:45:22.112,0.19,-0.18
2:45:22.116,0.195,-0.14
2:45:22.120,0.195,-0.09
2:45:22.124,0.19,-0.04
2:45:22.128,0.175,-0.05
2:45:22.132,0.205,-0.035
2:45:22.136,0.19,-0.02
2:45:22.140,0.24,-0.02
2:45:22.144,0.245,-0.03
2:45:22.148,0.24,-0.025
2:45:22.152,0.29,-0.03
2:45:22.156,0.295,-0.04
2:45:22.160,0.295,-0.04
2:45:22.164,0.285,-0.035
2:45:22.168,0.28,-0.04
2:45:22.172,0.28,-0.04
2:45:22.176,0.235,-0.055
2:45:22.180,0.225,-0.115
2:45:22.184,0.2,-0.175
2:45:22.188,0.17,-0.215
2:45:22.192,0.15,-0.205
2:45:22.196,0.11,-0.195
2:45:22.200,0.105,-0.17
2:45:22.204,0.09,-0.16
2:45:22.208,0.09,-0.16
2:45:22.212,0.1,-0.16
2:45:22.216,0.09,-0.165
2:45:22.220,0.095,-0.16
2:45:22.224,0.11,-0.19
2:45:22.228,0.12,-0.18
2:45:22.232,0.13,-0.2
2:45:22.236,0.135,-0.24
2:45:22.240,0.125,-0.25
2:45:22.244,0.135,-0.25
2:45:22.248,0.15,-0.28
2:45:22.252,0.195,-0.27
2:45:22.256,0.205,-0.28
2:45:22.260,0.22,-0.265
2:45:22.264,0.21,-0.255
2:45:22.268,0.195,-0.26
2:45:22.272,0.18,-0.26
2:45:22.276,0.17,-0.265
2:45:22.280,0.18,-0.26
2:45:22.284,0.195,-0.245
2:45:22.288,0.2,-0.24
2:45:22.292,0.205,-0.24
2:45:22.296,0.185,-0.24
2:45:22.300,0.18,-0.2
2:45:22.304,0.185,-0.16
2:45:22.308,0.16,-0.12
2:45:22.312,0.185,-0.09
2:45:22.316,0.18,-0.01
2:45:22.320,0.185,0.185
2:45:22.324,0.185,0.48
2:45:22.328,0.195,0.775
2:45:22.332,0.21,1.02
2:45:22.336,0.235,1.21
2:45:22.340,0.21,1.33
2:45:22.344,0.155,1.365
2:45:22.348,0.16,1.26
2:45:22.352,0.09,0.94
2:45:22.356,0.005,0.44
2:45:22.360,-0.23,0.005
2:45:22.364,-0.53,-0.125
2:45:22.368,-0.83,-0.08
2:45:22.372,-1.035,-0.155
2:45:22.376,-1.12,-0.385
2:45:22.380,-1.13,-0.585
2:45:22.384,-0.93,-0.715
2:45:22.388,-0.62,-0.79
2:45:22.392,-0.285,-0.795
2:45:22.396,-0.1,-0.7
2:45:22.400,-0.055,-0.585
2:45:22.404,-0.03,-0.485
2:45:22.408,-0.02,-0.47
2:45:22.412,-0.01,-0.45
2:45:22.416,0.02,-0.455
2:45:22.420,0.055,-0.45
2:45:22.424,0.125,-0.43
2:45:22.428,0.17,-0.435
2:45:22.432,0.205,-0.44
2:45:22.436,0.2,-0.425
2:45:22.440,0.22,-0.455
2:45:22.444,0.22,-0.46
2:45:22.448,0.23,-0.46
2:45:22.452,0.25,-0.445
2:45:22.456,0.21,-0.45
2:45:22.460,0.23,-0.45
2:45:22.464,0.24,-0.46
2:45:22.468,0.24,-0.45
2:45:22.472,0.23,-0.46
2:45:22.476,0.235,-0.455
2:45:22.480,0.24,-0.45
2:45:22.484,0.225,-0.47
2:45:22.488,0.23,-0.46
2:45:22.492,0.23,-0.46
2:45:22.496,0.23,-0.45
2:45:22.500,0.24,-0.455
2:45:22.504,0.23,-0.465
2:45:22.508,0.215,-0.465
2:45:22.512,0.235,-0.465
2:45:22.516,0.215,-0.45
2:45:22.520,0.21,-0.46
2:45:22.524,0.215,-0.46
2:45:22.528,0.225,-0.48
2:45:22.532,0.21,-0.455
2:45:22.536,0.205,-0.46
2:45:22.540,0.24,-0.48
2:45:22.544,0.205,-0.47
2:45:22.548,0.19,-0.465
2:45:22.552,0.185,-0.475
2:45:22.556,0.195,-0.48
2:45:22.560,0.19,-0.485
2:45:22.564,0.185,-0.49
2:45:22.568,0.21,-0.5
2:45:22.572,0.205,-0.49
2:45:22.576,0.18,-0.49
2:45:22.580,0.185,-0.47
2:45:22.584,0.18,-0.475
2:45:22.588,0.17,-0.47
2:45:22.592,0.165,-0.5
2:45:22.596,0.16,-0.48
2:45:22.600,0.155,-0.465
2:45:22.604,0.135,-0.47
2:45:22.608,0.16,-0.445
2:45:22.612,0.14,-0.42
2:45:22.616,0.145,-0.415
2:45:22.620,0.145,-0.41
2:45:22.624,0.155,-0.405
2:45:22.628,0.13,-0.365
2:45:22.632,0.135,-0.365
2:45:22.636,0.115,-0.335
2:45:22.640,0.135,-0.31
2:45:22.644,0.12,-0.29
2:45:22.648,0.115,-0.26
2:45:22.652,0.1,-0.27
2:45:22.656,0.12,-0.26
2:45:22.660,0.12,-0.26
2:45:22.664,0.125,-0.245
2:45:22.668,0.11,-0.245
2:45:22.672,0.13,-0.25
2:45:22.676,0.13,-0.27
2:45:22.680,0.14,-0.26
2:45:22.684,0.12,-0.275
2:45:22.688,0.14,-0.255
2:45:22.692,0.14,-0.26
2:45:22.696,0.12,-0.26
2:45:22.700,0.135,-0.27
2:45:22.704,0.145,-0.285
2:45:22.708,0.145,-0.28
2:45:22.712,0.135,-0.315
2:45:22.716,0.16,-0.31
2:45:22.720,0.15,-0.31
2:45:22.724,0.155,-0.29
2:45:22.728,0.155,-0.295
2:45:22.732,0.16,-0.305
2:45:22.736,0.165,-0.315
2:45:22.740,0.15,-0.33
2:45:22.744,0.155,-0.32
2:45:22.748,0.15,-0.325
2:45:22.752,0.15,-0.315
2:45:22.756,0.16,-0.315
2:45:22.760,0.14,-0.33
2:45:22.764,0.17,-0.33
2:45:22.768,0.165,-0.32
2:45:22.772,0.18,-0.325
2:45:22.776,0.17,-0.345
2:45:22.780,0.185,-0.335
2:45:22.784,0.17,-0.325
2:45:22.788,0.165,-0.34
2:45:22.792,0.17,-0.33
2:45:22.796,0.155,-0.34
2:45:22.800,0.17,-0.325
2:45:22.804,0.175,-0.33
2:45:22.808,0.18,-0.355
2:45:22.812,0.18,-0.35
2:45:22.816,0.17,-0.34
2:45:22.820,0.17,-0.345
2:45:22.824,0.165,-0.32
2:45:22.828,0.19,-0.34
2:45:22.832,0.16,-0.35
2:45:22.836,0.19,-0.35
2:45:22.840,0.15,-0.34
2:45:22.844,0.175,-0.345
2:45:22.848,0.165,-0.33
2:45:22.852,0.18,-0.35
2:45:22.856,0.17,-0.345
2:45:22.860,0.155,-0.34
2:45:22.864,0.16,-0.34
2:45:22.868,0.135,-0.35
2:45:22.872,0.16,-0.34
2:45:22.876,0.18,-0.34
2:45:22.880,0.16,-0.35
2:45:22.884,0.155,-0.34
2:45:22.888,0.14,-0.345
2:45:22.892,0.165,-0.35
2:45:22.896,0.145,-0.355
2:45:22.900,0.135,-0.35
2:45:22.904,0.13,-0.34
2:45:22.908,0.14,-0.35
2:45:22.912,0.12,-0.35
2:45:22.916,0.145,-0.355
2:45:22.920,0.115,-0.35
2:45:22.924,0.11,-0.34
2:45:22.928,0.135,-0.325
2:45:22.932,0.13,-0.34
2:45:22.936,0.14,-0.34
2:45:22.940,0.13,-0.35
2:45:22.944,0.125,-0.345
2:45:22.948,0.14,-0.31
2:45:22.952,0.13,-0.33
2:45:22.956,0.135,-0.325
2:45:22.960,0.12,-0.29
2:45:22.964,0.135,-0.225
2:45:22.968,0.145,-0.2
2:45:22.972,0.135,-0.17
2:45:22.976,0.16,-0.17
2:45:22.980,0.17,-0.145
2:45:22.984,0.18,-0.125
2:45:22.988,0.21,-0.145
2:45:22.992,0.23,-0.13
2:45:22.996,0.245,-0.13
2:45:23.000,0.26,-0.135
2:45:23.004,0.28,-0.14
2:45:23.008,0.26,-0.14
2:45:23.012,0.25,-0.145
2:45:23.016,0.255,-0.165
2:45:23.020,0.23,-0.16
2:45:23.024,0.23,-0.2
2:45:23.028,0.195,-0.23
2:45:23.032,0.155,-0.29
2:45:23.036,0.11,-0.32
2:45:23.040,0.09,-0.325
2:45:23.044,0.09,-0.315
2:45:23.048,0.08,-0.305
2:45:23.052,0.07,-0.29
2:45:23.056,0.07,-0.26
2:45:23.060,0.07,-0.275
2:45:23.064,0.1,-0.245
2:45:23.068,0.07,-0.245
2:45:23.072,0.105,-0.28
2:45:23.076,0.12,-0.275
2:45:23.080,0.12,-0.28
2:45:23.084,0.14,-0.305
2:45:23.088,0.14,-0.33
2:45:23.092,0.115,-0.345
2:45:23.096,0.125,-0.345
2:45:23.100,0.155,-0.355
2:45:23.104,0.175,-0.36
2:45:23.108,0.2,-0.375
2:45:23.112,0.195,-0.36
2:45:23.116,0.17,-0.35
2:45:23.120,0.145,-0.345
2:45:23.124,0.175,-0.365
2:45:23.128,0.18,-0.33
2:45:23.132,0.15,-0.32
2:45:23.136,0.16,-0.33
2:45:23.140,0.17,-0.32
2:45:23.144,0.185,-0.32
2:45:23.148,0.165,-0.295
2:45:23.152,0.15,-0.27
2:45:23.156,0.16,-0.23
2:45:23.160,0.16,-0.205
2:45:23.164,0.14,-0.17
2:45:23.168,0.125,-0.075
2:45:23.172,0.145,0.14
2:45:23.176,0.165,0.505
2:45:23.180,0.195,0.835
2:45:23.184,0.21,1.125
2:45:23.188,0.215,1.34
2:45:23.192,0.165,1.495
2:45:23.196,0.155,1.51
2:45:23.200,0.145,1.36
2:45:23.204,0.1,0.95
2:45:23.208,-0.04,0.375
2:45:23.212,-0.255,-0.1
2:45:23.216,-0.55,-0.245
2:45:23.220,-0.835,-0.205
2:45:23.224,-1.04,-0.265
2:45:23.228,-1.145,-0.445
2:45:23.232,-1.145,-0.64
2:45:23.236,-0.975,-0.785
2:45:23.240,-0.635,-0.82
2:45:23.244,-0.32,-0.835
2:45:23.248,-0.145,-0.8
2:45:23.252,-0.06,-0.66
2:45:23.256,-0.055,-0.555
2:45:23.260,-0.04,-0.515
2:45:23.264,-0.03,-0.495
2:45:23.268,-0.015,-0.5
2:45:23.272,0.0,-0.505
2:45:23.276,0.06,-0.49
2:45:23.280,0.105,-0.51
2:45:23.284,0.175,-0.48
2:45:23.288,0.2,-0.495
2:45:23.292,0.21,-0.495
2:45:23.296,0.21,-0.475
2:45:23.300,0.225,-0.475
2:45:23.304,0.215,-0.485
2:45:23.308,0.22,-0.475
2:45:23.312,0.215,-0.47
2:45:23.316,0.235,-0.475
2:45:23.320,0.215,-0.495
2:45:23.324,0.23,-0.48
2:45:23.328,0.225,-0.49
2:45:23.332,0.235,-0.47
2:45:23.336,0.235,-0.465
2:45:23.340,0.245,-0.455
2:45:23.344,0.235,-0.445
2:45:23.348,0.245,-0.455
2:45:23.352,0.245,-0.46
2:45:23.356,0.225,-0.47
2:45:23.360,0.23,-0.465
2:45:23.364,0.24,-0.475
2:45:23.368,0.23,-0.465
2:45:23.372,0.21,-0.475
2:45:23.376,0.235,-0.465
2:45:23.380,0.23,-0.47
2:45:23.384,0.225,-0.465
2:45:23.388,0.245,-0.46
2:45:23.392,0.235,-0.45
2:45:23.396,0.22,-0.445
2:45:23.400,0.22,-0.44
2:45:23.404,0.195,-0.46
2:45:23.408,0.21,-0.45
2:45:23.412,0.21,-0.465
2:45:23.416,0.19,-0.475
2:45:23.420,0.185,-0.465
2:45:23.424,0.19,-0.48
2:45:23.428,0.175,-0.48
2:45:23.432,0.19,-0.46
2:45:23.436,0.19,-0.465
2:45:23.440,0.18,-0.465
2:45:23.444,0.17,-0.45
2:45:23.448,0.17,-0.455
2:45:23.452,0.165,-0.43
2:45:23.456,0.155,-0.4
2:45:23.460,0.15,-0.39
2:45:23.464,0.165,-0.385
2:45:23.468,0.145,-0.39
2:45:23.472,0.16,-0.365
2:45:23.476,0.125,-0.355
2:45:23.480,0.125,-0.33
2:45:23.484,0.12,-0.315
2:45:23.488,0.11,-0.3
2:45:23.492,0.115,-0.26
2:45:23.496,0.12,-0.265
2:45:23.500,0.095,-0.25
2:45:23.504,0.095,-0.26
2:45:23.508,0.1,-0.235
2:45:23.512,0.095,-0.225
2:45:23.516,0.075,-0.235
2:45:23.520,0.09,-0.23
2:45:23.524,0.09,-0.235
2:45:23.528,0.1,-0.225
2:45:23.532,0.085,-0.235
2:45:23.536,0.085,-0.245
2:45:23.540,0.12,-0.245
2:45:23.544,0.12,-0.23
2:45:23.548,0.115,-0.25
2:45:23.552,0.115,-0.24
2:45:23.556,0.115,-0.265
2:45:23.560,0.105,-0.27
2:45:23.564,0.11,-0.255
2:45:23.568,0.105,-0.275
2:45:23.572,0.125,-0.29
2:45:23.576,0.145,-0.29
2:45:23.580,0.14,-0.305
2:45:23.584,0.1,-0.28
2:45:23.588,0.115,-0.32
2:45:23.592,0.13,-0.31
2:45:23.596,0.14,-0.31
2:45:23.600,0.115,-0.31
2:45:23.604,0.13,-0.305
2:45:23.608,0.12,-0.3
2:45:23.612,0.115,-0.31
2:45:23.616,0.115,-0.335
2:45:23.620,0.125,-0.32
2:45:23.624,0.135,-0.33
2:45:23.628,0.125,-0.33
2:45:23.632,0.13,-0.345
2:45:23.636,0.145,-0.335
2:45:23.640,0.15,-0.33
2:45:23.644,0.145,-0.325
2:45:23.648,0.14,-0.32
2:45:23.652,0.155,-0.325
2:45:23.656,0.145,-0.325
2:45:23.660,0.145,-0.325
2:45:23.664,0.125,-0.32
2:45:23.668,0.14,-0.31
2:45:23.672,0.15,-0.32
2:45:23.676,0.145,-0.31
2:45:23.680,0.13,-0.31
2:45:23.684,0.135,-0.335
2:45:23.688,0.155,-0.34
2:45:23.692,0.135,-0.335
2:45:23.696,0.13,-0.31
2:45:23.700,0.12,-0.34
2:45:23.704,0.14,-0.325
2:45:23.708,0.125,-0.32
2:45:23.712,0.135,-0.335
2:45:23.716,0.125,-0.325
2:45:23.720,0.13,-0.335
2:45:23.724,0.14,-0.32
2:45:23.728,0.105,-0.32
2:45:23.732,0.1,-0.325
2:45:23.736,0.13,-0.34
2:45:23.740,0.105,-0.31
2:45:23.744,0.14,-0.32
2:45:23.748,0.125,-0.325
2:45:23.752,0.105,-0.33
2:45:23.756,0.13,-0.32
2:45:23.760,0.125,-0.32
2:45:23.764,0.12,-0.335
2:45:23.768,0.115,-0.325
2:45:23.772,0.09,-0.325
2:45:23.776,0.085,-0.32
2:45:23.780,0.1,-0.31
2:45:23.784,0.095,-0.315
2:45:23.788,0.085,-0.315
2:45:23.792,0.09,-0.305
2:45:23.796,0.11,-0.32
2:45:23.800,0.095,-0.265
2:45:23.804,0.11,-0.25
2:45:23.808,0.11,-0.19
2:45:23.812,0.09,-0.18
2:45:23.816,0.09,-0.135
2:45:23.820,0.105,-0.115
2:45:23.824,0.125,-0.11
2:45:23.828,0.145,-0.11
2:45:23.832,0.165,-0.105
2:45:23.836,0.2,-0.11
2:45:23.840,0.22,-0.12
2:45:23.844,0.23,-0.115
2:45:23.848,0.22,-0.12
2:45:23.852,0.215,-0.145
2:45:23.856,0.21,-0.135
2:45:23.860,0.19,-0.145
2:45:23.864,0.16,-0.165
2:45:23.868,0.135,-0.2
2:45:23.872,0.105,-0.265
2:45:23.876,0.085,-0.27
2:45:23.880,0.055,-0.27
2:45:23.884,0.04,-0.25
2:45:23.888,0.035,-0.24
2:45:23.892,0.03,-0.23
2:45:23.896,0.005,-0.225
2:45:23.900,-0.015,-0.23
2:45:23.904,0.01,-0.22
2:45:23.908,0.02,-0.23
2:45:23.912,0.035,-0.255
2:45:23.916,0.04,-0.25
2:45:23.920,0.065,-0.275
2:45:23.924,0.06,-0.295
2:45:23.928,0.03,-0.33
2:45:23.932,0.065,-0.33
2:45:23.936,0.08,-0.32
2:45:23.940,0.11,-0.325
2:45:23.944,0.13,-0.3
2:45:23.948,0.135,-0.33
2:45:23.952,0.12,-0.32
2:45:23.956,0.145,-0.32
2:45:23.960,0.14,-0.305
2:45:23.964,0.135,-0.32
2:45:23.968,0.115,-0.295
2:45:23.972,0.115,-0.305
2:45:23.976,0.115,-0.285
2:45:23.980,0.125,-0.3
2:45:23.984,0.125,-0.275
2:45:23.988,0.135,-0.25
2:45:23.992,0.125,-0.215
2:45:23.996,0.13,-0.16
2:45:24.000,0.125,-0.11
2:45:24.004,0.135,0.025
2:45:24.008,0.12,0.315
2:45:24.012,0.135,0.655
2:45:24.016,0.18,0.965
2:45:24.020,0.18,1.195
2:45:24.024,0.18,1.39
2:45:24.028,0.16,1.44
2:45:24.032,0.13,1.345
2:45:24.036,0.11,1.025
2:45:24.040,0.035,0.5
2:45:24.044,-0.175,0.0
2:45:24.048,-0.475,-0.195
2:45:24.052,-0.8,-0.1
2:45:24.056,-1.055,-0.075
2:45:24.060,-1.225,-0.255
2:45:24.064,-1.27,-0.515
2:45:24.068,-1.14,-0.68
2:45:24.072,-0.8,-0.78
2:45:24.076,-0.42,-0.785
2:45:24.080,-0.155,-0.715
2:45:24.084,-0.045,-0.6
2:45:24.088,-0.035,-0.485
2:45:24.092,-0.04,-0.445
2:45:24.096,-0.01,-0.425
2:45:24.100,-0.025,-0.405
2:45:24.104,-0.005,-0.4
2:45:24.108,0.07,-0.425
2:45:24.112,0.13,-0.4
2:45:24.116,0.18,-0.415
2:45:24.120,0.2,-0.395
2:45:24.124,0.205,-0.41
2:45:24.128,0.235,-0.415
2:45:24.132,0.215,-0.425
2:45:24.136,0.24,-0.39
2:45:24.140,0.24,-0.39
2:45:24.144,0.265,-0.385
2:45:24.148,0.24,-0.375
2:45:24.152,0.245,-0.365
2:45:24.156,0.25,-0.385
2:45:24.160,0.27,-0.38
2:45:24.164,0.27,-0.365
2:45:24.168,0.255,-0.37
2:45:24.172,0.25,-0.365
2:45:24.176,0.255,-0.37
2:45:24.180,0.26,-0.35
2:45:24.184,0.285,-0.365
2:45:24.188,0.28,-0.355
2:45:24.192,0.28,-0.36
2:45:24.196,0.245,-0.35
2:45:24.200,0.245,-0.34
2:45:24.204,0.25,-0.335
2:45:24.208,0.265,-0.34
2:45:24.212,0.26,-0.345
2:45:24.216,0.27,-0.32
2:45:24.220,0.25,-0.35
2:45:24.224,0.27,-0.34
2:45:24.228,0.25,-0.34
2:45:24.232,0.265,-0.33
2:45:24.236,0.26,-0.33
2:45:24.240,0.26,-0.31
2:45:24.244,0.245,-0.315
2:45:24.248,0.255,-0.32
2:45:24.252,0.25,-0.32
2:45:24.256,0.245,-0.32
2:45:24.260,0.27,-0.315
2:45:24.264,0.235,-0.325
2:45:24.268,0.245,-0.295
2:45:24.272,0.225,-0.3
2:45:24.276,0.245,-0.29
2:45:24.280,0.245,-0.285
2:45:24.284,0.26,-0.28
2:45:24.288,0.235,-0.225
2:45:24.292,0.225,-0.225
2:45:24.296,0.21,-0.225
2:45:24.300,0.22,-0.2
2:45:24.304,0.21,-0.195
2:45:24.308,0.225,-0.15
2:45:24.312,0.2,-0.145
2:45:24.316,0.185,-0.13
2:45:24.320,0.2,-0.13
2:45:24.324,0.195,-0.1
2:45:24.328,0.195,-0.09
2:45:24.332,0.195,-0.105
2:45:24.336,0.175,-0.08
2:45:24.340,0.18,-0.105
2:45:24.344,0.165,-0.08
2:45:24.348,0.15,-0.08
2:45:24.352,0.16,-0.085
2:45:24.356,0.165,-0.09
2:45:24.360,0.165,-0.095
2:45:24.364,0.165,-0.1
2:45:24.368,0.16,-0.1
2:45:24.372,0.165,-0.1
2:45:24.376,0.16,-0.12
2:45:24.380,0.18,-0.12
2:45:24.384,0.18,-0.135
2:45:24.388,0.185,-0.14
2:45:24.392,0.19,-0.14
2:45:24.396,0.175,-0.16
2:45:24.400,0.175,-0.16
2:45:24.404,0.185,-0.155
2:45:24.408,0.19,-0.135
2:45:24.412,0.175,-0.175
2:45:24.416,0.18,-0.18
2:45:24.420,0.19,-0.18
2:45:24.424,0.18,-0.195
2:45:24.428,0.175,-0.175
2:45:24.432,0.17,-0.175
2:45:24.436,0.185,-0.205
2:45:24.440,0.175,-0.2
2:45:24.444,0.21,-0.225
2:45:24.448,0.2,-0.22
2:45:24.452,0.19,-0.205
2:45:24.456,0.195,-0.21
2:45:24.460,0.195,-0.185
2:45:24.464,0.2,-0.215
2:45:24.468,0.21,-0.225
2:45:24.472,0.21,-0.225
2:45:24.476,0.205,-0.215
2:45:24.480,0.2,-0.2
2:45:24.484,0.195,-0.195
2:45:24.488,0.19,-0.19
2:45:24.492,0.17,-0.185
2:45:24.496,0.2,-0.205
2:45:24.500,0.21,-0.2
2:45:24.504,0.195,-0.205
2:45:24.508,0.2,-0.205
2:45:24.512,0.195,-0.205
2:45:24.516,0.2,-0.2
2:45:24.520,0.19,-0.215
2:45:24.524,0.19,-0.21
2:45:24.528,0.21,-0.205
2:45:24.532,0.19,-0.205
2:45:24.536,0.205,-0.21
2:45:24.540,0.185,-0.21
2:45:24.544,0.17,-0.215
2:45:24.548,0.165,-0.23
2:45:24.552,0.165,-0.215
2:45:24.556,0.155,-0.2
2:45:24.560,0.165,-0.2
2:45:24.564,0.155,-0.235
2:45:24.568,0.175,-0.21
2:45:24.572,0.14,-0.23
2:45:24.576,0.185,-0.235
2:45:24.580,0.17,-0.225
2:45:24.584,0.15,-0.22
2:45:24.588,0.16,-0.23
2:45:24.592,0.15,-0.225
2:45:24.596,0.14,-0.235
2:45:24.600,0.145,-0.235
2:45:24.604,0.14,-0.22
2:45:24.608,0.155,-0.235
2:45:24.612,0.15,-0.22
2:45:24.616,0.135,-0.225
2:45:24.620,0.145,-0.23
2:45:24.624,0.145,-0.22
2:45:24.628,0.15,-0.19
2:45:24.632,0.145,-0.17
2:45:24.636,0.13,-0.125
2:45:24.640,0.115,-0.09
2:45:24.644,0.145,-0.04
2:45:24.648,0.135,-0.025
2:45:24.652,0.155,-0.03
2:45:24.656,0.175,-0.045
2:45:24.660,0.21,-0.005
2:45:24.664,0.25,-0.015
2:45:24.668,0.24,-0.015
2:45:24.672,0.255,-0.055
2:45:24.676,0.265,-0.045
2:45:24.680,0.255,-0.035
2:45:24.684,0.245,-0.04
2:45:24.688,0.23,-0.04
2:45:24.692,0.2,-0.065
2:45:24.696,0.18,-0.105
2:45:24.700,0.13,-0.16
2:45:24.704,0.11,-0.21
2:45:24.708,0.11,-0.2
2:45:24.712,0.06,-0.19
2:45:24.716,0.055,-0.21
2:45:24.720,0.065,-0.195
2:45:24.724,0.055,-0.17
2:45:24.728,0.025,-0.165
2:45:24.732,0.055,-0.15
2:45:24.736,0.04,-0.19
2:45:24.740,0.06,-0.195
2:45:24.744,0.055,-0.19
2:45:24.748,0.075,-0.19
2:45:24.752,0.07,-0.215
2:45:24.756,0.08,-0.24
2:45:24.760,0.07,-0.245
2:45:24.764,0.09,-0.255
2:45:24.768,0.095,-0.235
2:45:24.772,0.14,-0.255
2:45:24.776,0.155,-0.26
2:45:24.780,0.16,-0.255
2:45:24.784,0.15,-0.25
2:45:24.788,0.135,-0.255
2:45:24.792,0.135,-0.235
2:45:24.796,0.135,-0.245
2:45:24.800,0.145,-0.245
2:45:24.804,0.135,-0.24
2:45:24.808,0.13,-0.22
2:45:24.812,0.145,-0.25
2:45:24.816,0.15,-0.22
2:45:24.820,0.135,-0.205
2:45:24.824,0.125,-0.16
2:45:24.828,0.13,-0.105
2:45:24.832,0.12,-0.075
2:45:24.836,0.11,0.025
2:45:24.840,0.11,0.235
2:45:24.844,0.135,0.585
2:45:24.848,0.165,0.88
2:45:24.852,0.19,1.1
2:45:24.856,0.17,1.27
2:45:24.860,0.17,1.335
2:45:24.864,0.14,1.29
2:45:24.868,0.115,1.09
2:45:24.872,0.06,0.69
2:45:24.876,-0.09,0.17
2:45:24.880,-0.395,-0.165
2:45:24.884,-0.73,-0.12
2:45:24.888,-1.05,0.02
2:45:24.892,-1.305,0.005
2:45:24.896,-1.4,-0.23
2:45:24.900,-1.36,-0.465
2:45:24.904,-1.13,-0.625
2:45:24.908,-0.75,-0.705
2:45:24.912,-0.36,-0.705
2:45:24.916,-0.135,-0.635
2:45:24.920,-0.035,-0.515
2:45:24.924,-0.06,-0.425
2:45:24.928,-0.055,-0.395
2:45:24.932,-0.025,-0.37
2:45:24.936,-0.03,-0.395
2:45:24.940,0.0,-0.385
2:45:24.944,0.07,-0.38
2:45:24.948,0.12,-0.37
2:45:24.952,0.17,-0.345
2:45:24.956,0.2,-0.35
2:45:24.960,0.215,-0.345
2:45:24.964,0.22,-0.355
2:45:24.968,0.23,-0.355
2:45:24.972,0.215,-0.345
2:45:24.976,0.205,-0.34
2:45:24.980,0.21,-0.33
2:45:24.984,0.22,-0.32
2:45:24.988,0.215,-0.32
2:45:24.992,0.24,-0.325
2:45:24.996,0.24,-0.34
2:45:25.000,0.245,-0.31
2:45:25.004,0.225,-0.31
2:45:25.008,0.24,-0.32
2:45:25.012,0.255,-0.325
2:45:25.016,0.255,-0.33
2:45:25.020,0.245,-0.325
2:45:25.024,0.275,-0.335
2:45:25.028,0.255,-0.32
2:45:25.032,0.245,-0.32
2:45:25.036,0.27,-0.3
2:45:25.040,0.275,-0.315
2:45:25.044,0.24,-0.315
2:45:25.048,0.24,-0.31
2:45:25.052,0.26,-0.31
2:45:25.056,0.255,-0.33
2:45:25.060,0.265,-0.325
2:45:25.064,0.26,-0.295
2:45:25.068,0.245,-0.305
2:45:25.072,0.235,-0.305
2:45:25.076,0.26,-0.295
2:45:25.080,0.24,-0.275
2:45:25.084,0.24,-0.29
2:45:25.088,0.245,-0.285
2:45:25.092,0.225,-0.275
2:45:25.096,0.25,-0.27
2:45:25.100,0.24,-0.275
2:45:25.104,0.24,-0.255
2:45:25.108,0.235,-0.245
2:45:25.112,0.22,-0.245
2:45:25.116,0.22,-0.23
2:45:25.120,0.225,-0.235
2:45:25.124,0.235,-0.215
2:45:25.128,0.215,-0.2
2:45:25.132,0.2,-0.19
2:45:25.136,0.2,-0.175
2:45:25.140,0.205,-0.185
2:45:25.144,0.19,-0.165
2:45:25.148,0.19,-0.135
2:45:25.152,0.185,-0.13
2:45:25.156,0.19,-0.11
2:45:25.160,0.2,-0.095
2:45:25.164,0.18,-0.08
2:45:25.168,0.145,-0.07
2:45:25.172,0.17,-0.09
2:45:25.176,0.15,-0.07
2:45:25.180,0.155,-0.06
2:45:25.184,0.195,-0.07
2:45:25.188,0.175,-0.07
2:45:25.192,0.165,-0.07
2:45:25.196,0.145,-0.06
2:45:25.200,0.17,-0.07
2:45:25.204,0.15,-0.08
2:45:25.208,0.155,-0.105
2:45:25.212,0.145,-0.105
2:45:25.216,0.115,-0.115
2:45:25.220,0.14,-0.11
2:45:25.224,0.155,-0.13
2:45:25.228,0.175,-0.14
2:45:25.232,0.165,-0.145
2:45:25.236,0.165,-0.15
2:45:25.240,0.18,-0.155
2:45:25.244,0.18,-0.16
2:45:25.248,0.165,-0.175
2:45:25.252,0.15,-0.18
2:45:25.256,0.155,-0.15
2:45:25.260,0.165,-0.175
2:45:25.264,0.175,-0.155
2:45:25.268,0.165,-0.19
2:45:25.272,0.175,-0.175
2:45:25.276,0.17,-0.17
2:45:25.280,0.16,-0.185
2:45:25.284,0.165,-0.18
2:45:25.288,0.18,-0.215
2:45:25.292,0.19,-0.205
2:45:25.296,0.19,-0.205
2:45:25.300,0.2,-0.22
2:45:25.304,0.185,-0.215
2:45:25.308,0.18,-0.195
2:45:25.312,0.215,-0.19
2:45:25.316,0.19,-0.19
2:45:25.320,0.185,-0.18
2:45:25.324,0.19,-0.165
2:45:25.328,0.19,-0.195
2:45:25.332,0.195,-0.175
2:45:25.336,0.2,-0.21
2:45:25.340,0.195,-0.195
2:45:25.344,0.175,-0.195
2:45:25.348,0.195,-0.195
2:45:25.352,0.19,-0.175
2:45:25.356,0.175,-0.175
2:45:25.360,0.195,-0.18
2:45:25.364,0.18,-0.17
2:45:25.368,0.165,-0.165
2:45:25.372,0.17,-0.16
2:45:25.376,0.165,-0.155
2:45:25.380,0.17,-0.16
2:45:25.384,0.165,-0.19
2:45:25.388,0.17,-0.17
2:45:25.392,0.16,-0.18
2:45:25.396,0.165,-0.175
2:45:25.400,0.14,-0.195
2:45:25.404,0.165,-0.205
2:45:25.408,0.175,-0.21
2:45:25.412,0.15,-0.175
2:45:25.416,0.165,-0.195
2:45:25.420,0.145,-0.21
2:45:25.424,0.15,-0.2
2:45:25.428,0.145,-0.195
2:45:25.432,0.155,-0.205
2:45:25.436,0.175,-0.17
2:45:25.440,0.145,-0.185
2:45:25.444,0.14,-0.21
2:45:25.448,0.14,-0.195
2:45:25.452,0.125,-0.205
2:45:25.456,0.14,-0.175
2:45:25.460,0.14,-0.17
2:45:25.464,0.145,-0.165
2:45:25.468,0.14,-0.17
2:45:25.472,0.14,-0.17
2:45:25.476,0.14,-0.17
2:45:25.480,0.12,-0.145
2:45:25.484,0.15,-0.09
2:45:25.488,0.145,-0.045
2:45:25.492,0.12,-0.02
2:45:25.496,0.135,-0.015
2:45:25.500,0.14,-0.005
2:45:25.504,0.155,-0.025
2:45:25.508,0.18,-0.01
2:45:25.512,0.185,-0.02
2:45:25.516,0.205,-0.025
2:45:25.520,0.235,-0.045
2:45:25.524,0.255,-0.025
2:45:25.528,0.22,-0.02
2:45:25.532,0.24,-0.005
2:45:25.536,0.215,0.0
2:45:25.540,0.195,-0.025
2:45:25.544,0.18,-0.075
2:45:25.548,0.135,-0.125
2:45:25.552,0.12,-0.19
2:45:25.556,0.11,-0.165
2:45:25.560,0.075,-0.185
2:45:25.564,0.055,-0.16
2:45:25.568,0.05,-0.155
2:45:25.572,0.04,-0.115
2:45:25.576,0.02,-0.13
2:45:25.580,0.045,-0.14
2:45:25.584,0.025,-0.125
2:45:25.588,0.025,-0.145
2:45:25.592,0.04,-0.16
2:45:25.596,0.075,-0.18
2:45:25.600,0.065,-0.21
2:45:25.604,0.07,-0.245
2:45:25.608,0.065,-0.275
2:45:25.612,0.06,-0.27
2:45:25.616,0.09,-0.255
2:45:25.620,0.115,-0.25
2:45:25.624,0.14,-0.24
2:45:25.628,0.11,-0.21
2:45:25.632,0.12,-0.215
2:45:25.636,0.095,-0.225
2:45:25.640,0.105,-0.25
2:45:25.644,0.1,-0.245
2:45:25.648,0.115,-0.225
2:45:25.652,0.11,-0.205
2:45:25.656,0.1,-0.2
2:45:25.660,0.12,-0.205
2:45:25.664,0.12,-0.16
2:45:25.668,0.105,-0.145
2:45:25.672,0.115,-0.09
2:45:25.676,0.11,-0.075
2:45:25.680,0.11,-0.015
2:45:25.684,0.12,0.115
2:45:25.688,0.12,0.39
2:45:25.692,0.15,0.715
2:45:25.696,0.175,1.02
2:45:25.700,0.2,1.225
2:45:25.704,0.155,1.39
2:45:25.708,0.13,1.475
2:45:25.712,0.13,1.41
2:45:25.716,0.105,1.135
2:45:25.720,0.0,0.67
2:45:25.724,-0.185,0.15
2:45:25.728,-0.465,-0.08
2:45:25.732,-0.79,-0.07
2:45:25.736,-1.035,-0.035
2:45:25.740,-1.16,-0.19
2:45:25.744,-1.18,-0.44
2:45:25.748,-1.09,-0.615
2:45:25.752,-0.825,-0.69
2:45:25.756,-0.46,-0.73
2:45:25.760,-0.205,-0.68
2:45:25.764,-0.11,-0.56
2:45:25.768,-0.08,-0.45
2:45:25.772,-0.07,-0.4
2:45:25.776,-0.055,-0.4
2:45:25.780,-0.035,-0.385
2:45:25.784,-0.03,-0.405
2:45:25.788,0.035,-0.395
2:45:25.792,0.075,-0.385
2:45:25.796,0.135,-0.375
2:45:25.800,0.155,-0.37
2:45:25.804,0.2,-0.375
2:45:25.808,0.19,-0.36
2:45:25.812,0.185,-0.36
2:45:25.816,0.19,-0.345
2:45:25.820,0.185,-0.365
2:45:25.824,0.19,-0.355
2:45:25.828,0.19,-0.39
2:45:25.832,0.19,-0.38
2:45:25.836,0.2,-0.38
2:45:25.840,0.225,-0.385
2:45:25.844,0.185,-0.375
2:45:25.848,0.2,-0.36
2:45:25.852,0.2,-0.375
2:45:25.856,0.205,-0.355
2:45:25.860,0.225,-0.375
2:45:25.864,0.205,-0.37
2:45:25.868,0.195,-0.37
2:45:25.872,0.19,-0.35
2:45:25.876,0.195,-0.36
2:45:25.880,0.22,-0.355
2:45:25.884,0.21,-0.345
2:45:25.888,0.185,-0.35
2:45:25.892,0.19,-0.345
2:45:25.896,0.195,-0.355
2:45:25.900,0.2,-0.34
2:45:25.904,0.195,-0.365
2:45:25.908,0.185,-0.355
2:45:25.912,0.18,-0.345
2:45:25.916,0.18,-0.35
2:45:25.920,0.19,-0.36
2:45:25.924,0.18,-0.33
2:45:25.928,0.195,-0.355
2:45:25.932,0.19,-0.355
2:45:25.936,0.185,-0.34
2:45:25.940,0.175,-0.33
2:45:25.944,0.17,-0.33
2:45:25.948,0.17,-0.325
2:45:25.952,0.155,-0.33
2:45:25.956,0.155,-0.34
2:45:25.960,0.16,-0.335
2:45:25.964,0.165,-0.325
2:45:25.968,0.155,-0.315
2:45:25.972,0.15,-0.27
2:45:25.976,0.14,-0.26
2:45:25.980,0.175,-0.24
2:45:25.984,0.145,-0.225
2:45:25.988,0.14,-0.205
2:45:25.992,0.155,-0.195
2:45:25.996,0.14,-0.18
2:45:26.000,0.135,-0.165
2:45:26.004,0.115,-0.135
2:45:26.008,0.14,-0.11
2:45:26.012,0.145,-0.13
2:45:26.016,0.135,-0.105
2:45:26.020,0.145,-0.105
2:45:26.024,0.13,-0.085
2:45:26.028,0.14,-0.085
2:45:26.032,0.155,-0.08
2:45:26.036,0.13,-0.115
2:45:26.040,0.14,-0.115
2:45:26.044,0.15,-0.135
2:45:26.048,0.15,-0.12
2:45:26.052,0.155,-0.105
2:45:26.056,0.16,-0.09
2:45:26.060,0.155,-0.13
2:45:26.064,0.15,-0.115
2:45:26.068,0.155,-0.105
2:45:26.072,0.18,-0.13
2:45:26.076,0.17,-0.135
2:45:26.080,0.17,-0.15
2:45:26.084,0.2,-0.15
2:45:26.088,0.185,-0.15
2:45:26.092,0.195,-0.15
2:45:26.096,0.195,-0.15
2:45:26.100,0.185,-0.155
2:45:26.104,0.19,-0.15
2:45:26.108,0.2,-0.145
2:45:26.112,0.185,-0.145
2:45:26.116,0.195,-0.15
2:45:26.120,0.22,-0.15
2:45:26.124,0.2,-0.155
2:45:26.128,0.2,-0.17
2:45:26.132,0.23,-0.18
2:45:26.136,0.195,-0.195
2:45:26.140,0.21,-0.16
2:45:26.144,0.2,-0.165
2:45:26.148,0.205,-0.16
2:45:26.152,0.2,-0.155
2:45:26.156,0.185,-0.145
2:45:26.160,0.2,-0.17
2:45:26.164,0.195,-0.15
2:45:26.168,0.195,-0.16
2:45:26.172,0.19,-0.175
2:45:26.176,0.205,-0.175
2:45:26.180,0.21,-0.165
2:45:26.184,0.2,-0.175
2:45:26.188,0.21,-0.16
2:45:26.192,0.2,-0.135
2:45:26.196,0.215,-0.14
2:45:26.200,0.2,-0.18
2:45:26.204,0.2,-0.175
2:45:26.208,0.21,-0.18
2:45:26.212,0.195,-0.185
2:45:26.216,0.18,-0.185
2:45:26.220,0.175,-0.185
2:45:26.224,0.165,-0.18
2:45:26.228,0.18,-0.175
2:45:26.232,0.185,-0.145
2:45:26.236,0.19,-0.17
2:45:26.240,0.16,-0.19
2:45:26.244,0.185,-0.17
2:45:26.248,0.175,-0.15
2:45:26.252,0.17,-0.17
2:45:26.256,0.195,-0.16
2:45:26.260,0.175,-0.155
2:45:26.264,0.18,-0.16
2:45:26.268,0.185,-0.16
2:45:26.272,0.165,-0.18
2:45:26.276,0.17,-0.185
2:45:26.280,0.165,-0.195
2:45:26.284,0.19,-0.185
2:45:26.288,0.18,-0.185
2:45:26.292,0.185,-0.165
2:45:26.296,0.175,-0.18
2:45:26.300,0.175,-0.18
2:45:26.304,0.165,-0.16
2:45:26.308,0.18,-0.15
2:45:26.312,0.175,-0.13
2:45:26.316,0.17,-0.12
2:45:26.320,0.17,-0.07
2:45:26.324,0.175,-0.04
2:45:26.328,0.17,-0.015
2:45:26.332,0.155,-0.005
2:45:26.336,0.195,0.025
2:45:26.340,0.195,0.04
2:45:26.344,0.245,0.035
2:45:26.348,0.235,0.03
2:45:26.352,0.28,0.015
2:45:26.356,0.29,0.01
2:45:26.360,0.295,0.015
2:45:26.364,0.295,0.0
2:45:26.368,0.265,0.0
2:45:26.372,0.255,0.0
2:45:26.376,0.24,-0.02
2:45:26.380,0.215,-0.04
2:45:26.384,0.205,-0.11
2:45:26.388,0.165,-0.15
2:45:26.392,0.125,-0.14
2:45:26.396,0.135,-0.135
2:45:26.400,0.115,-0.145
2:45:26.404,0.105,-0.12
2:45:26.408,0.085,-0.12
2:45:26.412,0.105,-0.11
2:45:26.416,0.095,-0.135
2:45:26.420,0.1,-0.12
2:45:26.424,0.1,-0.13
2:45:26.428,0.13,-0.11
2:45:26.432,0.14,-0.14
2:45:26.436,0.12,-0.17
2:45:26.440,0.12,-0.2
2:45:26.444,0.13,-0.225
2:45:26.448,0.155,-0.22
2:45:26.452,0.17,-0.21
2:45:26.456,0.2,-0.22
2:45:26.460,0.205,-0.21
2:45:26.464,0.2,-0.205
2:45:26.468,0.205,-0.215
2:45:26.472,0.195,-0.2
2:45:26.476,0.195,-0.21
2:45:26.480,0.195,-0.21
2:45:26.484,0.19,-0.195
2:45:26.488,0.18,-0.195
2:45:26.492,0.2,-0.19
2:45:26.496,0.195,-0.17
2:45:26.500,0.18,-0.16
2:45:26.504,0.2,-0.115
2:45:26.508,0.195,-0.075
2:45:26.512,0.175,-0.065
2:45:26.516,0.15,0.03
2:45:26.520,0.185,0.22
2:45:26.524,0.175,0.54
2:45:26.528,0.2,0.88
2:45:26.532,0.24,1.18
2:45:26.536,0.235,1.375
2:45:26.540,0.21,1.53
2:45:26.544,0.19,1.575
2:45:26.548,0.175,1.425
2:45:26.552,0.145,1.07
2:45:26.556,0.04,0.52
2:45:26.560,-0.21,0.06
2:45:26.564,-0.495,-0.11
2:45:26.568,-0.815,-0.07
2:45:26.572,-1.025,-0.075
2:45:26.576,-1.125,-0.285
2:45:26.580,-1.165,-0.505
2:45:26.584,-0.98,-0.63
2:45:26.588,-0.665,-0.705
2:45:26.592,-0.335,-0.73
2:45:26.596,-0.12,-0.64
2:45:26.600,-0.04,-0.545
2:45:26.604,-0.02,-0.44
2:45:26.608,-0.01,-0.39
2:45:26.612,0.02,-0.365
2:45:26.616,0.01,-0.375
2:45:26.620,0.02,-0.36
2:45:26.624,0.075,-0.375
2:45:26.628,0.135,-0.385
2:45:26.632,0.19,-0.39
2:45:26.636,0.215,-0.365
2:45:26.640,0.24,-0.37
2:45:26.644,0.225,-0.365
2:45:26.648,0.225,-0.37
2:45:26.652,0.25,-0.345
2:45:26.656,0.245,-0.375
2:45:26.660,0.27,-0.38
2:45:26.664,0.245,-0.37
2:45:26.668,0.245,-0.37
2:45:26.672,0.27,-0.345
2:45:26.676,0.285,-0.335
2:45:26.680,0.255,-0.36
2:45:26.684,0.275,-0.355
2:45:26.688,0.285,-0.35
2:45:26.692,0.285,-0.36
2:45:26.696,0.275,-0.345
2:45:26.700,0.275,-0.335
2:45:26.704,0.285,-0.345
2:45:26.708,0.28,-0.34
2:45:26.712,0.27,-0.365
2:45:26.716,0.26,-0.34
2:45:26.720,0.275,-0.355
2:45:26.724,0.27,-0.355
2:45:26.728,0.265,-0.355
2:45:26.732,0.265,-0.345
2:45:26.736,0.275,-0.365
2:45:26.740,0.28,-0.34
2:45:26.744,0.26,-0.35
2:45:26.748,0.27,-0.345
2:45:26.752,0.265,-0.33
2:45:26.756,0.265,-0.36
2:45:26.760,0.24,-0.355
2:45:26.764,0.255,-0.355
2:45:26.768,0.24,-0.355
2:45:26.772,0.225,-0.35
2:45:26.776,0.25,-0.34
2:45:26.780,0.225,-0.34
2:45:26.784,0.23,-0.32
2:45:26.788,0.24,-0.34
2:45:26.792,0.23,-0.32
2:45:26.796,0.22,-0.325
2:45:26.800,0.235,-0.32
2:45:26.804,0.22,-0.29
2:45:26.808,0.195,-0.29
2:45:26.812,0.21,-0.28
2:45:26.816,0.21,-0.25
2:45:26.820,0.2,-0.23
2:45:26.824,0.19,-0.205
2:45:26.828,0.205,-0.215
2:45:26.832,0.2,-0.185
2:45:26.836,0.215,-0.16
2:45:26.840,0.195,-0.16
2:45:26.844,0.185,-0.13
2:45:26.848,0.155,-0.125
2:45:26.852,0.175,-0.115
2:45:26.856,0.17,-0.11
2:45:26.860,0.175,-0.11
2:45:26.864,0.185,-0.12
2:45:26.868,0.16,-0.13
2:45:26.872,0.165,-0.125
2:45:26.876,0.175,-0.115
2:45:26.880,0.165,-0.105
2:45:26.884,0.2,-0.11
2:45:26.888,0.19,-0.11
2:45:26.892,0.175,-0.135
2:45:26.896,0.185,-0.14
2:45:26.900,0.19,-0.155
2:45:26.904,0.215,-0.145
2:45:26.908,0.19,-0.13
2:45:26.912,0.2,-0.16
2:45:26.916,0.19,-0.155
2:45:26.920,0.205,-0.15
2:45:26.924,0.195,-0.18
2:45:26.928,0.195,-0.165
2:45:26.932,0.22,-0.15
2:45:26.936,0.21,-0.16
2:45:26.940,0.215,-0.18
2:45:26.944,0.21,-0.195
2:45:26.948,0.23,-0.19
2:45:26.952,0.22,-0.19
2:45:26.956,0.22,-0.195
2:45:26.960,0.23,-0.215
2:45:26.964,0.23,-0.22
2:45:26.968,0.235,-0.195
2:45:26.972,0.24,-0.22
2:45:26.976,0.235,-0.21
2:45:26.980,0.26,-0.21
2:45:26.984,0.25,-0.195
2:45:26.988,0.25,-0.205
2:45:26.992,0.23,-0.21
2:45:26.996,0.245,-0.205
2:45:27.000,0.25,-0.2
2:45:27.004,0.245,-0.19
2:45:27.008,0.255,-0.18
2:45:27.012,0.24,-0.18
2:45:27.016,0.24,-0.19
2:45:27.020,0.24,-0.195
2:45:27.024,0.245,-0.185
2:45:27.028,0.225,-0.185
2:45:27.032,0.25,-0.205
2:45:27.036,0.24,-0.205
2:45:27.040,0.27,-0.215
2:45:27.044,0.265,-0.195
2:45:27.048,0.23,-0.18
2:45:27.052,0.24,-0.18
2:45:27.056,0.245,-0.19
2:45:27.060,0.235,-0.19
2:45:27.064,0.245,-0.16
2:45:27.068,0.225,-0.18
2:45:27.072,0.25,-0.18
2:45:27.076,0.25,-0.175
2:45:27.080,0.235,-0.17
2:45:27.084,0.225,-0.165
2:45:27.088,0.225,-0.175
2:45:27.092,0.23,-0.175
2:45:27.096,0.24,-0.18
2:45:27.100,0.24,-0.175
2:45:27.104,0.23,-0.16
2:45:27.108,0.24,-0.175
2:45:27.112,0.245,-0.16
2:45:27.116,0.235,-0.155
2:45:27.120,0.24,-0.16
2:45:27.124,0.235,-0.165
2:45:27.128,0.245,-0.165
2:45:27.132,0.25,-0.175
2:45:27.136,0.24,-0.18
2:45:27.140,0.22,-0.16
2:45:27.144,0.24,-0.155
2:45:27.148,0.225,-0.17
2:45:27.152,0.245,-0.17
2:45:27.156,0.235,-0.15
2:45:27.160,0.225,-0.125
2:45:27.164,0.225,-0.1
2:45:27.168,0.225,-0.03
2:45:27.172,0.235,0.005
2:45:27.176,0.22,0.045
2:45:27.180,0.215,0.035
2:45:27.184,0.26,0.045
2:45:27.188,0.27,0.055
2:45:27.192,0.3,0.04
2:45:27.196,0.295,0.065
2:45:27.200,0.32,0.055
2:45:27.204,0.355,0.055
2:45:27.208,0.35,0.015
2:45:27.212,0.355,0.03
2:45:27.216,0.34,0.03
2:45:27.220,0.3,0.005
2:45:27.224,0.29,0.0
2:45:27.228,0.24,-0.01
2:45:27.232,0.235,-0.07
2:45:27.236,0.195,-0.12
2:45:27.240,0.155,-0.115
2:45:27.244,0.145,-0.135
2:45:27.248,0.16,-0.12
2:45:27.252,0.14,-0.095
2:45:27.256,0.13,-0.08
2:45:27.260,0.125,-0.06
2:45:27.264,0.13,-0.055
2:45:27.268,0.135,-0.06
2:45:27.272,0.16,-0.08
2:45:27.276,0.15,-0.085
2:45:27.280,0.185,-0.095
2:45:27.284,0.185,-0.08
2:45:27.288,0.18,-0.135
2:45:27.292,0.18,-0.145
2:45:27.296,0.2,-0.145
2:45:27.300,0.2,-0.145
2:45:27.304,0.225,-0.16
2:45:27.308,0.245,-0.16
2:45:27.312,0.26,-0.13
2:45:27.316,0.255,-0.135
2:45:27.320,0.27,-0.135
2:45:27.324,0.265,-0.135
2:45:27.328,0.25,-0.155
2:45:27.332,0.255,-0.155
2:45:27.336,0.235,-0.13
2:45:27.340,0.25,-0.155
2:45:27.344,0.25,-0.12
2:45:27.348,0.25,-0.115
2:45:27.352,0.245,-0.085
2:45:27.356,0.24,-0.07
2:45:27.360,0.25,-0.025
2:45:27.364,0.255,0.02
2:45:27.368,0.225,0.07
2:45:27.372,0.255,0.2
2:45:27.376,0.265,0.49
2:45:27.380,0.265,0.835
2:45:27.384,0.29,1.125
2:45:27.388,0.31,1.37
2:45:27.392,0.29,1.55
2:45:27.396,0.265,1.635
2:45:27.400,0.245,1.57
2:45:27.404,0.215,1.27
2:45:27.408,0.125,0.8
2:45:27.412,-0.045,0.28
2:45:27.416,-0.35,0.025
2:45:27.420,-0.68,0.115
2:45:27.424,-0.95,0.23
2:45:27.428,-1.165,0.09
2:45:27.432,-1.245,-0.17
2:45:27.436,-1.145,-0.44
2:45:27.440,-0.89,-0.58
2:45:27.444,-0.495,-0.655
2:45:27.448,-0.17,-0.64
2:45:27.452,0.02,-0.56
2:45:27.456,0.065,-0.42
2:45:27.460,0.07,-0.32
2:45:27.464,0.065,-0.28
2:45:27.468,0.075,-0.275
2:45:27.472,0.09,-0.275
2:45:27.476,0.13,-0.265
2:45:27.480,0.185,-0.275
2:45:27.484,0.23,-0.26
2:45:27.488,0.28,-0.255
2:45:27.492,0.305,-0.24
2:45:27.496,0.325,-0.245
2:45:27.500,0.345,-0.245
2:45:27.504,0.325,-0.235
2:45:27.508,0.325,-0.225
2:45:27.512,0.345,-0.235
2:45:27.516,0.335,-0.24
2:45:27.520,0.35,-0.25
2:45:27.524,0.345,-0.22
2:45:27.528,0.365,-0.23
2:45:27.532,0.345,-0.215
2:45:27.536,0.355,-0.225
2:45:27.540,0.375,-0.215
2:45:27.544,0.37,-0.23
2:45:27.548,0.35,-0.22
2:45:27.552,0.36,-0.225
2:45:27.556,0.375,-0.21
2:45:27.560,0.37,-0.235
2:45:27.564,0.36,-0.2
2:45:27.568,0.355,-0.2
2:45:27.572,0.375,-0.205
2:45:27.576,0.375,-0.205
2:45:27.580,0.35,-0.205
2:45:27.584,0.35,-0.205
2:45:27.588,0.36,-0.205
2:45:27.592,0.355,-0.185
2:45:27.596,0.365,-0.205
2:45:27.600,0.34,-0.195
2:45:27.604,0.34,-0.19
2:45:27.608,0.335,-0.18
2:45:27.612,0.35,-0.16
2:45:27.616,0.34,-0.175
2:45:27.620,0.315,-0.16
2:45:27.624,0.34,-0.17
2:45:27.628,0.315,-0.18
2:45:27.632,0.31,-0.155
2:45:27.636,0.32,-0.165
2:45:27.640,0.325,-0.14
2:45:27.644,0.295,-0.125
2:45:27.648,0.335,-0.135
2:45:27.652,0.3,-0.125
2:45:27.656,0.295,-0.105
2:45:27.660,0.3,-0.095
2:45:27.664,0.29,-0.115
2:45:27.668,0.325,-0.13
2:45:27.672,0.29,-0.08
2:45:27.676,0.28,-0.065
2:45:27.680,0.285,-0.07
2:45:27.684,0.28,-0.045
2:45:27.688,0.28,-0.02
2:45:27.692,0.27,-0.015
2:45:27.696,0.265,-0.01
2:45:27.700,0.26,0.025
2:45:27.704,0.245,0.01
2:45:27.708,0.265,0.01
2:45:27.712,0.265,0.015
2:45:27.716,0.27,0.02
2:45:27.720,0.25,0.035
2:45:27.724,0.24,0.005
2:45:27.728,0.265,0.005
2:45:27.732,0.255,0.015
2:45:27.736,0.275,0.02
2:45:27.740,0.24,-0.005
2:45:27.744,0.23,-0.005
2:45:27.748,0.255,0.005
2:45:27.752,0.255,-0.03
2:45:27.756,0.255,-0.03
2:45:27.760,0.265,-0.045
2:45:27.764,0.235,-0.055
2:45:27.768,0.24,-0.07
2:45:27.772,0.25,-0.07
2:45:27.776,0.26,-0.06
2:45:27.780,0.26,-0.06
2:45:27.784,0.25,-0.085
2:45:27.788,0.265,-0.095
2:45:27.792,0.245,-0.135
2:45:27.796,0.26,-0.11
2:45:27.800,0.255,-0.095
2:45:27.804,0.255,-0.095
2:45:27.808,0.255,-0.125
2:45:27.812,0.26,-0.12
2:45:27.816,0.265,-0.125
2:45:27.820,0.26,-0.125
2:45:27.824,0.25,-0.13
2:45:27.828,0.245,-0.155
2:45:27.832,0.25,-0.15
2:45:27.836,0.245,-0.135
2:45:27.840,0.255,-0.145
2:45:27.844,0.27,-0.13
2:45:27.848,0.27,-0.135
2:45:27.852,0.27,-0.15
2:45:27.856,0.26,-0.16
2:45:27.860,0.295,-0.16
2:45:27.864,0.255,-0.135
2:45:27.868,0.26,-0.12
2:45:27.872,0.265,-0.155
2:45:27.876,0.265,-0.155
2:45:27.880,0.255,-0.145
2:45:27.884,0.25,-0.125
2:45:27.888,0.28,-0.145
2:45:27.892,0.285,-0.16
2:45:27.896,0.26,-0.155
2:45:27.900,0.26,-0.165
2:45:27.904,0.275,-0.18
2:45:27.908,0.28,-0.165
2:45:27.912,0.27,-0.14
2:45:27.916,0.27,-0.135
2:45:27.920,0.265,-0.125
2:45:27.924,0.265,-0.14
2:45:27.928,0.26,-0.14
2:45:27.932,0.235,-0.15
2:45:27.936,0.25,-0.155
2:45:27.940,0.25,-0.155
2:45:27.944,0.22,-0.165
2:45:27.948,0.235,-0.165
2:45:27.952,0.26,-0.16
2:45:27.956,0.255,-0.175
2:45:27.960,0.235,-0.145
2:45:27.964,0.23,-0.15
2:45:27.968,0.225,-0.17
2:45:27.972,0.235,-0.17
2:45:27.976,0.245,-0.16
2:45:27.980,0.24,-0.15
2:45:27.984,0.225,-0.14
2:45:27.988,0.24,-0.15
2:45:27.992,0.235,-0.145
2:45:27.996,0.23,-0.155
2:45:28.000,0.225,-0.16
2:45:28.004,0.23,-0.16
2:45:28.008,0.255,-0.18
2:45:28.012,0.235,-0.18
2:45:28.016,0.23,-0.155
2:45:28.020,0.225,-0.135
2:45:28.024,0.22,-0.105
2:45:28.028,0.235,-0.075
2:45:28.032,0.235,-0.035
2:45:28.036,0.245,0.01
2:45:28.040,0.255,0.015
2:45:28.044,0.265,0.015
2:45:28.048,0.28,0.0
2:45:28.052,0.31,0.005
2:45:28.056,0.335,0.025
2:45:28.060,0.35,0.03
2:45:28.064,0.345,-0.01
2:45:28.068,0.355,-0.01
2:45:28.072,0.365,0.0
2:45:28.076,0.345,-0.005
2:45:28.080,0.335,0.01
2:45:28.084,0.315,0.0
2:45:28.088,0.295,-0.025
2:45:28.092,0.255,-0.1
2:45:28.096,0.245,-0.125
2:45:28.100,0.23,-0.155
2:45:28.104,0.21,-0.14
2:45:28.108,0.22,-0.135
2:45:28.112,0.2,-0.145
2:45:28.116,0.155,-0.135
2:45:28.120,0.155,-0.125
2:45:28.124,0.17,-0.105
2:45:28.128,0.175,-0.125
2:45:28.132,0.17,-0.135
2:45:28.136,0.185,-0.135
2:45:28.140,0.21,-0.155
2:45:28.144,0.195,-0.165
2:45:28.148,0.2,-0.21
2:45:28.152,0.19,-0.22
2:45:28.156,0.23,-0.22
2:45:28.160,0.22,-0.235
2:45:28.164,0.25,-0.225
2:45:28.168,0.25,-0.2
2:45:28.172,0.26,-0.205
2:45:28.176,0.275,-0.22
2:45:28.180,0.26,-0.19
2:45:28.184,0.245,-0.19
2:45:28.188,0.24,-0.2
2:45:28.192,0.24,-0.2
2:45:28.196,0.235,-0.215
2:45:28.200,0.24,-0.2
2:45:28.204,0.24,-0.205
2:45:28.208,0.235,-0.185
2:45:28.212,0.255,-0.175
2:45:28.216,0.255,-0.125
2:45:28.220,0.245,-0.08
2:45:28.224,0.235,-0.025
2:45:28.228,0.235,0.04
2:45:28.232,0.23,0.23
2:45:28.236,0.24,0.545
2:45:28.240,0.27,0.86
2:45:28.244,0.295,1.12
2:45:28.248,0.305,1.29
2:45:28.252,0.27,1.38
2:45:28.256,0.225,1.36
2:45:28.260,0.19,1.19
2:45:28.264,0.15,0.785
2:45:28.268,0.01,0.28
2:45:28.272,-0.245,-0.1
2:45:28.276,-0.58,-0.125
2:45:28.280,-0.87,0.0
2:45:28.284,-1.065,-0.035
2:45:28.288,-1.155,-0.255
2:45:28.292,-1.135,-0.495
2:45:28.296,-0.92,-0.65
2:45:28.300,-0.55,-0.71
2:45:28.304,-0.215,-0.69
2:45:28.308,-0.03,-0.595
2:45:28.312,0.035,-0.495
2:45:28.316,0.015,-0.39
2:45:28.320,0.055,-0.35
2:45:28.324,0.05,-0.34
2:45:28.328,0.07,-0.355
2:45:28.332,0.11,-0.355
2:45:28.336,0.15,-0.36
2:45:28.340,0.22,-0.375
2:45:28.344,0.255,-0.36
2:45:28.348,0.255,-0.36
2:45:28.352,0.28,-0.355
2:45:28.356,0.275,-0.355
2:45:28.360,0.29,-0.375
2:45:28.364,0.29,-0.37
2:45:28.368,0.29,-0.345
2:45:28.372,0.295,-0.37
2:45:28.376,0.3,-0.365
2:45:28.380,0.3,-0.365
2:45:28.384,0.3,-0.36
2:45:28.388,0.31,-0.36
2:45:28.392,0.32,-0.34
2:45:28.396,0.305,-0.33
2:45:28.400,0.29,-0.34
2:45:28.404,0.31,-0.36
2:45:28.408,0.31,-0.35
2:45:28.412,0.31,-0.345
2:45:28.416,0.285,-0.34
2:45:28.420,0.3,-0.35
2:45:28.424,0.295,-0.35
2:45:28.428,0.315,-0.35
2:45:28.432,0.305,-0.36
2:45:28.436,0.305,-0.36
2:45:28.440,0.285,-0.36
2:45:28.444,0.265,-0.355
2:45:28.448,0.28,-0.335
2:45:28.452,0.275,-0.355
2:45:28.456,0.275,-0.345
2:45:28.460,0.255,-0.35
2:45:28.464,0.265,-0.34
2:45:28.468,0.285,-0.355
2:45:28.472,0.285,-0.35
2:45:28.476,0.255,-0.35
2:45:28.480,0.245,-0.34
2:45:28.484,0.26,-0.375
2:45:28.488,0.27,-0.36
2:45:28.492,0.265,-0.35
2:45:28.496,0.255,-0.32
2:45:28.500,0.265,-0.33
2:45:28.504,0.245,-0.32
2:45:28.508,0.235,-0.32
2:45:28.512,0.215,-0.31
2:45:28.516,0.23,-0.31
2:45:28.520,0.22,-0.28
2:45:28.524,0.205,-0.28
2:45:28.528,0.2,-0.23
2:45:28.532,0.215,-0.21
2:45:28.536,0.215,-0.22
2:45:28.540,0.195,-0.2
2:45:28.544,0.2,-0.19
2:45:28.548,0.18,-0.185
2:45:28.552,0.19,-0.155
2:45:28.556,0.2,-0.135
2:45:28.560,0.165,-0.155
2:45:28.564,0.17,-0.155
2:45:28.568,0.19,-0.145
2:45:28.572,0.165,-0.15
2:45:28.576,0.15,-0.16
2:45:28.580,0.18,-0.17
2:45:28.584,0.15,-0.15
2:45:28.588,0.175,-0.15
2:45:28.592,0.17,-0.145
2:45:28.596,0.18,-0.16
2:45:28.600,0.18,-0.16
2:45:28.604,0.16,-0.155
2:45:28.608,0.16,-0.185
2:45:28.612,0.195,-0.21
2:45:28.616,0.19,-0.205
2:45:28.620,0.18,-0.235
2:45:28.624,0.185,-0.22
2:45:28.628,0.205,-0.205
2:45:28.632,0.21,-0.22
2:45:28.636,0.19,-0.22
2:45:28.640,0.185,-0.22
2:45:28.644,0.195,-0.24
2:45:28.648,0.18,-0.235
2:45:28.652,0.19,-0.25
2:45:28.656,0.2,-0.255
2:45:28.660,0.185,-0.255
2:45:28.664,0.18,-0.25
2:45:28.668,0.19,-0.265
2:45:28.672,0.16,-0.27
2:45:28.676,0.195,-0.265
2:45:28.680,0.185,-0.27
2:45:28.684,0.2,-0.27
2:45:28.688,0.2,-0.28
2:45:28.692,0.175,-0.275
2:45:28.696,0.21,-0.285
2:45:28.700,0.19,-0.26
2:45:28.704,0.2,-0.23
2:45:28.708,0.19,-0.24
2:45:28.712,0.215,-0.245
2:45:28.716,0.2,-0.26
2:45:28.720,0.19,-0.235
2:45:28.724,0.205,-0.275
2:45:28.728,0.22,-0.265
2:45:28.732,0.205,-0.275
2:45:28.736,0.195,-0.265
2:45:28.740,0.22,-0.255
2:45:28.744,0.205,-0.255
2:45:28.748,0.205,-0.24
2:45:28.752,0.2,-0.235
2:45:28.756,0.195,-0.26
2:45:28.760,0.19,-0.26
2:45:28.764,0.17,-0.265
2:45:28.768,0.195,-0.265
2:45:28.772,0.19,-0.26
2:45:28.776,0.19,-0.28
2:45:28.780,0.185,-0.28
2:45:28.784,0.175,-0.27
2:45:28.788,0.185,-0.275
2:45:28.792,0.185,-0.285
2:45:28.796,0.18,-0.28
2:45:28.800,0.18,-0.26
2:45:28.804,0.17,-0.27
2:45:28.808,0.18,-0.29
2:45:28.812,0.165,-0.285
2:45:28.816,0.185,-0.275
2:45:28.820,0.16,-0.26
2:45:28.824,0.175,-0.28
2:45:28.828,0.175,-0.27
2:45:28.832,0.155,-0.265
2:45:28.836,0.155,-0.295
2:45:28.840,0.17,-0.255
2:45:28.844,0.18,-0.27
2:45:28.848,0.165,-0.28
2:45:28.852,0.17,-0.27
2:45:28.856,0.185,-0.24
2:45:28.860,0.165,-0.225
2:45:28.864,0.165,-0.175
2:45:28.868,0.155,-0.12
2:45:28.872,0.155,-0.105
2:45:28.876,0.18,-0.1
2:45:28.880,0.18,-0.085
2:45:28.884,0.21,-0.095
2:45:28.888,0.225,-0.085
2:45:28.892,0.255,-0.07
2:45:28.896,0.28,-0.075
2:45:28.900,0.275,-0.085
2:45:28.904,0.27,-0.11
2:45:28.908,0.29,-0.105
2:45:28.912,0.265,-0.125
2:45:28.916,0.26,-0.12
2:45:28.920,0.245,-0.11
2:45:28.924,0.225,-0.15
2:45:28.928,0.205,-0.21
2:45:28.932,0.165,-0.23
2:45:28.936,0.145,-0.25
2:45:28.940,0.11,-0.24
2:45:28.944,0.115,-0.255
2:45:28.948,0.1,-0.21
2:45:28.952,0.09,-0.215
2:45:28.956,0.085,-0.19
2:45:28.960,0.085,-0.22
2:45:28.964,0.08,-0.235
2:45:28.968,0.085,-0.25
2:45:28.972,0.09,-0.23
2:45:28.976,0.12,-0.25
2:45:28.980,0.135,-0.29
2:45:28.984,0.145,-0.33
2:45:28.988,0.15,-0.315
2:45:28.992,0.155,-0.31
2:45:28.996,0.165,-0.33
2:45:29.000,0.19,-0.325
2:45:29.004,0.19,-0.315
2:45:29.008,0.19,-0.315
2:45:29.012,0.185,-0.315
2:45:29.016,0.205,-0.32
2:45:29.020,0.17,-0.295
2:45:29.024,0.17,-0.305
2:45:29.028,0.175,-0.295
2:45:29.032,0.195,-0.31
2:45:29.036,0.195,-0.305
2:45:29.040,0.185,-0.275
2:45:29.044,0.17,-0.26
2:45:29.048,0.18,-0.2
2:45:29.052,0.175,-0.155
2:45:29.056,0.175,-0.095
2:45:29.060,0.17,-0.01
2:45:29.064,0.19,0.25
2:45:29.068,0.205,0.575
2:45:29.072,0.23,0.955
2:45:29.076,0.255,1.23
2:45:29.080,0.27,1.465
2:45:29.084,0.245,1.585
2:45:29.088,0.215,1.61
2:45:29.092,0.195,1.39
2:45:29.096,0.125,0.905
2:45:29.100,-0.015,0.335
2:45:29.104,-0.26,-0.06
2:45:29.108,-0.55,-0.14
2:45:29.112,-0.825,-0.2
2:45:29.116,-0.975,-0.345
2:45:29.120,-1.07,-0.56
2:45:29.124,-0.975,-0.695
2:45:29.128,-0.76,-0.785
2:45:29.132,-0.415,-0.825
2:45:29.136,-0.17,-0.765
2:45:29.140,-0.06,-0.655
2:45:29.144,-0.02,-0.555
2:45:29.148,-0.015,-0.49
2:45:29.152,0.04,-0.49
2:45:29.156,0.045,-0.465
2:45:29.160,0.085,-0.49
2:45:29.164,0.115,-0.475
2:45:29.168,0.18,-0.46
2:45:29.172,0.23,-0.45
2:45:29.176,0.255,-0.43
2:45:29.180,0.25,-0.455
2:45:29.184,0.27,-0.455
2:45:29.188,0.26,-0.46
2:45:29.192,0.27,-0.45
2:45:29.196,0.275,-0.46
2:45:29.200,0.26,-0.46
2:45:29.204,0.275,-0.46
2:45:29.208,0.285,-0.45
2:45:29.212,0.275,-0.465
2:45:29.216,0.275,-0.45
2:45:29.220,0.27,-0.45
2:45:29.224,0.29,-0.455
2:45:29.228,0.28,-0.445
2:45:29.232,0.275,-0.43
2:45:29.236,0.29,-0.455
2:45:29.240,0.29,-0.465
2:45:29.244,0.295,-0.46
2:45:29.248,0.275,-0.44
2:45:29.252,0.265,-0.435
2:45:29.256,0.27,-0.415
2:45:29.260,0.29,-0.44
2:45:29.264,0.265,-0.43
2:45:29.268,0.27,-0.435
2:45:29.272,0.265,-0.46
2:45:29.276,0.265,-0.435
2:45:29.280,0.265,-0.45
2:45:29.284,0.27,-0.45
2:45:29.288,0.265,-0.45
2:45:29.292,0.28,-0.45
2:45:29.296,0.275,-0.46
2:45:29.300,0.28,-0.44
2:45:29.304,0.265,-0.45
2:45:29.308,0.265,-0.455
2:45:29.312,0.27,-0.44
2:45:29.316,0.25,-0.45
2:45:29.320,0.25,-0.45
2:45:29.324,0.255,-0.45
2:45:29.328,0.27,-0.44
2:45:29.332,0.245,-0.445
2:45:29.336,0.24,-0.395
2:45:29.340,0.24,-0.395
2:45:29.344,0.245,-0.385
2:45:29.348,0.225,-0.365
2:45:29.352,0.215,-0.35
2:45:29.356,0.22,-0.335
2:45:29.360,0.22,-0.31
2:45:29.364,0.2,-0.295
2:45:29.368,0.2,-0.29
2:45:29.372,0.21,-0.275
2:45:29.376,0.23,-0.26
2:45:29.380,0.205,-0.22
2:45:29.384,0.21,-0.24
2:45:29.388,0.2,-0.23
2:45:29.392,0.2,-0.22
2:45:29.396,0.195,-0.215
2:45:29.400,0.175,-0.215
2:45:29.404,0.185,-0.19
2:45:29.408,0.19,-0.19
2:45:29.412,0.195,-0.2
2:45:29.416,0.18,-0.185
2:45:29.420,0.18,-0.195
2:45:29.424,0.205,-0.205
2:45:29.428,0.165,-0.195
2:45:29.432,0.18,-0.21
2:45:29.436,0.2,-0.22
2:45:29.440,0.195,-0.225
2:45:29.444,0.185,-0.22
2:45:29.448,0.195,-0.25
2:45:29.452,0.215,-0.245
2:45:29.456,0.215,-0.24
2:45:29.460,0.22,-0.24
2:45:29.464,0.21,-0.25
2:45:29.468,0.21,-0.27
2:45:29.472,0.21,-0.27
2:45:29.476,0.215,-0.295
2:45:29.480,0.225,-0.305
2:45:29.484,0.21,-0.28
2:45:29.488,0.215,-0.275
2:45:29.492,0.205,-0.28
2:45:29.496,0.225,-0.285
2:45:29.500,0.205,-0.295
2:45:29.504,0.21,-0.285
2:45:29.508,0.225,-0.285
2:45:29.512,0.24,-0.3
2:45:29.516,0.225,-0.28
2:45:29.520,0.21,-0.31
2:45:29.524,0.23,-0.295
2:45:29.528,0.215,-0.3
2:45:29.532,0.215,-0.285
2:45:29.536,0.23,-0.295
2:45:29.540,0.22,-0.295
2:45:29.544,0.215,-0.3
2:45:29.548,0.22,-0.305
2:45:29.552,0.215,-0.285
2:45:29.556,0.225,-0.295
2:45:29.560,0.22,-0.29
2:45:29.564,0.215,-0.295
2:45:29.568,0.225,-0.3
2:45:29.572,0.19,-0.295
2:45:29.576,0.205,-0.29
2:45:29.580,0.2,-0.295
2:45:29.584,0.2,-0.295
2:45:29.588,0.185,-0.3
2:45:29.592,0.19,-0.305
2:45:29.596,0.185,-0.295
2:45:29.600,0.21,-0.3
2:45:29.604,0.19,-0.315
2:45:29.608,0.23,-0.32
2:45:29.612,0.2,-0.29
2:45:29.616,0.175,-0.325
2:45:29.620,0.185,-0.31
2:45:29.624,0.195,-0.32
2:45:29.628,0.17,-0.315
2:45:29.632,0.165,-0.31
2:45:29.636,0.18,-0.31
2:45:29.640,0.175,-0.31
2:45:29.644,0.175,-0.31
2:45:29.648,0.17,-0.31
2:45:29.652,0.175,-0.32
2:45:29.656,0.175,-0.29
2:45:29.660,0.175,-0.305
2:45:29.664,0.17,-0.31
2:45:29.668,0.17,-0.33
2:45:29.672,0.185,-0.3
2:45:29.676,0.175,-0.285
2:45:29.680,0.17,-0.295
2:45:29.684,0.17,-0.295
2:45:29.688,0.17,-0.295
2:45:29.692,0.18,-0.29
2:45:29.696,0.17,-0.295
2:45:29.700,0.19,-0.305
2:45:29.704,0.17,-0.27
2:45:29.708,0.17,-0.235
2:45:29.712,0.19,-0.195
2:45:29.716,0.18,-0.15
2:45:29.720,0.175,-0.115
2:45:29.724,0.19,-0.1
2:45:29.728,0.225,-0.105
2:45:29.732,0.23,-0.11
2:45:29.736,0.245,-0.09
2:45:29.740,0.285,-0.115
2:45:29.744,0.295,-0.11
2:45:29.748,0.31,-0.13
2:45:29.752,0.29,-0.125
2:45:29.756,0.31,-0.12
2:45:29.760,0.285,-0.115
2:45:29.764,0.255,-0.135
2:45:29.768,0.23,-0.185
2:45:29.772,0.205,-0.235
2:45:29.776,0.18,-0.28
2:45:29.780,0.16,-0.3
2:45:29.784,0.135,-0.285
2:45:29.788,0.13,-0.3
2:45:29.792,0.115,-0.265
2:45:29.796,0.105,-0.255
2:45:29.800,0.085,-0.23
2:45:29.804,0.095,-0.23
2:45:29.808,0.105,-0.245
2:45:29.812,0.11,-0.25
2:45:29.816,0.12,-0.255
2:45:29.820,0.13,-0.265
2:45:29.824,0.14,-0.265
2:45:29.828,0.135,-0.31
2:45:29.832,0.125,-0.34
2:45:29.836,0.135,-0.36
2:45:29.840,0.175,-0.34
2:45:29.844,0.2,-0.345
2:45:29.848,0.205,-0.34
2:45:29.852,0.21,-0.33
2:45:29.856,0.195,-0.365
2:45:29.860,0.195,-0.345
2:45:29.864,0.2,-0.33
2:45:29.868,0.2,-0.345
2:45:29.872,0.18,-0.33
2:45:29.876,0.185,-0.31
2:45:29.880,0.19,-0.31
2:45:29.884,0.195,-0.315
2:45:29.888,0.185,-0.305
2:45:29.892,0.2,-0.28
2:45:29.896,0.195,-0.245
2:45:29.900,0.19,-0.185
2:45:29.904,0.19,-0.135
2:45:29.908,0.195,-0.02
2:45:29.912,0.2,0.195
2:45:29.916,0.225,0.545
2:45:29.920,0.225,0.885
2:45:29.924,0.275,1.165
2:45:29.928,0.265,1.39
2:45:29.932,0.26,1.54
2:45:29.936,0.195,1.585
2:45:29.940,0.21,1.4
2:45:29.944,0.16,1.01
2:45:29.948,0.005,0.43
2:45:29.952,-0.205,-0.055
2:45:29.956,-0.5,-0.21
2:45:29.960,-0.8,-0.13
2:45:29.964,-1.025,-0.18
2:45:29.968,-1.15,-0.405
2:45:29.972,-1.165,-0.62
2:45:29.976,-0.985,-0.745
2:45:29.980,-0.655,-0.81
2:45:29.984,-0.31,-0.84
2:45:29.988,-0.08,-0.77
2:45:29.992,0.0,-0.645
2:45:29.996,0.0,-0.565
2:45:30.000,0.0,-0.515
2:45:30.004,0.015,-0.48
2:45:30.008,0.03,-0.47
2:45:30.012,0.055,-0.49
2:45:30.016,0.12,-0.48
2:45:30.020,0.165,-0.46
2:45:30.024,0.225,-0.46
2:45:30.028,0.255,-0.465
2:45:30.032,0.265,-0.485
2:45:30.036,0.265,-0.475
2:45:30.040,0.275,-0.465
2:45:30.044,0.285,-0.455
2:45:30.048,0.285,-0.465
2:45:30.052,0.3,-0.44
2:45:30.056,0.31,-0.47
2:45:30.060,0.295,-0.45
2:45:30.064,0.295,-0.44
2:45:30.068,0.3,-0.445
2:45:30.072,0.315,-0.43
2:45:30.076,0.305,-0.42
2:45:30.080,0.3,-0.415
2:45:30.084,0.315,-0.41
2:45:30.088,0.31,-0.4
2:45:30.092,0.315,-0.405
2:45:30.096,0.29,-0.41
2:45:30.100,0.305,-0.425
2:45:30.104,0.34,-0.415
2:45:30.108,0.31,-0.415
2:45:30.112,0.32,-0.42
2:45:30.116,0.305,-0.405
2:45:30.120,0.305,-0.425
2:45:30.124,0.315,-0.41
2:45:30.128,0.31,-0.425
2:45:30.132,0.31,-0.4
2:45:30.136,0.31,-0.41
2:45:30.140,0.305,-0.42
2:45:30.144,0.285,-0.39
2:45:30.148,0.295,-0.405
2:45:30.152,0.285,-0.405
2:45:30.156,0.295,-0.395
2:45:30.160,0.295,-0.39
2:45:30.164,0.275,-0.41
2:45:30.168,0.26,-0.395
2:45:30.172,0.275,-0.39
2:45:30.176,0.285,-0.39
2:45:30.180,0.285,-0.385
2:45:30.184,0.28,-0.35
2:45:30.188,0.27,-0.36
2:45:30.192,0.265,-0.355
2:45:30.196,0.275,-0.34
2:45:30.200,0.255,-0.325
2:45:30.204,0.255,-0.315
2:45:30.208,0.24,-0.295
2:45:30.212,0.255,-0.275
2:45:30.216,0.22,-0.24
2:45:30.220,0.24,-0.24
2:45:30.224,0.23,-0.235
2:45:30.228,0.225,-0.205
2:45:30.232,0.22,-0.185
2:45:30.236,0.215,-0.185
2:45:30.240,0.19,-0.18
2:45:30.244,0.215,-0.16
2:45:30.248,0.19,-0.16
2:45:30.252,0.195,-0.165
2:45:30.256,0.19,-0.15
2:45:30.260,0.155,-0.15
2:45:30.264,0.18,-0.14
2:45:30.268,0.17,-0.14
2:45:30.272,0.185,-0.15
2:45:30.276,0.19,-0.16
2:45:30.280,0.185,-0.16
2:45:30.284,0.2,-0.155
2:45:30.288,0.21,-0.16
2:45:30.292,0.205,-0.155
2:45:30.296,0.215,-0.175
2:45:30.300,0.205,-0.185
2:45:30.304,0.2,-0.18
2:45:30.308,0.205,-0.18
2:45:30.312,0.215,-0.18
2:45:30.316,0.215,-0.185
2:45:30.320,0.24,-0.21
2:45:30.324,0.235,-0.2
2:45:30.328,0.225,-0.21
2:45:30.332,0.21,-0.225
2:45:30.336,0.24,-0.23
2:45:30.340,0.245,-0.225
2:45:30.344,0.235,-0.24
2:45:30.348,0.21,-0.22
2:45:30.352,0.24,-0.245
2:45:30.356,0.25,-0.235
2:45:30.360,0.23,-0.24
2:45:30.364,0.235,-0.24
2:45:30.368,0.225,-0.235
2:45:30.372,0.245,-0.25
2:45:30.376,0.23,-0.23
2:45:30.380,0.23,-0.245
2:45:30.384,0.23,-0.24
2:45:30.388,0.24,-0.245
2:45:30.392,0.245,-0.23
2:45:30.396,0.23,-0.24
2:45:30.400,0.235,-0.245
2:45:30.404,0.24,-0.225
2:45:30.408,0.25,-0.23
2:45:30.412,0.25,-0.235
2:45:30.416,0.245,-0.23
2:45:30.420,0.235,-0.225
2:45:30.424,0.26,-0.215
2:45:30.428,0.23,-0.24
2:45:30.432,0.24,-0.225
2:45:30.436,0.23,-0.2
2:45:30.440,0.23,-0.215
2:45:30.444,0.23,-0.235
2:45:30.448,0.225,-0.22
2:45:30.452,0.23,-0.235
2:45:30.456,0.255,-0.22
2:45:30.460,0.235,-0.23
2:45:30.464,0.215,-0.225
2:45:30.468,0.21,-0.22
2:45:30.472,0.225,-0.21
2:45:30.476,0.22,-0.23
2:45:30.480,0.195,-0.245
2:45:30.484,0.215,-0.23
2:45:30.488,0.215,-0.225
2:45:30.492,0.22,-0.22
2:45:30.496,0.215,-0.22
2:45:30.500,0.2,-0.23
2:45:30.504,0.22,-0.23
2:45:30.508,0.205,-0.235
2:45:30.512,0.215,-0.24
2:45:30.516,0.21,-0.23
2:45:30.520,0.21,-0.235
2:45:30.524,0.22,-0.225
2:45:30.528,0.2,-0.235
2:45:30.532,0.2,-0.245
2:45:30.536,0.185,-0.24
2:45:30.540,0.205,-0.23
2:45:30.544,0.175,-0.255
2:45:30.548,0.19,-0.23
2:45:30.552,0.2,-0.215
2:45:30.556,0.2,-0.2
2:45:30.560,0.19,-0.16
2:45:30.564,0.205,-0.12
2:45:30.568,0.195,-0.09
2:45:30.572,0.185,-0.04
2:45:30.576,0.185,-0.025
2:45:30.580,0.23,-0.02
2:45:30.584,0.23,-0.025
2:45:30.588,0.265,-0.025
2:45:30.592,0.275,-0.03
2:45:30.596,0.29,-0.015
2:45:30.600,0.305,-0.045
2:45:30.604,0.32,-0.045
2:45:30.608,0.315,-0.045
2:45:30.612,0.305,-0.04
2:45:30.616,0.275,-0.06
2:45:30.620,0.245,-0.07
2:45:30.624,0.21,-0.125
2:45:30.628,0.185,-0.175
2:45:30.632,0.17,-0.215
2:45:30.636,0.115,-0.22
2:45:30.640,0.11,-0.215
2:45:30.644,0.1,-0.2
2:45:30.648,0.08,-0.175
2:45:30.652,0.07,-0.18
2:45:30.656,0.085,-0.165
2:45:30.660,0.09,-0.165
2:45:30.664,0.1,-0.175
2:45:30.668,0.095,-0.175
2:45:30.672,0.12,-0.185
2:45:30.676,0.135,-0.195
2:45:30.680,0.11,-0.185
2:45:30.684,0.13,-0.23
2:45:30.688,0.135,-0.26
2:45:30.692,0.16,-0.265
2:45:30.696,0.15,-0.285
2:45:30.700,0.195,-0.275
2:45:30.704,0.205,-0.28
2:45:30.708,0.195,-0.255
2:45:30.712,0.195,-0.25
2:45:30.716,0.2,-0.24
2:45:30.720,0.205,-0.265
2:45:30.724,0.195,-0.25
2:45:30.728,0.205,-0.25
2:45:30.732,0.205,-0.235
2:45:30.736,0.175,-0.235
2:45:30.740,0.215,-0.235
2:45:30.744,0.2,-0.225
2:45:30.748,0.2,-0.185
2:45:30.752,0.19,-0.16
2:45:30.756,0.18,-0.115
2:45:30.760,0.185,-0.075
2:45:30.764,0.19,0.085
2:45:30.768,0.2,0.345
2:45:30.772,0.185,0.735
2:45:30.776,0.235,1.05
2:45:30.780,0.275,1.285
2:45:30.784,0.255,1.485
2:45:30.788,0.23,1.595
2:45:30.792,0.21,1.495
2:45:30.796,0.2,1.215
2:45:30.800,0.11,0.73
2:45:30.804,-0.1,0.23
2:45:30.808,-0.405,-0.05
2:45:30.812,-0.745,0.015
2:45:30.816,-1.075,0.095
2:45:30.820,-1.265,-0.045
2:45:30.824,-1.315,-0.34
2:45:30.828,-1.25,-0.605
2:45:30.832,-0.995,-0.765
2:45:30.836,-0.605,-0.805
2:45:30.840,-0.23,-0.78
2:45:30.844,-0.05,-0.675
2:45:30.848,0.0,-0.565
2:45:30.852,0.015,-0.465
2:45:30.856,0.02,-0.43
2:45:30.860,0.02,-0.43
2:45:30.864,0.03,-0.43
2:45:30.868,0.08,-0.39
2:45:30.872,0.16,-0.395
2:45:30.876,0.21,-0.41
2:45:30.880,0.27,-0.39
2:45:30.884,0.28,-0.39
2:45:30.888,0.295,-0.38
2:45:30.892,0.295,-0.375
2:45:30.896,0.29,-0.395
2:45:30.900,0.275,-0.41
2:45:30.904,0.275,-0.39
2:45:30.908,0.305,-0.395
2:45:30.912,0.315,-0.39
2:45:30.916,0.305,-0.37
2:45:30.920,0.3,-0.35
2:45:30.924,0.325,-0.345
2:45:30.928,0.33,-0.36
2:45:30.932,0.315,-0.35
2:45:30.936,0.32,-0.34
2:45:30.940,0.325,-0.355
2:45:30.944,0.33,-0.35
2:45:30.948,0.335,-0.35
2:45:30.952,0.345,-0.34
2:45:30.956,0.35,-0.345
2:45:30.960,0.335,-0.32
2:45:30.964,0.31,-0.355
2:45:30.968,0.33,-0.33
2:45:30.972,0.34,-0.355
2:45:30.976,0.325,-0.33
2:45:30.980,0.31,-0.335
2:45:30.984,0.315,-0.33
2:45:30.988,0.305,-0.335
2:45:30.992,0.305,-0.32
2:45:30.996,0.325,-0.32
2:45:31.000,0.33,-0.32
2:45:31.004,0.305,-0.29
2:45:31.008,0.28,-0.295
2:45:31.012,0.32,-0.305
2:45:31.016,0.31,-0.29
2:45:31.020,0.315,-0.3
2:45:31.024,0.295,-0.285
2:45:31.028,0.285,-0.27
2:45:31.032,0.28,-0.25
2:45:31.036,0.28,-0.265
2:45:31.040,0.295,-0.255
2:45:31.044,0.295,-0.25
2:45:31.048,0.295,-0.225
2:45:31.052,0.265,-0.22
2:45:31.056,0.26,-0.195
2:45:31.060,0.275,-0.18
2:45:31.064,0.265,-0.155
2:45:31.068,0.27,-0.17
2:45:31.072,0.275,-0.15
2:45:31.076,0.27,-0.125
2:45:31.080,0.25,-0.105
2:45:31.084,0.265,-0.11
2:45:31.088,0.245,-0.09
2:45:31.092,0.24,-0.085
2:45:31.096,0.245,-0.075
2:45:31.100,0.25,-0.085
2:45:31.104,0.24,-0.08
2:45:31.108,0.255,-0.08
2:45:31.112,0.23,-0.09
2:45:31.116,0.24,-0.095
2:45:31.120,0.22,-0.09
2:45:31.124,0.235,-0.12
2:45:31.128,0.225,-0.12
2:45:31.132,0.23,-0.125
2:45:31.136,0.23,-0.13
2:45:31.140,0.225,-0.135
2:45:31.144,0.245,-0.145
2:45:31.148,0.22,-0.16
2:45:31.152,0.245,-0.16
2:45:31.156,0.24,-0.175
2:45:31.160,0.235,-0.155
2:45:31.164,0.205,-0.175
2:45:31.168,0.215,-0.175
2:45:31.172,0.23,-0.185
2:45:31.176,0.215,-0.2
2:45:31.180,0.24,-0.235
2:45:31.184,0.225,-0.23
2:45:31.188,0.23,-0.225
2:45:31.192,0.22,-0.22
2:45:31.196,0.225,-0.23
2:45:31.200,0.21,-0.235
2:45:31.204,0.23,-0.23
2:45:31.208,0.205,-0.245
2:45:31.212,0.235,-0.23
2:45:31.216,0.215,-0.25
2:45:31.220,0.225,-0.24
2:45:31.224,0.245,-0.25
2:45:31.228,0.225,-0.215
2:45:31.232,0.215,-0.22
2:45:31.236,0.225,-0.24
2:45:31.240,0.21,-0.25
2:45:31.244,0.225,-0.26
2:45:31.248,0.24,-0.255
2:45:31.252,0.23,-0.255
2:45:31.256,0.255,-0.23
2:45:31.260,0.23,-0.225
2:45:31.264,0.235,-0.24
2:45:31.268,0.235,-0.23
2:45:31.272,0.23,-0.245
2:45:31.276,0.23,-0.22
2:45:31.280,0.22,-0.24
2:45:31.284,0.225,-0.225
2:45:31.288,0.21,-0.22
2:45:31.292,0.225,-0.21
2:45:31.296,0.21,-0.22
2:45:31.300,0.215,-0.215
2:45:31.304,0.23,-0.24
2:45:31.308,0.195,-0.215
2:45:31.312,0.2,-0.245
2:45:31.316,0.21,-0.245
2:45:31.320,0.21,-0.225
2:45:31.324,0.195,-0.22
2:45:31.328,0.21,-0.23
2:45:31.332,0.215,-0.235
2:45:31.336,0.21,-0.215
2:45:31.340,0.195,-0.26
2:45:31.344,0.175,-0.255
2:45:31.348,0.21,-0.235
2:45:31.352,0.2,-0.255
2:45:31.356,0.195,-0.24
2:45:31.360,0.175,-0.215
2:45:31.364,0.165,-0.225
2:45:31.368,0.175,-0.23
2:45:31.372,0.16,-0.23
2:45:31.376,0.18,-0.24
2:45:31.380,0.16,-0.245
2:45:31.384,0.17,-0.26
2:45:31.388,0.175,-0.24
2:45:31.392,0.165,-0.22
2:45:31.396,0.17,-0.225
2:45:31.400,0.15,-0.215
2:45:31.404,0.15,-0.23
2:45:31.408,0.17,-0.225
2:45:31.412,0.17,-0.19
2:45:31.416,0.165,-0.175
2:45:31.420,0.18,-0.12
2:45:31.424,0.165,-0.085
2:45:31.428,0.19,-0.065
2:45:31.432,0.17,-0.06
2:45:31.436,0.195,-0.055
2:45:31.440,0.23,-0.015
2:45:31.444,0.24,-0.03
2:45:31.448,0.27,-0.04
2:45:31.452,0.275,-0.055
2:45:31.456,0.275,-0.04
2:45:31.460,0.265,-0.04
2:45:31.464,0.26,-0.05
2:45:31.468,0.27,-0.055
2:45:31.472,0.24,-0.065
2:45:31.476,0.24,-0.1
2:45:31.480,0.205,-0.155
2:45:31.484,0.185,-0.2
2:45:31.488,0.14,-0.215
2:45:31.492,0.13,-0.215
2:45:31.496,0.105,-0.215
2:45:31.500,0.095,-0.185
2:45:31.504,0.08,-0.19
2:45:31.508,0.085,-0.195
2:45:31.512,0.09,-0.195
2:45:31.516,0.095,-0.215
2:45:31.520,0.09,-0.215
2:45:31.524,0.085,-0.225
2:45:31.528,0.09,-0.22
2:45:31.532,0.13,-0.22
2:45:31.536,0.11,-0.25
2:45:31.540,0.105,-0.27
2:45:31.544,0.11,-0.295
2:45:31.548,0.135,-0.305
2:45:31.552,0.15,-0.305
2:45:31.556,0.175,-0.31
2:45:31.560,0.18,-0.295
2:45:31.564,0.17,-0.3
2:45:31.568,0.16,-0.28
2:45:31.572,0.145,-0.3
2:45:31.576,0.15,-0.28
2:45:31.580,0.135,-0.29
2:45:31.584,0.15,-0.27
2:45:31.588,0.145,-0.29
2:45:31.592,0.15,-0.265
2:45:31.596,0.15,-0.27
2:45:31.600,0.135,-0.25
2:45:31.604,0.15,-0.205
2:45:31.608,0.15,-0.135
2:45:31.612,0.135,-0.11
2:45:31.616,0.13,-0.055
2:45:31.620,0.12,0.12
2:45:31.624,0.155,0.43
2:45:31.628,0.17,0.765
2:45:31.632,0.19,1.055
2:45:31.636,0.23,1.245
2:45:31.640,0.175,1.37
2:45:31.644,0.155,1.4
2:45:31.648,0.14,1.265
2:45:31.652,0.115,0.95
2:45:31.656,-0.035,0.42
2:45:31.660,-0.26,-0.05
2:45:31.664,-0.6,-0.18
2:45:31.668,-0.93,-0.095
2:45:31.672,-1.135,-0.105
2:45:31.676,-1.25,-0.315
2:45:31.680,-1.22,-0.55
2:45:31.684,-1.09,-0.715
2:45:31.688,-0.74,-0.805
2:45:31.692,-0.38,-0.785
2:45:31.696,-0.16,-0.745
2:45:31.700,-0.09,-0.615
2:45:31.704,-0.06,-0.525
2:45:31.708,-0.025,-0.465
2:45:31.712,-0.045,-0.465
2:45:31.716,-0.015,-0.465
2:45:31.720,0.015,-0.48
2:45:31.724,0.065,-0.485
2:45:31.728,0.125,-0.485
2:45:31.732,0.15,-0.47
2:45:31.736,0.18,-0.465
2:45:31.740,0.21,-0.425
2:45:31.744,0.21,-0.445
2:45:31.748,0.195,-0.445
2:45:31.752,0.215,-0.46
2:45:31.756,0.21,-0.45
2:45:31.760,0.2,-0.47
2:45:31.764,0.225,-0.45
2:45:31.768,0.2,-0.455
2:45:31.772,0.215,-0.46
2:45:31.776,0.22,-0.43
2:45:31.780,0.22,-0.45
2:45:31.784,0.21,-0.43
2:45:31.788,0.2,-0.435
2:45:31.792,0.225,-0.44
2:45:31.796,0.235,-0.44
2:45:31.800,0.23,-0.42
2:45:31.804,0.22,-0.41
2:45:31.808,0.22,-0.42
2:45:31.812,0.225,-0.42
2:45:31.816,0.225,-0.435
2:45:31.820,0.22,-0.415
2:45:31.824,0.22,-0.43
2:45:31.828,0.22,-0.45
2:45:31.832,0.19,-0.445
2:45:31.836,0.21,-0.435
2:45:31.840,0.205,-0.45
2:45:31.844,0.195,-0.435
2:45:31.848,0.175,-0.435
2:45:31.852,0.185,-0.43
2:45:31.856,0.18,-0.425
2:45:31.860,0.195,-0.415
2:45:31.864,0.185,-0.42
2:45:31.868,0.185,-0.44
2:45:31.872,0.17,-0.415
2:45:31.876,0.185,-0.43
2:45:31.880,0.17,-0.435
2:45:31.884,0.195,-0.435
2:45:31.888,0.175,-0.435
2:45:31.892,0.175,-0.445
2:45:31.896,0.175,-0.42
2:45:31.900,0.16,-0.42
2:45:31.904,0.17,-0.39
2:45:31.908,0.165,-0.38
2:45:31.912,0.16,-0.38
2:45:31.916,0.165,-0.33
2:45:31.920,0.14,-0.31
2:45:31.924,0.145,-0.31
2:45:31.928,0.14,-0.295
2:45:31.932,0.12,-0.26
2:45:31.936,0.115,-0.245
2:45:31.940,0.125,-0.25
2:45:31.944,0.12,-0.245
2:45:31.948,0.11,-0.245
2:45:31.952,0.115,-0.24
2:45:31.956,0.1,-0.225
2:45:31.960,0.105,-0.22
2:45:31.964,0.1,-0.21
2:45:31.968,0.11,-0.2
2:45:31.972,0.1,-0.2
2:45:31.976,0.11,-0.205
2:45:31.980,0.11,-0.2
2:45:31.984,0.135,-0.22
2:45:31.988,0.12,-0.225
2:45:31.992,0.125,-0.21
2:45:31.996,0.12,-0.22
2:45:32.000,0.12,-0.225
2:45:32.004,0.135,-0.23
2:45:32.008,0.14,-0.215
2:45:32.012,0.125,-0.24
2:45:32.016,0.125,-0.25
2:45:32.020,0.14,-0.25
2:45:32.024,0.135,-0.26
2:45:32.028,0.135,-0.265
2:45:32.032,0.155,-0.28
2:45:32.036,0.145,-0.275
2:45:32.040,0.15,-0.295
2:45:32.044,0.15,-0.29
2:45:32.048,0.17,-0.3
2:45:32.052,0.16,-0.3
2:45:32.056,0.17,-0.295
2:45:32.060,0.165,-0.305
2:45:32.064,0.155,-0.315
2:45:32.068,0.175,-0.29
2:45:32.072,0.16,-0.29
2:45:32.076,0.175,-0.3
2:45:32.080,0.155,-0.295
2:45:32.084,0.165,-0.3
2:45:32.088,0.18,-0.305
2:45:32.092,0.16,-0.295
2:45:32.096,0.16,-0.29
2:45:32.100,0.18,-0.3
2:45:32.104,0.19,-0.285
2:45:32.108,0.19,-0.29
2:45:32.112,0.165,-0.285
2:45:32.116,0.165,-0.28
2:45:32.120,0.19,-0.295
2:45:32.124,0.175,-0.3
2:45:32.128,0.175,-0.3
2:45:32.132,0.17,-0.285
2:45:32.136,0.175,-0.285
2:45:32.140,0.18,-0.28
2:45:32.144,0.155,-0.255
2:45:32.148,0.15,-0.29
2:45:32.152,0.15,-0.28
2:45:32.156,0.155,-0.28
2:45:32.160,0.17,-0.27
2:45:32.164,0.165,-0.275
2:45:32.168,0.175,-0.275
2:45:32.172,0.17,-0.27
2:45:32.176,0.16,-0.27
2:45:32.180,0.15,-0.27
2:45:32.184,0.145,-0.285
2:45:32.188,0.145,-0.285
2:45:32.192,0.135,-0.29
2:45:32.196,0.145,-0.265
2:45:32.200,0.155,-0.27
2:45:32.204,0.17,-0.255
2:45:32.208,0.12,-0.28
2:45:32.212,0.12,-0.29
2:45:32.216,0.13,-0.29
2:45:32.220,0.12,-0.275
2:45:32.224,0.135,-0.285
2:45:32.228,0.115,-0.285
2:45:32.232,0.13,-0.27
2:45:32.236,0.145,-0.295
2:45:32.240,0.15,-0.3
2:45:32.244,0.145,-0.305
2:45:32.248,0.12,-0.28
2:45:32.252,0.155,-0.275
2:45:32.256,0.14,-0.26
2:45:32.260,0.135,-0.275
2:45:32.264,0.145,-0.27
2:45:32.268,0.14,-0.25
2:45:32.272,0.15,-0.235
2:45:32.276,0.145,-0.225
2:45:32.280,0.125,-0.145
2:45:32.284,0.135,-0.125
2:45:32.288,0.125,-0.105
2:45:32.292,0.15,-0.075
2:45:32.296,0.175,-0.085
2:45:32.300,0.19,-0.07
2:45:32.304,0.23,-0.06
2:45:32.308,0.23,-0.06
2:45:32.312,0.24,-0.1
2:45:32.316,0.26,-0.11
2:45:32.320,0.26,-0.1
2:45:32.324,0.255,-0.105
2:45:32.328,0.245,-0.095
2:45:32.332,0.25,-0.095
2:45:32.336,0.215,-0.1
2:45:32.340,0.2,-0.155
2:45:32.344,0.18,-0.22
2:45:32.348,0.14,-0.25
2:45:32.352,0.095,-0.225
2:45:32.356,0.1,-0.235
2:45:32.360,0.095,-0.24
2:45:32.364,0.1,-0.22
2:45:32.368,0.065,-0.205
2:45:32.372,0.06,-0.21
2:45:32.376,0.075,-0.225
2:45:32.380,0.075,-0.22
2:45:32.384,0.06,-0.22
2:45:32.388,0.08,-0.22
2:45:32.392,0.09,-0.25
2:45:32.396,0.12,-0.27
2:45:32.400,0.1,-0.305
2:45:32.404,0.095,-0.305
2:45:32.408,0.115,-0.315
2:45:32.412,0.16,-0.305
2:45:32.416,0.175,-0.31
2:45:32.420,0.175,-0.305
2:45:32.424,0.155,-0.305
2:45:32.428,0.13,-0.275
2:45:32.432,0.14,-0.305
2:45:32.436,0.155,-0.29
2:45:32.440,0.15,-0.29
2:45:32.444,0.135,-0.285
2:45:32.448,0.15,-0.275
2:45:32.452,0.145,-0.275
2:45:32.456,0.145,-0.275
2:45:32.460,0.12,-0.27
2:45:32.464,0.145,-0.23
2:45:32.468,0.145,-0.195
2:45:32.472,0.155,-0.155
2:45:32.476,0.145,-0.1
2:45:32.480,0.135,0.005
2:45:32.484,0.15,0.275
2:45:32.488,0.165,0.63
2:45:32.492,0.18,0.97
2:45:32.496,0.225,1.24
2:45:32.500,0.225,1.455
2:45:32.504,0.17,1.58
2:45:32.508,0.18,1.565
2:45:32.512,0.145,1.345
2:45:32.516,0.065,0.93
2:45:32.520,-0.09,0.375
2:45:32.524,-0.36,-0.055
2:45:32.528,-0.685,-0.15
2:45:32.532,-0.965,-0.105
2:45:32.536,-1.14,-0.195
2:45:32.540,-1.185,-0.43
2:45:32.544,-1.17,-0.65
2:45:32.548,-0.92,-0.745
2:45:32.552,-0.56,-0.79
2:45:32.556,-0.265,-0.775
2:45:32.560,-0.115,-0.69
2:45:32.564,-0.065,-0.575
2:45:32.568,-0.05,-0.495
2:45:32.572,-0.015,-0.46
2:45:32.576,-0.015,-0.44
2:45:32.580,-0.02,-0.44
2:45:32.584,0.03,-0.465
2:45:32.588,0.09,-0.46
2:45:32.592,0.135,-0.46
2:45:32.596,0.165,-0.45
2:45:32.600,0.2,-0.44
2:45:32.604,0.21,-0.415
2:45:32.608,0.21,-0.45
2:45:32.612,0.2,-0.44
2:45:32.616,0.19,-0.44
2:45:32.620,0.23,-0.425
2:45:32.624,0.205,-0.44
2:45:32.628,0.205,-0.455
2:45:32.632,0.22,-0.445
2:45:32.636,0.23,-0.435
2:45:32.640,0.23,-0.42
2:45:32.644,0.215,-0.44
2:45:32.648,0.23,-0.425
2:45:32.652,0.24,-0.435
2:45:32.656,0.24,-0.425
2:45:32.660,0.235,-0.43
2:45:32.664,0.235,-0.435
2:45:32.668,0.225,-0.435
2:45:32.672,0.235,-0.435
2:45:32.676,0.225,-0.425
2:45:32.680,0.23,-0.44
2:45:32.684,0.23,-0.43
2:45:32.688,0.23,-0.425
2:45:32.692,0.21,-0.43
2:45:32.696,0.22,-0.44
2:45:32.700,0.22,-0.43
2:45:32.704,0.23,-0.44
2:45:32.708,0.22,-0.44
2:45:32.712,0.235,-0.445
2:45:32.716,0.215,-0.445
2:45:32.720,0.22,-0.42
2:45:32.724,0.205,-0.435
2:45:32.728,0.19,-0.43
2:45:32.732,0.225,-0.435
2:45:32.736,0.19,-0.435
2:45:32.740,0.2,-0.44
2:45:32.744,0.185,-0.42
2:45:32.748,0.18,-0.415
2:45:32.752,0.19,-0.4
2:45:32.756,0.185,-0.39
2:45:32.760,0.185,-0.38
2:45:32.764,0.165,-0.38
2:45:32.768,0.16,-0.365
2:45:32.772,0.175,-0.34
2:45:32.776,0.17,-0.31
2:45:32.780,0.155,-0.31
2:45:32.784,0.175,-0.275
2:45:32.788,0.15,-0.25
2:45:32.792,0.15,-0.25
2:45:32.796,0.14,-0.23
2:45:32.800,0.145,-0.23
2:45:32.804,0.145,-0.21
2:45:32.808,0.135,-0.2
2:45:32.812,0.135,-0.195
2:45:32.816,0.14,-0.175
2:45:32.820,0.14,-0.19
2:45:32.824,0.125,-0.165
2:45:32.828,0.12,-0.18
2:45:32.832,0.14,-0.185
2:45:32.836,0.12,-0.19
2:45:32.840,0.14,-0.195
2:45:32.844,0.135,-0.18
2:45:32.848,0.125,-0.2
2:45:32.852,0.12,-0.19
2:45:32.856,0.135,-0.19
2:45:32.860,0.145,-0.205
2:45:32.864,0.165,-0.205
2:45:32.868,0.17,-0.22
2:45:32.872,0.15,-0.215
2:45:32.876,0.16,-0.225
2:45:32.880,0.17,-0.245
2:45:32.884,0.18,-0.255
2:45:32.888,0.175,-0.27
2:45:32.892,0.17,-0.27
2:45:32.896,0.16,-0.27
2:45:32.900,0.18,-0.25
2:45:32.904,0.175,-0.255
2:45:32.908,0.17,-0.285
2:45:32.912,0.175,-0.275
2:45:32.916,0.19,-0.29
2:45:32.920,0.195,-0.285
2:45:32.924,0.2,-0.28
2:45:32.928,0.18,-0.275
2:45:32.932,0.2,-0.275
2:45:32.936,0.195,-0.28
2:45:32.940,0.195,-0.275
2:45:32.944,0.19,-0.275
2:45:32.948,0.21,-0.28
2:45:32.952,0.215,-0.27
2:45:32.956,0.195,-0.265
2:45:32.960,0.205,-0.29
2:45:32.964,0.22,-0.29
2:45:32.968,0.2,-0.28
2:45:32.972,0.2,-0.27
2:45:32.976,0.215,-0.29
2:45:32.980,0.22,-0.305
2:45:32.984,0.2,-0.29
2:45:32.988,0.205,-0.27
2:45:32.992,0.195,-0.275
2:45:32.996,0.19,-0.275
2:45:33.000,0.19,-0.26
2:45:33.004,0.16,-0.275
2:45:33.008,0.175,-0.265
2:45:33.012,0.19,-0.275
2:45:33.016,0.2,-0.255
2:45:33.020,0.175,-0.26
2:45:33.024,0.165,-0.27
2:45:33.028,0.175,-0.29
2:45:33.032,0.18,-0.27
2:45:33.036,0.17,-0.28
2:45:33.040,0.18,-0.25
2:45:33.044,0.18,-0.27
2:45:33.048,0.175,-0.265
2:45:33.052,0.175,-0.275
2:45:33.056,0.17,-0.285
2:45:33.060,0.175,-0.28
2:45:33.064,0.17,-0.26
2:45:33.068,0.175,-0.275
2:45:33.072,0.175,-0.245
2:45:33.076,0.195,-0.24
2:45:33.080,0.175,-0.27
2:45:33.084,0.17,-0.245
2:45:33.088,0.17,-0.25
2:45:33.092,0.175,-0.24
2:45:33.096,0.17,-0.24
2:45:33.100,0.185,-0.235
2:45:33.104,0.16,-0.26
2:45:33.108,0.18,-0.27
2:45:33.112,0.2,-0.255
2:45:33.116,0.18,-0.26
2:45:33.120,0.19,-0.255
2:45:33.124,0.195,-0.23
2:45:33.128,0.175,-0.23
2:45:33.132,0.18,-0.25
2:45:33.136,0.175,-0.22
2:45:33.140,0.18,-0.185
2:45:33.144,0.185,-0.155
2:45:33.148,0.19,-0.12
2:45:33.152,0.18,-0.06
2:45:33.156,0.2,-0.065
2:45:33.160,0.195,-0.04
2:45:33.164,0.21,-0.04
2:45:33.168,0.235,-0.035
2:45:33.172,0.275,-0.03
2:45:33.176,0.285,-0.01
2:45:33.180,0.32,-0.04
2:45:33.184,0.3,-0.04
2:45:33.188,0.315,-0.035
2:45:33.192,0.315,-0.04
2:45:33.196,0.29,-0.065
2:45:33.200,0.28,-0.065
2:45:33.204,0.26,-0.1
2:45:33.208,0.235,-0.165
2:45:33.212,0.185,-0.21
2:45:33.216,0.14,-0.22
2:45:33.220,0.12,-0.21
2:45:33.224,0.115,-0.2
2:45:33.228,0.12,-0.155
2:45:33.232,0.095,-0.16
2:45:33.236,0.09,-0.145
2:45:33.240,0.09,-0.15
2:45:33.244,0.12,-0.16
2:45:33.248,0.115,-0.165
2:45:33.252,0.135,-0.18
2:45:33.256,0.145,-0.18
2:45:33.260,0.155,-0.21
2:45:33.264,0.14,-0.23
2:45:33.268,0.155,-0.245
2:45:33.272,0.16,-0.255
2:45:33.276,0.185,-0.255
2:45:33.280,0.21,-0.27
2:45:33.284,0.215,-0.25
2:45:33.288,0.21,-0.255
2:45:33.292,0.22,-0.25
2:45:33.296,0.19,-0.24
2:45:33.300,0.19,-0.25
2:45:33.304,0.2,-0.24
2:45:33.308,0.2,-0.245
2:45:33.312,0.2,-0.225
2:45:33.316,0.185,-0.23
2:45:33.320,0.2,-0.22
2:45:33.324,0.205,-0.21
2:45:33.328,0.21,-0.185
2:45:33.332,0.19,-0.12
2:45:33.336,0.21,-0.08
2:45:33.340,0.205,-0.015
2:45:33.344,0.195,0.145
2:45:33.348,0.215,0.47
2:45:33.352,0.22,0.81
2:45:33.356,0.27,1.13
2:45:33.360,0.265,1.335
2:45:33.364,0.23,1.495
2:45:33.368,0.235,1.53
2:45:33.372,0.22,1.375
2:45:33.376,0.145,0.98
2:45:33.380,0.015,0.42
2:45:33.384,-0.235,0.015
2:45:33.388,-0.585,-0.03
2:45:33.392,-0.935,0.09
2:45:33.396,-1.215,0.025
2:45:33.400,-1.335,-0.24
2:45:33.404,-1.34,-0.53
2:45:33.408,-1.095,-0.695
2:45:33.412,-0.72,-0.765
2:45:33.416,-0.32,-0.745
2:45:33.420,-0.07,-0.68
2:45:33.424,0.005,-0.56
2:45:33.428,0.0,-0.45
2:45:33.432,0.015,-0.395
2:45:33.436,0.015,-0.365
2:45:33.440,0.02,-0.375
2:45:33.444,0.075,-0.355
2:45:33.448,0.135,-0.37
2:45:33.452,0.2,-0.375
2:45:33.456,0.27,-0.355
2:45:33.460,0.285,-0.365
2:45:33.464,0.285,-0.345
2:45:33.468,0.28,-0.35
2:45:33.472,0.29,-0.34
2:45:33.476,0.295,-0.335
2:45:33.480,0.285,-0.35
2:45:33.484,0.3,-0.325
2:45:33.488,0.295,-0.345
2:45:33.492,0.315,-0.355
2:45:33.496,0.31,-0.33
2:45:33.500,0.33,-0.32
2:45:33.504,0.325,-0.33
2:45:33.508,0.32,-0.32
2:45:33.512,0.3,-0.32
2:45:33.516,0.33,-0.31
2:45:33.520,0.325,-0.33
2:45:33.524,0.33,-0.31
2:45:33.528,0.34,-0.295
2:45:33.532,0.33,-0.315
2:45:33.536,0.31,-0.305
2:45:33.540,0.31,-0.295
2:45:33.544,0.32,-0.285
2:45:33.548,0.335,-0.29
2:45:33.552,0.32,-0.275
2:45:33.556,0.295,-0.29
2:45:33.560,0.315,-0.28
2:45:33.564,0.31,-0.295
2:45:33.568,0.31,-0.3
2:45:33.572,0.3,-0.29
2:45:33.576,0.3,-0.295
2:45:33.580,0.3,-0.31
2:45:33.584,0.28,-0.29
2:45:33.588,0.285,-0.295
2:45:33.592,0.285,-0.265
2:45:33.596,0.285,-0.27
2:45:33.600,0.27,-0.255
2:45:33.604,0.28,-0.25
2:45:33.608,0.275,-0.25
2:45:33.612,0.265,-0.24
2:45:33.616,0.255,-0.24
2:45:33.620,0.25,-0.225
2:45:33.624,0.26,-0.22
2:45:33.628,0.25,-0.205
2:45:33.632,0.23,-0.18
2:45:33.636,0.22,-0.155
2:45:33.640,0.225,-0.135
2:45:33.644,0.215,-0.125
2:45:33.648,0.225,-0.11
2:45:33.652,0.225,-0.09
2:45:33.656,0.245,-0.105
2:45:33.660,0.21,-0.075
2:45:33.664,0.195,-0.085
2:45:33.668,0.19,-0.08
2:45:33.672,0.205,-0.055
2:45:33.676,0.195,-0.055
2:45:33.680,0.185,-0.07
2:45:33.684,0.17,-0.08
2:45:33.688,0.18,-0.065
2:45:33.692,0.155,-0.085
2:45:33.696,0.175,-0.09
2:45:33.700,0.18,-0.11
2:45:33.704,0.17,-0.085
2:45:33.708,0.19,-0.095
2:45:33.712,0.165,-0.1
2:45:33.716,0.175,-0.12
2:45:33.720,0.185,-0.155
2:45:33.724,0.18,-0.14
2:45:33.728,0.185,-0.15
2:45:33.732,0.18,-0.14
2:45:33.736,0.195,-0.175
2:45:33.740,0.2,-0.155
2:45:33.744,0.19,-0.18
2:45:33.748,0.19,-0.19
2:45:33.752,0.21,-0.21
2:45:33.756,0.21,-0.195
2:45:33.760,0.195,-0.195
2:45:33.764,0.205,-0.21
2:45:33.768,0.22,-0.215
2:45:33.772,0.2,-0.23
2:45:33.776,0.215,-0.22
2:45:33.780,0.2,-0.22
2:45:33.784,0.205,-0.22
2:45:33.788,0.24,-0.235
2:45:33.792,0.22,-0.235
2:45:33.796,0.235,-0.23
2:45:33.800,0.215,-0.26
2:45:33.804,0.215,-0.21
2:45:33.808,0.235,-0.24
2:45:33.812,0.225,-0.245
2:45:33.816,0.235,-0.24
2:45:33.820,0.24,-0.23
2:45:33.824,0.225,-0.235
2:45:33.828,0.225,-0.23
2:45:33.832,0.22,-0.215
2:45:33.836,0.21,-0.225
2:45:33.840,0.235,-0.225
2:45:33.844,0.225,-0.235
2:45:33.848,0.225,-0.225
2:45:33.852,0.225,-0.225
2:45:33.856,0.21,-0.22
2:45:33.860,0.21,-0.235
2:45:33.864,0.2,-0.23
2:45:33.868,0.205,-0.23
2:45:33.872,0.2,-0.24
2:45:33.876,0.21,-0.21
2:45:33.880,0.19,-0.235
2:45:33.884,0.205,-0.225
2:45:33.888,0.21,-0.215
2:45:33.892,0.21,-0.22
2:45:33.896,0.205,-0.235
2:45:33.900,0.2,-0.235
2:45:33.904,0.185,-0.24
2:45:33.908,0.205,-0.24
2:45:33.912,0.205,-0.235
2:45:33.916,0.205,-0.25
2:45:33.920,0.2,-0.225
2:45:33.924,0.21,-0.235
2:45:33.928,0.205,-0.23
2:45:33.932,0.215,-0.225
2:45:33.936,0.2,-0.23
2:45:33.940,0.195,-0.24
2:45:33.944,0.17,-0.24
2:45:33.948,0.155,-0.235
2:45:33.952,0.17,-0.26
2:45:33.956,0.18,-0.225
2:45:33.960,0.185,-0.24
2:45:33.964,0.22,-0.225
2:45:33.968,0.21,-0.215
2:45:33.972,0.175,-0.24
2:45:33.976,0.185,-0.225
2:45:33.980,0.19,-0.26
2:45:33.984,0.2,-0.23
2:45:33.988,0.225,-0.235
2:45:33.992,0.195,-0.24
2:45:33.996,0.19,-0.235
2:45:34.000,0.175,-0.24
2:45:34.004,0.19,-0.24
2:45:34.008,0.2,-0.19
2:45:34.012,0.205,-0.15
2:45:34.016,0.18,-0.1
2:45:34.020,0.185,-0.065
2:45:34.024,0.2,-0.02
2:45:34.028,0.18,-0.03
2:45:34.032,0.21,-0.03
2:45:34.036,0.245,-0.02
2:45:34.040,0.255,-0.025
2:45:34.044,0.285,-0.01
2:45:34.048,0.28,-0.01
2:45:34.052,0.315,-0.035
2:45:34.056,0.33,-0.04
2:45:34.060,0.305,-0.05
2:45:34.064,0.315,-0.05
2:45:34.068,0.255,-0.07
2:45:34.072,0.25,-0.1
2:45:34.076,0.23,-0.12
2:45:34.080,0.185,-0.185
2:45:34.084,0.155,-0.225
2:45:34.088,0.145,-0.225
2:45:34.092,0.12,-0.225
2:45:34.096,0.105,-0.205
2:45:34.100,0.14,-0.17
2:45:34.104,0.11,-0.17
2:45:34.108,0.09,-0.165
2:45:34.112,0.105,-0.16
2:45:34.116,0.11,-0.155
2:45:34.120,0.13,-0.17
2:45:34.124,0.15,-0.175
2:45:34.128,0.15,-0.19
2:45:34.132,0.155,-0.22
2:45:34.136,0.175,-0.26
2:45:34.140,0.185,-0.255
2:45:34.144,0.185,-0.265
2:45:34.148,0.215,-0.265
2:45:34.152,0.235,-0.25
2:45:34.156,0.24,-0.225
2:45:34.160,0.24,-0.225
2:45:34.164,0.245,-0.215
2:45:34.168,0.24,-0.225
2:45:34.172,0.26,-0.21
2:45:34.176,0.215,-0.245
2:45:34.180,0.235,-0.235
2:45:34.184,0.235,-0.215
2:45:34.188,0.225,-0.225
2:45:34.192,0.24,-0.21
2:45:34.196,0.21,-0.21
2:45:34.200,0.23,-0.18
2:45:34.204,0.24,-0.135
2:45:34.208,0.225,-0.09
2:45:34.212,0.21,-0.05
2:45:34.216,0.23,0.035
2:45:34.220,0.255,0.245
2:45:34.224,0.25,0.585
2:45:34.228,0.25,0.91
2:45:34.232,0.32,1.165
2:45:34.236,0.3,1.315
2:45:34.240,0.265,1.425
2:45:34.244,0.23,1.395
2:45:34.248,0.22,1.185
2:45:34.252,0.145,0.76
2:45:34.256,-0.015,0.22
2:45:34.260,-0.31,-0.08
2:45:34.264,-0.67,-0.02
2:45:34.268,-0.98,0.155
2:45:34.272,-1.27,0.075
2:45:34.276,-1.355,-0.2
2:45:34.280,-1.325,-0.52
2:45:34.284,-1.07,-0.705
2:45:34.288,-0.645,-0.745
2:45:34.292,-0.24,-0.765
2:45:34.296,-0.015,-0.68
2:45:34.300,0.03,-0.575
2:45:34.304,0.04,-0.45
2:45:34.308,0.02,-0.39
2:45:34.312,0.03,-0.385
2:45:34.316,0.02,-0.36
2:45:34.320,0.08,-0.37
2:45:34.324,0.115,-0.35
2:45:34.328,0.2,-0.36
2:45:34.332,0.26,-0.38
2:45:34.336,0.29,-0.365
2:45:34.340,0.3,-0.365
2:45:34.344,0.31,-0.375
2:45:34.348,0.32,-0.36
2:45:34.352,0.31,-0.35
2:45:34.356,0.295,-0.32
2:45:34.360,0.29,-0.325
2:45:34.364,0.315,-0.305
2:45:34.368,0.315,-0.33
2:45:34.372,0.34,-0.35
2:45:34.376,0.325,-0.31
2:45:34.380,0.31,-0.33
2:45:34.384,0.34,-0.32
2:45:34.388,0.335,-0.32
2:45:34.392,0.33,-0.285
2:45:34.396,0.345,-0.305
2:45:34.400,0.315,-0.3
2:45:34.404,0.335,-0.305
2:45:34.408,0.34,-0.3
2:45:34.412,0.35,-0.295
2:45:34.416,0.325,-0.3
2:45:34.420,0.335,-0.275
2:45:34.424,0.34,-0.305
2:45:34.428,0.325,-0.305
2:45:34.432,0.345,-0.28
2:45:34.436,0.34,-0.285
2:45:34.440,0.345,-0.29
2:45:34.444,0.335,-0.255
2:45:34.448,0.305,-0.26
2:45:34.452,0.315,-0.265
2:45:34.456,0.315,-0.285
2:45:34.460,0.3,-0.26
2:45:34.464,0.305,-0.27
2:45:34.468,0.315,-0.27
2:45:34.472,0.31,-0.255
2:45:34.476,0.32,-0.225
2:45:34.480,0.295,-0.24
2:45:34.484,0.295,-0.22
2:45:34.488,0.28,-0.23
2:45:34.492,0.28,-0.23
2:45:34.496,0.29,-0.225
2:45:34.500,0.265,-0.21
2:45:34.504,0.285,-0.21
2:45:34.508,0.29,-0.195
2:45:34.512,0.3,-0.17
2:45:34.516,0.275,-0.155
2:45:34.520,0.295,-0.16
2:45:34.524,0.285,-0.125
2:45:34.528,0.27,-0.12
2:45:34.532,0.245,-0.1
2:45:34.536,0.25,-0.125
2:45:34.540,0.235,-0.095
2:45:34.544,0.265,-0.085
2:45:34.548,0.245,-0.1
2:45:34.552,0.235,-0.08
2:45:34.556,0.235,-0.07
2:45:34.560,0.22,-0.05
2:45:34.564,0.225,-0.08
2:45:34.568,0.22,-0.08
2:45:34.572,0.23,-0.07
2:45:34.576,0.2,-0.08
2:45:34.580,0.2,-0.09
2:45:34.584,0.215,-0.09
2:45:34.588,0.205,-0.085
2:45:34.592,0.205,-0.08
2:45:34.596,0.22,-0.105
2:45:34.600,0.205,-0.135
2:45:34.604,0.205,-0.15
2:45:34.608,0.195,-0.17
2:45:34.612,0.215,-0.18
2:45:34.616,0.215,-0.2
2:45:34.620,0.185,-0.205
2:45:34.624,0.2,-0.205
2:45:34.628,0.205,-0.215
2:45:34.632,0.16,-0.22
2:45:34.636,0.175,-0.22
2:45:34.640,0.2,-0.21
2:45:34.644,0.18,-0.23
2:45:34.648,0.18,-0.24
2:45:34.652,0.175,-0.245
2:45:34.656,0.19,-0.245
2:45:34.660,0.19,-0.27
2:45:34.664,0.195,-0.24
2:45:34.668,0.19,-0.245
2:45:34.672,0.19,-0.26
2:45:34.676,0.22,-0.26
2:45:34.680,0.2,-0.265
2:45:34.684,0.21,-0.28
2:45:34.688,0.185,-0.24
2:45:34.692,0.195,-0.24
2:45:34.696,0.19,-0.25
2:45:34.700,0.21,-0.245
2:45:34.704,0.195,-0.265
2:45:34.708,0.175,-0.275
2:45:34.712,0.2,-0.255
2:45:34.716,0.21,-0.24
2:45:34.720,0.195,-0.26
2:45:34.724,0.18,-0.26
2:45:34.728,0.175,-0.26
2:45:34.732,0.185,-0.27
2:45:34.736,0.2,-0.26
2:45:34.740,0.2,-0.265
2:45:34.744,0.205,-0.265
2:45:34.748,0.185,-0.265
2:45:34.752,0.18,-0.24
2:45:34.756,0.175,-0.245
2:45:34.760,0.18,-0.25
2:45:34.764,0.175,-0.26
2:45:34.768,0.155,-0.26
2:45:34.772,0.18,-0.285
2:45:34.776,0.19,-0.27
2:45:34.780,0.2,-0.285
2:45:34.784,0.185,-0.265
2:45:34.788,0.185,-0.265
2:45:34.792,0.15,-0.285
2:45:34.796,0.16,-0.27
2:45:34.800,0.175,-0.265
2:45:34.804,0.17,-0.29
2:45:34.808,0.18,-0.27
2:45:34.812,0.16,-0.28
2:45:34.816,0.17,-0.27
2:45:34.820,0.18,-0.27
2:45:34.824,0.17,-0.27
2:45:34.828,0.185,-0.28
2:45:34.832,0.16,-0.285
2:45:34.836,0.19,-0.265
2:45:34.840,0.17,-0.28
2:45:34.844,0.16,-0.27
2:45:34.848,0.165,-0.275
2:45:34.852,0.165,-0.26
2:45:34.856,0.15,-0.285
2:45:34.860,0.17,-0.27
2:45:34.864,0.16,-0.275
2:45:34.868,0.155,-0.285
2:45:34.872,0.15,-0.315
2:45:34.876,0.145,-0.29
2:45:34.880,0.155,-0.295
2:45:34.884,0.16,-0.305
2:45:34.888,0.15,-0.325
2:45:34.892,0.14,-0.3
2:45:34.896,0.135,-0.245
2:45:34.900,0.15,-0.21
2:45:34.904,0.15,-0.145
2:45:34.908,0.165,-0.11
2:45:34.912,0.155,-0.125
2:45:34.916,0.15,-0.095
2:45:34.920,0.195,-0.09
2:45:34.924,0.22,-0.105
2:45:34.928,0.23,-0.1
2:45:34.932,0.235,-0.115
2:45:34.936,0.25,-0.12
2:45:34.940,0.255,-0.12
2:45:34.944,0.265,-0.11
2:45:34.948,0.265,-0.1
2:45:34.952,0.245,-0.12
2:45:34.956,0.24,-0.125
2:45:34.960,0.215,-0.135
2:45:34.964,0.205,-0.185
2:45:34.968,0.16,-0.235
2:45:34.972,0.15,-0.275
2:45:34.976,0.135,-0.285
2:45:34.980,0.095,-0.29
2:45:34.984,0.105,-0.275
2:45:34.988,0.06,-0.25
2:45:34.992,0.055,-0.24
2:45:34.996,0.065,-0.25
2:45:35.000,0.08,-0.265
2:45:35.004,0.05,-0.265
2:45:35.008,0.05,-0.28
2:45:35.012,0.065,-0.28
2:45:35.016,0.08,-0.3
2:45:35.020,0.09,-0.335
2:45:35.024,0.08,-0.34
2:45:35.028,0.09,-0.35
2:45:35.032,0.125,-0.385
2:45:35.036,0.15,-0.34
2:45:35.040,0.14,-0.345
2:45:35.044,0.17,-0.365
2:45:35.048,0.165,-0.365
2:45:35.052,0.16,-0.36
2:45:35.056,0.165,-0.36
2:45:35.060,0.155,-0.355
2:45:35.064,0.135,-0.355
2:45:35.068,0.15,-0.325
2:45:35.072,0.15,-0.31
2:45:35.076,0.17,-0.31
2:45:35.080,0.16,-0.335
2:45:35.084,0.145,-0.36
2:45:35.088,0.14,-0.315
2:45:35.092,0.12,-0.265
2:45:35.096,0.13,-0.21
2:45:35.100,0.15,-0.165
2:45:35.104,0.135,-0.15
2:45:35.108,0.13,-0.005
2:45:35.112,0.145,0.26
2:45:35.116,0.185,0.595
2:45:35.120,0.24,0.83
2:45:35.124,0.22,0.995
2:45:35.128,0.19,1.115
2:45:35.132,0.155,1.155
2:45:35.136,0.13,1.03
2:45:35.140,0.09,0.745
2:45:35.144,-0.05,0.235
2:45:35.148,-0.265,-0.15
2:45:35.152,-0.585,-0.255
2:45:35.156,-0.875,-0.135
2:45:35.160,-1.12,-0.12
2:45:35.164,-1.26,-0.3
2:45:35.168,-1.23,-0.58
2:45:35.172,-1.085,-0.755
2:45:35.176,-0.725,-0.8
2:45:35.180,-0.375,-0.805
2:45:35.184,-0.125,-0.74
2:45:35.188,-0.04,-0.655
2:45:35.192,-0.025,-0.54
2:45:35.196,-0.015,-0.49
2:45:35.200,-0.03,-0.485
2:45:35.204,-0.01,-0.515
2:45:35.208,0.04,-0.51
2:45:35.212,0.07,-0.515
2:45:35.216,0.135,-0.52
2:45:35.220,0.19,-0.525
2:45:35.224,0.235,-0.52
2:45:35.228,0.22,-0.505
2:45:35.232,0.23,-0.49
2:45:35.236,0.235,-0.485
2:45:35.240,0.225,-0.5
2:45:35.244,0.22,-0.52
2:45:35.248,0.235,-0.51
2:45:35.252,0.24,-0.525
2:45:35.256,0.255,-0.525
2:45:35.260,0.245,-0.485
2:45:35.264,0.25,-0.47
2:45:35.268,0.255,-0.48
2:45:35.272,0.235,-0.5
2:45:35.276,0.235,-0.51
2:45:35.280,0.235,-0.5
2:45:35.284,0.23,-0.495
2:45:35.288,0.245,-0.455
2:45:35.292,0.245,-0.46
2:45:35.296,0.225,-0.49
2:45:35.300,0.23,-0.5
2:45:35.304,0.205,-0.48
2:45:35.308,0.205,-0.495
2:45:35.312,0.215,-0.505
2:45:35.316,0.23,-0.515
2:45:35.320,0.24,-0.515
2:45:35.324,0.235,-0.48
2:45:35.328,0.235,-0.465
2:45:35.332,0.235,-0.5
2:45:35.336,0.19,-0.515
2:45:35.340,0.195,-0.49
2:45:35.344,0.2,-0.495
2:45:35.348,0.195,-0.48
2:45:35.352,0.235,-0.49
2:45:35.356,0.195,-0.505
2:45:35.360,0.195,-0.48
2:45:35.364,0.195,-0.46
2:45:35.368,0.185,-0.47
2:45:35.372,0.185,-0.48
2:45:35.376,0.17,-0.48
2:45:35.380,0.16,-0.495
2:45:35.384,0.195,-0.495
2:45:35.388,0.175,-0.455
2:45:35.392,0.165,-0.46
2:45:35.396,0.185,-0.445
2:45:35.400,0.17,-0.44
2:45:35.404,0.135,-0.42
2:45:35.408,0.14,-0.39
2:45:35.412,0.12,-0.38
2:45:35.416,0.125,-0.365
2:45:35.420,0.12,-0.35
2:45:35.424,0.125,-0.345
2:45:35.428,0.14,-0.295
2:45:35.432,0.12,-0.305
2:45:35.436,0.115,-0.28
2:45:35.440,0.115,-0.28
2:45:35.444,0.095,-0.25
2:45:35.448,0.115,-0.245
2:45:35.452,0.11,-0.235
2:45:35.456,0.09,-0.22
2:45:35.460,0.1,-0.215
2:45:35.464,0.105,-0.215
2:45:35.468,0.13,-0.205
2:45:35.472,0.125,-0.21
2:45:35.476,0.1,-0.205
2:45:35.480,0.115,-0.25
2:45:35.484,0.105,-0.31
2:45:35.488,0.13,-0.32
2:45:35.492,0.13,-0.32
2:45:35.496,0.125,-0.32
2:45:35.500,0.14,-0.31
2:45:35.504,0.125,-0.31
2:45:35.508,0.115,-0.295
2:45:35.512,0.11,-0.31
2:45:35.516,0.115,-0.32
2:45:35.520,0.13,-0.32
2:45:35.524,0.16,-0.335
2:45:35.528,0.13,-0.3
2:45:35.532,0.14,-0.325
2:45:35.536,0.13,-0.335
2:45:35.540,0.125,-0.31
2:45:35.544,0.145,-0.33
2:45:35.548,0.14,-0.305
2:45:35.552,0.15,-0.33
2:45:35.556,0.15,-0.32
2:45:35.560,0.13,-0.32
2:45:35.564,0.12,-0.31
2:45:35.568,0.13,-0.305
2:45:35.572,0.115,-0.335
2:45:35.576,0.135,-0.355
2:45:35.580,0.115,-0.345
2:45:35.584,0.135,-0.34
2:45:35.588,0.14,-0.34
2:45:35.592,0.11,-0.325
2:45:35.596,0.125,-0.32
2:45:35.600,0.12,-0.335
2:45:35.604,0.11,-0.345
2:45:35.608,0.145,-0.33
2:45:35.612,0.11,-0.32
2:45:35.616,0.11,-0.325
2:45:35.620,0.09,-0.29
2:45:35.624,0.085,-0.305
2:45:35.628,0.095,-0.32
2:45:35.632,0.09,-0.32
2:45:35.636,0.1,-0.36
2:45:35.640,0.085,-0.365
2:45:35.644,0.075,-0.345
2:45:35.648,0.08,-0.355
2:45:35.652,0.095,-0.38
2:45:35.656,0.09,-0.375
2:45:35.660,0.085,-0.35
2:45:35.664,0.07,-0.38
2:45:35.668,0.085,-0.38
2:45:35.672,0.09,-0.37
2:45:35.676,0.075,-0.36
2:45:35.680,0.04,-0.345
2:45:35.684,0.065,-0.355
2:45:35.688,0.055,-0.37
2:45:35.692,0.045,-0.355
2:45:35.696,0.045,-0.37
2:45:35.700,0.045,-0.385
2:45:35.704,0.06,-0.36
2:45:35.708,0.065,-0.385
2:45:35.712,0.06,-0.36
2:45:35.716,0.055,-0.37
2:45:35.720,0.07,-0.405
2:45:35.724,0.055,-0.4
2:45:35.728,0.05,-0.39
2:45:35.732,0.05,-0.37
2:45:35.736,0.065,-0.385
2:45:35.740,0.06,-0.365
2:45:35.744,0.055,-0.385
2:45:35.748,0.04,-0.395
2:45:35.752,0.025,-0.38
2:45:35.756,0.05,-0.395
2:45:35.760,0.04,-0.375
2:45:35.764,0.05,-0.355
2:45:35.768,0.045,-0.34
2:45:35.772,0.055,-0.305
2:45:35.776,0.05,-0.265
2:45:35.780,0.065,-0.235
2:45:35.784,0.065,-0.19
2:45:35.788,0.08,-0.145
2:45:35.792,0.065,-0.135
2:45:35.796,0.11,-0.145
2:45:35.800,0.135,-0.14
2:45:35.804,0.15,-0.14
2:45:35.808,0.16,-0.15
2:45:35.812,0.195,-0.19
2:45:35.816,0.18,-0.19
2:45:35.820,0.175,-0.19
2:45:35.824,0.18,-0.19
2:45:35.828,0.175,-0.155
2:45:35.832,0.145,-0.185
2:45:35.836,0.105,-0.26
2:45:35.840,0.08,-0.33
2:45:35.844,0.06,-0.345
2:45:35.848,0.03,-0.35
2:45:35.852,0.02,-0.34
2:45:35.856,0.01,-0.325
2:45:35.860,0.0,-0.29
2:45:35.864,-0.015,-0.27
2:45:35.868,-0.035,-0.285
2:45:35.872,-0.025,-0.295
2:45:35.876,-0.005,-0.31
2:45:35.880,-0.01,-0.315
2:45:35.884,0.02,-0.305
2:45:35.888,0.02,-0.35
2:45:35.892,0.02,-0.365
2:45:35.896,0.035,-0.38
2:45:35.900,0.055,-0.385
2:45:35.904,0.06,-0.375
2:45:35.908,0.07,-0.4
2:45:35.912,0.065,-0.41
2:45:35.916,0.1,-0.39
2:45:35.920,0.07,-0.355
2:45:35.924,0.055,-0.36
2:45:35.928,0.07,-0.38
2:45:35.932,0.07,-0.37
2:45:35.936,0.075,-0.375
2:45:35.940,0.075,-0.36
2:45:35.944,0.055,-0.36
2:45:35.948,0.085,-0.345
2:45:35.952,0.06,-0.345
2:45:35.956,0.08,-0.35
2:45:35.960,0.055,-0.33
2:45:35.964,0.045,-0.26
2:45:35.968,0.035,-0.205
2:45:35.972,0.06,-0.08
2:45:35.976,0.075,0.13
2:45:35.980,0.075,0.435
2:45:35.984,0.09,0.805
2:45:35.988,0.135,1.07
2:45:35.992,0.135,1.33
2:45:35.996,0.1,1.47
2:45:36.000,0.08,1.485
2:45:36.004,0.095,1.265
2:45:36.008,0.01,0.845
2:45:36.012,-0.11,0.265
2:45:36.016,-0.345,-0.1
2:45:36.020,-0.64,-0.205
2:45:36.024,-0.92,-0.19
2:45:36.028,-1.1,-0.295
2:45:36.032,-1.16,-0.535
2:45:36.036,-1.125,-0.72
2:45:36.040,-0.885,-0.83
2:45:36.044,-0.575,-0.895
2:45:36.048,-0.28,-0.88
2:45:36.052,-0.16,-0.79
2:45:36.056,-0.16,-0.66
2:45:36.060,-0.115,-0.58
2:45:36.064,-0.115,-0.535
2:45:36.068,-0.09,-0.535
2:45:36.072,-0.085,-0.515
2:45:36.076,-0.045,-0.51
2:45:36.080,0.04,-0.5
2:45:36.084,0.095,-0.52
2:45:36.088,0.13,-0.53
2:45:36.092,0.145,-0.505
2:45:36.096,0.155,-0.52
2:45:36.100,0.14,-0.515
2:45:36.104,0.145,-0.525
2:45:36.108,0.155,-0.525
2:45:36.112,0.165,-0.53
2:45:36.116,0.175,-0.52
2:45:36.120,0.155,-0.51
2:45:36.124,0.165,-0.525
2:45:36.128,0.17,-0.525
2:45:36.132,0.145,-0.52
2:45:36.136,0.155,-0.51
2:45:36.140,0.175,-0.49
2:45:36.144,0.17,-0.47
2:45:36.148,0.16,-0.47
2:45:36.152,0.17,-0.47
2:45:36.156,0.18,-0.47
2:45:36.160,0.175,-0.49
2:45:36.164,0.185,-0.51
2:45:36.168,0.2,-0.5
2:45:36.172,0.185,-0.505
2:45:36.176,0.18,-0.51
2:45:36.180,0.18,-0.47
2:45:36.184,0.18,-0.455
2:45:36.188,0.165,-0.46
2:45:36.192,0.175,-0.48
2:45:36.196,0.165,-0.5
2:45:36.200,0.18,-0.505
2:45:36.204,0.17,-0.475
2:45:36.208,0.16,-0.5
2:45:36.212,0.165,-0.5
2:45:36.216,0.155,-0.48
2:45:36.220,0.17,-0.48
2:45:36.224,0.145,-0.485
2:45:36.228,0.13,-0.49
2:45:36.232,0.155,-0.49
2:45:36.236,0.14,-0.47
2:45:36.240,0.15,-0.45
2:45:36.244,0.12,-0.45
2:45:36.248,0.14,-0.455
2:45:36.252,0.145,-0.44
2:45:36.256,0.145,-0.46
2:45:36.260,0.145,-0.44
2:45:36.264,0.125,-0.45
2:45:36.268,0.12,-0.435
2:45:36.272,0.12,-0.4
2:45:36.276,0.115,-0.38
2:45:36.280,0.1,-0.365
2:45:36.284,0.105,-0.33
2:45:36.288,0.115,-0.32
2:45:36.292,0.085,-0.31
2:45:36.296,0.075,-0.295
2:45:36.300,0.09,-0.285
2:45:36.304,0.095,-0.245
2:45:36.308,0.095,-0.235
2:45:36.312,0.075,-0.225
2:45:36.316,0.075,-0.2
2:45:36.320,0.08,-0.22
2:45:36.324,0.07,-0.21
2:45:36.328,0.07,-0.225
2:45:36.332,0.09,-0.23
2:45:36.336,0.075,-0.215
2:45:36.340,0.1,-0.205
2:45:36.344,0.085,-0.24
2:45:36.348,0.105,-0.255
2:45:36.352,0.105,-0.24
2:45:36.356,0.12,-0.265
2:45:36.360,0.11,-0.25
2:45:36.364,0.11,-0.26
2:45:36.368,0.115,-0.285
2:45:36.372,0.12,-0.285
2:45:36.376,0.13,-0.28
2:45:36.380,0.14,-0.285
2:45:36.384,0.14,-0.285
2:45:36.388,0.14,-0.27
2:45:36.392,0.15,-0.26
2:45:36.396,0.155,-0.29
