Time,ECG1,ECG2
1:51:13.616,0.215,-0.205
1:51:13.620,0.2,-0.19
1:51:13.624,0.195,-0.175
1:51:13.628,0.215,-0.195
1:51:13.632,0.225,-0.19
1:51:13.636,0.215,-0.21
1:51:13.640,0.22,-0.185
1:51:13.644,0.225,-0.2
1:51:13.648,0.215,-0.19
1:51:13.652,0.215,-0.18
1:51:13.656,0.2,-0.185
1:51:13.660,0.2,-0.21
1:51:13.664,0.215,-0.195
1:51:13.668,0.19,-0.185
1:51:13.672,0.195,-0.19
1:51:13.676,0.205,-0.175
1:51:13.680,0.185,-0.175
1:51:13.684,0.205,-0.185
1:51:13.688,0.17,-0.185
1:51:13.692,0.18,-0.185
1:51:13.696,0.185,-0.175
1:51:13.700,0.2,-0.17
1:51:13.704,0.21,-0.17
1:51:13.708,0.225,-0.165
1:51:13.712,0.2,-0.19
1:51:13.716,0.22,-0.19
1:51:13.720,0.215,-0.205
1:51:13.724,0.215,-0.21
1:51:13.728,0.215,-0.23
1:51:13.732,0.215,-0.215
1:51:13.736,0.21,-0.21
1:51:13.740,0.21,-0.2
1:51:13.744,0.2,-0.215
1:51:13.748,0.195,-0.18
1:51:13.752,0.185,-0.16
1:51:13.756,0.21,-0.15
1:51:13.760,0.2,-0.17
1:51:13.764,0.195,-0.205
1:51:13.768,0.195,-0.195
1:51:13.772,0.19,-0.18
1:51:13.776,0.22,-0.19
1:51:13.780,0.225,-0.18
1:51:13.784,0.18,-0.195
1:51:13.788,0.185,-0.185
1:51:13.792,0.2,-0.185
1:51:13.796,0.19,-0.2
1:51:13.800,0.18,-0.195
1:51:13.804,0.2,-0.21
1:51:13.808,0.17,-0.2
1:51:13.812,0.185,-0.21
1:51:13.816,0.15,-0.21
1:51:13.820,0.175,-0.205
1:51:13.824,0.155,-0.225
1:51:13.828,0.19,-0.21
1:51:13.832,0.185,-0.205
1:51:13.836,0.19,-0.205
1:51:13.840,0.185,-0.215
1:51:13.844,0.19,-0.185
1:51:13.848,0.19,-0.16
1:51:13.852,0.17,-0.185
1:51:13.856,0.175,-0.19
1:51:13.860,0.155,-0.205
1:51:13.864,0.18,-0.19
1:51:13.868,0.17,-0.21
1:51:13.872,0.185,-0.215
1:51:13.876,0.175,-0.195
1:51:13.880,0.2,-0.19
1:51:13.884,0.175,-0.19
1:51:13.888,0.16,-0.205
1:51:13.892,0.165,-0.225
1:51:13.896,0.16,-0.205
1:51:13.900,0.165,-0.2
1:51:13.904,0.18,-0.175
1:51:13.908,0.155,-0.195
1:51:13.912,0.15,-0.2
1:51:13.916,0.14,-0.21
1:51:13.920,0.14,-0.22
1:51:13.924,0.145,-0.23
1:51:13.928,0.145,-0.25
1:51:13.932,0.155,-0.2
1:51:13.936,0.145,-0.19
1:51:13.940,0.15,-0.185
1:51:13.944,0.135,-0.205
1:51:13.948,0.12,-0.195
1:51:13.952,0.135,-0.23
1:51:13.956,0.13,-0.225
1:51:13.960,0.155,-0.235
1:51:13.964,0.15,-0.235
1:51:13.968,0.135,-0.23
1:51:13.972,0.13,-0.22
1:51:13.976,0.14,-0.21
1:51:13.980,0.13,-0.17
1:51:13.984,0.125,-0.2
1:51:13.988,0.11,-0.22
1:51:13.992,0.115,-0.225
1:51:13.996,0.115,-0.22
1:51:14.000,0.125,-0.23
1:51:14.004,0.135,-0.25
1:51:14.008,0.145,-0.24
1:51:14.012,0.13,-0.245
1:51:14.016,0.115,-0.16
1:51:14.020,0.14,-0.125
1:51:14.024,0.13,-0.095
1:51:14.028,0.13,-0.065
1:51:14.032,0.145,-0.045
1:51:14.036,0.13,-0.05
1:51:14.040,0.155,-0.04
1:51:14.044,0.165,-0.035
1:51:14.048,0.19,-0.05
1:51:14.052,0.2,-0.06
1:51:14.056,0.22,-0.075
1:51:14.060,0.225,-0.075
1:51:14.064,0.22,-0.075
1:51:14.068,0.21,-0.095
1:51:14.072,0.2,-0.07
1:51:14.076,0.19,-0.06
1:51:14.080,0.19,-0.075
1:51:14.084,0.16,-0.13
1:51:14.088,0.165,-0.155
1:51:14.092,0.155,-0.195
1:51:14.096,0.125,-0.21
1:51:14.100,0.1,-0.205
1:51:14.104,0.085,-0.22
1:51:14.108,0.095,-0.19
1:51:14.112,0.065,-0.15
1:51:14.116,0.065,-0.15
1:51:14.120,0.05,-0.18
1:51:14.124,0.06,-0.17
1:51:14.128,0.05,-0.175
1:51:14.132,0.06,-0.21
1:51:14.136,0.06,-0.235
1:51:14.140,0.085,-0.2
1:51:14.144,0.09,-0.2
1:51:14.148,0.1,-0.24
1:51:14.152,0.11,-0.265
1:51:14.156,0.09,-0.285
1:51:14.160,0.11,-0.255
1:51:14.164,0.13,-0.255
1:51:14.168,0.135,-0.25
1:51:14.172,0.14,-0.27
1:51:14.176,0.15,-0.25
1:51:14.180,0.155,-0.24
1:51:14.184,0.13,-0.23
1:51:14.188,0.14,-0.225
1:51:14.192,0.13,-0.235
1:51:14.196,0.135,-0.22
1:51:14.200,0.14,-0.15
1:51:14.204,0.115,-0.125
1:51:14.208,0.115,-0.03
1:51:14.212,0.12,0.135
1:51:14.216,0.12,0.43
1:51:14.220,0.13,0.82
1:51:14.224,0.155,1.195
1:51:14.228,0.165,1.5
1:51:14.232,0.165,1.745
1:51:14.236,0.105,1.875
1:51:14.240,0.1,1.785
1:51:14.244,0.07,1.495
1:51:14.248,-0.02,0.97
1:51:14.252,-0.225,0.41
1:51:14.256,-0.545,0.07
1:51:14.260,-0.825,0.0
1:51:14.264,-1.035,-0.065
1:51:14.268,-1.125,-0.28
1:51:14.272,-1.145,-0.58
1:51:14.276,-0.98,-0.745
1:51:14.280,-0.67,-0.785
1:51:14.284,-0.33,-0.83
1:51:14.288,-0.15,-0.78
1:51:14.292,-0.07,-0.645
1:51:14.296,-0.065,-0.545
1:51:14.300,-0.065,-0.495
1:51:14.304,-0.05,-0.47
1:51:14.308,-0.065,-0.455
1:51:14.312,-0.015,-0.48
1:51:14.316,0.045,-0.48
1:51:14.320,0.105,-0.49
1:51:14.324,0.155,-0.565
1:51:14.328,0.195,-0.6
1:51:14.332,0.19,-0.675
1:51:14.336,0.2,-0.69
1:51:14.340,0.205,-0.73
1:51:14.344,0.215,-0.76
1:51:14.348,0.21,-0.755
1:51:14.352,0.215,-0.75
1:51:14.356,0.195,-0.73
1:51:14.360,0.21,-0.735
1:51:14.364,0.22,-0.745
1:51:14.368,0.23,-0.79
1:51:14.372,0.215,-0.79
1:51:14.376,0.23,-0.77
1:51:14.380,0.23,-0.765
1:51:14.384,0.23,-0.765
1:51:14.388,0.225,-0.765
1:51:14.392,0.215,-0.785
1:51:14.396,0.205,-0.81
1:51:14.400,0.24,-0.825
1:51:14.404,0.225,-0.885
1:51:14.408,0.225,-0.945
1:51:14.412,0.22,-0.965
1:51:14.416,0.24,-0.96
1:51:14.420,0.23,-0.955
1:51:14.424,0.21,-0.955
1:51:14.428,0.225,-0.955
1:51:14.432,0.205,-0.96
1:51:14.436,0.21,-0.955
1:51:14.440,0.22,-0.965
1:51:14.444,0.225,-0.985
1:51:14.448,0.21,-0.98
1:51:14.452,0.205,-0.955
1:51:14.456,0.2,-0.965
1:51:14.460,0.195,-0.975
1:51:14.464,0.2,-0.99
1:51:14.468,0.19,-0.965
1:51:14.472,0.185,-0.955
1:51:14.476,0.185,-0.95
1:51:14.480,0.2,-0.96
1:51:14.484,0.185,-0.965
1:51:14.488,0.18,-0.945
1:51:14.492,0.165,-0.93
1:51:14.496,0.175,-0.925
1:51:14.500,0.165,-0.915
1:51:14.504,0.155,-0.9
1:51:14.508,0.165,-0.895
1:51:14.512,0.14,-0.88
1:51:14.516,0.14,-0.845
1:51:14.520,0.13,-0.835
1:51:14.524,0.115,-0.82
1:51:14.528,0.115,-0.79
1:51:14.532,0.115,-0.77
1:51:14.536,0.105,-0.735
1:51:14.540,0.115,-0.745
1:51:14.544,0.115,-0.745
1:51:14.548,0.125,-0.74
1:51:14.552,0.085,-0.72
1:51:14.556,0.085,-0.705
1:51:14.560,0.085,-0.715
1:51:14.564,0.115,-0.715
1:51:14.568,0.1,-0.725
1:51:14.572,0.095,-0.72
1:51:14.576,0.075,-0.73
1:51:14.580,0.095,-0.705
1:51:14.584,0.095,-0.725
1:51:14.588,0.105,-0.74
1:51:14.592,0.105,-0.77
1:51:14.596,0.11,-0.77
1:51:14.600,0.135,-0.745
1:51:14.604,0.11,-0.755
1:51:14.608,0.115,-0.78
1:51:14.612,0.11,-0.795
1:51:14.616,0.1,-0.805
1:51:14.620,0.12,-0.805
1:51:14.624,0.105,-0.825
1:51:14.628,0.09,-0.84
1:51:14.632,0.125,-0.825
1:51:14.636,0.135,-0.8
1:51:14.640,0.11,-0.82
1:51:14.644,0.1,-0.83
1:51:14.648,0.11,-0.85
1:51:14.652,0.125,-0.84
1:51:14.656,0.125,-0.82
1:51:14.660,0.16,-0.865
1:51:14.664,0.145,-0.865
1:51:14.668,0.145,-0.86
1:51:14.672,0.12,-0.86
1:51:14.676,0.125,-0.87
1:51:14.680,0.125,-0.885
1:51:14.684,0.12,-0.89
1:51:14.688,0.115,-0.915
1:51:14.692,0.115,-0.915
1:51:14.696,0.13,-0.895
1:51:14.700,0.115,-0.92
1:51:14.704,0.12,-0.935
1:51:14.708,0.14,-0.9
1:51:14.712,0.105,-0.86
1:51:14.716,0.125,-0.86
1:51:14.720,0.125,-0.88
1:51:14.724,0.115,-0.88
1:51:14.728,0.115,-0.895
1:51:14.732,0.145,-0.89
1:51:14.736,0.155,-0.89
1:51:14.740,0.155,-0.875
1:51:14.744,0.155,-0.875
1:51:14.748,0.16,-0.895
1:51:14.752,0.14,-0.89
1:51:14.756,0.125,-0.885
1:51:14.760,0.115,-0.87
1:51:14.764,0.13,-0.85
1:51:14.768,0.105,-0.83
1:51:14.772,0.125,-0.855
1:51:14.776,0.105,-0.86
1:51:14.780,0.1,-0.855
1:51:14.784,0.115,-0.875
1:51:14.788,0.105,-0.87
1:51:14.792,0.095,-0.86
1:51:14.796,0.085,-0.86
1:51:14.800,0.1,-0.865
1:51:14.804,0.095,-0.88
1:51:14.808,0.09,-0.865
1:51:14.812,0.085,-0.845
1:51:14.816,0.085,-0.845
1:51:14.820,0.1,-0.86
1:51:14.824,0.08,-0.88
1:51:14.828,0.09,-0.875
1:51:14.832,0.075,-0.85
1:51:14.836,0.095,-0.845
1:51:14.840,0.075,-0.835
1:51:14.844,0.08,-0.835
1:51:14.848,0.075,-0.84
1:51:14.852,0.09,-0.84
1:51:14.856,0.06,-0.875
1:51:14.860,0.1,-0.88
1:51:14.864,0.085,-0.87
1:51:14.868,0.075,-0.84
1:51:14.872,0.075,-0.865
1:51:14.876,0.1,-0.835
1:51:14.880,0.065,-0.82
1:51:14.884,0.075,-0.815
1:51:14.888,0.08,-0.83
1:51:14.892,0.08,-0.835
1:51:14.896,0.07,-0.805
1:51:14.900,0.075,-0.79
1:51:14.904,0.075,-0.755
1:51:14.908,0.085,-0.715
1:51:14.912,0.09,-0.7
1:51:14.916,0.09,-0.675
1:51:14.920,0.1,-0.675
1:51:14.924,0.12,-0.685
1:51:14.928,0.125,-0.675
1:51:14.932,0.13,-0.685
1:51:14.936,0.15,-0.695
1:51:14.940,0.165,-0.715
1:51:14.944,0.17,-0.695
1:51:14.948,0.175,-0.645
1:51:14.952,0.165,-0.64
1:51:14.956,0.15,-0.68
1:51:14.960,0.135,-0.695
1:51:14.964,0.09,-0.7
1:51:14.968,0.09,-0.73
1:51:14.972,0.08,-0.77
1:51:14.976,0.045,-0.83
1:51:14.980,0.015,-0.83
1:51:14.984,-0.005,-0.825
1:51:14.988,-0.01,-0.83
1:51:14.992,-0.02,-0.825
1:51:14.996,-0.055,-0.81
1:51:15.000,-0.045,-0.8
1:51:15.004,-0.015,-0.785
1:51:15.008,-0.02,-0.755
1:51:15.012,-0.03,-0.8
1:51:15.016,-0.035,-0.82
1:51:15.020,-0.02,-0.795
1:51:15.024,-0.015,-0.79
1:51:15.028,-0.01,-0.795
1:51:15.032,0.01,-0.825
1:51:15.036,0.0,-0.845
1:51:15.040,0.01,-0.86
1:51:15.044,0.015,-0.875
1:51:15.048,0.03,-0.86
1:51:15.052,0.065,-0.845
1:51:15.056,0.04,-0.855
1:51:15.060,0.035,-0.87
1:51:15.064,0.03,-0.87
1:51:15.068,0.055,-0.855
1:51:15.072,0.045,-0.84
1:51:15.076,0.025,-0.845
1:51:15.080,0.02,-0.86
1:51:15.084,0.02,-0.86
1:51:15.088,0.02,-0.835
1:51:15.092,0.04,-0.765
1:51:15.096,0.06,-0.735
1:51:15.100,0.03,-0.71
1:51:15.104,0.035,-0.625
1:51:15.108,0.03,-0.4
1:51:15.112,0.055,-0.03
1:51:15.116,0.08,0.27
1:51:15.120,0.11,0.52
1:51:15.124,0.055,0.72
1:51:15.128,0.01,0.87
1:51:15.132,-0.01,0.89
1:51:15.136,0.005,0.71
1:51:15.140,-0.125,0.275
1:51:15.144,-0.345,-0.255
1:51:15.148,-0.615,-0.585
1:51:15.152,-0.895,-0.635
1:51:15.156,-1.115,-0.585
1:51:15.160,-1.245,-0.7
1:51:15.164,-1.285,-0.97
1:51:15.168,-1.17,-1.225
1:51:15.172,-0.875,-1.355
1:51:15.176,-0.48,-1.355
1:51:15.180,-0.22,-1.33
1:51:15.184,-0.12,-1.23
1:51:15.188,-0.125,-1.105
1:51:15.192,-0.135,-0.995
1:51:15.196,-0.14,-0.98
1:51:15.200,-0.12,-0.975
1:51:15.204,-0.11,-0.99
1:51:15.208,-0.055,-0.965
1:51:15.212,0.005,-0.95
1:51:15.216,0.06,-0.95
1:51:15.220,0.075,-0.96
1:51:15.224,0.095,-0.985
1:51:15.228,0.1,-0.97
1:51:15.232,0.11,-0.97
1:51:15.236,0.115,-0.915
1:51:15.240,0.115,-0.935
1:51:15.244,0.13,-0.94
1:51:15.248,0.12,-0.93
1:51:15.252,0.12,-0.92
1:51:15.256,0.125,-0.93
1:51:15.260,0.125,-0.925
1:51:15.264,0.135,-0.93
1:51:15.268,0.145,-0.915
1:51:15.272,0.15,-0.915
1:51:15.276,0.14,-0.91
1:51:15.280,0.125,-0.9
1:51:15.284,0.13,-0.925
1:51:15.288,0.135,-0.925
1:51:15.292,0.14,-0.96
1:51:15.296,0.125,-0.95
1:51:15.300,0.14,-0.935
1:51:15.304,0.13,-0.94
1:51:15.308,0.145,-0.915
1:51:15.312,0.14,-0.905
1:51:15.316,0.145,-0.885
1:51:15.320,0.135,-0.895
1:51:15.324,0.125,-0.87
1:51:15.328,0.115,-0.87
1:51:15.332,0.125,-0.905
1:51:15.336,0.14,-0.89
1:51:15.340,0.12,-0.93
1:51:15.344,0.12,-0.915
1:51:15.348,0.115,-0.92
1:51:15.352,0.12,-0.9
1:51:15.356,0.12,-0.885
1:51:15.360,0.11,-0.88
1:51:15.364,0.125,-0.905
1:51:15.368,0.11,-0.89
1:51:15.372,0.11,-0.895
1:51:15.376,0.095,-0.88
1:51:15.380,0.12,-0.83
1:51:15.384,0.125,-0.815
1:51:15.388,0.095,-0.83
1:51:15.392,0.09,-0.82
1:51:15.396,0.075,-0.8
1:51:15.400,0.06,-0.78
1:51:15.404,0.065,-0.74
1:51:15.408,0.07,-0.745
1:51:15.412,0.05,-0.765
1:51:15.416,0.06,-0.745
1:51:15.420,0.03,-0.725
1:51:15.424,0.04,-0.725
1:51:15.428,0.025,-0.675
1:51:15.432,0.035,-0.68
1:51:15.436,0.02,-0.665
1:51:15.440,0.015,-0.675
1:51:15.444,0.005,-0.655
1:51:15.448,0.035,-0.655
1:51:15.452,0.03,-0.685
1:51:15.456,0.05,-0.68
1:51:15.460,0.03,-0.645
1:51:15.464,0.025,-0.655
1:51:15.468,0.03,-0.665
1:51:15.472,0.03,-0.64
1:51:15.476,0.05,-0.69
1:51:15.480,0.035,-0.71
1:51:15.484,0.04,-0.7
1:51:15.488,0.035,-0.675
1:51:15.492,0.055,-0.69
1:51:15.496,0.03,-0.69
1:51:15.500,0.05,-0.695
1:51:15.504,0.03,-0.69
1:51:15.508,0.075,-0.705
1:51:15.512,0.055,-0.74
1:51:15.516,0.055,-0.735
1:51:15.520,0.06,-0.71
1:51:15.524,0.065,-0.7
1:51:15.528,0.06,-0.695
1:51:15.532,0.06,-0.715
1:51:15.536,0.055,-0.705
1:51:15.540,0.07,-0.715
1:51:15.544,0.07,-0.72
1:51:15.548,0.06,-0.75
1:51:15.552,0.07,-0.75
1:51:15.556,0.09,-0.74
1:51:15.560,0.065,-0.73
1:51:15.564,0.055,-0.74
1:51:15.568,0.06,-0.73
1:51:15.572,0.075,-0.725
1:51:15.576,0.06,-0.74
1:51:15.580,0.065,-0.735
1:51:15.584,0.08,-0.715
1:51:15.588,0.085,-0.725
1:51:15.592,0.095,-0.745
1:51:15.596,0.065,-0.745
1:51:15.600,0.07,-0.745
1:51:15.604,0.09,-0.74
1:51:15.608,0.08,-0.715
1:51:15.612,0.095,-0.73
1:51:15.616,0.09,-0.725
1:51:15.620,0.08,-0.75
1:51:15.624,0.085,-0.755
1:51:15.628,0.08,-0.74
1:51:15.632,0.07,-0.745
1:51:15.636,0.075,-0.73
1:51:15.640,0.065,-0.73
1:51:15.644,0.06,-0.735
1:51:15.648,0.065,-0.735
1:51:15.652,0.055,-0.725
1:51:15.656,0.07,-0.715
1:51:15.660,0.055,-0.7
1:51:15.664,0.07,-0.74
1:51:15.668,0.05,-0.715
1:51:15.672,0.045,-0.735
1:51:15.676,0.045,-0.72
1:51:15.680,0.035,-0.72
1:51:15.684,0.04,-0.71
1:51:15.688,0.055,-0.71
1:51:15.692,0.045,-0.7
1:51:15.696,0.05,-0.705
1:51:15.700,0.055,-0.685
1:51:15.704,0.05,-0.72
1:51:15.708,0.06,-0.69
1:51:15.712,0.05,-0.695
1:51:15.716,0.04,-0.68
1:51:15.720,0.055,-0.685
1:51:15.724,0.035,-0.68
1:51:15.728,0.06,-0.69
1:51:15.732,0.05,-0.705
1:51:15.736,0.04,-0.71
1:51:15.740,0.055,-0.68
1:51:15.744,0.05,-0.66
1:51:15.748,0.065,-0.68
1:51:15.752,0.04,-0.67
1:51:15.756,0.035,-0.675
1:51:15.760,0.05,-0.675
1:51:15.764,0.035,-0.67
1:51:15.768,0.03,-0.645
1:51:15.772,0.045,-0.605
1:51:15.776,0.045,-0.565
1:51:15.780,0.05,-0.515
1:51:15.784,0.06,-0.47
1:51:15.788,0.04,-0.48
1:51:15.792,0.06,-0.475
1:51:15.796,0.095,-0.49
1:51:15.800,0.12,-0.5
1:51:15.804,0.15,-0.49
1:51:15.808,0.16,-0.49
1:51:15.812,0.16,-0.465
1:51:15.816,0.135,-0.465
1:51:15.820,0.12,-0.475
1:51:15.824,0.135,-0.475
1:51:15.828,0.105,-0.485
1:51:15.832,0.09,-0.495
1:51:15.836,0.075,-0.52
1:51:15.840,0.05,-0.55
1:51:15.844,0.02,-0.575
1:51:15.848,0.0,-0.615
1:51:15.852,-0.02,-0.63
1:51:15.856,-0.015,-0.65
1:51:15.860,-0.025,-0.64
1:51:15.864,-0.03,-0.63
1:51:15.868,-0.025,-0.6
1:51:15.872,-0.04,-0.585
1:51:15.876,-0.04,-0.57
1:51:15.880,-0.025,-0.61
1:51:15.884,-0.02,-0.61
1:51:15.888,-0.025,-0.605
1:51:15.892,0.0,-0.6
1:51:15.896,-0.035,-0.6
1:51:15.900,0.0,-0.63
1:51:15.904,0.01,-0.66
1:51:15.908,0.0,-0.68
1:51:15.912,0.01,-0.68
1:51:15.916,0.05,-0.685
1:51:15.920,0.045,-0.66
1:51:15.924,0.065,-0.65
1:51:15.928,0.065,-0.65
1:51:15.932,0.035,-0.62
1:51:15.936,0.025,-0.625
1:51:15.940,0.025,-0.65
1:51:15.944,0.02,-0.64
1:51:15.948,0.025,-0.615
1:51:15.952,0.015,-0.615
1:51:15.956,0.035,-0.605
1:51:15.960,0.03,-0.56
1:51:15.964,0.025,-0.535
1:51:15.968,0.0,-0.52
1:51:15.972,0.005,-0.4
1:51:15.976,0.02,-0.13
1:51:15.980,0.05,0.22
1:51:15.984,0.07,0.525
1:51:15.988,0.105,0.75
1:51:15.992,0.04,0.93
1:51:15.996,-0.01,1.04
1:51:16.000,-0.015,0.985
1:51:16.004,-0.04,0.715
1:51:16.008,-0.19,0.23
1:51:16.012,-0.42,-0.25
1:51:16.016,-0.73,-0.44
1:51:16.020,-1.035,-0.35
1:51:16.024,-1.225,-0.34
1:51:16.028,-1.355,-0.585
1:51:16.032,-1.32,-0.885
1:51:16.036,-1.15,-1.05
1:51:16.040,-0.76,-1.105
1:51:16.044,-0.395,-1.07
1:51:16.048,-0.21,-0.99
1:51:16.052,-0.145,-0.865
1:51:16.056,-0.185,-0.78
1:51:16.060,-0.16,-0.755
1:51:16.064,-0.16,-0.75
1:51:16.068,-0.14,-0.75
1:51:16.072,-0.08,-0.765
1:51:16.076,-0.02,-0.74
1:51:16.080,0.015,-0.75
1:51:16.084,0.05,-0.75
1:51:16.088,0.09,-0.715
1:51:16.092,0.12,-0.72
1:51:16.096,0.075,-0.71
1:51:16.100,0.08,-0.7
1:51:16.104,0.085,-0.71
1:51:16.108,0.1,-0.73
1:51:16.112,0.11,-0.72
1:51:16.116,0.105,-0.705
1:51:16.120,0.11,-0.725
1:51:16.124,0.13,-0.71
1:51:16.128,0.13,-0.72
1:51:16.132,0.11,-0.685
1:51:16.136,0.12,-0.69
1:51:16.140,0.13,-0.695
1:51:16.144,0.115,-0.67
1:51:16.148,0.11,-0.685
1:51:16.152,0.115,-0.685
1:51:16.156,0.11,-0.675
1:51:16.160,0.13,-0.685
1:51:16.164,0.125,-0.695
1:51:16.168,0.12,-0.675
1:51:16.172,0.115,-0.68
1:51:16.176,0.115,-0.66
1:51:16.180,0.12,-0.63
1:51:16.184,0.12,-0.625
1:51:16.188,0.09,-0.64
1:51:16.192,0.09,-0.67
1:51:16.196,0.11,-0.675
1:51:16.200,0.105,-0.655
1:51:16.204,0.09,-0.655
1:51:16.208,0.1,-0.66
1:51:16.212,0.095,-0.645
1:51:16.216,0.09,-0.685
1:51:16.220,0.095,-0.65
1:51:16.224,0.095,-0.62
1:51:16.228,0.075,-0.595
1:51:16.232,0.095,-0.59
1:51:16.236,0.1,-0.58
1:51:16.240,0.075,-0.575
1:51:16.244,0.055,-0.575
1:51:16.248,0.06,-0.525
1:51:16.252,0.055,-0.515
1:51:16.256,0.06,-0.495
1:51:16.260,0.025,-0.52
1:51:16.264,0.035,-0.45
1:51:16.268,0.015,-0.46
1:51:16.272,0.035,-0.44
1:51:16.276,0.025,-0.44
1:51:16.280,0.005,-0.45
1:51:16.284,0.02,-0.43
1:51:16.288,-0.01,-0.415
1:51:16.292,0.02,-0.42
1:51:16.296,0.0,-0.375
1:51:16.300,-0.015,-0.37
1:51:16.304,-0.005,-0.37
1:51:16.308,-0.015,-0.37
1:51:16.312,-0.01,-0.395
1:51:16.316,-0.005,-0.405
1:51:16.320,0.0,-0.39
1:51:16.324,-0.01,-0.395
1:51:16.328,-0.01,-0.39
1:51:16.332,0.0,-0.425
1:51:16.336,0.005,-0.42
1:51:16.340,0.0,-0.42
1:51:16.344,0.0,-0.44
1:51:16.348,0.01,-0.445
1:51:16.352,0.025,-0.45
1:51:16.356,0.005,-0.44
1:51:16.360,0.015,-0.45
1:51:16.364,0.0,-0.46
1:51:16.368,0.03,-0.47
1:51:16.372,0.015,-0.46
1:51:16.376,0.015,-0.42
1:51:16.380,0.0,-0.43
1:51:16.384,0.015,-0.445
1:51:16.388,0.02,-0.45
1:51:16.392,0.02,-0.455
1:51:16.396,0.02,-0.475
1:51:16.400,0.02,-0.485
1:51:16.404,0.01,-0.5
1:51:16.408,0.025,-0.48
1:51:16.412,0.0,-0.48
1:51:16.416,0.015,-0.475
1:51:16.420,0.01,-0.48
1:51:16.424,0.015,-0.48
1:51:16.428,0.015,-0.495
1:51:16.432,0.03,-0.505
1:51:16.436,0.03,-0.495
1:51:16.440,0.02,-0.49
1:51:16.444,0.015,-0.46
1:51:16.448,0.04,-0.475
1:51:16.452,0.035,-0.475
1:51:16.456,0.04,-0.475
1:51:16.460,0.025,-0.485
1:51:16.464,0.035,-0.47
1:51:16.468,0.02,-0.48
1:51:16.472,0.05,-0.465
1:51:16.476,0.035,-0.47
1:51:16.480,0.035,-0.475
1:51:16.484,0.025,-0.47
1:51:16.488,0.03,-0.47
1:51:16.492,0.03,-0.47
1:51:16.496,0.03,-0.46
1:51:16.500,0.04,-0.45
1:51:16.504,0.03,-0.44
1:51:16.508,0.03,-0.43
1:51:16.512,0.02,-0.455
1:51:16.516,0.03,-0.445
1:51:16.520,0.015,-0.465
1:51:16.524,0.04,-0.445
1:51:16.528,0.045,-0.42
1:51:16.532,0.03,-0.44
1:51:16.536,0.025,-0.435
1:51:16.540,0.025,-0.45
1:51:16.544,0.01,-0.455
1:51:16.548,0.035,-0.435
1:51:16.552,0.015,-0.4
1:51:16.556,0.005,-0.405
1:51:16.560,0.03,-0.425
1:51:16.564,0.01,-0.415
1:51:16.568,0.0,-0.42
1:51:16.572,-0.01,-0.425
1:51:16.576,0.005,-0.425
1:51:16.580,0.0,-0.455
1:51:16.584,0.015,-0.445
1:51:16.588,0.01,-0.435
1:51:16.592,0.01,-0.43
1:51:16.596,0.02,-0.4
1:51:16.600,0.015,-0.41
1:51:16.604,-0.01,-0.355
1:51:16.608,0.005,-0.33
1:51:16.612,0.005,-0.32
1:51:16.616,0.02,-0.29
1:51:16.620,-0.01,-0.265
1:51:16.624,0.02,-0.24
1:51:16.628,0.02,-0.235
1:51:16.632,0.045,-0.24
1:51:16.636,0.08,-0.235
1:51:16.640,0.09,-0.235
1:51:16.644,0.115,-0.24
1:51:16.648,0.13,-0.235
1:51:16.652,0.1,-0.22
1:51:16.656,0.095,-0.215
1:51:16.660,0.09,-0.215
1:51:16.664,0.08,-0.24
1:51:16.668,0.05,-0.23
1:51:16.672,0.03,-0.23
1:51:16.676,0.035,-0.26
1:51:16.680,0.005,-0.32
1:51:16.684,-0.01,-0.33
1:51:16.688,-0.05,-0.34
1:51:16.692,-0.05,-0.35
1:51:16.696,-0.055,-0.34
1:51:16.700,-0.055,-0.345
1:51:16.704,-0.065,-0.35
1:51:16.708,-0.075,-0.35
1:51:16.712,-0.08,-0.345
1:51:16.716,-0.095,-0.365
1:51:16.720,-0.07,-0.36
1:51:16.724,-0.06,-0.36
1:51:16.728,-0.045,-0.33
1:51:16.732,-0.03,-0.32
1:51:16.736,-0.045,-0.35
1:51:16.740,-0.04,-0.405
1:51:16.744,-0.06,-0.42
1:51:16.748,0.0,-0.415
1:51:16.752,0.005,-0.42
1:51:16.756,0.01,-0.41
1:51:16.760,0.015,-0.415
1:51:16.764,0.01,-0.435
1:51:16.768,-0.02,-0.435
1:51:16.772,-0.01,-0.425
1:51:16.776,-0.025,-0.4
1:51:16.780,-0.02,-0.37
1:51:16.784,-0.005,-0.37
1:51:16.788,-0.03,-0.355
1:51:16.792,-0.025,-0.315
1:51:16.796,-0.015,-0.305
1:51:16.800,0.0,-0.28
1:51:16.804,-0.01,-0.25
1:51:16.808,-0.02,-0.14
1:51:16.812,-0.02,0.09
1:51:16.816,0.015,0.415
1:51:16.820,0.05,0.73
1:51:16.824,0.05,0.98
1:51:16.828,0.015,1.17
1:51:16.832,-0.04,1.265
1:51:16.836,-0.03,1.255
1:51:16.840,-0.07,1.015
1:51:16.844,-0.185,0.55
1:51:16.848,-0.385,0.03
1:51:16.852,-0.71,-0.2
1:51:16.856,-0.98,-0.12
1:51:16.860,-1.23,-0.09
1:51:16.864,-1.305,-0.29
1:51:16.868,-1.32,-0.58
1:51:16.872,-1.15,-0.775
1:51:16.876,-0.82,-0.83
1:51:16.880,-0.455,-0.83
1:51:16.884,-0.22,-0.78
1:51:16.888,-0.16,-0.66
1:51:16.892,-0.175,-0.55
1:51:16.896,-0.165,-0.505
1:51:16.900,-0.16,-0.49
1:51:16.904,-0.17,-0.49
1:51:16.908,-0.12,-0.48
1:51:16.912,-0.075,-0.475
1:51:16.916,-0.01,-0.495
1:51:16.920,0.025,-0.49
1:51:16.924,0.07,-0.49
1:51:16.928,0.06,-0.48
1:51:16.932,0.075,-0.47
1:51:16.936,0.065,-0.475
1:51:16.940,0.06,-0.435
1:51:16.944,0.07,-0.46
1:51:16.948,0.085,-0.46
1:51:16.952,0.07,-0.445
1:51:16.956,0.065,-0.46
1:51:16.960,0.075,-0.46
1:51:16.964,0.08,-0.465
1:51:16.968,0.07,-0.455
1:51:16.972,0.075,-0.46
1:51:16.976,0.06,-0.47
1:51:16.980,0.065,-0.45
1:51:16.984,0.065,-0.445
1:51:16.988,0.07,-0.43
1:51:16.992,0.065,-0.445
1:51:16.996,0.075,-0.445
1:51:17.000,0.065,-0.46
1:51:17.004,0.07,-0.47
1:51:17.008,0.07,-0.465
1:51:17.012,0.055,-0.445
1:51:17.016,0.06,-0.41
1:51:17.020,0.075,-0.415
1:51:17.024,0.035,-0.43
1:51:17.028,0.04,-0.445
1:51:17.032,0.03,-0.43
1:51:17.036,0.01,-0.435
1:51:17.040,0.03,-0.43
1:51:17.044,0.025,-0.43
1:51:17.048,0.02,-0.42
1:51:17.052,0.015,-0.425
1:51:17.056,0.0,-0.42
1:51:17.060,0.02,-0.405
1:51:17.064,0.035,-0.4
1:51:17.068,0.0,-0.41
1:51:17.072,0.0,-0.38
1:51:17.076,-0.03,-0.38
1:51:17.080,-0.025,-0.39
1:51:17.084,-0.015,-0.37
1:51:17.088,-0.015,-0.315
1:51:17.092,-0.015,-0.305
1:51:17.096,-0.03,-0.275
1:51:17.100,-0.05,-0.265
1:51:17.104,-0.06,-0.275
1:51:17.108,-0.055,-0.29
1:51:17.112,-0.055,-0.27
1:51:17.116,-0.065,-0.225
1:51:17.120,-0.055,-0.195
1:51:17.124,-0.07,-0.175
1:51:17.128,-0.08,-0.17
1:51:17.132,-0.09,-0.185
1:51:17.136,-0.085,-0.2
1:51:17.140,-0.085,-0.21
1:51:17.144,-0.07,-0.185
1:51:17.148,-0.07,-0.185
1:51:17.152,-0.065,-0.175
1:51:17.156,-0.075,-0.195
1:51:17.160,-0.075,-0.215
1:51:17.164,-0.08,-0.22
1:51:17.168,-0.05,-0.23
1:51:17.172,-0.075,-0.225
1:51:17.176,-0.06,-0.22
1:51:17.180,-0.065,-0.185
1:51:17.184,-0.06,-0.2
1:51:17.188,-0.055,-0.235
1:51:17.192,-0.07,-0.24
1:51:17.196,-0.07,-0.27
1:51:17.200,-0.065,-0.28
1:51:17.204,-0.05,-0.29
1:51:17.208,-0.05,-0.28
1:51:17.212,-0.045,-0.27
1:51:17.216,-0.04,-0.255
1:51:17.220,-0.03,-0.25
1:51:17.224,-0.05,-0.24
1:51:17.228,-0.045,-0.255
1:51:17.232,-0.045,-0.28
1:51:17.236,-0.025,-0.295
1:51:17.240,-0.02,-0.295
1:51:17.244,-0.03,-0.305
1:51:17.248,-0.035,-0.295
1:51:17.252,-0.05,-0.28
1:51:17.256,-0.05,-0.28
1:51:17.260,-0.04,-0.32
1:51:17.264,-0.025,-0.31
1:51:17.268,-0.03,-0.315
1:51:17.272,-0.02,-0.32
1:51:17.276,-0.05,-0.31
1:51:17.280,-0.04,-0.325
1:51:17.284,-0.01,-0.3
1:51:17.288,-0.045,-0.295
1:51:17.292,-0.06,-0.29
1:51:17.296,-0.045,-0.3
1:51:17.300,-0.035,-0.3
1:51:17.304,-0.04,-0.32
1:51:17.308,-0.035,-0.32
1:51:17.312,-0.02,-0.345
1:51:17.316,-0.035,-0.325
1:51:17.320,-0.03,-0.31
1:51:17.324,-0.02,-0.26
1:51:17.328,-0.045,-0.29
1:51:17.332,-0.035,-0.29
1:51:17.336,-0.045,-0.295
1:51:17.340,-0.03,-0.3
1:51:17.344,-0.02,-0.285
1:51:17.348,-0.02,-0.295
1:51:17.352,-0.03,-0.3
1:51:17.356,-0.03,-0.285
1:51:17.360,-0.03,-0.285
1:51:17.364,-0.055,-0.27
1:51:17.368,-0.03,-0.29
1:51:17.372,-0.055,-0.29
1:51:17.376,-0.055,-0.275
1:51:17.380,-0.06,-0.28
1:51:17.384,-0.06,-0.27
1:51:17.388,-0.06,-0.26
1:51:17.392,-0.045,-0.25
1:51:17.396,-0.065,-0.265
1:51:17.400,-0.065,-0.265
1:51:17.404,-0.045,-0.275
1:51:17.408,-0.05,-0.265
1:51:17.412,-0.065,-0.265
1:51:17.416,-0.065,-0.255
1:51:17.420,-0.04,-0.265
1:51:17.424,-0.075,-0.26
1:51:17.428,-0.065,-0.255
1:51:17.432,-0.055,-0.25
1:51:17.436,-0.075,-0.245
1:51:17.440,-0.075,-0.225
1:51:17.444,-0.065,-0.22
1:51:17.448,-0.06,-0.16
1:51:17.452,-0.07,-0.15
1:51:17.456,-0.05,-0.12
1:51:17.460,-0.055,-0.1
1:51:17.464,-0.04,-0.095
1:51:17.468,-0.015,-0.095
1:51:17.472,-0.005,-0.065
1:51:17.476,0.015,-0.045
1:51:17.480,0.025,-0.06
1:51:17.484,0.045,-0.05
1:51:17.488,0.04,-0.1
1:51:17.492,0.085,-0.085
1:51:17.496,0.06,-0.06
1:51:17.500,0.05,-0.05
1:51:17.504,0.04,-0.04
1:51:17.508,0.0,-0.06
1:51:17.512,0.0,-0.06
1:51:17.516,-0.025,-0.125
1:51:17.520,-0.035,-0.175
1:51:17.524,-0.08,-0.21
1:51:17.528,-0.075,-0.185
1:51:17.532,-0.08,-0.19
1:51:17.536,-0.085,-0.18
1:51:17.540,-0.11,-0.17
1:51:17.544,-0.13,-0.145
1:51:17.548,-0.135,-0.15
1:51:17.552,-0.135,-0.175
1:51:17.556,-0.135,-0.175
1:51:17.560,-0.115,-0.18
1:51:17.564,-0.11,-0.19
1:51:17.568,-0.075,-0.175
1:51:17.572,-0.08,-0.2
1:51:17.576,-0.09,-0.2
1:51:17.580,-0.075,-0.23
1:51:17.584,-0.075,-0.245
1:51:17.588,-0.06,-0.23
1:51:17.592,-0.04,-0.25
1:51:17.596,-0.015,-0.265
1:51:17.600,-0.03,-0.25
1:51:17.604,-0.06,-0.26
1:51:17.608,-0.04,-0.235
1:51:17.612,-0.03,-0.22
1:51:17.616,-0.04,-0.195
1:51:17.620,-0.04,-0.19
1:51:17.624,-0.04,-0.225
1:51:17.628,-0.04,-0.235
1:51:17.632,-0.04,-0.225
1:51:17.636,-0.065,-0.185
1:51:17.640,-0.05,-0.13
1:51:17.644,-0.04,-0.085
1:51:17.648,-0.065,-0.04
1:51:17.652,-0.045,0.08
1:51:17.656,-0.025,0.33
1:51:17.660,-0.02,0.65
1:51:17.664,0.015,0.985
1:51:17.668,0.01,1.25
1:51:17.672,-0.005,1.465
1:51:17.676,-0.06,1.575
1:51:17.680,-0.095,1.56
1:51:17.684,-0.125,1.41
1:51:17.688,-0.205,0.98
1:51:17.692,-0.4,0.435
1:51:17.696,-0.67,0.06
1:51:17.700,-0.965,0.01
1:51:17.704,-1.17,0.04
1:51:17.708,-1.275,-0.095
1:51:17.712,-1.295,-0.36
1:51:17.716,-1.225,-0.535
1:51:17.720,-0.9,-0.64
1:51:17.724,-0.55,-0.69
1:51:17.728,-0.32,-0.655
1:51:17.732,-0.235,-0.55
1:51:17.736,-0.23,-0.435
1:51:17.740,-0.22,-0.335
1:51:17.744,-0.21,-0.315
1:51:17.748,-0.2,-0.295
1:51:17.752,-0.185,-0.325
1:51:17.756,-0.135,-0.32
1:51:17.760,-0.09,-0.305
1:51:17.764,-0.025,-0.28
1:51:17.768,0.03,-0.28
1:51:17.772,0.04,-0.28
1:51:17.776,0.015,-0.275
1:51:17.780,0.035,-0.27
1:51:17.784,0.02,-0.29
1:51:17.788,0.02,-0.28
1:51:17.792,0.045,-0.27
1:51:17.796,0.07,-0.25
1:51:17.800,0.05,-0.27
1:51:17.804,0.045,-0.28
1:51:17.808,0.04,-0.295
1:51:17.812,0.05,-0.27
1:51:17.816,0.04,-0.275
1:51:17.820,0.06,-0.26
1:51:17.824,0.055,-0.255
1:51:17.828,0.05,-0.265
1:51:17.832,0.05,-0.25
1:51:17.836,0.035,-0.22
1:51:17.840,0.035,-0.22
1:51:17.844,0.035,-0.245
1:51:17.848,0.05,-0.255
1:51:17.852,0.045,-0.255
1:51:17.856,0.035,-0.27
1:51:17.860,0.035,-0.27
1:51:17.864,0.04,-0.265
1:51:17.868,0.025,-0.285
1:51:17.872,0.025,-0.265
1:51:17.876,0.025,-0.24
1:51:17.880,0.02,-0.225
1:51:17.884,0.035,-0.2
1:51:17.888,0.02,-0.235
1:51:17.892,0.015,-0.225
1:51:17.896,0.015,-0.22
1:51:17.900,0.015,-0.24
1:51:17.904,0.01,-0.235
1:51:17.908,0.0,-0.205
1:51:17.912,0.0,-0.22
1:51:17.916,-0.01,-0.235
1:51:17.920,-0.015,-0.225
1:51:17.924,-0.01,-0.21
1:51:17.928,0.0,-0.22
1:51:17.932,0.0,-0.2
1:51:17.936,-0.03,-0.16
1:51:17.940,-0.04,-0.15
1:51:17.944,-0.035,-0.12
1:51:17.948,-0.05,-0.095
1:51:17.952,-0.045,-0.09
1:51:17.956,-0.05,-0.09
1:51:17.960,-0.065,-0.055
1:51:17.964,-0.05,-0.04
1:51:17.968,-0.055,-0.015
1:51:17.972,-0.07,-0.015
1:51:17.976,-0.08,-0.005
1:51:17.980,-0.105,-0.015
1:51:17.984,-0.105,0.0
1:51:17.988,-0.11,-0.005
1:51:17.992,-0.085,0.0
1:51:17.996,-0.065,-0.025
1:51:18.000,-0.125,-0.03
1:51:18.004,-0.115,-0.005
1:51:18.008,-0.1,-0.01
1:51:18.012,-0.1,0.005
1:51:18.016,-0.105,-0.005
1:51:18.020,-0.09,-0.01
1:51:18.024,-0.095,-0.05
1:51:18.028,-0.085,-0.045
1:51:18.032,-0.07,-0.05
1:51:18.036,-0.07,-0.06
1:51:18.040,-0.105,-0.075
1:51:18.044,-0.075,-0.085
1:51:18.048,-0.08,-0.055
1:51:18.052,-0.075,-0.08
1:51:18.056,-0.055,-0.06
1:51:18.060,-0.07,-0.085
1:51:18.064,-0.075,-0.11
1:51:18.068,-0.07,-0.1
1:51:18.072,-0.06,-0.075
1:51:18.076,-0.06,-0.08
1:51:18.080,-0.065,-0.095
1:51:18.084,-0.08,-0.095
1:51:18.088,-0.065,-0.12
1:51:18.092,-0.085,-0.12
1:51:18.096,-0.085,-0.125
1:51:18.100,-0.05,-0.125
1:51:18.104,-0.07,-0.11
1:51:18.108,-0.06,-0.125
1:51:18.112,-0.055,-0.13
1:51:18.116,-0.055,-0.12
1:51:18.120,-0.065,-0.14
1:51:18.124,-0.065,-0.125
1:51:18.128,-0.065,-0.1
1:51:18.132,-0.06,-0.16
1:51:18.136,-0.065,-0.155
1:51:18.140,-0.055,-0.16
1:51:18.144,-0.04,-0.155
1:51:18.148,-0.065,-0.155
1:51:18.152,-0.04,-0.15
1:51:18.156,-0.045,-0.145
1:51:18.160,-0.04,-0.14
1:51:18.164,-0.05,-0.13
1:51:18.168,-0.045,-0.13
1:51:18.172,-0.05,-0.13
1:51:18.176,-0.04,-0.12
1:51:18.180,-0.05,-0.125
1:51:18.184,-0.04,-0.135
1:51:18.188,-0.06,-0.13
1:51:18.192,-0.055,-0.105
1:51:18.196,-0.06,-0.115
1:51:18.200,-0.06,-0.125
1:51:18.204,-0.075,-0.14
1:51:18.208,-0.055,-0.145
1:51:18.212,-0.04,-0.14
1:51:18.216,-0.05,-0.125
1:51:18.220,-0.04,-0.145
1:51:18.224,-0.065,-0.155
1:51:18.228,-0.055,-0.11
1:51:18.232,-0.055,-0.115
1:51:18.236,-0.06,-0.115
1:51:18.240,-0.06,-0.115
1:51:18.244,-0.11,-0.11
1:51:18.248,-0.095,-0.14
1:51:18.252,-0.07,-0.15
1:51:18.256,-0.075,-0.125
1:51:18.260,-0.095,-0.11
1:51:18.264,-0.085,-0.11
1:51:18.268,-0.06,-0.11
1:51:18.272,-0.07,-0.115
1:51:18.276,-0.085,-0.115
1:51:18.280,-0.09,-0.12
1:51:18.284,-0.07,-0.15
1:51:18.288,-0.08,-0.14
1:51:18.292,-0.075,-0.145
1:51:18.296,-0.1,-0.11
1:51:18.300,-0.09,-0.1
1:51:18.304,-0.075,-0.105
1:51:18.308,-0.08,-0.12
1:51:18.312,-0.08,-0.13
1:51:18.316,-0.09,-0.13
1:51:18.320,-0.07,-0.1
1:51:18.324,-0.085,-0.085
1:51:18.328,-0.085,-0.05
1:51:18.332,-0.065,-0.025
1:51:18.336,-0.075,0.0
1:51:18.340,-0.085,0.03
1:51:18.344,-0.055,0.06
1:51:18.348,-0.04,0.055
1:51:18.352,-0.05,0.085
1:51:18.356,-0.015,0.07
1:51:18.360,0.01,0.075
1:51:18.364,0.035,0.065
1:51:18.368,0.05,0.025
1:51:18.372,0.06,0.03
1:51:18.376,0.035,0.05
1:51:18.380,0.015,0.07
1:51:18.384,0.0,0.065
1:51:18.388,-0.02,0.04
1:51:18.392,-0.025,0.045
1:51:18.396,-0.06,-0.02
1:51:18.400,-0.07,-0.075
1:51:18.404,-0.095,-0.09
1:51:18.408,-0.135,-0.1
1:51:18.412,-0.125,-0.09
1:51:18.416,-0.14,-0.085
1:51:18.420,-0.13,-0.08
1:51:18.424,-0.15,-0.075
1:51:18.428,-0.16,-0.095
1:51:18.432,-0.155,-0.1
1:51:18.436,-0.15,-0.09
1:51:18.440,-0.13,-0.085
1:51:18.444,-0.14,-0.075
1:51:18.448,-0.135,-0.08
1:51:18.452,-0.13,-0.105
1:51:18.456,-0.13,-0.125
1:51:18.460,-0.105,-0.15
1:51:18.464,-0.125,-0.155
1:51:18.468,-0.075,-0.15
1:51:18.472,-0.04,-0.16
1:51:18.476,-0.04,-0.165
1:51:18.480,-0.025,-0.155
1:51:18.484,-0.05,-0.14
1:51:18.488,-0.045,-0.155
1:51:18.492,-0.06,-0.155
1:51:18.496,-0.075,-0.12
1:51:18.500,-0.065,-0.135
1:51:18.504,-0.075,-0.145
1:51:18.508,-0.07,-0.135
1:51:18.512,-0.04,-0.12
1:51:18.516,-0.05,-0.08
1:51:18.520,-0.065,0.0
1:51:18.524,-0.06,-0.005
1:51:18.528,-0.055,0.035
1:51:18.532,-0.06,0.2
1:51:18.536,-0.05,0.475
1:51:18.540,-0.01,0.835
1:51:18.544,0.005,1.15
1:51:18.548,0.02,1.395
1:51:18.552,0.005,1.565
1:51:18.556,-0.02,1.64
1:51:18.560,-0.055,1.535
1:51:18.564,-0.115,1.25
1:51:18.568,-0.265,0.73
1:51:18.572,-0.51,0.23
1:51:18.576,-0.85,0.09
1:51:18.580,-1.14,0.21
1:51:18.584,-1.32,0.17
1:51:18.588,-1.415,-0.055
1:51:18.592,-1.43,-0.355
1:51:18.596,-1.205,-0.52
1:51:18.600,-0.84,-0.59
1:51:18.604,-0.475,-0.61
1:51:18.608,-0.28,-0.535
1:51:18.612,-0.215,-0.435
1:51:18.616,-0.215,-0.315
1:51:18.620,-0.215,-0.265
1:51:18.624,-0.21,-0.24
1:51:18.628,-0.195,-0.215
1:51:18.632,-0.16,-0.21
1:51:18.636,-0.08,-0.21
1:51:18.640,-0.02,-0.22
1:51:18.644,0.03,-0.23
1:51:18.648,0.03,-0.23
1:51:18.652,0.05,-0.22
1:51:18.656,0.06,-0.2
1:51:18.660,0.05,-0.205
1:51:18.664,0.065,-0.215
1:51:18.668,0.06,-0.195
1:51:18.672,0.065,-0.2
1:51:18.676,0.065,-0.21
1:51:18.680,0.065,-0.2
1:51:18.684,0.06,-0.195
1:51:18.688,0.06,-0.19
1:51:18.692,0.055,-0.2
1:51:18.696,0.05,-0.185
1:51:18.700,0.07,-0.185
1:51:18.704,0.075,-0.18
1:51:18.708,0.075,-0.175
1:51:18.712,0.08,-0.195
1:51:18.716,0.075,-0.175
1:51:18.720,0.08,-0.195
1:51:18.724,0.095,-0.2
1:51:18.728,0.075,-0.195
1:51:18.732,0.07,-0.205
1:51:18.736,0.055,-0.215
1:51:18.740,0.06,-0.195
1:51:18.744,0.045,-0.205
1:51:18.748,0.04,-0.17
1:51:18.752,0.06,-0.16
1:51:18.756,0.06,-0.16
1:51:18.760,0.075,-0.17
1:51:18.764,0.05,-0.18
1:51:18.768,0.06,-0.155
1:51:18.772,0.065,-0.17
1:51:18.776,0.05,-0.155
1:51:18.780,0.045,-0.14
1:51:18.784,0.025,-0.13
1:51:18.788,0.04,-0.12
1:51:18.792,0.035,-0.12
1:51:18.796,0.03,-0.12
1:51:18.800,0.04,-0.105
1:51:18.804,0.04,-0.085
1:51:18.808,0.015,-0.06
1:51:18.812,0.005,-0.03
1:51:18.816,0.015,0.0
1:51:18.820,0.01,0.01
1:51:18.824,0.01,0.0
1:51:18.828,-0.015,0.02
1:51:18.832,-0.015,0.055
1:51:18.836,-0.025,0.06
1:51:18.840,-0.03,0.075
1:51:18.844,-0.04,0.045
1:51:18.848,-0.04,0.065
1:51:18.852,-0.035,0.07
1:51:18.856,-0.05,0.085
1:51:18.860,-0.04,0.045
1:51:18.864,-0.035,0.045
1:51:18.868,-0.025,0.03
1:51:18.872,-0.05,0.05
1:51:18.876,-0.065,0.07
1:51:18.880,-0.05,0.07
1:51:18.884,-0.05,0.07
1:51:18.888,-0.065,0.04
1:51:18.892,-0.06,0.045
1:51:18.896,-0.075,0.02
1:51:18.900,-0.05,0.01
1:51:18.904,-0.05,0.0
1:51:18.908,-0.045,0.01
1:51:18.912,-0.05,0.02
1:51:18.916,-0.06,0.0
1:51:18.920,-0.06,-0.03
1:51:18.924,-0.05,-0.04
1:51:18.928,-0.04,-0.015
1:51:18.932,-0.04,-0.01
1:51:18.936,-0.035,-0.035
1:51:18.940,-0.04,-0.055
1:51:18.944,-0.045,-0.055
1:51:18.948,-0.015,-0.04
1:51:18.952,-0.03,-0.04
1:51:18.956,-0.04,-0.045
1:51:18.960,-0.025,-0.065
1:51:18.964,-0.03,-0.06
1:51:18.968,-0.04,-0.08
1:51:18.972,-0.02,-0.07
1:51:18.976,-0.015,-0.07
1:51:18.980,-0.025,-0.08
1:51:18.984,-0.02,-0.07
1:51:18.988,-0.02,-0.07
1:51:18.992,-0.03,-0.085
1:51:18.996,-0.02,-0.09
1:51:19.000,-0.015,-0.09
1:51:19.004,-0.025,-0.08
1:51:19.008,-0.015,-0.1
1:51:19.012,-0.01,-0.12
1:51:19.016,-0.015,-0.105
1:51:19.020,-0.015,-0.1
1:51:19.024,-0.03,-0.075
1:51:19.028,-0.02,-0.075
1:51:19.032,-0.025,-0.085
1:51:19.036,-0.02,-0.085
1:51:19.040,-0.02,-0.085
1:51:19.044,-0.015,-0.095
1:51:19.048,-0.04,-0.095
1:51:19.052,-0.015,-0.095
1:51:19.056,-0.025,-0.095
1:51:19.060,-0.035,-0.075
1:51:19.064,-0.03,-0.085
1:51:19.068,-0.015,-0.075
1:51:19.072,-0.01,-0.085
1:51:19.076,-0.01,-0.065
1:51:19.080,-0.025,-0.07
1:51:19.084,-0.035,-0.095
1:51:19.088,-0.03,-0.105
1:51:19.092,-0.03,-0.08
1:51:19.096,-0.03,-0.09
1:51:19.100,-0.045,-0.085
1:51:19.104,-0.04,-0.1
1:51:19.108,-0.05,-0.09
1:51:19.112,-0.045,-0.09
1:51:19.116,-0.04,-0.09
1:51:19.120,-0.04,-0.125
1:51:19.124,-0.06,-0.115
1:51:19.128,-0.035,-0.11
1:51:19.132,-0.045,-0.065
1:51:19.136,-0.055,-0.065
1:51:19.140,-0.045,-0.08
1:51:19.144,-0.05,-0.08
1:51:19.148,-0.045,-0.105
1:51:19.152,-0.045,-0.11
1:51:19.156,-0.05,-0.08
1:51:19.160,-0.03,-0.08
1:51:19.164,-0.04,-0.08
1:51:19.168,-0.07,-0.085
1:51:19.172,-0.06,-0.07
1:51:19.176,-0.08,-0.06
1:51:19.180,-0.065,0.0
1:51:19.184,-0.06,0.01
1:51:19.188,-0.065,0.07
1:51:19.192,-0.06,0.105
1:51:19.196,-0.03,0.095
1:51:19.200,-0.025,0.095
1:51:19.204,0.005,0.105
1:51:19.208,0.025,0.115
1:51:19.212,0.045,0.12
1:51:19.216,0.04,0.115
1:51:19.220,0.045,0.085
1:51:19.224,0.075,0.11
1:51:19.228,0.06,0.12
1:51:19.232,0.055,0.1
1:51:19.236,0.06,0.1
1:51:19.240,0.025,0.08
1:51:19.244,0.0,0.06
1:51:19.248,-0.01,0.01
1:51:19.252,-0.055,-0.025
1:51:19.256,-0.09,-0.03
1:51:19.260,-0.12,-0.05
1:51:19.264,-0.115,-0.06
1:51:19.268,-0.11,-0.075
1:51:19.272,-0.11,-0.04
1:51:19.276,-0.135,-0.045
1:51:19.280,-0.115,-0.04
1:51:19.284,-0.125,-0.03
1:51:19.288,-0.12,-0.045
1:51:19.292,-0.11,-0.025
1:51:19.296,-0.095,-0.03
1:51:19.300,-0.1,-0.03
1:51:19.304,-0.1,-0.055
1:51:19.308,-0.09,-0.1
1:51:19.312,-0.055,-0.14
1:51:19.316,-0.065,-0.145
1:51:19.320,-0.045,-0.125
1:51:19.324,-0.01,-0.115
1:51:19.328,-0.01,-0.14
1:51:19.332,-0.04,-0.13
1:51:19.336,-0.04,-0.13
1:51:19.340,-0.035,-0.115
1:51:19.344,-0.04,-0.11
1:51:19.348,-0.035,-0.11
1:51:19.352,-0.035,-0.115
1:51:19.356,-0.04,-0.1
1:51:19.360,-0.04,-0.095
1:51:19.364,-0.05,-0.085
1:51:19.368,-0.025,-0.07
1:51:19.372,-0.03,-0.02
1:51:19.376,-0.04,0.015
1:51:19.380,-0.03,0.035
1:51:19.384,-0.045,0.11
1:51:19.388,-0.025,0.33
1:51:19.392,-0.01,0.665
1:51:19.396,0.04,1.005
1:51:19.400,0.05,1.27
1:51:19.404,0.03,1.455
1:51:19.408,0.005,1.575
1:51:19.412,-0.035,1.535
1:51:19.416,-0.075,1.305
1:51:19.420,-0.16,0.865
1:51:19.424,-0.39,0.335
1:51:19.428,-0.705,0.055
1:51:19.432,-1.04,0.16
1:51:19.436,-1.295,0.285
1:51:19.440,-1.415,0.12
1:51:19.444,-1.46,-0.17
1:51:19.448,-1.32,-0.405
1:51:19.452,-0.985,-0.52
1:51:19.456,-0.575,-0.55
1:51:19.460,-0.295,-0.52
1:51:19.464,-0.195,-0.395
1:51:19.468,-0.165,-0.305
1:51:19.472,-0.19,-0.22
1:51:19.476,-0.18,-0.185
1:51:19.480,-0.155,-0.17
1:51:19.484,-0.11,-0.19
1:51:19.488,-0.09,-0.2
1:51:19.492,-0.02,-0.185
1:51:19.496,0.005,-0.185
1:51:19.500,0.065,-0.15
1:51:19.504,0.065,-0.175
1:51:19.508,0.075,-0.16
1:51:19.512,0.07,-0.15
1:51:19.516,0.08,-0.16
1:51:19.520,0.11,-0.16
1:51:19.524,0.095,-0.14
1:51:19.528,0.07,-0.17
1:51:19.532,0.075,-0.14
1:51:19.536,0.09,-0.155
1:51:19.540,0.11,-0.15
1:51:19.544,0.105,-0.145
1:51:19.548,0.1,-0.125
1:51:19.552,0.12,-0.135
1:51:19.556,0.11,-0.125
1:51:19.560,0.115,-0.14
1:51:19.564,0.105,-0.15
1:51:19.568,0.125,-0.14
1:51:19.572,0.1,-0.1
1:51:19.576,0.11,-0.115
1:51:19.580,0.105,-0.11
1:51:19.584,0.085,-0.14
1:51:19.588,0.11,-0.14
1:51:19.592,0.11,-0.12
1:51:19.596,0.115,-0.13
1:51:19.600,0.115,-0.115
1:51:19.604,0.105,-0.115
1:51:19.608,0.085,-0.12
1:51:19.612,0.085,-0.12
1:51:19.616,0.09,-0.11
1:51:19.620,0.1,-0.105
1:51:19.624,0.095,-0.115
1:51:19.628,0.075,-0.1
1:51:19.632,0.08,-0.08
1:51:19.636,0.075,-0.075
1:51:19.640,0.065,-0.06
1:51:19.644,0.09,-0.065
1:51:19.648,0.07,-0.065
1:51:19.652,0.06,-0.055
1:51:19.656,0.05,-0.05
1:51:19.660,0.05,-0.04
1:51:19.664,0.055,-0.005
1:51:19.668,0.045,-0.01
1:51:19.672,0.03,0.015
1:51:19.676,0.015,0.035
1:51:19.680,0.005,0.07
1:51:19.684,0.005,0.075
1:51:19.688,0.005,0.095
1:51:19.692,-0.005,0.095
1:51:19.696,-0.01,0.11
1:51:19.700,0.0,0.11
1:51:19.704,-0.015,0.13
1:51:19.708,-0.01,0.15
1:51:19.712,-0.015,0.11
1:51:19.716,-0.03,0.115
1:51:19.720,-0.055,0.135
1:51:19.724,-0.035,0.105
1:51:19.728,-0.045,0.095
1:51:19.732,-0.025,0.115
1:51:19.736,-0.03,0.125
1:51:19.740,-0.03,0.105
1:51:19.744,-0.02,0.095
1:51:19.748,-0.03,0.105
1:51:19.752,-0.02,0.07
1:51:19.756,-0.025,0.055
1:51:19.760,-0.025,0.05
1:51:19.764,-0.02,0.045
1:51:19.768,-0.005,0.045
1:51:19.772,0.005,0.05
1:51:19.776,0.005,0.04
1:51:19.780,-0.005,0.055
1:51:19.784,-0.015,0.06
1:51:19.788,0.005,0.055
1:51:19.792,-0.015,0.025
1:51:19.796,-0.015,0.0
1:51:19.800,-0.015,-0.01
1:51:19.804,-0.015,-0.01
1:51:19.808,-0.015,-0.005
1:51:19.812,-0.02,0.01
1:51:19.816,-0.01,0.015
1:51:19.820,0.005,-0.005
1:51:19.824,-0.015,-0.01
1:51:19.828,0.0,-0.02
1:51:19.832,0.005,-0.015
1:51:19.836,0.0,-0.01
1:51:19.840,0.0,-0.01
1:51:19.844,-0.005,-0.03
1:51:19.848,-0.025,-0.025
1:51:19.852,0.0,0.0
1:51:19.856,0.015,0.0
1:51:19.860,0.01,-0.02
1:51:19.864,-0.005,-0.035
1:51:19.868,-0.005,-0.035
1:51:19.872,0.0,-0.05
1:51:19.876,0.005,-0.045
1:51:19.880,0.01,-0.02
1:51:19.884,0.02,-0.015
1:51:19.888,0.01,-0.015
1:51:19.892,0.0,-0.035
1:51:19.896,0.0,-0.055
1:51:19.900,0.0,-0.045
1:51:19.904,0.015,-0.03
1:51:19.908,0.0,-0.01
1:51:19.912,0.0,0.015
1:51:19.916,-0.005,-0.005
1:51:19.920,-0.015,0.0
1:51:19.924,0.005,-0.035
1:51:19.928,0.015,-0.03
1:51:19.932,0.015,-0.04
1:51:19.936,0.0,-0.02
1:51:19.940,-0.015,0.005
1:51:19.944,-0.02,0.0
1:51:19.948,-0.01,-0.01
1:51:19.952,-0.01,-0.025
1:51:19.956,-0.03,0.0
1:51:19.960,-0.005,-0.02
1:51:19.964,-0.025,-0.015
1:51:19.968,-0.02,0.0
1:51:19.972,-0.02,-0.04
1:51:19.976,-0.01,-0.02
1:51:19.980,-0.01,-0.03
1:51:19.984,-0.01,-0.02
1:51:19.988,-0.015,-0.02
1:51:19.992,-0.01,-0.02
1:51:19.996,-0.025,-0.005
1:51:20.000,-0.025,-0.01
1:51:20.004,-0.05,-0.015
1:51:20.008,-0.06,-0.03
1:51:20.012,-0.04,-0.025
1:51:20.016,-0.05,-0.04
1:51:20.020,-0.045,-0.025
1:51:20.024,-0.07,-0.02
1:51:20.028,-0.05,-0.005
1:51:20.032,-0.045,0.005
1:51:20.036,-0.05,0.04
1:51:20.040,-0.05,0.08
1:51:20.044,-0.05,0.095
1:51:20.048,-0.05,0.09
1:51:20.052,-0.05,0.125
1:51:20.056,-0.05,0.145
1:51:20.060,-0.02,0.14
1:51:20.064,-0.015,0.165
1:51:20.068,0.01,0.175
1:51:20.072,-0.005,0.185
1:51:20.076,0.03,0.18
1:51:20.080,0.045,0.17
1:51:20.084,0.055,0.165
1:51:20.088,0.055,0.19
1:51:20.092,0.045,0.17
1:51:20.096,0.03,0.175
1:51:20.100,0.02,0.19
1:51:20.104,0.01,0.15
1:51:20.108,0.0,0.13
1:51:20.112,-0.025,0.07
1:51:20.116,-0.06,0.01
1:51:20.120,-0.1,0.0
1:51:20.124,-0.1,0.02
1:51:20.128,-0.12,0.04
1:51:20.132,-0.105,0.035
1:51:20.136,-0.145,0.055
1:51:20.140,-0.15,0.065
1:51:20.144,-0.15,0.07
1:51:20.148,-0.15,0.065
1:51:20.152,-0.15,0.025
1:51:20.156,-0.12,-0.005
1:51:20.160,-0.105,-0.025
1:51:20.164,-0.07,0.005
1:51:20.168,-0.095,0.0
1:51:20.172,-0.105,-0.06
1:51:20.176,-0.095,-0.08
1:51:20.180,-0.08,-0.085
1:51:20.184,-0.095,-0.08
1:51:20.188,-0.05,-0.065
1:51:20.192,-0.04,-0.07
1:51:20.196,-0.04,-0.065
1:51:20.200,-0.045,-0.07
1:51:20.204,-0.04,-0.065
1:51:20.208,-0.08,-0.035
1:51:20.212,-0.05,-0.015
1:51:20.216,-0.04,0.0
1:51:20.220,-0.055,-0.025
1:51:20.224,-0.065,-0.055
1:51:20.228,-0.065,-0.06
1:51:20.232,-0.065,-0.015
1:51:20.236,-0.06,0.02
1:51:20.240,-0.065,0.075
1:51:20.244,-0.06,0.08
1:51:20.248,-0.07,0.11
1:51:20.252,-0.055,0.24
1:51:20.256,-0.055,0.515
1:51:20.260,0.0,0.86
1:51:20.264,0.005,1.175
1:51:20.268,0.01,1.425
1:51:20.272,-0.03,1.6
1:51:20.276,-0.06,1.705
1:51:20.280,-0.095,1.645
1:51:20.284,-0.13,1.37
1:51:20.288,-0.28,0.87
1:51:20.292,-0.465,0.35
1:51:20.296,-0.785,0.14
1:51:20.300,-1.06,0.175
1:51:20.304,-1.21,0.13
1:51:20.308,-1.29,-0.065
1:51:20.312,-1.28,-0.315
1:51:20.316,-1.085,-0.455
1:51:20.320,-0.735,-0.505
1:51:20.324,-0.41,-0.525
1:51:20.328,-0.245,-0.475
1:51:20.332,-0.245,-0.345
1:51:20.336,-0.225,-0.235
1:51:20.340,-0.22,-0.2
1:51:20.344,-0.2,-0.175
1:51:20.348,-0.2,-0.155
1:51:20.352,-0.175,-0.135
1:51:20.356,-0.095,-0.145
1:51:20.360,-0.03,-0.18
1:51:20.364,-0.01,-0.16
1:51:20.368,0.035,-0.14
1:51:20.372,0.01,-0.16
1:51:20.376,0.025,-0.155
1:51:20.380,0.04,-0.15
1:51:20.384,0.02,-0.155
1:51:20.388,0.045,-0.175
1:51:20.392,0.035,-0.14
1:51:20.396,0.045,-0.135
1:51:20.400,0.055,-0.13
1:51:20.404,0.065,-0.125
1:51:20.408,0.03,-0.165
1:51:20.412,0.055,-0.13
1:51:20.416,0.055,-0.135
1:51:20.420,0.015,-0.105
1:51:20.424,0.045,-0.125
1:51:20.428,0.055,-0.135
1:51:20.432,0.02,-0.16
1:51:20.436,0.015,-0.14
1:51:20.440,0.035,-0.16
1:51:20.444,0.03,-0.155
1:51:20.448,0.03,-0.125
1:51:20.452,0.025,-0.13
1:51:20.456,0.035,-0.135
1:51:20.460,0.035,-0.145
1:51:20.464,0.035,-0.15
1:51:20.468,0.03,-0.13
1:51:20.472,0.03,-0.145
1:51:20.476,0.035,-0.14
1:51:20.480,0.02,-0.135
1:51:20.484,0.02,-0.105
1:51:20.488,0.0,-0.1
1:51:20.492,0.0,-0.09
1:51:20.496,0.0,-0.085
1:51:20.500,-0.005,-0.085
1:51:20.504,0.0,-0.085
1:51:20.508,-0.01,-0.075
1:51:20.512,0.0,-0.075
1:51:20.516,-0.015,-0.075
1:51:20.520,0.01,-0.045
1:51:20.524,-0.005,-0.015
1:51:20.528,-0.015,-0.005
1:51:20.532,-0.03,-0.005
1:51:20.536,-0.025,0.015
1:51:20.540,-0.04,0.055
1:51:20.544,-0.025,0.065
1:51:20.548,-0.02,0.08
1:51:20.552,-0.05,0.095
1:51:20.556,-0.055,0.125
1:51:20.560,-0.07,0.14
1:51:20.564,-0.075,0.175
1:51:20.568,-0.06,0.175
1:51:20.572,-0.05,0.135
1:51:20.576,-0.055,0.155
1:51:20.580,-0.075,0.17
1:51:20.584,-0.075,0.155
1:51:20.588,-0.08,0.165
1:51:20.592,-0.07,0.185
1:51:20.596,-0.065,0.17
1:51:20.600,-0.065,0.155
1:51:20.604,-0.055,0.14
1:51:20.608,-0.055,0.14
1:51:20.612,-0.05,0.155
1:51:20.616,-0.04,0.12
1:51:20.620,-0.05,0.095
1:51:20.624,-0.025,0.12
1:51:20.628,-0.04,0.12
1:51:20.632,-0.025,0.115
1:51:20.636,-0.005,0.085
1:51:20.640,-0.02,0.11
1:51:20.644,-0.005,0.085
1:51:20.648,-0.01,0.075
1:51:20.652,-0.01,0.065
1:51:20.656,-0.03,0.055
1:51:20.660,-0.045,0.05
1:51:20.664,-0.025,0.05
1:51:20.668,0.0,0.055
1:51:20.672,-0.02,0.035
1:51:20.676,-0.03,0.05
1:51:20.680,-0.03,0.055
1:51:20.684,-0.01,0.04
1:51:20.688,-0.02,0.035
1:51:20.692,-0.025,0.0
1:51:20.696,-0.03,0.005
1:51:20.700,-0.025,0.005
1:51:20.704,-0.035,0.01
1:51:20.708,0.0,0.025
1:51:20.712,-0.02,0.035
1:51:20.716,-0.015,0.045
1:51:20.720,-0.025,0.03
1:51:20.724,-0.01,0.02
1:51:20.728,-0.025,0.02
1:51:20.732,0.005,0.005
1:51:20.736,0.015,0.025
1:51:20.740,-0.01,0.005
1:51:20.744,0.0,0.005
1:51:20.748,-0.01,0.005
1:51:20.752,0.005,0.005
1:51:20.756,0.015,0.0
1:51:20.760,0.005,-0.005
1:51:20.764,-0.005,-0.015
1:51:20.768,-0.025,-0.01
1:51:20.772,-0.025,0.015
1:51:20.776,-0.005,0.045
1:51:20.780,0.005,0.03
1:51:20.784,-0.015,0.03
1:51:20.788,-0.015,0.03
1:51:20.792,-0.025,0.035
1:51:20.796,-0.04,0.0
1:51:20.800,-0.025,0.0
1:51:20.804,-0.015,0.03
1:51:20.808,-0.03,0.025
1:51:20.812,-0.035,0.02
1:51:20.816,-0.03,0.035
1:51:20.820,-0.025,0.015
1:51:20.824,-0.025,0.015
1:51:20.828,-0.035,0.02
1:51:20.832,-0.035,0.04
1:51:20.836,-0.035,0.03
1:51:20.840,-0.03,-0.005
1:51:20.844,-0.02,-0.005
1:51:20.848,-0.05,0.015
1:51:20.852,-0.035,0.015
1:51:20.856,-0.05,0.0
1:51:20.860,-0.06,0.015
1:51:20.864,-0.04,0.02
1:51:20.868,-0.055,0.015
1:51:20.872,-0.025,0.03
1:51:20.876,-0.035,0.025
1:51:20.880,-0.05,0.025
1:51:20.884,-0.02,0.015
1:51:20.888,-0.065,0.01
1:51:20.892,-0.055,0.0
1:51:20.896,-0.055,-0.01
1:51:20.900,-0.025,0.025
1:51:20.904,-0.035,0.08
1:51:20.908,-0.07,0.145
1:51:20.912,-0.06,0.165
1:51:20.916,-0.06,0.175
1:51:20.920,-0.065,0.185
1:51:20.924,-0.03,0.21
1:51:20.928,0.005,0.215
1:51:20.932,0.02,0.22
1:51:20.936,0.03,0.21
1:51:20.940,0.055,0.23
1:51:20.944,0.07,0.205
1:51:20.948,0.09,0.185
1:51:20.952,0.065,0.195
1:51:20.956,0.06,0.205
1:51:20.960,0.055,0.2
1:51:20.964,0.005,0.185
1:51:20.968,-0.005,0.145
1:51:20.972,-0.035,0.095
1:51:20.976,-0.055,0.055
1:51:20.980,-0.085,0.075
1:51:20.984,-0.08,0.05
1:51:20.988,-0.095,0.06
1:51:20.992,-0.14,0.06
1:51:20.996,-0.12,0.065
1:51:21.000,-0.13,0.075
1:51:21.004,-0.135,0.07
1:51:21.008,-0.12,0.055
1:51:21.012,-0.115,0.045
1:51:21.016,-0.115,0.03
1:51:21.020,-0.11,0.025
1:51:21.024,-0.105,0.005
1:51:21.028,-0.095,-0.005
1:51:21.032,-0.11,-0.015
1:51:21.036,-0.095,-0.02
1:51:21.040,-0.09,-0.02
1:51:21.044,-0.06,-0.005
1:51:21.048,-0.03,-0.03
1:51:21.052,-0.05,-0.015
1:51:21.056,-0.025,-0.045
1:51:21.060,-0.06,-0.035
1:51:21.064,-0.06,-0.03
1:51:21.068,-0.055,-0.02
1:51:21.072,-0.065,-0.055
1:51:21.076,-0.07,-0.045
1:51:21.080,-0.07,-0.05
1:51:21.084,-0.065,-0.005
1:51:21.088,-0.065,0.015
1:51:21.092,-0.065,0.055
1:51:21.096,-0.065,0.09
1:51:21.100,-0.075,0.11
1:51:21.104,-0.05,0.24
1:51:21.108,-0.06,0.5
1:51:21.112,-0.04,0.855
1:51:21.116,-0.005,1.155
1:51:21.120,0.03,1.445
1:51:21.124,-0.005,1.695
1:51:21.128,-0.06,1.82
1:51:21.132,-0.08,1.77
1:51:21.136,-0.13,1.47
1:51:21.140,-0.205,0.95
1:51:21.144,-0.465,0.395
1:51:21.148,-0.74,0.18
1:51:21.152,-1.03,0.215
1:51:21.156,-1.24,0.195
1:51:21.160,-1.35,-0.055
1:51:21.164,-1.335,-0.34
1:51:21.168,-1.18,-0.49
1:51:21.172,-0.82,-0.55
1:51:21.176,-0.465,-0.52
1:51:21.180,-0.265,-0.43
1:51:21.184,-0.22,-0.32
1:51:21.188,-0.255,-0.235
1:51:21.192,-0.215,-0.18
1:51:21.196,-0.205,-0.165
1:51:21.200,-0.18,-0.16
1:51:21.204,-0.15,-0.165
1:51:21.208,-0.085,-0.145
1:51:21.212,-0.03,-0.15
1:51:21.216,0.005,-0.13
1:51:21.220,0.01,-0.13
1:51:21.224,0.04,-0.12
1:51:21.228,0.035,-0.145
1:51:21.232,0.015,-0.155
1:51:21.236,0.05,-0.17
1:51:21.240,0.055,-0.13
1:51:21.244,0.065,-0.125
1:51:21.248,0.06,-0.105
1:51:21.252,0.05,-0.135
1:51:21.256,0.06,-0.14
1:51:21.260,0.07,-0.125
1:51:21.264,0.065,-0.115
1:51:21.268,0.045,-0.105
1:51:21.272,0.055,-0.11
1:51:21.276,0.045,-0.12
1:51:21.280,0.065,-0.125
1:51:21.284,0.06,-0.12
1:51:21.288,0.055,-0.145
1:51:21.292,0.04,-0.125
1:51:21.296,0.055,-0.125
1:51:21.300,0.055,-0.115
1:51:21.304,0.075,-0.105
1:51:21.308,0.04,-0.12
1:51:21.312,0.05,-0.11
1:51:21.316,0.055,-0.11
1:51:21.320,0.06,-0.125
1:51:21.324,0.045,-0.135
1:51:21.328,0.03,-0.115
1:51:21.332,0.055,-0.125
1:51:21.336,0.035,-0.13
1:51:21.340,0.04,-0.11
1:51:21.344,0.025,-0.1
1:51:21.348,0.035,-0.085
1:51:21.352,0.005,-0.11
1:51:21.356,0.04,-0.07
1:51:21.360,0.0,-0.08
1:51:21.364,0.01,-0.07
1:51:21.368,0.01,-0.055
1:51:21.372,0.005,-0.055
1:51:21.376,0.005,-0.035
1:51:21.380,-0.005,-0.01
1:51:21.384,-0.01,0.0
1:51:21.388,-0.015,0.035
1:51:21.392,-0.025,0.04
1:51:21.396,0.0,0.075
1:51:21.400,-0.02,0.08
1:51:21.404,-0.03,0.105
1:51:21.408,-0.04,0.095
1:51:21.412,-0.04,0.1
1:51:21.416,-0.06,0.1
1:51:21.420,-0.04,0.15
1:51:21.424,-0.075,0.15
1:51:21.428,-0.07,0.17
1:51:21.432,-0.08,0.15
1:51:21.436,-0.085,0.13
1:51:21.440,-0.07,0.125
1:51:21.444,-0.06,0.11
1:51:21.448,-0.065,0.095
1:51:21.452,-0.07,0.095
1:51:21.456,-0.05,0.08
1:51:21.460,-0.04,0.12
1:51:21.464,-0.05,0.115
1:51:21.468,-0.045,0.095
1:51:21.472,-0.03,0.07
1:51:21.476,-0.05,0.09
1:51:21.480,-0.01,0.065
1:51:21.484,-0.005,0.06
1:51:21.488,-0.02,0.055
1:51:21.492,-0.01,0.035
1:51:21.496,-0.005,0.045
1:51:21.500,-0.025,0.075
1:51:21.504,-0.01,0.055
1:51:21.508,-0.015,0.035
1:51:21.512,0.0,0.025
1:51:21.516,-0.02,0.01
1:51:21.520,-0.01,-0.01
1:51:21.524,0.0,0.005
1:51:21.528,-0.01,0.04
1:51:21.532,-0.005,0.045
1:51:21.536,-0.03,0.035
1:51:21.540,0.005,0.015
1:51:21.544,0.0,0.005
1:51:21.548,0.005,0.005
1:51:21.552,0.01,0.01
1:51:21.556,0.005,-0.025
1:51:21.560,0.015,-0.015
1:51:21.564,0.005,0.005
1:51:21.568,0.015,-0.015
1:51:21.572,0.01,0.0
1:51:21.576,0.02,-0.04
1:51:21.580,0.02,-0.025
1:51:21.584,0.01,-0.02
1:51:21.588,0.025,-0.015
1:51:21.592,0.04,-0.01
1:51:21.596,0.04,-0.005
1:51:21.600,0.03,0.0
1:51:21.604,0.035,-0.005
1:51:21.608,0.03,-0.005
1:51:21.612,0.02,-0.015
1:51:21.616,0.025,-0.025
1:51:21.620,0.035,-0.04
1:51:21.624,0.005,-0.035
1:51:21.628,0.015,-0.005
1:51:21.632,0.015,-0.005
1:51:21.636,0.015,-0.015
1:51:21.640,0.015,-0.015
1:51:21.644,0.03,-0.01
1:51:21.648,0.005,-0.005
1:51:21.652,0.03,-0.015
1:51:21.656,0.03,-0.005
1:51:21.660,0.01,-0.025
1:51:21.664,0.0,-0.04
1:51:21.668,0.0,-0.015
1:51:21.672,0.01,-0.015
1:51:21.676,0.0,-0.025
1:51:21.680,0.01,-0.03
1:51:21.684,-0.005,-0.01
1:51:21.688,0.0,-0.02
1:51:21.692,0.0,-0.01
1:51:21.696,0.015,-0.02
1:51:21.700,0.0,-0.025
1:51:21.704,0.005,-0.05
1:51:21.708,0.01,-0.045
1:51:21.712,0.0,-0.04
1:51:21.716,-0.005,-0.055
1:51:21.720,-0.01,-0.03
1:51:21.724,-0.025,0.0
1:51:21.728,-0.03,0.0
1:51:21.732,-0.015,-0.035
1:51:21.736,-0.025,-0.04
1:51:21.740,-0.035,-0.045
1:51:21.744,-0.045,-0.045
1:51:21.748,-0.005,-0.02
1:51:21.752,-0.015,-0.01
1:51:21.756,-0.02,0.015
1:51:21.760,-0.04,0.045
1:51:21.764,-0.03,0.08
1:51:21.768,-0.005,0.085
1:51:21.772,-0.035,0.1
1:51:21.776,-0.015,0.13
1:51:21.780,0.005,0.135
1:51:21.784,0.02,0.13
1:51:21.788,0.045,0.145
1:51:21.792,0.05,0.195
1:51:21.796,0.07,0.205
1:51:21.800,0.085,0.205
1:51:21.804,0.09,0.175
1:51:21.808,0.1,0.15
1:51:21.812,0.09,0.16
1:51:21.816,0.07,0.14
1:51:21.820,0.06,0.145
1:51:21.824,0.05,0.145
1:51:21.828,0.005,0.095
1:51:21.832,-0.015,0.06
1:51:21.836,-0.05,0.0
1:51:21.840,-0.065,-0.025
1:51:21.844,-0.09,-0.015
1:51:21.848,-0.075,0.01
1:51:21.852,-0.085,0.01
1:51:21.856,-0.11,0.005
1:51:21.860,-0.095,0.015
1:51:21.864,-0.1,0.02
1:51:21.868,-0.095,0.015
1:51:21.872,-0.075,-0.005
1:51:21.876,-0.065,-0.005
1:51:21.880,-0.07,0.005
1:51:21.884,-0.06,0.01
1:51:21.888,-0.065,-0.01
1:51:21.892,-0.06,-0.04
1:51:21.896,-0.06,-0.08
1:51:21.900,-0.05,-0.105
1:51:21.904,-0.01,-0.085
1:51:21.908,0.005,-0.09
1:51:21.912,-0.005,-0.1
1:51:21.916,-0.01,-0.08
1:51:21.920,-0.02,-0.07
1:51:21.924,0.0,-0.07
1:51:21.928,-0.005,-0.085
1:51:21.932,-0.01,-0.07
1:51:21.936,-0.025,-0.07
1:51:21.940,-0.015,-0.065
1:51:21.944,-0.015,-0.09
1:51:21.948,-0.025,-0.075
1:51:21.952,-0.015,-0.045
1:51:21.956,-0.02,-0.005
1:51:21.960,-0.01,0.035
1:51:21.964,-0.02,0.05
1:51:21.968,-0.02,0.12
1:51:21.972,-0.01,0.365
1:51:21.976,-0.005,0.71
1:51:21.980,0.035,1.045
1:51:21.984,0.05,1.325
1:51:21.988,0.025,1.535
1:51:21.992,-0.005,1.68
1:51:21.996,-0.03,1.675
1:51:22.000,-0.045,1.505
1:51:22.004,-0.115,1.105
1:51:22.008,-0.315,0.58
1:51:22.012,-0.575,0.19
1:51:22.016,-0.92,0.115
1:51:22.020,-1.175,0.255
1:51:22.024,-1.35,0.16
1:51:22.028,-1.405,-0.135
1:51:22.032,-1.36,-0.39
1:51:22.036,-1.095,-0.56
1:51:22.040,-0.695,-0.61
1:51:22.044,-0.36,-0.595
1:51:22.048,-0.21,-0.52
1:51:22.052,-0.175,-0.4
1:51:22.056,-0.2,-0.29
1:51:22.060,-0.195,-0.25
1:51:22.064,-0.2,-0.245
1:51:22.068,-0.175,-0.245
1:51:22.072,-0.14,-0.24
1:51:22.076,-0.05,-0.27
1:51:22.080,-0.015,-0.26
1:51:22.084,0.04,-0.28
1:51:22.088,0.06,-0.22
1:51:22.092,0.055,-0.225
1:51:22.096,0.07,-0.24
1:51:22.100,0.085,-0.235
1:51:22.104,0.085,-0.245
1:51:22.108,0.08,-0.24
1:51:22.112,0.095,-0.225
1:51:22.116,0.1,-0.24
1:51:22.120,0.105,-0.24
1:51:22.124,0.075,-0.21
1:51:22.128,0.08,-0.195
1:51:22.132,0.1,-0.205
1:51:22.136,0.08,-0.195
1:51:22.140,0.085,-0.235
1:51:22.144,0.105,-0.22
1:51:22.148,0.095,-0.21
1:51:22.152,0.08,-0.215
1:51:22.156,0.1,-0.21
1:51:22.160,0.095,-0.225
1:51:22.164,0.095,-0.235
1:51:22.168,0.1,-0.235
1:51:22.172,0.095,-0.22
1:51:22.176,0.09,-0.215
1:51:22.180,0.08,-0.215
1:51:22.184,0.095,-0.23
1:51:22.188,0.075,-0.21
1:51:22.192,0.09,-0.215
1:51:22.196,0.085,-0.195
1:51:22.200,0.08,-0.185
1:51:22.204,0.065,-0.18
1:51:22.208,0.07,-0.21
1:51:22.212,0.085,-0.215
1:51:22.216,0.075,-0.19
1:51:22.220,0.08,-0.205
1:51:22.224,0.09,-0.2
1:51:22.228,0.07,-0.2
1:51:22.232,0.06,-0.185
1:51:22.236,0.06,-0.155
1:51:22.240,0.055,-0.14
1:51:22.244,0.05,-0.14
1:51:22.248,0.06,-0.13
1:51:22.252,0.055,-0.13
1:51:22.256,0.05,-0.11
1:51:22.260,0.025,-0.08
1:51:22.264,0.04,-0.06
1:51:22.268,0.035,-0.03
1:51:22.272,0.025,-0.01
1:51:22.276,0.005,-0.015
1:51:22.280,0.0,0.005
1:51:22.284,0.0,-0.01
1:51:22.288,-0.005,0.0
1:51:22.292,0.0,0.015
1:51:22.296,-0.015,0.035
1:51:22.300,-0.025,0.04
1:51:22.304,0.005,0.04
1:51:22.308,-0.025,0.025
1:51:22.312,-0.01,0.01
1:51:22.316,-0.035,0.015
1:51:22.320,-0.015,-0.005
1:51:22.324,-0.04,0.0
1:51:22.328,-0.02,0.005
1:51:22.332,-0.02,0.0
1:51:22.336,-0.025,0.01
1:51:22.340,-0.025,0.015
1:51:22.344,-0.01,-0.005
1:51:22.348,-0.015,-0.035
1:51:22.352,-0.02,-0.03
1:51:22.356,-0.015,-0.03
1:51:22.360,0.0,-0.03
1:51:22.364,-0.025,-0.06
1:51:22.368,-0.01,-0.03
1:51:22.372,0.005,-0.06
1:51:22.376,-0.01,-0.075
1:51:22.380,0.01,-0.095
1:51:22.384,0.0,-0.105
1:51:22.388,-0.01,-0.11
1:51:22.392,-0.01,-0.11
1:51:22.396,0.015,-0.13
1:51:22.400,0.015,-0.125
1:51:22.404,0.005,-0.125
1:51:22.408,0.02,-0.135
1:51:22.412,0.015,-0.115
1:51:22.416,0.02,-0.1
1:51:22.420,0.005,-0.105
1:51:22.424,-0.01,-0.13
1:51:22.428,0.0,-0.14
1:51:22.432,0.01,-0.14
1:51:22.436,0.025,-0.13
1:51:22.440,0.03,-0.13
1:51:22.444,0.02,-0.15
1:51:22.448,0.03,-0.135
1:51:22.452,0.01,-0.15
1:51:22.456,0.025,-0.155
1:51:22.460,0.05,-0.15
1:51:22.464,0.0,-0.16
1:51:22.468,0.02,-0.16
1:51:22.472,0.04,-0.16
1:51:22.476,0.03,-0.14
1:51:22.480,0.03,-0.165
1:51:22.484,0.025,-0.15
1:51:22.488,0.015,-0.17
1:51:22.492,0.02,-0.16
1:51:22.496,0.035,-0.16
1:51:22.500,0.015,-0.145
1:51:22.504,0.025,-0.15
1:51:22.508,0.035,-0.16
1:51:22.512,0.035,-0.16
1:51:22.516,0.02,-0.15
1:51:22.520,0.02,-0.135
1:51:22.524,0.03,-0.14
1:51:22.528,0.01,-0.125
1:51:22.532,0.01,-0.125
1:51:22.536,0.02,-0.14
1:51:22.540,0.01,-0.13
1:51:22.544,0.005,-0.14
1:51:22.548,0.015,-0.15
1:51:22.552,0.01,-0.14
1:51:22.556,0.015,-0.12
1:51:22.560,0.015,-0.12
1:51:22.564,0.025,-0.115
1:51:22.568,0.015,-0.125
1:51:22.572,0.015,-0.14
1:51:22.576,0.025,-0.15
1:51:22.580,0.015,-0.165
1:51:22.584,0.03,-0.19
1:51:22.588,0.015,-0.175
1:51:22.592,0.015,-0.155
1:51:22.596,0.0,-0.11
1:51:22.600,0.015,-0.115
1:51:22.604,0.005,-0.135
1:51:22.608,0.0,-0.12
1:51:22.612,0.0,-0.135
1:51:22.616,0.0,-0.14
1:51:22.620,0.015,-0.155
1:51:22.624,0.005,-0.135
1:51:22.628,0.01,-0.105
1:51:22.632,0.005,-0.14
1:51:22.636,0.015,-0.14
1:51:22.640,0.015,-0.135
1:51:22.644,0.035,-0.145
1:51:22.648,0.01,-0.09
1:51:22.652,0.02,-0.055
1:51:22.656,0.025,-0.06
1:51:22.660,0.025,-0.025
1:51:22.664,0.01,0.0
1:51:22.668,0.005,0.015
1:51:22.672,0.02,0.045
1:51:22.676,0.05,0.085
1:51:22.680,0.075,0.085
1:51:22.684,0.09,0.065
1:51:22.688,0.095,0.06
1:51:22.692,0.105,0.075
1:51:22.696,0.13,0.065
1:51:22.700,0.135,0.085
1:51:22.704,0.13,0.065
1:51:22.708,0.105,0.075
1:51:22.712,0.085,0.05
1:51:22.716,0.055,0.06
1:51:22.720,0.045,0.03
1:51:22.724,0.04,0.0
1:51:22.728,0.0,-0.05
1:51:22.732,-0.005,-0.095
1:51:22.736,-0.03,-0.13
1:51:22.740,-0.065,-0.135
1:51:22.744,-0.065,-0.11
1:51:22.748,-0.07,-0.08
1:51:22.752,-0.085,-0.045
1:51:22.756,-0.07,-0.05
1:51:22.760,-0.085,-0.04
1:51:22.764,-0.075,-0.08
1:51:22.768,-0.075,-0.105
1:51:22.772,-0.045,-0.1
1:51:22.776,-0.045,-0.11
1:51:22.780,-0.045,-0.13
1:51:22.784,-0.02,-0.16
1:51:22.788,-0.02,-0.165
1:51:22.792,-0.03,-0.185
1:51:22.796,0.0,-0.175
1:51:22.800,0.005,-0.16
1:51:22.804,0.005,-0.15
1:51:22.808,0.025,-0.17
1:51:22.812,-0.005,-0.175
1:51:22.816,-0.01,-0.18
1:51:22.820,0.015,-0.17
1:51:22.824,0.015,-0.165
1:51:22.828,0.005,-0.15
1:51:22.832,0.005,-0.155
1:51:22.836,-0.005,-0.14
1:51:22.840,-0.005,-0.155
1:51:22.844,-0.01,-0.135
1:51:22.848,-0.01,-0.11
1:51:22.852,-0.015,-0.07
1:51:22.856,0.0,-0.045
1:51:22.860,0.005,0.0
1:51:22.864,0.0,0.115
1:51:22.868,-0.005,0.385
1:51:22.872,0.02,0.725
1:51:22.876,0.045,1.02
1:51:22.880,0.065,1.27
1:51:22.884,0.025,1.47
1:51:22.888,-0.03,1.575
1:51:22.892,-0.03,1.52
1:51:22.896,-0.08,1.255
1:51:22.900,-0.21,0.775
1:51:22.904,-0.46,0.28
1:51:22.908,-0.76,0.025
1:51:22.912,-1.045,0.135
1:51:22.916,-1.305,0.23
1:51:22.920,-1.415,0.08
1:51:22.924,-1.425,-0.24
1:51:22.928,-1.3,-0.48
1:51:22.932,-0.96,-0.62
1:51:22.936,-0.565,-0.63
1:51:22.940,-0.26,-0.585
1:51:22.944,-0.17,-0.49
1:51:22.948,-0.155,-0.37
1:51:22.952,-0.175,-0.255
1:51:22.956,-0.16,-0.24
1:51:22.960,-0.165,-0.27
1:51:22.964,-0.125,-0.275
1:51:22.968,-0.07,-0.26
1:51:22.972,0.0,-0.265
1:51:22.976,0.04,-0.255
1:51:22.980,0.065,-0.26
1:51:22.984,0.07,-0.26
1:51:22.988,0.1,-0.24
1:51:22.992,0.09,-0.23
1:51:22.996,0.085,-0.21
1:51:23.000,0.095,-0.22
1:51:23.004,0.085,-0.205
1:51:23.008,0.095,-0.235
1:51:23.012,0.095,-0.22
1:51:23.016,0.09,-0.225
1:51:23.020,0.115,-0.24
1:51:23.024,0.09,-0.2
1:51:23.028,0.115,-0.225
1:51:23.032,0.1,-0.24
1:51:23.036,0.11,-0.23
1:51:23.040,0.09,-0.245
1:51:23.044,0.11,-0.22
1:51:23.048,0.095,-0.22
1:51:23.052,0.095,-0.22
1:51:23.056,0.095,-0.225
1:51:23.060,0.09,-0.225
1:51:23.064,0.085,-0.21
1:51:23.068,0.1,-0.22
1:51:23.072,0.085,-0.195
1:51:23.076,0.09,-0.205
1:51:23.080,0.075,-0.215
1:51:23.084,0.055,-0.215
1:51:23.088,0.07,-0.19
1:51:23.092,0.065,-0.215
1:51:23.096,0.065,-0.21
1:51:23.100,0.065,-0.21
1:51:23.104,0.05,-0.215
1:51:23.108,0.065,-0.225
1:51:23.112,0.04,-0.22
1:51:23.116,0.03,-0.19
1:51:23.120,0.03,-0.145
1:51:23.124,0.035,-0.14
1:51:23.128,0.03,-0.14
1:51:23.132,0.025,-0.15
1:51:23.136,0.015,-0.125
1:51:23.140,-0.005,-0.09
1:51:23.144,0.01,-0.075
1:51:23.148,0.01,-0.08
1:51:23.152,0.0,-0.04
1:51:23.156,-0.01,-0.02
1:51:23.160,-0.005,-0.025
1:51:23.164,-0.02,0.0
1:51:23.168,-0.035,0.0
1:51:23.172,-0.03,0.02
1:51:23.176,-0.045,0.045
1:51:23.180,-0.05,0.035
1:51:23.184,-0.06,0.01
1:51:23.188,-0.07,0.025
1:51:23.192,-0.075,0.035
1:51:23.196,-0.055,0.065
1:51:23.200,-0.055,0.075
1:51:23.204,-0.065,0.075
1:51:23.208,-0.07,0.055
1:51:23.212,-0.065,0.05
1:51:23.216,-0.07,0.04
1:51:23.220,-0.075,0.045
1:51:23.224,-0.045,0.03
1:51:23.228,-0.035,0.025
1:51:23.232,-0.035,0.005
1:51:23.236,-0.06,-0.025
1:51:23.240,-0.04,-0.03
1:51:23.244,-0.04,0.01
1:51:23.248,-0.025,0.0
1:51:23.252,-0.03,-0.01
1:51:23.256,-0.03,-0.05
1:51:23.260,-0.03,-0.035
1:51:23.264,-0.025,-0.04
1:51:23.268,-0.02,-0.06
1:51:23.272,-0.025,-0.07
1:51:23.276,-0.03,-0.075
1:51:23.280,-0.03,-0.055
1:51:23.284,-0.04,-0.05
1:51:23.288,-0.045,-0.05
1:51:23.292,-0.03,-0.07
1:51:23.296,-0.065,-0.075
1:51:23.300,-0.025,-0.085
1:51:23.304,-0.03,-0.115
1:51:23.308,-0.01,-0.115
1:51:23.312,-0.015,-0.105
1:51:23.316,0.0,-0.13
1:51:23.320,-0.025,-0.125
1:51:23.324,-0.025,-0.125
1:51:23.328,-0.01,-0.1
1:51:23.332,-0.02,-0.1
1:51:23.336,0.0,-0.115
1:51:23.340,0.0,-0.115
1:51:23.344,-0.01,-0.135
1:51:23.348,-0.005,-0.125
1:51:23.352,-0.01,-0.12
1:51:23.356,-0.005,-0.135
1:51:23.360,-0.01,-0.125
1:51:23.364,-0.01,-0.155
1:51:23.368,-0.02,-0.13
1:51:23.372,-0.005,-0.13
1:51:23.376,-0.015,-0.11
1:51:23.380,-0.03,-0.13
1:51:23.384,-0.03,-0.135
1:51:23.388,-0.015,-0.14
1:51:23.392,-0.025,-0.14
1:51:23.396,-0.035,-0.115
1:51:23.400,0.0,-0.1
1:51:23.404,0.0,-0.1
1:51:23.408,-0.04,-0.085
1:51:23.412,-0.04,-0.1
1:51:23.416,-0.025,-0.11
1:51:23.420,-0.035,-0.115
1:51:23.424,-0.04,-0.13
1:51:23.428,-0.025,-0.135
1:51:23.432,-0.025,-0.14
1:51:23.436,-0.035,-0.125
1:51:23.440,-0.05,-0.12
1:51:23.444,-0.055,-0.12
1:51:23.448,-0.04,-0.095
1:51:23.452,-0.04,-0.11
1:51:23.456,-0.04,-0.115
1:51:23.460,-0.055,-0.14
1:51:23.464,-0.035,-0.135
1:51:23.468,-0.06,-0.14
1:51:23.472,-0.05,-0.13
1:51:23.476,-0.055,-0.135
1:51:23.480,-0.065,-0.125
1:51:23.484,-0.055,-0.12
1:51:23.488,-0.05,-0.1
1:51:23.492,-0.05,-0.11
1:51:23.496,-0.07,-0.09
1:51:23.500,-0.065,-0.105
1:51:23.504,-0.045,-0.1
1:51:23.508,-0.075,-0.09
1:51:23.512,-0.06,-0.12
1:51:23.516,-0.055,-0.125
1:51:23.520,-0.055,-0.105
1:51:23.524,-0.045,-0.09
1:51:23.528,-0.045,-0.08
1:51:23.532,-0.05,-0.025
1:51:23.536,-0.06,0.0
1:51:23.540,-0.04,0.05
1:51:23.544,-0.03,0.055
1:51:23.548,-0.02,0.08
1:51:23.552,-0.01,0.055
1:51:23.556,0.0,0.075
1:51:23.560,0.01,0.09
1:51:23.564,0.03,0.095
1:51:23.568,0.065,0.05
1:51:23.572,0.06,0.035
1:51:23.576,0.045,0.07
1:51:23.580,0.045,0.065
1:51:23.584,0.05,0.095
1:51:23.588,0.05,0.075
1:51:23.592,0.025,0.06
1:51:23.596,-0.01,0.005
1:51:23.600,-0.02,-0.055
1:51:23.604,-0.06,-0.09
1:51:23.608,-0.08,-0.085
1:51:23.612,-0.08,-0.095
1:51:23.616,-0.07,-0.065
1:51:23.620,-0.105,-0.07
1:51:23.624,-0.125,-0.07
1:51:23.628,-0.12,-0.07
1:51:23.632,-0.105,-0.08
1:51:23.636,-0.1,-0.085
1:51:23.640,-0.095,-0.105
1:51:23.644,-0.085,-0.105
1:51:23.648,-0.085,-0.115
1:51:23.652,-0.075,-0.155
1:51:23.656,-0.07,-0.165
1:51:23.660,-0.07,-0.165
1:51:23.664,-0.06,-0.195
1:51:23.668,-0.05,-0.185
1:51:23.672,-0.02,-0.17
1:51:23.676,-0.035,-0.19
1:51:23.680,0.0,-0.17
1:51:23.684,-0.015,-0.19
1:51:23.688,-0.045,-0.175
1:51:23.692,-0.035,-0.17
1:51:23.696,-0.05,-0.17
1:51:23.700,-0.05,-0.15
1:51:23.704,-0.055,-0.16
1:51:23.708,-0.06,-0.16
1:51:23.712,-0.06,-0.16
1:51:23.716,-0.05,-0.145
1:51:23.720,-0.045,-0.075
1:51:23.724,-0.05,-0.035
1:51:23.728,-0.05,0.0
1:51:23.732,-0.065,0.14
1:51:23.736,-0.05,0.415
1:51:23.740,-0.03,0.74
1:51:23.744,-0.015,1.035
1:51:23.748,0.01,1.315
1:51:23.752,-0.02,1.54
1:51:23.756,-0.05,1.66
1:51:23.760,-0.095,1.63
1:51:23.764,-0.095,1.37
1:51:23.768,-0.225,0.875
1:51:23.772,-0.44,0.34
1:51:23.776,-0.725,0.05
1:51:23.780,-1.005,0.055
1:51:23.784,-1.185,0.01
1:51:23.788,-1.27,-0.24
1:51:23.792,-1.285,-0.475
1:51:23.796,-1.12,-0.64
1:51:23.800,-0.815,-0.7
1:51:23.804,-0.475,-0.715
1:51:23.808,-0.315,-0.66
1:51:23.812,-0.24,-0.5
1:51:23.816,-0.255,-0.395
1:51:23.820,-0.215,-0.345
1:51:23.824,-0.22,-0.36
1:51:23.828,-0.205,-0.36
1:51:23.832,-0.18,-0.355
1:51:23.836,-0.11,-0.35
1:51:23.840,-0.02,-0.35
1:51:23.844,0.005,-0.35
1:51:23.848,-0.005,-0.34
1:51:23.852,0.005,-0.335
1:51:23.856,0.04,-0.335
1:51:23.860,0.02,-0.355
1:51:23.864,0.015,-0.355
1:51:23.868,0.03,-0.34
1:51:23.872,0.055,-0.345
1:51:23.876,0.05,-0.34
1:51:23.880,0.045,-0.34
1:51:23.884,0.035,-0.33
1:51:23.888,0.045,-0.34
1:51:23.892,0.025,-0.34
1:51:23.896,0.05,-0.36
1:51:23.900,0.055,-0.345
1:51:23.904,0.03,-0.34
1:51:23.908,0.04,-0.33
1:51:23.912,0.025,-0.325
1:51:23.916,0.02,-0.335
1:51:23.920,0.045,-0.35
1:51:23.924,0.035,-0.34
1:51:23.928,0.06,-0.34
1:51:23.932,0.035,-0.315
1:51:23.936,0.04,-0.32
1:51:23.940,0.04,-0.34
1:51:23.944,0.025,-0.33
1:51:23.948,0.05,-0.335
1:51:23.952,0.06,-0.345
1:51:23.956,0.04,-0.35
1:51:23.960,0.04,-0.33
1:51:23.964,0.02,-0.33
1:51:23.968,0.015,-0.335
1:51:23.972,0.005,-0.335
1:51:23.976,0.015,-0.34
1:51:23.980,0.01,-0.335
1:51:23.984,0.005,-0.31
1:51:23.988,0.005,-0.325
1:51:23.992,0.0,-0.285
1:51:23.996,-0.01,-0.275
1:51:24.000,-0.005,-0.295
1:51:24.004,-0.025,-0.28
1:51:24.008,-0.035,-0.275
1:51:24.012,-0.015,-0.23
1:51:24.016,-0.035,-0.22
1:51:24.020,-0.025,-0.2
1:51:24.024,-0.04,-0.19
1:51:24.028,-0.035,-0.165
1:51:24.032,-0.05,-0.15
1:51:24.036,-0.075,-0.135
1:51:24.040,-0.065,-0.125
1:51:24.044,-0.06,-0.11
1:51:24.048,-0.06,-0.105
1:51:24.052,-0.085,-0.125
1:51:24.056,-0.095,-0.095
1:51:24.060,-0.1,-0.075
1:51:24.064,-0.075,-0.09
1:51:24.068,-0.1,-0.085
1:51:24.072,-0.095,-0.1
1:51:24.076,-0.095,-0.13
1:51:24.080,-0.085,-0.14
1:51:24.084,-0.1,-0.12
1:51:24.088,-0.09,-0.14
1:51:24.092,-0.09,-0.15
1:51:24.096,-0.095,-0.14
1:51:24.100,-0.08,-0.175
1:51:24.104,-0.095,-0.16
1:51:24.108,-0.06,-0.17
1:51:24.112,-0.07,-0.19
1:51:24.116,-0.07,-0.21
1:51:24.120,-0.08,-0.2
1:51:24.124,-0.065,-0.23
1:51:24.128,-0.095,-0.215
1:51:24.132,-0.07,-0.21
1:51:24.136,-0.06,-0.21
1:51:24.140,-0.055,-0.215
1:51:24.144,-0.05,-0.245
1:51:24.148,-0.045,-0.26
1:51:24.152,-0.045,-0.25
1:51:24.156,-0.065,-0.265
1:51:24.160,-0.065,-0.29
1:51:24.164,-0.075,-0.305
1:51:24.168,-0.065,-0.285
1:51:24.172,-0.05,-0.305
1:51:24.176,-0.065,-0.305
1:51:24.180,-0.06,-0.29
1:51:24.184,-0.065,-0.305
1:51:24.188,-0.045,-0.305
1:51:24.192,-0.035,-0.305
1:51:24.196,-0.05,-0.315
1:51:24.200,-0.045,-0.325
1:51:24.204,-0.04,-0.335
1:51:24.208,-0.04,-0.345
1:51:24.212,-0.045,-0.34
1:51:24.216,-0.035,-0.32
1:51:24.220,-0.045,-0.325
1:51:24.224,-0.02,-0.345
1:51:24.228,-0.02,-0.33
1:51:24.232,-0.025,-0.32
1:51:24.236,-0.06,-0.32
1:51:24.240,-0.035,-0.32
1:51:24.244,-0.055,-0.34
1:51:24.248,-0.035,-0.32
1:51:24.252,-0.03,-0.335
1:51:24.256,-0.035,-0.34
1:51:24.260,-0.04,-0.33
1:51:24.264,-0.05,-0.35
1:51:24.268,-0.05,-0.335
1:51:24.272,-0.04,-0.345
1:51:24.276,-0.04,-0.33
1:51:24.280,-0.05,-0.36
1:51:24.284,-0.06,-0.36
1:51:24.288,-0.065,-0.34
1:51:24.292,-0.04,-0.33
1:51:24.296,-0.06,-0.36
1:51:24.300,-0.06,-0.345
1:51:24.304,-0.06,-0.345
1:51:24.308,-0.06,-0.355
1:51:24.312,-0.06,-0.375
1:51:24.316,-0.065,-0.36
1:51:24.320,-0.045,-0.37
1:51:24.324,-0.06,-0.37
1:51:24.328,-0.04,-0.37
1:51:24.332,-0.065,-0.37
1:51:24.336,-0.065,-0.355
1:51:24.340,-0.055,-0.36
1:51:24.344,-0.06,-0.37
1:51:24.348,-0.05,-0.38
1:51:24.352,-0.055,-0.355
1:51:24.356,-0.06,-0.36
1:51:24.360,-0.045,-0.355
1:51:24.364,-0.065,-0.36
1:51:24.368,-0.055,-0.39
1:51:24.372,-0.04,-0.38
1:51:24.376,-0.055,-0.375
1:51:24.380,-0.07,-0.405
1:51:24.384,-0.035,-0.365
1:51:24.388,-0.065,-0.35
1:51:24.392,-0.06,-0.295
1:51:24.396,-0.05,-0.255
1:51:24.400,-0.05,-0.25
1:51:24.404,-0.06,-0.225
1:51:24.408,-0.06,-0.215
1:51:24.412,-0.035,-0.205
1:51:24.416,0.0,-0.19
1:51:24.420,0.0,-0.175
1:51:24.424,0.02,-0.17
1:51:24.428,0.03,-0.14
1:51:24.432,0.05,-0.175
1:51:24.436,0.065,-0.185
1:51:24.440,0.07,-0.185
1:51:24.444,0.05,-0.195
1:51:24.448,0.045,-0.205
1:51:24.452,0.05,-0.205
1:51:24.456,0.02,-0.24
1:51:24.460,0.0,-0.27
1:51:24.464,-0.04,-0.31
1:51:24.468,-0.07,-0.345
1:51:24.472,-0.08,-0.345
1:51:24.476,-0.09,-0.32
1:51:24.480,-0.115,-0.33
1:51:24.484,-0.11,-0.33
1:51:24.488,-0.135,-0.32
1:51:24.492,-0.155,-0.315
1:51:24.496,-0.135,-0.32
1:51:24.500,-0.125,-0.31
1:51:24.504,-0.125,-0.34
1:51:24.508,-0.08,-0.355
1:51:24.512,-0.09,-0.345
1:51:24.516,-0.07,-0.34
1:51:24.520,-0.08,-0.38
1:51:24.524,-0.08,-0.415
1:51:24.528,-0.09,-0.435
1:51:24.532,-0.07,-0.43
1:51:24.536,-0.03,-0.415
1:51:24.540,-0.01,-0.405
1:51:24.544,-0.025,-0.41
1:51:24.548,-0.03,-0.435
1:51:24.552,-0.015,-0.425
1:51:24.556,-0.03,-0.435
1:51:24.560,-0.04,-0.42
1:51:24.564,-0.03,-0.425
1:51:24.568,-0.03,-0.425
1:51:24.572,-0.02,-0.42
1:51:24.576,-0.03,-0.42
1:51:24.580,-0.025,-0.425
1:51:24.584,-0.035,-0.4
1:51:24.588,-0.025,-0.34
1:51:24.592,-0.015,-0.265
1:51:24.596,-0.035,-0.25
1:51:24.600,-0.025,-0.15
1:51:24.604,-0.025,0.075
1:51:24.608,0.01,0.405
1:51:24.612,0.02,0.76
1:51:24.616,0.055,1.05
1:51:24.620,0.035,1.31
1:51:24.624,0.015,1.495
1:51:24.628,-0.025,1.515
1:51:24.632,-0.035,1.31
1:51:24.636,-0.12,0.88
1:51:24.640,-0.32,0.31
1:51:24.644,-0.605,-0.11
1:51:24.648,-0.9,-0.17
1:51:24.652,-1.165,-0.11
1:51:24.656,-1.305,-0.21
1:51:24.660,-1.375,-0.495
1:51:24.664,-1.285,-0.75
1:51:24.668,-1.045,-0.87
1:51:24.672,-0.67,-0.94
1:51:24.676,-0.35,-0.925
1:51:24.680,-0.23,-0.815
1:51:24.684,-0.2,-0.685
1:51:24.688,-0.19,-0.595
1:51:24.692,-0.16,-0.56
1:51:24.696,-0.155,-0.555
1:51:24.700,-0.125,-0.555
1:51:24.704,-0.1,-0.57
1:51:24.708,-0.035,-0.565
1:51:24.712,0.02,-0.565
1:51:24.716,0.065,-0.55
1:51:24.720,0.075,-0.535
1:51:24.724,0.075,-0.525
1:51:24.728,0.08,-0.55
1:51:24.732,0.06,-0.53
1:51:24.736,0.06,-0.53
1:51:24.740,0.085,-0.55
1:51:24.744,0.085,-0.545
1:51:24.748,0.085,-0.545
1:51:24.752,0.075,-0.535
1:51:24.756,0.105,-0.545
1:51:24.760,0.105,-0.57
1:51:24.764,0.085,-0.54
1:51:24.768,0.08,-0.52
1:51:24.772,0.065,-0.56
1:51:24.776,0.07,-0.525
1:51:24.780,0.08,-0.515
1:51:24.784,0.09,-0.535
1:51:24.788,0.095,-0.53
1:51:24.792,0.085,-0.54
1:51:24.796,0.085,-0.555
1:51:24.800,0.1,-0.525
1:51:24.804,0.055,-0.525
1:51:24.808,0.105,-0.53
1:51:24.812,0.1,-0.52
1:51:24.816,0.08,-0.52
1:51:24.820,0.105,-0.52
1:51:24.824,0.07,-0.52
1:51:24.828,0.085,-0.53
1:51:24.832,0.075,-0.525
1:51:24.836,0.075,-0.53
1:51:24.840,0.075,-0.54
1:51:24.844,0.08,-0.54
1:51:24.848,0.08,-0.545
1:51:24.852,0.06,-0.525
1:51:24.856,0.065,-0.5
1:51:24.860,0.06,-0.485
1:51:24.864,0.07,-0.47
1:51:24.868,0.05,-0.48
1:51:24.872,0.05,-0.47
1:51:24.876,0.025,-0.48
1:51:24.880,0.055,-0.455
1:51:24.884,0.035,-0.43
1:51:24.888,0.015,-0.4
1:51:24.892,0.025,-0.38
1:51:24.896,0.05,-0.355
1:51:24.900,0.04,-0.355
1:51:24.904,0.015,-0.355
1:51:24.908,0.0,-0.34
1:51:24.912,-0.02,-0.305
1:51:24.916,0.0,-0.31
1:51:24.920,-0.025,-0.28
1:51:24.924,-0.025,-0.27
1:51:24.928,-0.035,-0.265
1:51:24.932,-0.03,-0.255
1:51:24.936,-0.04,-0.27
1:51:24.940,-0.03,-0.275
1:51:24.944,-0.025,-0.28
1:51:24.948,-0.035,-0.275
1:51:24.952,-0.04,-0.29
1:51:24.956,-0.035,-0.305
1:51:24.960,-0.015,-0.31
1:51:24.964,-0.01,-0.295
1:51:24.968,-0.015,-0.325
1:51:24.972,-0.025,-0.33
1:51:24.976,-0.02,-0.345
1:51:24.980,-0.025,-0.355
1:51:24.984,-0.015,-0.345
1:51:24.988,-0.04,-0.345
1:51:24.992,-0.01,-0.345
1:51:24.996,-0.02,-0.36
1:51:25.000,0.0,-0.36
1:51:25.004,-0.02,-0.355
1:51:25.008,-0.02,-0.385
1:51:25.012,-0.025,-0.385
1:51:25.016,0.0,-0.415
1:51:25.020,0.005,-0.43
1:51:25.024,0.0,-0.4
1:51:25.028,0.0,-0.38
1:51:25.032,0.005,-0.39
1:51:25.036,0.0,-0.405
1:51:25.040,0.0,-0.415
1:51:25.044,-0.01,-0.425
1:51:25.048,0.01,-0.46
1:51:25.052,0.0,-0.46
1:51:25.056,0.005,-0.455
1:51:25.060,-0.01,-0.43
1:51:25.064,0.02,-0.425
1:51:25.068,0.01,-0.435
1:51:25.072,0.0,-0.43
1:51:25.076,0.0,-0.44
1:51:25.080,0.015,-0.475
1:51:25.084,-0.01,-0.475
1:51:25.088,0.02,-0.465
1:51:25.092,0.0,-0.46
1:51:25.096,0.0,-0.47
1:51:25.100,-0.005,-0.48
1:51:25.104,0.005,-0.505
1:51:25.108,0.0,-0.465
1:51:25.112,-0.015,-0.455
1:51:25.116,-0.01,-0.445
1:51:25.120,0.0,-0.46
1:51:25.124,-0.01,-0.445
1:51:25.128,0.0,-0.47
1:51:25.132,0.0,-0.475
1:51:25.136,-0.005,-0.48
1:51:25.140,0.01,-0.465
1:51:25.144,-0.02,-0.47
1:51:25.148,-0.02,-0.475
1:51:25.152,0.0,-0.48
1:51:25.156,-0.01,-0.48
1:51:25.160,-0.02,-0.46
1:51:25.164,-0.045,-0.48
1:51:25.168,-0.02,-0.465
1:51:25.172,-0.045,-0.465
1:51:25.176,-0.015,-0.48
1:51:25.180,-0.045,-0.475
1:51:25.184,-0.055,-0.485
1:51:25.188,-0.03,-0.5
1:51:25.192,-0.01,-0.475
1:51:25.196,-0.04,-0.48
1:51:25.200,-0.03,-0.48
1:51:25.204,-0.035,-0.47
1:51:25.208,-0.055,-0.475
1:51:25.212,-0.055,-0.455
1:51:25.216,-0.04,-0.475
1:51:25.220,-0.035,-0.465
1:51:25.224,-0.045,-0.47
1:51:25.228,-0.025,-0.505
1:51:25.232,-0.025,-0.5
1:51:25.236,-0.05,-0.485
1:51:25.240,-0.06,-0.5
1:51:25.244,-0.04,-0.49
1:51:25.248,-0.05,-0.45
1:51:25.252,-0.065,-0.465
1:51:25.256,-0.045,-0.46
1:51:25.260,-0.05,-0.45
1:51:25.264,-0.05,-0.455
1:51:25.268,-0.03,-0.46
1:51:25.272,-0.04,-0.425
1:51:25.276,-0.065,-0.37
1:51:25.280,-0.05,-0.355
1:51:25.284,-0.04,-0.315
1:51:25.288,-0.035,-0.3
1:51:25.292,-0.035,-0.3
1:51:25.296,0.0,-0.29
1:51:25.300,0.01,-0.25
1:51:25.304,0.03,-0.255
1:51:25.308,0.045,-0.245
1:51:25.312,0.08,-0.25
1:51:25.316,0.07,-0.285
1:51:25.320,0.075,-0.285
1:51:25.324,0.09,-0.28
1:51:25.328,0.03,-0.285
1:51:25.332,0.015,-0.315
1:51:25.336,-0.03,-0.32
1:51:25.340,-0.035,-0.36
1:51:25.344,-0.06,-0.405
1:51:25.348,-0.085,-0.45
1:51:25.352,-0.085,-0.45
1:51:25.356,-0.115,-0.44
1:51:25.360,-0.12,-0.45
1:51:25.364,-0.09,-0.42
1:51:25.368,-0.13,-0.395
1:51:25.372,-0.135,-0.395
1:51:25.376,-0.125,-0.4
1:51:25.380,-0.12,-0.445
1:51:25.384,-0.12,-0.45
1:51:25.388,-0.1,-0.46
1:51:25.392,-0.085,-0.455
1:51:25.396,-0.065,-0.445
1:51:25.400,-0.085,-0.49
1:51:25.404,-0.07,-0.525
1:51:25.408,-0.085,-0.525
1:51:25.412,-0.06,-0.54
1:51:25.416,-0.025,-0.54
1:51:25.420,-0.005,-0.48
1:51:25.424,-0.035,-0.495
1:51:25.428,-0.04,-0.495
1:51:25.432,-0.035,-0.5
1:51:25.436,-0.035,-0.515
1:51:25.440,-0.025,-0.515
1:51:25.444,-0.025,-0.52
1:51:25.448,-0.025,-0.505
1:51:25.452,-0.03,-0.49
1:51:25.456,-0.025,-0.48
1:51:25.460,-0.01,-0.46
1:51:25.464,-0.03,-0.445
1:51:25.468,-0.04,-0.39
1:51:25.472,-0.04,-0.38
1:51:25.476,-0.025,-0.305
1:51:25.480,-0.03,-0.085
1:51:25.484,-0.02,0.235
1:51:25.488,0.0,0.59
1:51:25.492,0.035,0.87
1:51:25.496,0.035,1.11
1:51:25.500,-0.01,1.27
1:51:25.504,-0.03,1.275
1:51:25.508,-0.04,1.1
1:51:25.512,-0.09,0.69
1:51:25.516,-0.32,0.14
1:51:25.520,-0.59,-0.22
1:51:25.524,-0.905,-0.22
1:51:25.528,-1.19,-0.125
1:51:25.532,-1.37,-0.265
1:51:25.536,-1.415,-0.585
1:51:25.540,-1.36,-0.865
1:51:25.544,-1.035,-0.96
1:51:25.548,-0.645,-0.99
1:51:25.552,-0.315,-0.945
1:51:25.556,-0.185,-0.83
1:51:25.560,-0.18,-0.72
1:51:25.564,-0.185,-0.64
1:51:25.568,-0.19,-0.63
1:51:25.572,-0.19,-0.625
1:51:25.576,-0.14,-0.6
1:51:25.580,-0.075,-0.585
1:51:25.584,-0.015,-0.575
1:51:25.588,0.025,-0.57
1:51:25.592,0.075,-0.585
1:51:25.596,0.07,-0.58
1:51:25.600,0.08,-0.58
1:51:25.604,0.075,-0.6
1:51:25.608,0.075,-0.6
1:51:25.612,0.09,-0.59
1:51:25.616,0.1,-0.59
1:51:25.620,0.1,-0.58
1:51:25.624,0.11,-0.57
1:51:25.628,0.095,-0.565
1:51:25.632,0.11,-0.57
1:51:25.636,0.105,-0.565
1:51:25.640,0.12,-0.575
1:51:25.644,0.12,-0.58
1:51:25.648,0.145,-0.58
1:51:25.652,0.13,-0.57
1:51:25.656,0.125,-0.57
1:51:25.660,0.115,-0.555
1:51:25.664,0.095,-0.57
1:51:25.668,0.12,-0.565
1:51:25.672,0.115,-0.56
1:51:25.676,0.105,-0.56
1:51:25.680,0.12,-0.57
1:51:25.684,0.11,-0.555
1:51:25.688,0.1,-0.555
1:51:25.692,0.1,-0.555
1:51:25.696,0.125,-0.555
1:51:25.700,0.11,-0.54
1:51:25.704,0.1,-0.555
1:51:25.708,0.095,-0.555
1:51:25.712,0.08,-0.545
1:51:25.716,0.08,-0.55
1:51:25.720,0.09,-0.535
1:51:25.724,0.085,-0.52
1:51:25.728,0.095,-0.525
1:51:25.732,0.09,-0.49
1:51:25.736,0.055,-0.495
1:51:25.740,0.09,-0.47
1:51:25.744,0.06,-0.47
1:51:25.748,0.055,-0.465
1:51:25.752,0.03,-0.425
1:51:25.756,0.055,-0.4
1:51:25.760,0.065,-0.385
1:51:25.764,0.04,-0.37
1:51:25.768,0.045,-0.37
1:51:25.772,0.02,-0.36
1:51:25.776,0.025,-0.34
1:51:25.780,0.01,-0.315
1:51:25.784,0.01,-0.295
1:51:25.788,0.01,-0.29
1:51:25.792,-0.01,-0.29
1:51:25.796,-0.025,-0.275
1:51:25.800,-0.035,-0.27
1:51:25.804,-0.02,-0.27
1:51:25.808,-0.02,-0.27
1:51:25.812,-0.01,-0.31
1:51:25.816,-0.01,-0.345
1:51:25.820,0.0,-0.315
1:51:25.824,-0.01,-0.3
1:51:25.828,-0.01,-0.31
1:51:25.832,-0.01,-0.315
1:51:25.836,0.01,-0.315
1:51:25.840,-0.01,-0.345
1:51:25.844,-0.015,-0.355
1:51:25.848,0.0,-0.345
1:51:25.852,0.005,-0.33
1:51:25.856,0.0,-0.34
1:51:25.860,0.0,-0.365
1:51:25.864,0.01,-0.37
1:51:25.868,-0.02,-0.38
1:51:25.872,-0.01,-0.41
1:51:25.876,0.01,-0.4
1:51:25.880,0.02,-0.4
1:51:25.884,0.015,-0.39
1:51:25.888,0.005,-0.385
1:51:25.892,0.0,-0.395
1:51:25.896,0.01,-0.42
1:51:25.900,-0.005,-0.435
1:51:25.904,0.005,-0.45
1:51:25.908,0.0,-0.44
1:51:25.912,0.005,-0.45
1:51:25.916,0.015,-0.445
1:51:25.920,0.005,-0.44
1:51:25.924,-0.01,-0.45
1:51:25.928,0.0,-0.46
1:51:25.932,0.005,-0.435
1:51:25.936,0.0,-0.445
1:51:25.940,0.0,-0.46
1:51:25.944,0.0,-0.47
1:51:25.948,0.015,-0.48
1:51:25.952,0.02,-0.495
1:51:25.956,0.025,-0.505
1:51:25.960,0.01,-0.49
1:51:25.964,0.02,-0.47
1:51:25.968,0.03,-0.45
1:51:25.972,0.025,-0.46
1:51:25.976,0.04,-0.465
1:51:25.980,0.02,-0.46
1:51:25.984,0.0,-0.455
1:51:25.988,0.015,-0.45
1:51:25.992,0.01,-0.465
1:51:25.996,0.015,-0.46
1:51:26.000,0.015,-0.46
1:51:26.004,0.005,-0.46
1:51:26.008,0.01,-0.45
1:51:26.012,0.0,-0.45
1:51:26.016,0.01,-0.44
1:51:26.020,0.0,-0.45
1:51:26.024,-0.02,-0.445
1:51:26.028,0.0,-0.46
1:51:26.032,-0.005,-0.445
1:51:26.036,-0.015,-0.465
1:51:26.040,-0.025,-0.47
1:51:26.044,-0.03,-0.44
1:51:26.048,-0.02,-0.44
1:51:26.052,-0.02,-0.445
1:51:26.056,-0.025,-0.45
1:51:26.060,-0.03,-0.43
1:51:26.064,-0.025,-0.46
1:51:26.068,-0.03,-0.465
1:51:26.072,-0.03,-0.45
1:51:26.076,-0.02,-0.46
1:51:26.080,-0.005,-0.48
1:51:26.084,-0.01,-0.46
1:51:26.088,-0.025,-0.465
1:51:26.092,-0.025,-0.475
1:51:26.096,-0.045,-0.46
1:51:26.100,-0.04,-0.46
1:51:26.104,-0.03,-0.445
1:51:26.108,-0.04,-0.44
1:51:26.112,-0.06,-0.43
1:51:26.116,-0.055,-0.445
1:51:26.120,-0.05,-0.445
1:51:26.124,-0.07,-0.45
1:51:26.128,-0.055,-0.44
1:51:26.132,-0.055,-0.43
1:51:26.136,-0.055,-0.43
1:51:26.140,-0.06,-0.38
1:51:26.144,-0.06,-0.34
1:51:26.148,-0.065,-0.295
1:51:26.152,-0.05,-0.285
1:51:26.156,-0.045,-0.265
1:51:26.160,-0.03,-0.27
1:51:26.164,0.0,-0.265
1:51:26.168,0.015,-0.265
1:51:26.172,0.035,-0.255
1:51:26.176,0.06,-0.24
1:51:26.180,0.055,-0.26
1:51:26.184,0.065,-0.27
1:51:26.188,0.06,-0.25
1:51:26.192,0.05,-0.23
1:51:26.196,0.03,-0.275
1:51:26.200,0.015,-0.31
1:51:26.204,-0.03,-0.32
1:51:26.208,-0.03,-0.365
1:51:26.212,-0.06,-0.42
1:51:26.216,-0.1,-0.4
1:51:26.220,-0.105,-0.41
1:51:26.224,-0.1,-0.43
1:51:26.228,-0.12,-0.42
1:51:26.232,-0.13,-0.4
1:51:26.236,-0.135,-0.38
1:51:26.240,-0.12,-0.375
1:51:26.244,-0.105,-0.4
1:51:26.248,-0.11,-0.44
1:51:26.252,-0.1,-0.445
1:51:26.256,-0.09,-0.425
1:51:26.260,-0.08,-0.425
1:51:26.264,-0.1,-0.46
1:51:26.268,-0.09,-0.51
1:51:26.272,-0.075,-0.515
1:51:26.276,-0.06,-0.48
1:51:26.280,-0.035,-0.47
1:51:26.284,0.0,-0.485
1:51:26.288,-0.01,-0.52
1:51:26.292,-0.03,-0.48
1:51:26.296,-0.03,-0.475
1:51:26.300,-0.045,-0.505
1:51:26.304,-0.065,-0.49
1:51:26.308,-0.065,-0.495
1:51:26.312,-0.065,-0.465
1:51:26.316,-0.035,-0.47
1:51:26.320,-0.06,-0.5
1:51:26.324,-0.075,-0.46
1:51:26.328,-0.04,-0.445
1:51:26.332,-0.07,-0.405
1:51:26.336,-0.07,-0.34
1:51:26.340,-0.04,-0.295
1:51:26.344,-0.065,-0.22
1:51:26.348,-0.06,-0.01
1:51:26.352,-0.03,0.3
1:51:26.356,-0.005,0.585
1:51:26.360,0.02,0.9
1:51:26.364,-0.005,1.115
1:51:26.368,-0.04,1.285
1:51:26.372,-0.06,1.32
1:51:26.376,-0.08,1.185
1:51:26.380,-0.155,0.82
1:51:26.384,-0.32,0.31
1:51:26.388,-0.58,-0.12
1:51:26.392,-0.89,-0.245
1:51:26.396,-1.15,-0.21
1:51:26.400,-1.295,-0.335
1:51:26.404,-1.345,-0.575
1:51:26.408,-1.33,-0.795
1:51:26.412,-1.105,-0.895
1:51:26.416,-0.745,-0.96
1:51:26.420,-0.44,-0.975
1:51:26.424,-0.3,-0.89
1:51:26.428,-0.275,-0.775
1:51:26.432,-0.25,-0.665
1:51:26.436,-0.24,-0.615
1:51:26.440,-0.22,-0.61
1:51:26.444,-0.2,-0.615
1:51:26.448,-0.16,-0.615
1:51:26.452,-0.1,-0.605
1:51:26.456,-0.03,-0.59
1:51:26.460,0.0,-0.595
1:51:26.464,0.025,-0.58
1:51:26.468,0.04,-0.595
1:51:26.472,0.035,-0.61
1:51:26.476,0.04,-0.61
1:51:26.480,0.07,-0.595
1:51:26.484,0.07,-0.615
1:51:26.488,0.06,-0.59
1:51:26.492,0.045,-0.59
1:51:26.496,0.06,-0.6
1:51:26.500,0.065,-0.59
1:51:26.504,0.07,-0.595
1:51:26.508,0.06,-0.585
1:51:26.512,0.06,-0.6
1:51:26.516,0.055,-0.565
1:51:26.520,0.045,-0.585
1:51:26.524,0.035,-0.595
1:51:26.528,0.045,-0.6
1:51:26.532,0.04,-0.57
1:51:26.536,0.04,-0.57
1:51:26.540,0.065,-0.575
1:51:26.544,0.07,-0.6
1:51:26.548,0.07,-0.57
1:51:26.552,0.07,-0.57
1:51:26.556,0.045,-0.585
1:51:26.560,0.06,-0.565
1:51:26.564,0.07,-0.57
1:51:26.568,0.035,-0.57
1:51:26.572,0.045,-0.545
1:51:26.576,0.03,-0.555
1:51:26.580,0.03,-0.57
1:51:26.584,0.03,-0.57
1:51:26.588,0.04,-0.54
1:51:26.592,0.055,-0.545
1:51:26.596,0.045,-0.525
1:51:26.600,0.06,-0.54
1:51:26.604,0.035,-0.53
1:51:26.608,0.025,-0.55
1:51:26.612,0.03,-0.545
1:51:26.616,0.02,-0.51
1:51:26.620,-0.015,-0.49
1:51:26.624,0.005,-0.47
1:51:26.628,0.005,-0.45
1:51:26.632,-0.04,-0.44
1:51:26.636,0.005,-0.415
1:51:26.640,-0.015,-0.405
1:51:26.644,-0.005,-0.38
1:51:26.648,-0.02,-0.34
1:51:26.652,-0.02,-0.32
1:51:26.656,-0.025,-0.32
1:51:26.660,-0.035,-0.31
1:51:26.664,-0.04,-0.305
1:51:26.668,-0.055,-0.275
1:51:26.672,-0.06,-0.26
1:51:26.676,-0.05,-0.265
1:51:26.680,-0.065,-0.28
1:51:26.684,-0.06,-0.285
1:51:26.688,-0.03,-0.26
1:51:26.692,-0.05,-0.26
1:51:26.696,-0.06,-0.275
1:51:26.700,-0.045,-0.275
1:51:26.704,-0.04,-0.28
1:51:26.708,-0.05,-0.28
1:51:26.712,-0.04,-0.3
1:51:26.716,-0.045,-0.3
1:51:26.720,-0.03,-0.305
1:51:26.724,-0.045,-0.315
1:51:26.728,-0.03,-0.31
1:51:26.732,-0.025,-0.31
1:51:26.736,-0.01,-0.325
1:51:26.740,-0.035,-0.315
1:51:26.744,-0.035,-0.335
1:51:26.748,-0.01,-0.32
1:51:26.752,-0.01,-0.325
1:51:26.756,-0.025,-0.35
1:51:26.760,-0.015,-0.35
1:51:26.764,-0.01,-0.365
1:51:26.768,-0.035,-0.36
1:51:26.772,-0.025,-0.36
1:51:26.776,-0.03,-0.365
1:51:26.780,-0.035,-0.365
1:51:26.784,-0.03,-0.39
1:51:26.788,-0.03,-0.395
1:51:26.792,-0.02,-0.39
1:51:26.796,-0.04,-0.39
1:51:26.800,-0.015,-0.4
1:51:26.804,-0.04,-0.385
1:51:26.808,-0.025,-0.405
1:51:26.812,-0.03,-0.41
1:51:26.816,-0.02,-0.43
1:51:26.820,-0.035,-0.4
1:51:26.824,-0.01,-0.415
1:51:26.828,-0.01,-0.41
1:51:26.832,-0.025,-0.41
1:51:26.836,-0.025,-0.41
1:51:26.840,-0.01,-0.395
1:51:26.844,0.005,-0.385
1:51:26.848,-0.01,-0.405
1:51:26.852,-0.015,-0.41
1:51:26.856,-0.015,-0.405
1:51:26.860,-0.01,-0.42
1:51:26.864,-0.015,-0.41
1:51:26.868,-0.02,-0.415
1:51:26.872,-0.015,-0.415
1:51:26.876,-0.025,-0.39
1:51:26.880,0.0,-0.41
1:51:26.884,0.0,-0.405
1:51:26.888,-0.01,-0.405
1:51:26.892,-0.025,-0.4
1:51:26.896,-0.005,-0.415
1:51:26.900,0.0,-0.395
1:51:26.904,-0.025,-0.38
1:51:26.908,-0.02,-0.405
1:51:26.912,-0.03,-0.405
1:51:26.916,-0.03,-0.4
1:51:26.920,-0.025,-0.39
1:51:26.924,0.0,-0.38
1:51:26.928,-0.02,-0.385
1:51:26.932,-0.035,-0.385
1:51:26.936,-0.04,-0.37
1:51:26.940,-0.045,-0.385
1:51:26.944,-0.025,-0.37
1:51:26.948,-0.015,-0.38
1:51:26.952,-0.055,-0.38
1:51:26.956,-0.05,-0.395
1:51:26.960,-0.05,-0.36
1:51:26.964,-0.04,-0.36
1:51:26.968,-0.04,-0.375
1:51:26.972,-0.035,-0.39
1:51:26.976,-0.055,-0.385
1:51:26.980,-0.05,-0.37
1:51:26.984,-0.06,-0.38
1:51:26.988,-0.06,-0.375
1:51:26.992,-0.05,-0.36
1:51:26.996,-0.06,-0.37
1:51:27.000,-0.07,-0.365
1:51:27.004,-0.04,-0.38
1:51:27.008,-0.06,-0.375
1:51:27.012,-0.065,-0.355
1:51:27.016,-0.035,-0.35
1:51:27.020,-0.045,-0.325
1:51:27.024,-0.04,-0.305
1:51:27.028,-0.065,-0.265
1:51:27.032,-0.04,-0.24
1:51:27.036,-0.055,-0.205
1:51:27.040,-0.03,-0.18
1:51:27.044,-0.02,-0.165
1:51:27.048,-0.015,-0.165
1:51:27.052,0.005,-0.17
1:51:27.056,0.035,-0.165
1:51:27.060,0.04,-0.17
1:51:27.064,0.06,-0.175
1:51:27.068,0.065,-0.21
1:51:27.072,0.07,-0.195
1:51:27.076,0.05,-0.175
1:51:27.080,0.035,-0.175
1:51:27.084,0.045,-0.17
1:51:27.088,0.0,-0.165
1:51:27.092,-0.03,-0.235
1:51:27.096,-0.07,-0.305
1:51:27.100,-0.095,-0.33
1:51:27.104,-0.095,-0.32
1:51:27.108,-0.11,-0.305
1:51:27.112,-0.095,-0.32
1:51:27.116,-0.11,-0.305
1:51:27.120,-0.13,-0.29
1:51:27.124,-0.12,-0.28
1:51:27.128,-0.12,-0.29
1:51:27.132,-0.13,-0.315
1:51:27.136,-0.11,-0.32
1:51:27.140,-0.1,-0.32
1:51:27.144,-0.1,-0.34
1:51:27.148,-0.075,-0.35
1:51:27.152,-0.075,-0.365
1:51:27.156,-0.08,-0.4
1:51:27.160,-0.085,-0.425
1:51:27.164,-0.065,-0.41
1:51:27.168,-0.05,-0.41
1:51:27.172,-0.02,-0.39
1:51:27.176,-0.04,-0.39
1:51:27.180,-0.04,-0.37
1:51:27.184,-0.055,-0.38
1:51:27.188,-0.05,-0.375
1:51:27.192,-0.08,-0.405
1:51:27.196,-0.06,-0.395
1:51:27.200,-0.05,-0.375
1:51:27.204,-0.04,-0.365
1:51:27.208,-0.045,-0.365
1:51:27.212,-0.04,-0.35
1:51:27.216,-0.04,-0.32
1:51:27.220,-0.05,-0.29
1:51:27.224,-0.045,-0.265
1:51:27.228,-0.045,-0.24
1:51:27.232,-0.03,-0.19
1:51:27.236,-0.025,-0.04
1:51:27.240,-0.04,0.26
1:51:27.244,0.005,0.59
1:51:27.248,0.035,0.915
1:51:27.252,0.02,1.19
1:51:27.256,-0.015,1.42
1:51:27.260,-0.01,1.585
1:51:27.264,-0.03,1.59
1:51:27.268,-0.06,1.35
1:51:27.272,-0.18,0.89
1:51:27.276,-0.36,0.325
1:51:27.280,-0.64,-0.035
1:51:27.284,-0.915,-0.105
1:51:27.288,-1.15,-0.09
1:51:27.292,-1.265,-0.23
1:51:27.296,-1.31,-0.525
1:51:27.300,-1.21,-0.75
1:51:27.304,-0.92,-0.83
1:51:27.308,-0.565,-0.86
1:51:27.312,-0.31,-0.82
1:51:27.316,-0.2,-0.725
1:51:27.320,-0.17,-0.605
1:51:27.324,-0.19,-0.53
1:51:27.328,-0.19,-0.51
1:51:27.332,-0.18,-0.515
1:51:27.336,-0.145,-0.49
1:51:27.340,-0.075,-0.48
1:51:27.344,-0.025,-0.455
1:51:27.348,0.02,-0.46
1:51:27.352,0.055,-0.42
1:51:27.356,0.065,-0.44
1:51:27.360,0.07,-0.44
1:51:27.364,0.095,-0.445
1:51:27.368,0.105,-0.435
1:51:27.372,0.11,-0.45
1:51:27.376,0.14,-0.47
1:51:27.380,0.16,-0.48
1:51:27.384,0.135,-0.505
1:51:27.388,0.14,-0.525
1:51:27.392,0.135,-0.525
1:51:27.396,0.13,-0.46
1:51:27.400,0.13,-0.43
1:51:27.404,0.125,-0.39
1:51:27.408,0.14,-0.4
1:51:27.412,0.08,-0.405
1:51:27.416,0.07,-0.395
1:51:27.420,0.1,-0.37
1:51:27.424,0.095,-0.39
1:51:27.428,0.145,-0.385
1:51:27.432,0.145,-0.405
1:51:27.436,0.15,-0.415
1:51:27.440,0.16,-0.425
1:51:27.444,0.175,-0.405
1:51:27.448,0.165,-0.39
1:51:27.452,0.18,-0.385
1:51:27.456,0.175,-0.39
1:51:27.460,0.15,-0.39
1:51:27.464,0.135,-0.43
1:51:27.468,0.135,-0.435
1:51:27.472,0.14,-0.43
1:51:27.476,0.11,-0.4
1:51:27.480,0.125,-0.375
1:51:27.484,0.09,-0.34
1:51:27.488,0.09,-0.345
1:51:27.492,0.08,-0.335
1:51:27.496,0.075,-0.325
1:51:27.500,0.09,-0.34
1:51:27.504,0.12,-0.34
1:51:27.508,0.13,-0.325
1:51:27.512,0.12,-0.28
1:51:27.516,0.1,-0.25
1:51:27.520,0.12,-0.225
1:51:27.524,0.11,-0.255
1:51:27.528,0.095,-0.205
1:51:27.532,0.085,-0.205
1:51:27.536,0.08,-0.19
1:51:27.540,0.085,-0.155
1:51:27.544,0.08,-0.14
1:51:27.548,0.05,-0.135
1:51:27.552,0.055,-0.105
1:51:27.556,0.05,-0.065
1:51:27.560,0.03,-0.055
1:51:27.564,0.035,-0.05
1:51:27.568,0.045,-0.075
1:51:27.572,0.065,-0.075
1:51:27.576,0.1,-0.06
1:51:27.580,0.085,-0.035
1:51:27.584,0.07,-0.03
1:51:27.588,0.065,-0.05
1:51:27.592,0.105,-0.05
1:51:27.596,0.08,-0.055
1:51:27.600,0.105,-0.065
1:51:27.604,0.125,-0.095
1:51:27.608,0.105,-0.095
1:51:27.612,0.095,-0.125
1:51:27.616,0.105,-0.14
1:51:27.620,0.125,-0.135
1:51:27.624,0.12,-0.1
1:51:27.628,0.14,-0.08
1:51:27.632,0.125,-0.11
1:51:27.636,0.12,-0.09
1:51:27.640,0.12,-0.1
1:51:27.644,0.125,-0.065
1:51:27.648,0.125,-0.07
1:51:27.652,0.165,-0.05
1:51:27.656,0.16,-0.09
1:51:27.660,0.18,-0.095
1:51:27.664,0.18,-0.095
1:51:27.668,0.21,-0.125
1:51:27.672,0.195,-0.12
1:51:27.676,0.2,-0.12
1:51:27.680,0.21,-0.09
1:51:27.684,0.195,-0.105
1:51:27.688,0.2,-0.105
1:51:27.692,0.195,-0.105
1:51:27.696,0.19,-0.09
1:51:27.700,0.2,-0.09
1:51:27.704,0.19,-0.08
1:51:27.708,0.18,-0.06
1:51:27.712,0.175,-0.065
1:51:27.716,0.22,-0.07
1:51:27.720,0.23,-0.055
1:51:27.724,0.2,-0.09
1:51:27.728,0.215,-0.095
1:51:27.732,0.22,-0.08
1:51:27.736,0.225,-0.075
1:51:27.740,0.235,-0.06
1:51:27.744,0.23,-0.065
1:51:27.748,0.2,-0.045
1:51:27.752,0.2,-0.06
1:51:27.756,0.205,-0.08
1:51:27.760,0.205,-0.09
1:51:27.764,0.21,-0.09
1:51:27.768,0.19,-0.055
1:51:27.772,0.215,-0.025
1:51:27.776,0.235,-0.02
1:51:27.780,0.22,-0.03
1:51:27.784,0.19,-0.05
1:51:27.788,0.195,-0.055
1:51:27.792,0.18,-0.035
1:51:27.796,0.195,-0.05
1:51:27.800,0.205,-0.055
1:51:27.804,0.2,-0.035
1:51:27.808,0.175,-0.04
1:51:27.812,0.175,-0.065
1:51:27.816,0.185,-0.08
1:51:27.820,0.21,-0.06
1:51:27.824,0.205,-0.02
1:51:27.828,0.195,-0.005
1:51:27.832,0.18,0.005
1:51:27.836,0.165,0.005
1:51:27.840,0.15,-0.015
1:51:27.844,0.175,0.0
1:51:27.848,0.2,-0.02
1:51:27.852,0.215,-0.02
1:51:27.856,0.205,-0.015
1:51:27.860,0.2,-0.005
1:51:27.864,0.185,0.0
1:51:27.868,0.215,-0.02
1:51:27.872,0.21,-0.02
1:51:27.876,0.215,0.0
1:51:27.880,0.22,0.025
1:51:27.884,0.23,0.055
1:51:27.888,0.215,0.075
1:51:27.892,0.19,0.085
1:51:27.896,0.175,0.075
1:51:27.900,0.21,0.065
1:51:27.904,0.23,0.12
1:51:27.908,0.255,0.165
1:51:27.912,0.235,0.22
1:51:27.916,0.235,0.255
1:51:27.920,0.225,0.26
1:51:27.924,0.225,0.26
1:51:27.928,0.245,0.25
1:51:27.932,0.285,0.235
1:51:27.936,0.33,0.265
1:51:27.940,0.355,0.28
1:51:27.944,0.365,0.28
1:51:27.948,0.36,0.265
1:51:27.952,0.35,0.275
1:51:27.956,0.31,0.275
1:51:27.960,0.295,0.225
1:51:27.964,0.29,0.235
1:51:27.968,0.285,0.22
1:51:27.972,0.265,0.195
1:51:27.976,0.23,0.16
1:51:27.980,0.155,0.145
1:51:27.984,0.12,0.13
1:51:27.988,0.13,0.11
1:51:27.992,0.16,0.13
1:51:27.996,0.185,0.14
1:51:28.000,0.185,0.17
1:51:28.004,0.175,0.16
1:51:28.008,0.16,0.15
1:51:28.012,0.17,0.145
1:51:28.016,0.175,0.14
1:51:28.020,0.215,0.14
1:51:28.024,0.23,0.13
1:51:28.028,0.215,0.1
1:51:28.032,0.2,0.09
1:51:28.036,0.175,0.045
1:51:28.040,0.195,0.035
1:51:28.044,0.235,0.05
1:51:28.048,0.275,0.06
1:51:28.052,0.26,0.065
1:51:28.056,0.235,0.06
1:51:28.060,0.23,0.055
1:51:28.064,0.23,0.08
1:51:28.068,0.215,0.1
1:51:28.072,0.24,0.1
1:51:28.076,0.24,0.085
1:51:28.080,0.24,0.105
1:51:28.084,0.225,0.105
1:51:28.088,0.245,0.095
1:51:28.092,0.23,0.175
1:51:28.096,0.23,0.24
1:51:28.100,0.225,0.255
1:51:28.104,0.2,0.325
1:51:28.108,0.205,0.48
1:51:28.112,0.19,0.785
1:51:28.116,0.22,1.145
1:51:28.120,0.3,1.45
1:51:28.124,0.305,1.73
1:51:28.128,0.305,1.95
1:51:28.132,0.24,2.0
1:51:28.136,0.19,1.825
1:51:28.140,0.125,1.43
1:51:28.144,-0.06,0.905
1:51:28.148,-0.365,0.54
1:51:28.152,-0.695,0.54
1:51:28.156,-0.98,0.665
1:51:28.160,-1.185,0.545
1:51:28.164,-1.295,0.24
1:51:28.168,-1.245,-0.035
1:51:28.172,-0.98,-0.175
1:51:28.176,-0.585,-0.225
1:51:28.180,-0.215,-0.215
1:51:28.184,-0.015,-0.11
1:51:28.188,0.045,0.03
1:51:28.192,0.06,0.12
1:51:28.196,0.065,0.135
1:51:28.200,0.085,0.145
1:51:28.204,0.075,0.155
1:51:28.208,0.135,0.15
1:51:28.212,0.185,0.165
1:51:28.216,0.245,0.165
1:51:28.220,0.305,0.165
1:51:28.224,0.33,0.155
1:51:28.228,0.32,0.195
1:51:28.232,0.315,0.2
1:51:28.236,0.33,0.195
1:51:28.240,0.33,0.175
1:51:28.244,0.3,0.19
1:51:28.248,0.325,0.19
1:51:28.252,0.305,0.185
1:51:28.256,0.325,0.21
1:51:28.260,0.355,0.2
1:51:28.264,0.36,0.19
1:51:28.268,0.36,0.21
1:51:28.272,0.35,0.21
1:51:28.276,0.35,0.215
1:51:28.280,0.35,0.22
1:51:28.284,0.34,0.22
1:51:28.288,0.34,0.23
1:51:28.292,0.36,0.225
1:51:28.296,0.33,0.22
1:51:28.300,0.325,0.22
1:51:28.304,0.375,0.215
1:51:28.308,0.335,0.22
1:51:28.312,0.36,0.215
1:51:28.316,0.355,0.2
1:51:28.320,0.35,0.205
1:51:28.324,0.355,0.215
1:51:28.328,0.33,0.22
1:51:28.332,0.33,0.215
1:51:28.336,0.305,0.225
1:51:28.340,0.315,0.265
1:51:28.344,0.315,0.27
1:51:28.348,0.3,0.26
1:51:28.352,0.295,0.23
1:51:28.356,0.275,0.255
1:51:28.360,0.275,0.26
1:51:28.364,0.26,0.295
1:51:28.368,0.27,0.305
1:51:28.372,0.275,0.295
1:51:28.376,0.255,0.31
1:51:28.380,0.245,0.34
1:51:28.384,0.255,0.345
1:51:28.388,0.245,0.355
1:51:28.392,0.235,0.355
1:51:28.396,0.24,0.375
1:51:28.400,0.225,0.405
1:51:28.404,0.22,0.44
1:51:28.408,0.2,0.45
1:51:28.412,0.165,0.465
1:51:28.416,0.175,0.52
1:51:28.420,0.17,0.53
1:51:28.424,0.195,0.54
1:51:28.428,0.19,0.53
1:51:28.432,0.175,0.52
1:51:28.436,0.175,0.53
1:51:28.440,0.175,0.515
1:51:28.444,0.165,0.505
1:51:28.448,0.155,0.51
1:51:28.452,0.17,0.525
1:51:28.456,0.16,0.51
1:51:28.460,0.17,0.505
1:51:28.464,0.165,0.52
1:51:28.468,0.19,0.505
1:51:28.472,0.17,0.485
1:51:28.476,0.18,0.51
1:51:28.480,0.18,0.475
1:51:28.484,0.175,0.49
1:51:28.488,0.185,0.47
1:51:28.492,0.17,0.47
1:51:28.496,0.18,0.455
1:51:28.500,0.155,0.455
1:51:28.504,0.16,0.45
1:51:28.508,0.17,0.43
1:51:28.512,0.185,0.405
1:51:28.516,0.195,0.41
1:51:28.520,0.14,0.435
1:51:28.524,0.175,0.43
1:51:28.528,0.195,0.415
1:51:28.532,0.175,0.415
1:51:28.536,0.165,0.42
1:51:28.540,0.165,0.42
1:51:28.544,0.175,0.39
1:51:28.548,0.175,0.395
1:51:28.552,0.175,0.41
1:51:28.556,0.195,0.4
1:51:28.560,0.19,0.39
1:51:28.564,0.19,0.395
1:51:28.568,0.21,0.365
1:51:28.572,0.215,0.365
1:51:28.576,0.195,0.375
1:51:28.580,0.19,0.375
1:51:28.584,0.21,0.36
1:51:28.588,0.17,0.38
1:51:28.592,0.185,0.395
1:51:28.596,0.21,0.4
1:51:28.600,0.215,0.38
1:51:28.604,0.195,0.39
1:51:28.608,0.215,0.375
1:51:28.612,0.185,0.405
1:51:28.616,0.175,0.37
1:51:28.620,0.17,0.4
1:51:28.624,0.19,0.375
1:51:28.628,0.185,0.42
1:51:28.632,0.19,0.39
1:51:28.636,0.205,0.38
1:51:28.640,0.2,0.385
1:51:28.644,0.185,0.41
1:51:28.648,0.18,0.4
1:51:28.652,0.18,0.385
1:51:28.656,0.16,0.385
1:51:28.660,0.16,0.37
1:51:28.664,0.18,0.39
1:51:28.668,0.16,0.405
1:51:28.672,0.155,0.39
1:51:28.676,0.19,0.38
1:51:28.680,0.195,0.43
1:51:28.684,0.17,0.415
1:51:28.688,0.16,0.4
1:51:28.692,0.17,0.4
1:51:28.696,0.16,0.41
1:51:28.700,0.16,0.385
1:51:28.704,0.165,0.385
1:51:28.708,0.175,0.405
1:51:28.712,0.145,0.4
1:51:28.716,0.135,0.39
1:51:28.720,0.17,0.41
1:51:28.724,0.17,0.375
1:51:28.728,0.155,0.385
1:51:28.732,0.155,0.39
1:51:28.736,0.155,0.375
1:51:28.740,0.16,0.4
1:51:28.744,0.145,0.405
1:51:28.748,0.145,0.43
1:51:28.752,0.145,0.455
1:51:28.756,0.17,0.48
1:51:28.760,0.17,0.5
1:51:28.764,0.155,0.54
1:51:28.768,0.15,0.565
1:51:28.772,0.15,0.555
1:51:28.776,0.2,0.555
1:51:28.780,0.215,0.555
1:51:28.784,0.27,0.54
1:51:28.788,0.24,0.55
1:51:28.792,0.26,0.525
1:51:28.796,0.255,0.525
1:51:28.800,0.24,0.55
1:51:28.804,0.245,0.53
1:51:28.808,0.235,0.53
1:51:28.812,0.22,0.53
1:51:28.816,0.19,0.515
1:51:28.820,0.185,0.47
1:51:28.824,0.175,0.41
1:51:28.828,0.12,0.385
1:51:28.832,0.105,0.39
1:51:28.836,0.1,0.4
1:51:28.840,0.075,0.395
1:51:28.844,0.08,0.395
1:51:28.848,0.09,0.39
1:51:28.852,0.085,0.42
1:51:28.856,0.08,0.4
1:51:28.860,0.075,0.395
1:51:28.864,0.1,0.39
1:51:28.868,0.09,0.395
1:51:28.872,0.09,0.39
1:51:28.876,0.11,0.335
1:51:28.880,0.115,0.3
1:51:28.884,0.115,0.3
1:51:28.888,0.105,0.28
1:51:28.892,0.125,0.295
1:51:28.896,0.165,0.31
1:51:28.900,0.16,0.3
1:51:28.904,0.145,0.285
1:51:28.908,0.15,0.285
1:51:28.912,0.135,0.305
1:51:28.916,0.135,0.285
1:51:28.920,0.12,0.31
1:51:28.924,0.105,0.305
1:51:28.928,0.125,0.315
1:51:28.932,0.12,0.345
1:51:28.936,0.105,0.34
1:51:28.940,0.13,0.355
1:51:28.944,0.12,0.36
1:51:28.948,0.11,0.39
1:51:28.952,0.105,0.445
1:51:28.956,0.105,0.58
1:51:28.960,0.105,0.82
1:51:28.964,0.115,1.11
1:51:28.968,0.165,1.455
1:51:28.972,0.18,1.765
1:51:28.976,0.175,2.02
1:51:28.980,0.135,2.215
1:51:28.984,0.11,2.195
1:51:28.988,0.085,1.955
1:51:28.992,-0.02,1.46
1:51:28.996,-0.21,0.92
1:51:29.000,-0.48,0.62
1:51:29.004,-0.775,0.515
1:51:29.008,-1.0,0.45
1:51:29.012,-1.125,0.245
1:51:29.016,-1.165,0.0
1:51:29.020,-1.03,-0.13
1:51:29.024,-0.75,-0.215
1:51:29.028,-0.42,-0.215
1:51:29.032,-0.225,-0.155
1:51:29.036,-0.115,-0.05
1:51:29.040,-0.085,0.05
1:51:29.044,-0.055,0.115
1:51:29.048,-0.05,0.135
1:51:29.052,-0.03,0.135
1:51:29.056,0.005,0.15
1:51:29.060,0.06,0.135
1:51:29.064,0.11,0.14
1:51:29.068,0.125,0.155
1:51:29.072,0.175,0.165
1:51:29.076,0.185,0.115
1:51:29.080,0.18,0.1
1:51:29.084,0.19,0.105
1:51:29.088,0.19,0.12
1:51:29.092,0.19,0.14
1:51:29.096,0.18,0.145
1:51:29.100,0.175,0.135
1:51:29.104,0.165,0.105
1:51:29.108,0.195,0.09
1:51:29.112,0.2,0.115
1:51:29.116,0.205,0.11
1:51:29.120,0.185,0.135
1:51:29.124,0.175,0.11
1:51:29.128,0.19,0.105
1:51:29.132,0.195,0.12
1:51:29.136,0.21,0.115
1:51:29.140,0.195,0.115
1:51:29.144,0.18,0.115
1:51:29.148,0.2,0.12
1:51:29.152,0.185,0.11
1:51:29.156,0.19,0.11
1:51:29.160,0.18,0.09
1:51:29.164,0.165,0.09
1:51:29.168,0.165,0.095
1:51:29.172,0.175,0.11
1:51:29.176,0.17,0.125
1:51:29.180,0.175,0.105
1:51:29.184,0.175,0.1
1:51:29.188,0.17,0.075
1:51:29.192,0.14,0.065
1:51:29.196,0.13,0.085
1:51:29.200,0.15,0.125
1:51:29.204,0.165,0.12
1:51:29.208,0.15,0.115
1:51:29.212,0.11,0.115
1:51:29.216,0.105,0.115
1:51:29.220,0.115,0.115
1:51:29.224,0.12,0.12
1:51:29.228,0.125,0.15
1:51:29.232,0.125,0.165
1:51:29.236,0.115,0.185
1:51:29.240,0.12,0.21
1:51:29.244,0.11,0.23
1:51:29.248,0.095,0.255
1:51:29.252,0.09,0.285
1:51:29.256,0.065,0.305
1:51:29.260,0.055,0.33
1:51:29.264,0.04,0.325
1:51:29.268,0.06,0.325
1:51:29.272,0.035,0.325
1:51:29.276,0.05,0.36
1:51:29.280,0.05,0.335
1:51:29.284,0.045,0.34
1:51:29.288,0.045,0.355
1:51:29.292,0.045,0.36
1:51:29.296,0.05,0.35
1:51:29.300,0.045,0.34
1:51:29.304,0.055,0.35
1:51:29.308,0.045,0.33
1:51:29.312,0.045,0.335
1:51:29.316,0.03,0.335
1:51:29.320,0.06,0.335
1:51:29.324,0.085,0.335
1:51:29.328,0.09,0.33
1:51:29.332,0.11,0.31
1:51:29.336,0.09,0.31
1:51:29.340,0.09,0.32
1:51:29.344,0.07,0.305
1:51:29.348,0.085,0.28
1:51:29.352,0.09,0.275
1:51:29.356,0.07,0.27
1:51:29.360,0.08,0.275
1:51:29.364,0.105,0.28
1:51:29.368,0.125,0.285
1:51:29.372,0.105,0.3
1:51:29.376,0.09,0.285
1:51:29.380,0.075,0.27
1:51:29.384,0.055,0.27
1:51:29.388,0.075,0.295
1:51:29.392,0.12,0.27
1:51:29.396,0.1,0.26
1:51:29.400,0.1,0.25
1:51:29.404,0.115,0.25
1:51:29.408,0.11,0.255
1:51:29.412,0.1,0.265
1:51:29.416,0.115,0.25
1:51:29.420,0.115,0.25
1:51:29.424,0.11,0.255
1:51:29.428,0.11,0.24
1:51:29.432,0.135,0.23
1:51:29.436,0.14,0.25
1:51:29.440,0.125,0.27
1:51:29.444,0.13,0.265
1:51:29.448,0.11,0.26
1:51:29.452,0.115,0.26
1:51:29.456,0.135,0.245
1:51:29.460,0.12,0.255
1:51:29.464,0.105,0.265
1:51:29.468,0.105,0.255
1:51:29.472,0.12,0.245
1:51:29.476,0.12,0.235
1:51:29.480,0.125,0.26
1:51:29.484,0.125,0.245
1:51:29.488,0.11,0.26
1:51:29.492,0.1,0.255
1:51:29.496,0.095,0.265
1:51:29.500,0.105,0.285
1:51:29.504,0.105,0.295
1:51:29.508,0.105,0.28
1:51:29.512,0.12,0.27
1:51:29.516,0.085,0.25
1:51:29.520,0.075,0.275
1:51:29.524,0.07,0.25
1:51:29.528,0.075,0.225
1:51:29.532,0.085,0.26
1:51:29.536,0.105,0.255
1:51:29.540,0.105,0.26
1:51:29.544,0.09,0.295
1:51:29.548,0.1,0.29
1:51:29.552,0.085,0.255
1:51:29.556,0.095,0.245
1:51:29.560,0.085,0.255
1:51:29.564,0.09,0.275
1:51:29.568,0.095,0.275
1:51:29.572,0.1,0.245
1:51:29.576,0.08,0.25
1:51:29.580,0.11,0.27
1:51:29.584,0.11,0.275
1:51:29.588,0.095,0.265
1:51:29.592,0.095,0.24
1:51:29.596,0.115,0.24
1:51:29.600,0.115,0.255
1:51:29.604,0.09,0.28
1:51:29.608,0.095,0.295
1:51:29.612,0.07,0.295
1:51:29.616,0.07,0.34
1:51:29.620,0.085,0.37
1:51:29.624,0.085,0.4
1:51:29.628,0.105,0.41
1:51:29.632,0.145,0.435
1:51:29.636,0.14,0.415
1:51:29.640,0.175,0.44
1:51:29.644,0.195,0.45
1:51:29.648,0.18,0.445
1:51:29.652,0.21,0.43
1:51:29.656,0.19,0.42
1:51:29.660,0.2,0.405
1:51:29.664,0.22,0.43
1:51:29.668,0.215,0.42
1:51:29.672,0.21,0.435
1:51:29.676,0.195,0.42
1:51:29.680,0.145,0.395
1:51:29.684,0.125,0.355
1:51:29.688,0.1,0.325
1:51:29.692,0.095,0.295
1:51:29.696,0.065,0.29
1:51:29.700,0.065,0.315
1:51:29.704,0.05,0.32
1:51:29.708,0.045,0.33
1:51:29.712,0.02,0.325
1:51:29.716,0.025,0.34
1:51:29.720,0.025,0.3
1:51:29.724,0.035,0.29
1:51:29.728,0.05,0.295
1:51:29.732,0.065,0.295
1:51:29.736,0.07,0.265
1:51:29.740,0.065,0.255
1:51:29.744,0.06,0.235
1:51:29.748,0.065,0.205
1:51:29.752,0.08,0.225
1:51:29.756,0.11,0.24
1:51:29.760,0.125,0.245
1:51:29.764,0.14,0.225
1:51:29.768,0.115,0.24
1:51:29.772,0.09,0.215
1:51:29.776,0.115,0.215
1:51:29.780,0.1,0.23
1:51:29.784,0.09,0.215
1:51:29.788,0.12,0.21
1:51:29.792,0.12,0.235
1:51:29.796,0.09,0.245
1:51:29.800,0.09,0.275
1:51:29.804,0.085,0.285
1:51:29.808,0.085,0.305
1:51:29.812,0.08,0.34
1:51:29.816,0.085,0.375
1:51:29.820,0.125,0.47
1:51:29.824,0.11,0.71
1:51:29.828,0.125,1.045
1:51:29.832,0.145,1.385
1:51:29.836,0.17,1.71
1:51:29.840,0.15,2.015
1:51:29.844,0.13,2.195
1:51:29.848,0.11,2.245
1:51:29.852,0.095,2.015
1:51:29.856,0.0,1.54
1:51:29.860,-0.19,0.96
1:51:29.864,-0.475,0.595
1:51:29.868,-0.8,0.52
1:51:29.872,-1.04,0.495
1:51:29.876,-1.185,0.285
1:51:29.880,-1.235,0.015
1:51:29.884,-1.175,-0.175
1:51:29.888,-0.895,-0.265
1:51:29.892,-0.515,-0.31
1:51:29.896,-0.25,-0.28
1:51:29.900,-0.16,-0.16
1:51:29.904,-0.105,-0.05
1:51:29.908,-0.075,0.045
1:51:29.912,-0.035,0.09
1:51:29.916,-0.035,0.08
1:51:29.920,-0.015,0.06
1:51:29.924,0.045,0.07
1:51:29.928,0.085,0.07
1:51:29.932,0.155,0.055
1:51:29.936,0.175,0.045
1:51:29.940,0.195,0.055
1:51:29.944,0.175,0.04
1:51:29.948,0.225,0.065
1:51:29.952,0.235,0.025
1:51:29.956,0.23,0.055
1:51:29.960,0.19,0.075
1:51:29.964,0.205,0.08
1:51:29.968,0.19,0.08
1:51:29.972,0.2,0.075
1:51:29.976,0.225,0.065
1:51:29.980,0.215,0.07
1:51:29.984,0.23,0.07
1:51:29.988,0.235,0.06
1:51:29.992,0.23,0.05
1:51:29.996,0.24,0.055
1:51:30.000,0.24,0.04
1:51:30.004,0.225,0.04
1:51:30.008,0.23,0.04
1:51:30.012,0.205,0.05
1:51:30.016,0.23,0.05
1:51:30.020,0.25,0.055
1:51:30.024,0.25,0.055
1:51:30.028,0.22,0.055
1:51:30.032,0.23,0.04
1:51:30.036,0.205,0.035
1:51:30.040,0.215,0.035
1:51:30.044,0.21,0.01
1:51:30.048,0.21,0.05
1:51:30.052,0.195,0.065
1:51:30.056,0.195,0.06
1:51:30.060,0.195,0.05
1:51:30.064,0.2,0.055
1:51:30.068,0.2,0.045
1:51:30.072,0.19,0.055
1:51:30.076,0.17,0.055
1:51:30.080,0.16,0.065
1:51:30.084,0.175,0.065
1:51:30.088,0.16,0.065
1:51:30.092,0.155,0.06
1:51:30.096,0.135,0.085
1:51:30.100,0.14,0.11
1:51:30.104,0.11,0.145
1:51:30.108,0.115,0.145
1:51:30.112,0.12,0.135
1:51:30.116,0.11,0.15
1:51:30.120,0.08,0.175
1:51:30.124,0.1,0.205
1:51:30.128,0.09,0.22
1:51:30.132,0.085,0.235
1:51:30.136,0.095,0.225
1:51:30.140,0.08,0.235
1:51:30.144,0.08,0.245
1:51:30.148,0.06,0.23
1:51:30.152,0.055,0.23
1:51:30.156,0.045,0.255
1:51:30.160,0.065,0.265
1:51:30.164,0.075,0.24
1:51:30.168,0.07,0.225
1:51:30.172,0.065,0.24
1:51:30.176,0.06,0.215
1:51:30.180,0.07,0.205
1:51:30.184,0.07,0.21
1:51:30.188,0.07,0.21
1:51:30.192,0.08,0.21
1:51:30.196,0.09,0.195
1:51:30.200,0.1,0.17
1:51:30.204,0.1,0.17
1:51:30.208,0.09,0.17
1:51:30.212,0.11,0.15
1:51:30.216,0.095,0.175
1:51:30.220,0.085,0.155
1:51:30.224,0.115,0.145
1:51:30.228,0.1,0.135
1:51:30.232,0.115,0.135
1:51:30.236,0.115,0.12
1:51:30.240,0.13,0.11
1:51:30.244,0.095,0.115
1:51:30.248,0.115,0.095
1:51:30.252,0.14,0.095
1:51:30.256,0.115,0.095
1:51:30.260,0.14,0.08
1:51:30.264,0.12,0.075
1:51:30.268,0.135,0.1
1:51:30.272,0.11,0.085
1:51:30.276,0.135,0.075
1:51:30.280,0.14,0.06
1:51:30.284,0.14,0.075
1:51:30.288,0.125,0.07
1:51:30.292,0.155,0.035
1:51:30.296,0.145,0.06
1:51:30.300,0.15,0.05
1:51:30.304,0.135,0.055
1:51:30.308,0.16,0.055
1:51:30.312,0.16,0.055
1:51:30.316,0.165,0.065
1:51:30.320,0.17,0.055
1:51:30.324,0.17,0.055
1:51:30.328,0.155,0.065
1:51:30.332,0.14,0.065
1:51:30.336,0.16,0.075
1:51:30.340,0.13,0.075
1:51:30.344,0.155,0.04
1:51:30.348,0.165,0.05
1:51:30.352,0.14,0.05
1:51:30.356,0.135,0.05
1:51:30.360,0.13,0.055
1:51:30.364,0.135,0.04
1:51:30.368,0.135,0.035
1:51:30.372,0.14,0.045
1:51:30.376,0.13,0.02
1:51:30.380,0.12,0.01
1:51:30.384,0.12,0.035
1:51:30.388,0.14,0.015
1:51:30.392,0.11,0.04
1:51:30.396,0.125,0.06
1:51:30.400,0.14,0.065
1:51:30.404,0.1,0.05
1:51:30.408,0.095,0.02
1:51:30.412,0.1,0.0
1:51:30.416,0.095,0.03
1:51:30.420,0.115,0.035
1:51:30.424,0.105,0.025
1:51:30.428,0.115,0.03
1:51:30.432,0.1,0.045
1:51:30.436,0.11,0.03
1:51:30.440,0.115,0.05
1:51:30.444,0.09,0.02
1:51:30.448,0.12,0.03
1:51:30.452,0.11,0.025
1:51:30.456,0.1,0.02
1:51:30.460,0.11,0.0
1:51:30.464,0.1,0.03
1:51:30.468,0.105,0.035
1:51:30.472,0.125,0.06
1:51:30.476,0.125,0.045
1:51:30.480,0.11,0.065
1:51:30.484,0.105,0.11
1:51:30.488,0.095,0.14
1:51:30.492,0.12,0.195
1:51:30.496,0.115,0.2
1:51:30.500,0.13,0.19
1:51:30.504,0.11,0.195
1:51:30.508,0.14,0.21
1:51:30.512,0.19,0.21
1:51:30.516,0.21,0.185
1:51:30.520,0.22,0.185
1:51:30.524,0.235,0.17
1:51:30.528,0.22,0.19
1:51:30.532,0.24,0.175
1:51:30.536,0.215,0.18
1:51:30.540,0.195,0.165
1:51:30.544,0.16,0.155
1:51:30.548,0.135,0.14
1:51:30.552,0.085,0.08
1:51:30.556,0.065,0.05
1:51:30.560,0.05,0.03
1:51:30.564,0.05,0.03
1:51:30.568,0.045,0.045
1:51:30.572,0.03,0.055
1:51:30.576,0.025,0.085
1:51:30.580,0.015,0.075
1:51:30.584,0.025,0.05
1:51:30.588,0.015,0.055
1:51:30.592,0.025,0.035
1:51:30.596,0.06,0.035
1:51:30.600,0.045,0.025
1:51:30.604,0.055,0.02
1:51:30.608,0.045,0.01
1:51:30.612,0.06,-0.03
1:51:30.616,0.05,-0.04
1:51:30.620,0.11,-0.04
1:51:30.624,0.13,-0.02
1:51:30.628,0.155,-0.05
1:51:30.632,0.14,-0.06
1:51:30.636,0.145,-0.03
1:51:30.640,0.11,-0.03
1:51:30.644,0.115,-0.035
1:51:30.648,0.13,-0.055
1:51:30.652,0.13,-0.055
1:51:30.656,0.1,-0.04
1:51:30.660,0.1,-0.04
1:51:30.664,0.11,-0.03
1:51:30.668,0.115,-0.025
1:51:30.672,0.12,0.0
1:51:30.676,0.105,0.03
1:51:30.680,0.1,0.075
1:51:30.684,0.09,0.1
1:51:30.688,0.115,0.245
1:51:30.692,0.14,0.48
1:51:30.696,0.155,0.825
1:51:30.700,0.185,1.145
1:51:30.704,0.195,1.455
1:51:30.708,0.15,1.69
1:51:30.712,0.125,1.825
1:51:30.716,0.13,1.8
1:51:30.720,0.08,1.495
1:51:30.724,-0.045,0.985
1:51:30.728,-0.28,0.51
1:51:30.732,-0.61,0.28
1:51:30.736,-0.97,0.35
1:51:30.740,-1.24,0.39
1:51:30.744,-1.38,0.14
1:51:30.748,-1.39,-0.18
1:51:30.752,-1.265,-0.41
1:51:30.756,-0.925,-0.54
1:51:30.760,-0.48,-0.56
1:51:30.764,-0.21,-0.535
1:51:30.768,-0.095,-0.425
1:51:30.772,-0.08,-0.305
1:51:30.776,-0.06,-0.22
1:51:30.780,-0.05,-0.19
1:51:30.784,-0.035,-0.19
1:51:30.788,0.0,-0.21
1:51:30.792,0.045,-0.195
1:51:30.796,0.155,-0.2
1:51:30.800,0.19,-0.215
1:51:30.804,0.225,-0.185
1:51:30.808,0.25,-0.195
1:51:30.812,0.235,-0.18
1:51:30.816,0.245,-0.215
1:51:30.820,0.26,-0.215
1:51:30.824,0.24,-0.21
1:51:30.828,0.255,-0.185
1:51:30.832,0.255,-0.175
1:51:30.836,0.255,-0.17
1:51:30.840,0.25,-0.18
1:51:30.844,0.265,-0.175
1:51:30.848,0.26,-0.195
1:51:30.852,0.255,-0.195
1:51:30.856,0.275,-0.205
1:51:30.860,0.27,-0.19
1:51:30.864,0.28,-0.165
1:51:30.868,0.245,-0.185
1:51:30.872,0.27,-0.22
1:51:30.876,0.26,-0.22
1:51:30.880,0.25,-0.185
1:51:30.884,0.245,-0.185
1:51:30.888,0.255,-0.175
1:51:30.892,0.265,-0.185
1:51:30.896,0.24,-0.19
1:51:30.900,0.235,-0.185
1:51:30.904,0.225,-0.18
1:51:30.908,0.24,-0.2
1:51:30.912,0.24,-0.19
1:51:30.916,0.235,-0.205
1:51:30.920,0.235,-0.185
1:51:30.924,0.215,-0.17
1:51:30.928,0.195,-0.175
1:51:30.932,0.24,-0.18
1:51:30.936,0.24,-0.205
1:51:30.940,0.205,-0.2
1:51:30.944,0.2,-0.2
1:51:30.948,0.195,-0.195
1:51:30.952,0.165,-0.18
1:51:30.956,0.15,-0.17
1:51:30.960,0.16,-0.145
1:51:30.964,0.16,-0.1
1:51:30.968,0.19,-0.07
1:51:30.972,0.175,-0.065
1:51:30.976,0.155,-0.055
1:51:30.980,0.17,-0.04
1:51:30.984,0.15,-0.04
1:51:30.988,0.14,-0.02
1:51:30.992,0.11,-0.03
1:51:30.996,0.125,0.005
1:51:31.000,0.115,0.015
1:51:31.004,0.11,0.035
1:51:31.008,0.085,0.04
1:51:31.012,0.09,0.02
1:51:31.016,0.08,0.035
1:51:31.020,0.075,0.045
1:51:31.024,0.05,0.065
1:51:31.028,0.08,0.045
1:51:31.032,0.08,0.03
1:51:31.036,0.105,0.06
1:51:31.040,0.085,0.025
1:51:31.044,0.095,0.0
1:51:31.048,0.085,0.005
1:51:31.052,0.105,0.015
1:51:31.056,0.1,0.015
1:51:31.060,0.105,0.015
1:51:31.064,0.075,0.02
1:51:31.068,0.085,-0.01
1:51:31.072,0.09,-0.02
1:51:31.076,0.135,-0.03
1:51:31.080,0.125,-0.05
1:51:31.084,0.13,-0.06
1:51:31.088,0.12,-0.04
1:51:31.092,0.11,-0.035
1:51:31.096,0.11,-0.045
1:51:31.100,0.115,-0.055
1:51:31.104,0.13,-0.06
1:51:31.108,0.125,-0.065
1:51:31.112,0.11,-0.085
1:51:31.116,0.12,-0.1
1:51:31.120,0.11,-0.105
1:51:31.124,0.125,-0.085
1:51:31.128,0.12,-0.08
1:51:31.132,0.11,-0.08
1:51:31.136,0.135,-0.095
1:51:31.140,0.13,-0.145
1:51:31.144,0.125,-0.135
1:51:31.148,0.13,-0.155
1:51:31.152,0.13,-0.14
1:51:31.156,0.115,-0.13
1:51:31.160,0.11,-0.115
1:51:31.164,0.125,-0.14
1:51:31.168,0.145,-0.1
1:51:31.172,0.13,-0.095
1:51:31.176,0.14,-0.075
1:51:31.180,0.145,-0.08
1:51:31.184,0.14,-0.1
1:51:31.188,0.125,-0.105
1:51:31.192,0.135,-0.11
1:51:31.196,0.135,-0.115
1:51:31.200,0.12,-0.135
1:51:31.204,0.14,-0.12
1:51:31.208,0.13,-0.105
1:51:31.212,0.115,-0.13
1:51:31.216,0.12,-0.15
1:51:31.220,0.11,-0.175
1:51:31.224,0.095,-0.155
1:51:31.228,0.115,-0.14
1:51:31.232,0.12,-0.115
1:51:31.236,0.105,-0.13
1:51:31.240,0.11,-0.14
1:51:31.244,0.09,-0.12
1:51:31.248,0.07,-0.125
1:51:31.252,0.09,-0.155
1:51:31.256,0.09,-0.155
1:51:31.260,0.1,-0.145
1:51:31.264,0.08,-0.135
1:51:31.268,0.085,-0.12
1:51:31.272,0.065,-0.135
1:51:31.276,0.08,-0.16
1:51:31.280,0.075,-0.19
1:51:31.284,0.08,-0.17
1:51:31.288,0.075,-0.175
1:51:31.292,0.06,-0.18
1:51:31.296,0.075,-0.18
1:51:31.300,0.09,-0.175
1:51:31.304,0.095,-0.19
1:51:31.308,0.085,-0.225
1:51:31.312,0.09,-0.2
1:51:31.316,0.055,-0.18
1:51:31.320,0.07,-0.175
1:51:31.324,0.065,-0.17
1:51:31.328,0.055,-0.16
1:51:31.332,0.065,-0.155
1:51:31.336,0.075,-0.165
1:51:31.340,0.085,-0.145
1:51:31.344,0.055,-0.125
1:51:31.348,0.06,-0.09
1:51:31.352,0.04,-0.06
1:51:31.356,0.055,-0.025
1:51:31.360,0.1,-0.005
1:51:31.364,0.09,-0.03
1:51:31.368,0.105,-0.01
1:51:31.372,0.13,0.0
1:51:31.376,0.15,0.0
1:51:31.380,0.17,0.015
1:51:31.384,0.18,-0.04
1:51:31.388,0.17,-0.045
1:51:31.392,0.185,-0.035
1:51:31.396,0.17,-0.015
1:51:31.400,0.14,-0.025
1:51:31.404,0.125,-0.04
1:51:31.408,0.085,-0.045
1:51:31.412,0.085,-0.07
1:51:31.416,0.07,-0.14
1:51:31.420,0.035,-0.19
1:51:31.424,0.015,-0.185
1:51:31.428,-0.01,-0.195
1:51:31.432,-0.02,-0.175
1:51:31.436,-0.035,-0.175
1:51:31.440,-0.035,-0.165
1:51:31.444,-0.03,-0.15
1:51:31.448,-0.03,-0.15
1:51:31.452,-0.03,-0.14
1:51:31.456,-0.035,-0.17
1:51:31.460,-0.005,-0.175
1:51:31.464,0.0,-0.21
1:51:31.468,0.01,-0.25
1:51:31.472,0.005,-0.28
1:51:31.476,0.015,-0.26
1:51:31.480,0.015,-0.235
1:51:31.484,0.035,-0.24
1:51:31.488,0.05,-0.215
1:51:31.492,0.065,-0.24
1:51:31.496,0.055,-0.275
1:51:31.500,0.06,-0.25
1:51:31.504,0.06,-0.265
1:51:31.508,0.055,-0.275
1:51:31.512,0.08,-0.25
1:51:31.516,0.07,-0.265
1:51:31.520,0.05,-0.255
1:51:31.524,0.06,-0.24
1:51:31.528,0.06,-0.235
1:51:31.532,0.075,-0.245
1:51:31.536,0.065,-0.235
1:51:31.540,0.05,-0.205
1:51:31.544,0.07,-0.17
1:51:31.548,0.075,-0.16
1:51:31.552,0.06,-0.105
1:51:31.556,0.035,-0.02
1:51:31.560,0.06,0.205
1:51:31.564,0.08,0.525
1:51:31.568,0.115,0.875
1:51:31.572,0.14,1.19
1:51:31.576,0.14,1.405
1:51:31.580,0.085,1.59
1:51:31.584,0.075,1.59
1:51:31.588,0.03,1.345
1:51:31.592,-0.08,0.895
1:51:31.596,-0.315,0.36
1:51:31.600,-0.625,0.04
1:51:31.604,-0.975,0.08
1:51:31.608,-1.225,0.14
1:51:31.612,-1.385,-0.035
1:51:31.616,-1.425,-0.38
1:51:31.620,-1.305,-0.605
1:51:31.624,-1.005,-0.735
1:51:31.628,-0.58,-0.785
1:51:31.632,-0.28,-0.755
1:51:31.636,-0.135,-0.62
1:51:31.640,-0.105,-0.495
1:51:31.644,-0.1,-0.425
1:51:31.648,-0.095,-0.39
1:51:31.652,-0.07,-0.365
1:51:31.656,-0.025,-0.36
1:51:31.660,0.035,-0.39
1:51:31.664,0.085,-0.385
1:51:31.668,0.12,-0.395
1:51:31.672,0.185,-0.39
1:51:31.676,0.17,-0.395
1:51:31.680,0.21,-0.38
1:51:31.684,0.18,-0.37
1:51:31.688,0.185,-0.385
1:51:31.692,0.19,-0.355
1:51:31.696,0.2,-0.365
1:51:31.700,0.235,-0.375
1:51:31.704,0.25,-0.375
1:51:31.708,0.21,-0.38
1:51:31.712,0.215,-0.38
1:51:31.716,0.21,-0.37
1:51:31.720,0.22,-0.38
1:51:31.724,0.195,-0.36
1:51:31.728,0.205,-0.375
1:51:31.732,0.215,-0.37
1:51:31.736,0.23,-0.36
1:51:31.740,0.23,-0.335
1:51:31.744,0.23,-0.33
1:51:31.748,0.23,-0.33
1:51:31.752,0.195,-0.37
1:51:31.756,0.21,-0.385
1:51:31.760,0.18,-0.395
1:51:31.764,0.2,-0.38
1:51:31.768,0.205,-0.37
1:51:31.772,0.23,-0.365
1:51:31.776,0.2,-0.375
1:51:31.780,0.18,-0.365
1:51:31.784,0.185,-0.37
1:51:31.788,0.19,-0.37
1:51:31.792,0.175,-0.37
1:51:31.796,0.165,-0.375
1:51:31.800,0.175,-0.36
1:51:31.804,0.175,-0.375
1:51:31.808,0.165,-0.365
1:51:31.812,0.17,-0.355
1:51:31.816,0.175,-0.33
1:51:31.820,0.14,-0.345
1:51:31.824,0.15,-0.335
1:51:31.828,0.13,-0.33
1:51:31.832,0.13,-0.315
1:51:31.836,0.13,-0.285
1:51:31.840,0.115,-0.25
1:51:31.844,0.12,-0.255
1:51:31.848,0.095,-0.25
1:51:31.852,0.095,-0.245
1:51:31.856,0.11,-0.225
1:51:31.860,0.095,-0.2
1:51:31.864,0.075,-0.165
1:51:31.868,0.075,-0.16
1:51:31.872,0.08,-0.16
1:51:31.876,0.075,-0.125
1:51:31.880,0.05,-0.125
1:51:31.884,0.03,-0.11
1:51:31.888,0.03,-0.1
1:51:31.892,0.07,-0.1
1:51:31.896,0.035,-0.12
1:51:31.900,0.05,-0.145
1:51:31.904,0.025,-0.14
1:51:31.908,0.02,-0.125
1:51:31.912,0.025,-0.13
1:51:31.916,0.025,-0.145
1:51:31.920,0.04,-0.13
1:51:31.924,0.05,-0.165
1:51:31.928,0.055,-0.16
1:51:31.932,0.06,-0.185
1:51:31.936,0.06,-0.195
1:51:31.940,0.06,-0.195
1:51:31.944,0.045,-0.2
1:51:31.948,0.07,-0.24
1:51:31.952,0.07,-0.2
1:51:31.956,0.06,-0.205
1:51:31.960,0.06,-0.205
1:51:31.964,0.065,-0.205
1:51:31.968,0.07,-0.215
1:51:31.972,0.06,-0.24
1:51:31.976,0.045,-0.255
1:51:31.980,0.05,-0.225
1:51:31.984,0.055,-0.245
1:51:31.988,0.085,-0.25
1:51:31.992,0.07,-0.26
1:51:31.996,0.055,-0.255
1:51:32.000,0.06,-0.28
1:51:32.004,0.085,-0.28
1:51:32.008,0.08,-0.28
1:51:32.012,0.065,-0.3
1:51:32.016,0.05,-0.32
1:51:32.020,0.06,-0.27
1:51:32.024,0.095,-0.29
1:51:32.028,0.085,-0.305
1:51:32.032,0.08,-0.32
1:51:32.036,0.085,-0.345
1:51:32.040,0.09,-0.32
1:51:32.044,0.1,-0.305
1:51:32.048,0.09,-0.33
1:51:32.052,0.09,-0.31
1:51:32.056,0.09,-0.295
1:51:32.060,0.09,-0.3
1:51:32.064,0.095,-0.32
1:51:32.068,0.085,-0.34
1:51:32.072,0.085,-0.35
1:51:32.076,0.075,-0.305
1:51:32.080,0.06,-0.32
1:51:32.084,0.085,-0.31
1:51:32.088,0.1,-0.345
1:51:32.092,0.08,-0.35
1:51:32.096,0.09,-0.35
1:51:32.100,0.11,-0.31
1:51:32.104,0.09,-0.32
1:51:32.108,0.105,-0.32
1:51:32.112,0.11,-0.34
1:51:32.116,0.065,-0.365
1:51:32.120,0.04,-0.36
1:51:32.124,0.05,-0.345
1:51:32.128,0.055,-0.31
1:51:32.132,0.05,-0.305
1:51:32.136,0.035,-0.33
1:51:32.140,0.055,-0.355
1:51:32.144,0.045,-0.395
1:51:32.148,0.045,-0.39
1:51:32.152,0.035,-0.365
1:51:32.156,0.03,-0.355
1:51:32.160,0.04,-0.36
1:51:32.164,0.055,-0.375
1:51:32.168,0.03,-0.38
1:51:32.172,0.02,-0.39
1:51:32.176,0.025,-0.41
1:51:32.180,0.025,-0.39
1:51:32.184,0.04,-0.375
1:51:32.188,0.04,-0.355
1:51:32.192,0.035,-0.36
1:51:32.196,0.045,-0.35
1:51:32.200,0.015,-0.365
1:51:32.204,0.025,-0.375
1:51:32.208,0.03,-0.39
1:51:32.212,0.035,-0.35
1:51:32.216,0.02,-0.3
1:51:32.220,0.015,-0.26
1:51:32.224,0.025,-0.215
1:51:32.228,0.035,-0.195
1:51:32.232,0.06,-0.205
1:51:32.236,0.075,-0.215
1:51:32.240,0.08,-0.21
1:51:32.244,0.09,-0.195
1:51:32.248,0.085,-0.205
1:51:32.252,0.11,-0.235
1:51:32.256,0.13,-0.18
1:51:32.260,0.145,-0.18
1:51:32.264,0.11,-0.19
1:51:32.268,0.11,-0.21
1:51:32.272,0.08,-0.25
1:51:32.276,0.07,-0.295
1:51:32.280,0.05,-0.345
1:51:32.284,0.015,-0.38
1:51:32.288,-0.01,-0.375
1:51:32.292,-0.03,-0.38
1:51:32.296,-0.015,-0.395
1:51:32.300,-0.02,-0.37
1:51:32.304,-0.045,-0.35
1:51:32.308,-0.07,-0.355
1:51:32.312,-0.035,-0.37
1:51:32.316,-0.05,-0.375
1:51:32.320,-0.055,-0.395
1:51:32.324,-0.04,-0.38
1:51:32.328,-0.035,-0.36
1:51:32.332,-0.025,-0.4
1:51:32.336,0.01,-0.43
1:51:32.340,0.0,-0.475
1:51:32.344,0.005,-0.465
1:51:32.348,0.02,-0.45
1:51:32.352,0.0,-0.44
1:51:32.356,0.03,-0.46
1:51:32.360,0.04,-0.47
1:51:32.364,0.04,-0.465
1:51:32.368,0.035,-0.46
1:51:32.372,0.03,-0.44
1:51:32.376,0.0,-0.44
1:51:32.380,-0.015,-0.43
1:51:32.384,0.01,-0.435
1:51:32.388,0.0,-0.425
1:51:32.392,-0.015,-0.39
1:51:32.396,-0.01,-0.41
1:51:32.400,0.0,-0.4
1:51:32.404,0.03,-0.38
1:51:32.408,0.025,-0.37
1:51:32.412,0.02,-0.335
1:51:32.416,0.025,-0.18
1:51:32.420,0.01,0.125
1:51:32.424,0.04,0.465
1:51:32.428,0.065,0.82
1:51:32.432,0.07,1.135
1:51:32.436,0.055,1.445
1:51:32.440,0.02,1.67
1:51:32.444,0.04,1.72
1:51:32.448,0.03,1.475
1:51:32.452,-0.05,1.005
1:51:32.456,-0.25,0.42
1:51:32.460,-0.515,0.03
1:51:32.464,-0.845,-0.09
1:51:32.468,-1.09,-0.18
1:51:32.472,-1.24,-0.42
1:51:32.476,-1.295,-0.685
1:51:32.480,-1.195,-0.88
1:51:32.484,-0.93,-0.93
1:51:32.488,-0.58,-0.945
1:51:32.492,-0.365,-0.86
1:51:32.496,-0.23,-0.76
1:51:32.500,-0.2,-0.65
1:51:32.504,-0.14,-0.565
1:51:32.508,-0.1,-0.555
1:51:32.512,-0.11,-0.55
1:51:32.516,-0.085,-0.57
1:51:32.520,-0.03,-0.585
1:51:32.524,0.015,-0.575
1:51:32.528,0.065,-0.55
1:51:32.532,0.075,-0.55
1:51:32.536,0.105,-0.545
1:51:32.540,0.125,-0.54
1:51:32.544,0.085,-0.525
1:51:32.548,0.1,-0.53
1:51:32.552,0.095,-0.53
1:51:32.556,0.095,-0.545
1:51:32.560,0.135,-0.51
1:51:32.564,0.145,-0.5
1:51:32.568,0.13,-0.5
1:51:32.572,0.14,-0.505
1:51:32.576,0.14,-0.505
1:51:32.580,0.12,-0.51
1:51:32.584,0.13,-0.505
1:51:32.588,0.14,-0.5
1:51:32.592,0.12,-0.5
1:51:32.596,0.125,-0.505
1:51:32.600,0.135,-0.485
1:51:32.604,0.1,-0.46
1:51:32.608,0.13,-0.47
1:51:32.612,0.125,-0.44
1:51:32.616,0.135,-0.445
1:51:32.620,0.125,-0.45
1:51:32.624,0.13,-0.44
1:51:32.628,0.12,-0.44
1:51:32.632,0.13,-0.445
1:51:32.636,0.11,-0.44
1:51:32.640,0.12,-0.425
1:51:32.644,0.135,-0.425
1:51:32.648,0.11,-0.43
1:51:32.652,0.11,-0.415
1:51:32.656,0.11,-0.43
1:51:32.660,0.115,-0.42
1:51:32.664,0.09,-0.39
1:51:32.668,0.095,-0.375
1:51:32.672,0.095,-0.36
1:51:32.676,0.11,-0.325
1:51:32.680,0.105,-0.305
1:51:32.684,0.1,-0.315
1:51:32.688,0.065,-0.32
1:51:32.692,0.09,-0.34
1:51:32.696,0.06,-0.315
1:51:32.700,0.055,-0.29
1:51:32.704,0.045,-0.225
1:51:32.708,0.08,-0.17
1:51:32.712,0.065,-0.14
1:51:32.716,0.03,-0.115
1:51:32.720,0.02,-0.085
1:51:32.724,0.01,-0.065
1:51:32.728,0.015,-0.06
1:51:32.732,0.035,-0.055
1:51:32.736,0.065,-0.04
1:51:32.740,0.045,-0.04
1:51:32.744,0.02,-0.025
1:51:32.748,0.03,-0.045
1:51:32.752,0.01,-0.01
1:51:32.756,0.005,0.01
1:51:32.760,0.02,0.02
1:51:32.764,0.045,0.03
1:51:32.768,0.01,-0.01
1:51:32.772,0.035,-0.025
1:51:32.776,0.05,-0.045
1:51:32.780,0.07,-0.075
1:51:32.784,0.08,-0.08
1:51:32.788,0.06,-0.065
1:51:32.792,0.065,-0.06
1:51:32.796,0.08,-0.04
1:51:32.800,0.08,-0.03
1:51:32.804,0.06,-0.035
1:51:32.808,0.08,-0.055
1:51:32.812,0.075,-0.07
1:51:32.816,0.07,-0.08
1:51:32.820,0.075,-0.08
1:51:32.824,0.105,-0.06
1:51:32.828,0.11,-0.07
1:51:32.832,0.1,-0.045
1:51:32.836,0.1,-0.06
1:51:32.840,0.085,-0.065
1:51:32.844,0.085,-0.08
1:51:32.848,0.085,-0.115
1:51:32.852,0.085,-0.12
1:51:32.856,0.085,-0.125
1:51:32.860,0.095,-0.095
1:51:32.864,0.07,-0.07
1:51:32.868,0.08,-0.045
1:51:32.872,0.075,-0.05
1:51:32.876,0.06,-0.06
1:51:32.880,0.07,-0.05
1:51:32.884,0.1,-0.065
1:51:32.888,0.12,-0.06
1:51:32.892,0.14,-0.09
1:51:32.896,0.14,-0.075
1:51:32.900,0.125,-0.08
1:51:32.904,0.105,-0.065
1:51:32.908,0.135,-0.04
1:51:32.912,0.14,-0.03
1:51:32.916,0.145,-0.05
1:51:32.920,0.12,-0.075
1:51:32.924,0.13,-0.05
1:51:32.928,0.115,-0.05
1:51:32.932,0.085,-0.04
1:51:32.936,0.11,-0.035
1:51:32.940,0.11,-0.015
1:51:32.944,0.105,-0.025
1:51:32.948,0.105,-0.06
1:51:32.952,0.095,-0.04
1:51:32.956,0.115,-0.035
1:51:32.960,0.115,-0.04
1:51:32.964,0.095,-0.04
1:51:32.968,0.105,-0.055
1:51:32.972,0.1,-0.02
1:51:32.976,0.1,-0.015
1:51:32.980,0.105,-0.005
1:51:32.984,0.1,0.01
1:51:32.988,0.085,-0.005
1:51:32.992,0.07,-0.02
1:51:32.996,0.05,-0.04
1:51:33.000,0.07,-0.01
1:51:33.004,0.09,-0.025
1:51:33.008,0.075,-0.015
1:51:33.012,0.09,-0.015
1:51:33.016,0.09,-0.02
1:51:33.020,0.095,-0.005
1:51:33.024,0.1,-0.01
1:51:33.028,0.11,-0.015
1:51:33.032,0.07,-0.015
1:51:33.036,0.095,0.0
1:51:33.040,0.085,-0.015
1:51:33.044,0.105,-0.01
1:51:33.048,0.085,0.0
1:51:33.052,0.09,-0.005
1:51:33.056,0.075,0.005
1:51:33.060,0.065,0.055
1:51:33.064,0.06,0.085
1:51:33.068,0.075,0.16
1:51:33.072,0.095,0.185
1:51:33.076,0.1,0.195
1:51:33.080,0.095,0.19
1:51:33.084,0.13,0.195
1:51:33.088,0.125,0.205
1:51:33.092,0.18,0.21
1:51:33.096,0.18,0.19
1:51:33.100,0.215,0.19
1:51:33.104,0.205,0.185
1:51:33.108,0.195,0.205
1:51:33.112,0.195,0.215
1:51:33.116,0.19,0.21
1:51:33.120,0.16,0.215
1:51:33.124,0.135,0.14
1:51:33.128,0.085,0.085
1:51:33.132,0.065,0.07
1:51:33.136,0.035,0.065
1:51:33.140,0.02,0.065
1:51:33.144,0.015,0.075
1:51:33.148,0.025,0.1
1:51:33.152,0.01,0.07
1:51:33.156,0.02,0.075
1:51:33.160,0.0,0.08
1:51:33.164,0.01,0.085
1:51:33.168,-0.01,0.085
1:51:33.172,0.005,0.08
1:51:33.176,0.015,0.075
1:51:33.180,0.015,0.035
1:51:33.184,0.025,0.005
1:51:33.188,0.05,0.005
1:51:33.192,0.055,-0.02
1:51:33.196,0.075,0.005
1:51:33.200,0.08,-0.015
1:51:33.204,0.085,-0.015
1:51:33.208,0.1,0.0
1:51:33.212,0.075,-0.01
1:51:33.216,0.065,-0.01
1:51:33.220,0.065,-0.015
1:51:33.224,0.06,-0.01
1:51:33.228,0.06,-0.005
1:51:33.232,0.05,0.01
1:51:33.236,0.055,0.005
1:51:33.240,0.08,0.0
1:51:33.244,0.06,0.035
1:51:33.248,0.07,0.08
1:51:33.252,0.035,0.12
1:51:33.256,0.055,0.17
1:51:33.260,0.055,0.23
1:51:33.264,0.095,0.39
1:51:33.268,0.115,0.71
1:51:33.272,0.115,1.065
1:51:33.276,0.14,1.435
1:51:33.280,0.14,1.79
1:51:33.284,0.12,2.09
1:51:33.288,0.1,2.24
1:51:33.292,0.085,2.19
1:51:33.296,0.06,1.815
1:51:33.300,-0.095,1.23
1:51:33.304,-0.34,0.65
1:51:33.308,-0.675,0.415
1:51:33.312,-0.98,0.36
1:51:33.316,-1.16,0.255
1:51:33.320,-1.26,-0.01
1:51:33.324,-1.275,-0.3
1:51:33.328,-1.095,-0.465
1:51:33.332,-0.715,-0.525
1:51:33.336,-0.405,-0.49
1:51:33.340,-0.19,-0.4
1:51:33.344,-0.135,-0.285
1:51:33.348,-0.095,-0.18
1:51:33.352,-0.065,-0.135
1:51:33.356,-0.025,-0.12
1:51:33.360,-0.035,-0.155
1:51:33.364,0.01,-0.155
1:51:33.368,0.065,-0.15
1:51:33.372,0.13,-0.13
1:51:33.376,0.16,-0.11
1:51:33.380,0.18,-0.105
1:51:33.384,0.185,-0.125
1:51:33.388,0.195,-0.12
1:51:33.392,0.2,-0.115
1:51:33.396,0.2,-0.115
1:51:33.400,0.2,-0.12
1:51:33.404,0.22,-0.09
1:51:33.408,0.225,-0.11
1:51:33.412,0.225,-0.1
1:51:33.416,0.245,-0.105
1:51:33.420,0.225,-0.07
1:51:33.424,0.225,-0.095
1:51:33.428,0.215,-0.125
1:51:33.432,0.19,-0.11
1:51:33.436,0.2,-0.09
1:51:33.440,0.205,-0.095
1:51:33.444,0.22,-0.105
1:51:33.448,0.22,-0.11
1:51:33.452,0.205,-0.12
1:51:33.456,0.21,-0.11
1:51:33.460,0.205,-0.1
1:51:33.464,0.2,-0.09
1:51:33.468,0.19,-0.1
1:51:33.472,0.21,-0.11
1:51:33.476,0.22,-0.095
1:51:33.480,0.21,-0.095
1:51:33.484,0.23,-0.085
1:51:33.488,0.21,-0.1
1:51:33.492,0.205,-0.095
1:51:33.496,0.185,-0.095
1:51:33.500,0.205,-0.11
1:51:33.504,0.175,-0.085
1:51:33.508,0.18,-0.08
1:51:33.512,0.185,-0.055
1:51:33.516,0.195,-0.045
1:51:33.520,0.165,-0.035
1:51:33.524,0.14,-0.05
1:51:33.528,0.14,-0.055
1:51:33.532,0.135,-0.035
1:51:33.536,0.16,-0.01
1:51:33.540,0.14,-0.015
1:51:33.544,0.15,-0.01
1:51:33.548,0.145,0.035
1:51:33.552,0.12,0.035
1:51:33.556,0.115,0.075
1:51:33.560,0.095,0.09
1:51:33.564,0.105,0.12
1:51:33.568,0.08,0.115
1:51:33.572,0.075,0.15
1:51:33.576,0.06,0.175
1:51:33.580,0.08,0.2
1:51:33.584,0.075,0.21
1:51:33.588,0.08,0.21
1:51:33.592,0.075,0.175
1:51:33.596,0.08,0.175
1:51:33.600,0.08,0.175
1:51:33.604,0.09,0.16
1:51:33.608,0.095,0.18
1:51:33.612,0.06,0.165
1:51:33.616,0.075,0.17
1:51:33.620,0.085,0.16
1:51:33.624,0.08,0.195
1:51:33.628,0.1,0.165
1:51:33.632,0.095,0.145
1:51:33.636,0.11,0.125
1:51:33.640,0.11,0.15
1:51:33.644,0.115,0.13
1:51:33.648,0.105,0.115
1:51:33.652,0.1,0.14
1:51:33.656,0.095,0.13
1:51:33.660,0.09,0.145
1:51:33.664,0.12,0.14
