Time,ECG1,ECG2
11:51:00.000,0.975,-0.615
11:51:00.008,-0.425,-0.645
11:51:00.016,-0.695,-0.295
11:51:00.023,-0.395,-0.055
11:51:00.031,-0.155,-0.055
11:51:00.039,-0.095,-0.045
11:51:00.047,-0.095,-0.065
11:51:00.055,-0.105,-0.025
11:51:00.063,-0.105,-0.025
11:51:00.070,-0.095,-0.045
11:51:00.078,-0.095,-0.035
11:51:00.086,-0.075,-0.035
11:51:00.094,-0.075,-0.035
11:51:00.102,-0.065,-0.035
11:51:00.109,-0.065,-0.035
11:51:00.117,-0.045,-0.025
11:51:00.125,-0.045,-0.025
11:51:00.133,-0.005,-0.015
11:51:00.141,0.015,-0.055
11:51:00.148,-0.035,-0.055
11:51:00.156,0.025,-0.025
11:51:00.164,-0.075,-0.015
11:51:00.172,-0.005,0.005
11:51:00.180,0.015,-0.025
11:51:00.188,0.065,-0.035
11:51:00.195,0.025,-0.025
11:51:00.203,0.065,-0.025
11:51:00.211,0.095,-0.015
11:51:00.219,0.135,-0.025
11:51:00.227,0.125,-0.035
11:51:00.234,0.225,-0.045
11:51:00.242,0.225,-0.075
11:51:00.250,0.205,-0.035
11:51:00.258,0.245,-0.045
11:51:00.266,0.275,-0.065
11:51:00.273,0.315,-0.065
11:51:00.281,0.325,-0.065
11:51:00.289,0.325,-0.075
11:51:00.297,0.315,-0.075
11:51:00.305,0.265,-0.055
11:51:00.313,0.195,-0.035
11:51:00.320,0.125,-0.025
11:51:00.328,0.025,-0.035
11:51:00.336,-0.015,-0.025
11:51:00.344,-0.075,-0.025
11:51:00.352,-0.015,-0.065
11:51:00.359,-0.045,-0.075
11:51:00.367,-0.175,-0.025
11:51:00.375,-0.175,0.005
11:51:00.383,-0.155,-0.035
11:51:00.391,-0.205,-0.025
11:51:00.398,-0.185,-0.025
11:51:00.406,-0.125,-0.035
11:51:00.414,-0.145,-0.045
11:51:00.422,-0.165,-0.035
11:51:00.430,-0.135,-0.025
11:51:00.438,-0.145,-0.025
11:51:00.445,-0.135,-0.035
11:51:00.453,-0.135,-0.045
11:51:00.461,-0.145,-0.045
11:51:00.469,-0.125,-0.015
11:51:00.477,-0.115,-0.025
11:51:00.484,-0.105,-0.035
11:51:00.492,-0.115,-0.035
11:51:00.500,-0.115,-0.025
11:51:00.508,-0.105,-0.025
11:51:00.516,-0.125,-0.045
11:51:00.523,-0.125,-0.035
11:51:00.531,-0.115,-0.035
11:51:00.539,-0.085,-0.065
11:51:00.547,-0.105,-0.065
11:51:00.555,-0.095,-0.025
11:51:00.563,-0.095,-0.075
11:51:00.570,-0.185,-0.025
11:51:00.578,-0.155,-0.035
11:51:00.586,-0.155,-0.075
11:51:00.594,-0.045,-0.055
11:51:00.602,-0.165,-0.065
11:51:00.609,-0.175,-0.065
11:51:00.617,-0.155,-0.055
11:51:00.625,-0.145,-0.055
11:51:00.633,-0.135,-0.055
11:51:00.641,-0.165,-0.065
11:51:00.648,-0.165,-0.055
11:51:00.656,-0.135,-0.055
11:51:00.664,-0.145,-0.065
11:51:00.672,-0.145,-0.065
11:51:00.680,-0.145,-0.055
11:51:00.688,-0.145,-0.055
11:51:00.695,-0.135,-0.065
11:51:00.703,-0.155,-0.065
11:51:00.711,-0.135,-0.065
11:51:00.719,-0.125,-0.055
11:51:00.727,-0.135,-0.055
11:51:00.734,-0.125,-0.065
11:51:00.742,-0.125,-0.065
11:51:00.750,-0.115,-0.085
11:51:00.758,-0.115,-0.095
11:51:00.766,-0.055,-0.075
11:51:00.773,-0.235,-0.045
11:51:00.781,-0.135,-0.035
11:51:00.789,-0.165,-0.075
11:51:00.797,-0.125,-0.055
11:51:00.805,-0.165,-0.045
11:51:00.813,-0.115,-0.065
11:51:00.820,-0.135,-0.085
11:51:00.828,-0.155,-0.065
11:51:00.836,-0.115,-0.055
11:51:00.844,-0.125,-0.065
11:51:00.852,-0.135,-0.065
11:51:00.859,-0.125,-0.065
11:51:00.867,-0.125,-0.075
11:51:00.875,-0.125,-0.065
11:51:00.883,-0.125,-0.065
11:51:00.891,-0.125,-0.075
11:51:00.898,-0.115,-0.065
11:51:00.906,-0.085,-0.045
11:51:00.914,-0.065,-0.035
11:51:00.922,-0.015,-0.005
11:51:00.930,-0.035,-0.015
11:51:00.938,0.065,0.035
11:51:00.945,0.125,-0.005
11:51:00.953,-0.035,-0.025
11:51:00.961,-0.035,-0.055
11:51:00.969,0.005,-0.085
11:51:00.977,-0.035,-0.105
11:51:00.984,-0.125,-0.085
11:51:00.992,-0.125,-0.075
11:51:01.000,-0.155,-0.085
11:51:01.008,-0.135,-0.105
11:51:01.016,-0.125,-0.105
11:51:01.023,-0.115,-0.095
11:51:01.031,-0.065,0.025
11:51:01.039,-0.045,0.045
11:51:01.047,0.375,-0.205
11:51:01.055,1.055,-0.355
11:51:01.063,1.215,-0.595
11:51:01.070,-0.065,-0.725
11:51:01.078,-0.765,-0.455
11:51:01.086,-0.545,-0.125
11:51:01.094,-0.235,-0.055
11:51:01.102,-0.085,-0.095
11:51:01.109,-0.105,-0.095
11:51:01.117,-0.065,-0.085
11:51:01.125,-0.075,-0.085
11:51:01.133,-0.225,-0.045
11:51:01.141,-0.105,-0.055
11:51:01.148,-0.135,-0.075
11:51:01.156,-0.165,-0.035
11:51:01.164,-0.125,-0.035
11:51:01.172,-0.115,-0.065
11:51:01.180,-0.085,-0.045
11:51:01.188,-0.095,-0.045
11:51:01.195,-0.075,-0.035
11:51:01.203,-0.065,-0.055
11:51:01.211,-0.065,-0.045
11:51:01.219,-0.045,-0.035
11:51:01.227,-0.025,-0.045
11:51:01.234,-0.015,-0.045
11:51:01.242,-0.005,-0.035
11:51:01.250,0.015,-0.035
11:51:01.258,0.025,-0.055
11:51:01.266,0.045,-0.065
11:51:01.273,0.065,-0.055
11:51:01.281,0.095,-0.045
11:51:01.289,0.125,-0.055
11:51:01.297,0.155,-0.065
11:51:01.305,0.155,-0.065
11:51:01.313,0.245,-0.085
11:51:01.320,0.305,-0.105
11:51:01.328,0.195,-0.095
11:51:01.336,0.205,-0.055
11:51:01.344,0.255,-0.075
11:51:01.352,0.325,-0.105
11:51:01.359,0.315,-0.115
11:51:01.367,0.255,-0.085
11:51:01.375,0.195,-0.065
11:51:01.383,0.105,-0.055
11:51:01.391,0.025,-0.055
11:51:01.398,-0.025,-0.055
11:51:01.406,-0.065,-0.035
11:51:01.414,-0.095,-0.055
11:51:01.422,-0.125,-0.055
11:51:01.430,-0.135,-0.045
11:51:01.438,-0.155,-0.055
11:51:01.445,-0.155,-0.055
11:51:01.453,-0.175,-0.065
11:51:01.461,-0.165,-0.065
11:51:01.469,-0.155,-0.055
11:51:01.477,-0.155,-0.055
11:51:01.484,-0.105,-0.085
11:51:01.492,-0.205,-0.095
11:51:01.500,-0.085,-0.065
11:51:01.508,-0.155,-0.115
11:51:01.516,-0.255,-0.035
11:51:01.523,-0.145,-0.055
11:51:01.531,-0.155,-0.065
11:51:01.539,-0.195,-0.045
11:51:01.547,-0.135,-0.055
11:51:01.555,-0.155,-0.075
11:51:01.563,-0.115,-0.065
11:51:01.570,-0.155,-0.075
11:51:01.578,-0.165,-0.065
11:51:01.586,-0.135,-0.075
11:51:01.594,-0.155,-0.065
11:51:01.602,-0.165,-0.075
11:51:01.609,-0.145,-0.085
11:51:01.617,-0.155,-0.075
11:51:01.625,-0.155,-0.075
11:51:01.633,-0.155,-0.075
11:51:01.641,-0.185,-0.095
11:51:01.648,-0.175,-0.085
11:51:01.656,-0.165,-0.075
11:51:01.664,-0.145,-0.095
11:51:01.672,-0.135,-0.115
11:51:01.680,-0.175,-0.115
11:51:01.688,-0.095,-0.095
11:51:01.695,-0.165,-0.145
11:51:01.703,-0.235,-0.075
11:51:01.711,-0.225,-0.075
11:51:01.719,-0.225,-0.075
11:51:01.727,-0.215,-0.075
11:51:01.734,-0.165,-0.105
11:51:01.742,-0.175,-0.105
11:51:01.750,-0.175,-0.095
11:51:01.758,-0.175,-0.105
11:51:01.766,-0.205,-0.115
11:51:01.773,-0.175,-0.105
11:51:01.781,-0.175,-0.085
11:51:01.789,-0.155,-0.105
11:51:01.797,-0.155,-0.115
11:51:01.805,-0.155,-0.095
11:51:01.813,-0.145,-0.105
11:51:01.820,-0.155,-0.105
11:51:01.828,-0.195,-0.115
11:51:01.836,-0.185,-0.105
11:51:01.844,-0.095,-0.105
11:51:01.852,-0.185,-0.115
11:51:01.859,-0.185,-0.095
11:51:01.867,-0.145,-0.095
11:51:01.875,-0.145,-0.125
11:51:01.883,-0.145,-0.105
11:51:01.891,-0.165,-0.105
11:51:01.898,-0.185,-0.105
11:51:01.906,-0.175,-0.085
11:51:01.914,-0.165,-0.085
11:51:01.922,-0.155,-0.115
11:51:01.930,-0.145,-0.105
11:51:01.938,-0.145,-0.105
11:51:01.945,-0.085,-0.105
11:51:01.953,-0.135,-0.135
11:51:01.961,-0.175,-0.085
11:51:01.969,-0.035,-0.065
11:51:01.977,-0.075,-0.085
11:51:01.984,-0.075,-0.005
11:51:01.992,-0.005,-0.025
11:51:02.000,0.005,0.005
11:51:02.008,0.025,-0.085
11:51:02.016,-0.015,-0.135
11:51:02.023,-0.035,-0.115
11:51:02.031,-0.075,-0.115
11:51:02.039,-0.135,-0.145
11:51:02.047,-0.165,-0.145
11:51:02.055,-0.165,-0.135
11:51:02.063,-0.145,-0.145
11:51:02.070,-0.145,-0.145
11:51:02.078,-0.145,-0.145
11:51:02.086,-0.085,-0.055
11:51:02.094,-0.055,0.025
11:51:02.102,0.225,-0.175
11:51:02.109,1.015,-0.415
11:51:02.117,1.415,-0.595
11:51:02.125,0.245,-0.625
11:51:02.133,-0.695,-0.475
11:51:02.141,-0.625,-0.235
11:51:02.148,-0.385,-0.115
11:51:02.156,-0.185,-0.115
11:51:02.164,-0.105,-0.135
11:51:02.172,-0.125,-0.155
11:51:02.180,-0.175,-0.095
11:51:02.188,-0.155,-0.095
11:51:02.195,-0.135,-0.105
11:51:02.203,-0.145,-0.135
11:51:02.211,-0.145,-0.115
11:51:02.219,-0.095,-0.095
11:51:02.227,-0.145,-0.105
11:51:02.234,-0.085,-0.095
11:51:02.242,-0.105,-0.105
11:51:02.250,-0.125,-0.095
11:51:02.258,-0.085,-0.095
11:51:02.266,-0.115,-0.105
11:51:02.273,-0.085,-0.105
11:51:02.281,-0.065,-0.095
11:51:02.289,-0.055,-0.105
11:51:02.297,-0.025,-0.115
11:51:02.305,0.015,-0.105
11:51:02.313,0.025,-0.145
11:51:02.320,0.005,-0.105
11:51:02.328,0.015,-0.125
11:51:02.336,0.045,-0.105
11:51:02.344,0.045,-0.095
11:51:02.352,0.065,-0.105
11:51:02.359,0.145,-0.155
11:51:02.367,0.115,-0.125
11:51:02.375,0.135,-0.135
11:51:02.383,0.295,-0.165
11:51:02.391,0.165,-0.165
11:51:02.398,0.235,-0.135
11:51:02.406,0.265,-0.145
11:51:02.414,0.265,-0.155
11:51:02.422,0.245,-0.145
11:51:02.430,0.205,-0.125
11:51:02.438,0.135,-0.105
11:51:02.445,0.085,-0.095
11:51:02.453,-0.005,-0.105
11:51:02.461,-0.045,-0.135
11:51:02.469,-0.075,-0.065
11:51:02.477,-0.125,-0.075
11:51:02.484,-0.185,-0.065
11:51:02.492,-0.185,-0.055
11:51:02.500,-0.175,-0.075
11:51:02.508,-0.175,-0.085
11:51:02.516,-0.195,-0.095
11:51:02.523,-0.185,-0.085
11:51:02.531,-0.165,-0.065
11:51:02.539,-0.165,-0.075
11:51:02.547,-0.115,-0.095
11:51:02.555,-0.155,-0.105
11:51:02.563,-0.185,-0.075
11:51:02.570,-0.095,-0.075
11:51:02.578,-0.165,-0.115
11:51:02.586,-0.185,-0.065
11:51:02.594,-0.115,-0.085
11:51:02.602,-0.145,-0.085
11:51:02.609,-0.165,-0.075
11:51:02.617,-0.135,-0.075
11:51:02.625,-0.145,-0.075
11:51:02.633,-0.125,-0.085
11:51:02.641,-0.145,-0.085
11:51:02.648,-0.135,-0.095
11:51:02.656,-0.145,-0.085
11:51:02.664,-0.135,-0.095
11:51:02.672,-0.135,-0.095
11:51:02.680,-0.155,-0.095
11:51:02.688,-0.155,-0.095
11:51:02.695,-0.145,-0.095
11:51:02.703,-0.155,-0.135
11:51:02.711,-0.155,-0.095
11:51:02.719,-0.145,-0.075
11:51:02.727,-0.165,-0.105
11:51:02.734,-0.095,-0.125
11:51:02.742,-0.205,-0.095
11:51:02.750,0.035,-0.165
11:51:02.758,-0.125,-0.195
11:51:02.766,-0.245,-0.055
11:51:02.773,-0.205,-0.055
11:51:02.781,-0.165,-0.085
11:51:02.789,-0.155,-0.105
11:51:02.797,-0.135,-0.115
11:51:02.805,-0.125,-0.105
11:51:02.813,-0.135,-0.105
11:51:02.820,-0.125,-0.095
11:51:02.828,-0.155,-0.115
11:51:02.836,-0.145,-0.105
11:51:02.844,-0.125,-0.095
11:51:02.852,-0.145,-0.115
11:51:02.859,-0.135,-0.125
11:51:02.867,-0.125,-0.095
11:51:02.875,-0.115,-0.095
11:51:02.883,-0.125,-0.105
11:51:02.891,-0.125,-0.115
11:51:02.898,-0.105,-0.105
11:51:02.906,-0.125,-0.095
11:51:02.914,-0.135,-0.105
11:51:02.922,-0.125,-0.125
11:51:02.930,-0.095,-0.125
11:51:02.938,-0.115,-0.115
11:51:02.945,-0.125,-0.105
11:51:02.953,-0.065,-0.125
11:51:02.961,-0.065,-0.155
11:51:02.969,-0.125,-0.075
11:51:02.977,-0.095,-0.095
11:51:02.984,-0.145,-0.085
11:51:02.992,-0.035,-0.065
11:51:03.000,-0.045,-0.025
11:51:03.008,0.065,-0.025
11:51:03.016,0.055,-0.045
11:51:03.023,0.025,-0.025
11:51:03.031,0.045,-0.075
11:51:03.039,0.025,-0.115
11:51:03.047,-0.005,-0.115
11:51:03.055,-0.035,-0.095
11:51:03.063,-0.085,-0.095
11:51:03.070,-0.105,-0.115
11:51:03.078,-0.105,-0.115
11:51:03.086,-0.095,-0.125
11:51:03.094,-0.055,-0.115
11:51:03.102,-0.075,-0.105
11:51:03.109,-0.035,0.005
11:51:03.117,0.005,-0.015
11:51:03.125,0.565,-0.245
11:51:03.133,1.355,-0.395
11:51:03.141,1.205,-0.625
11:51:03.148,-0.195,-0.665
11:51:03.156,-0.665,-0.365
11:51:03.164,-0.495,-0.125
11:51:03.172,-0.215,-0.075
11:51:03.180,-0.095,-0.085
11:51:03.188,-0.095,-0.075
11:51:03.195,-0.105,-0.075
11:51:03.203,-0.095,-0.085
11:51:03.211,-0.095,-0.085
11:51:03.219,-0.075,-0.065
11:51:03.227,-0.075,-0.075
11:51:03.234,-0.045,-0.085
11:51:03.242,-0.065,-0.085
11:51:03.250,-0.065,-0.045
11:51:03.258,-0.075,-0.055
11:51:03.266,-0.065,-0.065
11:51:03.273,0.025,-0.085
11:51:03.281,-0.035,-0.095
11:51:03.289,-0.035,-0.025
11:51:03.297,-0.045,-0.045
11:51:03.305,-0.015,-0.045
11:51:03.313,0.015,-0.055
11:51:03.320,0.025,-0.085
11:51:03.328,0.015,-0.055
11:51:03.336,0.045,-0.055
11:51:03.344,0.045,-0.055
11:51:03.352,0.115,-0.045
11:51:03.359,0.135,-0.095
11:51:03.367,0.095,-0.065
11:51:03.375,0.165,-0.065
11:51:03.383,0.185,-0.055
11:51:03.391,0.245,-0.115
11:51:03.398,0.235,-0.095
11:51:03.406,0.285,-0.095
11:51:03.414,0.285,-0.075
11:51:03.422,0.345,-0.105
11:51:03.430,0.305,-0.095
11:51:03.438,0.295,-0.095
11:51:03.445,0.305,-0.105
11:51:03.453,0.175,-0.085
11:51:03.461,0.115,-0.075
11:51:03.469,0.075,-0.055
11:51:03.477,-0.045,-0.035
11:51:03.484,-0.085,-0.015
11:51:03.492,-0.105,-0.035
11:51:03.500,-0.115,-0.025
11:51:03.508,-0.135,-0.055
11:51:03.516,-0.155,-0.065
11:51:03.523,-0.155,-0.045
11:51:03.531,-0.145,-0.045
11:51:03.539,-0.145,-0.045
11:51:03.547,-0.145,-0.055
11:51:03.555,-0.075,-0.055
11:51:03.563,-0.165,-0.055
11:51:03.570,-0.105,-0.055
11:51:03.578,-0.185,-0.055
11:51:03.586,-0.105,-0.045
11:51:03.594,-0.155,-0.065
11:51:03.602,-0.075,-0.045
11:51:03.609,-0.145,-0.055
11:51:03.617,-0.095,-0.035
11:51:03.625,-0.085,-0.075
11:51:03.633,-0.155,-0.025
11:51:03.641,-0.135,-0.035
11:51:03.648,-0.125,-0.045
11:51:03.656,-0.115,-0.045
11:51:03.664,-0.125,-0.055
11:51:03.672,-0.095,-0.045
11:51:03.680,-0.035,-0.065
11:51:03.688,-0.125,-0.085
11:51:03.695,-0.155,-0.035
11:51:03.703,-0.145,-0.055
11:51:03.711,-0.135,-0.055
11:51:03.719,-0.135,-0.045
11:51:03.727,-0.135,-0.055
11:51:03.734,-0.115,-0.065
11:51:03.742,-0.125,-0.055
11:51:03.750,-0.135,-0.065
11:51:03.758,-0.115,-0.065
11:51:03.766,-0.165,-0.075
11:51:03.773,-0.085,-0.075
11:51:03.781,-0.095,-0.095
11:51:03.789,-0.065,-0.035
11:51:03.797,-0.175,-0.095
11:51:03.805,-0.105,-0.065
11:51:03.813,-0.165,-0.045
11:51:03.820,-0.165,-0.035
11:51:03.828,-0.175,-0.055
11:51:03.836,-0.135,-0.065
11:51:03.844,-0.125,-0.065
11:51:03.852,-0.145,-0.055
11:51:03.859,-0.055,-0.085
11:51:03.867,-0.115,-0.095
11:51:03.875,-0.185,-0.025
11:51:03.883,-0.145,-0.055
11:51:03.891,-0.155,-0.065
11:51:03.898,-0.135,-0.065
11:51:03.906,-0.115,-0.065
11:51:03.914,-0.115,-0.065
11:51:03.922,-0.125,-0.065
11:51:03.930,-0.115,-0.065
11:51:03.938,-0.095,-0.055
11:51:03.945,-0.125,-0.045
11:51:03.953,-0.095,-0.065
11:51:03.961,-0.095,-0.075
11:51:03.969,-0.105,-0.075
11:51:03.977,-0.075,-0.065
11:51:03.984,-0.095,-0.095
11:51:03.992,-0.085,-0.085
11:51:04.000,-0.125,-0.015
11:51:04.008,-0.105,0.005
11:51:04.016,-0.035,0.005
11:51:04.023,-0.025,0.015
11:51:04.031,0.025,0.015
11:51:04.039,0.065,0.045
11:51:04.047,0.095,-0.045
11:51:04.055,0.085,-0.085
11:51:04.063,-0.005,-0.095
11:51:04.070,-0.035,-0.055
11:51:04.078,-0.075,-0.075
11:51:04.086,-0.145,-0.055
11:51:04.094,-0.085,-0.075
11:51:04.102,-0.095,-0.105
11:51:04.109,-0.145,-0.095
11:51:04.117,-0.085,-0.065
11:51:04.125,-0.055,0.035
11:51:04.133,-0.055,0.055
11:51:04.141,0.415,-0.185
11:51:04.148,1.115,-0.395
11:51:04.156,1.295,-0.585
11:51:04.164,-0.045,-0.685
11:51:04.172,-0.725,-0.415
11:51:04.180,-0.545,-0.095
11:51:04.188,-0.195,-0.035
11:51:04.195,-0.055,-0.065
11:51:04.203,-0.075,-0.095
11:51:04.211,-0.075,-0.065
11:51:04.219,-0.115,-0.085
11:51:04.227,-0.115,-0.025
11:51:04.234,-0.105,-0.015
11:51:04.242,-0.095,-0.035
11:51:04.250,-0.105,-0.035
11:51:04.258,-0.065,-0.035
11:51:04.266,-0.055,-0.055
11:51:04.273,-0.085,-0.065
11:51:04.281,-0.035,-0.005
11:51:04.289,-0.095,-0.025
11:51:04.297,-0.045,-0.025
11:51:04.305,-0.015,-0.025
11:51:04.313,-0.045,-0.005
11:51:04.320,-0.005,-0.015
11:51:04.328,-0.025,-0.035
11:51:04.336,0.035,-0.025
11:51:04.344,0.025,-0.025
11:51:04.352,0.065,-0.015
11:51:04.359,0.075,-0.055
11:51:04.367,0.085,-0.015
11:51:04.375,0.095,-0.015
11:51:04.383,0.145,-0.025
11:51:04.391,0.165,-0.025
11:51:04.398,0.205,-0.045
11:51:04.406,0.235,-0.045
11:51:04.414,0.265,-0.055
11:51:04.422,0.305,-0.055
11:51:04.430,0.305,-0.075
11:51:04.438,0.325,-0.075
11:51:04.445,0.415,-0.095
11:51:04.453,0.295,-0.085
11:51:04.461,0.215,-0.025
11:51:04.469,0.205,-0.015
11:51:04.477,0.175,-0.025
11:51:04.484,0.055,-0.055
11:51:04.492,-0.035,0.005
11:51:04.500,-0.035,-0.005
11:51:04.508,-0.105,-0.005
11:51:04.516,-0.095,-0.015
11:51:04.523,-0.105,-0.025
11:51:04.531,-0.145,-0.025
11:51:04.539,-0.135,-0.015
11:51:04.547,-0.135,-0.035
11:51:04.555,-0.135,-0.025
11:51:04.563,-0.135,-0.025
11:51:04.570,-0.135,-0.035
11:51:04.578,-0.145,-0.045
11:51:04.586,-0.135,-0.035
11:51:04.594,-0.135,-0.035
11:51:04.602,-0.145,-0.035
11:51:04.609,-0.105,-0.045
11:51:04.617,-0.015,-0.055
11:51:04.625,-0.085,-0.075
11:51:04.633,-0.125,-0.005
11:51:04.641,-0.135,-0.015
11:51:04.648,-0.145,-0.025
11:51:04.656,-0.135,-0.015
11:51:04.664,-0.085,-0.035
11:51:04.672,-0.105,-0.035
11:51:04.680,-0.075,-0.055
11:51:04.688,-0.075,-0.035
11:51:04.695,-0.125,-0.055
11:51:04.703,-0.155,-0.025
11:51:04.711,-0.105,-0.035
11:51:04.719,-0.085,-0.045
11:51:04.727,-0.115,-0.055
11:51:04.734,-0.125,-0.045
11:51:04.742,-0.125,-0.045
11:51:04.750,-0.115,-0.035
11:51:04.758,-0.095,-0.055
11:51:04.766,-0.125,-0.055
11:51:04.773,-0.125,-0.045
11:51:04.781,-0.125,-0.045
11:51:04.789,-0.115,-0.055
11:51:04.797,-0.075,-0.085
11:51:04.805,-0.075,-0.075
11:51:04.813,-0.145,-0.035
11:51:04.820,-0.075,-0.055
11:51:04.828,-0.145,-0.075
11:51:04.836,-0.195,-0.035
11:51:04.844,-0.035,-0.055
11:51:04.852,-0.145,-0.055
11:51:04.859,-0.115,-0.045
11:51:04.867,-0.095,-0.065
11:51:04.875,-0.165,-0.045
11:51:04.883,-0.115,-0.055
11:51:04.891,-0.135,-0.055
11:51:04.898,-0.095,-0.045
11:51:04.906,-0.095,-0.065
11:51:04.914,-0.115,-0.045
11:51:04.922,-0.115,-0.065
11:51:04.930,-0.095,-0.055
11:51:04.938,-0.105,-0.065
11:51:04.945,-0.095,-0.065
11:51:04.953,-0.115,-0.055
11:51:04.961,-0.105,-0.065
11:51:04.969,-0.085,-0.055
11:51:04.977,-0.085,-0.065
11:51:04.984,-0.085,-0.065
11:51:04.992,-0.095,-0.055
11:51:05.000,-0.045,-0.045
11:51:05.008,-0.025,-0.095
11:51:05.016,-0.095,-0.015
11:51:05.023,-0.005,0.035
11:51:05.031,0.095,-0.015
11:51:05.039,-0.025,0.035
11:51:05.047,0.065,0.065
11:51:05.055,0.095,-0.035
11:51:05.063,0.065,-0.065
11:51:05.070,0.025,-0.085
11:51:05.078,0.005,-0.105
11:51:05.086,-0.095,-0.065
11:51:05.094,-0.095,-0.045
11:51:05.102,-0.125,-0.075
11:51:05.109,-0.105,-0.095
11:51:05.117,-0.095,-0.095
11:51:05.125,-0.065,-0.075
11:51:05.133,-0.025,0.005
11:51:05.141,-0.035,0.075
11:51:05.148,0.285,-0.135
11:51:05.156,0.895,-0.325
11:51:05.164,1.435,-0.535
11:51:05.172,0.385,-0.675
11:51:05.180,-0.615,-0.535
11:51:05.188,-0.625,-0.215
11:51:05.195,-0.225,-0.055
11:51:05.203,-0.055,-0.105
11:51:05.211,-0.065,-0.085
11:51:05.219,-0.145,-0.045
11:51:05.227,-0.055,-0.065
11:51:05.234,-0.065,-0.085
11:51:05.242,-0.125,-0.035
11:51:05.250,-0.105,-0.025
11:51:05.258,-0.095,-0.055
11:51:05.266,-0.095,-0.065
11:51:05.273,-0.075,-0.055
11:51:05.281,-0.065,-0.035
11:51:05.289,-0.055,-0.035
11:51:05.297,-0.045,-0.045
11:51:05.305,-0.005,-0.045
11:51:05.313,-0.045,-0.045
11:51:05.320,0.005,-0.045
11:51:05.328,0.025,-0.105
11:51:05.336,0.025,-0.055
11:51:05.344,-0.065,-0.005
11:51:05.352,-0.005,-0.025
11:51:05.359,0.035,-0.055
11:51:05.367,0.045,-0.045
11:51:05.375,0.055,-0.045
11:51:05.383,0.105,-0.055
11:51:05.391,0.105,-0.075
11:51:05.398,0.145,-0.075
11:51:05.406,0.165,-0.065
11:51:05.414,0.195,-0.075
11:51:05.422,0.235,-0.095
11:51:05.430,0.265,-0.095
11:51:05.438,0.305,-0.095
11:51:05.445,0.325,-0.095
11:51:05.453,0.295,-0.115
11:51:05.461,0.335,-0.135
11:51:05.469,0.285,-0.125
11:51:05.477,0.285,-0.105
11:51:05.484,0.155,-0.095
11:51:05.492,0.105,-0.055
11:51:05.500,0.005,-0.045
11:51:05.508,-0.075,-0.045
11:51:05.516,-0.055,-0.065
11:51:05.523,-0.075,-0.075
11:51:05.531,-0.145,-0.045
11:51:05.539,-0.135,-0.055
11:51:05.547,-0.135,-0.075
11:51:05.555,-0.145,-0.065
11:51:05.563,-0.165,-0.055
11:51:05.570,-0.155,-0.045
11:51:05.578,-0.165,-0.075
11:51:05.586,-0.145,-0.065
11:51:05.594,-0.135,-0.065
11:51:05.602,-0.135,-0.055
11:51:05.609,-0.125,-0.075
11:51:05.617,-0.135,-0.065
11:51:05.625,-0.105,-0.065
11:51:05.633,-0.115,-0.065
11:51:05.641,-0.115,-0.095
11:51:05.648,-0.115,-0.085
11:51:05.656,0.025,-0.135
11:51:05.664,-0.145,-0.085
11:51:05.672,-0.175,-0.015
11:51:05.680,-0.105,-0.065
11:51:05.688,-0.135,-0.075
11:51:05.695,-0.165,-0.065
11:51:05.703,-0.085,-0.095
11:51:05.711,-0.115,-0.075
11:51:05.719,-0.135,-0.105
11:51:05.727,-0.145,-0.065
11:51:05.734,-0.145,-0.095
11:51:05.742,-0.135,-0.085
11:51:05.750,-0.135,-0.085
11:51:05.758,-0.125,-0.095
11:51:05.766,-0.145,-0.105
11:51:05.773,-0.135,-0.095
11:51:05.781,-0.125,-0.075
11:51:05.789,-0.125,-0.105
11:51:05.797,-0.125,-0.105
11:51:05.805,-0.115,-0.095
11:51:05.813,-0.095,-0.105
11:51:05.820,-0.115,-0.125
11:51:05.828,-0.115,-0.145
11:51:05.836,-0.135,-0.105
11:51:05.844,-0.165,-0.075
11:51:05.852,-0.165,-0.065
11:51:05.859,-0.145,-0.105
11:51:05.867,-0.115,-0.095
11:51:05.875,-0.125,-0.105
11:51:05.883,-0.115,-0.115
11:51:05.891,-0.045,-0.155
11:51:05.898,-0.155,-0.135
11:51:05.906,-0.195,-0.055
11:51:05.914,-0.155,-0.085
11:51:05.922,-0.125,-0.105
11:51:05.930,-0.125,-0.105
11:51:05.938,-0.115,-0.105
11:51:05.945,-0.105,-0.105
11:51:05.953,-0.125,-0.115
11:51:05.961,-0.115,-0.105
11:51:05.969,-0.105,-0.095
11:51:05.977,-0.105,-0.105
11:51:05.984,-0.095,-0.115
11:51:05.992,-0.055,-0.085
11:51:06.000,-0.035,-0.055
11:51:06.008,-0.035,-0.035
11:51:06.016,0.015,-0.065
11:51:06.023,0.015,-0.005
11:51:06.031,0.105,-0.005
11:51:06.039,0.085,-0.145
11:51:06.047,0.015,-0.135
11:51:06.055,-0.005,-0.095
11:51:06.063,-0.065,-0.145
11:51:06.070,-0.055,-0.135
11:51:06.078,-0.185,-0.135
11:51:06.086,-0.115,-0.135
11:51:06.094,-0.125,-0.145
11:51:06.102,-0.125,-0.125
11:51:06.109,-0.065,-0.125
11:51:06.117,-0.055,-0.005
11:51:06.125,0.005,-0.035
11:51:06.133,0.535,-0.265
11:51:06.141,1.195,-0.405
11:51:06.148,1.215,-0.615
11:51:06.156,-0.095,-0.665
11:51:06.164,-0.685,-0.365
11:51:06.172,-0.475,-0.145
11:51:06.180,-0.195,-0.095
11:51:06.188,-0.075,-0.115
11:51:06.195,-0.095,-0.125
11:51:06.203,-0.115,-0.135
11:51:06.211,-0.125,-0.125
11:51:06.219,-0.065,-0.135
11:51:06.227,0.025,-0.185
11:51:06.234,-0.135,-0.155
11:51:06.242,-0.125,-0.065
11:51:06.250,-0.065,-0.065
11:51:06.258,-0.065,-0.155
11:51:06.266,-0.155,-0.095
11:51:06.273,-0.055,-0.105
11:51:06.281,-0.095,-0.115
11:51:06.289,-0.085,-0.075
11:51:06.297,-0.055,-0.095
11:51:06.305,-0.035,-0.095
11:51:06.313,-0.025,-0.105
11:51:06.320,-0.005,-0.105
11:51:06.328,-0.005,-0.115
11:51:06.336,0.045,-0.125
11:51:06.344,0.065,-0.125
11:51:06.352,0.065,-0.135
11:51:06.359,0.025,-0.115
11:51:06.367,0.055,-0.105
11:51:06.375,0.095,-0.105
11:51:06.383,0.125,-0.115
11:51:06.391,0.155,-0.145
11:51:06.398,0.195,-0.145
11:51:06.406,0.225,-0.145
11:51:06.414,0.255,-0.165
11:51:06.422,0.285,-0.165
11:51:06.430,0.305,-0.165
11:51:06.438,0.315,-0.155
11:51:06.445,0.295,-0.145
11:51:06.453,0.235,-0.165
11:51:06.461,0.245,-0.135
11:51:06.469,0.205,-0.115
11:51:06.477,-0.005,-0.075
11:51:06.484,-0.005,-0.045
11:51:06.492,-0.095,-0.055
11:51:06.500,-0.055,-0.065
11:51:06.508,-0.115,-0.075
11:51:06.516,-0.145,-0.075
11:51:06.523,-0.135,-0.075
11:51:06.531,-0.145,-0.065
11:51:06.539,-0.125,-0.085
11:51:06.547,-0.125,-0.075
11:51:06.555,-0.145,-0.065
11:51:06.563,-0.135,-0.065
11:51:06.570,-0.135,-0.085
11:51:06.578,-0.165,-0.085
11:51:06.586,-0.135,-0.085
11:51:06.594,-0.115,-0.075
11:51:06.602,-0.125,-0.075
11:51:06.609,-0.135,-0.075
11:51:06.617,-0.115,-0.085
11:51:06.625,-0.105,-0.075
11:51:06.633,-0.105,-0.085
11:51:06.641,-0.125,-0.075
11:51:06.648,-0.115,-0.075
11:51:06.656,-0.095,-0.075
11:51:06.664,-0.105,-0.075
11:51:06.672,-0.135,-0.095
11:51:06.680,-0.115,-0.085
11:51:06.688,-0.125,-0.075
11:51:06.695,-0.115,-0.075
11:51:06.703,-0.135,-0.085
11:51:06.711,-0.125,-0.085
11:51:06.719,-0.105,-0.065
11:51:06.727,-0.115,-0.085
11:51:06.734,-0.125,-0.095
11:51:06.742,-0.125,-0.085
11:51:06.750,-0.105,-0.075
11:51:06.758,-0.125,-0.095
11:51:06.766,-0.135,-0.105
11:51:06.773,-0.125,-0.095
11:51:06.781,-0.115,-0.075
11:51:06.789,-0.115,-0.095
11:51:06.797,-0.125,-0.105
11:51:06.805,-0.115,-0.095
11:51:06.813,-0.115,-0.075
11:51:06.820,-0.125,-0.095
11:51:06.828,-0.135,-0.095
11:51:06.836,-0.125,-0.095
11:51:06.844,-0.125,-0.095
11:51:06.852,-0.105,-0.085
11:51:06.859,-0.105,-0.095
11:51:06.867,-0.125,-0.085
11:51:06.875,-0.135,-0.085
11:51:06.883,-0.095,-0.105
11:51:06.891,-0.115,-0.105
11:51:06.898,-0.155,-0.085
11:51:06.906,-0.115,-0.035
11:51:06.914,-0.105,-0.105
11:51:06.922,-0.135,-0.125
11:51:06.930,-0.115,-0.095
11:51:06.938,-0.105,-0.085
11:51:06.945,-0.085,-0.085
11:51:06.953,-0.075,-0.075
11:51:06.961,-0.015,-0.025
11:51:06.969,-0.015,-0.015
11:51:06.977,0.025,-0.015
11:51:06.984,0.075,-0.005
11:51:06.992,0.065,-0.055
11:51:07.000,0.045,-0.095
11:51:07.008,0.025,-0.095
11:51:07.016,-0.055,-0.095
11:51:07.023,-0.085,-0.105
11:51:07.031,-0.065,-0.105
11:51:07.039,-0.045,-0.155
11:51:07.047,-0.085,-0.115
11:51:07.055,-0.145,-0.095
11:51:07.063,-0.095,-0.075
11:51:07.070,-0.055,-0.025
11:51:07.078,-0.095,0.065
11:51:07.086,0.245,-0.105
11:51:07.094,0.905,-0.295
11:51:07.102,1.475,-0.525
11:51:07.109,0.275,-0.685
11:51:07.117,-0.705,-0.485
11:51:07.125,-0.575,-0.145
11:51:07.133,-0.265,-0.035
11:51:07.141,-0.085,-0.095
11:51:07.148,-0.085,-0.075
11:51:07.156,-0.105,-0.045
11:51:07.164,-0.075,-0.075
11:51:07.172,-0.085,-0.075
11:51:07.180,-0.075,-0.055
11:51:07.188,-0.085,-0.045
11:51:07.195,-0.075,-0.055
11:51:07.203,-0.065,-0.065
11:51:07.211,-0.025,-0.055
11:51:07.219,-0.085,-0.065
11:51:07.227,-0.065,-0.025
11:51:07.234,-0.015,-0.065
11:51:07.242,-0.045,-0.045
11:51:07.250,-0.045,-0.015
11:51:07.258,-0.015,-0.035
11:51:07.266,-0.035,-0.045
11:51:07.273,0.015,-0.025
11:51:07.281,0.015,-0.035
11:51:07.289,0.135,-0.055
11:51:07.297,0.005,-0.055
11:51:07.305,0.045,-0.015
11:51:07.313,0.105,-0.025
11:51:07.320,0.095,-0.045
11:51:07.328,0.095,-0.045
11:51:07.336,0.155,-0.035
11:51:07.344,0.185,-0.035
11:51:07.352,0.215,-0.055
11:51:07.359,0.255,-0.065
11:51:07.367,0.275,-0.065
11:51:07.375,0.305,-0.065
11:51:07.383,0.325,-0.075
11:51:07.391,0.315,-0.075
11:51:07.398,0.325,-0.075
11:51:07.406,0.315,-0.055
11:51:07.414,0.255,-0.055
11:51:07.422,0.225,-0.055
11:51:07.430,0.145,-0.045
11:51:07.438,0.025,-0.025
11:51:07.445,-0.035,-0.005
11:51:07.453,-0.095,-0.005
11:51:07.461,-0.095,-0.015
11:51:07.469,-0.105,-0.015
11:51:07.477,-0.115,-0.025
11:51:07.484,-0.125,-0.025
11:51:07.492,-0.115,-0.025
11:51:07.500,-0.135,-0.035
11:51:07.508,-0.125,-0.025
11:51:07.516,-0.155,-0.035
11:51:07.523,-0.125,-0.035
11:51:07.531,-0.105,-0.035
11:51:07.539,-0.095,-0.045
11:51:07.547,-0.125,-0.035
11:51:07.555,-0.135,-0.015
11:51:07.563,-0.115,-0.025
11:51:07.570,-0.115,-0.045
11:51:07.578,-0.135,-0.045
11:51:07.586,-0.125,-0.015
11:51:07.594,-0.085,-0.025
11:51:07.602,-0.105,-0.035
11:51:07.609,-0.105,-0.025
11:51:07.617,-0.105,-0.025
11:51:07.625,-0.085,-0.035
11:51:07.633,-0.095,-0.035
11:51:07.641,-0.145,-0.045
11:51:07.648,-0.105,-0.035
11:51:07.656,-0.095,-0.025
11:51:07.664,-0.095,-0.035
11:51:07.672,-0.095,-0.065
11:51:07.680,-0.125,-0.035
11:51:07.688,-0.115,-0.025
11:51:07.695,-0.125,-0.035
11:51:07.703,-0.155,-0.055
11:51:07.711,-0.125,-0.035
11:51:07.719,-0.125,-0.035
11:51:07.727,-0.115,-0.045
11:51:07.734,-0.105,-0.055
11:51:07.742,-0.115,-0.045
11:51:07.750,-0.115,-0.045
11:51:07.758,-0.085,-0.055
11:51:07.766,-0.145,-0.075
11:51:07.773,-0.055,-0.065
11:51:07.781,-0.095,-0.055
11:51:07.789,-0.165,-0.035
11:51:07.797,-0.105,-0.055
11:51:07.805,-0.125,-0.065
11:51:07.813,-0.115,-0.045
11:51:07.820,-0.135,-0.045
11:51:07.828,-0.155,-0.055
11:51:07.836,-0.105,-0.045
11:51:07.844,-0.115,-0.035
11:51:07.852,-0.105,-0.055
11:51:07.859,-0.075,-0.075
11:51:07.867,-0.095,-0.065
11:51:07.875,-0.125,-0.045
11:51:07.883,-0.105,-0.045
11:51:07.891,-0.125,-0.055
11:51:07.898,-0.095,-0.045
11:51:07.906,-0.095,-0.045
11:51:07.914,-0.075,-0.035
11:51:07.922,-0.035,-0.025
11:51:07.930,-0.025,0.015
11:51:07.938,-0.025,0.015
11:51:07.945,0.045,0.035
11:51:07.953,0.085,0.035
11:51:07.961,0.105,-0.035
11:51:07.969,0.035,-0.075
11:51:07.977,0.125,-0.105
11:51:07.984,-0.065,-0.115
11:51:07.992,-0.135,-0.035
11:51:08.000,-0.115,-0.055
11:51:08.008,-0.065,-0.105
11:51:08.016,-0.145,-0.105
11:51:08.023,-0.135,-0.065
11:51:08.031,-0.115,-0.055
11:51:08.039,-0.055,-0.015
11:51:08.047,-0.015,0.085
11:51:08.055,0.125,-0.055
11:51:08.063,0.735,-0.295
11:51:08.070,1.395,-0.485
11:51:08.078,0.505,-0.655
11:51:08.086,-0.625,-0.575
11:51:08.094,-0.625,-0.225
11:51:08.102,-0.345,-0.045
11:51:08.109,-0.085,-0.065
11:51:08.117,-0.075,-0.065
11:51:08.125,-0.095,-0.045
11:51:08.133,-0.105,-0.065
11:51:08.141,-0.135,-0.065
11:51:08.148,-0.015,-0.075
11:51:08.156,-0.075,-0.085
11:51:08.164,-0.055,-0.045
11:51:08.172,-0.125,-0.035
11:51:08.180,-0.105,-0.035
11:51:08.188,-0.105,-0.015
11:51:08.195,-0.095,-0.025
11:51:08.203,-0.085,-0.045
11:51:08.211,-0.025,-0.045
11:51:08.219,-0.055,-0.035
11:51:08.227,-0.045,-0.025
11:51:08.234,-0.045,-0.035
11:51:08.242,0.005,-0.035
11:51:08.250,0.005,-0.035
11:51:08.258,0.025,-0.025
11:51:08.266,0.015,-0.025
11:51:08.273,0.055,-0.025
11:51:08.281,0.075,-0.035
11:51:08.289,0.095,-0.045
11:51:08.297,0.125,-0.045
11:51:08.305,0.145,-0.055
11:51:08.313,0.175,-0.045
11:51:08.320,0.215,-0.065
11:51:08.328,0.235,-0.075
11:51:08.336,0.265,-0.075
11:51:08.344,0.335,-0.095
11:51:08.352,0.275,-0.105
11:51:08.359,0.355,-0.115
11:51:08.367,0.285,-0.085
11:51:08.375,0.315,-0.095
11:51:08.383,0.165,-0.055
11:51:08.391,0.105,-0.025
11:51:08.398,0.075,-0.025
11:51:08.406,0.015,-0.025
11:51:08.414,-0.065,-0.035
11:51:08.422,-0.065,-0.045
11:51:08.430,-0.095,-0.035
11:51:08.438,-0.135,-0.035
11:51:08.445,-0.125,-0.025
11:51:08.453,-0.155,-0.045
11:51:08.461,-0.155,-0.035
11:51:08.469,-0.155,-0.035
11:51:08.477,-0.155,-0.045
11:51:08.484,-0.155,-0.055
11:51:08.492,-0.165,-0.035
11:51:08.500,-0.145,-0.035
11:51:08.508,-0.145,-0.035
11:51:08.516,-0.165,-0.045
11:51:08.523,-0.145,-0.045
11:51:08.531,-0.145,-0.035
11:51:08.539,-0.075,-0.065
11:51:08.547,-0.135,-0.065
11:51:08.555,-0.075,-0.035
11:51:08.563,-0.145,-0.065
11:51:08.570,-0.165,-0.055
11:51:08.578,-0.095,-0.055
11:51:08.586,-0.175,-0.045
11:51:08.594,-0.175,-0.025
11:51:08.602,-0.155,-0.045
11:51:08.609,-0.145,-0.065
11:51:08.617,-0.135,-0.055
11:51:08.625,-0.125,-0.055
11:51:08.633,-0.135,-0.065
11:51:08.641,-0.165,-0.075
11:51:08.648,-0.145,-0.065
11:51:08.656,-0.145,-0.055
11:51:08.664,-0.145,-0.065
11:51:08.672,-0.155,-0.085
11:51:08.680,-0.145,-0.075
11:51:08.688,-0.145,-0.065
11:51:08.695,-0.165,-0.065
11:51:08.703,-0.175,-0.085
11:51:08.711,-0.145,-0.085
11:51:08.719,-0.155,-0.075
11:51:08.727,-0.165,-0.065
11:51:08.734,-0.165,-0.085
11:51:08.742,-0.145,-0.085
11:51:08.750,-0.155,-0.085
11:51:08.758,-0.165,-0.075
11:51:08.766,-0.125,-0.095
11:51:08.773,-0.175,-0.095
11:51:08.781,-0.215,-0.065
11:51:08.789,-0.085,-0.095
11:51:08.797,-0.145,-0.115
11:51:08.805,-0.205,-0.055
11:51:08.813,-0.085,-0.075
11:51:08.820,-0.225,-0.075
11:51:08.828,-0.195,-0.075
11:51:08.836,-0.165,-0.085
11:51:08.844,-0.165,-0.075
11:51:08.852,-0.145,-0.085
11:51:08.859,-0.145,-0.095
11:51:08.867,-0.135,-0.095
11:51:08.875,-0.125,-0.085
11:51:08.883,-0.105,-0.085
11:51:08.891,-0.115,-0.115
11:51:08.898,-0.165,-0.075
11:51:08.906,-0.145,-0.055
11:51:08.914,-0.155,-0.075
11:51:08.922,-0.115,-0.075
11:51:08.930,-0.085,-0.045
11:51:08.938,-0.045,-0.005
11:51:08.945,-0.055,-0.005
11:51:08.953,-0.035,-0.015
11:51:08.961,0.045,-0.005
11:51:08.969,0.045,-0.045
11:51:08.977,0.015,-0.095
11:51:08.984,0.025,-0.115
11:51:08.992,-0.065,-0.125
11:51:09.000,-0.065,-0.105
11:51:09.008,-0.145,-0.145
11:51:09.016,-0.225,-0.105
11:51:09.023,-0.175,-0.115
11:51:09.031,-0.145,-0.095
11:51:09.039,-0.125,-0.115
11:51:09.047,-0.105,-0.075
11:51:09.055,-0.075,0.065
11:51:09.063,0.235,-0.105
11:51:09.070,0.855,-0.315
11:51:09.078,1.365,-0.515
11:51:09.086,0.305,-0.655
11:51:09.094,-0.685,-0.505
11:51:09.102,-0.605,-0.195
11:51:09.109,-0.315,-0.095
11:51:09.117,-0.125,-0.095
11:51:09.125,-0.115,-0.085
11:51:09.133,-0.135,-0.105
11:51:09.141,-0.145,-0.105
11:51:09.148,-0.135,-0.085
11:51:09.156,-0.125,-0.085
11:51:09.164,-0.145,-0.085
11:51:09.172,0.005,-0.135
11:51:09.180,-0.025,-0.155
11:51:09.188,-0.165,-0.085
11:51:09.195,-0.185,-0.045
11:51:09.203,-0.155,-0.065
11:51:09.211,-0.115,-0.055
11:51:09.219,-0.065,-0.085
11:51:09.227,-0.065,-0.095
11:51:09.234,-0.095,-0.085
11:51:09.242,-0.065,-0.075
11:51:09.250,-0.045,-0.075
11:51:09.258,-0.015,-0.085
11:51:09.266,-0.025,-0.085
11:51:09.273,0.005,-0.075
11:51:09.281,0.025,-0.085
11:51:09.289,0.035,-0.095
11:51:09.297,0.065,-0.105
11:51:09.305,0.095,-0.085
11:51:09.313,0.175,-0.115
11:51:09.320,0.175,-0.145
11:51:09.328,0.175,-0.135
11:51:09.336,0.275,-0.135
11:51:09.344,0.165,-0.135
11:51:09.352,0.205,-0.105
11:51:09.359,0.265,-0.145
11:51:09.367,0.235,-0.125
11:51:09.375,0.285,-0.115
11:51:09.383,0.265,-0.125
11:51:09.391,0.185,-0.135
11:51:09.398,0.065,-0.085
11:51:09.406,0.015,-0.055
11:51:09.414,-0.025,-0.065
11:51:09.422,-0.065,-0.065
11:51:09.430,-0.095,-0.065
11:51:09.438,-0.125,-0.055
11:51:09.445,-0.135,-0.055
11:51:09.453,-0.165,-0.065
11:51:09.461,-0.155,-0.075
11:51:09.469,-0.155,-0.065
11:51:09.477,-0.155,-0.075
11:51:09.484,-0.165,-0.075
11:51:09.492,-0.155,-0.065
11:51:09.500,-0.175,-0.065
11:51:09.508,-0.165,-0.085
11:51:09.516,-0.015,-0.125
11:51:09.523,-0.185,-0.115
11:51:09.531,-0.215,-0.045
11:51:09.539,-0.205,-0.025
11:51:09.547,-0.155,-0.065
11:51:09.555,-0.145,-0.065
11:51:09.563,-0.145,-0.065
11:51:09.570,-0.125,-0.075
11:51:09.578,-0.145,-0.065
11:51:09.586,-0.125,-0.075
11:51:09.594,-0.125,-0.065
11:51:09.602,-0.125,-0.065
11:51:09.609,-0.135,-0.075
11:51:09.617,-0.145,-0.075
11:51:09.625,-0.135,-0.065
11:51:09.633,-0.145,-0.095
11:51:09.641,-0.055,-0.115
11:51:09.648,-0.105,-0.145
11:51:09.656,-0.225,-0.075
11:51:09.664,-0.125,-0.065
11:51:09.672,-0.155,-0.115
11:51:09.680,-0.145,-0.075
11:51:09.688,-0.165,-0.085
11:51:09.695,-0.185,-0.085
11:51:09.703,-0.175,-0.095
11:51:09.711,-0.135,-0.105
11:51:09.719,-0.145,-0.085
11:51:09.727,-0.145,-0.085
11:51:09.734,-0.125,-0.115
11:51:09.742,-0.155,-0.105
11:51:09.750,-0.155,-0.085
11:51:09.758,-0.125,-0.105
11:51:09.766,-0.165,-0.115
11:51:09.773,-0.155,-0.095
11:51:09.781,-0.145,-0.085
11:51:09.789,-0.125,-0.095
11:51:09.797,-0.145,-0.095
11:51:09.805,-0.135,-0.095
11:51:09.813,-0.135,-0.095
11:51:09.820,-0.135,-0.095
11:51:09.828,-0.135,-0.105
11:51:09.836,-0.155,-0.105
11:51:09.844,-0.115,-0.095
11:51:09.852,-0.115,-0.095
11:51:09.859,-0.145,-0.095
11:51:09.867,-0.115,-0.095
11:51:09.875,-0.045,-0.115
11:51:09.883,-0.075,-0.145
11:51:09.891,-0.105,-0.085
11:51:09.898,-0.055,-0.025
11:51:09.906,-0.065,-0.025
11:51:09.914,-0.045,0.005
11:51:09.922,0.035,-0.005
11:51:09.930,0.025,-0.075
11:51:09.938,0.005,-0.125
11:51:09.945,-0.005,-0.115
11:51:09.953,-0.065,-0.125
11:51:09.961,-0.135,-0.115
11:51:09.969,-0.145,-0.105
11:51:09.977,-0.125,-0.125
11:51:09.984,-0.115,-0.125
11:51:09.992,-0.115,-0.115
11:51:10.000,-0.075,-0.095
11:51:10.008,-0.045,0.025
11:51:10.016,0.025,-0.035
11:51:10.023,0.705,-0.285
11:51:10.031,1.435,-0.425
11:51:10.039,0.815,-0.635
11:51:10.047,-0.435,-0.635
11:51:10.055,-0.695,-0.315
11:51:10.063,-0.375,-0.095
11:51:10.070,-0.135,-0.145
11:51:10.078,-0.105,-0.115
11:51:10.086,-0.075,-0.115
11:51:10.094,-0.155,-0.085
11:51:10.102,-0.095,-0.095
11:51:10.109,-0.075,-0.125
11:51:10.117,-0.145,-0.105
11:51:10.125,-0.115,-0.065
11:51:10.133,-0.125,-0.075
11:51:10.141,-0.135,-0.075
11:51:10.148,-0.085,-0.085
11:51:10.156,-0.065,-0.085
11:51:10.164,-0.065,-0.075
11:51:10.172,-0.065,-0.085
11:51:10.180,-0.065,-0.075
11:51:10.188,0.035,-0.075
11:51:10.195,-0.035,-0.095
11:51:10.203,-0.055,-0.075
11:51:10.211,-0.015,-0.065
11:51:10.219,-0.005,-0.075
11:51:10.227,0.025,-0.085
11:51:10.234,0.045,-0.085
11:51:10.242,0.065,-0.085
11:51:10.250,0.085,-0.075
11:51:10.258,0.115,-0.095
11:51:10.266,0.125,-0.105
11:51:10.273,0.175,-0.105
11:51:10.281,0.265,-0.125
11:51:10.289,0.215,-0.165
11:51:10.297,0.215,-0.105
11:51:10.305,0.245,-0.085
11:51:10.313,0.255,-0.125
11:51:10.320,0.295,-0.135
11:51:10.328,0.275,-0.145
11:51:10.336,0.275,-0.115
11:51:10.344,0.205,-0.095
11:51:10.352,0.205,-0.085
11:51:10.359,0.115,-0.085
11:51:10.367,0.025,-0.055
11:51:10.375,-0.015,-0.045
11:51:10.383,-0.055,-0.045
11:51:10.391,-0.085,-0.065
11:51:10.398,-0.095,-0.055
11:51:10.406,-0.115,-0.045
11:51:10.414,-0.135,-0.055
11:51:10.422,-0.135,-0.065
11:51:10.430,-0.145,-0.055
11:51:10.438,-0.135,-0.055
11:51:10.445,-0.135,-0.055
11:51:10.453,-0.155,-0.075
11:51:10.461,-0.135,-0.045
11:51:10.469,-0.125,-0.055
11:51:10.477,-0.135,-0.055
11:51:10.484,-0.085,-0.065
11:51:10.492,-0.105,-0.095
11:51:10.500,-0.095,-0.075
11:51:10.508,-0.075,-0.085
11:51:10.516,-0.135,-0.075
11:51:10.523,-0.165,-0.045
11:51:10.531,-0.175,-0.015
11:51:10.539,-0.095,-0.045
11:51:10.547,-0.105,-0.075
11:51:10.555,-0.125,-0.055
11:51:10.563,-0.105,-0.065
11:51:10.570,-0.105,-0.065
11:51:10.578,-0.125,-0.075
11:51:10.586,-0.105,-0.065
11:51:10.594,-0.115,-0.065
11:51:10.602,-0.115,-0.065
11:51:10.609,-0.115,-0.085
11:51:10.617,-0.115,-0.065
11:51:10.625,-0.135,-0.075
11:51:10.633,-0.125,-0.075
11:51:10.641,-0.135,-0.085
11:51:10.648,-0.125,-0.075
11:51:10.656,-0.115,-0.065
11:51:10.664,-0.105,-0.075
11:51:10.672,-0.085,-0.095
11:51:10.680,-0.045,-0.135
11:51:10.688,-0.145,-0.095
11:51:10.695,-0.175,-0.055
11:51:10.703,-0.165,-0.055
11:51:10.711,-0.135,-0.065
11:51:10.719,-0.135,-0.065
11:51:10.727,-0.155,-0.075
11:51:10.734,-0.085,-0.085
11:51:10.742,-0.145,-0.095
11:51:10.750,-0.135,-0.045
11:51:10.758,-0.125,-0.075
11:51:10.766,-0.125,-0.085
11:51:10.773,-0.115,-0.075
11:51:10.781,-0.105,-0.065
11:51:10.789,-0.115,-0.085
11:51:10.797,-0.115,-0.085
11:51:10.805,-0.105,-0.065
11:51:10.813,-0.095,-0.075
11:51:10.820,-0.115,-0.075
11:51:10.828,-0.125,-0.095
11:51:10.836,-0.085,-0.085
11:51:10.844,-0.125,-0.065
11:51:10.852,0.035,-0.065
11:51:10.859,-0.075,-0.065
11:51:10.867,-0.035,0.015
11:51:10.875,-0.025,0.015
11:51:10.883,0.005,0.025
11:51:10.891,0.065,0.005
11:51:10.898,0.045,-0.065
11:51:10.906,0.035,-0.085
11:51:10.914,-0.015,-0.095
11:51:10.922,-0.055,-0.095
11:51:10.930,-0.095,-0.085
11:51:10.938,-0.105,-0.085
11:51:10.945,-0.095,-0.095
11:51:10.953,-0.115,-0.105
11:51:10.961,-0.095,-0.095
11:51:10.969,-0.065,-0.075
11:51:10.977,-0.035,0.035
11:51:10.984,-0.005,0.025
11:51:10.992,0.545,-0.205
11:51:11.000,1.195,-0.385
11:51:11.008,1.165,-0.605
11:51:11.016,-0.255,-0.705
11:51:11.023,-0.745,-0.385
11:51:11.031,-0.525,-0.075
11:51:11.039,-0.135,-0.045
11:51:11.047,-0.065,-0.095
11:51:11.055,-0.115,-0.045
11:51:11.063,-0.095,-0.045
11:51:11.070,-0.085,-0.065
11:51:11.078,-0.135,-0.085
11:51:11.086,-0.105,-0.045
11:51:11.094,-0.105,-0.035
11:51:11.102,-0.075,-0.045
11:51:11.109,-0.065,-0.055
11:51:11.117,-0.075,-0.035
11:51:11.125,-0.065,-0.025
11:51:11.133,-0.055,-0.025
11:51:11.141,-0.075,-0.045
11:51:11.148,-0.035,-0.035
11:51:11.156,-0.025,-0.015
11:51:11.164,-0.015,-0.025
11:51:11.172,-0.015,-0.055
11:51:11.180,0.085,-0.055
11:51:11.188,0.015,-0.055
11:51:11.195,0.035,-0.035
11:51:11.203,-0.005,-0.045
11:51:11.211,0.085,-0.045
11:51:11.219,0.155,-0.045
11:51:11.227,0.055,-0.055
11:51:11.234,0.125,-0.025
11:51:11.242,0.095,-0.015
11:51:11.250,0.155,-0.025
11:51:11.258,0.215,-0.035
11:51:11.266,0.225,-0.055
11:51:11.273,0.285,-0.065
11:51:11.281,0.305,-0.065
11:51:11.289,0.325,-0.085
11:51:11.297,0.335,-0.075
11:51:11.305,0.335,-0.085
11:51:11.313,0.315,-0.065
11:51:11.320,0.235,-0.045
11:51:11.328,0.125,-0.035
11:51:11.336,0.115,-0.045
11:51:11.344,0.015,-0.035
11:51:11.352,-0.045,-0.015
11:51:11.359,-0.095,-0.015
11:51:11.367,-0.115,-0.015
11:51:11.375,-0.105,-0.015
11:51:11.383,-0.125,-0.035
11:51:11.391,-0.175,-0.035
11:51:11.398,-0.155,-0.015
11:51:11.406,-0.145,-0.015
11:51:11.414,-0.135,-0.025
11:51:11.422,-0.135,-0.035
11:51:11.430,-0.135,-0.035
11:51:11.438,-0.135,-0.025
11:51:11.445,-0.125,-0.025
11:51:11.453,-0.145,-0.035
11:51:11.461,-0.125,-0.025
11:51:11.469,-0.085,-0.035
11:51:11.477,-0.035,-0.075
11:51:11.484,-0.145,-0.045
11:51:11.492,-0.145,0.005
11:51:11.500,-0.145,0.005
11:51:11.508,-0.115,-0.015
11:51:11.516,-0.125,-0.045
11:51:11.523,-0.115,-0.045
11:51:11.531,-0.105,-0.035
11:51:11.539,-0.135,-0.025
11:51:11.547,-0.125,-0.035
11:51:11.555,-0.135,-0.035
11:51:11.563,-0.125,-0.025
11:51:11.570,-0.125,-0.035
11:51:11.578,-0.145,-0.055
11:51:11.586,-0.125,-0.045
11:51:11.594,-0.125,-0.025
11:51:11.602,-0.135,-0.045
11:51:11.609,-0.125,-0.055
11:51:11.617,-0.035,-0.085
11:51:11.625,-0.125,-0.075
11:51:11.633,-0.155,-0.015
11:51:11.641,-0.165,-0.055
11:51:11.648,-0.185,-0.025
11:51:11.656,-0.155,-0.015
11:51:11.664,-0.145,-0.035
11:51:11.672,-0.145,-0.045
11:51:11.680,-0.135,-0.045
11:51:11.688,-0.125,-0.045
11:51:11.695,-0.135,-0.055
11:51:11.703,-0.175,-0.045
11:51:11.711,-0.135,-0.065
11:51:11.719,-0.065,-0.055
11:51:11.727,-0.175,-0.075
11:51:11.734,-0.165,-0.035
11:51:11.742,-0.145,-0.025
11:51:11.750,-0.145,-0.035
11:51:11.758,-0.135,-0.045
11:51:11.766,-0.155,-0.055
11:51:11.773,-0.125,-0.045
11:51:11.781,-0.115,-0.035
11:51:11.789,-0.115,-0.045
11:51:11.797,-0.125,-0.065
11:51:11.805,-0.125,-0.035
11:51:11.813,-0.115,-0.035
11:51:11.820,-0.115,-0.045
11:51:11.828,-0.145,-0.045
11:51:11.836,-0.135,-0.045
11:51:11.844,0.025,-0.055
11:51:11.852,-0.025,-0.015
11:51:11.859,-0.085,0.025
11:51:11.867,-0.055,0.075
11:51:11.875,0.015,0.065
11:51:11.883,0.055,0.025
11:51:11.891,0.005,-0.045
11:51:11.898,0.005,-0.065
11:51:11.906,-0.045,-0.065
11:51:11.914,-0.075,-0.065
11:51:11.922,-0.105,-0.075
11:51:11.930,-0.135,-0.075
11:51:11.938,-0.125,-0.085
11:51:11.945,-0.105,-0.085
11:51:11.953,-0.125,-0.115
11:51:11.961,-0.105,-0.055
11:51:11.969,-0.055,0.085
11:51:11.977,-0.015,0.005
11:51:11.984,0.545,-0.225
11:51:11.992,1.275,-0.415
11:51:12.000,0.825,-0.605
11:51:12.008,-0.475,-0.655
11:51:12.016,-0.745,-0.325
11:51:12.023,-0.445,-0.055
11:51:12.031,-0.145,-0.045
11:51:12.039,-0.095,-0.085
11:51:12.047,-0.125,-0.075
11:51:12.055,-0.095,-0.065
11:51:12.063,-0.075,-0.085
11:51:12.070,-0.155,-0.055
11:51:12.078,-0.185,-0.045
11:51:12.086,-0.145,-0.025
11:51:12.094,-0.115,-0.035
11:51:12.102,-0.115,-0.045
11:51:12.109,-0.075,-0.055
11:51:12.117,-0.115,-0.045
11:51:12.125,-0.105,-0.025
11:51:12.133,-0.075,-0.035
11:51:12.141,-0.095,-0.025
11:51:12.148,-0.075,-0.035
11:51:12.156,-0.055,-0.035
11:51:12.164,-0.045,-0.025
11:51:12.172,-0.025,-0.045
11:51:12.180,-0.005,-0.035
11:51:12.188,0.005,-0.035
11:51:12.195,0.015,-0.035
11:51:12.203,0.015,-0.055
11:51:12.211,0.045,-0.045
11:51:12.219,0.065,-0.045
11:51:12.227,0.095,-0.065
11:51:12.234,0.135,-0.065
11:51:12.242,0.165,-0.065
11:51:12.250,0.185,-0.065
11:51:12.258,0.215,-0.075
11:51:12.266,0.235,-0.095
11:51:12.273,0.275,-0.095
11:51:12.281,0.295,-0.075
11:51:12.289,0.295,-0.115
11:51:12.297,0.235,-0.105
11:51:12.305,0.275,-0.095
11:51:12.313,0.185,-0.055
11:51:12.320,0.095,-0.035
11:51:12.328,-0.015,-0.045
11:51:12.336,-0.045,-0.035
11:51:12.344,-0.085,-0.015
11:51:12.352,-0.125,-0.025
11:51:12.359,-0.135,-0.035
11:51:12.367,-0.135,-0.035
11:51:12.375,-0.175,-0.035
11:51:12.383,-0.065,-0.065
11:51:12.391,-0.175,-0.085
11:51:12.398,-0.235,-0.015
11:51:12.406,-0.185,-0.015
11:51:12.414,-0.195,-0.035
11:51:12.422,-0.115,-0.045
11:51:12.430,-0.165,-0.035
11:51:12.438,-0.185,-0.015
11:51:12.445,-0.165,-0.025
11:51:12.453,-0.175,-0.035
11:51:12.461,-0.145,-0.025
11:51:12.469,-0.135,-0.035
11:51:12.477,-0.135,-0.025
11:51:12.484,-0.125,-0.045
11:51:12.492,-0.125,-0.035
11:51:12.500,-0.135,-0.045
11:51:12.508,-0.125,-0.035
11:51:12.516,-0.135,-0.045
11:51:12.523,-0.115,-0.045
11:51:12.531,-0.135,-0.035
11:51:12.539,-0.125,-0.035
11:51:12.547,-0.115,-0.045
11:51:12.555,-0.095,-0.085
11:51:12.563,-0.165,-0.025
11:51:12.570,-0.165,-0.025
11:51:12.578,-0.165,-0.055
11:51:12.586,-0.125,-0.055
11:51:12.594,-0.145,-0.045
11:51:12.602,-0.165,-0.055
11:51:12.609,-0.155,-0.055
11:51:12.617,-0.135,-0.065
11:51:12.625,-0.155,-0.065
11:51:12.633,-0.145,-0.055
11:51:12.641,-0.105,-0.065
11:51:12.648,-0.135,-0.075
11:51:12.656,-0.185,-0.045
11:51:12.664,-0.175,-0.055
11:51:12.672,-0.145,-0.055
11:51:12.680,-0.145,-0.055
11:51:12.688,-0.145,-0.045
11:51:12.695,-0.135,-0.055
11:51:12.703,-0.155,-0.065
11:51:12.711,-0.135,-0.055
11:51:12.719,-0.135,-0.055
11:51:12.727,-0.145,-0.065
11:51:12.734,-0.125,-0.075
11:51:12.742,-0.125,-0.055
11:51:12.750,-0.135,-0.045
11:51:12.758,-0.125,-0.055
11:51:12.766,-0.145,-0.065
11:51:12.773,-0.145,-0.055
11:51:12.781,-0.135,-0.065
11:51:12.789,-0.085,-0.075
11:51:12.797,-0.125,-0.055
11:51:12.805,-0.125,-0.035
11:51:12.813,-0.085,-0.025
11:51:12.820,-0.055,-0.005
11:51:12.828,-0.075,-0.005
11:51:12.836,-0.005,0.015
11:51:12.844,0.045,0.025
11:51:12.852,0.065,-0.005
11:51:12.859,0.045,-0.065
11:51:12.867,0.005,-0.075
11:51:12.875,-0.035,-0.075
11:51:12.883,-0.085,-0.075
11:51:12.891,-0.125,-0.085
11:51:12.898,-0.115,-0.075
11:51:12.906,-0.125,-0.075
11:51:12.914,-0.115,-0.085
11:51:12.922,-0.105,-0.105
11:51:12.930,-0.065,-0.065
11:51:12.938,-0.035,0.065
11:51:12.945,0.045,0.005
11:51:12.953,0.655,-0.215
11:51:12.961,1.325,-0.355
11:51:12.969,1.025,-0.535
11:51:12.977,-0.175,-0.585
11:51:12.984,-0.675,-0.305
11:51:12.992,-0.495,-0.095
11:51:13.000,-0.215,-0.035
11:51:13.008,-0.085,-0.075
11:51:13.016,-0.115,-0.075
11:51:13.023,-0.105,-0.065
11:51:13.031,-0.095,-0.055
11:51:13.039,-0.105,-0.055
11:51:13.047,-0.095,-0.065
11:51:13.055,-0.095,-0.065
11:51:13.063,-0.105,-0.045
11:51:13.070,-0.085,-0.045
11:51:13.078,-0.095,-0.055
11:51:13.086,-0.065,-0.055
11:51:13.094,-0.065,-0.045
11:51:13.102,-0.085,-0.045
11:51:13.109,-0.055,-0.055
11:51:13.117,-0.045,-0.035
11:51:13.125,-0.025,-0.035
11:51:13.133,-0.025,-0.035
11:51:13.141,-0.035,-0.045
11:51:13.148,0.005,-0.045
11:51:13.156,0.045,-0.045
11:51:13.164,0.015,-0.055
11:51:13.172,0.085,-0.065
11:51:13.180,0.085,-0.075
11:51:13.188,0.095,-0.055
11:51:13.195,0.125,-0.055
11:51:13.203,0.135,-0.075
11:51:13.211,0.175,-0.075
11:51:13.219,0.215,-0.065
11:51:13.227,0.235,-0.095
11:51:13.234,0.265,-0.115
11:51:13.242,0.275,-0.115
11:51:13.250,0.295,-0.095
11:51:13.258,0.295,-0.105
11:51:13.266,0.265,-0.095
11:51:13.273,0.225,-0.075
11:51:13.281,0.155,-0.045
11:51:13.289,0.085,-0.035
11:51:13.297,0.015,-0.035
11:51:13.305,-0.015,-0.035
11:51:13.313,-0.055,-0.025
11:51:13.320,-0.085,-0.015
11:51:13.328,-0.135,-0.025
11:51:13.336,-0.115,-0.035
11:51:13.344,-0.105,-0.025
11:51:13.352,-0.135,-0.025
11:51:13.359,-0.135,-0.035
11:51:13.367,-0.125,-0.025
11:51:13.375,-0.145,-0.015
11:51:13.383,-0.125,-0.035
11:51:13.391,-0.145,-0.035
11:51:13.398,-0.135,-0.025
11:51:13.406,-0.135,-0.025
11:51:13.414,-0.105,-0.035
11:51:13.422,-0.115,-0.035
11:51:13.430,-0.105,-0.025
11:51:13.438,-0.105,-0.025
11:51:13.445,-0.095,-0.035
11:51:13.453,-0.115,-0.045
11:51:13.461,-0.085,-0.035
11:51:13.469,-0.075,-0.025
11:51:13.477,-0.085,-0.035
11:51:13.484,-0.085,-0.045
11:51:13.492,-0.085,-0.025
11:51:13.500,-0.105,-0.025
11:51:13.508,-0.095,-0.035
11:51:13.516,-0.115,-0.045
11:51:13.523,-0.105,-0.035
11:51:13.531,-0.105,-0.035
11:51:13.539,-0.105,-0.035
11:51:13.547,-0.105,-0.045
11:51:13.555,-0.105,-0.035
11:51:13.563,-0.095,-0.035
11:51:13.570,-0.115,-0.025
11:51:13.578,-0.115,-0.055
11:51:13.586,-0.095,-0.055
11:51:13.594,-0.105,-0.025
11:51:13.602,-0.085,-0.045
11:51:13.609,-0.105,-0.045
11:51:13.617,-0.095,-0.045
11:51:13.625,-0.095,-0.035
11:51:13.633,-0.105,-0.035
11:51:13.641,-0.125,-0.055
11:51:13.648,-0.115,-0.045
11:51:13.656,-0.095,-0.035
11:51:13.664,-0.105,-0.025
11:51:13.672,-0.105,-0.045
11:51:13.680,-0.085,-0.045
11:51:13.688,-0.095,-0.045
11:51:13.695,-0.095,-0.035
11:51:13.703,-0.095,-0.035
11:51:13.711,-0.105,-0.045
11:51:13.719,-0.085,-0.035
11:51:13.727,-0.095,-0.025
11:51:13.734,-0.075,-0.045
11:51:13.742,-0.085,-0.045
11:51:13.750,-0.075,-0.035
11:51:13.758,-0.085,-0.035
11:51:13.766,-0.075,-0.045
11:51:13.773,-0.075,-0.035
11:51:13.781,-0.055,-0.025
11:51:13.789,-0.025,-0.015
11:51:13.797,-0.005,0.005
11:51:13.805,0.015,0.025
11:51:13.813,0.065,0.065
11:51:13.820,0.135,0.015
11:51:13.828,0.035,-0.055
11:51:13.836,0.045,-0.045
11:51:13.844,0.015,-0.055
11:51:13.852,-0.035,-0.045
11:51:13.859,-0.065,-0.065
11:51:13.867,-0.085,-0.055
11:51:13.875,-0.085,-0.065
11:51:13.883,-0.065,-0.065
11:51:13.891,-0.095,-0.075
11:51:13.898,-0.045,-0.045
11:51:13.906,-0.015,0.095
11:51:13.914,0.095,0.015
11:51:13.922,0.645,-0.225
11:51:13.930,1.375,-0.385
11:51:13.938,0.805,-0.605
11:51:13.945,-0.485,-0.635
11:51:13.953,-0.665,-0.275
11:51:13.961,-0.375,-0.025
11:51:13.969,-0.085,-0.045
11:51:13.977,-0.055,-0.045
11:51:13.984,-0.075,-0.065
11:51:13.992,-0.075,-0.035
11:51:14.000,-0.065,-0.035
11:51:14.008,-0.055,-0.045
11:51:14.016,-0.075,-0.035
11:51:14.023,-0.045,-0.025
11:51:14.031,-0.035,-0.035
11:51:14.039,-0.065,-0.025
11:51:14.047,-0.025,-0.035
11:51:14.055,0.015,-0.045
11:51:14.063,-0.065,-0.025
11:51:14.070,-0.055,-0.005
11:51:14.078,-0.025,-0.015
11:51:14.086,-0.015,-0.005
11:51:14.094,-0.005,-0.015
11:51:14.102,0.015,-0.025
11:51:14.109,0.045,-0.025
11:51:14.117,0.055,-0.025
11:51:14.125,0.075,-0.025
11:51:14.133,0.095,-0.025
11:51:14.141,0.085,-0.035
11:51:14.148,0.125,-0.025
11:51:14.156,0.145,-0.025
11:51:14.164,0.175,-0.025
11:51:14.172,0.215,-0.045
11:51:14.180,0.245,-0.045
11:51:14.188,0.275,-0.045
11:51:14.195,0.315,-0.055
11:51:14.203,0.355,-0.085
11:51:14.211,0.355,-0.095
11:51:14.219,0.345,-0.065
11:51:14.227,0.365,-0.085
11:51:14.234,0.295,-0.075
11:51:14.242,0.265,-0.045
11:51:14.250,0.215,-0.025
11:51:14.258,0.145,-0.025
11:51:14.266,0.025,-0.015
11:51:14.273,0.025,-0.025
11:51:14.281,-0.045,-0.035
11:51:14.289,-0.075,-0.025
11:51:14.297,-0.085,-0.035
11:51:14.305,-0.115,-0.025
11:51:14.313,-0.105,-0.025
11:51:14.320,-0.115,-0.045
11:51:14.328,-0.115,-0.045
11:51:14.336,-0.105,-0.025
11:51:14.344,-0.115,-0.025
11:51:14.352,-0.115,-0.035
11:51:14.359,-0.105,-0.045
11:51:14.367,-0.125,-0.045
11:51:14.375,-0.125,-0.025
11:51:14.383,-0.105,-0.035
11:51:14.391,-0.115,-0.035
11:51:14.398,-0.095,-0.035
11:51:14.406,-0.095,-0.025
11:51:14.414,-0.105,-0.035
11:51:14.422,-0.085,-0.025
11:51:14.430,-0.075,-0.035
11:51:14.438,-0.005,-0.035
11:51:14.445,-0.035,-0.065
11:51:14.453,-0.155,-0.055
11:51:14.461,-0.095,-0.065
11:51:14.469,-0.065,-0.045
11:51:14.477,-0.115,-0.035
11:51:14.484,-0.145,-0.025
11:51:14.492,-0.105,-0.035
11:51:14.500,-0.095,-0.035
11:51:14.508,-0.095,-0.055
11:51:14.516,-0.125,-0.055
11:51:14.523,-0.105,-0.055
11:51:14.531,-0.095,-0.055
11:51:14.539,-0.105,-0.045
11:51:14.547,-0.105,-0.065
11:51:14.555,-0.105,-0.055
11:51:14.563,-0.105,-0.055
11:51:14.570,-0.105,-0.055
11:51:14.578,-0.115,-0.055
11:51:14.586,-0.105,-0.055
11:51:14.594,-0.095,-0.055
11:51:14.602,-0.095,-0.045
11:51:14.609,-0.105,-0.065
11:51:14.617,-0.105,-0.045
11:51:14.625,-0.105,-0.045
11:51:14.633,-0.085,-0.065
11:51:14.641,-0.105,-0.065
11:51:14.648,-0.085,-0.055
11:51:14.656,-0.095,-0.035
11:51:14.664,-0.105,-0.005
11:51:14.672,-0.095,-0.055
11:51:14.680,-0.085,-0.045
11:51:14.688,-0.085,-0.045
11:51:14.695,-0.085,-0.035
11:51:14.703,-0.095,-0.095
11:51:14.711,-0.085,-0.075
11:51:14.719,-0.085,-0.045
11:51:14.727,-0.105,-0.045
11:51:14.734,-0.095,0.055
11:51:14.742,-0.055,-0.085
11:51:14.750,-0.095,-0.055
11:51:14.758,-0.125,0.195
11:51:14.766,-0.095,-0.065
11:51:14.773,-0.055,-0.105
11:51:14.781,-0.055,0.005
11:51:14.789,-0.005,-0.015
11:51:14.797,-0.025,0.165
11:51:14.805,-0.035,0.245
11:51:14.813,0.085,0.005
11:51:14.820,0.105,-0.005
11:51:14.828,0.055,0.125
11:51:14.836,0.105,-0.195
11:51:14.844,-0.005,-0.065
11:51:14.852,-0.015,0.035
11:51:14.859,-0.025,-0.125
11:51:14.867,-0.065,-0.155
11:51:14.875,-0.085,-0.055
11:51:14.883,-0.085,-0.025
11:51:14.891,-0.085,-0.095
11:51:14.898,-0.065,-0.075
11:51:14.906,-0.015,-0.005
11:51:14.914,0.015,0.025
11:51:14.922,0.275,-0.125
11:51:14.930,0.895,-0.265
11:51:14.938,1.385,-0.495
11:51:14.945,0.295,-0.645
11:51:14.953,-0.685,-0.515
11:51:14.961,-0.595,-0.135
11:51:14.969,-0.255,-0.005
11:51:14.977,-0.025,-0.125
11:51:14.984,-0.045,-0.125
11:51:14.992,-0.005,-0.095
11:51:15.000,-0.025,-0.005
11:51:15.008,-0.075,-0.025
11:51:15.016,-0.095,-0.085
11:51:15.023,-0.065,-0.055
11:51:15.031,-0.025,-0.005
11:51:15.039,-0.085,0.055
11:51:15.047,-0.065,0.015
11:51:15.055,0.065,-0.105
11:51:15.063,0.025,-0.175
11:51:15.070,-0.055,-0.085
11:51:15.078,-0.045,-0.035
11:51:15.086,-0.015,-0.035
11:51:15.094,-0.005,0.005
11:51:15.102,0.005,-0.025
11:51:15.109,0.035,-0.045
11:51:15.117,0.035,-0.035
11:51:15.125,0.045,-0.035
11:51:15.133,0.055,-0.055
11:51:15.141,0.065,-0.055
11:51:15.148,0.095,-0.045
11:51:15.156,0.135,-0.045
11:51:15.164,0.145,-0.055
11:51:15.172,0.165,-0.065
11:51:15.180,0.205,-0.075
11:51:15.188,0.245,-0.075
11:51:15.195,0.255,-0.065
11:51:15.203,0.275,-0.095
11:51:15.211,0.305,-0.095
11:51:15.219,0.325,-0.095
11:51:15.227,0.325,-0.105
11:51:15.234,0.315,-0.115
11:51:15.242,0.285,-0.105
11:51:15.250,0.225,-0.075
11:51:15.258,0.145,-0.065
11:51:15.266,0.065,-0.065
11:51:15.273,0.015,-0.035
11:51:15.281,-0.035,-0.045
11:51:15.289,-0.075,-0.045
11:51:15.297,-0.095,-0.065
11:51:15.305,-0.105,-0.065
11:51:15.313,-0.145,-0.055
11:51:15.320,-0.145,-0.045
11:51:15.328,-0.175,-0.065
11:51:15.336,-0.135,-0.075
11:51:15.344,-0.155,-0.065
11:51:15.352,-0.175,-0.055
11:51:15.359,-0.155,-0.065
11:51:15.367,-0.165,-0.055
11:51:15.375,-0.145,-0.065
11:51:15.383,-0.155,-0.075
11:51:15.391,-0.145,-0.075
11:51:15.398,-0.145,-0.055
11:51:15.406,-0.095,-0.075
11:51:15.414,-0.105,-0.075
11:51:15.422,-0.105,-0.095
11:51:15.430,-0.175,-0.045
11:51:15.438,-0.155,-0.035
11:51:15.445,-0.125,-0.035
11:51:15.453,-0.145,-0.075
11:51:15.461,-0.135,-0.075
11:51:15.469,-0.125,-0.055
11:51:15.477,-0.125,-0.065
11:51:15.484,-0.115,-0.085
11:51:15.492,-0.135,-0.075
11:51:15.500,-0.105,-0.085
11:51:15.508,-0.135,-0.085
11:51:15.516,-0.125,-0.105
11:51:15.523,-0.165,-0.075
11:51:15.531,-0.115,-0.055
11:51:15.539,-0.135,-0.095
11:51:15.547,-0.165,-0.085
11:51:15.555,-0.185,-0.055
11:51:15.563,-0.145,-0.075
11:51:15.570,-0.135,-0.085
11:51:15.578,-0.145,-0.105
11:51:15.586,-0.125,-0.085
11:51:15.594,-0.125,-0.075
11:51:15.602,-0.125,-0.075
11:51:15.609,-0.125,-0.105
11:51:15.617,-0.135,-0.065
11:51:15.625,-0.115,-0.075
11:51:15.633,-0.095,-0.105
11:51:15.641,-0.125,-0.095
11:51:15.648,-0.105,-0.075
11:51:15.656,-0.135,-0.075
11:51:15.664,-0.175,-0.085
11:51:15.672,-0.125,-0.075
11:51:15.680,-0.125,-0.085
11:51:15.688,-0.135,-0.065
11:51:15.695,-0.095,-0.085
11:51:15.703,-0.095,-0.105
11:51:15.711,-0.165,-0.075
11:51:15.719,-0.155,-0.055
11:51:15.727,-0.115,-0.075
11:51:15.734,-0.115,-0.075
11:51:15.742,-0.095,-0.075
11:51:15.750,-0.105,-0.075
11:51:15.758,-0.065,-0.055
11:51:15.766,-0.055,-0.035
11:51:15.773,-0.035,-0.015
11:51:15.781,-0.015,-0.005
11:51:15.789,0.035,0.015
11:51:15.797,0.075,-0.015
11:51:15.805,0.065,-0.045
11:51:15.813,0.045,-0.105
11:51:15.820,-0.015,-0.105
11:51:15.828,-0.015,-0.115
11:51:15.836,-0.005,-0.135
11:51:15.844,-0.135,-0.125
11:51:15.852,-0.125,-0.095
11:51:15.859,-0.125,-0.115
11:51:15.867,-0.115,-0.075
11:51:15.875,-0.085,-0.095
11:51:15.883,-0.035,-0.005
11:51:15.891,-0.035,0.025
11:51:15.898,0.425,-0.185
11:51:15.906,1.095,-0.325
11:51:15.914,1.235,-0.525
11:51:15.922,0.085,-0.665
11:51:15.930,-0.635,-0.425
11:51:15.938,-0.515,-0.165
11:51:15.945,-0.255,-0.085
11:51:15.953,-0.105,-0.105
11:51:15.961,-0.065,-0.095
11:51:15.969,-0.085,-0.075
11:51:15.977,-0.085,-0.065
11:51:15.984,-0.075,-0.085
11:51:15.992,-0.065,-0.085
11:51:16.000,-0.075,-0.075
11:51:16.008,-0.055,-0.075
11:51:16.016,-0.025,-0.095
11:51:16.023,-0.085,-0.085
11:51:16.031,-0.035,-0.075
11:51:16.039,-0.045,-0.075
11:51:16.047,-0.075,-0.085
11:51:16.055,-0.075,-0.015
11:51:16.063,-0.015,-0.035
11:51:16.070,-0.045,-0.045
11:51:16.078,-0.025,-0.055
11:51:16.086,0.015,-0.045
11:51:16.094,0.025,-0.055
11:51:16.102,0.045,-0.065
11:51:16.109,0.065,-0.065
11:51:16.117,0.075,-0.045
11:51:16.125,0.095,-0.065
11:51:16.133,0.125,-0.055
11:51:16.141,0.125,-0.075
11:51:16.148,0.165,-0.075
11:51:16.156,0.195,-0.065
11:51:16.164,0.225,-0.065
11:51:16.172,0.255,-0.105
11:51:16.180,0.285,-0.095
11:51:16.188,0.315,-0.115
11:51:16.195,0.315,-0.095
11:51:16.203,0.395,-0.155
11:51:16.211,0.315,-0.135
11:51:16.219,0.235,-0.055
11:51:16.227,0.215,-0.075
11:51:16.234,0.165,-0.045
11:51:16.242,0.115,-0.035
11:51:16.250,0.025,-0.025
11:51:16.258,-0.015,-0.025
11:51:16.266,-0.075,-0.035
11:51:16.273,-0.075,-0.045
11:51:16.281,-0.085,-0.025
11:51:16.289,-0.105,-0.025
11:51:16.297,-0.105,-0.035
11:51:16.305,-0.095,-0.035
11:51:16.313,-0.115,-0.015
11:51:16.320,-0.125,-0.035
11:51:16.328,-0.125,-0.035
11:51:16.336,-0.115,-0.035
11:51:16.344,-0.115,-0.025
11:51:16.352,-0.105,-0.035
11:51:16.359,-0.115,-0.045
11:51:16.367,-0.095,-0.025
11:51:16.375,-0.095,-0.025
11:51:16.383,-0.105,-0.035
11:51:16.391,-0.065,-0.045
11:51:16.398,-0.075,-0.055
11:51:16.406,0.035,-0.055
11:51:16.414,-0.125,-0.085
11:51:16.422,-0.105,-0.025
11:51:16.430,-0.115,-0.015
11:51:16.438,-0.105,-0.035
11:51:16.445,-0.075,-0.045
11:51:16.453,-0.105,-0.055
11:51:16.461,-0.095,-0.055
11:51:16.469,-0.055,-0.055
11:51:16.477,-0.085,-0.045
11:51:16.484,-0.125,-0.045
11:51:16.492,-0.115,-0.045
11:51:16.500,-0.115,-0.025
11:51:16.508,-0.105,-0.055
11:51:16.516,-0.105,-0.055
11:51:16.523,-0.095,-0.045
11:51:16.531,-0.105,-0.035
11:51:16.539,-0.105,-0.055
11:51:16.547,-0.095,-0.065
11:51:16.555,-0.105,-0.055
11:51:16.563,-0.105,-0.055
11:51:16.570,-0.085,-0.065
11:51:16.578,-0.105,-0.065
11:51:16.586,-0.095,-0.055
11:51:16.594,-0.095,-0.055
11:51:16.602,-0.095,-0.065
11:51:16.609,-0.035,-0.085
11:51:16.617,-0.045,-0.115
11:51:16.625,-0.125,-0.075
11:51:16.633,-0.125,-0.035
11:51:16.641,-0.165,-0.045
11:51:16.648,-0.095,-0.035
11:51:16.656,-0.105,-0.055
11:51:16.664,-0.115,-0.055
11:51:16.672,-0.085,-0.065
11:51:16.680,-0.085,-0.065
11:51:16.688,-0.095,-0.065
11:51:16.695,-0.085,-0.045
11:51:16.703,-0.085,-0.045
11:51:16.711,-0.075,-0.065
11:51:16.719,-0.045,-0.045
11:51:16.727,-0.015,-0.005
11:51:16.734,0.005,0.005
11:51:16.742,0.025,0.025
11:51:16.750,0.065,0.045
11:51:16.758,0.095,0.015
11:51:16.766,0.055,-0.045
11:51:16.773,0.055,-0.075
11:51:16.781,0.055,-0.085
11:51:16.789,0.035,-0.115
11:51:16.797,-0.105,-0.105
11:51:16.805,-0.135,-0.035
11:51:16.813,-0.045,-0.075
11:51:16.820,-0.085,-0.115
11:51:16.828,-0.115,-0.085
11:51:16.836,-0.015,-0.065
11:51:16.844,-0.045,0.055
11:51:16.852,0.005,0.035
11:51:16.859,0.595,-0.195
11:51:16.867,1.265,-0.325
11:51:16.875,1.145,-0.525
11:51:16.883,-0.235,-0.665
11:51:16.891,-0.705,-0.355
11:51:16.898,-0.455,-0.095
11:51:16.906,-0.145,-0.055
11:51:16.914,-0.055,-0.055
11:51:16.922,-0.065,-0.065
11:51:16.930,-0.075,-0.055
11:51:16.938,-0.085,-0.045
11:51:16.945,-0.055,-0.065
11:51:16.953,-0.075,-0.045
11:51:16.961,-0.055,-0.045
11:51:16.969,-0.065,-0.045
11:51:16.977,-0.025,-0.055
11:51:16.984,-0.075,-0.055
11:51:16.992,0.005,-0.045
11:51:17.000,-0.035,-0.035
11:51:17.008,-0.045,-0.015
11:51:17.016,-0.045,-0.025
11:51:17.023,-0.015,-0.025
11:51:17.031,0.005,-0.035
11:51:17.039,-0.005,-0.035
11:51:17.047,0.025,-0.045
11:51:17.055,0.045,-0.035
11:51:17.063,0.055,-0.025
11:51:17.070,0.115,-0.055
11:51:17.078,0.075,-0.075
11:51:17.086,0.085,-0.025
11:51:17.094,0.105,-0.015
11:51:17.102,0.165,-0.035
11:51:17.109,0.175,-0.065
11:51:17.117,0.215,-0.055
11:51:17.125,0.235,-0.045
11:51:17.133,0.275,-0.065
11:51:17.141,0.285,-0.105
11:51:17.148,0.345,-0.105
11:51:17.156,0.325,-0.075
11:51:17.164,0.325,-0.075
11:51:17.172,0.295,-0.085
11:51:17.180,0.295,-0.065
11:51:17.188,0.245,-0.045
11:51:17.195,0.155,-0.045
11:51:17.203,0.075,-0.025
11:51:17.211,0.035,-0.015
11:51:17.219,-0.025,-0.015
11:51:17.227,-0.065,-0.015
11:51:17.234,-0.085,-0.005
11:51:17.242,-0.065,-0.025
11:51:17.250,-0.085,-0.025
11:51:17.258,-0.105,-0.025
11:51:17.266,-0.105,-0.045
11:51:17.273,-0.155,-0.025
11:51:17.281,-0.145,-0.005
11:51:17.289,-0.135,-0.015
11:51:17.297,-0.125,-0.015
11:51:17.305,-0.115,-0.025
11:51:17.313,-0.115,-0.025
11:51:17.320,-0.105,-0.015
11:51:17.328,-0.105,-0.045
11:51:17.336,-0.065,-0.035
11:51:17.344,-0.095,-0.025
11:51:17.352,-0.115,-0.015
11:51:17.359,-0.095,-0.025
11:51:17.367,-0.095,-0.015
11:51:17.375,-0.095,-0.035
11:51:17.383,-0.065,-0.035
11:51:17.391,-0.105,-0.045
11:51:17.398,-0.095,-0.035
11:51:17.406,-0.045,-0.025
11:51:17.414,-0.095,-0.065
11:51:17.422,-0.105,-0.045
11:51:17.430,-0.085,-0.045
11:51:17.438,-0.115,-0.045
11:51:17.445,-0.115,-0.025
11:51:17.453,-0.145,-0.045
11:51:17.461,-0.125,-0.045
11:51:17.469,-0.105,-0.035
11:51:17.477,-0.125,-0.045
11:51:17.484,-0.095,-0.065
11:51:17.492,-0.115,-0.065
11:51:17.500,-0.115,-0.035
11:51:17.508,-0.105,-0.055
11:51:17.516,-0.135,-0.055
11:51:17.523,-0.105,-0.055
11:51:17.531,-0.105,-0.045
11:51:17.539,-0.095,-0.045
11:51:17.547,-0.075,-0.065
11:51:17.555,-0.115,-0.055
11:51:17.563,-0.135,-0.035
11:51:17.570,-0.035,-0.065
11:51:17.578,-0.115,-0.085
11:51:17.586,-0.155,-0.035
11:51:17.594,-0.135,-0.035
11:51:17.602,-0.115,-0.045
11:51:17.609,-0.115,-0.055
11:51:17.617,-0.115,-0.035
11:51:17.625,-0.115,-0.045
11:51:17.633,-0.105,-0.045
11:51:17.641,-0.105,-0.065
11:51:17.648,-0.105,-0.065
11:51:17.656,-0.115,-0.045
11:51:17.664,-0.115,-0.055
11:51:17.672,-0.105,-0.055
11:51:17.680,-0.095,-0.055
11:51:17.688,-0.105,-0.045
11:51:17.695,-0.095,-0.045
11:51:17.703,-0.105,-0.075
11:51:17.711,-0.095,-0.055
11:51:17.719,-0.075,-0.045
11:51:17.727,-0.055,-0.035
11:51:17.734,-0.015,-0.005
11:51:17.742,-0.025,0.015
11:51:17.750,0.045,0.025
11:51:17.758,0.155,0.005
11:51:17.766,0.045,-0.045
11:51:17.773,0.025,-0.055
11:51:17.781,0.005,-0.065
11:51:17.789,-0.045,-0.055
11:51:17.797,-0.055,-0.075
11:51:17.805,-0.095,-0.075
11:51:17.813,-0.075,-0.095
11:51:17.820,-0.085,-0.125
11:51:17.828,-0.145,-0.085
11:51:17.836,-0.035,-0.085
11:51:17.844,-0.065,-0.055
11:51:17.852,-0.045,0.085
11:51:17.859,0.105,-0.035
11:51:17.867,0.725,-0.245
11:51:17.875,1.375,-0.405
11:51:17.883,0.775,-0.605
11:51:17.891,-0.515,-0.665
11:51:17.898,-0.665,-0.335
11:51:17.906,-0.395,-0.065
11:51:17.914,-0.115,-0.055
11:51:17.922,-0.065,-0.075
11:51:17.930,-0.085,-0.055
11:51:17.938,-0.085,-0.065
11:51:17.945,-0.085,-0.065
11:51:17.953,-0.105,-0.065
11:51:17.961,-0.055,-0.075
11:51:17.969,-0.065,-0.075
11:51:17.977,-0.065,-0.055
11:51:17.984,-0.015,-0.065
11:51:17.992,-0.095,-0.065
11:51:18.000,-0.085,-0.045
11:51:18.008,-0.075,-0.025
11:51:18.016,-0.085,-0.045
11:51:18.023,-0.025,-0.045
11:51:18.031,-0.035,-0.045
11:51:18.039,-0.025,-0.045
11:51:18.047,0.005,-0.045
11:51:18.055,0.015,-0.045
11:51:18.063,0.035,-0.035
11:51:18.070,0.045,-0.035
11:51:18.078,0.035,-0.065
11:51:18.086,0.075,-0.055
11:51:18.094,0.105,-0.035
11:51:18.102,0.115,-0.055
11:51:18.109,0.145,-0.055
11:51:18.117,0.175,-0.075
11:51:18.125,0.215,-0.055
11:51:18.133,0.235,-0.075
11:51:18.141,0.245,-0.075
11:51:18.148,0.285,-0.085
11:51:18.156,0.325,-0.085
11:51:18.164,0.315,-0.105
11:51:18.172,0.385,-0.105
11:51:18.180,0.335,-0.135
11:51:18.188,0.205,-0.065
11:51:18.195,0.165,-0.055
11:51:18.203,0.085,-0.055
11:51:18.211,0.055,-0.035
11:51:18.219,0.005,-0.025
11:51:18.227,-0.045,-0.045
11:51:18.234,-0.065,-0.045
11:51:18.242,-0.085,-0.045
11:51:18.250,-0.115,-0.045
11:51:18.258,-0.125,-0.055
11:51:18.266,-0.155,-0.055
11:51:18.273,-0.135,-0.055
11:51:18.281,-0.145,-0.045
11:51:18.289,-0.135,-0.045
11:51:18.297,-0.125,-0.075
11:51:18.305,-0.125,-0.055
11:51:18.313,-0.135,-0.045
11:51:18.320,-0.105,-0.055
11:51:18.328,-0.075,-0.065
11:51:18.336,-0.145,-0.085
11:51:18.344,-0.095,-0.065
11:51:18.352,-0.155,-0.045
11:51:18.359,-0.105,-0.055
11:51:18.367,-0.125,-0.045
11:51:18.375,-0.125,-0.045
11:51:18.383,-0.105,-0.055
11:51:18.391,-0.105,-0.075
11:51:18.398,-0.075,-0.085
11:51:18.406,-0.095,-0.065
11:51:18.414,-0.125,-0.055
11:51:18.422,-0.115,-0.065
11:51:18.430,-0.105,-0.055
11:51:18.438,-0.105,-0.065
11:51:18.445,-0.115,-0.065
11:51:18.453,-0.135,-0.075
11:51:18.461,-0.125,-0.065
11:51:18.469,-0.115,-0.075
11:51:18.477,-0.115,-0.065
11:51:18.484,-0.115,-0.075
11:51:18.492,-0.115,-0.065
11:51:18.500,-0.115,-0.065
11:51:18.508,-0.145,-0.065
11:51:18.516,-0.065,-0.105
11:51:18.523,0.015,-0.165
11:51:18.531,-0.195,-0.105
11:51:18.539,-0.175,-0.015
11:51:18.547,-0.185,-0.065
11:51:18.555,-0.085,-0.065
11:51:18.563,-0.145,-0.075
11:51:18.570,-0.155,-0.065
11:51:18.578,-0.165,-0.085
11:51:18.586,-0.125,-0.075
11:51:18.594,-0.125,-0.065
11:51:18.602,-0.125,-0.065
11:51:18.609,-0.115,-0.075
11:51:18.617,-0.115,-0.065
11:51:18.625,-0.115,-0.065
11:51:18.633,-0.115,-0.065
11:51:18.641,-0.145,-0.085
11:51:18.648,-0.125,-0.075
11:51:18.656,-0.115,-0.075
11:51:18.664,-0.065,-0.075
11:51:18.672,-0.095,-0.125
11:51:18.680,-0.145,-0.055
11:51:18.688,-0.065,-0.075
11:51:18.695,-0.145,-0.075
11:51:18.703,-0.135,-0.065
11:51:18.711,-0.135,-0.085
11:51:18.719,-0.075,-0.075
11:51:18.727,-0.125,-0.075
11:51:18.734,-0.085,-0.075
11:51:18.742,-0.085,-0.085
11:51:18.750,-0.125,-0.085
11:51:18.758,-0.105,-0.065
11:51:18.766,-0.105,-0.065
11:51:18.773,-0.025,-0.035
11:51:18.781,-0.015,-0.005
11:51:18.789,0.005,-0.005
11:51:18.797,0.055,0.005
11:51:18.805,0.085,-0.005
11:51:18.813,0.065,-0.035
11:51:18.820,0.045,-0.105
11:51:18.828,-0.025,-0.105
11:51:18.836,-0.045,-0.085
11:51:18.844,-0.095,-0.075
11:51:18.852,-0.115,-0.105
11:51:18.859,-0.105,-0.115
11:51:18.867,-0.105,-0.105
11:51:18.875,-0.075,-0.105
11:51:18.883,-0.015,-0.105
11:51:18.891,-0.095,0.035
11:51:18.898,-0.005,-0.005
11:51:18.906,0.615,-0.265
11:51:18.914,1.245,-0.425
11:51:18.922,0.825,-0.605
11:51:18.930,-0.435,-0.675
11:51:18.938,-0.675,-0.345
11:51:18.945,-0.455,-0.085
11:51:18.953,-0.195,-0.065
11:51:18.961,-0.115,-0.085
11:51:18.969,-0.105,-0.065
11:51:18.977,-0.105,-0.075
11:51:18.984,-0.095,-0.085
11:51:18.992,-0.095,-0.075
11:51:19.000,-0.095,-0.055
11:51:19.008,-0.085,-0.075
11:51:19.016,-0.105,-0.075
11:51:19.023,-0.085,-0.065
11:51:19.031,-0.075,-0.055
11:51:19.039,-0.095,-0.055
11:51:19.047,-0.065,-0.065
11:51:19.055,-0.045,-0.045
11:51:19.063,-0.045,-0.045
11:51:19.070,-0.035,-0.055
11:51:19.078,-0.065,-0.065
11:51:19.086,0.045,-0.085
11:51:19.094,0.035,-0.085
11:51:19.102,-0.025,-0.045
11:51:19.109,0.015,-0.045
11:51:19.117,0.005,-0.055
11:51:19.125,0.015,-0.045
11:51:19.133,0.045,-0.055
11:51:19.141,0.055,-0.065
11:51:19.148,0.115,-0.075
11:51:19.156,0.145,-0.065
11:51:19.164,0.175,-0.085
11:51:19.172,0.205,-0.075
11:51:19.180,0.225,-0.105
11:51:19.188,0.255,-0.085
11:51:19.195,0.305,-0.105
11:51:19.203,0.275,-0.125
11:51:19.211,0.275,-0.095
11:51:19.219,0.265,-0.085
11:51:19.227,0.355,-0.105
11:51:19.234,0.225,-0.145
11:51:19.242,0.075,-0.055
11:51:19.250,-0.005,-0.035
11:51:19.258,-0.045,-0.035
11:51:19.266,-0.105,-0.035
11:51:19.273,-0.075,-0.045
11:51:19.281,-0.105,-0.065
11:51:19.289,-0.145,-0.065
11:51:19.297,-0.135,-0.045
11:51:19.305,-0.155,-0.055
11:51:19.313,-0.185,-0.045
11:51:19.320,-0.155,-0.045
11:51:19.328,-0.175,-0.045
11:51:19.336,-0.165,-0.065
11:51:19.344,-0.155,-0.055
11:51:19.352,-0.135,-0.055
11:51:19.359,-0.125,-0.055
11:51:19.367,-0.145,-0.065
11:51:19.375,-0.135,-0.045
11:51:19.383,-0.125,-0.055
11:51:19.391,-0.135,-0.065
11:51:19.398,-0.125,-0.065
11:51:19.406,-0.115,-0.045
11:51:19.414,-0.125,-0.055
11:51:19.422,-0.095,-0.065
11:51:19.430,-0.125,-0.055
11:51:19.438,-0.145,-0.055
11:51:19.445,-0.115,-0.045
11:51:19.453,-0.065,-0.075
11:51:19.461,-0.135,-0.095
11:51:19.469,-0.215,-0.045
11:51:19.477,-0.135,-0.035
11:51:19.484,-0.135,-0.105
11:51:19.492,-0.165,-0.055
11:51:19.500,-0.165,-0.045
11:51:19.508,-0.105,-0.065
11:51:19.516,-0.155,-0.095
11:51:19.523,-0.195,-0.065
11:51:19.531,-0.145,-0.045
11:51:19.539,-0.165,-0.065
11:51:19.547,-0.155,-0.065
11:51:19.555,-0.135,-0.045
11:51:19.563,-0.155,-0.065
11:51:19.570,-0.145,-0.065
11:51:19.578,-0.165,-0.085
11:51:19.586,-0.145,-0.065
11:51:19.594,-0.145,-0.065
11:51:19.602,-0.145,-0.075
11:51:19.609,-0.135,-0.085
11:51:19.617,-0.135,-0.065
11:51:19.625,-0.135,-0.065
11:51:19.633,-0.145,-0.075
11:51:19.641,-0.145,-0.095
11:51:19.648,-0.065,-0.115
11:51:19.656,-0.065,-0.105
11:51:19.664,-0.215,-0.075
11:51:19.672,-0.095,-0.045
11:51:19.680,-0.165,-0.105
11:51:19.688,-0.185,-0.025
11:51:19.695,-0.185,-0.055
11:51:19.703,-0.155,-0.075
11:51:19.711,-0.145,-0.065
11:51:19.719,-0.155,-0.065
11:51:19.727,-0.125,-0.075
11:51:19.734,-0.125,-0.085
11:51:19.742,-0.135,-0.075
11:51:19.750,-0.125,-0.075
11:51:19.758,-0.125,-0.075
11:51:19.766,-0.145,-0.075
11:51:19.773,-0.115,-0.065
11:51:19.781,-0.095,-0.045
11:51:19.789,-0.055,-0.005
11:51:19.797,-0.065,-0.015
11:51:19.805,-0.015,0.015
11:51:19.813,0.035,0.035
11:51:19.820,0.055,-0.015
11:51:19.828,0.025,-0.075
11:51:19.836,0.065,-0.095
11:51:19.844,-0.065,-0.105
11:51:19.852,-0.055,-0.095
11:51:19.859,-0.115,-0.095
11:51:19.867,-0.135,-0.105
11:51:19.875,-0.145,-0.105
11:51:19.883,-0.155,-0.075
11:51:19.891,-0.185,-0.075
11:51:19.898,-0.105,-0.045
11:51:19.906,-0.065,0.055
11:51:19.914,0.065,-0.025
11:51:19.922,0.735,-0.265
11:51:19.930,1.345,-0.385
11:51:19.938,0.795,-0.565
11:51:19.945,-0.405,-0.565
11:51:19.953,-0.715,-0.275
11:51:19.961,-0.455,-0.095
11:51:19.969,-0.185,-0.055
11:51:19.977,-0.105,-0.075
11:51:19.984,-0.125,-0.085
11:51:19.992,-0.135,-0.075
11:51:20.000,-0.135,-0.065
11:51:20.008,-0.115,-0.055
11:51:20.016,-0.135,-0.085
11:51:20.023,-0.095,-0.065
11:51:20.031,-0.105,-0.065
11:51:20.039,0.015,-0.105
11:51:20.047,-0.085,-0.115
11:51:20.055,-0.175,-0.015
11:51:20.063,-0.025,-0.055
11:51:20.070,-0.165,-0.075
11:51:20.078,-0.075,-0.035
11:51:20.086,-0.105,-0.045
11:51:20.094,-0.045,-0.015
11:51:20.102,-0.045,-0.075
11:51:20.109,-0.045,-0.075
11:51:20.117,-0.025,-0.045
11:51:20.125,-0.005,-0.055
11:51:20.133,0.025,-0.065
11:51:20.141,0.045,-0.065
11:51:20.148,0.055,-0.055
11:51:20.156,0.075,-0.055
11:51:20.164,0.105,-0.065
11:51:20.172,0.135,-0.085
11:51:20.180,0.165,-0.075
11:51:20.188,0.175,-0.085
11:51:20.195,0.205,-0.095
11:51:20.203,0.215,-0.105
11:51:20.211,0.265,-0.115
11:51:20.219,0.295,-0.095
11:51:20.227,0.365,-0.165
11:51:20.234,0.265,-0.135
11:51:20.242,0.215,-0.065
11:51:20.250,0.135,-0.025
11:51:20.258,0.085,-0.045
11:51:20.266,-0.015,-0.025
11:51:20.273,-0.035,-0.005
11:51:20.281,-0.065,-0.015
11:51:20.289,-0.095,-0.025
11:51:20.297,-0.105,-0.025
11:51:20.305,-0.125,-0.045
11:51:20.313,-0.135,-0.025
11:51:20.320,-0.145,-0.025
11:51:20.328,-0.175,-0.045
11:51:20.336,-0.155,-0.025
11:51:20.344,-0.145,-0.035
11:51:20.352,-0.135,-0.025
11:51:20.359,-0.145,-0.035
11:51:20.367,-0.135,-0.015
11:51:20.375,-0.135,-0.035
11:51:20.383,-0.135,-0.025
11:51:20.391,-0.135,-0.045
11:51:20.398,-0.065,-0.055
11:51:20.406,-0.075,-0.065
11:51:20.414,-0.145,-0.015
11:51:20.422,-0.125,-0.035
11:51:20.430,-0.165,-0.015
11:51:20.438,-0.155,-0.015
11:51:20.445,-0.115,-0.035
11:51:20.453,-0.145,-0.035
11:51:20.461,-0.125,-0.035
11:51:20.469,-0.125,-0.025
11:51:20.477,-0.125,-0.035
11:51:20.484,-0.125,-0.045
11:51:20.492,-0.125,-0.045
11:51:20.500,-0.135,-0.035
11:51:20.508,-0.125,-0.045
11:51:20.516,-0.085,-0.065
11:51:20.523,-0.155,-0.065
11:51:20.531,-0.135,-0.025
11:51:20.539,-0.145,-0.035
11:51:20.547,-0.155,-0.065
11:51:20.555,-0.105,-0.055
11:51:20.563,-0.135,-0.055
11:51:20.570,-0.125,-0.045
11:51:20.578,-0.185,-0.055
11:51:20.586,-0.135,-0.045
11:51:20.594,-0.115,-0.075
11:51:20.602,-0.155,-0.055
11:51:20.609,-0.095,-0.055
11:51:20.617,-0.115,-0.045
11:51:20.625,-0.135,-0.045
11:51:20.633,-0.155,-0.035
11:51:20.641,-0.155,-0.055
11:51:20.648,-0.145,-0.045
11:51:20.656,-0.135,-0.045
11:51:20.664,-0.115,-0.055
11:51:20.672,-0.115,-0.065
11:51:20.680,-0.115,-0.065
11:51:20.688,-0.135,-0.045
11:51:20.695,-0.115,-0.035
11:51:20.703,-0.125,-0.055
11:51:20.711,-0.105,-0.045
11:51:20.719,-0.105,-0.055
11:51:20.727,-0.105,-0.045
11:51:20.734,-0.095,-0.065
11:51:20.742,-0.105,-0.055
11:51:20.750,-0.105,-0.055
11:51:20.758,-0.055,-0.055
11:51:20.766,-0.115,-0.085
11:51:20.773,-0.025,-0.055
11:51:20.781,0.025,0.005
11:51:20.789,-0.085,0.015
11:51:20.797,-0.025,0.035
11:51:20.805,0.005,0.045
11:51:20.813,0.235,-0.025
11:51:20.820,-0.005,-0.065
11:51:20.828,-0.035,-0.035
11:51:20.836,-0.055,-0.045
11:51:20.844,-0.075,-0.055
11:51:20.852,-0.085,-0.065
11:51:20.859,-0.095,-0.075
11:51:20.867,-0.105,-0.075
11:51:20.875,-0.095,-0.075
11:51:20.883,-0.085,-0.075
11:51:20.891,-0.075,-0.045
11:51:20.898,-0.025,0.065
11:51:20.906,0.035,0.025
11:51:20.914,0.615,-0.215
11:51:20.922,1.335,-0.375
11:51:20.930,1.095,-0.575
11:51:20.938,-0.305,-0.625
11:51:20.945,-0.635,-0.335
11:51:20.953,-0.425,-0.115
11:51:20.961,-0.175,-0.075
11:51:20.969,-0.075,-0.025
11:51:20.977,-0.085,-0.035
11:51:20.984,-0.135,-0.035
11:51:20.992,-0.105,-0.045
11:51:21.000,-0.085,-0.045
11:51:21.008,-0.085,-0.035
11:51:21.016,-0.115,-0.045
11:51:21.023,-0.065,-0.045
11:51:21.031,-0.065,-0.025
11:51:21.039,-0.015,-0.055
11:51:21.047,-0.025,-0.045
11:51:21.055,-0.075,-0.025
11:51:21.063,-0.065,-0.005
11:51:21.070,-0.045,-0.015
11:51:21.078,-0.045,-0.025
11:51:21.086,-0.005,-0.025
11:51:21.094,0.005,-0.035
11:51:21.102,0.035,-0.025
11:51:21.109,0.045,-0.025
11:51:21.117,0.035,-0.035
11:51:21.125,0.085,-0.055
11:51:21.133,0.135,-0.065
11:51:21.141,0.095,-0.065
11:51:21.148,0.085,0.005
11:51:21.156,0.125,-0.015
11:51:21.164,0.175,-0.045
11:51:21.172,0.185,-0.045
11:51:21.180,0.235,-0.055
11:51:21.188,0.275,-0.045
11:51:21.195,0.295,-0.075
11:51:21.203,0.305,-0.075
11:51:21.211,0.325,-0.075
11:51:21.219,0.325,-0.075
11:51:21.227,0.305,-0.065
11:51:21.234,0.335,-0.065
11:51:21.242,0.225,-0.065
11:51:21.250,0.155,-0.005
11:51:21.258,0.075,-0.015
11:51:21.266,-0.005,-0.015
11:51:21.273,-0.025,-0.015
11:51:21.281,-0.055,-0.005
11:51:21.289,-0.075,-0.015
11:51:21.297,-0.095,-0.025
11:51:21.305,-0.095,-0.025
11:51:21.313,-0.085,-0.025
11:51:21.320,-0.095,-0.015
11:51:21.328,-0.135,-0.015
11:51:21.336,-0.115,-0.015
11:51:21.344,-0.095,-0.025
11:51:21.352,-0.095,-0.025
11:51:21.359,-0.105,-0.015
11:51:21.367,-0.105,-0.005
11:51:21.375,-0.115,-0.005
11:51:21.383,-0.075,-0.035
11:51:21.391,-0.085,-0.025
11:51:21.398,-0.085,-0.015
11:51:21.406,-0.055,-0.015
11:51:21.414,-0.055,-0.025
11:51:21.422,-0.055,-0.015
11:51:21.430,-0.065,-0.015
11:51:21.438,-0.075,-0.015
11:51:21.445,-0.065,-0.015
11:51:21.453,-0.085,-0.035
11:51:21.461,-0.065,-0.015
11:51:21.469,-0.065,-0.015
11:51:21.477,-0.055,-0.025
11:51:21.484,-0.075,-0.045
11:51:21.492,-0.065,-0.025
11:51:21.500,-0.065,-0.005
11:51:21.508,-0.085,-0.015
11:51:21.516,-0.105,-0.035
11:51:21.523,-0.085,-0.025
11:51:21.531,-0.085,-0.015
11:51:21.539,-0.075,-0.025
11:51:21.547,-0.075,-0.035
11:51:21.555,-0.085,-0.045
11:51:21.563,-0.095,-0.025
11:51:21.570,-0.095,-0.035
11:51:21.578,-0.085,-0.045
11:51:21.586,-0.085,-0.035
11:51:21.594,-0.105,-0.025
11:51:21.602,-0.075,-0.035
11:51:21.609,-0.065,-0.035
11:51:21.617,-0.095,-0.035
11:51:21.625,-0.095,-0.025
11:51:21.633,-0.085,-0.035
11:51:21.641,-0.105,-0.055
11:51:21.648,-0.095,-0.035
11:51:21.656,-0.075,-0.045
11:51:21.664,-0.085,-0.045
11:51:21.672,-0.025,-0.055
11:51:21.680,-0.095,-0.045
11:51:21.688,-0.105,-0.025
11:51:21.695,-0.095,-0.035
11:51:21.703,-0.095,-0.045
11:51:21.711,-0.075,-0.045
11:51:21.719,-0.045,-0.055
11:51:21.727,-0.055,-0.065
11:51:21.734,-0.065,-0.065
11:51:21.742,-0.035,-0.045
11:51:21.750,-0.075,-0.045
11:51:21.758,-0.105,-0.035
11:51:21.766,-0.095,-0.045
11:51:21.773,-0.055,-0.015
11:51:21.781,0.005,0.015
11:51:21.789,0.005,0.015
11:51:21.797,0.045,0.025
11:51:21.805,0.105,0.045
11:51:21.813,0.115,0.025
11:51:21.820,0.095,-0.045
11:51:21.828,0.065,-0.075
11:51:21.836,0.025,-0.085
11:51:21.844,-0.015,-0.065
11:51:21.852,-0.005,-0.085
11:51:21.859,-0.005,-0.125
11:51:21.867,-0.125,-0.095
11:51:21.875,-0.115,-0.055
11:51:21.883,-0.105,-0.065
11:51:21.891,-0.065,-0.075
11:51:21.898,-0.025,0.065
11:51:21.906,-0.005,0.045
11:51:21.914,0.465,-0.205
11:51:21.922,1.125,-0.365
11:51:21.930,1.335,-0.565
11:51:21.938,-0.025,-0.705
11:51:21.945,-0.705,-0.425
11:51:21.953,-0.525,-0.125
11:51:21.961,-0.185,-0.055
11:51:21.969,-0.045,-0.055
11:51:21.977,-0.055,-0.065
11:51:21.984,-0.065,-0.065
11:51:21.992,-0.075,-0.055
11:51:22.000,-0.065,-0.055
11:51:22.008,-0.045,-0.035
11:51:22.016,-0.075,-0.045
11:51:22.023,-0.055,-0.045
11:51:22.031,-0.055,-0.035
11:51:22.039,-0.035,-0.045
11:51:22.047,-0.045,-0.065
11:51:22.055,-0.055,-0.025
11:51:22.063,0.015,-0.035
11:51:22.070,0.015,-0.055
11:51:22.078,-0.035,-0.065
11:51:22.086,0.085,-0.055
11:51:22.094,-0.025,-0.045
11:51:22.102,-0.015,-0.005
11:51:22.109,0.015,-0.015
11:51:22.117,0.025,-0.025
11:51:22.125,0.055,-0.025
11:51:22.133,0.095,-0.035
11:51:22.141,0.075,-0.045
11:51:22.148,0.135,-0.045
11:51:22.156,0.155,-0.055
11:51:22.164,0.175,-0.055
11:51:22.172,0.205,-0.055
11:51:22.180,0.235,-0.055
11:51:22.188,0.275,-0.055
11:51:22.195,0.295,-0.075
11:51:22.203,0.305,-0.085
11:51:22.211,0.325,-0.085
11:51:22.219,0.335,-0.065
11:51:22.227,0.335,-0.085
11:51:22.234,0.315,-0.095
11:51:22.242,0.265,-0.075
11:51:22.250,0.165,-0.055
11:51:22.258,0.185,-0.075
11:51:22.266,0.025,-0.085
11:51:22.273,-0.025,-0.025
11:51:22.281,-0.105,-0.015
11:51:22.289,-0.105,-0.025
11:51:22.297,-0.055,-0.055
11:51:22.305,-0.115,-0.055
11:51:22.313,-0.145,-0.035
11:51:22.320,-0.125,-0.035
11:51:22.328,-0.145,-0.055
11:51:22.336,-0.135,-0.045
11:51:22.344,-0.125,-0.045
11:51:22.352,-0.125,-0.055
11:51:22.359,-0.125,-0.055
11:51:22.367,-0.115,-0.045
11:51:22.375,-0.115,-0.045
11:51:22.383,-0.105,-0.045
11:51:22.391,-0.125,-0.045
11:51:22.398,-0.105,-0.045
11:51:22.406,-0.105,-0.045
11:51:22.414,-0.095,-0.055
11:51:22.422,-0.095,-0.075
11:51:22.430,-0.075,-0.065
11:51:22.438,-0.045,-0.075
11:51:22.445,-0.055,-0.085
11:51:22.453,-0.135,-0.085
11:51:22.461,-0.165,-0.045
11:51:22.469,-0.155,-0.035
11:51:22.477,-0.115,-0.075
11:51:22.484,-0.125,-0.085
11:51:22.492,-0.135,-0.075
11:51:22.500,-0.135,-0.065
11:51:22.508,-0.145,-0.075
11:51:22.516,-0.155,-0.095
11:51:22.523,-0.135,-0.085
11:51:22.531,-0.115,-0.085
11:51:22.539,-0.145,-0.085
11:51:22.547,-0.135,-0.095
11:51:22.555,-0.135,-0.085
11:51:22.563,-0.145,-0.085
11:51:22.570,-0.135,-0.095
11:51:22.578,-0.155,-0.095
11:51:22.586,-0.135,-0.095
11:51:22.594,-0.145,-0.085
11:51:22.602,-0.155,-0.095
11:51:22.609,-0.095,-0.105
11:51:22.617,-0.115,-0.105
11:51:22.625,-0.155,-0.095
11:51:22.633,-0.105,-0.105
11:51:22.641,-0.155,-0.115
11:51:22.648,-0.165,-0.075
11:51:22.656,-0.175,-0.055
11:51:22.664,-0.155,-0.085
11:51:22.672,-0.145,-0.095
11:51:22.680,-0.145,-0.095
11:51:22.688,-0.125,-0.075
11:51:22.695,-0.135,-0.095
11:51:22.703,-0.135,-0.105
11:51:22.711,-0.135,-0.095
11:51:22.719,-0.115,-0.085
11:51:22.727,-0.115,-0.095
11:51:22.734,-0.125,-0.105
11:51:22.742,-0.125,-0.085
11:51:22.750,-0.115,-0.075
11:51:22.758,-0.065,-0.075
11:51:22.766,-0.085,-0.065
11:51:22.773,-0.075,-0.015
11:51:22.781,-0.055,-0.015
11:51:22.789,0.055,-0.005
11:51:22.797,0.145,-0.045
11:51:22.805,0.055,-0.075
11:51:22.813,-0.015,-0.075
11:51:22.820,-0.055,-0.085
11:51:22.828,-0.085,-0.095
11:51:22.836,-0.105,-0.095
11:51:22.844,-0.125,-0.105
11:51:22.852,-0.135,-0.115
11:51:22.859,-0.115,-0.125
11:51:22.867,-0.105,-0.115
11:51:22.875,-0.105,-0.105
11:51:22.883,-0.055,-0.045
11:51:22.891,-0.075,0.025
11:51:22.898,0.335,-0.185
11:51:22.906,0.995,-0.335
11:51:22.914,1.345,-0.545
11:51:22.922,0.125,-0.685
11:51:22.930,-0.685,-0.435
11:51:22.938,-0.575,-0.165
11:51:22.945,-0.265,-0.085
11:51:22.953,-0.115,-0.105
11:51:22.961,-0.105,-0.095
11:51:22.969,-0.095,-0.075
11:51:22.977,-0.115,-0.095
11:51:22.984,-0.105,-0.095
11:51:22.992,-0.115,-0.095
11:51:23.000,-0.075,-0.095
11:51:23.008,-0.105,-0.095
11:51:23.016,-0.055,-0.125
11:51:23.023,-0.085,-0.075
11:51:23.031,-0.105,-0.065
11:51:23.039,-0.115,-0.065
11:51:23.047,-0.035,-0.115
11:51:23.055,-0.075,-0.065
11:51:23.063,-0.075,-0.055
11:51:23.070,-0.065,-0.065
11:51:23.078,-0.055,-0.085
11:51:23.086,-0.025,-0.075
11:51:23.094,0.005,-0.075
11:51:23.102,-0.005,-0.085
11:51:23.109,0.005,-0.085
11:51:23.117,0.055,-0.085
11:51:23.125,0.075,-0.095
11:51:23.133,0.045,-0.095
11:51:23.141,0.065,-0.085
11:51:23.148,0.125,-0.095
11:51:23.156,0.155,-0.095
11:51:23.164,0.185,-0.105
11:51:23.172,0.195,-0.115
11:51:23.180,0.245,-0.115
11:51:23.188,0.265,-0.115
11:51:23.195,0.265,-0.125
11:51:23.203,0.275,-0.135
11:51:23.211,0.285,-0.125
11:51:23.219,0.275,-0.125
11:51:23.227,0.235,-0.095
11:51:23.234,0.185,-0.095
11:51:23.242,0.115,-0.065
11:51:23.250,0.045,-0.055
11:51:23.258,-0.025,-0.065
11:51:23.266,-0.065,-0.065
11:51:23.273,-0.085,-0.075
11:51:23.281,-0.085,-0.075
11:51:23.289,-0.155,-0.045
11:51:23.297,-0.155,-0.055
11:51:23.305,-0.185,-0.055
11:51:23.313,-0.155,-0.055
11:51:23.320,-0.175,-0.045
11:51:23.328,-0.155,-0.065
11:51:23.336,-0.155,-0.065
11:51:23.344,-0.135,-0.065
11:51:23.352,-0.145,-0.065
11:51:23.359,-0.125,-0.075
11:51:23.367,-0.095,-0.085
11:51:23.375,-0.105,-0.075
11:51:23.383,-0.145,-0.075
11:51:23.391,-0.175,-0.055
11:51:23.398,-0.155,-0.045
11:51:23.406,-0.135,-0.045
11:51:23.414,-0.115,-0.065
11:51:23.422,-0.105,-0.075
11:51:23.430,-0.125,-0.065
11:51:23.438,-0.075,-0.075
11:51:23.445,-0.135,-0.075
11:51:23.453,-0.155,-0.065
11:51:23.461,-0.145,-0.065
11:51:23.469,-0.125,-0.065
11:51:23.477,-0.135,-0.075
11:51:23.484,-0.135,-0.085
11:51:23.492,-0.125,-0.075
11:51:23.500,-0.135,-0.075
11:51:23.508,-0.135,-0.075
11:51:23.516,-0.155,-0.085
11:51:23.523,-0.135,-0.085
11:51:23.531,-0.135,-0.075
11:51:23.539,-0.135,-0.085
11:51:23.547,-0.135,-0.085
11:51:23.555,-0.115,-0.085
11:51:23.563,-0.125,-0.075
11:51:23.570,-0.095,-0.085
11:51:23.578,-0.145,-0.115
11:51:23.586,-0.185,-0.085
11:51:23.594,-0.135,-0.065
11:51:23.602,-0.105,-0.095
11:51:23.609,-0.145,-0.085
11:51:23.617,-0.125,-0.085
11:51:23.625,-0.135,-0.065
11:51:23.633,-0.135,-0.075
11:51:23.641,-0.155,-0.085
11:51:23.648,-0.115,-0.085
11:51:23.656,-0.095,-0.085
11:51:23.664,-0.115,-0.095
11:51:23.672,-0.115,-0.085
11:51:23.680,-0.115,-0.085
11:51:23.688,-0.125,-0.065
11:51:23.695,-0.095,-0.085
11:51:23.703,-0.105,-0.075
11:51:23.711,-0.045,-0.035
11:51:23.719,-0.035,-0.015
11:51:23.727,0.005,-0.015
11:51:23.734,0.035,-0.005
11:51:23.742,0.065,0.005
11:51:23.750,0.085,-0.055
11:51:23.758,0.075,-0.115
11:51:23.766,-0.015,-0.105
11:51:23.773,-0.035,-0.085
11:51:23.781,-0.065,-0.095
11:51:23.789,-0.115,-0.105
11:51:23.797,-0.065,-0.115
11:51:23.805,-0.075,-0.125
11:51:23.813,-0.105,-0.105
11:51:23.820,-0.085,-0.085
11:51:23.828,-0.065,0.015
11:51:23.836,-0.015,0.045
11:51:23.844,0.445,-0.175
11:51:23.852,1.135,-0.345
11:51:23.859,1.385,-0.565
11:51:23.867,0.075,-0.675
11:51:23.875,-0.695,-0.395
11:51:23.883,-0.515,-0.135
11:51:23.891,-0.225,-0.065
11:51:23.898,-0.075,-0.095
11:51:23.906,-0.085,-0.065
11:51:23.914,-0.085,-0.075
11:51:23.922,-0.085,-0.075
11:51:23.930,-0.085,-0.065
11:51:23.938,-0.085,-0.075
11:51:23.945,-0.075,-0.065
11:51:23.953,-0.085,-0.075
11:51:23.961,-0.065,-0.065
11:51:23.969,-0.055,-0.065
11:51:23.977,-0.055,-0.065
11:51:23.984,-0.055,-0.065
11:51:23.992,-0.055,-0.065
11:51:24.000,-0.025,-0.045
11:51:24.008,-0.005,-0.075
11:51:24.016,-0.015,-0.065
11:51:24.023,0.085,-0.085
11:51:24.031,-0.005,-0.085
11:51:24.039,0.065,-0.075
11:51:24.047,0.005,-0.085
11:51:24.055,0.055,-0.055
11:51:24.063,0.015,-0.035
11:51:24.070,0.075,-0.055
11:51:24.078,0.085,-0.075
11:51:24.086,0.125,-0.065
11:51:24.094,0.165,-0.075
11:51:24.102,0.205,-0.075
11:51:24.109,0.245,-0.105
11:51:24.117,0.265,-0.095
11:51:24.125,0.285,-0.085
11:51:24.133,0.305,-0.105
11:51:24.141,0.295,-0.125
11:51:24.148,0.315,-0.105
11:51:24.156,0.305,-0.095
11:51:24.164,0.275,-0.075
11:51:24.172,0.225,-0.065
11:51:24.180,0.155,-0.035
11:51:24.188,0.085,-0.015
11:51:24.195,0.025,-0.035
11:51:24.203,-0.035,-0.035
11:51:24.211,-0.055,-0.045
11:51:24.219,0.025,-0.075
11:51:24.227,-0.065,-0.085
11:51:24.234,-0.155,-0.035
11:51:24.242,-0.115,-0.025
11:51:24.250,-0.145,-0.025
11:51:24.258,-0.165,-0.015
11:51:24.266,-0.165,-0.035
11:51:24.273,-0.125,-0.035
11:51:24.281,-0.125,-0.035
11:51:24.289,-0.115,-0.035
11:51:24.297,-0.105,-0.045
11:51:24.305,-0.105,-0.045
11:51:24.313,-0.085,-0.035
11:51:24.320,-0.085,-0.035
11:51:24.328,-0.115,-0.035
11:51:24.336,-0.095,-0.045
11:51:24.344,-0.085,-0.035
11:51:24.352,-0.075,-0.035
11:51:24.359,-0.075,-0.045
11:51:24.367,-0.075,-0.025
11:51:24.375,-0.085,-0.035
11:51:24.383,-0.095,-0.045
11:51:24.391,-0.075,-0.075
11:51:24.398,-0.085,-0.045
11:51:24.406,-0.095,-0.035
11:51:24.414,-0.085,-0.045
11:51:24.422,-0.115,-0.065
11:51:24.430,-0.075,-0.055
11:51:24.438,-0.125,-0.055
11:51:24.445,-0.105,-0.045
11:51:24.453,-0.145,-0.075
11:51:24.461,-0.125,-0.045
11:51:24.469,-0.105,-0.035
11:51:24.477,-0.115,-0.055
11:51:24.484,-0.115,-0.055
11:51:24.492,-0.105,-0.055
11:51:24.500,-0.115,-0.055
11:51:24.508,-0.105,-0.055
11:51:24.516,-0.105,-0.075
11:51:24.523,-0.115,-0.055
11:51:24.531,-0.105,-0.055
11:51:24.539,-0.115,-0.055
11:51:24.547,-0.115,-0.085
11:51:24.555,-0.045,-0.075
11:51:24.563,-0.135,-0.065
11:51:24.570,-0.125,-0.035
11:51:24.578,-0.145,-0.055
11:51:24.586,-0.095,-0.055
11:51:24.594,-0.115,-0.055
11:51:24.602,-0.105,-0.055
11:51:24.609,-0.105,-0.065
11:51:24.617,-0.065,-0.055
11:51:24.625,-0.115,-0.055
11:51:24.633,-0.085,-0.045
11:51:24.641,-0.115,-0.065
11:51:24.648,-0.105,-0.055
11:51:24.656,-0.105,-0.035
11:51:24.664,-0.095,-0.045
11:51:24.672,-0.075,-0.065
11:51:24.680,-0.065,-0.065
11:51:24.688,-0.015,-0.005
11:51:24.695,-0.035,0.005
11:51:24.703,-0.015,0.005
11:51:24.711,0.055,0.025
11:51:24.719,0.095,-0.005
11:51:24.727,0.065,-0.055
11:51:24.734,0.025,-0.085
11:51:24.742,-0.015,-0.065
11:51:24.750,-0.065,-0.085
11:51:24.758,-0.035,-0.095
11:51:24.766,-0.095,-0.105
11:51:24.773,-0.055,-0.105
11:51:24.781,-0.135,-0.085
11:51:24.789,-0.105,-0.065
11:51:24.797,-0.035,-0.045
11:51:24.805,-0.015,0.085
11:51:24.813,0.175,-0.045
11:51:24.820,0.825,-0.285
11:51:24.828,1.535,-0.505
11:51:24.836,0.615,-0.635
11:51:24.844,-0.585,-0.565
11:51:24.852,-0.675,-0.235
11:51:24.859,-0.375,-0.055
11:51:24.867,-0.105,-0.065
11:51:24.875,-0.075,-0.065
11:51:24.883,-0.065,-0.075
11:51:24.891,-0.105,-0.065
11:51:24.898,-0.075,-0.055
11:51:24.906,-0.085,-0.055
11:51:24.914,-0.075,-0.045
11:51:24.922,-0.075,-0.055
11:51:24.930,-0.065,-0.035
11:51:24.938,-0.065,-0.045
11:51:24.945,-0.045,-0.045
11:51:24.953,-0.075,-0.045
11:51:24.961,-0.065,-0.045
11:51:24.969,-0.015,-0.045
11:51:24.977,-0.045,-0.025
11:51:24.984,-0.025,-0.045
11:51:24.992,-0.015,-0.035
11:51:25.000,-0.005,-0.025
11:51:25.008,0.005,-0.025
11:51:25.016,0.005,-0.045
11:51:25.023,0.065,-0.045
11:51:25.031,0.095,-0.055
11:51:25.039,0.055,-0.055
11:51:25.047,0.075,-0.035
11:51:25.055,0.105,-0.035
11:51:25.063,0.135,-0.035
11:51:25.070,0.175,-0.055
11:51:25.078,0.175,-0.055
11:51:25.086,0.235,-0.055
11:51:25.094,0.265,-0.065
11:51:25.102,0.285,-0.065
11:51:25.109,0.305,-0.085
11:51:25.117,0.325,-0.075
11:51:25.125,0.325,-0.075
11:51:25.133,0.345,-0.105
11:51:25.141,0.255,-0.095
11:51:25.148,0.225,-0.045
11:51:25.156,0.195,-0.055
11:51:25.164,0.135,-0.035
11:51:25.172,-0.025,-0.035
11:51:25.180,-0.065,-0.005
11:51:25.188,-0.055,-0.015
11:51:25.195,-0.105,-0.025
11:51:25.203,-0.125,-0.045
11:51:25.211,-0.135,-0.025
11:51:25.219,-0.115,-0.035
11:51:25.227,-0.115,-0.035
11:51:25.234,-0.135,-0.045
11:51:25.242,-0.095,-0.065
11:51:25.250,-0.125,-0.055
11:51:25.258,-0.145,-0.025
11:51:25.266,-0.165,-0.025
11:51:25.273,-0.125,-0.025
11:51:25.281,-0.115,-0.045
11:51:25.289,-0.125,-0.025
11:51:25.297,-0.135,-0.045
11:51:25.305,-0.085,-0.045
11:51:25.313,-0.105,-0.035
11:51:25.320,-0.105,-0.045
11:51:25.328,-0.115,-0.035
11:51:25.336,-0.105,-0.035
11:51:25.344,-0.085,-0.035
11:51:25.352,-0.095,-0.025
11:51:25.359,-0.105,-0.045
11:51:25.367,-0.095,-0.045
11:51:25.375,-0.095,-0.045
11:51:25.383,-0.095,-0.045
11:51:25.391,-0.125,-0.055
11:51:25.398,-0.105,-0.035
11:51:25.406,-0.125,-0.055
11:51:25.414,-0.075,-0.065
11:51:25.422,-0.025,-0.085
11:51:25.430,-0.155,-0.055
11:51:25.438,-0.145,-0.015
11:51:25.445,-0.135,-0.035
11:51:25.453,-0.135,-0.055
11:51:25.461,-0.145,-0.075
11:51:25.469,-0.105,-0.045
11:51:25.477,-0.135,-0.055
11:51:25.484,-0.135,-0.055
11:51:25.492,-0.115,-0.055
11:51:25.500,-0.135,-0.045
11:51:25.508,-0.135,-0.055
11:51:25.516,-0.145,-0.065
11:51:25.523,-0.135,-0.065
11:51:25.531,-0.115,-0.055
11:51:25.539,-0.115,-0.055
11:51:25.547,-0.095,-0.075
11:51:25.555,-0.105,-0.085
11:51:25.563,-0.135,-0.045
11:51:25.570,-0.135,-0.055
11:51:25.578,-0.105,-0.065
11:51:25.586,-0.135,-0.055
11:51:25.594,-0.055,-0.055
11:51:25.602,-0.105,-0.105
11:51:25.609,-0.165,-0.055
11:51:25.617,-0.135,-0.055
11:51:25.625,-0.135,-0.045
11:51:25.633,-0.125,-0.055
11:51:25.641,-0.135,-0.065
11:51:25.648,-0.125,-0.065
11:51:25.656,-0.115,-0.055
11:51:25.664,-0.105,-0.055
11:51:25.672,-0.095,-0.065
11:51:25.680,-0.075,-0.045
11:51:25.688,-0.025,-0.005
11:51:25.695,-0.025,0.005
11:51:25.703,-0.015,0.015
11:51:25.711,0.055,0.025
11:51:25.719,0.075,0.005
11:51:25.727,0.055,-0.065
11:51:25.734,0.025,-0.085
11:51:25.742,-0.025,-0.085
11:51:25.750,-0.055,-0.095
11:51:25.758,-0.055,-0.105
11:51:25.766,-0.115,-0.135
11:51:25.773,-0.095,-0.115
11:51:25.781,-0.165,-0.065
11:51:25.789,-0.155,-0.085
11:51:25.797,-0.095,-0.065
11:51:25.805,-0.045,0.075
11:51:25.813,0.055,-0.035
11:51:25.820,0.585,-0.275
11:51:25.828,1.255,-0.435
11:51:25.836,0.895,-0.625
11:51:25.844,-0.405,-0.665
11:51:25.852,-0.745,-0.355
11:51:25.859,-0.475,-0.095
11:51:25.867,-0.155,-0.065
11:51:25.875,-0.085,-0.065
11:51:25.883,-0.105,-0.065
11:51:25.891,-0.135,-0.085
11:51:25.898,-0.105,-0.085
11:51:25.906,-0.055,-0.075
11:51:25.914,-0.095,-0.085
11:51:25.922,-0.125,-0.065
11:51:25.930,-0.095,-0.055
11:51:25.938,-0.115,-0.055
11:51:25.945,-0.145,-0.035
11:51:25.953,-0.115,-0.055
11:51:25.961,-0.075,-0.045
11:51:25.969,-0.075,-0.035
11:51:25.977,-0.065,-0.045
11:51:25.984,-0.055,-0.055
11:51:25.992,-0.045,-0.045
11:51:26.000,-0.035,-0.035
11:51:26.008,-0.025,-0.035
11:51:26.016,-0.025,-0.055
11:51:26.023,0.005,-0.045
11:51:26.031,0.025,-0.045
11:51:26.039,0.065,-0.055
11:51:26.047,0.035,-0.095
11:51:26.055,0.225,-0.095
11:51:26.063,0.065,-0.055
11:51:26.070,0.065,-0.025
11:51:26.078,0.125,-0.065
11:51:26.086,0.215,-0.075
11:51:26.094,0.255,-0.085
11:51:26.102,0.205,-0.095
11:51:26.109,0.265,-0.095
11:51:26.117,0.285,-0.105
11:51:26.125,0.265,-0.075
11:51:26.133,0.275,-0.095
11:51:26.141,0.235,-0.095
11:51:26.148,0.195,-0.085
11:51:26.156,0.135,-0.065
11:51:26.164,0.045,-0.055
11:51:26.172,0.005,-0.065
11:51:26.180,-0.065,-0.065
11:51:26.188,-0.105,-0.045
11:51:26.195,-0.135,-0.055
11:51:26.203,-0.165,-0.065
11:51:26.211,-0.165,-0.065
11:51:26.219,-0.165,-0.055
11:51:26.227,-0.155,-0.075
11:51:26.234,-0.075,-0.105
11:51:26.242,-0.135,-0.115
11:51:26.250,-0.235,-0.065
11:51:26.258,-0.225,-0.025
11:51:26.266,-0.225,-0.045
11:51:26.273,-0.175,-0.055
11:51:26.281,-0.165,-0.055
11:51:26.289,-0.165,-0.075
11:51:26.297,-0.145,-0.075
11:51:26.305,-0.145,-0.075
11:51:26.313,-0.155,-0.065
11:51:26.320,-0.155,-0.065
11:51:26.328,-0.155,-0.075
11:51:26.336,-0.145,-0.065
11:51:26.344,-0.115,-0.075
11:51:26.352,-0.135,-0.085
11:51:26.359,-0.135,-0.075
11:51:26.367,-0.125,-0.085
11:51:26.375,-0.165,-0.065
11:51:26.383,-0.175,-0.065
11:51:26.391,-0.185,-0.085
11:51:26.398,-0.165,-0.085
11:51:26.406,-0.155,-0.085
11:51:26.414,-0.155,-0.085
11:51:26.422,-0.155,-0.095
11:51:26.430,-0.135,-0.105
11:51:26.438,-0.175,-0.105
11:51:26.445,-0.145,-0.115
11:51:26.453,-0.155,-0.135
11:51:26.461,-0.125,-0.105
11:51:26.469,-0.205,-0.075
11:51:26.477,-0.185,-0.095
11:51:26.484,-0.175,-0.105
11:51:26.492,-0.125,-0.115
11:51:26.500,-0.185,-0.105
11:51:26.508,-0.175,-0.105
11:51:26.516,-0.175,-0.125
11:51:26.523,-0.185,-0.105
11:51:26.531,-0.195,-0.085
11:51:26.539,-0.165,-0.105
11:51:26.547,-0.145,-0.105
11:51:26.555,-0.145,-0.095
11:51:26.563,-0.155,-0.095
11:51:26.570,-0.155,-0.105
11:51:26.578,-0.175,-0.115
11:51:26.586,-0.155,-0.105
11:51:26.594,-0.155,-0.095
11:51:26.602,-0.145,-0.095
11:51:26.609,-0.145,-0.115
11:51:26.617,-0.145,-0.115
11:51:26.625,-0.165,-0.105
11:51:26.633,-0.055,-0.115
11:51:26.641,-0.085,-0.175
11:51:26.648,-0.205,-0.095
11:51:26.656,-0.165,-0.055
11:51:26.664,-0.175,-0.085
11:51:26.672,-0.155,-0.095
11:51:26.680,-0.135,-0.095
11:51:26.688,-0.135,-0.105
11:51:26.695,-0.125,-0.095
11:51:26.703,-0.095,-0.075
11:51:26.711,-0.065,-0.035
11:51:26.719,-0.045,-0.025
11:51:26.727,-0.005,-0.025
11:51:26.734,0.045,-0.015
11:51:26.742,0.045,-0.075
11:51:26.750,0.015,-0.105
11:51:26.758,0.005,-0.115
11:51:26.766,-0.085,-0.135
11:51:26.773,-0.115,-0.105
11:51:26.781,-0.155,-0.115
11:51:26.789,-0.115,-0.145
11:51:26.797,-0.105,-0.155
11:51:26.805,-0.105,-0.145
11:51:26.813,-0.135,-0.135
11:51:26.820,-0.105,-0.045
11:51:26.828,-0.105,0.045
11:51:26.836,0.215,-0.135
11:51:26.844,0.885,-0.325
11:51:26.852,1.455,-0.525
11:51:26.859,0.395,-0.675
11:51:26.867,-0.635,-0.525
11:51:26.875,-0.655,-0.225
11:51:26.883,-0.385,-0.085
11:51:26.891,-0.185,-0.105
11:51:26.898,-0.125,-0.085
11:51:26.906,-0.135,-0.095
11:51:26.914,-0.135,-0.095
11:51:26.922,-0.095,-0.105
11:51:26.930,-0.135,-0.095
11:51:26.938,-0.125,-0.095
11:51:26.945,-0.115,-0.085
11:51:26.953,-0.135,-0.105
11:51:26.961,-0.115,-0.095
11:51:26.969,-0.085,-0.085
11:51:26.977,-0.095,-0.095
11:51:26.984,-0.085,-0.075
11:51:26.992,-0.095,-0.085
11:51:27.000,-0.045,-0.085
11:51:27.008,-0.035,-0.125
11:51:27.016,-0.075,-0.095
11:51:27.023,-0.015,-0.095
11:51:27.031,-0.025,-0.095
11:51:27.039,-0.085,-0.065
11:51:27.047,0.055,-0.085
11:51:27.055,-0.005,-0.095
11:51:27.063,-0.005,-0.055
11:51:27.070,0.025,-0.075
11:51:27.078,0.045,-0.105
11:51:27.086,0.095,-0.095
11:51:27.094,0.135,-0.095
11:51:27.102,0.155,-0.105
11:51:27.109,0.195,-0.125
11:51:27.117,0.215,-0.125
11:51:27.125,0.245,-0.115
11:51:27.133,0.255,-0.135
11:51:27.141,0.255,-0.135
11:51:27.148,0.285,-0.135
11:51:27.156,0.245,-0.115
11:51:27.164,0.215,-0.105
11:51:27.172,0.125,-0.095
11:51:27.180,0.105,-0.075
11:51:27.188,0.035,-0.105
11:51:27.195,0.015,-0.075
11:51:27.203,-0.125,-0.055
11:51:27.211,-0.145,-0.045
11:51:27.219,-0.125,-0.055
11:51:27.227,-0.195,-0.055
11:51:27.234,-0.195,-0.045
11:51:27.242,-0.185,-0.045
11:51:27.250,-0.175,-0.065
11:51:27.258,-0.165,-0.065
11:51:27.266,-0.175,-0.065
11:51:27.273,-0.185,-0.065
11:51:27.281,-0.165,-0.045
11:51:27.289,-0.155,-0.065
11:51:27.297,-0.155,-0.065
11:51:27.305,-0.145,-0.055
11:51:27.313,-0.145,-0.055
11:51:27.320,-0.145,-0.055
11:51:27.328,-0.145,-0.065
11:51:27.336,-0.115,-0.065
11:51:27.344,-0.055,-0.085
11:51:27.352,-0.105,-0.115
11:51:27.359,-0.145,-0.095
11:51:27.367,-0.115,-0.035
11:51:27.375,-0.125,-0.055
11:51:27.383,-0.185,-0.045
11:51:27.391,-0.195,-0.055
11:51:27.398,-0.155,-0.075
11:51:27.406,-0.145,-0.065
11:51:27.414,-0.135,-0.075
11:51:27.422,-0.145,-0.075
11:51:27.430,-0.135,-0.075
11:51:27.438,-0.145,-0.075
11:51:27.445,-0.145,-0.075
11:51:27.453,-0.185,-0.085
11:51:27.461,-0.145,-0.065
11:51:27.469,-0.145,-0.065
11:51:27.477,-0.145,-0.085
11:51:27.484,-0.145,-0.075
11:51:27.492,-0.135,-0.085
11:51:27.500,-0.145,-0.075
11:51:27.508,-0.145,-0.085
11:51:27.516,-0.145,-0.095
11:51:27.523,-0.105,-0.115
11:51:27.531,-0.115,-0.105
11:51:27.539,-0.105,-0.065
11:51:27.547,-0.155,-0.085
11:51:27.555,-0.195,-0.085
11:51:27.563,-0.125,-0.055
11:51:27.570,-0.115,-0.085
11:51:27.578,-0.165,-0.075
11:51:27.586,-0.165,-0.065
11:51:27.594,-0.125,-0.055
11:51:27.602,-0.165,-0.075
11:51:27.609,-0.115,-0.085
11:51:27.617,-0.155,-0.075
11:51:27.625,-0.125,-0.065
11:51:27.633,-0.115,-0.075
11:51:27.641,-0.155,-0.075
11:51:27.648,-0.125,-0.065
11:51:27.656,-0.125,-0.065
11:51:27.664,-0.105,-0.075
11:51:27.672,-0.115,-0.075
11:51:27.680,-0.115,-0.075
11:51:27.688,-0.115,-0.065
11:51:27.695,-0.085,-0.055
11:51:27.703,-0.065,-0.035
11:51:27.711,-0.055,-0.015
11:51:27.719,-0.005,0.005
11:51:27.727,0.045,0.025
11:51:27.734,0.065,-0.005
11:51:27.742,0.035,-0.055
11:51:27.750,0.065,-0.105
11:51:27.758,0.005,-0.095
11:51:27.766,-0.095,-0.075
11:51:27.773,-0.105,-0.065
11:51:27.781,-0.145,-0.065
11:51:27.789,-0.105,-0.085
11:51:27.797,-0.105,-0.075
11:51:27.805,-0.085,-0.095
11:51:27.813,-0.055,-0.015
11:51:27.820,-0.025,0.085
11:51:27.828,0.085,-0.025
11:51:27.836,0.765,-0.245
11:51:27.844,1.455,-0.415
11:51:27.852,0.915,-0.595
11:51:27.859,-0.445,-0.595
11:51:27.867,-0.675,-0.255
11:51:27.875,-0.425,-0.045
11:51:27.883,-0.145,-0.035
11:51:27.891,-0.095,-0.055
11:51:27.898,-0.095,-0.045
11:51:27.906,-0.095,-0.045
11:51:27.914,-0.095,-0.055
11:51:27.922,-0.085,-0.055
11:51:27.930,-0.075,-0.035
11:51:27.938,-0.095,-0.025
11:51:27.945,-0.085,-0.025
11:51:27.953,-0.105,-0.025
11:51:27.961,-0.075,-0.025
11:51:27.969,-0.065,-0.015
11:51:27.977,-0.055,-0.025
11:51:27.984,-0.045,-0.035
11:51:27.992,-0.045,-0.015
11:51:28.000,-0.035,-0.025
11:51:28.008,-0.025,-0.015
11:51:28.016,-0.035,-0.035
11:51:28.023,0.015,-0.015
11:51:28.031,0.015,-0.005
11:51:28.039,0.015,-0.015
11:51:28.047,0.045,-0.035
11:51:28.055,0.045,-0.025
11:51:28.063,0.085,-0.015
11:51:28.070,0.095,-0.025
11:51:28.078,0.125,-0.055
11:51:28.086,0.145,-0.055
11:51:28.094,0.225,-0.035
11:51:28.102,0.205,-0.035
11:51:28.109,0.225,-0.055
11:51:28.117,0.285,-0.065
11:51:28.125,0.255,-0.055
11:51:28.133,0.285,-0.045
11:51:28.141,0.265,-0.055
11:51:28.148,0.275,-0.065
11:51:28.156,0.245,-0.045
11:51:28.164,0.195,-0.035
11:51:28.172,0.135,-0.025
11:51:28.180,0.065,-0.005
11:51:28.188,-0.015,-0.005
11:51:28.195,-0.055,-0.005
11:51:28.203,-0.115,-0.015
11:51:28.211,-0.115,-0.015
11:51:28.219,-0.135,-0.005
11:51:28.227,-0.105,-0.015
11:51:28.234,-0.145,-0.025
11:51:28.242,-0.155,-0.005
11:51:28.250,-0.155,-0.005
11:51:28.258,-0.155,-0.015
11:51:28.266,-0.175,-0.025
11:51:28.273,-0.155,-0.015
11:51:28.281,-0.135,-0.005
11:51:28.289,-0.135,-0.015
11:51:28.297,-0.125,-0.025
11:51:28.305,-0.115,-0.015
11:51:28.313,-0.115,-0.005
11:51:28.320,-0.115,-0.005
11:51:28.328,-0.135,-0.025
11:51:28.336,-0.095,-0.025
11:51:28.344,-0.085,-0.035
11:51:28.352,-0.115,-0.025
11:51:28.359,-0.125,-0.015
11:51:28.367,-0.135,0.005
11:51:28.375,-0.135,0.005
11:51:28.383,-0.135,-0.015
11:51:28.391,-0.135,-0.035
11:51:28.398,-0.125,-0.025
11:51:28.406,-0.125,-0.015
11:51:28.414,-0.125,-0.015
11:51:28.422,-0.125,-0.025
11:51:28.430,-0.125,-0.035
11:51:28.438,-0.125,-0.025
11:51:28.445,-0.135,-0.035
11:51:28.453,-0.155,-0.045
11:51:28.461,-0.145,-0.025
11:51:28.469,-0.135,-0.035
11:51:28.477,-0.145,-0.035
11:51:28.484,-0.125,-0.035
11:51:28.492,-0.125,-0.025
11:51:28.500,-0.145,-0.025
11:51:28.508,-0.135,-0.035
11:51:28.516,-0.155,-0.035
11:51:28.523,-0.135,-0.045
11:51:28.531,-0.145,-0.035
11:51:28.539,-0.115,-0.045
11:51:28.547,-0.125,-0.045
11:51:28.555,-0.135,-0.035
11:51:28.563,-0.135,-0.035
11:51:28.570,-0.135,-0.045
11:51:28.578,-0.155,-0.045
11:51:28.586,-0.135,-0.035
11:51:28.594,-0.125,-0.025
11:51:28.602,-0.125,-0.035
11:51:28.609,-0.125,-0.045
11:51:28.617,-0.115,-0.045
11:51:28.625,-0.125,-0.025
11:51:28.633,-0.115,-0.045
11:51:28.641,-0.135,-0.035
11:51:28.648,-0.105,-0.035
11:51:28.656,-0.105,-0.035
11:51:28.664,-0.105,-0.035
11:51:28.672,-0.105,-0.045
11:51:28.680,-0.105,-0.045
11:51:28.688,-0.105,-0.025
11:51:28.695,-0.095,-0.025
11:51:28.703,-0.105,-0.045
11:51:28.711,-0.085,-0.005
11:51:28.719,-0.035,0.025
11:51:28.727,-0.025,0.035
11:51:28.734,0.005,0.025
11:51:28.742,0.065,0.055
11:51:28.750,0.075,0.045
11:51:28.758,0.065,-0.015
11:51:28.766,0.025,-0.065
11:51:28.773,-0.015,-0.065
11:51:28.781,-0.055,-0.045
11:51:28.789,-0.095,-0.055
11:51:28.797,-0.115,-0.075
11:51:28.805,-0.125,-0.065
11:51:28.813,-0.115,-0.055
11:51:28.820,-0.105,-0.075
11:51:28.828,-0.085,-0.055
11:51:28.836,-0.045,0.075
11:51:28.844,-0.025,0.045
11:51:28.852,0.465,-0.205
11:51:28.859,1.125,-0.345
11:51:28.867,1.135,-0.565
11:51:28.875,-0.235,-0.675
11:51:28.883,-0.735,-0.375
11:51:28.891,-0.535,-0.085
11:51:28.898,-0.145,-0.045
11:51:28.906,-0.095,-0.055
11:51:28.914,-0.115,-0.055
11:51:28.922,-0.105,-0.065
11:51:28.930,-0.125,-0.055
11:51:28.938,-0.115,-0.035
11:51:28.945,-0.095,-0.055
11:51:28.953,-0.115,-0.045
11:51:28.961,-0.105,-0.035
11:51:28.969,-0.105,-0.035
11:51:28.977,-0.095,-0.045
11:51:28.984,-0.095,-0.045
11:51:28.992,-0.095,-0.025
11:51:29.000,-0.085,-0.025
11:51:29.008,-0.065,-0.035
11:51:29.016,-0.065,-0.045
11:51:29.023,-0.065,-0.035
11:51:29.031,-0.045,-0.035
11:51:29.039,-0.035,-0.045
11:51:29.047,-0.015,-0.055
11:51:29.055,-0.005,-0.045
11:51:29.063,0.005,-0.035
11:51:29.070,0.025,-0.045
11:51:29.078,0.015,-0.055
11:51:29.086,0.055,-0.055
11:51:29.094,0.085,-0.055
11:51:29.102,0.105,-0.065
11:51:29.109,0.145,-0.075
11:51:29.117,0.165,-0.075
11:51:29.125,0.185,-0.075
11:51:29.133,0.225,-0.095
11:51:29.141,0.225,-0.095
11:51:29.148,0.265,-0.085
11:51:29.156,0.265,-0.095
11:51:29.164,0.265,-0.095
11:51:29.172,0.235,-0.095
11:51:29.180,0.185,-0.075
11:51:29.188,0.125,-0.075
11:51:29.195,0.055,-0.065
11:51:29.203,-0.025,-0.055
11:51:29.211,-0.075,-0.055
11:51:29.219,-0.105,-0.045
11:51:29.227,-0.125,-0.055
11:51:29.234,-0.155,-0.045
11:51:29.242,-0.175,-0.045
11:51:29.250,-0.175,-0.045
11:51:29.258,-0.175,-0.045
11:51:29.266,-0.205,-0.055
11:51:29.273,-0.195,-0.055
11:51:29.281,-0.175,-0.055
11:51:29.289,-0.185,-0.055
11:51:29.297,-0.165,-0.075
11:51:29.305,-0.165,-0.055
11:51:29.313,-0.165,-0.045
11:51:29.320,-0.175,-0.045
11:51:29.328,-0.185,-0.065
11:51:29.336,-0.155,-0.055
11:51:29.344,-0.145,-0.045
11:51:29.352,-0.145,-0.055
11:51:29.359,-0.145,-0.065
11:51:29.367,-0.135,-0.065
11:51:29.375,-0.155,-0.055
11:51:29.383,-0.155,-0.065
11:51:29.391,-0.155,-0.075
11:51:29.398,-0.155,-0.065
11:51:29.406,-0.155,-0.085
11:51:29.414,-0.145,-0.075
11:51:29.422,-0.135,-0.075
11:51:29.430,-0.155,-0.075
11:51:29.438,-0.155,-0.085
11:51:29.445,-0.165,-0.075
11:51:29.453,-0.195,-0.085
11:51:29.461,-0.165,-0.075
11:51:29.469,-0.155,-0.075
11:51:29.477,-0.175,-0.095
11:51:29.484,-0.155,-0.085
11:51:29.492,-0.155,-0.095
11:51:29.500,-0.165,-0.075
11:51:29.508,-0.155,-0.095
11:51:29.516,-0.175,-0.095
11:51:29.523,-0.165,-0.085
11:51:29.531,-0.155,-0.085
11:51:29.539,-0.155,-0.095
11:51:29.547,-0.155,-0.105
11:51:29.555,-0.155,-0.085
11:51:29.563,-0.155,-0.085
11:51:29.570,-0.155,-0.095
11:51:29.578,-0.175,-0.095
11:51:29.586,-0.145,-0.105
11:51:29.594,-0.165,-0.085
11:51:29.602,-0.155,-0.095
11:51:29.609,-0.145,-0.105
11:51:29.617,-0.145,-0.095
11:51:29.625,-0.155,-0.085
11:51:29.633,-0.145,-0.095
11:51:29.641,-0.165,-0.105
11:51:29.648,-0.145,-0.095
11:51:29.656,-0.155,-0.095
11:51:29.664,-0.145,-0.095
11:51:29.672,-0.135,-0.105
11:51:29.680,-0.145,-0.095
11:51:29.688,-0.135,-0.095
11:51:29.695,-0.125,-0.085
11:51:29.703,-0.105,-0.065
11:51:29.711,-0.065,-0.035
11:51:29.719,-0.075,-0.025
11:51:29.727,-0.025,-0.025
11:51:29.734,0.035,-0.005
11:51:29.742,0.045,-0.065
11:51:29.750,0.045,-0.095
11:51:29.758,-0.005,-0.115
11:51:29.766,-0.075,-0.115
11:51:29.773,-0.105,-0.125
11:51:29.781,-0.125,-0.105
11:51:29.789,-0.145,-0.135
11:51:29.797,-0.135,-0.145
11:51:29.805,-0.135,-0.115
11:51:29.813,-0.105,-0.115
11:51:29.820,-0.095,-0.065
11:51:29.828,-0.065,0.035
11:51:29.836,0.105,-0.095
11:51:29.844,0.765,-0.305
11:51:29.852,1.415,-0.445
11:51:29.859,0.865,-0.625
11:51:29.867,-0.385,-0.585
11:51:29.875,-0.695,-0.255
11:51:29.883,-0.435,-0.115
11:51:29.891,-0.215,-0.115
11:51:29.898,-0.115,-0.125
11:51:29.906,-0.115,-0.105
11:51:29.914,-0.115,-0.115
11:51:29.922,-0.125,-0.105
11:51:29.930,-0.115,-0.115
11:51:29.938,-0.105,-0.095
11:51:29.945,-0.105,-0.105
11:51:29.953,-0.125,-0.115
11:51:29.961,-0.105,-0.095
11:51:29.969,-0.075,-0.105
11:51:29.977,-0.095,-0.085
11:51:29.984,-0.095,-0.105
11:51:29.992,-0.055,-0.095
11:51:30.000,-0.055,-0.075
11:51:30.008,-0.055,-0.085
11:51:30.016,-0.055,-0.095
11:51:30.023,-0.035,-0.095
11:51:30.031,-0.015,-0.095
11:51:30.039,-0.005,-0.095
11:51:30.047,0.015,-0.105
11:51:30.055,0.025,-0.095
11:51:30.063,0.045,-0.095
11:51:30.070,0.065,-0.105
11:51:30.078,0.075,-0.115
11:51:30.086,0.105,-0.105
11:51:30.094,0.145,-0.105
11:51:30.102,0.155,-0.125
11:51:30.109,0.195,-0.145
11:51:30.117,0.215,-0.135
11:51:30.125,0.245,-0.135
11:51:30.133,0.265,-0.135
11:51:30.141,0.265,-0.155
11:51:30.148,0.275,-0.145
11:51:30.156,0.265,-0.125
11:51:30.164,0.215,-0.115
11:51:30.172,0.165,-0.105
11:51:30.180,0.075,-0.085
11:51:30.188,0.015,-0.065
11:51:30.195,-0.025,-0.075
11:51:30.203,-0.085,-0.065
11:51:30.211,-0.115,-0.065
11:51:30.219,-0.115,-0.065
11:51:30.227,-0.125,-0.085
11:51:30.234,-0.145,-0.085
11:51:30.242,-0.145,-0.075
11:51:30.250,-0.145,-0.065
11:51:30.258,-0.145,-0.075
11:51:30.266,-0.145,-0.095
11:51:30.273,-0.135,-0.065
11:51:30.281,-0.115,-0.065
11:51:30.289,-0.115,-0.085
11:51:30.297,-0.125,-0.075
11:51:30.305,-0.135,-0.065
11:51:30.313,-0.125,-0.055
11:51:30.320,-0.115,-0.075
11:51:30.328,-0.135,-0.085
11:51:30.336,-0.105,-0.075
11:51:30.344,-0.115,-0.075
11:51:30.352,-0.105,-0.085
11:51:30.359,-0.105,-0.095
11:51:30.367,-0.095,-0.075
11:51:30.375,-0.105,-0.085
11:51:30.383,-0.115,-0.075
11:51:30.391,-0.135,-0.105
11:51:30.398,-0.115,-0.075
11:51:30.406,-0.115,-0.075
11:51:30.414,-0.115,-0.085
11:51:30.422,-0.115,-0.095
11:51:30.430,-0.135,-0.085
11:51:30.438,-0.115,-0.085
11:51:30.445,-0.125,-0.095
11:51:30.453,-0.145,-0.105
11:51:30.461,-0.125,-0.095
11:51:30.469,-0.135,-0.085
11:51:30.477,-0.125,-0.095
11:51:30.484,-0.135,-0.105
11:51:30.492,-0.125,-0.095
11:51:30.500,-0.125,-0.085
11:51:30.508,-0.125,-0.105
11:51:30.516,-0.135,-0.105
11:51:30.523,-0.135,-0.095
11:51:30.531,-0.125,-0.085
11:51:30.539,-0.115,-0.095
11:51:30.547,-0.125,-0.105
11:51:30.555,-0.125,-0.095
11:51:30.563,-0.125,-0.095
11:51:30.570,-0.125,-0.105
11:51:30.578,-0.145,-0.115
11:51:30.586,-0.125,-0.105
11:51:30.594,-0.125,-0.085
11:51:30.602,-0.105,-0.095
11:51:30.609,-0.115,-0.105
11:51:30.617,-0.105,-0.095
11:51:30.625,-0.115,-0.085
11:51:30.633,-0.105,-0.105
11:51:30.641,-0.125,-0.095
11:51:30.648,-0.105,-0.085
11:51:30.656,-0.105,-0.095
11:51:30.664,-0.095,-0.075
11:51:30.672,-0.075,-0.095
11:51:30.680,-0.045,-0.045
11:51:30.688,-0.035,-0.015
11:51:30.695,-0.005,-0.015
11:51:30.703,0.005,-0.005
11:51:30.711,0.065,-0.005
11:51:30.719,0.065,-0.065
11:51:30.727,0.045,-0.095
11:51:30.734,0.025,-0.105
11:51:30.742,-0.045,-0.105
11:51:30.750,-0.075,-0.105
11:51:30.758,-0.105,-0.105
11:51:30.766,-0.125,-0.115
11:51:30.773,-0.095,-0.115
11:51:30.781,-0.075,-0.105
11:51:30.789,-0.065,-0.115
11:51:30.797,-0.035,0.005
11:51:30.805,0.005,0.015
11:51:30.813,0.505,-0.205
11:51:30.820,1.185,-0.365
11:51:30.828,1.345,-0.595
11:51:30.836,0.065,-0.715
11:51:30.844,-0.715,-0.425
11:51:30.852,-0.525,-0.135
11:51:30.859,-0.255,-0.075
11:51:30.867,-0.075,-0.095
11:51:30.875,-0.075,-0.095
11:51:30.883,-0.095,-0.095
11:51:30.891,-0.115,-0.095
11:51:30.898,-0.085,-0.085
11:51:30.906,-0.085,-0.085
11:51:30.914,-0.075,-0.085
11:51:30.922,-0.065,-0.085
11:51:30.930,-0.075,-0.075
11:51:30.938,-0.055,-0.065
11:51:30.945,-0.075,-0.065
11:51:30.953,-0.075,-0.075
11:51:30.961,-0.045,-0.055
11:51:30.969,-0.045,-0.055
11:51:30.977,-0.025,-0.055
11:51:30.984,-0.015,-0.065
11:51:30.992,-0.005,-0.045
11:51:31.000,0.005,-0.045
11:51:31.008,0.025,-0.065
11:51:31.016,0.015,-0.065
11:51:31.023,0.045,-0.055
11:51:31.031,0.065,-0.055
11:51:31.039,0.095,-0.055
11:51:31.047,0.115,-0.085
11:51:31.055,0.145,-0.075
11:51:31.063,0.175,-0.065
11:51:31.070,0.195,-0.085
11:51:31.078,0.215,-0.095
11:51:31.086,0.275,-0.085
11:51:31.094,0.275,-0.085
11:51:31.102,0.305,-0.105
11:51:31.109,0.325,-0.115
11:51:31.117,0.315,-0.095
11:51:31.125,0.295,-0.095
11:51:31.133,0.275,-0.085
11:51:31.141,0.185,-0.075
11:51:31.148,0.145,-0.045
11:51:31.156,0.065,-0.045
11:51:31.164,-0.005,-0.045
11:51:31.172,-0.045,-0.035
11:51:31.180,-0.075,-0.025
11:51:31.188,-0.095,-0.035
11:51:31.195,-0.105,-0.045
11:51:31.203,-0.145,-0.045
11:51:31.211,-0.125,-0.035
11:51:31.219,-0.125,-0.035
11:51:31.227,-0.135,-0.045
11:51:31.234,-0.125,-0.055
11:51:31.242,-0.125,-0.035
11:51:31.250,-0.125,-0.035
11:51:31.258,-0.115,-0.035
11:51:31.266,-0.125,-0.045
11:51:31.273,-0.115,-0.045
11:51:31.281,-0.105,-0.025
11:51:31.289,-0.105,-0.055
11:51:31.297,-0.085,-0.045
11:51:31.305,-0.085,-0.045
11:51:31.313,-0.085,-0.045
11:51:31.320,-0.085,-0.045
11:51:31.328,-0.105,-0.055
11:51:31.336,-0.085,-0.045
11:51:31.344,-0.085,-0.035
11:51:31.352,-0.085,-0.045
11:51:31.359,-0.085,-0.055
11:51:31.367,-0.095,-0.055
11:51:31.375,-0.095,-0.045
11:51:31.383,-0.095,-0.045
11:51:31.391,-0.125,-0.055
11:51:31.398,-0.105,-0.045
11:51:31.406,-0.115,-0.055
11:51:31.414,-0.115,-0.055
11:51:31.422,-0.105,-0.075
11:51:31.430,-0.105,-0.055
11:51:31.438,-0.115,-0.055
11:51:31.445,-0.105,-0.055
11:51:31.453,-0.115,-0.065
11:51:31.461,-0.105,-0.055
11:51:31.469,-0.115,-0.055
11:51:31.477,-0.105,-0.055
11:51:31.484,-0.095,-0.065
11:51:31.492,-0.105,-0.055
11:51:31.500,-0.105,-0.055
11:51:31.508,-0.095,-0.045
11:51:31.516,-0.115,-0.065
11:51:31.523,-0.105,-0.065
11:51:31.531,-0.105,-0.045
11:51:31.539,-0.095,-0.055
11:51:31.547,-0.095,-0.075
11:51:31.555,-0.095,-0.045
11:51:31.563,-0.085,-0.055
11:51:31.570,-0.095,-0.065
11:51:31.578,-0.105,-0.065
11:51:31.586,-0.095,-0.055
11:51:31.594,-0.095,-0.055
11:51:31.602,-0.095,-0.045
11:51:31.609,-0.085,-0.055
11:51:31.617,-0.085,-0.045
11:51:31.625,-0.085,-0.055
11:51:31.633,-0.085,-0.045
11:51:31.641,-0.105,-0.055
11:51:31.648,-0.085,-0.045
11:51:31.656,-0.075,-0.045
11:51:31.664,-0.075,-0.045
11:51:31.672,-0.055,-0.035
11:51:31.680,-0.005,-0.005
11:51:31.688,0.005,0.015
11:51:31.695,0.015,0.025
11:51:31.703,0.045,0.035
11:51:31.711,0.095,0.035
11:51:31.719,0.095,-0.025
11:51:31.727,0.075,-0.055
11:51:31.734,0.025,-0.065
11:51:31.742,-0.015,-0.055
11:51:31.750,-0.055,-0.055
11:51:31.758,-0.075,-0.065
11:51:31.766,-0.105,-0.075
11:51:31.773,-0.075,-0.075
11:51:31.781,-0.065,-0.065
11:51:31.789,-0.045,-0.055
11:51:31.797,-0.015,0.035
11:51:31.805,-0.005,0.055
11:51:31.813,0.455,-0.155
11:51:31.820,1.135,-0.335
11:51:31.828,1.325,-0.585
11:51:31.836,0.015,-0.705
11:51:31.844,-0.695,-0.415
11:51:31.852,-0.505,-0.105
11:51:31.859,-0.215,-0.035
11:51:31.867,-0.055,-0.065
11:51:31.875,-0.065,-0.045
11:51:31.883,-0.075,-0.055
11:51:31.891,-0.095,-0.055
11:51:31.898,-0.075,-0.035
11:51:31.906,-0.065,-0.025
11:51:31.914,-0.065,-0.015
11:51:31.922,-0.065,-0.035
11:51:31.930,-0.045,-0.035
11:51:31.938,-0.045,-0.015
11:51:31.945,-0.045,-0.025
11:51:31.953,-0.055,-0.015
11:51:31.961,-0.035,-0.025
11:51:31.969,-0.025,-0.005
11:51:31.977,-0.015,-0.015
11:51:31.984,0.015,-0.015
11:51:31.992,0.015,-0.005
11:51:32.000,0.015,-0.005
11:51:32.008,0.045,-0.015
11:51:32.016,0.035,-0.025
11:51:32.023,0.075,-0.015
11:51:32.031,0.085,-0.015
11:51:32.039,0.105,-0.015
11:51:32.047,0.145,-0.035
11:51:32.055,0.155,-0.025
11:51:32.063,0.185,-0.025
11:51:32.070,0.215,-0.025
11:51:32.078,0.235,-0.045
11:51:32.086,0.275,-0.035
11:51:32.094,0.305,-0.035
11:51:32.102,0.325,-0.045
11:51:32.109,0.345,-0.045
11:51:32.117,0.335,-0.055
11:51:32.125,0.325,-0.045
11:51:32.133,0.295,-0.045
11:51:32.141,0.215,-0.035
11:51:32.148,0.165,-0.025
11:51:32.156,0.105,-0.015
11:51:32.164,0.045,-0.005
11:51:32.172,-0.015,-0.015
11:51:32.180,-0.055,-0.005
11:51:32.188,-0.085,-0.005
11:51:32.195,-0.105,-0.015
11:51:32.203,-0.125,-0.015
11:51:32.211,-0.115,-0.015
11:51:32.219,-0.125,-0.005
11:51:32.227,-0.115,-0.015
11:51:32.234,-0.115,-0.015
11:51:32.242,-0.125,-0.025
11:51:32.250,-0.115,-0.005
11:51:32.258,-0.105,-0.005
11:51:32.266,-0.125,-0.025
11:51:32.273,-0.115,-0.015
11:51:32.281,-0.095,-0.005
11:51:32.289,-0.095,-0.025
11:51:32.297,-0.085,-0.025
11:51:32.305,-0.085,-0.015
11:51:32.313,-0.075,-0.005
11:51:32.320,-0.075,-0.005
11:51:32.328,-0.105,-0.015
11:51:32.336,-0.085,-0.015
11:51:32.344,-0.085,-0.015
11:51:32.352,-0.085,-0.015
11:51:32.359,-0.085,-0.025
11:51:32.367,-0.095,-0.015
11:51:32.375,-0.105,-0.015
11:51:32.383,-0.095,-0.015
11:51:32.391,-0.115,-0.025
11:51:32.398,-0.105,-0.025
11:51:32.406,-0.105,-0.005
11:51:32.414,-0.105,-0.035
11:51:32.422,-0.095,-0.025
11:51:32.430,-0.105,-0.025
11:51:32.438,-0.115,-0.025
11:51:32.445,-0.105,-0.025
11:51:32.453,-0.115,-0.045
11:51:32.461,-0.105,-0.035
11:51:32.469,-0.105,-0.035
11:51:32.477,-0.105,-0.035
11:51:32.484,-0.105,-0.045
11:51:32.492,-0.115,-0.035
11:51:32.500,-0.105,-0.025
11:51:32.508,-0.105,-0.045
11:51:32.516,-0.125,-0.035
11:51:32.523,-0.105,-0.035
11:51:32.531,-0.105,-0.025
11:51:32.539,-0.115,-0.035
11:51:32.547,-0.105,-0.045
11:51:32.555,-0.095,-0.045
11:51:32.563,-0.105,-0.025
11:51:32.570,-0.105,-0.035
11:51:32.578,-0.125,-0.045
11:51:32.586,-0.115,-0.035
11:51:32.594,-0.105,-0.035
11:51:32.602,-0.095,-0.035
11:51:32.609,-0.105,-0.035
11:51:32.617,-0.105,-0.035
11:51:32.625,-0.105,-0.045
11:51:32.633,-0.105,-0.045
11:51:32.641,-0.115,-0.055
11:51:32.648,-0.105,-0.045
11:51:32.656,-0.085,-0.045
11:51:32.664,-0.095,-0.045
11:51:32.672,-0.085,-0.045
11:51:32.680,-0.085,-0.035
11:51:32.688,-0.085,-0.035
11:51:32.695,-0.075,-0.025
11:51:32.703,-0.045,-0.005
11:51:32.711,-0.005,0.025
11:51:32.719,-0.005,0.035
11:51:32.727,0.045,0.045
11:51:32.734,0.095,0.045
11:51:32.742,0.095,-0.005
11:51:32.750,0.065,-0.065
11:51:32.758,0.025,-0.065
11:51:32.766,-0.025,-0.065
11:51:32.773,-0.065,-0.065
11:51:32.781,-0.085,-0.055
11:51:32.789,-0.095,-0.075
11:51:32.797,-0.095,-0.095
11:51:32.805,-0.085,-0.085
11:51:32.813,-0.075,-0.075
11:51:32.820,-0.055,-0.015
11:51:32.828,-0.015,0.085
11:51:32.836,0.115,-0.065
11:51:32.844,0.755,-0.265
11:51:32.852,1.415,-0.455
11:51:32.859,0.625,-0.625
11:51:32.867,-0.575,-0.595
11:51:32.875,-0.615,-0.225
11:51:32.883,-0.325,-0.035
11:51:32.891,-0.095,-0.075
11:51:32.898,-0.085,-0.065
11:51:32.906,-0.075,-0.055
11:51:32.914,-0.105,-0.055
11:51:32.922,-0.105,-0.055
11:51:32.930,-0.085,-0.045
11:51:32.938,-0.075,-0.045
11:51:32.945,-0.075,-0.045
11:51:32.953,-0.085,-0.055
11:51:32.961,-0.075,-0.045
11:51:32.969,-0.055,-0.035
11:51:32.977,-0.045,-0.035
11:51:32.984,-0.045,-0.045
11:51:32.992,-0.035,-0.025
11:51:33.000,-0.025,-0.025
11:51:33.008,-0.025,-0.025
11:51:33.016,-0.025,-0.045
11:51:33.023,-0.005,-0.035
11:51:33.031,0.025,-0.025
11:51:33.039,0.025,-0.035
11:51:33.047,0.045,-0.055
11:51:33.055,0.075,-0.045
11:51:33.063,0.085,-0.045
11:51:33.070,0.115,-0.045
11:51:33.078,0.125,-0.055
11:51:33.086,0.155,-0.055
11:51:33.094,0.175,-0.055
11:51:33.102,0.215,-0.075
11:51:33.109,0.245,-0.075
11:51:33.117,0.265,-0.085
11:51:33.125,0.285,-0.095
11:51:33.133,0.305,-0.095
11:51:33.141,0.295,-0.105
11:51:33.148,0.305,-0.085
11:51:33.156,0.255,-0.075
11:51:33.164,0.205,-0.065
11:51:33.172,0.135,-0.065
11:51:33.180,0.075,-0.045
11:51:33.188,0.015,-0.045
11:51:33.195,-0.025,-0.045
11:51:33.203,-0.105,-0.055
11:51:33.211,-0.095,-0.055
11:51:33.219,-0.115,-0.045
11:51:33.227,-0.125,-0.055
11:51:33.234,-0.135,-0.065
11:51:33.242,-0.135,-0.055
11:51:33.250,-0.135,-0.055
11:51:33.258,-0.145,-0.055
11:51:33.266,-0.155,-0.065
11:51:33.273,-0.145,-0.055
11:51:33.281,-0.135,-0.055
11:51:33.289,-0.145,-0.055
11:51:33.297,-0.125,-0.065
11:51:33.305,-0.125,-0.055
11:51:33.313,-0.115,-0.045
11:51:33.320,-0.115,-0.055
11:51:33.328,-0.135,-0.065
11:51:33.336,-0.125,-0.055
11:51:33.344,-0.115,-0.055
11:51:33.352,-0.125,-0.065
11:51:33.359,-0.105,-0.065
11:51:33.367,-0.115,-0.055
11:51:33.375,-0.125,-0.065
11:51:33.383,-0.115,-0.065
11:51:33.391,-0.145,-0.075
11:51:33.398,-0.145,-0.075
11:51:33.406,-0.125,-0.065
11:51:33.414,-0.135,-0.085
11:51:33.422,-0.135,-0.085
11:51:33.430,-0.145,-0.065
11:51:33.438,-0.145,-0.065
11:51:33.445,-0.145,-0.085
11:51:33.453,-0.175,-0.085
11:51:33.461,-0.145,-0.075
11:51:33.469,-0.155,-0.075
11:51:33.477,-0.155,-0.085
11:51:33.484,-0.145,-0.095
11:51:33.492,-0.145,-0.075
11:51:33.500,-0.155,-0.075
11:51:33.508,-0.155,-0.095
11:51:33.516,-0.175,-0.095
11:51:33.523,-0.155,-0.085
11:51:33.531,-0.155,-0.075
11:51:33.539,-0.145,-0.085
11:51:33.547,-0.145,-0.085
11:51:33.555,-0.155,-0.085
11:51:33.563,-0.165,-0.085
11:51:33.570,-0.145,-0.095
11:51:33.578,-0.175,-0.095
11:51:33.586,-0.155,-0.095
11:51:33.594,-0.155,-0.095
11:51:33.602,-0.155,-0.095
11:51:33.609,-0.145,-0.105
11:51:33.617,-0.155,-0.105
11:51:33.625,-0.145,-0.105
11:51:33.633,-0.145,-0.105
11:51:33.641,-0.165,-0.105
11:51:33.648,-0.145,-0.105
11:51:33.656,-0.145,-0.095
11:51:33.664,-0.145,-0.095
11:51:33.672,-0.145,-0.105
11:51:33.680,-0.145,-0.105
11:51:33.688,-0.135,-0.095
11:51:33.695,-0.145,-0.105
11:51:33.703,-0.155,-0.115
11:51:33.711,-0.135,-0.095
11:51:33.719,-0.135,-0.095
11:51:33.727,-0.125,-0.095
11:51:33.734,-0.095,-0.085
11:51:33.742,-0.045,-0.045
11:51:33.750,-0.045,-0.035
11:51:33.758,-0.025,-0.025
11:51:33.766,0.025,-0.015
11:51:33.773,0.045,-0.055
11:51:33.781,0.035,-0.095
11:51:33.789,-0.015,-0.125
11:51:33.797,-0.065,-0.125
11:51:33.805,-0.105,-0.125
11:51:33.813,-0.135,-0.115
11:51:33.820,-0.145,-0.135
11:51:33.828,-0.165,-0.145
11:51:33.836,-0.145,-0.135
11:51:33.844,-0.125,-0.135
11:51:33.852,-0.095,-0.085
11:51:33.859,-0.075,0.035
11:51:33.867,0.135,-0.115
11:51:33.875,0.785,-0.325
11:51:33.883,1.395,-0.495
11:51:33.891,0.415,-0.675
11:51:33.898,-0.635,-0.545
11:51:33.906,-0.605,-0.245
11:51:33.914,-0.375,-0.115
11:51:33.922,-0.135,-0.125
11:51:33.930,-0.115,-0.115
11:51:33.938,-0.145,-0.105
11:51:33.945,-0.135,-0.115
11:51:33.953,-0.155,-0.105
11:51:33.961,-0.125,-0.105
11:51:33.969,-0.125,-0.095
11:51:33.977,-0.125,-0.095
11:51:33.984,-0.115,-0.105
11:51:33.992,-0.115,-0.095
11:51:34.000,-0.115,-0.085
11:51:34.008,-0.095,-0.085
11:51:34.016,-0.115,-0.095
11:51:34.023,-0.095,-0.085
11:51:34.031,-0.075,-0.085
11:51:34.039,-0.065,-0.085
11:51:34.047,-0.055,-0.095
11:51:34.055,-0.035,-0.075
11:51:34.063,-0.035,-0.085
11:51:34.070,-0.015,-0.085
11:51:34.078,-0.025,-0.105
11:51:34.086,0.005,-0.095
11:51:34.094,0.025,-0.095
11:51:34.102,0.045,-0.095
11:51:34.109,0.065,-0.115
11:51:34.117,0.095,-0.105
11:51:34.125,0.125,-0.115
11:51:34.133,0.145,-0.105
11:51:34.141,0.165,-0.135
11:51:34.148,0.195,-0.135
11:51:34.156,0.235,-0.125
11:51:34.164,0.255,-0.125
11:51:34.172,0.255,-0.155
11:51:34.180,0.265,-0.145
11:51:34.188,0.245,-0.125
11:51:34.195,0.215,-0.115
11:51:34.203,0.165,-0.105
11:51:34.211,0.095,-0.085
11:51:34.219,0.025,-0.075
11:51:34.227,-0.025,-0.075
11:51:34.234,-0.075,-0.075
11:51:34.242,-0.105,-0.055
11:51:34.250,-0.125,-0.065
11:51:34.258,-0.145,-0.065
11:51:34.266,-0.175,-0.075
11:51:34.273,-0.155,-0.075
11:51:34.281,-0.165,-0.065
11:51:34.289,-0.155,-0.065
11:51:34.297,-0.155,-0.075
11:51:34.305,-0.165,-0.075
11:51:34.313,-0.155,-0.065
11:51:34.320,-0.155,-0.065
11:51:34.328,-0.175,-0.065
11:51:34.336,-0.145,-0.075
11:51:34.344,-0.135,-0.065
11:51:34.352,-0.125,-0.065
11:51:34.359,-0.115,-0.085
11:51:34.367,-0.125,-0.075
11:51:34.375,-0.125,-0.075
11:51:34.383,-0.135,-0.075
11:51:34.391,-0.145,-0.075
11:51:34.398,-0.135,-0.075
11:51:34.406,-0.135,-0.075
11:51:34.414,-0.135,-0.085
11:51:34.422,-0.125,-0.095
11:51:34.430,-0.135,-0.075
11:51:34.438,-0.135,-0.085
11:51:34.445,-0.125,-0.095
11:51:34.453,-0.155,-0.095
11:51:34.461,-0.145,-0.085
11:51:34.469,-0.145,-0.075
11:51:34.477,-0.145,-0.085
11:51:34.484,-0.135,-0.105
11:51:34.492,-0.145,-0.105
11:51:34.500,-0.135,-0.095
11:51:34.508,-0.135,-0.095
11:51:34.516,-0.155,-0.095
11:51:34.523,-0.145,-0.095
11:51:34.531,-0.145,-0.085
11:51:34.539,-0.135,-0.085
11:51:34.547,-0.135,-0.105
11:51:34.555,-0.125,-0.095
11:51:34.563,-0.135,-0.085
11:51:34.570,-0.135,-0.085
11:51:34.578,-0.145,-0.105
11:51:34.586,-0.135,-0.105
11:51:34.594,-0.135,-0.095
11:51:34.602,-0.145,-0.095
11:51:34.609,-0.125,-0.105
11:51:34.617,-0.135,-0.095
11:51:34.625,-0.125,-0.095
11:51:34.633,-0.125,-0.095
11:51:34.641,-0.145,-0.115
11:51:34.648,-0.125,-0.095
11:51:34.656,-0.125,-0.095
11:51:34.664,-0.135,-0.095
11:51:34.672,-0.125,-0.115
11:51:34.680,-0.115,-0.095
11:51:34.688,-0.115,-0.095
11:51:34.695,-0.105,-0.095
11:51:34.703,-0.135,-0.115
11:51:34.711,-0.115,-0.095
11:51:34.719,-0.115,-0.085
11:51:34.727,-0.075,-0.075
11:51:34.734,-0.035,-0.055
11:51:34.742,-0.035,-0.035
11:51:34.750,-0.015,-0.005
11:51:34.758,0.045,-0.005
11:51:34.766,0.045,-0.045
11:51:34.773,0.045,-0.095
11:51:34.781,0.015,-0.105
11:51:34.789,-0.025,-0.115
11:51:34.797,-0.065,-0.125
11:51:34.805,-0.105,-0.125
11:51:34.813,-0.125,-0.115
11:51:34.820,-0.115,-0.125
11:51:34.828,-0.135,-0.145
11:51:34.836,-0.105,-0.125
11:51:34.844,-0.065,-0.075
11:51:34.852,-0.025,0.045
11:51:34.859,0.085,-0.075
11:51:34.867,0.735,-0.275
11:51:34.875,1.465,-0.445
11:51:34.883,0.765,-0.645
11:51:34.891,-0.475,-0.605
11:51:34.898,-0.685,-0.275
11:51:34.906,-0.415,-0.095
11:51:34.914,-0.145,-0.105
11:51:34.922,-0.085,-0.115
11:51:34.930,-0.095,-0.095
11:51:34.938,-0.115,-0.085
11:51:34.945,-0.105,-0.105
11:51:34.953,-0.115,-0.105
11:51:34.961,-0.095,-0.085
11:51:34.969,-0.095,-0.085
11:51:34.977,-0.085,-0.075
11:51:34.984,-0.075,-0.095
11:51:34.992,-0.085,-0.085
11:51:35.000,-0.075,-0.065
11:51:35.008,-0.075,-0.075
11:51:35.016,-0.075,-0.085
11:51:35.023,-0.055,-0.075
11:51:35.031,-0.045,-0.065
11:51:35.039,-0.025,-0.065
11:51:35.047,-0.015,-0.075
