Time,ECG1,ECG2
13:50:00.000,0.165,0.085
13:50:00.008,0.155,0.085
13:50:00.016,0.155,0.085
13:50:00.023,0.135,0.075
13:50:00.031,0.135,0.065
13:50:00.039,0.125,0.065
13:50:00.047,0.115,0.055
13:50:00.055,0.095,0.045
13:50:00.063,0.085,0.035
13:50:00.070,0.065,0.065
13:50:00.078,-0.615,-0.565
13:50:00.086,-0.585,-0.605
13:50:00.094,-0.535,-0.545
13:50:00.102,-0.515,-0.515
13:50:00.109,-0.505,-0.505
13:50:00.117,-0.505,-0.505
13:50:00.125,-0.505,-0.505
13:50:00.133,-0.505,-0.505
13:50:00.141,-0.495,-0.495
13:50:00.148,-0.495,-0.485
13:50:00.156,-0.495,-0.485
13:50:00.164,-0.495,-0.485
13:50:00.172,-0.485,-0.475
13:50:00.180,-0.485,-0.475
13:50:00.188,-0.475,-0.475
13:50:00.195,-0.475,-0.465
13:50:00.203,-0.465,-0.465
13:50:00.211,-0.465,-0.455
13:50:00.219,-0.465,-0.455
13:50:00.227,-0.455,-0.445
13:50:00.234,-0.445,-0.445
13:50:00.242,-0.445,-0.435
13:50:00.250,-0.435,-0.425
13:50:00.258,-0.435,-0.425
13:50:00.266,-0.435,-0.415
13:50:00.273,-0.425,-0.415
13:50:00.281,-0.415,-0.405
13:50:00.289,-0.415,-0.405
13:50:00.297,-0.405,-0.395
13:50:00.305,-0.395,-0.385
13:50:00.313,-0.385,-0.375
13:50:00.320,-0.385,-0.385
13:50:00.328,-0.375,-0.375
13:50:00.336,-0.375,-0.365
13:50:00.344,-0.365,-0.355
13:50:00.352,-0.365,-0.355
13:50:00.359,-0.355,-0.345
13:50:00.367,-0.345,-0.345
13:50:00.375,-0.345,-0.335
13:50:00.383,-0.335,-0.335
13:50:00.391,-0.325,-0.325
13:50:00.398,-0.325,-0.325
13:50:00.406,-0.315,-0.315
13:50:00.414,-0.305,-0.315
13:50:00.422,-0.295,-0.305
13:50:00.430,-0.295,-0.295
13:50:00.438,-0.285,-0.295
13:50:00.445,-0.275,-0.285
13:50:00.453,-0.265,-0.275
13:50:00.461,-0.265,-0.275
13:50:00.469,-0.255,-0.265
13:50:00.477,-0.245,-0.255
13:50:00.484,-0.235,-0.245
13:50:00.492,-0.225,-0.245
13:50:00.500,-0.215,-0.245
13:50:00.508,-0.205,-0.235
13:50:00.516,-0.195,-0.225
13:50:00.523,-0.185,-0.215
13:50:00.531,-0.175,-0.215
13:50:00.539,-0.175,-0.205
13:50:00.547,-0.155,-0.195
13:50:00.555,-0.145,-0.185
13:50:00.563,-0.135,-0.185
13:50:00.570,-0.125,-0.175
13:50:00.578,0.505,0.315
13:50:00.586,0.565,0.485
13:50:00.594,0.495,0.415
13:50:00.602,0.475,0.375
13:50:00.609,0.465,0.375
13:50:00.617,0.455,0.365
13:50:00.625,0.465,0.355
13:50:00.633,0.455,0.355
13:50:00.641,0.455,0.355
13:50:00.648,0.445,0.355
13:50:00.656,0.445,0.345
13:50:00.664,0.445,0.345
13:50:00.672,0.445,0.345
13:50:00.680,0.435,0.335
13:50:00.688,0.425,0.325
13:50:00.695,0.425,0.325
13:50:00.703,0.425,0.325
13:50:00.711,0.415,0.315
13:50:00.719,0.405,0.315
13:50:00.727,0.405,0.305
13:50:00.734,0.395,0.305
13:50:00.742,0.395,0.295
13:50:00.750,0.385,0.285
13:50:00.758,0.385,0.285
13:50:00.766,0.375,0.285
13:50:00.773,0.365,0.275
13:50:00.781,0.365,0.265
13:50:00.789,0.355,0.255
13:50:00.797,0.345,0.255
13:50:00.805,0.345,0.245
13:50:00.813,0.345,0.245
13:50:00.820,0.335,0.235
13:50:00.828,0.325,0.235
13:50:00.836,0.315,0.225
13:50:00.844,0.315,0.225
13:50:00.852,0.305,0.215
13:50:00.859,0.295,0.215
13:50:00.867,0.295,0.205
13:50:00.875,0.295,0.195
13:50:00.883,0.285,0.195
13:50:00.891,0.275,0.195
13:50:00.898,0.265,0.185
13:50:00.906,0.265,0.175
13:50:00.914,0.255,0.175
13:50:00.922,0.255,0.175
13:50:00.930,0.245,0.165
13:50:00.938,0.235,0.155
13:50:00.945,0.235,0.155
13:50:00.953,0.225,0.155
13:50:00.961,0.215,0.145
13:50:00.969,0.205,0.135
13:50:00.977,0.195,0.125
13:50:00.984,0.195,0.125
13:50:00.992,0.185,0.115
13:50:01.000,0.175,0.105
13:50:01.008,0.165,0.095
13:50:01.016,0.155,0.095
13:50:01.023,0.145,0.085
13:50:01.031,0.145,0.075
13:50:01.039,0.135,0.075
13:50:01.047,0.125,0.075
13:50:01.055,0.115,0.065
13:50:01.063,0.105,0.055
13:50:01.070,0.085,0.035
13:50:01.078,-0.385,-0.185
13:50:01.086,-0.625,-0.625
13:50:01.094,-0.555,-0.565
13:50:01.102,-0.515,-0.515
13:50:01.109,-0.495,-0.495
13:50:01.117,-0.505,-0.495
13:50:01.125,-0.495,-0.485
13:50:01.133,-0.495,-0.485
13:50:01.141,-0.495,-0.475
13:50:01.148,-0.495,-0.475
13:50:01.156,-0.495,-0.475
13:50:01.164,-0.485,-0.475
13:50:01.172,-0.485,-0.465
13:50:01.180,-0.485,-0.455
13:50:01.188,-0.475,-0.455
13:50:01.195,-0.475,-0.455
13:50:01.203,-0.465,-0.445
13:50:01.211,-0.455,-0.445
13:50:01.219,-0.455,-0.435
13:50:01.227,-0.455,-0.435
13:50:01.234,-0.445,-0.425
13:50:01.242,-0.445,-0.415
13:50:01.250,-0.435,-0.415
13:50:01.258,-0.435,-0.415
13:50:01.266,-0.415,-0.405
13:50:01.273,-0.415,-0.395
13:50:01.281,-0.415,-0.395
13:50:01.289,-0.405,-0.385
13:50:01.297,-0.395,-0.375
13:50:01.305,-0.395,-0.375
13:50:01.313,-0.385,-0.375
13:50:01.320,-0.375,-0.375
13:50:01.328,-0.375,-0.355
13:50:01.336,-0.365,-0.355
13:50:01.344,-0.365,-0.355
13:50:01.352,-0.355,-0.345
13:50:01.359,-0.345,-0.335
13:50:01.367,-0.345,-0.335
13:50:01.375,-0.335,-0.335
13:50:01.383,-0.325,-0.325
13:50:01.391,-0.315,-0.315
13:50:01.398,-0.315,-0.315
13:50:01.406,-0.305,-0.305
13:50:01.414,-0.305,-0.305
13:50:01.422,-0.295,-0.295
13:50:01.430,-0.295,-0.295
13:50:01.438,-0.285,-0.285
13:50:01.445,-0.275,-0.285
13:50:01.453,-0.265,-0.265
13:50:01.461,-0.265,-0.265
13:50:01.469,-0.255,-0.265
13:50:01.477,-0.245,-0.255
13:50:01.484,-0.235,-0.245
13:50:01.492,-0.225,-0.235
13:50:01.500,-0.215,-0.235
13:50:01.508,-0.205,-0.235
13:50:01.516,-0.195,-0.215
13:50:01.523,-0.195,-0.215
13:50:01.531,-0.185,-0.215
13:50:01.539,-0.175,-0.205
13:50:01.547,-0.165,-0.195
13:50:01.555,-0.155,-0.185
13:50:01.563,-0.135,-0.185
13:50:01.570,-0.135,-0.165
13:50:01.578,0.525,0.345
13:50:01.586,0.565,0.485
13:50:01.594,0.495,0.415
13:50:01.602,0.475,0.385
13:50:01.609,0.465,0.375
13:50:01.617,0.455,0.365
13:50:01.625,0.455,0.355
13:50:01.633,0.455,0.355
13:50:01.641,0.445,0.355
13:50:01.648,0.445,0.355
13:50:01.656,0.445,0.345
13:50:01.664,0.435,0.345
13:50:01.672,0.435,0.345
13:50:01.680,0.435,0.335
13:50:01.688,0.435,0.325
13:50:01.695,0.425,0.325
13:50:01.703,0.415,0.325
13:50:01.711,0.415,0.315
13:50:01.719,0.405,0.305
13:50:01.727,0.405,0.305
13:50:01.734,0.405,0.305
13:50:01.742,0.395,0.295
13:50:01.750,0.385,0.285
13:50:01.758,0.385,0.275
13:50:01.766,0.375,0.285
13:50:01.773,0.375,0.275
13:50:01.781,0.365,0.265
13:50:01.789,0.365,0.265
13:50:01.797,0.355,0.255
13:50:01.805,0.345,0.255
13:50:01.813,0.345,0.245
13:50:01.820,0.335,0.235
13:50:01.828,0.335,0.235
13:50:01.836,0.325,0.225
13:50:01.844,0.325,0.215
13:50:01.852,0.315,0.215
13:50:01.859,0.305,0.215
13:50:01.867,0.305,0.205
13:50:01.875,0.295,0.205
13:50:01.883,0.285,0.195
13:50:01.891,0.285,0.195
13:50:01.898,0.275,0.185
13:50:01.906,0.265,0.175
13:50:01.914,0.265,0.175
13:50:01.922,0.255,0.175
13:50:01.930,0.245,0.165
13:50:01.938,0.245,0.155
13:50:01.945,0.235,0.155
13:50:01.953,0.225,0.155
13:50:01.961,0.215,0.145
13:50:01.969,0.215,0.135
13:50:01.977,0.205,0.125
13:50:01.984,0.195,0.125
13:50:01.992,0.185,0.115
13:50:02.000,0.185,0.105
13:50:02.008,0.175,0.095
13:50:02.016,0.165,0.095
13:50:02.023,0.155,0.085
13:50:02.031,0.145,0.075
13:50:02.039,0.135,0.075
13:50:02.047,0.125,0.065
13:50:02.055,0.115,0.065
13:50:02.063,0.095,0.045
13:50:02.070,0.085,0.035
13:50:02.078,-0.505,-0.335
13:50:02.086,-0.615,-0.615
13:50:02.094,-0.545,-0.555
13:50:02.102,-0.515,-0.515
13:50:02.109,-0.505,-0.505
13:50:02.117,-0.505,-0.495
13:50:02.125,-0.505,-0.495
13:50:02.133,-0.495,-0.495
13:50:02.141,-0.495,-0.485
13:50:02.148,-0.495,-0.485
13:50:02.156,-0.485,-0.485
13:50:02.164,-0.485,-0.485
13:50:02.172,-0.485,-0.475
13:50:02.180,-0.475,-0.465
13:50:02.188,-0.475,-0.465
13:50:02.195,-0.465,-0.465
13:50:02.203,-0.465,-0.455
13:50:02.211,-0.455,-0.445
13:50:02.219,-0.445,-0.445
13:50:02.227,-0.445,-0.445
13:50:02.234,-0.435,-0.435
13:50:02.242,-0.435,-0.435
13:50:02.250,-0.425,-0.425
13:50:02.258,-0.415,-0.425
13:50:02.266,-0.415,-0.415
13:50:02.273,-0.405,-0.405
13:50:02.281,-0.395,-0.405
13:50:02.289,-0.395,-0.405
13:50:02.297,-0.385,-0.395
13:50:02.305,-0.375,-0.385
13:50:02.313,-0.375,-0.395
13:50:02.320,-0.365,-0.385
13:50:02.328,-0.365,-0.375
13:50:02.336,-0.355,-0.365
13:50:02.344,-0.345,-0.365
13:50:02.352,-0.345,-0.365
13:50:02.359,-0.345,-0.355
13:50:02.367,-0.335,-0.345
13:50:02.375,-0.325,-0.345
13:50:02.383,-0.325,-0.335
13:50:02.391,-0.315,-0.335
13:50:02.398,-0.315,-0.325
13:50:02.406,-0.305,-0.325
13:50:02.414,-0.305,-0.325
13:50:02.422,-0.295,-0.305
13:50:02.430,-0.285,-0.305
13:50:02.438,-0.275,-0.305
13:50:02.445,-0.275,-0.295
13:50:02.453,-0.275,-0.285
13:50:02.461,-0.265,-0.285
13:50:02.469,-0.255,-0.275
13:50:02.477,-0.245,-0.275
13:50:02.484,-0.235,-0.255
13:50:02.492,-0.235,-0.255
13:50:02.500,-0.225,-0.255
13:50:02.508,-0.215,-0.245
13:50:02.516,-0.205,-0.235
13:50:02.523,-0.195,-0.225
13:50:02.531,-0.185,-0.225
13:50:02.539,-0.175,-0.225
13:50:02.547,-0.165,-0.205
13:50:02.555,-0.155,-0.205
13:50:02.563,-0.145,-0.205
13:50:02.570,-0.125,-0.185
13:50:02.578,0.335,0.035
13:50:02.586,0.585,0.485
13:50:02.594,0.505,0.415
13:50:02.602,0.475,0.375
13:50:02.609,0.465,0.365
13:50:02.617,0.455,0.355
13:50:02.625,0.455,0.345
13:50:02.633,0.455,0.345
13:50:02.641,0.455,0.345
13:50:02.648,0.445,0.345
13:50:02.656,0.445,0.335
13:50:02.664,0.445,0.325
13:50:02.672,0.445,0.335
13:50:02.680,0.435,0.325
13:50:02.688,0.435,0.315
13:50:02.695,0.425,0.315
13:50:02.703,0.425,0.305
13:50:02.711,0.415,0.305
13:50:02.719,0.415,0.295
13:50:02.727,0.405,0.295
13:50:02.734,0.405,0.295
13:50:02.742,0.395,0.275
13:50:02.750,0.385,0.275
13:50:02.758,0.385,0.265
13:50:02.766,0.375,0.265
13:50:02.773,0.375,0.255
13:50:02.781,0.365,0.245
13:50:02.789,0.355,0.235
13:50:02.797,0.355,0.245
13:50:02.805,0.345,0.235
13:50:02.813,0.345,0.225
13:50:02.820,0.335,0.215
13:50:02.828,0.325,0.215
13:50:02.836,0.325,0.205
13:50:02.844,0.315,0.205
13:50:02.852,0.305,0.195
13:50:02.859,0.305,0.195
13:50:02.867,0.295,0.185
13:50:02.875,0.295,0.185
13:50:02.883,0.285,0.175
13:50:02.891,0.275,0.175
13:50:02.898,0.275,0.165
13:50:02.906,0.265,0.165
13:50:02.914,0.255,0.155
13:50:02.922,0.255,0.155
13:50:02.930,0.245,0.145
13:50:02.938,0.245,0.135
13:50:02.945,0.235,0.135
13:50:02.953,0.225,0.135
13:50:02.961,0.215,0.125
13:50:02.969,0.215,0.115
13:50:02.977,0.205,0.105
13:50:02.984,0.195,0.105
13:50:02.992,0.185,0.095
13:50:03.000,0.175,0.095
13:50:03.008,0.165,0.085
13:50:03.016,0.155,0.075
13:50:03.023,0.155,0.065
13:50:03.031,0.145,0.065
13:50:03.039,0.135,0.055
13:50:03.047,0.115,0.055
13:50:03.055,0.105,0.045
13:50:03.063,0.095,0.035
13:50:03.070,0.085,0.055
13:50:03.078,-0.605,-0.565
13:50:03.086,-0.575,-0.605
13:50:03.094,-0.515,-0.545
13:50:03.102,-0.495,-0.525
13:50:03.109,-0.495,-0.505
13:50:03.117,-0.495,-0.505
13:50:03.125,-0.485,-0.505
13:50:03.133,-0.475,-0.495
13:50:03.141,-0.475,-0.495
13:50:03.148,-0.475,-0.495
13:50:03.156,-0.475,-0.495
13:50:03.164,-0.465,-0.485
13:50:03.172,-0.465,-0.475
13:50:03.180,-0.465,-0.475
13:50:03.188,-0.455,-0.475
13:50:03.195,-0.455,-0.475
13:50:03.203,-0.445,-0.455
13:50:03.211,-0.445,-0.455
13:50:03.219,-0.435,-0.455
13:50:03.227,-0.435,-0.455
13:50:03.234,-0.425,-0.435
13:50:03.242,-0.425,-0.435
13:50:03.250,-0.415,-0.435
13:50:03.258,-0.415,-0.435
13:50:03.266,-0.415,-0.425
13:50:03.273,-0.405,-0.415
13:50:03.281,-0.395,-0.415
13:50:03.289,-0.395,-0.405
13:50:03.297,-0.385,-0.395
13:50:03.305,-0.385,-0.395
13:50:03.313,-0.385,-0.395
13:50:03.320,-0.375,-0.385
13:50:03.328,-0.365,-0.375
13:50:03.336,-0.365,-0.375
13:50:03.344,-0.365,-0.375
13:50:03.352,-0.355,-0.365
13:50:03.359,-0.345,-0.355
13:50:03.367,-0.345,-0.355
13:50:03.375,-0.345,-0.355
13:50:03.383,-0.335,-0.345
13:50:03.391,-0.325,-0.335
13:50:03.398,-0.325,-0.335
13:50:03.406,-0.315,-0.325
13:50:03.414,-0.305,-0.325
13:50:03.422,-0.305,-0.315
13:50:03.430,-0.295,-0.305
13:50:03.438,-0.295,-0.305
13:50:03.445,-0.285,-0.305
13:50:03.453,-0.275,-0.295
13:50:03.461,-0.275,-0.285
13:50:03.469,-0.265,-0.285
13:50:03.477,-0.255,-0.275
13:50:03.484,-0.245,-0.265
13:50:03.492,-0.245,-0.265
13:50:03.500,-0.235,-0.255
13:50:03.508,-0.225,-0.255
13:50:03.516,-0.215,-0.245
13:50:03.523,-0.205,-0.235
13:50:03.531,-0.195,-0.225
13:50:03.539,-0.185,-0.225
13:50:03.547,-0.175,-0.215
13:50:03.555,-0.165,-0.215
13:50:03.563,-0.145,-0.205
13:50:03.570,-0.115,-0.195
13:50:03.578,0.105,-0.195
13:50:03.586,0.525,0.475
13:50:03.594,0.495,0.435
13:50:03.602,0.465,0.375
13:50:03.609,0.445,0.355
13:50:03.617,0.445,0.345
13:50:03.625,0.445,0.345
13:50:03.633,0.445,0.335
13:50:03.641,0.445,0.335
13:50:03.648,0.435,0.335
13:50:03.656,0.435,0.335
13:50:03.664,0.435,0.325
13:50:03.672,0.435,0.325
13:50:03.680,0.425,0.315
13:50:03.688,0.425,0.315
13:50:03.695,0.425,0.315
13:50:03.703,0.415,0.305
13:50:03.711,0.405,0.305
13:50:03.719,0.405,0.305
13:50:03.727,0.405,0.295
13:50:03.734,0.395,0.285
13:50:03.742,0.385,0.285
13:50:03.750,0.375,0.285
13:50:03.758,0.375,0.265
13:50:03.766,0.375,0.265
13:50:03.773,0.365,0.265
13:50:03.781,0.365,0.255
13:50:03.789,0.355,0.245
13:50:03.797,0.345,0.245
13:50:03.805,0.345,0.235
13:50:03.813,0.335,0.235
13:50:03.820,0.335,0.225
13:50:03.828,0.325,0.225
13:50:03.836,0.315,0.215
13:50:03.844,0.305,0.215
13:50:03.852,0.305,0.205
13:50:03.859,0.295,0.205
13:50:03.867,0.295,0.195
13:50:03.875,0.285,0.185
13:50:03.883,0.275,0.185
13:50:03.891,0.275,0.185
13:50:03.898,0.265,0.175
13:50:03.906,0.265,0.165
13:50:03.914,0.245,0.165
13:50:03.922,0.245,0.155
13:50:03.930,0.235,0.145
13:50:03.938,0.225,0.145
13:50:03.945,0.215,0.135
13:50:03.953,0.215,0.135
13:50:03.961,0.205,0.125
13:50:03.969,0.205,0.115
13:50:03.977,0.195,0.115
13:50:03.984,0.185,0.105
13:50:03.992,0.175,0.095
13:50:04.000,0.165,0.085
13:50:04.008,0.155,0.085
13:50:04.016,0.145,0.085
13:50:04.023,0.135,0.075
13:50:04.031,0.125,0.065
13:50:04.039,0.115,0.065
13:50:04.047,0.105,0.055
13:50:04.055,0.095,0.045
13:50:04.063,0.085,0.035
13:50:04.070,0.075,0.025
13:50:04.078,-0.585,-0.495
13:50:04.086,-0.615,-0.615
13:50:04.094,-0.545,-0.555
13:50:04.102,-0.525,-0.525
13:50:04.109,-0.515,-0.505
13:50:04.117,-0.515,-0.505
13:50:04.125,-0.515,-0.505
13:50:04.133,-0.515,-0.505
13:50:04.141,-0.505,-0.495
13:50:04.148,-0.505,-0.495
13:50:04.156,-0.505,-0.495
13:50:04.164,-0.505,-0.485
13:50:04.172,-0.495,-0.475
13:50:04.180,-0.495,-0.485
13:50:04.188,-0.485,-0.475
13:50:04.195,-0.485,-0.475
13:50:04.203,-0.475,-0.465
13:50:04.211,-0.475,-0.455
13:50:04.219,-0.465,-0.455
13:50:04.227,-0.465,-0.445
13:50:04.234,-0.455,-0.445
13:50:04.242,-0.455,-0.435
13:50:04.250,-0.445,-0.435
13:50:04.258,-0.445,-0.425
13:50:04.266,-0.435,-0.415
13:50:04.273,-0.435,-0.415
13:50:04.281,-0.425,-0.415
13:50:04.289,-0.425,-0.405
13:50:04.297,-0.415,-0.395
13:50:04.305,-0.415,-0.395
13:50:04.313,-0.405,-0.395
13:50:04.320,-0.395,-0.385
13:50:04.328,-0.395,-0.375
13:50:04.336,-0.385,-0.375
13:50:04.344,-0.375,-0.365
13:50:04.352,-0.375,-0.365
13:50:04.359,-0.365,-0.355
13:50:04.367,-0.365,-0.345
13:50:04.375,-0.355,-0.345
13:50:04.383,-0.355,-0.345
13:50:04.391,-0.335,-0.335
13:50:04.398,-0.335,-0.325
13:50:04.406,-0.325,-0.325
13:50:04.414,-0.325,-0.325
13:50:04.422,-0.315,-0.305
13:50:04.430,-0.305,-0.305
13:50:04.438,-0.305,-0.305
13:50:04.445,-0.295,-0.295
13:50:04.453,-0.285,-0.285
13:50:04.461,-0.275,-0.285
13:50:04.469,-0.265,-0.275
13:50:04.477,-0.265,-0.275
13:50:04.484,-0.255,-0.265
13:50:04.492,-0.245,-0.255
13:50:04.500,-0.235,-0.255
13:50:04.508,-0.225,-0.245
13:50:04.516,-0.215,-0.235
13:50:04.523,-0.205,-0.225
13:50:04.531,-0.195,-0.225
13:50:04.539,-0.185,-0.215
13:50:04.547,-0.175,-0.205
13:50:04.555,-0.165,-0.205
13:50:04.563,-0.145,-0.195
13:50:04.570,-0.125,-0.175
13:50:04.578,0.445,0.265
13:50:04.586,0.545,0.475
13:50:04.594,0.485,0.405
13:50:04.602,0.455,0.365
13:50:04.609,0.445,0.365
13:50:04.617,0.445,0.355
13:50:04.625,0.445,0.345
13:50:04.633,0.445,0.345
13:50:04.641,0.435,0.345
13:50:04.648,0.435,0.335
13:50:04.656,0.435,0.335
13:50:04.664,0.435,0.335
13:50:04.672,0.425,0.335
13:50:04.680,0.425,0.325
13:50:04.688,0.415,0.315
13:50:04.695,0.415,0.315
13:50:04.703,0.405,0.315
13:50:04.711,0.395,0.305
13:50:04.719,0.395,0.295
13:50:04.727,0.395,0.285
13:50:04.734,0.385,0.295
13:50:04.742,0.375,0.275
13:50:04.750,0.375,0.265
13:50:04.758,0.375,0.265
13:50:04.766,0.365,0.265
13:50:04.773,0.355,0.255
13:50:04.781,0.355,0.255
13:50:04.789,0.345,0.245
13:50:04.797,0.335,0.245
13:50:04.805,0.335,0.235
13:50:04.813,0.335,0.235
13:50:04.820,0.325,0.225
13:50:04.828,0.315,0.225
13:50:04.836,0.305,0.215
13:50:04.844,0.305,0.215
13:50:04.852,0.295,0.205
13:50:04.859,0.295,0.205
13:50:04.867,0.285,0.195
13:50:04.875,0.275,0.195
13:50:04.883,0.275,0.185
13:50:04.891,0.265,0.185
13:50:04.898,0.255,0.175
13:50:04.906,0.255,0.165
13:50:04.914,0.245,0.165
13:50:04.922,0.235,0.165
13:50:04.930,0.225,0.155
13:50:04.938,0.225,0.145
13:50:04.945,0.215,0.145
13:50:04.953,0.215,0.145
13:50:04.961,0.205,0.135
13:50:04.969,0.195,0.125
13:50:04.977,0.185,0.115
13:50:04.984,0.185,0.115
13:50:04.992,0.165,0.105
13:50:05.000,0.165,0.105
13:50:05.008,0.155,0.095
13:50:05.016,0.145,0.095
13:50:05.023,0.135,0.075
13:50:05.031,0.125,0.075
13:50:05.039,0.115,0.065
13:50:05.047,0.105,0.065
13:50:05.055,0.095,0.055
13:50:05.063,0.085,0.045
13:50:05.070,0.075,0.035
13:50:05.078,-0.575,-0.465
13:50:05.086,-0.615,-0.615
13:50:05.094,-0.555,-0.545
13:50:05.102,-0.525,-0.515
13:50:05.109,-0.515,-0.505
13:50:05.117,-0.515,-0.495
13:50:05.125,-0.515,-0.495
13:50:05.133,-0.505,-0.495
13:50:05.141,-0.505,-0.485
13:50:05.148,-0.505,-0.485
13:50:05.156,-0.505,-0.485
13:50:05.164,-0.505,-0.475
13:50:05.172,-0.495,-0.475
13:50:05.180,-0.485,-0.465
13:50:05.188,-0.485,-0.465
13:50:05.195,-0.485,-0.465
13:50:05.203,-0.475,-0.455
13:50:05.211,-0.475,-0.445
13:50:05.219,-0.465,-0.445
13:50:05.227,-0.455,-0.445
13:50:05.234,-0.455,-0.435
13:50:05.242,-0.455,-0.425
13:50:05.250,-0.445,-0.425
13:50:05.258,-0.445,-0.415
13:50:05.266,-0.435,-0.405
13:50:05.273,-0.435,-0.405
13:50:05.281,-0.425,-0.395
13:50:05.289,-0.415,-0.395
13:50:05.297,-0.415,-0.385
13:50:05.305,-0.405,-0.385
13:50:05.313,-0.405,-0.385
13:50:05.320,-0.395,-0.375
13:50:05.328,-0.385,-0.365
13:50:05.336,-0.385,-0.365
13:50:05.344,-0.375,-0.365
13:50:05.352,-0.365,-0.355
13:50:05.359,-0.355,-0.345
13:50:05.367,-0.355,-0.345
13:50:05.375,-0.345,-0.335
13:50:05.383,-0.345,-0.335
13:50:05.391,-0.335,-0.325
13:50:05.398,-0.325,-0.325
13:50:05.406,-0.315,-0.315
13:50:05.414,-0.315,-0.315
13:50:05.422,-0.305,-0.305
13:50:05.430,-0.305,-0.305
13:50:05.438,-0.295,-0.305
13:50:05.445,-0.285,-0.295
13:50:05.453,-0.275,-0.285
13:50:05.461,-0.275,-0.275
13:50:05.469,-0.265,-0.275
13:50:05.477,-0.255,-0.265
13:50:05.484,-0.245,-0.255
13:50:05.492,-0.235,-0.255
13:50:05.500,-0.225,-0.255
13:50:05.508,-0.225,-0.245
13:50:05.516,-0.215,-0.235
13:50:05.523,-0.205,-0.235
13:50:05.531,-0.195,-0.225
13:50:05.539,-0.185,-0.215
13:50:05.547,-0.175,-0.205
13:50:05.555,-0.165,-0.205
13:50:05.563,-0.155,-0.195
13:50:05.570,-0.135,-0.185
13:50:05.578,0.415,0.195
13:50:05.586,0.565,0.475
13:50:05.594,0.495,0.405
13:50:05.602,0.465,0.375
13:50:05.609,0.455,0.365
13:50:05.617,0.455,0.355
13:50:05.625,0.455,0.345
13:50:05.633,0.445,0.345
13:50:05.641,0.445,0.345
13:50:05.648,0.435,0.345
13:50:05.656,0.435,0.335
13:50:05.664,0.435,0.325
13:50:05.672,0.435,0.335
13:50:05.680,0.425,0.325
13:50:05.688,0.425,0.315
13:50:05.695,0.415,0.315
13:50:05.703,0.415,0.305
13:50:05.711,0.405,0.305
13:50:05.719,0.395,0.295
13:50:05.727,0.395,0.295
13:50:05.734,0.395,0.285
13:50:05.742,0.385,0.285
13:50:05.750,0.375,0.275
13:50:05.758,0.375,0.265
13:50:05.766,0.365,0.265
13:50:05.773,0.365,0.255
13:50:05.781,0.355,0.245
13:50:05.789,0.345,0.245
13:50:05.797,0.345,0.245
13:50:05.805,0.335,0.235
13:50:05.813,0.335,0.225
13:50:05.820,0.325,0.225
13:50:05.828,0.325,0.225
13:50:05.836,0.315,0.215
13:50:05.844,0.315,0.205
13:50:05.852,0.305,0.195
13:50:05.859,0.295,0.195
13:50:05.867,0.285,0.195
13:50:05.875,0.285,0.185
13:50:05.883,0.285,0.175
13:50:05.891,0.275,0.175
13:50:05.898,0.265,0.175
13:50:05.906,0.255,0.165
13:50:05.914,0.255,0.155
13:50:05.922,0.245,0.155
13:50:05.930,0.235,0.145
13:50:05.938,0.225,0.135
13:50:05.945,0.225,0.135
13:50:05.953,0.215,0.125
13:50:05.961,0.205,0.125
13:50:05.969,0.205,0.105
13:50:05.977,0.195,0.105
13:50:05.984,0.185,0.105
13:50:05.992,0.175,0.095
13:50:06.000,0.165,0.085
13:50:06.008,0.155,0.075
13:50:06.016,0.145,0.075
13:50:06.023,0.135,0.065
13:50:06.031,0.135,0.055
13:50:06.039,0.115,0.055
13:50:06.047,0.105,0.055
13:50:06.055,0.095,0.035
13:50:06.063,0.085,0.025
13:50:06.070,0.065,0.015
13:50:06.078,-0.495,-0.435
13:50:06.086,-0.595,-0.635
13:50:06.094,-0.535,-0.565
13:50:06.102,-0.515,-0.535
13:50:06.109,-0.505,-0.515
13:50:06.117,-0.505,-0.515
13:50:06.125,-0.505,-0.515
13:50:06.133,-0.505,-0.515
13:50:06.141,-0.505,-0.505
13:50:06.148,-0.505,-0.505
13:50:06.156,-0.505,-0.505
13:50:06.164,-0.495,-0.495
13:50:06.172,-0.495,-0.485
13:50:06.180,-0.485,-0.485
13:50:06.188,-0.485,-0.485
13:50:06.195,-0.485,-0.475
13:50:06.203,-0.475,-0.465
13:50:06.211,-0.475,-0.465
13:50:06.219,-0.465,-0.465
13:50:06.227,-0.465,-0.455
13:50:06.234,-0.455,-0.455
13:50:06.242,-0.455,-0.445
13:50:06.250,-0.445,-0.445
13:50:06.258,-0.435,-0.435
13:50:06.266,-0.435,-0.425
13:50:06.273,-0.425,-0.425
13:50:06.281,-0.425,-0.425
13:50:06.289,-0.415,-0.415
13:50:06.297,-0.405,-0.405
13:50:06.305,-0.405,-0.395
13:50:06.313,-0.395,-0.405
13:50:06.320,-0.395,-0.395
13:50:06.328,-0.385,-0.385
13:50:06.336,-0.375,-0.385
13:50:06.344,-0.365,-0.385
13:50:06.352,-0.365,-0.375
13:50:06.359,-0.355,-0.365
13:50:06.367,-0.355,-0.365
13:50:06.375,-0.345,-0.355
13:50:06.383,-0.335,-0.355
13:50:06.391,-0.335,-0.345
13:50:06.398,-0.325,-0.345
13:50:06.406,-0.315,-0.345
13:50:06.414,-0.305,-0.335
13:50:06.422,-0.305,-0.325
13:50:06.430,-0.295,-0.315
13:50:06.438,-0.295,-0.315
13:50:06.445,-0.285,-0.305
13:50:06.453,-0.275,-0.295
13:50:06.461,-0.275,-0.295
13:50:06.469,-0.265,-0.295
13:50:06.477,-0.255,-0.285
13:50:06.484,-0.245,-0.275
13:50:06.492,-0.235,-0.265
13:50:06.500,-0.225,-0.265
13:50:06.508,-0.215,-0.255
13:50:06.516,-0.215,-0.245
13:50:06.523,-0.205,-0.245
13:50:06.531,-0.185,-0.245
13:50:06.539,-0.185,-0.235
13:50:06.547,-0.175,-0.225
13:50:06.555,-0.165,-0.225
13:50:06.563,-0.145,-0.215
13:50:06.570,-0.155,-0.205
13:50:06.578,0.515,0.325
13:50:06.586,0.555,0.455
13:50:06.594,0.495,0.385
13:50:06.602,0.465,0.355
13:50:06.609,0.455,0.345
13:50:06.617,0.455,0.335
13:50:06.625,0.455,0.325
13:50:06.633,0.445,0.325
13:50:06.641,0.445,0.325
13:50:06.648,0.435,0.315
13:50:06.656,0.445,0.315
13:50:06.664,0.435,0.305
13:50:06.672,0.425,0.305
13:50:06.680,0.425,0.305
13:50:06.688,0.425,0.295
13:50:06.695,0.415,0.295
13:50:06.703,0.405,0.285
13:50:06.711,0.405,0.285
13:50:06.719,0.395,0.275
13:50:06.727,0.385,0.265
13:50:06.734,0.385,0.265
13:50:06.742,0.385,0.265
13:50:06.750,0.375,0.255
13:50:06.758,0.375,0.245
13:50:06.766,0.365,0.245
13:50:06.773,0.355,0.235
13:50:06.781,0.355,0.225
13:50:06.789,0.345,0.225
13:50:06.797,0.345,0.225
13:50:06.805,0.335,0.215
13:50:06.813,0.325,0.205
13:50:06.820,0.325,0.205
13:50:06.828,0.315,0.205
13:50:06.836,0.305,0.195
13:50:06.844,0.305,0.185
13:50:06.852,0.295,0.185
13:50:06.859,0.295,0.175
13:50:06.867,0.285,0.175
13:50:06.875,0.275,0.165
13:50:06.883,0.275,0.155
13:50:06.891,0.265,0.155
13:50:06.898,0.255,0.155
13:50:06.906,0.255,0.145
13:50:06.914,0.245,0.135
13:50:06.922,0.235,0.145
13:50:06.930,0.225,0.135
13:50:06.938,0.225,0.125
13:50:06.945,0.215,0.115
13:50:06.953,0.215,0.115
13:50:06.961,0.205,0.105
13:50:06.969,0.195,0.095
13:50:06.977,0.185,0.095
13:50:06.984,0.185,0.095
13:50:06.992,0.165,0.075
13:50:07.000,0.165,0.075
13:50:07.008,0.155,0.065
13:50:07.016,0.145,0.065
13:50:07.023,0.135,0.055
13:50:07.031,0.125,0.045
13:50:07.039,0.115,0.045
13:50:07.047,0.105,0.045
13:50:07.055,0.105,0.025
13:50:07.063,0.075,0.015
13:50:07.070,0.065,0.045
13:50:07.078,-0.625,-0.595
13:50:07.086,-0.605,-0.625
13:50:07.094,-0.545,-0.565
13:50:07.102,-0.525,-0.535
13:50:07.109,-0.525,-0.525
13:50:07.117,-0.515,-0.515
13:50:07.125,-0.515,-0.515
13:50:07.133,-0.515,-0.515
13:50:07.141,-0.515,-0.505
13:50:07.148,-0.505,-0.505
13:50:07.156,-0.505,-0.505
13:50:07.164,-0.505,-0.495
13:50:07.172,-0.495,-0.485
13:50:07.180,-0.495,-0.485
13:50:07.188,-0.485,-0.485
13:50:07.195,-0.485,-0.475
13:50:07.203,-0.475,-0.475
13:50:07.211,-0.475,-0.465
13:50:07.219,-0.465,-0.465
13:50:07.227,-0.465,-0.455
13:50:07.234,-0.455,-0.445
13:50:07.242,-0.455,-0.445
13:50:07.250,-0.445,-0.435
13:50:07.258,-0.445,-0.435
13:50:07.266,-0.435,-0.425
13:50:07.273,-0.425,-0.415
13:50:07.281,-0.425,-0.415
13:50:07.289,-0.415,-0.415
13:50:07.297,-0.415,-0.405
13:50:07.305,-0.405,-0.405
13:50:07.313,-0.395,-0.395
13:50:07.320,-0.395,-0.395
13:50:07.328,-0.385,-0.375
13:50:07.336,-0.385,-0.375
13:50:07.344,-0.375,-0.375
13:50:07.352,-0.365,-0.365
13:50:07.359,-0.365,-0.355
13:50:07.367,-0.355,-0.355
13:50:07.375,-0.345,-0.355
13:50:07.383,-0.345,-0.355
13:50:07.391,-0.335,-0.345
13:50:07.398,-0.335,-0.335
13:50:07.406,-0.325,-0.335
13:50:07.414,-0.315,-0.335
13:50:07.422,-0.305,-0.315
13:50:07.430,-0.305,-0.315
13:50:07.438,-0.295,-0.315
13:50:07.445,-0.285,-0.305
13:50:07.453,-0.275,-0.295
13:50:07.461,-0.275,-0.295
13:50:07.469,-0.265,-0.285
13:50:07.477,-0.255,-0.285
13:50:07.484,-0.245,-0.275
13:50:07.492,-0.245,-0.265
13:50:07.500,-0.225,-0.265
13:50:07.508,-0.215,-0.255
13:50:07.516,-0.215,-0.245
13:50:07.523,-0.205,-0.235
13:50:07.531,-0.195,-0.235
13:50:07.539,-0.185,-0.225
13:50:07.547,-0.175,-0.215
13:50:07.555,-0.165,-0.215
13:50:07.563,-0.155,-0.205
13:50:07.570,-0.135,-0.195
13:50:07.578,0.345,0.055
13:50:07.586,0.575,0.465
13:50:07.594,0.505,0.405
13:50:07.602,0.465,0.355
13:50:07.609,0.455,0.355
13:50:07.617,0.455,0.345
13:50:07.625,0.455,0.335
13:50:07.633,0.455,0.335
13:50:07.641,0.445,0.335
13:50:07.648,0.445,0.325
13:50:07.656,0.445,0.325
13:50:07.664,0.435,0.315
13:50:07.672,0.435,0.325
13:50:07.680,0.435,0.315
13:50:07.688,0.425,0.305
13:50:07.695,0.425,0.305
13:50:07.703,0.415,0.305
13:50:07.711,0.405,0.295
13:50:07.719,0.405,0.285
13:50:07.727,0.405,0.285
13:50:07.734,0.395,0.285
13:50:07.742,0.385,0.275
13:50:07.750,0.385,0.265
13:50:07.758,0.375,0.265
13:50:07.766,0.375,0.255
13:50:07.773,0.365,0.255
13:50:07.781,0.365,0.245
13:50:07.789,0.355,0.245
13:50:07.797,0.355,0.235
13:50:07.805,0.345,0.235
13:50:07.813,0.335,0.225
13:50:07.820,0.335,0.215
13:50:07.828,0.325,0.225
13:50:07.836,0.325,0.215
13:50:07.844,0.325,0.195
13:50:07.852,0.305,0.195
13:50:07.859,0.305,0.195
13:50:07.867,0.295,0.185
13:50:07.875,0.295,0.185
13:50:07.883,0.285,0.175
13:50:07.891,0.275,0.175
13:50:07.898,0.275,0.165
13:50:07.906,0.265,0.155
13:50:07.914,0.255,0.155
13:50:07.922,0.245,0.155
13:50:07.930,0.245,0.155
13:50:07.938,0.235,0.145
13:50:07.945,0.235,0.135
13:50:07.953,0.225,0.135
13:50:07.961,0.215,0.125
13:50:07.969,0.215,0.115
13:50:07.977,0.205,0.115
13:50:07.984,0.195,0.105
13:50:07.992,0.185,0.105
13:50:08.000,0.175,0.095
13:50:08.008,0.175,0.085
13:50:08.016,0.155,0.085
13:50:08.023,0.155,0.075
13:50:08.031,0.145,0.065
13:50:08.039,0.135,0.065
13:50:08.047,0.125,0.065
13:50:08.055,0.115,0.045
13:50:08.063,0.095,0.035
13:50:08.070,0.105,0.025
13:50:08.078,-0.575,-0.495
13:50:08.086,-0.595,-0.615
13:50:08.094,-0.545,-0.555
13:50:08.102,-0.515,-0.525
13:50:08.109,-0.505,-0.505
13:50:08.117,-0.505,-0.505
13:50:08.125,-0.505,-0.505
13:50:08.133,-0.495,-0.495
13:50:08.141,-0.495,-0.495
13:50:08.148,-0.485,-0.485
13:50:08.156,-0.485,-0.485
13:50:08.164,-0.485,-0.485
13:50:08.172,-0.475,-0.475
13:50:08.180,-0.475,-0.475
13:50:08.188,-0.465,-0.475
13:50:08.195,-0.465,-0.465
13:50:08.203,-0.455,-0.455
13:50:08.211,-0.455,-0.455
13:50:08.219,-0.445,-0.445
13:50:08.227,-0.445,-0.445
13:50:08.234,-0.435,-0.435
13:50:08.242,-0.435,-0.425
13:50:08.250,-0.425,-0.425
13:50:08.258,-0.425,-0.425
13:50:08.266,-0.415,-0.405
13:50:08.273,-0.415,-0.405
13:50:08.281,-0.405,-0.405
13:50:08.289,-0.405,-0.395
13:50:08.297,-0.395,-0.385
13:50:08.305,-0.395,-0.385
13:50:08.313,-0.385,-0.385
13:50:08.320,-0.375,-0.375
13:50:08.328,-0.365,-0.365
13:50:08.336,-0.365,-0.365
13:50:08.344,-0.365,-0.365
13:50:08.352,-0.355,-0.355
13:50:08.359,-0.355,-0.345
13:50:08.367,-0.345,-0.345
13:50:08.375,-0.335,-0.345
13:50:08.383,-0.335,-0.335
13:50:08.391,-0.315,-0.325
13:50:08.398,-0.325,-0.325
13:50:08.406,-0.305,-0.325
13:50:08.414,-0.305,-0.315
13:50:08.422,-0.295,-0.305
13:50:08.430,-0.295,-0.305
13:50:08.438,-0.275,-0.295
13:50:08.445,-0.275,-0.295
13:50:08.453,-0.265,-0.285
13:50:08.461,-0.265,-0.275
13:50:08.469,-0.255,-0.275
13:50:08.477,-0.245,-0.265
13:50:08.484,-0.235,-0.255
13:50:08.492,-0.225,-0.255
13:50:08.500,-0.215,-0.245
13:50:08.508,-0.215,-0.235
13:50:08.516,-0.205,-0.225
13:50:08.523,-0.195,-0.225
13:50:08.531,-0.185,-0.215
13:50:08.539,-0.175,-0.215
13:50:08.547,-0.165,-0.195
13:50:08.555,-0.155,-0.195
13:50:08.563,-0.135,-0.185
13:50:08.570,-0.145,-0.175
13:50:08.578,0.525,0.335
13:50:08.586,0.555,0.465
13:50:08.594,0.495,0.395
13:50:08.602,0.465,0.375
13:50:08.609,0.465,0.365
13:50:08.617,0.455,0.355
13:50:08.625,0.455,0.345
13:50:08.633,0.445,0.345
13:50:08.641,0.445,0.345
13:50:08.648,0.445,0.335
13:50:08.656,0.445,0.325
13:50:08.664,0.435,0.325
13:50:08.672,0.435,0.325
13:50:08.680,0.425,0.315
13:50:08.688,0.425,0.315
13:50:08.695,0.415,0.305
13:50:08.703,0.415,0.305
13:50:08.711,0.405,0.305
13:50:08.719,0.405,0.295
13:50:08.727,0.395,0.285
13:50:08.734,0.395,0.285
13:50:08.742,0.385,0.275
13:50:08.750,0.375,0.275
13:50:08.758,0.375,0.265
13:50:08.766,0.375,0.265
13:50:08.773,0.365,0.265
13:50:08.781,0.365,0.255
13:50:08.789,0.355,0.245
13:50:08.797,0.345,0.245
13:50:08.805,0.345,0.245
13:50:08.813,0.335,0.235
13:50:08.820,0.335,0.225
13:50:08.828,0.325,0.225
13:50:08.836,0.315,0.215
13:50:08.844,0.315,0.215
13:50:08.852,0.305,0.205
13:50:08.859,0.295,0.205
13:50:08.867,0.295,0.195
13:50:08.875,0.295,0.185
13:50:08.883,0.285,0.185
13:50:08.891,0.275,0.185
13:50:08.898,0.265,0.175
13:50:08.906,0.265,0.175
13:50:08.914,0.255,0.165
13:50:08.922,0.245,0.165
13:50:08.930,0.235,0.155
13:50:08.938,0.235,0.145
13:50:08.945,0.225,0.145
13:50:08.953,0.225,0.145
13:50:08.961,0.215,0.135
13:50:08.969,0.205,0.125
13:50:08.977,0.195,0.115
13:50:08.984,0.195,0.115
13:50:08.992,0.185,0.115
13:50:09.000,0.175,0.095
13:50:09.008,0.165,0.095
13:50:09.016,0.155,0.095
13:50:09.023,0.145,0.085
13:50:09.031,0.135,0.075
13:50:09.039,0.135,0.065
13:50:09.047,0.125,0.065
13:50:09.055,0.105,0.055
13:50:09.063,0.095,0.045
13:50:09.070,0.085,0.035
13:50:09.078,-0.415,-0.225
13:50:09.086,-0.635,-0.615
13:50:09.094,-0.555,-0.555
13:50:09.102,-0.525,-0.515
13:50:09.109,-0.515,-0.495
13:50:09.117,-0.515,-0.495
13:50:09.125,-0.505,-0.495
13:50:09.133,-0.505,-0.485
13:50:09.141,-0.505,-0.485
13:50:09.148,-0.495,-0.485
13:50:09.156,-0.495,-0.475
13:50:09.164,-0.495,-0.475
13:50:09.172,-0.485,-0.465
13:50:09.180,-0.485,-0.465
13:50:09.188,-0.475,-0.465
13:50:09.195,-0.475,-0.455
13:50:09.203,-0.465,-0.445
13:50:09.211,-0.465,-0.445
13:50:09.219,-0.455,-0.445
13:50:09.227,-0.455,-0.435
13:50:09.234,-0.445,-0.425
13:50:09.242,-0.445,-0.425
13:50:09.250,-0.435,-0.425
13:50:09.258,-0.435,-0.415
13:50:09.266,-0.425,-0.405
13:50:09.273,-0.425,-0.405
13:50:09.281,-0.415,-0.405
13:50:09.289,-0.405,-0.395
13:50:09.297,-0.395,-0.385
13:50:09.305,-0.395,-0.375
13:50:09.313,-0.385,-0.375
13:50:09.320,-0.385,-0.375
13:50:09.328,-0.375,-0.365
13:50:09.336,-0.375,-0.355
13:50:09.344,-0.365,-0.355
13:50:09.352,-0.355,-0.355
13:50:09.359,-0.355,-0.345
13:50:09.367,-0.345,-0.335
13:50:09.375,-0.335,-0.335
13:50:09.383,-0.325,-0.325
13:50:09.391,-0.325,-0.315
13:50:09.398,-0.315,-0.315
13:50:09.406,-0.315,-0.315
13:50:09.414,-0.315,-0.305
13:50:09.422,-0.295,-0.305
13:50:09.430,-0.295,-0.295
13:50:09.438,-0.285,-0.295
13:50:09.445,-0.275,-0.295
13:50:09.453,-0.275,-0.285
13:50:09.461,-0.265,-0.275
13:50:09.469,-0.255,-0.275
13:50:09.477,-0.255,-0.265
13:50:09.484,-0.245,-0.255
13:50:09.492,-0.235,-0.255
13:50:09.500,-0.225,-0.245
13:50:09.508,-0.215,-0.245
13:50:09.516,-0.205,-0.235
13:50:09.523,-0.195,-0.225
13:50:09.531,-0.185,-0.225
13:50:09.539,-0.175,-0.215
13:50:09.547,-0.175,-0.205
13:50:09.555,-0.155,-0.195
13:50:09.563,-0.145,-0.195
13:50:09.570,-0.125,-0.185
13:50:09.578,0.225,-0.045
13:50:09.586,0.585,0.485
13:50:09.594,0.515,0.425
13:50:09.602,0.475,0.385
13:50:09.609,0.465,0.365
13:50:09.617,0.455,0.355
13:50:09.625,0.455,0.355
13:50:09.633,0.455,0.345
13:50:09.641,0.455,0.345
13:50:09.648,0.445,0.345
13:50:09.656,0.445,0.335
13:50:09.664,0.445,0.335
13:50:09.672,0.435,0.335
13:50:09.680,0.425,0.315
13:50:09.688,0.415,0.315
13:50:09.695,0.415,0.305
13:50:09.703,0.415,0.305
13:50:09.711,0.405,0.295
13:50:09.719,0.395,0.295
13:50:09.727,0.395,0.285
13:50:09.734,0.385,0.285
13:50:09.742,0.385,0.275
13:50:09.750,0.375,0.265
13:50:09.758,0.375,0.255
13:50:09.766,0.375,0.255
13:50:09.773,0.365,0.255
13:50:09.781,0.355,0.245
13:50:09.789,0.355,0.235
13:50:09.797,0.345,0.235
13:50:09.805,0.335,0.225
13:50:09.813,0.335,0.225
13:50:09.820,0.325,0.215
13:50:09.828,0.325,0.215
13:50:09.836,0.315,0.205
13:50:09.844,0.305,0.205
13:50:09.852,0.305,0.195
13:50:09.859,0.295,0.195
13:50:09.867,0.295,0.185
13:50:09.875,0.285,0.175
13:50:09.883,0.275,0.175
13:50:09.891,0.275,0.175
13:50:09.898,0.265,0.165
13:50:09.906,0.255,0.155
13:50:09.914,0.255,0.155
13:50:09.922,0.245,0.155
13:50:09.930,0.235,0.145
13:50:09.938,0.225,0.135
13:50:09.945,0.225,0.135
13:50:09.953,0.215,0.125
13:50:09.961,0.205,0.115
13:50:09.969,0.205,0.105
13:50:09.977,0.195,0.105
13:50:09.984,0.185,0.095
13:50:09.992,0.175,0.085
13:50:10.000,0.165,0.085
13:50:10.008,0.155,0.075
13:50:10.016,0.145,0.075
13:50:10.023,0.135,0.065
13:50:10.031,0.135,0.055
13:50:10.039,0.125,0.045
13:50:10.047,0.115,0.045
13:50:10.055,0.095,0.035
13:50:10.063,0.085,0.025
13:50:10.070,0.105,0.045
13:50:10.078,-0.605,-0.565
13:50:10.086,-0.605,-0.625
13:50:10.094,-0.545,-0.565
13:50:10.102,-0.525,-0.535
13:50:10.109,-0.515,-0.525
13:50:10.117,-0.515,-0.515
13:50:10.125,-0.505,-0.515
13:50:10.133,-0.505,-0.515
13:50:10.141,-0.505,-0.505
13:50:10.148,-0.495,-0.505
13:50:10.156,-0.485,-0.495
13:50:10.164,-0.485,-0.495
13:50:10.172,-0.485,-0.485
13:50:10.180,-0.475,-0.485
13:50:10.188,-0.475,-0.485
13:50:10.195,-0.465,-0.475
13:50:10.203,-0.465,-0.465
13:50:10.211,-0.455,-0.465
13:50:10.219,-0.455,-0.465
13:50:10.227,-0.445,-0.455
13:50:10.234,-0.445,-0.445
13:50:10.242,-0.435,-0.445
13:50:10.250,-0.435,-0.435
13:50:10.258,-0.425,-0.435
13:50:10.266,-0.415,-0.425
13:50:10.273,-0.415,-0.425
13:50:10.281,-0.405,-0.415
13:50:10.289,-0.405,-0.415
13:50:10.297,-0.395,-0.405
13:50:10.305,-0.385,-0.405
13:50:10.313,-0.385,-0.395
13:50:10.320,-0.375,-0.385
13:50:10.328,-0.375,-0.385
13:50:10.336,-0.365,-0.375
13:50:10.344,-0.365,-0.375
13:50:10.352,-0.355,-0.375
13:50:10.359,-0.345,-0.355
13:50:10.367,-0.345,-0.355
13:50:10.375,-0.335,-0.355
13:50:10.383,-0.325,-0.345
13:50:10.391,-0.325,-0.335
13:50:10.398,-0.315,-0.335
13:50:10.406,-0.305,-0.335
13:50:10.414,-0.305,-0.335
13:50:10.422,-0.295,-0.325
13:50:10.430,-0.295,-0.315
13:50:10.438,-0.285,-0.315
13:50:10.445,-0.275,-0.315
13:50:10.453,-0.275,-0.295
13:50:10.461,-0.265,-0.305
13:50:10.469,-0.255,-0.295
13:50:10.477,-0.245,-0.285
13:50:10.484,-0.235,-0.275
13:50:10.492,-0.235,-0.275
13:50:10.500,-0.225,-0.265
13:50:10.508,-0.215,-0.265
13:50:10.516,-0.205,-0.255
13:50:10.523,-0.195,-0.245
13:50:10.531,-0.195,-0.245
13:50:10.539,-0.185,-0.235
13:50:10.547,-0.175,-0.225
13:50:10.555,-0.155,-0.225
13:50:10.563,-0.145,-0.215
13:50:10.570,-0.125,-0.205
13:50:10.578,0.385,0.155
13:50:10.586,0.565,0.465
13:50:10.594,0.505,0.395
13:50:10.602,0.465,0.355
13:50:10.609,0.455,0.345
13:50:10.617,0.455,0.335
13:50:10.625,0.445,0.335
13:50:10.633,0.455,0.325
13:50:10.641,0.455,0.335
13:50:10.648,0.445,0.325
13:50:10.656,0.445,0.315
13:50:10.664,0.435,0.315
13:50:10.672,0.435,0.315
13:50:10.680,0.425,0.305
13:50:10.688,0.425,0.295
13:50:10.695,0.415,0.295
13:50:10.703,0.415,0.295
13:50:10.711,0.405,0.285
13:50:10.719,0.405,0.275
13:50:10.727,0.395,0.275
13:50:10.734,0.395,0.275
13:50:10.742,0.385,0.265
13:50:10.750,0.375,0.255
13:50:10.758,0.375,0.245
13:50:10.766,0.365,0.245
13:50:10.773,0.365,0.235
13:50:10.781,0.355,0.235
13:50:10.789,0.345,0.225
13:50:10.797,0.345,0.225
13:50:10.805,0.335,0.215
13:50:10.813,0.335,0.205
13:50:10.820,0.325,0.205
13:50:10.828,0.315,0.205
13:50:10.836,0.315,0.195
13:50:10.844,0.305,0.185
13:50:10.852,0.295,0.185
13:50:10.859,0.295,0.185
13:50:10.867,0.285,0.175
13:50:10.875,0.285,0.165
13:50:10.883,0.275,0.165
13:50:10.891,0.265,0.165
13:50:10.898,0.255,0.155
13:50:10.906,0.255,0.145
13:50:10.914,0.245,0.145
13:50:10.922,0.245,0.145
13:50:10.930,0.235,0.135
13:50:10.938,0.225,0.125
13:50:10.945,0.215,0.125
13:50:10.953,0.215,0.115
13:50:10.961,0.205,0.115
13:50:10.969,0.195,0.105
13:50:10.977,0.185,0.095
13:50:10.984,0.185,0.095
13:50:10.992,0.175,0.085
13:50:11.000,0.165,0.075
13:50:11.008,0.155,0.075
13:50:11.016,0.155,0.075
13:50:11.023,0.145,0.065
13:50:11.031,0.135,0.055
13:50:11.039,0.125,0.055
13:50:11.047,0.115,0.045
13:50:11.055,0.105,0.035
13:50:11.063,0.085,0.025
13:50:11.070,0.085,0.015
13:50:11.078,-0.575,-0.485
13:50:11.086,-0.615,-0.625
13:50:11.094,-0.545,-0.565
13:50:11.102,-0.525,-0.535
13:50:11.109,-0.515,-0.515
13:50:11.117,-0.515,-0.515
13:50:11.125,-0.505,-0.505
13:50:11.133,-0.505,-0.505
13:50:11.141,-0.505,-0.495
13:50:11.148,-0.505,-0.495
13:50:11.156,-0.495,-0.495
13:50:11.164,-0.495,-0.495
13:50:11.172,-0.495,-0.485
13:50:11.180,-0.485,-0.475
13:50:11.188,-0.475,-0.475
13:50:11.195,-0.475,-0.475
13:50:11.203,-0.475,-0.455
13:50:11.211,-0.465,-0.455
13:50:11.219,-0.465,-0.455
13:50:11.227,-0.455,-0.455
13:50:11.234,-0.445,-0.445
13:50:11.242,-0.445,-0.435
13:50:11.250,-0.435,-0.435
13:50:11.258,-0.435,-0.425
13:50:11.266,-0.425,-0.425
13:50:11.273,-0.425,-0.415
13:50:11.281,-0.415,-0.415
13:50:11.289,-0.415,-0.415
13:50:11.297,-0.405,-0.395
13:50:11.305,-0.395,-0.395
13:50:11.313,-0.395,-0.395
13:50:11.320,-0.385,-0.385
13:50:11.328,-0.385,-0.375
13:50:11.336,-0.375,-0.375
13:50:11.344,-0.375,-0.375
13:50:11.352,-0.365,-0.365
13:50:11.359,-0.355,-0.355
13:50:11.367,-0.355,-0.355
13:50:11.375,-0.345,-0.355
13:50:11.383,-0.335,-0.355
13:50:11.391,-0.335,-0.335
13:50:11.398,-0.325,-0.335
13:50:11.406,-0.325,-0.335
13:50:11.414,-0.315,-0.335
13:50:11.422,-0.305,-0.325
13:50:11.430,-0.305,-0.315
13:50:11.438,-0.295,-0.315
13:50:11.445,-0.285,-0.305
13:50:11.453,-0.285,-0.295
13:50:11.461,-0.275,-0.295
13:50:11.469,-0.275,-0.295
13:50:11.477,-0.265,-0.285
13:50:11.484,-0.255,-0.275
13:50:11.492,-0.245,-0.265
13:50:11.500,-0.235,-0.265
13:50:11.508,-0.225,-0.255
13:50:11.516,-0.215,-0.245
13:50:11.523,-0.215,-0.245
13:50:11.531,-0.205,-0.245
13:50:11.539,-0.195,-0.235
13:50:11.547,-0.185,-0.225
13:50:11.555,-0.175,-0.215
13:50:11.563,-0.155,-0.205
13:50:11.570,-0.165,-0.195
13:50:11.578,0.505,0.325
13:50:11.586,0.545,0.455
13:50:11.594,0.485,0.385
13:50:11.602,0.455,0.355
13:50:11.609,0.445,0.345
13:50:11.617,0.445,0.345
13:50:11.625,0.435,0.335
13:50:11.633,0.435,0.335
13:50:11.641,0.435,0.335
13:50:11.648,0.435,0.325
13:50:11.656,0.425,0.315
13:50:11.664,0.425,0.315
13:50:11.672,0.425,0.315
13:50:11.680,0.415,0.305
13:50:11.688,0.415,0.295
13:50:11.695,0.405,0.295
13:50:11.703,0.395,0.295
13:50:11.711,0.385,0.285
13:50:11.719,0.385,0.275
13:50:11.727,0.385,0.275
13:50:11.734,0.375,0.275
13:50:11.742,0.375,0.265
13:50:11.750,0.365,0.255
13:50:11.758,0.355,0.255
13:50:11.766,0.355,0.245
13:50:11.773,0.345,0.245
13:50:11.781,0.345,0.235
13:50:11.789,0.335,0.235
13:50:11.797,0.335,0.225
13:50:11.805,0.325,0.225
13:50:11.813,0.325,0.215
13:50:11.820,0.315,0.215
13:50:11.828,0.305,0.205
13:50:11.836,0.305,0.205
13:50:11.844,0.295,0.195
13:50:11.852,0.295,0.185
13:50:11.859,0.285,0.195
13:50:11.867,0.275,0.185
13:50:11.875,0.275,0.175
13:50:11.883,0.265,0.175
13:50:11.891,0.265,0.165
13:50:11.898,0.255,0.165
13:50:11.906,0.245,0.155
13:50:11.914,0.245,0.155
13:50:11.922,0.235,0.155
13:50:11.930,0.235,0.145
13:50:11.938,0.225,0.135
13:50:11.945,0.215,0.135
13:50:11.953,0.215,0.125
13:50:11.961,0.205,0.125
13:50:11.969,0.195,0.115
13:50:11.977,0.185,0.105
13:50:11.984,0.185,0.105
13:50:11.992,0.175,0.105
13:50:12.000,0.165,0.095
13:50:12.008,0.165,0.085
13:50:12.016,0.145,0.085
13:50:12.023,0.145,0.075
13:50:12.031,0.135,0.065
13:50:12.039,0.125,0.065
13:50:12.047,0.115,0.055
13:50:12.055,0.105,0.055
13:50:12.063,0.095,0.045
13:50:12.070,0.075,0.025
13:50:12.078,-0.105,0.025
13:50:12.086,-0.645,-0.625
13:50:12.094,-0.585,-0.595
13:50:12.102,-0.535,-0.545
13:50:12.109,-0.515,-0.515
13:50:12.117,-0.515,-0.515
13:50:12.125,-0.515,-0.515
13:50:12.133,-0.515,-0.505
13:50:12.141,-0.515,-0.505
13:50:12.148,-0.505,-0.495
13:50:12.156,-0.505,-0.495
13:50:12.164,-0.505,-0.495
13:50:12.172,-0.495,-0.485
13:50:12.180,-0.495,-0.485
13:50:12.188,-0.495,-0.475
13:50:12.195,-0.485,-0.475
13:50:12.203,-0.475,-0.465
13:50:12.211,-0.475,-0.455
13:50:12.219,-0.465,-0.455
13:50:12.227,-0.455,-0.455
13:50:12.234,-0.445,-0.445
13:50:12.242,-0.445,-0.435
13:50:12.250,-0.435,-0.435
13:50:12.258,-0.425,-0.425
13:50:12.266,-0.425,-0.425
13:50:12.273,-0.415,-0.415
13:50:12.281,-0.415,-0.415
13:50:12.289,-0.405,-0.405
13:50:12.297,-0.395,-0.395
13:50:12.305,-0.395,-0.395
13:50:12.313,-0.385,-0.395
13:50:12.320,-0.375,-0.385
13:50:12.328,-0.375,-0.375
13:50:12.336,-0.365,-0.375
13:50:12.344,-0.355,-0.375
13:50:12.352,-0.355,-0.365
13:50:12.359,-0.345,-0.355
13:50:12.367,-0.345,-0.355
13:50:12.375,-0.335,-0.355
13:50:12.383,-0.335,-0.345
13:50:12.391,-0.335,-0.335
13:50:12.398,-0.325,-0.335
13:50:12.406,-0.315,-0.335
13:50:12.414,-0.315,-0.325
13:50:12.422,-0.305,-0.315
13:50:12.430,-0.305,-0.315
13:50:12.438,-0.295,-0.315
13:50:12.445,-0.285,-0.305
13:50:12.453,-0.285,-0.295
13:50:12.461,-0.285,-0.295
13:50:12.469,-0.275,-0.285
13:50:12.477,-0.265,-0.285
13:50:12.484,-0.255,-0.265
13:50:12.492,-0.255,-0.265
13:50:12.500,-0.245,-0.265
13:50:12.508,-0.235,-0.255
13:50:12.516,-0.235,-0.245
13:50:12.523,-0.225,-0.235
13:50:12.531,-0.215,-0.235
13:50:12.539,-0.205,-0.225
13:50:12.547,-0.195,-0.215
13:50:12.555,-0.185,-0.215
13:50:12.563,-0.165,-0.195
13:50:12.570,-0.125,-0.225
13:50:12.578,0.545,0.415
13:50:12.586,0.515,0.445
13:50:12.594,0.465,0.385
13:50:12.602,0.435,0.355
13:50:12.609,0.435,0.345
13:50:12.617,0.435,0.345
13:50:12.625,0.435,0.335
13:50:12.633,0.425,0.335
13:50:12.641,0.425,0.335
13:50:12.648,0.425,0.325
13:50:12.656,0.425,0.325
13:50:12.664,0.415,0.315
13:50:12.672,0.415,0.315
13:50:12.680,0.405,0.315
13:50:12.688,0.405,0.305
13:50:12.695,0.395,0.305
13:50:12.703,0.395,0.305
13:50:12.711,0.385,0.295
13:50:12.719,0.385,0.285
13:50:12.727,0.375,0.285
13:50:12.734,0.375,0.285
13:50:12.742,0.365,0.275
13:50:12.750,0.365,0.265
13:50:12.758,0.355,0.255
13:50:12.766,0.355,0.255
13:50:12.773,0.345,0.245
13:50:12.781,0.345,0.235
13:50:12.789,0.335,0.235
13:50:12.797,0.335,0.235
13:50:12.805,0.325,0.225
13:50:12.813,0.315,0.225
13:50:12.820,0.315,0.215
13:50:12.828,0.315,0.215
13:50:12.836,0.305,0.205
13:50:12.844,0.295,0.205
13:50:12.852,0.295,0.195
13:50:12.859,0.285,0.195
13:50:12.867,0.285,0.185
13:50:12.875,0.275,0.175
13:50:12.883,0.265,0.175
13:50:12.891,0.265,0.175
13:50:12.898,0.255,0.165
13:50:12.906,0.255,0.165
13:50:12.914,0.245,0.155
13:50:12.922,0.235,0.155
13:50:12.930,0.225,0.145
13:50:12.938,0.225,0.145
13:50:12.945,0.215,0.135
13:50:12.953,0.215,0.135
13:50:12.961,0.205,0.125
13:50:12.969,0.195,0.125
13:50:12.977,0.195,0.115
13:50:12.984,0.185,0.115
13:50:12.992,0.175,0.105
13:50:13.000,0.165,0.095
13:50:13.008,0.165,0.085
13:50:13.016,0.155,0.085
13:50:13.023,0.145,0.075
13:50:13.031,0.135,0.065
13:50:13.039,0.125,0.065
13:50:13.047,0.115,0.065
13:50:13.055,0.105,0.055
13:50:13.063,0.095,0.045
13:50:13.070,0.075,0.025
13:50:13.078,-0.235,-0.055
13:50:13.086,-0.625,-0.595
13:50:13.094,-0.565,-0.555
13:50:13.102,-0.525,-0.515
13:50:13.109,-0.505,-0.495
13:50:13.117,-0.505,-0.485
13:50:13.125,-0.505,-0.485
13:50:13.133,-0.505,-0.485
13:50:13.141,-0.495,-0.475
13:50:13.148,-0.495,-0.475
13:50:13.156,-0.495,-0.475
13:50:13.164,-0.495,-0.475
13:50:13.172,-0.485,-0.465
13:50:13.180,-0.495,-0.465
13:50:13.188,-0.485,-0.465
13:50:13.195,-0.475,-0.455
13:50:13.203,-0.465,-0.445
13:50:13.211,-0.465,-0.445
13:50:13.219,-0.465,-0.445
13:50:13.227,-0.455,-0.435
13:50:13.234,-0.455,-0.435
13:50:13.242,-0.445,-0.425
13:50:13.250,-0.445,-0.425
13:50:13.258,-0.435,-0.415
13:50:13.266,-0.435,-0.405
13:50:13.273,-0.425,-0.405
13:50:13.281,-0.425,-0.405
13:50:13.289,-0.415,-0.395
13:50:13.297,-0.415,-0.385
13:50:13.305,-0.405,-0.385
13:50:13.313,-0.395,-0.385
13:50:13.320,-0.395,-0.375
13:50:13.328,-0.385,-0.365
13:50:13.336,-0.385,-0.365
13:50:13.344,-0.375,-0.365
13:50:13.352,-0.365,-0.365
13:50:13.359,-0.365,-0.345
13:50:13.367,-0.355,-0.345
13:50:13.375,-0.345,-0.345
13:50:13.383,-0.345,-0.335
13:50:13.391,-0.335,-0.325
13:50:13.398,-0.325,-0.325
13:50:13.406,-0.315,-0.325
13:50:13.414,-0.315,-0.325
13:50:13.422,-0.315,-0.315
13:50:13.430,-0.305,-0.315
13:50:13.438,-0.295,-0.315
13:50:13.445,-0.285,-0.295
13:50:13.453,-0.285,-0.295
13:50:13.461,-0.275,-0.285
13:50:13.469,-0.265,-0.285
13:50:13.477,-0.255,-0.285
13:50:13.484,-0.255,-0.275
13:50:13.492,-0.245,-0.265
13:50:13.500,-0.235,-0.265
13:50:13.508,-0.225,-0.255
13:50:13.516,-0.215,-0.245
13:50:13.523,-0.215,-0.245
13:50:13.531,-0.195,-0.235
13:50:13.539,-0.185,-0.225
13:50:13.547,-0.185,-0.215
13:50:13.555,-0.175,-0.215
13:50:13.563,-0.155,-0.205
13:50:13.570,-0.155,-0.195
13:50:13.578,0.495,0.325
13:50:13.586,0.545,0.445
13:50:13.594,0.485,0.375
13:50:13.602,0.455,0.355
13:50:13.609,0.455,0.345
13:50:13.617,0.445,0.335
13:50:13.625,0.445,0.335
13:50:13.633,0.445,0.325
13:50:13.641,0.445,0.325
13:50:13.648,0.435,0.325
13:50:13.656,0.435,0.315
13:50:13.664,0.425,0.315
13:50:13.672,0.425,0.315
13:50:13.680,0.415,0.305
13:50:13.688,0.415,0.295
13:50:13.695,0.415,0.295
13:50:13.703,0.405,0.295
13:50:13.711,0.405,0.285
13:50:13.719,0.395,0.275
13:50:13.727,0.385,0.275
13:50:13.734,0.385,0.265
13:50:13.742,0.375,0.265
13:50:13.750,0.375,0.255
13:50:13.758,0.365,0.245
13:50:13.766,0.365,0.255
13:50:13.773,0.355,0.245
13:50:13.781,0.355,0.235
13:50:13.789,0.345,0.225
13:50:13.797,0.335,0.225
13:50:13.805,0.335,0.215
13:50:13.813,0.325,0.215
13:50:13.820,0.315,0.205
13:50:13.828,0.315,0.205
13:50:13.836,0.305,0.195
13:50:13.844,0.305,0.185
13:50:13.852,0.295,0.185
13:50:13.859,0.285,0.185
13:50:13.867,0.285,0.175
13:50:13.875,0.275,0.165
13:50:13.883,0.275,0.165
13:50:13.891,0.265,0.165
13:50:13.898,0.255,0.155
13:50:13.906,0.245,0.145
13:50:13.914,0.245,0.145
13:50:13.922,0.235,0.145
13:50:13.930,0.225,0.135
13:50:13.938,0.225,0.125
13:50:13.945,0.215,0.115
13:50:13.953,0.215,0.115
13:50:13.961,0.205,0.105
13:50:13.969,0.195,0.095
13:50:13.977,0.185,0.095
13:50:13.984,0.185,0.095
13:50:13.992,0.175,0.085
13:50:14.000,0.165,0.075
13:50:14.008,0.155,0.065
13:50:14.016,0.145,0.075
13:50:14.023,0.135,0.055
13:50:14.031,0.135,0.055
13:50:14.039,0.125,0.045
13:50:14.047,0.115,0.045
13:50:14.055,0.095,0.025
13:50:14.063,0.085,0.015
13:50:14.070,0.065,0.005
13:50:14.078,-0.515,-0.415
13:50:14.086,-0.635,-0.645
13:50:14.094,-0.565,-0.575
13:50:14.102,-0.535,-0.545
13:50:14.109,-0.525,-0.525
13:50:14.117,-0.525,-0.525
13:50:14.125,-0.515,-0.525
13:50:14.133,-0.515,-0.525
13:50:14.141,-0.515,-0.515
13:50:14.148,-0.505,-0.505
13:50:14.156,-0.505,-0.505
13:50:14.164,-0.505,-0.505
13:50:14.172,-0.495,-0.495
13:50:14.180,-0.495,-0.495
13:50:14.188,-0.485,-0.495
13:50:14.195,-0.485,-0.485
13:50:14.203,-0.475,-0.475
13:50:14.211,-0.475,-0.475
13:50:14.219,-0.465,-0.465
13:50:14.227,-0.465,-0.465
13:50:14.234,-0.455,-0.455
13:50:14.242,-0.455,-0.455
13:50:14.250,-0.445,-0.455
13:50:14.258,-0.445,-0.445
13:50:14.266,-0.435,-0.435
13:50:14.273,-0.425,-0.435
13:50:14.281,-0.425,-0.425
13:50:14.289,-0.415,-0.425
13:50:14.297,-0.415,-0.415
13:50:14.305,-0.405,-0.415
13:50:14.313,-0.395,-0.405
13:50:14.320,-0.395,-0.405
13:50:14.328,-0.395,-0.395
13:50:14.336,-0.385,-0.385
13:50:14.344,-0.375,-0.385
13:50:14.352,-0.365,-0.385
13:50:14.359,-0.365,-0.375
13:50:14.367,-0.355,-0.365
13:50:14.375,-0.355,-0.365
13:50:14.383,-0.345,-0.365
13:50:14.391,-0.335,-0.355
13:50:14.398,-0.335,-0.345
13:50:14.406,-0.325,-0.345
13:50:14.414,-0.315,-0.345
13:50:14.422,-0.305,-0.335
13:50:14.430,-0.305,-0.325
13:50:14.438,-0.295,-0.325
13:50:14.445,-0.295,-0.325
13:50:14.453,-0.285,-0.315
13:50:14.461,-0.275,-0.305
13:50:14.469,-0.275,-0.305
13:50:14.477,-0.265,-0.295
13:50:14.484,-0.255,-0.285
13:50:14.492,-0.255,-0.285
13:50:14.500,-0.245,-0.285
13:50:14.508,-0.235,-0.265
13:50:14.516,-0.225,-0.265
13:50:14.523,-0.215,-0.255
13:50:14.531,-0.205,-0.245
13:50:14.539,-0.195,-0.245
13:50:14.547,-0.185,-0.235
13:50:14.555,-0.175,-0.225
13:50:14.563,-0.155,-0.225
13:50:14.570,-0.145,-0.205
13:50:14.578,0.325,0.105
13:50:14.586,0.565,0.455
13:50:14.594,0.495,0.385
13:50:14.602,0.465,0.345
13:50:14.609,0.445,0.335
13:50:14.617,0.445,0.325
13:50:14.625,0.435,0.325
13:50:14.633,0.435,0.315
13:50:14.641,0.435,0.315
13:50:14.648,0.435,0.315
13:50:14.656,0.435,0.305
13:50:14.664,0.425,0.305
13:50:14.672,0.425,0.305
13:50:14.680,0.415,0.305
13:50:14.688,0.415,0.295
13:50:14.695,0.415,0.285
13:50:14.703,0.405,0.285
13:50:14.711,0.395,0.275
13:50:14.719,0.395,0.265
13:50:14.727,0.385,0.265
13:50:14.734,0.385,0.265
13:50:14.742,0.375,0.255
13:50:14.750,0.365,0.245
13:50:14.758,0.365,0.245
13:50:14.766,0.355,0.245
13:50:14.773,0.355,0.235
13:50:14.781,0.345,0.225
13:50:14.789,0.345,0.225
13:50:14.797,0.335,0.225
13:50:14.805,0.325,0.215
13:50:14.813,0.325,0.205
13:50:14.820,0.315,0.195
13:50:14.828,0.315,0.205
13:50:14.836,0.305,0.195
13:50:14.844,0.305,0.185
13:50:14.852,0.295,0.185
13:50:14.859,0.285,0.185
13:50:14.867,0.285,0.175
13:50:14.875,0.275,0.165
13:50:14.883,0.275,0.165
13:50:14.891,0.265,0.165
13:50:14.898,0.255,0.155
13:50:14.906,0.255,0.145
13:50:14.914,0.245,0.145
13:50:14.922,0.235,0.145
13:50:14.930,0.235,0.135
13:50:14.938,0.225,0.125
13:50:14.945,0.215,0.115
13:50:14.953,0.215,0.115
13:50:14.961,0.205,0.105
13:50:14.969,0.195,0.095
13:50:14.977,0.185,0.095
13:50:14.984,0.185,0.095
13:50:14.992,0.175,0.085
13:50:15.000,0.165,0.075
13:50:15.008,0.155,0.065
13:50:15.016,0.145,0.075
13:50:15.023,0.135,0.065
13:50:15.031,0.135,0.055
13:50:15.039,0.115,0.045
13:50:15.047,0.115,0.045
13:50:15.055,0.095,0.035
13:50:15.063,0.085,0.025
13:50:15.070,0.075,0.015
13:50:15.078,-0.105,-0.025
13:50:15.086,-0.635,-0.635
13:50:15.094,-0.585,-0.595
13:50:15.102,-0.535,-0.555
13:50:15.109,-0.515,-0.525
13:50:15.117,-0.525,-0.525
13:50:15.125,-0.515,-0.525
13:50:15.133,-0.515,-0.515
13:50:15.141,-0.505,-0.515
13:50:15.148,-0.505,-0.505
13:50:15.156,-0.505,-0.505
13:50:15.164,-0.495,-0.505
13:50:15.172,-0.495,-0.495
13:50:15.180,-0.495,-0.495
13:50:15.188,-0.495,-0.495
13:50:15.195,-0.485,-0.485
13:50:15.203,-0.475,-0.475
13:50:15.211,-0.475,-0.465
13:50:15.219,-0.465,-0.465
13:50:15.227,-0.455,-0.465
13:50:15.234,-0.455,-0.455
13:50:15.242,-0.445,-0.445
13:50:15.250,-0.445,-0.445
13:50:15.258,-0.435,-0.435
13:50:15.266,-0.425,-0.425
13:50:15.273,-0.425,-0.425
13:50:15.281,-0.415,-0.415
13:50:15.289,-0.415,-0.415
13:50:15.297,-0.405,-0.405
13:50:15.305,-0.395,-0.395
13:50:15.313,-0.395,-0.405
13:50:15.320,-0.385,-0.395
13:50:15.328,-0.375,-0.385
13:50:15.336,-0.375,-0.385
13:50:15.344,-0.365,-0.375
13:50:15.352,-0.365,-0.375
13:50:15.359,-0.355,-0.365
13:50:15.367,-0.345,-0.355
13:50:15.375,-0.345,-0.355
13:50:15.383,-0.335,-0.355
13:50:15.391,-0.335,-0.345
13:50:15.398,-0.325,-0.335
13:50:15.406,-0.325,-0.335
13:50:15.414,-0.315,-0.325
13:50:15.422,-0.305,-0.315
13:50:15.430,-0.295,-0.315
13:50:15.438,-0.295,-0.315
13:50:15.445,-0.285,-0.305
13:50:15.453,-0.285,-0.295
13:50:15.461,-0.275,-0.295
13:50:15.469,-0.265,-0.285
13:50:15.477,-0.255,-0.275
13:50:15.484,-0.245,-0.265
13:50:15.492,-0.245,-0.265
13:50:15.500,-0.225,-0.255
13:50:15.508,-0.225,-0.255
13:50:15.516,-0.215,-0.245
13:50:15.523,-0.205,-0.235
13:50:15.531,-0.195,-0.235
13:50:15.539,-0.185,-0.225
13:50:15.547,-0.175,-0.215
13:50:15.555,-0.165,-0.205
13:50:15.563,-0.145,-0.195
13:50:15.570,-0.145,-0.185
13:50:15.578,0.495,0.325
13:50:15.586,0.555,0.455
13:50:15.594,0.495,0.385
13:50:15.602,0.465,0.355
13:50:15.609,0.455,0.345
13:50:15.617,0.445,0.345
13:50:15.625,0.455,0.335
13:50:15.633,0.445,0.335
13:50:15.641,0.445,0.335
13:50:15.648,0.435,0.325
13:50:15.656,0.435,0.325
13:50:15.664,0.435,0.315
13:50:15.672,0.425,0.315
13:50:15.680,0.425,0.315
13:50:15.688,0.415,0.305
13:50:15.695,0.415,0.305
13:50:15.703,0.415,0.305
13:50:15.711,0.405,0.295
13:50:15.719,0.395,0.285
13:50:15.727,0.395,0.275
13:50:15.734,0.385,0.275
13:50:15.742,0.385,0.265
13:50:15.750,0.375,0.265
13:50:15.758,0.375,0.255
13:50:15.766,0.365,0.255
13:50:15.773,0.355,0.245
13:50:15.781,0.355,0.245
13:50:15.789,0.355,0.235
13:50:15.797,0.345,0.235
13:50:15.805,0.335,0.225
13:50:15.813,0.335,0.225
13:50:15.820,0.325,0.215
13:50:15.828,0.325,0.215
13:50:15.836,0.315,0.205
13:50:15.844,0.305,0.205
13:50:15.852,0.305,0.195
13:50:15.859,0.295,0.195
13:50:15.867,0.285,0.195
13:50:15.875,0.285,0.185
13:50:15.883,0.275,0.175
13:50:15.891,0.275,0.175
13:50:15.898,0.265,0.175
13:50:15.906,0.265,0.165
13:50:15.914,0.245,0.155
13:50:15.922,0.245,0.165
13:50:15.930,0.235,0.145
13:50:15.938,0.235,0.145
13:50:15.945,0.225,0.135
13:50:15.953,0.215,0.135
13:50:15.961,0.205,0.125
13:50:15.969,0.205,0.115
13:50:15.977,0.195,0.115
13:50:15.984,0.195,0.115
13:50:15.992,0.185,0.105
13:50:16.000,0.175,0.095
13:50:16.008,0.165,0.095
13:50:16.016,0.155,0.085
13:50:16.023,0.145,0.085
13:50:16.031,0.135,0.065
13:50:16.039,0.135,0.065
13:50:16.047,0.125,0.065
13:50:16.055,0.105,0.055
13:50:16.063,0.095,0.045
13:50:16.070,0.075,0.035
13:50:16.078,-0.275,-0.155
13:50:16.086,-0.635,-0.625
13:50:16.094,-0.565,-0.565
13:50:16.102,-0.525,-0.525
13:50:16.109,-0.515,-0.505
13:50:16.117,-0.505,-0.505
13:50:16.125,-0.505,-0.495
13:50:16.133,-0.505,-0.495
13:50:16.141,-0.505,-0.485
13:50:16.148,-0.505,-0.485
13:50:16.156,-0.495,-0.485
13:50:16.164,-0.495,-0.485
13:50:16.172,-0.495,-0.475
13:50:16.180,-0.485,-0.465
13:50:16.188,-0.475,-0.465
13:50:16.195,-0.475,-0.465
13:50:16.203,-0.475,-0.455
13:50:16.211,-0.465,-0.445
13:50:16.219,-0.455,-0.445
13:50:16.227,-0.455,-0.435
13:50:16.234,-0.445,-0.425
13:50:16.242,-0.445,-0.425
13:50:16.250,-0.435,-0.425
13:50:16.258,-0.435,-0.415
13:50:16.266,-0.425,-0.405
13:50:16.273,-0.415,-0.405
13:50:16.281,-0.415,-0.405
13:50:16.289,-0.415,-0.395
13:50:16.297,-0.405,-0.385
13:50:16.305,-0.405,-0.385
13:50:16.313,-0.395,-0.385
13:50:16.320,-0.385,-0.375
13:50:16.328,-0.385,-0.365
13:50:16.336,-0.375,-0.355
13:50:16.344,-0.365,-0.365
13:50:16.352,-0.365,-0.355
13:50:16.359,-0.355,-0.345
13:50:16.367,-0.355,-0.335
13:50:16.375,-0.345,-0.335
13:50:16.383,-0.335,-0.335
13:50:16.391,-0.325,-0.325
13:50:16.398,-0.325,-0.315
13:50:16.406,-0.315,-0.315
13:50:16.414,-0.305,-0.315
13:50:16.422,-0.295,-0.295
13:50:16.430,-0.295,-0.295
13:50:16.438,-0.285,-0.295
13:50:16.445,-0.285,-0.285
13:50:16.453,-0.275,-0.275
13:50:16.461,-0.265,-0.275
13:50:16.469,-0.255,-0.275
13:50:16.477,-0.255,-0.265
13:50:16.484,-0.245,-0.255
13:50:16.492,-0.235,-0.255
13:50:16.500,-0.225,-0.245
13:50:16.508,-0.215,-0.245
13:50:16.516,-0.215,-0.225
13:50:16.523,-0.205,-0.225
13:50:16.531,-0.195,-0.215
13:50:16.539,-0.185,-0.215
13:50:16.547,-0.175,-0.205
13:50:16.555,-0.165,-0.195
13:50:16.563,-0.145,-0.185
13:50:16.570,-0.135,-0.175
13:50:16.578,0.435,0.285
13:50:16.586,0.565,0.475
13:50:16.594,0.495,0.405
13:50:16.602,0.465,0.375
13:50:16.609,0.455,0.365
13:50:16.617,0.455,0.355
13:50:16.625,0.445,0.345
13:50:16.633,0.445,0.345
13:50:16.641,0.445,0.345
13:50:16.648,0.445,0.345
13:50:16.656,0.435,0.335
13:50:16.664,0.435,0.335
13:50:16.672,0.435,0.335
13:50:16.680,0.425,0.325
13:50:16.688,0.425,0.315
13:50:16.695,0.415,0.315
13:50:16.703,0.415,0.315
13:50:16.711,0.405,0.305
13:50:16.719,0.405,0.295
13:50:16.727,0.395,0.295
13:50:16.734,0.395,0.295
13:50:16.742,0.385,0.285
13:50:16.750,0.385,0.275
13:50:16.758,0.375,0.275
13:50:16.766,0.375,0.275
13:50:16.773,0.365,0.265
13:50:16.781,0.365,0.255
13:50:16.789,0.355,0.255
13:50:16.797,0.345,0.245
13:50:16.805,0.345,0.245
13:50:16.813,0.335,0.235
13:50:16.820,0.335,0.225
13:50:16.828,0.325,0.225
13:50:16.836,0.325,0.225
13:50:16.844,0.315,0.215
13:50:16.852,0.305,0.205
13:50:16.859,0.305,0.205
13:50:16.867,0.295,0.205
13:50:16.875,0.285,0.195
13:50:16.883,0.275,0.185
13:50:16.891,0.275,0.185
13:50:16.898,0.265,0.175
13:50:16.906,0.265,0.175
13:50:16.914,0.255,0.165
13:50:16.922,0.245,0.165
13:50:16.930,0.245,0.155
13:50:16.938,0.235,0.155
13:50:16.945,0.235,0.145
13:50:16.953,0.225,0.145
13:50:16.961,0.215,0.135
13:50:16.969,0.205,0.125
13:50:16.977,0.205,0.115
13:50:16.984,0.195,0.115
13:50:16.992,0.185,0.105
13:50:17.000,0.175,0.095
13:50:17.008,0.165,0.095
13:50:17.016,0.165,0.085
13:50:17.023,0.145,0.085
13:50:17.031,0.145,0.075
13:50:17.039,0.135,0.065
13:50:17.047,0.125,0.065
13:50:17.055,0.105,0.055
13:50:17.063,0.095,0.045
13:50:17.070,0.085,0.025
13:50:17.078,-0.415,-0.305
13:50:17.086,-0.625,-0.625
13:50:17.094,-0.555,-0.565
13:50:17.102,-0.525,-0.525
13:50:17.109,-0.515,-0.505
13:50:17.117,-0.515,-0.505
13:50:17.125,-0.505,-0.505
13:50:17.133,-0.505,-0.495
13:50:17.141,-0.505,-0.485
13:50:17.148,-0.495,-0.485
13:50:17.156,-0.495,-0.485
13:50:17.164,-0.495,-0.485
13:50:17.172,-0.495,-0.475
13:50:17.180,-0.485,-0.475
13:50:17.188,-0.475,-0.465
13:50:17.195,-0.475,-0.465
13:50:17.203,-0.465,-0.455
13:50:17.211,-0.465,-0.455
13:50:17.219,-0.465,-0.455
13:50:17.227,-0.455,-0.445
13:50:17.234,-0.455,-0.435
13:50:17.242,-0.445,-0.435
13:50:17.250,-0.445,-0.425
13:50:17.258,-0.435,-0.425
13:50:17.266,-0.425,-0.415
13:50:17.273,-0.425,-0.415
13:50:17.281,-0.415,-0.415
13:50:17.289,-0.415,-0.405
13:50:17.297,-0.405,-0.395
13:50:17.305,-0.395,-0.385
13:50:17.313,-0.395,-0.385
13:50:17.320,-0.385,-0.385
13:50:17.328,-0.385,-0.375
13:50:17.336,-0.385,-0.375
13:50:17.344,-0.365,-0.365
13:50:17.352,-0.365,-0.365
13:50:17.359,-0.355,-0.355
13:50:17.367,-0.355,-0.345
13:50:17.375,-0.345,-0.345
13:50:17.383,-0.335,-0.345
13:50:17.391,-0.335,-0.335
13:50:17.398,-0.325,-0.325
13:50:17.406,-0.325,-0.325
13:50:17.414,-0.315,-0.325
13:50:17.422,-0.305,-0.315
13:50:17.430,-0.295,-0.315
13:50:17.438,-0.295,-0.305
13:50:17.445,-0.285,-0.305
13:50:17.453,-0.285,-0.295
13:50:17.461,-0.275,-0.285
13:50:17.469,-0.265,-0.285
13:50:17.477,-0.255,-0.275
13:50:17.484,-0.255,-0.265
13:50:17.492,-0.245,-0.265
13:50:17.500,-0.235,-0.265
13:50:17.508,-0.225,-0.255
13:50:17.516,-0.215,-0.245
13:50:17.523,-0.215,-0.245
13:50:17.531,-0.195,-0.235
13:50:17.539,-0.185,-0.225
13:50:17.547,-0.175,-0.215
13:50:17.555,-0.165,-0.215
13:50:17.563,-0.155,-0.205
13:50:17.570,-0.135,-0.185
13:50:17.578,0.415,0.225
13:50:17.586,0.555,0.455
13:50:17.594,0.495,0.385
13:50:17.602,0.455,0.355
13:50:17.609,0.455,0.345
13:50:17.617,0.445,0.335
13:50:17.625,0.445,0.335
13:50:17.633,0.435,0.335
13:50:17.641,0.445,0.335
13:50:17.648,0.435,0.325
13:50:17.656,0.435,0.315
13:50:17.664,0.435,0.315
13:50:17.672,0.425,0.315
13:50:17.680,0.425,0.305
13:50:17.688,0.415,0.295
13:50:17.695,0.415,0.295
13:50:17.703,0.415,0.295
13:50:17.711,0.405,0.285
13:50:17.719,0.405,0.285
13:50:17.727,0.395,0.275
13:50:17.734,0.395,0.275
13:50:17.742,0.385,0.265
13:50:17.750,0.385,0.265
13:50:17.758,0.375,0.255
13:50:17.766,0.365,0.255
13:50:17.773,0.365,0.245
13:50:17.781,0.355,0.235
13:50:17.789,0.345,0.235
13:50:17.797,0.345,0.235
13:50:17.805,0.335,0.225
13:50:17.813,0.335,0.215
13:50:17.820,0.325,0.215
13:50:17.828,0.325,0.215
13:50:17.836,0.315,0.205
13:50:17.844,0.315,0.195
13:50:17.852,0.305,0.195
13:50:17.859,0.295,0.195
13:50:17.867,0.295,0.185
13:50:17.875,0.285,0.175
13:50:17.883,0.285,0.175
13:50:17.891,0.275,0.175
13:50:17.898,0.265,0.165
13:50:17.906,0.265,0.155
13:50:17.914,0.255,0.145
13:50:17.922,0.245,0.145
13:50:17.930,0.245,0.135
13:50:17.938,0.235,0.135
13:50:17.945,0.225,0.125
13:50:17.953,0.225,0.125
13:50:17.961,0.215,0.115
13:50:17.969,0.205,0.105
13:50:17.977,0.205,0.105
13:50:17.984,0.195,0.105
13:50:17.992,0.185,0.095
13:50:18.000,0.175,0.085
13:50:18.008,0.165,0.075
13:50:18.016,0.165,0.075
13:50:18.023,0.145,0.065
13:50:18.031,0.145,0.055
13:50:18.039,0.135,0.055
13:50:18.047,0.125,0.055
13:50:18.055,0.115,0.045
13:50:18.063,0.105,0.025
13:50:18.070,0.085,0.015
13:50:18.078,-0.435,-0.345
13:50:18.086,-0.615,-0.625
13:50:18.094,-0.545,-0.565
13:50:18.102,-0.515,-0.525
13:50:18.109,-0.505,-0.505
13:50:18.117,-0.505,-0.505
13:50:18.125,-0.495,-0.505
13:50:18.133,-0.495,-0.505
13:50:18.141,-0.485,-0.495
13:50:18.148,-0.485,-0.495
13:50:18.156,-0.485,-0.485
13:50:18.164,-0.485,-0.485
13:50:18.172,-0.475,-0.475
13:50:18.180,-0.475,-0.475
13:50:18.188,-0.475,-0.475
13:50:18.195,-0.465,-0.475
13:50:18.203,-0.455,-0.465
13:50:18.211,-0.455,-0.455
13:50:18.219,-0.445,-0.455
13:50:18.227,-0.445,-0.455
13:50:18.234,-0.445,-0.445
13:50:18.242,-0.435,-0.435
13:50:18.250,-0.425,-0.435
13:50:18.258,-0.425,-0.425
13:50:18.266,-0.415,-0.425
13:50:18.273,-0.415,-0.415
13:50:18.281,-0.405,-0.415
13:50:18.289,-0.405,-0.405
13:50:18.297,-0.395,-0.395
13:50:18.305,-0.385,-0.395
13:50:18.313,-0.385,-0.395
13:50:18.320,-0.375,-0.385
13:50:18.328,-0.375,-0.375
13:50:18.336,-0.365,-0.375
13:50:18.344,-0.365,-0.365
13:50:18.352,-0.355,-0.365
13:50:18.359,-0.345,-0.355
13:50:18.367,-0.345,-0.355
13:50:18.375,-0.335,-0.345
13:50:18.383,-0.325,-0.345
13:50:18.391,-0.325,-0.335
13:50:18.398,-0.315,-0.335
13:50:18.406,-0.315,-0.335
13:50:18.414,-0.305,-0.325
13:50:18.422,-0.295,-0.315
13:50:18.430,-0.295,-0.315
13:50:18.438,-0.285,-0.315
13:50:18.445,-0.275,-0.305
13:50:18.453,-0.275,-0.295
13:50:18.461,-0.265,-0.295
13:50:18.469,-0.255,-0.295
13:50:18.477,-0.255,-0.285
13:50:18.484,-0.245,-0.265
13:50:18.492,-0.235,-0.265
13:50:18.500,-0.225,-0.265
13:50:18.508,-0.225,-0.255
13:50:18.516,-0.215,-0.245
13:50:18.523,-0.205,-0.245
13:50:18.531,-0.195,-0.235
13:50:18.539,-0.185,-0.235
13:50:18.547,-0.175,-0.215
13:50:18.555,-0.155,-0.215
13:50:18.563,-0.145,-0.205
13:50:18.570,-0.135,-0.195
13:50:18.578,0.375,0.155
13:50:18.586,0.575,0.455
13:50:18.594,0.505,0.385
13:50:18.602,0.465,0.355
13:50:18.609,0.455,0.345
13:50:18.617,0.455,0.335
13:50:18.625,0.445,0.325
13:50:18.633,0.445,0.325
13:50:18.641,0.445,0.325
13:50:18.648,0.435,0.325
13:50:18.656,0.435,0.315
13:50:18.664,0.435,0.315
13:50:18.672,0.425,0.305
13:50:18.680,0.425,0.305
13:50:18.688,0.415,0.295
13:50:18.695,0.415,0.295
13:50:18.703,0.405,0.295
13:50:18.711,0.405,0.285
13:50:18.719,0.395,0.275
13:50:18.727,0.385,0.275
13:50:18.734,0.385,0.275
13:50:18.742,0.375,0.265
13:50:18.750,0.375,0.255
13:50:18.758,0.375,0.255
13:50:18.766,0.365,0.255
13:50:18.773,0.365,0.245
13:50:18.781,0.355,0.235
13:50:18.789,0.345,0.225
13:50:18.797,0.345,0.225
13:50:18.805,0.335,0.225
13:50:18.813,0.335,0.215
13:50:18.820,0.325,0.205
13:50:18.828,0.315,0.205
13:50:18.836,0.315,0.195
13:50:18.844,0.305,0.195
13:50:18.852,0.305,0.195
13:50:18.859,0.295,0.185
13:50:18.867,0.295,0.185
13:50:18.875,0.285,0.175
13:50:18.883,0.275,0.165
13:50:18.891,0.275,0.165
13:50:18.898,0.265,0.165
13:50:18.906,0.255,0.155
13:50:18.914,0.245,0.145
13:50:18.922,0.245,0.155
13:50:18.930,0.235,0.135
13:50:18.938,0.235,0.135
13:50:18.945,0.225,0.135
13:50:18.953,0.225,0.125
13:50:18.961,0.215,0.115
13:50:18.969,0.205,0.105
13:50:18.977,0.195,0.105
13:50:18.984,0.185,0.105
13:50:18.992,0.175,0.095
13:50:19.000,0.175,0.085
13:50:19.008,0.165,0.075
13:50:19.016,0.155,0.075
13:50:19.023,0.145,0.065
13:50:19.031,0.135,0.065
13:50:19.039,0.125,0.055
13:50:19.047,0.125,0.055
13:50:19.055,0.105,0.045
13:50:19.063,0.095,0.035
13:50:19.070,0.085,0.015
13:50:19.078,0.005,0.025
13:50:19.086,-0.635,-0.625
13:50:19.094,-0.585,-0.595
13:50:19.102,-0.535,-0.555
13:50:19.109,-0.515,-0.525
13:50:19.117,-0.515,-0.515
13:50:19.125,-0.515,-0.515
13:50:19.133,-0.505,-0.515
13:50:19.141,-0.505,-0.505
13:50:19.148,-0.505,-0.505
13:50:19.156,-0.495,-0.505
13:50:19.164,-0.495,-0.495
13:50:19.172,-0.495,-0.495
13:50:19.180,-0.495,-0.485
13:50:19.188,-0.485,-0.485
13:50:19.195,-0.475,-0.485
13:50:19.203,-0.475,-0.475
13:50:19.211,-0.475,-0.465
13:50:19.219,-0.475,-0.465
13:50:19.227,-0.465,-0.455
13:50:19.234,-0.455,-0.455
13:50:19.242,-0.455,-0.445
13:50:19.250,-0.445,-0.445
13:50:19.258,-0.445,-0.435
13:50:19.266,-0.435,-0.425
13:50:19.273,-0.435,-0.425
13:50:19.281,-0.425,-0.415
13:50:19.289,-0.415,-0.415
13:50:19.297,-0.405,-0.405
13:50:19.305,-0.405,-0.405
13:50:19.313,-0.395,-0.395
13:50:19.320,-0.385,-0.395
13:50:19.328,-0.385,-0.385
13:50:19.336,-0.385,-0.375
13:50:19.344,-0.375,-0.375
13:50:19.352,-0.365,-0.375
13:50:19.359,-0.355,-0.355
13:50:19.367,-0.355,-0.355
13:50:19.375,-0.345,-0.355
13:50:19.383,-0.335,-0.345
13:50:19.391,-0.335,-0.335
13:50:19.398,-0.325,-0.335
13:50:19.406,-0.315,-0.335
13:50:19.414,-0.315,-0.325
13:50:19.422,-0.305,-0.315
13:50:19.430,-0.295,-0.315
13:50:19.438,-0.285,-0.315
13:50:19.445,-0.285,-0.305
13:50:19.453,-0.275,-0.295
13:50:19.461,-0.275,-0.295
13:50:19.469,-0.265,-0.285
13:50:19.477,-0.255,-0.275
13:50:19.484,-0.255,-0.265
13:50:19.492,-0.245,-0.265
13:50:19.500,-0.225,-0.265
13:50:19.508,-0.225,-0.255
13:50:19.516,-0.215,-0.245
13:50:19.523,-0.205,-0.245
13:50:19.531,-0.195,-0.235
13:50:19.539,-0.185,-0.225
13:50:19.547,-0.175,-0.215
13:50:19.555,-0.165,-0.215
13:50:19.563,-0.155,-0.205
13:50:19.570,-0.155,-0.205
13:50:19.578,0.485,0.355
13:50:19.586,0.545,0.445
13:50:19.594,0.485,0.385
13:50:19.602,0.455,0.345
13:50:19.609,0.445,0.345
13:50:19.617,0.435,0.335
13:50:19.625,0.435,0.335
13:50:19.633,0.435,0.325
13:50:19.641,0.435,0.325
13:50:19.648,0.435,0.325
13:50:19.656,0.425,0.315
13:50:19.664,0.425,0.315
13:50:19.672,0.415,0.315
13:50:19.680,0.415,0.305
13:50:19.688,0.405,0.295
13:50:19.695,0.405,0.295
13:50:19.703,0.395,0.295
13:50:19.711,0.395,0.285
13:50:19.719,0.385,0.275
13:50:19.727,0.385,0.275
13:50:19.734,0.375,0.275
13:50:19.742,0.375,0.265
13:50:19.750,0.365,0.255
13:50:19.758,0.365,0.255
13:50:19.766,0.355,0.255
13:50:19.773,0.345,0.245
13:50:19.781,0.345,0.235
13:50:19.789,0.345,0.235
13:50:19.797,0.335,0.235
13:50:19.805,0.325,0.225
13:50:19.813,0.325,0.215
13:50:19.820,0.315,0.215
13:50:19.828,0.315,0.205
13:50:19.836,0.305,0.205
13:50:19.844,0.295,0.195
13:50:19.852,0.295,0.185
13:50:19.859,0.285,0.185
13:50:19.867,0.285,0.185
13:50:19.875,0.275,0.175
13:50:19.883,0.265,0.165
13:50:19.891,0.265,0.165
13:50:19.898,0.255,0.165
13:50:19.906,0.255,0.155
13:50:19.914,0.245,0.145
13:50:19.922,0.235,0.145
13:50:19.930,0.225,0.145
13:50:19.938,0.225,0.135
13:50:19.945,0.215,0.125
13:50:19.953,0.215,0.125
13:50:19.961,0.205,0.115
13:50:19.969,0.195,0.105
13:50:19.977,0.195,0.105
13:50:19.984,0.185,0.105
13:50:19.992,0.175,0.095
13:50:20.000,0.165,0.085
13:50:20.008,0.155,0.075
13:50:20.016,0.145,0.075
13:50:20.023,0.135,0.065
13:50:20.031,0.135,0.065
13:50:20.039,0.125,0.055
13:50:20.047,0.115,0.055
13:50:20.055,0.095,0.035
13:50:20.063,0.095,0.035
13:50:20.070,0.075,0.015
13:50:20.078,-0.335,-0.245
13:50:20.086,-0.625,-0.625
13:50:20.094,-0.565,-0.575
13:50:20.102,-0.525,-0.535
13:50:20.109,-0.515,-0.515
13:50:20.117,-0.505,-0.505
13:50:20.125,-0.505,-0.505
13:50:20.133,-0.505,-0.505
13:50:20.141,-0.495,-0.495
13:50:20.148,-0.505,-0.495
13:50:20.156,-0.495,-0.495
13:50:20.164,-0.495,-0.495
13:50:20.172,-0.485,-0.485
13:50:20.180,-0.485,-0.485
13:50:20.188,-0.485,-0.485
13:50:20.195,-0.475,-0.475
13:50:20.203,-0.475,-0.465
13:50:20.211,-0.465,-0.465
13:50:20.219,-0.465,-0.465
13:50:20.227,-0.455,-0.455
13:50:20.234,-0.455,-0.445
13:50:20.242,-0.445,-0.435
13:50:20.250,-0.435,-0.435
13:50:20.258,-0.435,-0.435
13:50:20.266,-0.435,-0.425
13:50:20.273,-0.425,-0.415
13:50:20.281,-0.415,-0.415
13:50:20.289,-0.415,-0.405
13:50:20.297,-0.405,-0.405
13:50:20.305,-0.395,-0.395
13:50:20.313,-0.395,-0.395
13:50:20.320,-0.385,-0.385
13:50:20.328,-0.375,-0.375
13:50:20.336,-0.375,-0.375
13:50:20.344,-0.365,-0.375
13:50:20.352,-0.365,-0.365
13:50:20.359,-0.355,-0.355
13:50:20.367,-0.355,-0.345
13:50:20.375,-0.345,-0.345
13:50:20.383,-0.335,-0.345
13:50:20.391,-0.325,-0.335
13:50:20.398,-0.325,-0.325
13:50:20.406,-0.325,-0.325
13:50:20.414,-0.315,-0.325
13:50:20.422,-0.305,-0.315
13:50:20.430,-0.305,-0.315
13:50:20.438,-0.295,-0.305
13:50:20.445,-0.295,-0.305
13:50:20.453,-0.285,-0.295
13:50:20.461,-0.275,-0.285
13:50:20.469,-0.265,-0.285
13:50:20.477,-0.265,-0.275
13:50:20.484,-0.255,-0.265
13:50:20.492,-0.245,-0.255
13:50:20.500,-0.245,-0.255
13:50:20.508,-0.235,-0.255
13:50:20.516,-0.225,-0.235
13:50:20.523,-0.215,-0.235
13:50:20.531,-0.205,-0.235
13:50:20.539,-0.195,-0.225
13:50:20.547,-0.185,-0.215
13:50:20.555,-0.175,-0.205
13:50:20.563,-0.155,-0.205
13:50:20.570,-0.145,-0.185
13:50:20.578,0.375,0.195
13:50:20.586,0.555,0.455
13:50:20.594,0.495,0.385
13:50:20.602,0.455,0.355
13:50:20.609,0.445,0.345
13:50:20.617,0.435,0.335
13:50:20.625,0.435,0.335
13:50:20.633,0.435,0.335
13:50:20.641,0.435,0.335
13:50:20.648,0.425,0.325
13:50:20.656,0.435,0.315
13:50:20.664,0.425,0.315
13:50:20.672,0.425,0.315
13:50:20.680,0.415,0.315
13:50:20.688,0.415,0.305
13:50:20.695,0.415,0.295
13:50:20.703,0.405,0.305
13:50:20.711,0.405,0.295
13:50:20.719,0.395,0.285
13:50:20.727,0.395,0.285
13:50:20.734,0.385,0.285
13:50:20.742,0.375,0.275
13:50:20.750,0.375,0.265
13:50:20.758,0.375,0.255
13:50:20.766,0.365,0.265
13:50:20.773,0.365,0.255
13:50:20.781,0.355,0.245
13:50:20.789,0.355,0.235
13:50:20.797,0.345,0.235
13:50:20.805,0.335,0.225
13:50:20.813,0.335,0.225
13:50:20.820,0.325,0.215
13:50:20.828,0.315,0.215
13:50:20.836,0.305,0.205
13:50:20.844,0.305,0.195
13:50:20.852,0.305,0.195
13:50:20.859,0.295,0.195
13:50:20.867,0.285,0.185
13:50:20.875,0.285,0.175
13:50:20.883,0.275,0.175
13:50:20.891,0.265,0.175
13:50:20.898,0.265,0.165
13:50:20.906,0.255,0.155
13:50:20.914,0.245,0.155
13:50:20.922,0.245,0.155
13:50:20.930,0.235,0.145
13:50:20.938,0.235,0.135
13:50:20.945,0.225,0.135
13:50:20.953,0.215,0.135
13:50:20.961,0.205,0.125
13:50:20.969,0.205,0.115
13:50:20.977,0.195,0.105
13:50:20.984,0.185,0.105
13:50:20.992,0.175,0.095
13:50:21.000,0.175,0.085
13:50:21.008,0.165,0.085
13:50:21.016,0.155,0.075
13:50:21.023,0.145,0.075
13:50:21.031,0.135,0.065
13:50:21.039,0.125,0.055
13:50:21.047,0.115,0.055
13:50:21.055,0.105,0.045
13:50:21.063,0.085,0.025
13:50:21.070,0.115,0.045
13:50:21.078,-0.585,-0.545
13:50:21.086,-0.605,-0.615
13:50:21.094,-0.535,-0.555
13:50:21.102,-0.515,-0.525
13:50:21.109,-0.515,-0.515
13:50:21.117,-0.505,-0.505
13:50:21.125,-0.505,-0.505
13:50:21.133,-0.505,-0.505
13:50:21.141,-0.505,-0.495
13:50:21.148,-0.505,-0.495
13:50:21.156,-0.495,-0.495
13:50:21.164,-0.495,-0.495
13:50:21.172,-0.495,-0.485
13:50:21.180,-0.495,-0.485
13:50:21.188,-0.485,-0.485
13:50:21.195,-0.485,-0.475
13:50:21.203,-0.475,-0.465
13:50:21.211,-0.475,-0.465
13:50:21.219,-0.465,-0.465
13:50:21.227,-0.465,-0.455
13:50:21.234,-0.455,-0.445
13:50:21.242,-0.455,-0.445
13:50:21.250,-0.445,-0.445
13:50:21.258,-0.435,-0.435
13:50:21.266,-0.435,-0.425
13:50:21.273,-0.425,-0.425
13:50:21.281,-0.425,-0.415
13:50:21.289,-0.415,-0.415
13:50:21.297,-0.405,-0.405
13:50:21.305,-0.405,-0.405
13:50:21.313,-0.405,-0.405
13:50:21.320,-0.395,-0.395
13:50:21.328,-0.385,-0.385
13:50:21.336,-0.385,-0.385
13:50:21.344,-0.375,-0.375
13:50:21.352,-0.365,-0.375
13:50:21.359,-0.365,-0.365
13:50:21.367,-0.355,-0.355
13:50:21.375,-0.355,-0.355
13:50:21.383,-0.345,-0.355
13:50:21.391,-0.335,-0.345
13:50:21.398,-0.335,-0.345
13:50:21.406,-0.335,-0.335
13:50:21.414,-0.325,-0.335
13:50:21.422,-0.315,-0.325
13:50:21.430,-0.305,-0.325
13:50:21.438,-0.305,-0.315
13:50:21.445,-0.295,-0.315
13:50:21.453,-0.285,-0.305
13:50:21.461,-0.285,-0.305
13:50:21.469,-0.275,-0.295
13:50:21.477,-0.265,-0.295
13:50:21.484,-0.255,-0.285
13:50:21.492,-0.255,-0.275
13:50:21.500,-0.245,-0.265
13:50:21.508,-0.235,-0.265
13:50:21.516,-0.225,-0.255
13:50:21.523,-0.215,-0.245
13:50:21.531,-0.205,-0.245
13:50:21.539,-0.205,-0.245
13:50:21.547,-0.185,-0.235
13:50:21.555,-0.175,-0.225
13:50:21.563,-0.165,-0.215
13:50:21.570,-0.145,-0.215
13:50:21.578,-0.165,-0.235
13:50:21.586,0.565,0.435
13:50:21.594,0.525,0.425
13:50:21.602,0.465,0.365
13:50:21.609,0.455,0.345
13:50:21.617,0.445,0.335
13:50:21.625,0.435,0.335
13:50:21.633,0.435,0.325
13:50:21.641,0.445,0.325
13:50:21.648,0.435,0.325
13:50:21.656,0.435,0.315
13:50:21.664,0.435,0.315
13:50:21.672,0.435,0.305
13:50:21.680,0.425,0.305
13:50:21.688,0.415,0.295
13:50:21.695,0.415,0.295
13:50:21.703,0.415,0.295
13:50:21.711,0.405,0.285
13:50:21.719,0.405,0.275
13:50:21.727,0.395,0.275
13:50:21.734,0.395,0.275
13:50:21.742,0.385,0.265
13:50:21.750,0.375,0.255
13:50:21.758,0.375,0.245
13:50:21.766,0.365,0.245
13:50:21.773,0.365,0.245
13:50:21.781,0.355,0.235
13:50:21.789,0.355,0.225
13:50:21.797,0.345,0.225
13:50:21.805,0.335,0.215
13:50:21.813,0.335,0.205
13:50:21.820,0.325,0.205
13:50:21.828,0.315,0.205
13:50:21.836,0.315,0.195
13:50:21.844,0.305,0.185
13:50:21.852,0.305,0.175
13:50:21.859,0.295,0.175
13:50:21.867,0.285,0.175
13:50:21.875,0.285,0.165
13:50:21.883,0.275,0.155
13:50:21.891,0.265,0.165
13:50:21.898,0.265,0.155
13:50:21.906,0.255,0.145
13:50:21.914,0.245,0.145
13:50:21.922,0.245,0.135
13:50:21.930,0.235,0.135
13:50:21.938,0.225,0.125
13:50:21.945,0.215,0.125
13:50:21.953,0.215,0.125
13:50:21.961,0.215,0.115
13:50:21.969,0.205,0.095
13:50:21.977,0.195,0.095
13:50:21.984,0.185,0.095
13:50:21.992,0.175,0.085
13:50:22.000,0.175,0.075
13:50:22.008,0.165,0.065
13:50:22.016,0.155,0.065
13:50:22.023,0.145,0.055
13:50:22.031,0.135,0.045
13:50:22.039,0.125,0.045
13:50:22.047,0.115,0.045
13:50:22.055,0.105,0.025
13:50:22.063,0.095,0.015
13:50:22.070,0.075,0.005
13:50:22.078,-0.505,-0.435
13:50:22.086,-0.625,-0.645
13:50:22.094,-0.555,-0.575
13:50:22.102,-0.525,-0.535
13:50:22.109,-0.515,-0.525
13:50:22.117,-0.515,-0.525
13:50:22.125,-0.505,-0.525
13:50:22.133,-0.505,-0.515
13:50:22.141,-0.505,-0.515
13:50:22.148,-0.505,-0.505
13:50:22.156,-0.505,-0.505
13:50:22.164,-0.495,-0.505
13:50:22.172,-0.495,-0.495
13:50:22.180,-0.485,-0.495
13:50:22.188,-0.485,-0.485
13:50:22.195,-0.485,-0.485
13:50:22.203,-0.475,-0.475
13:50:22.211,-0.475,-0.465
13:50:22.219,-0.465,-0.465
13:50:22.227,-0.465,-0.465
13:50:22.234,-0.455,-0.455
13:50:22.242,-0.455,-0.46
13:50:22.250,-0.445,-0.45
13:50:22.258,-0.445,-0.45
13:50:22.266,-0.435,-0.44
13:50:22.273,-0.425,-0.44
13:50:22.281,-0.415,-0.43
13:50:22.289,-0.415,-0.43
13:50:22.297,-0.415,-0.42
13:50:22.305,-0.405,-0.42
13:50:22.313,-0.395,-0.41
13:50:22.320,-0.395,-0.41
13:50:22.328,-0.385,-0.4
13:50:22.336,-0.385,-0.39
13:50:22.344,-0.375,-0.39
13:50:22.352,-0.365,-0.39
13:50:22.359,-0.365,-0.38
13:50:22.367,-0.355,-0.37
13:50:22.375,-0.345,-0.37
13:50:22.383,-0.345,-0.36
13:50:22.391,-0.335,-0.35
13:50:22.398,-0.325,-0.345
13:50:22.406,-0.325,-0.345
13:50:22.414,-0.315,-0.335
13:50:22.422,-0.315,-0.325
13:50:22.430,-0.305,-0.325
13:50:22.438,-0.295,-0.325
13:50:22.445,-0.295,-0.315
13:50:22.453,-0.285,-0.305
13:50:22.461,-0.275,-0.305
13:50:22.469,-0.265,-0.295
13:50:22.477,-0.265,-0.285
13:50:22.484,-0.255,-0.275
13:50:22.492,-0.245,-0.275
13:50:22.500,-0.235,-0.265
13:50:22.508,-0.225,-0.265
13:50:22.516,-0.215,-0.255
13:50:22.523,-0.215,-0.245
13:50:22.531,-0.205,-0.245
13:50:22.539,-0.195,-0.235
13:50:22.547,-0.185,-0.225
13:50:22.555,-0.175,-0.215
13:50:22.563,-0.155,-0.205
13:50:22.570,-0.145,-0.195
13:50:22.578,0.425,0.235
13:50:22.586,0.555,0.445
13:50:22.594,0.485,0.385
13:50:22.602,0.455,0.355
13:50:22.609,0.445,0.345
13:50:22.617,0.445,0.335
13:50:22.625,0.445,0.325
13:50:22.633,0.435,0.325
13:50:22.641,0.435,0.325
13:50:22.648,0.435,0.325
13:50:22.656,0.435,0.315
13:50:22.664,0.425,0.315
13:50:22.672,0.425,0.315
13:50:22.680,0.425,0.305
13:50:22.688,0.415,0.305
13:50:22.695,0.415,0.295
13:50:22.703,0.405,0.295
13:50:22.711,0.405,0.285
13:50:22.719,0.395,0.275
13:50:22.727,0.395,0.275
13:50:22.734,0.385,0.275
13:50:22.742,0.385,0.275
13:50:22.750,0.375,0.265
13:50:22.758,0.375,0.255
13:50:22.766,0.365,0.255
13:50:22.773,0.365,0.245
13:50:22.781,0.355,0.235
13:50:22.789,0.345,0.235
13:50:22.797,0.345,0.235
13:50:22.805,0.335,0.225
13:50:22.813,0.335,0.215
13:50:22.820,0.325,0.215
13:50:22.828,0.315,0.215
13:50:22.836,0.315,0.205
13:50:22.844,0.305,0.195
13:50:22.852,0.295,0.195
13:50:22.859,0.295,0.195
13:50:22.867,0.285,0.185
13:50:22.875,0.285,0.175
13:50:22.883,0.275,0.175
13:50:22.891,0.265,0.165
13:50:22.898,0.255,0.165
13:50:22.906,0.255,0.155
13:50:22.914,0.255,0.155
13:50:22.922,0.245,0.155
13:50:22.930,0.235,0.145
13:50:22.938,0.235,0.135
13:50:22.945,0.225,0.125
13:50:22.953,0.215,0.135
13:50:22.961,0.205,0.115
13:50:22.969,0.205,0.115
13:50:22.977,0.195,0.105
13:50:22.984,0.185,0.105
13:50:22.992,0.175,0.095
13:50:23.000,0.165,0.085
13:50:23.008,0.155,0.085
13:50:23.016,0.155,0.075
13:50:23.023,0.145,0.075
13:50:23.031,0.135,0.065
13:50:23.039,0.125,0.055
13:50:23.047,0.115,0.055
13:50:23.055,0.105,0.045
13:50:23.063,0.085,0.035
13:50:23.070,0.075,0.015
13:50:23.078,-0.445,-0.355
13:50:23.086,-0.635,-0.635
13:50:23.094,-0.565,-0.565
13:50:23.102,-0.525,-0.525
13:50:23.109,-0.515,-0.515
13:50:23.117,-0.515,-0.505
13:50:23.125,-0.515,-0.505
13:50:23.133,-0.505,-0.505
13:50:23.141,-0.505,-0.495
13:50:23.148,-0.505,-0.495
13:50:23.156,-0.495,-0.495
13:50:23.164,-0.495,-0.485
13:50:23.172,-0.495,-0.475
13:50:23.180,-0.495,-0.475
13:50:23.188,-0.485,-0.475
13:50:23.195,-0.475,-0.465
13:50:23.203,-0.475,-0.465
13:50:23.211,-0.475,-0.455
13:50:23.219,-0.465,-0.455
13:50:23.227,-0.455,-0.445
13:50:23.234,-0.455,-0.435
13:50:23.242,-0.455,-0.435
13:50:23.250,-0.445,-0.435
13:50:23.258,-0.435,-0.425
13:50:23.266,-0.435,-0.415
13:50:23.273,-0.425,-0.415
13:50:23.281,-0.415,-0.405
13:50:23.289,-0.415,-0.395
13:50:23.297,-0.405,-0.395
13:50:23.305,-0.395,-0.385
13:50:23.313,-0.395,-0.385
13:50:23.320,-0.385,-0.375
13:50:23.328,-0.385,-0.365
13:50:23.336,-0.375,-0.365
13:50:23.344,-0.365,-0.365
13:50:23.352,-0.365,-0.355
13:50:23.359,-0.355,-0.345
13:50:23.367,-0.355,-0.345
13:50:23.375,-0.345,-0.335
13:50:23.383,-0.345,-0.335
13:50:23.391,-0.335,-0.325
13:50:23.398,-0.325,-0.325
13:50:23.406,-0.315,-0.315
13:50:23.414,-0.315,-0.315
13:50:23.422,-0.305,-0.305
13:50:23.430,-0.295,-0.305
13:50:23.438,-0.295,-0.295
13:50:23.445,-0.285,-0.295
13:50:23.453,-0.275,-0.275
13:50:23.461,-0.275,-0.275
13:50:23.469,-0.265,-0.275
13:50:23.477,-0.255,-0.265
13:50:23.484,-0.245,-0.255
13:50:23.492,-0.235,-0.255
13:50:23.500,-0.225,-0.245
13:50:23.508,-0.215,-0.235
13:50:23.516,-0.205,-0.225
13:50:23.523,-0.205,-0.225
13:50:23.531,-0.195,-0.215
13:50:23.539,-0.185,-0.215
13:50:23.547,-0.175,-0.205
13:50:23.555,-0.165,-0.195
13:50:23.563,-0.145,-0.195
13:50:23.570,-0.135,-0.175
13:50:23.578,0.245,0.045
13:50:23.586,0.575,0.485
13:50:23.594,0.515,0.425
13:50:23.602,0.475,0.375
13:50:23.609,0.455,0.365
13:50:23.617,0.455,0.365
13:50:23.625,0.445,0.355
13:50:23.633,0.445,0.355
13:50:23.641,0.445,0.355
13:50:23.648,0.445,0.345
13:50:23.656,0.445,0.335
13:50:23.664,0.435,0.335
13:50:23.672,0.435,0.335
13:50:23.680,0.435,0.335
13:50:23.688,0.425,0.325
13:50:23.695,0.425,0.315
13:50:23.703,0.425,0.325
13:50:23.711,0.405,0.315
13:50:23.719,0.405,0.315
13:50:23.727,0.405,0.305
13:50:23.734,0.395,0.305
13:50:23.742,0.395,0.295
13:50:23.750,0.385,0.285
13:50:23.758,0.385,0.285
13:50:23.766,0.375,0.275
13:50:23.773,0.365,0.275
13:50:23.781,0.365,0.265
13:50:23.789,0.355,0.265
13:50:23.797,0.355,0.255
13:50:23.805,0.345,0.255
13:50:23.813,0.335,0.245
13:50:23.820,0.335,0.235
13:50:23.828,0.325,0.235
13:50:23.836,0.315,0.225
13:50:23.844,0.315,0.215
13:50:23.852,0.315,0.215
13:50:23.859,0.305,0.215
13:50:23.867,0.295,0.205
13:50:23.875,0.285,0.195
13:50:23.883,0.285,0.195
13:50:23.891,0.275,0.195
13:50:23.898,0.265,0.185
13:50:23.906,0.265,0.175
13:50:23.914,0.255,0.175
13:50:23.922,0.245,0.175
13:50:23.930,0.235,0.165
13:50:23.938,0.235,0.155
13:50:23.945,0.225,0.145
13:50:23.953,0.225,0.145
13:50:23.961,0.205,0.135
13:50:23.969,0.205,0.135
13:50:23.977,0.195,0.125
13:50:23.984,0.185,0.125
13:50:23.992,0.175,0.115
13:50:24.000,0.175,0.105
13:50:24.008,0.165,0.095
13:50:24.016,0.155,0.095
13:50:24.023,0.145,0.085
13:50:24.031,0.135,0.075
13:50:24.039,0.125,0.075
13:50:24.047,0.115,0.075
13:50:24.055,0.105,0.065
13:50:24.063,0.095,0.045
13:50:24.070,0.075,0.035
13:50:24.078,-0.515,-0.445
13:50:24.086,-0.615,-0.605
13:50:24.094,-0.545,-0.545
13:50:24.102,-0.515,-0.515
13:50:24.109,-0.515,-0.495
13:50:24.117,-0.505,-0.495
13:50:24.125,-0.505,-0.495
13:50:24.133,-0.505,-0.485
13:50:24.141,-0.505,-0.485
13:50:24.148,-0.495,-0.475
13:50:24.156,-0.495,-0.475
13:50:24.164,-0.495,-0.475
13:50:24.172,-0.495,-0.465
13:50:24.180,-0.495,-0.465
13:50:24.188,-0.475,-0.465
13:50:24.195,-0.475,-0.455
13:50:24.203,-0.475,-0.445
13:50:24.211,-0.465,-0.445
13:50:24.219,-0.465,-0.445
13:50:24.227,-0.455,-0.435
13:50:24.234,-0.455,-0.425
13:50:24.242,-0.455,-0.425
13:50:24.250,-0.445,-0.425
13:50:24.258,-0.445,-0.415
13:50:24.266,-0.435,-0.405
13:50:24.273,-0.435,-0.405
13:50:24.281,-0.425,-0.405
13:50:24.289,-0.415,-0.395
13:50:24.297,-0.415,-0.385
13:50:24.305,-0.405,-0.385
13:50:24.313,-0.405,-0.375
13:50:24.320,-0.395,-0.375
13:50:24.328,-0.395,-0.365
13:50:24.336,-0.385,-0.365
13:50:24.344,-0.375,-0.365
13:50:24.352,-0.375,-0.355
13:50:24.359,-0.365,-0.345
13:50:24.367,-0.355,-0.345
13:50:24.375,-0.355,-0.345
13:50:24.383,-0.345,-0.335
13:50:24.391,-0.335,-0.325
13:50:24.398,-0.335,-0.325
13:50:24.406,-0.325,-0.315
13:50:24.414,-0.315,-0.315
13:50:24.422,-0.315,-0.305
13:50:24.430,-0.305,-0.295
13:50:24.438,-0.295,-0.295
13:50:24.445,-0.295,-0.295
13:50:24.453,-0.285,-0.285
13:50:24.461,-0.275,-0.275
13:50:24.469,-0.275,-0.275
13:50:24.477,-0.265,-0.265
13:50:24.484,-0.255,-0.255
13:50:24.492,-0.245,-0.255
13:50:24.500,-0.235,-0.245
13:50:24.508,-0.225,-0.245
13:50:24.516,-0.215,-0.225
13:50:24.523,-0.205,-0.225
13:50:24.531,-0.195,-0.215
13:50:24.539,-0.195,-0.215
13:50:24.547,-0.185,-0.205
13:50:24.555,-0.175,-0.195
13:50:24.563,-0.165,-0.185
13:50:24.570,-0.145,-0.185
13:50:24.578,-0.175,-0.205
13:50:24.586,0.565,0.465
13:50:24.594,0.535,0.455
13:50:24.602,0.475,0.395
13:50:24.609,0.455,0.365
13:50:24.617,0.445,0.365
13:50:24.625,0.445,0.355
13:50:24.633,0.455,0.345
13:50:24.641,0.445,0.345
13:50:24.648,0.435,0.345
13:50:24.656,0.435,0.335
13:50:24.664,0.435,0.335
13:50:24.672,0.425,0.335
13:50:24.680,0.425,0.325
13:50:24.688,0.415,0.325
13:50:24.695,0.415,0.315
13:50:24.703,0.415,0.315
13:50:24.711,0.405,0.305
13:50:24.719,0.395,0.305
13:50:24.727,0.395,0.295
13:50:24.734,0.395,0.295
13:50:24.742,0.385,0.285
13:50:24.750,0.375,0.285
13:50:24.758,0.375,0.265
13:50:24.766,0.365,0.275
13:50:24.773,0.365,0.265
13:50:24.781,0.355,0.255
13:50:24.789,0.345,0.255
13:50:24.797,0.345,0.245
13:50:24.805,0.335,0.235
13:50:24.813,0.335,0.235
13:50:24.820,0.325,0.225
13:50:24.828,0.315,0.225
13:50:24.836,0.315,0.215
13:50:24.844,0.315,0.215
13:50:24.852,0.305,0.205
13:50:24.859,0.295,0.205
13:50:24.867,0.285,0.195
13:50:24.875,0.285,0.185
13:50:24.883,0.275,0.185
13:50:24.891,0.275,0.185
13:50:24.898,0.265,0.175
13:50:24.906,0.255,0.165
13:50:24.914,0.245,0.165
13:50:24.922,0.245,0.155
13:50:24.930,0.235,0.155
13:50:24.938,0.225,0.145
13:50:24.945,0.225,0.135
13:50:24.953,0.215,0.135
13:50:24.961,0.205,0.125
13:50:24.969,0.205,0.115
13:50:24.977,0.185,0.115
13:50:24.984,0.185,0.105
13:50:24.992,0.175,0.095
13:50:25.000,0.165,0.095
13:50:25.008,0.155,0.085
13:50:25.016,0.145,0.085
13:50:25.023,0.135,0.075
13:50:25.031,0.135,0.065
13:50:25.039,0.125,0.055
13:50:25.047,0.115,0.055
13:50:25.055,0.105,0.045
13:50:25.063,0.085,0.035
13:50:25.070,0.075,0.035
13:50:25.078,-0.535,-0.495
13:50:25.086,-0.615,-0.625
13:50:25.094,-0.555,-0.565
13:50:25.102,-0.525,-0.525
13:50:25.109,-0.515,-0.515
13:50:25.117,-0.515,-0.505
13:50:25.125,-0.515,-0.515
13:50:25.133,-0.505,-0.505
13:50:25.141,-0.505,-0.495
13:50:25.148,-0.505,-0.495
13:50:25.156,-0.495,-0.495
13:50:25.164,-0.495,-0.495
13:50:25.172,-0.485,-0.485
13:50:25.180,-0.495,-0.485
13:50:25.188,-0.485,-0.485
13:50:25.195,-0.475,-0.475
13:50:25.203,-0.475,-0.465
13:50:25.211,-0.475,-0.465
13:50:25.219,-0.465,-0.455
13:50:25.227,-0.465,-0.455
13:50:25.234,-0.455,-0.445
13:50:25.242,-0.455,-0.435
13:50:25.250,-0.445,-0.435
13:50:25.258,-0.445,-0.435
13:50:25.266,-0.435,-0.425
13:50:25.273,-0.425,-0.415
13:50:25.281,-0.425,-0.415
13:50:25.289,-0.425,-0.415
13:50:25.297,-0.415,-0.395
13:50:25.305,-0.405,-0.395
13:50:25.313,-0.395,-0.395
13:50:25.320,-0.395,-0.385
13:50:25.328,-0.385,-0.375
13:50:25.336,-0.385,-0.375
13:50:25.344,-0.375,-0.375
13:50:25.352,-0.365,-0.365
13:50:25.359,-0.365,-0.355
13:50:25.367,-0.365,-0.355
13:50:25.375,-0.355,-0.355
13:50:25.383,-0.345,-0.345
13:50:25.391,-0.335,-0.345
13:50:25.398,-0.335,-0.335
13:50:25.406,-0.325,-0.335
13:50:25.414,-0.315,-0.325
13:50:25.422,-0.315,-0.315
13:50:25.430,-0.305,-0.315
13:50:25.438,-0.295,-0.315
13:50:25.445,-0.285,-0.305
13:50:25.453,-0.285,-0.295
13:50:25.461,-0.275,-0.285
13:50:25.469,-0.265,-0.285
13:50:25.477,-0.265,-0.285
13:50:25.484,-0.255,-0.265
13:50:25.492,-0.245,-0.265
13:50:25.500,-0.235,-0.255
13:50:25.508,-0.225,-0.255
13:50:25.516,-0.215,-0.245
13:50:25.523,-0.205,-0.235
13:50:25.531,-0.195,-0.235
13:50:25.539,-0.185,-0.225
13:50:25.547,-0.175,-0.215
13:50:25.555,-0.165,-0.215
13:50:25.563,-0.155,-0.205
13:50:25.570,-0.135,-0.195
13:50:25.578,0.435,0.275
13:50:25.586,0.555,0.455
13:50:25.594,0.495,0.395
13:50:25.602,0.455,0.355
13:50:25.609,0.445,0.345
13:50:25.617,0.445,0.335
13:50:25.625,0.445,0.335
13:50:25.633,0.445,0.335
13:50:25.641,0.435,0.325
13:50:25.648,0.435,0.325
13:50:25.656,0.435,0.315
13:50:25.664,0.425,0.315
13:50:25.672,0.425,0.315
13:50:25.680,0.425,0.305
13:50:25.688,0.415,0.305
13:50:25.695,0.415,0.295
13:50:25.703,0.405,0.295
13:50:25.711,0.395,0.285
13:50:25.719,0.395,0.285
13:50:25.727,0.395,0.275
13:50:25.734,0.385,0.275
13:50:25.742,0.385,0.265
13:50:25.750,0.375,0.255
13:50:25.758,0.375,0.255
13:50:25.766,0.375,0.255
13:50:25.773,0.365,0.245
13:50:25.781,0.355,0.235
13:50:25.789,0.345,0.235
13:50:25.797,0.345,0.235
13:50:25.805,0.335,0.225
13:50:25.813,0.335,0.215
13:50:25.820,0.325,0.205
13:50:25.828,0.325,0.215
13:50:25.836,0.315,0.205
13:50:25.844,0.305,0.195
13:50:25.852,0.305,0.195
13:50:25.859,0.295,0.195
13:50:25.867,0.295,0.185
13:50:25.875,0.285,0.175
13:50:25.883,0.275,0.165
13:50:25.891,0.275,0.165
13:50:25.898,0.265,0.165
13:50:25.906,0.255,0.155
13:50:25.914,0.255,0.145
13:50:25.922,0.245,0.145
13:50:25.930,0.235,0.145
13:50:25.938,0.235,0.135
13:50:25.945,0.225,0.125
13:50:25.953,0.215,0.125
13:50:25.961,0.205,0.115
13:50:25.969,0.195,0.105
13:50:25.977,0.195,0.105
13:50:25.984,0.185,0.105
13:50:25.992,0.175,0.095
13:50:26.000,0.175,0.085
13:50:26.008,0.155,0.075
13:50:26.016,0.155,0.075
13:50:26.023,0.145,0.075
13:50:26.031,0.135,0.065
13:50:26.039,0.125,0.055
13:50:26.047,0.115,0.045
13:50:26.055,0.105,0.045
13:50:26.063,0.095,0.025
13:50:26.070,0.075,0.015
13:50:26.078,-0.275,-0.185
13:50:26.086,-0.635,-0.645
13:50:26.094,-0.575,-0.585
13:50:26.102,-0.535,-0.535
13:50:26.109,-0.515,-0.515
13:50:26.117,-0.515,-0.515
13:50:26.125,-0.515,-0.515
13:50:26.133,-0.505,-0.515
13:50:26.141,-0.505,-0.505
13:50:26.148,-0.505,-0.495
13:50:26.156,-0.505,-0.495
13:50:26.164,-0.505,-0.495
13:50:26.172,-0.495,-0.485
13:50:26.180,-0.495,-0.485
13:50:26.188,-0.485,-0.485
13:50:26.195,-0.485,-0.475
13:50:26.203,-0.485,-0.465
13:50:26.211,-0.475,-0.465
13:50:26.219,-0.475,-0.465
13:50:26.227,-0.465,-0.455
13:50:26.234,-0.465,-0.445
13:50:26.242,-0.455,-0.445
13:50:26.250,-0.455,-0.435
13:50:26.258,-0.445,-0.435
13:50:26.266,-0.445,-0.425
13:50:26.273,-0.435,-0.415
13:50:26.281,-0.425,-0.415
13:50:26.289,-0.425,-0.415
13:50:26.297,-0.415,-0.405
13:50:26.305,-0.405,-0.405
13:50:26.313,-0.405,-0.395
13:50:26.320,-0.405,-0.395
13:50:26.328,-0.395,-0.385
13:50:26.336,-0.385,-0.375
13:50:26.344,-0.385,-0.375
13:50:26.352,-0.375,-0.375
13:50:26.359,-0.365,-0.355
13:50:26.367,-0.365,-0.355
13:50:26.375,-0.355,-0.355
13:50:26.383,-0.355,-0.355
13:50:26.391,-0.345,-0.345
13:50:26.398,-0.335,-0.335
13:50:26.406,-0.325,-0.335
13:50:26.414,-0.325,-0.335
13:50:26.422,-0.315,-0.325
13:50:26.430,-0.315,-0.315
13:50:26.438,-0.305,-0.315
13:50:26.445,-0.295,-0.305
13:50:26.453,-0.285,-0.295
13:50:26.461,-0.285,-0.295
13:50:26.469,-0.275,-0.285
13:50:26.477,-0.265,-0.285
13:50:26.484,-0.255,-0.265
13:50:26.492,-0.245,-0.265
13:50:26.500,-0.245,-0.265
13:50:26.508,-0.235,-0.255
13:50:26.516,-0.225,-0.245
13:50:26.523,-0.215,-0.245
13:50:26.531,-0.205,-0.235
13:50:26.539,-0.195,-0.225
13:50:26.547,-0.185,-0.215
13:50:26.555,-0.175,-0.215
13:50:26.563,-0.165,-0.205
13:50:26.570,-0.145,-0.195
13:50:26.578,0.355,0.195
13:50:26.586,0.545,0.465
13:50:26.594,0.485,0.395
13:50:26.602,0.455,0.365
13:50:26.609,0.445,0.355
13:50:26.617,0.435,0.345
13:50:26.625,0.435,0.335
13:50:26.633,0.425,0.335
13:50:26.641,0.425,0.335
13:50:26.648,0.425,0.335
13:50:26.656,0.425,0.325
13:50:26.664,0.415,0.325
13:50:26.672,0.415,0.325
13:50:26.680,0.405,0.315
13:50:26.688,0.405,0.305
13:50:26.695,0.405,0.305
13:50:26.703,0.395,0.305
13:50:26.711,0.385,0.295
13:50:26.719,0.385,0.285
13:50:26.727,0.375,0.285
13:50:26.734,0.375,0.285
13:50:26.742,0.365,0.275
13:50:26.750,0.365,0.265
13:50:26.758,0.365,0.265
13:50:26.766,0.355,0.265
13:50:26.773,0.345,0.255
13:50:26.781,0.345,0.245
13:50:26.789,0.335,0.245
13:50:26.797,0.335,0.235
13:50:26.805,0.325,0.235
13:50:26.813,0.325,0.225
13:50:26.820,0.315,0.215
13:50:26.828,0.305,0.215
13:50:26.836,0.305,0.215
13:50:26.844,0.295,0.205
13:50:26.852,0.285,0.195
13:50:26.859,0.285,0.205
13:50:26.867,0.275,0.195
13:50:26.875,0.265,0.185
13:50:26.883,0.265,0.175
13:50:26.891,0.255,0.175
13:50:26.898,0.245,0.175
13:50:26.906,0.245,0.165
13:50:26.914,0.235,0.165
13:50:26.922,0.225,0.155
13:50:26.930,0.225,0.155
13:50:26.938,0.215,0.145
13:50:26.945,0.215,0.135
13:50:26.953,0.205,0.135
13:50:26.961,0.195,0.125
13:50:26.969,0.185,0.115
13:50:26.977,0.175,0.115
13:50:26.984,0.165,0.105
13:50:26.992,0.165,0.095
13:50:27.000,0.145,0.095
13:50:27.008,0.135,0.085
13:50:27.016,0.135,0.085
13:50:27.023,0.125,0.075
13:50:27.031,0.115,0.065
13:50:27.039,0.105,0.055
13:50:27.047,0.095,0.055
13:50:27.055,0.075,0.045
13:50:27.063,0.075,0.035
13:50:27.070,0.055,0.025
13:50:27.078,-0.525,-0.425
13:50:27.086,-0.645,-0.625
13:50:27.094,-0.575,-0.565
13:50:27.102,-0.545,-0.525
13:50:27.109,-0.535,-0.515
13:50:27.117,-0.535,-0.515
13:50:27.125,-0.525,-0.505
13:50:27.133,-0.535,-0.505
13:50:27.141,-0.525,-0.495
13:50:27.148,-0.525,-0.495
13:50:27.156,-0.515,-0.485
13:50:27.164,-0.515,-0.485
13:50:27.172,-0.515,-0.475
13:50:27.180,-0.515,-0.475
13:50:27.188,-0.505,-0.475
13:50:27.195,-0.495,-0.465
13:50:27.203,-0.495,-0.455
13:50:27.211,-0.495,-0.455
13:50:27.219,-0.485,-0.455
13:50:27.227,-0.485,-0.445
13:50:27.234,-0.475,-0.435
13:50:27.242,-0.465,-0.435
13:50:27.250,-0.465,-0.435
13:50:27.258,-0.465,-0.425
13:50:27.266,-0.455,-0.415
13:50:27.273,-0.445,-0.415
13:50:27.281,-0.445,-0.405
13:50:27.289,-0.435,-0.405
13:50:27.297,-0.435,-0.395
13:50:27.305,-0.425,-0.385
13:50:27.313,-0.425,-0.385
13:50:27.320,-0.415,-0.375
13:50:27.328,-0.405,-0.375
13:50:27.336,-0.405,-0.365
13:50:27.344,-0.395,-0.365
13:50:27.352,-0.385,-0.355
13:50:27.359,-0.385,-0.345
13:50:27.367,-0.375,-0.345
13:50:27.375,-0.365,-0.345
13:50:27.383,-0.365,-0.335
13:50:27.391,-0.355,-0.325
13:50:27.398,-0.355,-0.325
13:50:27.406,-0.345,-0.315
13:50:27.414,-0.335,-0.315
13:50:27.422,-0.325,-0.305
13:50:27.430,-0.325,-0.305
13:50:27.438,-0.315,-0.295
13:50:27.445,-0.315,-0.295
13:50:27.453,-0.305,-0.285
13:50:27.461,-0.305,-0.285
13:50:27.469,-0.295,-0.275
13:50:27.477,-0.285,-0.265
13:50:27.484,-0.275,-0.255
13:50:27.492,-0.275,-0.255
13:50:27.500,-0.265,-0.245
13:50:27.508,-0.255,-0.245
13:50:27.516,-0.245,-0.235
13:50:27.523,-0.235,-0.225
13:50:27.531,-0.235,-0.225
13:50:27.539,-0.225,-0.215
13:50:27.547,-0.205,-0.195
13:50:27.555,-0.205,-0.195
13:50:27.563,-0.185,-0.185
13:50:27.570,-0.165,-0.175
13:50:27.578,0.215,0.055
13:50:27.586,0.545,0.485
13:50:27.594,0.475,0.425
13:50:27.602,0.435,0.385
13:50:27.609,0.425,0.375
13:50:27.617,0.415,0.365
13:50:27.625,0.415,0.355
13:50:27.633,0.415,0.355
13:50:27.641,0.415,0.355
13:50:27.648,0.405,0.345
13:50:27.656,0.405,0.345
13:50:27.664,0.405,0.335
13:50:27.672,0.395,0.345
13:50:27.680,0.395,0.335
13:50:27.688,0.385,0.325
13:50:27.695,0.385,0.325
13:50:27.703,0.385,0.325
13:50:27.711,0.375,0.315
13:50:27.719,0.365,0.305
13:50:27.727,0.365,0.305
13:50:27.734,0.355,0.305
13:50:27.742,0.355,0.295
13:50:27.750,0.345,0.285
13:50:27.758,0.345,0.285
13:50:27.766,0.335,0.285
13:50:27.773,0.325,0.275
13:50:27.781,0.325,0.265
13:50:27.789,0.315,0.265
13:50:27.797,0.315,0.255
13:50:27.805,0.305,0.255
13:50:27.813,0.295,0.245
13:50:27.820,0.295,0.235
13:50:27.828,0.285,0.245
13:50:27.836,0.285,0.235
13:50:27.844,0.275,0.225
13:50:27.852,0.265,0.225
13:50:27.859,0.265,0.215
13:50:27.867,0.255,0.215
13:50:27.875,0.255,0.205
13:50:27.883,0.245,0.195
13:50:27.891,0.235,0.205
13:50:27.898,0.225,0.195
13:50:27.906,0.225,0.185
13:50:27.914,0.215,0.185
13:50:27.922,0.205,0.175
13:50:27.930,0.195,0.175
13:50:27.938,0.195,0.165
13:50:27.945,0.185,0.155
13:50:27.953,0.175,0.155
13:50:27.961,0.175,0.145
13:50:27.969,0.165,0.145
13:50:27.977,0.155,0.135
13:50:27.984,0.145,0.135
13:50:27.992,0.135,0.125
13:50:28.000,0.135,0.115
13:50:28.008,0.125,0.105
13:50:28.016,0.115,0.105
13:50:28.023,0.105,0.095
13:50:28.031,0.095,0.095
13:50:28.039,0.085,0.085
13:50:28.047,0.075,0.085
13:50:28.055,0.065,0.075
13:50:28.063,0.055,0.065
13:50:28.070,0.035,0.055
13:50:28.078,-0.555,-0.395
13:50:28.086,-0.665,-0.595
13:50:28.094,-0.595,-0.525
13:50:28.102,-0.565,-0.495
13:50:28.109,-0.565,-0.475
13:50:28.117,-0.555,-0.475
13:50:28.125,-0.555,-0.475
13:50:28.133,-0.545,-0.465
13:50:28.141,-0.545,-0.465
13:50:28.148,-0.545,-0.465
13:50:28.156,-0.545,-0.455
13:50:28.164,-0.535,-0.455
13:50:28.172,-0.535,-0.445
13:50:28.180,-0.535,-0.445
13:50:28.188,-0.525,-0.445
13:50:28.195,-0.525,-0.435
13:50:28.203,-0.525,-0.425
13:50:28.211,-0.515,-0.425
13:50:28.219,-0.515,-0.415
13:50:28.227,-0.505,-0.405
13:50:28.234,-0.505,-0.395
13:50:28.242,-0.495,-0.405
13:50:28.250,-0.485,-0.395
13:50:28.258,-0.485,-0.395
13:50:28.266,-0.485,-0.375
13:50:28.273,-0.475,-0.375
13:50:28.281,-0.465,-0.375
13:50:28.289,-0.465,-0.365
13:50:28.297,-0.455,-0.355
13:50:28.305,-0.455,-0.355
13:50:28.313,-0.455,-0.345
13:50:28.320,-0.445,-0.335
13:50:28.328,-0.445,-0.325
13:50:28.336,-0.435,-0.325
13:50:28.344,-0.425,-0.325
13:50:28.352,-0.425,-0.315
13:50:28.359,-0.415,-0.305
13:50:28.367,-0.415,-0.305
13:50:28.375,-0.405,-0.305
13:50:28.383,-0.405,-0.295
13:50:28.391,-0.395,-0.285
13:50:28.398,-0.385,-0.275
13:50:28.406,-0.385,-0.275
13:50:28.414,-0.375,-0.275
13:50:28.422,-0.375,-0.265
13:50:28.430,-0.365,-0.255
13:50:28.438,-0.355,-0.255
13:50:28.445,-0.355,-0.245
13:50:28.453,-0.345,-0.235
13:50:28.461,-0.345,-0.235
13:50:28.469,-0.345,-0.225
13:50:28.477,-0.325,-0.215
13:50:28.484,-0.325,-0.205
13:50:28.492,-0.315,-0.205
13:50:28.500,-0.305,-0.205
13:50:28.508,-0.295,-0.195
13:50:28.516,-0.295,-0.185
13:50:28.523,-0.285,-0.175
13:50:28.531,-0.275,-0.175
13:50:28.539,-0.265,-0.165
13:50:28.547,-0.255,-0.155
13:50:28.555,-0.245,-0.145
13:50:28.563,-0.235,-0.135
13:50:28.570,-0.225,-0.125
13:50:28.578,0.125,0.055
13:50:28.586,0.495,0.535
13:50:28.594,0.425,0.475
13:50:28.602,0.375,0.435
13:50:28.609,0.365,0.425
13:50:28.617,0.365,0.415
13:50:28.625,0.355,0.405
13:50:28.633,0.355,0.405
13:50:28.641,0.345,0.405
13:50:28.648,0.345,0.395
13:50:28.656,0.335,0.395
13:50:28.664,0.335,0.385
13:50:28.672,0.325,0.395
13:50:28.680,0.315,0.385
13:50:28.688,0.315,0.375
13:50:28.695,0.305,0.375
13:50:28.703,0.305,0.375
13:50:28.711,0.295,0.365
13:50:28.719,0.285,0.355
13:50:28.727,0.275,0.355
13:50:28.734,0.275,0.355
13:50:28.742,0.265,0.345
13:50:28.750,0.255,0.335
13:50:28.758,0.255,0.335
13:50:28.766,0.245,0.335
13:50:28.773,0.235,0.335
13:50:28.781,0.225,0.325
13:50:28.789,0.225,0.315
13:50:28.797,0.215,0.315
13:50:28.805,0.205,0.315
13:50:28.813,0.195,0.305
13:50:28.820,0.185,0.295
13:50:28.828,0.175,0.295
13:50:28.836,0.175,0.295
13:50:28.844,0.165,0.285
13:50:28.852,0.155,0.285
13:50:28.859,0.145,0.285
13:50:28.867,0.145,0.275
13:50:28.875,0.135,0.275
13:50:28.883,0.125,0.265
13:50:28.891,0.115,0.265
13:50:28.898,0.105,0.265
13:50:28.906,0.095,0.255
13:50:28.914,0.095,0.255
13:50:28.922,0.075,0.255
13:50:28.930,0.065,0.245
13:50:28.938,0.065,0.235
13:50:28.945,0.055,0.235
13:50:28.953,0.045,0.235
13:50:28.961,0.035,0.225
13:50:28.969,0.025,0.215
13:50:28.977,0.015,0.215
13:50:28.984,0.005,0.205
13:50:28.992,-0.005,0.205
13:50:29.000,-0.015,0.195
13:50:29.008,-0.025,0.195
13:50:29.016,-0.045,0.195
13:50:29.023,-0.055,0.185
13:50:29.031,-0.065,0.175
13:50:29.039,-0.075,0.175
13:50:29.047,-0.095,0.175
13:50:29.055,-0.105,0.165
13:50:29.063,-0.125,0.145
13:50:29.070,-0.145,0.135
13:50:29.078,-0.685,-0.285
13:50:29.086,-0.845,-0.495
13:50:29.094,-0.775,-0.435
13:50:29.102,-0.755,-0.405
13:50:29.109,-0.755,-0.375
13:50:29.117,-0.745,-0.375
13:50:29.125,-0.745,-0.375
13:50:29.133,-0.755,-0.365
13:50:29.141,-0.755,-0.355
13:50:29.148,-0.755,-0.355
13:50:29.156,-0.745,-0.355
13:50:29.164,-0.745,-0.345
13:50:29.172,-0.745,-0.335
13:50:29.180,-0.745,-0.335
13:50:29.188,-0.745,-0.335
13:50:29.195,-0.745,-0.325
13:50:29.203,-0.745,-0.315
13:50:29.211,-0.745,-0.305
13:50:29.219,-0.745,-0.305
13:50:29.227,-0.745,-0.295
13:50:29.234,-0.735,-0.285
13:50:29.242,-0.735,-0.275
13:50:29.250,-0.735,-0.275
13:50:29.258,-0.735,-0.265
13:50:29.266,-0.735,-0.255
13:50:29.273,-0.725,-0.245
13:50:29.281,-0.735,-0.245
13:50:29.289,-0.725,-0.235
13:50:29.297,-0.725,-0.225
13:50:29.305,-0.725,-0.215
13:50:29.313,-0.725,-0.215
13:50:29.320,-0.725,-0.205
13:50:29.328,-0.725,-0.185
13:50:29.336,-0.715,-0.185
13:50:29.344,-0.715,-0.175
13:50:29.352,-0.715,-0.175
13:50:29.359,-0.715,-0.155
13:50:29.367,-0.715,-0.155
13:50:29.375,-0.705,-0.145
13:50:29.383,-0.715,-0.135
13:50:29.391,-0.705,-0.125
13:50:29.398,-0.705,-0.125
13:50:29.406,-0.695,-0.115
13:50:29.414,-0.695,-0.105
13:50:29.422,-0.695,-0.095
13:50:29.430,-0.695,-0.095
13:50:29.438,-0.685,-0.095
13:50:29.445,-0.675,-0.085
13:50:29.453,-0.665,-0.075
13:50:29.461,-0.665,-0.075
13:50:29.469,-0.655,-0.075
13:50:29.477,-0.645,-0.065
13:50:29.484,-0.635,-0.065
13:50:29.492,-0.625,-0.065
13:50:29.500,-0.615,-0.055
13:50:29.508,-0.605,-0.055
13:50:29.516,-0.595,-0.045
13:50:29.523,-0.585,-0.045
13:50:29.531,-0.565,-0.045
13:50:29.539,-0.555,-0.045
13:50:29.547,-0.545,-0.045
13:50:29.555,-0.535,-0.035
13:50:29.563,-0.515,-0.035
13:50:29.570,-0.545,-0.045
13:50:29.578,0.155,0.525
13:50:29.586,0.185,0.605
13:50:29.594,0.125,0.535
13:50:29.602,0.095,0.505
13:50:29.609,0.095,0.495
13:50:29.617,0.095,0.475
13:50:29.625,0.095,0.475
13:50:29.633,0.095,0.465
13:50:29.641,0.095,0.455
13:50:29.648,0.095,0.455
13:50:29.656,0.095,0.445
13:50:29.664,0.095,0.435
13:50:29.672,0.095,0.435
13:50:29.680,0.085,0.425
13:50:29.688,0.095,0.415
13:50:29.695,0.095,0.415
13:50:29.703,0.095,0.405
13:50:29.711,0.085,0.395
13:50:29.719,0.085,0.395
13:50:29.727,0.085,0.385
13:50:29.734,0.095,0.385
13:50:29.742,0.095,0.375
13:50:29.750,0.085,0.365
13:50:29.758,0.095,0.365
13:50:29.766,0.095,0.365
13:50:29.773,0.095,0.355
13:50:29.781,0.095,0.345
13:50:29.789,0.085,0.335
13:50:29.797,0.085,0.335
13:50:29.805,0.085,0.335
13:50:29.813,0.085,0.325
13:50:29.820,0.085,0.315
13:50:29.828,0.085,0.315
13:50:29.836,0.085,0.315
13:50:29.844,0.085,0.305
13:50:29.852,0.085,0.295
13:50:29.859,0.085,0.295
13:50:29.867,0.075,0.285
13:50:29.875,0.085,0.285
13:50:29.883,0.075,0.275
13:50:29.891,0.075,0.275
13:50:29.898,0.075,0.265
13:50:29.906,0.065,0.255
13:50:29.914,0.075,0.255
13:50:29.922,0.065,0.245
13:50:29.930,0.065,0.245
13:50:29.938,0.065,0.235
13:50:29.945,0.065,0.225
13:50:29.953,0.065,0.225
13:50:29.961,0.055,0.215
13:50:29.969,0.055,0.205
13:50:29.977,0.055,0.195
13:50:29.984,0.045,0.195
13:50:29.992,0.035,0.195
13:50:30.000,0.035,0.185
13:50:30.008,0.035,0.175
13:50:30.016,0.035,0.175
13:50:30.023,0.025,0.165
13:50:30.031,0.015,0.155
13:50:30.039,0.015,0.145
13:50:30.047,0.005,0.145
13:50:30.055,0.005,0.135
13:50:30.063,-0.005,0.125
13:50:30.070,-0.025,0.115
13:50:30.078,-0.355,-0.055
13:50:30.086,-0.725,-0.545
13:50:30.094,-0.655,-0.495
13:50:30.102,-0.615,-0.445
13:50:30.109,-0.595,-0.425
13:50:30.117,-0.595,-0.425
13:50:30.125,-0.585,-0.425
13:50:30.133,-0.575,-0.415
13:50:30.141,-0.575,-0.415
13:50:30.148,-0.565,-0.405
13:50:30.156,-0.565,-0.405
13:50:30.164,-0.555,-0.405
13:50:30.172,-0.545,-0.395
13:50:30.180,-0.545,-0.395
13:50:30.188,-0.535,-0.395
13:50:30.195,-0.535,-0.385
13:50:30.203,-0.525,-0.375
13:50:30.211,-0.515,-0.375
13:50:30.219,-0.515,-0.375
13:50:30.227,-0.505,-0.375
13:50:30.234,-0.495,-0.375
13:50:30.242,-0.495,-0.365
13:50:30.250,-0.485,-0.365
13:50:30.258,-0.485,-0.365
13:50:30.266,-0.475,-0.355
13:50:30.273,-0.475,-0.355
13:50:30.281,-0.465,-0.355
13:50:30.289,-0.455,-0.355
13:50:30.297,-0.455,-0.345
13:50:30.305,-0.455,-0.345
13:50:30.313,-0.445,-0.345
13:50:30.320,-0.445,-0.345
13:50:30.328,-0.435,-0.335
13:50:30.336,-0.435,-0.335
13:50:30.344,-0.425,-0.335
13:50:30.352,-0.415,-0.325
13:50:30.359,-0.415,-0.325
13:50:30.367,-0.405,-0.315
13:50:30.375,-0.405,-0.315
13:50:30.383,-0.395,-0.315
13:50:30.391,-0.385,-0.305
13:50:30.398,-0.385,-0.305
13:50:30.406,-0.375,-0.305
13:50:30.414,-0.365,-0.295
13:50:30.422,-0.365,-0.285
13:50:30.430,-0.355,-0.285
13:50:30.438,-0.345,-0.285
13:50:30.445,-0.345,-0.275
13:50:30.453,-0.335,-0.265
13:50:30.461,-0.335,-0.265
13:50:30.469,-0.325,-0.265
13:50:30.477,-0.315,-0.255
13:50:30.484,-0.305,-0.245
13:50:30.492,-0.295,-0.245
13:50:30.500,-0.285,-0.245
13:50:30.508,-0.285,-0.235
13:50:30.516,-0.275,-0.225
13:50:30.523,-0.265,-0.225
13:50:30.531,-0.255,-0.225
13:50:30.539,-0.245,-0.215
13:50:30.547,-0.235,-0.215
13:50:30.555,-0.225,-0.205
13:50:30.563,-0.215,-0.195
13:50:30.570,-0.205,-0.185
13:50:30.578,0.365,0.235
13:50:30.586,0.495,0.465
13:50:30.594,0.435,0.385
13:50:30.602,0.405,0.355
13:50:30.609,0.385,0.345
13:50:30.617,0.385,0.335
13:50:30.625,0.385,0.325
13:50:30.633,0.375,0.325
13:50:30.641,0.375,0.325
13:50:30.648,0.375,0.315
13:50:30.656,0.365,0.305
13:50:30.664,0.365,0.305
13:50:30.672,0.365,0.305
13:50:30.680,0.365,0.295
13:50:30.688,0.355,0.285
13:50:30.695,0.355,0.285
13:50:30.703,0.355,0.285
13:50:30.711,0.345,0.275
13:50:30.719,0.345,0.265
13:50:30.727,0.345,0.265
13:50:30.734,0.345,0.265
13:50:30.742,0.335,0.255
13:50:30.750,0.335,0.245
13:50:30.758,0.335,0.245
13:50:30.766,0.335,0.245
13:50:30.773,0.325,0.235
13:50:30.781,0.325,0.225
13:50:30.789,0.325,0.225
13:50:30.797,0.325,0.225
13:50:30.805,0.315,0.215
13:50:30.813,0.305,0.215
13:50:30.820,0.305,0.205
13:50:30.828,0.305,0.205
13:50:30.836,0.295,0.195
13:50:30.844,0.295,0.195
13:50:30.852,0.295,0.185
13:50:30.859,0.295,0.185
13:50:30.867,0.295,0.175
13:50:30.875,0.285,0.175
13:50:30.883,0.285,0.165
13:50:30.891,0.285,0.165
13:50:30.898,0.285,0.155
13:50:30.906,0.275,0.155
13:50:30.914,0.275,0.145
13:50:30.922,0.275,0.145
13:50:30.930,0.265,0.135
13:50:30.938,0.255,0.135
13:50:30.945,0.255,0.125
13:50:30.953,0.255,0.125
13:50:30.961,0.245,0.125
13:50:30.969,0.235,0.115
13:50:30.977,0.235,0.105
13:50:30.984,0.235,0.105
13:50:30.992,0.225,0.095
13:50:31.000,0.215,0.095
13:50:31.008,0.215,0.085
13:50:31.016,0.205,0.085
13:50:31.023,0.205,0.075
13:50:31.031,0.195,0.075
13:50:31.039,0.185,0.065
13:50:31.047,0.185,0.065
13:50:31.055,0.165,0.055
13:50:31.063,0.155,0.045
13:50:31.070,0.145,0.035
13:50:31.078,-0.365,-0.325
13:50:31.086,-0.565,-0.615
13:50:31.094,-0.485,-0.545
13:50:31.102,-0.455,-0.505
13:50:31.109,-0.435,-0.485
13:50:31.117,-0.435,-0.485
13:50:31.125,-0.425,-0.475
13:50:31.133,-0.425,-0.475
13:50:31.141,-0.415,-0.465
13:50:31.148,-0.415,-0.465
13:50:31.156,-0.405,-0.455
13:50:31.164,-0.405,-0.455
13:50:31.172,-0.395,-0.445
13:50:31.180,-0.395,-0.445
13:50:31.188,-0.385,-0.435
13:50:31.195,-0.385,-0.435
13:50:31.203,-0.375,-0.425
13:50:31.211,-0.375,-0.425
13:50:31.219,-0.375,-0.425
13:50:31.227,-0.365,-0.415
13:50:31.234,-0.365,-0.405
13:50:31.242,-0.365,-0.405
13:50:31.250,-0.355,-0.405
13:50:31.258,-0.355,-0.395
13:50:31.266,-0.345,-0.395
13:50:31.273,-0.345,-0.395
13:50:31.281,-0.335,-0.395
13:50:31.289,-0.335,-0.385
13:50:31.297,-0.325,-0.375
13:50:31.305,-0.325,-0.375
13:50:31.313,-0.325,-0.375
13:50:31.320,-0.315,-0.375
13:50:31.328,-0.315,-0.365
13:50:31.336,-0.305,-0.365
13:50:31.344,-0.305,-0.355
13:50:31.352,-0.295,-0.355
13:50:31.359,-0.295,-0.345
13:50:31.367,-0.285,-0.345
13:50:31.375,-0.275,-0.345
13:50:31.383,-0.275,-0.345
13:50:31.391,-0.265,-0.335
13:50:31.398,-0.265,-0.335
13:50:31.406,-0.255,-0.325
13:50:31.414,-0.255,-0.325
13:50:31.422,-0.245,-0.315
13:50:31.430,-0.245,-0.315
13:50:31.438,-0.235,-0.315
13:50:31.445,-0.235,-0.315
13:50:31.453,-0.225,-0.295
13:50:31.461,-0.225,-0.295
13:50:31.469,-0.215,-0.295
13:50:31.477,-0.205,-0.295
13:50:31.484,-0.195,-0.275
13:50:31.492,-0.195,-0.275
13:50:31.500,-0.185,-0.275
13:50:31.508,-0.175,-0.275
13:50:31.516,-0.165,-0.265
13:50:31.523,-0.155,-0.265
13:50:31.531,-0.155,-0.255
13:50:31.539,-0.145,-0.265
13:50:31.547,-0.135,-0.255
13:50:31.555,-0.125,-0.245
13:50:31.563,-0.115,-0.245
13:50:31.570,-0.095,-0.235
13:50:31.578,0.315,0.005
13:50:31.586,0.625,0.425
13:50:31.594,0.555,0.355
13:50:31.602,0.515,0.315
13:50:31.609,0.505,0.305
13:50:31.617,0.495,0.295
13:50:31.625,0.495,0.285
13:50:31.633,0.495,0.285
13:50:31.641,0.485,0.285
13:50:31.648,0.485,0.275
13:50:31.656,0.485,0.265
13:50:31.664,0.485,0.265
13:50:31.672,0.485,0.265
13:50:31.680,0.475,0.255
13:50:31.688,0.475,0.255
13:50:31.695,0.475,0.245
13:50:31.703,0.475,0.245
13:50:31.711,0.465,0.245
13:50:31.719,0.465,0.235
13:50:31.727,0.465,0.235
13:50:31.734,0.465,0.235
13:50:31.742,0.465,0.225
13:50:31.750,0.465,0.215
13:50:31.758,0.465,0.215
13:50:31.766,0.465,0.215
13:50:31.773,0.455,0.205
13:50:31.781,0.455,0.205
13:50:31.789,0.455,0.195
13:50:31.797,0.455,0.195
13:50:31.805,0.465,0.195
13:50:31.813,0.465,0.195
13:50:31.820,0.475,0.185
13:50:31.828,0.495,0.175
13:50:31.836,0.535,0.195
13:50:31.844,1.775,-1.335
13:50:31.852,1.685,-1.27
13:50:31.859,1.605,-1.15
13:50:31.867,1.565,-1.12
13:50:31.875,1.555,-1.11
13:50:31.883,1.535,-1.11
13:50:31.891,1.515,-1.08
13:50:31.898,1.535,-1.085
13:50:31.906,1.505,-1.105
13:50:31.914,1.515,-1.075
13:50:31.922,1.465,-1.015
13:50:31.930,1.535,-0.84
13:50:31.938,1.695,-0.71
13:50:31.945,1.745,-1.11
13:50:31.953,1.725,-1.195
13:50:31.961,1.545,-1.225
13:50:31.969,1.125,-1.205
13:50:31.977,1.345,-1.085
13:50:31.984,1.435,-1.01
13:50:31.992,1.405,-0.94
13:50:32.000,1.395,-0.95
13:50:32.008,1.355,-0.91
13:50:32.016,1.365,-0.845
13:50:32.023,1.315,-0.925
13:50:32.031,1.335,-1.015
13:50:32.039,1.325,-0.925
13:50:32.047,1.305,-0.895
13:50:32.055,1.315,-0.86
13:50:32.063,1.275,-0.86
13:50:32.070,1.275,-0.85
13:50:32.078,1.265,-0.83
13:50:32.086,1.265,-0.805
13:50:32.094,1.255,-0.785
13:50:32.102,1.235,-0.685
13:50:32.109,1.225,-0.675
13:50:32.117,1.255,-0.79
13:50:32.125,1.255,-0.76
13:50:32.133,1.265,-0.67
13:50:32.141,1.295,-0.62
13:50:32.148,1.315,-0.585
13:50:32.156,1.295,-0.525
13:50:32.164,1.155,-0.445
13:50:32.172,1.205,-0.495
13:50:32.180,1.235,-0.63
13:50:32.188,1.235,-0.56
13:50:32.195,1.215,-0.55
13:50:32.203,1.185,-0.56
13:50:32.211,1.145,-0.595
13:50:32.219,1.125,-0.625
13:50:32.227,1.055,-0.665
13:50:32.234,0.975,-0.705
13:50:32.242,0.955,-0.71
13:50:32.250,0.925,-0.71
13:50:32.258,0.895,-0.75
13:50:32.266,0.855,-0.73
13:50:32.273,0.825,-0.645
13:50:32.281,0.845,-0.665
13:50:32.289,0.775,-0.845
13:50:32.297,0.785,-0.735
13:50:32.305,0.785,-0.71
13:50:32.313,0.755,-0.69
13:50:32.320,0.745,-0.68
13:50:32.328,0.735,-0.66
13:50:32.336,0.775,-0.655
13:50:32.344,0.725,-0.625
13:50:32.352,0.685,-0.485
13:50:32.359,0.685,-0.695
13:50:32.367,0.675,-0.7
13:50:32.375,0.675,-0.61
13:50:32.383,0.685,-0.61
13:50:32.391,0.645,-0.61
13:50:32.398,0.635,-0.595
13:50:32.406,0.725,-0.595
13:50:32.414,0.625,-0.555
13:50:32.422,0.525,-0.525
13:50:32.430,0.545,-0.61
13:50:32.438,0.555,-0.59
13:50:32.445,0.605,-0.53
13:50:32.453,0.655,-0.48
13:50:32.461,0.645,-0.455
13:50:32.469,0.635,-0.435
13:50:32.477,0.675,-0.405
13:50:32.484,0.655,-0.435
13:50:32.492,0.625,-0.5
13:50:32.500,0.565,-0.49
13:50:32.508,0.535,-0.47
13:50:32.516,0.475,-0.49
13:50:32.523,0.435,-0.495
13:50:32.531,0.385,-0.505
13:50:32.539,0.385,-0.505
13:50:32.547,0.375,-0.485
13:50:32.555,0.335,-0.48
13:50:32.563,0.315,-0.48
13:50:32.570,0.335,-0.47
13:50:32.578,0.335,-0.43
13:50:32.586,0.255,-0.295
13:50:32.594,0.475,-0.065
13:50:32.602,1.035,0.105
13:50:32.609,1.435,-0.425
13:50:32.617,1.385,-0.775
13:50:32.625,0.635,-0.945
13:50:32.633,-0.275,-0.925
13:50:32.641,0.035,-0.585
13:50:32.648,0.265,-0.385
13:50:32.656,0.255,-0.325
13:50:32.664,0.245,-0.305
13:50:32.672,0.255,-0.295
13:50:32.680,0.215,-0.295
13:50:32.688,0.215,-0.285
13:50:32.695,0.225,-0.275
13:50:32.703,0.245,-0.255
13:50:32.711,0.195,-0.265
13:50:32.719,0.235,-0.225
13:50:32.727,0.245,-0.235
13:50:32.734,0.305,-0.175
13:50:32.742,0.205,-0.215
13:50:32.750,0.255,-0.215
13:50:32.758,0.275,-0.175
13:50:32.766,0.275,-0.135
13:50:32.773,0.245,-0.105
13:50:32.781,0.285,-0.085
13:50:32.789,0.335,-0.045
13:50:32.797,0.365,-0.005
13:50:32.805,0.345,0.095
13:50:32.813,0.395,0.035
13:50:32.820,0.405,0.025
13:50:32.828,0.445,0.055
13:50:32.836,0.455,0.065
13:50:32.844,0.445,0.045
13:50:32.852,0.415,0.035
13:50:32.859,0.405,0.015
13:50:32.867,0.365,-0.025
13:50:32.875,0.345,-0.075
13:50:32.883,0.375,-0.125
13:50:32.891,0.305,-0.175
13:50:32.898,0.155,-0.175
13:50:32.906,0.135,-0.215
13:50:32.914,0.155,-0.235
13:50:32.922,0.135,-0.235
13:50:32.930,0.105,-0.255
13:50:32.938,0.135,-0.255
13:50:32.945,0.145,-0.235
13:50:32.953,0.135,-0.225
13:50:32.961,0.105,-0.175
13:50:32.969,0.105,-0.245
13:50:32.977,0.085,-0.255
13:50:32.984,0.095,-0.265
13:50:32.992,0.105,-0.225
13:50:33.000,0.095,-0.215
13:50:33.008,0.105,-0.205
13:50:33.016,0.105,-0.185
13:50:33.023,0.085,-0.205
13:50:33.031,0.095,-0.235
13:50:33.039,0.095,-0.215
13:50:33.047,0.075,-0.205
13:50:33.055,0.085,-0.215
13:50:33.063,0.075,-0.195
13:50:33.070,0.075,-0.205
13:50:33.078,0.055,-0.245
13:50:33.086,0.045,-0.205
13:50:33.094,0.045,-0.235
13:50:33.102,0.085,-0.215
13:50:33.109,0.155,-0.135
13:50:33.117,0.105,-0.135
13:50:33.125,0.135,-0.135
13:50:33.133,0.195,-0.105
13:50:33.141,0.185,-0.125
13:50:33.148,0.155,-0.075
13:50:33.156,0.065,-0.225
13:50:33.164,0.045,-0.235
13:50:33.172,-0.015,-0.245
13:50:33.180,-0.055,-0.245
13:50:33.188,-0.095,-0.255
13:50:33.195,-0.115,-0.265
13:50:33.203,-0.095,-0.245
13:50:33.211,-0.105,-0.245
13:50:33.219,-0.085,-0.155
13:50:33.227,-0.105,-0.275
13:50:33.234,-0.145,-0.295
13:50:33.242,-0.225,-0.155
13:50:33.250,-0.025,0.125
13:50:33.258,0.575,0.265
13:50:33.266,1.155,-0.325
13:50:33.273,1.175,-0.685
13:50:33.281,0.385,-0.825
13:50:33.289,-0.715,-0.865
13:50:33.297,-0.465,-0.525
13:50:33.305,-0.145,-0.245
13:50:33.313,-0.135,-0.155
13:50:33.320,-0.175,-0.135
13:50:33.328,-0.175,-0.165
13:50:33.336,-0.185,-0.135
13:50:33.344,-0.155,-0.155
13:50:33.352,-0.185,-0.155
13:50:33.359,-0.185,-0.015
13:50:33.367,-0.205,-0.145
13:50:33.375,-0.155,-0.225
13:50:33.383,-0.145,-0.155
13:50:33.391,-0.135,-0.105
13:50:33.398,-0.135,-0.085
13:50:33.406,-0.095,-0.055
13:50:33.414,-0.115,-0.055
13:50:33.422,-0.115,-0.035
13:50:33.430,-0.075,-0.015
13:50:33.438,-0.035,0.035
13:50:33.445,0.005,0.115
13:50:33.453,-0.015,0.035
13:50:33.461,0.025,0.105
13:50:33.469,0.055,0.145
13:50:33.477,0.055,0.315
13:50:33.484,0.115,0.125
13:50:33.492,0.095,0.095
13:50:33.500,0.085,0.165
13:50:33.508,0.095,0.115
13:50:33.516,0.085,0.105
13:50:33.523,0.065,0.065
13:50:33.531,0.035,0.015
13:50:33.539,-0.025,-0.045
13:50:33.547,-0.045,-0.085
13:50:33.555,-0.065,-0.075
13:50:33.563,-0.095,-0.125
13:50:33.570,-0.105,-0.145
13:50:33.578,-0.135,-0.185
13:50:33.586,-0.145,-0.175
13:50:33.594,-0.125,-0.185
13:50:33.602,-0.165,-0.185
13:50:33.609,-0.165,-0.165
13:50:33.617,-0.145,-0.145
13:50:33.625,-0.145,-0.155
13:50:33.633,-0.145,-0.155
13:50:33.641,-0.135,-0.135
13:50:33.648,-0.135,-0.125
13:50:33.656,-0.125,-0.125
13:50:33.664,-0.105,-0.115
13:50:33.672,-0.125,-0.115
13:50:33.680,-0.115,-0.125
13:50:33.688,-0.105,-0.115
13:50:33.695,-0.085,-0.115
13:50:33.703,-0.115,-0.115
13:50:33.711,-0.105,-0.105
13:50:33.719,-0.095,-0.105
13:50:33.727,-0.105,-0.105
13:50:33.734,-0.115,-0.095
13:50:33.742,-0.095,-0.105
13:50:33.750,-0.085,-0.085
13:50:33.758,-0.015,0.005
13:50:33.766,-0.005,-0.015
13:50:33.773,-0.015,-0.045
13:50:33.781,0.065,0.025
13:50:33.789,0.105,-0.035
13:50:33.797,0.035,-0.065
13:50:33.805,-0.005,-0.065
13:50:33.813,-0.025,-0.065
13:50:33.820,-0.075,-0.075
13:50:33.828,-0.125,-0.105
13:50:33.836,-0.165,-0.125
13:50:33.844,-0.175,-0.125
13:50:33.852,-0.175,-0.125
13:50:33.859,-0.215,-0.145
13:50:33.867,-0.195,-0.135
13:50:33.875,-0.195,-0.125
13:50:33.883,-0.185,-0.125
13:50:33.891,-0.235,-0.075
13:50:33.898,-0.275,0.095
13:50:33.906,-0.035,0.315
13:50:33.914,0.575,0.305
13:50:33.922,1.135,-0.265
13:50:33.930,1.105,-0.545
13:50:33.938,0.275,-0.855
13:50:33.945,-0.735,-0.785
13:50:33.953,-0.435,-0.335
13:50:33.961,-0.185,-0.045
13:50:33.969,-0.195,-0.015
13:50:33.977,-0.225,-0.045
13:50:33.984,-0.215,-0.035
13:50:33.992,-0.215,-0.035
13:50:34.000,-0.215,-0.035
13:50:34.008,-0.215,-0.025
13:50:34.016,-0.205,-0.015
13:50:34.023,-0.195,-0.005
13:50:34.031,-0.215,-0.015
13:50:34.039,-0.205,0.035
13:50:34.047,-0.165,0.035
13:50:34.055,-0.205,-0.005
13:50:34.063,-0.175,0.145
13:50:34.070,-0.145,0.105
13:50:34.078,-0.115,-0.045
13:50:34.086,-0.115,0.065
13:50:34.094,-0.095,0.135
13:50:34.102,-0.055,0.175
13:50:34.109,-0.045,0.195
13:50:34.117,-0.015,0.235
13:50:34.125,-0.005,0.265
13:50:34.133,-0.005,0.215
13:50:34.141,0.025,0.235
13:50:34.148,0.005,0.225
13:50:34.156,0.015,0.215
13:50:34.164,-0.025,0.175
13:50:34.172,-0.045,0.125
13:50:34.180,-0.065,0.075
13:50:34.188,-0.115,0.035
13:50:34.195,-0.125,0.025
13:50:34.203,-0.175,-0.065
13:50:34.211,-0.225,-0.095
13:50:34.219,-0.235,-0.045
13:50:34.227,-0.265,0.025
13:50:34.234,-0.245,-0.195
13:50:34.242,-0.255,-0.185
13:50:34.250,-0.265,-0.135
13:50:34.258,-0.275,-0.085
13:50:34.266,-0.285,-0.065
13:50:34.273,-0.265,-0.065
13:50:34.281,-0.285,-0.045
13:50:34.289,-0.285,-0.045
13:50:34.297,-0.295,-0.015
13:50:34.305,-0.285,-0.075
13:50:34.313,-0.315,-0.055
13:50:34.320,-0.315,-0.025
13:50:34.328,-0.305,-0.015
13:50:34.336,-0.285,-0.005
13:50:34.344,-0.325,0.005
13:50:34.352,-0.345,0.075
13:50:34.359,-0.355,0.055
13:50:34.367,-0.345,-0.075
13:50:34.375,-0.355,-0.065
13:50:34.383,-0.365,-0.035
13:50:34.391,-0.355,-0.035
13:50:34.398,-0.355,0.005
13:50:34.406,-0.285,0.065
13:50:34.414,-0.275,0.095
13:50:34.422,-0.275,0.105
13:50:34.430,-0.245,0.125
13:50:34.438,-0.225,0.105
13:50:34.445,-0.295,0.065
13:50:34.453,-0.315,0.095
13:50:34.461,-0.345,0.115
13:50:34.469,-0.415,0.005
13:50:34.477,-0.465,0.045
13:50:34.484,-0.495,-0.115
13:50:34.492,-0.515,-0.055
13:50:34.500,-0.515,-0.015
13:50:34.508,-0.505,-0.015
13:50:34.516,-0.535,-0.005
13:50:34.523,-0.525,-0.005
13:50:34.531,-0.555,0.015
13:50:34.539,-0.645,0.105
13:50:34.547,-0.575,0.245
13:50:34.555,-0.085,0.495
13:50:34.563,0.635,0.175
13:50:34.570,0.885,-0.445
13:50:34.578,0.275,-0.565
13:50:34.586,-0.945,-0.685
13:50:34.594,-0.995,-0.375
13:50:34.602,-0.595,0.005
13:50:34.609,-0.535,0.115
13:50:34.617,-0.565,0.095
13:50:34.625,-0.575,0.095
13:50:34.633,-0.565,0.085
13:50:34.641,-0.595,0.095
13:50:34.648,-0.575,0.115
13:50:34.656,-0.555,0.115
13:50:34.664,-0.545,0.125
13:50:34.672,-0.555,0.135
13:50:34.680,-0.545,0.145
13:50:34.688,-0.525,0.155
13:50:34.695,-0.495,0.165
13:50:34.703,-0.515,0.175
13:50:34.711,-0.485,0.185
13:50:34.719,-0.485,0.205
13:50:34.727,-0.455,0.225
13:50:34.734,-0.415,0.265
13:50:34.742,-0.435,0.275
13:50:34.750,-0.375,0.305
13:50:34.758,-0.335,0.335
13:50:34.766,-0.355,0.345
13:50:34.773,-0.315,0.385
13:50:34.781,-0.295,0.385
13:50:34.789,-0.305,0.375
13:50:34.797,-0.295,0.355
13:50:34.805,-0.315,0.345
13:50:34.813,-0.305,0.335
13:50:34.820,-0.305,0.275
13:50:34.828,-0.355,0.235
13:50:34.836,-0.385,0.185
13:50:34.844,-0.405,0.135
13:50:34.852,-0.455,0.095
13:50:34.859,-0.455,0.095
13:50:34.867,-0.475,0.075
13:50:34.875,-0.495,0.055
13:50:34.883,-0.505,0.055
13:50:34.891,-0.515,0.075
13:50:34.898,-0.485,0.075
13:50:34.906,-0.495,0.075
13:50:34.914,-0.485,0.065
13:50:34.922,-0.485,0.075
13:50:34.930,-0.495,0.065
13:50:34.938,-0.485,0.075
13:50:34.945,-0.475,0.075
13:50:34.953,-0.465,0.085
13:50:34.961,-0.465,0.075
13:50:34.969,-0.465,0.065
13:50:34.977,-0.455,0.075
13:50:34.984,-0.445,0.075
13:50:34.992,-0.445,0.075
13:50:35.000,-0.445,0.065
13:50:35.008,-0.435,0.065
13:50:35.016,-0.455,0.065
13:50:35.023,-0.465,0.065
13:50:35.031,-0.455,0.045
13:50:35.039,-0.455,0.055
13:50:35.047,-0.405,0.085
13:50:35.055,-0.345,0.125
13:50:35.063,-0.385,0.115
13:50:35.070,-0.305,0.145
13:50:35.078,-0.275,0.155
13:50:35.086,-0.305,0.115
13:50:35.094,-0.305,0.075
13:50:35.102,-0.355,0.055
13:50:35.109,-0.385,0.065
13:50:35.117,-0.435,0.035
13:50:35.125,-0.475,0.015
13:50:35.133,-0.505,0.005
13:50:35.141,-0.505,-0.005
13:50:35.148,-0.505,-0.005
13:50:35.156,-0.505,-0.005
13:50:35.164,-0.485,-0.015
13:50:35.172,-0.475,-0.005
13:50:35.180,-0.535,0.015
13:50:35.188,-0.595,0.115
13:50:35.195,-0.345,0.315
13:50:35.203,0.305,0.505
13:50:35.211,0.905,0.035
13:50:35.219,0.815,-0.325
13:50:35.227,-0.145,-0.575
13:50:35.234,-1.065,-0.625
13:50:35.242,-0.815,-0.325
13:50:35.250,-0.475,-0.015
13:50:35.258,-0.435,0.065
13:50:35.266,-0.465,0.045
13:50:35.273,-0.475,0.035
13:50:35.281,-0.465,0.035
13:50:35.289,-0.465,0.035
13:50:35.297,-0.475,0.045
13:50:35.305,-0.445,0.055
13:50:35.313,-0.415,0.055
13:50:35.320,-0.435,0.065
13:50:35.328,-0.405,0.075
13:50:35.336,-0.395,0.085
13:50:35.344,-0.395,0.075
13:50:35.352,-0.365,0.105
13:50:35.359,-0.345,0.125
13:50:35.367,-0.325,0.125
13:50:35.375,-0.295,0.135
13:50:35.383,-0.265,0.165
13:50:35.391,-0.265,0.195
13:50:35.398,-0.235,0.205
13:50:35.406,-0.215,0.225
13:50:35.414,-0.175,0.245
13:50:35.422,-0.155,0.265
13:50:35.430,-0.145,0.275
13:50:35.438,-0.165,0.275
13:50:35.445,-0.175,0.275
13:50:35.453,-0.155,0.255
13:50:35.461,-0.105,0.245
13:50:35.469,-0.185,0.175
13:50:35.477,-0.215,0.125
13:50:35.484,-0.225,0.085
13:50:35.492,-0.235,0.065
13:50:35.500,-0.275,0.035
13:50:35.508,-0.305,0.005
13:50:35.516,-0.335,-0.005
13:50:35.523,-0.335,-0.005
13:50:35.531,-0.345,-0.015
13:50:35.539,-0.355,-0.015
13:50:35.547,-0.345,-0.005
13:50:35.555,-0.335,-0.005
13:50:35.563,-0.365,-0.015
13:50:35.570,-0.335,-0.015
13:50:35.578,-0.305,0.015
13:50:35.586,-0.295,-0.005
13:50:35.594,-0.275,-0.005
13:50:35.602,-0.295,-0.005
13:50:35.609,-0.265,0.005
13:50:35.617,-0.285,0.005
13:50:35.625,-0.265,-0.005
13:50:35.633,-0.285,-0.005
13:50:35.641,-0.245,-0.005
13:50:35.648,-0.255,-0.005
13:50:35.656,-0.255,-0.005
13:50:35.664,-0.285,-0.025
13:50:35.672,-0.255,-0.005
13:50:35.680,-0.215,0.025
13:50:35.688,-0.175,0.055
13:50:35.695,-0.205,0.055
13:50:35.703,-0.135,0.085
13:50:35.711,-0.105,0.085
13:50:35.719,-0.125,0.045
13:50:35.727,-0.145,0.015
13:50:35.734,-0.185,0.005
13:50:35.742,-0.195,0.005
13:50:35.750,-0.275,-0.035
13:50:35.758,-0.315,-0.065
13:50:35.766,-0.325,-0.065
13:50:35.773,-0.325,-0.065
13:50:35.781,-0.325,-0.075
13:50:35.789,-0.295,-0.075
13:50:35.797,-0.295,-0.065
13:50:35.805,-0.305,-0.075
13:50:35.813,-0.345,-0.065
13:50:35.820,-0.425,0.025
13:50:35.828,-0.245,0.235
13:50:35.836,0.315,0.445
13:50:35.844,0.935,0.015
13:50:35.852,1.005,-0.445
13:50:35.859,0.165,-0.665
13:50:35.867,-0.835,-0.735
13:50:35.875,-0.535,-0.305
13:50:35.883,-0.315,-0.045
13:50:35.891,-0.245,0.025
13:50:35.898,-0.265,0.005
13:50:35.906,-0.325,-0.045
13:50:35.914,-0.315,-0.025
13:50:35.922,-0.315,-0.015
13:50:35.930,-0.325,-0.015
13:50:35.938,-0.305,-0.005
13:50:35.945,-0.295,-0.005
13:50:35.953,-0.265,0.015
13:50:35.961,-0.225,0.025
13:50:35.969,-0.275,0.015
13:50:35.977,-0.255,0.025
13:50:35.984,-0.225,0.045
13:50:35.992,-0.185,0.065
13:50:36.000,-0.165,0.085
13:50:36.008,-0.135,0.085
13:50:36.016,-0.135,0.115
