Time,ECG1,ECG2
19:31:08.212,-0.19,-0.215
19:31:08.216,-0.185,-0.225
19:31:08.220,-0.18,-0.235
19:31:08.224,-0.195,-0.21
19:31:08.228,-0.18,-0.22
19:31:08.232,-0.155,-0.22
19:31:08.236,-0.18,-0.215
19:31:08.240,-0.175,-0.215
19:31:08.244,-0.17,-0.24
19:31:08.248,-0.18,-0.215
19:31:08.252,-0.18,-0.23
19:31:08.256,-0.17,-0.225
19:31:08.260,-0.175,-0.23
19:31:08.264,-0.165,-0.225
19:31:08.268,-0.17,-0.22
19:31:08.272,-0.15,-0.205
19:31:08.276,-0.15,-0.215
19:31:08.280,-0.17,-0.195
19:31:08.284,-0.16,-0.19
19:31:08.288,-0.175,-0.19
19:31:08.292,-0.16,-0.195
19:31:08.296,-0.155,-0.215
19:31:08.300,-0.17,-0.205
19:31:08.304,-0.175,-0.2
19:31:08.308,-0.175,-0.21
19:31:08.312,-0.17,-0.2
19:31:08.316,-0.165,-0.19
19:31:08.320,-0.175,-0.195
19:31:08.324,-0.18,-0.19
19:31:08.328,-0.195,-0.22
19:31:08.332,-0.21,-0.225
19:31:08.336,-0.195,-0.205
19:31:08.340,-0.205,-0.19
19:31:08.344,-0.19,-0.205
19:31:08.348,-0.185,-0.21
19:31:08.352,-0.2,-0.205
19:31:08.356,-0.21,-0.225
19:31:08.360,-0.2,-0.23
19:31:08.364,-0.2,-0.19
19:31:08.368,-0.2,-0.21
19:31:08.372,-0.185,-0.22
19:31:08.376,-0.21,-0.205
19:31:08.380,-0.205,-0.2
19:31:08.384,-0.21,-0.2
19:31:08.388,-0.17,-0.195
19:31:08.392,-0.175,-0.205
19:31:08.396,-0.18,-0.195
19:31:08.400,-0.18,-0.195
19:31:08.404,-0.16,-0.195
19:31:08.408,-0.19,-0.19
19:31:08.412,-0.195,-0.185
19:31:08.416,-0.18,-0.18
19:31:08.420,-0.2,-0.2
19:31:08.424,-0.185,-0.21
19:31:08.428,-0.185,-0.22
19:31:08.432,-0.19,-0.21
19:31:08.436,-0.205,-0.21
19:31:08.440,-0.21,-0.2
19:31:08.444,-0.22,-0.205
19:31:08.448,-0.22,-0.19
19:31:08.452,-0.225,-0.23
19:31:08.456,-0.205,-0.22
19:31:08.460,-0.215,-0.22
19:31:08.464,-0.225,-0.23
19:31:08.468,-0.225,-0.22
19:31:08.472,-0.21,-0.24
19:31:08.476,-0.22,-0.235
19:31:08.480,-0.23,-0.23
19:31:08.484,-0.25,-0.22
19:31:08.488,-0.235,-0.23
19:31:08.492,-0.235,-0.19
19:31:08.496,-0.24,-0.24
19:31:08.500,-0.235,-0.225
19:31:08.504,-0.23,-0.23
19:31:08.508,-0.23,-0.23
19:31:08.512,-0.24,-0.215
19:31:08.516,-0.225,-0.205
19:31:08.520,-0.225,-0.2
19:31:08.524,-0.22,-0.2
19:31:08.528,-0.2,-0.18
19:31:08.532,-0.2,-0.155
19:31:08.536,-0.215,-0.16
19:31:08.540,-0.195,-0.175
19:31:08.544,-0.225,-0.155
19:31:08.548,-0.235,-0.19
19:31:08.552,-0.265,-0.195
19:31:08.556,-0.265,-0.225
19:31:08.560,-0.26,-0.28
19:31:08.564,-0.265,-0.315
19:31:08.568,-0.27,-0.335
19:31:08.572,-0.27,-0.345
19:31:08.576,-0.28,-0.385
19:31:08.580,-0.275,-0.375
19:31:08.584,-0.275,-0.345
19:31:08.588,-0.29,-0.34
19:31:08.592,-0.285,-0.33
19:31:08.596,-0.325,-0.31
19:31:08.600,-0.32,-0.32
19:31:08.604,-0.32,-0.315
19:31:08.608,-0.34,-0.265
19:31:08.612,-0.335,-0.26
19:31:08.616,-0.34,-0.245
19:31:08.620,-0.33,-0.255
19:31:08.624,-0.315,-0.25
19:31:08.628,-0.3,-0.26
19:31:08.632,-0.32,-0.25
19:31:08.636,-0.3,-0.23
19:31:08.640,-0.32,-0.255
19:31:08.644,-0.31,-0.255
19:31:08.648,-0.32,-0.275
19:31:08.652,-0.32,-0.295
19:31:08.656,-0.29,-0.265
19:31:08.660,-0.32,-0.255
19:31:08.664,-0.315,-0.28
19:31:08.668,-0.3,-0.305
19:31:08.672,-0.295,-0.255
19:31:08.676,-0.275,-0.27
19:31:08.680,-0.24,-0.27
19:31:08.684,-0.155,-0.27
19:31:08.688,-0.05,-0.29
19:31:08.692,0.045,-0.315
19:31:08.696,0.065,-0.335
19:31:08.700,0.075,-0.4
19:31:08.704,0.07,-0.445
19:31:08.708,0.045,-0.48
19:31:08.712,0.005,-0.53
19:31:08.716,-0.04,-0.62
19:31:08.720,-0.01,-0.72
19:31:08.724,0.135,-0.885
19:31:08.728,0.36,-1.1
19:31:08.732,0.695,-1.355
19:31:08.736,0.99,-1.545
19:31:08.740,1.145,-1.65
19:31:08.744,1.165,-1.55
19:31:08.748,0.98,-1.225
19:31:08.752,0.515,-0.775
19:31:08.756,0.085,-0.42
19:31:08.760,-0.165,-0.25
19:31:08.764,-0.265,-0.145
19:31:08.768,-0.35,-0.095
19:31:08.772,-0.395,-0.06
19:31:08.776,-0.41,-0.105
19:31:08.780,-0.43,-0.11
19:31:08.784,-0.44,-0.115
19:31:08.788,-0.445,-0.12
19:31:08.792,-0.47,-0.13
19:31:08.796,-0.48,-0.13
19:31:08.800,-0.485,-0.15
19:31:08.804,-0.51,-0.145
19:31:08.808,-0.51,-0.16
19:31:08.812,-0.52,-0.155
19:31:08.816,-0.505,-0.16
19:31:08.820,-0.52,-0.155
19:31:08.824,-0.525,-0.17
19:31:08.828,-0.52,-0.165
19:31:08.832,-0.52,-0.155
19:31:08.836,-0.5,-0.165
19:31:08.840,-0.53,-0.17
19:31:08.844,-0.52,-0.165
19:31:08.848,-0.52,-0.16
19:31:08.852,-0.505,-0.145
19:31:08.856,-0.515,-0.18
19:31:08.860,-0.51,-0.185
19:31:08.864,-0.505,-0.18
19:31:08.868,-0.51,-0.155
19:31:08.872,-0.505,-0.155
19:31:08.876,-0.51,-0.145
19:31:08.880,-0.48,-0.15
19:31:08.884,-0.5,-0.15
19:31:08.888,-0.5,-0.135
19:31:08.892,-0.495,-0.135
19:31:08.896,-0.495,-0.115
19:31:08.900,-0.465,-0.155
19:31:08.904,-0.485,-0.145
19:31:08.908,-0.47,-0.135
19:31:08.912,-0.455,-0.135
19:31:08.916,-0.46,-0.135
19:31:08.920,-0.475,-0.135
19:31:08.924,-0.46,-0.16
19:31:08.928,-0.455,-0.13
19:31:08.932,-0.43,-0.16
19:31:08.936,-0.44,-0.16
19:31:08.940,-0.43,-0.17
19:31:08.944,-0.44,-0.16
19:31:08.948,-0.435,-0.16
19:31:08.952,-0.425,-0.15
19:31:08.956,-0.43,-0.14
19:31:08.960,-0.42,-0.16
19:31:08.964,-0.42,-0.165
19:31:08.968,-0.42,-0.155
19:31:08.972,-0.395,-0.16
19:31:08.976,-0.39,-0.17
19:31:08.980,-0.38,-0.16
19:31:08.984,-0.375,-0.175
19:31:08.988,-0.365,-0.16
19:31:08.992,-0.365,-0.175
19:31:08.996,-0.36,-0.16
19:31:09.000,-0.355,-0.17
19:31:09.004,-0.355,-0.16
19:31:09.008,-0.365,-0.175
19:31:09.012,-0.345,-0.155
19:31:09.016,-0.34,-0.165
19:31:09.020,-0.335,-0.18
19:31:09.024,-0.34,-0.17
19:31:09.028,-0.355,-0.17
19:31:09.032,-0.35,-0.145
19:31:09.036,-0.365,-0.15
19:31:09.040,-0.335,-0.15
19:31:09.044,-0.33,-0.15
19:31:09.048,-0.34,-0.135
19:31:09.052,-0.34,-0.145
19:31:09.056,-0.335,-0.15
19:31:09.060,-0.35,-0.145
19:31:09.064,-0.32,-0.16
19:31:09.068,-0.315,-0.13
19:31:09.072,-0.335,-0.145
19:31:09.076,-0.335,-0.125
19:31:09.080,-0.32,-0.12
19:31:09.084,-0.33,-0.13
19:31:09.088,-0.34,-0.135
19:31:09.092,-0.35,-0.12
19:31:09.096,-0.375,-0.12
19:31:09.100,-0.355,-0.11
19:31:09.104,-0.36,-0.12
19:31:09.108,-0.375,-0.095
19:31:09.112,-0.355,-0.07
19:31:09.116,-0.335,-0.07
19:31:09.120,-0.335,-0.08
19:31:09.124,-0.35,-0.075
19:31:09.128,-0.35,-0.1
19:31:09.132,-0.345,-0.085
19:31:09.136,-0.325,-0.075
19:31:09.140,-0.3,-0.075
19:31:09.144,-0.27,-0.05
19:31:09.148,-0.29,-0.05
19:31:09.152,-0.315,-0.05
19:31:09.156,-0.295,-0.045
19:31:09.160,-0.3,-0.04
19:31:09.164,-0.29,-0.055
19:31:09.168,-0.3,-0.06
19:31:09.172,-0.28,-0.06
19:31:09.176,-0.265,-0.1
19:31:09.180,-0.285,-0.135
19:31:09.184,-0.33,-0.16
19:31:09.188,-0.365,-0.17
19:31:09.192,-0.395,-0.14
19:31:09.196,-0.415,-0.16
19:31:09.200,-0.44,-0.115
19:31:09.204,-0.46,-0.09
19:31:09.208,-0.465,-0.07
19:31:09.212,-0.44,-0.04
19:31:09.216,-0.45,-0.045
19:31:09.220,-0.445,-0.035
19:31:09.224,-0.45,-0.04
19:31:09.228,-0.445,-0.005
19:31:09.232,-0.45,-0.04
19:31:09.236,-0.44,-0.045
19:31:09.240,-0.435,-0.05
19:31:09.244,-0.435,-0.045
19:31:09.248,-0.43,-0.055
19:31:09.252,-0.43,-0.04
19:31:09.256,-0.44,-0.045
19:31:09.260,-0.45,-0.08
19:31:09.264,-0.445,-0.065
19:31:09.268,-0.45,-0.065
19:31:09.272,-0.445,-0.075
19:31:09.276,-0.44,-0.075
19:31:09.280,-0.445,-0.06
19:31:09.284,-0.465,-0.08
19:31:09.288,-0.44,-0.075
19:31:09.292,-0.425,-0.06
19:31:09.296,-0.43,-0.085
19:31:09.300,-0.355,-0.09
19:31:09.304,-0.295,-0.08
19:31:09.308,-0.2,-0.075
19:31:09.312,-0.115,-0.1
19:31:09.316,-0.04,-0.13
19:31:09.320,-0.005,-0.19
19:31:09.324,0.07,-0.23
19:31:09.328,0.125,-0.27
19:31:09.332,0.125,-0.32
19:31:09.336,0.1,-0.4
19:31:09.340,0.105,-0.515
19:31:09.344,0.27,-0.68
19:31:09.348,0.555,-0.885
19:31:09.352,0.84,-1.13
19:31:09.356,0.965,-1.32
19:31:09.360,0.86,-1.405
19:31:09.364,0.46,-1.205
19:31:09.368,0.0,-0.775
19:31:09.372,-0.27,-0.425
19:31:09.376,-0.405,-0.225
19:31:09.380,-0.455,-0.11
19:31:09.384,-0.505,0.0
19:31:09.388,-0.51,0.055
19:31:09.392,-0.575,0.075
19:31:09.396,-0.57,0.095
19:31:09.400,-0.605,0.075
19:31:09.404,-0.615,0.06
19:31:09.408,-0.61,0.035
19:31:09.412,-0.595,0.02
19:31:09.416,-0.6,0.015
19:31:09.420,-0.62,0.03
19:31:09.424,-0.63,0.005
19:31:09.428,-0.6,0.02
19:31:09.432,-0.605,0.025
19:31:09.436,-0.605,0.02
19:31:09.440,-0.605,0.015
19:31:09.444,-0.615,0.03
19:31:09.448,-0.605,0.03
19:31:09.452,-0.575,0.005
19:31:09.456,-0.605,0.015
19:31:09.460,-0.605,0.035
19:31:09.464,-0.605,0.025
19:31:09.468,-0.6,0.045
19:31:09.472,-0.625,0.035
19:31:09.476,-0.625,0.015
19:31:09.480,-0.625,0.03
19:31:09.484,-0.625,0.015
19:31:09.488,-0.64,0.02
19:31:09.492,-0.63,0.04
19:31:09.496,-0.62,0.02
19:31:09.500,-0.64,0.035
19:31:09.504,-0.64,0.05
19:31:09.508,-0.66,0.045
19:31:09.512,-0.655,0.02
19:31:09.516,-0.645,0.045
19:31:09.520,-0.635,0.045
19:31:09.524,-0.625,0.02
19:31:09.528,-0.625,0.02
19:31:09.532,-0.61,0.025
19:31:09.536,-0.61,0.035
19:31:09.540,-0.615,0.01
19:31:09.544,-0.61,0.025
19:31:09.548,-0.605,0.005
19:31:09.552,-0.575,0.005
19:31:09.556,-0.565,0.0
19:31:09.560,-0.56,0.0
19:31:09.564,-0.565,0.0
19:31:09.568,-0.53,-0.015
19:31:09.572,-0.505,-0.015
19:31:09.576,-0.51,-0.025
19:31:09.580,-0.485,-0.025
19:31:09.584,-0.475,-0.045
19:31:09.588,-0.475,-0.03
19:31:09.592,-0.49,-0.04
19:31:09.596,-0.475,-0.03
19:31:09.600,-0.465,-0.045
19:31:09.604,-0.445,-0.04
19:31:09.608,-0.45,-0.04
19:31:09.612,-0.46,-0.07
19:31:09.616,-0.45,-0.055
19:31:09.620,-0.44,-0.045
19:31:09.624,-0.45,-0.045
19:31:09.628,-0.43,-0.075
19:31:09.632,-0.445,-0.065
19:31:09.636,-0.45,-0.08
19:31:09.640,-0.455,-0.07
19:31:09.644,-0.45,-0.06
19:31:09.648,-0.46,-0.065
19:31:09.652,-0.475,-0.07
19:31:09.656,-0.465,-0.055
19:31:09.660,-0.44,-0.07
19:31:09.664,-0.43,-0.075
19:31:09.668,-0.45,-0.08
19:31:09.672,-0.46,-0.065
19:31:09.676,-0.48,-0.08
19:31:09.680,-0.465,-0.065
19:31:09.684,-0.47,-0.06
19:31:09.688,-0.48,-0.06
19:31:09.692,-0.45,-0.045
19:31:09.696,-0.465,-0.045
19:31:09.700,-0.465,-0.055
19:31:09.704,-0.485,-0.04
19:31:09.708,-0.505,-0.05
19:31:09.712,-0.47,-0.05
19:31:09.716,-0.485,-0.06
19:31:09.720,-0.485,-0.025
19:31:09.724,-0.475,-0.06
19:31:09.728,-0.47,-0.06
19:31:09.732,-0.5,-0.07
19:31:09.736,-0.485,-0.045
19:31:09.740,-0.48,-0.05
19:31:09.744,-0.47,-0.055
19:31:09.748,-0.465,-0.045
19:31:09.752,-0.46,-0.035
19:31:09.756,-0.455,-0.04
19:31:09.760,-0.46,-0.045
19:31:09.764,-0.445,-0.05
19:31:09.768,-0.43,-0.075
19:31:09.772,-0.42,-0.08
19:31:09.776,-0.405,-0.09
19:31:09.780,-0.43,-0.125
19:31:09.784,-0.445,-0.145
19:31:09.788,-0.48,-0.165
19:31:09.792,-0.51,-0.16
19:31:09.796,-0.53,-0.135
19:31:09.800,-0.535,-0.14
19:31:09.804,-0.54,-0.1
19:31:09.808,-0.52,-0.065
19:31:09.812,-0.54,-0.05
19:31:09.816,-0.52,-0.03
19:31:09.820,-0.55,-0.025
19:31:09.824,-0.56,-0.02
19:31:09.828,-0.54,-0.055
19:31:09.832,-0.535,-0.035
19:31:09.836,-0.555,-0.06
19:31:09.840,-0.54,-0.065
19:31:09.844,-0.55,-0.055
19:31:09.848,-0.565,-0.055
19:31:09.852,-0.575,-0.085
19:31:09.856,-0.54,-0.075
19:31:09.860,-0.57,-0.06
19:31:09.864,-0.575,-0.08
19:31:09.868,-0.57,-0.1
19:31:09.872,-0.57,-0.105
19:31:09.876,-0.555,-0.11
19:31:09.880,-0.56,-0.1
19:31:09.884,-0.55,-0.11
19:31:09.888,-0.53,-0.13
19:31:09.892,-0.52,-0.11
19:31:09.896,-0.495,-0.1
19:31:09.900,-0.455,-0.105
19:31:09.904,-0.375,-0.105
19:31:09.908,-0.28,-0.125
19:31:09.912,-0.18,-0.145
19:31:09.916,-0.09,-0.19
19:31:09.920,-0.065,-0.22
19:31:09.924,-0.015,-0.29
19:31:09.928,0.025,-0.305
19:31:09.932,0.035,-0.38
19:31:09.936,0.015,-0.49
19:31:09.940,0.08,-0.63
19:31:09.944,0.265,-0.81
19:31:09.948,0.575,-1.04
19:31:09.952,0.87,-1.255
19:31:09.956,0.98,-1.44
19:31:09.960,0.785,-1.455
19:31:09.964,0.32,-1.195
19:31:09.968,-0.12,-0.765
19:31:09.972,-0.42,-0.425
19:31:09.976,-0.555,-0.255
19:31:09.980,-0.615,-0.15
19:31:09.984,-0.63,-0.035
19:31:09.988,-0.665,0.005
19:31:09.992,-0.67,0.015
19:31:09.996,-0.69,0.04
19:31:10.000,-0.705,0.025
19:31:10.004,-0.7,0.015
19:31:10.008,-0.7,0.02
19:31:10.012,-0.71,0.015
19:31:10.016,-0.715,0.01
19:31:10.020,-0.715,-0.01
19:31:10.024,-0.71,0.02
19:31:10.028,-0.705,0.0
19:31:10.032,-0.7,-0.015
19:31:10.036,-0.7,-0.01
19:31:10.040,-0.695,0.005
19:31:10.044,-0.69,0.02
19:31:10.048,-0.69,0.005
19:31:10.052,-0.71,0.005
19:31:10.056,-0.705,0.03
19:31:10.060,-0.7,0.005
19:31:10.064,-0.705,0.01
19:31:10.068,-0.715,0.005
19:31:10.072,-0.71,0.03
19:31:10.076,-0.715,0.02
19:31:10.080,-0.725,0.03
19:31:10.084,-0.725,0.015
19:31:10.088,-0.73,0.03
19:31:10.092,-0.725,0.035
19:31:10.096,-0.74,0.01
19:31:10.100,-0.735,0.035
19:31:10.104,-0.73,0.005
19:31:10.108,-0.735,0.005
19:31:10.112,-0.735,0.015
19:31:10.116,-0.725,0.015
19:31:10.120,-0.715,0.005
19:31:10.124,-0.71,0.015
19:31:10.128,-0.72,0.0
19:31:10.132,-0.7,0.005
19:31:10.136,-0.695,0.02
19:31:10.140,-0.685,0.01
19:31:10.144,-0.68,0.0
19:31:10.148,-0.665,0.005
19:31:10.152,-0.64,0.005
19:31:10.156,-0.615,0.005
19:31:10.160,-0.61,0.0
19:31:10.164,-0.615,-0.03
19:31:10.168,-0.6,-0.04
19:31:10.172,-0.61,-0.045
19:31:10.176,-0.565,-0.03
19:31:10.180,-0.565,-0.025
19:31:10.184,-0.55,-0.035
19:31:10.188,-0.55,-0.04
19:31:10.192,-0.535,-0.045
19:31:10.196,-0.545,-0.06
19:31:10.200,-0.535,-0.06
19:31:10.204,-0.52,-0.06
19:31:10.208,-0.525,-0.055
19:31:10.212,-0.51,-0.07
19:31:10.216,-0.49,-0.07
19:31:10.220,-0.495,-0.095
19:31:10.224,-0.51,-0.09
19:31:10.228,-0.505,-0.1
19:31:10.232,-0.495,-0.095
19:31:10.236,-0.5,-0.11
19:31:10.240,-0.49,-0.115
19:31:10.244,-0.495,-0.08
19:31:10.248,-0.48,-0.095
19:31:10.252,-0.49,-0.07
19:31:10.256,-0.49,-0.085
19:31:10.260,-0.49,-0.09
19:31:10.264,-0.5,-0.07
19:31:10.268,-0.465,-0.06
19:31:10.272,-0.46,-0.1
19:31:10.276,-0.47,-0.08
19:31:10.280,-0.47,-0.08
19:31:10.284,-0.47,-0.075
19:31:10.288,-0.47,-0.075
19:31:10.292,-0.455,-0.065
19:31:10.296,-0.475,-0.05
19:31:10.300,-0.445,-0.065
19:31:10.304,-0.46,-0.05
19:31:10.308,-0.485,-0.065
19:31:10.312,-0.485,-0.065
19:31:10.316,-0.485,-0.075
19:31:10.320,-0.49,-0.075
19:31:10.324,-0.49,-0.055
19:31:10.328,-0.485,-0.08
19:31:10.332,-0.475,-0.095
19:31:10.336,-0.48,-0.07
19:31:10.340,-0.475,-0.065
19:31:10.344,-0.46,-0.1
19:31:10.348,-0.44,-0.095
19:31:10.352,-0.425,-0.085
19:31:10.356,-0.42,-0.08
19:31:10.360,-0.43,-0.07
19:31:10.364,-0.435,-0.08
19:31:10.368,-0.44,-0.09
19:31:10.372,-0.42,-0.08
19:31:10.376,-0.405,-0.09
19:31:10.380,-0.4,-0.065
19:31:10.384,-0.37,-0.11
19:31:10.388,-0.4,-0.16
19:31:10.392,-0.42,-0.18
19:31:10.396,-0.425,-0.19
19:31:10.400,-0.45,-0.195
19:31:10.404,-0.47,-0.16
19:31:10.408,-0.49,-0.14
19:31:10.412,-0.53,-0.12
19:31:10.416,-0.51,-0.11
19:31:10.420,-0.525,-0.06
19:31:10.424,-0.505,-0.07
19:31:10.428,-0.49,-0.065
19:31:10.432,-0.52,-0.08
19:31:10.436,-0.5,-0.085
19:31:10.440,-0.48,-0.08
19:31:10.444,-0.485,-0.105
19:31:10.448,-0.5,-0.095
19:31:10.452,-0.49,-0.1
19:31:10.456,-0.505,-0.075
19:31:10.460,-0.485,-0.08
19:31:10.464,-0.465,-0.115
19:31:10.468,-0.465,-0.115
19:31:10.472,-0.45,-0.115
19:31:10.476,-0.48,-0.11
19:31:10.480,-0.475,-0.125
19:31:10.484,-0.47,-0.1
19:31:10.488,-0.465,-0.125
19:31:10.492,-0.455,-0.135
19:31:10.496,-0.445,-0.135
19:31:10.500,-0.445,-0.125
19:31:10.504,-0.395,-0.115
19:31:10.508,-0.315,-0.135
19:31:10.512,-0.25,-0.135
19:31:10.516,-0.18,-0.145
19:31:10.520,-0.095,-0.16
19:31:10.524,-0.01,-0.185
19:31:10.528,0.02,-0.245
19:31:10.532,0.065,-0.305
19:31:10.536,0.08,-0.35
19:31:10.540,0.075,-0.425
19:31:10.544,0.065,-0.525
19:31:10.548,0.13,-0.66
19:31:10.552,0.325,-0.85
19:31:10.556,0.665,-1.105
19:31:10.560,0.935,-1.36
19:31:10.564,1.035,-1.525
19:31:10.568,0.84,-1.545
19:31:10.572,0.395,-1.27
19:31:10.576,-0.04,-0.83
19:31:10.580,-0.295,-0.465
19:31:10.584,-0.385,-0.29
19:31:10.588,-0.455,-0.15
19:31:10.592,-0.49,-0.065
19:31:10.596,-0.5,-0.03
19:31:10.600,-0.535,0.015
19:31:10.604,-0.56,0.015
19:31:10.608,-0.55,0.02
19:31:10.612,-0.545,0.01
19:31:10.616,-0.555,-0.015
19:31:10.620,-0.56,-0.025
19:31:10.624,-0.54,-0.04
19:31:10.628,-0.54,-0.03
19:31:10.632,-0.545,-0.03
19:31:10.636,-0.545,-0.04
19:31:10.640,-0.53,-0.04
19:31:10.644,-0.53,-0.045
19:31:10.648,-0.54,-0.045
19:31:10.652,-0.55,-0.06
19:31:10.656,-0.565,-0.05
19:31:10.660,-0.57,-0.06
19:31:10.664,-0.55,-0.05
19:31:10.668,-0.56,-0.05
19:31:10.672,-0.545,-0.045
19:31:10.676,-0.54,-0.07
19:31:10.680,-0.575,-0.065
19:31:10.684,-0.59,-0.06
19:31:10.688,-0.585,-0.085
19:31:10.692,-0.6,-0.065
19:31:10.696,-0.59,-0.06
19:31:10.700,-0.58,-0.06
19:31:10.704,-0.57,-0.065
19:31:10.708,-0.595,-0.065
19:31:10.712,-0.565,-0.06
19:31:10.716,-0.565,-0.085
19:31:10.720,-0.565,-0.09
19:31:10.724,-0.565,-0.055
19:31:10.728,-0.555,-0.06
19:31:10.732,-0.57,-0.065
19:31:10.736,-0.56,-0.08
19:31:10.740,-0.54,-0.095
19:31:10.744,-0.51,-0.09
19:31:10.748,-0.505,-0.07
19:31:10.752,-0.495,-0.085
19:31:10.756,-0.48,-0.08
19:31:10.760,-0.475,-0.08
19:31:10.764,-0.46,-0.115
19:31:10.768,-0.45,-0.105
19:31:10.772,-0.445,-0.105
19:31:10.776,-0.425,-0.12
19:31:10.780,-0.42,-0.115
19:31:10.784,-0.43,-0.14
19:31:10.788,-0.42,-0.17
19:31:10.792,-0.42,-0.145
19:31:10.796,-0.4,-0.16
19:31:10.800,-0.375,-0.175
19:31:10.804,-0.38,-0.175
19:31:10.808,-0.37,-0.185
19:31:10.812,-0.36,-0.19
19:31:10.816,-0.345,-0.2
19:31:10.820,-0.34,-0.19
19:31:10.824,-0.36,-0.205
19:31:10.828,-0.37,-0.2
19:31:10.832,-0.355,-0.21
19:31:10.836,-0.355,-0.195
19:31:10.840,-0.335,-0.21
19:31:10.844,-0.325,-0.21
19:31:10.848,-0.315,-0.2
19:31:10.852,-0.3,-0.215
19:31:10.856,-0.27,-0.2
19:31:10.860,-0.285,-0.2
19:31:10.864,-0.29,-0.18
19:31:10.868,-0.3,-0.21
19:31:10.872,-0.32,-0.18
19:31:10.876,-0.31,-0.19
19:31:10.880,-0.305,-0.185
19:31:10.884,-0.315,-0.18
19:31:10.888,-0.3,-0.17
19:31:10.892,-0.295,-0.19
19:31:10.896,-0.3,-0.2
19:31:10.900,-0.31,-0.19
19:31:10.904,-0.315,-0.21
19:31:10.908,-0.315,-0.215
19:31:10.912,-0.325,-0.215
19:31:10.916,-0.35,-0.19
19:31:10.920,-0.37,-0.215
19:31:10.924,-0.345,-0.21
19:31:10.928,-0.33,-0.22
19:31:10.932,-0.345,-0.21
19:31:10.936,-0.32,-0.19
19:31:10.940,-0.35,-0.22
19:31:10.944,-0.34,-0.225
19:31:10.948,-0.365,-0.21
19:31:10.952,-0.345,-0.22
19:31:10.956,-0.36,-0.215
19:31:10.960,-0.35,-0.21
19:31:10.964,-0.37,-0.215
19:31:10.968,-0.355,-0.195
19:31:10.972,-0.365,-0.205
19:31:10.976,-0.355,-0.22
19:31:10.980,-0.335,-0.22
19:31:10.984,-0.33,-0.215
19:31:10.988,-0.34,-0.18
19:31:10.992,-0.32,-0.17
19:31:10.996,-0.32,-0.185
19:31:11.000,-0.3,-0.19
19:31:11.004,-0.26,-0.18
19:31:11.008,-0.23,-0.225
19:31:11.012,-0.225,-0.235
19:31:11.016,-0.22,-0.28
19:31:11.020,-0.24,-0.3
19:31:11.024,-0.285,-0.325
19:31:11.028,-0.3,-0.325
19:31:11.032,-0.31,-0.3
19:31:11.036,-0.315,-0.3
19:31:11.040,-0.335,-0.28
19:31:11.044,-0.36,-0.255
19:31:11.048,-0.345,-0.25
19:31:11.052,-0.32,-0.235
19:31:11.056,-0.325,-0.22
19:31:11.060,-0.31,-0.22
19:31:11.064,-0.31,-0.215
19:31:11.068,-0.32,-0.23
19:31:11.072,-0.3,-0.265
19:31:11.076,-0.325,-0.25
19:31:11.080,-0.32,-0.27
19:31:11.084,-0.3,-0.275
19:31:11.088,-0.295,-0.29
19:31:11.092,-0.3,-0.265
19:31:11.096,-0.29,-0.265
19:31:11.100,-0.29,-0.26
19:31:11.104,-0.285,-0.265
19:31:11.108,-0.295,-0.26
19:31:11.112,-0.285,-0.25
19:31:11.116,-0.27,-0.255
19:31:11.120,-0.27,-0.25
19:31:11.124,-0.245,-0.25
19:31:11.128,-0.205,-0.275
19:31:11.132,-0.16,-0.25
19:31:11.136,-0.06,-0.26
19:31:11.140,0.01,-0.275
19:31:11.144,0.075,-0.315
19:31:11.148,0.15,-0.355
19:31:11.152,0.19,-0.44
19:31:11.156,0.255,-0.475
19:31:11.160,0.27,-0.505
19:31:11.164,0.25,-0.585
19:31:11.168,0.26,-0.7
19:31:11.172,0.38,-0.83
19:31:11.176,0.635,-1.03
19:31:11.180,0.965,-1.26
19:31:11.184,1.18,-1.47
19:31:11.188,1.16,-1.575
19:31:11.192,0.83,-1.485
19:31:11.196,0.34,-1.115
19:31:11.200,-0.02,-0.73
19:31:11.204,-0.195,-0.485
19:31:11.208,-0.29,-0.35
19:31:11.212,-0.335,-0.22
19:31:11.216,-0.335,-0.12
19:31:11.220,-0.38,-0.095
19:31:11.224,-0.4,-0.085
19:31:11.228,-0.42,-0.085
19:31:11.232,-0.43,-0.1
19:31:11.236,-0.43,-0.12
19:31:11.240,-0.44,-0.12
19:31:11.244,-0.47,-0.115
19:31:11.248,-0.45,-0.12
19:31:11.252,-0.45,-0.11
19:31:11.256,-0.455,-0.12
19:31:11.260,-0.465,-0.12
19:31:11.264,-0.46,-0.115
19:31:11.268,-0.47,-0.135
19:31:11.272,-0.49,-0.11
19:31:11.276,-0.49,-0.14
19:31:11.280,-0.5,-0.14
19:31:11.284,-0.5,-0.14
19:31:11.288,-0.49,-0.125
19:31:11.292,-0.505,-0.14
19:31:11.296,-0.485,-0.145
19:31:11.300,-0.5,-0.135
19:31:11.304,-0.495,-0.15
19:31:11.308,-0.515,-0.13
19:31:11.312,-0.505,-0.135
19:31:11.316,-0.5,-0.13
19:31:11.320,-0.51,-0.115
19:31:11.324,-0.52,-0.11
19:31:11.328,-0.495,-0.125
19:31:11.332,-0.5,-0.125
19:31:11.336,-0.475,-0.11
19:31:11.340,-0.47,-0.11
19:31:11.344,-0.475,-0.135
19:31:11.348,-0.465,-0.12
19:31:11.352,-0.46,-0.105
19:31:11.356,-0.47,-0.1
19:31:11.360,-0.46,-0.09
19:31:11.364,-0.46,-0.12
19:31:11.368,-0.44,-0.13
19:31:11.372,-0.445,-0.125
19:31:11.376,-0.45,-0.14
19:31:11.380,-0.43,-0.14
19:31:11.384,-0.42,-0.14
19:31:11.388,-0.41,-0.165
19:31:11.392,-0.41,-0.16
19:31:11.396,-0.39,-0.195
19:31:11.400,-0.385,-0.195
19:31:11.404,-0.38,-0.215
19:31:11.408,-0.355,-0.235
19:31:11.412,-0.34,-0.235
19:31:11.416,-0.335,-0.24
19:31:11.420,-0.33,-0.245
19:31:11.424,-0.31,-0.235
19:31:11.428,-0.31,-0.245
19:31:11.432,-0.305,-0.275
19:31:11.436,-0.29,-0.255
19:31:11.440,-0.28,-0.25
19:31:11.444,-0.26,-0.25
19:31:11.448,-0.265,-0.265
19:31:11.452,-0.235,-0.245
19:31:11.456,-0.24,-0.25
19:31:11.460,-0.26,-0.24
19:31:11.464,-0.265,-0.25
19:31:11.468,-0.24,-0.23
19:31:11.472,-0.245,-0.21
19:31:11.476,-0.24,-0.235
19:31:11.480,-0.245,-0.25
19:31:11.484,-0.24,-0.265
19:31:11.488,-0.245,-0.25
19:31:11.492,-0.245,-0.235
19:31:11.496,-0.245,-0.255
19:31:11.500,-0.26,-0.255
19:31:11.504,-0.265,-0.255
19:31:11.508,-0.245,-0.25
19:31:11.512,-0.25,-0.25
19:31:11.516,-0.25,-0.235
19:31:11.520,-0.25,-0.265
19:31:11.524,-0.245,-0.255
19:31:11.528,-0.245,-0.28
19:31:11.532,-0.25,-0.27
19:31:11.536,-0.265,-0.27
19:31:11.540,-0.26,-0.25
19:31:11.544,-0.26,-0.275
19:31:11.548,-0.255,-0.265
19:31:11.552,-0.26,-0.25
19:31:11.556,-0.265,-0.265
19:31:11.560,-0.255,-0.27
19:31:11.564,-0.245,-0.27
19:31:11.568,-0.24,-0.27
19:31:11.572,-0.24,-0.255
19:31:11.576,-0.25,-0.275
19:31:11.580,-0.235,-0.25
19:31:11.584,-0.25,-0.245
19:31:11.588,-0.235,-0.27
19:31:11.592,-0.24,-0.255
19:31:11.596,-0.265,-0.28
19:31:11.600,-0.23,-0.29
19:31:11.604,-0.22,-0.28
19:31:11.608,-0.22,-0.285
19:31:11.612,-0.2,-0.28
19:31:11.616,-0.2,-0.275
19:31:11.620,-0.17,-0.275
19:31:11.624,-0.2,-0.29
19:31:11.628,-0.215,-0.3
19:31:11.632,-0.19,-0.27
19:31:11.636,-0.185,-0.27
19:31:11.640,-0.19,-0.26
19:31:11.644,-0.16,-0.265
19:31:11.648,-0.115,-0.25
19:31:11.652,-0.11,-0.23
19:31:11.656,-0.1,-0.23
19:31:11.660,-0.08,-0.25
19:31:11.664,-0.065,-0.265
19:31:11.668,-0.045,-0.275
19:31:11.672,-0.06,-0.26
19:31:11.676,-0.1,-0.26
19:31:11.680,-0.105,-0.285
19:31:11.684,-0.17,-0.325
19:31:11.688,-0.175,-0.325
19:31:11.692,-0.23,-0.36
19:31:11.696,-0.26,-0.36
19:31:11.700,-0.3,-0.36
19:31:11.704,-0.305,-0.32
19:31:11.708,-0.315,-0.31
19:31:11.712,-0.32,-0.295
19:31:11.716,-0.32,-0.26
19:31:11.720,-0.31,-0.265
19:31:11.724,-0.315,-0.24
19:31:11.728,-0.32,-0.285
19:31:11.732,-0.305,-0.305
19:31:11.736,-0.33,-0.29
19:31:11.740,-0.325,-0.31
19:31:11.744,-0.32,-0.305
19:31:11.748,-0.31,-0.33
19:31:11.752,-0.31,-0.31
19:31:11.756,-0.305,-0.32
19:31:11.760,-0.305,-0.325
19:31:11.764,-0.305,-0.33
19:31:11.768,-0.305,-0.33
19:31:11.772,-0.29,-0.325
19:31:11.776,-0.3,-0.305
19:31:11.780,-0.28,-0.335
19:31:11.784,-0.305,-0.32
19:31:11.788,-0.3,-0.33
19:31:11.792,-0.285,-0.325
19:31:11.796,-0.26,-0.315
19:31:11.800,-0.27,-0.34
19:31:11.804,-0.255,-0.33
19:31:11.808,-0.235,-0.3
19:31:11.812,-0.195,-0.315
19:31:11.816,-0.12,-0.315
19:31:11.820,-0.045,-0.32
19:31:11.824,0.04,-0.325
19:31:11.828,0.12,-0.355
19:31:11.832,0.15,-0.42
19:31:11.836,0.185,-0.48
19:31:11.840,0.22,-0.505
19:31:11.844,0.245,-0.53
19:31:11.848,0.185,-0.635
19:31:11.852,0.195,-0.78
19:31:11.856,0.315,-0.915
19:31:11.860,0.575,-1.13
19:31:11.864,0.92,-1.385
19:31:11.868,1.15,-1.65
19:31:11.872,1.2,-1.745
19:31:11.876,0.945,-1.655
19:31:11.880,0.46,-1.26
19:31:11.884,0.05,-0.855
19:31:11.888,-0.15,-0.57
19:31:11.892,-0.255,-0.385
19:31:11.896,-0.315,-0.285
19:31:11.900,-0.33,-0.215
19:31:11.904,-0.36,-0.175
19:31:11.908,-0.365,-0.175
19:31:11.912,-0.345,-0.155
19:31:11.916,-0.375,-0.16
19:31:11.920,-0.385,-0.18
19:31:11.924,-0.345,-0.2
19:31:11.928,-0.35,-0.2
19:31:11.932,-0.37,-0.18
19:31:11.936,-0.37,-0.195
19:31:11.940,-0.36,-0.195
19:31:11.944,-0.365,-0.17
19:31:11.948,-0.395,-0.175
19:31:11.952,-0.41,-0.16
19:31:11.956,-0.4,-0.17
19:31:11.960,-0.395,-0.17
19:31:11.964,-0.42,-0.165
19:31:11.968,-0.415,-0.165
19:31:11.972,-0.415,-0.18
19:31:11.976,-0.42,-0.16
19:31:11.980,-0.405,-0.18
19:31:11.984,-0.425,-0.205
19:31:11.988,-0.42,-0.185
19:31:11.992,-0.435,-0.18
19:31:11.996,-0.405,-0.19
19:31:12.000,-0.42,-0.2
19:31:12.004,-0.425,-0.19
19:31:12.008,-0.42,-0.17
19:31:12.012,-0.425,-0.195
19:31:12.016,-0.415,-0.185
19:31:12.020,-0.395,-0.17
19:31:12.024,-0.395,-0.175
19:31:12.028,-0.39,-0.155
19:31:12.032,-0.395,-0.185
19:31:12.036,-0.38,-0.16
19:31:12.040,-0.38,-0.14
19:31:12.044,-0.365,-0.16
19:31:12.048,-0.36,-0.15
19:31:12.052,-0.36,-0.14
19:31:12.056,-0.325,-0.155
19:31:12.060,-0.32,-0.16
19:31:12.064,-0.315,-0.175
19:31:12.068,-0.305,-0.16
19:31:12.072,-0.305,-0.18
19:31:12.076,-0.28,-0.195
19:31:12.080,-0.28,-0.215
19:31:12.084,-0.3,-0.215
19:31:12.088,-0.28,-0.235
19:31:12.092,-0.265,-0.235
19:31:12.096,-0.27,-0.24
19:31:12.100,-0.23,-0.23
19:31:12.104,-0.22,-0.26
19:31:12.108,-0.2,-0.255
19:31:12.112,-0.21,-0.285
19:31:12.116,-0.2,-0.26
19:31:12.120,-0.175,-0.27
19:31:12.124,-0.145,-0.26
19:31:12.128,-0.16,-0.275
19:31:12.132,-0.15,-0.28
19:31:12.136,-0.15,-0.26
19:31:12.140,-0.145,-0.27
19:31:12.144,-0.16,-0.255
19:31:12.148,-0.12,-0.245
19:31:12.152,-0.1,-0.25
19:31:12.156,-0.12,-0.25
19:31:12.160,-0.11,-0.235
19:31:12.164,-0.1,-0.23
19:31:12.168,-0.1,-0.21
19:31:12.172,-0.09,-0.22
19:31:12.176,-0.09,-0.24
19:31:12.180,-0.1,-0.21
19:31:12.184,-0.095,-0.21
19:31:12.188,-0.085,-0.21
19:31:12.192,-0.09,-0.23
19:31:12.196,-0.095,-0.25
19:31:12.200,-0.105,-0.24
19:31:12.204,-0.115,-0.23
19:31:12.208,-0.125,-0.235
19:31:12.212,-0.125,-0.245
19:31:12.216,-0.07,-0.22
19:31:12.220,-0.06,-0.235
19:31:12.224,-0.06,-0.235
19:31:12.228,-0.06,-0.23
19:31:12.232,-0.07,-0.235
19:31:12.236,-0.05,-0.24
19:31:12.240,-0.045,-0.22
19:31:12.244,0.0,-0.21
19:31:12.248,0.005,-0.21
19:31:12.252,0.065,-0.205
19:31:12.256,0.09,-0.175
19:31:12.260,0.13,-0.18
19:31:12.264,0.155,-0.18
19:31:12.268,0.175,-0.195
19:31:12.272,0.195,-0.185
19:31:12.276,0.2,-0.195
19:31:12.280,0.19,-0.2
19:31:12.284,0.175,-0.23
19:31:12.288,0.115,-0.255
19:31:12.292,0.055,-0.29
19:31:12.296,0.015,-0.29
19:31:12.300,-0.03,-0.28
19:31:12.304,-0.065,-0.275
19:31:12.308,-0.125,-0.285
19:31:12.312,-0.155,-0.255
19:31:12.316,-0.195,-0.24
19:31:12.320,-0.22,-0.245
19:31:12.324,-0.22,-0.26
19:31:12.328,-0.22,-0.265
19:31:12.332,-0.22,-0.27
19:31:12.336,-0.19,-0.28
19:31:12.340,-0.185,-0.29
19:31:12.344,-0.175,-0.315
19:31:12.348,-0.205,-0.315
19:31:12.352,-0.215,-0.315
19:31:12.356,-0.215,-0.31
19:31:12.360,-0.18,-0.31
19:31:12.364,-0.18,-0.3
19:31:12.368,-0.2,-0.275
19:31:12.372,-0.195,-0.275
19:31:12.376,-0.19,-0.28
19:31:12.380,-0.155,-0.3
19:31:12.384,-0.145,-0.295
19:31:12.388,-0.145,-0.315
19:31:12.392,-0.16,-0.3
19:31:12.396,-0.15,-0.32
19:31:12.400,-0.13,-0.295
19:31:12.404,-0.105,-0.29
19:31:12.408,-0.12,-0.3
19:31:12.412,-0.11,-0.305
19:31:12.416,-0.105,-0.295
19:31:12.420,-0.1,-0.31
19:31:12.424,-0.105,-0.305
19:31:12.428,-0.085,-0.31
19:31:12.432,-0.02,-0.31
19:31:12.436,0.03,-0.31
19:31:12.440,0.095,-0.32
19:31:12.444,0.185,-0.335
19:31:12.448,0.275,-0.36
19:31:12.452,0.34,-0.42
19:31:12.456,0.39,-0.48
19:31:12.460,0.445,-0.51
19:31:12.464,0.465,-0.535
19:31:12.468,0.465,-0.625
19:31:12.472,0.465,-0.725
19:31:12.476,0.59,-0.85
19:31:12.480,0.865,-1.025
19:31:12.484,1.18,-1.295
19:31:12.488,1.35,-1.495
19:31:12.492,1.27,-1.565
19:31:12.496,0.92,-1.455
19:31:12.500,0.455,-1.07
19:31:12.504,0.12,-0.71
19:31:12.508,-0.02,-0.5
19:31:12.512,-0.085,-0.385
19:31:12.516,-0.13,-0.29
19:31:12.520,-0.15,-0.19
19:31:12.524,-0.16,-0.175
19:31:12.528,-0.195,-0.16
19:31:12.532,-0.21,-0.155
19:31:12.536,-0.21,-0.16
19:31:12.540,-0.23,-0.175
19:31:12.544,-0.215,-0.205
19:31:12.548,-0.245,-0.195
19:31:12.552,-0.215,-0.21
19:31:12.556,-0.23,-0.21
19:31:12.560,-0.255,-0.185
19:31:12.564,-0.255,-0.205
19:31:12.568,-0.28,-0.2
19:31:12.572,-0.28,-0.205
19:31:12.576,-0.265,-0.21
19:31:12.580,-0.26,-0.225
19:31:12.584,-0.265,-0.185
19:31:12.588,-0.25,-0.21
19:31:12.592,-0.26,-0.21
19:31:12.596,-0.27,-0.21
19:31:12.600,-0.26,-0.23
19:31:12.604,-0.285,-0.225
19:31:12.608,-0.285,-0.24
19:31:12.612,-0.28,-0.21
19:31:12.616,-0.275,-0.21
19:31:12.620,-0.265,-0.215
19:31:12.624,-0.285,-0.21
19:31:12.628,-0.28,-0.18
19:31:12.632,-0.285,-0.17
19:31:12.636,-0.28,-0.17
19:31:12.640,-0.28,-0.18
19:31:12.644,-0.285,-0.155
19:31:12.648,-0.285,-0.165
19:31:12.652,-0.275,-0.16
19:31:12.656,-0.27,-0.16
19:31:12.660,-0.29,-0.18
19:31:12.664,-0.285,-0.175
19:31:12.668,-0.28,-0.17
19:31:12.672,-0.27,-0.175
19:31:12.676,-0.265,-0.18
19:31:12.680,-0.26,-0.21
19:31:12.684,-0.26,-0.195
19:31:12.688,-0.27,-0.21
19:31:12.692,-0.265,-0.21
19:31:12.696,-0.26,-0.215
19:31:12.700,-0.24,-0.235
19:31:12.704,-0.245,-0.235
19:31:12.708,-0.225,-0.225
19:31:12.712,-0.22,-0.235
19:31:12.716,-0.21,-0.245
19:31:12.720,-0.19,-0.26
19:31:12.724,-0.185,-0.26
19:31:12.728,-0.19,-0.295
19:31:12.732,-0.175,-0.275
19:31:12.736,-0.16,-0.29
19:31:12.740,-0.16,-0.3
19:31:12.744,-0.11,-0.285
19:31:12.748,-0.125,-0.3
19:31:12.752,-0.12,-0.305
19:31:12.756,-0.125,-0.295
19:31:12.760,-0.125,-0.29
19:31:12.764,-0.13,-0.27
19:31:12.768,-0.125,-0.29
19:31:12.772,-0.12,-0.28
19:31:12.776,-0.135,-0.27
19:31:12.780,-0.115,-0.265
19:31:12.784,-0.13,-0.27
19:31:12.788,-0.15,-0.27
19:31:12.792,-0.135,-0.28
19:31:12.796,-0.13,-0.275
19:31:12.800,-0.14,-0.27
19:31:12.804,-0.135,-0.285
19:31:12.808,-0.13,-0.29
19:31:12.812,-0.125,-0.295
19:31:12.816,-0.11,-0.275
19:31:12.820,-0.1,-0.3
19:31:12.824,-0.085,-0.26
19:31:12.828,-0.08,-0.26
19:31:12.832,-0.095,-0.245
19:31:12.836,-0.095,-0.255
19:31:12.840,-0.075,-0.24
19:31:12.844,-0.055,-0.245
19:31:12.848,-0.015,-0.235
19:31:12.852,0.015,-0.21
19:31:12.856,0.04,-0.21
19:31:12.860,0.075,-0.195
19:31:12.864,0.095,-0.195
19:31:12.868,0.135,-0.175
19:31:12.872,0.15,-0.19
19:31:12.876,0.16,-0.195
19:31:12.880,0.16,-0.215
19:31:12.884,0.135,-0.235
19:31:12.888,0.105,-0.265
19:31:12.892,0.04,-0.27
19:31:12.896,0.0,-0.29
19:31:12.900,-0.06,-0.285
19:31:12.904,-0.13,-0.29
19:31:12.908,-0.18,-0.3
19:31:12.912,-0.235,-0.255
19:31:12.916,-0.275,-0.25
19:31:12.920,-0.295,-0.255
19:31:12.924,-0.28,-0.24
19:31:12.928,-0.27,-0.235
19:31:12.932,-0.265,-0.27
19:31:12.936,-0.285,-0.28
19:31:12.940,-0.265,-0.28
19:31:12.944,-0.27,-0.275
19:31:12.948,-0.265,-0.285
19:31:12.952,-0.27,-0.285
19:31:12.956,-0.27,-0.28
19:31:12.960,-0.26,-0.275
19:31:12.964,-0.25,-0.27
19:31:12.968,-0.245,-0.265
19:31:12.972,-0.225,-0.26
19:31:12.976,-0.21,-0.24
19:31:12.980,-0.23,-0.265
19:31:12.984,-0.24,-0.255
19:31:12.988,-0.24,-0.24
19:31:12.992,-0.22,-0.22
19:31:12.996,-0.24,-0.235
19:31:13.000,-0.24,-0.25
19:31:13.004,-0.235,-0.25
19:31:13.008,-0.22,-0.24
19:31:13.012,-0.21,-0.24
19:31:13.016,-0.205,-0.26
19:31:13.020,-0.205,-0.255
19:31:13.024,-0.2,-0.245
19:31:13.028,-0.195,-0.285
19:31:13.032,-0.165,-0.27
19:31:13.036,-0.125,-0.25
19:31:13.040,-0.04,-0.27
19:31:13.044,0.035,-0.275
19:31:13.048,0.12,-0.295
19:31:13.052,0.18,-0.355
19:31:13.056,0.225,-0.41
19:31:13.060,0.25,-0.46
19:31:13.064,0.27,-0.49
19:31:13.068,0.255,-0.565
19:31:13.072,0.28,-0.675
19:31:13.076,0.375,-0.835
19:31:13.080,0.605,-1.03
19:31:13.084,0.94,-1.305
19:31:13.088,1.225,-1.545
19:31:13.092,1.285,-1.655
19:31:13.096,1.035,-1.575
19:31:13.100,0.56,-1.21
19:31:13.104,0.14,-0.775
19:31:13.108,-0.085,-0.48
19:31:13.112,-0.205,-0.305
19:31:13.116,-0.25,-0.2
19:31:13.120,-0.265,-0.13
19:31:13.124,-0.295,-0.095
19:31:13.128,-0.29,-0.075
19:31:13.132,-0.32,-0.055
19:31:13.136,-0.31,-0.065
19:31:13.140,-0.31,-0.065
19:31:13.144,-0.325,-0.08
19:31:13.148,-0.32,-0.08
19:31:13.152,-0.34,-0.08
19:31:13.156,-0.33,-0.08
19:31:13.160,-0.33,-0.07
19:31:13.164,-0.325,-0.1
19:31:13.168,-0.33,-0.09
19:31:13.172,-0.33,-0.11
19:31:13.176,-0.34,-0.1
19:31:13.180,-0.32,-0.085
19:31:13.184,-0.355,-0.09
19:31:13.188,-0.325,-0.085
19:31:13.192,-0.33,-0.09
19:31:13.196,-0.335,-0.075
19:31:13.200,-0.335,-0.07
19:31:13.204,-0.335,-0.065
19:31:13.208,-0.325,-0.075
19:31:13.212,-0.34,-0.065
19:31:13.216,-0.325,-0.065
19:31:13.220,-0.32,-0.06
19:31:13.224,-0.34,-0.045
19:31:13.228,-0.34,-0.035
19:31:13.232,-0.34,-0.04
19:31:13.236,-0.33,-0.04
19:31:13.240,-0.32,-0.02
19:31:13.244,-0.32,-0.025
19:31:13.248,-0.305,-0.015
19:31:13.252,-0.32,-0.04
19:31:13.256,-0.305,-0.04
19:31:13.260,-0.325,-0.045
19:31:13.264,-0.31,-0.045
19:31:13.268,-0.31,-0.03
19:31:13.272,-0.295,-0.045
19:31:13.276,-0.3,-0.075
19:31:13.280,-0.29,-0.08
19:31:13.284,-0.28,-0.08
19:31:13.288,-0.275,-0.08
19:31:13.292,-0.24,-0.09
19:31:13.296,-0.26,-0.115
19:31:13.300,-0.235,-0.115
19:31:13.304,-0.23,-0.125
19:31:13.308,-0.21,-0.14
19:31:13.312,-0.22,-0.125
19:31:13.316,-0.195,-0.135
19:31:13.320,-0.16,-0.145
19:31:13.324,-0.15,-0.14
19:31:13.328,-0.145,-0.15
19:31:13.332,-0.135,-0.15
19:31:13.336,-0.13,-0.16
19:31:13.340,-0.13,-0.16
19:31:13.344,-0.13,-0.155
19:31:13.348,-0.125,-0.16
19:31:13.352,-0.12,-0.15
19:31:13.356,-0.12,-0.16
19:31:13.360,-0.105,-0.15
19:31:13.364,-0.085,-0.145
19:31:13.368,-0.095,-0.15
19:31:13.372,-0.105,-0.16
19:31:13.376,-0.09,-0.155
19:31:13.380,-0.105,-0.14
19:31:13.384,-0.125,-0.155
19:31:13.388,-0.095,-0.155
19:31:13.392,-0.1,-0.16
19:31:13.396,-0.085,-0.15
19:31:13.400,-0.075,-0.13
19:31:13.404,-0.075,-0.13
19:31:13.408,-0.065,-0.135
19:31:13.412,-0.05,-0.125
19:31:13.416,-0.05,-0.13
19:31:13.420,-0.02,-0.095
19:31:13.424,-0.01,-0.105
19:31:13.428,0.015,-0.07
19:31:13.432,0.06,-0.08
19:31:13.436,0.09,-0.07
19:31:13.440,0.13,-0.075
19:31:13.444,0.125,-0.065
19:31:13.448,0.155,-0.06
19:31:13.452,0.165,-0.065
19:31:13.456,0.165,-0.05
19:31:13.460,0.16,-0.075
19:31:13.464,0.125,-0.095
19:31:13.468,0.075,-0.12
19:31:13.472,0.03,-0.13
19:31:13.476,-0.02,-0.14
19:31:13.480,-0.08,-0.16
19:31:13.484,-0.135,-0.16
19:31:13.488,-0.185,-0.145
19:31:13.492,-0.215,-0.125
19:31:13.496,-0.26,-0.11
19:31:13.500,-0.27,-0.115
19:31:13.504,-0.27,-0.1
19:31:13.508,-0.26,-0.12
19:31:13.512,-0.25,-0.125
19:31:13.516,-0.26,-0.13
19:31:13.520,-0.26,-0.16
19:31:13.524,-0.25,-0.135
19:31:13.528,-0.215,-0.145
19:31:13.532,-0.235,-0.14
19:31:13.536,-0.22,-0.13
19:31:13.540,-0.24,-0.13
19:31:13.544,-0.23,-0.125
19:31:13.548,-0.23,-0.13
19:31:13.552,-0.205,-0.14
19:31:13.556,-0.21,-0.14
19:31:13.560,-0.195,-0.12
19:31:13.564,-0.19,-0.135
19:31:13.568,-0.2,-0.145
19:31:13.572,-0.175,-0.135
19:31:13.576,-0.185,-0.15
19:31:13.580,-0.16,-0.135
19:31:13.584,-0.16,-0.135
19:31:13.588,-0.14,-0.15
19:31:13.592,-0.165,-0.14
19:31:13.596,-0.14,-0.145
19:31:13.600,-0.16,-0.15
19:31:13.604,-0.15,-0.16
19:31:13.608,-0.115,-0.155
19:31:13.612,-0.09,-0.15
19:31:13.616,-0.035,-0.165
19:31:13.620,0.08,-0.15
19:31:13.624,0.165,-0.2
19:31:13.628,0.23,-0.23
19:31:13.632,0.275,-0.295
19:31:13.636,0.32,-0.34
19:31:13.640,0.365,-0.365
19:31:13.644,0.365,-0.41
19:31:13.648,0.345,-0.505
19:31:13.652,0.375,-0.645
19:31:13.656,0.54,-0.78
19:31:13.660,0.84,-1.025
19:31:13.664,1.165,-1.27
19:31:13.668,1.275,-1.47
19:31:13.672,1.135,-1.535
19:31:13.676,0.725,-1.33
19:31:13.680,0.27,-0.885
19:31:13.684,0.005,-0.525
19:31:13.688,-0.095,-0.305
19:31:13.692,-0.15,-0.17
19:31:13.696,-0.175,-0.095
19:31:13.700,-0.19,-0.05
19:31:13.704,-0.235,-0.01
19:31:13.708,-0.23,0.0
19:31:13.712,-0.265,-0.045
19:31:13.716,-0.285,-0.04
19:31:13.720,-0.295,-0.045
19:31:13.724,-0.295,-0.06
19:31:13.728,-0.295,-0.055
19:31:13.732,-0.295,-0.06
19:31:13.736,-0.29,-0.055
19:31:13.740,-0.28,-0.09
19:31:13.744,-0.3,-0.1
19:31:13.748,-0.31,-0.085
19:31:13.752,-0.31,-0.08
19:31:13.756,-0.3,-0.1
19:31:13.760,-0.285,-0.095
19:31:13.764,-0.265,-0.08
19:31:13.768,-0.3,-0.115
19:31:13.772,-0.305,-0.125
19:31:13.776,-0.305,-0.085
19:31:13.780,-0.33,-0.1
19:31:13.784,-0.32,-0.095
19:31:13.788,-0.305,-0.095
19:31:13.792,-0.315,-0.09
19:31:13.796,-0.3,-0.095
19:31:13.800,-0.3,-0.065
19:31:13.804,-0.295,-0.08
19:31:13.808,-0.29,-0.08
19:31:13.812,-0.295,-0.08
19:31:13.816,-0.285,-0.05
19:31:13.820,-0.3,-0.07
19:31:13.824,-0.31,-0.065
19:31:13.828,-0.3,-0.075
19:31:13.832,-0.29,-0.075
19:31:13.836,-0.285,-0.075
19:31:13.840,-0.255,-0.07
19:31:13.844,-0.245,-0.07
19:31:13.848,-0.275,-0.085
19:31:13.852,-0.265,-0.1
19:31:13.856,-0.275,-0.09
19:31:13.860,-0.265,-0.11
19:31:13.864,-0.235,-0.125
19:31:13.868,-0.225,-0.125
19:31:13.872,-0.225,-0.13
19:31:13.876,-0.195,-0.135
19:31:13.880,-0.19,-0.155
19:31:13.884,-0.175,-0.16
19:31:13.888,-0.175,-0.18
19:31:13.892,-0.18,-0.2
19:31:13.896,-0.165,-0.17
19:31:13.900,-0.13,-0.185
19:31:13.904,-0.135,-0.185
19:31:13.908,-0.105,-0.205
19:31:13.912,-0.11,-0.205
19:31:13.916,-0.095,-0.205
19:31:13.920,-0.12,-0.205
19:31:13.924,-0.1,-0.215
19:31:13.928,-0.095,-0.21
19:31:13.932,-0.08,-0.21
19:31:13.936,-0.08,-0.23
19:31:13.940,-0.08,-0.22
19:31:13.944,-0.07,-0.22
19:31:13.948,-0.09,-0.23
19:31:13.952,-0.08,-0.215
19:31:13.956,-0.1,-0.22
19:31:13.960,-0.125,-0.24
19:31:13.964,-0.105,-0.235
19:31:13.968,-0.125,-0.23
19:31:13.972,-0.1,-0.22
19:31:13.976,-0.09,-0.215
19:31:13.980,-0.11,-0.22
19:31:13.984,-0.115,-0.215
19:31:13.988,-0.105,-0.225
19:31:13.992,-0.09,-0.21
19:31:13.996,-0.065,-0.215
19:31:14.000,-0.075,-0.235
19:31:14.004,-0.05,-0.245
19:31:14.008,-0.05,-0.23
19:31:14.012,-0.05,-0.22
19:31:14.016,-0.02,-0.2
19:31:14.020,0.005,-0.21
19:31:14.024,0.06,-0.19
19:31:14.028,0.09,-0.19
19:31:14.032,0.1,-0.15
19:31:14.036,0.12,-0.15
19:31:14.040,0.135,-0.165
19:31:14.044,0.17,-0.155
19:31:14.048,0.195,-0.17
19:31:14.052,0.185,-0.175
19:31:14.056,0.155,-0.195
19:31:14.060,0.08,-0.22
19:31:14.064,0.045,-0.235
19:31:14.068,0.005,-0.255
19:31:14.072,-0.055,-0.24
19:31:14.076,-0.12,-0.265
19:31:14.080,-0.17,-0.25
19:31:14.084,-0.22,-0.235
19:31:14.088,-0.255,-0.22
19:31:14.092,-0.275,-0.2
19:31:14.096,-0.27,-0.21
19:31:14.100,-0.245,-0.225
19:31:14.104,-0.27,-0.24
19:31:14.108,-0.255,-0.24
19:31:14.112,-0.25,-0.24
19:31:14.116,-0.25,-0.235
19:31:14.120,-0.24,-0.24
19:31:14.124,-0.245,-0.23
19:31:14.128,-0.24,-0.23
19:31:14.132,-0.235,-0.245
19:31:14.136,-0.235,-0.25
19:31:14.140,-0.23,-0.24
19:31:14.144,-0.23,-0.235
19:31:14.148,-0.23,-0.245
19:31:14.152,-0.22,-0.24
19:31:14.156,-0.235,-0.225
19:31:14.160,-0.24,-0.24
19:31:14.164,-0.21,-0.235
19:31:14.168,-0.215,-0.23
19:31:14.172,-0.22,-0.225
19:31:14.176,-0.22,-0.235
19:31:14.180,-0.215,-0.24
19:31:14.184,-0.22,-0.24
19:31:14.188,-0.225,-0.22
19:31:14.192,-0.215,-0.22
19:31:14.196,-0.205,-0.22
19:31:14.200,-0.175,-0.235
19:31:14.204,-0.135,-0.24
19:31:14.208,-0.05,-0.255
19:31:14.212,0.0,-0.245
19:31:14.216,0.095,-0.27
19:31:14.220,0.175,-0.29
19:31:14.224,0.235,-0.34
19:31:14.228,0.275,-0.39
19:31:14.232,0.31,-0.45
19:31:14.236,0.34,-0.5
19:31:14.240,0.325,-0.6
19:31:14.244,0.38,-0.735
19:31:14.248,0.55,-0.895
19:31:14.252,0.845,-1.13
19:31:14.256,1.18,-1.38
19:31:14.260,1.345,-1.545
19:31:14.264,1.24,-1.585
19:31:14.268,0.815,-1.395
19:31:14.272,0.325,-0.975
19:31:14.276,0.0,-0.59
19:31:14.280,-0.13,-0.395
19:31:14.284,-0.215,-0.265
19:31:14.288,-0.245,-0.145
19:31:14.292,-0.275,-0.105
19:31:14.296,-0.32,-0.05
19:31:14.300,-0.32,-0.06
19:31:14.304,-0.33,-0.075
19:31:14.308,-0.365,-0.065
19:31:14.312,-0.37,-0.095
19:31:14.316,-0.355,-0.1
19:31:14.320,-0.375,-0.115
19:31:14.324,-0.385,-0.12
19:31:14.328,-0.355,-0.095
19:31:14.332,-0.36,-0.13
19:31:14.336,-0.375,-0.11
19:31:14.340,-0.35,-0.13
19:31:14.344,-0.36,-0.15
19:31:14.348,-0.395,-0.135
19:31:14.352,-0.39,-0.12
19:31:14.356,-0.39,-0.11
19:31:14.360,-0.375,-0.09
19:31:14.364,-0.4,-0.105
19:31:14.368,-0.385,-0.095
19:31:14.372,-0.385,-0.105
19:31:14.376,-0.385,-0.11
19:31:14.380,-0.385,-0.1
19:31:14.384,-0.38,-0.09
19:31:14.388,-0.375,-0.09
19:31:14.392,-0.37,-0.08
19:31:14.396,-0.365,-0.08
19:31:14.400,-0.385,-0.095
19:31:14.404,-0.375,-0.075
19:31:14.408,-0.37,-0.055
19:31:14.412,-0.385,-0.075
19:31:14.416,-0.385,-0.085
19:31:14.420,-0.4,-0.065
19:31:14.424,-0.39,-0.065
19:31:14.428,-0.385,-0.07
19:31:14.432,-0.395,-0.07
19:31:14.436,-0.395,-0.07
19:31:14.440,-0.34,-0.08
19:31:14.444,-0.335,-0.105
19:31:14.448,-0.34,-0.095
19:31:14.452,-0.33,-0.085
19:31:14.456,-0.315,-0.115
19:31:14.460,-0.33,-0.12
19:31:14.464,-0.32,-0.115
19:31:14.468,-0.31,-0.145
19:31:14.472,-0.29,-0.14
19:31:14.476,-0.29,-0.135
19:31:14.480,-0.26,-0.15
19:31:14.484,-0.245,-0.15
19:31:14.488,-0.23,-0.16
19:31:14.492,-0.215,-0.185
19:31:14.496,-0.21,-0.18
19:31:14.500,-0.19,-0.185
19:31:14.504,-0.205,-0.17
19:31:14.508,-0.2,-0.16
19:31:14.512,-0.185,-0.17
19:31:14.516,-0.175,-0.185
19:31:14.520,-0.165,-0.2
19:31:14.524,-0.17,-0.17
19:31:14.528,-0.16,-0.18
19:31:14.532,-0.17,-0.17
19:31:14.536,-0.165,-0.185
19:31:14.540,-0.18,-0.19
19:31:14.544,-0.18,-0.18
19:31:14.548,-0.18,-0.16
19:31:14.552,-0.16,-0.185
19:31:14.556,-0.145,-0.195
19:31:14.560,-0.15,-0.185
19:31:14.564,-0.135,-0.195
19:31:14.568,-0.105,-0.18
19:31:14.572,-0.105,-0.165
19:31:14.576,-0.12,-0.185
19:31:14.580,-0.095,-0.17
19:31:14.584,-0.1,-0.155
19:31:14.588,-0.07,-0.175
19:31:14.592,-0.03,-0.15
19:31:14.596,-0.01,-0.125
19:31:14.600,0.005,-0.11
19:31:14.604,0.04,-0.115
19:31:14.608,0.07,-0.09
19:31:14.612,0.075,-0.12
19:31:14.616,0.095,-0.095
19:31:14.620,0.125,-0.095
19:31:14.624,0.115,-0.13
19:31:14.628,0.095,-0.145
19:31:14.632,0.06,-0.18
19:31:14.636,0.0,-0.19
19:31:14.640,-0.065,-0.205
19:31:14.644,-0.105,-0.21
19:31:14.648,-0.15,-0.22
19:31:14.652,-0.225,-0.195
19:31:14.656,-0.29,-0.185
19:31:14.660,-0.335,-0.16
19:31:14.664,-0.34,-0.15
19:31:14.668,-0.355,-0.16
19:31:14.672,-0.355,-0.18
19:31:14.676,-0.335,-0.205
19:31:14.680,-0.35,-0.185
19:31:14.684,-0.33,-0.2
19:31:14.688,-0.325,-0.205
19:31:14.692,-0.32,-0.2
19:31:14.696,-0.33,-0.215
19:31:14.700,-0.305,-0.215
19:31:14.704,-0.315,-0.195
19:31:14.708,-0.31,-0.205
19:31:14.712,-0.315,-0.22
19:31:14.716,-0.3,-0.195
19:31:14.720,-0.29,-0.21
19:31:14.724,-0.29,-0.23
19:31:14.728,-0.285,-0.21
19:31:14.732,-0.305,-0.205
19:31:14.736,-0.27,-0.185
19:31:14.740,-0.28,-0.205
19:31:14.744,-0.28,-0.2
19:31:14.748,-0.28,-0.2
19:31:14.752,-0.27,-0.19
19:31:14.756,-0.285,-0.2
19:31:14.760,-0.28,-0.19
19:31:14.764,-0.275,-0.18
19:31:14.768,-0.275,-0.22
19:31:14.772,-0.27,-0.215
19:31:14.776,-0.25,-0.205
19:31:14.780,-0.175,-0.205
19:31:14.784,-0.105,-0.215
19:31:14.788,-0.015,-0.255
19:31:14.792,0.05,-0.27
19:31:14.796,0.105,-0.285
19:31:14.800,0.14,-0.365
19:31:14.804,0.16,-0.42
19:31:14.808,0.195,-0.44
19:31:14.812,0.19,-0.49
19:31:14.816,0.19,-0.62
19:31:14.820,0.26,-0.735
19:31:14.824,0.47,-0.94
19:31:14.828,0.805,-1.185
19:31:14.832,1.11,-1.425
19:31:14.836,1.24,-1.615
19:31:14.840,1.08,-1.625
19:31:14.844,0.65,-1.34
19:31:14.848,0.18,-0.895
19:31:14.852,-0.08,-0.545
19:31:14.856,-0.2,-0.32
19:31:14.860,-0.28,-0.2
19:31:14.864,-0.3,-0.13
19:31:14.868,-0.335,-0.095
19:31:14.872,-0.375,-0.04
19:31:14.876,-0.385,-0.015
19:31:14.880,-0.38,-0.02
19:31:14.884,-0.38,-0.02
19:31:14.888,-0.4,-0.04
19:31:14.892,-0.42,-0.05
19:31:14.896,-0.43,-0.055
19:31:14.900,-0.45,-0.045
19:31:14.904,-0.44,-0.05
19:31:14.908,-0.43,-0.045
19:31:14.912,-0.435,-0.035
19:31:14.916,-0.42,-0.045
19:31:14.920,-0.41,-0.06
19:31:14.924,-0.425,-0.06
19:31:14.928,-0.405,-0.04
19:31:14.932,-0.43,-0.06
19:31:14.936,-0.43,-0.035
19:31:14.940,-0.41,-0.045
19:31:14.944,-0.42,-0.04
19:31:14.948,-0.415,-0.025
19:31:14.952,-0.405,-0.015
19:31:14.956,-0.415,-0.035
19:31:14.960,-0.41,-0.035
19:31:14.964,-0.415,-0.04
19:31:14.968,-0.415,-0.015
19:31:14.972,-0.435,0.01
19:31:14.976,-0.425,0.0
19:31:14.980,-0.405,-0.005
19:31:14.984,-0.43,-0.01
19:31:14.988,-0.425,0.005
19:31:14.992,-0.415,0.0
19:31:14.996,-0.43,0.005
19:31:15.000,-0.41,-0.025
19:31:15.004,-0.405,0.0
19:31:15.008,-0.4,-0.01
19:31:15.012,-0.395,-0.01
19:31:15.016,-0.39,-0.01
19:31:15.020,-0.39,-0.01
19:31:15.024,-0.385,-0.025
19:31:15.028,-0.365,-0.05
19:31:15.032,-0.34,-0.06
19:31:15.036,-0.335,-0.065
19:31:15.040,-0.335,-0.07
19:31:15.044,-0.31,-0.08
19:31:15.048,-0.28,-0.07
19:31:15.052,-0.29,-0.1
19:31:15.056,-0.26,-0.085
19:31:15.060,-0.235,-0.1
19:31:15.064,-0.245,-0.09
19:31:15.068,-0.235,-0.11
19:31:15.072,-0.225,-0.11
19:31:15.076,-0.2,-0.105
19:31:15.080,-0.19,-0.105
19:31:15.084,-0.195,-0.105
19:31:15.088,-0.205,-0.1
19:31:15.092,-0.21,-0.115
19:31:15.096,-0.2,-0.125
19:31:15.100,-0.205,-0.115
19:31:15.104,-0.195,-0.105
19:31:15.108,-0.18,-0.095
19:31:15.112,-0.155,-0.085
19:31:15.116,-0.16,-0.105
19:31:15.120,-0.18,-0.105
19:31:15.124,-0.2,-0.115
19:31:15.128,-0.2,-0.1
19:31:15.132,-0.21,-0.09
19:31:15.136,-0.22,-0.115
19:31:15.140,-0.185,-0.105
19:31:15.144,-0.205,-0.095
19:31:15.148,-0.14,-0.09
19:31:15.152,-0.13,-0.09
19:31:15.156,-0.14,-0.085
19:31:15.160,-0.15,-0.09
19:31:15.164,-0.145,-0.095
19:31:15.168,-0.13,-0.08
19:31:15.172,-0.09,-0.045
19:31:15.176,-0.05,-0.045
19:31:15.180,-0.035,-0.04
19:31:15.184,-0.03,-0.025
19:31:15.188,0.005,0.0
19:31:15.192,0.04,0.0
19:31:15.196,0.045,0.015
19:31:15.200,0.07,0.01
19:31:15.204,0.08,0.0
19:31:15.208,0.06,-0.02
19:31:15.212,0.03,-0.025
19:31:15.216,-0.005,-0.06
19:31:15.220,-0.06,-0.06
19:31:15.224,-0.105,-0.07
19:31:15.228,-0.145,-0.075
19:31:15.232,-0.215,-0.08
19:31:15.236,-0.275,-0.08
19:31:15.240,-0.315,-0.075
19:31:15.244,-0.345,-0.05
19:31:15.248,-0.365,-0.06
19:31:15.252,-0.355,-0.05
19:31:15.256,-0.345,-0.045
19:31:15.260,-0.32,-0.085
19:31:15.264,-0.32,-0.06
19:31:15.268,-0.32,-0.085
19:31:15.272,-0.34,-0.095
19:31:15.276,-0.345,-0.105
19:31:15.280,-0.335,-0.105
19:31:15.284,-0.3,-0.1
19:31:15.288,-0.305,-0.105
19:31:15.292,-0.29,-0.085
19:31:15.296,-0.31,-0.09
19:31:15.300,-0.3,-0.095
19:31:15.304,-0.29,-0.065
19:31:15.308,-0.295,-0.075
19:31:15.312,-0.285,-0.055
19:31:15.316,-0.3,-0.08
19:31:15.320,-0.295,-0.065
19:31:15.324,-0.275,-0.06
19:31:15.328,-0.28,-0.075
19:31:15.332,-0.285,-0.075
19:31:15.336,-0.285,-0.07
19:31:15.340,-0.275,-0.07
19:31:15.344,-0.25,-0.09
19:31:15.348,-0.265,-0.1
19:31:15.352,-0.29,-0.09
19:31:15.356,-0.255,-0.095
19:31:15.360,-0.24,-0.075
19:31:15.364,-0.18,-0.095
19:31:15.368,-0.095,-0.11
19:31:15.372,-0.03,-0.105
19:31:15.376,0.05,-0.135
19:31:15.380,0.135,-0.155
19:31:15.384,0.195,-0.24
19:31:15.388,0.265,-0.28
19:31:15.392,0.29,-0.305
19:31:15.396,0.3,-0.34
19:31:15.400,0.28,-0.435
19:31:15.404,0.365,-0.56
19:31:15.408,0.555,-0.7
19:31:15.412,0.88,-0.925
19:31:15.416,1.14,-1.16
19:31:15.420,1.21,-1.3
19:31:15.424,0.98,-1.32
19:31:15.428,0.51,-1.03
19:31:15.432,0.07,-0.62
19:31:15.436,-0.13,-0.33
19:31:15.440,-0.225,-0.195
19:31:15.444,-0.26,-0.085
19:31:15.448,-0.285,0.03
19:31:15.452,-0.33,0.08
19:31:15.456,-0.35,0.1
19:31:15.460,-0.395,0.11
19:31:15.464,-0.4,0.1
19:31:15.468,-0.4,0.09
19:31:15.472,-0.405,0.095
19:31:15.476,-0.415,0.065
19:31:15.480,-0.42,0.075
19:31:15.484,-0.435,0.07
19:31:15.488,-0.42,0.08
19:31:15.492,-0.46,0.055
19:31:15.496,-0.465,0.065
19:31:15.500,-0.45,0.06
19:31:15.504,-0.45,0.07
19:31:15.508,-0.465,0.075
19:31:15.512,-0.45,0.055
19:31:15.516,-0.465,0.095
19:31:15.520,-0.465,0.085
19:31:15.524,-0.46,0.08
19:31:15.528,-0.465,0.065
19:31:15.532,-0.465,0.055
19:31:15.536,-0.485,0.1
19:31:15.540,-0.465,0.105
19:31:15.544,-0.48,0.095
19:31:15.548,-0.475,0.1
19:31:15.552,-0.495,0.115
19:31:15.556,-0.49,0.12
19:31:15.560,-0.48,0.13
19:31:15.564,-0.475,0.12
19:31:15.568,-0.485,0.14
19:31:15.572,-0.505,0.145
19:31:15.576,-0.5,0.16
19:31:15.580,-0.51,0.125
19:31:15.584,-0.495,0.15
19:31:15.588,-0.515,0.15
19:31:15.592,-0.53,0.17
19:31:15.596,-0.525,0.15
19:31:15.600,-0.525,0.155
19:31:15.604,-0.51,0.15
19:31:15.608,-0.49,0.165
19:31:15.612,-0.495,0.13
19:31:15.616,-0.47,0.11
19:31:15.620,-0.46,0.115
19:31:15.624,-0.47,0.105
19:31:15.628,-0.475,0.11
19:31:15.632,-0.45,0.105
19:31:15.636,-0.45,0.105
19:31:15.640,-0.415,0.095
19:31:15.644,-0.42,0.09
19:31:15.648,-0.405,0.065
19:31:15.652,-0.39,0.08
19:31:15.656,-0.385,0.08
19:31:15.660,-0.38,0.045
19:31:15.664,-0.36,0.05
19:31:15.668,-0.355,0.045
19:31:15.672,-0.355,0.065
19:31:15.676,-0.36,0.055
19:31:15.680,-0.35,0.05
19:31:15.684,-0.35,0.075
19:31:15.688,-0.335,0.065
19:31:15.692,-0.37,0.055
19:31:15.696,-0.36,0.06
19:31:15.700,-0.36,0.06
19:31:15.704,-0.365,0.06
19:31:15.708,-0.375,0.075
19:31:15.712,-0.365,0.06
19:31:15.716,-0.395,0.065
19:31:15.720,-0.39,0.065
19:31:15.724,-0.395,0.05
19:31:15.728,-0.365,0.045
19:31:15.732,-0.36,0.05
19:31:15.736,-0.345,0.065
19:31:15.740,-0.34,0.08
19:31:15.744,-0.325,0.075
19:31:15.748,-0.345,0.055
19:31:15.752,-0.315,0.07
19:31:15.756,-0.28,0.085
19:31:15.760,-0.24,0.12
19:31:15.764,-0.195,0.115
19:31:15.768,-0.18,0.155
19:31:15.772,-0.165,0.145
19:31:15.776,-0.13,0.14
19:31:15.780,-0.095,0.14
19:31:15.784,-0.105,0.155
19:31:15.788,-0.11,0.15
19:31:15.792,-0.125,0.125
19:31:15.796,-0.16,0.12
19:31:15.800,-0.19,0.085
19:31:15.804,-0.245,0.055
19:31:15.808,-0.285,0.05
19:31:15.812,-0.34,0.055
19:31:15.816,-0.405,0.065
19:31:15.820,-0.46,0.085
19:31:15.824,-0.505,0.095
19:31:15.828,-0.535,0.11
19:31:15.832,-0.53,0.08
19:31:15.836,-0.555,0.105
19:31:15.840,-0.545,0.115
19:31:15.844,-0.55,0.08
19:31:15.848,-0.525,0.075
19:31:15.852,-0.525,0.09
19:31:15.856,-0.54,0.085
19:31:15.860,-0.525,0.085
19:31:15.864,-0.5,0.1
19:31:15.868,-0.505,0.1
19:31:15.872,-0.505,0.115
19:31:15.876,-0.505,0.09
19:31:15.880,-0.495,0.08
19:31:15.884,-0.485,0.095
19:31:15.888,-0.485,0.105
19:31:15.892,-0.485,0.11
19:31:15.896,-0.47,0.105
19:31:15.900,-0.48,0.1
19:31:15.904,-0.49,0.13
19:31:15.908,-0.485,0.135
19:31:15.912,-0.465,0.11
19:31:15.916,-0.465,0.115
19:31:15.920,-0.455,0.095
19:31:15.924,-0.47,0.105
19:31:15.928,-0.48,0.095
19:31:15.932,-0.47,0.115
19:31:15.936,-0.465,0.105
19:31:15.940,-0.445,0.115
19:31:15.944,-0.405,0.105
19:31:15.948,-0.32,0.11
19:31:15.952,-0.25,0.095
19:31:15.956,-0.16,0.09
19:31:15.960,-0.08,0.045
19:31:15.964,-0.055,0.01
19:31:15.968,-0.025,-0.055
19:31:15.972,0.025,-0.11
19:31:15.976,0.01,-0.155
19:31:15.980,0.005,-0.215
19:31:15.984,0.035,-0.36
19:31:15.988,0.2,-0.535
19:31:15.992,0.49,-0.77
19:31:15.996,0.815,-1.01
19:31:16.000,1.0,-1.245
19:31:16.004,0.96,-1.34
19:31:16.008,0.6,-1.19
19:31:16.012,0.125,-0.765
19:31:16.016,-0.25,-0.32
19:31:16.020,-0.415,-0.05
19:31:16.024,-0.495,0.085
19:31:16.028,-0.505,0.19
19:31:16.032,-0.51,0.245
19:31:16.036,-0.545,0.285
19:31:16.040,-0.56,0.32
19:31:16.044,-0.56,0.32
19:31:16.048,-0.575,0.31
19:31:16.052,-0.6,0.3
19:31:16.056,-0.6,0.285
19:31:16.060,-0.595,0.29
19:31:16.064,-0.6,0.275
19:31:16.068,-0.605,0.26
19:31:16.072,-0.595,0.255
19:31:16.076,-0.595,0.265
19:31:16.080,-0.59,0.285
19:31:16.084,-0.605,0.26
19:31:16.088,-0.605,0.27
19:31:16.092,-0.605,0.285
19:31:16.096,-0.6,0.26
19:31:16.100,-0.58,0.265
19:31:16.104,-0.605,0.26
19:31:16.108,-0.605,0.26
19:31:16.112,-0.59,0.27
19:31:16.116,-0.585,0.29
19:31:16.120,-0.59,0.305
19:31:16.124,-0.595,0.3
19:31:16.128,-0.595,0.28
19:31:16.132,-0.6,0.31
19:31:16.136,-0.605,0.295
19:31:16.140,-0.605,0.31
19:31:16.144,-0.61,0.31
19:31:16.148,-0.6,0.3
19:31:16.152,-0.59,0.3
19:31:16.156,-0.595,0.295
19:31:16.160,-0.59,0.3
19:31:16.164,-0.585,0.315
19:31:16.168,-0.59,0.305
19:31:16.172,-0.585,0.295
19:31:16.176,-0.575,0.295
19:31:16.180,-0.57,0.28
19:31:16.184,-0.58,0.285
19:31:16.188,-0.545,0.295
19:31:16.192,-0.545,0.27
19:31:16.196,-0.55,0.265
19:31:16.200,-0.515,0.235
19:31:16.204,-0.51,0.245
19:31:16.208,-0.5,0.235
19:31:16.212,-0.495,0.23
19:31:16.216,-0.475,0.23
19:31:16.220,-0.475,0.225
19:31:16.224,-0.435,0.2
19:31:16.228,-0.425,0.19
19:31:16.232,-0.415,0.21
19:31:16.236,-0.39,0.2
19:31:16.240,-0.395,0.205
19:31:16.244,-0.385,0.205
19:31:16.248,-0.375,0.2
19:31:16.252,-0.38,0.205
19:31:16.256,-0.37,0.23
19:31:16.260,-0.35,0.215
19:31:16.264,-0.355,0.215
19:31:16.268,-0.355,0.2
19:31:16.272,-0.355,0.205
19:31:16.276,-0.335,0.2
19:31:16.280,-0.33,0.205
19:31:16.284,-0.32,0.215
19:31:16.288,-0.33,0.195
19:31:16.292,-0.32,0.185
19:31:16.296,-0.3,0.225
19:31:16.300,-0.295,0.225
19:31:16.304,-0.28,0.215
19:31:16.308,-0.26,0.215
19:31:16.312,-0.235,0.22
19:31:16.316,-0.205,0.23
19:31:16.320,-0.18,0.245
19:31:16.324,-0.16,0.26
19:31:16.328,-0.135,0.28
19:31:16.332,-0.105,0.28
19:31:16.336,-0.085,0.295
19:31:16.340,-0.08,0.295
19:31:16.344,-0.07,0.27
19:31:16.348,-0.09,0.265
19:31:16.352,-0.13,0.255
19:31:16.356,-0.16,0.235
19:31:16.360,-0.195,0.23
19:31:16.364,-0.25,0.225
19:31:16.368,-0.305,0.2
19:31:16.372,-0.375,0.205
19:31:16.376,-0.43,0.215
19:31:16.380,-0.47,0.24
19:31:16.384,-0.475,0.255
19:31:16.388,-0.475,0.26
19:31:16.392,-0.505,0.235
19:31:16.396,-0.51,0.215
19:31:16.400,-0.53,0.205
19:31:16.404,-0.515,0.195
19:31:16.408,-0.485,0.18
19:31:16.412,-0.475,0.215
19:31:16.416,-0.48,0.17
19:31:16.420,-0.475,0.175
19:31:16.424,-0.45,0.175
19:31:16.428,-0.46,0.18
19:31:16.432,-0.455,0.16
19:31:16.436,-0.46,0.16
19:31:16.440,-0.425,0.19
19:31:16.444,-0.445,0.17
19:31:16.448,-0.44,0.165
19:31:16.452,-0.41,0.165
19:31:16.456,-0.45,0.17
19:31:16.460,-0.425,0.185
19:31:16.464,-0.42,0.18
19:31:16.468,-0.405,0.185
19:31:16.472,-0.4,0.195
19:31:16.476,-0.385,0.165
19:31:16.480,-0.385,0.16
19:31:16.484,-0.38,0.175
19:31:16.488,-0.385,0.155
19:31:16.492,-0.36,0.165
19:31:16.496,-0.34,0.13
19:31:16.500,-0.29,0.115
19:31:16.504,-0.245,0.15
19:31:16.508,-0.155,0.125
19:31:16.512,-0.07,0.1
19:31:16.516,0.01,0.085
19:31:16.520,0.07,0.04
19:31:16.524,0.115,-0.02
19:31:16.528,0.15,-0.045
19:31:16.532,0.17,-0.13
19:31:16.536,0.14,-0.185
19:31:16.540,0.155,-0.31
19:31:16.544,0.295,-0.455
19:31:16.548,0.545,-0.68
19:31:16.552,0.85,-0.915
19:31:16.556,1.055,-1.14
19:31:16.560,0.965,-1.235
19:31:16.564,0.595,-1.115
19:31:16.568,0.14,-0.73
19:31:16.572,-0.18,-0.36
19:31:16.576,-0.28,-0.11
19:31:16.580,-0.345,0.005
19:31:16.584,-0.39,0.14
19:31:16.588,-0.4,0.21
19:31:16.592,-0.42,0.23
19:31:16.596,-0.445,0.285
19:31:16.600,-0.44,0.24
19:31:16.604,-0.455,0.23
19:31:16.608,-0.45,0.2
19:31:16.612,-0.45,0.195
19:31:16.616,-0.46,0.195
19:31:16.620,-0.465,0.195
19:31:16.624,-0.485,0.18
19:31:16.628,-0.47,0.195
19:31:16.632,-0.475,0.175
19:31:16.636,-0.475,0.17
19:31:16.640,-0.47,0.18
19:31:16.644,-0.485,0.18
19:31:16.648,-0.5,0.16
19:31:16.652,-0.49,0.155
19:31:16.656,-0.485,0.15
19:31:16.660,-0.5,0.14
19:31:16.664,-0.5,0.155
19:31:16.668,-0.5,0.165
19:31:16.672,-0.49,0.14
19:31:16.676,-0.475,0.165
19:31:16.680,-0.465,0.155
19:31:16.684,-0.48,0.155
19:31:16.688,-0.48,0.155
19:31:16.692,-0.48,0.14
19:31:16.696,-0.445,0.125
19:31:16.700,-0.47,0.14
19:31:16.704,-0.475,0.135
19:31:16.708,-0.485,0.16
19:31:16.712,-0.475,0.155
19:31:16.716,-0.445,0.145
19:31:16.720,-0.445,0.15
19:31:16.724,-0.44,0.155
19:31:16.728,-0.44,0.15
19:31:16.732,-0.435,0.14
19:31:16.736,-0.425,0.13
19:31:16.740,-0.405,0.13
19:31:16.744,-0.405,0.115
19:31:16.748,-0.41,0.11
19:31:16.752,-0.425,0.115
19:31:16.756,-0.425,0.1
19:31:16.760,-0.385,0.075
19:31:16.764,-0.39,0.075
19:31:16.768,-0.36,0.045
19:31:16.772,-0.335,0.05
19:31:16.776,-0.335,0.02
19:31:16.780,-0.33,0.01
19:31:16.784,-0.33,0.0
19:31:16.788,-0.3,0.01
19:31:16.792,-0.31,-0.01
19:31:16.796,-0.31,-0.02
19:31:16.800,-0.29,-0.02
19:31:16.804,-0.265,-0.025
19:31:16.808,-0.25,-0.015
19:31:16.812,-0.24,-0.01
19:31:16.816,-0.25,-0.02
19:31:16.820,-0.24,-0.01
19:31:16.824,-0.25,-0.02
19:31:16.828,-0.24,-0.005
19:31:16.832,-0.23,-0.03
19:31:16.836,-0.245,-0.005
19:31:16.840,-0.23,-0.015
19:31:16.844,-0.205,-0.01
19:31:16.848,-0.22,-0.03
19:31:16.852,-0.22,-0.02
19:31:16.856,-0.235,-0.025
19:31:16.860,-0.24,-0.025
19:31:16.864,-0.245,-0.03
19:31:16.868,-0.245,-0.03
19:31:16.872,-0.22,-0.005
19:31:16.876,-0.22,-0.025
19:31:16.880,-0.2,-0.005
19:31:16.884,-0.21,-0.015
19:31:16.888,-0.19,-0.005
19:31:16.892,-0.155,0.005
19:31:16.896,-0.11,0.015
19:31:16.900,-0.085,0.015
19:31:16.904,-0.075,0.01
19:31:16.908,-0.045,0.025
19:31:16.912,-0.03,0.025
19:31:16.916,0.005,0.04
19:31:16.920,0.02,0.055
19:31:16.924,0.015,0.035
19:31:16.928,-0.005,0.015
19:31:16.932,-0.05,0.01
19:31:16.936,-0.075,-0.025
19:31:16.940,-0.145,-0.03
19:31:16.944,-0.19,-0.04
19:31:16.948,-0.26,-0.035
19:31:16.952,-0.31,-0.02
19:31:16.956,-0.35,0.0
19:31:16.960,-0.405,-0.01
19:31:16.964,-0.41,0.005
19:31:16.968,-0.43,0.005
19:31:16.972,-0.42,-0.015
19:31:16.976,-0.41,-0.015
19:31:16.980,-0.44,-0.025
19:31:16.984,-0.42,-0.02
19:31:16.988,-0.415,-0.025
19:31:16.992,-0.425,-0.02
19:31:16.996,-0.43,-0.025
19:31:17.000,-0.42,-0.02
19:31:17.004,-0.405,-0.035
19:31:17.008,-0.415,-0.02
19:31:17.012,-0.42,-0.03
19:31:17.016,-0.425,-0.035
19:31:17.020,-0.425,-0.02
19:31:17.024,-0.425,-0.035
19:31:17.028,-0.42,-0.025
19:31:17.032,-0.425,-0.015
19:31:17.036,-0.4,0.0
19:31:17.040,-0.39,-0.005
19:31:17.044,-0.39,-0.015
19:31:17.048,-0.37,-0.035
19:31:17.052,-0.375,-0.04
19:31:17.056,-0.37,-0.025
19:31:17.060,-0.36,-0.02
19:31:17.064,-0.355,-0.03
19:31:17.068,-0.35,-0.03
19:31:17.072,-0.355,-0.02
19:31:17.076,-0.31,-0.03
19:31:17.080,-0.29,-0.045
19:31:17.084,-0.2,-0.035
19:31:17.088,-0.09,-0.04
19:31:17.092,-0.02,-0.07
19:31:17.096,0.05,-0.095
19:31:17.100,0.075,-0.18
19:31:17.104,0.115,-0.25
19:31:17.108,0.16,-0.275
19:31:17.112,0.18,-0.345
19:31:17.116,0.18,-0.46
19:31:17.120,0.255,-0.6
19:31:17.124,0.455,-0.82
19:31:17.128,0.785,-1.055
19:31:17.132,1.065,-1.31
19:31:17.136,1.155,-1.45
19:31:17.140,0.93,-1.405
19:31:17.144,0.44,-1.105
19:31:17.148,-0.01,-0.65
19:31:17.152,-0.245,-0.35
19:31:17.156,-0.36,-0.185
19:31:17.160,-0.415,-0.07
19:31:17.164,-0.42,0.0
19:31:17.168,-0.44,0.065
19:31:17.172,-0.465,0.1
19:31:17.176,-0.48,0.12
19:31:17.180,-0.495,0.12
19:31:17.184,-0.5,0.12
19:31:17.188,-0.52,0.105
19:31:17.192,-0.5,0.1
19:31:17.196,-0.51,0.095
19:31:17.200,-0.51,0.095
19:31:17.204,-0.51,0.1
19:31:17.208,-0.52,0.07
19:31:17.212,-0.525,0.08
19:31:17.216,-0.515,0.09
19:31:17.220,-0.52,0.075
19:31:17.224,-0.535,0.075
19:31:17.228,-0.545,0.09
19:31:17.232,-0.525,0.085
19:31:17.236,-0.525,0.065
19:31:17.240,-0.54,0.065
19:31:17.244,-0.535,0.095
19:31:17.248,-0.525,0.08
19:31:17.252,-0.515,0.06
19:31:17.256,-0.535,0.08
19:31:17.260,-0.54,0.065
19:31:17.264,-0.53,0.07
19:31:17.268,-0.54,0.085
19:31:17.272,-0.545,0.075
19:31:17.276,-0.54,0.065
19:31:17.280,-0.505,0.09
19:31:17.284,-0.485,0.085
19:31:17.288,-0.485,0.095
19:31:17.292,-0.49,0.085
19:31:17.296,-0.51,0.105
19:31:17.300,-0.5,0.11
19:31:17.304,-0.5,0.13
19:31:17.308,-0.49,0.115
19:31:17.312,-0.475,0.1
19:31:17.316,-0.47,0.115
19:31:17.320,-0.455,0.1
19:31:17.324,-0.45,0.09
19:31:17.328,-0.44,0.115
19:31:17.332,-0.425,0.08
19:31:17.336,-0.43,0.08
19:31:17.340,-0.415,0.045
19:31:17.344,-0.4,0.07
19:31:17.348,-0.41,0.03
19:31:17.352,-0.4,0.015
19:31:17.356,-0.41,0.02
19:31:17.360,-0.35,0.0
19:31:17.364,-0.355,-0.015
19:31:17.368,-0.35,-0.01
19:31:17.372,-0.36,-0.025
19:31:17.376,-0.325,-0.04
19:31:17.380,-0.335,-0.045
19:31:17.384,-0.29,-0.035
19:31:17.388,-0.315,-0.05
19:31:17.392,-0.32,-0.045
19:31:17.396,-0.3,-0.025
19:31:17.400,-0.275,-0.045
19:31:17.404,-0.28,-0.01
19:31:17.408,-0.285,-0.05
19:31:17.412,-0.295,-0.04
19:31:17.416,-0.275,-0.03
19:31:17.420,-0.275,-0.02
19:31:17.424,-0.275,-0.01
19:31:17.428,-0.255,-0.02
19:31:17.432,-0.24,-0.025
19:31:17.436,-0.22,-0.005
19:31:17.440,-0.24,-0.005
19:31:17.444,-0.24,0.005
19:31:17.448,-0.235,0.005
19:31:17.452,-0.21,0.005
19:31:17.456,-0.2,0.01
19:31:17.460,-0.155,0.025
19:31:17.464,-0.12,0.035
19:31:17.468,-0.09,0.025
19:31:17.472,-0.08,0.06
19:31:17.476,-0.045,0.01
19:31:17.480,-0.035,0.025
19:31:17.484,-0.02,0.05
19:31:17.488,-0.025,0.035
19:31:17.492,-0.025,0.005
19:31:17.496,-0.09,0.0
19:31:17.500,-0.145,-0.02
19:31:17.504,-0.185,-0.05
19:31:17.508,-0.235,-0.03
19:31:17.512,-0.285,-0.03
19:31:17.516,-0.325,-0.02
19:31:17.520,-0.38,0.0
19:31:17.524,-0.385,0.005
19:31:17.528,-0.42,0.02
19:31:17.532,-0.46,0.045
19:31:17.536,-0.435,0.02
19:31:17.540,-0.455,0.015
19:31:17.544,-0.45,0.0
19:31:17.548,-0.43,0.0
19:31:17.552,-0.425,0.0
19:31:17.556,-0.43,0.0
19:31:17.560,-0.43,0.0
19:31:17.564,-0.445,-0.04
19:31:17.568,-0.425,-0.01
19:31:17.572,-0.44,-0.005
19:31:17.576,-0.455,-0.015
19:31:17.580,-0.445,0.0
19:31:17.584,-0.45,-0.015
19:31:17.588,-0.445,0.0
19:31:17.592,-0.44,-0.015
19:31:17.596,-0.46,-0.01
19:31:17.600,-0.45,-0.025
19:31:17.604,-0.44,-0.035
19:31:17.608,-0.425,-0.015
19:31:17.612,-0.435,-0.04
19:31:17.616,-0.42,-0.035
19:31:17.620,-0.435,-0.035
19:31:17.624,-0.415,-0.03
19:31:17.628,-0.415,-0.04
19:31:17.632,-0.39,-0.04
19:31:17.636,-0.38,-0.01
19:31:17.640,-0.355,-0.02
19:31:17.644,-0.295,-0.02
19:31:17.648,-0.225,-0.025
19:31:17.652,-0.14,-0.055
19:31:17.656,-0.055,-0.06
19:31:17.660,-0.005,-0.09
19:31:17.664,0.025,-0.12
19:31:17.668,0.06,-0.185
19:31:17.672,0.07,-0.24
19:31:17.676,0.085,-0.3
19:31:17.680,0.065,-0.405
19:31:17.684,0.12,-0.545
19:31:17.688,0.335,-0.745
19:31:17.692,0.635,-0.98
19:31:17.696,0.92,-1.27
19:31:17.700,1.075,-1.455
19:31:17.704,0.9,-1.49
19:31:17.708,0.46,-1.225
19:31:17.712,0.005,-0.765
19:31:17.716,-0.29,-0.38
19:31:17.720,-0.405,-0.16
19:31:17.724,-0.47,-0.04
19:31:17.728,-0.52,0.065
19:31:17.732,-0.51,0.095
19:31:17.736,-0.535,0.14
19:31:17.740,-0.545,0.12
19:31:17.744,-0.55,0.14
19:31:17.748,-0.545,0.13
19:31:17.752,-0.545,0.11
19:31:17.756,-0.535,0.125
19:31:17.760,-0.535,0.13
19:31:17.764,-0.535,0.14
19:31:17.768,-0.565,0.14
19:31:17.772,-0.575,0.135
19:31:17.776,-0.565,0.135
19:31:17.780,-0.56,0.135
19:31:17.784,-0.545,0.13
19:31:17.788,-0.565,0.135
19:31:17.792,-0.565,0.135
19:31:17.796,-0.575,0.13
19:31:17.800,-0.57,0.135
19:31:17.804,-0.58,0.135
19:31:17.808,-0.59,0.135
19:31:17.812,-0.61,0.125
19:31:17.816,-0.63,0.115
19:31:17.820,-0.61,0.125
19:31:17.824,-0.59,0.14
19:31:17.828,-0.615,0.15
19:31:17.832,-0.615,0.125
19:31:17.836,-0.6,0.14
19:31:17.840,-0.605,0.14
19:31:17.844,-0.61,0.13
19:31:17.848,-0.615,0.145
19:31:17.852,-0.6,0.165
19:31:17.856,-0.595,0.145
19:31:17.860,-0.555,0.135
19:31:17.864,-0.55,0.14
19:31:17.868,-0.55,0.14
19:31:17.872,-0.55,0.125
19:31:17.876,-0.575,0.16
19:31:17.880,-0.55,0.14
19:31:17.884,-0.545,0.15
19:31:17.888,-0.525,0.135
19:31:17.892,-0.5,0.14
19:31:17.896,-0.51,0.115
19:31:17.900,-0.47,0.105
19:31:17.904,-0.46,0.11
19:31:17.908,-0.49,0.11
19:31:17.912,-0.47,0.09
19:31:17.916,-0.47,0.075
19:31:17.920,-0.45,0.065
19:31:17.924,-0.455,0.055
19:31:17.928,-0.45,0.08
19:31:17.932,-0.445,0.045
19:31:17.936,-0.42,0.05
19:31:17.940,-0.405,0.03
19:31:17.944,-0.4,0.035
19:31:17.948,-0.42,0.02
19:31:17.952,-0.415,0.0
19:31:17.956,-0.39,0.005
19:31:17.960,-0.38,0.015
19:31:17.964,-0.385,0.035
19:31:17.968,-0.38,0.035
19:31:17.972,-0.39,0.035
19:31:17.976,-0.36,0.035
19:31:17.980,-0.355,0.06
19:31:17.984,-0.375,0.03
19:31:17.988,-0.38,0.06
19:31:17.992,-0.39,0.055
19:31:17.996,-0.37,0.06
19:31:18.000,-0.345,0.08
19:31:18.004,-0.305,0.055
19:31:18.008,-0.325,0.07
19:31:18.012,-0.29,0.03
19:31:18.016,-0.31,0.055
19:31:18.020,-0.345,0.06
19:31:18.024,-0.32,0.075
19:31:18.028,-0.29,0.05
19:31:18.032,-0.255,0.1
19:31:18.036,-0.23,0.095
19:31:18.040,-0.215,0.1
19:31:18.044,-0.205,0.14
19:31:18.048,-0.195,0.12
19:31:18.052,-0.16,0.115
19:31:18.056,-0.11,0.105
19:31:18.060,-0.08,0.095
19:31:18.064,-0.085,0.11
19:31:18.068,-0.12,0.08
19:31:18.072,-0.165,0.035
19:31:18.076,-0.22,0.04
19:31:18.080,-0.245,0.02
19:31:18.084,-0.33,0.025
19:31:18.088,-0.39,0.01
19:31:18.092,-0.435,0.005
19:31:18.096,-0.48,0.02
19:31:18.100,-0.515,0.04
19:31:18.104,-0.51,0.04
19:31:18.108,-0.53,0.04
19:31:18.112,-0.52,0.05
19:31:18.116,-0.52,0.025
19:31:18.120,-0.525,0.035
19:31:18.124,-0.53,0.02
19:31:18.128,-0.52,0.02
19:31:18.132,-0.51,0.025
19:31:18.136,-0.48,0.03
19:31:18.140,-0.465,0.045
19:31:18.144,-0.495,0.0
19:31:18.148,-0.505,-0.015
19:31:18.152,-0.5,-0.015
19:31:18.156,-0.5,0.0
19:31:18.160,-0.5,-0.01
19:31:18.164,-0.47,-0.01
19:31:18.168,-0.5,-0.02
19:31:18.172,-0.49,-0.015
19:31:18.176,-0.48,-0.015
19:31:18.180,-0.47,-0.035
19:31:18.184,-0.455,-0.025
19:31:18.188,-0.465,-0.025
19:31:18.192,-0.47,-0.045
19:31:18.196,-0.485,-0.03
19:31:18.200,-0.485,-0.01
19:31:18.204,-0.465,-0.045
19:31:18.208,-0.47,-0.04
19:31:18.212,-0.44,-0.03
19:31:18.216,-0.4,-0.04
19:31:18.220,-0.315,-0.025
19:31:18.224,-0.235,-0.015
19:31:18.228,-0.155,-0.03
19:31:18.232,-0.045,-0.04
19:31:18.236,0.0,-0.095
19:31:18.240,0.06,-0.14
19:31:18.244,0.135,-0.2
19:31:18.248,0.19,-0.21
19:31:18.252,0.145,-0.28
19:31:18.256,0.13,-0.385
19:31:18.260,0.21,-0.505
19:31:18.264,0.395,-0.695
19:31:18.268,0.715,-0.92
19:31:18.272,0.995,-1.15
19:31:18.276,1.025,-1.305
19:31:18.280,0.765,-1.3
19:31:18.284,0.27,-1.02
19:31:18.288,-0.11,-0.61
19:31:18.292,-0.315,-0.335
19:31:18.296,-0.41,-0.185
19:31:18.300,-0.45,-0.055
19:31:18.304,-0.46,0.035
19:31:18.308,-0.48,0.095
19:31:18.312,-0.52,0.115
19:31:18.316,-0.545,0.13
19:31:18.320,-0.555,0.145
19:31:18.324,-0.555,0.12
19:31:18.328,-0.565,0.11
19:31:18.332,-0.575,0.105
19:31:18.336,-0.565,0.11
19:31:18.340,-0.555,0.135
19:31:18.344,-0.56,0.125
19:31:18.348,-0.545,0.11
19:31:18.352,-0.555,0.11
19:31:18.356,-0.56,0.105
19:31:18.360,-0.565,0.125
19:31:18.364,-0.575,0.115
19:31:18.368,-0.575,0.125
19:31:18.372,-0.57,0.11
19:31:18.376,-0.575,0.12
19:31:18.380,-0.59,0.11
19:31:18.384,-0.6,0.115
19:31:18.388,-0.59,0.125
19:31:18.392,-0.61,0.145
19:31:18.396,-0.605,0.125
19:31:18.400,-0.61,0.13
19:31:18.404,-0.625,0.14
19:31:18.408,-0.635,0.115
19:31:18.412,-0.62,0.115
19:31:18.416,-0.625,0.135
19:31:18.420,-0.62,0.13
19:31:18.424,-0.63,0.12
19:31:18.428,-0.62,0.14
19:31:18.432,-0.64,0.115
19:31:18.436,-0.615,0.13
19:31:18.440,-0.615,0.13
19:31:18.444,-0.615,0.135
19:31:18.448,-0.61,0.125
19:31:18.452,-0.59,0.15
19:31:18.456,-0.595,0.15
19:31:18.460,-0.565,0.135
19:31:18.464,-0.55,0.115
19:31:18.468,-0.555,0.14
19:31:18.472,-0.54,0.125
19:31:18.476,-0.53,0.12
19:31:18.480,-0.51,0.12
19:31:18.484,-0.525,0.12
19:31:18.488,-0.5,0.11
19:31:18.492,-0.475,0.075
19:31:18.496,-0.48,0.095
19:31:18.500,-0.485,0.07
19:31:18.504,-0.465,0.065
19:31:18.508,-0.465,0.07
19:31:18.512,-0.465,0.04
19:31:18.516,-0.455,0.045
19:31:18.520,-0.455,0.05
19:31:18.524,-0.43,0.04
19:31:18.528,-0.445,0.06
19:31:18.532,-0.41,0.03
19:31:18.536,-0.41,0.005
19:31:18.540,-0.41,0.015
19:31:18.544,-0.405,0.0
19:31:18.548,-0.42,0.035
19:31:18.552,-0.415,0.02
19:31:18.556,-0.415,0.02
19:31:18.560,-0.405,0.02
19:31:18.564,-0.41,0.02
19:31:18.568,-0.4,0.02
19:31:18.572,-0.4,0.035
19:31:18.576,-0.405,0.03
19:31:18.580,-0.4,0.01
19:31:18.584,-0.41,0.04
19:31:18.588,-0.375,0.045
19:31:18.592,-0.36,0.055
19:31:18.596,-0.345,0.05
19:31:18.600,-0.355,0.07
19:31:18.604,-0.345,0.05
19:31:18.608,-0.33,0.06
19:31:18.612,-0.31,0.075
19:31:18.616,-0.29,0.09
19:31:18.620,-0.25,0.08
19:31:18.624,-0.235,0.08
19:31:18.628,-0.23,0.1
19:31:18.632,-0.205,0.085
19:31:18.636,-0.18,0.095
19:31:18.640,-0.14,0.08
19:31:18.644,-0.15,0.08
19:31:18.648,-0.15,0.07
19:31:18.652,-0.15,0.045
19:31:18.656,-0.21,0.015
19:31:18.660,-0.265,0.0
19:31:18.664,-0.295,-0.01
19:31:18.668,-0.37,-0.015
19:31:18.672,-0.42,-0.01
19:31:18.676,-0.465,-0.01
19:31:18.680,-0.515,0.0
19:31:18.684,-0.53,0.04
19:31:18.688,-0.535,0.05
19:31:18.692,-0.555,0.035
19:31:18.696,-0.54,0.03
19:31:18.700,-0.54,0.025
19:31:18.704,-0.53,0.02
19:31:18.708,-0.54,0.015
19:31:18.712,-0.53,0.025
19:31:18.716,-0.54,0.02
19:31:18.720,-0.525,-0.005
19:31:18.724,-0.515,0.015
19:31:18.728,-0.535,0.0
19:31:18.732,-0.535,0.005
19:31:18.736,-0.555,-0.005
19:31:18.740,-0.535,0.015
19:31:18.744,-0.54,0.0
19:31:18.748,-0.535,0.01
19:31:18.752,-0.545,0.0
19:31:18.756,-0.54,-0.015
19:31:18.760,-0.525,-0.025
19:31:18.764,-0.52,-0.01
19:31:18.768,-0.51,-0.035
19:31:18.772,-0.53,-0.06
19:31:18.776,-0.5,-0.045
19:31:18.780,-0.51,-0.045
19:31:18.784,-0.505,-0.055
19:31:18.788,-0.505,-0.035
19:31:18.792,-0.495,-0.025
19:31:18.796,-0.465,-0.02
19:31:18.800,-0.435,-0.025
19:31:18.804,-0.35,-0.045
19:31:18.808,-0.265,-0.06
19:31:18.812,-0.175,-0.08
19:31:18.816,-0.105,-0.095
19:31:18.820,-0.07,-0.135
19:31:18.824,-0.01,-0.195
19:31:18.828,-0.005,-0.24
19:31:18.832,0.015,-0.26
19:31:18.836,0.01,-0.35
19:31:18.840,0.005,-0.465
19:31:18.844,0.125,-0.62
19:31:18.848,0.385,-0.86
19:31:18.852,0.725,-1.125
19:31:18.856,0.945,-1.38
19:31:18.860,0.96,-1.505
19:31:18.864,0.67,-1.43
19:31:18.868,0.16,-1.05
19:31:18.872,-0.215,-0.615
19:31:18.876,-0.415,-0.31
19:31:18.880,-0.505,-0.15
19:31:18.884,-0.535,-0.035
19:31:18.888,-0.53,0.03
19:31:18.892,-0.575,0.06
19:31:18.896,-0.58,0.08
19:31:18.900,-0.59,0.085
19:31:18.904,-0.59,0.085
19:31:18.908,-0.605,0.095
19:31:18.912,-0.61,0.055
19:31:18.916,-0.615,0.045
19:31:18.920,-0.59,0.045
19:31:18.924,-0.61,0.055
19:31:18.928,-0.6,0.055
19:31:18.932,-0.6,0.065
19:31:18.936,-0.605,0.075
19:31:18.940,-0.595,0.065
19:31:18.944,-0.58,0.085
19:31:18.948,-0.58,0.09
19:31:18.952,-0.585,0.09
19:31:18.956,-0.58,0.09
19:31:18.960,-0.595,0.085
19:31:18.964,-0.605,0.085
19:31:18.968,-0.605,0.09
19:31:18.972,-0.615,0.075
19:31:18.976,-0.615,0.075
19:31:18.980,-0.625,0.07
19:31:18.984,-0.635,0.07
19:31:18.988,-0.64,0.055
19:31:18.992,-0.625,0.06
19:31:18.996,-0.635,0.05
19:31:19.000,-0.61,0.08
19:31:19.004,-0.6,0.07
19:31:19.008,-0.64,0.07
19:31:19.012,-0.61,0.06
19:31:19.016,-0.61,0.08
19:31:19.020,-0.6,0.07
19:31:19.024,-0.6,0.08
19:31:19.028,-0.585,0.065
19:31:19.032,-0.595,0.08
19:31:19.036,-0.585,0.08
19:31:19.040,-0.56,0.065
19:31:19.044,-0.54,0.075
19:31:19.048,-0.515,0.08
19:31:19.052,-0.49,0.06
19:31:19.056,-0.475,0.05
19:31:19.060,-0.46,0.06
19:31:19.064,-0.48,0.05
19:31:19.068,-0.49,0.03
19:31:19.072,-0.455,0.02
19:31:19.076,-0.455,0.02
19:31:19.080,-0.475,0.01
19:31:19.084,-0.455,-0.005
19:31:19.088,-0.455,-0.015
19:31:19.092,-0.415,0.0
19:31:19.096,-0.41,-0.01
19:31:19.100,-0.405,-0.01
19:31:19.104,-0.42,-0.02
19:31:19.108,-0.4,-0.025
19:31:19.112,-0.39,-0.035
19:31:19.116,-0.395,-0.035
19:31:19.120,-0.39,-0.02
19:31:19.124,-0.39,-0.01
19:31:19.128,-0.365,-0.025
19:31:19.132,-0.375,-0.025
19:31:19.136,-0.345,-0.025
19:31:19.140,-0.345,0.0
19:31:19.144,-0.315,-0.01
19:31:19.148,-0.315,-0.005
19:31:19.152,-0.295,-0.035
19:31:19.156,-0.295,-0.015
19:31:19.160,-0.265,-0.005
19:31:19.164,-0.24,-0.01
19:31:19.168,-0.235,-0.005
19:31:19.172,-0.205,-0.02
19:31:19.176,-0.175,0.01
19:31:19.180,-0.12,0.015
19:31:19.184,-0.095,0.035
19:31:19.188,-0.095,0.055
19:31:19.192,-0.085,0.055
19:31:19.196,-0.035,0.03
19:31:19.200,-0.03,0.035
19:31:19.204,-0.005,0.035
19:31:19.208,-0.035,0.025
19:31:19.212,-0.09,0.015
19:31:19.216,-0.145,-0.01
19:31:19.220,-0.205,-0.04
19:31:19.224,-0.25,-0.06
19:31:19.228,-0.295,-0.03
19:31:19.232,-0.345,-0.045
19:31:19.236,-0.4,-0.065
19:31:19.240,-0.43,-0.02
19:31:19.244,-0.45,-0.025
19:31:19.248,-0.45,-0.035
19:31:19.252,-0.48,0.0
19:31:19.256,-0.46,-0.03
19:31:19.260,-0.465,-0.025
19:31:19.264,-0.435,-0.05
19:31:19.268,-0.455,-0.085
19:31:19.272,-0.44,-0.05
19:31:19.276,-0.435,-0.04
19:31:19.280,-0.425,-0.04
19:31:19.284,-0.41,-0.055
19:31:19.288,-0.405,-0.045
19:31:19.292,-0.39,-0.06
19:31:19.296,-0.38,-0.045
19:31:19.300,-0.39,-0.055
19:31:19.304,-0.395,-0.04
19:31:19.308,-0.39,-0.02
19:31:19.312,-0.38,-0.05
19:31:19.316,-0.375,-0.05
19:31:19.320,-0.365,-0.07
19:31:19.324,-0.385,-0.075
19:31:19.328,-0.39,-0.07
19:31:19.332,-0.385,-0.095
19:31:19.336,-0.375,-0.085
19:31:19.340,-0.36,-0.08
19:31:19.344,-0.37,-0.1
19:31:19.348,-0.35,-0.095
19:31:19.352,-0.32,-0.075
19:31:19.356,-0.305,-0.09
19:31:19.360,-0.27,-0.095
19:31:19.364,-0.22,-0.115
19:31:19.368,-0.155,-0.13
19:31:19.372,-0.06,-0.14
19:31:19.376,0.05,-0.165
19:31:19.380,0.115,-0.21
19:31:19.384,0.15,-0.265
19:31:19.388,0.2,-0.315
19:31:19.392,0.25,-0.36
19:31:19.396,0.24,-0.395
19:31:19.400,0.26,-0.505
19:31:19.404,0.35,-0.64
19:31:19.408,0.575,-0.81
19:31:19.412,0.89,-1.065
19:31:19.416,1.14,-1.29
19:31:19.420,1.13,-1.455
19:31:19.424,0.835,-1.385
19:31:19.428,0.365,-1.075
19:31:19.432,0.0,-0.68
19:31:19.436,-0.2,-0.4
19:31:19.440,-0.275,-0.24
19:31:19.444,-0.3,-0.155
19:31:19.448,-0.345,-0.05
19:31:19.452,-0.37,-0.015
19:31:19.456,-0.415,-0.01
19:31:19.460,-0.41,-0.005
19:31:19.464,-0.42,-0.02
19:31:19.468,-0.445,-0.035
19:31:19.472,-0.445,-0.045
19:31:19.476,-0.425,-0.045
19:31:19.480,-0.415,-0.075
19:31:19.484,-0.43,-0.055
19:31:19.488,-0.42,-0.06
19:31:19.492,-0.43,-0.065
19:31:19.496,-0.475,-0.075
19:31:19.500,-0.43,-0.075
19:31:19.504,-0.42,-0.08
19:31:19.508,-0.415,-0.055
19:31:19.512,-0.415,-0.075
19:31:19.516,-0.435,-0.065
19:31:19.520,-0.42,-0.07
19:31:19.524,-0.415,-0.08
19:31:19.528,-0.415,-0.045
19:31:19.532,-0.41,-0.08
19:31:19.536,-0.425,-0.07
19:31:19.540,-0.43,-0.045
19:31:19.544,-0.415,-0.05
19:31:19.548,-0.4,-0.055
19:31:19.552,-0.43,-0.075
19:31:19.556,-0.44,-0.055
19:31:19.560,-0.43,-0.075
19:31:19.564,-0.425,-0.065
19:31:19.568,-0.4,-0.055
19:31:19.572,-0.41,-0.045
19:31:19.576,-0.42,-0.07
19:31:19.580,-0.415,-0.065
19:31:19.584,-0.42,-0.07
19:31:19.588,-0.41,-0.045
19:31:19.592,-0.37,-0.08
19:31:19.596,-0.375,-0.075
19:31:19.600,-0.375,-0.095
19:31:19.604,-0.365,-0.1
19:31:19.608,-0.36,-0.1
19:31:19.612,-0.345,-0.125
19:31:19.616,-0.33,-0.09
19:31:19.620,-0.305,-0.135
19:31:19.624,-0.305,-0.14
19:31:19.628,-0.3,-0.13
19:31:19.632,-0.28,-0.15
19:31:19.636,-0.265,-0.155
19:31:19.640,-0.245,-0.165
19:31:19.644,-0.24,-0.17
19:31:19.648,-0.24,-0.18
19:31:19.652,-0.225,-0.195
19:31:19.656,-0.235,-0.18
19:31:19.660,-0.19,-0.185
19:31:19.664,-0.195,-0.19
19:31:19.668,-0.205,-0.19
19:31:19.672,-0.17,-0.19
19:31:19.676,-0.195,-0.19
19:31:19.680,-0.17,-0.195
19:31:19.684,-0.18,-0.195
19:31:19.688,-0.185,-0.19
19:31:19.692,-0.205,-0.195
19:31:19.696,-0.195,-0.2
19:31:19.700,-0.19,-0.225
19:31:19.704,-0.195,-0.215
19:31:19.708,-0.18,-0.225
19:31:19.712,-0.175,-0.22
19:31:19.716,-0.16,-0.22
19:31:19.720,-0.185,-0.23
19:31:19.724,-0.21,-0.225
19:31:19.728,-0.165,-0.22
19:31:19.732,-0.17,-0.235
19:31:19.736,-0.16,-0.225
19:31:19.740,-0.16,-0.185
19:31:19.744,-0.14,-0.22
19:31:19.748,-0.14,-0.21
19:31:19.752,-0.13,-0.195
19:31:19.756,-0.095,-0.17
19:31:19.760,-0.065,-0.19
19:31:19.764,-0.035,-0.17
19:31:19.768,0.005,-0.145
19:31:19.772,0.01,-0.145
19:31:19.776,0.03,-0.15
19:31:19.780,0.045,-0.13
19:31:19.784,0.065,-0.13
19:31:19.788,0.075,-0.125
19:31:19.792,0.085,-0.135
19:31:19.796,0.045,-0.17
19:31:19.800,0.0,-0.205
19:31:19.804,-0.04,-0.225
19:31:19.808,-0.09,-0.235
19:31:19.812,-0.16,-0.225
19:31:19.816,-0.22,-0.225
19:31:19.820,-0.285,-0.21
19:31:19.824,-0.32,-0.205
19:31:19.828,-0.35,-0.2
19:31:19.832,-0.39,-0.18
19:31:19.836,-0.395,-0.225
19:31:19.840,-0.395,-0.21
19:31:19.844,-0.375,-0.21
19:31:19.848,-0.395,-0.215
19:31:19.852,-0.39,-0.215
19:31:19.856,-0.37,-0.235
19:31:19.860,-0.375,-0.22
19:31:19.864,-0.375,-0.22
19:31:19.868,-0.375,-0.225
19:31:19.872,-0.355,-0.21
19:31:19.876,-0.36,-0.205
19:31:19.880,-0.33,-0.22
19:31:19.884,-0.335,-0.21
19:31:19.888,-0.34,-0.205
19:31:19.892,-0.335,-0.215
19:31:19.896,-0.345,-0.215
19:31:19.900,-0.325,-0.22
19:31:19.904,-0.33,-0.21
19:31:19.908,-0.32,-0.225
19:31:19.912,-0.335,-0.2
19:31:19.916,-0.335,-0.22
19:31:19.920,-0.325,-0.22
19:31:19.924,-0.32,-0.24
19:31:19.928,-0.33,-0.24
19:31:19.932,-0.33,-0.23
19:31:19.936,-0.315,-0.23
19:31:19.940,-0.315,-0.235
19:31:19.944,-0.28,-0.245
19:31:19.948,-0.23,-0.225
19:31:19.952,-0.145,-0.24
19:31:19.956,-0.065,-0.255
19:31:19.960,0.035,-0.265
19:31:19.964,0.11,-0.305
19:31:19.968,0.14,-0.365
19:31:19.972,0.165,-0.43
19:31:19.976,0.22,-0.475
19:31:19.980,0.235,-0.53
19:31:19.984,0.235,-0.63
19:31:19.988,0.265,-0.76
19:31:19.992,0.445,-0.93
19:31:19.996,0.75,-1.17
19:31:20.000,1.065,-1.43
19:31:20.004,1.215,-1.61
19:31:20.008,1.105,-1.69
19:31:20.012,0.69,-1.48
19:31:20.016,0.19,-1.07
19:31:20.020,-0.11,-0.66
19:31:20.024,-0.245,-0.435
19:31:20.028,-0.315,-0.285
19:31:20.032,-0.355,-0.215
19:31:20.036,-0.365,-0.14
19:31:20.040,-0.405,-0.115
19:31:20.044,-0.41,-0.105
19:31:20.048,-0.42,-0.1
19:31:20.052,-0.445,-0.085
19:31:20.056,-0.435,-0.125
19:31:20.060,-0.425,-0.145
19:31:20.064,-0.435,-0.12
19:31:20.068,-0.435,-0.15
19:31:20.072,-0.41,-0.145
19:31:20.076,-0.425,-0.135
19:31:20.080,-0.43,-0.155
19:31:20.084,-0.44,-0.13
19:31:20.088,-0.435,-0.135
19:31:20.092,-0.44,-0.14
19:31:20.096,-0.435,-0.135
19:31:20.100,-0.435,-0.13
19:31:20.104,-0.43,-0.145
19:31:20.108,-0.42,-0.145
19:31:20.112,-0.43,-0.16
19:31:20.116,-0.42,-0.15
19:31:20.120,-0.4,-0.145
19:31:20.124,-0.405,-0.14
19:31:20.128,-0.42,-0.13
19:31:20.132,-0.415,-0.13
19:31:20.136,-0.415,-0.13
19:31:20.140,-0.42,-0.12
19:31:20.144,-0.42,-0.145
19:31:20.148,-0.41,-0.12
19:31:20.152,-0.405,-0.125
19:31:20.156,-0.405,-0.12
19:31:20.160,-0.425,-0.15
19:31:20.164,-0.41,-0.13
19:31:20.168,-0.4,-0.125
19:31:20.172,-0.395,-0.12
19:31:20.176,-0.415,-0.13
19:31:20.180,-0.39,-0.14
19:31:20.184,-0.38,-0.13
19:31:20.188,-0.37,-0.135
19:31:20.192,-0.365,-0.165
19:31:20.196,-0.385,-0.16
19:31:20.200,-0.34,-0.185
19:31:20.204,-0.345,-0.17
19:31:20.208,-0.325,-0.2
19:31:20.212,-0.31,-0.205
19:31:20.216,-0.31,-0.19
19:31:20.220,-0.29,-0.225
19:31:20.224,-0.28,-0.235
19:31:20.228,-0.23,-0.235
19:31:20.232,-0.23,-0.265
19:31:20.236,-0.245,-0.225
19:31:20.240,-0.225,-0.255
19:31:20.244,-0.22,-0.245
19:31:20.248,-0.205,-0.245
19:31:20.252,-0.2,-0.24
19:31:20.256,-0.18,-0.235
19:31:20.260,-0.175,-0.225
19:31:20.264,-0.16,-0.24
19:31:20.268,-0.17,-0.25
19:31:20.272,-0.175,-0.28
19:31:20.276,-0.17,-0.235
19:31:20.280,-0.155,-0.245
19:31:20.284,-0.135,-0.25
19:31:20.288,-0.14,-0.275
19:31:20.292,-0.14,-0.24
19:31:20.296,-0.145,-0.235
19:31:20.300,-0.125,-0.245
19:31:20.304,-0.095,-0.25
19:31:20.308,-0.095,-0.25
19:31:20.312,-0.06,-0.24
19:31:20.316,-0.03,-0.23
19:31:20.320,-0.005,-0.22
19:31:20.324,0.025,-0.205
19:31:20.328,0.045,-0.2
19:31:20.332,0.075,-0.185
19:31:20.336,0.08,-0.18
19:31:20.340,0.09,-0.175
19:31:20.344,0.145,-0.18
19:31:20.348,0.155,-0.19
19:31:20.352,0.165,-0.17
19:31:20.356,0.135,-0.2
19:31:20.360,0.095,-0.23
19:31:20.364,0.05,-0.245
19:31:20.368,-0.01,-0.25
19:31:20.372,-0.07,-0.27
19:31:20.376,-0.13,-0.26
19:31:20.380,-0.165,-0.255
19:31:20.384,-0.23,-0.21
19:31:20.388,-0.25,-0.2
19:31:20.392,-0.285,-0.22
19:31:20.396,-0.295,-0.22
19:31:20.400,-0.29,-0.215
19:31:20.404,-0.285,-0.235
19:31:20.408,-0.27,-0.25
19:31:20.412,-0.27,-0.265
19:31:20.416,-0.26,-0.27
19:31:20.420,-0.255,-0.27
19:31:20.424,-0.245,-0.285
19:31:20.428,-0.245,-0.31
19:31:20.432,-0.245,-0.295
19:31:20.436,-0.255,-0.295
19:31:20.440,-0.27,-0.28
19:31:20.444,-0.285,-0.31
19:31:20.448,-0.28,-0.3
19:31:20.452,-0.26,-0.275
19:31:20.456,-0.245,-0.29
19:31:20.460,-0.245,-0.285
19:31:20.464,-0.225,-0.285
19:31:20.468,-0.225,-0.29
19:31:20.472,-0.225,-0.295
19:31:20.476,-0.215,-0.285
19:31:20.480,-0.205,-0.27
19:31:20.484,-0.205,-0.275
19:31:20.488,-0.205,-0.29
19:31:20.492,-0.205,-0.275
19:31:20.496,-0.19,-0.28
19:31:20.500,-0.19,-0.275
19:31:20.504,-0.16,-0.285
19:31:20.508,-0.1,-0.285
19:31:20.512,-0.04,-0.3
19:31:20.516,0.045,-0.305
19:31:20.520,0.125,-0.32
19:31:20.524,0.195,-0.355
19:31:20.528,0.25,-0.395
19:31:20.532,0.28,-0.455
19:31:20.536,0.305,-0.49
19:31:20.540,0.31,-0.56
19:31:20.544,0.29,-0.63
19:31:20.548,0.315,-0.765
19:31:20.552,0.535,-0.94
19:31:20.556,0.81,-1.17
19:31:20.560,1.095,-1.435
19:31:20.564,1.255,-1.63
19:31:20.568,1.125,-1.705
19:31:20.572,0.735,-1.525
19:31:20.576,0.295,-1.1
19:31:20.580,0.0,-0.7
19:31:20.584,-0.09,-0.46
19:31:20.588,-0.12,-0.34
19:31:20.592,-0.14,-0.25
19:31:20.596,-0.175,-0.195
19:31:20.600,-0.225,-0.155
19:31:20.604,-0.24,-0.16
19:31:20.608,-0.26,-0.155
19:31:20.612,-0.265,-0.145
19:31:20.616,-0.275,-0.16
19:31:20.620,-0.25,-0.185
19:31:20.624,-0.265,-0.185
19:31:20.628,-0.25,-0.19
19:31:20.632,-0.27,-0.18
19:31:20.636,-0.28,-0.19
19:31:20.640,-0.27,-0.17
19:31:20.644,-0.3,-0.19
19:31:20.648,-0.29,-0.225
19:31:20.652,-0.29,-0.21
19:31:20.656,-0.295,-0.205
19:31:20.660,-0.285,-0.215
19:31:20.664,-0.275,-0.205
19:31:20.668,-0.285,-0.205
19:31:20.672,-0.275,-0.2
19:31:20.676,-0.26,-0.225
19:31:20.680,-0.285,-0.245
19:31:20.684,-0.3,-0.24
19:31:20.688,-0.29,-0.245
19:31:20.692,-0.265,-0.24
19:31:20.696,-0.285,-0.21
19:31:20.700,-0.265,-0.225
19:31:20.704,-0.27,-0.22
19:31:20.708,-0.27,-0.21
19:31:20.712,-0.265,-0.21
19:31:20.716,-0.26,-0.21
19:31:20.720,-0.275,-0.215
19:31:20.724,-0.26,-0.225
19:31:20.728,-0.26,-0.24
19:31:20.732,-0.245,-0.21
19:31:20.736,-0.235,-0.22
19:31:20.740,-0.21,-0.235
19:31:20.744,-0.205,-0.22
19:31:20.748,-0.2,-0.23
19:31:20.752,-0.2,-0.24
19:31:20.756,-0.195,-0.25
19:31:20.760,-0.18,-0.26
19:31:20.764,-0.165,-0.295
19:31:20.768,-0.18,-0.3
19:31:20.772,-0.155,-0.3
19:31:20.776,-0.135,-0.32
19:31:20.780,-0.15,-0.32
19:31:20.784,-0.13,-0.355
19:31:20.788,-0.13,-0.335
19:31:20.792,-0.12,-0.355
19:31:20.796,-0.12,-0.345
19:31:20.800,-0.105,-0.365
19:31:20.804,-0.07,-0.37
19:31:20.808,-0.055,-0.37
19:31:20.812,-0.075,-0.37
19:31:20.816,-0.045,-0.385
19:31:20.820,-0.025,-0.395
19:31:20.824,-0.02,-0.385
19:31:20.828,-0.03,-0.4
19:31:20.832,-0.02,-0.385
19:31:20.836,-0.025,-0.4
19:31:20.840,-0.035,-0.4
19:31:20.844,-0.02,-0.415
19:31:20.848,-0.005,-0.405
19:31:20.852,-0.01,-0.395
19:31:20.856,-0.015,-0.38
19:31:20.860,-0.055,-0.395
19:31:20.864,-0.025,-0.4
19:31:20.868,-0.03,-0.415
19:31:20.872,0.0,-0.405
19:31:20.876,0.01,-0.41
19:31:20.880,0.0,-0.4
19:31:20.884,0.015,-0.395
19:31:20.888,0.01,-0.405
19:31:20.892,0.04,-0.405
19:31:20.896,0.065,-0.385
19:31:20.900,0.105,-0.4
19:31:20.904,0.14,-0.385
19:31:20.908,0.15,-0.38
19:31:20.912,0.18,-0.375
19:31:20.916,0.225,-0.385
19:31:20.920,0.24,-0.38
19:31:20.924,0.255,-0.37
19:31:20.928,0.235,-0.37
19:31:20.932,0.21,-0.39
19:31:20.936,0.18,-0.425
19:31:20.940,0.135,-0.43
19:31:20.944,0.09,-0.44
19:31:20.948,0.035,-0.45
19:31:20.952,-0.03,-0.44
19:31:20.956,-0.085,-0.445
19:31:20.960,-0.085,-0.42
19:31:20.964,-0.1,-0.42
19:31:20.968,-0.15,-0.41
19:31:20.972,-0.16,-0.395
19:31:20.976,-0.175,-0.41
19:31:20.980,-0.175,-0.42
19:31:20.984,-0.16,-0.42
19:31:20.988,-0.16,-0.45
19:31:20.992,-0.18,-0.445
19:31:20.996,-0.18,-0.475
19:31:21.000,-0.165,-0.47
19:31:21.004,-0.155,-0.485
19:31:21.008,-0.145,-0.45
19:31:21.012,-0.16,-0.46
19:31:21.016,-0.145,-0.505
19:31:21.020,-0.14,-0.475
19:31:21.024,-0.12,-0.5
19:31:21.028,-0.13,-0.47
19:31:21.032,-0.13,-0.5
19:31:21.036,-0.13,-0.48
19:31:21.040,-0.125,-0.5
19:31:21.044,-0.12,-0.51
19:31:21.048,-0.145,-0.49
19:31:21.052,-0.11,-0.49
19:31:21.056,-0.095,-0.52
19:31:21.060,-0.105,-0.475
19:31:21.064,-0.095,-0.49
19:31:21.068,-0.085,-0.485
19:31:21.072,-0.08,-0.48
19:31:21.076,-0.065,-0.49
19:31:21.080,-0.03,-0.49
19:31:21.084,0.05,-0.49
19:31:21.088,0.115,-0.505
19:31:21.092,0.205,-0.515
19:31:21.096,0.305,-0.54
19:31:21.100,0.375,-0.595
19:31:21.104,0.435,-0.65
19:31:21.108,0.475,-0.695
19:31:21.112,0.505,-0.735
19:31:21.116,0.5,-0.78
19:31:21.120,0.5,-0.89
19:31:21.124,0.61,-1.04
19:31:21.128,0.86,-1.245
19:31:21.132,1.15,-1.485
19:31:21.136,1.375,-1.7
19:31:21.140,1.38,-1.815
19:31:21.144,1.07,-1.74
19:31:21.148,0.595,-1.41
19:31:21.152,0.21,-1.025
19:31:21.156,0.035,-0.775
19:31:21.160,-0.05,-0.63
19:31:21.164,-0.09,-0.505
19:31:21.168,-0.1,-0.4
19:31:21.172,-0.165,-0.35
19:31:21.176,-0.175,-0.305
19:31:21.180,-0.185,-0.3
19:31:21.184,-0.185,-0.32
19:31:21.188,-0.205,-0.32
19:31:21.192,-0.2,-0.31
19:31:21.196,-0.2,-0.315
19:31:21.200,-0.21,-0.32
19:31:21.204,-0.2,-0.315
19:31:21.208,-0.215,-0.32
19:31:21.212,-0.215,-0.33
19:31:21.216,-0.225,-0.305
19:31:21.220,-0.22,-0.315
19:31:21.224,-0.24,-0.31
19:31:21.228,-0.245,-0.3
19:31:21.232,-0.245,-0.315
19:31:21.236,-0.25,-0.315
19:31:21.240,-0.27,-0.3
19:31:21.244,-0.25,-0.305
19:31:21.248,-0.27,-0.3
19:31:21.252,-0.28,-0.325
19:31:21.256,-0.26,-0.305
19:31:21.260,-0.265,-0.285
19:31:21.264,-0.255,-0.315
19:31:21.268,-0.265,-0.32
19:31:21.272,-0.28,-0.295
19:31:21.276,-0.29,-0.28
19:31:21.280,-0.28,-0.28
19:31:21.284,-0.295,-0.28
19:31:21.288,-0.28,-0.28
19:31:21.292,-0.255,-0.275
19:31:21.296,-0.265,-0.26
19:31:21.300,-0.255,-0.265
19:31:21.304,-0.24,-0.265
19:31:21.308,-0.24,-0.265
19:31:21.312,-0.225,-0.27
19:31:21.316,-0.21,-0.26
19:31:21.320,-0.205,-0.25
19:31:21.324,-0.185,-0.24
19:31:21.328,-0.18,-0.275
19:31:21.332,-0.16,-0.285
19:31:21.336,-0.18,-0.295
19:31:21.340,-0.18,-0.305
19:31:21.344,-0.165,-0.32
19:31:21.348,-0.17,-0.305
19:31:21.352,-0.16,-0.33
19:31:21.356,-0.135,-0.33
19:31:21.360,-0.135,-0.32
19:31:21.364,-0.12,-0.335
19:31:21.368,-0.115,-0.34
19:31:21.372,-0.11,-0.36
19:31:21.376,-0.105,-0.345
19:31:21.380,-0.1,-0.365
19:31:21.384,-0.095,-0.38
19:31:21.388,-0.075,-0.39
19:31:21.392,-0.04,-0.41
19:31:21.396,-0.07,-0.41
19:31:21.400,-0.055,-0.395
19:31:21.404,-0.045,-0.425
19:31:21.408,-0.04,-0.425
19:31:21.412,-0.035,-0.41
19:31:21.416,-0.03,-0.405
19:31:21.420,-0.01,-0.4
19:31:21.424,-0.005,-0.415
19:31:21.428,-0.025,-0.41
19:31:21.432,-0.01,-0.395
19:31:21.436,-0.015,-0.4
19:31:21.440,-0.03,-0.39
19:31:21.444,-0.025,-0.385
19:31:21.448,-0.02,-0.405
19:31:21.452,-0.015,-0.405
19:31:21.456,0.005,-0.4
19:31:21.460,0.0,-0.405
19:31:21.464,0.01,-0.37
19:31:21.468,0.005,-0.395
19:31:21.472,0.015,-0.38
19:31:21.476,0.035,-0.38
19:31:21.480,0.075,-0.355
19:31:21.484,0.12,-0.365
19:31:21.488,0.14,-0.36
19:31:21.492,0.17,-0.37
19:31:21.496,0.18,-0.35
19:31:21.500,0.205,-0.365
19:31:21.504,0.22,-0.375
19:31:21.508,0.24,-0.365
19:31:21.512,0.225,-0.36
19:31:21.516,0.18,-0.395
19:31:21.520,0.14,-0.425
19:31:21.524,0.105,-0.44
19:31:21.528,0.055,-0.42
19:31:21.532,-0.005,-0.45
19:31:21.536,-0.06,-0.44
19:31:21.540,-0.11,-0.44
19:31:21.544,-0.13,-0.395
19:31:21.548,-0.165,-0.395
19:31:21.552,-0.155,-0.4
19:31:21.556,-0.175,-0.38
19:31:21.560,-0.195,-0.39
19:31:21.564,-0.185,-0.395
19:31:21.568,-0.18,-0.4
19:31:21.572,-0.165,-0.41
19:31:21.576,-0.155,-0.42
19:31:21.580,-0.14,-0.405
19:31:21.584,-0.165,-0.425
19:31:21.588,-0.16,-0.44
19:31:21.592,-0.145,-0.44
19:31:21.596,-0.16,-0.44
19:31:21.600,-0.16,-0.465
19:31:21.604,-0.155,-0.45
19:31:21.608,-0.15,-0.465
19:31:21.612,-0.14,-0.47
19:31:21.616,-0.14,-0.47
19:31:21.620,-0.145,-0.45
19:31:21.624,-0.135,-0.45
19:31:21.628,-0.155,-0.44
19:31:21.632,-0.14,-0.45
19:31:21.636,-0.14,-0.44
19:31:21.640,-0.14,-0.45
19:31:21.644,-0.13,-0.455
19:31:21.648,-0.15,-0.465
19:31:21.652,-0.11,-0.465
19:31:21.656,-0.1,-0.46
19:31:21.660,-0.075,-0.445
19:31:21.664,-0.04,-0.435
19:31:21.668,0.025,-0.44
19:31:21.672,0.11,-0.435
19:31:21.676,0.185,-0.475
19:31:21.680,0.265,-0.51
19:31:21.684,0.305,-0.57
19:31:21.688,0.335,-0.62
19:31:21.692,0.35,-0.675
19:31:21.696,0.35,-0.73
19:31:21.700,0.33,-0.81
19:31:21.704,0.36,-0.965
19:31:21.708,0.51,-1.12
19:31:21.712,0.82,-1.375
19:31:21.716,1.125,-1.62
19:31:21.720,1.31,-1.85
19:31:21.724,1.19,-1.91
19:31:21.728,0.795,-1.72
19:31:21.732,0.35,-1.305
19:31:21.736,0.05,-0.9
19:31:21.740,-0.09,-0.66
19:31:21.744,-0.18,-0.53
19:31:21.748,-0.185,-0.405
19:31:21.752,-0.195,-0.35
19:31:21.756,-0.24,-0.29
19:31:21.760,-0.245,-0.3
19:31:21.764,-0.245,-0.305
19:31:21.768,-0.27,-0.3
19:31:21.772,-0.25,-0.3
19:31:21.776,-0.26,-0.33
19:31:21.780,-0.24,-0.295
19:31:21.784,-0.22,-0.32
19:31:21.788,-0.245,-0.32
19:31:21.792,-0.235,-0.315
19:31:21.796,-0.24,-0.315
19:31:21.800,-0.24,-0.32
19:31:21.804,-0.25,-0.3
19:31:21.808,-0.285,-0.315
19:31:21.812,-0.28,-0.32
19:31:21.816,-0.29,-0.3
19:31:21.820,-0.295,-0.305
19:31:21.824,-0.28,-0.305
19:31:21.828,-0.31,-0.32
19:31:21.832,-0.305,-0.315
19:31:21.836,-0.29,-0.31
19:31:21.840,-0.3,-0.31
19:31:21.844,-0.3,-0.33
19:31:21.848,-0.31,-0.305
19:31:21.852,-0.33,-0.325
19:31:21.856,-0.315,-0.315
19:31:21.860,-0.31,-0.31
19:31:21.864,-0.31,-0.305
19:31:21.868,-0.305,-0.31
19:31:21.872,-0.3,-0.295
19:31:21.876,-0.285,-0.29
19:31:21.880,-0.3,-0.27
19:31:21.884,-0.27,-0.28
19:31:21.888,-0.275,-0.275
19:31:21.892,-0.255,-0.28
19:31:21.896,-0.245,-0.27
19:31:21.900,-0.255,-0.28
19:31:21.904,-0.23,-0.28
19:31:21.908,-0.24,-0.29
19:31:21.912,-0.225,-0.29
19:31:21.916,-0.2,-0.3
19:31:21.920,-0.21,-0.285
19:31:21.924,-0.18,-0.29
19:31:21.928,-0.18,-0.3
19:31:21.932,-0.17,-0.335
19:31:21.936,-0.16,-0.35
19:31:21.940,-0.16,-0.35
19:31:21.944,-0.17,-0.35
19:31:21.948,-0.145,-0.365
19:31:21.952,-0.155,-0.38
19:31:21.956,-0.14,-0.37
19:31:21.960,-0.115,-0.395
19:31:21.964,-0.12,-0.39
19:31:21.968,-0.11,-0.4
19:31:21.972,-0.09,-0.41
19:31:21.976,-0.055,-0.43
19:31:21.980,-0.06,-0.42
19:31:21.984,-0.08,-0.415
19:31:21.988,-0.06,-0.405
19:31:21.992,-0.045,-0.395
19:31:21.996,-0.04,-0.42
19:31:22.000,-0.05,-0.41
19:31:22.004,-0.04,-0.415
19:31:22.008,-0.04,-0.42
19:31:22.012,-0.04,-0.4
19:31:22.016,-0.02,-0.405
19:31:22.020,0.0,-0.415
19:31:22.024,0.015,-0.395
19:31:22.028,0.035,-0.41
19:31:22.032,0.03,-0.395
19:31:22.036,0.04,-0.395
19:31:22.040,0.065,-0.385
19:31:22.044,0.095,-0.375
19:31:22.048,0.13,-0.37
19:31:22.052,0.145,-0.35
19:31:22.056,0.155,-0.345
19:31:22.060,0.195,-0.345
19:31:22.064,0.2,-0.355
19:31:22.068,0.23,-0.35
19:31:22.072,0.215,-0.335
19:31:22.076,0.23,-0.34
19:31:22.080,0.185,-0.39
19:31:22.084,0.16,-0.41
19:31:22.088,0.135,-0.425
19:31:22.092,0.07,-0.44
19:31:22.096,0.025,-0.445
19:31:22.100,-0.04,-0.44
19:31:22.104,-0.09,-0.45
19:31:22.108,-0.15,-0.44
19:31:22.112,-0.18,-0.43
19:31:22.116,-0.19,-0.415
19:31:22.120,-0.205,-0.41
19:31:22.124,-0.18,-0.41
19:31:22.128,-0.16,-0.43
19:31:22.132,-0.16,-0.43
19:31:22.136,-0.19,-0.45
19:31:22.140,-0.17,-0.445
19:31:22.144,-0.16,-0.445
19:31:22.148,-0.16,-0.445
19:31:22.152,-0.145,-0.44
19:31:22.156,-0.15,-0.445
19:31:22.160,-0.17,-0.425
19:31:22.164,-0.18,-0.425
19:31:22.168,-0.16,-0.445
19:31:22.172,-0.17,-0.45
19:31:22.176,-0.17,-0.47
19:31:22.180,-0.145,-0.46
19:31:22.184,-0.135,-0.455
19:31:22.188,-0.15,-0.47
19:31:22.192,-0.17,-0.495
19:31:22.196,-0.18,-0.485
19:31:22.200,-0.165,-0.48
19:31:22.204,-0.175,-0.485
19:31:22.208,-0.175,-0.48
19:31:22.212,-0.14,-0.48
19:31:22.216,-0.115,-0.5
19:31:22.220,-0.115,-0.515
19:31:22.224,-0.105,-0.495
19:31:22.228,-0.08,-0.505
19:31:22.232,-0.04,-0.51
19:31:22.236,0.035,-0.515
19:31:22.240,0.105,-0.5
19:31:22.244,0.215,-0.53
19:31:22.248,0.295,-0.555
19:31:22.252,0.34,-0.585
19:31:22.256,0.415,-0.655
19:31:22.260,0.47,-0.695
19:31:22.264,0.5,-0.725
19:31:22.268,0.475,-0.805
19:31:22.272,0.49,-0.895
19:31:22.276,0.63,-1.06
19:31:22.280,0.905,-1.25
19:31:22.284,1.185,-1.485
19:31:22.288,1.36,-1.695
19:31:22.292,1.285,-1.795
19:31:22.296,0.895,-1.665
19:31:22.300,0.405,-1.3
19:31:22.304,0.09,-0.93
19:31:22.308,-0.015,-0.74
19:31:22.312,-0.11,-0.595
19:31:22.316,-0.155,-0.5
19:31:22.320,-0.155,-0.41
19:31:22.324,-0.175,-0.36
19:31:22.328,-0.205,-0.34
19:31:22.332,-0.205,-0.34
19:31:22.336,-0.23,-0.325
19:31:22.340,-0.245,-0.355
19:31:22.344,-0.23,-0.395
19:31:22.348,-0.245,-0.37
19:31:22.352,-0.23,-0.39
19:31:22.356,-0.255,-0.395
19:31:22.360,-0.265,-0.4
19:31:22.364,-0.23,-0.395
19:31:22.368,-0.22,-0.38
19:31:22.372,-0.205,-0.395
19:31:22.376,-0.205,-0.365
19:31:22.380,-0.225,-0.38
19:31:22.384,-0.23,-0.36
19:31:22.388,-0.22,-0.395
19:31:22.392,-0.225,-0.37
19:31:22.396,-0.23,-0.375
19:31:22.400,-0.24,-0.355
19:31:22.404,-0.245,-0.365
19:31:22.408,-0.23,-0.37
19:31:22.412,-0.23,-0.38
19:31:22.416,-0.255,-0.38
19:31:22.420,-0.245,-0.37
19:31:22.424,-0.25,-0.37
19:31:22.428,-0.27,-0.37
19:31:22.432,-0.27,-0.36
19:31:22.436,-0.29,-0.36
19:31:22.440,-0.285,-0.37
19:31:22.444,-0.275,-0.355
19:31:22.448,-0.28,-0.36
19:31:22.452,-0.26,-0.375
19:31:22.456,-0.265,-0.36
19:31:22.460,-0.26,-0.35
19:31:22.464,-0.24,-0.37
19:31:22.468,-0.23,-0.355
19:31:22.472,-0.265,-0.345
19:31:22.476,-0.23,-0.34
19:31:22.480,-0.24,-0.345
19:31:22.484,-0.2,-0.35
19:31:22.488,-0.18,-0.355
19:31:22.492,-0.16,-0.345
19:31:22.496,-0.16,-0.37
19:31:22.500,-0.155,-0.385
19:31:22.504,-0.155,-0.395
19:31:22.508,-0.115,-0.38
19:31:22.512,-0.13,-0.38
19:31:22.516,-0.105,-0.4
19:31:22.520,-0.1,-0.405
19:31:22.524,-0.09,-0.41
19:31:22.528,-0.095,-0.42
19:31:22.532,-0.085,-0.425
19:31:22.536,-0.085,-0.42
19:31:22.540,-0.1,-0.42
19:31:22.544,-0.075,-0.435
19:31:22.548,-0.1,-0.425
19:31:22.552,-0.065,-0.445
19:31:22.556,-0.085,-0.415
19:31:22.560,-0.1,-0.43
19:31:22.564,-0.08,-0.435
19:31:22.568,-0.055,-0.445
19:31:22.572,-0.075,-0.43
19:31:22.576,-0.085,-0.415
19:31:22.580,-0.075,-0.415
19:31:22.584,-0.08,-0.425
19:31:22.588,-0.08,-0.425
19:31:22.592,-0.075,-0.42
19:31:22.596,-0.09,-0.405
19:31:22.600,-0.08,-0.42
19:31:22.604,-0.06,-0.415
19:31:22.608,-0.055,-0.405
19:31:22.612,-0.05,-0.395
19:31:22.616,-0.03,-0.41
19:31:22.620,-0.005,-0.38
19:31:22.624,-0.015,-0.36
19:31:22.628,-0.04,-0.365
19:31:22.632,0.015,-0.36
19:31:22.636,0.045,-0.33
19:31:22.640,0.07,-0.345
19:31:22.644,0.1,-0.34
19:31:22.648,0.125,-0.315
19:31:22.652,0.145,-0.335
19:31:22.656,0.19,-0.33
19:31:22.660,0.165,-0.32
19:31:22.664,0.18,-0.325
19:31:22.668,0.16,-0.345
19:31:22.672,0.115,-0.37
19:31:22.676,0.06,-0.405
19:31:22.680,0.03,-0.435
19:31:22.684,-0.01,-0.455
19:31:22.688,-0.07,-0.435
19:31:22.692,-0.155,-0.445
19:31:22.696,-0.205,-0.435
19:31:22.700,-0.24,-0.395
19:31:22.704,-0.275,-0.375
19:31:22.708,-0.295,-0.375
19:31:22.712,-0.285,-0.39
19:31:22.716,-0.29,-0.365
19:31:22.720,-0.29,-0.38
19:31:22.724,-0.28,-0.385
19:31:22.728,-0.265,-0.39
19:31:22.732,-0.24,-0.39
19:31:22.736,-0.24,-0.395
19:31:22.740,-0.24,-0.4
19:31:22.744,-0.255,-0.41
19:31:22.748,-0.245,-0.405
19:31:22.752,-0.245,-0.4
19:31:22.756,-0.255,-0.4
19:31:22.760,-0.25,-0.415
19:31:22.764,-0.265,-0.43
19:31:22.768,-0.245,-0.405
19:31:22.772,-0.245,-0.415
19:31:22.776,-0.24,-0.405
19:31:22.780,-0.25,-0.415
19:31:22.784,-0.265,-0.4
19:31:22.788,-0.27,-0.395
19:31:22.792,-0.26,-0.41
19:31:22.796,-0.25,-0.43
19:31:22.800,-0.26,-0.44
19:31:22.804,-0.245,-0.43
19:31:22.808,-0.24,-0.425
19:31:22.812,-0.245,-0.44
19:31:22.816,-0.21,-0.44
19:31:22.820,-0.195,-0.44
19:31:22.824,-0.11,-0.445
19:31:22.828,-0.025,-0.435
19:31:22.832,0.06,-0.43
19:31:22.836,0.135,-0.475
19:31:22.840,0.175,-0.52
19:31:22.844,0.23,-0.585
19:31:22.848,0.27,-0.625
19:31:22.852,0.275,-0.665
19:31:22.856,0.255,-0.735
19:31:22.860,0.27,-0.855
19:31:22.864,0.39,-1.015
19:31:22.868,0.655,-1.235
19:31:22.872,0.985,-1.5
19:31:22.876,1.22,-1.73
19:31:22.880,1.205,-1.85
19:31:22.884,0.88,-1.745
19:31:22.888,0.395,-1.37
19:31:22.892,0.025,-0.955
19:31:22.896,-0.175,-0.67
19:31:22.900,-0.255,-0.49
19:31:22.904,-0.29,-0.395
19:31:22.908,-0.32,-0.33
19:31:22.912,-0.355,-0.275
19:31:22.916,-0.36,-0.255
19:31:22.920,-0.37,-0.26
19:31:22.924,-0.365,-0.275
19:31:22.928,-0.37,-0.29
19:31:22.932,-0.37,-0.275
19:31:22.936,-0.355,-0.29
19:31:22.940,-0.375,-0.28
19:31:22.944,-0.375,-0.305
19:31:22.948,-0.37,-0.28
19:31:22.952,-0.385,-0.28
19:31:22.956,-0.385,-0.275
19:31:22.960,-0.39,-0.275
19:31:22.964,-0.38,-0.29
19:31:22.968,-0.365,-0.28
19:31:22.972,-0.365,-0.275
19:31:22.976,-0.37,-0.28
19:31:22.980,-0.355,-0.295
19:31:22.984,-0.37,-0.285
19:31:22.988,-0.365,-0.26
19:31:22.992,-0.355,-0.275
19:31:22.996,-0.375,-0.265
19:31:23.000,-0.385,-0.265
19:31:23.004,-0.385,-0.265
19:31:23.008,-0.38,-0.255
19:31:23.012,-0.38,-0.26
19:31:23.016,-0.4,-0.265
19:31:23.020,-0.405,-0.27
19:31:23.024,-0.41,-0.24
19:31:23.028,-0.41,-0.255
19:31:23.032,-0.425,-0.24
19:31:23.036,-0.415,-0.26
19:31:23.040,-0.395,-0.25
19:31:23.044,-0.38,-0.23
19:31:23.048,-0.38,-0.24
19:31:23.052,-0.365,-0.24
19:31:23.056,-0.37,-0.245
19:31:23.060,-0.37,-0.26
19:31:23.064,-0.365,-0.25
19:31:23.068,-0.36,-0.275
19:31:23.072,-0.365,-0.255
19:31:23.076,-0.32,-0.29
19:31:23.080,-0.32,-0.275
19:31:23.084,-0.3,-0.275
19:31:23.088,-0.28,-0.285
19:31:23.092,-0.255,-0.305
19:31:23.096,-0.25,-0.285
19:31:23.100,-0.245,-0.305
19:31:23.104,-0.23,-0.31
19:31:23.108,-0.215,-0.335
19:31:23.112,-0.21,-0.305
19:31:23.116,-0.205,-0.31
19:31:23.120,-0.195,-0.32
19:31:23.124,-0.18,-0.34
19:31:23.128,-0.175,-0.345
19:31:23.132,-0.16,-0.355
19:31:23.136,-0.155,-0.34
19:31:23.140,-0.175,-0.35
19:31:23.144,-0.19,-0.34
19:31:23.148,-0.185,-0.335
19:31:23.152,-0.175,-0.33
19:31:23.156,-0.19,-0.33
19:31:23.160,-0.175,-0.345
19:31:23.164,-0.175,-0.335
19:31:23.168,-0.145,-0.33
19:31:23.172,-0.15,-0.35
19:31:23.176,-0.145,-0.345
19:31:23.180,-0.14,-0.305
19:31:23.184,-0.125,-0.335
19:31:23.188,-0.115,-0.3
19:31:23.192,-0.115,-0.285
19:31:23.196,-0.09,-0.285
19:31:23.200,-0.045,-0.265
19:31:23.204,0.025,-0.25
19:31:23.208,0.04,-0.245
19:31:23.212,0.035,-0.215
19:31:23.216,0.06,-0.235
19:31:23.220,0.09,-0.23
19:31:23.224,0.11,-0.205
19:31:23.228,0.115,-0.205
19:31:23.232,0.11,-0.175
19:31:23.236,0.05,-0.215
19:31:23.240,0.035,-0.24
19:31:23.244,-0.035,-0.25
19:31:23.248,-0.07,-0.265
19:31:23.252,-0.13,-0.25
19:31:23.256,-0.19,-0.26
19:31:23.260,-0.26,-0.255
19:31:23.264,-0.3,-0.24
19:31:23.268,-0.345,-0.24
19:31:23.272,-0.335,-0.25
19:31:23.276,-0.345,-0.235
19:31:23.280,-0.335,-0.23
19:31:23.284,-0.355,-0.25
19:31:23.288,-0.315,-0.265
19:31:23.292,-0.32,-0.255
19:31:23.296,-0.32,-0.235
19:31:23.300,-0.33,-0.24
19:31:23.304,-0.335,-0.245
19:31:23.308,-0.305,-0.24
19:31:23.312,-0.33,-0.255
19:31:23.316,-0.33,-0.245
19:31:23.320,-0.29,-0.22
19:31:23.324,-0.28,-0.265
19:31:23.328,-0.28,-0.245
19:31:23.332,-0.27,-0.225
19:31:23.336,-0.275,-0.24
19:31:23.340,-0.275,-0.23
19:31:23.344,-0.28,-0.235
19:31:23.348,-0.26,-0.23
19:31:23.352,-0.275,-0.215
19:31:23.356,-0.265,-0.235
19:31:23.360,-0.3,-0.24
19:31:23.364,-0.3,-0.225
19:31:23.368,-0.3,-0.235
19:31:23.372,-0.295,-0.215
19:31:23.376,-0.28,-0.23
19:31:23.380,-0.265,-0.23
19:31:23.384,-0.23,-0.23
19:31:23.388,-0.19,-0.26
19:31:23.392,-0.11,-0.24
19:31:23.396,-0.03,-0.225
19:31:23.400,0.055,-0.26
19:31:23.404,0.12,-0.28
19:31:23.408,0.17,-0.375
19:31:23.412,0.215,-0.39
19:31:23.416,0.275,-0.43
19:31:23.420,0.265,-0.475
19:31:23.424,0.25,-0.56
19:31:23.428,0.285,-0.68
19:31:23.432,0.46,-0.845
19:31:23.436,0.755,-1.075
19:31:23.440,1.05,-1.315
19:31:23.444,1.18,-1.485
19:31:23.448,1.03,-1.555
19:31:23.452,0.615,-1.36
19:31:23.456,0.165,-0.945
19:31:23.460,-0.12,-0.595
19:31:23.464,-0.24,-0.4
19:31:23.468,-0.31,-0.285
19:31:23.472,-0.32,-0.155
19:31:23.476,-0.33,-0.1
19:31:23.480,-0.385,-0.09
19:31:23.484,-0.415,-0.065
19:31:23.488,-0.43,-0.045
19:31:23.492,-0.43,-0.095
19:31:23.496,-0.43,-0.095
19:31:23.500,-0.44,-0.11
19:31:23.504,-0.45,-0.12
19:31:23.508,-0.46,-0.15
19:31:23.512,-0.47,-0.115
19:31:23.516,-0.475,-0.115
19:31:23.520,-0.475,-0.15
19:31:23.524,-0.48,-0.12
19:31:23.528,-0.475,-0.125
19:31:23.532,-0.465,-0.12
19:31:23.536,-0.455,-0.13
19:31:23.540,-0.465,-0.12
19:31:23.544,-0.47,-0.11
19:31:23.548,-0.495,-0.1
19:31:23.552,-0.5,-0.11
19:31:23.556,-0.49,-0.1
19:31:23.560,-0.46,-0.1
19:31:23.564,-0.475,-0.105
19:31:23.568,-0.455,-0.1
19:31:23.572,-0.465,-0.085
19:31:23.576,-0.47,-0.105
19:31:23.580,-0.465,-0.07
19:31:23.584,-0.475,-0.075
19:31:23.588,-0.495,-0.09
19:31:23.592,-0.505,-0.085
19:31:23.596,-0.475,-0.09
19:31:23.600,-0.485,-0.075
19:31:23.604,-0.48,-0.08
19:31:23.608,-0.495,-0.08
19:31:23.612,-0.475,-0.07
19:31:23.616,-0.5,-0.085
19:31:23.620,-0.5,-0.095
19:31:23.624,-0.495,-0.08
19:31:23.628,-0.485,-0.09
19:31:23.632,-0.46,-0.095
19:31:23.636,-0.435,-0.09
19:31:23.640,-0.415,-0.105
19:31:23.644,-0.42,-0.105
19:31:23.648,-0.405,-0.11
19:31:23.652,-0.43,-0.14
19:31:23.656,-0.42,-0.14
19:31:23.660,-0.415,-0.155
19:31:23.664,-0.4,-0.13
19:31:23.668,-0.4,-0.13
19:31:23.672,-0.39,-0.16
19:31:23.676,-0.36,-0.155
19:31:23.680,-0.335,-0.165
19:31:23.684,-0.31,-0.16
19:31:23.688,-0.31,-0.175
19:31:23.692,-0.315,-0.175
19:31:23.696,-0.315,-0.18
19:31:23.700,-0.315,-0.175
19:31:23.704,-0.32,-0.165
19:31:23.708,-0.32,-0.165
19:31:23.712,-0.315,-0.17
19:31:23.716,-0.31,-0.175
19:31:23.720,-0.33,-0.17
19:31:23.724,-0.335,-0.155
19:31:23.728,-0.325,-0.17
19:31:23.732,-0.34,-0.155
19:31:23.736,-0.335,-0.18
19:31:23.740,-0.345,-0.17
19:31:23.744,-0.365,-0.175
19:31:23.748,-0.35,-0.165
19:31:23.752,-0.35,-0.17
19:31:23.756,-0.35,-0.18
19:31:23.760,-0.32,-0.175
19:31:23.764,-0.3,-0.17
19:31:23.768,-0.325,-0.175
19:31:23.772,-0.33,-0.155
19:31:23.776,-0.3,-0.165
19:31:23.780,-0.3,-0.15
19:31:23.784,-0.28,-0.125
19:31:23.788,-0.22,-0.125
19:31:23.792,-0.19,-0.1
19:31:23.796,-0.17,-0.095
19:31:23.800,-0.155,-0.09
19:31:23.804,-0.145,-0.09
19:31:23.808,-0.105,-0.06
19:31:23.812,-0.095,-0.06
19:31:23.816,-0.105,-0.075
19:31:23.820,-0.13,-0.065
19:31:23.824,-0.18,-0.075
19:31:23.828,-0.225,-0.125
19:31:23.832,-0.275,-0.15
19:31:23.836,-0.31,-0.13
19:31:23.840,-0.39,-0.135
19:31:23.844,-0.435,-0.12
19:31:23.848,-0.49,-0.11
19:31:23.852,-0.56,-0.09
19:31:23.856,-0.605,-0.09
19:31:23.860,-0.615,-0.06
19:31:23.864,-0.615,-0.06
19:31:23.868,-0.57,-0.06
19:31:23.872,-0.595,-0.08
19:31:23.876,-0.585,-0.105
19:31:23.880,-0.57,-0.11
19:31:23.884,-0.58,-0.085
19:31:23.888,-0.58,-0.09
19:31:23.892,-0.575,-0.07
19:31:23.896,-0.58,-0.035
19:31:23.900,-0.585,-0.07
19:31:23.904,-0.6,-0.07
19:31:23.908,-0.58,-0.04
19:31:23.912,-0.57,-0.055
19:31:23.916,-0.55,-0.06
19:31:23.920,-0.55,-0.045
19:31:23.924,-0.58,-0.04
19:31:23.928,-0.545,-0.04
19:31:23.932,-0.555,-0.02
19:31:23.936,-0.57,-0.02
19:31:23.940,-0.56,-0.015
19:31:23.944,-0.56,-0.01
19:31:23.948,-0.565,-0.02
19:31:23.952,-0.58,-0.03
19:31:23.956,-0.57,-0.025
19:31:23.960,-0.565,-0.04
19:31:23.964,-0.56,-0.025
19:31:23.968,-0.565,-0.035
19:31:23.972,-0.525,-0.01
19:31:23.976,-0.445,-0.02
19:31:23.980,-0.36,-0.02
19:31:23.984,-0.285,-0.03
19:31:23.988,-0.195,-0.085
19:31:23.992,-0.105,-0.135
19:31:23.996,-0.07,-0.18
19:31:24.000,-0.045,-0.245
19:31:24.004,-0.03,-0.275
19:31:24.008,-0.01,-0.365
19:31:24.012,0.0,-0.505
19:31:24.016,0.185,-0.67
19:31:24.020,0.455,-0.92
19:31:24.024,0.795,-1.15
19:31:24.028,0.975,-1.33
19:31:24.032,0.865,-1.405
19:31:24.036,0.455,-1.205
19:31:24.040,-0.04,-0.78
19:31:24.044,-0.375,-0.39
19:31:24.048,-0.55,-0.16
19:31:24.052,-0.62,-0.03
19:31:24.056,-0.66,0.06
19:31:24.060,-0.68,0.155
19:31:24.064,-0.7,0.195
19:31:24.068,-0.735,0.21
19:31:24.072,-0.745,0.21
19:31:24.076,-0.74,0.2
19:31:24.080,-0.755,0.195
19:31:24.084,-0.775,0.2
19:31:24.088,-0.775,0.195
19:31:24.092,-0.8,0.195
19:31:24.096,-0.795,0.19
19:31:24.100,-0.78,0.175
19:31:24.104,-0.79,0.175
19:31:24.108,-0.77,0.165
19:31:24.112,-0.8,0.175
19:31:24.116,-0.785,0.18
19:31:24.120,-0.79,0.155
19:31:24.124,-0.8,0.175
19:31:24.128,-0.81,0.18
19:31:24.132,-0.8,0.195
19:31:24.136,-0.81,0.205
19:31:24.140,-0.795,0.195
19:31:24.144,-0.795,0.205
19:31:24.148,-0.8,0.195
19:31:24.152,-0.78,0.195
19:31:24.156,-0.775,0.215
19:31:24.160,-0.78,0.21
19:31:24.164,-0.79,0.215
19:31:24.168,-0.79,0.24
19:31:24.172,-0.795,0.245
19:31:24.176,-0.785,0.245
19:31:24.180,-0.805,0.235
19:31:24.184,-0.795,0.24
19:31:24.188,-0.77,0.26
19:31:24.192,-0.785,0.27
19:31:24.196,-0.795,0.255
19:31:24.200,-0.78,0.25
19:31:24.204,-0.785,0.26
19:31:24.208,-0.765,0.25
19:31:24.212,-0.765,0.27
19:31:24.216,-0.735,0.235
19:31:24.220,-0.75,0.235
19:31:24.224,-0.73,0.225
19:31:24.228,-0.73,0.215
19:31:24.232,-0.72,0.205
19:31:24.236,-0.695,0.2
19:31:24.240,-0.69,0.18
19:31:24.244,-0.67,0.195
19:31:24.248,-0.67,0.165
19:31:24.252,-0.66,0.175
19:31:24.256,-0.66,0.165
19:31:24.260,-0.635,0.155
19:31:24.264,-0.62,0.165
19:31:24.268,-0.59,0.155
19:31:24.272,-0.6,0.15
19:31:24.276,-0.585,0.15
19:31:24.280,-0.59,0.175
19:31:24.284,-0.58,0.155
19:31:24.288,-0.575,0.155
19:31:24.292,-0.56,0.18
19:31:24.296,-0.575,0.175
19:31:24.300,-0.555,0.205
19:31:24.304,-0.565,0.19
19:31:24.308,-0.575,0.195
19:31:24.312,-0.56,0.18
19:31:24.316,-0.565,0.195
19:31:24.320,-0.555,0.18
19:31:24.324,-0.565,0.19
19:31:24.328,-0.545,0.18
19:31:24.332,-0.535,0.195
19:31:24.336,-0.5,0.205
19:31:24.340,-0.505,0.22
19:31:24.344,-0.465,0.205
19:31:24.348,-0.455,0.21
19:31:24.352,-0.4,0.24
19:31:24.356,-0.375,0.255
19:31:24.360,-0.36,0.26
19:31:24.364,-0.36,0.27
19:31:24.368,-0.31,0.27
19:31:24.372,-0.3,0.275
19:31:24.376,-0.295,0.275
19:31:24.380,-0.275,0.275
19:31:24.384,-0.27,0.255
19:31:24.388,-0.295,0.235
19:31:24.392,-0.34,0.225
19:31:24.396,-0.385,0.215
19:31:24.400,-0.455,0.205
19:31:24.404,-0.535,0.215
19:31:24.408,-0.595,0.23
19:31:24.412,-0.66,0.275
19:31:24.416,-0.68,0.25
19:31:24.420,-0.695,0.265
19:31:24.424,-0.7,0.285
19:31:24.428,-0.695,0.255
19:31:24.432,-0.7,0.265
19:31:24.436,-0.705,0.255
19:31:24.440,-0.69,0.25
19:31:24.444,-0.695,0.24
19:31:24.448,-0.685,0.24
19:31:24.452,-0.69,0.235
19:31:24.456,-0.68,0.23
19:31:24.460,-0.695,0.225
19:31:24.464,-0.685,0.22
19:31:24.468,-0.675,0.2
19:31:24.472,-0.665,0.21
19:31:24.476,-0.67,0.205
19:31:24.480,-0.665,0.205
19:31:24.484,-0.65,0.22
19:31:24.488,-0.675,0.21
19:31:24.492,-0.665,0.235
19:31:24.496,-0.665,0.225
19:31:24.500,-0.665,0.24
19:31:24.504,-0.655,0.225
19:31:24.508,-0.64,0.235
19:31:24.512,-0.64,0.255
19:31:24.516,-0.64,0.24
19:31:24.520,-0.64,0.255
19:31:24.524,-0.635,0.25
19:31:24.528,-0.62,0.245
19:31:24.532,-0.61,0.24
19:31:24.536,-0.565,0.25
19:31:24.540,-0.51,0.235
19:31:24.544,-0.41,0.245
19:31:24.548,-0.33,0.23
19:31:24.552,-0.245,0.205
19:31:24.556,-0.195,0.14
19:31:24.560,-0.165,0.075
19:31:24.564,-0.15,0.035
19:31:24.568,-0.14,0.01
19:31:24.572,-0.16,-0.095
19:31:24.576,-0.125,-0.23
19:31:24.580,0.035,-0.41
19:31:24.584,0.3,-0.645
19:31:24.588,0.61,-0.895
19:31:24.592,0.825,-1.125
19:31:24.596,0.775,-1.225
19:31:24.600,0.44,-1.095
19:31:24.604,-0.04,-0.64
19:31:24.608,-0.395,-0.23
19:31:24.612,-0.555,0.05
19:31:24.616,-0.62,0.19
19:31:24.620,-0.65,0.295
19:31:24.624,-0.645,0.34
19:31:24.628,-0.655,0.39
19:31:24.632,-0.665,0.405
19:31:24.636,-0.675,0.395
19:31:24.640,-0.72,0.395
19:31:24.644,-0.7,0.415
19:31:24.648,-0.7,0.4
19:31:24.652,-0.685,0.39
19:31:24.656,-0.685,0.4
19:31:24.660,-0.685,0.385
19:31:24.664,-0.71,0.375
19:31:24.668,-0.73,0.38
19:31:24.672,-0.745,0.4
19:31:24.676,-0.74,0.37
19:31:24.680,-0.75,0.375
19:31:24.684,-0.74,0.39
19:31:24.688,-0.74,0.375
19:31:24.692,-0.76,0.37
19:31:24.696,-0.745,0.37
19:31:24.700,-0.765,0.365
19:31:24.704,-0.75,0.37
19:31:24.708,-0.75,0.375
19:31:24.712,-0.74,0.39
19:31:24.716,-0.75,0.37
19:31:24.720,-0.785,0.38
19:31:24.724,-0.77,0.4
19:31:24.728,-0.775,0.39
19:31:24.732,-0.77,0.395
19:31:24.736,-0.745,0.4
19:31:24.740,-0.76,0.42
19:31:24.744,-0.735,0.39
19:31:24.748,-0.745,0.41
19:31:24.752,-0.745,0.4
19:31:24.756,-0.715,0.42
19:31:24.760,-0.7,0.405
19:31:24.764,-0.695,0.41
19:31:24.768,-0.7,0.385
19:31:24.772,-0.67,0.41
19:31:24.776,-0.685,0.405
19:31:24.780,-0.66,0.395
19:31:24.784,-0.655,0.36
19:31:24.788,-0.64,0.34
19:31:24.792,-0.65,0.335
19:31:24.796,-0.65,0.345
19:31:24.800,-0.62,0.35
19:31:24.804,-0.625,0.315
19:31:24.808,-0.63,0.305
19:31:24.812,-0.605,0.31
19:31:24.816,-0.6,0.29
19:31:24.820,-0.595,0.275
19:31:24.824,-0.58,0.255
19:31:24.828,-0.56,0.26
19:31:24.832,-0.585,0.26
19:31:24.836,-0.555,0.235
19:31:24.840,-0.555,0.25
19:31:24.844,-0.545,0.25
19:31:24.848,-0.52,0.25
19:31:24.852,-0.495,0.225
19:31:24.856,-0.465,0.245
19:31:24.860,-0.465,0.23
19:31:24.864,-0.47,0.23
19:31:24.868,-0.475,0.245
19:31:24.872,-0.475,0.24
19:31:24.876,-0.465,0.235
19:31:24.880,-0.465,0.235
19:31:24.884,-0.465,0.235
19:31:24.888,-0.455,0.245
19:31:24.892,-0.435,0.255
19:31:24.896,-0.44,0.25
19:31:24.900,-0.455,0.23
19:31:24.904,-0.44,0.235
19:31:24.908,-0.435,0.25
19:31:24.912,-0.435,0.25
19:31:24.916,-0.445,0.25
19:31:24.920,-0.395,0.25
19:31:24.924,-0.33,0.255
19:31:24.928,-0.28,0.27
19:31:24.932,-0.265,0.275
19:31:24.936,-0.25,0.29
19:31:24.940,-0.21,0.25
19:31:24.944,-0.2,0.255
19:31:24.948,-0.19,0.275
19:31:24.952,-0.19,0.27
19:31:24.956,-0.21,0.235
19:31:24.960,-0.23,0.235
19:31:24.964,-0.295,0.21
19:31:24.968,-0.33,0.18
19:31:24.972,-0.37,0.185
19:31:24.976,-0.425,0.19
19:31:24.980,-0.48,0.2
19:31:24.984,-0.53,0.21
19:31:24.988,-0.54,0.205
19:31:24.992,-0.55,0.215
19:31:24.996,-0.58,0.205
19:31:25.000,-0.595,0.215
19:31:25.004,-0.595,0.215
19:31:25.008,-0.585,0.195
19:31:25.012,-0.575,0.2
19:31:25.016,-0.57,0.205
19:31:25.020,-0.56,0.19
19:31:25.024,-0.555,0.175
19:31:25.028,-0.58,0.155
19:31:25.032,-0.575,0.18
19:31:25.036,-0.555,0.16
19:31:25.040,-0.55,0.15
19:31:25.044,-0.53,0.145
19:31:25.048,-0.555,0.15
19:31:25.052,-0.535,0.15
19:31:25.056,-0.545,0.15
19:31:25.060,-0.545,0.14
19:31:25.064,-0.54,0.14
19:31:25.068,-0.54,0.125
19:31:25.072,-0.535,0.13
19:31:25.076,-0.505,0.12
19:31:25.080,-0.52,0.12
19:31:25.084,-0.525,0.12
19:31:25.088,-0.505,0.12
19:31:25.092,-0.48,0.13
19:31:25.096,-0.485,0.125
19:31:25.100,-0.455,0.135
19:31:25.104,-0.425,0.125
19:31:25.108,-0.355,0.115
19:31:25.112,-0.31,0.1
19:31:25.116,-0.225,0.11
19:31:25.120,-0.13,0.075
19:31:25.124,-0.035,0.04
19:31:25.128,0.01,-0.015
19:31:25.132,0.065,-0.08
19:31:25.136,0.115,-0.105
19:31:25.140,0.095,-0.145
19:31:25.144,0.085,-0.235
19:31:25.148,0.14,-0.355
19:31:25.152,0.345,-0.56
19:31:25.156,0.665,-0.81
19:31:25.160,0.925,-1.035
19:31:25.164,0.97,-1.185
19:31:25.168,0.72,-1.185
19:31:25.172,0.24,-0.91
19:31:25.176,-0.17,-0.52
19:31:25.180,-0.37,-0.215
19:31:25.184,-0.435,-0.075
19:31:25.188,-0.465,0.05
19:31:25.192,-0.5,0.14
19:31:25.196,-0.525,0.2
19:31:25.200,-0.555,0.24
19:31:25.204,-0.565,0.235
19:31:25.208,-0.575,0.235
19:31:25.212,-0.585,0.21
19:31:25.216,-0.575,0.215
19:31:25.220,-0.6,0.21
19:31:25.224,-0.61,0.205
19:31:25.228,-0.59,0.225
19:31:25.232,-0.595,0.235
19:31:25.236,-0.6,0.21
19:31:25.240,-0.595,0.205
19:31:25.244,-0.57,0.22
19:31:25.248,-0.59,0.2
19:31:25.252,-0.62,0.22
19:31:25.256,-0.605,0.23
19:31:25.260,-0.615,0.225
19:31:25.264,-0.625,0.22
19:31:25.268,-0.615,0.22
19:31:25.272,-0.62,0.22
19:31:25.276,-0.62,0.23
19:31:25.280,-0.62,0.215
19:31:25.284,-0.63,0.195
19:31:25.288,-0.615,0.2
19:31:25.292,-0.625,0.195
19:31:25.296,-0.64,0.225
19:31:25.300,-0.635,0.235
19:31:25.304,-0.625,0.245
19:31:25.308,-0.615,0.25
19:31:25.312,-0.63,0.245
19:31:25.316,-0.64,0.25
19:31:25.320,-0.62,0.26
19:31:25.324,-0.6,0.26
19:31:25.328,-0.59,0.26
19:31:25.332,-0.57,0.28
19:31:25.336,-0.57,0.255
19:31:25.340,-0.56,0.245
19:31:25.344,-0.555,0.26
19:31:25.348,-0.55,0.28
19:31:25.352,-0.545,0.25
19:31:25.356,-0.51,0.25
19:31:25.360,-0.525,0.235
19:31:25.364,-0.505,0.24
19:31:25.368,-0.495,0.235
19:31:25.372,-0.505,0.21
19:31:25.376,-0.485,0.22
19:31:25.380,-0.475,0.21
19:31:25.384,-0.475,0.2
19:31:25.388,-0.46,0.19
19:31:25.392,-0.465,0.19
19:31:25.396,-0.44,0.18
19:31:25.400,-0.44,0.15
19:31:25.404,-0.43,0.155
19:31:25.408,-0.41,0.16
19:31:25.412,-0.405,0.165
19:31:25.416,-0.415,0.155
19:31:25.420,-0.395,0.15
19:31:25.424,-0.37,0.165
19:31:25.428,-0.37,0.145
19:31:25.432,-0.37,0.145
19:31:25.436,-0.35,0.165
19:31:25.440,-0.34,0.155
19:31:25.444,-0.345,0.155
19:31:25.448,-0.345,0.18
19:31:25.452,-0.34,0.165
19:31:25.456,-0.335,0.16
19:31:25.460,-0.345,0.185
19:31:25.464,-0.34,0.205
19:31:25.468,-0.315,0.19
19:31:25.472,-0.305,0.2
19:31:25.476,-0.265,0.185
19:31:25.480,-0.305,0.175
19:31:25.484,-0.3,0.185
19:31:25.488,-0.285,0.195
19:31:25.492,-0.245,0.22
19:31:25.496,-0.2,0.205
19:31:25.500,-0.16,0.225
19:31:25.504,-0.14,0.21
19:31:25.508,-0.13,0.24
19:31:25.512,-0.075,0.22
19:31:25.516,-0.06,0.23
19:31:25.520,-0.055,0.235
19:31:25.524,-0.06,0.21
19:31:25.528,-0.07,0.19
19:31:25.532,-0.11,0.195
19:31:25.536,-0.175,0.15
19:31:25.540,-0.23,0.14
19:31:25.544,-0.275,0.145
19:31:25.548,-0.31,0.15
19:31:25.552,-0.36,0.145
19:31:25.556,-0.42,0.185
19:31:25.560,-0.445,0.18
19:31:25.564,-0.46,0.205
19:31:25.568,-0.47,0.225
19:31:25.572,-0.48,0.23
19:31:25.576,-0.48,0.215
19:31:25.580,-0.455,0.19
19:31:25.584,-0.465,0.215
19:31:25.588,-0.465,0.19
19:31:25.592,-0.445,0.195
19:31:25.596,-0.45,0.185
19:31:25.600,-0.445,0.195
19:31:25.604,-0.45,0.2
19:31:25.608,-0.46,0.18
19:31:25.612,-0.465,0.175
19:31:25.616,-0.44,0.17
19:31:25.620,-0.455,0.165
19:31:25.624,-0.44,0.14
19:31:25.628,-0.445,0.16
19:31:25.632,-0.44,0.155
19:31:25.636,-0.43,0.165
19:31:25.640,-0.42,0.17
19:31:25.644,-0.43,0.16
19:31:25.648,-0.44,0.175
19:31:25.652,-0.42,0.155
19:31:25.656,-0.42,0.16
19:31:25.660,-0.41,0.16
19:31:25.664,-0.39,0.165
19:31:25.668,-0.4,0.155
19:31:25.672,-0.36,0.16
19:31:25.676,-0.315,0.155
19:31:25.680,-0.255,0.14
19:31:25.684,-0.17,0.16
19:31:25.688,-0.085,0.135
19:31:25.692,-0.005,0.12
19:31:25.696,0.04,0.085
19:31:25.700,0.07,0.005
19:31:25.704,0.08,-0.04
19:31:25.708,0.095,-0.08
19:31:25.712,0.07,-0.165
19:31:25.716,0.1,-0.305
19:31:25.720,0.255,-0.48
19:31:25.724,0.515,-0.7
19:31:25.728,0.845,-0.98
19:31:25.732,1.05,-1.21
19:31:25.736,1.025,-1.315
19:31:25.740,0.695,-1.165
19:31:25.744,0.18,-0.765
19:31:25.748,-0.19,-0.315
19:31:25.752,-0.345,-0.06
19:31:25.756,-0.41,0.085
19:31:25.760,-0.455,0.195
19:31:25.764,-0.475,0.26
19:31:25.768,-0.495,0.3
19:31:25.772,-0.515,0.32
19:31:25.776,-0.5,0.31
19:31:25.780,-0.51,0.305
19:31:25.784,-0.52,0.32
19:31:25.788,-0.51,0.31
19:31:25.792,-0.515,0.3
19:31:25.796,-0.525,0.29
19:31:25.800,-0.53,0.315
19:31:25.804,-0.52,0.31
19:31:25.808,-0.535,0.305
19:31:25.812,-0.505,0.315
19:31:25.816,-0.52,0.33
19:31:25.820,-0.52,0.305
19:31:25.824,-0.535,0.3
19:31:25.828,-0.54,0.3
19:31:25.832,-0.54,0.3
19:31:25.836,-0.545,0.295
19:31:25.840,-0.545,0.295
19:31:25.844,-0.56,0.275
19:31:25.848,-0.56,0.3
19:31:25.852,-0.555,0.29
19:31:25.856,-0.555,0.285
19:31:25.860,-0.555,0.305
19:31:25.864,-0.555,0.295
19:31:25.868,-0.555,0.31
19:31:25.872,-0.555,0.315
19:31:25.876,-0.545,0.325
19:31:25.880,-0.56,0.32
19:31:25.884,-0.525,0.31
19:31:25.888,-0.55,0.33
19:31:25.892,-0.56,0.33
19:31:25.896,-0.535,0.325
19:31:25.900,-0.525,0.33
19:31:25.904,-0.505,0.33
19:31:25.908,-0.49,0.315
19:31:25.912,-0.475,0.36
19:31:25.916,-0.485,0.335
19:31:25.920,-0.48,0.33
19:31:25.924,-0.45,0.315
19:31:25.928,-0.44,0.305
19:31:25.932,-0.445,0.26
19:31:25.936,-0.43,0.28
19:31:25.940,-0.43,0.285
19:31:25.944,-0.435,0.27
19:31:25.948,-0.425,0.26
19:31:25.952,-0.395,0.24
19:31:25.956,-0.4,0.235
19:31:25.960,-0.395,0.225
19:31:25.964,-0.39,0.235
19:31:25.968,-0.385,0.23
19:31:25.972,-0.35,0.21
19:31:25.976,-0.355,0.2
19:31:25.980,-0.355,0.2
19:31:25.984,-0.335,0.195
19:31:25.988,-0.325,0.2
19:31:25.992,-0.315,0.21
19:31:25.996,-0.32,0.22
19:31:26.000,-0.32,0.22
19:31:26.004,-0.31,0.215
19:31:26.008,-0.31,0.22
19:31:26.012,-0.32,0.205
19:31:26.016,-0.285,0.22
19:31:26.020,-0.29,0.23
19:31:26.024,-0.26,0.24
19:31:26.028,-0.25,0.23
19:31:26.032,-0.22,0.235
19:31:26.036,-0.235,0.25
19:31:26.040,-0.21,0.25
19:31:26.044,-0.2,0.245
19:31:26.048,-0.18,0.265
19:31:26.052,-0.125,0.28
19:31:26.056,-0.105,0.29
19:31:26.060,-0.085,0.31
19:31:26.064,-0.065,0.285
19:31:26.068,-0.04,0.295
19:31:26.072,-0.025,0.29
19:31:26.076,-0.015,0.32
19:31:26.080,-0.005,0.31
19:31:26.084,-0.025,0.285
19:31:26.088,-0.04,0.25
19:31:26.092,-0.1,0.215
19:31:26.096,-0.17,0.215
19:31:26.100,-0.21,0.21
19:31:26.104,-0.275,0.22
19:31:26.108,-0.32,0.23
19:31:26.112,-0.365,0.21
19:31:26.116,-0.415,0.24
19:31:26.120,-0.435,0.26
19:31:26.124,-0.455,0.275
19:31:26.128,-0.445,0.295
19:31:26.132,-0.435,0.265
19:31:26.136,-0.445,0.235
19:31:26.140,-0.41,0.25
19:31:26.144,-0.43,0.26
19:31:26.148,-0.415,0.265
19:31:26.152,-0.4,0.265
19:31:26.156,-0.39,0.255
19:31:26.160,-0.41,0.255
19:31:26.164,-0.4,0.245
19:31:26.168,-0.41,0.26
19:31:26.172,-0.4,0.255
19:31:26.176,-0.4,0.245
19:31:26.180,-0.395,0.225
19:31:26.184,-0.4,0.245
19:31:26.188,-0.4,0.26
19:31:26.192,-0.395,0.24
19:31:26.196,-0.395,0.245
19:31:26.200,-0.395,0.245
19:31:26.204,-0.395,0.235
19:31:26.208,-0.375,0.25
19:31:26.212,-0.39,0.245
19:31:26.216,-0.37,0.225
19:31:26.220,-0.365,0.23
19:31:26.224,-0.38,0.22
19:31:26.228,-0.36,0.25
19:31:26.232,-0.325,0.235
19:31:26.236,-0.305,0.25
19:31:26.240,-0.235,0.26
19:31:26.244,-0.145,0.245
19:31:26.248,-0.05,0.24
19:31:26.252,0.03,0.21
19:31:26.256,0.075,0.14
19:31:26.260,0.105,0.09
19:31:26.264,0.155,0.05
19:31:26.268,0.15,0.005
19:31:26.272,0.15,-0.095
19:31:26.276,0.155,-0.22
19:31:26.280,0.29,-0.395
19:31:26.284,0.58,-0.62
19:31:26.288,0.895,-0.905
19:31:26.292,1.105,-1.125
19:31:26.296,1.08,-1.205
19:31:26.300,0.725,-1.07
19:31:26.304,0.25,-0.66
19:31:26.308,-0.105,-0.21
19:31:26.312,-0.29,0.06
19:31:26.316,-0.35,0.18
19:31:26.320,-0.405,0.305
19:31:26.324,-0.395,0.375
19:31:26.328,-0.415,0.395
19:31:26.332,-0.44,0.42
19:31:26.336,-0.445,0.43
19:31:26.340,-0.445,0.415
19:31:26.344,-0.445,0.405
19:31:26.348,-0.47,0.415
19:31:26.352,-0.455,0.385
19:31:26.356,-0.46,0.42
19:31:26.360,-0.445,0.41
19:31:26.364,-0.455,0.39
19:31:26.368,-0.42,0.395
19:31:26.372,-0.415,0.4
19:31:26.376,-0.39,0.4
19:31:26.380,-0.395,0.39
19:31:26.384,-0.4,0.415
19:31:26.388,-0.415,0.405
19:31:26.392,-0.42,0.425
19:31:26.396,-0.43,0.415
19:31:26.400,-0.425,0.415
19:31:26.404,-0.465,0.395
19:31:26.408,-0.46,0.425
19:31:26.412,-0.465,0.405
19:31:26.416,-0.47,0.415
19:31:26.420,-0.46,0.41
19:31:26.424,-0.48,0.415
19:31:26.428,-0.475,0.435
19:31:26.432,-0.49,0.43
19:31:26.436,-0.47,0.44
19:31:26.440,-0.485,0.455
19:31:26.444,-0.475,0.435
19:31:26.448,-0.455,0.44
19:31:26.452,-0.445,0.43
19:31:26.456,-0.46,0.425
19:31:26.460,-0.45,0.43
19:31:26.464,-0.425,0.43
19:31:26.468,-0.435,0.43
19:31:26.472,-0.41,0.425
19:31:26.476,-0.395,0.445
19:31:26.480,-0.39,0.435
19:31:26.484,-0.39,0.405
19:31:26.488,-0.36,0.395
19:31:26.492,-0.36,0.405
19:31:26.496,-0.34,0.405
19:31:26.500,-0.355,0.395
19:31:26.504,-0.325,0.385
19:31:26.508,-0.3,0.355
19:31:26.512,-0.285,0.355
19:31:26.516,-0.275,0.35
19:31:26.520,-0.27,0.33
19:31:26.524,-0.255,0.335
19:31:26.528,-0.225,0.315
19:31:26.532,-0.24,0.315
19:31:26.536,-0.23,0.33
19:31:26.540,-0.245,0.315
19:31:26.544,-0.225,0.315
19:31:26.548,-0.215,0.285
19:31:26.552,-0.215,0.29
19:31:26.556,-0.21,0.3
19:31:26.560,-0.205,0.285
19:31:26.564,-0.19,0.3
19:31:26.568,-0.185,0.295
19:31:26.572,-0.175,0.305
19:31:26.576,-0.17,0.32
19:31:26.580,-0.18,0.295
19:31:26.584,-0.19,0.305
19:31:26.588,-0.16,0.315
19:31:26.592,-0.145,0.31
19:31:26.596,-0.13,0.32
19:31:26.600,-0.105,0.31
19:31:26.604,-0.095,0.3
19:31:26.608,-0.07,0.325
19:31:26.612,-0.065,0.315
19:31:26.616,-0.035,0.34
19:31:26.620,0.0,0.33
19:31:26.624,0.025,0.38
19:31:26.628,0.05,0.37
19:31:26.632,0.075,0.365
19:31:26.636,0.11,0.39
19:31:26.640,0.12,0.375
19:31:26.644,0.14,0.355
19:31:26.648,0.11,0.36
19:31:26.652,0.095,0.33
19:31:26.656,0.035,0.305
19:31:26.660,-0.035,0.265
19:31:26.664,-0.08,0.245
19:31:26.668,-0.12,0.255
19:31:26.672,-0.19,0.25
19:31:26.676,-0.24,0.275
19:31:26.680,-0.28,0.29
19:31:26.684,-0.305,0.29
19:31:26.688,-0.335,0.28
19:31:26.692,-0.32,0.27
19:31:26.696,-0.32,0.28
19:31:26.700,-0.31,0.26
19:31:26.704,-0.29,0.26
19:31:26.708,-0.275,0.24
19:31:26.712,-0.285,0.235
19:31:26.716,-0.285,0.22
19:31:26.720,-0.26,0.22
19:31:26.724,-0.25,0.215
19:31:26.728,-0.26,0.245
19:31:26.732,-0.255,0.235
19:31:26.736,-0.255,0.22
19:31:26.740,-0.235,0.215
19:31:26.744,-0.225,0.21
19:31:26.748,-0.245,0.215
19:31:26.752,-0.24,0.225
19:31:26.756,-0.23,0.215
19:31:26.760,-0.23,0.21
19:31:26.764,-0.255,0.2
19:31:26.768,-0.255,0.185
19:31:26.772,-0.255,0.205
19:31:26.776,-0.265,0.21
19:31:26.780,-0.245,0.205
19:31:26.784,-0.24,0.18
19:31:26.788,-0.24,0.175
19:31:26.792,-0.21,0.2
19:31:26.796,-0.2,0.185
19:31:26.800,-0.16,0.165
19:31:26.804,-0.1,0.155
19:31:26.808,-0.035,0.15
19:31:26.812,0.035,0.135
19:31:26.816,0.145,0.125
19:31:26.820,0.205,0.055
19:31:26.824,0.25,0.025
19:31:26.828,0.315,-0.025
19:31:26.832,0.38,-0.035
19:31:26.836,0.4,-0.08
19:31:26.840,0.38,-0.19
19:31:26.844,0.45,-0.3
19:31:26.848,0.635,-0.475
19:31:26.852,0.91,-0.73
19:31:26.856,1.175,-0.965
19:31:26.860,1.235,-1.14
19:31:26.864,1.035,-1.14
19:31:26.868,0.605,-0.91
19:31:26.872,0.155,-0.505
19:31:26.876,-0.095,-0.21
19:31:26.880,-0.155,-0.045
19:31:26.884,-0.205,0.055
19:31:26.888,-0.22,0.165
19:31:26.892,-0.26,0.235
19:31:26.896,-0.305,0.26
19:31:26.900,-0.3,0.265
19:31:26.904,-0.33,0.26
19:31:26.908,-0.325,0.245
19:31:26.912,-0.36,0.235
19:31:26.916,-0.36,0.225
19:31:26.920,-0.365,0.22
19:31:26.924,-0.355,0.2
19:31:26.928,-0.36,0.165
19:31:26.932,-0.34,0.18
19:31:26.936,-0.36,0.19
19:31:26.940,-0.345,0.19
19:31:26.944,-0.365,0.195
19:31:26.948,-0.38,0.175
19:31:26.952,-0.37,0.185
19:31:26.956,-0.37,0.205
19:31:26.960,-0.375,0.205
19:31:26.964,-0.355,0.185
19:31:26.968,-0.36,0.18
19:31:26.972,-0.345,0.19
19:31:26.976,-0.365,0.21
19:31:26.980,-0.35,0.225
19:31:26.984,-0.365,0.195
19:31:26.988,-0.36,0.185
19:31:26.992,-0.36,0.2
19:31:26.996,-0.36,0.185
19:31:27.000,-0.36,0.21
19:31:27.004,-0.37,0.2
19:31:27.008,-0.35,0.195
19:31:27.012,-0.355,0.19
19:31:27.016,-0.35,0.18
19:31:27.020,-0.37,0.205
19:31:27.024,-0.375,0.18
19:31:27.028,-0.34,0.195
19:31:27.032,-0.335,0.195
19:31:27.036,-0.32,0.21
19:31:27.040,-0.325,0.185
19:31:27.044,-0.315,0.175
19:31:27.048,-0.315,0.175
19:31:27.052,-0.305,0.165
19:31:27.056,-0.29,0.16
19:31:27.060,-0.28,0.14
19:31:27.064,-0.27,0.135
19:31:27.068,-0.255,0.15
19:31:27.072,-0.24,0.15
19:31:27.076,-0.23,0.135
19:31:27.080,-0.225,0.11
19:31:27.084,-0.205,0.115
19:31:27.088,-0.195,0.12
19:31:27.092,-0.185,0.12
19:31:27.096,-0.185,0.1
19:31:27.100,-0.16,0.1
19:31:27.104,-0.165,0.09
19:31:27.108,-0.145,0.09
19:31:27.112,-0.145,0.065
