Time,ECG1,ECG2
21:11:44.148,-0.265,-0.07
21:11:44.152,-0.26,-0.075
21:11:44.156,-0.26,-0.065
21:11:44.160,-0.255,-0.065
21:11:44.164,-0.21,-0.05
21:11:44.168,-0.215,-0.05
21:11:44.172,-0.215,-0.055
21:11:44.176,-0.22,-0.055
21:11:44.180,-0.215,-0.04
21:11:44.184,-0.21,-0.055
21:11:44.188,-0.205,-0.05
21:11:44.192,-0.22,-0.04
21:11:44.196,-0.22,-0.06
21:11:44.200,-0.215,-0.055
21:11:44.204,-0.215,-0.05
21:11:44.208,-0.23,-0.05
21:11:44.212,-0.225,-0.05
21:11:44.216,-0.23,-0.05
21:11:44.220,-0.215,-0.06
21:11:44.224,-0.23,-0.075
21:11:44.228,-0.22,-0.055
21:11:44.232,-0.24,-0.08
21:11:44.236,-0.22,-0.075
21:11:44.240,-0.235,-0.075
21:11:44.244,-0.23,-0.08
21:11:44.248,-0.235,-0.105
21:11:44.252,-0.23,-0.11
21:11:44.256,-0.23,-0.075
21:11:44.260,-0.23,-0.11
21:11:44.264,-0.22,-0.09
21:11:44.268,-0.215,-0.08
21:11:44.272,-0.215,-0.08
21:11:44.276,-0.21,-0.08
21:11:44.280,-0.215,-0.09
21:11:44.284,-0.21,-0.085
21:11:44.288,-0.215,-0.085
21:11:44.292,-0.22,-0.08
21:11:44.296,-0.21,-0.085
21:11:44.300,-0.22,-0.09
21:11:44.304,-0.215,-0.07
21:11:44.308,-0.23,-0.07
21:11:44.312,-0.22,-0.065
21:11:44.316,-0.24,-0.07
21:11:44.320,-0.25,-0.065
21:11:44.324,-0.27,-0.075
21:11:44.328,-0.26,-0.08
21:11:44.332,-0.265,-0.065
21:11:44.336,-0.265,-0.08
21:11:44.340,-0.24,-0.095
21:11:44.344,-0.255,-0.085
21:11:44.348,-0.245,-0.08
21:11:44.352,-0.24,-0.1
21:11:44.356,-0.24,-0.1
21:11:44.360,-0.24,-0.09
21:11:44.364,-0.21,-0.11
21:11:44.368,-0.2,-0.1
21:11:44.372,-0.195,-0.105
21:11:44.376,-0.17,-0.09
21:11:44.380,-0.155,-0.08
21:11:44.384,-0.145,-0.08
21:11:44.388,-0.12,-0.055
21:11:44.392,-0.075,-0.065
21:11:44.396,-0.05,-0.025
21:11:44.400,-0.035,-0.005
21:11:44.404,0.0,-0.005
21:11:44.408,0.025,-0.02
21:11:44.412,0.035,-0.005
21:11:44.416,0.045,0.0
21:11:44.420,0.025,0.005
21:11:44.424,-0.005,-0.02
21:11:44.428,-0.035,-0.05
21:11:44.432,-0.07,-0.065
21:11:44.436,-0.13,-0.07
21:11:44.440,-0.17,-0.08
21:11:44.444,-0.24,-0.105
21:11:44.448,-0.27,-0.105
21:11:44.452,-0.31,-0.11
21:11:44.456,-0.32,-0.075
21:11:44.460,-0.33,-0.08
21:11:44.464,-0.34,-0.09
21:11:44.468,-0.35,-0.085
21:11:44.472,-0.35,-0.1
21:11:44.476,-0.35,-0.105
21:11:44.480,-0.33,-0.115
21:11:44.484,-0.33,-0.09
21:11:44.488,-0.335,-0.1
21:11:44.492,-0.33,-0.1
21:11:44.496,-0.31,-0.09
21:11:44.500,-0.31,-0.085
21:11:44.504,-0.315,-0.08
21:11:44.508,-0.31,-0.1
21:11:44.512,-0.295,-0.09
21:11:44.516,-0.32,-0.095
21:11:44.520,-0.315,-0.1
21:11:44.524,-0.295,-0.075
21:11:44.528,-0.315,-0.095
21:11:44.532,-0.305,-0.095
21:11:44.536,-0.3,-0.095
21:11:44.540,-0.305,-0.08
21:11:44.544,-0.3,-0.1
21:11:44.548,-0.315,-0.1
21:11:44.552,-0.32,-0.085
21:11:44.556,-0.31,-0.095
21:11:44.560,-0.275,-0.095
21:11:44.564,-0.27,-0.095
21:11:44.568,-0.24,-0.115
21:11:44.572,-0.16,-0.14
21:11:44.576,-0.095,-0.115
21:11:44.580,0.01,-0.135
21:11:44.584,0.085,-0.135
21:11:44.588,0.14,-0.145
21:11:44.592,0.14,-0.215
21:11:44.596,0.175,-0.23
21:11:44.600,0.16,-0.21
21:11:44.604,0.12,-0.215
21:11:44.608,0.105,-0.27
21:11:44.612,0.21,-0.35
21:11:44.616,0.435,-0.485
21:11:44.620,0.735,-0.69
21:11:44.624,1.0,-0.93
21:11:44.628,1.07,-1.115
21:11:44.632,0.885,-1.16
21:11:44.636,0.495,-0.975
21:11:44.640,0.08,-0.63
21:11:44.644,-0.135,-0.3
21:11:44.648,-0.255,-0.13
21:11:44.652,-0.31,-0.03
21:11:44.656,-0.345,0.01
21:11:44.660,-0.38,0.04
21:11:44.664,-0.41,0.03
21:11:44.668,-0.415,0.025
21:11:44.672,-0.41,0.005
21:11:44.676,-0.42,-0.01
21:11:44.680,-0.43,-0.035
21:11:44.684,-0.44,-0.05
21:11:44.688,-0.42,-0.06
21:11:44.692,-0.44,-0.04
21:11:44.696,-0.44,-0.05
21:11:44.700,-0.43,-0.07
21:11:44.704,-0.45,-0.05
21:11:44.708,-0.47,-0.045
21:11:44.712,-0.455,-0.055
21:11:44.716,-0.44,-0.055
21:11:44.720,-0.43,-0.055
21:11:44.724,-0.435,-0.05
21:11:44.728,-0.44,-0.035
21:11:44.732,-0.425,-0.065
21:11:44.736,-0.45,-0.055
21:11:44.740,-0.425,-0.065
21:11:44.744,-0.44,-0.045
21:11:44.748,-0.45,-0.065
21:11:44.752,-0.455,-0.06
21:11:44.756,-0.455,-0.075
21:11:44.760,-0.45,-0.06
21:11:44.764,-0.455,-0.1
21:11:44.768,-0.47,-0.06
21:11:44.772,-0.475,-0.06
21:11:44.776,-0.46,-0.055
21:11:44.780,-0.46,-0.055
21:11:44.784,-0.445,-0.055
21:11:44.788,-0.445,-0.04
21:11:44.792,-0.435,-0.08
21:11:44.796,-0.425,-0.08
21:11:44.800,-0.44,-0.055
21:11:44.804,-0.435,-0.075
21:11:44.808,-0.425,-0.07
21:11:44.812,-0.41,-0.045
21:11:44.816,-0.41,-0.065
21:11:44.820,-0.41,-0.05
21:11:44.824,-0.405,-0.055
21:11:44.828,-0.385,-0.06
21:11:44.832,-0.365,-0.065
21:11:44.836,-0.355,-0.06
21:11:44.840,-0.355,-0.075
21:11:44.844,-0.355,-0.07
21:11:44.848,-0.355,-0.075
21:11:44.852,-0.34,-0.09
21:11:44.856,-0.34,-0.075
21:11:44.860,-0.35,-0.07
21:11:44.864,-0.33,-0.095
21:11:44.868,-0.31,-0.085
21:11:44.872,-0.31,-0.095
21:11:44.876,-0.325,-0.12
21:11:44.880,-0.28,-0.1
21:11:44.884,-0.275,-0.11
21:11:44.888,-0.275,-0.12
21:11:44.892,-0.265,-0.125
21:11:44.896,-0.255,-0.12
21:11:44.900,-0.255,-0.12
21:11:44.904,-0.25,-0.12
21:11:44.908,-0.235,-0.135
21:11:44.912,-0.235,-0.13
21:11:44.916,-0.22,-0.145
21:11:44.920,-0.2,-0.135
21:11:44.924,-0.2,-0.135
21:11:44.928,-0.2,-0.13
21:11:44.932,-0.18,-0.125
21:11:44.936,-0.18,-0.12
21:11:44.940,-0.17,-0.115
21:11:44.944,-0.165,-0.105
21:11:44.948,-0.17,-0.09
21:11:44.952,-0.175,-0.13
21:11:44.956,-0.18,-0.095
21:11:44.960,-0.16,-0.1
21:11:44.964,-0.165,-0.105
21:11:44.968,-0.18,-0.105
21:11:44.972,-0.17,-0.095
21:11:44.976,-0.16,-0.095
21:11:44.980,-0.16,-0.095
21:11:44.984,-0.16,-0.08
21:11:44.988,-0.17,-0.08
21:11:44.992,-0.175,-0.095
21:11:44.996,-0.18,-0.09
21:11:45.000,-0.185,-0.095
21:11:45.004,-0.19,-0.125
21:11:45.008,-0.19,-0.1
21:11:45.012,-0.19,-0.105
21:11:45.016,-0.2,-0.12
21:11:45.020,-0.2,-0.12
21:11:45.024,-0.18,-0.12
21:11:45.028,-0.19,-0.13
21:11:45.032,-0.185,-0.11
21:11:45.036,-0.17,-0.125
21:11:45.040,-0.17,-0.12
21:11:45.044,-0.145,-0.145
21:11:45.048,-0.115,-0.13
21:11:45.052,-0.105,-0.13
21:11:45.056,-0.11,-0.13
21:11:45.060,-0.085,-0.135
21:11:45.064,-0.07,-0.14
21:11:45.068,-0.045,-0.125
21:11:45.072,-0.025,-0.115
21:11:45.076,0.0,-0.105
21:11:45.080,0.02,-0.105
21:11:45.084,0.035,-0.1
21:11:45.088,0.065,-0.115
21:11:45.092,0.08,-0.105
21:11:45.096,0.095,-0.095
21:11:45.100,0.095,-0.105
21:11:45.104,0.1,-0.095
21:11:45.108,0.08,-0.12
21:11:45.112,0.005,-0.14
21:11:45.116,-0.035,-0.155
21:11:45.120,-0.08,-0.18
21:11:45.124,-0.145,-0.195
21:11:45.128,-0.17,-0.185
21:11:45.132,-0.205,-0.2
21:11:45.136,-0.24,-0.2
21:11:45.140,-0.27,-0.155
21:11:45.144,-0.28,-0.185
21:11:45.148,-0.28,-0.155
21:11:45.152,-0.26,-0.165
21:11:45.156,-0.265,-0.17
21:11:45.160,-0.245,-0.175
21:11:45.164,-0.25,-0.215
21:11:45.168,-0.24,-0.215
21:11:45.172,-0.235,-0.2
21:11:45.176,-0.235,-0.185
21:11:45.180,-0.245,-0.2
21:11:45.184,-0.23,-0.185
21:11:45.188,-0.24,-0.19
21:11:45.192,-0.215,-0.205
21:11:45.196,-0.225,-0.195
21:11:45.200,-0.225,-0.215
21:11:45.204,-0.235,-0.21
21:11:45.208,-0.24,-0.2
21:11:45.212,-0.26,-0.18
21:11:45.216,-0.265,-0.21
21:11:45.220,-0.245,-0.2
21:11:45.224,-0.255,-0.21
21:11:45.228,-0.22,-0.19
21:11:45.232,-0.245,-0.2
21:11:45.236,-0.235,-0.225
21:11:45.240,-0.22,-0.235
21:11:45.244,-0.225,-0.235
21:11:45.248,-0.225,-0.235
21:11:45.252,-0.185,-0.22
21:11:45.256,-0.15,-0.24
21:11:45.260,-0.115,-0.21
21:11:45.264,-0.03,-0.225
21:11:45.268,0.05,-0.245
21:11:45.272,0.14,-0.245
21:11:45.276,0.22,-0.285
21:11:45.280,0.265,-0.31
21:11:45.284,0.33,-0.35
21:11:45.288,0.34,-0.325
21:11:45.292,0.325,-0.335
21:11:45.296,0.295,-0.34
21:11:45.300,0.36,-0.415
21:11:45.304,0.585,-0.525
21:11:45.308,0.875,-0.735
21:11:45.312,1.08,-0.93
21:11:45.316,1.065,-1.13
21:11:45.320,0.785,-1.205
21:11:45.324,0.315,-1.02
21:11:45.328,-0.025,-0.71
21:11:45.332,-0.185,-0.47
21:11:45.336,-0.26,-0.31
21:11:45.340,-0.3,-0.21
21:11:45.344,-0.31,-0.15
21:11:45.348,-0.33,-0.105
21:11:45.352,-0.36,-0.08
21:11:45.356,-0.35,-0.09
21:11:45.360,-0.365,-0.095
21:11:45.364,-0.385,-0.1
21:11:45.368,-0.38,-0.135
21:11:45.372,-0.4,-0.14
21:11:45.376,-0.395,-0.145
21:11:45.380,-0.375,-0.145
21:11:45.384,-0.37,-0.15
21:11:45.388,-0.36,-0.14
21:11:45.392,-0.36,-0.135
21:11:45.396,-0.38,-0.15
21:11:45.400,-0.36,-0.135
21:11:45.404,-0.37,-0.12
21:11:45.408,-0.37,-0.12
21:11:45.412,-0.39,-0.12
21:11:45.416,-0.385,-0.105
21:11:45.420,-0.39,-0.105
21:11:45.424,-0.405,-0.12
21:11:45.428,-0.42,-0.1
21:11:45.432,-0.41,-0.095
21:11:45.436,-0.425,-0.08
21:11:45.440,-0.43,-0.085
21:11:45.444,-0.425,-0.115
21:11:45.448,-0.425,-0.1
21:11:45.452,-0.44,-0.12
21:11:45.456,-0.44,-0.12
21:11:45.460,-0.445,-0.08
21:11:45.464,-0.45,-0.09
21:11:45.468,-0.44,-0.095
21:11:45.472,-0.445,-0.085
21:11:45.476,-0.44,-0.09
21:11:45.480,-0.45,-0.075
21:11:45.484,-0.43,-0.09
21:11:45.488,-0.425,-0.075
21:11:45.492,-0.42,-0.09
21:11:45.496,-0.385,-0.05
21:11:45.500,-0.395,-0.095
21:11:45.504,-0.405,-0.055
21:11:45.508,-0.405,-0.065
21:11:45.512,-0.375,-0.05
21:11:45.516,-0.365,-0.08
21:11:45.520,-0.365,-0.07
21:11:45.524,-0.355,-0.09
21:11:45.528,-0.34,-0.095
21:11:45.532,-0.345,-0.06
21:11:45.536,-0.33,-0.09
21:11:45.540,-0.32,-0.09
21:11:45.544,-0.33,-0.095
21:11:45.548,-0.3,-0.11
21:11:45.552,-0.305,-0.115
21:11:45.556,-0.275,-0.11
21:11:45.560,-0.26,-0.13
21:11:45.564,-0.26,-0.135
21:11:45.568,-0.235,-0.145
21:11:45.572,-0.225,-0.125
21:11:45.576,-0.225,-0.16
21:11:45.580,-0.215,-0.15
21:11:45.584,-0.21,-0.14
21:11:45.588,-0.19,-0.125
21:11:45.592,-0.18,-0.15
21:11:45.596,-0.18,-0.125
21:11:45.600,-0.165,-0.14
21:11:45.604,-0.15,-0.13
21:11:45.608,-0.155,-0.115
21:11:45.612,-0.15,-0.13
21:11:45.616,-0.17,-0.09
21:11:45.620,-0.16,-0.1
21:11:45.624,-0.16,-0.115
21:11:45.628,-0.16,-0.09
21:11:45.632,-0.17,-0.08
21:11:45.636,-0.155,-0.1
21:11:45.640,-0.17,-0.095
21:11:45.644,-0.18,-0.1
21:11:45.648,-0.18,-0.11
21:11:45.652,-0.17,-0.115
21:11:45.656,-0.18,-0.105
21:11:45.660,-0.195,-0.115
21:11:45.664,-0.175,-0.115
21:11:45.668,-0.17,-0.12
21:11:45.672,-0.185,-0.11
21:11:45.676,-0.185,-0.11
21:11:45.680,-0.19,-0.11
21:11:45.684,-0.185,-0.1
21:11:45.688,-0.18,-0.105
21:11:45.692,-0.195,-0.125
21:11:45.696,-0.195,-0.105
21:11:45.700,-0.185,-0.1
21:11:45.704,-0.175,-0.11
21:11:45.708,-0.145,-0.095
21:11:45.712,-0.15,-0.095
21:11:45.716,-0.12,-0.12
21:11:45.720,-0.1,-0.125
21:11:45.724,-0.1,-0.105
21:11:45.728,-0.105,-0.075
21:11:45.732,-0.105,-0.065
21:11:45.736,-0.06,-0.075
21:11:45.740,-0.03,-0.06
21:11:45.744,-0.01,-0.05
21:11:45.748,0.01,-0.035
21:11:45.752,0.045,-0.055
21:11:45.756,0.05,-0.05
21:11:45.760,0.055,-0.025
21:11:45.764,0.07,-0.02
21:11:45.768,0.08,-0.045
21:11:45.772,0.09,-0.045
21:11:45.776,0.045,-0.06
21:11:45.780,0.015,-0.095
21:11:45.784,-0.015,-0.115
21:11:45.788,-0.08,-0.115
21:11:45.792,-0.115,-0.115
21:11:45.796,-0.165,-0.13
21:11:45.800,-0.23,-0.1
21:11:45.804,-0.235,-0.095
21:11:45.808,-0.26,-0.1
21:11:45.812,-0.27,-0.085
21:11:45.816,-0.275,-0.1
21:11:45.820,-0.26,-0.095
21:11:45.824,-0.24,-0.08
21:11:45.828,-0.265,-0.11
21:11:45.832,-0.235,-0.1
21:11:45.836,-0.21,-0.115
21:11:45.840,-0.225,-0.12
21:11:45.844,-0.22,-0.105
21:11:45.848,-0.21,-0.105
21:11:45.852,-0.205,-0.095
21:11:45.856,-0.225,-0.135
21:11:45.860,-0.225,-0.115
21:11:45.864,-0.22,-0.1
21:11:45.868,-0.23,-0.1
21:11:45.872,-0.23,-0.1
21:11:45.876,-0.22,-0.1
21:11:45.880,-0.225,-0.11
21:11:45.884,-0.215,-0.105
21:11:45.888,-0.205,-0.115
21:11:45.892,-0.215,-0.12
21:11:45.896,-0.22,-0.12
21:11:45.900,-0.225,-0.115
21:11:45.904,-0.22,-0.1
21:11:45.908,-0.215,-0.14
21:11:45.912,-0.22,-0.125
21:11:45.916,-0.23,-0.12
21:11:45.920,-0.195,-0.135
21:11:45.924,-0.15,-0.125
21:11:45.928,-0.12,-0.14
21:11:45.932,-0.045,-0.14
21:11:45.936,0.06,-0.15
21:11:45.940,0.12,-0.145
21:11:45.944,0.175,-0.185
21:11:45.948,0.225,-0.2
21:11:45.952,0.245,-0.24
21:11:45.956,0.26,-0.245
21:11:45.960,0.245,-0.26
21:11:45.964,0.23,-0.31
21:11:45.968,0.295,-0.4
21:11:45.972,0.505,-0.53
21:11:45.976,0.795,-0.705
21:11:45.980,1.04,-0.95
21:11:45.984,1.075,-1.155
21:11:45.988,0.845,-1.25
21:11:45.992,0.395,-1.09
21:11:45.996,0.0,-0.73
21:11:46.000,-0.195,-0.425
21:11:46.004,-0.28,-0.26
21:11:46.008,-0.31,-0.105
21:11:46.012,-0.32,-0.035
21:11:46.016,-0.32,0.0
21:11:46.020,-0.345,0.01
21:11:46.024,-0.335,0.045
21:11:46.028,-0.33,0.025
21:11:46.032,-0.32,0.0
21:11:46.036,-0.32,-0.005
21:11:46.040,-0.32,-0.015
21:11:46.044,-0.31,-0.02
21:11:46.048,-0.315,-0.025
21:11:46.052,-0.32,-0.025
21:11:46.056,-0.32,-0.02
21:11:46.060,-0.335,-0.03
21:11:46.064,-0.325,-0.015
21:11:46.068,-0.325,-0.015
21:11:46.072,-0.335,-0.02
21:11:46.076,-0.34,-0.04
21:11:46.080,-0.335,-0.02
21:11:46.084,-0.355,-0.04
21:11:46.088,-0.385,-0.03
21:11:46.092,-0.38,-0.05
21:11:46.096,-0.365,-0.035
21:11:46.100,-0.37,-0.04
21:11:46.104,-0.37,-0.05
21:11:46.108,-0.37,-0.035
21:11:46.112,-0.385,-0.03
21:11:46.116,-0.395,-0.065
21:11:46.120,-0.375,-0.07
21:11:46.124,-0.405,-0.045
21:11:46.128,-0.4,-0.05
21:11:46.132,-0.41,-0.04
21:11:46.136,-0.42,-0.04
21:11:46.140,-0.415,-0.055
21:11:46.144,-0.4,-0.045
21:11:46.148,-0.4,-0.05
21:11:46.152,-0.39,-0.035
21:11:46.156,-0.39,-0.02
21:11:46.160,-0.38,-0.03
21:11:46.164,-0.375,-0.04
21:11:46.168,-0.355,-0.03
21:11:46.172,-0.335,-0.025
21:11:46.176,-0.35,-0.035
21:11:46.180,-0.335,-0.045
21:11:46.184,-0.32,-0.045
21:11:46.188,-0.32,-0.06
21:11:46.192,-0.32,-0.09
21:11:46.196,-0.31,-0.08
21:11:46.200,-0.3,-0.07
21:11:46.204,-0.31,-0.065
21:11:46.208,-0.295,-0.095
21:11:46.212,-0.28,-0.09
21:11:46.216,-0.255,-0.115
21:11:46.220,-0.25,-0.11
21:11:46.224,-0.24,-0.14
21:11:46.228,-0.21,-0.135
21:11:46.232,-0.235,-0.145
21:11:46.236,-0.18,-0.165
21:11:46.240,-0.21,-0.12
21:11:46.244,-0.175,-0.135
21:11:46.248,-0.19,-0.13
21:11:46.252,-0.15,-0.135
21:11:46.256,-0.15,-0.12
21:11:46.260,-0.15,-0.135
21:11:46.264,-0.125,-0.12
21:11:46.268,-0.13,-0.1
21:11:46.272,-0.145,-0.115
21:11:46.276,-0.13,-0.105
21:11:46.280,-0.14,-0.09
21:11:46.284,-0.12,-0.095
21:11:46.288,-0.135,-0.085
21:11:46.292,-0.135,-0.09
21:11:46.296,-0.13,-0.065
21:11:46.300,-0.135,-0.11
21:11:46.304,-0.16,-0.105
21:11:46.308,-0.16,-0.105
21:11:46.312,-0.17,-0.08
21:11:46.316,-0.14,-0.085
21:11:46.320,-0.16,-0.095
21:11:46.324,-0.16,-0.1
21:11:46.328,-0.165,-0.095
21:11:46.332,-0.15,-0.11
21:11:46.336,-0.155,-0.085
21:11:46.340,-0.17,-0.075
21:11:46.344,-0.175,-0.12
21:11:46.348,-0.16,-0.08
21:11:46.352,-0.15,-0.08
21:11:46.356,-0.14,-0.095
21:11:46.360,-0.125,-0.085
21:11:46.364,-0.105,-0.095
21:11:46.368,-0.095,-0.095
21:11:46.372,-0.105,-0.09
21:11:46.376,-0.08,-0.085
21:11:46.380,-0.08,-0.07
21:11:46.384,-0.055,-0.045
21:11:46.388,-0.01,-0.03
21:11:46.392,0.0,-0.035
21:11:46.396,0.04,-0.025
21:11:46.400,0.05,-0.01
21:11:46.404,0.08,-0.025
21:11:46.408,0.105,-0.03
21:11:46.412,0.105,-0.015
21:11:46.416,0.11,-0.025
21:11:46.420,0.105,-0.03
21:11:46.424,0.085,-0.045
21:11:46.428,0.025,-0.09
21:11:46.432,-0.01,-0.1
21:11:46.436,-0.06,-0.115
21:11:46.440,-0.135,-0.115
21:11:46.444,-0.175,-0.11
21:11:46.448,-0.22,-0.09
21:11:46.452,-0.25,-0.095
21:11:46.456,-0.265,-0.075
21:11:46.460,-0.295,-0.065
21:11:46.464,-0.305,-0.075
21:11:46.468,-0.29,-0.1
21:11:46.472,-0.275,-0.11
21:11:46.476,-0.24,-0.105
21:11:46.480,-0.25,-0.11
21:11:46.484,-0.26,-0.11
21:11:46.488,-0.245,-0.115
21:11:46.492,-0.25,-0.105
21:11:46.496,-0.24,-0.11
21:11:46.500,-0.25,-0.095
21:11:46.504,-0.23,-0.105
21:11:46.508,-0.22,-0.095
21:11:46.512,-0.25,-0.115
21:11:46.516,-0.25,-0.105
21:11:46.520,-0.26,-0.11
21:11:46.524,-0.26,-0.11
21:11:46.528,-0.255,-0.115
21:11:46.532,-0.26,-0.115
21:11:46.536,-0.255,-0.1
21:11:46.540,-0.24,-0.115
21:11:46.544,-0.26,-0.115
21:11:46.548,-0.25,-0.15
21:11:46.552,-0.24,-0.12
21:11:46.556,-0.24,-0.105
21:11:46.560,-0.235,-0.1
21:11:46.564,-0.215,-0.115
21:11:46.568,-0.185,-0.12
21:11:46.572,-0.19,-0.115
21:11:46.576,-0.115,-0.125
21:11:46.580,-0.02,-0.105
21:11:46.584,0.065,-0.11
21:11:46.588,0.135,-0.145
21:11:46.592,0.2,-0.175
21:11:46.596,0.21,-0.23
21:11:46.600,0.24,-0.23
21:11:46.604,0.22,-0.205
21:11:46.608,0.21,-0.215
21:11:46.612,0.215,-0.295
21:11:46.616,0.345,-0.4
21:11:46.620,0.645,-0.565
21:11:46.624,0.96,-0.77
21:11:46.628,1.085,-1.045
21:11:46.632,0.96,-1.19
21:11:46.636,0.565,-1.1
21:11:46.640,0.11,-0.82
21:11:46.644,-0.185,-0.48
21:11:46.648,-0.28,-0.265
21:11:46.652,-0.33,-0.105
21:11:46.656,-0.33,-0.04
21:11:46.660,-0.35,0.01
21:11:46.664,-0.375,0.04
21:11:46.668,-0.38,0.03
21:11:46.672,-0.375,0.025
21:11:46.676,-0.38,0.02
21:11:46.680,-0.37,0.005
21:11:46.684,-0.38,0.0
21:11:46.688,-0.365,-0.01
21:11:46.692,-0.37,-0.01
21:11:46.696,-0.355,0.005
21:11:46.700,-0.35,0.0
21:11:46.704,-0.355,0.0
21:11:46.708,-0.36,0.01
21:11:46.712,-0.36,0.01
21:11:46.716,-0.37,-0.005
21:11:46.720,-0.365,0.01
21:11:46.724,-0.36,0.03
21:11:46.728,-0.405,0.01
21:11:46.732,-0.39,0.0
21:11:46.736,-0.405,0.0
21:11:46.740,-0.415,0.005
21:11:46.744,-0.425,-0.015
21:11:46.748,-0.42,0.015
21:11:46.752,-0.425,0.01
21:11:46.756,-0.435,0.01
21:11:46.760,-0.435,0.0
21:11:46.764,-0.455,0.005
21:11:46.768,-0.44,0.0
21:11:46.772,-0.445,-0.005
21:11:46.776,-0.435,0.02
21:11:46.780,-0.435,0.0
21:11:46.784,-0.44,0.02
21:11:46.788,-0.435,0.02
21:11:46.792,-0.455,0.02
21:11:46.796,-0.43,0.01
21:11:46.800,-0.4,0.02
21:11:46.804,-0.395,0.0
21:11:46.808,-0.385,0.02
21:11:46.812,-0.39,0.02
21:11:46.816,-0.38,0.01
21:11:46.820,-0.365,0.025
21:11:46.824,-0.365,0.02
21:11:46.828,-0.35,0.015
21:11:46.832,-0.33,0.015
21:11:46.836,-0.345,0.01
21:11:46.840,-0.335,0.005
21:11:46.844,-0.305,0.0
21:11:46.848,-0.295,0.0
21:11:46.852,-0.32,-0.015
21:11:46.856,-0.32,-0.015
21:11:46.860,-0.305,-0.03
21:11:46.864,-0.265,-0.02
21:11:46.868,-0.24,-0.055
21:11:46.872,-0.23,-0.045
21:11:46.876,-0.23,-0.055
21:11:46.880,-0.205,-0.035
21:11:46.884,-0.2,-0.05
21:11:46.888,-0.185,-0.05
21:11:46.892,-0.195,-0.055
21:11:46.896,-0.18,-0.045
21:11:46.900,-0.175,-0.025
21:11:46.904,-0.155,-0.035
21:11:46.908,-0.155,-0.045
21:11:46.912,-0.14,-0.025
21:11:46.916,-0.135,-0.04
21:11:46.920,-0.13,-0.045
21:11:46.924,-0.125,-0.035
21:11:46.928,-0.11,-0.03
21:11:46.932,-0.1,-0.035
21:11:46.936,-0.13,-0.02
21:11:46.940,-0.115,-0.015
21:11:46.944,-0.12,-0.025
21:11:46.948,-0.115,-0.01
21:11:46.952,-0.115,-0.02
21:11:46.956,-0.13,-0.005
21:11:46.960,-0.155,-0.015
21:11:46.964,-0.165,-0.02
21:11:46.968,-0.155,0.0
21:11:46.972,-0.145,-0.02
21:11:46.976,-0.16,-0.01
21:11:46.980,-0.155,-0.02
21:11:46.984,-0.145,-0.02
21:11:46.988,-0.14,-0.025
21:11:46.992,-0.155,-0.025
21:11:46.996,-0.13,-0.035
21:11:47.000,-0.155,-0.02
21:11:47.004,-0.145,0.0
21:11:47.008,-0.125,-0.005
21:11:47.012,-0.1,-0.005
21:11:47.016,-0.075,-0.01
21:11:47.020,-0.085,-0.03
21:11:47.024,-0.065,-0.035
21:11:47.028,-0.065,0.0
21:11:47.032,-0.045,-0.01
21:11:47.036,-0.02,0.015
21:11:47.040,0.015,0.0
21:11:47.044,0.035,0.025
21:11:47.048,0.07,0.02
21:11:47.052,0.085,0.035
21:11:47.056,0.12,0.04
21:11:47.060,0.12,0.04
21:11:47.064,0.15,0.025
21:11:47.068,0.14,0.035
21:11:47.072,0.11,0.005
21:11:47.076,0.06,0.0
21:11:47.080,0.015,-0.025
21:11:47.084,-0.02,-0.03
21:11:47.088,-0.075,-0.04
21:11:47.092,-0.135,-0.065
21:11:47.096,-0.19,-0.055
21:11:47.100,-0.21,-0.045
21:11:47.104,-0.245,-0.04
21:11:47.108,-0.26,-0.055
21:11:47.112,-0.26,-0.035
21:11:47.116,-0.265,-0.05
21:11:47.120,-0.265,-0.06
21:11:47.124,-0.255,-0.065
21:11:47.128,-0.225,-0.05
21:11:47.132,-0.23,-0.045
21:11:47.136,-0.215,-0.06
21:11:47.140,-0.23,-0.075
21:11:47.144,-0.22,-0.07
21:11:47.148,-0.22,-0.065
21:11:47.152,-0.24,-0.065
21:11:47.156,-0.22,-0.065
21:11:47.160,-0.205,-0.04
21:11:47.164,-0.21,-0.06
21:11:47.168,-0.215,-0.065
21:11:47.172,-0.215,-0.06
21:11:47.176,-0.23,-0.07
21:11:47.180,-0.235,-0.095
21:11:47.184,-0.23,-0.07
21:11:47.188,-0.215,-0.095
21:11:47.192,-0.21,-0.095
21:11:47.196,-0.22,-0.1
21:11:47.200,-0.215,-0.1
21:11:47.204,-0.21,-0.1
21:11:47.208,-0.205,-0.1
21:11:47.212,-0.195,-0.09
21:11:47.216,-0.195,-0.1
21:11:47.220,-0.16,-0.09
21:11:47.224,-0.09,-0.08
21:11:47.228,-0.03,-0.095
21:11:47.232,0.08,-0.1
21:11:47.236,0.165,-0.13
21:11:47.240,0.205,-0.15
21:11:47.244,0.255,-0.185
21:11:47.248,0.275,-0.215
21:11:47.252,0.285,-0.18
21:11:47.256,0.265,-0.215
21:11:47.260,0.26,-0.265
21:11:47.264,0.365,-0.375
21:11:47.268,0.585,-0.53
21:11:47.272,0.9,-0.75
21:11:47.276,1.095,-0.99
21:11:47.280,1.075,-1.165
21:11:47.284,0.74,-1.16
21:11:47.288,0.28,-0.905
21:11:47.292,-0.08,-0.54
21:11:47.296,-0.22,-0.305
21:11:47.300,-0.275,-0.155
21:11:47.304,-0.29,-0.085
21:11:47.308,-0.295,-0.015
21:11:47.312,-0.325,0.01
21:11:47.316,-0.34,0.025
21:11:47.320,-0.335,0.0
21:11:47.324,-0.375,0.0
21:11:47.328,-0.35,-0.025
21:11:47.332,-0.38,-0.015
21:11:47.336,-0.355,-0.025
21:11:47.340,-0.37,-0.035
21:11:47.344,-0.37,-0.04
21:11:47.348,-0.365,-0.02
21:11:47.352,-0.36,-0.035
21:11:47.356,-0.37,-0.025
21:11:47.360,-0.375,-0.04
21:11:47.364,-0.36,-0.03
21:11:47.368,-0.38,-0.06
21:11:47.372,-0.385,-0.04
21:11:47.376,-0.375,-0.02
21:11:47.380,-0.38,-0.035
21:11:47.384,-0.375,-0.03
21:11:47.388,-0.38,-0.02
21:11:47.392,-0.405,-0.04
21:11:47.396,-0.45,-0.03
21:11:47.400,-0.425,-0.045
21:11:47.404,-0.44,-0.04
21:11:47.408,-0.45,-0.03
21:11:47.412,-0.435,-0.055
21:11:47.416,-0.435,-0.035
21:11:47.420,-0.45,-0.05
21:11:47.424,-0.465,-0.07
21:11:47.428,-0.465,-0.07
21:11:47.432,-0.445,-0.045
21:11:47.436,-0.455,-0.06
21:11:47.440,-0.465,-0.065
21:11:47.444,-0.44,-0.06
21:11:47.448,-0.435,-0.05
21:11:47.452,-0.43,-0.04
21:11:47.456,-0.415,-0.04
21:11:47.460,-0.415,-0.075
21:11:47.464,-0.405,-0.08
21:11:47.468,-0.385,-0.06
21:11:47.472,-0.38,-0.06
21:11:47.476,-0.36,-0.06
21:11:47.480,-0.36,-0.035
21:11:47.484,-0.345,-0.065
21:11:47.488,-0.34,-0.07
21:11:47.492,-0.335,-0.07
21:11:47.496,-0.345,-0.075
21:11:47.500,-0.33,-0.1
21:11:47.504,-0.31,-0.1
21:11:47.508,-0.33,-0.075
21:11:47.512,-0.305,-0.105
21:11:47.516,-0.265,-0.12
21:11:47.520,-0.26,-0.12
21:11:47.524,-0.255,-0.1
21:11:47.528,-0.245,-0.13
21:11:47.532,-0.24,-0.155
21:11:47.536,-0.23,-0.13
21:11:47.540,-0.215,-0.12
21:11:47.544,-0.19,-0.125
21:11:47.548,-0.2,-0.11
21:11:47.552,-0.195,-0.145
21:11:47.556,-0.2,-0.125
21:11:47.560,-0.175,-0.145
21:11:47.564,-0.185,-0.1
21:11:47.568,-0.165,-0.1
21:11:47.572,-0.17,-0.105
21:11:47.576,-0.17,-0.085
21:11:47.580,-0.15,-0.09
21:11:47.584,-0.14,-0.095
21:11:47.588,-0.155,-0.09
21:11:47.592,-0.18,-0.08
21:11:47.596,-0.16,-0.09
21:11:47.600,-0.165,-0.085
21:11:47.604,-0.16,-0.08
21:11:47.608,-0.185,-0.09
21:11:47.612,-0.19,-0.095
21:11:47.616,-0.19,-0.085
21:11:47.620,-0.19,-0.08
21:11:47.624,-0.185,-0.085
21:11:47.628,-0.18,-0.105
21:11:47.632,-0.17,-0.115
21:11:47.636,-0.185,-0.11
21:11:47.640,-0.2,-0.1
21:11:47.644,-0.205,-0.11
21:11:47.648,-0.185,-0.11
21:11:47.652,-0.18,-0.095
21:11:47.656,-0.19,-0.095
21:11:47.660,-0.2,-0.1
21:11:47.664,-0.18,-0.1
21:11:47.668,-0.18,-0.115
21:11:47.672,-0.145,-0.12
21:11:47.676,-0.16,-0.115
21:11:47.680,-0.165,-0.125
21:11:47.684,-0.135,-0.1
21:11:47.688,-0.14,-0.12
21:11:47.692,-0.1,-0.11
21:11:47.696,-0.105,-0.13
21:11:47.700,-0.135,-0.14
21:11:47.704,-0.105,-0.12
21:11:47.708,-0.07,-0.105
21:11:47.712,-0.02,-0.11
21:11:47.716,-0.005,-0.095
21:11:47.720,0.01,-0.08
21:11:47.724,0.03,-0.075
21:11:47.728,0.055,-0.06
21:11:47.732,0.075,-0.06
21:11:47.736,0.09,-0.065
21:11:47.740,0.13,-0.075
21:11:47.744,0.1,-0.08
21:11:47.748,0.07,-0.1
21:11:47.752,0.005,-0.135
21:11:47.756,-0.025,-0.14
21:11:47.760,-0.055,-0.145
21:11:47.764,-0.115,-0.16
21:11:47.768,-0.185,-0.155
21:11:47.772,-0.205,-0.155
21:11:47.776,-0.25,-0.15
21:11:47.780,-0.245,-0.14
21:11:47.784,-0.275,-0.15
21:11:47.788,-0.275,-0.135
21:11:47.792,-0.25,-0.14
21:11:47.796,-0.24,-0.15
21:11:47.800,-0.245,-0.13
21:11:47.804,-0.235,-0.145
21:11:47.808,-0.25,-0.13
21:11:47.812,-0.23,-0.16
21:11:47.816,-0.24,-0.15
21:11:47.820,-0.24,-0.145
21:11:47.824,-0.23,-0.16
21:11:47.828,-0.235,-0.15
21:11:47.832,-0.22,-0.13
21:11:47.836,-0.23,-0.15
21:11:47.840,-0.225,-0.14
21:11:47.844,-0.225,-0.15
21:11:47.848,-0.23,-0.145
21:11:47.852,-0.225,-0.155
21:11:47.856,-0.195,-0.155
21:11:47.860,-0.205,-0.15
21:11:47.864,-0.195,-0.14
21:11:47.868,-0.215,-0.16
21:11:47.872,-0.215,-0.155
21:11:47.876,-0.215,-0.175
21:11:47.880,-0.195,-0.155
21:11:47.884,-0.2,-0.145
21:11:47.888,-0.17,-0.145
21:11:47.892,-0.155,-0.14
21:11:47.896,-0.095,-0.165
21:11:47.900,-0.025,-0.15
21:11:47.904,0.06,-0.16
21:11:47.908,0.15,-0.145
21:11:47.912,0.225,-0.175
21:11:47.916,0.28,-0.19
21:11:47.920,0.31,-0.24
21:11:47.924,0.355,-0.245
21:11:47.928,0.355,-0.23
21:11:47.932,0.325,-0.235
21:11:47.936,0.33,-0.315
21:11:47.940,0.5,-0.435
21:11:47.944,0.79,-0.605
21:11:47.948,1.055,-0.845
21:11:47.952,1.145,-1.035
21:11:47.956,0.94,-1.13
21:11:47.960,0.505,-1.025
21:11:47.964,0.12,-0.705
21:11:47.968,-0.1,-0.415
21:11:47.972,-0.18,-0.245
21:11:47.976,-0.23,-0.11
21:11:47.980,-0.235,-0.05
21:11:47.984,-0.26,0.0
21:11:47.988,-0.285,0.01
21:11:47.992,-0.3,0.02
21:11:47.996,-0.31,0.015
21:11:48.000,-0.32,0.0
21:11:48.004,-0.305,-0.02
21:11:48.008,-0.305,-0.035
21:11:48.012,-0.32,-0.05
21:11:48.016,-0.305,-0.05
21:11:48.020,-0.29,-0.01
21:11:48.024,-0.31,-0.03
21:11:48.028,-0.32,-0.035
21:11:48.032,-0.315,0.0
21:11:48.036,-0.325,-0.005
21:11:48.040,-0.335,-0.015
21:11:48.044,-0.335,0.0
21:11:48.048,-0.345,-0.005
21:11:48.052,-0.34,-0.02
21:11:48.056,-0.36,0.0
21:11:48.060,-0.36,-0.005
21:11:48.064,-0.37,0.0
21:11:48.068,-0.37,-0.015
21:11:48.072,-0.375,-0.015
21:11:48.076,-0.375,0.0
21:11:48.080,-0.395,-0.015
21:11:48.084,-0.365,-0.03
21:11:48.088,-0.385,-0.015
21:11:48.092,-0.395,-0.01
21:11:48.096,-0.395,0.0
21:11:48.100,-0.39,-0.01
21:11:48.104,-0.37,0.0
21:11:48.108,-0.395,0.005
21:11:48.112,-0.37,0.0
21:11:48.116,-0.365,-0.015
21:11:48.120,-0.36,0.005
21:11:48.124,-0.365,-0.005
21:11:48.128,-0.375,0.005
21:11:48.132,-0.35,0.005
21:11:48.136,-0.35,0.0
21:11:48.140,-0.35,0.015
21:11:48.144,-0.33,0.01
21:11:48.148,-0.34,-0.01
21:11:48.152,-0.315,-0.015
21:11:48.156,-0.29,-0.02
21:11:48.160,-0.325,-0.005
21:11:48.164,-0.3,-0.01
21:11:48.168,-0.295,-0.025
21:11:48.172,-0.27,-0.02
21:11:48.176,-0.255,-0.03
21:11:48.180,-0.255,-0.05
21:11:48.184,-0.23,-0.075
21:11:48.188,-0.225,-0.065
21:11:48.192,-0.215,-0.05
21:11:48.196,-0.195,-0.075
21:11:48.200,-0.185,-0.085
21:11:48.204,-0.16,-0.075
21:11:48.208,-0.165,-0.055
21:11:48.212,-0.155,-0.065
21:11:48.216,-0.115,-0.075
21:11:48.220,-0.105,-0.075
21:11:48.224,-0.11,-0.07
21:11:48.228,-0.105,-0.065
21:11:48.232,-0.085,-0.065
21:11:48.236,-0.1,-0.05
21:11:48.240,-0.11,-0.045
21:11:48.244,-0.08,-0.04
21:11:48.248,-0.1,-0.05
21:11:48.252,-0.105,-0.05
21:11:48.256,-0.115,-0.045
21:11:48.260,-0.095,-0.04
21:11:48.264,-0.105,-0.025
21:11:48.268,-0.12,-0.035
21:11:48.272,-0.115,-0.02
21:11:48.276,-0.12,-0.04
21:11:48.280,-0.115,-0.04
21:11:48.284,-0.12,-0.065
21:11:48.288,-0.135,-0.05
21:11:48.292,-0.12,-0.05
21:11:48.296,-0.115,-0.045
21:11:48.300,-0.14,-0.04
21:11:48.304,-0.12,-0.03
21:11:48.308,-0.14,-0.05
21:11:48.312,-0.125,-0.035
21:11:48.316,-0.13,-0.025
21:11:48.320,-0.125,-0.03
21:11:48.324,-0.145,-0.025
21:11:48.328,-0.13,-0.03
21:11:48.332,-0.12,-0.04
21:11:48.336,-0.115,-0.035
21:11:48.340,-0.12,-0.055
21:11:48.344,-0.125,-0.05
21:11:48.348,-0.1,-0.04
21:11:48.352,-0.115,-0.035
21:11:48.356,-0.1,-0.045
21:11:48.360,-0.09,-0.055
21:11:48.364,-0.06,-0.05
21:11:48.368,-0.07,0.0
21:11:48.372,-0.07,-0.035
21:11:48.376,-0.04,-0.03
21:11:48.380,-0.03,-0.035
21:11:48.384,-0.005,0.01
21:11:48.388,0.03,0.01
21:11:48.392,0.04,0.015
21:11:48.396,0.06,0.0
21:11:48.400,0.085,0.005
21:11:48.404,0.105,0.02
21:11:48.408,0.115,0.01
21:11:48.412,0.115,0.01
21:11:48.416,0.085,-0.045
21:11:48.420,0.055,-0.03
21:11:48.424,0.01,-0.05
21:11:48.428,-0.055,-0.07
21:11:48.432,-0.115,-0.07
21:11:48.436,-0.165,-0.05
21:11:48.440,-0.2,-0.065
21:11:48.444,-0.215,-0.02
21:11:48.448,-0.24,-0.04
21:11:48.452,-0.245,-0.035
21:11:48.456,-0.24,-0.025
21:11:48.460,-0.24,-0.035
21:11:48.464,-0.25,-0.04
21:11:48.468,-0.24,-0.035
21:11:48.472,-0.235,-0.06
21:11:48.476,-0.25,-0.04
21:11:48.480,-0.23,-0.065
21:11:48.484,-0.215,-0.05
21:11:48.488,-0.225,-0.065
21:11:48.492,-0.22,-0.055
21:11:48.496,-0.235,-0.065
21:11:48.500,-0.23,-0.075
21:11:48.504,-0.255,-0.075
21:11:48.508,-0.235,-0.055
21:11:48.512,-0.235,-0.06
21:11:48.516,-0.23,-0.085
21:11:48.520,-0.225,-0.065
21:11:48.524,-0.24,-0.065
21:11:48.528,-0.24,-0.06
21:11:48.532,-0.225,-0.07
21:11:48.536,-0.245,-0.065
21:11:48.540,-0.215,-0.075
21:11:48.544,-0.23,-0.095
21:11:48.548,-0.245,-0.095
21:11:48.552,-0.21,-0.08
21:11:48.556,-0.19,-0.07
21:11:48.560,-0.155,-0.055
21:11:48.564,-0.135,-0.045
21:11:48.568,-0.08,-0.065
21:11:48.572,0.005,-0.065
21:11:48.576,0.09,-0.085
21:11:48.580,0.145,-0.11
21:11:48.584,0.19,-0.125
21:11:48.588,0.23,-0.17
21:11:48.592,0.225,-0.18
21:11:48.596,0.235,-0.19
21:11:48.600,0.215,-0.2
21:11:48.604,0.215,-0.26
21:11:48.608,0.325,-0.37
21:11:48.612,0.56,-0.53
21:11:48.616,0.885,-0.75
21:11:48.620,1.07,-0.985
21:11:48.624,1.035,-1.155
21:11:48.628,0.725,-1.15
21:11:48.632,0.245,-0.88
21:11:48.636,-0.08,-0.545
21:11:48.640,-0.24,-0.26
21:11:48.644,-0.305,-0.125
21:11:48.648,-0.31,-0.04
21:11:48.652,-0.32,0.035
21:11:48.656,-0.345,0.055
21:11:48.660,-0.34,0.085
21:11:48.664,-0.34,0.07
21:11:48.668,-0.345,0.06
21:11:48.672,-0.325,0.055
21:11:48.676,-0.335,0.035
21:11:48.680,-0.335,0.035
21:11:48.684,-0.35,0.025
21:11:48.688,-0.33,0.01
21:11:48.692,-0.36,0.02
21:11:48.696,-0.35,0.035
21:11:48.700,-0.345,0.035
21:11:48.704,-0.345,0.035
21:11:48.708,-0.36,0.02
21:11:48.712,-0.35,0.035
21:11:48.716,-0.365,0.02
21:11:48.720,-0.38,0.02
21:11:48.724,-0.39,0.01
21:11:48.728,-0.39,0.025
21:11:48.732,-0.405,0.025
21:11:48.736,-0.405,0.03
21:11:48.740,-0.41,0.025
21:11:48.744,-0.4,0.015
21:11:48.748,-0.4,0.005
21:11:48.752,-0.405,0.02
21:11:48.756,-0.405,0.015
21:11:48.760,-0.42,-0.005
21:11:48.764,-0.43,0.005
21:11:48.768,-0.42,0.035
21:11:48.772,-0.42,0.03
21:11:48.776,-0.425,0.02
21:11:48.780,-0.4,0.035
21:11:48.784,-0.4,0.04
21:11:48.788,-0.385,0.035
21:11:48.792,-0.4,0.03
21:11:48.796,-0.38,0.04
21:11:48.800,-0.395,0.05
21:11:48.804,-0.395,0.055
21:11:48.808,-0.375,0.04
21:11:48.812,-0.375,0.035
21:11:48.816,-0.35,0.02
21:11:48.820,-0.33,0.04
21:11:48.824,-0.325,0.025
21:11:48.828,-0.335,0.03
21:11:48.832,-0.31,0.02
21:11:48.836,-0.32,0.005
21:11:48.840,-0.29,0.005
21:11:48.844,-0.29,-0.005
21:11:48.848,-0.29,-0.005
21:11:48.852,-0.26,-0.01
21:11:48.856,-0.25,-0.015
21:11:48.860,-0.245,-0.005
21:11:48.864,-0.22,-0.02
21:11:48.868,-0.195,-0.025
21:11:48.872,-0.2,-0.035
21:11:48.876,-0.19,-0.035
21:11:48.880,-0.16,-0.04
21:11:48.884,-0.16,-0.035
21:11:48.888,-0.145,-0.035
21:11:48.892,-0.14,-0.04
21:11:48.896,-0.135,-0.015
21:11:48.900,-0.125,-0.04
21:11:48.904,-0.105,-0.04
21:11:48.908,-0.095,-0.035
21:11:48.912,-0.1,-0.015
21:11:48.916,-0.115,-0.025
21:11:48.920,-0.09,-0.01
21:11:48.924,-0.1,-0.01
21:11:48.928,-0.095,0.0
21:11:48.932,-0.095,0.005
21:11:48.936,-0.105,-0.01
21:11:48.940,-0.105,-0.02
21:11:48.944,-0.12,0.0
21:11:48.948,-0.12,0.005
21:11:48.952,-0.12,-0.01
21:11:48.956,-0.115,-0.01
21:11:48.960,-0.12,0.0
21:11:48.964,-0.135,-0.005
21:11:48.968,-0.145,-0.01
21:11:48.972,-0.125,-0.025
21:11:48.976,-0.135,-0.01
21:11:48.980,-0.145,-0.03
21:11:48.984,-0.12,-0.02
21:11:48.988,-0.145,-0.025
21:11:48.992,-0.14,0.0
21:11:48.996,-0.155,0.0
21:11:49.000,-0.135,0.0
21:11:49.004,-0.13,-0.04
21:11:49.008,-0.13,-0.03
21:11:49.012,-0.125,-0.005
21:11:49.016,-0.13,-0.035
21:11:49.020,-0.125,-0.04
21:11:49.024,-0.115,-0.015
21:11:49.028,-0.12,-0.02
21:11:49.032,-0.095,-0.03
21:11:49.036,-0.075,-0.045
21:11:49.040,-0.07,-0.065
21:11:49.044,-0.07,-0.02
21:11:49.048,-0.065,-0.03
21:11:49.052,-0.075,-0.035
21:11:49.056,-0.05,-0.03
21:11:49.060,-0.025,-0.03
21:11:49.064,0.01,-0.015
21:11:49.068,0.055,-0.01
21:11:49.072,0.07,-0.015
21:11:49.076,0.1,0.0
21:11:49.080,0.11,0.01
21:11:49.084,0.145,-0.01
21:11:49.088,0.145,-0.005
21:11:49.092,0.14,-0.01
21:11:49.096,0.115,-0.025
21:11:49.100,0.065,-0.06
21:11:49.104,0.005,-0.075
21:11:49.108,-0.04,-0.095
21:11:49.112,-0.07,-0.075
21:11:49.116,-0.105,-0.065
21:11:49.120,-0.15,-0.08
21:11:49.124,-0.18,-0.08
21:11:49.128,-0.21,-0.075
21:11:49.132,-0.23,-0.06
21:11:49.136,-0.235,-0.04
21:11:49.140,-0.235,-0.05
21:11:49.144,-0.21,-0.07
21:11:49.148,-0.235,-0.095
21:11:49.152,-0.22,-0.09
21:11:49.156,-0.22,-0.085
21:11:49.160,-0.225,-0.08
21:11:49.164,-0.24,-0.11
21:11:49.168,-0.22,-0.08
21:11:49.172,-0.23,-0.105
21:11:49.176,-0.225,-0.1
21:11:49.180,-0.225,-0.105
21:11:49.184,-0.215,-0.115
21:11:49.188,-0.22,-0.1
21:11:49.192,-0.225,-0.11
21:11:49.196,-0.225,-0.105
21:11:49.200,-0.22,-0.115
21:11:49.204,-0.215,-0.1
21:11:49.208,-0.235,-0.125
21:11:49.212,-0.215,-0.13
21:11:49.216,-0.185,-0.135
21:11:49.220,-0.195,-0.11
21:11:49.224,-0.19,-0.13
21:11:49.228,-0.18,-0.145
21:11:49.232,-0.17,-0.1
21:11:49.236,-0.16,-0.125
21:11:49.240,-0.145,-0.115
21:11:49.244,-0.1,-0.12
21:11:49.248,-0.05,-0.115
21:11:49.252,0.02,-0.13
21:11:49.256,0.115,-0.13
21:11:49.260,0.18,-0.155
21:11:49.264,0.205,-0.185
21:11:49.268,0.23,-0.235
21:11:49.272,0.255,-0.24
21:11:49.276,0.255,-0.245
21:11:49.280,0.21,-0.265
21:11:49.284,0.22,-0.34
21:11:49.288,0.34,-0.47
21:11:49.292,0.615,-0.655
21:11:49.296,0.935,-0.84
21:11:49.300,1.105,-1.105
21:11:49.304,1.005,-1.255
21:11:49.308,0.655,-1.18
21:11:49.312,0.205,-0.9
21:11:49.316,-0.1,-0.545
21:11:49.320,-0.22,-0.315
21:11:49.324,-0.27,-0.175
21:11:49.328,-0.29,-0.1
21:11:49.332,-0.31,-0.035
21:11:49.336,-0.285,-0.01
21:11:49.340,-0.31,-0.005
21:11:49.344,-0.31,-0.01
21:11:49.348,-0.31,-0.01
21:11:49.352,-0.33,-0.035
21:11:49.356,-0.32,-0.045
21:11:49.360,-0.33,-0.055
21:11:49.364,-0.335,-0.07
21:11:49.368,-0.32,-0.06
21:11:49.372,-0.32,-0.055
21:11:49.376,-0.34,-0.055
21:11:49.380,-0.35,-0.08
21:11:49.384,-0.35,-0.08
21:11:49.388,-0.37,-0.08
21:11:49.392,-0.36,-0.075
21:11:49.396,-0.375,-0.075
21:11:49.400,-0.365,-0.095
21:11:49.404,-0.385,-0.08
21:11:49.408,-0.39,-0.115
21:11:49.412,-0.385,-0.1
21:11:49.416,-0.395,-0.095
21:11:49.420,-0.4,-0.115
21:11:49.424,-0.385,-0.1
21:11:49.428,-0.39,-0.085
21:11:49.432,-0.39,-0.11
21:11:49.436,-0.41,-0.08
21:11:49.440,-0.395,-0.1
21:11:49.444,-0.405,-0.09
21:11:49.448,-0.395,-0.06
21:11:49.452,-0.4,-0.095
21:11:49.456,-0.4,-0.085
21:11:49.460,-0.4,-0.095
21:11:49.464,-0.4,-0.07
21:11:49.468,-0.4,-0.07
21:11:49.472,-0.395,-0.08
21:11:49.476,-0.41,-0.065
21:11:49.480,-0.385,-0.065
21:11:49.484,-0.39,-0.075
21:11:49.488,-0.395,-0.07
21:11:49.492,-0.385,-0.08
21:11:49.496,-0.385,-0.09
21:11:49.500,-0.37,-0.1
21:11:49.504,-0.35,-0.085
21:11:49.508,-0.35,-0.105
21:11:49.512,-0.345,-0.11
21:11:49.516,-0.325,-0.115
21:11:49.520,-0.31,-0.12
21:11:49.524,-0.285,-0.115
21:11:49.528,-0.275,-0.15
21:11:49.532,-0.255,-0.145
21:11:49.536,-0.26,-0.15
21:11:49.540,-0.245,-0.16
21:11:49.544,-0.245,-0.15
21:11:49.548,-0.215,-0.17
21:11:49.552,-0.19,-0.16
21:11:49.556,-0.185,-0.16
21:11:49.560,-0.19,-0.155
21:11:49.564,-0.16,-0.18
21:11:49.568,-0.15,-0.17
21:11:49.572,-0.14,-0.16
21:11:49.576,-0.14,-0.145
21:11:49.580,-0.13,-0.145
21:11:49.584,-0.135,-0.15
21:11:49.588,-0.11,-0.15
21:11:49.592,-0.14,-0.16
21:11:49.596,-0.135,-0.14
21:11:49.600,-0.14,-0.135
21:11:49.604,-0.125,-0.14
21:11:49.608,-0.145,-0.155
21:11:49.612,-0.145,-0.135
21:11:49.616,-0.16,-0.135
21:11:49.620,-0.155,-0.14
21:11:49.624,-0.145,-0.155
21:11:49.628,-0.15,-0.14
21:11:49.632,-0.165,-0.15
21:11:49.636,-0.14,-0.11
21:11:49.640,-0.165,-0.135
21:11:49.644,-0.16,-0.12
21:11:49.648,-0.165,-0.11
21:11:49.652,-0.155,-0.13
21:11:49.656,-0.165,-0.13
21:11:49.660,-0.155,-0.125
21:11:49.664,-0.16,-0.11
21:11:49.668,-0.16,-0.135
21:11:49.672,-0.175,-0.105
21:11:49.676,-0.17,-0.105
21:11:49.680,-0.16,-0.095
21:11:49.684,-0.175,-0.125
21:11:49.688,-0.175,-0.105
21:11:49.692,-0.17,-0.11
21:11:49.696,-0.15,-0.1
21:11:49.700,-0.15,-0.1
21:11:49.704,-0.145,-0.1
21:11:49.708,-0.14,-0.11
21:11:49.712,-0.14,-0.105
21:11:49.716,-0.12,-0.115
21:11:49.720,-0.115,-0.1
21:11:49.724,-0.09,-0.085
21:11:49.728,-0.07,-0.115
21:11:49.732,-0.045,-0.1
21:11:49.736,0.0,-0.1
21:11:49.740,0.045,-0.115
21:11:49.744,0.07,-0.07
21:11:49.748,0.075,-0.08
21:11:49.752,0.1,-0.055
21:11:49.756,0.11,-0.06
21:11:49.760,0.115,-0.085
21:11:49.764,0.14,-0.075
21:11:49.768,0.13,-0.11
21:11:49.772,0.115,-0.09
21:11:49.776,0.04,-0.115
21:11:49.780,0.005,-0.13
21:11:49.784,-0.055,-0.145
21:11:49.788,-0.085,-0.13
21:11:49.792,-0.14,-0.135
21:11:49.796,-0.195,-0.115
21:11:49.800,-0.23,-0.08
21:11:49.804,-0.235,-0.125
21:11:49.808,-0.265,-0.1
21:11:49.812,-0.255,-0.095
21:11:49.816,-0.25,-0.105
21:11:49.820,-0.25,-0.11
21:11:49.824,-0.23,-0.13
21:11:49.828,-0.24,-0.12
21:11:49.832,-0.21,-0.125
21:11:49.836,-0.215,-0.13
21:11:49.840,-0.22,-0.14
21:11:49.844,-0.215,-0.15
21:11:49.848,-0.21,-0.155
21:11:49.852,-0.215,-0.155
21:11:49.856,-0.205,-0.145
21:11:49.860,-0.215,-0.15
21:11:49.864,-0.225,-0.145
21:11:49.868,-0.195,-0.145
21:11:49.872,-0.19,-0.15
21:11:49.876,-0.195,-0.145
21:11:49.880,-0.17,-0.115
21:11:49.884,-0.175,-0.125
21:11:49.888,-0.175,-0.135
21:11:49.892,-0.18,-0.125
21:11:49.896,-0.155,-0.13
21:11:49.900,-0.16,-0.1
21:11:49.904,-0.16,-0.13
21:11:49.908,-0.16,-0.14
21:11:49.912,-0.145,-0.115
21:11:49.916,-0.11,-0.14
21:11:49.920,-0.055,-0.15
21:11:49.924,-0.015,-0.14
21:11:49.928,0.075,-0.14
21:11:49.932,0.155,-0.15
21:11:49.936,0.21,-0.19
21:11:49.940,0.255,-0.225
21:11:49.944,0.285,-0.255
21:11:49.948,0.29,-0.245
21:11:49.952,0.265,-0.26
21:11:49.956,0.275,-0.3
21:11:49.960,0.35,-0.435
21:11:49.964,0.575,-0.575
21:11:49.968,0.875,-0.795
21:11:49.972,1.105,-1.025
21:11:49.976,1.1,-1.21
21:11:49.980,0.825,-1.215
21:11:49.984,0.345,-0.985
21:11:49.988,-0.015,-0.625
21:11:49.992,-0.17,-0.33
21:11:49.996,-0.22,-0.19
21:11:50.000,-0.245,-0.095
21:11:50.004,-0.255,-0.02
21:11:50.008,-0.275,-0.015
21:11:50.012,-0.3,0.015
21:11:50.016,-0.3,0.005
21:11:50.020,-0.31,-0.015
21:11:50.024,-0.3,-0.02
21:11:50.028,-0.32,-0.025
21:11:50.032,-0.325,-0.05
21:11:50.036,-0.32,-0.055
21:11:50.040,-0.32,-0.065
21:11:50.044,-0.345,-0.045
21:11:50.048,-0.35,-0.07
21:11:50.052,-0.34,-0.06
21:11:50.056,-0.325,-0.055
21:11:50.060,-0.355,-0.07
21:11:50.064,-0.355,-0.07
21:11:50.068,-0.35,-0.09
21:11:50.072,-0.35,-0.08
21:11:50.076,-0.37,-0.065
21:11:50.080,-0.36,-0.075
21:11:50.084,-0.38,-0.065
21:11:50.088,-0.385,-0.08
21:11:50.092,-0.37,-0.09
21:11:50.096,-0.385,-0.055
21:11:50.100,-0.385,-0.085
21:11:50.104,-0.375,-0.075
21:11:50.108,-0.365,-0.095
21:11:50.112,-0.385,-0.07
21:11:50.116,-0.36,-0.04
21:11:50.120,-0.375,-0.055
21:11:50.124,-0.385,-0.075
21:11:50.128,-0.39,-0.07
21:11:50.132,-0.38,-0.08
21:11:50.136,-0.37,-0.065
21:11:50.140,-0.37,-0.065
21:11:50.144,-0.38,-0.06
21:11:50.148,-0.38,-0.065
21:11:50.152,-0.365,-0.07
21:11:50.156,-0.39,-0.075
21:11:50.160,-0.375,-0.075
21:11:50.164,-0.355,-0.06
21:11:50.168,-0.335,-0.085
21:11:50.172,-0.335,-0.08
21:11:50.176,-0.325,-0.095
21:11:50.180,-0.32,-0.095
21:11:50.184,-0.285,-0.12
21:11:50.188,-0.275,-0.105
21:11:50.192,-0.275,-0.135
21:11:50.196,-0.275,-0.12
21:11:50.200,-0.255,-0.13
21:11:50.204,-0.225,-0.135
21:11:50.208,-0.22,-0.135
21:11:50.212,-0.225,-0.175
21:11:50.216,-0.18,-0.15
21:11:50.220,-0.18,-0.17
21:11:50.224,-0.17,-0.14
21:11:50.228,-0.15,-0.15
21:11:50.232,-0.15,-0.14
21:11:50.236,-0.135,-0.15
21:11:50.240,-0.13,-0.15
21:11:50.244,-0.125,-0.155
21:11:50.248,-0.105,-0.14
21:11:50.252,-0.125,-0.145
21:11:50.256,-0.11,-0.14
21:11:50.260,-0.105,-0.16
21:11:50.264,-0.105,-0.155
21:11:50.268,-0.125,-0.15
21:11:50.272,-0.105,-0.15
21:11:50.276,-0.115,-0.16
21:11:50.280,-0.115,-0.16
21:11:50.284,-0.12,-0.155
21:11:50.288,-0.115,-0.175
21:11:50.292,-0.11,-0.18
21:11:50.296,-0.1,-0.16
21:11:50.300,-0.1,-0.17
21:11:50.304,-0.11,-0.16
21:11:50.308,-0.115,-0.155
21:11:50.312,-0.12,-0.165
21:11:50.316,-0.1,-0.155
21:11:50.320,-0.105,-0.165
21:11:50.324,-0.105,-0.15
21:11:50.328,-0.105,-0.16
21:11:50.332,-0.09,-0.16
21:11:50.336,-0.1,-0.15
21:11:50.340,-0.085,-0.155
21:11:50.344,-0.1,-0.16
21:11:50.348,-0.12,-0.14
21:11:50.352,-0.115,-0.16
21:11:50.356,-0.13,-0.16
21:11:50.360,-0.13,-0.155
21:11:50.364,-0.11,-0.155
21:11:50.368,-0.135,-0.17
21:11:50.372,-0.12,-0.17
21:11:50.376,-0.155,-0.165
21:11:50.380,-0.135,-0.185
21:11:50.384,-0.11,-0.19
21:11:50.388,-0.095,-0.18
21:11:50.392,-0.11,-0.21
21:11:50.396,-0.08,-0.2
21:11:50.400,-0.065,-0.195
21:11:50.404,-0.06,-0.2
21:11:50.408,-0.04,-0.185
21:11:50.412,0.005,-0.185
21:11:50.416,0.03,-0.18
21:11:50.420,0.06,-0.175
21:11:50.424,0.09,-0.16
21:11:50.428,0.14,-0.145
21:11:50.432,0.155,-0.155
21:11:50.436,0.2,-0.145
21:11:50.440,0.195,-0.13
21:11:50.444,0.21,-0.12
21:11:50.448,0.16,-0.15
21:11:50.452,0.125,-0.185
21:11:50.456,0.055,-0.195
21:11:50.460,0.005,-0.205
21:11:50.464,-0.035,-0.205
21:11:50.468,-0.1,-0.235
21:11:50.472,-0.15,-0.22
21:11:50.476,-0.195,-0.195
21:11:50.480,-0.22,-0.205
21:11:50.484,-0.215,-0.185
21:11:50.488,-0.23,-0.2
21:11:50.492,-0.215,-0.22
21:11:50.496,-0.195,-0.21
21:11:50.500,-0.215,-0.225
21:11:50.504,-0.205,-0.215
21:11:50.508,-0.2,-0.24
21:11:50.512,-0.195,-0.225
21:11:50.516,-0.2,-0.235
21:11:50.520,-0.185,-0.24
21:11:50.524,-0.2,-0.245
21:11:50.528,-0.175,-0.245
21:11:50.532,-0.185,-0.24
21:11:50.536,-0.165,-0.215
21:11:50.540,-0.15,-0.225
21:11:50.544,-0.14,-0.245
21:11:50.548,-0.13,-0.23
21:11:50.552,-0.135,-0.235
21:11:50.556,-0.145,-0.245
21:11:50.560,-0.145,-0.235
21:11:50.564,-0.155,-0.23
21:11:50.568,-0.165,-0.235
21:11:50.572,-0.15,-0.235
21:11:50.576,-0.15,-0.225
21:11:50.580,-0.13,-0.24
21:11:50.584,-0.135,-0.235
21:11:50.588,-0.12,-0.22
21:11:50.592,-0.115,-0.22
21:11:50.596,-0.07,-0.23
21:11:50.600,0.01,-0.215
21:11:50.604,0.1,-0.225
21:11:50.608,0.19,-0.26
21:11:50.612,0.26,-0.3
21:11:50.616,0.295,-0.33
21:11:50.620,0.365,-0.365
21:11:50.624,0.39,-0.345
21:11:50.628,0.38,-0.335
21:11:50.632,0.33,-0.36
21:11:50.636,0.37,-0.425
21:11:50.640,0.585,-0.555
21:11:50.644,0.895,-0.74
21:11:50.648,1.15,-0.975
21:11:50.652,1.215,-1.16
21:11:50.656,0.985,-1.225
21:11:50.660,0.525,-1.08
21:11:50.664,0.145,-0.735
21:11:50.668,-0.045,-0.475
21:11:50.672,-0.135,-0.31
21:11:50.676,-0.16,-0.18
21:11:50.680,-0.18,-0.12
21:11:50.684,-0.19,-0.07
21:11:50.688,-0.23,-0.06
21:11:50.692,-0.26,-0.05
21:11:50.696,-0.27,-0.07
21:11:50.700,-0.285,-0.095
21:11:50.704,-0.29,-0.13
21:11:50.708,-0.28,-0.125
21:11:50.712,-0.3,-0.155
21:11:50.716,-0.31,-0.14
21:11:50.720,-0.305,-0.155
21:11:50.724,-0.3,-0.14
21:11:50.728,-0.305,-0.14
21:11:50.732,-0.305,-0.17
21:11:50.736,-0.31,-0.135
21:11:50.740,-0.315,-0.13
21:11:50.744,-0.315,-0.15
21:11:50.748,-0.315,-0.125
21:11:50.752,-0.315,-0.145
21:11:50.756,-0.315,-0.13
21:11:50.760,-0.33,-0.135
21:11:50.764,-0.305,-0.135
21:11:50.768,-0.315,-0.125
21:11:50.772,-0.32,-0.125
21:11:50.776,-0.32,-0.1
21:11:50.780,-0.32,-0.095
21:11:50.784,-0.32,-0.105
21:11:50.788,-0.33,-0.12
21:11:50.792,-0.34,-0.125
21:11:50.796,-0.345,-0.09
21:11:50.800,-0.35,-0.11
21:11:50.804,-0.35,-0.1
21:11:50.808,-0.345,-0.075
21:11:50.812,-0.35,-0.085
21:11:50.816,-0.38,-0.09
21:11:50.820,-0.375,-0.115
21:11:50.824,-0.37,-0.085
21:11:50.828,-0.365,-0.07
21:11:50.832,-0.355,-0.095
21:11:50.836,-0.32,-0.1
21:11:50.840,-0.32,-0.1
21:11:50.844,-0.31,-0.085
21:11:50.848,-0.305,-0.125
21:11:50.852,-0.295,-0.1
21:11:50.856,-0.28,-0.12
21:11:50.860,-0.26,-0.11
21:11:50.864,-0.255,-0.115
21:11:50.868,-0.245,-0.11
21:11:50.872,-0.225,-0.11
21:11:50.876,-0.2,-0.115
21:11:50.880,-0.18,-0.135
21:11:50.884,-0.16,-0.145
21:11:50.888,-0.145,-0.135
21:11:50.892,-0.13,-0.145
21:11:50.896,-0.135,-0.16
21:11:50.900,-0.12,-0.15
21:11:50.904,-0.1,-0.155
21:11:50.908,-0.085,-0.17
21:11:50.912,-0.08,-0.155
21:11:50.916,-0.08,-0.165
21:11:50.920,-0.08,-0.165
21:11:50.924,-0.075,-0.19
21:11:50.928,-0.07,-0.165
21:11:50.932,-0.07,-0.175
21:11:50.936,-0.08,-0.17
21:11:50.940,-0.08,-0.18
21:11:50.944,-0.065,-0.185
21:11:50.948,-0.065,-0.18
21:11:50.952,-0.05,-0.16
21:11:50.956,-0.06,-0.16
21:11:50.960,-0.055,-0.16
21:11:50.964,-0.055,-0.175
21:11:50.968,-0.05,-0.14
21:11:50.972,-0.05,-0.16
21:11:50.976,-0.07,-0.16
21:11:50.980,-0.065,-0.175
21:11:50.984,-0.04,-0.15
21:11:50.988,-0.045,-0.135
21:11:50.992,-0.06,-0.125
21:11:50.996,-0.065,-0.145
21:11:51.000,-0.065,-0.135
21:11:51.004,-0.08,-0.125
21:11:51.008,-0.06,-0.125
21:11:51.012,-0.06,-0.14
21:11:51.016,-0.05,-0.14
21:11:51.020,-0.06,-0.155
21:11:51.024,-0.075,-0.135
21:11:51.028,-0.095,-0.15
21:11:51.032,-0.075,-0.145
21:11:51.036,-0.105,-0.15
21:11:51.040,-0.1,-0.145
21:11:51.044,-0.095,-0.165
21:11:51.048,-0.085,-0.145
21:11:51.052,-0.07,-0.145
21:11:51.056,-0.07,-0.155
21:11:51.060,-0.04,-0.15
21:11:51.064,-0.025,-0.16
21:11:51.068,-0.03,-0.165
21:11:51.072,-0.025,-0.145
21:11:51.076,-0.03,-0.15
21:11:51.080,-0.025,-0.145
21:11:51.084,0.005,-0.125
21:11:51.088,0.055,-0.125
21:11:51.092,0.12,-0.095
21:11:51.096,0.155,-0.07
21:11:51.100,0.16,-0.09
21:11:51.104,0.18,-0.075
21:11:51.108,0.2,-0.095
21:11:51.112,0.23,-0.075
21:11:51.116,0.215,-0.08
21:11:51.120,0.185,-0.085
21:11:51.124,0.15,-0.12
21:11:51.128,0.095,-0.145
21:11:51.132,0.03,-0.155
21:11:51.136,0.0,-0.16
21:11:51.140,-0.055,-0.19
21:11:51.144,-0.1,-0.165
21:11:51.148,-0.135,-0.16
21:11:51.152,-0.175,-0.16
21:11:51.156,-0.17,-0.165
21:11:51.160,-0.185,-0.135
21:11:51.164,-0.17,-0.175
21:11:51.168,-0.18,-0.175
21:11:51.172,-0.185,-0.16
21:11:51.176,-0.175,-0.185
21:11:51.180,-0.16,-0.195
21:11:51.184,-0.16,-0.19
21:11:51.188,-0.17,-0.2
21:11:51.192,-0.16,-0.215
21:11:51.196,-0.155,-0.2
21:11:51.200,-0.145,-0.195
21:11:51.204,-0.15,-0.185
21:11:51.208,-0.14,-0.18
21:11:51.212,-0.135,-0.19
21:11:51.216,-0.115,-0.175
21:11:51.220,-0.13,-0.185
21:11:51.224,-0.11,-0.19
21:11:51.228,-0.12,-0.17
21:11:51.232,-0.11,-0.185
21:11:51.236,-0.13,-0.18
21:11:51.240,-0.12,-0.17
21:11:51.244,-0.11,-0.17
21:11:51.248,-0.12,-0.195
21:11:51.252,-0.105,-0.185
21:11:51.256,-0.12,-0.19
21:11:51.260,-0.115,-0.18
21:11:51.264,-0.095,-0.18
21:11:51.268,-0.045,-0.185
21:11:51.272,0.0,-0.175
21:11:51.276,0.08,-0.225
21:11:51.280,0.14,-0.23
21:11:51.284,0.24,-0.24
21:11:51.288,0.275,-0.27
21:11:51.292,0.295,-0.3
21:11:51.296,0.325,-0.315
21:11:51.300,0.315,-0.32
21:11:51.304,0.29,-0.335
21:11:51.308,0.305,-0.425
21:11:51.312,0.48,-0.565
21:11:51.316,0.77,-0.735
21:11:51.320,1.05,-1.0
21:11:51.324,1.19,-1.205
21:11:51.328,1.06,-1.3
21:11:51.332,0.65,-1.205
21:11:51.336,0.195,-0.875
21:11:51.340,-0.06,-0.51
21:11:51.344,-0.185,-0.32
21:11:51.348,-0.225,-0.2
21:11:51.352,-0.225,-0.12
21:11:51.356,-0.245,-0.075
21:11:51.360,-0.255,-0.045
21:11:51.364,-0.27,-0.06
21:11:51.368,-0.29,-0.065
21:11:51.372,-0.28,-0.08
21:11:51.376,-0.285,-0.105
21:11:51.380,-0.31,-0.115
21:11:51.384,-0.305,-0.105
21:11:51.388,-0.305,-0.135
21:11:51.392,-0.285,-0.14
21:11:51.396,-0.3,-0.125
21:11:51.400,-0.3,-0.15
21:11:51.404,-0.295,-0.15
21:11:51.408,-0.315,-0.14
21:11:51.412,-0.32,-0.14
21:11:51.416,-0.325,-0.145
21:11:51.420,-0.315,-0.13
21:11:51.424,-0.3,-0.105
21:11:51.428,-0.325,-0.135
21:11:51.432,-0.31,-0.13
21:11:51.436,-0.32,-0.13
21:11:51.440,-0.33,-0.145
21:11:51.444,-0.31,-0.12
21:11:51.448,-0.32,-0.125
21:11:51.452,-0.325,-0.115
21:11:51.456,-0.33,-0.15
21:11:51.460,-0.345,-0.13
21:11:51.464,-0.32,-0.12
21:11:51.468,-0.35,-0.13
21:11:51.472,-0.36,-0.115
21:11:51.476,-0.365,-0.11
21:11:51.480,-0.38,-0.115
21:11:51.484,-0.355,-0.105
21:11:51.488,-0.35,-0.12
21:11:51.492,-0.36,-0.12
21:11:51.496,-0.355,-0.1
21:11:51.500,-0.36,-0.125
21:11:51.504,-0.33,-0.11
21:11:51.508,-0.345,-0.125
21:11:51.512,-0.35,-0.115
21:11:51.516,-0.33,-0.11
21:11:51.520,-0.31,-0.13
21:11:51.524,-0.31,-0.135
21:11:51.528,-0.3,-0.11
21:11:51.532,-0.285,-0.125
21:11:51.536,-0.265,-0.135
21:11:51.540,-0.25,-0.155
21:11:51.544,-0.22,-0.14
21:11:51.548,-0.21,-0.135
21:11:51.552,-0.195,-0.15
21:11:51.556,-0.185,-0.15
21:11:51.560,-0.175,-0.145
21:11:51.564,-0.185,-0.165
21:11:51.568,-0.15,-0.18
21:11:51.572,-0.145,-0.18
21:11:51.576,-0.155,-0.19
21:11:51.580,-0.145,-0.185
21:11:51.584,-0.135,-0.185
21:11:51.588,-0.145,-0.18
21:11:51.592,-0.115,-0.175
21:11:51.596,-0.12,-0.17
21:11:51.600,-0.105,-0.18
21:11:51.604,-0.09,-0.19
21:11:51.608,-0.1,-0.2
21:11:51.612,-0.09,-0.185
21:11:51.616,-0.085,-0.18
21:11:51.620,-0.085,-0.19
21:11:51.624,-0.09,-0.195
21:11:51.628,-0.105,-0.2
21:11:51.632,-0.08,-0.195
21:11:51.636,-0.075,-0.175
21:11:51.640,-0.075,-0.18
21:11:51.644,-0.065,-0.16
21:11:51.648,-0.055,-0.155
21:11:51.652,-0.045,-0.165
21:11:51.656,-0.06,-0.15
21:11:51.660,-0.08,-0.15
21:11:51.664,-0.08,-0.145
21:11:51.668,-0.085,-0.15
21:11:51.672,-0.075,-0.14
21:11:51.676,-0.075,-0.155
21:11:51.680,-0.075,-0.155
21:11:51.684,-0.085,-0.135
21:11:51.688,-0.1,-0.135
21:11:51.692,-0.09,-0.135
21:11:51.696,-0.115,-0.12
21:11:51.700,-0.12,-0.15
21:11:51.704,-0.135,-0.145
21:11:51.708,-0.115,-0.135
21:11:51.712,-0.105,-0.15
21:11:51.716,-0.11,-0.165
21:11:51.720,-0.09,-0.16
21:11:51.724,-0.065,-0.17
21:11:51.728,-0.075,-0.165
21:11:51.732,-0.05,-0.16
21:11:51.736,-0.065,-0.145
21:11:51.740,-0.05,-0.15
21:11:51.744,-0.02,-0.15
21:11:51.748,0.015,-0.14
21:11:51.752,0.065,-0.1
21:11:51.756,0.105,-0.115
21:11:51.760,0.13,-0.08
21:11:51.764,0.15,-0.09
21:11:51.768,0.165,-0.085
21:11:51.772,0.165,-0.065
21:11:51.776,0.17,-0.08
21:11:51.780,0.18,-0.095
21:11:51.784,0.16,-0.1
21:11:51.788,0.095,-0.14
21:11:51.792,0.065,-0.15
21:11:51.796,0.015,-0.16
21:11:51.800,-0.055,-0.185
21:11:51.804,-0.105,-0.175
21:11:51.808,-0.16,-0.15
21:11:51.812,-0.19,-0.15
21:11:51.816,-0.195,-0.145
21:11:51.820,-0.22,-0.14
21:11:51.824,-0.2,-0.15
21:11:51.828,-0.21,-0.15
21:11:51.832,-0.2,-0.18
21:11:51.836,-0.185,-0.195
21:11:51.840,-0.175,-0.19
21:11:51.844,-0.19,-0.175
21:11:51.848,-0.18,-0.185
21:11:51.852,-0.18,-0.16
21:11:51.856,-0.18,-0.175
21:11:51.860,-0.16,-0.16
21:11:51.864,-0.17,-0.17
21:11:51.868,-0.155,-0.145
21:11:51.872,-0.155,-0.165
21:11:51.876,-0.15,-0.18
21:11:51.880,-0.135,-0.16
21:11:51.884,-0.12,-0.155
21:11:51.888,-0.14,-0.165
21:11:51.892,-0.135,-0.145
21:11:51.896,-0.12,-0.16
21:11:51.900,-0.13,-0.155
21:11:51.904,-0.135,-0.145
21:11:51.908,-0.13,-0.14
21:11:51.912,-0.15,-0.16
21:11:51.916,-0.13,-0.16
21:11:51.920,-0.13,-0.16
21:11:51.924,-0.12,-0.17
21:11:51.928,-0.09,-0.165
21:11:51.932,-0.05,-0.175
21:11:51.936,0.02,-0.17
21:11:51.940,0.07,-0.2
21:11:51.944,0.175,-0.185
21:11:51.948,0.235,-0.21
21:11:51.952,0.285,-0.24
21:11:51.956,0.315,-0.29
21:11:51.960,0.32,-0.27
21:11:51.964,0.335,-0.29
21:11:51.968,0.29,-0.36
21:11:51.972,0.35,-0.415
21:11:51.976,0.555,-0.575
21:11:51.980,0.855,-0.745
21:11:51.984,1.125,-1.0
21:11:51.988,1.2,-1.205
21:11:51.992,1.0,-1.265
21:11:51.996,0.565,-1.105
21:11:52.000,0.165,-0.755
21:11:52.004,-0.065,-0.43
21:11:52.008,-0.16,-0.26
21:11:52.012,-0.195,-0.13
21:11:52.016,-0.21,-0.055
21:11:52.020,-0.225,-0.025
21:11:52.024,-0.26,-0.03
21:11:52.028,-0.27,-0.015
21:11:52.032,-0.255,-0.03
21:11:52.036,-0.25,-0.03
21:11:52.040,-0.295,-0.06
21:11:52.044,-0.285,-0.085
21:11:52.048,-0.28,-0.08
21:11:52.052,-0.275,-0.075
21:11:52.056,-0.27,-0.11
21:11:52.060,-0.28,-0.07
21:11:52.064,-0.27,-0.09
21:11:52.068,-0.285,-0.075
21:11:52.072,-0.31,-0.08
21:11:52.076,-0.315,-0.06
21:11:52.080,-0.29,-0.075
21:11:52.084,-0.3,-0.07
21:11:52.088,-0.285,-0.08
21:11:52.092,-0.29,-0.075
21:11:52.096,-0.275,-0.085
21:11:52.100,-0.275,-0.065
21:11:52.104,-0.29,-0.055
21:11:52.108,-0.31,-0.06
21:11:52.112,-0.31,-0.065
21:11:52.116,-0.32,-0.075
21:11:52.120,-0.3,-0.055
21:11:52.124,-0.33,-0.06
21:11:52.128,-0.325,-0.075
21:11:52.132,-0.36,-0.1
21:11:52.136,-0.355,-0.07
21:11:52.140,-0.36,-0.07
21:11:52.144,-0.355,-0.09
21:11:52.148,-0.365,-0.075
21:11:52.152,-0.36,-0.07
21:11:52.156,-0.36,-0.05
21:11:52.160,-0.34,-0.095
21:11:52.164,-0.335,-0.085
21:11:52.168,-0.34,-0.06
21:11:52.172,-0.33,-0.07
21:11:52.176,-0.31,-0.09
21:11:52.180,-0.315,-0.08
21:11:52.184,-0.31,-0.07
21:11:52.188,-0.3,-0.1
21:11:52.192,-0.28,-0.085
21:11:52.196,-0.26,-0.09
21:11:52.200,-0.235,-0.09
21:11:52.204,-0.22,-0.095
21:11:52.208,-0.235,-0.085
21:11:52.212,-0.21,-0.09
21:11:52.216,-0.21,-0.115
21:11:52.220,-0.17,-0.12
21:11:52.224,-0.15,-0.12
21:11:52.228,-0.16,-0.125
21:11:52.232,-0.145,-0.135
21:11:52.236,-0.135,-0.12
21:11:52.240,-0.12,-0.145
21:11:52.244,-0.115,-0.15
21:11:52.248,-0.125,-0.165
21:11:52.252,-0.13,-0.175
21:11:52.256,-0.105,-0.145
21:11:52.260,-0.11,-0.125
21:11:52.264,-0.06,-0.155
21:11:52.268,-0.07,-0.145
21:11:52.272,-0.08,-0.16
21:11:52.276,-0.07,-0.15
21:11:52.280,-0.1,-0.14
21:11:52.284,-0.075,-0.14
21:11:52.288,-0.075,-0.12
21:11:52.292,-0.08,-0.15
21:11:52.296,-0.075,-0.14
21:11:52.300,-0.07,-0.115
21:11:52.304,-0.065,-0.12
21:11:52.308,-0.07,-0.125
21:11:52.312,-0.05,-0.12
21:11:52.316,-0.07,-0.12
21:11:52.320,-0.06,-0.12
21:11:52.324,-0.055,-0.095
21:11:52.328,-0.075,-0.11
21:11:52.332,-0.075,-0.105
21:11:52.336,-0.07,-0.095
21:11:52.340,-0.08,-0.085
21:11:52.344,-0.095,-0.1
21:11:52.348,-0.095,-0.115
21:11:52.352,-0.1,-0.105
21:11:52.356,-0.125,-0.105
21:11:52.360,-0.14,-0.1
21:11:52.364,-0.145,-0.14
21:11:52.368,-0.11,-0.105
21:11:52.372,-0.115,-0.115
21:11:52.376,-0.125,-0.12
21:11:52.380,-0.115,-0.125
21:11:52.384,-0.13,-0.13
21:11:52.388,-0.13,-0.145
21:11:52.392,-0.115,-0.125
21:11:52.396,-0.115,-0.145
21:11:52.400,-0.13,-0.125
21:11:52.404,-0.11,-0.105
21:11:52.408,-0.13,-0.12
21:11:52.412,-0.105,-0.12
21:11:52.416,-0.085,-0.15
21:11:52.420,-0.105,-0.135
21:11:52.424,-0.075,-0.125
21:11:52.428,-0.075,-0.13
21:11:52.432,-0.065,-0.135
21:11:52.436,-0.07,-0.12
21:11:52.440,-0.04,-0.12
21:11:52.444,-0.03,-0.08
21:11:52.448,0.015,-0.105
21:11:52.452,0.045,-0.1
21:11:52.456,0.085,-0.08
21:11:52.460,0.075,-0.075
21:11:52.464,0.1,-0.065
21:11:52.468,0.11,-0.06
21:11:52.472,0.12,-0.085
21:11:52.476,0.15,-0.045
21:11:52.480,0.135,-0.08
21:11:52.484,0.115,-0.085
21:11:52.488,0.075,-0.14
21:11:52.492,0.03,-0.14
21:11:52.496,-0.035,-0.15
21:11:52.500,-0.08,-0.15
21:11:52.504,-0.135,-0.15
21:11:52.508,-0.16,-0.13
21:11:52.512,-0.2,-0.14
21:11:52.516,-0.22,-0.09
21:11:52.520,-0.235,-0.1
21:11:52.524,-0.23,-0.12
21:11:52.528,-0.245,-0.14
21:11:52.532,-0.22,-0.135
21:11:52.536,-0.22,-0.12
21:11:52.540,-0.21,-0.145
21:11:52.544,-0.195,-0.145
21:11:52.548,-0.21,-0.14
21:11:52.552,-0.185,-0.14
21:11:52.556,-0.18,-0.14
21:11:52.560,-0.205,-0.14
21:11:52.564,-0.185,-0.145
21:11:52.568,-0.195,-0.155
21:11:52.572,-0.19,-0.18
21:11:52.576,-0.19,-0.145
21:11:52.580,-0.2,-0.135
21:11:52.584,-0.2,-0.14
21:11:52.588,-0.195,-0.16
21:11:52.592,-0.22,-0.14
21:11:52.596,-0.2,-0.155
21:11:52.600,-0.195,-0.155
21:11:52.604,-0.205,-0.155
21:11:52.608,-0.195,-0.16
21:11:52.612,-0.195,-0.155
21:11:52.616,-0.2,-0.16
21:11:52.620,-0.19,-0.175
21:11:52.624,-0.185,-0.17
21:11:52.628,-0.16,-0.15
21:11:52.632,-0.1,-0.185
21:11:52.636,-0.03,-0.17
21:11:52.640,0.07,-0.16
21:11:52.644,0.16,-0.17
21:11:52.648,0.22,-0.235
21:11:52.652,0.255,-0.22
21:11:52.656,0.28,-0.275
21:11:52.660,0.305,-0.265
21:11:52.664,0.295,-0.25
21:11:52.668,0.28,-0.31
21:11:52.672,0.3,-0.385
21:11:52.676,0.455,-0.48
21:11:52.680,0.77,-0.695
21:11:52.684,1.03,-0.965
21:11:52.688,1.125,-1.15
21:11:52.692,0.93,-1.265
21:11:52.696,0.48,-1.115
21:11:52.700,0.09,-0.77
21:11:52.704,-0.13,-0.445
21:11:52.708,-0.225,-0.27
21:11:52.712,-0.255,-0.145
21:11:52.716,-0.26,-0.06
21:11:52.720,-0.29,-0.035
21:11:52.724,-0.32,-0.015
21:11:52.728,-0.3,-0.02
21:11:52.732,-0.335,-0.025
21:11:52.736,-0.355,-0.06
21:11:52.740,-0.35,-0.07
21:11:52.744,-0.325,-0.105
21:11:52.748,-0.33,-0.08
21:11:52.752,-0.35,-0.085
21:11:52.756,-0.34,-0.08
21:11:52.760,-0.345,-0.09
21:11:52.764,-0.32,-0.09
21:11:52.768,-0.32,-0.065
21:11:52.772,-0.34,-0.07
21:11:52.776,-0.35,-0.09
21:11:52.780,-0.345,-0.055
21:11:52.784,-0.365,-0.085
21:11:52.788,-0.385,-0.08
21:11:52.792,-0.385,-0.08
21:11:52.796,-0.41,-0.085
21:11:52.800,-0.405,-0.09
21:11:52.804,-0.4,-0.075
21:11:52.808,-0.41,-0.08
21:11:52.812,-0.41,-0.085
21:11:52.816,-0.41,-0.1
21:11:52.820,-0.43,-0.09
21:11:52.824,-0.43,-0.07
21:11:52.828,-0.415,-0.095
21:11:52.832,-0.41,-0.09
21:11:52.836,-0.42,-0.075
21:11:52.840,-0.435,-0.095
21:11:52.844,-0.445,-0.095
21:11:52.848,-0.43,-0.07
21:11:52.852,-0.415,-0.05
21:11:52.856,-0.405,-0.055
21:11:52.860,-0.39,-0.055
21:11:52.864,-0.4,-0.075
21:11:52.868,-0.38,-0.075
21:11:52.872,-0.37,-0.085
21:11:52.876,-0.38,-0.065
21:11:52.880,-0.36,-0.06
21:11:52.884,-0.355,-0.07
21:11:52.888,-0.34,-0.095
21:11:52.892,-0.35,-0.06
21:11:52.896,-0.335,-0.09
21:11:52.900,-0.34,-0.08
21:11:52.904,-0.32,-0.1
21:11:52.908,-0.33,-0.09
21:11:52.912,-0.315,-0.1
21:11:52.916,-0.305,-0.105
21:11:52.920,-0.27,-0.11
21:11:52.924,-0.27,-0.125
21:11:52.928,-0.23,-0.135
21:11:52.932,-0.22,-0.155
21:11:52.936,-0.21,-0.15
21:11:52.940,-0.21,-0.175
21:11:52.944,-0.2,-0.175
21:11:52.948,-0.19,-0.15
21:11:52.952,-0.175,-0.16
21:11:52.956,-0.18,-0.15
21:11:52.960,-0.14,-0.14
21:11:52.964,-0.13,-0.15
21:11:52.968,-0.11,-0.16
21:11:52.972,-0.095,-0.15
21:11:52.976,-0.09,-0.155
21:11:52.980,-0.095,-0.145
21:11:52.984,-0.095,-0.145
21:11:52.988,-0.1,-0.145
21:11:52.992,-0.09,-0.14
21:11:52.996,-0.09,-0.13
21:11:53.000,-0.095,-0.13
21:11:53.004,-0.1,-0.14
21:11:53.008,-0.09,-0.145
21:11:53.012,-0.07,-0.15
21:11:53.016,-0.11,-0.14
21:11:53.020,-0.115,-0.15
21:11:53.024,-0.1,-0.135
21:11:53.028,-0.115,-0.17
21:11:53.032,-0.125,-0.17
21:11:53.036,-0.11,-0.145
21:11:53.040,-0.12,-0.14
21:11:53.044,-0.12,-0.13
21:11:53.048,-0.145,-0.13
21:11:53.052,-0.15,-0.15
21:11:53.056,-0.13,-0.155
21:11:53.060,-0.125,-0.175
21:11:53.064,-0.135,-0.14
21:11:53.068,-0.145,-0.15
21:11:53.072,-0.11,-0.145
21:11:53.076,-0.125,-0.16
21:11:53.080,-0.1,-0.145
21:11:53.084,-0.1,-0.16
21:11:53.088,-0.115,-0.13
21:11:53.092,-0.12,-0.15
21:11:53.096,-0.13,-0.13
21:11:53.100,-0.105,-0.145
21:11:53.104,-0.13,-0.145
21:11:53.108,-0.11,-0.13
21:11:53.112,-0.11,-0.15
21:11:53.116,-0.1,-0.145
21:11:53.120,-0.08,-0.155
21:11:53.124,-0.07,-0.155
21:11:53.128,-0.06,-0.15
21:11:53.132,-0.08,-0.13
21:11:53.136,-0.07,-0.15
21:11:53.140,-0.055,-0.16
21:11:53.144,-0.025,-0.155
21:11:53.148,-0.005,-0.14
21:11:53.152,0.035,-0.145
21:11:53.156,0.075,-0.13
21:11:53.160,0.105,-0.11
21:11:53.164,0.14,-0.115
21:11:53.168,0.165,-0.11
21:11:53.172,0.175,-0.105
21:11:53.176,0.19,-0.115
21:11:53.180,0.18,-0.105
21:11:53.184,0.125,-0.145
21:11:53.188,0.08,-0.155
21:11:53.192,0.035,-0.18
21:11:53.196,-0.025,-0.18
21:11:53.200,-0.065,-0.19
21:11:53.204,-0.12,-0.17
21:11:53.208,-0.175,-0.16
21:11:53.212,-0.195,-0.155
21:11:53.216,-0.21,-0.15
21:11:53.220,-0.225,-0.16
21:11:53.224,-0.23,-0.16
21:11:53.228,-0.225,-0.155
21:11:53.232,-0.23,-0.16
21:11:53.236,-0.225,-0.17
21:11:53.240,-0.22,-0.18
21:11:53.244,-0.21,-0.175
21:11:53.248,-0.215,-0.19
21:11:53.252,-0.21,-0.195
21:11:53.256,-0.225,-0.19
21:11:53.260,-0.21,-0.19
21:11:53.264,-0.195,-0.185
21:11:53.268,-0.195,-0.195
21:11:53.272,-0.2,-0.21
21:11:53.276,-0.19,-0.185
21:11:53.280,-0.18,-0.19
21:11:53.284,-0.18,-0.21
21:11:53.288,-0.175,-0.205
21:11:53.292,-0.16,-0.19
21:11:53.296,-0.17,-0.2
21:11:53.300,-0.19,-0.205
21:11:53.304,-0.17,-0.23
21:11:53.308,-0.165,-0.19
21:11:53.312,-0.16,-0.2
21:11:53.316,-0.17,-0.205
21:11:53.320,-0.145,-0.185
21:11:53.324,-0.135,-0.19
21:11:53.328,-0.09,-0.195
21:11:53.332,-0.03,-0.205
21:11:53.336,0.025,-0.22
21:11:53.340,0.125,-0.24
21:11:53.344,0.21,-0.24
21:11:53.348,0.27,-0.275
21:11:53.352,0.315,-0.31
21:11:53.356,0.345,-0.32
21:11:53.360,0.35,-0.32
21:11:53.364,0.34,-0.32
21:11:53.368,0.32,-0.41
21:11:53.372,0.43,-0.495
21:11:53.376,0.67,-0.66
21:11:53.380,0.97,-0.86
21:11:53.384,1.16,-1.06
21:11:53.388,1.08,-1.205
21:11:53.392,0.74,-1.175
21:11:53.396,0.28,-0.91
21:11:53.400,-0.035,-0.59
21:11:53.404,-0.165,-0.38
21:11:53.408,-0.23,-0.28
21:11:53.412,-0.23,-0.17
21:11:53.416,-0.22,-0.1
21:11:53.420,-0.25,-0.08
21:11:53.424,-0.265,-0.085
21:11:53.428,-0.27,-0.08
21:11:53.432,-0.32,-0.11
21:11:53.436,-0.315,-0.105
21:11:53.440,-0.32,-0.12
21:11:53.444,-0.325,-0.14
21:11:53.448,-0.325,-0.13
21:11:53.452,-0.33,-0.14
21:11:53.456,-0.335,-0.16
21:11:53.460,-0.325,-0.15
21:11:53.464,-0.355,-0.145
21:11:53.468,-0.335,-0.14
21:11:53.472,-0.325,-0.135
21:11:53.476,-0.335,-0.16
21:11:53.480,-0.345,-0.145
21:11:53.484,-0.355,-0.15
21:11:53.488,-0.35,-0.13
21:11:53.492,-0.375,-0.14
21:11:53.496,-0.36,-0.145
21:11:53.500,-0.38,-0.14
21:11:53.504,-0.36,-0.14
21:11:53.508,-0.39,-0.14
21:11:53.512,-0.395,-0.14
21:11:53.516,-0.4,-0.14
21:11:53.520,-0.39,-0.115
21:11:53.524,-0.39,-0.125
21:11:53.528,-0.385,-0.14
21:11:53.532,-0.4,-0.105
21:11:53.536,-0.39,-0.11
21:11:53.540,-0.39,-0.11
21:11:53.544,-0.385,-0.105
21:11:53.548,-0.4,-0.095
21:11:53.552,-0.39,-0.09
21:11:53.556,-0.385,-0.095
21:11:53.560,-0.39,-0.105
21:11:53.564,-0.39,-0.09
21:11:53.568,-0.38,-0.09
21:11:53.572,-0.38,-0.105
21:11:53.576,-0.385,-0.1
21:11:53.580,-0.365,-0.09
21:11:53.584,-0.37,-0.105
21:11:53.588,-0.37,-0.095
21:11:53.592,-0.36,-0.08
21:11:53.596,-0.34,-0.125
21:11:53.600,-0.335,-0.11
21:11:53.604,-0.315,-0.12
21:11:53.608,-0.315,-0.135
21:11:53.612,-0.3,-0.12
21:11:53.616,-0.285,-0.13
21:11:53.620,-0.28,-0.115
21:11:53.624,-0.27,-0.14
21:11:53.628,-0.26,-0.135
21:11:53.632,-0.24,-0.16
21:11:53.636,-0.2,-0.15
21:11:53.640,-0.18,-0.16
21:11:53.644,-0.17,-0.14
21:11:53.648,-0.16,-0.14
21:11:53.652,-0.135,-0.15
21:11:53.656,-0.15,-0.135
21:11:53.660,-0.145,-0.125
21:11:53.664,-0.14,-0.145
21:11:53.668,-0.135,-0.125
21:11:53.672,-0.14,-0.14
21:11:53.676,-0.13,-0.155
21:11:53.680,-0.15,-0.13
21:11:53.684,-0.155,-0.145
21:11:53.688,-0.15,-0.145
21:11:53.692,-0.15,-0.14
21:11:53.696,-0.155,-0.125
21:11:53.700,-0.16,-0.12
21:11:53.704,-0.15,-0.14
21:11:53.708,-0.13,-0.145
21:11:53.712,-0.145,-0.115
21:11:53.716,-0.16,-0.13
21:11:53.720,-0.16,-0.13
21:11:53.724,-0.155,-0.12
21:11:53.728,-0.135,-0.115
21:11:53.732,-0.135,-0.11
21:11:53.736,-0.155,-0.135
21:11:53.740,-0.13,-0.13
21:11:53.744,-0.135,-0.13
21:11:53.748,-0.14,-0.125
21:11:53.752,-0.14,-0.13
21:11:53.756,-0.13,-0.095
21:11:53.760,-0.14,-0.145
21:11:53.764,-0.145,-0.145
21:11:53.768,-0.135,-0.12
21:11:53.772,-0.14,-0.105
21:11:53.776,-0.15,-0.105
21:11:53.780,-0.13,-0.095
21:11:53.784,-0.16,-0.105
21:11:53.788,-0.155,-0.11
21:11:53.792,-0.155,-0.11
21:11:53.796,-0.135,-0.085
21:11:53.800,-0.14,-0.12
21:11:53.804,-0.135,-0.125
21:11:53.808,-0.105,-0.095
21:11:53.812,-0.105,-0.095
21:11:53.816,-0.09,-0.11
21:11:53.820,-0.1,-0.105
21:11:53.824,-0.06,-0.115
21:11:53.828,-0.04,-0.075
21:11:53.832,0.01,-0.08
21:11:53.836,0.04,-0.065
21:11:53.840,0.065,-0.055
21:11:53.844,0.085,-0.045
21:11:53.848,0.11,-0.04
21:11:53.852,0.11,-0.03
21:11:53.856,0.135,-0.035
21:11:53.860,0.135,-0.02
21:11:53.864,0.115,-0.055
21:11:53.868,0.075,-0.09
21:11:53.872,0.03,-0.09
21:11:53.876,-0.01,-0.095
21:11:53.880,-0.05,-0.105
21:11:53.884,-0.115,-0.105
21:11:53.888,-0.16,-0.11
21:11:53.892,-0.185,-0.075
21:11:53.896,-0.235,-0.06
21:11:53.900,-0.265,-0.08
21:11:53.904,-0.25,-0.1
21:11:53.908,-0.245,-0.09
21:11:53.912,-0.255,-0.09
21:11:53.916,-0.255,-0.1
21:11:53.920,-0.235,-0.1
21:11:53.924,-0.235,-0.105
21:11:53.928,-0.24,-0.12
21:11:53.932,-0.22,-0.115
21:11:53.936,-0.24,-0.105
21:11:53.940,-0.23,-0.11
21:11:53.944,-0.23,-0.125
21:11:53.948,-0.2,-0.095
21:11:53.952,-0.195,-0.095
21:11:53.956,-0.23,-0.075
21:11:53.960,-0.2,-0.095
21:11:53.964,-0.2,-0.11
21:11:53.968,-0.205,-0.095
21:11:53.972,-0.2,-0.09
21:11:53.976,-0.18,-0.11
21:11:53.980,-0.19,-0.11
21:11:53.984,-0.19,-0.1
21:11:53.988,-0.205,-0.09
21:11:53.992,-0.2,-0.105
21:11:53.996,-0.195,-0.08
21:11:54.000,-0.185,-0.08
21:11:54.004,-0.175,-0.095
21:11:54.008,-0.165,-0.085
21:11:54.012,-0.13,-0.1
21:11:54.016,-0.08,-0.12
21:11:54.020,-0.015,-0.11
21:11:54.024,0.075,-0.125
21:11:54.028,0.13,-0.125
21:11:54.032,0.18,-0.17
21:11:54.036,0.225,-0.24
21:11:54.040,0.245,-0.255
21:11:54.044,0.245,-0.255
21:11:54.048,0.22,-0.27
21:11:54.052,0.23,-0.36
21:11:54.056,0.33,-0.48
21:11:54.060,0.595,-0.64
21:11:54.064,0.92,-0.865
21:11:54.068,1.105,-1.08
21:11:54.072,1.055,-1.23
21:11:54.076,0.705,-1.155
21:11:54.080,0.22,-0.825
21:11:54.084,-0.08,-0.495
21:11:54.088,-0.215,-0.285
21:11:54.092,-0.285,-0.125
21:11:54.096,-0.27,-0.025
21:11:54.100,-0.27,0.025
21:11:54.104,-0.305,0.055
21:11:54.108,-0.32,0.055
21:11:54.112,-0.31,0.035
21:11:54.116,-0.345,0.045
21:11:54.120,-0.34,0.045
21:11:54.124,-0.34,0.01
21:11:54.128,-0.34,0.0
21:11:54.132,-0.34,-0.005
21:11:54.136,-0.345,-0.015
21:11:54.140,-0.36,-0.025
21:11:54.144,-0.36,0.0
21:11:54.148,-0.37,-0.01
21:11:54.152,-0.37,-0.005
21:11:54.156,-0.36,-0.005
21:11:54.160,-0.38,-0.005
21:11:54.164,-0.38,-0.025
21:11:54.168,-0.37,-0.04
21:11:54.172,-0.385,-0.035
21:11:54.176,-0.395,-0.02
21:11:54.180,-0.385,0.005
21:11:54.184,-0.4,-0.015
21:11:54.188,-0.39,-0.01
21:11:54.192,-0.395,0.005
21:11:54.196,-0.385,0.01
21:11:54.200,-0.4,0.01
21:11:54.204,-0.4,0.005
21:11:54.208,-0.38,0.015
21:11:54.212,-0.41,-0.01
21:11:54.216,-0.405,0.01
21:11:54.220,-0.425,0.02
21:11:54.224,-0.42,-0.01
21:11:54.228,-0.43,0.0
21:11:54.232,-0.42,0.005
21:11:54.236,-0.43,0.02
21:11:54.240,-0.42,0.015
21:11:54.244,-0.425,0.03
21:11:54.248,-0.42,-0.005
21:11:54.252,-0.41,-0.01
21:11:54.256,-0.41,0.0
21:11:54.260,-0.41,0.0
21:11:54.264,-0.38,-0.01
21:11:54.268,-0.375,-0.01
21:11:54.272,-0.385,-0.015
21:11:54.276,-0.355,-0.02
21:11:54.280,-0.35,-0.04
21:11:54.284,-0.355,-0.035
21:11:54.288,-0.345,-0.025
21:11:54.292,-0.33,-0.035
21:11:54.296,-0.315,-0.06
21:11:54.300,-0.295,-0.07
21:11:54.304,-0.27,-0.085
21:11:54.308,-0.25,-0.085
21:11:54.312,-0.235,-0.08
21:11:54.316,-0.225,-0.085
21:11:54.320,-0.205,-0.095
21:11:54.324,-0.185,-0.1
21:11:54.328,-0.205,-0.065
21:11:54.332,-0.19,-0.07
21:11:54.336,-0.19,-0.055
21:11:54.340,-0.175,-0.075
21:11:54.344,-0.18,-0.09
21:11:54.348,-0.16,-0.095
21:11:54.352,-0.17,-0.075
21:11:54.356,-0.17,-0.095
21:11:54.360,-0.18,-0.075
21:11:54.364,-0.17,-0.09
21:11:54.368,-0.18,-0.105
21:11:54.372,-0.175,-0.095
21:11:54.376,-0.17,-0.085
21:11:54.380,-0.16,-0.065
21:11:54.384,-0.18,-0.08
21:11:54.388,-0.155,-0.1
21:11:54.392,-0.165,-0.095
21:11:54.396,-0.175,-0.095
21:11:54.400,-0.18,-0.07
21:11:54.404,-0.175,-0.07
21:11:54.408,-0.18,-0.09
21:11:54.412,-0.18,-0.07
21:11:54.416,-0.16,-0.08
21:11:54.420,-0.16,-0.065
21:11:54.424,-0.18,-0.08
21:11:54.428,-0.17,-0.07
21:11:54.432,-0.19,-0.055
21:11:54.436,-0.195,-0.065
21:11:54.440,-0.19,-0.07
21:11:54.444,-0.185,-0.08
21:11:54.448,-0.19,-0.085
21:11:54.452,-0.19,-0.07
21:11:54.456,-0.175,-0.08
21:11:54.460,-0.195,-0.08
21:11:54.464,-0.21,-0.075
21:11:54.468,-0.205,-0.075
21:11:54.472,-0.19,-0.075
21:11:54.476,-0.155,-0.08
21:11:54.480,-0.16,-0.075
21:11:54.484,-0.14,-0.09
21:11:54.488,-0.14,-0.085
21:11:54.492,-0.135,-0.07
21:11:54.496,-0.1,-0.05
21:11:54.500,-0.08,-0.07
21:11:54.504,-0.035,-0.06
21:11:54.508,-0.005,-0.04
21:11:54.512,0.005,-0.025
21:11:54.516,0.05,-0.01
21:11:54.520,0.06,-0.03
21:11:54.524,0.07,-0.01
21:11:54.528,0.08,-0.025
21:11:54.532,0.08,-0.025
21:11:54.536,0.03,-0.055
21:11:54.540,-0.01,-0.08
21:11:54.544,-0.06,-0.1
21:11:54.548,-0.1,-0.085
21:11:54.552,-0.155,-0.085
21:11:54.556,-0.21,-0.09
21:11:54.560,-0.26,-0.08
21:11:54.564,-0.275,-0.07
21:11:54.568,-0.295,-0.08
21:11:54.572,-0.305,-0.075
21:11:54.576,-0.325,-0.05
21:11:54.580,-0.32,-0.075
21:11:54.584,-0.325,-0.09
21:11:54.588,-0.31,-0.11
21:11:54.592,-0.32,-0.12
21:11:54.596,-0.315,-0.135
21:11:54.600,-0.305,-0.14
21:11:54.604,-0.305,-0.125
21:11:54.608,-0.295,-0.13
21:11:54.612,-0.3,-0.12
21:11:54.616,-0.28,-0.125
21:11:54.620,-0.3,-0.15
21:11:54.624,-0.275,-0.14
21:11:54.628,-0.29,-0.125
21:11:54.632,-0.275,-0.125
21:11:54.636,-0.265,-0.12
21:11:54.640,-0.265,-0.115
21:11:54.644,-0.26,-0.11
21:11:54.648,-0.275,-0.12
21:11:54.652,-0.265,-0.11
21:11:54.656,-0.245,-0.115
21:11:54.660,-0.265,-0.1
21:11:54.664,-0.255,-0.13
21:11:54.668,-0.26,-0.12
21:11:54.672,-0.245,-0.12
21:11:54.676,-0.23,-0.1
21:11:54.680,-0.205,-0.105
21:11:54.684,-0.13,-0.105
21:11:54.688,-0.075,-0.13
21:11:54.692,0.025,-0.155
21:11:54.696,0.085,-0.15
21:11:54.700,0.13,-0.18
21:11:54.704,0.155,-0.25
21:11:54.708,0.195,-0.265
21:11:54.712,0.175,-0.225
21:11:54.716,0.165,-0.285
21:11:54.720,0.15,-0.355
21:11:54.724,0.295,-0.49
21:11:54.728,0.605,-0.685
21:11:54.732,0.91,-0.925
21:11:54.736,1.085,-1.115
21:11:54.740,0.98,-1.245
21:11:54.744,0.605,-1.135
21:11:54.748,0.14,-0.795
21:11:54.752,-0.16,-0.455
21:11:54.756,-0.27,-0.24
21:11:54.760,-0.33,-0.125
21:11:54.764,-0.335,-0.025
21:11:54.768,-0.365,0.01
21:11:54.772,-0.37,0.04
21:11:54.776,-0.385,0.04
21:11:54.780,-0.39,0.05
21:11:54.784,-0.395,0.02
21:11:54.788,-0.4,0.0
21:11:54.792,-0.4,-0.015
21:11:54.796,-0.4,-0.02
21:11:54.800,-0.425,-0.02
21:11:54.804,-0.43,-0.015
21:11:54.808,-0.42,-0.02
21:11:54.812,-0.42,-0.035
21:11:54.816,-0.435,-0.025
21:11:54.820,-0.42,-0.035
21:11:54.824,-0.415,-0.04
21:11:54.828,-0.42,-0.03
21:11:54.832,-0.43,-0.02
21:11:54.836,-0.435,-0.03
21:11:54.840,-0.465,-0.02
21:11:54.844,-0.44,-0.03
21:11:54.848,-0.45,-0.03
21:11:54.852,-0.46,0.0
21:11:54.856,-0.45,-0.02
21:11:54.860,-0.44,-0.025
21:11:54.864,-0.46,0.005
21:11:54.868,-0.46,0.0
21:11:54.872,-0.465,0.0
21:11:54.876,-0.46,0.0
21:11:54.880,-0.45,0.01
21:11:54.884,-0.475,0.01
21:11:54.888,-0.475,0.03
21:11:54.892,-0.47,0.025
21:11:54.896,-0.475,0.025
21:11:54.900,-0.48,0.005
21:11:54.904,-0.455,0.015
21:11:54.908,-0.465,0.01
21:11:54.912,-0.49,0.005
21:11:54.916,-0.48,0.025
21:11:54.920,-0.47,0.01
21:11:54.924,-0.45,0.01
21:11:54.928,-0.445,0.01
21:11:54.932,-0.455,0.015
21:11:54.936,-0.43,0.005
21:11:54.940,-0.4,-0.005
21:11:54.944,-0.415,-0.015
21:11:54.948,-0.4,-0.02
21:11:54.952,-0.4,-0.03
21:11:54.956,-0.37,-0.02
21:11:54.960,-0.355,-0.03
21:11:54.964,-0.33,-0.04
21:11:54.968,-0.32,-0.03
21:11:54.972,-0.29,-0.035
21:11:54.976,-0.28,-0.05
21:11:54.980,-0.255,-0.045
21:11:54.984,-0.25,-0.045
21:11:54.988,-0.245,-0.055
21:11:54.992,-0.225,-0.05
21:11:54.996,-0.215,-0.055
21:11:55.000,-0.215,-0.075
21:11:55.004,-0.19,-0.055
21:11:55.008,-0.195,-0.055
21:11:55.012,-0.225,-0.055
21:11:55.016,-0.185,-0.055
21:11:55.020,-0.2,-0.065
21:11:55.024,-0.215,-0.05
21:11:55.028,-0.2,-0.06
21:11:55.032,-0.19,-0.06
21:11:55.036,-0.185,-0.065
21:11:55.040,-0.185,-0.065
21:11:55.044,-0.185,-0.05
21:11:55.048,-0.19,-0.08
21:11:55.052,-0.185,-0.065
21:11:55.056,-0.19,-0.065
21:11:55.060,-0.17,-0.08
21:11:55.064,-0.205,-0.04
21:11:55.068,-0.19,-0.04
21:11:55.072,-0.19,-0.04
21:11:55.076,-0.195,-0.025
21:11:55.080,-0.175,-0.05
21:11:55.084,-0.18,-0.05
21:11:55.088,-0.16,-0.04
21:11:55.092,-0.16,-0.035
21:11:55.096,-0.165,-0.04
21:11:55.100,-0.19,-0.035
21:11:55.104,-0.185,-0.025
21:11:55.108,-0.19,-0.02
21:11:55.112,-0.18,-0.04
21:11:55.116,-0.2,-0.01
21:11:55.120,-0.195,-0.035
21:11:55.124,-0.205,-0.03
21:11:55.128,-0.21,-0.02
21:11:55.132,-0.22,-0.02
21:11:55.136,-0.215,-0.025
21:11:55.140,-0.19,-0.035
21:11:55.144,-0.19,-0.04
21:11:55.148,-0.175,-0.025
21:11:55.152,-0.155,-0.04
21:11:55.156,-0.145,-0.035
21:11:55.160,-0.15,-0.055
21:11:55.164,-0.145,-0.04
21:11:55.168,-0.125,-0.04
21:11:55.172,-0.07,-0.02
21:11:55.176,-0.045,0.005
21:11:55.180,-0.01,0.005
21:11:55.184,0.015,0.01
21:11:55.188,0.07,0.02
21:11:55.192,0.08,0.02
21:11:55.196,0.09,0.015
21:11:55.200,0.1,0.015
21:11:55.204,0.07,0.01
21:11:55.208,0.02,-0.025
21:11:55.212,0.0,-0.02
21:11:55.216,-0.05,-0.06
21:11:55.220,-0.11,-0.055
21:11:55.224,-0.165,-0.075
21:11:55.228,-0.225,-0.055
21:11:55.232,-0.245,-0.055
21:11:55.236,-0.305,-0.045
21:11:55.240,-0.32,-0.025
21:11:55.244,-0.32,-0.02
21:11:55.248,-0.34,-0.04
21:11:55.252,-0.33,-0.06
21:11:55.256,-0.33,-0.065
21:11:55.260,-0.345,-0.07
21:11:55.264,-0.32,-0.09
21:11:55.268,-0.295,-0.055
21:11:55.272,-0.3,-0.09
21:11:55.276,-0.32,-0.08
21:11:55.280,-0.305,-0.08
21:11:55.284,-0.295,-0.075
21:11:55.288,-0.305,-0.08
21:11:55.292,-0.295,-0.065
21:11:55.296,-0.29,-0.085
21:11:55.300,-0.27,-0.07
21:11:55.304,-0.285,-0.08
21:11:55.308,-0.27,-0.055
21:11:55.312,-0.27,-0.06
21:11:55.316,-0.26,-0.075
21:11:55.320,-0.26,-0.07
21:11:55.324,-0.255,-0.08
21:11:55.328,-0.275,-0.095
21:11:55.332,-0.27,-0.075
21:11:55.336,-0.275,-0.09
21:11:55.340,-0.285,-0.075
21:11:55.344,-0.26,-0.075
21:11:55.348,-0.275,-0.08
21:11:55.352,-0.25,-0.11
21:11:55.356,-0.21,-0.085
21:11:55.360,-0.125,-0.09
21:11:55.364,-0.05,-0.09
21:11:55.368,0.035,-0.11
21:11:55.372,0.095,-0.125
21:11:55.376,0.12,-0.16
21:11:55.380,0.175,-0.23
21:11:55.384,0.19,-0.195
21:11:55.388,0.145,-0.225
21:11:55.392,0.145,-0.27
21:11:55.396,0.21,-0.355
21:11:55.400,0.445,-0.495
21:11:55.404,0.76,-0.74
21:11:55.408,0.995,-0.985
21:11:55.412,1.03,-1.15
21:11:55.416,0.77,-1.18
21:11:55.420,0.295,-0.935
21:11:55.424,-0.065,-0.575
21:11:55.428,-0.275,-0.3
21:11:55.432,-0.335,-0.16
21:11:55.436,-0.355,-0.065
21:11:55.440,-0.36,0.02
21:11:55.444,-0.37,0.025
21:11:55.448,-0.405,0.045
21:11:55.452,-0.43,0.055
21:11:55.456,-0.44,0.01
21:11:55.460,-0.455,0.01
21:11:55.464,-0.46,-0.005
21:11:55.468,-0.455,-0.02
21:11:55.472,-0.465,-0.03
21:11:55.476,-0.47,-0.035
21:11:55.480,-0.475,-0.045
21:11:55.484,-0.455,-0.03
21:11:55.488,-0.455,-0.025
21:11:55.492,-0.47,-0.025
21:11:55.496,-0.46,-0.035
21:11:55.500,-0.47,-0.04
21:11:55.504,-0.5,-0.045
21:11:55.508,-0.48,-0.045
21:11:55.512,-0.49,-0.045
21:11:55.516,-0.46,-0.045
21:11:55.520,-0.46,-0.03
21:11:55.524,-0.455,-0.03
21:11:55.528,-0.455,-0.04
21:11:55.532,-0.475,-0.05
21:11:55.536,-0.475,-0.03
21:11:55.540,-0.475,-0.01
21:11:55.544,-0.485,-0.045
21:11:55.548,-0.465,-0.03
21:11:55.552,-0.49,-0.01
21:11:55.556,-0.49,-0.03
21:11:55.560,-0.5,-0.035
21:11:55.564,-0.52,-0.03
21:11:55.568,-0.535,-0.025
21:11:55.572,-0.53,-0.02
21:11:55.576,-0.53,-0.025
21:11:55.580,-0.515,-0.035
21:11:55.584,-0.505,-0.04
21:11:55.588,-0.51,-0.03
21:11:55.592,-0.495,-0.015
21:11:55.596,-0.495,-0.035
21:11:55.600,-0.495,-0.03
21:11:55.604,-0.5,-0.05
21:11:55.608,-0.5,-0.065
21:11:55.612,-0.47,-0.05
21:11:55.616,-0.465,-0.065
21:11:55.620,-0.46,-0.065
21:11:55.624,-0.445,-0.065
21:11:55.628,-0.405,-0.07
21:11:55.632,-0.385,-0.085
21:11:55.636,-0.375,-0.09
21:11:55.640,-0.36,-0.095
21:11:55.644,-0.335,-0.095
21:11:55.648,-0.325,-0.09
21:11:55.652,-0.305,-0.075
21:11:55.656,-0.305,-0.09
21:11:55.660,-0.305,-0.09
21:11:55.664,-0.28,-0.105
21:11:55.668,-0.28,-0.105
21:11:55.672,-0.275,-0.115
21:11:55.676,-0.265,-0.115
21:11:55.680,-0.26,-0.125
21:11:55.684,-0.275,-0.125
21:11:55.688,-0.27,-0.115
21:11:55.692,-0.25,-0.115
21:11:55.696,-0.23,-0.1
21:11:55.700,-0.24,-0.125
21:11:55.704,-0.22,-0.12
21:11:55.708,-0.235,-0.155
21:11:55.712,-0.215,-0.14
21:11:55.716,-0.215,-0.13
21:11:55.720,-0.21,-0.12
21:11:55.724,-0.195,-0.1
21:11:55.728,-0.215,-0.11
21:11:55.732,-0.205,-0.13
21:11:55.736,-0.22,-0.115
21:11:55.740,-0.21,-0.115
21:11:55.744,-0.21,-0.115
21:11:55.748,-0.22,-0.1
21:11:55.752,-0.215,-0.09
21:11:55.756,-0.215,-0.09
21:11:55.760,-0.21,-0.1
21:11:55.764,-0.215,-0.095
21:11:55.768,-0.21,-0.11
21:11:55.772,-0.21,-0.09
21:11:55.776,-0.21,-0.1
21:11:55.780,-0.22,-0.095
21:11:55.784,-0.225,-0.115
21:11:55.788,-0.225,-0.1
21:11:55.792,-0.245,-0.115
21:11:55.796,-0.23,-0.11
21:11:55.800,-0.25,-0.115
21:11:55.804,-0.235,-0.1
21:11:55.808,-0.235,-0.12
21:11:55.812,-0.23,-0.125
21:11:55.816,-0.23,-0.15
21:11:55.820,-0.235,-0.16
21:11:55.824,-0.21,-0.125
21:11:55.828,-0.2,-0.125
21:11:55.832,-0.175,-0.12
21:11:55.836,-0.16,-0.125
21:11:55.840,-0.17,-0.13
21:11:55.844,-0.13,-0.11
21:11:55.848,-0.105,-0.1
21:11:55.852,-0.07,-0.09
21:11:55.856,-0.02,-0.07
21:11:55.860,0.005,-0.08
21:11:55.864,0.04,-0.065
21:11:55.868,0.075,-0.04
21:11:55.872,0.105,-0.065
21:11:55.876,0.13,-0.03
21:11:55.880,0.115,-0.03
21:11:55.884,0.11,-0.06
21:11:55.888,0.045,-0.075
21:11:55.892,0.02,-0.115
21:11:55.896,-0.035,-0.135
21:11:55.900,-0.095,-0.125
21:11:55.904,-0.15,-0.125
21:11:55.908,-0.2,-0.125
21:11:55.912,-0.245,-0.13
21:11:55.916,-0.27,-0.125
21:11:55.920,-0.3,-0.115
21:11:55.924,-0.31,-0.12
21:11:55.928,-0.31,-0.14
21:11:55.932,-0.26,-0.145
21:11:55.936,-0.265,-0.135
21:11:55.940,-0.265,-0.14
21:11:55.944,-0.26,-0.155
21:11:55.948,-0.27,-0.155
21:11:55.952,-0.275,-0.145
21:11:55.956,-0.265,-0.145
21:11:55.960,-0.26,-0.145
21:11:55.964,-0.25,-0.175
21:11:55.968,-0.25,-0.16
21:11:55.972,-0.235,-0.16
21:11:55.976,-0.235,-0.16
21:11:55.980,-0.215,-0.15
21:11:55.984,-0.23,-0.15
21:11:55.988,-0.22,-0.145
21:11:55.992,-0.225,-0.13
21:11:55.996,-0.24,-0.15
21:11:56.000,-0.25,-0.17
21:11:56.004,-0.23,-0.175
21:11:56.008,-0.235,-0.135
21:11:56.012,-0.24,-0.155
21:11:56.016,-0.25,-0.155
21:11:56.020,-0.235,-0.16
21:11:56.024,-0.235,-0.175
21:11:56.028,-0.195,-0.195
21:11:56.032,-0.165,-0.17
21:11:56.036,-0.11,-0.185
21:11:56.040,-0.015,-0.195
21:11:56.044,0.075,-0.185
21:11:56.048,0.155,-0.195
21:11:56.052,0.22,-0.225
21:11:56.056,0.265,-0.265
21:11:56.060,0.33,-0.27
21:11:56.064,0.355,-0.29
21:11:56.068,0.365,-0.3
21:11:56.072,0.35,-0.355
21:11:56.076,0.43,-0.45
21:11:56.080,0.68,-0.59
21:11:56.084,0.96,-0.79
21:11:56.088,1.145,-1.01
21:11:56.092,1.065,-1.165
21:11:56.096,0.68,-1.095
21:11:56.100,0.23,-0.785
21:11:56.104,-0.05,-0.495
21:11:56.108,-0.195,-0.32
21:11:56.112,-0.26,-0.215
21:11:56.116,-0.275,-0.115
21:11:56.120,-0.27,-0.06
21:11:56.124,-0.32,-0.03
21:11:56.128,-0.33,-0.035
21:11:56.132,-0.35,-0.05
21:11:56.136,-0.36,-0.045
21:11:56.140,-0.375,-0.095
21:11:56.144,-0.37,-0.13
21:11:56.148,-0.38,-0.12
21:11:56.152,-0.37,-0.14
21:11:56.156,-0.38,-0.13
21:11:56.160,-0.39,-0.135
21:11:56.164,-0.375,-0.13
21:11:56.168,-0.37,-0.13
21:11:56.172,-0.385,-0.13
21:11:56.176,-0.4,-0.14
21:11:56.180,-0.395,-0.105
21:11:56.184,-0.365,-0.15
21:11:56.188,-0.38,-0.145
21:11:56.192,-0.375,-0.145
21:11:56.196,-0.395,-0.12
21:11:56.200,-0.38,-0.13
21:11:56.204,-0.395,-0.12
21:11:56.208,-0.4,-0.115
21:11:56.212,-0.405,-0.135
21:11:56.216,-0.42,-0.12
21:11:56.220,-0.415,-0.11
21:11:56.224,-0.43,-0.12
21:11:56.228,-0.44,-0.11
21:11:56.232,-0.435,-0.135
21:11:56.236,-0.465,-0.12
21:11:56.240,-0.47,-0.115
21:11:56.244,-0.46,-0.095
21:11:56.248,-0.465,-0.1
21:11:56.252,-0.45,-0.1
21:11:56.256,-0.46,-0.1
21:11:56.260,-0.465,-0.115
21:11:56.264,-0.46,-0.11
21:11:56.268,-0.455,-0.12
21:11:56.272,-0.44,-0.1
21:11:56.276,-0.455,-0.125
21:11:56.280,-0.435,-0.11
21:11:56.284,-0.42,-0.1
21:11:56.288,-0.42,-0.1
21:11:56.292,-0.41,-0.105
21:11:56.296,-0.38,-0.105
21:11:56.300,-0.37,-0.11
21:11:56.304,-0.34,-0.12
21:11:56.308,-0.32,-0.13
21:11:56.312,-0.335,-0.125
21:11:56.316,-0.315,-0.14
21:11:56.320,-0.295,-0.125
21:11:56.324,-0.275,-0.155
21:11:56.328,-0.27,-0.145
21:11:56.332,-0.275,-0.135
21:11:56.336,-0.255,-0.155
21:11:56.340,-0.25,-0.165
21:11:56.344,-0.255,-0.16
21:11:56.348,-0.245,-0.17
21:11:56.352,-0.235,-0.16
21:11:56.356,-0.215,-0.155
21:11:56.360,-0.19,-0.16
21:11:56.364,-0.2,-0.18
21:11:56.368,-0.18,-0.19
21:11:56.372,-0.185,-0.16
21:11:56.376,-0.165,-0.16
21:11:56.380,-0.16,-0.16
21:11:56.384,-0.175,-0.17
21:11:56.388,-0.17,-0.175
21:11:56.392,-0.18,-0.185
21:11:56.396,-0.175,-0.17
21:11:56.400,-0.16,-0.195
21:11:56.404,-0.17,-0.18
21:11:56.408,-0.16,-0.155
21:11:56.412,-0.16,-0.155
21:11:56.416,-0.16,-0.155
21:11:56.420,-0.165,-0.145
21:11:56.424,-0.17,-0.145
21:11:56.428,-0.165,-0.14
21:11:56.432,-0.16,-0.13
21:11:56.436,-0.175,-0.12
21:11:56.440,-0.175,-0.125
21:11:56.444,-0.175,-0.14
21:11:56.448,-0.175,-0.165
21:11:56.452,-0.195,-0.155
21:11:56.456,-0.21,-0.16
21:11:56.460,-0.225,-0.135
21:11:56.464,-0.215,-0.165
21:11:56.468,-0.205,-0.175
21:11:56.472,-0.21,-0.18
21:11:56.476,-0.19,-0.17
21:11:56.480,-0.215,-0.16
21:11:56.484,-0.21,-0.15
21:11:56.488,-0.205,-0.175
21:11:56.492,-0.205,-0.18
21:11:56.496,-0.2,-0.18
21:11:56.500,-0.195,-0.18
21:11:56.504,-0.15,-0.19
21:11:56.508,-0.155,-0.165
21:11:56.512,-0.14,-0.14
21:11:56.516,-0.115,-0.145
21:11:56.520,-0.11,-0.145
21:11:56.524,-0.11,-0.135
21:11:56.528,-0.06,-0.13
21:11:56.532,-0.04,-0.11
21:11:56.536,0.0,-0.095
21:11:56.540,0.0,-0.075
21:11:56.544,0.03,-0.055
21:11:56.548,0.055,-0.08
21:11:56.552,0.08,-0.045
21:11:56.556,0.075,-0.055
21:11:56.560,0.095,-0.05
21:11:56.564,0.075,-0.09
21:11:56.568,0.02,-0.13
21:11:56.572,-0.035,-0.14
21:11:56.576,-0.06,-0.16
21:11:56.580,-0.105,-0.16
21:11:56.584,-0.19,-0.155
21:11:56.588,-0.235,-0.175
21:11:56.592,-0.245,-0.16
21:11:56.596,-0.295,-0.12
21:11:56.600,-0.305,-0.145
21:11:56.604,-0.295,-0.12
21:11:56.608,-0.3,-0.14
21:11:56.612,-0.305,-0.12
21:11:56.616,-0.285,-0.145
21:11:56.620,-0.285,-0.125
21:11:56.624,-0.265,-0.145
21:11:56.628,-0.27,-0.145
21:11:56.632,-0.265,-0.145
21:11:56.636,-0.25,-0.15
21:11:56.640,-0.25,-0.155
21:11:56.644,-0.27,-0.15
21:11:56.648,-0.27,-0.125
21:11:56.652,-0.255,-0.12
21:11:56.656,-0.26,-0.125
21:11:56.660,-0.25,-0.135
21:11:56.664,-0.275,-0.15
21:11:56.668,-0.265,-0.145
21:11:56.672,-0.255,-0.14
21:11:56.676,-0.255,-0.15
21:11:56.680,-0.26,-0.16
21:11:56.684,-0.27,-0.17
21:11:56.688,-0.265,-0.165
21:11:56.692,-0.255,-0.145
21:11:56.696,-0.26,-0.16
21:11:56.700,-0.245,-0.18
21:11:56.704,-0.24,-0.155
21:11:56.708,-0.22,-0.15
21:11:56.712,-0.16,-0.135
21:11:56.716,-0.115,-0.15
21:11:56.720,-0.045,-0.145
21:11:56.724,0.07,-0.17
21:11:56.728,0.135,-0.185
21:11:56.732,0.165,-0.215
21:11:56.736,0.205,-0.26
21:11:56.740,0.245,-0.235
21:11:56.744,0.215,-0.24
21:11:56.748,0.2,-0.29
21:11:56.752,0.215,-0.39
21:11:56.756,0.395,-0.48
21:11:56.760,0.705,-0.695
21:11:56.764,0.97,-0.93
21:11:56.768,1.095,-1.135
21:11:56.772,0.93,-1.255
21:11:56.776,0.52,-1.08
21:11:56.780,0.055,-0.725
21:11:56.784,-0.22,-0.405
21:11:56.788,-0.29,-0.245
21:11:56.792,-0.33,-0.125
21:11:56.796,-0.35,-0.035
21:11:56.800,-0.345,-0.005
21:11:56.804,-0.345,0.005
21:11:56.808,-0.375,0.0
21:11:56.812,-0.365,-0.01
21:11:56.816,-0.38,-0.005
21:11:56.820,-0.38,-0.02
21:11:56.824,-0.395,-0.03
21:11:56.828,-0.395,-0.02
21:11:56.832,-0.385,-0.04
21:11:56.836,-0.38,-0.065
21:11:56.840,-0.37,-0.045
21:11:56.844,-0.375,-0.03
21:11:56.848,-0.39,-0.04
21:11:56.852,-0.36,-0.05
21:11:56.856,-0.365,-0.02
21:11:56.860,-0.375,-0.02
21:11:56.864,-0.375,0.0
21:11:56.868,-0.4,-0.01
21:11:56.872,-0.395,-0.005
21:11:56.876,-0.39,-0.02
21:11:56.880,-0.4,-0.025
21:11:56.884,-0.395,-0.02
21:11:56.888,-0.415,-0.005
21:11:56.892,-0.415,-0.025
21:11:56.896,-0.435,-0.02
21:11:56.900,-0.435,-0.01
21:11:56.904,-0.44,0.005
21:11:56.908,-0.425,0.0
21:11:56.912,-0.445,-0.02
21:11:56.916,-0.43,0.005
21:11:56.920,-0.45,-0.005
21:11:56.924,-0.455,-0.005
21:11:56.928,-0.445,-0.025
21:11:56.932,-0.455,-0.005
21:11:56.936,-0.43,-0.005
21:11:56.940,-0.46,0.0
21:11:56.944,-0.435,-0.01
21:11:56.948,-0.41,0.0
21:11:56.952,-0.405,0.015
21:11:56.956,-0.385,0.0
21:11:56.960,-0.38,-0.01
21:11:56.964,-0.38,0.0
21:11:56.968,-0.375,-0.005
21:11:56.972,-0.35,-0.015
21:11:56.976,-0.345,0.0
21:11:56.980,-0.335,-0.005
21:11:56.984,-0.33,-0.035
21:11:56.988,-0.34,-0.03
21:11:56.992,-0.315,-0.02
21:11:56.996,-0.295,-0.04
21:11:57.000,-0.28,-0.05
21:11:57.004,-0.29,-0.055
21:11:57.008,-0.265,-0.045
21:11:57.012,-0.26,-0.06
21:11:57.016,-0.24,-0.07
21:11:57.020,-0.23,-0.08
21:11:57.024,-0.225,-0.08
21:11:57.028,-0.2,-0.08
21:11:57.032,-0.21,-0.075
21:11:57.036,-0.2,-0.09
21:11:57.040,-0.195,-0.105
21:11:57.044,-0.175,-0.1
21:11:57.048,-0.18,-0.08
21:11:57.052,-0.15,-0.08
21:11:57.056,-0.14,-0.07
21:11:57.060,-0.12,-0.075
21:11:57.064,-0.12,-0.07
21:11:57.068,-0.125,-0.06
21:11:57.072,-0.12,-0.06
21:11:57.076,-0.125,-0.06
21:11:57.080,-0.12,-0.06
21:11:57.084,-0.11,-0.05
21:11:57.088,-0.13,-0.055
21:11:57.092,-0.14,-0.045
21:11:57.096,-0.13,-0.055
21:11:57.100,-0.135,-0.04
21:11:57.104,-0.13,-0.05
21:11:57.108,-0.13,-0.04
21:11:57.112,-0.13,-0.055
21:11:57.116,-0.145,-0.06
21:11:57.120,-0.145,-0.05
21:11:57.124,-0.155,-0.025
21:11:57.128,-0.14,-0.02
21:11:57.132,-0.14,-0.045
21:11:57.136,-0.155,-0.06
21:11:57.140,-0.15,-0.045
21:11:57.144,-0.145,-0.02
21:11:57.148,-0.16,-0.03
21:11:57.152,-0.15,-0.035
21:11:57.156,-0.14,-0.02
21:11:57.160,-0.12,-0.045
21:11:57.164,-0.105,-0.025
21:11:57.168,-0.085,-0.035
21:11:57.172,-0.075,-0.035
21:11:57.176,-0.065,-0.025
21:11:57.180,-0.08,-0.045
21:11:57.184,-0.06,0.0
21:11:57.188,-0.04,-0.025
21:11:57.192,-0.01,0.015
21:11:57.196,0.035,0.005
21:11:57.200,0.085,0.03
21:11:57.204,0.09,0.03
21:11:57.208,0.095,0.03
21:11:57.212,0.115,0.04
21:11:57.216,0.13,0.015
21:11:57.220,0.135,0.01
21:11:57.224,0.125,0.0
21:11:57.228,0.075,-0.03
21:11:57.232,0.04,-0.05
21:11:57.236,-0.015,-0.065
21:11:57.240,-0.025,-0.095
21:11:57.244,-0.105,-0.075
21:11:57.248,-0.165,-0.07
21:11:57.252,-0.185,-0.085
21:11:57.256,-0.24,-0.06
21:11:57.260,-0.24,-0.045
21:11:57.264,-0.25,-0.06
21:11:57.268,-0.27,-0.055
21:11:57.272,-0.255,-0.035
21:11:57.276,-0.25,-0.04
21:11:57.280,-0.21,-0.06
21:11:57.284,-0.21,-0.07
21:11:57.288,-0.215,-0.05
21:11:57.292,-0.21,-0.075
21:11:57.296,-0.23,-0.065
21:11:57.300,-0.23,-0.06
21:11:57.304,-0.215,-0.06
21:11:57.308,-0.225,-0.055
21:11:57.312,-0.22,-0.055
21:11:57.316,-0.225,-0.045
21:11:57.320,-0.225,-0.045
21:11:57.324,-0.21,-0.05
21:11:57.328,-0.215,-0.085
21:11:57.332,-0.225,-0.065
21:11:57.336,-0.23,-0.065
21:11:57.340,-0.215,-0.07
21:11:57.344,-0.22,-0.055
21:11:57.348,-0.215,-0.06
21:11:57.352,-0.225,-0.07
21:11:57.356,-0.23,-0.08
21:11:57.360,-0.22,-0.075
21:11:57.364,-0.205,-0.085
21:11:57.368,-0.215,-0.09
21:11:57.372,-0.185,-0.07
21:11:57.376,-0.14,-0.085
21:11:57.380,-0.07,-0.095
21:11:57.384,0.01,-0.075
21:11:57.388,0.095,-0.1
21:11:57.392,0.15,-0.11
21:11:57.396,0.21,-0.145
21:11:57.400,0.24,-0.185
21:11:57.404,0.265,-0.19
21:11:57.408,0.265,-0.19
21:11:57.412,0.225,-0.23
21:11:57.416,0.245,-0.32
21:11:57.420,0.41,-0.48
21:11:57.424,0.68,-0.67
21:11:57.428,0.99,-0.9
21:11:57.432,1.125,-1.12
21:11:57.436,0.99,-1.215
21:11:57.440,0.585,-1.07
21:11:57.444,0.12,-0.75
21:11:57.448,-0.16,-0.43
21:11:57.452,-0.255,-0.2
21:11:57.456,-0.315,-0.1
21:11:57.460,-0.325,-0.02
21:11:57.464,-0.31,0.035
21:11:57.468,-0.355,0.035
21:11:57.472,-0.355,0.035
21:11:57.476,-0.345,0.05
21:11:57.480,-0.365,0.02
21:11:57.484,-0.345,0.015
21:11:57.488,-0.38,-0.005
21:11:57.492,-0.38,-0.015
21:11:57.496,-0.37,-0.005
21:11:57.500,-0.35,-0.035
21:11:57.504,-0.355,-0.02
21:11:57.508,-0.345,-0.015
21:11:57.512,-0.345,-0.03
21:11:57.516,-0.355,-0.025
21:11:57.520,-0.345,-0.015
21:11:57.524,-0.34,0.0
21:11:57.528,-0.355,-0.005
21:11:57.532,-0.375,0.005
21:11:57.536,-0.375,0.0
21:11:57.540,-0.375,-0.015
21:11:57.544,-0.375,0.0
21:11:57.548,-0.395,0.0
21:11:57.552,-0.4,0.0
21:11:57.556,-0.42,-0.02
21:11:57.560,-0.43,-0.01
21:11:57.564,-0.425,-0.02
21:11:57.568,-0.415,0.005
21:11:57.572,-0.43,-0.02
21:11:57.576,-0.42,0.005
21:11:57.580,-0.445,0.005
21:11:57.584,-0.44,-0.01
21:11:57.588,-0.42,-0.01
21:11:57.592,-0.425,-0.015
21:11:57.596,-0.46,-0.005
21:11:57.600,-0.44,-0.02
21:11:57.604,-0.455,0.005
21:11:57.608,-0.415,0.0
21:11:57.612,-0.395,0.02
21:11:57.616,-0.4,0.005
21:11:57.620,-0.4,-0.005
21:11:57.624,-0.4,0.0
21:11:57.628,-0.395,0.005
21:11:57.632,-0.385,0.0
21:11:57.636,-0.37,0.0
21:11:57.640,-0.365,0.005
21:11:57.644,-0.35,0.005
21:11:57.648,-0.335,-0.01
21:11:57.652,-0.335,-0.035
21:11:57.656,-0.31,-0.035
21:11:57.660,-0.3,-0.04
21:11:57.664,-0.285,-0.045
21:11:57.668,-0.28,-0.04
21:11:57.672,-0.27,-0.05
21:11:57.676,-0.26,-0.08
21:11:57.680,-0.24,-0.055
21:11:57.684,-0.215,-0.085
21:11:57.688,-0.21,-0.065
21:11:57.692,-0.195,-0.095
21:11:57.696,-0.185,-0.1
21:11:57.700,-0.18,-0.07
21:11:57.704,-0.17,-0.055
21:11:57.708,-0.18,-0.075
21:11:57.712,-0.16,-0.055
21:11:57.716,-0.16,-0.05
21:11:57.720,-0.15,-0.05
21:11:57.724,-0.135,-0.05
21:11:57.728,-0.14,-0.05
21:11:57.732,-0.13,-0.025
21:11:57.736,-0.13,-0.02
21:11:57.740,-0.125,-0.015
21:11:57.744,-0.115,-0.005
21:11:57.748,-0.145,-0.02
21:11:57.752,-0.135,-0.015
21:11:57.756,-0.12,-0.025
21:11:57.760,-0.13,-0.015
21:11:57.764,-0.13,-0.01
21:11:57.768,-0.15,-0.02
21:11:57.772,-0.15,-0.03
21:11:57.776,-0.145,-0.025
21:11:57.780,-0.145,-0.03
21:11:57.784,-0.135,-0.035
21:11:57.788,-0.15,-0.035
21:11:57.792,-0.14,-0.035
21:11:57.796,-0.155,-0.045
21:11:57.800,-0.165,-0.03
21:11:57.804,-0.15,-0.04
21:11:57.808,-0.15,-0.04
21:11:57.812,-0.13,-0.025
21:11:57.816,-0.15,-0.035
21:11:57.820,-0.14,-0.04
21:11:57.824,-0.14,-0.04
21:11:57.828,-0.14,-0.045
21:11:57.832,-0.15,-0.025
21:11:57.836,-0.14,-0.04
21:11:57.840,-0.13,-0.04
21:11:57.844,-0.135,-0.035
21:11:57.848,-0.145,-0.02
21:11:57.852,-0.15,-0.035
21:11:57.856,-0.14,-0.015
21:11:57.860,-0.145,-0.02
21:11:57.864,-0.135,-0.015
21:11:57.868,-0.13,-0.03
21:11:57.872,-0.13,-0.005
21:11:57.876,-0.115,-0.045
21:11:57.880,-0.105,-0.02
21:11:57.884,-0.1,-0.04
21:11:57.888,-0.095,-0.025
21:11:57.892,-0.1,-0.02
21:11:57.896,-0.1,-0.02
21:11:57.900,-0.05,0.0
21:11:57.904,-0.005,0.0
21:11:57.908,0.02,0.0
21:11:57.912,0.065,0.01
21:11:57.916,0.085,0.015
21:11:57.920,0.095,0.025
21:11:57.924,0.095,0.05
21:11:57.928,0.135,0.035
21:11:57.932,0.125,0.06
21:11:57.936,0.12,0.04
21:11:57.940,0.095,0.015
21:11:57.944,0.08,-0.025
21:11:57.948,0.015,-0.02
21:11:57.952,-0.025,-0.05
21:11:57.956,-0.08,-0.025
21:11:57.960,-0.12,-0.02
21:11:57.964,-0.17,-0.03
21:11:57.968,-0.2,0.005
21:11:57.972,-0.23,0.005
21:11:57.976,-0.235,0.0
21:11:57.980,-0.225,0.0
21:11:57.984,-0.23,0.005
21:11:57.988,-0.235,-0.015
21:11:57.992,-0.245,-0.02
21:11:57.996,-0.25,-0.025
21:11:58.000,-0.235,0.0
21:11:58.004,-0.24,0.0
21:11:58.008,-0.25,-0.01
21:11:58.012,-0.265,-0.025
21:11:58.016,-0.24,-0.05
21:11:58.020,-0.225,-0.045
21:11:58.024,-0.22,-0.045
21:11:58.028,-0.225,-0.025
21:11:58.032,-0.195,-0.05
21:11:58.036,-0.215,-0.055
21:11:58.040,-0.225,-0.035
21:11:58.044,-0.215,-0.035
21:11:58.048,-0.205,-0.05
21:11:58.052,-0.17,-0.04
21:11:58.056,-0.175,-0.05
21:11:58.060,-0.17,-0.07
21:11:58.064,-0.175,-0.045
21:11:58.068,-0.19,-0.05
21:11:58.072,-0.175,-0.045
21:11:58.076,-0.175,-0.04
21:11:58.080,-0.13,-0.04
21:11:58.084,-0.11,-0.045
21:11:58.088,-0.06,-0.035
21:11:58.092,0.015,-0.055
21:11:58.096,0.105,-0.055
21:11:58.100,0.18,-0.08
21:11:58.104,0.22,-0.105
21:11:58.108,0.265,-0.16
21:11:58.112,0.305,-0.17
21:11:58.116,0.31,-0.155
21:11:58.120,0.285,-0.195
21:11:58.124,0.265,-0.28
21:11:58.128,0.415,-0.385
21:11:58.132,0.685,-0.555
21:11:58.136,1.01,-0.815
21:11:58.140,1.17,-1.01
21:11:58.144,1.045,-1.135
21:11:58.148,0.66,-1.035
21:11:58.152,0.2,-0.69
21:11:58.156,-0.07,-0.38
21:11:58.160,-0.19,-0.16
21:11:58.164,-0.215,-0.07
21:11:58.168,-0.26,0.03
21:11:58.172,-0.245,0.05
21:11:58.176,-0.28,0.075
21:11:58.180,-0.28,0.08
21:11:58.184,-0.29,0.09
21:11:58.188,-0.31,0.08
21:11:58.192,-0.31,0.065
21:11:58.196,-0.32,0.035
21:11:58.200,-0.335,0.02
21:11:58.204,-0.335,0.0
21:11:58.208,-0.345,0.02
21:11:58.212,-0.35,0.035
21:11:58.216,-0.355,0.02
21:11:58.220,-0.34,0.015
21:11:58.224,-0.36,0.005
21:11:58.228,-0.37,0.035
21:11:58.232,-0.35,0.015
21:11:58.236,-0.365,-0.015
21:11:58.240,-0.38,0.01
21:11:58.244,-0.39,0.0
21:11:58.248,-0.395,-0.01
21:11:58.252,-0.415,0.0
21:11:58.256,-0.405,0.005
21:11:58.260,-0.39,0.01
21:11:58.264,-0.41,0.02
21:11:58.268,-0.39,0.015
21:11:58.272,-0.405,0.0
21:11:58.276,-0.395,0.0
21:11:58.280,-0.385,0.015
21:11:58.284,-0.42,0.0
21:11:58.288,-0.395,0.01
21:11:58.292,-0.415,0.0
21:11:58.296,-0.425,0.01
21:11:58.300,-0.43,0.01
21:11:58.304,-0.43,0.005
21:11:58.308,-0.425,0.015
21:11:58.312,-0.41,0.015
21:11:58.316,-0.41,0.015
21:11:58.320,-0.425,0.015
21:11:58.324,-0.435,0.01
21:11:58.328,-0.43,-0.005
21:11:58.332,-0.4,-0.005
21:11:58.336,-0.4,-0.01
21:11:58.340,-0.405,-0.01
21:11:58.344,-0.375,-0.035
21:11:58.348,-0.385,-0.045
21:11:58.352,-0.35,-0.035
21:11:58.356,-0.34,-0.04
21:11:58.360,-0.33,-0.06
21:11:58.364,-0.33,-0.07
21:11:58.368,-0.3,-0.06
21:11:58.372,-0.29,-0.06
21:11:58.376,-0.27,-0.055
21:11:58.380,-0.24,-0.065
21:11:58.384,-0.245,-0.07
21:11:58.388,-0.22,-0.085
21:11:58.392,-0.24,-0.09
21:11:58.396,-0.2,-0.09
21:11:58.400,-0.19,-0.085
21:11:58.404,-0.2,-0.09
21:11:58.408,-0.17,-0.08
21:11:58.412,-0.17,-0.09
21:11:58.416,-0.15,-0.09
21:11:58.420,-0.15,-0.105
21:11:58.424,-0.15,-0.105
21:11:58.428,-0.16,-0.105
21:11:58.432,-0.15,-0.08
21:11:58.436,-0.145,-0.095
21:11:58.440,-0.15,-0.11
21:11:58.444,-0.145,-0.11
21:11:58.448,-0.14,-0.115
21:11:58.452,-0.115,-0.105
21:11:58.456,-0.125,-0.11
21:11:58.460,-0.14,-0.11
21:11:58.464,-0.12,-0.13
21:11:58.468,-0.13,-0.11
21:11:58.472,-0.155,-0.12
21:11:58.476,-0.16,-0.12
21:11:58.480,-0.14,-0.115
21:11:58.484,-0.135,-0.095
21:11:58.488,-0.14,-0.105
21:11:58.492,-0.145,-0.08
21:11:58.496,-0.125,-0.095
21:11:58.500,-0.155,-0.09
21:11:58.504,-0.16,-0.095
21:11:58.508,-0.155,-0.085
21:11:58.512,-0.15,-0.095
21:11:58.516,-0.155,-0.085
21:11:58.520,-0.155,-0.075
21:11:58.524,-0.165,-0.105
21:11:58.528,-0.165,-0.11
21:11:58.532,-0.15,-0.12
21:11:58.536,-0.165,-0.11
21:11:58.540,-0.16,-0.11
21:11:58.544,-0.165,-0.105
21:11:58.548,-0.175,-0.11
21:11:58.552,-0.17,-0.1
21:11:58.556,-0.18,-0.11
21:11:58.560,-0.195,-0.105
21:11:58.564,-0.185,-0.13
21:11:58.568,-0.185,-0.135
21:11:58.572,-0.17,-0.15
21:11:58.576,-0.155,-0.14
21:11:58.580,-0.125,-0.125
21:11:58.584,-0.125,-0.125
21:11:58.588,-0.12,-0.135
21:11:58.592,-0.12,-0.13
21:11:58.596,-0.115,-0.14
21:11:58.600,-0.08,-0.13
21:11:58.604,-0.06,-0.12
21:11:58.608,-0.035,-0.115
21:11:58.612,-0.005,-0.115
21:11:58.616,0.03,-0.1
21:11:58.620,0.07,-0.065
21:11:58.624,0.085,-0.075
21:11:58.628,0.115,-0.045
21:11:58.632,0.13,-0.055
21:11:58.636,0.145,-0.045
21:11:58.640,0.15,-0.07
21:11:58.644,0.135,-0.08
21:11:58.648,0.075,-0.105
21:11:58.652,0.04,-0.115
21:11:58.656,-0.015,-0.15
21:11:58.660,-0.065,-0.145
21:11:58.664,-0.125,-0.17
21:11:58.668,-0.185,-0.155
21:11:58.672,-0.23,-0.175
21:11:58.676,-0.26,-0.145
21:11:58.680,-0.265,-0.15
21:11:58.684,-0.265,-0.165
21:11:58.688,-0.25,-0.155
21:11:58.692,-0.25,-0.18
21:11:58.696,-0.27,-0.16
21:11:58.700,-0.25,-0.17
21:11:58.704,-0.23,-0.175
21:11:58.708,-0.23,-0.19
21:11:58.712,-0.225,-0.18
21:11:58.716,-0.225,-0.18
21:11:58.720,-0.205,-0.195
21:11:58.724,-0.21,-0.18
21:11:58.728,-0.205,-0.195
21:11:58.732,-0.185,-0.16
21:11:58.736,-0.185,-0.19
21:11:58.740,-0.19,-0.17
21:11:58.744,-0.205,-0.17
21:11:58.748,-0.195,-0.18
21:11:58.752,-0.2,-0.2
21:11:58.756,-0.19,-0.19
21:11:58.760,-0.21,-0.18
21:11:58.764,-0.2,-0.19
21:11:58.768,-0.21,-0.185
21:11:58.772,-0.21,-0.22
21:11:58.776,-0.21,-0.205
21:11:58.780,-0.185,-0.23
21:11:58.784,-0.165,-0.21
21:11:58.788,-0.15,-0.22
21:11:58.792,-0.085,-0.22
21:11:58.796,-0.035,-0.21
21:11:58.800,0.05,-0.24
21:11:58.804,0.135,-0.255
21:11:58.808,0.235,-0.255
21:11:58.812,0.29,-0.275
21:11:58.816,0.355,-0.32
21:11:58.820,0.41,-0.32
21:11:58.824,0.405,-0.315
21:11:58.828,0.36,-0.355
21:11:58.832,0.405,-0.395
21:11:58.836,0.575,-0.515
21:11:58.840,0.845,-0.71
21:11:58.844,1.095,-0.925
21:11:58.848,1.16,-1.13
21:11:58.852,0.945,-1.185
21:11:58.856,0.49,-1.01
21:11:58.860,0.085,-0.685
21:11:58.864,-0.125,-0.44
21:11:58.868,-0.185,-0.31
21:11:58.872,-0.235,-0.215
21:11:58.876,-0.25,-0.13
21:11:58.880,-0.28,-0.055
21:11:58.884,-0.305,-0.075
21:11:58.888,-0.32,-0.055
21:11:58.892,-0.35,-0.075
21:11:58.896,-0.34,-0.11
21:11:58.900,-0.345,-0.12
21:11:58.904,-0.35,-0.13
21:11:58.908,-0.35,-0.14
21:11:58.912,-0.335,-0.125
21:11:58.916,-0.365,-0.13
21:11:58.920,-0.355,-0.145
21:11:58.924,-0.325,-0.14
21:11:58.928,-0.325,-0.12
21:11:58.932,-0.335,-0.135
21:11:58.936,-0.35,-0.13
21:11:58.940,-0.34,-0.11
21:11:58.944,-0.345,-0.125
21:11:58.948,-0.345,-0.12
21:11:58.952,-0.345,-0.12
21:11:58.956,-0.345,-0.11
21:11:58.960,-0.355,-0.125
21:11:58.964,-0.375,-0.11
21:11:58.968,-0.35,-0.125
21:11:58.972,-0.365,-0.13
21:11:58.976,-0.365,-0.115
21:11:58.980,-0.39,-0.125
21:11:58.984,-0.395,-0.15
21:11:58.988,-0.41,-0.135
21:11:58.992,-0.385,-0.115
21:11:58.996,-0.4,-0.125
21:11:59.000,-0.42,-0.12
21:11:59.004,-0.41,-0.11
21:11:59.008,-0.405,-0.125
21:11:59.012,-0.41,-0.115
21:11:59.016,-0.39,-0.14
21:11:59.020,-0.395,-0.12
21:11:59.024,-0.4,-0.105
21:11:59.028,-0.4,-0.11
21:11:59.032,-0.395,-0.135
21:11:59.036,-0.37,-0.125
21:11:59.040,-0.355,-0.12
21:11:59.044,-0.35,-0.105
21:11:59.048,-0.335,-0.105
21:11:59.052,-0.335,-0.135
21:11:59.056,-0.32,-0.1
21:11:59.060,-0.31,-0.13
21:11:59.064,-0.285,-0.115
21:11:59.068,-0.3,-0.135
21:11:59.072,-0.26,-0.14
21:11:59.076,-0.265,-0.145
21:11:59.080,-0.23,-0.145
21:11:59.084,-0.24,-0.16
21:11:59.088,-0.225,-0.165
21:11:59.092,-0.235,-0.18
21:11:59.096,-0.21,-0.185
21:11:59.100,-0.21,-0.19
21:11:59.104,-0.205,-0.21
21:11:59.108,-0.18,-0.22
21:11:59.112,-0.165,-0.23
21:11:59.116,-0.145,-0.24
21:11:59.120,-0.145,-0.19
21:11:59.124,-0.135,-0.205
21:11:59.128,-0.15,-0.22
21:11:59.132,-0.13,-0.23
21:11:59.136,-0.11,-0.235
21:11:59.140,-0.11,-0.22
21:11:59.144,-0.1,-0.205
21:11:59.148,-0.09,-0.21
21:11:59.152,-0.095,-0.22
21:11:59.156,-0.08,-0.215
21:11:59.160,-0.095,-0.185
21:11:59.164,-0.07,-0.195
21:11:59.168,-0.07,-0.17
21:11:59.172,-0.085,-0.18
21:11:59.176,-0.08,-0.17
21:11:59.180,-0.08,-0.17
21:11:59.184,-0.095,-0.155
21:11:59.188,-0.09,-0.16
21:11:59.192,-0.1,-0.18
21:11:59.196,-0.095,-0.185
21:11:59.200,-0.09,-0.175
21:11:59.204,-0.135,-0.17
21:11:59.208,-0.125,-0.16
21:11:59.212,-0.12,-0.17
21:11:59.216,-0.14,-0.185
21:11:59.220,-0.125,-0.19
21:11:59.224,-0.125,-0.16
21:11:59.228,-0.14,-0.175
21:11:59.232,-0.125,-0.175
21:11:59.236,-0.125,-0.175
21:11:59.240,-0.13,-0.18
21:11:59.244,-0.13,-0.16
21:11:59.248,-0.13,-0.16
21:11:59.252,-0.13,-0.155
21:11:59.256,-0.12,-0.175
21:11:59.260,-0.11,-0.16
21:11:59.264,-0.11,-0.135
21:11:59.268,-0.06,-0.155
21:11:59.272,-0.065,-0.145
21:11:59.276,-0.045,-0.14
21:11:59.280,-0.025,-0.165
21:11:59.284,-0.025,-0.15
21:11:59.288,0.0,-0.13
21:11:59.292,0.01,-0.15
21:11:59.296,0.045,-0.11
21:11:59.300,0.1,-0.095
21:11:59.304,0.12,-0.09
21:11:59.308,0.115,-0.09
21:11:59.312,0.135,-0.09
21:11:59.316,0.135,-0.085
21:11:59.320,0.165,-0.07
21:11:59.324,0.165,-0.08
21:11:59.328,0.16,-0.12
21:11:59.332,0.11,-0.145
21:11:59.336,0.06,-0.17
21:11:59.340,-0.005,-0.155
21:11:59.344,-0.06,-0.19
21:11:59.348,-0.09,-0.18
21:11:59.352,-0.15,-0.165
21:11:59.356,-0.2,-0.165
21:11:59.360,-0.22,-0.125
21:11:59.364,-0.23,-0.115
21:11:59.368,-0.225,-0.14
21:11:59.372,-0.22,-0.125
21:11:59.376,-0.23,-0.15
21:11:59.380,-0.215,-0.145
21:11:59.384,-0.205,-0.145
21:11:59.388,-0.19,-0.135
21:11:59.392,-0.195,-0.145
21:11:59.396,-0.195,-0.145
21:11:59.400,-0.185,-0.155
21:11:59.404,-0.21,-0.15
21:11:59.408,-0.19,-0.14
21:11:59.412,-0.185,-0.135
21:11:59.416,-0.2,-0.155
21:11:59.420,-0.215,-0.145
21:11:59.424,-0.21,-0.14
21:11:59.428,-0.21,-0.155
21:11:59.432,-0.215,-0.145
21:11:59.436,-0.215,-0.16
21:11:59.440,-0.2,-0.18
21:11:59.444,-0.215,-0.165
21:11:59.448,-0.21,-0.17
21:11:59.452,-0.22,-0.155
21:11:59.456,-0.21,-0.175
21:11:59.460,-0.2,-0.175
21:11:59.464,-0.185,-0.195
21:11:59.468,-0.2,-0.175
21:11:59.472,-0.175,-0.17
21:11:59.476,-0.12,-0.2
21:11:59.480,-0.03,-0.185
21:11:59.484,0.05,-0.195
21:11:59.488,0.13,-0.2
21:11:59.492,0.195,-0.205
21:11:59.496,0.24,-0.245
21:11:59.500,0.265,-0.3
21:11:59.504,0.285,-0.28
21:11:59.508,0.265,-0.31
21:11:59.512,0.24,-0.36
21:11:59.516,0.26,-0.4
21:11:59.520,0.43,-0.565
21:11:59.524,0.75,-0.79
21:11:59.528,1.005,-1.03
21:11:59.532,1.12,-1.22
21:11:59.536,0.935,-1.29
21:11:59.540,0.51,-1.12
21:11:59.544,0.06,-0.76
21:11:59.548,-0.2,-0.45
21:11:59.552,-0.29,-0.26
21:11:59.556,-0.34,-0.16
21:11:59.560,-0.33,-0.08
21:11:59.564,-0.34,-0.04
21:11:59.568,-0.35,-0.015
21:11:59.572,-0.36,-0.01
21:11:59.576,-0.36,-0.045
21:11:59.580,-0.365,-0.04
21:11:59.584,-0.375,-0.06
21:11:59.588,-0.35,-0.05
21:11:59.592,-0.345,-0.07
21:11:59.596,-0.365,-0.055
21:11:59.600,-0.34,-0.065
21:11:59.604,-0.34,-0.045
21:11:59.608,-0.335,-0.045
21:11:59.612,-0.375,-0.03
21:11:59.616,-0.355,-0.05
21:11:59.620,-0.38,-0.05
21:11:59.624,-0.35,-0.05
21:11:59.628,-0.365,-0.045
21:11:59.632,-0.385,-0.065
21:11:59.636,-0.405,-0.06
21:11:59.640,-0.4,-0.06
21:11:59.644,-0.415,-0.05
21:11:59.648,-0.425,-0.045
21:11:59.652,-0.44,-0.065
21:11:59.656,-0.415,-0.075
21:11:59.660,-0.435,-0.065
21:11:59.664,-0.44,-0.05
21:11:59.668,-0.465,-0.07
21:11:59.672,-0.445,-0.06
21:11:59.676,-0.45,-0.075
21:11:59.680,-0.44,-0.07
21:11:59.684,-0.45,-0.065
21:11:59.688,-0.455,-0.065
21:11:59.692,-0.46,-0.06
21:11:59.696,-0.45,-0.045
21:11:59.700,-0.45,-0.03
21:11:59.704,-0.445,-0.045
21:11:59.708,-0.46,-0.06
21:11:59.712,-0.44,-0.04
21:11:59.716,-0.42,-0.02
21:11:59.720,-0.42,-0.025
21:11:59.724,-0.415,-0.045
21:11:59.728,-0.405,-0.035
21:11:59.732,-0.395,-0.035
21:11:59.736,-0.39,-0.05
21:11:59.740,-0.37,-0.065
21:11:59.744,-0.365,-0.055
21:11:59.748,-0.38,-0.05
21:11:59.752,-0.37,-0.08
21:11:59.756,-0.355,-0.095
21:11:59.760,-0.345,-0.08
21:11:59.764,-0.335,-0.11
21:11:59.768,-0.315,-0.11
21:11:59.772,-0.295,-0.115
21:11:59.776,-0.29,-0.135
21:11:59.780,-0.275,-0.13
21:11:59.784,-0.265,-0.12
21:11:59.788,-0.265,-0.115
21:11:59.792,-0.225,-0.14
21:11:59.796,-0.235,-0.105
21:11:59.800,-0.22,-0.15
21:11:59.804,-0.185,-0.13
21:11:59.808,-0.18,-0.135
21:11:59.812,-0.175,-0.11
21:11:59.816,-0.175,-0.12
21:11:59.820,-0.16,-0.125
21:11:59.824,-0.13,-0.09
21:11:59.828,-0.16,-0.11
21:11:59.832,-0.15,-0.1
21:11:59.836,-0.15,-0.105
21:11:59.840,-0.15,-0.11
21:11:59.844,-0.14,-0.1
21:11:59.848,-0.145,-0.095
21:11:59.852,-0.155,-0.115
21:11:59.856,-0.165,-0.09
21:11:59.860,-0.165,-0.09
21:11:59.864,-0.175,-0.08
21:11:59.868,-0.155,-0.085
21:11:59.872,-0.175,-0.08
21:11:59.876,-0.17,-0.085
21:11:59.880,-0.18,-0.07
21:11:59.884,-0.18,-0.09
21:11:59.888,-0.195,-0.08
21:11:59.892,-0.175,-0.085
21:11:59.896,-0.185,-0.07
21:11:59.900,-0.18,-0.06
21:11:59.904,-0.18,-0.065
21:11:59.908,-0.16,-0.08
21:11:59.912,-0.155,-0.05
21:11:59.916,-0.14,-0.06
21:11:59.920,-0.135,-0.075
21:11:59.924,-0.145,-0.075
21:11:59.928,-0.115,-0.065
21:11:59.932,-0.12,-0.06
21:11:59.936,-0.095,-0.045
21:11:59.940,-0.085,-0.045
21:11:59.944,-0.08,-0.045
21:11:59.948,-0.08,-0.065
21:11:59.952,-0.085,-0.04
21:11:59.956,-0.055,-0.055
21:11:59.960,-0.03,-0.04
21:11:59.964,0.0,-0.025
21:11:59.968,0.04,-0.005
21:11:59.972,0.05,-0.005
21:11:59.976,0.085,0.015
21:11:59.980,0.09,-0.005
21:11:59.984,0.13,0.0
21:11:59.988,0.14,-0.01
21:11:59.992,0.135,-0.015
21:11:59.996,0.1,-0.05
21:12:00.000,0.05,-0.065
21:12:00.004,0.01,-0.07
21:12:00.008,-0.04,-0.09
21:12:00.012,-0.08,-0.085
21:12:00.016,-0.135,-0.095
21:12:00.020,-0.175,-0.09
21:12:00.024,-0.195,-0.04
21:12:00.028,-0.22,-0.03
21:12:00.032,-0.25,-0.05
21:12:00.036,-0.245,-0.045
21:12:00.040,-0.245,-0.055
21:12:00.044,-0.24,-0.055
21:12:00.048,-0.225,-0.05
21:12:00.052,-0.23,-0.06
21:12:00.056,-0.23,-0.06
21:12:00.060,-0.215,-0.055
21:12:00.064,-0.215,-0.075
21:12:00.068,-0.23,-0.065
21:12:00.072,-0.24,-0.07
21:12:00.076,-0.245,-0.08
21:12:00.080,-0.26,-0.085
21:12:00.084,-0.23,-0.085
21:12:00.088,-0.24,-0.065
21:12:00.092,-0.23,-0.085
21:12:00.096,-0.225,-0.1
21:12:00.100,-0.25,-0.11
21:12:00.104,-0.22,-0.11
21:12:00.108,-0.245,-0.115
21:12:00.112,-0.24,-0.105
21:12:00.116,-0.24,-0.105
21:12:00.120,-0.23,-0.105
21:12:00.124,-0.235,-0.11
21:12:00.128,-0.215,-0.125
21:12:00.132,-0.225,-0.105
21:12:00.136,-0.2,-0.115
21:12:00.140,-0.18,-0.1
21:12:00.144,-0.13,-0.1
21:12:00.148,-0.05,-0.1
21:12:00.152,0.015,-0.105
21:12:00.156,0.09,-0.125
21:12:00.160,0.18,-0.155
21:12:00.164,0.215,-0.195
21:12:00.168,0.24,-0.23
21:12:00.172,0.245,-0.225
21:12:00.176,0.235,-0.22
21:12:00.180,0.195,-0.26
21:12:00.184,0.23,-0.355
21:12:00.188,0.4,-0.515
21:12:00.192,0.68,-0.715
21:12:00.196,0.96,-0.935
21:12:00.200,1.075,-1.175
21:12:00.204,0.935,-1.265
21:12:00.208,0.53,-1.075
21:12:00.212,0.06,-0.73
21:12:00.216,-0.18,-0.415
21:12:00.220,-0.295,-0.225
21:12:00.224,-0.32,-0.12
21:12:00.228,-0.315,-0.035
21:12:00.232,-0.34,0.005
21:12:00.236,-0.365,0.015
21:12:00.240,-0.36,0.02
21:12:00.244,-0.35,0.0
21:12:00.248,-0.35,0.005
21:12:00.252,-0.345,-0.005
21:12:00.256,-0.35,-0.015
21:12:00.260,-0.355,-0.01
21:12:00.264,-0.36,-0.025
21:12:00.268,-0.35,-0.015
21:12:00.272,-0.365,-0.02
21:12:00.276,-0.35,-0.03
21:12:00.280,-0.385,-0.015
21:12:00.284,-0.36,-0.025
21:12:00.288,-0.365,-0.015
21:12:00.292,-0.395,-0.02
21:12:00.296,-0.4,-0.02
21:12:00.300,-0.395,-0.03
21:12:00.304,-0.395,-0.025
21:12:00.308,-0.415,-0.02
21:12:00.312,-0.415,-0.02
21:12:00.316,-0.415,-0.035
21:12:00.320,-0.395,-0.02
21:12:00.324,-0.44,-0.04
21:12:00.328,-0.42,-0.02
21:12:00.332,-0.46,-0.03
21:12:00.336,-0.475,-0.015
21:12:00.340,-0.475,-0.035
21:12:00.344,-0.455,-0.025
21:12:00.348,-0.475,-0.02
21:12:00.352,-0.465,-0.01
21:12:00.356,-0.44,-0.01
21:12:00.360,-0.45,-0.01
21:12:00.364,-0.455,-0.015
21:12:00.368,-0.46,0.01
21:12:00.372,-0.435,0.0
21:12:00.376,-0.46,0.0
21:12:00.380,-0.455,-0.015
21:12:00.384,-0.445,-0.005
21:12:00.388,-0.455,0.01
21:12:00.392,-0.45,0.0
21:12:00.396,-0.435,-0.015
21:12:00.400,-0.41,-0.015
21:12:00.404,-0.425,-0.015
21:12:00.408,-0.41,-0.02
21:12:00.412,-0.405,-0.04
21:12:00.416,-0.405,-0.05
21:12:00.420,-0.4,-0.045
21:12:00.424,-0.38,-0.06
21:12:00.428,-0.38,-0.075
21:12:00.432,-0.345,-0.085
21:12:00.436,-0.33,-0.085
21:12:00.440,-0.33,-0.1
21:12:00.444,-0.32,-0.115
21:12:00.448,-0.3,-0.11
21:12:00.452,-0.28,-0.12
21:12:00.456,-0.295,-0.1
21:12:00.460,-0.26,-0.11
21:12:00.464,-0.245,-0.125
21:12:00.468,-0.235,-0.115
21:12:00.472,-0.225,-0.13
21:12:00.476,-0.205,-0.11
21:12:00.480,-0.205,-0.12
21:12:00.484,-0.2,-0.115
21:12:00.488,-0.19,-0.11
21:12:00.492,-0.195,-0.115
21:12:00.496,-0.195,-0.09
21:12:00.500,-0.2,-0.1
21:12:00.504,-0.205,-0.075
21:12:00.508,-0.21,-0.09
21:12:00.512,-0.215,-0.085
21:12:00.516,-0.21,-0.1
21:12:00.520,-0.21,-0.08
21:12:00.524,-0.235,-0.07
21:12:00.528,-0.235,-0.075
21:12:00.532,-0.23,-0.075
21:12:00.536,-0.22,-0.09
21:12:00.540,-0.205,-0.08
21:12:00.544,-0.205,-0.07
21:12:00.548,-0.225,-0.065
21:12:00.552,-0.22,-0.09
21:12:00.556,-0.235,-0.085
21:12:00.560,-0.225,-0.08
21:12:00.564,-0.225,-0.07
21:12:00.568,-0.225,-0.075
21:12:00.572,-0.23,-0.08
21:12:00.576,-0.24,-0.07
21:12:00.580,-0.21,-0.07
21:12:00.584,-0.205,-0.08
21:12:00.588,-0.21,-0.09
21:12:00.592,-0.225,-0.09
21:12:00.596,-0.23,-0.07
21:12:00.600,-0.255,-0.06
21:12:00.604,-0.23,-0.055
21:12:00.608,-0.23,-0.065
21:12:00.612,-0.215,-0.055
21:12:00.616,-0.235,-0.08
21:12:00.620,-0.235,-0.055
21:12:00.624,-0.22,-0.08
21:12:00.628,-0.21,-0.085
21:12:00.632,-0.2,-0.065
21:12:00.636,-0.18,-0.06
21:12:00.640,-0.185,-0.065
21:12:00.644,-0.17,-0.06
21:12:00.648,-0.16,-0.065
21:12:00.652,-0.12,-0.035
21:12:00.656,-0.085,-0.03
21:12:00.660,-0.07,-0.015
21:12:00.664,-0.06,0.0
21:12:00.668,-0.03,-0.02
21:12:00.672,0.0,-0.005
21:12:00.676,0.005,0.005
21:12:00.680,0.005,0.0
21:12:00.684,0.0,-0.015
21:12:00.688,-0.03,-0.03
21:12:00.692,-0.05,-0.04
21:12:00.696,-0.11,-0.045
21:12:00.700,-0.16,-0.04
21:12:00.704,-0.23,-0.04
21:12:00.708,-0.27,-0.06
21:12:00.712,-0.33,-0.05
21:12:00.716,-0.35,-0.045
21:12:00.720,-0.355,-0.02
21:12:00.724,-0.37,-0.02
21:12:00.728,-0.38,-0.005
21:12:00.732,-0.36,-0.035
21:12:00.736,-0.37,-0.055
21:12:00.740,-0.39,-0.045
21:12:00.744,-0.385,-0.045
21:12:00.748,-0.38,-0.07
21:12:00.752,-0.38,-0.06
21:12:00.756,-0.36,-0.055
21:12:00.760,-0.355,-0.07
21:12:00.764,-0.365,-0.055
21:12:00.768,-0.35,-0.06
21:12:00.772,-0.37,-0.05
21:12:00.776,-0.37,-0.07
21:12:00.780,-0.395,-0.075
21:12:00.784,-0.36,-0.08
21:12:00.788,-0.355,-0.07
21:12:00.792,-0.365,-0.06
21:12:00.796,-0.35,-0.07
21:12:00.800,-0.34,-0.04
21:12:00.804,-0.33,-0.045
21:12:00.808,-0.32,-0.055
21:12:00.812,-0.31,-0.075
21:12:00.816,-0.3,-0.07
21:12:00.820,-0.3,-0.075
21:12:00.824,-0.32,-0.085
21:12:00.828,-0.29,-0.03
21:12:00.832,-0.255,-0.07
21:12:00.836,-0.14,-0.065
21:12:00.840,-0.085,-0.08
21:12:00.844,0.0,-0.09
21:12:00.848,0.08,-0.13
21:12:00.852,0.12,-0.155
21:12:00.856,0.135,-0.19
21:12:00.860,0.16,-0.175
21:12:00.864,0.17,-0.185
21:12:00.868,0.135,-0.23
21:12:00.872,0.155,-0.345
21:12:00.876,0.31,-0.445
21:12:00.880,0.595,-0.64
21:12:00.884,0.91,-0.88
21:12:00.888,1.03,-1.085
21:12:00.892,0.86,-1.16
21:12:00.896,0.455,-1.02
21:12:00.900,0.005,-0.68
21:12:00.904,-0.24,-0.35
21:12:00.908,-0.32,-0.175
21:12:00.912,-0.365,-0.055
21:12:00.916,-0.37,0.03
21:12:00.920,-0.385,0.055
21:12:00.924,-0.41,0.08
21:12:00.928,-0.435,0.07
21:12:00.932,-0.46,0.045
21:12:00.936,-0.45,0.05
21:12:00.940,-0.465,0.035
21:12:00.944,-0.46,0.015
21:12:00.948,-0.465,0.02
21:12:00.952,-0.46,0.0
21:12:00.956,-0.48,0.01
21:12:00.960,-0.5,0.015
21:12:00.964,-0.515,0.005
21:12:00.968,-0.505,0.0
21:12:00.972,-0.51,0.015
21:12:00.976,-0.515,0.005
21:12:00.980,-0.52,0.0
21:12:00.984,-0.53,0.0
21:12:00.988,-0.515,0.0
21:12:00.992,-0.52,-0.01
21:12:00.996,-0.53,-0.015
21:12:01.000,-0.545,0.0
21:12:01.004,-0.53,0.005
21:12:01.008,-0.545,-0.005
21:12:01.012,-0.54,-0.015
21:12:01.016,-0.565,-0.01
21:12:01.020,-0.57,-0.02
21:12:01.024,-0.57,0.0
21:12:01.028,-0.56,0.0
21:12:01.032,-0.56,0.0
21:12:01.036,-0.56,0.0
21:12:01.040,-0.575,-0.005
21:12:01.044,-0.56,0.0
21:12:01.048,-0.565,-0.01
21:12:01.052,-0.55,0.0
21:12:01.056,-0.565,0.01
21:12:01.060,-0.565,0.0
21:12:01.064,-0.56,0.0
21:12:01.068,-0.55,0.015
21:12:01.072,-0.55,0.005
21:12:01.076,-0.56,-0.01
21:12:01.080,-0.57,0.0
21:12:01.084,-0.54,-0.015
21:12:01.088,-0.555,-0.025
21:12:01.092,-0.515,-0.035
21:12:01.096,-0.52,-0.035
21:12:01.100,-0.505,-0.04
21:12:01.104,-0.5,-0.04
21:12:01.108,-0.485,-0.04
21:12:01.112,-0.475,-0.08
21:12:01.116,-0.46,-0.075
21:12:01.120,-0.44,-0.06
21:12:01.124,-0.445,-0.07
21:12:01.128,-0.41,-0.095
21:12:01.132,-0.38,-0.08
21:12:01.136,-0.35,-0.085
21:12:01.140,-0.32,-0.115
21:12:01.144,-0.31,-0.09
21:12:01.148,-0.31,-0.115
21:12:01.152,-0.315,-0.095
21:12:01.156,-0.3,-0.1
21:12:01.160,-0.28,-0.12
21:12:01.164,-0.29,-0.1
21:12:01.168,-0.27,-0.115
21:12:01.172,-0.28,-0.095
21:12:01.176,-0.275,-0.095
21:12:01.180,-0.27,-0.095
21:12:01.184,-0.275,-0.095
21:12:01.188,-0.28,-0.125
21:12:01.192,-0.27,-0.12
21:12:01.196,-0.27,-0.1
21:12:01.200,-0.255,-0.095
21:12:01.204,-0.275,-0.095
21:12:01.208,-0.28,-0.1
21:12:01.212,-0.25,-0.09
21:12:01.216,-0.255,-0.11
21:12:01.220,-0.255,-0.09
21:12:01.224,-0.27,-0.11
21:12:01.228,-0.255,-0.11
21:12:01.232,-0.26,-0.1
21:12:01.236,-0.26,-0.095
21:12:01.240,-0.24,-0.11
21:12:01.244,-0.255,-0.125
21:12:01.248,-0.255,-0.1
21:12:01.252,-0.275,-0.11
21:12:01.256,-0.255,-0.085
21:12:01.260,-0.25,-0.09
21:12:01.264,-0.24,-0.105
21:12:01.268,-0.245,-0.1
21:12:01.272,-0.245,-0.11
21:12:01.276,-0.24,-0.115
21:12:01.280,-0.265,-0.135
21:12:01.284,-0.27,-0.125
21:12:01.288,-0.275,-0.125
21:12:01.292,-0.285,-0.12
21:12:01.296,-0.29,-0.145
21:12:01.300,-0.27,-0.14
21:12:01.304,-0.28,-0.135
21:12:01.308,-0.265,-0.14
21:12:01.312,-0.235,-0.15
21:12:01.316,-0.245,-0.145
21:12:01.320,-0.235,-0.15
21:12:01.324,-0.205,-0.16
21:12:01.328,-0.215,-0.17
21:12:01.332,-0.2,-0.16
21:12:01.336,-0.185,-0.15
21:12:01.340,-0.15,-0.14
21:12:01.344,-0.095,-0.135
21:12:01.348,-0.065,-0.1
21:12:01.352,-0.035,-0.095
21:12:01.356,0.01,-0.085
21:12:01.360,0.035,-0.105
21:12:01.364,0.045,-0.105
21:12:01.368,0.09,-0.08
21:12:01.372,0.08,-0.065
21:12:01.376,0.075,-0.085
21:12:01.380,0.02,-0.12
21:12:01.384,-0.045,-0.16
21:12:01.388,-0.11,-0.175
21:12:01.392,-0.16,-0.16
21:12:01.396,-0.25,-0.15
21:12:01.400,-0.305,-0.17
21:12:01.404,-0.345,-0.165
21:12:01.408,-0.37,-0.16
21:12:01.412,-0.37,-0.185
21:12:01.416,-0.39,-0.185
21:12:01.420,-0.355,-0.16
21:12:01.424,-0.36,-0.185
21:12:01.428,-0.375,-0.2
21:12:01.432,-0.365,-0.195
21:12:01.436,-0.37,-0.2
21:12:01.440,-0.375,-0.215
21:12:01.444,-0.365,-0.215
21:12:01.448,-0.345,-0.21
21:12:01.452,-0.34,-0.215
21:12:01.456,-0.335,-0.205
21:12:01.460,-0.33,-0.205
21:12:01.464,-0.335,-0.22
21:12:01.468,-0.32,-0.22
21:12:01.472,-0.305,-0.22
21:12:01.476,-0.305,-0.225
21:12:01.480,-0.295,-0.21
21:12:01.484,-0.31,-0.22
21:12:01.488,-0.32,-0.235
21:12:01.492,-0.305,-0.23
21:12:01.496,-0.295,-0.24
21:12:01.500,-0.295,-0.245
21:12:01.504,-0.3,-0.225
21:12:01.508,-0.315,-0.225
21:12:01.512,-0.315,-0.25
21:12:01.516,-0.32,-0.235
21:12:01.520,-0.275,-0.245
21:12:01.524,-0.23,-0.25
21:12:01.528,-0.155,-0.24
21:12:01.532,-0.055,-0.26
21:12:01.536,0.05,-0.28
21:12:01.540,0.145,-0.305
21:12:01.544,0.195,-0.345
21:12:01.548,0.24,-0.36
21:12:01.552,0.28,-0.37
21:12:01.556,0.27,-0.345
21:12:01.560,0.235,-0.385
21:12:01.564,0.275,-0.445
21:12:01.568,0.46,-0.58
21:12:01.572,0.755,-0.785
21:12:01.576,1.01,-1.025
21:12:01.580,1.08,-1.2
21:12:01.584,0.85,-1.23
21:12:01.588,0.405,-1.025
21:12:01.592,-0.02,-0.695
21:12:01.596,-0.245,-0.475
21:12:01.600,-0.345,-0.34
21:12:01.604,-0.4,-0.245
21:12:01.608,-0.405,-0.15
21:12:01.612,-0.39,-0.1
21:12:01.616,-0.44,-0.1
21:12:01.620,-0.455,-0.1
21:12:01.624,-0.49,-0.135
21:12:01.628,-0.505,-0.14
21:12:01.632,-0.485,-0.16
21:12:01.636,-0.505,-0.175
21:12:01.640,-0.52,-0.18
21:12:01.644,-0.5,-0.18
21:12:01.648,-0.515,-0.19
21:12:01.652,-0.525,-0.195
21:12:01.656,-0.53,-0.19
21:12:01.660,-0.52,-0.18
21:12:01.664,-0.515,-0.205
21:12:01.668,-0.515,-0.21
21:12:01.672,-0.535,-0.21
21:12:01.676,-0.53,-0.2
21:12:01.680,-0.54,-0.19
21:12:01.684,-0.54,-0.21
21:12:01.688,-0.53,-0.195
21:12:01.692,-0.535,-0.18
21:12:01.696,-0.545,-0.21
21:12:01.700,-0.53,-0.205
21:12:01.704,-0.555,-0.2
21:12:01.708,-0.565,-0.185
21:12:01.712,-0.56,-0.195
21:12:01.716,-0.565,-0.18
21:12:01.720,-0.58,-0.19
21:12:01.724,-0.57,-0.175
21:12:01.728,-0.575,-0.16
21:12:01.732,-0.59,-0.17
21:12:01.736,-0.59,-0.19
21:12:01.740,-0.615,-0.18
21:12:01.744,-0.61,-0.165
21:12:01.748,-0.59,-0.16
21:12:01.752,-0.59,-0.18
21:12:01.756,-0.575,-0.175
21:12:01.760,-0.585,-0.175
21:12:01.764,-0.565,-0.17
21:12:01.768,-0.565,-0.175
21:12:01.772,-0.56,-0.19
21:12:01.776,-0.55,-0.18
21:12:01.780,-0.555,-0.185
21:12:01.784,-0.555,-0.21
21:12:01.788,-0.53,-0.175
21:12:01.792,-0.495,-0.185
21:12:01.796,-0.48,-0.2
21:12:01.800,-0.455,-0.2
21:12:01.804,-0.45,-0.205
21:12:01.808,-0.425,-0.205
21:12:01.812,-0.435,-0.18
21:12:01.816,-0.41,-0.165
21:12:01.820,-0.405,-0.2
21:12:01.824,-0.39,-0.22
21:12:01.828,-0.36,-0.23
21:12:01.832,-0.345,-0.22
21:12:01.836,-0.35,-0.25
21:12:01.840,-0.33,-0.235
21:12:01.844,-0.32,-0.23
21:12:01.848,-0.305,-0.245
21:12:01.852,-0.305,-0.245
21:12:01.856,-0.31,-0.235
21:12:01.860,-0.3,-0.225
21:12:01.864,-0.295,-0.255
21:12:01.868,-0.29,-0.26
21:12:01.872,-0.29,-0.235
21:12:01.876,-0.27,-0.245
21:12:01.880,-0.28,-0.255
21:12:01.884,-0.285,-0.235
21:12:01.888,-0.285,-0.235
21:12:01.892,-0.285,-0.235
21:12:01.896,-0.265,-0.245
21:12:01.900,-0.275,-0.25
21:12:01.904,-0.26,-0.235
21:12:01.908,-0.235,-0.24
21:12:01.912,-0.25,-0.225
21:12:01.916,-0.25,-0.23
21:12:01.920,-0.255,-0.225
21:12:01.924,-0.265,-0.23
21:12:01.928,-0.245,-0.205
21:12:01.932,-0.255,-0.22
21:12:01.936,-0.27,-0.225
21:12:01.940,-0.26,-0.205
21:12:01.944,-0.265,-0.21
21:12:01.948,-0.26,-0.215
21:12:01.952,-0.255,-0.21
21:12:01.956,-0.275,-0.23
21:12:01.960,-0.28,-0.245
21:12:01.964,-0.265,-0.235
21:12:01.968,-0.275,-0.24
21:12:01.972,-0.27,-0.22
21:12:01.976,-0.295,-0.225
21:12:01.980,-0.285,-0.24
21:12:01.984,-0.275,-0.25
21:12:01.988,-0.27,-0.245
21:12:01.992,-0.28,-0.23
21:12:01.996,-0.265,-0.235
21:12:02.000,-0.235,-0.215
21:12:02.004,-0.245,-0.23
21:12:02.008,-0.22,-0.23
21:12:02.012,-0.195,-0.23
21:12:02.016,-0.175,-0.235
21:12:02.020,-0.185,-0.2
21:12:02.024,-0.155,-0.215
21:12:02.028,-0.15,-0.18
21:12:02.032,-0.105,-0.18
21:12:02.036,-0.085,-0.165
21:12:02.040,-0.06,-0.15
21:12:02.044,-0.035,-0.14
21:12:02.048,0.005,-0.12
21:12:02.052,0.015,-0.145
21:12:02.056,0.035,-0.145
21:12:02.060,0.045,-0.135
21:12:02.064,0.035,-0.14
21:12:02.068,-0.02,-0.18
21:12:02.072,-0.06,-0.2
21:12:02.076,-0.105,-0.22
21:12:02.080,-0.18,-0.22
21:12:02.084,-0.22,-0.21
21:12:02.088,-0.285,-0.195
21:12:02.092,-0.32,-0.22
21:12:02.096,-0.34,-0.2
21:12:02.100,-0.365,-0.215
21:12:02.104,-0.38,-0.18
21:12:02.108,-0.385,-0.17
21:12:02.112,-0.355,-0.17
21:12:02.116,-0.355,-0.185
21:12:02.120,-0.34,-0.205
21:12:02.124,-0.335,-0.21
21:12:02.128,-0.305,-0.205
21:12:02.132,-0.31,-0.21
21:12:02.136,-0.31,-0.22
21:12:02.140,-0.315,-0.225
21:12:02.144,-0.305,-0.205
21:12:02.148,-0.3,-0.18
21:12:02.152,-0.32,-0.195
21:12:02.156,-0.325,-0.195
21:12:02.160,-0.305,-0.195
21:12:02.164,-0.3,-0.215
21:12:02.168,-0.27,-0.19
21:12:02.172,-0.3,-0.205
21:12:02.176,-0.29,-0.215
21:12:02.180,-0.305,-0.2
21:12:02.184,-0.305,-0.185
21:12:02.188,-0.315,-0.18
21:12:02.192,-0.295,-0.205
21:12:02.196,-0.32,-0.21
21:12:02.200,-0.285,-0.205
21:12:02.204,-0.275,-0.24
21:12:02.208,-0.25,-0.23
21:12:02.212,-0.195,-0.22
21:12:02.216,-0.135,-0.22
21:12:02.220,-0.045,-0.22
21:12:02.224,0.06,-0.26
21:12:02.228,0.095,-0.26
21:12:02.232,0.13,-0.315
21:12:02.236,0.19,-0.315
21:12:02.240,0.21,-0.35
21:12:02.244,0.2,-0.345
21:12:02.248,0.175,-0.41
21:12:02.252,0.23,-0.54
21:12:02.256,0.46,-0.67
21:12:02.260,0.75,-0.9
21:12:02.264,1.02,-1.135
21:12:02.268,1.06,-1.32
21:12:02.272,0.79,-1.325
21:12:02.276,0.315,-1.065
21:12:02.280,-0.09,-0.7
21:12:02.284,-0.305,-0.43
21:12:02.288,-0.4,-0.265
21:12:02.292,-0.41,-0.155
21:12:02.296,-0.4,-0.13
21:12:02.300,-0.425,-0.08
21:12:02.304,-0.42,-0.06
21:12:02.308,-0.435,-0.05
21:12:02.312,-0.465,-0.07
21:12:02.316,-0.44,-0.09
21:12:02.320,-0.455,-0.105
21:12:02.324,-0.465,-0.115
21:12:02.328,-0.465,-0.085
21:12:02.332,-0.47,-0.085
21:12:02.336,-0.475,-0.12
21:12:02.340,-0.475,-0.085
21:12:02.344,-0.45,-0.115
21:12:02.348,-0.47,-0.09
21:12:02.352,-0.46,-0.105
21:12:02.356,-0.465,-0.095
21:12:02.360,-0.455,-0.1
21:12:02.364,-0.45,-0.105
21:12:02.368,-0.455,-0.095
21:12:02.372,-0.455,-0.07
21:12:02.376,-0.46,-0.08
21:12:02.380,-0.475,-0.085
21:12:02.384,-0.48,-0.105
21:12:02.388,-0.49,-0.08
21:12:02.392,-0.49,-0.08
21:12:02.396,-0.51,-0.08
21:12:02.400,-0.52,-0.07
21:12:02.404,-0.52,-0.09
21:12:02.408,-0.54,-0.09
21:12:02.412,-0.57,-0.09
21:12:02.416,-0.57,-0.08
21:12:02.420,-0.55,-0.09
21:12:02.424,-0.565,-0.115
21:12:02.428,-0.585,-0.12
21:12:02.432,-0.6,-0.105
21:12:02.436,-0.57,-0.1
21:12:02.440,-0.56,-0.1
21:12:02.444,-0.575,-0.105
21:12:02.448,-0.58,-0.12
21:12:02.452,-0.575,-0.105
21:12:02.456,-0.565,-0.105
21:12:02.460,-0.53,-0.105
21:12:02.464,-0.525,-0.085
21:12:02.468,-0.52,-0.105
21:12:02.472,-0.505,-0.11
21:12:02.476,-0.49,-0.11
21:12:02.480,-0.48,-0.115
21:12:02.484,-0.465,-0.13
21:12:02.488,-0.46,-0.12
21:12:02.492,-0.435,-0.15
21:12:02.496,-0.42,-0.12
21:12:02.500,-0.425,-0.15
21:12:02.504,-0.4,-0.16
21:12:02.508,-0.39,-0.165
21:12:02.512,-0.39,-0.17
21:12:02.516,-0.385,-0.175
21:12:02.520,-0.365,-0.185
21:12:02.524,-0.345,-0.2
21:12:02.528,-0.35,-0.19
21:12:02.532,-0.35,-0.21
21:12:02.536,-0.325,-0.235
21:12:02.540,-0.33,-0.22
21:12:02.544,-0.33,-0.22
21:12:02.548,-0.315,-0.2
21:12:02.552,-0.29,-0.18
21:12:02.556,-0.305,-0.21
21:12:02.560,-0.33,-0.2
21:12:02.564,-0.31,-0.185
21:12:02.568,-0.3,-0.2
21:12:02.572,-0.27,-0.2
21:12:02.576,-0.26,-0.16
21:12:02.580,-0.29,-0.17
21:12:02.584,-0.235,-0.18
21:12:02.588,-0.27,-0.17
21:12:02.592,-0.255,-0.155
21:12:02.596,-0.27,-0.14
21:12:02.600,-0.28,-0.17
21:12:02.604,-0.265,-0.15
21:12:02.608,-0.275,-0.14
21:12:02.612,-0.28,-0.13
21:12:02.616,-0.27,-0.14
21:12:02.620,-0.295,-0.13
21:12:02.624,-0.295,-0.145
21:12:02.628,-0.3,-0.13
21:12:02.632,-0.31,-0.155
21:12:02.636,-0.335,-0.12
21:12:02.640,-0.32,-0.155
21:12:02.644,-0.3,-0.15
21:12:02.648,-0.295,-0.14
21:12:02.652,-0.31,-0.135
21:12:02.656,-0.305,-0.135
21:12:02.660,-0.315,-0.135
21:12:02.664,-0.3,-0.13
21:12:02.668,-0.305,-0.15
21:12:02.672,-0.29,-0.15
21:12:02.676,-0.25,-0.15
21:12:02.680,-0.26,-0.12
21:12:02.684,-0.22,-0.12
21:12:02.688,-0.22,-0.13
21:12:02.692,-0.19,-0.115
21:12:02.696,-0.16,-0.12
21:12:02.700,-0.085,-0.12
21:12:02.704,-0.08,-0.075
21:12:02.708,-0.065,-0.075
21:12:02.712,-0.045,-0.07
21:12:02.716,-0.035,-0.07
21:12:02.720,-0.005,-0.07
21:12:02.724,-0.015,-0.07
21:12:02.728,-0.02,-0.11
21:12:02.732,-0.065,-0.115
21:12:02.736,-0.105,-0.13
21:12:02.740,-0.15,-0.15
21:12:02.744,-0.21,-0.16
21:12:02.748,-0.28,-0.165
21:12:02.752,-0.32,-0.17
21:12:02.756,-0.365,-0.17
21:12:02.760,-0.4,-0.13
21:12:02.764,-0.415,-0.135
21:12:02.768,-0.41,-0.13
21:12:02.772,-0.415,-0.12
21:12:02.776,-0.425,-0.13
21:12:02.780,-0.41,-0.165
21:12:02.784,-0.41,-0.155
21:12:02.788,-0.4,-0.135
21:12:02.792,-0.375,-0.165
21:12:02.796,-0.38,-0.16
21:12:02.800,-0.385,-0.145
21:12:02.804,-0.36,-0.135
21:12:02.808,-0.36,-0.15
21:12:02.812,-0.355,-0.16
21:12:02.816,-0.36,-0.16
21:12:02.820,-0.36,-0.16
21:12:02.824,-0.365,-0.14
21:12:02.828,-0.36,-0.14
21:12:02.832,-0.345,-0.15
21:12:02.836,-0.38,-0.16
21:12:02.840,-0.38,-0.16
21:12:02.844,-0.365,-0.15
21:12:02.848,-0.4,-0.155
21:12:02.852,-0.37,-0.145
21:12:02.856,-0.36,-0.17
21:12:02.860,-0.37,-0.155
21:12:02.864,-0.355,-0.16
21:12:02.868,-0.345,-0.175
21:12:02.872,-0.3,-0.165
21:12:02.876,-0.27,-0.145
21:12:02.880,-0.235,-0.17
21:12:02.884,-0.145,-0.18
21:12:02.888,-0.065,-0.2
21:12:02.892,0.005,-0.205
21:12:02.896,0.05,-0.245
21:12:02.900,0.11,-0.285
21:12:02.904,0.125,-0.28
