Time,ECG1,ECG2
21:19:01.968,-0.24,-0.085
21:19:01.972,-0.23,-0.105
21:19:01.976,-0.245,-0.1
21:19:01.980,-0.25,-0.095
21:19:01.984,-0.245,-0.105
21:19:01.988,-0.24,-0.1
21:19:01.992,-0.255,-0.11
21:19:01.996,-0.26,-0.12
21:19:02.000,-0.27,-0.11
21:19:02.004,-0.27,-0.12
21:19:02.008,-0.29,-0.105
21:19:02.012,-0.28,-0.13
21:19:02.016,-0.265,-0.11
21:19:02.020,-0.26,-0.1
21:19:02.024,-0.275,-0.105
21:19:02.028,-0.26,-0.1
21:19:02.032,-0.27,-0.12
21:19:02.036,-0.275,-0.1
21:19:02.040,-0.26,-0.12
21:19:02.044,-0.27,-0.105
21:19:02.048,-0.24,-0.1
21:19:02.052,-0.27,-0.08
21:19:02.056,-0.26,-0.08
21:19:02.060,-0.26,-0.095
21:19:02.064,-0.265,-0.1
21:19:02.068,-0.26,-0.095
21:19:02.072,-0.275,-0.09
21:19:02.076,-0.275,-0.1
21:19:02.080,-0.28,-0.07
21:19:02.084,-0.28,-0.08
21:19:02.088,-0.29,-0.08
21:19:02.092,-0.32,-0.095
21:19:02.096,-0.29,-0.095
21:19:02.100,-0.28,-0.09
21:19:02.104,-0.27,-0.08
21:19:02.108,-0.26,-0.11
21:19:02.112,-0.235,-0.095
21:19:02.116,-0.22,-0.11
21:19:02.120,-0.23,-0.105
21:19:02.124,-0.22,-0.1
21:19:02.128,-0.22,-0.08
21:19:02.132,-0.18,-0.075
21:19:02.136,-0.145,-0.04
21:19:02.140,-0.12,-0.04
21:19:02.144,-0.095,-0.035
21:19:02.148,-0.05,-0.005
21:19:02.152,-0.03,-0.03
21:19:02.156,-0.01,-0.035
21:19:02.160,-0.02,-0.02
21:19:02.164,-0.015,-0.02
21:19:02.168,-0.045,-0.05
21:19:02.172,-0.1,-0.09
21:19:02.176,-0.155,-0.11
21:19:02.180,-0.225,-0.12
21:19:02.184,-0.255,-0.12
21:19:02.188,-0.28,-0.115
21:19:02.192,-0.31,-0.14
21:19:02.196,-0.36,-0.1
21:19:02.200,-0.34,-0.075
21:19:02.204,-0.35,-0.08
21:19:02.208,-0.345,-0.085
21:19:02.212,-0.35,-0.095
21:19:02.216,-0.33,-0.095
21:19:02.220,-0.33,-0.105
21:19:02.224,-0.315,-0.11
21:19:02.228,-0.31,-0.125
21:19:02.232,-0.32,-0.15
21:19:02.236,-0.325,-0.135
21:19:02.240,-0.31,-0.13
21:19:02.244,-0.305,-0.11
21:19:02.248,-0.315,-0.115
21:19:02.252,-0.29,-0.12
21:19:02.256,-0.29,-0.1
21:19:02.260,-0.28,-0.115
21:19:02.264,-0.29,-0.13
21:19:02.268,-0.275,-0.14
21:19:02.272,-0.27,-0.13
21:19:02.276,-0.295,-0.12
21:19:02.280,-0.265,-0.13
21:19:02.284,-0.27,-0.125
21:19:02.288,-0.265,-0.115
21:19:02.292,-0.255,-0.13
21:19:02.296,-0.25,-0.135
21:19:02.300,-0.245,-0.12
21:19:02.304,-0.24,-0.11
21:19:02.308,-0.22,-0.11
21:19:02.312,-0.155,-0.12
21:19:02.316,-0.08,-0.12
21:19:02.320,0.0,-0.145
21:19:02.324,0.075,-0.14
21:19:02.328,0.14,-0.18
21:19:02.332,0.165,-0.24
21:19:02.336,0.175,-0.265
21:19:02.340,0.195,-0.27
21:19:02.344,0.16,-0.3
21:19:02.348,0.14,-0.4
21:19:02.352,0.28,-0.52
21:19:02.356,0.565,-0.69
21:19:02.360,0.91,-0.905
21:19:02.364,1.135,-1.165
21:19:02.368,1.18,-1.3
21:19:02.372,0.91,-1.24
21:19:02.376,0.445,-0.905
21:19:02.380,0.03,-0.52
21:19:02.384,-0.2,-0.285
21:19:02.388,-0.29,-0.13
21:19:02.392,-0.345,-0.04
21:19:02.396,-0.355,0.02
21:19:02.400,-0.355,0.02
21:19:02.404,-0.37,0.025
21:19:02.408,-0.38,0.02
21:19:02.412,-0.395,0.005
21:19:02.416,-0.41,0.005
21:19:02.420,-0.425,0.0
21:19:02.424,-0.425,-0.005
21:19:02.428,-0.415,-0.03
21:19:02.432,-0.395,-0.03
21:19:02.436,-0.4,-0.045
21:19:02.440,-0.42,-0.04
21:19:02.444,-0.4,-0.05
21:19:02.448,-0.41,-0.04
21:19:02.452,-0.43,-0.055
21:19:02.456,-0.435,-0.06
21:19:02.460,-0.43,-0.06
21:19:02.464,-0.435,-0.045
21:19:02.468,-0.43,-0.035
21:19:02.472,-0.44,-0.03
21:19:02.476,-0.445,-0.045
21:19:02.480,-0.425,-0.06
21:19:02.484,-0.445,-0.025
21:19:02.488,-0.425,-0.05
21:19:02.492,-0.44,-0.04
21:19:02.496,-0.445,-0.06
21:19:02.500,-0.435,-0.02
21:19:02.504,-0.435,-0.035
21:19:02.508,-0.44,-0.025
21:19:02.512,-0.445,-0.025
21:19:02.516,-0.45,-0.03
21:19:02.520,-0.45,-0.045
21:19:02.524,-0.45,-0.035
21:19:02.528,-0.43,-0.035
21:19:02.532,-0.45,-0.025
21:19:02.536,-0.45,-0.04
21:19:02.540,-0.46,-0.04
21:19:02.544,-0.435,-0.055
21:19:02.548,-0.45,-0.045
21:19:02.552,-0.445,-0.05
21:19:02.556,-0.425,-0.045
21:19:02.560,-0.415,-0.04
21:19:02.564,-0.415,-0.055
21:19:02.568,-0.39,-0.05
21:19:02.572,-0.4,-0.08
21:19:02.576,-0.38,-0.07
21:19:02.580,-0.365,-0.065
21:19:02.584,-0.38,-0.085
21:19:02.588,-0.35,-0.085
21:19:02.592,-0.335,-0.1
21:19:02.596,-0.31,-0.08
21:19:02.600,-0.31,-0.07
21:19:02.604,-0.3,-0.12
21:19:02.608,-0.295,-0.11
21:19:02.612,-0.28,-0.105
21:19:02.616,-0.275,-0.085
21:19:02.620,-0.255,-0.09
21:19:02.624,-0.255,-0.11
21:19:02.628,-0.23,-0.135
21:19:02.632,-0.23,-0.12
21:19:02.636,-0.24,-0.12
21:19:02.640,-0.225,-0.115
21:19:02.644,-0.24,-0.125
21:19:02.648,-0.21,-0.1
21:19:02.652,-0.215,-0.115
21:19:02.656,-0.225,-0.1
21:19:02.660,-0.21,-0.12
21:19:02.664,-0.225,-0.11
21:19:02.668,-0.205,-0.115
21:19:02.672,-0.22,-0.135
21:19:02.676,-0.19,-0.08
21:19:02.680,-0.2,-0.105
21:19:02.684,-0.21,-0.095
21:19:02.688,-0.22,-0.08
21:19:02.692,-0.195,-0.08
21:19:02.696,-0.22,-0.07
21:19:02.700,-0.22,-0.085
21:19:02.704,-0.2,-0.08
21:19:02.708,-0.19,-0.105
21:19:02.712,-0.2,-0.075
21:19:02.716,-0.21,-0.105
21:19:02.720,-0.2,-0.075
21:19:02.724,-0.2,-0.08
21:19:02.728,-0.185,-0.08
21:19:02.732,-0.22,-0.07
21:19:02.736,-0.21,-0.08
21:19:02.740,-0.195,-0.085
21:19:02.744,-0.21,-0.105
21:19:02.748,-0.225,-0.085
21:19:02.752,-0.225,-0.085
21:19:02.756,-0.205,-0.12
21:19:02.760,-0.2,-0.11
21:19:02.764,-0.185,-0.09
21:19:02.768,-0.19,-0.095
21:19:02.772,-0.175,-0.1
21:19:02.776,-0.165,-0.11
21:19:02.780,-0.155,-0.095
21:19:02.784,-0.115,-0.08
21:19:02.788,-0.05,-0.08
21:19:02.792,-0.05,-0.08
21:19:02.796,-0.025,-0.05
21:19:02.800,-0.01,-0.075
21:19:02.804,0.0,-0.065
21:19:02.808,0.045,-0.07
21:19:02.812,0.06,-0.055
21:19:02.816,0.06,-0.07
21:19:02.820,0.06,-0.105
21:19:02.824,0.0,-0.12
21:19:02.828,-0.055,-0.14
21:19:02.832,-0.11,-0.13
21:19:02.836,-0.15,-0.135
21:19:02.840,-0.21,-0.135
21:19:02.844,-0.265,-0.115
21:19:02.848,-0.295,-0.12
21:19:02.852,-0.315,-0.115
21:19:02.856,-0.34,-0.1
21:19:02.860,-0.355,-0.11
21:19:02.864,-0.37,-0.115
21:19:02.868,-0.38,-0.12
21:19:02.872,-0.355,-0.135
21:19:02.876,-0.345,-0.15
21:19:02.880,-0.35,-0.155
21:19:02.884,-0.345,-0.155
21:19:02.888,-0.345,-0.155
21:19:02.892,-0.345,-0.145
21:19:02.896,-0.35,-0.17
21:19:02.900,-0.35,-0.16
21:19:02.904,-0.33,-0.155
21:19:02.908,-0.335,-0.15
21:19:02.912,-0.335,-0.155
21:19:02.916,-0.32,-0.13
21:19:02.920,-0.325,-0.15
21:19:02.924,-0.32,-0.155
21:19:02.928,-0.315,-0.175
21:19:02.932,-0.305,-0.165
21:19:02.936,-0.3,-0.14
21:19:02.940,-0.305,-0.145
21:19:02.944,-0.305,-0.14
21:19:02.948,-0.295,-0.155
21:19:02.952,-0.295,-0.145
21:19:02.956,-0.3,-0.15
21:19:02.960,-0.265,-0.145
21:19:02.964,-0.25,-0.17
21:19:02.968,-0.215,-0.18
21:19:02.972,-0.155,-0.135
21:19:02.976,-0.09,-0.16
21:19:02.980,-0.01,-0.19
21:19:02.984,0.05,-0.205
21:19:02.988,0.08,-0.24
21:19:02.992,0.12,-0.285
21:19:02.996,0.15,-0.28
21:19:03.000,0.155,-0.29
21:19:03.004,0.125,-0.36
21:19:03.008,0.17,-0.475
21:19:03.012,0.36,-0.57
21:19:03.016,0.635,-0.8
21:19:03.020,0.96,-1.02
21:19:03.024,1.1,-1.235
21:19:03.028,0.95,-1.32
21:19:03.032,0.54,-1.17
21:19:03.036,0.075,-0.795
21:19:03.040,-0.24,-0.42
21:19:03.044,-0.32,-0.245
21:19:03.048,-0.35,-0.135
21:19:03.052,-0.355,-0.07
21:19:03.056,-0.375,-0.02
21:19:03.060,-0.405,0.005
21:19:03.064,-0.39,0.005
21:19:03.068,-0.4,0.01
21:19:03.072,-0.435,-0.01
21:19:03.076,-0.425,-0.025
21:19:03.080,-0.42,-0.04
21:19:03.084,-0.425,-0.025
21:19:03.088,-0.435,-0.045
21:19:03.092,-0.44,-0.055
21:19:03.096,-0.46,-0.045
21:19:03.100,-0.45,-0.045
21:19:03.104,-0.46,-0.05
21:19:03.108,-0.46,-0.045
21:19:03.112,-0.445,-0.05
21:19:03.116,-0.455,-0.045
21:19:03.120,-0.435,-0.065
21:19:03.124,-0.445,-0.08
21:19:03.128,-0.45,-0.07
21:19:03.132,-0.44,-0.065
21:19:03.136,-0.455,-0.075
21:19:03.140,-0.44,-0.1
21:19:03.144,-0.465,-0.085
21:19:03.148,-0.47,-0.08
21:19:03.152,-0.465,-0.065
21:19:03.156,-0.47,-0.06
21:19:03.160,-0.46,-0.05
21:19:03.164,-0.44,-0.045
21:19:03.168,-0.465,-0.05
21:19:03.172,-0.465,-0.02
21:19:03.176,-0.47,-0.04
21:19:03.180,-0.47,-0.025
21:19:03.184,-0.46,-0.045
21:19:03.188,-0.48,-0.035
21:19:03.192,-0.48,-0.02
21:19:03.196,-0.46,-0.03
21:19:03.200,-0.47,-0.035
21:19:03.204,-0.48,-0.035
21:19:03.208,-0.46,-0.05
21:19:03.212,-0.465,-0.05
21:19:03.216,-0.44,-0.03
21:19:03.220,-0.44,-0.03
21:19:03.224,-0.415,-0.035
21:19:03.228,-0.42,-0.06
21:19:03.232,-0.4,-0.07
21:19:03.236,-0.395,-0.085
21:19:03.240,-0.38,-0.075
21:19:03.244,-0.35,-0.08
21:19:03.248,-0.375,-0.09
21:19:03.252,-0.345,-0.105
21:19:03.256,-0.32,-0.12
21:19:03.260,-0.305,-0.08
21:19:03.264,-0.29,-0.105
21:19:03.268,-0.285,-0.105
21:19:03.272,-0.29,-0.075
21:19:03.276,-0.26,-0.085
21:19:03.280,-0.24,-0.08
21:19:03.284,-0.22,-0.09
21:19:03.288,-0.225,-0.085
21:19:03.292,-0.215,-0.08
21:19:03.296,-0.22,-0.085
21:19:03.300,-0.22,-0.095
21:19:03.304,-0.225,-0.085
21:19:03.308,-0.24,-0.08
21:19:03.312,-0.25,-0.065
21:19:03.316,-0.23,-0.085
21:19:03.320,-0.225,-0.09
21:19:03.324,-0.23,-0.075
21:19:03.328,-0.23,-0.085
21:19:03.332,-0.245,-0.095
21:19:03.336,-0.235,-0.105
21:19:03.340,-0.23,-0.09
21:19:03.344,-0.225,-0.07
21:19:03.348,-0.235,-0.09
21:19:03.352,-0.225,-0.07
21:19:03.356,-0.24,-0.055
21:19:03.360,-0.23,-0.08
21:19:03.364,-0.23,-0.08
21:19:03.368,-0.24,-0.06
21:19:03.372,-0.245,-0.07
21:19:03.376,-0.25,-0.065
21:19:03.380,-0.225,-0.065
21:19:03.384,-0.225,-0.035
21:19:03.388,-0.24,-0.06
21:19:03.392,-0.23,-0.04
21:19:03.396,-0.23,-0.055
21:19:03.400,-0.23,-0.045
21:19:03.404,-0.22,-0.065
21:19:03.408,-0.21,-0.045
21:19:03.412,-0.21,-0.045
21:19:03.416,-0.2,-0.06
21:19:03.420,-0.19,-0.065
21:19:03.424,-0.21,-0.07
21:19:03.428,-0.21,-0.06
21:19:03.432,-0.19,-0.045
21:19:03.436,-0.15,-0.04
21:19:03.440,-0.07,-0.04
21:19:03.444,-0.065,-0.07
21:19:03.448,-0.045,-0.045
21:19:03.452,-0.01,-0.04
21:19:03.456,0.01,-0.045
21:19:03.460,0.03,-0.045
21:19:03.464,0.03,-0.05
21:19:03.468,0.03,-0.05
21:19:03.472,0.0,-0.08
21:19:03.476,-0.055,-0.1
21:19:03.480,-0.105,-0.11
21:19:03.484,-0.16,-0.125
21:19:03.488,-0.2,-0.105
21:19:03.492,-0.26,-0.105
21:19:03.496,-0.275,-0.07
21:19:03.500,-0.305,-0.055
21:19:03.504,-0.34,-0.065
21:19:03.508,-0.37,-0.075
21:19:03.512,-0.375,-0.07
21:19:03.516,-0.36,-0.085
21:19:03.520,-0.34,-0.08
21:19:03.524,-0.35,-0.095
21:19:03.528,-0.345,-0.105
21:19:03.532,-0.36,-0.11
21:19:03.536,-0.35,-0.11
21:19:03.540,-0.36,-0.105
21:19:03.544,-0.35,-0.11
21:19:03.548,-0.345,-0.14
21:19:03.552,-0.36,-0.11
21:19:03.556,-0.34,-0.13
21:19:03.560,-0.36,-0.125
21:19:03.564,-0.355,-0.145
21:19:03.568,-0.365,-0.15
21:19:03.572,-0.34,-0.145
21:19:03.576,-0.335,-0.13
21:19:03.580,-0.34,-0.14
21:19:03.584,-0.35,-0.125
21:19:03.588,-0.35,-0.135
21:19:03.592,-0.33,-0.14
21:19:03.596,-0.315,-0.13
21:19:03.600,-0.3,-0.14
21:19:03.604,-0.32,-0.155
21:19:03.608,-0.29,-0.155
21:19:03.612,-0.275,-0.135
21:19:03.616,-0.25,-0.15
21:19:03.620,-0.18,-0.14
21:19:03.624,-0.1,-0.125
21:19:03.628,-0.01,-0.14
21:19:03.632,0.045,-0.19
21:19:03.636,0.11,-0.195
21:19:03.640,0.16,-0.235
21:19:03.644,0.205,-0.25
21:19:03.648,0.22,-0.25
21:19:03.652,0.185,-0.27
21:19:03.656,0.195,-0.32
21:19:03.660,0.335,-0.445
21:19:03.664,0.585,-0.635
21:19:03.668,0.875,-0.88
21:19:03.672,1.075,-1.09
21:19:03.676,0.985,-1.215
21:19:03.680,0.625,-1.125
21:19:03.684,0.125,-0.82
21:19:03.688,-0.16,-0.495
21:19:03.692,-0.28,-0.305
21:19:03.696,-0.36,-0.195
21:19:03.700,-0.37,-0.1
21:19:03.704,-0.385,-0.05
21:19:03.708,-0.395,-0.035
21:19:03.712,-0.425,-0.015
21:19:03.716,-0.425,-0.035
21:19:03.720,-0.425,-0.08
21:19:03.724,-0.45,-0.07
21:19:03.728,-0.46,-0.085
21:19:03.732,-0.46,-0.075
21:19:03.736,-0.465,-0.08
21:19:03.740,-0.45,-0.095
21:19:03.744,-0.485,-0.095
21:19:03.748,-0.46,-0.1
21:19:03.752,-0.46,-0.115
21:19:03.756,-0.46,-0.095
21:19:03.760,-0.48,-0.115
21:19:03.764,-0.505,-0.11
21:19:03.768,-0.5,-0.13
21:19:03.772,-0.505,-0.115
21:19:03.776,-0.505,-0.125
21:19:03.780,-0.495,-0.125
21:19:03.784,-0.515,-0.13
21:19:03.788,-0.53,-0.145
21:19:03.792,-0.545,-0.14
21:19:03.796,-0.555,-0.15
21:19:03.800,-0.52,-0.155
21:19:03.804,-0.525,-0.135
21:19:03.808,-0.545,-0.14
21:19:03.812,-0.545,-0.16
21:19:03.816,-0.53,-0.155
21:19:03.820,-0.525,-0.135
21:19:03.824,-0.54,-0.135
21:19:03.828,-0.54,-0.145
21:19:03.832,-0.52,-0.13
21:19:03.836,-0.53,-0.145
21:19:03.840,-0.505,-0.125
21:19:03.844,-0.535,-0.145
21:19:03.848,-0.505,-0.145
21:19:03.852,-0.495,-0.145
21:19:03.856,-0.52,-0.155
21:19:03.860,-0.505,-0.15
21:19:03.864,-0.505,-0.16
21:19:03.868,-0.49,-0.155
21:19:03.872,-0.5,-0.165
21:19:03.876,-0.495,-0.15
21:19:03.880,-0.475,-0.16
21:19:03.884,-0.465,-0.195
21:19:03.888,-0.44,-0.175
21:19:03.892,-0.44,-0.185
21:19:03.896,-0.44,-0.205
21:19:03.900,-0.395,-0.225
21:19:03.904,-0.39,-0.235
21:19:03.908,-0.395,-0.215
21:19:03.912,-0.385,-0.2
21:19:03.916,-0.37,-0.22
21:19:03.920,-0.36,-0.21
21:19:03.924,-0.36,-0.225
21:19:03.928,-0.335,-0.23
21:19:03.932,-0.31,-0.225
21:19:03.936,-0.3,-0.22
21:19:03.940,-0.28,-0.24
21:19:03.944,-0.28,-0.235
21:19:03.948,-0.27,-0.215
21:19:03.952,-0.265,-0.205
21:19:03.956,-0.27,-0.225
21:19:03.960,-0.265,-0.225
21:19:03.964,-0.26,-0.215
21:19:03.968,-0.25,-0.22
21:19:03.972,-0.265,-0.23
21:19:03.976,-0.27,-0.215
21:19:03.980,-0.275,-0.22
21:19:03.984,-0.28,-0.225
21:19:03.988,-0.29,-0.22
21:19:03.992,-0.3,-0.235
21:19:03.996,-0.285,-0.22
21:19:04.000,-0.3,-0.245
21:19:04.004,-0.31,-0.25
21:19:04.008,-0.28,-0.215
21:19:04.012,-0.31,-0.24
21:19:04.016,-0.3,-0.235
21:19:04.020,-0.28,-0.245
21:19:04.024,-0.285,-0.245
21:19:04.028,-0.29,-0.24
21:19:04.032,-0.3,-0.24
21:19:04.036,-0.31,-0.23
21:19:04.040,-0.295,-0.245
21:19:04.044,-0.285,-0.25
21:19:04.048,-0.255,-0.235
21:19:04.052,-0.275,-0.255
21:19:04.056,-0.255,-0.25
21:19:04.060,-0.245,-0.235
21:19:04.064,-0.22,-0.225
21:19:04.068,-0.23,-0.24
21:19:04.072,-0.225,-0.245
21:19:04.076,-0.22,-0.22
21:19:04.080,-0.18,-0.22
21:19:04.084,-0.145,-0.205
21:19:04.088,-0.115,-0.22
21:19:04.092,-0.08,-0.2
21:19:04.096,-0.065,-0.19
21:19:04.100,-0.04,-0.19
21:19:04.104,-0.03,-0.215
21:19:04.108,0.005,-0.19
21:19:04.112,0.0,-0.22
21:19:04.116,-0.02,-0.245
21:19:04.120,-0.07,-0.245
21:19:04.124,-0.135,-0.275
21:19:04.128,-0.165,-0.295
21:19:04.132,-0.225,-0.3
21:19:04.136,-0.285,-0.295
21:19:04.140,-0.33,-0.28
21:19:04.144,-0.365,-0.275
21:19:04.148,-0.39,-0.255
21:19:04.152,-0.405,-0.27
21:19:04.156,-0.4,-0.27
21:19:04.160,-0.39,-0.275
21:19:04.164,-0.375,-0.295
21:19:04.168,-0.38,-0.28
21:19:04.172,-0.37,-0.28
21:19:04.176,-0.36,-0.285
21:19:04.180,-0.34,-0.27
21:19:04.184,-0.355,-0.265
21:19:04.188,-0.345,-0.28
21:19:04.192,-0.355,-0.295
21:19:04.196,-0.33,-0.28
21:19:04.200,-0.345,-0.3
21:19:04.204,-0.34,-0.285
21:19:04.208,-0.35,-0.28
21:19:04.212,-0.35,-0.28
21:19:04.216,-0.35,-0.285
21:19:04.220,-0.35,-0.28
21:19:04.224,-0.35,-0.315
21:19:04.228,-0.345,-0.3
21:19:04.232,-0.34,-0.305
21:19:04.236,-0.33,-0.3
21:19:04.240,-0.32,-0.295
21:19:04.244,-0.32,-0.28
21:19:04.248,-0.31,-0.305
21:19:04.252,-0.315,-0.305
21:19:04.256,-0.29,-0.29
21:19:04.260,-0.255,-0.27
21:19:04.264,-0.205,-0.26
21:19:04.268,-0.11,-0.26
21:19:04.272,-0.02,-0.255
21:19:04.276,0.065,-0.3
21:19:04.280,0.155,-0.3
21:19:04.284,0.2,-0.34
21:19:04.288,0.25,-0.35
21:19:04.292,0.27,-0.355
21:19:04.296,0.285,-0.34
21:19:04.300,0.265,-0.395
21:19:04.304,0.32,-0.485
21:19:04.308,0.555,-0.635
21:19:04.312,0.89,-0.83
21:19:04.316,1.1,-1.07
21:19:04.320,1.105,-1.25
21:19:04.324,0.8,-1.25
21:19:04.328,0.31,-1.015
21:19:04.332,-0.035,-0.66
21:19:04.336,-0.2,-0.425
21:19:04.340,-0.29,-0.285
21:19:04.344,-0.315,-0.175
21:19:04.348,-0.3,-0.1
21:19:04.352,-0.33,-0.06
21:19:04.356,-0.37,-0.08
21:19:04.360,-0.36,-0.07
21:19:04.364,-0.39,-0.07
21:19:04.368,-0.4,-0.09
21:19:04.372,-0.385,-0.1
21:19:04.376,-0.37,-0.095
21:19:04.380,-0.37,-0.1
21:19:04.384,-0.37,-0.095
21:19:04.388,-0.365,-0.095
21:19:04.392,-0.375,-0.11
21:19:04.396,-0.375,-0.085
21:19:04.400,-0.385,-0.09
21:19:04.404,-0.385,-0.085
21:19:04.408,-0.385,-0.065
21:19:04.412,-0.385,-0.095
21:19:04.416,-0.39,-0.085
21:19:04.420,-0.405,-0.105
21:19:04.424,-0.385,-0.095
21:19:04.428,-0.415,-0.095
21:19:04.432,-0.42,-0.1
21:19:04.436,-0.42,-0.115
21:19:04.440,-0.435,-0.075
21:19:04.444,-0.43,-0.075
21:19:04.448,-0.44,-0.09
21:19:04.452,-0.45,-0.105
21:19:04.456,-0.435,-0.1
21:19:04.460,-0.435,-0.105
21:19:04.464,-0.445,-0.1
21:19:04.468,-0.44,-0.1
21:19:04.472,-0.455,-0.085
21:19:04.476,-0.435,-0.08
21:19:04.480,-0.445,-0.095
21:19:04.484,-0.435,-0.075
21:19:04.488,-0.425,-0.09
21:19:04.492,-0.415,-0.07
21:19:04.496,-0.405,-0.075
21:19:04.500,-0.42,-0.075
21:19:04.504,-0.36,-0.075
21:19:04.508,-0.38,-0.07
21:19:04.512,-0.36,-0.06
21:19:04.516,-0.355,-0.075
21:19:04.520,-0.34,-0.095
21:19:04.524,-0.32,-0.08
21:19:04.528,-0.345,-0.095
21:19:04.532,-0.33,-0.1
21:19:04.536,-0.325,-0.12
21:19:04.540,-0.315,-0.13
21:19:04.544,-0.305,-0.105
21:19:04.548,-0.285,-0.115
21:19:04.552,-0.27,-0.13
21:19:04.556,-0.255,-0.13
21:19:04.560,-0.235,-0.16
21:19:04.564,-0.24,-0.18
21:19:04.568,-0.22,-0.15
21:19:04.572,-0.21,-0.155
21:19:04.576,-0.21,-0.165
21:19:04.580,-0.2,-0.155
21:19:04.584,-0.18,-0.155
21:19:04.588,-0.185,-0.165
21:19:04.592,-0.16,-0.175
21:19:04.596,-0.165,-0.135
21:19:04.600,-0.135,-0.14
21:19:04.604,-0.145,-0.15
21:19:04.608,-0.125,-0.135
21:19:04.612,-0.14,-0.145
21:19:04.616,-0.13,-0.16
21:19:04.620,-0.125,-0.135
21:19:04.624,-0.135,-0.12
21:19:04.628,-0.14,-0.11
21:19:04.632,-0.155,-0.12
21:19:04.636,-0.145,-0.115
21:19:04.640,-0.135,-0.13
21:19:04.644,-0.14,-0.13
21:19:04.648,-0.16,-0.14
21:19:04.652,-0.155,-0.14
21:19:04.656,-0.145,-0.12
21:19:04.660,-0.16,-0.135
21:19:04.664,-0.155,-0.13
21:19:04.668,-0.15,-0.145
21:19:04.672,-0.165,-0.15
21:19:04.676,-0.165,-0.135
21:19:04.680,-0.16,-0.15
21:19:04.684,-0.155,-0.13
21:19:04.688,-0.13,-0.14
21:19:04.692,-0.125,-0.14
21:19:04.696,-0.11,-0.13
21:19:04.700,-0.125,-0.13
21:19:04.704,-0.095,-0.12
21:19:04.708,-0.08,-0.11
21:19:04.712,-0.04,-0.105
21:19:04.716,-0.03,-0.105
21:19:04.720,0.02,-0.105
21:19:04.724,0.05,-0.08
21:19:04.728,0.085,-0.07
21:19:04.732,0.085,-0.08
21:19:04.736,0.11,-0.08
21:19:04.740,0.12,-0.07
21:19:04.744,0.125,-0.075
21:19:04.748,0.11,-0.095
21:19:04.752,0.06,-0.115
21:19:04.756,0.03,-0.145
21:19:04.760,-0.03,-0.165
21:19:04.764,-0.095,-0.195
21:19:04.768,-0.145,-0.17
21:19:04.772,-0.21,-0.16
21:19:04.776,-0.255,-0.15
21:19:04.780,-0.265,-0.145
21:19:04.784,-0.3,-0.14
21:19:04.788,-0.32,-0.145
21:19:04.792,-0.315,-0.165
21:19:04.796,-0.31,-0.185
21:19:04.800,-0.3,-0.19
21:19:04.804,-0.305,-0.185
21:19:04.808,-0.305,-0.165
21:19:04.812,-0.305,-0.16
21:19:04.816,-0.28,-0.175
21:19:04.820,-0.265,-0.205
21:19:04.824,-0.275,-0.195
21:19:04.828,-0.275,-0.185
21:19:04.832,-0.26,-0.19
21:19:04.836,-0.26,-0.185
21:19:04.840,-0.28,-0.205
21:19:04.844,-0.265,-0.2
21:19:04.848,-0.25,-0.185
21:19:04.852,-0.235,-0.2
21:19:04.856,-0.25,-0.215
21:19:04.860,-0.255,-0.185
21:19:04.864,-0.255,-0.185
21:19:04.868,-0.245,-0.2
21:19:04.872,-0.285,-0.215
21:19:04.876,-0.26,-0.205
21:19:04.880,-0.265,-0.205
21:19:04.884,-0.265,-0.195
21:19:04.888,-0.26,-0.205
21:19:04.892,-0.235,-0.22
21:19:04.896,-0.18,-0.225
21:19:04.900,-0.13,-0.235
21:19:04.904,-0.065,-0.23
21:19:04.908,0.025,-0.22
21:19:04.912,0.115,-0.26
21:19:04.916,0.14,-0.31
21:19:04.920,0.175,-0.325
21:19:04.924,0.205,-0.36
21:19:04.928,0.22,-0.33
21:19:04.932,0.195,-0.41
21:19:04.936,0.215,-0.49
21:19:04.940,0.35,-0.625
21:19:04.944,0.63,-0.815
21:19:04.948,0.94,-1.035
21:19:04.952,1.14,-1.26
21:19:04.956,1.07,-1.37
21:19:04.960,0.675,-1.25
21:19:04.964,0.21,-0.895
21:19:04.968,-0.12,-0.565
21:19:04.972,-0.235,-0.34
21:19:04.976,-0.3,-0.195
21:19:04.980,-0.315,-0.105
21:19:04.984,-0.335,-0.07
21:19:04.988,-0.365,-0.055
21:19:04.992,-0.365,-0.035
21:19:04.996,-0.385,-0.035
21:19:05.000,-0.4,-0.055
21:19:05.004,-0.405,-0.075
21:19:05.008,-0.4,-0.08
21:19:05.012,-0.395,-0.11
21:19:05.016,-0.395,-0.1
21:19:05.020,-0.42,-0.11
21:19:05.024,-0.42,-0.12
21:19:05.028,-0.405,-0.125
21:19:05.032,-0.405,-0.12
21:19:05.036,-0.405,-0.09
21:19:05.040,-0.39,-0.09
21:19:05.044,-0.41,-0.125
21:19:05.048,-0.405,-0.105
21:19:05.052,-0.385,-0.11
21:19:05.056,-0.395,-0.095
21:19:05.060,-0.39,-0.12
21:19:05.064,-0.42,-0.1
21:19:05.068,-0.395,-0.085
21:19:05.072,-0.41,-0.085
21:19:05.076,-0.415,-0.085
21:19:05.080,-0.405,-0.09
21:19:05.084,-0.425,-0.08
21:19:05.088,-0.41,-0.075
21:19:05.092,-0.445,-0.09
21:19:05.096,-0.43,-0.09
21:19:05.100,-0.44,-0.1
21:19:05.104,-0.445,-0.09
21:19:05.108,-0.45,-0.095
21:19:05.112,-0.445,-0.08
21:19:05.116,-0.45,-0.08
21:19:05.120,-0.435,-0.11
21:19:05.124,-0.43,-0.115
21:19:05.128,-0.445,-0.125
21:19:05.132,-0.415,-0.115
21:19:05.136,-0.435,-0.11
21:19:05.140,-0.425,-0.12
21:19:05.144,-0.42,-0.11
21:19:05.148,-0.41,-0.105
21:19:05.152,-0.375,-0.095
21:19:05.156,-0.375,-0.12
21:19:05.160,-0.355,-0.135
21:19:05.164,-0.34,-0.125
21:19:05.168,-0.315,-0.125
21:19:05.172,-0.305,-0.14
21:19:05.176,-0.3,-0.13
21:19:05.180,-0.305,-0.135
21:19:05.184,-0.28,-0.145
21:19:05.188,-0.255,-0.14
21:19:05.192,-0.26,-0.13
21:19:05.196,-0.24,-0.16
21:19:05.200,-0.255,-0.145
21:19:05.204,-0.245,-0.15
21:19:05.208,-0.225,-0.155
21:19:05.212,-0.235,-0.155
21:19:05.216,-0.235,-0.18
21:19:05.220,-0.205,-0.155
21:19:05.224,-0.21,-0.145
21:19:05.228,-0.195,-0.175
21:19:05.232,-0.18,-0.165
21:19:05.236,-0.195,-0.17
21:19:05.240,-0.185,-0.16
21:19:05.244,-0.19,-0.15
21:19:05.248,-0.2,-0.145
21:19:05.252,-0.19,-0.145
21:19:05.256,-0.18,-0.15
21:19:05.260,-0.165,-0.15
21:19:05.264,-0.155,-0.135
21:19:05.268,-0.16,-0.11
21:19:05.272,-0.13,-0.115
21:19:05.276,-0.16,-0.12
21:19:05.280,-0.14,-0.13
21:19:05.284,-0.155,-0.1
21:19:05.288,-0.135,-0.1
21:19:05.292,-0.15,-0.1
21:19:05.296,-0.15,-0.095
21:19:05.300,-0.16,-0.105
21:19:05.304,-0.175,-0.11
21:19:05.308,-0.17,-0.1
21:19:05.312,-0.16,-0.105
21:19:05.316,-0.175,-0.095
21:19:05.320,-0.16,-0.105
21:19:05.324,-0.145,-0.11
21:19:05.328,-0.14,-0.09
21:19:05.332,-0.145,-0.125
21:19:05.336,-0.16,-0.1
21:19:05.340,-0.125,-0.085
21:19:05.344,-0.1,-0.095
21:19:05.348,-0.08,-0.085
21:19:05.352,-0.05,-0.08
21:19:05.356,0.0,-0.08
21:19:05.360,0.015,-0.05
21:19:05.364,0.02,-0.04
21:19:05.368,0.055,-0.035
21:19:05.372,0.09,-0.055
21:19:05.376,0.095,-0.05
21:19:05.380,0.105,-0.05
21:19:05.384,0.11,-0.08
21:19:05.388,0.07,-0.115
21:19:05.392,0.005,-0.11
21:19:05.396,-0.035,-0.11
21:19:05.400,-0.085,-0.105
21:19:05.404,-0.16,-0.115
21:19:05.408,-0.195,-0.12
21:19:05.412,-0.25,-0.09
21:19:05.416,-0.28,-0.09
21:19:05.420,-0.29,-0.095
21:19:05.424,-0.31,-0.1
21:19:05.428,-0.32,-0.09
21:19:05.432,-0.32,-0.1
21:19:05.436,-0.315,-0.12
21:19:05.440,-0.315,-0.12
21:19:05.444,-0.32,-0.13
21:19:05.448,-0.32,-0.155
21:19:05.452,-0.32,-0.145
21:19:05.456,-0.305,-0.13
21:19:05.460,-0.3,-0.14
21:19:05.464,-0.3,-0.16
21:19:05.468,-0.29,-0.145
21:19:05.472,-0.29,-0.15
21:19:05.476,-0.32,-0.155
21:19:05.480,-0.325,-0.14
21:19:05.484,-0.31,-0.15
21:19:05.488,-0.305,-0.15
21:19:05.492,-0.305,-0.145
21:19:05.496,-0.3,-0.14
21:19:05.500,-0.285,-0.14
21:19:05.504,-0.27,-0.135
21:19:05.508,-0.255,-0.15
21:19:05.512,-0.265,-0.15
21:19:05.516,-0.27,-0.145
21:19:05.520,-0.24,-0.13
21:19:05.524,-0.255,-0.125
21:19:05.528,-0.22,-0.13
21:19:05.532,-0.21,-0.125
21:19:05.536,-0.155,-0.145
21:19:05.540,-0.075,-0.135
21:19:05.544,0.005,-0.135
21:19:05.548,0.085,-0.155
21:19:05.552,0.12,-0.2
21:19:05.556,0.145,-0.25
21:19:05.560,0.175,-0.26
21:19:05.564,0.215,-0.255
21:19:05.568,0.17,-0.305
21:19:05.572,0.195,-0.395
21:19:05.576,0.335,-0.55
21:19:05.580,0.635,-0.735
21:19:05.584,0.95,-0.945
21:19:05.588,1.135,-1.19
21:19:05.592,1.04,-1.285
21:19:05.596,0.695,-1.175
21:19:05.600,0.21,-0.845
21:19:05.604,-0.09,-0.475
21:19:05.608,-0.245,-0.28
21:19:05.612,-0.335,-0.17
21:19:05.616,-0.35,-0.07
21:19:05.620,-0.35,-0.02
21:19:05.624,-0.37,0.0
21:19:05.628,-0.375,0.01
21:19:05.632,-0.375,0.01
21:19:05.636,-0.375,-0.01
21:19:05.640,-0.38,-0.025
21:19:05.644,-0.41,-0.03
21:19:05.648,-0.4,-0.04
21:19:05.652,-0.425,-0.025
21:19:05.656,-0.425,-0.045
21:19:05.660,-0.43,-0.045
21:19:05.664,-0.415,-0.055
21:19:05.668,-0.425,-0.035
21:19:05.672,-0.405,-0.035
21:19:05.676,-0.45,-0.03
21:19:05.680,-0.44,-0.03
21:19:05.684,-0.45,-0.045
21:19:05.688,-0.45,-0.045
21:19:05.692,-0.47,-0.045
21:19:05.696,-0.47,-0.04
21:19:05.700,-0.47,-0.045
21:19:05.704,-0.465,-0.035
21:19:05.708,-0.505,-0.05
21:19:05.712,-0.5,-0.04
21:19:05.716,-0.495,-0.04
21:19:05.720,-0.485,-0.04
21:19:05.724,-0.485,-0.045
21:19:05.728,-0.475,-0.02
21:19:05.732,-0.46,-0.035
21:19:05.736,-0.49,-0.04
21:19:05.740,-0.505,-0.06
21:19:05.744,-0.51,-0.06
21:19:05.748,-0.5,-0.03
21:19:05.752,-0.48,-0.045
21:19:05.756,-0.5,-0.025
21:19:05.760,-0.495,-0.04
21:19:05.764,-0.47,-0.055
21:19:05.768,-0.46,-0.05
21:19:05.772,-0.475,-0.055
21:19:05.776,-0.48,-0.065
21:19:05.780,-0.485,-0.075
21:19:05.784,-0.47,-0.07
21:19:05.788,-0.475,-0.085
21:19:05.792,-0.465,-0.075
21:19:05.796,-0.445,-0.105
21:19:05.800,-0.425,-0.11
21:19:05.804,-0.42,-0.115
21:19:05.808,-0.405,-0.105
21:19:05.812,-0.4,-0.115
21:19:05.816,-0.39,-0.135
21:19:05.820,-0.38,-0.14
21:19:05.824,-0.365,-0.125
21:19:05.828,-0.35,-0.12
21:19:05.832,-0.345,-0.16
21:19:05.836,-0.345,-0.16
21:19:05.840,-0.32,-0.15
21:19:05.844,-0.315,-0.17
21:19:05.848,-0.3,-0.145
21:19:05.852,-0.27,-0.14
21:19:05.856,-0.29,-0.14
21:19:05.860,-0.27,-0.145
21:19:05.864,-0.255,-0.14
21:19:05.868,-0.245,-0.135
21:19:05.872,-0.26,-0.14
21:19:05.876,-0.255,-0.12
21:19:05.880,-0.26,-0.15
21:19:05.884,-0.28,-0.155
21:19:05.888,-0.28,-0.115
21:19:05.892,-0.29,-0.135
21:19:05.896,-0.28,-0.115
21:19:05.900,-0.3,-0.13
21:19:05.904,-0.3,-0.13
21:19:05.908,-0.29,-0.135
21:19:05.912,-0.31,-0.125
21:19:05.916,-0.275,-0.15
21:19:05.920,-0.28,-0.14
21:19:05.924,-0.285,-0.13
21:19:05.928,-0.285,-0.165
21:19:05.932,-0.275,-0.145
21:19:05.936,-0.295,-0.14
21:19:05.940,-0.29,-0.14
21:19:05.944,-0.3,-0.15
21:19:05.948,-0.295,-0.15
21:19:05.952,-0.285,-0.16
21:19:05.956,-0.265,-0.145
21:19:05.960,-0.275,-0.14
21:19:05.964,-0.26,-0.16
21:19:05.968,-0.245,-0.15
21:19:05.972,-0.23,-0.16
21:19:05.976,-0.24,-0.145
21:19:05.980,-0.215,-0.15
21:19:05.984,-0.235,-0.145
21:19:05.988,-0.22,-0.14
21:19:05.992,-0.205,-0.155
21:19:05.996,-0.15,-0.15
21:19:06.000,-0.115,-0.14
21:19:06.004,-0.105,-0.125
21:19:06.008,-0.065,-0.155
21:19:06.012,-0.055,-0.13
21:19:06.016,-0.02,-0.14
21:19:06.020,0.015,-0.155
21:19:06.024,0.02,-0.165
21:19:06.028,0.01,-0.18
21:19:06.032,-0.05,-0.17
21:19:06.036,-0.105,-0.215
21:19:06.040,-0.155,-0.23
21:19:06.044,-0.2,-0.225
21:19:06.048,-0.26,-0.225
21:19:06.052,-0.31,-0.24
21:19:06.056,-0.365,-0.245
21:19:06.060,-0.385,-0.21
21:19:06.064,-0.395,-0.21
21:19:06.068,-0.4,-0.225
21:19:06.072,-0.41,-0.23
21:19:06.076,-0.4,-0.21
21:19:06.080,-0.395,-0.23
21:19:06.084,-0.395,-0.255
21:19:06.088,-0.39,-0.25
21:19:06.092,-0.4,-0.27
21:19:06.096,-0.4,-0.24
21:19:06.100,-0.395,-0.245
21:19:06.104,-0.385,-0.26
21:19:06.108,-0.41,-0.25
21:19:06.112,-0.415,-0.245
21:19:06.116,-0.4,-0.25
21:19:06.120,-0.39,-0.25
21:19:06.124,-0.395,-0.26
21:19:06.128,-0.41,-0.275
21:19:06.132,-0.4,-0.275
21:19:06.136,-0.41,-0.275
21:19:06.140,-0.395,-0.265
21:19:06.144,-0.39,-0.285
21:19:06.148,-0.38,-0.285
21:19:06.152,-0.385,-0.285
21:19:06.156,-0.38,-0.29
21:19:06.160,-0.37,-0.31
21:19:06.164,-0.38,-0.3
21:19:06.168,-0.335,-0.305
21:19:06.172,-0.31,-0.31
21:19:06.176,-0.23,-0.31
21:19:06.180,-0.19,-0.315
21:19:06.184,-0.11,-0.32
21:19:06.188,-0.005,-0.32
21:19:06.192,0.1,-0.34
21:19:06.196,0.155,-0.39
21:19:06.200,0.185,-0.41
21:19:06.204,0.23,-0.43
21:19:06.208,0.22,-0.41
21:19:06.212,0.18,-0.46
21:19:06.216,0.2,-0.515
21:19:06.220,0.37,-0.63
21:19:06.224,0.675,-0.84
21:19:06.228,0.98,-1.07
21:19:06.232,1.075,-1.28
21:19:06.236,0.855,-1.335
21:19:06.240,0.4,-1.17
21:19:06.244,-0.03,-0.82
21:19:06.248,-0.25,-0.585
21:19:06.252,-0.36,-0.455
21:19:06.256,-0.395,-0.365
21:19:06.260,-0.395,-0.28
21:19:06.264,-0.4,-0.24
21:19:06.268,-0.42,-0.22
21:19:06.272,-0.455,-0.22
21:19:06.276,-0.465,-0.22
21:19:06.280,-0.485,-0.25
21:19:06.284,-0.47,-0.275
21:19:06.288,-0.48,-0.285
21:19:06.292,-0.49,-0.285
21:19:06.296,-0.48,-0.3
21:19:06.300,-0.49,-0.32
21:19:06.304,-0.495,-0.295
21:19:06.308,-0.495,-0.29
21:19:06.312,-0.49,-0.28
21:19:06.316,-0.475,-0.305
21:19:06.320,-0.49,-0.29
21:19:06.324,-0.51,-0.31
21:19:06.328,-0.5,-0.31
21:19:06.332,-0.51,-0.33
21:19:06.336,-0.52,-0.3
21:19:06.340,-0.52,-0.305
21:19:06.344,-0.54,-0.32
21:19:06.348,-0.545,-0.315
21:19:06.352,-0.53,-0.325
21:19:06.356,-0.535,-0.34
21:19:06.360,-0.545,-0.355
21:19:06.364,-0.56,-0.345
21:19:06.368,-0.575,-0.33
21:19:06.372,-0.56,-0.34
21:19:06.376,-0.59,-0.35
21:19:06.380,-0.59,-0.345
21:19:06.384,-0.59,-0.36
21:19:06.388,-0.56,-0.365
21:19:06.392,-0.57,-0.35
21:19:06.396,-0.555,-0.355
21:19:06.400,-0.525,-0.335
21:19:06.404,-0.535,-0.345
21:19:06.408,-0.53,-0.365
21:19:06.412,-0.55,-0.35
21:19:06.416,-0.515,-0.38
21:19:06.420,-0.52,-0.355
21:19:06.424,-0.525,-0.355
21:19:06.428,-0.495,-0.365
21:19:06.432,-0.5,-0.37
21:19:06.436,-0.5,-0.365
21:19:06.440,-0.47,-0.37
21:19:06.444,-0.5,-0.375
21:19:06.448,-0.48,-0.39
21:19:06.452,-0.48,-0.4
21:19:06.456,-0.445,-0.435
21:19:06.460,-0.42,-0.425
21:19:06.464,-0.4,-0.45
21:19:06.468,-0.38,-0.44
21:19:06.472,-0.38,-0.47
21:19:06.476,-0.385,-0.46
21:19:06.480,-0.36,-0.465
21:19:06.484,-0.36,-0.475
21:19:06.488,-0.385,-0.485
21:19:06.492,-0.365,-0.475
21:19:06.496,-0.34,-0.475
21:19:06.500,-0.355,-0.475
21:19:06.504,-0.34,-0.48
21:19:06.508,-0.295,-0.5
21:19:06.512,-0.3,-0.48
21:19:06.516,-0.295,-0.485
21:19:06.520,-0.28,-0.45
21:19:06.524,-0.31,-0.46
21:19:06.528,-0.28,-0.445
21:19:06.532,-0.285,-0.435
21:19:06.536,-0.275,-0.45
21:19:06.540,-0.27,-0.435
21:19:06.544,-0.28,-0.455
21:19:06.548,-0.275,-0.46
21:19:06.552,-0.265,-0.43
21:19:06.556,-0.265,-0.45
21:19:06.560,-0.28,-0.445
21:19:06.564,-0.31,-0.45
21:19:06.568,-0.29,-0.46
21:19:06.572,-0.28,-0.46
21:19:06.576,-0.28,-0.44
21:19:06.580,-0.28,-0.455
21:19:06.584,-0.285,-0.445
21:19:06.588,-0.27,-0.44
21:19:06.592,-0.28,-0.465
21:19:06.596,-0.29,-0.45
21:19:06.600,-0.29,-0.435
21:19:06.604,-0.28,-0.42
21:19:06.608,-0.305,-0.45
21:19:06.612,-0.26,-0.425
21:19:06.616,-0.26,-0.42
21:19:06.620,-0.23,-0.44
21:19:06.624,-0.21,-0.4
21:19:06.628,-0.215,-0.435
21:19:06.632,-0.215,-0.415
21:19:06.636,-0.19,-0.405
21:19:06.640,-0.16,-0.39
21:19:06.644,-0.14,-0.38
21:19:06.648,-0.075,-0.365
21:19:06.652,-0.055,-0.355
21:19:06.656,-0.025,-0.325
21:19:06.660,-0.005,-0.325
21:19:06.664,0.015,-0.34
21:19:06.668,0.05,-0.32
21:19:06.672,0.04,-0.3
21:19:06.676,0.03,-0.325
21:19:06.680,0.0,-0.345
21:19:06.684,-0.04,-0.37
21:19:06.688,-0.11,-0.36
21:19:06.692,-0.175,-0.375
21:19:06.696,-0.24,-0.375
21:19:06.700,-0.295,-0.37
21:19:06.704,-0.33,-0.36
21:19:06.708,-0.375,-0.335
21:19:06.712,-0.38,-0.325
21:19:06.716,-0.385,-0.325
21:19:06.720,-0.385,-0.33
21:19:06.724,-0.4,-0.34
21:19:06.728,-0.38,-0.33
21:19:06.732,-0.385,-0.32
21:19:06.736,-0.365,-0.33
21:19:06.740,-0.365,-0.32
21:19:06.744,-0.335,-0.295
21:19:06.748,-0.355,-0.295
21:19:06.752,-0.335,-0.29
21:19:06.756,-0.31,-0.27
21:19:06.760,-0.335,-0.285
21:19:06.764,-0.33,-0.285
21:19:06.768,-0.335,-0.265
21:19:06.772,-0.325,-0.265
21:19:06.776,-0.33,-0.26
21:19:06.780,-0.34,-0.26
21:19:06.784,-0.325,-0.265
21:19:06.788,-0.315,-0.255
21:19:06.792,-0.34,-0.255
21:19:06.796,-0.345,-0.24
21:19:06.800,-0.33,-0.255
21:19:06.804,-0.34,-0.26
21:19:06.808,-0.32,-0.28
21:19:06.812,-0.305,-0.265
21:19:06.816,-0.29,-0.23
21:19:06.820,-0.28,-0.255
21:19:06.824,-0.205,-0.245
21:19:06.828,-0.14,-0.25
21:19:06.832,-0.05,-0.25
21:19:06.836,0.03,-0.26
21:19:06.840,0.14,-0.27
21:19:06.844,0.185,-0.32
21:19:06.848,0.235,-0.335
21:19:06.852,0.28,-0.335
21:19:06.856,0.31,-0.35
21:19:06.860,0.27,-0.42
21:19:06.864,0.33,-0.5
21:19:06.868,0.515,-0.675
21:19:06.872,0.835,-0.885
21:19:06.876,1.115,-1.1
21:19:06.880,1.14,-1.275
21:19:06.884,0.9,-1.28
21:19:06.888,0.415,-1.04
21:19:06.892,0.005,-0.695
21:19:06.896,-0.22,-0.435
21:19:06.900,-0.305,-0.3
21:19:06.904,-0.355,-0.2
21:19:06.908,-0.365,-0.135
21:19:06.912,-0.385,-0.075
21:19:06.916,-0.415,-0.06
21:19:06.920,-0.425,-0.06
21:19:06.924,-0.415,-0.075
21:19:06.928,-0.445,-0.1
21:19:06.932,-0.445,-0.105
21:19:06.936,-0.46,-0.11
21:19:06.940,-0.45,-0.14
21:19:06.944,-0.45,-0.105
21:19:06.948,-0.475,-0.13
21:19:06.952,-0.45,-0.095
21:19:06.956,-0.45,-0.115
21:19:06.960,-0.45,-0.115
21:19:06.964,-0.44,-0.11
21:19:06.968,-0.46,-0.095
21:19:06.972,-0.46,-0.1
21:19:06.976,-0.44,-0.095
21:19:06.980,-0.45,-0.075
21:19:06.984,-0.47,-0.085
21:19:06.988,-0.455,-0.07
21:19:06.992,-0.46,-0.095
21:19:06.996,-0.455,-0.07
21:19:07.000,-0.46,-0.07
21:19:07.004,-0.47,-0.085
21:19:07.008,-0.475,-0.095
21:19:07.012,-0.48,-0.065
21:19:07.016,-0.51,-0.08
21:19:07.020,-0.515,-0.07
21:19:07.024,-0.53,-0.065
21:19:07.028,-0.53,-0.09
21:19:07.032,-0.52,-0.08
21:19:07.036,-0.515,-0.09
21:19:07.040,-0.515,-0.08
21:19:07.044,-0.51,-0.105
21:19:07.048,-0.51,-0.09
21:19:07.052,-0.52,-0.095
21:19:07.056,-0.495,-0.09
21:19:07.060,-0.495,-0.065
21:19:07.064,-0.505,-0.07
21:19:07.068,-0.485,-0.075
21:19:07.072,-0.455,-0.09
21:19:07.076,-0.435,-0.07
21:19:07.080,-0.43,-0.1
21:19:07.084,-0.41,-0.105
21:19:07.088,-0.38,-0.095
21:19:07.092,-0.38,-0.105
21:19:07.096,-0.385,-0.105
21:19:07.100,-0.365,-0.115
21:19:07.104,-0.36,-0.125
21:19:07.108,-0.345,-0.135
21:19:07.112,-0.33,-0.16
21:19:07.116,-0.31,-0.155
21:19:07.120,-0.305,-0.16
21:19:07.124,-0.31,-0.155
21:19:07.128,-0.29,-0.145
21:19:07.132,-0.305,-0.155
21:19:07.136,-0.29,-0.15
21:19:07.140,-0.27,-0.18
21:19:07.144,-0.275,-0.18
21:19:07.148,-0.265,-0.175
21:19:07.152,-0.27,-0.17
21:19:07.156,-0.265,-0.165
21:19:07.160,-0.24,-0.16
21:19:07.164,-0.235,-0.18
21:19:07.168,-0.24,-0.17
21:19:07.172,-0.21,-0.155
21:19:07.176,-0.21,-0.155
21:19:07.180,-0.22,-0.155
21:19:07.184,-0.225,-0.155
21:19:07.188,-0.205,-0.155
21:19:07.192,-0.2,-0.155
21:19:07.196,-0.205,-0.145
21:19:07.200,-0.2,-0.13
21:19:07.204,-0.225,-0.155
21:19:07.208,-0.205,-0.125
21:19:07.212,-0.24,-0.14
21:19:07.216,-0.22,-0.14
21:19:07.220,-0.23,-0.12
21:19:07.224,-0.22,-0.11
21:19:07.228,-0.235,-0.125
21:19:07.232,-0.235,-0.115
21:19:07.236,-0.24,-0.105
21:19:07.240,-0.23,-0.115
21:19:07.244,-0.235,-0.11
21:19:07.248,-0.215,-0.125
21:19:07.252,-0.21,-0.12
21:19:07.256,-0.195,-0.095
21:19:07.260,-0.195,-0.105
21:19:07.264,-0.175,-0.11
21:19:07.268,-0.165,-0.1
21:19:07.272,-0.14,-0.1
21:19:07.276,-0.085,-0.095
21:19:07.280,-0.055,-0.075
21:19:07.284,-0.025,-0.05
21:19:07.288,-0.01,-0.06
21:19:07.292,0.025,-0.04
21:19:07.296,0.055,-0.05
21:19:07.300,0.085,-0.05
21:19:07.304,0.105,-0.05
21:19:07.308,0.075,-0.075
21:19:07.312,0.03,-0.08
21:19:07.316,-0.01,-0.115
21:19:07.320,-0.06,-0.125
21:19:07.324,-0.13,-0.12
21:19:07.328,-0.185,-0.115
21:19:07.332,-0.24,-0.12
21:19:07.336,-0.3,-0.085
21:19:07.340,-0.325,-0.055
21:19:07.344,-0.345,-0.05
21:19:07.348,-0.335,-0.075
21:19:07.352,-0.33,-0.075
21:19:07.356,-0.345,-0.085
21:19:07.360,-0.36,-0.105
21:19:07.364,-0.335,-0.09
21:19:07.368,-0.33,-0.125
21:19:07.372,-0.315,-0.11
21:19:07.376,-0.32,-0.1
21:19:07.380,-0.33,-0.105
21:19:07.384,-0.325,-0.09
21:19:07.388,-0.335,-0.1
21:19:07.392,-0.32,-0.105
21:19:07.396,-0.305,-0.1
21:19:07.400,-0.315,-0.1
21:19:07.404,-0.31,-0.1
21:19:07.408,-0.32,-0.1
21:19:07.412,-0.31,-0.08
21:19:07.416,-0.3,-0.085
21:19:07.420,-0.29,-0.12
21:19:07.424,-0.3,-0.105
21:19:07.428,-0.305,-0.095
21:19:07.432,-0.28,-0.105
21:19:07.436,-0.29,-0.095
21:19:07.440,-0.285,-0.12
21:19:07.444,-0.29,-0.12
21:19:07.448,-0.26,-0.1
21:19:07.452,-0.24,-0.085
21:19:07.456,-0.18,-0.12
21:19:07.460,-0.115,-0.105
21:19:07.464,-0.035,-0.12
21:19:07.468,0.025,-0.15
21:19:07.472,0.09,-0.165
21:19:07.476,0.115,-0.205
21:19:07.480,0.155,-0.235
21:19:07.484,0.19,-0.225
21:19:07.488,0.165,-0.295
21:19:07.492,0.135,-0.37
21:19:07.496,0.245,-0.515
21:19:07.500,0.51,-0.68
21:19:07.504,0.835,-0.925
21:19:07.508,1.065,-1.155
21:19:07.512,1.08,-1.305
21:19:07.516,0.785,-1.235
21:19:07.520,0.31,-0.89
21:19:07.524,-0.085,-0.52
21:19:07.528,-0.27,-0.285
21:19:07.532,-0.35,-0.115
21:19:07.536,-0.385,-0.02
21:19:07.540,-0.37,0.045
21:19:07.544,-0.39,0.05
21:19:07.548,-0.395,0.075
21:19:07.552,-0.405,0.075
21:19:07.556,-0.42,0.055
21:19:07.560,-0.425,0.02
21:19:07.564,-0.415,0.03
21:19:07.568,-0.42,0.0
21:19:07.572,-0.43,0.015
21:19:07.576,-0.45,0.015
21:19:07.580,-0.465,0.0
21:19:07.584,-0.43,0.0
21:19:07.588,-0.43,0.0
21:19:07.592,-0.46,-0.01
21:19:07.596,-0.44,-0.01
21:19:07.600,-0.445,-0.005
21:19:07.604,-0.455,0.0
21:19:07.608,-0.46,0.0
21:19:07.612,-0.455,0.01
21:19:07.616,-0.445,-0.01
21:19:07.620,-0.455,0.0
21:19:07.624,-0.455,0.01
21:19:07.628,-0.475,0.015
21:19:07.632,-0.485,0.03
21:19:07.636,-0.475,0.02
21:19:07.640,-0.455,0.015
21:19:07.644,-0.465,0.015
21:19:07.648,-0.445,0.02
21:19:07.652,-0.49,0.01
21:19:07.656,-0.47,0.025
21:19:07.660,-0.475,0.04
21:19:07.664,-0.465,0.045
21:19:07.668,-0.46,0.045
21:19:07.672,-0.475,0.03
21:19:07.676,-0.465,0.025
21:19:07.680,-0.48,0.02
21:19:07.684,-0.49,0.04
21:19:07.688,-0.46,0.02
21:19:07.692,-0.46,0.025
21:19:07.696,-0.45,0.03
21:19:07.700,-0.465,0.0
21:19:07.704,-0.43,0.01
21:19:07.708,-0.43,0.025
21:19:07.712,-0.425,0.0
21:19:07.716,-0.425,0.005
21:19:07.720,-0.405,-0.01
21:19:07.724,-0.385,-0.02
21:19:07.728,-0.37,-0.04
21:19:07.732,-0.38,-0.025
21:19:07.736,-0.375,-0.03
21:19:07.740,-0.365,-0.025
21:19:07.744,-0.335,-0.025
21:19:07.748,-0.31,-0.04
21:19:07.752,-0.305,-0.045
21:19:07.756,-0.28,-0.04
21:19:07.760,-0.255,-0.035
21:19:07.764,-0.265,-0.05
21:19:07.768,-0.25,-0.025
21:19:07.772,-0.23,-0.04
21:19:07.776,-0.24,-0.035
21:19:07.780,-0.23,-0.02
21:19:07.784,-0.22,-0.04
21:19:07.788,-0.225,-0.05
21:19:07.792,-0.225,-0.05
21:19:07.796,-0.22,-0.05
21:19:07.800,-0.225,-0.055
21:19:07.804,-0.24,-0.035
21:19:07.808,-0.24,-0.055
21:19:07.812,-0.24,-0.06
21:19:07.816,-0.235,-0.04
21:19:07.820,-0.23,-0.06
21:19:07.824,-0.245,-0.07
21:19:07.828,-0.24,-0.05
21:19:07.832,-0.245,-0.045
21:19:07.836,-0.255,-0.065
21:19:07.840,-0.255,-0.06
21:19:07.844,-0.25,-0.045
21:19:07.848,-0.255,-0.04
21:19:07.852,-0.24,-0.045
21:19:07.856,-0.25,-0.035
21:19:07.860,-0.255,-0.025
21:19:07.864,-0.245,-0.03
21:19:07.868,-0.22,-0.035
21:19:07.872,-0.235,-0.02
21:19:07.876,-0.24,-0.025
21:19:07.880,-0.25,-0.04
21:19:07.884,-0.245,-0.045
21:19:07.888,-0.23,-0.015
21:19:07.892,-0.23,-0.04
21:19:07.896,-0.215,-0.02
21:19:07.900,-0.22,-0.04
21:19:07.904,-0.17,-0.025
21:19:07.908,-0.19,-0.01
21:19:07.912,-0.2,-0.01
21:19:07.916,-0.175,-0.02
21:19:07.920,-0.145,-0.01
21:19:07.924,-0.115,0.0
21:19:07.928,-0.095,0.01
21:19:07.932,-0.065,0.03
21:19:07.936,-0.015,0.025
21:19:07.940,0.005,0.0
21:19:07.944,0.005,0.005
21:19:07.948,0.03,0.015
21:19:07.952,0.015,0.01
21:19:07.956,-0.005,-0.025
21:19:07.960,-0.06,-0.05
21:19:07.964,-0.115,-0.05
21:19:07.968,-0.15,-0.06
21:19:07.972,-0.2,-0.065
21:19:07.976,-0.24,-0.065
21:19:07.980,-0.285,-0.055
21:19:07.984,-0.335,-0.03
21:19:07.988,-0.35,-0.015
21:19:07.992,-0.345,-0.04
21:19:07.996,-0.355,-0.03
21:19:08.000,-0.37,-0.025
21:19:08.004,-0.37,-0.035
21:19:08.008,-0.34,-0.04
21:19:08.012,-0.36,-0.03
21:19:08.016,-0.345,-0.045
21:19:08.020,-0.35,-0.05
21:19:08.024,-0.345,-0.045
21:19:08.028,-0.36,-0.06
21:19:08.032,-0.35,-0.07
21:19:08.036,-0.345,-0.075
21:19:08.040,-0.345,-0.055
21:19:08.044,-0.36,-0.08
21:19:08.048,-0.34,-0.08
21:19:08.052,-0.345,-0.085
21:19:08.056,-0.34,-0.09
21:19:08.060,-0.33,-0.08
21:19:08.064,-0.35,-0.07
21:19:08.068,-0.34,-0.095
21:19:08.072,-0.34,-0.105
21:19:08.076,-0.33,-0.085
21:19:08.080,-0.34,-0.095
21:19:08.084,-0.33,-0.085
21:19:08.088,-0.305,-0.065
21:19:08.092,-0.285,-0.065
21:19:08.096,-0.25,-0.105
21:19:08.100,-0.19,-0.09
21:19:08.104,-0.145,-0.07
21:19:08.108,-0.035,-0.08
21:19:08.112,0.035,-0.1
21:19:08.116,0.09,-0.11
21:19:08.120,0.12,-0.17
21:19:08.124,0.15,-0.19
21:19:08.128,0.15,-0.185
21:19:08.132,0.15,-0.225
21:19:08.136,0.155,-0.29
21:19:08.140,0.245,-0.455
21:19:08.144,0.495,-0.645
21:19:08.148,0.83,-0.9
21:19:08.152,1.045,-1.11
21:19:08.156,1.02,-1.25
21:19:08.160,0.705,-1.17
21:19:08.164,0.22,-0.82
21:19:08.168,-0.15,-0.465
21:19:08.172,-0.32,-0.235
21:19:08.176,-0.405,-0.105
21:19:08.180,-0.445,-0.015
21:19:08.184,-0.46,0.04
21:19:08.188,-0.455,0.06
21:19:08.192,-0.475,0.07
21:19:08.196,-0.475,0.055
21:19:08.200,-0.495,0.06
21:19:08.204,-0.475,0.06
21:19:08.208,-0.48,0.04
21:19:08.212,-0.46,0.04
21:19:08.216,-0.49,0.045
21:19:08.220,-0.48,0.065
21:19:08.224,-0.485,0.05
21:19:08.228,-0.48,0.025
21:19:08.232,-0.48,0.045
21:19:08.236,-0.505,0.045
21:19:08.240,-0.495,0.05
21:19:08.244,-0.505,0.03
21:19:08.248,-0.51,0.03
21:19:08.252,-0.495,0.035
21:19:08.256,-0.52,0.02
21:19:08.260,-0.525,0.005
21:19:08.264,-0.54,0.015
21:19:08.268,-0.55,0.02
21:19:08.272,-0.525,0.0
21:19:08.276,-0.53,0.0
21:19:08.280,-0.51,-0.015
21:19:08.284,-0.545,-0.025
21:19:08.288,-0.55,0.0
21:19:08.292,-0.56,0.01
21:19:08.296,-0.58,0.01
21:19:08.300,-0.56,0.0
21:19:08.304,-0.56,0.0
21:19:08.308,-0.57,0.01
21:19:08.312,-0.565,-0.01
21:19:08.316,-0.555,-0.005
21:19:08.320,-0.545,0.01
21:19:08.324,-0.54,0.015
21:19:08.328,-0.54,0.01
21:19:08.332,-0.53,0.0
21:19:08.336,-0.51,0.005
21:19:08.340,-0.505,0.0
21:19:08.344,-0.505,0.005
21:19:08.348,-0.495,0.005
21:19:08.352,-0.48,0.0
21:19:08.356,-0.485,-0.02
21:19:08.360,-0.475,-0.04
21:19:08.364,-0.475,-0.03
21:19:08.368,-0.49,-0.04
21:19:08.372,-0.465,-0.03
21:19:08.376,-0.45,-0.05
21:19:08.380,-0.44,-0.05
21:19:08.384,-0.42,-0.045
21:19:08.388,-0.395,-0.06
21:19:08.392,-0.41,-0.085
21:19:08.396,-0.39,-0.06
21:19:08.400,-0.39,-0.08
21:19:08.404,-0.345,-0.085
21:19:08.408,-0.35,-0.075
21:19:08.412,-0.32,-0.095
21:19:08.416,-0.335,-0.095
21:19:08.420,-0.35,-0.065
21:19:08.424,-0.345,-0.08
21:19:08.428,-0.315,-0.085
21:19:08.432,-0.295,-0.07
21:19:08.436,-0.3,-0.09
21:19:08.440,-0.29,-0.065
21:19:08.444,-0.305,-0.07
21:19:08.448,-0.29,-0.085
21:19:08.452,-0.29,-0.1
21:19:08.456,-0.3,-0.105
21:19:08.460,-0.26,-0.08
21:19:08.464,-0.285,-0.09
21:19:08.468,-0.285,-0.095
21:19:08.472,-0.29,-0.1
21:19:08.476,-0.28,-0.12
21:19:08.480,-0.305,-0.105
21:19:08.484,-0.3,-0.105
21:19:08.488,-0.3,-0.145
21:19:08.492,-0.29,-0.115
21:19:08.496,-0.3,-0.12
21:19:08.500,-0.3,-0.145
21:19:08.504,-0.3,-0.155
21:19:08.508,-0.3,-0.13
21:19:08.512,-0.32,-0.14
21:19:08.516,-0.315,-0.15
21:19:08.520,-0.32,-0.155
21:19:08.524,-0.31,-0.14
21:19:08.528,-0.31,-0.16
21:19:08.532,-0.28,-0.145
21:19:08.536,-0.255,-0.16
21:19:08.540,-0.235,-0.145
21:19:08.544,-0.235,-0.175
21:19:08.548,-0.25,-0.135
21:19:08.552,-0.225,-0.16
21:19:08.556,-0.21,-0.14
21:19:08.560,-0.175,-0.13
21:19:08.564,-0.13,-0.125
21:19:08.568,-0.105,-0.11
21:19:08.572,-0.09,-0.11
21:19:08.576,-0.045,-0.125
21:19:08.580,-0.035,-0.14
21:19:08.584,-0.005,-0.115
21:19:08.588,0.0,-0.13
21:19:08.592,-0.01,-0.155
21:19:08.596,-0.045,-0.195
21:19:08.600,-0.075,-0.23
21:19:08.604,-0.115,-0.22
21:19:08.608,-0.17,-0.24
21:19:08.612,-0.255,-0.25
21:19:08.616,-0.3,-0.24
21:19:08.620,-0.365,-0.235
21:19:08.624,-0.4,-0.25
21:19:08.628,-0.415,-0.225
21:19:08.632,-0.445,-0.22
21:19:08.636,-0.435,-0.245
21:19:08.640,-0.425,-0.26
21:19:08.644,-0.4,-0.27
21:19:08.648,-0.385,-0.255
21:19:08.652,-0.39,-0.285
21:19:08.656,-0.365,-0.27
21:19:08.660,-0.4,-0.27
21:19:08.664,-0.39,-0.285
21:19:08.668,-0.395,-0.27
21:19:08.672,-0.375,-0.3
21:19:08.676,-0.365,-0.28
21:19:08.680,-0.385,-0.295
21:19:08.684,-0.365,-0.285
21:19:08.688,-0.37,-0.315
21:19:08.692,-0.365,-0.32
21:19:08.696,-0.37,-0.32
21:19:08.700,-0.39,-0.33
21:19:08.704,-0.385,-0.325
21:19:08.708,-0.38,-0.34
21:19:08.712,-0.405,-0.33
21:19:08.716,-0.385,-0.33
21:19:08.720,-0.375,-0.35
21:19:08.724,-0.37,-0.335
21:19:08.728,-0.34,-0.35
21:19:08.732,-0.35,-0.365
21:19:08.736,-0.31,-0.365
21:19:08.740,-0.25,-0.365
21:19:08.744,-0.19,-0.375
21:19:08.748,-0.1,-0.345
21:19:08.752,0.01,-0.365
21:19:08.756,0.105,-0.425
21:19:08.760,0.165,-0.44
21:19:08.764,0.21,-0.48
21:19:08.768,0.225,-0.48
21:19:08.772,0.215,-0.47
21:19:08.776,0.19,-0.535
21:19:08.780,0.275,-0.615
21:19:08.784,0.545,-0.78
21:19:08.788,0.87,-1.005
21:19:08.792,1.05,-1.23
21:19:08.796,1.005,-1.38
21:19:08.800,0.655,-1.35
21:19:08.804,0.16,-1.075
21:19:08.808,-0.19,-0.75
21:19:08.812,-0.315,-0.58
21:19:08.816,-0.39,-0.48
21:19:08.820,-0.4,-0.415
21:19:08.824,-0.415,-0.34
21:19:08.828,-0.45,-0.31
21:19:08.832,-0.465,-0.31
21:19:08.836,-0.495,-0.345
21:19:08.840,-0.515,-0.335
21:19:08.844,-0.52,-0.36
21:19:08.848,-0.505,-0.37
21:19:08.852,-0.535,-0.41
21:19:08.856,-0.53,-0.4
21:19:08.860,-0.535,-0.41
21:19:08.864,-0.545,-0.41
21:19:08.868,-0.52,-0.395
21:19:08.872,-0.545,-0.41
21:19:08.876,-0.545,-0.415
21:19:08.880,-0.545,-0.425
21:19:08.884,-0.53,-0.43
21:19:08.888,-0.535,-0.41
21:19:08.892,-0.565,-0.42
21:19:08.896,-0.545,-0.42
21:19:08.900,-0.555,-0.43
21:19:08.904,-0.565,-0.44
21:19:08.908,-0.59,-0.455
21:19:08.912,-0.595,-0.44
21:19:08.916,-0.58,-0.45
21:19:08.920,-0.58,-0.465
21:19:08.924,-0.6,-0.445
21:19:08.928,-0.615,-0.46
21:19:08.932,-0.615,-0.455
21:19:08.936,-0.64,-0.465
21:19:08.940,-0.61,-0.485
21:19:08.944,-0.63,-0.485
21:19:08.948,-0.63,-0.48
21:19:08.952,-0.62,-0.465
21:19:08.956,-0.63,-0.475
21:19:08.960,-0.64,-0.48
21:19:08.964,-0.62,-0.475
21:19:08.968,-0.61,-0.46
21:19:08.972,-0.605,-0.48
21:19:08.976,-0.605,-0.475
21:19:08.980,-0.605,-0.47
21:19:08.984,-0.565,-0.46
21:19:08.988,-0.555,-0.465
21:19:08.992,-0.55,-0.475
21:19:08.996,-0.54,-0.49
21:19:09.000,-0.525,-0.495
21:19:09.004,-0.51,-0.495
21:19:09.008,-0.505,-0.505
21:19:09.012,-0.48,-0.485
21:19:09.016,-0.46,-0.485
21:19:09.020,-0.465,-0.47
21:19:09.024,-0.435,-0.5
21:19:09.028,-0.44,-0.51
21:19:09.032,-0.45,-0.49
21:19:09.036,-0.46,-0.505
21:19:09.040,-0.445,-0.485
21:19:09.044,-0.41,-0.495
21:19:09.048,-0.405,-0.505
21:19:09.052,-0.405,-0.515
21:19:09.056,-0.37,-0.505
21:19:09.060,-0.375,-0.505
21:19:09.064,-0.36,-0.49
21:19:09.068,-0.355,-0.48
21:19:09.072,-0.355,-0.52
21:19:09.076,-0.34,-0.46
21:19:09.080,-0.34,-0.49
21:19:09.084,-0.33,-0.485
21:19:09.088,-0.34,-0.48
21:19:09.092,-0.33,-0.49
21:19:09.096,-0.31,-0.505
21:19:09.100,-0.295,-0.46
21:19:09.104,-0.28,-0.465
21:19:09.108,-0.285,-0.475
21:19:09.112,-0.285,-0.465
21:19:09.116,-0.29,-0.465
21:19:09.120,-0.29,-0.45
21:19:09.124,-0.305,-0.435
21:19:09.128,-0.295,-0.445
21:19:09.132,-0.28,-0.435
21:19:09.136,-0.295,-0.4
21:19:09.140,-0.295,-0.42
21:19:09.144,-0.29,-0.425
21:19:09.148,-0.28,-0.405
21:19:09.152,-0.3,-0.39
21:19:09.156,-0.31,-0.405
21:19:09.160,-0.32,-0.395
21:19:09.164,-0.315,-0.38
21:19:09.168,-0.305,-0.42
21:19:09.172,-0.29,-0.41
21:19:09.176,-0.29,-0.385
21:19:09.180,-0.28,-0.39
21:19:09.184,-0.28,-0.39
21:19:09.188,-0.26,-0.38
21:19:09.192,-0.245,-0.375
21:19:09.196,-0.235,-0.35
21:19:09.200,-0.225,-0.355
21:19:09.204,-0.185,-0.345
21:19:09.208,-0.165,-0.32
21:19:09.212,-0.09,-0.31
21:19:09.216,-0.08,-0.28
21:19:09.220,-0.05,-0.26
21:19:09.224,-0.02,-0.265
21:19:09.228,0.0,-0.265
21:19:09.232,0.04,-0.235
21:19:09.236,0.06,-0.24
21:19:09.240,0.04,-0.225
21:19:09.244,0.02,-0.255
21:19:09.248,-0.03,-0.28
21:19:09.252,-0.08,-0.29
21:19:09.256,-0.125,-0.29
21:19:09.260,-0.19,-0.3
21:19:09.264,-0.24,-0.27
21:19:09.268,-0.31,-0.265
21:19:09.272,-0.33,-0.27
21:19:09.276,-0.35,-0.25
21:19:09.280,-0.375,-0.24
21:19:09.284,-0.385,-0.255
21:19:09.288,-0.365,-0.235
21:19:09.292,-0.365,-0.26
21:19:09.296,-0.33,-0.25
21:19:09.300,-0.33,-0.235
21:19:09.304,-0.34,-0.235
21:19:09.308,-0.32,-0.245
21:19:09.312,-0.33,-0.205
21:19:09.316,-0.31,-0.195
21:19:09.320,-0.305,-0.21
21:19:09.324,-0.27,-0.21
21:19:09.328,-0.28,-0.18
21:19:09.332,-0.285,-0.195
21:19:09.336,-0.265,-0.19
21:19:09.340,-0.29,-0.165
21:19:09.344,-0.27,-0.155
21:19:09.348,-0.275,-0.175
21:19:09.352,-0.28,-0.175
21:19:09.356,-0.26,-0.165
21:19:09.360,-0.27,-0.17
21:19:09.364,-0.26,-0.16
21:19:09.368,-0.265,-0.165
21:19:09.372,-0.265,-0.17
21:19:09.376,-0.26,-0.185
21:19:09.380,-0.24,-0.17
21:19:09.384,-0.22,-0.16
21:19:09.388,-0.185,-0.155
21:19:09.392,-0.11,-0.17
21:19:09.396,0.0,-0.175
21:19:09.400,0.07,-0.22
21:19:09.404,0.14,-0.23
21:19:09.408,0.2,-0.295
21:19:09.412,0.255,-0.3
21:19:09.416,0.29,-0.305
21:19:09.420,0.3,-0.33
21:19:09.424,0.28,-0.385
21:19:09.428,0.33,-0.445
21:19:09.432,0.5,-0.615
21:19:09.436,0.815,-0.82
21:19:09.440,1.095,-1.04
21:19:09.444,1.22,-1.225
21:19:09.448,1.04,-1.275
21:19:09.452,0.615,-1.05
21:19:09.456,0.145,-0.715
21:19:09.460,-0.125,-0.435
21:19:09.464,-0.225,-0.275
21:19:09.468,-0.28,-0.18
21:19:09.472,-0.31,-0.09
21:19:09.476,-0.31,-0.02
21:19:09.480,-0.34,0.0
21:19:09.484,-0.35,-0.03
21:19:09.488,-0.365,-0.03
21:19:09.492,-0.375,-0.05
21:19:09.496,-0.38,-0.065
21:19:09.500,-0.395,-0.06
21:19:09.504,-0.38,-0.075
21:19:09.508,-0.38,-0.055
21:19:09.512,-0.39,-0.055
21:19:09.516,-0.39,-0.06
21:19:09.520,-0.385,-0.075
21:19:09.524,-0.375,-0.055
21:19:09.528,-0.38,-0.065
21:19:09.532,-0.39,-0.06
21:19:09.536,-0.405,-0.055
21:19:09.540,-0.395,-0.065
21:19:09.544,-0.39,-0.035
21:19:09.548,-0.395,-0.06
21:19:09.552,-0.38,-0.045
21:19:09.556,-0.385,-0.05
21:19:09.560,-0.375,-0.04
21:19:09.564,-0.385,-0.03
21:19:09.568,-0.385,-0.02
21:19:09.572,-0.395,-0.025
21:19:09.576,-0.395,-0.025
21:19:09.580,-0.41,-0.045
21:19:09.584,-0.38,-0.035
21:19:09.588,-0.405,-0.01
21:19:09.592,-0.415,-0.04
21:19:09.596,-0.425,-0.05
21:19:09.600,-0.425,-0.025
21:19:09.604,-0.43,-0.04
21:19:09.608,-0.44,-0.04
21:19:09.612,-0.44,-0.01
21:19:09.616,-0.44,-0.02
21:19:09.620,-0.44,-0.03
21:19:09.624,-0.415,-0.035
21:19:09.628,-0.405,-0.065
21:19:09.632,-0.4,-0.035
21:19:09.636,-0.39,-0.045
21:19:09.640,-0.385,-0.035
21:19:09.644,-0.38,-0.07
21:19:09.648,-0.365,-0.05
21:19:09.652,-0.345,-0.06
21:19:09.656,-0.335,-0.045
21:19:09.660,-0.33,-0.055
21:19:09.664,-0.31,-0.07
21:19:09.668,-0.29,-0.065
21:19:09.672,-0.275,-0.065
21:19:09.676,-0.275,-0.085
21:19:09.680,-0.235,-0.095
21:19:09.684,-0.225,-0.085
21:19:09.688,-0.215,-0.1
21:19:09.692,-0.2,-0.1
21:19:09.696,-0.19,-0.11
21:19:09.700,-0.185,-0.105
21:19:09.704,-0.18,-0.1
21:19:09.708,-0.17,-0.105
21:19:09.712,-0.16,-0.09
21:19:09.716,-0.17,-0.105
21:19:09.720,-0.16,-0.095
21:19:09.724,-0.175,-0.1
21:19:09.728,-0.15,-0.095
21:19:09.732,-0.165,-0.105
21:19:09.736,-0.17,-0.11
21:19:09.740,-0.15,-0.085
21:19:09.744,-0.14,-0.095
21:19:09.748,-0.14,-0.105
21:19:09.752,-0.14,-0.085
21:19:09.756,-0.155,-0.085
21:19:09.760,-0.14,-0.08
21:19:09.764,-0.15,-0.05
21:19:09.768,-0.135,-0.075
21:19:09.772,-0.135,-0.065
21:19:09.776,-0.12,-0.075
21:19:09.780,-0.13,-0.05
21:19:09.784,-0.14,-0.065
21:19:09.788,-0.14,-0.055
21:19:09.792,-0.145,-0.08
21:19:09.796,-0.125,-0.055
21:19:09.800,-0.145,-0.055
21:19:09.804,-0.12,-0.06
21:19:09.808,-0.1,-0.065
21:19:09.812,-0.105,-0.045
21:19:09.816,-0.115,-0.055
21:19:09.820,-0.105,-0.06
21:19:09.824,-0.08,-0.05
21:19:09.828,-0.09,-0.03
21:19:09.832,-0.035,-0.025
21:19:09.836,-0.01,-0.025
21:19:09.840,0.025,-0.01
21:19:09.844,0.03,-0.01
21:19:09.848,0.055,-0.025
21:19:09.852,0.085,-0.02
21:19:09.856,0.09,-0.02
21:19:09.860,0.095,-0.03
21:19:09.864,0.12,-0.04
21:19:09.868,0.07,-0.065
21:19:09.872,0.01,-0.08
21:19:09.876,-0.03,-0.1
21:19:09.880,-0.085,-0.08
21:19:09.884,-0.12,-0.1
21:19:09.888,-0.18,-0.095
21:19:09.892,-0.225,-0.075
21:19:09.896,-0.255,-0.055
21:19:09.900,-0.27,-0.05
21:19:09.904,-0.29,-0.05
21:19:09.908,-0.29,-0.025
21:19:09.912,-0.29,-0.055
21:19:09.916,-0.275,-0.065
21:19:09.920,-0.28,-0.05
21:19:09.924,-0.275,-0.05
21:19:09.928,-0.275,-0.07
21:19:09.932,-0.295,-0.065
21:19:09.936,-0.295,-0.06
21:19:09.940,-0.3,-0.065
21:19:09.944,-0.29,-0.1
21:19:09.948,-0.27,-0.085
21:19:09.952,-0.29,-0.07
21:19:09.956,-0.28,-0.065
21:19:09.960,-0.28,-0.08
21:19:09.964,-0.275,-0.09
21:19:09.968,-0.265,-0.065
21:19:09.972,-0.26,-0.075
21:19:09.976,-0.265,-0.09
21:19:09.980,-0.245,-0.08
21:19:09.984,-0.25,-0.07
21:19:09.988,-0.265,-0.075
21:19:09.992,-0.255,-0.07
21:19:09.996,-0.26,-0.07
21:19:10.000,-0.225,-0.08
21:19:10.004,-0.24,-0.085
21:19:10.008,-0.205,-0.085
21:19:10.012,-0.16,-0.08
21:19:10.016,-0.095,-0.08
21:19:10.020,-0.01,-0.07
21:19:10.024,0.055,-0.075
21:19:10.028,0.125,-0.125
21:19:10.032,0.185,-0.155
21:19:10.036,0.22,-0.2
21:19:10.040,0.225,-0.21
21:19:10.044,0.24,-0.2
21:19:10.048,0.21,-0.235
21:19:10.052,0.245,-0.36
21:19:10.056,0.37,-0.495
21:19:10.060,0.675,-0.73
21:19:10.064,0.995,-0.96
21:19:10.068,1.165,-1.195
21:19:10.072,1.055,-1.275
21:19:10.076,0.67,-1.105
21:19:10.080,0.175,-0.735
21:19:10.084,-0.125,-0.4
21:19:10.088,-0.255,-0.185
21:19:10.092,-0.31,-0.08
21:19:10.096,-0.325,0.015
21:19:10.100,-0.325,0.045
21:19:10.104,-0.35,0.055
21:19:10.108,-0.355,0.06
21:19:10.112,-0.335,0.075
21:19:10.116,-0.335,0.075
21:19:10.120,-0.335,0.07
21:19:10.124,-0.35,0.045
21:19:10.128,-0.365,0.04
21:19:10.132,-0.34,0.04
21:19:10.136,-0.325,0.035
21:19:10.140,-0.36,0.065
21:19:10.144,-0.335,0.06
21:19:10.148,-0.34,0.065
21:19:10.152,-0.34,0.07
21:19:10.156,-0.345,0.065
21:19:10.160,-0.36,0.055
21:19:10.164,-0.37,0.05
21:19:10.168,-0.4,0.065
21:19:10.172,-0.385,0.055
21:19:10.176,-0.395,0.055
21:19:10.180,-0.405,0.06
21:19:10.184,-0.39,0.06
21:19:10.188,-0.395,0.045
21:19:10.192,-0.41,0.045
21:19:10.196,-0.405,0.05
21:19:10.200,-0.415,0.055
21:19:10.204,-0.425,0.065
21:19:10.208,-0.415,0.035
21:19:10.212,-0.43,0.06
21:19:10.216,-0.43,0.06
21:19:10.220,-0.41,0.07
21:19:10.224,-0.43,0.065
21:19:10.228,-0.43,0.065
21:19:10.232,-0.39,0.065
21:19:10.236,-0.39,0.08
21:19:10.240,-0.405,0.095
21:19:10.244,-0.39,0.075
21:19:10.248,-0.395,0.08
21:19:10.252,-0.38,0.09
21:19:10.256,-0.39,0.08
21:19:10.260,-0.37,0.06
21:19:10.264,-0.355,0.07
21:19:10.268,-0.345,0.06
21:19:10.272,-0.34,0.05
21:19:10.276,-0.32,0.045
21:19:10.280,-0.32,0.05
21:19:10.284,-0.32,0.04
21:19:10.288,-0.3,0.03
21:19:10.292,-0.265,0.005
21:19:10.296,-0.26,0.0
21:19:10.300,-0.245,0.0
21:19:10.304,-0.235,-0.01
21:19:10.308,-0.225,-0.025
21:19:10.312,-0.205,-0.015
21:19:10.316,-0.205,0.005
21:19:10.320,-0.17,-0.015
21:19:10.324,-0.16,-0.015
21:19:10.328,-0.15,0.015
21:19:10.332,-0.14,0.015
21:19:10.336,-0.115,-0.01
21:19:10.340,-0.11,-0.02
21:19:10.344,-0.135,0.005
21:19:10.348,-0.13,0.01
21:19:10.352,-0.125,0.03
21:19:10.356,-0.125,0.005
21:19:10.360,-0.125,0.025
21:19:10.364,-0.13,0.045
21:19:10.368,-0.135,0.025
21:19:10.372,-0.14,0.04
21:19:10.376,-0.125,0.025
21:19:10.380,-0.13,0.015
21:19:10.384,-0.135,0.035
21:19:10.388,-0.14,0.045
21:19:10.392,-0.155,0.03
21:19:10.396,-0.155,0.06
21:19:10.400,-0.185,0.035
21:19:10.404,-0.185,0.05
21:19:10.408,-0.185,0.055
21:19:10.412,-0.165,0.05
21:19:10.416,-0.19,0.03
21:19:10.420,-0.2,0.04
21:19:10.424,-0.205,0.045
21:19:10.428,-0.2,0.055
21:19:10.432,-0.2,0.045
21:19:10.436,-0.225,0.045
21:19:10.440,-0.215,0.04
21:19:10.444,-0.21,0.06
21:19:10.448,-0.215,0.03
21:19:10.452,-0.2,0.05
21:19:10.456,-0.175,0.045
21:19:10.460,-0.15,0.05
21:19:10.464,-0.16,0.06
21:19:10.468,-0.13,0.035
21:19:10.472,-0.15,0.05
21:19:10.476,-0.135,0.04
21:19:10.480,-0.13,0.025
21:19:10.484,-0.11,0.06
21:19:10.488,-0.09,0.055
21:19:10.492,-0.04,0.065
21:19:10.496,-0.02,0.07
21:19:10.500,-0.005,0.1
21:19:10.504,0.0,0.085
21:19:10.508,0.04,0.08
21:19:10.512,0.045,0.075
21:19:10.516,0.04,0.085
21:19:10.520,0.06,0.045
21:19:10.524,0.015,0.015
21:19:10.528,-0.02,-0.015
21:19:10.532,-0.08,-0.02
21:19:10.536,-0.12,-0.025
21:19:10.540,-0.17,-0.04
21:19:10.544,-0.23,-0.06
21:19:10.548,-0.305,-0.03
21:19:10.552,-0.33,-0.01
21:19:10.556,-0.37,-0.015
21:19:10.560,-0.39,0.0
21:19:10.564,-0.365,-0.025
21:19:10.568,-0.34,-0.02
21:19:10.572,-0.33,-0.01
21:19:10.576,-0.31,-0.035
21:19:10.580,-0.32,-0.04
21:19:10.584,-0.33,-0.05
21:19:10.588,-0.31,-0.055
21:19:10.592,-0.31,-0.06
21:19:10.596,-0.33,-0.05
21:19:10.600,-0.3,-0.045
21:19:10.604,-0.295,-0.055
21:19:10.608,-0.3,-0.07
21:19:10.612,-0.315,-0.065
21:19:10.616,-0.305,-0.075
21:19:10.620,-0.29,-0.075
21:19:10.624,-0.33,-0.09
21:19:10.628,-0.33,-0.09
21:19:10.632,-0.305,-0.095
21:19:10.636,-0.275,-0.105
21:19:10.640,-0.275,-0.115
21:19:10.644,-0.275,-0.115
21:19:10.648,-0.285,-0.115
21:19:10.652,-0.28,-0.135
21:19:10.656,-0.255,-0.14
21:19:10.660,-0.245,-0.13
21:19:10.664,-0.235,-0.14
21:19:10.668,-0.175,-0.14
21:19:10.672,-0.06,-0.155
21:19:10.676,0.03,-0.16
21:19:10.680,0.14,-0.175
21:19:10.684,0.21,-0.195
21:19:10.688,0.265,-0.25
21:19:10.692,0.28,-0.255
21:19:10.696,0.315,-0.22
21:19:10.700,0.275,-0.265
21:19:10.704,0.29,-0.34
21:19:10.708,0.415,-0.485
21:19:10.712,0.695,-0.675
21:19:10.716,1.005,-0.92
21:19:10.720,1.15,-1.145
21:19:10.724,1.05,-1.225
21:19:10.728,0.645,-1.06
21:19:10.732,0.17,-0.745
21:19:10.736,-0.12,-0.48
21:19:10.740,-0.26,-0.34
21:19:10.744,-0.305,-0.21
21:19:10.748,-0.305,-0.12
21:19:10.752,-0.315,-0.075
21:19:10.756,-0.345,-0.075
21:19:10.760,-0.36,-0.075
21:19:10.764,-0.385,-0.085
21:19:10.768,-0.395,-0.095
21:19:10.772,-0.415,-0.125
21:19:10.776,-0.425,-0.135
21:19:10.780,-0.435,-0.16
21:19:10.784,-0.41,-0.18
21:19:10.788,-0.42,-0.155
21:19:10.792,-0.405,-0.16
21:19:10.796,-0.41,-0.16
21:19:10.800,-0.4,-0.16
21:19:10.804,-0.405,-0.165
21:19:10.808,-0.41,-0.195
21:19:10.812,-0.43,-0.18
21:19:10.816,-0.42,-0.185
21:19:10.820,-0.425,-0.18
21:19:10.824,-0.43,-0.205
21:19:10.828,-0.435,-0.18
21:19:10.832,-0.45,-0.18
21:19:10.836,-0.445,-0.205
21:19:10.840,-0.47,-0.18
21:19:10.844,-0.5,-0.2
21:19:10.848,-0.485,-0.2
21:19:10.852,-0.48,-0.215
21:19:10.856,-0.51,-0.21
21:19:10.860,-0.505,-0.21
21:19:10.864,-0.475,-0.24
21:19:10.868,-0.48,-0.22
21:19:10.872,-0.505,-0.22
21:19:10.876,-0.5,-0.215
21:19:10.880,-0.505,-0.24
21:19:10.884,-0.48,-0.24
21:19:10.888,-0.5,-0.235
21:19:10.892,-0.535,-0.235
21:19:10.896,-0.5,-0.245
21:19:10.900,-0.5,-0.245
21:19:10.904,-0.455,-0.21
21:19:10.908,-0.455,-0.235
21:19:10.912,-0.43,-0.245
21:19:10.916,-0.41,-0.255
21:19:10.920,-0.425,-0.24
21:19:10.924,-0.42,-0.265
21:19:10.928,-0.4,-0.26
21:19:10.932,-0.39,-0.255
21:19:10.936,-0.37,-0.255
21:19:10.940,-0.355,-0.29
21:19:10.944,-0.345,-0.28
21:19:10.948,-0.345,-0.3
21:19:10.952,-0.345,-0.33
21:19:10.956,-0.335,-0.32
21:19:10.960,-0.335,-0.335
21:19:10.964,-0.315,-0.34
21:19:10.968,-0.295,-0.36
21:19:10.972,-0.285,-0.35
21:19:10.976,-0.295,-0.375
21:19:10.980,-0.28,-0.375
21:19:10.984,-0.285,-0.37
21:19:10.988,-0.275,-0.39
21:19:10.992,-0.27,-0.41
21:19:10.996,-0.24,-0.4
21:19:11.000,-0.245,-0.395
21:19:11.004,-0.26,-0.385
21:19:11.008,-0.25,-0.41
21:19:11.012,-0.24,-0.385
21:19:11.016,-0.22,-0.38
21:19:11.020,-0.215,-0.39
21:19:11.024,-0.21,-0.405
21:19:11.028,-0.195,-0.395
21:19:11.032,-0.215,-0.405
21:19:11.036,-0.23,-0.38
21:19:11.040,-0.21,-0.365
21:19:11.044,-0.185,-0.37
21:19:11.048,-0.2,-0.375
21:19:11.052,-0.23,-0.37
21:19:11.056,-0.23,-0.385
21:19:11.060,-0.23,-0.4
21:19:11.064,-0.24,-0.42
21:19:11.068,-0.25,-0.41
21:19:11.072,-0.275,-0.395
21:19:11.076,-0.26,-0.38
21:19:11.080,-0.245,-0.385
21:19:11.084,-0.25,-0.395
21:19:11.088,-0.25,-0.395
21:19:11.092,-0.26,-0.41
21:19:11.096,-0.26,-0.425
21:19:11.100,-0.25,-0.425
21:19:11.104,-0.25,-0.425
21:19:11.108,-0.26,-0.42
21:19:11.112,-0.245,-0.425
21:19:11.116,-0.255,-0.43
21:19:11.120,-0.195,-0.41
21:19:11.124,-0.18,-0.42
21:19:11.128,-0.16,-0.44
21:19:11.132,-0.155,-0.43
21:19:11.136,-0.175,-0.43
21:19:11.140,-0.145,-0.46
21:19:11.144,-0.105,-0.42
21:19:11.148,-0.06,-0.43
21:19:11.152,-0.05,-0.405
21:19:11.156,-0.025,-0.395
21:19:11.160,0.015,-0.385
21:19:11.164,0.06,-0.405
21:19:11.168,0.07,-0.42
21:19:11.172,0.085,-0.405
21:19:11.176,0.1,-0.41
21:19:11.180,0.03,-0.43
21:19:11.184,-0.045,-0.44
21:19:11.188,-0.095,-0.475
21:19:11.192,-0.14,-0.47
21:19:11.196,-0.21,-0.5
21:19:11.200,-0.265,-0.49
21:19:11.204,-0.31,-0.485
21:19:11.208,-0.335,-0.465
21:19:11.212,-0.35,-0.465
21:19:11.216,-0.345,-0.47
21:19:11.220,-0.34,-0.475
21:19:11.224,-0.34,-0.47
21:19:11.228,-0.335,-0.455
21:19:11.232,-0.315,-0.485
21:19:11.236,-0.305,-0.48
21:19:11.240,-0.27,-0.46
21:19:11.244,-0.275,-0.455
21:19:11.248,-0.28,-0.45
21:19:11.252,-0.245,-0.425
21:19:11.256,-0.25,-0.46
21:19:11.260,-0.265,-0.445
21:19:11.264,-0.255,-0.455
21:19:11.268,-0.265,-0.445
21:19:11.272,-0.29,-0.425
21:19:11.276,-0.29,-0.42
21:19:11.280,-0.28,-0.425
21:19:11.284,-0.275,-0.405
21:19:11.288,-0.26,-0.415
21:19:11.292,-0.245,-0.415
21:19:11.296,-0.25,-0.4
21:19:11.300,-0.265,-0.395
21:19:11.304,-0.25,-0.38
21:19:11.308,-0.23,-0.385
21:19:11.312,-0.22,-0.385
21:19:11.316,-0.185,-0.4
21:19:11.320,-0.145,-0.37
21:19:11.324,-0.08,-0.375
21:19:11.328,0.01,-0.375
21:19:11.332,0.1,-0.385
21:19:11.336,0.225,-0.42
21:19:11.340,0.28,-0.455
21:19:11.344,0.34,-0.455
21:19:11.348,0.385,-0.425
21:19:11.352,0.4,-0.44
21:19:11.356,0.375,-0.475
21:19:11.360,0.42,-0.58
21:19:11.364,0.58,-0.71
21:19:11.368,0.875,-0.89
21:19:11.372,1.155,-1.145
21:19:11.376,1.24,-1.29
21:19:11.380,1.035,-1.315
21:19:11.384,0.565,-1.085
21:19:11.388,0.14,-0.74
21:19:11.392,-0.075,-0.515
21:19:11.396,-0.17,-0.35
21:19:11.400,-0.2,-0.255
21:19:11.404,-0.235,-0.16
21:19:11.408,-0.265,-0.11
21:19:11.412,-0.31,-0.065
21:19:11.416,-0.315,-0.085
21:19:11.420,-0.32,-0.07
21:19:11.424,-0.34,-0.11
21:19:11.428,-0.345,-0.115
21:19:11.432,-0.34,-0.11
21:19:11.436,-0.33,-0.105
21:19:11.440,-0.35,-0.1
21:19:11.444,-0.375,-0.095
21:19:11.448,-0.355,-0.105
21:19:11.452,-0.355,-0.1
21:19:11.456,-0.36,-0.105
21:19:11.460,-0.36,-0.1
21:19:11.464,-0.365,-0.115
21:19:11.468,-0.355,-0.095
21:19:11.472,-0.335,-0.075
21:19:11.476,-0.365,-0.07
21:19:11.480,-0.35,-0.065
21:19:11.484,-0.34,-0.08
21:19:11.488,-0.36,-0.06
21:19:11.492,-0.37,-0.05
21:19:11.496,-0.38,-0.045
21:19:11.500,-0.365,-0.05
21:19:11.504,-0.375,-0.05
21:19:11.508,-0.38,-0.055
21:19:11.512,-0.385,-0.05
21:19:11.516,-0.4,-0.04
21:19:11.520,-0.38,-0.045
21:19:11.524,-0.4,-0.03
21:19:11.528,-0.4,-0.005
21:19:11.532,-0.4,-0.03
21:19:11.536,-0.4,-0.02
21:19:11.540,-0.385,-0.055
21:19:11.544,-0.395,-0.02
21:19:11.548,-0.385,-0.02
21:19:11.552,-0.37,-0.035
21:19:11.556,-0.355,-0.03
21:19:11.560,-0.34,-0.02
21:19:11.564,-0.355,-0.01
21:19:11.568,-0.335,-0.04
21:19:11.572,-0.33,-0.035
21:19:11.576,-0.32,-0.025
21:19:11.580,-0.305,-0.04
21:19:11.584,-0.265,-0.02
21:19:11.588,-0.26,-0.03
21:19:11.592,-0.27,-0.03
21:19:11.596,-0.235,-0.04
21:19:11.600,-0.235,-0.05
21:19:11.604,-0.215,-0.06
21:19:11.608,-0.225,-0.05
21:19:11.612,-0.19,-0.06
21:19:11.616,-0.175,-0.08
21:19:11.620,-0.16,-0.08
21:19:11.624,-0.15,-0.075
21:19:11.628,-0.145,-0.09
21:19:11.632,-0.155,-0.07
21:19:11.636,-0.145,-0.08
21:19:11.640,-0.145,-0.085
21:19:11.644,-0.125,-0.075
21:19:11.648,-0.12,-0.085
21:19:11.652,-0.115,-0.075
21:19:11.656,-0.145,-0.08
21:19:11.660,-0.12,-0.09
21:19:11.664,-0.1,-0.065
21:19:11.668,-0.09,-0.055
21:19:11.672,-0.08,-0.045
21:19:11.676,-0.09,-0.07
21:19:11.680,-0.065,-0.065
21:19:11.684,-0.08,-0.06
21:19:11.688,-0.065,-0.035
21:19:11.692,-0.065,-0.04
21:19:11.696,-0.05,-0.035
21:19:11.700,-0.06,-0.04
21:19:11.704,-0.065,-0.03
21:19:11.708,-0.055,-0.015
21:19:11.712,-0.035,0.0
21:19:11.716,-0.05,-0.01
21:19:11.720,-0.06,0.0
21:19:11.724,-0.045,-0.005
21:19:11.728,-0.065,-0.005
21:19:11.732,-0.065,-0.01
21:19:11.736,-0.075,-0.02
21:19:11.740,-0.06,-0.015
21:19:11.744,-0.08,0.0
21:19:11.748,-0.07,-0.015
21:19:11.752,-0.05,-0.005
21:19:11.756,-0.06,0.0
21:19:11.760,-0.03,-0.025
21:19:11.764,-0.035,-0.005
21:19:11.768,-0.03,-0.02
21:19:11.772,-0.025,-0.015
21:19:11.776,-0.005,-0.015
21:19:11.780,0.025,0.0
21:19:11.784,0.05,0.015
21:19:11.788,0.085,0.02
21:19:11.792,0.12,0.025
21:19:11.796,0.14,0.045
21:19:11.800,0.165,0.055
21:19:11.804,0.19,0.045
21:19:11.808,0.195,0.065
21:19:11.812,0.21,0.05
21:19:11.816,0.19,0.025
21:19:11.820,0.165,0.01
21:19:11.824,0.105,0.0
21:19:11.828,0.065,-0.02
21:19:11.832,0.01,-0.015
21:19:11.836,-0.045,-0.015
21:19:11.840,-0.11,-0.015
21:19:11.844,-0.14,-0.005
21:19:11.848,-0.18,0.02
21:19:11.852,-0.2,-0.005
21:19:11.856,-0.215,0.0
21:19:11.860,-0.195,0.0
21:19:11.864,-0.21,-0.01
21:19:11.868,-0.19,-0.015
21:19:11.872,-0.2,-0.005
21:19:11.876,-0.195,-0.025
21:19:11.880,-0.19,-0.035
21:19:11.884,-0.2,-0.035
21:19:11.888,-0.2,-0.035
21:19:11.892,-0.2,-0.035
21:19:11.896,-0.215,-0.04
21:19:11.900,-0.205,-0.04
21:19:11.904,-0.205,-0.03
21:19:11.908,-0.205,-0.035
21:19:11.912,-0.205,-0.04
21:19:11.916,-0.185,-0.025
21:19:11.920,-0.19,-0.04
21:19:11.924,-0.185,-0.03
21:19:11.928,-0.175,-0.02
21:19:11.932,-0.17,-0.015
21:19:11.936,-0.17,-0.01
21:19:11.940,-0.165,-0.005
21:19:11.944,-0.165,-0.015
21:19:11.948,-0.17,-0.01
21:19:11.952,-0.145,-0.03
21:19:11.956,-0.13,-0.015
21:19:11.960,-0.09,-0.005
21:19:11.964,-0.025,-0.005
21:19:11.968,0.045,-0.005
21:19:11.972,0.13,-0.035
21:19:11.976,0.2,-0.065
21:19:11.980,0.25,-0.1
21:19:11.984,0.275,-0.125
21:19:11.988,0.3,-0.135
21:19:11.992,0.29,-0.185
21:19:11.996,0.275,-0.25
21:19:12.000,0.35,-0.365
21:19:12.004,0.555,-0.56
21:19:12.008,0.905,-0.825
21:19:12.012,1.15,-1.035
21:19:12.016,1.24,-1.18
21:19:12.020,1.03,-1.145
21:19:12.024,0.55,-0.845
21:19:12.028,0.11,-0.455
21:19:12.032,-0.115,-0.23
21:19:12.036,-0.205,-0.045
21:19:12.040,-0.22,0.04
21:19:12.044,-0.23,0.105
21:19:12.048,-0.28,0.135
21:19:12.052,-0.295,0.155
21:19:12.056,-0.32,0.16
21:19:12.060,-0.305,0.15
21:19:12.064,-0.315,0.16
21:19:12.068,-0.305,0.12
21:19:12.072,-0.33,0.115
21:19:12.076,-0.33,0.13
21:19:12.080,-0.34,0.095
21:19:12.084,-0.33,0.095
21:19:12.088,-0.34,0.1
21:19:12.092,-0.36,0.11
21:19:12.096,-0.355,0.11
21:19:12.100,-0.36,0.12
21:19:12.104,-0.36,0.1
21:19:12.108,-0.345,0.11
21:19:12.112,-0.355,0.115
21:19:12.116,-0.355,0.11
21:19:12.120,-0.355,0.095
21:19:12.124,-0.38,0.11
21:19:12.128,-0.37,0.115
21:19:12.132,-0.365,0.115
21:19:12.136,-0.37,0.13
21:19:12.140,-0.36,0.13
21:19:12.144,-0.385,0.13
21:19:12.148,-0.375,0.12
21:19:12.152,-0.37,0.1
21:19:12.156,-0.375,0.13
21:19:12.160,-0.38,0.12
21:19:12.164,-0.385,0.145
21:19:12.168,-0.365,0.15
21:19:12.172,-0.38,0.135
21:19:12.176,-0.39,0.11
21:19:12.180,-0.4,0.145
21:19:12.184,-0.395,0.125
21:19:12.188,-0.38,0.145
21:19:12.192,-0.39,0.15
21:19:12.196,-0.375,0.15
21:19:12.200,-0.355,0.14
21:19:12.204,-0.375,0.11
21:19:12.208,-0.37,0.125
21:19:12.212,-0.375,0.1
21:19:12.216,-0.34,0.125
21:19:12.220,-0.325,0.105
21:19:12.224,-0.33,0.09
21:19:12.228,-0.32,0.105
21:19:12.232,-0.295,0.09
21:19:12.236,-0.285,0.055
21:19:12.240,-0.275,0.06
21:19:12.244,-0.26,0.065
21:19:12.248,-0.25,0.05
21:19:12.252,-0.235,0.055
21:19:12.256,-0.205,0.045
21:19:12.260,-0.185,0.055
21:19:12.264,-0.18,0.045
21:19:12.268,-0.185,0.035
21:19:12.272,-0.155,0.045
21:19:12.276,-0.15,0.04
21:19:12.280,-0.145,0.06
21:19:12.284,-0.15,0.08
21:19:12.288,-0.155,0.085
21:19:12.292,-0.125,0.075
21:19:12.296,-0.125,0.06
21:19:12.300,-0.135,0.06
21:19:12.304,-0.13,0.07
21:19:12.308,-0.12,0.07
21:19:12.312,-0.14,0.085
21:19:12.316,-0.13,0.045
21:19:12.320,-0.14,0.065
21:19:12.324,-0.14,0.09
21:19:12.328,-0.15,0.09
21:19:12.332,-0.145,0.07
21:19:12.336,-0.105,0.075
21:19:12.340,-0.11,0.07
21:19:12.344,-0.13,0.065
21:19:12.348,-0.13,0.115
21:19:12.352,-0.115,0.09
21:19:12.356,-0.135,0.1
21:19:12.360,-0.145,0.09
21:19:12.364,-0.14,0.09
21:19:12.368,-0.14,0.12
21:19:12.372,-0.11,0.105
21:19:12.376,-0.095,0.095
21:19:12.380,-0.075,0.125
21:19:12.384,-0.08,0.12
21:19:12.388,-0.08,0.145
21:19:12.392,-0.07,0.13
21:19:12.396,-0.06,0.16
21:19:12.400,-0.03,0.155
21:19:12.404,0.005,0.155
21:19:12.408,0.02,0.18
21:19:12.412,0.04,0.185
21:19:12.416,0.08,0.2
21:19:12.420,0.095,0.195
21:19:12.424,0.12,0.175
21:19:12.428,0.115,0.19
21:19:12.432,0.13,0.17
21:19:12.436,0.12,0.155
21:19:12.440,0.1,0.11
21:19:12.444,0.055,0.11
21:19:12.448,0.01,0.1
21:19:12.452,-0.035,0.09
21:19:12.456,-0.115,0.095
21:19:12.460,-0.165,0.11
21:19:12.464,-0.19,0.1
21:19:12.468,-0.245,0.12
21:19:12.472,-0.25,0.14
21:19:12.476,-0.265,0.12
21:19:12.480,-0.255,0.1
21:19:12.484,-0.24,0.1
21:19:12.488,-0.24,0.105
21:19:12.492,-0.23,0.11
21:19:12.496,-0.24,0.07
21:19:12.500,-0.235,0.095
21:19:12.504,-0.215,0.11
21:19:12.508,-0.225,0.105
21:19:12.512,-0.25,0.09
21:19:12.516,-0.23,0.1
21:19:12.520,-0.24,0.09
21:19:12.524,-0.25,0.07
21:19:12.528,-0.22,0.07
21:19:12.532,-0.225,0.08
21:19:12.536,-0.235,0.09
21:19:12.540,-0.24,0.1
21:19:12.544,-0.27,0.055
21:19:12.548,-0.255,0.08
21:19:12.552,-0.26,0.08
21:19:12.556,-0.27,0.08
21:19:12.560,-0.26,0.06
21:19:12.564,-0.25,0.045
21:19:12.568,-0.245,0.06
21:19:12.572,-0.24,0.08
21:19:12.576,-0.235,0.06
21:19:12.580,-0.2,0.07
21:19:12.584,-0.14,0.075
21:19:12.588,-0.06,0.07
21:19:12.592,0.035,0.055
21:19:12.596,0.105,0.04
21:19:12.600,0.17,0.02
21:19:12.604,0.21,-0.01
21:19:12.608,0.24,-0.045
21:19:12.612,0.28,-0.045
21:19:12.616,0.25,-0.09
21:19:12.620,0.23,-0.155
21:19:12.624,0.33,-0.31
21:19:12.628,0.58,-0.495
21:19:12.632,0.9,-0.74
21:19:12.636,1.12,-0.97
21:19:12.640,1.115,-1.11
21:19:12.644,0.79,-1.0
21:19:12.648,0.29,-0.675
21:19:12.652,-0.07,-0.31
21:19:12.656,-0.245,-0.08
21:19:12.660,-0.29,0.045
21:19:12.664,-0.335,0.125
21:19:12.668,-0.34,0.175
21:19:12.672,-0.34,0.17
21:19:12.676,-0.36,0.19
21:19:12.680,-0.365,0.18
21:19:12.684,-0.39,0.17
21:19:12.688,-0.41,0.175
21:19:12.692,-0.41,0.17
21:19:12.696,-0.415,0.13
21:19:12.700,-0.41,0.115
21:19:12.704,-0.43,0.13
21:19:12.708,-0.43,0.11
21:19:12.712,-0.44,0.1
21:19:12.716,-0.42,0.1
21:19:12.720,-0.42,0.13
21:19:12.724,-0.42,0.11
21:19:12.728,-0.425,0.125
21:19:12.732,-0.45,0.115
21:19:12.736,-0.45,0.125
21:19:12.740,-0.475,0.13
21:19:12.744,-0.46,0.115
21:19:12.748,-0.47,0.105
21:19:12.752,-0.475,0.08
21:19:12.756,-0.47,0.1
21:19:12.760,-0.47,0.09
21:19:12.764,-0.48,0.09
21:19:12.768,-0.495,0.065
21:19:12.772,-0.495,0.065
21:19:12.776,-0.52,0.065
21:19:12.780,-0.525,0.07
21:19:12.784,-0.53,0.075
21:19:12.788,-0.535,0.085
21:19:12.792,-0.54,0.075
21:19:12.796,-0.54,0.06
21:19:12.800,-0.54,0.035
21:19:12.804,-0.53,0.05
21:19:12.808,-0.515,0.07
21:19:12.812,-0.515,0.055
21:19:12.816,-0.52,0.065
21:19:12.820,-0.495,0.045
21:19:12.824,-0.49,0.045
21:19:12.828,-0.49,0.035
21:19:12.832,-0.46,0.02
21:19:12.836,-0.465,0.035
21:19:12.840,-0.445,0.015
21:19:12.844,-0.42,-0.01
21:19:12.848,-0.435,0.0
21:19:12.852,-0.405,-0.02
21:19:12.856,-0.38,-0.035
21:19:12.860,-0.365,-0.02
21:19:12.864,-0.35,-0.035
21:19:12.868,-0.36,-0.045
21:19:12.872,-0.37,-0.045
21:19:12.876,-0.37,-0.04
21:19:12.880,-0.35,-0.08
21:19:12.884,-0.345,-0.08
21:19:12.888,-0.345,-0.085
21:19:12.892,-0.325,-0.09
21:19:12.896,-0.32,-0.085
21:19:12.900,-0.295,-0.115
21:19:12.904,-0.275,-0.09
21:19:12.908,-0.285,-0.12
21:19:12.912,-0.275,-0.125
21:19:12.916,-0.275,-0.12
21:19:12.920,-0.28,-0.135
21:19:12.924,-0.275,-0.125
21:19:12.928,-0.295,-0.13
21:19:12.932,-0.28,-0.12
21:19:12.936,-0.27,-0.12
21:19:12.940,-0.25,-0.14
21:19:12.944,-0.24,-0.16
21:19:12.948,-0.23,-0.145
21:19:12.952,-0.26,-0.165
21:19:12.956,-0.245,-0.14
21:19:12.960,-0.245,-0.14
21:19:12.964,-0.28,-0.13
21:19:12.968,-0.255,-0.125
21:19:12.972,-0.255,-0.135
21:19:12.976,-0.25,-0.135
21:19:12.980,-0.24,-0.155
21:19:12.984,-0.22,-0.16
21:19:12.988,-0.21,-0.165
21:19:12.992,-0.26,-0.16
21:19:12.996,-0.295,-0.18
21:19:13.000,-0.305,-0.18
21:19:13.004,-0.305,-0.17
21:19:13.008,-0.305,-0.18
21:19:13.012,-0.27,-0.185
21:19:13.016,-0.26,-0.21
21:19:13.020,-0.23,-0.2
21:19:13.024,-0.24,-0.205
21:19:13.028,-0.24,-0.21
21:19:13.032,-0.235,-0.2
21:19:13.036,-0.205,-0.205
21:19:13.040,-0.165,-0.19
21:19:13.044,-0.13,-0.17
21:19:13.048,-0.1,-0.175
21:19:13.052,-0.06,-0.18
21:19:13.056,-0.04,-0.195
21:19:13.060,0.01,-0.165
21:19:13.064,0.035,-0.165
21:19:13.068,0.035,-0.175
21:19:13.072,0.015,-0.205
21:19:13.076,0.01,-0.22
21:19:13.080,-0.06,-0.25
21:19:13.084,-0.11,-0.26
21:19:13.088,-0.165,-0.28
21:19:13.092,-0.235,-0.29
21:19:13.096,-0.31,-0.29
21:19:13.100,-0.35,-0.285
21:19:13.104,-0.405,-0.28
21:19:13.108,-0.445,-0.275
21:19:13.112,-0.44,-0.29
21:19:13.116,-0.4,-0.285
21:19:13.120,-0.4,-0.3
21:19:13.124,-0.4,-0.32
21:19:13.128,-0.43,-0.355
21:19:13.132,-0.4,-0.35
21:19:13.136,-0.42,-0.365
21:19:13.140,-0.41,-0.35
21:19:13.144,-0.4,-0.355
21:19:13.148,-0.39,-0.365
21:19:13.152,-0.37,-0.36
21:19:13.156,-0.385,-0.375
21:19:13.160,-0.405,-0.385
21:19:13.164,-0.39,-0.39
21:19:13.168,-0.355,-0.385
21:19:13.172,-0.375,-0.38
21:19:13.176,-0.355,-0.375
21:19:13.180,-0.345,-0.36
21:19:13.184,-0.35,-0.4
21:19:13.188,-0.35,-0.385
21:19:13.192,-0.36,-0.395
21:19:13.196,-0.35,-0.4
21:19:13.200,-0.335,-0.375
21:19:13.204,-0.335,-0.4
21:19:13.208,-0.33,-0.39
21:19:13.212,-0.315,-0.415
21:19:13.216,-0.29,-0.395
21:19:13.220,-0.25,-0.4
21:19:13.224,-0.21,-0.4
21:19:13.228,-0.115,-0.44
21:19:13.232,0.01,-0.45
21:19:13.236,0.09,-0.465
21:19:13.240,0.14,-0.535
21:19:13.244,0.21,-0.535
21:19:13.248,0.265,-0.53
21:19:13.252,0.27,-0.545
21:19:13.256,0.225,-0.585
21:19:13.260,0.26,-0.655
21:19:13.264,0.41,-0.8
21:19:13.268,0.73,-1.01
21:19:13.272,1.005,-1.24
21:19:13.276,1.085,-1.41
21:19:13.280,0.8,-1.445
21:19:13.284,0.385,-1.22
21:19:13.288,-0.06,-0.885
21:19:13.292,-0.25,-0.665
21:19:13.296,-0.33,-0.54
21:19:13.300,-0.34,-0.445
21:19:13.304,-0.35,-0.36
21:19:13.308,-0.415,-0.335
21:19:13.312,-0.44,-0.315
21:19:13.316,-0.46,-0.335
21:19:13.320,-0.49,-0.325
21:19:13.324,-0.485,-0.33
21:19:13.328,-0.5,-0.36
21:19:13.332,-0.48,-0.375
21:19:13.336,-0.51,-0.36
21:19:13.340,-0.515,-0.39
21:19:13.344,-0.535,-0.395
21:19:13.348,-0.525,-0.38
21:19:13.352,-0.535,-0.37
21:19:13.356,-0.53,-0.37
21:19:13.360,-0.52,-0.395
21:19:13.364,-0.53,-0.38
21:19:13.368,-0.52,-0.37
21:19:13.372,-0.535,-0.38
21:19:13.376,-0.52,-0.38
21:19:13.380,-0.545,-0.385
21:19:13.384,-0.525,-0.375
21:19:13.388,-0.535,-0.36
21:19:13.392,-0.545,-0.37
21:19:13.396,-0.555,-0.36
21:19:13.400,-0.515,-0.365
21:19:13.404,-0.505,-0.345
21:19:13.408,-0.515,-0.34
21:19:13.412,-0.515,-0.345
21:19:13.416,-0.51,-0.345
21:19:13.420,-0.52,-0.315
21:19:13.424,-0.535,-0.305
21:19:13.428,-0.53,-0.29
21:19:13.432,-0.52,-0.31
21:19:13.436,-0.52,-0.28
21:19:13.440,-0.535,-0.26
21:19:13.444,-0.53,-0.28
21:19:13.448,-0.52,-0.265
21:19:13.452,-0.525,-0.25
21:19:13.456,-0.525,-0.26
21:19:13.460,-0.52,-0.26
21:19:13.464,-0.52,-0.26
21:19:13.468,-0.5,-0.255
21:19:13.472,-0.485,-0.24
21:19:13.476,-0.475,-0.245
21:19:13.480,-0.46,-0.27
21:19:13.484,-0.43,-0.265
21:19:13.488,-0.43,-0.25
21:19:13.492,-0.415,-0.23
21:19:13.496,-0.41,-0.25
21:19:13.500,-0.39,-0.23
21:19:13.504,-0.39,-0.24
21:19:13.508,-0.345,-0.235
21:19:13.512,-0.315,-0.25
21:19:13.516,-0.32,-0.235
21:19:13.520,-0.29,-0.22
21:19:13.524,-0.27,-0.24
21:19:13.528,-0.27,-0.235
21:19:13.532,-0.255,-0.23
21:19:13.536,-0.265,-0.23
21:19:13.540,-0.25,-0.22
21:19:13.544,-0.25,-0.21
21:19:13.548,-0.24,-0.2
21:19:13.552,-0.225,-0.185
21:19:13.556,-0.215,-0.205
21:19:13.560,-0.22,-0.2
21:19:13.564,-0.215,-0.18
21:19:13.568,-0.21,-0.19
21:19:13.572,-0.225,-0.185
21:19:13.576,-0.21,-0.165
21:19:13.580,-0.205,-0.165
21:19:13.584,-0.19,-0.175
21:19:13.588,-0.19,-0.17
21:19:13.592,-0.2,-0.175
21:19:13.596,-0.195,-0.185
21:19:13.600,-0.205,-0.165
21:19:13.604,-0.2,-0.15
21:19:13.608,-0.185,-0.145
21:19:13.612,-0.19,-0.13
21:19:13.616,-0.2,-0.13
21:19:13.620,-0.185,-0.135
21:19:13.624,-0.17,-0.13
21:19:13.628,-0.175,-0.12
21:19:13.632,-0.175,-0.12
21:19:13.636,-0.185,-0.115
21:19:13.640,-0.165,-0.115
21:19:13.644,-0.175,-0.11
21:19:13.648,-0.18,-0.115
21:19:13.652,-0.14,-0.105
21:19:13.656,-0.14,-0.105
21:19:13.660,-0.13,-0.095
21:19:13.664,-0.14,-0.08
21:19:13.668,-0.125,-0.08
21:19:13.672,-0.11,-0.085
21:19:13.676,-0.065,-0.06
21:19:13.680,-0.03,-0.07
21:19:13.684,-0.01,-0.065
21:19:13.688,0.005,-0.05
21:19:13.692,0.03,-0.055
21:19:13.696,0.06,-0.05
21:19:13.700,0.09,-0.03
21:19:13.704,0.095,-0.035
21:19:13.708,0.125,-0.035
21:19:13.712,0.075,-0.08
21:19:13.716,0.015,-0.095
21:19:13.720,-0.03,-0.11
21:19:13.724,-0.08,-0.115
21:19:13.728,-0.125,-0.11
21:19:13.732,-0.19,-0.14
21:19:13.736,-0.22,-0.12
21:19:13.740,-0.24,-0.115
21:19:13.744,-0.28,-0.1
21:19:13.748,-0.3,-0.09
21:19:13.752,-0.29,-0.08
21:19:13.756,-0.3,-0.1
21:19:13.760,-0.28,-0.09
21:19:13.764,-0.28,-0.095
21:19:13.768,-0.28,-0.09
21:19:13.772,-0.28,-0.11
21:19:13.776,-0.275,-0.11
21:19:13.780,-0.28,-0.12
21:19:13.784,-0.28,-0.115
21:19:13.788,-0.27,-0.125
21:19:13.792,-0.295,-0.115
21:19:13.796,-0.285,-0.115
21:19:13.800,-0.27,-0.1
21:19:13.804,-0.27,-0.105
21:19:13.808,-0.27,-0.13
21:19:13.812,-0.285,-0.125
21:19:13.816,-0.265,-0.135
21:19:13.820,-0.265,-0.13
21:19:13.824,-0.255,-0.135
21:19:13.828,-0.27,-0.125
21:19:13.832,-0.25,-0.135
21:19:13.836,-0.245,-0.15
21:19:13.840,-0.23,-0.11
21:19:13.844,-0.215,-0.13
21:19:13.848,-0.205,-0.115
21:19:13.852,-0.185,-0.115
21:19:13.856,-0.13,-0.125
21:19:13.860,-0.05,-0.13
21:19:13.864,0.03,-0.13
21:19:13.868,0.115,-0.155
21:19:13.872,0.165,-0.19
21:19:13.876,0.225,-0.215
21:19:13.880,0.245,-0.25
21:19:13.884,0.275,-0.265
21:19:13.888,0.295,-0.28
21:19:13.892,0.27,-0.355
21:19:13.896,0.305,-0.465
21:19:13.900,0.515,-0.655
21:19:13.904,0.82,-0.885
21:19:13.908,1.09,-1.095
21:19:13.912,1.165,-1.265
21:19:13.916,0.96,-1.235
21:19:13.920,0.48,-0.965
21:19:13.924,0.02,-0.59
21:19:13.928,-0.21,-0.32
21:19:13.932,-0.295,-0.195
21:19:13.936,-0.325,-0.08
21:19:13.940,-0.36,-0.01
21:19:13.944,-0.36,0.015
21:19:13.948,-0.375,0.04
21:19:13.952,-0.365,0.045
21:19:13.956,-0.385,0.035
21:19:13.960,-0.41,0.005
21:19:13.964,-0.385,0.025
21:19:13.968,-0.395,0.015
21:19:13.972,-0.39,0.005
21:19:13.976,-0.4,0.005
21:19:13.980,-0.395,0.0
21:19:13.984,-0.405,0.03
21:19:13.988,-0.39,0.01
21:19:13.992,-0.395,0.03
21:19:13.996,-0.39,0.04
21:19:14.000,-0.41,0.035
21:19:14.004,-0.4,0.01
21:19:14.008,-0.41,0.02
21:19:14.012,-0.405,0.01
21:19:14.016,-0.425,0.0
21:19:14.020,-0.425,0.0
21:19:14.024,-0.43,0.0
21:19:14.028,-0.44,0.015
21:19:14.032,-0.45,0.025
21:19:14.036,-0.445,0.0
21:19:14.040,-0.45,0.01
21:19:14.044,-0.455,-0.005
21:19:14.048,-0.46,0.01
21:19:14.052,-0.46,0.01
21:19:14.056,-0.465,0.02
21:19:14.060,-0.465,0.025
21:19:14.064,-0.475,0.025
21:19:14.068,-0.445,0.03
21:19:14.072,-0.455,0.025
21:19:14.076,-0.445,0.03
21:19:14.080,-0.44,0.045
21:19:14.084,-0.43,0.03
21:19:14.088,-0.425,0.04
21:19:14.092,-0.43,0.025
21:19:14.096,-0.41,0.05
21:19:14.100,-0.405,0.04
21:19:14.104,-0.395,0.02
21:19:14.108,-0.395,0.015
21:19:14.112,-0.4,0.015
21:19:14.116,-0.385,-0.01
21:19:14.120,-0.355,0.01
21:19:14.124,-0.355,0.0
21:19:14.128,-0.345,-0.02
21:19:14.132,-0.36,-0.025
21:19:14.136,-0.33,-0.025
21:19:14.140,-0.32,-0.05
21:19:14.144,-0.315,-0.07
21:19:14.148,-0.3,-0.065
21:19:14.152,-0.305,-0.045
21:19:14.156,-0.26,-0.065
21:19:14.160,-0.27,-0.085
21:19:14.164,-0.25,-0.06
21:19:14.168,-0.235,-0.085
21:19:14.172,-0.225,-0.06
21:19:14.176,-0.24,-0.08
21:19:14.180,-0.23,-0.055
21:19:14.184,-0.215,-0.075
21:19:14.188,-0.195,-0.065
21:19:14.192,-0.175,-0.055
21:19:14.196,-0.185,-0.05
21:19:14.200,-0.175,-0.035
21:19:14.204,-0.16,-0.02
21:19:14.208,-0.17,-0.05
21:19:14.212,-0.175,-0.015
21:19:14.216,-0.185,-0.025
21:19:14.220,-0.17,-0.035
21:19:14.224,-0.19,-0.04
21:19:14.228,-0.2,-0.05
21:19:14.232,-0.2,-0.01
21:19:14.236,-0.19,-0.01
21:19:14.240,-0.18,-0.01
21:19:14.244,-0.205,-0.005
21:19:14.248,-0.21,-0.005
21:19:14.252,-0.21,-0.035
21:19:14.256,-0.2,-0.035
21:19:14.260,-0.2,-0.02
21:19:14.264,-0.185,-0.025
21:19:14.268,-0.155,-0.01
21:19:14.272,-0.175,-0.02
21:19:14.276,-0.175,-0.015
21:19:14.280,-0.17,-0.02
21:19:14.284,-0.17,0.005
21:19:14.288,-0.12,0.0
21:19:14.292,-0.11,0.01
21:19:14.296,-0.055,0.005
21:19:14.300,-0.01,0.02
21:19:14.304,0.01,0.03
21:19:14.308,0.02,0.02
21:19:14.312,0.055,0.06
21:19:14.316,0.075,0.05
21:19:14.320,0.08,0.06
21:19:14.324,0.075,0.02
21:19:14.328,0.065,0.005
21:19:14.332,0.0,-0.03
21:19:14.336,-0.045,-0.045
21:19:14.340,-0.1,-0.035
21:19:14.344,-0.155,-0.055
21:19:14.348,-0.205,-0.045
21:19:14.352,-0.245,-0.04
21:19:14.356,-0.31,-0.025
21:19:14.360,-0.345,-0.02
21:19:14.364,-0.345,0.0
21:19:14.368,-0.345,-0.01
21:19:14.372,-0.345,-0.01
21:19:14.376,-0.33,-0.04
21:19:14.380,-0.335,-0.03
21:19:14.384,-0.32,-0.04
21:19:14.388,-0.325,-0.04
21:19:14.392,-0.335,-0.035
21:19:14.396,-0.32,-0.03
21:19:14.400,-0.305,-0.045
21:19:14.404,-0.315,-0.045
21:19:14.408,-0.325,-0.045
21:19:14.412,-0.285,-0.03
21:19:14.416,-0.295,-0.025
21:19:14.420,-0.29,-0.02
21:19:14.424,-0.29,-0.04
21:19:14.428,-0.275,-0.03
21:19:14.432,-0.275,-0.025
21:19:14.436,-0.28,-0.03
21:19:14.440,-0.27,-0.015
21:19:14.444,-0.285,-0.03
21:19:14.448,-0.275,-0.045
21:19:14.452,-0.275,-0.05
21:19:14.456,-0.26,-0.045
21:19:14.460,-0.24,-0.035
21:19:14.464,-0.245,-0.04
21:19:14.468,-0.21,-0.045
21:19:14.472,-0.19,-0.065
21:19:14.476,-0.125,-0.045
21:19:14.480,-0.03,-0.065
21:19:14.484,0.035,-0.095
21:19:14.488,0.08,-0.125
21:19:14.492,0.145,-0.16
21:19:14.496,0.2,-0.195
21:19:14.500,0.21,-0.205
21:19:14.504,0.21,-0.2
21:19:14.508,0.185,-0.275
21:19:14.512,0.215,-0.395
21:19:14.516,0.38,-0.555
21:19:14.520,0.7,-0.79
21:19:14.524,1.01,-1.02
21:19:14.528,1.155,-1.2
21:19:14.532,1.04,-1.265
21:19:14.536,0.64,-1.035
21:19:14.540,0.13,-0.645
21:19:14.544,-0.135,-0.335
21:19:14.548,-0.27,-0.16
21:19:14.552,-0.31,-0.04
21:19:14.556,-0.325,0.025
21:19:14.560,-0.34,0.075
21:19:14.564,-0.36,0.075
21:19:14.568,-0.365,0.105
21:19:14.572,-0.4,0.09
21:19:14.576,-0.425,0.075
21:19:14.580,-0.425,0.075
21:19:14.584,-0.42,0.05
21:19:14.588,-0.445,0.04
21:19:14.592,-0.425,0.055
21:19:14.596,-0.425,0.04
21:19:14.600,-0.45,0.04
21:19:14.604,-0.42,0.06
21:19:14.608,-0.42,0.05
21:19:14.612,-0.44,0.04
21:19:14.616,-0.44,0.035
21:19:14.620,-0.45,0.05
21:19:14.624,-0.44,0.04
21:19:14.628,-0.46,0.035
21:19:14.632,-0.46,0.03
21:19:14.636,-0.47,0.04
21:19:14.640,-0.45,0.045
21:19:14.644,-0.475,0.03
21:19:14.648,-0.455,0.04
21:19:14.652,-0.475,0.035
21:19:14.656,-0.465,0.035
21:19:14.660,-0.455,0.05
21:19:14.664,-0.465,0.045
21:19:14.668,-0.495,0.05
21:19:14.672,-0.49,0.04
21:19:14.676,-0.485,0.04
21:19:14.680,-0.5,0.035
21:19:14.684,-0.525,0.025
21:19:14.688,-0.515,0.04
21:19:14.692,-0.52,0.03
21:19:14.696,-0.52,0.02
21:19:14.700,-0.525,0.04
21:19:14.704,-0.525,-0.005
21:19:14.708,-0.5,0.005
21:19:14.712,-0.49,-0.015
21:19:14.716,-0.5,-0.01
21:19:14.720,-0.515,-0.01
21:19:14.724,-0.475,-0.025
21:19:14.728,-0.48,0.0
21:19:14.732,-0.465,-0.02
21:19:14.736,-0.425,-0.04
21:19:14.740,-0.44,-0.05
21:19:14.744,-0.425,-0.07
21:19:14.748,-0.41,-0.065
21:19:14.752,-0.385,-0.08
21:19:14.756,-0.38,-0.105
21:19:14.760,-0.365,-0.105
21:19:14.764,-0.355,-0.085
21:19:14.768,-0.355,-0.075
21:19:14.772,-0.335,-0.08
21:19:14.776,-0.33,-0.1
21:19:14.780,-0.33,-0.12
21:19:14.784,-0.335,-0.125
21:19:14.788,-0.33,-0.11
21:19:14.792,-0.305,-0.11
21:19:14.796,-0.32,-0.11
21:19:14.800,-0.31,-0.12
21:19:14.804,-0.305,-0.13
21:19:14.808,-0.31,-0.125
21:19:14.812,-0.31,-0.135
21:19:14.816,-0.32,-0.135
21:19:14.820,-0.305,-0.12
21:19:14.824,-0.295,-0.145
21:19:14.828,-0.29,-0.14
21:19:14.832,-0.29,-0.145
21:19:14.836,-0.3,-0.14
21:19:14.840,-0.305,-0.16
21:19:14.844,-0.295,-0.135
21:19:14.848,-0.3,-0.18
21:19:14.852,-0.28,-0.17
21:19:14.856,-0.285,-0.16
21:19:14.860,-0.29,-0.175
21:19:14.864,-0.29,-0.175
21:19:14.868,-0.285,-0.165
21:19:14.872,-0.3,-0.18
21:19:14.876,-0.28,-0.17
21:19:14.880,-0.28,-0.185
21:19:14.884,-0.27,-0.195
21:19:14.888,-0.295,-0.17
21:19:14.892,-0.3,-0.175
21:19:14.896,-0.305,-0.185
21:19:14.900,-0.31,-0.205
21:19:14.904,-0.32,-0.215
21:19:14.908,-0.325,-0.225
21:19:14.912,-0.315,-0.215
21:19:14.916,-0.31,-0.22
21:19:14.920,-0.305,-0.22
21:19:14.924,-0.285,-0.23
21:19:14.928,-0.285,-0.265
21:19:14.932,-0.29,-0.255
21:19:14.936,-0.28,-0.29
21:19:14.940,-0.28,-0.275
21:19:14.944,-0.255,-0.28
21:19:14.948,-0.22,-0.255
21:19:14.952,-0.18,-0.255
21:19:14.956,-0.12,-0.23
21:19:14.960,-0.09,-0.22
21:19:14.964,-0.105,-0.24
21:19:14.968,-0.045,-0.235
21:19:14.972,-0.015,-0.24
21:19:14.976,0.0,-0.25
21:19:14.980,0.005,-0.25
21:19:14.984,-0.02,-0.28
21:19:14.988,-0.075,-0.3
21:19:14.992,-0.13,-0.3
21:19:14.996,-0.17,-0.32
21:19:15.000,-0.225,-0.335
21:19:15.004,-0.26,-0.34
21:19:15.008,-0.34,-0.33
21:19:15.012,-0.37,-0.315
21:19:15.016,-0.385,-0.31
21:19:15.020,-0.41,-0.32
21:19:15.024,-0.43,-0.32
21:19:15.028,-0.455,-0.365
21:19:15.032,-0.455,-0.345
21:19:15.036,-0.435,-0.365
21:19:15.040,-0.44,-0.36
21:19:15.044,-0.41,-0.395
21:19:15.048,-0.405,-0.39
21:19:15.052,-0.4,-0.39
21:19:15.056,-0.39,-0.395
21:19:15.060,-0.405,-0.43
21:19:15.064,-0.385,-0.405
21:19:15.068,-0.39,-0.43
21:19:15.072,-0.39,-0.41
21:19:15.076,-0.385,-0.435
21:19:15.080,-0.4,-0.415
21:19:15.084,-0.38,-0.43
21:19:15.088,-0.37,-0.425
21:19:15.092,-0.34,-0.42
21:19:15.096,-0.345,-0.44
21:19:15.100,-0.33,-0.455
21:19:15.104,-0.335,-0.465
21:19:15.108,-0.345,-0.47
21:19:15.112,-0.34,-0.475
21:19:15.116,-0.345,-0.48
21:19:15.120,-0.31,-0.47
21:19:15.124,-0.265,-0.475
21:19:15.128,-0.225,-0.48
21:19:15.132,-0.12,-0.485
21:19:15.136,-0.04,-0.51
21:19:15.140,0.04,-0.54
21:19:15.144,0.09,-0.595
21:19:15.148,0.14,-0.62
21:19:15.152,0.225,-0.615
21:19:15.156,0.27,-0.635
21:19:15.160,0.24,-0.66
21:19:15.164,0.22,-0.715
21:19:15.168,0.3,-0.835
21:19:15.172,0.555,-1.02
21:19:15.176,0.85,-1.24
21:19:15.180,1.03,-1.45
21:19:15.184,0.95,-1.56
21:19:15.188,0.6,-1.44
21:19:15.192,0.13,-1.13
21:19:15.196,-0.195,-0.845
21:19:15.200,-0.3,-0.665
21:19:15.204,-0.365,-0.58
21:19:15.208,-0.375,-0.48
21:19:15.212,-0.395,-0.44
21:19:15.216,-0.435,-0.41
21:19:15.220,-0.465,-0.4
21:19:15.224,-0.46,-0.42
21:19:15.228,-0.485,-0.415
21:19:15.232,-0.485,-0.45
21:19:15.236,-0.5,-0.475
21:19:15.240,-0.495,-0.48
21:19:15.244,-0.505,-0.485
21:19:15.248,-0.5,-0.49
21:19:15.252,-0.51,-0.475
21:19:15.256,-0.54,-0.485
21:19:15.260,-0.525,-0.495
21:19:15.264,-0.53,-0.475
21:19:15.268,-0.535,-0.495
21:19:15.272,-0.52,-0.5
21:19:15.276,-0.52,-0.49
21:19:15.280,-0.525,-0.5
21:19:15.284,-0.525,-0.505
21:19:15.288,-0.545,-0.515
21:19:15.292,-0.56,-0.535
21:19:15.296,-0.545,-0.52
21:19:15.300,-0.535,-0.51
21:19:15.304,-0.53,-0.515
21:19:15.308,-0.545,-0.5
21:19:15.312,-0.54,-0.505
21:19:15.316,-0.54,-0.495
21:19:15.320,-0.545,-0.49
21:19:15.324,-0.545,-0.49
21:19:15.328,-0.525,-0.475
21:19:15.332,-0.55,-0.485
21:19:15.336,-0.535,-0.485
21:19:15.340,-0.555,-0.455
21:19:15.344,-0.55,-0.455
21:19:15.348,-0.53,-0.455
21:19:15.352,-0.52,-0.43
21:19:15.356,-0.51,-0.445
21:19:15.360,-0.515,-0.445
21:19:15.364,-0.5,-0.435
21:19:15.368,-0.49,-0.435
21:19:15.372,-0.505,-0.42
21:19:15.376,-0.495,-0.435
21:19:15.380,-0.49,-0.41
21:19:15.384,-0.45,-0.415
21:19:15.388,-0.465,-0.425
21:19:15.392,-0.445,-0.445
21:19:15.396,-0.425,-0.435
21:19:15.400,-0.415,-0.435
21:19:15.404,-0.39,-0.43
21:19:15.408,-0.385,-0.42
21:19:15.412,-0.38,-0.425
21:19:15.416,-0.38,-0.425
21:19:15.420,-0.36,-0.4
21:19:15.424,-0.335,-0.41
21:19:15.428,-0.29,-0.41
21:19:15.432,-0.27,-0.395
21:19:15.436,-0.26,-0.4
21:19:15.440,-0.265,-0.4
21:19:15.444,-0.245,-0.37
21:19:15.448,-0.235,-0.37
21:19:15.452,-0.24,-0.36
21:19:15.456,-0.235,-0.35
21:19:15.460,-0.245,-0.355
21:19:15.464,-0.24,-0.35
21:19:15.468,-0.215,-0.36
21:19:15.472,-0.215,-0.33
21:19:15.476,-0.21,-0.335
21:19:15.480,-0.21,-0.335
21:19:15.484,-0.225,-0.31
21:19:15.488,-0.22,-0.315
21:19:15.492,-0.225,-0.32
21:19:15.496,-0.215,-0.305
21:19:15.500,-0.22,-0.31
21:19:15.504,-0.225,-0.315
21:19:15.508,-0.22,-0.28
21:19:15.512,-0.205,-0.27
21:19:15.516,-0.215,-0.28
21:19:15.520,-0.21,-0.265
21:19:15.524,-0.215,-0.26
21:19:15.528,-0.2,-0.26
21:19:15.532,-0.205,-0.25
21:19:15.536,-0.21,-0.24
21:19:15.540,-0.215,-0.25
21:19:15.544,-0.205,-0.235
21:19:15.548,-0.18,-0.21
21:19:15.552,-0.19,-0.23
21:19:15.556,-0.195,-0.225
21:19:15.560,-0.155,-0.22
21:19:15.564,-0.175,-0.215
21:19:15.568,-0.135,-0.225
21:19:15.572,-0.135,-0.195
21:19:15.576,-0.12,-0.195
21:19:15.580,-0.145,-0.205
21:19:15.584,-0.135,-0.195
21:19:15.588,-0.115,-0.16
21:19:15.592,-0.07,-0.16
21:19:15.596,-0.045,-0.16
21:19:15.600,0.0,-0.15
21:19:15.604,-0.01,-0.11
21:19:15.608,0.03,-0.14
21:19:15.612,0.07,-0.115
21:19:15.616,0.095,-0.11
21:19:15.620,0.095,-0.12
21:19:15.624,0.095,-0.145
21:19:15.628,0.065,-0.16
21:19:15.632,0.03,-0.185
21:19:15.636,-0.01,-0.2
21:19:15.640,-0.065,-0.19
21:19:15.644,-0.11,-0.19
21:19:15.648,-0.175,-0.185
21:19:15.652,-0.205,-0.18
21:19:15.656,-0.245,-0.16
21:19:15.660,-0.245,-0.145
21:19:15.664,-0.27,-0.165
21:19:15.668,-0.295,-0.145
21:19:15.672,-0.27,-0.14
21:19:15.676,-0.255,-0.16
21:19:15.680,-0.255,-0.175
21:19:15.684,-0.245,-0.195
21:19:15.688,-0.23,-0.18
21:19:15.692,-0.24,-0.175
21:19:15.696,-0.24,-0.175
21:19:15.700,-0.26,-0.175
21:19:15.704,-0.255,-0.18
21:19:15.708,-0.23,-0.175
21:19:15.712,-0.25,-0.18
21:19:15.716,-0.255,-0.175
21:19:15.720,-0.26,-0.2
21:19:15.724,-0.235,-0.18
21:19:15.728,-0.225,-0.2
21:19:15.732,-0.225,-0.21
21:19:15.736,-0.215,-0.195
21:19:15.740,-0.21,-0.205
21:19:15.744,-0.205,-0.2
21:19:15.748,-0.205,-0.19
21:19:15.752,-0.19,-0.19
21:19:15.756,-0.19,-0.225
21:19:15.760,-0.16,-0.21
21:19:15.764,-0.15,-0.21
21:19:15.768,-0.085,-0.2
21:19:15.772,-0.005,-0.22
21:19:15.776,0.07,-0.215
21:19:15.780,0.155,-0.205
21:19:15.784,0.21,-0.25
21:19:15.788,0.27,-0.3
21:19:15.792,0.31,-0.315
21:19:15.796,0.34,-0.32
21:19:15.800,0.325,-0.325
21:19:15.804,0.305,-0.425
21:19:15.808,0.37,-0.525
21:19:15.812,0.58,-0.71
21:19:15.816,0.92,-0.94
21:19:15.820,1.18,-1.16
21:19:15.824,1.22,-1.315
21:19:15.828,0.955,-1.3
21:19:15.832,0.495,-0.99
21:19:15.836,0.04,-0.62
21:19:15.840,-0.16,-0.37
21:19:15.844,-0.24,-0.245
21:19:15.848,-0.265,-0.15
21:19:15.852,-0.265,-0.065
21:19:15.856,-0.27,-0.04
21:19:15.860,-0.315,-0.03
21:19:15.864,-0.31,-0.05
21:19:15.868,-0.32,-0.055
21:19:15.872,-0.32,-0.065
21:19:15.876,-0.32,-0.08
21:19:15.880,-0.315,-0.07
21:19:15.884,-0.31,-0.075
21:19:15.888,-0.325,-0.08
21:19:15.892,-0.33,-0.07
21:19:15.896,-0.34,-0.06
21:19:15.900,-0.32,-0.07
21:19:15.904,-0.325,-0.08
21:19:15.908,-0.325,-0.055
21:19:15.912,-0.32,-0.065
21:19:15.916,-0.335,-0.07
21:19:15.920,-0.33,-0.08
21:19:15.924,-0.33,-0.075
21:19:15.928,-0.35,-0.06
21:19:15.932,-0.375,-0.08
21:19:15.936,-0.395,-0.07
21:19:15.940,-0.37,-0.065
21:19:15.944,-0.38,-0.055
21:19:15.948,-0.38,-0.065
21:19:15.952,-0.38,-0.105
21:19:15.956,-0.375,-0.11
21:19:15.960,-0.375,-0.08
21:19:15.964,-0.4,-0.09
21:19:15.968,-0.395,-0.1
21:19:15.972,-0.395,-0.07
21:19:15.976,-0.4,-0.09
21:19:15.980,-0.395,-0.075
21:19:15.984,-0.4,-0.07
21:19:15.988,-0.38,-0.055
21:19:15.992,-0.385,-0.08
21:19:15.996,-0.375,-0.065
21:19:16.000,-0.36,-0.08
21:19:16.004,-0.35,-0.06
21:19:16.008,-0.345,-0.08
21:19:16.012,-0.33,-0.055
21:19:16.016,-0.3,-0.065
21:19:16.020,-0.31,-0.055
21:19:16.024,-0.325,-0.09
21:19:16.028,-0.31,-0.075
21:19:16.032,-0.3,-0.075
21:19:16.036,-0.305,-0.08
21:19:16.040,-0.29,-0.105
21:19:16.044,-0.27,-0.13
21:19:16.048,-0.255,-0.125
21:19:16.052,-0.25,-0.11
21:19:16.056,-0.25,-0.125
21:19:16.060,-0.23,-0.135
21:19:16.064,-0.21,-0.155
21:19:16.068,-0.215,-0.155
21:19:16.072,-0.19,-0.14
21:19:16.076,-0.19,-0.14
21:19:16.080,-0.17,-0.145
21:19:16.084,-0.165,-0.15
21:19:16.088,-0.15,-0.16
21:19:16.092,-0.15,-0.165
21:19:16.096,-0.16,-0.16
21:19:16.100,-0.13,-0.12
21:19:16.104,-0.13,-0.13
21:19:16.108,-0.125,-0.135
21:19:16.112,-0.12,-0.12
21:19:16.116,-0.115,-0.12
21:19:16.120,-0.12,-0.09
21:19:16.124,-0.125,-0.09
21:19:16.128,-0.135,-0.095
21:19:16.132,-0.125,-0.1
21:19:16.136,-0.13,-0.095
21:19:16.140,-0.11,-0.095
21:19:16.144,-0.115,-0.095
21:19:16.148,-0.11,-0.1
21:19:16.152,-0.12,-0.105
21:19:16.156,-0.115,-0.115
21:19:16.160,-0.125,-0.11
21:19:16.164,-0.15,-0.095
21:19:16.168,-0.15,-0.09
21:19:16.172,-0.155,-0.11
21:19:16.176,-0.13,-0.08
21:19:16.180,-0.11,-0.09
21:19:16.184,-0.105,-0.09
21:19:16.188,-0.1,-0.07
21:19:16.192,-0.08,-0.075
21:19:16.196,-0.095,-0.065
21:19:16.200,-0.07,-0.085
21:19:16.204,-0.08,-0.06
21:19:16.208,-0.045,-0.06
21:19:16.212,0.03,-0.05
21:19:16.216,0.05,-0.025
21:19:16.220,0.07,-0.015
21:19:16.224,0.1,-0.02
21:19:16.228,0.115,-0.02
21:19:16.232,0.135,0.005
21:19:16.236,0.155,-0.015
21:19:16.240,0.13,-0.02
21:19:16.244,0.1,-0.045
21:19:16.248,0.06,-0.07
21:19:16.252,0.025,-0.09
21:19:16.256,-0.03,-0.085
21:19:16.260,-0.075,-0.09
21:19:16.264,-0.14,-0.1
21:19:16.268,-0.22,-0.085
21:19:16.272,-0.28,-0.085
21:19:16.276,-0.28,-0.065
21:19:16.280,-0.305,-0.06
21:19:16.284,-0.29,-0.075
21:19:16.288,-0.295,-0.095
21:19:16.292,-0.29,-0.1
21:19:16.296,-0.275,-0.09
21:19:16.300,-0.265,-0.115
21:19:16.304,-0.28,-0.11
21:19:16.308,-0.295,-0.1
21:19:16.312,-0.28,-0.11
21:19:16.316,-0.275,-0.1
21:19:16.320,-0.285,-0.08
21:19:16.324,-0.265,-0.09
21:19:16.328,-0.27,-0.11
21:19:16.332,-0.26,-0.095
21:19:16.336,-0.27,-0.09
21:19:16.340,-0.245,-0.095
21:19:16.344,-0.265,-0.085
21:19:16.348,-0.26,-0.09
21:19:16.352,-0.255,-0.09
21:19:16.356,-0.265,-0.075
21:19:16.360,-0.26,-0.08
21:19:16.364,-0.235,-0.065
21:19:16.368,-0.255,-0.095
21:19:16.372,-0.25,-0.095
21:19:16.376,-0.245,-0.08
21:19:16.380,-0.235,-0.1
21:19:16.384,-0.23,-0.105
21:19:16.388,-0.15,-0.08
21:19:16.392,-0.05,-0.09
21:19:16.396,0.01,-0.11
21:19:16.400,0.095,-0.135
21:19:16.404,0.165,-0.175
21:19:16.408,0.2,-0.23
21:19:16.412,0.24,-0.215
21:19:16.416,0.245,-0.23
21:19:16.420,0.25,-0.275
21:19:16.424,0.245,-0.36
21:19:16.428,0.375,-0.515
21:19:16.432,0.645,-0.735
21:19:16.436,0.965,-0.985
21:19:16.440,1.135,-1.18
21:19:16.444,1.015,-1.215
21:19:16.448,0.605,-1.01
21:19:16.452,0.125,-0.66
21:19:16.456,-0.165,-0.345
21:19:16.460,-0.27,-0.17
21:19:16.464,-0.32,-0.095
21:19:16.468,-0.32,0.005
21:19:16.472,-0.345,0.045
21:19:16.476,-0.345,0.05
21:19:16.480,-0.39,0.055
21:19:16.484,-0.405,0.06
21:19:16.488,-0.4,0.045
21:19:16.492,-0.425,0.02
21:19:16.496,-0.43,0.005
21:19:16.500,-0.455,0.005
21:19:16.504,-0.46,-0.02
21:19:16.508,-0.46,-0.02
21:19:16.512,-0.465,-0.005
21:19:16.516,-0.47,-0.015
21:19:16.520,-0.46,-0.01
21:19:16.524,-0.475,-0.025
21:19:16.528,-0.46,-0.015
21:19:16.532,-0.465,-0.02
21:19:16.536,-0.475,-0.025
21:19:16.540,-0.465,-0.04
21:19:16.544,-0.49,-0.05
21:19:16.548,-0.465,-0.03
21:19:16.552,-0.47,-0.065
21:19:16.556,-0.475,-0.065
21:19:16.560,-0.495,-0.06
21:19:16.564,-0.49,-0.065
21:19:16.568,-0.485,-0.065
21:19:16.572,-0.48,-0.055
21:19:16.576,-0.47,-0.07
21:19:16.580,-0.495,-0.065
21:19:16.584,-0.5,-0.06
21:19:16.588,-0.495,-0.09
21:19:16.592,-0.495,-0.055
21:19:16.596,-0.495,-0.075
21:19:16.600,-0.48,-0.075
21:19:16.604,-0.515,-0.085
21:19:16.608,-0.51,-0.08
21:19:16.612,-0.51,-0.11
21:19:16.616,-0.52,-0.105
21:19:16.620,-0.53,-0.125
21:19:16.624,-0.525,-0.1
21:19:16.628,-0.49,-0.115
21:19:16.632,-0.47,-0.12
21:19:16.636,-0.445,-0.14
21:19:16.640,-0.435,-0.13
21:19:16.644,-0.445,-0.145
21:19:16.648,-0.43,-0.16
21:19:16.652,-0.415,-0.155
21:19:16.656,-0.4,-0.18
21:19:16.660,-0.395,-0.185
21:19:16.664,-0.365,-0.17
21:19:16.668,-0.35,-0.175
21:19:16.672,-0.33,-0.17
21:19:16.676,-0.295,-0.2
21:19:16.680,-0.32,-0.225
21:19:16.684,-0.315,-0.22
21:19:16.688,-0.295,-0.23
21:19:16.692,-0.3,-0.235
21:19:16.696,-0.27,-0.245
21:19:16.700,-0.27,-0.235
21:19:16.704,-0.28,-0.225
21:19:16.708,-0.255,-0.225
21:19:16.712,-0.26,-0.24
21:19:16.716,-0.28,-0.235
21:19:16.720,-0.29,-0.245
21:19:16.724,-0.285,-0.23
21:19:16.728,-0.265,-0.245
21:19:16.732,-0.255,-0.25
21:19:16.736,-0.26,-0.26
21:19:16.740,-0.265,-0.27
21:19:16.744,-0.265,-0.29
21:19:16.748,-0.265,-0.265
21:19:16.752,-0.255,-0.28
21:19:16.756,-0.275,-0.295
21:19:16.760,-0.25,-0.285
21:19:16.764,-0.25,-0.3
21:19:16.768,-0.24,-0.305
21:19:16.772,-0.245,-0.29
21:19:16.776,-0.26,-0.31
21:19:16.780,-0.255,-0.315
21:19:16.784,-0.255,-0.32
21:19:16.788,-0.255,-0.315
21:19:16.792,-0.245,-0.295
21:19:16.796,-0.24,-0.315
21:19:16.800,-0.255,-0.325
21:19:16.804,-0.27,-0.32
21:19:16.808,-0.25,-0.345
21:19:16.812,-0.26,-0.35
21:19:16.816,-0.24,-0.36
21:19:16.820,-0.24,-0.345
21:19:16.824,-0.245,-0.36
21:19:16.828,-0.245,-0.35
21:19:16.832,-0.25,-0.365
21:19:16.836,-0.235,-0.37
21:19:16.840,-0.235,-0.365
21:19:16.844,-0.215,-0.37
21:19:16.848,-0.17,-0.38
21:19:16.852,-0.13,-0.415
21:19:16.856,-0.105,-0.385
21:19:16.860,-0.1,-0.375
21:19:16.864,-0.05,-0.36
21:19:16.868,-0.03,-0.355
21:19:16.872,0.0,-0.355
21:19:16.876,0.01,-0.35
21:19:16.880,0.01,-0.335
21:19:16.884,0.0,-0.365
21:19:16.888,-0.035,-0.405
21:19:16.892,-0.065,-0.425
21:19:16.896,-0.105,-0.435
21:19:16.900,-0.175,-0.42
21:19:16.904,-0.25,-0.425
21:19:16.908,-0.31,-0.415
21:19:16.912,-0.335,-0.4
21:19:16.916,-0.35,-0.41
21:19:16.920,-0.38,-0.415
21:19:16.924,-0.395,-0.43
21:19:16.928,-0.38,-0.435
21:19:16.932,-0.38,-0.455
21:19:16.936,-0.39,-0.445
21:19:16.940,-0.4,-0.445
21:19:16.944,-0.39,-0.45
21:19:16.948,-0.39,-0.455
21:19:16.952,-0.385,-0.47
21:19:16.956,-0.385,-0.49
21:19:16.960,-0.385,-0.47
21:19:16.964,-0.365,-0.5
21:19:16.968,-0.38,-0.49
21:19:16.972,-0.37,-0.495
21:19:16.976,-0.35,-0.48
21:19:16.980,-0.365,-0.505
21:19:16.984,-0.35,-0.495
21:19:16.988,-0.34,-0.495
21:19:16.992,-0.375,-0.505
21:19:16.996,-0.36,-0.495
21:19:17.000,-0.35,-0.51
21:19:17.004,-0.35,-0.48
21:19:17.008,-0.35,-0.49
21:19:17.012,-0.36,-0.475
21:19:17.016,-0.36,-0.5
21:19:17.020,-0.335,-0.48
21:19:17.024,-0.32,-0.455
21:19:17.028,-0.28,-0.47
21:19:17.032,-0.215,-0.485
21:19:17.036,-0.11,-0.48
21:19:17.040,0.02,-0.47
21:19:17.044,0.11,-0.485
21:19:17.048,0.18,-0.535
21:19:17.052,0.205,-0.565
21:19:17.056,0.28,-0.595
21:19:17.060,0.3,-0.595
21:19:17.064,0.26,-0.62
21:19:17.068,0.28,-0.71
21:19:17.072,0.445,-0.85
21:19:17.076,0.735,-1.045
21:19:17.080,1.0,-1.26
21:19:17.084,1.135,-1.44
21:19:17.088,0.97,-1.48
21:19:17.092,0.52,-1.22
21:19:17.096,0.055,-0.86
21:19:17.100,-0.19,-0.64
21:19:17.104,-0.295,-0.51
21:19:17.108,-0.32,-0.4
21:19:17.112,-0.345,-0.33
21:19:17.116,-0.345,-0.22
21:19:17.120,-0.38,-0.235
21:19:17.124,-0.385,-0.235
21:19:17.128,-0.415,-0.22
21:19:17.132,-0.425,-0.23
21:19:17.136,-0.435,-0.22
21:19:17.140,-0.45,-0.235
21:19:17.144,-0.44,-0.225
21:19:17.148,-0.45,-0.235
21:19:17.152,-0.465,-0.21
21:19:17.156,-0.475,-0.215
21:19:17.160,-0.47,-0.205
21:19:17.164,-0.465,-0.215
21:19:17.168,-0.48,-0.2
21:19:17.172,-0.475,-0.215
21:19:17.176,-0.475,-0.195
21:19:17.180,-0.475,-0.19
21:19:17.184,-0.465,-0.185
21:19:17.188,-0.48,-0.175
21:19:17.192,-0.455,-0.22
21:19:17.196,-0.455,-0.215
21:19:17.200,-0.455,-0.21
21:19:17.204,-0.46,-0.195
21:19:17.208,-0.475,-0.18
21:19:17.212,-0.455,-0.205
21:19:17.216,-0.465,-0.205
21:19:17.220,-0.47,-0.195
21:19:17.224,-0.485,-0.19
21:19:17.228,-0.465,-0.17
21:19:17.232,-0.47,-0.17
21:19:17.236,-0.475,-0.135
21:19:17.240,-0.48,-0.15
21:19:17.244,-0.475,-0.12
21:19:17.248,-0.47,-0.115
21:19:17.252,-0.46,-0.125
21:19:17.256,-0.465,-0.115
21:19:17.260,-0.45,-0.11
21:19:17.264,-0.43,-0.11
21:19:17.268,-0.43,-0.115
21:19:17.272,-0.43,-0.11
21:19:17.276,-0.42,-0.125
21:19:17.280,-0.41,-0.125
21:19:17.284,-0.42,-0.14
21:19:17.288,-0.405,-0.14
21:19:17.292,-0.395,-0.13
21:19:17.296,-0.365,-0.125
21:19:17.300,-0.37,-0.145
21:19:17.304,-0.35,-0.175
21:19:17.308,-0.34,-0.185
21:19:17.312,-0.32,-0.175
21:19:17.316,-0.32,-0.16
21:19:17.320,-0.295,-0.185
21:19:17.324,-0.28,-0.18
21:19:17.328,-0.275,-0.165
21:19:17.332,-0.265,-0.18
21:19:17.336,-0.24,-0.17
21:19:17.340,-0.205,-0.195
21:19:17.344,-0.215,-0.18
21:19:17.348,-0.18,-0.19
21:19:17.352,-0.195,-0.2
21:19:17.356,-0.2,-0.21
21:19:17.360,-0.18,-0.17
21:19:17.364,-0.185,-0.175
21:19:17.368,-0.165,-0.16
21:19:17.372,-0.16,-0.19
21:19:17.376,-0.15,-0.17
21:19:17.380,-0.175,-0.155
21:19:17.384,-0.17,-0.155
21:19:17.388,-0.155,-0.145
21:19:17.392,-0.16,-0.16
21:19:17.396,-0.15,-0.16
21:19:17.400,-0.14,-0.175
21:19:17.404,-0.155,-0.155
21:19:17.408,-0.15,-0.165
21:19:17.412,-0.16,-0.17
21:19:17.416,-0.165,-0.155
21:19:17.420,-0.16,-0.165
21:19:17.424,-0.155,-0.165
21:19:17.428,-0.155,-0.16
21:19:17.432,-0.155,-0.14
21:19:17.436,-0.16,-0.145
21:19:17.440,-0.16,-0.15
21:19:17.444,-0.16,-0.125
21:19:17.448,-0.125,-0.13
21:19:17.452,-0.105,-0.135
21:19:17.456,-0.105,-0.115
21:19:17.460,-0.08,-0.13
21:19:17.464,-0.07,-0.125
21:19:17.468,-0.085,-0.095
21:19:17.472,-0.075,-0.105
21:19:17.476,-0.06,-0.085
21:19:17.480,-0.05,-0.075
21:19:17.484,-0.01,-0.08
21:19:17.488,0.03,-0.06
21:19:17.492,0.075,-0.05
21:19:17.496,0.075,-0.06
21:19:17.500,0.1,-0.05
21:19:17.504,0.13,-0.065
21:19:17.508,0.115,-0.045
21:19:17.512,0.135,-0.075
21:19:17.516,0.13,-0.09
21:19:17.520,0.09,-0.095
21:19:17.524,0.055,-0.155
21:19:17.528,0.0,-0.135
21:19:17.532,-0.04,-0.13
21:19:17.536,-0.115,-0.13
21:19:17.540,-0.16,-0.155
21:19:17.544,-0.205,-0.115
21:19:17.548,-0.235,-0.1
21:19:17.552,-0.265,-0.085
21:19:17.556,-0.28,-0.075
21:19:17.560,-0.27,-0.08
21:19:17.564,-0.26,-0.115
21:19:17.568,-0.24,-0.125
21:19:17.572,-0.235,-0.115
21:19:17.576,-0.235,-0.12
21:19:17.580,-0.24,-0.115
21:19:17.584,-0.235,-0.11
21:19:17.588,-0.215,-0.105
21:19:17.592,-0.24,-0.12
21:19:17.596,-0.22,-0.125
21:19:17.600,-0.225,-0.115
21:19:17.604,-0.21,-0.105
21:19:17.608,-0.215,-0.13
21:19:17.612,-0.23,-0.105
21:19:17.616,-0.25,-0.11
21:19:17.620,-0.22,-0.13
21:19:17.624,-0.23,-0.12
21:19:17.628,-0.22,-0.125
21:19:17.632,-0.245,-0.13
21:19:17.636,-0.215,-0.14
21:19:17.640,-0.215,-0.135
21:19:17.644,-0.235,-0.14
21:19:17.648,-0.21,-0.16
21:19:17.652,-0.195,-0.135
21:19:17.656,-0.165,-0.14
21:19:17.660,-0.12,-0.11
21:19:17.664,-0.045,-0.14
21:19:17.668,0.03,-0.135
21:19:17.672,0.115,-0.135
21:19:17.676,0.19,-0.18
21:19:17.680,0.25,-0.235
21:19:17.684,0.285,-0.26
21:19:17.688,0.315,-0.24
21:19:17.692,0.31,-0.285
21:19:17.696,0.285,-0.335
21:19:17.700,0.34,-0.47
21:19:17.704,0.56,-0.665
21:19:17.708,0.865,-0.895
21:19:17.712,1.13,-1.12
21:19:17.716,1.215,-1.295
21:19:17.720,1.015,-1.245
21:19:17.724,0.54,-0.95
21:19:17.728,0.06,-0.575
21:19:17.732,-0.16,-0.32
21:19:17.736,-0.26,-0.17
21:19:17.740,-0.305,-0.075
21:19:17.744,-0.3,-0.04
21:19:17.748,-0.32,0.005
21:19:17.752,-0.325,0.03
21:19:17.756,-0.345,0.015
21:19:17.760,-0.35,-0.005
21:19:17.764,-0.36,0.005
21:19:17.768,-0.355,-0.015
21:19:17.772,-0.355,-0.04
21:19:17.776,-0.355,-0.01
21:19:17.780,-0.36,-0.025
21:19:17.784,-0.37,-0.015
21:19:17.788,-0.365,0.0
21:19:17.792,-0.37,0.005
21:19:17.796,-0.35,-0.005
21:19:17.800,-0.35,-0.005
21:19:17.804,-0.345,0.01
21:19:17.808,-0.355,-0.025
21:19:17.812,-0.37,-0.005
21:19:17.816,-0.38,0.0
21:19:17.820,-0.375,-0.015
21:19:17.824,-0.39,-0.01
21:19:17.828,-0.395,-0.005
21:19:17.832,-0.37,-0.025
21:19:17.836,-0.405,-0.025
21:19:17.840,-0.39,0.0
21:19:17.844,-0.425,-0.015
21:19:17.848,-0.43,-0.01
21:19:17.852,-0.425,-0.025
21:19:17.856,-0.415,-0.025
21:19:17.860,-0.425,-0.015
21:19:17.864,-0.425,-0.025
21:19:17.868,-0.44,-0.015
21:19:17.872,-0.42,-0.04
21:19:17.876,-0.45,-0.045
21:19:17.880,-0.445,-0.04
21:19:17.884,-0.445,-0.03
21:19:17.888,-0.435,-0.04
21:19:17.892,-0.425,-0.02
21:19:17.896,-0.4,-0.015
21:19:17.900,-0.39,-0.03
21:19:17.904,-0.385,-0.02
21:19:17.908,-0.38,-0.04
21:19:17.912,-0.355,-0.035
21:19:17.916,-0.36,-0.045
21:19:17.920,-0.355,-0.04
21:19:17.924,-0.345,-0.035
21:19:17.928,-0.35,-0.03
21:19:17.932,-0.315,-0.045
21:19:17.936,-0.325,-0.065
21:19:17.940,-0.305,-0.065
21:19:17.944,-0.28,-0.09
21:19:17.948,-0.28,-0.11
21:19:17.952,-0.25,-0.105
21:19:17.956,-0.27,-0.095
21:19:17.960,-0.255,-0.12
21:19:17.964,-0.265,-0.125
21:19:17.968,-0.24,-0.125
21:19:17.972,-0.24,-0.125
21:19:17.976,-0.23,-0.13
21:19:17.980,-0.22,-0.115
21:19:17.984,-0.195,-0.13
21:19:17.988,-0.2,-0.15
21:19:17.992,-0.205,-0.115
21:19:17.996,-0.2,-0.135
21:19:18.000,-0.185,-0.13
21:19:18.004,-0.18,-0.115
21:19:18.008,-0.16,-0.11
21:19:18.012,-0.16,-0.1
21:19:18.016,-0.14,-0.135
21:19:18.020,-0.14,-0.11
21:19:18.024,-0.135,-0.105
21:19:18.028,-0.14,-0.115
21:19:18.032,-0.145,-0.105
21:19:18.036,-0.155,-0.11
21:19:18.040,-0.175,-0.125
21:19:18.044,-0.17,-0.085
21:19:18.048,-0.18,-0.07
21:19:18.052,-0.17,-0.075
21:19:18.056,-0.175,-0.1
21:19:18.060,-0.19,-0.065
21:19:18.064,-0.18,-0.08
21:19:18.068,-0.19,-0.08
21:19:18.072,-0.21,-0.1
21:19:18.076,-0.165,-0.06
21:19:18.080,-0.17,-0.065
21:19:18.084,-0.16,-0.06
21:19:18.088,-0.165,-0.09
21:19:18.092,-0.16,-0.085
21:19:18.096,-0.14,-0.065
21:19:18.100,-0.11,-0.07
21:19:18.104,-0.065,-0.07
21:19:18.108,-0.05,-0.065
21:19:18.112,-0.02,-0.05
21:19:18.116,0.03,-0.03
21:19:18.120,0.055,-0.04
21:19:18.124,0.05,-0.05
21:19:18.128,0.065,-0.045
21:19:18.132,0.05,-0.075
21:19:18.136,-0.005,-0.08
21:19:18.140,-0.045,-0.105
21:19:18.144,-0.075,-0.1
21:19:18.148,-0.135,-0.105
21:19:18.152,-0.2,-0.12
21:19:18.156,-0.245,-0.08
21:19:18.160,-0.28,-0.105
21:19:18.164,-0.345,-0.115
21:19:18.168,-0.38,-0.095
21:19:18.172,-0.37,-0.1
21:19:18.176,-0.395,-0.115
21:19:18.180,-0.395,-0.095
21:19:18.184,-0.405,-0.115
21:19:18.188,-0.42,-0.13
21:19:18.192,-0.37,-0.12
21:19:18.196,-0.375,-0.14
21:19:18.200,-0.385,-0.13
21:19:18.204,-0.4,-0.15
21:19:18.208,-0.38,-0.15
21:19:18.212,-0.395,-0.155
21:19:18.216,-0.4,-0.16
21:19:18.220,-0.38,-0.17
21:19:18.224,-0.39,-0.185
21:19:18.228,-0.38,-0.19
21:19:18.232,-0.4,-0.185
21:19:18.236,-0.4,-0.18
21:19:18.240,-0.375,-0.195
21:19:18.244,-0.355,-0.175
21:19:18.248,-0.375,-0.2
21:19:18.252,-0.36,-0.19
21:19:18.256,-0.355,-0.175
21:19:18.260,-0.335,-0.185
21:19:18.264,-0.34,-0.2
21:19:18.268,-0.36,-0.19
21:19:18.272,-0.33,-0.205
21:19:18.276,-0.305,-0.215
21:19:18.280,-0.25,-0.22
21:19:18.284,-0.18,-0.22
21:19:18.288,-0.09,-0.245
21:19:18.292,0.01,-0.27
21:19:18.296,0.085,-0.295
21:19:18.300,0.14,-0.345
21:19:18.304,0.17,-0.33
21:19:18.308,0.19,-0.355
21:19:18.312,0.175,-0.4
21:19:18.316,0.155,-0.485
21:19:18.320,0.27,-0.585
21:19:18.324,0.53,-0.8
21:19:18.328,0.835,-1.045
21:19:18.332,1.04,-1.24
21:19:18.336,0.965,-1.335
21:19:18.340,0.6,-1.2
21:19:18.344,0.14,-0.88
21:19:18.348,-0.205,-0.585
21:19:18.352,-0.32,-0.42
21:19:18.356,-0.35,-0.305
21:19:18.360,-0.35,-0.235
21:19:18.364,-0.375,-0.17
21:19:18.368,-0.41,-0.15
21:19:18.372,-0.45,-0.15
21:19:18.376,-0.47,-0.175
21:19:18.380,-0.49,-0.19
21:19:18.384,-0.48,-0.185
21:19:18.388,-0.47,-0.225
21:19:18.392,-0.47,-0.235
21:19:18.396,-0.51,-0.24
21:19:18.400,-0.51,-0.25
21:19:18.404,-0.53,-0.23
21:19:18.408,-0.515,-0.215
21:19:18.412,-0.51,-0.21
21:19:18.416,-0.515,-0.23
21:19:18.420,-0.53,-0.205
21:19:18.424,-0.51,-0.25
21:19:18.428,-0.51,-0.24
21:19:18.432,-0.515,-0.245
21:19:18.436,-0.505,-0.265
21:19:18.440,-0.515,-0.255
21:19:18.444,-0.535,-0.265
21:19:18.448,-0.54,-0.265
21:19:18.452,-0.53,-0.255
21:19:18.456,-0.525,-0.245
21:19:18.460,-0.53,-0.28
21:19:18.464,-0.515,-0.27
21:19:18.468,-0.53,-0.275
21:19:18.472,-0.525,-0.28
21:19:18.476,-0.53,-0.265
21:19:18.480,-0.525,-0.25
21:19:18.484,-0.535,-0.26
21:19:18.488,-0.53,-0.255
21:19:18.492,-0.53,-0.255
21:19:18.496,-0.525,-0.25
21:19:18.500,-0.52,-0.275
21:19:18.504,-0.54,-0.285
21:19:18.508,-0.535,-0.305
21:19:18.512,-0.53,-0.29
21:19:18.516,-0.52,-0.3
21:19:18.520,-0.545,-0.29
21:19:18.524,-0.525,-0.3
21:19:18.528,-0.495,-0.33
21:19:18.532,-0.495,-0.33
21:19:18.536,-0.46,-0.34
21:19:18.540,-0.455,-0.355
21:19:18.544,-0.445,-0.35
21:19:18.548,-0.44,-0.36
21:19:18.552,-0.44,-0.395
21:19:18.556,-0.425,-0.4
21:19:18.560,-0.405,-0.4
21:19:18.564,-0.395,-0.4
21:19:18.568,-0.395,-0.435
21:19:18.572,-0.405,-0.42
21:19:18.576,-0.385,-0.415
21:19:18.580,-0.33,-0.425
21:19:18.584,-0.32,-0.44
21:19:18.588,-0.31,-0.46
21:19:18.592,-0.32,-0.445
21:19:18.596,-0.32,-0.45
21:19:18.600,-0.3,-0.465
21:19:18.604,-0.29,-0.46
21:19:18.608,-0.29,-0.48
21:19:18.612,-0.28,-0.47
21:19:18.616,-0.285,-0.47
21:19:18.620,-0.265,-0.485
21:19:18.624,-0.265,-0.47
21:19:18.628,-0.28,-0.475
21:19:18.632,-0.29,-0.475
21:19:18.636,-0.265,-0.48
21:19:18.640,-0.29,-0.485
21:19:18.644,-0.28,-0.47
21:19:18.648,-0.26,-0.48
21:19:18.652,-0.27,-0.475
21:19:18.656,-0.285,-0.47
21:19:18.660,-0.29,-0.47
21:19:18.664,-0.29,-0.47
21:19:18.668,-0.285,-0.455
21:19:18.672,-0.275,-0.465
21:19:18.676,-0.285,-0.465
21:19:18.680,-0.285,-0.485
21:19:18.684,-0.275,-0.48
21:19:18.688,-0.28,-0.48
21:19:18.692,-0.28,-0.465
21:19:18.696,-0.285,-0.455
21:19:18.700,-0.27,-0.455
21:19:18.704,-0.26,-0.48
21:19:18.708,-0.235,-0.46
21:19:18.712,-0.235,-0.475
21:19:18.716,-0.225,-0.475
21:19:18.720,-0.23,-0.505
21:19:18.724,-0.215,-0.49
21:19:18.728,-0.2,-0.465
21:19:18.732,-0.16,-0.48
21:19:18.736,-0.115,-0.46
21:19:18.740,-0.08,-0.46
21:19:18.744,-0.065,-0.45
21:19:18.748,-0.04,-0.46
21:19:18.752,0.0,-0.455
21:19:18.756,-0.015,-0.44
21:19:18.760,0.005,-0.45
21:19:18.764,-0.02,-0.465
21:19:18.768,-0.06,-0.5
21:19:18.772,-0.11,-0.53
21:19:18.776,-0.16,-0.545
21:19:18.780,-0.22,-0.54
21:19:18.784,-0.255,-0.54
21:19:18.788,-0.31,-0.525
21:19:18.792,-0.365,-0.505
21:19:18.796,-0.39,-0.515
21:19:18.800,-0.42,-0.505
21:19:18.804,-0.38,-0.505
21:19:18.808,-0.375,-0.485
21:19:18.812,-0.375,-0.505
21:19:18.816,-0.37,-0.5
21:19:18.820,-0.38,-0.485
21:19:18.824,-0.375,-0.495
21:19:18.828,-0.37,-0.515
21:19:18.832,-0.38,-0.475
21:19:18.836,-0.37,-0.48
21:19:18.840,-0.35,-0.46
21:19:18.844,-0.365,-0.465
21:19:18.848,-0.355,-0.47
21:19:18.852,-0.385,-0.465
21:19:18.856,-0.365,-0.475
21:19:18.860,-0.365,-0.465
21:19:18.864,-0.375,-0.465
21:19:18.868,-0.36,-0.465
21:19:18.872,-0.36,-0.47
21:19:18.876,-0.35,-0.475
21:19:18.880,-0.37,-0.48
21:19:18.884,-0.335,-0.455
21:19:18.888,-0.335,-0.46
21:19:18.892,-0.35,-0.455
21:19:18.896,-0.335,-0.45
21:19:18.900,-0.315,-0.445
21:19:18.904,-0.315,-0.45
21:19:18.908,-0.27,-0.445
21:19:18.912,-0.17,-0.44
21:19:18.916,-0.08,-0.455
21:19:18.920,0.0,-0.44
21:19:18.924,0.085,-0.475
21:19:18.928,0.155,-0.5
21:19:18.932,0.22,-0.52
21:19:18.936,0.285,-0.5
21:19:18.940,0.3,-0.515
21:19:18.944,0.265,-0.55
21:19:18.948,0.275,-0.65
21:19:18.952,0.42,-0.785
21:19:18.956,0.705,-1.005
21:19:18.960,0.98,-1.22
21:19:18.964,1.135,-1.38
21:19:18.968,0.97,-1.42
21:19:18.972,0.53,-1.215
21:19:18.976,0.05,-0.86
21:19:18.980,-0.2,-0.62
21:19:18.984,-0.305,-0.455
21:19:18.988,-0.345,-0.365
21:19:18.992,-0.36,-0.28
21:19:18.996,-0.375,-0.23
21:19:19.000,-0.4,-0.215
21:19:19.004,-0.45,-0.17
21:19:19.008,-0.445,-0.21
21:19:19.012,-0.48,-0.23
21:19:19.016,-0.455,-0.25
21:19:19.020,-0.46,-0.235
21:19:19.024,-0.465,-0.225
21:19:19.028,-0.45,-0.23
21:19:19.032,-0.47,-0.245
21:19:19.036,-0.455,-0.21
21:19:19.040,-0.46,-0.205
21:19:19.044,-0.455,-0.2
21:19:19.048,-0.45,-0.185
21:19:19.052,-0.48,-0.18
21:19:19.056,-0.47,-0.16
21:19:19.060,-0.465,-0.17
21:19:19.064,-0.445,-0.18
21:19:19.068,-0.475,-0.205
21:19:19.072,-0.47,-0.19
21:19:19.076,-0.48,-0.195
21:19:19.080,-0.485,-0.175
21:19:19.084,-0.495,-0.2
21:19:19.088,-0.51,-0.195
21:19:19.092,-0.515,-0.185
21:19:19.096,-0.5,-0.185
21:19:19.100,-0.53,-0.15
21:19:19.104,-0.535,-0.18
21:19:19.108,-0.535,-0.16
21:19:19.112,-0.5,-0.175
21:19:19.116,-0.51,-0.155
21:19:19.120,-0.51,-0.16
21:19:19.124,-0.5,-0.165
21:19:19.128,-0.515,-0.16
21:19:19.132,-0.5,-0.16
21:19:19.136,-0.515,-0.14
21:19:19.140,-0.515,-0.15
21:19:19.144,-0.495,-0.15
21:19:19.148,-0.485,-0.185
21:19:19.152,-0.455,-0.17
21:19:19.156,-0.44,-0.165
21:19:19.160,-0.445,-0.15
21:19:19.164,-0.445,-0.17
21:19:19.168,-0.43,-0.165
21:19:19.172,-0.41,-0.18
21:19:19.176,-0.415,-0.175
21:19:19.180,-0.37,-0.17
21:19:19.184,-0.4,-0.2
21:19:19.188,-0.35,-0.21
21:19:19.192,-0.35,-0.22
21:19:19.196,-0.35,-0.225
21:19:19.200,-0.35,-0.225
21:19:19.204,-0.33,-0.23
21:19:19.208,-0.31,-0.25
21:19:19.212,-0.315,-0.255
21:19:19.216,-0.275,-0.26
21:19:19.220,-0.285,-0.26
21:19:19.224,-0.26,-0.245
21:19:19.228,-0.265,-0.245
21:19:19.232,-0.27,-0.25
21:19:19.236,-0.25,-0.265
21:19:19.240,-0.255,-0.265
21:19:19.244,-0.245,-0.25
21:19:19.248,-0.245,-0.245
21:19:19.252,-0.22,-0.265
21:19:19.256,-0.23,-0.235
21:19:19.260,-0.21,-0.255
21:19:19.264,-0.19,-0.215
21:19:19.268,-0.205,-0.215
21:19:19.272,-0.22,-0.225
21:19:19.276,-0.19,-0.205
21:19:19.280,-0.205,-0.205
21:19:19.284,-0.205,-0.195
21:19:19.288,-0.205,-0.215
21:19:19.292,-0.205,-0.2
21:19:19.296,-0.21,-0.215
21:19:19.300,-0.205,-0.22
21:19:19.304,-0.22,-0.21
21:19:19.308,-0.22,-0.205
21:19:19.312,-0.23,-0.2
21:19:19.316,-0.205,-0.21
21:19:19.320,-0.22,-0.225
21:19:19.324,-0.225,-0.2
21:19:19.328,-0.205,-0.21
21:19:19.332,-0.185,-0.22
21:19:19.336,-0.18,-0.215
21:19:19.340,-0.155,-0.195
21:19:19.344,-0.165,-0.185
21:19:19.348,-0.16,-0.185
21:19:19.352,-0.14,-0.165
21:19:19.356,-0.09,-0.18
21:19:19.360,-0.045,-0.14
21:19:19.364,-0.015,-0.14
21:19:19.368,-0.005,-0.12
21:19:19.372,0.03,-0.125
21:19:19.376,0.06,-0.12
21:19:19.380,0.08,-0.115
21:19:19.384,0.085,-0.14
21:19:19.388,0.08,-0.16
21:19:19.392,0.025,-0.16
21:19:19.396,-0.015,-0.19
21:19:19.400,-0.055,-0.22
21:19:19.404,-0.12,-0.205
21:19:19.408,-0.175,-0.2
21:19:19.412,-0.245,-0.19
21:19:19.416,-0.27,-0.19
21:19:19.420,-0.31,-0.14
21:19:19.424,-0.345,-0.15
21:19:19.428,-0.335,-0.17
21:19:19.432,-0.355,-0.165
21:19:19.436,-0.33,-0.17
21:19:19.440,-0.34,-0.16
21:19:19.444,-0.345,-0.195
21:19:19.448,-0.34,-0.18
21:19:19.452,-0.32,-0.205
21:19:19.456,-0.32,-0.18
21:19:19.460,-0.305,-0.18
21:19:19.464,-0.315,-0.17
21:19:19.468,-0.305,-0.17
21:19:19.472,-0.31,-0.175
21:19:19.476,-0.285,-0.16
21:19:19.480,-0.285,-0.18
21:19:19.484,-0.295,-0.18
21:19:19.488,-0.29,-0.18
21:19:19.492,-0.275,-0.19
21:19:19.496,-0.295,-0.155
21:19:19.500,-0.29,-0.16
21:19:19.504,-0.3,-0.17
21:19:19.508,-0.295,-0.15
21:19:19.512,-0.295,-0.15
21:19:19.516,-0.285,-0.17
21:19:19.520,-0.27,-0.17
21:19:19.524,-0.28,-0.155
21:19:19.528,-0.275,-0.18
21:19:19.532,-0.23,-0.17
21:19:19.536,-0.19,-0.165
21:19:19.540,-0.105,-0.17
21:19:19.544,-0.03,-0.205
21:19:19.548,0.055,-0.23
21:19:19.552,0.1,-0.265
21:19:19.556,0.13,-0.315
21:19:19.560,0.16,-0.325
21:19:19.564,0.175,-0.32
21:19:19.568,0.155,-0.385
21:19:19.572,0.155,-0.49
21:19:19.576,0.295,-0.64
21:19:19.580,0.57,-0.86
21:19:19.584,0.91,-1.105
21:19:19.588,1.11,-1.315
21:19:19.592,1.045,-1.38
21:19:19.596,0.65,-1.17
21:19:19.600,0.155,-0.765
21:19:19.604,-0.175,-0.46
21:19:19.608,-0.29,-0.27
21:19:19.612,-0.37,-0.14
21:19:19.616,-0.375,-0.085
21:19:19.620,-0.355,-0.04
21:19:19.624,-0.375,-0.02
21:19:19.628,-0.42,-0.025
21:19:19.632,-0.43,-0.01
21:19:19.636,-0.435,-0.04
21:19:19.640,-0.445,-0.05
21:19:19.644,-0.445,-0.055
21:19:19.648,-0.44,-0.065
21:19:19.652,-0.45,-0.055
21:19:19.656,-0.44,-0.075
21:19:19.660,-0.445,-0.08
21:19:19.664,-0.46,-0.055
21:19:19.668,-0.45,-0.08
21:19:19.672,-0.46,-0.06
21:19:19.676,-0.465,-0.05
21:19:19.680,-0.48,-0.055
21:19:19.684,-0.46,-0.055
21:19:19.688,-0.46,-0.065
21:19:19.692,-0.47,-0.08
21:19:19.696,-0.465,-0.055
21:19:19.700,-0.465,-0.085
21:19:19.704,-0.45,-0.065
21:19:19.708,-0.465,-0.055
21:19:19.712,-0.48,-0.04
21:19:19.716,-0.465,-0.055
21:19:19.720,-0.46,-0.06
21:19:19.724,-0.465,-0.055
21:19:19.728,-0.48,-0.05
21:19:19.732,-0.475,-0.05
21:19:19.736,-0.46,-0.065
21:19:19.740,-0.47,-0.045
21:19:19.744,-0.48,-0.045
21:19:19.748,-0.49,-0.06
21:19:19.752,-0.485,-0.04
21:19:19.756,-0.47,-0.055
21:19:19.760,-0.47,-0.045
21:19:19.764,-0.45,-0.05
21:19:19.768,-0.465,-0.05
21:19:19.772,-0.46,-0.065
21:19:19.776,-0.43,-0.075
21:19:19.780,-0.435,-0.07
21:19:19.784,-0.42,-0.08
21:19:19.788,-0.41,-0.09
21:19:19.792,-0.41,-0.09
21:19:19.796,-0.385,-0.11
21:19:19.800,-0.34,-0.115
21:19:19.804,-0.345,-0.105
21:19:19.808,-0.335,-0.115
21:19:19.812,-0.32,-0.115
21:19:19.816,-0.3,-0.12
21:19:19.820,-0.295,-0.12
21:19:19.824,-0.3,-0.12
21:19:19.828,-0.275,-0.14
21:19:19.832,-0.27,-0.13
21:19:19.836,-0.265,-0.12
21:19:19.840,-0.275,-0.125
21:19:19.844,-0.27,-0.12
21:19:19.848,-0.25,-0.135
21:19:19.852,-0.265,-0.11
21:19:19.856,-0.255,-0.125
21:19:19.860,-0.265,-0.145
21:19:19.864,-0.25,-0.15
21:19:19.868,-0.27,-0.125
21:19:19.872,-0.265,-0.125
21:19:19.876,-0.265,-0.145
21:19:19.880,-0.25,-0.13
21:19:19.884,-0.235,-0.14
21:19:19.888,-0.25,-0.125
21:19:19.892,-0.25,-0.135
21:19:19.896,-0.265,-0.125
21:19:19.900,-0.255,-0.125
21:19:19.904,-0.25,-0.12
21:19:19.908,-0.26,-0.11
21:19:19.912,-0.265,-0.11
21:19:19.916,-0.265,-0.13
21:19:19.920,-0.265,-0.115
21:19:19.924,-0.265,-0.1
21:19:19.928,-0.265,-0.08
21:19:19.932,-0.275,-0.095
21:19:19.936,-0.265,-0.09
21:19:19.940,-0.24,-0.105
21:19:19.944,-0.225,-0.08
21:19:19.948,-0.225,-0.105
21:19:19.952,-0.215,-0.09
21:19:19.956,-0.195,-0.08
21:19:19.960,-0.2,-0.08
21:19:19.964,-0.18,-0.11
21:19:19.968,-0.15,-0.095
21:19:19.972,-0.11,-0.075
21:19:19.976,-0.09,-0.065
21:19:19.980,-0.1,-0.06
21:19:19.984,-0.07,-0.06
21:19:19.988,-0.045,-0.08
21:19:19.992,-0.035,-0.065
21:19:19.996,-0.04,-0.1
21:19:20.000,-0.09,-0.125
21:19:20.004,-0.12,-0.15
21:19:20.008,-0.165,-0.16
21:19:20.012,-0.205,-0.165
21:19:20.016,-0.275,-0.18
21:19:20.020,-0.31,-0.17
21:19:20.024,-0.37,-0.16
21:19:20.028,-0.425,-0.17
21:19:20.032,-0.465,-0.16
21:19:20.036,-0.46,-0.16
21:19:20.040,-0.455,-0.16
21:19:20.044,-0.46,-0.15
21:19:20.048,-0.46,-0.155
21:19:20.052,-0.44,-0.19
21:19:20.056,-0.44,-0.19
21:19:20.060,-0.43,-0.185
21:19:20.064,-0.425,-0.18
21:19:20.068,-0.44,-0.2
21:19:20.072,-0.425,-0.175
21:19:20.076,-0.42,-0.18
21:19:20.080,-0.425,-0.175
21:19:20.084,-0.44,-0.2
21:19:20.088,-0.425,-0.225
21:19:20.092,-0.445,-0.23
21:19:20.096,-0.455,-0.255
21:19:20.100,-0.45,-0.25
21:19:20.104,-0.45,-0.24
21:19:20.108,-0.455,-0.25
21:19:20.112,-0.445,-0.255
21:19:20.116,-0.445,-0.24
21:19:20.120,-0.43,-0.255
21:19:20.124,-0.42,-0.24
21:19:20.128,-0.415,-0.27
21:19:20.132,-0.41,-0.285
21:19:20.136,-0.385,-0.275
21:19:20.140,-0.36,-0.24
21:19:20.144,-0.305,-0.285
21:19:20.148,-0.245,-0.28
21:19:20.152,-0.16,-0.29
21:19:20.156,-0.075,-0.315
21:19:20.160,0.025,-0.35
21:19:20.164,0.06,-0.38
21:19:20.168,0.11,-0.41
21:19:20.172,0.18,-0.385
21:19:20.176,0.185,-0.395
21:19:20.180,0.17,-0.47
21:19:20.184,0.185,-0.555
21:19:20.188,0.35,-0.72
21:19:20.192,0.67,-0.96
21:19:20.196,0.945,-1.19
21:19:20.200,1.035,-1.335
21:19:20.204,0.815,-1.31
21:19:20.208,0.345,-1.05
21:19:20.212,-0.085,-0.735
21:19:20.216,-0.305,-0.545
21:19:20.220,-0.4,-0.415
21:19:20.224,-0.435,-0.31
21:19:20.228,-0.455,-0.255
21:19:20.232,-0.475,-0.225
21:19:20.236,-0.5,-0.205
21:19:20.240,-0.535,-0.205
21:19:20.244,-0.55,-0.25
21:19:20.248,-0.54,-0.26
21:19:20.252,-0.53,-0.29
21:19:20.256,-0.54,-0.295
21:19:20.260,-0.565,-0.29
21:19:20.264,-0.565,-0.31
21:19:20.268,-0.585,-0.31
21:19:20.272,-0.565,-0.315
21:19:20.276,-0.555,-0.32
21:19:20.280,-0.56,-0.32
21:19:20.284,-0.575,-0.305
21:19:20.288,-0.565,-0.31
21:19:20.292,-0.59,-0.325
21:19:20.296,-0.59,-0.345
21:19:20.300,-0.61,-0.32
21:19:20.304,-0.6,-0.345
21:19:20.308,-0.585,-0.35
21:19:20.312,-0.58,-0.35
21:19:20.316,-0.585,-0.32
21:19:20.320,-0.61,-0.36
21:19:20.324,-0.64,-0.375
21:19:20.328,-0.635,-0.375
21:19:20.332,-0.64,-0.385
21:19:20.336,-0.64,-0.39
21:19:20.340,-0.62,-0.4
21:19:20.344,-0.64,-0.375
21:19:20.348,-0.645,-0.41
21:19:20.352,-0.635,-0.395
21:19:20.356,-0.635,-0.415
21:19:20.360,-0.64,-0.395
21:19:20.364,-0.64,-0.405
21:19:20.368,-0.62,-0.42
21:19:20.372,-0.605,-0.415
21:19:20.376,-0.585,-0.38
21:19:20.380,-0.61,-0.425
21:19:20.384,-0.595,-0.41
21:19:20.388,-0.57,-0.4
21:19:20.392,-0.55,-0.41
21:19:20.396,-0.535,-0.42
21:19:20.400,-0.545,-0.445
21:19:20.404,-0.545,-0.455
21:19:20.408,-0.545,-0.43
21:19:20.412,-0.505,-0.43
21:19:20.416,-0.495,-0.435
21:19:20.420,-0.48,-0.45
21:19:20.424,-0.48,-0.48
21:19:20.428,-0.47,-0.475
21:19:20.432,-0.46,-0.485
21:19:20.436,-0.475,-0.505
21:19:20.440,-0.44,-0.495
21:19:20.444,-0.41,-0.5
21:19:20.448,-0.405,-0.5
21:19:20.452,-0.425,-0.495
21:19:20.456,-0.42,-0.495
21:19:20.460,-0.39,-0.51
21:19:20.464,-0.375,-0.51
21:19:20.468,-0.37,-0.515
21:19:20.472,-0.365,-0.51
21:19:20.476,-0.345,-0.485
21:19:20.480,-0.345,-0.5
21:19:20.484,-0.32,-0.495
21:19:20.488,-0.31,-0.47
21:19:20.492,-0.31,-0.485
21:19:20.496,-0.29,-0.475
21:19:20.500,-0.3,-0.46
21:19:20.504,-0.29,-0.475
21:19:20.508,-0.28,-0.45
21:19:20.512,-0.31,-0.45
21:19:20.516,-0.295,-0.46
21:19:20.520,-0.3,-0.47
21:19:20.524,-0.3,-0.46
21:19:20.528,-0.31,-0.46
21:19:20.532,-0.295,-0.46
21:19:20.536,-0.3,-0.46
21:19:20.540,-0.3,-0.48
21:19:20.544,-0.335,-0.465
21:19:20.548,-0.305,-0.46
21:19:20.552,-0.305,-0.45
21:19:20.556,-0.31,-0.46
21:19:20.560,-0.315,-0.445
21:19:20.564,-0.29,-0.47
21:19:20.568,-0.295,-0.465
21:19:20.572,-0.29,-0.455
21:19:20.576,-0.265,-0.455
21:19:20.580,-0.255,-0.465
21:19:20.584,-0.25,-0.445
21:19:20.588,-0.235,-0.435
21:19:20.592,-0.21,-0.415
21:19:20.596,-0.145,-0.415
21:19:20.600,-0.105,-0.405
21:19:20.604,-0.06,-0.385
21:19:20.608,-0.035,-0.35
21:19:20.612,-0.025,-0.38
21:19:20.616,0.01,-0.38
21:19:20.620,0.025,-0.38
21:19:20.624,0.01,-0.375
21:19:20.628,-0.015,-0.39
21:19:20.632,-0.05,-0.42
21:19:20.636,-0.095,-0.435
21:19:20.640,-0.15,-0.425
21:19:20.644,-0.21,-0.425
21:19:20.648,-0.26,-0.415
21:19:20.652,-0.315,-0.41
21:19:20.656,-0.365,-0.41
21:19:20.660,-0.39,-0.395
21:19:20.664,-0.39,-0.375
21:19:20.668,-0.385,-0.37
21:19:20.672,-0.395,-0.37
21:19:20.676,-0.405,-0.4
21:19:20.680,-0.385,-0.4
21:19:20.684,-0.37,-0.385
21:19:20.688,-0.36,-0.4
21:19:20.692,-0.36,-0.395
21:19:20.696,-0.345,-0.4
21:19:20.700,-0.335,-0.395
21:19:20.704,-0.34,-0.375
21:19:20.708,-0.34,-0.375
21:19:20.712,-0.325,-0.385
21:19:20.716,-0.325,-0.39
21:19:20.720,-0.32,-0.395
21:19:20.724,-0.295,-0.39
21:19:20.728,-0.31,-0.39
21:19:20.732,-0.29,-0.385
