Time,ECG1,ECG2
21:24:59.048,-0.35,-0.38
21:24:59.052,-0.37,-0.36
21:24:59.056,-0.39,-0.345
21:24:59.060,-0.38,-0.365
21:24:59.064,-0.38,-0.355
21:24:59.068,-0.385,-0.395
21:24:59.072,-0.42,-0.39
21:24:59.076,-0.4,-0.36
21:24:59.080,-0.4,-0.365
21:24:59.084,-0.385,-0.4
21:24:59.088,-0.375,-0.385
21:24:59.092,-0.4,-0.38
21:24:59.096,-0.395,-0.42
21:24:59.100,-0.395,-0.405
21:24:59.104,-0.38,-0.415
21:24:59.108,-0.37,-0.42
21:24:59.112,-0.385,-0.4
21:24:59.116,-0.36,-0.405
21:24:59.120,-0.385,-0.39
21:24:59.124,-0.37,-0.38
21:24:59.128,-0.36,-0.39
21:24:59.132,-0.35,-0.375
21:24:59.136,-0.36,-0.37
21:24:59.140,-0.335,-0.37
21:24:59.144,-0.34,-0.34
21:24:59.148,-0.345,-0.35
21:24:59.152,-0.355,-0.35
21:24:59.156,-0.33,-0.335
21:24:59.160,-0.305,-0.345
21:24:59.164,-0.33,-0.33
21:24:59.168,-0.3,-0.32
21:24:59.172,-0.295,-0.315
21:24:59.176,-0.295,-0.27
21:24:59.180,-0.29,-0.28
21:24:59.184,-0.29,-0.265
21:24:59.188,-0.275,-0.265
21:24:59.192,-0.245,-0.265
21:24:59.196,-0.23,-0.275
21:24:59.200,-0.255,-0.27
21:24:59.204,-0.245,-0.305
21:24:59.208,-0.265,-0.325
21:24:59.212,-0.315,-0.325
21:24:59.216,-0.32,-0.28
21:24:59.220,-0.35,-0.27
21:24:59.224,-0.385,-0.265
21:24:59.228,-0.38,-0.265
21:24:59.232,-0.38,-0.2
21:24:59.236,-0.355,-0.165
21:24:59.240,-0.355,-0.16
21:24:59.244,-0.345,-0.145
21:24:59.248,-0.33,-0.135
21:24:59.252,-0.315,-0.135
21:24:59.256,-0.31,-0.12
21:24:59.260,-0.315,-0.12
21:24:59.264,-0.32,-0.125
21:24:59.268,-0.32,-0.12
21:24:59.272,-0.31,-0.11
21:24:59.276,-0.325,-0.1
21:24:59.280,-0.315,-0.11
21:24:59.284,-0.315,-0.1
21:24:59.288,-0.315,-0.1
21:24:59.292,-0.335,-0.105
21:24:59.296,-0.315,-0.115
21:24:59.300,-0.315,-0.105
21:24:59.304,-0.32,-0.095
21:24:59.308,-0.3,-0.09
21:24:59.312,-0.28,-0.1
21:24:59.316,-0.275,-0.09
21:24:59.320,-0.275,-0.1
21:24:59.324,-0.22,-0.085
21:24:59.328,-0.145,-0.075
21:24:59.332,-0.04,-0.08
21:24:59.336,0.04,-0.105
21:24:59.340,0.11,-0.115
21:24:59.344,0.18,-0.18
21:24:59.348,0.235,-0.2
21:24:59.352,0.275,-0.205
21:24:59.356,0.28,-0.235
21:24:59.360,0.28,-0.26
21:24:59.364,0.325,-0.345
21:24:59.368,0.52,-0.505
21:24:59.372,0.81,-0.685
21:24:59.376,1.1,-0.92
21:24:59.380,1.2,-1.12
21:24:59.384,0.975,-1.195
21:24:59.388,0.525,-1.04
21:24:59.392,0.055,-0.72
21:24:59.396,-0.19,-0.44
21:24:59.400,-0.285,-0.225
21:24:59.404,-0.33,-0.105
21:24:59.408,-0.345,-0.005
21:24:59.412,-0.365,0.03
21:24:59.416,-0.38,0.065
21:24:59.420,-0.415,0.055
21:24:59.424,-0.43,0.045
21:24:59.428,-0.41,0.02
21:24:59.432,-0.435,0.0
21:24:59.436,-0.46,-0.015
21:24:59.440,-0.44,-0.015
21:24:59.444,-0.455,-0.04
21:24:59.448,-0.455,-0.04
21:24:59.452,-0.46,-0.02
21:24:59.456,-0.455,-0.03
21:24:59.460,-0.44,-0.04
21:24:59.464,-0.42,-0.055
21:24:59.468,-0.45,-0.03
21:24:59.472,-0.445,-0.04
21:24:59.476,-0.45,-0.05
21:24:59.480,-0.43,-0.035
21:24:59.484,-0.445,-0.02
21:24:59.488,-0.455,-0.035
21:24:59.492,-0.475,-0.04
21:24:59.496,-0.47,-0.025
21:24:59.500,-0.48,-0.02
21:24:59.504,-0.505,-0.03
21:24:59.508,-0.49,-0.005
21:24:59.512,-0.47,-0.015
21:24:59.516,-0.5,-0.04
21:24:59.520,-0.525,-0.03
21:24:59.524,-0.525,-0.035
21:24:59.528,-0.52,-0.04
21:24:59.532,-0.51,-0.015
21:24:59.536,-0.52,-0.025
21:24:59.540,-0.525,-0.025
21:24:59.544,-0.5,-0.015
21:24:59.548,-0.505,-0.015
21:24:59.552,-0.51,-0.015
21:24:59.556,-0.515,-0.015
21:24:59.560,-0.505,-0.02
21:24:59.564,-0.52,-0.03
21:24:59.568,-0.49,-0.01
21:24:59.572,-0.46,-0.045
21:24:59.576,-0.435,-0.035
21:24:59.580,-0.415,-0.03
21:24:59.584,-0.43,-0.055
21:24:59.588,-0.43,-0.045
21:24:59.592,-0.41,-0.045
21:24:59.596,-0.405,-0.055
21:24:59.600,-0.395,-0.05
21:24:59.604,-0.38,-0.065
21:24:59.608,-0.375,-0.065
21:24:59.612,-0.36,-0.09
21:24:59.616,-0.375,-0.09
21:24:59.620,-0.36,-0.09
21:24:59.624,-0.35,-0.1
21:24:59.628,-0.35,-0.11
21:24:59.632,-0.335,-0.115
21:24:59.636,-0.34,-0.11
21:24:59.640,-0.33,-0.095
21:24:59.644,-0.31,-0.11
21:24:59.648,-0.315,-0.125
21:24:59.652,-0.31,-0.1
21:24:59.656,-0.31,-0.11
21:24:59.660,-0.3,-0.12
21:24:59.664,-0.29,-0.09
21:24:59.668,-0.305,-0.09
21:24:59.672,-0.285,-0.085
21:24:59.676,-0.265,-0.085
21:24:59.680,-0.27,-0.09
21:24:59.684,-0.27,-0.07
21:24:59.688,-0.275,-0.07
21:24:59.692,-0.245,-0.055
21:24:59.696,-0.25,-0.06
21:24:59.700,-0.26,-0.055
21:24:59.704,-0.265,-0.055
21:24:59.708,-0.265,-0.045
21:24:59.712,-0.25,-0.03
21:24:59.716,-0.28,-0.02
21:24:59.720,-0.265,-0.025
21:24:59.724,-0.26,-0.03
21:24:59.728,-0.29,-0.02
21:24:59.732,-0.285,-0.02
21:24:59.736,-0.305,-0.01
21:24:59.740,-0.3,-0.015
21:24:59.744,-0.315,-0.015
21:24:59.748,-0.325,-0.005
21:24:59.752,-0.325,-0.04
21:24:59.756,-0.315,-0.03
21:24:59.760,-0.315,-0.04
21:24:59.764,-0.33,-0.03
21:24:59.768,-0.315,-0.02
21:24:59.772,-0.31,-0.02
21:24:59.776,-0.315,-0.03
21:24:59.780,-0.345,-0.025
21:24:59.784,-0.33,-0.025
21:24:59.788,-0.31,-0.015
21:24:59.792,-0.295,-0.02
21:24:59.796,-0.29,-0.025
21:24:59.800,-0.315,-0.015
21:24:59.804,-0.275,-0.025
21:24:59.808,-0.295,-0.035
21:24:59.812,-0.295,-0.02
21:24:59.816,-0.305,-0.03
21:24:59.820,-0.3,-0.03
21:24:59.824,-0.31,-0.02
21:24:59.828,-0.29,0.005
21:24:59.832,-0.27,-0.015
21:24:59.836,-0.285,-0.035
21:24:59.840,-0.31,-0.01
21:24:59.844,-0.3,-0.04
21:24:59.848,-0.305,-0.03
21:24:59.852,-0.31,-0.02
21:24:59.856,-0.315,-0.025
21:24:59.860,-0.325,-0.055
21:24:59.864,-0.31,-0.05
21:24:59.868,-0.305,-0.05
21:24:59.872,-0.31,-0.055
21:24:59.876,-0.3,-0.04
21:24:59.880,-0.29,-0.04
21:24:59.884,-0.295,-0.065
21:24:59.888,-0.31,-0.05
21:24:59.892,-0.305,-0.055
21:24:59.896,-0.29,-0.05
21:24:59.900,-0.27,-0.03
21:24:59.904,-0.27,-0.06
21:24:59.908,-0.26,-0.04
21:24:59.912,-0.25,-0.02
21:24:59.916,-0.22,-0.02
21:24:59.920,-0.21,-0.04
21:24:59.924,-0.21,0.0
21:24:59.928,-0.2,0.0
21:24:59.932,-0.185,-0.01
21:24:59.936,-0.16,0.0
21:24:59.940,-0.125,0.01
21:24:59.944,-0.115,0.025
21:24:59.948,-0.055,0.03
21:24:59.952,-0.05,0.015
21:24:59.956,-0.035,0.035
21:24:59.960,-0.03,0.04
21:24:59.964,-0.005,0.035
21:24:59.968,0.01,0.035
21:24:59.972,-0.035,0.015
21:24:59.976,-0.08,-0.01
21:24:59.980,-0.105,-0.035
21:24:59.984,-0.155,-0.045
21:24:59.988,-0.21,-0.05
21:24:59.992,-0.24,-0.045
21:24:59.996,-0.32,-0.05
21:25:00.000,-0.35,-0.02
21:25:00.004,-0.365,-0.035
21:25:00.008,-0.405,-0.025
21:25:00.012,-0.39,-0.03
21:25:00.016,-0.38,-0.025
21:25:00.020,-0.365,-0.04
21:25:00.024,-0.37,-0.025
21:25:00.028,-0.355,-0.055
21:25:00.032,-0.355,-0.055
21:25:00.036,-0.35,-0.055
21:25:00.040,-0.345,-0.06
21:25:00.044,-0.36,-0.06
21:25:00.048,-0.355,-0.05
21:25:00.052,-0.35,-0.06
21:25:00.056,-0.365,-0.055
21:25:00.060,-0.365,-0.06
21:25:00.064,-0.35,-0.065
21:25:00.068,-0.34,-0.06
21:25:00.072,-0.375,-0.045
21:25:00.076,-0.38,-0.07
21:25:00.080,-0.365,-0.06
21:25:00.084,-0.33,-0.07
21:25:00.088,-0.34,-0.08
21:25:00.092,-0.325,-0.065
21:25:00.096,-0.33,-0.09
21:25:00.100,-0.335,-0.095
21:25:00.104,-0.345,-0.1
21:25:00.108,-0.31,-0.065
21:25:00.112,-0.28,-0.08
21:25:00.116,-0.215,-0.105
21:25:00.120,-0.155,-0.095
21:25:00.124,-0.065,-0.1
21:25:00.128,0.035,-0.11
21:25:00.132,0.095,-0.125
21:25:00.136,0.09,-0.145
21:25:00.140,0.12,-0.215
21:25:00.144,0.125,-0.215
21:25:00.148,0.11,-0.23
21:25:00.152,0.09,-0.275
21:25:00.156,0.185,-0.4
21:25:00.160,0.425,-0.545
21:25:00.164,0.745,-0.76
21:25:00.168,1.025,-0.995
21:25:00.172,1.105,-1.19
21:25:00.176,0.895,-1.215
21:25:00.180,0.465,-1.015
21:25:00.184,0.0,-0.66
21:25:00.188,-0.255,-0.35
21:25:00.192,-0.37,-0.15
21:25:00.196,-0.41,-0.045
21:25:00.200,-0.44,0.005
21:25:00.204,-0.445,0.06
21:25:00.208,-0.455,0.075
21:25:00.212,-0.475,0.085
21:25:00.216,-0.49,0.08
21:25:00.220,-0.5,0.08
21:25:00.224,-0.515,0.065
21:25:00.228,-0.52,0.06
21:25:00.232,-0.5,0.07
21:25:00.236,-0.515,0.07
21:25:00.240,-0.49,0.075
21:25:00.244,-0.495,0.065
21:25:00.248,-0.48,0.065
21:25:00.252,-0.515,0.075
21:25:00.256,-0.505,0.075
21:25:00.260,-0.48,0.06
21:25:00.264,-0.495,0.075
21:25:00.268,-0.505,0.095
21:25:00.272,-0.54,0.085
21:25:00.276,-0.55,0.07
21:25:00.280,-0.565,0.055
21:25:00.284,-0.56,0.075
21:25:00.288,-0.565,0.1
21:25:00.292,-0.565,0.07
21:25:00.296,-0.575,0.08
21:25:00.300,-0.585,0.07
21:25:00.304,-0.605,0.07
21:25:00.308,-0.605,0.035
21:25:00.312,-0.615,0.075
21:25:00.316,-0.615,0.045
21:25:00.320,-0.6,0.045
21:25:00.324,-0.585,0.035
21:25:00.328,-0.59,0.015
21:25:00.332,-0.605,0.04
21:25:00.336,-0.595,0.02
21:25:00.340,-0.58,0.035
21:25:00.344,-0.585,0.025
21:25:00.348,-0.6,0.045
21:25:00.352,-0.575,0.025
21:25:00.356,-0.565,0.02
21:25:00.360,-0.56,0.02
21:25:00.364,-0.565,0.045
21:25:00.368,-0.545,0.0
21:25:00.372,-0.535,0.025
21:25:00.376,-0.54,0.01
21:25:00.380,-0.535,0.0
21:25:00.384,-0.535,-0.015
21:25:00.388,-0.53,-0.015
21:25:00.392,-0.52,-0.015
21:25:00.396,-0.52,-0.03
21:25:00.400,-0.505,-0.05
21:25:00.404,-0.495,-0.045
21:25:00.408,-0.49,-0.025
21:25:00.412,-0.485,-0.065
21:25:00.416,-0.505,-0.07
21:25:00.420,-0.48,-0.08
21:25:00.424,-0.475,-0.1
21:25:00.428,-0.48,-0.11
21:25:00.432,-0.475,-0.095
21:25:00.436,-0.46,-0.11
21:25:00.440,-0.455,-0.11
21:25:00.444,-0.445,-0.125
21:25:00.448,-0.45,-0.125
21:25:00.452,-0.43,-0.12
21:25:00.456,-0.43,-0.11
21:25:00.460,-0.405,-0.1
21:25:00.464,-0.4,-0.105
21:25:00.468,-0.4,-0.125
21:25:00.472,-0.395,-0.13
21:25:00.476,-0.395,-0.11
21:25:00.480,-0.4,-0.115
21:25:00.484,-0.4,-0.1
21:25:00.488,-0.385,-0.115
21:25:00.492,-0.425,-0.13
21:25:00.496,-0.425,-0.14
21:25:00.500,-0.41,-0.125
21:25:00.504,-0.405,-0.12
21:25:00.508,-0.405,-0.14
21:25:00.512,-0.43,-0.14
21:25:00.516,-0.415,-0.15
21:25:00.520,-0.435,-0.16
21:25:00.524,-0.455,-0.16
21:25:00.528,-0.435,-0.155
21:25:00.532,-0.425,-0.17
21:25:00.536,-0.44,-0.155
21:25:00.540,-0.44,-0.18
21:25:00.544,-0.45,-0.18
21:25:00.548,-0.445,-0.18
21:25:00.552,-0.455,-0.195
21:25:00.556,-0.46,-0.195
21:25:00.560,-0.46,-0.22
21:25:00.564,-0.48,-0.225
21:25:00.568,-0.465,-0.24
21:25:00.572,-0.445,-0.23
21:25:00.576,-0.425,-0.225
21:25:00.580,-0.41,-0.235
21:25:00.584,-0.425,-0.23
21:25:00.588,-0.4,-0.25
21:25:00.592,-0.355,-0.23
21:25:00.596,-0.405,-0.25
21:25:00.600,-0.395,-0.25
21:25:00.604,-0.375,-0.25
21:25:00.608,-0.365,-0.24
21:25:00.612,-0.36,-0.23
21:25:00.616,-0.31,-0.25
21:25:00.620,-0.285,-0.25
21:25:00.624,-0.26,-0.265
21:25:00.628,-0.23,-0.25
21:25:00.632,-0.2,-0.265
21:25:00.636,-0.18,-0.27
21:25:00.640,-0.16,-0.25
21:25:00.644,-0.16,-0.28
21:25:00.648,-0.155,-0.29
21:25:00.652,-0.165,-0.33
21:25:00.656,-0.23,-0.345
21:25:00.660,-0.28,-0.36
21:25:00.664,-0.33,-0.375
21:25:00.668,-0.37,-0.4
21:25:00.672,-0.44,-0.42
21:25:00.676,-0.505,-0.4
21:25:00.680,-0.555,-0.38
21:25:00.684,-0.57,-0.4
21:25:00.688,-0.565,-0.385
21:25:00.692,-0.555,-0.4
21:25:00.696,-0.57,-0.4
21:25:00.700,-0.535,-0.41
21:25:00.704,-0.53,-0.42
21:25:00.708,-0.525,-0.435
21:25:00.712,-0.53,-0.425
21:25:00.716,-0.535,-0.415
21:25:00.720,-0.5,-0.46
21:25:00.724,-0.51,-0.465
21:25:00.728,-0.54,-0.45
21:25:00.732,-0.53,-0.445
21:25:00.736,-0.535,-0.455
21:25:00.740,-0.535,-0.45
21:25:00.744,-0.54,-0.46
21:25:00.748,-0.515,-0.47
21:25:00.752,-0.505,-0.495
21:25:00.756,-0.525,-0.465
21:25:00.760,-0.535,-0.49
21:25:00.764,-0.545,-0.495
21:25:00.768,-0.525,-0.505
21:25:00.772,-0.52,-0.485
21:25:00.776,-0.54,-0.51
21:25:00.780,-0.505,-0.505
21:25:00.784,-0.52,-0.515
21:25:00.788,-0.485,-0.495
21:25:00.792,-0.465,-0.51
21:25:00.796,-0.415,-0.51
21:25:00.800,-0.34,-0.5
21:25:00.804,-0.25,-0.52
21:25:00.808,-0.17,-0.505
21:25:00.812,-0.07,-0.51
21:25:00.816,0.0,-0.545
21:25:00.820,0.05,-0.59
21:25:00.824,0.105,-0.59
21:25:00.828,0.13,-0.59
21:25:00.832,0.135,-0.62
21:25:00.836,0.14,-0.675
21:25:00.840,0.24,-0.76
21:25:00.844,0.51,-0.9
21:25:00.848,0.815,-1.14
21:25:00.852,0.95,-1.33
21:25:00.856,0.835,-1.505
21:25:00.860,0.44,-1.455
21:25:00.864,-0.025,-1.21
21:25:00.868,-0.3,-0.905
21:25:00.872,-0.43,-0.69
21:25:00.876,-0.48,-0.55
21:25:00.880,-0.49,-0.44
21:25:00.884,-0.515,-0.39
21:25:00.888,-0.565,-0.345
21:25:00.892,-0.585,-0.31
21:25:00.896,-0.585,-0.3
21:25:00.900,-0.61,-0.305
21:25:00.904,-0.61,-0.35
21:25:00.908,-0.59,-0.325
21:25:00.912,-0.605,-0.35
21:25:00.916,-0.595,-0.33
21:25:00.920,-0.595,-0.35
21:25:00.924,-0.595,-0.33
21:25:00.928,-0.6,-0.305
21:25:00.932,-0.61,-0.295
21:25:00.936,-0.61,-0.29
21:25:00.940,-0.6,-0.29
21:25:00.944,-0.61,-0.275
21:25:00.948,-0.61,-0.285
21:25:00.952,-0.61,-0.285
21:25:00.956,-0.615,-0.27
21:25:00.960,-0.615,-0.275
21:25:00.964,-0.625,-0.26
21:25:00.968,-0.605,-0.23
21:25:00.972,-0.635,-0.25
21:25:00.976,-0.615,-0.26
21:25:00.980,-0.635,-0.22
21:25:00.984,-0.62,-0.24
21:25:00.988,-0.625,-0.225
21:25:00.992,-0.64,-0.215
21:25:00.996,-0.625,-0.2
21:25:01.000,-0.625,-0.19
21:25:01.004,-0.64,-0.195
21:25:01.008,-0.63,-0.19
21:25:01.012,-0.635,-0.16
21:25:01.016,-0.615,-0.18
21:25:01.020,-0.62,-0.165
21:25:01.024,-0.6,-0.14
21:25:01.028,-0.59,-0.14
21:25:01.032,-0.585,-0.125
21:25:01.036,-0.575,-0.125
21:25:01.040,-0.58,-0.115
21:25:01.044,-0.55,-0.13
21:25:01.048,-0.535,-0.105
21:25:01.052,-0.525,-0.12
21:25:01.056,-0.535,-0.125
21:25:01.060,-0.525,-0.14
21:25:01.064,-0.515,-0.12
21:25:01.068,-0.505,-0.13
21:25:01.072,-0.5,-0.13
21:25:01.076,-0.505,-0.155
21:25:01.080,-0.465,-0.14
21:25:01.084,-0.475,-0.13
21:25:01.088,-0.445,-0.175
21:25:01.092,-0.425,-0.185
21:25:01.096,-0.405,-0.18
21:25:01.100,-0.41,-0.175
21:25:01.104,-0.425,-0.185
21:25:01.108,-0.395,-0.19
21:25:01.112,-0.38,-0.19
21:25:01.116,-0.38,-0.185
21:25:01.120,-0.385,-0.175
21:25:01.124,-0.37,-0.19
21:25:01.128,-0.36,-0.19
21:25:01.132,-0.35,-0.185
21:25:01.136,-0.335,-0.18
21:25:01.140,-0.34,-0.165
21:25:01.144,-0.33,-0.165
21:25:01.148,-0.32,-0.15
21:25:01.152,-0.325,-0.16
21:25:01.156,-0.315,-0.145
21:25:01.160,-0.305,-0.12
21:25:01.164,-0.33,-0.12
21:25:01.168,-0.35,-0.12
21:25:01.172,-0.355,-0.13
21:25:01.176,-0.345,-0.115
21:25:01.180,-0.36,-0.13
21:25:01.184,-0.355,-0.13
21:25:01.188,-0.36,-0.14
21:25:01.192,-0.36,-0.12
21:25:01.196,-0.355,-0.13
21:25:01.200,-0.355,-0.115
21:25:01.204,-0.35,-0.13
21:25:01.208,-0.35,-0.135
21:25:01.212,-0.35,-0.13
21:25:01.216,-0.38,-0.13
21:25:01.220,-0.38,-0.125
21:25:01.224,-0.375,-0.13
21:25:01.228,-0.375,-0.12
21:25:01.232,-0.38,-0.12
21:25:01.236,-0.365,-0.13
21:25:01.240,-0.355,-0.12
21:25:01.244,-0.345,-0.115
21:25:01.248,-0.35,-0.12
21:25:01.252,-0.36,-0.14
21:25:01.256,-0.33,-0.115
21:25:01.260,-0.335,-0.115
21:25:01.264,-0.32,-0.12
21:25:01.268,-0.35,-0.12
21:25:01.272,-0.325,-0.12
21:25:01.276,-0.33,-0.13
21:25:01.280,-0.325,-0.12
21:25:01.284,-0.33,-0.11
21:25:01.288,-0.31,-0.09
21:25:01.292,-0.305,-0.125
21:25:01.296,-0.31,-0.12
21:25:01.300,-0.31,-0.11
21:25:01.304,-0.29,-0.095
21:25:01.308,-0.28,-0.1
21:25:01.312,-0.28,-0.1
21:25:01.316,-0.25,-0.095
21:25:01.320,-0.215,-0.105
21:25:01.324,-0.17,-0.07
21:25:01.328,-0.135,-0.07
21:25:01.332,-0.135,-0.055
21:25:01.336,-0.105,-0.08
21:25:01.340,-0.07,-0.045
21:25:01.344,-0.05,-0.045
21:25:01.348,-0.065,-0.04
21:25:01.352,-0.065,-0.075
21:25:01.356,-0.08,-0.115
21:25:01.360,-0.14,-0.115
21:25:01.364,-0.15,-0.14
21:25:01.368,-0.21,-0.135
21:25:01.372,-0.255,-0.145
21:25:01.376,-0.325,-0.14
21:25:01.380,-0.375,-0.13
21:25:01.384,-0.43,-0.12
21:25:01.388,-0.425,-0.115
21:25:01.392,-0.435,-0.12
21:25:01.396,-0.44,-0.11
21:25:01.400,-0.445,-0.115
21:25:01.404,-0.45,-0.11
21:25:01.408,-0.435,-0.13
21:25:01.412,-0.46,-0.11
21:25:01.416,-0.455,-0.15
21:25:01.420,-0.455,-0.15
21:25:01.424,-0.445,-0.16
21:25:01.428,-0.44,-0.14
21:25:01.432,-0.435,-0.16
21:25:01.436,-0.435,-0.155
21:25:01.440,-0.435,-0.15
21:25:01.444,-0.445,-0.155
21:25:01.448,-0.43,-0.155
21:25:01.452,-0.445,-0.15
21:25:01.456,-0.44,-0.16
21:25:01.460,-0.435,-0.155
21:25:01.464,-0.42,-0.135
21:25:01.468,-0.42,-0.145
21:25:01.472,-0.41,-0.125
21:25:01.476,-0.39,-0.145
21:25:01.480,-0.39,-0.135
21:25:01.484,-0.405,-0.135
21:25:01.488,-0.395,-0.125
21:25:01.492,-0.375,-0.135
21:25:01.496,-0.355,-0.125
21:25:01.500,-0.305,-0.125
21:25:01.504,-0.21,-0.125
21:25:01.508,-0.15,-0.13
21:25:01.512,-0.06,-0.165
21:25:01.516,-0.005,-0.18
21:25:01.520,0.02,-0.24
21:25:01.524,0.05,-0.275
21:25:01.528,0.035,-0.275
21:25:01.532,0.03,-0.29
21:25:01.536,0.05,-0.39
21:25:01.540,0.15,-0.5
21:25:01.544,0.42,-0.67
21:25:01.548,0.745,-0.895
21:25:01.552,0.995,-1.13
21:25:01.556,1.005,-1.3
21:25:01.560,0.69,-1.31
21:25:01.564,0.22,-1.055
21:25:01.568,-0.175,-0.685
21:25:01.572,-0.385,-0.4
21:25:01.576,-0.45,-0.21
21:25:01.580,-0.485,-0.115
21:25:01.584,-0.48,-0.04
21:25:01.588,-0.475,0.0
21:25:01.592,-0.505,0.02
21:25:01.596,-0.515,0.015
21:25:01.600,-0.515,0.01
21:25:01.604,-0.51,0.005
21:25:01.608,-0.52,-0.015
21:25:01.612,-0.565,-0.035
21:25:01.616,-0.545,-0.025
21:25:01.620,-0.54,-0.02
21:25:01.624,-0.545,-0.035
21:25:01.628,-0.55,-0.02
21:25:01.632,-0.55,-0.04
21:25:01.636,-0.57,-0.03
21:25:01.640,-0.56,-0.015
21:25:01.644,-0.56,-0.025
21:25:01.648,-0.565,-0.035
21:25:01.652,-0.575,-0.03
21:25:01.656,-0.59,-0.02
21:25:01.660,-0.585,-0.025
21:25:01.664,-0.595,-0.01
21:25:01.668,-0.58,-0.045
21:25:01.672,-0.59,-0.03
21:25:01.676,-0.59,-0.03
21:25:01.680,-0.59,-0.045
21:25:01.684,-0.585,-0.035
21:25:01.688,-0.585,-0.03
21:25:01.692,-0.6,-0.03
21:25:01.696,-0.58,-0.02
21:25:01.700,-0.585,-0.01
21:25:01.704,-0.595,0.0
21:25:01.708,-0.6,-0.01
21:25:01.712,-0.6,-0.02
21:25:01.716,-0.58,-0.015
21:25:01.720,-0.61,-0.01
21:25:01.724,-0.605,-0.02
21:25:01.728,-0.61,0.0
21:25:01.732,-0.59,-0.02
21:25:01.736,-0.6,-0.02
21:25:01.740,-0.595,-0.025
21:25:01.744,-0.59,-0.02
21:25:01.748,-0.565,-0.035
21:25:01.752,-0.57,-0.025
21:25:01.756,-0.585,-0.05
21:25:01.760,-0.57,-0.04
21:25:01.764,-0.53,-0.045
21:25:01.768,-0.51,-0.06
21:25:01.772,-0.515,-0.08
21:25:01.776,-0.5,-0.065
21:25:01.780,-0.49,-0.07
21:25:01.784,-0.49,-0.09
21:25:01.788,-0.485,-0.105
21:25:01.792,-0.475,-0.1
21:25:01.796,-0.425,-0.105
21:25:01.800,-0.42,-0.105
21:25:01.804,-0.42,-0.12
21:25:01.808,-0.4,-0.115
21:25:01.812,-0.38,-0.095
21:25:01.816,-0.39,-0.095
21:25:01.820,-0.385,-0.085
21:25:01.824,-0.37,-0.105
21:25:01.828,-0.34,-0.1
21:25:01.832,-0.33,-0.08
21:25:01.836,-0.365,-0.08
21:25:01.840,-0.37,-0.09
21:25:01.844,-0.37,-0.09
21:25:01.848,-0.365,-0.08
21:25:01.852,-0.37,-0.065
21:25:01.856,-0.385,-0.06
21:25:01.860,-0.37,-0.07
21:25:01.864,-0.37,-0.06
21:25:01.868,-0.365,-0.07
21:25:01.872,-0.38,-0.08
21:25:01.876,-0.38,-0.07
21:25:01.880,-0.385,-0.06
21:25:01.884,-0.41,-0.065
21:25:01.888,-0.425,-0.055
21:25:01.892,-0.415,-0.07
21:25:01.896,-0.385,-0.045
21:25:01.900,-0.41,-0.03
21:25:01.904,-0.4,-0.045
21:25:01.908,-0.405,-0.03
21:25:01.912,-0.42,-0.01
21:25:01.916,-0.405,-0.03
21:25:01.920,-0.41,-0.02
21:25:01.924,-0.4,-0.01
21:25:01.928,-0.405,0.01
21:25:01.932,-0.43,0.01
21:25:01.936,-0.43,0.025
21:25:01.940,-0.44,0.01
21:25:01.944,-0.43,0.0
21:25:01.948,-0.41,0.015
21:25:01.952,-0.425,0.025
21:25:01.956,-0.395,0.02
21:25:01.960,-0.38,0.045
21:25:01.964,-0.38,0.045
21:25:01.968,-0.39,0.055
21:25:01.972,-0.385,0.06
21:25:01.976,-0.35,0.075
21:25:01.980,-0.315,0.06
21:25:01.984,-0.29,0.075
21:25:01.988,-0.27,0.075
21:25:01.992,-0.23,0.075
21:25:01.996,-0.185,0.09
21:25:02.000,-0.17,0.1
21:25:02.004,-0.155,0.095
21:25:02.008,-0.13,0.11
21:25:02.012,-0.165,0.095
21:25:02.016,-0.18,0.08
21:25:02.020,-0.215,0.045
21:25:02.024,-0.27,0.03
21:25:02.028,-0.32,0.045
21:25:02.032,-0.405,0.035
21:25:02.036,-0.45,0.04
21:25:02.040,-0.485,0.055
21:25:02.044,-0.495,0.045
21:25:02.048,-0.54,0.065
21:25:02.052,-0.55,0.07
21:25:02.056,-0.57,0.06
21:25:02.060,-0.58,0.045
21:25:02.064,-0.565,0.055
21:25:02.068,-0.58,0.025
21:25:02.072,-0.565,0.02
21:25:02.076,-0.545,0.02
21:25:02.080,-0.54,0.02
21:25:02.084,-0.57,0.005
21:25:02.088,-0.56,0.01
21:25:02.092,-0.535,0.01
21:25:02.096,-0.565,-0.01
21:25:02.100,-0.555,-0.03
21:25:02.104,-0.565,-0.015
21:25:02.108,-0.555,-0.015
21:25:02.112,-0.58,-0.02
21:25:02.116,-0.555,-0.02
21:25:02.120,-0.53,-0.02
21:25:02.124,-0.52,-0.02
21:25:02.128,-0.52,-0.015
21:25:02.132,-0.53,-0.03
21:25:02.136,-0.535,-0.035
21:25:02.140,-0.545,-0.035
21:25:02.144,-0.52,-0.02
21:25:02.148,-0.52,-0.03
21:25:02.152,-0.5,-0.035
21:25:02.156,-0.47,-0.025
21:25:02.160,-0.42,-0.05
21:25:02.164,-0.36,-0.04
21:25:02.168,-0.24,-0.065
21:25:02.172,-0.165,-0.07
21:25:02.176,-0.07,-0.1
21:25:02.180,-0.015,-0.14
21:25:02.184,-0.01,-0.18
21:25:02.188,0.02,-0.165
21:25:02.192,0.03,-0.18
21:25:02.196,0.01,-0.24
21:25:02.200,0.105,-0.32
21:25:02.204,0.295,-0.465
21:25:02.208,0.625,-0.655
21:25:02.212,0.86,-0.905
21:25:02.216,0.92,-1.1
21:25:02.220,0.66,-1.175
21:25:02.224,0.22,-1.01
21:25:02.228,-0.21,-0.705
21:25:02.232,-0.42,-0.395
21:25:02.236,-0.505,-0.245
21:25:02.240,-0.515,-0.14
21:25:02.244,-0.52,-0.05
21:25:02.248,-0.555,0.005
21:25:02.252,-0.595,0.02
21:25:02.256,-0.59,0.0
21:25:02.260,-0.635,0.01
21:25:02.264,-0.65,-0.02
21:25:02.268,-0.65,-0.045
21:25:02.272,-0.64,-0.035
21:25:02.276,-0.645,-0.065
21:25:02.280,-0.675,-0.085
21:25:02.284,-0.685,-0.09
21:25:02.288,-0.675,-0.1
21:25:02.292,-0.685,-0.11
21:25:02.296,-0.695,-0.115
21:25:02.300,-0.65,-0.095
21:25:02.304,-0.65,-0.09
21:25:02.308,-0.67,-0.12
21:25:02.312,-0.68,-0.17
21:25:02.316,-0.715,-0.17
21:25:02.320,-0.71,-0.17
21:25:02.324,-0.715,-0.18
21:25:02.328,-0.71,-0.195
21:25:02.332,-0.72,-0.175
21:25:02.336,-0.71,-0.2
21:25:02.340,-0.72,-0.19
21:25:02.344,-0.715,-0.19
21:25:02.348,-0.705,-0.185
21:25:02.352,-0.725,-0.22
21:25:02.356,-0.72,-0.215
21:25:02.360,-0.71,-0.22
21:25:02.364,-0.72,-0.22
21:25:02.368,-0.71,-0.21
21:25:02.372,-0.73,-0.2
21:25:02.376,-0.74,-0.21
21:25:02.380,-0.725,-0.22
21:25:02.384,-0.72,-0.21
21:25:02.388,-0.69,-0.215
21:25:02.392,-0.695,-0.235
21:25:02.396,-0.7,-0.235
21:25:02.400,-0.72,-0.245
21:25:02.404,-0.725,-0.25
21:25:02.408,-0.72,-0.27
21:25:02.412,-0.725,-0.265
21:25:02.416,-0.695,-0.24
21:25:02.420,-0.685,-0.265
21:25:02.424,-0.645,-0.28
21:25:02.428,-0.655,-0.3
21:25:02.432,-0.655,-0.29
21:25:02.436,-0.625,-0.305
21:25:02.440,-0.635,-0.325
21:25:02.444,-0.635,-0.36
21:25:02.448,-0.62,-0.36
21:25:02.452,-0.63,-0.375
21:25:02.456,-0.61,-0.365
21:25:02.460,-0.595,-0.375
21:25:02.464,-0.565,-0.38
21:25:02.468,-0.53,-0.38
21:25:02.472,-0.52,-0.38
21:25:02.476,-0.545,-0.4
21:25:02.480,-0.53,-0.4
21:25:02.484,-0.52,-0.4
21:25:02.488,-0.515,-0.4
21:25:02.492,-0.51,-0.4
21:25:02.496,-0.51,-0.395
21:25:02.500,-0.525,-0.395
21:25:02.504,-0.505,-0.385
21:25:02.508,-0.525,-0.41
21:25:02.512,-0.53,-0.41
21:25:02.516,-0.53,-0.415
21:25:02.520,-0.52,-0.41
21:25:02.524,-0.535,-0.41
21:25:02.528,-0.54,-0.405
21:25:02.532,-0.55,-0.405
21:25:02.536,-0.525,-0.42
21:25:02.540,-0.52,-0.43
21:25:02.544,-0.525,-0.41
21:25:02.548,-0.52,-0.4
21:25:02.552,-0.51,-0.395
21:25:02.556,-0.52,-0.4
21:25:02.560,-0.54,-0.39
21:25:02.564,-0.53,-0.395
21:25:02.568,-0.535,-0.405
21:25:02.572,-0.545,-0.405
21:25:02.576,-0.51,-0.395
21:25:02.580,-0.505,-0.39
21:25:02.584,-0.5,-0.405
21:25:02.588,-0.5,-0.38
21:25:02.592,-0.515,-0.395
21:25:02.596,-0.485,-0.38
21:25:02.600,-0.515,-0.39
21:25:02.604,-0.505,-0.37
21:25:02.608,-0.505,-0.385
21:25:02.612,-0.48,-0.38
21:25:02.616,-0.465,-0.385
21:25:02.620,-0.47,-0.395
21:25:02.624,-0.465,-0.375
21:25:02.628,-0.455,-0.355
21:25:02.632,-0.465,-0.37
21:25:02.636,-0.43,-0.345
21:25:02.640,-0.42,-0.355
21:25:02.644,-0.37,-0.34
21:25:02.648,-0.33,-0.33
21:25:02.652,-0.31,-0.325
21:25:02.656,-0.285,-0.305
21:25:02.660,-0.245,-0.29
21:25:02.664,-0.205,-0.29
21:25:02.668,-0.185,-0.29
21:25:02.672,-0.18,-0.27
21:25:02.676,-0.205,-0.305
21:25:02.680,-0.225,-0.31
21:25:02.684,-0.29,-0.33
21:25:02.688,-0.325,-0.33
21:25:02.692,-0.38,-0.315
21:25:02.696,-0.43,-0.315
21:25:02.700,-0.49,-0.315
21:25:02.704,-0.52,-0.285
21:25:02.708,-0.575,-0.25
21:25:02.712,-0.57,-0.24
21:25:02.716,-0.575,-0.215
21:25:02.720,-0.58,-0.225
21:25:02.724,-0.585,-0.22
21:25:02.728,-0.56,-0.21
21:25:02.732,-0.56,-0.2
21:25:02.736,-0.555,-0.205
21:25:02.740,-0.59,-0.195
21:25:02.744,-0.555,-0.19
21:25:02.748,-0.55,-0.185
21:25:02.752,-0.555,-0.19
21:25:02.756,-0.57,-0.155
21:25:02.760,-0.555,-0.17
21:25:02.764,-0.55,-0.15
21:25:02.768,-0.55,-0.16
21:25:02.772,-0.55,-0.165
21:25:02.776,-0.55,-0.16
21:25:02.780,-0.525,-0.145
21:25:02.784,-0.535,-0.135
21:25:02.788,-0.555,-0.14
21:25:02.792,-0.51,-0.125
21:25:02.796,-0.515,-0.145
21:25:02.800,-0.495,-0.125
21:25:02.804,-0.5,-0.11
21:25:02.808,-0.495,-0.115
21:25:02.812,-0.475,-0.11
21:25:02.816,-0.47,-0.095
21:25:02.820,-0.405,-0.085
21:25:02.824,-0.385,-0.085
21:25:02.828,-0.29,-0.08
21:25:02.832,-0.21,-0.105
21:25:02.836,-0.11,-0.115
21:25:02.840,-0.03,-0.14
21:25:02.844,0.0,-0.17
21:25:02.848,0.03,-0.21
21:25:02.852,0.045,-0.185
21:25:02.856,0.07,-0.225
21:25:02.860,0.09,-0.285
21:25:02.864,0.145,-0.385
21:25:02.868,0.355,-0.57
21:25:02.872,0.67,-0.755
21:25:02.876,0.955,-0.96
21:25:02.880,1.03,-1.16
21:25:02.884,0.77,-1.21
21:25:02.888,0.28,-1.01
21:25:02.892,-0.14,-0.67
21:25:02.896,-0.36,-0.37
21:25:02.900,-0.465,-0.2
21:25:02.904,-0.51,-0.07
21:25:02.908,-0.485,0.01
21:25:02.912,-0.525,0.065
21:25:02.916,-0.54,0.1
21:25:02.920,-0.555,0.1
21:25:02.924,-0.555,0.09
21:25:02.928,-0.59,0.09
21:25:02.932,-0.57,0.08
21:25:02.936,-0.575,0.08
21:25:02.940,-0.585,0.065
21:25:02.944,-0.585,0.065
21:25:02.948,-0.575,0.055
21:25:02.952,-0.585,0.055
21:25:02.956,-0.585,0.06
21:25:02.960,-0.585,0.07
21:25:02.964,-0.6,0.05
21:25:02.968,-0.595,0.04
21:25:02.972,-0.605,0.045
21:25:02.976,-0.59,0.01
21:25:02.980,-0.595,0.01
21:25:02.984,-0.6,0.0
21:25:02.988,-0.605,0.0
21:25:02.992,-0.605,0.0
21:25:02.996,-0.615,0.0
21:25:03.000,-0.615,0.0
21:25:03.004,-0.625,0.01
21:25:03.008,-0.63,0.015
21:25:03.012,-0.62,0.01
21:25:03.016,-0.635,0.035
21:25:03.020,-0.635,0.035
21:25:03.024,-0.615,0.03
21:25:03.028,-0.605,0.03
21:25:03.032,-0.62,0.015
21:25:03.036,-0.63,0.035
21:25:03.040,-0.635,0.015
21:25:03.044,-0.625,0.035
21:25:03.048,-0.62,0.03
21:25:03.052,-0.615,0.03
21:25:03.056,-0.615,0.045
21:25:03.060,-0.595,0.03
21:25:03.064,-0.605,0.04
21:25:03.068,-0.605,0.03
21:25:03.072,-0.585,0.03
21:25:03.076,-0.58,0.015
21:25:03.080,-0.575,0.02
21:25:03.084,-0.555,0.0
21:25:03.088,-0.545,-0.015
21:25:03.092,-0.52,-0.005
21:25:03.096,-0.54,-0.04
21:25:03.100,-0.53,-0.055
21:25:03.104,-0.495,-0.045
21:25:03.108,-0.48,-0.06
21:25:03.112,-0.48,-0.06
21:25:03.116,-0.45,-0.04
21:25:03.120,-0.44,-0.065
21:25:03.124,-0.435,-0.085
21:25:03.128,-0.44,-0.095
21:25:03.132,-0.42,-0.09
21:25:03.136,-0.405,-0.06
21:25:03.140,-0.38,-0.075
21:25:03.144,-0.385,-0.075
21:25:03.148,-0.38,-0.055
21:25:03.152,-0.37,-0.06
21:25:03.156,-0.34,-0.05
21:25:03.160,-0.355,-0.065
21:25:03.164,-0.365,-0.05
21:25:03.168,-0.35,-0.04
21:25:03.172,-0.36,-0.035
21:25:03.176,-0.35,-0.045
21:25:03.180,-0.365,-0.045
21:25:03.184,-0.375,-0.05
21:25:03.188,-0.385,-0.04
21:25:03.192,-0.355,-0.05
21:25:03.196,-0.36,-0.015
21:25:03.200,-0.365,-0.02
21:25:03.204,-0.35,-0.035
21:25:03.208,-0.37,-0.025
21:25:03.212,-0.38,-0.04
21:25:03.216,-0.36,-0.015
21:25:03.220,-0.38,-0.045
21:25:03.224,-0.37,-0.015
21:25:03.228,-0.4,-0.005
21:25:03.232,-0.385,-0.02
21:25:03.236,-0.385,0.005
21:25:03.240,-0.37,-0.025
21:25:03.244,-0.35,-0.015
21:25:03.248,-0.345,-0.02
21:25:03.252,-0.35,-0.015
21:25:03.256,-0.32,-0.03
21:25:03.260,-0.3,0.0
21:25:03.264,-0.29,0.01
21:25:03.268,-0.28,0.005
21:25:03.272,-0.295,0.0
21:25:03.276,-0.275,0.015
21:25:03.280,-0.24,0.015
21:25:03.284,-0.195,0.02
21:25:03.288,-0.16,0.015
21:25:03.292,-0.15,0.05
21:25:03.296,-0.13,0.05
21:25:03.300,-0.085,0.05
21:25:03.304,-0.075,0.035
21:25:03.308,-0.095,0.03
21:25:03.312,-0.085,0.01
21:25:03.316,-0.125,0.0
21:25:03.320,-0.15,-0.03
21:25:03.324,-0.21,-0.035
21:25:03.328,-0.27,-0.055
21:25:03.332,-0.32,-0.04
21:25:03.336,-0.37,-0.045
21:25:03.340,-0.425,-0.035
21:25:03.344,-0.46,-0.045
21:25:03.348,-0.47,-0.025
21:25:03.352,-0.485,0.0
21:25:03.356,-0.48,-0.025
21:25:03.360,-0.475,-0.035
21:25:03.364,-0.47,-0.025
21:25:03.368,-0.455,-0.015
21:25:03.372,-0.475,-0.02
21:25:03.376,-0.46,-0.04
21:25:03.380,-0.44,-0.03
21:25:03.384,-0.435,-0.035
21:25:03.388,-0.425,-0.04
21:25:03.392,-0.455,-0.05
21:25:03.396,-0.465,-0.02
21:25:03.400,-0.44,-0.035
21:25:03.404,-0.465,-0.05
21:25:03.408,-0.48,-0.05
21:25:03.412,-0.495,-0.065
21:25:03.416,-0.455,-0.065
21:25:03.420,-0.455,-0.06
21:25:03.424,-0.45,-0.06
21:25:03.428,-0.455,-0.06
21:25:03.432,-0.45,-0.07
21:25:03.436,-0.445,-0.07
21:25:03.440,-0.445,-0.07
21:25:03.444,-0.45,-0.06
21:25:03.448,-0.425,-0.085
21:25:03.452,-0.43,-0.07
21:25:03.456,-0.41,-0.07
21:25:03.460,-0.36,-0.08
21:25:03.464,-0.27,-0.075
21:25:03.468,-0.19,-0.065
21:25:03.472,-0.12,-0.075
21:25:03.476,-0.055,-0.125
21:25:03.480,-0.015,-0.17
21:25:03.484,0.025,-0.205
21:25:03.488,0.02,-0.23
21:25:03.492,0.025,-0.235
21:25:03.496,0.015,-0.3
21:25:03.500,0.065,-0.37
21:25:03.504,0.24,-0.505
21:25:03.508,0.56,-0.705
21:25:03.512,0.85,-0.96
21:25:03.516,0.985,-1.155
21:25:03.520,0.82,-1.28
21:25:03.524,0.405,-1.16
21:25:03.528,-0.055,-0.835
21:25:03.532,-0.34,-0.495
21:25:03.536,-0.455,-0.27
21:25:03.540,-0.49,-0.14
21:25:03.544,-0.48,-0.045
21:25:03.548,-0.495,0.0
21:25:03.552,-0.51,0.015
21:25:03.556,-0.53,0.025
21:25:03.560,-0.53,0.04
21:25:03.564,-0.52,0.005
21:25:03.568,-0.525,0.0
21:25:03.572,-0.53,0.0
21:25:03.576,-0.53,-0.005
21:25:03.580,-0.5,0.0
21:25:03.584,-0.54,0.005
21:25:03.588,-0.55,0.0
21:25:03.592,-0.55,0.0
21:25:03.596,-0.545,0.025
21:25:03.600,-0.545,0.03
21:25:03.604,-0.555,0.025
21:25:03.608,-0.55,0.02
21:25:03.612,-0.575,0.015
21:25:03.616,-0.555,0.015
21:25:03.620,-0.565,0.015
21:25:03.624,-0.585,-0.005
21:25:03.628,-0.595,0.03
21:25:03.632,-0.6,0.025
21:25:03.636,-0.615,0.03
21:25:03.640,-0.63,0.035
21:25:03.644,-0.62,0.06
21:25:03.648,-0.625,0.05
21:25:03.652,-0.64,0.07
21:25:03.656,-0.65,0.05
21:25:03.660,-0.665,0.06
21:25:03.664,-0.655,0.07
21:25:03.668,-0.66,0.08
21:25:03.672,-0.665,0.07
21:25:03.676,-0.65,0.09
21:25:03.680,-0.65,0.095
21:25:03.684,-0.64,0.095
21:25:03.688,-0.635,0.09
21:25:03.692,-0.63,0.075
21:25:03.696,-0.625,0.1
21:25:03.700,-0.63,0.1
21:25:03.704,-0.64,0.11
21:25:03.708,-0.625,0.115
21:25:03.712,-0.62,0.095
21:25:03.716,-0.62,0.09
21:25:03.720,-0.6,0.095
21:25:03.724,-0.57,0.095
21:25:03.728,-0.575,0.075
21:25:03.732,-0.575,0.075
21:25:03.736,-0.585,0.055
21:25:03.740,-0.565,0.055
21:25:03.744,-0.55,0.05
21:25:03.748,-0.555,0.025
21:25:03.752,-0.56,0.04
21:25:03.756,-0.535,0.02
21:25:03.760,-0.515,0.035
21:25:03.764,-0.51,0.01
21:25:03.768,-0.515,0.015
21:25:03.772,-0.52,0.02
21:25:03.776,-0.505,0.005
21:25:03.780,-0.495,0.0
21:25:03.784,-0.48,0.005
21:25:03.788,-0.47,0.01
21:25:03.792,-0.47,0.025
21:25:03.796,-0.46,0.03
21:25:03.800,-0.445,0.01
21:25:03.804,-0.44,0.025
21:25:03.808,-0.425,0.015
21:25:03.812,-0.46,0.01
21:25:03.816,-0.465,0.015
21:25:03.820,-0.465,0.02
21:25:03.824,-0.435,0.025
21:25:03.828,-0.445,0.04
21:25:03.832,-0.45,0.025
21:25:03.836,-0.435,0.0
21:25:03.840,-0.435,0.02
21:25:03.844,-0.455,0.025
21:25:03.848,-0.475,0.035
21:25:03.852,-0.455,0.015
21:25:03.856,-0.47,0.005
21:25:03.860,-0.475,0.02
21:25:03.864,-0.48,0.0
21:25:03.868,-0.47,-0.015
21:25:03.872,-0.47,0.0
21:25:03.876,-0.465,0.0
21:25:03.880,-0.465,0.01
21:25:03.884,-0.48,-0.005
21:25:03.888,-0.5,-0.015
21:25:03.892,-0.49,-0.025
21:25:03.896,-0.475,-0.03
21:25:03.900,-0.46,-0.045
21:25:03.904,-0.435,-0.025
21:25:03.908,-0.395,-0.03
21:25:03.912,-0.395,-0.02
21:25:03.916,-0.395,-0.015
21:25:03.920,-0.38,-0.02
21:25:03.924,-0.355,-0.03
21:25:03.928,-0.32,-0.015
21:25:03.932,-0.295,-0.005
21:25:03.936,-0.22,-0.02
21:25:03.940,-0.215,0.0
21:25:03.944,-0.205,0.015
21:25:03.948,-0.18,0.0
21:25:03.952,-0.17,-0.015
21:25:03.956,-0.14,0.0
21:25:03.960,-0.13,-0.015
21:25:03.964,-0.16,-0.03
21:25:03.968,-0.21,-0.065
21:25:03.972,-0.265,-0.095
21:25:03.976,-0.305,-0.1
21:25:03.980,-0.385,-0.12
21:25:03.984,-0.445,-0.12
21:25:03.988,-0.485,-0.155
21:25:03.992,-0.495,-0.135
21:25:03.996,-0.555,-0.115
21:25:04.000,-0.545,-0.12
21:25:04.004,-0.555,-0.115
21:25:04.008,-0.57,-0.12
21:25:04.012,-0.575,-0.13
21:25:04.016,-0.555,-0.145
21:25:04.020,-0.515,-0.145
21:25:04.024,-0.525,-0.155
21:25:04.028,-0.5,-0.18
21:25:04.032,-0.51,-0.16
21:25:04.036,-0.52,-0.185
21:25:04.040,-0.52,-0.175
21:25:04.044,-0.51,-0.18
21:25:04.048,-0.5,-0.175
21:25:04.052,-0.48,-0.2
21:25:04.056,-0.485,-0.2
21:25:04.060,-0.49,-0.2
21:25:04.064,-0.51,-0.215
21:25:04.068,-0.5,-0.225
21:25:04.072,-0.515,-0.23
21:25:04.076,-0.505,-0.225
21:25:04.080,-0.53,-0.235
21:25:04.084,-0.505,-0.23
21:25:04.088,-0.505,-0.24
21:25:04.092,-0.495,-0.25
21:25:04.096,-0.485,-0.275
21:25:04.100,-0.475,-0.285
21:25:04.104,-0.455,-0.265
21:25:04.108,-0.42,-0.28
21:25:04.112,-0.36,-0.29
21:25:04.116,-0.265,-0.3
21:25:04.120,-0.165,-0.305
21:25:04.124,-0.09,-0.345
21:25:04.128,0.0,-0.365
21:25:04.132,0.085,-0.41
21:25:04.136,0.125,-0.42
21:25:04.140,0.165,-0.41
21:25:04.144,0.135,-0.435
21:25:04.148,0.135,-0.515
21:25:04.152,0.255,-0.58
21:25:04.156,0.495,-0.73
21:25:04.160,0.795,-0.96
21:25:04.164,0.995,-1.17
21:25:04.168,0.94,-1.32
21:25:04.172,0.53,-1.345
21:25:04.176,0.075,-1.095
21:25:04.180,-0.25,-0.775
21:25:04.184,-0.385,-0.555
21:25:04.188,-0.445,-0.415
21:25:04.192,-0.46,-0.295
21:25:04.196,-0.475,-0.22
21:25:04.200,-0.505,-0.185
21:25:04.204,-0.525,-0.175
21:25:04.208,-0.56,-0.175
21:25:04.212,-0.555,-0.195
21:25:04.216,-0.55,-0.21
21:25:04.220,-0.55,-0.225
21:25:04.224,-0.57,-0.22
21:25:04.228,-0.585,-0.2
21:25:04.232,-0.565,-0.225
21:25:04.236,-0.565,-0.22
21:25:04.240,-0.58,-0.21
21:25:04.244,-0.575,-0.215
21:25:04.248,-0.54,-0.235
21:25:04.252,-0.525,-0.21
21:25:04.256,-0.54,-0.2
21:25:04.260,-0.555,-0.185
21:25:04.264,-0.56,-0.205
21:25:04.268,-0.56,-0.185
21:25:04.272,-0.55,-0.2
21:25:04.276,-0.565,-0.195
21:25:04.280,-0.55,-0.165
21:25:04.284,-0.57,-0.18
21:25:04.288,-0.57,-0.155
21:25:04.292,-0.585,-0.145
21:25:04.296,-0.605,-0.155
21:25:04.300,-0.595,-0.15
21:25:04.304,-0.625,-0.175
21:25:04.308,-0.62,-0.135
21:25:04.312,-0.6,-0.12
21:25:04.316,-0.61,-0.13
21:25:04.320,-0.61,-0.12
21:25:04.324,-0.635,-0.12
21:25:04.328,-0.595,-0.105
21:25:04.332,-0.585,-0.095
21:25:04.336,-0.59,-0.11
21:25:04.340,-0.595,-0.105
21:25:04.344,-0.59,-0.09
21:25:04.348,-0.595,-0.09
21:25:04.352,-0.585,-0.065
21:25:04.356,-0.575,-0.075
21:25:04.360,-0.54,-0.07
21:25:04.364,-0.535,-0.07
21:25:04.368,-0.5,-0.075
21:25:04.372,-0.495,-0.07
21:25:04.376,-0.48,-0.1
21:25:04.380,-0.455,-0.08
21:25:04.384,-0.475,-0.08
21:25:04.388,-0.465,-0.1
21:25:04.392,-0.42,-0.09
21:25:04.396,-0.425,-0.105
21:25:04.400,-0.415,-0.145
21:25:04.404,-0.395,-0.135
21:25:04.408,-0.37,-0.145
21:25:04.412,-0.38,-0.145
21:25:04.416,-0.365,-0.135
21:25:04.420,-0.38,-0.145
21:25:04.424,-0.375,-0.155
21:25:04.428,-0.35,-0.14
21:25:04.432,-0.345,-0.14
21:25:04.436,-0.35,-0.17
21:25:04.440,-0.345,-0.155
21:25:04.444,-0.32,-0.175
21:25:04.448,-0.325,-0.165
21:25:04.452,-0.33,-0.155
21:25:04.456,-0.325,-0.175
21:25:04.460,-0.335,-0.145
21:25:04.464,-0.29,-0.14
21:25:04.468,-0.305,-0.165
21:25:04.472,-0.31,-0.155
21:25:04.476,-0.285,-0.15
21:25:04.480,-0.32,-0.13
21:25:04.484,-0.315,-0.13
21:25:04.488,-0.32,-0.155
21:25:04.492,-0.315,-0.14
21:25:04.496,-0.305,-0.135
21:25:04.500,-0.33,-0.155
21:25:04.504,-0.3,-0.14
21:25:04.508,-0.31,-0.165
21:25:04.512,-0.31,-0.145
21:25:04.516,-0.325,-0.145
21:25:04.520,-0.32,-0.135
21:25:04.524,-0.34,-0.135
21:25:04.528,-0.34,-0.135
21:25:04.532,-0.34,-0.14
21:25:04.536,-0.345,-0.16
21:25:04.540,-0.345,-0.155
21:25:04.544,-0.33,-0.155
21:25:04.548,-0.33,-0.16
21:25:04.552,-0.335,-0.145
21:25:04.556,-0.32,-0.16
21:25:04.560,-0.3,-0.145
21:25:04.564,-0.285,-0.16
21:25:04.568,-0.285,-0.165
21:25:04.572,-0.285,-0.135
21:25:04.576,-0.295,-0.15
21:25:04.580,-0.25,-0.135
21:25:04.584,-0.24,-0.105
21:25:04.588,-0.19,-0.125
21:25:04.592,-0.12,-0.11
21:25:04.596,-0.11,-0.09
21:25:04.600,-0.08,-0.075
21:25:04.604,-0.06,-0.08
21:25:04.608,-0.045,-0.07
21:25:04.612,-0.015,-0.075
21:25:04.616,0.0,-0.08
21:25:04.620,-0.005,-0.085
21:25:04.624,-0.03,-0.08
21:25:04.628,-0.085,-0.115
21:25:04.632,-0.125,-0.14
21:25:04.636,-0.2,-0.135
21:25:04.640,-0.23,-0.16
21:25:04.644,-0.285,-0.15
21:25:04.648,-0.36,-0.13
21:25:04.652,-0.395,-0.13
21:25:04.656,-0.41,-0.125
21:25:04.660,-0.415,-0.12
21:25:04.664,-0.425,-0.115
21:25:04.668,-0.425,-0.105
21:25:04.672,-0.4,-0.12
21:25:04.676,-0.415,-0.15
21:25:04.680,-0.405,-0.14
21:25:04.684,-0.395,-0.155
21:25:04.688,-0.395,-0.155
21:25:04.692,-0.39,-0.135
21:25:04.696,-0.385,-0.15
21:25:04.700,-0.37,-0.13
21:25:04.704,-0.375,-0.135
21:25:04.708,-0.36,-0.125
21:25:04.712,-0.365,-0.12
21:25:04.716,-0.36,-0.13
21:25:04.720,-0.35,-0.13
21:25:04.724,-0.35,-0.13
21:25:04.728,-0.35,-0.125
21:25:04.732,-0.35,-0.13
21:25:04.736,-0.35,-0.12
21:25:04.740,-0.34,-0.13
21:25:04.744,-0.34,-0.135
21:25:04.748,-0.355,-0.125
21:25:04.752,-0.355,-0.125
21:25:04.756,-0.365,-0.15
21:25:04.760,-0.33,-0.16
21:25:04.764,-0.3,-0.135
21:25:04.768,-0.245,-0.135
21:25:04.772,-0.185,-0.145
21:25:04.776,-0.07,-0.16
21:25:04.780,0.005,-0.18
21:25:04.784,0.05,-0.19
21:25:04.788,0.095,-0.225
21:25:04.792,0.105,-0.255
21:25:04.796,0.13,-0.28
21:25:04.800,0.12,-0.295
21:25:04.804,0.125,-0.32
21:25:04.808,0.255,-0.41
21:25:04.812,0.455,-0.575
21:25:04.816,0.775,-0.795
21:25:04.820,1.04,-1.025
21:25:04.824,1.105,-1.23
21:25:04.828,0.865,-1.28
21:25:04.832,0.39,-1.11
21:25:04.836,-0.02,-0.735
21:25:04.840,-0.25,-0.44
21:25:04.844,-0.355,-0.225
21:25:04.848,-0.375,-0.11
21:25:04.852,-0.375,-0.02
21:25:04.856,-0.38,0.02
21:25:04.860,-0.425,0.025
21:25:04.864,-0.42,0.04
21:25:04.868,-0.44,0.03
21:25:04.872,-0.45,0.02
21:25:04.876,-0.445,0.005
21:25:04.880,-0.455,-0.025
21:25:04.884,-0.465,-0.015
21:25:04.888,-0.45,-0.025
21:25:04.892,-0.445,-0.01
21:25:04.896,-0.465,0.0
21:25:04.900,-0.44,-0.02
21:25:04.904,-0.45,-0.015
21:25:04.908,-0.445,-0.04
21:25:04.912,-0.465,-0.015
21:25:04.916,-0.445,0.0
21:25:04.920,-0.44,0.015
21:25:04.924,-0.46,0.0
21:25:04.928,-0.455,0.0
21:25:04.932,-0.445,0.0
21:25:04.936,-0.44,0.0
21:25:04.940,-0.445,-0.01
21:25:04.944,-0.445,0.025
21:25:04.948,-0.47,0.015
21:25:04.952,-0.475,0.01
21:25:04.956,-0.465,0.015
21:25:04.960,-0.495,0.01
21:25:04.964,-0.49,0.01
21:25:04.968,-0.5,0.04
21:25:04.972,-0.5,0.02
21:25:04.976,-0.505,0.015
21:25:04.980,-0.5,0.03
21:25:04.984,-0.495,0.035
21:25:04.988,-0.5,0.05
21:25:04.992,-0.49,0.045
21:25:04.996,-0.5,0.03
21:25:05.000,-0.48,0.025
21:25:05.004,-0.485,0.025
21:25:05.008,-0.48,0.03
21:25:05.012,-0.46,0.025
21:25:05.016,-0.45,0.025
21:25:05.020,-0.455,0.015
21:25:05.024,-0.445,0.005
21:25:05.028,-0.435,0.015
21:25:05.032,-0.41,0.0
21:25:05.036,-0.38,0.01
21:25:05.040,-0.38,0.015
21:25:05.044,-0.36,-0.015
21:25:05.048,-0.355,-0.035
21:25:05.052,-0.33,-0.01
21:25:05.056,-0.295,-0.01
21:25:05.060,-0.315,-0.01
21:25:05.064,-0.305,-0.025
21:25:05.068,-0.305,-0.04
21:25:05.072,-0.28,-0.015
21:25:05.076,-0.28,-0.035
21:25:05.080,-0.27,-0.03
21:25:05.084,-0.265,-0.01
21:25:05.088,-0.27,-0.04
21:25:05.092,-0.26,-0.04
21:25:05.096,-0.26,-0.02
21:25:05.100,-0.265,-0.05
21:25:05.104,-0.235,-0.04
21:25:05.108,-0.25,-0.055
21:25:05.112,-0.245,-0.03
21:25:05.116,-0.235,-0.055
21:25:05.120,-0.23,-0.04
21:25:05.124,-0.245,-0.06
21:25:05.128,-0.24,-0.03
21:25:05.132,-0.23,-0.03
21:25:05.136,-0.235,-0.045
21:25:05.140,-0.235,-0.015
21:25:05.144,-0.215,-0.025
21:25:05.148,-0.21,-0.005
21:25:05.152,-0.215,-0.02
21:25:05.156,-0.21,-0.01
21:25:05.160,-0.215,-0.015
21:25:05.164,-0.23,-0.01
21:25:05.168,-0.24,0.0
21:25:05.172,-0.225,-0.01
21:25:05.176,-0.24,-0.015
21:25:05.180,-0.265,-0.03
21:25:05.184,-0.235,-0.005
21:25:05.188,-0.24,-0.02
21:25:05.192,-0.23,-0.005
21:25:05.196,-0.21,-0.02
21:25:05.200,-0.215,-0.005
21:25:05.204,-0.21,-0.025
21:25:05.208,-0.19,0.0
21:25:05.212,-0.185,-0.02
21:25:05.216,-0.19,-0.02
21:25:05.220,-0.175,0.0
21:25:05.224,-0.175,0.005
21:25:05.228,-0.12,0.0
21:25:05.232,-0.065,0.0
21:25:05.236,-0.03,0.03
21:25:05.240,-0.005,0.055
21:25:05.244,-0.01,0.04
21:25:05.248,0.005,0.05
21:25:05.252,0.025,0.04
21:25:05.256,0.03,0.04
21:25:05.260,0.03,0.03
21:25:05.264,-0.005,0.005
21:25:05.268,-0.045,-0.015
21:25:05.272,-0.095,-0.02
21:25:05.276,-0.145,-0.05
21:25:05.280,-0.22,-0.02
21:25:05.284,-0.275,-0.005
21:25:05.288,-0.33,0.0
21:25:05.292,-0.365,0.005
21:25:05.296,-0.365,0.005
21:25:05.300,-0.345,0.025
21:25:05.304,-0.375,0.03
21:25:05.308,-0.38,0.03
21:25:05.312,-0.375,0.035
21:25:05.316,-0.395,0.015
21:25:05.320,-0.37,0.01
21:25:05.324,-0.37,0.025
21:25:05.328,-0.375,0.035
21:25:05.332,-0.39,-0.005
21:25:05.336,-0.39,-0.005
21:25:05.340,-0.38,0.01
21:25:05.344,-0.395,0.01
21:25:05.348,-0.37,0.025
21:25:05.352,-0.37,0.02
21:25:05.356,-0.37,0.02
21:25:05.360,-0.375,0.015
21:25:05.364,-0.37,0.03
21:25:05.368,-0.37,0.035
21:25:05.372,-0.35,0.01
21:25:05.376,-0.375,0.025
21:25:05.380,-0.355,0.015
21:25:05.384,-0.36,0.02
21:25:05.388,-0.37,0.02
21:25:05.392,-0.375,0.025
21:25:05.396,-0.37,0.035
21:25:05.400,-0.35,0.035
21:25:05.404,-0.33,0.03
21:25:05.408,-0.27,0.03
21:25:05.412,-0.2,0.02
21:25:05.416,-0.105,0.005
21:25:05.420,-0.045,0.0
21:25:05.424,0.01,-0.02
21:25:05.428,0.045,-0.065
21:25:05.432,0.065,-0.08
21:25:05.436,0.085,-0.12
21:25:05.440,0.09,-0.11
21:25:05.444,0.075,-0.17
21:25:05.448,0.165,-0.25
21:25:05.452,0.39,-0.405
21:25:05.456,0.71,-0.625
21:25:05.460,0.975,-0.875
21:25:05.464,1.0,-1.055
21:25:05.468,0.72,-1.11
21:25:05.472,0.25,-0.96
21:25:05.476,-0.145,-0.59
21:25:05.480,-0.315,-0.295
21:25:05.484,-0.4,-0.13
21:25:05.488,-0.45,-0.015
21:25:05.492,-0.425,0.065
21:25:05.496,-0.45,0.1
21:25:05.500,-0.49,0.12
21:25:05.504,-0.49,0.13
21:25:05.508,-0.485,0.1
21:25:05.512,-0.51,0.085
21:25:05.516,-0.5,0.075
21:25:05.520,-0.49,0.075
21:25:05.524,-0.51,0.03
21:25:05.528,-0.515,0.055
21:25:05.532,-0.55,0.05
21:25:05.536,-0.555,0.03
21:25:05.540,-0.56,0.045
21:25:05.544,-0.54,0.02
21:25:05.548,-0.53,0.02
21:25:05.552,-0.55,0.02
21:25:05.556,-0.56,0.015
21:25:05.560,-0.55,0.01
21:25:05.564,-0.555,0.0
21:25:05.568,-0.57,-0.01
21:25:05.572,-0.56,0.005
21:25:05.576,-0.565,0.01
21:25:05.580,-0.57,0.0
21:25:05.584,-0.57,-0.005
21:25:05.588,-0.585,0.0
21:25:05.592,-0.61,0.0
21:25:05.596,-0.605,-0.005
21:25:05.600,-0.6,-0.015
21:25:05.604,-0.595,-0.01
21:25:05.608,-0.58,0.005
21:25:05.612,-0.595,-0.025
21:25:05.616,-0.57,-0.02
21:25:05.620,-0.59,-0.02
21:25:05.624,-0.575,-0.02
21:25:05.628,-0.57,-0.03
21:25:05.632,-0.565,-0.02
21:25:05.636,-0.59,-0.03
21:25:05.640,-0.585,-0.02
21:25:05.644,-0.585,-0.05
21:25:05.648,-0.565,-0.05
21:25:05.652,-0.575,-0.05
21:25:05.656,-0.57,-0.09
21:25:05.660,-0.54,-0.065
21:25:05.664,-0.555,-0.085
21:25:05.668,-0.545,-0.08
21:25:05.672,-0.515,-0.11
21:25:05.676,-0.51,-0.105
21:25:05.680,-0.515,-0.1
21:25:05.684,-0.51,-0.12
21:25:05.688,-0.5,-0.155
21:25:05.692,-0.5,-0.14
21:25:05.696,-0.48,-0.125
21:25:05.700,-0.47,-0.13
21:25:05.704,-0.44,-0.165
21:25:05.708,-0.41,-0.16
21:25:05.712,-0.405,-0.15
21:25:05.716,-0.415,-0.16
21:25:05.720,-0.395,-0.2
21:25:05.724,-0.37,-0.18
21:25:05.728,-0.39,-0.185
21:25:05.732,-0.39,-0.17
21:25:05.736,-0.38,-0.21
21:25:05.740,-0.36,-0.2
21:25:05.744,-0.375,-0.2
21:25:05.748,-0.37,-0.195
21:25:05.752,-0.365,-0.2
21:25:05.756,-0.365,-0.195
21:25:05.760,-0.38,-0.2
21:25:05.764,-0.405,-0.215
21:25:05.768,-0.39,-0.21
21:25:05.772,-0.385,-0.22
21:25:05.776,-0.37,-0.215
21:25:05.780,-0.365,-0.22
21:25:05.784,-0.355,-0.22
21:25:05.788,-0.385,-0.225
21:25:05.792,-0.39,-0.235
21:25:05.796,-0.395,-0.26
21:25:05.800,-0.4,-0.25
21:25:05.804,-0.385,-0.255
21:25:05.808,-0.395,-0.25
21:25:05.812,-0.41,-0.265
21:25:05.816,-0.38,-0.285
21:25:05.820,-0.39,-0.265
21:25:05.824,-0.385,-0.27
21:25:05.828,-0.385,-0.27
21:25:05.832,-0.395,-0.275
21:25:05.836,-0.375,-0.285
21:25:05.840,-0.395,-0.295
21:25:05.844,-0.365,-0.29
21:25:05.848,-0.35,-0.295
21:25:05.852,-0.335,-0.295
21:25:05.856,-0.33,-0.305
21:25:05.860,-0.36,-0.295
21:25:05.864,-0.335,-0.3
21:25:05.868,-0.335,-0.295
21:25:05.872,-0.335,-0.31
21:25:05.876,-0.345,-0.31
21:25:05.880,-0.3,-0.32
21:25:05.884,-0.245,-0.28
21:25:05.888,-0.21,-0.29
21:25:05.892,-0.175,-0.28
21:25:05.896,-0.125,-0.28
21:25:05.900,-0.08,-0.28
21:25:05.904,-0.085,-0.275
21:25:05.908,-0.075,-0.265
21:25:05.912,-0.06,-0.275
21:25:05.916,-0.09,-0.29
21:25:05.920,-0.14,-0.3
21:25:05.924,-0.18,-0.325
21:25:05.928,-0.225,-0.325
21:25:05.932,-0.26,-0.32
21:25:05.936,-0.315,-0.335
21:25:05.940,-0.38,-0.335
21:25:05.944,-0.42,-0.33
21:25:05.948,-0.44,-0.315
21:25:05.952,-0.43,-0.31
21:25:05.956,-0.445,-0.31
21:25:05.960,-0.46,-0.29
21:25:05.964,-0.45,-0.29
21:25:05.968,-0.44,-0.315
21:25:05.972,-0.43,-0.305
21:25:05.976,-0.435,-0.31
21:25:05.980,-0.41,-0.31
21:25:05.984,-0.415,-0.305
21:25:05.988,-0.445,-0.33
21:25:05.992,-0.44,-0.32
21:25:05.996,-0.435,-0.305
21:25:06.000,-0.41,-0.32
21:25:06.004,-0.41,-0.295
21:25:06.008,-0.41,-0.31
21:25:06.012,-0.43,-0.285
21:25:06.016,-0.395,-0.305
21:25:06.020,-0.405,-0.3
21:25:06.024,-0.41,-0.27
21:25:06.028,-0.4,-0.285
21:25:06.032,-0.365,-0.295
21:25:06.036,-0.365,-0.275
21:25:06.040,-0.34,-0.255
21:25:06.044,-0.34,-0.26
21:25:06.048,-0.32,-0.27
21:25:06.052,-0.32,-0.25
21:25:06.056,-0.285,-0.255
21:25:06.060,-0.255,-0.245
21:25:06.064,-0.185,-0.21
21:25:06.068,-0.095,-0.215
21:25:06.072,0.0,-0.225
21:25:06.076,0.09,-0.24
21:25:06.080,0.14,-0.24
21:25:06.084,0.19,-0.3
21:25:06.088,0.235,-0.295
21:25:06.092,0.26,-0.3
21:25:06.096,0.22,-0.29
21:25:06.100,0.245,-0.38
21:25:06.104,0.4,-0.485
21:25:06.108,0.68,-0.66
21:25:06.112,1.005,-0.86
21:25:06.116,1.165,-1.075
21:25:06.120,0.995,-1.215
21:25:06.124,0.58,-1.15
21:25:06.128,0.105,-0.85
21:25:06.132,-0.16,-0.54
21:25:06.136,-0.29,-0.315
21:25:06.140,-0.33,-0.19
21:25:06.144,-0.36,-0.06
21:25:06.148,-0.385,-0.02
21:25:06.152,-0.39,0.03
21:25:06.156,-0.42,0.06
21:25:06.160,-0.435,0.035
21:25:06.164,-0.44,0.015
21:25:06.168,-0.44,0.005
21:25:06.172,-0.455,0.0
21:25:06.176,-0.45,0.0
21:25:06.180,-0.435,0.005
21:25:06.184,-0.455,0.01
21:25:06.188,-0.445,0.025
21:25:06.192,-0.44,0.015
21:25:06.196,-0.45,0.01
21:25:06.200,-0.455,0.015
21:25:06.204,-0.46,0.045
21:25:06.208,-0.465,0.03
21:25:06.212,-0.475,0.015
21:25:06.216,-0.495,0.025
21:25:06.220,-0.485,0.02
21:25:06.224,-0.495,0.005
21:25:06.228,-0.485,-0.005
21:25:06.232,-0.465,0.025
21:25:06.236,-0.5,0.0
21:25:06.240,-0.49,0.0
21:25:06.244,-0.485,-0.005
21:25:06.248,-0.505,0.015
21:25:06.252,-0.51,0.015
21:25:06.256,-0.5,0.015
21:25:06.260,-0.51,0.015
21:25:06.264,-0.495,0.01
21:25:06.268,-0.49,0.01
21:25:06.272,-0.47,0.015
21:25:06.276,-0.49,0.025
21:25:06.280,-0.465,0.02
21:25:06.284,-0.485,0.035
21:25:06.288,-0.47,0.02
21:25:06.292,-0.46,0.01
21:25:06.296,-0.47,0.02
21:25:06.300,-0.445,0.0
21:25:06.304,-0.435,0.005
21:25:06.308,-0.42,0.0
21:25:06.312,-0.445,0.005
21:25:06.316,-0.41,0.0
21:25:06.320,-0.42,0.005
21:25:06.324,-0.405,-0.005
21:25:06.328,-0.41,-0.025
21:25:06.332,-0.38,-0.035
21:25:06.336,-0.38,-0.03
21:25:06.340,-0.375,-0.045
21:25:06.344,-0.35,-0.065
21:25:06.348,-0.35,-0.055
21:25:06.352,-0.325,-0.065
21:25:06.356,-0.32,-0.075
21:25:06.360,-0.3,-0.095
21:25:06.364,-0.305,-0.09
21:25:06.368,-0.295,-0.05
21:25:06.372,-0.265,-0.075
21:25:06.376,-0.24,-0.07
21:25:06.380,-0.24,-0.08
21:25:06.384,-0.225,-0.075
21:25:06.388,-0.235,-0.065
21:25:06.392,-0.215,-0.06
21:25:06.396,-0.195,-0.04
21:25:06.400,-0.225,-0.05
21:25:06.404,-0.215,-0.05
21:25:06.408,-0.205,-0.03
21:25:06.412,-0.225,-0.035
21:25:06.416,-0.22,-0.035
21:25:06.420,-0.205,-0.045
21:25:06.424,-0.215,-0.02
21:25:06.428,-0.235,-0.055
21:25:06.432,-0.235,-0.035
21:25:06.436,-0.22,-0.04
21:25:06.440,-0.225,-0.04
21:25:06.444,-0.235,-0.045
21:25:06.448,-0.23,-0.05
21:25:06.452,-0.235,-0.06
21:25:06.456,-0.24,-0.05
21:25:06.460,-0.24,-0.06
21:25:06.464,-0.255,-0.065
21:25:06.468,-0.25,-0.055
21:25:06.472,-0.245,-0.06
21:25:06.476,-0.24,-0.08
21:25:06.480,-0.24,-0.095
21:25:06.484,-0.235,-0.06
21:25:06.488,-0.18,-0.045
21:25:06.492,-0.19,-0.065
21:25:06.496,-0.185,-0.055
21:25:06.500,-0.18,-0.05
21:25:06.504,-0.17,-0.035
21:25:06.508,-0.175,-0.05
21:25:06.512,-0.14,-0.03
21:25:06.516,-0.12,-0.025
21:25:06.520,-0.085,-0.025
21:25:06.524,-0.05,-0.01
21:25:06.528,-0.045,0.01
21:25:06.532,-0.015,-0.005
21:25:06.536,0.015,-0.015
21:25:06.540,0.03,-0.02
21:25:06.544,0.035,-0.005
21:25:06.548,0.025,-0.015
21:25:06.552,0.0,-0.02
21:25:06.556,-0.02,-0.06
21:25:06.560,-0.065,-0.08
21:25:06.564,-0.12,-0.11
21:25:06.568,-0.17,-0.11
21:25:06.572,-0.23,-0.095
21:25:06.576,-0.28,-0.09
21:25:06.580,-0.315,-0.085
21:25:06.584,-0.345,-0.08
21:25:06.588,-0.37,-0.07
21:25:06.592,-0.38,-0.075
21:25:06.596,-0.365,-0.07
21:25:06.600,-0.355,-0.085
21:25:06.604,-0.345,-0.08
21:25:06.608,-0.355,-0.07
21:25:06.612,-0.34,-0.075
21:25:06.616,-0.33,-0.075
21:25:06.620,-0.33,-0.1
21:25:06.624,-0.325,-0.09
21:25:06.628,-0.32,-0.08
21:25:06.632,-0.305,-0.085
21:25:06.636,-0.315,-0.075
21:25:06.640,-0.305,-0.08
21:25:06.644,-0.32,-0.095
21:25:06.648,-0.315,-0.09
21:25:06.652,-0.315,-0.11
21:25:06.656,-0.325,-0.1
21:25:06.660,-0.33,-0.09
21:25:06.664,-0.31,-0.1
21:25:06.668,-0.31,-0.105
21:25:06.672,-0.32,-0.09
21:25:06.676,-0.31,-0.12
21:25:06.680,-0.305,-0.105
21:25:06.684,-0.29,-0.11
21:25:06.688,-0.28,-0.1
21:25:06.692,-0.285,-0.085
21:25:06.696,-0.23,-0.125
21:25:06.700,-0.17,-0.12
21:25:06.704,-0.06,-0.095
21:25:06.708,0.015,-0.115
21:25:06.712,0.09,-0.16
21:25:06.716,0.135,-0.175
21:25:06.720,0.16,-0.205
21:25:06.724,0.16,-0.225
21:25:06.728,0.165,-0.235
21:25:06.732,0.15,-0.26
21:25:06.736,0.22,-0.36
21:25:06.740,0.43,-0.505
21:25:06.744,0.765,-0.705
21:25:06.748,1.025,-0.92
21:25:06.752,1.1,-1.14
21:25:06.756,0.855,-1.245
21:25:06.760,0.395,-1.095
21:25:06.764,-0.02,-0.75
21:25:06.768,-0.265,-0.41
21:25:06.772,-0.34,-0.205
21:25:06.776,-0.375,-0.08
21:25:06.780,-0.365,0.0
21:25:06.784,-0.385,0.025
21:25:06.788,-0.39,0.035
21:25:06.792,-0.405,0.04
21:25:06.796,-0.415,0.03
21:25:06.800,-0.425,0.025
21:25:06.804,-0.43,0.02
21:25:06.808,-0.415,0.02
21:25:06.812,-0.42,0.02
21:25:06.816,-0.415,0.005
21:25:06.820,-0.425,0.025
21:25:06.824,-0.415,0.005
21:25:06.828,-0.405,0.025
21:25:06.832,-0.405,0.025
21:25:06.836,-0.405,0.03
21:25:06.840,-0.41,0.01
21:25:06.844,-0.41,0.04
21:25:06.848,-0.42,0.05
21:25:06.852,-0.425,0.025
21:25:06.856,-0.415,0.035
21:25:06.860,-0.425,0.03
21:25:06.864,-0.43,0.025
21:25:06.868,-0.44,0.02
21:25:06.872,-0.46,0.045
21:25:06.876,-0.465,0.035
21:25:06.880,-0.46,0.05
21:25:06.884,-0.485,0.045
21:25:06.888,-0.495,0.04
21:25:06.892,-0.46,0.02
21:25:06.896,-0.46,0.025
21:25:06.900,-0.48,0.03
21:25:06.904,-0.505,0.02
21:25:06.908,-0.495,0.015
21:25:06.912,-0.48,0.03
21:25:06.916,-0.48,0.04
21:25:06.920,-0.475,0.03
21:25:06.924,-0.485,0.035
21:25:06.928,-0.455,0.015
21:25:06.932,-0.455,0.035
21:25:06.936,-0.44,0.04
21:25:06.940,-0.42,0.04
21:25:06.944,-0.4,0.02
21:25:06.948,-0.405,0.035
21:25:06.952,-0.39,0.015
21:25:06.956,-0.38,0.01
21:25:06.960,-0.36,0.03
21:25:06.964,-0.355,0.03
21:25:06.968,-0.345,0.015
21:25:06.972,-0.33,0.01
21:25:06.976,-0.34,0.005
21:25:06.980,-0.305,0.02
21:25:06.984,-0.3,0.0
21:25:06.988,-0.32,0.0
21:25:06.992,-0.31,-0.02
21:25:06.996,-0.31,-0.015
21:25:07.000,-0.305,-0.01
21:25:07.004,-0.27,-0.025
21:25:07.008,-0.25,-0.015
21:25:07.012,-0.27,-0.03
21:25:07.016,-0.26,-0.025
21:25:07.020,-0.235,-0.05
21:25:07.024,-0.21,-0.035
21:25:07.028,-0.215,-0.005
21:25:07.032,-0.23,-0.02
21:25:07.036,-0.21,-0.025
21:25:07.040,-0.205,-0.01
21:25:07.044,-0.2,-0.01
21:25:07.048,-0.195,-0.025
21:25:07.052,-0.205,0.015
21:25:07.056,-0.175,0.0
21:25:07.060,-0.175,0.02
21:25:07.064,-0.195,0.015
21:25:07.068,-0.205,0.015
21:25:07.072,-0.18,0.025
21:25:07.076,-0.195,0.025
21:25:07.080,-0.19,0.05
21:25:07.084,-0.19,0.03
21:25:07.088,-0.205,0.035
21:25:07.092,-0.19,0.03
21:25:07.096,-0.2,0.035
21:25:07.100,-0.22,0.03
21:25:07.104,-0.205,0.025
21:25:07.108,-0.23,0.015
21:25:07.112,-0.22,0.01
21:25:07.116,-0.22,0.02
21:25:07.120,-0.21,0.02
21:25:07.124,-0.19,-0.015
21:25:07.128,-0.185,-0.01
21:25:07.132,-0.175,0.0
21:25:07.136,-0.165,0.01
21:25:07.140,-0.155,0.01
21:25:07.144,-0.16,0.01
21:25:07.148,-0.16,0.02
21:25:07.152,-0.1,0.025
21:25:07.156,-0.025,0.04
21:25:07.160,-0.015,0.055
21:25:07.164,0.0,0.05
21:25:07.168,0.035,0.055
21:25:07.172,0.055,0.06
21:25:07.176,0.055,0.055
21:25:07.180,0.075,0.07
21:25:07.184,0.06,0.065
21:25:07.188,0.015,0.04
21:25:07.192,-0.025,0.03
21:25:07.196,-0.075,0.005
21:25:07.200,-0.12,-0.01
21:25:07.204,-0.165,-0.03
21:25:07.208,-0.23,0.0
21:25:07.212,-0.295,0.0
21:25:07.216,-0.32,0.0
21:25:07.220,-0.335,0.015
21:25:07.224,-0.35,0.005
21:25:07.228,-0.36,-0.005
21:25:07.232,-0.35,0.0
21:25:07.236,-0.35,0.0
21:25:07.240,-0.35,-0.035
21:25:07.244,-0.335,-0.035
21:25:07.248,-0.335,-0.025
21:25:07.252,-0.325,-0.03
21:25:07.256,-0.305,-0.05
21:25:07.260,-0.32,-0.03
21:25:07.264,-0.315,-0.05
21:25:07.268,-0.3,-0.055
21:25:07.272,-0.3,-0.055
21:25:07.276,-0.3,-0.05
21:25:07.280,-0.305,-0.055
21:25:07.284,-0.28,-0.05
21:25:07.288,-0.28,-0.045
21:25:07.292,-0.295,-0.04
21:25:07.296,-0.3,-0.05
21:25:07.300,-0.285,-0.03
21:25:07.304,-0.27,-0.045
21:25:07.308,-0.295,-0.045
21:25:07.312,-0.27,-0.05
21:25:07.316,-0.265,-0.055
21:25:07.320,-0.265,-0.06
21:25:07.324,-0.275,-0.07
21:25:07.328,-0.235,-0.09
21:25:07.332,-0.17,-0.07
21:25:07.336,-0.1,-0.065
21:25:07.340,-0.01,-0.07
21:25:07.344,0.04,-0.13
21:25:07.348,0.125,-0.14
21:25:07.352,0.125,-0.185
21:25:07.356,0.145,-0.2
21:25:07.360,0.145,-0.2
21:25:07.364,0.12,-0.24
21:25:07.368,0.125,-0.305
21:25:07.372,0.275,-0.4
21:25:07.376,0.545,-0.56
21:25:07.380,0.89,-0.77
21:25:07.384,1.105,-0.995
21:25:07.388,1.075,-1.19
21:25:07.392,0.75,-1.23
21:25:07.396,0.3,-0.955
21:25:07.400,-0.085,-0.58
21:25:07.404,-0.275,-0.3
21:25:07.408,-0.345,-0.145
21:25:07.412,-0.365,0.0
21:25:07.416,-0.365,0.075
21:25:07.420,-0.38,0.11
21:25:07.424,-0.395,0.12
21:25:07.428,-0.41,0.115
21:25:07.432,-0.42,0.1
21:25:07.436,-0.435,0.095
21:25:07.440,-0.45,0.075
21:25:07.444,-0.445,0.08
21:25:07.448,-0.455,0.045
21:25:07.452,-0.45,0.07
21:25:07.456,-0.455,0.07
21:25:07.460,-0.485,0.075
21:25:07.464,-0.49,0.075
21:25:07.468,-0.475,0.06
21:25:07.472,-0.47,0.06
21:25:07.476,-0.48,0.07
21:25:07.480,-0.475,0.07
21:25:07.484,-0.48,0.065
21:25:07.488,-0.51,0.075
21:25:07.492,-0.5,0.07
21:25:07.496,-0.515,0.07
21:25:07.500,-0.495,0.08
21:25:07.504,-0.505,0.075
21:25:07.508,-0.52,0.07
21:25:07.512,-0.52,0.085
21:25:07.516,-0.535,0.085
21:25:07.520,-0.54,0.095
21:25:07.524,-0.55,0.09
21:25:07.528,-0.535,0.09
21:25:07.532,-0.54,0.08
21:25:07.536,-0.555,0.07
21:25:07.540,-0.55,0.085
21:25:07.544,-0.565,0.065
21:25:07.548,-0.55,0.085
21:25:07.552,-0.575,0.08
21:25:07.556,-0.585,0.06
21:25:07.560,-0.55,0.06
21:25:07.564,-0.525,0.045
21:25:07.568,-0.535,0.055
21:25:07.572,-0.535,0.025
21:25:07.576,-0.52,0.04
21:25:07.580,-0.535,0.045
21:25:07.584,-0.51,0.01
21:25:07.588,-0.53,0.025
21:25:07.592,-0.525,0.01
21:25:07.596,-0.495,0.0
21:25:07.600,-0.495,0.005
21:25:07.604,-0.48,-0.02
21:25:07.608,-0.455,0.0
21:25:07.612,-0.395,0.005
21:25:07.616,-0.405,-0.01
21:25:07.620,-0.425,-0.01
21:25:07.624,-0.42,-0.015
21:25:07.628,-0.4,-0.005
21:25:07.632,-0.405,-0.015
21:25:07.636,-0.42,-0.03
21:25:07.640,-0.385,-0.03
21:25:07.644,-0.37,-0.025
21:25:07.648,-0.37,-0.03
21:25:07.652,-0.345,-0.025
21:25:07.656,-0.37,-0.06
21:25:07.660,-0.36,-0.045
21:25:07.664,-0.365,-0.055
21:25:07.668,-0.345,-0.03
21:25:07.672,-0.35,-0.025
21:25:07.676,-0.34,-0.055
21:25:07.680,-0.345,-0.045
21:25:07.684,-0.345,-0.05
21:25:07.688,-0.35,-0.05
21:25:07.692,-0.34,-0.045
21:25:07.696,-0.355,-0.04
21:25:07.700,-0.355,-0.05
21:25:07.704,-0.35,-0.07
21:25:07.708,-0.335,-0.05
21:25:07.712,-0.35,-0.08
21:25:07.716,-0.34,-0.06
21:25:07.720,-0.31,-0.065
21:25:07.724,-0.33,-0.055
21:25:07.728,-0.34,-0.055
21:25:07.732,-0.35,-0.055
21:25:07.736,-0.36,-0.065
21:25:07.740,-0.35,-0.06
21:25:07.744,-0.35,-0.06
21:25:07.748,-0.355,-0.06
21:25:07.752,-0.35,-0.07
21:25:07.756,-0.355,-0.09
21:25:07.760,-0.37,-0.08
21:25:07.764,-0.365,-0.085
21:25:07.768,-0.375,-0.105
21:25:07.772,-0.38,-0.085
21:25:07.776,-0.365,-0.1
21:25:07.780,-0.325,-0.115
21:25:07.784,-0.35,-0.1
21:25:07.788,-0.335,-0.095
21:25:07.792,-0.315,-0.13
21:25:07.796,-0.31,-0.14
21:25:07.800,-0.295,-0.12
21:25:07.804,-0.265,-0.125
21:25:07.808,-0.225,-0.12
21:25:07.812,-0.185,-0.115
21:25:07.816,-0.18,-0.11
21:25:07.820,-0.14,-0.095
21:25:07.824,-0.085,-0.1
21:25:07.828,-0.045,-0.1
21:25:07.832,-0.03,-0.11
21:25:07.836,-0.025,-0.105
21:25:07.840,-0.055,-0.13
21:25:07.844,-0.105,-0.15
21:25:07.848,-0.17,-0.145
21:25:07.852,-0.23,-0.175
21:25:07.856,-0.27,-0.175
21:25:07.860,-0.32,-0.15
21:25:07.864,-0.36,-0.19
21:25:07.868,-0.41,-0.19
21:25:07.872,-0.46,-0.17
21:25:07.876,-0.47,-0.175
21:25:07.880,-0.48,-0.175
21:25:07.884,-0.48,-0.21
21:25:07.888,-0.475,-0.21
21:25:07.892,-0.46,-0.21
21:25:07.896,-0.45,-0.235
21:25:07.900,-0.45,-0.25
21:25:07.904,-0.46,-0.285
21:25:07.908,-0.48,-0.255
21:25:07.912,-0.45,-0.26
21:25:07.916,-0.45,-0.265
21:25:07.920,-0.44,-0.28
21:25:07.924,-0.44,-0.275
21:25:07.928,-0.445,-0.28
21:25:07.932,-0.435,-0.28
21:25:07.936,-0.41,-0.27
21:25:07.940,-0.38,-0.275
21:25:07.944,-0.39,-0.295
21:25:07.948,-0.39,-0.295
21:25:07.952,-0.405,-0.3
21:25:07.956,-0.41,-0.285
21:25:07.960,-0.39,-0.305
21:25:07.964,-0.395,-0.285
21:25:07.968,-0.39,-0.27
21:25:07.972,-0.38,-0.3
21:25:07.976,-0.345,-0.29
21:25:07.980,-0.355,-0.295
21:25:07.984,-0.295,-0.325
21:25:07.988,-0.21,-0.325
21:25:07.992,-0.1,-0.34
21:25:07.996,-0.04,-0.36
21:25:08.000,0.04,-0.38
21:25:08.004,0.11,-0.42
21:25:08.008,0.175,-0.44
21:25:08.012,0.22,-0.455
21:25:08.016,0.21,-0.455
21:25:08.020,0.205,-0.515
21:25:08.024,0.28,-0.59
21:25:08.028,0.495,-0.7
21:25:08.032,0.79,-0.91
21:25:08.036,1.02,-1.11
21:25:08.040,1.02,-1.32
21:25:08.044,0.69,-1.37
21:25:08.048,0.22,-1.21
21:25:08.052,-0.14,-0.89
21:25:08.056,-0.295,-0.655
21:25:08.060,-0.35,-0.505
21:25:08.064,-0.365,-0.41
21:25:08.068,-0.37,-0.315
21:25:08.072,-0.4,-0.245
21:25:08.076,-0.445,-0.245
21:25:08.080,-0.47,-0.24
21:25:08.084,-0.475,-0.235
21:25:08.088,-0.475,-0.24
21:25:08.092,-0.495,-0.25
21:25:08.096,-0.505,-0.285
21:25:08.100,-0.495,-0.285
21:25:08.104,-0.49,-0.275
21:25:08.108,-0.505,-0.27
21:25:08.112,-0.54,-0.28
21:25:08.116,-0.525,-0.27
21:25:08.120,-0.51,-0.29
21:25:08.124,-0.505,-0.28
21:25:08.128,-0.52,-0.305
21:25:08.132,-0.515,-0.285
21:25:08.136,-0.515,-0.305
21:25:08.140,-0.51,-0.295
21:25:08.144,-0.535,-0.28
21:25:08.148,-0.515,-0.27
21:25:08.152,-0.515,-0.29
21:25:08.156,-0.525,-0.29
21:25:08.160,-0.545,-0.275
21:25:08.164,-0.52,-0.28
21:25:08.168,-0.515,-0.255
21:25:08.172,-0.525,-0.27
21:25:08.176,-0.525,-0.275
21:25:08.180,-0.52,-0.275
21:25:08.184,-0.52,-0.25
21:25:08.188,-0.54,-0.25
21:25:08.192,-0.53,-0.24
21:25:08.196,-0.525,-0.255
21:25:08.200,-0.535,-0.225
21:25:08.204,-0.52,-0.24
21:25:08.208,-0.51,-0.22
21:25:08.212,-0.5,-0.22
21:25:08.216,-0.485,-0.22
21:25:08.220,-0.495,-0.21
21:25:08.224,-0.51,-0.185
21:25:08.228,-0.47,-0.19
21:25:08.232,-0.47,-0.22
21:25:08.236,-0.465,-0.215
21:25:08.240,-0.45,-0.22
21:25:08.244,-0.44,-0.21
21:25:08.248,-0.43,-0.205
21:25:08.252,-0.405,-0.215
21:25:08.256,-0.4,-0.23
21:25:08.260,-0.39,-0.22
21:25:08.264,-0.365,-0.205
21:25:08.268,-0.355,-0.225
21:25:08.272,-0.335,-0.225
21:25:08.276,-0.315,-0.225
21:25:08.280,-0.295,-0.21
21:25:08.284,-0.27,-0.215
21:25:08.288,-0.255,-0.205
21:25:08.292,-0.255,-0.245
21:25:08.296,-0.23,-0.23
21:25:08.300,-0.23,-0.24
21:25:08.304,-0.23,-0.2
21:25:08.308,-0.225,-0.22
21:25:08.312,-0.22,-0.22
21:25:08.316,-0.2,-0.21
21:25:08.320,-0.2,-0.215
21:25:08.324,-0.22,-0.215
21:25:08.328,-0.205,-0.205
21:25:08.332,-0.205,-0.2
21:25:08.336,-0.215,-0.2
21:25:08.340,-0.21,-0.19
21:25:08.344,-0.21,-0.185
21:25:08.348,-0.205,-0.195
21:25:08.352,-0.195,-0.175
21:25:08.356,-0.215,-0.21
21:25:08.360,-0.2,-0.2
21:25:08.364,-0.215,-0.205
21:25:08.368,-0.2,-0.2
21:25:08.372,-0.22,-0.195
21:25:08.376,-0.215,-0.18
21:25:08.380,-0.205,-0.17
21:25:08.384,-0.205,-0.18
21:25:08.388,-0.2,-0.19
21:25:08.392,-0.205,-0.17
21:25:08.396,-0.175,-0.155
21:25:08.400,-0.19,-0.17
21:25:08.404,-0.18,-0.16
21:25:08.408,-0.195,-0.14
21:25:08.412,-0.185,-0.13
21:25:08.416,-0.195,-0.16
21:25:08.420,-0.17,-0.16
21:25:08.424,-0.155,-0.14
21:25:08.428,-0.14,-0.145
21:25:08.432,-0.15,-0.17
21:25:08.436,-0.14,-0.16
21:25:08.440,-0.14,-0.155
21:25:08.444,-0.14,-0.15
21:25:08.448,-0.095,-0.125
21:25:08.452,-0.075,-0.135
21:25:08.456,-0.025,-0.125
21:25:08.460,0.0,-0.11
21:25:08.464,0.015,-0.12
21:25:08.468,0.04,-0.105
21:25:08.472,0.07,-0.115
21:25:08.476,0.085,-0.11
21:25:08.480,0.105,-0.1
21:25:08.484,0.07,-0.115
21:25:08.488,0.05,-0.135
21:25:08.492,0.0,-0.165
21:25:08.496,-0.045,-0.155
21:25:08.500,-0.09,-0.19
21:25:08.504,-0.16,-0.17
21:25:08.508,-0.21,-0.17
21:25:08.512,-0.225,-0.19
21:25:08.516,-0.265,-0.13
21:25:08.520,-0.305,-0.145
21:25:08.524,-0.285,-0.13
21:25:08.528,-0.28,-0.13
21:25:08.532,-0.31,-0.12
21:25:08.536,-0.31,-0.145
21:25:08.540,-0.295,-0.13
21:25:08.544,-0.285,-0.135
21:25:08.548,-0.28,-0.15
21:25:08.552,-0.285,-0.16
21:25:08.556,-0.295,-0.145
21:25:08.560,-0.29,-0.16
21:25:08.564,-0.295,-0.145
21:25:08.568,-0.285,-0.16
21:25:08.572,-0.28,-0.15
21:25:08.576,-0.285,-0.175
21:25:08.580,-0.29,-0.165
21:25:08.584,-0.275,-0.16
21:25:08.588,-0.275,-0.165
21:25:08.592,-0.285,-0.16
21:25:08.596,-0.28,-0.16
21:25:08.600,-0.28,-0.155
21:25:08.604,-0.27,-0.14
21:25:08.608,-0.265,-0.175
21:25:08.612,-0.245,-0.16
21:25:08.616,-0.24,-0.175
21:25:08.620,-0.22,-0.17
21:25:08.624,-0.18,-0.17
21:25:08.628,-0.14,-0.16
21:25:08.632,-0.075,-0.16
21:25:08.636,0.03,-0.15
21:25:08.640,0.095,-0.16
21:25:08.644,0.16,-0.205
21:25:08.648,0.19,-0.235
21:25:08.652,0.22,-0.275
21:25:08.656,0.24,-0.28
21:25:08.660,0.22,-0.28
21:25:08.664,0.22,-0.345
21:25:08.668,0.32,-0.46
21:25:08.672,0.58,-0.625
21:25:08.676,0.9,-0.865
21:25:08.680,1.135,-1.085
21:25:08.684,1.14,-1.27
21:25:08.688,0.8,-1.27
21:25:08.692,0.32,-1.06
21:25:08.696,-0.075,-0.675
21:25:08.700,-0.245,-0.405
21:25:08.704,-0.28,-0.22
21:25:08.708,-0.305,-0.11
21:25:08.712,-0.315,-0.055
21:25:08.716,-0.355,-0.005
21:25:08.720,-0.345,-0.01
21:25:08.724,-0.36,0.0
21:25:08.728,-0.36,-0.005
21:25:08.732,-0.34,-0.025
21:25:08.736,-0.355,-0.04
21:25:08.740,-0.35,-0.04
21:25:08.744,-0.355,-0.07
21:25:08.748,-0.36,-0.055
21:25:08.752,-0.36,-0.04
21:25:08.756,-0.36,-0.04
21:25:08.760,-0.365,-0.045
21:25:08.764,-0.385,-0.035
21:25:08.768,-0.37,-0.055
21:25:08.772,-0.395,-0.055
21:25:08.776,-0.395,-0.025
21:25:08.780,-0.39,-0.035
21:25:08.784,-0.395,-0.04
21:25:08.788,-0.4,-0.065
21:25:08.792,-0.41,-0.04
21:25:08.796,-0.4,-0.03
21:25:08.800,-0.395,-0.065
21:25:08.804,-0.41,-0.075
21:25:08.808,-0.425,-0.07
21:25:08.812,-0.42,-0.05
21:25:08.816,-0.42,-0.05
21:25:08.820,-0.41,-0.045
21:25:08.824,-0.425,-0.05
21:25:08.828,-0.435,-0.045
21:25:08.832,-0.42,-0.045
21:25:08.836,-0.42,-0.055
21:25:08.840,-0.43,-0.05
21:25:08.844,-0.405,-0.035
21:25:08.848,-0.405,-0.025
21:25:08.852,-0.405,-0.035
21:25:08.856,-0.39,-0.025
21:25:08.860,-0.415,-0.03
21:25:08.864,-0.4,-0.045
21:25:08.868,-0.4,-0.025
21:25:08.872,-0.405,-0.035
21:25:08.876,-0.385,0.005
21:25:08.880,-0.365,-0.025
21:25:08.884,-0.35,-0.055
21:25:08.888,-0.36,-0.045
21:25:08.892,-0.35,-0.065
21:25:08.896,-0.34,-0.07
21:25:08.900,-0.32,-0.065
21:25:08.904,-0.3,-0.115
21:25:08.908,-0.33,-0.09
21:25:08.912,-0.315,-0.11
21:25:08.916,-0.29,-0.1
21:25:08.920,-0.275,-0.105
21:25:08.924,-0.255,-0.13
21:25:08.928,-0.26,-0.125
21:25:08.932,-0.255,-0.11
21:25:08.936,-0.245,-0.105
21:25:08.940,-0.22,-0.1
21:25:08.944,-0.195,-0.11
21:25:08.948,-0.195,-0.14
21:25:08.952,-0.175,-0.095
21:25:08.956,-0.185,-0.11
21:25:08.960,-0.17,-0.105
21:25:08.964,-0.16,-0.11
21:25:08.968,-0.135,-0.075
21:25:08.972,-0.15,-0.06
21:25:08.976,-0.145,-0.07
21:25:08.980,-0.145,-0.06
21:25:08.984,-0.135,-0.065
21:25:08.988,-0.15,-0.07
21:25:08.992,-0.15,-0.04
21:25:08.996,-0.15,-0.055
21:25:09.000,-0.15,-0.045
21:25:09.004,-0.16,-0.06
21:25:09.008,-0.185,-0.025
21:25:09.012,-0.17,-0.055
21:25:09.016,-0.155,-0.055
21:25:09.020,-0.175,-0.045
21:25:09.024,-0.175,-0.02
21:25:09.028,-0.165,-0.035
21:25:09.032,-0.16,-0.02
21:25:09.036,-0.165,-0.03
21:25:09.040,-0.155,-0.035
21:25:09.044,-0.16,-0.045
21:25:09.048,-0.145,-0.03
21:25:09.052,-0.15,-0.045
21:25:09.056,-0.115,-0.035
21:25:09.060,-0.095,-0.025
21:25:09.064,-0.09,-0.02
21:25:09.068,-0.075,-0.015
21:25:09.072,-0.08,-0.02
21:25:09.076,-0.05,-0.01
21:25:09.080,0.0,0.03
21:25:09.084,0.02,0.005
21:25:09.088,0.045,0.025
21:25:09.092,0.07,0.015
21:25:09.096,0.1,0.025
21:25:09.100,0.105,0.02
21:25:09.104,0.12,0.03
21:25:09.108,0.105,0.03
21:25:09.112,0.09,0.02
21:25:09.116,0.02,-0.015
21:25:09.120,-0.02,-0.025
21:25:09.124,-0.07,-0.055
21:25:09.128,-0.12,-0.05
21:25:09.132,-0.195,-0.06
21:25:09.136,-0.23,-0.06
21:25:09.140,-0.28,-0.04
21:25:09.144,-0.275,-0.025
21:25:09.148,-0.295,-0.04
21:25:09.152,-0.295,-0.04
21:25:09.156,-0.305,-0.05
21:25:09.160,-0.305,-0.05
21:25:09.164,-0.295,-0.06
21:25:09.168,-0.275,-0.05
21:25:09.172,-0.255,-0.065
21:25:09.176,-0.26,-0.06
21:25:09.180,-0.24,-0.07
21:25:09.184,-0.24,-0.04
21:25:09.188,-0.24,-0.05
21:25:09.192,-0.245,-0.04
21:25:09.196,-0.235,-0.055
21:25:09.200,-0.26,-0.045
21:25:09.204,-0.26,-0.07
21:25:09.208,-0.255,-0.045
21:25:09.212,-0.25,-0.07
21:25:09.216,-0.235,-0.045
21:25:09.220,-0.26,-0.045
21:25:09.224,-0.275,-0.055
21:25:09.228,-0.255,-0.065
21:25:09.232,-0.265,-0.055
21:25:09.236,-0.25,-0.055
21:25:09.240,-0.245,-0.08
21:25:09.244,-0.22,-0.075
21:25:09.248,-0.215,-0.095
21:25:09.252,-0.18,-0.075
21:25:09.256,-0.13,-0.095
21:25:09.260,-0.06,-0.095
21:25:09.264,0.025,-0.105
21:25:09.268,0.1,-0.105
21:25:09.272,0.17,-0.13
21:25:09.276,0.215,-0.175
21:25:09.280,0.225,-0.205
21:25:09.284,0.23,-0.21
21:25:09.288,0.245,-0.22
21:25:09.292,0.24,-0.26
21:25:09.296,0.335,-0.375
21:25:09.300,0.565,-0.53
21:25:09.304,0.9,-0.72
21:25:09.308,1.135,-0.955
21:25:09.312,1.155,-1.15
21:25:09.316,0.88,-1.185
21:25:09.320,0.415,-0.985
21:25:09.324,0.015,-0.635
21:25:09.328,-0.185,-0.35
21:25:09.332,-0.26,-0.135
21:25:09.336,-0.29,-0.015
21:25:09.340,-0.29,0.04
21:25:09.344,-0.33,0.08
21:25:09.348,-0.34,0.085
21:25:09.352,-0.345,0.06
21:25:09.356,-0.335,0.065
21:25:09.360,-0.35,0.06
21:25:09.364,-0.375,0.035
21:25:09.368,-0.37,0.015
21:25:09.372,-0.36,0.015
21:25:09.376,-0.365,0.0
21:25:09.380,-0.355,-0.005
21:25:09.384,-0.37,0.015
21:25:09.388,-0.34,0.01
21:25:09.392,-0.365,0.02
21:25:09.396,-0.355,0.02
21:25:09.400,-0.345,0.03
21:25:09.404,-0.365,0.025
21:25:09.408,-0.335,0.04
21:25:09.412,-0.36,0.035
21:25:09.416,-0.37,0.045
21:25:09.420,-0.35,0.04
21:25:09.424,-0.36,0.04
21:25:09.428,-0.35,0.02
21:25:09.432,-0.385,0.05
21:25:09.436,-0.39,0.05
21:25:09.440,-0.385,0.03
21:25:09.444,-0.41,0.035
21:25:09.448,-0.39,0.03
21:25:09.452,-0.415,0.04
21:25:09.456,-0.41,0.055
21:25:09.460,-0.42,0.05
21:25:09.464,-0.43,0.075
21:25:09.468,-0.425,0.04
21:25:09.472,-0.415,0.055
21:25:09.476,-0.405,0.035
21:25:09.480,-0.42,0.015
21:25:09.484,-0.41,0.025
21:25:09.488,-0.4,0.02
21:25:09.492,-0.41,0.015
21:25:09.496,-0.405,0.035
21:25:09.500,-0.39,0.0
21:25:09.504,-0.39,0.0
21:25:09.508,-0.365,0.0
21:25:09.512,-0.39,-0.005
21:25:09.516,-0.35,0.005
21:25:09.520,-0.335,-0.005
21:25:09.524,-0.32,-0.01
21:25:09.528,-0.32,-0.015
21:25:09.532,-0.31,-0.025
21:25:09.536,-0.295,-0.01
21:25:09.540,-0.285,-0.01
21:25:09.544,-0.285,-0.02
21:25:09.548,-0.28,-0.02
21:25:09.552,-0.26,-0.03
21:25:09.556,-0.23,-0.04
21:25:09.560,-0.245,-0.035
21:25:09.564,-0.23,-0.05
21:25:09.568,-0.23,-0.08
21:25:09.572,-0.24,-0.06
21:25:09.576,-0.23,-0.055
21:25:09.580,-0.225,-0.075
21:25:09.584,-0.21,-0.045
21:25:09.588,-0.195,-0.05
21:25:09.592,-0.2,-0.06
21:25:09.596,-0.205,-0.05
21:25:09.600,-0.165,-0.02
21:25:09.604,-0.185,-0.045
21:25:09.608,-0.19,-0.02
21:25:09.612,-0.17,-0.025
21:25:09.616,-0.18,-0.025
21:25:09.620,-0.18,0.0
21:25:09.624,-0.165,-0.025
21:25:09.628,-0.18,-0.015
21:25:09.632,-0.165,-0.01
21:25:09.636,-0.15,0.0
21:25:09.640,-0.165,0.0
21:25:09.644,-0.165,0.0
21:25:09.648,-0.17,-0.005
21:25:09.652,-0.16,0.015
21:25:09.656,-0.185,0.015
21:25:09.660,-0.19,0.005
21:25:09.664,-0.19,0.03
21:25:09.668,-0.18,0.005
21:25:09.672,-0.2,-0.01
21:25:09.676,-0.22,0.0
21:25:09.680,-0.22,-0.005
21:25:09.684,-0.225,0.0
21:25:09.688,-0.24,0.0
21:25:09.692,-0.245,-0.005
21:25:09.696,-0.24,0.01
21:25:09.700,-0.23,-0.01
21:25:09.704,-0.24,0.0
21:25:09.708,-0.24,-0.005
21:25:09.712,-0.215,-0.015
21:25:09.716,-0.22,-0.01
21:25:09.720,-0.19,0.02
21:25:09.724,-0.2,0.015
21:25:09.728,-0.195,0.015
21:25:09.732,-0.165,0.03
21:25:09.736,-0.125,0.04
21:25:09.740,-0.065,0.065
21:25:09.744,-0.05,0.095
21:25:09.748,-0.03,0.095
21:25:09.752,-0.025,0.105
21:25:09.756,-0.005,0.125
21:25:09.760,0.01,0.12
21:25:09.764,0.03,0.12
21:25:09.768,0.02,0.125
21:25:09.772,-0.015,0.075
21:25:09.776,-0.085,0.07
21:25:09.780,-0.13,0.06
21:25:09.784,-0.205,0.05
21:25:09.788,-0.26,0.06
21:25:09.792,-0.29,0.06
21:25:09.796,-0.315,0.075
21:25:09.800,-0.36,0.07
21:25:09.804,-0.415,0.07
21:25:09.808,-0.43,0.08
21:25:09.812,-0.43,0.065
21:25:09.816,-0.41,0.055
21:25:09.820,-0.405,0.05
21:25:09.824,-0.41,0.05
21:25:09.828,-0.4,0.045
21:25:09.832,-0.39,0.04
21:25:09.836,-0.385,0.04
21:25:09.840,-0.42,0.04
21:25:09.844,-0.42,0.05
21:25:09.848,-0.395,0.055
21:25:09.852,-0.36,0.065
21:25:09.856,-0.38,0.045
21:25:09.860,-0.385,0.04
21:25:09.864,-0.36,0.045
21:25:09.868,-0.335,0.04
21:25:09.872,-0.37,0.04
21:25:09.876,-0.35,0.045
21:25:09.880,-0.355,0.06
21:25:09.884,-0.35,0.06
21:25:09.888,-0.355,0.06
21:25:09.892,-0.355,0.055
21:25:09.896,-0.355,0.085
21:25:09.900,-0.36,0.095
21:25:09.904,-0.385,0.085
21:25:09.908,-0.345,0.08
21:25:09.912,-0.3,0.055
21:25:09.916,-0.265,0.085
21:25:09.920,-0.18,0.06
21:25:09.924,-0.075,0.045
21:25:09.928,0.01,0.02
21:25:09.932,0.08,-0.005
21:25:09.936,0.105,-0.055
21:25:09.940,0.12,-0.06
21:25:09.944,0.15,-0.05
21:25:09.948,0.135,-0.06
21:25:09.952,0.17,-0.12
21:25:09.956,0.275,-0.205
21:25:09.960,0.58,-0.375
21:25:09.964,0.87,-0.6
21:25:09.968,1.065,-0.825
21:25:09.972,1.0,-1.03
21:25:09.976,0.635,-0.98
21:25:09.980,0.15,-0.75
21:25:09.984,-0.175,-0.37
21:25:09.988,-0.315,-0.14
21:25:09.992,-0.36,0.0
21:25:09.996,-0.37,0.09
21:25:10.000,-0.405,0.155
21:25:10.004,-0.42,0.185
21:25:10.008,-0.435,0.195
21:25:10.012,-0.455,0.185
21:25:10.016,-0.48,0.165
21:25:10.020,-0.505,0.125
21:25:10.024,-0.495,0.105
21:25:10.028,-0.495,0.095
21:25:10.032,-0.48,0.095
21:25:10.036,-0.5,0.095
21:25:10.040,-0.5,0.085
21:25:10.044,-0.485,0.105
21:25:10.048,-0.515,0.095
21:25:10.052,-0.49,0.09
21:25:10.056,-0.48,0.07
21:25:10.060,-0.48,0.08
21:25:10.064,-0.495,0.085
21:25:10.068,-0.5,0.075
21:25:10.072,-0.495,0.085
21:25:10.076,-0.48,0.08
21:25:10.080,-0.465,0.075
21:25:10.084,-0.485,0.065
21:25:10.088,-0.505,0.06
21:25:10.092,-0.51,0.075
21:25:10.096,-0.5,0.085
21:25:10.100,-0.52,0.055
21:25:10.104,-0.515,0.045
21:25:10.108,-0.54,0.06
21:25:10.112,-0.54,0.055
21:25:10.116,-0.52,0.035
21:25:10.120,-0.535,0.02
21:25:10.124,-0.535,0.0
21:25:10.128,-0.51,0.005
21:25:10.132,-0.535,0.0
21:25:10.136,-0.54,-0.015
21:25:10.140,-0.53,-0.015
21:25:10.144,-0.525,-0.015
21:25:10.148,-0.535,-0.01
21:25:10.152,-0.53,-0.04
21:25:10.156,-0.495,-0.035
21:25:10.160,-0.475,-0.06
21:25:10.164,-0.49,-0.06
21:25:10.168,-0.48,-0.055
21:25:10.172,-0.47,-0.07
21:25:10.176,-0.46,-0.07
21:25:10.180,-0.465,-0.08
21:25:10.184,-0.44,-0.105
21:25:10.188,-0.415,-0.11
21:25:10.192,-0.395,-0.09
21:25:10.196,-0.385,-0.125
21:25:10.200,-0.375,-0.09
21:25:10.204,-0.35,-0.125
21:25:10.208,-0.34,-0.13
21:25:10.212,-0.36,-0.14
21:25:10.216,-0.345,-0.145
21:25:10.220,-0.32,-0.12
21:25:10.224,-0.31,-0.155
21:25:10.228,-0.3,-0.145
21:25:10.232,-0.315,-0.135
21:25:10.236,-0.32,-0.155
21:25:10.240,-0.3,-0.165
21:25:10.244,-0.3,-0.15
21:25:10.248,-0.29,-0.165
21:25:10.252,-0.285,-0.15
21:25:10.256,-0.28,-0.175
21:25:10.260,-0.295,-0.195
21:25:10.264,-0.265,-0.17
21:25:10.268,-0.26,-0.155
21:25:10.272,-0.255,-0.175
21:25:10.276,-0.265,-0.16
21:25:10.280,-0.28,-0.155
21:25:10.284,-0.275,-0.15
21:25:10.288,-0.255,-0.15
21:25:10.292,-0.28,-0.15
21:25:10.296,-0.255,-0.155
21:25:10.300,-0.24,-0.155
21:25:10.304,-0.22,-0.14
21:25:10.308,-0.22,-0.15
21:25:10.312,-0.23,-0.13
21:25:10.316,-0.235,-0.13
21:25:10.320,-0.235,-0.16
21:25:10.324,-0.24,-0.155
21:25:10.328,-0.245,-0.145
21:25:10.332,-0.24,-0.15
21:25:10.336,-0.23,-0.13
21:25:10.340,-0.24,-0.135
21:25:10.344,-0.25,-0.17
21:25:10.348,-0.245,-0.15
21:25:10.352,-0.25,-0.16
21:25:10.356,-0.255,-0.165
21:25:10.360,-0.235,-0.17
21:25:10.364,-0.22,-0.155
21:25:10.368,-0.215,-0.155
21:25:10.372,-0.195,-0.16
21:25:10.376,-0.185,-0.155
21:25:10.380,-0.185,-0.17
21:25:10.384,-0.17,-0.15
21:25:10.388,-0.155,-0.17
21:25:10.392,-0.105,-0.15
21:25:10.396,-0.08,-0.15
21:25:10.400,-0.05,-0.145
21:25:10.404,0.005,-0.13
21:25:10.408,0.03,-0.1
21:25:10.412,0.095,-0.115
21:25:10.416,0.11,-0.1
21:25:10.420,0.115,-0.115
21:25:10.424,0.115,-0.11
21:25:10.428,0.095,-0.11
21:25:10.432,0.05,-0.13
21:25:10.436,0.005,-0.145
21:25:10.440,-0.04,-0.175
21:25:10.444,-0.09,-0.175
21:25:10.448,-0.155,-0.16
21:25:10.452,-0.21,-0.155
21:25:10.456,-0.24,-0.15
21:25:10.460,-0.295,-0.16
21:25:10.464,-0.305,-0.115
21:25:10.468,-0.29,-0.145
21:25:10.472,-0.285,-0.135
21:25:10.476,-0.3,-0.14
21:25:10.480,-0.3,-0.155
21:25:10.484,-0.28,-0.155
21:25:10.488,-0.27,-0.155
21:25:10.492,-0.255,-0.16
21:25:10.496,-0.255,-0.16
21:25:10.500,-0.26,-0.165
21:25:10.504,-0.265,-0.16
21:25:10.508,-0.26,-0.17
21:25:10.512,-0.26,-0.17
21:25:10.516,-0.24,-0.15
21:25:10.520,-0.225,-0.155
21:25:10.524,-0.215,-0.15
21:25:10.528,-0.23,-0.16
21:25:10.532,-0.23,-0.15
21:25:10.536,-0.215,-0.155
21:25:10.540,-0.21,-0.15
21:25:10.544,-0.22,-0.16
21:25:10.548,-0.21,-0.125
21:25:10.552,-0.22,-0.145
21:25:10.556,-0.215,-0.15
21:25:10.560,-0.19,-0.135
21:25:10.564,-0.195,-0.145
21:25:10.568,-0.145,-0.18
21:25:10.572,-0.1,-0.165
21:25:10.576,-0.04,-0.15
21:25:10.580,0.045,-0.18
21:25:10.584,0.13,-0.195
21:25:10.588,0.195,-0.205
21:25:10.592,0.24,-0.255
21:25:10.596,0.28,-0.305
21:25:10.600,0.325,-0.31
21:25:10.604,0.29,-0.325
21:25:10.608,0.31,-0.365
21:25:10.612,0.4,-0.43
21:25:10.616,0.665,-0.61
21:25:10.620,0.99,-0.845
21:25:10.624,1.245,-1.075
21:25:10.628,1.225,-1.25
21:25:10.632,0.865,-1.25
21:25:10.636,0.38,-1.01
21:25:10.640,0.005,-0.66
21:25:10.644,-0.16,-0.37
21:25:10.648,-0.2,-0.21
21:25:10.652,-0.215,-0.125
21:25:10.656,-0.255,-0.03
21:25:10.660,-0.275,-0.02
21:25:10.664,-0.27,0.01
21:25:10.668,-0.3,0.01
21:25:10.672,-0.325,0.0
21:25:10.676,-0.33,0.02
21:25:10.680,-0.35,-0.01
21:25:10.684,-0.33,-0.035
21:25:10.688,-0.35,-0.045
21:25:10.692,-0.34,-0.04
21:25:10.696,-0.355,-0.035
21:25:10.700,-0.34,-0.03
21:25:10.704,-0.355,-0.05
21:25:10.708,-0.35,-0.05
21:25:10.712,-0.34,-0.045
21:25:10.716,-0.35,-0.035
21:25:10.720,-0.36,-0.07
21:25:10.724,-0.35,-0.05
21:25:10.728,-0.35,-0.055
21:25:10.732,-0.36,-0.045
21:25:10.736,-0.36,-0.06
21:25:10.740,-0.365,-0.045
21:25:10.744,-0.38,-0.05
21:25:10.748,-0.335,-0.05
21:25:10.752,-0.365,-0.06
21:25:10.756,-0.375,-0.055
21:25:10.760,-0.365,-0.02
21:25:10.764,-0.37,-0.02
21:25:10.768,-0.37,-0.02
21:25:10.772,-0.37,-0.035
21:25:10.776,-0.385,-0.025
21:25:10.780,-0.37,-0.03
21:25:10.784,-0.38,-0.04
21:25:10.788,-0.38,-0.025
21:25:10.792,-0.39,-0.03
21:25:10.796,-0.385,-0.01
21:25:10.800,-0.385,-0.045
21:25:10.804,-0.375,-0.05
21:25:10.808,-0.385,-0.035
21:25:10.812,-0.36,-0.03
21:25:10.816,-0.35,-0.03
21:25:10.820,-0.37,-0.04
21:25:10.824,-0.335,-0.055
21:25:10.828,-0.33,-0.05
21:25:10.832,-0.325,-0.045
21:25:10.836,-0.32,-0.055
21:25:10.840,-0.31,-0.06
21:25:10.844,-0.295,-0.07
21:25:10.848,-0.275,-0.065
21:25:10.852,-0.285,-0.08
21:25:10.856,-0.24,-0.07
21:25:10.860,-0.21,-0.08
21:25:10.864,-0.22,-0.09
21:25:10.868,-0.18,-0.095
21:25:10.872,-0.19,-0.1
21:25:10.876,-0.17,-0.1
21:25:10.880,-0.16,-0.08
21:25:10.884,-0.17,-0.09
21:25:10.888,-0.15,-0.08
21:25:10.892,-0.16,-0.1
21:25:10.896,-0.16,-0.08
21:25:10.900,-0.16,-0.08
21:25:10.904,-0.13,-0.07
21:25:10.908,-0.13,-0.07
21:25:10.912,-0.145,-0.08
21:25:10.916,-0.14,-0.06
21:25:10.920,-0.14,-0.08
21:25:10.924,-0.13,-0.07
21:25:10.928,-0.13,-0.07
21:25:10.932,-0.13,-0.08
21:25:10.936,-0.135,-0.06
21:25:10.940,-0.13,-0.075
21:25:10.944,-0.11,-0.065
21:25:10.948,-0.135,-0.055
21:25:10.952,-0.15,-0.04
21:25:10.956,-0.135,-0.03
21:25:10.960,-0.135,-0.035
21:25:10.964,-0.14,-0.04
21:25:10.968,-0.15,-0.04
21:25:10.972,-0.11,-0.05
21:25:10.976,-0.105,-0.015
21:25:10.980,-0.1,-0.015
21:25:10.984,-0.135,-0.035
21:25:10.988,-0.13,-0.015
21:25:10.992,-0.12,-0.015
21:25:10.996,-0.11,-0.02
21:25:11.000,-0.09,-0.025
21:25:11.004,-0.08,-0.005
21:25:11.008,-0.075,-0.02
21:25:11.012,-0.055,-0.025
21:25:11.016,-0.08,-0.025
21:25:11.020,-0.08,-0.015
21:25:11.024,-0.06,0.015
21:25:11.028,-0.045,0.02
21:25:11.032,0.02,0.01
21:25:11.036,0.05,0.015
21:25:11.040,0.065,0.02
21:25:11.044,0.08,0.01
21:25:11.048,0.115,0.03
21:25:11.052,0.13,0.03
21:25:11.056,0.14,0.03
21:25:11.060,0.125,0.01
21:25:11.064,0.09,-0.01
21:25:11.068,0.03,-0.035
21:25:11.072,0.005,-0.04
21:25:11.076,-0.035,-0.04
21:25:11.080,-0.08,-0.035
21:25:11.084,-0.12,-0.06
21:25:11.088,-0.17,-0.04
21:25:11.092,-0.21,-0.005
21:25:11.096,-0.22,-0.005
21:25:11.100,-0.23,0.005
21:25:11.104,-0.22,-0.005
21:25:11.108,-0.21,0.0
21:25:11.112,-0.205,0.0
21:25:11.116,-0.23,-0.03
21:25:11.120,-0.205,-0.04
21:25:11.124,-0.21,-0.02
21:25:11.128,-0.21,-0.025
21:25:11.132,-0.235,-0.04
21:25:11.136,-0.215,-0.05
21:25:11.140,-0.22,-0.03
21:25:11.144,-0.22,-0.04
21:25:11.148,-0.22,-0.05
21:25:11.152,-0.21,-0.055
21:25:11.156,-0.2,-0.05
21:25:11.160,-0.2,-0.065
21:25:11.164,-0.21,-0.05
21:25:11.168,-0.18,-0.065
21:25:11.172,-0.21,-0.07
21:25:11.176,-0.205,-0.05
21:25:11.180,-0.2,-0.04
21:25:11.184,-0.18,-0.075
21:25:11.188,-0.18,-0.05
21:25:11.192,-0.175,-0.075
21:25:11.196,-0.155,-0.07
21:25:11.200,-0.14,-0.07
21:25:11.204,-0.09,-0.04
21:25:11.208,-0.03,-0.045
21:25:11.212,0.045,-0.045
21:25:11.216,0.13,-0.06
21:25:11.220,0.21,-0.08
21:25:11.224,0.25,-0.115
21:25:11.228,0.245,-0.155
21:25:11.232,0.28,-0.185
21:25:11.236,0.28,-0.185
21:25:11.240,0.275,-0.23
21:25:11.244,0.315,-0.31
21:25:11.248,0.485,-0.425
21:25:11.252,0.805,-0.62
21:25:11.256,1.105,-0.87
21:25:11.260,1.205,-1.075
21:25:11.264,1.05,-1.19
21:25:11.268,0.63,-1.06
21:25:11.272,0.16,-0.72
21:25:11.276,-0.095,-0.395
21:25:11.280,-0.21,-0.17
21:25:11.284,-0.22,-0.06
21:25:11.288,-0.26,0.03
21:25:11.292,-0.25,0.06
21:25:11.296,-0.29,0.095
21:25:11.300,-0.265,0.105
21:25:11.304,-0.26,0.09
21:25:11.308,-0.27,0.06
21:25:11.312,-0.245,0.07
21:25:11.316,-0.24,0.045
21:25:11.320,-0.245,0.06
21:25:11.324,-0.295,0.04
21:25:11.328,-0.28,0.05
21:25:11.332,-0.26,0.065
21:25:11.336,-0.275,0.03
21:25:11.340,-0.3,0.055
21:25:11.344,-0.295,0.045
21:25:11.348,-0.3,0.055
21:25:11.352,-0.29,0.045
21:25:11.356,-0.29,0.045
21:25:11.360,-0.35,0.03
21:25:11.364,-0.345,0.04
21:25:11.368,-0.33,0.015
21:25:11.372,-0.345,0.04
21:25:11.376,-0.345,0.025
21:25:11.380,-0.33,0.03
21:25:11.384,-0.36,0.015
21:25:11.388,-0.36,0.03
21:25:11.392,-0.36,0.035
21:25:11.396,-0.355,0.03
21:25:11.400,-0.39,0.035
21:25:11.404,-0.385,0.03
21:25:11.408,-0.385,0.01
21:25:11.412,-0.375,0.045
21:25:11.416,-0.36,0.025
21:25:11.420,-0.36,0.05
21:25:11.424,-0.365,0.045
21:25:11.428,-0.34,0.03
21:25:11.432,-0.345,0.02
21:25:11.436,-0.365,0.035
21:25:11.440,-0.35,0.03
21:25:11.444,-0.33,0.06
21:25:11.448,-0.32,0.04
21:25:11.452,-0.31,0.055
21:25:11.456,-0.315,0.03
21:25:11.460,-0.305,0.03
21:25:11.464,-0.29,0.04
21:25:11.468,-0.29,0.015
21:25:11.472,-0.3,0.015
21:25:11.476,-0.29,0.015
21:25:11.480,-0.27,0.0
21:25:11.484,-0.275,-0.005
21:25:11.488,-0.26,-0.025
21:25:11.492,-0.22,-0.02
21:25:11.496,-0.235,-0.02
21:25:11.500,-0.225,-0.03
21:25:11.504,-0.215,-0.03
21:25:11.508,-0.18,-0.04
21:25:11.512,-0.18,-0.06
21:25:11.516,-0.18,-0.04
21:25:11.520,-0.18,-0.045
21:25:11.524,-0.15,-0.04
21:25:11.528,-0.135,-0.03
21:25:11.532,-0.14,-0.025
21:25:11.536,-0.14,-0.035
21:25:11.540,-0.12,-0.04
21:25:11.544,-0.125,-0.03
21:25:11.548,-0.12,-0.035
21:25:11.552,-0.12,-0.015
21:25:11.556,-0.105,-0.01
21:25:11.560,-0.1,-0.015
21:25:11.564,-0.13,-0.015
21:25:11.568,-0.12,-0.01
21:25:11.572,-0.12,-0.01
21:25:11.576,-0.12,0.005
21:25:11.580,-0.125,-0.005
21:25:11.584,-0.155,0.015
21:25:11.588,-0.145,-0.015
21:25:11.592,-0.145,-0.03
21:25:11.596,-0.155,0.0
21:25:11.600,-0.15,-0.005
21:25:11.604,-0.165,0.0
21:25:11.608,-0.16,-0.02
21:25:11.612,-0.16,0.0
21:25:11.616,-0.165,-0.02
21:25:11.620,-0.17,-0.02
21:25:11.624,-0.165,-0.01
21:25:11.628,-0.155,-0.015
21:25:11.632,-0.16,-0.015
21:25:11.636,-0.145,-0.03
21:25:11.640,-0.12,0.0
21:25:11.644,-0.09,-0.03
21:25:11.648,-0.1,-0.025
21:25:11.652,-0.095,0.0
21:25:11.656,-0.055,0.0
21:25:11.660,-0.04,0.0
21:25:11.664,0.0,0.02
21:25:11.668,0.025,0.03
21:25:11.672,0.06,0.04
21:25:11.676,0.09,0.055
21:25:11.680,0.09,0.04
21:25:11.684,0.1,0.055
21:25:11.688,0.135,0.045
21:25:11.692,0.135,0.045
21:25:11.696,0.09,0.025
21:25:11.700,0.045,0.0
21:25:11.704,0.01,-0.025
21:25:11.708,-0.045,-0.05
21:25:11.712,-0.11,-0.045
21:25:11.716,-0.16,-0.06
21:25:11.720,-0.21,-0.05
21:25:11.724,-0.265,-0.015
21:25:11.728,-0.305,-0.03
21:25:11.732,-0.325,0.025
21:25:11.736,-0.315,0.005
21:25:11.740,-0.315,-0.01
21:25:11.744,-0.32,-0.01
21:25:11.748,-0.315,-0.035
21:25:11.752,-0.285,-0.075
21:25:11.756,-0.265,-0.05
21:25:11.760,-0.265,-0.05
21:25:11.764,-0.265,-0.035
21:25:11.768,-0.25,-0.02
21:25:11.772,-0.26,-0.02
21:25:11.776,-0.265,-0.02
21:25:11.780,-0.27,-0.03
21:25:11.784,-0.275,-0.035
21:25:11.788,-0.255,-0.045
21:25:11.792,-0.255,-0.04
21:25:11.796,-0.265,-0.045
21:25:11.800,-0.285,-0.04
21:25:11.804,-0.255,-0.045
21:25:11.808,-0.275,-0.06
21:25:11.812,-0.27,-0.05
21:25:11.816,-0.25,-0.045
21:25:11.820,-0.255,-0.055
21:25:11.824,-0.255,-0.06
21:25:11.828,-0.25,-0.045
21:25:11.832,-0.245,-0.05
21:25:11.836,-0.21,-0.055
21:25:11.840,-0.165,-0.075
21:25:11.844,-0.09,-0.08
21:25:11.848,-0.01,-0.075
21:25:11.852,0.085,-0.1
21:25:11.856,0.135,-0.12
21:25:11.860,0.155,-0.15
21:25:11.864,0.195,-0.16
21:25:11.868,0.215,-0.195
21:25:11.872,0.23,-0.195
21:25:11.876,0.2,-0.235
21:25:11.880,0.27,-0.325
21:25:11.884,0.505,-0.46
21:25:11.888,0.84,-0.665
21:25:11.892,1.105,-0.91
21:25:11.896,1.14,-1.095
21:25:11.900,0.895,-1.185
21:25:11.904,0.425,-0.985
21:25:11.908,0.005,-0.625
21:25:11.912,-0.22,-0.33
21:25:11.916,-0.27,-0.125
21:25:11.920,-0.295,-0.03
21:25:11.924,-0.315,0.035
21:25:11.928,-0.335,0.08
21:25:11.932,-0.35,0.085
21:25:11.936,-0.34,0.085
21:25:11.940,-0.33,0.085
21:25:11.944,-0.355,0.07
21:25:11.948,-0.355,0.04
21:25:11.952,-0.35,0.025
21:25:11.956,-0.37,0.015
21:25:11.960,-0.365,0.025
21:25:11.964,-0.385,0.025
21:25:11.968,-0.37,0.02
21:25:11.972,-0.38,0.015
21:25:11.976,-0.365,0.02
21:25:11.980,-0.365,0.02
21:25:11.984,-0.37,0.04
21:25:11.988,-0.355,0.02
21:25:11.992,-0.35,0.03
21:25:11.996,-0.365,0.015
21:25:12.000,-0.345,0.045
21:25:12.004,-0.37,0.075
21:25:12.008,-0.39,0.065
21:25:12.012,-0.395,0.035
21:25:12.016,-0.39,0.05
21:25:12.020,-0.395,0.07
21:25:12.024,-0.415,0.04
21:25:12.028,-0.425,0.045
21:25:12.032,-0.44,0.045
21:25:12.036,-0.45,0.03
21:25:12.040,-0.48,0.04
21:25:12.044,-0.45,0.055
21:25:12.048,-0.47,0.04
21:25:12.052,-0.44,0.04
21:25:12.056,-0.46,0.045
21:25:12.060,-0.46,0.035
21:25:12.064,-0.45,0.05
21:25:12.068,-0.43,0.075
21:25:12.072,-0.44,0.095
21:25:12.076,-0.415,0.065
21:25:12.080,-0.425,0.085
21:25:12.084,-0.41,0.075
21:25:12.088,-0.405,0.09
21:25:12.092,-0.385,0.075
21:25:12.096,-0.37,0.07
21:25:12.100,-0.365,0.075
21:25:12.104,-0.36,0.075
21:25:12.108,-0.35,0.06
21:25:12.112,-0.345,0.03
21:25:12.116,-0.33,-0.03
21:25:12.120,-0.32,-0.08
21:25:12.124,-0.325,-0.06
21:25:12.128,-0.305,-0.095
21:25:12.132,-0.295,-0.075
21:25:12.136,-0.295,-0.1
21:25:12.140,-0.31,-0.075
21:25:12.144,-0.295,-0.08
21:25:12.148,-0.285,-0.09
21:25:12.152,-0.275,-0.07
21:25:12.156,-0.285,-0.08
21:25:12.160,-0.265,-0.075
21:25:12.164,-0.26,-0.085
21:25:12.168,-0.26,-0.09
21:25:12.172,-0.26,-0.07
21:25:12.176,-0.25,-0.075
21:25:12.180,-0.24,-0.1
21:25:12.184,-0.24,-0.075
21:25:12.188,-0.25,-0.085
21:25:12.192,-0.24,-0.1
21:25:12.196,-0.22,-0.07
21:25:12.200,-0.21,-0.07
21:25:12.204,-0.19,-0.08
21:25:12.208,-0.23,-0.06
21:25:12.212,-0.23,-0.04
21:25:12.216,-0.22,-0.04
21:25:12.220,-0.22,-0.015
21:25:12.224,-0.22,-0.02
21:25:12.228,-0.22,-0.02
21:25:12.232,-0.235,-0.01
21:25:12.236,-0.25,-0.03
21:25:12.240,-0.26,-0.03
21:25:12.244,-0.245,-0.02
21:25:12.248,-0.255,-0.025
21:25:12.252,-0.29,-0.025
21:25:12.256,-0.28,-0.03
21:25:12.260,-0.27,0.005
21:25:12.264,-0.27,0.0
21:25:12.268,-0.28,-0.02
21:25:12.272,-0.265,0.01
21:25:12.276,-0.26,-0.025
21:25:12.280,-0.24,-0.015
21:25:12.284,-0.22,-0.025
21:25:12.288,-0.22,-0.025
21:25:12.292,-0.19,-0.03
21:25:12.296,-0.21,-0.025
21:25:12.300,-0.155,-0.015
21:25:12.304,-0.145,-0.02
21:25:12.308,-0.09,0.0
21:25:12.312,-0.05,0.0
21:25:12.316,-0.015,0.015
21:25:12.320,-0.005,0.005
21:25:12.324,0.02,0.02
21:25:12.328,0.045,0.01
21:25:12.332,0.035,0.02
21:25:12.336,0.03,0.0
21:25:12.340,0.01,-0.04
21:25:12.344,-0.035,-0.065
21:25:12.348,-0.09,-0.09
21:25:12.352,-0.16,-0.085
21:25:12.356,-0.24,-0.085
21:25:12.360,-0.275,-0.09
21:25:12.364,-0.33,-0.085
21:25:12.368,-0.375,-0.08
21:25:12.372,-0.39,-0.085
21:25:12.376,-0.39,-0.085
21:25:12.380,-0.395,-0.085
21:25:12.384,-0.39,-0.1
21:25:12.388,-0.41,-0.12
21:25:12.392,-0.395,-0.125
21:25:12.396,-0.395,-0.135
21:25:12.400,-0.37,-0.105
21:25:12.404,-0.36,-0.1
21:25:12.408,-0.34,-0.115
21:25:12.412,-0.355,-0.115
21:25:12.416,-0.365,-0.13
21:25:12.420,-0.37,-0.125
21:25:12.424,-0.35,-0.145
21:25:12.428,-0.34,-0.145
21:25:12.432,-0.37,-0.145
21:25:12.436,-0.355,-0.14
21:25:12.440,-0.33,-0.14
21:25:12.444,-0.345,-0.135
21:25:12.448,-0.33,-0.145
21:25:12.452,-0.33,-0.165
21:25:12.456,-0.315,-0.15
21:25:12.460,-0.315,-0.13
21:25:12.464,-0.33,-0.135
21:25:12.468,-0.335,-0.145
21:25:12.472,-0.33,-0.15
21:25:12.476,-0.32,-0.175
21:25:12.480,-0.295,-0.14
21:25:12.484,-0.21,-0.18
21:25:12.488,-0.135,-0.2
21:25:12.492,-0.045,-0.205
21:25:12.496,0.02,-0.21
21:25:12.500,0.075,-0.26
21:25:12.504,0.145,-0.295
21:25:12.508,0.205,-0.32
21:25:12.512,0.225,-0.29
21:25:12.516,0.205,-0.315
21:25:12.520,0.215,-0.39
21:25:12.524,0.36,-0.48
21:25:12.528,0.645,-0.66
21:25:12.532,0.94,-0.885
21:25:12.536,1.11,-1.095
21:25:12.540,0.95,-1.23
21:25:12.544,0.52,-1.175
21:25:12.548,0.065,-0.905
21:25:12.552,-0.185,-0.6
21:25:12.556,-0.3,-0.395
21:25:12.560,-0.345,-0.265
21:25:12.564,-0.375,-0.195
21:25:12.568,-0.385,-0.15
21:25:12.572,-0.385,-0.115
21:25:12.576,-0.41,-0.125
21:25:12.580,-0.425,-0.12
21:25:12.584,-0.46,-0.145
21:25:12.588,-0.47,-0.18
21:25:12.592,-0.495,-0.195
21:25:12.596,-0.5,-0.21
21:25:12.600,-0.51,-0.22
21:25:12.604,-0.51,-0.2
21:25:12.608,-0.515,-0.235
21:25:12.612,-0.535,-0.245
21:25:12.616,-0.525,-0.235
21:25:12.620,-0.515,-0.24
21:25:12.624,-0.49,-0.24
21:25:12.628,-0.505,-0.25
21:25:12.632,-0.535,-0.235
21:25:12.636,-0.52,-0.26
21:25:12.640,-0.53,-0.26
21:25:12.644,-0.52,-0.255
21:25:12.648,-0.55,-0.23
21:25:12.652,-0.515,-0.24
21:25:12.656,-0.535,-0.23
21:25:12.660,-0.54,-0.26
21:25:12.664,-0.545,-0.25
21:25:12.668,-0.55,-0.23
21:25:12.672,-0.585,-0.23
21:25:12.676,-0.57,-0.24
21:25:12.680,-0.59,-0.235
21:25:12.684,-0.605,-0.24
21:25:12.688,-0.585,-0.22
21:25:12.692,-0.605,-0.22
21:25:12.696,-0.61,-0.245
21:25:12.700,-0.575,-0.23
21:25:12.704,-0.605,-0.235
21:25:12.708,-0.59,-0.245
21:25:12.712,-0.595,-0.25
21:25:12.716,-0.575,-0.26
21:25:12.720,-0.56,-0.265
21:25:12.724,-0.53,-0.305
21:25:12.728,-0.54,-0.295
21:25:12.732,-0.55,-0.295
21:25:12.736,-0.52,-0.29
21:25:12.740,-0.52,-0.32
21:25:12.744,-0.52,-0.295
21:25:12.748,-0.495,-0.33
21:25:12.752,-0.475,-0.32
21:25:12.756,-0.47,-0.355
21:25:12.760,-0.45,-0.34
21:25:12.764,-0.43,-0.365
21:25:12.768,-0.41,-0.355
21:25:12.772,-0.39,-0.345
21:25:12.776,-0.4,-0.345
21:25:12.780,-0.385,-0.355
21:25:12.784,-0.365,-0.37
21:25:12.788,-0.355,-0.36
21:25:12.792,-0.35,-0.36
21:25:12.796,-0.365,-0.36
21:25:12.800,-0.335,-0.35
21:25:12.804,-0.305,-0.37
21:25:12.808,-0.32,-0.38
21:25:12.812,-0.31,-0.365
21:25:12.816,-0.32,-0.355
21:25:12.820,-0.325,-0.38
21:25:12.824,-0.315,-0.365
21:25:12.828,-0.3,-0.34
21:25:12.832,-0.295,-0.38
21:25:12.836,-0.29,-0.355
21:25:12.840,-0.3,-0.34
21:25:12.844,-0.29,-0.35
21:25:12.848,-0.285,-0.355
21:25:12.852,-0.26,-0.345
21:25:12.856,-0.275,-0.345
21:25:12.860,-0.28,-0.335
21:25:12.864,-0.28,-0.325
21:25:12.868,-0.275,-0.325
21:25:12.872,-0.275,-0.31
21:25:12.876,-0.27,-0.295
21:25:12.880,-0.275,-0.3
21:25:12.884,-0.26,-0.295
21:25:12.888,-0.295,-0.285
21:25:12.892,-0.28,-0.285
21:25:12.896,-0.26,-0.3
21:25:12.900,-0.25,-0.285
21:25:12.904,-0.255,-0.28
21:25:12.908,-0.26,-0.265
21:25:12.912,-0.245,-0.27
21:25:12.916,-0.235,-0.285
21:25:12.920,-0.245,-0.28
21:25:12.924,-0.235,-0.29
21:25:12.928,-0.22,-0.27
21:25:12.932,-0.225,-0.27
21:25:12.936,-0.19,-0.28
21:25:12.940,-0.19,-0.28
21:25:12.944,-0.165,-0.275
21:25:12.948,-0.15,-0.255
21:25:12.952,-0.115,-0.255
21:25:12.956,-0.07,-0.25
21:25:12.960,-0.055,-0.23
21:25:12.964,-0.01,-0.205
21:25:12.968,0.015,-0.195
21:25:12.972,0.025,-0.19
21:25:12.976,0.05,-0.195
21:25:12.980,0.07,-0.2
21:25:12.984,0.08,-0.2
21:25:12.988,0.055,-0.235
21:25:12.992,0.015,-0.24
21:25:12.996,-0.03,-0.265
21:25:13.000,-0.08,-0.24
21:25:13.004,-0.155,-0.25
21:25:13.008,-0.2,-0.235
21:25:13.012,-0.235,-0.23
21:25:13.016,-0.255,-0.23
21:25:13.020,-0.305,-0.235
21:25:13.024,-0.31,-0.215
21:25:13.028,-0.305,-0.225
21:25:13.032,-0.295,-0.225
21:25:13.036,-0.295,-0.23
21:25:13.040,-0.29,-0.23
21:25:13.044,-0.285,-0.225
21:25:13.048,-0.295,-0.23
21:25:13.052,-0.295,-0.265
21:25:13.056,-0.305,-0.24
21:25:13.060,-0.295,-0.255
21:25:13.064,-0.28,-0.24
21:25:13.068,-0.275,-0.23
21:25:13.072,-0.27,-0.22
21:25:13.076,-0.26,-0.25
21:25:13.080,-0.245,-0.245
21:25:13.084,-0.26,-0.235
21:25:13.088,-0.25,-0.215
21:25:13.092,-0.24,-0.24
21:25:13.096,-0.23,-0.225
21:25:13.100,-0.24,-0.2
21:25:13.104,-0.23,-0.235
21:25:13.108,-0.22,-0.225
21:25:13.112,-0.215,-0.225
21:25:13.116,-0.205,-0.23
21:25:13.120,-0.225,-0.235
21:25:13.124,-0.2,-0.21
21:25:13.128,-0.15,-0.21
21:25:13.132,-0.1,-0.21
21:25:13.136,-0.01,-0.21
21:25:13.140,0.055,-0.205
21:25:13.144,0.135,-0.23
21:25:13.148,0.2,-0.29
21:25:13.152,0.205,-0.32
21:25:13.156,0.245,-0.33
21:25:13.160,0.26,-0.345
21:25:13.164,0.24,-0.36
21:25:13.168,0.26,-0.45
21:25:13.172,0.415,-0.52
21:25:13.176,0.705,-0.71
21:25:13.180,1.015,-0.94
21:25:13.184,1.21,-1.17
21:25:13.188,1.13,-1.325
21:25:13.192,0.73,-1.25
21:25:13.196,0.23,-0.98
21:25:13.200,-0.12,-0.63
21:25:13.204,-0.245,-0.395
21:25:13.208,-0.285,-0.26
21:25:13.212,-0.28,-0.14
21:25:13.216,-0.305,-0.115
21:25:13.220,-0.31,-0.085
21:25:13.224,-0.31,-0.06
21:25:13.228,-0.325,-0.035
21:25:13.232,-0.325,-0.07
21:25:13.236,-0.345,-0.06
21:25:13.240,-0.33,-0.105
21:25:13.244,-0.345,-0.105
21:25:13.248,-0.36,-0.105
21:25:13.252,-0.345,-0.11
21:25:13.256,-0.345,-0.095
21:25:13.260,-0.34,-0.1
21:25:13.264,-0.37,-0.105
21:25:13.268,-0.365,-0.095
21:25:13.272,-0.365,-0.09
21:25:13.276,-0.38,-0.11
21:25:13.280,-0.395,-0.125
21:25:13.284,-0.395,-0.1
21:25:13.288,-0.385,-0.12
21:25:13.292,-0.395,-0.12
21:25:13.296,-0.4,-0.13
21:25:13.300,-0.405,-0.14
21:25:13.304,-0.41,-0.12
21:25:13.308,-0.4,-0.13
21:25:13.312,-0.41,-0.13
21:25:13.316,-0.42,-0.11
21:25:13.320,-0.42,-0.125
21:25:13.324,-0.4,-0.105
21:25:13.328,-0.415,-0.12
21:25:13.332,-0.41,-0.12
21:25:13.336,-0.415,-0.115
21:25:13.340,-0.41,-0.115
21:25:13.344,-0.41,-0.105
21:25:13.348,-0.415,-0.1
21:25:13.352,-0.41,-0.115
21:25:13.356,-0.4,-0.1
21:25:13.360,-0.39,-0.09
21:25:13.364,-0.4,-0.095
21:25:13.368,-0.405,-0.105
21:25:13.372,-0.39,-0.09
21:25:13.376,-0.39,-0.11
21:25:13.380,-0.39,-0.11
21:25:13.384,-0.39,-0.11
21:25:13.388,-0.375,-0.11
21:25:13.392,-0.355,-0.115
21:25:13.396,-0.355,-0.13
21:25:13.400,-0.32,-0.14
21:25:13.404,-0.32,-0.145
21:25:13.408,-0.32,-0.155
21:25:13.412,-0.295,-0.16
21:25:13.416,-0.305,-0.18
21:25:13.420,-0.27,-0.185
21:25:13.424,-0.25,-0.195
21:25:13.428,-0.26,-0.18
21:25:13.432,-0.245,-0.18
21:25:13.436,-0.225,-0.18
21:25:13.440,-0.2,-0.18
21:25:13.444,-0.195,-0.16
21:25:13.448,-0.2,-0.17
21:25:13.452,-0.17,-0.17
21:25:13.456,-0.17,-0.17
21:25:13.460,-0.18,-0.155
21:25:13.464,-0.175,-0.155
21:25:13.468,-0.175,-0.155
21:25:13.472,-0.185,-0.16
21:25:13.476,-0.17,-0.145
21:25:13.480,-0.15,-0.15
21:25:13.484,-0.15,-0.15
21:25:13.488,-0.16,-0.13
21:25:13.492,-0.16,-0.155
21:25:13.496,-0.18,-0.145
21:25:13.500,-0.185,-0.145
21:25:13.504,-0.17,-0.155
21:25:13.508,-0.18,-0.165
21:25:13.512,-0.18,-0.16
21:25:13.516,-0.165,-0.16
21:25:13.520,-0.195,-0.15
21:25:13.524,-0.18,-0.175
21:25:13.528,-0.165,-0.15
21:25:13.532,-0.205,-0.165
21:25:13.536,-0.19,-0.18
21:25:13.540,-0.185,-0.14
21:25:13.544,-0.18,-0.15
21:25:13.548,-0.14,-0.16
21:25:13.552,-0.15,-0.165
21:25:13.556,-0.125,-0.15
21:25:13.560,-0.12,-0.16
21:25:13.564,-0.14,-0.135
21:25:13.568,-0.105,-0.155
21:25:13.572,-0.09,-0.13
21:25:13.576,-0.095,-0.125
21:25:13.580,-0.055,-0.115
21:25:13.584,-0.01,-0.095
21:25:13.588,0.0,-0.085
21:25:13.592,0.02,-0.085
21:25:13.596,0.05,-0.075
21:25:13.600,0.06,-0.1
21:25:13.604,0.065,-0.125
21:25:13.608,0.055,-0.11
21:25:13.612,0.05,-0.12
21:25:13.616,0.03,-0.15
21:25:13.620,-0.01,-0.18
21:25:13.624,-0.07,-0.195
21:25:13.628,-0.14,-0.17
21:25:13.632,-0.175,-0.195
21:25:13.636,-0.215,-0.19
21:25:13.640,-0.275,-0.195
21:25:13.644,-0.31,-0.16
21:25:13.648,-0.33,-0.16
21:25:13.652,-0.32,-0.18
21:25:13.656,-0.345,-0.175
21:25:13.660,-0.33,-0.155
21:25:13.664,-0.305,-0.18
21:25:13.668,-0.3,-0.185
21:25:13.672,-0.305,-0.19
21:25:13.676,-0.32,-0.17
21:25:13.680,-0.32,-0.18
21:25:13.684,-0.305,-0.16
21:25:13.688,-0.305,-0.175
21:25:13.692,-0.305,-0.18
21:25:13.696,-0.3,-0.17
21:25:13.700,-0.31,-0.205
21:25:13.704,-0.315,-0.185
21:25:13.708,-0.305,-0.2
21:25:13.712,-0.305,-0.195
21:25:13.716,-0.315,-0.215
21:25:13.720,-0.31,-0.195
21:25:13.724,-0.32,-0.195
21:25:13.728,-0.315,-0.2
21:25:13.732,-0.315,-0.18
21:25:13.736,-0.315,-0.21
21:25:13.740,-0.305,-0.23
21:25:13.744,-0.295,-0.2
21:25:13.748,-0.275,-0.205
21:25:13.752,-0.26,-0.205
21:25:13.756,-0.225,-0.22
21:25:13.760,-0.16,-0.205
21:25:13.764,-0.08,-0.205
21:25:13.768,-0.015,-0.2
21:25:13.772,0.04,-0.24
21:25:13.776,0.105,-0.265
21:25:13.780,0.15,-0.3
21:25:13.784,0.17,-0.3
21:25:13.788,0.165,-0.315
21:25:13.792,0.16,-0.33
21:25:13.796,0.185,-0.415
21:25:13.800,0.34,-0.52
21:25:13.804,0.63,-0.71
21:25:13.808,0.92,-0.925
21:25:13.812,1.1,-1.175
21:25:13.816,0.98,-1.29
21:25:13.820,0.55,-1.22
21:25:13.824,0.115,-0.91
21:25:13.828,-0.185,-0.565
21:25:13.832,-0.325,-0.345
21:25:13.836,-0.355,-0.18
21:25:13.840,-0.37,-0.115
21:25:13.844,-0.37,-0.075
21:25:13.848,-0.38,-0.05
21:25:13.852,-0.405,-0.045
21:25:13.856,-0.4,-0.04
21:25:13.860,-0.405,-0.05
21:25:13.864,-0.4,-0.065
21:25:13.868,-0.395,-0.075
21:25:13.872,-0.415,-0.1
21:25:13.876,-0.42,-0.11
21:25:13.880,-0.425,-0.095
21:25:13.884,-0.43,-0.095
21:25:13.888,-0.42,-0.115
21:25:13.892,-0.395,-0.075
21:25:13.896,-0.41,-0.095
21:25:13.900,-0.41,-0.095
21:25:13.904,-0.415,-0.08
21:25:13.908,-0.4,-0.095
21:25:13.912,-0.38,-0.08
21:25:13.916,-0.44,-0.095
21:25:13.920,-0.445,-0.07
21:25:13.924,-0.425,-0.075
21:25:13.928,-0.45,-0.09
21:25:13.932,-0.44,-0.09
21:25:13.936,-0.44,-0.085
21:25:13.940,-0.46,-0.08
21:25:13.944,-0.46,-0.08
21:25:13.948,-0.48,-0.07
21:25:13.952,-0.485,-0.08
21:25:13.956,-0.495,-0.065
21:25:13.960,-0.485,-0.065
21:25:13.964,-0.48,-0.07
21:25:13.968,-0.51,-0.06
21:25:13.972,-0.5,-0.065
21:25:13.976,-0.475,-0.07
21:25:13.980,-0.48,-0.065
21:25:13.984,-0.49,-0.07
21:25:13.988,-0.485,-0.055
21:25:13.992,-0.465,-0.04
21:25:13.996,-0.455,-0.05
21:25:14.000,-0.455,-0.085
21:25:14.004,-0.425,-0.055
21:25:14.008,-0.42,-0.055
21:25:14.012,-0.39,-0.055
21:25:14.016,-0.4,-0.065
21:25:14.020,-0.4,-0.045
21:25:14.024,-0.395,-0.07
21:25:14.028,-0.37,-0.075
21:25:14.032,-0.365,-0.065
21:25:14.036,-0.36,-0.085
21:25:14.040,-0.34,-0.075
21:25:14.044,-0.3,-0.08
21:25:14.048,-0.31,-0.105
21:25:14.052,-0.285,-0.105
21:25:14.056,-0.3,-0.09
21:25:14.060,-0.285,-0.11
21:25:14.064,-0.28,-0.11
21:25:14.068,-0.265,-0.115
21:25:14.072,-0.265,-0.115
21:25:14.076,-0.26,-0.12
21:25:14.080,-0.24,-0.12
21:25:14.084,-0.22,-0.12
21:25:14.088,-0.24,-0.105
21:25:14.092,-0.23,-0.095
21:25:14.096,-0.23,-0.095
21:25:14.100,-0.22,-0.08
21:25:14.104,-0.21,-0.09
21:25:14.108,-0.2,-0.12
21:25:14.112,-0.19,-0.07
21:25:14.116,-0.18,-0.08
21:25:14.120,-0.165,-0.105
21:25:14.124,-0.175,-0.08
21:25:14.128,-0.175,-0.08
21:25:14.132,-0.155,-0.06
21:25:14.136,-0.165,-0.06
21:25:14.140,-0.18,-0.06
21:25:14.144,-0.185,-0.045
21:25:14.148,-0.185,-0.07
21:25:14.152,-0.195,-0.055
21:25:14.156,-0.185,-0.055
21:25:14.160,-0.19,-0.055
21:25:14.164,-0.205,-0.045
21:25:14.168,-0.215,-0.06
21:25:14.172,-0.22,-0.06
21:25:14.176,-0.23,-0.045
21:25:14.180,-0.225,-0.045
21:25:14.184,-0.23,-0.08
21:25:14.188,-0.225,-0.07
21:25:14.192,-0.21,-0.07
21:25:14.196,-0.19,-0.055
21:25:14.200,-0.195,-0.06
21:25:14.204,-0.16,-0.07
21:25:14.208,-0.175,-0.08
21:25:14.212,-0.17,-0.055
21:25:14.216,-0.14,-0.055
21:25:14.220,-0.105,-0.035
21:25:14.224,-0.055,-0.045
21:25:14.228,-0.01,-0.015
21:25:14.232,0.0,-0.035
21:25:14.236,0.04,-0.01
21:25:14.240,0.04,0.01
21:25:14.244,0.07,-0.005
21:25:14.248,0.09,0.02
21:25:14.252,0.075,0.005
21:25:14.256,0.04,-0.025
21:25:14.260,0.0,-0.05
21:25:14.264,-0.065,-0.04
21:25:14.268,-0.115,-0.08
21:25:14.272,-0.145,-0.09
21:25:14.276,-0.215,-0.07
21:25:14.280,-0.275,-0.08
21:25:14.284,-0.32,-0.065
21:25:14.288,-0.35,-0.055
21:25:14.292,-0.38,-0.05
21:25:14.296,-0.385,-0.06
21:25:14.300,-0.355,-0.075
21:25:14.304,-0.34,-0.08
21:25:14.308,-0.34,-0.065
21:25:14.312,-0.335,-0.07
21:25:14.316,-0.345,-0.06
21:25:14.320,-0.33,-0.065
21:25:14.324,-0.335,-0.075
21:25:14.328,-0.345,-0.04
21:25:14.332,-0.345,-0.015
21:25:14.336,-0.335,-0.045
21:25:14.340,-0.32,-0.05
21:25:14.344,-0.305,-0.03
21:25:14.348,-0.31,-0.03
21:25:14.352,-0.295,-0.03
21:25:14.356,-0.3,-0.035
21:25:14.360,-0.3,-0.02
21:25:14.364,-0.32,-0.02
21:25:14.368,-0.345,-0.03
21:25:14.372,-0.325,-0.02
21:25:14.376,-0.33,-0.025
21:25:14.380,-0.335,-0.01
21:25:14.384,-0.325,-0.025
21:25:14.388,-0.32,-0.02
21:25:14.392,-0.3,-0.025
21:25:14.396,-0.315,-0.035
21:25:14.400,-0.25,-0.035
21:25:14.404,-0.19,-0.035
21:25:14.408,-0.11,-0.05
21:25:14.412,-0.02,-0.04
21:25:14.416,0.045,-0.08
21:25:14.420,0.09,-0.125
21:25:14.424,0.135,-0.135
21:25:14.428,0.135,-0.15
21:25:14.432,0.115,-0.125
21:25:14.436,0.095,-0.195
21:25:14.440,0.165,-0.27
21:25:14.444,0.365,-0.405
21:25:14.448,0.655,-0.59
21:25:14.452,0.98,-0.84
21:25:14.456,1.075,-1.035
21:25:14.460,0.865,-1.155
21:25:14.464,0.44,-1.02
21:25:14.468,-0.01,-0.685
21:25:14.472,-0.24,-0.345
21:25:14.476,-0.34,-0.13
21:25:14.480,-0.38,0.0
21:25:14.484,-0.4,0.075
21:25:14.488,-0.425,0.14
21:25:14.492,-0.45,0.125
21:25:14.496,-0.485,0.155
21:25:14.500,-0.5,0.18
21:25:14.504,-0.505,0.175
21:25:14.508,-0.505,0.145
21:25:14.512,-0.525,0.14
21:25:14.516,-0.52,0.13
21:25:14.520,-0.505,0.14
21:25:14.524,-0.51,0.11
21:25:14.528,-0.535,0.115
21:25:14.532,-0.53,0.1
21:25:14.536,-0.505,0.105
21:25:14.540,-0.51,0.09
21:25:14.544,-0.525,0.085
21:25:14.548,-0.53,0.1
21:25:14.552,-0.525,0.085
21:25:14.556,-0.565,0.09
21:25:14.560,-0.565,0.08
21:25:14.564,-0.54,0.07
21:25:14.568,-0.555,0.075
21:25:14.572,-0.56,0.075
21:25:14.576,-0.54,0.065
21:25:14.580,-0.53,0.1
21:25:14.584,-0.555,0.09
21:25:14.588,-0.565,0.075
21:25:14.592,-0.575,0.095
21:25:14.596,-0.58,0.08
21:25:14.600,-0.59,0.085
21:25:14.604,-0.61,0.075
21:25:14.608,-0.595,0.075
21:25:14.612,-0.61,0.08
21:25:14.616,-0.61,0.075
21:25:14.620,-0.59,0.06
21:25:14.624,-0.61,0.055
21:25:14.628,-0.6,0.045
21:25:14.632,-0.605,0.075
21:25:14.636,-0.59,0.055
21:25:14.640,-0.58,0.06
21:25:14.644,-0.57,0.05
21:25:14.648,-0.575,0.02
21:25:14.652,-0.565,0.035
21:25:14.656,-0.55,0.035
21:25:14.660,-0.545,0.015
21:25:14.664,-0.535,0.03
21:25:14.668,-0.53,0.02
21:25:14.672,-0.525,0.0
21:25:14.676,-0.51,0.0
21:25:14.680,-0.49,0.005
21:25:14.684,-0.455,-0.005
21:25:14.688,-0.46,0.0
21:25:14.692,-0.435,-0.02
21:25:14.696,-0.425,-0.02
21:25:14.700,-0.425,-0.015
21:25:14.704,-0.395,-0.015
21:25:14.708,-0.4,-0.025
21:25:14.712,-0.38,-0.03
21:25:14.716,-0.38,-0.02
21:25:14.720,-0.37,-0.05
21:25:14.724,-0.37,-0.025
21:25:14.728,-0.365,-0.025
21:25:14.732,-0.37,-0.04
21:25:14.736,-0.375,-0.06
21:25:14.740,-0.38,-0.045
21:25:14.744,-0.38,-0.03
21:25:14.748,-0.355,-0.04
21:25:14.752,-0.35,-0.05
21:25:14.756,-0.35,-0.055
21:25:14.760,-0.35,-0.055
21:25:14.764,-0.355,-0.065
21:25:14.768,-0.345,-0.055
21:25:14.772,-0.345,-0.06
21:25:14.776,-0.355,-0.05
21:25:14.780,-0.355,-0.075
21:25:14.784,-0.365,-0.06
21:25:14.788,-0.34,-0.065
21:25:14.792,-0.34,-0.035
21:25:14.796,-0.325,-0.045
21:25:14.800,-0.315,-0.06
21:25:14.804,-0.34,-0.05
21:25:14.808,-0.335,-0.05
21:25:14.812,-0.35,-0.06
21:25:14.816,-0.33,-0.05
21:25:14.820,-0.35,-0.08
21:25:14.824,-0.355,-0.035
21:25:14.828,-0.355,-0.075
21:25:14.832,-0.35,-0.055
21:25:14.836,-0.335,-0.07
21:25:14.840,-0.355,-0.09
21:25:14.844,-0.32,-0.055
21:25:14.848,-0.31,-0.08
21:25:14.852,-0.295,-0.09
21:25:14.856,-0.32,-0.09
21:25:14.860,-0.33,-0.085
21:25:14.864,-0.305,-0.085
21:25:14.868,-0.275,-0.07
21:25:14.872,-0.23,-0.065
21:25:14.876,-0.18,-0.05
21:25:14.880,-0.16,-0.065
21:25:14.884,-0.12,-0.02
21:25:14.888,-0.095,-0.025
21:25:14.892,-0.06,-0.025
21:25:14.896,-0.035,-0.015
21:25:14.900,-0.045,-0.035
21:25:14.904,-0.05,-0.065
21:25:14.908,-0.1,-0.05
21:25:14.912,-0.145,-0.11
21:25:14.916,-0.195,-0.135
21:25:14.920,-0.265,-0.125
21:25:14.924,-0.335,-0.12
21:25:14.928,-0.385,-0.14
21:25:14.932,-0.415,-0.125
21:25:14.936,-0.46,-0.115
21:25:14.940,-0.475,-0.11
21:25:14.944,-0.475,-0.09
21:25:14.948,-0.46,-0.125
21:25:14.952,-0.46,-0.125
21:25:14.956,-0.465,-0.145
21:25:14.960,-0.46,-0.14
21:25:14.964,-0.475,-0.15
21:25:14.968,-0.45,-0.15
21:25:14.972,-0.45,-0.14
21:25:14.976,-0.47,-0.155
21:25:14.980,-0.435,-0.17
21:25:14.984,-0.425,-0.15
21:25:14.988,-0.435,-0.145
21:25:14.992,-0.44,-0.15
21:25:14.996,-0.425,-0.16
21:25:15.000,-0.415,-0.145
21:25:15.004,-0.42,-0.15
21:25:15.008,-0.42,-0.14
21:25:15.012,-0.41,-0.13
21:25:15.016,-0.41,-0.145
21:25:15.020,-0.395,-0.135
21:25:15.024,-0.385,-0.15
21:25:15.028,-0.385,-0.13
21:25:15.032,-0.375,-0.12
21:25:15.036,-0.37,-0.125
21:25:15.040,-0.365,-0.11
21:25:15.044,-0.31,-0.13
21:25:15.048,-0.275,-0.095
21:25:15.052,-0.22,-0.12
21:25:15.056,-0.11,-0.13
21:25:15.060,-0.02,-0.14
21:25:15.064,0.065,-0.155
21:25:15.068,0.115,-0.2
21:25:15.072,0.15,-0.22
21:25:15.076,0.19,-0.22
21:25:15.080,0.2,-0.22
21:25:15.084,0.19,-0.255
21:25:15.088,0.24,-0.315
21:25:15.092,0.415,-0.425
21:25:15.096,0.705,-0.585
21:25:15.100,1.0,-0.83
21:25:15.104,1.1,-1.03
21:25:15.108,0.885,-1.15
21:25:15.112,0.425,-1.04
21:25:15.116,-0.005,-0.74
21:25:15.120,-0.22,-0.415
21:25:15.124,-0.3,-0.245
21:25:15.128,-0.34,-0.125
21:25:15.132,-0.36,-0.02
21:25:15.136,-0.37,0.03
21:25:15.140,-0.4,0.05
21:25:15.144,-0.42,0.06
21:25:15.148,-0.425,0.065
21:25:15.152,-0.435,0.065
21:25:15.156,-0.435,0.045
21:25:15.160,-0.41,0.025
21:25:15.164,-0.425,0.015
21:25:15.168,-0.425,-0.005
21:25:15.172,-0.445,0.0
21:25:15.176,-0.43,0.005
21:25:15.180,-0.435,0.035
21:25:15.184,-0.455,0.01
21:25:15.188,-0.445,0.02
21:25:15.192,-0.455,0.005
21:25:15.196,-0.475,0.01
21:25:15.200,-0.48,-0.015
21:25:15.204,-0.485,-0.01
21:25:15.208,-0.48,-0.035
21:25:15.212,-0.48,-0.03
21:25:15.216,-0.48,-0.04
21:25:15.220,-0.495,-0.025
21:25:15.224,-0.49,-0.03
21:25:15.228,-0.475,-0.03
21:25:15.232,-0.485,-0.035
21:25:15.236,-0.525,-0.01
21:25:15.240,-0.49,-0.01
21:25:15.244,-0.49,-0.01
21:25:15.248,-0.495,0.0
21:25:15.252,-0.49,0.0
21:25:15.256,-0.495,-0.005
21:25:15.260,-0.49,0.0
21:25:15.264,-0.485,0.0
21:25:15.268,-0.48,0.0
21:25:15.272,-0.475,0.01
21:25:15.276,-0.475,0.0
21:25:15.280,-0.49,0.01
21:25:15.284,-0.47,0.0
21:25:15.288,-0.46,-0.01
21:25:15.292,-0.465,0.0
21:25:15.296,-0.465,0.0
21:25:15.300,-0.45,-0.01
21:25:15.304,-0.43,-0.02
21:25:15.308,-0.425,-0.015
21:25:15.312,-0.415,-0.02
21:25:15.316,-0.39,-0.035
21:25:15.320,-0.375,-0.05
21:25:15.324,-0.36,-0.045
21:25:15.328,-0.36,-0.08
21:25:15.332,-0.34,-0.08
21:25:15.336,-0.34,-0.085
21:25:15.340,-0.315,-0.075
21:25:15.344,-0.3,-0.085
21:25:15.348,-0.29,-0.105
21:25:15.352,-0.265,-0.08
21:25:15.356,-0.245,-0.09
21:25:15.360,-0.235,-0.085
21:25:15.364,-0.225,-0.085
21:25:15.368,-0.21,-0.105
21:25:15.372,-0.21,-0.075
21:25:15.376,-0.215,-0.075
21:25:15.380,-0.205,-0.075
21:25:15.384,-0.22,-0.08
21:25:15.388,-0.2,-0.05
21:25:15.392,-0.2,-0.055
21:25:15.396,-0.205,-0.095
21:25:15.400,-0.195,-0.06
21:25:15.404,-0.21,-0.08
21:25:15.408,-0.21,-0.06
21:25:15.412,-0.22,-0.06
21:25:15.416,-0.215,-0.055
21:25:15.420,-0.22,-0.055
21:25:15.424,-0.215,-0.075
21:25:15.428,-0.205,-0.07
21:25:15.432,-0.205,-0.08
21:25:15.436,-0.21,-0.06
21:25:15.440,-0.22,-0.065
21:25:15.444,-0.225,-0.07
21:25:15.448,-0.22,-0.065
21:25:15.452,-0.215,-0.055
21:25:15.456,-0.2,-0.045
21:25:15.460,-0.2,-0.035
21:25:15.464,-0.21,-0.03
21:25:15.468,-0.205,-0.05
21:25:15.472,-0.195,-0.02
21:25:15.476,-0.165,-0.02
21:25:15.480,-0.17,-0.02
21:25:15.484,-0.15,-0.035
21:25:15.488,-0.155,-0.02
21:25:15.492,-0.135,-0.02
21:25:15.496,-0.115,-0.015
21:25:15.500,-0.075,0.0
21:25:15.504,-0.03,0.0
21:25:15.508,-0.035,0.015
21:25:15.512,0.0,0.02
21:25:15.516,0.015,0.015
21:25:15.520,0.04,0.0
21:25:15.524,0.06,0.005
21:25:15.528,0.04,0.02
21:25:15.532,0.04,-0.01
21:25:15.536,0.005,-0.03
21:25:15.540,-0.015,-0.055
21:25:15.544,-0.07,-0.09
21:25:15.548,-0.12,-0.075
21:25:15.552,-0.21,-0.08
21:25:15.556,-0.26,-0.075
21:25:15.560,-0.31,-0.08
21:25:15.564,-0.33,-0.055
21:25:15.568,-0.36,-0.04
21:25:15.572,-0.375,-0.03
21:25:15.576,-0.37,-0.05
21:25:15.580,-0.375,-0.04
21:25:15.584,-0.355,-0.04
21:25:15.588,-0.34,-0.085
21:25:15.592,-0.345,-0.075
21:25:15.596,-0.345,-0.085
21:25:15.600,-0.34,-0.09
21:25:15.604,-0.365,-0.085
21:25:15.608,-0.345,-0.08
21:25:15.612,-0.355,-0.07
21:25:15.616,-0.35,-0.08
21:25:15.620,-0.335,-0.085
21:25:15.624,-0.37,-0.09
21:25:15.628,-0.36,-0.085
21:25:15.632,-0.35,-0.11
21:25:15.636,-0.35,-0.09
21:25:15.640,-0.36,-0.09
21:25:15.644,-0.375,-0.09
21:25:15.648,-0.365,-0.08
21:25:15.652,-0.34,-0.09
21:25:15.656,-0.34,-0.11
21:25:15.660,-0.335,-0.115
21:25:15.664,-0.315,-0.12
21:25:15.668,-0.32,-0.1
21:25:15.672,-0.305,-0.09
21:25:15.676,-0.255,-0.09
21:25:15.680,-0.175,-0.115
21:25:15.684,-0.11,-0.11
21:25:15.688,-0.02,-0.11
21:25:15.692,0.05,-0.12
21:25:15.696,0.105,-0.18
21:25:15.700,0.12,-0.21
21:25:15.704,0.125,-0.215
21:25:15.708,0.125,-0.22
21:25:15.712,0.13,-0.235
21:25:15.716,0.165,-0.335
21:25:15.720,0.345,-0.465
21:25:15.724,0.655,-0.64
21:25:15.728,0.955,-0.885
21:25:15.732,1.08,-1.075
21:25:15.736,0.905,-1.215
21:25:15.740,0.475,-1.115
21:25:15.744,0.015,-0.765
21:25:15.748,-0.255,-0.455
21:25:15.752,-0.365,-0.22
21:25:15.756,-0.405,-0.08
21:25:15.760,-0.385,0.005
21:25:15.764,-0.42,0.035
21:25:15.768,-0.42,0.05
21:25:15.772,-0.445,0.045
21:25:15.776,-0.455,0.05
21:25:15.780,-0.44,0.045
21:25:15.784,-0.44,0.035
21:25:15.788,-0.45,0.02
21:25:15.792,-0.445,0.015
21:25:15.796,-0.435,0.0
21:25:15.800,-0.45,-0.005
21:25:15.804,-0.425,0.0
21:25:15.808,-0.425,0.02
21:25:15.812,-0.425,0.01
21:25:15.816,-0.43,0.005
21:25:15.820,-0.43,0.02
21:25:15.824,-0.425,0.015
21:25:15.828,-0.43,0.035
21:25:15.832,-0.465,0.01
21:25:15.836,-0.455,0.03
21:25:15.840,-0.455,0.005
21:25:15.844,-0.45,0.01
21:25:15.848,-0.485,0.015
21:25:15.852,-0.48,0.025
21:25:15.856,-0.48,0.01
21:25:15.860,-0.505,0.0
21:25:15.864,-0.515,0.005
21:25:15.868,-0.505,0.025
21:25:15.872,-0.515,-0.005
21:25:15.876,-0.535,-0.01
21:25:15.880,-0.53,0.0
21:25:15.884,-0.535,0.005
21:25:15.888,-0.53,0.02
21:25:15.892,-0.51,0.025
21:25:15.896,-0.525,0.01
21:25:15.900,-0.515,0.015
21:25:15.904,-0.51,0.02
21:25:15.908,-0.495,0.015
21:25:15.912,-0.475,0.03
21:25:15.916,-0.47,0.01
21:25:15.920,-0.465,0.02
21:25:15.924,-0.455,0.015
21:25:15.928,-0.45,0.015
21:25:15.932,-0.435,0.025
21:25:15.936,-0.42,-0.01
21:25:15.940,-0.405,0.005
21:25:15.944,-0.395,-0.015
21:25:15.948,-0.4,-0.03
21:25:15.952,-0.385,-0.01
21:25:15.956,-0.375,-0.005
21:25:15.960,-0.36,-0.01
21:25:15.964,-0.36,-0.03
21:25:15.968,-0.36,-0.035
21:25:15.972,-0.33,-0.015
21:25:15.976,-0.33,-0.055
21:25:15.980,-0.34,-0.07
21:25:15.984,-0.32,-0.08
21:25:15.988,-0.295,-0.05
21:25:15.992,-0.275,-0.06
21:25:15.996,-0.27,-0.065
21:25:16.000,-0.29,-0.05
21:25:16.004,-0.265,-0.055
21:25:16.008,-0.265,-0.03
21:25:16.012,-0.265,-0.035
21:25:16.016,-0.25,-0.03
21:25:16.020,-0.225,-0.03
21:25:16.024,-0.22,-0.045
21:25:16.028,-0.205,-0.01
21:25:16.032,-0.22,-0.01
21:25:16.036,-0.23,-0.02
21:25:16.040,-0.2,-0.005
21:25:16.044,-0.205,-0.01
21:25:16.048,-0.21,0.015
21:25:16.052,-0.205,0.005
21:25:16.056,-0.19,0.02
21:25:16.060,-0.225,0.025
21:25:16.064,-0.23,0.035
21:25:16.068,-0.225,0.025
21:25:16.072,-0.21,0.025
21:25:16.076,-0.24,0.02
21:25:16.080,-0.23,0.03
21:25:16.084,-0.24,0.02
21:25:16.088,-0.23,0.01
21:25:16.092,-0.23,0.025
21:25:16.096,-0.245,0.03
21:25:16.100,-0.2,0.035
21:25:16.104,-0.19,0.03
21:25:16.108,-0.19,0.045
21:25:16.112,-0.17,0.015
21:25:16.116,-0.175,0.025
21:25:16.120,-0.13,0.055
21:25:16.124,-0.12,0.045
21:25:16.128,-0.07,0.07
21:25:16.132,-0.015,0.055
21:25:16.136,0.015,0.085
21:25:16.140,0.015,0.075
21:25:16.144,0.04,0.095
21:25:16.148,0.065,0.12
21:25:16.152,0.065,0.105
21:25:16.156,0.075,0.075
21:25:16.160,0.045,0.055
21:25:16.164,0.005,0.045
21:25:16.168,-0.04,0.025
21:25:16.172,-0.095,0.005
21:25:16.176,-0.16,0.02
21:25:16.180,-0.215,0.01
21:25:16.184,-0.25,0.0
21:25:16.188,-0.295,0.02
21:25:16.192,-0.315,0.03
21:25:16.196,-0.355,0.04
21:25:16.200,-0.33,0.015
21:25:16.204,-0.345,0.005
21:25:16.208,-0.33,0.005
21:25:16.212,-0.345,-0.01
21:25:16.216,-0.33,-0.005
21:25:16.220,-0.32,-0.03
21:25:16.224,-0.345,-0.015
21:25:16.228,-0.345,-0.025
21:25:16.232,-0.32,-0.005
21:25:16.236,-0.335,-0.015
21:25:16.240,-0.315,-0.025
21:25:16.244,-0.305,-0.01
21:25:16.248,-0.295,-0.005
21:25:16.252,-0.29,-0.025
21:25:16.256,-0.295,-0.04
21:25:16.260,-0.285,-0.015
21:25:16.264,-0.29,-0.015
21:25:16.268,-0.265,-0.03
21:25:16.272,-0.29,0.0
21:25:16.276,-0.3,-0.005
21:25:16.280,-0.295,-0.015
21:25:16.284,-0.275,-0.01
21:25:16.288,-0.3,-0.02
21:25:16.292,-0.28,-0.025
21:25:16.296,-0.26,-0.025
21:25:16.300,-0.24,0.0
21:25:16.304,-0.2,-0.01
21:25:16.308,-0.12,-0.01
21:25:16.312,-0.015,-0.035
21:25:16.316,0.055,-0.045
21:25:16.320,0.085,-0.085
21:25:16.324,0.13,-0.135
21:25:16.328,0.14,-0.175
21:25:16.332,0.15,-0.16
21:25:16.336,0.125,-0.17
21:25:16.340,0.13,-0.245
21:25:16.344,0.28,-0.35
21:25:16.348,0.565,-0.515
21:25:16.352,0.88,-0.735
21:25:16.356,1.09,-0.97
21:25:16.360,1.025,-1.115
21:25:16.364,0.7,-1.085
21:25:16.368,0.22,-0.83
21:25:16.372,-0.125,-0.455
21:25:16.376,-0.275,-0.195
21:25:16.380,-0.32,-0.055
21:25:16.384,-0.33,0.045
21:25:16.388,-0.36,0.09
21:25:16.392,-0.38,0.12
21:25:16.396,-0.405,0.115
21:25:16.400,-0.395,0.11
21:25:16.404,-0.42,0.12
21:25:16.408,-0.41,0.095
21:25:16.412,-0.415,0.095
21:25:16.416,-0.415,0.095
21:25:16.420,-0.43,0.075
21:25:16.424,-0.435,0.06
21:25:16.428,-0.42,0.055
21:25:16.432,-0.415,0.035
21:25:16.436,-0.42,0.045
21:25:16.440,-0.43,0.065
21:25:16.444,-0.43,0.05
21:25:16.448,-0.42,0.03
21:25:16.452,-0.435,0.035
21:25:16.456,-0.44,0.035
21:25:16.460,-0.425,0.04
21:25:16.464,-0.45,0.035
21:25:16.468,-0.44,0.03
21:25:16.472,-0.435,0.02
21:25:16.476,-0.44,0.05
21:25:16.480,-0.43,0.035
21:25:16.484,-0.44,0.03
21:25:16.488,-0.45,0.055
21:25:16.492,-0.455,0.035
21:25:16.496,-0.46,0.035
21:25:16.500,-0.48,0.035
21:25:16.504,-0.47,0.06
21:25:16.508,-0.475,0.06
21:25:16.512,-0.47,0.05
21:25:16.516,-0.49,0.055
21:25:16.520,-0.49,0.04
21:25:16.524,-0.5,0.05
21:25:16.528,-0.49,0.07
21:25:16.532,-0.505,0.07
21:25:16.536,-0.49,0.045
21:25:16.540,-0.48,0.035
21:25:16.544,-0.46,0.055
21:25:16.548,-0.455,0.035
21:25:16.552,-0.455,0.02
21:25:16.556,-0.44,0.015
21:25:16.560,-0.435,0.03
21:25:16.564,-0.415,0.02
21:25:16.568,-0.42,0.035
21:25:16.572,-0.425,-0.005
21:25:16.576,-0.395,0.0
21:25:16.580,-0.37,0.0
21:25:16.584,-0.355,0.0
21:25:16.588,-0.35,0.005
21:25:16.592,-0.33,-0.025
21:25:16.596,-0.335,-0.005
21:25:16.600,-0.305,-0.005
21:25:16.604,-0.32,0.01
21:25:16.608,-0.27,-0.005
21:25:16.612,-0.29,-0.01
21:25:16.616,-0.285,0.0
21:25:16.620,-0.28,0.0
21:25:16.624,-0.265,-0.015
21:25:16.628,-0.255,0.0
21:25:16.632,-0.24,0.01
21:25:16.636,-0.265,-0.015
21:25:16.640,-0.25,0.01
21:25:16.644,-0.24,-0.01
21:25:16.648,-0.27,0.005
21:25:16.652,-0.265,-0.015
21:25:16.656,-0.24,0.0
21:25:16.660,-0.25,0.005
21:25:16.664,-0.26,0.0
21:25:16.668,-0.25,0.0
21:25:16.672,-0.245,0.005
21:25:16.676,-0.255,-0.005
21:25:16.680,-0.255,0.0
21:25:16.684,-0.265,0.005
21:25:16.688,-0.255,0.025
21:25:16.692,-0.235,0.015
21:25:16.696,-0.265,0.035
21:25:16.700,-0.255,0.03
21:25:16.704,-0.245,0.03
21:25:16.708,-0.255,0.02
21:25:16.712,-0.265,0.045
21:25:16.716,-0.275,0.045
21:25:16.720,-0.255,0.035
21:25:16.724,-0.26,0.025
21:25:16.728,-0.27,0.035
21:25:16.732,-0.26,0.03
21:25:16.736,-0.215,0.04
21:25:16.740,-0.195,0.055
21:25:16.744,-0.22,0.05
21:25:16.748,-0.23,0.015
21:25:16.752,-0.22,0.015
21:25:16.756,-0.205,0.055
21:25:16.760,-0.16,0.045
21:25:16.764,-0.13,0.05
21:25:16.768,-0.08,0.075
21:25:16.772,-0.04,0.075
21:25:16.776,-0.045,0.065
21:25:16.780,-0.03,0.07
21:25:16.784,0.0,0.105
21:25:16.788,0.015,0.08
21:25:16.792,0.005,0.08
21:25:16.796,-0.02,0.08
21:25:16.800,-0.045,0.04
21:25:16.804,-0.09,0.025
21:25:16.808,-0.13,0.005
21:25:16.812,-0.19,0.01
21:25:16.816,-0.265,0.02
21:25:16.820,-0.295,0.005
21:25:16.824,-0.33,0.035
21:25:16.828,-0.36,0.055
21:25:16.832,-0.39,0.075
21:25:16.836,-0.37,0.065
21:25:16.840,-0.385,0.065
21:25:16.844,-0.38,0.055
21:25:16.848,-0.38,0.045
21:25:16.852,-0.365,0.035
21:25:16.856,-0.37,0.01
21:25:16.860,-0.385,0.015
21:25:16.864,-0.375,0.025
21:25:16.868,-0.38,0.04
21:25:16.872,-0.385,0.025
21:25:16.876,-0.39,0.02
21:25:16.880,-0.395,0.01
21:25:16.884,-0.375,0.015
21:25:16.888,-0.38,0.005
21:25:16.892,-0.38,0.01
21:25:16.896,-0.365,0.02
21:25:16.900,-0.35,0.005
21:25:16.904,-0.35,0.0
21:25:16.908,-0.365,0.03
21:25:16.912,-0.37,0.02
21:25:16.916,-0.365,0.005
21:25:16.920,-0.34,0.015
21:25:16.924,-0.365,0.015
21:25:16.928,-0.35,0.045
21:25:16.932,-0.325,0.015
21:25:16.936,-0.295,0.025
21:25:16.940,-0.245,0.015
21:25:16.944,-0.18,0.01
21:25:16.948,-0.1,0.025
21:25:16.952,-0.005,0.015
21:25:16.956,0.045,-0.015
21:25:16.960,0.07,-0.03
21:25:16.964,0.11,-0.07
21:25:16.968,0.105,-0.085
21:25:16.972,0.095,-0.085
21:25:16.976,0.07,-0.16
21:25:16.980,0.155,-0.245
21:25:16.984,0.4,-0.385
21:25:16.988,0.73,-0.6
21:25:16.992,0.95,-0.84
21:25:16.996,0.985,-1.03
21:25:17.000,0.735,-1.075
21:25:17.004,0.255,-0.86
21:25:17.008,-0.145,-0.475
21:25:17.012,-0.34,-0.18
21:25:17.016,-0.41,0.01
21:25:17.020,-0.44,0.1
21:25:17.024,-0.465,0.165
21:25:17.028,-0.46,0.22
21:25:17.032,-0.465,0.235
21:25:17.036,-0.485,0.23
21:25:17.040,-0.485,0.245
21:25:17.044,-0.48,0.21
21:25:17.048,-0.485,0.195
21:25:17.052,-0.48,0.185
21:25:17.056,-0.5,0.2
21:25:17.060,-0.49,0.175
21:25:17.064,-0.5,0.18
21:25:17.068,-0.495,0.19
21:25:17.072,-0.505,0.175
21:25:17.076,-0.505,0.19
21:25:17.080,-0.525,0.185
21:25:17.084,-0.515,0.18
21:25:17.088,-0.52,0.2
21:25:17.092,-0.54,0.19
21:25:17.096,-0.535,0.195
21:25:17.100,-0.52,0.185
21:25:17.104,-0.545,0.18
21:25:17.108,-0.54,0.17
21:25:17.112,-0.555,0.18
21:25:17.116,-0.57,0.185
21:25:17.120,-0.56,0.175
21:25:17.124,-0.57,0.19
21:25:17.128,-0.57,0.165
21:25:17.132,-0.555,0.185
21:25:17.136,-0.565,0.195
21:25:17.140,-0.56,0.17
21:25:17.144,-0.565,0.155
21:25:17.148,-0.545,0.16
21:25:17.152,-0.565,0.19
21:25:17.156,-0.56,0.18
21:25:17.160,-0.55,0.2
21:25:17.164,-0.55,0.185
21:25:17.168,-0.535,0.18
21:25:17.172,-0.53,0.175
21:25:17.176,-0.545,0.18
21:25:17.180,-0.535,0.17
21:25:17.184,-0.55,0.155
21:25:17.188,-0.545,0.15
21:25:17.192,-0.525,0.155
21:25:17.196,-0.515,0.155
21:25:17.200,-0.51,0.14
21:25:17.204,-0.51,0.135
21:25:17.208,-0.495,0.115
21:25:17.212,-0.47,0.115
21:25:17.216,-0.47,0.11
21:25:17.220,-0.46,0.075
21:25:17.224,-0.455,0.09
21:25:17.228,-0.435,0.07
21:25:17.232,-0.435,0.06
21:25:17.236,-0.405,0.07
21:25:17.240,-0.4,0.055
21:25:17.244,-0.38,0.065
21:25:17.248,-0.345,0.075
21:25:17.252,-0.365,0.065
21:25:17.256,-0.345,0.065
21:25:17.260,-0.325,0.055
21:25:17.264,-0.32,0.065
21:25:17.268,-0.3,0.06
21:25:17.272,-0.295,0.055
21:25:17.276,-0.29,0.05
21:25:17.280,-0.31,0.035
21:25:17.284,-0.32,0.055
21:25:17.288,-0.31,0.07
21:25:17.292,-0.295,0.04
21:25:17.296,-0.305,0.04
21:25:17.300,-0.31,0.05
21:25:17.304,-0.315,0.045
21:25:17.308,-0.315,0.055
21:25:17.312,-0.335,0.06
21:25:17.316,-0.335,0.05
21:25:17.320,-0.335,0.06
21:25:17.324,-0.32,0.06
21:25:17.328,-0.33,0.05
21:25:17.332,-0.335,0.04
21:25:17.336,-0.335,0.045
21:25:17.340,-0.325,0.065
21:25:17.344,-0.335,0.03
21:25:17.348,-0.33,0.03
21:25:17.352,-0.34,0.05
21:25:17.356,-0.35,0.035
21:25:17.360,-0.32,0.03
21:25:17.364,-0.32,0.01
21:25:17.368,-0.315,0.035
21:25:17.372,-0.33,0.01
21:25:17.376,-0.305,0.015
21:25:17.380,-0.285,0.01
21:25:17.384,-0.28,0.025
21:25:17.388,-0.28,0.02
21:25:17.392,-0.29,0.03
21:25:17.396,-0.255,0.015
21:25:17.400,-0.21,0.035
21:25:17.404,-0.185,0.03
21:25:17.408,-0.135,0.03
21:25:17.412,-0.145,0.02
21:25:17.416,-0.12,0.04
21:25:17.420,-0.09,0.04
21:25:17.424,-0.05,0.03
21:25:17.428,-0.035,0.075
21:25:17.432,-0.035,0.075
21:25:17.436,-0.025,0.045
21:25:17.440,-0.065,0.015
21:25:17.444,-0.1,-0.005
21:25:17.448,-0.17,-0.035
21:25:17.452,-0.22,-0.03
21:25:17.456,-0.27,-0.045
21:25:17.460,-0.34,-0.04
21:25:17.464,-0.38,-0.03
21:25:17.468,-0.435,-0.03
21:25:17.472,-0.435,0.0
21:25:17.476,-0.44,-0.005
21:25:17.480,-0.44,-0.005
21:25:17.484,-0.43,-0.025
21:25:17.488,-0.425,-0.015
21:25:17.492,-0.42,-0.035
21:25:17.496,-0.415,-0.035
21:25:17.500,-0.41,-0.02
21:25:17.504,-0.415,-0.02
21:25:17.508,-0.4,-0.025
21:25:17.512,-0.415,-0.02
21:25:17.516,-0.42,-0.025
21:25:17.520,-0.4,-0.045
21:25:17.524,-0.405,-0.045
21:25:17.528,-0.4,-0.03
21:25:17.532,-0.445,-0.05
21:25:17.536,-0.42,-0.055
21:25:17.540,-0.41,-0.06
21:25:17.544,-0.415,-0.07
21:25:17.548,-0.42,-0.06
21:25:17.552,-0.42,-0.065
21:25:17.556,-0.415,-0.065
21:25:17.560,-0.41,-0.07
21:25:17.564,-0.425,-0.06
21:25:17.568,-0.43,-0.075
21:25:17.572,-0.39,-0.08
21:25:17.576,-0.38,-0.075
21:25:17.580,-0.355,-0.07
21:25:17.584,-0.295,-0.085
21:25:17.588,-0.195,-0.095
21:25:17.592,-0.105,-0.105
21:25:17.596,-0.03,-0.11
21:25:17.600,0.045,-0.125
21:25:17.604,0.125,-0.185
21:25:17.608,0.17,-0.225
21:25:17.612,0.205,-0.21
21:25:17.616,0.18,-0.2
21:25:17.620,0.18,-0.245
21:25:17.624,0.275,-0.32
21:25:17.628,0.52,-0.465
21:25:17.632,0.825,-0.68
21:25:17.636,1.03,-0.895
21:25:17.640,0.98,-1.07
21:25:17.644,0.605,-1.085
21:25:17.648,0.11,-0.845
21:25:17.652,-0.205,-0.545
21:25:17.656,-0.335,-0.33
21:25:17.660,-0.41,-0.185
21:25:17.664,-0.43,-0.07
21:25:17.668,-0.43,0.005
21:25:17.672,-0.44,0.035
21:25:17.676,-0.5,0.05
21:25:17.680,-0.515,0.08
21:25:17.684,-0.51,0.035
21:25:17.688,-0.525,0.03
21:25:17.692,-0.53,0.01
21:25:17.696,-0.515,0.005
21:25:17.700,-0.51,-0.015
21:25:17.704,-0.505,-0.005
21:25:17.708,-0.505,0.005
21:25:17.712,-0.52,0.01
21:25:17.716,-0.5,-0.005
21:25:17.720,-0.5,-0.005
21:25:17.724,-0.51,0.025
21:25:17.728,-0.53,0.01
21:25:17.732,-0.515,0.005
21:25:17.736,-0.52,-0.005
21:25:17.740,-0.5,0.005
21:25:17.744,-0.525,-0.005
21:25:17.748,-0.525,0.025
21:25:17.752,-0.545,0.03
21:25:17.756,-0.545,0.025
21:25:17.760,-0.545,0.02
21:25:17.764,-0.57,0.02
21:25:17.768,-0.55,0.02
21:25:17.772,-0.565,0.01
21:25:17.776,-0.555,0.01
21:25:17.780,-0.57,0.0
21:25:17.784,-0.58,0.0
21:25:17.788,-0.565,0.045
21:25:17.792,-0.58,0.025
21:25:17.796,-0.6,0.015
21:25:17.800,-0.575,0.015
21:25:17.804,-0.58,0.015
21:25:17.808,-0.57,0.01
21:25:17.812,-0.57,0.015
21:25:17.816,-0.545,0.01
21:25:17.820,-0.53,0.005
21:25:17.824,-0.54,0.0
21:25:17.828,-0.525,0.015
21:25:17.832,-0.535,0.005
21:25:17.836,-0.51,0.015
21:25:17.840,-0.48,0.025
21:25:17.844,-0.495,0.015
21:25:17.848,-0.47,0.0
21:25:17.852,-0.45,-0.005
21:25:17.856,-0.445,-0.025
21:25:17.860,-0.44,-0.03
21:25:17.864,-0.45,-0.04
21:25:17.868,-0.425,-0.04
21:25:17.872,-0.42,-0.035
21:25:17.876,-0.405,-0.06
21:25:17.880,-0.405,-0.05
21:25:17.884,-0.385,-0.06
21:25:17.888,-0.38,-0.07
21:25:17.892,-0.375,-0.075
21:25:17.896,-0.36,-0.07
21:25:17.900,-0.335,-0.08
21:25:17.904,-0.345,-0.08
21:25:17.908,-0.335,-0.08
21:25:17.912,-0.34,-0.055
21:25:17.916,-0.315,-0.04
