Time,ECG1,ECG2
21:49:29.276,-0.205,-0.025
21:49:29.280,-0.175,-0.045
21:49:29.284,-0.205,-0.065
21:49:29.288,-0.18,-0.06
21:49:29.292,-0.205,-0.05
21:49:29.296,-0.205,-0.065
21:49:29.300,-0.215,-0.055
21:49:29.304,-0.205,-0.055
21:49:29.308,-0.18,-0.05
21:49:29.312,-0.195,-0.045
21:49:29.316,-0.195,-0.04
21:49:29.320,-0.205,-0.05
21:49:29.324,-0.19,-0.065
21:49:29.328,-0.18,-0.06
21:49:29.332,-0.175,-0.035
21:49:29.336,-0.17,-0.02
21:49:29.340,-0.175,-0.06
21:49:29.344,-0.175,-0.06
21:49:29.348,-0.175,-0.065
21:49:29.352,-0.17,-0.05
21:49:29.356,-0.18,-0.03
21:49:29.360,-0.175,-0.035
21:49:29.364,-0.195,-0.04
21:49:29.368,-0.205,-0.04
21:49:29.372,-0.2,-0.04
21:49:29.376,-0.21,-0.055
21:49:29.380,-0.22,-0.04
21:49:29.384,-0.195,-0.035
21:49:29.388,-0.19,-0.045
21:49:29.392,-0.195,-0.055
21:49:29.396,-0.17,-0.065
21:49:29.400,-0.18,-0.05
21:49:29.404,-0.195,-0.06
21:49:29.408,-0.185,-0.08
21:49:29.412,-0.17,-0.06
21:49:29.416,-0.15,-0.055
21:49:29.420,-0.135,-0.05
21:49:29.424,-0.1,-0.07
21:49:29.428,-0.075,-0.045
21:49:29.432,-0.07,-0.05
21:49:29.436,-0.04,-0.04
21:49:29.440,-0.015,-0.03
21:49:29.444,0.0,-0.01
21:49:29.448,0.02,0.005
21:49:29.452,0.035,0.005
21:49:29.456,0.035,-0.02
21:49:29.460,0.035,-0.045
21:49:29.464,0.03,-0.05
21:49:29.468,0.005,-0.075
21:49:29.472,-0.015,-0.08
21:49:29.476,-0.09,-0.1
21:49:29.480,-0.17,-0.105
21:49:29.484,-0.175,-0.115
21:49:29.488,-0.23,-0.085
21:49:29.492,-0.275,-0.105
21:49:29.496,-0.28,-0.09
21:49:29.500,-0.295,-0.07
21:49:29.504,-0.29,-0.06
21:49:29.508,-0.3,-0.075
21:49:29.512,-0.285,-0.085
21:49:29.516,-0.29,-0.055
21:49:29.520,-0.29,-0.075
21:49:29.524,-0.265,-0.1
21:49:29.528,-0.275,-0.095
21:49:29.532,-0.27,-0.095
21:49:29.536,-0.26,-0.07
21:49:29.540,-0.245,-0.085
21:49:29.544,-0.22,-0.075
21:49:29.548,-0.235,-0.09
21:49:29.552,-0.235,-0.075
21:49:29.556,-0.23,-0.09
21:49:29.560,-0.225,-0.065
21:49:29.564,-0.25,-0.085
21:49:29.568,-0.245,-0.065
21:49:29.572,-0.22,-0.075
21:49:29.576,-0.23,-0.095
21:49:29.580,-0.235,-0.07
21:49:29.584,-0.25,-0.09
21:49:29.588,-0.24,-0.095
21:49:29.592,-0.235,-0.07
21:49:29.596,-0.245,-0.075
21:49:29.600,-0.225,-0.08
21:49:29.604,-0.19,-0.1
21:49:29.608,-0.14,-0.085
21:49:29.612,-0.085,-0.09
21:49:29.616,-0.01,-0.105
21:49:29.620,0.065,-0.11
21:49:29.624,0.125,-0.145
21:49:29.628,0.18,-0.17
21:49:29.632,0.195,-0.2
21:49:29.636,0.22,-0.19
21:49:29.640,0.215,-0.215
21:49:29.644,0.195,-0.27
21:49:29.648,0.285,-0.37
21:49:29.652,0.51,-0.52
21:49:29.656,0.82,-0.745
21:49:29.660,1.07,-0.97
21:49:29.664,1.125,-1.2
21:49:29.668,0.91,-1.2
21:49:29.672,0.445,-1.03
21:49:29.676,0.035,-0.63
21:49:29.680,-0.21,-0.32
21:49:29.684,-0.3,-0.145
21:49:29.688,-0.365,-0.065
21:49:29.692,-0.36,0.02
21:49:29.696,-0.41,0.07
21:49:29.700,-0.425,0.075
21:49:29.704,-0.435,0.085
21:49:29.708,-0.465,0.055
21:49:29.712,-0.47,0.075
21:49:29.716,-0.455,0.03
21:49:29.720,-0.465,0.025
21:49:29.724,-0.48,0.0
21:49:29.728,-0.47,0.0
21:49:29.732,-0.48,0.02
21:49:29.736,-0.485,0.02
21:49:29.740,-0.495,0.03
21:49:29.744,-0.48,0.01
21:49:29.748,-0.49,-0.01
21:49:29.752,-0.485,-0.005
21:49:29.756,-0.47,-0.005
21:49:29.760,-0.495,0.0
21:49:29.764,-0.49,0.0
21:49:29.768,-0.485,0.015
21:49:29.772,-0.485,0.005
21:49:29.776,-0.49,0.01
21:49:29.780,-0.49,0.025
21:49:29.784,-0.49,0.015
21:49:29.788,-0.5,0.005
21:49:29.792,-0.505,0.01
21:49:29.796,-0.49,-0.005
21:49:29.800,-0.515,0.005
21:49:29.804,-0.53,0.0
21:49:29.808,-0.55,-0.01
21:49:29.812,-0.555,0.0
21:49:29.816,-0.52,0.0
21:49:29.820,-0.515,0.0
21:49:29.824,-0.52,0.01
21:49:29.828,-0.52,-0.005
21:49:29.832,-0.525,0.0
21:49:29.836,-0.49,-0.015
21:49:29.840,-0.485,0.005
21:49:29.844,-0.49,-0.01
21:49:29.848,-0.48,-0.005
21:49:29.852,-0.47,-0.01
21:49:29.856,-0.48,0.005
21:49:29.860,-0.46,-0.01
21:49:29.864,-0.43,-0.015
21:49:29.868,-0.41,-0.005
21:49:29.872,-0.425,-0.02
21:49:29.876,-0.39,-0.005
21:49:29.880,-0.405,-0.015
21:49:29.884,-0.39,-0.02
21:49:29.888,-0.365,-0.02
21:49:29.892,-0.37,-0.02
21:49:29.896,-0.375,-0.035
21:49:29.900,-0.375,-0.04
21:49:29.904,-0.36,-0.05
21:49:29.908,-0.36,-0.055
21:49:29.912,-0.34,-0.07
21:49:29.916,-0.335,-0.09
21:49:29.920,-0.33,-0.065
21:49:29.924,-0.3,-0.07
21:49:29.928,-0.285,-0.07
21:49:29.932,-0.295,-0.115
21:49:29.936,-0.285,-0.1
21:49:29.940,-0.295,-0.075
21:49:29.944,-0.28,-0.085
21:49:29.948,-0.27,-0.075
21:49:29.952,-0.28,-0.075
21:49:29.956,-0.27,-0.05
21:49:29.960,-0.25,-0.055
21:49:29.964,-0.22,-0.045
21:49:29.968,-0.215,-0.05
21:49:29.972,-0.22,-0.065
21:49:29.976,-0.225,-0.05
21:49:29.980,-0.23,-0.045
21:49:29.984,-0.24,-0.05
21:49:29.988,-0.225,-0.03
21:49:29.992,-0.22,-0.035
21:49:29.996,-0.235,-0.03
21:49:30.000,-0.235,-0.04
21:49:30.004,-0.24,-0.025
21:49:30.008,-0.235,-0.005
21:49:30.012,-0.235,-0.02
21:49:30.016,-0.24,-0.03
21:49:30.020,-0.255,-0.035
21:49:30.024,-0.28,-0.06
21:49:30.028,-0.275,-0.04
21:49:30.032,-0.265,-0.04
21:49:30.036,-0.275,-0.03
21:49:30.040,-0.29,-0.045
21:49:30.044,-0.3,-0.06
21:49:30.048,-0.29,-0.06
21:49:30.052,-0.295,-0.08
21:49:30.056,-0.295,-0.05
21:49:30.060,-0.275,-0.045
21:49:30.064,-0.285,-0.055
21:49:30.068,-0.295,-0.055
21:49:30.072,-0.28,-0.07
21:49:30.076,-0.26,-0.055
21:49:30.080,-0.25,-0.06
21:49:30.084,-0.28,-0.055
21:49:30.088,-0.255,-0.05
21:49:30.092,-0.265,-0.09
21:49:30.096,-0.27,-0.07
21:49:30.100,-0.27,-0.045
21:49:30.104,-0.275,-0.085
21:49:30.108,-0.275,-0.085
21:49:30.112,-0.245,-0.09
21:49:30.116,-0.245,-0.06
21:49:30.120,-0.24,-0.09
21:49:30.124,-0.22,-0.1
21:49:30.128,-0.195,-0.105
21:49:30.132,-0.22,-0.075
21:49:30.136,-0.22,-0.095
21:49:30.140,-0.215,-0.115
21:49:30.144,-0.21,-0.08
21:49:30.148,-0.17,-0.075
21:49:30.152,-0.13,-0.105
21:49:30.156,-0.07,-0.095
21:49:30.160,-0.045,-0.08
21:49:30.164,-0.04,-0.08
21:49:30.168,-0.01,-0.07
21:49:30.172,0.045,-0.085
21:49:30.176,0.07,-0.09
21:49:30.180,0.085,-0.095
21:49:30.184,0.06,-0.09
21:49:30.188,0.0,-0.13
21:49:30.192,-0.025,-0.155
21:49:30.196,-0.085,-0.175
21:49:30.200,-0.13,-0.155
21:49:30.204,-0.175,-0.145
21:49:30.208,-0.225,-0.165
21:49:30.212,-0.305,-0.155
21:49:30.216,-0.315,-0.13
21:49:30.220,-0.35,-0.145
21:49:30.224,-0.345,-0.135
21:49:30.228,-0.335,-0.16
21:49:30.232,-0.33,-0.18
21:49:30.236,-0.35,-0.185
21:49:30.240,-0.34,-0.175
21:49:30.244,-0.33,-0.185
21:49:30.248,-0.335,-0.19
21:49:30.252,-0.33,-0.165
21:49:30.256,-0.335,-0.18
21:49:30.260,-0.32,-0.175
21:49:30.264,-0.31,-0.175
21:49:30.268,-0.33,-0.21
21:49:30.272,-0.31,-0.2
21:49:30.276,-0.29,-0.215
21:49:30.280,-0.295,-0.205
21:49:30.284,-0.315,-0.205
21:49:30.288,-0.325,-0.215
21:49:30.292,-0.31,-0.23
21:49:30.296,-0.285,-0.21
21:49:30.300,-0.285,-0.225
21:49:30.304,-0.28,-0.22
21:49:30.308,-0.25,-0.22
21:49:30.312,-0.27,-0.22
21:49:30.316,-0.28,-0.195
21:49:30.320,-0.275,-0.17
21:49:30.324,-0.27,-0.15
21:49:30.328,-0.235,-0.14
21:49:30.332,-0.185,-0.11
21:49:30.336,-0.105,-0.115
21:49:30.340,-0.04,-0.11
21:49:30.344,0.06,-0.11
21:49:30.348,0.125,-0.145
21:49:30.352,0.18,-0.185
21:49:30.356,0.255,-0.215
21:49:30.360,0.305,-0.22
21:49:30.364,0.3,-0.215
21:49:30.368,0.285,-0.265
21:49:30.372,0.315,-0.32
21:49:30.376,0.5,-0.445
21:49:30.380,0.795,-0.645
21:49:30.384,1.06,-0.845
21:49:30.388,1.085,-1.025
21:49:30.392,0.815,-1.095
21:49:30.396,0.39,-0.91
21:49:30.400,0.015,-0.62
21:49:30.404,-0.18,-0.35
21:49:30.408,-0.26,-0.21
21:49:30.412,-0.31,-0.095
21:49:30.416,-0.335,0.005
21:49:30.420,-0.375,0.01
21:49:30.424,-0.41,0.045
21:49:30.428,-0.425,0.06
21:49:30.432,-0.435,0.045
21:49:30.436,-0.46,0.03
21:49:30.440,-0.45,0.01
21:49:30.444,-0.45,0.0
21:49:30.448,-0.485,-0.01
21:49:30.452,-0.48,-0.025
21:49:30.456,-0.485,-0.02
21:49:30.460,-0.495,-0.01
21:49:30.464,-0.49,-0.02
21:49:30.468,-0.5,-0.03
21:49:30.472,-0.515,-0.05
21:49:30.476,-0.51,-0.05
21:49:30.480,-0.5,-0.02
21:49:30.484,-0.5,-0.015
21:49:30.488,-0.505,-0.035
21:49:30.492,-0.515,-0.02
21:49:30.496,-0.515,-0.02
21:49:30.500,-0.525,-0.025
21:49:30.504,-0.54,-0.015
21:49:30.508,-0.54,-0.04
21:49:30.512,-0.535,-0.015
21:49:30.516,-0.525,-0.025
21:49:30.520,-0.54,-0.025
21:49:30.524,-0.545,-0.01
21:49:30.528,-0.535,-0.005
21:49:30.532,-0.53,0.0
21:49:30.536,-0.525,0.01
21:49:30.540,-0.53,0.015
21:49:30.544,-0.53,0.02
21:49:30.548,-0.535,0.02
21:49:30.552,-0.525,0.005
21:49:30.556,-0.53,0.0
21:49:30.560,-0.535,-0.05
21:49:30.564,-0.535,-0.11
21:49:30.568,-0.51,-0.11
21:49:30.572,-0.53,-0.115
21:49:30.576,-0.505,-0.11
21:49:30.580,-0.505,-0.12
21:49:30.584,-0.49,-0.105
21:49:30.588,-0.465,-0.12
21:49:30.592,-0.475,-0.13
21:49:30.596,-0.45,-0.115
21:49:30.600,-0.45,-0.12
21:49:30.604,-0.43,-0.12
21:49:30.608,-0.43,-0.115
21:49:30.612,-0.425,-0.12
21:49:30.616,-0.395,-0.135
21:49:30.620,-0.385,-0.135
21:49:30.624,-0.36,-0.11
21:49:30.628,-0.345,-0.11
21:49:30.632,-0.32,-0.125
21:49:30.636,-0.31,-0.125
21:49:30.640,-0.32,-0.13
21:49:30.644,-0.305,-0.135
21:49:30.648,-0.3,-0.11
21:49:30.652,-0.29,-0.115
21:49:30.656,-0.275,-0.13
21:49:30.660,-0.27,-0.12
21:49:30.664,-0.27,-0.12
21:49:30.668,-0.27,-0.13
21:49:30.672,-0.285,-0.125
21:49:30.676,-0.285,-0.105
21:49:30.680,-0.275,-0.11
21:49:30.684,-0.26,-0.14
21:49:30.688,-0.26,-0.12
21:49:30.692,-0.275,-0.125
21:49:30.696,-0.265,-0.125
21:49:30.700,-0.275,-0.125
21:49:30.704,-0.27,-0.115
21:49:30.708,-0.275,-0.105
21:49:30.712,-0.265,-0.09
21:49:30.716,-0.28,-0.11
21:49:30.720,-0.27,-0.085
21:49:30.724,-0.26,-0.09
21:49:30.728,-0.275,-0.065
21:49:30.732,-0.255,-0.1
21:49:30.736,-0.28,-0.07
21:49:30.740,-0.28,-0.065
21:49:30.744,-0.265,-0.07
21:49:30.748,-0.265,-0.05
21:49:30.752,-0.275,-0.04
21:49:30.756,-0.27,-0.065
21:49:30.760,-0.275,-0.075
21:49:30.764,-0.285,-0.08
21:49:30.768,-0.285,-0.085
21:49:30.772,-0.295,-0.075
21:49:30.776,-0.275,-0.075
21:49:30.780,-0.26,-0.095
21:49:30.784,-0.24,-0.08
21:49:30.788,-0.245,-0.07
21:49:30.792,-0.255,-0.09
21:49:30.796,-0.225,-0.085
21:49:30.800,-0.195,-0.095
21:49:30.804,-0.2,-0.075
21:49:30.808,-0.165,-0.07
21:49:30.812,-0.12,-0.06
21:49:30.816,-0.085,-0.05
21:49:30.820,-0.07,-0.05
21:49:30.824,-0.04,-0.02
21:49:30.828,-0.01,-0.03
21:49:30.832,0.035,-0.005
21:49:30.836,0.06,-0.015
21:49:30.840,0.05,-0.025
21:49:30.844,0.02,-0.05
21:49:30.848,-0.01,-0.09
21:49:30.852,-0.045,-0.08
21:49:30.856,-0.095,-0.13
21:49:30.860,-0.155,-0.12
21:49:30.864,-0.2,-0.11
21:49:30.868,-0.25,-0.1
21:49:30.872,-0.305,-0.085
21:49:30.876,-0.32,-0.085
21:49:30.880,-0.33,-0.075
21:49:30.884,-0.355,-0.075
21:49:30.888,-0.375,-0.08
21:49:30.892,-0.35,-0.08
21:49:30.896,-0.34,-0.09
21:49:30.900,-0.345,-0.08
21:49:30.904,-0.34,-0.105
21:49:30.908,-0.325,-0.105
21:49:30.912,-0.305,-0.11
21:49:30.916,-0.315,-0.135
21:49:30.920,-0.32,-0.095
21:49:30.924,-0.31,-0.14
21:49:30.928,-0.315,-0.125
21:49:30.932,-0.31,-0.1
21:49:30.936,-0.31,-0.115
21:49:30.940,-0.295,-0.11
21:49:30.944,-0.29,-0.12
21:49:30.948,-0.295,-0.1
21:49:30.952,-0.3,-0.095
21:49:30.956,-0.275,-0.105
21:49:30.960,-0.255,-0.1
21:49:30.964,-0.26,-0.095
21:49:30.968,-0.25,-0.08
21:49:30.972,-0.265,-0.105
21:49:30.976,-0.26,-0.09
21:49:30.980,-0.24,-0.09
21:49:30.984,-0.245,-0.07
21:49:30.988,-0.215,-0.085
21:49:30.992,-0.155,-0.1
21:49:30.996,-0.095,-0.095
21:49:31.000,-0.015,-0.115
21:49:31.004,0.08,-0.135
21:49:31.008,0.145,-0.16
21:49:31.012,0.19,-0.21
21:49:31.016,0.19,-0.235
21:49:31.020,0.205,-0.24
21:49:31.024,0.215,-0.25
21:49:31.028,0.195,-0.33
21:49:31.032,0.325,-0.46
21:49:31.036,0.595,-0.635
21:49:31.040,0.925,-0.87
21:49:31.044,1.135,-1.09
21:49:31.048,1.075,-1.235
21:49:31.052,0.72,-1.235
21:49:31.056,0.225,-0.95
21:49:31.060,-0.11,-0.565
21:49:31.064,-0.27,-0.28
21:49:31.068,-0.33,-0.125
21:49:31.072,-0.345,-0.045
21:49:31.076,-0.365,0.03
21:49:31.080,-0.385,0.065
21:49:31.084,-0.4,0.085
21:49:31.088,-0.405,0.09
21:49:31.092,-0.39,0.07
21:49:31.096,-0.425,0.05
21:49:31.100,-0.43,0.03
21:49:31.104,-0.435,0.035
21:49:31.108,-0.425,0.03
21:49:31.112,-0.435,0.025
21:49:31.116,-0.43,0.04
21:49:31.120,-0.405,0.025
21:49:31.124,-0.42,0.03
21:49:31.128,-0.42,0.03
21:49:31.132,-0.42,0.02
21:49:31.136,-0.425,0.02
21:49:31.140,-0.42,0.01
21:49:31.144,-0.42,0.01
21:49:31.148,-0.455,0.01
21:49:31.152,-0.45,0.025
21:49:31.156,-0.435,0.03
21:49:31.160,-0.42,0.025
21:49:31.164,-0.435,0.025
21:49:31.168,-0.43,0.035
21:49:31.172,-0.435,0.02
21:49:31.176,-0.44,0.025
21:49:31.180,-0.46,0.045
21:49:31.184,-0.465,0.045
21:49:31.188,-0.45,0.03
21:49:31.192,-0.45,0.02
21:49:31.196,-0.44,0.06
21:49:31.200,-0.445,0.04
21:49:31.204,-0.45,0.035
21:49:31.208,-0.46,0.04
21:49:31.212,-0.465,0.055
21:49:31.216,-0.45,0.04
21:49:31.220,-0.44,0.02
21:49:31.224,-0.435,0.035
21:49:31.228,-0.425,0.04
21:49:31.232,-0.41,0.02
21:49:31.236,-0.415,0.02
21:49:31.240,-0.39,0.005
21:49:31.244,-0.39,-0.005
21:49:31.248,-0.39,0.02
21:49:31.252,-0.385,0.01
21:49:31.256,-0.365,0.005
21:49:31.260,-0.35,0.0
21:49:31.264,-0.325,-0.01
21:49:31.268,-0.295,-0.01
21:49:31.272,-0.295,-0.005
21:49:31.276,-0.26,-0.005
21:49:31.280,-0.255,-0.01
21:49:31.284,-0.23,-0.03
21:49:31.288,-0.22,-0.03
21:49:31.292,-0.24,-0.04
21:49:31.296,-0.23,-0.03
21:49:31.300,-0.215,-0.035
21:49:31.304,-0.21,-0.025
21:49:31.308,-0.2,-0.015
21:49:31.312,-0.175,-0.025
21:49:31.316,-0.185,-0.01
21:49:31.320,-0.205,-0.03
21:49:31.324,-0.22,-0.02
21:49:31.328,-0.195,-0.025
21:49:31.332,-0.205,-0.035
21:49:31.336,-0.205,-0.02
21:49:31.340,-0.21,-0.025
21:49:31.344,-0.215,-0.035
21:49:31.348,-0.205,-0.03
21:49:31.352,-0.2,-0.045
21:49:31.356,-0.185,0.0
21:49:31.360,-0.185,-0.015
21:49:31.364,-0.195,0.0
21:49:31.368,-0.19,-0.01
21:49:31.372,-0.19,-0.015
21:49:31.376,-0.19,-0.015
21:49:31.380,-0.2,-0.025
21:49:31.384,-0.19,0.005
21:49:31.388,-0.175,0.0
21:49:31.392,-0.195,0.0
21:49:31.396,-0.18,0.015
21:49:31.400,-0.195,0.005
21:49:31.404,-0.18,-0.01
21:49:31.408,-0.195,0.0
21:49:31.412,-0.215,-0.02
21:49:31.416,-0.195,-0.02
21:49:31.420,-0.205,-0.01
21:49:31.424,-0.21,-0.01
21:49:31.428,-0.18,-0.04
21:49:31.432,-0.185,-0.03
21:49:31.436,-0.165,-0.025
21:49:31.440,-0.19,-0.03
21:49:31.444,-0.19,-0.02
21:49:31.448,-0.155,-0.02
21:49:31.452,-0.115,-0.03
21:49:31.456,-0.07,-0.015
21:49:31.460,-0.06,0.0
21:49:31.464,-0.01,0.015
21:49:31.468,0.01,0.005
21:49:31.472,0.035,0.015
21:49:31.476,0.02,0.015
21:49:31.480,0.07,0.025
21:49:31.484,0.065,0.02
21:49:31.488,0.03,0.0
21:49:31.492,-0.02,-0.035
21:49:31.496,-0.06,-0.045
21:49:31.500,-0.105,-0.07
21:49:31.504,-0.165,-0.05
21:49:31.508,-0.225,-0.03
21:49:31.512,-0.27,-0.06
21:49:31.516,-0.29,-0.03
21:49:31.520,-0.32,-0.01
21:49:31.524,-0.33,-0.015
21:49:31.528,-0.335,-0.015
21:49:31.532,-0.34,-0.015
21:49:31.536,-0.34,-0.025
21:49:31.540,-0.345,-0.05
21:49:31.544,-0.335,-0.065
21:49:31.548,-0.33,-0.035
21:49:31.552,-0.32,-0.055
21:49:31.556,-0.33,-0.03
21:49:31.560,-0.315,-0.06
21:49:31.564,-0.315,-0.055
21:49:31.568,-0.3,-0.06
21:49:31.572,-0.315,-0.035
21:49:31.576,-0.3,-0.06
21:49:31.580,-0.325,-0.05
21:49:31.584,-0.305,-0.06
21:49:31.588,-0.285,-0.065
21:49:31.592,-0.305,-0.035
21:49:31.596,-0.275,-0.06
21:49:31.600,-0.28,-0.035
21:49:31.604,-0.285,-0.065
21:49:31.608,-0.265,-0.05
21:49:31.612,-0.265,-0.04
21:49:31.616,-0.275,-0.04
21:49:31.620,-0.27,-0.04
21:49:31.624,-0.26,-0.025
21:49:31.628,-0.255,-0.035
21:49:31.632,-0.22,-0.055
21:49:31.636,-0.17,-0.045
21:49:31.640,-0.07,-0.045
21:49:31.644,-0.015,-0.075
21:49:31.648,0.07,-0.075
21:49:31.652,0.115,-0.105
21:49:31.656,0.145,-0.15
21:49:31.660,0.185,-0.195
21:49:31.664,0.175,-0.19
21:49:31.668,0.155,-0.225
21:49:31.672,0.165,-0.305
21:49:31.676,0.31,-0.44
21:49:31.680,0.555,-0.61
21:49:31.684,0.9,-0.87
21:49:31.688,1.08,-1.055
21:49:31.692,1.035,-1.23
21:49:31.696,0.685,-1.205
21:49:31.700,0.225,-0.9
21:49:31.704,-0.11,-0.505
21:49:31.708,-0.255,-0.25
21:49:31.712,-0.32,-0.09
21:49:31.716,-0.36,0.01
21:49:31.720,-0.365,0.075
21:49:31.724,-0.385,0.085
21:49:31.728,-0.4,0.09
21:49:31.732,-0.415,0.105
21:49:31.736,-0.415,0.115
21:49:31.740,-0.415,0.09
21:49:31.744,-0.425,0.075
21:49:31.748,-0.455,0.075
21:49:31.752,-0.45,0.07
21:49:31.756,-0.43,0.055
21:49:31.760,-0.45,0.05
21:49:31.764,-0.46,0.055
21:49:31.768,-0.465,0.065
21:49:31.772,-0.465,0.055
21:49:31.776,-0.46,0.03
21:49:31.780,-0.465,0.04
21:49:31.784,-0.475,0.05
21:49:31.788,-0.46,0.035
21:49:31.792,-0.465,0.05
21:49:31.796,-0.45,0.06
21:49:31.800,-0.46,0.06
21:49:31.804,-0.475,0.06
21:49:31.808,-0.475,0.055
21:49:31.812,-0.465,0.045
21:49:31.816,-0.455,0.055
21:49:31.820,-0.445,0.045
21:49:31.824,-0.445,0.1
21:49:31.828,-0.45,0.07
21:49:31.832,-0.44,0.08
21:49:31.836,-0.46,0.085
21:49:31.840,-0.445,0.08
21:49:31.844,-0.45,0.075
21:49:31.848,-0.505,0.075
21:49:31.852,-0.48,0.065
21:49:31.856,-0.465,0.08
21:49:31.860,-0.48,0.065
21:49:31.864,-0.48,0.08
21:49:31.868,-0.47,0.08
21:49:31.872,-0.44,0.06
21:49:31.876,-0.465,0.09
21:49:31.880,-0.455,0.05
21:49:31.884,-0.455,0.045
21:49:31.888,-0.42,0.02
21:49:31.892,-0.415,0.03
21:49:31.896,-0.4,0.03
21:49:31.900,-0.4,0.035
21:49:31.904,-0.38,0.03
21:49:31.908,-0.38,0.02
21:49:31.912,-0.355,0.035
21:49:31.916,-0.355,0.01
21:49:31.920,-0.31,0.0
21:49:31.924,-0.31,0.005
21:49:31.928,-0.305,0.0
21:49:31.932,-0.285,-0.005
21:49:31.936,-0.28,0.015
21:49:31.940,-0.275,0.01
21:49:31.944,-0.265,0.0
21:49:31.948,-0.255,-0.01
21:49:31.952,-0.255,0.005
21:49:31.956,-0.245,0.015
21:49:31.960,-0.26,0.015
21:49:31.964,-0.27,0.02
21:49:31.968,-0.26,0.0
21:49:31.972,-0.26,0.0
21:49:31.976,-0.255,0.0
21:49:31.980,-0.265,0.01
21:49:31.984,-0.235,0.01
21:49:31.988,-0.245,-0.01
21:49:31.992,-0.24,0.0
21:49:31.996,-0.26,0.005
21:49:32.000,-0.245,-0.005
21:49:32.004,-0.25,0.0
21:49:32.008,-0.25,0.01
21:49:32.012,-0.23,0.025
21:49:32.016,-0.25,0.02
21:49:32.020,-0.245,0.01
21:49:32.024,-0.26,0.01
21:49:32.028,-0.24,0.02
21:49:32.032,-0.23,0.005
21:49:32.036,-0.21,0.025
21:49:32.040,-0.235,0.035
21:49:32.044,-0.24,0.025
21:49:32.048,-0.24,0.02
21:49:32.052,-0.215,0.025
21:49:32.056,-0.235,0.02
21:49:32.060,-0.24,0.04
21:49:32.064,-0.23,0.025
21:49:32.068,-0.245,0.03
21:49:32.072,-0.25,0.02
21:49:32.076,-0.28,0.025
21:49:32.080,-0.27,-0.01
21:49:32.084,-0.29,-0.005
21:49:32.088,-0.285,0.0
21:49:32.092,-0.275,0.005
21:49:32.096,-0.25,0.0
21:49:32.100,-0.255,-0.025
21:49:32.104,-0.235,-0.025
21:49:32.108,-0.245,-0.03
21:49:32.112,-0.205,-0.015
21:49:32.116,-0.195,-0.03
21:49:32.120,-0.19,0.0
21:49:32.124,-0.17,-0.025
21:49:32.128,-0.14,-0.01
21:49:32.132,-0.09,-0.01
21:49:32.136,-0.03,0.0
21:49:32.140,-0.02,0.02
21:49:32.144,0.03,0.04
21:49:32.148,0.04,0.03
21:49:32.152,0.08,0.025
21:49:32.156,0.065,0.055
21:49:32.160,0.06,0.035
21:49:32.164,0.05,0.01
21:49:32.168,-0.01,-0.02
21:49:32.172,-0.06,-0.045
21:49:32.176,-0.09,-0.055
21:49:32.180,-0.15,-0.07
21:49:32.184,-0.21,-0.08
21:49:32.188,-0.27,-0.08
21:49:32.192,-0.335,-0.07
21:49:32.196,-0.34,-0.065
21:49:32.200,-0.36,-0.045
21:49:32.204,-0.36,-0.065
21:49:32.208,-0.355,-0.06
21:49:32.212,-0.365,-0.065
21:49:32.216,-0.335,-0.06
21:49:32.220,-0.345,-0.085
21:49:32.224,-0.33,-0.095
21:49:32.228,-0.35,-0.08
21:49:32.232,-0.33,-0.095
21:49:32.236,-0.33,-0.105
21:49:32.240,-0.34,-0.1
21:49:32.244,-0.33,-0.1
21:49:32.248,-0.32,-0.11
21:49:32.252,-0.295,-0.115
21:49:32.256,-0.295,-0.095
21:49:32.260,-0.285,-0.11
21:49:32.264,-0.28,-0.115
21:49:32.268,-0.285,-0.11
21:49:32.272,-0.3,-0.105
21:49:32.276,-0.3,-0.115
21:49:32.280,-0.285,-0.135
21:49:32.284,-0.27,-0.13
21:49:32.288,-0.285,-0.12
21:49:32.292,-0.305,-0.125
21:49:32.296,-0.32,-0.135
21:49:32.300,-0.29,-0.165
21:49:32.304,-0.275,-0.155
21:49:32.308,-0.225,-0.16
21:49:32.312,-0.19,-0.155
21:49:32.316,-0.095,-0.17
21:49:32.320,0.0,-0.2
21:49:32.324,0.095,-0.185
21:49:32.328,0.17,-0.235
21:49:32.332,0.235,-0.275
21:49:32.336,0.28,-0.29
21:49:32.340,0.295,-0.295
21:49:32.344,0.285,-0.29
21:49:32.348,0.275,-0.33
21:49:32.352,0.375,-0.415
21:49:32.356,0.615,-0.56
21:49:32.360,0.905,-0.775
21:49:32.364,1.13,-1.01
21:49:32.368,1.1,-1.185
21:49:32.372,0.765,-1.2
21:49:32.376,0.32,-0.98
21:49:32.380,-0.015,-0.675
21:49:32.384,-0.185,-0.415
21:49:32.388,-0.27,-0.28
21:49:32.392,-0.29,-0.205
21:49:32.396,-0.295,-0.125
21:49:32.400,-0.35,-0.1
21:49:32.404,-0.4,-0.08
21:49:32.408,-0.445,-0.07
21:49:32.412,-0.465,-0.11
21:49:32.416,-0.44,-0.105
21:49:32.420,-0.45,-0.11
21:49:32.424,-0.435,-0.11
21:49:32.428,-0.46,-0.125
21:49:32.432,-0.455,-0.16
21:49:32.436,-0.46,-0.16
21:49:32.440,-0.44,-0.105
21:49:32.444,-0.445,-0.11
21:49:32.448,-0.45,-0.11
21:49:32.452,-0.475,-0.08
21:49:32.456,-0.465,-0.1
21:49:32.460,-0.45,-0.105
21:49:32.464,-0.455,-0.115
21:49:32.468,-0.475,-0.085
21:49:32.472,-0.475,-0.095
21:49:32.476,-0.465,-0.08
21:49:32.480,-0.465,-0.08
21:49:32.484,-0.47,-0.06
21:49:32.488,-0.485,-0.06
21:49:32.492,-0.5,-0.06
21:49:32.496,-0.495,-0.07
21:49:32.500,-0.48,-0.08
21:49:32.504,-0.5,-0.08
21:49:32.508,-0.52,-0.1
21:49:32.512,-0.53,-0.115
21:49:32.516,-0.515,-0.105
21:49:32.520,-0.54,-0.095
21:49:32.524,-0.53,-0.1
21:49:32.528,-0.545,-0.105
21:49:32.532,-0.54,-0.11
21:49:32.536,-0.525,-0.085
21:49:32.540,-0.51,-0.085
21:49:32.544,-0.52,-0.115
21:49:32.548,-0.495,-0.11
21:49:32.552,-0.535,-0.125
21:49:32.556,-0.535,-0.12
21:49:32.560,-0.48,-0.115
21:49:32.564,-0.465,-0.135
21:49:32.568,-0.47,-0.115
21:49:32.572,-0.445,-0.125
21:49:32.576,-0.43,-0.14
21:49:32.580,-0.425,-0.125
21:49:32.584,-0.415,-0.155
21:49:32.588,-0.39,-0.15
21:49:32.592,-0.375,-0.16
21:49:32.596,-0.37,-0.17
21:49:32.600,-0.345,-0.18
21:49:32.604,-0.34,-0.175
21:49:32.608,-0.32,-0.17
21:49:32.612,-0.32,-0.17
21:49:32.616,-0.32,-0.19
21:49:32.620,-0.32,-0.195
21:49:32.624,-0.3,-0.205
21:49:32.628,-0.29,-0.195
21:49:32.632,-0.31,-0.225
21:49:32.636,-0.295,-0.205
21:49:32.640,-0.27,-0.21
21:49:32.644,-0.25,-0.215
21:49:32.648,-0.26,-0.215
21:49:32.652,-0.235,-0.235
21:49:32.656,-0.255,-0.215
21:49:32.660,-0.245,-0.23
21:49:32.664,-0.25,-0.25
21:49:32.668,-0.25,-0.23
21:49:32.672,-0.255,-0.235
21:49:32.676,-0.26,-0.235
21:49:32.680,-0.25,-0.225
21:49:32.684,-0.24,-0.195
21:49:32.688,-0.24,-0.225
21:49:32.692,-0.23,-0.225
21:49:32.696,-0.23,-0.205
21:49:32.700,-0.235,-0.205
21:49:32.704,-0.22,-0.215
21:49:32.708,-0.2,-0.235
21:49:32.712,-0.215,-0.2
21:49:32.716,-0.24,-0.215
21:49:32.720,-0.265,-0.215
21:49:32.724,-0.275,-0.205
21:49:32.728,-0.25,-0.21
21:49:32.732,-0.26,-0.225
21:49:32.736,-0.28,-0.22
21:49:32.740,-0.285,-0.23
21:49:32.744,-0.285,-0.215
21:49:32.748,-0.285,-0.2
21:49:32.752,-0.275,-0.21
21:49:32.756,-0.285,-0.195
21:49:32.760,-0.275,-0.21
21:49:32.764,-0.26,-0.215
21:49:32.768,-0.25,-0.215
21:49:32.772,-0.235,-0.2
21:49:32.776,-0.22,-0.19
21:49:32.780,-0.23,-0.195
21:49:32.784,-0.22,-0.2
21:49:32.788,-0.21,-0.175
21:49:32.792,-0.145,-0.165
21:49:32.796,-0.12,-0.17
21:49:32.800,-0.08,-0.135
21:49:32.804,-0.02,-0.1
21:49:32.808,0.015,-0.095
21:49:32.812,0.02,-0.08
21:49:32.816,0.055,-0.045
21:49:32.820,0.065,-0.05
21:49:32.824,0.065,-0.035
21:49:32.828,0.08,-0.065
21:49:32.832,0.04,-0.065
21:49:32.836,-0.03,-0.075
21:49:32.840,-0.065,-0.09
21:49:32.844,-0.11,-0.105
21:49:32.848,-0.16,-0.105
21:49:32.852,-0.22,-0.085
21:49:32.856,-0.27,-0.06
21:49:32.860,-0.315,-0.065
21:49:32.864,-0.345,-0.02
21:49:32.868,-0.355,-0.03
21:49:32.872,-0.35,-0.01
21:49:32.876,-0.36,-0.01
21:49:32.880,-0.32,-0.015
21:49:32.884,-0.33,0.0
21:49:32.888,-0.33,-0.005
21:49:32.892,-0.31,0.005
21:49:32.896,-0.32,0.005
21:49:32.900,-0.31,0.025
21:49:32.904,-0.31,0.03
21:49:32.908,-0.29,0.02
21:49:32.912,-0.305,0.015
21:49:32.916,-0.305,0.025
21:49:32.920,-0.285,0.035
21:49:32.924,-0.275,0.02
21:49:32.928,-0.305,0.01
21:49:32.932,-0.27,0.01
21:49:32.936,-0.295,0.0
21:49:32.940,-0.285,-0.05
21:49:32.944,-0.295,-0.08
21:49:32.948,-0.3,-0.11
21:49:32.952,-0.32,-0.085
21:49:32.956,-0.315,-0.095
21:49:32.960,-0.31,-0.085
21:49:32.964,-0.305,-0.075
21:49:32.968,-0.28,-0.07
21:49:32.972,-0.25,-0.065
21:49:32.976,-0.22,-0.085
21:49:32.980,-0.14,-0.085
21:49:32.984,-0.065,-0.095
21:49:32.988,0.035,-0.09
21:49:32.992,0.13,-0.1
21:49:32.996,0.21,-0.16
21:49:33.000,0.255,-0.19
21:49:33.004,0.315,-0.21
21:49:33.008,0.34,-0.21
21:49:33.012,0.325,-0.225
21:49:33.016,0.35,-0.295
21:49:33.020,0.495,-0.42
21:49:33.024,0.805,-0.625
21:49:33.028,1.1,-0.855
21:49:33.032,1.22,-1.02
21:49:33.036,1.075,-1.19
21:49:33.040,0.645,-1.105
21:49:33.044,0.185,-0.785
21:49:33.048,-0.09,-0.435
21:49:33.052,-0.22,-0.215
21:49:33.056,-0.26,-0.125
21:49:33.060,-0.32,-0.03
21:49:33.064,-0.34,0.07
21:49:33.068,-0.39,0.095
21:49:33.072,-0.39,0.12
21:49:33.076,-0.42,0.11
21:49:33.080,-0.435,0.08
21:49:33.084,-0.42,0.065
21:49:33.088,-0.44,0.055
21:49:33.092,-0.425,0.075
21:49:33.096,-0.435,0.055
21:49:33.100,-0.435,0.055
21:49:33.104,-0.44,0.05
21:49:33.108,-0.42,0.035
21:49:33.112,-0.435,0.07
21:49:33.116,-0.43,0.06
21:49:33.120,-0.425,0.065
21:49:33.124,-0.42,0.06
21:49:33.128,-0.44,0.04
21:49:33.132,-0.43,0.04
21:49:33.136,-0.445,0.06
21:49:33.140,-0.45,0.03
21:49:33.144,-0.44,0.03
21:49:33.148,-0.465,0.03
21:49:33.152,-0.46,0.04
21:49:33.156,-0.475,0.03
21:49:33.160,-0.49,0.025
21:49:33.164,-0.47,0.015
21:49:33.168,-0.48,0.02
21:49:33.172,-0.49,0.025
21:49:33.176,-0.515,0.025
21:49:33.180,-0.505,0.02
21:49:33.184,-0.485,0.035
21:49:33.188,-0.475,0.005
21:49:33.192,-0.47,0.0
21:49:33.196,-0.52,0.01
21:49:33.200,-0.505,0.0
21:49:33.204,-0.495,0.0
21:49:33.208,-0.475,0.005
21:49:33.212,-0.485,0.025
21:49:33.216,-0.45,0.01
21:49:33.220,-0.455,0.0
21:49:33.224,-0.42,0.005
21:49:33.228,-0.4,0.01
21:49:33.232,-0.37,0.025
21:49:33.236,-0.365,-0.01
21:49:33.240,-0.35,-0.02
21:49:33.244,-0.35,-0.015
21:49:33.248,-0.335,-0.015
21:49:33.252,-0.315,-0.03
21:49:33.256,-0.295,-0.04
21:49:33.260,-0.28,-0.035
21:49:33.264,-0.265,-0.05
21:49:33.268,-0.26,-0.06
21:49:33.272,-0.25,-0.05
21:49:33.276,-0.25,-0.075
21:49:33.280,-0.235,-0.065
21:49:33.284,-0.22,-0.095
21:49:33.288,-0.23,-0.1
21:49:33.292,-0.215,-0.09
21:49:33.296,-0.215,-0.085
21:49:33.300,-0.21,-0.105
21:49:33.304,-0.19,-0.125
21:49:33.308,-0.19,-0.125
21:49:33.312,-0.19,-0.1
21:49:33.316,-0.18,-0.125
21:49:33.320,-0.175,-0.11
21:49:33.324,-0.185,-0.115
21:49:33.328,-0.16,-0.085
21:49:33.332,-0.16,-0.11
21:49:33.336,-0.15,-0.095
21:49:33.340,-0.14,-0.115
21:49:33.344,-0.135,-0.1
21:49:33.348,-0.15,-0.09
21:49:33.352,-0.15,-0.08
21:49:33.356,-0.14,-0.1
21:49:33.360,-0.15,-0.08
21:49:33.364,-0.165,-0.085
21:49:33.368,-0.18,-0.07
21:49:33.372,-0.165,-0.09
21:49:33.376,-0.16,-0.09
21:49:33.380,-0.18,-0.09
21:49:33.384,-0.165,-0.075
21:49:33.388,-0.185,-0.085
21:49:33.392,-0.195,-0.09
21:49:33.396,-0.17,-0.105
21:49:33.400,-0.185,-0.11
21:49:33.404,-0.185,-0.115
21:49:33.408,-0.18,-0.125
21:49:33.412,-0.175,-0.125
21:49:33.416,-0.175,-0.13
21:49:33.420,-0.15,-0.095
21:49:33.424,-0.135,-0.09
21:49:33.428,-0.14,-0.105
21:49:33.432,-0.145,-0.105
21:49:33.436,-0.095,-0.095
21:49:33.440,-0.065,-0.065
21:49:33.444,-0.015,-0.05
21:49:33.448,0.01,-0.065
21:49:33.452,0.055,-0.045
21:49:33.456,0.065,-0.04
21:49:33.460,0.075,-0.025
21:49:33.464,0.12,-0.04
21:49:33.468,0.13,-0.05
21:49:33.472,0.125,-0.035
21:49:33.476,0.09,-0.075
21:49:33.480,0.065,-0.11
21:49:33.484,0.0,-0.105
21:49:33.488,-0.06,-0.135
21:49:33.492,-0.12,-0.14
21:49:33.496,-0.16,-0.135
21:49:33.500,-0.215,-0.145
21:49:33.504,-0.265,-0.12
21:49:33.508,-0.3,-0.115
21:49:33.512,-0.295,-0.115
21:49:33.516,-0.305,-0.125
21:49:33.520,-0.315,-0.1
21:49:33.524,-0.285,-0.12
21:49:33.528,-0.265,-0.13
21:49:33.532,-0.27,-0.145
21:49:33.536,-0.29,-0.145
21:49:33.540,-0.26,-0.155
21:49:33.544,-0.275,-0.155
21:49:33.548,-0.25,-0.145
21:49:33.552,-0.24,-0.125
21:49:33.556,-0.24,-0.16
21:49:33.560,-0.245,-0.165
21:49:33.564,-0.245,-0.15
21:49:33.568,-0.23,-0.145
21:49:33.572,-0.235,-0.135
21:49:33.576,-0.225,-0.135
21:49:33.580,-0.235,-0.13
21:49:33.584,-0.225,-0.135
21:49:33.588,-0.22,-0.13
21:49:33.592,-0.235,-0.14
21:49:33.596,-0.245,-0.14
21:49:33.600,-0.235,-0.14
21:49:33.604,-0.25,-0.125
21:49:33.608,-0.24,-0.12
21:49:33.612,-0.245,-0.14
21:49:33.616,-0.2,-0.125
21:49:33.620,-0.165,-0.13
21:49:33.624,-0.095,-0.135
21:49:33.628,0.0,-0.14
21:49:33.632,0.075,-0.16
21:49:33.636,0.14,-0.185
21:49:33.640,0.18,-0.22
21:49:33.644,0.23,-0.24
21:49:33.648,0.235,-0.26
21:49:33.652,0.27,-0.265
21:49:33.656,0.26,-0.31
21:49:33.660,0.295,-0.405
21:49:33.664,0.455,-0.565
21:49:33.668,0.74,-0.735
21:49:33.672,1.045,-0.96
21:49:33.676,1.21,-1.19
21:49:33.680,1.12,-1.325
21:49:33.684,0.74,-1.25
21:49:33.688,0.24,-0.95
21:49:33.692,-0.08,-0.545
21:49:33.696,-0.23,-0.32
21:49:33.700,-0.295,-0.18
21:49:33.704,-0.305,-0.07
21:49:33.708,-0.32,-0.005
21:49:33.712,-0.345,0.0
21:49:33.716,-0.37,0.04
21:49:33.720,-0.365,0.03
21:49:33.724,-0.37,0.01
21:49:33.728,-0.38,-0.005
21:49:33.732,-0.385,-0.02
21:49:33.736,-0.39,-0.015
21:49:33.740,-0.405,-0.025
21:49:33.744,-0.395,-0.03
21:49:33.748,-0.385,-0.03
21:49:33.752,-0.395,-0.025
21:49:33.756,-0.385,-0.025
21:49:33.760,-0.415,-0.025
21:49:33.764,-0.415,-0.02
21:49:33.768,-0.39,-0.02
21:49:33.772,-0.37,0.0
21:49:33.776,-0.365,-0.025
21:49:33.780,-0.39,0.005
21:49:33.784,-0.385,0.0
21:49:33.788,-0.395,0.015
21:49:33.792,-0.39,0.07
21:49:33.796,-0.39,0.125
21:49:33.800,-0.41,0.145
21:49:33.804,-0.425,0.145
21:49:33.808,-0.415,0.135
21:49:33.812,-0.41,0.155
21:49:33.816,-0.435,0.135
21:49:33.820,-0.435,0.13
21:49:33.824,-0.435,0.135
21:49:33.828,-0.465,0.125
21:49:33.832,-0.445,0.145
21:49:33.836,-0.425,0.15
21:49:33.840,-0.42,0.15
21:49:33.844,-0.435,0.115
21:49:33.848,-0.42,0.15
21:49:33.852,-0.41,0.13
21:49:33.856,-0.385,0.13
21:49:33.860,-0.4,0.15
21:49:33.864,-0.405,0.15
21:49:33.868,-0.39,0.13
21:49:33.872,-0.365,0.135
21:49:33.876,-0.33,0.12
21:49:33.880,-0.325,0.125
21:49:33.884,-0.29,0.125
21:49:33.888,-0.28,0.11
21:49:33.892,-0.29,0.125
21:49:33.896,-0.265,0.115
21:49:33.900,-0.26,0.1
21:49:33.904,-0.255,0.1
21:49:33.908,-0.24,0.09
21:49:33.912,-0.235,0.08
21:49:33.916,-0.2,0.065
21:49:33.920,-0.19,0.07
21:49:33.924,-0.2,0.055
21:49:33.928,-0.195,0.055
21:49:33.932,-0.205,0.06
21:49:33.936,-0.2,0.05
21:49:33.940,-0.18,0.055
21:49:33.944,-0.18,0.05
21:49:33.948,-0.2,0.065
21:49:33.952,-0.19,0.04
21:49:33.956,-0.165,0.055
21:49:33.960,-0.18,0.04
21:49:33.964,-0.16,0.06
21:49:33.968,-0.175,0.06
21:49:33.972,-0.185,0.055
21:49:33.976,-0.16,0.05
21:49:33.980,-0.17,0.06
21:49:33.984,-0.15,0.08
21:49:33.988,-0.135,0.07
21:49:33.992,-0.14,0.08
21:49:33.996,-0.14,0.085
21:49:34.000,-0.125,0.08
21:49:34.004,-0.12,0.08
21:49:34.008,-0.12,0.07
21:49:34.012,-0.13,0.09
21:49:34.016,-0.11,0.1
21:49:34.020,-0.15,0.07
21:49:34.024,-0.15,0.095
21:49:34.028,-0.155,0.115
21:49:34.032,-0.145,0.1
21:49:34.036,-0.15,0.11
21:49:34.040,-0.165,0.115
21:49:34.044,-0.175,0.095
21:49:34.048,-0.16,0.07
21:49:34.052,-0.155,0.075
21:49:34.056,-0.17,0.075
21:49:34.060,-0.17,0.075
21:49:34.064,-0.17,0.08
21:49:34.068,-0.155,0.06
21:49:34.072,-0.15,0.085
21:49:34.076,-0.15,0.095
21:49:34.080,-0.1,0.095
21:49:34.084,-0.12,0.08
21:49:34.088,-0.11,0.105
21:49:34.092,-0.095,0.105
21:49:34.096,-0.08,0.1
21:49:34.100,-0.07,0.11
21:49:34.104,-0.015,0.115
21:49:34.108,0.02,0.12
21:49:34.112,0.045,0.135
21:49:34.116,0.065,0.14
21:49:34.120,0.08,0.175
21:49:34.124,0.11,0.15
21:49:34.128,0.145,0.17
21:49:34.132,0.15,0.155
21:49:34.136,0.155,0.13
21:49:34.140,0.11,0.125
21:49:34.144,0.07,0.105
21:49:34.148,0.005,0.07
21:49:34.152,-0.02,0.06
21:49:34.156,-0.075,0.055
21:49:34.160,-0.135,0.04
21:49:34.164,-0.175,0.04
21:49:34.168,-0.23,0.06
21:49:34.172,-0.26,0.08
21:49:34.176,-0.27,0.085
21:49:34.180,-0.275,0.075
21:49:34.184,-0.25,0.075
21:49:34.188,-0.255,0.06
21:49:34.192,-0.24,0.06
21:49:34.196,-0.235,0.04
21:49:34.200,-0.245,0.045
21:49:34.204,-0.215,0.045
21:49:34.208,-0.185,0.035
21:49:34.212,-0.205,0.04
21:49:34.216,-0.185,0.045
21:49:34.220,-0.17,0.04
21:49:34.224,-0.155,0.04
21:49:34.228,-0.155,0.035
21:49:34.232,-0.165,0.035
21:49:34.236,-0.185,0.055
21:49:34.240,-0.19,0.055
21:49:34.244,-0.17,0.035
21:49:34.248,-0.2,0.05
21:49:34.252,-0.22,0.055
21:49:34.256,-0.23,0.05
21:49:34.260,-0.21,0.035
21:49:34.264,-0.215,0.05
21:49:34.268,-0.22,0.05
21:49:34.272,-0.22,0.05
21:49:34.276,-0.195,0.035
21:49:34.280,-0.17,0.015
21:49:34.284,-0.11,0.015
21:49:34.288,-0.03,0.035
21:49:34.292,0.065,0.03
21:49:34.296,0.145,0.015
21:49:34.300,0.21,-0.02
21:49:34.304,0.26,-0.055
21:49:34.308,0.28,-0.105
21:49:34.312,0.29,-0.105
21:49:34.316,0.275,-0.1
21:49:34.320,0.275,-0.18
21:49:34.324,0.375,-0.315
21:49:34.328,0.65,-0.46
21:49:34.332,0.96,-0.715
21:49:34.336,1.175,-0.96
21:49:34.340,1.155,-1.14
21:49:34.344,0.84,-1.16
21:49:34.348,0.375,-0.895
21:49:34.352,-0.03,-0.505
21:49:34.356,-0.215,-0.225
21:49:34.360,-0.295,-0.06
21:49:34.364,-0.31,0.065
21:49:34.368,-0.355,0.11
21:49:34.372,-0.37,0.175
21:49:34.376,-0.39,0.165
21:49:34.380,-0.39,0.18
21:49:34.384,-0.4,0.185
21:49:34.388,-0.41,0.18
21:49:34.392,-0.415,0.125
21:49:34.396,-0.42,0.145
21:49:34.400,-0.425,0.145
21:49:34.404,-0.425,0.15
21:49:34.408,-0.4,0.12
21:49:34.412,-0.395,0.115
21:49:34.416,-0.4,0.115
21:49:34.420,-0.425,0.125
21:49:34.424,-0.425,0.085
21:49:34.428,-0.41,0.125
21:49:34.432,-0.395,0.12
21:49:34.436,-0.435,0.12
21:49:34.440,-0.42,0.095
21:49:34.444,-0.425,0.12
21:49:34.448,-0.435,0.115
21:49:34.452,-0.43,0.1
21:49:34.456,-0.42,0.11
21:49:34.460,-0.435,0.09
21:49:34.464,-0.45,0.095
21:49:34.468,-0.49,0.09
21:49:34.472,-0.475,0.08
21:49:34.476,-0.49,0.08
21:49:34.480,-0.5,0.085
21:49:34.484,-0.48,0.075
21:49:34.488,-0.465,0.06
21:49:34.492,-0.46,0.06
21:49:34.496,-0.47,0.095
21:49:34.500,-0.48,0.08
21:49:34.504,-0.48,0.065
21:49:34.508,-0.46,0.06
21:49:34.512,-0.46,0.07
21:49:34.516,-0.44,0.065
21:49:34.520,-0.44,0.055
21:49:34.524,-0.435,0.035
21:49:34.528,-0.43,0.035
21:49:34.532,-0.4,0.06
21:49:34.536,-0.375,0.04
21:49:34.540,-0.355,0.025
21:49:34.544,-0.355,0.02
21:49:34.548,-0.345,0.005
21:49:34.552,-0.34,0.015
21:49:34.556,-0.36,0.0
21:49:34.560,-0.355,-0.005
21:49:34.564,-0.32,-0.025
21:49:34.568,-0.32,-0.02
21:49:34.572,-0.31,-0.045
21:49:34.576,-0.31,-0.055
21:49:34.580,-0.295,-0.05
21:49:34.584,-0.27,-0.06
21:49:34.588,-0.275,-0.075
21:49:34.592,-0.26,-0.075
21:49:34.596,-0.235,-0.08
21:49:34.600,-0.23,-0.09
21:49:34.604,-0.275,-0.1
21:49:34.608,-0.275,-0.1
21:49:34.612,-0.245,-0.08
21:49:34.616,-0.225,-0.08
21:49:34.620,-0.185,-0.1
21:49:34.624,-0.185,-0.11
21:49:34.628,-0.185,-0.105
21:49:34.632,-0.215,-0.135
21:49:34.636,-0.195,-0.11
21:49:34.640,-0.19,-0.11
21:49:34.644,-0.205,-0.105
21:49:34.648,-0.195,-0.1
21:49:34.652,-0.205,-0.115
21:49:34.656,-0.185,-0.13
21:49:34.660,-0.21,-0.115
21:49:34.664,-0.19,-0.12
21:49:34.668,-0.195,-0.125
21:49:34.672,-0.225,-0.13
21:49:34.676,-0.235,-0.135
21:49:34.680,-0.215,-0.115
21:49:34.684,-0.23,-0.115
21:49:34.688,-0.24,-0.12
21:49:34.692,-0.25,-0.125
21:49:34.696,-0.235,-0.13
21:49:34.700,-0.21,-0.13
21:49:34.704,-0.235,-0.155
21:49:34.708,-0.235,-0.135
21:49:34.712,-0.25,-0.155
21:49:34.716,-0.24,-0.145
21:49:34.720,-0.255,-0.16
21:49:34.724,-0.225,-0.16
21:49:34.728,-0.23,-0.17
21:49:34.732,-0.205,-0.175
21:49:34.736,-0.18,-0.185
21:49:34.740,-0.18,-0.18
21:49:34.744,-0.195,-0.17
21:49:34.748,-0.195,-0.17
21:49:34.752,-0.155,-0.19
21:49:34.756,-0.15,-0.16
21:49:34.760,-0.12,-0.15
21:49:34.764,-0.1,-0.145
21:49:34.768,-0.075,-0.15
21:49:34.772,-0.02,-0.15
21:49:34.776,0.0,-0.135
21:49:34.780,0.03,-0.135
21:49:34.784,0.07,-0.145
21:49:34.788,0.06,-0.13
21:49:34.792,0.07,-0.145
21:49:34.796,0.05,-0.15
21:49:34.800,0.005,-0.195
21:49:34.804,-0.02,-0.215
21:49:34.808,-0.065,-0.255
21:49:34.812,-0.12,-0.27
21:49:34.816,-0.195,-0.285
21:49:34.820,-0.285,-0.28
21:49:34.824,-0.32,-0.29
21:49:34.828,-0.335,-0.27
21:49:34.832,-0.35,-0.255
21:49:34.836,-0.35,-0.26
21:49:34.840,-0.34,-0.275
21:49:34.844,-0.325,-0.27
21:49:34.848,-0.33,-0.275
21:49:34.852,-0.33,-0.28
21:49:34.856,-0.34,-0.305
21:49:34.860,-0.32,-0.3
21:49:34.864,-0.29,-0.28
21:49:34.868,-0.27,-0.3
21:49:34.872,-0.29,-0.305
21:49:34.876,-0.3,-0.285
21:49:34.880,-0.325,-0.31
21:49:34.884,-0.315,-0.315
21:49:34.888,-0.32,-0.325
21:49:34.892,-0.3,-0.33
21:49:34.896,-0.315,-0.34
21:49:34.900,-0.31,-0.32
21:49:34.904,-0.315,-0.315
21:49:34.908,-0.31,-0.325
21:49:34.912,-0.305,-0.335
21:49:34.916,-0.295,-0.35
21:49:34.920,-0.315,-0.36
21:49:34.924,-0.31,-0.37
21:49:34.928,-0.305,-0.345
21:49:34.932,-0.275,-0.37
21:49:34.936,-0.255,-0.355
21:49:34.940,-0.2,-0.345
21:49:34.944,-0.12,-0.355
21:49:34.948,-0.02,-0.385
21:49:34.952,0.065,-0.365
21:49:34.956,0.145,-0.405
21:49:34.960,0.215,-0.44
21:49:34.964,0.285,-0.49
21:49:34.968,0.355,-0.48
21:49:34.972,0.33,-0.485
21:49:34.976,0.29,-0.53
21:49:34.980,0.315,-0.585
21:49:34.984,0.465,-0.685
21:49:34.988,0.725,-0.87
21:49:34.992,0.995,-1.09
21:49:34.996,1.16,-1.305
21:49:35.000,1.0,-1.43
21:49:35.004,0.585,-1.4
21:49:35.008,0.14,-1.15
21:49:35.012,-0.13,-0.835
21:49:35.016,-0.245,-0.655
21:49:35.020,-0.29,-0.55
21:49:35.024,-0.305,-0.44
21:49:35.028,-0.335,-0.375
21:49:35.032,-0.37,-0.345
21:49:35.036,-0.41,-0.34
21:49:35.040,-0.42,-0.36
21:49:35.044,-0.445,-0.38
21:49:35.048,-0.445,-0.39
21:49:35.052,-0.455,-0.405
21:49:35.056,-0.435,-0.415
21:49:35.060,-0.42,-0.435
21:49:35.064,-0.41,-0.435
21:49:35.068,-0.43,-0.445
21:49:35.072,-0.445,-0.44
21:49:35.076,-0.45,-0.435
21:49:35.080,-0.46,-0.45
21:49:35.084,-0.44,-0.44
21:49:35.088,-0.445,-0.43
21:49:35.092,-0.435,-0.44
21:49:35.096,-0.445,-0.43
21:49:35.100,-0.46,-0.42
21:49:35.104,-0.47,-0.43
21:49:35.108,-0.49,-0.44
21:49:35.112,-0.48,-0.445
21:49:35.116,-0.49,-0.44
21:49:35.120,-0.49,-0.445
21:49:35.124,-0.495,-0.475
21:49:35.128,-0.495,-0.45
21:49:35.132,-0.51,-0.46
21:49:35.136,-0.505,-0.435
21:49:35.140,-0.49,-0.43
21:49:35.144,-0.48,-0.44
21:49:35.148,-0.49,-0.44
21:49:35.152,-0.49,-0.4
21:49:35.156,-0.51,-0.41
21:49:35.160,-0.5,-0.385
21:49:35.164,-0.51,-0.375
21:49:35.168,-0.475,-0.365
21:49:35.172,-0.455,-0.375
21:49:35.176,-0.475,-0.37
21:49:35.180,-0.46,-0.39
21:49:35.184,-0.47,-0.38
21:49:35.188,-0.45,-0.355
21:49:35.192,-0.435,-0.375
21:49:35.196,-0.43,-0.36
21:49:35.200,-0.41,-0.36
21:49:35.204,-0.405,-0.36
21:49:35.208,-0.395,-0.345
21:49:35.212,-0.39,-0.355
21:49:35.216,-0.365,-0.36
21:49:35.220,-0.365,-0.345
21:49:35.224,-0.365,-0.365
21:49:35.228,-0.345,-0.365
21:49:35.232,-0.315,-0.35
21:49:35.236,-0.295,-0.375
21:49:35.240,-0.285,-0.38
21:49:35.244,-0.265,-0.415
21:49:35.248,-0.28,-0.39
21:49:35.252,-0.26,-0.4
21:49:35.256,-0.25,-0.39
21:49:35.260,-0.245,-0.39
21:49:35.264,-0.225,-0.38
21:49:35.268,-0.23,-0.355
21:49:35.272,-0.22,-0.375
21:49:35.276,-0.195,-0.38
21:49:35.280,-0.175,-0.355
21:49:35.284,-0.185,-0.33
21:49:35.288,-0.18,-0.345
21:49:35.292,-0.175,-0.32
21:49:35.296,-0.185,-0.335
21:49:35.300,-0.185,-0.3
21:49:35.304,-0.195,-0.3
21:49:35.308,-0.17,-0.275
21:49:35.312,-0.195,-0.275
21:49:35.316,-0.18,-0.25
21:49:35.320,-0.19,-0.245
21:49:35.324,-0.18,-0.26
21:49:35.328,-0.21,-0.25
21:49:35.332,-0.21,-0.24
21:49:35.336,-0.195,-0.215
21:49:35.340,-0.185,-0.215
21:49:35.344,-0.2,-0.22
21:49:35.348,-0.19,-0.22
21:49:35.352,-0.195,-0.225
21:49:35.356,-0.21,-0.215
21:49:35.360,-0.23,-0.195
21:49:35.364,-0.225,-0.2
21:49:35.368,-0.22,-0.19
21:49:35.372,-0.22,-0.19
21:49:35.376,-0.21,-0.185
21:49:35.380,-0.21,-0.17
21:49:35.384,-0.205,-0.185
21:49:35.388,-0.185,-0.165
21:49:35.392,-0.17,-0.18
21:49:35.396,-0.16,-0.17
21:49:35.400,-0.15,-0.16
21:49:35.404,-0.15,-0.15
21:49:35.408,-0.13,-0.14
21:49:35.412,-0.14,-0.14
21:49:35.416,-0.115,-0.125
21:49:35.420,-0.09,-0.12
21:49:35.424,-0.06,-0.125
21:49:35.428,-0.02,-0.105
21:49:35.432,0.015,-0.095
21:49:35.436,0.035,-0.09
21:49:35.440,0.06,-0.07
21:49:35.444,0.095,-0.075
21:49:35.448,0.11,-0.05
21:49:35.452,0.13,-0.075
21:49:35.456,0.14,-0.08
21:49:35.460,0.1,-0.12
21:49:35.464,0.04,-0.145
21:49:35.468,0.015,-0.16
21:49:35.472,-0.035,-0.15
21:49:35.476,-0.1,-0.16
21:49:35.480,-0.165,-0.16
21:49:35.484,-0.2,-0.15
21:49:35.488,-0.23,-0.13
21:49:35.492,-0.255,-0.13
21:49:35.496,-0.26,-0.095
21:49:35.500,-0.275,-0.085
21:49:35.504,-0.255,-0.115
21:49:35.508,-0.275,-0.11
21:49:35.512,-0.255,-0.11
21:49:35.516,-0.245,-0.11
21:49:35.520,-0.22,-0.105
21:49:35.524,-0.225,-0.11
21:49:35.528,-0.23,-0.125
21:49:35.532,-0.23,-0.13
21:49:35.536,-0.24,-0.115
21:49:35.540,-0.25,-0.125
21:49:35.544,-0.25,-0.105
21:49:35.548,-0.27,-0.115
21:49:35.552,-0.25,-0.12
21:49:35.556,-0.25,-0.13
21:49:35.560,-0.24,-0.12
21:49:35.564,-0.24,-0.12
21:49:35.568,-0.25,-0.13
21:49:35.572,-0.245,-0.1
21:49:35.576,-0.24,-0.13
21:49:35.580,-0.22,-0.11
21:49:35.584,-0.215,-0.115
21:49:35.588,-0.225,-0.11
21:49:35.592,-0.215,-0.1
21:49:35.596,-0.2,-0.115
21:49:35.600,-0.16,-0.12
21:49:35.604,-0.115,-0.12
21:49:35.608,-0.03,-0.12
21:49:35.612,0.05,-0.13
21:49:35.616,0.15,-0.155
21:49:35.620,0.22,-0.19
21:49:35.624,0.285,-0.24
21:49:35.628,0.33,-0.265
21:49:35.632,0.355,-0.27
21:49:35.636,0.36,-0.285
21:49:35.640,0.335,-0.33
21:49:35.644,0.42,-0.45
21:49:35.648,0.6,-0.63
21:49:35.652,0.91,-0.825
21:49:35.656,1.19,-1.065
21:49:35.660,1.23,-1.265
21:49:35.664,0.995,-1.33
21:49:35.668,0.525,-1.175
21:49:35.672,0.11,-0.815
21:49:35.676,-0.135,-0.47
21:49:35.680,-0.225,-0.29
21:49:35.684,-0.265,-0.135
21:49:35.688,-0.3,-0.08
21:49:35.692,-0.33,-0.01
21:49:35.696,-0.34,0.0
21:49:35.700,-0.34,0.01
21:49:35.704,-0.36,0.0
21:49:35.708,-0.345,0.0
21:49:35.712,-0.335,-0.015
21:49:35.716,-0.365,-0.035
21:49:35.720,-0.36,-0.015
21:49:35.724,-0.35,-0.025
21:49:35.728,-0.365,-0.035
21:49:35.732,-0.375,-0.03
21:49:35.736,-0.37,-0.03
21:49:35.740,-0.355,-0.025
21:49:35.744,-0.365,-0.02
21:49:35.748,-0.365,-0.035
21:49:35.752,-0.365,-0.045
21:49:35.756,-0.39,-0.06
21:49:35.760,-0.39,-0.02
21:49:35.764,-0.405,-0.03
21:49:35.768,-0.4,-0.05
21:49:35.772,-0.4,-0.04
21:49:35.776,-0.425,-0.05
21:49:35.780,-0.42,-0.065
21:49:35.784,-0.41,-0.07
21:49:35.788,-0.4,-0.05
21:49:35.792,-0.395,-0.055
21:49:35.796,-0.415,-0.06
21:49:35.800,-0.425,-0.05
21:49:35.804,-0.43,-0.065
21:49:35.808,-0.445,-0.05
21:49:35.812,-0.44,-0.045
21:49:35.816,-0.425,-0.035
21:49:35.820,-0.43,-0.03
21:49:35.824,-0.41,-0.04
21:49:35.828,-0.395,-0.03
21:49:35.832,-0.39,-0.03
21:49:35.836,-0.395,-0.04
21:49:35.840,-0.38,-0.025
21:49:35.844,-0.38,-0.01
21:49:35.848,-0.365,-0.035
21:49:35.852,-0.36,-0.035
21:49:35.856,-0.35,-0.025
21:49:35.860,-0.34,-0.045
21:49:35.864,-0.32,-0.075
21:49:35.868,-0.315,-0.06
21:49:35.872,-0.3,-0.06
21:49:35.876,-0.285,-0.065
21:49:35.880,-0.27,-0.06
21:49:35.884,-0.25,-0.085
21:49:35.888,-0.255,-0.085
21:49:35.892,-0.23,-0.085
21:49:35.896,-0.205,-0.11
21:49:35.900,-0.2,-0.125
21:49:35.904,-0.185,-0.125
21:49:35.908,-0.2,-0.14
21:49:35.912,-0.175,-0.13
21:49:35.916,-0.165,-0.12
21:49:35.920,-0.17,-0.12
21:49:35.924,-0.155,-0.14
21:49:35.928,-0.135,-0.13
21:49:35.932,-0.11,-0.12
21:49:35.936,-0.125,-0.115
21:49:35.940,-0.11,-0.125
21:49:35.944,-0.11,-0.13
21:49:35.948,-0.115,-0.125
21:49:35.952,-0.135,-0.11
21:49:35.956,-0.115,-0.105
21:49:35.960,-0.11,-0.115
21:49:35.964,-0.09,-0.105
21:49:35.968,-0.115,-0.09
21:49:35.972,-0.13,-0.08
21:49:35.976,-0.145,-0.11
21:49:35.980,-0.13,-0.105
21:49:35.984,-0.13,-0.09
21:49:35.988,-0.13,-0.08
21:49:35.992,-0.125,-0.07
21:49:35.996,-0.145,-0.075
21:49:36.000,-0.14,-0.085
21:49:36.004,-0.135,-0.065
21:49:36.008,-0.14,-0.065
21:49:36.012,-0.145,-0.07
21:49:36.016,-0.15,-0.07
21:49:36.020,-0.14,-0.08
21:49:36.024,-0.13,-0.07
21:49:36.028,-0.13,-0.06
21:49:36.032,-0.105,-0.06
21:49:36.036,-0.09,-0.055
21:49:36.040,-0.09,-0.05
21:49:36.044,-0.06,-0.05
21:49:36.048,-0.05,-0.04
21:49:36.052,-0.08,-0.03
21:49:36.056,-0.03,-0.03
21:49:36.060,0.0,-0.01
21:49:36.064,0.045,0.0
21:49:36.068,0.05,0.02
21:49:36.072,0.09,0.0
21:49:36.076,0.095,-0.005
21:49:36.080,0.115,0.005
21:49:36.084,0.125,0.015
21:49:36.088,0.14,-0.01
21:49:36.092,0.15,-0.03
21:49:36.096,0.11,-0.04
21:49:36.100,0.075,-0.07
21:49:36.104,0.02,-0.08
21:49:36.108,-0.02,-0.105
21:49:36.112,-0.06,-0.105
21:49:36.116,-0.13,-0.11
21:49:36.120,-0.155,-0.1
21:49:36.124,-0.2,-0.08
21:49:36.128,-0.23,-0.05
21:49:36.132,-0.245,-0.05
21:49:36.136,-0.23,-0.08
21:49:36.140,-0.21,-0.065
21:49:36.144,-0.195,-0.08
21:49:36.148,-0.22,-0.095
21:49:36.152,-0.21,-0.1
21:49:36.156,-0.19,-0.09
21:49:36.160,-0.2,-0.1
21:49:36.164,-0.2,-0.095
21:49:36.168,-0.2,-0.08
21:49:36.172,-0.175,-0.06
21:49:36.176,-0.185,-0.075
21:49:36.180,-0.18,-0.095
21:49:36.184,-0.19,-0.105
21:49:36.188,-0.185,-0.1
21:49:36.192,-0.185,-0.095
21:49:36.196,-0.22,-0.095
21:49:36.200,-0.19,-0.12
21:49:36.204,-0.19,-0.12
21:49:36.208,-0.18,-0.12
21:49:36.212,-0.17,-0.13
21:49:36.216,-0.205,-0.115
21:49:36.220,-0.165,-0.12
21:49:36.224,-0.18,-0.125
21:49:36.228,-0.175,-0.13
21:49:36.232,-0.16,-0.12
21:49:36.236,-0.14,-0.125
21:49:36.240,-0.085,-0.115
21:49:36.244,-0.02,-0.135
21:49:36.248,0.08,-0.12
21:49:36.252,0.17,-0.135
21:49:36.256,0.245,-0.155
21:49:36.260,0.275,-0.175
21:49:36.264,0.3,-0.225
21:49:36.268,0.325,-0.225
21:49:36.272,0.315,-0.25
21:49:36.276,0.295,-0.32
21:49:36.280,0.375,-0.41
21:49:36.284,0.565,-0.545
21:49:36.288,0.885,-0.76
21:49:36.292,1.145,-1.01
21:49:36.296,1.2,-1.21
21:49:36.300,0.995,-1.295
21:49:36.304,0.55,-1.145
21:49:36.308,0.125,-0.775
21:49:36.312,-0.125,-0.455
21:49:36.316,-0.22,-0.265
21:49:36.320,-0.24,-0.135
21:49:36.324,-0.26,-0.045
21:49:36.328,-0.285,0.01
21:49:36.332,-0.305,0.045
21:49:36.336,-0.32,0.04
21:49:36.340,-0.315,0.035
21:49:36.344,-0.315,0.02
21:49:36.348,-0.32,0.02
21:49:36.352,-0.325,0.0
21:49:36.356,-0.315,0.0
21:49:36.360,-0.325,0.0
21:49:36.364,-0.32,0.01
21:49:36.368,-0.305,0.0
21:49:36.372,-0.33,0.0
21:49:36.376,-0.33,0.005
21:49:36.380,-0.31,0.02
21:49:36.384,-0.32,0.0
21:49:36.388,-0.33,0.02
21:49:36.392,-0.33,0.035
21:49:36.396,-0.35,0.025
21:49:36.400,-0.35,0.0
21:49:36.404,-0.345,0.025
21:49:36.408,-0.365,0.015
21:49:36.412,-0.38,0.035
21:49:36.416,-0.37,0.0
21:49:36.420,-0.365,0.0
21:49:36.424,-0.37,0.0
21:49:36.428,-0.41,0.02
21:49:36.432,-0.39,0.005
21:49:36.436,-0.395,0.0
21:49:36.440,-0.405,0.0
21:49:36.444,-0.425,0.01
21:49:36.448,-0.405,0.03
21:49:36.452,-0.41,0.02
21:49:36.456,-0.405,0.035
21:49:36.460,-0.395,0.03
21:49:36.464,-0.38,0.03
21:49:36.468,-0.38,0.025
21:49:36.472,-0.37,0.03
21:49:36.476,-0.355,0.03
21:49:36.480,-0.34,0.01
21:49:36.484,-0.33,0.02
21:49:36.488,-0.325,-0.005
21:49:36.492,-0.325,0.025
21:49:36.496,-0.32,0.015
21:49:36.500,-0.315,0.005
21:49:36.504,-0.295,-0.005
21:49:36.508,-0.28,-0.02
21:49:36.512,-0.26,-0.02
21:49:36.516,-0.26,-0.025
21:49:36.520,-0.255,-0.055
21:49:36.524,-0.26,-0.035
21:49:36.528,-0.245,-0.06
21:49:36.532,-0.24,-0.06
21:49:36.536,-0.215,-0.09
21:49:36.540,-0.22,-0.095
21:49:36.544,-0.21,-0.08
21:49:36.548,-0.185,-0.09
21:49:36.552,-0.18,-0.085
21:49:36.556,-0.2,-0.09
21:49:36.560,-0.21,-0.105
21:49:36.564,-0.165,-0.09
21:49:36.568,-0.16,-0.095
21:49:36.572,-0.15,-0.1
21:49:36.576,-0.15,-0.09
21:49:36.580,-0.145,-0.08
21:49:36.584,-0.14,-0.085
21:49:36.588,-0.13,-0.1
21:49:36.592,-0.12,-0.08
21:49:36.596,-0.13,-0.07
21:49:36.600,-0.13,-0.07
21:49:36.604,-0.14,-0.07
21:49:36.608,-0.13,-0.065
21:49:36.612,-0.145,-0.065
21:49:36.616,-0.145,-0.045
21:49:36.620,-0.15,-0.055
21:49:36.624,-0.155,-0.07
21:49:36.628,-0.16,-0.055
21:49:36.632,-0.17,-0.07
21:49:36.636,-0.175,-0.08
21:49:36.640,-0.175,-0.06
21:49:36.644,-0.175,-0.065
21:49:36.648,-0.175,-0.075
21:49:36.652,-0.18,-0.08
21:49:36.656,-0.185,-0.06
21:49:36.660,-0.18,-0.065
21:49:36.664,-0.185,-0.055
21:49:36.668,-0.195,-0.06
21:49:36.672,-0.215,-0.065
21:49:36.676,-0.2,-0.05
21:49:36.680,-0.17,-0.05
21:49:36.684,-0.21,-0.045
21:49:36.688,-0.195,-0.04
21:49:36.692,-0.21,-0.035
21:49:36.696,-0.205,-0.05
21:49:36.700,-0.205,-0.045
21:49:36.704,-0.205,-0.04
21:49:36.708,-0.195,-0.035
21:49:36.712,-0.205,-0.025
21:49:36.716,-0.2,-0.03
21:49:36.720,-0.17,-0.035
21:49:36.724,-0.155,-0.035
21:49:36.728,-0.16,-0.045
21:49:36.732,-0.15,-0.045
21:49:36.736,-0.135,-0.06
21:49:36.740,-0.17,-0.05
21:49:36.744,-0.145,-0.03
21:49:36.748,-0.115,-0.03
21:49:36.752,-0.075,-0.025
21:49:36.756,-0.05,-0.015
21:49:36.760,-0.03,0.015
21:49:36.764,0.005,0.015
21:49:36.768,0.02,0.01
21:49:36.772,0.06,0.035
21:49:36.776,0.09,0.035
21:49:36.780,0.08,0.025
21:49:36.784,0.085,0.01
21:49:36.788,0.03,-0.01
21:49:36.792,0.0,-0.03
21:49:36.796,-0.045,-0.055
21:49:36.800,-0.095,-0.045
21:49:36.804,-0.15,-0.06
21:49:36.808,-0.205,-0.055
21:49:36.812,-0.25,-0.025
21:49:36.816,-0.275,-0.035
21:49:36.820,-0.32,0.0
21:49:36.824,-0.325,-0.005
21:49:36.828,-0.335,0.0
21:49:36.832,-0.32,-0.025
21:49:36.836,-0.29,-0.01
21:49:36.840,-0.325,-0.015
21:49:36.844,-0.305,-0.025
21:49:36.848,-0.315,-0.015
21:49:36.852,-0.31,-0.03
21:49:36.856,-0.32,-0.035
21:49:36.860,-0.33,-0.03
21:49:36.864,-0.31,-0.065
21:49:36.868,-0.315,-0.05
21:49:36.872,-0.325,-0.065
21:49:36.876,-0.305,-0.06
21:49:36.880,-0.31,-0.065
21:49:36.884,-0.29,-0.06
21:49:36.888,-0.29,-0.085
21:49:36.892,-0.3,-0.045
21:49:36.896,-0.285,-0.085
21:49:36.900,-0.245,-0.065
21:49:36.904,-0.275,-0.06
21:49:36.908,-0.285,-0.07
21:49:36.912,-0.26,-0.06
21:49:36.916,-0.26,-0.06
21:49:36.920,-0.24,-0.06
21:49:36.924,-0.22,-0.06
21:49:36.928,-0.17,-0.085
21:49:36.932,-0.12,-0.08
21:49:36.936,-0.025,-0.08
21:49:36.940,0.065,-0.105
21:49:36.944,0.13,-0.115
21:49:36.948,0.185,-0.16
21:49:36.952,0.24,-0.18
21:49:36.956,0.27,-0.22
21:49:36.960,0.26,-0.215
21:49:36.964,0.245,-0.26
21:49:36.968,0.3,-0.365
21:49:36.972,0.465,-0.5
21:49:36.976,0.79,-0.685
21:49:36.980,1.065,-0.945
21:49:36.984,1.145,-1.13
21:49:36.988,0.93,-1.28
21:49:36.992,0.505,-1.14
21:49:36.996,0.06,-0.81
21:49:37.000,-0.175,-0.5
21:49:37.004,-0.27,-0.285
21:49:37.008,-0.295,-0.17
21:49:37.012,-0.31,-0.08
21:49:37.016,-0.33,-0.04
21:49:37.020,-0.36,-0.015
21:49:37.024,-0.38,-0.015
21:49:37.028,-0.39,-0.015
21:49:37.032,-0.395,-0.03
21:49:37.036,-0.405,-0.06
21:49:37.040,-0.41,-0.05
21:49:37.044,-0.435,-0.085
21:49:37.048,-0.455,-0.095
21:49:37.052,-0.455,-0.09
21:49:37.056,-0.475,-0.105
21:49:37.060,-0.465,-0.105
21:49:37.064,-0.455,-0.1
21:49:37.068,-0.45,-0.08
21:49:37.072,-0.445,-0.11
21:49:37.076,-0.43,-0.105
21:49:37.080,-0.445,-0.115
21:49:37.084,-0.455,-0.1
21:49:37.088,-0.46,-0.115
21:49:37.092,-0.45,-0.105
21:49:37.096,-0.45,-0.13
21:49:37.100,-0.465,-0.13
21:49:37.104,-0.48,-0.14
21:49:37.108,-0.485,-0.145
21:49:37.112,-0.495,-0.15
21:49:37.116,-0.475,-0.14
21:49:37.120,-0.475,-0.125
21:49:37.124,-0.455,-0.125
21:49:37.128,-0.44,-0.13
21:49:37.132,-0.465,-0.125
21:49:37.136,-0.47,-0.12
21:49:37.140,-0.48,-0.11
21:49:37.144,-0.46,-0.12
21:49:37.148,-0.445,-0.13
21:49:37.152,-0.45,-0.12
21:49:37.156,-0.45,-0.155
21:49:37.160,-0.46,-0.14
21:49:37.164,-0.465,-0.135
21:49:37.168,-0.465,-0.155
21:49:37.172,-0.45,-0.165
21:49:37.176,-0.415,-0.155
21:49:37.180,-0.43,-0.15
21:49:37.184,-0.42,-0.16
21:49:37.188,-0.39,-0.17
21:49:37.192,-0.385,-0.19
21:49:37.196,-0.385,-0.205
21:49:37.200,-0.365,-0.19
21:49:37.204,-0.375,-0.205
21:49:37.208,-0.355,-0.215
21:49:37.212,-0.325,-0.21
21:49:37.216,-0.32,-0.23
21:49:37.220,-0.31,-0.24
21:49:37.224,-0.3,-0.25
21:49:37.228,-0.255,-0.24
21:49:37.232,-0.255,-0.24
21:49:37.236,-0.245,-0.25
21:49:37.240,-0.22,-0.265
21:49:37.244,-0.235,-0.27
21:49:37.248,-0.25,-0.26
21:49:37.252,-0.23,-0.26
21:49:37.256,-0.195,-0.29
21:49:37.260,-0.195,-0.28
21:49:37.264,-0.205,-0.28
21:49:37.268,-0.22,-0.275
21:49:37.272,-0.225,-0.295
21:49:37.276,-0.225,-0.28
21:49:37.280,-0.21,-0.29
21:49:37.284,-0.205,-0.295
21:49:37.288,-0.225,-0.305
21:49:37.292,-0.21,-0.315
21:49:37.296,-0.235,-0.31
21:49:37.300,-0.21,-0.33
21:49:37.304,-0.21,-0.32
21:49:37.308,-0.22,-0.315
21:49:37.312,-0.22,-0.3
21:49:37.316,-0.235,-0.28
21:49:37.320,-0.225,-0.3
21:49:37.324,-0.225,-0.305
21:49:37.328,-0.205,-0.295
21:49:37.332,-0.205,-0.32
21:49:37.336,-0.22,-0.305
21:49:37.340,-0.24,-0.305
21:49:37.344,-0.23,-0.3
21:49:37.348,-0.21,-0.315
21:49:37.352,-0.195,-0.32
21:49:37.356,-0.19,-0.32
21:49:37.360,-0.21,-0.32
21:49:37.364,-0.215,-0.325
21:49:37.368,-0.235,-0.35
21:49:37.372,-0.255,-0.34
21:49:37.376,-0.265,-0.34
21:49:37.380,-0.265,-0.33
21:49:37.384,-0.25,-0.35
21:49:37.388,-0.23,-0.375
21:49:37.392,-0.245,-0.365
21:49:37.396,-0.235,-0.375
21:49:37.400,-0.24,-0.4
21:49:37.404,-0.2,-0.39
21:49:37.408,-0.21,-0.41
21:49:37.412,-0.22,-0.42
21:49:37.416,-0.19,-0.4
21:49:37.420,-0.17,-0.43
21:49:37.424,-0.12,-0.405
21:49:37.428,-0.095,-0.405
21:49:37.432,-0.04,-0.395
21:49:37.436,0.0,-0.4
21:49:37.440,0.04,-0.4
21:49:37.444,0.08,-0.405
21:49:37.448,0.105,-0.38
21:49:37.452,0.095,-0.39
21:49:37.456,0.085,-0.41
21:49:37.460,0.05,-0.435
21:49:37.464,0.0,-0.455
21:49:37.468,-0.05,-0.47
21:49:37.472,-0.11,-0.49
21:49:37.476,-0.165,-0.5
21:49:37.480,-0.225,-0.495
21:49:37.484,-0.265,-0.49
21:49:37.488,-0.3,-0.495
21:49:37.492,-0.32,-0.465
21:49:37.496,-0.35,-0.48
21:49:37.500,-0.345,-0.495
21:49:37.504,-0.33,-0.495
21:49:37.508,-0.31,-0.505
21:49:37.512,-0.305,-0.51
21:49:37.516,-0.32,-0.54
21:49:37.520,-0.32,-0.535
21:49:37.524,-0.315,-0.545
21:49:37.528,-0.32,-0.55
21:49:37.532,-0.315,-0.55
21:49:37.536,-0.31,-0.555
21:49:37.540,-0.33,-0.53
21:49:37.544,-0.32,-0.55
21:49:37.548,-0.3,-0.56
21:49:37.552,-0.3,-0.56
21:49:37.556,-0.29,-0.555
21:49:37.560,-0.285,-0.535
21:49:37.564,-0.29,-0.54
21:49:37.568,-0.285,-0.545
21:49:37.572,-0.29,-0.555
21:49:37.576,-0.26,-0.535
21:49:37.580,-0.25,-0.505
21:49:37.584,-0.285,-0.525
21:49:37.588,-0.285,-0.505
21:49:37.592,-0.28,-0.515
21:49:37.596,-0.26,-0.5
21:49:37.600,-0.22,-0.515
21:49:37.604,-0.145,-0.5
21:49:37.608,-0.05,-0.51
21:49:37.612,0.075,-0.51
21:49:37.616,0.145,-0.535
21:49:37.620,0.215,-0.57
21:49:37.624,0.295,-0.625
21:49:37.628,0.34,-0.61
21:49:37.632,0.335,-0.61
21:49:37.636,0.285,-0.64
21:49:37.640,0.345,-0.695
21:49:37.644,0.53,-0.815
21:49:37.648,0.815,-0.985
21:49:37.652,1.09,-1.195
21:49:37.656,1.155,-1.385
21:49:37.660,0.96,-1.51
21:49:37.664,0.535,-1.38
21:49:37.668,0.095,-1.05
21:49:37.672,-0.14,-0.74
21:49:37.676,-0.225,-0.56
21:49:37.680,-0.27,-0.44
21:49:37.684,-0.3,-0.34
21:49:37.688,-0.35,-0.26
21:49:37.692,-0.38,-0.23
21:49:37.696,-0.405,-0.22
21:49:37.700,-0.425,-0.235
21:49:37.704,-0.435,-0.23
21:49:37.708,-0.44,-0.24
21:49:37.712,-0.455,-0.245
21:49:37.716,-0.45,-0.23
21:49:37.720,-0.47,-0.225
21:49:37.724,-0.465,-0.245
21:49:37.728,-0.47,-0.215
21:49:37.732,-0.475,-0.225
21:49:37.736,-0.465,-0.23
21:49:37.740,-0.475,-0.21
21:49:37.744,-0.48,-0.21
21:49:37.748,-0.48,-0.22
21:49:37.752,-0.48,-0.2
21:49:37.756,-0.48,-0.19
21:49:37.760,-0.47,-0.21
21:49:37.764,-0.465,-0.2
21:49:37.768,-0.48,-0.18
21:49:37.772,-0.48,-0.16
21:49:37.776,-0.49,-0.15
21:49:37.780,-0.48,-0.16
21:49:37.784,-0.5,-0.145
21:49:37.788,-0.505,-0.125
21:49:37.792,-0.485,-0.13
21:49:37.796,-0.505,-0.14
21:49:37.800,-0.5,-0.12
21:49:37.804,-0.495,-0.115
21:49:37.808,-0.53,-0.095
21:49:37.812,-0.53,-0.08
21:49:37.816,-0.54,-0.08
21:49:37.820,-0.55,-0.095
21:49:37.824,-0.52,-0.085
21:49:37.828,-0.51,-0.095
21:49:37.832,-0.505,-0.08
21:49:37.836,-0.51,-0.085
21:49:37.840,-0.485,-0.07
21:49:37.844,-0.475,-0.095
21:49:37.848,-0.485,-0.075
21:49:37.852,-0.45,-0.08
21:49:37.856,-0.435,-0.085
21:49:37.860,-0.435,-0.085
21:49:37.864,-0.42,-0.075
21:49:37.868,-0.4,-0.085
21:49:37.872,-0.36,-0.07
21:49:37.876,-0.345,-0.09
21:49:37.880,-0.34,-0.09
21:49:37.884,-0.3,-0.11
21:49:37.888,-0.28,-0.105
21:49:37.892,-0.285,-0.115
21:49:37.896,-0.28,-0.08
21:49:37.900,-0.25,-0.095
21:49:37.904,-0.25,-0.115
21:49:37.908,-0.24,-0.12
21:49:37.912,-0.22,-0.12
21:49:37.916,-0.24,-0.12
21:49:37.920,-0.24,-0.115
21:49:37.924,-0.235,-0.14
21:49:37.928,-0.215,-0.115
21:49:37.932,-0.2,-0.115
21:49:37.936,-0.185,-0.115
21:49:37.940,-0.19,-0.115
21:49:37.944,-0.21,-0.13
21:49:37.948,-0.21,-0.125
21:49:37.952,-0.19,-0.12
21:49:37.956,-0.195,-0.11
21:49:37.960,-0.22,-0.12
21:49:37.964,-0.2,-0.105
21:49:37.968,-0.195,-0.105
21:49:37.972,-0.2,-0.12
21:49:37.976,-0.195,-0.12
21:49:37.980,-0.19,-0.1
21:49:37.984,-0.175,-0.1
21:49:37.988,-0.195,-0.09
21:49:37.992,-0.18,-0.08
21:49:37.996,-0.185,-0.06
21:49:38.000,-0.2,-0.05
21:49:38.004,-0.175,-0.07
21:49:38.008,-0.2,-0.075
21:49:38.012,-0.185,-0.08
21:49:38.016,-0.195,-0.075
21:49:38.020,-0.185,-0.065
21:49:38.024,-0.19,-0.07
21:49:38.028,-0.21,-0.065
21:49:38.032,-0.205,-0.08
21:49:38.036,-0.21,-0.075
21:49:38.040,-0.21,-0.09
21:49:38.044,-0.205,-0.085
21:49:38.048,-0.185,-0.1
21:49:38.052,-0.16,-0.105
21:49:38.056,-0.15,-0.105
21:49:38.060,-0.13,-0.075
21:49:38.064,-0.125,-0.105
21:49:38.068,-0.11,-0.065
21:49:38.072,-0.1,-0.065
21:49:38.076,-0.03,-0.06
21:49:38.080,0.0,-0.05
21:49:38.084,0.045,-0.035
21:49:38.088,0.075,-0.02
21:49:38.092,0.1,-0.04
21:49:38.096,0.14,-0.015
21:49:38.100,0.165,-0.005
21:49:38.104,0.16,-0.025
21:49:38.108,0.155,-0.04
21:49:38.112,0.105,-0.05
21:49:38.116,0.07,-0.06
21:49:38.120,0.01,-0.065
21:49:38.124,-0.07,-0.1
21:49:38.128,-0.095,-0.07
21:49:38.132,-0.145,-0.085
21:49:38.136,-0.21,-0.09
21:49:38.140,-0.23,-0.075
21:49:38.144,-0.245,-0.04
21:49:38.148,-0.26,-0.04
21:49:38.152,-0.26,-0.06
21:49:38.156,-0.255,-0.095
21:49:38.160,-0.245,-0.075
21:49:38.164,-0.235,-0.09
21:49:38.168,-0.24,-0.105
21:49:38.172,-0.245,-0.11
21:49:38.176,-0.225,-0.1
21:49:38.180,-0.23,-0.105
21:49:38.184,-0.21,-0.095
21:49:38.188,-0.185,-0.1
21:49:38.192,-0.215,-0.09
21:49:38.196,-0.195,-0.095
21:49:38.200,-0.18,-0.115
21:49:38.204,-0.19,-0.1
21:49:38.208,-0.2,-0.105
21:49:38.212,-0.19,-0.085
21:49:38.216,-0.19,-0.095
21:49:38.220,-0.175,-0.09
21:49:38.224,-0.19,-0.105
21:49:38.228,-0.19,-0.095
21:49:38.232,-0.17,-0.09
21:49:38.236,-0.175,-0.115
21:49:38.240,-0.18,-0.115
21:49:38.244,-0.2,-0.11
21:49:38.248,-0.155,-0.12
21:49:38.252,-0.13,-0.12
21:49:38.256,-0.045,-0.11
21:49:38.260,0.045,-0.12
21:49:38.264,0.135,-0.13
21:49:38.268,0.185,-0.15
21:49:38.272,0.23,-0.215
21:49:38.276,0.27,-0.245
21:49:38.280,0.31,-0.24
21:49:38.284,0.31,-0.265
21:49:38.288,0.29,-0.295
21:49:38.292,0.365,-0.405
21:49:38.296,0.565,-0.565
21:49:38.300,0.875,-0.77
21:49:38.304,1.165,-1.0
21:49:38.308,1.28,-1.22
21:49:38.312,1.1,-1.335
21:49:38.316,0.67,-1.175
21:49:38.320,0.185,-0.84
21:49:38.324,-0.08,-0.48
21:49:38.328,-0.195,-0.245
21:49:38.332,-0.24,-0.13
21:49:38.336,-0.26,-0.04
21:49:38.340,-0.29,0.005
21:49:38.344,-0.315,0.025
21:49:38.348,-0.32,0.035
21:49:38.352,-0.33,0.05
21:49:38.356,-0.345,0.05
21:49:38.360,-0.345,0.02
21:49:38.364,-0.355,0.005
21:49:38.368,-0.365,-0.005
21:49:38.372,-0.38,-0.015
21:49:38.376,-0.355,0.0
21:49:38.380,-0.36,-0.015
21:49:38.384,-0.375,0.0
21:49:38.388,-0.37,0.005
21:49:38.392,-0.365,0.0
21:49:38.396,-0.375,-0.01
21:49:38.400,-0.37,0.005
21:49:38.404,-0.375,0.0
21:49:38.408,-0.36,0.015
21:49:38.412,-0.37,0.015
21:49:38.416,-0.375,0.01
21:49:38.420,-0.39,0.01
21:49:38.424,-0.365,0.025
21:49:38.428,-0.375,0.01
21:49:38.432,-0.38,0.015
21:49:38.436,-0.395,0.035
21:49:38.440,-0.405,0.01
21:49:38.444,-0.405,0.035
21:49:38.448,-0.41,0.025
21:49:38.452,-0.435,0.035
21:49:38.456,-0.425,0.04
21:49:38.460,-0.435,0.02
21:49:38.464,-0.435,0.03
21:49:38.468,-0.44,0.045
21:49:38.472,-0.42,0.035
21:49:38.476,-0.415,0.02
21:49:38.480,-0.41,0.02
21:49:38.484,-0.41,0.03
21:49:38.488,-0.4,0.02
21:49:38.492,-0.385,0.01
21:49:38.496,-0.37,0.035
21:49:38.500,-0.375,0.005
21:49:38.504,-0.365,0.0
21:49:38.508,-0.32,0.015
21:49:38.512,-0.31,-0.005
21:49:38.516,-0.295,-0.01
21:49:38.520,-0.29,-0.015
21:49:38.524,-0.29,-0.005
21:49:38.528,-0.265,-0.035
21:49:38.532,-0.25,-0.045
21:49:38.536,-0.255,-0.02
21:49:38.540,-0.22,-0.03
21:49:38.544,-0.235,-0.025
21:49:38.548,-0.215,-0.04
21:49:38.552,-0.2,-0.035
21:49:38.556,-0.19,-0.045
21:49:38.560,-0.215,-0.05
21:49:38.564,-0.215,-0.05
21:49:38.568,-0.2,-0.05
21:49:38.572,-0.175,-0.08
21:49:38.576,-0.19,-0.08
21:49:38.580,-0.185,-0.07
21:49:38.584,-0.185,-0.07
21:49:38.588,-0.185,-0.065
21:49:38.592,-0.16,-0.05
21:49:38.596,-0.165,-0.065
21:49:38.600,-0.185,-0.075
21:49:38.604,-0.175,-0.07
21:49:38.608,-0.185,-0.055
21:49:38.612,-0.175,-0.06
21:49:38.616,-0.15,-0.05
21:49:38.620,-0.15,-0.065
21:49:38.624,-0.145,-0.055
21:49:38.628,-0.15,-0.05
21:49:38.632,-0.15,-0.02
21:49:38.636,-0.145,-0.025
21:49:38.640,-0.135,-0.03
21:49:38.644,-0.145,-0.005
21:49:38.648,-0.155,-0.01
21:49:38.652,-0.16,-0.04
21:49:38.656,-0.16,-0.035
21:49:38.660,-0.165,-0.02
21:49:38.664,-0.18,-0.02
21:49:38.668,-0.16,-0.03
21:49:38.672,-0.18,-0.005
21:49:38.676,-0.19,-0.02
21:49:38.680,-0.15,-0.04
21:49:38.684,-0.15,-0.03
21:49:38.688,-0.16,-0.025
21:49:38.692,-0.155,-0.035
21:49:38.696,-0.155,-0.045
21:49:38.700,-0.13,-0.025
21:49:38.704,-0.115,-0.02
21:49:38.708,-0.09,-0.005
21:49:38.712,-0.045,0.02
21:49:38.716,-0.025,0.025
21:49:38.720,0.015,0.06
21:49:38.724,0.035,0.05
21:49:38.728,0.06,0.045
21:49:38.732,0.085,0.04
21:49:38.736,0.1,0.045
21:49:38.740,0.065,0.025
21:49:38.744,0.045,0.015
21:49:38.748,0.005,-0.03
21:49:38.752,-0.03,-0.045
21:49:38.756,-0.105,-0.035
21:49:38.760,-0.15,-0.025
21:49:38.764,-0.195,-0.03
21:49:38.768,-0.25,-0.015
21:49:38.772,-0.3,-0.025
21:49:38.776,-0.335,-0.01
21:49:38.780,-0.33,0.0
21:49:38.784,-0.33,-0.005
21:49:38.788,-0.32,-0.01
21:49:38.792,-0.32,-0.03
21:49:38.796,-0.315,-0.02
21:49:38.800,-0.315,-0.04
21:49:38.804,-0.305,-0.04
21:49:38.808,-0.295,-0.03
21:49:38.812,-0.295,-0.05
21:49:38.816,-0.27,-0.03
21:49:38.820,-0.27,-0.04
21:49:38.824,-0.27,-0.04
21:49:38.828,-0.285,-0.03
21:49:38.832,-0.27,-0.03
21:49:38.836,-0.24,-0.06
21:49:38.840,-0.23,-0.045
21:49:38.844,-0.24,-0.04
21:49:38.848,-0.215,-0.04
21:49:38.852,-0.22,-0.035
21:49:38.856,-0.225,-0.03
21:49:38.860,-0.24,-0.02
21:49:38.864,-0.25,-0.035
21:49:38.868,-0.25,-0.03
21:49:38.872,-0.25,-0.025
21:49:38.876,-0.24,-0.035
21:49:38.880,-0.195,-0.03
21:49:38.884,-0.16,-0.03
21:49:38.888,-0.12,-0.05
21:49:38.892,-0.04,-0.055
21:49:38.896,0.05,-0.05
21:49:38.900,0.13,-0.07
21:49:38.904,0.175,-0.115
21:49:38.908,0.205,-0.16
21:49:38.912,0.245,-0.18
21:49:38.916,0.245,-0.18
21:49:38.920,0.22,-0.205
21:49:38.924,0.265,-0.32
21:49:38.928,0.41,-0.455
21:49:38.932,0.72,-0.66
21:49:38.936,1.005,-0.88
21:49:38.940,1.145,-1.1
21:49:38.944,1.01,-1.23
21:49:38.948,0.58,-1.125
21:49:38.952,0.12,-0.8
21:49:38.956,-0.155,-0.41
21:49:38.960,-0.265,-0.16
21:49:38.964,-0.31,-0.03
21:49:38.968,-0.325,0.065
21:49:38.972,-0.37,0.14
21:49:38.976,-0.395,0.15
21:49:38.980,-0.415,0.17
21:49:38.984,-0.43,0.17
21:49:38.988,-0.455,0.17
21:49:38.992,-0.44,0.13
21:49:38.996,-0.44,0.105
21:49:39.000,-0.44,0.11
21:49:39.004,-0.46,0.11
21:49:39.008,-0.455,0.12
21:49:39.012,-0.465,0.115
21:49:39.016,-0.445,0.115
21:49:39.020,-0.43,0.105
21:49:39.024,-0.45,0.11
21:49:39.028,-0.445,0.11
21:49:39.032,-0.445,0.11
21:49:39.036,-0.45,0.125
21:49:39.040,-0.455,0.1
21:49:39.044,-0.45,0.115
21:49:39.048,-0.445,0.13
21:49:39.052,-0.475,0.125
21:49:39.056,-0.475,0.11
21:49:39.060,-0.48,0.11
21:49:39.064,-0.465,0.115
21:49:39.068,-0.48,0.125
21:49:39.072,-0.47,0.13
21:49:39.076,-0.47,0.125
21:49:39.080,-0.48,0.125
21:49:39.084,-0.51,0.125
21:49:39.088,-0.5,0.12
21:49:39.092,-0.49,0.115
21:49:39.096,-0.475,0.12
21:49:39.100,-0.515,0.1
21:49:39.104,-0.505,0.1
21:49:39.108,-0.495,0.11
21:49:39.112,-0.49,0.09
21:49:39.116,-0.5,0.095
21:49:39.120,-0.48,0.11
21:49:39.124,-0.465,0.095
21:49:39.128,-0.45,0.08
21:49:39.132,-0.445,0.07
21:49:39.136,-0.445,0.09
21:49:39.140,-0.43,0.075
21:49:39.144,-0.41,0.065
21:49:39.148,-0.385,0.06
21:49:39.152,-0.375,0.045
21:49:39.156,-0.365,0.04
21:49:39.160,-0.35,0.04
21:49:39.164,-0.35,0.06
21:49:39.168,-0.355,0.035
21:49:39.172,-0.33,0.025
21:49:39.176,-0.305,0.025
21:49:39.180,-0.32,0.04
21:49:39.184,-0.29,0.04
21:49:39.188,-0.29,0.04
21:49:39.192,-0.27,0.01
21:49:39.196,-0.27,-0.005
21:49:39.200,-0.26,0.01
21:49:39.204,-0.28,0.0
21:49:39.208,-0.275,-0.01
21:49:39.212,-0.255,-0.015
21:49:39.216,-0.245,-0.03
21:49:39.220,-0.24,-0.03
21:49:39.224,-0.215,-0.04
21:49:39.228,-0.225,-0.04
21:49:39.232,-0.24,-0.04
21:49:39.236,-0.24,-0.05
21:49:39.240,-0.25,-0.05
21:49:39.244,-0.215,-0.065
21:49:39.248,-0.25,-0.04
21:49:39.252,-0.23,-0.035
21:49:39.256,-0.215,-0.065
21:49:39.260,-0.225,-0.065
21:49:39.264,-0.205,-0.04
21:49:39.268,-0.215,-0.045
21:49:39.272,-0.215,-0.06
21:49:39.276,-0.21,-0.05
21:49:39.280,-0.22,-0.06
21:49:39.284,-0.235,-0.03
21:49:39.288,-0.22,-0.035
21:49:39.292,-0.215,-0.065
21:49:39.296,-0.23,-0.06
21:49:39.300,-0.245,-0.08
21:49:39.304,-0.215,-0.05
21:49:39.308,-0.215,-0.09
21:49:39.312,-0.245,-0.105
21:49:39.316,-0.255,-0.11
21:49:39.320,-0.265,-0.1
21:49:39.324,-0.255,-0.11
21:49:39.328,-0.26,-0.105
21:49:39.332,-0.27,-0.09
21:49:39.336,-0.275,-0.12
21:49:39.340,-0.25,-0.125
21:49:39.344,-0.24,-0.12
21:49:39.348,-0.235,-0.12
21:49:39.352,-0.235,-0.13
21:49:39.356,-0.26,-0.15
21:49:39.360,-0.25,-0.155
21:49:39.364,-0.22,-0.13
21:49:39.368,-0.185,-0.155
21:49:39.372,-0.17,-0.145
21:49:39.376,-0.175,-0.155
21:49:39.380,-0.155,-0.15
21:49:39.384,-0.115,-0.145
21:49:39.388,-0.065,-0.15
21:49:39.392,-0.035,-0.13
21:49:39.396,-0.02,-0.135
21:49:39.400,0.035,-0.115
21:49:39.404,0.05,-0.145
21:49:39.408,0.065,-0.14
21:49:39.412,0.075,-0.12
21:49:39.416,0.065,-0.14
21:49:39.420,0.04,-0.18
21:49:39.424,0.0,-0.175
21:49:39.428,-0.075,-0.23
21:49:39.432,-0.125,-0.23
21:49:39.436,-0.155,-0.26
21:49:39.440,-0.215,-0.25
21:49:39.444,-0.265,-0.275
21:49:39.448,-0.31,-0.25
21:49:39.452,-0.335,-0.235
21:49:39.456,-0.36,-0.23
21:49:39.460,-0.365,-0.22
21:49:39.464,-0.345,-0.22
21:49:39.468,-0.335,-0.245
21:49:39.472,-0.335,-0.25
21:49:39.476,-0.305,-0.235
21:49:39.480,-0.31,-0.235
21:49:39.484,-0.31,-0.275
21:49:39.488,-0.31,-0.27
21:49:39.492,-0.295,-0.26
21:49:39.496,-0.26,-0.265
21:49:39.500,-0.29,-0.26
21:49:39.504,-0.295,-0.275
21:49:39.508,-0.32,-0.275
21:49:39.512,-0.32,-0.275
21:49:39.516,-0.32,-0.315
21:49:39.520,-0.335,-0.32
21:49:39.524,-0.345,-0.33
21:49:39.528,-0.335,-0.33
21:49:39.532,-0.33,-0.35
21:49:39.536,-0.32,-0.35
21:49:39.540,-0.32,-0.365
21:49:39.544,-0.345,-0.36
21:49:39.548,-0.335,-0.37
21:49:39.552,-0.335,-0.375
21:49:39.556,-0.31,-0.4
21:49:39.560,-0.265,-0.4
21:49:39.564,-0.185,-0.405
21:49:39.568,-0.1,-0.395
21:49:39.572,0.005,-0.415
21:49:39.576,0.085,-0.415
21:49:39.580,0.18,-0.455
21:49:39.584,0.23,-0.51
21:49:39.588,0.305,-0.53
21:49:39.592,0.315,-0.53
21:49:39.596,0.31,-0.535
21:49:39.600,0.3,-0.585
21:49:39.604,0.37,-0.67
21:49:39.608,0.595,-0.81
21:49:39.612,0.88,-1.02
21:49:39.616,1.115,-1.25
21:49:39.620,1.09,-1.425
21:49:39.624,0.765,-1.47
21:49:39.628,0.285,-1.265
21:49:39.632,-0.065,-0.945
21:49:39.636,-0.215,-0.695
21:49:39.640,-0.305,-0.575
21:49:39.644,-0.35,-0.45
21:49:39.648,-0.37,-0.38
21:49:39.652,-0.415,-0.335
21:49:39.656,-0.45,-0.31
21:49:39.660,-0.475,-0.3
21:49:39.664,-0.495,-0.31
21:49:39.668,-0.495,-0.34
21:49:39.672,-0.5,-0.37
21:49:39.676,-0.505,-0.365
21:49:39.680,-0.495,-0.375
21:49:39.684,-0.515,-0.36
21:49:39.688,-0.505,-0.35
21:49:39.692,-0.515,-0.36
21:49:39.696,-0.49,-0.355
21:49:39.700,-0.475,-0.345
21:49:39.704,-0.485,-0.345
21:49:39.708,-0.475,-0.32
21:49:39.712,-0.49,-0.355
21:49:39.716,-0.515,-0.345
21:49:39.720,-0.52,-0.325
21:49:39.724,-0.505,-0.335
21:49:39.728,-0.515,-0.31
21:49:39.732,-0.52,-0.335
21:49:39.736,-0.52,-0.33
21:49:39.740,-0.525,-0.335
21:49:39.744,-0.535,-0.315
21:49:39.748,-0.515,-0.3
21:49:39.752,-0.55,-0.285
21:49:39.756,-0.56,-0.28
21:49:39.760,-0.555,-0.29
21:49:39.764,-0.555,-0.305
21:49:39.768,-0.58,-0.305
21:49:39.772,-0.6,-0.275
21:49:39.776,-0.555,-0.27
21:49:39.780,-0.565,-0.26
21:49:39.784,-0.555,-0.265
21:49:39.788,-0.565,-0.25
21:49:39.792,-0.565,-0.235
21:49:39.796,-0.545,-0.235
21:49:39.800,-0.515,-0.24
21:49:39.804,-0.5,-0.215
21:49:39.808,-0.49,-0.215
21:49:39.812,-0.5,-0.22
21:49:39.816,-0.465,-0.205
21:49:39.820,-0.465,-0.2
21:49:39.824,-0.46,-0.185
21:49:39.828,-0.46,-0.18
21:49:39.832,-0.435,-0.185
21:49:39.836,-0.42,-0.175
21:49:39.840,-0.43,-0.195
21:49:39.844,-0.41,-0.18
21:49:39.848,-0.395,-0.185
21:49:39.852,-0.36,-0.17
21:49:39.856,-0.38,-0.19
21:49:39.860,-0.355,-0.2
21:49:39.864,-0.345,-0.185
21:49:39.868,-0.32,-0.18
21:49:39.872,-0.32,-0.175
21:49:39.876,-0.305,-0.195
21:49:39.880,-0.29,-0.225
21:49:39.884,-0.295,-0.195
21:49:39.888,-0.27,-0.175
21:49:39.892,-0.25,-0.16
21:49:39.896,-0.265,-0.17
21:49:39.900,-0.27,-0.15
21:49:39.904,-0.26,-0.155
21:49:39.908,-0.25,-0.13
21:49:39.912,-0.235,-0.155
21:49:39.916,-0.225,-0.15
21:49:39.920,-0.225,-0.11
21:49:39.924,-0.23,-0.11
21:49:39.928,-0.225,-0.1
21:49:39.932,-0.235,-0.11
21:49:39.936,-0.225,-0.095
21:49:39.940,-0.25,-0.08
21:49:39.944,-0.23,-0.07
21:49:39.948,-0.23,-0.07
21:49:39.952,-0.24,-0.065
21:49:39.956,-0.26,-0.055
21:49:39.960,-0.255,-0.055
21:49:39.964,-0.27,-0.04
21:49:39.968,-0.275,-0.035
21:49:39.972,-0.27,-0.06
21:49:39.976,-0.26,-0.06
21:49:39.980,-0.255,-0.06
21:49:39.984,-0.275,-0.055
21:49:39.988,-0.25,-0.04
21:49:39.992,-0.265,-0.035
21:49:39.996,-0.265,-0.045
21:49:40.000,-0.265,-0.03
21:49:40.004,-0.27,-0.03
21:49:40.008,-0.255,-0.02
21:49:40.012,-0.235,-0.02
21:49:40.016,-0.21,-0.04
21:49:40.020,-0.2,-0.02
21:49:40.024,-0.175,-0.02
21:49:40.028,-0.16,-0.02
21:49:40.032,-0.17,0.005
21:49:40.036,-0.155,0.0
21:49:40.040,-0.12,0.015
21:49:40.044,-0.06,0.0
21:49:40.048,-0.03,0.05
21:49:40.052,-0.015,0.06
21:49:40.056,0.025,0.075
21:49:40.060,0.055,0.08
21:49:40.064,0.08,0.075
21:49:40.068,0.08,0.08
21:49:40.072,0.09,0.07
21:49:40.076,0.07,0.03
21:49:40.080,0.03,0.02
21:49:40.084,-0.015,0.0
21:49:40.088,-0.06,-0.02
21:49:40.092,-0.1,-0.035
21:49:40.096,-0.16,-0.015
21:49:40.100,-0.235,0.0
21:49:40.104,-0.275,0.0
21:49:40.108,-0.29,0.005
21:49:40.112,-0.295,0.015
21:49:40.116,-0.29,0.01
21:49:40.120,-0.28,0.02
21:49:40.124,-0.26,0.005
21:49:40.128,-0.255,-0.01
21:49:40.132,-0.23,0.01
21:49:40.136,-0.235,0.0
21:49:40.140,-0.24,-0.01
21:49:40.144,-0.235,0.005
21:49:40.148,-0.23,0.0
21:49:40.152,-0.24,0.0
21:49:40.156,-0.235,0.0
21:49:40.160,-0.22,-0.02
21:49:40.164,-0.225,0.005
21:49:40.168,-0.245,-0.015
21:49:40.172,-0.225,-0.025
21:49:40.176,-0.22,-0.01
21:49:40.180,-0.225,-0.015
21:49:40.184,-0.24,-0.01
21:49:40.188,-0.215,-0.03
21:49:40.192,-0.22,-0.03
21:49:40.196,-0.225,-0.03
21:49:40.200,-0.235,-0.045
21:49:40.204,-0.22,-0.04
21:49:40.208,-0.2,-0.07
21:49:40.212,-0.2,-0.05
21:49:40.216,-0.17,-0.035
21:49:40.220,-0.11,-0.035
21:49:40.224,-0.035,-0.06
21:49:40.228,0.05,-0.055
21:49:40.232,0.135,-0.06
21:49:40.236,0.205,-0.09
21:49:40.240,0.26,-0.14
21:49:40.244,0.295,-0.18
21:49:40.248,0.33,-0.175
21:49:40.252,0.335,-0.19
21:49:40.256,0.335,-0.24
21:49:40.260,0.375,-0.37
21:49:40.264,0.54,-0.505
21:49:40.268,0.85,-0.725
21:49:40.272,1.12,-0.935
21:49:40.276,1.22,-1.15
21:49:40.280,1.05,-1.25
21:49:40.284,0.615,-1.145
21:49:40.288,0.135,-0.81
21:49:40.292,-0.115,-0.46
21:49:40.296,-0.25,-0.26
21:49:40.300,-0.285,-0.105
21:49:40.304,-0.295,-0.015
21:49:40.308,-0.315,0.055
21:49:40.312,-0.32,0.07
21:49:40.316,-0.37,0.095
21:49:40.320,-0.37,0.09
21:49:40.324,-0.365,0.1
21:49:40.328,-0.36,0.065
21:49:40.332,-0.385,0.075
21:49:40.336,-0.365,0.07
21:49:40.340,-0.36,0.05
21:49:40.344,-0.365,0.045
21:49:40.348,-0.365,0.045
21:49:40.352,-0.38,0.06
21:49:40.356,-0.365,0.065
21:49:40.360,-0.375,0.06
21:49:40.364,-0.365,0.07
21:49:40.368,-0.35,0.065
21:49:40.372,-0.385,0.07
21:49:40.376,-0.375,0.075
21:49:40.380,-0.4,0.06
21:49:40.384,-0.395,0.085
21:49:40.388,-0.39,0.075
21:49:40.392,-0.42,0.07
21:49:40.396,-0.41,0.075
21:49:40.400,-0.435,0.075
21:49:40.404,-0.42,0.05
21:49:40.408,-0.43,0.065
21:49:40.412,-0.43,0.065
21:49:40.416,-0.435,0.055
21:49:40.420,-0.435,0.05
21:49:40.424,-0.41,0.07
21:49:40.428,-0.42,0.035
21:49:40.432,-0.43,0.05
21:49:40.436,-0.43,0.025
21:49:40.440,-0.435,0.045
21:49:40.444,-0.435,0.06
21:49:40.448,-0.42,0.065
21:49:40.452,-0.4,0.07
21:49:40.456,-0.395,0.05
21:49:40.460,-0.38,0.045
21:49:40.464,-0.385,0.05
21:49:40.468,-0.36,0.065
21:49:40.472,-0.345,0.055
21:49:40.476,-0.35,0.055
21:49:40.480,-0.335,0.055
21:49:40.484,-0.315,0.045
21:49:40.488,-0.305,0.05
21:49:40.492,-0.305,0.04
21:49:40.496,-0.285,0.03
21:49:40.500,-0.285,0.015
21:49:40.504,-0.275,0.015
21:49:40.508,-0.245,0.0
21:49:40.512,-0.26,0.0
21:49:40.516,-0.24,0.0
21:49:40.520,-0.22,-0.015
21:49:40.524,-0.21,-0.01
21:49:40.528,-0.22,-0.045
21:49:40.532,-0.2,-0.015
21:49:40.536,-0.2,-0.03
21:49:40.540,-0.185,-0.05
21:49:40.544,-0.175,-0.035
21:49:40.548,-0.18,-0.045
21:49:40.552,-0.18,-0.045
21:49:40.556,-0.16,-0.03
21:49:40.560,-0.175,-0.04
21:49:40.564,-0.14,-0.025
21:49:40.568,-0.14,-0.045
21:49:40.572,-0.12,-0.025
21:49:40.576,-0.16,-0.025
21:49:40.580,-0.165,0.0
21:49:40.584,-0.16,-0.025
21:49:40.588,-0.155,-0.025
21:49:40.592,-0.165,-0.015
21:49:40.596,-0.135,-0.015
21:49:40.600,-0.145,-0.035
21:49:40.604,-0.15,-0.025
21:49:40.608,-0.175,-0.025
21:49:40.612,-0.17,-0.005
21:49:40.616,-0.17,-0.005
21:49:40.620,-0.18,-0.005
21:49:40.624,-0.17,-0.02
21:49:40.628,-0.185,-0.03
21:49:40.632,-0.19,-0.01
21:49:40.636,-0.2,0.0
21:49:40.640,-0.19,-0.01
21:49:40.644,-0.175,-0.01
21:49:40.648,-0.17,0.0
21:49:40.652,-0.16,-0.02
21:49:40.656,-0.16,-0.02
21:49:40.660,-0.155,-0.015
21:49:40.664,-0.14,-0.01
21:49:40.668,-0.125,0.0
21:49:40.672,-0.13,-0.01
21:49:40.676,-0.105,0.0
21:49:40.680,-0.065,0.015
21:49:40.684,-0.02,0.03
21:49:40.688,-0.005,0.045
21:49:40.692,0.025,0.045
21:49:40.696,0.05,0.05
21:49:40.700,0.05,0.035
21:49:40.704,0.085,0.07
21:49:40.708,0.085,0.06
21:49:40.712,0.1,0.05
21:49:40.716,0.085,0.01
21:49:40.720,0.015,0.0
21:49:40.724,-0.015,-0.04
21:49:40.728,-0.06,-0.03
21:49:40.732,-0.13,-0.04
21:49:40.736,-0.175,-0.06
21:49:40.740,-0.235,-0.04
21:49:40.744,-0.28,-0.02
21:49:40.748,-0.28,-0.02
21:49:40.752,-0.31,0.0
21:49:40.756,-0.32,-0.01
21:49:40.760,-0.33,-0.015
21:49:40.764,-0.31,-0.025
21:49:40.768,-0.31,-0.01
21:49:40.772,-0.305,-0.02
21:49:40.776,-0.28,0.0
21:49:40.780,-0.28,-0.005
21:49:40.784,-0.255,-0.005
21:49:40.788,-0.26,-0.015
21:49:40.792,-0.265,-0.01
21:49:40.796,-0.27,-0.01
21:49:40.800,-0.25,-0.02
21:49:40.804,-0.255,-0.005
21:49:40.808,-0.23,-0.02
21:49:40.812,-0.24,-0.015
21:49:40.816,-0.26,-0.02
21:49:40.820,-0.26,-0.025
21:49:40.824,-0.255,-0.02
21:49:40.828,-0.275,-0.03
21:49:40.832,-0.275,-0.03
21:49:40.836,-0.275,-0.035
21:49:40.840,-0.265,-0.025
21:49:40.844,-0.265,-0.02
21:49:40.848,-0.26,-0.035
21:49:40.852,-0.24,-0.055
21:49:40.856,-0.21,-0.04
21:49:40.860,-0.16,-0.03
21:49:40.864,-0.07,-0.04
21:49:40.868,0.02,-0.04
21:49:40.872,0.105,-0.05
21:49:40.876,0.16,-0.06
21:49:40.880,0.18,-0.11
21:49:40.884,0.23,-0.155
21:49:40.888,0.265,-0.145
21:49:40.892,0.235,-0.175
21:49:40.896,0.245,-0.245
21:49:40.900,0.335,-0.345
21:49:40.904,0.585,-0.505
21:49:40.908,0.905,-0.715
21:49:40.912,1.13,-0.95
21:49:40.916,1.12,-1.15
21:49:40.920,0.8,-1.205
21:49:40.924,0.32,-0.96
21:49:40.928,-0.04,-0.575
21:49:40.932,-0.235,-0.265
21:49:40.936,-0.305,-0.09
21:49:40.940,-0.335,0.01
21:49:40.944,-0.36,0.095
21:49:40.948,-0.365,0.15
21:49:40.952,-0.39,0.15
21:49:40.956,-0.41,0.155
21:49:40.960,-0.42,0.15
21:49:40.964,-0.395,0.15
21:49:40.968,-0.41,0.12
21:49:40.972,-0.425,0.125
21:49:40.976,-0.43,0.125
21:49:40.980,-0.415,0.095
21:49:40.984,-0.415,0.095
21:49:40.988,-0.44,0.115
21:49:40.992,-0.425,0.125
21:49:40.996,-0.435,0.105
21:49:41.000,-0.42,0.115
21:49:41.004,-0.43,0.13
21:49:41.008,-0.405,0.1
21:49:41.012,-0.405,0.14
21:49:41.016,-0.4,0.145
21:49:41.020,-0.435,0.14
21:49:41.024,-0.445,0.14
21:49:41.028,-0.445,0.125
21:49:41.032,-0.445,0.14
21:49:41.036,-0.455,0.15
21:49:41.040,-0.455,0.155
21:49:41.044,-0.455,0.125
21:49:41.048,-0.475,0.13
21:49:41.052,-0.47,0.11
21:49:41.056,-0.46,0.135
21:49:41.060,-0.46,0.145
21:49:41.064,-0.48,0.135
21:49:41.068,-0.48,0.13
21:49:41.072,-0.485,0.13
21:49:41.076,-0.47,0.13
21:49:41.080,-0.465,0.135
21:49:41.084,-0.455,0.145
21:49:41.088,-0.44,0.14
21:49:41.092,-0.42,0.145
21:49:41.096,-0.4,0.135
21:49:41.100,-0.38,0.15
21:49:41.104,-0.385,0.16
21:49:41.108,-0.365,0.12
21:49:41.112,-0.36,0.12
21:49:41.116,-0.35,0.135
21:49:41.120,-0.35,0.135
21:49:41.124,-0.35,0.135
21:49:41.128,-0.33,0.12
21:49:41.132,-0.325,0.125
21:49:41.136,-0.295,0.115
21:49:41.140,-0.29,0.115
21:49:41.144,-0.28,0.095
21:49:41.148,-0.29,0.09
21:49:41.152,-0.295,0.1
21:49:41.156,-0.27,0.085
21:49:41.160,-0.275,0.095
21:49:41.164,-0.24,0.1
21:49:41.168,-0.25,0.08
21:49:41.172,-0.23,0.085
21:49:41.176,-0.23,0.1
21:49:41.180,-0.24,0.055
21:49:41.184,-0.24,0.065
21:49:41.188,-0.225,0.09
21:49:41.192,-0.23,0.085
21:49:41.196,-0.205,0.085
21:49:41.200,-0.215,0.1
21:49:41.204,-0.21,0.08
21:49:41.208,-0.195,0.085
21:49:41.212,-0.19,0.105
21:49:41.216,-0.205,0.13
21:49:41.220,-0.215,0.125
21:49:41.224,-0.18,0.135
21:49:41.228,-0.2,0.13
21:49:41.232,-0.2,0.13
21:49:41.236,-0.19,0.115
21:49:41.240,-0.2,0.13
21:49:41.244,-0.205,0.11
21:49:41.248,-0.22,0.125
21:49:41.252,-0.23,0.125
21:49:41.256,-0.235,0.12
21:49:41.260,-0.25,0.13
21:49:41.264,-0.245,0.12
21:49:41.268,-0.245,0.11
21:49:41.272,-0.25,0.13
21:49:41.276,-0.245,0.115
21:49:41.280,-0.245,0.095
21:49:41.284,-0.27,0.105
21:49:41.288,-0.275,0.1
21:49:41.292,-0.28,0.085
21:49:41.296,-0.295,0.105
21:49:41.300,-0.29,0.09
21:49:41.304,-0.27,0.105
21:49:41.308,-0.275,0.1
21:49:41.312,-0.25,0.1
21:49:41.316,-0.25,0.085
21:49:41.320,-0.25,0.095
21:49:41.324,-0.24,0.09
21:49:41.328,-0.24,0.1
21:49:41.332,-0.26,0.085
21:49:41.336,-0.245,0.12
21:49:41.340,-0.22,0.09
21:49:41.344,-0.19,0.08
21:49:41.348,-0.215,0.11
21:49:41.352,-0.205,0.08
21:49:41.356,-0.2,0.11
21:49:41.360,-0.195,0.085
21:49:41.364,-0.16,0.09
21:49:41.368,-0.11,0.1
21:49:41.372,-0.065,0.115
21:49:41.376,-0.05,0.085
21:49:41.380,-0.025,0.105
21:49:41.384,0.0,0.095
21:49:41.388,0.025,0.105
21:49:41.392,0.035,0.095
21:49:41.396,0.035,0.095
21:49:41.400,0.03,0.085
21:49:41.404,-0.035,0.03
21:49:41.408,-0.09,0.0
21:49:41.412,-0.16,0.0
21:49:41.416,-0.205,-0.02
21:49:41.420,-0.225,-0.02
21:49:41.424,-0.255,-0.02
21:49:41.428,-0.31,0.0
21:49:41.432,-0.345,-0.005
21:49:41.436,-0.36,-0.005
21:49:41.440,-0.36,-0.015
21:49:41.444,-0.35,-0.005
21:49:41.448,-0.36,0.015
21:49:41.452,-0.34,-0.02
21:49:41.456,-0.34,-0.02
21:49:41.460,-0.335,-0.035
21:49:41.464,-0.31,-0.035
21:49:41.468,-0.32,-0.05
21:49:41.472,-0.33,-0.07
21:49:41.476,-0.345,-0.075
21:49:41.480,-0.35,-0.065
21:49:41.484,-0.335,-0.07
21:49:41.488,-0.35,-0.09
21:49:41.492,-0.36,-0.08
21:49:41.496,-0.345,-0.095
21:49:41.500,-0.34,-0.09
21:49:41.504,-0.32,-0.1
21:49:41.508,-0.335,-0.095
21:49:41.512,-0.325,-0.12
21:49:41.516,-0.34,-0.125
21:49:41.520,-0.305,-0.105
21:49:41.524,-0.32,-0.115
21:49:41.528,-0.29,-0.13
21:49:41.532,-0.255,-0.135
21:49:41.536,-0.22,-0.135
21:49:41.540,-0.16,-0.135
21:49:41.544,-0.09,-0.125
21:49:41.548,0.0,-0.155
21:49:41.552,0.075,-0.16
21:49:41.556,0.145,-0.195
21:49:41.560,0.2,-0.24
21:49:41.564,0.265,-0.29
21:49:41.568,0.305,-0.275
21:49:41.572,0.265,-0.28
21:49:41.576,0.26,-0.32
21:49:41.580,0.305,-0.415
21:49:41.584,0.55,-0.55
21:49:41.588,0.84,-0.76
21:49:41.592,1.075,-1.005
21:49:41.596,1.07,-1.22
21:49:41.600,0.795,-1.265
21:49:41.604,0.345,-1.095
21:49:41.608,-0.055,-0.765
21:49:41.612,-0.205,-0.5
21:49:41.616,-0.305,-0.35
21:49:41.620,-0.33,-0.245
21:49:41.624,-0.375,-0.165
21:49:41.628,-0.39,-0.115
21:49:41.632,-0.42,-0.09
21:49:41.636,-0.44,-0.11
21:49:41.640,-0.465,-0.115
21:49:41.644,-0.46,-0.11
21:49:41.648,-0.46,-0.135
21:49:41.652,-0.465,-0.185
21:49:41.656,-0.48,-0.195
21:49:41.660,-0.495,-0.185
21:49:41.664,-0.48,-0.195
21:49:41.668,-0.48,-0.19
21:49:41.672,-0.495,-0.2
21:49:41.676,-0.48,-0.18
21:49:41.680,-0.5,-0.205
21:49:41.684,-0.505,-0.19
21:49:41.688,-0.525,-0.2
21:49:41.692,-0.51,-0.215
21:49:41.696,-0.54,-0.21
21:49:41.700,-0.52,-0.24
21:49:41.704,-0.525,-0.26
21:49:41.708,-0.53,-0.275
21:49:41.712,-0.535,-0.265
21:49:41.716,-0.555,-0.31
21:49:41.720,-0.55,-0.295
21:49:41.724,-0.56,-0.29
21:49:41.728,-0.55,-0.285
21:49:41.732,-0.545,-0.28
21:49:41.736,-0.565,-0.26
21:49:41.740,-0.56,-0.25
21:49:41.744,-0.555,-0.265
21:49:41.748,-0.545,-0.26
21:49:41.752,-0.55,-0.25
21:49:41.756,-0.55,-0.255
21:49:41.760,-0.545,-0.255
21:49:41.764,-0.535,-0.245
21:49:41.768,-0.545,-0.245
21:49:41.772,-0.545,-0.24
21:49:41.776,-0.545,-0.225
21:49:41.780,-0.535,-0.245
21:49:41.784,-0.52,-0.255
21:49:41.788,-0.51,-0.27
21:49:41.792,-0.515,-0.255
21:49:41.796,-0.51,-0.27
21:49:41.800,-0.495,-0.31
21:49:41.804,-0.5,-0.28
21:49:41.808,-0.485,-0.285
21:49:41.812,-0.46,-0.29
21:49:41.816,-0.46,-0.31
21:49:41.820,-0.445,-0.32
21:49:41.824,-0.4,-0.345
21:49:41.828,-0.395,-0.34
21:49:41.832,-0.4,-0.37
21:49:41.836,-0.39,-0.375
21:49:41.840,-0.39,-0.385
21:49:41.844,-0.345,-0.39
21:49:41.848,-0.355,-0.365
21:49:41.852,-0.345,-0.385
21:49:41.856,-0.315,-0.375
21:49:41.860,-0.3,-0.37
21:49:41.864,-0.29,-0.395
21:49:41.868,-0.285,-0.4
21:49:41.872,-0.28,-0.395
21:49:41.876,-0.29,-0.395
21:49:41.880,-0.3,-0.385
21:49:41.884,-0.28,-0.38
21:49:41.888,-0.285,-0.375
21:49:41.892,-0.265,-0.4
21:49:41.896,-0.255,-0.4
21:49:41.900,-0.285,-0.4
21:49:41.904,-0.28,-0.4
21:49:41.908,-0.305,-0.41
21:49:41.912,-0.31,-0.405
21:49:41.916,-0.295,-0.43
21:49:41.920,-0.295,-0.41
21:49:41.924,-0.28,-0.4
21:49:41.928,-0.265,-0.4
21:49:41.932,-0.28,-0.43
21:49:41.936,-0.27,-0.395
21:49:41.940,-0.285,-0.42
21:49:41.944,-0.285,-0.405
21:49:41.948,-0.28,-0.41
21:49:41.952,-0.27,-0.4
21:49:41.956,-0.285,-0.385
21:49:41.960,-0.285,-0.395
21:49:41.964,-0.255,-0.385
21:49:41.968,-0.255,-0.395
21:49:41.972,-0.265,-0.4
21:49:41.976,-0.285,-0.375
21:49:41.980,-0.28,-0.385
21:49:41.984,-0.285,-0.385
21:49:41.988,-0.285,-0.365
21:49:41.992,-0.26,-0.36
21:49:41.996,-0.24,-0.355
21:49:42.000,-0.26,-0.355
21:49:42.004,-0.25,-0.355
21:49:42.008,-0.225,-0.33
21:49:42.012,-0.24,-0.315
21:49:42.016,-0.255,-0.305
21:49:42.020,-0.235,-0.305
21:49:42.024,-0.19,-0.305
21:49:42.028,-0.135,-0.28
21:49:42.032,-0.105,-0.275
21:49:42.036,-0.065,-0.245
21:49:42.040,-0.03,-0.235
21:49:42.044,-0.01,-0.235
21:49:42.048,0.015,-0.23
21:49:42.052,0.055,-0.23
21:49:42.056,0.05,-0.195
21:49:42.060,0.02,-0.205
21:49:42.064,-0.01,-0.25
21:49:42.068,-0.08,-0.255
21:49:42.072,-0.095,-0.245
21:49:42.076,-0.135,-0.23
21:49:42.080,-0.195,-0.23
21:49:42.084,-0.265,-0.215
21:49:42.088,-0.3,-0.185
21:49:42.092,-0.31,-0.18
21:49:42.096,-0.33,-0.175
21:49:42.100,-0.33,-0.155
21:49:42.104,-0.325,-0.14
21:49:42.108,-0.32,-0.16
21:49:42.112,-0.31,-0.19
21:49:42.116,-0.305,-0.18
21:49:42.120,-0.31,-0.155
21:49:42.124,-0.315,-0.18
21:49:42.128,-0.305,-0.165
21:49:42.132,-0.315,-0.15
21:49:42.136,-0.31,-0.14
21:49:42.140,-0.29,-0.16
21:49:42.144,-0.285,-0.145
21:49:42.148,-0.305,-0.175
21:49:42.152,-0.285,-0.165
21:49:42.156,-0.27,-0.145
21:49:42.160,-0.29,-0.145
21:49:42.164,-0.29,-0.17
21:49:42.168,-0.27,-0.14
21:49:42.172,-0.275,-0.14
21:49:42.176,-0.265,-0.1
21:49:42.180,-0.275,-0.12
21:49:42.184,-0.275,-0.105
21:49:42.188,-0.255,-0.135
21:49:42.192,-0.225,-0.105
21:49:42.196,-0.215,-0.09
21:49:42.200,-0.195,-0.08
21:49:42.204,-0.135,-0.095
21:49:42.208,-0.06,-0.1
21:49:42.212,0.035,-0.08
21:49:42.216,0.12,-0.105
21:49:42.220,0.19,-0.145
21:49:42.224,0.27,-0.16
21:49:42.228,0.315,-0.22
21:49:42.232,0.345,-0.215
21:49:42.236,0.335,-0.235
21:49:42.240,0.34,-0.285
21:49:42.244,0.435,-0.395
21:49:42.248,0.67,-0.565
21:49:42.252,0.955,-0.79
21:49:42.256,1.18,-1.0
21:49:42.260,1.135,-1.155
21:49:42.264,0.8,-1.16
21:49:42.268,0.33,-0.935
21:49:42.272,-0.04,-0.58
21:49:42.276,-0.205,-0.305
21:49:42.280,-0.275,-0.155
21:49:42.284,-0.295,-0.045
21:49:42.288,-0.325,0.02
21:49:42.292,-0.35,0.08
21:49:42.296,-0.365,0.095
21:49:42.300,-0.375,0.11
21:49:42.304,-0.4,0.105
21:49:42.308,-0.39,0.07
21:49:42.312,-0.395,0.075
21:49:42.316,-0.395,0.08
21:49:42.320,-0.38,0.08
21:49:42.324,-0.415,0.09
21:49:42.328,-0.41,0.065
21:49:42.332,-0.405,0.08
21:49:42.336,-0.405,0.08
21:49:42.340,-0.4,0.07
21:49:42.344,-0.435,0.07
21:49:42.348,-0.445,0.075
21:49:42.352,-0.43,0.09
21:49:42.356,-0.425,0.06
21:49:42.360,-0.435,0.055
21:49:42.364,-0.44,0.075
21:49:42.368,-0.44,0.045
21:49:42.372,-0.44,0.05
21:49:42.376,-0.435,0.055
21:49:42.380,-0.465,0.055
21:49:42.384,-0.45,0.04
21:49:42.388,-0.44,0.055
21:49:42.392,-0.46,0.05
21:49:42.396,-0.445,0.065
21:49:42.400,-0.445,0.06
21:49:42.404,-0.43,0.085
21:49:42.408,-0.465,0.075
21:49:42.412,-0.46,0.075
21:49:42.416,-0.445,0.07
21:49:42.420,-0.435,0.075
21:49:42.424,-0.43,0.06
21:49:42.428,-0.425,0.065
21:49:42.432,-0.425,0.07
21:49:42.436,-0.41,0.065
21:49:42.440,-0.395,0.07
21:49:42.444,-0.4,0.065
21:49:42.448,-0.405,0.045
21:49:42.452,-0.39,0.05
21:49:42.456,-0.385,0.03
21:49:42.460,-0.375,0.03
21:49:42.464,-0.345,0.03
21:49:42.468,-0.34,0.02
21:49:42.472,-0.315,0.01
21:49:42.476,-0.305,0.0
21:49:42.480,-0.29,-0.01
21:49:42.484,-0.285,-0.025
21:49:42.488,-0.265,-0.02
21:49:42.492,-0.265,-0.03
21:49:42.496,-0.25,-0.03
21:49:42.500,-0.22,-0.045
21:49:42.504,-0.225,-0.03
21:49:42.508,-0.21,-0.025
21:49:42.512,-0.195,-0.055
21:49:42.516,-0.185,-0.035
21:49:42.520,-0.185,-0.045
21:49:42.524,-0.19,-0.05
21:49:42.528,-0.15,-0.04
21:49:42.532,-0.16,-0.05
21:49:42.536,-0.135,-0.02
21:49:42.540,-0.155,-0.035
21:49:42.544,-0.15,-0.055
21:49:42.548,-0.18,-0.045
21:49:42.552,-0.16,-0.04
21:49:42.556,-0.19,-0.03
21:49:42.560,-0.17,-0.035
21:49:42.564,-0.17,-0.045
21:49:42.568,-0.16,-0.035
21:49:42.572,-0.18,-0.025
21:49:42.576,-0.19,-0.035
21:49:42.580,-0.185,-0.045
21:49:42.584,-0.175,-0.04
21:49:42.588,-0.16,-0.02
21:49:42.592,-0.19,-0.03
21:49:42.596,-0.185,-0.04
21:49:42.600,-0.205,-0.01
21:49:42.604,-0.185,-0.02
21:49:42.608,-0.185,-0.02
21:49:42.612,-0.155,-0.02
21:49:42.616,-0.175,-0.015
21:49:42.620,-0.145,-0.02
21:49:42.624,-0.15,-0.015
21:49:42.628,-0.155,-0.01
21:49:42.632,-0.16,-0.03
21:49:42.636,-0.17,-0.005
21:49:42.640,-0.13,-0.015
21:49:42.644,-0.125,0.0
21:49:42.648,-0.125,-0.01
21:49:42.652,-0.14,-0.005
21:49:42.656,-0.105,0.015
21:49:42.660,-0.08,0.0
21:49:42.664,-0.06,0.01
21:49:42.668,-0.01,0.01
21:49:42.672,-0.005,0.025
21:49:42.676,0.01,0.025
21:49:42.680,0.04,0.025
21:49:42.684,0.07,0.03
21:49:42.688,0.08,0.03
21:49:42.692,0.08,0.03
21:49:42.696,0.075,0.005
21:49:42.700,0.055,-0.03
21:49:42.704,0.0,-0.035
21:49:42.708,-0.06,-0.055
21:49:42.712,-0.11,-0.06
21:49:42.716,-0.15,-0.07
21:49:42.720,-0.2,-0.055
21:49:42.724,-0.23,-0.045
21:49:42.728,-0.265,-0.02
21:49:42.732,-0.285,0.0
21:49:42.736,-0.285,-0.005
21:49:42.740,-0.285,-0.005
21:49:42.744,-0.26,-0.01
21:49:42.748,-0.27,-0.015
21:49:42.752,-0.265,-0.01
21:49:42.756,-0.28,-0.035
21:49:42.760,-0.265,-0.035
21:49:42.764,-0.27,-0.03
21:49:42.768,-0.265,-0.04
21:49:42.772,-0.265,-0.03
21:49:42.776,-0.28,-0.045
21:49:42.780,-0.28,-0.05
21:49:42.784,-0.255,-0.065
21:49:42.788,-0.26,-0.07
21:49:42.792,-0.245,-0.06
21:49:42.796,-0.255,-0.06
21:49:42.800,-0.275,-0.05
21:49:42.804,-0.27,-0.055
21:49:42.808,-0.255,-0.065
21:49:42.812,-0.235,-0.065
21:49:42.816,-0.23,-0.05
21:49:42.820,-0.255,-0.05
21:49:42.824,-0.235,-0.055
21:49:42.828,-0.22,-0.065
21:49:42.832,-0.195,-0.07
21:49:42.836,-0.16,-0.08
21:49:42.840,-0.11,-0.065
21:49:42.844,-0.035,-0.08
21:49:42.848,0.03,-0.08
21:49:42.852,0.11,-0.08
21:49:42.856,0.16,-0.09
21:49:42.860,0.225,-0.17
21:49:42.864,0.23,-0.185
21:49:42.868,0.23,-0.215
21:49:42.872,0.22,-0.215
21:49:42.876,0.21,-0.28
21:49:42.880,0.32,-0.415
21:49:42.884,0.555,-0.585
21:49:42.888,0.885,-0.795
21:49:42.892,1.115,-1.025
21:49:42.896,1.09,-1.24
21:49:42.900,0.82,-1.275
21:49:42.904,0.34,-1.035
21:49:42.908,-0.045,-0.655
21:49:42.912,-0.225,-0.35
21:49:42.916,-0.315,-0.18
21:49:42.920,-0.335,-0.055
21:49:42.924,-0.35,0.005
21:49:42.928,-0.37,0.035
21:49:42.932,-0.39,0.095
21:49:42.936,-0.385,0.09
21:49:42.940,-0.36,0.07
21:49:42.944,-0.38,0.065
21:49:42.948,-0.395,0.065
21:49:42.952,-0.36,0.04
21:49:42.956,-0.37,0.04
21:49:42.960,-0.395,0.055
21:49:42.964,-0.395,0.045
21:49:42.968,-0.395,0.045
21:49:42.972,-0.4,0.06
21:49:42.976,-0.39,0.04
21:49:42.980,-0.42,0.035
21:49:42.984,-0.415,0.05
21:49:42.988,-0.42,0.035
21:49:42.992,-0.42,0.045
21:49:42.996,-0.415,0.025
21:49:43.000,-0.415,0.04
21:49:43.004,-0.425,0.02
21:49:43.008,-0.435,0.025
21:49:43.012,-0.42,0.02
21:49:43.016,-0.43,0.02
21:49:43.020,-0.43,0.005
21:49:43.024,-0.44,0.01
21:49:43.028,-0.445,0.03
21:49:43.032,-0.445,0.03
21:49:43.036,-0.425,0.02
21:49:43.040,-0.425,0.035
21:49:43.044,-0.405,0.045
21:49:43.048,-0.41,0.05
21:49:43.052,-0.42,0.05
21:49:43.056,-0.435,0.03
21:49:43.060,-0.415,0.06
21:49:43.064,-0.41,0.07
21:49:43.068,-0.405,0.1
21:49:43.072,-0.39,0.09
21:49:43.076,-0.38,0.08
21:49:43.080,-0.375,0.06
21:49:43.084,-0.375,0.06
21:49:43.088,-0.36,0.05
21:49:43.092,-0.365,0.075
21:49:43.096,-0.375,0.065
21:49:43.100,-0.37,0.065
21:49:43.104,-0.34,0.05
21:49:43.108,-0.34,0.055
21:49:43.112,-0.32,0.055
21:49:43.116,-0.3,0.025
21:49:43.120,-0.28,0.035
21:49:43.124,-0.3,0.04
21:49:43.128,-0.29,0.015
21:49:43.132,-0.275,0.02
21:49:43.136,-0.235,0.015
21:49:43.140,-0.235,0.015
21:49:43.144,-0.215,0.015
21:49:43.148,-0.225,0.03
21:49:43.152,-0.2,0.015
21:49:43.156,-0.165,0.01
21:49:43.160,-0.155,0.03
21:49:43.164,-0.155,0.03
21:49:43.168,-0.18,0.035
21:49:43.172,-0.19,0.03
21:49:43.176,-0.185,0.05
21:49:43.180,-0.165,0.06
21:49:43.184,-0.155,0.035
21:49:43.188,-0.165,0.05
21:49:43.192,-0.18,0.05
21:49:43.196,-0.19,0.04
21:49:43.200,-0.175,0.05
21:49:43.204,-0.2,0.06
21:49:43.208,-0.18,0.05
21:49:43.212,-0.205,0.055
21:49:43.216,-0.19,0.045
21:49:43.220,-0.195,0.05
21:49:43.224,-0.21,0.05
21:49:43.228,-0.205,0.035
21:49:43.232,-0.185,0.045
21:49:43.236,-0.195,0.045
21:49:43.240,-0.19,0.035
21:49:43.244,-0.205,0.03
21:49:43.248,-0.2,0.05
21:49:43.252,-0.2,0.045
21:49:43.256,-0.215,0.035
21:49:43.260,-0.21,0.035
21:49:43.264,-0.21,0.03
21:49:43.268,-0.21,0.035
21:49:43.272,-0.215,0.02
21:49:43.276,-0.22,0.035
21:49:43.280,-0.2,0.06
21:49:43.284,-0.19,0.045
21:49:43.288,-0.175,0.055
21:49:43.292,-0.175,0.045
21:49:43.296,-0.155,0.04
21:49:43.300,-0.135,0.02
21:49:43.304,-0.14,0.025
21:49:43.308,-0.135,0.04
21:49:43.312,-0.08,0.045
21:49:43.316,-0.04,0.07
21:49:43.320,-0.005,0.08
21:49:43.324,0.02,0.085
21:49:43.328,0.035,0.05
21:49:43.332,0.07,0.05
21:49:43.336,0.085,0.06
21:49:43.340,0.085,0.055
21:49:43.344,0.045,0.035
21:49:43.348,0.025,0.015
21:49:43.352,-0.035,-0.01
21:49:43.356,-0.105,-0.005
21:49:43.360,-0.17,-0.03
21:49:43.364,-0.195,-0.035
21:49:43.368,-0.235,-0.02
21:49:43.372,-0.27,-0.005
21:49:43.376,-0.295,0.02
21:49:43.380,-0.295,0.03
21:49:43.384,-0.31,-0.01
21:49:43.388,-0.31,0.0
21:49:43.392,-0.31,-0.005
21:49:43.396,-0.315,-0.01
21:49:43.400,-0.285,-0.02
21:49:43.404,-0.315,-0.03
21:49:43.408,-0.315,-0.04
21:49:43.412,-0.29,-0.05
21:49:43.416,-0.275,-0.05
21:49:43.420,-0.285,-0.055
21:49:43.424,-0.285,-0.065
21:49:43.428,-0.27,-0.07
21:49:43.432,-0.265,-0.08
21:49:43.436,-0.29,-0.085
21:49:43.440,-0.3,-0.085
21:49:43.444,-0.28,-0.12
21:49:43.448,-0.275,-0.115
21:49:43.452,-0.265,-0.105
21:49:43.456,-0.28,-0.105
21:49:43.460,-0.28,-0.1
21:49:43.464,-0.27,-0.12
21:49:43.468,-0.255,-0.1
21:49:43.472,-0.245,-0.095
21:49:43.476,-0.22,-0.125
21:49:43.480,-0.23,-0.105
21:49:43.484,-0.18,-0.13
21:49:43.488,-0.12,-0.115
21:49:43.492,-0.015,-0.115
21:49:43.496,0.06,-0.135
21:49:43.500,0.145,-0.145
21:49:43.504,0.215,-0.185
21:49:43.508,0.3,-0.235
21:49:43.512,0.355,-0.24
21:49:43.516,0.38,-0.255
21:49:43.520,0.325,-0.285
21:49:43.524,0.315,-0.345
21:49:43.528,0.425,-0.445
21:49:43.532,0.705,-0.63
21:49:43.536,0.995,-0.855
21:49:43.540,1.17,-1.065
21:49:43.544,1.02,-1.245
21:49:43.548,0.605,-1.2
21:49:43.552,0.145,-0.935
21:49:43.556,-0.105,-0.615
21:49:43.560,-0.225,-0.385
21:49:43.564,-0.27,-0.275
21:49:43.568,-0.3,-0.16
21:49:43.572,-0.34,-0.115
21:49:43.576,-0.37,-0.065
21:49:43.580,-0.395,-0.07
21:49:43.584,-0.4,-0.09
21:49:43.588,-0.425,-0.075
21:49:43.592,-0.445,-0.095
21:49:43.596,-0.44,-0.095
21:49:43.600,-0.45,-0.145
21:49:43.604,-0.44,-0.15
21:49:43.608,-0.46,-0.15
21:49:43.612,-0.445,-0.185
21:49:43.616,-0.47,-0.165
21:49:43.620,-0.475,-0.165
21:49:43.624,-0.485,-0.17
21:49:43.628,-0.5,-0.18
21:49:43.632,-0.505,-0.21
21:49:43.636,-0.51,-0.2
21:49:43.640,-0.53,-0.2
21:49:43.644,-0.51,-0.23
21:49:43.648,-0.5,-0.23
21:49:43.652,-0.515,-0.205
21:49:43.656,-0.51,-0.24
21:49:43.660,-0.535,-0.235
21:49:43.664,-0.515,-0.245
21:49:43.668,-0.53,-0.26
21:49:43.672,-0.545,-0.265
21:49:43.676,-0.54,-0.24
21:49:43.680,-0.56,-0.27
21:49:43.684,-0.55,-0.28
21:49:43.688,-0.535,-0.275
21:49:43.692,-0.52,-0.27
21:49:43.696,-0.53,-0.255
21:49:43.700,-0.525,-0.23
21:49:43.704,-0.545,-0.245
21:49:43.708,-0.53,-0.24
21:49:43.712,-0.53,-0.225
21:49:43.716,-0.54,-0.225
21:49:43.720,-0.53,-0.23
21:49:43.724,-0.51,-0.2
21:49:43.728,-0.49,-0.245
21:49:43.732,-0.495,-0.225
21:49:43.736,-0.505,-0.24
21:49:43.740,-0.495,-0.235
21:49:43.744,-0.485,-0.25
21:49:43.748,-0.46,-0.26
21:49:43.752,-0.44,-0.245
21:49:43.756,-0.4,-0.255
21:49:43.760,-0.415,-0.24
21:49:43.764,-0.41,-0.285
21:49:43.768,-0.39,-0.265
21:49:43.772,-0.38,-0.27
21:49:43.776,-0.36,-0.28
21:49:43.780,-0.37,-0.29
21:49:43.784,-0.355,-0.295
21:49:43.788,-0.325,-0.285
21:49:43.792,-0.31,-0.3
21:49:43.796,-0.29,-0.305
21:49:43.800,-0.27,-0.28
21:49:43.804,-0.275,-0.3
21:49:43.808,-0.265,-0.28
21:49:43.812,-0.28,-0.29
21:49:43.816,-0.27,-0.275
21:49:43.820,-0.255,-0.26
21:49:43.824,-0.26,-0.26
21:49:43.828,-0.25,-0.285
21:49:43.832,-0.26,-0.28
21:49:43.836,-0.26,-0.27
21:49:43.840,-0.265,-0.275
21:49:43.844,-0.28,-0.245
21:49:43.848,-0.27,-0.27
21:49:43.852,-0.28,-0.265
21:49:43.856,-0.26,-0.255
21:49:43.860,-0.26,-0.265
21:49:43.864,-0.265,-0.265
21:49:43.868,-0.27,-0.24
21:49:43.872,-0.24,-0.25
21:49:43.876,-0.265,-0.26
21:49:43.880,-0.275,-0.255
21:49:43.884,-0.27,-0.235
21:49:43.888,-0.26,-0.23
21:49:43.892,-0.27,-0.215
21:49:43.896,-0.275,-0.225
21:49:43.900,-0.28,-0.195
21:49:43.904,-0.25,-0.21
21:49:43.908,-0.215,-0.195
21:49:43.912,-0.245,-0.2
21:49:43.916,-0.23,-0.18
21:49:43.920,-0.23,-0.15
21:49:43.924,-0.215,-0.185
21:49:43.928,-0.21,-0.185
21:49:43.932,-0.185,-0.13
21:49:43.936,-0.17,-0.155
21:49:43.940,-0.19,-0.135
21:49:43.944,-0.18,-0.17
21:49:43.948,-0.195,-0.145
21:49:43.952,-0.145,-0.15
21:49:43.956,-0.11,-0.125
21:49:43.960,-0.075,-0.11
21:49:43.964,-0.035,-0.085
21:49:43.968,-0.035,-0.08
21:49:43.972,0.0,-0.08
21:49:43.976,0.025,-0.095
21:49:43.980,0.05,-0.09
21:49:43.984,0.06,-0.075
21:49:43.988,0.045,-0.1
21:49:43.992,0.005,-0.105
21:49:43.996,-0.04,-0.135
21:49:44.000,-0.1,-0.13
21:49:44.004,-0.11,-0.145
21:49:44.008,-0.18,-0.135
21:49:44.012,-0.22,-0.11
21:49:44.016,-0.255,-0.12
21:49:44.020,-0.285,-0.1
21:49:44.024,-0.31,-0.06
21:49:44.028,-0.32,-0.07
21:49:44.032,-0.3,-0.065
21:49:44.036,-0.315,-0.06
21:49:44.040,-0.295,-0.07
21:49:44.044,-0.3,-0.07
21:49:44.048,-0.3,-0.075
21:49:44.052,-0.29,-0.08
21:49:44.056,-0.275,-0.095
21:49:44.060,-0.285,-0.07
21:49:44.064,-0.295,-0.07
21:49:44.068,-0.29,-0.095
21:49:44.072,-0.28,-0.07
21:49:44.076,-0.265,-0.085
21:49:44.080,-0.27,-0.08
21:49:44.084,-0.25,-0.08
21:49:44.088,-0.255,-0.07
21:49:44.092,-0.25,-0.075
21:49:44.096,-0.265,-0.08
21:49:44.100,-0.25,-0.07
21:49:44.104,-0.25,-0.085
21:49:44.108,-0.26,-0.06
21:49:44.112,-0.255,-0.065
21:49:44.116,-0.225,-0.06
21:49:44.120,-0.205,-0.065
21:49:44.124,-0.2,-0.07
21:49:44.128,-0.17,-0.06
21:49:44.132,-0.08,-0.075
21:49:44.136,-0.015,-0.085
21:49:44.140,0.065,-0.065
21:49:44.144,0.145,-0.08
21:49:44.148,0.235,-0.095
21:49:44.152,0.295,-0.16
21:49:44.156,0.325,-0.195
21:49:44.160,0.34,-0.19
21:49:44.164,0.335,-0.22
21:49:44.168,0.335,-0.28
21:49:44.172,0.43,-0.385
21:49:44.176,0.67,-0.555
21:49:44.180,0.98,-0.765
21:49:44.184,1.21,-1.035
21:49:44.188,1.23,-1.205
21:49:44.192,0.92,-1.235
21:49:44.196,0.455,-1.02
21:49:44.200,0.06,-0.675
21:49:44.204,-0.135,-0.36
21:49:44.208,-0.245,-0.19
21:49:44.212,-0.28,-0.07
21:49:44.216,-0.25,0.0
21:49:44.220,-0.28,0.06
21:49:44.224,-0.3,0.075
21:49:44.228,-0.32,0.1
21:49:44.232,-0.34,0.08
21:49:44.236,-0.35,0.065
21:49:44.240,-0.345,0.06
21:49:44.244,-0.35,0.05
21:49:44.248,-0.34,0.045
21:49:44.252,-0.355,0.05
21:49:44.256,-0.345,0.045
21:49:44.260,-0.355,0.035
21:49:44.264,-0.35,0.04
21:49:44.268,-0.355,0.04
21:49:44.272,-0.375,0.03
21:49:44.276,-0.385,0.035
21:49:44.280,-0.4,0.035
21:49:44.284,-0.395,0.005
21:49:44.288,-0.385,0.01
21:49:44.292,-0.39,0.03
21:49:44.296,-0.395,0.01
21:49:44.300,-0.4,0.0
21:49:44.304,-0.425,0.01
21:49:44.308,-0.43,0.015
21:49:44.312,-0.4,0.0
21:49:44.316,-0.4,0.01
21:49:44.320,-0.41,0.01
21:49:44.324,-0.42,0.015
21:49:44.328,-0.395,0.02
21:49:44.332,-0.395,0.025
21:49:44.336,-0.405,0.015
21:49:44.340,-0.4,0.035
21:49:44.344,-0.405,0.02
21:49:44.348,-0.405,0.015
21:49:44.352,-0.375,0.045
21:49:44.356,-0.38,0.05
21:49:44.360,-0.395,0.045
21:49:44.364,-0.37,0.045
21:49:44.368,-0.37,0.045
21:49:44.372,-0.39,0.05
21:49:44.376,-0.36,0.05
21:49:44.380,-0.35,0.03
21:49:44.384,-0.34,0.02
21:49:44.388,-0.34,0.03
21:49:44.392,-0.33,0.03
21:49:44.396,-0.315,0.005
21:49:44.400,-0.31,-0.015
21:49:44.404,-0.295,0.005
21:49:44.408,-0.275,-0.005
21:49:44.412,-0.27,-0.025
21:49:44.416,-0.24,-0.055
21:49:44.420,-0.225,-0.05
21:49:44.424,-0.225,-0.04
21:49:44.428,-0.22,-0.035
21:49:44.432,-0.195,-0.05
21:49:44.436,-0.18,-0.055
21:49:44.440,-0.175,-0.04
21:49:44.444,-0.16,-0.03
21:49:44.448,-0.14,-0.055
21:49:44.452,-0.135,-0.04
21:49:44.456,-0.125,-0.05
21:49:44.460,-0.125,-0.04
21:49:44.464,-0.14,-0.055
21:49:44.468,-0.11,-0.03
21:49:44.472,-0.12,-0.035
21:49:44.476,-0.125,-0.04
21:49:44.480,-0.115,-0.04
21:49:44.484,-0.125,-0.055
21:49:44.488,-0.12,-0.06
21:49:44.492,-0.145,-0.07
21:49:44.496,-0.125,-0.055
21:49:44.500,-0.135,-0.045
21:49:44.504,-0.14,-0.055
21:49:44.508,-0.13,-0.03
21:49:44.512,-0.11,-0.035
21:49:44.516,-0.13,-0.05
21:49:44.520,-0.145,-0.04
21:49:44.524,-0.15,-0.025
21:49:44.528,-0.14,-0.03
21:49:44.532,-0.135,-0.03
21:49:44.536,-0.155,-0.02
21:49:44.540,-0.13,-0.01
21:49:44.544,-0.115,-0.04
21:49:44.548,-0.1,-0.03
21:49:44.552,-0.08,-0.025
21:49:44.556,-0.09,-0.025
21:49:44.560,-0.08,-0.01
21:49:44.564,-0.065,-0.02
21:49:44.568,-0.045,0.005
21:49:44.572,-0.03,0.01
21:49:44.576,0.04,0.0
21:49:44.580,0.06,0.02
21:49:44.584,0.075,0.03
21:49:44.588,0.085,0.03
21:49:44.592,0.105,0.035
21:49:44.596,0.135,0.04
21:49:44.600,0.12,0.035
21:49:44.604,0.125,0.005
21:49:44.608,0.14,0.015
21:49:44.612,0.08,-0.015
21:49:44.616,0.035,-0.045
21:49:44.620,0.0,-0.075
21:49:44.624,-0.075,-0.065
21:49:44.628,-0.115,-0.095
21:49:44.632,-0.155,-0.085
21:49:44.636,-0.215,-0.045
21:49:44.640,-0.235,-0.05
21:49:44.644,-0.27,-0.05
21:49:44.648,-0.27,-0.03
21:49:44.652,-0.255,-0.025
21:49:44.656,-0.245,-0.05
21:49:44.660,-0.225,-0.075
21:49:44.664,-0.225,-0.045
21:49:44.668,-0.225,-0.03
21:49:44.672,-0.215,-0.055
21:49:44.676,-0.225,-0.045
21:49:44.680,-0.22,-0.045
21:49:44.684,-0.21,-0.055
21:49:44.688,-0.22,-0.055
21:49:44.692,-0.205,-0.055
21:49:44.696,-0.22,-0.06
21:49:44.700,-0.215,-0.08
21:49:44.704,-0.235,-0.07
21:49:44.708,-0.22,-0.055
21:49:44.712,-0.24,-0.06
21:49:44.716,-0.225,-0.07
21:49:44.720,-0.245,-0.085
21:49:44.724,-0.22,-0.09
21:49:44.728,-0.22,-0.085
21:49:44.732,-0.215,-0.085
21:49:44.736,-0.225,-0.075
21:49:44.740,-0.225,-0.08
21:49:44.744,-0.2,-0.095
21:49:44.748,-0.175,-0.075
21:49:44.752,-0.13,-0.075
21:49:44.756,-0.025,-0.08
21:49:44.760,0.03,-0.065
21:49:44.764,0.13,-0.085
21:49:44.768,0.19,-0.11
21:49:44.772,0.245,-0.125
21:49:44.776,0.265,-0.18
21:49:44.780,0.31,-0.205
21:49:44.784,0.32,-0.2
21:49:44.788,0.28,-0.225
21:49:44.792,0.32,-0.34
21:49:44.796,0.495,-0.45
21:49:44.800,0.805,-0.67
21:49:44.804,1.09,-0.915
21:49:44.808,1.2,-1.125
21:49:44.812,1.03,-1.25
21:49:44.816,0.595,-1.17
21:49:44.820,0.135,-0.82
21:49:44.824,-0.13,-0.48
21:49:44.828,-0.27,-0.24
21:49:44.832,-0.315,-0.09
21:49:44.836,-0.32,0.01
21:49:44.840,-0.33,0.055
21:49:44.844,-0.345,0.075
21:49:44.848,-0.36,0.11
21:49:44.852,-0.36,0.095
21:49:44.856,-0.385,0.08
21:49:44.860,-0.4,0.1
21:49:44.864,-0.385,0.065
21:49:44.868,-0.385,0.075
21:49:44.872,-0.355,0.085
21:49:44.876,-0.38,0.065
21:49:44.880,-0.41,0.065
21:49:44.884,-0.395,0.08
21:49:44.888,-0.4,0.08
21:49:44.892,-0.4,0.095
21:49:44.896,-0.39,0.075
21:49:44.900,-0.41,0.09
21:49:44.904,-0.43,0.085
21:49:44.908,-0.415,0.105
21:49:44.912,-0.435,0.1
21:49:44.916,-0.43,0.1
21:49:44.920,-0.42,0.095
21:49:44.924,-0.45,0.085
21:49:44.928,-0.465,0.07
21:49:44.932,-0.45,0.075
21:49:44.936,-0.45,0.075
21:49:44.940,-0.465,0.075
21:49:44.944,-0.495,0.075
21:49:44.948,-0.495,0.07
21:49:44.952,-0.495,0.065
21:49:44.956,-0.5,0.075
21:49:44.960,-0.515,0.095
21:49:44.964,-0.505,0.085
21:49:44.968,-0.505,0.08
21:49:44.972,-0.465,0.08
21:49:44.976,-0.48,0.1
21:49:44.980,-0.46,0.09
21:49:44.984,-0.45,0.09
21:49:44.988,-0.46,0.075
21:49:44.992,-0.465,0.07
21:49:44.996,-0.46,0.11
21:49:45.000,-0.44,0.095
21:49:45.004,-0.43,0.11
21:49:45.008,-0.44,0.075
21:49:45.012,-0.405,0.095
21:49:45.016,-0.395,0.075
21:49:45.020,-0.38,0.06
21:49:45.024,-0.375,0.06
21:49:45.028,-0.385,0.05
21:49:45.032,-0.375,0.035
21:49:45.036,-0.34,0.03
21:49:45.040,-0.34,0.005
21:49:45.044,-0.34,0.01
21:49:45.048,-0.31,0.03
21:49:45.052,-0.29,-0.015
21:49:45.056,-0.285,-0.005
21:49:45.060,-0.28,0.015
21:49:45.064,-0.275,0.005
21:49:45.068,-0.255,-0.005
21:49:45.072,-0.26,-0.005
21:49:45.076,-0.245,0.0
21:49:45.080,-0.24,0.01
21:49:45.084,-0.21,0.0
21:49:45.088,-0.2,-0.01
21:49:45.092,-0.215,-0.005
21:49:45.096,-0.205,0.0
21:49:45.100,-0.2,0.005
21:49:45.104,-0.21,0.01
21:49:45.108,-0.21,0.0
21:49:45.112,-0.22,0.01
21:49:45.116,-0.2,0.0
21:49:45.120,-0.185,0.0
21:49:45.124,-0.2,0.0
21:49:45.128,-0.205,0.025
21:49:45.132,-0.22,0.02
21:49:45.136,-0.235,0.005
21:49:45.140,-0.24,-0.01
21:49:45.144,-0.205,-0.035
21:49:45.148,-0.2,-0.03
21:49:45.152,-0.205,0.005
21:49:45.156,-0.23,0.0
21:49:45.160,-0.205,-0.02
21:49:45.164,-0.235,-0.015
21:49:45.168,-0.225,-0.015
21:49:45.172,-0.22,0.0
21:49:45.176,-0.245,-0.01
21:49:45.180,-0.22,-0.01
21:49:45.184,-0.225,-0.03
21:49:45.188,-0.21,-0.02
21:49:45.192,-0.2,-0.035
21:49:45.196,-0.2,-0.03
21:49:45.200,-0.18,-0.04
21:49:45.204,-0.17,-0.035
21:49:45.208,-0.17,-0.02
21:49:45.212,-0.135,-0.03
21:49:45.216,-0.11,-0.03
21:49:45.220,-0.065,-0.015
21:49:45.224,-0.055,-0.01
21:49:45.228,-0.035,-0.01
21:49:45.232,0.005,-0.01
21:49:45.236,0.02,-0.01
21:49:45.240,0.07,-0.02
21:49:45.244,0.08,-0.02
21:49:45.248,0.1,-0.025
21:49:45.252,0.085,-0.055
21:49:45.256,0.05,-0.07
21:49:45.260,0.0,-0.125
21:49:45.264,-0.045,-0.15
21:49:45.268,-0.09,-0.15
21:49:45.272,-0.17,-0.155
21:49:45.276,-0.2,-0.165
21:49:45.280,-0.27,-0.14
21:49:45.284,-0.285,-0.14
21:49:45.288,-0.305,-0.115
21:49:45.292,-0.32,-0.13
21:49:45.296,-0.31,-0.12
21:49:45.300,-0.29,-0.12
21:49:45.304,-0.28,-0.125
21:49:45.308,-0.29,-0.135
21:49:45.312,-0.305,-0.13
21:49:45.316,-0.29,-0.15
21:49:45.320,-0.285,-0.165
21:49:45.324,-0.285,-0.155
21:49:45.328,-0.27,-0.155
21:49:45.332,-0.285,-0.195
21:49:45.336,-0.305,-0.18
21:49:45.340,-0.3,-0.205
21:49:45.344,-0.29,-0.2
21:49:45.348,-0.295,-0.2
21:49:45.352,-0.32,-0.2
21:49:45.356,-0.305,-0.205
21:49:45.360,-0.295,-0.21
21:49:45.364,-0.28,-0.21
21:49:45.368,-0.28,-0.205
21:49:45.372,-0.295,-0.22
21:49:45.376,-0.3,-0.205
21:49:45.380,-0.28,-0.235
21:49:45.384,-0.28,-0.215
21:49:45.388,-0.26,-0.24
21:49:45.392,-0.25,-0.24
21:49:45.396,-0.185,-0.235
21:49:45.400,-0.105,-0.245
21:49:45.404,-0.05,-0.245
21:49:45.408,0.055,-0.24
21:49:45.412,0.15,-0.255
21:49:45.416,0.23,-0.29
21:49:45.420,0.285,-0.35
21:49:45.424,0.325,-0.34
21:49:45.428,0.35,-0.345
21:49:45.432,0.295,-0.36
21:49:45.436,0.32,-0.43
21:49:45.440,0.475,-0.55
21:49:45.444,0.74,-0.72
21:49:45.448,1.02,-0.955
21:49:45.452,1.115,-1.175
21:49:45.456,0.93,-1.315
21:49:45.460,0.505,-1.255
21:49:45.464,0.065,-1.005
21:49:45.468,-0.165,-0.665
21:49:45.472,-0.265,-0.485
21:49:45.476,-0.315,-0.37
21:49:45.480,-0.33,-0.285
21:49:45.484,-0.33,-0.18
21:49:45.488,-0.385,-0.155
21:49:45.492,-0.415,-0.135
21:49:45.496,-0.445,-0.145
21:49:45.500,-0.43,-0.17
21:49:45.504,-0.44,-0.165
21:49:45.508,-0.44,-0.185
21:49:45.512,-0.43,-0.19
21:49:45.516,-0.435,-0.18
21:49:45.520,-0.45,-0.2
21:49:45.524,-0.43,-0.18
21:49:45.528,-0.44,-0.2
21:49:45.532,-0.44,-0.17
21:49:45.536,-0.455,-0.18
21:49:45.540,-0.46,-0.195
21:49:45.544,-0.45,-0.175
21:49:45.548,-0.47,-0.18
21:49:45.552,-0.47,-0.175
21:49:45.556,-0.46,-0.175
21:49:45.560,-0.47,-0.19
21:49:45.564,-0.48,-0.185
21:49:45.568,-0.48,-0.195
21:49:45.572,-0.495,-0.2
21:49:45.576,-0.49,-0.21
21:49:45.580,-0.5,-0.185
21:49:45.584,-0.525,-0.18
21:49:45.588,-0.505,-0.195
21:49:45.592,-0.515,-0.205
21:49:45.596,-0.505,-0.185
21:49:45.600,-0.515,-0.21
21:49:45.604,-0.535,-0.18
21:49:45.608,-0.515,-0.15
21:49:45.612,-0.525,-0.165
21:49:45.616,-0.505,-0.16
21:49:45.620,-0.495,-0.16
21:49:45.624,-0.49,-0.16
21:49:45.628,-0.47,-0.15
21:49:45.632,-0.47,-0.14
21:49:45.636,-0.47,-0.135
21:49:45.640,-0.445,-0.135
21:49:45.644,-0.44,-0.13
21:49:45.648,-0.445,-0.12
21:49:45.652,-0.42,-0.12
21:49:45.656,-0.41,-0.145
21:49:45.660,-0.4,-0.12
21:49:45.664,-0.4,-0.12
21:49:45.668,-0.395,-0.11
21:49:45.672,-0.39,-0.135
21:49:45.676,-0.35,-0.135
21:49:45.680,-0.34,-0.125
21:49:45.684,-0.345,-0.14
21:49:45.688,-0.335,-0.14
21:49:45.692,-0.3,-0.14
21:49:45.696,-0.3,-0.14
21:49:45.700,-0.29,-0.145
21:49:45.704,-0.29,-0.135
21:49:45.708,-0.26,-0.15
21:49:45.712,-0.275,-0.16
21:49:45.716,-0.26,-0.16
21:49:45.720,-0.23,-0.13
21:49:45.724,-0.23,-0.135
21:49:45.728,-0.22,-0.13
21:49:45.732,-0.2,-0.125
21:49:45.736,-0.22,-0.1
21:49:45.740,-0.18,-0.11
21:49:45.744,-0.21,-0.105
21:49:45.748,-0.19,-0.095
21:49:45.752,-0.2,-0.09
21:49:45.756,-0.205,-0.085
21:49:45.760,-0.2,-0.085
21:49:45.764,-0.21,-0.09
21:49:45.768,-0.21,-0.065
21:49:45.772,-0.215,-0.075
21:49:45.776,-0.235,-0.07
21:49:45.780,-0.23,-0.075
21:49:45.784,-0.22,-0.07
21:49:45.788,-0.21,-0.06
21:49:45.792,-0.215,-0.07
21:49:45.796,-0.22,-0.07
21:49:45.800,-0.22,-0.075
21:49:45.804,-0.23,-0.05
21:49:45.808,-0.22,-0.05
21:49:45.812,-0.22,-0.045
21:49:45.816,-0.22,-0.06
21:49:45.820,-0.21,-0.06
21:49:45.824,-0.21,-0.025
21:49:45.828,-0.175,-0.05
21:49:45.832,-0.165,-0.035
21:49:45.836,-0.155,-0.04
21:49:45.840,-0.115,-0.05
21:49:45.844,-0.115,-0.04
21:49:45.848,-0.105,-0.03
21:49:45.852,-0.075,-0.035
21:49:45.856,-0.025,-0.03
21:49:45.860,0.0,-0.005
21:49:45.864,0.02,0.005
21:49:45.868,0.045,0.015
21:49:45.872,0.085,0.0
21:49:45.876,0.08,0.02
21:49:45.880,0.105,0.01
21:49:45.884,0.1,-0.015
21:49:45.888,0.09,0.0
21:49:45.892,0.045,-0.03
21:49:45.896,0.0,-0.065
21:49:45.900,-0.04,-0.08
21:49:45.904,-0.125,-0.09
21:49:45.908,-0.145,-0.1
21:49:45.912,-0.215,-0.07
21:49:45.916,-0.265,-0.08
21:49:45.920,-0.28,-0.065
21:49:45.924,-0.285,-0.04
21:49:45.928,-0.31,-0.055
21:49:45.932,-0.285,-0.03
21:49:45.936,-0.265,-0.04
21:49:45.940,-0.25,-0.035
21:49:45.944,-0.26,-0.075
21:49:45.948,-0.24,-0.06
21:49:45.952,-0.24,-0.06
21:49:45.956,-0.235,-0.06
21:49:45.960,-0.24,-0.045
21:49:45.964,-0.24,-0.055
21:49:45.968,-0.22,-0.075
21:49:45.972,-0.24,-0.07
21:49:45.976,-0.24,-0.065
21:49:45.980,-0.235,-0.065
21:49:45.984,-0.23,-0.075
21:49:45.988,-0.235,-0.075
21:49:45.992,-0.245,-0.07
21:49:45.996,-0.24,-0.075
21:49:46.000,-0.23,-0.08
21:49:46.004,-0.245,-0.095
21:49:46.008,-0.24,-0.1
21:49:46.012,-0.2,-0.09
21:49:46.016,-0.235,-0.1
21:49:46.020,-0.21,-0.08
21:49:46.024,-0.21,-0.095
21:49:46.028,-0.165,-0.09
21:49:46.032,-0.095,-0.09
21:49:46.036,-0.02,-0.1
21:49:46.040,0.06,-0.09
21:49:46.044,0.16,-0.1
21:49:46.048,0.22,-0.14
21:49:46.052,0.27,-0.185
21:49:46.056,0.315,-0.22
21:49:46.060,0.345,-0.215
21:49:46.064,0.315,-0.24
21:49:46.068,0.335,-0.32
21:49:46.072,0.435,-0.45
21:49:46.076,0.695,-0.605
21:49:46.080,1.01,-0.825
21:49:46.084,1.22,-1.09
21:49:46.088,1.21,-1.265
21:49:46.092,0.89,-1.28
21:49:46.096,0.39,-1.055
21:49:46.100,-0.005,-0.68
21:49:46.104,-0.175,-0.38
21:49:46.108,-0.27,-0.18
21:49:46.112,-0.285,-0.08
21:49:46.116,-0.305,0.0
21:49:46.120,-0.32,0.045
21:49:46.124,-0.34,0.06
21:49:46.128,-0.355,0.09
21:49:46.132,-0.36,0.07
21:49:46.136,-0.36,0.065
21:49:46.140,-0.36,0.045
21:49:46.144,-0.355,0.03
21:49:46.148,-0.355,0.045
21:49:46.152,-0.36,0.045
21:49:46.156,-0.36,0.05
21:49:46.160,-0.345,0.04
21:49:46.164,-0.34,0.04
21:49:46.168,-0.34,0.06
21:49:46.172,-0.35,0.055
21:49:46.176,-0.36,0.065
21:49:46.180,-0.34,0.045
21:49:46.184,-0.35,0.05
21:49:46.188,-0.36,0.04
21:49:46.192,-0.365,0.05
21:49:46.196,-0.37,0.02
21:49:46.200,-0.37,0.035
21:49:46.204,-0.385,0.02
21:49:46.208,-0.405,0.02
21:49:46.212,-0.42,0.035
21:49:46.216,-0.39,0.04
21:49:46.220,-0.435,0.04
21:49:46.224,-0.44,0.035
21:49:46.228,-0.41,0.02
21:49:46.232,-0.435,0.0
21:49:46.236,-0.44,0.025
21:49:46.240,-0.42,0.03
21:49:46.244,-0.435,0.03
21:49:46.248,-0.425,0.05
21:49:46.252,-0.41,0.03
21:49:46.256,-0.395,0.055
21:49:46.260,-0.375,0.035
21:49:46.264,-0.39,0.03
21:49:46.268,-0.385,0.05
21:49:46.272,-0.375,0.025
21:49:46.276,-0.34,0.05
21:49:46.280,-0.32,0.03
21:49:46.284,-0.335,0.03
21:49:46.288,-0.315,0.02
21:49:46.292,-0.3,0.03
21:49:46.296,-0.29,0.025
21:49:46.300,-0.3,0.0
21:49:46.304,-0.275,0.005
21:49:46.308,-0.28,0.0
21:49:46.312,-0.26,0.0
21:49:46.316,-0.25,-0.015
21:49:46.320,-0.245,-0.02
21:49:46.324,-0.235,-0.04
21:49:46.328,-0.2,-0.05
21:49:46.332,-0.215,-0.05
21:49:46.336,-0.19,-0.04
21:49:46.340,-0.19,-0.055
21:49:46.344,-0.17,-0.055
21:49:46.348,-0.18,-0.06
21:49:46.352,-0.165,-0.045
21:49:46.356,-0.155,-0.045
21:49:46.360,-0.125,-0.065
21:49:46.364,-0.13,-0.045
21:49:46.368,-0.12,-0.04
21:49:46.372,-0.13,-0.025
21:49:46.376,-0.125,-0.04
21:49:46.380,-0.12,-0.035
21:49:46.384,-0.12,-0.025
21:49:46.388,-0.11,-0.01
21:49:46.392,-0.125,-0.02
21:49:46.396,-0.125,-0.025
21:49:46.400,-0.13,-0.02
21:49:46.404,-0.13,-0.015
21:49:46.408,-0.11,-0.03
21:49:46.412,-0.13,-0.035
21:49:46.416,-0.15,-0.025
21:49:46.420,-0.15,-0.025
21:49:46.424,-0.15,0.0
21:49:46.428,-0.155,-0.02
21:49:46.432,-0.145,-0.03
21:49:46.436,-0.12,-0.02
21:49:46.440,-0.115,-0.025
21:49:46.444,-0.11,-0.03
21:49:46.448,-0.1,-0.025
21:49:46.452,-0.105,-0.03
21:49:46.456,-0.08,-0.02
21:49:46.460,-0.055,-0.01
21:49:46.464,-0.01,0.01
21:49:46.468,0.035,-0.01
21:49:46.472,0.07,0.01
21:49:46.476,0.11,0.02
21:49:46.480,0.11,0.035
21:49:46.484,0.155,0.05
21:49:46.488,0.15,0.04
21:49:46.492,0.15,0.045
21:49:46.496,0.135,0.035
21:49:46.500,0.105,0.025
21:49:46.504,0.075,-0.025
21:49:46.508,0.005,-0.035
21:49:46.512,-0.055,-0.055
21:49:46.516,-0.1,-0.04
21:49:46.520,-0.17,-0.06
21:49:46.524,-0.205,-0.04
21:49:46.528,-0.24,-0.025
21:49:46.532,-0.28,-0.02
21:49:46.536,-0.235,-0.02
21:49:46.540,-0.24,-0.06
21:49:46.544,-0.225,-0.03
21:49:46.548,-0.245,-0.05
21:49:46.552,-0.25,-0.045
21:49:46.556,-0.25,-0.04
21:49:46.560,-0.26,-0.05
21:49:46.564,-0.265,-0.03
21:49:46.568,-0.25,-0.055
21:49:46.572,-0.245,-0.045
21:49:46.576,-0.225,-0.045
21:49:46.580,-0.23,-0.035
21:49:46.584,-0.225,-0.035
21:49:46.588,-0.225,-0.04
21:49:46.592,-0.23,-0.06
21:49:46.596,-0.235,-0.06
21:49:46.600,-0.22,-0.045
21:49:46.604,-0.2,-0.045
21:49:46.608,-0.21,-0.05
21:49:46.612,-0.23,-0.05
21:49:46.616,-0.24,-0.05
21:49:46.620,-0.245,-0.045
21:49:46.624,-0.25,-0.06
21:49:46.628,-0.25,-0.055
21:49:46.632,-0.245,-0.03
21:49:46.636,-0.22,-0.04
21:49:46.640,-0.19,-0.055
21:49:46.644,-0.15,-0.07
21:49:46.648,-0.06,-0.07
21:49:46.652,0.045,-0.07
21:49:46.656,0.14,-0.1
21:49:46.660,0.17,-0.12
21:49:46.664,0.215,-0.165
21:49:46.668,0.25,-0.19
21:49:46.672,0.25,-0.18
21:49:46.676,0.22,-0.215
21:49:46.680,0.22,-0.3
21:49:46.684,0.32,-0.395
21:49:46.688,0.57,-0.55
21:49:46.692,0.885,-0.79
21:49:46.696,1.1,-1.01
21:49:46.700,1.09,-1.215
21:49:46.704,0.795,-1.25
21:49:46.708,0.31,-1.02
21:49:46.712,-0.05,-0.65
21:49:46.716,-0.265,-0.335
21:49:46.720,-0.325,-0.16
21:49:46.724,-0.335,-0.04
21:49:46.728,-0.36,0.025
21:49:46.732,-0.39,0.07
21:49:46.736,-0.415,0.08
21:49:46.740,-0.415,0.075
21:49:46.744,-0.455,0.09
21:49:46.748,-0.465,0.06
21:49:46.752,-0.485,0.01
21:49:46.756,-0.5,0.02
21:49:46.760,-0.5,0.02
21:49:46.764,-0.49,0.0
21:49:46.768,-0.475,0.015
21:49:46.772,-0.47,0.01
21:49:46.776,-0.495,0.0
21:49:46.780,-0.49,0.0
21:49:46.784,-0.485,0.005
21:49:46.788,-0.5,0.01
21:49:46.792,-0.495,0.025
21:49:46.796,-0.49,0.02
21:49:46.800,-0.48,0.01
21:49:46.804,-0.49,0.0
21:49:46.808,-0.505,0.01
21:49:46.812,-0.505,0.02
21:49:46.816,-0.52,0.015
21:49:46.820,-0.52,0.0
21:49:46.824,-0.525,0.01
21:49:46.828,-0.525,0.015
21:49:46.832,-0.535,0.0
21:49:46.836,-0.545,0.0
21:49:46.840,-0.555,-0.01
21:49:46.844,-0.57,0.0
21:49:46.848,-0.575,-0.01
21:49:46.852,-0.57,-0.02
21:49:46.856,-0.55,-0.025
21:49:46.860,-0.555,-0.025
21:49:46.864,-0.54,-0.02
21:49:46.868,-0.55,-0.03
21:49:46.872,-0.56,-0.055
21:49:46.876,-0.54,-0.04
21:49:46.880,-0.55,-0.045
21:49:46.884,-0.53,-0.055
21:49:46.888,-0.53,-0.055
21:49:46.892,-0.525,-0.045
21:49:46.896,-0.5,-0.05
21:49:46.900,-0.475,-0.05
21:49:46.904,-0.465,-0.06
21:49:46.908,-0.445,-0.065
21:49:46.912,-0.445,-0.065
21:49:46.916,-0.435,-0.07
21:49:46.920,-0.42,-0.08
21:49:46.924,-0.405,-0.075
21:49:46.928,-0.395,-0.105
21:49:46.932,-0.38,-0.08
21:49:46.936,-0.37,-0.1
21:49:46.940,-0.35,-0.085
21:49:46.944,-0.325,-0.115
21:49:46.948,-0.34,-0.12
21:49:46.952,-0.365,-0.13
21:49:46.956,-0.35,-0.145
21:49:46.960,-0.345,-0.14
21:49:46.964,-0.32,-0.14
21:49:46.968,-0.31,-0.145
21:49:46.972,-0.31,-0.165
21:49:46.976,-0.32,-0.155
21:49:46.980,-0.305,-0.175
21:49:46.984,-0.305,-0.155
21:49:46.988,-0.29,-0.165
21:49:46.992,-0.305,-0.165
21:49:46.996,-0.32,-0.15
21:49:47.000,-0.315,-0.17
21:49:47.004,-0.3,-0.16
21:49:47.008,-0.31,-0.16
21:49:47.012,-0.295,-0.16
21:49:47.016,-0.28,-0.16
21:49:47.020,-0.28,-0.15
21:49:47.024,-0.29,-0.17
21:49:47.028,-0.285,-0.175
21:49:47.032,-0.275,-0.17
21:49:47.036,-0.285,-0.16
21:49:47.040,-0.27,-0.155
21:49:47.044,-0.29,-0.18
21:49:47.048,-0.305,-0.18
21:49:47.052,-0.32,-0.19
21:49:47.056,-0.33,-0.185
21:49:47.060,-0.315,-0.19
21:49:47.064,-0.305,-0.205
21:49:47.068,-0.32,-0.205
21:49:47.072,-0.34,-0.205
21:49:47.076,-0.335,-0.195
21:49:47.080,-0.3,-0.22
21:49:47.084,-0.32,-0.21
21:49:47.088,-0.3,-0.225
21:49:47.092,-0.275,-0.205
21:49:47.096,-0.27,-0.235
21:49:47.100,-0.26,-0.245
21:49:47.104,-0.265,-0.23
21:49:47.108,-0.25,-0.23
21:49:47.112,-0.205,-0.215
21:49:47.116,-0.16,-0.215
21:49:47.120,-0.09,-0.195
21:49:47.124,-0.075,-0.155
21:49:47.128,-0.02,-0.16
21:49:47.132,0.005,-0.185
21:49:47.136,0.035,-0.16
21:49:47.140,0.04,-0.16
21:49:47.144,0.045,-0.125
21:49:47.148,0.03,-0.145
21:49:47.152,-0.045,-0.17
21:49:47.156,-0.1,-0.21
21:49:47.160,-0.155,-0.235
21:49:47.164,-0.215,-0.25
21:49:47.168,-0.31,-0.255
21:49:47.172,-0.385,-0.225
21:49:47.176,-0.395,-0.22
21:49:47.180,-0.39,-0.22
21:49:47.184,-0.41,-0.225
21:49:47.188,-0.415,-0.23
21:49:47.192,-0.41,-0.24
21:49:47.196,-0.42,-0.24
21:49:47.200,-0.405,-0.27
21:49:47.204,-0.4,-0.28
21:49:47.208,-0.375,-0.265
21:49:47.212,-0.37,-0.28
21:49:47.216,-0.365,-0.27
21:49:47.220,-0.35,-0.265
21:49:47.224,-0.36,-0.23
21:49:47.228,-0.345,-0.25
21:49:47.232,-0.355,-0.265
21:49:47.236,-0.345,-0.255
21:49:47.240,-0.345,-0.26
21:49:47.244,-0.33,-0.245
21:49:47.248,-0.325,-0.27
21:49:47.252,-0.35,-0.255
21:49:47.256,-0.34,-0.265
21:49:47.260,-0.32,-0.275
21:49:47.264,-0.32,-0.28
21:49:47.268,-0.34,-0.265
21:49:47.272,-0.33,-0.27
21:49:47.276,-0.31,-0.265
21:49:47.280,-0.32,-0.265
21:49:47.284,-0.295,-0.25
21:49:47.288,-0.27,-0.28
21:49:47.292,-0.19,-0.255
21:49:47.296,-0.12,-0.29
21:49:47.300,-0.03,-0.275
21:49:47.304,0.07,-0.3
21:49:47.308,0.15,-0.315
21:49:47.312,0.2,-0.37
21:49:47.316,0.255,-0.405
21:49:47.320,0.305,-0.36
21:49:47.324,0.3,-0.415
21:49:47.328,0.29,-0.45
21:49:47.332,0.36,-0.525
21:49:47.336,0.595,-0.655
21:49:47.340,0.91,-0.88
21:49:47.344,1.12,-1.08
21:49:47.348,1.115,-1.28
21:49:47.352,0.775,-1.315
21:49:47.356,0.315,-1.13
21:49:47.360,-0.05,-0.8
21:49:47.364,-0.225,-0.515
21:49:47.368,-0.3,-0.345
21:49:47.372,-0.33,-0.22
21:49:47.376,-0.34,-0.12
21:49:47.380,-0.395,-0.06
21:49:47.384,-0.425,-0.04
21:49:47.388,-0.47,-0.04
21:49:47.392,-0.48,-0.055
21:49:47.396,-0.48,-0.055
21:49:47.400,-0.49,-0.085
21:49:47.404,-0.48,-0.065
21:49:47.408,-0.48,-0.09
21:49:47.412,-0.49,-0.11
21:49:47.416,-0.5,-0.075
21:49:47.420,-0.51,-0.065
21:49:47.424,-0.495,-0.095
21:49:47.428,-0.51,-0.07
21:49:47.432,-0.515,-0.08
21:49:47.436,-0.505,-0.085
21:49:47.440,-0.49,-0.075
21:49:47.444,-0.5,-0.075
21:49:47.448,-0.525,-0.05
21:49:47.452,-0.505,-0.07
21:49:47.456,-0.51,-0.055
21:49:47.460,-0.52,-0.06
21:49:47.464,-0.52,-0.03
21:49:47.468,-0.505,-0.035
21:49:47.472,-0.545,-0.045
21:49:47.476,-0.53,-0.045
21:49:47.480,-0.55,-0.02
21:49:47.484,-0.56,-0.035
21:49:47.488,-0.55,-0.05
21:49:47.492,-0.565,-0.05
21:49:47.496,-0.57,-0.015
21:49:47.500,-0.58,-0.025
21:49:47.504,-0.555,-0.025
21:49:47.508,-0.545,-0.01
21:49:47.512,-0.56,-0.015
21:49:47.516,-0.56,-0.01
21:49:47.520,-0.54,-0.01
21:49:47.524,-0.54,-0.025
21:49:47.528,-0.515,-0.02
21:49:47.532,-0.515,-0.04
21:49:47.536,-0.485,-0.03
21:49:47.540,-0.485,-0.01
21:49:47.544,-0.465,-0.015
21:49:47.548,-0.455,-0.04
21:49:47.552,-0.425,-0.045
21:49:47.556,-0.4,-0.045
21:49:47.560,-0.39,-0.04
21:49:47.564,-0.385,-0.03
21:49:47.568,-0.365,-0.035
21:49:47.572,-0.35,-0.045
21:49:47.576,-0.345,-0.06
21:49:47.580,-0.32,-0.05
21:49:47.584,-0.32,-0.08
21:49:47.588,-0.29,-0.09
21:49:47.592,-0.3,-0.08
21:49:47.596,-0.31,-0.085
21:49:47.600,-0.3,-0.115
21:49:47.604,-0.3,-0.105
21:49:47.608,-0.265,-0.09
21:49:47.612,-0.275,-0.1
21:49:47.616,-0.255,-0.105
21:49:47.620,-0.25,-0.125
21:49:47.624,-0.22,-0.13
21:49:47.628,-0.24,-0.135
21:49:47.632,-0.245,-0.12
21:49:47.636,-0.23,-0.105
21:49:47.640,-0.23,-0.115
21:49:47.644,-0.245,-0.125
21:49:47.648,-0.215,-0.095
21:49:47.652,-0.21,-0.1
21:49:47.656,-0.205,-0.1
21:49:47.660,-0.2,-0.09
21:49:47.664,-0.2,-0.11
21:49:47.668,-0.195,-0.1
21:49:47.672,-0.205,-0.1
21:49:47.676,-0.21,-0.085
21:49:47.680,-0.215,-0.085
21:49:47.684,-0.21,-0.085
21:49:47.688,-0.225,-0.09
21:49:47.692,-0.22,-0.095
21:49:47.696,-0.22,-0.085
21:49:47.700,-0.23,-0.075
21:49:47.704,-0.24,-0.09
21:49:47.708,-0.245,-0.095
21:49:47.712,-0.255,-0.105
21:49:47.716,-0.255,-0.07
21:49:47.720,-0.225,-0.08
21:49:47.724,-0.25,-0.105
21:49:47.728,-0.245,-0.09
21:49:47.732,-0.24,-0.08
21:49:47.736,-0.19,-0.075
21:49:47.740,-0.19,-0.08
21:49:47.744,-0.2,-0.09
21:49:47.748,-0.2,-0.095
21:49:47.752,-0.155,-0.095
21:49:47.756,-0.12,-0.095
21:49:47.760,-0.055,-0.065
21:49:47.764,-0.035,-0.045
21:49:47.768,0.0,-0.035
21:49:47.772,0.01,-0.03
21:49:47.776,0.04,-0.02
21:49:47.780,0.05,0.0
21:49:47.784,0.07,-0.025
21:49:47.788,0.07,-0.01
21:49:47.792,0.04,-0.045
21:49:47.796,0.0,-0.075
21:49:47.800,-0.04,-0.105
21:49:47.804,-0.11,-0.105
21:49:47.808,-0.15,-0.1
21:49:47.812,-0.215,-0.095
21:49:47.816,-0.27,-0.095
21:49:47.820,-0.305,-0.105
21:49:47.824,-0.35,-0.07
21:49:47.828,-0.33,-0.06
21:49:47.832,-0.335,-0.05
21:49:47.836,-0.34,-0.06
21:49:47.840,-0.33,-0.065
21:49:47.844,-0.33,-0.07
21:49:47.848,-0.32,-0.08
21:49:47.852,-0.33,-0.085
21:49:47.856,-0.33,-0.09
21:49:47.860,-0.32,-0.09
21:49:47.864,-0.305,-0.105
21:49:47.868,-0.3,-0.095
21:49:47.872,-0.29,-0.13
21:49:47.876,-0.295,-0.115
21:49:47.880,-0.3,-0.08
21:49:47.884,-0.3,-0.09
21:49:47.888,-0.285,-0.13
21:49:47.892,-0.28,-0.1
21:49:47.896,-0.275,-0.105
21:49:47.900,-0.27,-0.125
21:49:47.904,-0.27,-0.1
21:49:47.908,-0.285,-0.105
21:49:47.912,-0.29,-0.11
21:49:47.916,-0.285,-0.11
21:49:47.920,-0.305,-0.12
21:49:47.924,-0.295,-0.1
21:49:47.928,-0.265,-0.105
21:49:47.932,-0.23,-0.12
21:49:47.936,-0.145,-0.12
21:49:47.940,-0.06,-0.11
21:49:47.944,0.015,-0.135
21:49:47.948,0.085,-0.17
21:49:47.952,0.135,-0.205
21:49:47.956,0.16,-0.24
21:49:47.960,0.195,-0.265
21:49:47.964,0.21,-0.28
21:49:47.968,0.19,-0.305
21:49:47.972,0.24,-0.405
21:49:47.976,0.39,-0.54
21:49:47.980,0.685,-0.725
21:49:47.984,0.98,-0.965
21:49:47.988,1.14,-1.19
21:49:47.992,1.03,-1.335
21:49:47.996,0.645,-1.26
21:49:48.000,0.17,-0.97
21:49:48.004,-0.145,-0.59
21:49:48.008,-0.305,-0.335
21:49:48.012,-0.345,-0.18
21:49:48.016,-0.355,-0.08
21:49:48.020,-0.385,-0.025
21:49:48.024,-0.41,0.0
21:49:48.028,-0.43,0.025
21:49:48.032,-0.44,0.03
21:49:48.036,-0.465,0.025
21:49:48.040,-0.48,0.035
21:49:48.044,-0.46,0.0
21:49:48.048,-0.45,-0.015
21:49:48.052,-0.46,0.0
21:49:48.056,-0.45,0.0
21:49:48.060,-0.43,-0.015
21:49:48.064,-0.44,-0.03
21:49:48.068,-0.455,-0.02
21:49:48.072,-0.45,0.0
21:49:48.076,-0.445,-0.015
21:49:48.080,-0.435,-0.035
21:49:48.084,-0.435,-0.025
21:49:48.088,-0.42,-0.015
21:49:48.092,-0.44,-0.01
21:49:48.096,-0.425,-0.015
21:49:48.100,-0.425,0.0
21:49:48.104,-0.455,-0.03
21:49:48.108,-0.445,0.0
21:49:48.112,-0.445,-0.03
21:49:48.116,-0.455,-0.01
21:49:48.120,-0.455,-0.025
21:49:48.124,-0.475,-0.015
21:49:48.128,-0.47,-0.01
21:49:48.132,-0.49,-0.025
21:49:48.136,-0.505,-0.01
21:49:48.140,-0.485,-0.02
21:49:48.144,-0.475,-0.005
21:49:48.148,-0.49,-0.01
21:49:48.152,-0.485,-0.005
21:49:48.156,-0.47,-0.025
21:49:48.160,-0.45,-0.015
21:49:48.164,-0.48,-0.02
21:49:48.168,-0.45,-0.015
