Time,ECG1,ECG2
23:16:41.324,-0.085,-0.54
23:16:41.328,-0.07,-0.535
23:16:41.332,-0.07,-0.55
23:16:41.336,-0.055,-0.535
23:16:41.340,-0.035,-0.54
23:16:41.344,-0.065,-0.54
23:16:41.348,-0.055,-0.54
23:16:41.352,-0.06,-0.51
23:16:41.356,-0.06,-0.51
23:16:41.360,-0.06,-0.5
23:16:41.364,-0.065,-0.5
23:16:41.368,-0.08,-0.52
23:16:41.372,-0.07,-0.51
23:16:41.376,-0.075,-0.505
23:16:41.380,-0.075,-0.52
23:16:41.384,-0.07,-0.49
23:16:41.388,-0.08,-0.505
23:16:41.392,-0.085,-0.495
23:16:41.396,-0.105,-0.505
23:16:41.400,-0.105,-0.5
23:16:41.404,-0.11,-0.52
23:16:41.408,-0.12,-0.485
23:16:41.412,-0.105,-0.495
23:16:41.416,-0.085,-0.5
23:16:41.420,-0.1,-0.485
23:16:41.424,-0.11,-0.48
23:16:41.428,-0.11,-0.485
23:16:41.432,-0.1,-0.47
23:16:41.436,-0.105,-0.455
23:16:41.440,-0.095,-0.46
23:16:41.444,-0.09,-0.465
23:16:41.448,-0.09,-0.455
23:16:41.452,-0.095,-0.465
23:16:41.456,-0.09,-0.45
23:16:41.460,-0.08,-0.45
23:16:41.464,-0.09,-0.45
23:16:41.468,-0.085,-0.45
23:16:41.472,-0.085,-0.465
23:16:41.476,-0.085,-0.435
23:16:41.480,-0.08,-0.435
23:16:41.484,-0.1,-0.43
23:16:41.488,-0.105,-0.425
23:16:41.492,-0.095,-0.425
23:16:41.496,-0.105,-0.445
23:16:41.500,-0.115,-0.445
23:16:41.504,-0.115,-0.41
23:16:41.508,-0.11,-0.405
23:16:41.512,-0.1,-0.42
23:16:41.516,-0.1,-0.425
23:16:41.520,-0.12,-0.41
23:16:41.524,-0.12,-0.415
23:16:41.528,-0.1,-0.405
23:16:41.532,-0.125,-0.4
23:16:41.536,-0.115,-0.395
23:16:41.540,-0.1,-0.395
23:16:41.544,-0.115,-0.38
23:16:41.548,-0.11,-0.39
23:16:41.552,-0.1,-0.365
23:16:41.556,-0.085,-0.37
23:16:41.560,-0.095,-0.37
23:16:41.564,-0.095,-0.345
23:16:41.568,-0.09,-0.355
23:16:41.572,-0.08,-0.345
23:16:41.576,-0.075,-0.335
23:16:41.580,-0.085,-0.34
23:16:41.584,-0.085,-0.305
23:16:41.588,-0.095,-0.32
23:16:41.592,-0.1,-0.32
23:16:41.596,-0.075,-0.305
23:16:41.600,-0.1,-0.32
23:16:41.604,-0.115,-0.32
23:16:41.608,-0.115,-0.305
23:16:41.612,-0.125,-0.31
23:16:41.616,-0.13,-0.31
23:16:41.620,-0.13,-0.315
23:16:41.624,-0.14,-0.305
23:16:41.628,-0.13,-0.285
23:16:41.632,-0.11,-0.305
23:16:41.636,-0.11,-0.31
23:16:41.640,-0.115,-0.285
23:16:41.644,-0.115,-0.28
23:16:41.648,-0.11,-0.275
23:16:41.652,-0.13,-0.255
23:16:41.656,-0.12,-0.245
23:16:41.660,-0.135,-0.24
23:16:41.664,-0.145,-0.255
23:16:41.668,-0.13,-0.23
23:16:41.672,-0.105,-0.23
23:16:41.676,-0.12,-0.215
23:16:41.680,-0.11,-0.23
23:16:41.684,-0.095,-0.205
23:16:41.688,-0.07,-0.19
23:16:41.692,-0.055,-0.205
23:16:41.696,-0.04,-0.185
23:16:41.700,-0.05,-0.17
23:16:41.704,-0.04,-0.155
23:16:41.708,-0.035,-0.155
23:16:41.712,-0.04,-0.17
23:16:41.716,-0.035,-0.19
23:16:41.720,-0.05,-0.205
23:16:41.724,-0.06,-0.205
23:16:41.728,-0.075,-0.19
23:16:41.732,-0.085,-0.215
23:16:41.736,-0.12,-0.245
23:16:41.740,-0.155,-0.235
23:16:41.744,-0.19,-0.215
23:16:41.748,-0.225,-0.22
23:16:41.752,-0.235,-0.18
23:16:41.756,-0.255,-0.155
23:16:41.760,-0.28,-0.145
23:16:41.764,-0.255,-0.13
23:16:41.768,-0.26,-0.14
23:16:41.772,-0.25,-0.14
23:16:41.776,-0.255,-0.155
23:16:41.780,-0.235,-0.13
23:16:41.784,-0.22,-0.145
23:16:41.788,-0.23,-0.165
23:16:41.792,-0.235,-0.15
23:16:41.796,-0.225,-0.14
23:16:41.800,-0.23,-0.15
23:16:41.804,-0.24,-0.145
23:16:41.808,-0.245,-0.145
23:16:41.812,-0.235,-0.135
23:16:41.816,-0.245,-0.12
23:16:41.820,-0.265,-0.14
23:16:41.824,-0.26,-0.13
23:16:41.828,-0.255,-0.125
23:16:41.832,-0.265,-0.11
23:16:41.836,-0.285,-0.13
23:16:41.840,-0.27,-0.135
23:16:41.844,-0.27,-0.12
23:16:41.848,-0.235,-0.145
23:16:41.852,-0.185,-0.13
23:16:41.856,-0.11,-0.14
23:16:41.860,-0.015,-0.155
23:16:41.864,0.1,-0.16
23:16:41.868,0.155,-0.18
23:16:41.872,0.205,-0.21
23:16:41.876,0.215,-0.22
23:16:41.880,0.19,-0.2
23:16:41.884,0.165,-0.225
23:16:41.888,0.1,-0.3
23:16:41.892,0.155,-0.385
23:16:41.896,0.32,-0.535
23:16:41.900,0.595,-0.75
23:16:41.904,0.92,-1.015
23:16:41.908,1.22,-1.24
23:16:41.912,1.355,-1.3
23:16:41.916,1.33,-1.155
23:16:41.920,1.055,-0.83
23:16:41.924,0.535,-0.44
23:16:41.928,0.115,-0.16
23:16:41.932,-0.115,-0.005
23:16:41.936,-0.23,0.09
23:16:41.940,-0.315,0.105
23:16:41.944,-0.4,0.095
23:16:41.948,-0.415,0.055
23:16:41.952,-0.42,0.045
23:16:41.956,-0.445,0.03
23:16:41.960,-0.46,0.0
23:16:41.964,-0.48,-0.01
23:16:41.968,-0.475,-0.035
23:16:41.972,-0.485,-0.03
23:16:41.976,-0.505,-0.025
23:16:41.980,-0.51,-0.03
23:16:41.984,-0.505,-0.04
23:16:41.988,-0.5,-0.05
23:16:41.992,-0.515,-0.03
23:16:41.996,-0.49,-0.03
23:16:42.000,-0.5,-0.01
23:16:42.004,-0.5,-0.05
23:16:42.008,-0.515,-0.035
23:16:42.012,-0.51,-0.035
23:16:42.016,-0.515,-0.04
23:16:42.020,-0.52,-0.015
23:16:42.024,-0.535,-0.015
23:16:42.028,-0.525,-0.015
23:16:42.032,-0.555,0.0
23:16:42.036,-0.55,-0.005
23:16:42.040,-0.55,-0.005
23:16:42.044,-0.55,-0.04
23:16:42.048,-0.555,-0.025
23:16:42.052,-0.575,-0.01
23:16:42.056,-0.585,-0.03
23:16:42.060,-0.585,-0.01
23:16:42.064,-0.565,-0.04
23:16:42.068,-0.58,-0.025
23:16:42.072,-0.53,-0.035
23:16:42.076,-0.56,-0.025
23:16:42.080,-0.555,-0.01
23:16:42.084,-0.55,-0.02
23:16:42.088,-0.55,-0.02
23:16:42.092,-0.55,-0.025
23:16:42.096,-0.555,-0.005
23:16:42.100,-0.525,-0.01
23:16:42.104,-0.53,-0.02
23:16:42.108,-0.53,0.0
23:16:42.112,-0.49,0.0
23:16:42.116,-0.52,0.005
23:16:42.120,-0.495,0.0
23:16:42.124,-0.465,-0.015
23:16:42.128,-0.465,-0.01
23:16:42.132,-0.455,0.0
23:16:42.136,-0.46,-0.005
23:16:42.140,-0.44,-0.01
23:16:42.144,-0.44,0.0
23:16:42.148,-0.46,-0.005
23:16:42.152,-0.455,-0.02
23:16:42.156,-0.465,0.005
23:16:42.160,-0.46,-0.005
23:16:42.164,-0.445,-0.025
23:16:42.168,-0.435,-0.05
23:16:42.172,-0.425,-0.05
23:16:42.176,-0.415,-0.035
23:16:42.180,-0.4,-0.05
23:16:42.184,-0.4,-0.04
23:16:42.188,-0.375,-0.05
23:16:42.192,-0.355,-0.06
23:16:42.196,-0.36,-0.04
23:16:42.200,-0.36,-0.035
23:16:42.204,-0.35,-0.04
23:16:42.208,-0.345,-0.025
23:16:42.212,-0.325,-0.03
23:16:42.216,-0.305,-0.045
23:16:42.220,-0.305,-0.045
23:16:42.224,-0.295,-0.025
23:16:42.228,-0.28,-0.03
23:16:42.232,-0.28,-0.02
23:16:42.236,-0.285,0.0
23:16:42.240,-0.285,0.03
23:16:42.244,-0.265,0.05
23:16:42.248,-0.275,0.02
23:16:42.252,-0.27,0.03
23:16:42.256,-0.265,0.05
23:16:42.260,-0.275,0.02
23:16:42.264,-0.28,0.015
23:16:42.268,-0.295,0.02
23:16:42.272,-0.3,0.015
23:16:42.276,-0.31,0.02
23:16:42.280,-0.3,0.045
23:16:42.284,-0.295,0.04
23:16:42.288,-0.28,0.035
23:16:42.292,-0.295,0.045
23:16:42.296,-0.29,0.055
23:16:42.300,-0.28,0.005
23:16:42.304,-0.28,0.03
23:16:42.308,-0.295,0.03
23:16:42.312,-0.285,0.05
23:16:42.316,-0.28,0.025
23:16:42.320,-0.29,0.035
23:16:42.324,-0.3,0.02
23:16:42.328,-0.295,0.02
23:16:42.332,-0.27,0.025
23:16:42.336,-0.27,0.01
23:16:42.340,-0.26,0.015
23:16:42.344,-0.265,0.03
23:16:42.348,-0.265,0.04
23:16:42.352,-0.255,0.025
23:16:42.356,-0.25,0.05
23:16:42.360,-0.275,0.025
23:16:42.364,-0.28,0.04
23:16:42.368,-0.245,0.03
23:16:42.372,-0.255,0.045
23:16:42.376,-0.28,0.045
23:16:42.380,-0.27,0.04
23:16:42.384,-0.275,0.045
23:16:42.388,-0.285,0.035
23:16:42.392,-0.285,0.035
23:16:42.396,-0.27,0.05
23:16:42.400,-0.275,0.03
23:16:42.404,-0.29,0.005
23:16:42.408,-0.28,0.0
23:16:42.412,-0.27,0.025
23:16:42.416,-0.29,0.01
23:16:42.420,-0.29,0.03
23:16:42.424,-0.275,0.01
23:16:42.428,-0.27,0.02
23:16:42.432,-0.255,0.045
23:16:42.436,-0.225,0.03
23:16:42.440,-0.23,0.045
23:16:42.444,-0.195,0.06
23:16:42.448,-0.17,0.05
23:16:42.452,-0.175,0.055
23:16:42.456,-0.19,0.07
23:16:42.460,-0.155,0.075
23:16:42.464,-0.115,0.09
23:16:42.468,-0.07,0.095
23:16:42.472,-0.025,0.11
23:16:42.476,-0.025,0.125
23:16:42.480,0.015,0.105
23:16:42.484,0.02,0.125
23:16:42.488,0.035,0.09
23:16:42.492,0.06,0.1
23:16:42.496,0.04,0.09
23:16:42.500,0.005,0.065
23:16:42.504,-0.035,0.065
23:16:42.508,-0.09,0.035
23:16:42.512,-0.115,0.03
23:16:42.516,-0.185,0.025
23:16:42.520,-0.21,0.02
23:16:42.524,-0.26,0.03
23:16:42.528,-0.3,0.05
23:16:42.532,-0.34,0.06
23:16:42.536,-0.36,0.07
23:16:42.540,-0.355,0.06
23:16:42.544,-0.345,0.06
23:16:42.548,-0.32,0.045
23:16:42.552,-0.325,0.035
23:16:42.556,-0.31,0.045
23:16:42.560,-0.3,0.05
23:16:42.564,-0.285,0.02
23:16:42.568,-0.29,0.05
23:16:42.572,-0.285,0.04
23:16:42.576,-0.295,0.065
23:16:42.580,-0.3,0.055
23:16:42.584,-0.285,0.04
23:16:42.588,-0.28,0.05
23:16:42.592,-0.275,0.04
23:16:42.596,-0.28,0.04
23:16:42.600,-0.28,0.05
23:16:42.604,-0.28,0.025
23:16:42.608,-0.28,0.015
23:16:42.612,-0.29,0.04
23:16:42.616,-0.285,0.03
23:16:42.620,-0.275,0.045
23:16:42.624,-0.295,0.03
23:16:42.628,-0.28,0.01
23:16:42.632,-0.265,0.005
23:16:42.636,-0.26,0.0
23:16:42.640,-0.23,0.01
23:16:42.644,-0.17,0.015
23:16:42.648,-0.065,0.0
23:16:42.652,0.0,0.02
23:16:42.656,0.085,-0.04
23:16:42.660,0.15,-0.06
23:16:42.664,0.175,-0.09
23:16:42.668,0.195,-0.09
23:16:42.672,0.175,-0.09
23:16:42.676,0.115,-0.15
23:16:42.680,0.13,-0.24
23:16:42.684,0.315,-0.375
23:16:42.688,0.63,-0.64
23:16:42.692,0.985,-0.91
23:16:42.696,1.26,-1.13
23:16:42.700,1.305,-1.205
23:16:42.704,1.085,-1.015
23:16:42.708,0.575,-0.63
23:16:42.712,0.095,-0.255
23:16:42.716,-0.165,-0.02
23:16:42.720,-0.285,0.08
23:16:42.724,-0.345,0.15
23:16:42.728,-0.375,0.18
23:16:42.732,-0.39,0.155
23:16:42.736,-0.42,0.135
23:16:42.740,-0.46,0.13
23:16:42.744,-0.475,0.09
23:16:42.748,-0.475,0.08
23:16:42.752,-0.485,0.075
23:16:42.756,-0.475,0.06
23:16:42.760,-0.49,0.035
23:16:42.764,-0.475,0.04
23:16:42.768,-0.475,0.02
23:16:42.772,-0.46,0.0
23:16:42.776,-0.46,0.015
23:16:42.780,-0.47,0.005
23:16:42.784,-0.455,0.0
23:16:42.788,-0.465,0.015
23:16:42.792,-0.475,0.0
23:16:42.796,-0.48,0.0
23:16:42.800,-0.485,-0.025
23:16:42.804,-0.5,-0.005
23:16:42.808,-0.49,0.0
23:16:42.812,-0.48,-0.01
23:16:42.816,-0.49,-0.01
23:16:42.820,-0.49,-0.015
23:16:42.824,-0.515,-0.025
23:16:42.828,-0.52,-0.01
23:16:42.832,-0.53,-0.025
23:16:42.836,-0.56,-0.015
23:16:42.840,-0.54,-0.06
23:16:42.844,-0.53,-0.035
23:16:42.848,-0.51,-0.05
23:16:42.852,-0.53,-0.055
23:16:42.856,-0.525,-0.065
23:16:42.860,-0.535,-0.04
23:16:42.864,-0.54,-0.06
23:16:42.868,-0.52,-0.05
23:16:42.872,-0.54,-0.06
23:16:42.876,-0.51,-0.055
23:16:42.880,-0.49,-0.07
23:16:42.884,-0.455,-0.055
23:16:42.888,-0.455,-0.045
23:16:42.892,-0.425,-0.075
23:16:42.896,-0.42,-0.06
23:16:42.900,-0.42,-0.055
23:16:42.904,-0.41,-0.055
23:16:42.908,-0.415,-0.08
23:16:42.912,-0.4,-0.075
23:16:42.916,-0.37,-0.05
23:16:42.920,-0.365,-0.08
23:16:42.924,-0.355,-0.08
23:16:42.928,-0.35,-0.105
23:16:42.932,-0.325,-0.095
23:16:42.936,-0.34,-0.11
23:16:42.940,-0.33,-0.095
23:16:42.944,-0.32,-0.11
23:16:42.948,-0.31,-0.12
23:16:42.952,-0.285,-0.15
23:16:42.956,-0.3,-0.17
23:16:42.960,-0.29,-0.135
23:16:42.964,-0.28,-0.145
23:16:42.968,-0.255,-0.15
23:16:42.972,-0.25,-0.185
23:16:42.976,-0.245,-0.17
23:16:42.980,-0.225,-0.175
23:16:42.984,-0.22,-0.165
23:16:42.988,-0.225,-0.175
23:16:42.992,-0.21,-0.19
23:16:42.996,-0.2,-0.175
23:16:43.000,-0.185,-0.195
23:16:43.004,-0.195,-0.185
23:16:43.008,-0.2,-0.185
23:16:43.012,-0.18,-0.175
23:16:43.016,-0.185,-0.17
23:16:43.020,-0.18,-0.2
23:16:43.024,-0.19,-0.195
23:16:43.028,-0.21,-0.175
23:16:43.032,-0.215,-0.195
23:16:43.036,-0.21,-0.205
23:16:43.040,-0.215,-0.2
23:16:43.044,-0.185,-0.2
23:16:43.048,-0.21,-0.23
23:16:43.052,-0.205,-0.235
23:16:43.056,-0.22,-0.23
23:16:43.060,-0.215,-0.26
23:16:43.064,-0.21,-0.265
23:16:43.068,-0.215,-0.23
23:16:43.072,-0.23,-0.25
23:16:43.076,-0.215,-0.265
23:16:43.080,-0.225,-0.25
23:16:43.084,-0.215,-0.26
23:16:43.088,-0.2,-0.295
23:16:43.092,-0.215,-0.285
23:16:43.096,-0.21,-0.285
23:16:43.100,-0.205,-0.3
23:16:43.104,-0.195,-0.295
23:16:43.108,-0.185,-0.29
23:16:43.112,-0.18,-0.295
23:16:43.116,-0.17,-0.3
23:16:43.120,-0.16,-0.29
23:16:43.124,-0.145,-0.29
23:16:43.128,-0.11,-0.3
23:16:43.132,-0.1,-0.315
23:16:43.136,-0.115,-0.305
23:16:43.140,-0.105,-0.305
23:16:43.144,-0.125,-0.3
23:16:43.148,-0.065,-0.285
23:16:43.152,-0.02,-0.28
23:16:43.156,0.02,-0.295
23:16:43.160,0.05,-0.29
23:16:43.164,0.07,-0.29
23:16:43.168,0.105,-0.28
23:16:43.172,0.135,-0.3
23:16:43.176,0.17,-0.275
23:16:43.180,0.195,-0.295
23:16:43.184,0.18,-0.315
23:16:43.188,0.155,-0.35
23:16:43.192,0.075,-0.365
23:16:43.196,0.06,-0.39
23:16:43.200,-0.005,-0.395
23:16:43.204,-0.07,-0.385
23:16:43.208,-0.13,-0.4
23:16:43.212,-0.15,-0.39
23:16:43.216,-0.19,-0.385
23:16:43.220,-0.21,-0.39
23:16:43.224,-0.21,-0.37
23:16:43.228,-0.2,-0.375
23:16:43.232,-0.195,-0.4
23:16:43.236,-0.185,-0.41
23:16:43.240,-0.17,-0.43
23:16:43.244,-0.185,-0.39
23:16:43.248,-0.16,-0.42
23:16:43.252,-0.17,-0.455
23:16:43.256,-0.15,-0.445
23:16:43.260,-0.175,-0.455
23:16:43.264,-0.17,-0.47
23:16:43.268,-0.175,-0.465
23:16:43.272,-0.17,-0.44
23:16:43.276,-0.175,-0.46
23:16:43.280,-0.18,-0.46
23:16:43.284,-0.15,-0.48
23:16:43.288,-0.155,-0.47
23:16:43.292,-0.165,-0.48
23:16:43.296,-0.16,-0.475
23:16:43.300,-0.17,-0.475
23:16:43.304,-0.14,-0.465
23:16:43.308,-0.145,-0.48
23:16:43.312,-0.14,-0.475
23:16:43.316,-0.14,-0.465
23:16:43.320,-0.095,-0.48
23:16:43.324,-0.09,-0.47
23:16:43.328,-0.04,-0.5
23:16:43.332,0.005,-0.495
23:16:43.336,0.07,-0.485
23:16:43.340,0.185,-0.5
23:16:43.344,0.29,-0.525
23:16:43.348,0.395,-0.545
23:16:43.352,0.44,-0.59
23:16:43.356,0.51,-0.59
23:16:43.360,0.495,-0.55
23:16:43.364,0.435,-0.57
23:16:43.368,0.43,-0.66
23:16:43.372,0.555,-0.77
23:16:43.376,0.78,-0.975
23:16:43.380,1.11,-1.24
23:16:43.384,1.345,-1.465
23:16:43.388,1.34,-1.56
23:16:43.392,1.01,-1.435
23:16:43.396,0.53,-1.08
23:16:43.400,0.145,-0.785
23:16:43.404,0.005,-0.62
23:16:43.408,-0.07,-0.51
23:16:43.412,-0.11,-0.44
23:16:43.416,-0.15,-0.415
23:16:43.420,-0.2,-0.375
23:16:43.424,-0.24,-0.4
23:16:43.428,-0.265,-0.415
23:16:43.432,-0.24,-0.405
23:16:43.436,-0.26,-0.43
23:16:43.440,-0.26,-0.445
23:16:43.444,-0.265,-0.455
23:16:43.448,-0.26,-0.45
23:16:43.452,-0.265,-0.45
23:16:43.456,-0.285,-0.445
23:16:43.460,-0.265,-0.45
23:16:43.464,-0.24,-0.475
23:16:43.468,-0.27,-0.48
23:16:43.472,-0.3,-0.46
23:16:43.476,-0.29,-0.455
23:16:43.480,-0.31,-0.45
23:16:43.484,-0.3,-0.455
23:16:43.488,-0.28,-0.425
23:16:43.492,-0.285,-0.455
23:16:43.496,-0.3,-0.445
23:16:43.500,-0.315,-0.44
23:16:43.504,-0.3,-0.45
23:16:43.508,-0.315,-0.45
23:16:43.512,-0.325,-0.435
23:16:43.516,-0.31,-0.45
23:16:43.520,-0.31,-0.445
23:16:43.524,-0.34,-0.42
23:16:43.528,-0.355,-0.425
23:16:43.532,-0.345,-0.43
23:16:43.536,-0.36,-0.41
23:16:43.540,-0.35,-0.395
23:16:43.544,-0.32,-0.415
23:16:43.548,-0.33,-0.375
23:16:43.552,-0.345,-0.38
23:16:43.556,-0.325,-0.38
23:16:43.560,-0.32,-0.36
23:16:43.564,-0.315,-0.36
23:16:43.568,-0.3,-0.365
23:16:43.572,-0.29,-0.355
23:16:43.576,-0.3,-0.36
23:16:43.580,-0.285,-0.34
23:16:43.584,-0.275,-0.33
23:16:43.588,-0.29,-0.34
23:16:43.592,-0.285,-0.335
23:16:43.596,-0.27,-0.355
23:16:43.600,-0.275,-0.34
23:16:43.604,-0.26,-0.35
23:16:43.608,-0.27,-0.355
23:16:43.612,-0.24,-0.36
23:16:43.616,-0.205,-0.35
23:16:43.620,-0.22,-0.345
23:16:43.624,-0.225,-0.355
23:16:43.628,-0.22,-0.36
23:16:43.632,-0.195,-0.355
23:16:43.636,-0.195,-0.385
23:16:43.640,-0.185,-0.355
23:16:43.644,-0.17,-0.365
23:16:43.648,-0.13,-0.335
23:16:43.652,-0.12,-0.36
23:16:43.656,-0.125,-0.36
23:16:43.660,-0.11,-0.35
23:16:43.664,-0.105,-0.365
23:16:43.668,-0.1,-0.345
23:16:43.672,-0.135,-0.365
23:16:43.676,-0.115,-0.35
23:16:43.680,-0.12,-0.36
23:16:43.684,-0.11,-0.33
23:16:43.688,-0.11,-0.32
23:16:43.692,-0.12,-0.35
23:16:43.696,-0.135,-0.315
23:16:43.700,-0.13,-0.315
23:16:43.704,-0.135,-0.34
23:16:43.708,-0.13,-0.325
23:16:43.712,-0.145,-0.34
23:16:43.716,-0.145,-0.315
23:16:43.720,-0.175,-0.32
23:16:43.724,-0.155,-0.29
23:16:43.728,-0.15,-0.295
23:16:43.732,-0.15,-0.295
23:16:43.736,-0.16,-0.31
23:16:43.740,-0.15,-0.27
23:16:43.744,-0.165,-0.265
23:16:43.748,-0.155,-0.275
23:16:43.752,-0.155,-0.29
23:16:43.756,-0.17,-0.29
23:16:43.760,-0.16,-0.26
23:16:43.764,-0.15,-0.245
23:16:43.768,-0.155,-0.255
23:16:43.772,-0.18,-0.275
23:16:43.776,-0.155,-0.255
23:16:43.780,-0.175,-0.24
23:16:43.784,-0.17,-0.235
23:16:43.788,-0.14,-0.24
23:16:43.792,-0.13,-0.25
23:16:43.796,-0.11,-0.245
23:16:43.800,-0.12,-0.23
23:16:43.804,-0.125,-0.22
23:16:43.808,-0.1,-0.205
23:16:43.812,-0.09,-0.195
23:16:43.816,-0.065,-0.195
23:16:43.820,-0.025,-0.19
23:16:43.824,-0.005,-0.17
23:16:43.828,0.03,-0.15
23:16:43.832,0.09,-0.17
23:16:43.836,0.09,-0.15
23:16:43.840,0.13,-0.145
23:16:43.844,0.125,-0.145
23:16:43.848,0.105,-0.17
23:16:43.852,0.09,-0.18
23:16:43.856,0.05,-0.22
23:16:43.860,-0.01,-0.22
23:16:43.864,-0.07,-0.21
23:16:43.868,-0.115,-0.2
23:16:43.872,-0.165,-0.2
23:16:43.876,-0.21,-0.19
23:16:43.880,-0.245,-0.16
23:16:43.884,-0.31,-0.14
23:16:43.888,-0.325,-0.14
23:16:43.892,-0.325,-0.135
23:16:43.896,-0.325,-0.15
23:16:43.900,-0.32,-0.145
23:16:43.904,-0.31,-0.145
23:16:43.908,-0.31,-0.155
23:16:43.912,-0.305,-0.145
23:16:43.916,-0.31,-0.155
23:16:43.920,-0.325,-0.16
23:16:43.924,-0.31,-0.155
23:16:43.928,-0.335,-0.145
23:16:43.932,-0.33,-0.115
23:16:43.936,-0.32,-0.165
23:16:43.940,-0.315,-0.16
23:16:43.944,-0.335,-0.16
23:16:43.948,-0.325,-0.16
23:16:43.952,-0.34,-0.135
23:16:43.956,-0.34,-0.14
23:16:43.960,-0.32,-0.14
23:16:43.964,-0.335,-0.135
23:16:43.968,-0.32,-0.13
23:16:43.972,-0.32,-0.12
23:16:43.976,-0.305,-0.125
23:16:43.980,-0.285,-0.1
23:16:43.984,-0.275,-0.13
23:16:43.988,-0.25,-0.12
23:16:43.992,-0.23,-0.13
23:16:43.996,-0.185,-0.125
23:16:44.000,-0.105,-0.13
23:16:44.004,-0.005,-0.135
23:16:44.008,0.075,-0.155
23:16:44.012,0.135,-0.18
23:16:44.016,0.175,-0.225
23:16:44.020,0.225,-0.22
23:16:44.024,0.21,-0.195
23:16:44.028,0.19,-0.25
23:16:44.032,0.175,-0.35
23:16:44.036,0.3,-0.475
23:16:44.040,0.585,-0.715
23:16:44.044,0.94,-0.96
23:16:44.048,1.23,-1.18
23:16:44.052,1.305,-1.28
23:16:44.056,1.05,-1.14
23:16:44.060,0.53,-0.75
23:16:44.064,0.035,-0.385
23:16:44.068,-0.2,-0.15
23:16:44.072,-0.32,-0.03
23:16:44.076,-0.39,0.045
23:16:44.080,-0.4,0.07
23:16:44.084,-0.44,0.095
23:16:44.088,-0.45,0.09
23:16:44.092,-0.47,0.08
23:16:44.096,-0.48,0.065
23:16:44.100,-0.49,0.045
23:16:44.104,-0.515,0.045
23:16:44.108,-0.5,0.03
23:16:44.112,-0.5,0.04
23:16:44.116,-0.5,0.03
23:16:44.120,-0.515,0.04
23:16:44.124,-0.525,0.02
23:16:44.128,-0.535,0.015
23:16:44.132,-0.545,0.045
23:16:44.136,-0.555,0.04
23:16:44.140,-0.55,0.03
23:16:44.144,-0.565,0.04
23:16:44.148,-0.565,0.055
23:16:44.152,-0.57,0.04
23:16:44.156,-0.56,0.05
23:16:44.160,-0.58,0.035
23:16:44.164,-0.59,0.045
23:16:44.168,-0.6,0.045
23:16:44.172,-0.61,0.035
23:16:44.176,-0.61,0.03
23:16:44.180,-0.62,0.045
23:16:44.184,-0.61,0.065
23:16:44.188,-0.605,0.06
23:16:44.192,-0.62,0.07
23:16:44.196,-0.605,0.06
23:16:44.200,-0.605,0.055
23:16:44.204,-0.605,0.08
23:16:44.208,-0.615,0.07
23:16:44.212,-0.615,0.095
23:16:44.216,-0.61,0.08
23:16:44.220,-0.605,0.08
23:16:44.224,-0.6,0.095
23:16:44.228,-0.57,0.09
23:16:44.232,-0.585,0.1
23:16:44.236,-0.595,0.09
23:16:44.240,-0.58,0.105
23:16:44.244,-0.585,0.065
23:16:44.248,-0.56,0.075
23:16:44.252,-0.56,0.08
23:16:44.256,-0.55,0.075
23:16:44.260,-0.525,0.075
23:16:44.264,-0.515,0.075
23:16:44.268,-0.52,0.05
23:16:44.272,-0.49,0.055
23:16:44.276,-0.48,0.035
23:16:44.280,-0.465,0.055
23:16:44.284,-0.465,0.065
23:16:44.288,-0.435,0.04
23:16:44.292,-0.435,0.025
23:16:44.296,-0.44,0.035
23:16:44.300,-0.425,0.03
23:16:44.304,-0.395,0.02
23:16:44.308,-0.385,0.035
23:16:44.312,-0.355,0.02
23:16:44.316,-0.345,0.05
23:16:44.320,-0.33,0.035
23:16:44.324,-0.335,0.015
23:16:44.328,-0.345,0.04
23:16:44.332,-0.335,0.05
23:16:44.336,-0.33,0.05
23:16:44.340,-0.33,0.045
23:16:44.344,-0.33,0.035
23:16:44.348,-0.32,0.035
23:16:44.352,-0.32,0.04
23:16:44.356,-0.335,0.06
23:16:44.360,-0.32,0.045
23:16:44.364,-0.32,0.06
23:16:44.368,-0.33,0.055
23:16:44.372,-0.325,0.06
23:16:44.376,-0.31,0.035
23:16:44.380,-0.325,0.05
23:16:44.384,-0.325,0.055
23:16:44.388,-0.32,0.05
23:16:44.392,-0.325,0.075
23:16:44.396,-0.325,0.07
23:16:44.400,-0.335,0.075
23:16:44.404,-0.34,0.055
23:16:44.408,-0.31,0.07
23:16:44.412,-0.31,0.065
23:16:44.416,-0.27,0.06
23:16:44.420,-0.28,0.07
23:16:44.424,-0.265,0.07
23:16:44.428,-0.255,0.08
23:16:44.432,-0.245,0.07
23:16:44.436,-0.215,0.075
23:16:44.440,-0.22,0.085
23:16:44.444,-0.235,0.08
23:16:44.448,-0.2,0.095
23:16:44.452,-0.17,0.105
23:16:44.456,-0.12,0.115
23:16:44.460,-0.09,0.145
23:16:44.464,-0.085,0.135
23:16:44.468,-0.075,0.135
23:16:44.472,-0.045,0.14
23:16:44.476,-0.02,0.12
23:16:44.480,0.0,0.11
23:16:44.484,0.005,0.085
23:16:44.488,0.0,0.06
23:16:44.492,-0.06,0.05
23:16:44.496,-0.125,0.025
23:16:44.500,-0.155,0.015
23:16:44.504,-0.225,0.02
23:16:44.508,-0.27,0.045
23:16:44.512,-0.31,0.045
23:16:44.516,-0.38,0.075
23:16:44.520,-0.395,0.08
23:16:44.524,-0.38,0.085
23:16:44.528,-0.385,0.11
23:16:44.532,-0.375,0.095
23:16:44.536,-0.39,0.075
23:16:44.540,-0.37,0.07
23:16:44.544,-0.38,0.08
23:16:44.548,-0.375,0.08
23:16:44.552,-0.365,0.075
23:16:44.556,-0.35,0.065
23:16:44.560,-0.36,0.07
23:16:44.564,-0.355,0.065
23:16:44.568,-0.36,0.07
23:16:44.572,-0.37,0.065
23:16:44.576,-0.375,0.065
23:16:44.580,-0.365,0.06
23:16:44.584,-0.36,0.05
23:16:44.588,-0.36,0.055
23:16:44.592,-0.35,0.035
23:16:44.596,-0.355,0.04
23:16:44.600,-0.36,0.045
23:16:44.604,-0.345,0.04
23:16:44.608,-0.34,0.06
23:16:44.612,-0.36,0.035
23:16:44.616,-0.34,0.035
23:16:44.620,-0.35,0.035
23:16:44.624,-0.33,0.05
23:16:44.628,-0.27,0.045
23:16:44.632,-0.235,0.045
23:16:44.636,-0.15,0.05
23:16:44.640,-0.075,0.045
23:16:44.644,0.015,0.03
23:16:44.648,0.09,0.005
23:16:44.652,0.135,-0.075
23:16:44.656,0.135,-0.05
23:16:44.660,0.135,-0.035
23:16:44.664,0.095,-0.065
23:16:44.668,0.065,-0.14
23:16:44.672,0.145,-0.265
23:16:44.676,0.37,-0.47
23:16:44.680,0.72,-0.72
23:16:44.684,1.06,-0.995
23:16:44.688,1.225,-1.195
23:16:44.692,1.125,-1.16
23:16:44.696,0.74,-0.865
23:16:44.700,0.225,-0.43
23:16:44.704,-0.12,-0.09
23:16:44.708,-0.265,0.08
23:16:44.712,-0.335,0.165
23:16:44.716,-0.365,0.215
23:16:44.720,-0.405,0.195
23:16:44.724,-0.425,0.21
23:16:44.728,-0.46,0.205
23:16:44.732,-0.46,0.185
23:16:44.736,-0.475,0.185
23:16:44.740,-0.485,0.155
23:16:44.744,-0.48,0.15
23:16:44.748,-0.465,0.15
23:16:44.752,-0.47,0.135
23:16:44.756,-0.485,0.135
23:16:44.760,-0.48,0.12
23:16:44.764,-0.47,0.175
23:16:44.768,-0.475,0.15
23:16:44.772,-0.49,0.15
23:16:44.776,-0.49,0.17
23:16:44.780,-0.49,0.135
23:16:44.784,-0.475,0.145
23:16:44.788,-0.495,0.14
23:16:44.792,-0.515,0.145
23:16:44.796,-0.5,0.135
23:16:44.800,-0.5,0.13
23:16:44.804,-0.515,0.11
23:16:44.808,-0.505,0.135
23:16:44.812,-0.52,0.12
23:16:44.816,-0.545,0.11
23:16:44.820,-0.55,0.1
23:16:44.824,-0.55,0.095
23:16:44.828,-0.565,0.115
23:16:44.832,-0.56,0.105
23:16:44.836,-0.555,0.11
23:16:44.840,-0.55,0.105
23:16:44.844,-0.535,0.11
23:16:44.848,-0.545,0.095
23:16:44.852,-0.535,0.09
23:16:44.856,-0.545,0.09
23:16:44.860,-0.51,0.09
23:16:44.864,-0.51,0.075
23:16:44.868,-0.51,0.085
23:16:44.872,-0.49,0.095
23:16:44.876,-0.48,0.095
23:16:44.880,-0.49,0.1
23:16:44.884,-0.475,0.065
23:16:44.888,-0.475,0.085
23:16:44.892,-0.44,0.05
23:16:44.896,-0.43,0.04
23:16:44.900,-0.45,0.045
23:16:44.904,-0.45,0.03
23:16:44.908,-0.435,0.025
23:16:44.912,-0.42,0.015
23:16:44.916,-0.39,0.025
23:16:44.920,-0.38,-0.005
23:16:44.924,-0.365,0.0
23:16:44.928,-0.365,-0.005
23:16:44.932,-0.345,-0.025
23:16:44.936,-0.335,-0.03
23:16:44.940,-0.32,-0.025
23:16:44.944,-0.32,-0.03
23:16:44.948,-0.31,-0.04
23:16:44.952,-0.3,-0.02
23:16:44.956,-0.28,-0.03
23:16:44.960,-0.285,-0.045
23:16:44.964,-0.25,-0.035
23:16:44.968,-0.26,-0.03
23:16:44.972,-0.275,-0.04
23:16:44.976,-0.255,-0.03
23:16:44.980,-0.255,-0.03
23:16:44.984,-0.255,-0.015
23:16:44.988,-0.25,-0.035
23:16:44.992,-0.235,-0.04
23:16:44.996,-0.23,-0.06
23:16:45.000,-0.26,-0.05
23:16:45.004,-0.26,-0.055
23:16:45.008,-0.27,-0.06
23:16:45.012,-0.305,-0.07
23:16:45.016,-0.29,-0.07
23:16:45.020,-0.27,-0.075
23:16:45.024,-0.275,-0.085
23:16:45.028,-0.25,-0.07
23:16:45.032,-0.265,-0.105
23:16:45.036,-0.27,-0.135
23:16:45.040,-0.285,-0.14
23:16:45.044,-0.325,-0.115
23:16:45.048,-0.31,-0.12
23:16:45.052,-0.31,-0.125
23:16:45.056,-0.305,-0.155
23:16:45.060,-0.295,-0.125
23:16:45.064,-0.27,-0.12
23:16:45.068,-0.255,-0.145
23:16:45.072,-0.23,-0.15
23:16:45.076,-0.255,-0.145
23:16:45.080,-0.225,-0.145
23:16:45.084,-0.195,-0.13
23:16:45.088,-0.215,-0.14
23:16:45.092,-0.2,-0.13
23:16:45.096,-0.185,-0.13
23:16:45.100,-0.13,-0.13
23:16:45.104,-0.1,-0.15
23:16:45.108,-0.04,-0.14
23:16:45.112,-0.03,-0.115
23:16:45.116,0.01,-0.12
23:16:45.120,0.03,-0.125
23:16:45.124,0.06,-0.15
23:16:45.128,0.07,-0.165
23:16:45.132,0.055,-0.165
23:16:45.136,0.03,-0.21
23:16:45.140,0.005,-0.235
23:16:45.144,-0.08,-0.25
23:16:45.148,-0.11,-0.235
23:16:45.152,-0.17,-0.275
23:16:45.156,-0.2,-0.265
23:16:45.160,-0.255,-0.25
23:16:45.164,-0.28,-0.245
23:16:45.168,-0.325,-0.26
23:16:45.172,-0.335,-0.225
23:16:45.176,-0.335,-0.26
23:16:45.180,-0.315,-0.24
23:16:45.184,-0.305,-0.265
23:16:45.188,-0.28,-0.265
23:16:45.192,-0.275,-0.255
23:16:45.196,-0.285,-0.265
23:16:45.200,-0.275,-0.28
23:16:45.204,-0.25,-0.275
23:16:45.208,-0.28,-0.295
23:16:45.212,-0.295,-0.285
23:16:45.216,-0.29,-0.3
23:16:45.220,-0.285,-0.305
23:16:45.224,-0.29,-0.3
23:16:45.228,-0.28,-0.31
23:16:45.232,-0.28,-0.3
23:16:45.236,-0.295,-0.315
23:16:45.240,-0.29,-0.325
23:16:45.244,-0.28,-0.34
23:16:45.248,-0.295,-0.36
23:16:45.252,-0.27,-0.33
23:16:45.256,-0.255,-0.355
23:16:45.260,-0.27,-0.36
23:16:45.264,-0.25,-0.37
23:16:45.268,-0.25,-0.365
23:16:45.272,-0.2,-0.365
23:16:45.276,-0.17,-0.355
23:16:45.280,-0.11,-0.38
23:16:45.284,0.0,-0.39
23:16:45.288,0.09,-0.395
23:16:45.292,0.19,-0.405
23:16:45.296,0.26,-0.465
23:16:45.300,0.33,-0.49
23:16:45.304,0.38,-0.48
23:16:45.308,0.385,-0.46
23:16:45.312,0.33,-0.475
23:16:45.316,0.32,-0.515
23:16:45.320,0.43,-0.625
23:16:45.324,0.685,-0.845
23:16:45.328,1.005,-1.11
23:16:45.332,1.26,-1.33
23:16:45.336,1.32,-1.47
23:16:45.340,1.015,-1.36
23:16:45.344,0.525,-1.02
23:16:45.348,0.125,-0.71
23:16:45.352,-0.06,-0.505
23:16:45.356,-0.145,-0.395
23:16:45.360,-0.195,-0.345
23:16:45.364,-0.245,-0.285
23:16:45.368,-0.265,-0.275
23:16:45.372,-0.305,-0.28
23:16:45.376,-0.315,-0.285
23:16:45.380,-0.325,-0.33
23:16:45.384,-0.34,-0.335
23:16:45.388,-0.34,-0.37
23:16:45.392,-0.35,-0.355
23:16:45.396,-0.35,-0.385
23:16:45.400,-0.33,-0.38
23:16:45.404,-0.315,-0.385
23:16:45.408,-0.34,-0.41
23:16:45.412,-0.335,-0.395
23:16:45.416,-0.335,-0.41
23:16:45.420,-0.32,-0.4
23:16:45.424,-0.32,-0.395
23:16:45.428,-0.31,-0.425
23:16:45.432,-0.32,-0.425
23:16:45.436,-0.32,-0.42
23:16:45.440,-0.335,-0.42
23:16:45.444,-0.36,-0.41
23:16:45.448,-0.355,-0.405
23:16:45.452,-0.38,-0.405
23:16:45.456,-0.38,-0.435
23:16:45.460,-0.38,-0.415
23:16:45.464,-0.365,-0.425
23:16:45.468,-0.36,-0.435
23:16:45.472,-0.355,-0.445
23:16:45.476,-0.37,-0.435
23:16:45.480,-0.38,-0.435
23:16:45.484,-0.395,-0.445
23:16:45.488,-0.385,-0.43
23:16:45.492,-0.35,-0.42
23:16:45.496,-0.345,-0.425
23:16:45.500,-0.35,-0.44
23:16:45.504,-0.32,-0.435
23:16:45.508,-0.325,-0.41
23:16:45.512,-0.32,-0.42
23:16:45.516,-0.31,-0.415
23:16:45.520,-0.32,-0.425
23:16:45.524,-0.29,-0.44
23:16:45.528,-0.27,-0.42
23:16:45.532,-0.25,-0.415
23:16:45.536,-0.24,-0.43
23:16:45.540,-0.23,-0.44
23:16:45.544,-0.235,-0.42
23:16:45.548,-0.235,-0.435
23:16:45.552,-0.235,-0.43
23:16:45.556,-0.21,-0.47
23:16:45.560,-0.2,-0.44
23:16:45.564,-0.2,-0.445
23:16:45.568,-0.195,-0.46
23:16:45.572,-0.195,-0.465
23:16:45.576,-0.165,-0.455
23:16:45.580,-0.16,-0.465
23:16:45.584,-0.14,-0.45
23:16:45.588,-0.14,-0.445
23:16:45.592,-0.12,-0.48
23:16:45.596,-0.115,-0.51
23:16:45.600,-0.105,-0.49
23:16:45.604,-0.11,-0.485
23:16:45.608,-0.095,-0.48
23:16:45.612,-0.085,-0.48
23:16:45.616,-0.08,-0.46
23:16:45.620,-0.07,-0.46
23:16:45.624,-0.07,-0.48
23:16:45.628,-0.06,-0.465
23:16:45.632,-0.04,-0.45
23:16:45.636,-0.045,-0.465
23:16:45.640,-0.03,-0.45
23:16:45.644,-0.015,-0.465
23:16:45.648,-0.03,-0.445
23:16:45.652,-0.02,-0.48
23:16:45.656,-0.05,-0.45
23:16:45.660,-0.06,-0.435
23:16:45.664,-0.07,-0.43
23:16:45.668,-0.08,-0.43
23:16:45.672,-0.07,-0.43
23:16:45.676,-0.065,-0.435
23:16:45.680,-0.06,-0.45
23:16:45.684,-0.065,-0.46
23:16:45.688,-0.09,-0.44
23:16:45.692,-0.085,-0.445
23:16:45.696,-0.085,-0.445
23:16:45.700,-0.07,-0.43
23:16:45.704,-0.09,-0.445
23:16:45.708,-0.09,-0.445
23:16:45.712,-0.105,-0.44
23:16:45.716,-0.08,-0.43
23:16:45.720,-0.07,-0.44
23:16:45.724,-0.09,-0.435
23:16:45.728,-0.05,-0.415
23:16:45.732,-0.035,-0.405
23:16:45.736,-0.03,-0.42
23:16:45.740,-0.015,-0.415
23:16:45.744,-0.02,-0.395
23:16:45.748,-0.01,-0.41
23:16:45.752,-0.015,-0.385
23:16:45.756,0.02,-0.365
23:16:45.760,0.05,-0.38
23:16:45.764,0.095,-0.33
23:16:45.768,0.14,-0.325
23:16:45.772,0.17,-0.31
23:16:45.776,0.18,-0.33
23:16:45.780,0.205,-0.33
23:16:45.784,0.22,-0.32
23:16:45.788,0.21,-0.345
23:16:45.792,0.22,-0.35
23:16:45.796,0.155,-0.385
23:16:45.800,0.1,-0.415
23:16:45.804,0.06,-0.435
23:16:45.808,0.005,-0.385
23:16:45.812,-0.05,-0.425
23:16:45.816,-0.115,-0.42
23:16:45.820,-0.16,-0.385
23:16:45.824,-0.22,-0.375
23:16:45.828,-0.23,-0.375
23:16:45.832,-0.225,-0.38
23:16:45.836,-0.21,-0.375
23:16:45.840,-0.205,-0.38
23:16:45.844,-0.205,-0.37
23:16:45.848,-0.2,-0.375
23:16:45.852,-0.18,-0.39
23:16:45.856,-0.18,-0.385
23:16:45.860,-0.19,-0.36
23:16:45.864,-0.185,-0.37
23:16:45.868,-0.175,-0.38
23:16:45.872,-0.18,-0.345
23:16:45.876,-0.195,-0.365
23:16:45.880,-0.19,-0.34
23:16:45.884,-0.22,-0.36
23:16:45.888,-0.205,-0.36
23:16:45.892,-0.205,-0.36
23:16:45.896,-0.21,-0.34
23:16:45.900,-0.22,-0.345
23:16:45.904,-0.225,-0.355
23:16:45.908,-0.23,-0.365
23:16:45.912,-0.215,-0.345
23:16:45.916,-0.21,-0.36
23:16:45.920,-0.195,-0.35
23:16:45.924,-0.205,-0.335
23:16:45.928,-0.205,-0.355
23:16:45.932,-0.19,-0.33
23:16:45.936,-0.125,-0.33
23:16:45.940,-0.08,-0.33
23:16:45.944,0.01,-0.32
23:16:45.948,0.125,-0.345
23:16:45.952,0.23,-0.34
23:16:45.956,0.29,-0.4
23:16:45.960,0.33,-0.405
23:16:45.964,0.365,-0.395
23:16:45.968,0.365,-0.39
23:16:45.972,0.31,-0.42
23:16:45.976,0.295,-0.505
23:16:45.980,0.445,-0.655
23:16:45.984,0.74,-0.86
23:16:45.988,1.09,-1.13
23:16:45.992,1.36,-1.36
23:16:45.996,1.325,-1.435
23:16:46.000,1.02,-1.275
23:16:46.004,0.5,-0.9
23:16:46.008,0.05,-0.55
23:16:46.012,-0.175,-0.335
23:16:46.016,-0.28,-0.205
23:16:46.020,-0.305,-0.12
23:16:46.024,-0.34,-0.08
23:16:46.028,-0.355,-0.075
23:16:46.032,-0.395,-0.07
23:16:46.036,-0.435,-0.07
23:16:46.040,-0.465,-0.105
23:16:46.044,-0.46,-0.1
23:16:46.048,-0.465,-0.1
23:16:46.052,-0.47,-0.13
23:16:46.056,-0.48,-0.125
23:16:46.060,-0.47,-0.1
23:16:46.064,-0.48,-0.095
23:16:46.068,-0.495,-0.115
23:16:46.072,-0.48,-0.105
23:16:46.076,-0.465,-0.08
23:16:46.080,-0.49,-0.1
23:16:46.084,-0.475,-0.085
23:16:46.088,-0.505,-0.095
23:16:46.092,-0.5,-0.105
23:16:46.096,-0.51,-0.07
23:16:46.100,-0.515,-0.07
23:16:46.104,-0.535,-0.095
23:16:46.108,-0.53,-0.09
23:16:46.112,-0.545,-0.1
23:16:46.116,-0.555,-0.07
23:16:46.120,-0.57,-0.085
23:16:46.124,-0.58,-0.075
23:16:46.128,-0.57,-0.08
23:16:46.132,-0.59,-0.09
23:16:46.136,-0.585,-0.085
23:16:46.140,-0.585,-0.075
23:16:46.144,-0.56,-0.085
23:16:46.148,-0.59,-0.075
23:16:46.152,-0.585,-0.06
23:16:46.156,-0.6,-0.07
23:16:46.160,-0.58,-0.045
23:16:46.164,-0.585,-0.06
23:16:46.168,-0.575,-0.05
23:16:46.172,-0.54,-0.055
23:16:46.176,-0.545,-0.045
23:16:46.180,-0.55,-0.02
23:16:46.184,-0.53,-0.035
23:16:46.188,-0.51,-0.015
23:16:46.192,-0.515,-0.01
23:16:46.196,-0.495,-0.01
23:16:46.200,-0.485,-0.025
23:16:46.204,-0.445,-0.035
23:16:46.208,-0.47,-0.03
23:16:46.212,-0.44,-0.04
23:16:46.216,-0.44,-0.04
23:16:46.220,-0.42,-0.065
23:16:46.224,-0.415,-0.08
23:16:46.228,-0.415,-0.05
23:16:46.232,-0.405,-0.055
23:16:46.236,-0.41,-0.065
23:16:46.240,-0.37,-0.08
23:16:46.244,-0.375,-0.08
23:16:46.248,-0.35,-0.1
23:16:46.252,-0.34,-0.1
23:16:46.256,-0.34,-0.085
23:16:46.260,-0.34,-0.08
23:16:46.264,-0.325,-0.07
23:16:46.268,-0.33,-0.085
23:16:46.272,-0.33,-0.08
23:16:46.276,-0.315,-0.06
23:16:46.280,-0.295,-0.055
23:16:46.284,-0.285,-0.06
23:16:46.288,-0.275,-0.065
23:16:46.292,-0.275,-0.04
23:16:46.296,-0.28,-0.05
23:16:46.300,-0.275,-0.035
23:16:46.304,-0.28,-0.005
23:16:46.308,-0.285,-0.035
23:16:46.312,-0.26,-0.02
23:16:46.316,-0.27,0.01
23:16:46.320,-0.27,-0.005
23:16:46.324,-0.275,-0.015
23:16:46.328,-0.285,-0.02
23:16:46.332,-0.285,-0.02
23:16:46.336,-0.305,-0.01
23:16:46.340,-0.31,0.005
23:16:46.344,-0.315,-0.01
23:16:46.348,-0.3,-0.035
23:16:46.352,-0.305,-0.015
23:16:46.356,-0.29,-0.015
23:16:46.360,-0.29,-0.01
23:16:46.364,-0.27,-0.02
23:16:46.368,-0.255,-0.005
23:16:46.372,-0.23,-0.02
23:16:46.376,-0.23,-0.02
23:16:46.380,-0.215,0.0
23:16:46.384,-0.21,0.005
23:16:46.388,-0.215,0.005
23:16:46.392,-0.16,-0.005
23:16:46.396,-0.12,0.025
23:16:46.400,-0.08,0.035
23:16:46.404,-0.04,0.07
23:16:46.408,-0.03,0.07
23:16:46.412,-0.03,0.065
23:16:46.416,0.02,0.07
23:16:46.420,0.035,0.065
23:16:46.424,0.045,0.065
23:16:46.428,0.035,0.04
23:16:46.432,-0.015,0.015
23:16:46.436,-0.06,0.0
23:16:46.440,-0.095,-0.01
23:16:46.444,-0.135,-0.01
23:16:46.448,-0.23,-0.005
23:16:46.452,-0.3,-0.015
23:16:46.456,-0.32,0.015
23:16:46.460,-0.38,-0.005
23:16:46.464,-0.4,0.005
23:16:46.468,-0.385,0.01
23:16:46.472,-0.405,0.0
23:16:46.476,-0.39,0.03
23:16:46.480,-0.385,0.015
23:16:46.484,-0.4,-0.02
23:16:46.488,-0.38,-0.015
23:16:46.492,-0.38,-0.015
23:16:46.496,-0.385,-0.005
23:16:46.500,-0.36,0.0
23:16:46.504,-0.36,0.0
23:16:46.508,-0.34,-0.01
23:16:46.512,-0.35,0.005
23:16:46.516,-0.36,0.0
23:16:46.520,-0.345,0.0
23:16:46.524,-0.35,0.015
23:16:46.528,-0.345,0.01
23:16:46.532,-0.34,0.005
23:16:46.536,-0.32,0.035
23:16:46.540,-0.35,0.01
23:16:46.544,-0.35,0.005
23:16:46.548,-0.345,-0.005
23:16:46.552,-0.355,0.01
23:16:46.556,-0.335,0.025
23:16:46.560,-0.335,0.02
23:16:46.564,-0.335,0.0
23:16:46.568,-0.305,-0.02
23:16:46.572,-0.27,-0.015
23:16:46.576,-0.205,-0.01
23:16:46.580,-0.125,-0.015
23:16:46.584,-0.01,-0.01
23:16:46.588,0.06,-0.04
23:16:46.592,0.095,-0.06
23:16:46.596,0.11,-0.105
23:16:46.600,0.145,-0.1
23:16:46.604,0.115,-0.105
23:16:46.608,0.085,-0.155
23:16:46.612,0.095,-0.23
23:16:46.616,0.245,-0.395
23:16:46.620,0.555,-0.61
23:16:46.624,0.935,-0.915
23:16:46.628,1.22,-1.175
23:16:46.632,1.28,-1.225
23:16:46.636,1.08,-1.05
23:16:46.640,0.59,-0.64
23:16:46.644,0.12,-0.26
23:16:46.648,-0.13,-0.005
23:16:46.652,-0.26,0.12
23:16:46.656,-0.33,0.18
23:16:46.660,-0.37,0.2
23:16:46.664,-0.41,0.195
23:16:46.668,-0.45,0.195
23:16:46.672,-0.46,0.18
23:16:46.676,-0.46,0.165
23:16:46.680,-0.46,0.155
23:16:46.684,-0.46,0.125
23:16:46.688,-0.485,0.115
23:16:46.692,-0.475,0.105
23:16:46.696,-0.47,0.105
23:16:46.700,-0.47,0.11
23:16:46.704,-0.495,0.095
23:16:46.708,-0.495,0.085
23:16:46.712,-0.495,0.08
23:16:46.716,-0.5,0.09
23:16:46.720,-0.49,0.095
23:16:46.724,-0.48,0.095
23:16:46.728,-0.48,0.095
23:16:46.732,-0.48,0.095
23:16:46.736,-0.47,0.105
23:16:46.740,-0.515,0.1
23:16:46.744,-0.5,0.095
23:16:46.748,-0.515,0.11
23:16:46.752,-0.51,0.115
23:16:46.756,-0.515,0.105
23:16:46.760,-0.52,0.105
23:16:46.764,-0.525,0.105
23:16:46.768,-0.53,0.1
23:16:46.772,-0.565,0.12
23:16:46.776,-0.57,0.105
23:16:46.780,-0.55,0.115
23:16:46.784,-0.555,0.11
23:16:46.788,-0.54,0.095
23:16:46.792,-0.555,0.115
23:16:46.796,-0.545,0.085
23:16:46.800,-0.535,0.095
23:16:46.804,-0.535,0.12
23:16:46.808,-0.525,0.08
23:16:46.812,-0.515,0.1
23:16:46.816,-0.51,0.085
23:16:46.820,-0.495,0.09
23:16:46.824,-0.49,0.1
23:16:46.828,-0.47,0.095
23:16:46.832,-0.44,0.11
23:16:46.836,-0.415,0.09
23:16:46.840,-0.405,0.09
23:16:46.844,-0.375,0.055
23:16:46.848,-0.36,0.1
23:16:46.852,-0.35,0.08
23:16:46.856,-0.345,0.08
23:16:46.860,-0.34,0.07
23:16:46.864,-0.32,0.045
23:16:46.868,-0.315,0.04
23:16:46.872,-0.32,0.045
23:16:46.876,-0.31,0.04
23:16:46.880,-0.305,0.045
23:16:46.884,-0.29,0.04
23:16:46.888,-0.305,0.03
23:16:46.892,-0.275,0.035
23:16:46.896,-0.285,0.005
23:16:46.900,-0.295,0.01
23:16:46.904,-0.285,0.02
23:16:46.908,-0.29,0.0
23:16:46.912,-0.245,0.025
23:16:46.916,-0.24,0.01
23:16:46.920,-0.235,0.005
23:16:46.924,-0.225,0.005
23:16:46.928,-0.215,0.01
23:16:46.932,-0.235,0.02
23:16:46.936,-0.24,-0.005
23:16:46.940,-0.23,0.005
23:16:46.944,-0.215,0.005
23:16:46.948,-0.195,0.0
23:16:46.952,-0.19,0.04
23:16:46.956,-0.195,0.015
23:16:46.960,-0.205,0.015
23:16:46.964,-0.225,0.02
23:16:46.968,-0.23,0.03
23:16:46.972,-0.21,0.03
23:16:46.976,-0.225,0.01
23:16:46.980,-0.235,0.005
23:16:46.984,-0.245,0.0
23:16:46.988,-0.245,-0.015
23:16:46.992,-0.25,-0.025
23:16:46.996,-0.25,-0.02
23:16:47.000,-0.245,-0.02
23:16:47.004,-0.215,-0.04
23:16:47.008,-0.225,-0.055
23:16:47.012,-0.2,-0.055
23:16:47.016,-0.205,-0.06
23:16:47.020,-0.2,-0.055
23:16:47.024,-0.185,-0.055
23:16:47.028,-0.17,-0.065
23:16:47.032,-0.165,-0.055
23:16:47.036,-0.125,-0.065
23:16:47.040,-0.07,-0.035
23:16:47.044,-0.03,-0.04
23:16:47.048,0.0,-0.04
23:16:47.052,0.055,-0.04
23:16:47.056,0.075,-0.055
23:16:47.060,0.085,-0.07
23:16:47.064,0.1,-0.065
23:16:47.068,0.05,-0.085
23:16:47.072,0.015,-0.115
23:16:47.076,-0.04,-0.14
23:16:47.080,-0.105,-0.16
23:16:47.084,-0.155,-0.145
23:16:47.088,-0.21,-0.15
23:16:47.092,-0.265,-0.17
23:16:47.096,-0.31,-0.15
23:16:47.100,-0.355,-0.135
23:16:47.104,-0.36,-0.125
23:16:47.108,-0.395,-0.175
23:16:47.112,-0.385,-0.18
23:16:47.116,-0.395,-0.195
23:16:47.120,-0.375,-0.16
23:16:47.124,-0.365,-0.175
23:16:47.128,-0.375,-0.205
23:16:47.132,-0.375,-0.21
23:16:47.136,-0.38,-0.24
23:16:47.140,-0.35,-0.25
23:16:47.144,-0.33,-0.24
23:16:47.148,-0.345,-0.24
23:16:47.152,-0.34,-0.24
23:16:47.156,-0.335,-0.25
23:16:47.160,-0.33,-0.23
23:16:47.164,-0.315,-0.26
23:16:47.168,-0.29,-0.265
23:16:47.172,-0.3,-0.255
23:16:47.176,-0.3,-0.265
23:16:47.180,-0.31,-0.24
23:16:47.184,-0.31,-0.25
23:16:47.188,-0.315,-0.275
23:16:47.192,-0.305,-0.245
23:16:47.196,-0.285,-0.25
23:16:47.200,-0.28,-0.27
23:16:47.204,-0.27,-0.285
23:16:47.208,-0.255,-0.285
23:16:47.212,-0.2,-0.295
23:16:47.216,-0.095,-0.29
23:16:47.220,0.0,-0.3
23:16:47.224,0.095,-0.34
23:16:47.228,0.175,-0.39
23:16:47.232,0.255,-0.39
23:16:47.236,0.325,-0.39
23:16:47.240,0.3,-0.38
23:16:47.244,0.235,-0.39
23:16:47.248,0.19,-0.455
23:16:47.252,0.31,-0.575
23:16:47.256,0.58,-0.755
23:16:47.260,0.945,-1.04
23:16:47.264,1.215,-1.305
23:16:47.268,1.3,-1.425
23:16:47.272,1.065,-1.285
23:16:47.276,0.605,-0.95
23:16:47.280,0.17,-0.595
23:16:47.284,-0.075,-0.41
23:16:47.288,-0.16,-0.295
23:16:47.292,-0.225,-0.225
23:16:47.296,-0.225,-0.19
23:16:47.300,-0.285,-0.175
23:16:47.304,-0.32,-0.155
23:16:47.308,-0.345,-0.185
23:16:47.312,-0.395,-0.21
23:16:47.316,-0.385,-0.24
23:16:47.320,-0.4,-0.255
23:16:47.324,-0.44,-0.29
23:16:47.328,-0.435,-0.29
23:16:47.332,-0.435,-0.305
23:16:47.336,-0.425,-0.32
23:16:47.340,-0.41,-0.315
23:16:47.344,-0.425,-0.33
23:16:47.348,-0.43,-0.325
23:16:47.352,-0.435,-0.32
23:16:47.356,-0.425,-0.335
23:16:47.360,-0.44,-0.315
23:16:47.364,-0.445,-0.34
23:16:47.368,-0.45,-0.33
23:16:47.372,-0.445,-0.32
23:16:47.376,-0.435,-0.32
23:16:47.380,-0.44,-0.34
23:16:47.384,-0.445,-0.345
23:16:47.388,-0.46,-0.345
23:16:47.392,-0.43,-0.34
23:16:47.396,-0.435,-0.35
23:16:47.400,-0.45,-0.335
23:16:47.404,-0.43,-0.335
23:16:47.408,-0.435,-0.34
23:16:47.412,-0.45,-0.35
23:16:47.416,-0.465,-0.355
23:16:47.420,-0.45,-0.355
23:16:47.424,-0.435,-0.345
23:16:47.428,-0.44,-0.34
23:16:47.432,-0.435,-0.34
23:16:47.436,-0.445,-0.375
23:16:47.440,-0.43,-0.37
23:16:47.444,-0.43,-0.38
23:16:47.448,-0.405,-0.385
23:16:47.452,-0.39,-0.395
23:16:47.456,-0.38,-0.39
23:16:47.460,-0.37,-0.385
23:16:47.464,-0.36,-0.405
23:16:47.468,-0.34,-0.4
23:16:47.472,-0.335,-0.42
23:16:47.476,-0.305,-0.4
23:16:47.480,-0.28,-0.4
23:16:47.484,-0.275,-0.405
23:16:47.488,-0.27,-0.425
23:16:47.492,-0.26,-0.43
23:16:47.496,-0.26,-0.42
23:16:47.500,-0.23,-0.42
23:16:47.504,-0.225,-0.425
23:16:47.508,-0.24,-0.42
23:16:47.512,-0.235,-0.41
23:16:47.516,-0.2,-0.435
23:16:47.520,-0.185,-0.435
23:16:47.524,-0.18,-0.435
23:16:47.528,-0.18,-0.44
23:16:47.532,-0.18,-0.45
23:16:47.536,-0.18,-0.46
23:16:47.540,-0.16,-0.43
23:16:47.544,-0.17,-0.44
23:16:47.548,-0.155,-0.45
23:16:47.552,-0.16,-0.435
23:16:47.556,-0.175,-0.435
23:16:47.560,-0.145,-0.46
23:16:47.564,-0.15,-0.425
23:16:47.568,-0.145,-0.44
23:16:47.572,-0.13,-0.44
23:16:47.576,-0.135,-0.445
23:16:47.580,-0.145,-0.42
23:16:47.584,-0.17,-0.42
23:16:47.588,-0.135,-0.44
23:16:47.592,-0.12,-0.425
23:16:47.596,-0.11,-0.4
23:16:47.600,-0.11,-0.425
23:16:47.604,-0.13,-0.405
23:16:47.608,-0.115,-0.41
23:16:47.612,-0.105,-0.425
23:16:47.616,-0.12,-0.41
23:16:47.620,-0.115,-0.415
23:16:47.624,-0.125,-0.395
23:16:47.628,-0.125,-0.4
23:16:47.632,-0.13,-0.43
23:16:47.636,-0.13,-0.385
23:16:47.640,-0.12,-0.41
23:16:47.644,-0.115,-0.415
23:16:47.648,-0.12,-0.405
23:16:47.652,-0.11,-0.4
23:16:47.656,-0.09,-0.395
23:16:47.660,-0.095,-0.425
23:16:47.664,-0.08,-0.45
23:16:47.668,-0.08,-0.44
23:16:47.672,-0.08,-0.415
23:16:47.676,-0.07,-0.41
23:16:47.680,-0.05,-0.39
23:16:47.684,-0.03,-0.41
23:16:47.688,0.04,-0.385
23:16:47.692,0.06,-0.395
23:16:47.696,0.105,-0.35
23:16:47.700,0.155,-0.355
23:16:47.704,0.2,-0.34
23:16:47.708,0.21,-0.36
23:16:47.712,0.225,-0.335
23:16:47.716,0.21,-0.355
23:16:47.720,0.16,-0.38
23:16:47.724,0.095,-0.375
23:16:47.728,0.035,-0.395
23:16:47.732,-0.01,-0.4
23:16:47.736,-0.07,-0.39
23:16:47.740,-0.12,-0.41
23:16:47.744,-0.175,-0.39
23:16:47.748,-0.23,-0.375
23:16:47.752,-0.26,-0.36
23:16:47.756,-0.25,-0.355
23:16:47.760,-0.245,-0.37
23:16:47.764,-0.28,-0.38
23:16:47.768,-0.26,-0.385
23:16:47.772,-0.26,-0.385
23:16:47.776,-0.27,-0.37
23:16:47.780,-0.255,-0.38
23:16:47.784,-0.235,-0.38
23:16:47.788,-0.245,-0.395
23:16:47.792,-0.255,-0.385
23:16:47.796,-0.235,-0.395
23:16:47.800,-0.24,-0.385
23:16:47.804,-0.25,-0.375
23:16:47.808,-0.24,-0.39
23:16:47.812,-0.225,-0.36
23:16:47.816,-0.235,-0.385
23:16:47.820,-0.23,-0.4
23:16:47.824,-0.245,-0.36
23:16:47.828,-0.23,-0.35
23:16:47.832,-0.22,-0.35
23:16:47.836,-0.215,-0.35
23:16:47.840,-0.22,-0.37
23:16:47.844,-0.23,-0.375
23:16:47.848,-0.22,-0.355
23:16:47.852,-0.21,-0.37
23:16:47.856,-0.19,-0.35
23:16:47.860,-0.13,-0.365
23:16:47.864,-0.055,-0.36
23:16:47.868,0.035,-0.38
23:16:47.872,0.135,-0.39
23:16:47.876,0.195,-0.455
23:16:47.880,0.27,-0.495
23:16:47.884,0.305,-0.48
23:16:47.888,0.315,-0.46
23:16:47.892,0.285,-0.47
23:16:47.896,0.25,-0.53
23:16:47.900,0.35,-0.64
23:16:47.904,0.61,-0.84
23:16:47.908,0.955,-1.12
23:16:47.912,1.265,-1.345
23:16:47.916,1.35,-1.47
23:16:47.920,1.15,-1.36
23:16:47.924,0.665,-1.01
23:16:47.928,0.155,-0.64
23:16:47.932,-0.09,-0.425
23:16:47.936,-0.225,-0.28
23:16:47.940,-0.265,-0.19
23:16:47.944,-0.305,-0.135
23:16:47.948,-0.32,-0.12
23:16:47.952,-0.385,-0.105
23:16:47.956,-0.395,-0.125
23:16:47.960,-0.425,-0.14
23:16:47.964,-0.425,-0.16
23:16:47.968,-0.435,-0.15
23:16:47.972,-0.47,-0.175
23:16:47.976,-0.465,-0.185
23:16:47.980,-0.475,-0.155
23:16:47.984,-0.455,-0.175
23:16:47.988,-0.455,-0.175
23:16:47.992,-0.46,-0.17
23:16:47.996,-0.475,-0.16
23:16:48.000,-0.48,-0.16
23:16:48.004,-0.495,-0.165
23:16:48.008,-0.49,-0.16
23:16:48.012,-0.49,-0.145
23:16:48.016,-0.495,-0.15
23:16:48.020,-0.51,-0.13
23:16:48.024,-0.525,-0.135
23:16:48.028,-0.49,-0.12
23:16:48.032,-0.51,-0.12
23:16:48.036,-0.52,-0.12
23:16:48.040,-0.51,-0.12
23:16:48.044,-0.54,-0.095
23:16:48.048,-0.54,-0.115
23:16:48.052,-0.54,-0.11
23:16:48.056,-0.565,-0.09
23:16:48.060,-0.545,-0.1
23:16:48.064,-0.565,-0.095
23:16:48.068,-0.565,-0.105
23:16:48.072,-0.565,-0.115
23:16:48.076,-0.585,-0.08
23:16:48.080,-0.57,-0.095
23:16:48.084,-0.58,-0.1
23:16:48.088,-0.575,-0.095
23:16:48.092,-0.56,-0.075
23:16:48.096,-0.555,-0.09
23:16:48.100,-0.54,-0.09
23:16:48.104,-0.525,-0.09
23:16:48.108,-0.525,-0.095
23:16:48.112,-0.51,-0.095
23:16:48.116,-0.5,-0.08
23:16:48.120,-0.495,-0.09
23:16:48.124,-0.49,-0.08
23:16:48.128,-0.47,-0.095
23:16:48.132,-0.45,-0.11
23:16:48.136,-0.44,-0.115
23:16:48.140,-0.42,-0.105
23:16:48.144,-0.405,-0.11
23:16:48.148,-0.395,-0.12
23:16:48.152,-0.365,-0.085
23:16:48.156,-0.375,-0.115
23:16:48.160,-0.35,-0.1
23:16:48.164,-0.345,-0.115
23:16:48.168,-0.34,-0.1
23:16:48.172,-0.32,-0.12
23:16:48.176,-0.32,-0.135
23:16:48.180,-0.32,-0.095
23:16:48.184,-0.32,-0.09
23:16:48.188,-0.325,-0.105
23:16:48.192,-0.33,-0.095
23:16:48.196,-0.315,-0.095
23:16:48.200,-0.315,-0.08
23:16:48.204,-0.305,-0.085
23:16:48.208,-0.28,-0.08
23:16:48.212,-0.29,-0.08
23:16:48.216,-0.29,-0.08
23:16:48.220,-0.28,-0.075
23:16:48.224,-0.285,-0.06
23:16:48.228,-0.26,-0.05
23:16:48.232,-0.285,-0.07
23:16:48.236,-0.27,-0.075
23:16:48.240,-0.295,-0.075
23:16:48.244,-0.275,-0.04
23:16:48.248,-0.28,-0.04
23:16:48.252,-0.28,-0.03
23:16:48.256,-0.27,-0.01
23:16:48.260,-0.27,-0.005
23:16:48.264,-0.27,-0.02
23:16:48.268,-0.275,-0.01
23:16:48.272,-0.26,0.01
23:16:48.276,-0.28,-0.005
23:16:48.280,-0.27,-0.02
23:16:48.284,-0.29,0.005
23:16:48.288,-0.265,-0.01
23:16:48.292,-0.28,-0.025
23:16:48.296,-0.255,-0.015
23:16:48.300,-0.26,-0.015
23:16:48.304,-0.25,0.0
23:16:48.308,-0.23,0.005
23:16:48.312,-0.23,-0.015
23:16:48.316,-0.21,0.005
23:16:48.320,-0.145,0.005
23:16:48.324,-0.1,0.02
23:16:48.328,-0.085,0.02
23:16:48.332,-0.075,0.02
23:16:48.336,-0.03,0.01
23:16:48.340,-0.01,0.035
23:16:48.344,0.01,0.02
23:16:48.348,0.02,0.015
23:16:48.352,0.015,-0.01
23:16:48.356,-0.025,-0.03
23:16:48.360,-0.07,-0.05
23:16:48.364,-0.115,-0.03
23:16:48.368,-0.18,-0.04
23:16:48.372,-0.25,-0.035
23:16:48.376,-0.29,-0.02
23:16:48.380,-0.34,0.0
23:16:48.384,-0.385,0.02
23:16:48.388,-0.39,0.0
23:16:48.392,-0.42,0.01
23:16:48.396,-0.41,0.005
23:16:48.400,-0.42,0.0
23:16:48.404,-0.4,-0.025
23:16:48.408,-0.425,-0.02
23:16:48.412,-0.41,-0.035
23:16:48.416,-0.41,-0.01
23:16:48.420,-0.415,0.0
23:16:48.424,-0.4,-0.045
23:16:48.428,-0.415,-0.02
23:16:48.432,-0.4,-0.015
23:16:48.436,-0.39,-0.04
23:16:48.440,-0.405,-0.025
23:16:48.444,-0.405,-0.035
23:16:48.448,-0.395,-0.035
23:16:48.452,-0.385,-0.02
23:16:48.456,-0.38,-0.02
23:16:48.460,-0.385,-0.005
23:16:48.464,-0.365,-0.015
23:16:48.468,-0.37,-0.025
23:16:48.472,-0.345,-0.03
23:16:48.476,-0.37,-0.02
23:16:48.480,-0.33,0.0
23:16:48.484,-0.34,-0.01
23:16:48.488,-0.32,-0.01
23:16:48.492,-0.28,-0.005
23:16:48.496,-0.225,0.0
23:16:48.500,-0.155,-0.005
23:16:48.504,-0.06,-0.025
23:16:48.508,0.015,-0.05
23:16:48.512,0.05,-0.07
23:16:48.516,0.075,-0.12
23:16:48.520,0.095,-0.12
23:16:48.524,0.09,-0.1
23:16:48.528,0.025,-0.2
23:16:48.532,0.04,-0.285
23:16:48.536,0.175,-0.42
23:16:48.540,0.47,-0.665
23:16:48.544,0.84,-0.935
23:16:48.548,1.14,-1.17
23:16:48.552,1.22,-1.25
23:16:48.556,0.99,-1.06
23:16:48.560,0.51,-0.675
23:16:48.564,0.055,-0.255
23:16:48.568,-0.21,-0.02
23:16:48.572,-0.315,0.095
23:16:48.576,-0.385,0.17
23:16:48.580,-0.405,0.18
23:16:48.584,-0.44,0.205
23:16:48.588,-0.47,0.19
23:16:48.592,-0.47,0.21
23:16:48.596,-0.48,0.16
23:16:48.600,-0.495,0.155
23:16:48.604,-0.49,0.125
23:16:48.608,-0.5,0.14
23:16:48.612,-0.52,0.14
23:16:48.616,-0.49,0.135
23:16:48.620,-0.51,0.11
23:16:48.624,-0.515,0.115
23:16:48.628,-0.535,0.11
23:16:48.632,-0.54,0.125
23:16:48.636,-0.54,0.12
23:16:48.640,-0.54,0.115
23:16:48.644,-0.545,0.095
23:16:48.648,-0.54,0.1
23:16:48.652,-0.54,0.125
23:16:48.656,-0.54,0.125
23:16:48.660,-0.545,0.12
23:16:48.664,-0.555,0.11
23:16:48.668,-0.56,0.11
23:16:48.672,-0.57,0.12
23:16:48.676,-0.585,0.115
23:16:48.680,-0.575,0.115
23:16:48.684,-0.57,0.135
23:16:48.688,-0.58,0.12
23:16:48.692,-0.575,0.105
23:16:48.696,-0.57,0.115
23:16:48.700,-0.565,0.12
23:16:48.704,-0.57,0.12
23:16:48.708,-0.57,0.135
23:16:48.712,-0.56,0.135
23:16:48.716,-0.55,0.135
23:16:48.720,-0.55,0.14
23:16:48.724,-0.565,0.135
23:16:48.728,-0.57,0.115
23:16:48.732,-0.54,0.11
23:16:48.736,-0.555,0.115
23:16:48.740,-0.55,0.1
23:16:48.744,-0.525,0.12
23:16:48.748,-0.515,0.1
23:16:48.752,-0.52,0.105
23:16:48.756,-0.5,0.095
23:16:48.760,-0.485,0.1
23:16:48.764,-0.485,0.105
23:16:48.768,-0.48,0.08
23:16:48.772,-0.445,0.075
23:16:48.776,-0.445,0.06
23:16:48.780,-0.435,0.065
23:16:48.784,-0.42,0.07
23:16:48.788,-0.4,0.08
23:16:48.792,-0.385,0.07
23:16:48.796,-0.355,0.085
23:16:48.800,-0.345,0.07
23:16:48.804,-0.34,0.075
23:16:48.808,-0.34,0.075
23:16:48.812,-0.32,0.085
23:16:48.816,-0.31,0.085
23:16:48.820,-0.305,0.095
23:16:48.824,-0.285,0.08
23:16:48.828,-0.285,0.095
23:16:48.832,-0.295,0.095
23:16:48.836,-0.275,0.095
23:16:48.840,-0.275,0.105
23:16:48.844,-0.285,0.095
23:16:48.848,-0.295,0.1
23:16:48.852,-0.28,0.09
23:16:48.856,-0.295,0.11
23:16:48.860,-0.285,0.095
23:16:48.864,-0.29,0.095
23:16:48.868,-0.28,0.09
23:16:48.872,-0.28,0.1
23:16:48.876,-0.26,0.11
23:16:48.880,-0.28,0.095
23:16:48.884,-0.25,0.1
23:16:48.888,-0.26,0.1
23:16:48.892,-0.26,0.105
23:16:48.896,-0.27,0.1
23:16:48.900,-0.275,0.11
23:16:48.904,-0.26,0.105
23:16:48.908,-0.255,0.115
23:16:48.912,-0.26,0.07
23:16:48.916,-0.26,0.115
23:16:48.920,-0.26,0.1
23:16:48.924,-0.26,0.105
23:16:48.928,-0.24,0.105
23:16:48.932,-0.21,0.105
23:16:48.936,-0.22,0.105
23:16:48.940,-0.23,0.1
23:16:48.944,-0.215,0.11
23:16:48.948,-0.195,0.11
23:16:48.952,-0.16,0.12
23:16:48.956,-0.11,0.11
23:16:48.960,-0.07,0.12
23:16:48.964,-0.055,0.105
23:16:48.968,-0.01,0.11
23:16:48.972,-0.02,0.105
23:16:48.976,0.005,0.075
23:16:48.980,0.015,0.08
23:16:48.984,0.005,0.06
23:16:48.988,-0.04,0.025
23:16:48.992,-0.08,0.0
23:16:48.996,-0.15,0.0
23:16:49.000,-0.205,-0.01
23:16:49.004,-0.25,-0.02
23:16:49.008,-0.28,-0.01
23:16:49.012,-0.32,0.005
23:16:49.016,-0.37,0.045
23:16:49.020,-0.385,0.04
23:16:49.024,-0.4,0.02
23:16:49.028,-0.425,-0.005
23:16:49.032,-0.43,-0.01
23:16:49.036,-0.435,-0.015
23:16:49.040,-0.415,-0.025
23:16:49.044,-0.43,-0.045
23:16:49.048,-0.41,-0.05
23:16:49.052,-0.405,-0.07
23:16:49.056,-0.41,-0.045
23:16:49.060,-0.44,-0.075
23:16:49.064,-0.425,-0.075
23:16:49.068,-0.43,-0.06
23:16:49.072,-0.44,-0.07
23:16:49.076,-0.445,-0.11
23:16:49.080,-0.45,-0.105
23:16:49.084,-0.44,-0.125
23:16:49.088,-0.425,-0.12
23:16:49.092,-0.43,-0.13
23:16:49.096,-0.42,-0.13
23:16:49.100,-0.43,-0.13
23:16:49.104,-0.44,-0.145
23:16:49.108,-0.43,-0.155
23:16:49.112,-0.45,-0.135
23:16:49.116,-0.41,-0.145
23:16:49.120,-0.39,-0.15
23:16:49.124,-0.365,-0.135
23:16:49.128,-0.29,-0.145
23:16:49.132,-0.22,-0.165
23:16:49.136,-0.12,-0.165
23:16:49.140,-0.01,-0.185
23:16:49.144,0.07,-0.23
23:16:49.148,0.115,-0.285
23:16:49.152,0.145,-0.28
23:16:49.156,0.16,-0.25
23:16:49.160,0.12,-0.26
23:16:49.164,0.065,-0.31
23:16:49.168,0.11,-0.43
23:16:49.172,0.315,-0.585
23:16:49.176,0.605,-0.87
23:16:49.180,0.94,-1.15
23:16:49.184,1.135,-1.345
23:16:49.188,1.09,-1.355
23:16:49.192,0.705,-1.065
23:16:49.196,0.24,-0.675
23:16:49.200,-0.12,-0.35
23:16:49.204,-0.29,-0.215
23:16:49.208,-0.36,-0.13
23:16:49.212,-0.37,-0.055
23:16:49.216,-0.415,-0.065
23:16:49.220,-0.41,-0.06
23:16:49.224,-0.44,-0.075
23:16:49.228,-0.475,-0.085
23:16:49.232,-0.49,-0.125
23:16:49.236,-0.49,-0.14
23:16:49.240,-0.49,-0.17
23:16:49.244,-0.505,-0.155
23:16:49.248,-0.495,-0.185
23:16:49.252,-0.51,-0.17
23:16:49.256,-0.53,-0.165
23:16:49.260,-0.53,-0.16
23:16:49.264,-0.55,-0.17
23:16:49.268,-0.515,-0.175
23:16:49.272,-0.52,-0.185
23:16:49.276,-0.53,-0.18
23:16:49.280,-0.53,-0.18
23:16:49.284,-0.53,-0.2
23:16:49.288,-0.57,-0.195
23:16:49.292,-0.56,-0.205
23:16:49.296,-0.56,-0.195
23:16:49.300,-0.565,-0.215
23:16:49.304,-0.555,-0.215
23:16:49.308,-0.565,-0.22
23:16:49.312,-0.57,-0.235
23:16:49.316,-0.565,-0.22
23:16:49.320,-0.575,-0.23
23:16:49.324,-0.565,-0.24
23:16:49.328,-0.575,-0.22
23:16:49.332,-0.59,-0.24
23:16:49.336,-0.565,-0.25
23:16:49.340,-0.565,-0.235
23:16:49.344,-0.56,-0.25
23:16:49.348,-0.545,-0.255
23:16:49.352,-0.54,-0.245
23:16:49.356,-0.54,-0.25
23:16:49.360,-0.525,-0.255
23:16:49.364,-0.495,-0.255
23:16:49.368,-0.495,-0.265
23:16:49.372,-0.495,-0.26
23:16:49.376,-0.48,-0.27
23:16:49.380,-0.445,-0.275
23:16:49.384,-0.45,-0.27
23:16:49.388,-0.44,-0.285
23:16:49.392,-0.425,-0.315
23:16:49.396,-0.42,-0.3
23:16:49.400,-0.445,-0.3
23:16:49.404,-0.42,-0.32
23:16:49.408,-0.4,-0.32
23:16:49.412,-0.405,-0.33
23:16:49.416,-0.385,-0.335
23:16:49.420,-0.36,-0.34
23:16:49.424,-0.355,-0.335
23:16:49.428,-0.355,-0.35
23:16:49.432,-0.325,-0.355
23:16:49.436,-0.32,-0.37
23:16:49.440,-0.305,-0.385
23:16:49.444,-0.3,-0.36
23:16:49.448,-0.275,-0.37
23:16:49.452,-0.26,-0.37
23:16:49.456,-0.26,-0.37
23:16:49.460,-0.25,-0.38
23:16:49.464,-0.255,-0.38
23:16:49.468,-0.235,-0.38
23:16:49.472,-0.245,-0.37
23:16:49.476,-0.23,-0.37
23:16:49.480,-0.22,-0.385
23:16:49.484,-0.205,-0.355
23:16:49.488,-0.22,-0.39
23:16:49.492,-0.2,-0.36
23:16:49.496,-0.22,-0.37
23:16:49.500,-0.215,-0.4
23:16:49.504,-0.23,-0.38
23:16:49.508,-0.245,-0.385
23:16:49.512,-0.245,-0.38
23:16:49.516,-0.235,-0.39
23:16:49.520,-0.23,-0.37
23:16:49.524,-0.22,-0.385
23:16:49.528,-0.23,-0.39
23:16:49.532,-0.225,-0.405
23:16:49.536,-0.23,-0.405
23:16:49.540,-0.205,-0.38
23:16:49.544,-0.195,-0.405
23:16:49.548,-0.215,-0.405
23:16:49.552,-0.24,-0.405
23:16:49.556,-0.23,-0.405
23:16:49.560,-0.21,-0.4
23:16:49.564,-0.22,-0.43
23:16:49.568,-0.2,-0.4
23:16:49.572,-0.185,-0.415
23:16:49.576,-0.16,-0.4
23:16:49.580,-0.145,-0.425
23:16:49.584,-0.14,-0.41
23:16:49.588,-0.16,-0.385
23:16:49.592,-0.15,-0.415
23:16:49.596,-0.13,-0.415
23:16:49.600,-0.1,-0.39
23:16:49.604,-0.075,-0.39
23:16:49.608,-0.015,-0.405
23:16:49.612,0.0,-0.375
23:16:49.616,0.005,-0.38
23:16:49.620,0.05,-0.38
23:16:49.624,0.085,-0.36
23:16:49.628,0.125,-0.375
23:16:49.632,0.145,-0.375
23:16:49.636,0.145,-0.4
23:16:49.640,0.11,-0.43
23:16:49.644,0.06,-0.465
23:16:49.648,0.02,-0.47
23:16:49.652,-0.03,-0.485
23:16:49.656,-0.07,-0.495
23:16:49.660,-0.16,-0.47
23:16:49.664,-0.195,-0.47
23:16:49.668,-0.225,-0.47
23:16:49.672,-0.21,-0.445
23:16:49.676,-0.225,-0.445
23:16:49.680,-0.25,-0.47
23:16:49.684,-0.26,-0.46
23:16:49.688,-0.27,-0.46
23:16:49.692,-0.245,-0.48
23:16:49.696,-0.23,-0.48
23:16:49.700,-0.24,-0.475
23:16:49.704,-0.23,-0.47
23:16:49.708,-0.23,-0.46
23:16:49.712,-0.22,-0.465
23:16:49.716,-0.22,-0.475
23:16:49.720,-0.225,-0.48
23:16:49.724,-0.23,-0.46
23:16:49.728,-0.225,-0.48
23:16:49.732,-0.255,-0.465
23:16:49.736,-0.225,-0.46
23:16:49.740,-0.245,-0.475
23:16:49.744,-0.24,-0.47
23:16:49.748,-0.26,-0.47
23:16:49.752,-0.25,-0.49
23:16:49.756,-0.24,-0.485
23:16:49.760,-0.23,-0.485
23:16:49.764,-0.235,-0.48
23:16:49.768,-0.225,-0.47
23:16:49.772,-0.21,-0.465
23:16:49.776,-0.19,-0.47
23:16:49.780,-0.16,-0.465
23:16:49.784,-0.11,-0.45
23:16:49.788,-0.015,-0.45
23:16:49.792,0.07,-0.47
23:16:49.796,0.19,-0.495
23:16:49.800,0.255,-0.52
23:16:49.804,0.305,-0.54
23:16:49.808,0.35,-0.555
23:16:49.812,0.38,-0.54
23:16:49.816,0.315,-0.565
23:16:49.820,0.3,-0.62
23:16:49.824,0.38,-0.745
23:16:49.828,0.61,-0.92
23:16:49.832,0.945,-1.21
23:16:49.836,1.225,-1.425
23:16:49.840,1.27,-1.55
23:16:49.844,1.06,-1.48
23:16:49.848,0.555,-1.15
23:16:49.852,0.12,-0.78
23:16:49.856,-0.105,-0.565
23:16:49.860,-0.215,-0.44
23:16:49.864,-0.26,-0.345
23:16:49.868,-0.295,-0.31
23:16:49.872,-0.325,-0.275
23:16:49.876,-0.365,-0.27
23:16:49.880,-0.385,-0.26
23:16:49.884,-0.41,-0.275
23:16:49.888,-0.43,-0.315
23:16:49.892,-0.415,-0.315
23:16:49.896,-0.42,-0.325
23:16:49.900,-0.445,-0.32
23:16:49.904,-0.43,-0.315
23:16:49.908,-0.445,-0.3
23:16:49.912,-0.435,-0.29
23:16:49.916,-0.445,-0.29
23:16:49.920,-0.46,-0.285
23:16:49.924,-0.475,-0.28
23:16:49.928,-0.465,-0.29
23:16:49.932,-0.475,-0.29
23:16:49.936,-0.495,-0.295
23:16:49.940,-0.495,-0.28
23:16:49.944,-0.505,-0.28
23:16:49.948,-0.515,-0.275
23:16:49.952,-0.53,-0.265
23:16:49.956,-0.53,-0.255
23:16:49.960,-0.535,-0.26
23:16:49.964,-0.54,-0.265
23:16:49.968,-0.535,-0.27
23:16:49.972,-0.56,-0.24
23:16:49.976,-0.545,-0.265
23:16:49.980,-0.545,-0.24
23:16:49.984,-0.575,-0.235
23:16:49.988,-0.58,-0.24
23:16:49.992,-0.57,-0.23
23:16:49.996,-0.58,-0.21
23:16:50.000,-0.56,-0.21
23:16:50.004,-0.56,-0.205
23:16:50.008,-0.55,-0.225
23:16:50.012,-0.555,-0.2
23:16:50.016,-0.55,-0.18
23:16:50.020,-0.52,-0.175
23:16:50.024,-0.525,-0.18
23:16:50.028,-0.535,-0.16
23:16:50.032,-0.515,-0.165
23:16:50.036,-0.495,-0.17
23:16:50.040,-0.495,-0.165
23:16:50.044,-0.48,-0.16
23:16:50.048,-0.5,-0.17
23:16:50.052,-0.5,-0.165
23:16:50.056,-0.49,-0.195
23:16:50.060,-0.505,-0.17
23:16:50.064,-0.48,-0.175
23:16:50.068,-0.45,-0.2
23:16:50.072,-0.44,-0.18
23:16:50.076,-0.44,-0.19
23:16:50.080,-0.43,-0.19
23:16:50.084,-0.425,-0.195
23:16:50.088,-0.42,-0.2
23:16:50.092,-0.41,-0.185
23:16:50.096,-0.395,-0.2
23:16:50.100,-0.375,-0.205
23:16:50.104,-0.38,-0.195
23:16:50.108,-0.365,-0.195
23:16:50.112,-0.365,-0.195
23:16:50.116,-0.345,-0.19
23:16:50.120,-0.33,-0.18
23:16:50.124,-0.315,-0.185
23:16:50.128,-0.32,-0.155
23:16:50.132,-0.33,-0.16
23:16:50.136,-0.315,-0.155
23:16:50.140,-0.32,-0.145
23:16:50.144,-0.335,-0.145
23:16:50.148,-0.33,-0.16
23:16:50.152,-0.335,-0.13
23:16:50.156,-0.345,-0.16
23:16:50.160,-0.34,-0.14
23:16:50.164,-0.35,-0.11
23:16:50.168,-0.355,-0.135
23:16:50.172,-0.37,-0.145
23:16:50.176,-0.36,-0.135
23:16:50.180,-0.35,-0.125
23:16:50.184,-0.34,-0.135
23:16:50.188,-0.35,-0.135
23:16:50.192,-0.36,-0.13
23:16:50.196,-0.36,-0.14
23:16:50.200,-0.355,-0.14
23:16:50.204,-0.36,-0.12
23:16:50.208,-0.365,-0.11
23:16:50.212,-0.34,-0.11
23:16:50.216,-0.355,-0.1
23:16:50.220,-0.33,-0.1
23:16:50.224,-0.295,-0.1
23:16:50.228,-0.275,-0.09
23:16:50.232,-0.275,-0.095
23:16:50.236,-0.265,-0.105
23:16:50.240,-0.27,-0.06
23:16:50.244,-0.25,-0.06
23:16:50.248,-0.235,-0.07
23:16:50.252,-0.165,-0.05
23:16:50.256,-0.125,-0.035
23:16:50.260,-0.12,-0.02
23:16:50.264,-0.1,-0.045
23:16:50.268,-0.08,-0.03
23:16:50.272,-0.065,-0.01
23:16:50.276,-0.045,-0.02
23:16:50.280,-0.05,-0.03
23:16:50.284,-0.07,-0.035
23:16:50.288,-0.1,-0.095
23:16:50.292,-0.125,-0.12
23:16:50.296,-0.18,-0.11
23:16:50.300,-0.265,-0.11
23:16:50.304,-0.29,-0.1
23:16:50.308,-0.37,-0.105
23:16:50.312,-0.4,-0.095
23:16:50.316,-0.435,-0.065
23:16:50.320,-0.465,-0.085
23:16:50.324,-0.48,-0.06
23:16:50.328,-0.475,-0.07
23:16:50.332,-0.465,-0.065
23:16:50.336,-0.455,-0.09
23:16:50.340,-0.44,-0.09
23:16:50.344,-0.44,-0.07
23:16:50.348,-0.435,-0.07
23:16:50.352,-0.435,-0.065
23:16:50.356,-0.44,-0.06
23:16:50.360,-0.43,-0.05
23:16:50.364,-0.435,-0.06
23:16:50.368,-0.44,-0.065
23:16:50.372,-0.435,-0.075
23:16:50.376,-0.43,-0.055
23:16:50.380,-0.435,-0.055
23:16:50.384,-0.43,-0.06
23:16:50.388,-0.455,-0.105
23:16:50.392,-0.435,-0.085
23:16:50.396,-0.455,-0.075
23:16:50.400,-0.44,-0.08
23:16:50.404,-0.45,-0.105
23:16:50.408,-0.435,-0.08
23:16:50.412,-0.43,-0.1
23:16:50.416,-0.43,-0.085
23:16:50.420,-0.41,-0.095
23:16:50.424,-0.395,-0.08
23:16:50.428,-0.32,-0.085
23:16:50.432,-0.26,-0.065
23:16:50.436,-0.15,-0.085
23:16:50.440,-0.055,-0.105
23:16:50.444,0.0,-0.15
23:16:50.448,0.04,-0.18
23:16:50.452,0.06,-0.18
23:16:50.456,0.06,-0.18
23:16:50.460,0.02,-0.205
23:16:50.464,-0.015,-0.285
23:16:50.468,0.105,-0.45
23:16:50.472,0.36,-0.635
23:16:50.476,0.715,-0.925
23:16:50.480,1.055,-1.175
23:16:50.484,1.165,-1.315
23:16:50.488,1.04,-1.225
23:16:50.492,0.595,-0.84
23:16:50.496,0.1,-0.435
23:16:50.500,-0.215,-0.16
23:16:50.504,-0.39,-0.025
23:16:50.508,-0.435,0.045
23:16:50.512,-0.475,0.07
23:16:50.516,-0.51,0.1
23:16:50.520,-0.54,0.085
23:16:50.524,-0.555,0.085
23:16:50.528,-0.575,0.07
23:16:50.532,-0.575,0.08
23:16:50.536,-0.6,0.055
23:16:50.540,-0.62,0.045
23:16:50.544,-0.61,0.025
23:16:50.548,-0.595,0.03
23:16:50.552,-0.595,0.035
23:16:50.556,-0.6,0.03
23:16:50.560,-0.57,0.045
23:16:50.564,-0.585,0.05
23:16:50.568,-0.585,0.05
23:16:50.572,-0.595,0.06
23:16:50.576,-0.595,0.07
23:16:50.580,-0.6,0.065
23:16:50.584,-0.595,0.07
23:16:50.588,-0.595,0.065
23:16:50.592,-0.62,0.065
23:16:50.596,-0.625,0.07
23:16:50.600,-0.625,0.075
23:16:50.604,-0.64,0.065
23:16:50.608,-0.655,0.075
23:16:50.612,-0.655,0.07
23:16:50.616,-0.66,0.065
23:16:50.620,-0.66,0.06
23:16:50.624,-0.665,0.06
23:16:50.628,-0.655,0.055
23:16:50.632,-0.66,0.06
23:16:50.636,-0.675,0.065
23:16:50.640,-0.67,0.085
23:16:50.644,-0.645,0.08
23:16:50.648,-0.65,0.08
23:16:50.652,-0.64,0.075
23:16:50.656,-0.65,0.075
23:16:50.660,-0.64,0.09
23:16:50.664,-0.615,0.075
23:16:50.668,-0.62,0.095
23:16:50.672,-0.595,0.08
23:16:50.676,-0.6,0.1
23:16:50.680,-0.595,0.075
23:16:50.684,-0.565,0.07
23:16:50.688,-0.57,0.08
23:16:50.692,-0.545,0.075
23:16:50.696,-0.56,0.06
23:16:50.700,-0.52,0.055
23:16:50.704,-0.52,0.04
23:16:50.708,-0.52,0.025
23:16:50.712,-0.515,0.03
23:16:50.716,-0.48,0.03
23:16:50.720,-0.5,0.035
23:16:50.724,-0.495,0.015
23:16:50.728,-0.48,0.015
23:16:50.732,-0.45,0.005
23:16:50.736,-0.445,0.0
23:16:50.740,-0.44,0.0
23:16:50.744,-0.415,0.0
23:16:50.748,-0.425,-0.005
23:16:50.752,-0.415,0.005
23:16:50.756,-0.4,0.0
23:16:50.760,-0.4,0.015
23:16:50.764,-0.385,0.005
23:16:50.768,-0.365,0.0
23:16:50.772,-0.37,0.005
23:16:50.776,-0.33,0.02
23:16:50.780,-0.32,0.0
23:16:50.784,-0.325,0.01
23:16:50.788,-0.325,0.02
23:16:50.792,-0.33,0.02
23:16:50.796,-0.345,0.045
23:16:50.800,-0.34,0.03
23:16:50.804,-0.325,0.045
23:16:50.808,-0.32,0.055
23:16:50.812,-0.31,0.06
23:16:50.816,-0.33,0.045
23:16:50.820,-0.32,0.045
23:16:50.824,-0.345,0.055
23:16:50.828,-0.32,0.065
23:16:50.832,-0.35,0.03
23:16:50.836,-0.35,0.055
23:16:50.840,-0.36,0.05
23:16:50.844,-0.37,0.04
23:16:50.848,-0.36,0.05
23:16:50.852,-0.345,0.035
23:16:50.856,-0.335,0.04
23:16:50.860,-0.32,0.035
23:16:50.864,-0.3,0.04
23:16:50.868,-0.28,0.035
23:16:50.872,-0.295,0.04
23:16:50.876,-0.275,0.065
23:16:50.880,-0.25,0.05
23:16:50.884,-0.215,0.085
23:16:50.888,-0.18,0.065
23:16:50.892,-0.135,0.105
23:16:50.896,-0.09,0.12
23:16:50.900,-0.09,0.11
23:16:50.904,-0.07,0.105
23:16:50.908,-0.045,0.09
23:16:50.912,-0.02,0.09
23:16:50.916,-0.015,0.085
23:16:50.920,-0.03,0.045
23:16:50.924,-0.095,0.02
23:16:50.928,-0.155,0.02
23:16:50.932,-0.19,0.025
23:16:50.936,-0.27,0.03
23:16:50.940,-0.335,0.015
23:16:50.944,-0.39,0.005
23:16:50.948,-0.425,0.03
23:16:50.952,-0.46,0.045
23:16:50.956,-0.485,0.045
23:16:50.960,-0.49,0.035
23:16:50.964,-0.48,0.01
23:16:50.968,-0.475,0.025
23:16:50.972,-0.47,0.01
23:16:50.976,-0.455,0.0
23:16:50.980,-0.46,0.015
23:16:50.984,-0.47,0.0
23:16:50.988,-0.46,0.015
23:16:50.992,-0.44,-0.01
23:16:50.996,-0.435,0.02
23:16:51.000,-0.425,0.0
23:16:51.004,-0.435,0.01
23:16:51.008,-0.425,0.01
23:16:51.012,-0.44,0.01
23:16:51.016,-0.44,0.0
23:16:51.020,-0.445,0.035
23:16:51.024,-0.41,0.035
23:16:51.028,-0.415,0.035
23:16:51.032,-0.42,0.01
23:16:51.036,-0.44,0.0
23:16:51.040,-0.44,0.0
23:16:51.044,-0.42,-0.01
23:16:51.048,-0.425,-0.015
23:16:51.052,-0.425,-0.03
23:16:51.056,-0.4,-0.03
23:16:51.060,-0.375,-0.02
23:16:51.064,-0.3,-0.035
23:16:51.068,-0.255,-0.045
23:16:51.072,-0.15,-0.07
23:16:51.076,-0.045,-0.095
23:16:51.080,-0.015,-0.125
23:16:51.084,0.01,-0.145
23:16:51.088,0.025,-0.155
23:16:51.092,-0.025,-0.155
23:16:51.096,-0.06,-0.21
23:16:51.100,-0.015,-0.32
23:16:51.104,0.18,-0.5
23:16:51.108,0.495,-0.77
23:16:51.112,0.84,-1.055
23:16:51.116,1.11,-1.295
23:16:51.120,1.125,-1.32
23:16:51.124,0.85,-1.075
23:16:51.128,0.34,-0.63
23:16:51.132,-0.08,-0.24
23:16:51.136,-0.295,-0.05
23:16:51.140,-0.425,0.045
23:16:51.144,-0.47,0.095
23:16:51.148,-0.485,0.08
23:16:51.152,-0.525,0.095
23:16:51.156,-0.605,0.085
23:16:51.160,-0.63,0.06
23:16:51.164,-0.63,0.035
23:16:51.168,-0.63,0.03
23:16:51.172,-0.64,0.01
23:16:51.176,-0.645,-0.03
23:16:51.180,-0.64,-0.03
23:16:51.184,-0.65,-0.025
23:16:51.188,-0.645,-0.02
23:16:51.192,-0.665,-0.015
23:16:51.196,-0.665,0.0
23:16:51.200,-0.66,-0.035
23:16:51.204,-0.66,-0.035
23:16:51.208,-0.655,-0.035
23:16:51.212,-0.66,-0.025
23:16:51.216,-0.64,-0.025
23:16:51.220,-0.645,-0.025
23:16:51.224,-0.66,-0.03
23:16:51.228,-0.66,-0.04
23:16:51.232,-0.655,-0.04
23:16:51.236,-0.67,-0.045
23:16:51.240,-0.69,-0.03
23:16:51.244,-0.685,-0.035
23:16:51.248,-0.685,-0.025
23:16:51.252,-0.695,-0.04
23:16:51.256,-0.715,-0.055
23:16:51.260,-0.72,-0.08
23:16:51.264,-0.72,-0.065
23:16:51.268,-0.725,-0.085
23:16:51.272,-0.735,-0.08
23:16:51.276,-0.75,-0.075
23:16:51.280,-0.73,-0.095
23:16:51.284,-0.73,-0.09
23:16:51.288,-0.71,-0.1
23:16:51.292,-0.705,-0.115
23:16:51.296,-0.7,-0.125
23:16:51.300,-0.69,-0.1
23:16:51.304,-0.685,-0.12
23:16:51.308,-0.68,-0.11
23:16:51.312,-0.66,-0.105
23:16:51.316,-0.655,-0.11
23:16:51.320,-0.625,-0.145
23:16:51.324,-0.595,-0.14
23:16:51.328,-0.6,-0.155
23:16:51.332,-0.565,-0.165
23:16:51.336,-0.575,-0.14
23:16:51.340,-0.565,-0.16
23:16:51.344,-0.545,-0.15
23:16:51.348,-0.51,-0.18
23:16:51.352,-0.505,-0.185
23:16:51.356,-0.51,-0.195
23:16:51.360,-0.49,-0.205
23:16:51.364,-0.485,-0.19
23:16:51.368,-0.49,-0.2
23:16:51.372,-0.48,-0.22
23:16:51.376,-0.46,-0.22
23:16:51.380,-0.47,-0.215
23:16:51.384,-0.45,-0.225
23:16:51.388,-0.43,-0.225
23:16:51.392,-0.45,-0.225
23:16:51.396,-0.435,-0.23
23:16:51.400,-0.43,-0.23
23:16:51.404,-0.42,-0.225
23:16:51.408,-0.39,-0.21
23:16:51.412,-0.405,-0.21
23:16:51.416,-0.41,-0.225
23:16:51.420,-0.39,-0.24
23:16:51.424,-0.375,-0.21
23:16:51.428,-0.36,-0.19
23:16:51.432,-0.38,-0.21
23:16:51.436,-0.37,-0.215
23:16:51.440,-0.37,-0.2
23:16:51.444,-0.36,-0.22
23:16:51.448,-0.375,-0.205
23:16:51.452,-0.355,-0.2
23:16:51.456,-0.355,-0.2
23:16:51.460,-0.39,-0.21
23:16:51.464,-0.395,-0.205
23:16:51.468,-0.395,-0.22
23:16:51.472,-0.4,-0.225
23:16:51.476,-0.385,-0.22
23:16:51.480,-0.39,-0.255
23:16:51.484,-0.39,-0.24
23:16:51.488,-0.4,-0.265
23:16:51.492,-0.395,-0.285
23:16:51.496,-0.38,-0.285
23:16:51.500,-0.4,-0.28
23:16:51.504,-0.365,-0.265
23:16:51.508,-0.365,-0.285
23:16:51.512,-0.335,-0.29
23:16:51.516,-0.32,-0.295
23:16:51.520,-0.315,-0.295
23:16:51.524,-0.305,-0.285
23:16:51.528,-0.295,-0.265
23:16:51.532,-0.26,-0.26
23:16:51.536,-0.22,-0.265
23:16:51.540,-0.16,-0.25
23:16:51.544,-0.13,-0.21
23:16:51.548,-0.09,-0.255
23:16:51.552,-0.045,-0.235
23:16:51.556,-0.025,-0.225
23:16:51.560,-0.03,-0.255
23:16:51.564,-0.015,-0.285
23:16:51.568,-0.04,-0.305
23:16:51.572,-0.09,-0.31
23:16:51.576,-0.14,-0.32
23:16:51.580,-0.195,-0.335
23:16:51.584,-0.255,-0.35
23:16:51.588,-0.32,-0.33
23:16:51.592,-0.375,-0.325
23:16:51.596,-0.43,-0.345
23:16:51.600,-0.465,-0.33
23:16:51.604,-0.47,-0.32
23:16:51.608,-0.455,-0.32
23:16:51.612,-0.46,-0.345
23:16:51.616,-0.45,-0.355
23:16:51.620,-0.42,-0.36
23:16:51.624,-0.4,-0.36
23:16:51.628,-0.415,-0.37
23:16:51.632,-0.425,-0.39
23:16:51.636,-0.425,-0.375
23:16:51.640,-0.41,-0.375
23:16:51.644,-0.37,-0.37
23:16:51.648,-0.355,-0.37
23:16:51.652,-0.36,-0.375
23:16:51.656,-0.38,-0.385
23:16:51.660,-0.37,-0.39
23:16:51.664,-0.385,-0.4
23:16:51.668,-0.355,-0.395
23:16:51.672,-0.34,-0.365
23:16:51.676,-0.35,-0.385
23:16:51.680,-0.32,-0.395
23:16:51.684,-0.32,-0.415
23:16:51.688,-0.37,-0.405
23:16:51.692,-0.365,-0.4
23:16:51.696,-0.37,-0.41
23:16:51.700,-0.34,-0.4
23:16:51.704,-0.3,-0.405
23:16:51.708,-0.235,-0.415
23:16:51.712,-0.175,-0.42
23:16:51.716,-0.09,-0.45
23:16:51.720,0.03,-0.45
23:16:51.724,0.1,-0.49
23:16:51.728,0.185,-0.555
23:16:51.732,0.26,-0.56
23:16:51.736,0.275,-0.52
23:16:51.740,0.25,-0.54
23:16:51.744,0.205,-0.58
23:16:51.748,0.225,-0.665
23:16:51.752,0.42,-0.84
23:16:51.756,0.72,-1.095
23:16:51.760,1.055,-1.35
23:16:51.764,1.205,-1.515
23:16:51.768,1.075,-1.52
23:16:51.772,0.65,-1.225
23:16:51.776,0.185,-0.85
23:16:51.780,-0.11,-0.615
23:16:51.784,-0.23,-0.485
23:16:51.788,-0.305,-0.38
23:16:51.792,-0.32,-0.33
23:16:51.796,-0.335,-0.34
23:16:51.800,-0.395,-0.31
23:16:51.804,-0.455,-0.31
23:16:51.808,-0.45,-0.355
23:16:51.812,-0.49,-0.375
23:16:51.816,-0.49,-0.38
23:16:51.820,-0.48,-0.415
23:16:51.824,-0.505,-0.4
23:16:51.828,-0.49,-0.395
23:16:51.832,-0.52,-0.4
23:16:51.836,-0.5,-0.415
23:16:51.840,-0.495,-0.41
23:16:51.844,-0.505,-0.42
23:16:51.848,-0.47,-0.4
23:16:51.852,-0.5,-0.385
23:16:51.856,-0.515,-0.41
23:16:51.860,-0.515,-0.395
23:16:51.864,-0.505,-0.4
23:16:51.868,-0.5,-0.4
23:16:51.872,-0.505,-0.4
23:16:51.876,-0.49,-0.39
23:16:51.880,-0.48,-0.385
23:16:51.884,-0.475,-0.405
23:16:51.888,-0.49,-0.385
23:16:51.892,-0.525,-0.38
23:16:51.896,-0.53,-0.37
23:16:51.900,-0.52,-0.395
23:16:51.904,-0.51,-0.395
23:16:51.908,-0.505,-0.375
23:16:51.912,-0.54,-0.38
23:16:51.916,-0.56,-0.365
23:16:51.920,-0.545,-0.36
23:16:51.924,-0.565,-0.375
23:16:51.928,-0.56,-0.36
23:16:51.932,-0.55,-0.375
23:16:51.936,-0.55,-0.385
23:16:51.940,-0.54,-0.385
23:16:51.944,-0.535,-0.385
23:16:51.948,-0.53,-0.365
23:16:51.952,-0.525,-0.345
23:16:51.956,-0.52,-0.365
23:16:51.960,-0.495,-0.365
23:16:51.964,-0.51,-0.385
23:16:51.968,-0.5,-0.38
23:16:51.972,-0.48,-0.38
23:16:51.976,-0.46,-0.365
23:16:51.980,-0.46,-0.38
23:16:51.984,-0.43,-0.4
23:16:51.988,-0.42,-0.38
23:16:51.992,-0.4,-0.37
23:16:51.996,-0.4,-0.38
23:16:52.000,-0.405,-0.38
23:16:52.004,-0.385,-0.355
23:16:52.008,-0.385,-0.38
23:16:52.012,-0.38,-0.39
23:16:52.016,-0.355,-0.41
23:16:52.020,-0.335,-0.385
23:16:52.024,-0.355,-0.39
23:16:52.028,-0.365,-0.38
23:16:52.032,-0.34,-0.39
23:16:52.036,-0.365,-0.375
23:16:52.040,-0.355,-0.375
23:16:52.044,-0.355,-0.395
23:16:52.048,-0.365,-0.375
23:16:52.052,-0.35,-0.385
23:16:52.056,-0.34,-0.365
23:16:52.060,-0.355,-0.365
23:16:52.064,-0.35,-0.37
23:16:52.068,-0.345,-0.365
23:16:52.072,-0.36,-0.38
23:16:52.076,-0.33,-0.355
23:16:52.080,-0.34,-0.335
23:16:52.084,-0.365,-0.335
23:16:52.088,-0.36,-0.335
23:16:52.092,-0.34,-0.325
23:16:52.096,-0.345,-0.305
23:16:52.100,-0.32,-0.33
23:16:52.104,-0.34,-0.32
23:16:52.108,-0.335,-0.31
23:16:52.112,-0.335,-0.29
23:16:52.116,-0.35,-0.295
23:16:52.120,-0.35,-0.28
23:16:52.124,-0.36,-0.275
23:16:52.128,-0.365,-0.305
23:16:52.132,-0.375,-0.275
23:16:52.136,-0.36,-0.28
23:16:52.140,-0.36,-0.275
23:16:52.144,-0.35,-0.27
23:16:52.148,-0.37,-0.28
23:16:52.152,-0.34,-0.285
23:16:52.156,-0.32,-0.28
23:16:52.160,-0.3,-0.29
23:16:52.164,-0.33,-0.29
23:16:52.168,-0.315,-0.29
23:16:52.172,-0.31,-0.285
23:16:52.176,-0.29,-0.245
23:16:52.180,-0.245,-0.26
23:16:52.184,-0.2,-0.24
23:16:52.188,-0.15,-0.205
23:16:52.192,-0.13,-0.22
23:16:52.196,-0.125,-0.205
23:16:52.200,-0.08,-0.215
23:16:52.204,-0.025,-0.2
23:16:52.208,-0.02,-0.21
23:16:52.212,-0.02,-0.255
23:16:52.216,-0.085,-0.24
23:16:52.220,-0.125,-0.255
23:16:52.224,-0.175,-0.26
23:16:52.228,-0.24,-0.26
23:16:52.232,-0.285,-0.24
23:16:52.236,-0.34,-0.265
23:16:52.240,-0.42,-0.225
23:16:52.244,-0.45,-0.22
23:16:52.248,-0.475,-0.19
23:16:52.252,-0.47,-0.21
23:16:52.256,-0.47,-0.19
23:16:52.260,-0.5,-0.18
23:16:52.264,-0.505,-0.2
23:16:52.268,-0.49,-0.215
23:16:52.272,-0.47,-0.195
23:16:52.276,-0.475,-0.2
23:16:52.280,-0.48,-0.225
23:16:52.284,-0.47,-0.21
23:16:52.288,-0.485,-0.215
23:16:52.292,-0.46,-0.205
23:16:52.296,-0.48,-0.195
23:16:52.300,-0.49,-0.19
23:16:52.304,-0.47,-0.195
23:16:52.308,-0.485,-0.18
23:16:52.312,-0.45,-0.185
23:16:52.316,-0.45,-0.18
23:16:52.320,-0.455,-0.17
23:16:52.324,-0.445,-0.165
23:16:52.328,-0.445,-0.19
23:16:52.332,-0.445,-0.155
23:16:52.336,-0.445,-0.15
23:16:52.340,-0.445,-0.16
23:16:52.344,-0.445,-0.16
23:16:52.348,-0.415,-0.155
23:16:52.352,-0.38,-0.135
23:16:52.356,-0.32,-0.15
23:16:52.360,-0.24,-0.17
23:16:52.364,-0.135,-0.185
23:16:52.368,-0.03,-0.205
23:16:52.372,0.02,-0.255
23:16:52.376,0.08,-0.26
23:16:52.380,0.1,-0.28
23:16:52.384,0.075,-0.285
23:16:52.388,0.04,-0.325
23:16:52.392,0.045,-0.45
23:16:52.396,0.215,-0.6
23:16:52.400,0.535,-0.865
23:16:52.404,0.895,-1.115
23:16:52.408,1.155,-1.33
23:16:52.412,1.185,-1.355
23:16:52.416,0.87,-1.115
23:16:52.420,0.32,-0.695
23:16:52.424,-0.1,-0.36
23:16:52.428,-0.295,-0.155
23:16:52.432,-0.44,-0.025
23:16:52.436,-0.475,0.015
23:16:52.440,-0.5,0.055
23:16:52.444,-0.53,0.055
23:16:52.448,-0.56,0.075
23:16:52.452,-0.575,0.06
23:16:52.456,-0.6,0.04
23:16:52.460,-0.6,0.03
23:16:52.464,-0.6,0.0
23:16:52.468,-0.625,0.0
23:16:52.472,-0.64,0.02
23:16:52.476,-0.635,0.0
23:16:52.480,-0.64,0.0
23:16:52.484,-0.645,0.005
23:16:52.488,-0.645,0.01
23:16:52.492,-0.655,0.015
23:16:52.496,-0.645,0.025
23:16:52.500,-0.655,-0.02
23:16:52.504,-0.65,0.005
23:16:52.508,-0.665,0.0
23:16:52.512,-0.68,0.02
23:16:52.516,-0.665,0.035
23:16:52.520,-0.695,0.025
23:16:52.524,-0.69,0.01
23:16:52.528,-0.685,0.04
23:16:52.532,-0.7,0.02
23:16:52.536,-0.695,0.03
23:16:52.540,-0.705,0.045
23:16:52.544,-0.71,0.045
23:16:52.548,-0.68,0.055
23:16:52.552,-0.69,0.035
23:16:52.556,-0.695,0.065
23:16:52.560,-0.7,0.045
23:16:52.564,-0.68,0.06
23:16:52.568,-0.685,0.06
23:16:52.572,-0.7,0.05
23:16:52.576,-0.68,0.055
23:16:52.580,-0.69,0.06
23:16:52.584,-0.69,0.045
23:16:52.588,-0.675,0.04
23:16:52.592,-0.66,0.03
23:16:52.596,-0.665,0.04
23:16:52.600,-0.66,0.06
23:16:52.604,-0.65,0.07
23:16:52.608,-0.635,0.03
23:16:52.612,-0.62,0.035
23:16:52.616,-0.605,0.02
23:16:52.620,-0.6,0.01
23:16:52.624,-0.58,0.045
23:16:52.628,-0.55,0.01
23:16:52.632,-0.565,0.0
23:16:52.636,-0.535,0.0
23:16:52.640,-0.53,0.02
23:16:52.644,-0.515,0.03
23:16:52.648,-0.5,0.0
23:16:52.652,-0.49,0.0
23:16:52.656,-0.48,0.02
23:16:52.660,-0.46,0.025
23:16:52.664,-0.45,0.03
23:16:52.668,-0.445,0.015
23:16:52.672,-0.42,0.03
23:16:52.676,-0.415,0.035
23:16:52.680,-0.41,0.035
23:16:52.684,-0.41,0.01
23:16:52.688,-0.39,0.03
23:16:52.692,-0.395,0.025
23:16:52.696,-0.395,0.035
23:16:52.700,-0.4,0.03
23:16:52.704,-0.405,0.035
23:16:52.708,-0.38,0.05
23:16:52.712,-0.385,0.045
23:16:52.716,-0.38,0.03
23:16:52.720,-0.39,0.03
23:16:52.724,-0.375,0.05
23:16:52.728,-0.39,0.035
23:16:52.732,-0.39,0.02
23:16:52.736,-0.375,0.07
23:16:52.740,-0.37,0.055
23:16:52.744,-0.38,0.07
23:16:52.748,-0.39,0.07
23:16:52.752,-0.38,0.05
23:16:52.756,-0.35,0.065
23:16:52.760,-0.355,0.075
23:16:52.764,-0.35,0.11
23:16:52.768,-0.345,0.06
23:16:52.772,-0.335,0.045
23:16:52.776,-0.335,0.075
23:16:52.780,-0.32,0.085
23:16:52.784,-0.31,0.065
23:16:52.788,-0.31,0.06
23:16:52.792,-0.31,0.095
23:16:52.796,-0.295,0.07
23:16:52.800,-0.285,0.08
23:16:52.804,-0.23,0.095
23:16:52.808,-0.19,0.105
23:16:52.812,-0.16,0.12
23:16:52.816,-0.14,0.135
23:16:52.820,-0.115,0.135
23:16:52.824,-0.065,0.115
23:16:52.828,-0.065,0.11
23:16:52.832,-0.045,0.1
23:16:52.836,-0.04,0.075
23:16:52.840,-0.065,0.05
23:16:52.844,-0.13,0.035
23:16:52.848,-0.155,0.005
23:16:52.852,-0.2,0.02
23:16:52.856,-0.27,0.04
23:16:52.860,-0.345,0.04
23:16:52.864,-0.38,0.065
23:16:52.868,-0.405,0.07
23:16:52.872,-0.425,0.085
23:16:52.876,-0.445,0.085
23:16:52.880,-0.445,0.08
23:16:52.884,-0.45,0.07
23:16:52.888,-0.445,0.06
23:16:52.892,-0.42,0.045
23:16:52.896,-0.41,0.03
23:16:52.900,-0.43,0.055
23:16:52.904,-0.405,0.045
23:16:52.908,-0.41,0.045
23:16:52.912,-0.42,0.045
23:16:52.916,-0.435,0.05
23:16:52.920,-0.435,0.055
23:16:52.924,-0.45,0.015
23:16:52.928,-0.425,0.005
23:16:52.932,-0.44,0.03
23:16:52.936,-0.42,0.02
23:16:52.940,-0.43,0.02
23:16:52.944,-0.425,0.025
23:16:52.948,-0.425,0.015
23:16:52.952,-0.41,0.005
23:16:52.956,-0.42,0.025
23:16:52.960,-0.425,0.02
23:16:52.964,-0.41,0.025
23:16:52.968,-0.415,0.03
23:16:52.972,-0.415,0.015
23:16:52.976,-0.37,0.035
23:16:52.980,-0.315,0.0
23:16:52.984,-0.235,0.0
23:16:52.988,-0.155,0.015
23:16:52.992,-0.06,0.0
23:16:52.996,-0.005,-0.02
23:16:53.000,0.015,-0.07
23:16:53.004,0.025,-0.08
23:16:53.008,0.06,-0.07
23:16:53.012,0.02,-0.095
23:16:53.016,-0.025,-0.16
23:16:53.020,0.01,-0.28
23:16:53.024,0.215,-0.49
23:16:53.028,0.55,-0.76
23:16:53.032,0.905,-1.035
23:16:53.036,1.13,-1.235
23:16:53.040,1.115,-1.215
23:16:53.044,0.76,-0.895
23:16:53.048,0.265,-0.46
23:16:53.052,-0.125,-0.125
23:16:53.056,-0.315,0.055
23:16:53.060,-0.41,0.14
23:16:53.064,-0.465,0.18
23:16:53.068,-0.48,0.17
23:16:53.072,-0.52,0.155
23:16:53.076,-0.545,0.18
23:16:53.080,-0.54,0.15
23:16:53.084,-0.58,0.14
23:16:53.088,-0.575,0.12
23:16:53.092,-0.585,0.09
23:16:53.096,-0.59,0.11
23:16:53.100,-0.585,0.085
23:16:53.104,-0.585,0.1
23:16:53.108,-0.575,0.12
23:16:53.112,-0.605,0.1
23:16:53.116,-0.6,0.1
23:16:53.120,-0.595,0.11
23:16:53.124,-0.615,0.09
23:16:53.128,-0.58,0.1
23:16:53.132,-0.595,0.085
23:16:53.136,-0.625,0.105
23:16:53.140,-0.625,0.12
23:16:53.144,-0.625,0.11
23:16:53.148,-0.64,0.095
23:16:53.152,-0.64,0.1
23:16:53.156,-0.655,0.09
23:16:53.160,-0.65,0.1
23:16:53.164,-0.66,0.09
23:16:53.168,-0.645,0.1
23:16:53.172,-0.665,0.085
23:16:53.176,-0.675,0.075
23:16:53.180,-0.67,0.095
23:16:53.184,-0.695,0.07
23:16:53.188,-0.68,0.08
23:16:53.192,-0.685,0.09
23:16:53.196,-0.685,0.075
23:16:53.200,-0.685,0.11
23:16:53.204,-0.675,0.105
23:16:53.208,-0.645,0.105
23:16:53.212,-0.63,0.1
23:16:53.216,-0.65,0.1
23:16:53.220,-0.635,0.105
23:16:53.224,-0.615,0.105
23:16:53.228,-0.615,0.095
23:16:53.232,-0.595,0.095
23:16:53.236,-0.58,0.095
23:16:53.240,-0.565,0.085
23:16:53.244,-0.575,0.065
23:16:53.248,-0.59,0.065
23:16:53.252,-0.575,0.05
23:16:53.256,-0.565,0.055
23:16:53.260,-0.535,0.06
23:16:53.264,-0.54,0.065
23:16:53.268,-0.52,0.035
23:16:53.272,-0.5,0.025
23:16:53.276,-0.49,0.03
23:16:53.280,-0.47,0.03
23:16:53.284,-0.46,0.02
23:16:53.288,-0.44,0.035
23:16:53.292,-0.43,0.02
23:16:53.296,-0.43,0.055
23:16:53.300,-0.43,0.05
23:16:53.304,-0.385,0.03
23:16:53.308,-0.385,0.045
23:16:53.312,-0.365,0.05
23:16:53.316,-0.36,0.05
23:16:53.320,-0.35,0.065
23:16:53.324,-0.35,0.06
23:16:53.328,-0.35,0.035
23:16:53.332,-0.355,0.055
23:16:53.336,-0.335,0.06
23:16:53.340,-0.33,0.07
23:16:53.344,-0.33,0.075
23:16:53.348,-0.32,0.085
23:16:53.352,-0.32,0.065
23:16:53.356,-0.34,0.07
23:16:53.360,-0.325,0.07
23:16:53.364,-0.33,0.06
23:16:53.368,-0.355,0.07
23:16:53.372,-0.345,0.075
23:16:53.376,-0.345,0.065
23:16:53.380,-0.355,0.065
23:16:53.384,-0.36,0.065
23:16:53.388,-0.365,0.05
23:16:53.392,-0.36,0.05
23:16:53.396,-0.36,0.055
23:16:53.400,-0.365,0.055
23:16:53.404,-0.335,0.05
23:16:53.408,-0.345,0.075
23:16:53.412,-0.325,0.045
23:16:53.416,-0.305,0.06
23:16:53.420,-0.275,0.055
23:16:53.424,-0.29,0.045
23:16:53.428,-0.3,0.045
23:16:53.432,-0.28,0.075
23:16:53.436,-0.255,0.055
23:16:53.440,-0.22,0.09
23:16:53.444,-0.165,0.095
23:16:53.448,-0.155,0.1
23:16:53.452,-0.105,0.07
23:16:53.456,-0.09,0.085
23:16:53.460,-0.055,0.1
23:16:53.464,-0.045,0.08
23:16:53.468,-0.04,0.06
23:16:53.472,-0.06,0.04
23:16:53.476,-0.11,-0.03
23:16:53.480,-0.16,-0.02
23:16:53.484,-0.19,-0.04
23:16:53.488,-0.26,-0.06
23:16:53.492,-0.305,-0.075
23:16:53.496,-0.365,-0.045
23:16:53.500,-0.4,-0.03
23:16:53.504,-0.45,-0.04
23:16:53.508,-0.46,-0.03
23:16:53.512,-0.475,-0.035
23:16:53.516,-0.48,-0.055
23:16:53.520,-0.475,-0.055
23:16:53.524,-0.48,-0.06
23:16:53.528,-0.46,-0.055
23:16:53.532,-0.46,-0.065
23:16:53.536,-0.465,-0.065
23:16:53.540,-0.445,-0.08
23:16:53.544,-0.445,-0.105
23:16:53.548,-0.445,-0.075
23:16:53.552,-0.44,-0.08
23:16:53.556,-0.445,-0.09
23:16:53.560,-0.45,-0.1
23:16:53.564,-0.44,-0.105
23:16:53.568,-0.425,-0.11
23:16:53.572,-0.425,-0.105
23:16:53.576,-0.435,-0.105
23:16:53.580,-0.45,-0.095
23:16:53.584,-0.43,-0.11
23:16:53.588,-0.435,-0.105
23:16:53.592,-0.435,-0.135
23:16:53.596,-0.425,-0.14
23:16:53.600,-0.44,-0.15
23:16:53.604,-0.45,-0.145
23:16:53.608,-0.405,-0.16
23:16:53.612,-0.38,-0.155
23:16:53.616,-0.32,-0.145
23:16:53.620,-0.24,-0.18
23:16:53.624,-0.125,-0.17
23:16:53.628,-0.035,-0.2
23:16:53.632,0.04,-0.255
23:16:53.636,0.105,-0.27
23:16:53.640,0.16,-0.255
23:16:53.644,0.145,-0.225
23:16:53.648,0.085,-0.29
23:16:53.652,0.04,-0.35
23:16:53.656,0.14,-0.46
23:16:53.660,0.4,-0.695
23:16:53.664,0.755,-0.98
23:16:53.668,1.06,-1.235
23:16:53.672,1.155,-1.35
23:16:53.676,0.945,-1.225
23:16:53.680,0.465,-0.83
23:16:53.684,0.03,-0.475
23:16:53.688,-0.2,-0.255
23:16:53.692,-0.31,-0.12
23:16:53.696,-0.38,-0.05
23:16:53.700,-0.395,-0.02
23:16:53.704,-0.46,-0.03
23:16:53.708,-0.495,-0.045
23:16:53.712,-0.51,-0.075
23:16:53.716,-0.53,-0.065
23:16:53.720,-0.525,-0.13
23:16:53.724,-0.54,-0.165
23:16:53.728,-0.54,-0.17
23:16:53.732,-0.545,-0.165
23:16:53.736,-0.535,-0.175
23:16:53.740,-0.55,-0.165
23:16:53.744,-0.55,-0.18
23:16:53.748,-0.555,-0.195
23:16:53.752,-0.59,-0.17
23:16:53.756,-0.575,-0.185
23:16:53.760,-0.55,-0.18
23:16:53.764,-0.56,-0.18
23:16:53.768,-0.55,-0.195
23:16:53.772,-0.55,-0.185
23:16:53.776,-0.56,-0.185
23:16:53.780,-0.61,-0.19
23:16:53.784,-0.57,-0.195
23:16:53.788,-0.565,-0.205
23:16:53.792,-0.575,-0.2
23:16:53.796,-0.58,-0.205
23:16:53.800,-0.605,-0.2
23:16:53.804,-0.615,-0.21
23:16:53.808,-0.635,-0.215
23:16:53.812,-0.61,-0.225
23:16:53.816,-0.61,-0.2
23:16:53.820,-0.6,-0.225
23:16:53.824,-0.605,-0.235
23:16:53.828,-0.6,-0.24
23:16:53.832,-0.625,-0.235
23:16:53.836,-0.58,-0.24
23:16:53.840,-0.55,-0.23
23:16:53.844,-0.59,-0.23
23:16:53.848,-0.585,-0.23
23:16:53.852,-0.57,-0.24
23:16:53.856,-0.53,-0.235
23:16:53.860,-0.55,-0.25
23:16:53.864,-0.49,-0.225
23:16:53.868,-0.51,-0.25
23:16:53.872,-0.48,-0.245
23:16:53.876,-0.475,-0.24
23:16:53.880,-0.47,-0.265
23:16:53.884,-0.435,-0.26
23:16:53.888,-0.435,-0.295
23:16:53.892,-0.425,-0.26
23:16:53.896,-0.415,-0.28
23:16:53.900,-0.38,-0.29
23:16:53.904,-0.405,-0.305
23:16:53.908,-0.4,-0.31
23:16:53.912,-0.41,-0.315
23:16:53.916,-0.405,-0.315
23:16:53.920,-0.4,-0.32
23:16:53.924,-0.375,-0.32
23:16:53.928,-0.36,-0.34
23:16:53.932,-0.345,-0.33
23:16:53.936,-0.345,-0.34
23:16:53.940,-0.325,-0.33
23:16:53.944,-0.32,-0.35
23:16:53.948,-0.335,-0.35
23:16:53.952,-0.33,-0.335
23:16:53.956,-0.32,-0.34
23:16:53.960,-0.305,-0.36
23:16:53.964,-0.285,-0.36
23:16:53.968,-0.275,-0.36
23:16:53.972,-0.27,-0.37
23:16:53.976,-0.235,-0.365
23:16:53.980,-0.255,-0.35
23:16:53.984,-0.255,-0.345
23:16:53.988,-0.26,-0.35
23:16:53.992,-0.26,-0.37
23:16:53.996,-0.25,-0.33
23:16:54.000,-0.255,-0.345
23:16:54.004,-0.26,-0.345
23:16:54.008,-0.28,-0.365
23:16:54.012,-0.275,-0.35
23:16:54.016,-0.26,-0.335
23:16:54.020,-0.27,-0.37
23:16:54.024,-0.275,-0.36
23:16:54.028,-0.28,-0.35
23:16:54.032,-0.305,-0.355
23:16:54.036,-0.285,-0.375
23:16:54.040,-0.3,-0.37
23:16:54.044,-0.27,-0.39
23:16:54.048,-0.275,-0.395
23:16:54.052,-0.28,-0.375
23:16:54.056,-0.26,-0.4
23:16:54.060,-0.27,-0.395
23:16:54.064,-0.26,-0.4
23:16:54.068,-0.235,-0.405
23:16:54.072,-0.245,-0.4
23:16:54.076,-0.21,-0.37
23:16:54.080,-0.16,-0.37
23:16:54.084,-0.125,-0.375
23:16:54.088,-0.06,-0.38
23:16:54.092,-0.04,-0.36
23:16:54.096,-0.045,-0.335
23:16:54.100,-0.005,-0.355
23:16:54.104,0.015,-0.365
23:16:54.108,0.08,-0.365
23:16:54.112,0.07,-0.365
23:16:54.116,0.055,-0.385
23:16:54.120,0.035,-0.41
23:16:54.124,-0.02,-0.425
23:16:54.128,-0.07,-0.445
23:16:54.132,-0.11,-0.46
23:16:54.136,-0.195,-0.48
23:16:54.140,-0.265,-0.47
23:16:54.144,-0.295,-0.46
23:16:54.148,-0.34,-0.46
23:16:54.152,-0.35,-0.455
23:16:54.156,-0.355,-0.465
23:16:54.160,-0.385,-0.47
23:16:54.164,-0.37,-0.455
23:16:54.168,-0.37,-0.455
23:16:54.172,-0.36,-0.465
23:16:54.176,-0.35,-0.465
23:16:54.180,-0.355,-0.445
23:16:54.184,-0.34,-0.485
23:16:54.188,-0.32,-0.46
23:16:54.192,-0.32,-0.455
23:16:54.196,-0.31,-0.48
23:16:54.200,-0.335,-0.48
23:16:54.204,-0.325,-0.46
23:16:54.208,-0.33,-0.475
23:16:54.212,-0.335,-0.47
23:16:54.216,-0.35,-0.445
23:16:54.220,-0.355,-0.47
23:16:54.224,-0.34,-0.47
23:16:54.228,-0.335,-0.47
23:16:54.232,-0.335,-0.44
23:16:54.236,-0.345,-0.455
23:16:54.240,-0.34,-0.44
23:16:54.244,-0.365,-0.435
23:16:54.248,-0.34,-0.435
23:16:54.252,-0.33,-0.445
23:16:54.256,-0.3,-0.445
23:16:54.260,-0.255,-0.445
23:16:54.264,-0.18,-0.44
23:16:54.268,-0.1,-0.44
23:16:54.272,0.025,-0.46
23:16:54.276,0.08,-0.51
23:16:54.280,0.14,-0.545
23:16:54.284,0.195,-0.545
23:16:54.288,0.21,-0.525
23:16:54.292,0.18,-0.515
23:16:54.296,0.155,-0.57
23:16:54.300,0.21,-0.675
23:16:54.304,0.425,-0.85
23:16:54.308,0.765,-1.125
23:16:54.312,1.07,-1.355
23:16:54.316,1.195,-1.49
23:16:54.320,1.03,-1.425
23:16:54.324,0.56,-1.07
23:16:54.328,0.075,-0.705
23:16:54.332,-0.195,-0.48
23:16:54.336,-0.33,-0.35
23:16:54.340,-0.375,-0.27
23:16:54.344,-0.415,-0.22
23:16:54.348,-0.455,-0.22
23:16:54.352,-0.505,-0.215
23:16:54.356,-0.54,-0.21
23:16:54.360,-0.56,-0.235
23:16:54.364,-0.565,-0.25
23:16:54.368,-0.575,-0.275
23:16:54.372,-0.58,-0.26
23:16:54.376,-0.59,-0.27
23:16:54.380,-0.585,-0.27
23:16:54.384,-0.59,-0.26
23:16:54.388,-0.59,-0.24
23:16:54.392,-0.59,-0.225
23:16:54.396,-0.595,-0.225
23:16:54.400,-0.6,-0.225
23:16:54.404,-0.625,-0.21
23:16:54.408,-0.6,-0.21
23:16:54.412,-0.59,-0.185
23:16:54.416,-0.585,-0.18
23:16:54.420,-0.605,-0.175
23:16:54.424,-0.585,-0.18
23:16:54.428,-0.62,-0.17
23:16:54.432,-0.61,-0.16
23:16:54.436,-0.635,-0.175
23:16:54.440,-0.64,-0.155
23:16:54.444,-0.62,-0.145
23:16:54.448,-0.63,-0.125
23:16:54.452,-0.63,-0.15
23:16:54.456,-0.625,-0.12
23:16:54.460,-0.64,-0.13
23:16:54.464,-0.665,-0.13
23:16:54.468,-0.665,-0.125
23:16:54.472,-0.655,-0.125
23:16:54.476,-0.665,-0.115
23:16:54.480,-0.65,-0.1
23:16:54.484,-0.63,-0.12
23:16:54.488,-0.63,-0.13
23:16:54.492,-0.625,-0.1
23:16:54.496,-0.625,-0.12
23:16:54.500,-0.615,-0.09
23:16:54.504,-0.62,-0.12
23:16:54.508,-0.615,-0.115
23:16:54.512,-0.585,-0.11
23:16:54.516,-0.585,-0.095
23:16:54.520,-0.57,-0.1
23:16:54.524,-0.555,-0.11
23:16:54.528,-0.53,-0.11
23:16:54.532,-0.52,-0.12
23:16:54.536,-0.5,-0.12
23:16:54.540,-0.5,-0.105
23:16:54.544,-0.46,-0.115
23:16:54.548,-0.45,-0.125
23:16:54.552,-0.44,-0.135
23:16:54.556,-0.445,-0.14
23:16:54.560,-0.425,-0.125
23:16:54.564,-0.405,-0.105
23:16:54.568,-0.4,-0.12
23:16:54.572,-0.38,-0.14
23:16:54.576,-0.39,-0.12
23:16:54.580,-0.38,-0.11
23:16:54.584,-0.36,-0.125
23:16:54.588,-0.345,-0.15
23:16:54.592,-0.335,-0.12
23:16:54.596,-0.34,-0.14
23:16:54.600,-0.33,-0.12
23:16:54.604,-0.31,-0.13
23:16:54.608,-0.31,-0.1
23:16:54.612,-0.315,-0.105
23:16:54.616,-0.305,-0.105
23:16:54.620,-0.325,-0.08
23:16:54.624,-0.295,-0.085
23:16:54.628,-0.295,-0.075
23:16:54.632,-0.275,-0.075
23:16:54.636,-0.27,-0.065
23:16:54.640,-0.26,-0.055
23:16:54.644,-0.26,-0.045
23:16:54.648,-0.28,-0.055
23:16:54.652,-0.27,-0.035
23:16:54.656,-0.28,-0.025
23:16:54.660,-0.28,-0.03
23:16:54.664,-0.295,-0.02
23:16:54.668,-0.28,-0.015
23:16:54.672,-0.28,-0.01
23:16:54.676,-0.275,-0.025
23:16:54.680,-0.265,-0.01
23:16:54.684,-0.285,-0.015
23:16:54.688,-0.265,-0.025
23:16:54.692,-0.255,-0.025
23:16:54.696,-0.235,-0.025
23:16:54.700,-0.235,-0.04
23:16:54.704,-0.24,-0.045
23:16:54.708,-0.22,-0.015
23:16:54.712,-0.165,-0.01
23:16:54.716,-0.13,0.0
23:16:54.720,-0.09,0.005
23:16:54.724,-0.075,0.035
23:16:54.728,-0.05,0.03
23:16:54.732,0.0,0.055
23:16:54.736,0.005,0.045
23:16:54.740,0.03,0.03
23:16:54.744,0.04,0.015
23:16:54.748,0.03,-0.005
23:16:54.752,-0.015,-0.04
23:16:54.756,-0.045,-0.05
23:16:54.760,-0.105,-0.04
23:16:54.764,-0.165,-0.05
23:16:54.768,-0.22,-0.02
23:16:54.772,-0.275,-0.02
23:16:54.776,-0.335,-0.035
23:16:54.780,-0.35,0.015
23:16:54.784,-0.345,0.0
23:16:54.788,-0.385,-0.015
23:16:54.792,-0.39,-0.03
23:16:54.796,-0.39,-0.045
23:16:54.800,-0.395,-0.045
23:16:54.804,-0.39,-0.025
23:16:54.808,-0.395,-0.05
23:16:54.812,-0.38,-0.045
23:16:54.816,-0.365,-0.055
23:16:54.820,-0.385,-0.05
23:16:54.824,-0.39,-0.05
23:16:54.828,-0.375,-0.065
23:16:54.832,-0.37,-0.065
23:16:54.836,-0.36,-0.05
23:16:54.840,-0.365,-0.03
23:16:54.844,-0.365,-0.065
23:16:54.848,-0.35,-0.055
23:16:54.852,-0.355,-0.06
23:16:54.856,-0.345,-0.04
23:16:54.860,-0.335,-0.05
23:16:54.864,-0.335,-0.045
23:16:54.868,-0.34,-0.055
23:16:54.872,-0.32,-0.05
23:16:54.876,-0.325,-0.025
23:16:54.880,-0.325,-0.035
23:16:54.884,-0.315,-0.02
23:16:54.888,-0.305,-0.025
23:16:54.892,-0.22,-0.035
23:16:54.896,-0.14,-0.035
23:16:54.900,-0.055,-0.05
23:16:54.904,0.015,-0.075
23:16:54.908,0.075,-0.135
23:16:54.912,0.085,-0.16
23:16:54.916,0.115,-0.15
23:16:54.920,0.1,-0.16
23:16:54.924,0.04,-0.24
23:16:54.928,0.055,-0.32
23:16:54.932,0.19,-0.48
23:16:54.936,0.48,-0.73
23:16:54.940,0.855,-1.035
23:16:54.944,1.155,-1.255
23:16:54.948,1.22,-1.3
23:16:54.952,0.975,-1.08
23:16:54.956,0.49,-0.665
23:16:54.960,0.035,-0.295
23:16:54.964,-0.21,-0.08
23:16:54.968,-0.31,0.035
23:16:54.972,-0.36,0.1
23:16:54.976,-0.395,0.115
23:16:54.980,-0.415,0.115
23:16:54.984,-0.465,0.11
23:16:54.988,-0.455,0.11
23:16:54.992,-0.51,0.095
23:16:54.996,-0.495,0.06
23:16:55.000,-0.51,0.055
23:16:55.004,-0.525,0.04
23:16:55.008,-0.52,0.04
23:16:55.012,-0.53,0.03
23:16:55.016,-0.555,0.045
23:16:55.020,-0.545,0.035
23:16:55.024,-0.555,0.035
23:16:55.028,-0.55,0.045
23:16:55.032,-0.56,0.045
23:16:55.036,-0.56,0.05
23:16:55.040,-0.55,0.04
23:16:55.044,-0.555,0.07
23:16:55.048,-0.56,0.025
23:16:55.052,-0.58,0.0
23:16:55.056,-0.575,0.03
23:16:55.060,-0.565,0.02
23:16:55.064,-0.585,0.04
23:16:55.068,-0.585,0.035
23:16:55.072,-0.595,0.025
23:16:55.076,-0.595,0.005
23:16:55.080,-0.605,0.03
23:16:55.084,-0.6,0.025
23:16:55.088,-0.58,0.035
23:16:55.092,-0.605,0.035
23:16:55.096,-0.625,0.04
23:16:55.100,-0.61,0.035
23:16:55.104,-0.6,0.065
23:16:55.108,-0.595,0.065
23:16:55.112,-0.605,0.03
23:16:55.116,-0.62,0.035
23:16:55.120,-0.6,0.03
23:16:55.124,-0.61,0.03
23:16:55.128,-0.6,0.025
23:16:55.132,-0.605,0.025
23:16:55.136,-0.6,0.045
23:16:55.140,-0.575,0.03
23:16:55.144,-0.57,0.01
23:16:55.148,-0.565,0.01
23:16:55.152,-0.555,0.0
23:16:55.156,-0.55,0.005
23:16:55.160,-0.525,-0.01
23:16:55.164,-0.485,-0.01
23:16:55.168,-0.5,-0.01
23:16:55.172,-0.5,-0.025
23:16:55.176,-0.465,-0.025
23:16:55.180,-0.465,-0.01
23:16:55.184,-0.435,-0.035
23:16:55.188,-0.405,-0.025
23:16:55.192,-0.38,-0.02
23:16:55.196,-0.405,-0.025
23:16:55.200,-0.385,-0.035
23:16:55.204,-0.375,-0.015
23:16:55.208,-0.385,-0.025
23:16:55.212,-0.385,-0.025
23:16:55.216,-0.36,-0.035
23:16:55.220,-0.355,-0.01
23:16:55.224,-0.36,-0.025
23:16:55.228,-0.355,-0.015
23:16:55.232,-0.345,-0.01
23:16:55.236,-0.355,0.0
23:16:55.240,-0.335,0.005
23:16:55.244,-0.35,-0.005
23:16:55.248,-0.355,-0.02
23:16:55.252,-0.355,-0.04
23:16:55.256,-0.34,0.0
23:16:55.260,-0.325,-0.01
23:16:55.264,-0.32,-0.005
23:16:55.268,-0.315,0.025
23:16:55.272,-0.33,0.01
23:16:55.276,-0.335,0.01
23:16:55.280,-0.33,0.0
23:16:55.284,-0.335,0.03
23:16:55.288,-0.315,0.015
23:16:55.292,-0.31,0.025
23:16:55.296,-0.31,0.01
23:16:55.300,-0.305,0.01
23:16:55.304,-0.285,0.03
23:16:55.308,-0.295,0.01
23:16:55.312,-0.275,0.04
23:16:55.316,-0.26,0.02
23:16:55.320,-0.26,0.055
23:16:55.324,-0.23,0.08
23:16:55.328,-0.195,0.07
23:16:55.332,-0.135,0.075
23:16:55.336,-0.12,0.095
23:16:55.340,-0.115,0.095
23:16:55.344,-0.1,0.095
23:16:55.348,-0.08,0.095
23:16:55.352,-0.045,0.095
23:16:55.356,-0.035,0.07
23:16:55.360,-0.025,0.06
23:16:55.364,-0.035,0.03
23:16:55.368,-0.08,0.02
23:16:55.372,-0.125,0.0
23:16:55.376,-0.185,0.0
23:16:55.380,-0.245,-0.02
23:16:55.384,-0.285,-0.005
23:16:55.388,-0.35,0.01
23:16:55.392,-0.385,0.03
23:16:55.396,-0.42,0.035
23:16:55.400,-0.425,0.03
23:16:55.404,-0.425,0.045
23:16:55.408,-0.44,0.035
23:16:55.412,-0.41,0.015
23:16:55.416,-0.43,0.01
23:16:55.420,-0.415,0.01
23:16:55.424,-0.405,0.02
23:16:55.428,-0.415,0.025
23:16:55.432,-0.415,0.015
23:16:55.436,-0.4,0.01
23:16:55.440,-0.4,0.0
23:16:55.444,-0.415,0.01
23:16:55.448,-0.425,0.0
23:16:55.452,-0.43,-0.035
23:16:55.456,-0.42,-0.015
23:16:55.460,-0.43,-0.025
23:16:55.464,-0.435,-0.015
23:16:55.468,-0.395,-0.025
23:16:55.472,-0.41,-0.04
23:16:55.476,-0.405,-0.02
23:16:55.480,-0.43,-0.02
23:16:55.484,-0.42,-0.02
23:16:55.488,-0.4,-0.03
23:16:55.492,-0.42,-0.03
23:16:55.496,-0.395,-0.05
23:16:55.500,-0.385,-0.03
23:16:55.504,-0.35,-0.02
23:16:55.508,-0.27,-0.045
23:16:55.512,-0.18,-0.05
23:16:55.516,-0.075,-0.06
23:16:55.520,-0.01,-0.09
23:16:55.524,0.03,-0.095
23:16:55.528,0.055,-0.13
23:16:55.532,0.07,-0.11
23:16:55.536,0.05,-0.11
23:16:55.540,0.0,-0.175
23:16:55.544,-0.01,-0.275
23:16:55.548,0.145,-0.46
23:16:55.552,0.445,-0.68
23:16:55.556,0.79,-0.985
23:16:55.560,1.085,-1.23
23:16:55.564,1.165,-1.26
23:16:55.568,0.95,-1.075
23:16:55.572,0.45,-0.67
23:16:55.576,0.01,-0.27
23:16:55.580,-0.25,-0.025
23:16:55.584,-0.355,0.065
23:16:55.588,-0.415,0.115
23:16:55.592,-0.455,0.125
23:16:55.596,-0.51,0.13
23:16:55.600,-0.53,0.11
23:16:55.604,-0.55,0.115
23:16:55.608,-0.555,0.115
23:16:55.612,-0.555,0.08
23:16:55.616,-0.565,0.08
23:16:55.620,-0.55,0.045
23:16:55.624,-0.55,0.035
23:16:55.628,-0.565,0.03
23:16:55.632,-0.55,0.08
23:16:55.636,-0.54,0.045
23:16:55.640,-0.54,0.04
23:16:55.644,-0.54,0.075
23:16:55.648,-0.54,0.055
23:16:55.652,-0.55,0.07
23:16:55.656,-0.58,0.055
23:16:55.660,-0.59,0.055
23:16:55.664,-0.595,0.065
23:16:55.668,-0.6,0.065
23:16:55.672,-0.615,0.07
23:16:55.676,-0.615,0.07
23:16:55.680,-0.595,0.06
23:16:55.684,-0.625,0.06
23:16:55.688,-0.635,0.03
23:16:55.692,-0.615,0.05
23:16:55.696,-0.62,0.055
23:16:55.700,-0.64,0.07
23:16:55.704,-0.635,0.05
23:16:55.708,-0.64,0.06
23:16:55.712,-0.64,0.07
23:16:55.716,-0.64,0.05
23:16:55.720,-0.625,0.045
23:16:55.724,-0.635,0.055
23:16:55.728,-0.605,0.065
23:16:55.732,-0.605,0.065
23:16:55.736,-0.595,0.065
23:16:55.740,-0.605,0.07
23:16:55.744,-0.555,0.08
23:16:55.748,-0.56,0.075
23:16:55.752,-0.57,0.06
23:16:55.756,-0.565,0.065
23:16:55.760,-0.54,0.07
23:16:55.764,-0.535,0.055
23:16:55.768,-0.525,0.035
23:16:55.772,-0.53,0.04
23:16:55.776,-0.52,0.02
23:16:55.780,-0.53,0.03
23:16:55.784,-0.51,0.03
23:16:55.788,-0.495,0.02
23:16:55.792,-0.49,0.01
23:16:55.796,-0.45,0.015
23:16:55.800,-0.445,0.0
23:16:55.804,-0.42,-0.01
23:16:55.808,-0.42,-0.01
23:16:55.812,-0.41,-0.025
23:16:55.816,-0.395,-0.035
23:16:55.820,-0.38,-0.02
23:16:55.824,-0.365,-0.04
23:16:55.828,-0.385,-0.05
23:16:55.832,-0.345,-0.01
23:16:55.836,-0.35,-0.05
23:16:55.840,-0.33,-0.01
23:16:55.844,-0.335,-0.01
23:16:55.848,-0.3,-0.025
23:16:55.852,-0.3,-0.005
23:16:55.856,-0.31,-0.005
23:16:55.860,-0.315,-0.01
23:16:55.864,-0.32,-0.005
23:16:55.868,-0.33,-0.01
23:16:55.872,-0.32,-0.02
23:16:55.876,-0.32,-0.01
23:16:55.880,-0.315,-0.015
23:16:55.884,-0.32,-0.015
23:16:55.888,-0.33,-0.01
23:16:55.892,-0.33,-0.01
23:16:55.896,-0.34,-0.02
23:16:55.900,-0.345,-0.03
23:16:55.904,-0.345,-0.03
23:16:55.908,-0.33,-0.045
23:16:55.912,-0.33,-0.03
23:16:55.916,-0.35,-0.04
23:16:55.920,-0.34,-0.065
23:16:55.924,-0.335,-0.08
23:16:55.928,-0.3,-0.06
23:16:55.932,-0.29,-0.065
23:16:55.936,-0.29,-0.065
23:16:55.940,-0.28,-0.055
23:16:55.944,-0.265,-0.06
23:16:55.948,-0.24,-0.07
23:16:55.952,-0.185,-0.05
23:16:55.956,-0.125,-0.045
23:16:55.960,-0.125,-0.02
23:16:55.964,-0.1,-0.02
23:16:55.968,-0.04,-0.03
23:16:55.972,-0.005,-0.03
23:16:55.976,0.01,-0.055
23:16:55.980,0.01,-0.04
23:16:55.984,-0.01,-0.07
23:16:55.988,-0.035,-0.105
23:16:55.992,-0.09,-0.135
23:16:55.996,-0.15,-0.145
23:16:56.000,-0.225,-0.165
23:16:56.004,-0.285,-0.185
23:16:56.008,-0.32,-0.175
23:16:56.012,-0.385,-0.15
23:16:56.016,-0.425,-0.155
23:16:56.020,-0.44,-0.15
23:16:56.024,-0.445,-0.165
23:16:56.028,-0.43,-0.185
23:16:56.032,-0.455,-0.175
23:16:56.036,-0.44,-0.21
23:16:56.040,-0.43,-0.19
23:16:56.044,-0.41,-0.195
23:16:56.048,-0.405,-0.205
23:16:56.052,-0.4,-0.205
23:16:56.056,-0.39,-0.21
23:16:56.060,-0.375,-0.215
23:16:56.064,-0.38,-0.205
23:16:56.068,-0.395,-0.22
23:16:56.072,-0.4,-0.21
23:16:56.076,-0.405,-0.21
23:16:56.080,-0.405,-0.22
23:16:56.084,-0.375,-0.225
23:16:56.088,-0.385,-0.25
23:16:56.092,-0.375,-0.24
23:16:56.096,-0.37,-0.26
23:16:56.100,-0.375,-0.255
23:16:56.104,-0.39,-0.24
23:16:56.108,-0.4,-0.245
23:16:56.112,-0.38,-0.27
23:16:56.116,-0.38,-0.285
23:16:56.120,-0.385,-0.29
23:16:56.124,-0.34,-0.285
23:16:56.128,-0.3,-0.305
23:16:56.132,-0.215,-0.305
23:16:56.136,-0.105,-0.31
23:16:56.140,0.0,-0.34
23:16:56.144,0.065,-0.365
23:16:56.148,0.115,-0.41
23:16:56.152,0.155,-0.405
23:16:56.156,0.2,-0.4
23:16:56.160,0.18,-0.395
23:16:56.164,0.11,-0.45
23:16:56.168,0.135,-0.53
23:16:56.172,0.32,-0.69
23:16:56.176,0.65,-0.975
23:16:56.180,0.97,-1.25
23:16:56.184,1.175,-1.42
23:16:56.188,1.115,-1.415
23:16:56.192,0.735,-1.115
23:16:56.196,0.225,-0.725
23:16:56.200,-0.105,-0.455
23:16:56.204,-0.245,-0.315
23:16:56.208,-0.31,-0.24
23:16:56.212,-0.355,-0.185
23:16:56.216,-0.4,-0.19
23:16:56.220,-0.445,-0.2
23:16:56.224,-0.505,-0.19
23:16:56.228,-0.55,-0.225
23:16:56.232,-0.555,-0.28
23:16:56.236,-0.545,-0.285
23:16:56.240,-0.555,-0.305
23:16:56.244,-0.53,-0.325
23:16:56.248,-0.56,-0.32
23:16:56.252,-0.555,-0.335
23:16:56.256,-0.55,-0.345
23:16:56.260,-0.55,-0.325
23:16:56.264,-0.595,-0.325
23:16:56.268,-0.575,-0.32
23:16:56.272,-0.555,-0.315
23:16:56.276,-0.56,-0.32
23:16:56.280,-0.555,-0.34
23:16:56.284,-0.58,-0.315
23:16:56.288,-0.56,-0.315
23:16:56.292,-0.555,-0.345
23:16:56.296,-0.55,-0.32
23:16:56.300,-0.555,-0.31
23:16:56.304,-0.545,-0.32
23:16:56.308,-0.57,-0.325
23:16:56.312,-0.595,-0.325
23:16:56.316,-0.585,-0.32
23:16:56.320,-0.595,-0.33
23:16:56.324,-0.615,-0.345
23:16:56.328,-0.615,-0.345
23:16:56.332,-0.61,-0.35
23:16:56.336,-0.585,-0.365
23:16:56.340,-0.565,-0.34
23:16:56.344,-0.58,-0.34
23:16:56.348,-0.58,-0.355
23:16:56.352,-0.57,-0.34
23:16:56.356,-0.58,-0.345
23:16:56.360,-0.57,-0.395
23:16:56.364,-0.56,-0.38
23:16:56.368,-0.54,-0.385
23:16:56.372,-0.525,-0.39
23:16:56.376,-0.535,-0.375
23:16:56.380,-0.53,-0.37
23:16:56.384,-0.495,-0.395
23:16:56.388,-0.51,-0.38
23:16:56.392,-0.47,-0.375
23:16:56.396,-0.475,-0.385
23:16:56.400,-0.455,-0.37
23:16:56.404,-0.46,-0.37
23:16:56.408,-0.435,-0.38
23:16:56.412,-0.425,-0.415
23:16:56.416,-0.415,-0.395
23:16:56.420,-0.395,-0.405
23:16:56.424,-0.395,-0.4
23:16:56.428,-0.385,-0.395
23:16:56.432,-0.39,-0.42
23:16:56.436,-0.405,-0.425
23:16:56.440,-0.395,-0.415
23:16:56.444,-0.4,-0.415
23:16:56.448,-0.405,-0.42
23:16:56.452,-0.385,-0.4
23:16:56.456,-0.345,-0.42
23:16:56.460,-0.335,-0.445
23:16:56.464,-0.345,-0.44
23:16:56.468,-0.345,-0.425
23:16:56.472,-0.355,-0.43
23:16:56.476,-0.31,-0.44
23:16:56.480,-0.32,-0.435
23:16:56.484,-0.325,-0.43
23:16:56.488,-0.325,-0.415
23:16:56.492,-0.33,-0.415
23:16:56.496,-0.345,-0.42
23:16:56.500,-0.325,-0.41
23:16:56.504,-0.315,-0.415
23:16:56.508,-0.315,-0.4
23:16:56.512,-0.29,-0.395
23:16:56.516,-0.31,-0.37
23:16:56.520,-0.3,-0.405
23:16:56.524,-0.3,-0.41
23:16:56.528,-0.33,-0.4
23:16:56.532,-0.31,-0.38
23:16:56.536,-0.32,-0.39
23:16:56.540,-0.315,-0.41
23:16:56.544,-0.325,-0.405
23:16:56.548,-0.34,-0.4
23:16:56.552,-0.33,-0.41
23:16:56.556,-0.34,-0.4
23:16:56.560,-0.32,-0.405
23:16:56.564,-0.3,-0.395
23:16:56.568,-0.26,-0.4
23:16:56.572,-0.275,-0.42
23:16:56.576,-0.27,-0.405
23:16:56.580,-0.265,-0.395
23:16:56.584,-0.255,-0.4
23:16:56.588,-0.195,-0.365
23:16:56.592,-0.135,-0.375
23:16:56.596,-0.095,-0.35
23:16:56.600,-0.08,-0.355
23:16:56.604,-0.04,-0.345
23:16:56.608,0.005,-0.32
23:16:56.612,0.01,-0.31
23:16:56.616,0.02,-0.335
23:16:56.620,0.02,-0.34
23:16:56.624,-0.025,-0.375
23:16:56.628,-0.085,-0.38
23:16:56.632,-0.135,-0.41
23:16:56.636,-0.185,-0.375
23:16:56.640,-0.265,-0.4
23:16:56.644,-0.32,-0.385
23:16:56.648,-0.355,-0.35
23:16:56.652,-0.415,-0.35
23:16:56.656,-0.435,-0.345
23:16:56.660,-0.44,-0.36
23:16:56.664,-0.465,-0.375
23:16:56.668,-0.42,-0.365
23:16:56.672,-0.425,-0.38
23:16:56.676,-0.41,-0.375
23:16:56.680,-0.39,-0.37
23:16:56.684,-0.395,-0.385
23:16:56.688,-0.4,-0.37
23:16:56.692,-0.375,-0.37
23:16:56.696,-0.395,-0.37
23:16:56.700,-0.395,-0.36
23:16:56.704,-0.405,-0.36
23:16:56.708,-0.4,-0.355
23:16:56.712,-0.39,-0.355
23:16:56.716,-0.395,-0.335
23:16:56.720,-0.39,-0.33
23:16:56.724,-0.37,-0.335
23:16:56.728,-0.36,-0.325
23:16:56.732,-0.375,-0.345
23:16:56.736,-0.34,-0.305
23:16:56.740,-0.375,-0.3
23:16:56.744,-0.355,-0.285
23:16:56.748,-0.365,-0.28
23:16:56.752,-0.35,-0.285
23:16:56.756,-0.32,-0.28
23:16:56.760,-0.29,-0.285
23:16:56.764,-0.25,-0.29
23:16:56.768,-0.19,-0.285
23:16:56.772,-0.09,-0.305
23:16:56.776,0.01,-0.315
23:16:56.780,0.07,-0.335
23:16:56.784,0.12,-0.395
23:16:56.788,0.165,-0.39
23:16:56.792,0.2,-0.38
23:16:56.796,0.165,-0.425
23:16:56.800,0.14,-0.48
23:16:56.804,0.25,-0.62
23:16:56.808,0.525,-0.835
23:16:56.812,0.89,-1.095
23:16:56.816,1.205,-1.325
23:16:56.820,1.315,-1.415
23:16:56.824,1.09,-1.25
23:16:56.828,0.575,-0.84
23:16:56.832,0.07,-0.49
23:16:56.836,-0.195,-0.265
23:16:56.840,-0.325,-0.145
23:16:56.844,-0.39,-0.07
23:16:56.848,-0.415,-0.05
23:16:56.852,-0.45,-0.015
23:16:56.856,-0.5,-0.025
23:16:56.860,-0.5,-0.045
23:16:56.864,-0.535,-0.06
23:16:56.868,-0.535,-0.06
23:16:56.872,-0.52,-0.085
23:16:56.876,-0.54,-0.08
23:16:56.880,-0.56,-0.075
23:16:56.884,-0.56,-0.09
23:16:56.888,-0.58,-0.07
23:16:56.892,-0.57,-0.08
23:16:56.896,-0.58,-0.075
23:16:56.900,-0.565,-0.095
23:16:56.904,-0.56,-0.075
23:16:56.908,-0.595,-0.05
23:16:56.912,-0.58,-0.08
23:16:56.916,-0.57,-0.06
23:16:56.920,-0.57,-0.08
23:16:56.924,-0.595,-0.055
23:16:56.928,-0.605,-0.07
23:16:56.932,-0.62,-0.05
23:16:56.936,-0.625,-0.075
23:16:56.940,-0.59,-0.05
23:16:56.944,-0.59,-0.065
23:16:56.948,-0.6,-0.06
23:16:56.952,-0.605,-0.06
23:16:56.956,-0.6,-0.06
23:16:56.960,-0.585,-0.03
23:16:56.964,-0.57,-0.05
23:16:56.968,-0.575,-0.045
23:16:56.972,-0.575,-0.035
23:16:56.976,-0.585,-0.035
23:16:56.980,-0.59,-0.035
23:16:56.984,-0.58,-0.045
23:16:56.988,-0.59,-0.04
23:16:56.992,-0.585,-0.055
23:16:56.996,-0.58,-0.035
23:16:57.000,-0.58,-0.035
23:16:57.004,-0.585,-0.04
23:16:57.008,-0.565,-0.035
23:16:57.012,-0.58,-0.045
23:16:57.016,-0.545,-0.055
23:16:57.020,-0.54,-0.06
23:16:57.024,-0.52,-0.07
23:16:57.028,-0.515,-0.1
23:16:57.032,-0.51,-0.08
23:16:57.036,-0.495,-0.06
23:16:57.040,-0.485,-0.09
23:16:57.044,-0.47,-0.095
23:16:57.048,-0.46,-0.095
23:16:57.052,-0.435,-0.095
23:16:57.056,-0.42,-0.085
23:16:57.060,-0.4,-0.08
23:16:57.064,-0.38,-0.075
23:16:57.068,-0.375,-0.1
23:16:57.072,-0.355,-0.08
23:16:57.076,-0.345,-0.075
23:16:57.080,-0.335,-0.08
23:16:57.084,-0.335,-0.075
23:16:57.088,-0.35,-0.085
23:16:57.092,-0.34,-0.085
23:16:57.096,-0.315,-0.1
23:16:57.100,-0.3,-0.075
23:16:57.104,-0.32,-0.065
23:16:57.108,-0.325,-0.09
23:16:57.112,-0.335,-0.05
23:16:57.116,-0.315,-0.065
23:16:57.120,-0.315,-0.075
23:16:57.124,-0.32,-0.09
23:16:57.128,-0.305,-0.08
23:16:57.132,-0.295,-0.08
23:16:57.136,-0.295,-0.06
23:16:57.140,-0.31,-0.07
23:16:57.144,-0.315,-0.05
23:16:57.148,-0.315,-0.065
23:16:57.152,-0.32,-0.04
23:16:57.156,-0.31,-0.05
23:16:57.160,-0.305,-0.05
23:16:57.164,-0.295,-0.04
23:16:57.168,-0.29,-0.045
23:16:57.172,-0.295,-0.045
23:16:57.176,-0.28,-0.055
23:16:57.180,-0.29,-0.055
23:16:57.184,-0.255,-0.03
23:16:57.188,-0.24,-0.035
23:16:57.192,-0.23,-0.03
23:16:57.196,-0.235,-0.01
23:16:57.200,-0.21,-0.015
23:16:57.204,-0.18,0.0
23:16:57.208,-0.145,-0.005
23:16:57.212,-0.12,0.01
23:16:57.216,-0.085,0.0
23:16:57.220,-0.075,0.015
23:16:57.224,-0.03,0.015
23:16:57.228,-0.03,0.01
23:16:57.232,0.0,-0.005
23:16:57.236,-0.01,-0.01
23:16:57.240,-0.01,-0.045
23:16:57.244,-0.04,-0.08
23:16:57.248,-0.105,-0.065
23:16:57.252,-0.145,-0.095
23:16:57.256,-0.2,-0.09
23:16:57.260,-0.255,-0.085
23:16:57.264,-0.285,-0.07
23:16:57.268,-0.34,-0.075
23:16:57.272,-0.385,-0.055
23:16:57.276,-0.375,-0.06
23:16:57.280,-0.4,-0.04
23:16:57.284,-0.4,-0.04
23:16:57.288,-0.415,-0.045
23:16:57.292,-0.41,-0.06
23:16:57.296,-0.41,-0.035
23:16:57.300,-0.39,-0.055
23:16:57.304,-0.38,-0.065
23:16:57.308,-0.375,-0.055
23:16:57.312,-0.38,-0.06
23:16:57.316,-0.355,-0.055
23:16:57.320,-0.37,-0.065
23:16:57.324,-0.365,-0.075
23:16:57.328,-0.375,-0.075
23:16:57.332,-0.38,-0.08
23:16:57.336,-0.375,-0.09
23:16:57.340,-0.38,-0.09
23:16:57.344,-0.375,-0.08
23:16:57.348,-0.37,-0.095
23:16:57.352,-0.38,-0.115
23:16:57.356,-0.38,-0.1
23:16:57.360,-0.37,-0.1
23:16:57.364,-0.35,-0.105
23:16:57.368,-0.36,-0.105
23:16:57.372,-0.36,-0.095
23:16:57.376,-0.34,-0.12
23:16:57.380,-0.32,-0.08
23:16:57.384,-0.255,-0.1
23:16:57.388,-0.175,-0.08
23:16:57.392,-0.095,-0.095
23:16:57.396,0.0,-0.1
23:16:57.400,0.055,-0.16
23:16:57.404,0.075,-0.205
23:16:57.408,0.08,-0.185
23:16:57.412,0.065,-0.165
23:16:57.416,0.055,-0.225
23:16:57.420,-0.005,-0.31
23:16:57.424,0.1,-0.475
23:16:57.428,0.375,-0.68
23:16:57.432,0.735,-0.95
23:16:57.436,1.05,-1.23
23:16:57.440,1.19,-1.325
23:16:57.444,1.045,-1.2
23:16:57.448,0.575,-0.81
23:16:57.452,0.08,-0.39
23:16:57.456,-0.21,-0.15
23:16:57.460,-0.32,-0.015
23:16:57.464,-0.43,0.055
23:16:57.468,-0.45,0.07
23:16:57.472,-0.47,0.06
23:16:57.476,-0.505,0.09
23:16:57.480,-0.535,0.08
23:16:57.484,-0.54,0.06
23:16:57.488,-0.54,0.045
23:16:57.492,-0.555,0.035
23:16:57.496,-0.555,0.02
23:16:57.500,-0.53,0.02
23:16:57.504,-0.555,0.01
23:16:57.508,-0.56,0.035
23:16:57.512,-0.565,0.01
23:16:57.516,-0.56,0.03
23:16:57.520,-0.57,0.03
23:16:57.524,-0.55,0.01
23:16:57.528,-0.56,0.025
23:16:57.532,-0.56,0.01
23:16:57.536,-0.56,0.005
23:16:57.540,-0.575,-0.005
23:16:57.544,-0.585,0.01
23:16:57.548,-0.605,0.0
23:16:57.552,-0.615,0.01
23:16:57.556,-0.62,0.005
23:16:57.560,-0.635,0.01
23:16:57.564,-0.64,0.005
23:16:57.568,-0.625,0.005
23:16:57.572,-0.63,-0.005
23:16:57.576,-0.62,0.005
23:16:57.580,-0.64,-0.005
23:16:57.584,-0.625,0.005
23:16:57.588,-0.635,0.005
23:16:57.592,-0.64,0.005
23:16:57.596,-0.65,0.0
23:16:57.600,-0.65,0.01
23:16:57.604,-0.655,0.0
23:16:57.608,-0.63,0.02
23:16:57.612,-0.59,0.0
23:16:57.616,-0.58,0.02
23:16:57.620,-0.595,0.015
23:16:57.624,-0.57,0.03
23:16:57.628,-0.555,0.045
23:16:57.632,-0.545,0.02
23:16:57.636,-0.525,0.03
23:16:57.640,-0.54,0.005
23:16:57.644,-0.52,0.0
23:16:57.648,-0.495,0.01
23:16:57.652,-0.49,-0.005
23:16:57.656,-0.505,-0.01
23:16:57.660,-0.51,0.0
23:16:57.664,-0.505,-0.015
23:16:57.668,-0.46,-0.03
23:16:57.672,-0.45,-0.03
23:16:57.676,-0.435,-0.015
23:16:57.680,-0.44,-0.015
23:16:57.684,-0.41,-0.04
23:16:57.688,-0.415,-0.04
23:16:57.692,-0.385,-0.035
23:16:57.696,-0.375,-0.04
23:16:57.700,-0.37,-0.03
23:16:57.704,-0.35,0.0
23:16:57.708,-0.365,-0.03
23:16:57.712,-0.345,-0.035
23:16:57.716,-0.315,-0.01
23:16:57.720,-0.3,-0.01
23:16:57.724,-0.31,-0.01
23:16:57.728,-0.31,-0.005
23:16:57.732,-0.305,0.015
23:16:57.736,-0.315,0.01
23:16:57.740,-0.285,0.01
23:16:57.744,-0.28,0.015
23:16:57.748,-0.285,0.025
23:16:57.752,-0.28,0.0
23:16:57.756,-0.29,0.02
23:16:57.760,-0.28,0.015
23:16:57.764,-0.275,0.015
23:16:57.768,-0.28,0.02
23:16:57.772,-0.285,0.02
23:16:57.776,-0.275,0.015
23:16:57.780,-0.305,0.015
23:16:57.784,-0.295,0.015
23:16:57.788,-0.29,0.005
23:16:57.792,-0.29,-0.01
23:16:57.796,-0.265,0.02
23:16:57.800,-0.24,0.005
23:16:57.804,-0.26,0.015
23:16:57.808,-0.235,0.0
23:16:57.812,-0.23,0.03
23:16:57.816,-0.16,0.035
23:16:57.820,-0.115,0.06
23:16:57.824,-0.075,0.05
23:16:57.828,-0.045,0.075
23:16:57.832,-0.02,0.07
23:16:57.836,0.01,0.055
23:16:57.840,0.03,0.08
23:16:57.844,0.03,0.08
23:16:57.848,0.03,0.07
23:16:57.852,0.01,0.04
23:16:57.856,-0.03,0.0
23:16:57.860,-0.085,0.0
23:16:57.864,-0.14,-0.01
23:16:57.868,-0.215,0.0
23:16:57.872,-0.27,0.0
23:16:57.876,-0.295,0.0
23:16:57.880,-0.35,-0.005
23:16:57.884,-0.38,0.01
23:16:57.888,-0.39,0.02
23:16:57.892,-0.395,0.0
23:16:57.896,-0.41,0.015
23:16:57.900,-0.39,0.0
23:16:57.904,-0.39,-0.015
23:16:57.908,-0.39,0.005
23:16:57.912,-0.38,-0.02
23:16:57.916,-0.37,-0.035
23:16:57.920,-0.385,-0.03
23:16:57.924,-0.375,-0.03
23:16:57.928,-0.375,-0.04
23:16:57.932,-0.355,-0.05
23:16:57.936,-0.365,-0.03
23:16:57.940,-0.335,-0.04
23:16:57.944,-0.335,-0.035
23:16:57.948,-0.33,-0.05
23:16:57.952,-0.345,-0.04
23:16:57.956,-0.35,-0.04
23:16:57.960,-0.335,-0.025
23:16:57.964,-0.335,-0.04
23:16:57.968,-0.32,-0.035
23:16:57.972,-0.32,-0.04
23:16:57.976,-0.33,-0.05
23:16:57.980,-0.325,-0.04
23:16:57.984,-0.325,-0.045
23:16:57.988,-0.32,-0.05
23:16:57.992,-0.305,-0.05
23:16:57.996,-0.23,-0.055
23:16:58.000,-0.14,-0.055
23:16:58.004,-0.065,-0.08
23:16:58.008,0.025,-0.12
23:16:58.012,0.05,-0.13
23:16:58.016,0.075,-0.195
23:16:58.020,0.11,-0.18
23:16:58.024,0.08,-0.16
23:16:58.028,0.035,-0.235
23:16:58.032,0.02,-0.32
23:16:58.036,0.18,-0.48
23:16:58.040,0.495,-0.74
23:16:58.044,0.865,-1.06
23:16:58.048,1.18,-1.26
23:16:58.052,1.24,-1.315
23:16:58.056,1.025,-1.08
23:16:58.060,0.54,-0.64
23:16:58.064,0.1,-0.27
23:16:58.068,-0.15,-0.05
23:16:58.072,-0.27,0.05
23:16:58.076,-0.335,0.105
23:16:58.080,-0.38,0.1
23:16:58.084,-0.44,0.12
23:16:58.088,-0.47,0.095
23:16:58.092,-0.49,0.095
23:16:58.096,-0.52,0.04
23:16:58.100,-0.515,0.05
23:16:58.104,-0.52,0.01
23:16:58.108,-0.525,0.005
23:16:58.112,-0.52,0.01
23:16:58.116,-0.53,-0.005
23:16:58.120,-0.545,0.0
23:16:58.124,-0.55,0.0
23:16:58.128,-0.55,0.0
23:16:58.132,-0.56,-0.015
23:16:58.136,-0.55,-0.005
23:16:58.140,-0.56,0.015
23:16:58.144,-0.565,-0.015
23:16:58.148,-0.56,0.0
23:16:58.152,-0.575,-0.01
23:16:58.156,-0.56,0.0
23:16:58.160,-0.565,-0.025
23:16:58.164,-0.555,-0.015
23:16:58.168,-0.575,-0.005
23:16:58.172,-0.6,-0.03
23:16:58.176,-0.59,-0.01
23:16:58.180,-0.595,-0.015
23:16:58.184,-0.59,-0.03
23:16:58.188,-0.6,-0.02
23:16:58.192,-0.61,0.0
23:16:58.196,-0.615,-0.025
23:16:58.200,-0.595,-0.01
23:16:58.204,-0.615,-0.015
23:16:58.208,-0.625,-0.035
23:16:58.212,-0.61,-0.01
23:16:58.216,-0.625,-0.02
23:16:58.220,-0.63,-0.035
23:16:58.224,-0.61,-0.025
23:16:58.228,-0.605,-0.035
23:16:58.232,-0.58,-0.035
23:16:58.236,-0.58,-0.05
23:16:58.240,-0.58,-0.03
23:16:58.244,-0.565,-0.05
23:16:58.248,-0.555,-0.04
23:16:58.252,-0.54,-0.045
23:16:58.256,-0.55,-0.06
23:16:58.260,-0.52,-0.055
23:16:58.264,-0.5,-0.055
23:16:58.268,-0.5,-0.06
23:16:58.272,-0.475,-0.06
23:16:58.276,-0.455,-0.055
23:16:58.280,-0.45,-0.07
23:16:58.284,-0.45,-0.065
23:16:58.288,-0.425,-0.07
23:16:58.292,-0.405,-0.055
23:16:58.296,-0.405,-0.07
23:16:58.300,-0.385,-0.085
23:16:58.304,-0.39,-0.065
23:16:58.308,-0.39,-0.055
23:16:58.312,-0.375,-0.06
23:16:58.316,-0.355,-0.075
23:16:58.320,-0.355,-0.07
23:16:58.324,-0.36,-0.06
23:16:58.328,-0.35,-0.07
23:16:58.332,-0.32,-0.07
23:16:58.336,-0.325,-0.07
23:16:58.340,-0.315,-0.085
23:16:58.344,-0.315,-0.05
23:16:58.348,-0.3,-0.06
23:16:58.352,-0.315,-0.075
23:16:58.356,-0.3,-0.055
23:16:58.360,-0.31,-0.045
23:16:58.364,-0.305,-0.06
23:16:58.368,-0.315,-0.04
23:16:58.372,-0.305,-0.04
23:16:58.376,-0.3,-0.045
23:16:58.380,-0.285,-0.04
23:16:58.384,-0.29,-0.05
23:16:58.388,-0.305,-0.035
23:16:58.392,-0.29,-0.03
23:16:58.396,-0.3,-0.03
23:16:58.400,-0.29,-0.025
23:16:58.404,-0.29,0.0
23:16:58.408,-0.26,-0.035
23:16:58.412,-0.255,0.0
23:16:58.416,-0.23,-0.03
23:16:58.420,-0.245,-0.02
23:16:58.424,-0.235,0.0
23:16:58.428,-0.215,-0.01
23:16:58.432,-0.16,-0.005
23:16:58.436,-0.11,-0.005
23:16:58.440,-0.085,0.02
23:16:58.444,-0.06,0.0
23:16:58.448,-0.03,0.0
23:16:58.452,-0.01,0.005
23:16:58.456,0.02,0.0
23:16:58.460,0.02,-0.01
23:16:58.464,-0.02,-0.04
23:16:58.468,-0.055,-0.09
23:16:58.472,-0.11,-0.095
23:16:58.476,-0.195,-0.12
23:16:58.480,-0.225,-0.105
23:16:58.484,-0.275,-0.095
23:16:58.488,-0.32,-0.08
23:16:58.492,-0.375,-0.085
23:16:58.496,-0.4,-0.06
23:16:58.500,-0.42,-0.065
23:16:58.504,-0.43,-0.1
23:16:58.508,-0.42,-0.09
23:16:58.512,-0.415,-0.09
23:16:58.516,-0.415,-0.09
23:16:58.520,-0.405,-0.105
23:16:58.524,-0.4,-0.11
23:16:58.528,-0.395,-0.12
23:16:58.532,-0.385,-0.145
23:16:58.536,-0.39,-0.12
23:16:58.540,-0.4,-0.135
23:16:58.544,-0.41,-0.125
23:16:58.548,-0.42,-0.15
23:16:58.552,-0.415,-0.16
23:16:58.556,-0.42,-0.125
23:16:58.560,-0.405,-0.16
23:16:58.564,-0.41,-0.14
23:16:58.568,-0.39,-0.165
23:16:58.572,-0.39,-0.155
23:16:58.576,-0.39,-0.18
23:16:58.580,-0.385,-0.185
23:16:58.584,-0.39,-0.175
23:16:58.588,-0.38,-0.15
23:16:58.592,-0.38,-0.185
23:16:58.596,-0.36,-0.2
23:16:58.600,-0.35,-0.18
23:16:58.604,-0.32,-0.2
23:16:58.608,-0.25,-0.195
23:16:58.612,-0.17,-0.175
23:16:58.616,-0.085,-0.2
23:16:58.620,0.005,-0.215
23:16:58.624,0.08,-0.265
23:16:58.628,0.125,-0.29
23:16:58.632,0.145,-0.27
23:16:58.636,0.16,-0.285
23:16:58.640,0.12,-0.31
23:16:58.644,0.06,-0.38
23:16:58.648,0.14,-0.54
23:16:58.652,0.37,-0.74
23:16:58.656,0.715,-1.02
23:16:58.660,1.05,-1.265
23:16:58.664,1.2,-1.42
23:16:58.668,1.045,-1.28
23:16:58.672,0.585,-0.88
23:16:58.676,0.14,-0.5
23:16:58.680,-0.15,-0.265
23:16:58.684,-0.29,-0.14
23:16:58.688,-0.34,-0.08
23:16:58.692,-0.385,-0.06
23:16:58.696,-0.42,-0.055
23:16:58.700,-0.47,-0.065
23:16:58.704,-0.495,-0.06
23:16:58.708,-0.51,-0.11
23:16:58.712,-0.505,-0.14
23:16:58.716,-0.49,-0.165
23:16:58.720,-0.5,-0.165
23:16:58.724,-0.505,-0.15
23:16:58.728,-0.52,-0.16
23:16:58.732,-0.535,-0.16
23:16:58.736,-0.52,-0.165
23:16:58.740,-0.52,-0.17
23:16:58.744,-0.53,-0.18
23:16:58.748,-0.545,-0.165
23:16:58.752,-0.535,-0.19
23:16:58.756,-0.535,-0.205
23:16:58.760,-0.545,-0.19
23:16:58.764,-0.55,-0.21
23:16:58.768,-0.575,-0.195
23:16:58.772,-0.58,-0.2
23:16:58.776,-0.58,-0.215
23:16:58.780,-0.565,-0.225
23:16:58.784,-0.57,-0.215
23:16:58.788,-0.56,-0.23
23:16:58.792,-0.585,-0.225
23:16:58.796,-0.58,-0.24
23:16:58.800,-0.58,-0.24
23:16:58.804,-0.595,-0.24
23:16:58.808,-0.595,-0.25
23:16:58.812,-0.6,-0.23
23:16:58.816,-0.62,-0.25
23:16:58.820,-0.6,-0.23
23:16:58.824,-0.565,-0.24
23:16:58.828,-0.56,-0.24
23:16:58.832,-0.55,-0.22
23:16:58.836,-0.55,-0.24
23:16:58.840,-0.535,-0.245
23:16:58.844,-0.525,-0.26
23:16:58.848,-0.515,-0.255
23:16:58.852,-0.5,-0.265
23:16:58.856,-0.51,-0.265
23:16:58.860,-0.495,-0.275
23:16:58.864,-0.495,-0.29
23:16:58.868,-0.48,-0.265
23:16:58.872,-0.47,-0.265
23:16:58.876,-0.475,-0.27
23:16:58.880,-0.445,-0.3
23:16:58.884,-0.465,-0.29
23:16:58.888,-0.455,-0.285
23:16:58.892,-0.44,-0.34
23:16:58.896,-0.435,-0.32
23:16:58.900,-0.43,-0.33
23:16:58.904,-0.405,-0.3
23:16:58.908,-0.385,-0.33
23:16:58.912,-0.36,-0.315
23:16:58.916,-0.345,-0.32
23:16:58.920,-0.345,-0.32
23:16:58.924,-0.33,-0.32
23:16:58.928,-0.32,-0.32
23:16:58.932,-0.31,-0.33
23:16:58.936,-0.305,-0.31
23:16:58.940,-0.32,-0.335
23:16:58.944,-0.305,-0.315
23:16:58.948,-0.295,-0.32
23:16:58.952,-0.275,-0.32
23:16:58.956,-0.29,-0.31
23:16:58.960,-0.29,-0.325
23:16:58.964,-0.27,-0.345
23:16:58.968,-0.28,-0.315
23:16:58.972,-0.285,-0.33
23:16:58.976,-0.285,-0.32
23:16:58.980,-0.28,-0.325
23:16:58.984,-0.28,-0.335
23:16:58.988,-0.29,-0.33
23:16:58.992,-0.28,-0.35
23:16:58.996,-0.295,-0.335
23:16:59.000,-0.285,-0.34
23:16:59.004,-0.29,-0.35
23:16:59.008,-0.305,-0.37
23:16:59.012,-0.305,-0.35
23:16:59.016,-0.3,-0.37
23:16:59.020,-0.315,-0.35
23:16:59.024,-0.29,-0.355
23:16:59.028,-0.28,-0.37
23:16:59.032,-0.255,-0.38
23:16:59.036,-0.255,-0.36
23:16:59.040,-0.23,-0.36
23:16:59.044,-0.22,-0.355
23:16:59.048,-0.17,-0.355
23:16:59.052,-0.145,-0.34
23:16:59.056,-0.065,-0.31
23:16:59.060,-0.05,-0.31
23:16:59.064,-0.01,-0.31
23:16:59.068,0.015,-0.305
23:16:59.072,0.04,-0.32
23:16:59.076,0.04,-0.3
23:16:59.080,0.045,-0.32
23:16:59.084,0.02,-0.34
23:16:59.088,-0.015,-0.375
23:16:59.092,-0.08,-0.41
23:16:59.096,-0.14,-0.4
23:16:59.100,-0.195,-0.435
23:16:59.104,-0.27,-0.42
23:16:59.108,-0.34,-0.41
23:16:59.112,-0.36,-0.4
23:16:59.116,-0.42,-0.42
23:16:59.120,-0.43,-0.415
23:16:59.124,-0.405,-0.435
23:16:59.128,-0.405,-0.42
23:16:59.132,-0.405,-0.44
23:16:59.136,-0.42,-0.425
23:16:59.140,-0.405,-0.445
23:16:59.144,-0.395,-0.455
23:16:59.148,-0.39,-0.435
23:16:59.152,-0.37,-0.455
23:16:59.156,-0.385,-0.47
23:16:59.160,-0.38,-0.465
23:16:59.164,-0.365,-0.455
23:16:59.168,-0.375,-0.45
23:16:59.172,-0.37,-0.45
23:16:59.176,-0.365,-0.45
23:16:59.180,-0.37,-0.44
23:16:59.184,-0.38,-0.445
23:16:59.188,-0.37,-0.465
23:16:59.192,-0.39,-0.44
23:16:59.196,-0.39,-0.46
23:16:59.200,-0.39,-0.45
23:16:59.204,-0.41,-0.46
23:16:59.208,-0.39,-0.465
23:16:59.212,-0.39,-0.45
23:16:59.216,-0.37,-0.45
23:16:59.220,-0.35,-0.46
23:16:59.224,-0.34,-0.465
23:16:59.228,-0.285,-0.46
23:16:59.232,-0.22,-0.47
23:16:59.236,-0.16,-0.47
23:16:59.240,-0.03,-0.49
23:16:59.244,0.06,-0.5
23:16:59.248,0.115,-0.55
23:16:59.252,0.15,-0.53
23:16:59.256,0.19,-0.5
23:16:59.260,0.155,-0.53
23:16:59.264,0.13,-0.58
23:16:59.268,0.175,-0.685
23:16:59.272,0.415,-0.86
23:16:59.276,0.755,-1.13
23:16:59.280,1.08,-1.35
23:16:59.284,1.19,-1.49
23:16:59.288,1.01,-1.38
23:16:59.292,0.55,-1.03
23:16:59.296,0.05,-0.665
23:16:59.300,-0.22,-0.465
23:16:59.304,-0.355,-0.36
23:16:59.308,-0.39,-0.235
23:16:59.312,-0.425,-0.2
23:16:59.316,-0.49,-0.19
23:16:59.320,-0.525,-0.19
23:16:59.324,-0.55,-0.185
23:16:59.328,-0.57,-0.205
23:16:59.332,-0.565,-0.22
23:16:59.336,-0.585,-0.25
23:16:59.340,-0.585,-0.24
23:16:59.344,-0.61,-0.255
23:16:59.348,-0.58,-0.235
23:16:59.352,-0.59,-0.235
23:16:59.356,-0.58,-0.23
23:16:59.360,-0.605,-0.225
23:16:59.364,-0.62,-0.21
23:16:59.368,-0.61,-0.215
23:16:59.372,-0.605,-0.22
23:16:59.376,-0.61,-0.2
23:16:59.380,-0.58,-0.2
23:16:59.384,-0.6,-0.205
23:16:59.388,-0.62,-0.19
23:16:59.392,-0.615,-0.17
23:16:59.396,-0.605,-0.195
23:16:59.400,-0.6,-0.19
23:16:59.404,-0.625,-0.19
23:16:59.408,-0.62,-0.16
23:16:59.412,-0.62,-0.165
23:16:59.416,-0.66,-0.15
23:16:59.420,-0.65,-0.155
23:16:59.424,-0.66,-0.16
23:16:59.428,-0.67,-0.18
23:16:59.432,-0.675,-0.15
23:16:59.436,-0.685,-0.17
23:16:59.440,-0.69,-0.17
23:16:59.444,-0.68,-0.17
23:16:59.448,-0.655,-0.16
23:16:59.452,-0.655,-0.16
23:16:59.456,-0.645,-0.14
23:16:59.460,-0.65,-0.14
23:16:59.464,-0.63,-0.145
23:16:59.468,-0.625,-0.14
23:16:59.472,-0.65,-0.145
23:16:59.476,-0.615,-0.16
23:16:59.480,-0.585,-0.14
23:16:59.484,-0.57,-0.16
23:16:59.488,-0.55,-0.145
23:16:59.492,-0.52,-0.16
23:16:59.496,-0.525,-0.17
23:16:59.500,-0.525,-0.175
23:16:59.504,-0.51,-0.16
23:16:59.508,-0.525,-0.17
23:16:59.512,-0.495,-0.175
23:16:59.516,-0.475,-0.15
23:16:59.520,-0.45,-0.16
23:16:59.524,-0.45,-0.17
23:16:59.528,-0.435,-0.165
23:16:59.532,-0.425,-0.185
23:16:59.536,-0.42,-0.175
23:16:59.540,-0.415,-0.17
23:16:59.544,-0.425,-0.165
23:16:59.548,-0.4,-0.185
23:16:59.552,-0.395,-0.17
23:16:59.556,-0.365,-0.185
23:16:59.560,-0.37,-0.17
23:16:59.564,-0.37,-0.155
23:16:59.568,-0.38,-0.17
23:16:59.572,-0.375,-0.145
23:16:59.576,-0.36,-0.145
23:16:59.580,-0.34,-0.15
23:16:59.584,-0.34,-0.125
23:16:59.588,-0.35,-0.14
23:16:59.592,-0.345,-0.135
23:16:59.596,-0.335,-0.125
23:16:59.600,-0.34,-0.12
23:16:59.604,-0.32,-0.11
23:16:59.608,-0.305,-0.13
23:16:59.612,-0.33,-0.09
23:16:59.616,-0.315,-0.115
23:16:59.620,-0.315,-0.08
23:16:59.624,-0.32,-0.07
23:16:59.628,-0.32,-0.1
23:16:59.632,-0.32,-0.1
23:16:59.636,-0.34,-0.08
23:16:59.640,-0.315,-0.08
23:16:59.644,-0.32,-0.09
23:16:59.648,-0.31,-0.08
23:16:59.652,-0.305,-0.065
23:16:59.656,-0.305,-0.08
23:16:59.660,-0.28,-0.065
23:16:59.664,-0.26,-0.075
23:16:59.668,-0.255,-0.085
23:16:59.672,-0.25,-0.065
23:16:59.676,-0.185,-0.08
23:16:59.680,-0.15,-0.08
23:16:59.684,-0.1,-0.035
23:16:59.688,-0.08,-0.035
23:16:59.692,-0.025,-0.03
23:16:59.696,-0.01,-0.01
23:16:59.700,0.01,-0.005
23:16:59.704,0.02,-0.015
23:16:59.708,0.05,-0.035
23:16:59.712,0.025,-0.05
23:16:59.716,-0.01,-0.065
23:16:59.720,-0.06,-0.095
23:16:59.724,-0.1,-0.08
23:16:59.728,-0.16,-0.08
23:16:59.732,-0.225,-0.085
23:16:59.736,-0.265,-0.07
23:16:59.740,-0.335,-0.035
23:16:59.744,-0.38,-0.05
23:16:59.748,-0.385,-0.04
23:16:59.752,-0.41,-0.05
23:16:59.756,-0.42,-0.05
23:16:59.760,-0.415,-0.065
23:16:59.764,-0.415,-0.09
23:16:59.768,-0.39,-0.08
23:16:59.772,-0.39,-0.08
23:16:59.776,-0.405,-0.1
23:16:59.780,-0.4,-0.1
23:16:59.784,-0.395,-0.095
23:16:59.788,-0.38,-0.1
23:16:59.792,-0.385,-0.09
23:16:59.796,-0.37,-0.095
23:16:59.800,-0.375,-0.105
23:16:59.804,-0.39,-0.095
23:16:59.808,-0.395,-0.09
23:16:59.812,-0.38,-0.1
23:16:59.816,-0.385,-0.115
23:16:59.820,-0.355,-0.085
23:16:59.824,-0.35,-0.095
23:16:59.828,-0.335,-0.08
23:16:59.832,-0.355,-0.085
23:16:59.836,-0.335,-0.095
23:16:59.840,-0.33,-0.1
23:16:59.844,-0.35,-0.095
23:16:59.848,-0.315,-0.095
23:16:59.852,-0.285,-0.125
23:16:59.856,-0.245,-0.12
23:16:59.860,-0.14,-0.12
23:16:59.864,-0.06,-0.135
23:16:59.868,0.015,-0.16
23:16:59.872,0.04,-0.205
23:16:59.876,0.075,-0.245
23:16:59.880,0.09,-0.23
23:16:59.884,0.095,-0.265
23:16:59.888,0.025,-0.315
23:16:59.892,0.035,-0.415
23:16:59.896,0.19,-0.56
23:16:59.900,0.52,-0.83
23:16:59.904,0.87,-1.11
23:16:59.908,1.13,-1.325
23:16:59.912,1.2,-1.345
23:16:59.916,0.945,-1.09
23:16:59.920,0.43,-0.665
23:16:59.924,0.0,-0.315
23:16:59.928,-0.22,-0.125
23:16:59.932,-0.335,-0.02
23:16:59.936,-0.4,0.03
23:16:59.940,-0.43,0.05
23:16:59.944,-0.445,0.08
23:16:59.948,-0.47,0.05
23:16:59.952,-0.51,0.05
23:16:59.956,-0.515,0.035
23:16:59.960,-0.525,0.02
23:16:59.964,-0.54,-0.01
23:16:59.968,-0.535,-0.01
23:16:59.972,-0.54,-0.035
23:16:59.976,-0.54,-0.02
23:16:59.980,-0.545,-0.03
23:16:59.984,-0.595,-0.04
23:16:59.988,-0.575,-0.04
23:16:59.992,-0.575,-0.02
23:16:59.996,-0.58,-0.03
23:17:00.000,-0.57,-0.045
23:17:00.004,-0.58,-0.04
23:17:00.008,-0.585,-0.05
23:17:00.012,-0.59,-0.035
23:17:00.016,-0.59,-0.045
23:17:00.020,-0.61,-0.035
23:17:00.024,-0.6,-0.045
23:17:00.028,-0.615,-0.045
23:17:00.032,-0.61,-0.045
23:17:00.036,-0.635,-0.055
23:17:00.040,-0.635,-0.035
23:17:00.044,-0.61,-0.055
23:17:00.048,-0.615,-0.04
23:17:00.052,-0.625,-0.06
23:17:00.056,-0.63,-0.06
23:17:00.060,-0.615,-0.04
23:17:00.064,-0.62,-0.04
23:17:00.068,-0.64,-0.05
23:17:00.072,-0.63,-0.03
23:17:00.076,-0.605,-0.05
23:17:00.080,-0.625,-0.045
23:17:00.084,-0.615,-0.04
23:17:00.088,-0.63,-0.045
23:17:00.092,-0.605,-0.055
23:17:00.096,-0.615,-0.05
23:17:00.100,-0.6,-0.055
23:17:00.104,-0.59,-0.06
23:17:00.108,-0.59,-0.085
23:17:00.112,-0.565,-0.08
23:17:00.116,-0.58,-0.075
23:17:00.120,-0.55,-0.07
23:17:00.124,-0.54,-0.095
23:17:00.128,-0.545,-0.095
23:17:00.132,-0.53,-0.105
23:17:00.136,-0.525,-0.085
23:17:00.140,-0.52,-0.11
23:17:00.144,-0.51,-0.1
23:17:00.148,-0.49,-0.115
23:17:00.152,-0.465,-0.11
23:17:00.156,-0.445,-0.11
23:17:00.160,-0.42,-0.11
23:17:00.164,-0.42,-0.115
23:17:00.168,-0.405,-0.13
23:17:00.172,-0.395,-0.11
23:17:00.176,-0.4,-0.1
23:17:00.180,-0.385,-0.13
23:17:00.184,-0.375,-0.11
23:17:00.188,-0.375,-0.12
23:17:00.192,-0.36,-0.11
23:17:00.196,-0.355,-0.115
23:17:00.200,-0.365,-0.11
23:17:00.204,-0.345,-0.11
