Time,ECG1,ECG2
17:53:30.064,-0.33,-0.055
17:53:30.068,-0.35,-0.055
17:53:30.072,-0.34,-0.06
17:53:30.076,-0.35,-0.06
17:53:30.080,-0.355,-0.055
17:53:30.084,-0.335,-0.06
17:53:30.088,-0.345,-0.055
17:53:30.092,-0.345,-0.08
17:53:30.096,-0.35,-0.065
17:53:30.100,-0.325,-0.075
17:53:30.104,-0.31,-0.07
17:53:30.108,-0.32,-0.065
17:53:30.112,-0.31,-0.06
17:53:30.116,-0.31,-0.06
17:53:30.120,-0.315,-0.09
17:53:30.124,-0.33,-0.07
17:53:30.128,-0.32,-0.075
17:53:30.132,-0.31,-0.08
17:53:30.136,-0.3,-0.09
17:53:30.140,-0.31,-0.085
17:53:30.144,-0.29,-0.06
17:53:30.148,-0.295,-0.09
17:53:30.152,-0.285,-0.085
17:53:30.156,-0.26,-0.075
17:53:30.160,-0.28,-0.075
17:53:30.164,-0.28,-0.055
17:53:30.168,-0.28,-0.04
17:53:30.172,-0.28,-0.03
17:53:30.176,-0.26,-0.04
17:53:30.180,-0.24,-0.03
17:53:30.184,-0.245,-0.05
17:53:30.188,-0.21,-0.04
17:53:30.192,-0.2,-0.01
17:53:30.196,-0.155,-0.035
17:53:30.200,-0.12,-0.04
17:53:30.204,-0.095,0.005
17:53:30.208,-0.06,-0.02
17:53:30.212,-0.015,0.0
17:53:30.216,0.02,0.01
17:53:30.220,0.025,0.01
17:53:30.224,0.06,0.0
17:53:30.228,0.095,-0.015
17:53:30.232,0.13,-0.06
17:53:30.236,0.135,-0.065
17:53:30.240,0.13,-0.105
17:53:30.244,0.16,-0.115
17:53:30.248,0.125,-0.12
17:53:30.252,0.085,-0.15
17:53:30.256,0.035,-0.145
17:53:30.260,-0.01,-0.12
17:53:30.264,-0.05,-0.115
17:53:30.268,-0.105,-0.1
17:53:30.272,-0.155,-0.055
17:53:30.276,-0.185,-0.02
17:53:30.280,-0.235,-0.005
17:53:30.284,-0.24,0.0
17:53:30.288,-0.25,0.0
17:53:30.292,-0.265,0.0
17:53:30.296,-0.28,-0.02
17:53:30.300,-0.295,-0.01
17:53:30.304,-0.295,-0.045
17:53:30.308,-0.275,-0.035
17:53:30.312,-0.275,-0.03
17:53:30.316,-0.265,-0.035
17:53:30.320,-0.265,-0.025
17:53:30.324,-0.245,-0.05
17:53:30.328,-0.235,-0.045
17:53:30.332,-0.245,-0.035
17:53:30.336,-0.225,-0.045
17:53:30.340,-0.205,-0.035
17:53:30.344,-0.18,-0.04
17:53:30.348,-0.175,-0.015
17:53:30.352,-0.11,-0.04
17:53:30.356,0.0,-0.055
17:53:30.360,0.1,-0.08
17:53:30.364,0.18,-0.15
17:53:30.368,0.245,-0.235
17:53:30.372,0.295,-0.305
17:53:30.376,0.345,-0.435
17:53:30.380,0.33,-0.6
17:53:30.384,0.3,-0.82
17:53:30.388,0.32,-1.09
17:53:30.392,0.475,-1.41
17:53:30.396,0.755,-1.745
17:53:30.400,1.125,-2.115
17:53:30.404,1.32,-2.315
17:53:30.408,1.225,-2.295
17:53:30.412,0.795,-1.935
17:53:30.416,0.25,-1.34
17:53:30.420,-0.145,-0.85
17:53:30.424,-0.33,-0.565
17:53:30.428,-0.38,-0.375
17:53:30.432,-0.415,-0.23
17:53:30.436,-0.4,-0.085
17:53:30.440,-0.42,0.005
17:53:30.444,-0.435,0.09
17:53:30.448,-0.48,0.145
17:53:30.452,-0.475,0.17
17:53:30.456,-0.465,0.15
17:53:30.460,-0.475,0.18
17:53:30.464,-0.445,0.16
17:53:30.468,-0.425,0.185
17:53:30.472,-0.355,0.18
17:53:30.476,-0.31,0.195
17:53:30.480,-0.265,0.18
17:53:30.484,-0.225,0.155
17:53:30.488,-0.185,0.14
17:53:30.492,-0.155,0.17
17:53:30.496,-0.125,0.135
17:53:30.500,-0.09,0.12
17:53:30.504,-0.09,0.13
17:53:30.508,-0.085,0.135
17:53:30.512,-0.13,0.12
17:53:30.516,-0.175,0.175
17:53:30.520,-0.195,0.165
17:53:30.524,-0.245,0.215
17:53:30.528,-0.295,0.21
17:53:30.532,-0.33,0.22
17:53:30.536,-0.34,0.255
17:53:30.540,-0.38,0.28
17:53:30.544,-0.415,0.295
17:53:30.548,-0.43,0.3
17:53:30.552,-0.455,0.275
17:53:30.556,-0.495,0.27
17:53:30.560,-0.505,0.265
17:53:30.564,-0.515,0.305
17:53:30.568,-0.505,0.285
17:53:30.572,-0.49,0.28
17:53:30.576,-0.485,0.28
17:53:30.580,-0.455,0.28
17:53:30.584,-0.46,0.25
17:53:30.588,-0.42,0.27
17:53:30.592,-0.43,0.245
17:53:30.596,-0.425,0.24
17:53:30.600,-0.42,0.225
17:53:30.604,-0.4,0.225
17:53:30.608,-0.385,0.24
17:53:30.612,-0.385,0.225
17:53:30.616,-0.38,0.2
17:53:30.620,-0.385,0.195
17:53:30.624,-0.36,0.17
17:53:30.628,-0.365,0.145
17:53:30.632,-0.34,0.135
17:53:30.636,-0.315,0.105
17:53:30.640,-0.29,0.08
17:53:30.644,-0.31,0.07
17:53:30.648,-0.295,0.035
17:53:30.652,-0.28,0.035
17:53:30.656,-0.285,0.015
17:53:30.660,-0.265,0.0
17:53:30.664,-0.25,0.0
17:53:30.668,-0.22,-0.02
17:53:30.672,-0.225,-0.02
17:53:30.676,-0.22,-0.035
17:53:30.680,-0.195,-0.05
17:53:30.684,-0.205,-0.055
17:53:30.688,-0.21,-0.06
17:53:30.692,-0.18,-0.075
17:53:30.696,-0.19,-0.065
17:53:30.700,-0.18,-0.08
17:53:30.704,-0.18,-0.06
17:53:30.708,-0.165,-0.075
17:53:30.712,-0.18,-0.07
17:53:30.716,-0.165,-0.08
17:53:30.720,-0.15,-0.065
17:53:30.724,-0.15,-0.075
17:53:30.728,-0.16,-0.065
17:53:30.732,-0.16,-0.065
17:53:30.736,-0.17,-0.045
17:53:30.740,-0.17,-0.055
17:53:30.744,-0.175,-0.05
17:53:30.748,-0.165,-0.05
17:53:30.752,-0.17,-0.055
17:53:30.756,-0.15,-0.045
17:53:30.760,-0.185,-0.06
17:53:30.764,-0.18,-0.045
17:53:30.768,-0.19,-0.055
17:53:30.772,-0.18,-0.05
17:53:30.776,-0.2,-0.05
17:53:30.780,-0.24,-0.06
17:53:30.784,-0.23,-0.075
17:53:30.788,-0.24,-0.065
17:53:30.792,-0.23,-0.05
17:53:30.796,-0.21,-0.08
17:53:30.800,-0.21,-0.06
17:53:30.804,-0.19,-0.09
17:53:30.808,-0.215,-0.09
17:53:30.812,-0.235,-0.07
17:53:30.816,-0.215,-0.1
17:53:30.820,-0.225,-0.1
17:53:30.824,-0.25,-0.12
17:53:30.828,-0.24,-0.09
17:53:30.832,-0.21,-0.09
17:53:30.836,-0.22,-0.09
17:53:30.840,-0.21,-0.115
17:53:30.844,-0.2,-0.115
17:53:30.848,-0.2,-0.09
17:53:30.852,-0.19,-0.115
17:53:30.856,-0.165,-0.105
17:53:30.860,-0.16,-0.115
17:53:30.864,-0.185,-0.1
17:53:30.868,-0.19,-0.105
17:53:30.872,-0.19,-0.115
17:53:30.876,-0.17,-0.105
17:53:30.880,-0.2,-0.095
17:53:30.884,-0.21,-0.115
17:53:30.888,-0.185,-0.085
17:53:30.892,-0.185,-0.105
17:53:30.896,-0.19,-0.12
17:53:30.900,-0.18,-0.12
17:53:30.904,-0.17,-0.12
17:53:30.908,-0.195,-0.13
17:53:30.912,-0.205,-0.13
17:53:30.916,-0.225,-0.14
17:53:30.920,-0.225,-0.13
17:53:30.924,-0.215,-0.12
17:53:30.928,-0.195,-0.13
17:53:30.932,-0.215,-0.145
17:53:30.936,-0.225,-0.135
17:53:30.940,-0.23,-0.125
17:53:30.944,-0.215,-0.145
17:53:30.948,-0.205,-0.105
17:53:30.952,-0.2,-0.115
17:53:30.956,-0.2,-0.135
17:53:30.960,-0.195,-0.14
17:53:30.964,-0.2,-0.14
17:53:30.968,-0.21,-0.14
17:53:30.972,-0.215,-0.105
17:53:30.976,-0.21,-0.115
17:53:30.980,-0.195,-0.12
17:53:30.984,-0.195,-0.1
17:53:30.988,-0.195,-0.12
17:53:30.992,-0.195,-0.145
17:53:30.996,-0.165,-0.105
17:53:31.000,-0.195,-0.09
17:53:31.004,-0.195,-0.105
17:53:31.008,-0.185,-0.115
17:53:31.012,-0.165,-0.095
17:53:31.016,-0.185,-0.105
17:53:31.020,-0.19,-0.09
17:53:31.024,-0.21,-0.115
17:53:31.028,-0.19,-0.105
17:53:31.032,-0.195,-0.13
17:53:31.036,-0.195,-0.125
17:53:31.040,-0.19,-0.125
17:53:31.044,-0.195,-0.12
17:53:31.048,-0.205,-0.12
17:53:31.052,-0.2,-0.115
17:53:31.056,-0.19,-0.12
17:53:31.060,-0.18,-0.125
17:53:31.064,-0.195,-0.125
17:53:31.068,-0.22,-0.14
17:53:31.072,-0.2,-0.125
17:53:31.076,-0.18,-0.145
17:53:31.080,-0.17,-0.125
17:53:31.084,-0.18,-0.12
17:53:31.088,-0.19,-0.105
17:53:31.092,-0.18,-0.115
17:53:31.096,-0.2,-0.13
17:53:31.100,-0.2,-0.125
17:53:31.104,-0.2,-0.15
17:53:31.108,-0.18,-0.13
17:53:31.112,-0.17,-0.1
17:53:31.116,-0.165,-0.11
17:53:31.120,-0.15,-0.12
17:53:31.124,-0.15,-0.095
17:53:31.128,-0.16,-0.095
17:53:31.132,-0.155,-0.1
17:53:31.136,-0.145,-0.085
17:53:31.140,-0.15,-0.11
17:53:31.144,-0.145,-0.09
17:53:31.148,-0.165,-0.125
17:53:31.152,-0.18,-0.1
17:53:31.156,-0.175,-0.1
17:53:31.160,-0.16,-0.105
17:53:31.164,-0.175,-0.105
17:53:31.168,-0.165,-0.1
17:53:31.172,-0.16,-0.115
17:53:31.176,-0.16,-0.095
17:53:31.180,-0.19,-0.09
17:53:31.184,-0.19,-0.085
17:53:31.188,-0.185,-0.125
17:53:31.192,-0.195,-0.12
17:53:31.196,-0.165,-0.135
17:53:31.200,-0.18,-0.145
17:53:31.204,-0.155,-0.105
17:53:31.208,-0.185,-0.12
17:53:31.212,-0.185,-0.12
17:53:31.216,-0.16,-0.12
17:53:31.220,-0.155,-0.14
17:53:31.224,-0.175,-0.145
17:53:31.228,-0.18,-0.135
17:53:31.232,-0.155,-0.115
17:53:31.236,-0.14,-0.11
17:53:31.240,-0.135,-0.15
17:53:31.244,-0.135,-0.14
17:53:31.248,-0.13,-0.14
17:53:31.252,-0.16,-0.14
17:53:31.256,-0.16,-0.125
17:53:31.260,-0.18,-0.125
17:53:31.264,-0.17,-0.12
17:53:31.268,-0.155,-0.11
17:53:31.272,-0.165,-0.115
17:53:31.276,-0.15,-0.085
17:53:31.280,-0.15,-0.085
17:53:31.284,-0.14,-0.115
17:53:31.288,-0.125,-0.105
17:53:31.292,-0.135,-0.11
17:53:31.296,-0.17,-0.11
17:53:31.300,-0.175,-0.095
17:53:31.304,-0.16,-0.09
17:53:31.308,-0.135,-0.1
17:53:31.312,-0.14,-0.09
17:53:31.316,-0.15,-0.09
17:53:31.320,-0.145,-0.09
17:53:31.324,-0.16,-0.09
17:53:31.328,-0.15,-0.085
17:53:31.332,-0.15,-0.09
17:53:31.336,-0.145,-0.09
17:53:31.340,-0.125,-0.085
17:53:31.344,-0.135,-0.07
17:53:31.348,-0.12,-0.08
17:53:31.352,-0.13,-0.06
17:53:31.356,-0.14,-0.07
17:53:31.360,-0.13,-0.06
17:53:31.364,-0.135,-0.045
17:53:31.368,-0.1,-0.055
17:53:31.372,-0.07,-0.03
17:53:31.376,-0.065,-0.02
17:53:31.380,-0.06,-0.04
17:53:31.384,-0.05,-0.055
17:53:31.388,-0.04,-0.06
17:53:31.392,-0.065,-0.05
17:53:31.396,-0.05,-0.08
17:53:31.400,-0.03,-0.135
17:53:31.404,-0.035,-0.16
17:53:31.408,-0.035,-0.195
17:53:31.412,-0.035,-0.175
17:53:31.416,-0.07,-0.16
17:53:31.420,-0.09,-0.155
17:53:31.424,-0.13,-0.13
17:53:31.428,-0.175,-0.08
17:53:31.432,-0.18,-0.075
17:53:31.436,-0.19,-0.035
17:53:31.440,-0.195,-0.04
17:53:31.444,-0.21,-0.04
17:53:31.448,-0.18,-0.04
17:53:31.452,-0.18,-0.07
17:53:31.456,-0.2,-0.08
17:53:31.460,-0.175,-0.09
17:53:31.464,-0.18,-0.115
17:53:31.468,-0.17,-0.11
17:53:31.472,-0.175,-0.115
17:53:31.476,-0.165,-0.125
17:53:31.480,-0.17,-0.11
17:53:31.484,-0.185,-0.125
17:53:31.488,-0.17,-0.12
17:53:31.492,-0.195,-0.12
17:53:31.496,-0.205,-0.125
17:53:31.500,-0.185,-0.13
17:53:31.504,-0.185,-0.105
17:53:31.508,-0.175,-0.115
17:53:31.512,-0.15,-0.11
17:53:31.516,-0.15,-0.1
17:53:31.520,-0.13,-0.125
17:53:31.524,-0.07,-0.125
17:53:31.528,0.035,-0.095
17:53:31.532,0.155,-0.14
17:53:31.536,0.27,-0.185
17:53:31.540,0.33,-0.245
17:53:31.544,0.36,-0.305
17:53:31.548,0.355,-0.385
17:53:31.552,0.32,-0.54
17:53:31.556,0.27,-0.72
17:53:31.560,0.25,-0.91
17:53:31.564,0.285,-1.135
17:53:31.568,0.505,-1.42
17:53:31.572,0.79,-1.75
17:53:31.576,1.125,-2.0
17:53:31.580,1.35,-2.16
17:53:31.584,1.465,-2.135
17:53:31.588,1.37,-1.85
17:53:31.592,0.97,-1.385
17:53:31.596,0.355,-0.895
17:53:31.600,-0.07,-0.6
17:53:31.604,-0.21,-0.4
17:53:31.608,-0.28,-0.255
17:53:31.612,-0.33,-0.115
17:53:31.616,-0.37,-0.01
17:53:31.620,-0.375,0.05
17:53:31.624,-0.36,0.075
17:53:31.628,-0.38,0.1
17:53:31.632,-0.405,0.11
17:53:31.636,-0.43,0.125
17:53:31.640,-0.425,0.145
17:53:31.644,-0.415,0.125
17:53:31.648,-0.395,0.15
17:53:31.652,-0.395,0.16
17:53:31.656,-0.405,0.13
17:53:31.660,-0.405,0.145
17:53:31.664,-0.415,0.155
17:53:31.668,-0.415,0.165
17:53:31.672,-0.4,0.17
17:53:31.676,-0.41,0.15
17:53:31.680,-0.42,0.17
17:53:31.684,-0.43,0.17
17:53:31.688,-0.41,0.165
17:53:31.692,-0.425,0.165
17:53:31.696,-0.42,0.13
17:53:31.700,-0.43,0.16
17:53:31.704,-0.425,0.145
17:53:31.708,-0.46,0.18
17:53:31.712,-0.45,0.17
17:53:31.716,-0.45,0.175
17:53:31.720,-0.445,0.18
17:53:31.724,-0.44,0.175
17:53:31.728,-0.445,0.15
17:53:31.732,-0.435,0.18
17:53:31.736,-0.445,0.175
17:53:31.740,-0.43,0.185
17:53:31.744,-0.42,0.19
17:53:31.748,-0.41,0.175
17:53:31.752,-0.4,0.18
17:53:31.756,-0.405,0.225
17:53:31.760,-0.425,0.19
17:53:31.764,-0.415,0.21
17:53:31.768,-0.4,0.185
17:53:31.772,-0.37,0.2
17:53:31.776,-0.365,0.215
17:53:31.780,-0.365,0.2
17:53:31.784,-0.35,0.19
17:53:31.788,-0.345,0.185
17:53:31.792,-0.325,0.205
17:53:31.796,-0.34,0.205
17:53:31.800,-0.315,0.185
17:53:31.804,-0.305,0.16
17:53:31.808,-0.315,0.18
17:53:31.812,-0.29,0.155
17:53:31.816,-0.305,0.135
17:53:31.820,-0.315,0.105
17:53:31.824,-0.29,0.105
17:53:31.828,-0.29,0.11
17:53:31.832,-0.265,0.075
17:53:31.836,-0.275,0.06
17:53:31.840,-0.25,0.035
17:53:31.844,-0.245,0.005
17:53:31.848,-0.235,0.015
17:53:31.852,-0.235,-0.015
17:53:31.856,-0.23,-0.035
17:53:31.860,-0.195,-0.03
17:53:31.864,-0.225,-0.035
17:53:31.868,-0.2,-0.06
17:53:31.872,-0.195,-0.055
17:53:31.876,-0.185,-0.065
17:53:31.880,-0.17,-0.055
17:53:31.884,-0.16,-0.05
17:53:31.888,-0.165,-0.06
17:53:31.892,-0.18,-0.075
17:53:31.896,-0.18,-0.07
17:53:31.900,-0.15,-0.075
17:53:31.904,-0.15,-0.075
17:53:31.908,-0.125,-0.065
17:53:31.912,-0.145,-0.06
17:53:31.916,-0.145,-0.08
17:53:31.920,-0.135,-0.06
17:53:31.924,-0.155,-0.055
17:53:31.928,-0.14,-0.07
17:53:31.932,-0.13,-0.05
17:53:31.936,-0.13,-0.04
17:53:31.940,-0.135,-0.055
17:53:31.944,-0.14,-0.055
17:53:31.948,-0.15,-0.06
17:53:31.952,-0.16,-0.055
17:53:31.956,-0.175,-0.065
17:53:31.960,-0.17,-0.045
17:53:31.964,-0.17,-0.045
17:53:31.968,-0.17,-0.04
17:53:31.972,-0.165,-0.065
17:53:31.976,-0.165,-0.085
17:53:31.980,-0.17,-0.055
17:53:31.984,-0.19,-0.075
17:53:31.988,-0.19,-0.085
17:53:31.992,-0.185,-0.08
17:53:31.996,-0.165,-0.08
17:53:32.000,-0.165,-0.085
17:53:32.004,-0.175,-0.075
17:53:32.008,-0.175,-0.065
17:53:32.012,-0.185,-0.075
17:53:32.016,-0.185,-0.065
17:53:32.020,-0.17,-0.07
17:53:32.024,-0.16,-0.055
17:53:32.028,-0.145,-0.075
17:53:32.032,-0.15,-0.05
17:53:32.036,-0.135,-0.07
17:53:32.040,-0.095,-0.085
17:53:32.044,-0.105,-0.06
17:53:32.048,-0.055,-0.05
17:53:32.052,-0.04,-0.03
17:53:32.056,-0.035,-0.04
17:53:32.060,-0.03,-0.05
17:53:32.064,-0.045,-0.05
17:53:32.068,-0.03,-0.08
17:53:32.072,-0.04,-0.08
17:53:32.076,-0.035,-0.12
17:53:32.080,-0.02,-0.16
17:53:32.084,-0.035,-0.2
17:53:32.088,-0.065,-0.21
17:53:32.092,-0.11,-0.205
17:53:32.096,-0.135,-0.215
17:53:32.100,-0.175,-0.2
17:53:32.104,-0.225,-0.15
17:53:32.108,-0.235,-0.125
17:53:32.112,-0.235,-0.1
17:53:32.116,-0.22,-0.07
17:53:32.120,-0.23,-0.08
17:53:32.124,-0.24,-0.08
17:53:32.128,-0.235,-0.095
17:53:32.132,-0.235,-0.09
17:53:32.136,-0.22,-0.105
17:53:32.140,-0.205,-0.105
17:53:32.144,-0.225,-0.12
17:53:32.148,-0.215,-0.105
17:53:32.152,-0.21,-0.115
17:53:32.156,-0.205,-0.1
17:53:32.160,-0.195,-0.125
17:53:32.164,-0.195,-0.105
17:53:32.168,-0.195,-0.1
17:53:32.172,-0.195,-0.095
17:53:32.176,-0.18,-0.1
17:53:32.180,-0.195,-0.105
17:53:32.184,-0.195,-0.12
17:53:32.188,-0.19,-0.115
17:53:32.192,-0.17,-0.075
17:53:32.196,-0.185,-0.08
17:53:32.200,-0.165,-0.1
17:53:32.204,-0.145,-0.11
17:53:32.208,-0.09,-0.12
17:53:32.212,-0.015,-0.13
17:53:32.216,0.055,-0.125
17:53:32.220,0.15,-0.175
17:53:32.224,0.235,-0.2
17:53:32.228,0.31,-0.315
17:53:32.232,0.335,-0.435
17:53:32.236,0.355,-0.53
17:53:32.240,0.375,-0.695
17:53:32.244,0.365,-0.895
17:53:32.248,0.39,-1.175
17:53:32.252,0.585,-1.48
17:53:32.256,0.905,-1.845
17:53:32.260,1.27,-2.11
17:53:32.264,1.43,-2.28
17:53:32.268,1.26,-2.195
17:53:32.272,0.755,-1.805
17:53:32.276,0.195,-1.22
17:53:32.280,-0.155,-0.825
17:53:32.284,-0.31,-0.565
17:53:32.288,-0.34,-0.36
17:53:32.292,-0.355,-0.205
17:53:32.296,-0.355,-0.065
17:53:32.300,-0.375,0.01
17:53:32.304,-0.375,0.065
17:53:32.308,-0.36,0.095
17:53:32.312,-0.36,0.115
17:53:32.316,-0.36,0.11
17:53:32.320,-0.365,0.14
17:53:32.324,-0.355,0.155
17:53:32.328,-0.375,0.15
17:53:32.332,-0.375,0.16
17:53:32.336,-0.38,0.155
17:53:32.340,-0.375,0.155
17:53:32.344,-0.39,0.15
17:53:32.348,-0.38,0.165
17:53:32.352,-0.39,0.18
17:53:32.356,-0.405,0.175
17:53:32.360,-0.38,0.18
17:53:32.364,-0.41,0.17
17:53:32.368,-0.415,0.18
17:53:32.372,-0.435,0.175
17:53:32.376,-0.435,0.195
17:53:32.380,-0.435,0.18
17:53:32.384,-0.435,0.215
17:53:32.388,-0.43,0.2
17:53:32.392,-0.435,0.19
17:53:32.396,-0.45,0.19
17:53:32.400,-0.46,0.205
17:53:32.404,-0.45,0.2
17:53:32.408,-0.45,0.21
17:53:32.412,-0.465,0.215
17:53:32.416,-0.465,0.22
17:53:32.420,-0.445,0.215
17:53:32.424,-0.445,0.23
17:53:32.428,-0.44,0.23
17:53:32.432,-0.435,0.2
17:53:32.436,-0.42,0.225
17:53:32.440,-0.39,0.215
17:53:32.444,-0.4,0.205
17:53:32.448,-0.405,0.215
17:53:32.452,-0.375,0.215
17:53:32.456,-0.36,0.21
17:53:32.460,-0.345,0.195
17:53:32.464,-0.345,0.16
17:53:32.468,-0.34,0.15
17:53:32.472,-0.33,0.14
17:53:32.476,-0.345,0.14
17:53:32.480,-0.32,0.125
17:53:32.484,-0.315,0.095
17:53:32.488,-0.305,0.07
17:53:32.492,-0.27,0.06
17:53:32.496,-0.285,0.045
17:53:32.500,-0.26,0.02
17:53:32.504,-0.26,0.0
17:53:32.508,-0.25,-0.025
17:53:32.512,-0.24,-0.045
17:53:32.516,-0.225,-0.05
17:53:32.520,-0.19,-0.05
17:53:32.524,-0.195,-0.07
17:53:32.528,-0.19,-0.07
17:53:32.532,-0.185,-0.095
17:53:32.536,-0.17,-0.09
17:53:32.540,-0.16,-0.1
17:53:32.544,-0.165,-0.1
17:53:32.548,-0.14,-0.085
17:53:32.552,-0.155,-0.09
17:53:32.556,-0.14,-0.08
17:53:32.560,-0.15,-0.075
17:53:32.564,-0.135,-0.055
17:53:32.568,-0.13,-0.075
17:53:32.572,-0.125,-0.06
17:53:32.576,-0.125,-0.07
17:53:32.580,-0.135,-0.06
17:53:32.584,-0.13,-0.075
17:53:32.588,-0.14,-0.035
17:53:32.592,-0.13,-0.05
17:53:32.596,-0.135,-0.035
17:53:32.600,-0.14,-0.075
17:53:32.604,-0.145,-0.06
17:53:32.608,-0.18,-0.045
17:53:32.612,-0.18,-0.04
17:53:32.616,-0.17,-0.04
17:53:32.620,-0.155,-0.045
17:53:32.624,-0.16,-0.07
17:53:32.628,-0.175,-0.06
17:53:32.632,-0.19,-0.04
17:53:32.636,-0.18,-0.065
17:53:32.640,-0.18,-0.07
17:53:32.644,-0.17,-0.065
17:53:32.648,-0.18,-0.085
17:53:32.652,-0.17,-0.07
17:53:32.656,-0.2,-0.065
17:53:32.660,-0.185,-0.08
17:53:32.664,-0.195,-0.08
17:53:32.668,-0.195,-0.09
17:53:32.672,-0.18,-0.07
17:53:32.676,-0.16,-0.055
17:53:32.680,-0.17,-0.085
17:53:32.684,-0.175,-0.065
17:53:32.688,-0.14,-0.055
17:53:32.692,-0.115,-0.06
17:53:32.696,-0.08,-0.045
17:53:32.700,-0.06,-0.01
17:53:32.704,-0.05,-0.015
17:53:32.708,-0.055,-0.015
17:53:32.712,-0.07,-0.03
17:53:32.716,-0.06,-0.06
17:53:32.720,-0.065,-0.06
17:53:32.724,-0.05,-0.07
17:53:32.728,-0.015,-0.13
17:53:32.732,-0.015,-0.16
17:53:32.736,-0.04,-0.2
17:53:32.740,-0.085,-0.225
17:53:32.744,-0.12,-0.21
17:53:32.748,-0.14,-0.205
17:53:32.752,-0.195,-0.16
17:53:32.756,-0.22,-0.135
17:53:32.760,-0.24,-0.1
17:53:32.764,-0.26,-0.065
17:53:32.768,-0.235,-0.07
17:53:32.772,-0.23,-0.04
17:53:32.776,-0.225,-0.065
17:53:32.780,-0.215,-0.085
17:53:32.784,-0.22,-0.09
17:53:32.788,-0.22,-0.095
17:53:32.792,-0.21,-0.085
17:53:32.796,-0.23,-0.11
17:53:32.800,-0.235,-0.12
17:53:32.804,-0.23,-0.095
17:53:32.808,-0.225,-0.105
17:53:32.812,-0.22,-0.115
17:53:32.816,-0.23,-0.115
17:53:32.820,-0.235,-0.115
17:53:32.824,-0.21,-0.105
17:53:32.828,-0.195,-0.125
17:53:32.832,-0.21,-0.105
17:53:32.836,-0.21,-0.125
17:53:32.840,-0.18,-0.125
17:53:32.844,-0.16,-0.1
17:53:32.848,-0.18,-0.11
17:53:32.852,-0.16,-0.105
17:53:32.856,-0.145,-0.12
17:53:32.860,-0.065,-0.1
17:53:32.864,0.0,-0.125
17:53:32.868,0.09,-0.16
17:53:32.872,0.18,-0.205
17:53:32.876,0.265,-0.3
17:53:32.880,0.335,-0.4
17:53:32.884,0.37,-0.46
17:53:32.888,0.395,-0.61
17:53:32.892,0.37,-0.835
17:53:32.896,0.37,-1.085
17:53:32.900,0.455,-1.405
17:53:32.904,0.7,-1.77
17:53:32.908,1.045,-2.1
17:53:32.912,1.32,-2.335
17:53:32.916,1.3,-2.41
17:53:32.920,0.95,-2.165
17:53:32.924,0.395,-1.585
17:53:32.928,-0.05,-1.06
17:53:32.932,-0.26,-0.72
17:53:32.936,-0.36,-0.53
17:53:32.940,-0.385,-0.31
17:53:32.944,-0.38,-0.175
17:53:32.948,-0.405,-0.085
17:53:32.952,-0.425,0.0
17:53:32.956,-0.435,0.055
17:53:32.960,-0.43,0.055
17:53:32.964,-0.435,0.075
17:53:32.968,-0.44,0.095
17:53:32.972,-0.435,0.095
17:53:32.976,-0.415,0.105
17:53:32.980,-0.435,0.125
17:53:32.984,-0.44,0.11
17:53:32.988,-0.435,0.115
17:53:32.992,-0.425,0.11
17:53:32.996,-0.46,0.135
17:53:33.000,-0.49,0.13
17:53:33.004,-0.485,0.135
17:53:33.008,-0.48,0.13
17:53:33.012,-0.48,0.13
17:53:33.016,-0.465,0.145
17:53:33.020,-0.465,0.14
17:53:33.024,-0.495,0.14
17:53:33.028,-0.495,0.13
17:53:33.032,-0.515,0.15
17:53:33.036,-0.52,0.15
17:53:33.040,-0.5,0.145
17:53:33.044,-0.525,0.15
17:53:33.048,-0.55,0.15
17:53:33.052,-0.525,0.16
17:53:33.056,-0.53,0.15
17:53:33.060,-0.51,0.16
17:53:33.064,-0.51,0.14
17:53:33.068,-0.525,0.155
17:53:33.072,-0.54,0.185
17:53:33.076,-0.545,0.18
17:53:33.080,-0.53,0.165
17:53:33.084,-0.52,0.155
17:53:33.088,-0.51,0.165
17:53:33.092,-0.51,0.195
17:53:33.096,-0.505,0.185
17:53:33.100,-0.49,0.18
17:53:33.104,-0.44,0.175
17:53:33.108,-0.44,0.165
17:53:33.112,-0.45,0.165
17:53:33.116,-0.445,0.155
17:53:33.120,-0.445,0.155
17:53:33.124,-0.42,0.12
17:53:33.128,-0.43,0.105
17:53:33.132,-0.415,0.09
17:53:33.136,-0.385,0.07
17:53:33.140,-0.365,0.06
17:53:33.144,-0.355,0.04
17:53:33.148,-0.35,-0.005
17:53:33.152,-0.335,-0.005
17:53:33.156,-0.34,-0.005
17:53:33.160,-0.34,-0.025
17:53:33.164,-0.33,-0.045
17:53:33.168,-0.3,-0.05
17:53:33.172,-0.29,-0.065
17:53:33.176,-0.29,-0.08
17:53:33.180,-0.29,-0.09
17:53:33.184,-0.28,-0.085
17:53:33.188,-0.27,-0.1
17:53:33.192,-0.265,-0.09
17:53:33.196,-0.25,-0.09
17:53:33.200,-0.27,-0.11
17:53:33.204,-0.25,-0.095
17:53:33.208,-0.25,-0.08
17:53:33.212,-0.26,-0.09
17:53:33.216,-0.245,-0.095
17:53:33.220,-0.21,-0.08
17:53:33.224,-0.255,-0.07
17:53:33.228,-0.25,-0.09
17:53:33.232,-0.25,-0.09
17:53:33.236,-0.24,-0.095
17:53:33.240,-0.25,-0.09
17:53:33.244,-0.23,-0.095
17:53:33.248,-0.235,-0.08
17:53:33.252,-0.24,-0.075
17:53:33.256,-0.23,-0.08
17:53:33.260,-0.24,-0.09
17:53:33.264,-0.24,-0.09
17:53:33.268,-0.255,-0.07
17:53:33.272,-0.24,-0.065
17:53:33.276,-0.26,-0.055
17:53:33.280,-0.285,-0.065
17:53:33.284,-0.29,-0.06
17:53:33.288,-0.255,-0.075
17:53:33.292,-0.27,-0.045
17:53:33.296,-0.28,-0.06
17:53:33.300,-0.295,-0.065
17:53:33.304,-0.29,-0.075
17:53:33.308,-0.29,-0.07
17:53:33.312,-0.265,-0.095
17:53:33.316,-0.31,-0.07
17:53:33.320,-0.295,-0.07
17:53:33.324,-0.29,-0.06
17:53:33.328,-0.3,-0.075
17:53:33.332,-0.285,-0.08
17:53:33.336,-0.29,-0.08
17:53:33.340,-0.28,-0.06
17:53:33.344,-0.29,-0.08
17:53:33.348,-0.28,-0.065
17:53:33.352,-0.295,-0.07
17:53:33.356,-0.275,-0.08
17:53:33.360,-0.26,-0.065
17:53:33.364,-0.26,-0.07
17:53:33.368,-0.26,-0.065
17:53:33.372,-0.27,-0.065
17:53:33.376,-0.24,-0.09
17:53:33.380,-0.26,-0.08
17:53:33.384,-0.245,-0.085
17:53:33.388,-0.265,-0.07
17:53:33.392,-0.26,-0.06
17:53:33.396,-0.25,-0.055
17:53:33.400,-0.225,-0.04
17:53:33.404,-0.24,-0.05
17:53:33.408,-0.25,-0.06
17:53:33.412,-0.26,-0.075
17:53:33.416,-0.27,-0.065
17:53:33.420,-0.265,-0.035
17:53:33.424,-0.27,-0.055
17:53:33.428,-0.255,-0.08
17:53:33.432,-0.285,-0.06
17:53:33.436,-0.285,-0.06
17:53:33.440,-0.275,-0.065
17:53:33.444,-0.25,-0.07
17:53:33.448,-0.245,-0.055
17:53:33.452,-0.22,-0.06
17:53:33.456,-0.2,-0.05
17:53:33.460,-0.16,-0.03
17:53:33.464,-0.15,-0.015
17:53:33.468,-0.16,-0.04
17:53:33.472,-0.155,-0.04
17:53:33.476,-0.155,-0.06
17:53:33.480,-0.17,-0.07
17:53:33.484,-0.17,-0.085
17:53:33.488,-0.15,-0.135
17:53:33.492,-0.175,-0.175
17:53:33.496,-0.2,-0.205
17:53:33.500,-0.205,-0.205
17:53:33.504,-0.25,-0.165
17:53:33.508,-0.28,-0.155
17:53:33.512,-0.28,-0.13
17:53:33.516,-0.3,-0.1
17:53:33.520,-0.32,-0.06
17:53:33.524,-0.33,-0.05
17:53:33.528,-0.33,-0.03
17:53:33.532,-0.3,-0.06
17:53:33.536,-0.275,-0.04
17:53:33.540,-0.3,-0.065
17:53:33.544,-0.3,-0.08
17:53:33.548,-0.31,-0.08
17:53:33.552,-0.325,-0.065
17:53:33.556,-0.315,-0.07
17:53:33.560,-0.315,-0.09
17:53:33.564,-0.295,-0.11
17:53:33.568,-0.3,-0.09
17:53:33.572,-0.315,-0.08
17:53:33.576,-0.28,-0.09
17:53:33.580,-0.29,-0.1
17:53:33.584,-0.28,-0.11
17:53:33.588,-0.28,-0.105
17:53:33.592,-0.29,-0.11
17:53:33.596,-0.31,-0.115
17:53:33.600,-0.3,-0.1
17:53:33.604,-0.28,-0.1
17:53:33.608,-0.275,-0.12
17:53:33.612,-0.22,-0.115
17:53:33.616,-0.16,-0.08
17:53:33.620,-0.065,-0.12
17:53:33.624,0.01,-0.165
17:53:33.628,0.13,-0.19
17:53:33.632,0.245,-0.265
17:53:33.636,0.335,-0.375
17:53:33.640,0.405,-0.44
17:53:33.644,0.47,-0.545
17:53:33.648,0.48,-0.73
17:53:33.652,0.435,-0.975
17:53:33.656,0.5,-1.235
17:53:33.660,0.7,-1.575
17:53:33.664,1.025,-1.91
17:53:33.668,1.3,-2.135
17:53:33.672,1.35,-2.235
17:53:33.676,1.045,-2.1
17:53:33.680,0.495,-1.635
17:53:33.684,-0.02,-1.125
17:53:33.688,-0.28,-0.805
17:53:33.692,-0.35,-0.59
17:53:33.696,-0.38,-0.36
17:53:33.700,-0.4,-0.175
17:53:33.704,-0.42,-0.065
17:53:33.708,-0.455,0.03
17:53:33.712,-0.45,0.05
17:53:33.716,-0.485,0.07
17:53:33.720,-0.5,0.08
17:53:33.724,-0.505,0.1
17:53:33.728,-0.505,0.125
17:53:33.732,-0.51,0.13
17:53:33.736,-0.48,0.135
17:53:33.740,-0.48,0.145
17:53:33.744,-0.51,0.135
17:53:33.748,-0.525,0.15
17:53:33.752,-0.525,0.15
17:53:33.756,-0.525,0.15
17:53:33.760,-0.52,0.155
17:53:33.764,-0.515,0.165
17:53:33.768,-0.505,0.155
17:53:33.772,-0.525,0.155
17:53:33.776,-0.53,0.19
17:53:33.780,-0.52,0.185
17:53:33.784,-0.51,0.19
17:53:33.788,-0.545,0.21
17:53:33.792,-0.535,0.175
17:53:33.796,-0.535,0.21
17:53:33.800,-0.56,0.19
17:53:33.804,-0.55,0.205
17:53:33.808,-0.555,0.215
17:53:33.812,-0.565,0.215
17:53:33.816,-0.575,0.21
17:53:33.820,-0.555,0.24
17:53:33.824,-0.59,0.225
17:53:33.828,-0.585,0.23
17:53:33.832,-0.61,0.24
17:53:33.836,-0.585,0.24
17:53:33.840,-0.575,0.23
17:53:33.844,-0.57,0.255
17:53:33.848,-0.57,0.24
17:53:33.852,-0.575,0.25
17:53:33.856,-0.55,0.24
17:53:33.860,-0.54,0.23
17:53:33.864,-0.53,0.22
17:53:33.868,-0.53,0.22
17:53:33.872,-0.52,0.205
17:53:33.876,-0.51,0.18
17:53:33.880,-0.505,0.185
17:53:33.884,-0.49,0.145
17:53:33.888,-0.475,0.145
17:53:33.892,-0.465,0.135
17:53:33.896,-0.43,0.11
17:53:33.900,-0.425,0.1
17:53:33.904,-0.42,0.075
17:53:33.908,-0.4,0.06
17:53:33.912,-0.38,0.045
17:53:33.916,-0.37,0.035
17:53:33.920,-0.35,0.005
17:53:33.924,-0.335,0.0
17:53:33.928,-0.345,-0.005
17:53:33.932,-0.325,-0.025
17:53:33.936,-0.32,-0.03
17:53:33.940,-0.31,-0.04
17:53:33.944,-0.32,-0.025
17:53:33.948,-0.305,-0.055
17:53:33.952,-0.305,-0.05
17:53:33.956,-0.31,-0.08
17:53:33.960,-0.31,-0.05
17:53:33.964,-0.31,-0.065
17:53:33.968,-0.295,-0.08
17:53:33.972,-0.3,-0.085
17:53:33.976,-0.29,-0.115
17:53:33.980,-0.29,-0.08
17:53:33.984,-0.295,-0.08
17:53:33.988,-0.3,-0.08
17:53:33.992,-0.29,-0.08
17:53:33.996,-0.275,-0.08
17:53:34.000,-0.28,-0.095
17:53:34.004,-0.28,-0.075
17:53:34.008,-0.315,-0.05
17:53:34.012,-0.3,-0.06
17:53:34.016,-0.305,-0.06
17:53:34.020,-0.31,-0.035
17:53:34.024,-0.32,-0.04
17:53:34.028,-0.285,-0.05
17:53:34.032,-0.275,-0.04
17:53:34.036,-0.3,-0.03
17:53:34.040,-0.3,-0.02
17:53:34.044,-0.29,-0.03
17:53:34.048,-0.305,-0.03
17:53:34.052,-0.305,-0.03
17:53:34.056,-0.3,-0.025
17:53:34.060,-0.29,-0.04
17:53:34.064,-0.3,-0.04
17:53:34.068,-0.295,-0.04
17:53:34.072,-0.285,-0.055
17:53:34.076,-0.295,-0.025
17:53:34.080,-0.3,-0.055
17:53:34.084,-0.29,-0.06
17:53:34.088,-0.32,-0.065
17:53:34.092,-0.325,-0.045
17:53:34.096,-0.34,-0.055
17:53:34.100,-0.33,-0.055
17:53:34.104,-0.32,-0.055
17:53:34.108,-0.33,-0.075
17:53:34.112,-0.33,-0.065
17:53:34.116,-0.34,-0.045
17:53:34.120,-0.34,-0.05
17:53:34.124,-0.315,-0.025
17:53:34.128,-0.31,-0.04
17:53:34.132,-0.3,-0.045
17:53:34.136,-0.29,-0.04
17:53:34.140,-0.29,-0.025
17:53:34.144,-0.27,-0.025
17:53:34.148,-0.265,0.015
17:53:34.152,-0.275,-0.015
17:53:34.156,-0.275,-0.025
17:53:34.160,-0.265,-0.045
17:53:34.164,-0.25,-0.03
17:53:34.168,-0.22,-0.075
17:53:34.172,-0.195,-0.11
17:53:34.176,-0.205,-0.135
17:53:34.180,-0.215,-0.18
17:53:34.184,-0.25,-0.17
17:53:34.188,-0.28,-0.18
17:53:34.192,-0.305,-0.145
17:53:34.196,-0.34,-0.11
17:53:34.200,-0.35,-0.1
17:53:34.204,-0.365,-0.045
17:53:34.208,-0.33,-0.025
17:53:34.212,-0.37,0.01
17:53:34.216,-0.35,0.01
17:53:34.220,-0.36,-0.005
17:53:34.224,-0.375,0.015
17:53:34.228,-0.37,-0.005
17:53:34.232,-0.365,-0.02
17:53:34.236,-0.35,-0.03
17:53:34.240,-0.36,-0.035
17:53:34.244,-0.35,-0.04
17:53:34.248,-0.35,-0.035
17:53:34.252,-0.35,-0.055
17:53:34.256,-0.34,-0.055
17:53:34.260,-0.33,-0.055
17:53:34.264,-0.32,-0.065
17:53:34.268,-0.335,-0.05
17:53:34.272,-0.33,-0.055
17:53:34.276,-0.34,-0.075
17:53:34.280,-0.33,-0.07
17:53:34.284,-0.33,-0.06
17:53:34.288,-0.315,-0.07
17:53:34.292,-0.275,-0.08
17:53:34.296,-0.215,-0.08
17:53:34.300,-0.17,-0.065
17:53:34.304,-0.085,-0.1
17:53:34.308,0.035,-0.11
17:53:34.312,0.12,-0.16
17:53:34.316,0.19,-0.255
17:53:34.320,0.23,-0.32
17:53:34.324,0.25,-0.45
17:53:34.328,0.28,-0.575
17:53:34.332,0.27,-0.765
17:53:34.336,0.295,-1.02
17:53:34.340,0.455,-1.295
17:53:34.344,0.75,-1.645
17:53:34.348,1.12,-1.94
17:53:34.352,1.335,-2.13
17:53:34.356,1.27,-2.195
17:53:34.360,0.865,-1.935
17:53:34.364,0.245,-1.4
17:53:34.368,-0.205,-0.905
17:53:34.372,-0.39,-0.625
17:53:34.376,-0.465,-0.425
17:53:34.380,-0.48,-0.225
17:53:34.384,-0.47,-0.085
17:53:34.388,-0.47,0.02
17:53:34.392,-0.49,0.1
17:53:34.396,-0.495,0.135
17:53:34.400,-0.48,0.16
17:53:34.404,-0.505,0.185
17:53:34.408,-0.5,0.175
17:53:34.412,-0.505,0.2
17:53:34.416,-0.52,0.205
17:53:34.420,-0.53,0.215
17:53:34.424,-0.52,0.225
17:53:34.428,-0.515,0.22
17:53:34.432,-0.51,0.23
17:53:34.436,-0.5,0.215
17:53:34.440,-0.5,0.2
17:53:34.444,-0.495,0.255
17:53:34.448,-0.505,0.245
17:53:34.452,-0.5,0.245
17:53:34.456,-0.515,0.24
17:53:34.460,-0.51,0.24
17:53:34.464,-0.52,0.235
17:53:34.468,-0.53,0.26
17:53:34.472,-0.52,0.255
17:53:34.476,-0.525,0.24
17:53:34.480,-0.53,0.255
17:53:34.484,-0.555,0.27
17:53:34.488,-0.57,0.27
17:53:34.492,-0.595,0.27
17:53:34.496,-0.6,0.285
17:53:34.500,-0.59,0.29
17:53:34.504,-0.58,0.28
17:53:34.508,-0.57,0.285
17:53:34.512,-0.57,0.285
17:53:34.516,-0.57,0.295
17:53:34.520,-0.595,0.285
17:53:34.524,-0.57,0.27
17:53:34.528,-0.555,0.265
17:53:34.532,-0.555,0.28
17:53:34.536,-0.54,0.265
17:53:34.540,-0.535,0.28
17:53:34.544,-0.54,0.245
17:53:34.548,-0.525,0.21
17:53:34.552,-0.51,0.225
17:53:34.556,-0.49,0.22
17:53:34.560,-0.49,0.24
17:53:34.564,-0.45,0.21
17:53:34.568,-0.435,0.195
17:53:34.572,-0.435,0.17
17:53:34.576,-0.4,0.16
17:53:34.580,-0.405,0.145
17:53:34.584,-0.395,0.125
17:53:34.588,-0.37,0.105
17:53:34.592,-0.335,0.085
17:53:34.596,-0.345,0.04
17:53:34.600,-0.325,0.05
17:53:34.604,-0.315,0.035
17:53:34.608,-0.315,0.025
17:53:34.612,-0.295,0.015
17:53:34.616,-0.305,0.01
17:53:34.620,-0.3,0.0
17:53:34.624,-0.285,-0.01
17:53:34.628,-0.27,-0.03
17:53:34.632,-0.28,-0.015
17:53:34.636,-0.265,-0.025
17:53:34.640,-0.25,-0.01
17:53:34.644,-0.26,-0.04
17:53:34.648,-0.25,-0.035
17:53:34.652,-0.255,-0.035
17:53:34.656,-0.25,-0.02
17:53:34.660,-0.26,-0.03
17:53:34.664,-0.25,-0.03
17:53:34.668,-0.255,-0.05
17:53:34.672,-0.24,-0.035
17:53:34.676,-0.26,-0.045
17:53:34.680,-0.25,-0.02
17:53:34.684,-0.235,-0.015
17:53:34.688,-0.265,-0.015
17:53:34.692,-0.255,-0.02
17:53:34.696,-0.24,-0.005
17:53:34.700,-0.245,0.0
17:53:34.704,-0.235,0.01
17:53:34.708,-0.265,0.0
17:53:34.712,-0.265,0.005
17:53:34.716,-0.26,0.005
17:53:34.720,-0.255,0.01
17:53:34.724,-0.255,0.02
17:53:34.728,-0.255,0.025
17:53:34.732,-0.26,0.025
17:53:34.736,-0.255,0.02
17:53:34.740,-0.26,0.015
17:53:34.744,-0.27,0.01
17:53:34.748,-0.26,0.02
17:53:34.752,-0.28,-0.005
17:53:34.756,-0.27,0.005
17:53:34.760,-0.27,0.01
17:53:34.764,-0.265,0.005
17:53:34.768,-0.225,0.025
17:53:34.772,-0.21,-0.01
17:53:34.776,-0.2,0.0
17:53:34.780,-0.21,-0.01
17:53:34.784,-0.2,-0.01
17:53:34.788,-0.175,-0.01
17:53:34.792,-0.16,0.025
17:53:34.796,-0.11,0.03
17:53:34.800,-0.085,0.025
17:53:34.804,-0.065,0.035
17:53:34.808,-0.035,0.02
17:53:34.812,-0.005,0.01
17:53:34.816,0.005,0.01
17:53:34.820,0.045,0.005
17:53:34.824,0.055,-0.015
17:53:34.828,0.025,-0.065
17:53:34.832,-0.03,-0.11
17:53:34.836,-0.105,-0.11
17:53:34.840,-0.14,-0.12
17:53:34.844,-0.2,-0.115
17:53:34.848,-0.255,-0.12
17:53:34.852,-0.32,-0.095
17:53:34.856,-0.325,-0.055
17:53:34.860,-0.35,-0.015
17:53:34.864,-0.385,-0.005
17:53:34.868,-0.395,0.0
17:53:34.872,-0.38,0.0
17:53:34.876,-0.38,0.0
17:53:34.880,-0.365,-0.005
17:53:34.884,-0.385,-0.045
17:53:34.888,-0.365,-0.025
17:53:34.892,-0.375,-0.035
17:53:34.896,-0.365,-0.065
17:53:34.900,-0.385,-0.055
17:53:34.904,-0.37,-0.04
17:53:34.908,-0.36,-0.055
17:53:34.912,-0.365,-0.07
17:53:34.916,-0.345,-0.055
17:53:34.920,-0.365,-0.07
17:53:34.924,-0.345,-0.06
17:53:34.928,-0.36,-0.05
17:53:34.932,-0.35,-0.055
17:53:34.936,-0.365,-0.065
17:53:34.940,-0.37,-0.075
17:53:34.944,-0.37,-0.045
17:53:34.948,-0.36,-0.08
17:53:34.952,-0.37,-0.095
17:53:34.956,-0.34,-0.075
17:53:34.960,-0.335,-0.065
17:53:34.964,-0.32,-0.06
17:53:34.968,-0.315,-0.065
17:53:34.972,-0.29,-0.05
17:53:34.976,-0.26,-0.045
17:53:34.980,-0.18,-0.065
17:53:34.984,-0.105,-0.05
17:53:34.988,0.0,-0.095
17:53:34.992,0.07,-0.16
17:53:34.996,0.105,-0.23
17:53:35.000,0.14,-0.325
17:53:35.004,0.18,-0.425
17:53:35.008,0.175,-0.56
17:53:35.012,0.175,-0.77
17:53:35.016,0.23,-1.015
17:53:35.020,0.4,-1.325
17:53:35.024,0.715,-1.695
17:53:35.028,1.055,-2.01
17:53:35.032,1.225,-2.245
17:53:35.036,1.13,-2.245
17:53:35.040,0.675,-1.955
17:53:35.044,0.08,-1.385
17:53:35.048,-0.295,-0.89
17:53:35.052,-0.445,-0.615
17:53:35.056,-0.51,-0.435
17:53:35.060,-0.52,-0.255
17:53:35.064,-0.505,-0.09
17:53:35.068,-0.505,0.005
17:53:35.072,-0.525,0.075
17:53:35.076,-0.515,0.12
17:53:35.080,-0.54,0.14
17:53:35.084,-0.535,0.145
17:53:35.088,-0.53,0.155
17:53:35.092,-0.545,0.17
17:53:35.096,-0.545,0.17
17:53:35.100,-0.535,0.165
17:53:35.104,-0.505,0.185
17:53:35.108,-0.52,0.2
17:53:35.112,-0.51,0.215
17:53:35.116,-0.51,0.21
17:53:35.120,-0.515,0.24
17:53:35.124,-0.535,0.235
17:53:35.128,-0.525,0.235
17:53:35.132,-0.52,0.215
17:53:35.136,-0.545,0.245
17:53:35.140,-0.55,0.23
17:53:35.144,-0.555,0.22
17:53:35.148,-0.53,0.24
17:53:35.152,-0.555,0.23
17:53:35.156,-0.58,0.245
17:53:35.160,-0.605,0.255
17:53:35.164,-0.575,0.26
17:53:35.168,-0.58,0.245
17:53:35.172,-0.59,0.275
17:53:35.176,-0.595,0.245
17:53:35.180,-0.6,0.265
17:53:35.184,-0.58,0.265
17:53:35.188,-0.595,0.28
17:53:35.192,-0.6,0.29
17:53:35.196,-0.58,0.275
17:53:35.200,-0.595,0.29
17:53:35.204,-0.585,0.275
17:53:35.208,-0.585,0.28
17:53:35.212,-0.575,0.285
17:53:35.216,-0.56,0.305
17:53:35.220,-0.555,0.275
17:53:35.224,-0.53,0.28
17:53:35.228,-0.51,0.275
17:53:35.232,-0.52,0.26
17:53:35.236,-0.51,0.24
17:53:35.240,-0.49,0.225
17:53:35.244,-0.465,0.195
17:53:35.248,-0.47,0.215
17:53:35.252,-0.44,0.19
17:53:35.256,-0.465,0.155
17:53:35.260,-0.44,0.15
17:53:35.264,-0.42,0.125
17:53:35.268,-0.4,0.12
17:53:35.272,-0.385,0.095
17:53:35.276,-0.39,0.09
17:53:35.280,-0.38,0.04
17:53:35.284,-0.375,0.055
17:53:35.288,-0.365,0.045
17:53:35.292,-0.345,0.005
17:53:35.296,-0.345,0.025
17:53:35.300,-0.33,0.0
17:53:35.304,-0.335,-0.005
17:53:35.308,-0.31,-0.025
17:53:35.312,-0.295,-0.02
17:53:35.316,-0.3,-0.005
17:53:35.320,-0.275,0.0
17:53:35.324,-0.295,-0.015
17:53:35.328,-0.285,-0.04
17:53:35.332,-0.285,-0.04
17:53:35.336,-0.29,-0.005
17:53:35.340,-0.285,-0.025
17:53:35.344,-0.275,-0.005
17:53:35.348,-0.275,0.0
17:53:35.352,-0.28,0.0
17:53:35.356,-0.275,-0.015
17:53:35.360,-0.285,-0.005
17:53:35.364,-0.255,0.0
17:53:35.368,-0.29,0.025
17:53:35.372,-0.27,0.01
17:53:35.376,-0.27,0.02
17:53:35.380,-0.29,0.015
17:53:35.384,-0.285,0.035
17:53:35.388,-0.285,0.035
17:53:35.392,-0.28,0.045
17:53:35.396,-0.285,0.035
17:53:35.400,-0.285,0.03
17:53:35.404,-0.3,0.015
17:53:35.408,-0.275,0.025
17:53:35.412,-0.28,0.02
17:53:35.416,-0.28,0.03
17:53:35.420,-0.3,0.07
17:53:35.424,-0.295,0.02
17:53:35.428,-0.3,0.01
17:53:35.432,-0.285,0.005
17:53:35.436,-0.285,0.02
17:53:35.440,-0.265,0.015
17:53:35.444,-0.24,0.005
17:53:35.448,-0.24,0.005
17:53:35.452,-0.265,0.025
17:53:35.456,-0.265,0.025
17:53:35.460,-0.25,0.03
17:53:35.464,-0.25,0.065
17:53:35.468,-0.21,0.045
17:53:35.472,-0.19,0.05
17:53:35.476,-0.175,0.03
17:53:35.480,-0.145,0.035
17:53:35.484,-0.11,0.055
17:53:35.488,-0.09,0.03
17:53:35.492,-0.1,0.005
17:53:35.496,-0.135,-0.005
17:53:35.500,-0.15,-0.035
17:53:35.504,-0.18,-0.055
17:53:35.508,-0.225,-0.09
17:53:35.512,-0.23,-0.11
17:53:35.516,-0.27,-0.11
17:53:35.520,-0.29,-0.105
17:53:35.524,-0.34,-0.085
17:53:35.528,-0.35,-0.05
17:53:35.532,-0.335,0.005
17:53:35.536,-0.34,0.025
17:53:35.540,-0.345,0.015
17:53:35.544,-0.335,0.0
17:53:35.548,-0.335,0.0
17:53:35.552,-0.335,0.0
17:53:35.556,-0.335,-0.025
17:53:35.560,-0.34,-0.015
17:53:35.564,-0.32,-0.015
17:53:35.568,-0.345,-0.02
17:53:35.572,-0.32,-0.035
17:53:35.576,-0.315,-0.045
17:53:35.580,-0.32,-0.055
17:53:35.584,-0.315,-0.03
17:53:35.588,-0.325,-0.05
17:53:35.592,-0.32,-0.025
17:53:35.596,-0.32,-0.005
17:53:35.600,-0.345,-0.03
17:53:35.604,-0.355,-0.015
17:53:35.608,-0.335,-0.025
17:53:35.612,-0.31,0.0
17:53:35.616,-0.315,-0.015
17:53:35.620,-0.29,-0.03
17:53:35.624,-0.24,-0.025
17:53:35.628,-0.22,-0.035
17:53:35.632,-0.15,-0.035
17:53:35.636,-0.08,-0.05
17:53:35.640,0.02,-0.065
17:53:35.644,0.115,-0.11
17:53:35.648,0.19,-0.175
17:53:35.652,0.275,-0.265
17:53:35.656,0.35,-0.365
17:53:35.660,0.37,-0.45
17:53:35.664,0.38,-0.595
17:53:35.668,0.36,-0.83
17:53:35.672,0.425,-1.08
17:53:35.676,0.62,-1.375
17:53:35.680,0.915,-1.725
17:53:35.684,1.19,-2.02
17:53:35.688,1.25,-2.195
17:53:35.692,0.98,-2.165
17:53:35.696,0.415,-1.765
17:53:35.700,-0.08,-1.21
17:53:35.704,-0.315,-0.79
17:53:35.708,-0.395,-0.545
17:53:35.712,-0.41,-0.325
17:53:35.716,-0.405,-0.15
17:53:35.720,-0.43,-0.035
17:53:35.724,-0.465,0.06
17:53:35.728,-0.49,0.095
17:53:35.732,-0.54,0.145
17:53:35.736,-0.51,0.175
17:53:35.740,-0.5,0.16
17:53:35.744,-0.53,0.185
17:53:35.748,-0.54,0.165
17:53:35.752,-0.525,0.16
17:53:35.756,-0.52,0.175
17:53:35.760,-0.5,0.185
17:53:35.764,-0.51,0.18
17:53:35.768,-0.495,0.16
17:53:35.772,-0.5,0.16
17:53:35.776,-0.515,0.21
17:53:35.780,-0.54,0.2
17:53:35.784,-0.545,0.205
17:53:35.788,-0.535,0.2
17:53:35.792,-0.525,0.175
17:53:35.796,-0.555,0.205
17:53:35.800,-0.54,0.215
17:53:35.804,-0.555,0.22
17:53:35.808,-0.55,0.21
17:53:35.812,-0.55,0.225
17:53:35.816,-0.56,0.22
17:53:35.820,-0.59,0.225
17:53:35.824,-0.6,0.25
17:53:35.828,-0.595,0.24
17:53:35.832,-0.6,0.245
17:53:35.836,-0.58,0.25
17:53:35.840,-0.59,0.245
17:53:35.844,-0.58,0.215
17:53:35.848,-0.585,0.235
17:53:35.852,-0.6,0.26
17:53:35.856,-0.58,0.255
17:53:35.860,-0.575,0.235
17:53:35.864,-0.565,0.215
17:53:35.868,-0.585,0.22
17:53:35.872,-0.565,0.225
17:53:35.876,-0.555,0.215
17:53:35.880,-0.53,0.21
17:53:35.884,-0.52,0.21
17:53:35.888,-0.505,0.2
17:53:35.892,-0.48,0.185
17:53:35.896,-0.505,0.15
17:53:35.900,-0.475,0.145
17:53:35.904,-0.44,0.145
17:53:35.908,-0.43,0.115
17:53:35.912,-0.415,0.095
17:53:35.916,-0.41,0.09
17:53:35.920,-0.435,0.065
17:53:35.924,-0.415,0.05
17:53:35.928,-0.38,0.05
17:53:35.932,-0.38,0.02
17:53:35.936,-0.38,0.0
17:53:35.940,-0.38,-0.01
17:53:35.944,-0.34,-0.04
17:53:35.948,-0.325,-0.04
17:53:35.952,-0.31,-0.045
17:53:35.956,-0.32,-0.06
17:53:35.960,-0.32,-0.06
17:53:35.964,-0.315,-0.065
17:53:35.968,-0.3,-0.095
17:53:35.972,-0.305,-0.085
17:53:35.976,-0.315,-0.11
17:53:35.980,-0.315,-0.095
17:53:35.984,-0.275,-0.075
17:53:35.988,-0.305,-0.075
17:53:35.992,-0.28,-0.085
17:53:35.996,-0.3,-0.055
17:53:36.000,-0.3,-0.08
17:53:36.004,-0.305,-0.085
17:53:36.008,-0.3,-0.075
17:53:36.012,-0.3,-0.05
17:53:36.016,-0.285,-0.07
17:53:36.020,-0.285,-0.05
17:53:36.024,-0.285,-0.09
17:53:36.028,-0.29,-0.075
17:53:36.032,-0.28,-0.07
17:53:36.036,-0.265,-0.035
17:53:36.040,-0.27,-0.055
17:53:36.044,-0.29,-0.045
17:53:36.048,-0.285,-0.03
17:53:36.052,-0.29,-0.05
17:53:36.056,-0.315,-0.035
17:53:36.060,-0.305,-0.055
17:53:36.064,-0.295,-0.035
17:53:36.068,-0.295,-0.04
17:53:36.072,-0.29,-0.045
17:53:36.076,-0.3,-0.035
17:53:36.080,-0.33,-0.055
17:53:36.084,-0.34,-0.04
17:53:36.088,-0.325,-0.025
17:53:36.092,-0.325,-0.035
17:53:36.096,-0.33,-0.045
17:53:36.100,-0.33,-0.04
17:53:36.104,-0.35,-0.055
17:53:36.108,-0.35,-0.075
17:53:36.112,-0.37,-0.045
17:53:36.116,-0.37,-0.06
17:53:36.120,-0.38,-0.05
17:53:36.124,-0.37,-0.035
17:53:36.128,-0.37,-0.04
17:53:36.132,-0.325,-0.045
17:53:36.136,-0.3,-0.06
17:53:36.140,-0.275,-0.085
17:53:36.144,-0.24,-0.12
17:53:36.148,-0.225,-0.135
17:53:36.152,-0.21,-0.17
17:53:36.156,-0.225,-0.215
17:53:36.160,-0.24,-0.19
17:53:36.164,-0.255,-0.18
17:53:36.168,-0.29,-0.135
17:53:36.172,-0.315,-0.135
17:53:36.176,-0.31,-0.095
17:53:36.180,-0.31,-0.035
17:53:36.184,-0.295,-0.045
17:53:36.188,-0.305,0.005
17:53:36.192,-0.305,0.005
17:53:36.196,-0.285,-0.01
17:53:36.200,-0.28,-0.005
17:53:36.204,-0.305,-0.03
17:53:36.208,-0.3,-0.04
17:53:36.212,-0.305,-0.075
17:53:36.216,-0.305,-0.065
17:53:36.220,-0.3,-0.065
17:53:36.224,-0.295,-0.075
17:53:36.228,-0.265,-0.085
17:53:36.232,-0.26,-0.075
17:53:36.236,-0.27,-0.09
17:53:36.240,-0.27,-0.09
17:53:36.244,-0.285,-0.095
17:53:36.248,-0.28,-0.09
17:53:36.252,-0.26,-0.105
17:53:36.256,-0.23,-0.09
17:53:36.260,-0.2,-0.11
17:53:36.264,-0.105,-0.095
17:53:36.268,-0.01,-0.1
17:53:36.272,0.08,-0.125
17:53:36.276,0.19,-0.17
17:53:36.280,0.3,-0.265
17:53:36.284,0.375,-0.34
17:53:36.288,0.43,-0.44
17:53:36.292,0.45,-0.59
17:53:36.296,0.45,-0.765
17:53:36.300,0.48,-0.995
17:53:36.304,0.605,-1.265
17:53:36.308,0.9,-1.595
17:53:36.312,1.2,-1.905
17:53:36.316,1.345,-2.095
17:53:36.320,1.145,-2.12
17:53:36.324,0.635,-1.86
17:53:36.328,0.075,-1.31
17:53:36.332,-0.2,-0.89
17:53:36.336,-0.34,-0.625
17:53:36.340,-0.365,-0.425
17:53:36.344,-0.385,-0.22
17:53:36.348,-0.39,-0.08
17:53:36.352,-0.425,0.025
17:53:36.356,-0.45,0.11
17:53:36.360,-0.45,0.14
17:53:36.364,-0.465,0.145
17:53:36.368,-0.475,0.16
17:53:36.372,-0.465,0.16
17:53:36.376,-0.44,0.18
17:53:36.380,-0.47,0.185
17:53:36.384,-0.48,0.185
17:53:36.388,-0.485,0.2
17:53:36.392,-0.47,0.205
17:53:36.396,-0.48,0.19
17:53:36.400,-0.505,0.18
17:53:36.404,-0.52,0.2
17:53:36.408,-0.495,0.22
17:53:36.412,-0.5,0.215
17:53:36.416,-0.495,0.22
17:53:36.420,-0.495,0.23
17:53:36.424,-0.49,0.245
17:53:36.428,-0.5,0.245
17:53:36.432,-0.495,0.25
17:53:36.436,-0.5,0.26
17:53:36.440,-0.5,0.27
17:53:36.444,-0.515,0.28
17:53:36.448,-0.54,0.285
17:53:36.452,-0.545,0.27
17:53:36.456,-0.54,0.295
17:53:36.460,-0.545,0.295
17:53:36.464,-0.57,0.295
17:53:36.468,-0.575,0.29
17:53:36.472,-0.55,0.305
17:53:36.476,-0.56,0.315
17:53:36.480,-0.56,0.335
17:53:36.484,-0.555,0.31
17:53:36.488,-0.555,0.32
17:53:36.492,-0.555,0.32
17:53:36.496,-0.535,0.305
17:53:36.500,-0.52,0.3
17:53:36.504,-0.53,0.28
17:53:36.508,-0.51,0.265
17:53:36.512,-0.51,0.25
17:53:36.516,-0.5,0.255
17:53:36.520,-0.495,0.21
17:53:36.524,-0.475,0.2
17:53:36.528,-0.445,0.165
17:53:36.532,-0.45,0.19
17:53:36.536,-0.445,0.165
17:53:36.540,-0.435,0.135
17:53:36.544,-0.395,0.125
17:53:36.548,-0.38,0.105
17:53:36.552,-0.365,0.085
17:53:36.556,-0.345,0.06
17:53:36.560,-0.335,0.065
17:53:36.564,-0.315,0.04
17:53:36.568,-0.3,0.03
17:53:36.572,-0.285,0.04
17:53:36.576,-0.3,0.015
17:53:36.580,-0.28,0.0
17:53:36.584,-0.275,-0.005
17:53:36.588,-0.255,-0.025
17:53:36.592,-0.25,-0.005
17:53:36.596,-0.275,-0.04
17:53:36.600,-0.26,-0.025
17:53:36.604,-0.245,-0.04
17:53:36.608,-0.27,-0.04
17:53:36.612,-0.265,-0.03
17:53:36.616,-0.25,-0.015
17:53:36.620,-0.255,-0.025
17:53:36.624,-0.27,-0.035
17:53:36.628,-0.255,-0.055
17:53:36.632,-0.245,-0.05
17:53:36.636,-0.245,-0.025
17:53:36.640,-0.245,-0.02
17:53:36.644,-0.255,-0.035
17:53:36.648,-0.26,-0.03
17:53:36.652,-0.26,-0.02
17:53:36.656,-0.275,-0.02
17:53:36.660,-0.26,-0.005
17:53:36.664,-0.265,0.0
17:53:36.668,-0.265,-0.005
17:53:36.672,-0.265,0.0
17:53:36.676,-0.265,0.035
17:53:36.680,-0.27,0.02
17:53:36.684,-0.245,0.0
17:53:36.688,-0.24,0.0
17:53:36.692,-0.25,-0.015
17:53:36.696,-0.27,0.015
17:53:36.700,-0.26,0.015
17:53:36.704,-0.27,0.035
17:53:36.708,-0.255,0.01
17:53:36.712,-0.265,0.01
17:53:36.716,-0.255,0.01
17:53:36.720,-0.24,0.005
17:53:36.724,-0.24,-0.02
17:53:36.728,-0.22,0.0
17:53:36.732,-0.23,0.0
17:53:36.736,-0.215,0.0
17:53:36.740,-0.225,0.01
17:53:36.744,-0.215,0.02
17:53:36.748,-0.185,0.02
17:53:36.752,-0.155,0.01
17:53:36.756,-0.135,0.015
17:53:36.760,-0.1,0.015
17:53:36.764,-0.05,0.02
17:53:36.768,-0.04,0.05
17:53:36.772,-0.02,0.02
17:53:36.776,0.015,0.01
17:53:36.780,0.025,0.025
17:53:36.784,0.03,0.005
17:53:36.788,0.045,-0.02
17:53:36.792,0.025,-0.055
17:53:36.796,0.0,-0.085
17:53:36.800,-0.04,-0.095
17:53:36.804,-0.095,-0.105
17:53:36.808,-0.145,-0.125
17:53:36.812,-0.2,-0.075
17:53:36.816,-0.27,-0.055
17:53:36.820,-0.295,-0.035
17:53:36.824,-0.335,-0.01
17:53:36.828,-0.35,0.03
17:53:36.832,-0.365,-0.01
17:53:36.836,-0.365,0.015
17:53:36.840,-0.35,0.015
17:53:36.844,-0.335,0.005
17:53:36.848,-0.345,-0.03
17:53:36.852,-0.34,-0.03
17:53:36.856,-0.35,-0.03
17:53:36.860,-0.355,-0.025
17:53:36.864,-0.35,-0.03
17:53:36.868,-0.35,-0.045
17:53:36.872,-0.365,-0.04
17:53:36.876,-0.375,-0.06
17:53:36.880,-0.365,-0.07
17:53:36.884,-0.365,-0.04
17:53:36.888,-0.335,-0.05
17:53:36.892,-0.355,-0.05
17:53:36.896,-0.365,-0.055
17:53:36.900,-0.34,-0.065
17:53:36.904,-0.35,-0.04
17:53:36.908,-0.345,-0.05
17:53:36.912,-0.34,-0.05
17:53:36.916,-0.32,-0.04
17:53:36.920,-0.335,-0.055
17:53:36.924,-0.32,-0.04
17:53:36.928,-0.32,-0.03
17:53:36.932,-0.3,-0.025
17:53:36.936,-0.255,-0.06
17:53:36.940,-0.195,-0.055
17:53:36.944,-0.095,-0.06
17:53:36.948,-0.02,-0.055
17:53:36.952,0.06,-0.08
17:53:36.956,0.135,-0.165
17:53:36.960,0.195,-0.245
17:53:36.964,0.22,-0.35
17:53:36.968,0.245,-0.445
17:53:36.972,0.225,-0.625
17:53:36.976,0.215,-0.845
17:53:36.980,0.325,-1.12
17:53:36.984,0.565,-1.415
17:53:36.988,0.925,-1.755
17:53:36.992,1.22,-2.04
17:53:36.996,1.245,-2.185
17:53:37.000,0.92,-2.14
17:53:37.004,0.35,-1.765
17:53:37.008,-0.13,-1.215
17:53:37.012,-0.39,-0.795
17:53:37.016,-0.465,-0.545
17:53:37.020,-0.475,-0.34
17:53:37.024,-0.46,-0.14
17:53:37.028,-0.48,-0.035
17:53:37.032,-0.48,0.045
17:53:37.036,-0.495,0.125
17:53:37.040,-0.505,0.145
17:53:37.044,-0.51,0.16
17:53:37.048,-0.495,0.165
17:53:37.052,-0.51,0.185
17:53:37.056,-0.505,0.195
17:53:37.060,-0.505,0.19
17:53:37.064,-0.53,0.21
17:53:37.068,-0.525,0.21
17:53:37.072,-0.52,0.21
17:53:37.076,-0.49,0.225
17:53:37.080,-0.505,0.235
17:53:37.084,-0.515,0.23
17:53:37.088,-0.5,0.24
17:53:37.092,-0.515,0.25
17:53:37.096,-0.51,0.235
17:53:37.100,-0.525,0.28
17:53:37.104,-0.515,0.25
17:53:37.108,-0.51,0.265
17:53:37.112,-0.535,0.265
17:53:37.116,-0.535,0.295
17:53:37.120,-0.525,0.26
17:53:37.124,-0.53,0.285
17:53:37.128,-0.535,0.28
17:53:37.132,-0.57,0.29
17:53:37.136,-0.565,0.305
17:53:37.140,-0.57,0.31
17:53:37.144,-0.57,0.325
17:53:37.148,-0.56,0.305
17:53:37.152,-0.585,0.32
17:53:37.156,-0.565,0.315
17:53:37.160,-0.55,0.295
17:53:37.164,-0.555,0.3
17:53:37.168,-0.545,0.32
17:53:37.172,-0.535,0.285
17:53:37.176,-0.525,0.305
17:53:37.180,-0.545,0.305
17:53:37.184,-0.525,0.295
17:53:37.188,-0.51,0.295
17:53:37.192,-0.53,0.28
17:53:37.196,-0.505,0.27
17:53:37.200,-0.485,0.29
17:53:37.204,-0.46,0.255
17:53:37.208,-0.45,0.24
17:53:37.212,-0.41,0.2
17:53:37.216,-0.415,0.18
17:53:37.220,-0.39,0.165
17:53:37.224,-0.365,0.16
17:53:37.228,-0.37,0.15
17:53:37.232,-0.35,0.135
17:53:37.236,-0.34,0.1
17:53:37.240,-0.31,0.105
17:53:37.244,-0.295,0.065
17:53:37.248,-0.31,0.055
17:53:37.252,-0.29,0.045
17:53:37.256,-0.275,0.035
17:53:37.260,-0.255,0.02
17:53:37.264,-0.26,0.005
17:53:37.268,-0.255,0.01
17:53:37.272,-0.235,-0.015
17:53:37.276,-0.255,-0.015
17:53:37.280,-0.24,-0.005
17:53:37.284,-0.23,-0.01
17:53:37.288,-0.23,-0.01
17:53:37.292,-0.235,-0.015
17:53:37.296,-0.225,-0.025
17:53:37.300,-0.215,-0.015
17:53:37.304,-0.22,0.0
17:53:37.308,-0.22,0.0
17:53:37.312,-0.215,0.0
17:53:37.316,-0.225,-0.005
17:53:37.320,-0.23,0.025
17:53:37.324,-0.215,0.01
17:53:37.328,-0.22,0.015
17:53:37.332,-0.205,0.005
17:53:37.336,-0.215,0.025
17:53:37.340,-0.205,0.03
17:53:37.344,-0.21,0.045
17:53:37.348,-0.205,0.045
17:53:37.352,-0.18,0.035
17:53:37.356,-0.19,0.045
17:53:37.360,-0.16,0.055
17:53:37.364,-0.16,0.055
17:53:37.368,-0.145,0.055
17:53:37.372,-0.155,0.06
17:53:37.376,-0.155,0.065
17:53:37.380,-0.125,0.07
17:53:37.384,-0.085,0.095
17:53:37.388,-0.055,0.1
17:53:37.392,-0.01,0.105
17:53:37.396,0.015,0.11
17:53:37.400,0.02,0.105
17:53:37.404,0.05,0.08
17:53:37.408,0.08,0.09
17:53:37.412,0.07,0.08
17:53:37.416,0.105,0.04
17:53:37.420,0.06,0.005
17:53:37.424,0.02,-0.055
17:53:37.428,-0.035,-0.08
17:53:37.432,-0.08,-0.075
17:53:37.436,-0.14,-0.075
17:53:37.440,-0.195,-0.07
17:53:37.444,-0.25,-0.03
17:53:37.448,-0.29,-0.01
17:53:37.452,-0.335,0.0
17:53:37.456,-0.335,0.04
17:53:37.460,-0.355,0.035
17:53:37.464,-0.315,0.025
17:53:37.468,-0.305,0.015
17:53:37.472,-0.305,0.015
17:53:37.476,-0.3,0.0
17:53:37.480,-0.3,0.02
17:53:37.484,-0.27,0.01
17:53:37.488,-0.275,-0.015
17:53:37.492,-0.28,0.0
17:53:37.496,-0.29,0.0
17:53:37.500,-0.29,-0.01
17:53:37.504,-0.295,-0.005
17:53:37.508,-0.275,0.0
17:53:37.512,-0.265,-0.02
17:53:37.516,-0.285,-0.025
17:53:37.520,-0.275,-0.005
17:53:37.524,-0.28,0.01
17:53:37.528,-0.285,0.005
17:53:37.532,-0.29,-0.01
17:53:37.536,-0.295,-0.025
17:53:37.540,-0.305,-0.035
17:53:37.544,-0.295,-0.035
17:53:37.548,-0.275,-0.01
17:53:37.552,-0.27,-0.02
17:53:37.556,-0.245,-0.035
17:53:37.560,-0.275,-0.04
17:53:37.564,-0.23,-0.035
17:53:37.568,-0.175,-0.045
17:53:37.572,-0.12,-0.045
17:53:37.576,-0.02,-0.065
17:53:37.580,0.06,-0.085
17:53:37.584,0.155,-0.125
17:53:37.588,0.21,-0.21
17:53:37.592,0.25,-0.295
17:53:37.596,0.275,-0.39
17:53:37.600,0.275,-0.535
17:53:37.604,0.275,-0.75
17:53:37.608,0.33,-1.005
17:53:37.612,0.52,-1.28
17:53:37.616,0.865,-1.635
17:53:37.620,1.195,-1.945
17:53:37.624,1.325,-2.17
17:53:37.628,1.14,-2.235
17:53:37.632,0.635,-1.975
17:53:37.636,0.085,-1.395
17:53:37.640,-0.255,-0.925
17:53:37.644,-0.37,-0.58
17:53:37.648,-0.39,-0.355
17:53:37.652,-0.41,-0.185
17:53:37.656,-0.415,-0.06
17:53:37.660,-0.435,0.025
17:53:37.664,-0.465,0.115
17:53:37.668,-0.46,0.155
17:53:37.672,-0.445,0.165
17:53:37.676,-0.445,0.185
17:53:37.680,-0.455,0.185
17:53:37.684,-0.46,0.2
17:53:37.688,-0.46,0.215
17:53:37.692,-0.47,0.21
17:53:37.696,-0.47,0.205
17:53:37.700,-0.475,0.22
17:53:37.704,-0.475,0.22
17:53:37.708,-0.47,0.22
17:53:37.712,-0.475,0.225
17:53:37.716,-0.475,0.23
17:53:37.720,-0.47,0.24
17:53:37.724,-0.48,0.245
17:53:37.728,-0.465,0.27
17:53:37.732,-0.48,0.25
17:53:37.736,-0.49,0.28
17:53:37.740,-0.495,0.27
17:53:37.744,-0.49,0.28
17:53:37.748,-0.49,0.255
17:53:37.752,-0.505,0.28
17:53:37.756,-0.5,0.29
17:53:37.760,-0.5,0.315
17:53:37.764,-0.505,0.305
17:53:37.768,-0.505,0.315
17:53:37.772,-0.485,0.325
17:53:37.776,-0.49,0.33
17:53:37.780,-0.5,0.32
17:53:37.784,-0.52,0.32
17:53:37.788,-0.525,0.305
17:53:37.792,-0.515,0.31
17:53:37.796,-0.505,0.33
17:53:37.800,-0.475,0.3
17:53:37.804,-0.495,0.325
17:53:37.808,-0.47,0.31
17:53:37.812,-0.475,0.29
17:53:37.816,-0.455,0.27
17:53:37.820,-0.45,0.275
17:53:37.824,-0.445,0.26
17:53:37.828,-0.435,0.23
17:53:37.832,-0.41,0.21
17:53:37.836,-0.41,0.21
17:53:37.840,-0.39,0.195
17:53:37.844,-0.4,0.185
17:53:37.848,-0.38,0.135
17:53:37.852,-0.37,0.135
17:53:37.856,-0.325,0.11
17:53:37.860,-0.32,0.105
17:53:37.864,-0.285,0.05
17:53:37.868,-0.295,0.075
17:53:37.872,-0.29,0.055
17:53:37.876,-0.275,0.04
17:53:37.880,-0.255,0.03
17:53:37.884,-0.24,0.025
17:53:37.888,-0.255,0.0
17:53:37.892,-0.24,0.01
17:53:37.896,-0.27,-0.005
17:53:37.900,-0.24,0.0
17:53:37.904,-0.23,-0.02
17:53:37.908,-0.21,-0.01
17:53:37.912,-0.215,-0.015
17:53:37.916,-0.225,-0.03
17:53:37.920,-0.245,-0.02
17:53:37.924,-0.25,-0.025
17:53:37.928,-0.22,-0.005
17:53:37.932,-0.245,-0.01
17:53:37.936,-0.23,-0.01
17:53:37.940,-0.24,-0.02
17:53:37.944,-0.215,-0.025
17:53:37.948,-0.215,-0.03
17:53:37.952,-0.245,-0.025
17:53:37.956,-0.235,-0.025
17:53:37.960,-0.25,0.0
17:53:37.964,-0.27,-0.025
17:53:37.968,-0.275,-0.03
17:53:37.972,-0.285,-0.005
17:53:37.976,-0.26,0.005
17:53:37.980,-0.26,0.0
17:53:37.984,-0.25,0.0
17:53:37.988,-0.235,0.0
17:53:37.992,-0.19,0.015
17:53:37.996,-0.175,-0.01
17:53:38.000,-0.15,-0.01
17:53:38.004,-0.175,0.005
17:53:38.008,-0.195,0.0
17:53:38.012,-0.195,0.015
17:53:38.016,-0.175,0.02
17:53:38.020,-0.125,0.02
17:53:38.024,-0.07,0.07
17:53:38.028,-0.035,0.08
17:53:38.032,-0.025,0.08
17:53:38.036,0.03,0.075
17:53:38.040,0.075,0.035
17:53:38.044,0.085,0.035
17:53:38.048,0.07,0.03
17:53:38.052,0.07,0.01
17:53:38.056,0.035,-0.02
17:53:38.060,-0.02,-0.05
17:53:38.064,-0.095,-0.095
17:53:38.068,-0.13,-0.12
17:53:38.072,-0.165,-0.105
17:53:38.076,-0.22,-0.09
17:53:38.080,-0.28,-0.075
17:53:38.084,-0.335,-0.07
17:53:38.088,-0.38,-0.055
17:53:38.092,-0.375,-0.02
17:53:38.096,-0.38,-0.035
17:53:38.100,-0.38,-0.04
17:53:38.104,-0.38,-0.045
17:53:38.108,-0.36,-0.06
17:53:38.112,-0.37,-0.055
17:53:38.116,-0.375,-0.05
17:53:38.120,-0.36,-0.055
17:53:38.124,-0.34,-0.055
17:53:38.128,-0.355,-0.055
17:53:38.132,-0.315,-0.05
17:53:38.136,-0.31,-0.055
17:53:38.140,-0.335,-0.065
17:53:38.144,-0.34,-0.075
17:53:38.148,-0.33,-0.06
17:53:38.152,-0.305,-0.05
17:53:38.156,-0.3,-0.05
17:53:38.160,-0.29,-0.06
17:53:38.164,-0.31,-0.04
17:53:38.168,-0.325,-0.06
17:53:38.172,-0.305,-0.06
17:53:38.176,-0.29,-0.055
17:53:38.180,-0.325,-0.05
17:53:38.184,-0.33,-0.08
17:53:38.188,-0.35,-0.07
17:53:38.192,-0.355,-0.07
17:53:38.196,-0.305,-0.08
17:53:38.200,-0.265,-0.08
17:53:38.204,-0.2,-0.095
17:53:38.208,-0.145,-0.09
17:53:38.212,-0.04,-0.11
17:53:38.216,0.07,-0.125
17:53:38.220,0.18,-0.17
17:53:38.224,0.25,-0.255
17:53:38.228,0.31,-0.355
17:53:38.232,0.375,-0.42
17:53:38.236,0.395,-0.565
17:53:38.240,0.395,-0.74
17:53:38.244,0.38,-0.975
17:53:38.248,0.57,-1.23
17:53:38.252,0.875,-1.57
17:53:38.256,1.165,-1.875
17:53:38.260,1.285,-2.08
17:53:38.264,1.07,-2.12
17:53:38.268,0.535,-1.87
17:53:38.272,0.01,-1.38
17:53:38.276,-0.285,-0.905
17:53:38.280,-0.38,-0.605
17:53:38.284,-0.435,-0.395
17:53:38.288,-0.41,-0.21
17:53:38.292,-0.43,-0.06
17:53:38.296,-0.435,0.045
17:53:38.300,-0.45,0.09
17:53:38.304,-0.46,0.145
17:53:38.308,-0.47,0.175
17:53:38.312,-0.495,0.175
17:53:38.316,-0.52,0.185
17:53:38.320,-0.53,0.175
17:53:38.324,-0.535,0.165
17:53:38.328,-0.535,0.185
17:53:38.332,-0.55,0.2
17:53:38.336,-0.52,0.2
17:53:38.340,-0.53,0.195
17:53:38.344,-0.515,0.195
17:53:38.348,-0.515,0.18
17:53:38.352,-0.525,0.185
17:53:38.356,-0.53,0.185
17:53:38.360,-0.555,0.21
17:53:38.364,-0.555,0.215
17:53:38.368,-0.55,0.215
17:53:38.372,-0.54,0.195
17:53:38.376,-0.555,0.22
17:53:38.380,-0.55,0.245
17:53:38.384,-0.53,0.245
17:53:38.388,-0.51,0.25
17:53:38.392,-0.515,0.275
17:53:38.396,-0.54,0.27
17:53:38.400,-0.55,0.28
17:53:38.404,-0.535,0.28
17:53:38.408,-0.545,0.29
17:53:38.412,-0.56,0.305
17:53:38.416,-0.54,0.295
17:53:38.420,-0.56,0.325
17:53:38.424,-0.53,0.33
17:53:38.428,-0.53,0.33
17:53:38.432,-0.52,0.335
17:53:38.436,-0.495,0.33
17:53:38.440,-0.505,0.32
17:53:38.444,-0.5,0.32
17:53:38.448,-0.495,0.305
17:53:38.452,-0.505,0.31
17:53:38.456,-0.47,0.29
17:53:38.460,-0.47,0.28
17:53:38.464,-0.455,0.26
17:53:38.468,-0.435,0.25
17:53:38.472,-0.425,0.22
17:53:38.476,-0.41,0.205
17:53:38.480,-0.405,0.18
17:53:38.484,-0.36,0.165
17:53:38.488,-0.37,0.14
17:53:38.492,-0.35,0.135
17:53:38.496,-0.32,0.115
17:53:38.500,-0.31,0.075
17:53:38.504,-0.305,0.075
17:53:38.508,-0.295,0.045
17:53:38.512,-0.29,0.035
17:53:38.516,-0.27,0.03
17:53:38.520,-0.27,0.025
17:53:38.524,-0.24,0.0
17:53:38.528,-0.21,-0.01
17:53:38.532,-0.22,-0.025
17:53:38.536,-0.23,0.005
17:53:38.540,-0.22,-0.005
17:53:38.544,-0.21,-0.015
17:53:38.548,-0.205,-0.015
17:53:38.552,-0.195,-0.015
17:53:38.556,-0.215,-0.025
17:53:38.560,-0.21,-0.01
17:53:38.564,-0.22,0.0
17:53:38.568,-0.22,-0.005
17:53:38.572,-0.235,-0.01
17:53:38.576,-0.2,-0.05
17:53:38.580,-0.215,-0.02
17:53:38.584,-0.22,-0.025
17:53:38.588,-0.225,-0.005
17:53:38.592,-0.225,-0.01
17:53:38.596,-0.22,0.0
17:53:38.600,-0.23,-0.035
17:53:38.604,-0.225,-0.005
17:53:38.608,-0.235,-0.01
17:53:38.612,-0.22,-0.005
17:53:38.616,-0.23,0.0
17:53:38.620,-0.215,0.005
17:53:38.624,-0.205,0.015
17:53:38.628,-0.195,-0.01
17:53:38.632,-0.175,-0.02
17:53:38.636,-0.175,0.0
17:53:38.640,-0.14,0.015
17:53:38.644,-0.155,0.015
17:53:38.648,-0.14,0.005
17:53:38.652,-0.14,0.015
17:53:38.656,-0.12,0.03
17:53:38.660,-0.085,0.035
17:53:38.664,-0.065,0.06
17:53:38.668,-0.005,0.075
17:53:38.672,0.02,0.08
17:53:38.676,0.055,0.095
17:53:38.680,0.075,0.075
17:53:38.684,0.095,0.045
17:53:38.688,0.125,0.075
17:53:38.692,0.135,0.06
17:53:38.696,0.12,0.01
17:53:38.700,0.075,-0.015
17:53:38.704,0.04,-0.045
17:53:38.708,-0.01,-0.065
17:53:38.712,-0.055,-0.09
17:53:38.716,-0.135,-0.07
17:53:38.720,-0.2,-0.07
17:53:38.724,-0.24,-0.04
17:53:38.728,-0.27,-0.01
17:53:38.732,-0.32,0.0
17:53:38.736,-0.325,0.01
17:53:38.740,-0.315,0.005
17:53:38.744,-0.315,-0.01
17:53:38.748,-0.32,-0.02
17:53:38.752,-0.305,-0.04
17:53:38.756,-0.305,-0.01
17:53:38.760,-0.305,-0.03
17:53:38.764,-0.3,-0.04
17:53:38.768,-0.3,-0.05
17:53:38.772,-0.295,-0.025
17:53:38.776,-0.28,-0.03
17:53:38.780,-0.27,-0.03
17:53:38.784,-0.28,-0.02
17:53:38.788,-0.275,-0.02
17:53:38.792,-0.26,-0.035
17:53:38.796,-0.275,-0.02
17:53:38.800,-0.27,-0.03
17:53:38.804,-0.25,-0.05
17:53:38.808,-0.265,-0.015
17:53:38.812,-0.255,-0.01
17:53:38.816,-0.265,-0.015
17:53:38.820,-0.255,-0.015
17:53:38.824,-0.255,-0.025
17:53:38.828,-0.27,-0.03
17:53:38.832,-0.25,-0.02
17:53:38.836,-0.24,-0.02
17:53:38.840,-0.22,-0.02
17:53:38.844,-0.195,-0.02
17:53:38.848,-0.125,-0.025
17:53:38.852,-0.055,-0.045
17:53:38.856,0.06,-0.075
17:53:38.860,0.15,-0.11
17:53:38.864,0.2,-0.19
17:53:38.868,0.285,-0.29
17:53:38.872,0.335,-0.38
17:53:38.876,0.355,-0.49
17:53:38.880,0.365,-0.675
17:53:38.884,0.39,-0.895
17:53:38.888,0.505,-1.17
17:53:38.892,0.805,-1.475
17:53:38.896,1.135,-1.805
17:53:38.900,1.365,-2.06
17:53:38.904,1.275,-2.16
17:53:38.908,0.825,-2.05
17:53:38.912,0.215,-1.605
17:53:38.916,-0.19,-1.095
17:53:38.920,-0.36,-0.725
17:53:38.924,-0.43,-0.465
17:53:38.928,-0.425,-0.285
17:53:38.932,-0.39,-0.12
17:53:38.936,-0.415,-0.005
17:53:38.940,-0.46,0.095
17:53:38.944,-0.455,0.125
17:53:38.948,-0.46,0.16
17:53:38.952,-0.465,0.19
17:53:38.956,-0.475,0.175
17:53:38.960,-0.48,0.2
17:53:38.964,-0.48,0.205
17:53:38.968,-0.495,0.18
17:53:38.972,-0.495,0.205
17:53:38.976,-0.51,0.22
17:53:38.980,-0.5,0.21
17:53:38.984,-0.5,0.23
17:53:38.988,-0.495,0.22
17:53:38.992,-0.51,0.225
17:53:38.996,-0.525,0.245
17:53:39.000,-0.52,0.225
17:53:39.004,-0.505,0.22
17:53:39.008,-0.505,0.225
17:53:39.012,-0.525,0.22
17:53:39.016,-0.525,0.235
17:53:39.020,-0.535,0.25
17:53:39.024,-0.53,0.26
17:53:39.028,-0.555,0.26
17:53:39.032,-0.555,0.26
17:53:39.036,-0.555,0.28
17:53:39.040,-0.555,0.265
17:53:39.044,-0.555,0.3
17:53:39.048,-0.55,0.275
17:53:39.052,-0.55,0.285
17:53:39.056,-0.53,0.295
17:53:39.060,-0.525,0.305
17:53:39.064,-0.51,0.335
17:53:39.068,-0.515,0.335
17:53:39.072,-0.52,0.335
17:53:39.076,-0.525,0.34
17:53:39.080,-0.525,0.335
17:53:39.084,-0.5,0.315
17:53:39.088,-0.495,0.325
17:53:39.092,-0.49,0.33
17:53:39.096,-0.46,0.325
17:53:39.100,-0.45,0.3
17:53:39.104,-0.46,0.28
17:53:39.108,-0.44,0.25
17:53:39.112,-0.46,0.265
17:53:39.116,-0.445,0.245
17:53:39.120,-0.43,0.215
17:53:39.124,-0.41,0.19
17:53:39.128,-0.41,0.17
17:53:39.132,-0.375,0.14
17:53:39.136,-0.365,0.12
17:53:39.140,-0.36,0.105
17:53:39.144,-0.33,0.075
17:53:39.148,-0.315,0.065
17:53:39.152,-0.3,0.045
17:53:39.156,-0.3,0.045
17:53:39.160,-0.275,0.025
17:53:39.164,-0.27,0.015
17:53:39.168,-0.25,0.02
17:53:39.172,-0.245,0.02
17:53:39.176,-0.24,0.01
17:53:39.180,-0.215,0.005
17:53:39.184,-0.21,-0.005
17:53:39.188,-0.2,0.005
17:53:39.192,-0.2,0.025
17:53:39.196,-0.205,0.01
17:53:39.200,-0.205,0.005
17:53:39.204,-0.21,0.02
17:53:39.208,-0.185,0.03
17:53:39.212,-0.19,0.025
17:53:39.216,-0.185,0.0
17:53:39.220,-0.19,0.035
17:53:39.224,-0.205,0.025
17:53:39.228,-0.2,0.01
17:53:39.232,-0.215,0.03
17:53:39.236,-0.195,0.025
17:53:39.240,-0.22,0.04
17:53:39.244,-0.215,0.045
17:53:39.248,-0.215,0.04
17:53:39.252,-0.2,0.03
17:53:39.256,-0.175,0.015
17:53:39.260,-0.165,0.04
17:53:39.264,-0.16,0.04
17:53:39.268,-0.18,0.06
17:53:39.272,-0.16,0.065
17:53:39.276,-0.105,0.07
17:53:39.280,-0.065,0.085
17:53:39.284,-0.035,0.085
17:53:39.288,-0.005,0.115
17:53:39.292,0.02,0.1
17:53:39.296,0.025,0.09
17:53:39.300,0.06,0.07
17:53:39.304,0.09,0.08
17:53:39.308,0.105,0.065
17:53:39.312,0.1,0.025
17:53:39.316,0.035,-0.04
17:53:39.320,0.01,-0.045
17:53:39.324,-0.055,-0.05
17:53:39.328,-0.095,-0.055
17:53:39.332,-0.17,-0.04
17:53:39.336,-0.23,-0.04
17:53:39.340,-0.29,0.0
17:53:39.344,-0.315,0.055
17:53:39.348,-0.345,0.065
17:53:39.352,-0.345,0.045
17:53:39.356,-0.34,0.015
17:53:39.360,-0.34,0.05
17:53:39.364,-0.34,0.045
17:53:39.368,-0.355,0.035
17:53:39.372,-0.33,0.035
17:53:39.376,-0.32,0.01
17:53:39.380,-0.34,0.02
17:53:39.384,-0.335,0.015
17:53:39.388,-0.345,0.015
17:53:39.392,-0.325,0.005
17:53:39.396,-0.31,0.0
17:53:39.400,-0.31,0.0
17:53:39.404,-0.3,0.0
17:53:39.408,-0.3,0.01
17:53:39.412,-0.315,0.03
17:53:39.416,-0.31,-0.005
17:53:39.420,-0.305,0.01
17:53:39.424,-0.3,-0.005
17:53:39.428,-0.275,0.01
17:53:39.432,-0.28,0.015
17:53:39.436,-0.295,0.02
17:53:39.440,-0.255,0.01
17:53:39.444,-0.28,0.005
17:53:39.448,-0.265,0.015
17:53:39.452,-0.245,0.025
17:53:39.456,-0.23,0.035
17:53:39.460,-0.215,0.04
17:53:39.464,-0.14,0.02
17:53:39.468,-0.065,0.005
17:53:39.472,0.0,-0.005
17:53:39.476,0.09,-0.045
17:53:39.480,0.17,-0.085
17:53:39.484,0.215,-0.19
17:53:39.488,0.255,-0.285
17:53:39.492,0.255,-0.38
17:53:39.496,0.265,-0.545
17:53:39.500,0.25,-0.77
17:53:39.504,0.345,-1.045
17:53:39.508,0.615,-1.35
17:53:39.512,0.955,-1.705
17:53:39.516,1.23,-2.01
17:53:39.520,1.275,-2.17
17:53:39.524,0.97,-2.1
17:53:39.528,0.44,-1.725
17:53:39.532,-0.08,-1.145
17:53:39.536,-0.325,-0.75
17:53:39.540,-0.41,-0.495
17:53:39.544,-0.41,-0.31
17:53:39.548,-0.42,-0.14
17:53:39.552,-0.425,0.0
17:53:39.556,-0.43,0.095
17:53:39.560,-0.45,0.155
17:53:39.564,-0.445,0.2
17:53:39.568,-0.465,0.22
17:53:39.572,-0.43,0.235
17:53:39.576,-0.44,0.245
17:53:39.580,-0.44,0.24
17:53:39.584,-0.435,0.25
17:53:39.588,-0.455,0.25
17:53:39.592,-0.44,0.26
17:53:39.596,-0.445,0.255
17:53:39.600,-0.435,0.28
17:53:39.604,-0.445,0.27
17:53:39.608,-0.44,0.29
17:53:39.612,-0.445,0.285
17:53:39.616,-0.44,0.295
17:53:39.620,-0.45,0.295
17:53:39.624,-0.455,0.295
17:53:39.628,-0.44,0.31
17:53:39.632,-0.48,0.29
17:53:39.636,-0.465,0.3
17:53:39.640,-0.495,0.32
17:53:39.644,-0.48,0.305
17:53:39.648,-0.48,0.33
17:53:39.652,-0.495,0.305
17:53:39.656,-0.48,0.31
17:53:39.660,-0.475,0.295
17:53:39.664,-0.47,0.33
17:53:39.668,-0.495,0.325
17:53:39.672,-0.495,0.325
17:53:39.676,-0.47,0.355
17:53:39.680,-0.485,0.335
17:53:39.684,-0.48,0.335
17:53:39.688,-0.465,0.345
17:53:39.692,-0.46,0.355
17:53:39.696,-0.465,0.38
17:53:39.700,-0.445,0.36
17:53:39.704,-0.435,0.34
17:53:39.708,-0.41,0.34
17:53:39.712,-0.39,0.33
17:53:39.716,-0.405,0.33
17:53:39.720,-0.39,0.315
17:53:39.724,-0.375,0.295
17:53:39.728,-0.375,0.295
17:53:39.732,-0.355,0.265
17:53:39.736,-0.355,0.25
17:53:39.740,-0.325,0.225
17:53:39.744,-0.315,0.22
17:53:39.748,-0.29,0.175
17:53:39.752,-0.3,0.16
17:53:39.756,-0.29,0.16
17:53:39.760,-0.29,0.14
17:53:39.764,-0.26,0.09
17:53:39.768,-0.265,0.085
17:53:39.772,-0.255,0.06
17:53:39.776,-0.26,0.06
17:53:39.780,-0.235,0.06
17:53:39.784,-0.235,0.04
17:53:39.788,-0.205,0.015
17:53:39.792,-0.215,0.02
17:53:39.796,-0.22,0.005
17:53:39.800,-0.19,0.005
17:53:39.804,-0.19,0.005
17:53:39.808,-0.175,0.0
17:53:39.812,-0.195,0.005
17:53:39.816,-0.2,0.01
17:53:39.820,-0.195,-0.005
17:53:39.824,-0.195,-0.005
17:53:39.828,-0.19,0.005
17:53:39.832,-0.15,0.005
17:53:39.836,-0.165,0.005
17:53:39.840,-0.165,0.015
17:53:39.844,-0.185,0.025
17:53:39.848,-0.175,0.025
17:53:39.852,-0.195,0.005
17:53:39.856,-0.2,0.01
17:53:39.860,-0.19,0.01
17:53:39.864,-0.195,0.03
17:53:39.868,-0.205,0.025
17:53:39.872,-0.19,0.03
17:53:39.876,-0.19,0.05
17:53:39.880,-0.15,0.03
17:53:39.884,-0.145,0.015
17:53:39.888,-0.155,0.02
17:53:39.892,-0.165,0.04
17:53:39.896,-0.175,0.045
17:53:39.900,-0.14,0.05
17:53:39.904,-0.08,0.06
17:53:39.908,-0.04,0.06
17:53:39.912,-0.005,0.08
17:53:39.916,0.0,0.09
17:53:39.920,0.015,0.055
17:53:39.924,0.04,0.035
17:53:39.928,0.06,0.02
17:53:39.932,0.075,0.03
17:53:39.936,0.095,-0.005
17:53:39.940,0.07,-0.045
17:53:39.944,0.005,-0.085
17:53:39.948,-0.01,-0.09
17:53:39.952,-0.06,-0.11
17:53:39.956,-0.135,-0.125
17:53:39.960,-0.205,-0.105
17:53:39.964,-0.245,-0.065
17:53:39.968,-0.275,-0.04
17:53:39.972,-0.315,0.0
17:53:39.976,-0.32,0.04
17:53:39.980,-0.35,0.035
17:53:39.984,-0.335,0.015
17:53:39.988,-0.34,0.005
17:53:39.992,-0.325,-0.005
17:53:39.996,-0.34,-0.035
17:53:40.000,-0.33,-0.02
17:53:40.004,-0.32,-0.015
17:53:40.008,-0.315,-0.025
17:53:40.012,-0.32,-0.015
17:53:40.016,-0.32,-0.035
17:53:40.020,-0.32,-0.04
17:53:40.024,-0.32,-0.055
17:53:40.028,-0.325,-0.05
17:53:40.032,-0.34,-0.05
17:53:40.036,-0.32,-0.06
17:53:40.040,-0.32,-0.045
17:53:40.044,-0.315,-0.055
17:53:40.048,-0.31,-0.06
17:53:40.052,-0.32,-0.07
17:53:40.056,-0.305,-0.055
17:53:40.060,-0.305,-0.06
17:53:40.064,-0.31,-0.075
17:53:40.068,-0.32,-0.07
17:53:40.072,-0.32,-0.06
17:53:40.076,-0.31,-0.08
17:53:40.080,-0.31,-0.055
17:53:40.084,-0.275,-0.065
17:53:40.088,-0.24,-0.055
17:53:40.092,-0.16,-0.07
17:53:40.096,-0.07,-0.08
17:53:40.100,0.03,-0.12
17:53:40.104,0.125,-0.15
17:53:40.108,0.2,-0.24
17:53:40.112,0.24,-0.32
17:53:40.116,0.24,-0.405
17:53:40.120,0.245,-0.54
17:53:40.124,0.24,-0.78
17:53:40.128,0.265,-1.0
17:53:40.132,0.42,-1.32
17:53:40.136,0.735,-1.675
17:53:40.140,1.04,-2.015
17:53:40.144,1.185,-2.245
17:53:40.148,1.025,-2.315
17:53:40.152,0.55,-2.075
17:53:40.156,0.02,-1.56
17:53:40.160,-0.31,-1.06
17:53:40.164,-0.435,-0.735
17:53:40.168,-0.485,-0.495
17:53:40.172,-0.47,-0.3
17:53:40.176,-0.45,-0.135
17:53:40.180,-0.47,-0.015
17:53:40.184,-0.485,0.05
17:53:40.188,-0.49,0.1
17:53:40.192,-0.51,0.12
17:53:40.196,-0.53,0.125
17:53:40.200,-0.535,0.13
17:53:40.204,-0.525,0.135
17:53:40.208,-0.53,0.155
17:53:40.212,-0.545,0.15
17:53:40.216,-0.535,0.155
17:53:40.220,-0.525,0.165
17:53:40.224,-0.525,0.185
17:53:40.228,-0.54,0.185
17:53:40.232,-0.53,0.195
17:53:40.236,-0.52,0.19
17:53:40.240,-0.53,0.205
17:53:40.244,-0.515,0.2
17:53:40.248,-0.545,0.19
17:53:40.252,-0.555,0.19
17:53:40.256,-0.545,0.22
17:53:40.260,-0.55,0.245
17:53:40.264,-0.535,0.23
17:53:40.268,-0.56,0.215
17:53:40.272,-0.555,0.22
17:53:40.276,-0.53,0.24
17:53:40.280,-0.55,0.24
17:53:40.284,-0.585,0.26
17:53:40.288,-0.585,0.245
17:53:40.292,-0.58,0.265
17:53:40.296,-0.575,0.235
17:53:40.300,-0.59,0.24
17:53:40.304,-0.585,0.25
17:53:40.308,-0.575,0.255
17:53:40.312,-0.56,0.265
17:53:40.316,-0.53,0.26
17:53:40.320,-0.54,0.23
17:53:40.324,-0.55,0.245
17:53:40.328,-0.54,0.25
17:53:40.332,-0.545,0.25
17:53:40.336,-0.53,0.26
17:53:40.340,-0.51,0.225
17:53:40.344,-0.49,0.22
17:53:40.348,-0.47,0.225
17:53:40.352,-0.45,0.205
17:53:40.356,-0.45,0.18
17:53:40.360,-0.42,0.17
17:53:40.364,-0.415,0.155
17:53:40.368,-0.41,0.125
17:53:40.372,-0.405,0.11
17:53:40.376,-0.375,0.12
17:53:40.380,-0.37,0.085
17:53:40.384,-0.355,0.065
17:53:40.388,-0.335,0.06
17:53:40.392,-0.325,0.04
17:53:40.396,-0.325,0.045
17:53:40.400,-0.305,0.035
17:53:40.404,-0.305,0.005
17:53:40.408,-0.29,-0.005
17:53:40.412,-0.285,-0.005
17:53:40.416,-0.28,-0.03
17:53:40.420,-0.295,-0.025
17:53:40.424,-0.285,-0.03
17:53:40.428,-0.26,-0.035
17:53:40.432,-0.245,-0.05
17:53:40.436,-0.25,-0.045
17:53:40.440,-0.26,-0.04
17:53:40.444,-0.265,-0.045
17:53:40.448,-0.275,-0.04
17:53:40.452,-0.26,-0.03
17:53:40.456,-0.235,-0.035
17:53:40.460,-0.25,-0.035
17:53:40.464,-0.23,-0.035
17:53:40.468,-0.23,-0.03
17:53:40.472,-0.24,-0.03
17:53:40.476,-0.23,-0.035
17:53:40.480,-0.25,-0.03
17:53:40.484,-0.26,-0.02
17:53:40.488,-0.235,0.005
17:53:40.492,-0.23,0.005
17:53:40.496,-0.225,-0.005
17:53:40.500,-0.235,-0.015
17:53:40.504,-0.225,-0.01
17:53:40.508,-0.235,-0.01
17:53:40.512,-0.21,0.0
17:53:40.516,-0.215,-0.005
17:53:40.520,-0.17,0.0
17:53:40.524,-0.2,0.005
17:53:40.528,-0.2,0.02
17:53:40.532,-0.185,0.02
17:53:40.536,-0.15,0.04
17:53:40.540,-0.11,0.035
17:53:40.544,-0.08,0.035
17:53:40.548,-0.055,0.03
17:53:40.552,-0.025,0.035
17:53:40.556,0.005,0.03
17:53:40.560,0.015,0.02
17:53:40.564,0.035,0.0
17:53:40.568,0.06,-0.025
17:53:40.572,0.06,-0.025
17:53:40.576,0.005,-0.07
17:53:40.580,-0.04,-0.085
17:53:40.584,-0.11,-0.115
17:53:40.588,-0.135,-0.115
17:53:40.592,-0.2,-0.09
17:53:40.596,-0.25,-0.085
17:53:40.600,-0.315,-0.1
17:53:40.604,-0.35,-0.065
17:53:40.608,-0.38,-0.025
17:53:40.612,-0.39,-0.02
17:53:40.616,-0.36,-0.035
17:53:40.620,-0.365,-0.06
17:53:40.624,-0.345,-0.045
17:53:40.628,-0.355,-0.065
17:53:40.632,-0.33,-0.07
17:53:40.636,-0.335,-0.065
17:53:40.640,-0.335,-0.08
17:53:40.644,-0.34,-0.08
17:53:40.648,-0.34,-0.07
17:53:40.652,-0.33,-0.08
17:53:40.656,-0.315,-0.075
17:53:40.660,-0.335,-0.07
17:53:40.664,-0.325,-0.075
17:53:40.668,-0.34,-0.07
17:53:40.672,-0.365,-0.085
17:53:40.676,-0.36,-0.09
17:53:40.680,-0.355,-0.065
17:53:40.684,-0.345,-0.06
17:53:40.688,-0.335,-0.095
17:53:40.692,-0.335,-0.07
17:53:40.696,-0.33,-0.07
17:53:40.700,-0.345,-0.095
17:53:40.704,-0.31,-0.105
17:53:40.708,-0.325,-0.105
17:53:40.712,-0.32,-0.105
17:53:40.716,-0.285,-0.105
17:53:40.720,-0.255,-0.095
17:53:40.724,-0.195,-0.095
17:53:40.728,-0.115,-0.11
17:53:40.732,-0.005,-0.135
17:53:40.736,0.11,-0.19
17:53:40.740,0.23,-0.235
17:53:40.744,0.295,-0.31
17:53:40.748,0.36,-0.41
17:53:40.752,0.405,-0.505
17:53:40.756,0.41,-0.68
17:53:40.760,0.395,-0.88
17:53:40.764,0.52,-1.145
17:53:40.768,0.755,-1.465
17:53:40.772,1.1,-1.805
17:53:40.776,1.27,-2.075
17:53:40.780,1.175,-2.155
17:53:40.784,0.73,-2.03
17:53:40.788,0.15,-1.535
17:53:40.792,-0.22,-1.06
17:53:40.796,-0.365,-0.72
17:53:40.800,-0.405,-0.495
17:53:40.804,-0.4,-0.315
17:53:40.808,-0.405,-0.16
17:53:40.812,-0.46,-0.045
17:53:40.816,-0.495,0.04
17:53:40.820,-0.51,0.07
17:53:40.824,-0.52,0.09
17:53:40.828,-0.515,0.095
17:53:40.832,-0.505,0.115
17:53:40.836,-0.495,0.115
17:53:40.840,-0.515,0.145
17:53:40.844,-0.505,0.12
17:53:40.848,-0.525,0.135
17:53:40.852,-0.51,0.105
17:53:40.856,-0.53,0.145
17:53:40.860,-0.54,0.145
17:53:40.864,-0.535,0.13
17:53:40.868,-0.545,0.135
17:53:40.872,-0.545,0.17
17:53:40.876,-0.545,0.14
17:53:40.880,-0.52,0.16
17:53:40.884,-0.5,0.18
17:53:40.888,-0.525,0.17
17:53:40.892,-0.52,0.185
17:53:40.896,-0.55,0.205
17:53:40.900,-0.535,0.18
17:53:40.904,-0.57,0.215
17:53:40.908,-0.555,0.22
17:53:40.912,-0.575,0.235
17:53:40.916,-0.56,0.205
17:53:40.920,-0.58,0.225
17:53:40.924,-0.57,0.225
17:53:40.928,-0.585,0.24
17:53:40.932,-0.575,0.23
17:53:40.936,-0.56,0.235
17:53:40.940,-0.605,0.235
17:53:40.944,-0.59,0.235
17:53:40.948,-0.57,0.245
17:53:40.952,-0.57,0.25
17:53:40.956,-0.57,0.245
17:53:40.960,-0.54,0.22
17:53:40.964,-0.53,0.225
17:53:40.968,-0.52,0.225
17:53:40.972,-0.5,0.195
17:53:40.976,-0.495,0.215
17:53:40.980,-0.485,0.165
17:53:40.984,-0.48,0.165
17:53:40.988,-0.45,0.13
17:53:40.992,-0.455,0.11
17:53:40.996,-0.45,0.105
17:53:41.000,-0.43,0.09
17:53:41.004,-0.415,0.05
17:53:41.008,-0.375,0.06
17:53:41.012,-0.355,0.03
17:53:41.016,-0.34,0.005
17:53:41.020,-0.33,-0.005
17:53:41.024,-0.31,0.0
17:53:41.028,-0.295,-0.015
17:53:41.032,-0.305,-0.025
17:53:41.036,-0.29,-0.055
17:53:41.040,-0.265,-0.055
17:53:41.044,-0.26,-0.04
17:53:41.048,-0.26,-0.055
17:53:41.052,-0.265,-0.05
17:53:41.056,-0.285,-0.08
17:53:41.060,-0.275,-0.1
17:53:41.064,-0.27,-0.07
17:53:41.068,-0.26,-0.08
17:53:41.072,-0.255,-0.08
17:53:41.076,-0.26,-0.105
17:53:41.080,-0.245,-0.075
17:53:41.084,-0.255,-0.07
17:53:41.088,-0.275,-0.07
17:53:41.092,-0.255,-0.09
17:53:41.096,-0.275,-0.075
17:53:41.100,-0.24,-0.09
17:53:41.104,-0.27,-0.075
17:53:41.108,-0.25,-0.07
17:53:41.112,-0.265,-0.065
17:53:41.116,-0.26,-0.06
17:53:41.120,-0.265,-0.065
17:53:41.124,-0.265,-0.08
17:53:41.128,-0.26,-0.055
17:53:41.132,-0.24,-0.05
17:53:41.136,-0.225,-0.045
17:53:41.140,-0.18,-0.045
17:53:41.144,-0.185,-0.07
17:53:41.148,-0.17,-0.065
17:53:41.152,-0.185,-0.025
17:53:41.156,-0.185,-0.015
17:53:41.160,-0.165,-0.035
17:53:41.164,-0.145,-0.015
17:53:41.168,-0.095,0.005
17:53:41.172,-0.05,0.0
17:53:41.176,-0.025,0.035
17:53:41.180,-0.01,0.025
17:53:41.184,0.005,0.005
17:53:41.188,0.025,0.0
17:53:41.192,0.04,-0.005
17:53:41.196,0.05,-0.04
17:53:41.200,0.06,-0.05
17:53:41.204,0.02,-0.1
17:53:41.208,-0.03,-0.12
17:53:41.212,-0.065,-0.165
17:53:41.216,-0.13,-0.155
17:53:41.220,-0.18,-0.16
17:53:41.224,-0.24,-0.125
17:53:41.228,-0.285,-0.12
17:53:41.232,-0.345,-0.075
17:53:41.236,-0.37,-0.055
17:53:41.240,-0.395,-0.07
17:53:41.244,-0.37,-0.05
17:53:41.248,-0.39,-0.055
17:53:41.252,-0.385,-0.065
17:53:41.256,-0.37,-0.07
17:53:41.260,-0.35,-0.08
17:53:41.264,-0.375,-0.09
17:53:41.268,-0.38,-0.08
17:53:41.272,-0.34,-0.065
17:53:41.276,-0.35,-0.065
17:53:41.280,-0.34,-0.085
17:53:41.284,-0.33,-0.085
17:53:41.288,-0.34,-0.075
17:53:41.292,-0.345,-0.065
17:53:41.296,-0.335,-0.05
17:53:41.300,-0.33,-0.07
17:53:41.304,-0.31,-0.08
17:53:41.308,-0.325,-0.075
17:53:41.312,-0.34,-0.07
17:53:41.316,-0.35,-0.065
17:53:41.320,-0.31,-0.07
17:53:41.324,-0.35,-0.08
17:53:41.328,-0.36,-0.075
17:53:41.332,-0.35,-0.075
17:53:41.336,-0.32,-0.055
17:53:41.340,-0.335,-0.07
17:53:41.344,-0.305,-0.075
17:53:41.348,-0.285,-0.085
17:53:41.352,-0.225,-0.08
17:53:41.356,-0.135,-0.11
17:53:41.360,-0.02,-0.115
17:53:41.364,0.04,-0.14
17:53:41.368,0.13,-0.205
17:53:41.372,0.19,-0.285
17:53:41.376,0.205,-0.395
17:53:41.380,0.215,-0.475
17:53:41.384,0.235,-0.64
17:53:41.388,0.235,-0.835
17:53:41.392,0.34,-1.08
17:53:41.396,0.595,-1.37
17:53:41.400,0.96,-1.72
17:53:41.404,1.255,-2.0
17:53:41.408,1.305,-2.195
17:53:41.412,0.995,-2.135
17:53:41.416,0.41,-1.735
17:53:41.420,-0.09,-1.175
17:53:41.424,-0.345,-0.785
17:53:41.428,-0.435,-0.53
17:53:41.432,-0.45,-0.34
17:53:41.436,-0.415,-0.175
17:53:41.440,-0.425,-0.04
17:53:41.444,-0.445,0.06
17:53:41.448,-0.46,0.085
17:53:41.452,-0.465,0.125
17:53:41.456,-0.47,0.145
17:53:41.460,-0.485,0.16
17:53:41.464,-0.49,0.15
17:53:41.468,-0.505,0.165
17:53:41.472,-0.49,0.175
17:53:41.476,-0.48,0.205
17:53:41.480,-0.48,0.185
17:53:41.484,-0.485,0.19
17:53:41.488,-0.47,0.195
17:53:41.492,-0.48,0.185
17:53:41.496,-0.475,0.195
17:53:41.500,-0.49,0.205
17:53:41.504,-0.49,0.21
17:53:41.508,-0.475,0.23
17:53:41.512,-0.51,0.24
17:53:41.516,-0.505,0.24
17:53:41.520,-0.51,0.235
17:53:41.524,-0.525,0.245
17:53:41.528,-0.515,0.275
17:53:41.532,-0.53,0.27
17:53:41.536,-0.505,0.265
17:53:41.540,-0.5,0.26
17:53:41.544,-0.52,0.285
17:53:41.548,-0.5,0.3
17:53:41.552,-0.495,0.295
17:53:41.556,-0.51,0.305
17:53:41.560,-0.505,0.31
17:53:41.564,-0.5,0.3
17:53:41.568,-0.505,0.305
17:53:41.572,-0.505,0.325
17:53:41.576,-0.495,0.325
17:53:41.580,-0.495,0.31
17:53:41.584,-0.48,0.305
17:53:41.588,-0.475,0.29
17:53:41.592,-0.48,0.31
17:53:41.596,-0.48,0.295
17:53:41.600,-0.45,0.265
17:53:41.604,-0.45,0.255
17:53:41.608,-0.46,0.24
17:53:41.612,-0.44,0.235
17:53:41.616,-0.43,0.2
17:53:41.620,-0.43,0.19
17:53:41.624,-0.4,0.15
17:53:41.628,-0.385,0.145
17:53:41.632,-0.37,0.15
17:53:41.636,-0.37,0.125
17:53:41.640,-0.335,0.095
17:53:41.644,-0.32,0.095
17:53:41.648,-0.3,0.06
17:53:41.652,-0.305,0.045
17:53:41.656,-0.275,0.05
17:53:41.660,-0.25,0.045
17:53:41.664,-0.215,0.04
17:53:41.668,-0.22,0.02
17:53:41.672,-0.205,-0.005
17:53:41.676,-0.205,0.0
17:53:41.680,-0.21,0.005
17:53:41.684,-0.215,-0.005
17:53:41.688,-0.205,-0.015
17:53:41.692,-0.19,-0.03
17:53:41.696,-0.21,-0.025
17:53:41.700,-0.2,-0.01
17:53:41.704,-0.2,-0.01
17:53:41.708,-0.18,-0.015
17:53:41.712,-0.195,-0.02
17:53:41.716,-0.185,-0.01
17:53:41.720,-0.195,0.0
17:53:41.724,-0.205,-0.015
17:53:41.728,-0.21,0.005
17:53:41.732,-0.215,0.0
17:53:41.736,-0.21,-0.01
17:53:41.740,-0.195,-0.02
17:53:41.744,-0.2,-0.005
17:53:41.748,-0.19,0.005
17:53:41.752,-0.18,0.015
17:53:41.756,-0.155,0.01
17:53:41.760,-0.14,0.01
17:53:41.764,-0.13,0.005
17:53:41.768,-0.15,0.045
17:53:41.772,-0.135,0.035
17:53:41.776,-0.105,0.055
17:53:41.780,-0.045,0.045
17:53:41.784,0.0,0.075
17:53:41.788,0.03,0.075
17:53:41.792,0.045,0.07
17:53:41.796,0.065,0.07
17:53:41.800,0.08,0.06
17:53:41.804,0.09,0.04
17:53:41.808,0.095,0.0
17:53:41.812,0.065,-0.015
17:53:41.816,0.015,-0.08
17:53:41.820,-0.015,-0.07
17:53:41.824,-0.085,-0.1
17:53:41.828,-0.145,-0.085
17:53:41.832,-0.195,-0.075
17:53:41.836,-0.27,-0.055
17:53:41.840,-0.325,-0.025
17:53:41.844,-0.345,0.0
17:53:41.848,-0.355,0.005
17:53:41.852,-0.385,0.015
17:53:41.856,-0.36,-0.025
17:53:41.860,-0.345,-0.01
17:53:41.864,-0.36,-0.02
17:53:41.868,-0.325,-0.045
17:53:41.872,-0.33,-0.04
17:53:41.876,-0.33,-0.065
17:53:41.880,-0.325,-0.06
17:53:41.884,-0.335,-0.075
17:53:41.888,-0.32,-0.045
17:53:41.892,-0.33,-0.055
17:53:41.896,-0.315,-0.075
17:53:41.900,-0.33,-0.075
17:53:41.904,-0.32,-0.065
17:53:41.908,-0.335,-0.07
17:53:41.912,-0.32,-0.045
17:53:41.916,-0.305,-0.065
17:53:41.920,-0.285,-0.07
17:53:41.924,-0.295,-0.08
17:53:41.928,-0.28,-0.05
17:53:41.932,-0.3,-0.065
17:53:41.936,-0.295,-0.04
17:53:41.940,-0.31,-0.065
17:53:41.944,-0.3,-0.07
17:53:41.948,-0.3,-0.07
17:53:41.952,-0.29,-0.065
17:53:41.956,-0.25,-0.04
17:53:41.960,-0.205,-0.07
17:53:41.964,-0.15,-0.07
17:53:41.968,-0.055,-0.105
17:53:41.972,0.03,-0.135
17:53:41.976,0.095,-0.175
17:53:41.980,0.115,-0.275
17:53:41.984,0.175,-0.35
17:53:41.988,0.18,-0.455
17:53:41.992,0.175,-0.6
17:53:41.996,0.175,-0.8
17:53:42.000,0.23,-1.035
17:53:42.004,0.405,-1.32
17:53:42.008,0.73,-1.65
17:53:42.012,1.07,-1.985
17:53:42.016,1.225,-2.205
17:53:42.020,1.045,-2.265
17:53:42.024,0.545,-1.93
17:53:42.028,0.01,-1.41
17:53:42.032,-0.335,-0.915
17:53:42.036,-0.46,-0.655
17:53:42.040,-0.47,-0.44
17:53:42.044,-0.47,-0.245
17:53:42.048,-0.46,-0.095
17:53:42.052,-0.47,0.0
17:53:42.056,-0.46,0.055
17:53:42.060,-0.475,0.095
17:53:42.064,-0.485,0.1
17:53:42.068,-0.49,0.135
17:53:42.072,-0.49,0.155
17:53:42.076,-0.505,0.155
17:53:42.080,-0.495,0.15
17:53:42.084,-0.51,0.155
17:53:42.088,-0.51,0.165
17:53:42.092,-0.5,0.2
17:53:42.096,-0.505,0.195
17:53:42.100,-0.52,0.18
17:53:42.104,-0.53,0.205
17:53:42.108,-0.54,0.185
17:53:42.112,-0.55,0.19
17:53:42.116,-0.555,0.215
17:53:42.120,-0.545,0.215
17:53:42.124,-0.555,0.23
17:53:42.128,-0.56,0.24
17:53:42.132,-0.56,0.215
17:53:42.136,-0.565,0.215
17:53:42.140,-0.56,0.23
17:53:42.144,-0.56,0.26
17:53:42.148,-0.595,0.255
17:53:42.152,-0.55,0.27
17:53:42.156,-0.575,0.245
17:53:42.160,-0.59,0.255
17:53:42.164,-0.595,0.25
17:53:42.168,-0.6,0.26
17:53:42.172,-0.575,0.275
17:53:42.176,-0.57,0.275
17:53:42.180,-0.555,0.285
17:53:42.184,-0.555,0.285
17:53:42.188,-0.54,0.295
17:53:42.192,-0.54,0.27
17:53:42.196,-0.535,0.285
17:53:42.200,-0.53,0.31
17:53:42.204,-0.53,0.255
17:53:42.208,-0.515,0.27
17:53:42.212,-0.515,0.25
17:53:42.216,-0.495,0.23
17:53:42.220,-0.495,0.23
17:53:42.224,-0.465,0.205
17:53:42.228,-0.47,0.2
17:53:42.232,-0.445,0.18
17:53:42.236,-0.45,0.17
17:53:42.240,-0.43,0.13
17:53:42.244,-0.425,0.12
17:53:42.248,-0.39,0.09
17:53:42.252,-0.39,0.075
17:53:42.256,-0.335,0.075
17:53:42.260,-0.365,0.05
17:53:42.264,-0.32,0.005
17:53:42.268,-0.31,0.0
17:53:42.272,-0.3,0.0
17:53:42.276,-0.31,0.015
17:53:42.280,-0.29,-0.005
17:53:42.284,-0.29,-0.03
17:53:42.288,-0.285,-0.025
17:53:42.292,-0.275,-0.05
17:53:42.296,-0.265,-0.045
17:53:42.300,-0.285,-0.025
17:53:42.304,-0.25,-0.03
17:53:42.308,-0.25,-0.03
17:53:42.312,-0.24,-0.03
17:53:42.316,-0.22,-0.035
17:53:42.320,-0.22,-0.02
17:53:42.324,-0.23,-0.015
17:53:42.328,-0.25,-0.02
17:53:42.332,-0.24,-0.01
17:53:42.336,-0.235,0.0
17:53:42.340,-0.265,0.01
17:53:42.344,-0.265,0.005
17:53:42.348,-0.28,0.0
17:53:42.352,-0.265,-0.005
17:53:42.356,-0.28,0.0
17:53:42.360,-0.27,-0.005
17:53:42.364,-0.28,0.0
17:53:42.368,-0.27,0.0
17:53:42.372,-0.26,-0.025
17:53:42.376,-0.255,0.01
17:53:42.380,-0.25,-0.01
17:53:42.384,-0.25,0.0
17:53:42.388,-0.245,0.005
17:53:42.392,-0.24,0.03
17:53:42.396,-0.155,0.06
17:53:42.400,-0.1,0.04
17:53:42.404,-0.08,0.055
17:53:42.408,-0.04,0.075
17:53:42.412,-0.015,0.055
17:53:42.416,0.01,0.045
17:53:42.420,0.02,0.04
17:53:42.424,0.015,0.065
17:53:42.428,0.0,0.03
17:53:42.432,-0.005,-0.02
17:53:42.436,-0.035,-0.06
17:53:42.440,-0.09,-0.105
17:53:42.444,-0.145,-0.12
17:53:42.448,-0.19,-0.09
17:53:42.452,-0.265,-0.065
17:53:42.456,-0.32,-0.06
17:53:42.460,-0.36,-0.005
17:53:42.464,-0.38,0.015
17:53:42.468,-0.41,0.02
17:53:42.472,-0.4,0.0
17:53:42.476,-0.4,0.0
17:53:42.480,-0.41,0.0
17:53:42.484,-0.4,0.0
17:53:42.488,-0.38,-0.015
17:53:42.492,-0.385,-0.035
17:53:42.496,-0.405,-0.015
17:53:42.500,-0.405,-0.04
17:53:42.504,-0.415,-0.045
17:53:42.508,-0.405,-0.055
17:53:42.512,-0.4,-0.055
17:53:42.516,-0.415,-0.06
17:53:42.520,-0.39,-0.065
17:53:42.524,-0.37,-0.06
17:53:42.528,-0.36,-0.05
17:53:42.532,-0.365,-0.07
17:53:42.536,-0.365,-0.065
17:53:42.540,-0.375,-0.06
17:53:42.544,-0.385,-0.055
17:53:42.548,-0.36,-0.06
17:53:42.552,-0.36,-0.045
17:53:42.556,-0.365,-0.045
17:53:42.560,-0.375,-0.06
17:53:42.564,-0.37,-0.07
17:53:42.568,-0.365,-0.06
17:53:42.572,-0.34,-0.065
17:53:42.576,-0.3,-0.06
17:53:42.580,-0.28,-0.055
17:53:42.584,-0.225,-0.065
17:53:42.588,-0.1,-0.065
17:53:42.592,0.0,-0.085
17:53:42.596,0.085,-0.165
17:53:42.600,0.14,-0.245
17:53:42.604,0.205,-0.32
17:53:42.608,0.23,-0.445
17:53:42.612,0.225,-0.575
17:53:42.616,0.225,-0.775
17:53:42.620,0.265,-1.05
17:53:42.624,0.41,-1.34
17:53:42.628,0.705,-1.675
17:53:42.632,0.995,-1.99
17:53:42.636,1.125,-2.245
17:53:42.640,0.94,-2.275
17:53:42.644,0.45,-2.015
17:53:42.648,-0.06,-1.45
17:53:42.652,-0.34,-0.97
17:53:42.656,-0.47,-0.67
17:53:42.660,-0.5,-0.46
17:53:42.664,-0.505,-0.285
17:53:42.668,-0.515,-0.115
17:53:42.672,-0.545,-0.01
17:53:42.676,-0.555,0.045
17:53:42.680,-0.57,0.085
17:53:42.684,-0.58,0.11
17:53:42.688,-0.585,0.11
17:53:42.692,-0.585,0.11
17:53:42.696,-0.565,0.145
17:53:42.700,-0.575,0.14
17:53:42.704,-0.555,0.155
17:53:42.708,-0.57,0.15
17:53:42.712,-0.565,0.165
17:53:42.716,-0.57,0.165
17:53:42.720,-0.56,0.16
17:53:42.724,-0.555,0.195
17:53:42.728,-0.595,0.21
17:53:42.732,-0.6,0.19
17:53:42.736,-0.595,0.2
17:53:42.740,-0.585,0.195
17:53:42.744,-0.575,0.205
17:53:42.748,-0.58,0.195
17:53:42.752,-0.575,0.21
17:53:42.756,-0.6,0.21
17:53:42.760,-0.605,0.225
17:53:42.764,-0.6,0.2
17:53:42.768,-0.62,0.22
17:53:42.772,-0.615,0.195
17:53:42.776,-0.64,0.22
17:53:42.780,-0.62,0.205
17:53:42.784,-0.62,0.215
17:53:42.788,-0.61,0.22
17:53:42.792,-0.61,0.235
17:53:42.796,-0.59,0.205
17:53:42.800,-0.61,0.245
17:53:42.804,-0.625,0.23
17:53:42.808,-0.595,0.245
17:53:42.812,-0.6,0.235
17:53:42.816,-0.615,0.235
17:53:42.820,-0.605,0.23
17:53:42.824,-0.59,0.235
17:53:42.828,-0.57,0.22
17:53:42.832,-0.57,0.22
17:53:42.836,-0.52,0.185
17:53:42.840,-0.525,0.165
17:53:42.844,-0.495,0.16
17:53:42.848,-0.49,0.15
17:53:42.852,-0.48,0.15
17:53:42.856,-0.475,0.125
17:53:42.860,-0.445,0.12
17:53:42.864,-0.45,0.105
17:53:42.868,-0.43,0.055
17:53:42.872,-0.42,0.025
17:53:42.876,-0.4,0.02
17:53:42.880,-0.395,0.01
17:53:42.884,-0.375,0.01
17:53:42.888,-0.375,-0.01
17:53:42.892,-0.37,-0.04
17:53:42.896,-0.365,-0.045
17:53:42.900,-0.375,-0.04
17:53:42.904,-0.35,-0.04
17:53:42.908,-0.37,-0.075
17:53:42.912,-0.38,-0.075
17:53:42.916,-0.36,-0.08
17:53:42.920,-0.35,-0.085
17:53:42.924,-0.335,-0.1
17:53:42.928,-0.32,-0.1
17:53:42.932,-0.33,-0.095
17:53:42.936,-0.33,-0.1
17:53:42.940,-0.345,-0.11
17:53:42.944,-0.32,-0.1
17:53:42.948,-0.325,-0.12
17:53:42.952,-0.32,-0.11
17:53:42.956,-0.32,-0.125
17:53:42.960,-0.345,-0.105
17:53:42.964,-0.33,-0.105
17:53:42.968,-0.33,-0.125
17:53:42.972,-0.32,-0.085
17:53:42.976,-0.33,-0.09
17:53:42.980,-0.32,-0.085
17:53:42.984,-0.33,-0.095
17:53:42.988,-0.315,-0.1
17:53:42.992,-0.315,-0.08
17:53:42.996,-0.335,-0.095
17:53:43.000,-0.33,-0.08
17:53:43.004,-0.33,-0.07
17:53:43.008,-0.34,-0.075
17:53:43.012,-0.305,-0.09
17:53:43.016,-0.295,-0.075
17:53:43.020,-0.275,-0.08
17:53:43.024,-0.275,-0.07
17:53:43.028,-0.265,-0.07
17:53:43.032,-0.295,-0.035
17:53:43.036,-0.24,-0.045
17:53:43.040,-0.195,-0.02
17:53:43.044,-0.165,-0.02
17:53:43.048,-0.115,-0.05
17:53:43.052,-0.065,-0.07
17:53:43.056,-0.045,-0.04
17:53:43.060,-0.02,-0.045
17:53:43.064,-0.015,-0.05
17:53:43.068,-0.04,-0.075
17:53:43.072,-0.085,-0.115
17:53:43.076,-0.145,-0.15
17:53:43.080,-0.195,-0.17
17:53:43.084,-0.24,-0.17
17:53:43.088,-0.315,-0.18
17:53:43.092,-0.35,-0.14
17:53:43.096,-0.39,-0.125
17:53:43.100,-0.425,-0.105
17:53:43.104,-0.455,-0.095
17:53:43.108,-0.455,-0.055
17:53:43.112,-0.465,-0.06
17:53:43.116,-0.45,-0.065
17:53:43.120,-0.455,-0.095
17:53:43.124,-0.465,-0.13
17:53:43.128,-0.44,-0.12
17:53:43.132,-0.45,-0.095
17:53:43.136,-0.44,-0.095
17:53:43.140,-0.42,-0.125
17:53:43.144,-0.43,-0.135
17:53:43.148,-0.42,-0.14
17:53:43.152,-0.44,-0.115
17:53:43.156,-0.435,-0.14
17:53:43.160,-0.44,-0.13
17:53:43.164,-0.43,-0.12
17:53:43.168,-0.45,-0.14
17:53:43.172,-0.45,-0.125
17:53:43.176,-0.455,-0.135
17:53:43.180,-0.45,-0.135
17:53:43.184,-0.42,-0.14
17:53:43.188,-0.44,-0.14
17:53:43.192,-0.455,-0.135
17:53:43.196,-0.44,-0.13
17:53:43.200,-0.445,-0.13
17:53:43.204,-0.43,-0.135
17:53:43.208,-0.415,-0.15
17:53:43.212,-0.365,-0.14
17:53:43.216,-0.34,-0.16
17:53:43.220,-0.28,-0.16
17:53:43.224,-0.18,-0.14
17:53:43.228,-0.07,-0.17
17:53:43.232,0.03,-0.23
17:53:43.236,0.11,-0.28
17:53:43.240,0.18,-0.365
17:53:43.244,0.25,-0.46
17:53:43.248,0.295,-0.55
17:53:43.252,0.315,-0.7
17:53:43.256,0.29,-0.93
17:53:43.260,0.385,-1.195
17:53:43.264,0.64,-1.5
17:53:43.268,0.935,-1.825
17:53:43.272,1.15,-2.07
17:53:43.276,1.08,-2.185
17:53:43.280,0.685,-2.08
17:53:43.284,0.105,-1.62
17:53:43.288,-0.295,-1.13
17:53:43.292,-0.475,-0.815
17:53:43.296,-0.51,-0.575
17:53:43.300,-0.54,-0.375
17:53:43.304,-0.515,-0.235
17:53:43.308,-0.54,-0.1
17:53:43.312,-0.57,-0.01
17:53:43.316,-0.59,0.025
17:53:43.320,-0.595,0.075
17:53:43.324,-0.62,0.055
17:53:43.328,-0.61,0.07
17:53:43.332,-0.61,0.09
17:53:43.336,-0.635,0.09
17:53:43.340,-0.63,0.115
17:53:43.344,-0.64,0.105
17:53:43.348,-0.65,0.105
17:53:43.352,-0.635,0.105
17:53:43.356,-0.63,0.115
17:53:43.360,-0.61,0.145
17:53:43.364,-0.595,0.11
17:53:43.368,-0.59,0.13
17:53:43.372,-0.6,0.115
17:53:43.376,-0.6,0.135
17:53:43.380,-0.625,0.16
17:53:43.384,-0.635,0.14
17:53:43.388,-0.62,0.16
17:53:43.392,-0.62,0.17
17:53:43.396,-0.605,0.16
17:53:43.400,-0.625,0.175
17:53:43.404,-0.62,0.2
17:53:43.408,-0.64,0.215
17:53:43.412,-0.63,0.21
17:53:43.416,-0.62,0.23
17:53:43.420,-0.64,0.21
17:53:43.424,-0.645,0.22
17:53:43.428,-0.645,0.23
17:53:43.432,-0.645,0.225
17:53:43.436,-0.63,0.245
17:53:43.440,-0.65,0.25
17:53:43.444,-0.645,0.235
17:53:43.448,-0.62,0.225
17:53:43.452,-0.62,0.23
17:53:43.456,-0.625,0.235
17:53:43.460,-0.62,0.225
17:53:43.464,-0.595,0.195
17:53:43.468,-0.57,0.22
17:53:43.472,-0.58,0.225
17:53:43.476,-0.565,0.215
17:53:43.480,-0.575,0.185
17:53:43.484,-0.55,0.155
17:53:43.488,-0.53,0.155
17:53:43.492,-0.535,0.16
17:53:43.496,-0.49,0.13
17:53:43.500,-0.465,0.125
17:53:43.504,-0.44,0.1
17:53:43.508,-0.445,0.07
17:53:43.512,-0.42,0.055
17:53:43.516,-0.4,0.01
17:53:43.520,-0.395,0.025
17:53:43.524,-0.395,0.01
17:53:43.528,-0.375,0.005
17:53:43.532,-0.365,0.0
17:53:43.536,-0.36,-0.015
17:53:43.540,-0.35,-0.02
17:53:43.544,-0.345,-0.035
17:53:43.548,-0.34,-0.045
17:53:43.552,-0.345,-0.045
17:53:43.556,-0.35,-0.07
17:53:43.560,-0.335,-0.065
17:53:43.564,-0.345,-0.07
17:53:43.568,-0.335,-0.07
17:53:43.572,-0.335,-0.08
17:53:43.576,-0.32,-0.085
17:53:43.580,-0.325,-0.065
17:53:43.584,-0.33,-0.08
17:53:43.588,-0.345,-0.09
17:53:43.592,-0.34,-0.07
17:53:43.596,-0.33,-0.075
17:53:43.600,-0.33,-0.075
17:53:43.604,-0.365,-0.08
17:53:43.608,-0.34,-0.06
17:53:43.612,-0.355,-0.055
17:53:43.616,-0.35,-0.06
17:53:43.620,-0.33,-0.05
17:53:43.624,-0.33,-0.04
17:53:43.628,-0.3,-0.075
17:53:43.632,-0.28,-0.065
17:53:43.636,-0.3,-0.06
17:53:43.640,-0.25,-0.055
17:53:43.644,-0.23,-0.04
17:53:43.648,-0.235,-0.04
17:53:43.652,-0.26,-0.04
17:53:43.656,-0.205,-0.01
17:53:43.660,-0.19,0.015
17:53:43.664,-0.155,0.02
17:53:43.668,-0.095,0.005
17:53:43.672,-0.07,0.015
17:53:43.676,-0.06,0.0
17:53:43.680,-0.015,0.0
17:53:43.684,-0.02,-0.01
17:53:43.688,0.0,0.01
17:53:43.692,0.005,-0.025
17:53:43.696,-0.04,-0.08
17:53:43.700,-0.08,-0.12
17:53:43.704,-0.13,-0.16
17:53:43.708,-0.175,-0.15
17:53:43.712,-0.215,-0.145
17:53:43.716,-0.295,-0.135
17:53:43.720,-0.335,-0.105
17:53:43.724,-0.37,-0.08
17:53:43.728,-0.425,-0.055
17:53:43.732,-0.42,-0.05
17:53:43.736,-0.43,-0.06
17:53:43.740,-0.44,-0.055
17:53:43.744,-0.42,-0.09
17:53:43.748,-0.43,-0.08
17:53:43.752,-0.405,-0.065
17:53:43.756,-0.42,-0.1
17:53:43.760,-0.42,-0.07
17:53:43.764,-0.41,-0.08
17:53:43.768,-0.41,-0.08
17:53:43.772,-0.4,-0.07
17:53:43.776,-0.385,-0.085
17:53:43.780,-0.38,-0.075
17:53:43.784,-0.405,-0.08
17:53:43.788,-0.375,-0.07
17:53:43.792,-0.395,-0.08
17:53:43.796,-0.4,-0.085
17:53:43.800,-0.385,-0.06
17:53:43.804,-0.38,-0.085
17:53:43.808,-0.385,-0.09
17:53:43.812,-0.375,-0.09
17:53:43.816,-0.395,-0.085
17:53:43.820,-0.385,-0.08
17:53:43.824,-0.38,-0.09
17:53:43.828,-0.375,-0.095
17:53:43.832,-0.365,-0.1
17:53:43.836,-0.355,-0.11
17:53:43.840,-0.325,-0.105
17:53:43.844,-0.285,-0.14
17:53:43.848,-0.22,-0.12
17:53:43.852,-0.105,-0.15
17:53:43.856,-0.025,-0.16
17:53:43.860,0.05,-0.22
17:53:43.864,0.12,-0.29
17:53:43.868,0.15,-0.41
17:53:43.872,0.175,-0.495
17:53:43.876,0.19,-0.63
17:53:43.880,0.17,-0.85
17:53:43.884,0.265,-1.09
17:53:43.888,0.475,-1.39
17:53:43.892,0.835,-1.74
17:53:43.896,1.135,-2.015
17:53:43.900,1.21,-2.205
17:53:43.904,0.95,-2.205
17:53:43.908,0.385,-1.855
17:53:43.912,-0.12,-1.305
17:53:43.916,-0.415,-0.855
17:53:43.920,-0.51,-0.59
17:53:43.924,-0.535,-0.415
17:53:43.928,-0.53,-0.235
17:53:43.932,-0.535,-0.105
17:53:43.936,-0.545,-0.03
17:53:43.940,-0.57,0.05
17:53:43.944,-0.565,0.085
17:53:43.948,-0.585,0.095
17:53:43.952,-0.59,0.11
17:53:43.956,-0.6,0.12
17:53:43.960,-0.59,0.14
17:53:43.964,-0.59,0.135
17:53:43.968,-0.575,0.135
17:53:43.972,-0.595,0.125
17:53:43.976,-0.58,0.135
17:53:43.980,-0.575,0.125
17:53:43.984,-0.585,0.155
17:53:43.988,-0.595,0.135
17:53:43.992,-0.6,0.145
17:53:43.996,-0.61,0.125
17:53:44.000,-0.59,0.135
17:53:44.004,-0.6,0.175
17:53:44.008,-0.6,0.145
17:53:44.012,-0.595,0.17
17:53:44.016,-0.59,0.17
17:53:44.020,-0.59,0.185
17:53:44.024,-0.605,0.185
17:53:44.028,-0.595,0.19
17:53:44.032,-0.6,0.19
17:53:44.036,-0.605,0.195
17:53:44.040,-0.59,0.2
17:53:44.044,-0.6,0.205
17:53:44.048,-0.61,0.205
17:53:44.052,-0.61,0.215
17:53:44.056,-0.6,0.23
17:53:44.060,-0.585,0.235
17:53:44.064,-0.605,0.215
17:53:44.068,-0.6,0.215
17:53:44.072,-0.59,0.235
17:53:44.076,-0.58,0.24
17:53:44.080,-0.585,0.24
17:53:44.084,-0.59,0.22
17:53:44.088,-0.6,0.195
17:53:44.092,-0.58,0.2
17:53:44.096,-0.57,0.205
17:53:44.100,-0.54,0.195
17:53:44.104,-0.53,0.165
17:53:44.108,-0.525,0.145
17:53:44.112,-0.495,0.135
17:53:44.116,-0.475,0.11
17:53:44.120,-0.475,0.075
17:53:44.124,-0.445,0.09
17:53:44.128,-0.45,0.04
17:53:44.132,-0.43,0.02
17:53:44.136,-0.425,0.025
17:53:44.140,-0.44,0.005
17:53:44.144,-0.4,0.01
17:53:44.148,-0.38,-0.025
17:53:44.152,-0.35,-0.02
17:53:44.156,-0.345,-0.045
17:53:44.160,-0.34,-0.045
17:53:44.164,-0.34,-0.075
17:53:44.168,-0.33,-0.06
17:53:44.172,-0.31,-0.045
17:53:44.176,-0.29,-0.06
17:53:44.180,-0.28,-0.06
17:53:44.184,-0.285,-0.07
17:53:44.188,-0.29,-0.1
17:53:44.192,-0.3,-0.09
17:53:44.196,-0.31,-0.11
17:53:44.200,-0.31,-0.075
17:53:44.204,-0.305,-0.085
17:53:44.208,-0.31,-0.09
17:53:44.212,-0.31,-0.075
17:53:44.216,-0.305,-0.05
17:53:44.220,-0.3,-0.06
17:53:44.224,-0.305,-0.06
17:53:44.228,-0.29,-0.095
17:53:44.232,-0.29,-0.08
17:53:44.236,-0.26,-0.06
17:53:44.240,-0.25,-0.055
17:53:44.244,-0.24,-0.055
17:53:44.248,-0.225,-0.05
17:53:44.252,-0.225,-0.04
17:53:44.256,-0.15,-0.02
17:53:44.260,-0.11,-0.015
17:53:44.264,-0.085,0.005
17:53:44.268,-0.06,0.025
17:53:44.272,-0.025,-0.01
17:53:44.276,0.005,0.01
17:53:44.280,0.0,0.015
17:53:44.284,0.02,0.005
17:53:44.288,0.02,-0.01
17:53:44.292,-0.015,-0.055
17:53:44.296,-0.05,-0.115
17:53:44.300,-0.13,-0.13
17:53:44.304,-0.18,-0.115
17:53:44.308,-0.245,-0.095
17:53:44.312,-0.3,-0.08
17:53:44.316,-0.36,-0.055
17:53:44.320,-0.4,-0.04
17:53:44.324,-0.42,-0.03
17:53:44.328,-0.43,-0.02
17:53:44.332,-0.425,-0.035
17:53:44.336,-0.41,-0.025
17:53:44.340,-0.42,-0.045
17:53:44.344,-0.43,-0.045
17:53:44.348,-0.43,-0.03
17:53:44.352,-0.44,-0.04
17:53:44.356,-0.435,-0.045
17:53:44.360,-0.41,-0.09
17:53:44.364,-0.4,-0.1
17:53:44.368,-0.405,-0.09
17:53:44.372,-0.385,-0.105
17:53:44.376,-0.395,-0.09
17:53:44.380,-0.4,-0.095
17:53:44.384,-0.37,-0.09
17:53:44.388,-0.385,-0.085
17:53:44.392,-0.38,-0.07
17:53:44.396,-0.39,-0.07
17:53:44.400,-0.38,-0.075
17:53:44.404,-0.385,-0.08
17:53:44.408,-0.39,-0.1
17:53:44.412,-0.35,-0.11
17:53:44.416,-0.33,-0.09
17:53:44.420,-0.34,-0.105
17:53:44.424,-0.335,-0.095
17:53:44.428,-0.33,-0.085
17:53:44.432,-0.31,-0.085
17:53:44.436,-0.285,-0.08
17:53:44.440,-0.24,-0.085
17:53:44.444,-0.17,-0.08
17:53:44.448,-0.11,-0.105
17:53:44.452,-0.01,-0.125
17:53:44.456,0.06,-0.18
17:53:44.460,0.09,-0.27
17:53:44.464,0.145,-0.38
17:53:44.468,0.15,-0.47
17:53:44.472,0.165,-0.6
17:53:44.476,0.145,-0.825
17:53:44.480,0.195,-1.075
17:53:44.484,0.36,-1.35
17:53:44.488,0.695,-1.685
17:53:44.492,1.02,-1.99
17:53:44.496,1.165,-2.21
17:53:44.500,1.02,-2.28
17:53:44.504,0.54,-2.035
17:53:44.508,-0.01,-1.475
17:53:44.512,-0.35,-0.965
17:53:44.516,-0.485,-0.645
17:53:44.520,-0.5,-0.45
17:53:44.524,-0.5,-0.275
17:53:44.528,-0.49,-0.125
17:53:44.532,-0.52,0.0
17:53:44.536,-0.53,0.07
17:53:44.540,-0.515,0.09
17:53:44.544,-0.54,0.12
17:53:44.548,-0.53,0.14
17:53:44.552,-0.52,0.14
17:53:44.556,-0.53,0.175
17:53:44.560,-0.525,0.16
17:53:44.564,-0.515,0.155
17:53:44.568,-0.53,0.17
17:53:44.572,-0.525,0.195
17:53:44.576,-0.52,0.19
17:53:44.580,-0.52,0.195
17:53:44.584,-0.53,0.205
17:53:44.588,-0.54,0.2
17:53:44.592,-0.53,0.2
17:53:44.596,-0.53,0.19
17:53:44.600,-0.525,0.2
17:53:44.604,-0.525,0.2
17:53:44.608,-0.54,0.205
17:53:44.612,-0.55,0.21
17:53:44.616,-0.59,0.22
17:53:44.620,-0.57,0.22
17:53:44.624,-0.605,0.235
17:53:44.628,-0.595,0.24
17:53:44.632,-0.585,0.22
17:53:44.636,-0.57,0.24
17:53:44.640,-0.57,0.23
17:53:44.644,-0.575,0.235
17:53:44.648,-0.585,0.245
17:53:44.652,-0.58,0.235
17:53:44.656,-0.56,0.25
17:53:44.660,-0.58,0.26
17:53:44.664,-0.59,0.245
17:53:44.668,-0.56,0.24
17:53:44.672,-0.55,0.285
17:53:44.676,-0.54,0.255
17:53:44.680,-0.51,0.25
17:53:44.684,-0.5,0.24
17:53:44.688,-0.51,0.245
17:53:44.692,-0.495,0.215
17:53:44.696,-0.5,0.22
17:53:44.700,-0.47,0.225
17:53:44.704,-0.48,0.19
17:53:44.708,-0.45,0.18
17:53:44.712,-0.44,0.16
17:53:44.716,-0.44,0.15
17:53:44.720,-0.41,0.135
17:53:44.724,-0.415,0.115
17:53:44.728,-0.39,0.09
17:53:44.732,-0.385,0.045
17:53:44.736,-0.355,0.045
17:53:44.740,-0.34,0.015
17:53:44.744,-0.36,0.015
17:53:44.748,-0.345,-0.005
17:53:44.752,-0.35,-0.03
17:53:44.756,-0.355,-0.025
17:53:44.760,-0.335,-0.025
17:53:44.764,-0.3,-0.04
17:53:44.768,-0.3,-0.065
17:53:44.772,-0.31,-0.07
17:53:44.776,-0.315,-0.065
17:53:44.780,-0.32,-0.05
17:53:44.784,-0.31,-0.06
17:53:44.788,-0.33,-0.05
17:53:44.792,-0.32,-0.055
17:53:44.796,-0.325,-0.07
17:53:44.800,-0.295,-0.05
17:53:44.804,-0.305,-0.05
17:53:44.808,-0.305,-0.045
17:53:44.812,-0.29,-0.02
17:53:44.816,-0.29,-0.035
17:53:44.820,-0.265,-0.035
17:53:44.824,-0.28,-0.04
17:53:44.828,-0.25,-0.02
17:53:44.832,-0.23,-0.03
17:53:44.836,-0.215,-0.015
17:53:44.840,-0.225,0.01
17:53:44.844,-0.21,0.01
17:53:44.848,-0.17,0.02
17:53:44.852,-0.115,0.03
17:53:44.856,-0.07,0.025
17:53:44.860,-0.06,0.025
17:53:44.864,-0.02,0.005
17:53:44.868,-0.01,0.025
17:53:44.872,-0.01,0.02
17:53:44.876,-0.01,0.02
17:53:44.880,-0.01,0.02
17:53:44.884,-0.03,-0.015
17:53:44.888,-0.08,-0.075
17:53:44.892,-0.13,-0.105
17:53:44.896,-0.185,-0.11
17:53:44.900,-0.235,-0.125
17:53:44.904,-0.3,-0.105
17:53:44.908,-0.395,-0.095
17:53:44.912,-0.435,-0.05
17:53:44.916,-0.44,-0.02
17:53:44.920,-0.465,-0.025
17:53:44.924,-0.44,-0.04
17:53:44.928,-0.45,-0.035
17:53:44.932,-0.435,-0.035
17:53:44.936,-0.44,-0.075
17:53:44.940,-0.435,-0.075
17:53:44.944,-0.405,-0.085
17:53:44.948,-0.415,-0.07
17:53:44.952,-0.395,-0.08
17:53:44.956,-0.41,-0.095
17:53:44.960,-0.415,-0.095
17:53:44.964,-0.4,-0.085
17:53:44.968,-0.395,-0.08
17:53:44.972,-0.41,-0.07
17:53:44.976,-0.38,-0.09
17:53:44.980,-0.4,-0.085
17:53:44.984,-0.405,-0.08
17:53:44.988,-0.415,-0.09
17:53:44.992,-0.41,-0.09
17:53:44.996,-0.39,-0.1
17:53:45.000,-0.4,-0.105
17:53:45.004,-0.42,-0.11
17:53:45.008,-0.4,-0.115
17:53:45.012,-0.425,-0.1
17:53:45.016,-0.415,-0.105
17:53:45.020,-0.41,-0.11
17:53:45.024,-0.4,-0.105
17:53:45.028,-0.38,-0.125
17:53:45.032,-0.355,-0.12
17:53:45.036,-0.285,-0.12
17:53:45.040,-0.205,-0.125
17:53:45.044,-0.1,-0.17
17:53:45.048,0.005,-0.205
17:53:45.052,0.095,-0.265
17:53:45.056,0.185,-0.325
17:53:45.060,0.22,-0.42
17:53:45.064,0.245,-0.53
17:53:45.068,0.23,-0.68
17:53:45.072,0.225,-0.9
17:53:45.076,0.315,-1.165
17:53:45.080,0.54,-1.48
17:53:45.084,0.86,-1.81
17:53:45.088,1.105,-2.095
17:53:45.092,1.1,-2.235
17:53:45.096,0.745,-2.165
17:53:45.100,0.2,-1.715
17:53:45.104,-0.24,-1.155
17:53:45.108,-0.45,-0.76
17:53:45.112,-0.505,-0.52
17:53:45.116,-0.51,-0.36
17:53:45.120,-0.485,-0.18
17:53:45.124,-0.515,-0.065
17:53:45.128,-0.55,0.045
17:53:45.132,-0.59,0.1
17:53:45.136,-0.58,0.1
17:53:45.140,-0.6,0.095
17:53:45.144,-0.59,0.11
17:53:45.148,-0.605,0.14
17:53:45.152,-0.61,0.125
17:53:45.156,-0.625,0.115
17:53:45.160,-0.62,0.13
17:53:45.164,-0.625,0.125
17:53:45.168,-0.615,0.135
17:53:45.172,-0.62,0.14
17:53:45.176,-0.625,0.14
17:53:45.180,-0.62,0.155
17:53:45.184,-0.635,0.15
17:53:45.188,-0.645,0.13
17:53:45.192,-0.64,0.155
17:53:45.196,-0.66,0.155
17:53:45.200,-0.655,0.16
17:53:45.204,-0.615,0.18
17:53:45.208,-0.615,0.18
17:53:45.212,-0.62,0.17
17:53:45.216,-0.635,0.195
17:53:45.220,-0.635,0.205
17:53:45.224,-0.64,0.195
17:53:45.228,-0.67,0.225
17:53:45.232,-0.67,0.22
17:53:45.236,-0.645,0.225
17:53:45.240,-0.625,0.23
17:53:45.244,-0.61,0.235
17:53:45.248,-0.595,0.24
17:53:45.252,-0.625,0.235
17:53:45.256,-0.635,0.23
17:53:45.260,-0.635,0.235
17:53:45.264,-0.64,0.225
17:53:45.268,-0.655,0.23
17:53:45.272,-0.635,0.22
17:53:45.276,-0.62,0.215
17:53:45.280,-0.6,0.2
17:53:45.284,-0.605,0.165
17:53:45.288,-0.585,0.195
17:53:45.292,-0.56,0.175
17:53:45.296,-0.545,0.16
17:53:45.300,-0.515,0.14
17:53:45.304,-0.535,0.12
17:53:45.308,-0.535,0.105
17:53:45.312,-0.515,0.095
17:53:45.316,-0.505,0.075
17:53:45.320,-0.465,0.055
17:53:45.324,-0.455,0.025
17:53:45.328,-0.445,0.025
17:53:45.332,-0.415,0.005
17:53:45.336,-0.415,-0.025
17:53:45.340,-0.39,-0.03
17:53:45.344,-0.365,-0.04
17:53:45.348,-0.36,-0.05
17:53:45.352,-0.365,-0.075
17:53:45.356,-0.325,-0.055
17:53:45.360,-0.34,-0.065
17:53:45.364,-0.335,-0.065
17:53:45.368,-0.33,-0.05
17:53:45.372,-0.34,-0.065
17:53:45.376,-0.305,-0.06
17:53:45.380,-0.31,-0.06
17:53:45.384,-0.325,-0.05
17:53:45.388,-0.33,-0.06
17:53:45.392,-0.315,-0.075
17:53:45.396,-0.33,-0.09
17:53:45.400,-0.35,-0.06
17:53:45.404,-0.35,-0.075
17:53:45.408,-0.33,-0.065
17:53:45.412,-0.335,-0.06
17:53:45.416,-0.335,-0.065
17:53:45.420,-0.335,-0.055
17:53:45.424,-0.34,-0.06
17:53:45.428,-0.345,-0.035
17:53:45.432,-0.31,-0.03
17:53:45.436,-0.3,-0.045
17:53:45.440,-0.325,-0.04
17:53:45.444,-0.305,-0.02
17:53:45.448,-0.295,-0.035
17:53:45.452,-0.275,-0.035
17:53:45.456,-0.27,-0.02
17:53:45.460,-0.275,-0.01
17:53:45.464,-0.215,0.005
17:53:45.468,-0.175,0.03
17:53:45.472,-0.115,0.025
17:53:45.476,-0.065,0.045
17:53:45.480,-0.045,0.03
17:53:45.484,-0.015,0.035
17:53:45.488,0.015,0.03
17:53:45.492,0.03,0.035
17:53:45.496,0.015,0.055
17:53:45.500,0.015,0.02
17:53:45.504,-0.025,-0.015
17:53:45.508,-0.1,-0.045
17:53:45.512,-0.15,-0.065
17:53:45.516,-0.19,-0.06
17:53:45.520,-0.23,-0.05
17:53:45.524,-0.285,-0.07
17:53:45.528,-0.355,-0.02
17:53:45.532,-0.41,0.0
17:53:45.536,-0.45,0.0
17:53:45.540,-0.475,0.005
17:53:45.544,-0.48,-0.005
17:53:45.548,-0.475,0.0
17:53:45.552,-0.45,-0.025
17:53:45.556,-0.435,-0.055
17:53:45.560,-0.41,-0.075
17:53:45.564,-0.43,-0.07
17:53:45.568,-0.405,-0.045
17:53:45.572,-0.415,-0.06
17:53:45.576,-0.405,-0.065
17:53:45.580,-0.405,-0.06
17:53:45.584,-0.415,-0.06
17:53:45.588,-0.4,-0.03
17:53:45.592,-0.385,-0.045
17:53:45.596,-0.4,-0.055
17:53:45.600,-0.395,-0.06
17:53:45.604,-0.365,-0.05
17:53:45.608,-0.38,-0.05
17:53:45.612,-0.38,-0.035
17:53:45.616,-0.38,-0.05
17:53:45.620,-0.365,-0.04
17:53:45.624,-0.36,-0.025
17:53:45.628,-0.36,-0.045
17:53:45.632,-0.355,-0.035
17:53:45.636,-0.35,-0.045
17:53:45.640,-0.35,-0.035
17:53:45.644,-0.315,-0.05
17:53:45.648,-0.305,-0.055
17:53:45.652,-0.245,-0.065
17:53:45.656,-0.17,-0.055
17:53:45.660,-0.04,-0.08
17:53:45.664,0.045,-0.105
17:53:45.668,0.13,-0.16
17:53:45.672,0.2,-0.275
17:53:45.676,0.24,-0.36
17:53:45.680,0.295,-0.47
17:53:45.684,0.315,-0.61
17:53:45.688,0.3,-0.825
17:53:45.692,0.365,-1.065
17:53:45.696,0.6,-1.37
17:53:45.700,0.935,-1.675
17:53:45.704,1.2,-1.94
17:53:45.708,1.195,-2.105
17:53:45.712,0.855,-2.05
17:53:45.716,0.28,-1.68
17:53:45.720,-0.18,-1.155
17:53:45.724,-0.405,-0.765
17:53:45.728,-0.49,-0.49
17:53:45.732,-0.47,-0.295
17:53:45.736,-0.455,-0.145
17:53:45.740,-0.46,-0.01
17:53:45.744,-0.495,0.09
17:53:45.748,-0.5,0.135
17:53:45.752,-0.515,0.175
17:53:45.756,-0.515,0.175
17:53:45.760,-0.535,0.175
17:53:45.764,-0.525,0.175
17:53:45.768,-0.52,0.17
17:53:45.772,-0.54,0.185
17:53:45.776,-0.535,0.2
17:53:45.780,-0.535,0.19
17:53:45.784,-0.555,0.19
17:53:45.788,-0.55,0.215
17:53:45.792,-0.56,0.21
17:53:45.796,-0.555,0.235
17:53:45.800,-0.55,0.22
17:53:45.804,-0.565,0.215
17:53:45.808,-0.58,0.21
17:53:45.812,-0.57,0.215
17:53:45.816,-0.6,0.22
17:53:45.820,-0.6,0.22
17:53:45.824,-0.595,0.23
17:53:45.828,-0.6,0.21
17:53:45.832,-0.615,0.22
17:53:45.836,-0.595,0.24
17:53:45.840,-0.6,0.24
17:53:45.844,-0.595,0.27
17:53:45.848,-0.6,0.27
17:53:45.852,-0.605,0.275
17:53:45.856,-0.605,0.265
17:53:45.860,-0.605,0.28
17:53:45.864,-0.59,0.3
17:53:45.868,-0.6,0.315
17:53:45.872,-0.585,0.305
17:53:45.876,-0.555,0.29
17:53:45.880,-0.555,0.3
17:53:45.884,-0.55,0.29
17:53:45.888,-0.54,0.295
17:53:45.892,-0.525,0.3
17:53:45.896,-0.53,0.275
17:53:45.900,-0.525,0.25
17:53:45.904,-0.515,0.25
17:53:45.908,-0.51,0.255
17:53:45.912,-0.505,0.22
17:53:45.916,-0.5,0.205
17:53:45.920,-0.5,0.19
17:53:45.924,-0.465,0.17
17:53:45.928,-0.465,0.135
17:53:45.932,-0.46,0.14
17:53:45.936,-0.43,0.095
17:53:45.940,-0.425,0.075
17:53:45.944,-0.42,0.065
17:53:45.948,-0.415,0.035
17:53:45.952,-0.37,0.01
17:53:45.956,-0.37,0.0
17:53:45.960,-0.35,-0.03
17:53:45.964,-0.34,-0.02
17:53:45.968,-0.34,-0.015
17:53:45.972,-0.33,-0.055
17:53:45.976,-0.32,-0.045
17:53:45.980,-0.32,-0.035
17:53:45.984,-0.315,-0.06
17:53:45.988,-0.29,-0.07
17:53:45.992,-0.28,-0.055
17:53:45.996,-0.27,-0.075
17:53:46.000,-0.275,-0.08
17:53:46.004,-0.275,-0.055
17:53:46.008,-0.28,-0.055
17:53:46.012,-0.275,-0.06
17:53:46.016,-0.275,-0.045
17:53:46.020,-0.27,-0.06
17:53:46.024,-0.275,-0.04
17:53:46.028,-0.265,-0.03
17:53:46.032,-0.275,-0.045
17:53:46.036,-0.28,-0.04
17:53:46.040,-0.27,-0.05
17:53:46.044,-0.285,-0.015
17:53:46.048,-0.27,-0.03
17:53:46.052,-0.265,-0.02
17:53:46.056,-0.25,-0.045
17:53:46.060,-0.245,0.0
17:53:46.064,-0.25,-0.04
17:53:46.068,-0.235,-0.03
17:53:46.072,-0.22,0.015
17:53:46.076,-0.17,-0.005
17:53:46.080,-0.135,-0.005
17:53:46.084,-0.09,0.02
17:53:46.088,-0.05,0.04
17:53:46.092,-0.045,0.035
17:53:46.096,-0.025,0.045
17:53:46.100,-0.01,0.035
17:53:46.104,0.0,0.01
17:53:46.108,0.005,0.0
17:53:46.112,-0.01,-0.045
17:53:46.116,-0.035,-0.065
17:53:46.120,-0.07,-0.085
17:53:46.124,-0.105,-0.12
17:53:46.128,-0.165,-0.12
17:53:46.132,-0.24,-0.105
17:53:46.136,-0.31,-0.06
17:53:46.140,-0.32,-0.035
17:53:46.144,-0.365,0.0
17:53:46.148,-0.39,0.015
17:53:46.152,-0.395,0.005
17:53:46.156,-0.39,-0.01
17:53:46.160,-0.4,0.005
17:53:46.164,-0.385,-0.01
17:53:46.168,-0.37,-0.015
17:53:46.172,-0.375,-0.03
17:53:46.176,-0.365,-0.035
17:53:46.180,-0.35,-0.03
17:53:46.184,-0.37,-0.065
17:53:46.188,-0.39,-0.035
17:53:46.192,-0.365,-0.045
17:53:46.196,-0.375,-0.06
17:53:46.200,-0.375,-0.045
17:53:46.204,-0.37,-0.035
17:53:46.208,-0.365,-0.065
17:53:46.212,-0.385,-0.06
17:53:46.216,-0.39,-0.06
17:53:46.220,-0.38,-0.06
17:53:46.224,-0.37,-0.055
17:53:46.228,-0.37,-0.04
17:53:46.232,-0.37,-0.04
17:53:46.236,-0.375,-0.06
17:53:46.240,-0.36,-0.045
17:53:46.244,-0.37,-0.065
17:53:46.248,-0.36,-0.06
17:53:46.252,-0.35,-0.045
17:53:46.256,-0.31,-0.055
17:53:46.260,-0.245,-0.075
17:53:46.264,-0.165,-0.08
17:53:46.268,-0.095,-0.075
17:53:46.272,-0.005,-0.09
17:53:46.276,0.06,-0.13
17:53:46.280,0.1,-0.225
17:53:46.284,0.16,-0.32
17:53:46.288,0.18,-0.43
17:53:46.292,0.165,-0.54
17:53:46.296,0.16,-0.75
17:53:46.300,0.205,-0.99
17:53:46.304,0.405,-1.26
17:53:46.308,0.71,-1.62
17:53:46.312,1.055,-1.945
17:53:46.316,1.205,-2.17
17:53:46.320,1.035,-2.2
17:53:46.324,0.545,-1.955
17:53:46.328,0.0,-1.435
17:53:46.332,-0.345,-0.94
17:53:46.336,-0.48,-0.615
17:53:46.340,-0.53,-0.415
17:53:46.344,-0.525,-0.23
17:53:46.348,-0.49,-0.06
17:53:46.352,-0.505,0.025
17:53:46.356,-0.515,0.08
17:53:46.360,-0.515,0.11
17:53:46.364,-0.52,0.15
17:53:46.368,-0.54,0.155
17:53:46.372,-0.54,0.15
17:53:46.376,-0.535,0.175
17:53:46.380,-0.54,0.185
17:53:46.384,-0.55,0.18
17:53:46.388,-0.55,0.185
17:53:46.392,-0.505,0.195
17:53:46.396,-0.54,0.22
17:53:46.400,-0.51,0.22
17:53:46.404,-0.53,0.22
17:53:46.408,-0.52,0.22
17:53:46.412,-0.54,0.235
17:53:46.416,-0.545,0.255
17:53:46.420,-0.53,0.23
17:53:46.424,-0.53,0.255
17:53:46.428,-0.535,0.245
17:53:46.432,-0.535,0.27
17:53:46.436,-0.55,0.27
17:53:46.440,-0.54,0.27
17:53:46.444,-0.565,0.26
17:53:46.448,-0.56,0.26
17:53:46.452,-0.57,0.25
17:53:46.456,-0.57,0.27
17:53:46.460,-0.59,0.275
17:53:46.464,-0.58,0.285
17:53:46.468,-0.585,0.325
17:53:46.472,-0.575,0.295
17:53:46.476,-0.585,0.315
17:53:46.480,-0.565,0.29
17:53:46.484,-0.555,0.315
17:53:46.488,-0.575,0.315
17:53:46.492,-0.555,0.295
17:53:46.496,-0.52,0.305
17:53:46.500,-0.52,0.315
17:53:46.504,-0.505,0.3
17:53:46.508,-0.495,0.3
17:53:46.512,-0.49,0.295
17:53:46.516,-0.455,0.275
17:53:46.520,-0.445,0.245
17:53:46.524,-0.43,0.24
17:53:46.528,-0.425,0.235
17:53:46.532,-0.405,0.215
17:53:46.536,-0.395,0.19
17:53:46.540,-0.385,0.175
17:53:46.544,-0.375,0.17
17:53:46.548,-0.365,0.16
17:53:46.552,-0.34,0.13
17:53:46.556,-0.31,0.1
17:53:46.560,-0.32,0.08
17:53:46.564,-0.29,0.065
17:53:46.568,-0.285,0.055
17:53:46.572,-0.275,0.045
17:53:46.576,-0.285,0.045
17:53:46.580,-0.255,0.02
17:53:46.584,-0.27,0.03
17:53:46.588,-0.275,0.025
17:53:46.592,-0.265,0.0
17:53:46.596,-0.245,0.0
17:53:46.600,-0.25,-0.005
17:53:46.604,-0.24,0.0
17:53:46.608,-0.24,-0.005
17:53:46.612,-0.23,0.0
17:53:46.616,-0.235,0.0
17:53:46.620,-0.225,-0.015
17:53:46.624,-0.225,-0.015
17:53:46.628,-0.235,0.0
17:53:46.632,-0.215,0.0
17:53:46.636,-0.225,0.015
17:53:46.640,-0.23,0.02
17:53:46.644,-0.2,0.03
17:53:46.648,-0.2,0.005
17:53:46.652,-0.165,0.025
17:53:46.656,-0.165,0.015
17:53:46.660,-0.165,0.02
17:53:46.664,-0.145,0.06
17:53:46.668,-0.12,0.07
17:53:46.672,-0.07,0.07
17:53:46.676,-0.015,0.09
17:53:46.680,0.015,0.105
17:53:46.684,0.035,0.125
17:53:46.688,0.05,0.115
17:53:46.692,0.055,0.11
17:53:46.696,0.075,0.1
17:53:46.700,0.075,0.075
17:53:46.704,0.05,0.05
17:53:46.708,0.005,-0.02
17:53:46.712,-0.045,-0.04
17:53:46.716,-0.095,-0.055
17:53:46.720,-0.155,-0.045
17:53:46.724,-0.23,-0.055
17:53:46.728,-0.27,-0.03
17:53:46.732,-0.315,0.0
17:53:46.736,-0.35,0.01
17:53:46.740,-0.35,0.025
17:53:46.744,-0.375,0.04
17:53:46.748,-0.39,0.03
17:53:46.752,-0.35,0.025
17:53:46.756,-0.365,0.005
17:53:46.760,-0.365,0.02
17:53:46.764,-0.38,0.02
17:53:46.768,-0.365,0.0
17:53:46.772,-0.335,-0.005
17:53:46.776,-0.34,0.0
17:53:46.780,-0.345,0.02
17:53:46.784,-0.33,0.03
17:53:46.788,-0.315,0.0
17:53:46.792,-0.3,0.0
17:53:46.796,-0.335,0.0
17:53:46.800,-0.315,0.0
17:53:46.804,-0.32,0.01
17:53:46.808,-0.295,-0.01
17:53:46.812,-0.295,-0.015
17:53:46.816,-0.275,0.0
17:53:46.820,-0.305,-0.01
17:53:46.824,-0.305,-0.02
17:53:46.828,-0.295,0.01
17:53:46.832,-0.29,0.005
17:53:46.836,-0.295,-0.02
17:53:46.840,-0.295,-0.04
17:53:46.844,-0.285,-0.05
17:53:46.848,-0.28,-0.035
17:53:46.852,-0.26,-0.04
17:53:46.856,-0.185,-0.05
17:53:46.860,-0.125,-0.045
17:53:46.864,-0.025,-0.07
17:53:46.868,0.045,-0.11
17:53:46.872,0.12,-0.2
17:53:46.876,0.185,-0.265
17:53:46.880,0.205,-0.36
17:53:46.884,0.205,-0.47
17:53:46.888,0.185,-0.635
17:53:46.892,0.2,-0.865
17:53:46.896,0.275,-1.125
17:53:46.900,0.535,-1.44
17:53:46.904,0.905,-1.775
17:53:46.908,1.18,-2.08
17:53:46.912,1.23,-2.24
17:53:46.916,0.92,-2.13
17:53:46.920,0.37,-1.72
17:53:46.924,-0.11,-1.16
17:53:46.928,-0.325,-0.75
17:53:46.932,-0.425,-0.525
17:53:46.936,-0.465,-0.335
17:53:46.940,-0.46,-0.18
17:53:46.944,-0.465,-0.04
17:53:46.948,-0.5,0.03
17:53:46.952,-0.505,0.105
17:53:46.956,-0.49,0.145
17:53:46.960,-0.51,0.15
17:53:46.964,-0.515,0.165
17:53:46.968,-0.51,0.185
17:53:46.972,-0.515,0.195
17:53:46.976,-0.525,0.195
17:53:46.980,-0.55,0.205
17:53:46.984,-0.55,0.2
17:53:46.988,-0.545,0.175
17:53:46.992,-0.54,0.21
17:53:46.996,-0.545,0.225
17:53:47.000,-0.55,0.205
17:53:47.004,-0.545,0.195
17:53:47.008,-0.55,0.225
17:53:47.012,-0.56,0.21
17:53:47.016,-0.55,0.22
17:53:47.020,-0.53,0.215
17:53:47.024,-0.555,0.22
17:53:47.028,-0.56,0.255
17:53:47.032,-0.55,0.235
17:53:47.036,-0.55,0.26
17:53:47.040,-0.575,0.255
17:53:47.044,-0.585,0.25
17:53:47.048,-0.56,0.255
17:53:47.052,-0.585,0.28
17:53:47.056,-0.56,0.285
17:53:47.060,-0.585,0.285
17:53:47.064,-0.565,0.295
17:53:47.068,-0.56,0.3
17:53:47.072,-0.545,0.315
17:53:47.076,-0.555,0.295
17:53:47.080,-0.55,0.315
17:53:47.084,-0.545,0.32
17:53:47.088,-0.53,0.295
17:53:47.092,-0.535,0.3
17:53:47.096,-0.52,0.295
17:53:47.100,-0.54,0.285
17:53:47.104,-0.52,0.26
17:53:47.108,-0.52,0.25
17:53:47.112,-0.51,0.23
17:53:47.116,-0.495,0.215
17:53:47.120,-0.49,0.195
17:53:47.124,-0.48,0.195
17:53:47.128,-0.455,0.165
17:53:47.132,-0.455,0.145
17:53:47.136,-0.435,0.12
17:53:47.140,-0.425,0.105
17:53:47.144,-0.41,0.08
17:53:47.148,-0.4,0.06
17:53:47.152,-0.39,0.035
17:53:47.156,-0.395,0.03
17:53:47.160,-0.375,0.045
17:53:47.164,-0.34,0.015
17:53:47.168,-0.34,0.0
17:53:47.172,-0.32,0.0
17:53:47.176,-0.3,-0.02
17:53:47.180,-0.29,-0.01
17:53:47.184,-0.265,-0.025
17:53:47.188,-0.275,-0.045
17:53:47.192,-0.29,-0.06
17:53:47.196,-0.28,-0.05
17:53:47.200,-0.265,-0.035
17:53:47.204,-0.28,-0.04
17:53:47.208,-0.275,-0.01
17:53:47.212,-0.265,-0.03
17:53:47.216,-0.26,-0.02
17:53:47.220,-0.255,-0.02
17:53:47.224,-0.24,-0.015
17:53:47.228,-0.23,-0.03
17:53:47.232,-0.22,-0.02
17:53:47.236,-0.205,-0.015
17:53:47.240,-0.205,-0.01
17:53:47.244,-0.21,-0.02
17:53:47.248,-0.215,0.015
17:53:47.252,-0.16,0.02
17:53:47.256,-0.105,0.025
17:53:47.260,-0.07,0.06
17:53:47.264,-0.025,0.07
17:53:47.268,0.015,0.03
17:53:47.272,0.015,0.025
17:53:47.276,0.02,0.025
17:53:47.280,0.01,0.03
17:53:47.284,0.015,0.01
17:53:47.288,-0.015,-0.025
17:53:47.292,-0.06,-0.035
17:53:47.296,-0.105,-0.06
17:53:47.300,-0.17,-0.07
17:53:47.304,-0.24,-0.08
17:53:47.308,-0.31,-0.055
17:53:47.312,-0.335,-0.05
17:53:47.316,-0.39,-0.005
17:53:47.320,-0.395,0.0
17:53:47.324,-0.405,0.01
17:53:47.328,-0.4,0.02
17:53:47.332,-0.42,0.01
17:53:47.336,-0.405,0.0
17:53:47.340,-0.415,-0.01
17:53:47.344,-0.405,-0.01
17:53:47.348,-0.4,-0.02
17:53:47.352,-0.415,-0.03
17:53:47.356,-0.39,-0.02
17:53:47.360,-0.375,-0.035
17:53:47.364,-0.375,-0.055
17:53:47.368,-0.365,-0.055
17:53:47.372,-0.4,-0.06
17:53:47.376,-0.405,-0.03
17:53:47.380,-0.395,-0.055
17:53:47.384,-0.395,-0.05
17:53:47.388,-0.38,-0.04
17:53:47.392,-0.375,-0.055
17:53:47.396,-0.38,-0.06
17:53:47.400,-0.37,-0.06
17:53:47.404,-0.36,-0.05
17:53:47.408,-0.36,-0.065
17:53:47.412,-0.355,-0.08
17:53:47.416,-0.35,-0.09
17:53:47.420,-0.345,-0.075
17:53:47.424,-0.36,-0.085
17:53:47.428,-0.34,-0.07
17:53:47.432,-0.335,-0.065
17:53:47.436,-0.315,-0.075
17:53:47.440,-0.27,-0.08
17:53:47.444,-0.175,-0.085
17:53:47.448,-0.04,-0.08
17:53:47.452,0.04,-0.12
17:53:47.456,0.115,-0.18
17:53:47.460,0.195,-0.25
17:53:47.464,0.265,-0.38
17:53:47.468,0.31,-0.455
17:53:47.472,0.305,-0.615
17:53:47.476,0.29,-0.81
17:53:47.480,0.325,-1.04
17:53:47.484,0.505,-1.305
17:53:47.488,0.795,-1.63
17:53:47.492,1.095,-1.955
17:53:47.496,1.16,-2.15
17:53:47.500,0.865,-2.15
17:53:47.504,0.335,-1.825
17:53:47.508,-0.12,-1.295
17:53:47.512,-0.345,-0.835
17:53:47.516,-0.445,-0.54
17:53:47.520,-0.46,-0.34
17:53:47.524,-0.455,-0.18
17:53:47.528,-0.455,-0.05
17:53:47.532,-0.485,0.025
17:53:47.536,-0.505,0.1
17:53:47.540,-0.52,0.135
17:53:47.544,-0.515,0.145
17:53:47.548,-0.52,0.15
17:53:47.552,-0.54,0.14
17:53:47.556,-0.54,0.16
17:53:47.560,-0.52,0.19
17:53:47.564,-0.525,0.19
17:53:47.568,-0.53,0.18
17:53:47.572,-0.535,0.205
17:53:47.576,-0.54,0.19
17:53:47.580,-0.575,0.22
17:53:47.584,-0.55,0.2
17:53:47.588,-0.54,0.21
17:53:47.592,-0.53,0.22
17:53:47.596,-0.53,0.235
17:53:47.600,-0.53,0.225
17:53:47.604,-0.535,0.235
17:53:47.608,-0.53,0.24
17:53:47.612,-0.54,0.22
17:53:47.616,-0.535,0.215
17:53:47.620,-0.55,0.23
17:53:47.624,-0.55,0.245
17:53:47.628,-0.55,0.235
17:53:47.632,-0.545,0.245
17:53:47.636,-0.55,0.24
17:53:47.640,-0.57,0.24
17:53:47.644,-0.58,0.25
17:53:47.648,-0.595,0.25
17:53:47.652,-0.595,0.275
17:53:47.656,-0.58,0.285
17:53:47.660,-0.575,0.25
17:53:47.664,-0.53,0.255
17:53:47.668,-0.555,0.255
17:53:47.672,-0.54,0.235
17:53:47.676,-0.56,0.24
17:53:47.680,-0.545,0.25
17:53:47.684,-0.535,0.24
17:53:47.688,-0.525,0.225
17:53:47.692,-0.495,0.23
17:53:47.696,-0.465,0.21
17:53:47.700,-0.47,0.185
17:53:47.704,-0.445,0.18
17:53:47.708,-0.445,0.145
17:53:47.712,-0.425,0.14
17:53:47.716,-0.4,0.12
17:53:47.720,-0.395,0.095
17:53:47.724,-0.365,0.095
17:53:47.728,-0.335,0.08
17:53:47.732,-0.345,0.065
17:53:47.736,-0.32,0.05
17:53:47.740,-0.3,0.015
17:53:47.744,-0.29,0.01
17:53:47.748,-0.3,0.0
17:53:47.752,-0.28,0.005
17:53:47.756,-0.27,-0.025
17:53:47.760,-0.24,-0.015
17:53:47.764,-0.245,-0.04
17:53:47.768,-0.235,-0.045
17:53:47.772,-0.23,-0.04
17:53:47.776,-0.24,-0.06
17:53:47.780,-0.25,-0.07
17:53:47.784,-0.26,-0.055
17:53:47.788,-0.25,-0.075
17:53:47.792,-0.265,-0.06
17:53:47.796,-0.255,-0.065
17:53:47.800,-0.235,-0.055
17:53:47.804,-0.235,-0.07
17:53:47.808,-0.225,-0.045
17:53:47.812,-0.235,-0.075
17:53:47.816,-0.25,-0.07
17:53:47.820,-0.23,-0.075
17:53:47.824,-0.225,-0.04
17:53:47.828,-0.245,-0.07
17:53:47.832,-0.215,-0.06
17:53:47.836,-0.215,-0.055
17:53:47.840,-0.175,-0.055
17:53:47.844,-0.17,-0.035
17:53:47.848,-0.165,-0.04
17:53:47.852,-0.165,-0.04
17:53:47.856,-0.15,-0.03
17:53:47.860,-0.095,-0.03
17:53:47.864,-0.07,0.01
17:53:47.868,-0.03,0.01
17:53:47.872,0.03,0.04
17:53:47.876,0.065,0.015
17:53:47.880,0.085,0.025
17:53:47.884,0.085,0.025
17:53:47.888,0.095,0.015
17:53:47.892,0.075,0.015
17:53:47.896,0.04,-0.03
17:53:47.900,0.01,-0.07
17:53:47.904,-0.04,-0.095
17:53:47.908,-0.1,-0.105
17:53:47.912,-0.19,-0.115
17:53:47.916,-0.255,-0.08
17:53:47.920,-0.295,-0.065
17:53:47.924,-0.34,-0.04
17:53:47.928,-0.375,-0.045
17:53:47.932,-0.37,-0.035
17:53:47.936,-0.36,-0.035
17:53:47.940,-0.36,-0.055
17:53:47.944,-0.37,-0.085
17:53:47.948,-0.365,-0.095
17:53:47.952,-0.37,-0.075
17:53:47.956,-0.35,-0.075
17:53:47.960,-0.37,-0.095
17:53:47.964,-0.36,-0.095
17:53:47.968,-0.345,-0.105
17:53:47.972,-0.355,-0.1
17:53:47.976,-0.36,-0.1
17:53:47.980,-0.32,-0.085
17:53:47.984,-0.32,-0.09
17:53:47.988,-0.325,-0.1
17:53:47.992,-0.335,-0.105
17:53:47.996,-0.325,-0.105
17:53:48.000,-0.315,-0.105
17:53:48.004,-0.315,-0.105
17:53:48.008,-0.305,-0.11
17:53:48.012,-0.32,-0.09
17:53:48.016,-0.295,-0.115
17:53:48.020,-0.305,-0.115
17:53:48.024,-0.31,-0.11
17:53:48.028,-0.315,-0.11
17:53:48.032,-0.3,-0.105
17:53:48.036,-0.29,-0.12
17:53:48.040,-0.285,-0.11
17:53:48.044,-0.245,-0.14
17:53:48.048,-0.185,-0.13
17:53:48.052,-0.07,-0.145
17:53:48.056,0.02,-0.185
17:53:48.060,0.135,-0.23
17:53:48.064,0.2,-0.3
17:53:48.068,0.26,-0.4
17:53:48.072,0.31,-0.475
17:53:48.076,0.33,-0.57
17:53:48.080,0.335,-0.73
17:53:48.084,0.345,-0.985
17:53:48.088,0.465,-1.23
17:53:48.092,0.74,-1.515
17:53:48.096,1.065,-1.855
17:53:48.100,1.265,-2.1
17:53:48.104,1.155,-2.165
17:53:48.108,0.715,-2.015
17:53:48.112,0.16,-1.505
17:53:48.116,-0.195,-1.015
17:53:48.120,-0.34,-0.705
17:53:48.124,-0.395,-0.485
17:53:48.128,-0.385,-0.31
17:53:48.132,-0.385,-0.135
17:53:48.136,-0.43,-0.03
17:53:48.140,-0.445,0.045
17:53:48.144,-0.465,0.085
17:53:48.148,-0.485,0.12
17:53:48.152,-0.465,0.115
17:53:48.156,-0.475,0.12
17:53:48.160,-0.51,0.13
17:53:48.164,-0.485,0.145
17:53:48.168,-0.475,0.135
17:53:48.172,-0.495,0.145
17:53:48.176,-0.52,0.12
17:53:48.180,-0.51,0.155
17:53:48.184,-0.52,0.175
17:53:48.188,-0.535,0.16
17:53:48.192,-0.525,0.155
17:53:48.196,-0.515,0.17
17:53:48.200,-0.52,0.155
17:53:48.204,-0.545,0.185
17:53:48.208,-0.54,0.165
17:53:48.212,-0.54,0.175
17:53:48.216,-0.555,0.19
17:53:48.220,-0.545,0.175
17:53:48.224,-0.565,0.18
17:53:48.228,-0.54,0.2
17:53:48.232,-0.56,0.215
17:53:48.236,-0.555,0.205
17:53:48.240,-0.575,0.215
17:53:48.244,-0.565,0.205
17:53:48.248,-0.575,0.215
17:53:48.252,-0.555,0.25
17:53:48.256,-0.55,0.245
17:53:48.260,-0.53,0.245
17:53:48.264,-0.53,0.26
17:53:48.268,-0.545,0.26
17:53:48.272,-0.55,0.265
17:53:48.276,-0.545,0.275
17:53:48.280,-0.53,0.275
17:53:48.284,-0.535,0.27
17:53:48.288,-0.525,0.26
17:53:48.292,-0.51,0.235
17:53:48.296,-0.485,0.24
17:53:48.300,-0.485,0.22
17:53:48.304,-0.47,0.22
17:53:48.308,-0.45,0.195
17:53:48.312,-0.445,0.165
17:53:48.316,-0.435,0.13
17:53:48.320,-0.435,0.115
17:53:48.324,-0.415,0.115
17:53:48.328,-0.395,0.1
17:53:48.332,-0.38,0.055
17:53:48.336,-0.37,0.04
17:53:48.340,-0.35,0.015
17:53:48.344,-0.335,0.0
17:53:48.348,-0.33,0.015
17:53:48.352,-0.315,-0.005
17:53:48.356,-0.305,-0.025
17:53:48.360,-0.285,-0.035
17:53:48.364,-0.285,-0.025
17:53:48.368,-0.275,-0.05
17:53:48.372,-0.28,-0.06
17:53:48.376,-0.265,-0.07
17:53:48.380,-0.245,-0.05
17:53:48.384,-0.24,-0.075
17:53:48.388,-0.235,-0.04
17:53:48.392,-0.225,-0.055
17:53:48.396,-0.22,-0.05
17:53:48.400,-0.23,-0.065
17:53:48.404,-0.215,-0.06
17:53:48.408,-0.225,-0.05
17:53:48.412,-0.215,-0.05
17:53:48.416,-0.205,-0.035
17:53:48.420,-0.2,-0.04
17:53:48.424,-0.205,-0.03
17:53:48.428,-0.225,-0.045
17:53:48.432,-0.205,-0.045
17:53:48.436,-0.195,-0.025
17:53:48.440,-0.18,-0.02
17:53:48.444,-0.165,-0.02
17:53:48.448,-0.16,-0.02
17:53:48.452,-0.14,-0.005
17:53:48.456,-0.145,0.0
17:53:48.460,-0.105,0.01
17:53:48.464,-0.07,0.025
17:53:48.468,-0.01,0.025
17:53:48.472,0.005,0.045
17:53:48.476,0.045,0.055
17:53:48.480,0.08,0.02
17:53:48.484,0.1,0.025
17:53:48.488,0.11,0.03
17:53:48.492,0.115,0.01
17:53:48.496,0.065,-0.025
17:53:48.500,0.015,-0.065
17:53:48.504,-0.03,-0.105
17:53:48.508,-0.08,-0.115
17:53:48.512,-0.155,-0.1
17:53:48.516,-0.195,-0.095
17:53:48.520,-0.25,-0.065
17:53:48.524,-0.285,-0.025
17:53:48.528,-0.3,0.0
17:53:48.532,-0.34,0.015
17:53:48.536,-0.32,0.005
17:53:48.540,-0.325,0.0
17:53:48.544,-0.32,-0.01
17:53:48.548,-0.305,-0.03
17:53:48.552,-0.3,-0.03
17:53:48.556,-0.305,-0.035
17:53:48.560,-0.305,-0.01
17:53:48.564,-0.315,-0.03
17:53:48.568,-0.3,-0.045
17:53:48.572,-0.305,-0.06
17:53:48.576,-0.305,-0.035
17:53:48.580,-0.3,-0.04
17:53:48.584,-0.295,-0.055
17:53:48.588,-0.31,-0.07
17:53:48.592,-0.28,-0.04
17:53:48.596,-0.28,-0.045
17:53:48.600,-0.305,-0.065
17:53:48.604,-0.3,-0.08
17:53:48.608,-0.305,-0.095
17:53:48.612,-0.275,-0.08
17:53:48.616,-0.285,-0.08
17:53:48.620,-0.275,-0.07
17:53:48.624,-0.275,-0.085
17:53:48.628,-0.27,-0.08
17:53:48.632,-0.26,-0.065
17:53:48.636,-0.25,-0.07
17:53:48.640,-0.225,-0.085
17:53:48.644,-0.175,-0.085
17:53:48.648,-0.1,-0.09
17:53:48.652,0.005,-0.105
17:53:48.656,0.075,-0.14
17:53:48.660,0.16,-0.2
17:53:48.664,0.205,-0.26
17:53:48.668,0.24,-0.34
17:53:48.672,0.25,-0.455
17:53:48.676,0.265,-0.59
17:53:48.680,0.23,-0.8
17:53:48.684,0.32,-1.08
17:53:48.688,0.55,-1.355
17:53:48.692,0.87,-1.695
17:53:48.696,1.165,-2.0
17:53:48.700,1.265,-2.195
17:53:48.704,1.005,-2.15
17:53:48.708,0.46,-1.81
17:53:48.712,-0.055,-1.25
17:53:48.716,-0.32,-0.825
17:53:48.720,-0.41,-0.57
17:53:48.724,-0.44,-0.39
17:53:48.728,-0.425,-0.22
17:53:48.732,-0.445,-0.105
17:53:48.736,-0.435,0.0
17:53:48.740,-0.445,0.055
17:53:48.744,-0.43,0.095
17:53:48.748,-0.455,0.105
17:53:48.752,-0.445,0.13
17:53:48.756,-0.46,0.14
17:53:48.760,-0.465,0.16
17:53:48.764,-0.465,0.15
17:53:48.768,-0.465,0.175
17:53:48.772,-0.47,0.155
17:53:48.776,-0.475,0.185
17:53:48.780,-0.46,0.185
17:53:48.784,-0.445,0.17
17:53:48.788,-0.445,0.19
17:53:48.792,-0.45,0.205
17:53:48.796,-0.45,0.21
17:53:48.800,-0.45,0.205
17:53:48.804,-0.47,0.24
17:53:48.808,-0.46,0.235
17:53:48.812,-0.47,0.235
17:53:48.816,-0.465,0.22
17:53:48.820,-0.475,0.24
17:53:48.824,-0.485,0.23
17:53:48.828,-0.46,0.24
17:53:48.832,-0.465,0.24
17:53:48.836,-0.48,0.25
17:53:48.840,-0.49,0.245
17:53:48.844,-0.5,0.26
17:53:48.848,-0.5,0.27
17:53:48.852,-0.495,0.27
17:53:48.856,-0.48,0.265
17:53:48.860,-0.49,0.265
17:53:48.864,-0.495,0.26
17:53:48.868,-0.495,0.265
17:53:48.872,-0.495,0.24
17:53:48.876,-0.46,0.24
17:53:48.880,-0.445,0.245
17:53:48.884,-0.435,0.235
17:53:48.888,-0.445,0.235
17:53:48.892,-0.44,0.25
17:53:48.896,-0.455,0.23
17:53:48.900,-0.44,0.215
17:53:48.904,-0.4,0.195
17:53:48.908,-0.415,0.18
17:53:48.912,-0.39,0.145
17:53:48.916,-0.36,0.135
17:53:48.920,-0.375,0.12
17:53:48.924,-0.325,0.105
17:53:48.928,-0.305,0.085
17:53:48.932,-0.305,0.07
17:53:48.936,-0.29,0.045
17:53:48.940,-0.3,0.03
17:53:48.944,-0.275,0.01
17:53:48.948,-0.27,-0.005
17:53:48.952,-0.24,-0.02
17:53:48.956,-0.245,-0.03
17:53:48.960,-0.225,-0.03
17:53:48.964,-0.215,-0.04
17:53:48.968,-0.205,-0.04
17:53:48.972,-0.215,-0.04
17:53:48.976,-0.21,-0.065
17:53:48.980,-0.21,-0.095
17:53:48.984,-0.21,-0.065
17:53:48.988,-0.215,-0.06
17:53:48.992,-0.205,-0.075
17:53:48.996,-0.19,-0.09
17:53:49.000,-0.215,-0.1
17:53:49.004,-0.205,-0.1
17:53:49.008,-0.215,-0.07
17:53:49.012,-0.19,-0.075
17:53:49.016,-0.17,-0.08
17:53:49.020,-0.165,-0.09
17:53:49.024,-0.14,-0.09
17:53:49.028,-0.145,-0.09
17:53:49.032,-0.13,-0.08
17:53:49.036,-0.13,-0.07
17:53:49.040,-0.13,-0.06
