Time,ECG1,ECG2
23:18:29.876,0.12,-0.35
23:18:29.880,0.12,-0.36
23:18:29.884,0.11,-0.34
23:18:29.888,0.12,-0.325
23:18:29.892,0.095,-0.315
23:18:29.896,0.125,-0.32
23:18:29.900,0.115,-0.335
23:18:29.904,0.095,-0.3
23:18:29.908,0.08,-0.32
23:18:29.912,0.08,-0.305
23:18:29.916,0.08,-0.295
23:18:29.920,0.085,-0.32
23:18:29.924,0.09,-0.285
23:18:29.928,0.1,-0.295
23:18:29.932,0.095,-0.275
23:18:29.936,0.085,-0.27
23:18:29.940,0.095,-0.28
23:18:29.944,0.095,-0.26
23:18:29.948,0.12,-0.24
23:18:29.952,0.11,-0.26
23:18:29.956,0.08,-0.27
23:18:29.960,0.085,-0.225
23:18:29.964,0.055,-0.23
23:18:29.968,0.065,-0.21
23:18:29.972,0.08,-0.21
23:18:29.976,0.07,-0.205
23:18:29.980,0.075,-0.21
23:18:29.984,0.085,-0.205
23:18:29.988,0.095,-0.225
23:18:29.992,0.14,-0.215
23:18:29.996,0.15,-0.17
23:18:30.000,0.19,-0.165
23:18:30.004,0.175,-0.15
23:18:30.008,0.175,-0.125
23:18:30.012,0.2,-0.135
23:18:30.016,0.205,-0.155
23:18:30.020,0.18,-0.165
23:18:30.024,0.18,-0.16
23:18:30.028,0.175,-0.2
23:18:30.032,0.155,-0.22
23:18:30.036,0.125,-0.22
23:18:30.040,0.105,-0.205
23:18:30.044,0.095,-0.19
23:18:30.048,0.035,-0.175
23:18:30.052,0.02,-0.15
23:18:30.056,0.0,-0.135
23:18:30.060,0.0,-0.12
23:18:30.064,0.0,-0.11
23:18:30.068,0.0,-0.1
23:18:30.072,0.005,-0.1
23:18:30.076,0.0,-0.1
23:18:30.080,0.0,-0.09
23:18:30.084,-0.025,-0.095
23:18:30.088,-0.025,-0.09
23:18:30.092,-0.02,-0.1
23:18:30.096,-0.03,-0.09
23:18:30.100,-0.04,-0.12
23:18:30.104,-0.015,-0.125
23:18:30.108,-0.03,-0.125
23:18:30.112,-0.05,-0.13
23:18:30.116,-0.05,-0.115
23:18:30.120,-0.03,-0.12
23:18:30.124,-0.06,-0.09
23:18:30.128,-0.065,-0.125
23:18:30.132,-0.06,-0.105
23:18:30.136,-0.065,-0.08
23:18:30.140,-0.05,-0.075
23:18:30.144,-0.05,-0.07
23:18:30.148,-0.035,-0.05
23:18:30.152,-0.015,-0.06
23:18:30.156,0.025,-0.06
23:18:30.160,0.1,-0.08
23:18:30.164,0.18,-0.07
23:18:30.168,0.27,-0.07
23:18:30.172,0.335,-0.12
23:18:30.176,0.37,-0.145
23:18:30.180,0.41,-0.16
23:18:30.184,0.43,-0.16
23:18:30.188,0.41,-0.185
23:18:30.192,0.38,-0.305
23:18:30.196,0.44,-0.41
23:18:30.200,0.68,-0.61
23:18:30.204,0.985,-0.85
23:18:30.208,1.3,-1.11
23:18:30.212,1.47,-1.27
23:18:30.216,1.335,-1.255
23:18:30.220,0.88,-0.94
23:18:30.224,0.365,-0.52
23:18:30.228,0.025,-0.24
23:18:30.232,-0.115,-0.055
23:18:30.236,-0.22,0.025
23:18:30.240,-0.24,0.11
23:18:30.244,-0.295,0.13
23:18:30.248,-0.3,0.135
23:18:30.252,-0.325,0.13
23:18:30.256,-0.345,0.13
23:18:30.260,-0.37,0.13
23:18:30.264,-0.36,0.1
23:18:30.268,-0.365,0.1
23:18:30.272,-0.38,0.08
23:18:30.276,-0.37,0.085
23:18:30.280,-0.38,0.11
23:18:30.284,-0.4,0.08
23:18:30.288,-0.395,0.11
23:18:30.292,-0.39,0.13
23:18:30.296,-0.4,0.1
23:18:30.300,-0.405,0.08
23:18:30.304,-0.445,0.1
23:18:30.308,-0.44,0.1
23:18:30.312,-0.445,0.1
23:18:30.316,-0.465,0.1
23:18:30.320,-0.47,0.085
23:18:30.324,-0.47,0.095
23:18:30.328,-0.49,0.07
23:18:30.332,-0.485,0.08
23:18:30.336,-0.5,0.08
23:18:30.340,-0.54,0.08
23:18:30.344,-0.525,0.085
23:18:30.348,-0.53,0.085
23:18:30.352,-0.55,0.09
23:18:30.356,-0.56,0.1
23:18:30.360,-0.56,0.11
23:18:30.364,-0.545,0.105
23:18:30.368,-0.545,0.11
23:18:30.372,-0.555,0.1
23:18:30.376,-0.54,0.125
23:18:30.380,-0.52,0.125
23:18:30.384,-0.54,0.12
23:18:30.388,-0.545,0.12
23:18:30.392,-0.54,0.1
23:18:30.396,-0.54,0.125
23:18:30.400,-0.525,0.12
23:18:30.404,-0.53,0.125
23:18:30.408,-0.515,0.13
23:18:30.412,-0.53,0.12
23:18:30.416,-0.525,0.125
23:18:30.420,-0.52,0.105
23:18:30.424,-0.52,0.09
23:18:30.428,-0.5,0.11
23:18:30.432,-0.5,0.095
23:18:30.436,-0.485,0.09
23:18:30.440,-0.46,0.075
23:18:30.444,-0.46,0.045
23:18:30.448,-0.46,0.07
23:18:30.452,-0.45,0.06
23:18:30.456,-0.43,0.07
23:18:30.460,-0.415,0.065
23:18:30.464,-0.41,0.075
23:18:30.468,-0.395,0.055
23:18:30.472,-0.39,0.05
23:18:30.476,-0.38,0.075
23:18:30.480,-0.35,0.055
23:18:30.484,-0.355,0.07
23:18:30.488,-0.345,0.065
23:18:30.492,-0.345,0.075
23:18:30.496,-0.345,0.085
23:18:30.500,-0.33,0.105
23:18:30.504,-0.34,0.08
23:18:30.508,-0.33,0.095
23:18:30.512,-0.33,0.115
23:18:30.516,-0.335,0.105
23:18:30.520,-0.33,0.085
23:18:30.524,-0.33,0.11
23:18:30.528,-0.335,0.095
23:18:30.532,-0.35,0.09
23:18:30.536,-0.35,0.115
23:18:30.540,-0.35,0.12
23:18:30.544,-0.35,0.105
23:18:30.548,-0.36,0.11
23:18:30.552,-0.335,0.12
23:18:30.556,-0.35,0.13
23:18:30.560,-0.35,0.1
23:18:30.564,-0.36,0.125
23:18:30.568,-0.35,0.115
23:18:30.572,-0.355,0.135
23:18:30.576,-0.39,0.12
23:18:30.580,-0.375,0.13
23:18:30.584,-0.385,0.115
23:18:30.588,-0.35,0.145
23:18:30.592,-0.335,0.145
23:18:30.596,-0.35,0.13
23:18:30.600,-0.345,0.14
23:18:30.604,-0.355,0.15
23:18:30.608,-0.34,0.165
23:18:30.612,-0.35,0.145
23:18:30.616,-0.345,0.15
23:18:30.620,-0.36,0.15
23:18:30.624,-0.36,0.14
23:18:30.628,-0.34,0.145
23:18:30.632,-0.345,0.16
23:18:30.636,-0.345,0.15
23:18:30.640,-0.355,0.145
23:18:30.644,-0.36,0.14
23:18:30.648,-0.365,0.13
23:18:30.652,-0.37,0.13
23:18:30.656,-0.365,0.13
23:18:30.660,-0.355,0.13
23:18:30.664,-0.37,0.13
23:18:30.668,-0.375,0.145
23:18:30.672,-0.36,0.14
23:18:30.676,-0.355,0.135
23:18:30.680,-0.35,0.125
23:18:30.684,-0.34,0.13
23:18:30.688,-0.35,0.14
23:18:30.692,-0.35,0.145
23:18:30.696,-0.34,0.125
23:18:30.700,-0.33,0.15
23:18:30.704,-0.32,0.15
23:18:30.708,-0.34,0.13
23:18:30.712,-0.31,0.16
23:18:30.716,-0.3,0.155
23:18:30.720,-0.29,0.175
23:18:30.724,-0.3,0.175
23:18:30.728,-0.29,0.185
23:18:30.732,-0.255,0.18
23:18:30.736,-0.235,0.195
23:18:30.740,-0.19,0.2
23:18:30.744,-0.16,0.2
23:18:30.748,-0.155,0.23
23:18:30.752,-0.15,0.215
23:18:30.756,-0.12,0.22
23:18:30.760,-0.11,0.22
23:18:30.764,-0.1,0.21
23:18:30.768,-0.09,0.205
23:18:30.772,-0.11,0.14
23:18:30.776,-0.16,0.145
23:18:30.780,-0.21,0.1
23:18:30.784,-0.245,0.13
23:18:30.788,-0.3,0.12
23:18:30.792,-0.34,0.15
23:18:30.796,-0.4,0.145
23:18:30.800,-0.435,0.145
23:18:30.804,-0.45,0.185
23:18:30.808,-0.445,0.175
23:18:30.812,-0.44,0.18
23:18:30.816,-0.415,0.165
23:18:30.820,-0.41,0.15
23:18:30.824,-0.415,0.13
23:18:30.828,-0.41,0.15
23:18:30.832,-0.395,0.16
23:18:30.836,-0.4,0.15
23:18:30.840,-0.4,0.14
23:18:30.844,-0.4,0.16
23:18:30.848,-0.41,0.14
23:18:30.852,-0.41,0.135
23:18:30.856,-0.405,0.12
23:18:30.860,-0.395,0.155
23:18:30.864,-0.41,0.12
23:18:30.868,-0.41,0.12
23:18:30.872,-0.415,0.105
23:18:30.876,-0.42,0.145
23:18:30.880,-0.41,0.12
23:18:30.884,-0.405,0.135
23:18:30.888,-0.4,0.125
23:18:30.892,-0.405,0.12
23:18:30.896,-0.42,0.105
23:18:30.900,-0.405,0.105
23:18:30.904,-0.41,0.11
23:18:30.908,-0.38,0.125
23:18:30.912,-0.34,0.095
23:18:30.916,-0.31,0.11
23:18:30.920,-0.21,0.11
23:18:30.924,-0.12,0.115
23:18:30.928,-0.04,0.07
23:18:30.932,0.0,0.055
23:18:30.936,0.03,0.035
23:18:30.940,0.045,0.02
23:18:30.944,0.025,0.02
23:18:30.948,-0.045,-0.02
23:18:30.952,-0.04,-0.14
23:18:30.956,0.155,-0.295
23:18:30.960,0.45,-0.53
23:18:30.964,0.81,-0.8
23:18:30.968,1.05,-1.04
23:18:30.972,1.14,-1.095
23:18:30.976,0.91,-0.92
23:18:30.980,0.43,-0.54
23:18:30.984,0.0,-0.125
23:18:30.988,-0.245,0.105
23:18:30.992,-0.4,0.25
23:18:30.996,-0.45,0.29
23:18:31.000,-0.47,0.315
23:18:31.004,-0.52,0.315
23:18:31.008,-0.53,0.295
23:18:31.012,-0.53,0.285
23:18:31.016,-0.555,0.265
23:18:31.020,-0.565,0.26
23:18:31.024,-0.57,0.24
23:18:31.028,-0.55,0.205
23:18:31.032,-0.565,0.22
23:18:31.036,-0.54,0.215
23:18:31.040,-0.56,0.21
23:18:31.044,-0.555,0.215
23:18:31.048,-0.555,0.225
23:18:31.052,-0.575,0.22
23:18:31.056,-0.565,0.21
23:18:31.060,-0.545,0.225
23:18:31.064,-0.575,0.225
23:18:31.068,-0.585,0.225
23:18:31.072,-0.585,0.22
23:18:31.076,-0.6,0.225
23:18:31.080,-0.595,0.215
23:18:31.084,-0.6,0.21
23:18:31.088,-0.61,0.2
23:18:31.092,-0.605,0.21
23:18:31.096,-0.615,0.195
23:18:31.100,-0.63,0.21
23:18:31.104,-0.635,0.195
23:18:31.108,-0.655,0.19
23:18:31.112,-0.63,0.18
23:18:31.116,-0.64,0.195
23:18:31.120,-0.665,0.195
23:18:31.124,-0.64,0.18
23:18:31.128,-0.64,0.185
23:18:31.132,-0.64,0.195
23:18:31.136,-0.64,0.18
23:18:31.140,-0.615,0.185
23:18:31.144,-0.61,0.165
23:18:31.148,-0.595,0.185
23:18:31.152,-0.585,0.18
23:18:31.156,-0.58,0.2
23:18:31.160,-0.59,0.2
23:18:31.164,-0.585,0.18
23:18:31.168,-0.57,0.17
23:18:31.172,-0.55,0.175
23:18:31.176,-0.55,0.17
23:18:31.180,-0.55,0.18
23:18:31.184,-0.53,0.145
23:18:31.188,-0.54,0.15
23:18:31.192,-0.515,0.155
23:18:31.196,-0.515,0.14
23:18:31.200,-0.52,0.145
23:18:31.204,-0.51,0.115
23:18:31.208,-0.495,0.115
23:18:31.212,-0.475,0.115
23:18:31.216,-0.48,0.115
23:18:31.220,-0.465,0.11
23:18:31.224,-0.44,0.07
23:18:31.228,-0.45,0.09
23:18:31.232,-0.42,0.095
23:18:31.236,-0.42,0.11
23:18:31.240,-0.415,0.115
23:18:31.244,-0.405,0.12
23:18:31.248,-0.39,0.105
23:18:31.252,-0.37,0.09
23:18:31.256,-0.35,0.105
23:18:31.260,-0.32,0.12
23:18:31.264,-0.325,0.11
23:18:31.268,-0.335,0.135
23:18:31.272,-0.32,0.13
23:18:31.276,-0.315,0.155
23:18:31.280,-0.3,0.16
23:18:31.284,-0.34,0.165
23:18:31.288,-0.325,0.18
23:18:31.292,-0.31,0.16
23:18:31.296,-0.33,0.165
23:18:31.300,-0.355,0.175
23:18:31.304,-0.355,0.15
23:18:31.308,-0.335,0.16
23:18:31.312,-0.36,0.15
23:18:31.316,-0.35,0.16
23:18:31.320,-0.35,0.14
23:18:31.324,-0.345,0.155
23:18:31.328,-0.36,0.13
23:18:31.332,-0.355,0.13
23:18:31.336,-0.375,0.13
23:18:31.340,-0.39,0.15
23:18:31.344,-0.36,0.14
23:18:31.348,-0.36,0.155
23:18:31.352,-0.36,0.13
23:18:31.356,-0.375,0.135
23:18:31.360,-0.365,0.135
23:18:31.364,-0.37,0.135
23:18:31.368,-0.365,0.125
23:18:31.372,-0.36,0.125
23:18:31.376,-0.355,0.13
23:18:31.380,-0.34,0.12
23:18:31.384,-0.315,0.13
23:18:31.388,-0.305,0.145
23:18:31.392,-0.305,0.125
23:18:31.396,-0.28,0.105
23:18:31.400,-0.28,0.12
23:18:31.404,-0.27,0.1
23:18:31.408,-0.24,0.115
23:18:31.412,-0.215,0.125
23:18:31.416,-0.18,0.12
23:18:31.420,-0.16,0.115
23:18:31.424,-0.125,0.14
23:18:31.428,-0.09,0.155
23:18:31.432,-0.065,0.12
23:18:31.436,-0.06,0.12
23:18:31.440,-0.03,0.105
23:18:31.444,-0.03,0.085
23:18:31.448,-0.055,0.055
23:18:31.452,-0.115,0.05
23:18:31.456,-0.18,0.04
23:18:31.460,-0.22,0.055
23:18:31.464,-0.275,0.015
23:18:31.468,-0.325,0.045
23:18:31.472,-0.36,0.03
23:18:31.476,-0.385,0.045
23:18:31.480,-0.4,0.06
23:18:31.484,-0.415,0.065
23:18:31.488,-0.415,0.02
23:18:31.492,-0.42,0.03
23:18:31.496,-0.4,0.025
23:18:31.500,-0.39,0.01
23:18:31.504,-0.41,0.025
23:18:31.508,-0.405,0.025
23:18:31.512,-0.41,-0.01
23:18:31.516,-0.42,0.015
23:18:31.520,-0.425,-0.005
23:18:31.524,-0.39,0.0
23:18:31.528,-0.415,-0.02
23:18:31.532,-0.385,-0.02
23:18:31.536,-0.38,-0.03
23:18:31.540,-0.375,-0.025
23:18:31.544,-0.38,-0.03
23:18:31.548,-0.395,-0.045
23:18:31.552,-0.375,-0.02
23:18:31.556,-0.37,-0.04
23:18:31.560,-0.355,-0.045
23:18:31.564,-0.35,-0.03
23:18:31.568,-0.355,-0.045
23:18:31.572,-0.345,-0.045
23:18:31.576,-0.335,-0.07
23:18:31.580,-0.335,-0.065
23:18:31.584,-0.3,-0.07
23:18:31.588,-0.255,-0.07
23:18:31.592,-0.21,-0.07
23:18:31.596,-0.135,-0.055
23:18:31.600,-0.02,-0.06
23:18:31.604,0.09,-0.1
23:18:31.608,0.2,-0.12
23:18:31.612,0.24,-0.14
23:18:31.616,0.27,-0.145
23:18:31.620,0.27,-0.12
23:18:31.624,0.23,-0.14
23:18:31.628,0.2,-0.235
23:18:31.632,0.26,-0.305
23:18:31.636,0.515,-0.51
23:18:31.640,0.835,-0.78
23:18:31.644,1.14,-1.06
23:18:31.648,1.255,-1.26
23:18:31.652,1.13,-1.205
23:18:31.656,0.7,-0.885
23:18:31.660,0.235,-0.495
23:18:31.664,0.0,-0.22
23:18:31.668,-0.125,-0.075
23:18:31.672,-0.19,0.0
23:18:31.676,-0.24,0.035
23:18:31.680,-0.27,0.025
23:18:31.684,-0.32,0.025
23:18:31.688,-0.34,0.03
23:18:31.692,-0.345,-0.01
23:18:31.696,-0.365,-0.025
23:18:31.700,-0.365,-0.05
23:18:31.704,-0.36,-0.07
23:18:31.708,-0.32,-0.07
23:18:31.712,-0.33,-0.065
23:18:31.716,-0.335,-0.085
23:18:31.720,-0.34,-0.07
23:18:31.724,-0.345,-0.09
23:18:31.728,-0.335,-0.105
23:18:31.732,-0.35,-0.09
23:18:31.736,-0.32,-0.125
23:18:31.740,-0.32,-0.135
23:18:31.744,-0.3,-0.115
23:18:31.748,-0.315,-0.145
23:18:31.752,-0.315,-0.115
23:18:31.756,-0.325,-0.145
23:18:31.760,-0.36,-0.165
23:18:31.764,-0.335,-0.17
23:18:31.768,-0.35,-0.15
23:18:31.772,-0.365,-0.17
23:18:31.776,-0.35,-0.17
23:18:31.780,-0.34,-0.16
23:18:31.784,-0.35,-0.185
23:18:31.788,-0.37,-0.2
23:18:31.792,-0.36,-0.2
23:18:31.796,-0.33,-0.21
23:18:31.800,-0.325,-0.21
23:18:31.804,-0.3,-0.2
23:18:31.808,-0.32,-0.2
23:18:31.812,-0.32,-0.21
23:18:31.816,-0.31,-0.21
23:18:31.820,-0.29,-0.225
23:18:31.824,-0.29,-0.235
23:18:31.828,-0.26,-0.205
23:18:31.832,-0.23,-0.21
23:18:31.836,-0.23,-0.225
23:18:31.840,-0.245,-0.225
23:18:31.844,-0.235,-0.205
23:18:31.848,-0.2,-0.23
23:18:31.852,-0.195,-0.22
23:18:31.856,-0.19,-0.24
23:18:31.860,-0.19,-0.24
23:18:31.864,-0.16,-0.245
23:18:31.868,-0.135,-0.26
23:18:31.872,-0.14,-0.255
23:18:31.876,-0.13,-0.265
23:18:31.880,-0.13,-0.275
23:18:31.884,-0.11,-0.32
23:18:31.888,-0.08,-0.3
23:18:31.892,-0.06,-0.29
23:18:31.896,-0.065,-0.31
23:18:31.900,-0.065,-0.315
23:18:31.904,-0.04,-0.32
23:18:31.908,-0.025,-0.33
23:18:31.912,-0.025,-0.345
23:18:31.916,-0.03,-0.355
23:18:31.920,0.015,-0.32
23:18:31.924,0.03,-0.34
23:18:31.928,0.025,-0.34
23:18:31.932,0.035,-0.315
23:18:31.936,0.04,-0.335
23:18:31.940,0.03,-0.33
23:18:31.944,0.05,-0.34
23:18:31.948,0.055,-0.34
23:18:31.952,0.085,-0.345
23:18:31.956,0.06,-0.35
23:18:31.960,0.055,-0.335
23:18:31.964,0.07,-0.345
23:18:31.968,0.08,-0.35
23:18:31.972,0.06,-0.345
23:18:31.976,0.05,-0.355
23:18:31.980,0.055,-0.375
23:18:31.984,0.045,-0.38
23:18:31.988,0.04,-0.385
23:18:31.992,0.035,-0.375
23:18:31.996,0.07,-0.37
23:18:32.000,0.065,-0.36
23:18:32.004,0.035,-0.37
23:18:32.008,0.035,-0.375
23:18:32.012,0.025,-0.395
23:18:32.016,0.025,-0.4
23:18:32.020,0.02,-0.395
23:18:32.024,0.035,-0.41
23:18:32.028,0.055,-0.395
23:18:32.032,0.075,-0.39
23:18:32.036,0.09,-0.41
23:18:32.040,0.09,-0.395
23:18:32.044,0.07,-0.405
23:18:32.048,0.07,-0.415
23:18:32.052,0.09,-0.41
23:18:32.056,0.12,-0.4
23:18:32.060,0.13,-0.4
23:18:32.064,0.155,-0.42
23:18:32.068,0.155,-0.43
23:18:32.072,0.145,-0.43
23:18:32.076,0.16,-0.41
23:18:32.080,0.165,-0.405
23:18:32.084,0.2,-0.44
23:18:32.088,0.235,-0.4
23:18:32.092,0.275,-0.4
23:18:32.096,0.315,-0.415
23:18:32.100,0.34,-0.4
23:18:32.104,0.385,-0.415
23:18:32.108,0.405,-0.43
23:18:32.112,0.415,-0.415
23:18:32.116,0.435,-0.405
23:18:32.120,0.395,-0.435
23:18:32.124,0.36,-0.455
23:18:32.128,0.295,-0.475
23:18:32.132,0.28,-0.47
23:18:32.136,0.225,-0.465
23:18:32.140,0.175,-0.46
23:18:32.144,0.125,-0.47
23:18:32.148,0.085,-0.445
23:18:32.152,0.06,-0.455
23:18:32.156,0.03,-0.465
23:18:32.160,0.03,-0.455
23:18:32.164,0.055,-0.46
23:18:32.168,0.055,-0.45
23:18:32.172,0.04,-0.47
23:18:32.176,0.055,-0.485
23:18:32.180,0.06,-0.475
23:18:32.184,0.075,-0.46
23:18:32.188,0.06,-0.445
23:18:32.192,0.045,-0.465
23:18:32.196,0.045,-0.455
23:18:32.200,0.025,-0.455
23:18:32.204,0.055,-0.46
23:18:32.208,0.04,-0.47
23:18:32.212,0.05,-0.46
23:18:32.216,0.045,-0.46
23:18:32.220,0.04,-0.485
23:18:32.224,0.055,-0.485
23:18:32.228,0.035,-0.465
23:18:32.232,0.02,-0.445
23:18:32.236,0.035,-0.44
23:18:32.240,0.04,-0.45
23:18:32.244,0.03,-0.44
23:18:32.248,0.045,-0.43
23:18:32.252,0.035,-0.41
23:18:32.256,0.05,-0.4
23:18:32.260,0.07,-0.435
23:18:32.264,0.12,-0.425
23:18:32.268,0.205,-0.415
23:18:32.272,0.29,-0.43
23:18:32.276,0.365,-0.415
23:18:32.280,0.46,-0.45
23:18:32.284,0.54,-0.465
23:18:32.288,0.595,-0.505
23:18:32.292,0.635,-0.465
23:18:32.296,0.62,-0.465
23:18:32.300,0.54,-0.52
23:18:32.304,0.56,-0.59
23:18:32.308,0.705,-0.74
23:18:32.312,0.975,-0.96
23:18:32.316,1.295,-1.245
23:18:32.320,1.515,-1.475
23:18:32.324,1.475,-1.49
23:18:32.328,1.115,-1.33
23:18:32.332,0.605,-0.935
23:18:32.336,0.25,-0.605
23:18:32.340,0.08,-0.435
23:18:32.344,0.005,-0.32
23:18:32.348,-0.03,-0.23
23:18:32.352,-0.035,-0.195
23:18:32.356,-0.07,-0.17
23:18:32.360,-0.1,-0.16
23:18:32.364,-0.105,-0.175
23:18:32.368,-0.12,-0.19
23:18:32.372,-0.14,-0.2
23:18:32.376,-0.14,-0.22
23:18:32.380,-0.165,-0.21
23:18:32.384,-0.145,-0.21
23:18:32.388,-0.15,-0.2
23:18:32.392,-0.165,-0.195
23:18:32.396,-0.16,-0.195
23:18:32.400,-0.165,-0.205
23:18:32.404,-0.165,-0.205
23:18:32.408,-0.175,-0.2
23:18:32.412,-0.17,-0.17
23:18:32.416,-0.165,-0.16
23:18:32.420,-0.19,-0.17
23:18:32.424,-0.195,-0.185
23:18:32.428,-0.205,-0.165
23:18:32.432,-0.22,-0.16
23:18:32.436,-0.21,-0.16
23:18:32.440,-0.21,-0.175
23:18:32.444,-0.22,-0.155
23:18:32.448,-0.235,-0.165
23:18:32.452,-0.225,-0.145
23:18:32.456,-0.23,-0.145
23:18:32.460,-0.24,-0.145
23:18:32.464,-0.24,-0.135
23:18:32.468,-0.255,-0.13
23:18:32.472,-0.245,-0.13
23:18:32.476,-0.245,-0.13
23:18:32.480,-0.25,-0.11
23:18:32.484,-0.245,-0.11
23:18:32.488,-0.235,-0.12
23:18:32.492,-0.25,-0.1
23:18:32.496,-0.245,-0.1
23:18:32.500,-0.24,-0.09
23:18:32.504,-0.22,-0.09
23:18:32.508,-0.24,-0.085
23:18:32.512,-0.225,-0.07
23:18:32.516,-0.22,-0.07
23:18:32.520,-0.205,-0.09
23:18:32.524,-0.225,-0.07
23:18:32.528,-0.22,-0.08
23:18:32.532,-0.23,-0.075
23:18:32.536,-0.205,-0.08
23:18:32.540,-0.19,-0.08
23:18:32.544,-0.185,-0.075
23:18:32.548,-0.18,-0.085
23:18:32.552,-0.165,-0.095
23:18:32.556,-0.17,-0.085
23:18:32.560,-0.135,-0.09
23:18:32.564,-0.16,-0.07
23:18:32.568,-0.135,-0.075
23:18:32.572,-0.135,-0.06
23:18:32.576,-0.12,-0.075
23:18:32.580,-0.12,-0.045
23:18:32.584,-0.115,-0.055
23:18:32.588,-0.075,-0.05
23:18:32.592,-0.09,-0.06
23:18:32.596,-0.075,-0.05
23:18:32.600,-0.04,-0.05
23:18:32.604,-0.05,-0.045
23:18:32.608,-0.06,-0.025
23:18:32.612,-0.065,-0.045
23:18:32.616,-0.05,-0.025
23:18:32.620,-0.04,-0.01
23:18:32.624,-0.075,-0.005
23:18:32.628,-0.07,-0.005
23:18:32.632,-0.08,-0.02
23:18:32.636,-0.06,0.015
23:18:32.640,-0.075,0.01
23:18:32.644,-0.095,0.005
23:18:32.648,-0.115,0.015
23:18:32.652,-0.115,0.035
23:18:32.656,-0.105,0.02
23:18:32.660,-0.125,0.015
23:18:32.664,-0.105,0.025
23:18:32.668,-0.12,0.03
23:18:32.672,-0.105,0.03
23:18:32.676,-0.15,0.035
23:18:32.680,-0.135,0.03
23:18:32.684,-0.15,0.02
23:18:32.688,-0.14,0.03
23:18:32.692,-0.155,0.045
23:18:32.696,-0.14,0.035
23:18:32.700,-0.14,0.04
23:18:32.704,-0.13,0.065
23:18:32.708,-0.11,0.06
23:18:32.712,-0.095,0.065
23:18:32.716,-0.09,0.04
23:18:32.720,-0.085,0.06
23:18:32.724,-0.11,0.065
23:18:32.728,-0.1,0.035
23:18:32.732,-0.075,0.065
23:18:32.736,-0.05,0.09
23:18:32.740,0.0,0.095
23:18:32.744,0.055,0.1
23:18:32.748,0.06,0.115
23:18:32.752,0.06,0.125
23:18:32.756,0.08,0.105
23:18:32.760,0.115,0.105
23:18:32.764,0.145,0.095
23:18:32.768,0.115,0.085
23:18:32.772,0.095,0.035
23:18:32.776,0.04,0.03
23:18:32.780,-0.01,0.005
23:18:32.784,-0.06,0.0
23:18:32.788,-0.13,0.02
23:18:32.792,-0.185,0.025
23:18:32.796,-0.22,0.04
23:18:32.800,-0.265,0.03
23:18:32.804,-0.315,0.03
23:18:32.808,-0.3,0.035
23:18:32.812,-0.305,0.025
23:18:32.816,-0.295,0.04
23:18:32.820,-0.305,0.05
23:18:32.824,-0.295,0.025
23:18:32.828,-0.295,0.025
23:18:32.832,-0.265,0.055
23:18:32.836,-0.285,0.035
23:18:32.840,-0.28,0.025
23:18:32.844,-0.29,0.045
23:18:32.848,-0.285,0.025
23:18:32.852,-0.28,0.035
23:18:32.856,-0.29,0.06
23:18:32.860,-0.315,0.05
23:18:32.864,-0.315,0.04
23:18:32.868,-0.295,0.035
23:18:32.872,-0.295,0.025
23:18:32.876,-0.29,0.015
23:18:32.880,-0.295,0.025
23:18:32.884,-0.3,0.015
23:18:32.888,-0.315,0.025
23:18:32.892,-0.315,0.035
23:18:32.896,-0.315,0.01
23:18:32.900,-0.285,0.02
23:18:32.904,-0.295,0.025
23:18:32.908,-0.29,0.02
23:18:32.912,-0.25,0.04
23:18:32.916,-0.18,0.03
23:18:32.920,-0.125,0.005
23:18:32.924,-0.01,0.0
23:18:32.928,0.075,0.01
23:18:32.932,0.14,-0.04
23:18:32.936,0.165,-0.06
23:18:32.940,0.185,-0.08
23:18:32.944,0.2,-0.06
23:18:32.948,0.165,-0.105
23:18:32.952,0.11,-0.21
23:18:32.956,0.205,-0.345
23:18:32.960,0.475,-0.57
23:18:32.964,0.825,-0.83
23:18:32.968,1.13,-1.07
23:18:32.972,1.275,-1.215
23:18:32.976,1.125,-1.14
23:18:32.980,0.655,-0.825
23:18:32.984,0.16,-0.4
23:18:32.988,-0.13,-0.11
23:18:32.992,-0.29,0.07
23:18:32.996,-0.36,0.145
23:18:33.000,-0.39,0.2
23:18:33.004,-0.415,0.185
23:18:33.008,-0.44,0.165
23:18:33.012,-0.46,0.19
23:18:33.016,-0.46,0.195
23:18:33.020,-0.48,0.175
23:18:33.024,-0.49,0.155
23:18:33.028,-0.475,0.125
23:18:33.032,-0.47,0.135
23:18:33.036,-0.47,0.13
23:18:33.040,-0.485,0.12
23:18:33.044,-0.51,0.13
23:18:33.048,-0.49,0.17
23:18:33.052,-0.485,0.13
23:18:33.056,-0.49,0.155
23:18:33.060,-0.49,0.16
23:18:33.064,-0.505,0.145
23:18:33.068,-0.52,0.14
23:18:33.072,-0.52,0.15
23:18:33.076,-0.525,0.13
23:18:33.080,-0.545,0.1
23:18:33.084,-0.545,0.145
23:18:33.088,-0.55,0.115
23:18:33.092,-0.565,0.125
23:18:33.096,-0.565,0.125
23:18:33.100,-0.58,0.125
23:18:33.104,-0.56,0.115
23:18:33.108,-0.595,0.105
23:18:33.112,-0.59,0.125
23:18:33.116,-0.595,0.105
23:18:33.120,-0.6,0.11
23:18:33.124,-0.595,0.12
23:18:33.128,-0.595,0.115
23:18:33.132,-0.605,0.12
23:18:33.136,-0.58,0.125
23:18:33.140,-0.58,0.115
23:18:33.144,-0.555,0.11
23:18:33.148,-0.565,0.115
23:18:33.152,-0.57,0.11
23:18:33.156,-0.56,0.1
23:18:33.160,-0.55,0.12
23:18:33.164,-0.535,0.125
23:18:33.168,-0.52,0.1
23:18:33.172,-0.53,0.09
23:18:33.176,-0.515,0.105
23:18:33.180,-0.485,0.075
23:18:33.184,-0.485,0.085
23:18:33.188,-0.47,0.065
23:18:33.192,-0.49,0.065
23:18:33.196,-0.46,0.06
23:18:33.200,-0.445,0.075
23:18:33.204,-0.455,0.075
23:18:33.208,-0.435,0.035
23:18:33.212,-0.425,0.055
23:18:33.216,-0.41,0.04
23:18:33.220,-0.39,0.045
23:18:33.224,-0.385,0.03
23:18:33.228,-0.38,0.03
23:18:33.232,-0.36,0.02
23:18:33.236,-0.36,0.025
23:18:33.240,-0.345,0.035
23:18:33.244,-0.345,0.04
23:18:33.248,-0.32,0.05
23:18:33.252,-0.31,0.035
23:18:33.256,-0.295,0.075
23:18:33.260,-0.31,0.06
23:18:33.264,-0.29,0.07
23:18:33.268,-0.28,0.07
23:18:33.272,-0.28,0.09
23:18:33.276,-0.28,0.105
23:18:33.280,-0.29,0.08
23:18:33.284,-0.285,0.08
23:18:33.288,-0.28,0.08
23:18:33.292,-0.29,0.085
23:18:33.296,-0.3,0.08
23:18:33.300,-0.315,0.085
23:18:33.304,-0.3,0.095
23:18:33.308,-0.29,0.12
23:18:33.312,-0.305,0.105
23:18:33.316,-0.31,0.12
23:18:33.320,-0.315,0.105
23:18:33.324,-0.31,0.105
23:18:33.328,-0.3,0.12
23:18:33.332,-0.31,0.1
23:18:33.336,-0.3,0.085
23:18:33.340,-0.305,0.095
23:18:33.344,-0.315,0.1
23:18:33.348,-0.285,0.075
23:18:33.352,-0.28,0.09
23:18:33.356,-0.27,0.115
23:18:33.360,-0.23,0.105
23:18:33.364,-0.225,0.095
23:18:33.368,-0.225,0.105
23:18:33.372,-0.23,0.13
23:18:33.376,-0.185,0.11
23:18:33.380,-0.12,0.15
23:18:33.384,-0.1,0.145
23:18:33.388,-0.055,0.165
23:18:33.392,-0.05,0.18
23:18:33.396,-0.03,0.16
23:18:33.400,-0.015,0.175
23:18:33.404,0.005,0.175
23:18:33.408,0.0,0.155
23:18:33.412,-0.005,0.115
23:18:33.416,-0.05,0.09
23:18:33.420,-0.09,0.08
23:18:33.424,-0.155,0.095
23:18:33.428,-0.205,0.06
23:18:33.432,-0.25,0.07
23:18:33.436,-0.305,0.065
23:18:33.440,-0.32,0.09
23:18:33.444,-0.385,0.095
23:18:33.448,-0.4,0.125
23:18:33.452,-0.4,0.12
23:18:33.456,-0.4,0.085
23:18:33.460,-0.4,0.08
23:18:33.464,-0.4,0.085
23:18:33.468,-0.375,0.085
23:18:33.472,-0.365,0.085
23:18:33.476,-0.37,0.085
23:18:33.480,-0.36,0.085
23:18:33.484,-0.36,0.11
23:18:33.488,-0.36,0.1
23:18:33.492,-0.35,0.085
23:18:33.496,-0.355,0.1
23:18:33.500,-0.35,0.085
23:18:33.504,-0.365,0.095
23:18:33.508,-0.35,0.1
23:18:33.512,-0.37,0.1
23:18:33.516,-0.345,0.08
23:18:33.520,-0.375,0.075
23:18:33.524,-0.38,0.095
23:18:33.528,-0.35,0.095
23:18:33.532,-0.355,0.07
23:18:33.536,-0.36,0.08
23:18:33.540,-0.345,0.065
23:18:33.544,-0.345,0.05
23:18:33.548,-0.32,0.055
23:18:33.552,-0.33,0.045
23:18:33.556,-0.255,0.055
23:18:33.560,-0.21,0.05
23:18:33.564,-0.095,0.065
23:18:33.568,-0.015,0.02
23:18:33.572,0.055,0.005
23:18:33.576,0.095,-0.045
23:18:33.580,0.135,-0.055
23:18:33.584,0.135,-0.035
23:18:33.588,0.095,-0.065
23:18:33.592,0.05,-0.14
23:18:33.596,0.11,-0.265
23:18:33.600,0.315,-0.42
23:18:33.604,0.665,-0.68
23:18:33.608,1.01,-0.95
23:18:33.612,1.23,-1.16
23:18:33.616,1.2,-1.13
23:18:33.620,0.865,-0.88
23:18:33.624,0.375,-0.445
23:18:33.628,-0.015,-0.1
23:18:33.632,-0.23,0.1
23:18:33.636,-0.335,0.19
23:18:33.640,-0.345,0.215
23:18:33.644,-0.395,0.24
23:18:33.648,-0.4,0.23
23:18:33.652,-0.425,0.21
23:18:33.656,-0.42,0.22
23:18:33.660,-0.44,0.195
23:18:33.664,-0.455,0.16
23:18:33.668,-0.465,0.135
23:18:33.672,-0.45,0.13
23:18:33.676,-0.45,0.15
23:18:33.680,-0.44,0.135
23:18:33.684,-0.44,0.15
23:18:33.688,-0.43,0.155
23:18:33.692,-0.44,0.165
23:18:33.696,-0.43,0.16
23:18:33.700,-0.45,0.17
23:18:33.704,-0.445,0.155
23:18:33.708,-0.435,0.16
23:18:33.712,-0.405,0.165
23:18:33.716,-0.44,0.175
23:18:33.720,-0.445,0.15
23:18:33.724,-0.45,0.165
23:18:33.728,-0.45,0.18
23:18:33.732,-0.46,0.175
23:18:33.736,-0.455,0.165
23:18:33.740,-0.49,0.165
23:18:33.744,-0.485,0.165
23:18:33.748,-0.495,0.175
23:18:33.752,-0.48,0.165
23:18:33.756,-0.49,0.15
23:18:33.760,-0.485,0.165
23:18:33.764,-0.5,0.155
23:18:33.768,-0.49,0.155
23:18:33.772,-0.48,0.16
23:18:33.776,-0.49,0.16
23:18:33.780,-0.485,0.16
23:18:33.784,-0.455,0.135
23:18:33.788,-0.48,0.135
23:18:33.792,-0.465,0.145
23:18:33.796,-0.445,0.135
23:18:33.800,-0.435,0.135
23:18:33.804,-0.42,0.15
23:18:33.808,-0.4,0.14
23:18:33.812,-0.395,0.14
23:18:33.816,-0.39,0.125
23:18:33.820,-0.37,0.135
23:18:33.824,-0.36,0.145
23:18:33.828,-0.36,0.11
23:18:33.832,-0.34,0.105
23:18:33.836,-0.335,0.105
23:18:33.840,-0.32,0.115
23:18:33.844,-0.305,0.09
23:18:33.848,-0.305,0.08
23:18:33.852,-0.295,0.085
23:18:33.856,-0.295,0.08
23:18:33.860,-0.28,0.09
23:18:33.864,-0.275,0.075
23:18:33.868,-0.26,0.07
23:18:33.872,-0.255,0.07
23:18:33.876,-0.21,0.065
23:18:33.880,-0.21,0.075
23:18:33.884,-0.22,0.07
23:18:33.888,-0.225,0.055
23:18:33.892,-0.195,0.085
23:18:33.896,-0.17,0.065
23:18:33.900,-0.185,0.065
23:18:33.904,-0.18,0.095
23:18:33.908,-0.175,0.105
23:18:33.912,-0.155,0.09
23:18:33.916,-0.165,0.1
23:18:33.920,-0.14,0.115
23:18:33.924,-0.14,0.105
23:18:33.928,-0.14,0.105
23:18:33.932,-0.145,0.1
23:18:33.936,-0.15,0.125
23:18:33.940,-0.13,0.12
23:18:33.944,-0.14,0.12
23:18:33.948,-0.145,0.115
23:18:33.952,-0.155,0.12
23:18:33.956,-0.16,0.12
23:18:33.960,-0.17,0.125
23:18:33.964,-0.19,0.135
23:18:33.968,-0.195,0.115
23:18:33.972,-0.195,0.125
23:18:33.976,-0.195,0.12
23:18:33.980,-0.205,0.12
23:18:33.984,-0.185,0.125
23:18:33.988,-0.185,0.065
23:18:33.992,-0.195,0.11
23:18:33.996,-0.17,0.1
23:18:34.000,-0.16,0.1
23:18:34.004,-0.16,0.1
23:18:34.008,-0.14,0.09
23:18:34.012,-0.135,0.09
23:18:34.016,-0.1,0.095
23:18:34.020,-0.075,0.12
23:18:34.024,-0.01,0.115
23:18:34.028,0.03,0.125
23:18:34.032,0.045,0.12
23:18:34.036,0.06,0.12
23:18:34.040,0.075,0.115
23:18:34.044,0.095,0.13
23:18:34.048,0.115,0.135
23:18:34.052,0.125,0.105
23:18:34.056,0.14,0.07
23:18:34.060,0.09,0.07
23:18:34.064,0.04,0.04
23:18:34.068,-0.015,0.035
23:18:34.072,-0.06,0.035
23:18:34.076,-0.13,0.02
23:18:34.080,-0.19,0.025
23:18:34.084,-0.25,0.03
23:18:34.088,-0.27,0.04
23:18:34.092,-0.3,0.02
23:18:34.096,-0.305,0.01
23:18:34.100,-0.285,0.0
23:18:34.104,-0.28,0.0
23:18:34.108,-0.265,0.0
23:18:34.112,-0.275,-0.01
23:18:34.116,-0.285,-0.02
23:18:34.120,-0.265,0.0
23:18:34.124,-0.26,-0.02
23:18:34.128,-0.275,-0.01
23:18:34.132,-0.24,-0.03
23:18:34.136,-0.255,-0.02
23:18:34.140,-0.245,-0.025
23:18:34.144,-0.25,-0.03
23:18:34.148,-0.24,-0.015
23:18:34.152,-0.255,-0.025
23:18:34.156,-0.265,-0.035
23:18:34.160,-0.25,-0.06
23:18:34.164,-0.255,-0.05
23:18:34.168,-0.235,-0.055
23:18:34.172,-0.235,-0.065
23:18:34.176,-0.245,-0.065
23:18:34.180,-0.24,-0.08
23:18:34.184,-0.24,-0.1
23:18:34.188,-0.22,-0.075
23:18:34.192,-0.21,-0.085
23:18:34.196,-0.155,-0.09
23:18:34.200,-0.085,-0.09
23:18:34.204,-0.005,-0.11
23:18:34.208,0.085,-0.115
23:18:34.212,0.165,-0.155
23:18:34.216,0.23,-0.19
23:18:34.220,0.29,-0.175
23:18:34.224,0.325,-0.19
23:18:34.228,0.29,-0.17
23:18:34.232,0.24,-0.215
23:18:34.236,0.23,-0.28
23:18:34.240,0.39,-0.41
23:18:34.244,0.655,-0.64
23:18:34.248,1.005,-0.94
23:18:34.252,1.29,-1.2
23:18:34.256,1.345,-1.285
23:18:34.260,1.145,-1.15
23:18:34.264,0.68,-0.795
23:18:34.268,0.23,-0.415
23:18:34.272,0.005,-0.185
23:18:34.276,-0.085,-0.055
23:18:34.280,-0.13,0.015
23:18:34.284,-0.175,0.015
23:18:34.288,-0.215,0.035
23:18:34.292,-0.27,0.015
23:18:34.296,-0.315,0.015
23:18:34.300,-0.32,-0.01
23:18:34.304,-0.33,-0.025
23:18:34.308,-0.325,-0.06
23:18:34.312,-0.315,-0.075
23:18:34.316,-0.32,-0.095
23:18:34.320,-0.31,-0.095
23:18:34.324,-0.3,-0.125
23:18:34.328,-0.345,-0.095
23:18:34.332,-0.33,-0.12
23:18:34.336,-0.325,-0.145
23:18:34.340,-0.315,-0.095
23:18:34.344,-0.31,-0.105
23:18:34.348,-0.315,-0.095
23:18:34.352,-0.3,-0.105
23:18:34.356,-0.31,-0.105
23:18:34.360,-0.3,-0.11
23:18:34.364,-0.32,-0.12
23:18:34.368,-0.3,-0.12
23:18:34.372,-0.295,-0.135
23:18:34.376,-0.3,-0.12
23:18:34.380,-0.3,-0.13
23:18:34.384,-0.32,-0.14
23:18:34.388,-0.31,-0.14
23:18:34.392,-0.32,-0.135
23:18:34.396,-0.32,-0.14
23:18:34.400,-0.315,-0.145
23:18:34.404,-0.33,-0.175
23:18:34.408,-0.335,-0.175
23:18:34.412,-0.33,-0.17
23:18:34.416,-0.31,-0.18
23:18:34.420,-0.295,-0.18
23:18:34.424,-0.285,-0.205
23:18:34.428,-0.29,-0.2
23:18:34.432,-0.31,-0.2
23:18:34.436,-0.305,-0.205
23:18:34.440,-0.28,-0.215
23:18:34.444,-0.25,-0.19
23:18:34.448,-0.24,-0.2
23:18:34.452,-0.205,-0.225
23:18:34.456,-0.195,-0.22
23:18:34.460,-0.205,-0.205
23:18:34.464,-0.16,-0.225
23:18:34.468,-0.14,-0.245
23:18:34.472,-0.15,-0.245
23:18:34.476,-0.13,-0.265
23:18:34.480,-0.11,-0.245
23:18:34.484,-0.08,-0.26
23:18:34.488,-0.07,-0.245
23:18:34.492,-0.08,-0.255
23:18:34.496,-0.09,-0.255
23:18:34.500,-0.06,-0.255
23:18:34.504,-0.055,-0.27
23:18:34.508,-0.025,-0.265
23:18:34.512,-0.045,-0.285
23:18:34.516,-0.07,-0.28
23:18:34.520,-0.045,-0.29
23:18:34.524,-0.03,-0.305
23:18:34.528,-0.025,-0.32
23:18:34.532,-0.005,-0.33
23:18:34.536,0.0,-0.335
23:18:34.540,0.005,-0.315
23:18:34.544,0.005,-0.34
23:18:34.548,-0.015,-0.32
23:18:34.552,0.0,-0.335
23:18:34.556,0.025,-0.35
23:18:34.560,0.005,-0.335
23:18:34.564,0.015,-0.35
23:18:34.568,0.04,-0.33
23:18:34.572,0.055,-0.32
23:18:34.576,0.055,-0.33
23:18:34.580,0.07,-0.335
23:18:34.584,0.055,-0.345
23:18:34.588,0.06,-0.33
23:18:34.592,0.055,-0.345
23:18:34.596,0.04,-0.33
23:18:34.600,0.035,-0.355
23:18:34.604,0.055,-0.35
23:18:34.608,0.035,-0.355
23:18:34.612,0.04,-0.37
23:18:34.616,0.025,-0.355
23:18:34.620,0.03,-0.385
23:18:34.624,0.01,-0.375
23:18:34.628,0.04,-0.36
23:18:34.632,0.025,-0.375
23:18:34.636,0.03,-0.37
23:18:34.640,0.035,-0.4
23:18:34.644,0.06,-0.405
23:18:34.648,0.1,-0.385
23:18:34.652,0.11,-0.395
23:18:34.656,0.12,-0.41
23:18:34.660,0.11,-0.395
23:18:34.664,0.15,-0.415
23:18:34.668,0.16,-0.38
23:18:34.672,0.185,-0.37
23:18:34.676,0.27,-0.375
23:18:34.680,0.315,-0.375
23:18:34.684,0.345,-0.335
23:18:34.688,0.395,-0.345
23:18:34.692,0.43,-0.365
23:18:34.696,0.455,-0.325
23:18:34.700,0.465,-0.345
23:18:34.704,0.47,-0.36
23:18:34.708,0.43,-0.36
23:18:34.712,0.4,-0.395
23:18:34.716,0.37,-0.405
23:18:34.720,0.33,-0.42
23:18:34.724,0.27,-0.41
23:18:34.728,0.215,-0.43
23:18:34.732,0.155,-0.4
23:18:34.736,0.09,-0.4
23:18:34.740,0.08,-0.41
23:18:34.744,0.065,-0.4
23:18:34.748,0.065,-0.42
23:18:34.752,0.075,-0.42
23:18:34.756,0.095,-0.435
23:18:34.760,0.08,-0.445
23:18:34.764,0.1,-0.455
23:18:34.768,0.105,-0.44
23:18:34.772,0.11,-0.445
23:18:34.776,0.11,-0.465
23:18:34.780,0.11,-0.46
23:18:34.784,0.095,-0.455
23:18:34.788,0.095,-0.46
23:18:34.792,0.11,-0.455
23:18:34.796,0.125,-0.46
23:18:34.800,0.135,-0.445
23:18:34.804,0.125,-0.445
23:18:34.808,0.14,-0.445
23:18:34.812,0.11,-0.455
23:18:34.816,0.13,-0.44
23:18:34.820,0.12,-0.43
23:18:34.824,0.13,-0.42
23:18:34.828,0.115,-0.435
23:18:34.832,0.105,-0.435
23:18:34.836,0.095,-0.43
23:18:34.840,0.115,-0.435
23:18:34.844,0.13,-0.46
23:18:34.848,0.14,-0.435
23:18:34.852,0.2,-0.425
23:18:34.856,0.26,-0.425
23:18:34.860,0.36,-0.47
23:18:34.864,0.47,-0.48
23:18:34.868,0.56,-0.515
23:18:34.872,0.62,-0.535
23:18:34.876,0.65,-0.53
23:18:34.880,0.695,-0.48
23:18:34.884,0.655,-0.52
23:18:34.888,0.605,-0.595
23:18:34.892,0.65,-0.705
23:18:34.896,0.885,-0.89
23:18:34.900,1.175,-1.13
23:18:34.904,1.475,-1.36
23:18:34.908,1.6,-1.55
23:18:34.912,1.46,-1.52
23:18:34.916,1.015,-1.215
23:18:34.920,0.54,-0.85
23:18:34.924,0.26,-0.55
23:18:34.928,0.135,-0.435
23:18:34.932,0.09,-0.34
23:18:34.936,0.06,-0.28
23:18:34.940,0.025,-0.245
23:18:34.944,-0.005,-0.23
23:18:34.948,-0.045,-0.225
23:18:34.952,-0.075,-0.235
23:18:34.956,-0.1,-0.255
23:18:34.960,-0.14,-0.255
23:18:34.964,-0.14,-0.27
23:18:34.968,-0.165,-0.28
23:18:34.972,-0.14,-0.285
23:18:34.976,-0.13,-0.295
23:18:34.980,-0.135,-0.28
23:18:34.984,-0.135,-0.28
23:18:34.988,-0.13,-0.28
23:18:34.992,-0.135,-0.255
23:18:34.996,-0.13,-0.275
23:18:35.000,-0.145,-0.24
23:18:35.004,-0.155,-0.27
23:18:35.008,-0.16,-0.265
23:18:35.012,-0.16,-0.25
23:18:35.016,-0.165,-0.26
23:18:35.020,-0.145,-0.24
23:18:35.024,-0.14,-0.24
23:18:35.028,-0.16,-0.23
23:18:35.032,-0.165,-0.22
23:18:35.036,-0.19,-0.23
23:18:35.040,-0.195,-0.225
23:18:35.044,-0.2,-0.19
23:18:35.048,-0.185,-0.2
23:18:35.052,-0.19,-0.205
23:18:35.056,-0.2,-0.195
23:18:35.060,-0.215,-0.21
23:18:35.064,-0.235,-0.2
23:18:35.068,-0.235,-0.19
23:18:35.072,-0.235,-0.185
23:18:35.076,-0.235,-0.2
23:18:35.080,-0.245,-0.18
23:18:35.084,-0.245,-0.185
23:18:35.088,-0.24,-0.19
23:18:35.092,-0.24,-0.2
23:18:35.096,-0.225,-0.215
23:18:35.100,-0.23,-0.22
23:18:35.104,-0.215,-0.205
23:18:35.108,-0.23,-0.205
23:18:35.112,-0.195,-0.195
23:18:35.116,-0.215,-0.195
23:18:35.120,-0.195,-0.175
23:18:35.124,-0.18,-0.2
23:18:35.128,-0.16,-0.2
23:18:35.132,-0.14,-0.2
23:18:35.136,-0.14,-0.215
23:18:35.140,-0.155,-0.215
23:18:35.144,-0.125,-0.185
23:18:35.148,-0.13,-0.205
23:18:35.152,-0.115,-0.195
23:18:35.156,-0.11,-0.195
23:18:35.160,-0.125,-0.205
23:18:35.164,-0.095,-0.215
23:18:35.168,-0.095,-0.215
23:18:35.172,-0.1,-0.205
23:18:35.176,-0.09,-0.205
23:18:35.180,-0.085,-0.205
23:18:35.184,-0.105,-0.18
23:18:35.188,-0.1,-0.195
23:18:35.192,-0.095,-0.19
23:18:35.196,-0.095,-0.19
23:18:35.200,-0.075,-0.2
23:18:35.204,-0.09,-0.185
23:18:35.208,-0.08,-0.185
23:18:35.212,-0.085,-0.195
23:18:35.216,-0.09,-0.16
23:18:35.220,-0.09,-0.185
23:18:35.224,-0.095,-0.17
23:18:35.228,-0.1,-0.165
23:18:35.232,-0.095,-0.165
23:18:35.236,-0.1,-0.15
23:18:35.240,-0.095,-0.175
23:18:35.244,-0.065,-0.16
23:18:35.248,-0.07,-0.16
23:18:35.252,-0.08,-0.14
23:18:35.256,-0.08,-0.145
23:18:35.260,-0.095,-0.145
23:18:35.264,-0.115,-0.115
23:18:35.268,-0.115,-0.135
23:18:35.272,-0.115,-0.115
23:18:35.276,-0.125,-0.125
23:18:35.280,-0.12,-0.12
23:18:35.284,-0.125,-0.145
23:18:35.288,-0.11,-0.13
23:18:35.292,-0.11,-0.135
23:18:35.296,-0.065,-0.11
23:18:35.300,-0.09,-0.125
23:18:35.304,-0.075,-0.12
23:18:35.308,-0.075,-0.125
23:18:35.312,-0.08,-0.11
23:18:35.316,-0.04,-0.12
23:18:35.320,-0.015,-0.105
23:18:35.324,0.035,-0.095
23:18:35.328,0.06,-0.07
23:18:35.332,0.08,-0.06
23:18:35.336,0.105,-0.06
23:18:35.340,0.14,-0.04
23:18:35.344,0.16,-0.065
23:18:35.348,0.19,-0.075
23:18:35.352,0.17,-0.095
23:18:35.356,0.145,-0.155
23:18:35.360,0.1,-0.155
23:18:35.364,0.02,-0.145
23:18:35.368,0.0,-0.16
23:18:35.372,-0.065,-0.15
23:18:35.376,-0.135,-0.135
23:18:35.380,-0.16,-0.12
23:18:35.384,-0.22,-0.12
23:18:35.388,-0.235,-0.105
23:18:35.392,-0.245,-0.105
23:18:35.396,-0.26,-0.125
23:18:35.400,-0.255,-0.135
23:18:35.404,-0.26,-0.145
23:18:35.408,-0.265,-0.125
23:18:35.412,-0.255,-0.14
23:18:35.416,-0.255,-0.145
23:18:35.420,-0.27,-0.15
23:18:35.424,-0.23,-0.14
23:18:35.428,-0.245,-0.155
23:18:35.432,-0.265,-0.16
23:18:35.436,-0.25,-0.145
23:18:35.440,-0.25,-0.16
23:18:35.444,-0.235,-0.14
23:18:35.448,-0.265,-0.155
23:18:35.452,-0.265,-0.14
23:18:35.456,-0.255,-0.155
23:18:35.460,-0.25,-0.14
23:18:35.464,-0.23,-0.145
23:18:35.468,-0.24,-0.155
23:18:35.472,-0.225,-0.135
23:18:35.476,-0.245,-0.16
23:18:35.480,-0.235,-0.125
23:18:35.484,-0.23,-0.105
23:18:35.488,-0.22,-0.125
23:18:35.492,-0.19,-0.1
23:18:35.496,-0.175,-0.12
23:18:35.500,-0.11,-0.115
23:18:35.504,-0.005,-0.135
23:18:35.508,0.07,-0.13
23:18:35.512,0.13,-0.165
23:18:35.516,0.185,-0.21
23:18:35.520,0.2,-0.25
23:18:35.524,0.24,-0.245
23:18:35.528,0.215,-0.26
23:18:35.532,0.17,-0.33
23:18:35.536,0.185,-0.445
23:18:35.540,0.34,-0.6
23:18:35.544,0.645,-0.815
23:18:35.548,0.97,-1.11
23:18:35.552,1.23,-1.325
23:18:35.556,1.285,-1.395
23:18:35.560,1.04,-1.225
23:18:35.564,0.565,-0.85
23:18:35.568,0.1,-0.445
23:18:35.572,-0.125,-0.195
23:18:35.576,-0.235,-0.06
23:18:35.580,-0.285,0.01
23:18:35.584,-0.315,0.02
23:18:35.588,-0.32,0.015
23:18:35.592,-0.35,0.01
23:18:35.596,-0.385,0.015
23:18:35.600,-0.39,0.015
23:18:35.604,-0.385,0.015
23:18:35.608,-0.39,-0.01
23:18:35.612,-0.405,-0.02
23:18:35.616,-0.415,-0.015
23:18:35.620,-0.405,-0.03
23:18:35.624,-0.42,-0.04
23:18:35.628,-0.41,-0.035
23:18:35.632,-0.435,-0.04
23:18:35.636,-0.435,-0.055
23:18:35.640,-0.42,-0.04
23:18:35.644,-0.42,-0.035
23:18:35.648,-0.43,-0.06
23:18:35.652,-0.43,-0.045
23:18:35.656,-0.445,-0.03
23:18:35.660,-0.44,-0.02
23:18:35.664,-0.455,-0.03
23:18:35.668,-0.47,-0.02
23:18:35.672,-0.46,-0.01
23:18:35.676,-0.45,-0.025
23:18:35.680,-0.47,-0.015
23:18:35.684,-0.475,-0.01
23:18:35.688,-0.48,-0.01
23:18:35.692,-0.46,-0.01
23:18:35.696,-0.475,-0.02
23:18:35.700,-0.465,-0.03
23:18:35.704,-0.45,-0.005
23:18:35.708,-0.46,0.0
23:18:35.712,-0.455,0.0
23:18:35.716,-0.47,-0.005
23:18:35.720,-0.465,0.005
23:18:35.724,-0.46,-0.025
23:18:35.728,-0.46,-0.02
23:18:35.732,-0.47,-0.005
23:18:35.736,-0.445,0.0
23:18:35.740,-0.45,-0.01
23:18:35.744,-0.45,-0.025
23:18:35.748,-0.435,-0.025
23:18:35.752,-0.44,-0.015
23:18:35.756,-0.41,-0.035
23:18:35.760,-0.405,-0.03
23:18:35.764,-0.38,-0.04
23:18:35.768,-0.38,-0.04
23:18:35.772,-0.37,-0.045
23:18:35.776,-0.375,-0.04
23:18:35.780,-0.365,-0.035
23:18:35.784,-0.355,-0.06
23:18:35.788,-0.325,-0.065
23:18:35.792,-0.305,-0.07
23:18:35.796,-0.295,-0.08
23:18:35.800,-0.275,-0.075
23:18:35.804,-0.25,-0.08
23:18:35.808,-0.24,-0.065
23:18:35.812,-0.235,-0.065
23:18:35.816,-0.245,-0.085
23:18:35.820,-0.23,-0.065
23:18:35.824,-0.21,-0.07
23:18:35.828,-0.225,-0.07
23:18:35.832,-0.2,-0.07
23:18:35.836,-0.19,-0.09
23:18:35.840,-0.195,-0.08
23:18:35.844,-0.2,-0.055
23:18:35.848,-0.21,-0.065
23:18:35.852,-0.205,-0.07
23:18:35.856,-0.205,-0.065
23:18:35.860,-0.185,-0.08
23:18:35.864,-0.19,-0.07
23:18:35.868,-0.185,-0.07
23:18:35.872,-0.2,-0.075
23:18:35.876,-0.185,-0.065
23:18:35.880,-0.195,-0.075
23:18:35.884,-0.2,-0.04
23:18:35.888,-0.175,-0.045
23:18:35.892,-0.19,-0.035
23:18:35.896,-0.19,-0.025
23:18:35.900,-0.195,-0.015
23:18:35.904,-0.195,-0.03
23:18:35.908,-0.185,-0.03
23:18:35.912,-0.16,-0.055
23:18:35.916,-0.155,-0.04
23:18:35.920,-0.145,-0.03
23:18:35.924,-0.125,-0.02
23:18:35.928,-0.135,-0.025
23:18:35.932,-0.135,-0.01
23:18:35.936,-0.12,-0.025
23:18:35.940,-0.105,-0.005
23:18:35.944,-0.07,0.005
23:18:35.948,-0.03,0.0
23:18:35.952,0.015,0.005
23:18:35.956,0.03,0.04
23:18:35.960,0.035,0.035
23:18:35.964,0.06,0.03
23:18:35.968,0.065,0.045
23:18:35.972,0.085,0.02
23:18:35.976,0.09,-0.005
23:18:35.980,0.07,-0.03
23:18:35.984,0.015,-0.06
23:18:35.988,0.0,-0.05
23:18:35.992,-0.085,-0.065
23:18:35.996,-0.115,-0.095
23:18:36.000,-0.135,-0.075
23:18:36.004,-0.2,-0.06
23:18:36.008,-0.24,-0.03
23:18:36.012,-0.27,-0.04
23:18:36.016,-0.295,-0.035
23:18:36.020,-0.28,-0.025
23:18:36.024,-0.27,-0.045
23:18:36.028,-0.27,-0.05
23:18:36.032,-0.275,-0.06
23:18:36.036,-0.255,-0.045
23:18:36.040,-0.265,-0.065
23:18:36.044,-0.265,-0.05
23:18:36.048,-0.255,-0.065
23:18:36.052,-0.25,-0.045
23:18:36.056,-0.275,-0.06
23:18:36.060,-0.26,-0.05
23:18:36.064,-0.25,-0.07
23:18:36.068,-0.27,-0.07
23:18:36.072,-0.285,-0.085
23:18:36.076,-0.295,-0.07
23:18:36.080,-0.28,-0.075
23:18:36.084,-0.285,-0.065
23:18:36.088,-0.27,-0.075
23:18:36.092,-0.26,-0.085
23:18:36.096,-0.275,-0.075
23:18:36.100,-0.27,-0.065
23:18:36.104,-0.275,-0.06
23:18:36.108,-0.275,-0.075
23:18:36.112,-0.265,-0.095
23:18:36.116,-0.27,-0.07
23:18:36.120,-0.22,-0.08
23:18:36.124,-0.155,-0.11
23:18:36.128,-0.065,-0.06
23:18:36.132,0.035,-0.06
23:18:36.136,0.105,-0.075
23:18:36.140,0.14,-0.13
23:18:36.144,0.175,-0.15
23:18:36.148,0.21,-0.15
23:18:36.152,0.18,-0.155
23:18:36.156,0.125,-0.21
23:18:36.160,0.115,-0.275
23:18:36.164,0.235,-0.43
23:18:36.168,0.52,-0.64
23:18:36.172,0.865,-0.925
23:18:36.176,1.175,-1.175
23:18:36.180,1.255,-1.305
23:18:36.184,1.08,-1.205
23:18:36.188,0.62,-0.83
23:18:36.192,0.15,-0.45
23:18:36.196,-0.095,-0.175
23:18:36.200,-0.25,0.0
23:18:36.204,-0.285,0.06
23:18:36.208,-0.325,0.06
23:18:36.212,-0.35,0.065
23:18:36.216,-0.39,0.06
23:18:36.220,-0.4,0.06
23:18:36.224,-0.41,0.04
23:18:36.228,-0.4,0.005
23:18:36.232,-0.42,0.005
23:18:36.236,-0.405,0.005
23:18:36.240,-0.415,0.0
23:18:36.244,-0.415,0.005
23:18:36.248,-0.41,0.005
23:18:36.252,-0.425,0.02
23:18:36.256,-0.425,0.01
23:18:36.260,-0.415,0.005
23:18:36.264,-0.43,0.035
23:18:36.268,-0.41,0.0
23:18:36.272,-0.425,0.005
23:18:36.276,-0.445,0.005
23:18:36.280,-0.42,0.0
23:18:36.284,-0.44,0.005
23:18:36.288,-0.46,0.005
23:18:36.292,-0.455,0.01
23:18:36.296,-0.46,0.0
23:18:36.300,-0.47,0.0
23:18:36.304,-0.48,0.005
23:18:36.308,-0.485,0.0
23:18:36.312,-0.47,0.02
23:18:36.316,-0.49,0.0
23:18:36.320,-0.49,-0.015
23:18:36.324,-0.485,-0.005
23:18:36.328,-0.5,-0.01
23:18:36.332,-0.5,0.0
23:18:36.336,-0.5,-0.005
23:18:36.340,-0.485,0.0
23:18:36.344,-0.49,0.0
23:18:36.348,-0.465,0.015
23:18:36.352,-0.47,0.015
23:18:36.356,-0.45,0.005
23:18:36.360,-0.44,-0.01
23:18:36.364,-0.42,0.0
23:18:36.368,-0.415,0.0
23:18:36.372,-0.42,0.0
23:18:36.376,-0.4,0.0
23:18:36.380,-0.395,-0.005
23:18:36.384,-0.4,-0.005
23:18:36.388,-0.37,0.0
23:18:36.392,-0.37,-0.02
23:18:36.396,-0.34,-0.04
23:18:36.400,-0.36,-0.015
23:18:36.404,-0.345,-0.04
23:18:36.408,-0.325,-0.05
23:18:36.412,-0.32,-0.06
23:18:36.416,-0.31,-0.05
23:18:36.420,-0.305,-0.075
23:18:36.424,-0.295,-0.07
23:18:36.428,-0.28,-0.07
23:18:36.432,-0.28,-0.07
23:18:36.436,-0.265,-0.1
23:18:36.440,-0.25,-0.075
23:18:36.444,-0.235,-0.06
23:18:36.448,-0.225,-0.07
23:18:36.452,-0.225,-0.04
23:18:36.456,-0.2,-0.045
23:18:36.460,-0.185,-0.08
23:18:36.464,-0.17,-0.075
23:18:36.468,-0.185,-0.05
23:18:36.472,-0.17,-0.04
23:18:36.476,-0.175,-0.04
23:18:36.480,-0.16,-0.035
23:18:36.484,-0.14,-0.035
23:18:36.488,-0.16,-0.035
23:18:36.492,-0.16,-0.015
23:18:36.496,-0.16,-0.045
23:18:36.500,-0.155,-0.01
23:18:36.504,-0.17,-0.04
23:18:36.508,-0.17,-0.02
23:18:36.512,-0.195,-0.02
23:18:36.516,-0.19,-0.02
23:18:36.520,-0.185,-0.02
23:18:36.524,-0.185,-0.005
23:18:36.528,-0.175,-0.01
23:18:36.532,-0.185,-0.025
23:18:36.536,-0.195,-0.005
23:18:36.540,-0.175,-0.04
23:18:36.544,-0.185,-0.03
23:18:36.548,-0.175,-0.02
23:18:36.552,-0.13,-0.015
23:18:36.556,-0.135,-0.025
23:18:36.560,-0.12,-0.03
23:18:36.564,-0.1,-0.035
23:18:36.568,-0.07,0.0
23:18:36.572,-0.025,0.005
23:18:36.576,0.005,0.01
23:18:36.580,0.065,0.035
23:18:36.584,0.075,0.04
23:18:36.588,0.09,0.05
23:18:36.592,0.125,0.035
23:18:36.596,0.13,0.045
23:18:36.600,0.125,0.05
23:18:36.604,0.13,0.01
23:18:36.608,0.11,-0.025
23:18:36.612,0.06,-0.025
23:18:36.616,0.005,-0.055
23:18:36.620,-0.06,-0.06
23:18:36.624,-0.12,-0.04
23:18:36.628,-0.155,-0.035
23:18:36.632,-0.215,-0.045
23:18:36.636,-0.245,-0.05
23:18:36.640,-0.265,-0.04
23:18:36.644,-0.28,-0.03
23:18:36.648,-0.29,-0.02
23:18:36.652,-0.27,-0.03
23:18:36.656,-0.27,-0.06
23:18:36.660,-0.26,-0.07
23:18:36.664,-0.275,-0.055
23:18:36.668,-0.28,-0.07
23:18:36.672,-0.26,-0.065
23:18:36.676,-0.245,-0.07
23:18:36.680,-0.24,-0.07
23:18:36.684,-0.25,-0.055
23:18:36.688,-0.235,-0.075
23:18:36.692,-0.25,-0.045
23:18:36.696,-0.215,-0.045
23:18:36.700,-0.23,-0.06
23:18:36.704,-0.225,-0.055
23:18:36.708,-0.225,-0.075
23:18:36.712,-0.2,-0.07
23:18:36.716,-0.235,-0.065
23:18:36.720,-0.225,-0.09
23:18:36.724,-0.215,-0.075
23:18:36.728,-0.24,-0.1
23:18:36.732,-0.25,-0.07
23:18:36.736,-0.265,-0.075
23:18:36.740,-0.235,-0.09
23:18:36.744,-0.2,-0.08
23:18:36.748,-0.18,-0.085
23:18:36.752,-0.12,-0.1
23:18:36.756,-0.04,-0.095
23:18:36.760,0.065,-0.11
23:18:36.764,0.14,-0.145
23:18:36.768,0.185,-0.19
23:18:36.772,0.18,-0.205
23:18:36.776,0.21,-0.2
23:18:36.780,0.185,-0.215
23:18:36.784,0.145,-0.255
23:18:36.788,0.18,-0.345
23:18:36.792,0.375,-0.48
23:18:36.796,0.685,-0.72
23:18:36.800,1.015,-1.01
23:18:36.804,1.27,-1.245
23:18:36.808,1.29,-1.32
23:18:36.812,1.04,-1.15
23:18:36.816,0.555,-0.725
23:18:36.820,0.13,-0.345
23:18:36.824,-0.09,-0.115
23:18:36.828,-0.23,0.01
23:18:36.832,-0.285,0.07
23:18:36.836,-0.295,0.045
23:18:36.840,-0.32,0.02
23:18:36.844,-0.36,0.025
23:18:36.848,-0.33,0.015
23:18:36.852,-0.345,0.0
23:18:36.856,-0.375,-0.04
23:18:36.860,-0.39,-0.07
23:18:36.864,-0.39,-0.07
23:18:36.868,-0.39,-0.09
23:18:36.872,-0.39,-0.08
23:18:36.876,-0.4,-0.1
23:18:36.880,-0.415,-0.095
23:18:36.884,-0.415,-0.095
23:18:36.888,-0.41,-0.09
23:18:36.892,-0.39,-0.095
23:18:36.896,-0.39,-0.105
23:18:36.900,-0.375,-0.1
23:18:36.904,-0.395,-0.085
23:18:36.908,-0.405,-0.115
23:18:36.912,-0.415,-0.09
23:18:36.916,-0.405,-0.1
23:18:36.920,-0.42,-0.1
23:18:36.924,-0.415,-0.1
23:18:36.928,-0.445,-0.12
23:18:36.932,-0.43,-0.115
23:18:36.936,-0.425,-0.135
23:18:36.940,-0.42,-0.12
23:18:36.944,-0.41,-0.135
23:18:36.948,-0.44,-0.145
23:18:36.952,-0.425,-0.135
23:18:36.956,-0.45,-0.145
23:18:36.960,-0.465,-0.145
23:18:36.964,-0.465,-0.15
23:18:36.968,-0.46,-0.145
23:18:36.972,-0.435,-0.16
23:18:36.976,-0.435,-0.18
23:18:36.980,-0.435,-0.18
23:18:36.984,-0.41,-0.2
23:18:36.988,-0.405,-0.18
23:18:36.992,-0.395,-0.19
23:18:36.996,-0.385,-0.185
23:18:37.000,-0.38,-0.19
23:18:37.004,-0.345,-0.185
23:18:37.008,-0.32,-0.205
23:18:37.012,-0.31,-0.22
23:18:37.016,-0.29,-0.22
23:18:37.020,-0.265,-0.215
23:18:37.024,-0.285,-0.24
23:18:37.028,-0.265,-0.225
23:18:37.032,-0.29,-0.22
23:18:37.036,-0.275,-0.23
23:18:37.040,-0.25,-0.225
23:18:37.044,-0.23,-0.25
23:18:37.048,-0.205,-0.255
23:18:37.052,-0.22,-0.275
23:18:37.056,-0.2,-0.27
23:18:37.060,-0.19,-0.26
23:18:37.064,-0.185,-0.265
23:18:37.068,-0.175,-0.29
23:18:37.072,-0.2,-0.275
23:18:37.076,-0.145,-0.28
23:18:37.080,-0.145,-0.315
23:18:37.084,-0.13,-0.3
23:18:37.088,-0.16,-0.29
23:18:37.092,-0.12,-0.295
23:18:37.096,-0.13,-0.275
23:18:37.100,-0.125,-0.295
23:18:37.104,-0.135,-0.285
23:18:37.108,-0.13,-0.315
23:18:37.112,-0.105,-0.28
23:18:37.116,-0.1,-0.29
23:18:37.120,-0.07,-0.305
23:18:37.124,-0.065,-0.295
23:18:37.128,-0.085,-0.3
23:18:37.132,-0.085,-0.305
23:18:37.136,-0.1,-0.3
23:18:37.140,-0.1,-0.3
23:18:37.144,-0.1,-0.315
23:18:37.148,-0.12,-0.295
23:18:37.152,-0.095,-0.305
23:18:37.156,-0.105,-0.32
23:18:37.160,-0.115,-0.32
23:18:37.164,-0.105,-0.29
23:18:37.168,-0.125,-0.325
23:18:37.172,-0.15,-0.335
23:18:37.176,-0.175,-0.33
23:18:37.180,-0.155,-0.35
23:18:37.184,-0.12,-0.365
23:18:37.188,-0.065,-0.37
23:18:37.192,-0.07,-0.395
23:18:37.196,-0.06,-0.385
23:18:37.200,-0.03,-0.365
23:18:37.204,0.01,-0.36
23:18:37.208,0.05,-0.35
23:18:37.212,0.09,-0.355
23:18:37.216,0.095,-0.34
23:18:37.220,0.145,-0.375
23:18:37.224,0.19,-0.37
23:18:37.228,0.205,-0.36
23:18:37.232,0.23,-0.365
23:18:37.236,0.235,-0.365
23:18:37.240,0.195,-0.41
23:18:37.244,0.13,-0.41
23:18:37.248,0.085,-0.445
23:18:37.252,0.035,-0.445
23:18:37.256,-0.01,-0.465
23:18:37.260,-0.06,-0.46
23:18:37.264,-0.11,-0.45
23:18:37.268,-0.155,-0.455
23:18:37.272,-0.15,-0.455
23:18:37.276,-0.18,-0.475
23:18:37.280,-0.185,-0.47
23:18:37.284,-0.17,-0.485
23:18:37.288,-0.18,-0.505
23:18:37.292,-0.135,-0.515
23:18:37.296,-0.14,-0.5
23:18:37.300,-0.13,-0.51
23:18:37.304,-0.13,-0.505
23:18:37.308,-0.13,-0.53
23:18:37.312,-0.13,-0.515
23:18:37.316,-0.13,-0.545
23:18:37.320,-0.15,-0.51
23:18:37.324,-0.14,-0.53
23:18:37.328,-0.13,-0.525
23:18:37.332,-0.125,-0.53
23:18:37.336,-0.115,-0.555
23:18:37.340,-0.115,-0.545
23:18:37.344,-0.11,-0.535
23:18:37.348,-0.08,-0.555
23:18:37.352,-0.075,-0.58
23:18:37.356,-0.075,-0.57
23:18:37.360,-0.055,-0.575
23:18:37.364,-0.045,-0.56
23:18:37.368,-0.035,-0.57
23:18:37.372,-0.025,-0.565
23:18:37.376,-0.015,-0.565
23:18:37.380,0.005,-0.56
23:18:37.384,0.095,-0.585
23:18:37.388,0.18,-0.59
23:18:37.392,0.28,-0.605
23:18:37.396,0.38,-0.635
23:18:37.400,0.45,-0.675
23:18:37.404,0.51,-0.71
23:18:37.408,0.545,-0.66
23:18:37.412,0.52,-0.695
23:18:37.416,0.49,-0.72
23:18:37.420,0.525,-0.785
23:18:37.424,0.69,-0.94
23:18:37.428,0.99,-1.17
23:18:37.432,1.315,-1.44
23:18:37.436,1.455,-1.635
23:18:37.440,1.32,-1.665
23:18:37.444,0.88,-1.41
23:18:37.448,0.425,-1.02
23:18:37.452,0.15,-0.775
23:18:37.456,0.055,-0.63
23:18:37.460,0.015,-0.525
23:18:37.464,0.0,-0.485
23:18:37.468,-0.035,-0.45
23:18:37.472,-0.05,-0.43
23:18:37.476,-0.1,-0.425
23:18:37.480,-0.095,-0.455
23:18:37.484,-0.11,-0.495
23:18:37.488,-0.115,-0.52
23:18:37.492,-0.1,-0.515
23:18:37.496,-0.125,-0.54
23:18:37.500,-0.135,-0.545
23:18:37.504,-0.125,-0.55
23:18:37.508,-0.12,-0.535
23:18:37.512,-0.12,-0.545
23:18:37.516,-0.14,-0.53
23:18:37.520,-0.14,-0.54
23:18:37.524,-0.135,-0.545
23:18:37.528,-0.125,-0.54
23:18:37.532,-0.125,-0.54
23:18:37.536,-0.14,-0.53
23:18:37.540,-0.155,-0.54
23:18:37.544,-0.155,-0.535
23:18:37.548,-0.15,-0.535
23:18:37.552,-0.15,-0.545
23:18:37.556,-0.135,-0.535
23:18:37.560,-0.125,-0.54
23:18:37.564,-0.14,-0.545
23:18:37.568,-0.135,-0.54
23:18:37.572,-0.14,-0.53
23:18:37.576,-0.16,-0.53
23:18:37.580,-0.145,-0.525
23:18:37.584,-0.15,-0.515
23:18:37.588,-0.13,-0.535
23:18:37.592,-0.135,-0.515
23:18:37.596,-0.14,-0.5
23:18:37.600,-0.165,-0.51
23:18:37.604,-0.165,-0.525
23:18:37.608,-0.18,-0.505
23:18:37.612,-0.16,-0.49
23:18:37.616,-0.145,-0.485
23:18:37.620,-0.12,-0.495
23:18:37.624,-0.13,-0.49
23:18:37.628,-0.13,-0.48
23:18:37.632,-0.115,-0.515
23:18:37.636,-0.105,-0.51
23:18:37.640,-0.105,-0.505
23:18:37.644,-0.105,-0.51
23:18:37.648,-0.08,-0.49
23:18:37.652,-0.085,-0.5
23:18:37.656,-0.07,-0.51
23:18:37.660,-0.06,-0.495
23:18:37.664,-0.06,-0.515
23:18:37.668,-0.04,-0.505
23:18:37.672,-0.025,-0.5
23:18:37.676,-0.035,-0.5
23:18:37.680,-0.01,-0.485
23:18:37.684,-0.02,-0.495
23:18:37.688,-0.005,-0.49
23:18:37.692,0.015,-0.49
23:18:37.696,0.035,-0.48
23:18:37.700,0.02,-0.48
23:18:37.704,0.0,-0.475
23:18:37.708,0.005,-0.485
23:18:37.712,0.015,-0.47
23:18:37.716,0.005,-0.47
23:18:37.720,0.025,-0.455
23:18:37.724,0.015,-0.46
23:18:37.728,0.02,-0.455
23:18:37.732,0.03,-0.425
23:18:37.736,0.01,-0.44
23:18:37.740,0.025,-0.44
23:18:37.744,0.02,-0.435
23:18:37.748,0.01,-0.445
23:18:37.752,0.01,-0.44
23:18:37.756,0.015,-0.4
23:18:37.760,0.03,-0.42
23:18:37.764,0.015,-0.43
23:18:37.768,-0.005,-0.385
23:18:37.772,-0.005,-0.405
23:18:37.776,0.01,-0.42
23:18:37.780,0.0,-0.39
23:18:37.784,0.0,-0.39
23:18:37.788,0.01,-0.39
23:18:37.792,0.01,-0.39
23:18:37.796,0.0,-0.37
23:18:37.800,0.0,-0.38
23:18:37.804,-0.01,-0.375
23:18:37.808,0.0,-0.37
23:18:37.812,0.0,-0.365
23:18:37.816,0.01,-0.37
23:18:37.820,0.035,-0.33
23:18:37.824,0.04,-0.34
23:18:37.828,0.04,-0.33
23:18:37.832,0.045,-0.34
23:18:37.836,0.07,-0.335
23:18:37.840,0.115,-0.33
23:18:37.844,0.16,-0.32
23:18:37.848,0.175,-0.31
23:18:37.852,0.21,-0.285
23:18:37.856,0.255,-0.29
23:18:37.860,0.27,-0.275
23:18:37.864,0.29,-0.29
23:18:37.868,0.275,-0.285
23:18:37.872,0.27,-0.295
23:18:37.876,0.215,-0.32
23:18:37.880,0.18,-0.32
23:18:37.884,0.115,-0.32
23:18:37.888,0.075,-0.315
23:18:37.892,0.02,-0.315
23:18:37.896,-0.035,-0.315
23:18:37.900,-0.08,-0.29
23:18:37.904,-0.105,-0.28
23:18:37.908,-0.105,-0.265
23:18:37.912,-0.11,-0.265
23:18:37.916,-0.115,-0.26
23:18:37.920,-0.125,-0.265
23:18:37.924,-0.11,-0.255
23:18:37.928,-0.13,-0.27
23:18:37.932,-0.13,-0.265
23:18:37.936,-0.115,-0.27
23:18:37.940,-0.125,-0.255
23:18:37.944,-0.135,-0.26
23:18:37.948,-0.135,-0.29
23:18:37.952,-0.12,-0.28
23:18:37.956,-0.135,-0.295
23:18:37.960,-0.145,-0.27
23:18:37.964,-0.12,-0.26
23:18:37.968,-0.135,-0.27
23:18:37.972,-0.145,-0.26
23:18:37.976,-0.14,-0.265
23:18:37.980,-0.135,-0.27
23:18:37.984,-0.14,-0.265
23:18:37.988,-0.15,-0.255
23:18:37.992,-0.15,-0.275
23:18:37.996,-0.12,-0.26
23:18:38.000,-0.125,-0.255
23:18:38.004,-0.11,-0.25
23:18:38.008,-0.085,-0.26
23:18:38.012,-0.06,-0.25
23:18:38.016,0.01,-0.25
23:18:38.020,0.07,-0.22
23:18:38.024,0.185,-0.26
23:18:38.028,0.25,-0.29
23:18:38.032,0.315,-0.305
23:18:38.036,0.36,-0.35
23:18:38.040,0.37,-0.345
23:18:38.044,0.375,-0.36
23:18:38.048,0.34,-0.4
23:18:38.052,0.335,-0.495
23:18:38.056,0.485,-0.66
23:18:38.060,0.77,-0.89
23:18:38.064,1.105,-1.16
23:18:38.068,1.385,-1.375
23:18:38.072,1.405,-1.47
23:18:38.076,1.14,-1.34
23:18:38.080,0.615,-0.95
23:18:38.084,0.175,-0.565
23:18:38.088,-0.06,-0.325
23:18:38.092,-0.175,-0.205
23:18:38.096,-0.215,-0.115
23:18:38.100,-0.245,-0.075
23:18:38.104,-0.285,-0.05
23:18:38.108,-0.305,-0.07
23:18:38.112,-0.31,-0.075
23:18:38.116,-0.305,-0.08
23:18:38.120,-0.325,-0.1
23:18:38.124,-0.32,-0.115
23:18:38.128,-0.325,-0.13
23:18:38.132,-0.345,-0.11
23:18:38.136,-0.36,-0.11
23:18:38.140,-0.35,-0.13
23:18:38.144,-0.35,-0.135
23:18:38.148,-0.355,-0.135
23:18:38.152,-0.37,-0.125
23:18:38.156,-0.38,-0.12
23:18:38.160,-0.39,-0.13
23:18:38.164,-0.405,-0.125
23:18:38.168,-0.4,-0.12
23:18:38.172,-0.41,-0.12
23:18:38.176,-0.395,-0.105
23:18:38.180,-0.41,-0.14
23:18:38.184,-0.405,-0.145
23:18:38.188,-0.415,-0.15
23:18:38.192,-0.435,-0.16
23:18:38.196,-0.43,-0.185
23:18:38.200,-0.44,-0.165
23:18:38.204,-0.455,-0.14
23:18:38.208,-0.46,-0.18
23:18:38.212,-0.465,-0.16
23:18:38.216,-0.47,-0.175
23:18:38.220,-0.46,-0.155
23:18:38.224,-0.45,-0.135
23:18:38.228,-0.44,-0.145
23:18:38.232,-0.435,-0.14
23:18:38.236,-0.45,-0.145
23:18:38.240,-0.445,-0.11
23:18:38.244,-0.435,-0.125
23:18:38.248,-0.425,-0.12
23:18:38.252,-0.435,-0.13
23:18:38.256,-0.42,-0.12
23:18:38.260,-0.42,-0.14
23:18:38.264,-0.405,-0.135
23:18:38.268,-0.415,-0.15
23:18:38.272,-0.4,-0.135
23:18:38.276,-0.39,-0.16
23:18:38.280,-0.4,-0.155
23:18:38.284,-0.37,-0.17
23:18:38.288,-0.36,-0.18
23:18:38.292,-0.35,-0.18
23:18:38.296,-0.345,-0.18
23:18:38.300,-0.325,-0.18
23:18:38.304,-0.305,-0.2
23:18:38.308,-0.31,-0.2
23:18:38.312,-0.295,-0.195
23:18:38.316,-0.285,-0.195
23:18:38.320,-0.285,-0.19
23:18:38.324,-0.265,-0.2
23:18:38.328,-0.255,-0.2
23:18:38.332,-0.24,-0.21
23:18:38.336,-0.225,-0.21
23:18:38.340,-0.22,-0.2
23:18:38.344,-0.195,-0.21
23:18:38.348,-0.215,-0.2
23:18:38.352,-0.21,-0.165
23:18:38.356,-0.215,-0.175
23:18:38.360,-0.215,-0.16
23:18:38.364,-0.19,-0.17
23:18:38.368,-0.19,-0.13
23:18:38.372,-0.21,-0.17
23:18:38.376,-0.2,-0.16
23:18:38.380,-0.2,-0.14
23:18:38.384,-0.22,-0.155
23:18:38.388,-0.215,-0.155
23:18:38.392,-0.205,-0.165
23:18:38.396,-0.2,-0.145
23:18:38.400,-0.21,-0.17
23:18:38.404,-0.2,-0.165
23:18:38.408,-0.225,-0.165
23:18:38.412,-0.18,-0.18
23:18:38.416,-0.175,-0.16
23:18:38.420,-0.15,-0.14
23:18:38.424,-0.12,-0.165
23:18:38.428,-0.085,-0.155
23:18:38.432,-0.065,-0.17
23:18:38.436,-0.04,-0.175
23:18:38.440,-0.02,-0.155
23:18:38.444,0.025,-0.15
23:18:38.448,0.03,-0.135
23:18:38.452,0.02,-0.12
23:18:38.456,0.04,-0.12
23:18:38.460,0.055,-0.11
23:18:38.464,0.035,-0.1
23:18:38.468,0.005,-0.105
23:18:38.472,-0.04,-0.09
23:18:38.476,-0.085,-0.105
23:18:38.480,-0.12,-0.13
23:18:38.484,-0.16,-0.135
23:18:38.488,-0.235,-0.135
23:18:38.492,-0.275,-0.145
23:18:38.496,-0.285,-0.145
23:18:38.500,-0.3,-0.12
23:18:38.504,-0.32,-0.105
23:18:38.508,-0.29,-0.115
23:18:38.512,-0.305,-0.14
23:18:38.516,-0.285,-0.14
23:18:38.520,-0.305,-0.15
23:18:38.524,-0.27,-0.16
23:18:38.528,-0.28,-0.175
23:18:38.532,-0.275,-0.165
23:18:38.536,-0.3,-0.17
23:18:38.540,-0.28,-0.165
23:18:38.544,-0.27,-0.155
23:18:38.548,-0.27,-0.15
23:18:38.552,-0.285,-0.155
23:18:38.556,-0.285,-0.15
23:18:38.560,-0.28,-0.16
23:18:38.564,-0.275,-0.16
23:18:38.568,-0.27,-0.16
23:18:38.572,-0.255,-0.155
23:18:38.576,-0.25,-0.15
23:18:38.580,-0.26,-0.16
23:18:38.584,-0.26,-0.15
23:18:38.588,-0.24,-0.15
23:18:38.592,-0.27,-0.155
23:18:38.596,-0.27,-0.155
23:18:38.600,-0.26,-0.16
23:18:38.604,-0.235,-0.155
23:18:38.608,-0.18,-0.17
23:18:38.612,-0.095,-0.15
23:18:38.616,-0.005,-0.18
23:18:38.620,0.055,-0.205
23:18:38.624,0.135,-0.23
23:18:38.628,0.165,-0.285
23:18:38.632,0.17,-0.29
23:18:38.636,0.155,-0.3
23:18:38.640,0.115,-0.32
23:18:38.644,0.09,-0.395
23:18:38.648,0.23,-0.53
23:18:38.652,0.495,-0.725
23:18:38.656,0.87,-0.96
23:18:38.660,1.16,-1.265
23:18:38.664,1.265,-1.375
23:18:38.668,1.1,-1.275
23:18:38.672,0.665,-0.925
23:18:38.676,0.19,-0.53
23:18:38.680,-0.08,-0.23
23:18:38.684,-0.22,-0.065
23:18:38.688,-0.275,0.0
23:18:38.692,-0.305,0.01
23:18:38.696,-0.32,0.03
23:18:38.700,-0.355,0.01
23:18:38.704,-0.365,0.015
23:18:38.708,-0.375,0.01
23:18:38.712,-0.395,0.0
23:18:38.716,-0.4,-0.04
23:18:38.720,-0.41,-0.045
23:18:38.724,-0.415,-0.045
23:18:38.728,-0.405,-0.07
23:18:38.732,-0.415,-0.045
23:18:38.736,-0.415,-0.045
23:18:38.740,-0.4,-0.06
23:18:38.744,-0.405,-0.045
23:18:38.748,-0.41,-0.05
23:18:38.752,-0.415,-0.065
23:18:38.756,-0.42,-0.05
23:18:38.760,-0.435,-0.035
23:18:38.764,-0.445,-0.05
23:18:38.768,-0.44,-0.05
23:18:38.772,-0.415,-0.05
23:18:38.776,-0.44,-0.035
23:18:38.780,-0.44,-0.04
23:18:38.784,-0.435,-0.025
23:18:38.788,-0.435,-0.04
23:18:38.792,-0.435,-0.045
23:18:38.796,-0.445,-0.04
23:18:38.800,-0.455,-0.04
23:18:38.804,-0.45,-0.015
23:18:38.808,-0.46,-0.025
23:18:38.812,-0.46,-0.04
23:18:38.816,-0.475,-0.035
23:18:38.820,-0.465,-0.025
23:18:38.824,-0.475,-0.03
23:18:38.828,-0.48,-0.05
23:18:38.832,-0.445,-0.05
23:18:38.836,-0.45,-0.05
23:18:38.840,-0.44,-0.065
23:18:38.844,-0.425,-0.07
23:18:38.848,-0.43,-0.075
23:18:38.852,-0.415,-0.075
23:18:38.856,-0.42,-0.09
23:18:38.860,-0.395,-0.09
23:18:38.864,-0.405,-0.085
23:18:38.868,-0.395,-0.1
23:18:38.872,-0.375,-0.075
23:18:38.876,-0.355,-0.08
23:18:38.880,-0.355,-0.115
23:18:38.884,-0.34,-0.115
23:18:38.888,-0.325,-0.095
23:18:38.892,-0.305,-0.095
23:18:38.896,-0.285,-0.1
23:18:38.900,-0.285,-0.1
23:18:38.904,-0.255,-0.1
23:18:38.908,-0.265,-0.1
23:18:38.912,-0.265,-0.09
23:18:38.916,-0.23,-0.115
23:18:38.920,-0.225,-0.095
23:18:38.924,-0.21,-0.105
23:18:38.928,-0.21,-0.085
23:18:38.932,-0.205,-0.115
23:18:38.936,-0.2,-0.105
23:18:38.940,-0.215,-0.095
23:18:38.944,-0.185,-0.085
23:18:38.948,-0.205,-0.075
23:18:38.952,-0.19,-0.09
23:18:38.956,-0.19,-0.085
23:18:38.960,-0.185,-0.115
23:18:38.964,-0.145,-0.105
23:18:38.968,-0.165,-0.11
23:18:38.972,-0.165,-0.075
23:18:38.976,-0.17,-0.08
23:18:38.980,-0.18,-0.08
23:18:38.984,-0.185,-0.07
23:18:38.988,-0.17,-0.055
23:18:38.992,-0.16,-0.075
23:18:38.996,-0.16,-0.075
23:18:39.000,-0.15,-0.07
23:18:39.004,-0.17,-0.06
23:18:39.008,-0.17,-0.08
23:18:39.012,-0.16,-0.06
23:18:39.016,-0.17,-0.05
23:18:39.020,-0.175,-0.055
23:18:39.024,-0.16,-0.05
23:18:39.028,-0.165,-0.06
23:18:39.032,-0.15,-0.06
23:18:39.036,-0.125,-0.07
23:18:39.040,-0.12,-0.06
23:18:39.044,-0.12,-0.06
23:18:39.048,-0.09,-0.06
23:18:39.052,-0.065,-0.05
23:18:39.056,0.0,-0.015
23:18:39.060,0.03,-0.025
23:18:39.064,0.045,-0.04
23:18:39.068,0.085,-0.04
23:18:39.072,0.115,-0.03
23:18:39.076,0.12,-0.015
23:18:39.080,0.135,-0.035
23:18:39.084,0.125,-0.035
23:18:39.088,0.105,-0.06
23:18:39.092,0.045,-0.095
23:18:39.096,0.0,-0.095
23:18:39.100,-0.05,-0.095
23:18:39.104,-0.095,-0.09
23:18:39.108,-0.13,-0.1
23:18:39.112,-0.17,-0.095
23:18:39.116,-0.205,-0.08
23:18:39.120,-0.26,-0.08
23:18:39.124,-0.265,-0.075
23:18:39.128,-0.25,-0.065
23:18:39.132,-0.265,-0.055
23:18:39.136,-0.27,-0.105
23:18:39.140,-0.245,-0.105
23:18:39.144,-0.26,-0.1
23:18:39.148,-0.255,-0.11
23:18:39.152,-0.255,-0.13
23:18:39.156,-0.28,-0.11
23:18:39.160,-0.275,-0.145
23:18:39.164,-0.275,-0.135
23:18:39.168,-0.285,-0.13
23:18:39.172,-0.285,-0.155
23:18:39.176,-0.27,-0.165
23:18:39.180,-0.265,-0.14
23:18:39.184,-0.26,-0.155
23:18:39.188,-0.28,-0.16
23:18:39.192,-0.285,-0.175
23:18:39.196,-0.285,-0.16
23:18:39.200,-0.285,-0.195
23:18:39.204,-0.28,-0.185
23:18:39.208,-0.285,-0.2
23:18:39.212,-0.26,-0.19
23:18:39.216,-0.265,-0.195
23:18:39.220,-0.24,-0.21
23:18:39.224,-0.22,-0.2
23:18:39.228,-0.18,-0.195
23:18:39.232,-0.125,-0.19
23:18:39.236,-0.035,-0.18
23:18:39.240,0.055,-0.225
23:18:39.244,0.13,-0.24
23:18:39.248,0.195,-0.255
23:18:39.252,0.245,-0.285
23:18:39.256,0.265,-0.295
23:18:39.260,0.255,-0.295
23:18:39.264,0.19,-0.32
23:18:39.268,0.165,-0.395
23:18:39.272,0.275,-0.505
23:18:39.276,0.545,-0.715
23:18:39.280,0.905,-1.01
23:18:39.284,1.165,-1.29
23:18:39.288,1.245,-1.43
23:18:39.292,1.055,-1.38
23:18:39.296,0.64,-1.06
23:18:39.300,0.195,-0.65
23:18:39.304,-0.045,-0.37
23:18:39.308,-0.18,-0.195
23:18:39.312,-0.24,-0.105
23:18:39.316,-0.28,-0.09
23:18:39.320,-0.32,-0.09
23:18:39.324,-0.35,-0.08
23:18:39.328,-0.36,-0.09
23:18:39.332,-0.37,-0.115
23:18:39.336,-0.375,-0.13
23:18:39.340,-0.41,-0.18
23:18:39.344,-0.395,-0.185
23:18:39.348,-0.375,-0.21
23:18:39.352,-0.39,-0.205
23:18:39.356,-0.37,-0.18
23:18:39.360,-0.375,-0.235
23:18:39.364,-0.39,-0.21
23:18:39.368,-0.395,-0.215
23:18:39.372,-0.41,-0.19
23:18:39.376,-0.41,-0.2
23:18:39.380,-0.405,-0.19
23:18:39.384,-0.43,-0.215
23:18:39.388,-0.42,-0.22
23:18:39.392,-0.41,-0.205
23:18:39.396,-0.415,-0.215
23:18:39.400,-0.42,-0.23
23:18:39.404,-0.425,-0.235
23:18:39.408,-0.41,-0.245
23:18:39.412,-0.435,-0.245
23:18:39.416,-0.445,-0.255
23:18:39.420,-0.45,-0.27
23:18:39.424,-0.445,-0.265
23:18:39.428,-0.45,-0.26
23:18:39.432,-0.44,-0.24
23:18:39.436,-0.445,-0.265
23:18:39.440,-0.425,-0.275
23:18:39.444,-0.42,-0.255
23:18:39.448,-0.41,-0.27
23:18:39.452,-0.395,-0.27
23:18:39.456,-0.395,-0.27
23:18:39.460,-0.39,-0.275
23:18:39.464,-0.395,-0.275
23:18:39.468,-0.39,-0.26
23:18:39.472,-0.385,-0.28
23:18:39.476,-0.345,-0.29
23:18:39.480,-0.35,-0.28
23:18:39.484,-0.355,-0.28
23:18:39.488,-0.33,-0.275
23:18:39.492,-0.33,-0.285
23:18:39.496,-0.315,-0.285
23:18:39.500,-0.3,-0.32
23:18:39.504,-0.305,-0.315
23:18:39.508,-0.28,-0.33
23:18:39.512,-0.255,-0.32
23:18:39.516,-0.25,-0.34
23:18:39.520,-0.245,-0.34
23:18:39.524,-0.24,-0.36
23:18:39.528,-0.235,-0.35
23:18:39.532,-0.22,-0.355
23:18:39.536,-0.195,-0.36
23:18:39.540,-0.2,-0.375
23:18:39.544,-0.17,-0.35
23:18:39.548,-0.18,-0.38
23:18:39.552,-0.16,-0.38
23:18:39.556,-0.13,-0.385
23:18:39.560,-0.105,-0.38
23:18:39.564,-0.105,-0.37
23:18:39.568,-0.115,-0.375
23:18:39.572,-0.1,-0.385
23:18:39.576,-0.09,-0.35
23:18:39.580,-0.09,-0.385
23:18:39.584,-0.1,-0.375
23:18:39.588,-0.09,-0.375
23:18:39.592,-0.06,-0.36
23:18:39.596,-0.065,-0.365
23:18:39.600,-0.085,-0.36
23:18:39.604,-0.09,-0.375
23:18:39.608,-0.1,-0.375
23:18:39.612,-0.095,-0.375
23:18:39.616,-0.1,-0.375
23:18:39.620,-0.11,-0.385
23:18:39.624,-0.085,-0.38
23:18:39.628,-0.095,-0.365
23:18:39.632,-0.105,-0.375
23:18:39.636,-0.09,-0.38
23:18:39.640,-0.06,-0.375
23:18:39.644,-0.07,-0.385
23:18:39.648,-0.06,-0.38
23:18:39.652,-0.01,-0.37
23:18:39.656,-0.03,-0.38
23:18:39.660,-0.03,-0.37
23:18:39.664,0.005,-0.36
23:18:39.668,0.04,-0.38
23:18:39.672,0.075,-0.365
23:18:39.676,0.13,-0.36
23:18:39.680,0.175,-0.35
23:18:39.684,0.21,-0.315
23:18:39.688,0.26,-0.315
23:18:39.692,0.26,-0.32
23:18:39.696,0.275,-0.315
23:18:39.700,0.265,-0.32
23:18:39.704,0.23,-0.37
23:18:39.708,0.17,-0.4
23:18:39.712,0.135,-0.4
23:18:39.716,0.095,-0.41
23:18:39.720,0.025,-0.43
23:18:39.724,-0.02,-0.445
23:18:39.728,-0.075,-0.42
23:18:39.732,-0.12,-0.41
23:18:39.736,-0.145,-0.435
23:18:39.740,-0.15,-0.43
23:18:39.744,-0.13,-0.425
23:18:39.748,-0.125,-0.44
23:18:39.752,-0.135,-0.425
23:18:39.756,-0.115,-0.445
23:18:39.760,-0.11,-0.45
23:18:39.764,-0.11,-0.43
23:18:39.768,-0.12,-0.435
23:18:39.772,-0.085,-0.45
23:18:39.776,-0.075,-0.445
23:18:39.780,-0.06,-0.445
23:18:39.784,-0.05,-0.425
23:18:39.788,-0.05,-0.44
23:18:39.792,-0.05,-0.425
23:18:39.796,-0.06,-0.445
23:18:39.800,-0.045,-0.45
23:18:39.804,-0.055,-0.445
23:18:39.808,-0.065,-0.435
23:18:39.812,-0.06,-0.45
23:18:39.816,-0.075,-0.44
23:18:39.820,-0.075,-0.46
23:18:39.824,-0.07,-0.45
23:18:39.828,-0.065,-0.44
23:18:39.832,-0.07,-0.435
23:18:39.836,-0.08,-0.445
23:18:39.840,-0.06,-0.45
23:18:39.844,-0.065,-0.435
23:18:39.848,-0.015,-0.46
23:18:39.852,0.03,-0.46
23:18:39.856,0.135,-0.45
23:18:39.860,0.24,-0.47
23:18:39.864,0.34,-0.495
23:18:39.868,0.37,-0.53
23:18:39.872,0.43,-0.535
23:18:39.876,0.455,-0.535
23:18:39.880,0.495,-0.52
23:18:39.884,0.445,-0.555
23:18:39.888,0.44,-0.64
23:18:39.892,0.595,-0.75
23:18:39.896,0.89,-0.95
23:18:39.900,1.225,-1.205
23:18:39.904,1.42,-1.455
23:18:39.908,1.385,-1.51
23:18:39.912,1.03,-1.37
23:18:39.916,0.52,-1.01
23:18:39.920,0.165,-0.675
23:18:39.924,-0.005,-0.5
23:18:39.928,-0.075,-0.355
23:18:39.932,-0.115,-0.265
23:18:39.936,-0.14,-0.23
23:18:39.940,-0.2,-0.225
23:18:39.944,-0.22,-0.225
23:18:39.948,-0.24,-0.215
23:18:39.952,-0.26,-0.245
23:18:39.956,-0.27,-0.275
23:18:39.960,-0.29,-0.275
23:18:39.964,-0.32,-0.28
23:18:39.968,-0.305,-0.295
23:18:39.972,-0.3,-0.285
23:18:39.976,-0.31,-0.295
23:18:39.980,-0.31,-0.275
23:18:39.984,-0.31,-0.28
23:18:39.988,-0.31,-0.27
23:18:39.992,-0.31,-0.265
23:18:39.996,-0.3,-0.255
23:18:40.000,-0.315,-0.255
23:18:40.004,-0.32,-0.225
23:18:40.008,-0.315,-0.24
23:18:40.012,-0.3,-0.23
23:18:40.016,-0.315,-0.23
23:18:40.020,-0.31,-0.225
23:18:40.024,-0.315,-0.22
23:18:40.028,-0.335,-0.205
23:18:40.032,-0.35,-0.215
23:18:40.036,-0.345,-0.185
23:18:40.040,-0.335,-0.195
23:18:40.044,-0.355,-0.19
23:18:40.048,-0.34,-0.19
23:18:40.052,-0.34,-0.19
23:18:40.056,-0.355,-0.17
23:18:40.060,-0.365,-0.175
23:18:40.064,-0.36,-0.18
23:18:40.068,-0.385,-0.18
23:18:40.072,-0.38,-0.17
23:18:40.076,-0.375,-0.185
23:18:40.080,-0.37,-0.14
23:18:40.084,-0.35,-0.16
23:18:40.088,-0.35,-0.145
23:18:40.092,-0.35,-0.165
23:18:40.096,-0.325,-0.15
23:18:40.100,-0.34,-0.17
23:18:40.104,-0.33,-0.17
23:18:40.108,-0.33,-0.17
23:18:40.112,-0.3,-0.16
23:18:40.116,-0.28,-0.16
23:18:40.120,-0.25,-0.17
23:18:40.124,-0.245,-0.16
23:18:40.128,-0.23,-0.16
23:18:40.132,-0.215,-0.18
23:18:40.136,-0.215,-0.175
23:18:40.140,-0.2,-0.175
23:18:40.144,-0.19,-0.175
23:18:40.148,-0.185,-0.18
23:18:40.152,-0.17,-0.18
23:18:40.156,-0.185,-0.195
23:18:40.160,-0.175,-0.19
23:18:40.164,-0.18,-0.2
23:18:40.168,-0.175,-0.19
23:18:40.172,-0.185,-0.195
23:18:40.176,-0.17,-0.19
23:18:40.180,-0.16,-0.185
23:18:40.184,-0.14,-0.205
23:18:40.188,-0.145,-0.2
23:18:40.192,-0.135,-0.205
23:18:40.196,-0.135,-0.18
23:18:40.200,-0.15,-0.2
23:18:40.204,-0.115,-0.18
23:18:40.208,-0.135,-0.17
23:18:40.212,-0.125,-0.17
23:18:40.216,-0.14,-0.175
23:18:40.220,-0.14,-0.165
23:18:40.224,-0.13,-0.165
23:18:40.228,-0.115,-0.155
23:18:40.232,-0.09,-0.16
23:18:40.236,-0.12,-0.145
23:18:40.240,-0.11,-0.135
23:18:40.244,-0.115,-0.145
23:18:40.248,-0.125,-0.13
23:18:40.252,-0.135,-0.135
23:18:40.256,-0.12,-0.165
23:18:40.260,-0.13,-0.14
23:18:40.264,-0.12,-0.14
23:18:40.268,-0.11,-0.15
23:18:40.272,-0.11,-0.13
23:18:40.276,-0.105,-0.125
23:18:40.280,-0.11,-0.145
23:18:40.284,-0.105,-0.115
23:18:40.288,-0.095,-0.125
23:18:40.292,-0.075,-0.1
23:18:40.296,-0.03,-0.105
23:18:40.300,0.05,-0.11
23:18:40.304,0.075,-0.1
23:18:40.308,0.095,-0.095
23:18:40.312,0.125,-0.095
23:18:40.316,0.15,-0.1
23:18:40.320,0.175,-0.07
23:18:40.324,0.16,-0.06
23:18:40.328,0.16,-0.075
23:18:40.332,0.155,-0.105
23:18:40.336,0.11,-0.145
23:18:40.340,0.06,-0.14
23:18:40.344,0.01,-0.15
23:18:40.348,-0.055,-0.115
23:18:40.352,-0.09,-0.125
23:18:40.356,-0.165,-0.125
23:18:40.360,-0.19,-0.105
23:18:40.364,-0.22,-0.07
23:18:40.368,-0.24,-0.095
23:18:40.372,-0.24,-0.12
23:18:40.376,-0.23,-0.115
23:18:40.380,-0.235,-0.125
23:18:40.384,-0.24,-0.12
23:18:40.388,-0.25,-0.135
23:18:40.392,-0.24,-0.14
23:18:40.396,-0.26,-0.135
23:18:40.400,-0.25,-0.145
23:18:40.404,-0.26,-0.14
23:18:40.408,-0.26,-0.135
23:18:40.412,-0.24,-0.135
23:18:40.416,-0.24,-0.14
23:18:40.420,-0.235,-0.155
23:18:40.424,-0.26,-0.155
23:18:40.428,-0.255,-0.145
23:18:40.432,-0.255,-0.145
23:18:40.436,-0.25,-0.17
23:18:40.440,-0.24,-0.16
23:18:40.444,-0.245,-0.175
23:18:40.448,-0.23,-0.15
23:18:40.452,-0.23,-0.15
23:18:40.456,-0.21,-0.145
23:18:40.460,-0.22,-0.16
23:18:40.464,-0.2,-0.14
23:18:40.468,-0.205,-0.145
23:18:40.472,-0.185,-0.145
23:18:40.476,-0.115,-0.15
23:18:40.480,-0.05,-0.145
23:18:40.484,0.04,-0.165
23:18:40.488,0.115,-0.185
23:18:40.492,0.19,-0.205
23:18:40.496,0.215,-0.26
23:18:40.500,0.24,-0.24
23:18:40.504,0.235,-0.26
23:18:40.508,0.185,-0.275
23:18:40.512,0.17,-0.355
23:18:40.516,0.26,-0.465
23:18:40.520,0.53,-0.67
23:18:40.524,0.89,-0.925
23:18:40.528,1.205,-1.21
23:18:40.532,1.32,-1.365
23:18:40.536,1.15,-1.3
23:18:40.540,0.695,-0.99
23:18:40.544,0.22,-0.595
23:18:40.548,-0.08,-0.28
23:18:40.552,-0.23,-0.13
23:18:40.556,-0.28,-0.02
23:18:40.560,-0.3,0.035
23:18:40.564,-0.33,0.03
23:18:40.568,-0.37,0.05
23:18:40.572,-0.375,0.0
23:18:40.576,-0.38,0.0
23:18:40.580,-0.365,0.01
23:18:40.584,-0.38,-0.01
23:18:40.588,-0.4,-0.02
23:18:40.592,-0.395,-0.03
23:18:40.596,-0.395,-0.04
23:18:40.600,-0.395,-0.02
23:18:40.604,-0.4,-0.03
23:18:40.608,-0.415,-0.03
23:18:40.612,-0.43,-0.03
23:18:40.616,-0.445,-0.045
23:18:40.620,-0.45,-0.02
23:18:40.624,-0.46,-0.03
23:18:40.628,-0.45,-0.025
23:18:40.632,-0.45,-0.065
23:18:40.636,-0.455,-0.04
23:18:40.640,-0.445,-0.05
23:18:40.644,-0.45,-0.06
23:18:40.648,-0.46,-0.065
23:18:40.652,-0.485,-0.07
23:18:40.656,-0.475,-0.065
23:18:40.660,-0.49,-0.065
23:18:40.664,-0.49,-0.05
23:18:40.668,-0.5,-0.055
23:18:40.672,-0.49,-0.06
23:18:40.676,-0.49,-0.03
23:18:40.680,-0.47,-0.055
23:18:40.684,-0.455,-0.025
23:18:40.688,-0.46,-0.04
23:18:40.692,-0.46,-0.03
23:18:40.696,-0.455,-0.025
23:18:40.700,-0.46,-0.03
23:18:40.704,-0.455,-0.04
23:18:40.708,-0.43,-0.05
23:18:40.712,-0.42,-0.02
23:18:40.716,-0.44,-0.03
23:18:40.720,-0.41,-0.04
23:18:40.724,-0.41,-0.04
23:18:40.728,-0.4,-0.035
23:18:40.732,-0.4,-0.03
23:18:40.736,-0.385,-0.04
23:18:40.740,-0.38,-0.045
23:18:40.744,-0.38,-0.05
23:18:40.748,-0.345,-0.065
23:18:40.752,-0.335,-0.07
23:18:40.756,-0.34,-0.08
23:18:40.760,-0.315,-0.08
23:18:40.764,-0.3,-0.1
23:18:40.768,-0.28,-0.085
23:18:40.772,-0.275,-0.1
23:18:40.776,-0.27,-0.09
23:18:40.780,-0.265,-0.085
23:18:40.784,-0.23,-0.08
23:18:40.788,-0.215,-0.08
23:18:40.792,-0.215,-0.09
23:18:40.796,-0.2,-0.08
23:18:40.800,-0.18,-0.075
23:18:40.804,-0.18,-0.065
23:18:40.808,-0.165,-0.065
23:18:40.812,-0.18,-0.08
23:18:40.816,-0.17,-0.06
23:18:40.820,-0.15,-0.06
23:18:40.824,-0.145,-0.08
23:18:40.828,-0.155,-0.06
23:18:40.832,-0.16,-0.06
23:18:40.836,-0.165,-0.065
23:18:40.840,-0.15,-0.06
23:18:40.844,-0.17,-0.04
23:18:40.848,-0.165,-0.065
23:18:40.852,-0.15,-0.075
23:18:40.856,-0.15,-0.06
23:18:40.860,-0.145,-0.07
23:18:40.864,-0.16,-0.075
23:18:40.868,-0.16,-0.05
23:18:40.872,-0.17,-0.07
23:18:40.876,-0.14,-0.09
23:18:40.880,-0.125,-0.05
23:18:40.884,-0.105,-0.04
23:18:40.888,-0.105,-0.06
23:18:40.892,-0.085,-0.035
23:18:40.896,-0.04,-0.05
23:18:40.900,-0.02,-0.04
23:18:40.904,0.035,-0.01
23:18:40.908,0.07,-0.02
23:18:40.912,0.1,0.0
23:18:40.916,0.14,0.015
23:18:40.920,0.175,0.03
23:18:40.924,0.17,0.025
23:18:40.928,0.155,0.015
23:18:40.932,0.145,0.01
23:18:40.936,0.125,-0.03
23:18:40.940,0.08,-0.045
23:18:40.944,0.025,-0.055
23:18:40.948,-0.06,-0.08
23:18:40.952,-0.095,-0.07
23:18:40.956,-0.16,-0.09
23:18:40.960,-0.2,-0.05
23:18:40.964,-0.24,-0.06
23:18:40.968,-0.235,-0.07
23:18:40.972,-0.26,-0.075
23:18:40.976,-0.27,-0.055
23:18:40.980,-0.26,-0.08
23:18:40.984,-0.25,-0.08
23:18:40.988,-0.25,-0.08
23:18:40.992,-0.25,-0.07
23:18:40.996,-0.235,-0.08
23:18:41.000,-0.235,-0.085
23:18:41.004,-0.22,-0.075
23:18:41.008,-0.23,-0.085
23:18:41.012,-0.215,-0.075
23:18:41.016,-0.2,-0.07
23:18:41.020,-0.235,-0.09
23:18:41.024,-0.23,-0.085
23:18:41.028,-0.24,-0.08
23:18:41.032,-0.225,-0.095
23:18:41.036,-0.225,-0.09
23:18:41.040,-0.215,-0.085
23:18:41.044,-0.22,-0.08
23:18:41.048,-0.22,-0.08
23:18:41.052,-0.23,-0.09
23:18:41.056,-0.23,-0.1
23:18:41.060,-0.235,-0.105
23:18:41.064,-0.25,-0.095
23:18:41.068,-0.23,-0.1
23:18:41.072,-0.2,-0.115
23:18:41.076,-0.16,-0.135
23:18:41.080,-0.11,-0.12
23:18:41.084,-0.01,-0.125
23:18:41.088,0.06,-0.14
23:18:41.092,0.135,-0.16
23:18:41.096,0.175,-0.2
23:18:41.100,0.205,-0.24
23:18:41.104,0.21,-0.215
23:18:41.108,0.195,-0.22
23:18:41.112,0.165,-0.265
23:18:41.116,0.2,-0.345
23:18:41.120,0.4,-0.505
23:18:41.124,0.7,-0.735
23:18:41.128,1.04,-1.01
23:18:41.132,1.28,-1.255
23:18:41.136,1.275,-1.3
23:18:41.140,0.98,-1.12
23:18:41.144,0.5,-0.755
23:18:41.148,0.1,-0.36
23:18:41.152,-0.1,-0.12
23:18:41.156,-0.2,0.005
23:18:41.160,-0.255,0.05
23:18:41.164,-0.28,0.065
23:18:41.168,-0.315,0.06
23:18:41.172,-0.335,0.03
23:18:41.176,-0.37,0.03
23:18:41.180,-0.38,0.0
23:18:41.184,-0.365,0.0
23:18:41.188,-0.395,-0.025
23:18:41.192,-0.375,-0.04
23:18:41.196,-0.38,-0.04
23:18:41.200,-0.4,-0.045
23:18:41.204,-0.385,-0.025
23:18:41.208,-0.385,-0.06
23:18:41.212,-0.4,-0.06
23:18:41.216,-0.395,-0.04
23:18:41.220,-0.42,-0.04
23:18:41.224,-0.415,-0.055
23:18:41.228,-0.4,-0.045
23:18:41.232,-0.395,-0.05
23:18:41.236,-0.39,-0.04
23:18:41.240,-0.395,-0.06
23:18:41.244,-0.415,-0.05
23:18:41.248,-0.405,-0.04
23:18:41.252,-0.42,-0.055
23:18:41.256,-0.43,-0.05
23:18:41.260,-0.425,-0.045
23:18:41.264,-0.43,-0.06
23:18:41.268,-0.44,-0.06
23:18:41.272,-0.44,-0.05
23:18:41.276,-0.45,-0.08
23:18:41.280,-0.455,-0.06
23:18:41.284,-0.43,-0.05
23:18:41.288,-0.45,-0.06
23:18:41.292,-0.455,-0.085
23:18:41.296,-0.45,-0.08
23:18:41.300,-0.45,-0.065
23:18:41.304,-0.435,-0.08
23:18:41.308,-0.45,-0.08
23:18:41.312,-0.43,-0.09
23:18:41.316,-0.415,-0.095
23:18:41.320,-0.405,-0.095
23:18:41.324,-0.41,-0.085
23:18:41.328,-0.4,-0.08
23:18:41.332,-0.37,-0.09
23:18:41.336,-0.365,-0.09
23:18:41.340,-0.335,-0.105
23:18:41.344,-0.325,-0.09
23:18:41.348,-0.33,-0.105
23:18:41.352,-0.32,-0.095
23:18:41.356,-0.29,-0.09
23:18:41.360,-0.29,-0.095
23:18:41.364,-0.275,-0.115
23:18:41.368,-0.28,-0.12
23:18:41.372,-0.27,-0.115
23:18:41.376,-0.265,-0.115
23:18:41.380,-0.27,-0.115
23:18:41.384,-0.25,-0.125
23:18:41.388,-0.25,-0.12
23:18:41.392,-0.23,-0.14
23:18:41.396,-0.22,-0.125
23:18:41.400,-0.23,-0.115
23:18:41.404,-0.21,-0.11
23:18:41.408,-0.205,-0.135
23:18:41.412,-0.175,-0.125
23:18:41.416,-0.17,-0.11
23:18:41.420,-0.195,-0.12
23:18:41.424,-0.16,-0.125
23:18:41.428,-0.18,-0.1
23:18:41.432,-0.17,-0.115
23:18:41.436,-0.18,-0.1
23:18:41.440,-0.16,-0.1
23:18:41.444,-0.12,-0.115
23:18:41.448,-0.125,-0.09
23:18:41.452,-0.125,-0.085
23:18:41.456,-0.115,-0.07
23:18:41.460,-0.075,-0.04
23:18:41.464,-0.065,-0.08
23:18:41.468,-0.065,-0.085
23:18:41.472,-0.08,-0.06
23:18:41.476,-0.04,-0.015
23:18:41.480,0.0,-0.035
23:18:41.484,0.04,-0.02
23:18:41.488,0.06,-0.025
23:18:41.492,0.09,-0.01
23:18:41.496,0.11,-0.01
23:18:41.500,0.125,-0.01
23:18:41.504,0.13,0.0
23:18:41.508,0.12,-0.025
23:18:41.512,0.11,-0.02
23:18:41.516,0.07,-0.04
23:18:41.520,0.04,-0.09
23:18:41.524,-0.005,-0.095
23:18:41.528,-0.07,-0.105
23:18:41.532,-0.105,-0.105
23:18:41.536,-0.16,-0.105
23:18:41.540,-0.205,-0.09
23:18:41.544,-0.25,-0.075
23:18:41.548,-0.26,-0.07
23:18:41.552,-0.265,-0.07
23:18:41.556,-0.25,-0.08
23:18:41.560,-0.23,-0.1
23:18:41.564,-0.23,-0.08
23:18:41.568,-0.215,-0.08
23:18:41.572,-0.2,-0.07
23:18:41.576,-0.225,-0.09
23:18:41.580,-0.21,-0.11
23:18:41.584,-0.215,-0.12
23:18:41.588,-0.2,-0.08
23:18:41.592,-0.22,-0.09
23:18:41.596,-0.23,-0.095
23:18:41.600,-0.215,-0.105
23:18:41.604,-0.25,-0.095
23:18:41.608,-0.25,-0.1
23:18:41.612,-0.23,-0.11
23:18:41.616,-0.25,-0.095
23:18:41.620,-0.25,-0.125
23:18:41.624,-0.225,-0.13
23:18:41.628,-0.26,-0.15
23:18:41.632,-0.255,-0.12
23:18:41.636,-0.23,-0.135
23:18:41.640,-0.225,-0.135
23:18:41.644,-0.245,-0.15
23:18:41.648,-0.24,-0.15
23:18:41.652,-0.215,-0.135
23:18:41.656,-0.165,-0.13
23:18:41.660,-0.11,-0.13
23:18:41.664,-0.01,-0.12
23:18:41.668,0.075,-0.13
23:18:41.672,0.15,-0.135
23:18:41.676,0.18,-0.18
23:18:41.680,0.21,-0.22
23:18:41.684,0.22,-0.21
23:18:41.688,0.2,-0.2
23:18:41.692,0.13,-0.24
23:18:41.696,0.165,-0.33
23:18:41.700,0.345,-0.47
23:18:41.704,0.67,-0.68
23:18:41.708,1.01,-0.965
23:18:41.712,1.245,-1.22
23:18:41.716,1.24,-1.3
23:18:41.720,0.925,-1.15
23:18:41.724,0.435,-0.78
23:18:41.728,0.07,-0.4
23:18:41.732,-0.135,-0.14
23:18:41.736,-0.22,-0.04
23:18:41.740,-0.25,0.025
23:18:41.744,-0.305,0.035
23:18:41.748,-0.3,0.005
23:18:41.752,-0.345,0.03
23:18:41.756,-0.335,0.03
23:18:41.760,-0.345,0.015
23:18:41.764,-0.36,0.0
23:18:41.768,-0.365,-0.025
23:18:41.772,-0.36,-0.04
23:18:41.776,-0.345,-0.035
23:18:41.780,-0.34,-0.045
23:18:41.784,-0.35,-0.045
23:18:41.788,-0.35,-0.02
23:18:41.792,-0.35,-0.015
23:18:41.796,-0.365,-0.01
23:18:41.800,-0.35,-0.03
23:18:41.804,-0.345,-0.01
23:18:41.808,-0.36,-0.035
23:18:41.812,-0.375,-0.02
23:18:41.816,-0.385,-0.01
23:18:41.820,-0.375,-0.03
23:18:41.824,-0.395,-0.02
23:18:41.828,-0.415,-0.02
23:18:41.832,-0.425,-0.025
23:18:41.836,-0.42,-0.04
23:18:41.840,-0.42,-0.025
23:18:41.844,-0.425,-0.04
23:18:41.848,-0.415,-0.04
23:18:41.852,-0.405,-0.06
23:18:41.856,-0.44,-0.055
23:18:41.860,-0.415,-0.035
23:18:41.864,-0.42,-0.06
23:18:41.868,-0.415,-0.075
23:18:41.872,-0.435,-0.06
23:18:41.876,-0.41,-0.06
23:18:41.880,-0.4,-0.055
23:18:41.884,-0.385,-0.05
23:18:41.888,-0.395,-0.055
23:18:41.892,-0.37,-0.06
23:18:41.896,-0.375,-0.05
23:18:41.900,-0.34,-0.06
23:18:41.904,-0.345,-0.045
23:18:41.908,-0.34,-0.06
23:18:41.912,-0.335,-0.045
23:18:41.916,-0.32,-0.05
23:18:41.920,-0.33,-0.055
23:18:41.924,-0.305,-0.085
23:18:41.928,-0.31,-0.085
23:18:41.932,-0.3,-0.08
23:18:41.936,-0.295,-0.095
23:18:41.940,-0.265,-0.085
23:18:41.944,-0.25,-0.105
23:18:41.948,-0.24,-0.13
23:18:41.952,-0.24,-0.115
23:18:41.956,-0.235,-0.09
23:18:41.960,-0.23,-0.11
23:18:41.964,-0.2,-0.115
23:18:41.968,-0.19,-0.13
23:18:41.972,-0.185,-0.11
23:18:41.976,-0.15,-0.12
23:18:41.980,-0.16,-0.115
23:18:41.984,-0.18,-0.115
23:18:41.988,-0.16,-0.11
23:18:41.992,-0.14,-0.11
23:18:41.996,-0.125,-0.11
23:18:42.000,-0.105,-0.1
23:18:42.004,-0.095,-0.08
23:18:42.008,-0.1,-0.09
23:18:42.012,-0.1,-0.105
23:18:42.016,-0.085,-0.08
23:18:42.020,-0.085,-0.06
23:18:42.024,-0.08,-0.07
23:18:42.028,-0.095,-0.075
23:18:42.032,-0.075,-0.08
23:18:42.036,-0.05,-0.055
23:18:42.040,-0.055,-0.08
23:18:42.044,-0.05,-0.085
23:18:42.048,-0.05,-0.06
23:18:42.052,-0.03,-0.07
23:18:42.056,0.01,-0.06
23:18:42.060,0.05,-0.075
23:18:42.064,0.11,-0.07
23:18:42.068,0.13,-0.055
23:18:42.072,0.15,-0.07
23:18:42.076,0.195,-0.04
23:18:42.080,0.195,-0.03
23:18:42.084,0.18,-0.03
23:18:42.088,0.17,-0.06
23:18:42.092,0.12,-0.095
23:18:42.096,0.085,-0.1
23:18:42.100,0.03,-0.14
23:18:42.104,-0.02,-0.13
23:18:42.108,-0.09,-0.135
23:18:42.112,-0.12,-0.135
23:18:42.116,-0.16,-0.115
23:18:42.120,-0.195,-0.11
23:18:42.124,-0.195,-0.11
23:18:42.128,-0.205,-0.12
23:18:42.132,-0.22,-0.15
23:18:42.136,-0.205,-0.16
23:18:42.140,-0.205,-0.155
23:18:42.144,-0.195,-0.18
23:18:42.148,-0.185,-0.175
23:18:42.152,-0.16,-0.185
23:18:42.156,-0.19,-0.195
23:18:42.160,-0.195,-0.19
23:18:42.164,-0.215,-0.205
23:18:42.168,-0.185,-0.21
23:18:42.172,-0.21,-0.205
23:18:42.176,-0.195,-0.205
23:18:42.180,-0.2,-0.2
23:18:42.184,-0.21,-0.2
23:18:42.188,-0.21,-0.215
23:18:42.192,-0.205,-0.235
23:18:42.196,-0.22,-0.245
23:18:42.200,-0.21,-0.245
23:18:42.204,-0.22,-0.26
23:18:42.208,-0.225,-0.255
23:18:42.212,-0.225,-0.255
23:18:42.216,-0.2,-0.245
23:18:42.220,-0.185,-0.26
23:18:42.224,-0.175,-0.25
23:18:42.228,-0.145,-0.225
23:18:42.232,-0.12,-0.27
23:18:42.236,-0.085,-0.275
23:18:42.240,-0.015,-0.295
23:18:42.244,0.095,-0.275
23:18:42.248,0.17,-0.3
23:18:42.252,0.24,-0.31
23:18:42.256,0.275,-0.365
23:18:42.260,0.285,-0.36
23:18:42.264,0.315,-0.365
23:18:42.268,0.29,-0.36
23:18:42.272,0.24,-0.41
23:18:42.276,0.33,-0.535
23:18:42.280,0.555,-0.68
23:18:42.284,0.89,-0.945
23:18:42.288,1.2,-1.235
23:18:42.292,1.325,-1.42
23:18:42.296,1.155,-1.415
23:18:42.300,0.72,-1.14
23:18:42.304,0.275,-0.76
23:18:42.308,0.03,-0.47
23:18:42.312,-0.115,-0.315
23:18:42.316,-0.165,-0.21
23:18:42.320,-0.215,-0.18
23:18:42.324,-0.24,-0.155
23:18:42.328,-0.235,-0.17
23:18:42.332,-0.265,-0.16
23:18:42.336,-0.25,-0.19
23:18:42.340,-0.295,-0.24
23:18:42.344,-0.335,-0.24
23:18:42.348,-0.32,-0.245
23:18:42.352,-0.3,-0.245
23:18:42.356,-0.315,-0.275
23:18:42.360,-0.325,-0.28
23:18:42.364,-0.345,-0.26
23:18:42.368,-0.33,-0.28
23:18:42.372,-0.34,-0.285
23:18:42.376,-0.35,-0.275
23:18:42.380,-0.345,-0.29
23:18:42.384,-0.34,-0.28
23:18:42.388,-0.33,-0.29
23:18:42.392,-0.33,-0.32
23:18:42.396,-0.355,-0.32
23:18:42.400,-0.37,-0.34
23:18:42.404,-0.34,-0.34
23:18:42.408,-0.34,-0.32
23:18:42.412,-0.37,-0.305
23:18:42.416,-0.37,-0.335
23:18:42.420,-0.37,-0.35
23:18:42.424,-0.385,-0.33
23:18:42.428,-0.365,-0.34
23:18:42.432,-0.375,-0.345
23:18:42.436,-0.375,-0.335
23:18:42.440,-0.365,-0.35
23:18:42.444,-0.36,-0.335
23:18:42.448,-0.345,-0.34
23:18:42.452,-0.355,-0.325
23:18:42.456,-0.355,-0.355
23:18:42.460,-0.35,-0.335
23:18:42.464,-0.345,-0.34
23:18:42.468,-0.33,-0.335
23:18:42.472,-0.325,-0.34
23:18:42.476,-0.32,-0.355
23:18:42.480,-0.315,-0.355
23:18:42.484,-0.315,-0.37
23:18:42.488,-0.31,-0.365
23:18:42.492,-0.305,-0.33
23:18:42.496,-0.28,-0.375
23:18:42.500,-0.28,-0.37
23:18:42.504,-0.275,-0.355
23:18:42.508,-0.255,-0.39
23:18:42.512,-0.25,-0.395
23:18:42.516,-0.21,-0.405
23:18:42.520,-0.215,-0.41
23:18:42.524,-0.21,-0.4
23:18:42.528,-0.215,-0.4
23:18:42.532,-0.21,-0.43
23:18:42.536,-0.19,-0.425
23:18:42.540,-0.185,-0.435
23:18:42.544,-0.175,-0.42
23:18:42.548,-0.135,-0.43
23:18:42.552,-0.13,-0.4
23:18:42.556,-0.09,-0.395
23:18:42.560,-0.085,-0.415
23:18:42.564,-0.105,-0.42
23:18:42.568,-0.1,-0.425
23:18:42.572,-0.085,-0.395
23:18:42.576,-0.07,-0.405
23:18:42.580,-0.085,-0.415
23:18:42.584,-0.08,-0.43
23:18:42.588,-0.085,-0.42
23:18:42.592,-0.09,-0.415
23:18:42.596,-0.105,-0.405
23:18:42.600,-0.105,-0.415
23:18:42.604,-0.105,-0.415
23:18:42.608,-0.095,-0.435
23:18:42.612,-0.09,-0.42
23:18:42.616,-0.09,-0.42
23:18:42.620,-0.075,-0.425
23:18:42.624,-0.085,-0.42
23:18:42.628,-0.105,-0.43
23:18:42.632,-0.095,-0.43
23:18:42.636,-0.06,-0.425
23:18:42.640,-0.06,-0.43
23:18:42.644,-0.055,-0.44
23:18:42.648,-0.045,-0.41
23:18:42.652,-0.02,-0.425
23:18:42.656,0.03,-0.41
23:18:42.660,0.09,-0.415
23:18:42.664,0.13,-0.405
23:18:42.668,0.17,-0.39
23:18:42.672,0.205,-0.375
23:18:42.676,0.265,-0.4
23:18:42.680,0.28,-0.375
23:18:42.684,0.28,-0.35
23:18:42.688,0.28,-0.37
23:18:42.692,0.25,-0.4
23:18:42.696,0.215,-0.435
23:18:42.700,0.155,-0.44
23:18:42.704,0.115,-0.44
23:18:42.708,0.055,-0.46
23:18:42.712,0.01,-0.475
23:18:42.716,-0.05,-0.45
23:18:42.720,-0.105,-0.46
23:18:42.724,-0.105,-0.435
23:18:42.728,-0.12,-0.45
23:18:42.732,-0.125,-0.46
23:18:42.736,-0.13,-0.485
23:18:42.740,-0.13,-0.48
23:18:42.744,-0.11,-0.475
23:18:42.748,-0.11,-0.47
23:18:42.752,-0.1,-0.49
23:18:42.756,-0.085,-0.5
23:18:42.760,-0.095,-0.47
23:18:42.764,-0.07,-0.485
23:18:42.768,-0.065,-0.475
23:18:42.772,-0.045,-0.44
23:18:42.776,-0.045,-0.46
23:18:42.780,-0.06,-0.47
23:18:42.784,-0.04,-0.47
23:18:42.788,-0.05,-0.46
23:18:42.792,-0.04,-0.48
23:18:42.796,-0.06,-0.48
23:18:42.800,-0.045,-0.47
23:18:42.804,-0.05,-0.475
23:18:42.808,-0.05,-0.48
23:18:42.812,-0.06,-0.465
23:18:42.816,-0.05,-0.475
23:18:42.820,-0.075,-0.465
23:18:42.824,-0.08,-0.47
23:18:42.828,-0.07,-0.455
23:18:42.832,-0.05,-0.47
23:18:42.836,-0.035,-0.475
23:18:42.840,0.015,-0.465
23:18:42.844,0.115,-0.475
23:18:42.848,0.17,-0.51
23:18:42.852,0.26,-0.515
23:18:42.856,0.37,-0.55
23:18:42.860,0.41,-0.575
23:18:42.864,0.46,-0.605
23:18:42.868,0.5,-0.575
23:18:42.872,0.505,-0.56
23:18:42.876,0.445,-0.59
23:18:42.880,0.495,-0.66
23:18:42.884,0.68,-0.8
23:18:42.888,0.98,-1.005
23:18:42.892,1.285,-1.275
23:18:42.896,1.43,-1.485
23:18:42.900,1.305,-1.545
23:18:42.904,0.91,-1.355
23:18:42.908,0.44,-0.985
23:18:42.912,0.115,-0.665
23:18:42.916,-0.015,-0.49
23:18:42.920,-0.08,-0.36
23:18:42.924,-0.13,-0.315
23:18:42.928,-0.15,-0.26
23:18:42.932,-0.185,-0.26
23:18:42.936,-0.235,-0.26
23:18:42.940,-0.23,-0.27
23:18:42.944,-0.25,-0.285
23:18:42.948,-0.265,-0.31
23:18:42.952,-0.265,-0.315
23:18:42.956,-0.28,-0.315
23:18:42.960,-0.265,-0.315
23:18:42.964,-0.28,-0.315
23:18:42.968,-0.28,-0.32
23:18:42.972,-0.295,-0.32
23:18:42.976,-0.295,-0.305
23:18:42.980,-0.285,-0.29
23:18:42.984,-0.285,-0.31
23:18:42.988,-0.29,-0.295
23:18:42.992,-0.27,-0.285
23:18:42.996,-0.295,-0.275
23:18:43.000,-0.3,-0.26
23:18:43.004,-0.32,-0.25
23:18:43.008,-0.305,-0.25
23:18:43.012,-0.3,-0.26
23:18:43.016,-0.32,-0.235
23:18:43.020,-0.33,-0.24
23:18:43.024,-0.34,-0.24
23:18:43.028,-0.355,-0.23
23:18:43.032,-0.35,-0.245
23:18:43.036,-0.345,-0.24
23:18:43.040,-0.365,-0.235
23:18:43.044,-0.385,-0.225
23:18:43.048,-0.385,-0.22
23:18:43.052,-0.38,-0.235
23:18:43.056,-0.39,-0.24
23:18:43.060,-0.4,-0.22
23:18:43.064,-0.39,-0.2
23:18:43.068,-0.385,-0.215
23:18:43.072,-0.39,-0.21
23:18:43.076,-0.37,-0.22
23:18:43.080,-0.365,-0.225
23:18:43.084,-0.34,-0.205
23:18:43.088,-0.345,-0.22
23:18:43.092,-0.335,-0.2
23:18:43.096,-0.33,-0.215
23:18:43.100,-0.31,-0.23
23:18:43.104,-0.285,-0.225
23:18:43.108,-0.29,-0.215
23:18:43.112,-0.285,-0.225
23:18:43.116,-0.26,-0.22
23:18:43.120,-0.265,-0.245
23:18:43.124,-0.265,-0.24
23:18:43.128,-0.25,-0.225
23:18:43.132,-0.235,-0.23
23:18:43.136,-0.22,-0.22
23:18:43.140,-0.21,-0.22
23:18:43.144,-0.215,-0.25
23:18:43.148,-0.22,-0.23
23:18:43.152,-0.2,-0.245
23:18:43.156,-0.195,-0.22
23:18:43.160,-0.195,-0.22
23:18:43.164,-0.185,-0.25
23:18:43.168,-0.195,-0.235
23:18:43.172,-0.17,-0.22
23:18:43.176,-0.175,-0.23
23:18:43.180,-0.155,-0.22
23:18:43.184,-0.16,-0.235
23:18:43.188,-0.15,-0.225
23:18:43.192,-0.135,-0.22
23:18:43.196,-0.15,-0.22
23:18:43.200,-0.16,-0.205
23:18:43.204,-0.145,-0.21
23:18:43.208,-0.14,-0.22
23:18:43.212,-0.135,-0.225
23:18:43.216,-0.135,-0.195
23:18:43.220,-0.12,-0.2
23:18:43.224,-0.13,-0.195
23:18:43.228,-0.13,-0.195
23:18:43.232,-0.12,-0.18
23:18:43.236,-0.13,-0.185
23:18:43.240,-0.13,-0.155
23:18:43.244,-0.165,-0.16
23:18:43.248,-0.155,-0.165
23:18:43.252,-0.16,-0.19
23:18:43.256,-0.18,-0.175
23:18:43.260,-0.16,-0.175
23:18:43.264,-0.165,-0.19
23:18:43.268,-0.145,-0.2
23:18:43.272,-0.12,-0.195
23:18:43.276,-0.11,-0.195
23:18:43.280,-0.115,-0.19
23:18:43.284,-0.095,-0.17
23:18:43.288,-0.065,-0.18
23:18:43.292,-0.025,-0.155
23:18:43.296,0.015,-0.135
23:18:43.300,0.04,-0.135
23:18:43.304,0.07,-0.13
23:18:43.308,0.1,-0.12
23:18:43.312,0.125,-0.125
23:18:43.316,0.135,-0.115
23:18:43.320,0.15,-0.12
23:18:43.324,0.115,-0.13
23:18:43.328,0.1,-0.165
23:18:43.332,0.05,-0.18
23:18:43.336,-0.005,-0.205
23:18:43.340,-0.075,-0.19
23:18:43.344,-0.135,-0.17
23:18:43.348,-0.185,-0.185
23:18:43.352,-0.23,-0.17
23:18:43.356,-0.27,-0.17
23:18:43.360,-0.28,-0.13
23:18:43.364,-0.29,-0.17
23:18:43.368,-0.3,-0.16
23:18:43.372,-0.305,-0.18
23:18:43.376,-0.31,-0.175
23:18:43.380,-0.3,-0.185
23:18:43.384,-0.295,-0.18
23:18:43.388,-0.28,-0.185
23:18:43.392,-0.26,-0.205
23:18:43.396,-0.29,-0.19
23:18:43.400,-0.28,-0.2
23:18:43.404,-0.26,-0.195
23:18:43.408,-0.275,-0.2
23:18:43.412,-0.26,-0.185
23:18:43.416,-0.28,-0.2
23:18:43.420,-0.265,-0.195
23:18:43.424,-0.27,-0.185
23:18:43.428,-0.27,-0.16
23:18:43.432,-0.265,-0.19
23:18:43.436,-0.265,-0.175
23:18:43.440,-0.26,-0.19
23:18:43.444,-0.24,-0.2
23:18:43.448,-0.26,-0.185
23:18:43.452,-0.255,-0.18
23:18:43.456,-0.265,-0.19
23:18:43.460,-0.24,-0.22
23:18:43.464,-0.21,-0.19
23:18:43.468,-0.195,-0.175
23:18:43.472,-0.125,-0.19
23:18:43.476,-0.03,-0.215
23:18:43.480,0.035,-0.2
23:18:43.484,0.12,-0.215
23:18:43.488,0.14,-0.28
23:18:43.492,0.17,-0.32
23:18:43.496,0.195,-0.32
23:18:43.500,0.185,-0.305
23:18:43.504,0.13,-0.37
23:18:43.508,0.16,-0.455
23:18:43.512,0.335,-0.605
23:18:43.516,0.61,-0.775
23:18:43.520,0.97,-1.055
23:18:43.524,1.2,-1.31
23:18:43.528,1.21,-1.405
23:18:43.532,0.895,-1.28
23:18:43.536,0.42,-0.935
23:18:43.540,0.03,-0.535
23:18:43.544,-0.155,-0.265
23:18:43.548,-0.27,-0.12
23:18:43.552,-0.32,-0.05
23:18:43.556,-0.34,-0.035
23:18:43.560,-0.36,-0.02
23:18:43.564,-0.375,0.0
23:18:43.568,-0.38,-0.035
23:18:43.572,-0.395,-0.03
23:18:43.576,-0.41,-0.05
23:18:43.580,-0.41,-0.075
23:18:43.584,-0.42,-0.065
23:18:43.588,-0.435,-0.07
23:18:43.592,-0.435,-0.09
23:18:43.596,-0.455,-0.06
23:18:43.600,-0.46,-0.08
23:18:43.604,-0.46,-0.09
23:18:43.608,-0.465,-0.105
23:18:43.612,-0.46,-0.095
23:18:43.616,-0.47,-0.09
23:18:43.620,-0.48,-0.115
23:18:43.624,-0.48,-0.12
23:18:43.628,-0.47,-0.1
23:18:43.632,-0.495,-0.1
23:18:43.636,-0.495,-0.095
23:18:43.640,-0.485,-0.08
23:18:43.644,-0.5,-0.1
23:18:43.648,-0.5,-0.095
23:18:43.652,-0.515,-0.08
23:18:43.656,-0.5,-0.095
23:18:43.660,-0.515,-0.085
23:18:43.664,-0.5,-0.06
23:18:43.668,-0.505,-0.065
23:18:43.672,-0.49,-0.075
23:18:43.676,-0.5,-0.07
23:18:43.680,-0.49,-0.055
23:18:43.684,-0.515,-0.075
23:18:43.688,-0.5,-0.065
23:18:43.692,-0.5,-0.06
23:18:43.696,-0.495,-0.08
23:18:43.700,-0.485,-0.09
23:18:43.704,-0.505,-0.08
23:18:43.708,-0.48,-0.09
23:18:43.712,-0.465,-0.11
23:18:43.716,-0.485,-0.09
23:18:43.720,-0.44,-0.095
23:18:43.724,-0.455,-0.09
23:18:43.728,-0.44,-0.11
23:18:43.732,-0.425,-0.11
23:18:43.736,-0.405,-0.12
23:18:43.740,-0.41,-0.115
23:18:43.744,-0.395,-0.115
23:18:43.748,-0.375,-0.1
23:18:43.752,-0.37,-0.12
23:18:43.756,-0.365,-0.105
23:18:43.760,-0.335,-0.1
23:18:43.764,-0.34,-0.105
23:18:43.768,-0.295,-0.125
23:18:43.772,-0.29,-0.11
23:18:43.776,-0.29,-0.13
23:18:43.780,-0.28,-0.1
23:18:43.784,-0.25,-0.095
23:18:43.788,-0.25,-0.115
23:18:43.792,-0.24,-0.11
23:18:43.796,-0.25,-0.105
23:18:43.800,-0.245,-0.095
23:18:43.804,-0.25,-0.125
23:18:43.808,-0.24,-0.105
23:18:43.812,-0.245,-0.09
23:18:43.816,-0.22,-0.09
23:18:43.820,-0.24,-0.075
23:18:43.824,-0.245,-0.08
23:18:43.828,-0.245,-0.075
23:18:43.832,-0.235,-0.08
23:18:43.836,-0.225,-0.065
23:18:43.840,-0.23,-0.07
23:18:43.844,-0.24,-0.06
23:18:43.848,-0.225,-0.07
23:18:43.852,-0.225,-0.085
23:18:43.856,-0.23,-0.075
23:18:43.860,-0.21,-0.07
23:18:43.864,-0.22,-0.06
23:18:43.868,-0.21,-0.075
23:18:43.872,-0.215,-0.075
23:18:43.876,-0.165,-0.07
23:18:43.880,-0.155,-0.075
23:18:43.884,-0.13,-0.07
23:18:43.888,-0.14,-0.06
23:18:43.892,-0.14,-0.05
23:18:43.896,-0.12,-0.05
23:18:43.900,-0.085,-0.005
23:18:43.904,-0.05,-0.01
23:18:43.908,-0.02,-0.015
23:18:43.912,0.03,0.0
23:18:43.916,0.055,0.0
23:18:43.920,0.08,-0.005
23:18:43.924,0.105,0.015
23:18:43.928,0.095,0.01
23:18:43.932,0.095,0.005
23:18:43.936,0.09,-0.01
23:18:43.940,0.065,-0.01
23:18:43.944,0.005,-0.05
23:18:43.948,-0.01,-0.07
23:18:43.952,-0.075,-0.09
23:18:43.956,-0.105,-0.095
23:18:43.960,-0.195,-0.115
23:18:43.964,-0.235,-0.09
23:18:43.968,-0.29,-0.065
23:18:43.972,-0.305,-0.03
23:18:43.976,-0.3,-0.055
23:18:43.980,-0.305,-0.055
23:18:43.984,-0.295,-0.08
23:18:43.988,-0.28,-0.055
23:18:43.992,-0.28,-0.09
23:18:43.996,-0.255,-0.06
23:18:44.000,-0.275,-0.1
23:18:44.004,-0.285,-0.08
23:18:44.008,-0.275,-0.07
23:18:44.012,-0.265,-0.055
23:18:44.016,-0.25,-0.085
23:18:44.020,-0.27,-0.075
23:18:44.024,-0.26,-0.06
23:18:44.028,-0.26,-0.09
23:18:44.032,-0.285,-0.09
23:18:44.036,-0.285,-0.08
23:18:44.040,-0.3,-0.085
23:18:44.044,-0.285,-0.085
23:18:44.048,-0.28,-0.08
23:18:44.052,-0.305,-0.09
23:18:44.056,-0.3,-0.1
23:18:44.060,-0.29,-0.065
23:18:44.064,-0.295,-0.09
23:18:44.068,-0.3,-0.11
23:18:44.072,-0.305,-0.12
23:18:44.076,-0.27,-0.11
23:18:44.080,-0.23,-0.11
23:18:44.084,-0.205,-0.115
23:18:44.088,-0.125,-0.1
23:18:44.092,-0.02,-0.11
23:18:44.096,0.07,-0.13
23:18:44.100,0.14,-0.16
23:18:44.104,0.155,-0.205
23:18:44.108,0.175,-0.215
23:18:44.112,0.16,-0.195
23:18:44.116,0.105,-0.225
23:18:44.120,0.11,-0.295
23:18:44.124,0.23,-0.39
23:18:44.128,0.5,-0.595
23:18:44.132,0.84,-0.85
23:18:44.136,1.125,-1.115
23:18:44.140,1.235,-1.31
23:18:44.144,1.035,-1.28
23:18:44.148,0.59,-0.975
23:18:44.152,0.125,-0.565
23:18:44.156,-0.145,-0.26
23:18:44.160,-0.28,-0.05
23:18:44.164,-0.335,0.025
23:18:44.168,-0.35,0.05
23:18:44.172,-0.385,0.045
23:18:44.176,-0.4,0.055
23:18:44.180,-0.415,0.035
23:18:44.184,-0.42,0.03
23:18:44.188,-0.455,-0.005
23:18:44.192,-0.445,-0.02
23:18:44.196,-0.46,-0.02
23:18:44.200,-0.455,-0.015
23:18:44.204,-0.465,-0.05
23:18:44.208,-0.455,-0.045
23:18:44.212,-0.47,-0.03
23:18:44.216,-0.45,-0.02
23:18:44.220,-0.475,-0.03
23:18:44.224,-0.48,-0.025
23:18:44.228,-0.47,-0.02
23:18:44.232,-0.475,-0.035
23:18:44.236,-0.5,-0.015
23:18:44.240,-0.5,-0.035
23:18:44.244,-0.5,-0.03
23:18:44.248,-0.48,-0.02
23:18:44.252,-0.495,-0.03
23:18:44.256,-0.515,0.0
23:18:44.260,-0.525,-0.02
23:18:44.264,-0.55,-0.035
23:18:44.268,-0.535,-0.04
23:18:44.272,-0.545,-0.04
23:18:44.276,-0.55,-0.06
23:18:44.280,-0.535,-0.045
23:18:44.284,-0.53,-0.05
23:18:44.288,-0.54,-0.075
23:18:44.292,-0.545,-0.05
23:18:44.296,-0.55,-0.06
23:18:44.300,-0.55,-0.055
23:18:44.304,-0.56,-0.05
23:18:44.308,-0.565,-0.07
23:18:44.312,-0.54,-0.05
23:18:44.316,-0.55,-0.065
23:18:44.320,-0.525,-0.065
23:18:44.324,-0.505,-0.055
23:18:44.328,-0.49,-0.065
23:18:44.332,-0.485,-0.07
23:18:44.336,-0.49,-0.07
23:18:44.340,-0.475,-0.07
23:18:44.344,-0.475,-0.06
23:18:44.348,-0.465,-0.065
23:18:44.352,-0.45,-0.06
23:18:44.356,-0.445,-0.06
23:18:44.360,-0.43,-0.085
23:18:44.364,-0.42,-0.085
23:18:44.368,-0.425,-0.09
23:18:44.372,-0.41,-0.1
23:18:44.376,-0.4,-0.115
23:18:44.380,-0.4,-0.095
23:18:44.384,-0.365,-0.095
23:18:44.388,-0.35,-0.095
23:18:44.392,-0.355,-0.115
23:18:44.396,-0.335,-0.11
23:18:44.400,-0.32,-0.12
23:18:44.404,-0.305,-0.12
23:18:44.408,-0.315,-0.115
23:18:44.412,-0.32,-0.105
23:18:44.416,-0.29,-0.11
23:18:44.420,-0.29,-0.095
23:18:44.424,-0.28,-0.11
23:18:44.428,-0.28,-0.085
23:18:44.432,-0.265,-0.07
23:18:44.436,-0.245,-0.095
23:18:44.440,-0.245,-0.065
23:18:44.444,-0.225,-0.05
23:18:44.448,-0.255,-0.05
23:18:44.452,-0.22,-0.04
23:18:44.456,-0.235,-0.065
23:18:44.460,-0.21,-0.035
23:18:44.464,-0.19,-0.055
23:18:44.468,-0.195,-0.045
23:18:44.472,-0.19,-0.05
23:18:44.476,-0.175,-0.055
23:18:44.480,-0.16,-0.035
23:18:44.484,-0.13,-0.035
23:18:44.488,-0.065,-0.015
23:18:44.492,-0.04,-0.02
23:18:44.496,-0.015,0.0
23:18:44.500,0.01,0.005
23:18:44.504,0.04,0.0
23:18:44.508,0.05,0.0
23:18:44.512,0.035,0.02
23:18:44.516,0.05,0.0
23:18:44.520,0.035,-0.02
23:18:44.524,-0.02,-0.04
23:18:44.528,-0.07,-0.065
23:18:44.532,-0.1,-0.055
23:18:44.536,-0.185,-0.085
23:18:44.540,-0.23,-0.065
23:18:44.544,-0.28,-0.06
23:18:44.548,-0.305,-0.055
23:18:44.552,-0.325,-0.035
23:18:44.556,-0.345,-0.055
23:18:44.560,-0.34,-0.045
23:18:44.564,-0.32,-0.055
23:18:44.568,-0.33,-0.085
23:18:44.572,-0.32,-0.09
23:18:44.576,-0.32,-0.115
23:18:44.580,-0.34,-0.105
23:18:44.584,-0.33,-0.1
23:18:44.588,-0.35,-0.09
23:18:44.592,-0.32,-0.105
23:18:44.596,-0.345,-0.12
23:18:44.600,-0.335,-0.11
23:18:44.604,-0.335,-0.115
23:18:44.608,-0.345,-0.13
23:18:44.612,-0.33,-0.135
23:18:44.616,-0.33,-0.155
23:18:44.620,-0.32,-0.155
23:18:44.624,-0.32,-0.145
23:18:44.628,-0.335,-0.145
23:18:44.632,-0.325,-0.175
23:18:44.636,-0.325,-0.14
23:18:44.640,-0.32,-0.155
23:18:44.644,-0.32,-0.14
23:18:44.648,-0.31,-0.165
23:18:44.652,-0.315,-0.14
23:18:44.656,-0.315,-0.16
23:18:44.660,-0.28,-0.155
23:18:44.664,-0.255,-0.15
23:18:44.668,-0.18,-0.135
23:18:44.672,-0.09,-0.14
23:18:44.676,0.04,-0.17
23:18:44.680,0.11,-0.18
23:18:44.684,0.155,-0.235
23:18:44.688,0.18,-0.24
23:18:44.692,0.18,-0.22
23:18:44.696,0.14,-0.215
23:18:44.700,0.095,-0.26
23:18:44.704,0.15,-0.37
23:18:44.708,0.36,-0.515
23:18:44.712,0.67,-0.75
23:18:44.716,0.97,-1.04
23:18:44.720,1.17,-1.28
23:18:44.724,1.075,-1.33
23:18:44.728,0.705,-1.17
23:18:44.732,0.265,-0.765
23:18:44.736,-0.055,-0.4
23:18:44.740,-0.205,-0.18
23:18:44.744,-0.285,-0.075
23:18:44.748,-0.305,-0.02
23:18:44.752,-0.315,-0.005
23:18:44.756,-0.34,-0.035
23:18:44.760,-0.38,-0.045
23:18:44.764,-0.385,-0.045
23:18:44.768,-0.395,-0.075
23:18:44.772,-0.42,-0.1
23:18:44.776,-0.41,-0.105
23:18:44.780,-0.42,-0.13
23:18:44.784,-0.42,-0.14
23:18:44.788,-0.415,-0.13
23:18:44.792,-0.425,-0.13
23:18:44.796,-0.42,-0.16
23:18:44.800,-0.41,-0.12
23:18:44.804,-0.43,-0.165
23:18:44.808,-0.43,-0.13
23:18:44.812,-0.435,-0.15
23:18:44.816,-0.44,-0.16
23:18:44.820,-0.46,-0.15
23:18:44.824,-0.455,-0.17
23:18:44.828,-0.475,-0.13
23:18:44.832,-0.46,-0.16
23:18:44.836,-0.47,-0.17
23:18:44.840,-0.45,-0.16
23:18:44.844,-0.44,-0.175
23:18:44.848,-0.45,-0.17
23:18:44.852,-0.465,-0.205
23:18:44.856,-0.465,-0.19
23:18:44.860,-0.475,-0.195
23:18:44.864,-0.465,-0.195
23:18:44.868,-0.47,-0.185
23:18:44.872,-0.475,-0.195
23:18:44.876,-0.465,-0.205
23:18:44.880,-0.44,-0.18
23:18:44.884,-0.43,-0.21
23:18:44.888,-0.43,-0.2
23:18:44.892,-0.415,-0.2
23:18:44.896,-0.41,-0.2
23:18:44.900,-0.395,-0.2
23:18:44.904,-0.4,-0.215
23:18:44.908,-0.38,-0.2
23:18:44.912,-0.375,-0.22
23:18:44.916,-0.37,-0.225
23:18:44.920,-0.385,-0.225
23:18:44.924,-0.38,-0.23
23:18:44.928,-0.35,-0.235
23:18:44.932,-0.33,-0.22
23:18:44.936,-0.34,-0.25
23:18:44.940,-0.33,-0.255
23:18:44.944,-0.335,-0.275
23:18:44.948,-0.32,-0.255
23:18:44.952,-0.3,-0.275
23:18:44.956,-0.3,-0.285
23:18:44.960,-0.295,-0.285
23:18:44.964,-0.265,-0.275
23:18:44.968,-0.26,-0.295
23:18:44.972,-0.235,-0.29
23:18:44.976,-0.215,-0.29
23:18:44.980,-0.195,-0.315
23:18:44.984,-0.205,-0.28
23:18:44.988,-0.175,-0.31
23:18:44.992,-0.185,-0.315
23:18:44.996,-0.175,-0.295
23:18:45.000,-0.165,-0.265
23:18:45.004,-0.155,-0.285
23:18:45.008,-0.135,-0.29
23:18:45.012,-0.16,-0.295
23:18:45.016,-0.16,-0.295
23:18:45.020,-0.155,-0.29
23:18:45.024,-0.13,-0.28
23:18:45.028,-0.13,-0.28
23:18:45.032,-0.15,-0.3
23:18:45.036,-0.17,-0.29
23:18:45.040,-0.17,-0.31
23:18:45.044,-0.175,-0.295
23:18:45.048,-0.165,-0.29
23:18:45.052,-0.16,-0.305
23:18:45.056,-0.16,-0.315
23:18:45.060,-0.15,-0.295
23:18:45.064,-0.15,-0.315
23:18:45.068,-0.13,-0.32
23:18:45.072,-0.115,-0.32
23:18:45.076,-0.1,-0.33
23:18:45.080,-0.12,-0.31
23:18:45.084,-0.09,-0.32
23:18:45.088,-0.045,-0.3
23:18:45.092,0.02,-0.29
23:18:45.096,0.065,-0.29
23:18:45.100,0.085,-0.28
23:18:45.104,0.135,-0.275
23:18:45.108,0.17,-0.285
23:18:45.112,0.19,-0.265
23:18:45.116,0.2,-0.25
23:18:45.120,0.2,-0.26
23:18:45.124,0.155,-0.28
23:18:45.128,0.1,-0.32
23:18:45.132,0.045,-0.345
23:18:45.136,0.015,-0.365
23:18:45.140,-0.07,-0.375
23:18:45.144,-0.105,-0.365
23:18:45.148,-0.17,-0.35
23:18:45.152,-0.19,-0.345
23:18:45.156,-0.215,-0.36
23:18:45.160,-0.22,-0.35
23:18:45.164,-0.22,-0.395
23:18:45.168,-0.225,-0.385
23:18:45.172,-0.205,-0.4
23:18:45.176,-0.185,-0.395
23:18:45.180,-0.19,-0.4
23:18:45.184,-0.195,-0.41
23:18:45.188,-0.165,-0.42
23:18:45.192,-0.17,-0.425
23:18:45.196,-0.155,-0.42
23:18:45.200,-0.155,-0.415
23:18:45.204,-0.15,-0.425
23:18:45.208,-0.135,-0.43
23:18:45.212,-0.12,-0.415
23:18:45.216,-0.135,-0.41
23:18:45.220,-0.125,-0.425
23:18:45.224,-0.145,-0.415
23:18:45.228,-0.13,-0.41
23:18:45.232,-0.145,-0.415
23:18:45.236,-0.15,-0.425
23:18:45.240,-0.155,-0.415
23:18:45.244,-0.155,-0.425
23:18:45.248,-0.13,-0.415
23:18:45.252,-0.135,-0.435
23:18:45.256,-0.15,-0.425
23:18:45.260,-0.14,-0.42
23:18:45.264,-0.14,-0.425
23:18:45.268,-0.065,-0.42
23:18:45.272,0.0,-0.445
23:18:45.276,0.105,-0.435
23:18:45.280,0.215,-0.465
23:18:45.284,0.245,-0.48
23:18:45.288,0.315,-0.525
23:18:45.292,0.385,-0.54
23:18:45.296,0.39,-0.505
23:18:45.300,0.38,-0.5
23:18:45.304,0.34,-0.545
23:18:45.308,0.37,-0.615
23:18:45.312,0.585,-0.74
23:18:45.316,0.885,-0.97
23:18:45.320,1.195,-1.24
23:18:45.324,1.34,-1.435
23:18:45.328,1.205,-1.5
23:18:45.332,0.795,-1.295
23:18:45.336,0.31,-0.91
23:18:45.340,0.0,-0.62
23:18:45.344,-0.12,-0.445
23:18:45.348,-0.185,-0.32
23:18:45.352,-0.22,-0.26
23:18:45.356,-0.27,-0.225
23:18:45.360,-0.295,-0.225
23:18:45.364,-0.335,-0.205
23:18:45.368,-0.34,-0.255
23:18:45.372,-0.38,-0.255
23:18:45.376,-0.375,-0.27
23:18:45.380,-0.39,-0.285
23:18:45.384,-0.405,-0.3
23:18:45.388,-0.425,-0.3
23:18:45.392,-0.415,-0.315
23:18:45.396,-0.41,-0.32
23:18:45.400,-0.41,-0.31
23:18:45.404,-0.42,-0.29
23:18:45.408,-0.435,-0.3
23:18:45.412,-0.445,-0.275
23:18:45.416,-0.44,-0.29
23:18:45.420,-0.44,-0.265
23:18:45.424,-0.43,-0.275
23:18:45.428,-0.43,-0.275
23:18:45.432,-0.425,-0.25
23:18:45.436,-0.45,-0.245
23:18:45.440,-0.45,-0.255
23:18:45.444,-0.46,-0.23
23:18:45.448,-0.445,-0.24
23:18:45.452,-0.475,-0.235
23:18:45.456,-0.475,-0.21
23:18:45.460,-0.475,-0.215
23:18:45.464,-0.48,-0.2
23:18:45.468,-0.495,-0.19
23:18:45.472,-0.485,-0.18
23:18:45.476,-0.505,-0.19
23:18:45.480,-0.515,-0.2
23:18:45.484,-0.51,-0.195
23:18:45.488,-0.505,-0.16
23:18:45.492,-0.5,-0.185
23:18:45.496,-0.5,-0.215
23:18:45.500,-0.5,-0.18
23:18:45.504,-0.475,-0.2
23:18:45.508,-0.47,-0.19
23:18:45.512,-0.475,-0.175
23:18:45.516,-0.44,-0.195
23:18:45.520,-0.445,-0.19
23:18:45.524,-0.425,-0.18
23:18:45.528,-0.425,-0.195
23:18:45.532,-0.415,-0.17
23:18:45.536,-0.385,-0.18
23:18:45.540,-0.38,-0.18
23:18:45.544,-0.37,-0.18
23:18:45.548,-0.345,-0.18
23:18:45.552,-0.34,-0.21
23:18:45.556,-0.345,-0.185
23:18:45.560,-0.345,-0.175
23:18:45.564,-0.31,-0.195
23:18:45.568,-0.305,-0.185
23:18:45.572,-0.315,-0.19
23:18:45.576,-0.29,-0.175
23:18:45.580,-0.285,-0.17
23:18:45.584,-0.29,-0.165
23:18:45.588,-0.285,-0.175
23:18:45.592,-0.26,-0.2
23:18:45.596,-0.27,-0.185
23:18:45.600,-0.265,-0.175
23:18:45.604,-0.255,-0.175
23:18:45.608,-0.225,-0.17
23:18:45.612,-0.235,-0.16
23:18:45.616,-0.225,-0.15
23:18:45.620,-0.24,-0.14
23:18:45.624,-0.24,-0.15
23:18:45.628,-0.22,-0.13
23:18:45.632,-0.23,-0.14
23:18:45.636,-0.22,-0.15
23:18:45.640,-0.215,-0.15
23:18:45.644,-0.205,-0.13
23:18:45.648,-0.215,-0.13
23:18:45.652,-0.205,-0.11
23:18:45.656,-0.23,-0.1
23:18:45.660,-0.21,-0.115
23:18:45.664,-0.195,-0.09
23:18:45.668,-0.21,-0.11
23:18:45.672,-0.195,-0.11
23:18:45.676,-0.185,-0.08
23:18:45.680,-0.17,-0.09
23:18:45.684,-0.16,-0.085
23:18:45.688,-0.16,-0.08
23:18:45.692,-0.14,-0.07
23:18:45.696,-0.12,-0.07
23:18:45.700,-0.08,-0.07
23:18:45.704,-0.03,-0.06
23:18:45.708,0.0,-0.035
23:18:45.712,0.05,-0.025
23:18:45.716,0.085,-0.045
23:18:45.720,0.09,-0.015
23:18:45.724,0.08,-0.015
23:18:45.728,0.085,-0.035
23:18:45.732,0.05,-0.045
23:18:45.736,0.02,-0.08
23:18:45.740,-0.01,-0.105
23:18:45.744,-0.07,-0.105
23:18:45.748,-0.125,-0.07
23:18:45.752,-0.16,-0.075
23:18:45.756,-0.22,-0.065
23:18:45.760,-0.265,-0.05
23:18:45.764,-0.29,-0.04
23:18:45.768,-0.295,-0.05
23:18:45.772,-0.305,-0.045
23:18:45.776,-0.31,-0.06
23:18:45.780,-0.29,-0.045
23:18:45.784,-0.3,-0.05
23:18:45.788,-0.32,-0.09
23:18:45.792,-0.295,-0.085
23:18:45.796,-0.295,-0.1
23:18:45.800,-0.305,-0.08
23:18:45.804,-0.295,-0.08
23:18:45.808,-0.315,-0.09
23:18:45.812,-0.3,-0.085
23:18:45.816,-0.315,-0.09
23:18:45.820,-0.305,-0.09
23:18:45.824,-0.295,-0.085
23:18:45.828,-0.3,-0.085
23:18:45.832,-0.295,-0.085
23:18:45.836,-0.325,-0.1
23:18:45.840,-0.315,-0.11
23:18:45.844,-0.31,-0.105
23:18:45.848,-0.325,-0.1
23:18:45.852,-0.3,-0.11
23:18:45.856,-0.29,-0.07
23:18:45.860,-0.29,-0.075
23:18:45.864,-0.27,-0.11
23:18:45.868,-0.26,-0.095
23:18:45.872,-0.235,-0.11
23:18:45.876,-0.2,-0.085
23:18:45.880,-0.13,-0.095
23:18:45.884,-0.04,-0.085
23:18:45.888,0.06,-0.11
23:18:45.892,0.11,-0.12
23:18:45.896,0.145,-0.18
23:18:45.900,0.18,-0.195
23:18:45.904,0.185,-0.2
23:18:45.908,0.14,-0.23
23:18:45.912,0.105,-0.275
23:18:45.916,0.185,-0.395
23:18:45.920,0.385,-0.565
23:18:45.924,0.705,-0.805
23:18:45.928,1.025,-1.06
23:18:45.932,1.205,-1.285
23:18:45.936,1.13,-1.295
23:18:45.940,0.77,-1.085
23:18:45.944,0.27,-0.69
23:18:45.948,-0.06,-0.35
23:18:45.952,-0.22,-0.125
23:18:45.956,-0.31,-0.01
23:18:45.960,-0.35,0.075
23:18:45.964,-0.375,0.055
23:18:45.968,-0.4,0.065
23:18:45.972,-0.405,0.06
23:18:45.976,-0.42,0.045
23:18:45.980,-0.42,0.025
23:18:45.984,-0.445,0.01
23:18:45.988,-0.445,0.02
23:18:45.992,-0.455,0.015
23:18:45.996,-0.455,-0.01
23:18:46.000,-0.435,0.015
23:18:46.004,-0.44,-0.005
23:18:46.008,-0.455,0.015
23:18:46.012,-0.455,0.02
23:18:46.016,-0.46,0.005
23:18:46.020,-0.46,-0.01
23:18:46.024,-0.465,-0.015
23:18:46.028,-0.46,0.015
23:18:46.032,-0.475,0.005
23:18:46.036,-0.49,0.01
23:18:46.040,-0.5,0.0
23:18:46.044,-0.5,-0.005
23:18:46.048,-0.48,0.0
23:18:46.052,-0.5,0.0
23:18:46.056,-0.505,-0.015
23:18:46.060,-0.51,0.0
23:18:46.064,-0.505,-0.035
23:18:46.068,-0.495,0.005
23:18:46.072,-0.53,-0.01
23:18:46.076,-0.525,-0.005
23:18:46.080,-0.53,0.005
23:18:46.084,-0.5,-0.01
23:18:46.088,-0.505,-0.005
23:18:46.092,-0.51,-0.025
23:18:46.096,-0.51,-0.025
23:18:46.100,-0.495,-0.01
23:18:46.104,-0.495,-0.005
23:18:46.108,-0.505,0.005
23:18:46.112,-0.49,0.01
23:18:46.116,-0.465,-0.01
23:18:46.120,-0.46,0.005
23:18:46.124,-0.465,0.0
23:18:46.128,-0.465,-0.015
23:18:46.132,-0.445,-0.035
23:18:46.136,-0.44,-0.02
23:18:46.140,-0.43,-0.02
23:18:46.144,-0.445,-0.03
23:18:46.148,-0.405,-0.04
23:18:46.152,-0.415,-0.05
23:18:46.156,-0.4,-0.055
23:18:46.160,-0.39,-0.06
23:18:46.164,-0.37,-0.075
23:18:46.168,-0.38,-0.07
23:18:46.172,-0.35,-0.075
23:18:46.176,-0.335,-0.08
23:18:46.180,-0.32,-0.09
23:18:46.184,-0.325,-0.09
23:18:46.188,-0.32,-0.08
23:18:46.192,-0.3,-0.06
23:18:46.196,-0.29,-0.08
23:18:46.200,-0.27,-0.055
23:18:46.204,-0.265,-0.07
23:18:46.208,-0.26,-0.065
23:18:46.212,-0.25,-0.06
23:18:46.216,-0.25,-0.06
23:18:46.220,-0.23,-0.055
23:18:46.224,-0.245,-0.06
23:18:46.228,-0.215,-0.055
23:18:46.232,-0.22,-0.05
23:18:46.236,-0.23,-0.045
23:18:46.240,-0.22,-0.045
23:18:46.244,-0.23,-0.05
23:18:46.248,-0.245,-0.045
23:18:46.252,-0.23,-0.045
23:18:46.256,-0.22,-0.05
23:18:46.260,-0.2,-0.035
23:18:46.264,-0.185,-0.04
23:18:46.268,-0.185,-0.06
23:18:46.272,-0.19,-0.035
23:18:46.276,-0.175,-0.02
23:18:46.280,-0.145,-0.025
23:18:46.284,-0.09,-0.01
23:18:46.288,-0.065,-0.01
23:18:46.292,-0.02,0.005
23:18:46.296,0.01,0.015
23:18:46.300,0.035,0.01
23:18:46.304,0.07,0.01
23:18:46.308,0.085,0.03
23:18:46.312,0.09,0.04
23:18:46.316,0.06,0.025
23:18:46.320,0.025,-0.01
23:18:46.324,-0.03,-0.015
23:18:46.328,-0.07,-0.025
23:18:46.332,-0.135,-0.05
23:18:46.336,-0.165,-0.05
23:18:46.340,-0.23,-0.065
23:18:46.344,-0.27,-0.035
23:18:46.348,-0.315,-0.03
23:18:46.352,-0.34,-0.04
23:18:46.356,-0.34,-0.03
23:18:46.360,-0.36,-0.03
23:18:46.364,-0.345,-0.06
23:18:46.368,-0.325,-0.07
23:18:46.372,-0.33,-0.07
23:18:46.376,-0.32,-0.075
23:18:46.380,-0.315,-0.075
23:18:46.384,-0.32,-0.09
23:18:46.388,-0.32,-0.08
23:18:46.392,-0.335,-0.07
23:18:46.396,-0.32,-0.07
23:18:46.400,-0.325,-0.095
23:18:46.404,-0.32,-0.095
23:18:46.408,-0.32,-0.08
23:18:46.412,-0.33,-0.08
23:18:46.416,-0.31,-0.095
23:18:46.420,-0.315,-0.08
23:18:46.424,-0.32,-0.095
23:18:46.428,-0.32,-0.075
23:18:46.432,-0.31,-0.09
23:18:46.436,-0.325,-0.085
23:18:46.440,-0.33,-0.075
23:18:46.444,-0.315,-0.085
23:18:46.448,-0.315,-0.075
23:18:46.452,-0.305,-0.1
23:18:46.456,-0.3,-0.095
23:18:46.460,-0.28,-0.08
23:18:46.464,-0.255,-0.11
23:18:46.468,-0.195,-0.09
23:18:46.472,-0.11,-0.085
23:18:46.476,-0.01,-0.09
23:18:46.480,0.065,-0.14
23:18:46.484,0.085,-0.165
23:18:46.488,0.075,-0.235
23:18:46.492,0.085,-0.215
23:18:46.496,0.075,-0.2
23:18:46.500,0.045,-0.275
23:18:46.504,0.085,-0.355
23:18:46.508,0.31,-0.49
23:18:46.512,0.65,-0.73
23:18:46.516,0.99,-1.0
23:18:46.520,1.19,-1.23
23:18:46.524,1.135,-1.295
23:18:46.528,0.74,-1.1
23:18:46.532,0.245,-0.705
23:18:46.536,-0.07,-0.33
23:18:46.540,-0.245,-0.095
23:18:46.544,-0.33,0.015
23:18:46.548,-0.36,0.07
23:18:46.552,-0.42,0.085
23:18:46.556,-0.43,0.09
23:18:46.560,-0.455,0.055
23:18:46.564,-0.46,0.05
23:18:46.568,-0.485,0.045
23:18:46.572,-0.485,0.035
23:18:46.576,-0.51,0.01
23:18:46.580,-0.5,-0.01
23:18:46.584,-0.505,-0.02
23:18:46.588,-0.5,-0.02
23:18:46.592,-0.53,-0.015
23:18:46.596,-0.525,-0.045
23:18:46.600,-0.52,-0.01
23:18:46.604,-0.5,-0.025
23:18:46.608,-0.51,-0.015
23:18:46.612,-0.515,-0.02
23:18:46.616,-0.53,-0.025
23:18:46.620,-0.52,-0.005
23:18:46.624,-0.51,-0.02
23:18:46.628,-0.525,-0.015
23:18:46.632,-0.515,0.0
23:18:46.636,-0.525,0.0
23:18:46.640,-0.535,-0.01
23:18:46.644,-0.55,0.0
23:18:46.648,-0.54,0.01
23:18:46.652,-0.53,0.0
23:18:46.656,-0.53,0.01
23:18:46.660,-0.545,0.0
23:18:46.664,-0.54,0.0
23:18:46.668,-0.535,0.005
23:18:46.672,-0.56,-0.01
23:18:46.676,-0.56,-0.005
23:18:46.680,-0.565,-0.02
23:18:46.684,-0.56,-0.025
23:18:46.688,-0.575,-0.015
23:18:46.692,-0.545,-0.02
23:18:46.696,-0.55,0.0
23:18:46.700,-0.545,-0.025
23:18:46.704,-0.53,-0.01
23:18:46.708,-0.535,-0.02
23:18:46.712,-0.505,-0.025
23:18:46.716,-0.51,-0.005
23:18:46.720,-0.49,-0.02
23:18:46.724,-0.485,-0.03
23:18:46.728,-0.475,-0.035
23:18:46.732,-0.47,-0.035
23:18:46.736,-0.44,-0.035
23:18:46.740,-0.425,-0.04
23:18:46.744,-0.425,-0.04
23:18:46.748,-0.395,-0.03
23:18:46.752,-0.36,-0.04
23:18:46.756,-0.385,-0.065
23:18:46.760,-0.355,-0.035
23:18:46.764,-0.36,-0.04
23:18:46.768,-0.335,-0.03
23:18:46.772,-0.35,-0.045
23:18:46.776,-0.32,-0.05
23:18:46.780,-0.315,-0.055
23:18:46.784,-0.31,-0.045
23:18:46.788,-0.3,-0.05
23:18:46.792,-0.29,-0.03
23:18:46.796,-0.305,-0.02
23:18:46.800,-0.285,-0.02
23:18:46.804,-0.28,-0.03
23:18:46.808,-0.27,-0.035
23:18:46.812,-0.27,-0.04
23:18:46.816,-0.26,-0.01
23:18:46.820,-0.25,-0.015
23:18:46.824,-0.245,-0.015
23:18:46.828,-0.235,-0.025
23:18:46.832,-0.24,-0.025
23:18:46.836,-0.24,0.0
23:18:46.840,-0.23,-0.01
23:18:46.844,-0.235,0.015
23:18:46.848,-0.2,0.01
23:18:46.852,-0.18,0.0
23:18:46.856,-0.17,0.025
23:18:46.860,-0.155,0.025
23:18:46.864,-0.155,0.025
23:18:46.868,-0.105,0.035
23:18:46.872,-0.08,0.045
23:18:46.876,-0.02,0.055
23:18:46.880,-0.01,0.075
23:18:46.884,0.005,0.075
23:18:46.888,0.04,0.06
23:18:46.892,0.07,0.075
23:18:46.896,0.06,0.095
23:18:46.900,0.065,0.08
23:18:46.904,0.035,0.07
23:18:46.908,0.0,0.035
23:18:46.912,-0.04,0.01
23:18:46.916,-0.08,-0.02
23:18:46.920,-0.11,-0.045
23:18:46.924,-0.17,-0.025
23:18:46.928,-0.23,-0.01
23:18:46.932,-0.275,-0.01
23:18:46.936,-0.315,-0.005
23:18:46.940,-0.345,0.02
23:18:46.944,-0.35,-0.01
23:18:46.948,-0.33,-0.005
23:18:46.952,-0.31,0.0
23:18:46.956,-0.32,-0.02
23:18:46.960,-0.31,-0.025
23:18:46.964,-0.305,-0.035
23:18:46.968,-0.3,-0.045
23:18:46.972,-0.295,-0.04
23:18:46.976,-0.3,-0.025
23:18:46.980,-0.275,-0.025
23:18:46.984,-0.265,-0.04
23:18:46.988,-0.27,-0.065
23:18:46.992,-0.3,-0.06
23:18:46.996,-0.3,-0.04
23:18:47.000,-0.32,-0.055
23:18:47.004,-0.305,-0.065
23:18:47.008,-0.32,-0.05
23:18:47.012,-0.32,-0.06
23:18:47.016,-0.33,-0.07
23:18:47.020,-0.32,-0.065
23:18:47.024,-0.33,-0.07
23:18:47.028,-0.3,-0.075
23:18:47.032,-0.33,-0.1
23:18:47.036,-0.32,-0.095
23:18:47.040,-0.325,-0.085
23:18:47.044,-0.325,-0.11
23:18:47.048,-0.27,-0.12
23:18:47.052,-0.24,-0.09
23:18:47.056,-0.18,-0.095
23:18:47.060,-0.095,-0.115
23:18:47.064,0.02,-0.13
23:18:47.068,0.1,-0.14
23:18:47.072,0.125,-0.175
23:18:47.076,0.155,-0.2
23:18:47.080,0.18,-0.18
23:18:47.084,0.155,-0.18
23:18:47.088,0.095,-0.225
23:18:47.092,0.15,-0.34
23:18:47.096,0.36,-0.485
23:18:47.100,0.65,-0.685
23:18:47.104,0.99,-0.995
23:18:47.108,1.175,-1.225
23:18:47.112,1.115,-1.305
23:18:47.116,0.76,-1.165
23:18:47.120,0.28,-0.765
23:18:47.124,-0.05,-0.41
23:18:47.128,-0.23,-0.185
23:18:47.132,-0.295,-0.055
23:18:47.136,-0.335,-0.005
23:18:47.140,-0.35,0.01
23:18:47.144,-0.39,0.015
23:18:47.148,-0.435,-0.01
23:18:47.152,-0.445,-0.03
23:18:47.156,-0.45,-0.04
23:18:47.160,-0.455,-0.065
23:18:47.164,-0.47,-0.095
23:18:47.168,-0.495,-0.09
23:18:47.172,-0.52,-0.115
23:18:47.176,-0.505,-0.105
23:18:47.180,-0.49,-0.09
23:18:47.184,-0.47,-0.125
23:18:47.188,-0.46,-0.125
23:18:47.192,-0.47,-0.13
23:18:47.196,-0.45,-0.125
23:18:47.200,-0.47,-0.13
23:18:47.204,-0.46,-0.115
23:18:47.208,-0.475,-0.12
23:18:47.212,-0.49,-0.135
23:18:47.216,-0.485,-0.13
23:18:47.220,-0.48,-0.13
23:18:47.224,-0.485,-0.14
23:18:47.228,-0.5,-0.145
23:18:47.232,-0.5,-0.15
23:18:47.236,-0.525,-0.17
23:18:47.240,-0.545,-0.165
23:18:47.244,-0.54,-0.16
23:18:47.248,-0.53,-0.165
23:18:47.252,-0.52,-0.18
23:18:47.256,-0.53,-0.195
23:18:47.260,-0.52,-0.18
23:18:47.264,-0.545,-0.195
23:18:47.268,-0.52,-0.18
23:18:47.272,-0.54,-0.195
23:18:47.276,-0.54,-0.195
23:18:47.280,-0.52,-0.2
23:18:47.284,-0.495,-0.185
23:18:47.288,-0.495,-0.205
23:18:47.292,-0.485,-0.22
23:18:47.296,-0.46,-0.225
23:18:47.300,-0.455,-0.225
23:18:47.304,-0.455,-0.215
23:18:47.308,-0.45,-0.205
23:18:47.312,-0.435,-0.22
23:18:47.316,-0.45,-0.23
23:18:47.320,-0.435,-0.215
23:18:47.324,-0.41,-0.24
23:18:47.328,-0.39,-0.245
23:18:47.332,-0.39,-0.25
23:18:47.336,-0.385,-0.27
23:18:47.340,-0.38,-0.275
23:18:47.344,-0.39,-0.27
23:18:47.348,-0.375,-0.285
23:18:47.352,-0.37,-0.295
23:18:47.356,-0.365,-0.3
23:18:47.360,-0.335,-0.29
23:18:47.364,-0.34,-0.285
23:18:47.368,-0.32,-0.295
23:18:47.372,-0.305,-0.28
23:18:47.376,-0.275,-0.29
23:18:47.380,-0.29,-0.31
23:18:47.384,-0.265,-0.315
23:18:47.388,-0.28,-0.295
23:18:47.392,-0.24,-0.29
23:18:47.396,-0.255,-0.31
23:18:47.400,-0.24,-0.3
23:18:47.404,-0.235,-0.285
23:18:47.408,-0.215,-0.29
23:18:47.412,-0.21,-0.26
23:18:47.416,-0.21,-0.285
23:18:47.420,-0.205,-0.255
23:18:47.424,-0.235,-0.265
23:18:47.428,-0.215,-0.26
23:18:47.432,-0.2,-0.275
23:18:47.436,-0.205,-0.26
23:18:47.440,-0.22,-0.27
23:18:47.444,-0.2,-0.28
23:18:47.448,-0.23,-0.285
23:18:47.452,-0.25,-0.275
23:18:47.456,-0.235,-0.265
23:18:47.460,-0.215,-0.275
23:18:47.464,-0.2,-0.275
23:18:47.468,-0.21,-0.3
23:18:47.472,-0.185,-0.3
23:18:47.476,-0.17,-0.305
23:18:47.480,-0.14,-0.285
23:18:47.484,-0.09,-0.285
23:18:47.488,-0.055,-0.275
23:18:47.492,-0.005,-0.25
23:18:47.496,0.015,-0.255
23:18:47.500,0.07,-0.26
23:18:47.504,0.095,-0.25
23:18:47.508,0.1,-0.23
23:18:47.512,0.115,-0.235
23:18:47.516,0.12,-0.25
23:18:47.520,0.07,-0.29
23:18:47.524,0.03,-0.335
23:18:47.528,-0.04,-0.31
23:18:47.532,-0.08,-0.315
23:18:47.536,-0.15,-0.315
23:18:47.540,-0.19,-0.335
23:18:47.544,-0.245,-0.32
23:18:47.548,-0.285,-0.305
23:18:47.552,-0.295,-0.29
23:18:47.556,-0.3,-0.31
23:18:47.560,-0.295,-0.305
23:18:47.564,-0.295,-0.34
23:18:47.568,-0.29,-0.325
23:18:47.572,-0.31,-0.32
23:18:47.576,-0.3,-0.32
23:18:47.580,-0.29,-0.33
23:18:47.584,-0.265,-0.345
23:18:47.588,-0.255,-0.375
23:18:47.592,-0.27,-0.345
23:18:47.596,-0.26,-0.345
23:18:47.600,-0.26,-0.34
23:18:47.604,-0.275,-0.32
23:18:47.608,-0.275,-0.34
23:18:47.612,-0.265,-0.36
23:18:47.616,-0.255,-0.32
23:18:47.620,-0.255,-0.335
23:18:47.624,-0.26,-0.345
23:18:47.628,-0.245,-0.33
23:18:47.632,-0.23,-0.34
23:18:47.636,-0.24,-0.31
23:18:47.640,-0.255,-0.34
23:18:47.644,-0.26,-0.32
23:18:47.648,-0.255,-0.32
23:18:47.652,-0.245,-0.305
23:18:47.656,-0.24,-0.305
23:18:47.660,-0.21,-0.32
23:18:47.664,-0.17,-0.34
23:18:47.668,-0.085,-0.32
23:18:47.672,0.015,-0.315
23:18:47.676,0.09,-0.325
23:18:47.680,0.16,-0.37
23:18:47.684,0.2,-0.395
23:18:47.688,0.24,-0.4
23:18:47.692,0.285,-0.41
23:18:47.696,0.245,-0.4
23:18:47.700,0.22,-0.47
23:18:47.704,0.295,-0.555
23:18:47.708,0.525,-0.695
23:18:47.712,0.855,-0.905
23:18:47.716,1.155,-1.165
23:18:47.720,1.255,-1.36
23:18:47.724,1.07,-1.38
23:18:47.728,0.635,-1.165
23:18:47.732,0.18,-0.755
23:18:47.736,-0.07,-0.46
23:18:47.740,-0.215,-0.295
23:18:47.744,-0.255,-0.18
23:18:47.748,-0.295,-0.09
23:18:47.752,-0.34,-0.08
23:18:47.756,-0.36,-0.085
23:18:47.760,-0.39,-0.07
23:18:47.764,-0.41,-0.08
23:18:47.768,-0.4,-0.115
23:18:47.772,-0.415,-0.12
23:18:47.776,-0.445,-0.145
23:18:47.780,-0.445,-0.155
23:18:47.784,-0.45,-0.11
23:18:47.788,-0.46,-0.125
23:18:47.792,-0.455,-0.11
23:18:47.796,-0.47,-0.105
23:18:47.800,-0.465,-0.11
23:18:47.804,-0.47,-0.105
23:18:47.808,-0.475,-0.13
23:18:47.812,-0.47,-0.135
23:18:47.816,-0.465,-0.13
23:18:47.820,-0.48,-0.13
23:18:47.824,-0.485,-0.11
23:18:47.828,-0.485,-0.12
23:18:47.832,-0.51,-0.11
23:18:47.836,-0.495,-0.115
23:18:47.840,-0.495,-0.09
23:18:47.844,-0.49,-0.11
23:18:47.848,-0.495,-0.11
23:18:47.852,-0.5,-0.09
23:18:47.856,-0.49,-0.095
23:18:47.860,-0.49,-0.08
23:18:47.864,-0.505,-0.085
23:18:47.868,-0.51,-0.075
23:18:47.872,-0.505,-0.09
23:18:47.876,-0.51,-0.07
23:18:47.880,-0.5,-0.08
23:18:47.884,-0.51,-0.07
23:18:47.888,-0.48,-0.085
23:18:47.892,-0.495,-0.07
23:18:47.896,-0.505,-0.095
23:18:47.900,-0.495,-0.075
23:18:47.904,-0.49,-0.08
23:18:47.908,-0.515,-0.095
23:18:47.912,-0.495,-0.08
23:18:47.916,-0.485,-0.09
23:18:47.920,-0.47,-0.09
23:18:47.924,-0.45,-0.105
23:18:47.928,-0.45,-0.105
23:18:47.932,-0.44,-0.125
23:18:47.936,-0.41,-0.14
23:18:47.940,-0.4,-0.13
23:18:47.944,-0.405,-0.13
23:18:47.948,-0.4,-0.13
23:18:47.952,-0.365,-0.11
23:18:47.956,-0.37,-0.12
23:18:47.960,-0.325,-0.15
23:18:47.964,-0.33,-0.14
23:18:47.968,-0.315,-0.125
23:18:47.972,-0.315,-0.15
23:18:47.976,-0.3,-0.15
23:18:47.980,-0.285,-0.14
23:18:47.984,-0.265,-0.145
23:18:47.988,-0.265,-0.135
23:18:47.992,-0.25,-0.125
23:18:47.996,-0.24,-0.12
23:18:48.000,-0.22,-0.12
23:18:48.004,-0.235,-0.14
23:18:48.008,-0.245,-0.105
23:18:48.012,-0.235,-0.1
23:18:48.016,-0.245,-0.115
23:18:48.020,-0.255,-0.095
23:18:48.024,-0.255,-0.115
23:18:48.028,-0.23,-0.095
23:18:48.032,-0.245,-0.08
23:18:48.036,-0.225,-0.095
23:18:48.040,-0.245,-0.11
23:18:48.044,-0.24,-0.09
23:18:48.048,-0.23,-0.09
23:18:48.052,-0.235,-0.095
23:18:48.056,-0.245,-0.1
23:18:48.060,-0.255,-0.08
23:18:48.064,-0.235,-0.095
23:18:48.068,-0.225,-0.06
23:18:48.072,-0.19,-0.08
23:18:48.076,-0.185,-0.08
23:18:48.080,-0.165,-0.07
23:18:48.084,-0.165,-0.055
23:18:48.088,-0.14,-0.045
23:18:48.092,-0.115,-0.035
23:18:48.096,-0.03,-0.02
23:18:48.100,-0.01,-0.01
23:18:48.104,0.015,-0.01
23:18:48.108,0.015,-0.005
23:18:48.112,0.055,-0.01
23:18:48.116,0.05,0.0
23:18:48.120,0.07,-0.005
23:18:48.124,0.045,0.0
23:18:48.128,0.01,-0.035
23:18:48.132,-0.04,-0.075
23:18:48.136,-0.075,-0.1
23:18:48.140,-0.125,-0.1
23:18:48.144,-0.19,-0.09
23:18:48.148,-0.25,-0.1
23:18:48.152,-0.315,-0.065
23:18:48.156,-0.345,-0.075
23:18:48.160,-0.34,-0.055
23:18:48.164,-0.34,-0.07
23:18:48.168,-0.35,-0.06
23:18:48.172,-0.35,-0.08
23:18:48.176,-0.355,-0.065
23:18:48.180,-0.345,-0.085
23:18:48.184,-0.33,-0.105
23:18:48.188,-0.32,-0.1
23:18:48.192,-0.32,-0.085
23:18:48.196,-0.335,-0.09
23:18:48.200,-0.33,-0.08
23:18:48.204,-0.335,-0.1
23:18:48.208,-0.335,-0.1
23:18:48.212,-0.335,-0.09
23:18:48.216,-0.32,-0.105
23:18:48.220,-0.31,-0.1
23:18:48.224,-0.345,-0.1
23:18:48.228,-0.345,-0.1
23:18:48.232,-0.365,-0.12
23:18:48.236,-0.36,-0.125
23:18:48.240,-0.35,-0.115
23:18:48.244,-0.35,-0.1
23:18:48.248,-0.36,-0.12
23:18:48.252,-0.365,-0.12
23:18:48.256,-0.34,-0.12
23:18:48.260,-0.34,-0.14
23:18:48.264,-0.31,-0.13
23:18:48.268,-0.265,-0.125
23:18:48.272,-0.24,-0.13
23:18:48.276,-0.145,-0.135
23:18:48.280,-0.07,-0.15
23:18:48.284,0.025,-0.16
23:18:48.288,0.06,-0.19
23:18:48.292,0.085,-0.245
23:18:48.296,0.11,-0.245
23:18:48.300,0.095,-0.235
23:18:48.304,0.055,-0.255
23:18:48.308,0.055,-0.35
23:18:48.312,0.185,-0.46
23:18:48.316,0.46,-0.62
23:18:48.320,0.795,-0.89
23:18:48.324,1.045,-1.145
23:18:48.328,1.12,-1.305
23:18:48.332,0.9,-1.26
23:18:48.336,0.445,-0.935
23:18:48.340,0.01,-0.52
23:18:48.344,-0.25,-0.25
23:18:48.348,-0.36,-0.08
23:18:48.352,-0.43,0.015
23:18:48.356,-0.435,0.03
23:18:48.360,-0.46,0.03
23:18:48.364,-0.5,0.025
23:18:48.368,-0.525,0.02
23:18:48.372,-0.535,0.01
23:18:48.376,-0.55,-0.015
23:18:48.380,-0.555,-0.035
23:18:48.384,-0.56,-0.035
23:18:48.388,-0.555,-0.035
23:18:48.392,-0.57,-0.05
23:18:48.396,-0.545,-0.035
23:18:48.400,-0.545,-0.035
23:18:48.404,-0.545,-0.035
23:18:48.408,-0.535,-0.025
23:18:48.412,-0.53,-0.035
23:18:48.416,-0.55,-0.025
23:18:48.420,-0.535,-0.025
23:18:48.424,-0.56,-0.02
23:18:48.428,-0.555,-0.025
23:18:48.432,-0.565,-0.015
23:18:48.436,-0.57,-0.04
23:18:48.440,-0.56,-0.03
23:18:48.444,-0.56,-0.025
23:18:48.448,-0.585,-0.045
23:18:48.452,-0.59,-0.055
23:18:48.456,-0.625,-0.05
23:18:48.460,-0.615,-0.035
23:18:48.464,-0.6,-0.04
23:18:48.468,-0.625,-0.035
23:18:48.472,-0.625,-0.06
23:18:48.476,-0.615,-0.04
23:18:48.480,-0.615,-0.06
23:18:48.484,-0.615,-0.075
23:18:48.488,-0.61,-0.055
23:18:48.492,-0.6,-0.05
23:18:48.496,-0.6,-0.07
23:18:48.500,-0.605,-0.07
23:18:48.504,-0.59,-0.075
23:18:48.508,-0.57,-0.07
23:18:48.512,-0.565,-0.08
23:18:48.516,-0.545,-0.065
23:18:48.520,-0.55,-0.07
23:18:48.524,-0.52,-0.05
23:18:48.528,-0.51,-0.08
23:18:48.532,-0.52,-0.065
23:18:48.536,-0.5,-0.08
23:18:48.540,-0.505,-0.08
23:18:48.544,-0.49,-0.11
23:18:48.548,-0.495,-0.105
23:18:48.552,-0.485,-0.075
23:18:48.556,-0.465,-0.095
23:18:48.560,-0.46,-0.1
23:18:48.564,-0.435,-0.125
23:18:48.568,-0.455,-0.12
23:18:48.572,-0.41,-0.125
23:18:48.576,-0.415,-0.125
23:18:48.580,-0.395,-0.135
23:18:48.584,-0.375,-0.115
23:18:48.588,-0.39,-0.14
23:18:48.592,-0.365,-0.135
23:18:48.596,-0.37,-0.095
23:18:48.600,-0.375,-0.135
23:18:48.604,-0.36,-0.125
23:18:48.608,-0.36,-0.11
23:18:48.612,-0.335,-0.1
23:18:48.616,-0.32,-0.105
23:18:48.620,-0.315,-0.115
23:18:48.624,-0.315,-0.1
23:18:48.628,-0.29,-0.075
23:18:48.632,-0.295,-0.11
23:18:48.636,-0.295,-0.08
23:18:48.640,-0.285,-0.08
23:18:48.644,-0.28,-0.075
23:18:48.648,-0.285,-0.06
23:18:48.652,-0.295,-0.03
23:18:48.656,-0.27,-0.07
23:18:48.660,-0.265,-0.075
23:18:48.664,-0.23,-0.055
23:18:48.668,-0.24,-0.06
23:18:48.672,-0.235,-0.05
23:18:48.676,-0.235,-0.015
23:18:48.680,-0.195,-0.03
23:18:48.684,-0.145,-0.035
23:18:48.688,-0.105,0.0
23:18:48.692,-0.07,-0.005
23:18:48.696,-0.025,0.0
23:18:48.700,-0.01,0.0
23:18:48.704,0.0,0.02
23:18:48.708,0.0,0.01
23:18:48.712,0.005,0.005
23:18:48.716,-0.04,0.0
23:18:48.720,-0.08,-0.055
23:18:48.724,-0.125,-0.05
23:18:48.728,-0.18,-0.07
23:18:48.732,-0.24,-0.07
23:18:48.736,-0.255,-0.06
23:18:48.740,-0.3,-0.05
23:18:48.744,-0.34,-0.025
23:18:48.748,-0.335,-0.03
23:18:48.752,-0.345,-0.045
23:18:48.756,-0.37,-0.045
23:18:48.760,-0.365,-0.06
23:18:48.764,-0.36,-0.04
23:18:48.768,-0.355,-0.045
23:18:48.772,-0.355,-0.065
