Time,ECG1,ECG2
00:07:53.152:1,-0.22,-0.16
00:07:53.156:1,-0.225,-0.165
00:07:53.160:1,-0.225,-0.17
00:07:53.164:1,-0.23,-0.18
00:07:53.168:1,-0.22,-0.155
00:07:53.172:1,-0.225,-0.175
00:07:53.176:1,-0.22,-0.175
00:07:53.180:1,-0.25,-0.17
00:07:53.184:1,-0.245,-0.17
00:07:53.188:1,-0.255,-0.18
00:07:53.192:1,-0.25,-0.185
00:07:53.196:1,-0.24,-0.185
00:07:53.200:1,-0.24,-0.195
00:07:53.204:1,-0.22,-0.185
00:07:53.208:1,-0.24,-0.205
00:07:53.212:1,-0.215,-0.19
00:07:53.216:1,-0.21,-0.175
00:07:53.220:1,-0.21,-0.18
00:07:53.224:1,-0.22,-0.175
00:07:53.228:1,-0.21,-0.21
00:07:53.232:1,-0.215,-0.185
00:07:53.236:1,-0.225,-0.16
00:07:53.240:1,-0.21,-0.17
00:07:53.244:1,-0.22,-0.17
00:07:53.248:1,-0.225,-0.17
00:07:53.252:1,-0.215,-0.195
00:07:53.256:1,-0.225,-0.19
00:07:53.260:1,-0.245,-0.195
00:07:53.264:1,-0.225,-0.175
00:07:53.268:1,-0.25,-0.175
00:07:53.272:1,-0.25,-0.18
00:07:53.276:1,-0.265,-0.205
00:07:53.280:1,-0.26,-0.19
00:07:53.284:1,-0.25,-0.185
00:07:53.288:1,-0.255,-0.2
00:07:53.292:1,-0.25,-0.2
00:07:53.296:1,-0.25,-0.19
00:07:53.300:1,-0.255,-0.205
00:07:53.304:1,-0.27,-0.205
00:07:53.308:1,-0.285,-0.205
00:07:53.312:1,-0.29,-0.19
00:07:53.316:1,-0.27,-0.21
00:07:53.320:1,-0.26,-0.195
00:07:53.324:1,-0.255,-0.205
00:07:53.328:1,-0.23,-0.205
00:07:53.332:1,-0.24,-0.205
00:07:53.336:1,-0.23,-0.18
00:07:53.340:1,-0.235,-0.185
00:07:53.344:1,-0.23,-0.18
00:07:53.348:1,-0.235,-0.175
00:07:53.352:1,-0.23,-0.17
00:07:53.356:1,-0.225,-0.19
00:07:53.360:1,-0.23,-0.185
00:07:53.364:1,-0.235,-0.195
00:07:53.368:1,-0.245,-0.205
00:07:53.372:1,-0.215,-0.195
00:07:53.376:1,-0.215,-0.195
00:07:53.380:1,-0.21,-0.215
00:07:53.384:1,-0.195,-0.24
00:07:53.388:1,-0.18,-0.21
00:07:53.392:1,-0.185,-0.19
00:07:53.396:1,-0.175,-0.205
00:07:53.400:1,-0.185,-0.19
00:07:53.404:1,-0.175,-0.21
00:07:53.408:1,-0.15,-0.21
00:07:53.412:1,-0.155,-0.205
00:07:53.416:1,-0.11,-0.16
00:07:53.420:1,-0.07,-0.175
00:07:53.424:1,-0.045,-0.15
00:07:53.428:1,-0.02,-0.145
00:07:53.432:1,0.0,-0.16
00:07:53.436:1,0.025,-0.175
00:07:53.440:1,0.035,-0.205
00:07:53.444:1,0.04,-0.21
00:07:53.448:1,0.0,-0.23
00:07:53.452:1,-0.02,-0.24
00:07:53.456:1,-0.07,-0.245
00:07:53.460:1,-0.115,-0.265
00:07:53.464:1,-0.15,-0.25
00:07:53.468:1,-0.185,-0.245
00:07:53.472:1,-0.255,-0.235
00:07:53.476:1,-0.27,-0.235
00:07:53.480:1,-0.295,-0.215
00:07:53.484:1,-0.305,-0.235
00:07:53.488:1,-0.31,-0.245
00:07:53.492:1,-0.325,-0.265
00:07:53.496:1,-0.315,-0.245
00:07:53.500:1,-0.315,-0.285
00:07:53.504:1,-0.32,-0.275
00:07:53.508:1,-0.315,-0.285
00:07:53.512:1,-0.315,-0.285
00:07:53.516:1,-0.31,-0.28
00:07:53.520:1,-0.31,-0.29
00:07:53.524:1,-0.29,-0.285
00:07:53.528:1,-0.285,-0.285
00:07:53.532:1,-0.285,-0.295
00:07:53.536:1,-0.285,-0.285
00:07:53.540:1,-0.28,-0.3
00:07:53.544:1,-0.28,-0.285
00:07:53.548:1,-0.28,-0.285
00:07:53.552:1,-0.26,-0.29
00:07:53.556:1,-0.29,-0.28
00:07:53.560:1,-0.295,-0.285
00:07:53.564:1,-0.29,-0.295
00:07:53.568:1,-0.305,-0.28
00:07:53.572:1,-0.3,-0.3
00:07:53.576:1,-0.255,-0.28
00:07:53.580:1,-0.22,-0.295
00:07:53.584:1,-0.24,-0.305
00:07:53.588:1,-0.225,-0.3
00:07:53.592:1,-0.195,-0.315
00:07:53.596:1,-0.1,-0.305
00:07:53.600:1,0.01,-0.305
00:07:53.604:1,0.085,-0.305
00:07:53.608:1,0.155,-0.355
00:07:53.612:1,0.205,-0.355
00:07:53.616:1,0.235,-0.36
00:07:53.620:1,0.22,-0.32
00:07:53.624:1,0.17,-0.315
00:07:53.628:1,0.12,-0.32
00:07:53.632:1,0.185,-0.37
00:07:53.636:1,0.42,-0.5
00:07:53.640:1,0.72,-0.7
00:07:53.644:1,1.015,-0.975
00:07:53.648:1,1.205,-1.21
00:07:53.652:1,1.225,-1.275
00:07:53.656:1,1.01,-1.12
00:07:53.660:1,0.565,-0.805
00:07:53.664:1,0.185,-0.475
00:07:53.668:1,-0.045,-0.255
00:07:53.672:1,-0.14,-0.135
00:07:53.676:1,-0.2,-0.105
00:07:53.680:1,-0.275,-0.09
00:07:53.684:1,-0.3,-0.11
00:07:53.688:1,-0.33,-0.145
00:07:53.692:1,-0.355,-0.16
00:07:53.696:1,-0.425,-0.17
00:07:53.700:1,-0.425,-0.21
00:07:53.704:1,-0.415,-0.235
00:07:53.708:1,-0.415,-0.24
00:07:53.712:1,-0.415,-0.25
00:07:53.716:1,-0.425,-0.265
00:07:53.720:1,-0.44,-0.27
00:07:53.724:1,-0.445,-0.29
00:07:53.728:1,-0.445,-0.265
00:07:53.732:1,-0.395,-0.28
00:07:53.736:1,-0.4,-0.28
00:07:53.740:1,-0.415,-0.27
00:07:53.744:1,-0.44,-0.275
00:07:53.748:1,-0.44,-0.275
00:07:53.752:1,-0.415,-0.265
00:07:53.756:1,-0.39,-0.28
00:07:53.760:1,-0.4,-0.255
00:07:53.764:1,-0.4,-0.255
00:07:53.768:1,-0.42,-0.27
00:07:53.772:1,-0.41,-0.29
00:07:53.776:1,-0.405,-0.275
00:07:53.780:1,-0.4,-0.27
00:07:53.784:1,-0.405,-0.275
00:07:53.788:1,-0.415,-0.285
00:07:53.792:1,-0.42,-0.28
00:07:53.796:1,-0.4,-0.265
00:07:53.800:1,-0.405,-0.285
00:07:53.804:1,-0.42,-0.285
00:07:53.808:1,-0.41,-0.295
00:07:53.812:1,-0.41,-0.29
00:07:53.816:1,-0.39,-0.31
00:07:53.820:1,-0.375,-0.3
00:07:53.824:1,-0.37,-0.295
00:07:53.828:1,-0.36,-0.305
00:07:53.832:1,-0.36,-0.3
00:07:53.836:1,-0.375,-0.29
00:07:53.840:1,-0.37,-0.31
00:07:53.844:1,-0.355,-0.295
00:07:53.848:1,-0.365,-0.3
00:07:53.852:1,-0.33,-0.29
00:07:53.856:1,-0.32,-0.3
00:07:53.860:1,-0.315,-0.3
00:07:53.864:1,-0.31,-0.3
00:07:53.868:1,-0.3,-0.3
00:07:53.872:1,-0.295,-0.3
00:07:53.876:1,-0.295,-0.3
00:07:53.880:1,-0.28,-0.305
00:07:53.884:1,-0.27,-0.285
00:07:53.888:1,-0.285,-0.28
00:07:53.892:1,-0.275,-0.28
00:07:53.896:1,-0.275,-0.285
00:07:53.900:1,-0.27,-0.295
00:07:53.904:1,-0.26,-0.3
00:07:53.908:1,-0.24,-0.295
00:07:53.912:1,-0.25,-0.295
00:07:53.916:1,-0.26,-0.29
00:07:53.920:1,-0.235,-0.295
00:07:53.924:1,-0.23,-0.29
00:07:53.928:1,-0.235,-0.32
00:07:53.932:1,-0.225,-0.285
00:07:53.936:1,-0.23,-0.285
00:07:53.940:1,-0.195,-0.28
00:07:53.944:1,-0.215,-0.275
00:07:53.948:1,-0.205,-0.295
00:07:53.952:1,-0.205,-0.285
00:07:53.956:1,-0.205,-0.285
00:07:53.960:1,-0.18,-0.275
00:07:53.964:1,-0.18,-0.245
00:07:53.968:1,-0.16,-0.24
00:07:53.972:1,-0.16,-0.255
00:07:53.976:1,-0.15,-0.23
00:07:53.980:1,-0.145,-0.22
00:07:53.984:1,-0.155,-0.23
00:07:53.988:1,-0.165,-0.22
00:07:53.992:1,-0.16,-0.21
00:07:53.996:1,-0.175,-0.215
00:07:54.000:1,-0.17,-0.21
00:07:54.004:1,-0.16,-0.2
00:07:54.008:1,-0.17,-0.205
00:07:54.012:1,-0.165,-0.2
00:07:54.016:1,-0.195,-0.21
00:07:54.020:1,-0.19,-0.21
00:07:54.024:1,-0.185,-0.21
00:07:54.028:1,-0.185,-0.2
00:07:54.032:1,-0.19,-0.22
00:07:54.036:1,-0.17,-0.21
00:07:54.040:1,-0.2,-0.205
00:07:54.044:1,-0.21,-0.2
00:07:54.048:1,-0.205,-0.22
00:07:54.052:1,-0.185,-0.21
00:07:54.056:1,-0.185,-0.205
00:07:54.060:1,-0.2,-0.225
00:07:54.064:1,-0.185,-0.21
00:07:54.068:1,-0.17,-0.22
00:07:54.072:1,-0.16,-0.205
00:07:54.076:1,-0.13,-0.205
00:07:54.080:1,-0.115,-0.21
00:07:54.084:1,-0.135,-0.2
00:07:54.088:1,-0.125,-0.19
00:07:54.092:1,-0.11,-0.18
00:07:54.096:1,-0.07,-0.13
00:07:54.100:1,-0.05,-0.15
00:07:54.104:1,-0.01,-0.14
00:07:54.108:1,0.005,-0.125
00:07:54.112:1,0.005,-0.13
00:07:54.116:1,0.025,-0.14
00:07:54.120:1,0.06,-0.14
00:07:54.124:1,0.05,-0.13
00:07:54.128:1,0.07,-0.15
00:07:54.132:1,0.07,-0.175
00:07:54.136:1,0.04,-0.195
00:07:54.140:1,-0.005,-0.21
00:07:54.144:1,-0.055,-0.22
00:07:54.148:1,-0.115,-0.24
00:07:54.152:1,-0.13,-0.24
00:07:54.156:1,-0.19,-0.225
00:07:54.160:1,-0.265,-0.2
00:07:54.164:1,-0.285,-0.205
00:07:54.168:1,-0.31,-0.19
00:07:54.172:1,-0.34,-0.19
00:07:54.176:1,-0.32,-0.185
00:07:54.180:1,-0.315,-0.215
00:07:54.184:1,-0.3,-0.205
00:07:54.188:1,-0.32,-0.225
00:07:54.192:1,-0.305,-0.21
00:07:54.196:1,-0.295,-0.22
00:07:54.200:1,-0.275,-0.22
00:07:54.204:1,-0.29,-0.22
00:07:54.208:1,-0.275,-0.21
00:07:54.212:1,-0.295,-0.21
00:07:54.216:1,-0.295,-0.21
00:07:54.220:1,-0.3,-0.24
00:07:54.224:1,-0.3,-0.225
00:07:54.228:1,-0.31,-0.215
00:07:54.232:1,-0.3,-0.22
00:07:54.236:1,-0.29,-0.215
00:07:54.240:1,-0.305,-0.23
00:07:54.244:1,-0.29,-0.25
00:07:54.248:1,-0.28,-0.24
00:07:54.252:1,-0.275,-0.25
00:07:54.256:1,-0.27,-0.23
00:07:54.260:1,-0.27,-0.225
00:07:54.264:1,-0.26,-0.255
00:07:54.268:1,-0.255,-0.24
00:07:54.272:1,-0.26,-0.245
00:07:54.276:1,-0.25,-0.24
00:07:54.280:1,-0.21,-0.255
00:07:54.284:1,-0.11,-0.24
00:07:54.288:1,-0.005,-0.255
00:07:54.292:1,0.1,-0.275
00:07:54.296:1,0.16,-0.275
00:07:54.300:1,0.2,-0.305
00:07:54.304:1,0.24,-0.32
00:07:54.308:1,0.24,-0.315
00:07:54.312:1,0.21,-0.295
00:07:54.316:1,0.165,-0.33
00:07:54.320:1,0.22,-0.435
00:07:54.324:1,0.43,-0.55
00:07:54.328:1,0.76,-0.78
00:07:54.332:1,1.055,-1.01
00:07:54.336:1,1.24,-1.24
00:07:54.340:1,1.18,-1.315
00:07:54.344:1,0.84,-1.175
00:07:54.348:1,0.36,-0.825
00:07:54.352:1,0.0,-0.505
00:07:54.356:1,-0.16,-0.28
00:07:54.360:1,-0.26,-0.17
00:07:54.364:1,-0.315,-0.095
00:07:54.368:1,-0.35,-0.085
00:07:54.372:1,-0.365,-0.095
00:07:54.376:1,-0.375,-0.085
00:07:54.380:1,-0.41,-0.115
00:07:54.384:1,-0.425,-0.11
00:07:54.388:1,-0.41,-0.135
00:07:54.392:1,-0.415,-0.15
00:07:54.396:1,-0.405,-0.16
00:07:54.400:1,-0.405,-0.18
00:07:54.404:1,-0.42,-0.155
00:07:54.408:1,-0.435,-0.16
00:07:54.412:1,-0.405,-0.175
00:07:54.416:1,-0.425,-0.175
00:07:54.420:1,-0.425,-0.16
00:07:54.424:1,-0.43,-0.18
00:07:54.428:1,-0.435,-0.19
00:07:54.432:1,-0.43,-0.19
00:07:54.436:1,-0.445,-0.205
00:07:54.440:1,-0.45,-0.195
00:07:54.444:1,-0.475,-0.195
00:07:54.448:1,-0.47,-0.195
00:07:54.452:1,-0.465,-0.185
00:07:54.456:1,-0.475,-0.2
00:07:54.460:1,-0.47,-0.205
00:07:54.464:1,-0.48,-0.185
00:07:54.468:1,-0.48,-0.22
00:07:54.472:1,-0.495,-0.205
00:07:54.476:1,-0.485,-0.22
00:07:54.480:1,-0.505,-0.21
00:07:54.484:1,-0.505,-0.205
00:07:54.488:1,-0.51,-0.205
00:07:54.492:1,-0.48,-0.22
00:07:54.496:1,-0.5,-0.215
00:07:54.500:1,-0.48,-0.22
00:07:54.504:1,-0.475,-0.215
00:07:54.508:1,-0.475,-0.21
00:07:54.512:1,-0.455,-0.215
00:07:54.516:1,-0.45,-0.23
00:07:54.520:1,-0.435,-0.225
00:07:54.524:1,-0.445,-0.245
00:07:54.528:1,-0.42,-0.195
00:07:54.532:1,-0.435,-0.205
00:07:54.536:1,-0.41,-0.19
00:07:54.540:1,-0.415,-0.23
00:07:54.544:1,-0.41,-0.215
00:07:54.548:1,-0.4,-0.24
00:07:54.552:1,-0.39,-0.245
00:07:54.556:1,-0.395,-0.245
00:07:54.560:1,-0.38,-0.24
00:07:54.564:1,-0.37,-0.25
00:07:54.568:1,-0.34,-0.255
00:07:54.572:1,-0.355,-0.265
00:07:54.576:1,-0.33,-0.28
00:07:54.580:1,-0.32,-0.29
00:07:54.584:1,-0.315,-0.275
00:07:54.588:1,-0.305,-0.255
00:07:54.592:1,-0.315,-0.265
00:07:54.596:1,-0.29,-0.28
00:07:54.600:1,-0.295,-0.27
00:07:54.604:1,-0.285,-0.28
00:07:54.608:1,-0.265,-0.275
00:07:54.612:1,-0.27,-0.26
00:07:54.616:1,-0.255,-0.255
00:07:54.620:1,-0.26,-0.235
00:07:54.624:1,-0.27,-0.22
00:07:54.628:1,-0.265,-0.2
00:07:54.632:1,-0.28,-0.21
00:07:54.636:1,-0.27,-0.24
00:07:54.640:1,-0.26,-0.215
00:07:54.644:1,-0.25,-0.23
00:07:54.648:1,-0.275,-0.205
00:07:54.652:1,-0.27,-0.205
00:07:54.656:1,-0.27,-0.22
00:07:54.660:1,-0.29,-0.215
00:07:54.664:1,-0.27,-0.225
00:07:54.668:1,-0.29,-0.21
00:07:54.672:1,-0.285,-0.22
00:07:54.676:1,-0.275,-0.225
00:07:54.680:1,-0.275,-0.23
00:07:54.684:1,-0.27,-0.235
00:07:54.688:1,-0.285,-0.22
00:07:54.692:1,-0.29,-0.22
00:07:54.696:1,-0.275,-0.215
00:07:54.700:1,-0.28,-0.2
00:07:54.704:1,-0.285,-0.21
00:07:54.708:1,-0.295,-0.195
00:07:54.712:1,-0.28,-0.21
00:07:54.716:1,-0.285,-0.215
00:07:54.720:1,-0.265,-0.21
00:07:54.724:1,-0.28,-0.215
00:07:54.728:1,-0.26,-0.23
00:07:54.732:1,-0.27,-0.205
00:07:54.736:1,-0.26,-0.205
00:07:54.740:1,-0.255,-0.215
00:07:54.744:1,-0.235,-0.205
00:07:54.748:1,-0.215,-0.19
00:07:54.752:1,-0.205,-0.195
00:07:54.756:1,-0.2,-0.195
00:07:54.760:1,-0.21,-0.2
00:07:54.764:1,-0.21,-0.195
00:07:54.768:1,-0.185,-0.19
00:07:54.772:1,-0.145,-0.205
00:07:54.776:1,-0.105,-0.185
00:07:54.780:1,-0.09,-0.16
00:07:54.784:1,-0.065,-0.145
00:07:54.788:1,-0.045,-0.145
00:07:54.792:1,-0.025,-0.155
00:07:54.796:1,-0.01,-0.16
00:07:54.800:1,-0.015,-0.165
00:07:54.804:1,-0.005,-0.18
00:07:54.808:1,-0.065,-0.24
00:07:54.812:1,-0.09,-0.23
00:07:54.816:1,-0.135,-0.225
00:07:54.820:1,-0.18,-0.25
00:07:54.824:1,-0.235,-0.26
00:07:54.828:1,-0.265,-0.24
00:07:54.832:1,-0.31,-0.23
00:07:54.836:1,-0.335,-0.2
00:07:54.840:1,-0.365,-0.185
00:07:54.844:1,-0.395,-0.195
00:07:54.848:1,-0.395,-0.2
00:07:54.852:1,-0.385,-0.205
00:07:54.856:1,-0.35,-0.205
00:07:54.860:1,-0.37,-0.225
00:07:54.864:1,-0.35,-0.235
00:07:54.868:1,-0.34,-0.21
00:07:54.872:1,-0.33,-0.245
00:07:54.876:1,-0.355,-0.235
00:07:54.880:1,-0.36,-0.23
00:07:54.884:1,-0.35,-0.22
00:07:54.888:1,-0.34,-0.25
00:07:54.892:1,-0.335,-0.245
00:07:54.896:1,-0.345,-0.245
00:07:54.900:1,-0.345,-0.245
00:07:54.904:1,-0.355,-0.245
00:07:54.908:1,-0.345,-0.245
00:07:54.912:1,-0.325,-0.25
00:07:54.916:1,-0.33,-0.255
00:07:54.920:1,-0.315,-0.255
00:07:54.924:1,-0.335,-0.25
00:07:54.928:1,-0.325,-0.245
00:07:54.932:1,-0.325,-0.24
00:07:54.936:1,-0.305,-0.24
00:07:54.940:1,-0.3,-0.23
00:07:54.944:1,-0.295,-0.235
00:07:54.948:1,-0.26,-0.22
00:07:54.952:1,-0.21,-0.24
00:07:54.956:1,-0.15,-0.24
00:07:54.960:1,-0.06,-0.22
00:07:54.964:1,0.02,-0.235
00:07:54.968:1,0.06,-0.255
00:07:54.972:1,0.08,-0.3
00:07:54.976:1,0.085,-0.275
00:07:54.980:1,0.075,-0.255
00:07:54.984:1,0.015,-0.28
00:07:54.988:1,0.015,-0.32
00:07:54.992:1,0.11,-0.41
00:07:54.996:1,0.365,-0.535
00:07:55.000:1,0.69,-0.76
00:07:55.004:1,0.99,-1.045
00:07:55.008:1,1.16,-1.22
00:07:55.012:1,1.05,-1.25
00:07:55.016:1,0.695,-1.05
00:07:55.020:1,0.235,-0.67
00:07:55.024:1,-0.065,-0.365
00:07:55.028:1,-0.22,-0.155
00:07:55.032:1,-0.31,-0.075
00:07:55.036:1,-0.36,-0.01
00:07:55.040:1,-0.375,-0.02
00:07:55.044:1,-0.4,-0.04
00:07:55.048:1,-0.37,-0.045
00:07:55.052:1,-0.39,-0.075
00:07:55.056:1,-0.42,-0.105
00:07:55.060:1,-0.42,-0.11
00:07:55.064:1,-0.425,-0.115
00:07:55.068:1,-0.42,-0.12
00:07:55.072:1,-0.415,-0.14
00:07:55.076:1,-0.445,-0.155
00:07:55.080:1,-0.44,-0.145
00:07:55.084:1,-0.43,-0.135
00:07:55.088:1,-0.44,-0.125
00:07:55.092:1,-0.445,-0.14
00:07:55.096:1,-0.45,-0.145
00:07:55.100:1,-0.46,-0.16
00:07:55.104:1,-0.465,-0.17
00:07:55.108:1,-0.485,-0.18
00:07:55.112:1,-0.47,-0.17
00:07:55.116:1,-0.48,-0.185
00:07:55.120:1,-0.48,-0.19
00:07:55.124:1,-0.47,-0.17
00:07:55.128:1,-0.48,-0.18
00:07:55.132:1,-0.49,-0.19
00:07:55.136:1,-0.49,-0.2
00:07:55.140:1,-0.5,-0.18
00:07:55.144:1,-0.5,-0.2
00:07:55.148:1,-0.47,-0.195
00:07:55.152:1,-0.48,-0.195
00:07:55.156:1,-0.505,-0.195
00:07:55.160:1,-0.485,-0.165
00:07:55.164:1,-0.48,-0.17
00:07:55.168:1,-0.465,-0.17
00:07:55.172:1,-0.465,-0.2
00:07:55.176:1,-0.455,-0.18
00:07:55.180:1,-0.465,-0.165
00:07:55.184:1,-0.455,-0.18
00:07:55.188:1,-0.465,-0.18
00:07:55.192:1,-0.46,-0.17
00:07:55.196:1,-0.46,-0.185
00:07:55.200:1,-0.445,-0.19
00:07:55.204:1,-0.445,-0.2
00:07:55.208:1,-0.45,-0.195
00:07:55.212:1,-0.455,-0.2
00:07:55.216:1,-0.44,-0.2
00:07:55.220:1,-0.415,-0.22
00:07:55.224:1,-0.395,-0.21
00:07:55.228:1,-0.39,-0.23
00:07:55.232:1,-0.375,-0.22
00:07:55.236:1,-0.365,-0.23
00:07:55.240:1,-0.375,-0.25
00:07:55.244:1,-0.365,-0.225
00:07:55.248:1,-0.345,-0.225
00:07:55.252:1,-0.32,-0.23
00:07:55.256:1,-0.325,-0.21
00:07:55.260:1,-0.305,-0.21
00:07:55.264:1,-0.29,-0.205
00:07:55.268:1,-0.28,-0.22
00:07:55.272:1,-0.285,-0.24
00:07:55.276:1,-0.28,-0.22
00:07:55.280:1,-0.285,-0.205
00:07:55.284:1,-0.29,-0.2
00:07:55.288:1,-0.265,-0.205
00:07:55.292:1,-0.265,-0.18
00:07:55.296:1,-0.26,-0.175
00:07:55.300:1,-0.27,-0.175
00:07:55.304:1,-0.255,-0.185
00:07:55.308:1,-0.275,-0.19
00:07:55.312:1,-0.275,-0.18
00:07:55.316:1,-0.27,-0.19
00:07:55.320:1,-0.29,-0.19
00:07:55.324:1,-0.315,-0.2
00:07:55.328:1,-0.29,-0.19
00:07:55.332:1,-0.295,-0.2
00:07:55.336:1,-0.3,-0.18
00:07:55.340:1,-0.285,-0.195
00:07:55.344:1,-0.31,-0.19
00:07:55.348:1,-0.3,-0.2
00:07:55.352:1,-0.3,-0.195
00:07:55.356:1,-0.3,-0.19
00:07:55.360:1,-0.3,-0.195
00:07:55.364:1,-0.295,-0.205
00:07:55.368:1,-0.295,-0.195
00:07:55.372:1,-0.28,-0.21
00:07:55.376:1,-0.275,-0.195
00:07:55.380:1,-0.295,-0.185
00:07:55.384:1,-0.295,-0.18
00:07:55.388:1,-0.275,-0.19
00:07:55.392:1,-0.31,-0.18
00:07:55.396:1,-0.285,-0.165
00:07:55.400:1,-0.275,-0.165
00:07:55.404:1,-0.265,-0.16
00:07:55.408:1,-0.25,-0.175
00:07:55.412:1,-0.225,-0.195
00:07:55.416:1,-0.23,-0.21
00:07:55.420:1,-0.265,-0.2
00:07:55.424:1,-0.265,-0.195
00:07:55.428:1,-0.24,-0.205
00:07:55.432:1,-0.22,-0.2
00:07:55.436:1,-0.175,-0.19
00:07:55.440:1,-0.145,-0.175
00:07:55.444:1,-0.11,-0.18
00:07:55.448:1,-0.075,-0.175
00:07:55.452:1,-0.07,-0.15
00:07:55.456:1,-0.03,-0.16
00:07:55.460:1,-0.01,-0.165
00:07:55.464:1,0.0,-0.195
00:07:55.468:1,0.02,-0.2
00:07:55.472:1,-0.03,-0.225
00:07:55.476:1,-0.085,-0.22
00:07:55.480:1,-0.12,-0.255
00:07:55.484:1,-0.18,-0.265
00:07:55.488:1,-0.25,-0.275
00:07:55.492:1,-0.29,-0.265
00:07:55.496:1,-0.31,-0.23
00:07:55.500:1,-0.345,-0.24
00:07:55.504:1,-0.38,-0.235
00:07:55.508:1,-0.385,-0.25
00:07:55.512:1,-0.39,-0.235
00:07:55.516:1,-0.4,-0.255
00:07:55.520:1,-0.37,-0.28
00:07:55.524:1,-0.385,-0.28
00:07:55.528:1,-0.37,-0.28
00:07:55.532:1,-0.38,-0.29
00:07:55.536:1,-0.38,-0.285
00:07:55.540:1,-0.395,-0.3
00:07:55.544:1,-0.355,-0.29
00:07:55.548:1,-0.365,-0.295
00:07:55.552:1,-0.355,-0.28
00:07:55.556:1,-0.36,-0.31
00:07:55.560:1,-0.36,-0.3
00:07:55.564:1,-0.355,-0.275
00:07:55.568:1,-0.35,-0.29
00:07:55.572:1,-0.375,-0.285
00:07:55.576:1,-0.385,-0.305
00:07:55.580:1,-0.37,-0.315
00:07:55.584:1,-0.365,-0.3
00:07:55.588:1,-0.335,-0.31
00:07:55.592:1,-0.34,-0.295
00:07:55.596:1,-0.325,-0.295
00:07:55.600:1,-0.345,-0.305
00:07:55.604:1,-0.32,-0.295
00:07:55.608:1,-0.29,-0.305
00:07:55.612:1,-0.255,-0.31
00:07:55.616:1,-0.2,-0.29
00:07:55.620:1,-0.12,-0.32
00:07:55.624:1,-0.04,-0.315
00:07:55.628:1,0.05,-0.32
00:07:55.632:1,0.155,-0.34
00:07:55.636:1,0.185,-0.375
00:07:55.640:1,0.185,-0.36
00:07:55.644:1,0.185,-0.32
00:07:55.648:1,0.135,-0.315
00:07:55.652:1,0.13,-0.36
00:07:55.656:1,0.27,-0.455
00:07:55.660:1,0.535,-0.62
00:07:55.664:1,0.87,-0.86
00:07:55.668:1,1.12,-1.105
00:07:55.672:1,1.19,-1.25
00:07:55.676:1,0.945,-1.245
00:07:55.680:1,0.465,-0.985
00:07:55.684:1,0.065,-0.66
00:07:55.688:1,-0.14,-0.4
00:07:55.692:1,-0.235,-0.275
00:07:55.696:1,-0.275,-0.19
00:07:55.700:1,-0.31,-0.15
00:07:55.704:1,-0.355,-0.145
00:07:55.708:1,-0.395,-0.175
00:07:55.712:1,-0.38,-0.17
00:07:55.716:1,-0.415,-0.175
00:07:55.720:1,-0.435,-0.205
00:07:55.724:1,-0.445,-0.24
00:07:55.728:1,-0.465,-0.25
00:07:55.732:1,-0.475,-0.265
00:07:55.736:1,-0.445,-0.255
00:07:55.740:1,-0.455,-0.26
00:07:55.744:1,-0.44,-0.24
00:07:55.748:1,-0.465,-0.29
00:07:55.752:1,-0.51,-0.275
00:07:55.756:1,-0.485,-0.255
00:07:55.760:1,-0.485,-0.26
00:07:55.764:1,-0.49,-0.28
00:07:55.768:1,-0.505,-0.29
00:07:55.772:1,-0.505,-0.28
00:07:55.776:1,-0.52,-0.29
00:07:55.780:1,-0.51,-0.28
00:07:55.784:1,-0.495,-0.28
00:07:55.788:1,-0.51,-0.29
00:07:55.792:1,-0.505,-0.265
00:07:55.796:1,-0.515,-0.285
00:07:55.800:1,-0.5,-0.27
00:07:55.804:1,-0.495,-0.26
00:07:55.808:1,-0.495,-0.295
00:07:55.812:1,-0.465,-0.28
00:07:55.816:1,-0.465,-0.265
00:07:55.820:1,-0.485,-0.27
00:07:55.824:1,-0.51,-0.28
00:07:55.828:1,-0.5,-0.275
00:07:55.832:1,-0.5,-0.26
00:07:55.836:1,-0.475,-0.26
00:07:55.840:1,-0.47,-0.24
00:07:55.844:1,-0.475,-0.24
00:07:55.848:1,-0.48,-0.26
00:07:55.852:1,-0.47,-0.26
00:07:55.856:1,-0.47,-0.255
00:07:55.860:1,-0.455,-0.275
00:07:55.864:1,-0.445,-0.27
00:07:55.868:1,-0.445,-0.25
00:07:55.872:1,-0.44,-0.28
00:07:55.876:1,-0.415,-0.29
00:07:55.880:1,-0.39,-0.28
00:07:55.884:1,-0.39,-0.275
00:07:55.888:1,-0.39,-0.29
00:07:55.892:1,-0.39,-0.3
00:07:55.896:1,-0.355,-0.3
00:07:55.900:1,-0.35,-0.285
00:07:55.904:1,-0.34,-0.3
00:07:55.908:1,-0.33,-0.305
00:07:55.912:1,-0.335,-0.285
00:07:55.916:1,-0.305,-0.29
00:07:55.920:1,-0.29,-0.28
00:07:55.924:1,-0.29,-0.285
00:07:55.928:1,-0.275,-0.27
00:07:55.932:1,-0.255,-0.285
00:07:55.936:1,-0.25,-0.275
00:07:55.940:1,-0.255,-0.28
00:07:55.944:1,-0.235,-0.265
00:07:55.948:1,-0.24,-0.275
00:07:55.952:1,-0.23,-0.27
00:07:55.956:1,-0.25,-0.27
00:07:55.960:1,-0.24,-0.25
00:07:55.964:1,-0.25,-0.27
00:07:55.968:1,-0.265,-0.27
00:07:55.972:1,-0.235,-0.26
00:07:55.976:1,-0.23,-0.27
00:07:55.980:1,-0.24,-0.235
00:07:55.984:1,-0.255,-0.265
00:07:55.988:1,-0.24,-0.26
00:07:55.992:1,-0.23,-0.24
00:07:55.996:1,-0.24,-0.25
00:07:56.000:1,-0.24,-0.25
00:07:56.004:1,-0.23,-0.25
00:07:56.008:1,-0.245,-0.23
00:07:56.012:1,-0.235,-0.235
00:07:56.016:1,-0.215,-0.215
00:07:56.020:1,-0.22,-0.24
00:07:56.024:1,-0.195,-0.205
00:07:56.028:1,-0.225,-0.21
00:07:56.032:1,-0.21,-0.215
00:07:56.036:1,-0.21,-0.22
00:07:56.040:1,-0.205,-0.2
00:07:56.044:1,-0.2,-0.2
00:07:56.048:1,-0.22,-0.2
00:07:56.052:1,-0.21,-0.215
00:07:56.056:1,-0.21,-0.185
00:07:56.060:1,-0.2,-0.2
00:07:56.064:1,-0.2,-0.195
00:07:56.068:1,-0.215,-0.21
00:07:56.072:1,-0.21,-0.2
00:07:56.076:1,-0.205,-0.2
00:07:56.080:1,-0.18,-0.215
00:07:56.084:1,-0.19,-0.215
00:07:56.088:1,-0.2,-0.185
00:07:56.092:1,-0.155,-0.195
00:07:56.096:1,-0.135,-0.195
00:07:56.100:1,-0.095,-0.19
00:07:56.104:1,-0.06,-0.18
00:07:56.108:1,-0.025,-0.16
00:07:56.112:1,0.0,-0.14
00:07:56.116:1,0.015,-0.15
00:07:56.120:1,0.045,-0.13
00:07:56.124:1,0.085,-0.125
00:07:56.128:1,0.105,-0.15
00:07:56.132:1,0.095,-0.16
00:07:56.136:1,0.075,-0.165
00:07:56.140:1,0.03,-0.22
00:07:56.144:1,-0.01,-0.215
00:07:56.148:1,-0.065,-0.23
00:07:56.152:1,-0.11,-0.21
00:07:56.156:1,-0.185,-0.215
00:07:56.160:1,-0.24,-0.2
00:07:56.164:1,-0.275,-0.185
00:07:56.168:1,-0.3,-0.2
00:07:56.172:1,-0.32,-0.185
00:07:56.176:1,-0.315,-0.195
00:07:56.180:1,-0.325,-0.195
00:07:56.184:1,-0.34,-0.215
00:07:56.188:1,-0.33,-0.2
00:07:56.192:1,-0.31,-0.23
00:07:56.196:1,-0.325,-0.245
00:07:56.200:1,-0.31,-0.225
00:07:56.204:1,-0.29,-0.24
00:07:56.208:1,-0.29,-0.225
00:07:56.212:1,-0.285,-0.25
00:07:56.216:1,-0.305,-0.24
00:07:56.220:1,-0.28,-0.245
00:07:56.224:1,-0.3,-0.225
00:07:56.228:1,-0.265,-0.24
00:07:56.232:1,-0.29,-0.245
00:07:56.236:1,-0.27,-0.245
00:07:56.240:1,-0.26,-0.235
00:07:56.244:1,-0.26,-0.21
00:07:56.248:1,-0.275,-0.24
00:07:56.252:1,-0.27,-0.23
00:07:56.256:1,-0.265,-0.23
00:07:56.260:1,-0.255,-0.22
00:07:56.264:1,-0.24,-0.225
00:07:56.268:1,-0.225,-0.22
00:07:56.272:1,-0.245,-0.215
00:07:56.276:1,-0.21,-0.225
00:07:56.280:1,-0.155,-0.21
00:07:56.284:1,-0.115,-0.23
00:07:56.288:1,-0.015,-0.235
00:07:56.292:1,0.075,-0.235
00:07:56.296:1,0.145,-0.27
00:07:56.300:1,0.2,-0.3
00:07:56.304:1,0.215,-0.325
00:07:56.308:1,0.255,-0.315
00:07:56.312:1,0.235,-0.315
00:07:56.316:1,0.225,-0.355
00:07:56.320:1,0.285,-0.43
00:07:56.324:1,0.465,-0.58
00:07:56.328:1,0.8,-0.78
00:07:56.332:1,1.13,-1.035
00:07:56.336:1,1.345,-1.25
00:07:56.340:1,1.3,-1.36
00:07:56.344:1,0.955,-1.205
00:07:56.348:1,0.425,-0.86
00:07:56.352:1,0.035,-0.53
00:07:56.356:1,-0.15,-0.3
00:07:56.360:1,-0.235,-0.155
00:07:56.364:1,-0.31,-0.085
00:07:56.368:1,-0.315,-0.05
00:07:56.372:1,-0.32,-0.05
00:07:56.376:1,-0.37,-0.045
00:07:56.380:1,-0.39,-0.07
00:07:56.384:1,-0.395,-0.08
00:07:56.388:1,-0.42,-0.12
00:07:56.392:1,-0.435,-0.13
00:07:56.396:1,-0.45,-0.14
00:07:56.400:1,-0.455,-0.16
00:07:56.404:1,-0.465,-0.145
00:07:56.408:1,-0.455,-0.15
00:07:56.412:1,-0.455,-0.15
00:07:56.416:1,-0.46,-0.16
00:07:56.420:1,-0.46,-0.155
00:07:56.424:1,-0.465,-0.175
00:07:56.428:1,-0.465,-0.18
00:07:56.432:1,-0.48,-0.185
00:07:56.436:1,-0.495,-0.16
00:07:56.440:1,-0.505,-0.16
00:07:56.444:1,-0.5,-0.16
00:07:56.448:1,-0.505,-0.18
00:07:56.452:1,-0.525,-0.195
00:07:56.456:1,-0.54,-0.195
00:07:56.460:1,-0.515,-0.18
00:07:56.464:1,-0.52,-0.16
00:07:56.468:1,-0.515,-0.18
00:07:56.472:1,-0.52,-0.18
00:07:56.476:1,-0.53,-0.195
00:07:56.480:1,-0.525,-0.19
00:07:56.484:1,-0.54,-0.175
00:07:56.488:1,-0.535,-0.185
00:07:56.492:1,-0.535,-0.175
00:07:56.496:1,-0.535,-0.185
00:07:56.500:1,-0.535,-0.185
00:07:56.504:1,-0.535,-0.17
00:07:56.508:1,-0.535,-0.185
00:07:56.512:1,-0.545,-0.195
00:07:56.516:1,-0.545,-0.18
00:07:56.520:1,-0.535,-0.2
00:07:56.524:1,-0.51,-0.205
00:07:56.528:1,-0.52,-0.205
00:07:56.532:1,-0.505,-0.215
00:07:56.536:1,-0.48,-0.22
00:07:56.540:1,-0.475,-0.235
00:07:56.544:1,-0.47,-0.25
00:07:56.548:1,-0.445,-0.24
00:07:56.552:1,-0.46,-0.25
00:07:56.556:1,-0.46,-0.25
00:07:56.560:1,-0.43,-0.24
00:07:56.564:1,-0.41,-0.24
00:07:56.568:1,-0.38,-0.245
00:07:56.572:1,-0.36,-0.235
00:07:56.576:1,-0.38,-0.225
00:07:56.580:1,-0.365,-0.245
00:07:56.584:1,-0.355,-0.24
00:07:56.588:1,-0.36,-0.235
00:07:56.592:1,-0.335,-0.245
00:07:56.596:1,-0.32,-0.22
00:07:56.600:1,-0.31,-0.225
00:07:56.604:1,-0.34,-0.225
00:07:56.608:1,-0.33,-0.235
00:07:56.612:1,-0.32,-0.23
00:07:56.616:1,-0.345,-0.22
00:07:56.620:1,-0.33,-0.245
00:07:56.624:1,-0.315,-0.23
00:07:56.628:1,-0.305,-0.235
00:07:56.632:1,-0.32,-0.23
00:07:56.636:1,-0.335,-0.21
00:07:56.640:1,-0.315,-0.215
00:07:56.644:1,-0.32,-0.23
00:07:56.648:1,-0.335,-0.235
00:07:56.652:1,-0.335,-0.22
00:07:56.656:1,-0.33,-0.205
00:07:56.660:1,-0.335,-0.205
00:07:56.664:1,-0.325,-0.215
00:07:56.668:1,-0.33,-0.2
00:07:56.672:1,-0.31,-0.205
00:07:56.676:1,-0.31,-0.2
00:07:56.680:1,-0.31,-0.185
00:07:56.684:1,-0.305,-0.2
00:07:56.688:1,-0.32,-0.19
00:07:56.692:1,-0.32,-0.185
00:07:56.696:1,-0.32,-0.19
00:07:56.700:1,-0.32,-0.18
00:07:56.704:1,-0.32,-0.175
00:07:56.708:1,-0.315,-0.18
00:07:56.712:1,-0.32,-0.18
00:07:56.716:1,-0.28,-0.17
00:07:56.720:1,-0.295,-0.165
00:07:56.724:1,-0.295,-0.185
00:07:56.728:1,-0.285,-0.175
00:07:56.732:1,-0.305,-0.175
00:07:56.736:1,-0.29,-0.19
00:07:56.740:1,-0.28,-0.205
00:07:56.744:1,-0.24,-0.185
00:07:56.748:1,-0.195,-0.16
00:07:56.752:1,-0.145,-0.15
00:07:56.756:1,-0.135,-0.16
00:07:56.760:1,-0.11,-0.15
00:07:56.764:1,-0.095,-0.135
00:07:56.768:1,-0.075,-0.145
00:07:56.772:1,-0.06,-0.14
00:07:56.776:1,-0.07,-0.13
00:07:56.780:1,-0.055,-0.19
00:07:56.784:1,-0.105,-0.215
00:07:56.788:1,-0.135,-0.2
00:07:56.792:1,-0.155,-0.215
00:07:56.796:1,-0.225,-0.21
00:07:56.800:1,-0.285,-0.195
00:07:56.804:1,-0.32,-0.19
00:07:56.808:1,-0.37,-0.18
00:07:56.812:1,-0.38,-0.15
00:07:56.816:1,-0.415,-0.175
00:07:56.820:1,-0.42,-0.165
00:07:56.824:1,-0.415,-0.175
00:07:56.828:1,-0.43,-0.215
00:07:56.832:1,-0.425,-0.19
00:07:56.836:1,-0.425,-0.2
00:07:56.840:1,-0.42,-0.215
00:07:56.844:1,-0.435,-0.225
00:07:56.848:1,-0.41,-0.235
00:07:56.852:1,-0.415,-0.225
00:07:56.856:1,-0.395,-0.235
00:07:56.860:1,-0.425,-0.25
00:07:56.864:1,-0.39,-0.24
00:07:56.868:1,-0.395,-0.235
00:07:56.872:1,-0.395,-0.225
00:07:56.876:1,-0.395,-0.245
00:07:56.880:1,-0.375,-0.235
00:07:56.884:1,-0.395,-0.24
00:07:56.888:1,-0.395,-0.235
00:07:56.892:1,-0.37,-0.22
00:07:56.896:1,-0.345,-0.24
00:07:56.900:1,-0.37,-0.23
00:07:56.904:1,-0.35,-0.21
00:07:56.908:1,-0.35,-0.245
00:07:56.912:1,-0.355,-0.22
00:07:56.916:1,-0.355,-0.24
00:07:56.920:1,-0.35,-0.24
00:07:56.924:1,-0.31,-0.23
00:07:56.928:1,-0.275,-0.225
00:07:56.932:1,-0.195,-0.24
00:07:56.936:1,-0.095,-0.23
00:07:56.940:1,-0.01,-0.255
00:07:56.944:1,0.02,-0.26
00:07:56.948:1,0.05,-0.28
00:07:56.952:1,0.045,-0.295
00:07:56.956:1,0.035,-0.28
00:07:56.960:1,0.0,-0.265
00:07:56.964:1,-0.015,-0.32
00:07:56.968:1,0.09,-0.425
00:07:56.972:1,0.33,-0.575
00:07:56.976:1,0.67,-0.805
00:07:56.980:1,0.97,-1.055
00:07:56.984:1,1.125,-1.24
00:07:56.988:1,0.975,-1.28
00:07:56.992:1,0.595,-1.06
00:07:56.996:1,0.135,-0.69
00:07:57.000:1,-0.155,-0.35
00:07:57.004:1,-0.28,-0.155
00:07:57.008:1,-0.35,-0.075
00:07:57.012:1,-0.39,-0.005
00:07:57.016:1,-0.435,-0.015
00:07:57.020:1,-0.44,-0.02
00:07:57.024:1,-0.415,-0.04
00:07:57.028:1,-0.46,-0.035
00:07:57.032:1,-0.47,-0.06
00:07:57.036:1,-0.455,-0.095
00:07:57.040:1,-0.48,-0.1
00:07:57.044:1,-0.48,-0.12
00:07:57.048:1,-0.48,-0.115
00:07:57.052:1,-0.485,-0.11
00:07:57.056:1,-0.5,-0.12
00:07:57.060:1,-0.51,-0.125
00:07:57.064:1,-0.5,-0.11
00:07:57.068:1,-0.51,-0.115
00:07:57.072:1,-0.515,-0.13
00:07:57.076:1,-0.51,-0.125
00:07:57.080:1,-0.52,-0.135
00:07:57.084:1,-0.5,-0.135
00:07:57.088:1,-0.515,-0.14
00:07:57.092:1,-0.5,-0.13
00:07:57.096:1,-0.52,-0.155
00:07:57.100:1,-0.54,-0.14
00:07:57.104:1,-0.55,-0.135
00:07:57.108:1,-0.55,-0.13
00:07:57.112:1,-0.555,-0.12
00:07:57.116:1,-0.525,-0.14
00:07:57.120:1,-0.515,-0.13
00:07:57.124:1,-0.535,-0.125
00:07:57.128:1,-0.525,-0.13
00:07:57.132:1,-0.525,-0.115
00:07:57.136:1,-0.53,-0.125
00:07:57.140:1,-0.545,-0.11
00:07:57.144:1,-0.525,-0.12
00:07:57.148:1,-0.53,-0.13
00:07:57.152:1,-0.52,-0.12
00:07:57.156:1,-0.515,-0.14
00:07:57.160:1,-0.51,-0.135
00:07:57.164:1,-0.51,-0.155
00:07:57.168:1,-0.505,-0.135
00:07:57.172:1,-0.5,-0.135
00:07:57.176:1,-0.5,-0.125
00:07:57.180:1,-0.48,-0.155
00:07:57.184:1,-0.47,-0.15
00:07:57.188:1,-0.45,-0.145
00:07:57.192:1,-0.435,-0.165
00:07:57.196:1,-0.445,-0.15
00:07:57.200:1,-0.435,-0.16
00:07:57.204:1,-0.43,-0.2
00:07:57.208:1,-0.41,-0.155
00:07:57.212:1,-0.395,-0.16
00:07:57.216:1,-0.39,-0.185
00:07:57.220:1,-0.375,-0.185
00:07:57.224:1,-0.34,-0.17
00:07:57.228:1,-0.34,-0.16
00:07:57.232:1,-0.34,-0.15
00:07:57.236:1,-0.335,-0.165
00:07:57.240:1,-0.32,-0.16
00:07:57.244:1,-0.3,-0.16
00:07:57.248:1,-0.295,-0.145
00:07:57.252:1,-0.315,-0.145
00:07:57.256:1,-0.33,-0.15
00:07:57.260:1,-0.3,-0.15
00:07:57.264:1,-0.275,-0.135
00:07:57.268:1,-0.285,-0.135
00:07:57.272:1,-0.295,-0.135
00:07:57.276:1,-0.3,-0.145
00:07:57.280:1,-0.28,-0.145
00:07:57.284:1,-0.29,-0.15
00:07:57.288:1,-0.31,-0.15
00:07:57.292:1,-0.295,-0.13
00:07:57.296:1,-0.29,-0.125
00:07:57.300:1,-0.31,-0.145
00:07:57.304:1,-0.3,-0.15
00:07:57.308:1,-0.295,-0.155
00:07:57.312:1,-0.3,-0.135
00:07:57.316:1,-0.3,-0.14
00:07:57.320:1,-0.31,-0.135
00:07:57.324:1,-0.32,-0.13
00:07:57.328:1,-0.33,-0.115
00:07:57.332:1,-0.295,-0.125
00:07:57.336:1,-0.3,-0.135
00:07:57.340:1,-0.295,-0.11
00:07:57.344:1,-0.305,-0.11
00:07:57.348:1,-0.29,-0.085
00:07:57.352:1,-0.3,-0.1
00:07:57.356:1,-0.3,-0.105
00:07:57.360:1,-0.27,-0.105
00:07:57.364:1,-0.255,-0.09
00:07:57.368:1,-0.24,-0.095
00:07:57.372:1,-0.255,-0.11
00:07:57.376:1,-0.23,-0.11
00:07:57.380:1,-0.23,-0.125
00:07:57.384:1,-0.225,-0.125
00:07:57.388:1,-0.255,-0.11
00:07:57.392:1,-0.23,-0.105
00:07:57.396:1,-0.215,-0.11
00:07:57.400:1,-0.18,-0.105
00:07:57.404:1,-0.125,-0.095
00:07:57.408:1,-0.115,-0.105
00:07:57.412:1,-0.1,-0.085
00:07:57.416:1,-0.055,-0.075
00:07:57.420:1,-0.05,-0.085
00:07:57.424:1,-0.03,-0.1
00:07:57.428:1,-0.03,-0.08
00:07:57.432:1,-0.05,-0.14
00:07:57.436:1,-0.09,-0.155
00:07:57.440:1,-0.12,-0.16
00:07:57.444:1,-0.175,-0.17
00:07:57.448:1,-0.22,-0.185
00:07:57.452:1,-0.275,-0.175
00:07:57.456:1,-0.325,-0.17
00:07:57.460:1,-0.35,-0.16
00:07:57.464:1,-0.41,-0.155
00:07:57.468:1,-0.41,-0.145
00:07:57.472:1,-0.42,-0.135
00:07:57.476:1,-0.41,-0.135
00:07:57.480:1,-0.425,-0.155
00:07:57.484:1,-0.415,-0.16
00:07:57.488:1,-0.43,-0.17
00:07:57.492:1,-0.44,-0.19
00:07:57.496:1,-0.43,-0.21
00:07:57.500:1,-0.445,-0.18
00:07:57.504:1,-0.44,-0.17
00:07:57.508:1,-0.42,-0.17
00:07:57.512:1,-0.4,-0.2
00:07:57.516:1,-0.39,-0.185
00:07:57.520:1,-0.395,-0.215
00:07:57.524:1,-0.4,-0.21
00:07:57.528:1,-0.4,-0.215
00:07:57.532:1,-0.425,-0.225
00:07:57.536:1,-0.425,-0.21
00:07:57.540:1,-0.41,-0.215
00:07:57.544:1,-0.41,-0.22
00:07:57.548:1,-0.41,-0.215
00:07:57.552:1,-0.39,-0.225
00:07:57.556:1,-0.385,-0.215
00:07:57.560:1,-0.365,-0.21
00:07:57.564:1,-0.36,-0.225
00:07:57.568:1,-0.37,-0.21
00:07:57.572:1,-0.345,-0.21
00:07:57.576:1,-0.305,-0.205
00:07:57.580:1,-0.235,-0.195
00:07:57.584:1,-0.17,-0.21
00:07:57.588:1,-0.055,-0.205
00:07:57.592:1,0.01,-0.215
00:07:57.596:1,0.035,-0.255
00:07:57.600:1,0.09,-0.27
00:07:57.604:1,0.115,-0.265
00:07:57.608:1,0.085,-0.22
00:07:57.612:1,0.03,-0.24
00:07:57.616:1,0.04,-0.29
00:07:57.620:1,0.185,-0.395
00:07:57.624:1,0.48,-0.56
00:07:57.628:1,0.835,-0.805
00:07:57.632:1,1.08,-1.045
00:07:57.636:1,1.11,-1.2
00:07:57.640:1,0.84,-1.17
00:07:57.644:1,0.385,-0.9
00:07:57.648:1,0.0,-0.515
00:07:57.652:1,-0.19,-0.275
00:07:57.656:1,-0.29,-0.115
00:07:57.660:1,-0.34,-0.05
00:07:57.664:1,-0.355,-0.025
00:07:57.668:1,-0.405,-0.04
00:07:57.672:1,-0.44,-0.04
00:07:57.676:1,-0.475,-0.04
00:07:57.680:1,-0.49,-0.06
00:07:57.684:1,-0.48,-0.1
00:07:57.688:1,-0.47,-0.13
00:07:57.692:1,-0.48,-0.16
00:07:57.696:1,-0.5,-0.155
00:07:57.700:1,-0.51,-0.165
00:07:57.704:1,-0.53,-0.19
00:07:57.708:1,-0.52,-0.19
00:07:57.712:1,-0.525,-0.18
00:07:57.716:1,-0.525,-0.17
00:07:57.720:1,-0.525,-0.175
00:07:57.724:1,-0.51,-0.175
00:07:57.728:1,-0.535,-0.165
00:07:57.732:1,-0.525,-0.19
00:07:57.736:1,-0.535,-0.185
00:07:57.740:1,-0.515,-0.19
00:07:57.744:1,-0.525,-0.205
00:07:57.748:1,-0.51,-0.185
00:07:57.752:1,-0.54,-0.19
00:07:57.756:1,-0.54,-0.2
00:07:57.760:1,-0.55,-0.18
00:07:57.764:1,-0.54,-0.19
00:07:57.768:1,-0.525,-0.19
00:07:57.772:1,-0.535,-0.175
00:07:57.776:1,-0.535,-0.175
00:07:57.780:1,-0.505,-0.17
00:07:57.784:1,-0.525,-0.2
00:07:57.788:1,-0.515,-0.155
00:07:57.792:1,-0.5,-0.185
00:07:57.796:1,-0.515,-0.185
00:07:57.800:1,-0.515,-0.17
00:07:57.804:1,-0.51,-0.18
00:07:57.808:1,-0.47,-0.18
00:07:57.812:1,-0.495,-0.17
00:07:57.816:1,-0.515,-0.175
00:07:57.820:1,-0.49,-0.2
00:07:57.824:1,-0.49,-0.175
00:07:57.828:1,-0.475,-0.18
00:07:57.832:1,-0.47,-0.205
00:07:57.836:1,-0.445,-0.21
00:07:57.840:1,-0.44,-0.225
00:07:57.844:1,-0.445,-0.22
00:07:57.848:1,-0.425,-0.205
00:07:57.852:1,-0.4,-0.21
00:07:57.856:1,-0.41,-0.22
00:07:57.860:1,-0.405,-0.22
00:07:57.864:1,-0.4,-0.215
00:07:57.868:1,-0.37,-0.225
00:07:57.872:1,-0.36,-0.22
00:07:57.876:1,-0.345,-0.2
00:07:57.880:1,-0.325,-0.215
00:07:57.884:1,-0.32,-0.225
00:07:57.888:1,-0.32,-0.2
00:07:57.892:1,-0.3,-0.205
00:07:57.896:1,-0.28,-0.22
00:07:57.900:1,-0.285,-0.19
00:07:57.904:1,-0.28,-0.205
00:07:57.908:1,-0.28,-0.205
00:07:57.912:1,-0.29,-0.215
00:07:57.916:1,-0.27,-0.205
00:07:57.920:1,-0.26,-0.205
00:07:57.924:1,-0.265,-0.2
00:07:57.928:1,-0.265,-0.2
00:07:57.932:1,-0.295,-0.17
00:07:57.936:1,-0.295,-0.195
00:07:57.940:1,-0.275,-0.19
00:07:57.944:1,-0.29,-0.16
00:07:57.948:1,-0.28,-0.19
00:07:57.952:1,-0.27,-0.195
00:07:57.956:1,-0.24,-0.195
00:07:57.960:1,-0.27,-0.185
00:07:57.964:1,-0.265,-0.19
00:07:57.968:1,-0.26,-0.19
00:07:57.972:1,-0.28,-0.18
00:07:57.976:1,-0.28,-0.175
00:07:57.980:1,-0.295,-0.19
00:07:57.984:1,-0.28,-0.16
00:07:57.988:1,-0.27,-0.16
00:07:57.992:1,-0.27,-0.15
00:07:57.996:1,-0.26,-0.18
00:07:58.000:1,-0.25,-0.175
00:07:58.004:1,-0.25,-0.15
00:07:58.008:1,-0.26,-0.16
00:07:58.012:1,-0.255,-0.15
00:07:58.016:1,-0.235,-0.16
00:07:58.020:1,-0.23,-0.155
00:07:58.024:1,-0.245,-0.15
00:07:58.028:1,-0.23,-0.17
00:07:58.032:1,-0.24,-0.155
00:07:58.036:1,-0.225,-0.165
00:07:58.040:1,-0.21,-0.16
00:07:58.044:1,-0.21,-0.19
00:07:58.048:1,-0.205,-0.16
00:07:58.052:1,-0.215,-0.175
00:07:58.056:1,-0.17,-0.155
00:07:58.060:1,-0.17,-0.16
00:07:58.064:1,-0.125,-0.15
00:07:58.068:1,-0.075,-0.15
00:07:58.072:1,-0.03,-0.145
00:07:58.076:1,-0.02,-0.13
00:07:58.080:1,0.01,-0.13
00:07:58.084:1,0.04,-0.095
00:07:58.088:1,0.055,-0.1
00:07:58.092:1,0.075,-0.09
00:07:58.096:1,0.075,-0.12
00:07:58.100:1,0.05,-0.125
00:07:58.104:1,0.02,-0.16
00:07:58.108:1,-0.035,-0.16
00:07:58.112:1,-0.08,-0.17
00:07:58.116:1,-0.125,-0.18
00:07:58.120:1,-0.19,-0.175
00:07:58.124:1,-0.23,-0.175
00:07:58.128:1,-0.28,-0.175
00:07:58.132:1,-0.31,-0.155
00:07:58.136:1,-0.3,-0.14
00:07:58.140:1,-0.32,-0.16
00:07:58.144:1,-0.33,-0.16
00:07:58.148:1,-0.31,-0.165
00:07:58.152:1,-0.32,-0.17
00:07:58.156:1,-0.335,-0.175
00:07:58.160:1,-0.32,-0.185
00:07:58.164:1,-0.32,-0.2
00:07:58.168:1,-0.31,-0.2
00:07:58.172:1,-0.3,-0.205
00:07:58.176:1,-0.295,-0.21
00:07:58.180:1,-0.315,-0.2
00:07:58.184:1,-0.31,-0.21
00:07:58.188:1,-0.305,-0.225
00:07:58.192:1,-0.29,-0.21
00:07:58.196:1,-0.285,-0.19
00:07:58.200:1,-0.285,-0.19
00:07:58.204:1,-0.285,-0.2
00:07:58.208:1,-0.29,-0.21
00:07:58.212:1,-0.28,-0.2
00:07:58.216:1,-0.27,-0.18
00:07:58.220:1,-0.28,-0.185
00:07:58.224:1,-0.28,-0.18
00:07:58.228:1,-0.28,-0.18
00:07:58.232:1,-0.255,-0.185
00:07:58.236:1,-0.25,-0.155
00:07:58.240:1,-0.215,-0.17
00:07:58.244:1,-0.155,-0.165
00:07:58.248:1,-0.09,-0.185
00:07:58.252:1,0.005,-0.18
00:07:58.256:1,0.095,-0.18
00:07:58.260:1,0.145,-0.21
00:07:58.264:1,0.19,-0.245
00:07:58.268:1,0.235,-0.26
00:07:58.272:1,0.24,-0.24
00:07:58.276:1,0.24,-0.245
00:07:58.280:1,0.21,-0.285
00:07:58.284:1,0.3,-0.365
00:07:58.288:1,0.545,-0.515
00:07:58.292:1,0.865,-0.735
00:07:58.296:1,1.185,-0.97
00:07:58.300:1,1.305,-1.16
00:07:58.304:1,1.13,-1.195
00:07:58.308:1,0.69,-0.98
00:07:58.312:1,0.235,-0.64
00:07:58.316:1,-0.06,-0.36
00:07:58.320:1,-0.195,-0.17
00:07:58.324:1,-0.24,-0.07
00:07:58.328:1,-0.3,-0.02
00:07:58.332:1,-0.325,-0.01
00:07:58.336:1,-0.355,-0.01
00:07:58.340:1,-0.37,-0.02
00:07:58.344:1,-0.4,-0.03
00:07:58.348:1,-0.415,-0.05
00:07:58.352:1,-0.425,-0.065
00:07:58.356:1,-0.42,-0.045
00:07:58.360:1,-0.425,-0.1
00:07:58.364:1,-0.455,-0.1
00:07:58.368:1,-0.45,-0.08
00:07:58.372:1,-0.46,-0.105
00:07:58.376:1,-0.465,-0.095
00:07:58.380:1,-0.465,-0.1
00:07:58.384:1,-0.465,-0.12
00:07:58.388:1,-0.47,-0.11
00:07:58.392:1,-0.46,-0.12
00:07:58.396:1,-0.48,-0.115
00:07:58.400:1,-0.465,-0.105
00:07:58.404:1,-0.475,-0.13
00:07:58.408:1,-0.48,-0.125
00:07:58.412:1,-0.485,-0.125
00:07:58.416:1,-0.505,-0.12
00:07:58.420:1,-0.49,-0.125
00:07:58.424:1,-0.515,-0.125
00:07:58.428:1,-0.505,-0.13
00:07:58.432:1,-0.48,-0.135
00:07:58.436:1,-0.5,-0.145
00:07:58.440:1,-0.495,-0.135
00:07:58.444:1,-0.505,-0.125
00:07:58.448:1,-0.5,-0.14
00:07:58.452:1,-0.5,-0.12
00:07:58.456:1,-0.52,-0.125
00:07:58.460:1,-0.51,-0.135
00:07:58.464:1,-0.51,-0.125
00:07:58.468:1,-0.495,-0.12
00:07:58.472:1,-0.52,-0.13
00:07:58.476:1,-0.515,-0.14
00:07:58.480:1,-0.495,-0.13
00:07:58.484:1,-0.505,-0.14
00:07:58.488:1,-0.49,-0.16
00:07:58.492:1,-0.46,-0.145
00:07:58.496:1,-0.475,-0.145
00:07:58.500:1,-0.445,-0.165
00:07:58.504:1,-0.445,-0.165
00:07:58.508:1,-0.445,-0.185
00:07:58.512:1,-0.415,-0.165
00:07:58.516:1,-0.41,-0.2
00:07:58.520:1,-0.4,-0.185
00:07:58.524:1,-0.395,-0.185
00:07:58.528:1,-0.38,-0.195
00:07:58.532:1,-0.36,-0.19
00:07:58.536:1,-0.335,-0.195
00:07:58.540:1,-0.32,-0.21
00:07:58.544:1,-0.32,-0.205
00:07:58.548:1,-0.335,-0.205
00:07:58.552:1,-0.295,-0.2
00:07:58.556:1,-0.285,-0.185
00:07:58.560:1,-0.29,-0.17
00:07:58.564:1,-0.275,-0.19
00:07:58.568:1,-0.28,-0.195
00:07:58.572:1,-0.265,-0.195
00:07:58.576:1,-0.285,-0.19
00:07:58.580:1,-0.285,-0.175
00:07:58.584:1,-0.275,-0.165
00:07:58.588:1,-0.3,-0.155
00:07:58.592:1,-0.285,-0.18
00:07:58.596:1,-0.285,-0.175
00:07:58.600:1,-0.275,-0.14
00:07:58.604:1,-0.27,-0.175
00:07:58.608:1,-0.27,-0.165
00:07:58.612:1,-0.28,-0.165
00:07:58.616:1,-0.28,-0.175
00:07:58.620:1,-0.29,-0.145
00:07:58.624:1,-0.27,-0.16
00:07:58.628:1,-0.275,-0.15
00:07:58.632:1,-0.28,-0.15
00:07:58.636:1,-0.285,-0.135
00:07:58.640:1,-0.29,-0.14
00:07:58.644:1,-0.26,-0.13
00:07:58.648:1,-0.275,-0.13
00:07:58.652:1,-0.29,-0.115
00:07:58.656:1,-0.28,-0.13
00:07:58.660:1,-0.28,-0.125
00:07:58.664:1,-0.3,-0.1
00:07:58.668:1,-0.28,-0.12
00:07:58.672:1,-0.285,-0.105
00:07:58.676:1,-0.275,-0.115
00:07:58.680:1,-0.245,-0.13
00:07:58.684:1,-0.245,-0.095
00:07:58.688:1,-0.24,-0.105
00:07:58.692:1,-0.245,-0.125
00:07:58.696:1,-0.235,-0.105
00:07:58.700:1,-0.225,-0.12
00:07:58.704:1,-0.21,-0.105
00:07:58.708:1,-0.175,-0.07
00:07:58.712:1,-0.145,-0.095
00:07:58.716:1,-0.11,-0.085
00:07:58.720:1,-0.07,-0.07
00:07:58.724:1,-0.065,-0.06
00:07:58.728:1,-0.04,-0.065
00:07:58.732:1,-0.015,-0.065
00:07:58.736:1,0.0,-0.05
00:07:58.740:1,0.005,-0.09
00:07:58.744:1,0.0,-0.11
00:07:58.748:1,-0.04,-0.135
00:07:58.752:1,-0.08,-0.155
00:07:58.756:1,-0.155,-0.15
00:07:58.760:1,-0.195,-0.145
00:07:58.764:1,-0.255,-0.145
00:07:58.768:1,-0.295,-0.13
00:07:58.772:1,-0.325,-0.115
00:07:58.776:1,-0.37,-0.105
00:07:58.780:1,-0.38,-0.095
00:07:58.784:1,-0.385,-0.08
00:07:58.788:1,-0.37,-0.1
00:07:58.792:1,-0.385,-0.12
00:07:58.796:1,-0.375,-0.145
00:07:58.800:1,-0.37,-0.105
00:07:58.804:1,-0.385,-0.155
00:07:58.808:1,-0.365,-0.13
00:07:58.812:1,-0.38,-0.13
00:07:58.816:1,-0.36,-0.145
00:07:58.820:1,-0.36,-0.14
00:07:58.824:1,-0.335,-0.17
00:07:58.828:1,-0.355,-0.155
00:07:58.832:1,-0.35,-0.145
00:07:58.836:1,-0.36,-0.135
00:07:58.840:1,-0.335,-0.145
00:07:58.844:1,-0.355,-0.15
00:07:58.848:1,-0.34,-0.14
00:07:58.852:1,-0.355,-0.135
00:07:58.856:1,-0.34,-0.155
00:07:58.860:1,-0.345,-0.145
00:07:58.864:1,-0.305,-0.14
00:07:58.868:1,-0.315,-0.135
00:07:58.872:1,-0.32,-0.15
00:07:58.876:1,-0.32,-0.12
00:07:58.880:1,-0.285,-0.145
00:07:58.884:1,-0.265,-0.125
00:07:58.888:1,-0.21,-0.14
00:07:58.892:1,-0.13,-0.135
00:07:58.896:1,-0.05,-0.135
00:07:58.900:1,0.02,-0.15
00:07:58.904:1,0.065,-0.185
00:07:58.908:1,0.085,-0.215
00:07:58.912:1,0.085,-0.22
00:07:58.916:1,0.065,-0.205
00:07:58.920:1,0.05,-0.205
00:07:58.924:1,0.015,-0.245
00:07:58.928:1,0.145,-0.355
00:07:58.932:1,0.41,-0.495
00:07:58.936:1,0.765,-0.735
00:07:58.940:1,1.06,-0.99
00:07:58.944:1,1.18,-1.155
00:07:58.948:1,1.02,-1.17
00:07:58.952:1,0.6,-0.935
00:07:58.956:1,0.155,-0.585
00:07:58.960:1,-0.11,-0.275
00:07:58.964:1,-0.24,-0.095
00:07:58.968:1,-0.31,0.025
00:07:58.972:1,-0.345,0.05
00:07:58.976:1,-0.385,0.045
00:07:58.980:1,-0.37,0.055
00:07:58.984:1,-0.39,0.045
00:07:58.988:1,-0.41,0.02
00:07:58.992:1,-0.425,0.0
00:07:58.996:1,-0.435,-0.03
00:07:59.000:1,-0.43,-0.035
00:07:59.004:1,-0.44,-0.065
00:07:59.008:1,-0.45,-0.06
00:07:59.012:1,-0.455,-0.065
00:07:59.016:1,-0.46,-0.07
00:07:59.020:1,-0.46,-0.05
00:07:59.024:1,-0.455,-0.05
00:07:59.028:1,-0.46,-0.06
00:07:59.032:1,-0.46,-0.075
00:07:59.036:1,-0.465,-0.085
00:07:59.040:1,-0.47,-0.075
00:07:59.044:1,-0.46,-0.05
00:07:59.048:1,-0.47,-0.06
00:07:59.052:1,-0.465,-0.095
00:07:59.056:1,-0.48,-0.08
00:07:59.060:1,-0.5,-0.07
00:07:59.064:1,-0.495,-0.06
00:07:59.068:1,-0.49,-0.055
00:07:59.072:1,-0.495,-0.06
00:07:59.076:1,-0.495,-0.05
00:07:59.080:1,-0.495,-0.05
00:07:59.084:1,-0.49,-0.065
00:07:59.088:1,-0.505,-0.06
00:07:59.092:1,-0.48,-0.06
00:07:59.096:1,-0.47,-0.045
00:07:59.100:1,-0.505,-0.055
00:07:59.104:1,-0.495,-0.045
00:07:59.108:1,-0.48,-0.075
00:07:59.112:1,-0.45,-0.045
00:07:59.116:1,-0.47,-0.075
00:07:59.120:1,-0.455,-0.085
00:07:59.124:1,-0.46,-0.075
00:07:59.128:1,-0.455,-0.09
00:07:59.132:1,-0.435,-0.07
00:07:59.136:1,-0.45,-0.07
00:07:59.140:1,-0.44,-0.085
00:07:59.144:1,-0.415,-0.095
00:07:59.148:1,-0.4,-0.1
00:07:59.152:1,-0.395,-0.09
00:07:59.156:1,-0.39,-0.11
00:07:59.160:1,-0.37,-0.095
00:07:59.164:1,-0.34,-0.11
00:07:59.168:1,-0.365,-0.11
00:07:59.172:1,-0.32,-0.115
00:07:59.176:1,-0.315,-0.135
00:07:59.180:1,-0.305,-0.12
00:07:59.184:1,-0.27,-0.11
00:07:59.188:1,-0.25,-0.115
00:07:59.192:1,-0.265,-0.1
00:07:59.196:1,-0.25,-0.105
00:07:59.200:1,-0.225,-0.1
00:07:59.204:1,-0.245,-0.1
00:07:59.208:1,-0.245,-0.09
00:07:59.212:1,-0.225,-0.1
00:07:59.216:1,-0.23,-0.07
00:07:59.220:1,-0.23,-0.09
00:07:59.224:1,-0.21,-0.085
00:07:59.228:1,-0.235,-0.095
00:07:59.232:1,-0.22,-0.075
00:07:59.236:1,-0.205,-0.07
00:07:59.240:1,-0.225,-0.09
00:07:59.244:1,-0.225,-0.06
00:07:59.248:1,-0.215,-0.095
00:07:59.252:1,-0.225,-0.08
00:07:59.256:1,-0.23,-0.095
00:07:59.260:1,-0.235,-0.095
00:07:59.264:1,-0.21,-0.08
00:07:59.268:1,-0.22,-0.07
00:07:59.272:1,-0.21,-0.08
00:07:59.276:1,-0.23,-0.07
00:07:59.280:1,-0.245,-0.08
00:07:59.284:1,-0.24,-0.075
00:07:59.288:1,-0.235,-0.075
00:07:59.292:1,-0.22,-0.06
00:07:59.296:1,-0.215,-0.065
00:07:59.300:1,-0.2,-0.06
00:07:59.304:1,-0.205,-0.065
00:07:59.308:1,-0.22,-0.06
00:07:59.312:1,-0.235,-0.05
00:07:59.316:1,-0.205,-0.075
00:07:59.320:1,-0.22,-0.06
00:07:59.324:1,-0.195,-0.075
00:07:59.328:1,-0.18,-0.065
00:07:59.332:1,-0.165,-0.065
00:07:59.336:1,-0.18,-0.07
00:07:59.340:1,-0.185,-0.08
00:07:59.344:1,-0.16,-0.06
00:07:59.348:1,-0.155,-0.065
00:07:59.352:1,-0.115,-0.075
00:07:59.356:1,-0.07,-0.065
00:07:59.360:1,-0.04,-0.045
00:07:59.364:1,-0.02,-0.04
00:07:59.368:1,-0.01,-0.045
00:07:59.372:1,0.0,-0.02
00:07:59.376:1,0.05,-0.03
00:07:59.380:1,0.055,-0.05
00:07:59.384:1,0.035,-0.07
00:07:59.388:1,0.015,-0.07
00:07:59.392:1,-0.03,-0.105
00:07:59.396:1,-0.075,-0.135
00:07:59.400:1,-0.12,-0.11
00:07:59.404:1,-0.155,-0.11
00:07:59.408:1,-0.2,-0.12
00:07:59.412:1,-0.26,-0.125
00:07:59.416:1,-0.31,-0.1
00:07:59.420:1,-0.325,-0.11
00:07:59.424:1,-0.345,-0.125
00:07:59.428:1,-0.345,-0.095
00:07:59.432:1,-0.325,-0.095
00:07:59.436:1,-0.33,-0.12
00:07:59.440:1,-0.345,-0.12
00:07:59.444:1,-0.32,-0.135
00:07:59.448:1,-0.335,-0.13
00:07:59.452:1,-0.355,-0.14
00:07:59.456:1,-0.34,-0.145
00:07:59.460:1,-0.32,-0.14
00:07:59.464:1,-0.335,-0.155
00:07:59.468:1,-0.335,-0.16
00:07:59.472:1,-0.315,-0.155
00:07:59.476:1,-0.32,-0.175
00:07:59.480:1,-0.325,-0.16
00:07:59.484:1,-0.32,-0.175
00:07:59.488:1,-0.315,-0.175
00:07:59.492:1,-0.315,-0.18
00:07:59.496:1,-0.32,-0.175
00:07:59.500:1,-0.305,-0.18
00:07:59.504:1,-0.31,-0.18
00:07:59.508:1,-0.275,-0.2
00:07:59.512:1,-0.275,-0.18
00:07:59.516:1,-0.27,-0.185
00:07:59.520:1,-0.255,-0.165
00:07:59.524:1,-0.25,-0.195
00:07:59.528:1,-0.21,-0.2
00:07:59.532:1,-0.16,-0.18
00:07:59.536:1,-0.065,-0.17
00:07:59.540:1,0.005,-0.185
00:07:59.544:1,0.1,-0.19
00:07:59.548:1,0.165,-0.22
00:07:59.552:1,0.22,-0.255
00:07:59.556:1,0.235,-0.225
00:07:59.560:1,0.21,-0.215
00:07:59.564:1,0.155,-0.215
00:07:59.568:1,0.19,-0.26
00:07:59.572:1,0.335,-0.345
00:07:59.576:1,0.605,-0.53
00:07:59.580:1,0.93,-0.765
00:07:59.584:1,1.16,-1.04
00:07:59.588:1,1.18,-1.18
00:07:59.592:1,0.895,-1.125
00:07:59.596:1,0.43,-0.85
00:07:59.600:1,0.045,-0.49
00:07:59.604:1,-0.135,-0.26
00:07:59.608:1,-0.23,-0.135
00:07:59.612:1,-0.29,-0.055
00:07:59.616:1,-0.31,-0.02
00:07:59.620:1,-0.335,-0.03
00:07:59.624:1,-0.36,-0.015
00:07:59.628:1,-0.385,-0.055
00:07:59.632:1,-0.41,-0.055
00:07:59.636:1,-0.4,-0.08
00:07:59.640:1,-0.42,-0.09
00:07:59.644:1,-0.39,-0.095
00:07:59.648:1,-0.405,-0.115
00:07:59.652:1,-0.415,-0.13
00:07:59.656:1,-0.4,-0.13
00:07:59.660:1,-0.42,-0.12
00:07:59.664:1,-0.43,-0.125
00:07:59.668:1,-0.43,-0.125
00:07:59.672:1,-0.44,-0.12
00:07:59.676:1,-0.46,-0.145
00:07:59.680:1,-0.44,-0.125
00:07:59.684:1,-0.42,-0.16
00:07:59.688:1,-0.415,-0.15
00:07:59.692:1,-0.425,-0.14
00:07:59.696:1,-0.435,-0.16
00:07:59.700:1,-0.45,-0.155
00:07:59.704:1,-0.445,-0.14
00:07:59.708:1,-0.445,-0.13
00:07:59.712:1,-0.47,-0.135
00:07:59.716:1,-0.46,-0.15
00:07:59.720:1,-0.455,-0.155
00:07:59.724:1,-0.445,-0.16
00:07:59.728:1,-0.45,-0.145
00:07:59.732:1,-0.435,-0.145
00:07:59.736:1,-0.435,-0.16
00:07:59.740:1,-0.44,-0.145
00:07:59.744:1,-0.44,-0.14
00:07:59.748:1,-0.43,-0.14
00:07:59.752:1,-0.41,-0.14
00:07:59.756:1,-0.42,-0.11
00:07:59.760:1,-0.4,-0.14
00:07:59.764:1,-0.41,-0.12
00:07:59.768:1,-0.39,-0.12
00:07:59.772:1,-0.37,-0.12
00:07:59.776:1,-0.39,-0.13
00:07:59.780:1,-0.375,-0.13
00:07:59.784:1,-0.365,-0.12
00:07:59.788:1,-0.37,-0.135
00:07:59.792:1,-0.33,-0.12
00:07:59.796:1,-0.35,-0.14
00:07:59.800:1,-0.33,-0.14
00:07:59.804:1,-0.315,-0.16
00:07:59.808:1,-0.28,-0.14
00:07:59.812:1,-0.28,-0.14
00:07:59.816:1,-0.26,-0.14
00:07:59.820:1,-0.23,-0.135
00:07:59.824:1,-0.235,-0.145
00:07:59.828:1,-0.24,-0.15
00:07:59.832:1,-0.23,-0.14
00:07:59.836:1,-0.205,-0.145
00:07:59.840:1,-0.2,-0.13
00:07:59.844:1,-0.2,-0.115
00:07:59.848:1,-0.2,-0.105
00:07:59.852:1,-0.18,-0.1
00:07:59.856:1,-0.165,-0.09
00:07:59.860:1,-0.165,-0.12
00:07:59.864:1,-0.16,-0.11
00:07:59.868:1,-0.165,-0.105
00:07:59.872:1,-0.17,-0.12
00:07:59.876:1,-0.18,-0.125
00:07:59.880:1,-0.155,-0.115
00:07:59.884:1,-0.17,-0.12
00:07:59.888:1,-0.185,-0.11
00:07:59.892:1,-0.185,-0.105
00:07:59.896:1,-0.2,-0.105
00:07:59.900:1,-0.185,-0.105
00:07:59.904:1,-0.19,-0.11
00:07:59.908:1,-0.185,-0.11
00:07:59.912:1,-0.185,-0.105
00:07:59.916:1,-0.185,-0.1
00:07:59.920:1,-0.18,-0.105
00:07:59.924:1,-0.21,-0.09
00:07:59.928:1,-0.2,-0.115
00:07:59.932:1,-0.19,-0.105
00:07:59.936:1,-0.2,-0.1
00:07:59.940:1,-0.2,-0.12
00:07:59.944:1,-0.18,-0.09
00:07:59.948:1,-0.18,-0.1
00:07:59.952:1,-0.17,-0.09
00:07:59.956:1,-0.21,-0.1
00:07:59.960:1,-0.195,-0.09
00:07:59.964:1,-0.205,-0.08
00:07:59.968:1,-0.175,-0.075
00:07:59.972:1,-0.19,-0.095
00:07:59.976:1,-0.18,-0.095
00:07:59.980:1,-0.19,-0.095
00:07:59.984:1,-0.17,-0.1
00:07:59.988:1,-0.155,-0.09
00:07:59.992:1,-0.15,-0.1
00:07:59.996:1,-0.14,-0.115
00:08:00.000:1,-0.135,-0.11
00:08:00.004:1,-0.15,-0.105
00:08:00.008:1,-0.12,-0.09
00:08:00.012:1,-0.08,-0.07
00:08:00.016:1,-0.055,-0.09
00:08:00.020:1,-0.015,-0.08
00:08:00.024:1,-0.01,-0.05
00:08:00.028:1,0.03,-0.065
00:08:00.032:1,0.045,-0.055
00:08:00.036:1,0.07,-0.035
00:08:00.040:1,0.1,-0.055
00:08:00.044:1,0.105,-0.065
00:08:00.048:1,0.08,-0.09
00:08:00.052:1,0.045,-0.11
00:08:00.056:1,0.02,-0.1
00:08:00.060:1,-0.04,-0.11
00:08:00.064:1,-0.1,-0.125
00:08:00.068:1,-0.15,-0.13
00:08:00.072:1,-0.2,-0.115
00:08:00.076:1,-0.23,-0.12
00:08:00.080:1,-0.25,-0.1
00:08:00.084:1,-0.27,-0.095
00:08:00.088:1,-0.275,-0.11
00:08:00.092:1,-0.295,-0.125
00:08:00.096:1,-0.295,-0.13
00:08:00.100:1,-0.285,-0.135
00:08:00.104:1,-0.29,-0.15
00:08:00.108:1,-0.285,-0.135
00:08:00.112:1,-0.265,-0.145
00:08:00.116:1,-0.265,-0.135
00:08:00.120:1,-0.265,-0.15
00:08:00.124:1,-0.27,-0.15
00:08:00.128:1,-0.275,-0.17
00:08:00.132:1,-0.255,-0.145
00:08:00.136:1,-0.26,-0.17
00:08:00.140:1,-0.27,-0.17
00:08:00.144:1,-0.265,-0.15
00:08:00.148:1,-0.265,-0.17
00:08:00.152:1,-0.24,-0.145
00:08:00.156:1,-0.25,-0.165
00:08:00.160:1,-0.23,-0.16
00:08:00.164:1,-0.22,-0.155
00:08:00.168:1,-0.21,-0.17
00:08:00.172:1,-0.21,-0.145
00:08:00.176:1,-0.205,-0.14
00:08:00.180:1,-0.19,-0.16
00:08:00.184:1,-0.21,-0.17
00:08:00.188:1,-0.17,-0.14
00:08:00.192:1,-0.09,-0.175
00:08:00.196:1,-0.03,-0.175
00:08:00.200:1,0.075,-0.19
00:08:00.204:1,0.145,-0.18
00:08:00.208:1,0.175,-0.22
00:08:00.212:1,0.2,-0.245
00:08:00.216:1,0.23,-0.28
00:08:00.220:1,0.215,-0.23
00:08:00.224:1,0.15,-0.29
00:08:00.228:1,0.185,-0.34
00:08:00.232:1,0.37,-0.46
00:08:00.236:1,0.66,-0.64
00:08:00.240:1,1.0,-0.885
00:08:00.244:1,1.255,-1.125
00:08:00.248:1,1.255,-1.265
00:08:00.252:1,0.975,-1.195
00:08:00.256:1,0.51,-0.91
00:08:00.260:1,0.11,-0.545
00:08:00.264:1,-0.09,-0.27
00:08:00.268:1,-0.2,-0.12
00:08:00.272:1,-0.255,-0.02
00:08:00.276:1,-0.275,-0.01
00:08:00.280:1,-0.315,-0.02
00:08:00.284:1,-0.32,-0.015
00:08:00.288:1,-0.34,-0.03
00:08:00.292:1,-0.33,-0.035
00:08:00.296:1,-0.345,-0.08
00:08:00.300:1,-0.355,-0.08
00:08:00.304:1,-0.355,-0.085
00:08:00.308:1,-0.355,-0.1
00:08:00.312:1,-0.38,-0.115
00:08:00.316:1,-0.375,-0.11
00:08:00.320:1,-0.38,-0.1
00:08:00.324:1,-0.39,-0.12
00:08:00.328:1,-0.385,-0.1
00:08:00.332:1,-0.39,-0.105
00:08:00.336:1,-0.39,-0.135
00:08:00.340:1,-0.4,-0.13
00:08:00.344:1,-0.395,-0.105
00:08:00.348:1,-0.38,-0.115
00:08:00.352:1,-0.405,-0.14
00:08:00.356:1,-0.41,-0.125
00:08:00.360:1,-0.415,-0.125
00:08:00.364:1,-0.425,-0.135
00:08:00.368:1,-0.43,-0.13
00:08:00.372:1,-0.43,-0.14
00:08:00.376:1,-0.41,-0.13
00:08:00.380:1,-0.425,-0.12
00:08:00.384:1,-0.435,-0.13
00:08:00.388:1,-0.435,-0.14
00:08:00.392:1,-0.44,-0.13
00:08:00.396:1,-0.45,-0.13
00:08:00.400:1,-0.45,-0.13
00:08:00.404:1,-0.455,-0.12
00:08:00.408:1,-0.435,-0.12
00:08:00.412:1,-0.44,-0.135
00:08:00.416:1,-0.42,-0.12
00:08:00.420:1,-0.43,-0.13
00:08:00.424:1,-0.42,-0.115
00:08:00.428:1,-0.415,-0.12
00:08:00.432:1,-0.41,-0.145
00:08:00.436:1,-0.425,-0.135
00:08:00.440:1,-0.42,-0.135
00:08:00.444:1,-0.38,-0.15
00:08:00.448:1,-0.375,-0.16
00:08:00.452:1,-0.365,-0.155
00:08:00.456:1,-0.355,-0.175
00:08:00.460:1,-0.36,-0.17
00:08:00.464:1,-0.34,-0.18
00:08:00.468:1,-0.33,-0.165
00:08:00.472:1,-0.315,-0.175
00:08:00.476:1,-0.305,-0.195
00:08:00.480:1,-0.285,-0.195
00:08:00.484:1,-0.295,-0.21
00:08:00.488:1,-0.265,-0.185
00:08:00.492:1,-0.24,-0.195
00:08:00.496:1,-0.235,-0.2
00:08:00.500:1,-0.22,-0.2
00:08:00.504:1,-0.22,-0.19
00:08:00.508:1,-0.21,-0.205
00:08:00.512:1,-0.225,-0.205
00:08:00.516:1,-0.2,-0.185
00:08:00.520:1,-0.185,-0.205
00:08:00.524:1,-0.195,-0.185
00:08:00.528:1,-0.19,-0.19
00:08:00.532:1,-0.19,-0.2
00:08:00.536:1,-0.195,-0.18
00:08:00.540:1,-0.21,-0.2
00:08:00.544:1,-0.21,-0.185
00:08:00.548:1,-0.21,-0.18
00:08:00.552:1,-0.2,-0.17
00:08:00.556:1,-0.2,-0.19
00:08:00.560:1,-0.19,-0.16
00:08:00.564:1,-0.175,-0.175
00:08:00.568:1,-0.19,-0.155
00:08:00.572:1,-0.19,-0.17
00:08:00.576:1,-0.195,-0.16
00:08:00.580:1,-0.2,-0.18
00:08:00.584:1,-0.23,-0.15
00:08:00.588:1,-0.18,-0.17
00:08:00.592:1,-0.21,-0.17
00:08:00.596:1,-0.175,-0.15
00:08:00.600:1,-0.2,-0.17
00:08:00.604:1,-0.2,-0.13
00:08:00.608:1,-0.21,-0.13
00:08:00.612:1,-0.2,-0.15
00:08:00.616:1,-0.2,-0.135
00:08:00.620:1,-0.23,-0.14
00:08:00.624:1,-0.2,-0.155
00:08:00.628:1,-0.205,-0.13
00:08:00.632:1,-0.2,-0.13
00:08:00.636:1,-0.165,-0.145
00:08:00.640:1,-0.16,-0.16
00:08:00.644:1,-0.16,-0.155
00:08:00.648:1,-0.145,-0.155
00:08:00.652:1,-0.155,-0.155
00:08:00.656:1,-0.15,-0.13
00:08:00.660:1,-0.11,-0.125
00:08:00.664:1,-0.045,-0.095
00:08:00.668:1,-0.025,-0.115
00:08:00.672:1,0.0,-0.105
00:08:00.676:1,0.005,-0.115
00:08:00.680:1,0.02,-0.095
00:08:00.684:1,0.045,-0.11
00:08:00.688:1,0.055,-0.115
00:08:00.692:1,0.06,-0.12
00:08:00.696:1,0.045,-0.15
00:08:00.700:1,-0.01,-0.16
00:08:00.704:1,-0.04,-0.175
00:08:00.708:1,-0.075,-0.175
00:08:00.712:1,-0.15,-0.18
00:08:00.716:1,-0.19,-0.175
00:08:00.720:1,-0.24,-0.155
00:08:00.724:1,-0.295,-0.155
00:08:00.728:1,-0.325,-0.145
00:08:00.732:1,-0.3,-0.14
00:08:00.736:1,-0.33,-0.15
00:08:00.740:1,-0.32,-0.17
00:08:00.744:1,-0.34,-0.16
00:08:00.748:1,-0.33,-0.165
00:08:00.752:1,-0.325,-0.18
00:08:00.756:1,-0.32,-0.18
00:08:00.760:1,-0.325,-0.195
00:08:00.764:1,-0.32,-0.18
00:08:00.768:1,-0.31,-0.185
00:08:00.772:1,-0.3,-0.19
00:08:00.776:1,-0.3,-0.205
00:08:00.780:1,-0.3,-0.19
00:08:00.784:1,-0.29,-0.2
00:08:00.788:1,-0.3,-0.195
00:08:00.792:1,-0.305,-0.2
00:08:00.796:1,-0.31,-0.2
00:08:00.800:1,-0.305,-0.19
00:08:00.804:1,-0.305,-0.2
00:08:00.808:1,-0.28,-0.195
00:08:00.812:1,-0.28,-0.185
00:08:00.816:1,-0.285,-0.185
00:08:00.820:1,-0.26,-0.195
00:08:00.824:1,-0.255,-0.21
00:08:00.828:1,-0.255,-0.19
00:08:00.832:1,-0.235,-0.205
00:08:00.836:1,-0.195,-0.19
00:08:00.840:1,-0.145,-0.16
00:08:00.844:1,-0.065,-0.175
00:08:00.848:1,0.015,-0.21
00:08:00.852:1,0.085,-0.215
00:08:00.856:1,0.125,-0.235
00:08:00.860:1,0.155,-0.265
00:08:00.864:1,0.15,-0.255
00:08:00.868:1,0.105,-0.245
00:08:00.872:1,0.07,-0.3
00:08:00.876:1,0.08,-0.385
00:08:00.880:1,0.275,-0.465
00:08:00.884:1,0.59,-0.67
00:08:00.888:1,0.905,-0.92
00:08:00.892:1,1.16,-1.17
00:08:00.896:1,1.19,-1.295
00:08:00.900:1,0.915,-1.215
00:08:00.904:1,0.45,-0.915
00:08:00.908:1,0.05,-0.535
00:08:00.912:1,-0.165,-0.28
00:08:00.916:1,-0.275,-0.11
00:08:00.920:1,-0.31,-0.055
00:08:00.924:1,-0.33,-0.005
00:08:00.928:1,-0.35,-0.01
00:08:00.932:1,-0.36,-0.03
00:08:00.936:1,-0.37,-0.035
00:08:00.940:1,-0.39,-0.04
00:08:00.944:1,-0.4,-0.075
00:08:00.948:1,-0.39,-0.065
00:08:00.952:1,-0.41,-0.095
00:08:00.956:1,-0.41,-0.09
00:08:00.960:1,-0.39,-0.07
00:08:00.964:1,-0.42,-0.095
00:08:00.968:1,-0.425,-0.09
00:08:00.972:1,-0.42,-0.1
00:08:00.976:1,-0.425,-0.08
00:08:00.980:1,-0.43,-0.09
00:08:00.984:1,-0.43,-0.1
00:08:00.988:1,-0.43,-0.105
00:08:00.992:1,-0.43,-0.105
00:08:00.996:1,-0.44,-0.11
00:08:01.000:1,-0.445,-0.105
00:08:01.004:1,-0.43,-0.11
00:08:01.008:1,-0.44,-0.095
00:08:01.012:1,-0.415,-0.115
00:08:01.016:1,-0.47,-0.095
00:08:01.020:1,-0.47,-0.115
00:08:01.024:1,-0.46,-0.095
00:08:01.028:1,-0.475,-0.105
00:08:01.032:1,-0.465,-0.125
00:08:01.036:1,-0.47,-0.115
00:08:01.040:1,-0.44,-0.1
00:08:01.044:1,-0.47,-0.11
00:08:01.048:1,-0.46,-0.085
00:08:01.052:1,-0.46,-0.09
00:08:01.056:1,-0.45,-0.105
00:08:01.060:1,-0.45,-0.09
00:08:01.064:1,-0.45,-0.09
00:08:01.068:1,-0.435,-0.09
00:08:01.072:1,-0.43,-0.09
00:08:01.076:1,-0.41,-0.105
00:08:01.080:1,-0.425,-0.12
00:08:01.084:1,-0.41,-0.12
00:08:01.088:1,-0.405,-0.125
00:08:01.092:1,-0.39,-0.11
00:08:01.096:1,-0.41,-0.135
00:08:01.100:1,-0.395,-0.125
00:08:01.104:1,-0.37,-0.13
00:08:01.108:1,-0.37,-0.15
00:08:01.112:1,-0.35,-0.13
00:08:01.116:1,-0.33,-0.15
00:08:01.120:1,-0.33,-0.155
00:08:01.124:1,-0.32,-0.15
00:08:01.128:1,-0.29,-0.16
00:08:01.132:1,-0.3,-0.16
00:08:01.136:1,-0.29,-0.14
00:08:01.140:1,-0.275,-0.165
00:08:01.144:1,-0.245,-0.17
00:08:01.148:1,-0.245,-0.145
00:08:01.152:1,-0.225,-0.165
00:08:01.156:1,-0.23,-0.14
00:08:01.160:1,-0.22,-0.14
00:08:01.164:1,-0.215,-0.135
00:08:01.168:1,-0.215,-0.14
00:08:01.172:1,-0.21,-0.165
00:08:01.176:1,-0.205,-0.155
00:08:01.180:1,-0.19,-0.14
00:08:01.184:1,-0.215,-0.13
00:08:01.188:1,-0.215,-0.16
00:08:01.192:1,-0.225,-0.14
00:08:01.196:1,-0.22,-0.13
00:08:01.200:1,-0.25,-0.135
00:08:01.204:1,-0.22,-0.145
00:08:01.208:1,-0.24,-0.14
00:08:01.212:1,-0.235,-0.13
00:08:01.216:1,-0.215,-0.15
00:08:01.220:1,-0.22,-0.14
00:08:01.224:1,-0.21,-0.12
00:08:01.228:1,-0.22,-0.11
00:08:01.232:1,-0.225,-0.13
00:08:01.236:1,-0.225,-0.125
00:08:01.240:1,-0.22,-0.14
00:08:01.244:1,-0.23,-0.115
00:08:01.248:1,-0.23,-0.13
00:08:01.252:1,-0.2,-0.095
00:08:01.256:1,-0.215,-0.12
00:08:01.260:1,-0.185,-0.11
00:08:01.264:1,-0.205,-0.13
00:08:01.268:1,-0.195,-0.125
00:08:01.272:1,-0.2,-0.09
00:08:01.276:1,-0.2,-0.09
00:08:01.280:1,-0.17,-0.1
00:08:01.284:1,-0.175,-0.105
00:08:01.288:1,-0.15,-0.1
00:08:01.292:1,-0.175,-0.105
00:08:01.296:1,-0.15,-0.125
00:08:01.300:1,-0.155,-0.1
00:08:01.304:1,-0.155,-0.1
00:08:01.308:1,-0.13,-0.09
00:08:01.312:1,-0.11,-0.08
00:08:01.316:1,-0.045,-0.08
00:08:01.320:1,-0.015,-0.06
00:08:01.324:1,0.0,-0.04
00:08:01.328:1,0.025,-0.075
00:08:01.332:1,0.025,-0.06
00:08:01.336:1,0.055,-0.08
00:08:01.340:1,0.06,-0.09
00:08:01.344:1,0.045,-0.09
00:08:01.348:1,0.02,-0.115
00:08:01.352:1,-0.01,-0.13
00:08:01.356:1,-0.065,-0.15
00:08:01.360:1,-0.105,-0.155
00:08:01.364:1,-0.145,-0.14
00:08:01.368:1,-0.185,-0.13
00:08:01.372:1,-0.22,-0.115
00:08:01.376:1,-0.275,-0.125
00:08:01.380:1,-0.32,-0.12
00:08:01.384:1,-0.32,-0.115
00:08:01.388:1,-0.32,-0.095
00:08:01.392:1,-0.33,-0.12
00:08:01.396:1,-0.305,-0.12
00:08:01.400:1,-0.305,-0.11
00:08:01.404:1,-0.315,-0.14
00:08:01.408:1,-0.3,-0.145
00:08:01.412:1,-0.305,-0.16
00:08:01.416:1,-0.325,-0.15
00:08:01.420:1,-0.31,-0.155
00:08:01.424:1,-0.3,-0.165
00:08:01.428:1,-0.32,-0.155
00:08:01.432:1,-0.3,-0.15
00:08:01.436:1,-0.305,-0.165
00:08:01.440:1,-0.295,-0.17
00:08:01.444:1,-0.315,-0.16
00:08:01.448:1,-0.295,-0.16
00:08:01.452:1,-0.31,-0.165
00:08:01.456:1,-0.31,-0.17
00:08:01.460:1,-0.285,-0.185
00:08:01.464:1,-0.29,-0.17
00:08:01.468:1,-0.31,-0.185
00:08:01.472:1,-0.285,-0.17
00:08:01.476:1,-0.275,-0.16
00:08:01.480:1,-0.245,-0.16
00:08:01.484:1,-0.245,-0.16
00:08:01.488:1,-0.215,-0.175
00:08:01.492:1,-0.155,-0.165
00:08:01.496:1,-0.075,-0.19
00:08:01.500:1,0.0,-0.175
00:08:01.504:1,0.08,-0.175
00:08:01.508:1,0.105,-0.22
00:08:01.512:1,0.13,-0.235
00:08:01.516:1,0.14,-0.25
00:08:01.520:1,0.09,-0.245
00:08:01.524:1,0.035,-0.255
00:08:01.528:1,0.045,-0.345
00:08:01.532:1,0.23,-0.43
00:08:01.536:1,0.52,-0.61
00:08:01.540:1,0.84,-0.885
00:08:01.544:1,1.095,-1.1
00:08:01.548:1,1.15,-1.255
00:08:01.552:1,0.9,-1.215
00:08:01.556:1,0.45,-0.915
00:08:01.560:1,0.05,-0.55
00:08:01.564:1,-0.165,-0.25
00:08:01.568:1,-0.28,-0.095
00:08:01.572:1,-0.33,-0.02
00:08:01.576:1,-0.365,0.0
00:08:01.580:1,-0.39,-0.01
00:08:01.584:1,-0.405,-0.03
00:08:01.588:1,-0.4,-0.025
00:08:01.592:1,-0.415,-0.055
00:08:01.596:1,-0.42,-0.075
00:08:01.600:1,-0.425,-0.1
00:08:01.604:1,-0.425,-0.105
00:08:01.608:1,-0.44,-0.12
00:08:01.612:1,-0.435,-0.125
00:08:01.616:1,-0.425,-0.1
00:08:01.620:1,-0.45,-0.125
00:08:01.624:1,-0.44,-0.12
00:08:01.628:1,-0.435,-0.125
00:08:01.632:1,-0.435,-0.13
00:08:01.636:1,-0.455,-0.14
00:08:01.640:1,-0.44,-0.125
00:08:01.644:1,-0.455,-0.135
00:08:01.648:1,-0.46,-0.125
00:08:01.652:1,-0.45,-0.13
00:08:01.656:1,-0.46,-0.13
00:08:01.660:1,-0.475,-0.155
00:08:01.664:1,-0.48,-0.145
00:08:01.668:1,-0.48,-0.145
00:08:01.672:1,-0.47,-0.145
00:08:01.676:1,-0.48,-0.145
00:08:01.680:1,-0.485,-0.165
00:08:01.684:1,-0.485,-0.13
00:08:01.688:1,-0.49,-0.13
00:08:01.692:1,-0.505,-0.14
00:08:01.696:1,-0.49,-0.13
00:08:01.700:1,-0.495,-0.125
00:08:01.704:1,-0.495,-0.16
00:08:01.708:1,-0.485,-0.13
00:08:01.712:1,-0.45,-0.14
00:08:01.716:1,-0.465,-0.11
00:08:01.720:1,-0.465,-0.135
00:08:01.724:1,-0.455,-0.125
00:08:01.728:1,-0.45,-0.135
00:08:01.732:1,-0.465,-0.115
00:08:01.736:1,-0.445,-0.125
00:08:01.740:1,-0.44,-0.155
00:08:01.744:1,-0.425,-0.145
00:08:01.748:1,-0.43,-0.16
00:08:01.752:1,-0.42,-0.16
00:08:01.756:1,-0.415,-0.175
00:08:01.760:1,-0.41,-0.17
00:08:01.764:1,-0.385,-0.16
00:08:01.768:1,-0.385,-0.18
00:08:01.772:1,-0.36,-0.17
00:08:01.776:1,-0.34,-0.185
00:08:01.780:1,-0.35,-0.2
00:08:01.784:1,-0.34,-0.2
00:08:01.788:1,-0.325,-0.195
00:08:01.792:1,-0.335,-0.19
00:08:01.796:1,-0.32,-0.21
00:08:01.800:1,-0.29,-0.195
00:08:01.804:1,-0.305,-0.185
00:08:01.808:1,-0.275,-0.205
00:08:01.812:1,-0.26,-0.175
00:08:01.816:1,-0.245,-0.16
00:08:01.820:1,-0.24,-0.18
00:08:01.824:1,-0.24,-0.175
00:08:01.828:1,-0.24,-0.155
00:08:01.832:1,-0.24,-0.18
00:08:01.836:1,-0.225,-0.155
00:08:01.840:1,-0.23,-0.155
00:08:01.844:1,-0.225,-0.145
00:08:01.848:1,-0.24,-0.16
00:08:01.852:1,-0.235,-0.14
00:08:01.856:1,-0.23,-0.13
00:08:01.860:1,-0.245,-0.14
00:08:01.864:1,-0.23,-0.13
00:08:01.868:1,-0.235,-0.14
00:08:01.872:1,-0.225,-0.13
00:08:01.876:1,-0.235,-0.12
00:08:01.880:1,-0.24,-0.15
00:08:01.884:1,-0.22,-0.145
00:08:01.888:1,-0.22,-0.135
00:08:01.892:1,-0.235,-0.16
00:08:01.896:1,-0.23,-0.16
00:08:01.900:1,-0.24,-0.14
00:08:01.904:1,-0.25,-0.14
00:08:01.908:1,-0.24,-0.14
00:08:01.912:1,-0.22,-0.125
00:08:01.916:1,-0.205,-0.125
00:08:01.920:1,-0.215,-0.11
00:08:01.924:1,-0.22,-0.115
00:08:01.928:1,-0.21,-0.135
00:08:01.932:1,-0.195,-0.125
00:08:01.936:1,-0.18,-0.115
00:08:01.940:1,-0.15,-0.115
00:08:01.944:1,-0.16,-0.125
00:08:01.948:1,-0.135,-0.135
00:08:01.952:1,-0.135,-0.12
00:08:01.956:1,-0.135,-0.135
00:08:01.960:1,-0.13,-0.11
00:08:01.964:1,-0.08,-0.12
00:08:01.968:1,-0.065,-0.1
00:08:01.972:1,-0.005,-0.08
00:08:01.976:1,0.01,-0.08
00:08:01.980:1,0.015,-0.09
00:08:01.984:1,0.02,-0.07
00:08:01.988:1,0.045,-0.07
00:08:01.992:1,0.06,-0.075
00:08:01.996:1,0.055,-0.095
00:08:02.000:1,0.03,-0.11
00:08:02.004:1,0.035,-0.105
00:08:02.008:1,-0.015,-0.165
00:08:02.012:1,-0.055,-0.16
00:08:02.016:1,-0.1,-0.165
00:08:02.020:1,-0.15,-0.165
00:08:02.024:1,-0.17,-0.145
00:08:02.028:1,-0.22,-0.14
00:08:02.032:1,-0.25,-0.125
00:08:02.036:1,-0.285,-0.12
00:08:02.040:1,-0.285,-0.115
00:08:02.044:1,-0.295,-0.11
00:08:02.048:1,-0.31,-0.125
00:08:02.052:1,-0.295,-0.13
00:08:02.056:1,-0.31,-0.135
00:08:02.060:1,-0.285,-0.14
00:08:02.064:1,-0.275,-0.13
00:08:02.068:1,-0.255,-0.155
00:08:02.072:1,-0.24,-0.13
00:08:02.076:1,-0.27,-0.14
00:08:02.080:1,-0.26,-0.155
00:08:02.084:1,-0.27,-0.16
00:08:02.088:1,-0.265,-0.14
00:08:02.092:1,-0.255,-0.16
00:08:02.096:1,-0.265,-0.16
00:08:02.100:1,-0.275,-0.18
00:08:02.104:1,-0.29,-0.18
00:08:02.108:1,-0.28,-0.155
00:08:02.112:1,-0.255,-0.16
00:08:02.116:1,-0.255,-0.165
00:08:02.120:1,-0.25,-0.145
00:08:02.124:1,-0.265,-0.16
00:08:02.128:1,-0.255,-0.17
00:08:02.132:1,-0.25,-0.155
00:08:02.136:1,-0.215,-0.15
00:08:02.140:1,-0.205,-0.15
00:08:02.144:1,-0.15,-0.155
00:08:02.148:1,-0.085,-0.16
00:08:02.152:1,0.0,-0.145
00:08:02.156:1,0.09,-0.16
00:08:02.160:1,0.14,-0.165
00:08:02.164:1,0.185,-0.215
00:08:02.168:1,0.235,-0.22
00:08:02.172:1,0.24,-0.22
00:08:02.176:1,0.21,-0.19
00:08:02.180:1,0.155,-0.215
00:08:02.184:1,0.175,-0.265
00:08:02.188:1,0.355,-0.36
00:08:02.192:1,0.65,-0.55
00:08:02.196:1,0.955,-0.815
00:08:02.200:1,1.19,-1.06
00:08:02.204:1,1.195,-1.19
00:08:02.208:1,0.905,-1.115
00:08:02.212:1,0.43,-0.82
00:08:02.216:1,0.07,-0.48
00:08:02.220:1,-0.115,-0.225
00:08:02.224:1,-0.195,-0.09
00:08:02.228:1,-0.255,-0.01
00:08:02.232:1,-0.27,0.01
00:08:02.236:1,-0.315,-0.005
00:08:02.240:1,-0.35,-0.015
00:08:02.244:1,-0.34,-0.025
00:08:02.248:1,-0.34,-0.055
00:08:02.252:1,-0.35,-0.06
00:08:02.256:1,-0.355,-0.11
00:08:02.260:1,-0.37,-0.125
00:08:02.264:1,-0.35,-0.115
00:08:02.268:1,-0.375,-0.135
00:08:02.272:1,-0.36,-0.125
00:08:02.276:1,-0.365,-0.14
00:08:02.280:1,-0.37,-0.155
00:08:02.284:1,-0.375,-0.135
00:08:02.288:1,-0.365,-0.15
00:08:02.292:1,-0.37,-0.125
00:08:02.296:1,-0.365,-0.135
00:08:02.300:1,-0.385,-0.15
00:08:02.304:1,-0.405,-0.16
00:08:02.308:1,-0.41,-0.18
00:08:02.312:1,-0.425,-0.16
00:08:02.316:1,-0.44,-0.165
00:08:02.320:1,-0.44,-0.165
00:08:02.324:1,-0.44,-0.17
00:08:02.328:1,-0.415,-0.155
00:08:02.332:1,-0.42,-0.17
00:08:02.336:1,-0.435,-0.18
00:08:02.340:1,-0.43,-0.175
00:08:02.344:1,-0.44,-0.195
00:08:02.348:1,-0.42,-0.19
00:08:02.352:1,-0.445,-0.205
00:08:02.356:1,-0.435,-0.185
00:08:02.360:1,-0.42,-0.19
00:08:02.364:1,-0.425,-0.185
00:08:02.368:1,-0.395,-0.18
00:08:02.372:1,-0.395,-0.195
00:08:02.376:1,-0.38,-0.195
00:08:02.380:1,-0.385,-0.185
00:08:02.384:1,-0.37,-0.175
00:08:02.388:1,-0.38,-0.18
00:08:02.392:1,-0.355,-0.185
00:08:02.396:1,-0.345,-0.18
00:08:02.400:1,-0.34,-0.2
00:08:02.404:1,-0.345,-0.19
00:08:02.408:1,-0.37,-0.21
00:08:02.412:1,-0.345,-0.22
00:08:02.416:1,-0.33,-0.21
00:08:02.420:1,-0.31,-0.245
00:08:02.424:1,-0.27,-0.215
00:08:02.428:1,-0.285,-0.23
00:08:02.432:1,-0.265,-0.25
00:08:02.436:1,-0.27,-0.245
00:08:02.440:1,-0.26,-0.26
00:08:02.444:1,-0.27,-0.235
00:08:02.448:1,-0.265,-0.285
00:08:02.452:1,-0.245,-0.26
00:08:02.456:1,-0.23,-0.26
00:08:02.460:1,-0.225,-0.27
00:08:02.464:1,-0.205,-0.275
00:08:02.468:1,-0.19,-0.25
00:08:02.472:1,-0.185,-0.245
00:08:02.476:1,-0.2,-0.25
00:08:02.480:1,-0.195,-0.255
00:08:02.484:1,-0.16,-0.24
00:08:02.488:1,-0.16,-0.245
00:08:02.492:1,-0.155,-0.26
00:08:02.496:1,-0.165,-0.24
00:08:02.500:1,-0.17,-0.255
00:08:02.504:1,-0.18,-0.255
00:08:02.508:1,-0.18,-0.24
00:08:02.512:1,-0.18,-0.265
00:08:02.516:1,-0.19,-0.25
00:08:02.520:1,-0.19,-0.245
00:08:02.524:1,-0.205,-0.265
00:08:02.528:1,-0.185,-0.24
00:08:02.532:1,-0.195,-0.24
00:08:02.536:1,-0.2,-0.26
00:08:02.540:1,-0.21,-0.275
00:08:02.544:1,-0.215,-0.265
00:08:02.548:1,-0.21,-0.26
00:08:02.552:1,-0.2,-0.245
00:08:02.556:1,-0.21,-0.26
00:08:02.560:1,-0.215,-0.26
00:08:02.564:1,-0.21,-0.26
00:08:02.568:1,-0.22,-0.245
00:08:02.572:1,-0.24,-0.26
00:08:02.576:1,-0.215,-0.24
00:08:02.580:1,-0.215,-0.23
00:08:02.584:1,-0.195,-0.245
00:08:02.588:1,-0.19,-0.255
00:08:02.592:1,-0.195,-0.265
00:08:02.596:1,-0.195,-0.245
00:08:02.600:1,-0.19,-0.26
00:08:02.604:1,-0.18,-0.24
00:08:02.608:1,-0.17,-0.265
00:08:02.612:1,-0.18,-0.27
00:08:02.616:1,-0.14,-0.255
00:08:02.620:1,-0.16,-0.255
00:08:02.624:1,-0.16,-0.235
00:08:02.628:1,-0.105,-0.25
00:08:02.632:1,-0.065,-0.225
00:08:02.636:1,-0.025,-0.2
00:08:02.640:1,0.01,-0.21
00:08:02.644:1,0.04,-0.2
00:08:02.648:1,0.045,-0.22
00:08:02.652:1,0.055,-0.21
00:08:02.656:1,0.09,-0.225
00:08:02.660:1,0.085,-0.21
00:08:02.664:1,0.055,-0.24
00:08:02.668:1,0.01,-0.28
00:08:02.672:1,-0.05,-0.28
00:08:02.676:1,-0.095,-0.305
00:08:02.680:1,-0.155,-0.29
00:08:02.684:1,-0.18,-0.29
00:08:02.688:1,-0.235,-0.305
00:08:02.692:1,-0.31,-0.265
00:08:02.696:1,-0.325,-0.265
00:08:02.700:1,-0.33,-0.26
00:08:02.704:1,-0.34,-0.26
00:08:02.708:1,-0.32,-0.28
00:08:02.712:1,-0.305,-0.28
00:08:02.716:1,-0.295,-0.285
00:08:02.720:1,-0.31,-0.3
00:08:02.724:1,-0.295,-0.3
00:08:02.728:1,-0.31,-0.29
00:08:02.732:1,-0.305,-0.295
00:08:02.736:1,-0.285,-0.28
00:08:02.740:1,-0.305,-0.305
00:08:02.744:1,-0.315,-0.3
00:08:02.748:1,-0.305,-0.32
00:08:02.752:1,-0.305,-0.33
00:08:02.756:1,-0.33,-0.315
00:08:02.760:1,-0.305,-0.325
00:08:02.764:1,-0.32,-0.33
00:08:02.768:1,-0.305,-0.32
00:08:02.772:1,-0.29,-0.31
00:08:02.776:1,-0.29,-0.32
00:08:02.780:1,-0.3,-0.3
00:08:02.784:1,-0.32,-0.32
00:08:02.788:1,-0.305,-0.33
00:08:02.792:1,-0.28,-0.325
00:08:02.796:1,-0.27,-0.32
00:08:02.800:1,-0.25,-0.32
00:08:02.804:1,-0.22,-0.295
00:08:02.808:1,-0.16,-0.31
00:08:02.812:1,-0.08,-0.315
00:08:02.816:1,0.01,-0.335
00:08:02.820:1,0.09,-0.34
00:08:02.824:1,0.18,-0.345
00:08:02.828:1,0.235,-0.405
00:08:02.832:1,0.265,-0.405
00:08:02.836:1,0.285,-0.33
00:08:02.840:1,0.26,-0.36
00:08:02.844:1,0.24,-0.375
00:08:02.848:1,0.32,-0.455
00:08:02.852:1,0.53,-0.585
00:08:02.856:1,0.84,-0.79
00:08:02.860:1,1.11,-1.045
00:08:02.864:1,1.2,-1.24
00:08:02.868:1,0.96,-1.28
00:08:02.872:1,0.495,-1.06
00:08:02.876:1,0.09,-0.74
00:08:02.880:1,-0.105,-0.485
00:08:02.884:1,-0.21,-0.355
00:08:02.888:1,-0.255,-0.225
00:08:02.892:1,-0.33,-0.15
00:08:02.896:1,-0.335,-0.145
00:08:02.900:1,-0.36,-0.135
00:08:02.904:1,-0.35,-0.12
00:08:02.908:1,-0.39,-0.14
00:08:02.912:1,-0.405,-0.17
00:08:02.916:1,-0.42,-0.185
00:08:02.920:1,-0.415,-0.195
00:08:02.924:1,-0.42,-0.2
00:08:02.928:1,-0.415,-0.195
00:08:02.932:1,-0.42,-0.195
00:08:02.936:1,-0.425,-0.185
00:08:02.940:1,-0.43,-0.19
00:08:02.944:1,-0.43,-0.185
00:08:02.948:1,-0.44,-0.175
00:08:02.952:1,-0.43,-0.175
00:08:02.956:1,-0.45,-0.19
00:08:02.960:1,-0.45,-0.185
00:08:02.964:1,-0.44,-0.185
00:08:02.968:1,-0.445,-0.19
00:08:02.972:1,-0.45,-0.195
00:08:02.976:1,-0.465,-0.19
00:08:02.980:1,-0.475,-0.19
00:08:02.984:1,-0.465,-0.175
00:08:02.988:1,-0.48,-0.185
00:08:02.992:1,-0.44,-0.19
00:08:02.996:1,-0.465,-0.17
00:08:03.000:1,-0.49,-0.18
00:08:03.004:1,-0.49,-0.185
00:08:03.008:1,-0.51,-0.16
00:08:03.012:1,-0.5,-0.17
00:08:03.016:1,-0.475,-0.145
00:08:03.020:1,-0.46,-0.16
00:08:03.024:1,-0.48,-0.145
00:08:03.028:1,-0.485,-0.15
00:08:03.032:1,-0.465,-0.155
00:08:03.036:1,-0.47,-0.135
00:08:03.040:1,-0.465,-0.145
00:08:03.044:1,-0.46,-0.14
00:08:03.048:1,-0.45,-0.145
00:08:03.052:1,-0.415,-0.125
00:08:03.056:1,-0.41,-0.15
00:08:03.060:1,-0.41,-0.125
00:08:03.064:1,-0.395,-0.145
00:08:03.068:1,-0.405,-0.135
00:08:03.072:1,-0.38,-0.14
00:08:03.076:1,-0.375,-0.15
00:08:03.080:1,-0.36,-0.15
00:08:03.084:1,-0.35,-0.155
00:08:03.088:1,-0.355,-0.165
00:08:03.092:1,-0.335,-0.165
00:08:03.096:1,-0.315,-0.19
00:08:03.100:1,-0.315,-0.2
00:08:03.104:1,-0.315,-0.18
00:08:03.108:1,-0.3,-0.18
00:08:03.112:1,-0.3,-0.155
00:08:03.116:1,-0.27,-0.18
00:08:03.120:1,-0.26,-0.17
00:08:03.124:1,-0.255,-0.18
00:08:03.128:1,-0.235,-0.15
00:08:03.132:1,-0.205,-0.165
00:08:03.136:1,-0.22,-0.16
00:08:03.140:1,-0.225,-0.145
00:08:03.144:1,-0.225,-0.145
00:08:03.148:1,-0.195,-0.16
00:08:03.152:1,-0.2,-0.17
00:08:03.156:1,-0.22,-0.15
00:08:03.160:1,-0.21,-0.17
00:08:03.164:1,-0.205,-0.18
00:08:03.168:1,-0.215,-0.14
00:08:03.172:1,-0.235,-0.165
00:08:03.176:1,-0.235,-0.16
00:08:03.180:1,-0.24,-0.17
00:08:03.184:1,-0.25,-0.165
00:08:03.188:1,-0.25,-0.13
00:08:03.192:1,-0.235,-0.16
00:08:03.196:1,-0.235,-0.155
00:08:03.200:1,-0.255,-0.155
00:08:03.204:1,-0.265,-0.175
00:08:03.208:1,-0.255,-0.14
00:08:03.212:1,-0.275,-0.16
00:08:03.216:1,-0.26,-0.155
00:08:03.220:1,-0.275,-0.165
00:08:03.224:1,-0.285,-0.165
00:08:03.228:1,-0.285,-0.135
00:08:03.232:1,-0.25,-0.155
00:08:03.236:1,-0.255,-0.155
00:08:03.240:1,-0.275,-0.145
00:08:03.244:1,-0.27,-0.14
00:08:03.248:1,-0.26,-0.135
00:08:03.252:1,-0.25,-0.115
00:08:03.256:1,-0.225,-0.135
00:08:03.260:1,-0.225,-0.13
00:08:03.264:1,-0.21,-0.13
00:08:03.268:1,-0.21,-0.14
00:08:03.272:1,-0.21,-0.13
00:08:03.276:1,-0.21,-0.12
00:08:03.280:1,-0.2,-0.11
00:08:03.284:1,-0.18,-0.105
00:08:03.288:1,-0.135,-0.11
00:08:03.292:1,-0.1,-0.105
00:08:03.296:1,-0.08,-0.085
00:08:03.300:1,-0.045,-0.09
00:08:03.304:1,-0.02,-0.08
00:08:03.308:1,-0.03,-0.07
00:08:03.312:1,0.0,-0.095
00:08:03.316:1,-0.005,-0.115
00:08:03.320:1,-0.045,-0.14
00:08:03.324:1,-0.09,-0.17
00:08:03.328:1,-0.135,-0.18
00:08:03.332:1,-0.205,-0.19
00:08:03.336:1,-0.245,-0.185
00:08:03.340:1,-0.29,-0.175
00:08:03.344:1,-0.32,-0.17
00:08:03.348:1,-0.37,-0.155
00:08:03.352:1,-0.385,-0.135
00:08:03.356:1,-0.415,-0.145
00:08:03.360:1,-0.425,-0.155
00:08:03.364:1,-0.42,-0.155
00:08:03.368:1,-0.4,-0.17
00:08:03.372:1,-0.41,-0.17
00:08:03.376:1,-0.42,-0.175
00:08:03.380:1,-0.41,-0.17
00:08:03.384:1,-0.42,-0.175
00:08:03.388:1,-0.415,-0.185
00:08:03.392:1,-0.415,-0.175
00:08:03.396:1,-0.4,-0.17
00:08:03.400:1,-0.41,-0.175
00:08:03.404:1,-0.41,-0.185
00:08:03.408:1,-0.42,-0.185
00:08:03.412:1,-0.4,-0.2
00:08:03.416:1,-0.39,-0.2
00:08:03.420:1,-0.4,-0.21
00:08:03.424:1,-0.405,-0.21
00:08:03.428:1,-0.385,-0.23
00:08:03.432:1,-0.42,-0.195
00:08:03.436:1,-0.395,-0.215
00:08:03.440:1,-0.375,-0.195
00:08:03.444:1,-0.39,-0.205
00:08:03.448:1,-0.385,-0.225
00:08:03.452:1,-0.34,-0.22
00:08:03.456:1,-0.325,-0.2
00:08:03.460:1,-0.29,-0.195
00:08:03.464:1,-0.225,-0.205
00:08:03.468:1,-0.105,-0.21
00:08:03.472:1,-0.04,-0.215
00:08:03.476:1,0.0,-0.23
00:08:03.480:1,0.055,-0.27
00:08:03.484:1,0.09,-0.275
00:08:03.488:1,0.08,-0.27
00:08:03.492:1,0.05,-0.265
00:08:03.496:1,0.055,-0.325
00:08:03.500:1,0.13,-0.435
00:08:03.504:1,0.36,-0.56
00:08:03.508:1,0.685,-0.8
00:08:03.512:1,1.0,-1.075
00:08:03.516:1,1.1,-1.285
00:08:03.520:1,0.945,-1.335
00:08:03.524:1,0.515,-1.165
00:08:03.528:1,0.05,-0.77
00:08:03.532:1,-0.265,-0.435
00:08:03.536:1,-0.37,-0.22
00:08:03.540:1,-0.45,-0.115
00:08:03.544:1,-0.46,-0.07
00:08:03.548:1,-0.495,-0.055
00:08:03.552:1,-0.51,-0.07
00:08:03.556:1,-0.54,-0.06
00:08:03.560:1,-0.535,-0.075
00:08:03.564:1,-0.56,-0.115
00:08:03.568:1,-0.54,-0.115
00:08:03.572:1,-0.545,-0.135
00:08:03.576:1,-0.555,-0.11
00:08:03.580:1,-0.555,-0.145
00:08:03.584:1,-0.55,-0.125
00:08:03.588:1,-0.58,-0.15
00:08:03.592:1,-0.58,-0.145
00:08:03.596:1,-0.58,-0.16
00:08:03.600:1,-0.58,-0.15
00:08:03.604:1,-0.58,-0.135
00:08:03.608:1,-0.6,-0.16
00:08:03.612:1,-0.605,-0.16
00:08:03.616:1,-0.61,-0.16
00:08:03.620:1,-0.61,-0.17
00:08:03.624:1,-0.61,-0.165
00:08:03.628:1,-0.63,-0.175
00:08:03.632:1,-0.615,-0.16
00:08:03.636:1,-0.635,-0.185
00:08:03.640:1,-0.64,-0.175
00:08:03.644:1,-0.64,-0.175
00:08:03.648:1,-0.66,-0.155
00:08:03.652:1,-0.665,-0.16
00:08:03.656:1,-0.685,-0.175
00:08:03.660:1,-0.665,-0.165
00:08:03.664:1,-0.665,-0.17
00:08:03.668:1,-0.64,-0.18
00:08:03.672:1,-0.64,-0.17
00:08:03.676:1,-0.64,-0.18
00:08:03.680:1,-0.64,-0.17
00:08:03.684:1,-0.63,-0.16
00:08:03.688:1,-0.63,-0.15
00:08:03.692:1,-0.64,-0.155
00:08:03.696:1,-0.625,-0.15
00:08:03.700:1,-0.615,-0.16
00:08:03.704:1,-0.62,-0.165
00:08:03.708:1,-0.605,-0.175
00:08:03.712:1,-0.595,-0.185
00:08:03.716:1,-0.585,-0.17
00:08:03.720:1,-0.605,-0.17
00:08:03.724:1,-0.57,-0.185
00:08:03.728:1,-0.575,-0.175
00:08:03.732:1,-0.545,-0.195
00:08:03.736:1,-0.55,-0.21
00:08:03.740:1,-0.51,-0.205
00:08:03.744:1,-0.51,-0.21
00:08:03.748:1,-0.5,-0.21
00:08:03.752:1,-0.485,-0.23
00:08:03.756:1,-0.475,-0.225
00:08:03.760:1,-0.47,-0.22
00:08:03.764:1,-0.47,-0.205
00:08:03.768:1,-0.45,-0.19
00:08:03.772:1,-0.445,-0.21
00:08:03.776:1,-0.445,-0.2
00:08:03.780:1,-0.42,-0.205
00:08:03.784:1,-0.415,-0.19
00:08:03.788:1,-0.39,-0.21
00:08:03.792:1,-0.395,-0.2
00:08:03.796:1,-0.39,-0.175
00:08:03.800:1,-0.4,-0.19
00:08:03.804:1,-0.39,-0.19
00:08:03.808:1,-0.39,-0.18
00:08:03.812:1,-0.37,-0.19
00:08:03.816:1,-0.385,-0.18
00:08:03.820:1,-0.385,-0.175
00:08:03.824:1,-0.385,-0.175
00:08:03.828:1,-0.395,-0.19
00:08:03.832:1,-0.415,-0.185
00:08:03.836:1,-0.41,-0.16
00:08:03.840:1,-0.38,-0.175
00:08:03.844:1,-0.395,-0.175
00:08:03.848:1,-0.395,-0.165
00:08:03.852:1,-0.405,-0.15
00:08:03.856:1,-0.415,-0.155
00:08:03.860:1,-0.42,-0.16
00:08:03.864:1,-0.405,-0.17
00:08:03.868:1,-0.405,-0.16
00:08:03.872:1,-0.415,-0.15
00:08:03.876:1,-0.425,-0.155
00:08:03.880:1,-0.41,-0.16
00:08:03.884:1,-0.415,-0.13
00:08:03.888:1,-0.395,-0.155
00:08:03.892:1,-0.37,-0.135
00:08:03.896:1,-0.345,-0.125
00:08:03.900:1,-0.36,-0.115
00:08:03.904:1,-0.345,-0.125
00:08:03.908:1,-0.335,-0.125
00:08:03.912:1,-0.31,-0.115
00:08:03.916:1,-0.29,-0.11
00:08:03.920:1,-0.245,-0.105
00:08:03.924:1,-0.22,-0.105
00:08:03.928:1,-0.205,-0.085
00:08:03.932:1,-0.175,-0.08
00:08:03.936:1,-0.16,-0.09
00:08:03.940:1,-0.15,-0.075
00:08:03.944:1,-0.12,-0.085
00:08:03.948:1,-0.135,-0.095
00:08:03.952:1,-0.15,-0.11
00:08:03.956:1,-0.18,-0.17
00:08:03.960:1,-0.22,-0.165
00:08:03.964:1,-0.28,-0.17
00:08:03.968:1,-0.34,-0.18
00:08:03.972:1,-0.385,-0.175
00:08:03.976:1,-0.435,-0.17
00:08:03.980:1,-0.485,-0.16
00:08:03.984:1,-0.5,-0.14
00:08:03.988:1,-0.495,-0.125
00:08:03.992:1,-0.495,-0.14
00:08:03.996:1,-0.495,-0.13
00:08:04.000:1,-0.5,-0.14
00:08:04.004:1,-0.485,-0.13
00:08:04.008:1,-0.48,-0.15
00:08:04.012:1,-0.485,-0.135
00:08:04.016:1,-0.49,-0.13
00:08:04.020:1,-0.465,-0.135
00:08:04.024:1,-0.475,-0.135
00:08:04.028:1,-0.49,-0.13
00:08:04.032:1,-0.46,-0.145
00:08:04.036:1,-0.49,-0.17
00:08:04.040:1,-0.485,-0.135
00:08:04.044:1,-0.485,-0.13
00:08:04.048:1,-0.49,-0.135
00:08:04.052:1,-0.47,-0.16
00:08:04.056:1,-0.48,-0.16
00:08:04.060:1,-0.47,-0.16
00:08:04.064:1,-0.475,-0.175
00:08:04.068:1,-0.465,-0.175
00:08:04.072:1,-0.45,-0.145
00:08:04.076:1,-0.45,-0.16
00:08:04.080:1,-0.44,-0.175
00:08:04.084:1,-0.445,-0.145
00:08:04.088:1,-0.435,-0.15
00:08:04.092:1,-0.365,-0.16
00:08:04.096:1,-0.295,-0.165
00:08:04.100:1,-0.23,-0.145
00:08:04.104:1,-0.13,-0.175
00:08:04.108:1,-0.065,-0.16
00:08:04.112:1,-0.015,-0.185
00:08:04.116:1,0.0,-0.225
00:08:04.120:1,0.005,-0.24
00:08:04.124:1,-0.005,-0.215
00:08:04.128:1,-0.06,-0.24
00:08:04.132:1,-0.045,-0.295
00:08:04.136:1,0.125,-0.41
00:08:04.140:1,0.45,-0.595
00:08:04.144:1,0.785,-0.86
00:08:04.148:1,1.005,-1.115
00:08:04.152:1,1.035,-1.255
00:08:04.156:1,0.77,-1.17
00:08:04.160:1,0.3,-0.855
00:08:04.164:1,-0.09,-0.49
00:08:04.168:1,-0.3,-0.2
00:08:04.172:1,-0.42,-0.07
00:08:04.176:1,-0.47,0.0
00:08:04.180:1,-0.515,0.0
00:08:04.184:1,-0.525,-0.015
00:08:04.188:1,-0.55,-0.03
00:08:04.192:1,-0.555,-0.015
00:08:04.196:1,-0.565,-0.045
00:08:04.200:1,-0.57,-0.06
00:08:04.204:1,-0.57,-0.085
00:08:04.208:1,-0.56,-0.1
00:08:04.212:1,-0.565,-0.09
00:08:04.216:1,-0.58,-0.105
00:08:04.220:1,-0.565,-0.095
00:08:04.224:1,-0.565,-0.095
00:08:04.228:1,-0.57,-0.095
00:08:04.232:1,-0.57,-0.105
00:08:04.236:1,-0.59,-0.08
00:08:04.240:1,-0.585,-0.1
00:08:04.244:1,-0.58,-0.1
00:08:04.248:1,-0.59,-0.1
00:08:04.252:1,-0.595,-0.11
00:08:04.256:1,-0.605,-0.11
00:08:04.260:1,-0.605,-0.105
00:08:04.264:1,-0.6,-0.12
00:08:04.268:1,-0.615,-0.125
00:08:04.272:1,-0.61,-0.115
00:08:04.276:1,-0.615,-0.11
00:08:04.280:1,-0.64,-0.12
00:08:04.284:1,-0.64,-0.145
00:08:04.288:1,-0.645,-0.13
00:08:04.292:1,-0.64,-0.14
00:08:04.296:1,-0.65,-0.125
00:08:04.300:1,-0.63,-0.13
00:08:04.304:1,-0.655,-0.15
00:08:04.308:1,-0.65,-0.145
00:08:04.312:1,-0.645,-0.14
00:08:04.316:1,-0.615,-0.125
00:08:04.320:1,-0.595,-0.145
00:08:04.324:1,-0.615,-0.165
00:08:04.328:1,-0.615,-0.145
00:08:04.332:1,-0.615,-0.14
00:08:04.336:1,-0.595,-0.125
00:08:04.340:1,-0.57,-0.125
00:08:04.344:1,-0.555,-0.125
00:08:04.348:1,-0.56,-0.135
00:08:04.352:1,-0.56,-0.14
00:08:04.356:1,-0.56,-0.15
00:08:04.360:1,-0.53,-0.155
00:08:04.364:1,-0.535,-0.155
00:08:04.368:1,-0.51,-0.17
00:08:04.372:1,-0.5,-0.16
00:08:04.376:1,-0.49,-0.16
00:08:04.380:1,-0.485,-0.16
00:08:04.384:1,-0.49,-0.185
00:08:04.388:1,-0.465,-0.18
00:08:04.392:1,-0.48,-0.175
00:08:04.396:1,-0.45,-0.195
00:08:04.400:1,-0.445,-0.19
00:08:04.404:1,-0.435,-0.19
00:08:04.408:1,-0.435,-0.2
00:08:04.412:1,-0.425,-0.195
00:08:04.416:1,-0.415,-0.17
00:08:04.420:1,-0.395,-0.16
00:08:04.424:1,-0.39,-0.18
00:08:04.428:1,-0.375,-0.17
00:08:04.432:1,-0.355,-0.175
00:08:04.436:1,-0.37,-0.165
00:08:04.440:1,-0.385,-0.155
00:08:04.444:1,-0.38,-0.17
00:08:04.448:1,-0.36,-0.14
00:08:04.452:1,-0.385,-0.14
00:08:04.456:1,-0.355,-0.14
00:08:04.460:1,-0.36,-0.15
00:08:04.464:1,-0.37,-0.165
00:08:04.468:1,-0.375,-0.155
00:08:04.472:1,-0.395,-0.155
00:08:04.476:1,-0.38,-0.155
00:08:04.480:1,-0.41,-0.155
00:08:04.484:1,-0.41,-0.145
00:08:04.488:1,-0.42,-0.155
00:08:04.492:1,-0.42,-0.16
00:08:04.496:1,-0.415,-0.155
00:08:04.500:1,-0.44,-0.14
00:08:04.504:1,-0.43,-0.155
00:08:04.508:1,-0.415,-0.155
00:08:04.512:1,-0.415,-0.18
00:08:04.516:1,-0.395,-0.185
00:08:04.520:1,-0.415,-0.175
00:08:04.524:1,-0.4,-0.175
00:08:04.528:1,-0.385,-0.165
00:08:04.532:1,-0.36,-0.185
00:08:04.536:1,-0.34,-0.16
00:08:04.540:1,-0.355,-0.175
00:08:04.544:1,-0.35,-0.175
00:08:04.548:1,-0.33,-0.18
00:08:04.552:1,-0.35,-0.155
00:08:04.556:1,-0.335,-0.15
00:08:04.560:1,-0.285,-0.155
00:08:04.564:1,-0.225,-0.12
00:08:04.568:1,-0.2,-0.14
00:08:04.572:1,-0.155,-0.11
00:08:04.576:1,-0.175,-0.14
00:08:04.580:1,-0.155,-0.12
00:08:04.584:1,-0.14,-0.135
00:08:04.588:1,-0.135,-0.14
00:08:04.592:1,-0.14,-0.135
00:08:04.596:1,-0.135,-0.16
00:08:04.600:1,-0.175,-0.2
00:08:04.604:1,-0.21,-0.21
00:08:04.608:1,-0.265,-0.235
00:08:04.612:1,-0.335,-0.25
00:08:04.616:1,-0.39,-0.265
00:08:04.620:1,-0.44,-0.225
00:08:04.624:1,-0.48,-0.24
00:08:04.628:1,-0.51,-0.22
00:08:04.632:1,-0.55,-0.21
00:08:04.636:1,-0.53,-0.19
00:08:04.640:1,-0.52,-0.2
00:08:04.644:1,-0.495,-0.21
00:08:04.648:1,-0.49,-0.22
00:08:04.652:1,-0.465,-0.24
00:08:04.656:1,-0.48,-0.225
00:08:04.660:1,-0.465,-0.215
00:08:04.664:1,-0.465,-0.235
00:08:04.668:1,-0.455,-0.255
00:08:04.672:1,-0.455,-0.235
00:08:04.676:1,-0.45,-0.255
00:08:04.680:1,-0.455,-0.255
00:08:04.684:1,-0.475,-0.245
00:08:04.688:1,-0.495,-0.245
00:08:04.692:1,-0.48,-0.245
00:08:04.696:1,-0.475,-0.23
00:08:04.700:1,-0.46,-0.245
00:08:04.704:1,-0.46,-0.28
00:08:04.708:1,-0.425,-0.27
00:08:04.712:1,-0.43,-0.25
00:08:04.716:1,-0.435,-0.275
00:08:04.720:1,-0.42,-0.265
00:08:04.724:1,-0.395,-0.285
00:08:04.728:1,-0.4,-0.28
00:08:04.732:1,-0.38,-0.295
00:08:04.736:1,-0.32,-0.29
00:08:04.740:1,-0.255,-0.29
00:08:04.744:1,-0.175,-0.29
00:08:04.748:1,-0.055,-0.285
00:08:04.752:1,0.035,-0.285
00:08:04.756:1,0.09,-0.33
00:08:04.760:1,0.13,-0.315
00:08:04.764:1,0.145,-0.31
00:08:04.768:1,0.12,-0.28
00:08:04.772:1,0.07,-0.28
00:08:04.776:1,0.105,-0.295
00:08:04.780:1,0.305,-0.39
00:08:04.784:1,0.61,-0.61
00:08:04.788:1,0.925,-0.85
00:08:04.792:1,1.09,-1.11
00:08:04.796:1,0.975,-1.205
00:08:04.800:1,0.565,-1.105
00:08:04.804:1,0.145,-0.82
00:08:04.808:1,-0.135,-0.515
00:08:04.812:1,-0.26,-0.345
00:08:04.816:1,-0.355,-0.18
00:08:04.820:1,-0.395,-0.15
00:08:04.824:1,-0.425,-0.145
00:08:04.828:1,-0.46,-0.145
00:08:04.832:1,-0.48,-0.15
00:08:04.836:1,-0.495,-0.17
00:08:04.840:1,-0.525,-0.19
00:08:04.844:1,-0.52,-0.205
00:08:04.848:1,-0.52,-0.255
00:08:04.852:1,-0.495,-0.245
00:08:04.856:1,-0.485,-0.265
00:08:04.860:1,-0.485,-0.24
00:08:04.864:1,-0.525,-0.245
00:08:04.868:1,-0.52,-0.245
00:08:04.872:1,-0.525,-0.255
00:08:04.876:1,-0.555,-0.25
00:08:04.880:1,-0.505,-0.245
00:08:04.884:1,-0.5,-0.245
00:08:04.888:1,-0.515,-0.245
00:08:04.892:1,-0.525,-0.25
00:08:04.896:1,-0.53,-0.25
00:08:04.900:1,-0.525,-0.235
00:08:04.904:1,-0.535,-0.235
00:08:04.908:1,-0.55,-0.25
00:08:04.912:1,-0.565,-0.25
00:08:04.916:1,-0.585,-0.265
00:08:04.920:1,-0.585,-0.26
00:08:04.924:1,-0.575,-0.255
00:08:04.928:1,-0.575,-0.25
00:08:04.932:1,-0.59,-0.25
00:08:04.936:1,-0.605,-0.265
00:08:04.940:1,-0.575,-0.27
00:08:04.944:1,-0.575,-0.265
00:08:04.948:1,-0.585,-0.265
00:08:04.952:1,-0.595,-0.26
00:08:04.956:1,-0.595,-0.265
00:08:04.960:1,-0.585,-0.265
00:08:04.964:1,-0.57,-0.26
00:08:04.968:1,-0.545,-0.265
00:08:04.972:1,-0.515,-0.26
00:08:04.976:1,-0.51,-0.255
00:08:04.980:1,-0.525,-0.25
00:08:04.984:1,-0.52,-0.255
00:08:04.988:1,-0.48,-0.255
00:08:04.992:1,-0.47,-0.24
00:08:04.996:1,-0.46,-0.24
00:08:05.000:1,-0.455,-0.27
00:08:05.004:1,-0.44,-0.27
00:08:05.008:1,-0.44,-0.28
00:08:05.012:1,-0.43,-0.265
00:08:05.016:1,-0.425,-0.265
00:08:05.020:1,-0.415,-0.26
00:08:05.024:1,-0.41,-0.27
00:08:05.028:1,-0.4,-0.27
00:08:05.032:1,-0.385,-0.285
00:08:05.036:1,-0.395,-0.295
00:08:05.040:1,-0.38,-0.285
00:08:05.044:1,-0.355,-0.285
00:08:05.048:1,-0.35,-0.3
00:08:05.052:1,-0.355,-0.28
00:08:05.056:1,-0.355,-0.275
00:08:05.060:1,-0.34,-0.285
00:08:05.064:1,-0.345,-0.28
00:08:05.068:1,-0.32,-0.275
00:08:05.072:1,-0.28,-0.27
00:08:05.076:1,-0.28,-0.265
00:08:05.080:1,-0.275,-0.26
00:08:05.084:1,-0.295,-0.275
00:08:05.088:1,-0.28,-0.24
00:08:05.092:1,-0.305,-0.235
00:08:05.096:1,-0.27,-0.235
00:08:05.100:1,-0.275,-0.24
00:08:05.104:1,-0.26,-0.235
00:08:05.108:1,-0.28,-0.23
00:08:05.112:1,-0.28,-0.235
00:08:05.116:1,-0.25,-0.24
00:08:05.120:1,-0.29,-0.24
00:08:05.124:1,-0.285,-0.23
00:08:05.128:1,-0.31,-0.245
00:08:05.132:1,-0.31,-0.235
00:08:05.136:1,-0.285,-0.225
00:08:05.140:1,-0.295,-0.23
00:08:05.144:1,-0.29,-0.255
00:08:05.148:1,-0.295,-0.255
00:08:05.152:1,-0.305,-0.245
00:08:05.156:1,-0.315,-0.245
00:08:05.160:1,-0.33,-0.24
00:08:05.164:1,-0.32,-0.235
00:08:05.168:1,-0.31,-0.225
00:08:05.172:1,-0.3,-0.2
00:08:05.176:1,-0.285,-0.22
00:08:05.180:1,-0.265,-0.22
00:08:05.184:1,-0.245,-0.21
00:08:05.188:1,-0.25,-0.215
00:08:05.192:1,-0.235,-0.22
00:08:05.196:1,-0.235,-0.22
00:08:05.200:1,-0.23,-0.23
00:08:05.204:1,-0.215,-0.21
00:08:05.208:1,-0.215,-0.17
00:08:05.212:1,-0.19,-0.185
00:08:05.216:1,-0.14,-0.18
00:08:05.220:1,-0.105,-0.19
00:08:05.224:1,-0.075,-0.18
00:08:05.228:1,-0.055,-0.16
00:08:05.232:1,-0.035,-0.17
00:08:05.236:1,-0.035,-0.175
00:08:05.240:1,0.02,-0.16
00:08:05.244:1,0.0,-0.16
00:08:05.248:1,0.0,-0.175
00:08:05.252:1,-0.015,-0.195
00:08:05.256:1,-0.05,-0.215
00:08:05.260:1,-0.115,-0.245
00:08:05.264:1,-0.14,-0.235
00:08:05.268:1,-0.215,-0.235
00:08:05.272:1,-0.27,-0.245
00:08:05.276:1,-0.31,-0.245
00:08:05.280:1,-0.355,-0.22
00:08:05.284:1,-0.395,-0.21
00:08:05.288:1,-0.405,-0.2
00:08:05.292:1,-0.38,-0.22
00:08:05.296:1,-0.38,-0.205
00:08:05.300:1,-0.39,-0.22
00:08:05.304:1,-0.38,-0.215
00:08:05.308:1,-0.37,-0.225
00:08:05.312:1,-0.365,-0.22
00:08:05.316:1,-0.36,-0.21
00:08:05.320:1,-0.355,-0.215
00:08:05.324:1,-0.375,-0.24
00:08:05.328:1,-0.39,-0.215
00:08:05.332:1,-0.355,-0.225
00:08:05.336:1,-0.37,-0.21
00:08:05.340:1,-0.365,-0.22
00:08:05.344:1,-0.345,-0.235
00:08:05.348:1,-0.37,-0.235
00:08:05.352:1,-0.375,-0.215
00:08:05.356:1,-0.35,-0.215
00:08:05.360:1,-0.37,-0.22
00:08:05.364:1,-0.365,-0.225
00:08:05.368:1,-0.37,-0.23
00:08:05.372:1,-0.345,-0.23
00:08:05.376:1,-0.345,-0.235
00:08:05.380:1,-0.335,-0.215
00:08:05.384:1,-0.325,-0.23
00:08:05.388:1,-0.29,-0.225
00:08:05.392:1,-0.25,-0.23
00:08:05.396:1,-0.19,-0.235
00:08:05.400:1,-0.08,-0.235
00:08:05.404:1,0.02,-0.24
00:08:05.408:1,0.11,-0.255
00:08:05.412:1,0.155,-0.295
00:08:05.416:1,0.215,-0.31
00:08:05.420:1,0.255,-0.285
00:08:05.424:1,0.215,-0.27
00:08:05.428:1,0.18,-0.285
00:08:05.432:1,0.2,-0.335
00:08:05.436:1,0.355,-0.44
00:08:05.440:1,0.655,-0.63
00:08:05.444:1,0.975,-0.89
00:08:05.448:1,1.175,-1.09
00:08:05.452:1,1.145,-1.215
00:08:05.456:1,0.805,-1.165
00:08:05.460:1,0.295,-0.875
00:08:05.464:1,-0.045,-0.565
00:08:05.468:1,-0.225,-0.325
00:08:05.472:1,-0.32,-0.215
00:08:05.476:1,-0.335,-0.11
00:08:05.480:1,-0.385,-0.05
00:08:05.484:1,-0.415,-0.055
00:08:05.488:1,-0.43,-0.05
00:08:05.492:1,-0.445,-0.06
00:08:05.496:1,-0.47,-0.075
00:08:05.500:1,-0.505,-0.09
00:08:05.504:1,-0.505,-0.14
00:08:05.508:1,-0.49,-0.135
00:08:05.512:1,-0.47,-0.12
00:08:05.516:1,-0.485,-0.1
00:08:05.520:1,-0.49,-0.12
00:08:05.524:1,-0.49,-0.12
00:08:05.528:1,-0.495,-0.105
00:08:05.532:1,-0.505,-0.13
00:08:05.536:1,-0.515,-0.125
00:08:05.540:1,-0.5,-0.115
00:08:05.544:1,-0.52,-0.11
00:08:05.548:1,-0.53,-0.13
00:08:05.552:1,-0.52,-0.145
00:08:05.556:1,-0.55,-0.125
00:08:05.560:1,-0.535,-0.13
00:08:05.564:1,-0.57,-0.135
00:08:05.568:1,-0.575,-0.145
00:08:05.572:1,-0.575,-0.15
00:08:05.576:1,-0.585,-0.14
00:08:05.580:1,-0.585,-0.13
00:08:05.584:1,-0.61,-0.145
00:08:05.588:1,-0.6,-0.155
00:08:05.592:1,-0.6,-0.135
00:08:05.596:1,-0.6,-0.14
00:08:05.600:1,-0.61,-0.14
00:08:05.604:1,-0.605,-0.155
00:08:05.608:1,-0.62,-0.135
00:08:05.612:1,-0.63,-0.13
00:08:05.616:1,-0.63,-0.125
00:08:05.620:1,-0.605,-0.14
00:08:05.624:1,-0.595,-0.14
00:08:05.628:1,-0.575,-0.14
00:08:05.632:1,-0.575,-0.15
00:08:05.636:1,-0.575,-0.14
00:08:05.640:1,-0.565,-0.125
00:08:05.644:1,-0.55,-0.15
00:08:05.648:1,-0.555,-0.14
00:08:05.652:1,-0.53,-0.145
00:08:05.656:1,-0.515,-0.16
00:08:05.660:1,-0.505,-0.145
00:08:05.664:1,-0.51,-0.155
00:08:05.668:1,-0.5,-0.165
00:08:05.672:1,-0.485,-0.165
00:08:05.676:1,-0.48,-0.185
00:08:05.680:1,-0.475,-0.195
00:08:05.684:1,-0.445,-0.18
00:08:05.688:1,-0.45,-0.185
00:08:05.692:1,-0.44,-0.185
00:08:05.696:1,-0.41,-0.21
00:08:05.700:1,-0.43,-0.195
00:08:05.704:1,-0.4,-0.2
00:08:05.708:1,-0.395,-0.2
00:08:05.712:1,-0.4,-0.205
00:08:05.716:1,-0.39,-0.175
00:08:05.720:1,-0.385,-0.175
00:08:05.724:1,-0.37,-0.195
00:08:05.728:1,-0.36,-0.195
00:08:05.732:1,-0.34,-0.2
00:08:05.736:1,-0.34,-0.165
00:08:05.740:1,-0.35,-0.195
00:08:05.744:1,-0.33,-0.18
00:08:05.748:1,-0.345,-0.16
00:08:05.752:1,-0.35,-0.16
00:08:05.756:1,-0.335,-0.16
00:08:05.760:1,-0.34,-0.165
00:08:05.764:1,-0.35,-0.135
00:08:05.768:1,-0.34,-0.125
00:08:05.772:1,-0.335,-0.16
00:08:05.776:1,-0.355,-0.145
00:08:05.780:1,-0.35,-0.135
00:08:05.784:1,-0.355,-0.15
00:08:05.788:1,-0.37,-0.155
00:08:05.792:1,-0.36,-0.15
00:08:05.796:1,-0.37,-0.145
00:08:05.800:1,-0.36,-0.16
00:08:05.804:1,-0.39,-0.16
00:08:05.808:1,-0.37,-0.14
00:08:05.812:1,-0.39,-0.135
00:08:05.816:1,-0.375,-0.145
00:08:05.820:1,-0.38,-0.135
00:08:05.824:1,-0.37,-0.15
00:08:05.828:1,-0.38,-0.15
00:08:05.832:1,-0.35,-0.13
00:08:05.836:1,-0.345,-0.15
00:08:05.840:1,-0.31,-0.13
00:08:05.844:1,-0.295,-0.125
00:08:05.848:1,-0.315,-0.12
00:08:05.852:1,-0.295,-0.115
00:08:05.856:1,-0.285,-0.115
00:08:05.860:1,-0.26,-0.095
00:08:05.864:1,-0.205,-0.055
00:08:05.868:1,-0.17,-0.075
00:08:05.872:1,-0.155,-0.065
00:08:05.876:1,-0.15,-0.055
00:08:05.880:1,-0.1,-0.065
00:08:05.884:1,-0.095,-0.065
00:08:05.888:1,-0.065,-0.045
00:08:05.892:1,-0.05,-0.09
00:08:05.896:1,-0.095,-0.105
00:08:05.900:1,-0.11,-0.09
00:08:05.904:1,-0.155,-0.15
00:08:05.908:1,-0.21,-0.15
00:08:05.912:1,-0.26,-0.175
00:08:05.916:1,-0.325,-0.15
00:08:05.920:1,-0.36,-0.145
00:08:05.924:1,-0.405,-0.165
00:08:05.928:1,-0.445,-0.135
00:08:05.932:1,-0.46,-0.155
00:08:05.936:1,-0.475,-0.125
00:08:05.940:1,-0.47,-0.125
00:08:05.944:1,-0.475,-0.14
00:08:05.948:1,-0.475,-0.11
00:08:05.952:1,-0.465,-0.16
00:08:05.956:1,-0.445,-0.15
00:08:05.960:1,-0.44,-0.13
00:08:05.964:1,-0.425,-0.14
00:08:05.968:1,-0.425,-0.145
00:08:05.972:1,-0.44,-0.14
00:08:05.976:1,-0.45,-0.135
00:08:05.980:1,-0.425,-0.115
00:08:05.984:1,-0.42,-0.155
00:08:05.988:1,-0.435,-0.145
00:08:05.992:1,-0.44,-0.125
00:08:05.996:1,-0.425,-0.145
00:08:06.000:1,-0.44,-0.145
00:08:06.004:1,-0.445,-0.145
00:08:06.008:1,-0.445,-0.16
00:08:06.012:1,-0.445,-0.14
00:08:06.016:1,-0.445,-0.13
00:08:06.020:1,-0.435,-0.14
00:08:06.024:1,-0.42,-0.16
00:08:06.028:1,-0.41,-0.145
00:08:06.032:1,-0.4,-0.165
00:08:06.036:1,-0.38,-0.165
00:08:06.040:1,-0.34,-0.16
00:08:06.044:1,-0.275,-0.16
00:08:06.048:1,-0.19,-0.16
00:08:06.052:1,-0.085,-0.135
00:08:06.056:1,-0.03,-0.18
00:08:06.060:1,0.015,-0.22
00:08:06.064:1,0.045,-0.215
00:08:06.068:1,0.055,-0.205
00:08:06.072:1,0.04,-0.2
00:08:06.076:1,0.005,-0.23
00:08:06.080:1,0.055,-0.3
00:08:06.084:1,0.24,-0.415
00:08:06.088:1,0.555,-0.62
00:08:06.092:1,0.885,-0.88
00:08:06.096:1,1.1,-1.11
00:08:06.100:1,1.055,-1.22
00:08:06.104:1,0.725,-1.09
00:08:06.108:1,0.26,-0.79
00:08:06.112:1,-0.085,-0.425
00:08:06.116:1,-0.28,-0.17
00:08:06.120:1,-0.37,-0.05
00:08:06.124:1,-0.43,0.02
00:08:06.128:1,-0.455,0.03
00:08:06.132:1,-0.465,0.025
00:08:06.136:1,-0.485,0.01
00:08:06.140:1,-0.505,0.0
00:08:06.144:1,-0.505,-0.015
00:08:06.148:1,-0.515,-0.025
00:08:06.152:1,-0.52,-0.05
00:08:06.156:1,-0.52,-0.065
00:08:06.160:1,-0.53,-0.07
00:08:06.164:1,-0.53,-0.08
00:08:06.168:1,-0.525,-0.075
00:08:06.172:1,-0.52,-0.055
00:08:06.176:1,-0.5,-0.055
00:08:06.180:1,-0.515,-0.06
00:08:06.184:1,-0.515,-0.04
00:08:06.188:1,-0.53,-0.05
00:08:06.192:1,-0.52,-0.04
00:08:06.196:1,-0.505,-0.07
00:08:06.200:1,-0.525,-0.055
00:08:06.204:1,-0.54,-0.045
00:08:06.208:1,-0.54,-0.07
00:08:06.212:1,-0.535,-0.065
00:08:06.216:1,-0.54,-0.065
00:08:06.220:1,-0.565,-0.07
00:08:06.224:1,-0.565,-0.055
00:08:06.228:1,-0.57,-0.055
00:08:06.232:1,-0.585,-0.06
00:08:06.236:1,-0.605,-0.07
00:08:06.240:1,-0.615,-0.06
00:08:06.244:1,-0.625,-0.07
00:08:06.248:1,-0.615,-0.1
00:08:06.252:1,-0.605,-0.095
00:08:06.256:1,-0.595,-0.1
00:08:06.260:1,-0.6,-0.115
00:08:06.264:1,-0.605,-0.105
00:08:06.268:1,-0.61,-0.09
00:08:06.272:1,-0.585,-0.085
00:08:06.276:1,-0.585,-0.09
00:08:06.280:1,-0.6,-0.085
00:08:06.284:1,-0.57,-0.085
00:08:06.288:1,-0.56,-0.085
00:08:06.292:1,-0.525,-0.06
00:08:06.296:1,-0.505,-0.075
00:08:06.300:1,-0.5,-0.065
00:08:06.304:1,-0.5,-0.09
00:08:06.308:1,-0.48,-0.075
00:08:06.312:1,-0.465,-0.1
00:08:06.316:1,-0.465,-0.095
00:08:06.320:1,-0.46,-0.1
00:08:06.324:1,-0.44,-0.105
00:08:06.328:1,-0.41,-0.115
00:08:06.332:1,-0.415,-0.12
00:08:06.336:1,-0.42,-0.11
00:08:06.340:1,-0.42,-0.135
00:08:06.344:1,-0.4,-0.12
00:08:06.348:1,-0.4,-0.11
00:08:06.352:1,-0.375,-0.14
00:08:06.356:1,-0.37,-0.155
00:08:06.360:1,-0.365,-0.15
00:08:06.364:1,-0.335,-0.135
00:08:06.368:1,-0.345,-0.12
00:08:06.372:1,-0.345,-0.115
00:08:06.376:1,-0.33,-0.135
00:08:06.380:1,-0.34,-0.15
00:08:06.384:1,-0.335,-0.11
00:08:06.388:1,-0.325,-0.115
00:08:06.392:1,-0.315,-0.12
00:08:06.396:1,-0.305,-0.12
00:08:06.400:1,-0.295,-0.105
00:08:06.404:1,-0.29,-0.08
00:08:06.408:1,-0.315,-0.1
00:08:06.412:1,-0.305,-0.095
00:08:06.416:1,-0.295,-0.07
00:08:06.420:1,-0.305,-0.065
00:08:06.424:1,-0.305,-0.08
00:08:06.428:1,-0.3,-0.1
00:08:06.432:1,-0.285,-0.065
00:08:06.436:1,-0.305,-0.075
00:08:06.440:1,-0.305,-0.08
00:08:06.444:1,-0.315,-0.07
00:08:06.448:1,-0.325,-0.085
00:08:06.452:1,-0.335,-0.1
00:08:06.456:1,-0.34,-0.1
00:08:06.460:1,-0.32,-0.075
00:08:06.464:1,-0.31,-0.08
00:08:06.468:1,-0.32,-0.075
00:08:06.472:1,-0.32,-0.08
00:08:06.476:1,-0.33,-0.1
00:08:06.480:1,-0.295,-0.095
00:08:06.484:1,-0.28,-0.1
00:08:06.488:1,-0.27,-0.1
00:08:06.492:1,-0.255,-0.07
00:08:06.496:1,-0.215,-0.095
00:08:06.500:1,-0.23,-0.08
00:08:06.504:1,-0.19,-0.075
00:08:06.508:1,-0.135,-0.07
00:08:06.512:1,-0.085,-0.045
00:08:06.516:1,-0.075,-0.045
00:08:06.520:1,-0.055,-0.035
00:08:06.524:1,-0.04,-0.025
00:08:06.528:1,-0.03,-0.02
00:08:06.532:1,0.005,-0.015
00:08:06.536:1,0.005,-0.005
00:08:06.540:1,-0.005,-0.04
00:08:06.544:1,-0.025,-0.08
00:08:06.548:1,-0.105,-0.09
00:08:06.552:1,-0.12,-0.12
00:08:06.556:1,-0.185,-0.125
00:08:06.560:1,-0.24,-0.125
00:08:06.564:1,-0.3,-0.11
00:08:06.568:1,-0.36,-0.1
00:08:06.572:1,-0.39,-0.085
00:08:06.576:1,-0.41,-0.1
00:08:06.580:1,-0.43,-0.11
00:08:06.584:1,-0.41,-0.1
00:08:06.588:1,-0.415,-0.11
00:08:06.592:1,-0.43,-0.135
00:08:06.596:1,-0.42,-0.145
00:08:06.600:1,-0.43,-0.14
00:08:06.604:1,-0.43,-0.13
00:08:06.608:1,-0.42,-0.14
00:08:06.612:1,-0.385,-0.16
00:08:06.616:1,-0.395,-0.145
00:08:06.620:1,-0.37,-0.155
00:08:06.624:1,-0.38,-0.14
00:08:06.628:1,-0.35,-0.15
00:08:06.632:1,-0.35,-0.15
00:08:06.636:1,-0.36,-0.135
00:08:06.640:1,-0.365,-0.12
00:08:06.644:1,-0.38,-0.13
00:08:06.648:1,-0.38,-0.145
00:08:06.652:1,-0.385,-0.135
00:08:06.656:1,-0.36,-0.14
00:08:06.660:1,-0.37,-0.15
00:08:06.664:1,-0.385,-0.16
00:08:06.668:1,-0.39,-0.16
00:08:06.672:1,-0.37,-0.145
00:08:06.676:1,-0.365,-0.135
00:08:06.680:1,-0.32,-0.185
00:08:06.684:1,-0.3,-0.16
00:08:06.688:1,-0.215,-0.165
00:08:06.692:1,-0.135,-0.195
00:08:06.696:1,-0.04,-0.185
00:08:06.700:1,0.02,-0.185
00:08:06.704:1,0.075,-0.215
00:08:06.708:1,0.095,-0.25
00:08:06.712:1,0.14,-0.225
00:08:06.716:1,0.09,-0.205
00:08:06.720:1,0.055,-0.225
00:08:06.724:1,0.11,-0.295
00:08:06.728:1,0.29,-0.4
00:08:06.732:1,0.585,-0.58
00:08:06.736:1,0.91,-0.83
00:08:06.740:1,1.16,-1.065
00:08:06.744:1,1.135,-1.205
00:08:06.748:1,0.835,-1.12
00:08:06.752:1,0.36,-0.81
00:08:06.756:1,-0.01,-0.48
00:08:06.760:1,-0.18,-0.21
00:08:06.764:1,-0.28,-0.06
00:08:06.768:1,-0.315,0.01
00:08:06.772:1,-0.34,0.005
00:08:06.776:1,-0.37,0.0
00:08:06.780:1,-0.405,0.01
00:08:06.784:1,-0.455,-0.005
00:08:06.788:1,-0.45,-0.04
00:08:06.792:1,-0.46,-0.06
00:08:06.796:1,-0.48,-0.115
00:08:06.800:1,-0.47,-0.095
00:08:06.804:1,-0.465,-0.115
00:08:06.808:1,-0.47,-0.13
00:08:06.812:1,-0.475,-0.12
00:08:06.816:1,-0.475,-0.12
00:08:06.820:1,-0.47,-0.13
00:08:06.824:1,-0.455,-0.12
00:08:06.828:1,-0.48,-0.12
00:08:06.832:1,-0.465,-0.125
00:08:06.836:1,-0.455,-0.12
00:08:06.840:1,-0.455,-0.125
00:08:06.844:1,-0.455,-0.12
00:08:06.848:1,-0.455,-0.125
00:08:06.852:1,-0.46,-0.105
00:08:06.856:1,-0.47,-0.11
00:08:06.860:1,-0.465,-0.12
00:08:06.864:1,-0.46,-0.13
00:08:06.868:1,-0.48,-0.14
00:08:06.872:1,-0.5,-0.145
00:08:06.876:1,-0.51,-0.145
00:08:06.880:1,-0.51,-0.14
00:08:06.884:1,-0.48,-0.13
00:08:06.888:1,-0.505,-0.14
00:08:06.892:1,-0.52,-0.145
00:08:06.896:1,-0.52,-0.16
00:08:06.900:1,-0.525,-0.16
00:08:06.904:1,-0.525,-0.135
00:08:06.908:1,-0.525,-0.15
00:08:06.912:1,-0.505,-0.155
00:08:06.916:1,-0.51,-0.165
00:08:06.920:1,-0.495,-0.145
00:08:06.924:1,-0.48,-0.165
00:08:06.928:1,-0.47,-0.17
00:08:06.932:1,-0.445,-0.16
00:08:06.936:1,-0.42,-0.175
00:08:06.940:1,-0.405,-0.175
00:08:06.944:1,-0.37,-0.18
00:08:06.948:1,-0.375,-0.19
00:08:06.952:1,-0.355,-0.18
00:08:06.956:1,-0.38,-0.215
00:08:06.960:1,-0.375,-0.195
00:08:06.964:1,-0.365,-0.18
00:08:06.968:1,-0.345,-0.185
00:08:06.972:1,-0.305,-0.16
00:08:06.976:1,-0.29,-0.185
00:08:06.980:1,-0.285,-0.19
00:08:06.984:1,-0.295,-0.18
00:08:06.988:1,-0.28,-0.195
00:08:06.992:1,-0.285,-0.195
00:08:06.996:1,-0.285,-0.21
00:08:07.000:1,-0.28,-0.205
00:08:07.004:1,-0.245,-0.2
00:08:07.008:1,-0.245,-0.195
00:08:07.012:1,-0.24,-0.2
00:08:07.016:1,-0.225,-0.2
00:08:07.020:1,-0.205,-0.2
00:08:07.024:1,-0.21,-0.195
00:08:07.028:1,-0.225,-0.185
00:08:07.032:1,-0.21,-0.2
00:08:07.036:1,-0.21,-0.215
00:08:07.040:1,-0.205,-0.205
00:08:07.044:1,-0.2,-0.205
00:08:07.048:1,-0.195,-0.195
00:08:07.052:1,-0.175,-0.18
00:08:07.056:1,-0.155,-0.17
00:08:07.060:1,-0.17,-0.175
00:08:07.064:1,-0.165,-0.16
00:08:07.068:1,-0.165,-0.17
00:08:07.072:1,-0.175,-0.16
00:08:07.076:1,-0.19,-0.155
00:08:07.080:1,-0.18,-0.165
00:08:07.084:1,-0.18,-0.145
00:08:07.088:1,-0.165,-0.135
00:08:07.092:1,-0.205,-0.145
00:08:07.096:1,-0.2,-0.17
00:08:07.100:1,-0.195,-0.185
00:08:07.104:1,-0.185,-0.16
00:08:07.108:1,-0.19,-0.16
00:08:07.112:1,-0.19,-0.175
00:08:07.116:1,-0.2,-0.16
00:08:07.120:1,-0.205,-0.18
00:08:07.124:1,-0.19,-0.18
00:08:07.128:1,-0.175,-0.18
00:08:07.132:1,-0.15,-0.175
00:08:07.136:1,-0.125,-0.19
00:08:07.140:1,-0.115,-0.185
00:08:07.144:1,-0.12,-0.175
00:08:07.148:1,-0.1,-0.17
00:08:07.152:1,-0.1,-0.175
00:08:07.156:1,-0.095,-0.15
00:08:07.160:1,-0.05,-0.145
00:08:07.164:1,-0.005,-0.135
00:08:07.168:1,0.035,-0.13
00:08:07.172:1,0.06,-0.11
00:08:07.176:1,0.105,-0.11
00:08:07.180:1,0.135,-0.11
00:08:07.184:1,0.185,-0.095
00:08:07.188:1,0.165,-0.065
00:08:07.192:1,0.165,-0.095
00:08:07.196:1,0.11,-0.13
00:08:07.200:1,0.075,-0.15
00:08:07.204:1,0.03,-0.16
00:08:07.208:1,-0.015,-0.18
00:08:07.212:1,-0.085,-0.19
00:08:07.216:1,-0.135,-0.19
00:08:07.220:1,-0.2,-0.19
00:08:07.224:1,-0.225,-0.165
00:08:07.228:1,-0.235,-0.17
00:08:07.232:1,-0.25,-0.175
00:08:07.236:1,-0.265,-0.19
00:08:07.240:1,-0.255,-0.205
00:08:07.244:1,-0.23,-0.2
00:08:07.248:1,-0.25,-0.225
00:08:07.252:1,-0.235,-0.21
00:08:07.256:1,-0.225,-0.225
00:08:07.260:1,-0.25,-0.225
00:08:07.264:1,-0.22,-0.2
00:08:07.268:1,-0.215,-0.235
00:08:07.272:1,-0.23,-0.21
00:08:07.276:1,-0.205,-0.225
00:08:07.280:1,-0.22,-0.225
00:08:07.284:1,-0.19,-0.21
00:08:07.288:1,-0.215,-0.205
00:08:07.292:1,-0.21,-0.2
00:08:07.296:1,-0.2,-0.21
00:08:07.300:1,-0.2,-0.215
00:08:07.304:1,-0.195,-0.22
00:08:07.308:1,-0.195,-0.21
00:08:07.312:1,-0.19,-0.23
00:08:07.316:1,-0.2,-0.23
00:08:07.320:1,-0.205,-0.205
00:08:07.324:1,-0.21,-0.225
00:08:07.328:1,-0.17,-0.245
00:08:07.332:1,-0.15,-0.215
00:08:07.336:1,-0.1,-0.23
00:08:07.340:1,-0.035,-0.25
00:08:07.344:1,0.065,-0.23
00:08:07.348:1,0.145,-0.265
00:08:07.352:1,0.245,-0.275
00:08:07.356:1,0.3,-0.305
00:08:07.360:1,0.355,-0.345
00:08:07.364:1,0.37,-0.295
00:08:07.368:1,0.375,-0.275
00:08:07.372:1,0.32,-0.29
00:08:07.376:1,0.36,-0.33
00:08:07.380:1,0.555,-0.41
00:08:07.384:1,0.83,-0.605
00:08:07.388:1,1.155,-0.855
00:08:07.392:1,1.3,-1.075
00:08:07.396:1,1.21,-1.185
00:08:07.400:1,0.82,-1.08
00:08:07.404:1,0.375,-0.79
00:08:07.408:1,0.065,-0.46
00:08:07.412:1,-0.075,-0.27
00:08:07.416:1,-0.135,-0.165
00:08:07.420:1,-0.175,-0.085
00:08:07.424:1,-0.22,-0.04
00:08:07.428:1,-0.25,-0.035
00:08:07.432:1,-0.28,-0.05
00:08:07.436:1,-0.32,-0.055
00:08:07.440:1,-0.315,-0.09
00:08:07.444:1,-0.325,-0.105
00:08:07.448:1,-0.335,-0.145
00:08:07.452:1,-0.34,-0.135
00:08:07.456:1,-0.355,-0.155
00:08:07.460:1,-0.33,-0.155
00:08:07.464:1,-0.34,-0.14
00:08:07.468:1,-0.345,-0.135
00:08:07.472:1,-0.35,-0.14
00:08:07.476:1,-0.355,-0.135
00:08:07.480:1,-0.355,-0.12
00:08:07.484:1,-0.355,-0.12
00:08:07.488:1,-0.345,-0.135
00:08:07.492:1,-0.34,-0.14
00:08:07.496:1,-0.36,-0.135
00:08:07.500:1,-0.345,-0.115
00:08:07.504:1,-0.355,-0.12
00:08:07.508:1,-0.36,-0.115
00:08:07.512:1,-0.385,-0.105
00:08:07.516:1,-0.38,-0.095
00:08:07.520:1,-0.38,-0.125
00:08:07.524:1,-0.375,-0.12
00:08:07.528:1,-0.4,-0.125
00:08:07.532:1,-0.4,-0.135
00:08:07.536:1,-0.405,-0.115
00:08:07.540:1,-0.415,-0.12
00:08:07.544:1,-0.44,-0.12
00:08:07.548:1,-0.455,-0.12
00:08:07.552:1,-0.45,-0.125
00:08:07.556:1,-0.45,-0.13
00:08:07.560:1,-0.45,-0.13
00:08:07.564:1,-0.445,-0.125
00:08:07.568:1,-0.44,-0.12
00:08:07.572:1,-0.42,-0.13
00:08:07.576:1,-0.43,-0.11
00:08:07.580:1,-0.42,-0.14
00:08:07.584:1,-0.395,-0.145
00:08:07.588:1,-0.405,-0.13
00:08:07.592:1,-0.395,-0.13
00:08:07.596:1,-0.38,-0.14
00:08:07.600:1,-0.375,-0.13
00:08:07.604:1,-0.35,-0.15
00:08:07.608:1,-0.355,-0.14
00:08:07.612:1,-0.325,-0.13
00:08:07.616:1,-0.31,-0.145
00:08:07.620:1,-0.295,-0.145
00:08:07.624:1,-0.285,-0.155
00:08:07.628:1,-0.28,-0.165
00:08:07.632:1,-0.26,-0.16
00:08:07.636:1,-0.255,-0.17
00:08:07.640:1,-0.245,-0.17
00:08:07.644:1,-0.25,-0.18
00:08:07.648:1,-0.235,-0.165
00:08:07.652:1,-0.24,-0.17
00:08:07.656:1,-0.235,-0.175
00:08:07.660:1,-0.24,-0.18
00:08:07.664:1,-0.23,-0.18
00:08:07.668:1,-0.22,-0.175
00:08:07.672:1,-0.215,-0.175
00:08:07.676:1,-0.2,-0.175
00:08:07.680:1,-0.2,-0.18
00:08:07.684:1,-0.205,-0.16
00:08:07.688:1,-0.2,-0.175
00:08:07.692:1,-0.19,-0.14
00:08:07.696:1,-0.21,-0.15
00:08:07.700:1,-0.215,-0.145
00:08:07.704:1,-0.195,-0.14
00:08:07.708:1,-0.185,-0.135
00:08:07.712:1,-0.18,-0.135
00:08:07.716:1,-0.195,-0.12
00:08:07.720:1,-0.2,-0.125
00:08:07.724:1,-0.2,-0.115
00:08:07.728:1,-0.195,-0.125
00:08:07.732:1,-0.185,-0.11
00:08:07.736:1,-0.19,-0.1
00:08:07.740:1,-0.2,-0.11
00:08:07.744:1,-0.205,-0.115
00:08:07.748:1,-0.205,-0.09
00:08:07.752:1,-0.21,-0.125
00:08:07.756:1,-0.225,-0.12
00:08:07.760:1,-0.235,-0.115
00:08:07.764:1,-0.24,-0.115
00:08:07.768:1,-0.245,-0.12
00:08:07.772:1,-0.24,-0.135
00:08:07.776:1,-0.205,-0.125
00:08:07.780:1,-0.215,-0.13
00:08:07.784:1,-0.205,-0.105
00:08:07.788:1,-0.18,-0.13
00:08:07.792:1,-0.185,-0.105
00:08:07.796:1,-0.19,-0.1
00:08:07.800:1,-0.175,-0.06
00:08:07.804:1,-0.13,-0.095
00:08:07.808:1,-0.06,-0.075
00:08:07.812:1,-0.035,-0.055
00:08:07.816:1,-0.015,-0.04
00:08:07.820:1,0.0,-0.035
00:08:07.824:1,0.03,-0.055
00:08:07.828:1,0.06,-0.03
00:08:07.832:1,0.08,-0.02
00:08:07.836:1,0.07,-0.04
00:08:07.840:1,0.045,-0.06
00:08:07.844:1,0.0,-0.09
00:08:07.848:1,-0.05,-0.115
00:08:07.852:1,-0.07,-0.115
00:08:07.856:1,-0.14,-0.11
00:08:07.860:1,-0.2,-0.12
00:08:07.864:1,-0.25,-0.125
00:08:07.868:1,-0.31,-0.115
00:08:07.872:1,-0.34,-0.115
00:08:07.876:1,-0.36,-0.08
00:08:07.880:1,-0.375,-0.105
00:08:07.884:1,-0.345,-0.12
00:08:07.888:1,-0.34,-0.125
00:08:07.892:1,-0.33,-0.145
00:08:07.896:1,-0.315,-0.125
00:08:07.900:1,-0.335,-0.13
00:08:07.904:1,-0.335,-0.13
00:08:07.908:1,-0.35,-0.13
00:08:07.912:1,-0.32,-0.12
00:08:07.916:1,-0.32,-0.12
00:08:07.920:1,-0.295,-0.125
00:08:07.924:1,-0.315,-0.12
00:08:07.928:1,-0.335,-0.125
00:08:07.932:1,-0.295,-0.13
00:08:07.936:1,-0.3,-0.145
00:08:07.940:1,-0.315,-0.125
00:08:07.944:1,-0.295,-0.125
00:08:07.948:1,-0.31,-0.12
00:08:07.952:1,-0.28,-0.12
00:08:07.956:1,-0.3,-0.125
00:08:07.960:1,-0.305,-0.135
00:08:07.964:1,-0.305,-0.14
00:08:07.968:1,-0.305,-0.145
00:08:07.972:1,-0.285,-0.145
00:08:07.976:1,-0.275,-0.13
00:08:07.980:1,-0.24,-0.155
00:08:07.984:1,-0.16,-0.14
00:08:07.988:1,-0.075,-0.145
00:08:07.992:1,0.01,-0.17
00:08:07.996:1,0.085,-0.205
00:08:08.000:1,0.11,-0.22
00:08:08.004:1,0.15,-0.23
00:08:08.008:1,0.16,-0.23
00:08:08.012:1,0.125,-0.21
00:08:08.016:1,0.09,-0.235
00:08:08.020:1,0.145,-0.295
00:08:08.024:1,0.405,-0.445
00:08:08.028:1,0.715,-0.62
00:08:08.032:1,1.055,-0.89
00:08:08.036:1,1.225,-1.12
00:08:08.040:1,1.165,-1.195
00:08:08.044:1,0.785,-1.065
00:08:08.048:1,0.33,-0.71
00:08:08.052:1,-0.01,-0.38
00:08:08.056:1,-0.155,-0.12
00:08:08.060:1,-0.26,-0.01
00:08:08.064:1,-0.3,0.05
00:08:08.068:1,-0.33,0.055
00:08:08.072:1,-0.36,0.05
00:08:08.076:1,-0.37,0.035
00:08:08.080:1,-0.405,0.045
00:08:08.084:1,-0.415,0.015
00:08:08.088:1,-0.425,0.005
00:08:08.092:1,-0.43,-0.035
00:08:08.096:1,-0.435,-0.015
00:08:08.100:1,-0.43,-0.035
00:08:08.104:1,-0.425,-0.07
00:08:08.108:1,-0.43,-0.045
00:08:08.112:1,-0.43,-0.035
00:08:08.116:1,-0.435,-0.025
00:08:08.120:1,-0.42,-0.045
00:08:08.124:1,-0.44,-0.045
00:08:08.128:1,-0.445,-0.04
00:08:08.132:1,-0.435,-0.03
00:08:08.136:1,-0.425,-0.035
00:08:08.140:1,-0.425,-0.025
00:08:08.144:1,-0.43,-0.04
00:08:08.148:1,-0.405,-0.045
00:08:08.152:1,-0.42,-0.045
00:08:08.156:1,-0.435,-0.015
00:08:08.160:1,-0.435,-0.015
00:08:08.164:1,-0.44,-0.01
00:08:08.168:1,-0.465,-0.015
00:08:08.172:1,-0.46,-0.04
00:08:08.176:1,-0.48,-0.02
00:08:08.180:1,-0.465,-0.015
00:08:08.184:1,-0.485,-0.02
00:08:08.188:1,-0.485,-0.04
00:08:08.192:1,-0.5,-0.045
00:08:08.196:1,-0.5,-0.04
00:08:08.200:1,-0.48,-0.03
00:08:08.204:1,-0.49,-0.035
00:08:08.208:1,-0.47,-0.06
00:08:08.212:1,-0.465,-0.075
00:08:08.216:1,-0.465,-0.07
00:08:08.220:1,-0.46,-0.06
00:08:08.224:1,-0.485,-0.08
00:08:08.228:1,-0.435,-0.095
00:08:08.232:1,-0.445,-0.075
00:08:08.236:1,-0.435,-0.085
00:08:08.240:1,-0.405,-0.075
00:08:08.244:1,-0.4,-0.08
00:08:08.248:1,-0.37,-0.08
00:08:08.252:1,-0.345,-0.095
00:08:08.256:1,-0.36,-0.095
00:08:08.260:1,-0.375,-0.105
00:08:08.264:1,-0.345,-0.095
00:08:08.268:1,-0.32,-0.115
00:08:08.272:1,-0.33,-0.12
00:08:08.276:1,-0.315,-0.125
00:08:08.280:1,-0.295,-0.12
00:08:08.284:1,-0.28,-0.1
00:08:08.288:1,-0.305,-0.115
00:08:08.292:1,-0.295,-0.115
00:08:08.296:1,-0.275,-0.105
00:08:08.300:1,-0.275,-0.12
00:08:08.304:1,-0.265,-0.105
00:08:08.308:1,-0.25,-0.105
00:08:08.312:1,-0.24,-0.105
00:08:08.316:1,-0.24,-0.11
00:08:08.320:1,-0.235,-0.115
00:08:08.324:1,-0.235,-0.115
00:08:08.328:1,-0.235,-0.12
00:08:08.332:1,-0.245,-0.1
00:08:08.336:1,-0.22,-0.08
00:08:08.340:1,-0.245,-0.09
00:08:08.344:1,-0.235,-0.055
00:08:08.348:1,-0.215,-0.08
00:08:08.352:1,-0.22,-0.08
00:08:08.356:1,-0.205,-0.085
00:08:08.360:1,-0.21,-0.06
00:08:08.364:1,-0.21,-0.055
00:08:08.368:1,-0.205,-0.07
00:08:08.372:1,-0.19,-0.085
00:08:08.376:1,-0.2,-0.07
00:08:08.380:1,-0.215,-0.055
00:08:08.384:1,-0.215,-0.08
00:08:08.388:1,-0.225,-0.065
00:08:08.392:1,-0.215,-0.05
00:08:08.396:1,-0.21,-0.06
00:08:08.400:1,-0.225,-0.06
00:08:08.404:1,-0.21,-0.05
00:08:08.408:1,-0.21,-0.06
00:08:08.412:1,-0.205,-0.055
00:08:08.416:1,-0.16,-0.065
00:08:08.420:1,-0.16,-0.07
00:08:08.424:1,-0.2,-0.07
00:08:08.428:1,-0.165,-0.085
00:08:08.432:1,-0.13,-0.06
00:08:08.436:1,-0.08,-0.055
00:08:08.440:1,-0.05,-0.04
00:08:08.444:1,-0.02,-0.005
00:08:08.448:1,-0.01,-0.015
00:08:08.452:1,0.02,-0.025
00:08:08.456:1,0.055,-0.005
00:08:08.460:1,0.065,-0.005
00:08:08.464:1,0.085,-0.025
00:08:08.468:1,0.065,-0.04
00:08:08.472:1,0.025,-0.06
00:08:08.476:1,-0.01,-0.1
00:08:08.480:1,-0.065,-0.08
00:08:08.484:1,-0.125,-0.105
00:08:08.488:1,-0.165,-0.09
00:08:08.492:1,-0.23,-0.09
00:08:08.496:1,-0.265,-0.09
00:08:08.500:1,-0.305,-0.075
00:08:08.504:1,-0.33,-0.065
00:08:08.508:1,-0.345,-0.09
00:08:08.512:1,-0.35,-0.06
00:08:08.516:1,-0.365,-0.07
00:08:08.520:1,-0.375,-0.095
00:08:08.524:1,-0.345,-0.11
00:08:08.528:1,-0.345,-0.11
00:08:08.532:1,-0.33,-0.12
00:08:08.536:1,-0.32,-0.12
00:08:08.540:1,-0.31,-0.14
00:08:08.544:1,-0.33,-0.145
00:08:08.548:1,-0.3,-0.135
00:08:08.552:1,-0.32,-0.15
00:08:08.556:1,-0.32,-0.16
00:08:08.560:1,-0.29,-0.17
00:08:08.564:1,-0.305,-0.14
00:08:08.568:1,-0.29,-0.15
00:08:08.572:1,-0.315,-0.13
00:08:08.576:1,-0.29,-0.13
00:08:08.580:1,-0.28,-0.14
00:08:08.584:1,-0.285,-0.145
00:08:08.588:1,-0.285,-0.14
00:08:08.592:1,-0.295,-0.15
00:08:08.596:1,-0.285,-0.145
00:08:08.600:1,-0.28,-0.14
00:08:08.604:1,-0.255,-0.185
00:08:08.608:1,-0.21,-0.17
00:08:08.612:1,-0.155,-0.19
00:08:08.616:1,-0.065,-0.17
00:08:08.620:1,0.015,-0.2
00:08:08.624:1,0.085,-0.2
00:08:08.628:1,0.14,-0.24
00:08:08.632:1,0.17,-0.255
00:08:08.636:1,0.195,-0.24
00:08:08.640:1,0.2,-0.2
00:08:08.644:1,0.13,-0.195
00:08:08.648:1,0.125,-0.265
00:08:08.652:1,0.255,-0.345
00:08:08.656:1,0.545,-0.51
00:08:08.660:1,0.87,-0.74
00:08:08.664:1,1.14,-1.025
00:08:08.668:1,1.19,-1.21
00:08:08.672:1,0.93,-1.175
00:08:08.676:1,0.465,-0.925
00:08:08.680:1,0.095,-0.575
00:08:08.684:1,-0.095,-0.275
00:08:08.688:1,-0.21,-0.105
00:08:08.692:1,-0.25,-0.02
00:08:08.696:1,-0.265,0.005
00:08:08.700:1,-0.32,-0.005
00:08:08.704:1,-0.34,-0.015
00:08:08.708:1,-0.36,-0.015
00:08:08.712:1,-0.38,-0.055
00:08:08.716:1,-0.38,-0.07
00:08:08.720:1,-0.4,-0.07
00:08:08.724:1,-0.395,-0.12
00:08:08.728:1,-0.39,-0.125
00:08:08.732:1,-0.41,-0.13
00:08:08.736:1,-0.425,-0.15
00:08:08.740:1,-0.43,-0.145
00:08:08.744:1,-0.425,-0.16
00:08:08.748:1,-0.43,-0.13
00:08:08.752:1,-0.415,-0.145
00:08:08.756:1,-0.43,-0.155
00:08:08.760:1,-0.44,-0.125
00:08:08.764:1,-0.445,-0.15
00:08:08.768:1,-0.44,-0.165
00:08:08.772:1,-0.445,-0.16
00:08:08.776:1,-0.45,-0.16
00:08:08.780:1,-0.445,-0.145
00:08:08.784:1,-0.46,-0.15
00:08:08.788:1,-0.46,-0.155
00:08:08.792:1,-0.43,-0.17
00:08:08.796:1,-0.435,-0.145
00:08:08.800:1,-0.45,-0.145
00:08:08.804:1,-0.47,-0.16
00:08:08.808:1,-0.47,-0.17
00:08:08.812:1,-0.46,-0.17
00:08:08.816:1,-0.45,-0.16
00:08:08.820:1,-0.47,-0.155
00:08:08.824:1,-0.46,-0.16
00:08:08.828:1,-0.46,-0.18
00:08:08.832:1,-0.45,-0.165
00:08:08.836:1,-0.45,-0.155
00:08:08.840:1,-0.46,-0.185
00:08:08.844:1,-0.445,-0.19
00:08:08.848:1,-0.435,-0.18
00:08:08.852:1,-0.45,-0.17
00:08:08.856:1,-0.435,-0.175
00:08:08.860:1,-0.425,-0.18
00:08:08.864:1,-0.415,-0.175
00:08:08.868:1,-0.415,-0.185
00:08:08.872:1,-0.38,-0.19
00:08:08.876:1,-0.36,-0.185
00:08:08.880:1,-0.355,-0.21
00:08:08.884:1,-0.34,-0.2
00:08:08.888:1,-0.35,-0.21
00:08:08.892:1,-0.34,-0.19
00:08:08.896:1,-0.34,-0.21
00:08:08.900:1,-0.315,-0.22
00:08:08.904:1,-0.31,-0.205
00:08:08.908:1,-0.28,-0.215
00:08:08.912:1,-0.27,-0.2
00:08:08.916:1,-0.24,-0.2
00:08:08.920:1,-0.24,-0.2
00:08:08.924:1,-0.245,-0.195
00:08:08.928:1,-0.21,-0.21
00:08:08.932:1,-0.23,-0.195
00:08:08.936:1,-0.22,-0.17
00:08:08.940:1,-0.235,-0.17
00:08:08.944:1,-0.22,-0.17
00:08:08.948:1,-0.23,-0.19
00:08:08.952:1,-0.215,-0.2
00:08:08.956:1,-0.23,-0.205
00:08:08.960:1,-0.22,-0.19
00:08:08.964:1,-0.205,-0.205
00:08:08.968:1,-0.21,-0.2
00:08:08.972:1,-0.205,-0.195
00:08:08.976:1,-0.215,-0.19
00:08:08.980:1,-0.195,-0.19
00:08:08.984:1,-0.21,-0.195
00:08:08.988:1,-0.21,-0.2
00:08:08.992:1,-0.21,-0.2
00:08:08.996:1,-0.23,-0.195
00:08:09.000:1,-0.225,-0.175
00:08:09.004:1,-0.21,-0.16
00:08:09.008:1,-0.21,-0.165
00:08:09.012:1,-0.205,-0.155
00:08:09.016:1,-0.19,-0.18
00:08:09.020:1,-0.19,-0.175
00:08:09.024:1,-0.205,-0.175
00:08:09.028:1,-0.21,-0.195
00:08:09.032:1,-0.215,-0.165
00:08:09.036:1,-0.215,-0.17
00:08:09.040:1,-0.2,-0.17
00:08:09.044:1,-0.22,-0.17
00:08:09.048:1,-0.195,-0.17
00:08:09.052:1,-0.205,-0.17
00:08:09.056:1,-0.2,-0.16
00:08:09.060:1,-0.185,-0.185
00:08:09.064:1,-0.175,-0.175
00:08:09.068:1,-0.18,-0.165
00:08:09.072:1,-0.17,-0.175
00:08:09.076:1,-0.155,-0.16
00:08:09.080:1,-0.13,-0.155
00:08:09.084:1,-0.09,-0.15
00:08:09.088:1,-0.055,-0.17
00:08:09.092:1,-0.02,-0.12
00:08:09.096:1,0.005,-0.115
00:08:09.100:1,0.035,-0.11
00:08:09.104:1,0.06,-0.13
00:08:09.108:1,0.085,-0.115
00:08:09.112:1,0.095,-0.125
00:08:09.116:1,0.115,-0.12
00:08:09.120:1,0.095,-0.155
00:08:09.124:1,0.065,-0.15
00:08:09.128:1,0.0,-0.16
00:08:09.132:1,-0.025,-0.16
00:08:09.136:1,-0.08,-0.19
00:08:09.140:1,-0.12,-0.18
00:08:09.144:1,-0.19,-0.16
00:08:09.148:1,-0.22,-0.16
00:08:09.152:1,-0.26,-0.15
00:08:09.156:1,-0.26,-0.13
00:08:09.160:1,-0.28,-0.145
00:08:09.164:1,-0.275,-0.135
00:08:09.168:1,-0.3,-0.145
00:08:09.172:1,-0.315,-0.175
00:08:09.176:1,-0.31,-0.195
00:08:09.180:1,-0.295,-0.19
00:08:09.184:1,-0.275,-0.17
00:08:09.188:1,-0.285,-0.185
00:08:09.192:1,-0.28,-0.185
00:08:09.196:1,-0.285,-0.19
00:08:09.200:1,-0.27,-0.205
00:08:09.204:1,-0.265,-0.19
00:08:09.208:1,-0.27,-0.195
00:08:09.212:1,-0.27,-0.2
00:08:09.216:1,-0.265,-0.21
00:08:09.220:1,-0.255,-0.225
00:08:09.224:1,-0.26,-0.24
00:08:09.228:1,-0.245,-0.225
00:08:09.232:1,-0.23,-0.195
00:08:09.236:1,-0.23,-0.21
00:08:09.240:1,-0.225,-0.2
00:08:09.244:1,-0.235,-0.2
00:08:09.248:1,-0.225,-0.195
00:08:09.252:1,-0.215,-0.19
00:08:09.256:1,-0.185,-0.19
00:08:09.260:1,-0.155,-0.19
00:08:09.264:1,-0.105,-0.205
00:08:09.268:1,-0.025,-0.225
00:08:09.272:1,0.06,-0.215
00:08:09.276:1,0.145,-0.23
00:08:09.280:1,0.225,-0.25
00:08:09.284:1,0.27,-0.29
00:08:09.288:1,0.32,-0.305
00:08:09.292:1,0.315,-0.28
00:08:09.296:1,0.28,-0.23
00:08:09.300:1,0.255,-0.29
00:08:09.304:1,0.36,-0.35
00:08:09.308:1,0.62,-0.465
00:08:09.312:1,0.955,-0.665
00:08:09.316:1,1.225,-0.9
00:08:09.320:1,1.265,-1.125
00:08:09.324:1,1.055,-1.16
00:08:09.328:1,0.61,-0.965
00:08:09.332:1,0.195,-0.64
00:08:09.336:1,-0.04,-0.38
00:08:09.340:1,-0.14,-0.205
00:08:09.344:1,-0.205,-0.125
00:08:09.348:1,-0.24,-0.03
00:08:09.352:1,-0.275,-0.005
00:08:09.356:1,-0.3,-0.015
00:08:09.360:1,-0.32,0.0
00:08:09.364:1,-0.35,-0.03
00:08:09.368:1,-0.38,-0.04
00:08:09.372:1,-0.39,-0.08
00:08:09.376:1,-0.385,-0.075
00:08:09.380:1,-0.405,-0.085
00:08:09.384:1,-0.41,-0.115
00:08:09.388:1,-0.41,-0.08
00:08:09.392:1,-0.415,-0.085
00:08:09.396:1,-0.41,-0.085
00:08:09.400:1,-0.435,-0.105
00:08:09.404:1,-0.44,-0.085
00:08:09.408:1,-0.415,-0.09
00:08:09.412:1,-0.455,-0.085
00:08:09.416:1,-0.45,-0.1
00:08:09.420:1,-0.445,-0.095
00:08:09.424:1,-0.45,-0.105
00:08:09.428:1,-0.47,-0.1
00:08:09.432:1,-0.47,-0.105
00:08:09.436:1,-0.475,-0.1
00:08:09.440:1,-0.5,-0.115
00:08:09.444:1,-0.51,-0.095
00:08:09.448:1,-0.485,-0.1
00:08:09.452:1,-0.495,-0.11
00:08:09.456:1,-0.495,-0.1
00:08:09.460:1,-0.495,-0.095
00:08:09.464:1,-0.495,-0.075
00:08:09.468:1,-0.485,-0.08
00:08:09.472:1,-0.505,-0.09
00:08:09.476:1,-0.505,-0.075
00:08:09.480:1,-0.52,-0.085
00:08:09.484:1,-0.525,-0.065
00:08:09.488:1,-0.52,-0.08
00:08:09.492:1,-0.52,-0.07
00:08:09.496:1,-0.515,-0.08
00:08:09.500:1,-0.515,-0.105
00:08:09.504:1,-0.5,-0.085
00:08:09.508:1,-0.505,-0.07
00:08:09.512:1,-0.5,-0.075
00:08:09.516:1,-0.48,-0.095
00:08:09.520:1,-0.465,-0.095
00:08:09.524:1,-0.465,-0.1
00:08:09.528:1,-0.455,-0.11
00:08:09.532:1,-0.435,-0.115
00:08:09.536:1,-0.43,-0.105
00:08:09.540:1,-0.41,-0.125
00:08:09.544:1,-0.42,-0.12
00:08:09.548:1,-0.395,-0.12
00:08:09.552:1,-0.385,-0.13
00:08:09.556:1,-0.35,-0.13
00:08:09.560:1,-0.335,-0.135
00:08:09.564:1,-0.31,-0.14
00:08:09.568:1,-0.32,-0.14
00:08:09.572:1,-0.31,-0.14
00:08:09.576:1,-0.305,-0.13
00:08:09.580:1,-0.29,-0.14
00:08:09.584:1,-0.28,-0.14
00:08:09.588:1,-0.285,-0.145
00:08:09.592:1,-0.28,-0.125
00:08:09.596:1,-0.295,-0.145
00:08:09.600:1,-0.265,-0.135
00:08:09.604:1,-0.27,-0.13
00:08:09.608:1,-0.28,-0.105
00:08:09.612:1,-0.305,-0.135
00:08:09.616:1,-0.285,-0.12
00:08:09.620:1,-0.29,-0.155
00:08:09.624:1,-0.28,-0.135
00:08:09.628:1,-0.29,-0.125
00:08:09.632:1,-0.26,-0.13
00:08:09.636:1,-0.285,-0.13
00:08:09.640:1,-0.3,-0.13
00:08:09.644:1,-0.3,-0.135
00:08:09.648:1,-0.28,-0.135
00:08:09.652:1,-0.285,-0.12
00:08:09.656:1,-0.295,-0.125
00:08:09.660:1,-0.29,-0.1
00:08:09.664:1,-0.28,-0.105
00:08:09.668:1,-0.285,-0.12
00:08:09.672:1,-0.285,-0.105
00:08:09.676:1,-0.275,-0.12
00:08:09.680:1,-0.285,-0.125
00:08:09.684:1,-0.275,-0.095
00:08:09.688:1,-0.295,-0.105
00:08:09.692:1,-0.3,-0.09
00:08:09.696:1,-0.27,-0.105
00:08:09.700:1,-0.275,-0.095
00:08:09.704:1,-0.275,-0.095
00:08:09.708:1,-0.25,-0.105
00:08:09.712:1,-0.23,-0.08
00:08:09.716:1,-0.24,-0.115
00:08:09.720:1,-0.24,-0.085
00:08:09.724:1,-0.26,-0.09
00:08:09.728:1,-0.22,-0.095
00:08:09.732:1,-0.2,-0.065
00:08:09.736:1,-0.16,-0.085
00:08:09.740:1,-0.11,-0.085
00:08:09.744:1,-0.095,-0.06
00:08:09.748:1,-0.085,-0.05
00:08:09.752:1,-0.045,-0.03
00:08:09.756:1,-0.015,-0.045
00:08:09.760:1,-0.005,-0.05
00:08:09.764:1,0.0,-0.04
00:08:09.768:1,-0.02,-0.055
00:08:09.772:1,-0.05,-0.1
00:08:09.776:1,-0.1,-0.12
00:08:09.780:1,-0.13,-0.14
00:08:09.784:1,-0.175,-0.135
00:08:09.788:1,-0.25,-0.125
00:08:09.792:1,-0.3,-0.115
00:08:09.796:1,-0.32,-0.075
00:08:09.800:1,-0.37,-0.095
00:08:09.804:1,-0.405,-0.055
00:08:09.808:1,-0.405,-0.045
00:08:09.812:1,-0.4,-0.065
00:08:09.816:1,-0.41,-0.08
00:08:09.820:1,-0.41,-0.085
00:08:09.824:1,-0.41,-0.125
00:08:09.828:1,-0.4,-0.095
00:08:09.832:1,-0.41,-0.12
00:08:09.836:1,-0.405,-0.115
00:08:09.840:1,-0.42,-0.105
00:08:09.844:1,-0.405,-0.1
00:08:09.848:1,-0.41,-0.12
00:08:09.852:1,-0.41,-0.135
00:08:09.856:1,-0.4,-0.115
00:08:09.860:1,-0.39,-0.135
00:08:09.864:1,-0.405,-0.16
00:08:09.868:1,-0.38,-0.13
00:08:09.872:1,-0.39,-0.155
00:08:09.876:1,-0.38,-0.165
00:08:09.880:1,-0.38,-0.12
00:08:09.884:1,-0.39,-0.15
00:08:09.888:1,-0.37,-0.13
00:08:09.892:1,-0.36,-0.135
00:08:09.896:1,-0.365,-0.135
00:08:09.900:1,-0.34,-0.12
00:08:09.904:1,-0.33,-0.105
00:08:09.908:1,-0.32,-0.09
00:08:09.912:1,-0.275,-0.1
00:08:09.916:1,-0.225,-0.125
00:08:09.920:1,-0.145,-0.12
00:08:09.924:1,-0.04,-0.135
00:08:09.928:1,0.02,-0.13
00:08:09.932:1,0.06,-0.17
00:08:09.936:1,0.09,-0.23
00:08:09.940:1,0.085,-0.2
00:08:09.944:1,0.055,-0.2
00:08:09.948:1,0.02,-0.22
00:08:09.952:1,0.03,-0.255
00:08:09.956:1,0.175,-0.365
00:08:09.960:1,0.48,-0.54
00:08:09.964:1,0.83,-0.755
00:08:09.968:1,1.07,-1.01
00:08:09.972:1,1.13,-1.2
00:08:09.976:1,0.865,-1.17
00:08:09.980:1,0.4,-0.915
00:08:09.984:1,-0.01,-0.56
00:08:09.988:1,-0.21,-0.265
00:08:09.992:1,-0.33,-0.09
00:08:09.996:1,-0.4,0.01
00:08:10.000:1,-0.42,0.025
00:08:10.004:1,-0.43,0.025
00:08:10.008:1,-0.44,0.025
00:08:10.012:1,-0.455,0.02
00:08:10.016:1,-0.465,0.0
00:08:10.020:1,-0.475,-0.01
00:08:10.024:1,-0.465,-0.03
00:08:10.028:1,-0.48,-0.04
00:08:10.032:1,-0.47,-0.06
00:08:10.036:1,-0.5,-0.05
00:08:10.040:1,-0.49,-0.055
00:08:10.044:1,-0.49,-0.06
00:08:10.048:1,-0.51,-0.035
00:08:10.052:1,-0.495,-0.055
00:08:10.056:1,-0.53,-0.09
00:08:10.060:1,-0.515,-0.03
00:08:10.064:1,-0.52,-0.065
00:08:10.068:1,-0.5,-0.06
00:08:10.072:1,-0.535,-0.05
00:08:10.076:1,-0.55,-0.065
00:08:10.080:1,-0.53,-0.07
00:08:10.084:1,-0.55,-0.07
00:08:10.088:1,-0.55,-0.065
00:08:10.092:1,-0.56,-0.07
00:08:10.096:1,-0.56,-0.065
00:08:10.100:1,-0.57,-0.06
00:08:10.104:1,-0.58,-0.07
00:08:10.108:1,-0.59,-0.075
00:08:10.112:1,-0.58,-0.05
00:08:10.116:1,-0.565,-0.06
00:08:10.120:1,-0.555,-0.04
00:08:10.124:1,-0.55,-0.03
00:08:10.128:1,-0.59,-0.07
00:08:10.132:1,-0.555,-0.07
00:08:10.136:1,-0.56,-0.065
00:08:10.140:1,-0.55,-0.05
00:08:10.144:1,-0.555,-0.05
00:08:10.148:1,-0.54,-0.04
00:08:10.152:1,-0.54,-0.07
00:08:10.156:1,-0.535,-0.06
00:08:10.160:1,-0.52,-0.07
00:08:10.164:1,-0.525,-0.03
00:08:10.168:1,-0.505,-0.055
00:08:10.172:1,-0.48,-0.075
00:08:10.176:1,-0.49,-0.09
00:08:10.180:1,-0.49,-0.085
00:08:10.184:1,-0.47,-0.085
00:08:10.188:1,-0.45,-0.09
00:08:10.192:1,-0.455,-0.09
00:08:10.196:1,-0.415,-0.09
00:08:10.200:1,-0.42,-0.08
00:08:10.204:1,-0.41,-0.115
00:08:10.208:1,-0.4,-0.105
00:08:10.212:1,-0.38,-0.1
00:08:10.216:1,-0.38,-0.1
00:08:10.220:1,-0.34,-0.095
00:08:10.224:1,-0.35,-0.09
00:08:10.228:1,-0.32,-0.115
00:08:10.232:1,-0.33,-0.1
00:08:10.236:1,-0.325,-0.105
00:08:10.240:1,-0.315,-0.085
00:08:10.244:1,-0.31,-0.07
00:08:10.248:1,-0.3,-0.085
00:08:10.252:1,-0.29,-0.095
00:08:10.256:1,-0.305,-0.08
00:08:10.260:1,-0.305,-0.08
00:08:10.264:1,-0.29,-0.1
00:08:10.268:1,-0.29,-0.075
00:08:10.272:1,-0.305,-0.075
00:08:10.276:1,-0.295,-0.075
00:08:10.280:1,-0.305,-0.065
00:08:10.284:1,-0.305,-0.07
00:08:10.288:1,-0.3,-0.09
00:08:10.292:1,-0.305,-0.1
00:08:10.296:1,-0.3,-0.08
00:08:10.300:1,-0.29,-0.085
00:08:10.304:1,-0.3,-0.08
00:08:10.308:1,-0.305,-0.1
00:08:10.312:1,-0.3,-0.08
00:08:10.316:1,-0.3,-0.06
00:08:10.320:1,-0.295,-0.06
00:08:10.324:1,-0.29,-0.06
00:08:10.328:1,-0.26,-0.075
00:08:10.332:1,-0.255,-0.07
00:08:10.336:1,-0.26,-0.065
00:08:10.340:1,-0.245,-0.07
00:08:10.344:1,-0.24,-0.045
00:08:10.348:1,-0.24,-0.06
00:08:10.352:1,-0.205,-0.06
00:08:10.356:1,-0.185,-0.04
00:08:10.360:1,-0.205,-0.04
00:08:10.364:1,-0.2,-0.065
00:08:10.368:1,-0.2,-0.035
00:08:10.372:1,-0.18,-0.035
00:08:10.376:1,-0.115,-0.015
00:08:10.380:1,-0.12,0.0
00:08:10.384:1,-0.1,0.0
00:08:10.388:1,-0.075,0.01
00:08:10.392:1,-0.07,0.015
00:08:10.396:1,-0.04,0.01
00:08:10.400:1,-0.005,-0.01
00:08:10.404:1,0.0,-0.02
00:08:10.408:1,-0.015,-0.04
00:08:10.412:1,-0.045,-0.09
00:08:10.416:1,-0.105,-0.08
00:08:10.420:1,-0.15,-0.09
00:08:10.424:1,-0.21,-0.11
00:08:10.428:1,-0.27,-0.13
00:08:10.432:1,-0.31,-0.11
00:08:10.436:1,-0.325,-0.095
00:08:10.440:1,-0.37,-0.08
00:08:10.444:1,-0.39,-0.08
00:08:10.448:1,-0.405,-0.09
00:08:10.452:1,-0.39,-0.095
00:08:10.456:1,-0.38,-0.07
00:08:10.460:1,-0.37,-0.09
00:08:10.464:1,-0.39,-0.08
00:08:10.468:1,-0.365,-0.08
00:08:10.472:1,-0.37,-0.085
00:08:10.476:1,-0.39,-0.11
00:08:10.480:1,-0.385,-0.11
