Time,ECG1,ECG2
1:28:53.900,0.45,-0.305
1:28:53.904,0.47,-0.305
1:28:53.908,0.41,-0.29
1:28:53.912,0.43,-0.265
1:28:53.916,0.4,-0.27
1:28:53.920,0.39,-0.28
1:28:53.924,0.36,-0.255
1:28:53.928,0.345,-0.27
1:28:53.932,0.305,-0.275
1:28:53.936,0.25,-0.26
1:28:53.940,0.205,-0.25
1:28:53.944,0.2,-0.24
1:28:53.948,0.205,-0.24
1:28:53.952,0.19,-0.22
1:28:53.956,0.17,-0.205
1:28:53.960,0.18,-0.22
1:28:53.964,0.2,-0.215
1:28:53.968,0.2,-0.22
1:28:53.972,0.17,-0.21
1:28:53.976,0.19,-0.215
1:28:53.980,0.19,-0.215
1:28:53.984,0.18,-0.195
1:28:53.988,0.18,-0.225
1:28:53.992,0.19,-0.22
1:28:53.996,0.2,-0.225
1:28:54.000,0.195,-0.24
1:28:54.004,0.19,-0.24
1:28:54.008,0.22,-0.235
1:28:54.012,0.22,-0.23
1:28:54.016,0.21,-0.25
1:28:54.020,0.215,-0.26
1:28:54.024,0.21,-0.255
1:28:54.028,0.205,-0.245
1:28:54.032,0.225,-0.255
1:28:54.036,0.22,-0.26
1:28:54.040,0.225,-0.235
1:28:54.044,0.225,-0.255
1:28:54.048,0.21,-0.23
1:28:54.052,0.235,-0.22
1:28:54.056,0.22,-0.21
1:28:54.060,0.225,-0.225
1:28:54.064,0.22,-0.19
1:28:54.068,0.22,-0.18
1:28:54.072,0.21,-0.165
1:28:54.076,0.255,-0.18
1:28:54.080,0.27,-0.17
1:28:54.084,0.28,-0.165
1:28:54.088,0.31,-0.15
1:28:54.092,0.3,-0.145
1:28:54.096,0.315,-0.13
1:28:54.100,0.3,-0.12
1:28:54.104,0.305,-0.11
1:28:54.108,0.305,-0.115
1:28:54.112,0.31,-0.1
1:28:54.116,0.285,-0.14
1:28:54.120,0.305,-0.15
1:28:54.124,0.3,-0.19
1:28:54.128,0.305,-0.205
1:28:54.132,0.31,-0.22
1:28:54.136,0.32,-0.21
1:28:54.140,0.335,-0.19
1:28:54.144,0.345,-0.16
1:28:54.148,0.34,-0.11
1:28:54.152,0.335,-0.045
1:28:54.156,0.31,0.025
1:28:54.160,0.355,0.065
1:28:54.164,0.365,0.07
1:28:54.168,0.385,0.11
1:28:54.172,0.4,0.135
1:28:54.176,0.44,0.06
1:28:54.180,0.45,-0.085
1:28:54.184,0.355,-0.295
1:28:54.188,0.205,-0.54
1:28:54.192,0.05,-0.755
1:28:54.196,-0.025,-0.93
1:28:54.200,-0.14,-1.12
1:28:54.204,-0.265,-1.155
1:28:54.208,-0.395,-1.03
1:28:54.212,-0.46,-0.755
1:28:54.216,-0.46,-0.67
1:28:54.220,-0.48,-0.755
1:28:54.224,-0.45,-0.95
1:28:54.228,-0.26,-1.1
1:28:54.232,0.08,-1.15
1:28:54.236,0.495,-1.155
1:28:54.240,0.805,-1.09
1:28:54.244,0.9,-0.98
1:28:54.248,0.945,-0.805
1:28:54.252,1.01,-0.7
1:28:54.256,1.06,-0.64
1:28:54.260,1.075,-0.615
1:28:54.264,1.06,-0.57
1:28:54.268,1.035,-0.43
1:28:54.272,0.985,-0.33
1:28:54.276,0.91,-0.2
1:28:54.280,0.79,-0.15
1:28:54.284,0.655,-0.13
1:28:54.288,0.535,-0.14
1:28:54.292,0.44,-0.13
1:28:54.296,0.355,-0.12
1:28:54.300,0.3,-0.12
1:28:54.304,0.255,-0.125
1:28:54.308,0.24,-0.13
1:28:54.312,0.195,-0.13
1:28:54.316,0.18,-0.155
1:28:54.320,0.175,-0.135
1:28:54.324,0.14,-0.115
1:28:54.328,0.115,-0.11
1:28:54.332,0.12,-0.125
1:28:54.336,0.105,-0.125
1:28:54.340,0.14,-0.13
1:28:54.344,0.15,-0.125
1:28:54.348,0.17,-0.12
1:28:54.352,0.19,-0.12
1:28:54.356,0.19,-0.12
1:28:54.360,0.185,-0.11
1:28:54.364,0.19,-0.085
1:28:54.368,0.21,-0.07
1:28:54.372,0.18,-0.06
1:28:54.376,0.175,-0.075
1:28:54.380,0.19,-0.065
1:28:54.384,0.16,-0.07
1:28:54.388,0.13,-0.08
1:28:54.392,0.075,-0.1
1:28:54.396,0.06,-0.08
1:28:54.400,0.03,-0.09
1:28:54.404,0.015,-0.11
1:28:54.408,0.0,-0.11
1:28:54.412,0.0,-0.1
1:28:54.416,-0.01,-0.115
1:28:54.420,-0.03,-0.12
1:28:54.424,-0.02,-0.12
1:28:54.428,-0.03,-0.12
1:28:54.432,-0.015,-0.13
1:28:54.436,-0.02,-0.11
1:28:54.440,-0.02,-0.085
1:28:54.444,-0.015,-0.09
1:28:54.448,-0.04,-0.06
1:28:54.452,-0.025,-0.045
1:28:54.456,-0.02,-0.025
1:28:54.460,-0.03,0.005
1:28:54.464,-0.01,0.02
1:28:54.468,-0.03,0.03
1:28:54.472,-0.015,0.02
1:28:54.476,-0.035,0.05
1:28:54.480,-0.02,0.05
1:28:54.484,-0.02,0.05
1:28:54.488,0.0,0.02
1:28:54.492,0.0,0.02
1:28:54.496,0.01,0.025
1:28:54.500,-0.02,0.005
1:28:54.504,0.0,0.01
1:28:54.508,-0.025,0.015
1:28:54.512,-0.02,0.0
1:28:54.516,-0.03,0.0
1:28:54.520,-0.025,0.005
1:28:54.524,-0.005,0.05
1:28:54.528,0.005,0.015
1:28:54.532,0.0,0.0
1:28:54.536,0.03,0.025
1:28:54.540,0.08,0.08
1:28:54.544,0.15,0.04
1:28:54.548,0.2,-0.11
1:28:54.552,0.215,-0.395
1:28:54.556,0.19,-0.665
1:28:54.560,0.135,-0.915
1:28:54.564,0.08,-1.1
1:28:54.568,0.03,-1.205
1:28:54.572,-0.085,-1.125
1:28:54.576,-0.18,-0.88
1:28:54.580,-0.285,-0.615
1:28:54.584,-0.32,-0.495
1:28:54.588,-0.28,-0.605
1:28:54.592,-0.195,-0.81
1:28:54.596,0.075,-0.97
1:28:54.600,0.495,-0.985
1:28:54.604,0.93,-0.905
1:28:54.608,1.08,-0.755
1:28:54.612,1.07,-0.58
1:28:54.616,1.005,-0.485
1:28:54.620,0.985,-0.475
1:28:54.624,0.945,-0.44
1:28:54.628,1.025,-0.4
1:28:54.632,1.12,-0.36
1:28:54.636,1.18,-0.345
1:28:54.640,1.235,-0.3
1:28:54.644,1.24,-0.275
1:28:54.648,1.21,-0.21
1:28:54.652,1.125,-0.155
1:28:54.656,1.04,-0.095
1:28:54.660,0.93,-0.1
1:28:54.664,0.715,-0.085
1:28:54.668,0.53,-0.11
1:28:54.672,0.37,-0.09
1:28:54.676,0.22,-0.115
1:28:54.680,0.14,-0.13
1:28:54.684,0.13,-0.13
1:28:54.688,0.105,-0.17
1:28:54.692,0.1,-0.135
1:28:54.696,0.075,-0.16
1:28:54.700,0.04,-0.18
1:28:54.704,0.025,-0.19
1:28:54.708,0.01,-0.2
1:28:54.712,0.01,-0.21
1:28:54.716,0.0,-0.21
1:28:54.720,0.0,-0.225
1:28:54.724,-0.04,-0.22
1:28:54.728,-0.03,-0.22
1:28:54.732,-0.04,-0.22
1:28:54.736,-0.005,-0.185
1:28:54.740,0.03,-0.135
1:28:54.744,0.06,-0.13
1:28:54.748,0.06,-0.095
1:28:54.752,0.07,-0.065
1:28:54.756,0.04,-0.06
1:28:54.760,0.03,-0.08
1:28:54.764,0.0,-0.105
1:28:54.768,-0.035,-0.095
1:28:54.772,-0.06,-0.1
1:28:54.776,-0.065,-0.115
1:28:54.780,-0.105,-0.09
1:28:54.784,-0.11,-0.075
1:28:54.788,-0.12,-0.07
1:28:54.792,-0.125,-0.055
1:28:54.796,-0.1,-0.065
1:28:54.800,-0.1,-0.075
1:28:54.804,-0.09,-0.065
1:28:54.808,-0.095,-0.06
1:28:54.812,-0.08,-0.04
1:28:54.816,-0.115,-0.045
1:28:54.820,-0.12,-0.01
1:28:54.824,-0.125,-0.005
1:28:54.828,-0.12,-0.01
1:28:54.832,-0.12,0.0
1:28:54.836,-0.12,-0.01
1:28:54.840,-0.125,-0.005
1:28:54.844,-0.1,0.01
1:28:54.848,-0.115,0.015
1:28:54.852,-0.12,0.01
1:28:54.856,-0.1,0.0
1:28:54.860,-0.08,-0.015
1:28:54.864,-0.08,0.0
1:28:54.868,-0.065,-0.03
1:28:54.872,-0.06,-0.035
1:28:54.876,-0.045,-0.035
1:28:54.880,-0.02,-0.06
1:28:54.884,-0.005,-0.1
1:28:54.888,0.02,-0.125
1:28:54.892,0.01,-0.145
1:28:54.896,0.005,-0.18
1:28:54.900,0.025,-0.2
1:28:54.904,0.03,-0.215
1:28:54.908,0.065,-0.22
1:28:54.912,0.085,-0.215
1:28:54.916,0.055,-0.235
1:28:54.920,0.085,-0.235
1:28:54.924,0.12,-0.25
1:28:54.928,0.12,-0.235
1:28:54.932,0.16,-0.22
1:28:54.936,0.155,-0.225
1:28:54.940,0.18,-0.2
1:28:54.944,0.22,-0.18
1:28:54.948,0.225,-0.19
1:28:54.952,0.245,-0.175
1:28:54.956,0.24,-0.14
1:28:54.960,0.245,-0.155
1:28:54.964,0.21,-0.17
1:28:54.968,0.155,-0.14
1:28:54.972,0.105,-0.15
1:28:54.976,0.1,-0.165
1:28:54.980,0.085,-0.16
1:28:54.984,0.07,-0.18
1:28:54.988,0.1,-0.185
1:28:54.992,0.125,-0.185
1:28:54.996,0.11,-0.165
1:28:55.000,0.125,-0.18
1:28:55.004,0.125,-0.17
1:28:55.008,0.15,-0.185
1:28:55.012,0.125,-0.175
1:28:55.016,0.14,-0.17
1:28:55.020,0.14,-0.15
1:28:55.024,0.17,-0.16
1:28:55.028,0.15,-0.11
1:28:55.032,0.15,-0.135
1:28:55.036,0.185,-0.12
1:28:55.040,0.145,-0.135
1:28:55.044,0.17,-0.15
1:28:55.048,0.19,-0.155
1:28:55.052,0.195,-0.14
1:28:55.056,0.19,-0.125
1:28:55.060,0.19,-0.125
1:28:55.064,0.195,-0.125
1:28:55.068,0.19,-0.14
1:28:55.072,0.2,-0.15
1:28:55.076,0.195,-0.145
1:28:55.080,0.205,-0.18
1:28:55.084,0.21,-0.18
1:28:55.088,0.185,-0.21
1:28:55.092,0.205,-0.235
1:28:55.096,0.21,-0.24
1:28:55.100,0.195,-0.205
1:28:55.104,0.185,-0.2
1:28:55.108,0.185,-0.21
1:28:55.112,0.165,-0.245
1:28:55.116,0.185,-0.245
1:28:55.120,0.16,-0.255
1:28:55.124,0.2,-0.24
1:28:55.128,0.2,-0.225
1:28:55.132,0.2,-0.225
1:28:55.136,0.225,-0.2
1:28:55.140,0.245,-0.2
1:28:55.144,0.275,-0.19
1:28:55.148,0.28,-0.18
1:28:55.152,0.29,-0.185
1:28:55.156,0.285,-0.18
1:28:55.160,0.265,-0.205
1:28:55.164,0.22,-0.205
1:28:55.168,0.18,-0.21
1:28:55.172,0.135,-0.22
1:28:55.176,0.11,-0.22
1:28:55.180,0.095,-0.21
1:28:55.184,0.12,-0.23
1:28:55.188,0.11,-0.235
1:28:55.192,0.135,-0.24
1:28:55.196,0.135,-0.265
1:28:55.200,0.125,-0.27
1:28:55.204,0.135,-0.28
1:28:55.208,0.13,-0.26
1:28:55.212,0.11,-0.27
1:28:55.216,0.13,-0.295
1:28:55.220,0.125,-0.285
1:28:55.224,0.135,-0.26
1:28:55.228,0.12,-0.245
1:28:55.232,0.14,-0.205
1:28:55.236,0.125,-0.175
1:28:55.240,0.135,-0.14
1:28:55.244,0.135,-0.09
1:28:55.248,0.13,-0.02
1:28:55.252,0.145,-0.01
1:28:55.256,0.155,0.01
1:28:55.260,0.18,0.095
1:28:55.264,0.18,0.355
1:28:55.268,0.2,0.61
1:28:55.272,0.245,0.815
1:28:55.276,0.23,0.975
1:28:55.280,0.195,1.055
1:28:55.284,0.145,1.08
1:28:55.288,0.1,1.03
1:28:55.292,0.1,0.82
1:28:55.296,0.02,0.52
1:28:55.300,-0.19,0.3
1:28:55.304,-0.485,0.345
1:28:55.308,-0.835,0.47
1:28:55.312,-1.035,0.435
1:28:55.316,-1.1,0.15
1:28:55.320,-1.02,-0.165
1:28:55.324,-0.77,-0.435
1:28:55.328,-0.345,-0.615
1:28:55.332,0.005,-0.65
1:28:55.336,0.185,-0.565
1:28:55.340,0.155,-0.45
1:28:55.344,0.115,-0.34
1:28:55.348,0.06,-0.315
1:28:55.352,0.085,-0.33
1:28:55.356,0.07,-0.305
1:28:55.360,0.13,-0.285
1:28:55.364,0.205,-0.275
1:28:55.368,0.265,-0.255
1:28:55.372,0.325,-0.265
1:28:55.376,0.375,-0.255
1:28:55.380,0.375,-0.255
1:28:55.384,0.355,-0.29
1:28:55.388,0.295,-0.3
1:28:55.392,0.26,-0.315
1:28:55.396,0.255,-0.335
1:28:55.400,0.225,-0.34
1:28:55.404,0.21,-0.335
1:28:55.408,0.22,-0.345
1:28:55.412,0.215,-0.335
1:28:55.416,0.21,-0.325
1:28:55.420,0.24,-0.35
1:28:55.424,0.225,-0.345
1:28:55.428,0.21,-0.33
1:28:55.432,0.22,-0.34
1:28:55.436,0.24,-0.335
1:28:55.440,0.22,-0.315
1:28:55.444,0.215,-0.3
1:28:55.448,0.24,-0.285
1:28:55.452,0.24,-0.28
1:28:55.456,0.23,-0.28
1:28:55.460,0.24,-0.28
1:28:55.464,0.215,-0.28
1:28:55.468,0.26,-0.285
1:28:55.472,0.26,-0.28
1:28:55.476,0.27,-0.3
1:28:55.480,0.27,-0.3
1:28:55.484,0.285,-0.315
1:28:55.488,0.305,-0.34
1:28:55.492,0.295,-0.32
1:28:55.496,0.305,-0.36
1:28:55.500,0.26,-0.345
1:28:55.504,0.265,-0.37
1:28:55.508,0.26,-0.38
1:28:55.512,0.27,-0.39
1:28:55.516,0.275,-0.405
1:28:55.520,0.27,-0.41
1:28:55.524,0.26,-0.41
1:28:55.528,0.26,-0.43
1:28:55.532,0.255,-0.455
1:28:55.536,0.275,-0.45
1:28:55.540,0.28,-0.465
1:28:55.544,0.285,-0.46
1:28:55.548,0.285,-0.43
1:28:55.552,0.28,-0.42
1:28:55.556,0.27,-0.41
1:28:55.560,0.29,-0.385
1:28:55.564,0.255,-0.355
1:28:55.568,0.275,-0.36
1:28:55.572,0.28,-0.34
1:28:55.576,0.31,-0.32
1:28:55.580,0.29,-0.29
1:28:55.584,0.295,-0.26
1:28:55.588,0.275,-0.265
1:28:55.592,0.26,-0.245
1:28:55.596,0.21,-0.255
1:28:55.600,0.2,-0.255
1:28:55.604,0.19,-0.245
1:28:55.608,0.165,-0.215
1:28:55.612,0.15,-0.22
1:28:55.616,0.145,-0.185
1:28:55.620,0.14,-0.195
1:28:55.624,0.13,-0.18
1:28:55.628,0.14,-0.165
1:28:55.632,0.145,-0.16
1:28:55.636,0.15,-0.14
1:28:55.640,0.16,-0.115
1:28:55.644,0.18,-0.07
1:28:55.648,0.145,-0.05
1:28:55.652,0.15,-0.045
1:28:55.656,0.175,-0.055
1:28:55.660,0.19,-0.05
1:28:55.664,0.21,-0.07
1:28:55.668,0.24,-0.075
1:28:55.672,0.22,-0.075
1:28:55.676,0.255,-0.085
1:28:55.680,0.28,-0.065
1:28:55.684,0.285,-0.08
1:28:55.688,0.285,-0.115
1:28:55.692,0.27,-0.105
1:28:55.696,0.295,-0.1
1:28:55.700,0.28,-0.09
1:28:55.704,0.305,-0.105
1:28:55.708,0.295,-0.135
1:28:55.712,0.3,-0.14
1:28:55.716,0.275,-0.16
1:28:55.720,0.285,-0.185
1:28:55.724,0.265,-0.215
1:28:55.728,0.295,-0.23
1:28:55.732,0.3,-0.23
1:28:55.736,0.335,-0.23
1:28:55.740,0.35,-0.24
1:28:55.744,0.34,-0.22
1:28:55.748,0.34,-0.22
1:28:55.752,0.34,-0.205
1:28:55.756,0.325,-0.185
1:28:55.760,0.315,-0.155
1:28:55.764,0.375,-0.135
1:28:55.768,0.355,-0.12
1:28:55.772,0.34,-0.1
1:28:55.776,0.355,-0.105
1:28:55.780,0.35,-0.105
1:28:55.784,0.305,-0.08
1:28:55.788,0.25,-0.09
1:28:55.792,0.235,-0.085
1:28:55.796,0.22,-0.12
1:28:55.800,0.195,-0.1
1:28:55.804,0.2,-0.145
1:28:55.808,0.18,-0.145
1:28:55.812,0.2,-0.125
1:28:55.816,0.19,-0.14
1:28:55.820,0.2,-0.15
1:28:55.824,0.175,-0.125
1:28:55.828,0.195,-0.11
1:28:55.832,0.2,-0.105
1:28:55.836,0.2,-0.1
1:28:55.840,0.2,-0.085
1:28:55.844,0.205,-0.055
1:28:55.848,0.215,-0.08
1:28:55.852,0.2,-0.06
1:28:55.856,0.22,-0.06
1:28:55.860,0.24,-0.05
1:28:55.864,0.235,-0.08
1:28:55.868,0.245,-0.08
1:28:55.872,0.24,-0.095
1:28:55.876,0.255,-0.095
1:28:55.880,0.265,-0.13
1:28:55.884,0.285,-0.115
1:28:55.888,0.25,-0.15
1:28:55.892,0.27,-0.18
1:28:55.896,0.275,-0.185
1:28:55.900,0.265,-0.185
1:28:55.904,0.27,-0.185
1:28:55.908,0.26,-0.17
1:28:55.912,0.255,-0.18
1:28:55.916,0.245,-0.165
1:28:55.920,0.245,-0.185
1:28:55.924,0.225,-0.19
1:28:55.928,0.245,-0.22
1:28:55.932,0.245,-0.245
1:28:55.936,0.26,-0.275
1:28:55.940,0.28,-0.255
1:28:55.944,0.285,-0.265
1:28:55.948,0.3,-0.275
1:28:55.952,0.295,-0.31
1:28:55.956,0.275,-0.31
1:28:55.960,0.28,-0.28
1:28:55.964,0.295,-0.265
1:28:55.968,0.28,-0.225
1:28:55.972,0.285,-0.215
1:28:55.976,0.275,-0.185
1:28:55.980,0.25,-0.16
1:28:55.984,0.22,-0.17
1:28:55.988,0.23,-0.17
1:28:55.992,0.225,-0.155
1:28:55.996,0.23,-0.16
1:28:56.000,0.23,-0.17
1:28:56.004,0.23,-0.165
1:28:56.008,0.22,-0.15
1:28:56.012,0.23,-0.155
1:28:56.016,0.225,-0.155
1:28:56.020,0.23,-0.14
1:28:56.024,0.22,-0.125
1:28:56.028,0.225,-0.13
1:28:56.032,0.23,-0.12
1:28:56.036,0.225,-0.11
1:28:56.040,0.22,-0.095
1:28:56.044,0.25,-0.09
1:28:56.048,0.255,-0.095
1:28:56.052,0.25,-0.095
1:28:56.056,0.27,-0.075
1:28:56.060,0.27,-0.09
1:28:56.064,0.28,-0.08
1:28:56.068,0.29,-0.07
1:28:56.072,0.29,-0.065
1:28:56.076,0.295,-0.06
1:28:56.080,0.28,-0.02
1:28:56.084,0.3,0.01
1:28:56.088,0.285,0.05
1:28:56.092,0.28,0.07
1:28:56.096,0.3,0.08
1:28:56.100,0.285,0.2
1:28:56.104,0.335,0.44
1:28:56.108,0.345,0.74
1:28:56.112,0.375,0.935
1:28:56.116,0.36,1.05
1:28:56.120,0.32,1.095
1:28:56.124,0.265,1.025
1:28:56.128,0.22,0.89
1:28:56.132,0.165,0.62
1:28:56.136,0.01,0.28
1:28:56.140,-0.295,0.075
1:28:56.144,-0.665,0.25
1:28:56.148,-1.01,0.515
1:28:56.152,-1.165,0.5
1:28:56.156,-1.23,0.175
1:28:56.160,-1.13,-0.185
1:28:56.164,-0.85,-0.485
1:28:56.168,-0.35,-0.69
1:28:56.172,0.065,-0.75
1:28:56.176,0.29,-0.695
1:28:56.180,0.28,-0.575
1:28:56.184,0.225,-0.455
1:28:56.188,0.195,-0.425
1:28:56.192,0.145,-0.4
1:28:56.196,0.16,-0.38
1:28:56.200,0.175,-0.35
1:28:56.204,0.24,-0.31
1:28:56.208,0.285,-0.28
1:28:56.212,0.315,-0.265
1:28:56.216,0.32,-0.265
1:28:56.220,0.325,-0.285
1:28:56.224,0.355,-0.295
1:28:56.228,0.345,-0.29
1:28:56.232,0.345,-0.275
1:28:56.236,0.375,-0.285
1:28:56.240,0.405,-0.285
1:28:56.244,0.4,-0.295
1:28:56.248,0.41,-0.265
1:28:56.252,0.405,-0.28
1:28:56.256,0.4,-0.27
1:28:56.260,0.405,-0.255
1:28:56.264,0.395,-0.265
1:28:56.268,0.425,-0.245
1:28:56.272,0.415,-0.24
1:28:56.276,0.415,-0.225
1:28:56.280,0.42,-0.245
1:28:56.284,0.425,-0.25
1:28:56.288,0.425,-0.25
1:28:56.292,0.42,-0.265
1:28:56.296,0.415,-0.265
1:28:56.300,0.425,-0.27
1:28:56.304,0.415,-0.27
1:28:56.308,0.39,-0.275
1:28:56.312,0.425,-0.275
1:28:56.316,0.425,-0.285
1:28:56.320,0.41,-0.28
1:28:56.324,0.41,-0.28
1:28:56.328,0.405,-0.275
1:28:56.332,0.405,-0.285
1:28:56.336,0.425,-0.26
1:28:56.340,0.41,-0.29
1:28:56.344,0.415,-0.28
1:28:56.348,0.42,-0.285
1:28:56.352,0.405,-0.28
1:28:56.356,0.4,-0.3
1:28:56.360,0.37,-0.315
1:28:56.364,0.37,-0.355
1:28:56.368,0.38,-0.38
1:28:56.372,0.4,-0.39
1:28:56.376,0.43,-0.395
1:28:56.380,0.42,-0.395
1:28:56.384,0.42,-0.37
1:28:56.388,0.43,-0.355
1:28:56.392,0.425,-0.345
1:28:56.396,0.41,-0.36
1:28:56.400,0.39,-0.335
1:28:56.404,0.405,-0.34
1:28:56.408,0.39,-0.315
1:28:56.412,0.41,-0.3
1:28:56.416,0.425,-0.26
1:28:56.420,0.42,-0.27
1:28:56.424,0.425,-0.275
1:28:56.428,0.39,-0.265
1:28:56.432,0.39,-0.25
1:28:56.436,0.385,-0.255
1:28:56.440,0.33,-0.22
1:28:56.444,0.32,-0.225
1:28:56.448,0.265,-0.175
1:28:56.452,0.255,-0.16
1:28:56.456,0.225,-0.18
1:28:56.460,0.245,-0.17
1:28:56.464,0.245,-0.18
1:28:56.468,0.24,-0.155
1:28:56.472,0.24,-0.145
1:28:56.476,0.265,-0.135
1:28:56.480,0.28,-0.13
1:28:56.484,0.28,-0.12
1:28:56.488,0.285,-0.105
1:28:56.492,0.295,-0.11
1:28:56.496,0.3,-0.09
1:28:56.500,0.32,-0.11
1:28:56.504,0.315,-0.12
1:28:56.508,0.325,-0.11
1:28:56.512,0.365,-0.145
1:28:56.516,0.36,-0.145
1:28:56.520,0.365,-0.145
1:28:56.524,0.38,-0.16
1:28:56.528,0.38,-0.14
1:28:56.532,0.375,-0.175
1:28:56.536,0.38,-0.175
1:28:56.540,0.39,-0.2
1:28:56.544,0.39,-0.185
1:28:56.548,0.385,-0.175
1:28:56.552,0.385,-0.17
1:28:56.556,0.36,-0.18
1:28:56.560,0.385,-0.16
1:28:56.564,0.355,-0.155
1:28:56.568,0.355,-0.155
1:28:56.572,0.375,-0.16
1:28:56.576,0.36,-0.18
1:28:56.580,0.36,-0.18
1:28:56.584,0.415,-0.225
1:28:56.588,0.42,-0.235
1:28:56.592,0.42,-0.23
1:28:56.596,0.425,-0.22
1:28:56.600,0.43,-0.235
1:28:56.604,0.42,-0.2
1:28:56.608,0.41,-0.185
1:28:56.612,0.445,-0.14
1:28:56.616,0.44,-0.08
1:28:56.620,0.43,-0.02
1:28:56.624,0.41,-0.01
1:28:56.628,0.425,0.01
1:28:56.632,0.41,0.045
1:28:56.636,0.405,0.06
1:28:56.640,0.46,0.02
1:28:56.644,0.45,-0.1
1:28:56.648,0.37,-0.31
1:28:56.652,0.265,-0.57
1:28:56.656,0.165,-0.78
1:28:56.660,0.075,-0.98
1:28:56.664,-0.03,-1.135
1:28:56.668,-0.125,-1.18
1:28:56.672,-0.24,-0.97
1:28:56.676,-0.315,-0.685
1:28:56.680,-0.35,-0.605
1:28:56.684,-0.335,-0.745
1:28:56.688,-0.23,-0.965
1:28:56.692,-0.005,-1.14
1:28:56.696,0.45,-1.29
1:28:56.700,0.89,-1.31
1:28:56.704,1.12,-1.225
1:28:56.708,1.155,-1.04
1:28:56.712,1.095,-0.855
1:28:56.716,1.025,-0.68
1:28:56.720,1.025,-0.565
1:28:56.724,1.055,-0.5
1:28:56.728,1.105,-0.48
1:28:56.732,1.17,-0.435
1:28:56.736,1.245,-0.415
1:28:56.740,1.305,-0.4
1:28:56.744,1.315,-0.395
1:28:56.748,1.315,-0.39
1:28:56.752,1.285,-0.33
1:28:56.756,1.22,-0.265
1:28:56.760,1.16,-0.2
1:28:56.764,1.045,-0.19
1:28:56.768,0.885,-0.195
1:28:56.772,0.735,-0.17
1:28:56.776,0.555,-0.185
1:28:56.780,0.395,-0.17
1:28:56.784,0.29,-0.155
1:28:56.788,0.235,-0.19
1:28:56.792,0.215,-0.2
1:28:56.796,0.215,-0.215
1:28:56.800,0.215,-0.245
1:28:56.804,0.215,-0.235
1:28:56.808,0.2,-0.24
1:28:56.812,0.175,-0.22
1:28:56.816,0.175,-0.235
1:28:56.820,0.165,-0.21
1:28:56.824,0.15,-0.23
1:28:56.828,0.125,-0.2
1:28:56.832,0.135,-0.2
1:28:56.836,0.14,-0.205
1:28:56.840,0.125,-0.18
1:28:56.844,0.135,-0.205
1:28:56.848,0.13,-0.21
1:28:56.852,0.125,-0.195
1:28:56.856,0.11,-0.215
1:28:56.860,0.115,-0.195
1:28:56.864,0.105,-0.18
1:28:56.868,0.11,-0.16
1:28:56.872,0.095,-0.16
1:28:56.876,0.095,-0.16
1:28:56.880,0.09,-0.145
1:28:56.884,0.09,-0.135
1:28:56.888,0.105,-0.1
1:28:56.892,0.11,-0.065
1:28:56.896,0.125,-0.04
1:28:56.900,0.115,-0.03
1:28:56.904,0.135,0.0
1:28:56.908,0.13,0.02
1:28:56.912,0.13,0.01
1:28:56.916,0.11,0.02
1:28:56.920,0.115,0.0
1:28:56.924,0.08,-0.015
1:28:56.928,0.055,0.0
1:28:56.932,0.02,0.0
1:28:56.936,-0.025,-0.005
1:28:56.940,-0.035,-0.01
1:28:56.944,-0.06,-0.005
1:28:56.948,-0.065,-0.01
1:28:56.952,-0.07,0.005
1:28:56.956,-0.065,-0.02
1:28:56.960,-0.075,-0.03
1:28:56.964,-0.08,-0.025
1:28:56.968,-0.07,-0.04
1:28:56.972,-0.07,-0.08
1:28:56.976,-0.075,-0.08
1:28:56.980,-0.06,-0.12
1:28:56.984,-0.055,-0.105
1:28:56.988,-0.065,-0.13
1:28:56.992,-0.055,-0.135
1:28:56.996,-0.03,-0.105
1:28:57.000,-0.04,-0.12
1:28:57.004,-0.05,-0.125
1:28:57.008,-0.035,-0.115
1:28:57.012,-0.005,-0.14
1:28:57.016,0.025,-0.175
1:28:57.020,0.05,-0.185
1:28:57.024,0.055,-0.205
1:28:57.028,0.095,-0.22
1:28:57.032,0.125,-0.225
1:28:57.036,0.135,-0.21
1:28:57.040,0.13,-0.235
1:28:57.044,0.165,-0.245
1:28:57.048,0.18,-0.24
1:28:57.052,0.185,-0.235
1:28:57.056,0.2,-0.235
1:28:57.060,0.22,-0.255
1:28:57.064,0.215,-0.25
1:28:57.068,0.225,-0.24
1:28:57.072,0.23,-0.26
1:28:57.076,0.255,-0.26
1:28:57.080,0.275,-0.285
1:28:57.084,0.28,-0.29
1:28:57.088,0.31,-0.305
1:28:57.092,0.31,-0.31
1:28:57.096,0.3,-0.305
1:28:57.100,0.3,-0.295
1:28:57.104,0.325,-0.295
1:28:57.108,0.32,-0.29
1:28:57.112,0.31,-0.275
1:28:57.116,0.31,-0.275
1:28:57.120,0.325,-0.26
1:28:57.124,0.335,-0.26
1:28:57.128,0.36,-0.29
1:28:57.132,0.355,-0.27
1:28:57.136,0.37,-0.245
1:28:57.140,0.37,-0.24
1:28:57.144,0.385,-0.205
1:28:57.148,0.4,-0.21
1:28:57.152,0.415,-0.205
1:28:57.156,0.44,-0.205
1:28:57.160,0.435,-0.21
1:28:57.164,0.425,-0.23
1:28:57.168,0.41,-0.26
1:28:57.172,0.35,-0.285
1:28:57.176,0.3,-0.295
1:28:57.180,0.3,-0.3
1:28:57.184,0.25,-0.28
1:28:57.188,0.265,-0.285
1:28:57.192,0.275,-0.285
1:28:57.196,0.26,-0.315
1:28:57.200,0.255,-0.32
1:28:57.204,0.265,-0.32
1:28:57.208,0.275,-0.315
1:28:57.212,0.265,-0.33
1:28:57.216,0.29,-0.32
1:28:57.220,0.28,-0.315
1:28:57.224,0.275,-0.295
1:28:57.228,0.26,-0.3
1:28:57.232,0.265,-0.305
1:28:57.236,0.285,-0.32
1:28:57.240,0.29,-0.315
1:28:57.244,0.305,-0.34
1:28:57.248,0.315,-0.32
1:28:57.252,0.335,-0.35
1:28:57.256,0.32,-0.345
1:28:57.260,0.325,-0.36
1:28:57.264,0.32,-0.355
1:28:57.268,0.31,-0.36
1:28:57.272,0.305,-0.37
1:28:57.276,0.32,-0.395
1:28:57.280,0.305,-0.395
1:28:57.284,0.315,-0.375
1:28:57.288,0.31,-0.395
1:28:57.292,0.32,-0.39
1:28:57.296,0.31,-0.395
1:28:57.300,0.295,-0.39
1:28:57.304,0.3,-0.39
1:28:57.308,0.29,-0.355
1:28:57.312,0.315,-0.37
1:28:57.316,0.31,-0.38
1:28:57.320,0.315,-0.375
1:28:57.324,0.3,-0.355
1:28:57.328,0.3,-0.345
1:28:57.332,0.305,-0.35
1:28:57.336,0.31,-0.355
1:28:57.340,0.295,-0.35
1:28:57.344,0.315,-0.35
1:28:57.348,0.33,-0.34
1:28:57.352,0.34,-0.345
1:28:57.356,0.355,-0.315
1:28:57.360,0.385,-0.275
1:28:57.364,0.355,-0.27
1:28:57.368,0.395,-0.235
1:28:57.372,0.385,-0.215
1:28:57.376,0.35,-0.22
1:28:57.380,0.325,-0.195
1:28:57.384,0.295,-0.14
1:28:57.388,0.255,-0.13
1:28:57.392,0.235,-0.125
1:28:57.396,0.22,-0.11
1:28:57.400,0.23,0.075
1:28:57.404,0.26,0.295
1:28:57.408,0.275,0.52
1:28:57.412,0.285,0.635
1:28:57.416,0.25,0.67
1:28:57.420,0.185,0.63
1:28:57.424,0.135,0.565
1:28:57.428,0.14,0.475
1:28:57.432,0.03,0.215
1:28:57.436,-0.155,-0.02
1:28:57.440,-0.45,0.0
1:28:57.444,-0.77,0.27
1:28:57.448,-1.05,0.39
1:28:57.452,-1.17,0.16
1:28:57.456,-1.155,-0.18
1:28:57.460,-0.97,-0.51
1:28:57.464,-0.565,-0.735
1:28:57.468,-0.065,-0.825
1:28:57.472,0.19,-0.79
1:28:57.476,0.235,-0.69
1:28:57.480,0.22,-0.59
1:28:57.484,0.16,-0.545
1:28:57.488,0.105,-0.53
1:28:57.492,0.105,-0.55
1:28:57.496,0.125,-0.555
1:28:57.500,0.195,-0.545
1:28:57.504,0.235,-0.57
1:28:57.508,0.28,-0.585
1:28:57.512,0.315,-0.54
1:28:57.516,0.345,-0.545
1:28:57.520,0.315,-0.555
1:28:57.524,0.325,-0.565
1:28:57.528,0.35,-0.535
1:28:57.532,0.33,-0.53
1:28:57.536,0.325,-0.52
1:28:57.540,0.37,-0.51
1:28:57.544,0.345,-0.51
1:28:57.548,0.345,-0.525
1:28:57.552,0.35,-0.51
1:28:57.556,0.35,-0.5
1:28:57.560,0.35,-0.495
1:28:57.564,0.365,-0.47
1:28:57.568,0.36,-0.445
1:28:57.572,0.385,-0.435
1:28:57.576,0.37,-0.445
1:28:57.580,0.4,-0.46
1:28:57.584,0.385,-0.44
1:28:57.588,0.405,-0.455
1:28:57.592,0.41,-0.49
1:28:57.596,0.425,-0.48
1:28:57.600,0.435,-0.465
1:28:57.604,0.43,-0.47
1:28:57.608,0.455,-0.465
1:28:57.612,0.45,-0.475
1:28:57.616,0.41,-0.48
1:28:57.620,0.44,-0.51
1:28:57.624,0.425,-0.525
1:28:57.628,0.415,-0.535
1:28:57.632,0.37,-0.54
1:28:57.636,0.325,-0.525
1:28:57.640,0.31,-0.54
1:28:57.644,0.26,-0.52
1:28:57.648,0.265,-0.55
1:28:57.652,0.295,-0.555
1:28:57.656,0.29,-0.585
1:28:57.660,0.295,-0.575
1:28:57.664,0.315,-0.6
1:28:57.668,0.315,-0.59
1:28:57.672,0.31,-0.58
1:28:57.676,0.295,-0.59
1:28:57.680,0.29,-0.57
1:28:57.684,0.285,-0.57
1:28:57.688,0.3,-0.585
1:28:57.692,0.285,-0.59
1:28:57.696,0.265,-0.585
1:28:57.700,0.26,-0.57
1:28:57.704,0.275,-0.57
1:28:57.708,0.26,-0.57
1:28:57.712,0.24,-0.555
1:28:57.716,0.245,-0.55
1:28:57.720,0.235,-0.56
1:28:57.724,0.2,-0.545
1:28:57.728,0.24,-0.52
1:28:57.732,0.2,-0.49
1:28:57.736,0.2,-0.465
1:28:57.740,0.19,-0.425
1:28:57.744,0.185,-0.43
1:28:57.748,0.17,-0.41
1:28:57.752,0.17,-0.405
1:28:57.756,0.18,-0.38
1:28:57.760,0.175,-0.38
1:28:57.764,0.165,-0.355
1:28:57.768,0.19,-0.315
1:28:57.772,0.185,-0.32
1:28:57.776,0.195,-0.305
1:28:57.780,0.2,-0.29
1:28:57.784,0.22,-0.265
1:28:57.788,0.215,-0.27
1:28:57.792,0.215,-0.265
1:28:57.796,0.215,-0.26
1:28:57.800,0.24,-0.255
1:28:57.804,0.245,-0.235
1:28:57.808,0.255,-0.26
1:28:57.812,0.275,-0.235
1:28:57.816,0.295,-0.245
1:28:57.820,0.305,-0.23
1:28:57.824,0.295,-0.225
1:28:57.828,0.325,-0.23
1:28:57.832,0.335,-0.235
1:28:57.836,0.32,-0.245
1:28:57.840,0.33,-0.23
1:28:57.844,0.37,-0.24
1:28:57.848,0.355,-0.215
1:28:57.852,0.345,-0.235
1:28:57.856,0.32,-0.23
1:28:57.860,0.275,-0.215
1:28:57.864,0.24,-0.235
1:28:57.868,0.2,-0.24
1:28:57.872,0.215,-0.255
1:28:57.876,0.2,-0.265
1:28:57.880,0.225,-0.27
1:28:57.884,0.21,-0.295
1:28:57.888,0.22,-0.305
1:28:57.892,0.21,-0.26
1:28:57.896,0.215,-0.195
1:28:57.900,0.22,-0.14
1:28:57.904,0.185,-0.07
1:28:57.908,0.215,0.105
1:28:57.912,0.21,0.3
1:28:57.916,0.23,0.46
1:28:57.920,0.245,0.485
1:28:57.924,0.185,0.395
1:28:57.928,0.1,0.28
1:28:57.932,0.025,0.1
1:28:57.936,-0.03,-0.09
1:28:57.940,-0.16,-0.32
1:28:57.944,-0.47,-0.375
1:28:57.948,-0.805,-0.145
1:28:57.952,-1.135,0.195
1:28:57.956,-1.365,0.315
1:28:57.960,-1.47,0.125
1:28:57.964,-1.43,-0.155
1:28:57.968,-1.18,-0.43
1:28:57.972,-0.7,-0.64
1:28:57.976,-0.2,-0.72
1:28:57.980,0.055,-0.675
1:28:57.984,0.115,-0.57
1:28:57.988,0.105,-0.48
1:28:57.992,0.105,-0.47
1:28:57.996,0.085,-0.475
1:28:58.000,0.08,-0.465
1:28:58.004,0.12,-0.46
1:28:58.008,0.185,-0.455
1:28:58.012,0.245,-0.485
1:28:58.016,0.285,-0.455
1:28:58.020,0.3,-0.46
1:28:58.024,0.295,-0.455
1:28:58.028,0.305,-0.46
1:28:58.032,0.32,-0.45
1:28:58.036,0.345,-0.425
1:28:58.040,0.335,-0.42
1:28:58.044,0.36,-0.42
1:28:58.048,0.375,-0.435
1:28:58.052,0.4,-0.425
1:28:58.056,0.41,-0.425
1:28:58.060,0.43,-0.41
1:28:58.064,0.43,-0.4
1:28:58.068,0.43,-0.38
1:28:58.072,0.4,-0.365
1:28:58.076,0.35,-0.36
1:28:58.080,0.29,-0.4
1:28:58.084,0.285,-0.42
1:28:58.088,0.305,-0.44
1:28:58.092,0.305,-0.455
1:28:58.096,0.325,-0.45
1:28:58.100,0.31,-0.47
1:28:58.104,0.315,-0.47
1:28:58.108,0.315,-0.475
1:28:58.112,0.32,-0.5
1:28:58.116,0.3,-0.495
1:28:58.120,0.3,-0.505
1:28:58.124,0.295,-0.51
1:28:58.128,0.31,-0.48
1:28:58.132,0.295,-0.49
1:28:58.136,0.31,-0.5
1:28:58.140,0.29,-0.495
1:28:58.144,0.295,-0.475
1:28:58.148,0.26,-0.48
1:28:58.152,0.27,-0.495
1:28:58.156,0.27,-0.49
1:28:58.160,0.31,-0.48
1:28:58.164,0.29,-0.475
1:28:58.168,0.315,-0.455
1:28:58.172,0.285,-0.465
1:28:58.176,0.28,-0.415
1:28:58.180,0.305,-0.405
1:28:58.184,0.325,-0.41
1:28:58.188,0.325,-0.395
1:28:58.192,0.315,-0.365
1:28:58.196,0.315,-0.345
1:28:58.200,0.345,-0.345
1:28:58.204,0.335,-0.31
1:28:58.208,0.335,-0.27
1:28:58.212,0.33,-0.26
1:28:58.216,0.32,-0.265
1:28:58.220,0.345,-0.235
1:28:58.224,0.325,-0.24
1:28:58.228,0.32,-0.235
1:28:58.232,0.32,-0.23
1:28:58.236,0.31,-0.22
1:28:58.240,0.315,-0.23
1:28:58.244,0.32,-0.215
1:28:58.248,0.315,-0.22
1:28:58.252,0.305,-0.25
1:28:58.256,0.31,-0.275
1:28:58.260,0.315,-0.27
1:28:58.264,0.3,-0.255
1:28:58.268,0.31,-0.24
1:28:58.272,0.325,-0.21
1:28:58.276,0.3,-0.16
1:28:58.280,0.33,-0.17
1:28:58.284,0.29,-0.17
1:28:58.288,0.305,-0.165
1:28:58.292,0.295,-0.185
1:28:58.296,0.295,-0.22
1:28:58.300,0.26,-0.2
1:28:58.304,0.24,-0.24
1:28:58.308,0.2,-0.22
1:28:58.312,0.2,-0.23
1:28:58.316,0.2,-0.26
1:28:58.320,0.195,-0.25
1:28:58.324,0.175,-0.245
1:28:58.328,0.195,-0.24
1:28:58.332,0.185,-0.22
1:28:58.336,0.195,-0.255
1:28:58.340,0.195,-0.26
1:28:58.344,0.205,-0.24
1:28:58.348,0.2,-0.265
1:28:58.352,0.215,-0.265
1:28:58.356,0.19,-0.28
1:28:58.360,0.185,-0.275
1:28:58.364,0.195,-0.255
1:28:58.368,0.185,-0.265
1:28:58.372,0.205,-0.275
1:28:58.376,0.195,-0.275
1:28:58.380,0.2,-0.28
1:28:58.384,0.215,-0.28
1:28:58.388,0.205,-0.265
1:28:58.392,0.195,-0.28
1:28:58.396,0.19,-0.275
1:28:58.400,0.195,-0.275
1:28:58.404,0.185,-0.285
1:28:58.408,0.185,-0.26
1:28:58.412,0.21,-0.26
1:28:58.416,0.2,-0.28
1:28:58.420,0.205,-0.285
1:28:58.424,0.195,-0.29
1:28:58.428,0.195,-0.27
1:28:58.432,0.195,-0.3
1:28:58.436,0.19,-0.28
1:28:58.440,0.195,-0.305
1:28:58.444,0.205,-0.3
1:28:58.448,0.185,-0.31
1:28:58.452,0.185,-0.31
1:28:58.456,0.19,-0.345
1:28:58.460,0.19,-0.345
1:28:58.464,0.2,-0.345
1:28:58.468,0.185,-0.33
1:28:58.472,0.175,-0.31
1:28:58.476,0.175,-0.29
1:28:58.480,0.175,-0.28
1:28:58.484,0.165,-0.255
1:28:58.488,0.18,-0.255
1:28:58.492,0.18,-0.25
1:28:58.496,0.195,-0.2
1:28:58.500,0.23,-0.19
1:28:58.504,0.24,-0.155
1:28:58.508,0.25,-0.135
1:28:58.512,0.275,-0.1
1:28:58.516,0.305,-0.095
1:28:58.520,0.335,-0.095
1:28:58.524,0.34,-0.115
1:28:58.528,0.36,-0.11
1:28:58.532,0.315,-0.145
1:28:58.536,0.3,-0.16
1:28:58.540,0.25,-0.195
1:28:58.544,0.225,-0.19
1:28:58.548,0.195,-0.21
1:28:58.552,0.165,-0.205
1:28:58.556,0.16,-0.215
1:28:58.560,0.155,-0.24
1:28:58.564,0.15,-0.23
1:28:58.568,0.155,-0.245
1:28:58.572,0.17,-0.245
1:28:58.576,0.155,-0.24
1:28:58.580,0.18,-0.265
1:28:58.584,0.165,-0.255
1:28:58.588,0.165,-0.245
1:28:58.592,0.15,-0.265
1:28:58.596,0.155,-0.235
1:28:58.600,0.145,-0.25
1:28:58.604,0.16,-0.255
1:28:58.608,0.165,-0.245
1:28:58.612,0.18,-0.245
1:28:58.616,0.145,-0.22
1:28:58.620,0.155,-0.225
1:28:58.624,0.155,-0.255
1:28:58.628,0.165,-0.245
1:28:58.632,0.145,-0.22
1:28:58.636,0.155,-0.225
1:28:58.640,0.15,-0.225
1:28:58.644,0.145,-0.24
1:28:58.648,0.14,-0.245
1:28:58.652,0.145,-0.24
1:28:58.656,0.17,-0.255
1:28:58.660,0.165,-0.23
1:28:58.664,0.16,-0.245
1:28:58.668,0.15,-0.245
1:28:58.672,0.13,-0.245
1:28:58.676,0.145,-0.25
1:28:58.680,0.14,-0.26
1:28:58.684,0.15,-0.26
1:28:58.688,0.14,-0.24
1:28:58.692,0.14,-0.235
1:28:58.696,0.165,-0.175
1:28:58.700,0.155,-0.145
1:28:58.704,0.15,-0.11
1:28:58.708,0.155,-0.075
1:28:58.712,0.17,-0.095
1:28:58.716,0.17,-0.02
1:28:58.720,0.19,0.185
1:28:58.724,0.245,0.465
1:28:58.728,0.29,0.725
1:28:58.732,0.31,0.895
1:28:58.736,0.245,1.0
1:28:58.740,0.2,1.075
1:28:58.744,0.195,1.07
1:28:58.748,0.185,0.94
1:28:58.752,0.105,0.665
1:28:58.756,-0.11,0.335
1:28:58.760,-0.4,0.21
1:28:58.764,-0.715,0.385
1:28:58.768,-0.97,0.54
1:28:58.772,-1.145,0.375
1:28:58.776,-1.185,0.02
1:28:58.780,-1.065,-0.305
1:28:58.784,-0.715,-0.54
1:28:58.788,-0.24,-0.685
1:28:58.792,0.04,-0.705
1:28:58.796,0.145,-0.615
1:28:58.800,0.115,-0.49
1:28:58.804,0.07,-0.42
1:28:58.808,0.015,-0.405
1:28:58.812,-0.005,-0.4
1:28:58.816,0.035,-0.405
1:28:58.820,0.08,-0.4
1:28:58.824,0.15,-0.395
1:28:58.828,0.18,-0.4
1:28:58.832,0.22,-0.39
1:28:58.836,0.24,-0.39
1:28:58.840,0.245,-0.385
1:28:58.844,0.265,-0.37
1:28:58.848,0.26,-0.36
1:28:58.852,0.295,-0.35
1:28:58.856,0.31,-0.345
1:28:58.860,0.3,-0.365
1:28:58.864,0.31,-0.35
1:28:58.868,0.315,-0.365
1:28:58.872,0.32,-0.355
1:28:58.876,0.315,-0.38
1:28:58.880,0.325,-0.38
1:28:58.884,0.34,-0.38
1:28:58.888,0.31,-0.39
1:28:58.892,0.325,-0.395
1:28:58.896,0.33,-0.395
1:28:58.900,0.325,-0.395
1:28:58.904,0.32,-0.42
1:28:58.908,0.34,-0.405
1:28:58.912,0.32,-0.37
1:28:58.916,0.31,-0.355
1:28:58.920,0.32,-0.355
1:28:58.924,0.335,-0.36
1:28:58.928,0.305,-0.4
1:28:58.932,0.335,-0.39
1:28:58.936,0.375,-0.415
1:28:58.940,0.385,-0.415
1:28:58.944,0.385,-0.425
1:28:58.948,0.375,-0.445
1:28:58.952,0.37,-0.43
1:28:58.956,0.37,-0.435
1:28:58.960,0.38,-0.43
1:28:58.964,0.37,-0.41
1:28:58.968,0.36,-0.425
1:28:58.972,0.375,-0.4
1:28:58.976,0.365,-0.415
1:28:58.980,0.38,-0.41
1:28:58.984,0.395,-0.4
1:28:58.988,0.395,-0.38
1:28:58.992,0.385,-0.385
1:28:58.996,0.39,-0.38
1:28:59.000,0.415,-0.34
1:28:59.004,0.39,-0.365
1:28:59.008,0.405,-0.355
1:28:59.012,0.365,-0.365
1:28:59.016,0.355,-0.35
1:28:59.020,0.315,-0.35
1:28:59.024,0.3,-0.35
1:28:59.028,0.25,-0.355
1:28:59.032,0.22,-0.31
1:28:59.036,0.22,-0.3
1:28:59.040,0.205,-0.28
1:28:59.044,0.2,-0.27
1:28:59.048,0.19,-0.235
1:28:59.052,0.2,-0.21
1:28:59.056,0.2,-0.205
1:28:59.060,0.195,-0.185
1:28:59.064,0.205,-0.18
1:28:59.068,0.2,-0.165
1:28:59.072,0.19,-0.16
1:28:59.076,0.21,-0.15
1:28:59.080,0.21,-0.135
1:28:59.084,0.235,-0.12
1:28:59.088,0.205,-0.085
1:28:59.092,0.21,-0.1
1:28:59.096,0.21,-0.085
1:28:59.100,0.22,-0.07
1:28:59.104,0.21,-0.075
1:28:59.108,0.22,-0.085
1:28:59.112,0.235,-0.08
1:28:59.116,0.23,-0.07
1:28:59.120,0.26,-0.09
1:28:59.124,0.255,-0.07
1:28:59.128,0.25,-0.05
1:28:59.132,0.245,-0.02
1:28:59.136,0.275,-0.03
1:28:59.140,0.265,-0.045
1:28:59.144,0.27,-0.05
1:28:59.148,0.3,-0.07
1:28:59.152,0.32,-0.07
1:28:59.156,0.345,-0.09
1:28:59.160,0.33,-0.12
1:28:59.164,0.34,-0.115
1:28:59.168,0.355,-0.12
1:28:59.172,0.35,-0.14
1:28:59.176,0.355,-0.145
1:28:59.180,0.345,-0.165
1:28:59.184,0.355,-0.175
1:28:59.188,0.345,-0.17
1:28:59.192,0.355,-0.19
1:28:59.196,0.325,-0.165
1:28:59.200,0.34,-0.175
1:28:59.204,0.335,-0.185
1:28:59.208,0.32,-0.17
1:28:59.212,0.33,-0.155
1:28:59.216,0.335,-0.17
1:28:59.220,0.335,-0.15
1:28:59.224,0.355,-0.135
1:28:59.228,0.36,-0.12
1:28:59.232,0.36,-0.135
1:28:59.236,0.365,-0.11
1:28:59.240,0.39,-0.12
1:28:59.244,0.39,-0.09
1:28:59.248,0.4,-0.08
1:28:59.252,0.375,-0.075
1:28:59.256,0.335,-0.075
1:28:59.260,0.315,-0.09
1:28:59.264,0.275,-0.08
1:28:59.268,0.255,-0.095
1:28:59.272,0.275,-0.12
1:28:59.276,0.25,-0.13
1:28:59.280,0.265,-0.135
1:28:59.284,0.255,-0.15
1:28:59.288,0.255,-0.15
1:28:59.292,0.285,-0.145
1:28:59.296,0.28,-0.14
1:28:59.300,0.27,-0.155
1:28:59.304,0.28,-0.19
1:28:59.308,0.28,-0.19
1:28:59.312,0.285,-0.195
1:28:59.316,0.285,-0.2
1:28:59.320,0.285,-0.185
1:28:59.324,0.27,-0.175
1:28:59.328,0.28,-0.145
1:28:59.332,0.275,-0.13
1:28:59.336,0.28,-0.125
1:28:59.340,0.28,-0.115
1:28:59.344,0.29,-0.135
1:28:59.348,0.28,-0.13
1:28:59.352,0.285,-0.15
1:28:59.356,0.305,-0.155
1:28:59.360,0.315,-0.175
1:28:59.364,0.325,-0.16
1:28:59.368,0.3,-0.16
1:28:59.372,0.275,-0.16
1:28:59.376,0.255,-0.175
1:28:59.380,0.275,-0.175
1:28:59.384,0.28,-0.18
1:28:59.388,0.26,-0.19
1:28:59.392,0.285,-0.2
1:28:59.396,0.29,-0.21
1:28:59.400,0.3,-0.205
1:28:59.404,0.28,-0.205
1:28:59.408,0.265,-0.19
1:28:59.412,0.25,-0.2
1:28:59.416,0.245,-0.2
1:28:59.420,0.26,-0.21
1:28:59.424,0.25,-0.21
1:28:59.428,0.255,-0.205
1:28:59.432,0.26,-0.185
1:28:59.436,0.27,-0.19
1:28:59.440,0.27,-0.17
1:28:59.444,0.27,-0.18
1:28:59.448,0.265,-0.16
1:28:59.452,0.27,-0.11
1:28:59.456,0.265,-0.095
1:28:59.460,0.27,-0.09
1:28:59.464,0.26,-0.095
1:28:59.468,0.29,-0.07
1:28:59.472,0.28,-0.025
1:28:59.476,0.295,-0.035
1:28:59.480,0.3,-0.035
1:28:59.484,0.35,-0.02
1:28:59.488,0.365,-0.01
1:28:59.492,0.38,0.0
1:28:59.496,0.42,0.025
1:28:59.500,0.405,0.02
1:28:59.504,0.42,0.0
1:28:59.508,0.41,-0.015
1:28:59.512,0.365,-0.03
1:28:59.516,0.315,-0.055
1:28:59.520,0.265,-0.075
1:28:59.524,0.245,-0.105
1:28:59.528,0.215,-0.105
1:28:59.532,0.225,-0.125
1:28:59.536,0.215,-0.145
1:28:59.540,0.205,-0.155
1:28:59.544,0.215,-0.15
1:28:59.548,0.19,-0.13
1:28:59.552,0.205,-0.135
1:28:59.556,0.2,-0.115
1:28:59.560,0.2,-0.145
1:28:59.564,0.17,-0.145
1:28:59.568,0.19,-0.135
1:28:59.572,0.215,-0.115
1:28:59.576,0.215,-0.07
1:28:59.580,0.23,-0.035
1:28:59.584,0.23,-0.04
1:28:59.588,0.225,-0.02
1:28:59.592,0.205,0.135
1:28:59.596,0.24,0.415
1:28:59.600,0.255,0.685
1:28:59.604,0.24,0.87
1:28:59.608,0.24,0.955
1:28:59.612,0.205,0.995
1:28:59.616,0.155,0.965
1:28:59.620,0.125,0.815
1:28:59.624,0.055,0.56
1:28:59.628,-0.115,0.21
1:28:59.632,-0.445,0.055
1:28:59.636,-0.815,0.275
1:28:59.640,-1.15,0.565
1:28:59.644,-1.36,0.525
1:28:59.648,-1.44,0.23
1:28:59.652,-1.35,-0.145
1:28:59.656,-1.015,-0.425
1:28:59.660,-0.49,-0.575
1:28:59.664,-0.03,-0.61
1:28:59.668,0.13,-0.545
1:28:59.672,0.175,-0.415
1:28:59.676,0.115,-0.33
1:28:59.680,0.085,-0.305
1:28:59.684,0.055,-0.285
1:28:59.688,0.085,-0.31
1:28:59.692,0.13,-0.305
1:28:59.696,0.205,-0.29
1:28:59.700,0.275,-0.3
1:28:59.704,0.29,-0.325
1:28:59.708,0.325,-0.34
1:28:59.712,0.335,-0.345
1:28:59.716,0.325,-0.35
1:28:59.720,0.36,-0.345
1:28:59.724,0.33,-0.32
1:28:59.728,0.37,-0.295
1:28:59.732,0.365,-0.25
1:28:59.736,0.355,-0.23
1:28:59.740,0.39,-0.215
1:28:59.744,0.435,-0.215
1:28:59.748,0.445,-0.195
1:28:59.752,0.43,-0.205
1:28:59.756,0.44,-0.225
1:28:59.760,0.43,-0.25
1:28:59.764,0.405,-0.255
1:28:59.768,0.35,-0.26
1:28:59.772,0.325,-0.275
1:28:59.776,0.29,-0.26
1:28:59.780,0.315,-0.265
1:28:59.784,0.3,-0.275
1:28:59.788,0.3,-0.325
1:28:59.792,0.3,-0.335
1:28:59.796,0.32,-0.355
1:28:59.800,0.355,-0.36
1:28:59.804,0.365,-0.385
1:28:59.808,0.365,-0.415
1:28:59.812,0.345,-0.42
1:28:59.816,0.335,-0.43
1:28:59.820,0.325,-0.42
1:28:59.824,0.34,-0.42
1:28:59.828,0.335,-0.43
1:28:59.832,0.315,-0.455
1:28:59.836,0.33,-0.45
1:28:59.840,0.325,-0.455
1:28:59.844,0.315,-0.455
1:28:59.848,0.31,-0.47
1:28:59.852,0.31,-0.455
1:28:59.856,0.3,-0.455
1:28:59.860,0.285,-0.44
1:28:59.864,0.295,-0.42
1:28:59.868,0.295,-0.395
1:28:59.872,0.3,-0.385
1:28:59.876,0.295,-0.345
1:28:59.880,0.3,-0.33
1:28:59.884,0.285,-0.315
1:28:59.888,0.28,-0.295
1:28:59.892,0.29,-0.265
1:28:59.896,0.295,-0.26
1:28:59.900,0.295,-0.225
1:28:59.904,0.295,-0.2
1:28:59.908,0.285,-0.18
1:28:59.912,0.275,-0.175
1:28:59.916,0.295,-0.18
1:28:59.920,0.28,-0.155
1:28:59.924,0.265,-0.14
1:28:59.928,0.27,-0.12
1:28:59.932,0.275,-0.09
1:28:59.936,0.27,-0.095
1:28:59.940,0.25,-0.1
1:28:59.944,0.255,-0.08
1:28:59.948,0.25,-0.07
1:28:59.952,0.275,-0.07
1:28:59.956,0.27,-0.05
1:28:59.960,0.28,-0.03
1:28:59.964,0.29,-0.005
1:28:59.968,0.31,0.0
1:28:59.972,0.315,0.0
1:28:59.976,0.325,-0.005
1:28:59.980,0.335,-0.03
1:28:59.984,0.345,-0.005
1:28:59.988,0.345,-0.005
1:28:59.992,0.34,-0.03
1:28:59.996,0.305,-0.045
1:29:00.000,0.27,-0.07
1:29:00.004,0.245,-0.08
1:29:00.008,0.24,-0.095
1:29:00.012,0.235,-0.12
1:29:00.016,0.26,-0.13
1:29:00.020,0.25,-0.13
1:29:00.024,0.255,-0.13
1:29:00.028,0.27,-0.13
1:29:00.032,0.275,-0.14
1:29:00.036,0.255,-0.15
1:29:00.040,0.27,-0.17
1:29:00.044,0.26,-0.195
1:29:00.048,0.255,-0.205
1:29:00.052,0.25,-0.225
1:29:00.056,0.25,-0.24
1:29:00.060,0.25,-0.24
1:29:00.064,0.24,-0.245
1:29:00.068,0.245,-0.235
1:29:00.072,0.265,-0.235
1:29:00.076,0.265,-0.215
1:29:00.080,0.25,-0.225
1:29:00.084,0.225,-0.215
1:29:00.088,0.245,-0.19
1:29:00.092,0.22,-0.17
1:29:00.096,0.21,-0.15
1:29:00.100,0.235,-0.125
1:29:00.104,0.24,-0.105
1:29:00.108,0.225,-0.115
1:29:00.112,0.245,-0.125
1:29:00.116,0.225,-0.12
1:29:00.120,0.23,-0.135
1:29:00.124,0.255,-0.115
1:29:00.128,0.265,-0.115
1:29:00.132,0.245,-0.125
1:29:00.136,0.245,-0.13
1:29:00.140,0.28,-0.12
1:29:00.144,0.27,-0.125
1:29:00.148,0.245,-0.095
1:29:00.152,0.255,-0.09
1:29:00.156,0.26,-0.11
1:29:00.160,0.26,-0.085
1:29:00.164,0.27,-0.09
1:29:00.168,0.27,-0.095
1:29:00.172,0.27,-0.08
1:29:00.176,0.275,-0.135
1:29:00.180,0.265,-0.145
1:29:00.184,0.285,-0.15
1:29:00.188,0.32,-0.16
1:29:00.192,0.34,-0.155
1:29:00.196,0.385,-0.11
1:29:00.200,0.38,-0.1
1:29:00.204,0.36,-0.06
1:29:00.208,0.36,-0.065
1:29:00.212,0.32,-0.06
1:29:00.216,0.33,-0.085
1:29:00.220,0.315,-0.095
1:29:00.224,0.28,-0.095
1:29:00.228,0.255,-0.12
1:29:00.232,0.24,-0.135
1:29:00.236,0.235,-0.155
1:29:00.240,0.23,-0.16
1:29:00.244,0.225,-0.15
1:29:00.248,0.195,-0.19
1:29:00.252,0.195,-0.195
1:29:00.256,0.205,-0.195
1:29:00.260,0.205,-0.21
1:29:00.264,0.2,-0.225
1:29:00.268,0.18,-0.22
1:29:00.272,0.18,-0.23
1:29:00.276,0.17,-0.225
1:29:00.280,0.16,-0.23
1:29:00.284,0.17,-0.225
1:29:00.288,0.15,-0.23
1:29:00.292,0.165,-0.25
1:29:00.296,0.165,-0.23
1:29:00.300,0.155,-0.2
1:29:00.304,0.165,-0.205
1:29:00.308,0.15,-0.19
1:29:00.312,0.15,-0.175
1:29:00.316,0.125,-0.175
1:29:00.320,0.155,-0.185
1:29:00.324,0.165,-0.16
1:29:00.328,0.165,-0.145
1:29:00.332,0.185,-0.145
1:29:00.336,0.205,-0.13
1:29:00.340,0.18,-0.13
1:29:00.344,0.195,-0.11
1:29:00.348,0.175,-0.13
1:29:00.352,0.19,-0.13
1:29:00.356,0.195,-0.135
1:29:00.360,0.185,-0.14
1:29:00.364,0.21,-0.13
1:29:00.368,0.205,-0.14
1:29:00.372,0.21,-0.13
1:29:00.376,0.23,-0.135
1:29:00.380,0.19,-0.135
1:29:00.384,0.205,-0.14
1:29:00.388,0.22,-0.13
1:29:00.392,0.22,-0.08
1:29:00.396,0.215,-0.11
1:29:00.400,0.225,-0.115
1:29:00.404,0.205,-0.11
1:29:00.408,0.22,-0.12
1:29:00.412,0.21,-0.085
1:29:00.416,0.235,-0.04
1:29:00.420,0.255,0.035
1:29:00.424,0.255,0.1
1:29:00.428,0.265,0.135
1:29:00.432,0.27,0.185
1:29:00.436,0.275,0.295
1:29:00.440,0.31,0.51
1:29:00.444,0.355,0.72
1:29:00.448,0.375,0.855
1:29:00.452,0.325,0.865
1:29:00.456,0.22,0.835
1:29:00.460,0.14,0.755
1:29:00.464,0.095,0.64
1:29:00.468,0.015,0.43
1:29:00.472,-0.17,0.145
1:29:00.476,-0.445,0.06
1:29:00.480,-0.805,0.275
1:29:00.484,-1.105,0.53
1:29:00.488,-1.265,0.46
1:29:00.492,-1.325,0.14
1:29:00.496,-1.23,-0.215
1:29:00.500,-0.885,-0.43
1:29:00.504,-0.41,-0.565
1:29:00.508,-0.025,-0.585
1:29:00.512,0.115,-0.515
1:29:00.516,0.085,-0.395
1:29:00.520,0.03,-0.315
1:29:00.524,-0.01,-0.28
1:29:00.528,-0.015,-0.32
1:29:00.532,0.005,-0.335
1:29:00.536,0.05,-0.32
1:29:00.540,0.115,-0.335
1:29:00.544,0.17,-0.32
1:29:00.548,0.19,-0.32
1:29:00.552,0.195,-0.31
1:29:00.556,0.215,-0.335
1:29:00.560,0.215,-0.33
1:29:00.564,0.215,-0.325
1:29:00.568,0.22,-0.345
1:29:00.572,0.21,-0.345
1:29:00.576,0.225,-0.335
1:29:00.580,0.24,-0.355
1:29:00.584,0.245,-0.33
1:29:00.588,0.25,-0.34
1:29:00.592,0.24,-0.335
1:29:00.596,0.25,-0.335
1:29:00.600,0.25,-0.35
1:29:00.604,0.255,-0.36
1:29:00.608,0.255,-0.36
1:29:00.612,0.26,-0.375
1:29:00.616,0.27,-0.4
1:29:00.620,0.255,-0.415
1:29:00.624,0.265,-0.425
1:29:00.628,0.275,-0.435
1:29:00.632,0.275,-0.45
1:29:00.636,0.27,-0.395
1:29:00.640,0.255,-0.395
1:29:00.644,0.255,-0.4
1:29:00.648,0.26,-0.375
1:29:00.652,0.26,-0.375
1:29:00.656,0.285,-0.39
1:29:00.660,0.3,-0.38
1:29:00.664,0.295,-0.36
1:29:00.668,0.315,-0.375
1:29:00.672,0.3,-0.365
1:29:00.676,0.275,-0.32
1:29:00.680,0.23,-0.33
1:29:00.684,0.21,-0.35
1:29:00.688,0.185,-0.35
1:29:00.692,0.18,-0.37
1:29:00.696,0.18,-0.36
1:29:00.700,0.19,-0.365
1:29:00.704,0.19,-0.36
1:29:00.708,0.205,-0.355
1:29:00.712,0.19,-0.36
1:29:00.716,0.23,-0.36
1:29:00.720,0.195,-0.36
1:29:00.724,0.185,-0.36
1:29:00.728,0.195,-0.33
1:29:00.732,0.205,-0.33
1:29:00.736,0.17,-0.32
1:29:00.740,0.145,-0.305
1:29:00.744,0.165,-0.31
1:29:00.748,0.16,-0.295
1:29:00.752,0.165,-0.28
1:29:00.756,0.155,-0.255
1:29:00.760,0.16,-0.24
1:29:00.764,0.17,-0.225
1:29:00.768,0.15,-0.21
1:29:00.772,0.13,-0.185
1:29:00.776,0.145,-0.185
1:29:00.780,0.13,-0.175
1:29:00.784,0.16,-0.18
1:29:00.788,0.155,-0.16
1:29:00.792,0.16,-0.14
1:29:00.796,0.145,-0.145
1:29:00.800,0.175,-0.16
1:29:00.804,0.165,-0.155
1:29:00.808,0.175,-0.155
1:29:00.812,0.165,-0.17
1:29:00.816,0.145,-0.17
1:29:00.820,0.175,-0.165
1:29:00.824,0.18,-0.15
1:29:00.828,0.18,-0.16
1:29:00.832,0.185,-0.15
1:29:00.836,0.2,-0.18
1:29:00.840,0.18,-0.2
1:29:00.844,0.175,-0.215
1:29:00.848,0.205,-0.215
1:29:00.852,0.195,-0.2
1:29:00.856,0.19,-0.2
1:29:00.860,0.205,-0.175
1:29:00.864,0.195,-0.155
1:29:00.868,0.195,-0.115
1:29:00.872,0.22,-0.115
1:29:00.876,0.235,-0.105
1:29:00.880,0.235,-0.12
1:29:00.884,0.27,-0.105
1:29:00.888,0.28,-0.115
1:29:00.892,0.28,-0.08
1:29:00.896,0.295,-0.085
1:29:00.900,0.265,-0.115
1:29:00.904,0.27,-0.13
1:29:00.908,0.225,-0.14
1:29:00.912,0.21,-0.16
1:29:00.916,0.145,-0.16
1:29:00.920,0.135,-0.205
1:29:00.924,0.115,-0.235
1:29:00.928,0.14,-0.24
1:29:00.932,0.135,-0.25
1:29:00.936,0.135,-0.235
1:29:00.940,0.135,-0.25
1:29:00.944,0.135,-0.265
1:29:00.948,0.12,-0.27
1:29:00.952,0.095,-0.285
1:29:00.956,0.1,-0.29
1:29:00.960,0.13,-0.28
1:29:00.964,0.105,-0.255
1:29:00.968,0.095,-0.285
1:29:00.972,0.085,-0.285
1:29:00.976,0.08,-0.265
1:29:00.980,0.1,-0.24
1:29:00.984,0.08,-0.255
1:29:00.988,0.095,-0.24
1:29:00.992,0.08,-0.24
1:29:00.996,0.095,-0.24
1:29:01.000,0.085,-0.24
1:29:01.004,0.09,-0.24
1:29:01.008,0.1,-0.25
1:29:01.012,0.075,-0.24
1:29:01.016,0.105,-0.255
1:29:01.020,0.105,-0.255
1:29:01.024,0.115,-0.26
1:29:01.028,0.115,-0.23
1:29:01.032,0.115,-0.255
1:29:01.036,0.095,-0.24
1:29:01.040,0.1,-0.24
1:29:01.044,0.1,-0.24
1:29:01.048,0.12,-0.25
1:29:01.052,0.115,-0.27
1:29:01.056,0.12,-0.255
1:29:01.060,0.125,-0.255
1:29:01.064,0.125,-0.24
1:29:01.068,0.14,-0.24
1:29:01.072,0.125,-0.22
1:29:01.076,0.11,-0.21
1:29:01.080,0.13,-0.18
1:29:01.084,0.115,-0.18
1:29:01.088,0.14,-0.185
1:29:01.092,0.165,-0.165
1:29:01.096,0.175,-0.145
1:29:01.100,0.175,-0.15
1:29:01.104,0.2,-0.13
1:29:01.108,0.21,-0.14
1:29:01.112,0.21,-0.11
1:29:01.116,0.25,-0.115
1:29:01.120,0.245,-0.11
1:29:01.124,0.275,-0.11
1:29:01.128,0.255,-0.13
1:29:01.132,0.245,-0.16
1:29:01.136,0.195,-0.15
1:29:01.140,0.155,-0.16
1:29:01.144,0.145,-0.19
1:29:01.148,0.115,-0.195
1:29:01.152,0.105,-0.2
1:29:01.156,0.11,-0.245
1:29:01.160,0.12,-0.25
1:29:01.164,0.11,-0.255
1:29:01.168,0.1,-0.255
1:29:01.172,0.09,-0.24
1:29:01.176,0.1,-0.275
1:29:01.180,0.09,-0.26
1:29:01.184,0.075,-0.25
1:29:01.188,0.065,-0.25
1:29:01.192,0.075,-0.265
1:29:01.196,0.09,-0.26
1:29:01.200,0.065,-0.255
1:29:01.204,0.095,-0.255
1:29:01.208,0.08,-0.25
1:29:01.212,0.065,-0.245
1:29:01.216,0.08,-0.25
1:29:01.220,0.1,-0.225
1:29:01.224,0.09,-0.225
1:29:01.228,0.095,-0.22
1:29:01.232,0.1,-0.22
1:29:01.236,0.13,-0.2
1:29:01.240,0.115,-0.215
1:29:01.244,0.12,-0.185
1:29:01.248,0.11,-0.175
1:29:01.252,0.115,-0.16
1:29:01.256,0.13,-0.185
1:29:01.260,0.12,-0.205
1:29:01.264,0.115,-0.205
1:29:01.268,0.135,-0.215
1:29:01.272,0.155,-0.22
1:29:01.276,0.145,-0.235
1:29:01.280,0.15,-0.235
1:29:01.284,0.145,-0.215
1:29:01.288,0.135,-0.205
1:29:01.292,0.135,-0.195
1:29:01.296,0.155,-0.185
1:29:01.300,0.135,-0.15
1:29:01.304,0.145,-0.145
1:29:01.308,0.145,-0.145
1:29:01.312,0.175,-0.15
1:29:01.316,0.155,-0.17
1:29:01.320,0.17,-0.18
1:29:01.324,0.17,-0.175
1:29:01.328,0.175,-0.18
1:29:01.332,0.18,-0.185
1:29:01.336,0.195,-0.17
1:29:01.340,0.195,-0.16
1:29:01.344,0.19,-0.155
1:29:01.348,0.2,-0.14
1:29:01.352,0.225,-0.11
1:29:01.356,0.22,-0.135
1:29:01.360,0.225,-0.09
1:29:01.364,0.25,-0.09
1:29:01.368,0.26,-0.05
1:29:01.372,0.24,-0.06
1:29:01.376,0.26,-0.03
1:29:01.380,0.255,0.0
1:29:01.384,0.21,0.0
1:29:01.388,0.175,0.02
1:29:01.392,0.145,0.105
1:29:01.396,0.095,0.31
1:29:01.400,0.12,0.52
1:29:01.404,0.14,0.675
1:29:01.408,0.105,0.775
1:29:01.412,0.035,0.81
1:29:01.416,-0.02,0.82
1:29:01.420,-0.025,0.775
1:29:01.424,-0.055,0.695
1:29:01.428,-0.155,0.5
1:29:01.432,-0.335,0.255
1:29:01.436,-0.61,0.225
1:29:01.440,-0.915,0.395
1:29:01.444,-1.115,0.46
1:29:01.448,-1.165,0.26
1:29:01.452,-1.14,-0.075
1:29:01.456,-0.945,-0.365
1:29:01.460,-0.575,-0.565
1:29:01.464,-0.185,-0.64
1:29:01.468,0.02,-0.62
1:29:01.472,0.03,-0.505
1:29:01.476,-0.03,-0.385
1:29:01.480,-0.05,-0.34
1:29:01.484,-0.05,-0.325
1:29:01.488,-0.08,-0.33
1:29:01.492,-0.06,-0.33
1:29:01.496,0.005,-0.35
1:29:01.500,0.065,-0.365
1:29:01.504,0.095,-0.37
1:29:01.508,0.12,-0.405
1:29:01.512,0.14,-0.425
1:29:01.516,0.135,-0.425
1:29:01.520,0.13,-0.42
1:29:01.524,0.16,-0.42
1:29:01.528,0.15,-0.405
1:29:01.532,0.19,-0.37
1:29:01.536,0.145,-0.38
1:29:01.540,0.17,-0.365
1:29:01.544,0.165,-0.365
1:29:01.548,0.18,-0.385
1:29:01.552,0.195,-0.405
1:29:01.556,0.205,-0.41
1:29:01.560,0.205,-0.435
1:29:01.564,0.22,-0.455
1:29:01.568,0.235,-0.435
1:29:01.572,0.21,-0.47
1:29:01.576,0.21,-0.44
1:29:01.580,0.2,-0.46
1:29:01.584,0.205,-0.455
1:29:01.588,0.21,-0.445
1:29:01.592,0.205,-0.42
1:29:01.596,0.205,-0.415
1:29:01.600,0.235,-0.385
1:29:01.604,0.24,-0.4
1:29:01.608,0.245,-0.38
1:29:01.612,0.265,-0.38
1:29:01.616,0.265,-0.395
1:29:01.620,0.24,-0.4
1:29:01.624,0.23,-0.405
1:29:01.628,0.215,-0.425
1:29:01.632,0.195,-0.43
1:29:01.636,0.155,-0.425
1:29:01.640,0.145,-0.435
1:29:01.644,0.155,-0.44
1:29:01.648,0.15,-0.435
1:29:01.652,0.13,-0.45
1:29:01.656,0.135,-0.465
1:29:01.660,0.14,-0.46
1:29:01.664,0.145,-0.465
1:29:01.668,0.155,-0.47
1:29:01.672,0.155,-0.47
1:29:01.676,0.14,-0.485
1:29:01.680,0.145,-0.485
1:29:01.684,0.155,-0.495
1:29:01.688,0.14,-0.47
1:29:01.692,0.12,-0.455
1:29:01.696,0.14,-0.465
1:29:01.700,0.13,-0.435
1:29:01.704,0.12,-0.425
1:29:01.708,0.11,-0.4
1:29:01.712,0.105,-0.4
1:29:01.716,0.105,-0.38
1:29:01.720,0.09,-0.37
1:29:01.724,0.105,-0.355
1:29:01.728,0.105,-0.335
1:29:01.732,0.115,-0.33
1:29:01.736,0.1,-0.34
1:29:01.740,0.1,-0.315
1:29:01.744,0.1,-0.285
1:29:01.748,0.105,-0.255
1:29:01.752,0.115,-0.265
1:29:01.756,0.115,-0.245
1:29:01.760,0.125,-0.25
1:29:01.764,0.15,-0.245
1:29:01.768,0.14,-0.24
1:29:01.772,0.15,-0.205
1:29:01.776,0.17,-0.225
1:29:01.780,0.175,-0.215
1:29:01.784,0.165,-0.21
1:29:01.788,0.175,-0.2
1:29:01.792,0.18,-0.21
1:29:01.796,0.175,-0.205
1:29:01.800,0.19,-0.205
1:29:01.804,0.185,-0.22
1:29:01.808,0.19,-0.22
1:29:01.812,0.19,-0.225
1:29:01.816,0.2,-0.245
1:29:01.820,0.185,-0.235
1:29:01.824,0.19,-0.235
1:29:01.828,0.2,-0.22
1:29:01.832,0.185,-0.22
1:29:01.836,0.18,-0.19
1:29:01.840,0.175,-0.175
1:29:01.844,0.19,-0.16
1:29:01.848,0.18,-0.16
1:29:01.852,0.22,-0.125
1:29:01.856,0.225,-0.1
1:29:01.860,0.24,-0.065
1:29:01.864,0.23,-0.07
1:29:01.868,0.23,-0.075
1:29:01.872,0.21,-0.065
1:29:01.876,0.19,-0.07
1:29:01.880,0.175,-0.065
1:29:01.884,0.1,-0.07
1:29:01.888,0.105,-0.07
1:29:01.892,0.11,-0.105
1:29:01.896,0.1,-0.12
1:29:01.900,0.11,-0.12
1:29:01.904,0.115,-0.14
1:29:01.908,0.11,-0.14
1:29:01.912,0.1,-0.16
1:29:01.916,0.095,-0.155
1:29:01.920,0.08,-0.17
1:29:01.924,0.095,-0.2
1:29:01.928,0.105,-0.195
1:29:01.932,0.085,-0.21
1:29:01.936,0.105,-0.235
1:29:01.940,0.095,-0.23
1:29:01.944,0.095,-0.245
1:29:01.948,0.095,-0.255
1:29:01.952,0.13,-0.25
1:29:01.956,0.095,-0.22
1:29:01.960,0.1,-0.185
1:29:01.964,0.115,-0.2
1:29:01.968,0.11,-0.195
1:29:01.972,0.12,-0.19
1:29:01.976,0.15,-0.21
1:29:01.980,0.14,-0.225
1:29:01.984,0.15,-0.21
1:29:01.988,0.16,-0.225
1:29:01.992,0.14,-0.245
1:29:01.996,0.145,-0.245
1:29:02.000,0.135,-0.24
1:29:02.004,0.125,-0.25
1:29:02.008,0.14,-0.26
1:29:02.012,0.125,-0.26
1:29:02.016,0.12,-0.255
1:29:02.020,0.14,-0.24
1:29:02.024,0.12,-0.255
1:29:02.028,0.135,-0.26
1:29:02.032,0.14,-0.25
1:29:02.036,0.12,-0.25
1:29:02.040,0.12,-0.26
1:29:02.044,0.12,-0.245
1:29:02.048,0.11,-0.235
1:29:02.052,0.115,-0.22
1:29:02.056,0.145,-0.2
1:29:02.060,0.14,-0.185
1:29:02.064,0.145,-0.19
1:29:02.068,0.15,-0.185
1:29:02.072,0.155,-0.165
1:29:02.076,0.17,-0.155
1:29:02.080,0.17,-0.145
1:29:02.084,0.155,-0.14
1:29:02.088,0.17,-0.125
1:29:02.092,0.175,-0.115
1:29:02.096,0.21,-0.095
1:29:02.100,0.235,-0.1
1:29:02.104,0.255,-0.085
1:29:02.108,0.265,-0.08
1:29:02.112,0.3,-0.065
1:29:02.116,0.31,-0.06
1:29:02.120,0.3,-0.085
1:29:02.124,0.3,-0.07
1:29:02.128,0.285,-0.1
1:29:02.132,0.25,-0.09
1:29:02.136,0.215,-0.1
1:29:02.140,0.145,-0.075
1:29:02.144,0.15,-0.07
1:29:02.148,0.145,-0.1
1:29:02.152,0.15,-0.105
1:29:02.156,0.155,-0.115
1:29:02.160,0.15,-0.15
1:29:02.164,0.18,-0.155
1:29:02.168,0.165,-0.175
1:29:02.172,0.17,-0.18
1:29:02.176,0.175,-0.16
1:29:02.180,0.17,-0.135
1:29:02.184,0.18,-0.095
1:29:02.188,0.175,-0.05
1:29:02.192,0.165,-0.025
1:29:02.196,0.17,-0.02
1:29:02.200,0.17,0.04
1:29:02.204,0.17,0.24
1:29:02.208,0.195,0.505
1:29:02.212,0.22,0.755
1:29:02.216,0.24,0.87
1:29:02.220,0.19,0.94
1:29:02.224,0.135,0.965
1:29:02.228,0.125,0.905
1:29:02.232,0.09,0.69
1:29:02.236,0.0,0.4
1:29:02.240,-0.255,0.165
1:29:02.244,-0.61,0.25
1:29:02.248,-0.91,0.505
1:29:02.252,-1.135,0.545
1:29:02.256,-1.255,0.295
1:29:02.260,-1.215,-0.06
1:29:02.264,-0.965,-0.34
1:29:02.268,-0.48,-0.52
1:29:02.272,-0.04,-0.59
1:29:02.276,0.15,-0.515
1:29:02.280,0.14,-0.36
1:29:02.284,0.105,-0.295
1:29:02.288,0.07,-0.245
1:29:02.292,0.075,-0.245
1:29:02.296,0.08,-0.26
1:29:02.300,0.12,-0.275
1:29:02.304,0.195,-0.255
1:29:02.308,0.27,-0.245
1:29:02.312,0.31,-0.26
1:29:02.316,0.325,-0.25
1:29:02.320,0.325,-0.275
1:29:02.324,0.32,-0.26
1:29:02.328,0.335,-0.26
1:29:02.332,0.325,-0.28
1:29:02.336,0.34,-0.27
1:29:02.340,0.325,-0.26
1:29:02.344,0.35,-0.23
1:29:02.348,0.335,-0.21
1:29:02.352,0.34,-0.175
1:29:02.356,0.375,-0.18
1:29:02.360,0.37,-0.18
1:29:02.364,0.385,-0.175
1:29:02.368,0.38,-0.19
1:29:02.372,0.34,-0.19
1:29:02.376,0.345,-0.175
1:29:02.380,0.29,-0.21
1:29:02.384,0.29,-0.225
1:29:02.388,0.265,-0.21
1:29:02.392,0.285,-0.235
1:29:02.396,0.295,-0.235
1:29:02.400,0.305,-0.27
1:29:02.404,0.32,-0.28
1:29:02.408,0.315,-0.31
1:29:02.412,0.31,-0.335
1:29:02.416,0.31,-0.315
1:29:02.420,0.31,-0.33
1:29:02.424,0.305,-0.325
1:29:02.428,0.3,-0.31
1:29:02.432,0.315,-0.34
1:29:02.436,0.28,-0.35
1:29:02.440,0.295,-0.345
1:29:02.444,0.32,-0.32
1:29:02.448,0.315,-0.335
1:29:02.452,0.32,-0.32
1:29:02.456,0.285,-0.315
1:29:02.460,0.305,-0.32
1:29:02.464,0.3,-0.315
1:29:02.468,0.32,-0.305
1:29:02.472,0.305,-0.3
1:29:02.476,0.295,-0.295
1:29:02.480,0.305,-0.3
1:29:02.484,0.3,-0.285
1:29:02.488,0.29,-0.265
1:29:02.492,0.31,-0.235
1:29:02.496,0.29,-0.235
1:29:02.500,0.275,-0.22
1:29:02.504,0.31,-0.22
1:29:02.508,0.285,-0.19
1:29:02.512,0.28,-0.2
1:29:02.516,0.285,-0.18
1:29:02.520,0.285,-0.185
1:29:02.524,0.25,-0.185
1:29:02.528,0.265,-0.175
1:29:02.532,0.245,-0.16
1:29:02.536,0.255,-0.165
1:29:02.540,0.235,-0.16
1:29:02.544,0.23,-0.16
1:29:02.548,0.24,-0.155
1:29:02.552,0.24,-0.14
1:29:02.556,0.26,-0.135
1:29:02.560,0.255,-0.175
1:29:02.564,0.275,-0.195
1:29:02.568,0.25,-0.2
1:29:02.572,0.275,-0.2
1:29:02.576,0.3,-0.18
1:29:02.580,0.285,-0.155
1:29:02.584,0.285,-0.135
1:29:02.588,0.27,-0.11
1:29:02.592,0.26,-0.11
1:29:02.596,0.19,-0.08
1:29:02.600,0.21,-0.085
1:29:02.604,0.19,-0.08
1:29:02.608,0.22,-0.09
1:29:02.612,0.22,-0.11
1:29:02.616,0.235,-0.125
1:29:02.620,0.25,-0.13
1:29:02.624,0.265,-0.13
1:29:02.628,0.26,-0.14
1:29:02.632,0.265,-0.16
1:29:02.636,0.27,-0.18
1:29:02.640,0.26,-0.175
1:29:02.644,0.275,-0.195
1:29:02.648,0.265,-0.2
1:29:02.652,0.255,-0.225
1:29:02.656,0.255,-0.195
1:29:02.660,0.245,-0.22
1:29:02.664,0.25,-0.21
1:29:02.668,0.25,-0.195
1:29:02.672,0.275,-0.195
1:29:02.676,0.27,-0.205
1:29:02.680,0.26,-0.225
1:29:02.684,0.255,-0.21
1:29:02.688,0.275,-0.21
1:29:02.692,0.27,-0.205
1:29:02.696,0.245,-0.195
1:29:02.700,0.25,-0.195
1:29:02.704,0.26,-0.215
1:29:02.708,0.255,-0.205
1:29:02.712,0.265,-0.22
1:29:02.716,0.27,-0.195
1:29:02.720,0.265,-0.22
1:29:02.724,0.24,-0.22
1:29:02.728,0.25,-0.23
1:29:02.732,0.25,-0.235
1:29:02.736,0.235,-0.235
1:29:02.740,0.235,-0.23
1:29:02.744,0.26,-0.255
1:29:02.748,0.245,-0.25
1:29:02.752,0.245,-0.245
1:29:02.756,0.24,-0.25
1:29:02.760,0.235,-0.255
1:29:02.764,0.24,-0.25
1:29:02.768,0.24,-0.24
1:29:02.772,0.265,-0.225
1:29:02.776,0.285,-0.2
1:29:02.780,0.3,-0.2
1:29:02.784,0.295,-0.185
1:29:02.788,0.305,-0.155
1:29:02.792,0.285,-0.11
1:29:02.796,0.255,-0.08
1:29:02.800,0.23,-0.095
1:29:02.804,0.185,-0.09
1:29:02.808,0.22,-0.085
1:29:02.812,0.205,-0.105
1:29:02.816,0.225,-0.13
1:29:02.820,0.24,-0.12
1:29:02.824,0.23,-0.12
1:29:02.828,0.235,-0.14
1:29:02.832,0.25,-0.145
1:29:02.836,0.21,-0.16
1:29:02.840,0.25,-0.17
1:29:02.844,0.24,-0.195
1:29:02.848,0.245,-0.195
1:29:02.852,0.22,-0.21
1:29:02.856,0.245,-0.2
1:29:02.860,0.215,-0.22
1:29:02.864,0.245,-0.22
1:29:02.868,0.235,-0.245
1:29:02.872,0.235,-0.235
1:29:02.876,0.24,-0.225
1:29:02.880,0.23,-0.22
1:29:02.884,0.23,-0.2
1:29:02.888,0.23,-0.19
1:29:02.892,0.245,-0.145
1:29:02.896,0.225,-0.125
1:29:02.900,0.215,-0.12
1:29:02.904,0.225,-0.06
1:29:02.908,0.235,0.125
1:29:02.912,0.25,0.395
1:29:02.916,0.265,0.64
1:29:02.920,0.26,0.75
1:29:02.924,0.235,0.805
1:29:02.928,0.165,0.765
1:29:02.932,0.12,0.655
1:29:02.936,0.09,0.44
1:29:02.940,-0.01,0.125
1:29:02.944,-0.265,-0.155
1:29:02.948,-0.61,-0.055
1:29:02.952,-0.955,0.28
1:29:02.956,-1.215,0.43
1:29:02.960,-1.345,0.205
1:29:02.964,-1.305,-0.13
1:29:02.968,-1.075,-0.485
1:29:02.972,-0.595,-0.69
1:29:02.976,-0.09,-0.755
1:29:02.980,0.175,-0.72
1:29:02.984,0.23,-0.57
1:29:02.988,0.165,-0.445
1:29:02.992,0.12,-0.4
1:29:02.996,0.095,-0.375
1:29:03.000,0.065,-0.375
1:29:03.004,0.105,-0.375
1:29:03.008,0.155,-0.39
1:29:03.012,0.19,-0.37
1:29:03.016,0.23,-0.345
1:29:03.020,0.245,-0.31
1:29:03.024,0.275,-0.31
1:29:03.028,0.305,-0.31
1:29:03.032,0.315,-0.32
1:29:03.036,0.335,-0.33
1:29:03.040,0.36,-0.35
1:29:03.044,0.39,-0.35
1:29:03.048,0.375,-0.36
1:29:03.052,0.4,-0.39
1:29:03.056,0.395,-0.405
1:29:03.060,0.385,-0.4
1:29:03.064,0.395,-0.415
1:29:03.068,0.435,-0.42
1:29:03.072,0.41,-0.4
1:29:03.076,0.41,-0.42
1:29:03.080,0.41,-0.405
1:29:03.084,0.395,-0.42
1:29:03.088,0.4,-0.415
1:29:03.092,0.415,-0.405
1:29:03.096,0.4,-0.42
1:29:03.100,0.405,-0.425
1:29:03.104,0.415,-0.445
1:29:03.108,0.39,-0.445
1:29:03.112,0.415,-0.475
1:29:03.116,0.425,-0.46
1:29:03.120,0.415,-0.47
1:29:03.124,0.405,-0.45
1:29:03.128,0.405,-0.465
1:29:03.132,0.405,-0.475
1:29:03.136,0.39,-0.49
1:29:03.140,0.4,-0.48
1:29:03.144,0.405,-0.475
1:29:03.148,0.4,-0.49
1:29:03.152,0.395,-0.48
1:29:03.156,0.385,-0.48
1:29:03.160,0.4,-0.46
1:29:03.164,0.405,-0.45
1:29:03.168,0.43,-0.445
1:29:03.172,0.395,-0.43
1:29:03.176,0.41,-0.405
1:29:03.180,0.42,-0.405
1:29:03.184,0.425,-0.4
1:29:03.188,0.395,-0.385
1:29:03.192,0.425,-0.355
1:29:03.196,0.395,-0.36
1:29:03.200,0.395,-0.33
1:29:03.204,0.355,-0.32
1:29:03.208,0.345,-0.33
1:29:03.212,0.32,-0.3
1:29:03.216,0.315,-0.3
1:29:03.220,0.31,-0.295
1:29:03.224,0.29,-0.27
1:29:03.228,0.275,-0.235
1:29:03.232,0.29,-0.235
1:29:03.236,0.28,-0.19
1:29:03.240,0.265,-0.155
1:29:03.244,0.285,-0.13
1:29:03.248,0.285,-0.11
1:29:03.252,0.285,-0.12
1:29:03.256,0.275,-0.12
1:29:03.260,0.275,-0.13
1:29:03.264,0.295,-0.14
1:29:03.268,0.29,-0.145
1:29:03.272,0.315,-0.14
1:29:03.276,0.315,-0.17
1:29:03.280,0.3,-0.19
1:29:03.284,0.3,-0.19
1:29:03.288,0.32,-0.18
1:29:03.292,0.315,-0.21
1:29:03.296,0.31,-0.215
1:29:03.300,0.305,-0.215
1:29:03.304,0.275,-0.215
1:29:03.308,0.305,-0.235
1:29:03.312,0.3,-0.235
1:29:03.316,0.295,-0.22
1:29:03.320,0.285,-0.22
1:29:03.324,0.275,-0.215
1:29:03.328,0.275,-0.23
1:29:03.332,0.315,-0.225
1:29:03.336,0.31,-0.23
1:29:03.340,0.305,-0.235
1:29:03.344,0.305,-0.245
1:29:03.348,0.29,-0.26
1:29:03.352,0.3,-0.24
1:29:03.356,0.315,-0.245
1:29:03.360,0.315,-0.24
1:29:03.364,0.3,-0.25
1:29:03.368,0.305,-0.26
1:29:03.372,0.295,-0.23
1:29:03.376,0.28,-0.26
1:29:03.380,0.31,-0.27
1:29:03.384,0.305,-0.25
1:29:03.388,0.32,-0.245
1:29:03.392,0.31,-0.27
1:29:03.396,0.305,-0.285
1:29:03.400,0.29,-0.285
1:29:03.404,0.3,-0.3
1:29:03.408,0.295,-0.315
1:29:03.412,0.275,-0.31
1:29:03.416,0.265,-0.335
1:29:03.420,0.275,-0.355
1:29:03.424,0.255,-0.34
1:29:03.428,0.235,-0.31
1:29:03.432,0.235,-0.31
1:29:03.436,0.205,-0.31
1:29:03.440,0.2,-0.29
1:29:03.444,0.19,-0.285
1:29:03.448,0.215,-0.26
1:29:03.452,0.23,-0.25
1:29:03.456,0.215,-0.235
1:29:03.460,0.21,-0.23
1:29:03.464,0.21,-0.235
1:29:03.468,0.2,-0.195
1:29:03.472,0.23,-0.19
1:29:03.476,0.225,-0.2
1:29:03.480,0.215,-0.185
1:29:03.484,0.25,-0.145
1:29:03.488,0.265,-0.15
1:29:03.492,0.295,-0.19
1:29:03.496,0.305,-0.18
1:29:03.500,0.295,-0.2
1:29:03.504,0.305,-0.22
1:29:03.508,0.315,-0.235
1:29:03.512,0.325,-0.22
1:29:03.516,0.3,-0.235
1:29:03.520,0.305,-0.24
1:29:03.524,0.285,-0.235
1:29:03.528,0.325,-0.24
1:29:03.532,0.295,-0.235
1:29:03.536,0.295,-0.245
1:29:03.540,0.275,-0.23
1:29:03.544,0.295,-0.22
1:29:03.548,0.3,-0.225
1:29:03.552,0.29,-0.245
1:29:03.556,0.29,-0.235
1:29:03.560,0.265,-0.22
1:29:03.564,0.29,-0.205
1:29:03.568,0.285,-0.2
1:29:03.572,0.28,-0.205
1:29:03.576,0.27,-0.2
1:29:03.580,0.285,-0.195
1:29:03.584,0.28,-0.21
1:29:03.588,0.295,-0.22
1:29:03.592,0.29,-0.23
1:29:03.596,0.3,-0.215
1:29:03.600,0.295,-0.23
1:29:03.604,0.3,-0.235
1:29:03.608,0.29,-0.215
1:29:03.612,0.285,-0.23
1:29:03.616,0.29,-0.25
1:29:03.620,0.285,-0.25
1:29:03.624,0.285,-0.295
1:29:03.628,0.26,-0.3
1:29:03.632,0.24,-0.32
1:29:03.636,0.24,-0.34
1:29:03.640,0.215,-0.38
1:29:03.644,0.195,-0.365
1:29:03.648,0.165,-0.36
1:29:03.652,0.16,-0.335
1:29:03.656,0.12,-0.285
1:29:03.660,0.115,-0.26
1:29:03.664,0.1,-0.255
1:29:03.668,0.095,-0.225
1:29:03.672,0.11,-0.22
1:29:03.676,0.15,-0.195
1:29:03.680,0.16,-0.195
1:29:03.684,0.19,-0.17
1:29:03.688,0.18,-0.145
1:29:03.692,0.21,-0.135
1:29:03.696,0.205,-0.145
1:29:03.700,0.225,-0.14
1:29:03.704,0.195,-0.17
1:29:03.708,0.215,-0.175
1:29:03.712,0.225,-0.18
1:29:03.716,0.255,-0.155
1:29:03.720,0.255,-0.125
1:29:03.724,0.24,-0.075
1:29:03.728,0.215,-0.07
1:29:03.732,0.245,-0.065
1:29:03.736,0.245,0.05
1:29:03.740,0.255,0.29
1:29:03.744,0.29,0.54
1:29:03.748,0.29,0.7
1:29:03.752,0.255,0.78
1:29:03.756,0.21,0.755
1:29:03.760,0.155,0.705
1:29:03.764,0.13,0.61
1:29:03.768,0.075,0.415
1:29:03.772,-0.09,0.095
1:29:03.776,-0.37,-0.115
1:29:03.780,-0.76,0.055
1:29:03.784,-1.04,0.42
1:29:03.788,-1.25,0.495
1:29:03.792,-1.3,0.22
1:29:03.796,-1.225,-0.16
1:29:03.800,-0.955,-0.44
1:29:03.804,-0.435,-0.625
1:29:03.808,0.025,-0.72
1:29:03.812,0.235,-0.655
1:29:03.816,0.255,-0.54
1:29:03.820,0.195,-0.455
1:29:03.824,0.15,-0.415
1:29:03.828,0.12,-0.425
1:29:03.832,0.105,-0.43
1:29:03.836,0.155,-0.445
1:29:03.840,0.185,-0.45
1:29:03.844,0.225,-0.44
1:29:03.848,0.295,-0.435
1:29:03.852,0.29,-0.43
1:29:03.856,0.27,-0.435
1:29:03.860,0.255,-0.44
1:29:03.864,0.25,-0.415
1:29:03.868,0.265,-0.425
1:29:03.872,0.235,-0.435
1:29:03.876,0.24,-0.425
1:29:03.880,0.245,-0.395
1:29:03.884,0.27,-0.36
1:29:03.888,0.27,-0.335
1:29:03.892,0.275,-0.31
1:29:03.896,0.285,-0.305
1:29:03.900,0.305,-0.32
1:29:03.904,0.335,-0.32
1:29:03.908,0.355,-0.305
1:29:03.912,0.34,-0.315
1:29:03.916,0.345,-0.335
1:29:03.920,0.365,-0.335
1:29:03.924,0.375,-0.36
1:29:03.928,0.385,-0.355
1:29:03.932,0.39,-0.375
1:29:03.936,0.385,-0.385
1:29:03.940,0.37,-0.395
1:29:03.944,0.365,-0.39
1:29:03.948,0.38,-0.415
1:29:03.952,0.36,-0.405
1:29:03.956,0.345,-0.39
1:29:03.960,0.36,-0.42
1:29:03.964,0.375,-0.405
1:29:03.968,0.365,-0.405
1:29:03.972,0.36,-0.41
1:29:03.976,0.375,-0.41
1:29:03.980,0.375,-0.41
1:29:03.984,0.38,-0.405
1:29:03.988,0.385,-0.39
1:29:03.992,0.365,-0.41
1:29:03.996,0.345,-0.395
1:29:04.000,0.365,-0.41
1:29:04.004,0.36,-0.425
1:29:04.008,0.345,-0.435
1:29:04.012,0.33,-0.41
1:29:04.016,0.31,-0.42
1:29:04.020,0.3,-0.42
1:29:04.024,0.29,-0.41
1:29:04.028,0.285,-0.395
1:29:04.032,0.25,-0.385
1:29:04.036,0.24,-0.345
1:29:04.040,0.26,-0.345
1:29:04.044,0.23,-0.315
1:29:04.048,0.235,-0.33
1:29:04.052,0.205,-0.305
1:29:04.056,0.195,-0.28
1:29:04.060,0.195,-0.275
1:29:04.064,0.19,-0.275
1:29:04.068,0.165,-0.26
1:29:04.072,0.14,-0.25
1:29:04.076,0.125,-0.215
1:29:04.080,0.12,-0.18
1:29:04.084,0.12,-0.155
1:29:04.088,0.105,-0.145
1:29:04.092,0.125,-0.135
1:29:04.096,0.14,-0.105
1:29:04.100,0.155,-0.095
1:29:04.104,0.215,-0.065
1:29:04.108,0.195,-0.045
1:29:04.112,0.2,-0.05
1:29:04.116,0.22,-0.085
1:29:04.120,0.235,-0.08
1:29:04.124,0.25,-0.105
1:29:04.128,0.265,-0.13
1:29:04.132,0.26,-0.14
1:29:04.136,0.275,-0.155
1:29:04.140,0.28,-0.17
1:29:04.144,0.28,-0.16
1:29:04.148,0.275,-0.18
1:29:04.152,0.27,-0.18
1:29:04.156,0.28,-0.205
1:29:04.160,0.29,-0.195
1:29:04.164,0.305,-0.195
1:29:04.168,0.285,-0.225
1:29:04.172,0.315,-0.23
1:29:04.176,0.295,-0.22
1:29:04.180,0.285,-0.23
1:29:04.184,0.28,-0.24
1:29:04.188,0.28,-0.25
1:29:04.192,0.27,-0.26
1:29:04.196,0.25,-0.255
1:29:04.200,0.25,-0.28
1:29:04.204,0.235,-0.31
1:29:04.208,0.215,-0.335
1:29:04.212,0.2,-0.325
1:29:04.216,0.2,-0.32
1:29:04.220,0.165,-0.335
1:29:04.224,0.17,-0.325
1:29:04.228,0.165,-0.335
1:29:04.232,0.15,-0.31
1:29:04.236,0.12,-0.31
1:29:04.240,0.125,-0.305
1:29:04.244,0.105,-0.28
1:29:04.248,0.095,-0.265
1:29:04.252,0.13,-0.275
1:29:04.256,0.11,-0.26
1:29:04.260,0.11,-0.24
1:29:04.264,0.1,-0.24
1:29:04.268,0.12,-0.255
1:29:04.272,0.12,-0.23
1:29:04.276,0.12,-0.225
1:29:04.280,0.12,-0.215
1:29:04.284,0.145,-0.2
1:29:04.288,0.165,-0.2
1:29:04.292,0.155,-0.155
1:29:04.296,0.16,-0.155
1:29:04.300,0.155,-0.105
1:29:04.304,0.16,-0.08
1:29:04.308,0.145,-0.09
1:29:04.312,0.135,-0.08
1:29:04.316,0.15,-0.075
1:29:04.320,0.205,-0.09
1:29:04.324,0.215,-0.095
1:29:04.328,0.245,-0.105
1:29:04.332,0.245,-0.075
1:29:04.336,0.24,-0.12
1:29:04.340,0.255,-0.14
1:29:04.344,0.27,-0.13
1:29:04.348,0.26,-0.145
1:29:04.352,0.255,-0.15
1:29:04.356,0.24,-0.16
1:29:04.360,0.235,-0.155
1:29:04.364,0.24,-0.18
1:29:04.368,0.23,-0.17
1:29:04.372,0.24,-0.19
1:29:04.376,0.24,-0.2
1:29:04.380,0.225,-0.22
1:29:04.384,0.225,-0.22
1:29:04.388,0.21,-0.24
1:29:04.392,0.22,-0.265
1:29:04.396,0.23,-0.3
1:29:04.400,0.215,-0.32
1:29:04.404,0.21,-0.315
1:29:04.408,0.195,-0.33
1:29:04.412,0.17,-0.35
1:29:04.416,0.145,-0.34
1:29:04.420,0.14,-0.325
1:29:04.424,0.11,-0.315
1:29:04.428,0.085,-0.315
1:29:04.432,0.035,-0.32
1:29:04.436,0.015,-0.335
1:29:04.440,0.035,-0.34
1:29:04.444,0.03,-0.33
1:29:04.448,0.035,-0.32
1:29:04.452,0.02,-0.315
1:29:04.456,0.005,-0.29
1:29:04.460,0.02,-0.27
1:29:04.464,0.015,-0.24
1:29:04.468,0.01,-0.22
1:29:04.472,0.025,-0.2
1:29:04.476,0.03,-0.21
1:29:04.480,0.035,-0.195
1:29:04.484,0.065,-0.175
1:29:04.488,0.065,-0.185
1:29:04.492,0.105,-0.165
1:29:04.496,0.1,-0.185
1:29:04.500,0.1,-0.175
1:29:04.504,0.125,-0.17
1:29:04.508,0.125,-0.185
1:29:04.512,0.1,-0.155
1:29:04.516,0.125,-0.125
1:29:04.520,0.105,-0.125
1:29:04.524,0.1,-0.12
1:29:04.528,0.1,-0.09
1:29:04.532,0.105,-0.105
1:29:04.536,0.125,-0.115
1:29:04.540,0.15,-0.13
1:29:04.544,0.16,-0.12
1:29:04.548,0.17,-0.095
1:29:04.552,0.17,-0.12
1:29:04.556,0.175,-0.12
1:29:04.560,0.185,-0.13
1:29:04.564,0.2,-0.12
1:29:04.568,0.175,-0.105
1:29:04.572,0.165,-0.07
1:29:04.576,0.175,-0.04
1:29:04.580,0.18,-0.02
1:29:04.584,0.16,0.02
1:29:04.588,0.17,0.19
1:29:04.592,0.18,0.41
1:29:04.596,0.205,0.61
1:29:04.600,0.23,0.695
1:29:04.604,0.175,0.72
1:29:04.608,0.1,0.69
1:29:04.612,0.055,0.61
1:29:04.616,0.0,0.49
1:29:04.620,-0.095,0.22
1:29:04.624,-0.335,0.105
1:29:04.628,-0.65,0.215
1:29:04.632,-0.97,0.43
1:29:04.636,-1.175,0.39
1:29:04.640,-1.245,0.075
1:29:04.644,-1.195,-0.25
1:29:04.648,-0.905,-0.535
1:29:04.652,-0.415,-0.66
1:29:04.656,-0.08,-0.715
1:29:04.660,0.05,-0.62
1:29:04.664,-0.035,-0.5
1:29:04.668,-0.11,-0.395
1:29:04.672,-0.15,-0.39
1:29:04.676,-0.17,-0.395
1:29:04.680,-0.18,-0.39
1:29:04.684,-0.105,-0.39
1:29:04.688,-0.055,-0.39
1:29:04.692,0.025,-0.38
1:29:04.696,0.06,-0.38
1:29:04.700,0.085,-0.395
1:29:04.704,0.095,-0.38
1:29:04.708,0.095,-0.41
1:29:04.712,0.1,-0.415
1:29:04.716,0.095,-0.395
1:29:04.720,0.09,-0.39
1:29:04.724,0.09,-0.35
1:29:04.728,0.1,-0.35
1:29:04.732,0.11,-0.375
1:29:04.736,0.11,-0.375
1:29:04.740,0.105,-0.355
1:29:04.744,0.125,-0.34
1:29:04.748,0.135,-0.33
1:29:04.752,0.165,-0.32
1:29:04.756,0.17,-0.335
1:29:04.760,0.19,-0.33
1:29:04.764,0.195,-0.35
1:29:04.768,0.2,-0.38
1:29:04.772,0.22,-0.395
1:29:04.776,0.215,-0.425
1:29:04.780,0.205,-0.43
1:29:04.784,0.185,-0.46
1:29:04.788,0.21,-0.45
1:29:04.792,0.19,-0.455
1:29:04.796,0.185,-0.45
1:29:04.800,0.18,-0.465
1:29:04.804,0.2,-0.46
1:29:04.808,0.2,-0.48
1:29:04.812,0.17,-0.49
1:29:04.816,0.18,-0.5
1:29:04.820,0.17,-0.495
1:29:04.824,0.155,-0.505
1:29:04.828,0.175,-0.495
1:29:04.832,0.18,-0.51
1:29:04.836,0.165,-0.515
1:29:04.840,0.165,-0.495
1:29:04.844,0.15,-0.495
1:29:04.848,0.165,-0.485
1:29:04.852,0.155,-0.485
1:29:04.856,0.145,-0.47
1:29:04.860,0.135,-0.465
1:29:04.864,0.155,-0.44
1:29:04.868,0.145,-0.43
1:29:04.872,0.15,-0.415
1:29:04.876,0.135,-0.41
1:29:04.880,0.13,-0.375
1:29:04.884,0.14,-0.36
1:29:04.888,0.155,-0.3
1:29:04.892,0.16,-0.28
1:29:04.896,0.135,-0.25
1:29:04.900,0.155,-0.23
1:29:04.904,0.13,-0.205
1:29:04.908,0.11,-0.245
1:29:04.912,0.075,-0.23
1:29:04.916,0.045,-0.235
1:29:04.920,0.02,-0.24
1:29:04.924,0.0,-0.24
1:29:04.928,-0.015,-0.24
1:29:04.932,-0.04,-0.24
1:29:04.936,-0.015,-0.225
1:29:04.940,-0.025,-0.23
1:29:04.944,-0.02,-0.205
1:29:04.948,-0.025,-0.205
1:29:04.952,-0.045,-0.205
1:29:04.956,-0.02,-0.21
1:29:04.960,0.015,-0.205
1:29:04.964,0.03,-0.17
1:29:04.968,0.05,-0.19
1:29:04.972,0.065,-0.17
1:29:04.976,0.07,-0.145
1:29:04.980,0.075,-0.125
1:29:04.984,0.09,-0.15
1:29:04.988,0.11,-0.155
1:29:04.992,0.12,-0.18
1:29:04.996,0.12,-0.195
1:29:05.000,0.1,-0.2
1:29:05.004,0.11,-0.21
1:29:05.008,0.11,-0.235
1:29:05.012,0.1,-0.265
1:29:05.016,0.095,-0.26
1:29:05.020,0.1,-0.27
1:29:05.024,0.09,-0.285
1:29:05.028,0.08,-0.285
1:29:05.032,0.085,-0.3
1:29:05.036,0.085,-0.27
1:29:05.040,0.085,-0.265
1:29:05.044,0.08,-0.285
1:29:05.048,0.08,-0.29
1:29:05.052,0.065,-0.315
1:29:05.056,0.06,-0.31
1:29:05.060,0.055,-0.28
1:29:05.064,0.075,-0.255
1:29:05.068,0.065,-0.225
1:29:05.072,0.075,-0.215
1:29:05.076,0.065,-0.22
1:29:05.080,0.075,-0.21
1:29:05.084,0.06,-0.21
1:29:05.088,0.065,-0.19
1:29:05.092,0.08,-0.18
1:29:05.096,0.085,-0.165
1:29:05.100,0.09,-0.175
1:29:05.104,0.12,-0.13
1:29:05.108,0.12,-0.13
1:29:05.112,0.14,-0.115
1:29:05.116,0.16,-0.105
1:29:05.120,0.15,-0.105
1:29:05.124,0.175,-0.115
1:29:05.128,0.175,-0.14
1:29:05.132,0.155,-0.16
1:29:05.136,0.145,-0.18
1:29:05.140,0.095,-0.22
1:29:05.144,0.05,-0.22
1:29:05.148,0.015,-0.24
1:29:05.152,0.015,-0.22
1:29:05.156,0.03,-0.21
1:29:05.160,-0.005,-0.17
1:29:05.164,-0.02,-0.17
1:29:05.168,0.0,-0.16
1:29:05.172,0.005,-0.18
1:29:05.176,0.005,-0.19
1:29:05.180,0.015,-0.195
1:29:05.184,0.045,-0.195
1:29:05.188,0.065,-0.21
1:29:05.192,0.06,-0.22
1:29:05.196,0.075,-0.22
1:29:05.200,0.07,-0.235
1:29:05.204,0.09,-0.23
1:29:05.208,0.075,-0.255
1:29:05.212,0.08,-0.26
1:29:05.216,0.075,-0.24
1:29:05.220,0.075,-0.24
1:29:05.224,0.07,-0.23
1:29:05.228,0.045,-0.23
1:29:05.232,0.06,-0.235
1:29:05.236,0.035,-0.24
1:29:05.240,0.065,-0.26
1:29:05.244,0.06,-0.24
1:29:05.248,0.05,-0.245
1:29:05.252,0.035,-0.245
1:29:05.256,0.04,-0.24
1:29:05.260,0.035,-0.235
1:29:05.264,0.04,-0.21
1:29:05.268,0.07,-0.215
1:29:05.272,0.045,-0.205
1:29:05.276,0.025,-0.2
1:29:05.280,0.045,-0.2
1:29:05.284,0.045,-0.21
1:29:05.288,0.05,-0.215
1:29:05.292,0.04,-0.205
1:29:05.296,0.05,-0.23
1:29:05.300,0.06,-0.205
1:29:05.304,0.075,-0.195
1:29:05.308,0.075,-0.19
1:29:05.312,0.08,-0.205
1:29:05.316,0.06,-0.185
1:29:05.320,0.075,-0.17
1:29:05.324,0.06,-0.17
1:29:05.328,0.075,-0.18
1:29:05.332,0.07,-0.15
1:29:05.336,0.09,-0.17
1:29:05.340,0.105,-0.15
1:29:05.344,0.11,-0.14
1:29:05.348,0.12,-0.125
1:29:05.352,0.13,-0.135
1:29:05.356,0.125,-0.115
1:29:05.360,0.14,-0.08
1:29:05.364,0.145,-0.09
1:29:05.368,0.18,-0.1
1:29:05.372,0.145,-0.105
1:29:05.376,0.125,-0.14
1:29:05.380,0.105,-0.14
1:29:05.384,0.06,-0.155
1:29:05.388,0.02,-0.18
1:29:05.392,0.0,-0.18
1:29:05.396,-0.015,-0.155
1:29:05.400,-0.01,-0.16
1:29:05.404,0.0,-0.145
1:29:05.408,-0.02,-0.175
1:29:05.412,0.0,-0.18
1:29:05.416,0.0,-0.165
1:29:05.420,-0.01,-0.165
1:29:05.424,0.0,-0.16
1:29:05.428,-0.005,-0.195
1:29:05.432,-0.02,-0.2
1:29:05.436,-0.005,-0.215
1:29:05.440,0.005,-0.215
1:29:05.444,0.01,-0.26
1:29:05.448,0.035,-0.225
1:29:05.452,0.025,-0.25
1:29:05.456,0.02,-0.25
1:29:05.460,0.01,-0.23
1:29:05.464,0.02,-0.23
1:29:05.468,0.02,-0.23
1:29:05.472,0.025,-0.225
1:29:05.476,0.015,-0.21
1:29:05.480,0.01,-0.22
1:29:05.484,0.015,-0.21
1:29:05.488,0.015,-0.21
1:29:05.492,0.03,-0.215
1:29:05.496,0.035,-0.2
1:29:05.500,0.03,-0.2
1:29:05.504,0.04,-0.19
1:29:05.508,0.07,-0.185
1:29:05.512,0.04,-0.18
1:29:05.516,0.04,-0.17
1:29:05.520,0.045,-0.18
1:29:05.524,0.06,-0.175
1:29:05.528,0.07,-0.17
1:29:05.532,0.065,-0.165
1:29:05.536,0.06,-0.17
1:29:05.540,0.065,-0.18
1:29:05.544,0.065,-0.18
1:29:05.548,0.08,-0.17
1:29:05.552,0.065,-0.17
1:29:05.556,0.06,-0.18
1:29:05.560,0.085,-0.175
1:29:05.564,0.075,-0.175
1:29:05.568,0.07,-0.17
1:29:05.572,0.065,-0.18
1:29:05.576,0.08,-0.16
1:29:05.580,0.085,-0.14
1:29:05.584,0.08,-0.135
1:29:05.588,0.08,-0.115
1:29:05.592,0.1,-0.105
1:29:05.596,0.14,-0.085
1:29:05.600,0.14,-0.08
1:29:05.604,0.165,-0.075
1:29:05.608,0.17,-0.075
1:29:05.612,0.175,-0.075
1:29:05.616,0.135,-0.095
1:29:05.620,0.13,-0.09
1:29:05.624,0.09,-0.135
1:29:05.628,0.05,-0.125
1:29:05.632,0.01,-0.15
1:29:05.636,-0.02,-0.145
1:29:05.640,-0.005,-0.16
1:29:05.644,-0.04,-0.16
1:29:05.648,-0.03,-0.16
1:29:05.652,-0.02,-0.18
1:29:05.656,-0.015,-0.18
1:29:05.660,-0.03,-0.165
1:29:05.664,-0.01,-0.175
1:29:05.668,-0.005,-0.155
1:29:05.672,-0.005,-0.17
1:29:05.676,-0.015,-0.18
1:29:05.680,-0.02,-0.185
1:29:05.684,0.01,-0.2
1:29:05.688,0.01,-0.19
1:29:05.692,0.0,-0.185
1:29:05.696,0.015,-0.185
1:29:05.700,0.0,-0.14
1:29:05.704,0.015,-0.11
1:29:05.708,0.0,-0.1
1:29:05.712,0.015,-0.065
1:29:05.716,0.045,0.04
1:29:05.720,0.035,0.29
1:29:05.724,0.055,0.55
1:29:05.728,0.105,0.73
1:29:05.732,0.065,0.84
1:29:05.736,0.005,0.89
1:29:05.740,0.0,0.93
1:29:05.744,-0.02,0.9
1:29:05.748,-0.07,0.78
1:29:05.752,-0.16,0.5
1:29:05.756,-0.35,0.265
1:29:05.760,-0.665,0.295
1:29:05.764,-0.96,0.405
1:29:05.768,-1.125,0.4
1:29:05.772,-1.145,0.17
1:29:05.776,-1.09,-0.155
1:29:05.780,-0.865,-0.42
1:29:05.784,-0.45,-0.595
1:29:05.788,-0.1,-0.65
1:29:05.792,0.04,-0.6
1:29:05.796,0.005,-0.475
1:29:05.800,-0.025,-0.39
1:29:05.804,-0.04,-0.34
1:29:05.808,-0.1,-0.365
1:29:05.812,-0.055,-0.36
1:29:05.816,-0.03,-0.35
1:29:05.820,0.02,-0.36
1:29:05.824,0.085,-0.38
1:29:05.828,0.125,-0.36
1:29:05.832,0.135,-0.33
1:29:05.836,0.14,-0.335
1:29:05.840,0.14,-0.32
1:29:05.844,0.13,-0.315
1:29:05.848,0.16,-0.28
1:29:05.852,0.17,-0.265
1:29:05.856,0.175,-0.26
1:29:05.860,0.205,-0.23
1:29:05.864,0.21,-0.225
1:29:05.868,0.23,-0.225
1:29:05.872,0.26,-0.23
1:29:05.876,0.265,-0.25
1:29:05.880,0.285,-0.255
1:29:05.884,0.3,-0.235
1:29:05.888,0.29,-0.235
1:29:05.892,0.295,-0.25
1:29:05.896,0.265,-0.265
1:29:05.900,0.225,-0.255
1:29:05.904,0.16,-0.255
1:29:05.908,0.125,-0.25
1:29:05.912,0.135,-0.28
1:29:05.916,0.145,-0.31
1:29:05.920,0.14,-0.32
1:29:05.924,0.15,-0.37
1:29:05.928,0.15,-0.36
1:29:05.932,0.16,-0.38
1:29:05.936,0.155,-0.39
1:29:05.940,0.145,-0.395
1:29:05.944,0.135,-0.435
1:29:05.948,0.135,-0.44
1:29:05.952,0.15,-0.45
1:29:05.956,0.12,-0.46
1:29:05.960,0.145,-0.46
1:29:05.964,0.135,-0.46
1:29:05.968,0.12,-0.445
1:29:05.972,0.14,-0.445
1:29:05.976,0.13,-0.44
1:29:05.980,0.125,-0.45
1:29:05.984,0.135,-0.44
1:29:05.988,0.125,-0.43
1:29:05.992,0.13,-0.41
1:29:05.996,0.135,-0.405
1:29:06.000,0.12,-0.405
1:29:06.004,0.135,-0.395
1:29:06.008,0.14,-0.4
1:29:06.012,0.155,-0.38
1:29:06.016,0.145,-0.37
1:29:06.020,0.13,-0.365
1:29:06.024,0.135,-0.345
1:29:06.028,0.155,-0.325
1:29:06.032,0.15,-0.305
1:29:06.036,0.15,-0.305
1:29:06.040,0.15,-0.3
1:29:06.044,0.15,-0.265
1:29:06.048,0.135,-0.24
1:29:06.052,0.12,-0.23
1:29:06.056,0.105,-0.23
1:29:06.060,0.13,-0.205
1:29:06.064,0.115,-0.185
1:29:06.068,0.105,-0.18
1:29:06.072,0.11,-0.13
1:29:06.076,0.105,-0.145
1:29:06.080,0.13,-0.12
1:29:06.084,0.1,-0.135
1:29:06.088,0.15,-0.12
1:29:06.092,0.13,-0.1
1:29:06.096,0.14,-0.095
1:29:06.100,0.135,-0.09
1:29:06.104,0.14,-0.07
1:29:06.108,0.16,-0.075
1:29:06.112,0.145,-0.08
1:29:06.116,0.17,-0.07
1:29:06.120,0.2,-0.06
1:29:06.124,0.215,-0.035
1:29:06.128,0.22,-0.045
1:29:06.132,0.24,-0.025
1:29:06.136,0.255,-0.01
1:29:06.140,0.235,-0.005
1:29:06.144,0.23,-0.025
1:29:06.148,0.21,-0.015
1:29:06.152,0.205,-0.035
1:29:06.156,0.185,-0.045
1:29:06.160,0.165,-0.05
1:29:06.164,0.165,-0.075
1:29:06.168,0.195,-0.09
1:29:06.172,0.2,-0.11
1:29:06.176,0.19,-0.125
1:29:06.180,0.18,-0.13
1:29:06.184,0.19,-0.125
1:29:06.188,0.19,-0.15
1:29:06.192,0.175,-0.16
1:29:06.196,0.18,-0.15
1:29:06.200,0.18,-0.16
1:29:06.204,0.175,-0.155
1:29:06.208,0.18,-0.175
1:29:06.212,0.175,-0.185
1:29:06.216,0.175,-0.18
1:29:06.220,0.165,-0.175
1:29:06.224,0.18,-0.17
1:29:06.228,0.19,-0.16
1:29:06.232,0.205,-0.165
1:29:06.236,0.185,-0.15
1:29:06.240,0.18,-0.145
1:29:06.244,0.185,-0.175
1:29:06.248,0.205,-0.16
1:29:06.252,0.2,-0.17
1:29:06.256,0.2,-0.155
1:29:06.260,0.2,-0.15
1:29:06.264,0.195,-0.125
1:29:06.268,0.21,-0.145
1:29:06.272,0.205,-0.155
1:29:06.276,0.195,-0.15
1:29:06.280,0.195,-0.14
1:29:06.284,0.205,-0.155
1:29:06.288,0.23,-0.16
1:29:06.292,0.2,-0.175
1:29:06.296,0.215,-0.175
1:29:06.300,0.235,-0.195
1:29:06.304,0.23,-0.18
1:29:06.308,0.24,-0.185
1:29:06.312,0.2,-0.16
1:29:06.316,0.205,-0.18
1:29:06.320,0.21,-0.185
1:29:06.324,0.22,-0.205
1:29:06.328,0.225,-0.22
1:29:06.332,0.235,-0.2
1:29:06.336,0.21,-0.195
1:29:06.340,0.235,-0.215
1:29:06.344,0.22,-0.22
1:29:06.348,0.25,-0.215
1:29:06.352,0.26,-0.2
1:29:06.356,0.26,-0.175
1:29:06.360,0.26,-0.155
1:29:06.364,0.29,-0.105
1:29:06.368,0.3,-0.09
1:29:06.372,0.31,-0.065
1:29:06.376,0.31,-0.08
1:29:06.380,0.295,-0.075
1:29:06.384,0.265,-0.08
1:29:06.388,0.28,-0.115
1:29:06.392,0.215,-0.115
1:29:06.396,0.195,-0.125
1:29:06.400,0.17,-0.145
1:29:06.404,0.19,-0.15
1:29:06.408,0.19,-0.165
1:29:06.412,0.175,-0.175
1:29:06.416,0.18,-0.17
1:29:06.420,0.18,-0.15
1:29:06.424,0.175,-0.15
1:29:06.428,0.17,-0.145
1:29:06.432,0.17,-0.13
1:29:06.436,0.18,-0.11
1:29:06.440,0.18,-0.11
1:29:06.444,0.18,-0.125
1:29:06.448,0.19,-0.13
1:29:06.452,0.19,-0.13
1:29:06.456,0.195,-0.12
1:29:06.460,0.195,-0.14
1:29:06.464,0.205,-0.15
1:29:06.468,0.215,-0.135
1:29:06.472,0.225,-0.13
1:29:06.476,0.23,-0.125
1:29:06.480,0.21,-0.13
1:29:06.484,0.225,-0.13
1:29:06.488,0.22,-0.15
1:29:06.492,0.21,-0.155
1:29:06.496,0.225,-0.155
1:29:06.500,0.23,-0.155
1:29:06.504,0.215,-0.16
1:29:06.508,0.2,-0.16
1:29:06.512,0.23,-0.17
1:29:06.516,0.215,-0.18
1:29:06.520,0.235,-0.21
1:29:06.524,0.24,-0.215
1:29:06.528,0.23,-0.205
1:29:06.532,0.22,-0.23
1:29:06.536,0.22,-0.23
1:29:06.540,0.22,-0.24
1:29:06.544,0.22,-0.25
1:29:06.548,0.205,-0.265
1:29:06.552,0.205,-0.275
1:29:06.556,0.21,-0.275
1:29:06.560,0.195,-0.27
1:29:06.564,0.2,-0.245
1:29:06.568,0.205,-0.255
1:29:06.572,0.205,-0.255
1:29:06.576,0.215,-0.27
1:29:06.580,0.205,-0.28
1:29:06.584,0.195,-0.315
1:29:06.588,0.195,-0.34
1:29:06.592,0.215,-0.33
1:29:06.596,0.2,-0.335
1:29:06.600,0.21,-0.32
1:29:06.604,0.23,-0.29
1:29:06.608,0.215,-0.235
1:29:06.612,0.24,-0.185
1:29:06.616,0.245,-0.15
1:29:06.620,0.24,-0.165
1:29:06.624,0.235,-0.17
1:29:06.628,0.22,-0.17
1:29:06.632,0.22,-0.19
1:29:06.636,0.215,-0.215
1:29:06.640,0.2,-0.225
1:29:06.644,0.205,-0.23
1:29:06.648,0.21,-0.23
1:29:06.652,0.19,-0.26
1:29:06.656,0.205,-0.24
1:29:06.660,0.21,-0.235
1:29:06.664,0.215,-0.23
1:29:06.668,0.225,-0.24
1:29:06.672,0.23,-0.25
1:29:06.676,0.22,-0.235
1:29:06.680,0.23,-0.255
1:29:06.684,0.24,-0.265
1:29:06.688,0.25,-0.26
1:29:06.692,0.235,-0.225
1:29:06.696,0.24,-0.24
1:29:06.700,0.23,-0.245
1:29:06.704,0.23,-0.21
1:29:06.708,0.225,-0.22
1:29:06.712,0.25,-0.18
1:29:06.716,0.24,-0.165
1:29:06.720,0.28,-0.12
1:29:06.724,0.27,-0.12
1:29:06.728,0.25,-0.105
1:29:06.732,0.235,0.02
1:29:06.736,0.27,0.305
1:29:06.740,0.29,0.555
1:29:06.744,0.325,0.725
1:29:06.748,0.265,0.81
1:29:06.752,0.21,0.84
1:29:06.756,0.15,0.79
1:29:06.760,0.135,0.625
1:29:06.764,0.055,0.335
1:29:06.768,-0.145,0.01
1:29:06.772,-0.465,-0.055
1:29:06.776,-0.84,0.22
1:29:06.780,-1.135,0.405
1:29:06.784,-1.26,0.215
1:29:06.788,-1.245,-0.155
1:29:06.792,-1.115,-0.49
1:29:06.796,-0.66,-0.71
1:29:06.800,-0.16,-0.825
1:29:06.804,0.12,-0.805
1:29:06.808,0.2,-0.675
1:29:06.812,0.135,-0.535
1:29:06.816,0.12,-0.465
1:29:06.820,0.1,-0.44
1:29:06.824,0.11,-0.395
1:29:06.828,0.16,-0.375
1:29:06.832,0.22,-0.375
1:29:06.836,0.27,-0.39
1:29:06.840,0.31,-0.38
1:29:06.844,0.29,-0.375
1:29:06.848,0.26,-0.385
1:29:06.852,0.225,-0.41
1:29:06.856,0.225,-0.43
1:29:06.860,0.25,-0.41
1:29:06.864,0.27,-0.41
1:29:06.868,0.29,-0.4
1:29:06.872,0.305,-0.415
1:29:06.876,0.33,-0.445
1:29:06.880,0.355,-0.435
1:29:06.884,0.35,-0.44
1:29:06.888,0.355,-0.46
1:29:06.892,0.375,-0.48
1:29:06.896,0.4,-0.48
1:29:06.900,0.385,-0.475
1:29:06.904,0.39,-0.49
1:29:06.908,0.405,-0.495
1:29:06.912,0.4,-0.5
1:29:06.916,0.405,-0.54
1:29:06.920,0.4,-0.52
1:29:06.924,0.38,-0.53
1:29:06.928,0.4,-0.525
1:29:06.932,0.4,-0.545
1:29:06.936,0.39,-0.53
1:29:06.940,0.39,-0.535
1:29:06.944,0.41,-0.54
1:29:06.948,0.4,-0.54
1:29:06.952,0.39,-0.54
1:29:06.956,0.39,-0.55
1:29:06.960,0.38,-0.575
1:29:06.964,0.38,-0.55
1:29:06.968,0.395,-0.565
1:29:06.972,0.37,-0.57
1:29:06.976,0.4,-0.58
1:29:06.980,0.395,-0.565
1:29:06.984,0.385,-0.565
1:29:06.988,0.39,-0.595
1:29:06.992,0.39,-0.57
1:29:06.996,0.38,-0.57
1:29:07.000,0.36,-0.58
1:29:07.004,0.39,-0.565
1:29:07.008,0.38,-0.555
1:29:07.012,0.375,-0.535
1:29:07.016,0.37,-0.51
1:29:07.020,0.365,-0.51
1:29:07.024,0.355,-0.52
1:29:07.028,0.37,-0.495
1:29:07.032,0.39,-0.44
1:29:07.036,0.37,-0.435
1:29:07.040,0.38,-0.395
1:29:07.044,0.385,-0.375
1:29:07.048,0.37,-0.36
1:29:07.052,0.355,-0.35
1:29:07.056,0.35,-0.365
1:29:07.060,0.315,-0.305
1:29:07.064,0.255,-0.28
1:29:07.068,0.205,-0.275
1:29:07.072,0.2,-0.28
1:29:07.076,0.18,-0.26
1:29:07.080,0.16,-0.24
1:29:07.084,0.155,-0.25
1:29:07.088,0.175,-0.26
1:29:07.092,0.17,-0.26
1:29:07.096,0.195,-0.255
1:29:07.100,0.22,-0.265
1:29:07.104,0.26,-0.27
1:29:07.108,0.28,-0.28
1:29:07.112,0.275,-0.275
1:29:07.116,0.295,-0.27
1:29:07.120,0.295,-0.28
1:29:07.124,0.31,-0.29
1:29:07.128,0.315,-0.29
1:29:07.132,0.32,-0.305
1:29:07.136,0.305,-0.305
1:29:07.140,0.305,-0.305
1:29:07.144,0.335,-0.31
1:29:07.148,0.31,-0.315
1:29:07.152,0.335,-0.32
1:29:07.156,0.32,-0.29
1:29:07.160,0.34,-0.31
1:29:07.164,0.34,-0.29
1:29:07.168,0.34,-0.29
1:29:07.172,0.36,-0.305
1:29:07.176,0.35,-0.315
1:29:07.180,0.355,-0.32
1:29:07.184,0.375,-0.32
1:29:07.188,0.37,-0.32
1:29:07.192,0.365,-0.35
1:29:07.196,0.36,-0.36
1:29:07.200,0.35,-0.345
1:29:07.204,0.36,-0.34
1:29:07.208,0.375,-0.33
1:29:07.212,0.38,-0.32
1:29:07.216,0.36,-0.33
1:29:07.220,0.36,-0.325
1:29:07.224,0.375,-0.35
1:29:07.228,0.37,-0.345
1:29:07.232,0.37,-0.375
1:29:07.236,0.39,-0.39
1:29:07.240,0.375,-0.385
1:29:07.244,0.37,-0.41
1:29:07.248,0.37,-0.365
1:29:07.252,0.35,-0.34
1:29:07.256,0.4,-0.32
1:29:07.260,0.395,-0.295
1:29:07.264,0.39,-0.31
1:29:07.268,0.375,-0.315
1:29:07.272,0.325,-0.33
1:29:07.276,0.285,-0.34
1:29:07.280,0.235,-0.335
1:29:07.284,0.23,-0.33
1:29:07.288,0.205,-0.355
1:29:07.292,0.23,-0.335
1:29:07.296,0.21,-0.31
1:29:07.300,0.21,-0.3
1:29:07.304,0.225,-0.295
1:29:07.308,0.215,-0.315
1:29:07.312,0.22,-0.305
1:29:07.316,0.24,-0.305
1:29:07.320,0.28,-0.31
1:29:07.324,0.295,-0.325
1:29:07.328,0.305,-0.315
1:29:07.332,0.295,-0.325
1:29:07.336,0.315,-0.33
1:29:07.340,0.31,-0.33
1:29:07.344,0.3,-0.335
1:29:07.348,0.33,-0.35
1:29:07.352,0.305,-0.355
1:29:07.356,0.285,-0.35
1:29:07.360,0.285,-0.34
1:29:07.364,0.28,-0.34
1:29:07.368,0.27,-0.33
1:29:07.372,0.26,-0.32
1:29:07.376,0.26,-0.32
1:29:07.380,0.275,-0.32
1:29:07.384,0.28,-0.315
1:29:07.388,0.265,-0.32
1:29:07.392,0.25,-0.325
1:29:07.396,0.265,-0.305
1:29:07.400,0.28,-0.32
1:29:07.404,0.275,-0.31
1:29:07.408,0.26,-0.32
1:29:07.412,0.27,-0.31
1:29:07.416,0.265,-0.315
1:29:07.420,0.29,-0.34
1:29:07.424,0.26,-0.32
1:29:07.428,0.265,-0.32
1:29:07.432,0.28,-0.32
1:29:07.436,0.275,-0.31
1:29:07.440,0.27,-0.315
1:29:07.444,0.295,-0.31
1:29:07.448,0.275,-0.315
1:29:07.452,0.285,-0.315
1:29:07.456,0.275,-0.325
1:29:07.460,0.265,-0.34
1:29:07.464,0.275,-0.34
1:29:07.468,0.27,-0.355
1:29:07.472,0.29,-0.34
1:29:07.476,0.295,-0.325
1:29:07.480,0.32,-0.315
1:29:07.484,0.31,-0.305
1:29:07.488,0.28,-0.315
1:29:07.492,0.3,-0.3
1:29:07.496,0.29,-0.34
1:29:07.500,0.27,-0.34
1:29:07.504,0.2,-0.38
1:29:07.508,0.12,-0.36
1:29:07.512,0.13,-0.33
1:29:07.516,0.115,-0.34
1:29:07.520,0.105,-0.315
1:29:07.524,0.13,-0.305
1:29:07.528,0.11,-0.32
1:29:07.532,0.12,-0.32
1:29:07.536,0.135,-0.315
1:29:07.540,0.175,-0.325
1:29:07.544,0.21,-0.32
1:29:07.548,0.22,-0.315
1:29:07.552,0.205,-0.295
1:29:07.556,0.23,-0.305
1:29:07.560,0.21,-0.305
1:29:07.564,0.21,-0.29
1:29:07.568,0.2,-0.285
1:29:07.572,0.185,-0.28
1:29:07.576,0.215,-0.26
1:29:07.580,0.215,-0.265
1:29:07.584,0.185,-0.235
1:29:07.588,0.2,-0.235
1:29:07.592,0.2,-0.21
1:29:07.596,0.215,-0.2
1:29:07.600,0.195,-0.185
1:29:07.604,0.23,-0.19
1:29:07.608,0.215,-0.19
1:29:07.612,0.23,-0.21
1:29:07.616,0.215,-0.195
1:29:07.620,0.22,-0.195
1:29:07.624,0.235,-0.2
1:29:07.628,0.235,-0.205
1:29:07.632,0.23,-0.22
1:29:07.636,0.225,-0.235
1:29:07.640,0.25,-0.235
1:29:07.644,0.23,-0.275
1:29:07.648,0.24,-0.285
1:29:07.652,0.225,-0.3
1:29:07.656,0.23,-0.3
1:29:07.660,0.245,-0.3
1:29:07.664,0.23,-0.295
1:29:07.668,0.22,-0.305
1:29:07.672,0.225,-0.295
1:29:07.676,0.23,-0.285
1:29:07.680,0.21,-0.31
1:29:07.684,0.225,-0.325
1:29:07.688,0.235,-0.34
1:29:07.692,0.235,-0.34
1:29:07.696,0.23,-0.335
1:29:07.700,0.255,-0.32
1:29:07.704,0.265,-0.345
1:29:07.708,0.265,-0.355
1:29:07.712,0.235,-0.35
1:29:07.716,0.23,-0.365
1:29:07.720,0.17,-0.34
1:29:07.724,0.125,-0.36
1:29:07.728,0.09,-0.335
1:29:07.732,0.065,-0.305
1:29:07.736,0.075,-0.295
1:29:07.740,0.065,-0.31
1:29:07.744,0.1,-0.295
1:29:07.748,0.085,-0.3
1:29:07.752,0.085,-0.28
1:29:07.756,0.125,-0.26
1:29:07.760,0.145,-0.2
1:29:07.764,0.155,-0.165
1:29:07.768,0.125,-0.13
1:29:07.772,0.135,-0.085
1:29:07.776,0.15,0.1
1:29:07.780,0.16,0.35
1:29:07.784,0.19,0.605
1:29:07.788,0.195,0.75
1:29:07.792,0.15,0.825
1:29:07.796,0.09,0.84
1:29:07.800,0.07,0.8
1:29:07.804,0.04,0.715
1:29:07.808,-0.04,0.515
1:29:07.812,-0.24,0.23
1:29:07.816,-0.515,0.18
1:29:07.820,-0.86,0.42
1:29:07.824,-1.125,0.56
1:29:07.828,-1.21,0.4
1:29:07.832,-1.2,0.05
1:29:07.836,-1.015,-0.295
1:29:07.840,-0.575,-0.51
1:29:07.844,-0.12,-0.64
1:29:07.848,0.105,-0.63
1:29:07.852,0.16,-0.5
1:29:07.856,0.105,-0.385
1:29:07.860,0.065,-0.345
1:29:07.864,0.03,-0.34
1:29:07.868,0.0,-0.36
1:29:07.872,0.05,-0.38
1:29:07.876,0.115,-0.375
1:29:07.880,0.175,-0.385
1:29:07.884,0.205,-0.395
1:29:07.888,0.225,-0.4
1:29:07.892,0.24,-0.425
1:29:07.896,0.27,-0.425
1:29:07.900,0.235,-0.415
1:29:07.904,0.25,-0.415
1:29:07.908,0.25,-0.41
1:29:07.912,0.26,-0.38
1:29:07.916,0.245,-0.37
1:29:07.920,0.25,-0.36
1:29:07.924,0.24,-0.375
1:29:07.928,0.26,-0.36
1:29:07.932,0.255,-0.365
1:29:07.936,0.275,-0.395
1:29:07.940,0.3,-0.37
1:29:07.944,0.29,-0.335
1:29:07.948,0.315,-0.305
1:29:07.952,0.305,-0.285
1:29:07.956,0.29,-0.275
1:29:07.960,0.295,-0.29
1:29:07.964,0.31,-0.3
1:29:07.968,0.35,-0.3
1:29:07.972,0.35,-0.31
1:29:07.976,0.37,-0.32
1:29:07.980,0.335,-0.34
1:29:07.984,0.305,-0.375
1:29:07.988,0.255,-0.385
1:29:07.992,0.245,-0.405
1:29:07.996,0.22,-0.395
1:29:08.000,0.2,-0.39
1:29:08.004,0.2,-0.42
1:29:08.008,0.19,-0.42
1:29:08.012,0.21,-0.425
1:29:08.016,0.22,-0.4
1:29:08.020,0.195,-0.395
1:29:08.024,0.215,-0.4
1:29:08.028,0.215,-0.395
1:29:08.032,0.22,-0.4
1:29:08.036,0.21,-0.39
1:29:08.040,0.21,-0.395
1:29:08.044,0.215,-0.4
1:29:08.048,0.215,-0.42
1:29:08.052,0.205,-0.405
1:29:08.056,0.235,-0.39
1:29:08.060,0.215,-0.4
1:29:08.064,0.22,-0.385
1:29:08.068,0.2,-0.38
1:29:08.072,0.215,-0.365
1:29:08.076,0.195,-0.385
1:29:08.080,0.205,-0.36
1:29:08.084,0.18,-0.355
1:29:08.088,0.195,-0.31
1:29:08.092,0.175,-0.295
1:29:08.096,0.16,-0.275
1:29:08.100,0.17,-0.24
1:29:08.104,0.16,-0.245
1:29:08.108,0.155,-0.22
1:29:08.112,0.155,-0.205
1:29:08.116,0.13,-0.205
1:29:08.120,0.12,-0.225
1:29:08.124,0.145,-0.22
1:29:08.128,0.145,-0.2
1:29:08.132,0.115,-0.22
1:29:08.136,0.13,-0.21
1:29:08.140,0.125,-0.22
1:29:08.144,0.12,-0.215
1:29:08.148,0.13,-0.225
1:29:08.152,0.12,-0.21
1:29:08.156,0.115,-0.215
1:29:08.160,0.12,-0.2
1:29:08.164,0.135,-0.19
1:29:08.168,0.125,-0.14
1:29:08.172,0.14,-0.115
1:29:08.176,0.145,-0.08
1:29:08.180,0.17,-0.05
1:29:08.184,0.19,-0.025
1:29:08.188,0.21,0.005
1:29:08.192,0.22,-0.005
1:29:08.196,0.225,0.0
1:29:08.200,0.245,-0.03
1:29:08.204,0.265,-0.04
1:29:08.208,0.235,-0.07
1:29:08.212,0.245,-0.05
1:29:08.216,0.235,-0.07
1:29:08.220,0.23,-0.055
1:29:08.224,0.21,-0.05
1:29:08.228,0.2,-0.06
1:29:08.232,0.175,-0.065
1:29:08.236,0.18,-0.06
1:29:08.240,0.175,-0.045
1:29:08.244,0.165,-0.065
1:29:08.248,0.155,-0.075
1:29:08.252,0.15,-0.06
1:29:08.256,0.185,-0.085
1:29:08.260,0.175,-0.085
1:29:08.264,0.175,-0.085
1:29:08.268,0.16,-0.09
1:29:08.272,0.16,-0.11
1:29:08.276,0.18,-0.11
1:29:08.280,0.17,-0.085
1:29:08.284,0.185,-0.085
1:29:08.288,0.165,-0.105
1:29:08.292,0.175,-0.115
1:29:08.296,0.17,-0.12
1:29:08.300,0.165,-0.135
1:29:08.304,0.17,-0.105
1:29:08.308,0.18,-0.09
1:29:08.312,0.165,-0.115
1:29:08.316,0.175,-0.09
1:29:08.320,0.165,-0.1
1:29:08.324,0.165,-0.11
1:29:08.328,0.16,-0.12
1:29:08.332,0.155,-0.135
1:29:08.336,0.16,-0.125
1:29:08.340,0.165,-0.125
1:29:08.344,0.14,-0.15
1:29:08.348,0.155,-0.185
1:29:08.352,0.15,-0.185
1:29:08.356,0.14,-0.18
1:29:08.360,0.13,-0.21
1:29:08.364,0.125,-0.21
1:29:08.368,0.125,-0.21
1:29:08.372,0.115,-0.2
1:29:08.376,0.125,-0.22
1:29:08.380,0.115,-0.205
1:29:08.384,0.115,-0.185
1:29:08.388,0.1,-0.16
1:29:08.392,0.09,-0.15
1:29:08.396,0.1,-0.125
1:29:08.400,0.12,-0.115
1:29:08.404,0.155,-0.1
1:29:08.408,0.14,-0.08
1:29:08.412,0.175,-0.055
1:29:08.416,0.19,-0.055
1:29:08.420,0.19,-0.04
1:29:08.424,0.205,-0.03
1:29:08.428,0.22,-0.01
1:29:08.432,0.245,0.015
1:29:08.436,0.25,0.025
1:29:08.440,0.265,0.03
1:29:08.444,0.26,0.04
1:29:08.448,0.26,0.045
1:29:08.452,0.255,0.01
1:29:08.456,0.235,0.025
1:29:08.460,0.22,0.01
1:29:08.464,0.165,0.005
1:29:08.468,0.12,-0.015
1:29:08.472,0.09,-0.01
1:29:08.476,0.1,-0.01
1:29:08.480,0.115,-0.015
1:29:08.484,0.11,-0.02
1:29:08.488,0.11,-0.015
1:29:08.492,0.1,-0.005
1:29:08.496,0.105,-0.005
1:29:08.500,0.075,-0.005
1:29:08.504,0.125,-0.025
1:29:08.508,0.105,-0.03
1:29:08.512,0.11,-0.015
1:29:08.516,0.095,-0.02
1:29:08.520,0.095,-0.04
1:29:08.524,0.09,-0.035
1:29:08.528,0.09,-0.015
1:29:08.532,0.075,-0.025
1:29:08.536,0.09,-0.02
1:29:08.540,0.095,-0.025
1:29:08.544,0.07,-0.015
1:29:08.548,0.095,-0.035
1:29:08.552,0.105,-0.045
1:29:08.556,0.09,-0.03
1:29:08.560,0.105,-0.035
1:29:08.564,0.11,-0.055
1:29:08.568,0.08,-0.05
1:29:08.572,0.11,-0.05
1:29:08.576,0.07,-0.07
1:29:08.580,0.085,-0.075
1:29:08.584,0.1,-0.085
1:29:08.588,0.07,-0.115
1:29:08.592,0.075,-0.125
1:29:08.596,0.06,-0.115
1:29:08.600,0.07,-0.115
1:29:08.604,0.06,-0.12
1:29:08.608,0.04,-0.1
1:29:08.612,0.05,-0.1
1:29:08.616,0.055,-0.08
1:29:08.620,0.04,-0.055
1:29:08.624,0.055,-0.035
1:29:08.628,0.07,-0.025
1:29:08.632,0.095,0.07
1:29:08.636,0.1,0.315
1:29:08.640,0.135,0.57
1:29:08.644,0.16,0.77
1:29:08.648,0.16,0.92
1:29:08.652,0.105,0.995
1:29:08.656,0.06,0.995
1:29:08.660,0.05,0.955
1:29:08.664,0.02,0.84
1:29:08.668,-0.09,0.61
1:29:08.672,-0.295,0.43
1:29:08.676,-0.595,0.48
1:29:08.680,-0.88,0.635
1:29:08.684,-1.055,0.565
1:29:08.688,-1.08,0.305
1:29:08.692,-0.985,0.0
1:29:08.696,-0.665,-0.24
1:29:08.700,-0.205,-0.37
1:29:08.704,0.09,-0.4
1:29:08.708,0.15,-0.325
1:29:08.712,0.065,-0.185
1:29:08.716,-0.02,-0.14
1:29:08.720,-0.045,-0.1
1:29:08.724,-0.07,-0.115
1:29:08.728,-0.035,-0.125
1:29:08.732,-0.015,-0.125
1:29:08.736,0.065,-0.11
1:29:08.740,0.11,-0.14
1:29:08.744,0.145,-0.15
1:29:08.748,0.145,-0.15
1:29:08.752,0.15,-0.15
1:29:08.756,0.15,-0.18
1:29:08.760,0.175,-0.2
1:29:08.764,0.17,-0.215
1:29:08.768,0.17,-0.19
1:29:08.772,0.15,-0.215
1:29:08.776,0.155,-0.23
1:29:08.780,0.155,-0.23
1:29:08.784,0.155,-0.225
1:29:08.788,0.16,-0.25
1:29:08.792,0.165,-0.255
1:29:08.796,0.175,-0.255
1:29:08.800,0.17,-0.26
1:29:08.804,0.17,-0.28
1:29:08.808,0.17,-0.3
1:29:08.812,0.145,-0.29
1:29:08.816,0.16,-0.285
1:29:08.820,0.18,-0.29
1:29:08.824,0.175,-0.29
1:29:08.828,0.145,-0.285
1:29:08.832,0.155,-0.285
1:29:08.836,0.165,-0.295
1:29:08.840,0.19,-0.295
1:29:08.844,0.21,-0.33
1:29:08.848,0.23,-0.335
1:29:08.852,0.225,-0.34
1:29:08.856,0.22,-0.34
1:29:08.860,0.22,-0.335
1:29:08.864,0.225,-0.34
1:29:08.868,0.22,-0.34
1:29:08.872,0.235,-0.34
1:29:08.876,0.22,-0.335
1:29:08.880,0.23,-0.32
1:29:08.884,0.225,-0.305
1:29:08.888,0.23,-0.295
1:29:08.892,0.23,-0.27
1:29:08.896,0.245,-0.25
1:29:08.900,0.245,-0.23
1:29:08.904,0.265,-0.215
1:29:08.908,0.27,-0.19
1:29:08.912,0.265,-0.16
1:29:08.916,0.28,-0.17
1:29:08.920,0.25,-0.15
1:29:08.924,0.22,-0.165
1:29:08.928,0.23,-0.12
1:29:08.932,0.19,-0.105
1:29:08.936,0.17,-0.1
1:29:08.940,0.155,-0.075
1:29:08.944,0.145,-0.05
1:29:08.948,0.14,-0.055
1:29:08.952,0.14,-0.05
1:29:08.956,0.135,-0.045
1:29:08.960,0.125,-0.04
1:29:08.964,0.13,-0.03
1:29:08.968,0.125,-0.02
1:29:08.972,0.13,-0.02
1:29:08.976,0.13,-0.03
1:29:08.980,0.095,-0.03
1:29:08.984,0.1,-0.015
1:29:08.988,0.105,-0.01
1:29:08.992,0.1,-0.01
1:29:08.996,0.105,0.005
1:29:09.000,0.125,-0.005
1:29:09.004,0.085,-0.015
1:29:09.008,0.12,-0.03
1:29:09.012,0.13,-0.05
1:29:09.016,0.135,-0.06
1:29:09.020,0.12,-0.065
1:29:09.024,0.13,-0.075
1:29:09.028,0.125,-0.09
1:29:09.032,0.145,-0.1
1:29:09.036,0.135,-0.06
1:29:09.040,0.135,-0.04
1:29:09.044,0.12,-0.04
1:29:09.048,0.125,-0.035
1:29:09.052,0.12,-0.015
1:29:09.056,0.145,-0.02
1:29:09.060,0.16,-0.03
1:29:09.064,0.195,-0.03
1:29:09.068,0.205,-0.045
1:29:09.072,0.225,-0.045
1:29:09.076,0.195,-0.05
1:29:09.080,0.22,-0.04
1:29:09.084,0.205,-0.03
1:29:09.088,0.235,-0.045
1:29:09.092,0.24,-0.03
1:29:09.096,0.225,-0.02
1:29:09.100,0.215,-0.035
1:29:09.104,0.22,-0.025
1:29:09.108,0.225,0.0
1:29:09.112,0.23,-0.005
1:29:09.116,0.235,0.02
1:29:09.120,0.235,0.02
1:29:09.124,0.26,0.05
1:29:09.128,0.255,0.08
1:29:09.132,0.265,0.095
1:29:09.136,0.275,0.12
1:29:09.140,0.285,0.085
1:29:09.144,0.265,0.085
1:29:09.148,0.25,0.09
1:29:09.152,0.21,0.085
1:29:09.156,0.175,0.085
1:29:09.160,0.155,0.065
1:29:09.164,0.125,0.055
1:29:09.168,0.13,0.05
1:29:09.172,0.145,0.06
1:29:09.176,0.16,0.04
1:29:09.180,0.14,0.04
1:29:09.184,0.14,0.025
1:29:09.188,0.165,0.04
1:29:09.192,0.14,0.035
1:29:09.196,0.16,0.035
1:29:09.200,0.165,0.03
1:29:09.204,0.155,0.025
1:29:09.208,0.165,0.025
1:29:09.212,0.165,0.01
1:29:09.216,0.155,0.0
1:29:09.220,0.165,0.005
1:29:09.224,0.16,0.01
1:29:09.228,0.15,-0.015
1:29:09.232,0.155,-0.005
1:29:09.236,0.155,0.0
1:29:09.240,0.14,0.0
1:29:09.244,0.145,0.0
1:29:09.248,0.15,0.015
1:29:09.252,0.11,0.03
1:29:09.256,0.115,0.03
1:29:09.260,0.125,0.035
1:29:09.264,0.15,0.03
1:29:09.268,0.17,0.03
1:29:09.272,0.16,0.03
1:29:09.276,0.2,0.005
1:29:09.280,0.18,0.025
1:29:09.284,0.2,0.01
1:29:09.288,0.175,0.005
1:29:09.292,0.21,0.01
1:29:09.296,0.21,0.0
1:29:09.300,0.215,0.01
1:29:09.304,0.185,0.01
1:29:09.308,0.2,0.005
1:29:09.312,0.2,0.035
1:29:09.316,0.2,0.035
1:29:09.320,0.185,0.035
1:29:09.324,0.18,0.045
1:29:09.328,0.205,0.06
1:29:09.332,0.21,0.04
1:29:09.336,0.215,0.055
1:29:09.340,0.24,0.09
1:29:09.344,0.24,0.09
1:29:09.348,0.23,0.065
1:29:09.352,0.25,0.07
1:29:09.356,0.26,0.085
1:29:09.360,0.245,0.075
1:29:09.364,0.25,0.085
1:29:09.368,0.275,0.07
1:29:09.372,0.275,0.065
1:29:09.376,0.285,0.07
1:29:09.380,0.29,0.065
1:29:09.384,0.315,0.065
1:29:09.388,0.32,0.075
1:29:09.392,0.31,0.065
1:29:09.396,0.28,0.065
1:29:09.400,0.24,0.07
1:29:09.404,0.2,0.045
1:29:09.408,0.145,0.04
1:29:09.412,0.15,0.03
1:29:09.416,0.145,0.03
1:29:09.420,0.13,0.045
1:29:09.424,0.155,0.025
1:29:09.428,0.14,0.015
1:29:09.432,0.135,-0.005
1:29:09.436,0.11,-0.01
1:29:09.440,0.13,0.0
1:29:09.444,0.125,-0.005
1:29:09.448,0.12,-0.01
1:29:09.452,0.115,-0.005
1:29:09.456,0.105,-0.005
1:29:09.460,0.105,0.01
1:29:09.464,0.105,0.01
1:29:09.468,0.115,0.035
1:29:09.472,0.105,0.055
1:29:09.476,0.12,0.065
1:29:09.480,0.145,0.06
1:29:09.484,0.14,0.08
1:29:09.488,0.14,0.09
1:29:09.492,0.17,0.075
1:29:09.496,0.175,0.08
1:29:09.500,0.18,0.095
1:29:09.504,0.185,0.075
1:29:09.508,0.175,0.05
1:29:09.512,0.175,0.06
1:29:09.516,0.155,0.075
1:29:09.520,0.185,0.085
1:29:09.524,0.18,0.08
1:29:09.528,0.175,0.095
1:29:09.532,0.185,0.115
1:29:09.536,0.19,0.15
1:29:09.540,0.19,0.205
1:29:09.544,0.17,0.22
1:29:09.548,0.18,0.245
1:29:09.552,0.19,0.355
1:29:09.556,0.185,0.585
1:29:09.560,0.24,0.89
1:29:09.564,0.255,1.095
1:29:09.568,0.24,1.225
1:29:09.572,0.19,1.28
1:29:09.576,0.145,1.26
1:29:09.580,0.125,1.14
1:29:09.584,0.055,0.89
1:29:09.588,-0.11,0.54
1:29:09.592,-0.41,0.265
1:29:09.596,-0.76,0.37
1:29:09.600,-1.065,0.635
1:29:09.604,-1.235,0.705
1:29:09.608,-1.32,0.43
1:29:09.612,-1.235,0.08
1:29:09.616,-0.975,-0.185
1:29:09.620,-0.45,-0.355
1:29:09.624,-0.02,-0.385
1:29:09.628,0.165,-0.34
1:29:09.632,0.175,-0.19
1:29:09.636,0.155,-0.065
1:29:09.640,0.135,-0.045
1:29:09.644,0.11,-0.04
1:29:09.648,0.1,-0.065
1:29:09.652,0.135,-0.08
1:29:09.656,0.145,-0.085
1:29:09.660,0.14,-0.065
1:29:09.664,0.145,-0.075
1:29:09.668,0.145,-0.075
1:29:09.672,0.145,-0.085
1:29:09.676,0.165,-0.09
1:29:09.680,0.165,-0.07
1:29:09.684,0.205,-0.07
1:29:09.688,0.195,-0.08
1:29:09.692,0.2,-0.075
1:29:09.696,0.24,-0.065
1:29:09.700,0.255,-0.09
1:29:09.704,0.265,-0.08
1:29:09.708,0.26,-0.075
1:29:09.712,0.275,-0.085
1:29:09.716,0.24,-0.1
1:29:09.720,0.26,-0.11
1:29:09.724,0.255,-0.115
1:29:09.728,0.27,-0.135
1:29:09.732,0.255,-0.13
1:29:09.736,0.25,-0.14
1:29:09.740,0.26,-0.15
1:29:09.744,0.28,-0.15
1:29:09.748,0.27,-0.165
1:29:09.752,0.265,-0.14
1:29:09.756,0.265,-0.16
1:29:09.760,0.265,-0.165
1:29:09.764,0.255,-0.16
1:29:09.768,0.245,-0.15
1:29:09.772,0.245,-0.16
1:29:09.776,0.24,-0.165
1:29:09.780,0.265,-0.165
1:29:09.784,0.26,-0.175
1:29:09.788,0.28,-0.175
1:29:09.792,0.25,-0.165
1:29:09.796,0.26,-0.175
1:29:09.800,0.255,-0.16
1:29:09.804,0.255,-0.175
1:29:09.808,0.24,-0.165
1:29:09.812,0.27,-0.16
1:29:09.816,0.255,-0.175
1:29:09.820,0.26,-0.165
1:29:09.824,0.25,-0.15
1:29:09.828,0.265,-0.155
1:29:09.832,0.24,-0.14
1:29:09.836,0.255,-0.145
1:29:09.840,0.27,-0.11
1:29:09.844,0.245,-0.1
1:29:09.848,0.23,-0.075
1:29:09.852,0.255,-0.045
1:29:09.856,0.245,-0.02
1:29:09.860,0.27,0.01
1:29:09.864,0.27,0.005
1:29:09.868,0.29,0.045
1:29:09.872,0.285,0.04
1:29:09.876,0.285,0.045
1:29:09.880,0.28,0.07
1:29:09.884,0.265,0.095
1:29:09.888,0.24,0.08
1:29:09.892,0.185,0.065
1:29:09.896,0.17,0.035
1:29:09.900,0.135,0.045
1:29:09.904,0.115,0.065
1:29:09.908,0.13,0.03
1:29:09.912,0.14,0.04
1:29:09.916,0.14,0.025
1:29:09.920,0.145,0.03
1:29:09.924,0.145,0.02
1:29:09.928,0.155,0.005
1:29:09.932,0.17,-0.01
1:29:09.936,0.16,-0.01
1:29:09.940,0.165,-0.01
1:29:09.944,0.165,-0.01
1:29:09.948,0.17,-0.01
1:29:09.952,0.185,0.005
1:29:09.956,0.165,0.0
1:29:09.960,0.175,0.0
1:29:09.964,0.175,0.0
1:29:09.968,0.16,-0.02
1:29:09.972,0.155,-0.03
1:29:09.976,0.165,-0.03
1:29:09.980,0.175,-0.05
1:29:09.984,0.165,-0.06
1:29:09.988,0.18,-0.06
1:29:09.992,0.195,-0.055
1:29:09.996,0.195,-0.075
1:29:10.000,0.18,-0.095
1:29:10.004,0.18,-0.06
1:29:10.008,0.19,-0.065
1:29:10.012,0.19,-0.055
1:29:10.016,0.195,-0.06
1:29:10.020,0.195,-0.04
1:29:10.024,0.19,-0.03
1:29:10.028,0.19,-0.04
1:29:10.032,0.19,-0.04
1:29:10.036,0.18,-0.02
1:29:10.040,0.18,-0.015
1:29:10.044,0.185,-0.005
1:29:10.048,0.205,0.005
1:29:10.052,0.205,0.01
1:29:10.056,0.19,0.03
1:29:10.060,0.195,0.035
1:29:10.064,0.22,0.04
1:29:10.068,0.205,0.05
1:29:10.072,0.215,0.035
1:29:10.076,0.225,0.045
1:29:10.080,0.245,0.065
1:29:10.084,0.255,0.055
1:29:10.088,0.25,0.07
1:29:10.092,0.27,0.09
1:29:10.096,0.27,0.09
1:29:10.100,0.27,0.11
1:29:10.104,0.275,0.13
1:29:10.108,0.255,0.15
1:29:10.112,0.245,0.12
1:29:10.116,0.225,0.095
1:29:10.120,0.17,0.09
1:29:10.124,0.16,0.095
1:29:10.128,0.145,0.085
1:29:10.132,0.15,0.06
1:29:10.136,0.165,0.085
1:29:10.140,0.17,0.075
1:29:10.144,0.17,0.06
1:29:10.148,0.16,0.065
1:29:10.152,0.165,0.04
1:29:10.156,0.15,0.025
1:29:10.160,0.145,0.025
1:29:10.164,0.16,0.015
1:29:10.168,0.145,0.02
1:29:10.172,0.15,0.03
1:29:10.176,0.145,0.03
1:29:10.180,0.13,0.02
1:29:10.184,0.135,0.025
1:29:10.188,0.13,0.01
1:29:10.192,0.14,0.0
1:29:10.196,0.14,-0.01
1:29:10.200,0.14,-0.015
1:29:10.204,0.125,-0.02
1:29:10.208,0.155,-0.01
1:29:10.212,0.155,-0.025
1:29:10.216,0.135,-0.02
1:29:10.220,0.15,-0.03
1:29:10.224,0.15,-0.005
1:29:10.228,0.15,-0.02
1:29:10.232,0.165,-0.005
1:29:10.236,0.155,0.005
1:29:10.240,0.16,-0.005
1:29:10.244,0.14,0.01
1:29:10.248,0.16,0.03
1:29:10.252,0.17,0.06
1:29:10.256,0.16,0.1
1:29:10.260,0.15,0.145
1:29:10.264,0.155,0.205
1:29:10.268,0.155,0.195
1:29:10.272,0.16,0.25
1:29:10.276,0.19,0.465
1:29:10.280,0.185,0.745
1:29:10.284,0.21,0.94
1:29:10.288,0.24,1.045
1:29:10.292,0.155,1.045
1:29:10.296,0.09,0.995
1:29:10.300,0.09,0.88
1:29:10.304,0.05,0.685
1:29:10.308,-0.12,0.415
1:29:10.312,-0.38,0.15
1:29:10.316,-0.73,0.21
1:29:10.320,-1.12,0.56
1:29:10.324,-1.33,0.765
1:29:10.328,-1.425,0.585
1:29:10.332,-1.39,0.28
1:29:10.336,-1.115,0.0
1:29:10.340,-0.585,-0.225
1:29:10.344,-0.05,-0.295
1:29:10.348,0.21,-0.275
1:29:10.352,0.265,-0.135
1:29:10.356,0.24,-0.03
1:29:10.360,0.165,-0.01
1:29:10.364,0.115,-0.015
1:29:10.368,0.07,-0.04
1:29:10.372,0.055,-0.055
1:29:10.376,0.1,-0.07
1:29:10.380,0.14,-0.065
1:29:10.384,0.165,-0.085
1:29:10.388,0.185,-0.095
1:29:10.392,0.185,-0.115
1:29:10.396,0.185,-0.125
1:29:10.400,0.195,-0.135
1:29:10.404,0.23,-0.13
1:29:10.408,0.195,-0.135
1:29:10.412,0.2,-0.15
1:29:10.416,0.2,-0.17
1:29:10.420,0.215,-0.165
1:29:10.424,0.21,-0.16
1:29:10.428,0.21,-0.175
1:29:10.432,0.205,-0.185
1:29:10.436,0.22,-0.2
1:29:10.440,0.195,-0.195
1:29:10.444,0.2,-0.205
1:29:10.448,0.19,-0.21
1:29:10.452,0.195,-0.21
1:29:10.456,0.195,-0.23
1:29:10.460,0.195,-0.22
1:29:10.464,0.19,-0.22
1:29:10.468,0.21,-0.205
1:29:10.472,0.22,-0.2
1:29:10.476,0.215,-0.18
1:29:10.480,0.21,-0.2
1:29:10.484,0.215,-0.195
1:29:10.488,0.215,-0.19
1:29:10.492,0.215,-0.185
1:29:10.496,0.22,-0.185
1:29:10.500,0.235,-0.215
1:29:10.504,0.225,-0.205
1:29:10.508,0.215,-0.18
1:29:10.512,0.24,-0.205
1:29:10.516,0.235,-0.225
1:29:10.520,0.25,-0.235
1:29:10.524,0.24,-0.24
1:29:10.528,0.245,-0.245
1:29:10.532,0.215,-0.245
1:29:10.536,0.25,-0.255
1:29:10.540,0.22,-0.22
1:29:10.544,0.225,-0.21
1:29:10.548,0.23,-0.175
1:29:10.552,0.225,-0.1
1:29:10.556,0.195,-0.12
1:29:10.560,0.235,-0.11
1:29:10.564,0.22,-0.09
1:29:10.568,0.26,-0.065
1:29:10.572,0.28,-0.015
1:29:10.576,0.29,-0.01
1:29:10.580,0.315,0.03
1:29:10.584,0.3,0.045
1:29:10.588,0.295,0.065
1:29:10.592,0.295,0.095
1:29:10.596,0.29,0.1
1:29:10.600,0.245,0.085
1:29:10.604,0.195,0.09
1:29:10.608,0.135,0.07
1:29:10.612,0.13,0.045
1:29:10.616,0.1,0.055
1:29:10.620,0.07,0.035
1:29:10.624,0.05,0.03
1:29:10.628,0.065,0.015
1:29:10.632,0.055,0.03
1:29:10.636,0.035,0.015
1:29:10.640,0.04,0.015
1:29:10.644,0.03,0.02
1:29:10.648,0.055,0.02
1:29:10.652,0.045,0.005
1:29:10.656,0.04,0.005
1:29:10.660,0.035,0.0
1:29:10.664,0.05,0.0
1:29:10.668,0.04,-0.015
1:29:10.672,0.045,-0.02
1:29:10.676,0.07,-0.02
1:29:10.680,0.065,-0.01
1:29:10.684,0.045,-0.005
1:29:10.688,0.07,-0.015
1:29:10.692,0.065,-0.015
1:29:10.696,0.07,-0.025
1:29:10.700,0.1,-0.02
1:29:10.704,0.075,-0.025
1:29:10.708,0.11,-0.025
1:29:10.712,0.095,-0.03
1:29:10.716,0.1,-0.035
1:29:10.720,0.11,-0.02
1:29:10.724,0.105,-0.01
1:29:10.728,0.125,-0.03
1:29:10.732,0.075,-0.04
1:29:10.736,0.105,-0.03
1:29:10.740,0.105,-0.05
1:29:10.744,0.135,-0.07
1:29:10.748,0.115,-0.055
1:29:10.752,0.12,-0.065
1:29:10.756,0.095,-0.06
1:29:10.760,0.09,-0.07
1:29:10.764,0.095,-0.02
1:29:10.768,0.08,-0.06
1:29:10.772,0.075,-0.06
1:29:10.776,0.08,-0.045
1:29:10.780,0.07,-0.03
1:29:10.784,0.075,-0.05
1:29:10.788,0.085,-0.04
1:29:10.792,0.095,-0.035
1:29:10.796,0.11,-0.045
1:29:10.800,0.14,-0.04
1:29:10.804,0.145,-0.055
1:29:10.808,0.145,-0.085
1:29:10.812,0.16,-0.095
1:29:10.816,0.195,-0.095
1:29:10.820,0.195,-0.085
1:29:10.824,0.205,-0.075
1:29:10.828,0.215,-0.07
1:29:10.832,0.16,-0.08
1:29:10.836,0.15,-0.09
1:29:10.840,0.095,-0.09
1:29:10.844,0.065,-0.09
1:29:10.848,0.035,-0.085
1:29:10.852,0.02,-0.07
1:29:10.856,0.0,-0.07
1:29:10.860,0.0,-0.09
1:29:10.864,0.02,-0.075
1:29:10.868,0.03,-0.075
1:29:10.872,0.05,-0.08
1:29:10.876,0.035,-0.085
1:29:10.880,0.05,-0.105
1:29:10.884,0.06,-0.08
1:29:10.888,0.06,-0.075
1:29:10.892,0.05,-0.105
1:29:10.896,0.055,-0.09
1:29:10.900,0.065,-0.1
1:29:10.904,0.055,-0.095
1:29:10.908,0.045,-0.09
1:29:10.912,0.06,-0.08
1:29:10.916,0.045,-0.09
1:29:10.920,0.045,-0.09
1:29:10.924,0.02,-0.11
1:29:10.928,0.04,-0.12
1:29:10.932,0.045,-0.095
1:29:10.936,0.055,-0.07
1:29:10.940,0.045,-0.075
1:29:10.944,0.05,-0.095
1:29:10.948,0.045,-0.095
1:29:10.952,0.035,-0.105
1:29:10.956,0.045,-0.135
1:29:10.960,0.06,-0.165
1:29:10.964,0.035,-0.15
1:29:10.968,0.045,-0.155
1:29:10.972,0.035,-0.165
1:29:10.976,0.035,-0.13
1:29:10.980,0.025,-0.13
1:29:10.984,0.015,-0.11
1:29:10.988,0.01,-0.09
1:29:10.992,0.01,-0.095
1:29:10.996,0.01,-0.11
1:29:11.000,0.02,-0.1
1:29:11.004,0.04,-0.11
1:29:11.008,0.07,-0.105
1:29:11.012,0.05,-0.12
1:29:11.016,0.06,-0.16
1:29:11.020,0.06,-0.18
1:29:11.024,0.045,-0.18
1:29:11.028,0.06,-0.18
1:29:11.032,0.065,-0.195
1:29:11.036,0.09,-0.185
1:29:11.040,0.055,-0.185
1:29:11.044,0.055,-0.205
1:29:11.048,0.035,-0.185
1:29:11.052,0.025,-0.205
1:29:11.056,0.035,-0.2
1:29:11.060,0.035,-0.18
1:29:11.064,0.035,-0.18
1:29:11.068,0.025,-0.18
1:29:11.072,0.055,-0.17
1:29:11.076,0.06,-0.155
1:29:11.080,0.06,-0.135
1:29:11.084,0.055,-0.135
1:29:11.088,0.06,-0.12
1:29:11.092,0.06,-0.12
1:29:11.096,0.07,-0.125
1:29:11.100,0.045,-0.125
1:29:11.104,0.055,-0.115
1:29:11.108,0.06,-0.1
1:29:11.112,0.065,-0.065
1:29:11.116,0.06,-0.06
1:29:11.120,0.065,-0.035
1:29:11.124,0.08,-0.05
1:29:11.128,0.065,-0.025
1:29:11.132,0.07,-0.005
1:29:11.136,0.075,-0.005
1:29:11.140,0.085,0.005
1:29:11.144,0.115,0.0
1:29:11.148,0.125,0.015
1:29:11.152,0.145,0.03
1:29:11.156,0.18,0.04
1:29:11.160,0.185,0.06
1:29:11.164,0.195,0.08
1:29:11.168,0.2,0.085
1:29:11.172,0.205,0.095
1:29:11.176,0.195,0.075
1:29:11.180,0.195,0.09
1:29:11.184,0.145,0.1
1:29:11.188,0.085,0.095
1:29:11.192,0.055,0.135
1:29:11.196,0.04,0.28
1:29:11.200,0.03,0.505
1:29:11.204,0.075,0.705
1:29:11.208,0.06,0.835
1:29:11.212,-0.03,0.935
1:29:11.216,-0.09,0.98
1:29:11.220,-0.12,0.935
1:29:11.224,-0.15,0.86
1:29:11.228,-0.24,0.615
1:29:11.232,-0.425,0.39
1:29:11.236,-0.69,0.425
1:29:11.240,-0.99,0.595
1:29:11.244,-1.18,0.6
1:29:11.248,-1.22,0.345
1:29:11.252,-1.185,-0.03
1:29:11.256,-0.925,-0.32
1:29:11.260,-0.52,-0.5
1:29:11.264,-0.105,-0.57
1:29:11.268,0.025,-0.53
1:29:11.272,0.0,-0.39
1:29:11.276,-0.045,-0.295
1:29:11.280,-0.075,-0.285
1:29:11.284,-0.09,-0.265
1:29:11.288,-0.11,-0.305
1:29:11.292,-0.04,-0.32
1:29:11.296,0.0,-0.33
1:29:11.300,0.045,-0.3
1:29:11.304,0.075,-0.31
1:29:11.308,0.11,-0.31
1:29:11.312,0.095,-0.295
1:29:11.316,0.11,-0.295
1:29:11.320,0.105,-0.305
1:29:11.324,0.155,-0.29
1:29:11.328,0.135,-0.285
1:29:11.332,0.13,-0.26
1:29:11.336,0.14,-0.285
1:29:11.340,0.14,-0.305
1:29:11.344,0.155,-0.29
1:29:11.348,0.13,-0.3
1:29:11.352,0.17,-0.3
1:29:11.356,0.145,-0.295
1:29:11.360,0.135,-0.28
1:29:11.364,0.115,-0.29
1:29:11.368,0.15,-0.27
1:29:11.372,0.13,-0.26
1:29:11.376,0.14,-0.27
1:29:11.380,0.11,-0.27
1:29:11.384,0.135,-0.285
1:29:11.388,0.14,-0.265
1:29:11.392,0.155,-0.315
1:29:11.396,0.16,-0.315
1:29:11.400,0.14,-0.31
1:29:11.404,0.155,-0.305
1:29:11.408,0.155,-0.33
1:29:11.412,0.15,-0.33
1:29:11.416,0.15,-0.33
1:29:11.420,0.17,-0.335
1:29:11.424,0.165,-0.33
1:29:11.428,0.155,-0.34
1:29:11.432,0.155,-0.365
1:29:11.436,0.155,-0.35
1:29:11.440,0.175,-0.33
1:29:11.444,0.19,-0.31
1:29:11.448,0.2,-0.28
1:29:11.452,0.19,-0.3
1:29:11.456,0.2,-0.27
1:29:11.460,0.205,-0.27
1:29:11.464,0.235,-0.255
1:29:11.468,0.255,-0.28
1:29:11.472,0.26,-0.3
1:29:11.476,0.245,-0.33
1:29:11.480,0.245,-0.34
1:29:11.484,0.195,-0.345
1:29:11.488,0.16,-0.335
1:29:11.492,0.11,-0.325
1:29:11.496,0.065,-0.315
1:29:11.500,0.065,-0.31
1:29:11.504,0.055,-0.285
1:29:11.508,0.055,-0.265
1:29:11.512,0.045,-0.245
1:29:11.516,0.025,-0.235
1:29:11.520,0.04,-0.205
1:29:11.524,0.025,-0.185
1:29:11.528,0.01,-0.165
1:29:11.532,0.035,-0.13
1:29:11.536,0.025,-0.14
1:29:11.540,0.02,-0.14
1:29:11.544,0.03,-0.125
1:29:11.548,0.035,-0.1
1:29:11.552,0.05,-0.105
1:29:11.556,0.045,-0.11
1:29:11.560,0.035,-0.09
1:29:11.564,0.02,-0.08
1:29:11.568,0.04,-0.065
1:29:11.572,0.02,-0.075
1:29:11.576,0.045,-0.07
1:29:11.580,0.045,-0.075
1:29:11.584,0.035,-0.07
1:29:11.588,0.045,-0.065
1:29:11.592,0.05,-0.05
1:29:11.596,0.055,-0.055
1:29:11.600,0.045,-0.05
1:29:11.604,0.045,-0.055
1:29:11.608,0.05,-0.065
1:29:11.612,0.07,-0.07
1:29:11.616,0.07,-0.07
1:29:11.620,0.07,-0.085
1:29:11.624,0.06,-0.1
1:29:11.628,0.065,-0.11
1:29:11.632,0.08,-0.1
1:29:11.636,0.075,-0.115
1:29:11.640,0.07,-0.145
1:29:11.644,0.075,-0.145
1:29:11.648,0.07,-0.17
1:29:11.652,0.075,-0.16
1:29:11.656,0.06,-0.13
1:29:11.660,0.06,-0.13
1:29:11.664,0.085,-0.155
1:29:11.668,0.095,-0.145
1:29:11.672,0.085,-0.13
1:29:11.676,0.065,-0.11
1:29:11.680,0.1,-0.11
1:29:11.684,0.1,-0.09
1:29:11.688,0.105,-0.08
1:29:11.692,0.1,-0.06
1:29:11.696,0.105,-0.03
1:29:11.700,0.125,-0.015
1:29:11.704,0.15,0.0
1:29:11.708,0.12,0.0
1:29:11.712,0.155,-0.005
1:29:11.716,0.14,0.0
1:29:11.720,0.165,-0.02
1:29:11.724,0.17,-0.045
1:29:11.728,0.145,-0.075
1:29:11.732,0.115,-0.075
1:29:11.736,0.07,-0.095
1:29:11.740,0.03,-0.085
1:29:11.744,0.0,-0.08
1:29:11.748,-0.005,-0.085
1:29:11.752,-0.005,-0.085
1:29:11.756,-0.01,-0.11
1:29:11.760,-0.01,-0.105
1:29:11.764,0.015,-0.11
1:29:11.768,0.005,-0.15
1:29:11.772,0.005,-0.16
1:29:11.776,0.0,-0.16
1:29:11.780,-0.015,-0.14
1:29:11.784,0.0,-0.15
1:29:11.788,-0.005,-0.155
1:29:11.792,0.0,-0.15
1:29:11.796,-0.005,-0.13
1:29:11.800,-0.005,-0.12
1:29:11.804,0.01,-0.11
1:29:11.808,0.0,-0.135
1:29:11.812,0.0,-0.14
1:29:11.816,0.025,-0.14
1:29:11.820,0.02,-0.13
1:29:11.824,0.035,-0.145
1:29:11.828,0.02,-0.165
1:29:11.832,0.025,-0.16
1:29:11.836,0.015,-0.155
1:29:11.840,0.03,-0.18
1:29:11.844,0.03,-0.175
1:29:11.848,0.04,-0.195
1:29:11.852,0.035,-0.185
1:29:11.856,0.04,-0.19
1:29:11.860,0.03,-0.18
1:29:11.864,0.025,-0.145
1:29:11.868,0.015,-0.155
1:29:11.872,0.005,-0.18
1:29:11.876,0.02,-0.17
1:29:11.880,0.025,-0.18
1:29:11.884,0.03,-0.175
1:29:11.888,0.075,-0.16
1:29:11.892,0.09,-0.175
1:29:11.896,0.07,-0.165
1:29:11.900,0.06,-0.17
1:29:11.904,0.07,-0.14
1:29:11.908,0.07,-0.145
1:29:11.912,0.055,-0.135
1:29:11.916,0.05,-0.12
1:29:11.920,0.06,-0.115
1:29:11.924,0.055,-0.09
1:29:11.928,0.07,-0.095
1:29:11.932,0.07,-0.09
1:29:11.936,0.095,-0.1
1:29:11.940,0.1,-0.11
1:29:11.944,0.09,-0.095
1:29:11.948,0.13,-0.065
1:29:11.952,0.12,-0.07
1:29:11.956,0.125,-0.065
1:29:11.960,0.14,-0.035
1:29:11.964,0.145,-0.045
1:29:11.968,0.155,-0.055
1:29:11.972,0.185,-0.07
1:29:11.976,0.185,-0.07
1:29:11.980,0.145,-0.095
1:29:11.984,0.125,-0.105
1:29:11.988,0.075,-0.095
1:29:11.992,0.035,-0.115
1:29:11.996,0.0,-0.12
1:29:12.000,0.02,-0.105
1:29:12.004,0.01,-0.11
1:29:12.008,0.03,-0.085
1:29:12.012,0.005,-0.04
1:29:12.016,0.03,-0.03
1:29:12.020,0.0,-0.015
1:29:12.024,0.01,0.085
1:29:12.028,0.025,0.35
1:29:12.032,0.04,0.63
1:29:12.036,0.075,0.815
1:29:12.040,0.065,0.905
1:29:12.044,0.0,0.935
1:29:12.048,-0.03,0.93
1:29:12.052,-0.04,0.795
1:29:12.056,-0.08,0.61
1:29:12.060,-0.245,0.275
1:29:12.064,-0.515,0.11
1:29:12.068,-0.85,0.31
1:29:12.072,-1.125,0.525
1:29:12.076,-1.275,0.44
1:29:12.080,-1.315,0.16
1:29:12.084,-1.24,-0.17
1:29:12.088,-0.87,-0.39
1:29:12.092,-0.39,-0.535
1:29:12.096,-0.05,-0.555
1:29:12.100,0.05,-0.48
1:29:12.104,0.015,-0.38
1:29:12.108,-0.005,-0.345
1:29:12.112,-0.03,-0.345
1:29:12.116,-0.035,-0.34
1:29:12.120,0.0,-0.355
1:29:12.124,0.02,-0.37
1:29:12.128,0.065,-0.345
1:29:12.132,0.115,-0.355
1:29:12.136,0.14,-0.37
1:29:12.140,0.175,-0.345
1:29:12.144,0.145,-0.34
1:29:12.148,0.17,-0.35
1:29:12.152,0.18,-0.375
1:29:12.156,0.19,-0.345
1:29:12.160,0.195,-0.36
1:29:12.164,0.2,-0.36
1:29:12.168,0.205,-0.33
1:29:12.172,0.215,-0.33
1:29:12.176,0.23,-0.32
1:29:12.180,0.205,-0.33
1:29:12.184,0.215,-0.3
1:29:12.188,0.215,-0.295
1:29:12.192,0.215,-0.29
1:29:12.196,0.205,-0.275
1:29:12.200,0.25,-0.265
1:29:12.204,0.25,-0.235
1:29:12.208,0.265,-0.21
1:29:12.212,0.275,-0.22
1:29:12.216,0.31,-0.195
1:29:12.220,0.3,-0.19
1:29:12.224,0.34,-0.165
1:29:12.228,0.35,-0.175
1:29:12.232,0.34,-0.18
1:29:12.236,0.315,-0.195
1:29:12.240,0.31,-0.185
1:29:12.244,0.255,-0.19
1:29:12.248,0.22,-0.215
1:29:12.252,0.2,-0.22
1:29:12.256,0.18,-0.235
1:29:12.260,0.19,-0.255
1:29:12.264,0.195,-0.265
1:29:12.268,0.185,-0.285
1:29:12.272,0.175,-0.28
1:29:12.276,0.19,-0.31
1:29:12.280,0.2,-0.315
1:29:12.284,0.19,-0.32
1:29:12.288,0.195,-0.335
1:29:12.292,0.185,-0.345
1:29:12.296,0.195,-0.335
1:29:12.300,0.175,-0.32
1:29:12.304,0.17,-0.3
1:29:12.308,0.165,-0.275
1:29:12.312,0.145,-0.27
1:29:12.316,0.13,-0.27
1:29:12.320,0.155,-0.28
1:29:12.324,0.175,-0.28
1:29:12.328,0.175,-0.265
1:29:12.332,0.175,-0.255
1:29:12.336,0.2,-0.265
1:29:12.340,0.19,-0.255
1:29:12.344,0.185,-0.26
1:29:12.348,0.19,-0.235
1:29:12.352,0.185,-0.235
1:29:12.356,0.165,-0.205
1:29:12.360,0.165,-0.22
1:29:12.364,0.185,-0.215
1:29:12.368,0.155,-0.195
1:29:12.372,0.14,-0.2
1:29:12.376,0.15,-0.185
1:29:12.380,0.17,-0.175
1:29:12.384,0.145,-0.185
1:29:12.388,0.145,-0.17
1:29:12.392,0.135,-0.2
1:29:12.396,0.15,-0.195
1:29:12.400,0.15,-0.19
1:29:12.404,0.135,-0.175
1:29:12.408,0.16,-0.16
1:29:12.412,0.125,-0.17
1:29:12.416,0.15,-0.185
1:29:12.420,0.145,-0.185
1:29:12.424,0.18,-0.205
1:29:12.428,0.165,-0.195
1:29:12.432,0.165,-0.175
1:29:12.436,0.17,-0.165
1:29:12.440,0.17,-0.16
1:29:12.444,0.175,-0.145
1:29:12.448,0.18,-0.125
1:29:12.452,0.195,-0.12
1:29:12.456,0.2,-0.115
1:29:12.460,0.21,-0.085
1:29:12.464,0.225,-0.05
1:29:12.468,0.235,-0.015
1:29:12.472,0.245,0.02
1:29:12.476,0.265,0.025
1:29:12.480,0.28,0.035
1:29:12.484,0.305,0.02
1:29:12.488,0.35,0.03
1:29:12.492,0.345,0.0
1:29:12.496,0.33,0.0
1:29:12.500,0.29,0.0
1:29:12.504,0.265,0.02
1:29:12.508,0.24,0.075
1:29:12.512,0.185,0.115
1:29:12.516,0.155,0.155
1:29:12.520,0.15,0.2
1:29:12.524,0.155,0.33
1:29:12.528,0.16,0.555
1:29:12.532,0.175,0.79
1:29:12.536,0.17,0.87
1:29:12.540,0.17,0.82
1:29:12.544,0.055,0.67
1:29:12.548,-0.01,0.5
1:29:12.552,-0.05,0.2
1:29:12.556,-0.125,-0.15
1:29:12.560,-0.295,-0.46
1:29:12.564,-0.63,-0.45
1:29:12.568,-0.97,-0.13
1:29:12.572,-1.25,0.16
1:29:12.576,-1.44,0.21
1:29:12.580,-1.535,0.005
1:29:12.584,-1.46,-0.25
1:29:12.588,-1.195,-0.49
1:29:12.592,-0.735,-0.67
1:29:12.596,-0.27,-0.72
1:29:12.600,0.0,-0.66
1:29:12.604,0.085,-0.55
1:29:12.608,0.07,-0.445
1:29:12.612,0.06,-0.4
1:29:12.616,0.005,-0.38
1:29:12.620,0.03,-0.395
1:29:12.624,0.08,-0.39
1:29:12.628,0.12,-0.39
1:29:12.632,0.2,-0.4
1:29:12.636,0.21,-0.395
1:29:12.640,0.245,-0.365
1:29:12.644,0.25,-0.395
1:29:12.648,0.29,-0.4
1:29:12.652,0.27,-0.385
1:29:12.656,0.28,-0.365
1:29:12.660,0.28,-0.37
1:29:12.664,0.285,-0.35
1:29:12.668,0.305,-0.33
1:29:12.672,0.32,-0.305
1:29:12.676,0.315,-0.305
1:29:12.680,0.295,-0.285
1:29:12.684,0.315,-0.285
1:29:12.688,0.32,-0.275
1:29:12.692,0.33,-0.285
1:29:12.696,0.335,-0.255
1:29:12.700,0.33,-0.28
1:29:12.704,0.35,-0.265
1:29:12.708,0.35,-0.265
1:29:12.712,0.37,-0.24
1:29:12.716,0.38,-0.23
1:29:12.720,0.37,-0.19
1:29:12.724,0.39,-0.185
1:29:12.728,0.4,-0.17
1:29:12.732,0.43,-0.175
1:29:12.736,0.395,-0.175
1:29:12.740,0.415,-0.175
1:29:12.744,0.405,-0.19
1:29:12.748,0.395,-0.2
1:29:12.752,0.36,-0.22
1:29:12.756,0.305,-0.225
1:29:12.760,0.28,-0.24
1:29:12.764,0.29,-0.26
1:29:12.768,0.29,-0.28
1:29:12.772,0.295,-0.285
1:29:12.776,0.3,-0.33
1:29:12.780,0.275,-0.33
1:29:12.784,0.305,-0.33
1:29:12.788,0.305,-0.335
1:29:12.792,0.31,-0.355
1:29:12.796,0.3,-0.345
1:29:12.800,0.29,-0.335
1:29:12.804,0.285,-0.33
1:29:12.808,0.275,-0.315
1:29:12.812,0.27,-0.295
1:29:12.816,0.275,-0.3
1:29:12.820,0.27,-0.29
1:29:12.824,0.26,-0.275
1:29:12.828,0.25,-0.255
1:29:12.832,0.265,-0.265
1:29:12.836,0.23,-0.28
1:29:12.840,0.25,-0.25
1:29:12.844,0.255,-0.26
1:29:12.848,0.23,-0.27
1:29:12.852,0.215,-0.255
1:29:12.856,0.215,-0.275
1:29:12.860,0.21,-0.265
1:29:12.864,0.2,-0.275
1:29:12.868,0.21,-0.275
1:29:12.872,0.2,-0.26
1:29:12.876,0.175,-0.275
1:29:12.880,0.175,-0.265
1:29:12.884,0.18,-0.25
1:29:12.888,0.17,-0.24
1:29:12.892,0.17,-0.255
1:29:12.896,0.17,-0.255
1:29:12.900,0.185,-0.255
1:29:12.904,0.18,-0.265
1:29:12.908,0.195,-0.255
1:29:12.912,0.175,-0.25
1:29:12.916,0.195,-0.265
1:29:12.920,0.215,-0.27
1:29:12.924,0.22,-0.27
1:29:12.928,0.215,-0.27
1:29:12.932,0.22,-0.245
1:29:12.936,0.23,-0.27
1:29:12.940,0.235,-0.255
1:29:12.944,0.235,-0.26
1:29:12.948,0.26,-0.26
1:29:12.952,0.27,-0.255
1:29:12.956,0.24,-0.22
1:29:12.960,0.285,-0.25
1:29:12.964,0.305,-0.235
1:29:12.968,0.3,-0.23
1:29:12.972,0.29,-0.225
1:29:12.976,0.295,-0.225
1:29:12.980,0.285,-0.205
1:29:12.984,0.26,-0.21
1:29:12.988,0.22,-0.235
1:29:12.992,0.16,-0.26
1:29:12.996,0.16,-0.275
1:29:13.000,0.14,-0.28
1:29:13.004,0.14,-0.295
1:29:13.008,0.145,-0.31
1:29:13.012,0.16,-0.3
1:29:13.016,0.165,-0.29
1:29:13.020,0.16,-0.32
1:29:13.024,0.14,-0.32
1:29:13.028,0.145,-0.305
1:29:13.032,0.15,-0.32
1:29:13.036,0.16,-0.33
1:29:13.040,0.16,-0.335
1:29:13.044,0.16,-0.345
1:29:13.048,0.16,-0.36
1:29:13.052,0.17,-0.36
1:29:13.056,0.175,-0.355
1:29:13.060,0.17,-0.355
1:29:13.064,0.165,-0.37
1:29:13.068,0.165,-0.365
1:29:13.072,0.175,-0.35
1:29:13.076,0.145,-0.355
1:29:13.080,0.165,-0.345
1:29:13.084,0.15,-0.33
1:29:13.088,0.165,-0.33
1:29:13.092,0.14,-0.355
1:29:13.096,0.165,-0.315
1:29:13.100,0.14,-0.35
1:29:13.104,0.15,-0.33
1:29:13.108,0.155,-0.35
1:29:13.112,0.155,-0.32
1:29:13.116,0.17,-0.315
1:29:13.120,0.165,-0.31
1:29:13.124,0.18,-0.3
1:29:13.128,0.17,-0.305
1:29:13.132,0.17,-0.3
1:29:13.136,0.165,-0.31
1:29:13.140,0.155,-0.31
1:29:13.144,0.18,-0.32
1:29:13.148,0.175,-0.33
1:29:13.152,0.195,-0.345
1:29:13.156,0.18,-0.355
1:29:13.160,0.19,-0.36
1:29:13.164,0.16,-0.365
1:29:13.168,0.19,-0.345
1:29:13.172,0.18,-0.34
1:29:13.176,0.18,-0.325
1:29:13.180,0.195,-0.29
1:29:13.184,0.185,-0.21
1:29:13.188,0.195,-0.145
1:29:13.192,0.195,-0.11
1:29:13.196,0.225,-0.02
1:29:13.200,0.235,0.145
1:29:13.204,0.245,0.42
1:29:13.208,0.275,0.68
1:29:13.212,0.28,0.855
1:29:13.216,0.23,0.915
1:29:13.220,0.165,0.88
1:29:13.224,0.08,0.815
1:29:13.228,0.035,0.635
1:29:13.232,-0.04,0.35
1:29:13.236,-0.255,0.01
1:29:13.240,-0.595,-0.105
1:29:13.244,-0.96,0.15
1:29:13.248,-1.25,0.48
1:29:13.252,-1.425,0.445
1:29:13.256,-1.47,0.14
1:29:13.260,-1.335,-0.215
1:29:13.264,-0.975,-0.5
1:29:13.268,-0.43,-0.655
1:29:13.272,0.005,-0.69
1:29:13.276,0.155,-0.625
1:29:13.280,0.15,-0.52
1:29:13.284,0.09,-0.43
1:29:13.288,0.06,-0.385
1:29:13.292,0.035,-0.41
1:29:13.296,0.055,-0.39
1:29:13.300,0.095,-0.385
1:29:13.304,0.165,-0.385
1:29:13.308,0.195,-0.395
1:29:13.312,0.245,-0.4
1:29:13.316,0.25,-0.38
1:29:13.320,0.25,-0.39
1:29:13.324,0.27,-0.39
1:29:13.328,0.29,-0.395
1:29:13.332,0.32,-0.375
1:29:13.336,0.31,-0.405
1:29:13.340,0.295,-0.395
1:29:13.344,0.305,-0.395
1:29:13.348,0.335,-0.385
1:29:13.352,0.335,-0.4
1:29:13.356,0.345,-0.395
1:29:13.360,0.34,-0.395
1:29:13.364,0.345,-0.405
1:29:13.368,0.345,-0.41
1:29:13.372,0.33,-0.4
1:29:13.376,0.335,-0.38
1:29:13.380,0.325,-0.405
1:29:13.384,0.345,-0.395
1:29:13.388,0.345,-0.39
1:29:13.392,0.33,-0.43
1:29:13.396,0.34,-0.465
1:29:13.400,0.35,-0.48
1:29:13.404,0.375,-0.485
1:29:13.408,0.345,-0.5
1:29:13.412,0.345,-0.495
1:29:13.416,0.33,-0.48
1:29:13.420,0.345,-0.45
1:29:13.424,0.345,-0.42
1:29:13.428,0.345,-0.41
1:29:13.432,0.355,-0.4
1:29:13.436,0.385,-0.385
1:29:13.440,0.375,-0.405
1:29:13.444,0.38,-0.38
1:29:13.448,0.365,-0.41
1:29:13.452,0.31,-0.39
1:29:13.456,0.295,-0.42
1:29:13.460,0.28,-0.415
1:29:13.464,0.285,-0.435
1:29:13.468,0.29,-0.43
1:29:13.472,0.28,-0.46
1:29:13.476,0.29,-0.455
1:29:13.480,0.285,-0.455
1:29:13.484,0.28,-0.45
1:29:13.488,0.29,-0.425
1:29:13.492,0.275,-0.39
1:29:13.496,0.25,-0.39
1:29:13.500,0.25,-0.345
1:29:13.504,0.24,-0.31
1:29:13.508,0.235,-0.295
1:29:13.512,0.225,-0.26
1:29:13.516,0.225,-0.25
1:29:13.520,0.24,-0.25
1:29:13.524,0.23,-0.225
1:29:13.528,0.215,-0.225
1:29:13.532,0.225,-0.205
1:29:13.536,0.22,-0.19
1:29:13.540,0.225,-0.205
1:29:13.544,0.23,-0.2
1:29:13.548,0.22,-0.19
1:29:13.552,0.225,-0.19
1:29:13.556,0.22,-0.21
1:29:13.560,0.22,-0.19
1:29:13.564,0.22,-0.19
1:29:13.568,0.225,-0.205
1:29:13.572,0.225,-0.205
1:29:13.576,0.195,-0.205
1:29:13.580,0.22,-0.205
1:29:13.584,0.22,-0.195
1:29:13.588,0.215,-0.185
1:29:13.592,0.205,-0.185
1:29:13.596,0.22,-0.17
1:29:13.600,0.215,-0.18
1:29:13.604,0.225,-0.16
1:29:13.608,0.22,-0.165
1:29:13.612,0.225,-0.19
1:29:13.616,0.245,-0.21
1:29:13.620,0.265,-0.195
1:29:13.624,0.275,-0.215
1:29:13.628,0.255,-0.2
1:29:13.632,0.255,-0.2
1:29:13.636,0.255,-0.19
1:29:13.640,0.255,-0.17
1:29:13.644,0.255,-0.145
1:29:13.648,0.235,-0.14
1:29:13.652,0.245,-0.115
1:29:13.656,0.23,-0.145
1:29:13.660,0.225,-0.145
1:29:13.664,0.24,-0.13
1:29:13.668,0.23,-0.12
1:29:13.672,0.21,-0.155
1:29:13.676,0.175,-0.15
1:29:13.680,0.175,-0.165
1:29:13.684,0.195,-0.185
1:29:13.688,0.19,-0.185
1:29:13.692,0.19,-0.225
1:29:13.696,0.18,-0.205
1:29:13.700,0.175,-0.21
1:29:13.704,0.16,-0.205
1:29:13.708,0.155,-0.21
1:29:13.712,0.15,-0.2
1:29:13.716,0.165,-0.185
1:29:13.720,0.155,-0.2
1:29:13.724,0.165,-0.215
1:29:13.728,0.15,-0.185
1:29:13.732,0.155,-0.2
1:29:13.736,0.14,-0.205
1:29:13.740,0.165,-0.205
1:29:13.744,0.155,-0.2
1:29:13.748,0.155,-0.24
1:29:13.752,0.16,-0.235
1:29:13.756,0.165,-0.235
1:29:13.760,0.18,-0.225
1:29:13.764,0.175,-0.255
1:29:13.768,0.155,-0.245
1:29:13.772,0.17,-0.24
1:29:13.776,0.16,-0.23
1:29:13.780,0.16,-0.24
1:29:13.784,0.155,-0.24
1:29:13.788,0.17,-0.255
1:29:13.792,0.165,-0.275
1:29:13.796,0.165,-0.28
1:29:13.800,0.16,-0.3
1:29:13.804,0.155,-0.3
1:29:13.808,0.175,-0.3
1:29:13.812,0.15,-0.305
1:29:13.816,0.15,-0.295
1:29:13.820,0.135,-0.315
1:29:13.824,0.145,-0.32
1:29:13.828,0.15,-0.295
1:29:13.832,0.15,-0.315
1:29:13.836,0.145,-0.315
1:29:13.840,0.135,-0.3
1:29:13.844,0.175,-0.275
1:29:13.848,0.185,-0.265
1:29:13.852,0.19,-0.235
1:29:13.856,0.19,-0.225
1:29:13.860,0.2,-0.215
1:29:13.864,0.2,-0.19
1:29:13.868,0.195,-0.16
1:29:13.872,0.18,-0.16
1:29:13.876,0.17,-0.165
1:29:13.880,0.14,-0.195
1:29:13.884,0.11,-0.205
1:29:13.888,0.115,-0.22
1:29:13.892,0.115,-0.245
1:29:13.896,0.115,-0.255
1:29:13.900,0.12,-0.29
1:29:13.904,0.125,-0.255
1:29:13.908,0.115,-0.27
1:29:13.912,0.125,-0.245
1:29:13.916,0.13,-0.25
1:29:13.920,0.135,-0.24
1:29:13.924,0.115,-0.24
1:29:13.928,0.13,-0.245
1:29:13.932,0.145,-0.23
1:29:13.936,0.13,-0.21
1:29:13.940,0.12,-0.225
1:29:13.944,0.12,-0.2
1:29:13.948,0.125,-0.21
1:29:13.952,0.13,-0.195
1:29:13.956,0.115,-0.2
1:29:13.960,0.095,-0.22
1:29:13.964,0.13,-0.215
1:29:13.968,0.125,-0.2
1:29:13.972,0.125,-0.225
1:29:13.976,0.13,-0.21
1:29:13.980,0.12,-0.205
1:29:13.984,0.125,-0.195
1:29:13.988,0.135,-0.215
1:29:13.992,0.13,-0.21
1:29:13.996,0.115,-0.17
1:29:14.000,0.135,-0.12
1:29:14.004,0.135,-0.105
1:29:14.008,0.12,-0.1
1:29:14.012,0.145,-0.075
1:29:14.016,0.125,0.06
1:29:14.020,0.14,0.295
1:29:14.024,0.195,0.49
1:29:14.028,0.175,0.6
1:29:14.032,0.13,0.6
1:29:14.036,0.045,0.575
1:29:14.040,0.01,0.53
1:29:14.044,-0.01,0.405
1:29:14.048,-0.12,0.185
1:29:14.052,-0.35,-0.055
1:29:14.056,-0.68,-0.03
1:29:14.060,-1.03,0.265
1:29:14.064,-1.26,0.45
