Time,ECG1,ECG2
00:45:03.500:1,0.44,-0.265
00:45:03.504:1,0.405,-0.25
00:45:03.508:1,0.36,-0.24
00:45:03.512:1,0.3,-0.24
00:45:03.516:1,0.265,-0.22
00:45:03.520:1,0.25,-0.22
00:45:03.524:1,0.215,-0.215
00:45:03.528:1,0.165,-0.22
00:45:03.532:1,0.17,-0.2
00:45:03.536:1,0.135,-0.225
00:45:03.540:1,0.125,-0.23
00:45:03.544:1,0.115,-0.215
00:45:03.548:1,0.115,-0.24
00:45:03.552:1,0.1,-0.22
00:45:03.556:1,0.075,-0.225
00:45:03.560:1,0.08,-0.225
00:45:03.564:1,0.075,-0.255
00:45:03.568:1,0.07,-0.27
00:45:03.572:1,0.085,-0.265
00:45:03.576:1,0.09,-0.265
00:45:03.580:1,0.08,-0.27
00:45:03.584:1,0.085,-0.26
00:45:03.588:1,0.08,-0.255
00:45:03.592:1,0.065,-0.255
00:45:03.596:1,0.09,-0.28
00:45:03.600:1,0.075,-0.28
00:45:03.604:1,0.095,-0.28
00:45:03.608:1,0.09,-0.29
00:45:03.612:1,0.065,-0.315
00:45:03.616:1,0.09,-0.3
00:45:03.620:1,0.1,-0.31
00:45:03.624:1,0.09,-0.31
00:45:03.628:1,0.075,-0.325
00:45:03.632:1,0.105,-0.315
00:45:03.636:1,0.12,-0.31
00:45:03.640:1,0.115,-0.325
00:45:03.644:1,0.09,-0.335
00:45:03.648:1,0.105,-0.33
00:45:03.652:1,0.095,-0.32
00:45:03.656:1,0.105,-0.32
00:45:03.660:1,0.08,-0.34
00:45:03.664:1,0.09,-0.335
00:45:03.668:1,0.1,-0.32
00:45:03.672:1,0.095,-0.305
00:45:03.676:1,0.08,-0.315
00:45:03.680:1,0.085,-0.33
00:45:03.684:1,0.08,-0.31
00:45:03.688:1,0.07,-0.3
00:45:03.692:1,0.07,-0.32
00:45:03.696:1,0.045,-0.315
00:45:03.700:1,0.055,-0.315
00:45:03.704:1,0.055,-0.305
00:45:03.708:1,0.05,-0.29
00:45:03.712:1,0.045,-0.325
00:45:03.716:1,0.06,-0.32
00:45:03.720:1,0.03,-0.3
00:45:03.724:1,0.025,-0.295
00:45:03.728:1,0.03,-0.305
00:45:03.732:1,0.025,-0.28
00:45:03.736:1,0.04,-0.29
00:45:03.740:1,0.03,-0.27
00:45:03.744:1,0.01,-0.28
00:45:03.748:1,0.015,-0.29
00:45:03.752:1,0.02,-0.28
00:45:03.756:1,0.015,-0.27
00:45:03.760:1,0.015,-0.285
00:45:03.764:1,-0.01,-0.275
00:45:03.768:1,0.005,-0.29
00:45:03.772:1,0.005,-0.275
00:45:03.776:1,-0.01,-0.275
00:45:03.780:1,0.005,-0.3
00:45:03.784:1,0.015,-0.265
00:45:03.788:1,-0.005,-0.265
00:45:03.792:1,-0.005,-0.3
00:45:03.796:1,-0.005,-0.27
00:45:03.800:1,0.005,-0.265
00:45:03.804:1,-0.01,-0.27
00:45:03.808:1,-0.01,-0.29
00:45:03.812:1,0.0,-0.28
00:45:03.816:1,0.005,-0.27
00:45:03.820:1,0.0,-0.275
00:45:03.824:1,-0.025,-0.295
00:45:03.828:1,-0.01,-0.285
00:45:03.832:1,-0.005,-0.285
00:45:03.836:1,0.0,-0.26
00:45:03.840:1,-0.01,-0.275
00:45:03.844:1,0.0,-0.285
00:45:03.848:1,0.005,-0.26
00:45:03.852:1,0.01,-0.26
00:45:03.856:1,-0.01,-0.26
00:45:03.860:1,0.0,-0.205
00:45:03.864:1,0.0,-0.17
00:45:03.868:1,0.01,-0.14
00:45:03.872:1,0.03,-0.155
00:45:03.876:1,0.06,-0.135
00:45:03.880:1,0.1,-0.095
00:45:03.884:1,0.11,-0.095
00:45:03.888:1,0.125,-0.1
00:45:03.892:1,0.14,-0.1
00:45:03.896:1,0.165,-0.09
00:45:03.900:1,0.11,-0.125
00:45:03.904:1,0.105,-0.16
00:45:03.908:1,0.07,-0.17
00:45:03.912:1,0.035,-0.195
00:45:03.916:1,0.045,-0.2
00:45:03.920:1,0.005,-0.225
00:45:03.924:1,0.01,-0.24
00:45:03.928:1,0.015,-0.25
00:45:03.932:1,-0.02,-0.265
00:45:03.936:1,-0.06,-0.265
00:45:03.940:1,-0.09,-0.285
00:45:03.944:1,-0.08,-0.33
00:45:03.948:1,-0.04,-0.335
00:45:03.952:1,-0.04,-0.37
00:45:03.956:1,-0.045,-0.365
00:45:03.960:1,-0.035,-0.35
00:45:03.964:1,-0.05,-0.365
00:45:03.968:1,-0.03,-0.36
00:45:03.972:1,-0.04,-0.355
00:45:03.976:1,-0.05,-0.345
00:45:03.980:1,-0.045,-0.35
00:45:03.984:1,-0.045,-0.365
00:45:03.988:1,-0.035,-0.36
00:45:03.992:1,-0.03,-0.335
00:45:03.996:1,-0.05,-0.335
00:45:04.000:1,-0.04,-0.34
00:45:04.004:1,-0.055,-0.33
00:45:04.008:1,-0.02,-0.32
00:45:04.012:1,-0.03,-0.33
00:45:04.016:1,-0.03,-0.32
00:45:04.020:1,-0.045,-0.325
00:45:04.024:1,-0.04,-0.275
00:45:04.028:1,-0.005,-0.225
00:45:04.032:1,-0.02,-0.11
00:45:04.036:1,0.0,0.02
00:45:04.040:1,0.03,0.305
00:45:04.044:1,0.09,0.635
00:45:04.048:1,0.105,0.84
00:45:04.052:1,-0.04,0.975
00:45:04.056:1,-0.35,1.165
00:45:04.060:1,-0.88,1.415
00:45:04.064:1,-1.53,1.595
00:45:04.068:1,-2.135,1.675
00:45:04.072:1,-2.61,1.72
00:45:04.076:1,-2.79,1.75
00:45:04.080:1,-2.74,1.745
00:45:04.084:1,-2.59,1.68
00:45:04.088:1,-2.395,1.645
00:45:04.092:1,-2.28,1.575
00:45:04.096:1,-2.15,1.5
00:45:04.100:1,-1.955,1.455
00:45:04.104:1,-1.8,1.48
00:45:04.108:1,-1.72,1.51
00:45:04.112:1,-1.605,1.41
00:45:04.116:1,-1.5,1.08
00:45:04.120:1,-1.35,0.555
00:45:04.124:1,-1.245,0.08
00:45:04.128:1,-1.155,-0.26
00:45:04.132:1,-1.05,-0.455
00:45:04.136:1,-0.91,-0.535
00:45:04.140:1,-0.775,-0.53
00:45:04.144:1,-0.615,-0.535
00:45:04.148:1,-0.415,-0.54
00:45:04.152:1,-0.26,-0.51
00:45:04.156:1,-0.065,-0.48
00:45:04.160:1,0.09,-0.515
00:45:04.164:1,0.235,-0.505
00:45:04.168:1,0.33,-0.475
00:45:04.172:1,0.35,-0.48
00:45:04.176:1,0.38,-0.485
00:45:04.180:1,0.425,-0.495
00:45:04.184:1,0.44,-0.49
00:45:04.188:1,0.465,-0.495
00:45:04.192:1,0.485,-0.48
00:45:04.196:1,0.5,-0.49
00:45:04.200:1,0.495,-0.495
00:45:04.204:1,0.485,-0.5
00:45:04.208:1,0.525,-0.475
00:45:04.212:1,0.555,-0.49
00:45:04.216:1,0.53,-0.49
00:45:04.220:1,0.52,-0.49
00:45:04.224:1,0.57,-0.48
00:45:04.228:1,0.555,-0.495
00:45:04.232:1,0.57,-0.49
00:45:04.236:1,0.555,-0.485
00:45:04.240:1,0.54,-0.475
00:45:04.244:1,0.56,-0.48
00:45:04.248:1,0.61,-0.51
00:45:04.252:1,0.61,-0.47
00:45:04.256:1,0.625,-0.485
00:45:04.260:1,0.64,-0.48
00:45:04.264:1,0.645,-0.49
00:45:04.268:1,0.675,-0.49
00:45:04.272:1,0.68,-0.5
00:45:04.276:1,0.705,-0.52
00:45:04.280:1,0.72,-0.555
00:45:04.284:1,0.75,-0.555
00:45:04.288:1,0.77,-0.565
00:45:04.292:1,0.785,-0.59
00:45:04.296:1,0.81,-0.615
00:45:04.300:1,0.83,-0.585
00:45:04.304:1,0.84,-0.615
00:45:04.308:1,0.875,-0.64
00:45:04.312:1,0.865,-0.66
00:45:04.316:1,0.91,-0.67
00:45:04.320:1,0.935,-0.68
00:45:04.324:1,0.945,-0.685
00:45:04.328:1,0.93,-0.71
00:45:04.332:1,0.945,-0.69
00:45:04.336:1,0.95,-0.665
00:45:04.340:1,0.93,-0.655
00:45:04.344:1,0.93,-0.65
00:45:04.348:1,0.915,-0.61
00:45:04.352:1,0.885,-0.605
00:45:04.356:1,0.855,-0.56
00:45:04.360:1,0.835,-0.53
00:45:04.364:1,0.81,-0.47
00:45:04.368:1,0.745,-0.41
00:45:04.372:1,0.71,-0.4
00:45:04.376:1,0.655,-0.36
00:45:04.380:1,0.61,-0.32
00:45:04.384:1,0.57,-0.28
00:45:04.388:1,0.51,-0.28
00:45:04.392:1,0.455,-0.27
00:45:04.396:1,0.425,-0.235
00:45:04.400:1,0.385,-0.215
00:45:04.404:1,0.33,-0.225
00:45:04.408:1,0.31,-0.235
00:45:04.412:1,0.255,-0.21
00:45:04.416:1,0.225,-0.215
00:45:04.420:1,0.185,-0.235
00:45:04.424:1,0.19,-0.215
00:45:04.428:1,0.16,-0.215
00:45:04.432:1,0.16,-0.205
00:45:04.436:1,0.14,-0.23
00:45:04.440:1,0.155,-0.22
00:45:04.444:1,0.14,-0.225
00:45:04.448:1,0.125,-0.21
00:45:04.452:1,0.115,-0.23
00:45:04.456:1,0.12,-0.24
00:45:04.460:1,0.12,-0.23
00:45:04.464:1,0.135,-0.24
00:45:04.468:1,0.115,-0.25
00:45:04.472:1,0.115,-0.285
00:45:04.476:1,0.11,-0.265
00:45:04.480:1,0.1,-0.265
00:45:04.484:1,0.105,-0.28
00:45:04.488:1,0.11,-0.3
00:45:04.492:1,0.125,-0.285
00:45:04.496:1,0.12,-0.3
00:45:04.500:1,0.105,-0.3
00:45:04.504:1,0.085,-0.315
00:45:04.508:1,0.11,-0.3
00:45:04.512:1,0.11,-0.295
00:45:04.516:1,0.1,-0.29
00:45:04.520:1,0.105,-0.325
00:45:04.524:1,0.11,-0.315
00:45:04.528:1,0.095,-0.3
00:45:04.532:1,0.115,-0.325
00:45:04.536:1,0.11,-0.32
00:45:04.540:1,0.09,-0.305
00:45:04.544:1,0.095,-0.295
00:45:04.548:1,0.085,-0.31
00:45:04.552:1,0.105,-0.325
00:45:04.556:1,0.115,-0.28
00:45:04.560:1,0.095,-0.285
00:45:04.564:1,0.07,-0.31
00:45:04.568:1,0.07,-0.31
00:45:04.572:1,0.065,-0.295
00:45:04.576:1,0.065,-0.295
00:45:04.580:1,0.07,-0.3
00:45:04.584:1,0.07,-0.295
00:45:04.588:1,0.045,-0.295
00:45:04.592:1,0.09,-0.275
00:45:04.596:1,0.06,-0.28
00:45:04.600:1,0.055,-0.295
00:45:04.604:1,0.07,-0.29
00:45:04.608:1,0.07,-0.275
00:45:04.612:1,0.055,-0.29
00:45:04.616:1,0.065,-0.28
00:45:04.620:1,0.06,-0.255
00:45:04.624:1,0.055,-0.275
00:45:04.628:1,0.05,-0.27
00:45:04.632:1,0.03,-0.28
00:45:04.636:1,0.035,-0.275
00:45:04.640:1,0.055,-0.255
00:45:04.644:1,0.045,-0.27
00:45:04.648:1,0.05,-0.275
00:45:04.652:1,0.055,-0.265
00:45:04.656:1,0.045,-0.245
00:45:04.660:1,0.055,-0.25
00:45:04.664:1,0.03,-0.28
00:45:04.668:1,0.045,-0.26
00:45:04.672:1,0.035,-0.235
00:45:04.676:1,0.035,-0.265
00:45:04.680:1,0.01,-0.26
00:45:04.684:1,0.02,-0.25
00:45:04.688:1,0.045,-0.23
00:45:04.692:1,0.02,-0.255
00:45:04.696:1,0.01,-0.205
00:45:04.700:1,0.015,-0.18
00:45:04.704:1,0.025,-0.17
00:45:04.708:1,0.035,-0.135
00:45:04.712:1,0.06,-0.125
00:45:04.716:1,0.075,-0.11
00:45:04.720:1,0.1,-0.08
00:45:04.724:1,0.115,-0.09
00:45:04.728:1,0.155,-0.11
00:45:04.732:1,0.12,-0.09
00:45:04.736:1,0.155,-0.12
00:45:04.740:1,0.155,-0.13
00:45:04.744:1,0.1,-0.145
00:45:04.748:1,0.07,-0.145
00:45:04.752:1,0.04,-0.14
00:45:04.756:1,0.035,-0.185
00:45:04.760:1,0.025,-0.225
00:45:04.764:1,0.015,-0.23
00:45:04.768:1,0.005,-0.245
00:45:04.772:1,-0.05,-0.25
00:45:04.776:1,-0.06,-0.26
00:45:04.780:1,-0.08,-0.315
00:45:04.784:1,-0.1,-0.34
00:45:04.788:1,-0.075,-0.355
00:45:04.792:1,-0.04,-0.36
00:45:04.796:1,-0.035,-0.365
00:45:04.800:1,-0.04,-0.34
00:45:04.804:1,-0.055,-0.33
00:45:04.808:1,-0.06,-0.35
00:45:04.812:1,-0.045,-0.36
00:45:04.816:1,-0.055,-0.34
00:45:04.820:1,-0.04,-0.37
00:45:04.824:1,-0.065,-0.38
00:45:04.828:1,-0.05,-0.365
00:45:04.832:1,-0.04,-0.335
00:45:04.836:1,-0.055,-0.345
00:45:04.840:1,-0.045,-0.335
00:45:04.844:1,-0.05,-0.345
00:45:04.848:1,-0.045,-0.32
00:45:04.852:1,-0.04,-0.335
00:45:04.856:1,-0.03,-0.33
00:45:04.860:1,-0.035,-0.33
00:45:04.864:1,-0.02,-0.29
00:45:04.868:1,-0.02,-0.25
00:45:04.872:1,-0.02,-0.185
00:45:04.876:1,-0.02,-0.035
00:45:04.880:1,0.005,0.18
00:45:04.884:1,0.075,0.495
00:45:04.888:1,0.115,0.71
00:45:04.892:1,0.045,0.865
00:45:04.896:1,-0.22,0.98
00:45:04.900:1,-0.685,1.205
00:45:04.904:1,-1.33,1.42
00:45:04.908:1,-1.985,1.545
00:45:04.912:1,-2.525,1.605
00:45:04.916:1,-2.775,1.625
00:45:04.920:1,-2.795,1.625
00:45:04.924:1,-2.635,1.575
00:45:04.928:1,-2.455,1.54
00:45:04.932:1,-2.33,1.455
00:45:04.936:1,-2.17,1.35
00:45:04.940:1,-2.0,1.32
00:45:04.944:1,-1.83,1.32
00:45:04.948:1,-1.725,1.295
00:45:04.952:1,-1.6,1.2
00:45:04.956:1,-1.475,0.92
00:45:04.960:1,-1.365,0.41
00:45:04.964:1,-1.25,-0.07
00:45:04.968:1,-1.17,-0.365
00:45:04.972:1,-1.025,-0.535
00:45:04.976:1,-0.885,-0.565
00:45:04.980:1,-0.755,-0.57
00:45:04.984:1,-0.61,-0.55
00:45:04.988:1,-0.4,-0.55
00:45:04.992:1,-0.205,-0.515
00:45:04.996:1,-0.04,-0.5
00:45:05.000:1,0.12,-0.5
00:45:05.004:1,0.245,-0.515
00:45:05.008:1,0.31,-0.495
00:45:05.012:1,0.36,-0.49
00:45:05.016:1,0.405,-0.51
00:45:05.020:1,0.41,-0.5
00:45:05.024:1,0.43,-0.48
00:45:05.028:1,0.45,-0.455
00:45:05.032:1,0.465,-0.5
00:45:05.036:1,0.48,-0.475
00:45:05.040:1,0.515,-0.475
00:45:05.044:1,0.495,-0.455
00:45:05.048:1,0.5,-0.48
00:45:05.052:1,0.535,-0.475
00:45:05.056:1,0.535,-0.45
00:45:05.060:1,0.545,-0.455
00:45:05.064:1,0.545,-0.45
00:45:05.068:1,0.525,-0.44
00:45:05.072:1,0.585,-0.385
00:45:05.076:1,0.61,-0.37
00:45:05.080:1,0.58,-0.345
00:45:05.084:1,0.63,-0.285
00:45:05.088:1,0.645,-0.225
00:45:05.092:1,0.685,-0.21
00:45:05.096:1,0.7,-0.24
00:45:05.100:1,0.755,-0.24
00:45:05.104:1,0.8,-0.26
00:45:05.108:1,0.82,-0.295
00:45:05.112:1,0.87,-0.36
00:45:05.116:1,0.915,-0.435
00:45:05.120:1,0.95,-0.49
00:45:05.124:1,0.96,-0.53
00:45:05.128:1,0.95,-0.585
00:45:05.132:1,0.9,-0.62
00:45:05.136:1,0.885,-0.64
00:45:05.140:1,0.885,-0.68
00:45:05.144:1,0.87,-0.735
00:45:05.148:1,0.885,-0.8
00:45:05.152:1,0.885,-0.8
00:45:05.156:1,0.895,-0.8
00:45:05.160:1,0.885,-0.825
00:45:05.164:1,0.835,-0.82
00:45:05.168:1,0.85,-0.825
00:45:05.172:1,0.86,-0.805
00:45:05.176:1,0.84,-0.82
00:45:05.180:1,0.835,-0.805
00:45:05.184:1,0.86,-0.775
00:45:05.188:1,0.825,-0.71
00:45:05.192:1,0.795,-0.725
00:45:05.196:1,0.77,-0.69
00:45:05.200:1,0.74,-0.63
00:45:05.204:1,0.7,-0.595
00:45:05.208:1,0.645,-0.545
00:45:05.212:1,0.605,-0.525
00:45:05.216:1,0.565,-0.475
00:45:05.220:1,0.53,-0.42
00:45:05.224:1,0.5,-0.405
00:45:05.228:1,0.45,-0.385
00:45:05.232:1,0.4,-0.335
00:45:05.236:1,0.37,-0.325
00:45:05.240:1,0.325,-0.305
00:45:05.244:1,0.285,-0.3
00:45:05.248:1,0.245,-0.305
00:45:05.252:1,0.215,-0.275
00:45:05.256:1,0.18,-0.27
00:45:05.260:1,0.16,-0.285
00:45:05.264:1,0.16,-0.275
00:45:05.268:1,0.125,-0.27
00:45:05.272:1,0.11,-0.26
00:45:05.276:1,0.09,-0.265
00:45:05.280:1,0.105,-0.26
00:45:05.284:1,0.1,-0.225
00:45:05.288:1,0.115,-0.225
00:45:05.292:1,0.115,-0.23
00:45:05.296:1,0.15,-0.225
00:45:05.300:1,0.165,-0.205
00:45:05.304:1,0.155,-0.195
00:45:05.308:1,0.155,-0.175
00:45:05.312:1,0.165,-0.15
00:45:05.316:1,0.16,-0.04
00:45:05.320:1,0.17,0.075
00:45:05.324:1,0.21,0.205
00:45:05.328:1,0.28,0.285
00:45:05.332:1,0.375,0.315
00:45:05.336:1,0.38,0.365
00:45:05.340:1,0.17,0.465
00:45:05.344:1,-0.32,0.635
00:45:05.348:1,-0.945,0.82
00:45:05.352:1,-1.505,0.93
00:45:05.356:1,-1.925,0.985
00:45:05.360:1,-2.19,1.005
00:45:05.364:1,-2.205,1.045
00:45:05.368:1,-2.11,1.07
00:45:05.372:1,-2.02,1.015
00:45:05.376:1,-1.98,0.93
00:45:05.380:1,-1.89,0.815
00:45:05.384:1,-1.775,0.79
00:45:05.388:1,-1.675,0.745
00:45:05.392:1,-1.625,0.665
00:45:05.396:1,-1.505,0.425
00:45:05.400:1,-1.41,0.025
00:45:05.404:1,-1.315,-0.355
00:45:05.408:1,-1.225,-0.6
00:45:05.412:1,-1.16,-0.66
00:45:05.416:1,-1.02,-0.61
00:45:05.420:1,-0.83,-0.575
00:45:05.424:1,-0.65,-0.555
00:45:05.428:1,-0.45,-0.56
00:45:05.432:1,-0.265,-0.52
00:45:05.436:1,-0.065,-0.535
00:45:05.440:1,0.105,-0.54
00:45:05.444:1,0.225,-0.56
00:45:05.448:1,0.27,-0.545
00:45:05.452:1,0.315,-0.555
00:45:05.456:1,0.355,-0.55
00:45:05.460:1,0.395,-0.55
00:45:05.464:1,0.4,-0.53
00:45:05.468:1,0.425,-0.52
00:45:05.472:1,0.435,-0.49
00:45:05.476:1,0.475,-0.5
00:45:05.480:1,0.48,-0.475
00:45:05.484:1,0.5,-0.455
00:45:05.488:1,0.54,-0.47
00:45:05.492:1,0.555,-0.495
00:45:05.496:1,0.57,-0.48
00:45:05.500:1,0.56,-0.465
00:45:05.504:1,0.565,-0.475
00:45:05.508:1,0.6,-0.455
00:45:05.512:1,0.58,-0.445
00:45:05.516:1,0.605,-0.43
00:45:05.520:1,0.625,-0.435
00:45:05.524:1,0.62,-0.45
00:45:05.528:1,0.635,-0.44
00:45:05.532:1,0.675,-0.415
00:45:05.536:1,0.67,-0.41
00:45:05.540:1,0.68,-0.425
00:45:05.544:1,0.7,-0.445
00:45:05.548:1,0.725,-0.46
00:45:05.552:1,0.73,-0.46
00:45:05.556:1,0.76,-0.455
00:45:05.560:1,0.755,-0.49
00:45:05.564:1,0.805,-0.495
00:45:05.568:1,0.835,-0.535
00:45:05.572:1,0.845,-0.54
00:45:05.576:1,0.825,-0.575
00:45:05.580:1,0.835,-0.57
00:45:05.584:1,0.81,-0.565
00:45:05.588:1,0.83,-0.605
00:45:05.592:1,0.825,-0.635
00:45:05.596:1,0.855,-0.635
00:45:05.600:1,0.84,-0.635
00:45:05.604:1,0.805,-0.65
00:45:05.608:1,0.785,-0.64
00:45:05.612:1,0.775,-0.63
00:45:05.616:1,0.79,-0.62
00:45:05.620:1,0.76,-0.61
00:45:05.624:1,0.74,-0.58
00:45:05.628:1,0.73,-0.535
00:45:05.632:1,0.69,-0.48
00:45:05.636:1,0.67,-0.475
00:45:05.640:1,0.64,-0.445
00:45:05.644:1,0.615,-0.42
00:45:05.648:1,0.545,-0.385
00:45:05.652:1,0.51,-0.36
00:45:05.656:1,0.47,-0.365
00:45:05.660:1,0.43,-0.35
00:45:05.664:1,0.38,-0.315
00:45:05.668:1,0.345,-0.32
00:45:05.672:1,0.295,-0.3
00:45:05.676:1,0.255,-0.305
00:45:05.680:1,0.26,-0.29
00:45:05.684:1,0.245,-0.285
00:45:05.688:1,0.22,-0.3
00:45:05.692:1,0.205,-0.29
00:45:05.696:1,0.19,-0.29
00:45:05.700:1,0.175,-0.28
00:45:05.704:1,0.15,-0.305
00:45:05.708:1,0.145,-0.295
00:45:05.712:1,0.135,-0.28
00:45:05.716:1,0.14,-0.28
00:45:05.720:1,0.12,-0.305
00:45:05.724:1,0.15,-0.325
00:45:05.728:1,0.145,-0.315
00:45:05.732:1,0.115,-0.265
00:45:05.736:1,0.145,-0.275
00:45:05.740:1,0.125,-0.315
00:45:05.744:1,0.13,-0.335
00:45:05.748:1,0.135,-0.32
00:45:05.752:1,0.15,-0.3
00:45:05.756:1,0.12,-0.29
00:45:05.760:1,0.135,-0.31
00:45:05.764:1,0.115,-0.33
00:45:05.768:1,0.115,-0.305
00:45:05.772:1,0.065,-0.295
00:45:05.776:1,0.045,-0.31
00:45:05.780:1,0.02,-0.305
00:45:05.784:1,0.02,-0.285
00:45:05.788:1,-0.005,-0.305
00:45:05.792:1,-0.03,-0.315
00:45:05.796:1,-0.04,-0.295
00:45:05.800:1,-0.04,-0.295
00:45:05.804:1,-0.035,-0.315
00:45:05.808:1,-0.045,-0.31
00:45:05.812:1,-0.04,-0.29
00:45:05.816:1,-0.03,-0.29
00:45:05.820:1,-0.01,-0.32
00:45:05.824:1,0.015,-0.31
00:45:05.828:1,0.005,-0.285
00:45:05.832:1,0.02,-0.265
00:45:05.836:1,0.01,-0.24
00:45:05.840:1,0.02,-0.15
00:45:05.844:1,0.01,-0.01
00:45:05.848:1,0.03,0.2
00:45:05.852:1,0.1,0.435
00:45:05.856:1,0.175,0.64
00:45:05.860:1,0.185,0.8
00:45:05.864:1,0.01,0.945
00:45:05.868:1,-0.365,1.115
00:45:05.872:1,-0.955,1.305
00:45:05.876:1,-1.595,1.445
00:45:05.880:1,-2.12,1.525
00:45:05.884:1,-2.51,1.56
00:45:05.888:1,-2.69,1.575
00:45:05.892:1,-2.635,1.57
00:45:05.896:1,-2.475,1.52
00:45:05.900:1,-2.32,1.485
00:45:05.904:1,-2.2,1.39
00:45:05.908:1,-2.075,1.3
00:45:05.912:1,-1.9,1.27
00:45:05.916:1,-1.74,1.26
00:45:05.920:1,-1.645,1.28
00:45:05.924:1,-1.515,1.185
00:45:05.928:1,-1.42,0.895
00:45:05.932:1,-1.29,0.44
00:45:05.936:1,-1.21,-0.02
00:45:05.940:1,-1.09,-0.29
00:45:05.944:1,-0.93,-0.44
00:45:05.948:1,-0.775,-0.525
00:45:05.952:1,-0.64,-0.545
00:45:05.956:1,-0.5,-0.555
00:45:05.960:1,-0.325,-0.545
00:45:05.964:1,-0.175,-0.515
00:45:05.968:1,-0.035,-0.515
00:45:05.972:1,0.12,-0.525
00:45:05.976:1,0.225,-0.53
00:45:05.980:1,0.27,-0.53
00:45:05.984:1,0.285,-0.55
00:45:05.988:1,0.33,-0.555
00:45:05.992:1,0.325,-0.56
00:45:05.996:1,0.335,-0.545
00:45:06.000:1,0.335,-0.54
00:45:06.004:1,0.36,-0.555
00:45:06.008:1,0.36,-0.55
00:45:06.012:1,0.355,-0.545
00:45:06.016:1,0.395,-0.57
00:45:06.020:1,0.415,-0.575
00:45:06.024:1,0.425,-0.565
00:45:06.028:1,0.44,-0.57
00:45:06.032:1,0.445,-0.565
00:45:06.036:1,0.45,-0.565
00:45:06.040:1,0.48,-0.56
00:45:06.044:1,0.505,-0.56
00:45:06.048:1,0.515,-0.55
00:45:06.052:1,0.53,-0.555
00:45:06.056:1,0.55,-0.55
00:45:06.060:1,0.57,-0.565
00:45:06.064:1,0.58,-0.535
00:45:06.068:1,0.605,-0.535
00:45:06.072:1,0.635,-0.535
00:45:06.076:1,0.69,-0.53
00:45:06.080:1,0.72,-0.555
00:45:06.084:1,0.765,-0.57
00:45:06.088:1,0.78,-0.6
00:45:06.092:1,0.84,-0.61
00:45:06.096:1,0.835,-0.605
00:45:06.100:1,0.85,-0.61
00:45:06.104:1,0.845,-0.62
00:45:06.108:1,0.9,-0.625
00:45:06.112:1,0.915,-0.63
00:45:06.116:1,0.945,-0.64
00:45:06.120:1,0.985,-0.655
00:45:06.124:1,0.995,-0.65
00:45:06.128:1,1.03,-0.65
00:45:06.132:1,1.025,-0.62
00:45:06.136:1,1.03,-0.635
00:45:06.140:1,0.985,-0.62
00:45:06.144:1,0.94,-0.61
00:45:06.148:1,0.9,-0.565
00:45:06.152:1,0.86,-0.575
00:45:06.156:1,0.85,-0.52
00:45:06.160:1,0.78,-0.49
00:45:06.164:1,0.76,-0.44
00:45:06.168:1,0.715,-0.415
00:45:06.172:1,0.665,-0.4
00:45:06.176:1,0.61,-0.355
00:45:06.180:1,0.585,-0.31
00:45:06.184:1,0.545,-0.285
00:45:06.188:1,0.505,-0.27
00:45:06.192:1,0.485,-0.265
00:45:06.196:1,0.43,-0.275
00:45:06.200:1,0.4,-0.25
00:45:06.204:1,0.355,-0.26
00:45:06.208:1,0.3,-0.26
00:45:06.212:1,0.29,-0.245
00:45:06.216:1,0.255,-0.24
00:45:06.220:1,0.225,-0.275
00:45:06.224:1,0.185,-0.285
00:45:06.228:1,0.175,-0.29
00:45:06.232:1,0.17,-0.285
00:45:06.236:1,0.165,-0.28
00:45:06.240:1,0.155,-0.29
00:45:06.244:1,0.145,-0.295
00:45:06.248:1,0.16,-0.28
00:45:06.252:1,0.14,-0.275
00:45:06.256:1,0.125,-0.28
00:45:06.260:1,0.13,-0.29
00:45:06.264:1,0.14,-0.305
00:45:06.268:1,0.165,-0.315
00:45:06.272:1,0.175,-0.3
00:45:06.276:1,0.16,-0.26
00:45:06.280:1,0.135,-0.25
00:45:06.284:1,0.125,-0.27
00:45:06.288:1,0.17,-0.285
00:45:06.292:1,0.15,-0.26
00:45:06.296:1,0.155,-0.24
00:45:06.300:1,0.16,-0.27
00:45:06.304:1,0.19,-0.27
00:45:06.308:1,0.205,-0.205
00:45:06.312:1,0.18,-0.12
00:45:06.316:1,0.21,0.005
00:45:06.320:1,0.2,0.19
00:45:06.324:1,0.24,0.425
00:45:06.328:1,0.27,0.64
00:45:06.332:1,0.28,0.765
00:45:06.336:1,0.1,0.85
00:45:06.340:1,-0.24,0.96
00:45:06.344:1,-0.735,1.105
00:45:06.348:1,-1.325,1.24
00:45:06.352:1,-1.875,1.29
00:45:06.356:1,-2.345,1.305
00:45:06.360:1,-2.58,1.31
00:45:06.364:1,-2.56,1.26
00:45:06.368:1,-2.415,1.245
00:45:06.372:1,-2.295,1.205
00:45:06.376:1,-2.22,1.105
00:45:06.380:1,-2.11,1.045
00:45:06.384:1,-1.96,1.04
00:45:06.388:1,-1.8,1.095
00:45:06.392:1,-1.73,1.1
00:45:06.396:1,-1.64,1.055
00:45:06.400:1,-1.485,0.78
00:45:06.404:1,-1.385,0.305
00:45:06.408:1,-1.31,-0.12
00:45:06.412:1,-1.215,-0.42
00:45:06.416:1,-1.085,-0.605
00:45:06.420:1,-0.93,-0.665
00:45:06.424:1,-0.8,-0.64
00:45:06.428:1,-0.655,-0.64
00:45:06.432:1,-0.46,-0.625
00:45:06.436:1,-0.255,-0.635
00:45:06.440:1,-0.11,-0.605
00:45:06.444:1,0.05,-0.6
00:45:06.448:1,0.18,-0.58
00:45:06.452:1,0.245,-0.585
00:45:06.456:1,0.31,-0.58
00:45:06.460:1,0.325,-0.585
00:45:06.464:1,0.37,-0.59
00:45:06.468:1,0.4,-0.56
00:45:06.472:1,0.43,-0.575
00:45:06.476:1,0.445,-0.57
00:45:06.480:1,0.45,-0.545
00:45:06.484:1,0.46,-0.545
00:45:06.488:1,0.49,-0.56
00:45:06.492:1,0.5,-0.54
00:45:06.496:1,0.495,-0.56
00:45:06.500:1,0.525,-0.56
00:45:06.504:1,0.545,-0.55
00:45:06.508:1,0.545,-0.56
00:45:06.512:1,0.535,-0.545
00:45:06.516:1,0.495,-0.54
00:45:06.520:1,0.48,-0.535
00:45:06.524:1,0.485,-0.56
00:45:06.528:1,0.475,-0.555
00:45:06.532:1,0.505,-0.57
00:45:06.536:1,0.535,-0.595
00:45:06.540:1,0.525,-0.615
00:45:06.544:1,0.525,-0.61
00:45:06.548:1,0.565,-0.645
00:45:06.552:1,0.585,-0.665
00:45:06.556:1,0.565,-0.66
00:45:06.560:1,0.59,-0.675
00:45:06.564:1,0.595,-0.66
00:45:06.568:1,0.62,-0.68
00:45:06.572:1,0.66,-0.68
00:45:06.576:1,0.66,-0.715
00:45:06.580:1,0.695,-0.73
00:45:06.584:1,0.715,-0.735
00:45:06.588:1,0.735,-0.735
00:45:06.592:1,0.755,-0.71
00:45:06.596:1,0.79,-0.68
00:45:06.600:1,0.785,-0.675
00:45:06.604:1,0.81,-0.655
00:45:06.608:1,0.815,-0.635
00:45:06.612:1,0.8,-0.625
00:45:06.616:1,0.775,-0.575
00:45:06.620:1,0.755,-0.55
00:45:06.624:1,0.74,-0.495
00:45:06.628:1,0.715,-0.445
00:45:06.632:1,0.69,-0.4
00:45:06.636:1,0.665,-0.35
00:45:06.640:1,0.605,-0.3
00:45:06.644:1,0.575,-0.28
00:45:06.648:1,0.575,-0.25
00:45:06.652:1,0.515,-0.24
00:45:06.656:1,0.46,-0.2
00:45:06.660:1,0.44,-0.22
00:45:06.664:1,0.415,-0.22
00:45:06.668:1,0.38,-0.245
00:45:06.672:1,0.345,-0.26
00:45:06.676:1,0.34,-0.265
00:45:06.680:1,0.3,-0.245
00:45:06.684:1,0.23,-0.275
00:45:06.688:1,0.18,-0.275
00:45:06.692:1,0.13,-0.3
00:45:06.696:1,0.085,-0.3
00:45:06.700:1,0.055,-0.275
00:45:06.704:1,0.025,-0.3
00:45:06.708:1,0.025,-0.295
00:45:06.712:1,0.03,-0.31
00:45:06.716:1,0.02,-0.325
00:45:06.720:1,-0.01,-0.36
00:45:06.724:1,-0.035,-0.36
00:45:06.728:1,-0.065,-0.365
00:45:06.732:1,-0.055,-0.38
00:45:06.736:1,-0.04,-0.405
00:45:06.740:1,-0.045,-0.405
00:45:06.744:1,-0.04,-0.435
00:45:06.748:1,-0.045,-0.425
00:45:06.752:1,-0.055,-0.44
00:45:06.756:1,-0.075,-0.455
00:45:06.760:1,-0.05,-0.445
00:45:06.764:1,-0.06,-0.415
00:45:06.768:1,-0.07,-0.37
00:45:06.772:1,-0.07,-0.305
00:45:06.776:1,-0.085,-0.18
00:45:06.780:1,-0.06,-0.01
00:45:06.784:1,-0.03,0.25
00:45:06.788:1,0.035,0.53
00:45:06.792:1,0.06,0.785
00:45:06.796:1,0.0,0.95
00:45:06.800:1,-0.27,1.1
00:45:06.804:1,-0.655,1.29
00:45:06.808:1,-1.215,1.45
00:45:06.812:1,-1.72,1.61
00:45:06.816:1,-2.16,1.64
00:45:06.820:1,-2.525,1.685
00:45:06.824:1,-2.595,1.68
00:45:06.828:1,-2.5,1.585
00:45:06.832:1,-2.365,1.535
00:45:06.836:1,-2.245,1.47
00:45:06.840:1,-2.14,1.375
00:45:06.844:1,-1.98,1.365
00:45:06.848:1,-1.8,1.42
00:45:06.852:1,-1.695,1.475
00:45:06.856:1,-1.59,1.495
00:45:06.860:1,-1.46,1.295
00:45:06.864:1,-1.34,0.84
00:45:06.868:1,-1.22,0.27
00:45:06.872:1,-1.18,-0.145
00:45:06.876:1,-1.115,-0.45
00:45:06.880:1,-1.015,-0.63
00:45:06.884:1,-0.87,-0.665
00:45:06.888:1,-0.75,-0.66
00:45:06.892:1,-0.58,-0.69
00:45:06.896:1,-0.385,-0.65
00:45:06.900:1,-0.22,-0.64
00:45:06.904:1,-0.05,-0.63
00:45:06.908:1,0.055,-0.665
00:45:06.912:1,0.13,-0.645
00:45:06.916:1,0.19,-0.665
00:45:06.920:1,0.205,-0.67
00:45:06.924:1,0.265,-0.7
00:45:06.928:1,0.265,-0.695
00:45:06.932:1,0.305,-0.69
00:45:06.936:1,0.31,-0.685
00:45:06.940:1,0.3,-0.66
00:45:06.944:1,0.315,-0.665
00:45:06.948:1,0.315,-0.675
00:45:06.952:1,0.325,-0.705
00:45:06.956:1,0.33,-0.7
00:45:06.960:1,0.335,-0.695
00:45:06.964:1,0.375,-0.68
00:45:06.968:1,0.41,-0.67
00:45:06.972:1,0.42,-0.665
00:45:06.976:1,0.445,-0.66
00:45:06.980:1,0.465,-0.68
00:45:06.984:1,0.48,-0.66
00:45:06.988:1,0.475,-0.64
00:45:06.992:1,0.52,-0.64
00:45:06.996:1,0.535,-0.655
00:45:07.000:1,0.57,-0.66
00:45:07.004:1,0.615,-0.68
00:45:07.008:1,0.645,-0.68
00:45:07.012:1,0.66,-0.685
00:45:07.016:1,0.675,-0.71
00:45:07.020:1,0.725,-0.705
00:45:07.024:1,0.735,-0.73
00:45:07.028:1,0.75,-0.725
00:45:07.032:1,0.785,-0.72
00:45:07.036:1,0.79,-0.74
00:45:07.040:1,0.815,-0.775
00:45:07.044:1,0.855,-0.8
00:45:07.048:1,0.875,-0.785
00:45:07.052:1,0.88,-0.755
00:45:07.056:1,0.865,-0.765
00:45:07.060:1,0.835,-0.74
00:45:07.064:1,0.805,-0.72
00:45:07.068:1,0.755,-0.67
00:45:07.072:1,0.735,-0.655
00:45:07.076:1,0.73,-0.635
00:45:07.080:1,0.67,-0.595
00:45:07.084:1,0.67,-0.53
00:45:07.088:1,0.62,-0.47
00:45:07.092:1,0.56,-0.455
00:45:07.096:1,0.53,-0.42
00:45:07.100:1,0.475,-0.395
00:45:07.104:1,0.46,-0.37
00:45:07.108:1,0.4,-0.355
00:45:07.112:1,0.34,-0.345
00:45:07.116:1,0.29,-0.335
00:45:07.120:1,0.255,-0.325
00:45:07.124:1,0.235,-0.345
00:45:07.128:1,0.17,-0.355
00:45:07.132:1,0.13,-0.36
00:45:07.136:1,0.075,-0.375
00:45:07.140:1,0.055,-0.38
00:45:07.144:1,0.04,-0.365
00:45:07.148:1,0.04,-0.395
00:45:07.152:1,0.015,-0.415
00:45:07.156:1,0.0,-0.425
00:45:07.160:1,0.005,-0.41
00:45:07.164:1,0.015,-0.38
00:45:07.168:1,0.0,-0.385
00:45:07.172:1,-0.005,-0.415
00:45:07.176:1,-0.01,-0.425
00:45:07.180:1,0.015,-0.405
00:45:07.184:1,0.0,-0.395
00:45:07.188:1,0.0,-0.385
00:45:07.192:1,-0.02,-0.39
00:45:07.196:1,-0.02,-0.395
00:45:07.200:1,0.0,-0.375
00:45:07.204:1,0.025,-0.39
00:45:07.208:1,0.04,-0.4
00:45:07.212:1,0.075,-0.425
00:45:07.216:1,0.055,-0.41
00:45:07.220:1,0.04,-0.41
00:45:07.224:1,0.05,-0.415
00:45:07.228:1,0.085,-0.42
00:45:07.232:1,0.09,-0.42
00:45:07.236:1,0.045,-0.435
00:45:07.240:1,0.035,-0.44
00:45:07.244:1,0.01,-0.42
00:45:07.248:1,-0.01,-0.395
00:45:07.252:1,-0.03,-0.41
00:45:07.256:1,-0.035,-0.41
00:45:07.260:1,-0.03,-0.395
00:45:07.264:1,-0.03,-0.375
00:45:07.268:1,-0.04,-0.375
00:45:07.272:1,-0.04,-0.385
00:45:07.276:1,-0.045,-0.39
00:45:07.280:1,-0.01,-0.38
00:45:07.284:1,-0.01,-0.385
00:45:07.288:1,-0.02,-0.38
00:45:07.292:1,-0.025,-0.36
00:45:07.296:1,0.0,-0.365
00:45:07.300:1,-0.015,-0.385
00:45:07.304:1,-0.035,-0.375
00:45:07.308:1,-0.02,-0.405
00:45:07.312:1,0.01,-0.415
00:45:07.316:1,-0.01,-0.41
00:45:07.320:1,-0.01,-0.41
00:45:07.324:1,-0.01,-0.415
00:45:07.328:1,-0.01,-0.395
00:45:07.332:1,-0.02,-0.38
00:45:07.336:1,-0.02,-0.395
00:45:07.340:1,-0.025,-0.405
00:45:07.344:1,-0.01,-0.37
00:45:07.348:1,0.0,-0.355
00:45:07.352:1,0.015,-0.35
00:45:07.356:1,0.0,-0.375
00:45:07.360:1,0.035,-0.395
00:45:07.364:1,0.02,-0.355
00:45:07.368:1,0.015,-0.33
00:45:07.372:1,0.0,-0.34
00:45:07.376:1,0.015,-0.32
00:45:07.380:1,0.025,-0.305
00:45:07.384:1,0.005,-0.3
00:45:07.388:1,0.035,-0.345
00:45:07.392:1,0.045,-0.35
00:45:07.396:1,0.055,-0.35
00:45:07.400:1,0.045,-0.37
00:45:07.404:1,0.015,-0.37
00:45:07.408:1,0.005,-0.34
00:45:07.412:1,-0.03,-0.355
00:45:07.416:1,-0.05,-0.345
00:45:07.420:1,-0.07,-0.34
00:45:07.424:1,-0.08,-0.36
00:45:07.428:1,-0.075,-0.34
00:45:07.432:1,-0.08,-0.32
00:45:07.436:1,-0.075,-0.33
00:45:07.440:1,-0.08,-0.32
00:45:07.444:1,-0.07,-0.31
00:45:07.448:1,-0.08,-0.32
00:45:07.452:1,-0.08,-0.345
00:45:07.456:1,-0.075,-0.34
00:45:07.460:1,-0.06,-0.32
00:45:07.464:1,-0.06,-0.33
00:45:07.468:1,-0.06,-0.34
00:45:07.472:1,-0.03,-0.33
00:45:07.476:1,-0.03,-0.3
00:45:07.480:1,-0.03,-0.32
00:45:07.484:1,-0.045,-0.355
00:45:07.488:1,-0.025,-0.34
00:45:07.492:1,-0.005,-0.33
00:45:07.496:1,-0.015,-0.335
00:45:07.500:1,-0.01,-0.34
00:45:07.504:1,0.0,-0.335
00:45:07.508:1,-0.005,-0.335
00:45:07.512:1,-0.005,-0.355
00:45:07.516:1,0.02,-0.36
00:45:07.520:1,0.025,-0.33
00:45:07.524:1,0.055,-0.32
00:45:07.528:1,0.035,-0.32
00:45:07.532:1,0.03,-0.345
00:45:07.536:1,0.01,-0.365
00:45:07.540:1,0.025,-0.34
00:45:07.544:1,0.055,-0.32
00:45:07.548:1,0.07,-0.32
00:45:07.552:1,0.035,-0.315
00:45:07.556:1,0.04,-0.32
00:45:07.560:1,0.055,-0.31
00:45:07.564:1,0.04,-0.31
00:45:07.568:1,0.02,-0.315
00:45:07.572:1,0.015,-0.295
00:45:07.576:1,0.005,-0.3
00:45:07.580:1,0.0,-0.31
00:45:07.584:1,-0.02,-0.32
00:45:07.588:1,-0.02,-0.29
00:45:07.592:1,-0.005,-0.3
00:45:07.596:1,-0.02,-0.32
00:45:07.600:1,-0.02,-0.32
00:45:07.604:1,-0.02,-0.3
00:45:07.608:1,-0.02,-0.3
00:45:07.612:1,-0.01,-0.295
00:45:07.616:1,0.0,-0.32
00:45:07.620:1,0.0,-0.32
00:45:07.624:1,0.005,-0.3
00:45:07.628:1,0.0,-0.34
00:45:07.632:1,0.0,-0.33
00:45:07.636:1,0.005,-0.32
00:45:07.640:1,0.03,-0.305
00:45:07.644:1,0.015,-0.33
00:45:07.648:1,0.03,-0.345
00:45:07.652:1,0.035,-0.345
00:45:07.656:1,0.03,-0.34
00:45:07.660:1,0.05,-0.37
00:45:07.664:1,0.015,-0.37
00:45:07.668:1,0.02,-0.35
00:45:07.672:1,0.04,-0.345
00:45:07.676:1,0.01,-0.355
00:45:07.680:1,0.015,-0.37
00:45:07.684:1,0.04,-0.38
00:45:07.688:1,0.06,-0.35
00:45:07.692:1,0.05,-0.34
00:45:07.696:1,0.07,-0.345
00:45:07.700:1,0.06,-0.325
00:45:07.704:1,0.06,-0.32
00:45:07.708:1,0.07,-0.32
00:45:07.712:1,0.085,-0.33
00:45:07.716:1,0.085,-0.305
00:45:07.720:1,0.085,-0.245
00:45:07.724:1,0.095,-0.21
00:45:07.728:1,0.07,-0.22
00:45:07.732:1,0.095,-0.22
00:45:07.736:1,0.11,-0.22
00:45:07.740:1,0.09,-0.24
00:45:07.744:1,0.08,-0.26
00:45:07.748:1,0.07,-0.26
00:45:07.752:1,0.035,-0.23
00:45:07.756:1,0.03,-0.225
00:45:07.760:1,0.02,-0.22
00:45:07.764:1,0.01,-0.23
00:45:07.768:1,0.0,-0.145
00:45:07.772:1,0.03,-0.03
00:45:07.776:1,0.01,0.1
00:45:07.780:1,0.045,0.345
00:45:07.784:1,0.11,0.635
00:45:07.788:1,0.135,0.86
00:45:07.792:1,0.01,0.98
00:45:07.796:1,-0.28,1.15
00:45:07.800:1,-0.82,1.375
00:45:07.804:1,-1.4,1.59
00:45:07.808:1,-1.935,1.675
00:45:07.812:1,-2.36,1.72
00:45:07.816:1,-2.6,1.765
00:45:07.820:1,-2.555,1.725
00:45:07.824:1,-2.42,1.645
00:45:07.828:1,-2.25,1.585
00:45:07.832:1,-2.15,1.56
00:45:07.836:1,-2.04,1.54
00:45:07.840:1,-1.88,1.53
00:45:07.844:1,-1.73,1.57
00:45:07.848:1,-1.615,1.63
00:45:07.852:1,-1.5,1.665
00:45:07.856:1,-1.375,1.41
00:45:07.860:1,-1.25,0.91
00:45:07.864:1,-1.145,0.345
00:45:07.868:1,-1.055,-0.07
00:45:07.872:1,-0.95,-0.365
00:45:07.876:1,-0.815,-0.555
00:45:07.880:1,-0.68,-0.615
00:45:07.884:1,-0.52,-0.64
00:45:07.888:1,-0.39,-0.605
00:45:07.892:1,-0.235,-0.59
00:45:07.896:1,-0.08,-0.57
00:45:07.900:1,0.1,-0.56
00:45:07.904:1,0.25,-0.59
00:45:07.908:1,0.35,-0.6
00:45:07.912:1,0.395,-0.62
00:45:07.916:1,0.425,-0.63
00:45:07.920:1,0.445,-0.595
00:45:07.924:1,0.46,-0.62
00:45:07.928:1,0.49,-0.635
00:45:07.932:1,0.495,-0.605
00:45:07.936:1,0.445,-0.6
00:45:07.940:1,0.465,-0.59
00:45:07.944:1,0.46,-0.6
00:45:07.948:1,0.465,-0.56
00:45:07.952:1,0.465,-0.555
00:45:07.956:1,0.46,-0.575
00:45:07.960:1,0.46,-0.575
00:45:07.964:1,0.49,-0.55
00:45:07.968:1,0.52,-0.555
00:45:07.972:1,0.54,-0.575
00:45:07.976:1,0.515,-0.605
00:45:07.980:1,0.57,-0.595
00:45:07.984:1,0.565,-0.59
00:45:07.988:1,0.575,-0.635
00:45:07.992:1,0.565,-0.65
00:45:07.996:1,0.595,-0.64
00:45:08.000:1,0.63,-0.625
00:45:08.004:1,0.62,-0.63
00:45:08.008:1,0.61,-0.645
00:45:08.012:1,0.68,-0.655
00:45:08.016:1,0.72,-0.625
00:45:08.020:1,0.72,-0.66
00:45:08.024:1,0.73,-0.685
00:45:08.028:1,0.785,-0.67
00:45:08.032:1,0.835,-0.66
00:45:08.036:1,0.825,-0.65
00:45:08.040:1,0.88,-0.655
00:45:08.044:1,0.885,-0.65
00:45:08.048:1,0.925,-0.665
00:45:08.052:1,0.95,-0.7
00:45:08.056:1,0.985,-0.725
00:45:08.060:1,0.985,-0.69
00:45:08.064:1,1.01,-0.65
00:45:08.068:1,1.015,-0.615
00:45:08.072:1,1.025,-0.665
00:45:08.076:1,1.035,-0.64
00:45:08.080:1,1.045,-0.61
00:45:08.084:1,1.065,-0.59
00:45:08.088:1,1.045,-0.6
00:45:08.092:1,1.035,-0.56
00:45:08.096:1,1.03,-0.535
00:45:08.100:1,1.015,-0.48
00:45:08.104:1,0.955,-0.465
00:45:08.108:1,0.925,-0.445
00:45:08.112:1,0.905,-0.39
00:45:08.116:1,0.845,-0.355
00:45:08.120:1,0.795,-0.35
00:45:08.124:1,0.735,-0.305
00:45:08.128:1,0.685,-0.285
00:45:08.132:1,0.645,-0.235
00:45:08.136:1,0.615,-0.24
00:45:08.140:1,0.56,-0.24
00:45:08.144:1,0.515,-0.23
00:45:08.148:1,0.44,-0.24
00:45:08.152:1,0.38,-0.28
00:45:08.156:1,0.35,-0.29
00:45:08.160:1,0.315,-0.29
00:45:08.164:1,0.255,-0.285
00:45:08.168:1,0.225,-0.315
00:45:08.172:1,0.19,-0.295
00:45:08.176:1,0.19,-0.285
00:45:08.180:1,0.19,-0.29
00:45:08.184:1,0.185,-0.29
00:45:08.188:1,0.185,-0.3
00:45:08.192:1,0.18,-0.31
00:45:08.196:1,0.2,-0.3
00:45:08.200:1,0.18,-0.34
00:45:08.204:1,0.18,-0.36
00:45:08.208:1,0.185,-0.33
00:45:08.212:1,0.19,-0.295
00:45:08.216:1,0.215,-0.305
00:45:08.220:1,0.21,-0.32
00:45:08.224:1,0.21,-0.375
00:45:08.228:1,0.225,-0.36
00:45:08.232:1,0.275,-0.35
00:45:08.236:1,0.23,-0.345
00:45:08.240:1,0.22,-0.35
00:45:08.244:1,0.215,-0.325
00:45:08.248:1,0.24,-0.34
00:45:08.252:1,0.25,-0.345
00:45:08.256:1,0.25,-0.36
00:45:08.260:1,0.27,-0.34
00:45:08.264:1,0.285,-0.35
00:45:08.268:1,0.265,-0.34
00:45:08.272:1,0.295,-0.335
00:45:08.276:1,0.285,-0.24
00:45:08.280:1,0.275,-0.09
00:45:08.284:1,0.29,0.055
00:45:08.288:1,0.285,0.29
00:45:08.292:1,0.39,0.515
00:45:08.296:1,0.385,0.665
00:45:08.300:1,0.165,0.82
00:45:08.304:1,-0.255,1.01
00:45:08.308:1,-0.88,1.255
00:45:08.312:1,-1.5,1.4
00:45:08.316:1,-1.99,1.49
00:45:08.320:1,-2.32,1.495
00:45:08.324:1,-2.4,1.49
00:45:08.328:1,-2.3,1.46
00:45:08.332:1,-2.14,1.435
00:45:08.336:1,-2.035,1.41
00:45:08.340:1,-2.02,1.32
00:45:08.344:1,-1.885,1.28
00:45:08.348:1,-1.72,1.3
00:45:08.352:1,-1.625,1.33
00:45:08.356:1,-1.55,1.285
00:45:08.360:1,-1.425,1.115
00:45:08.364:1,-1.315,0.65
00:45:08.368:1,-1.19,0.105
00:45:08.372:1,-1.12,-0.25
00:45:08.376:1,-1.005,-0.495
00:45:08.380:1,-0.87,-0.595
00:45:08.384:1,-0.745,-0.61
00:45:08.388:1,-0.59,-0.62
00:45:08.392:1,-0.42,-0.61
00:45:08.396:1,-0.195,-0.57
00:45:08.400:1,-0.01,-0.57
00:45:08.404:1,0.14,-0.6
00:45:08.408:1,0.285,-0.61
00:45:08.412:1,0.37,-0.63
00:45:08.416:1,0.395,-0.6
00:45:08.420:1,0.425,-0.595
00:45:08.424:1,0.43,-0.56
00:45:08.428:1,0.445,-0.565
00:45:08.432:1,0.495,-0.57
00:45:08.436:1,0.525,-0.535
00:45:08.440:1,0.53,-0.535
00:45:08.444:1,0.545,-0.52
00:45:08.448:1,0.59,-0.54
00:45:08.452:1,0.57,-0.52
00:45:08.456:1,0.605,-0.515
00:45:08.460:1,0.62,-0.54
00:45:08.464:1,0.61,-0.54
00:45:08.468:1,0.595,-0.525
00:45:08.472:1,0.585,-0.51
00:45:08.476:1,0.605,-0.505
00:45:08.480:1,0.575,-0.51
00:45:08.484:1,0.57,-0.525
00:45:08.488:1,0.6,-0.505
00:45:08.492:1,0.58,-0.48
00:45:08.496:1,0.575,-0.505
00:45:08.500:1,0.59,-0.51
00:45:08.504:1,0.615,-0.515
00:45:08.508:1,0.645,-0.51
00:45:08.512:1,0.64,-0.535
00:45:08.516:1,0.685,-0.515
00:45:08.520:1,0.71,-0.52
00:45:08.524:1,0.72,-0.55
00:45:08.528:1,0.735,-0.555
00:45:08.532:1,0.745,-0.545
00:45:08.536:1,0.775,-0.56
00:45:08.540:1,0.795,-0.56
00:45:08.544:1,0.78,-0.565
00:45:08.548:1,0.8,-0.57
00:45:08.552:1,0.805,-0.555
00:45:08.556:1,0.81,-0.55
00:45:08.560:1,0.84,-0.555
00:45:08.564:1,0.815,-0.535
00:45:08.568:1,0.83,-0.52
00:45:08.572:1,0.825,-0.48
00:45:08.576:1,0.805,-0.49
00:45:08.580:1,0.785,-0.445
00:45:08.584:1,0.755,-0.39
00:45:08.588:1,0.745,-0.35
00:45:08.592:1,0.695,-0.36
00:45:08.596:1,0.66,-0.385
00:45:08.600:1,0.61,-0.37
00:45:08.604:1,0.57,-0.345
00:45:08.608:1,0.525,-0.29
00:45:08.612:1,0.47,-0.27
00:45:08.616:1,0.43,-0.265
00:45:08.620:1,0.38,-0.215
00:45:08.624:1,0.35,-0.22
00:45:08.628:1,0.355,-0.24
00:45:08.632:1,0.345,-0.225
00:45:08.636:1,0.34,-0.235
00:45:08.640:1,0.325,-0.24
00:45:08.644:1,0.29,-0.25
00:45:08.648:1,0.25,-0.245
00:45:08.652:1,0.22,-0.24
00:45:08.656:1,0.175,-0.24
00:45:08.660:1,0.14,-0.26
00:45:08.664:1,0.14,-0.26
00:45:08.668:1,0.135,-0.25
00:45:08.672:1,0.1,-0.28
00:45:08.676:1,0.08,-0.29
00:45:08.680:1,0.065,-0.28
00:45:08.684:1,0.06,-0.27
00:45:08.688:1,0.06,-0.26
00:45:08.692:1,0.05,-0.215
00:45:08.696:1,0.05,-0.135
00:45:08.700:1,0.09,-0.03
00:45:08.704:1,0.07,0.1
00:45:08.708:1,0.13,0.305
00:45:08.712:1,0.225,0.555
00:45:08.716:1,0.305,0.75
00:45:08.720:1,0.22,0.965
00:45:08.724:1,-0.09,1.165
00:45:08.728:1,-0.695,1.39
00:45:08.732:1,-1.355,1.555
00:45:08.736:1,-1.89,1.67
00:45:08.740:1,-2.31,1.675
00:45:08.744:1,-2.48,1.685
00:45:08.748:1,-2.45,1.66
00:45:08.752:1,-2.32,1.62
00:45:08.756:1,-2.17,1.595
00:45:08.760:1,-2.095,1.495
00:45:08.764:1,-1.965,1.43
00:45:08.768:1,-1.795,1.425
00:45:08.772:1,-1.705,1.46
00:45:08.776:1,-1.61,1.485
00:45:08.780:1,-1.465,1.32
00:45:08.784:1,-1.33,0.9
00:45:08.788:1,-1.225,0.345
00:45:08.792:1,-1.16,-0.13
00:45:08.796:1,-1.05,-0.41
00:45:08.800:1,-0.925,-0.575
00:45:08.804:1,-0.825,-0.61
00:45:08.808:1,-0.695,-0.56
00:45:08.812:1,-0.465,-0.55
00:45:08.816:1,-0.26,-0.55
00:45:08.820:1,-0.065,-0.555
00:45:08.824:1,0.13,-0.565
00:45:08.828:1,0.285,-0.58
00:45:08.832:1,0.365,-0.585
00:45:08.836:1,0.39,-0.61
00:45:08.840:1,0.41,-0.605
00:45:08.844:1,0.39,-0.565
00:45:08.848:1,0.405,-0.59
00:45:08.852:1,0.41,-0.595
00:45:08.856:1,0.4,-0.585
00:45:08.860:1,0.435,-0.565
00:45:08.864:1,0.425,-0.56
00:45:08.868:1,0.43,-0.54
00:45:08.872:1,0.45,-0.54
00:45:08.876:1,0.465,-0.535
00:45:08.880:1,0.465,-0.505
00:45:08.884:1,0.49,-0.535
00:45:08.888:1,0.515,-0.525
00:45:08.892:1,0.52,-0.505
00:45:08.896:1,0.555,-0.51
00:45:08.900:1,0.58,-0.53
00:45:08.904:1,0.58,-0.52
00:45:08.908:1,0.615,-0.52
00:45:08.912:1,0.64,-0.545
00:45:08.916:1,0.665,-0.535
00:45:08.920:1,0.68,-0.56
00:45:08.924:1,0.685,-0.53
00:45:08.928:1,0.735,-0.56
00:45:08.932:1,0.77,-0.595
00:45:08.936:1,0.805,-0.585
00:45:08.940:1,0.825,-0.61
00:45:08.944:1,0.86,-0.61
00:45:08.948:1,0.88,-0.63
00:45:08.952:1,0.905,-0.6
00:45:08.956:1,0.94,-0.62
00:45:08.960:1,0.975,-0.65
00:45:08.964:1,0.97,-0.64
00:45:08.968:1,0.975,-0.695
00:45:08.972:1,0.99,-0.68
00:45:08.976:1,1.0,-0.65
00:45:08.980:1,0.995,-0.585
00:45:08.984:1,0.955,-0.55
00:45:08.988:1,0.94,-0.53
00:45:08.992:1,0.93,-0.495
00:45:08.996:1,0.9,-0.435
00:45:09.000:1,0.895,-0.415
00:45:09.004:1,0.87,-0.39
00:45:09.008:1,0.81,-0.36
00:45:09.012:1,0.77,-0.33
00:45:09.016:1,0.72,-0.335
00:45:09.020:1,0.64,-0.305
00:45:09.024:1,0.565,-0.29
00:45:09.028:1,0.5,-0.29
00:45:09.032:1,0.415,-0.275
00:45:09.036:1,0.35,-0.275
00:45:09.040:1,0.295,-0.285
00:45:09.044:1,0.255,-0.295
00:45:09.048:1,0.225,-0.28
00:45:09.052:1,0.18,-0.31
00:45:09.056:1,0.14,-0.33
00:45:09.060:1,0.125,-0.325
00:45:09.064:1,0.1,-0.33
00:45:09.068:1,0.08,-0.325
00:45:09.072:1,0.075,-0.32
00:45:09.076:1,0.06,-0.32
00:45:09.080:1,0.06,-0.335
00:45:09.084:1,0.065,-0.375
00:45:09.088:1,0.11,-0.37
00:45:09.092:1,0.1,-0.345
00:45:09.096:1,0.085,-0.35
00:45:09.100:1,0.09,-0.365
00:45:09.104:1,0.1,-0.37
00:45:09.108:1,0.1,-0.37
00:45:09.112:1,0.125,-0.37
00:45:09.116:1,0.12,-0.38
00:45:09.120:1,0.115,-0.36
00:45:09.124:1,0.125,-0.34
00:45:09.128:1,0.125,-0.335
00:45:09.132:1,0.125,-0.355
00:45:09.136:1,0.15,-0.355
00:45:09.140:1,0.125,-0.355
00:45:09.144:1,0.125,-0.345
00:45:09.148:1,0.13,-0.32
00:45:09.152:1,0.11,-0.31
00:45:09.156:1,0.13,-0.295
00:45:09.160:1,0.12,-0.285
00:45:09.164:1,0.125,-0.265
00:45:09.168:1,0.135,-0.275
00:45:09.172:1,0.15,-0.27
00:45:09.176:1,0.13,-0.25
00:45:09.180:1,0.145,-0.28
00:45:09.184:1,0.16,-0.28
00:45:09.188:1,0.13,-0.3
00:45:09.192:1,0.15,-0.3
00:45:09.196:1,0.16,-0.305
00:45:09.200:1,0.155,-0.315
00:45:09.204:1,0.14,-0.3
00:45:09.208:1,0.1,-0.32
00:45:09.212:1,0.05,-0.33
00:45:09.216:1,0.06,-0.31
00:45:09.220:1,0.005,-0.335
00:45:09.224:1,-0.005,-0.325
00:45:09.228:1,0.01,-0.335
00:45:09.232:1,0.0,-0.325
00:45:09.236:1,-0.025,-0.33
00:45:09.240:1,-0.02,-0.34
00:45:09.244:1,-0.04,-0.32
00:45:09.248:1,-0.025,-0.305
00:45:09.252:1,-0.025,-0.31
00:45:09.256:1,-0.01,-0.315
00:45:09.260:1,0.015,-0.305
00:45:09.264:1,0.03,-0.27
00:45:09.268:1,0.015,-0.29
00:45:09.272:1,0.0,-0.31
00:45:09.276:1,0.015,-0.295
00:45:09.280:1,0.025,-0.295
00:45:09.284:1,0.065,-0.275
00:45:09.288:1,0.05,-0.265
00:45:09.292:1,0.05,-0.26
00:45:09.296:1,0.06,-0.24
00:45:09.300:1,0.035,-0.23
00:45:09.304:1,0.06,-0.235
00:45:09.308:1,0.06,-0.245
00:45:09.312:1,0.095,-0.23
00:45:09.316:1,0.085,-0.195
00:45:09.320:1,0.095,-0.17
00:45:09.324:1,0.085,-0.13
00:45:09.328:1,0.09,-0.095
00:45:09.332:1,0.12,0.01
00:45:09.336:1,0.11,0.15
00:45:09.340:1,0.16,0.405
00:45:09.344:1,0.255,0.65
00:45:09.348:1,0.295,0.81
00:45:09.352:1,0.16,0.935
00:45:09.356:1,-0.16,1.12
00:45:09.360:1,-0.7,1.32
00:45:09.364:1,-1.34,1.465
00:45:09.368:1,-1.915,1.515
00:45:09.372:1,-2.36,1.535
00:45:09.376:1,-2.57,1.54
00:45:09.380:1,-2.475,1.49
00:45:09.384:1,-2.36,1.45
00:45:09.388:1,-2.195,1.39
00:45:09.392:1,-2.14,1.295
00:45:09.396:1,-2.065,1.245
00:45:09.400:1,-1.925,1.225
00:45:09.404:1,-1.78,1.23
00:45:09.408:1,-1.7,1.25
00:45:09.412:1,-1.6,1.21
00:45:09.416:1,-1.475,0.98
00:45:09.420:1,-1.345,0.485
00:45:09.424:1,-1.26,0.0
00:45:09.428:1,-1.16,-0.345
00:45:09.432:1,-1.055,-0.56
00:45:09.436:1,-0.925,-0.66
00:45:09.440:1,-0.78,-0.685
00:45:09.444:1,-0.64,-0.63
00:45:09.448:1,-0.45,-0.62
00:45:09.452:1,-0.255,-0.615
00:45:09.456:1,-0.055,-0.595
00:45:09.460:1,0.13,-0.59
00:45:09.464:1,0.295,-0.585
00:45:09.468:1,0.365,-0.57
00:45:09.472:1,0.39,-0.57
00:45:09.476:1,0.425,-0.54
00:45:09.480:1,0.435,-0.575
00:45:09.484:1,0.48,-0.57
00:45:09.488:1,0.52,-0.555
00:45:09.492:1,0.505,-0.515
00:45:09.496:1,0.515,-0.51
00:45:09.500:1,0.495,-0.5
00:45:09.504:1,0.555,-0.495
00:45:09.508:1,0.59,-0.46
00:45:09.512:1,0.605,-0.465
00:45:09.516:1,0.62,-0.46
00:45:09.520:1,0.66,-0.425
00:45:09.524:1,0.65,-0.425
00:45:09.528:1,0.66,-0.41
00:45:09.532:1,0.705,-0.405
00:45:09.536:1,0.725,-0.385
00:45:09.540:1,0.72,-0.355
00:45:09.544:1,0.765,-0.33
00:45:09.548:1,0.78,-0.325
00:45:09.552:1,0.81,-0.325
00:45:09.556:1,0.835,-0.32
00:45:09.560:1,0.89,-0.33
00:45:09.564:1,0.915,-0.37
00:45:09.568:1,0.945,-0.4
00:45:09.572:1,0.98,-0.395
00:45:09.576:1,1.0,-0.43
00:45:09.580:1,0.97,-0.44
00:45:09.584:1,0.96,-0.46
00:45:09.588:1,0.96,-0.455
00:45:09.592:1,0.96,-0.48
00:45:09.596:1,0.945,-0.505
00:45:09.600:1,0.965,-0.535
00:45:09.604:1,0.985,-0.56
00:45:09.608:1,0.96,-0.54
00:45:09.612:1,0.93,-0.56
00:45:09.616:1,0.92,-0.56
00:45:09.620:1,0.9,-0.52
00:45:09.624:1,0.92,-0.515
00:45:09.628:1,0.935,-0.53
00:45:09.632:1,0.88,-0.52
00:45:09.636:1,0.885,-0.495
00:45:09.640:1,0.895,-0.475
00:45:09.644:1,0.835,-0.455
00:45:09.648:1,0.825,-0.425
00:45:09.652:1,0.805,-0.375
00:45:09.656:1,0.76,-0.345
00:45:09.660:1,0.715,-0.32
00:45:09.664:1,0.665,-0.305
00:45:09.668:1,0.61,-0.26
00:45:09.672:1,0.575,-0.2
00:45:09.676:1,0.535,-0.15
00:45:09.680:1,0.495,-0.135
00:45:09.684:1,0.465,-0.135
00:45:09.688:1,0.45,-0.11
00:45:09.692:1,0.445,-0.1
00:45:09.696:1,0.395,-0.11
00:45:09.700:1,0.365,-0.11
00:45:09.704:1,0.345,-0.1
00:45:09.708:1,0.315,-0.115
00:45:09.712:1,0.285,-0.145
00:45:09.716:1,0.285,-0.13
00:45:09.720:1,0.28,-0.135
00:45:09.724:1,0.26,-0.15
00:45:09.728:1,0.215,-0.18
00:45:09.732:1,0.23,-0.205
00:45:09.736:1,0.245,-0.21
00:45:09.740:1,0.205,-0.21
00:45:09.744:1,0.215,-0.235
00:45:09.748:1,0.23,-0.255
00:45:09.752:1,0.24,-0.24
00:45:09.756:1,0.225,-0.265
00:45:09.760:1,0.215,-0.29
00:45:09.764:1,0.21,-0.295
00:45:09.768:1,0.165,-0.3
00:45:09.772:1,0.155,-0.29
00:45:09.776:1,0.14,-0.32
00:45:09.780:1,0.105,-0.32
00:45:09.784:1,0.09,-0.33
00:45:09.788:1,0.075,-0.32
00:45:09.792:1,0.075,-0.31
00:45:09.796:1,0.065,-0.26
00:45:09.800:1,0.06,-0.15
00:45:09.804:1,0.05,-0.03
00:45:09.808:1,0.09,0.09
00:45:09.812:1,0.15,0.235
00:45:09.816:1,0.235,0.365
00:45:09.820:1,0.18,0.465
00:45:09.824:1,-0.045,0.62
00:45:09.828:1,-0.52,0.8
00:45:09.832:1,-1.14,0.955
00:45:09.836:1,-1.72,1.12
00:45:09.840:1,-2.175,1.185
00:45:09.844:1,-2.46,1.185
00:45:09.848:1,-2.515,1.205
00:45:09.852:1,-2.39,1.22
00:45:09.856:1,-2.275,1.18
00:45:09.860:1,-2.18,1.115
00:45:09.864:1,-2.09,1.05
00:45:09.868:1,-1.94,1.065
00:45:09.872:1,-1.825,1.125
00:45:09.876:1,-1.72,1.085
00:45:09.880:1,-1.59,0.94
00:45:09.884:1,-1.435,0.58
00:45:09.888:1,-1.28,0.095
00:45:09.892:1,-1.165,-0.28
00:45:09.896:1,-1.09,-0.515
00:45:09.900:1,-0.95,-0.595
00:45:09.904:1,-0.82,-0.58
00:45:09.908:1,-0.665,-0.535
00:45:09.912:1,-0.455,-0.515
00:45:09.916:1,-0.26,-0.495
00:45:09.920:1,-0.055,-0.47
00:45:09.924:1,0.135,-0.5
00:45:09.928:1,0.3,-0.51
00:45:09.932:1,0.375,-0.5
00:45:09.936:1,0.425,-0.49
00:45:09.940:1,0.485,-0.505
00:45:09.944:1,0.485,-0.515
00:45:09.948:1,0.505,-0.52
00:45:09.952:1,0.495,-0.5
00:45:09.956:1,0.47,-0.51
00:45:09.960:1,0.445,-0.515
00:45:09.964:1,0.455,-0.495
00:45:09.968:1,0.48,-0.46
00:45:09.972:1,0.475,-0.48
00:45:09.976:1,0.475,-0.475
00:45:09.980:1,0.445,-0.47
00:45:09.984:1,0.455,-0.45
00:45:09.988:1,0.44,-0.44
00:45:09.992:1,0.47,-0.465
00:45:09.996:1,0.455,-0.46
00:45:10.000:1,0.475,-0.465
00:45:10.004:1,0.495,-0.47
00:45:10.008:1,0.515,-0.46
00:45:10.012:1,0.545,-0.48
00:45:10.016:1,0.555,-0.48
00:45:10.020:1,0.56,-0.48
00:45:10.024:1,0.6,-0.515
00:45:10.028:1,0.62,-0.52
00:45:10.032:1,0.63,-0.515
00:45:10.036:1,0.645,-0.535
00:45:10.040:1,0.685,-0.51
00:45:10.044:1,0.715,-0.535
00:45:10.048:1,0.725,-0.535
00:45:10.052:1,0.735,-0.545
00:45:10.056:1,0.775,-0.565
00:45:10.060:1,0.795,-0.545
00:45:10.064:1,0.805,-0.525
00:45:10.068:1,0.84,-0.52
00:45:10.072:1,0.865,-0.525
00:45:10.076:1,0.895,-0.525
00:45:10.080:1,0.915,-0.505
00:45:10.084:1,0.92,-0.48
00:45:10.088:1,0.925,-0.475
00:45:10.092:1,0.9,-0.44
00:45:10.096:1,0.875,-0.415
00:45:10.100:1,0.885,-0.37
00:45:10.104:1,0.845,-0.36
00:45:10.108:1,0.815,-0.34
00:45:10.112:1,0.785,-0.315
00:45:10.116:1,0.735,-0.285
00:45:10.120:1,0.695,-0.265
00:45:10.124:1,0.65,-0.255
00:45:10.128:1,0.61,-0.255
00:45:10.132:1,0.605,-0.245
00:45:10.136:1,0.53,-0.265
00:45:10.140:1,0.515,-0.29
00:45:10.144:1,0.47,-0.305
00:45:10.148:1,0.41,-0.275
00:45:10.152:1,0.325,-0.27
00:45:10.156:1,0.27,-0.28
00:45:10.160:1,0.22,-0.32
00:45:10.164:1,0.175,-0.31
00:45:10.168:1,0.13,-0.28
00:45:10.172:1,0.12,-0.295
00:45:10.176:1,0.085,-0.34
00:45:10.180:1,0.065,-0.335
00:45:10.184:1,0.06,-0.305
00:45:10.188:1,0.05,-0.35
00:45:10.192:1,0.025,-0.35
00:45:10.196:1,0.005,-0.36
00:45:10.200:1,0.0,-0.355
00:45:10.204:1,0.0,-0.37
00:45:10.208:1,0.0,-0.385
00:45:10.212:1,-0.015,-0.41
00:45:10.216:1,0.0,-0.365
00:45:10.220:1,0.0,-0.34
00:45:10.224:1,0.005,-0.355
00:45:10.228:1,-0.02,-0.345
00:45:10.232:1,0.015,-0.32
00:45:10.236:1,0.025,-0.34
00:45:10.240:1,0.04,-0.345
00:45:10.244:1,0.035,-0.33
00:45:10.248:1,0.04,-0.29
00:45:10.252:1,0.055,-0.28
00:45:10.256:1,0.045,-0.26
00:45:10.260:1,0.075,-0.255
00:45:10.264:1,0.08,-0.245
00:45:10.268:1,0.115,-0.225
00:45:10.272:1,0.12,-0.2
00:45:10.276:1,0.135,-0.21
00:45:10.280:1,0.12,-0.2
00:45:10.284:1,0.115,-0.195
00:45:10.288:1,0.145,-0.205
00:45:10.292:1,0.155,-0.185
00:45:10.296:1,0.15,-0.16
00:45:10.300:1,0.125,-0.17
00:45:10.304:1,0.14,-0.165
00:45:10.308:1,0.14,-0.175
00:45:10.312:1,0.11,-0.18
00:45:10.316:1,0.13,-0.155
00:45:10.320:1,0.15,-0.155
00:45:10.324:1,0.125,-0.17
00:45:10.328:1,0.11,-0.165
00:45:10.332:1,0.115,-0.155
00:45:10.336:1,0.13,-0.14
00:45:10.340:1,0.125,-0.125
00:45:10.344:1,0.13,-0.06
00:45:10.348:1,0.14,0.04
00:45:10.352:1,0.15,0.235
00:45:10.356:1,0.15,0.5
00:45:10.360:1,0.21,0.755
00:45:10.364:1,0.165,0.905
00:45:10.368:1,-0.045,1.04
00:45:10.372:1,-0.43,1.195
00:45:10.376:1,-1.015,1.36
00:45:10.380:1,-1.69,1.445
00:45:10.384:1,-2.25,1.485
00:45:10.388:1,-2.64,1.49
00:45:10.392:1,-2.815,1.465
00:45:10.396:1,-2.73,1.43
00:45:10.400:1,-2.59,1.39
00:45:10.404:1,-2.45,1.325
00:45:10.408:1,-2.34,1.265
00:45:10.412:1,-2.255,1.21
00:45:10.416:1,-2.055,1.215
00:45:10.420:1,-1.905,1.26
00:45:10.424:1,-1.805,1.24
00:45:10.428:1,-1.67,1.16
00:45:10.432:1,-1.53,0.89
00:45:10.436:1,-1.395,0.48
00:45:10.440:1,-1.29,0.045
00:45:10.444:1,-1.175,-0.26
00:45:10.448:1,-1.065,-0.435
00:45:10.452:1,-0.9,-0.52
00:45:10.456:1,-0.71,-0.545
00:45:10.460:1,-0.575,-0.53
00:45:10.464:1,-0.38,-0.51
00:45:10.468:1,-0.225,-0.495
00:45:10.472:1,-0.03,-0.465
00:45:10.476:1,0.145,-0.485
00:45:10.480:1,0.27,-0.475
00:45:10.484:1,0.37,-0.47
00:45:10.488:1,0.43,-0.475
00:45:10.492:1,0.44,-0.465
00:45:10.496:1,0.485,-0.46
00:45:10.500:1,0.47,-0.45
00:45:10.504:1,0.495,-0.45
00:45:10.508:1,0.525,-0.46
00:45:10.512:1,0.54,-0.465
00:45:10.516:1,0.54,-0.46
00:45:10.520:1,0.555,-0.445
00:45:10.524:1,0.625,-0.43
00:45:10.528:1,0.625,-0.46
00:45:10.532:1,0.63,-0.455
00:45:10.536:1,0.66,-0.455
00:45:10.540:1,0.705,-0.445
00:45:10.544:1,0.67,-0.44
00:45:10.548:1,0.65,-0.44
00:45:10.552:1,0.635,-0.44
00:45:10.556:1,0.64,-0.445
00:45:10.560:1,0.64,-0.445
00:45:10.564:1,0.63,-0.44
00:45:10.568:1,0.65,-0.46
00:45:10.572:1,0.655,-0.48
00:45:10.576:1,0.675,-0.51
00:45:10.580:1,0.68,-0.53
00:45:10.584:1,0.695,-0.525
00:45:10.588:1,0.72,-0.54
00:45:10.592:1,0.74,-0.565
00:45:10.596:1,0.745,-0.575
00:45:10.600:1,0.775,-0.55
00:45:10.604:1,0.795,-0.54
00:45:10.608:1,0.8,-0.545
00:45:10.612:1,0.83,-0.575
00:45:10.616:1,0.845,-0.6
00:45:10.620:1,0.91,-0.6
00:45:10.624:1,0.905,-0.585
00:45:10.628:1,0.93,-0.585
00:45:10.632:1,0.905,-0.545
00:45:10.636:1,0.93,-0.53
00:45:10.640:1,0.93,-0.54
00:45:10.644:1,0.935,-0.53
00:45:10.648:1,0.94,-0.495
00:45:10.652:1,0.925,-0.44
00:45:10.656:1,0.925,-0.41
00:45:10.660:1,0.89,-0.4
00:45:10.664:1,0.845,-0.345
00:45:10.668:1,0.825,-0.3
00:45:10.672:1,0.755,-0.265
00:45:10.676:1,0.735,-0.225
00:45:10.680:1,0.685,-0.22
00:45:10.684:1,0.66,-0.18
00:45:10.688:1,0.63,-0.155
00:45:10.692:1,0.585,-0.16
00:45:10.696:1,0.54,-0.15
00:45:10.700:1,0.485,-0.165
00:45:10.704:1,0.435,-0.17
00:45:10.708:1,0.395,-0.185
00:45:10.712:1,0.355,-0.195
00:45:10.716:1,0.315,-0.21
00:45:10.720:1,0.29,-0.2
00:45:10.724:1,0.26,-0.22
00:45:10.728:1,0.235,-0.23
00:45:10.732:1,0.225,-0.25
00:45:10.736:1,0.2,-0.25
00:45:10.740:1,0.14,-0.255
00:45:10.744:1,0.085,-0.265
00:45:10.748:1,0.055,-0.29
00:45:10.752:1,0.04,-0.29
00:45:10.756:1,0.005,-0.3
00:45:10.760:1,0.015,-0.325
00:45:10.764:1,-0.015,-0.355
00:45:10.768:1,-0.045,-0.345
00:45:10.772:1,-0.02,-0.375
00:45:10.776:1,-0.035,-0.41
00:45:10.780:1,-0.05,-0.395
00:45:10.784:1,-0.055,-0.41
00:45:10.788:1,-0.06,-0.385
00:45:10.792:1,-0.04,-0.37
00:45:10.796:1,-0.015,-0.36
00:45:10.800:1,-0.01,-0.385
00:45:10.804:1,0.0,-0.4
00:45:10.808:1,0.005,-0.405
00:45:10.812:1,0.0,-0.39
00:45:10.816:1,-0.005,-0.36
00:45:10.820:1,-0.005,-0.335
00:45:10.824:1,-0.035,-0.345
00:45:10.828:1,0.005,-0.345
00:45:10.832:1,0.03,-0.34
00:45:10.836:1,0.045,-0.325
00:45:10.840:1,0.045,-0.33
00:45:10.844:1,0.035,-0.32
00:45:10.848:1,0.045,-0.3
00:45:10.852:1,0.035,-0.305
00:45:10.856:1,0.055,-0.305
00:45:10.860:1,0.04,-0.285
00:45:10.864:1,0.055,-0.305
00:45:10.868:1,0.035,-0.305
00:45:10.872:1,0.04,-0.3
00:45:10.876:1,0.04,-0.275
00:45:10.880:1,0.03,-0.285
00:45:10.884:1,0.035,-0.28
00:45:10.888:1,0.06,-0.305
00:45:10.892:1,0.045,-0.32
00:45:10.896:1,0.035,-0.31
00:45:10.900:1,0.025,-0.295
00:45:10.904:1,0.04,-0.325
00:45:10.908:1,0.06,-0.315
00:45:10.912:1,0.055,-0.32
00:45:10.916:1,0.065,-0.32
00:45:10.920:1,0.065,-0.31
00:45:10.924:1,0.055,-0.31
00:45:10.928:1,0.01,-0.33
00:45:10.932:1,-0.005,-0.315
00:45:10.936:1,-0.025,-0.32
00:45:10.940:1,-0.015,-0.32
00:45:10.944:1,-0.055,-0.335
00:45:10.948:1,-0.07,-0.32
00:45:10.952:1,-0.1,-0.3
00:45:10.956:1,-0.095,-0.315
00:45:10.960:1,-0.095,-0.26
00:45:10.964:1,-0.09,-0.18
00:45:10.968:1,-0.125,0.0
00:45:10.972:1,-0.085,0.265
00:45:10.976:1,-0.025,0.545
00:45:10.980:1,-0.015,0.74
00:45:10.984:1,-0.155,0.885
00:45:10.988:1,-0.43,1.015
00:45:10.992:1,-0.94,1.165
00:45:10.996:1,-1.53,1.31
00:45:11.000:1,-2.06,1.345
00:45:11.004:1,-2.5,1.345
00:45:11.008:1,-2.745,1.37
00:45:11.012:1,-2.745,1.33
00:45:11.016:1,-2.605,1.295
00:45:11.020:1,-2.475,1.26
00:45:11.024:1,-2.375,1.18
00:45:11.028:1,-2.215,1.15
00:45:11.032:1,-2.035,1.17
00:45:11.036:1,-1.88,1.22
00:45:11.040:1,-1.745,1.295
00:45:11.044:1,-1.64,1.245
00:45:11.048:1,-1.495,0.95
00:45:11.052:1,-1.345,0.485
00:45:11.056:1,-1.24,0.045
00:45:11.060:1,-1.13,-0.265
00:45:11.064:1,-0.995,-0.465
00:45:11.068:1,-0.83,-0.56
00:45:11.072:1,-0.69,-0.57
00:45:11.076:1,-0.56,-0.57
00:45:11.080:1,-0.395,-0.545
00:45:11.084:1,-0.195,-0.55
00:45:11.088:1,-0.02,-0.525
00:45:11.092:1,0.14,-0.52
00:45:11.096:1,0.265,-0.545
00:45:11.100:1,0.37,-0.52
00:45:11.104:1,0.395,-0.53
00:45:11.108:1,0.42,-0.525
00:45:11.112:1,0.47,-0.52
00:45:11.116:1,0.48,-0.54
00:45:11.120:1,0.475,-0.51
00:45:11.124:1,0.465,-0.525
00:45:11.128:1,0.43,-0.545
00:45:11.132:1,0.445,-0.555
00:45:11.136:1,0.43,-0.55
00:45:11.140:1,0.46,-0.55
00:45:11.144:1,0.435,-0.545
00:45:11.148:1,0.405,-0.56
00:45:11.152:1,0.415,-0.55
00:45:11.156:1,0.42,-0.56
00:45:11.160:1,0.415,-0.55
00:45:11.164:1,0.43,-0.56
00:45:11.168:1,0.43,-0.55
00:45:11.172:1,0.45,-0.55
00:45:11.176:1,0.45,-0.545
00:45:11.180:1,0.485,-0.495
00:45:11.184:1,0.49,-0.52
00:45:11.188:1,0.52,-0.51
00:45:11.192:1,0.55,-0.525
00:45:11.196:1,0.565,-0.53
00:45:11.200:1,0.595,-0.52
00:45:11.204:1,0.625,-0.505
00:45:11.208:1,0.645,-0.505
00:45:11.212:1,0.665,-0.53
00:45:11.216:1,0.71,-0.52
00:45:11.220:1,0.785,-0.52
00:45:11.224:1,0.795,-0.54
00:45:11.228:1,0.815,-0.52
00:45:11.232:1,0.84,-0.52
00:45:11.236:1,0.865,-0.495
00:45:11.240:1,0.9,-0.485
00:45:11.244:1,0.905,-0.45
00:45:11.248:1,0.9,-0.46
00:45:11.252:1,0.925,-0.445
00:45:11.256:1,0.905,-0.435
00:45:11.260:1,0.895,-0.42
00:45:11.264:1,0.91,-0.385
00:45:11.268:1,0.9,-0.345
00:45:11.272:1,0.875,-0.31
00:45:11.276:1,0.84,-0.27
00:45:11.280:1,0.815,-0.24
00:45:11.284:1,0.785,-0.215
00:45:11.288:1,0.76,-0.16
00:45:11.292:1,0.73,-0.16
00:45:11.296:1,0.715,-0.15
00:45:11.300:1,0.675,-0.13
00:45:11.304:1,0.655,-0.12
00:45:11.308:1,0.585,-0.12
00:45:11.312:1,0.515,-0.125
00:45:11.316:1,0.435,-0.125
00:45:11.320:1,0.36,-0.135
00:45:11.324:1,0.325,-0.17
00:45:11.328:1,0.295,-0.19
00:45:11.332:1,0.24,-0.24
00:45:11.336:1,0.235,-0.245
00:45:11.340:1,0.21,-0.295
00:45:11.344:1,0.135,-0.3
00:45:11.348:1,0.13,-0.31
00:45:11.352:1,0.105,-0.315
00:45:11.356:1,0.115,-0.345
00:45:11.360:1,0.105,-0.315
00:45:11.364:1,0.09,-0.335
00:45:11.368:1,0.085,-0.335
00:45:11.372:1,0.1,-0.32
00:45:11.376:1,0.075,-0.33
00:45:11.380:1,0.095,-0.325
00:45:11.384:1,0.09,-0.315
00:45:11.388:1,0.09,-0.305
00:45:11.392:1,0.095,-0.255
00:45:11.396:1,0.095,-0.27
00:45:11.400:1,0.1,-0.275
00:45:11.404:1,0.14,-0.265
00:45:11.408:1,0.15,-0.265
00:45:11.412:1,0.145,-0.275
00:45:11.416:1,0.16,-0.265
00:45:11.420:1,0.15,-0.265
00:45:11.424:1,0.165,-0.275
00:45:11.428:1,0.145,-0.26
00:45:11.432:1,0.17,-0.235
00:45:11.436:1,0.16,-0.255
00:45:11.440:1,0.15,-0.27
00:45:11.444:1,0.13,-0.27
00:45:11.448:1,0.135,-0.28
00:45:11.452:1,0.125,-0.27
00:45:11.456:1,0.095,-0.26
00:45:11.460:1,0.105,-0.265
00:45:11.464:1,0.095,-0.26
00:45:11.468:1,0.115,-0.24
00:45:11.472:1,0.095,-0.26
00:45:11.476:1,0.11,-0.265
00:45:11.480:1,0.14,-0.25
00:45:11.484:1,0.135,-0.225
00:45:11.488:1,0.145,-0.22
00:45:11.492:1,0.105,-0.24
00:45:11.496:1,0.075,-0.23
00:45:11.500:1,0.075,-0.245
00:45:11.504:1,0.05,-0.26
00:45:11.508:1,0.035,-0.255
00:45:11.512:1,0.015,-0.235
00:45:11.516:1,0.01,-0.27
00:45:11.520:1,-0.02,-0.285
00:45:11.524:1,-0.005,-0.315
00:45:11.528:1,-0.01,-0.325
00:45:11.532:1,-0.01,-0.315
00:45:11.536:1,-0.01,-0.345
00:45:11.540:1,-0.005,-0.34
00:45:11.544:1,0.005,-0.32
00:45:11.548:1,0.005,-0.28
00:45:11.552:1,-0.01,-0.315
00:45:11.556:1,-0.01,-0.3
00:45:11.560:1,-0.015,-0.305
00:45:11.564:1,-0.01,-0.295
00:45:11.568:1,-0.01,-0.23
00:45:11.572:1,-0.01,-0.075
00:45:11.576:1,-0.025,0.11
00:45:11.580:1,0.005,0.38
00:45:11.584:1,0.08,0.65
00:45:11.588:1,0.175,0.86
00:45:11.592:1,0.125,1.03
00:45:11.596:1,-0.155,1.22
00:45:11.600:1,-0.69,1.425
00:45:11.604:1,-1.325,1.585
00:45:11.608:1,-1.865,1.68
00:45:11.612:1,-2.34,1.74
00:45:11.616:1,-2.58,1.735
00:45:11.620:1,-2.57,1.685
00:45:11.624:1,-2.42,1.64
00:45:11.628:1,-2.235,1.6
00:45:11.632:1,-2.145,1.475
00:45:11.636:1,-2.04,1.385
00:45:11.640:1,-1.855,1.35
00:45:11.644:1,-1.715,1.38
00:45:11.648:1,-1.615,1.375
00:45:11.652:1,-1.5,1.28
00:45:11.656:1,-1.35,0.96
00:45:11.660:1,-1.245,0.49
00:45:11.664:1,-1.135,0.08
00:45:11.668:1,-1.05,-0.25
00:45:11.672:1,-0.91,-0.435
00:45:11.676:1,-0.775,-0.51
00:45:11.680:1,-0.67,-0.525
00:45:11.684:1,-0.53,-0.525
00:45:11.688:1,-0.37,-0.535
00:45:11.692:1,-0.2,-0.52
00:45:11.696:1,-0.06,-0.525
00:45:11.700:1,0.095,-0.555
00:45:11.704:1,0.175,-0.615
00:45:11.708:1,0.235,-0.605
00:45:11.712:1,0.265,-0.615
00:45:11.716:1,0.28,-0.625
00:45:11.720:1,0.29,-0.615
00:45:11.724:1,0.31,-0.6
00:45:11.728:1,0.325,-0.585
00:45:11.732:1,0.31,-0.565
00:45:11.736:1,0.325,-0.575
00:45:11.740:1,0.355,-0.545
00:45:11.744:1,0.395,-0.555
00:45:11.748:1,0.42,-0.595
00:45:11.752:1,0.445,-0.57
00:45:11.756:1,0.47,-0.535
00:45:11.760:1,0.48,-0.5
00:45:11.764:1,0.49,-0.475
00:45:11.768:1,0.54,-0.47
00:45:11.772:1,0.575,-0.455
00:45:11.776:1,0.61,-0.45
00:45:11.780:1,0.635,-0.445
00:45:11.784:1,0.665,-0.46
00:45:11.788:1,0.68,-0.45
00:45:11.792:1,0.74,-0.425
00:45:11.796:1,0.745,-0.455
00:45:11.800:1,0.795,-0.45
00:45:11.804:1,0.785,-0.455
00:45:11.808:1,0.845,-0.46
00:45:11.812:1,0.86,-0.455
00:45:11.816:1,0.905,-0.47
00:45:11.820:1,0.945,-0.46
00:45:11.824:1,0.94,-0.46
00:45:11.828:1,0.955,-0.505
00:45:11.832:1,0.995,-0.52
00:45:11.836:1,1.02,-0.5
00:45:11.840:1,1.055,-0.48
00:45:11.844:1,1.075,-0.475
00:45:11.848:1,1.085,-0.505
00:45:11.852:1,1.065,-0.51
00:45:11.856:1,1.095,-0.5
00:45:11.860:1,1.095,-0.48
00:45:11.864:1,1.07,-0.465
00:45:11.868:1,1.06,-0.445
00:45:11.872:1,1.015,-0.42
00:45:11.876:1,0.95,-0.43
00:45:11.880:1,0.88,-0.395
00:45:11.884:1,0.815,-0.35
00:45:11.888:1,0.77,-0.345
00:45:11.892:1,0.73,-0.36
00:45:11.896:1,0.66,-0.345
00:45:11.900:1,0.61,-0.31
00:45:11.904:1,0.55,-0.31
00:45:11.908:1,0.48,-0.32
00:45:11.912:1,0.46,-0.3
00:45:11.916:1,0.39,-0.275
00:45:11.920:1,0.365,-0.27
00:45:11.924:1,0.315,-0.27
00:45:11.928:1,0.285,-0.275
00:45:11.932:1,0.255,-0.295
00:45:11.936:1,0.215,-0.31
00:45:11.940:1,0.215,-0.285
00:45:11.944:1,0.2,-0.275
00:45:11.948:1,0.19,-0.23
00:45:11.952:1,0.145,-0.225
00:45:11.956:1,0.165,-0.22
00:45:11.960:1,0.205,-0.25
00:45:11.964:1,0.215,-0.22
00:45:11.968:1,0.21,-0.22
00:45:11.972:1,0.22,-0.235
00:45:11.976:1,0.235,-0.24
00:45:11.980:1,0.25,-0.235
00:45:11.984:1,0.25,-0.21
00:45:11.988:1,0.255,-0.24
00:45:11.992:1,0.27,-0.25
00:45:11.996:1,0.26,-0.275
00:45:12.000:1,0.305,-0.265
00:45:12.004:1,0.295,-0.275
00:45:12.008:1,0.29,-0.285
00:45:12.012:1,0.255,-0.215
00:45:12.016:1,0.285,-0.095
00:45:12.020:1,0.265,0.025
00:45:12.024:1,0.285,0.21
00:45:12.028:1,0.365,0.435
00:45:12.032:1,0.42,0.59
00:45:12.036:1,0.37,0.69
00:45:12.040:1,0.12,0.825
00:45:12.044:1,-0.345,1.005
00:45:12.048:1,-1.045,1.18
00:45:12.052:1,-1.655,1.26
00:45:12.056:1,-2.18,1.285
00:45:12.060:1,-2.45,1.295
00:45:12.064:1,-2.445,1.265
00:45:12.068:1,-2.305,1.225
00:45:12.072:1,-2.19,1.15
00:45:12.076:1,-2.08,1.06
00:45:12.080:1,-1.985,1.0
00:45:12.084:1,-1.815,0.98
00:45:12.088:1,-1.715,0.975
00:45:12.092:1,-1.6,0.94
00:45:12.096:1,-1.475,0.705
00:45:12.100:1,-1.36,0.265
00:45:12.104:1,-1.25,-0.205
00:45:12.108:1,-1.165,-0.5
00:45:12.112:1,-1.045,-0.67
00:45:12.116:1,-0.92,-0.775
00:45:12.120:1,-0.77,-0.765
00:45:12.124:1,-0.57,-0.705
00:45:12.128:1,-0.365,-0.665
00:45:12.132:1,-0.21,-0.62
00:45:12.136:1,-0.03,-0.625
00:45:12.140:1,0.195,-0.63
00:45:12.144:1,0.325,-0.59
00:45:12.148:1,0.405,-0.6
00:45:12.152:1,0.45,-0.61
00:45:12.156:1,0.465,-0.62
00:45:12.160:1,0.52,-0.555
00:45:12.164:1,0.555,-0.55
00:45:12.168:1,0.565,-0.555
00:45:12.172:1,0.58,-0.525
00:45:12.176:1,0.595,-0.515
00:45:12.180:1,0.63,-0.5
00:45:12.184:1,0.635,-0.515
00:45:12.188:1,0.675,-0.49
00:45:12.192:1,0.675,-0.46
00:45:12.196:1,0.675,-0.49
00:45:12.200:1,0.705,-0.495
00:45:12.204:1,0.71,-0.485
00:45:12.208:1,0.74,-0.48
00:45:12.212:1,0.725,-0.485
00:45:12.216:1,0.745,-0.48
00:45:12.220:1,0.785,-0.48
00:45:12.224:1,0.835,-0.475
00:45:12.228:1,0.815,-0.49
00:45:12.232:1,0.83,-0.5
00:45:12.236:1,0.84,-0.54
00:45:12.240:1,0.83,-0.525
00:45:12.244:1,0.81,-0.54
00:45:12.248:1,0.81,-0.55
00:45:12.252:1,0.82,-0.545
00:45:12.256:1,0.825,-0.57
00:45:12.260:1,0.83,-0.605
00:45:12.264:1,0.845,-0.62
00:45:12.268:1,0.86,-0.64
00:45:12.272:1,0.875,-0.635
00:45:12.276:1,0.88,-0.64
00:45:12.280:1,0.875,-0.675
00:45:12.284:1,0.895,-0.66
00:45:12.288:1,0.9,-0.63
00:45:12.292:1,0.9,-0.6
00:45:12.296:1,0.885,-0.585
00:45:12.300:1,0.86,-0.545
00:45:12.304:1,0.86,-0.55
00:45:12.308:1,0.855,-0.525
00:45:12.312:1,0.84,-0.51
00:45:12.316:1,0.805,-0.435
00:45:12.320:1,0.77,-0.345
00:45:12.324:1,0.71,-0.325
00:45:12.328:1,0.645,-0.31
00:45:12.332:1,0.635,-0.275
00:45:12.336:1,0.625,-0.255
00:45:12.340:1,0.595,-0.27
00:45:12.344:1,0.545,-0.255
00:45:12.348:1,0.515,-0.24
00:45:12.352:1,0.485,-0.25
00:45:12.356:1,0.465,-0.265
00:45:12.360:1,0.41,-0.23
00:45:12.364:1,0.39,-0.26
00:45:12.368:1,0.37,-0.245
00:45:12.372:1,0.36,-0.26
00:45:12.376:1,0.345,-0.265
00:45:12.380:1,0.36,-0.235
00:45:12.384:1,0.32,-0.24
00:45:12.388:1,0.31,-0.23
00:45:12.392:1,0.325,-0.23
00:45:12.396:1,0.35,-0.225
00:45:12.400:1,0.355,-0.22
00:45:12.404:1,0.365,-0.245
00:45:12.408:1,0.36,-0.25
00:45:12.412:1,0.375,-0.235
00:45:12.416:1,0.34,-0.24
00:45:12.420:1,0.305,-0.28
00:45:12.424:1,0.29,-0.295
00:45:12.428:1,0.235,-0.285
00:45:12.432:1,0.24,-0.285
00:45:12.436:1,0.22,-0.285
00:45:12.440:1,0.195,-0.31
00:45:12.444:1,0.19,-0.26
00:45:12.448:1,0.19,-0.18
00:45:12.452:1,0.18,-0.09
00:45:12.456:1,0.16,0.09
00:45:12.460:1,0.21,0.295
00:45:12.464:1,0.29,0.535
00:45:12.468:1,0.325,0.715
00:45:12.472:1,0.19,0.91
00:45:12.476:1,-0.23,1.095
00:45:12.480:1,-0.87,1.25
00:45:12.484:1,-1.52,1.35
00:45:12.488:1,-2.055,1.425
00:45:12.492:1,-2.445,1.465
00:45:12.496:1,-2.545,1.47
00:45:12.500:1,-2.44,1.425
00:45:12.504:1,-2.295,1.4
00:45:12.508:1,-2.16,1.375
00:45:12.512:1,-2.065,1.325
00:45:12.516:1,-1.91,1.29
00:45:12.520:1,-1.765,1.295
00:45:12.524:1,-1.62,1.315
00:45:12.528:1,-1.48,1.29
00:45:12.532:1,-1.325,1.09
00:45:12.536:1,-1.205,0.66
00:45:12.540:1,-1.095,0.15
00:45:12.544:1,-0.995,-0.215
00:45:12.548:1,-0.875,-0.455
00:45:12.552:1,-0.765,-0.585
00:45:12.556:1,-0.615,-0.57
00:45:12.560:1,-0.445,-0.555
00:45:12.564:1,-0.27,-0.545
00:45:12.568:1,-0.07,-0.525
00:45:12.572:1,0.14,-0.48
00:45:12.576:1,0.32,-0.51
00:45:12.580:1,0.455,-0.52
00:45:12.584:1,0.5,-0.55
00:45:12.588:1,0.55,-0.54
00:45:12.592:1,0.61,-0.53
00:45:12.596:1,0.63,-0.55
00:45:12.600:1,0.605,-0.555
00:45:12.604:1,0.6,-0.55
00:45:12.608:1,0.58,-0.52
00:45:12.612:1,0.57,-0.53
00:45:12.616:1,0.57,-0.55
00:45:12.620:1,0.59,-0.515
00:45:12.624:1,0.585,-0.52
00:45:12.628:1,0.595,-0.525
00:45:12.632:1,0.59,-0.545
00:45:12.636:1,0.625,-0.52
00:45:12.640:1,0.63,-0.495
00:45:12.644:1,0.675,-0.495
00:45:12.648:1,0.67,-0.47
00:45:12.652:1,0.69,-0.49
00:45:12.656:1,0.72,-0.475
00:45:12.660:1,0.77,-0.485
00:45:12.664:1,0.79,-0.505
00:45:12.668:1,0.815,-0.51
00:45:12.672:1,0.875,-0.525
00:45:12.676:1,0.93,-0.53
00:45:12.680:1,0.93,-0.52
00:45:12.684:1,0.97,-0.505
00:45:12.688:1,0.965,-0.495
00:45:12.692:1,1.02,-0.52
00:45:12.696:1,1.02,-0.52
00:45:12.700:1,1.07,-0.51
00:45:12.704:1,1.09,-0.49
00:45:12.708:1,1.095,-0.475
00:45:12.712:1,1.13,-0.495
00:45:12.716:1,1.155,-0.49
00:45:12.720:1,1.185,-0.435
00:45:12.724:1,1.195,-0.465
00:45:12.728:1,1.195,-0.42
00:45:12.732:1,1.19,-0.36
00:45:12.736:1,1.18,-0.355
00:45:12.740:1,1.16,-0.32
00:45:12.744:1,1.135,-0.3
00:45:12.748:1,1.12,-0.27
00:45:12.752:1,1.085,-0.23
00:45:12.756:1,1.005,-0.2
00:45:12.760:1,0.99,-0.175
00:45:12.764:1,0.955,-0.155
00:45:12.768:1,0.895,-0.14
00:45:12.772:1,0.87,-0.15
00:45:12.776:1,0.835,-0.175
00:45:12.780:1,0.795,-0.175
00:45:12.784:1,0.73,-0.195
00:45:12.788:1,0.685,-0.225
00:45:12.792:1,0.605,-0.235
00:45:12.796:1,0.525,-0.245
00:45:12.800:1,0.44,-0.29
00:45:12.804:1,0.415,-0.29
00:45:12.808:1,0.365,-0.32
00:45:12.812:1,0.35,-0.345
00:45:12.816:1,0.305,-0.345
00:45:12.820:1,0.25,-0.35
00:45:12.824:1,0.22,-0.375
00:45:12.828:1,0.195,-0.38
00:45:12.832:1,0.2,-0.375
00:45:12.836:1,0.21,-0.395
00:45:12.840:1,0.225,-0.41
00:45:12.844:1,0.23,-0.415
00:45:12.848:1,0.23,-0.435
00:45:12.852:1,0.235,-0.45
00:45:12.856:1,0.255,-0.455
00:45:12.860:1,0.26,-0.475
00:45:12.864:1,0.275,-0.46
00:45:12.868:1,0.295,-0.42
00:45:12.872:1,0.275,-0.425
00:45:12.876:1,0.295,-0.41
00:45:12.880:1,0.29,-0.395
00:45:12.884:1,0.31,-0.41
00:45:12.888:1,0.335,-0.41
00:45:12.892:1,0.355,-0.375
00:45:12.896:1,0.335,-0.35
00:45:12.900:1,0.33,-0.345
00:45:12.904:1,0.33,-0.36
00:45:12.908:1,0.36,-0.34
00:45:12.912:1,0.365,-0.355
00:45:12.916:1,0.395,-0.355
00:45:12.920:1,0.38,-0.345
00:45:12.924:1,0.36,-0.31
00:45:12.928:1,0.36,-0.305
00:45:12.932:1,0.365,-0.315
00:45:12.936:1,0.375,-0.315
00:45:12.940:1,0.38,-0.3
00:45:12.944:1,0.35,-0.295
00:45:12.948:1,0.385,-0.31
00:45:12.952:1,0.36,-0.305
00:45:12.956:1,0.325,-0.305
00:45:12.960:1,0.36,-0.295
00:45:12.964:1,0.395,-0.31
00:45:12.968:1,0.38,-0.315
00:45:12.972:1,0.39,-0.33
00:45:12.976:1,0.4,-0.31
00:45:12.980:1,0.37,-0.315
00:45:12.984:1,0.355,-0.3
00:45:12.988:1,0.31,-0.27
00:45:12.992:1,0.255,-0.19
00:45:12.996:1,0.25,-0.045
00:45:13.000:1,0.25,0.18
00:45:13.004:1,0.295,0.47
00:45:13.008:1,0.355,0.675
00:45:13.012:1,0.285,0.81
00:45:13.016:1,0.005,0.935
00:45:13.020:1,-0.53,1.135
00:45:13.024:1,-1.23,1.28
00:45:13.028:1,-1.87,1.36
00:45:13.032:1,-2.345,1.375
00:45:13.036:1,-2.63,1.35
00:45:13.040:1,-2.61,1.34
00:45:13.044:1,-2.47,1.27
00:45:13.048:1,-2.27,1.23
00:45:13.052:1,-2.175,1.16
00:45:13.056:1,-2.075,1.1
00:45:13.060:1,-1.885,1.125
00:45:13.064:1,-1.71,1.145
00:45:13.068:1,-1.61,1.155
00:45:13.072:1,-1.475,1.105
00:45:13.076:1,-1.325,0.905
00:45:13.080:1,-1.18,0.455
00:45:13.084:1,-1.075,-0.005
00:45:13.088:1,-0.995,-0.345
00:45:13.092:1,-0.83,-0.54
00:45:13.096:1,-0.655,-0.625
00:45:13.100:1,-0.495,-0.605
00:45:13.104:1,-0.32,-0.605
00:45:13.108:1,-0.115,-0.605
00:45:13.112:1,0.095,-0.575
00:45:13.116:1,0.26,-0.55
00:45:13.120:1,0.43,-0.535
00:45:13.124:1,0.545,-0.54
00:45:13.128:1,0.6,-0.53
00:45:13.132:1,0.62,-0.57
00:45:13.136:1,0.66,-0.56
00:45:13.140:1,0.69,-0.56
00:45:13.144:1,0.715,-0.56
00:45:13.148:1,0.705,-0.565
00:45:13.152:1,0.735,-0.545
00:45:13.156:1,0.75,-0.53
00:45:13.160:1,0.77,-0.505
00:45:13.164:1,0.775,-0.52
00:45:13.168:1,0.8,-0.5
00:45:13.172:1,0.815,-0.515
00:45:13.176:1,0.845,-0.505
00:45:13.180:1,0.86,-0.51
00:45:13.184:1,0.84,-0.535
00:45:13.188:1,0.82,-0.52
00:45:13.192:1,0.805,-0.535
00:45:13.196:1,0.795,-0.55
00:45:13.200:1,0.795,-0.56
00:45:13.204:1,0.815,-0.575
00:45:13.208:1,0.815,-0.595
00:45:13.212:1,0.82,-0.59
00:45:13.216:1,0.82,-0.605
00:45:13.220:1,0.84,-0.605
00:45:13.224:1,0.835,-0.61
00:45:13.228:1,0.87,-0.64
00:45:13.232:1,0.875,-0.64
00:45:13.236:1,0.905,-0.635
00:45:13.240:1,0.955,-0.645
00:45:13.244:1,0.965,-0.665
00:45:13.248:1,0.98,-0.665
00:45:13.252:1,1.015,-0.63
00:45:13.256:1,1.035,-0.63
00:45:13.260:1,1.04,-0.65
00:45:13.264:1,1.08,-0.645
00:45:13.268:1,1.1,-0.64
00:45:13.272:1,1.11,-0.595
00:45:13.276:1,1.08,-0.555
00:45:13.280:1,1.08,-0.53
00:45:13.284:1,1.07,-0.505
00:45:13.288:1,1.065,-0.46
00:45:13.292:1,1.055,-0.415
00:45:13.296:1,1.045,-0.385
00:45:13.300:1,1.0,-0.345
00:45:13.304:1,0.97,-0.285
00:45:13.308:1,0.94,-0.265
00:45:13.312:1,0.89,-0.25
00:45:13.316:1,0.85,-0.23
00:45:13.320:1,0.805,-0.21
00:45:13.324:1,0.77,-0.185
00:45:13.328:1,0.735,-0.21
00:45:13.332:1,0.685,-0.22
00:45:13.336:1,0.645,-0.23
00:45:13.340:1,0.595,-0.215
00:45:13.344:1,0.605,-0.24
00:45:13.348:1,0.56,-0.225
00:45:13.352:1,0.53,-0.235
00:45:13.356:1,0.515,-0.25
00:45:13.360:1,0.505,-0.29
00:45:13.364:1,0.48,-0.3
00:45:13.368:1,0.5,-0.305
00:45:13.372:1,0.47,-0.325
00:45:13.376:1,0.44,-0.345
00:45:13.380:1,0.425,-0.375
00:45:13.384:1,0.4,-0.36
00:45:13.388:1,0.36,-0.365
00:45:13.392:1,0.335,-0.4
00:45:13.396:1,0.305,-0.415
00:45:13.400:1,0.3,-0.4
00:45:13.404:1,0.305,-0.39
00:45:13.408:1,0.3,-0.415
00:45:13.412:1,0.28,-0.46
00:45:13.416:1,0.265,-0.445
00:45:13.420:1,0.25,-0.445
00:45:13.424:1,0.235,-0.44
00:45:13.428:1,0.23,-0.445
00:45:13.432:1,0.215,-0.43
00:45:13.436:1,0.235,-0.45
00:45:13.440:1,0.255,-0.445
00:45:13.444:1,0.26,-0.465
00:45:13.448:1,0.26,-0.42
00:45:13.452:1,0.285,-0.4
00:45:13.456:1,0.275,-0.405
00:45:13.460:1,0.255,-0.435
00:45:13.464:1,0.285,-0.42
00:45:13.468:1,0.285,-0.395
00:45:13.472:1,0.295,-0.375
00:45:13.476:1,0.27,-0.365
00:45:13.480:1,0.25,-0.34
00:45:13.484:1,0.26,-0.355
00:45:13.488:1,0.295,-0.325
00:45:13.492:1,0.31,-0.355
00:45:13.496:1,0.29,-0.325
00:45:13.500:1,0.285,-0.315
00:45:13.504:1,0.305,-0.335
00:45:13.508:1,0.315,-0.345
00:45:13.512:1,0.31,-0.33
00:45:13.516:1,0.325,-0.32
00:45:13.520:1,0.295,-0.31
00:45:13.524:1,0.305,-0.35
00:45:13.528:1,0.325,-0.33
00:45:13.532:1,0.31,-0.32
00:45:13.536:1,0.32,-0.35
00:45:13.540:1,0.31,-0.36
00:45:13.544:1,0.33,-0.365
00:45:13.548:1,0.35,-0.36
00:45:13.552:1,0.37,-0.365
00:45:13.556:1,0.355,-0.36
00:45:13.560:1,0.345,-0.365
00:45:13.564:1,0.31,-0.35
00:45:13.568:1,0.285,-0.345
00:45:13.572:1,0.23,-0.37
00:45:13.576:1,0.23,-0.375
00:45:13.580:1,0.23,-0.375
00:45:13.584:1,0.2,-0.39
00:45:13.588:1,0.185,-0.41
00:45:13.592:1,0.215,-0.4
00:45:13.596:1,0.185,-0.42
00:45:13.600:1,0.185,-0.425
00:45:13.604:1,0.17,-0.455
00:45:13.608:1,0.17,-0.415
00:45:13.612:1,0.17,-0.395
00:45:13.616:1,0.18,-0.4
00:45:13.620:1,0.15,-0.425
00:45:13.624:1,0.16,-0.42
00:45:13.628:1,0.165,-0.435
00:45:13.632:1,0.17,-0.405
00:45:13.636:1,0.175,-0.405
00:45:13.640:1,0.185,-0.38
00:45:13.644:1,0.19,-0.355
00:45:13.648:1,0.195,-0.38
00:45:13.652:1,0.19,-0.385
00:45:13.656:1,0.21,-0.375
00:45:13.660:1,0.2,-0.36
00:45:13.664:1,0.215,-0.325
00:45:13.668:1,0.205,-0.32
00:45:13.672:1,0.22,-0.305
00:45:13.676:1,0.185,-0.305
00:45:13.680:1,0.215,-0.305
00:45:13.684:1,0.24,-0.295
00:45:13.688:1,0.265,-0.305
00:45:13.692:1,0.275,-0.29
00:45:13.696:1,0.26,-0.28
00:45:13.700:1,0.265,-0.3
00:45:13.704:1,0.235,-0.31
00:45:13.708:1,0.255,-0.32
00:45:13.712:1,0.24,-0.305
00:45:13.716:1,0.25,-0.31
00:45:13.720:1,0.22,-0.315
00:45:13.724:1,0.24,-0.3
00:45:13.728:1,0.225,-0.31
00:45:13.732:1,0.21,-0.33
00:45:13.736:1,0.22,-0.315
00:45:13.740:1,0.19,-0.31
00:45:13.744:1,0.22,-0.31
00:45:13.748:1,0.23,-0.32
00:45:13.752:1,0.23,-0.335
00:45:13.756:1,0.21,-0.325
00:45:13.760:1,0.19,-0.325
00:45:13.764:1,0.12,-0.375
00:45:13.768:1,0.1,-0.375
00:45:13.772:1,0.09,-0.35
00:45:13.776:1,0.09,-0.375
00:45:13.780:1,0.05,-0.395
00:45:13.784:1,0.04,-0.405
00:45:13.788:1,0.0,-0.42
00:45:13.792:1,0.01,-0.415
00:45:13.796:1,0.0,-0.435
00:45:13.800:1,0.0,-0.435
00:45:13.804:1,-0.005,-0.415
00:45:13.808:1,-0.005,-0.4
00:45:13.812:1,-0.015,-0.43
00:45:13.816:1,0.0,-0.47
00:45:13.820:1,-0.01,-0.45
00:45:13.824:1,-0.005,-0.41
00:45:13.828:1,0.025,-0.445
00:45:13.832:1,0.005,-0.44
00:45:13.836:1,0.0,-0.385
00:45:13.840:1,0.035,-0.35
00:45:13.844:1,0.02,-0.37
00:45:13.848:1,0.005,-0.38
00:45:13.852:1,0.035,-0.39
00:45:13.856:1,0.07,-0.33
00:45:13.860:1,0.08,-0.295
00:45:13.864:1,0.075,-0.29
00:45:13.868:1,0.045,-0.27
00:45:13.872:1,0.085,-0.285
00:45:13.876:1,0.09,-0.275
00:45:13.880:1,0.135,-0.305
00:45:13.884:1,0.145,-0.275
00:45:13.888:1,0.135,-0.26
00:45:13.892:1,0.13,-0.275
00:45:13.896:1,0.115,-0.295
00:45:13.900:1,0.11,-0.295
00:45:13.904:1,0.135,-0.29
00:45:13.908:1,0.13,-0.28
00:45:13.912:1,0.125,-0.29
00:45:13.916:1,0.135,-0.305
00:45:13.920:1,0.135,-0.325
00:45:13.924:1,0.135,-0.32
00:45:13.928:1,0.125,-0.325
00:45:13.932:1,0.15,-0.35
00:45:13.936:1,0.185,-0.355
00:45:13.940:1,0.15,-0.36
00:45:13.944:1,0.11,-0.39
00:45:13.948:1,0.105,-0.39
00:45:13.952:1,0.065,-0.405
00:45:13.956:1,0.035,-0.39
00:45:13.960:1,0.025,-0.42
00:45:13.964:1,0.01,-0.44
00:45:13.968:1,0.0,-0.44
00:45:13.972:1,-0.005,-0.45
00:45:13.976:1,-0.03,-0.47
00:45:13.980:1,-0.035,-0.48
00:45:13.984:1,-0.04,-0.475
00:45:13.988:1,-0.025,-0.475
00:45:13.992:1,-0.04,-0.505
00:45:13.996:1,-0.045,-0.51
00:45:14.000:1,-0.05,-0.465
00:45:14.004:1,-0.04,-0.46
00:45:14.008:1,-0.03,-0.48
00:45:14.012:1,-0.01,-0.495
00:45:14.016:1,0.0,-0.51
00:45:14.020:1,0.025,-0.48
00:45:14.024:1,0.005,-0.43
00:45:14.028:1,-0.015,-0.45
00:45:14.032:1,0.0,-0.42
00:45:14.036:1,0.01,-0.425
00:45:14.040:1,0.02,-0.435
00:45:14.044:1,0.02,-0.395
00:45:14.048:1,0.04,-0.38
00:45:14.052:1,0.035,-0.345
00:45:14.056:1,0.05,-0.36
00:45:14.060:1,0.08,-0.33
00:45:14.064:1,0.105,-0.3
00:45:14.068:1,0.13,-0.245
00:45:14.072:1,0.15,-0.195
00:45:14.076:1,0.16,-0.145
00:45:14.080:1,0.15,-0.03
00:45:14.084:1,0.2,0.18
00:45:14.088:1,0.23,0.335
00:45:14.092:1,0.285,0.45
00:45:14.096:1,0.35,0.715
00:45:14.100:1,0.375,1.205
00:45:14.104:1,0.24,1.645
00:45:14.108:1,-0.095,1.74
00:45:14.112:1,-0.595,1.18
00:45:14.116:1,-1.17,0.28
00:45:14.120:1,-1.72,-0.365
00:45:14.124:1,-2.135,-0.615
00:45:14.128:1,-2.29,-0.56
00:45:14.132:1,-2.105,-0.445
00:45:14.136:1,-1.71,-0.4
00:45:14.140:1,-1.2,-0.41
00:45:14.144:1,-0.72,-0.445
00:45:14.148:1,-0.345,-0.445
00:45:14.152:1,-0.125,-0.47
00:45:14.156:1,0.0,-0.515
00:45:14.160:1,0.04,-0.52
00:45:14.164:1,0.03,-0.545
00:45:14.168:1,0.06,-0.53
00:45:14.172:1,0.085,-0.555
00:45:14.176:1,0.08,-0.565
00:45:14.180:1,0.105,-0.575
00:45:14.184:1,0.11,-0.535
00:45:14.188:1,0.135,-0.55
00:45:14.192:1,0.125,-0.56
00:45:14.196:1,0.14,-0.54
00:45:14.200:1,0.14,-0.54
00:45:14.204:1,0.155,-0.52
00:45:14.208:1,0.155,-0.555
00:45:14.212:1,0.155,-0.52
00:45:14.216:1,0.17,-0.505
00:45:14.220:1,0.19,-0.465
00:45:14.224:1,0.18,-0.46
00:45:14.228:1,0.185,-0.45
00:45:14.232:1,0.175,-0.445
00:45:14.236:1,0.205,-0.435
00:45:14.240:1,0.2,-0.405
00:45:14.244:1,0.195,-0.375
00:45:14.248:1,0.22,-0.355
00:45:14.252:1,0.235,-0.345
00:45:14.256:1,0.235,-0.345
00:45:14.260:1,0.275,-0.35
00:45:14.264:1,0.3,-0.34
00:45:14.268:1,0.31,-0.315
00:45:14.272:1,0.32,-0.32
00:45:14.276:1,0.315,-0.32
00:45:14.280:1,0.315,-0.295
00:45:14.284:1,0.335,-0.275
00:45:14.288:1,0.345,-0.3
00:45:14.292:1,0.345,-0.3
00:45:14.296:1,0.37,-0.31
00:45:14.300:1,0.375,-0.27
00:45:14.304:1,0.39,-0.285
00:45:14.308:1,0.395,-0.285
00:45:14.312:1,0.39,-0.28
00:45:14.316:1,0.42,-0.255
00:45:14.320:1,0.44,-0.265
00:45:14.324:1,0.435,-0.28
00:45:14.328:1,0.43,-0.265
00:45:14.332:1,0.415,-0.255
00:45:14.336:1,0.4,-0.255
00:45:14.340:1,0.415,-0.275
00:45:14.344:1,0.4,-0.275
00:45:14.348:1,0.425,-0.265
00:45:14.352:1,0.41,-0.28
00:45:14.356:1,0.395,-0.285
00:45:14.360:1,0.38,-0.32
00:45:14.364:1,0.4,-0.32
00:45:14.368:1,0.395,-0.3
00:45:14.372:1,0.38,-0.3
00:45:14.376:1,0.365,-0.305
00:45:14.380:1,0.345,-0.32
00:45:14.384:1,0.325,-0.3
00:45:14.388:1,0.33,-0.32
00:45:14.392:1,0.31,-0.32
00:45:14.396:1,0.305,-0.345
00:45:14.400:1,0.325,-0.35
00:45:14.404:1,0.34,-0.36
00:45:14.408:1,0.315,-0.385
00:45:14.412:1,0.295,-0.36
00:45:14.416:1,0.28,-0.335
00:45:14.420:1,0.28,-0.345
00:45:14.424:1,0.27,-0.345
00:45:14.428:1,0.285,-0.36
00:45:14.432:1,0.26,-0.35
00:45:14.436:1,0.26,-0.345
00:45:14.440:1,0.27,-0.335
00:45:14.444:1,0.295,-0.32
00:45:14.448:1,0.295,-0.32
00:45:14.452:1,0.285,-0.325
00:45:14.456:1,0.31,-0.355
00:45:14.460:1,0.3,-0.35
00:45:14.464:1,0.315,-0.35
00:45:14.468:1,0.36,-0.325
00:45:14.472:1,0.37,-0.355
00:45:14.476:1,0.345,-0.365
00:45:14.480:1,0.35,-0.345
00:45:14.484:1,0.335,-0.35
00:45:14.488:1,0.335,-0.38
00:45:14.492:1,0.335,-0.39
00:45:14.496:1,0.34,-0.42
00:45:14.500:1,0.33,-0.425
00:45:14.504:1,0.345,-0.435
00:45:14.508:1,0.355,-0.445
00:45:14.512:1,0.33,-0.42
00:45:14.516:1,0.32,-0.435
00:45:14.520:1,0.33,-0.445
00:45:14.524:1,0.28,-0.455
00:45:14.528:1,0.255,-0.45
00:45:14.532:1,0.265,-0.46
00:45:14.536:1,0.23,-0.49
00:45:14.540:1,0.23,-0.5
00:45:14.544:1,0.195,-0.49
00:45:14.548:1,0.19,-0.46
00:45:14.552:1,0.18,-0.5
00:45:14.556:1,0.19,-0.5
00:45:14.560:1,0.15,-0.52
00:45:14.564:1,0.15,-0.51
00:45:14.568:1,0.145,-0.495
00:45:14.572:1,0.14,-0.52
00:45:14.576:1,0.155,-0.53
00:45:14.580:1,0.135,-0.52
00:45:14.584:1,0.145,-0.535
00:45:14.588:1,0.135,-0.56
00:45:14.592:1,0.14,-0.535
00:45:14.596:1,0.14,-0.535
00:45:14.600:1,0.15,-0.55
00:45:14.604:1,0.17,-0.565
00:45:14.608:1,0.165,-0.565
00:45:14.612:1,0.17,-0.53
00:45:14.616:1,0.16,-0.515
00:45:14.620:1,0.155,-0.505
00:45:14.624:1,0.14,-0.505
00:45:14.628:1,0.175,-0.47
00:45:14.632:1,0.18,-0.475
00:45:14.636:1,0.205,-0.44
00:45:14.640:1,0.2,-0.415
00:45:14.644:1,0.205,-0.4
00:45:14.648:1,0.2,-0.38
00:45:14.652:1,0.23,-0.365
00:45:14.656:1,0.27,-0.365
00:45:14.660:1,0.255,-0.32
00:45:14.664:1,0.29,-0.275
00:45:14.668:1,0.3,-0.135
00:45:14.672:1,0.315,0.055
00:45:14.676:1,0.345,0.36
00:45:14.680:1,0.395,0.675
00:45:14.684:1,0.435,0.9
00:45:14.688:1,0.325,1.05
00:45:14.692:1,0.02,1.215
00:45:14.696:1,-0.435,1.405
00:45:14.700:1,-1.035,1.595
00:45:14.704:1,-1.63,1.68
00:45:14.708:1,-2.085,1.69
00:45:14.712:1,-2.335,1.67
00:45:14.716:1,-2.39,1.62
00:45:14.720:1,-2.265,1.54
00:45:14.724:1,-2.1,1.475
00:45:14.728:1,-2.0,1.41
00:45:14.732:1,-1.925,1.33
00:45:14.736:1,-1.81,1.3
00:45:14.740:1,-1.65,1.33
00:45:14.744:1,-1.55,1.395
00:45:14.748:1,-1.455,1.39
00:45:14.752:1,-1.34,1.19
00:45:14.756:1,-1.235,0.705
00:45:14.760:1,-1.14,0.155
00:45:14.764:1,-1.065,-0.28
00:45:14.768:1,-0.96,-0.55
00:45:14.772:1,-0.825,-0.74
00:45:14.776:1,-0.71,-0.815
00:45:14.780:1,-0.58,-0.835
00:45:14.784:1,-0.405,-0.855
00:45:14.788:1,-0.215,-0.855
00:45:14.792:1,-0.06,-0.83
00:45:14.796:1,0.095,-0.835
00:45:14.800:1,0.245,-0.835
00:45:14.804:1,0.355,-0.84
00:45:14.808:1,0.415,-0.835
00:45:14.812:1,0.44,-0.84
00:45:14.816:1,0.47,-0.82
00:45:14.820:1,0.505,-0.8
00:45:14.824:1,0.535,-0.805
00:45:14.828:1,0.54,-0.775
00:45:14.832:1,0.56,-0.805
00:45:14.836:1,0.61,-0.81
00:45:14.840:1,0.61,-0.795
00:45:14.844:1,0.615,-0.775
00:45:14.848:1,0.615,-0.74
00:45:14.852:1,0.605,-0.74
00:45:14.856:1,0.655,-0.76
00:45:14.860:1,0.675,-0.745
00:45:14.864:1,0.71,-0.72
00:45:14.868:1,0.72,-0.72
00:45:14.872:1,0.73,-0.74
00:45:14.876:1,0.755,-0.735
00:45:14.880:1,0.755,-0.72
00:45:14.884:1,0.765,-0.715
00:45:14.888:1,0.78,-0.715
00:45:14.892:1,0.79,-0.74
00:45:14.896:1,0.79,-0.74
00:45:14.900:1,0.84,-0.725
00:45:14.904:1,0.83,-0.73
00:45:14.908:1,0.87,-0.73
00:45:14.912:1,0.87,-0.715
00:45:14.916:1,0.915,-0.705
00:45:14.920:1,0.945,-0.695
00:45:14.924:1,0.98,-0.71
00:45:14.928:1,1.04,-0.73
00:45:14.932:1,1.065,-0.745
00:45:14.936:1,1.11,-0.765
00:45:14.940:1,1.075,-0.79
00:45:14.944:1,1.05,-0.785
00:45:14.948:1,1.035,-0.79
00:45:14.952:1,1.01,-0.785
00:45:14.956:1,0.995,-0.795
00:45:14.960:1,0.995,-0.795
00:45:14.964:1,0.965,-0.805
00:45:14.968:1,0.945,-0.775
00:45:14.972:1,0.94,-0.75
00:45:14.976:1,0.87,-0.725
00:45:14.980:1,0.855,-0.685
00:45:14.984:1,0.795,-0.645
00:45:14.988:1,0.77,-0.615
00:45:14.992:1,0.75,-0.585
00:45:14.996:1,0.7,-0.565
00:45:15.000:1,0.67,-0.545
00:45:15.004:1,0.655,-0.525
00:45:15.008:1,0.61,-0.5
00:45:15.012:1,0.595,-0.505
00:45:15.016:1,0.555,-0.5
00:45:15.020:1,0.525,-0.465
00:45:15.024:1,0.495,-0.475
00:45:15.028:1,0.45,-0.455
00:45:15.032:1,0.425,-0.465
00:45:15.036:1,0.405,-0.48
00:45:15.040:1,0.38,-0.47
00:45:15.044:1,0.345,-0.465
00:45:15.048:1,0.34,-0.44
00:45:15.052:1,0.335,-0.465
00:45:15.056:1,0.335,-0.44
00:45:15.060:1,0.345,-0.47
00:45:15.064:1,0.34,-0.465
00:45:15.068:1,0.335,-0.455
00:45:15.072:1,0.335,-0.46
00:45:15.076:1,0.34,-0.475
00:45:15.080:1,0.315,-0.455
00:45:15.084:1,0.345,-0.48
00:45:15.088:1,0.325,-0.47
00:45:15.092:1,0.335,-0.48
00:45:15.096:1,0.305,-0.505
00:45:15.100:1,0.305,-0.495
00:45:15.104:1,0.315,-0.505
00:45:15.108:1,0.3,-0.49
00:45:15.112:1,0.295,-0.5
00:45:15.116:1,0.295,-0.505
00:45:15.120:1,0.3,-0.51
00:45:15.124:1,0.305,-0.5
00:45:15.128:1,0.315,-0.515
00:45:15.132:1,0.3,-0.525
00:45:15.136:1,0.32,-0.525
00:45:15.140:1,0.305,-0.53
00:45:15.144:1,0.31,-0.545
00:45:15.148:1,0.265,-0.535
00:45:15.152:1,0.215,-0.535
00:45:15.156:1,0.195,-0.535
00:45:15.160:1,0.165,-0.52
00:45:15.164:1,0.155,-0.53
00:45:15.168:1,0.15,-0.53
00:45:15.172:1,0.13,-0.535
00:45:15.176:1,0.14,-0.525
00:45:15.180:1,0.11,-0.525
00:45:15.184:1,0.135,-0.54
00:45:15.188:1,0.12,-0.535
00:45:15.192:1,0.115,-0.5
00:45:15.196:1,0.105,-0.46
00:45:15.200:1,0.12,-0.36
00:45:15.204:1,0.14,-0.165
00:45:15.208:1,0.175,0.065
00:45:15.212:1,0.25,0.375
00:45:15.216:1,0.285,0.605
00:45:15.220:1,0.155,0.82
00:45:15.224:1,-0.15,1.07
00:45:15.228:1,-0.71,1.285
00:45:15.232:1,-1.335,1.465
00:45:15.236:1,-1.865,1.545
00:45:15.240:1,-2.325,1.605
00:45:15.244:1,-2.54,1.67
00:45:15.248:1,-2.495,1.69
00:45:15.252:1,-2.39,1.68
00:45:15.256:1,-2.22,1.635
00:45:15.260:1,-2.055,1.6
00:45:15.264:1,-1.925,1.49
00:45:15.268:1,-1.78,1.465
00:45:15.272:1,-1.605,1.485
00:45:15.276:1,-1.505,1.535
00:45:15.280:1,-1.4,1.52
00:45:15.284:1,-1.275,1.32
00:45:15.288:1,-1.14,0.875
00:45:15.292:1,-1.045,0.315
00:45:15.296:1,-0.985,-0.15
00:45:15.300:1,-0.87,-0.465
00:45:15.304:1,-0.75,-0.655
00:45:15.308:1,-0.605,-0.695
00:45:15.312:1,-0.475,-0.7
00:45:15.316:1,-0.31,-0.75
00:45:15.320:1,-0.09,-0.74
00:45:15.324:1,0.1,-0.725
00:45:15.328:1,0.255,-0.71
00:45:15.332:1,0.42,-0.725
00:45:15.336:1,0.525,-0.76
00:45:15.340:1,0.59,-0.765
00:45:15.344:1,0.59,-0.76
00:45:15.348:1,0.57,-0.78
00:45:15.352:1,0.56,-0.79
00:45:15.356:1,0.565,-0.755
00:45:15.360:1,0.575,-0.78
00:45:15.364:1,0.545,-0.79
00:45:15.368:1,0.54,-0.825
00:45:15.372:1,0.56,-0.825
00:45:15.376:1,0.55,-0.81
00:45:15.380:1,0.53,-0.81
00:45:15.384:1,0.555,-0.825
00:45:15.388:1,0.555,-0.79
00:45:15.392:1,0.545,-0.785
00:45:15.396:1,0.575,-0.77
00:45:15.400:1,0.57,-0.775
00:45:15.404:1,0.615,-0.77
00:45:15.408:1,0.63,-0.76
00:45:15.412:1,0.68,-0.77
00:45:15.416:1,0.7,-0.79
00:45:15.420:1,0.75,-0.76
00:45:15.424:1,0.78,-0.73
00:45:15.428:1,0.805,-0.73
00:45:15.432:1,0.835,-0.735
00:45:15.436:1,0.885,-0.72
00:45:15.440:1,0.905,-0.745
00:45:15.444:1,0.935,-0.775
00:45:15.448:1,0.96,-0.74
00:45:15.452:1,0.965,-0.74
00:45:15.456:1,0.99,-0.73
00:45:15.460:1,1.01,-0.74
00:45:15.464:1,1.06,-0.76
00:45:15.468:1,1.095,-0.74
00:45:15.472:1,1.12,-0.735
00:45:15.476:1,1.135,-0.72
00:45:15.480:1,1.13,-0.71
00:45:15.484:1,1.17,-0.69
00:45:15.488:1,1.15,-0.665
00:45:15.492:1,1.14,-0.66
00:45:15.496:1,1.115,-0.64
00:45:15.500:1,1.085,-0.605
00:45:15.504:1,1.045,-0.55
00:45:15.508:1,1.01,-0.525
00:45:15.512:1,0.975,-0.495
00:45:15.516:1,0.935,-0.465
00:45:15.520:1,0.885,-0.415
00:45:15.524:1,0.84,-0.375
00:45:15.528:1,0.815,-0.38
00:45:15.532:1,0.785,-0.37
00:45:15.536:1,0.75,-0.37
00:45:15.540:1,0.715,-0.375
00:45:15.544:1,0.65,-0.395
00:45:15.548:1,0.58,-0.405
00:45:15.552:1,0.505,-0.41
00:45:15.556:1,0.46,-0.41
00:45:15.560:1,0.39,-0.46
00:45:15.564:1,0.37,-0.48
00:45:15.568:1,0.335,-0.48
00:45:15.572:1,0.275,-0.485
00:45:15.576:1,0.235,-0.495
00:45:15.580:1,0.215,-0.51
00:45:15.584:1,0.185,-0.53
00:45:15.588:1,0.18,-0.545
00:45:15.592:1,0.175,-0.555
00:45:15.596:1,0.17,-0.55
00:45:15.600:1,0.18,-0.555
00:45:15.604:1,0.18,-0.58
00:45:15.608:1,0.185,-0.6
00:45:15.612:1,0.205,-0.56
00:45:15.616:1,0.21,-0.55
00:45:15.620:1,0.19,-0.52
00:45:15.624:1,0.195,-0.53
00:45:15.628:1,0.22,-0.53
00:45:15.632:1,0.23,-0.52
00:45:15.636:1,0.25,-0.515
00:45:15.640:1,0.29,-0.515
00:45:15.644:1,0.27,-0.48
00:45:15.648:1,0.27,-0.445
00:45:15.652:1,0.26,-0.415
00:45:15.656:1,0.28,-0.44
00:45:15.660:1,0.295,-0.445
00:45:15.664:1,0.33,-0.43
00:45:15.668:1,0.335,-0.425
00:45:15.672:1,0.315,-0.435
00:45:15.676:1,0.325,-0.445
00:45:15.680:1,0.32,-0.41
00:45:15.684:1,0.31,-0.405
00:45:15.688:1,0.31,-0.41
00:45:15.692:1,0.315,-0.445
00:45:15.696:1,0.3,-0.41
00:45:15.700:1,0.295,-0.39
00:45:15.704:1,0.305,-0.415
00:45:15.708:1,0.275,-0.425
00:45:15.712:1,0.305,-0.395
00:45:15.716:1,0.29,-0.405
00:45:15.720:1,0.285,-0.415
00:45:15.724:1,0.285,-0.405
00:45:15.728:1,0.29,-0.405
00:45:15.732:1,0.31,-0.43
00:45:15.736:1,0.305,-0.44
00:45:15.740:1,0.29,-0.455
00:45:15.744:1,0.27,-0.45
00:45:15.748:1,0.225,-0.45
00:45:15.752:1,0.195,-0.455
00:45:15.756:1,0.155,-0.475
00:45:15.760:1,0.12,-0.485
00:45:15.764:1,0.105,-0.455
00:45:15.768:1,0.11,-0.46
00:45:15.772:1,0.07,-0.48
00:45:15.776:1,0.085,-0.495
00:45:15.780:1,0.09,-0.495
00:45:15.784:1,0.06,-0.51
00:45:15.788:1,0.06,-0.505
00:45:15.792:1,0.07,-0.475
00:45:15.796:1,0.06,-0.47
00:45:15.800:1,0.085,-0.47
00:45:15.804:1,0.095,-0.475
00:45:15.808:1,0.11,-0.48
00:45:15.812:1,0.115,-0.485
00:45:15.816:1,0.115,-0.455
00:45:15.820:1,0.135,-0.445
00:45:15.824:1,0.125,-0.43
00:45:15.828:1,0.12,-0.43
00:45:15.832:1,0.14,-0.43
00:45:15.836:1,0.14,-0.44
00:45:15.840:1,0.135,-0.38
00:45:15.844:1,0.155,-0.355
00:45:15.848:1,0.14,-0.355
00:45:15.852:1,0.18,-0.36
00:45:15.856:1,0.185,-0.36
00:45:15.860:1,0.205,-0.335
00:45:15.864:1,0.235,-0.32
00:45:15.868:1,0.24,-0.34
00:45:15.872:1,0.245,-0.345
00:45:15.876:1,0.26,-0.335
00:45:15.880:1,0.24,-0.32
00:45:15.884:1,0.24,-0.305
00:45:15.888:1,0.235,-0.32
00:45:15.892:1,0.235,-0.305
00:45:15.896:1,0.24,-0.305
00:45:15.900:1,0.245,-0.34
00:45:15.904:1,0.25,-0.325
00:45:15.908:1,0.235,-0.315
00:45:15.912:1,0.26,-0.29
00:45:15.916:1,0.245,-0.245
00:45:15.920:1,0.23,-0.135
00:45:15.924:1,0.24,0.055
00:45:15.928:1,0.3,0.275
00:45:15.932:1,0.345,0.51
00:45:15.936:1,0.355,0.67
00:45:15.940:1,0.13,0.83
00:45:15.944:1,-0.23,1.02
00:45:15.948:1,-0.85,1.23
00:45:15.952:1,-1.525,1.335
00:45:15.956:1,-2.07,1.38
00:45:15.960:1,-2.475,1.41
00:45:15.964:1,-2.585,1.38
00:45:15.968:1,-2.49,1.32
00:45:15.972:1,-2.345,1.305
00:45:15.976:1,-2.19,1.27
00:45:15.980:1,-2.135,1.19
00:45:15.984:1,-1.97,1.18
00:45:15.988:1,-1.78,1.225
00:45:15.992:1,-1.69,1.26
00:45:15.996:1,-1.565,1.215
00:45:16.000:1,-1.42,0.99
00:45:16.004:1,-1.28,0.555
00:45:16.008:1,-1.175,0.06
00:45:16.012:1,-1.07,-0.305
00:45:16.016:1,-0.96,-0.545
00:45:16.020:1,-0.81,-0.69
00:45:16.024:1,-0.675,-0.72
00:45:16.028:1,-0.52,-0.7
00:45:16.032:1,-0.335,-0.675
00:45:16.036:1,-0.135,-0.605
00:45:16.040:1,0.04,-0.625
00:45:16.044:1,0.23,-0.63
00:45:16.048:1,0.375,-0.63
00:45:16.052:1,0.48,-0.64
00:45:16.056:1,0.515,-0.635
00:45:16.060:1,0.54,-0.64
00:45:16.064:1,0.6,-0.65
00:45:16.068:1,0.61,-0.63
00:45:16.072:1,0.63,-0.63
00:45:16.076:1,0.65,-0.635
00:45:16.080:1,0.655,-0.615
00:45:16.084:1,0.65,-0.61
00:45:16.088:1,0.68,-0.615
00:45:16.092:1,0.685,-0.615
00:45:16.096:1,0.72,-0.56
00:45:16.100:1,0.725,-0.55
00:45:16.104:1,0.765,-0.545
00:45:16.108:1,0.8,-0.54
00:45:16.112:1,0.83,-0.535
00:45:16.116:1,0.88,-0.495
00:45:16.120:1,0.88,-0.485
00:45:16.124:1,0.92,-0.485
00:45:16.128:1,0.94,-0.52
00:45:16.132:1,0.975,-0.51
00:45:16.136:1,0.95,-0.535
00:45:16.140:1,0.925,-0.54
00:45:16.144:1,0.91,-0.565
00:45:16.148:1,0.915,-0.525
00:45:16.152:1,0.94,-0.54
00:45:16.156:1,0.91,-0.57
00:45:16.160:1,0.945,-0.62
00:45:16.164:1,0.945,-0.625
00:45:16.168:1,0.95,-0.645
00:45:16.172:1,0.945,-0.635
00:45:16.176:1,0.935,-0.64
00:45:16.180:1,0.995,-0.625
00:45:16.184:1,0.975,-0.635
00:45:16.188:1,0.97,-0.665
00:45:16.192:1,0.995,-0.69
00:45:16.196:1,1.04,-0.67
00:45:16.200:1,1.05,-0.64
00:45:16.204:1,1.03,-0.66
00:45:16.208:1,1.05,-0.64
00:45:16.212:1,1.03,-0.58
00:45:16.216:1,0.975,-0.545
00:45:16.220:1,0.995,-0.525
00:45:16.224:1,0.94,-0.505
00:45:16.228:1,0.91,-0.445
00:45:16.232:1,0.905,-0.375
00:45:16.236:1,0.87,-0.34
00:45:16.240:1,0.82,-0.31
00:45:16.244:1,0.79,-0.27
00:45:16.248:1,0.78,-0.26
00:45:16.252:1,0.725,-0.245
00:45:16.256:1,0.695,-0.23
00:45:16.260:1,0.665,-0.185
00:45:16.264:1,0.615,-0.19
00:45:16.268:1,0.595,-0.2
00:45:16.272:1,0.57,-0.23
00:45:16.276:1,0.56,-0.22
00:45:16.280:1,0.525,-0.24
00:45:16.284:1,0.485,-0.26
00:45:16.288:1,0.42,-0.25
00:45:16.292:1,0.42,-0.27
00:45:16.296:1,0.42,-0.25
00:45:16.300:1,0.4,-0.295
00:45:16.304:1,0.385,-0.305
00:45:16.308:1,0.41,-0.305
00:45:16.312:1,0.425,-0.325
00:45:16.316:1,0.415,-0.36
00:45:16.320:1,0.41,-0.395
00:45:16.324:1,0.41,-0.4
00:45:16.328:1,0.375,-0.41
00:45:16.332:1,0.335,-0.445
00:45:16.336:1,0.295,-0.43
00:45:16.340:1,0.29,-0.42
00:45:16.344:1,0.265,-0.44
00:45:16.348:1,0.245,-0.455
00:45:16.352:1,0.245,-0.45
00:45:16.356:1,0.215,-0.43
00:45:16.360:1,0.24,-0.42
00:45:16.364:1,0.24,-0.455
00:45:16.368:1,0.235,-0.49
00:45:16.372:1,0.24,-0.48
00:45:16.376:1,0.255,-0.47
00:45:16.380:1,0.255,-0.485
00:45:16.384:1,0.24,-0.49
00:45:16.388:1,0.255,-0.48
00:45:16.392:1,0.25,-0.48
00:45:16.396:1,0.275,-0.49
00:45:16.400:1,0.275,-0.48
00:45:16.404:1,0.245,-0.465
00:45:16.408:1,0.28,-0.42
00:45:16.412:1,0.26,-0.39
00:45:16.416:1,0.25,-0.415
00:45:16.420:1,0.25,-0.42
00:45:16.424:1,0.255,-0.395
00:45:16.428:1,0.28,-0.385
00:45:16.432:1,0.28,-0.345
00:45:16.436:1,0.28,-0.32
00:45:16.440:1,0.27,-0.3
00:45:16.444:1,0.3,-0.295
00:45:16.448:1,0.32,-0.31
00:45:16.452:1,0.315,-0.31
00:45:16.456:1,0.34,-0.285
00:45:16.460:1,0.35,-0.295
00:45:16.464:1,0.33,-0.27
00:45:16.468:1,0.33,-0.26
00:45:16.472:1,0.31,-0.245
00:45:16.476:1,0.315,-0.26
00:45:16.480:1,0.325,-0.27
00:45:16.484:1,0.345,-0.305
00:45:16.488:1,0.315,-0.29
00:45:16.492:1,0.325,-0.31
00:45:16.496:1,0.35,-0.315
00:45:16.500:1,0.355,-0.285
00:45:16.504:1,0.335,-0.27
00:45:16.508:1,0.365,-0.265
00:45:16.512:1,0.375,-0.26
00:45:16.516:1,0.35,-0.29
00:45:16.520:1,0.33,-0.275
00:45:16.524:1,0.31,-0.29
00:45:16.528:1,0.27,-0.3
00:45:16.532:1,0.235,-0.305
00:45:16.536:1,0.215,-0.3
00:45:16.540:1,0.185,-0.28
00:45:16.544:1,0.185,-0.33
00:45:16.548:1,0.175,-0.32
00:45:16.552:1,0.155,-0.33
00:45:16.556:1,0.155,-0.33
00:45:16.560:1,0.13,-0.36
00:45:16.564:1,0.095,-0.37
00:45:16.568:1,0.125,-0.35
00:45:16.572:1,0.11,-0.335
00:45:16.576:1,0.1,-0.32
00:45:16.580:1,0.11,-0.345
00:45:16.584:1,0.115,-0.315
00:45:16.588:1,0.16,-0.335
00:45:16.592:1,0.135,-0.33
00:45:16.596:1,0.155,-0.305
00:45:16.600:1,0.155,-0.28
00:45:16.604:1,0.145,-0.235
00:45:16.608:1,0.15,-0.275
00:45:16.612:1,0.19,-0.25
00:45:16.616:1,0.205,-0.265
00:45:16.620:1,0.23,-0.225
00:45:16.624:1,0.23,-0.215
00:45:16.628:1,0.205,-0.175
00:45:16.632:1,0.2,-0.185
00:45:16.636:1,0.235,-0.195
00:45:16.640:1,0.255,-0.2
00:45:16.644:1,0.26,-0.185
00:45:16.648:1,0.26,-0.185
00:45:16.652:1,0.28,-0.185
00:45:16.656:1,0.28,-0.17
00:45:16.660:1,0.26,-0.165
00:45:16.664:1,0.255,-0.15
00:45:16.668:1,0.275,-0.18
00:45:16.672:1,0.265,-0.195
00:45:16.676:1,0.245,-0.21
00:45:16.680:1,0.265,-0.175
00:45:16.684:1,0.265,-0.2
00:45:16.688:1,0.28,-0.21
00:45:16.692:1,0.265,-0.22
00:45:16.696:1,0.25,-0.215
00:45:16.700:1,0.28,-0.215
00:45:16.704:1,0.275,-0.215
00:45:16.708:1,0.285,-0.235
00:45:16.712:1,0.28,-0.235
00:45:16.716:1,0.28,-0.24
00:45:16.720:1,0.21,-0.255
00:45:16.724:1,0.19,-0.27
00:45:16.728:1,0.155,-0.28
00:45:16.732:1,0.155,-0.27
00:45:16.736:1,0.125,-0.285
00:45:16.740:1,0.115,-0.32
00:45:16.744:1,0.085,-0.315
00:45:16.748:1,0.075,-0.255
00:45:16.752:1,0.06,-0.155
00:45:16.756:1,0.055,-0.005
00:45:16.760:1,0.055,0.235
00:45:16.764:1,0.14,0.485
00:45:16.768:1,0.185,0.655
00:45:16.772:1,0.025,0.775
00:45:16.776:1,-0.3,0.965
00:45:16.780:1,-0.91,1.17
00:45:16.784:1,-1.58,1.325
00:45:16.788:1,-2.125,1.37
00:45:16.792:1,-2.54,1.415
00:45:16.796:1,-2.67,1.445
00:45:16.800:1,-2.545,1.405
00:45:16.804:1,-2.375,1.41
00:45:16.808:1,-2.24,1.325
00:45:16.812:1,-2.15,1.27
00:45:16.816:1,-1.985,1.27
00:45:16.820:1,-1.845,1.34
00:45:16.824:1,-1.71,1.35
00:45:16.828:1,-1.63,1.37
00:45:16.832:1,-1.49,1.23
00:45:16.836:1,-1.305,0.885
00:45:16.840:1,-1.165,0.385
00:45:16.844:1,-1.1,-0.03
00:45:16.848:1,-0.975,-0.335
00:45:16.852:1,-0.83,-0.485
00:45:16.856:1,-0.675,-0.55
00:45:16.860:1,-0.53,-0.5
00:45:16.864:1,-0.36,-0.5
00:45:16.868:1,-0.16,-0.475
00:45:16.872:1,0.04,-0.445
00:45:16.876:1,0.205,-0.43
00:45:16.880:1,0.36,-0.425
00:45:16.884:1,0.485,-0.405
00:45:16.888:1,0.56,-0.435
00:45:16.892:1,0.615,-0.405
00:45:16.896:1,0.68,-0.425
00:45:16.900:1,0.685,-0.43
00:45:16.904:1,0.71,-0.41
00:45:16.908:1,0.735,-0.445
00:45:16.912:1,0.715,-0.44
00:45:16.916:1,0.68,-0.44
00:45:16.920:1,0.655,-0.44
00:45:16.924:1,0.625,-0.45
00:45:16.928:1,0.63,-0.44
00:45:16.932:1,0.635,-0.46
00:45:16.936:1,0.63,-0.475
00:45:16.940:1,0.615,-0.475
00:45:16.944:1,0.615,-0.48
00:45:16.948:1,0.625,-0.48
00:45:16.952:1,0.605,-0.495
00:45:16.956:1,0.595,-0.49
00:45:16.960:1,0.62,-0.485
00:45:16.964:1,0.635,-0.485
00:45:16.968:1,0.645,-0.47
00:45:16.972:1,0.67,-0.48
00:45:16.976:1,0.685,-0.465
00:45:16.980:1,0.71,-0.495
00:45:16.984:1,0.73,-0.505
00:45:16.988:1,0.75,-0.475
00:45:16.992:1,0.79,-0.475
00:45:16.996:1,0.82,-0.46
00:45:17.000:1,0.85,-0.445
00:45:17.004:1,0.86,-0.485
00:45:17.008:1,0.895,-0.49
00:45:17.012:1,0.93,-0.48
00:45:17.016:1,0.975,-0.455
00:45:17.020:1,0.99,-0.46
00:45:17.024:1,1.02,-0.435
00:45:17.028:1,1.055,-0.425
00:45:17.032:1,1.085,-0.43
00:45:17.036:1,1.095,-0.44
00:45:17.040:1,1.125,-0.435
00:45:17.044:1,1.12,-0.425
00:45:17.048:1,1.12,-0.42
00:45:17.052:1,1.085,-0.385
00:45:17.056:1,1.07,-0.32
00:45:17.060:1,1.03,-0.3
00:45:17.064:1,0.985,-0.325
00:45:17.068:1,0.945,-0.275
00:45:17.072:1,0.905,-0.26
00:45:17.076:1,0.885,-0.23
00:45:17.080:1,0.825,-0.2
00:45:17.084:1,0.775,-0.205
00:45:17.088:1,0.735,-0.185
00:45:17.092:1,0.71,-0.195
00:45:17.096:1,0.67,-0.22
00:45:17.100:1,0.615,-0.23
00:45:17.104:1,0.585,-0.235
00:45:17.108:1,0.56,-0.24
00:45:17.112:1,0.505,-0.245
00:45:17.116:1,0.415,-0.26
00:45:17.120:1,0.37,-0.3
00:45:17.124:1,0.315,-0.295
00:45:17.128:1,0.27,-0.3
00:45:17.132:1,0.23,-0.34
00:45:17.136:1,0.22,-0.345
00:45:17.140:1,0.17,-0.365
00:45:17.144:1,0.2,-0.375
00:45:17.148:1,0.165,-0.375
00:45:17.152:1,0.175,-0.385
00:45:17.156:1,0.155,-0.375
00:45:17.160:1,0.155,-0.385
00:45:17.164:1,0.16,-0.405
00:45:17.168:1,0.14,-0.385
00:45:17.172:1,0.155,-0.38
00:45:17.176:1,0.17,-0.41
00:45:17.180:1,0.16,-0.445
00:45:17.184:1,0.17,-0.415
00:45:17.188:1,0.19,-0.42
00:45:17.192:1,0.2,-0.39
00:45:17.196:1,0.18,-0.375
00:45:17.200:1,0.19,-0.38
00:45:17.204:1,0.205,-0.375
00:45:17.208:1,0.24,-0.38
00:45:17.212:1,0.225,-0.38
00:45:17.216:1,0.235,-0.345
00:45:17.220:1,0.24,-0.335
00:45:17.224:1,0.235,-0.32
00:45:17.228:1,0.245,-0.335
00:45:17.232:1,0.27,-0.335
00:45:17.236:1,0.265,-0.32
00:45:17.240:1,0.28,-0.33
00:45:17.244:1,0.29,-0.33
00:45:17.248:1,0.29,-0.305
00:45:17.252:1,0.275,-0.28
00:45:17.256:1,0.265,-0.3
00:45:17.260:1,0.265,-0.275
00:45:17.264:1,0.255,-0.315
00:45:17.268:1,0.265,-0.3
00:45:17.272:1,0.245,-0.265
00:45:17.276:1,0.24,-0.29
00:45:17.280:1,0.245,-0.315
00:45:17.284:1,0.255,-0.295
00:45:17.288:1,0.245,-0.315
00:45:17.292:1,0.265,-0.285
00:45:17.296:1,0.25,-0.27
00:45:17.300:1,0.245,-0.295
00:45:17.304:1,0.245,-0.295
00:45:17.308:1,0.235,-0.31
00:45:17.312:1,0.255,-0.295
00:45:17.316:1,0.235,-0.32
00:45:17.320:1,0.21,-0.305
00:45:17.324:1,0.175,-0.3
00:45:17.328:1,0.14,-0.315
00:45:17.332:1,0.12,-0.32
00:45:17.336:1,0.095,-0.325
00:45:17.340:1,0.09,-0.33
00:45:17.344:1,0.05,-0.355
00:45:17.348:1,0.055,-0.345
00:45:17.352:1,0.05,-0.34
00:45:17.356:1,0.05,-0.35
00:45:17.360:1,0.055,-0.34
00:45:17.364:1,0.05,-0.34
00:45:17.368:1,0.045,-0.33
00:45:17.372:1,0.065,-0.32
00:45:17.376:1,0.06,-0.32
00:45:17.380:1,0.06,-0.335
00:45:17.384:1,0.07,-0.345
00:45:17.388:1,0.08,-0.32
00:45:17.392:1,0.07,-0.315
00:45:17.396:1,0.08,-0.285
00:45:17.400:1,0.065,-0.26
00:45:17.404:1,0.06,-0.27
00:45:17.408:1,0.075,-0.28
00:45:17.412:1,0.09,-0.285
00:45:17.416:1,0.11,-0.22
00:45:17.420:1,0.125,-0.185
00:45:17.424:1,0.105,-0.2
00:45:17.428:1,0.095,-0.22
00:45:17.432:1,0.12,-0.215
00:45:17.436:1,0.17,-0.215
00:45:17.440:1,0.16,-0.22
00:45:17.444:1,0.165,-0.205
00:45:17.448:1,0.14,-0.215
00:45:17.452:1,0.17,-0.205
00:45:17.456:1,0.155,-0.22
00:45:17.460:1,0.165,-0.22
00:45:17.464:1,0.145,-0.205
00:45:17.468:1,0.145,-0.205
00:45:17.472:1,0.12,-0.225
00:45:17.476:1,0.125,-0.225
00:45:17.480:1,0.135,-0.2
00:45:17.484:1,0.145,-0.215
00:45:17.488:1,0.135,-0.23
00:45:17.492:1,0.115,-0.27
00:45:17.496:1,0.13,-0.27
00:45:17.500:1,0.15,-0.26
00:45:17.504:1,0.17,-0.24
00:45:17.508:1,0.15,-0.28
00:45:17.512:1,0.115,-0.29
00:45:17.516:1,0.065,-0.285
00:45:17.520:1,0.05,-0.25
00:45:17.524:1,0.025,-0.185
00:45:17.528:1,0.0,-0.085
00:45:17.532:1,0.0,0.07
00:45:17.536:1,0.01,0.335
00:45:17.540:1,0.07,0.585
00:45:17.544:1,0.095,0.78
00:45:17.548:1,-0.05,0.91
00:45:17.552:1,-0.375,1.06
00:45:17.556:1,-0.945,1.235
00:45:17.560:1,-1.57,1.41
00:45:17.564:1,-2.125,1.49
00:45:17.568:1,-2.605,1.475
00:45:17.572:1,-2.84,1.475
00:45:17.576:1,-2.775,1.42
00:45:17.580:1,-2.625,1.35
00:45:17.584:1,-2.45,1.315
00:45:17.588:1,-2.335,1.22
00:45:17.592:1,-2.255,1.19
00:45:17.596:1,-2.09,1.225
00:45:17.600:1,-1.905,1.265
00:45:17.604:1,-1.805,1.275
00:45:17.608:1,-1.675,1.22
00:45:17.612:1,-1.53,0.975
00:45:17.616:1,-1.395,0.53
00:45:17.620:1,-1.31,0.075
00:45:17.624:1,-1.21,-0.235
00:45:17.628:1,-1.045,-0.405
00:45:17.632:1,-0.865,-0.475
00:45:17.636:1,-0.72,-0.48
00:45:17.640:1,-0.53,-0.495
00:45:17.644:1,-0.345,-0.5
00:45:17.648:1,-0.145,-0.45
00:45:17.652:1,0.025,-0.43
00:45:17.656:1,0.155,-0.475
00:45:17.660:1,0.27,-0.5
00:45:17.664:1,0.33,-0.485
00:45:17.668:1,0.36,-0.49
00:45:17.672:1,0.39,-0.5
00:45:17.676:1,0.41,-0.51
00:45:17.680:1,0.425,-0.505
00:45:17.684:1,0.445,-0.5
00:45:17.688:1,0.435,-0.48
00:45:17.692:1,0.455,-0.5
00:45:17.696:1,0.45,-0.485
00:45:17.700:1,0.47,-0.47
00:45:17.704:1,0.49,-0.475
00:45:17.708:1,0.535,-0.5
00:45:17.712:1,0.51,-0.5
00:45:17.716:1,0.465,-0.5
00:45:17.720:1,0.44,-0.515
00:45:17.724:1,0.43,-0.515
00:45:17.728:1,0.415,-0.5
00:45:17.732:1,0.42,-0.51
00:45:17.736:1,0.405,-0.535
00:45:17.740:1,0.385,-0.545
00:45:17.744:1,0.415,-0.515
00:45:17.748:1,0.395,-0.505
00:45:17.752:1,0.415,-0.535
00:45:17.756:1,0.43,-0.54
00:45:17.760:1,0.44,-0.53
00:45:17.764:1,0.475,-0.51
00:45:17.768:1,0.47,-0.54
00:45:17.772:1,0.51,-0.555
00:45:17.776:1,0.55,-0.58
00:45:17.780:1,0.58,-0.58
00:45:17.784:1,0.6,-0.59
00:45:17.788:1,0.63,-0.61
00:45:17.792:1,0.63,-0.58
00:45:17.796:1,0.66,-0.56
00:45:17.800:1,0.67,-0.585
00:45:17.804:1,0.715,-0.575
00:45:17.808:1,0.735,-0.59
00:45:17.812:1,0.77,-0.565
00:45:17.816:1,0.795,-0.56
00:45:17.820:1,0.795,-0.54
00:45:17.824:1,0.8,-0.52
00:45:17.828:1,0.835,-0.48
00:45:17.832:1,0.85,-0.45
00:45:17.836:1,0.825,-0.43
00:45:17.840:1,0.825,-0.43
00:45:17.844:1,0.8,-0.39
00:45:17.848:1,0.775,-0.32
00:45:17.852:1,0.735,-0.27
00:45:17.856:1,0.71,-0.255
00:45:17.860:1,0.685,-0.19
00:45:17.864:1,0.63,-0.165
00:45:17.868:1,0.58,-0.185
00:45:17.872:1,0.56,-0.19
00:45:17.876:1,0.515,-0.17
00:45:17.880:1,0.475,-0.17
00:45:17.884:1,0.45,-0.185
00:45:17.888:1,0.405,-0.205
00:45:17.892:1,0.355,-0.22
00:45:17.896:1,0.34,-0.215
00:45:17.900:1,0.28,-0.235
00:45:17.904:1,0.22,-0.26
00:45:17.908:1,0.17,-0.29
00:45:17.912:1,0.135,-0.295
00:45:17.916:1,0.115,-0.305
00:45:17.920:1,0.07,-0.31
00:45:17.924:1,0.09,-0.34
00:45:17.928:1,0.065,-0.355
00:45:17.932:1,0.03,-0.395
00:45:17.936:1,0.02,-0.4
00:45:17.940:1,0.0,-0.425
00:45:17.944:1,-0.01,-0.41
00:45:17.948:1,-0.04,-0.45
00:45:17.952:1,-0.025,-0.48
00:45:17.956:1,-0.065,-0.495
00:45:17.960:1,-0.03,-0.5
00:45:17.964:1,-0.05,-0.49
00:45:17.968:1,-0.065,-0.49
00:45:17.972:1,-0.07,-0.5
00:45:17.976:1,-0.06,-0.495
00:45:17.980:1,-0.025,-0.51
00:45:17.984:1,-0.04,-0.51
00:45:17.988:1,-0.02,-0.515
00:45:17.992:1,-0.03,-0.505
00:45:17.996:1,-0.005,-0.475
00:45:18.000:1,-0.01,-0.495
00:45:18.004:1,0.025,-0.465
00:45:18.008:1,0.0,-0.44
00:45:18.012:1,-0.015,-0.46
00:45:18.016:1,0.01,-0.45
00:45:18.020:1,0.04,-0.425
00:45:18.024:1,0.035,-0.38
00:45:18.028:1,0.035,-0.36
00:45:18.032:1,0.025,-0.37
00:45:18.036:1,0.04,-0.375
00:45:18.040:1,0.06,-0.38
00:45:18.044:1,0.1,-0.36
00:45:18.048:1,0.075,-0.36
00:45:18.052:1,0.07,-0.36
00:45:18.056:1,0.065,-0.345
00:45:18.060:1,0.08,-0.345
00:45:18.064:1,0.075,-0.365
00:45:18.068:1,0.075,-0.36
00:45:18.072:1,0.085,-0.32
00:45:18.076:1,0.08,-0.32
00:45:18.080:1,0.055,-0.35
00:45:18.084:1,0.065,-0.34
00:45:18.088:1,0.06,-0.33
00:45:18.092:1,0.05,-0.345
00:45:18.096:1,0.085,-0.33
00:45:18.100:1,0.08,-0.36
00:45:18.104:1,0.095,-0.31
00:45:18.108:1,0.125,-0.3
00:45:18.112:1,0.11,-0.31
00:45:18.116:1,0.075,-0.32
00:45:18.120:1,0.04,-0.335
00:45:18.124:1,0.025,-0.365
00:45:18.128:1,-0.005,-0.36
00:45:18.132:1,-0.03,-0.38
00:45:18.136:1,-0.04,-0.4
00:45:18.140:1,-0.07,-0.405
00:45:18.144:1,-0.1,-0.39
00:45:18.148:1,-0.085,-0.43
00:45:18.152:1,-0.1,-0.445
00:45:18.156:1,-0.105,-0.445
00:45:18.160:1,-0.135,-0.47
00:45:18.164:1,-0.15,-0.45
00:45:18.168:1,-0.145,-0.48
00:45:18.172:1,-0.16,-0.47
00:45:18.176:1,-0.14,-0.45
00:45:18.180:1,-0.135,-0.45
00:45:18.184:1,-0.135,-0.45
00:45:18.188:1,-0.11,-0.425
00:45:18.192:1,-0.115,-0.43
00:45:18.196:1,-0.115,-0.42
00:45:18.200:1,-0.125,-0.41
00:45:18.204:1,-0.1,-0.39
00:45:18.208:1,-0.08,-0.395
00:45:18.212:1,-0.085,-0.395
00:45:18.216:1,-0.05,-0.43
00:45:18.220:1,-0.02,-0.385
00:45:18.224:1,-0.05,-0.345
00:45:18.228:1,-0.065,-0.335
00:45:18.232:1,-0.08,-0.34
00:45:18.236:1,-0.085,-0.315
00:45:18.240:1,-0.025,-0.31
00:45:18.244:1,0.0,-0.295
00:45:18.248:1,-0.01,-0.31
00:45:18.252:1,0.01,-0.34
00:45:18.256:1,0.0,-0.305
00:45:18.260:1,-0.015,-0.315
00:45:18.264:1,0.025,-0.3
00:45:18.268:1,0.005,-0.285
00:45:18.272:1,-0.005,-0.285
00:45:18.276:1,-0.02,-0.32
00:45:18.280:1,0.005,-0.325
00:45:18.284:1,-0.005,-0.32
00:45:18.288:1,0.0,-0.29
00:45:18.292:1,0.015,-0.32
00:45:18.296:1,-0.02,-0.335
00:45:18.300:1,-0.01,-0.36
00:45:18.304:1,-0.01,-0.33
00:45:18.308:1,0.015,-0.34
00:45:18.312:1,0.01,-0.355
00:45:18.316:1,0.015,-0.375
00:45:18.320:1,0.0,-0.355
00:45:18.324:1,0.005,-0.375
00:45:18.328:1,-0.03,-0.4
00:45:18.332:1,-0.065,-0.4
00:45:18.336:1,-0.085,-0.405
00:45:18.340:1,-0.09,-0.415
00:45:18.344:1,-0.105,-0.425
00:45:18.348:1,-0.11,-0.43
00:45:18.352:1,-0.14,-0.4
00:45:18.356:1,-0.13,-0.41
00:45:18.360:1,-0.18,-0.43
00:45:18.364:1,-0.17,-0.43
00:45:18.368:1,-0.145,-0.43
00:45:18.372:1,-0.15,-0.42
00:45:18.376:1,-0.145,-0.405
00:45:18.380:1,-0.16,-0.39
00:45:18.384:1,-0.16,-0.38
00:45:18.388:1,-0.12,-0.265
00:45:18.392:1,-0.13,-0.12
00:45:18.396:1,-0.12,0.125
00:45:18.400:1,-0.06,0.47
00:45:18.404:1,-0.005,0.775
00:45:18.408:1,-0.04,0.96
00:45:18.412:1,-0.22,1.115
00:45:18.416:1,-0.525,1.31
00:45:18.420:1,-1.01,1.56
00:45:18.424:1,-1.56,1.75
00:45:18.428:1,-2.08,1.78
00:45:18.432:1,-2.52,1.77
00:45:18.436:1,-2.635,1.78
00:45:18.440:1,-2.57,1.675
00:45:18.444:1,-2.445,1.57
00:45:18.448:1,-2.25,1.49
00:45:18.452:1,-2.16,1.445
00:45:18.456:1,-2.025,1.425
00:45:18.460:1,-1.86,1.48
00:45:18.464:1,-1.71,1.55
00:45:18.468:1,-1.62,1.61
00:45:18.472:1,-1.505,1.48
00:45:18.476:1,-1.38,1.06
00:45:18.480:1,-1.28,0.47
00:45:18.484:1,-1.205,0.005
00:45:18.488:1,-1.08,-0.305
00:45:18.492:1,-0.955,-0.505
00:45:18.496:1,-0.83,-0.6
00:45:18.500:1,-0.69,-0.595
00:45:18.504:1,-0.525,-0.615
00:45:18.508:1,-0.32,-0.64
00:45:18.512:1,-0.145,-0.63
00:45:18.516:1,0.01,-0.62
00:45:18.520:1,0.145,-0.635
00:45:18.524:1,0.22,-0.67
00:45:18.528:1,0.255,-0.7
00:45:18.532:1,0.23,-0.685
00:45:18.536:1,0.24,-0.685
00:45:18.540:1,0.245,-0.715
00:45:18.544:1,0.235,-0.72
00:45:18.548:1,0.25,-0.72
00:45:18.552:1,0.225,-0.73
00:45:18.556:1,0.25,-0.735
00:45:18.560:1,0.23,-0.745
00:45:18.564:1,0.23,-0.745
00:45:18.568:1,0.235,-0.705
00:45:18.572:1,0.235,-0.69
00:45:18.576:1,0.24,-0.725
00:45:18.580:1,0.25,-0.72
00:45:18.584:1,0.26,-0.71
00:45:18.588:1,0.28,-0.715
00:45:18.592:1,0.29,-0.7
00:45:18.596:1,0.31,-0.68
00:45:18.600:1,0.33,-0.645
00:45:18.604:1,0.345,-0.635
00:45:18.608:1,0.39,-0.67
00:45:18.612:1,0.42,-0.68
00:45:18.616:1,0.43,-0.655
00:45:18.620:1,0.47,-0.61
00:45:18.624:1,0.48,-0.63
00:45:18.628:1,0.505,-0.645
00:45:18.632:1,0.54,-0.625
00:45:18.636:1,0.59,-0.62
00:45:18.640:1,0.605,-0.64
00:45:18.644:1,0.64,-0.655
00:45:18.648:1,0.69,-0.675
00:45:18.652:1,0.695,-0.66
00:45:18.656:1,0.725,-0.685
00:45:18.660:1,0.74,-0.7
00:45:18.664:1,0.79,-0.705
00:45:18.668:1,0.795,-0.705
00:45:18.672:1,0.81,-0.695
00:45:18.676:1,0.815,-0.705
00:45:18.680:1,0.835,-0.71
00:45:18.684:1,0.825,-0.64
00:45:18.688:1,0.84,-0.635
00:45:18.692:1,0.85,-0.64
00:45:18.696:1,0.85,-0.62
00:45:18.700:1,0.87,-0.57
00:45:18.704:1,0.855,-0.51
00:45:18.708:1,0.82,-0.485
00:45:18.712:1,0.795,-0.48
00:45:18.716:1,0.755,-0.485
00:45:18.720:1,0.77,-0.42
00:45:18.724:1,0.725,-0.4
00:45:18.728:1,0.655,-0.395
00:45:18.732:1,0.56,-0.36
00:45:18.736:1,0.54,-0.33
00:45:18.740:1,0.445,-0.305
00:45:18.744:1,0.435,-0.34
00:45:18.748:1,0.36,-0.32
00:45:18.752:1,0.32,-0.305
00:45:18.756:1,0.27,-0.345
00:45:18.760:1,0.235,-0.35
00:45:18.764:1,0.19,-0.37
00:45:18.768:1,0.15,-0.395
00:45:18.772:1,0.125,-0.385
00:45:18.776:1,0.085,-0.405
00:45:18.780:1,0.06,-0.415
00:45:18.784:1,0.055,-0.425
00:45:18.788:1,0.035,-0.445
00:45:18.792:1,0.035,-0.465
00:45:18.796:1,0.04,-0.49
00:45:18.800:1,0.04,-0.47
00:45:18.804:1,0.035,-0.46
00:45:18.808:1,0.025,-0.43
00:45:18.812:1,0.025,-0.44
00:45:18.816:1,0.02,-0.46
00:45:18.820:1,0.04,-0.46
00:45:18.824:1,0.085,-0.445
00:45:18.828:1,0.07,-0.44
00:45:18.832:1,0.07,-0.415
00:45:18.836:1,0.085,-0.425
00:45:18.840:1,0.09,-0.435
00:45:18.844:1,0.11,-0.435
00:45:18.848:1,0.13,-0.42
00:45:18.852:1,0.15,-0.41
00:45:18.856:1,0.14,-0.44
00:45:18.860:1,0.135,-0.425
00:45:18.864:1,0.145,-0.415
00:45:18.868:1,0.14,-0.43
00:45:18.872:1,0.14,-0.43
00:45:18.876:1,0.145,-0.43
00:45:18.880:1,0.18,-0.45
00:45:18.884:1,0.15,-0.445
00:45:18.888:1,0.145,-0.435
00:45:18.892:1,0.155,-0.45
00:45:18.896:1,0.14,-0.44
00:45:18.900:1,0.14,-0.435
00:45:18.904:1,0.14,-0.44
00:45:18.908:1,0.145,-0.435
00:45:18.912:1,0.15,-0.435
00:45:18.916:1,0.155,-0.43
00:45:18.920:1,0.155,-0.425
00:45:18.924:1,0.15,-0.45
00:45:18.928:1,0.13,-0.465
00:45:18.932:1,0.115,-0.45
00:45:18.936:1,0.075,-0.43
00:45:18.940:1,0.03,-0.455
00:45:18.944:1,0.0,-0.45
00:45:18.948:1,-0.01,-0.45
00:45:18.952:1,-0.02,-0.46
00:45:18.956:1,-0.035,-0.49
00:45:18.960:1,-0.05,-0.49
00:45:18.964:1,-0.04,-0.505
00:45:18.968:1,-0.03,-0.49
00:45:18.972:1,-0.06,-0.49
00:45:18.976:1,-0.065,-0.525
00:45:18.980:1,-0.065,-0.51
00:45:18.984:1,-0.075,-0.495
00:45:18.988:1,-0.06,-0.505
00:45:18.992:1,-0.045,-0.535
00:45:18.996:1,-0.055,-0.555
00:45:19.000:1,-0.06,-0.53
00:45:19.004:1,-0.065,-0.51
00:45:19.008:1,-0.065,-0.475
00:45:19.012:1,-0.055,-0.46
00:45:19.016:1,-0.07,-0.47
00:45:19.020:1,-0.03,-0.47
00:45:19.024:1,-0.02,-0.49
00:45:19.028:1,-0.005,-0.45
00:45:19.032:1,-0.03,-0.375
00:45:19.036:1,-0.025,-0.29
00:45:19.040:1,-0.03,-0.21
00:45:19.044:1,-0.01,-0.02
00:45:19.048:1,0.04,0.255
00:45:19.052:1,0.105,0.575
00:45:19.056:1,0.15,0.815
00:45:19.060:1,0.025,0.975
00:45:19.064:1,-0.26,1.155
00:45:19.068:1,-0.74,1.38
00:45:19.072:1,-1.36,1.565
00:45:19.076:1,-1.915,1.635
00:45:19.080:1,-2.38,1.67
00:45:19.084:1,-2.59,1.68
00:45:19.088:1,-2.565,1.65
00:45:19.092:1,-2.46,1.55
00:45:19.096:1,-2.265,1.505
00:45:19.100:1,-2.135,1.445
00:45:19.104:1,-2.0,1.385
00:45:19.108:1,-1.86,1.36
00:45:19.112:1,-1.71,1.375
00:45:19.116:1,-1.595,1.415
00:45:19.120:1,-1.475,1.37
00:45:19.124:1,-1.355,1.08
00:45:19.128:1,-1.26,0.595
00:45:19.132:1,-1.165,0.08
00:45:19.136:1,-1.105,-0.285
00:45:19.140:1,-1.045,-0.55
00:45:19.144:1,-0.92,-0.68
00:45:19.148:1,-0.775,-0.715
00:45:19.152:1,-0.675,-0.72
00:45:19.156:1,-0.52,-0.76
00:45:19.160:1,-0.32,-0.75
00:45:19.164:1,-0.13,-0.75
00:45:19.168:1,-0.015,-0.76
00:45:19.172:1,0.085,-0.8
00:45:19.176:1,0.165,-0.79
00:45:19.180:1,0.23,-0.75
00:45:19.184:1,0.24,-0.775
00:45:19.188:1,0.265,-0.79
00:45:19.192:1,0.285,-0.81
00:45:19.196:1,0.315,-0.8
00:45:19.200:1,0.325,-0.79
00:45:19.204:1,0.355,-0.785
00:45:19.208:1,0.36,-0.765
00:45:19.212:1,0.34,-0.72
00:45:19.216:1,0.385,-0.705
00:45:19.220:1,0.405,-0.72
00:45:19.224:1,0.44,-0.755
00:45:19.228:1,0.465,-0.725
00:45:19.232:1,0.48,-0.68
00:45:19.236:1,0.5,-0.66
00:45:19.240:1,0.495,-0.67
00:45:19.244:1,0.515,-0.705
00:45:19.248:1,0.57,-0.685
00:45:19.252:1,0.605,-0.645
00:45:19.256:1,0.62,-0.67
00:45:19.260:1,0.63,-0.67
00:45:19.264:1,0.69,-0.65
00:45:19.268:1,0.71,-0.685
00:45:19.272:1,0.745,-0.675
00:45:19.276:1,0.775,-0.675
00:45:19.280:1,0.795,-0.68
00:45:19.284:1,0.825,-0.685
00:45:19.288:1,0.83,-0.695
00:45:19.292:1,0.85,-0.71
00:45:19.296:1,0.895,-0.69
00:45:19.300:1,0.93,-0.69
00:45:19.304:1,0.92,-0.705
00:45:19.308:1,0.97,-0.72
00:45:19.312:1,0.975,-0.705
00:45:19.316:1,1.015,-0.695
00:45:19.320:1,1.02,-0.675
00:45:19.324:1,1.05,-0.68
00:45:19.328:1,1.075,-0.705
00:45:19.332:1,1.105,-0.695
00:45:19.336:1,1.075,-0.685
00:45:19.340:1,1.015,-0.66
00:45:19.344:1,0.96,-0.635
00:45:19.348:1,0.895,-0.59
00:45:19.352:1,0.87,-0.575
00:45:19.356:1,0.81,-0.555
00:45:19.360:1,0.78,-0.53
00:45:19.364:1,0.72,-0.475
00:45:19.368:1,0.68,-0.47
00:45:19.372:1,0.62,-0.455
00:45:19.376:1,0.595,-0.425
00:45:19.380:1,0.515,-0.425
00:45:19.384:1,0.475,-0.415
00:45:19.388:1,0.41,-0.42
00:45:19.392:1,0.35,-0.4
00:45:19.396:1,0.33,-0.345
00:45:19.400:1,0.325,-0.26
00:45:19.404:1,0.28,-0.3
00:45:19.408:1,0.275,-0.33
00:45:19.412:1,0.215,-0.42
00:45:19.416:1,0.22,-0.43
00:45:19.420:1,0.2,-0.45
00:45:19.424:1,0.2,-0.515
00:45:19.428:1,0.19,-0.57
00:45:19.432:1,0.175,-0.525
00:45:19.436:1,0.165,-0.46
00:45:19.440:1,0.195,-0.415
00:45:19.444:1,0.21,-0.45
00:45:19.448:1,0.235,-0.505
00:45:19.452:1,0.265,-0.465
00:45:19.456:1,0.245,-0.465
00:45:19.460:1,0.25,-0.45
00:45:19.464:1,0.24,-0.41
00:45:19.468:1,0.245,-0.41
00:45:19.472:1,0.28,-0.445
00:45:19.476:1,0.26,-0.43
00:45:19.480:1,0.285,-0.415
00:45:19.484:1,0.27,-0.42
00:45:19.488:1,0.245,-0.45
00:45:19.492:1,0.23,-0.455
00:45:19.496:1,0.22,-0.455
00:45:19.500:1,0.215,-0.475
00:45:19.504:1,0.225,-0.46
00:45:19.508:1,0.225,-0.465
00:45:19.512:1,0.235,-0.445
00:45:19.516:1,0.25,-0.415
00:45:19.520:1,0.24,-0.415
00:45:19.524:1,0.225,-0.46
00:45:19.528:1,0.27,-0.465
00:45:19.532:1,0.275,-0.395
00:45:19.536:1,0.25,-0.25
00:45:19.540:1,0.215,-0.09
00:45:19.544:1,0.165,-0.1
00:45:19.548:1,0.125,-0.31
00:45:19.552:1,0.11,-0.545
00:45:19.556:1,0.115,-0.64
00:45:19.560:1,0.115,-0.655
00:45:19.564:1,0.12,-0.615
00:45:19.568:1,0.08,-0.535
00:45:19.572:1,0.09,-0.57
00:45:19.576:1,0.065,-0.51
00:45:19.580:1,0.07,-0.38
00:45:19.584:1,0.065,-0.405
00:45:19.588:1,0.075,-0.41
00:45:19.592:1,0.085,-0.335
00:45:19.596:1,0.08,-0.44
00:45:19.600:1,0.105,-0.705
00:45:19.604:1,0.09,-0.935
00:45:19.608:1,0.055,-0.915
00:45:19.612:1,0.035,-0.775
00:45:19.616:1,0.07,-0.64
00:45:19.620:1,0.11,-0.59
00:45:19.624:1,0.135,-0.565
00:45:19.628:1,0.165,-0.565
00:45:19.632:1,0.16,-0.55
00:45:19.636:1,0.16,-0.565
00:45:19.640:1,0.15,-0.53
00:45:19.644:1,0.115,-0.52
00:45:19.648:1,0.115,-0.54
00:45:19.652:1,0.12,-0.545
00:45:19.656:1,0.17,-0.51
00:45:19.660:1,0.195,-0.46
00:45:19.664:1,0.22,-0.44
00:45:19.668:1,0.25,-0.45
00:45:19.672:1,0.25,-0.44
00:45:19.676:1,0.22,-0.395
00:45:19.680:1,0.205,-0.305
00:45:19.684:1,0.24,-0.315
00:45:19.688:1,0.235,-0.415
00:45:19.692:1,0.215,-0.49
00:45:19.696:1,0.2,-0.5
00:45:19.700:1,0.195,-0.47
00:45:19.704:1,0.22,-0.43
00:45:19.708:1,0.245,-0.395
00:45:19.712:1,0.265,-0.435
00:45:19.716:1,0.27,-0.5
00:45:19.720:1,0.255,-0.57
00:45:19.724:1,0.265,-0.565
00:45:19.728:1,0.255,-0.55
00:45:19.732:1,0.255,-0.57
00:45:19.736:1,0.245,-0.63
00:45:19.740:1,0.215,-0.65
00:45:19.744:1,0.215,-0.62
00:45:19.748:1,0.19,-0.55
00:45:19.752:1,0.16,-0.44
00:45:19.756:1,0.14,-0.275
00:45:19.760:1,0.1,-0.345
00:45:19.764:1,0.08,-0.64
00:45:19.768:1,0.06,-0.855
00:45:19.772:1,0.045,-0.805
00:45:19.776:1,0.055,-0.72
00:45:19.780:1,0.075,-0.7
00:45:19.784:1,0.115,-0.71
00:45:19.788:1,0.1,-0.77
00:45:19.792:1,0.055,-0.755
00:45:19.796:1,0.04,-0.75
00:45:19.800:1,0.055,-0.75
00:45:19.804:1,0.085,-0.745
00:45:19.808:1,0.09,-0.71
00:45:19.812:1,0.07,-0.685
00:45:19.816:1,0.05,-0.67
00:45:19.820:1,0.06,-0.655
00:45:19.824:1,0.075,-0.57
00:45:19.828:1,0.055,-0.46
00:45:19.832:1,0.06,-0.38
00:45:19.836:1,0.08,-0.255
00:45:19.840:1,0.07,-0.255
00:45:19.844:1,0.09,-0.45
00:45:19.848:1,0.055,-0.595
00:45:19.852:1,0.035,-0.51
00:45:19.856:1,0.08,-0.28
00:45:19.860:1,0.22,0.27
00:45:19.864:1,0.305,0.72
00:45:19.868:1,0.265,0.745
00:45:19.872:1,-0.025,0.655
00:45:19.876:1,-0.535,0.79
00:45:19.880:1,-1.21,1.04
00:45:19.884:1,-1.85,1.24
00:45:19.888:1,-2.35,1.425
00:45:19.892:1,-2.58,1.56
00:45:19.896:1,-2.53,1.495
00:45:19.900:1,-2.41,1.305
00:45:19.904:1,-2.245,1.21
00:45:19.908:1,-2.11,1.205
00:45:19.912:1,-2.0,1.2
00:45:19.916:1,-1.82,1.185
00:45:19.920:1,-1.655,1.17
00:45:19.924:1,-1.53,1.195
00:45:19.928:1,-1.41,1.145
00:45:19.932:1,-1.29,0.895
00:45:19.936:1,-1.18,0.41
00:45:19.940:1,-1.105,-0.09
00:45:19.944:1,-1.035,-0.415
00:45:19.948:1,-0.945,-0.59
00:45:19.952:1,-0.82,-0.665
00:45:19.956:1,-0.69,-0.71
00:45:19.960:1,-0.58,-0.775
00:45:19.964:1,-0.42,-0.765
00:45:19.968:1,-0.25,-0.895
00:45:19.972:1,-0.08,-1.085
00:45:19.976:1,0.055,-1.235
00:45:19.980:1,0.195,-1.25
00:45:19.984:1,0.25,-1.23
00:45:19.988:1,0.31,-1.155
00:45:19.992:1,0.39,-1.08
00:45:19.996:1,0.39,-0.955
00:45:20.000:1,0.395,-0.97
00:45:20.004:1,0.42,-1.08
00:45:20.008:1,0.44,-1.185
00:45:20.012:1,0.415,-1.145
00:45:20.016:1,0.44,-1.1
00:45:20.020:1,0.45,-1.055
00:45:20.024:1,0.52,-1.0
00:45:20.028:1,0.575,-0.95
00:45:20.032:1,0.565,-0.93
00:45:20.036:1,0.56,-0.965
00:45:20.040:1,0.58,-0.865
00:45:20.044:1,0.58,-0.76
00:45:20.048:1,0.62,-0.81
00:45:20.052:1,0.615,-0.96
00:45:20.056:1,0.655,-0.965
00:45:20.060:1,0.69,-0.885
00:45:20.064:1,0.705,-0.875
00:45:20.068:1,0.735,-0.91
00:45:20.072:1,0.815,-0.925
00:45:20.076:1,0.845,-0.92
00:45:20.080:1,0.855,-1.01
00:45:20.084:1,0.875,-1.13
00:45:20.088:1,0.915,-1.16
00:45:20.092:1,0.925,-1.065
00:45:20.096:1,0.935,-0.905
00:45:20.100:1,0.96,-0.805
00:45:20.104:1,0.995,-0.86
00:45:20.108:1,1.02,-1.01
00:45:20.112:1,1.045,-1.12
00:45:20.116:1,1.04,-1.115
00:45:20.120:1,1.075,-1.065
00:45:20.124:1,1.095,-1.0
00:45:20.128:1,1.135,-1.005
00:45:20.132:1,1.145,-0.97
00:45:20.136:1,1.145,-0.94
00:45:20.140:1,1.17,-0.865
00:45:20.144:1,1.135,-0.84
00:45:20.148:1,1.08,-0.875
00:45:20.152:1,1.015,-0.95
00:45:20.156:1,0.96,-0.93
00:45:20.160:1,0.905,-0.825
00:45:20.164:1,0.86,-0.815
00:45:20.168:1,0.79,-0.765
00:45:20.172:1,0.755,-0.635
00:45:20.176:1,0.7,-0.595
00:45:20.180:1,0.635,-0.765
00:45:20.184:1,0.555,-0.93
00:45:20.188:1,0.5,-0.915
00:45:20.192:1,0.45,-0.865
00:45:20.196:1,0.405,-0.84
00:45:20.200:1,0.375,-0.8
00:45:20.204:1,0.34,-0.74
00:45:20.208:1,0.33,-0.7
00:45:20.212:1,0.275,-0.715
00:45:20.216:1,0.245,-0.75
00:45:20.220:1,0.21,-0.715
00:45:20.224:1,0.23,-0.69
00:45:20.228:1,0.18,-0.68
00:45:20.232:1,0.15,-0.68
00:45:20.236:1,0.145,-0.685
00:45:20.240:1,0.185,-0.695
00:45:20.244:1,0.175,-0.7
00:45:20.248:1,0.17,-0.68
00:45:20.252:1,0.18,-0.605
00:45:20.256:1,0.215,-0.51
00:45:20.260:1,0.23,-0.495
00:45:20.264:1,0.195,-0.71
00:45:20.268:1,0.22,-0.87
00:45:20.272:1,0.225,-0.87
00:45:20.276:1,0.2,-0.76
00:45:20.280:1,0.225,-0.605
00:45:20.284:1,0.27,-0.445
00:45:20.288:1,0.285,-0.505
00:45:20.292:1,0.275,-0.685
00:45:20.296:1,0.26,-0.825
00:45:20.300:1,0.26,-0.895
00:45:20.304:1,0.235,-0.895
00:45:20.308:1,0.26,-0.845
00:45:20.312:1,0.29,-0.79
00:45:20.316:1,0.315,-0.72
00:45:20.320:1,0.305,-0.735
00:45:20.324:1,0.275,-0.78
00:45:20.328:1,0.275,-0.75
00:45:20.332:1,0.31,-0.705
00:45:20.336:1,0.325,-0.75
00:45:20.340:1,0.305,-0.795
00:45:20.344:1,0.29,-0.785
00:45:20.348:1,0.225,-0.76
00:45:20.352:1,0.21,-0.705
00:45:20.356:1,0.155,-0.765
00:45:20.360:1,0.135,-0.785
00:45:20.364:1,0.145,-0.68
00:45:20.368:1,0.135,-0.535
00:45:20.372:1,0.1,-0.665
00:45:20.376:1,0.085,-0.83
00:45:20.380:1,0.075,-0.94
00:45:20.384:1,0.08,-0.91
00:45:20.388:1,0.015,-0.835
00:45:20.392:1,0.05,-0.72
00:45:20.396:1,0.095,-0.525
00:45:20.400:1,0.11,-0.51
00:45:20.404:1,0.09,-0.81
00:45:20.408:1,0.075,-1.025
00:45:20.412:1,0.055,-0.925
00:45:20.416:1,0.025,-0.815
00:45:20.420:1,0.045,-0.8
00:45:20.424:1,0.11,-0.78
00:45:20.428:1,0.145,-0.705
00:45:20.432:1,0.155,-0.69
00:45:20.436:1,0.17,-0.695
00:45:20.440:1,0.175,-0.725
00:45:20.444:1,0.16,-0.68
00:45:20.448:1,0.18,-0.675
00:45:20.452:1,0.145,-0.65
00:45:20.456:1,0.19,-0.66
00:45:20.460:1,0.225,-0.615
00:45:20.464:1,0.23,-0.625
00:45:20.468:1,0.22,-0.63
00:45:20.472:1,0.21,-0.605
00:45:20.476:1,0.23,-0.54
00:45:20.480:1,0.225,-0.535
00:45:20.484:1,0.21,-0.57
00:45:20.488:1,0.23,-0.6
00:45:20.492:1,0.265,-0.545
00:45:20.496:1,0.25,-0.505
00:45:20.500:1,0.19,-0.495
00:45:20.504:1,0.23,-0.475
00:45:20.508:1,0.23,-0.515
00:45:20.512:1,0.235,-0.58
00:45:20.516:1,0.25,-0.545
00:45:20.520:1,0.28,-0.455
00:45:20.524:1,0.275,-0.41
00:45:20.528:1,0.295,-0.36
00:45:20.532:1,0.315,-0.275
00:45:20.536:1,0.37,0.05
00:45:20.540:1,0.37,0.38
00:45:20.544:1,0.33,0.6
00:45:20.548:1,0.125,0.785
00:45:20.552:1,-0.335,1.0
00:45:20.556:1,-1.035,1.215
00:45:20.560:1,-1.68,1.37
00:45:20.564:1,-2.225,1.41
00:45:20.568:1,-2.605,1.355
00:45:20.572:1,-2.65,1.27
00:45:20.576:1,-2.475,1.15
00:45:20.580:1,-2.325,1.1
00:45:20.584:1,-2.21,1.075
00:45:20.588:1,-2.12,1.065
00:45:20.592:1,-1.93,1.055
00:45:20.596:1,-1.76,1.06
00:45:20.600:1,-1.655,1.11
00:45:20.604:1,-1.5,1.15
00:45:20.608:1,-1.345,0.985
00:45:20.612:1,-1.28,0.52
00:45:20.616:1,-1.205,-0.07
00:45:20.620:1,-1.065,-0.475
00:45:20.624:1,-0.91,-0.74
00:45:20.628:1,-0.77,-0.895
00:45:20.632:1,-0.655,-0.965
00:45:20.636:1,-0.5,-0.93
00:45:20.640:1,-0.315,-0.94
00:45:20.644:1,-0.07,-0.975
00:45:20.648:1,0.115,-0.98
00:45:20.652:1,0.265,-0.98
00:45:20.656:1,0.37,-0.985
00:45:20.660:1,0.44,-0.96
00:45:20.664:1,0.495,-0.965
00:45:20.668:1,0.52,-0.93
00:45:20.672:1,0.535,-0.9
00:45:20.676:1,0.585,-0.875
00:45:20.680:1,0.585,-0.92
00:45:20.684:1,0.615,-0.975
00:45:20.688:1,0.645,-0.93
00:45:20.692:1,0.685,-0.895
00:45:20.696:1,0.65,-0.87
00:45:20.700:1,0.66,-0.875
00:45:20.704:1,0.665,-0.92
00:45:20.708:1,0.675,-0.975
00:45:20.712:1,0.685,-1.02
00:45:20.716:1,0.685,-0.945
00:45:20.720:1,0.675,-0.9
00:45:20.724:1,0.7,-0.905
00:45:20.728:1,0.72,-0.93
00:45:20.732:1,0.765,-1.005
00:45:20.736:1,0.82,-0.995
00:45:20.740:1,0.83,-0.985
00:45:20.744:1,0.725,-1.005
00:45:20.748:1,0.72,-0.97
00:45:20.752:1,0.705,-0.965
00:45:20.756:1,0.705,-0.975
00:45:20.760:1,0.715,-1.035
00:45:20.764:1,0.71,-1.06
00:45:20.768:1,0.735,-1.035
00:45:20.772:1,0.75,-1.04
00:45:20.776:1,0.745,-1.115
00:45:20.780:1,0.765,-1.155
00:45:20.784:1,0.8,-1.14
00:45:20.788:1,0.81,-1.14
00:45:20.792:1,0.81,-1.145
00:45:20.796:1,0.86,-1.14
00:45:20.800:1,0.865,-1.12
00:45:20.804:1,0.88,-1.16
00:45:20.808:1,0.855,-1.155
00:45:20.812:1,0.865,-1.135
00:45:20.816:1,0.845,-1.07
00:45:20.820:1,0.84,-1.035
00:45:20.824:1,0.825,-1.01
00:45:20.828:1,0.815,-0.98
00:45:20.832:1,0.8,-0.92
00:45:20.836:1,0.775,-0.85
00:45:20.840:1,0.755,-0.775
00:45:20.844:1,0.74,-0.725
00:45:20.848:1,0.69,-0.665
00:45:20.852:1,0.64,-0.625
00:45:20.856:1,0.595,-0.64
00:45:20.860:1,0.57,-0.61
00:45:20.864:1,0.535,-0.595
00:45:20.868:1,0.49,-0.585
00:45:20.872:1,0.435,-0.55
00:45:20.876:1,0.385,-0.51
00:45:20.880:1,0.37,-0.5
00:45:20.884:1,0.35,-0.485
00:45:20.888:1,0.325,-0.485
00:45:20.892:1,0.32,-0.545
00:45:20.896:1,0.25,-0.56
00:45:20.900:1,0.24,-0.58
00:45:20.904:1,0.235,-0.555
00:45:20.908:1,0.22,-0.55
00:45:20.912:1,0.185,-0.57
00:45:20.916:1,0.175,-0.585
00:45:20.920:1,0.185,-0.555
00:45:20.924:1,0.22,-0.53
00:45:20.928:1,0.23,-0.565
00:45:20.932:1,0.175,-0.625
00:45:20.936:1,0.13,-0.65
00:45:20.940:1,0.105,-0.635
00:45:20.944:1,0.07,-0.645
00:45:20.948:1,0.01,-0.66
00:45:20.952:1,0.045,-0.685
00:45:20.956:1,0.035,-0.69
00:45:20.960:1,0.015,-0.675
00:45:20.964:1,-0.01,-0.745
00:45:20.968:1,-0.055,-0.78
00:45:20.972:1,-0.05,-0.72
00:45:20.976:1,-0.025,-0.69
00:45:20.980:1,-0.045,-0.72
00:45:20.984:1,-0.055,-0.73
00:45:20.988:1,-0.06,-0.71
00:45:20.992:1,-0.035,-0.725
00:45:20.996:1,-0.075,-0.77
00:45:21.000:1,-0.085,-0.79
00:45:21.004:1,-0.05,-0.745
00:45:21.008:1,-0.03,-0.705
00:45:21.012:1,-0.045,-0.655
00:45:21.016:1,-0.065,-0.55
00:45:21.020:1,-0.065,-0.49
00:45:21.024:1,-0.015,-0.625
00:45:21.028:1,0.0,-0.795
00:45:21.032:1,0.005,-0.77
00:45:21.036:1,-0.01,-0.665
00:45:21.040:1,-0.06,-0.635
00:45:21.044:1,-0.005,-0.63
00:45:21.048:1,0.01,-0.575
00:45:21.052:1,0.01,-0.565
00:45:21.056:1,0.03,-0.595
00:45:21.060:1,0.06,-0.61
00:45:21.064:1,0.07,-0.555
00:45:21.068:1,0.105,-0.535
00:45:21.072:1,0.09,-0.54
00:45:21.076:1,0.105,-0.525
00:45:21.080:1,0.07,-0.51
00:45:21.084:1,0.06,-0.54
00:45:21.088:1,0.085,-0.55
00:45:21.092:1,0.11,-0.54
00:45:21.096:1,0.135,-0.545
00:45:21.100:1,0.14,-0.515
00:45:21.104:1,0.13,-0.42
00:45:21.108:1,0.12,-0.36
00:45:21.112:1,0.095,-0.435
00:45:21.116:1,0.06,-0.61
00:45:21.120:1,0.025,-0.705
00:45:21.124:1,0.005,-0.735
00:45:21.128:1,0.025,-0.695
00:45:21.132:1,-0.005,-0.59
00:45:21.136:1,-0.015,-0.54
00:45:21.140:1,-0.025,-0.56
00:45:21.144:1,-0.005,-0.525
00:45:21.148:1,0.0,-0.485
00:45:21.152:1,-0.035,-0.55
00:45:21.156:1,-0.025,-0.695
00:45:21.160:1,-0.02,-0.725
00:45:21.164:1,-0.055,-0.695
00:45:21.168:1,-0.08,-0.63
00:45:21.172:1,-0.06,-0.615
00:45:21.176:1,-0.04,-0.59
00:45:21.180:1,-0.06,-0.58
00:45:21.184:1,-0.065,-0.62
00:45:21.188:1,-0.06,-0.615
00:45:21.192:1,-0.075,-0.605
00:45:21.196:1,-0.02,-0.635
00:45:21.200:1,0.0,-0.625
00:45:21.204:1,0.0,-0.61
00:45:21.208:1,0.02,-0.595
00:45:21.212:1,0.03,-0.58
00:45:21.216:1,0.005,-0.58
00:45:21.220:1,0.04,-0.555
00:45:21.224:1,0.075,-0.48
00:45:21.228:1,0.085,-0.48
00:45:21.232:1,0.06,-0.43
00:45:21.236:1,0.045,-0.295
00:45:21.240:1,0.075,-0.135
00:45:21.244:1,0.11,0.15
00:45:21.248:1,0.17,0.46
00:45:21.252:1,0.225,0.65
00:45:21.256:1,0.0,0.81
00:45:21.260:1,-0.385,1.09
00:45:21.264:1,-0.98,1.4
00:45:21.268:1,-1.63,1.635
00:45:21.272:1,-2.175,1.72
00:45:21.276:1,-2.475,1.835
00:45:21.280:1,-2.51,1.92
00:45:21.284:1,-2.38,1.815
00:45:21.288:1,-2.17,1.77
00:45:21.292:1,-2.04,1.79
00:45:21.296:1,-1.91,1.72
00:45:21.300:1,-1.71,1.71
