Time,ECG1,ECG2
18:04:00.648,0.415,-1.735
18:04:00.652,0.025,-1.385
18:04:00.656,-0.28,-0.935
18:04:00.660,-0.405,-0.625
18:04:00.664,-0.445,-0.48
18:04:00.668,-0.44,-0.38
18:04:00.672,-0.435,-0.31
18:04:00.676,-0.46,-0.245
18:04:00.680,-0.46,-0.22
18:04:00.684,-0.44,-0.175
18:04:00.688,-0.46,-0.165
18:04:00.692,-0.46,-0.165
18:04:00.696,-0.45,-0.17
18:04:00.700,-0.425,-0.18
18:04:00.704,-0.415,-0.195
18:04:00.708,-0.4,-0.2
18:04:00.712,-0.38,-0.16
18:04:00.716,-0.35,-0.185
18:04:00.720,-0.33,-0.135
18:04:00.724,-0.335,-0.15
18:04:00.728,-0.345,-0.19
18:04:00.732,-0.31,-0.18
18:04:00.736,-0.3,-0.17
18:04:00.740,-0.305,-0.16
18:04:00.744,-0.315,-0.15
18:04:00.748,-0.315,-0.17
18:04:00.752,-0.285,-0.165
18:04:00.756,-0.32,-0.16
18:04:00.760,-0.285,-0.15
18:04:00.764,-0.255,-0.12
18:04:00.768,-0.245,-0.095
18:04:00.772,-0.26,-0.105
18:04:00.776,-0.29,-0.075
18:04:00.780,-0.3,-0.06
18:04:00.784,-0.29,-0.03
18:04:00.788,-0.275,-0.015
18:04:00.792,-0.245,-0.015
18:04:00.796,-0.24,-0.015
18:04:00.800,-0.24,-0.01
18:04:00.804,-0.22,-0.025
18:04:00.808,-0.21,-0.04
18:04:00.812,-0.225,-0.065
18:04:00.816,-0.22,-0.075
18:04:00.820,-0.225,-0.08
18:04:00.824,-0.23,-0.08
18:04:00.828,-0.235,-0.115
18:04:00.832,-0.23,-0.11
18:04:00.836,-0.22,-0.12
18:04:00.840,-0.23,-0.11
18:04:00.844,-0.235,-0.14
18:04:00.848,-0.215,-0.13
18:04:00.852,-0.19,-0.165
18:04:00.856,-0.17,-0.215
18:04:00.860,-0.21,-0.255
18:04:00.864,-0.235,-0.27
18:04:00.868,-0.22,-0.265
18:04:00.872,-0.22,-0.255
18:04:00.876,-0.25,-0.27
18:04:00.880,-0.275,-0.295
18:04:00.884,-0.255,-0.325
18:04:00.888,-0.27,-0.335
18:04:00.892,-0.29,-0.335
18:04:00.896,-0.26,-0.325
18:04:00.900,-0.26,-0.35
18:04:00.904,-0.27,-0.33
18:04:00.908,-0.26,-0.33
18:04:00.912,-0.27,-0.33
18:04:00.916,-0.26,-0.32
18:04:00.920,-0.245,-0.32
18:04:00.924,-0.22,-0.295
18:04:00.928,-0.235,-0.3
18:04:00.932,-0.235,-0.28
18:04:00.936,-0.22,-0.24
18:04:00.940,-0.205,-0.235
18:04:00.944,-0.18,-0.26
18:04:00.948,-0.16,-0.28
18:04:00.952,-0.175,-0.255
18:04:00.956,-0.185,-0.24
18:04:00.960,-0.18,-0.255
18:04:00.964,-0.175,-0.26
18:04:00.968,-0.175,-0.22
18:04:00.972,-0.19,-0.2
18:04:00.976,-0.225,-0.19
18:04:00.980,-0.25,-0.215
18:04:00.984,-0.24,-0.165
18:04:00.988,-0.21,-0.17
18:04:00.992,-0.225,-0.13
18:04:00.996,-0.235,-0.14
18:04:01.000,-0.23,-0.13
18:04:01.004,-0.24,-0.135
18:04:01.008,-0.275,-0.2
18:04:01.012,-0.28,-0.2
18:04:01.016,-0.285,-0.19
18:04:01.020,-0.28,-0.17
18:04:01.024,-0.28,-0.175
18:04:01.028,-0.275,-0.19
18:04:01.032,-0.27,-0.19
18:04:01.036,-0.24,-0.185
18:04:01.040,-0.225,-0.205
18:04:01.044,-0.225,-0.2
18:04:01.048,-0.25,-0.23
18:04:01.052,-0.245,-0.285
18:04:01.056,-0.245,-0.29
18:04:01.060,-0.265,-0.3
18:04:01.064,-0.27,-0.29
18:04:01.068,-0.22,-0.28
18:04:01.072,-0.195,-0.285
18:04:01.076,-0.19,-0.295
18:04:01.080,-0.225,-0.315
18:04:01.084,-0.225,-0.31
18:04:01.088,-0.255,-0.335
18:04:01.092,-0.235,-0.335
18:04:01.096,-0.255,-0.32
18:04:01.100,-0.255,-0.31
18:04:01.104,-0.25,-0.33
18:04:01.108,-0.235,-0.335
18:04:01.112,-0.2,-0.34
18:04:01.116,-0.18,-0.36
18:04:01.120,-0.135,-0.325
18:04:01.124,-0.055,-0.34
18:04:01.128,0.01,-0.33
18:04:01.132,0.02,-0.345
18:04:01.136,0.015,-0.35
18:04:01.140,-0.005,-0.42
18:04:01.144,-0.05,-0.46
18:04:01.148,-0.12,-0.545
18:04:01.152,-0.165,-0.635
18:04:01.156,-0.19,-0.745
18:04:01.160,-0.075,-0.905
18:04:01.164,0.195,-1.08
18:04:01.168,0.51,-1.325
18:04:01.172,0.7,-1.545
18:04:01.176,0.715,-1.67
18:04:01.180,0.52,-1.635
18:04:01.184,0.185,-1.265
18:04:01.188,-0.12,-0.805
18:04:01.192,-0.265,-0.485
18:04:01.196,-0.315,-0.335
18:04:01.200,-0.315,-0.24
18:04:01.204,-0.3,-0.17
18:04:01.208,-0.33,-0.13
18:04:01.212,-0.34,-0.07
18:04:01.216,-0.32,-0.06
18:04:01.220,-0.32,-0.08
18:04:01.224,-0.335,-0.115
18:04:01.228,-0.345,-0.145
18:04:01.232,-0.365,-0.175
18:04:01.236,-0.4,-0.14
18:04:01.240,-0.4,-0.165
18:04:01.244,-0.4,-0.19
18:04:01.248,-0.37,-0.205
18:04:01.252,-0.385,-0.195
18:04:01.256,-0.375,-0.185
18:04:01.260,-0.355,-0.17
18:04:01.264,-0.345,-0.15
18:04:01.268,-0.33,-0.15
18:04:01.272,-0.325,-0.15
18:04:01.276,-0.345,-0.165
18:04:01.280,-0.34,-0.135
18:04:01.284,-0.35,-0.11
18:04:01.288,-0.38,-0.11
18:04:01.292,-0.37,-0.11
18:04:01.296,-0.37,-0.16
18:04:01.300,-0.375,-0.18
18:04:01.304,-0.39,-0.185
18:04:01.308,-0.36,-0.195
18:04:01.312,-0.345,-0.21
18:04:01.316,-0.32,-0.24
18:04:01.320,-0.335,-0.215
18:04:01.324,-0.38,-0.2
18:04:01.328,-0.375,-0.22
18:04:01.332,-0.365,-0.215
18:04:01.336,-0.37,-0.22
18:04:01.340,-0.39,-0.205
18:04:01.344,-0.375,-0.205
18:04:01.348,-0.385,-0.2
18:04:01.352,-0.39,-0.19
18:04:01.356,-0.375,-0.185
18:04:01.360,-0.375,-0.18
18:04:01.364,-0.395,-0.18
18:04:01.368,-0.405,-0.22
18:04:01.372,-0.385,-0.24
18:04:01.376,-0.395,-0.25
18:04:01.380,-0.4,-0.27
18:04:01.384,-0.375,-0.28
18:04:01.388,-0.36,-0.305
18:04:01.392,-0.35,-0.3
18:04:01.396,-0.345,-0.31
18:04:01.400,-0.325,-0.31
18:04:01.404,-0.32,-0.32
18:04:01.408,-0.345,-0.32
18:04:01.412,-0.37,-0.34
18:04:01.416,-0.395,-0.35
18:04:01.420,-0.37,-0.36
18:04:01.424,-0.35,-0.345
18:04:01.428,-0.35,-0.365
18:04:01.432,-0.355,-0.355
18:04:01.436,-0.37,-0.365
18:04:01.440,-0.36,-0.365
18:04:01.444,-0.36,-0.35
18:04:01.448,-0.35,-0.365
18:04:01.452,-0.31,-0.33
18:04:01.456,-0.315,-0.335
18:04:01.460,-0.32,-0.32
18:04:01.464,-0.32,-0.355
18:04:01.468,-0.305,-0.355
18:04:01.472,-0.305,-0.345
18:04:01.476,-0.315,-0.31
18:04:01.480,-0.315,-0.29
18:04:01.484,-0.305,-0.28
18:04:01.488,-0.32,-0.28
18:04:01.492,-0.32,-0.3
18:04:01.496,-0.345,-0.285
18:04:01.500,-0.335,-0.27
18:04:01.504,-0.32,-0.28
18:04:01.508,-0.325,-0.24
18:04:01.512,-0.33,-0.235
18:04:01.516,-0.34,-0.255
18:04:01.520,-0.355,-0.245
18:04:01.524,-0.39,-0.28
18:04:01.528,-0.405,-0.305
18:04:01.532,-0.425,-0.305
18:04:01.536,-0.42,-0.315
18:04:01.540,-0.38,-0.34
18:04:01.544,-0.375,-0.33
18:04:01.548,-0.375,-0.335
18:04:01.552,-0.38,-0.325
18:04:01.556,-0.415,-0.31
18:04:01.560,-0.43,-0.345
18:04:01.564,-0.385,-0.345
18:04:01.568,-0.325,-0.365
18:04:01.572,-0.345,-0.385
18:04:01.576,-0.365,-0.34
18:04:01.580,-0.41,-0.34
18:04:01.584,-0.4,-0.34
18:04:01.588,-0.4,-0.35
18:04:01.592,-0.37,-0.345
18:04:01.596,-0.355,-0.35
18:04:01.600,-0.35,-0.365
18:04:01.604,-0.37,-0.345
18:04:01.608,-0.38,-0.315
18:04:01.612,-0.375,-0.34
18:04:01.616,-0.375,-0.34
18:04:01.620,-0.36,-0.355
18:04:01.624,-0.365,-0.38
18:04:01.628,-0.365,-0.37
18:04:01.632,-0.355,-0.365
18:04:01.636,-0.355,-0.35
18:04:01.640,-0.39,-0.355
18:04:01.644,-0.43,-0.36
18:04:01.648,-0.415,-0.395
18:04:01.652,-0.41,-0.41
18:04:01.656,-0.37,-0.395
18:04:01.660,-0.33,-0.39
18:04:01.664,-0.31,-0.385
18:04:01.668,-0.215,-0.405
18:04:01.672,-0.1,-0.42
18:04:01.676,-0.025,-0.45
18:04:01.680,0.0,-0.495
18:04:01.684,0.03,-0.52
18:04:01.688,0.035,-0.545
18:04:01.692,0.005,-0.585
18:04:01.696,-0.06,-0.69
18:04:01.700,-0.105,-0.835
18:04:01.704,-0.015,-0.99
18:04:01.708,0.225,-1.14
18:04:01.712,0.555,-1.35
18:04:01.716,0.795,-1.555
18:04:01.720,0.815,-1.705
18:04:01.724,0.585,-1.65
18:04:01.728,0.21,-1.37
18:04:01.732,-0.12,-0.93
18:04:01.736,-0.28,-0.605
18:04:01.740,-0.365,-0.425
18:04:01.744,-0.385,-0.345
18:04:01.748,-0.375,-0.24
18:04:01.752,-0.375,-0.16
18:04:01.756,-0.385,-0.09
18:04:01.760,-0.375,-0.095
18:04:01.764,-0.355,-0.06
18:04:01.768,-0.36,-0.095
18:04:01.772,-0.355,-0.145
18:04:01.776,-0.345,-0.185
18:04:01.780,-0.355,-0.28
18:04:01.784,-0.37,-0.315
18:04:01.788,-0.4,-0.3
18:04:01.792,-0.385,-0.28
18:04:01.796,-0.375,-0.27
18:04:01.800,-0.39,-0.23
18:04:01.804,-0.415,-0.195
18:04:01.808,-0.395,-0.22
18:04:01.812,-0.385,-0.245
18:04:01.816,-0.395,-0.235
18:04:01.820,-0.41,-0.21
18:04:01.824,-0.425,-0.185
18:04:01.828,-0.42,-0.18
18:04:01.832,-0.385,-0.175
18:04:01.836,-0.365,-0.175
18:04:01.840,-0.38,-0.175
18:04:01.844,-0.4,-0.175
18:04:01.848,-0.38,-0.18
18:04:01.852,-0.43,-0.2
18:04:01.856,-0.445,-0.205
18:04:01.860,-0.44,-0.21
18:04:01.864,-0.44,-0.18
18:04:01.868,-0.41,-0.155
18:04:01.872,-0.455,-0.16
18:04:01.876,-0.455,-0.165
18:04:01.880,-0.475,-0.18
18:04:01.884,-0.455,-0.205
18:04:01.888,-0.44,-0.21
18:04:01.892,-0.45,-0.205
18:04:01.896,-0.45,-0.22
18:04:01.900,-0.425,-0.245
18:04:01.904,-0.375,-0.23
18:04:01.908,-0.36,-0.205
18:04:01.912,-0.35,-0.215
18:04:01.916,-0.34,-0.215
18:04:01.920,-0.355,-0.19
18:04:01.924,-0.345,-0.205
18:04:01.928,-0.32,-0.205
18:04:01.932,-0.32,-0.215
18:04:01.936,-0.325,-0.25
18:04:01.940,-0.31,-0.255
18:04:01.944,-0.295,-0.26
18:04:01.948,-0.285,-0.285
18:04:01.952,-0.275,-0.27
18:04:01.956,-0.235,-0.255
18:04:01.960,-0.235,-0.275
18:04:01.964,-0.2,-0.25
18:04:01.968,-0.18,-0.265
18:04:01.972,-0.125,-0.28
18:04:01.976,-0.115,-0.285
18:04:01.980,-0.115,-0.255
18:04:01.984,-0.12,-0.255
18:04:01.988,-0.14,-0.25
18:04:01.992,-0.14,-0.255
18:04:01.996,-0.16,-0.24
18:04:02.000,-0.155,-0.27
18:04:02.004,-0.15,-0.295
18:04:02.008,-0.16,-0.29
18:04:02.012,-0.175,-0.3
18:04:02.016,-0.175,-0.295
18:04:02.020,-0.16,-0.29
18:04:02.024,-0.16,-0.315
18:04:02.028,-0.17,-0.355
18:04:02.032,-0.195,-0.35
18:04:02.036,-0.195,-0.4
18:04:02.040,-0.22,-0.405
18:04:02.044,-0.235,-0.39
18:04:02.048,-0.24,-0.4
18:04:02.052,-0.24,-0.395
18:04:02.056,-0.24,-0.385
18:04:02.060,-0.255,-0.38
18:04:02.064,-0.27,-0.4
18:04:02.068,-0.28,-0.39
18:04:02.072,-0.29,-0.365
18:04:02.076,-0.25,-0.37
18:04:02.080,-0.22,-0.36
18:04:02.084,-0.225,-0.35
18:04:02.088,-0.185,-0.36
18:04:02.092,-0.125,-0.375
18:04:02.096,-0.03,-0.39
18:04:02.100,0.03,-0.415
18:04:02.104,0.065,-0.43
18:04:02.108,0.08,-0.465
18:04:02.112,0.08,-0.515
18:04:02.116,0.085,-0.58
18:04:02.120,0.05,-0.595
18:04:02.124,0.02,-0.67
18:04:02.128,0.045,-0.78
18:04:02.132,0.16,-0.955
18:04:02.136,0.385,-1.175
18:04:02.140,0.705,-1.425
18:04:02.144,0.9,-1.615
18:04:02.148,0.88,-1.745
18:04:02.152,0.6,-1.665
18:04:02.156,0.17,-1.31
18:04:02.160,-0.155,-0.93
18:04:02.164,-0.26,-0.625
18:04:02.168,-0.3,-0.47
18:04:02.172,-0.3,-0.365
18:04:02.176,-0.33,-0.29
18:04:02.180,-0.335,-0.225
18:04:02.184,-0.335,-0.19
18:04:02.188,-0.35,-0.16
18:04:02.192,-0.35,-0.17
18:04:02.196,-0.35,-0.18
18:04:02.200,-0.345,-0.195
18:04:02.204,-0.37,-0.17
18:04:02.208,-0.39,-0.16
18:04:02.212,-0.375,-0.14
18:04:02.216,-0.315,-0.13
18:04:02.220,-0.305,-0.145
18:04:02.224,-0.275,-0.155
18:04:02.228,-0.28,-0.165
18:04:02.232,-0.305,-0.145
18:04:02.236,-0.29,-0.145
18:04:02.240,-0.315,-0.14
18:04:02.244,-0.325,-0.14
18:04:02.248,-0.32,-0.15
18:04:02.252,-0.33,-0.18
18:04:02.256,-0.355,-0.195
18:04:02.260,-0.395,-0.2
18:04:02.264,-0.42,-0.205
18:04:02.268,-0.38,-0.215
18:04:02.272,-0.385,-0.22
18:04:02.276,-0.4,-0.21
18:04:02.280,-0.41,-0.24
18:04:02.284,-0.405,-0.25
18:04:02.288,-0.43,-0.255
18:04:02.292,-0.45,-0.23
18:04:02.296,-0.445,-0.235
18:04:02.300,-0.405,-0.225
18:04:02.304,-0.405,-0.22
18:04:02.308,-0.39,-0.215
18:04:02.312,-0.38,-0.22
18:04:02.316,-0.365,-0.2
18:04:02.320,-0.36,-0.22
18:04:02.324,-0.375,-0.225
18:04:02.328,-0.37,-0.25
18:04:02.332,-0.36,-0.24
18:04:02.336,-0.31,-0.26
18:04:02.340,-0.295,-0.25
18:04:02.344,-0.28,-0.225
18:04:02.348,-0.255,-0.255
18:04:02.352,-0.285,-0.23
18:04:02.356,-0.32,-0.275
18:04:02.360,-0.36,-0.305
18:04:02.364,-0.35,-0.275
18:04:02.368,-0.335,-0.285
18:04:02.372,-0.29,-0.31
18:04:02.376,-0.255,-0.34
18:04:02.380,-0.255,-0.335
18:04:02.384,-0.24,-0.35
18:04:02.388,-0.24,-0.375
18:04:02.392,-0.26,-0.39
18:04:02.396,-0.255,-0.36
18:04:02.400,-0.24,-0.355
18:04:02.404,-0.23,-0.355
18:04:02.408,-0.225,-0.355
18:04:02.412,-0.23,-0.375
18:04:02.416,-0.215,-0.38
18:04:02.420,-0.215,-0.39
18:04:02.424,-0.205,-0.375
18:04:02.428,-0.205,-0.335
18:04:02.432,-0.22,-0.335
18:04:02.436,-0.21,-0.33
18:04:02.440,-0.245,-0.335
18:04:02.444,-0.225,-0.335
18:04:02.448,-0.21,-0.32
18:04:02.452,-0.21,-0.285
18:04:02.456,-0.23,-0.3
18:04:02.460,-0.23,-0.32
18:04:02.464,-0.23,-0.305
18:04:02.468,-0.21,-0.295
18:04:02.472,-0.215,-0.275
18:04:02.476,-0.24,-0.295
18:04:02.480,-0.195,-0.28
18:04:02.484,-0.12,-0.27
18:04:02.488,-0.005,-0.305
18:04:02.492,0.015,-0.33
18:04:02.496,0.02,-0.41
18:04:02.500,0.0,-0.465
18:04:02.504,-0.035,-0.545
18:04:02.508,-0.09,-0.63
18:04:02.512,-0.15,-0.7
18:04:02.516,-0.11,-0.81
18:04:02.520,-0.025,-0.96
18:04:02.524,0.23,-1.15
18:04:02.528,0.53,-1.385
18:04:02.532,0.775,-1.69
18:04:02.536,0.88,-1.885
18:04:02.540,0.75,-1.885
18:04:02.544,0.4,-1.65
18:04:02.548,0.0,-1.2
18:04:02.552,-0.24,-0.8
18:04:02.556,-0.36,-0.56
18:04:02.560,-0.385,-0.44
18:04:02.564,-0.39,-0.35
18:04:02.568,-0.385,-0.295
18:04:02.572,-0.395,-0.23
18:04:02.576,-0.405,-0.225
18:04:02.580,-0.4,-0.19
18:04:02.584,-0.435,-0.2
18:04:02.588,-0.41,-0.205
18:04:02.592,-0.385,-0.22
18:04:02.596,-0.435,-0.2
18:04:02.600,-0.51,-0.18
18:04:02.604,-0.505,-0.195
18:04:02.608,-0.455,-0.195
18:04:02.612,-0.44,-0.2
18:04:02.616,-0.445,-0.19
18:04:02.620,-0.445,-0.18
18:04:02.624,-0.425,-0.18
18:04:02.628,-0.395,-0.175
18:04:02.632,-0.415,-0.17
18:04:02.636,-0.435,-0.195
18:04:02.640,-0.4,-0.185
18:04:02.644,-0.42,-0.175
18:04:02.648,-0.41,-0.165
18:04:02.652,-0.39,-0.17
18:04:02.656,-0.395,-0.14
18:04:02.660,-0.435,-0.13
18:04:02.664,-0.48,-0.13
18:04:02.668,-0.485,-0.125
18:04:02.672,-0.48,-0.145
18:04:02.676,-0.44,-0.125
18:04:02.680,-0.405,-0.145
18:04:02.684,-0.415,-0.13
18:04:02.688,-0.46,-0.125
18:04:02.692,-0.44,-0.125
18:04:02.696,-0.42,-0.12
18:04:02.700,-0.395,-0.125
18:04:02.704,-0.39,-0.13
18:04:02.708,-0.37,-0.15
18:04:02.712,-0.345,-0.13
18:04:02.716,-0.305,-0.125
18:04:02.720,-0.28,-0.155
18:04:02.724,-0.27,-0.15
18:04:02.728,-0.3,-0.17
18:04:02.732,-0.31,-0.19
18:04:02.736,-0.305,-0.21
18:04:02.740,-0.24,-0.265
18:04:02.744,-0.22,-0.28
18:04:02.748,-0.215,-0.31
18:04:02.752,-0.25,-0.335
18:04:02.756,-0.25,-0.36
18:04:02.760,-0.29,-0.37
18:04:02.764,-0.285,-0.36
18:04:02.768,-0.305,-0.365
18:04:02.772,-0.3,-0.395
18:04:02.776,-0.305,-0.38
18:04:02.780,-0.285,-0.39
18:04:02.784,-0.255,-0.38
18:04:02.788,-0.25,-0.36
18:04:02.792,-0.28,-0.37
18:04:02.796,-0.285,-0.355
18:04:02.800,-0.27,-0.335
18:04:02.804,-0.265,-0.29
18:04:02.808,-0.25,-0.27
18:04:02.812,-0.21,-0.26
18:04:02.816,-0.19,-0.29
18:04:02.820,-0.19,-0.265
18:04:02.824,-0.2,-0.3
18:04:02.828,-0.2,-0.28
18:04:02.832,-0.21,-0.28
18:04:02.836,-0.205,-0.26
18:04:02.840,-0.155,-0.265
18:04:02.844,-0.125,-0.255
18:04:02.848,-0.075,-0.28
18:04:02.852,-0.04,-0.29
18:04:02.856,-0.065,-0.31
18:04:02.860,-0.075,-0.36
18:04:02.864,-0.12,-0.405
18:04:02.868,-0.19,-0.45
18:04:02.872,-0.24,-0.51
18:04:02.876,-0.265,-0.59
18:04:02.880,-0.19,-0.715
18:04:02.884,0.0,-0.88
18:04:02.888,0.3,-1.105
18:04:02.892,0.59,-1.38
18:04:02.896,0.76,-1.62
18:04:02.900,0.775,-1.755
18:04:02.904,0.55,-1.67
18:04:02.908,0.165,-1.33
18:04:02.912,-0.165,-0.92
18:04:02.916,-0.355,-0.62
18:04:02.920,-0.435,-0.425
18:04:02.924,-0.47,-0.305
18:04:02.928,-0.44,-0.22
18:04:02.932,-0.39,-0.15
18:04:02.936,-0.405,-0.115
18:04:02.940,-0.39,-0.105
18:04:02.944,-0.37,-0.085
18:04:02.948,-0.36,-0.115
18:04:02.952,-0.35,-0.16
18:04:02.956,-0.345,-0.19
18:04:02.960,-0.34,-0.2
18:04:02.964,-0.315,-0.21
18:04:02.968,-0.3,-0.21
18:04:02.972,-0.32,-0.215
18:04:02.976,-0.34,-0.195
18:04:02.980,-0.34,-0.195
18:04:02.984,-0.34,-0.22
18:04:02.988,-0.36,-0.235
18:04:02.992,-0.35,-0.255
18:04:02.996,-0.365,-0.2
18:04:03.000,-0.345,-0.18
18:04:03.004,-0.345,-0.155
18:04:03.008,-0.335,-0.16
18:04:03.012,-0.29,-0.15
18:04:03.016,-0.3,-0.145
18:04:03.020,-0.29,-0.135
18:04:03.024,-0.305,-0.095
18:04:03.028,-0.32,-0.085
18:04:03.032,-0.35,-0.07
18:04:03.036,-0.34,-0.06
18:04:03.040,-0.32,-0.05
18:04:03.044,-0.325,-0.08
18:04:03.048,-0.32,-0.1
18:04:03.052,-0.3,-0.105
18:04:03.056,-0.305,-0.075
18:04:03.060,-0.32,-0.08
18:04:03.064,-0.365,-0.1
18:04:03.068,-0.39,-0.12
18:04:03.072,-0.36,-0.115
18:04:03.076,-0.355,-0.125
18:04:03.080,-0.345,-0.15
18:04:03.084,-0.36,-0.14
18:04:03.088,-0.38,-0.205
18:04:03.092,-0.36,-0.205
18:04:03.096,-0.365,-0.23
18:04:03.100,-0.355,-0.225
18:04:03.104,-0.33,-0.23
18:04:03.108,-0.33,-0.25
18:04:03.112,-0.35,-0.235
18:04:03.116,-0.325,-0.27
18:04:03.120,-0.325,-0.265
18:04:03.124,-0.325,-0.29
18:04:03.128,-0.32,-0.305
18:04:03.132,-0.3,-0.3
18:04:03.136,-0.24,-0.29
18:04:03.140,-0.175,-0.3
18:04:03.144,-0.08,-0.325
18:04:03.148,-0.06,-0.305
18:04:03.152,-0.1,-0.305
18:04:03.156,-0.14,-0.3
18:04:03.160,-0.16,-0.32
18:04:03.164,-0.195,-0.32
18:04:03.168,-0.24,-0.36
18:04:03.172,-0.235,-0.35
18:04:03.176,-0.23,-0.37
18:04:03.180,-0.21,-0.34
18:04:03.184,-0.21,-0.345
18:04:03.188,-0.2,-0.33
18:04:03.192,-0.22,-0.31
18:04:03.196,-0.2,-0.28
18:04:03.200,-0.2,-0.285
18:04:03.204,-0.235,-0.28
18:04:03.208,-0.265,-0.275
18:04:03.212,-0.28,-0.27
18:04:03.216,-0.28,-0.285
18:04:03.220,-0.315,-0.29
18:04:03.224,-0.28,-0.26
18:04:03.228,-0.265,-0.23
18:04:03.232,-0.23,-0.255
18:04:03.236,-0.24,-0.25
18:04:03.240,-0.275,-0.245
18:04:03.244,-0.335,-0.27
18:04:03.248,-0.355,-0.285
18:04:03.252,-0.36,-0.28
18:04:03.256,-0.335,-0.31
18:04:03.260,-0.325,-0.3
18:04:03.264,-0.37,-0.28
18:04:03.268,-0.355,-0.285
18:04:03.272,-0.35,-0.315
18:04:03.276,-0.34,-0.305
18:04:03.280,-0.33,-0.345
18:04:03.284,-0.33,-0.335
18:04:03.288,-0.325,-0.335
18:04:03.292,-0.305,-0.34
18:04:03.296,-0.29,-0.34
18:04:03.300,-0.31,-0.335
18:04:03.304,-0.33,-0.33
18:04:03.308,-0.33,-0.33
18:04:03.312,-0.33,-0.305
18:04:03.316,-0.33,-0.27
18:04:03.320,-0.355,-0.295
18:04:03.324,-0.355,-0.32
18:04:03.328,-0.36,-0.31
18:04:03.332,-0.365,-0.295
18:04:03.336,-0.34,-0.305
18:04:03.340,-0.345,-0.315
18:04:03.344,-0.32,-0.295
18:04:03.348,-0.335,-0.305
18:04:03.352,-0.31,-0.305
18:04:03.356,-0.3,-0.31
18:04:03.360,-0.28,-0.31
18:04:03.364,-0.27,-0.325
18:04:03.368,-0.3,-0.315
18:04:03.372,-0.29,-0.295
18:04:03.376,-0.33,-0.29
18:04:03.380,-0.33,-0.265
18:04:03.384,-0.315,-0.275
18:04:03.388,-0.31,-0.295
18:04:03.392,-0.295,-0.275
18:04:03.396,-0.3,-0.28
18:04:03.400,-0.3,-0.265
18:04:03.404,-0.29,-0.235
18:04:03.408,-0.29,-0.235
18:04:03.412,-0.285,-0.24
18:04:03.416,-0.255,-0.225
18:04:03.420,-0.225,-0.21
18:04:03.424,-0.195,-0.22
18:04:03.428,-0.175,-0.215
18:04:03.432,-0.205,-0.22
18:04:03.436,-0.22,-0.25
18:04:03.440,-0.225,-0.245
18:04:03.444,-0.21,-0.24
18:04:03.448,-0.19,-0.225
18:04:03.452,-0.2,-0.235
18:04:03.456,-0.23,-0.265
18:04:03.460,-0.255,-0.305
18:04:03.464,-0.275,-0.315
18:04:03.468,-0.275,-0.32
18:04:03.472,-0.25,-0.32
18:04:03.476,-0.235,-0.36
18:04:03.480,-0.23,-0.35
18:04:03.484,-0.255,-0.36
18:04:03.488,-0.26,-0.35
18:04:03.492,-0.255,-0.35
18:04:03.496,-0.25,-0.355
18:04:03.500,-0.26,-0.345
18:04:03.504,-0.27,-0.37
18:04:03.508,-0.26,-0.4
18:04:03.512,-0.24,-0.385
18:04:03.516,-0.235,-0.355
18:04:03.520,-0.225,-0.335
18:04:03.524,-0.18,-0.34
18:04:03.528,-0.125,-0.34
18:04:03.532,-0.01,-0.325
18:04:03.536,0.06,-0.335
18:04:03.540,0.085,-0.35
18:04:03.544,0.09,-0.415
18:04:03.548,0.08,-0.47
18:04:03.552,0.03,-0.53
18:04:03.556,-0.03,-0.565
18:04:03.560,-0.11,-0.64
18:04:03.564,-0.105,-0.79
18:04:03.568,0.0,-0.96
18:04:03.572,0.275,-1.17
18:04:03.576,0.58,-1.415
18:04:03.580,0.77,-1.615
18:04:03.584,0.725,-1.705
18:04:03.588,0.465,-1.595
18:04:03.592,0.08,-1.205
18:04:03.596,-0.19,-0.755
18:04:03.600,-0.345,-0.46
18:04:03.604,-0.38,-0.32
18:04:03.608,-0.405,-0.215
18:04:03.612,-0.43,-0.105
18:04:03.616,-0.405,-0.105
18:04:03.620,-0.385,-0.075
18:04:03.624,-0.39,-0.06
18:04:03.628,-0.39,-0.035
18:04:03.632,-0.39,-0.07
18:04:03.636,-0.4,-0.075
18:04:03.640,-0.425,-0.1
18:04:03.644,-0.415,-0.1
18:04:03.648,-0.43,-0.09
18:04:03.652,-0.45,-0.08
18:04:03.656,-0.42,-0.05
18:04:03.660,-0.415,-0.065
18:04:03.664,-0.395,-0.065
18:04:03.668,-0.385,-0.08
18:04:03.672,-0.385,-0.07
18:04:03.676,-0.385,-0.09
18:04:03.680,-0.365,-0.095
18:04:03.684,-0.36,-0.07
18:04:03.688,-0.375,-0.065
18:04:03.692,-0.36,-0.06
18:04:03.696,-0.34,-0.07
18:04:03.700,-0.335,-0.065
18:04:03.704,-0.335,-0.09
18:04:03.708,-0.32,-0.1
18:04:03.712,-0.295,-0.105
18:04:03.716,-0.31,-0.095
18:04:03.720,-0.3,-0.12
18:04:03.724,-0.3,-0.11
18:04:03.728,-0.3,-0.145
18:04:03.732,-0.29,-0.165
18:04:03.736,-0.295,-0.215
18:04:03.740,-0.26,-0.235
18:04:03.744,-0.28,-0.225
18:04:03.748,-0.25,-0.215
18:04:03.752,-0.24,-0.205
18:04:03.756,-0.255,-0.17
18:04:03.760,-0.24,-0.18
18:04:03.764,-0.235,-0.15
18:04:03.768,-0.235,-0.11
18:04:03.772,-0.245,-0.115
18:04:03.776,-0.25,-0.12
18:04:03.780,-0.235,-0.115
18:04:03.784,-0.215,-0.135
18:04:03.788,-0.16,-0.115
18:04:03.792,-0.125,-0.12
18:04:03.796,-0.12,-0.115
18:04:03.800,-0.13,-0.15
18:04:03.804,-0.125,-0.19
18:04:03.808,-0.115,-0.195
18:04:03.812,-0.1,-0.18
18:04:03.816,-0.11,-0.185
18:04:03.820,-0.145,-0.18
18:04:03.824,-0.145,-0.19
18:04:03.828,-0.195,-0.18
18:04:03.832,-0.185,-0.19
18:04:03.836,-0.175,-0.175
18:04:03.840,-0.19,-0.215
18:04:03.844,-0.215,-0.195
18:04:03.848,-0.2,-0.21
18:04:03.852,-0.2,-0.205
18:04:03.856,-0.255,-0.205
18:04:03.860,-0.24,-0.25
18:04:03.864,-0.23,-0.23
18:04:03.868,-0.225,-0.24
18:04:03.872,-0.24,-0.26
18:04:03.876,-0.22,-0.255
18:04:03.880,-0.185,-0.28
18:04:03.884,-0.19,-0.275
18:04:03.888,-0.205,-0.26
18:04:03.892,-0.19,-0.255
18:04:03.896,-0.18,-0.24
18:04:03.900,-0.2,-0.25
18:04:03.904,-0.19,-0.235
18:04:03.908,-0.2,-0.23
18:04:03.912,-0.215,-0.22
18:04:03.916,-0.255,-0.225
18:04:03.920,-0.255,-0.235
18:04:03.924,-0.255,-0.235
18:04:03.928,-0.26,-0.25
18:04:03.932,-0.29,-0.245
18:04:03.936,-0.28,-0.25
18:04:03.940,-0.255,-0.265
18:04:03.944,-0.245,-0.29
18:04:03.948,-0.25,-0.265
18:04:03.952,-0.27,-0.3
18:04:03.956,-0.25,-0.3
18:04:03.960,-0.22,-0.345
18:04:03.964,-0.215,-0.325
18:04:03.968,-0.18,-0.3
18:04:03.972,-0.18,-0.29
18:04:03.976,-0.215,-0.26
18:04:03.980,-0.225,-0.255
18:04:03.984,-0.22,-0.27
18:04:03.988,-0.215,-0.265
18:04:03.992,-0.2,-0.25
18:04:03.996,-0.175,-0.26
18:04:04.000,-0.165,-0.27
18:04:04.004,-0.15,-0.275
18:04:04.008,-0.16,-0.26
18:04:04.012,-0.17,-0.23
18:04:04.016,-0.145,-0.23
18:04:04.020,-0.115,-0.2
18:04:04.024,-0.08,-0.21
18:04:04.028,-0.095,-0.23
18:04:04.032,-0.075,-0.215
18:04:04.036,-0.035,-0.23
18:04:04.040,0.015,-0.2
18:04:04.044,0.05,-0.22
18:04:04.048,0.075,-0.245
18:04:04.052,0.11,-0.3
18:04:04.056,0.12,-0.385
18:04:04.060,0.075,-0.44
18:04:04.064,0.0,-0.515
18:04:04.068,-0.075,-0.59
18:04:04.072,-0.12,-0.67
18:04:04.076,-0.035,-0.82
18:04:04.080,0.17,-1.045
18:04:04.084,0.46,-1.305
18:04:04.088,0.72,-1.555
18:04:04.092,0.785,-1.73
18:04:04.096,0.63,-1.77
18:04:04.100,0.29,-1.5
18:04:04.104,-0.025,-1.08
18:04:04.108,-0.215,-0.69
18:04:04.112,-0.27,-0.45
18:04:04.116,-0.28,-0.345
18:04:04.120,-0.255,-0.24
18:04:04.124,-0.275,-0.18
18:04:04.128,-0.265,-0.125
18:04:04.132,-0.235,-0.12
18:04:04.136,-0.225,-0.09
18:04:04.140,-0.255,-0.095
18:04:04.144,-0.32,-0.1
18:04:04.148,-0.375,-0.14
18:04:04.152,-0.415,-0.155
18:04:04.156,-0.385,-0.16
18:04:04.160,-0.385,-0.12
18:04:04.164,-0.38,-0.13
18:04:04.168,-0.415,-0.19
18:04:04.172,-0.43,-0.215
18:04:04.176,-0.485,-0.235
18:04:04.180,-0.48,-0.235
18:04:04.184,-0.455,-0.235
18:04:04.188,-0.445,-0.23
18:04:04.192,-0.43,-0.26
18:04:04.196,-0.39,-0.24
18:04:04.200,-0.345,-0.23
18:04:04.204,-0.355,-0.21
18:04:04.208,-0.32,-0.235
18:04:04.212,-0.3,-0.215
18:04:04.216,-0.285,-0.185
18:04:04.220,-0.32,-0.18
18:04:04.224,-0.33,-0.18
18:04:04.228,-0.355,-0.175
18:04:04.232,-0.35,-0.19
18:04:04.236,-0.365,-0.175
18:04:04.240,-0.345,-0.165
18:04:04.244,-0.37,-0.18
18:04:04.248,-0.36,-0.165
18:04:04.252,-0.38,-0.15
18:04:04.256,-0.395,-0.13
18:04:04.260,-0.385,-0.125
18:04:04.264,-0.38,-0.115
18:04:04.268,-0.365,-0.14
18:04:04.272,-0.34,-0.15
18:04:04.276,-0.275,-0.165
18:04:04.280,-0.255,-0.225
18:04:04.284,-0.265,-0.22
18:04:04.288,-0.32,-0.215
18:04:04.292,-0.315,-0.225
18:04:04.296,-0.285,-0.275
18:04:04.300,-0.25,-0.28
18:04:04.304,-0.23,-0.245
18:04:04.308,-0.23,-0.25
18:04:04.312,-0.195,-0.25
18:04:04.316,-0.185,-0.26
18:04:04.320,-0.195,-0.285
18:04:04.324,-0.215,-0.295
18:04:04.328,-0.195,-0.29
18:04:04.332,-0.16,-0.31
18:04:04.336,-0.18,-0.305
18:04:04.340,-0.215,-0.29
18:04:04.344,-0.205,-0.26
18:04:04.348,-0.175,-0.295
18:04:04.352,-0.165,-0.325
18:04:04.356,-0.17,-0.335
18:04:04.360,-0.205,-0.33
18:04:04.364,-0.235,-0.335
18:04:04.368,-0.205,-0.34
18:04:04.372,-0.22,-0.315
18:04:04.376,-0.22,-0.315
18:04:04.380,-0.245,-0.3
18:04:04.384,-0.265,-0.33
18:04:04.388,-0.25,-0.335
18:04:04.392,-0.22,-0.34
18:04:04.396,-0.19,-0.325
18:04:04.400,-0.22,-0.345
18:04:04.404,-0.225,-0.375
18:04:04.408,-0.23,-0.39
18:04:04.412,-0.21,-0.4
18:04:04.416,-0.205,-0.42
18:04:04.420,-0.235,-0.405
18:04:04.424,-0.27,-0.395
18:04:04.428,-0.29,-0.41
18:04:04.432,-0.3,-0.405
18:04:04.436,-0.28,-0.41
18:04:04.440,-0.275,-0.395
18:04:04.444,-0.23,-0.365
18:04:04.448,-0.255,-0.365
18:04:04.452,-0.25,-0.35
18:04:04.456,-0.295,-0.345
18:04:04.460,-0.33,-0.33
18:04:04.464,-0.365,-0.315
18:04:04.468,-0.37,-0.32
18:04:04.472,-0.35,-0.33
18:04:04.476,-0.33,-0.325
18:04:04.480,-0.315,-0.33
18:04:04.484,-0.32,-0.33
18:04:04.488,-0.32,-0.32
18:04:04.492,-0.32,-0.32
18:04:04.496,-0.32,-0.35
18:04:04.500,-0.325,-0.355
18:04:04.504,-0.31,-0.35
18:04:04.508,-0.255,-0.325
18:04:04.512,-0.25,-0.335
18:04:04.516,-0.24,-0.315
18:04:04.520,-0.245,-0.31
18:04:04.524,-0.28,-0.315
18:04:04.528,-0.28,-0.3
18:04:04.532,-0.305,-0.32
18:04:04.536,-0.27,-0.355
18:04:04.540,-0.26,-0.33
18:04:04.544,-0.24,-0.33
18:04:04.548,-0.24,-0.32
18:04:04.552,-0.215,-0.32
18:04:04.556,-0.225,-0.31
18:04:04.560,-0.22,-0.34
18:04:04.564,-0.25,-0.35
18:04:04.568,-0.295,-0.37
18:04:04.572,-0.295,-0.36
18:04:04.576,-0.315,-0.37
18:04:04.580,-0.34,-0.35
18:04:04.584,-0.33,-0.36
18:04:04.588,-0.33,-0.375
18:04:04.592,-0.335,-0.36
18:04:04.596,-0.305,-0.355
18:04:04.600,-0.28,-0.315
18:04:04.604,-0.28,-0.315
18:04:04.608,-0.285,-0.305
18:04:04.612,-0.29,-0.345
18:04:04.616,-0.285,-0.335
18:04:04.620,-0.24,-0.36
18:04:04.624,-0.235,-0.34
18:04:04.628,-0.25,-0.35
18:04:04.632,-0.215,-0.325
18:04:04.636,-0.175,-0.35
18:04:04.640,-0.085,-0.375
18:04:04.644,-0.01,-0.42
18:04:04.648,0.055,-0.455
18:04:04.652,0.115,-0.5
18:04:04.656,0.12,-0.535
18:04:04.660,0.09,-0.575
18:04:04.664,0.095,-0.615
18:04:04.668,0.075,-0.635
18:04:04.672,0.03,-0.73
18:04:04.676,0.01,-0.865
18:04:04.680,0.095,-1.04
18:04:04.684,0.365,-1.265
18:04:04.688,0.69,-1.505
18:04:04.692,0.94,-1.72
18:04:04.696,0.88,-1.865
18:04:04.700,0.58,-1.805
18:04:04.704,0.17,-1.47
18:04:04.708,-0.165,-1.035
18:04:04.712,-0.325,-0.7
18:04:04.716,-0.38,-0.52
18:04:04.720,-0.345,-0.395
18:04:04.724,-0.31,-0.295
18:04:04.728,-0.315,-0.22
18:04:04.732,-0.365,-0.17
18:04:04.736,-0.42,-0.15
18:04:04.740,-0.385,-0.14
18:04:04.744,-0.37,-0.155
18:04:04.748,-0.405,-0.185
18:04:04.752,-0.47,-0.17
18:04:04.756,-0.48,-0.15
18:04:04.760,-0.435,-0.135
18:04:04.764,-0.405,-0.13
18:04:04.768,-0.415,-0.135
18:04:04.772,-0.405,-0.145
18:04:04.776,-0.4,-0.155
18:04:04.780,-0.375,-0.17
18:04:04.784,-0.345,-0.145
18:04:04.788,-0.365,-0.165
18:04:04.792,-0.37,-0.16
18:04:04.796,-0.35,-0.17
18:04:04.800,-0.34,-0.165
18:04:04.804,-0.365,-0.155
18:04:04.808,-0.385,-0.145
18:04:04.812,-0.385,-0.125
18:04:04.816,-0.365,-0.145
18:04:04.820,-0.36,-0.125
18:04:04.824,-0.39,-0.12
18:04:04.828,-0.415,-0.115
18:04:04.832,-0.385,-0.115
18:04:04.836,-0.375,-0.1
18:04:04.840,-0.35,-0.13
18:04:04.844,-0.41,-0.125
18:04:04.848,-0.405,-0.095
18:04:04.852,-0.375,-0.115
18:04:04.856,-0.4,-0.08
18:04:04.860,-0.425,-0.09
18:04:04.864,-0.39,-0.08
18:04:04.868,-0.37,-0.08
18:04:04.872,-0.355,-0.125
18:04:04.876,-0.415,-0.115
18:04:04.880,-0.415,-0.12
18:04:04.884,-0.375,-0.155
18:04:04.888,-0.305,-0.16
18:04:04.892,-0.24,-0.2
18:04:04.896,-0.26,-0.19
18:04:04.900,-0.28,-0.185
18:04:04.904,-0.29,-0.21
18:04:04.908,-0.265,-0.255
18:04:04.912,-0.22,-0.25
18:04:04.916,-0.21,-0.25
18:04:04.920,-0.21,-0.25
18:04:04.924,-0.2,-0.24
18:04:04.928,-0.2,-0.26
18:04:04.932,-0.185,-0.27
18:04:04.936,-0.175,-0.29
18:04:04.940,-0.175,-0.28
18:04:04.944,-0.16,-0.285
18:04:04.948,-0.16,-0.295
18:04:04.952,-0.135,-0.3
18:04:04.956,-0.145,-0.295
18:04:04.960,-0.235,-0.245
18:04:04.964,-0.26,-0.27
18:04:04.968,-0.23,-0.29
18:04:04.972,-0.215,-0.295
18:04:04.976,-0.2,-0.285
18:04:04.980,-0.195,-0.3
18:04:04.984,-0.18,-0.34
18:04:04.988,-0.195,-0.34
18:04:04.992,-0.215,-0.33
18:04:04.996,-0.23,-0.335
18:04:05.000,-0.21,-0.33
18:04:05.004,-0.185,-0.335
18:04:05.008,-0.155,-0.32
18:04:05.012,-0.16,-0.32
18:04:05.016,-0.17,-0.33
18:04:05.020,-0.2,-0.34
18:04:05.024,-0.21,-0.34
18:04:05.028,-0.2,-0.335
18:04:05.032,-0.19,-0.335
18:04:05.036,-0.185,-0.295
18:04:05.040,-0.215,-0.285
18:04:05.044,-0.23,-0.27
18:04:05.048,-0.245,-0.215
18:04:05.052,-0.24,-0.215
18:04:05.056,-0.25,-0.22
18:04:05.060,-0.25,-0.23
18:04:05.064,-0.25,-0.245
18:04:05.068,-0.265,-0.24
18:04:05.072,-0.255,-0.24
18:04:05.076,-0.27,-0.235
18:04:05.080,-0.26,-0.255
18:04:05.084,-0.265,-0.29
18:04:05.088,-0.245,-0.3
18:04:05.092,-0.245,-0.335
18:04:05.096,-0.22,-0.32
18:04:05.100,-0.215,-0.34
18:04:05.104,-0.215,-0.35
18:04:05.108,-0.225,-0.34
18:04:05.112,-0.23,-0.345
18:04:05.116,-0.19,-0.325
18:04:05.120,-0.2,-0.335
18:04:05.124,-0.205,-0.295
18:04:05.128,-0.215,-0.285
18:04:05.132,-0.175,-0.285
18:04:05.136,-0.18,-0.3
18:04:05.140,-0.2,-0.28
18:04:05.144,-0.21,-0.29
18:04:05.148,-0.245,-0.275
18:04:05.152,-0.19,-0.29
18:04:05.156,-0.175,-0.3
18:04:05.160,-0.205,-0.285
18:04:05.164,-0.195,-0.285
18:04:05.168,-0.19,-0.285
18:04:05.172,-0.13,-0.26
18:04:05.176,-0.07,-0.29
18:04:05.180,0.025,-0.345
18:04:05.184,0.075,-0.365
18:04:05.188,0.135,-0.41
18:04:05.192,0.095,-0.45
18:04:05.196,0.02,-0.53
18:04:05.200,-0.04,-0.58
18:04:05.204,-0.07,-0.625
18:04:05.208,-0.085,-0.74
18:04:05.212,-0.03,-0.92
18:04:05.216,0.185,-1.075
18:04:05.220,0.56,-1.29
18:04:05.224,0.895,-1.55
18:04:05.228,0.945,-1.765
18:04:05.232,0.75,-1.83
18:04:05.236,0.32,-1.61
18:04:05.240,-0.065,-1.18
18:04:05.244,-0.29,-0.77
18:04:05.248,-0.355,-0.565
18:04:05.252,-0.345,-0.405
18:04:05.256,-0.38,-0.315
18:04:05.260,-0.425,-0.205
18:04:05.264,-0.465,-0.135
18:04:05.268,-0.45,-0.09
18:04:05.272,-0.435,-0.09
18:04:05.276,-0.425,-0.115
18:04:05.280,-0.41,-0.12
18:04:05.284,-0.415,-0.11
18:04:05.288,-0.43,-0.14
18:04:05.292,-0.435,-0.12
18:04:05.296,-0.44,-0.15
18:04:05.300,-0.44,-0.16
18:04:05.304,-0.42,-0.215
18:04:05.308,-0.425,-0.22
18:04:05.312,-0.385,-0.21
18:04:05.316,-0.345,-0.17
18:04:05.320,-0.32,-0.16
18:04:05.324,-0.355,-0.145
18:04:05.328,-0.33,-0.145
18:04:05.332,-0.345,-0.135
18:04:05.336,-0.355,-0.125
18:04:05.340,-0.36,-0.115
18:04:05.344,-0.39,-0.09
18:04:05.348,-0.41,-0.095
18:04:05.352,-0.4,-0.11
18:04:05.356,-0.405,-0.125
18:04:05.360,-0.44,-0.115
18:04:05.364,-0.445,-0.105
18:04:05.368,-0.415,-0.115
18:04:05.372,-0.42,-0.125
18:04:05.376,-0.41,-0.135
18:04:05.380,-0.43,-0.12
18:04:05.384,-0.44,-0.095
18:04:05.388,-0.45,-0.115
18:04:05.392,-0.435,-0.125
18:04:05.396,-0.42,-0.13
18:04:05.400,-0.39,-0.115
18:04:05.404,-0.37,-0.115
18:04:05.408,-0.335,-0.135
18:04:05.412,-0.33,-0.165
18:04:05.416,-0.34,-0.185
18:04:05.420,-0.34,-0.19
18:04:05.424,-0.335,-0.205
18:04:05.428,-0.305,-0.185
18:04:05.432,-0.355,-0.18
18:04:05.436,-0.38,-0.19
18:04:05.440,-0.395,-0.23
18:04:05.444,-0.34,-0.26
18:04:05.448,-0.315,-0.27
18:04:05.452,-0.31,-0.265
18:04:05.456,-0.285,-0.28
18:04:05.460,-0.27,-0.285
18:04:05.464,-0.235,-0.315
18:04:05.468,-0.25,-0.33
18:04:05.472,-0.3,-0.355
18:04:05.476,-0.34,-0.345
18:04:05.480,-0.29,-0.36
18:04:05.484,-0.255,-0.32
18:04:05.488,-0.255,-0.33
18:04:05.492,-0.29,-0.305
18:04:05.496,-0.355,-0.315
18:04:05.500,-0.37,-0.315
18:04:05.504,-0.325,-0.305
18:04:05.508,-0.265,-0.31
18:04:05.512,-0.18,-0.285
18:04:05.516,-0.15,-0.28
18:04:05.520,-0.14,-0.31
18:04:05.524,-0.125,-0.33
18:04:05.528,-0.15,-0.3
18:04:05.532,-0.16,-0.28
18:04:05.536,-0.155,-0.295
18:04:05.540,-0.175,-0.28
18:04:05.544,-0.22,-0.305
18:04:05.548,-0.225,-0.29
18:04:05.552,-0.23,-0.265
18:04:05.556,-0.27,-0.235
18:04:05.560,-0.275,-0.245
18:04:05.564,-0.265,-0.25
18:04:05.568,-0.265,-0.245
18:04:05.572,-0.285,-0.24
18:04:05.576,-0.295,-0.24
18:04:05.580,-0.275,-0.25
18:04:05.584,-0.305,-0.285
18:04:05.588,-0.34,-0.305
18:04:05.592,-0.37,-0.305
18:04:05.596,-0.345,-0.315
18:04:05.600,-0.32,-0.305
18:04:05.604,-0.28,-0.285
18:04:05.608,-0.3,-0.29
18:04:05.612,-0.34,-0.3
18:04:05.616,-0.4,-0.285
18:04:05.620,-0.41,-0.295
18:04:05.624,-0.335,-0.31
18:04:05.628,-0.3,-0.32
18:04:05.632,-0.305,-0.31
18:04:05.636,-0.335,-0.305
18:04:05.640,-0.345,-0.305
18:04:05.644,-0.335,-0.295
18:04:05.648,-0.3,-0.31
18:04:05.652,-0.28,-0.305
18:04:05.656,-0.25,-0.265
18:04:05.660,-0.215,-0.26
18:04:05.664,-0.155,-0.295
18:04:05.668,-0.09,-0.285
18:04:05.672,-0.04,-0.275
18:04:05.676,-0.015,-0.34
18:04:05.680,-0.02,-0.39
18:04:05.684,-0.04,-0.465
18:04:05.688,-0.09,-0.52
18:04:05.692,-0.14,-0.565
18:04:05.696,-0.135,-0.635
18:04:05.700,-0.165,-0.705
18:04:05.704,-0.15,-0.84
18:04:05.708,0.015,-1.025
18:04:05.712,0.345,-1.225
18:04:05.716,0.645,-1.49
18:04:05.720,0.79,-1.685
18:04:05.724,0.685,-1.78
18:04:05.728,0.345,-1.62
18:04:05.732,-0.02,-1.18
18:04:05.736,-0.27,-0.755
18:04:05.740,-0.345,-0.47
18:04:05.744,-0.355,-0.305
18:04:05.748,-0.29,-0.21
18:04:05.752,-0.255,-0.155
18:04:05.756,-0.25,-0.125
18:04:05.760,-0.285,-0.125
18:04:05.764,-0.315,-0.1
18:04:05.768,-0.34,-0.12
18:04:05.772,-0.34,-0.145
18:04:05.776,-0.32,-0.175
18:04:05.780,-0.32,-0.195
18:04:05.784,-0.315,-0.195
18:04:05.788,-0.325,-0.17
18:04:05.792,-0.32,-0.145
18:04:05.796,-0.33,-0.18
18:04:05.800,-0.37,-0.16
18:04:05.804,-0.41,-0.165
18:04:05.808,-0.385,-0.165
18:04:05.812,-0.35,-0.17
18:04:05.816,-0.345,-0.145
18:04:05.820,-0.42,-0.155
18:04:05.824,-0.45,-0.15
18:04:05.828,-0.44,-0.14
18:04:05.832,-0.455,-0.175
18:04:05.836,-0.425,-0.18
18:04:05.840,-0.405,-0.17
18:04:05.844,-0.46,-0.145
18:04:05.848,-0.475,-0.135
18:04:05.852,-0.475,-0.165
18:04:05.856,-0.48,-0.16
18:04:05.860,-0.49,-0.15
18:04:05.864,-0.48,-0.135
18:04:05.868,-0.465,-0.14
18:04:05.872,-0.44,-0.125
18:04:05.876,-0.465,-0.135
18:04:05.880,-0.475,-0.135
18:04:05.884,-0.47,-0.105
18:04:05.888,-0.44,-0.11
18:04:05.892,-0.385,-0.15
18:04:05.896,-0.375,-0.13
18:04:05.900,-0.355,-0.145
18:04:05.904,-0.34,-0.15
18:04:05.908,-0.315,-0.15
18:04:05.912,-0.315,-0.13
18:04:05.916,-0.28,-0.12
18:04:05.920,-0.265,-0.12
18:04:05.924,-0.24,-0.12
18:04:05.928,-0.26,-0.15
18:04:05.932,-0.265,-0.165
18:04:05.936,-0.28,-0.185
18:04:05.940,-0.315,-0.185
18:04:05.944,-0.325,-0.16
18:04:05.948,-0.355,-0.165
18:04:05.952,-0.335,-0.17
18:04:05.956,-0.3,-0.195
18:04:05.960,-0.305,-0.175
18:04:05.964,-0.31,-0.205
18:04:05.968,-0.31,-0.22
18:04:05.972,-0.28,-0.26
18:04:05.976,-0.24,-0.255
18:04:05.980,-0.2,-0.305
18:04:05.984,-0.18,-0.3
18:04:05.988,-0.21,-0.285
18:04:05.992,-0.22,-0.305
18:04:05.996,-0.235,-0.295
18:04:06.000,-0.26,-0.29
18:04:06.004,-0.26,-0.25
18:04:06.008,-0.25,-0.25
18:04:06.012,-0.23,-0.245
18:04:06.016,-0.265,-0.26
18:04:06.020,-0.24,-0.255
18:04:06.024,-0.26,-0.28
18:04:06.028,-0.245,-0.285
18:04:06.032,-0.255,-0.28
18:04:06.036,-0.285,-0.275
18:04:06.040,-0.285,-0.26
18:04:06.044,-0.29,-0.245
18:04:06.048,-0.32,-0.255
18:04:06.052,-0.32,-0.235
18:04:06.056,-0.31,-0.24
18:04:06.060,-0.28,-0.23
18:04:06.064,-0.25,-0.24
18:04:06.068,-0.215,-0.26
18:04:06.072,-0.145,-0.275
18:04:06.076,-0.17,-0.305
18:04:06.080,-0.2,-0.365
18:04:06.084,-0.245,-0.415
18:04:06.088,-0.31,-0.51
18:04:06.092,-0.385,-0.535
18:04:06.096,-0.425,-0.63
18:04:06.100,-0.415,-0.755
18:04:06.104,-0.225,-0.94
18:04:06.108,0.1,-1.17
18:04:06.112,0.43,-1.41
18:04:06.116,0.635,-1.645
18:04:06.120,0.64,-1.765
18:04:06.124,0.43,-1.675
18:04:06.128,0.07,-1.385
18:04:06.132,-0.225,-0.925
18:04:06.136,-0.375,-0.56
18:04:06.140,-0.415,-0.38
18:04:06.144,-0.435,-0.3
18:04:06.148,-0.405,-0.225
18:04:06.152,-0.395,-0.15
18:04:06.156,-0.395,-0.09
18:04:06.160,-0.38,-0.085
18:04:06.164,-0.39,-0.07
18:04:06.168,-0.39,-0.05
18:04:06.172,-0.415,-0.03
18:04:06.176,-0.445,-0.01
18:04:06.180,-0.44,-0.07
18:04:06.184,-0.395,-0.1
18:04:06.188,-0.34,-0.11
18:04:06.192,-0.35,-0.12
18:04:06.196,-0.375,-0.13
18:04:06.200,-0.375,-0.135
18:04:06.204,-0.395,-0.145
18:04:06.208,-0.415,-0.165
18:04:06.212,-0.41,-0.165
18:04:06.216,-0.425,-0.165
18:04:06.220,-0.44,-0.155
18:04:06.224,-0.45,-0.135
18:04:06.228,-0.44,-0.135
18:04:06.232,-0.41,-0.12
18:04:06.236,-0.44,-0.12
18:04:06.240,-0.45,-0.11
18:04:06.244,-0.46,-0.115
18:04:06.248,-0.445,-0.1
18:04:06.252,-0.47,-0.115
18:04:06.256,-0.495,-0.1
18:04:06.260,-0.495,-0.12
18:04:06.264,-0.515,-0.13
18:04:06.268,-0.51,-0.14
18:04:06.272,-0.54,-0.105
18:04:06.276,-0.555,-0.12
18:04:06.280,-0.51,-0.115
18:04:06.284,-0.495,-0.125
18:04:06.288,-0.505,-0.145
18:04:06.292,-0.495,-0.145
18:04:06.296,-0.485,-0.145
18:04:06.300,-0.465,-0.175
18:04:06.304,-0.49,-0.17
18:04:06.308,-0.49,-0.16
18:04:06.312,-0.53,-0.2
18:04:06.316,-0.52,-0.215
18:04:06.320,-0.525,-0.23
18:04:06.324,-0.5,-0.24
18:04:06.328,-0.495,-0.265
18:04:06.332,-0.505,-0.27
18:04:06.336,-0.46,-0.285
18:04:06.340,-0.435,-0.305
18:04:06.344,-0.42,-0.32
18:04:06.348,-0.41,-0.32
18:04:06.352,-0.4,-0.305
18:04:06.356,-0.385,-0.29
18:04:06.360,-0.34,-0.285
18:04:06.364,-0.33,-0.285
18:04:06.368,-0.32,-0.275
18:04:06.372,-0.36,-0.29
18:04:06.376,-0.345,-0.305
18:04:06.380,-0.365,-0.31
18:04:06.384,-0.36,-0.285
18:04:06.388,-0.4,-0.265
18:04:06.392,-0.43,-0.2
18:04:06.396,-0.445,-0.19
18:04:06.400,-0.43,-0.18
18:04:06.404,-0.43,-0.205
18:04:06.408,-0.475,-0.19
18:04:06.412,-0.495,-0.18
18:04:06.416,-0.535,-0.225
18:04:06.420,-0.53,-0.27
18:04:06.424,-0.555,-0.29
18:04:06.428,-0.555,-0.305
18:04:06.432,-0.555,-0.315
18:04:06.436,-0.575,-0.29
18:04:06.440,-0.535,-0.29
18:04:06.444,-0.5,-0.275
18:04:06.448,-0.44,-0.28
18:04:06.452,-0.375,-0.31
18:04:06.456,-0.35,-0.295
18:04:06.460,-0.375,-0.355
18:04:06.464,-0.4,-0.425
18:04:06.468,-0.405,-0.485
18:04:06.472,-0.42,-0.54
18:04:06.476,-0.495,-0.6
18:04:06.480,-0.54,-0.73
18:04:06.484,-0.47,-0.855
18:04:06.488,-0.275,-1.025
18:04:06.492,0.09,-1.25
18:04:06.496,0.38,-1.515
18:04:06.500,0.445,-1.655
18:04:06.504,0.28,-1.715
18:04:06.508,-0.04,-1.505
18:04:06.512,-0.385,-1.06
18:04:06.516,-0.565,-0.685
18:04:06.520,-0.68,-0.5
18:04:06.524,-0.73,-0.375
18:04:06.528,-0.72,-0.29
18:04:06.532,-0.725,-0.195
18:04:06.536,-0.725,-0.14
18:04:06.540,-0.72,-0.145
18:04:06.544,-0.735,-0.17
18:04:06.548,-0.735,-0.18
18:04:06.552,-0.735,-0.15
18:04:06.556,-0.745,-0.175
18:04:06.560,-0.735,-0.16
18:04:06.564,-0.705,-0.16
18:04:06.568,-0.69,-0.175
18:04:06.572,-0.69,-0.17
18:04:06.576,-0.695,-0.165
18:04:06.580,-0.695,-0.14
18:04:06.584,-0.645,-0.17
18:04:06.588,-0.635,-0.155
18:04:06.592,-0.62,-0.145
18:04:06.596,-0.58,-0.135
18:04:06.600,-0.57,-0.11
18:04:06.604,-0.595,-0.11
18:04:06.608,-0.6,-0.115
18:04:06.612,-0.65,-0.095
18:04:06.616,-0.675,-0.08
18:04:06.620,-0.705,-0.08
18:04:06.624,-0.71,-0.05
18:04:06.628,-0.72,-0.04
18:04:06.632,-0.72,-0.055
18:04:06.636,-0.72,-0.035
18:04:06.640,-0.695,-0.035
18:04:06.644,-0.68,-0.03
18:04:06.648,-0.645,-0.045
18:04:06.652,-0.67,-0.075
18:04:06.656,-0.67,-0.1
18:04:06.660,-0.665,-0.08
18:04:06.664,-0.7,-0.125
18:04:06.668,-0.705,-0.14
18:04:06.672,-0.725,-0.16
18:04:06.676,-0.71,-0.18
18:04:06.680,-0.74,-0.185
18:04:06.684,-0.73,-0.19
18:04:06.688,-0.725,-0.19
18:04:06.692,-0.73,-0.195
18:04:06.696,-0.72,-0.235
18:04:06.700,-0.715,-0.235
18:04:06.704,-0.675,-0.235
18:04:06.708,-0.69,-0.25
18:04:06.712,-0.71,-0.245
18:04:06.716,-0.755,-0.255
18:04:06.720,-0.74,-0.255
18:04:06.724,-0.7,-0.24
18:04:06.728,-0.665,-0.28
18:04:06.732,-0.635,-0.27
18:04:06.736,-0.64,-0.32
18:04:06.740,-0.63,-0.335
18:04:06.744,-0.625,-0.35
18:04:06.748,-0.63,-0.34
18:04:06.752,-0.62,-0.315
18:04:06.756,-0.605,-0.295
18:04:06.760,-0.58,-0.31
18:04:06.764,-0.61,-0.31
18:04:06.768,-0.61,-0.27
18:04:06.772,-0.62,-0.29
18:04:06.776,-0.61,-0.265
18:04:06.780,-0.57,-0.26
18:04:06.784,-0.565,-0.265
18:04:06.788,-0.565,-0.27
18:04:06.792,-0.565,-0.295
18:04:06.796,-0.56,-0.28
18:04:06.800,-0.54,-0.255
18:04:06.804,-0.525,-0.255
18:04:06.808,-0.52,-0.24
18:04:06.812,-0.535,-0.21
18:04:06.816,-0.545,-0.2
18:04:06.820,-0.535,-0.18
18:04:06.824,-0.53,-0.19
18:04:06.828,-0.53,-0.2
18:04:06.832,-0.56,-0.205
18:04:06.836,-0.6,-0.195
18:04:06.840,-0.625,-0.2
18:04:06.844,-0.62,-0.195
18:04:06.848,-0.595,-0.195
18:04:06.852,-0.595,-0.205
18:04:06.856,-0.565,-0.185
18:04:06.860,-0.465,-0.17
18:04:06.864,-0.37,-0.17
18:04:06.868,-0.305,-0.19
18:04:06.872,-0.245,-0.23
18:04:06.876,-0.2,-0.285
18:04:06.880,-0.16,-0.38
18:04:06.884,-0.165,-0.45
18:04:06.888,-0.22,-0.52
18:04:06.892,-0.28,-0.585
18:04:06.896,-0.29,-0.68
18:04:06.900,-0.24,-0.81
18:04:06.904,-0.01,-1.02
18:04:06.908,0.31,-1.265
18:04:06.912,0.6,-1.515
18:04:06.916,0.625,-1.73
18:04:06.920,0.395,-1.72
18:04:06.924,0.005,-1.45
18:04:06.928,-0.36,-1.025
18:04:06.932,-0.57,-0.665
18:04:06.936,-0.63,-0.465
18:04:06.940,-0.63,-0.385
18:04:06.944,-0.63,-0.24
18:04:06.948,-0.635,-0.17
18:04:06.952,-0.675,-0.08
18:04:06.956,-0.67,-0.07
18:04:06.960,-0.685,-0.065
18:04:06.964,-0.685,-0.08
18:04:06.968,-0.67,-0.08
18:04:06.972,-0.64,-0.105
18:04:06.976,-0.625,-0.115
18:04:06.980,-0.645,-0.12
18:04:06.984,-0.66,-0.1
18:04:06.988,-0.685,-0.1
18:04:06.992,-0.66,-0.09
18:04:06.996,-0.66,-0.08
18:04:07.000,-0.635,-0.08
18:04:07.004,-0.635,-0.065
18:04:07.008,-0.655,-0.08
18:04:07.012,-0.675,-0.06
18:04:07.016,-0.655,-0.055
18:04:07.020,-0.635,-0.055
18:04:07.024,-0.595,-0.08
18:04:07.028,-0.595,-0.065
18:04:07.032,-0.6,-0.045
18:04:07.036,-0.595,-0.015
18:04:07.040,-0.57,-0.02
18:04:07.044,-0.58,-0.025
18:04:07.048,-0.595,-0.02
18:04:07.052,-0.635,-0.03
18:04:07.056,-0.64,-0.045
18:04:07.060,-0.655,-0.06
18:04:07.064,-0.68,-0.075
18:04:07.068,-0.68,-0.055
18:04:07.072,-0.645,-0.04
18:04:07.076,-0.645,-0.025
18:04:07.080,-0.66,-0.015
18:04:07.084,-0.67,0.0
18:04:07.088,-0.66,-0.01
18:04:07.092,-0.67,-0.025
18:04:07.096,-0.645,-0.02
18:04:07.100,-0.625,-0.035
18:04:07.104,-0.595,-0.05
18:04:07.108,-0.59,-0.07
18:04:07.112,-0.595,-0.08
18:04:07.116,-0.615,-0.115
18:04:07.120,-0.61,-0.135
18:04:07.124,-0.6,-0.12
18:04:07.128,-0.605,-0.11
18:04:07.132,-0.56,-0.135
18:04:07.136,-0.535,-0.155
18:04:07.140,-0.525,-0.165
18:04:07.144,-0.52,-0.17
18:04:07.148,-0.515,-0.19
18:04:07.152,-0.48,-0.195
18:04:07.156,-0.49,-0.2
18:04:07.160,-0.455,-0.205
18:04:07.164,-0.46,-0.23
18:04:07.168,-0.45,-0.235
18:04:07.172,-0.455,-0.235
18:04:07.176,-0.445,-0.22
18:04:07.180,-0.425,-0.205
18:04:07.184,-0.415,-0.185
18:04:07.188,-0.435,-0.185
18:04:07.192,-0.435,-0.185
18:04:07.196,-0.445,-0.195
18:04:07.200,-0.44,-0.215
18:04:07.204,-0.41,-0.205
18:04:07.208,-0.4,-0.2
18:04:07.212,-0.4,-0.225
18:04:07.216,-0.42,-0.19
18:04:07.220,-0.395,-0.185
18:04:07.224,-0.42,-0.195
18:04:07.228,-0.425,-0.18
18:04:07.232,-0.395,-0.175
18:04:07.236,-0.355,-0.175
18:04:07.240,-0.335,-0.19
18:04:07.244,-0.35,-0.185
18:04:07.248,-0.355,-0.155
18:04:07.252,-0.32,-0.15
18:04:07.256,-0.275,-0.15
18:04:07.260,-0.245,-0.19
18:04:07.264,-0.185,-0.18
18:04:07.268,-0.105,-0.2
18:04:07.272,-0.025,-0.19
18:04:07.276,0.005,-0.215
18:04:07.280,-0.025,-0.26
18:04:07.284,-0.055,-0.295
18:04:07.288,-0.11,-0.365
18:04:07.292,-0.2,-0.44
18:04:07.296,-0.24,-0.53
18:04:07.300,-0.185,-0.68
18:04:07.304,0.01,-0.895
18:04:07.308,0.26,-1.14
18:04:07.312,0.53,-1.425
18:04:07.316,0.685,-1.68
18:04:07.320,0.655,-1.815
18:04:07.324,0.36,-1.74
18:04:07.328,-0.095,-1.39
18:04:07.332,-0.455,-0.945
18:04:07.336,-0.635,-0.615
18:04:07.340,-0.705,-0.415
18:04:07.344,-0.725,-0.28
18:04:07.348,-0.735,-0.21
18:04:07.352,-0.73,-0.15
18:04:07.356,-0.72,-0.145
18:04:07.360,-0.74,-0.085
18:04:07.364,-0.715,-0.09
18:04:07.368,-0.73,-0.105
18:04:07.372,-0.695,-0.105
18:04:07.376,-0.645,-0.135
18:04:07.380,-0.625,-0.105
18:04:07.384,-0.625,-0.095
18:04:07.388,-0.615,-0.08
18:04:07.392,-0.625,-0.095
18:04:07.396,-0.62,-0.085
18:04:07.400,-0.635,-0.075
18:04:07.404,-0.615,-0.035
18:04:07.408,-0.58,-0.06
18:04:07.412,-0.53,-0.06
18:04:07.416,-0.545,-0.045
18:04:07.420,-0.57,-0.035
18:04:07.424,-0.575,-0.01
18:04:07.428,-0.57,-0.005
18:04:07.432,-0.55,0.025
18:04:07.436,-0.555,0.005
18:04:07.440,-0.54,0.0
18:04:07.444,-0.49,-0.01
18:04:07.448,-0.485,-0.005
18:04:07.452,-0.5,0.02
18:04:07.456,-0.49,0.015
18:04:07.460,-0.505,0.04
18:04:07.464,-0.48,0.01
18:04:07.468,-0.495,0.025
18:04:07.472,-0.475,0.0
18:04:07.476,-0.46,0.015
18:04:07.480,-0.49,0.01
18:04:07.484,-0.47,0.035
18:04:07.488,-0.485,0.02
18:04:07.492,-0.485,0.0
18:04:07.496,-0.52,0.0
18:04:07.500,-0.545,-0.02
18:04:07.504,-0.53,0.005
18:04:07.508,-0.52,0.01
18:04:07.512,-0.525,-0.015
18:04:07.516,-0.505,-0.035
18:04:07.520,-0.505,-0.06
18:04:07.524,-0.48,-0.06
18:04:07.528,-0.455,-0.075
18:04:07.532,-0.43,-0.095
18:04:07.536,-0.405,-0.15
18:04:07.540,-0.455,-0.155
18:04:07.544,-0.475,-0.16
18:04:07.548,-0.475,-0.22
18:04:07.552,-0.465,-0.24
18:04:07.556,-0.475,-0.275
18:04:07.560,-0.5,-0.29
18:04:07.564,-0.52,-0.295
18:04:07.568,-0.555,-0.31
18:04:07.572,-0.535,-0.285
18:04:07.576,-0.555,-0.295
18:04:07.580,-0.57,-0.275
18:04:07.584,-0.56,-0.27
18:04:07.588,-0.54,-0.265
18:04:07.592,-0.555,-0.27
18:04:07.596,-0.525,-0.28
18:04:07.600,-0.515,-0.27
18:04:07.604,-0.47,-0.26
18:04:07.608,-0.465,-0.24
18:04:07.612,-0.445,-0.255
18:04:07.616,-0.46,-0.27
18:04:07.620,-0.47,-0.26
18:04:07.624,-0.47,-0.27
18:04:07.628,-0.475,-0.23
18:04:07.632,-0.46,-0.225
18:04:07.636,-0.5,-0.2
18:04:07.640,-0.505,-0.195
18:04:07.644,-0.48,-0.17
18:04:07.648,-0.45,-0.17
18:04:07.652,-0.435,-0.175
18:04:07.656,-0.39,-0.155
18:04:07.660,-0.32,-0.16
18:04:07.664,-0.305,-0.18
18:04:07.668,-0.23,-0.19
18:04:07.672,-0.165,-0.185
18:04:07.676,-0.07,-0.19
18:04:07.680,-0.045,-0.22
18:04:07.684,-0.035,-0.26
18:04:07.688,-0.06,-0.3
18:04:07.692,-0.13,-0.355
18:04:07.696,-0.185,-0.45
18:04:07.700,-0.2,-0.57
18:04:07.704,-0.09,-0.675
18:04:07.708,0.13,-0.87
18:04:07.712,0.43,-1.08
18:04:07.716,0.67,-1.375
18:04:07.720,0.735,-1.54
18:04:07.724,0.545,-1.58
18:04:07.728,0.155,-1.365
18:04:07.732,-0.255,-0.915
18:04:07.736,-0.47,-0.56
18:04:07.740,-0.55,-0.355
18:04:07.744,-0.58,-0.235
18:04:07.748,-0.59,-0.18
18:04:07.752,-0.6,-0.09
18:04:07.756,-0.615,-0.035
18:04:07.760,-0.61,-0.02
18:04:07.764,-0.595,0.015
18:04:07.768,-0.57,0.015
18:04:07.772,-0.53,-0.01
18:04:07.776,-0.55,0.005
18:04:07.780,-0.565,0.0
18:04:07.784,-0.605,-0.04
18:04:07.788,-0.615,-0.08
18:04:07.792,-0.635,-0.085
18:04:07.796,-0.62,-0.105
18:04:07.800,-0.62,-0.095
18:04:07.804,-0.615,-0.115
18:04:07.808,-0.6,-0.095
18:04:07.812,-0.575,-0.1
18:04:07.816,-0.58,-0.085
18:04:07.820,-0.585,-0.08
18:04:07.824,-0.55,-0.075
18:04:07.828,-0.53,-0.065
18:04:07.832,-0.53,-0.075
18:04:07.836,-0.53,-0.055
18:04:07.840,-0.51,-0.04
18:04:07.844,-0.5,-0.005
18:04:07.848,-0.51,-0.015
18:04:07.852,-0.505,-0.04
18:04:07.856,-0.485,-0.02
18:04:07.860,-0.49,0.01
18:04:07.864,-0.495,0.01
18:04:07.868,-0.46,0.02
18:04:07.872,-0.42,0.0
18:04:07.876,-0.39,0.005
18:04:07.880,-0.355,-0.01
18:04:07.884,-0.35,0.02
18:04:07.888,-0.365,0.015
18:04:07.892,-0.34,0.035
18:04:07.896,-0.345,0.015
18:04:07.900,-0.345,0.01
18:04:07.904,-0.3,0.015
18:04:07.908,-0.29,-0.015
18:04:07.912,-0.275,0.0
18:04:07.916,-0.29,0.0
18:04:07.920,-0.315,-0.01
18:04:07.924,-0.355,0.0
18:04:07.928,-0.335,-0.035
18:04:07.932,-0.335,-0.015
18:04:07.936,-0.29,-0.02
18:04:07.940,-0.25,-0.04
18:04:07.944,-0.25,-0.07
18:04:07.948,-0.27,-0.095
18:04:07.952,-0.3,-0.09
18:04:07.956,-0.29,-0.085
18:04:07.960,-0.285,-0.09
18:04:07.964,-0.305,-0.11
18:04:07.968,-0.315,-0.13
18:04:07.972,-0.32,-0.17
18:04:07.976,-0.32,-0.205
18:04:07.980,-0.335,-0.21
18:04:07.984,-0.3,-0.255
18:04:07.988,-0.31,-0.275
18:04:07.992,-0.34,-0.28
18:04:07.996,-0.38,-0.28
18:04:08.000,-0.39,-0.29
18:04:08.004,-0.395,-0.24
18:04:08.008,-0.41,-0.23
18:04:08.012,-0.425,-0.265
18:04:08.016,-0.43,-0.24
18:04:08.020,-0.45,-0.24
18:04:08.024,-0.46,-0.2
18:04:08.028,-0.48,-0.185
18:04:08.032,-0.46,-0.22
18:04:08.036,-0.425,-0.25
18:04:08.040,-0.4,-0.255
18:04:08.044,-0.38,-0.25
18:04:08.048,-0.365,-0.22
18:04:08.052,-0.345,-0.185
18:04:08.056,-0.325,-0.175
18:04:08.060,-0.32,-0.17
18:04:08.064,-0.32,-0.17
18:04:08.068,-0.325,-0.135
18:04:08.072,-0.325,-0.155
18:04:08.076,-0.325,-0.145
18:04:08.080,-0.32,-0.13
18:04:08.084,-0.325,-0.14
18:04:08.088,-0.315,-0.125
18:04:08.092,-0.275,-0.135
18:04:08.096,-0.275,-0.11
18:04:08.100,-0.255,-0.095
18:04:08.104,-0.245,-0.09
18:04:08.108,-0.255,-0.1
18:04:08.112,-0.265,-0.11
18:04:08.116,-0.245,-0.12
18:04:08.120,-0.21,-0.12
18:04:08.124,-0.21,-0.12
18:04:08.128,-0.18,-0.125
18:04:08.132,-0.18,-0.13
18:04:08.136,-0.21,-0.105
18:04:08.140,-0.215,-0.075
18:04:08.144,-0.235,-0.06
18:04:08.148,-0.27,-0.02
18:04:08.152,-0.31,-0.035
18:04:08.156,-0.285,-0.055
18:04:08.160,-0.255,-0.06
18:04:08.164,-0.225,-0.045
18:04:08.168,-0.205,-0.08
18:04:08.172,-0.215,-0.09
18:04:08.176,-0.225,-0.07
18:04:08.180,-0.24,-0.1
18:04:08.184,-0.265,-0.09
18:04:08.188,-0.285,-0.13
18:04:08.192,-0.295,-0.165
18:04:08.196,-0.29,-0.205
18:04:08.200,-0.25,-0.21
18:04:08.204,-0.305,-0.21
18:04:08.208,-0.32,-0.25
18:04:08.212,-0.33,-0.255
18:04:08.216,-0.365,-0.255
18:04:08.220,-0.385,-0.26
18:04:08.224,-0.365,-0.26
18:04:08.228,-0.38,-0.235
18:04:08.232,-0.4,-0.25
18:04:08.236,-0.41,-0.25
18:04:08.240,-0.385,-0.25
18:04:08.244,-0.41,-0.23
18:04:08.248,-0.41,-0.255
18:04:08.252,-0.405,-0.23
18:04:08.256,-0.345,-0.235
18:04:08.260,-0.33,-0.24
18:04:08.264,-0.305,-0.24
18:04:08.268,-0.26,-0.245
18:04:08.272,-0.21,-0.23
18:04:08.276,-0.12,-0.23
18:04:08.280,-0.01,-0.235
18:04:08.284,0.06,-0.23
18:04:08.288,0.075,-0.25
18:04:08.292,0.06,-0.3
18:04:08.296,0.035,-0.375
18:04:08.300,-0.025,-0.405
18:04:08.304,-0.075,-0.485
18:04:08.308,-0.125,-0.57
18:04:08.312,-0.045,-0.71
18:04:08.316,0.195,-0.89
18:04:08.320,0.525,-1.145
18:04:08.324,0.815,-1.405
18:04:08.328,0.955,-1.615
18:04:08.332,0.835,-1.67
18:04:08.336,0.52,-1.495
18:04:08.340,0.12,-1.06
18:04:08.344,-0.14,-0.64
18:04:08.348,-0.29,-0.385
18:04:08.352,-0.32,-0.225
18:04:08.356,-0.305,-0.165
18:04:08.360,-0.305,-0.06
18:04:08.364,-0.335,0.015
18:04:08.368,-0.345,0.04
18:04:08.372,-0.315,0.085
18:04:08.376,-0.305,0.11
18:04:08.380,-0.33,0.105
18:04:08.384,-0.31,0.095
18:04:08.388,-0.305,0.1
18:04:08.392,-0.3,0.085
18:04:08.396,-0.295,0.09
18:04:08.400,-0.295,0.07
18:04:08.404,-0.315,0.05
18:04:08.408,-0.32,0.035
18:04:08.412,-0.33,0.01
18:04:08.416,-0.36,-0.015
18:04:08.420,-0.385,-0.04
18:04:08.424,-0.4,-0.04
18:04:08.428,-0.36,-0.03
18:04:08.432,-0.36,-0.035
18:04:08.436,-0.37,-0.05
18:04:08.440,-0.4,-0.05
18:04:08.444,-0.405,-0.05
18:04:08.448,-0.43,-0.055
18:04:08.452,-0.425,-0.05
18:04:08.456,-0.41,-0.05
18:04:08.460,-0.42,-0.065
18:04:08.464,-0.425,-0.065
18:04:08.468,-0.465,-0.06
18:04:08.472,-0.44,-0.08
18:04:08.476,-0.405,-0.065
18:04:08.480,-0.34,-0.075
18:04:08.484,-0.31,-0.085
18:04:08.488,-0.285,-0.11
18:04:08.492,-0.31,-0.075
18:04:08.496,-0.325,-0.055
18:04:08.500,-0.3,-0.05
18:04:08.504,-0.24,-0.03
18:04:08.508,-0.235,-0.045
18:04:08.512,-0.21,-0.035
18:04:08.516,-0.22,-0.02
18:04:08.520,-0.19,-0.06
18:04:08.524,-0.195,-0.005
18:04:08.528,-0.155,-0.045
18:04:08.532,-0.125,-0.05
18:04:08.536,-0.14,-0.035
18:04:08.540,-0.14,-0.03
18:04:08.544,-0.12,-0.03
18:04:08.548,-0.095,-0.04
18:04:08.552,-0.065,-0.05
18:04:08.556,-0.11,-0.065
18:04:08.560,-0.115,-0.08
18:04:08.564,-0.125,-0.08
18:04:08.568,-0.16,-0.065
18:04:08.572,-0.16,-0.055
18:04:08.576,-0.15,-0.07
18:04:08.580,-0.145,-0.08
18:04:08.584,-0.175,-0.075
18:04:08.588,-0.195,-0.11
18:04:08.592,-0.175,-0.13
18:04:08.596,-0.175,-0.135
18:04:08.600,-0.125,-0.15
18:04:08.604,-0.12,-0.15
18:04:08.608,-0.13,-0.13
18:04:08.612,-0.12,-0.15
18:04:08.616,-0.14,-0.13
18:04:08.620,-0.145,-0.11
18:04:08.624,-0.15,-0.115
18:04:08.628,-0.145,-0.105
18:04:08.632,-0.17,-0.125
18:04:08.636,-0.215,-0.15
18:04:08.640,-0.2,-0.19
18:04:08.644,-0.21,-0.19
18:04:08.648,-0.19,-0.205
18:04:08.652,-0.205,-0.185
18:04:08.656,-0.23,-0.18
18:04:08.660,-0.285,-0.18
18:04:08.664,-0.3,-0.175
18:04:08.668,-0.305,-0.155
18:04:08.672,-0.325,-0.16
18:04:08.676,-0.32,-0.14
18:04:08.680,-0.3,-0.155
18:04:08.684,-0.28,-0.17
18:04:08.688,-0.265,-0.17
18:04:08.692,-0.255,-0.19
18:04:08.696,-0.27,-0.16
18:04:08.700,-0.25,-0.175
18:04:08.704,-0.21,-0.15
18:04:08.708,-0.21,-0.14
18:04:08.712,-0.24,-0.155
18:04:08.716,-0.2,-0.165
18:04:08.720,-0.205,-0.185
18:04:08.724,-0.18,-0.195
18:04:08.728,-0.14,-0.185
18:04:08.732,-0.125,-0.17
18:04:08.736,-0.105,-0.155
18:04:08.740,-0.12,-0.17
18:04:08.744,-0.125,-0.18
18:04:08.748,-0.13,-0.16
18:04:08.752,-0.105,-0.15
18:04:08.756,-0.12,-0.145
18:04:08.760,-0.085,-0.14
18:04:08.764,-0.1,-0.155
18:04:08.768,-0.08,-0.155
18:04:08.772,-0.12,-0.155
18:04:08.776,-0.145,-0.15
18:04:08.780,-0.17,-0.12
18:04:08.784,-0.18,-0.095
18:04:08.788,-0.205,-0.06
18:04:08.792,-0.2,-0.08
18:04:08.796,-0.2,-0.095
18:04:08.800,-0.2,-0.14
18:04:08.804,-0.19,-0.1
18:04:08.808,-0.17,-0.115
18:04:08.812,-0.18,-0.11
18:04:08.816,-0.18,-0.105
18:04:08.820,-0.195,-0.11
18:04:08.824,-0.21,-0.105
18:04:08.828,-0.235,-0.115
18:04:08.832,-0.205,-0.1
18:04:08.836,-0.18,-0.11
18:04:08.840,-0.13,-0.1
18:04:08.844,-0.06,-0.105
18:04:08.848,0.015,-0.1
18:04:08.852,0.085,-0.14
18:04:08.856,0.095,-0.19
18:04:08.860,0.065,-0.28
18:04:08.864,0.04,-0.37
18:04:08.868,-0.005,-0.44
18:04:08.872,-0.08,-0.54
18:04:08.876,-0.1,-0.66
18:04:08.880,-0.065,-0.81
18:04:08.884,0.16,-1.005
18:04:08.888,0.465,-1.26
18:04:08.892,0.76,-1.53
18:04:08.896,0.845,-1.73
18:04:08.900,0.705,-1.76
18:04:08.904,0.365,-1.505
18:04:08.908,0.01,-1.055
18:04:08.912,-0.23,-0.635
18:04:08.916,-0.34,-0.38
18:04:08.920,-0.35,-0.25
18:04:08.924,-0.315,-0.13
18:04:08.928,-0.27,-0.065
18:04:08.932,-0.27,-0.04
18:04:08.936,-0.275,-0.035
18:04:08.940,-0.285,0.01
18:04:08.944,-0.26,0.01
18:04:08.948,-0.21,0.015
18:04:08.952,-0.18,0.01
18:04:08.956,-0.205,0.01
18:04:08.960,-0.215,0.0
18:04:08.964,-0.2,-0.005
18:04:08.968,-0.2,-0.025
18:04:08.972,-0.17,0.0
18:04:08.976,-0.15,0.02
18:04:08.980,-0.16,0.04
18:04:08.984,-0.13,0.02
18:04:08.988,-0.15,0.055
18:04:08.992,-0.165,0.05
18:04:08.996,-0.21,0.055
18:04:09.000,-0.24,0.07
18:04:09.004,-0.255,0.09
18:04:09.008,-0.27,0.125
18:04:09.012,-0.275,0.12
18:04:09.016,-0.265,0.105
18:04:09.020,-0.255,0.1
18:04:09.024,-0.26,0.09
18:04:09.028,-0.27,0.11
18:04:09.032,-0.245,0.115
18:04:09.036,-0.27,0.135
18:04:09.040,-0.265,0.135
18:04:09.044,-0.27,0.095
18:04:09.048,-0.285,0.12
18:04:09.052,-0.27,0.135
18:04:09.056,-0.25,0.12
18:04:09.060,-0.255,0.095
18:04:09.064,-0.255,0.065
18:04:09.068,-0.24,0.03
18:04:09.072,-0.285,0.0
18:04:09.076,-0.33,-0.015
18:04:09.080,-0.33,-0.04
18:04:09.084,-0.325,-0.04
18:04:09.088,-0.34,-0.05
18:04:09.092,-0.37,-0.04
18:04:09.096,-0.36,-0.07
18:04:09.100,-0.34,-0.07
18:04:09.104,-0.33,-0.1
18:04:09.108,-0.3,-0.14
18:04:09.112,-0.315,-0.145
18:04:09.116,-0.305,-0.16
18:04:09.120,-0.28,-0.15
18:04:09.124,-0.26,-0.155
18:04:09.128,-0.23,-0.145
18:04:09.132,-0.2,-0.145
18:04:09.136,-0.16,-0.085
18:04:09.140,-0.155,-0.06
18:04:09.144,-0.145,-0.085
18:04:09.148,-0.135,-0.08
18:04:09.152,-0.13,-0.08
18:04:09.156,-0.11,-0.07
18:04:09.160,-0.095,-0.06
18:04:09.164,-0.09,-0.055
18:04:09.168,-0.085,-0.06
18:04:09.172,-0.07,-0.03
18:04:09.176,-0.05,-0.03
18:04:09.180,-0.035,-0.05
18:04:09.184,0.0,-0.03
18:04:09.188,0.0,-0.045
18:04:09.192,-0.005,-0.02
18:04:09.196,-0.01,-0.01
18:04:09.200,-0.025,0.01
18:04:09.204,-0.06,0.01
18:04:09.208,-0.09,0.045
18:04:09.212,-0.13,0.045
18:04:09.216,-0.155,0.06
18:04:09.220,-0.18,0.04
18:04:09.224,-0.18,0.07
18:04:09.228,-0.19,0.045
18:04:09.232,-0.19,0.05
18:04:09.236,-0.2,0.055
18:04:09.240,-0.175,0.035
18:04:09.244,-0.21,0.03
18:04:09.248,-0.225,0.015
18:04:09.252,-0.245,0.03
18:04:09.256,-0.255,0.02
18:04:09.260,-0.25,0.015
18:04:09.264,-0.26,0.04
18:04:09.268,-0.275,0.02
18:04:09.272,-0.26,0.015
18:04:09.276,-0.23,-0.01
18:04:09.280,-0.245,-0.02
18:04:09.284,-0.25,-0.03
18:04:09.288,-0.28,-0.07
18:04:09.292,-0.28,-0.115
18:04:09.296,-0.3,-0.11
18:04:09.300,-0.27,-0.1
18:04:09.304,-0.3,-0.1
18:04:09.308,-0.315,-0.12
18:04:09.312,-0.32,-0.145
18:04:09.316,-0.34,-0.15
18:04:09.320,-0.37,-0.17
18:04:09.324,-0.35,-0.17
18:04:09.328,-0.36,-0.175
18:04:09.332,-0.34,-0.155
18:04:09.336,-0.375,-0.165
18:04:09.340,-0.345,-0.16
18:04:09.344,-0.345,-0.135
18:04:09.348,-0.305,-0.135
18:04:09.352,-0.27,-0.135
18:04:09.356,-0.28,-0.145
18:04:09.360,-0.255,-0.155
18:04:09.364,-0.24,-0.14
18:04:09.368,-0.24,-0.13
18:04:09.372,-0.255,-0.15
18:04:09.376,-0.265,-0.11
18:04:09.380,-0.235,-0.105
18:04:09.384,-0.2,-0.1
18:04:09.388,-0.185,-0.12
18:04:09.392,-0.165,-0.115
18:04:09.396,-0.185,-0.105
18:04:09.400,-0.16,-0.08
18:04:09.404,-0.17,-0.1
18:04:09.408,-0.165,-0.095
18:04:09.412,-0.17,-0.055
18:04:09.416,-0.205,-0.04
18:04:09.420,-0.24,-0.02
18:04:09.424,-0.235,0.0
18:04:09.428,-0.25,0.015
18:04:09.432,-0.215,0.005
18:04:09.436,-0.235,-0.02
18:04:09.440,-0.255,-0.015
18:04:09.444,-0.25,-0.015
18:04:09.448,-0.26,-0.04
18:04:09.452,-0.23,-0.045
18:04:09.456,-0.24,-0.03
18:04:09.460,-0.27,-0.03
18:04:09.464,-0.275,-0.03
18:04:09.468,-0.295,-0.03
18:04:09.472,-0.29,-0.07
18:04:09.476,-0.26,-0.075
18:04:09.480,-0.29,-0.13
18:04:09.484,-0.31,-0.14
18:04:09.488,-0.33,-0.16
18:04:09.492,-0.35,-0.17
18:04:09.496,-0.36,-0.18
18:04:09.500,-0.335,-0.17
18:04:09.504,-0.33,-0.18
18:04:09.508,-0.365,-0.175
18:04:09.512,-0.4,-0.16
18:04:09.516,-0.415,-0.185
18:04:09.520,-0.445,-0.18
18:04:09.524,-0.425,-0.17
18:04:09.528,-0.365,-0.165
18:04:09.532,-0.31,-0.17
18:04:09.536,-0.235,-0.21
18:04:09.540,-0.17,-0.195
18:04:09.544,-0.105,-0.175
18:04:09.548,-0.075,-0.255
18:04:09.552,-0.105,-0.305
18:04:09.556,-0.125,-0.355
18:04:09.560,-0.1,-0.415
18:04:09.564,-0.14,-0.47
18:04:09.568,-0.18,-0.62
18:04:09.572,-0.12,-0.8
18:04:09.576,0.08,-1.04
18:04:09.580,0.415,-1.315
18:04:09.584,0.725,-1.56
18:04:09.588,0.845,-1.77
18:04:09.592,0.705,-1.79
18:04:09.596,0.37,-1.56
18:04:09.600,-0.02,-1.1
18:04:09.604,-0.255,-0.65
18:04:09.608,-0.385,-0.42
18:04:09.612,-0.42,-0.28
18:04:09.616,-0.46,-0.195
18:04:09.620,-0.435,-0.09
18:04:09.624,-0.46,-0.03
18:04:09.628,-0.49,0.01
18:04:09.632,-0.505,0.055
18:04:09.636,-0.5,0.065
18:04:09.640,-0.485,0.045
18:04:09.644,-0.505,0.025
18:04:09.648,-0.485,0.015
18:04:09.652,-0.455,0.025
18:04:09.656,-0.425,0.01
18:04:09.660,-0.45,0.03
18:04:09.664,-0.455,0.0
18:04:09.668,-0.455,0.015
18:04:09.672,-0.495,0.03
18:04:09.676,-0.505,0.05
18:04:09.680,-0.515,0.055
18:04:09.684,-0.495,0.05
18:04:09.688,-0.52,0.055
18:04:09.692,-0.535,0.03
18:04:09.696,-0.565,0.045
18:04:09.700,-0.565,0.04
18:04:09.704,-0.575,0.04
18:04:09.708,-0.59,0.045
18:04:09.712,-0.58,0.025
18:04:09.716,-0.6,0.015
18:04:09.720,-0.665,0.01
18:04:09.724,-0.66,0.015
18:04:09.728,-0.68,0.045
18:04:09.732,-0.67,0.045
18:04:09.736,-0.665,0.01
18:04:09.740,-0.67,0.02
18:04:09.744,-0.655,0.03
18:04:09.748,-0.68,0.015
18:04:09.752,-0.675,0.015
18:04:09.756,-0.64,0.0
18:04:09.760,-0.63,0.01
18:04:09.764,-0.62,0.01
18:04:09.768,-0.605,0.01
18:04:09.772,-0.62,0.015
18:04:09.776,-0.59,0.025
18:04:09.780,-0.545,0.035
18:04:09.784,-0.51,0.02
18:04:09.788,-0.47,0.05
18:04:09.792,-0.455,0.04
18:04:09.796,-0.43,0.05
18:04:09.800,-0.42,0.025
18:04:09.804,-0.385,-0.01
18:04:09.808,-0.39,0.0
18:04:09.812,-0.39,0.005
18:04:09.816,-0.375,-0.015
18:04:09.820,-0.325,-0.04
18:04:09.824,-0.31,-0.065
18:04:09.828,-0.295,-0.08
18:04:09.832,-0.315,-0.105
18:04:09.836,-0.33,-0.12
18:04:09.840,-0.335,-0.135
18:04:09.844,-0.32,-0.135
18:04:09.848,-0.3,-0.15
18:04:09.852,-0.305,-0.145
18:04:09.856,-0.28,-0.16
18:04:09.860,-0.26,-0.155
18:04:09.864,-0.31,-0.14
18:04:09.868,-0.33,-0.165
18:04:09.872,-0.36,-0.16
18:04:09.876,-0.36,-0.175
18:04:09.880,-0.38,-0.185
18:04:09.884,-0.4,-0.175
18:04:09.888,-0.425,-0.15
18:04:09.892,-0.415,-0.135
18:04:09.896,-0.435,-0.155
18:04:09.900,-0.45,-0.145
18:04:09.904,-0.455,-0.135
18:04:09.908,-0.435,-0.12
18:04:09.912,-0.425,-0.12
18:04:09.916,-0.45,-0.125
18:04:09.920,-0.495,-0.135
18:04:09.924,-0.51,-0.15
18:04:09.928,-0.525,-0.13
18:04:09.932,-0.535,-0.115
18:04:09.936,-0.57,-0.11
18:04:09.940,-0.575,-0.105
18:04:09.944,-0.545,-0.115
18:04:09.948,-0.555,-0.105
18:04:09.952,-0.585,-0.105
18:04:09.956,-0.615,-0.1
18:04:09.960,-0.61,-0.095
18:04:09.964,-0.59,-0.12
18:04:09.968,-0.57,-0.125
18:04:09.972,-0.545,-0.115
18:04:09.976,-0.55,-0.105
18:04:09.980,-0.55,-0.125
18:04:09.984,-0.525,-0.11
18:04:09.988,-0.51,-0.1
18:04:09.992,-0.49,-0.12
18:04:09.996,-0.495,-0.135
18:04:10.000,-0.48,-0.125
18:04:10.004,-0.465,-0.13
18:04:10.008,-0.41,-0.13
18:04:10.012,-0.41,-0.15
18:04:10.016,-0.385,-0.13
18:04:10.020,-0.37,-0.16
18:04:10.024,-0.35,-0.135
18:04:10.028,-0.32,-0.13
18:04:10.032,-0.325,-0.135
18:04:10.036,-0.31,-0.125
18:04:10.040,-0.275,-0.16
18:04:10.044,-0.285,-0.155
18:04:10.048,-0.275,-0.155
18:04:10.052,-0.275,-0.15
18:04:10.056,-0.295,-0.125
18:04:10.060,-0.315,-0.145
18:04:10.064,-0.34,-0.16
18:04:10.068,-0.32,-0.145
18:04:10.072,-0.305,-0.165
18:04:10.076,-0.285,-0.18
18:04:10.080,-0.29,-0.175
18:04:10.084,-0.315,-0.185
18:04:10.088,-0.315,-0.17
18:04:10.092,-0.33,-0.165
18:04:10.096,-0.365,-0.16
18:04:10.100,-0.37,-0.16
18:04:10.104,-0.395,-0.16
18:04:10.108,-0.415,-0.18
18:04:10.112,-0.435,-0.19
18:04:10.116,-0.465,-0.2
18:04:10.120,-0.46,-0.205
18:04:10.124,-0.45,-0.22
18:04:10.128,-0.44,-0.185
18:04:10.132,-0.45,-0.215
18:04:10.136,-0.45,-0.19
18:04:10.140,-0.475,-0.205
18:04:10.144,-0.47,-0.19
18:04:10.148,-0.49,-0.19
18:04:10.152,-0.47,-0.19
18:04:10.156,-0.445,-0.175
18:04:10.160,-0.455,-0.165
18:04:10.164,-0.455,-0.18
18:04:10.168,-0.46,-0.16
18:04:10.172,-0.46,-0.15
18:04:10.176,-0.45,-0.145
18:04:10.180,-0.45,-0.15
18:04:10.184,-0.425,-0.15
18:04:10.188,-0.445,-0.17
18:04:10.192,-0.44,-0.145
18:04:10.196,-0.445,-0.14
18:04:10.200,-0.42,-0.145
18:04:10.204,-0.42,-0.13
18:04:10.208,-0.38,-0.135
18:04:10.212,-0.36,-0.125
18:04:10.216,-0.315,-0.135
18:04:10.220,-0.325,-0.12
18:04:10.224,-0.32,-0.13
18:04:10.228,-0.29,-0.115
18:04:10.232,-0.275,-0.125
18:04:10.236,-0.265,-0.15
18:04:10.240,-0.26,-0.18
18:04:10.244,-0.23,-0.155
18:04:10.248,-0.19,-0.135
18:04:10.252,-0.185,-0.125
18:04:10.256,-0.22,-0.1
18:04:10.260,-0.235,-0.075
18:04:10.264,-0.265,-0.075
18:04:10.268,-0.265,-0.045
18:04:10.272,-0.3,-0.065
18:04:10.276,-0.28,-0.065
18:04:10.280,-0.295,-0.105
18:04:10.284,-0.265,-0.13
18:04:10.288,-0.235,-0.13
18:04:10.292,-0.25,-0.17
18:04:10.296,-0.23,-0.145
18:04:10.300,-0.24,-0.145
18:04:10.304,-0.225,-0.18
18:04:10.308,-0.22,-0.165
18:04:10.312,-0.19,-0.185
18:04:10.316,-0.22,-0.2
18:04:10.320,-0.235,-0.245
18:04:10.324,-0.25,-0.25
18:04:10.328,-0.26,-0.27
18:04:10.332,-0.28,-0.28
18:04:10.336,-0.32,-0.265
18:04:10.340,-0.365,-0.25
18:04:10.344,-0.38,-0.255
18:04:10.348,-0.38,-0.255
18:04:10.352,-0.4,-0.25
18:04:10.356,-0.41,-0.24
18:04:10.360,-0.405,-0.235
18:04:10.364,-0.445,-0.265
18:04:10.368,-0.47,-0.265
18:04:10.372,-0.475,-0.295
18:04:10.376,-0.48,-0.28
18:04:10.380,-0.49,-0.275
18:04:10.384,-0.47,-0.265
18:04:10.388,-0.5,-0.26
18:04:10.392,-0.515,-0.255
18:04:10.396,-0.465,-0.27
18:04:10.400,-0.455,-0.25
18:04:10.404,-0.41,-0.255
18:04:10.408,-0.395,-0.24
18:04:10.412,-0.4,-0.255
18:04:10.416,-0.395,-0.235
18:04:10.420,-0.365,-0.215
18:04:10.424,-0.355,-0.2
18:04:10.428,-0.31,-0.195
18:04:10.432,-0.305,-0.205
18:04:10.436,-0.29,-0.19
18:04:10.440,-0.285,-0.16
18:04:10.444,-0.25,-0.175
18:04:10.448,-0.24,-0.17
18:04:10.452,-0.24,-0.155
18:04:10.456,-0.255,-0.145
18:04:10.460,-0.265,-0.125
18:04:10.464,-0.275,-0.11
18:04:10.468,-0.31,-0.115
18:04:10.472,-0.31,-0.11
18:04:10.476,-0.31,-0.115
18:04:10.480,-0.33,-0.12
18:04:10.484,-0.335,-0.145
18:04:10.488,-0.3,-0.16
18:04:10.492,-0.315,-0.205
18:04:10.496,-0.29,-0.2
18:04:10.500,-0.28,-0.21
18:04:10.504,-0.225,-0.21
18:04:10.508,-0.17,-0.205
18:04:10.512,-0.075,-0.21
18:04:10.516,0.005,-0.205
18:04:10.520,0.09,-0.225
18:04:10.524,0.115,-0.26
18:04:10.528,0.095,-0.32
18:04:10.532,0.09,-0.375
18:04:10.536,0.05,-0.49
18:04:10.540,-0.05,-0.58
18:04:10.544,-0.135,-0.725
18:04:10.548,-0.08,-0.885
18:04:10.552,0.095,-1.105
18:04:10.556,0.4,-1.345
18:04:10.560,0.685,-1.6
18:04:10.564,0.88,-1.825
18:04:10.568,0.93,-1.885
18:04:10.572,0.695,-1.745
18:04:10.576,0.3,-1.365
18:04:10.580,-0.12,-0.91
18:04:10.584,-0.37,-0.605
18:04:10.588,-0.48,-0.425
18:04:10.592,-0.55,-0.34
18:04:10.596,-0.585,-0.225
18:04:10.600,-0.62,-0.14
18:04:10.604,-0.545,-0.135
18:04:10.608,-0.52,-0.095
18:04:10.612,-0.555,-0.08
18:04:10.616,-0.565,-0.08
18:04:10.620,-0.54,-0.055
18:04:10.624,-0.515,-0.055
18:04:10.628,-0.51,-0.045
18:04:10.632,-0.495,-0.045
18:04:10.636,-0.49,-0.035
18:04:10.640,-0.455,-0.025
18:04:10.644,-0.435,-0.01
18:04:10.648,-0.455,0.005
18:04:10.652,-0.455,-0.005
18:04:10.656,-0.48,0.01
18:04:10.660,-0.47,0.045
18:04:10.664,-0.49,0.05
18:04:10.668,-0.475,0.075
18:04:10.672,-0.455,0.085
18:04:10.676,-0.435,0.065
18:04:10.680,-0.445,0.055
18:04:10.684,-0.45,0.04
18:04:10.688,-0.45,0.03
18:04:10.692,-0.43,0.025
18:04:10.696,-0.44,0.035
18:04:10.700,-0.46,0.02
18:04:10.704,-0.46,0.04
18:04:10.708,-0.455,0.025
18:04:10.712,-0.445,0.03
18:04:10.716,-0.425,0.06
18:04:10.720,-0.4,0.04
18:04:10.724,-0.385,0.025
18:04:10.728,-0.36,0.015
18:04:10.732,-0.365,-0.005
18:04:10.736,-0.365,0.0
18:04:10.740,-0.34,-0.03
18:04:10.744,-0.355,-0.06
18:04:10.748,-0.33,-0.08
18:04:10.752,-0.35,-0.075
18:04:10.756,-0.355,-0.075
18:04:10.760,-0.355,-0.07
18:04:10.764,-0.385,-0.08
18:04:10.768,-0.4,-0.1
18:04:10.772,-0.39,-0.08
18:04:10.776,-0.415,-0.08
18:04:10.780,-0.425,-0.07
18:04:10.784,-0.415,-0.1
18:04:10.788,-0.4,-0.11
18:04:10.792,-0.395,-0.13
18:04:10.796,-0.405,-0.15
18:04:10.800,-0.39,-0.135
18:04:10.804,-0.39,-0.165
18:04:10.808,-0.39,-0.16
18:04:10.812,-0.37,-0.145
18:04:10.816,-0.37,-0.14
18:04:10.820,-0.35,-0.155
18:04:10.824,-0.345,-0.16
18:04:10.828,-0.33,-0.175
18:04:10.832,-0.305,-0.18
18:04:10.836,-0.285,-0.16
18:04:10.840,-0.275,-0.16
18:04:10.844,-0.265,-0.18
18:04:10.848,-0.275,-0.16
18:04:10.852,-0.285,-0.16
18:04:10.856,-0.295,-0.155
18:04:10.860,-0.3,-0.14
18:04:10.864,-0.29,-0.12
18:04:10.868,-0.275,-0.105
18:04:10.872,-0.22,-0.105
18:04:10.876,-0.21,-0.075
18:04:10.880,-0.205,-0.08
18:04:10.884,-0.225,-0.09
18:04:10.888,-0.225,-0.065
18:04:10.892,-0.19,-0.085
18:04:10.896,-0.175,-0.07
18:04:10.900,-0.18,-0.08
18:04:10.904,-0.21,-0.085
18:04:10.908,-0.21,-0.065
18:04:10.912,-0.2,-0.065
18:04:10.916,-0.225,-0.045
18:04:10.920,-0.205,-0.065
18:04:10.924,-0.195,-0.09
18:04:10.928,-0.155,-0.08
18:04:10.932,-0.16,-0.08
18:04:10.936,-0.175,-0.11
18:04:10.940,-0.2,-0.11
18:04:10.944,-0.225,-0.13
18:04:10.948,-0.235,-0.14
18:04:10.952,-0.195,-0.155
18:04:10.956,-0.2,-0.205
18:04:10.960,-0.21,-0.205
18:04:10.964,-0.205,-0.205
18:04:10.968,-0.245,-0.2
18:04:10.972,-0.245,-0.2
18:04:10.976,-0.255,-0.21
18:04:10.980,-0.265,-0.195
18:04:10.984,-0.28,-0.21
18:04:10.988,-0.3,-0.225
18:04:10.992,-0.295,-0.215
18:04:10.996,-0.315,-0.235
18:04:11.000,-0.335,-0.24
18:04:11.004,-0.355,-0.22
18:04:11.008,-0.36,-0.23
18:04:11.012,-0.37,-0.24
18:04:11.016,-0.37,-0.25
18:04:11.020,-0.365,-0.245
18:04:11.024,-0.355,-0.24
18:04:11.028,-0.345,-0.265
18:04:11.032,-0.335,-0.255
18:04:11.036,-0.355,-0.235
18:04:11.040,-0.335,-0.205
18:04:11.044,-0.36,-0.205
18:04:11.048,-0.34,-0.18
18:04:11.052,-0.32,-0.19
18:04:11.056,-0.285,-0.17
18:04:11.060,-0.29,-0.175
18:04:11.064,-0.285,-0.155
18:04:11.068,-0.285,-0.16
18:04:11.072,-0.25,-0.155
18:04:11.076,-0.265,-0.16
18:04:11.080,-0.285,-0.14
18:04:11.084,-0.305,-0.135
18:04:11.088,-0.295,-0.12
18:04:11.092,-0.305,-0.105
18:04:11.096,-0.32,-0.085
18:04:11.100,-0.31,-0.08
18:04:11.104,-0.26,-0.08
18:04:11.108,-0.265,-0.085
18:04:11.112,-0.27,-0.105
18:04:11.116,-0.305,-0.12
18:04:11.120,-0.255,-0.125
18:04:11.124,-0.2,-0.13
18:04:11.128,-0.195,-0.155
18:04:11.132,-0.2,-0.145
18:04:11.136,-0.21,-0.16
18:04:11.140,-0.175,-0.155
18:04:11.144,-0.17,-0.15
18:04:11.148,-0.175,-0.135
18:04:11.152,-0.14,-0.15
18:04:11.156,-0.12,-0.16
18:04:11.160,-0.145,-0.205
18:04:11.164,-0.14,-0.205
18:04:11.168,-0.135,-0.225
18:04:11.172,-0.115,-0.235
18:04:11.176,-0.115,-0.255
18:04:11.180,-0.12,-0.245
18:04:11.184,-0.1,-0.24
18:04:11.188,-0.06,-0.25
18:04:11.192,-0.01,-0.245
18:04:11.196,0.08,-0.235
18:04:11.200,0.11,-0.25
18:04:11.204,0.115,-0.31
18:04:11.208,0.105,-0.36
18:04:11.212,0.045,-0.455
18:04:11.216,0.02,-0.5
18:04:11.220,-0.03,-0.59
18:04:11.224,-0.025,-0.705
18:04:11.228,0.08,-0.92
18:04:11.232,0.325,-1.17
18:04:11.236,0.67,-1.455
18:04:11.240,0.91,-1.705
18:04:11.244,0.92,-1.875
18:04:11.248,0.705,-1.85
18:04:11.252,0.335,-1.535
18:04:11.256,-0.035,-1.055
18:04:11.260,-0.235,-0.665
18:04:11.264,-0.32,-0.495
18:04:11.268,-0.335,-0.345
18:04:11.272,-0.335,-0.22
18:04:11.276,-0.3,-0.125
18:04:11.280,-0.295,-0.05
18:04:11.284,-0.315,0.01
18:04:11.288,-0.37,0.04
18:04:11.292,-0.43,0.055
18:04:11.296,-0.43,0.045
18:04:11.300,-0.42,0.05
18:04:11.304,-0.425,0.07
18:04:11.308,-0.44,0.065
18:04:11.312,-0.43,0.06
18:04:11.316,-0.41,0.04
18:04:11.320,-0.39,0.06
18:04:11.324,-0.43,0.05
18:04:11.328,-0.445,0.025
18:04:11.332,-0.405,0.03
18:04:11.336,-0.365,0.025
18:04:11.340,-0.36,0.025
18:04:11.344,-0.36,-0.005
18:04:11.348,-0.37,-0.025
18:04:11.352,-0.38,-0.03
18:04:11.356,-0.415,-0.01
18:04:11.360,-0.385,-0.025
18:04:11.364,-0.37,-0.03
18:04:11.368,-0.38,-0.04
18:04:11.372,-0.38,-0.045
18:04:11.376,-0.355,-0.025
18:04:11.380,-0.34,-0.02
18:04:11.384,-0.345,-0.02
18:04:11.388,-0.35,-0.05
18:04:11.392,-0.355,-0.03
18:04:11.396,-0.365,-0.01
18:04:11.400,-0.375,-0.04
18:04:11.404,-0.38,-0.025
18:04:11.408,-0.41,-0.025
18:04:11.412,-0.4,-0.045
18:04:11.416,-0.415,-0.03
18:04:11.420,-0.39,-0.035
18:04:11.424,-0.375,-0.025
18:04:11.428,-0.375,-0.055
18:04:11.432,-0.355,-0.04
18:04:11.436,-0.335,-0.08
18:04:11.440,-0.355,-0.06
18:04:11.444,-0.35,-0.08
18:04:11.448,-0.35,-0.11
18:04:11.452,-0.365,-0.12
18:04:11.456,-0.36,-0.14
18:04:11.460,-0.345,-0.13
18:04:11.464,-0.32,-0.175
18:04:11.468,-0.295,-0.165
18:04:11.472,-0.255,-0.19
18:04:11.476,-0.245,-0.18
18:04:11.480,-0.24,-0.22
18:04:11.484,-0.245,-0.22
18:04:11.488,-0.23,-0.21
18:04:11.492,-0.245,-0.22
18:04:11.496,-0.235,-0.22
18:04:11.500,-0.245,-0.22
18:04:11.504,-0.25,-0.225
18:04:11.508,-0.26,-0.22
18:04:11.512,-0.265,-0.18
18:04:11.516,-0.275,-0.18
18:04:11.520,-0.26,-0.165
18:04:11.524,-0.26,-0.15
18:04:11.528,-0.245,-0.145
18:04:11.532,-0.245,-0.15
18:04:11.536,-0.27,-0.16
18:04:11.540,-0.29,-0.14
18:04:11.544,-0.305,-0.135
18:04:11.548,-0.32,-0.155
18:04:11.552,-0.35,-0.135
18:04:11.556,-0.35,-0.13
18:04:11.560,-0.335,-0.11
18:04:11.564,-0.335,-0.09
18:04:11.568,-0.32,-0.11
18:04:11.572,-0.3,-0.1
18:04:11.576,-0.345,-0.08
18:04:11.580,-0.36,-0.1
18:04:11.584,-0.36,-0.11
18:04:11.588,-0.34,-0.1
18:04:11.592,-0.375,-0.12
18:04:11.596,-0.375,-0.1
18:04:11.600,-0.375,-0.105
18:04:11.604,-0.36,-0.14
18:04:11.608,-0.375,-0.12
18:04:11.612,-0.38,-0.145
18:04:11.616,-0.385,-0.175
18:04:11.620,-0.375,-0.195
18:04:11.624,-0.36,-0.2
18:04:11.628,-0.37,-0.23
18:04:11.632,-0.375,-0.26
18:04:11.636,-0.375,-0.255
18:04:11.640,-0.365,-0.265
18:04:11.644,-0.36,-0.265
18:04:11.648,-0.345,-0.27
18:04:11.652,-0.345,-0.285
18:04:11.656,-0.37,-0.305
18:04:11.660,-0.38,-0.3
18:04:11.664,-0.35,-0.285
18:04:11.668,-0.32,-0.275
18:04:11.672,-0.325,-0.305
18:04:11.676,-0.31,-0.3
18:04:11.680,-0.305,-0.29
18:04:11.684,-0.305,-0.285
18:04:11.688,-0.305,-0.315
18:04:11.692,-0.31,-0.31
18:04:11.696,-0.3,-0.31
18:04:11.700,-0.285,-0.305
18:04:11.704,-0.275,-0.29
18:04:11.708,-0.275,-0.265
18:04:11.712,-0.25,-0.255
18:04:11.716,-0.255,-0.23
18:04:11.720,-0.25,-0.225
18:04:11.724,-0.28,-0.2
18:04:11.728,-0.305,-0.185
18:04:11.732,-0.315,-0.16
18:04:11.736,-0.345,-0.165
18:04:11.740,-0.33,-0.165
18:04:11.744,-0.315,-0.18
18:04:11.748,-0.295,-0.195
18:04:11.752,-0.275,-0.195
18:04:11.756,-0.255,-0.205
18:04:11.760,-0.22,-0.17
18:04:11.764,-0.16,-0.16
18:04:11.768,-0.1,-0.16
18:04:11.772,-0.035,-0.165
18:04:11.776,0.0,-0.19
18:04:11.780,-0.03,-0.225
18:04:11.784,-0.07,-0.295
18:04:11.788,-0.095,-0.365
18:04:11.792,-0.13,-0.44
18:04:11.796,-0.16,-0.54
18:04:11.800,-0.18,-0.655
18:04:11.804,-0.095,-0.855
18:04:11.808,0.165,-1.085
18:04:11.812,0.48,-1.36
18:04:11.816,0.68,-1.62
18:04:11.820,0.68,-1.78
18:04:11.824,0.445,-1.74
18:04:11.828,0.115,-1.385
18:04:11.832,-0.215,-0.905
18:04:11.836,-0.395,-0.57
18:04:11.840,-0.425,-0.38
18:04:11.844,-0.415,-0.25
18:04:11.848,-0.42,-0.175
18:04:11.852,-0.445,-0.1
18:04:11.856,-0.45,-0.055
18:04:11.860,-0.46,-0.045
18:04:11.864,-0.415,-0.03
18:04:11.868,-0.42,-0.02
18:04:11.872,-0.425,-0.065
18:04:11.876,-0.43,-0.07
18:04:11.880,-0.4,-0.06
18:04:11.884,-0.395,-0.06
18:04:11.888,-0.4,-0.06
18:04:11.892,-0.43,-0.1
18:04:11.896,-0.435,-0.07
18:04:11.900,-0.42,-0.09
18:04:11.904,-0.425,-0.06
18:04:11.908,-0.4,-0.06
18:04:11.912,-0.4,-0.06
18:04:11.916,-0.415,-0.04
18:04:11.920,-0.385,-0.04
18:04:11.924,-0.375,-0.02
18:04:11.928,-0.35,-0.03
18:04:11.932,-0.345,-0.02
18:04:11.936,-0.345,-0.025
18:04:11.940,-0.355,-0.025
18:04:11.944,-0.34,-0.02
18:04:11.948,-0.355,-0.035
18:04:11.952,-0.38,-0.01
18:04:11.956,-0.36,0.01
18:04:11.960,-0.365,0.015
18:04:11.964,-0.355,0.03
18:04:11.968,-0.345,0.045
18:04:11.972,-0.345,0.055
18:04:11.976,-0.3,0.07
18:04:11.980,-0.3,0.085
18:04:11.984,-0.315,0.085
18:04:11.988,-0.335,0.095
18:04:11.992,-0.335,0.115
18:04:11.996,-0.355,0.115
18:04:12.000,-0.31,0.095
18:04:12.004,-0.32,0.085
18:04:12.008,-0.33,0.075
18:04:12.012,-0.355,0.055
18:04:12.016,-0.36,0.045
18:04:12.020,-0.385,0.01
18:04:12.024,-0.39,0.0
18:04:12.028,-0.39,-0.015
18:04:12.032,-0.375,-0.055
18:04:12.036,-0.35,-0.06
18:04:12.040,-0.345,-0.11
18:04:12.044,-0.34,-0.135
18:04:12.048,-0.325,-0.125
18:04:12.052,-0.315,-0.175
18:04:12.056,-0.28,-0.215
18:04:12.060,-0.26,-0.215
18:04:12.064,-0.225,-0.21
18:04:12.068,-0.235,-0.215
18:04:12.072,-0.225,-0.235
18:04:12.076,-0.22,-0.22
18:04:12.080,-0.215,-0.215
18:04:12.084,-0.245,-0.2
18:04:12.088,-0.27,-0.195
18:04:12.092,-0.275,-0.175
18:04:12.096,-0.245,-0.17
18:04:12.100,-0.23,-0.18
18:04:12.104,-0.21,-0.195
18:04:12.108,-0.21,-0.195
18:04:12.112,-0.195,-0.22
18:04:12.116,-0.195,-0.22
18:04:12.120,-0.21,-0.22
18:04:12.124,-0.23,-0.21
18:04:12.128,-0.21,-0.215
18:04:12.132,-0.24,-0.215
18:04:12.136,-0.25,-0.21
18:04:12.140,-0.255,-0.225
18:04:12.144,-0.26,-0.225
18:04:12.148,-0.27,-0.215
18:04:12.152,-0.255,-0.22
18:04:12.156,-0.295,-0.225
18:04:12.160,-0.335,-0.23
18:04:12.164,-0.345,-0.205
18:04:12.168,-0.33,-0.22
18:04:12.172,-0.295,-0.225
18:04:12.176,-0.3,-0.225
18:04:12.180,-0.295,-0.23
18:04:12.184,-0.275,-0.21
18:04:12.188,-0.275,-0.2
18:04:12.192,-0.265,-0.185
18:04:12.196,-0.28,-0.165
18:04:12.200,-0.26,-0.17
18:04:12.204,-0.255,-0.175
18:04:12.208,-0.22,-0.19
18:04:12.212,-0.235,-0.175
18:04:12.216,-0.25,-0.18
18:04:12.220,-0.26,-0.165
18:04:12.224,-0.27,-0.14
18:04:12.228,-0.265,-0.13
18:04:12.232,-0.295,-0.155
18:04:12.236,-0.3,-0.155
18:04:12.240,-0.3,-0.185
18:04:12.244,-0.32,-0.18
18:04:12.248,-0.325,-0.18
18:04:12.252,-0.35,-0.205
18:04:12.256,-0.37,-0.205
18:04:12.260,-0.36,-0.22
18:04:12.264,-0.355,-0.215
18:04:12.268,-0.35,-0.265
18:04:12.272,-0.31,-0.225
18:04:12.276,-0.29,-0.215
18:04:12.280,-0.31,-0.225
18:04:12.284,-0.3,-0.2
18:04:12.288,-0.32,-0.2
18:04:12.292,-0.32,-0.19
18:04:12.296,-0.3,-0.18
18:04:12.300,-0.31,-0.165
18:04:12.304,-0.31,-0.145
18:04:12.308,-0.35,-0.18
18:04:12.312,-0.345,-0.19
18:04:12.316,-0.355,-0.19
18:04:12.320,-0.345,-0.22
18:04:12.324,-0.335,-0.255
18:04:12.328,-0.32,-0.235
18:04:12.332,-0.31,-0.26
18:04:12.336,-0.325,-0.26
18:04:12.340,-0.335,-0.27
18:04:12.344,-0.315,-0.28
18:04:12.348,-0.295,-0.28
18:04:12.352,-0.31,-0.305
18:04:12.356,-0.305,-0.285
18:04:12.360,-0.24,-0.3
18:04:12.364,-0.14,-0.295
18:04:12.368,-0.085,-0.32
18:04:12.372,-0.05,-0.36
18:04:12.376,-0.04,-0.425
18:04:12.380,-0.065,-0.48
18:04:12.384,-0.075,-0.535
18:04:12.388,-0.15,-0.605
18:04:12.392,-0.2,-0.73
18:04:12.396,-0.2,-0.9
18:04:12.400,-0.015,-1.11
18:04:12.404,0.3,-1.36
18:04:12.408,0.615,-1.645
18:04:12.412,0.735,-1.83
18:04:12.416,0.62,-1.895
18:04:12.420,0.305,-1.68
18:04:12.424,-0.035,-1.21
18:04:12.428,-0.265,-0.75
18:04:12.432,-0.365,-0.495
18:04:12.436,-0.425,-0.38
18:04:12.440,-0.405,-0.255
18:04:12.444,-0.39,-0.15
18:04:12.448,-0.41,-0.08
18:04:12.452,-0.425,-0.045
18:04:12.456,-0.45,-0.04
18:04:12.460,-0.45,-0.04
18:04:12.464,-0.455,-0.05
18:04:12.468,-0.49,-0.065
18:04:12.472,-0.51,-0.05
18:04:12.476,-0.54,-0.055
18:04:12.480,-0.56,-0.075
18:04:12.484,-0.585,-0.07
18:04:12.488,-0.59,-0.06
18:04:12.492,-0.615,-0.06
18:04:12.496,-0.59,-0.06
18:04:12.500,-0.555,-0.07
18:04:12.504,-0.57,-0.07
18:04:12.508,-0.58,-0.06
18:04:12.512,-0.575,-0.07
18:04:12.516,-0.575,-0.1
18:04:12.520,-0.56,-0.085
18:04:12.524,-0.56,-0.085
18:04:12.528,-0.605,-0.075
18:04:12.532,-0.61,-0.05
18:04:12.536,-0.65,-0.05
18:04:12.540,-0.64,-0.025
18:04:12.544,-0.62,-0.025
18:04:12.548,-0.615,-0.025
18:04:12.552,-0.62,-0.03
18:04:12.556,-0.6,0.0
18:04:12.560,-0.59,-0.015
18:04:12.564,-0.62,-0.025
18:04:12.568,-0.595,-0.045
18:04:12.572,-0.585,-0.065
18:04:12.576,-0.57,-0.07
18:04:12.580,-0.555,-0.07
18:04:12.584,-0.52,-0.07
18:04:12.588,-0.515,-0.06
18:04:12.592,-0.525,-0.11
18:04:12.596,-0.51,-0.11
18:04:12.600,-0.5,-0.125
18:04:12.604,-0.51,-0.135
18:04:12.608,-0.54,-0.13
18:04:12.612,-0.535,-0.125
18:04:12.616,-0.53,-0.15
18:04:12.620,-0.54,-0.16
18:04:12.624,-0.535,-0.185
18:04:12.628,-0.52,-0.215
18:04:12.632,-0.49,-0.24
18:04:12.636,-0.465,-0.225
18:04:12.640,-0.455,-0.22
18:04:12.644,-0.445,-0.235
18:04:12.648,-0.465,-0.23
18:04:12.652,-0.455,-0.25
18:04:12.656,-0.48,-0.26
18:04:12.660,-0.455,-0.26
18:04:12.664,-0.44,-0.25
18:04:12.668,-0.39,-0.27
18:04:12.672,-0.34,-0.26
18:04:12.676,-0.31,-0.245
18:04:12.680,-0.3,-0.205
18:04:12.684,-0.305,-0.22
18:04:12.688,-0.305,-0.195
18:04:12.692,-0.315,-0.2
18:04:12.696,-0.31,-0.195
18:04:12.700,-0.33,-0.2
18:04:12.704,-0.33,-0.215
18:04:12.708,-0.34,-0.19
18:04:12.712,-0.33,-0.205
18:04:12.716,-0.335,-0.22
18:04:12.720,-0.36,-0.21
18:04:12.724,-0.365,-0.205
18:04:12.728,-0.375,-0.185
18:04:12.732,-0.39,-0.195
18:04:12.736,-0.385,-0.19
18:04:12.740,-0.38,-0.175
18:04:12.744,-0.38,-0.195
18:04:12.748,-0.385,-0.19
18:04:12.752,-0.39,-0.165
18:04:12.756,-0.405,-0.175
18:04:12.760,-0.435,-0.21
18:04:12.764,-0.43,-0.2
18:04:12.768,-0.435,-0.215
18:04:12.772,-0.4,-0.23
18:04:12.776,-0.41,-0.22
18:04:12.780,-0.41,-0.21
18:04:12.784,-0.405,-0.23
18:04:12.788,-0.39,-0.225
18:04:12.792,-0.39,-0.24
18:04:12.796,-0.385,-0.215
18:04:12.800,-0.38,-0.215
18:04:12.804,-0.375,-0.235
18:04:12.808,-0.35,-0.245
18:04:12.812,-0.33,-0.225
18:04:12.816,-0.35,-0.215
18:04:12.820,-0.375,-0.23
18:04:12.824,-0.375,-0.23
18:04:12.828,-0.35,-0.25
18:04:12.832,-0.34,-0.25
18:04:12.836,-0.345,-0.23
18:04:12.840,-0.32,-0.23
18:04:12.844,-0.345,-0.225
18:04:12.848,-0.36,-0.21
18:04:12.852,-0.35,-0.25
18:04:12.856,-0.365,-0.22
18:04:12.860,-0.38,-0.24
18:04:12.864,-0.375,-0.24
18:04:12.868,-0.365,-0.24
18:04:12.872,-0.345,-0.245
18:04:12.876,-0.335,-0.25
18:04:12.880,-0.24,-0.25
18:04:12.884,-0.16,-0.24
18:04:12.888,-0.075,-0.27
18:04:12.892,-0.01,-0.275
18:04:12.896,0.0,-0.31
18:04:12.900,0.005,-0.375
18:04:12.904,0.0,-0.435
18:04:12.908,-0.025,-0.485
18:04:12.912,-0.025,-0.595
18:04:12.916,0.005,-0.73
18:04:12.920,0.16,-0.875
18:04:12.924,0.48,-1.085
18:04:12.928,0.825,-1.315
18:04:12.932,1.005,-1.5
18:04:12.936,0.93,-1.595
18:04:12.940,0.575,-1.48
18:04:12.944,0.095,-1.05
18:04:12.948,-0.2,-0.59
18:04:12.952,-0.325,-0.315
18:04:12.956,-0.36,-0.175
18:04:12.960,-0.355,-0.065
18:04:12.964,-0.345,0.0
18:04:12.968,-0.36,0.03
18:04:12.972,-0.385,0.05
18:04:12.976,-0.36,0.05
18:04:12.980,-0.345,0.035
18:04:12.984,-0.375,0.0
18:04:12.988,-0.395,-0.01
18:04:12.992,-0.415,-0.08
18:04:12.996,-0.425,-0.085
18:04:13.000,-0.41,-0.1
18:04:13.004,-0.42,-0.085
18:04:13.008,-0.45,-0.105
18:04:13.012,-0.465,-0.12
18:04:13.016,-0.485,-0.095
18:04:13.020,-0.46,-0.11
18:04:13.024,-0.47,-0.095
18:04:13.028,-0.48,-0.105
18:04:13.032,-0.47,-0.1
18:04:13.036,-0.48,-0.07
18:04:13.040,-0.445,-0.1
18:04:13.044,-0.445,-0.095
18:04:13.048,-0.445,-0.085
18:04:13.052,-0.435,-0.07
18:04:13.056,-0.475,-0.055
18:04:13.060,-0.475,-0.045
18:04:13.064,-0.45,-0.055
18:04:13.068,-0.445,-0.03
18:04:13.072,-0.445,-0.04
18:04:13.076,-0.45,-0.03
18:04:13.080,-0.455,-0.03
18:04:13.084,-0.46,-0.02
18:04:13.088,-0.465,-0.03
18:04:13.092,-0.455,-0.015
18:04:13.096,-0.435,-0.02
18:04:13.100,-0.415,0.0
18:04:13.104,-0.435,-0.03
18:04:13.108,-0.415,-0.04
18:04:13.112,-0.405,-0.055
18:04:13.116,-0.425,-0.03
18:04:13.120,-0.405,-0.03
18:04:13.124,-0.405,-0.04
18:04:13.128,-0.395,-0.07
18:04:13.132,-0.38,-0.065
18:04:13.136,-0.365,-0.085
18:04:13.140,-0.345,-0.095
18:04:13.144,-0.32,-0.115
18:04:13.148,-0.26,-0.11
18:04:13.152,-0.195,-0.09
18:04:13.156,-0.19,-0.1
18:04:13.160,-0.175,-0.095
18:04:13.164,-0.17,-0.08
18:04:13.168,-0.15,-0.08
18:04:13.172,-0.195,-0.085
18:04:13.176,-0.225,-0.055
18:04:13.180,-0.22,-0.075
18:04:13.184,-0.195,-0.07
18:04:13.188,-0.16,-0.085
18:04:13.192,-0.145,-0.09
18:04:13.196,-0.145,-0.115
18:04:13.200,-0.14,-0.105
18:04:13.204,-0.16,-0.115
18:04:13.208,-0.155,-0.115
18:04:13.212,-0.125,-0.13
18:04:13.216,-0.14,-0.16
18:04:13.220,-0.15,-0.16
18:04:13.224,-0.18,-0.18
18:04:13.228,-0.205,-0.21
18:04:13.232,-0.21,-0.225
18:04:13.236,-0.21,-0.265
18:04:13.240,-0.2,-0.26
18:04:13.244,-0.21,-0.275
18:04:13.248,-0.21,-0.275
18:04:13.252,-0.225,-0.265
18:04:13.256,-0.235,-0.265
18:04:13.260,-0.265,-0.245
18:04:13.264,-0.255,-0.25
18:04:13.268,-0.245,-0.23
18:04:13.272,-0.23,-0.26
18:04:13.276,-0.245,-0.25
18:04:13.280,-0.28,-0.245
18:04:13.284,-0.3,-0.265
18:04:13.288,-0.295,-0.265
18:04:13.292,-0.295,-0.255
18:04:13.296,-0.275,-0.275
18:04:13.300,-0.275,-0.25
18:04:13.304,-0.245,-0.25
18:04:13.308,-0.24,-0.26
18:04:13.312,-0.27,-0.26
18:04:13.316,-0.27,-0.255
18:04:13.320,-0.265,-0.245
18:04:13.324,-0.27,-0.235
18:04:13.328,-0.27,-0.245
18:04:13.332,-0.285,-0.235
18:04:13.336,-0.315,-0.245
18:04:13.340,-0.31,-0.245
18:04:13.344,-0.29,-0.24
18:04:13.348,-0.27,-0.23
18:04:13.352,-0.295,-0.225
18:04:13.356,-0.32,-0.225
18:04:13.360,-0.345,-0.23
18:04:13.364,-0.34,-0.235
18:04:13.368,-0.295,-0.21
18:04:13.372,-0.275,-0.2
18:04:13.376,-0.255,-0.215
18:04:13.380,-0.235,-0.235
18:04:13.384,-0.24,-0.215
18:04:13.388,-0.225,-0.2
18:04:13.392,-0.215,-0.22
18:04:13.396,-0.23,-0.21
18:04:13.400,-0.25,-0.195
18:04:13.404,-0.24,-0.24
18:04:13.408,-0.225,-0.235
18:04:13.412,-0.185,-0.27
18:04:13.416,-0.15,-0.275
18:04:13.420,-0.1,-0.28
18:04:13.424,-0.08,-0.26
18:04:13.428,-0.07,-0.265
18:04:13.432,-0.11,-0.265
18:04:13.436,-0.14,-0.24
18:04:13.440,-0.15,-0.215
18:04:13.444,-0.13,-0.23
18:04:13.448,-0.11,-0.21
18:04:13.452,-0.105,-0.215
18:04:13.456,-0.065,-0.25
18:04:13.460,-0.015,-0.23
18:04:13.464,0.04,-0.27
18:04:13.468,0.085,-0.285
18:04:13.472,0.1,-0.375
18:04:13.476,0.065,-0.445
18:04:13.480,0.025,-0.51
18:04:13.484,-0.035,-0.59
18:04:13.488,-0.125,-0.68
18:04:13.492,-0.135,-0.83
18:04:13.496,-0.015,-1.01
18:04:13.500,0.265,-1.25
18:04:13.504,0.615,-1.515
18:04:13.508,0.805,-1.745
18:04:13.512,0.765,-1.885
18:04:13.516,0.49,-1.775
18:04:13.520,0.085,-1.395
18:04:13.524,-0.23,-0.955
18:04:13.528,-0.35,-0.61
18:04:13.532,-0.405,-0.425
18:04:13.536,-0.41,-0.31
18:04:13.540,-0.42,-0.23
18:04:13.544,-0.4,-0.165
18:04:13.548,-0.425,-0.135
18:04:13.552,-0.405,-0.075
18:04:13.556,-0.385,-0.065
18:04:13.560,-0.375,-0.115
18:04:13.564,-0.375,-0.1
18:04:13.568,-0.385,-0.13
18:04:13.572,-0.39,-0.12
18:04:13.576,-0.37,-0.105
18:04:13.580,-0.345,-0.11
18:04:13.584,-0.35,-0.12
18:04:13.588,-0.315,-0.085
18:04:13.592,-0.325,-0.12
18:04:13.596,-0.315,-0.115
18:04:13.600,-0.28,-0.115
18:04:13.604,-0.27,-0.105
18:04:13.608,-0.28,-0.1
18:04:13.612,-0.29,-0.095
18:04:13.616,-0.315,-0.105
18:04:13.620,-0.315,-0.08
18:04:13.624,-0.315,-0.105
18:04:13.628,-0.315,-0.09
18:04:13.632,-0.3,-0.035
18:04:13.636,-0.235,-0.02
18:04:13.640,-0.23,0.0
18:04:13.644,-0.24,0.02
18:04:13.648,-0.205,0.025
18:04:13.652,-0.19,0.02
18:04:13.656,-0.195,0.0
18:04:13.660,-0.21,0.0
18:04:13.664,-0.21,-0.03
18:04:13.668,-0.24,-0.035
18:04:13.672,-0.265,-0.04
18:04:13.676,-0.31,-0.06
18:04:13.680,-0.32,-0.045
18:04:13.684,-0.335,-0.035
18:04:13.688,-0.365,-0.04
18:04:13.692,-0.385,-0.02
18:04:13.696,-0.375,-0.065
18:04:13.700,-0.355,-0.07
18:04:13.704,-0.375,-0.09
18:04:13.708,-0.36,-0.105
18:04:13.712,-0.33,-0.13
18:04:13.716,-0.34,-0.14
18:04:13.720,-0.305,-0.155
18:04:13.724,-0.3,-0.16
18:04:13.728,-0.3,-0.19
18:04:13.732,-0.3,-0.19
18:04:13.736,-0.3,-0.22
18:04:13.740,-0.3,-0.23
18:04:13.744,-0.315,-0.26
18:04:13.748,-0.35,-0.25
18:04:13.752,-0.375,-0.275
18:04:13.756,-0.36,-0.27
18:04:13.760,-0.32,-0.265
18:04:13.764,-0.27,-0.295
18:04:13.768,-0.27,-0.31
18:04:13.772,-0.27,-0.28
18:04:13.776,-0.28,-0.305
18:04:13.780,-0.3,-0.31
18:04:13.784,-0.29,-0.305
18:04:13.788,-0.265,-0.315
18:04:13.792,-0.26,-0.3
18:04:13.796,-0.265,-0.295
18:04:13.800,-0.22,-0.275
18:04:13.804,-0.215,-0.265
18:04:13.808,-0.195,-0.255
18:04:13.812,-0.185,-0.26
18:04:13.816,-0.17,-0.245
18:04:13.820,-0.14,-0.27
18:04:13.824,-0.13,-0.26
18:04:13.828,-0.15,-0.235
18:04:13.832,-0.165,-0.205
18:04:13.836,-0.205,-0.21
18:04:13.840,-0.23,-0.2
18:04:13.844,-0.25,-0.18
18:04:13.848,-0.27,-0.175
18:04:13.852,-0.24,-0.17
18:04:13.856,-0.22,-0.175
18:04:13.860,-0.21,-0.17
18:04:13.864,-0.21,-0.19
18:04:13.868,-0.2,-0.205
18:04:13.872,-0.2,-0.2
18:04:13.876,-0.175,-0.215
18:04:13.880,-0.145,-0.23
18:04:13.884,-0.14,-0.265
18:04:13.888,-0.12,-0.275
18:04:13.892,-0.115,-0.27
18:04:13.896,-0.105,-0.275
18:04:13.900,-0.115,-0.265
18:04:13.904,-0.11,-0.235
18:04:13.908,-0.15,-0.24
18:04:13.912,-0.175,-0.235
18:04:13.916,-0.215,-0.25
18:04:13.920,-0.215,-0.225
18:04:13.924,-0.2,-0.2
18:04:13.928,-0.195,-0.205
18:04:13.932,-0.225,-0.22
18:04:13.936,-0.225,-0.22
18:04:13.940,-0.21,-0.215
18:04:13.944,-0.175,-0.215
18:04:13.948,-0.12,-0.21
18:04:13.952,-0.035,-0.22
18:04:13.956,0.025,-0.25
18:04:13.960,0.035,-0.285
18:04:13.964,0.0,-0.345
18:04:13.968,-0.04,-0.4
18:04:13.972,-0.07,-0.45
18:04:13.976,-0.105,-0.515
18:04:13.980,-0.155,-0.615
18:04:13.984,-0.185,-0.74
18:04:13.988,-0.1,-0.885
18:04:13.992,0.11,-1.07
18:04:13.996,0.455,-1.34
18:04:14.000,0.69,-1.62
18:04:14.004,0.755,-1.805
18:04:14.008,0.6,-1.81
18:04:14.012,0.27,-1.505
18:04:14.016,-0.09,-1.045
18:04:14.020,-0.305,-0.7
18:04:14.024,-0.4,-0.495
18:04:14.028,-0.38,-0.385
18:04:14.032,-0.37,-0.275
18:04:14.036,-0.36,-0.21
18:04:14.040,-0.38,-0.16
18:04:14.044,-0.345,-0.125
18:04:14.048,-0.335,-0.08
18:04:14.052,-0.35,-0.1
18:04:14.056,-0.345,-0.11
18:04:14.060,-0.34,-0.1
18:04:14.064,-0.33,-0.12
18:04:14.068,-0.33,-0.115
18:04:14.072,-0.32,-0.095
18:04:14.076,-0.335,-0.08
18:04:14.080,-0.325,-0.095
18:04:14.084,-0.295,-0.075
18:04:14.088,-0.255,-0.065
18:04:14.092,-0.235,-0.075
18:04:14.096,-0.25,-0.085
18:04:14.100,-0.245,-0.085
18:04:14.104,-0.25,-0.085
18:04:14.108,-0.26,-0.065
18:04:14.112,-0.245,-0.07
18:04:14.116,-0.27,-0.06
18:04:14.120,-0.275,-0.05
18:04:14.124,-0.265,-0.05
18:04:14.128,-0.255,-0.045
18:04:14.132,-0.26,-0.05
18:04:14.136,-0.22,-0.06
18:04:14.140,-0.24,-0.06
18:04:14.144,-0.255,-0.055
18:04:14.148,-0.255,-0.04
18:04:14.152,-0.26,-0.005
18:04:14.156,-0.285,0.005
18:04:14.160,-0.27,-0.005
18:04:14.164,-0.295,0.0
18:04:14.168,-0.345,0.0
18:04:14.172,-0.335,-0.02
18:04:14.176,-0.32,-0.02
18:04:14.180,-0.31,-0.03
18:04:14.184,-0.305,-0.04
18:04:14.188,-0.3,-0.07
18:04:14.192,-0.28,-0.075
18:04:14.196,-0.265,-0.095
18:04:14.200,-0.265,-0.125
18:04:14.204,-0.255,-0.13
18:04:14.208,-0.245,-0.15
18:04:14.212,-0.255,-0.175
18:04:14.216,-0.265,-0.17
18:04:14.220,-0.225,-0.2
18:04:14.224,-0.19,-0.205
18:04:14.228,-0.19,-0.235
18:04:14.232,-0.19,-0.27
18:04:14.236,-0.225,-0.28
18:04:14.240,-0.235,-0.26
18:04:14.244,-0.21,-0.28
18:04:14.248,-0.225,-0.27
18:04:14.252,-0.21,-0.265
18:04:14.256,-0.195,-0.27
18:04:14.260,-0.185,-0.26
18:04:14.264,-0.175,-0.285
18:04:14.268,-0.195,-0.265
18:04:14.272,-0.225,-0.27
18:04:14.276,-0.22,-0.29
18:04:14.280,-0.225,-0.285
18:04:14.284,-0.215,-0.295
18:04:14.288,-0.255,-0.28
18:04:14.292,-0.25,-0.28
18:04:14.296,-0.255,-0.275
18:04:14.300,-0.24,-0.27
18:04:14.304,-0.21,-0.245
18:04:14.308,-0.21,-0.21
18:04:14.312,-0.21,-0.215
18:04:14.316,-0.225,-0.21
18:04:14.320,-0.22,-0.25
18:04:14.324,-0.225,-0.25
18:04:14.328,-0.205,-0.26
18:04:14.332,-0.225,-0.25
18:04:14.336,-0.265,-0.26
18:04:14.340,-0.275,-0.27
18:04:14.344,-0.265,-0.235
18:04:14.348,-0.26,-0.25
18:04:14.352,-0.255,-0.255
18:04:14.356,-0.26,-0.25
18:04:14.360,-0.24,-0.265
18:04:14.364,-0.24,-0.25
18:04:14.368,-0.19,-0.255
18:04:14.372,-0.17,-0.275
18:04:14.376,-0.17,-0.255
18:04:14.380,-0.18,-0.25
18:04:14.384,-0.2,-0.25
18:04:14.388,-0.23,-0.275
18:04:14.392,-0.245,-0.27
18:04:14.396,-0.24,-0.275
18:04:14.400,-0.22,-0.305
18:04:14.404,-0.22,-0.265
18:04:14.408,-0.25,-0.31
18:04:14.412,-0.27,-0.31
18:04:14.416,-0.27,-0.315
18:04:14.420,-0.235,-0.31
18:04:14.424,-0.255,-0.315
18:04:14.428,-0.295,-0.3
18:04:14.432,-0.3,-0.295
18:04:14.436,-0.25,-0.32
18:04:14.440,-0.215,-0.29
18:04:14.444,-0.225,-0.295
18:04:14.448,-0.21,-0.3
18:04:14.452,-0.2,-0.295
18:04:14.456,-0.19,-0.315
18:04:14.460,-0.21,-0.28
18:04:14.464,-0.185,-0.3
18:04:14.468,-0.175,-0.325
18:04:14.472,-0.195,-0.32
18:04:14.476,-0.195,-0.32
18:04:14.480,-0.205,-0.315
18:04:14.484,-0.195,-0.29
18:04:14.488,-0.175,-0.305
18:04:14.492,-0.18,-0.32
18:04:14.496,-0.205,-0.3
18:04:14.500,-0.195,-0.285
18:04:14.504,-0.21,-0.28
18:04:14.508,-0.23,-0.285
18:04:14.512,-0.25,-0.275
18:04:14.516,-0.24,-0.27
18:04:14.520,-0.24,-0.27
18:04:14.524,-0.265,-0.235
18:04:14.528,-0.28,-0.225
18:04:14.532,-0.265,-0.25
18:04:14.536,-0.24,-0.24
18:04:14.540,-0.175,-0.25
18:04:14.544,-0.17,-0.25
18:04:14.548,-0.185,-0.24
18:04:14.552,-0.22,-0.27
18:04:14.556,-0.235,-0.285
18:04:14.560,-0.23,-0.295
18:04:14.564,-0.255,-0.31
18:04:14.568,-0.27,-0.345
18:04:14.572,-0.275,-0.355
18:04:14.576,-0.26,-0.335
18:04:14.580,-0.235,-0.355
18:04:14.584,-0.235,-0.32
18:04:14.588,-0.24,-0.33
18:04:14.592,-0.255,-0.325
18:04:14.596,-0.245,-0.31
18:04:14.600,-0.26,-0.31
18:04:14.604,-0.25,-0.315
18:04:14.608,-0.23,-0.31
18:04:14.612,-0.21,-0.295
18:04:14.616,-0.235,-0.265
18:04:14.620,-0.265,-0.285
18:04:14.624,-0.27,-0.275
18:04:14.628,-0.28,-0.275
18:04:14.632,-0.26,-0.275
18:04:14.636,-0.25,-0.265
18:04:14.640,-0.235,-0.285
18:04:14.644,-0.245,-0.285
18:04:14.648,-0.26,-0.3
18:04:14.652,-0.26,-0.3
18:04:14.656,-0.28,-0.305
18:04:14.660,-0.26,-0.31
18:04:14.664,-0.225,-0.325
18:04:14.668,-0.225,-0.37
18:04:14.672,-0.21,-0.345
18:04:14.676,-0.205,-0.365
18:04:14.680,-0.22,-0.35
18:04:14.684,-0.24,-0.36
18:04:14.688,-0.235,-0.36
18:04:14.692,-0.21,-0.345
18:04:14.696,-0.2,-0.375
18:04:14.700,-0.185,-0.345
18:04:14.704,-0.16,-0.355
18:04:14.708,-0.145,-0.33
18:04:14.712,-0.16,-0.32
18:04:14.716,-0.195,-0.31
18:04:14.720,-0.22,-0.285
18:04:14.724,-0.235,-0.28
18:04:14.728,-0.235,-0.29
18:04:14.732,-0.21,-0.305
18:04:14.736,-0.175,-0.315
18:04:14.740,-0.105,-0.325
18:04:14.744,-0.05,-0.305
18:04:14.748,-0.02,-0.35
18:04:14.752,0.015,-0.385
18:04:14.756,-0.01,-0.435
18:04:14.760,-0.03,-0.49
18:04:14.764,-0.06,-0.56
18:04:14.768,-0.085,-0.655
18:04:14.772,-0.14,-0.785
18:04:14.776,-0.125,-0.955
18:04:14.780,0.01,-1.15
18:04:14.784,0.275,-1.43
18:04:14.788,0.59,-1.71
18:04:14.792,0.76,-1.95
18:04:14.796,0.755,-2.06
18:04:14.800,0.56,-1.895
18:04:14.804,0.215,-1.485
18:04:14.808,-0.15,-1.005
18:04:14.812,-0.34,-0.67
18:04:14.816,-0.42,-0.505
18:04:14.820,-0.42,-0.38
18:04:14.824,-0.41,-0.29
18:04:14.828,-0.385,-0.245
18:04:14.832,-0.375,-0.205
18:04:14.836,-0.385,-0.17
18:04:14.840,-0.395,-0.155
18:04:14.844,-0.415,-0.16
18:04:14.848,-0.43,-0.165
18:04:14.852,-0.37,-0.17
18:04:14.856,-0.325,-0.16
18:04:14.860,-0.33,-0.135
18:04:14.864,-0.32,-0.115
18:04:14.868,-0.32,-0.095
18:04:14.872,-0.33,-0.075
18:04:14.876,-0.325,-0.08
18:04:14.880,-0.31,-0.06
18:04:14.884,-0.3,-0.05
18:04:14.888,-0.29,-0.05
18:04:14.892,-0.265,-0.05
18:04:14.896,-0.27,-0.04
18:04:14.900,-0.28,-0.055
18:04:14.904,-0.245,-0.06
18:04:14.908,-0.245,-0.055
18:04:14.912,-0.24,-0.065
18:04:14.916,-0.24,-0.075
18:04:14.920,-0.265,-0.075
18:04:14.924,-0.285,-0.085
18:04:14.928,-0.32,-0.035
18:04:14.932,-0.37,-0.045
18:04:14.936,-0.38,-0.05
18:04:14.940,-0.365,-0.03
18:04:14.944,-0.34,-0.01
18:04:14.948,-0.345,-0.035
18:04:14.952,-0.365,-0.045
18:04:14.956,-0.345,-0.03
18:04:14.960,-0.36,-0.045
18:04:14.964,-0.37,-0.05
18:04:14.968,-0.34,-0.08
18:04:14.972,-0.315,-0.06
18:04:14.976,-0.31,-0.05
18:04:14.980,-0.285,-0.1
18:04:14.984,-0.29,-0.095
18:04:14.988,-0.295,-0.135
18:04:14.992,-0.31,-0.155
18:04:14.996,-0.295,-0.19
18:04:15.000,-0.3,-0.19
18:04:15.004,-0.31,-0.215
18:04:15.008,-0.315,-0.225
18:04:15.012,-0.32,-0.24
18:04:15.016,-0.31,-0.265
18:04:15.020,-0.32,-0.285
18:04:15.024,-0.32,-0.28
18:04:15.028,-0.32,-0.28
18:04:15.032,-0.32,-0.305
18:04:15.036,-0.325,-0.3
18:04:15.040,-0.315,-0.335
18:04:15.044,-0.31,-0.32
18:04:15.048,-0.285,-0.32
18:04:15.052,-0.305,-0.34
18:04:15.056,-0.315,-0.34
18:04:15.060,-0.325,-0.335
18:04:15.064,-0.32,-0.355
18:04:15.068,-0.335,-0.32
18:04:15.072,-0.315,-0.33
18:04:15.076,-0.3,-0.31
18:04:15.080,-0.3,-0.34
18:04:15.084,-0.3,-0.305
18:04:15.088,-0.265,-0.295
18:04:15.092,-0.265,-0.29
18:04:15.096,-0.235,-0.285
18:04:15.100,-0.21,-0.275
18:04:15.104,-0.18,-0.24
18:04:15.108,-0.19,-0.25
18:04:15.112,-0.175,-0.24
18:04:15.116,-0.175,-0.215
18:04:15.120,-0.125,-0.22
18:04:15.124,-0.13,-0.22
18:04:15.128,-0.14,-0.225
18:04:15.132,-0.165,-0.22
18:04:15.136,-0.185,-0.215
18:04:15.140,-0.24,-0.195
18:04:15.144,-0.285,-0.185
18:04:15.148,-0.27,-0.185
18:04:15.152,-0.25,-0.185
18:04:15.156,-0.265,-0.17
18:04:15.160,-0.27,-0.195
18:04:15.164,-0.285,-0.2
18:04:15.168,-0.28,-0.195
18:04:15.172,-0.26,-0.21
18:04:15.176,-0.235,-0.23
18:04:15.180,-0.245,-0.26
18:04:15.184,-0.25,-0.285
18:04:15.188,-0.275,-0.29
18:04:15.192,-0.245,-0.295
18:04:15.196,-0.295,-0.305
18:04:15.200,-0.275,-0.32
18:04:15.204,-0.25,-0.325
18:04:15.208,-0.24,-0.33
18:04:15.212,-0.265,-0.355
18:04:15.216,-0.29,-0.37
18:04:15.220,-0.295,-0.37
18:04:15.224,-0.285,-0.385
18:04:15.228,-0.295,-0.4
18:04:15.232,-0.325,-0.365
18:04:15.236,-0.34,-0.385
18:04:15.240,-0.34,-0.41
18:04:15.244,-0.36,-0.395
18:04:15.248,-0.345,-0.415
18:04:15.252,-0.335,-0.385
18:04:15.256,-0.345,-0.38
18:04:15.260,-0.35,-0.37
18:04:15.264,-0.36,-0.38
18:04:15.268,-0.395,-0.385
18:04:15.272,-0.405,-0.37
18:04:15.276,-0.415,-0.37
18:04:15.280,-0.43,-0.34
18:04:15.284,-0.405,-0.36
18:04:15.288,-0.38,-0.365
18:04:15.292,-0.38,-0.415
18:04:15.296,-0.34,-0.375
18:04:15.300,-0.365,-0.375
18:04:15.304,-0.35,-0.355
18:04:15.308,-0.355,-0.36
18:04:15.312,-0.35,-0.34
18:04:15.316,-0.36,-0.33
18:04:15.320,-0.325,-0.32
18:04:15.324,-0.295,-0.32
18:04:15.328,-0.25,-0.32
18:04:15.332,-0.245,-0.305
18:04:15.336,-0.25,-0.3
18:04:15.340,-0.23,-0.305
18:04:15.344,-0.2,-0.3
18:04:15.348,-0.215,-0.275
18:04:15.352,-0.23,-0.26
18:04:15.356,-0.21,-0.24
18:04:15.360,-0.23,-0.245
18:04:15.364,-0.25,-0.24
18:04:15.368,-0.27,-0.255
18:04:15.372,-0.27,-0.26
18:04:15.376,-0.295,-0.295
18:04:15.380,-0.3,-0.335
18:04:15.384,-0.28,-0.335
18:04:15.388,-0.29,-0.335
18:04:15.392,-0.28,-0.335
18:04:15.396,-0.25,-0.34
18:04:15.400,-0.28,-0.34
18:04:15.404,-0.3,-0.36
18:04:15.408,-0.295,-0.385
18:04:15.412,-0.3,-0.38
18:04:15.416,-0.305,-0.385
18:04:15.420,-0.315,-0.385
18:04:15.424,-0.3,-0.375
18:04:15.428,-0.32,-0.385
18:04:15.432,-0.375,-0.39
18:04:15.436,-0.395,-0.385
18:04:15.440,-0.39,-0.385
18:04:15.444,-0.36,-0.375
18:04:15.448,-0.375,-0.37
18:04:15.452,-0.375,-0.355
18:04:15.456,-0.39,-0.375
18:04:15.460,-0.37,-0.37
18:04:15.464,-0.405,-0.35
18:04:15.468,-0.39,-0.36
18:04:15.472,-0.385,-0.35
18:04:15.476,-0.385,-0.375
18:04:15.480,-0.345,-0.37
18:04:15.484,-0.29,-0.365
18:04:15.488,-0.215,-0.36
18:04:15.492,-0.165,-0.38
18:04:15.496,-0.13,-0.415
18:04:15.500,-0.07,-0.48
18:04:15.504,-0.045,-0.545
18:04:15.508,-0.03,-0.59
18:04:15.512,-0.075,-0.635
18:04:15.516,-0.115,-0.75
18:04:15.520,-0.135,-0.9
18:04:15.524,-0.04,-1.095
18:04:15.528,0.19,-1.34
18:04:15.532,0.525,-1.585
18:04:15.536,0.8,-1.835
18:04:15.540,0.925,-1.985
18:04:15.544,0.775,-1.925
18:04:15.548,0.39,-1.61
18:04:15.552,-0.02,-1.12
18:04:15.556,-0.28,-0.72
18:04:15.560,-0.415,-0.5
18:04:15.564,-0.435,-0.355
18:04:15.568,-0.45,-0.25
18:04:15.572,-0.465,-0.19
18:04:15.576,-0.495,-0.17
18:04:15.580,-0.495,-0.135
18:04:15.584,-0.49,-0.135
18:04:15.588,-0.5,-0.145
18:04:15.592,-0.515,-0.16
18:04:15.596,-0.5,-0.175
18:04:15.600,-0.515,-0.175
18:04:15.604,-0.505,-0.17
18:04:15.608,-0.51,-0.19
18:04:15.612,-0.51,-0.185
18:04:15.616,-0.505,-0.175
18:04:15.620,-0.55,-0.16
18:04:15.624,-0.57,-0.17
18:04:15.628,-0.59,-0.185
18:04:15.632,-0.545,-0.2
18:04:15.636,-0.57,-0.21
18:04:15.640,-0.59,-0.2
18:04:15.644,-0.62,-0.185
18:04:15.648,-0.625,-0.19
18:04:15.652,-0.62,-0.17
18:04:15.656,-0.605,-0.155
18:04:15.660,-0.615,-0.155
18:04:15.664,-0.635,-0.165
18:04:15.668,-0.635,-0.15
18:04:15.672,-0.62,-0.175
18:04:15.676,-0.63,-0.175
18:04:15.680,-0.63,-0.18
18:04:15.684,-0.63,-0.18
18:04:15.688,-0.655,-0.195
18:04:15.692,-0.65,-0.18
18:04:15.696,-0.625,-0.17
18:04:15.700,-0.595,-0.17
18:04:15.704,-0.595,-0.17
18:04:15.708,-0.61,-0.205
18:04:15.712,-0.625,-0.18
18:04:15.716,-0.59,-0.205
18:04:15.720,-0.56,-0.23
18:04:15.724,-0.505,-0.23
18:04:15.728,-0.47,-0.215
18:04:15.732,-0.46,-0.22
18:04:15.736,-0.44,-0.22
18:04:15.740,-0.45,-0.215
18:04:15.744,-0.425,-0.215
18:04:15.748,-0.415,-0.185
18:04:15.752,-0.4,-0.195
18:04:15.756,-0.39,-0.205
18:04:15.760,-0.395,-0.2
18:04:15.764,-0.4,-0.18
18:04:15.768,-0.4,-0.165
18:04:15.772,-0.415,-0.18
18:04:15.776,-0.41,-0.225
18:04:15.780,-0.405,-0.245
18:04:15.784,-0.39,-0.27
18:04:15.788,-0.405,-0.28
18:04:15.792,-0.36,-0.32
18:04:15.796,-0.335,-0.335
18:04:15.800,-0.31,-0.335
18:04:15.804,-0.315,-0.345
18:04:15.808,-0.34,-0.35
18:04:15.812,-0.335,-0.365
18:04:15.816,-0.345,-0.365
18:04:15.820,-0.34,-0.35
18:04:15.824,-0.335,-0.345
18:04:15.828,-0.33,-0.355
18:04:15.832,-0.33,-0.355
18:04:15.836,-0.335,-0.37
18:04:15.840,-0.335,-0.395
18:04:15.844,-0.34,-0.37
18:04:15.848,-0.345,-0.365
18:04:15.852,-0.365,-0.375
18:04:15.856,-0.36,-0.385
18:04:15.860,-0.395,-0.345
18:04:15.864,-0.425,-0.335
18:04:15.868,-0.4,-0.34
18:04:15.872,-0.38,-0.34
18:04:15.876,-0.38,-0.325
18:04:15.880,-0.395,-0.34
18:04:15.884,-0.425,-0.33
18:04:15.888,-0.47,-0.35
18:04:15.892,-0.465,-0.365
18:04:15.896,-0.45,-0.335
18:04:15.900,-0.45,-0.34
18:04:15.904,-0.465,-0.33
18:04:15.908,-0.47,-0.365
18:04:15.912,-0.445,-0.355
18:04:15.916,-0.43,-0.35
18:04:15.920,-0.42,-0.365
18:04:15.924,-0.4,-0.37
18:04:15.928,-0.375,-0.355
18:04:15.932,-0.37,-0.345
18:04:15.936,-0.355,-0.32
18:04:15.940,-0.36,-0.32
18:04:15.944,-0.355,-0.305
18:04:15.948,-0.345,-0.29
18:04:15.952,-0.315,-0.275
18:04:15.956,-0.315,-0.26
18:04:15.960,-0.33,-0.24
18:04:15.964,-0.355,-0.24
18:04:15.968,-0.35,-0.22
18:04:15.972,-0.34,-0.2
18:04:15.976,-0.3,-0.205
18:04:15.980,-0.35,-0.225
18:04:15.984,-0.355,-0.23
18:04:15.988,-0.37,-0.24
18:04:15.992,-0.365,-0.245
18:04:15.996,-0.385,-0.27
18:04:16.000,-0.345,-0.29
18:04:16.004,-0.34,-0.285
18:04:16.008,-0.32,-0.31
18:04:16.012,-0.34,-0.305
18:04:16.016,-0.335,-0.305
18:04:16.020,-0.315,-0.32
18:04:16.024,-0.305,-0.305
18:04:16.028,-0.32,-0.32
18:04:16.032,-0.32,-0.315
18:04:16.036,-0.31,-0.305
18:04:16.040,-0.325,-0.32
18:04:16.044,-0.32,-0.32
18:04:16.048,-0.29,-0.36
18:04:16.052,-0.25,-0.355
18:04:16.056,-0.18,-0.33
18:04:16.060,-0.085,-0.345
18:04:16.064,-0.005,-0.365
18:04:16.068,0.04,-0.41
18:04:16.072,0.045,-0.47
18:04:16.076,0.055,-0.545
18:04:16.080,0.055,-0.61
18:04:16.084,0.065,-0.66
18:04:16.088,0.01,-0.77
18:04:16.092,-0.005,-0.93
18:04:16.096,0.085,-1.125
18:04:16.100,0.33,-1.375
18:04:16.104,0.68,-1.65
18:04:16.108,0.89,-1.88
18:04:16.112,0.85,-1.985
18:04:16.116,0.51,-1.88
18:04:16.120,0.07,-1.46
18:04:16.124,-0.245,-0.995
18:04:16.128,-0.365,-0.69
18:04:16.132,-0.41,-0.54
18:04:16.136,-0.38,-0.4
18:04:16.140,-0.375,-0.31
18:04:16.144,-0.41,-0.215
18:04:16.148,-0.44,-0.16
18:04:16.152,-0.455,-0.1
18:04:16.156,-0.48,-0.085
18:04:16.160,-0.47,-0.09
18:04:16.164,-0.485,-0.065
18:04:16.168,-0.505,-0.055
18:04:16.172,-0.515,-0.045
18:04:16.176,-0.48,-0.055
18:04:16.180,-0.48,-0.08
18:04:16.184,-0.48,-0.075
18:04:16.188,-0.485,-0.105
18:04:16.192,-0.51,-0.095
18:04:16.196,-0.52,-0.1
18:04:16.200,-0.49,-0.1
18:04:16.204,-0.465,-0.12
18:04:16.208,-0.47,-0.11
18:04:16.212,-0.49,-0.135
18:04:16.216,-0.46,-0.165
18:04:16.220,-0.455,-0.15
18:04:16.224,-0.43,-0.17
18:04:16.228,-0.43,-0.18
18:04:16.232,-0.415,-0.15
18:04:16.236,-0.42,-0.165
18:04:16.240,-0.41,-0.175
18:04:16.244,-0.425,-0.14
18:04:16.248,-0.43,-0.135
18:04:16.252,-0.415,-0.15
18:04:16.256,-0.41,-0.14
18:04:16.260,-0.395,-0.135
18:04:16.264,-0.42,-0.12
18:04:16.268,-0.43,-0.11
18:04:16.272,-0.47,-0.115
18:04:16.276,-0.47,-0.14
18:04:16.280,-0.43,-0.135
18:04:16.284,-0.425,-0.16
18:04:16.288,-0.44,-0.13
18:04:16.292,-0.45,-0.16
18:04:16.296,-0.425,-0.16
18:04:16.300,-0.425,-0.17
18:04:16.304,-0.4,-0.185
18:04:16.308,-0.39,-0.195
18:04:16.312,-0.355,-0.18
18:04:16.316,-0.315,-0.18
18:04:16.320,-0.31,-0.2
18:04:16.324,-0.295,-0.21
18:04:16.328,-0.31,-0.22
18:04:16.332,-0.305,-0.24
18:04:16.336,-0.305,-0.225
18:04:16.340,-0.285,-0.255
18:04:16.344,-0.275,-0.24
18:04:16.348,-0.28,-0.265
18:04:16.352,-0.29,-0.27
18:04:16.356,-0.28,-0.28
18:04:16.360,-0.27,-0.275
18:04:16.364,-0.29,-0.29
18:04:16.368,-0.295,-0.28
18:04:16.372,-0.32,-0.27
18:04:16.376,-0.33,-0.26
18:04:16.380,-0.33,-0.255
18:04:16.384,-0.335,-0.28
18:04:16.388,-0.34,-0.28
18:04:16.392,-0.375,-0.3
18:04:16.396,-0.365,-0.33
18:04:16.400,-0.36,-0.31
18:04:16.404,-0.37,-0.34
18:04:16.408,-0.385,-0.35
18:04:16.412,-0.4,-0.365
18:04:16.416,-0.41,-0.385
18:04:16.420,-0.37,-0.395
18:04:16.424,-0.345,-0.4
18:04:16.428,-0.32,-0.425
18:04:16.432,-0.3,-0.41
18:04:16.436,-0.31,-0.415
18:04:16.440,-0.33,-0.455
18:04:16.444,-0.315,-0.45
18:04:16.448,-0.32,-0.44
18:04:16.452,-0.345,-0.42
18:04:16.456,-0.34,-0.42
18:04:16.460,-0.32,-0.43
18:04:16.464,-0.285,-0.405
18:04:16.468,-0.27,-0.425
18:04:16.472,-0.265,-0.385
18:04:16.476,-0.275,-0.395
18:04:16.480,-0.295,-0.385
18:04:16.484,-0.305,-0.37
18:04:16.488,-0.29,-0.33
18:04:16.492,-0.305,-0.335
18:04:16.496,-0.255,-0.34
18:04:16.500,-0.255,-0.34
18:04:16.504,-0.27,-0.33
18:04:16.508,-0.275,-0.34
18:04:16.512,-0.25,-0.295
18:04:16.516,-0.24,-0.295
18:04:16.520,-0.28,-0.305
18:04:16.524,-0.29,-0.32
18:04:16.528,-0.265,-0.285
18:04:16.532,-0.275,-0.305
18:04:16.536,-0.29,-0.275
18:04:16.540,-0.285,-0.275
18:04:16.544,-0.295,-0.3
18:04:16.548,-0.27,-0.3
18:04:16.552,-0.26,-0.305
18:04:16.556,-0.275,-0.32
18:04:16.560,-0.285,-0.335
18:04:16.564,-0.275,-0.355
18:04:16.568,-0.26,-0.35
18:04:16.572,-0.25,-0.35
18:04:16.576,-0.295,-0.36
18:04:16.580,-0.315,-0.36
18:04:16.584,-0.365,-0.385
18:04:16.588,-0.38,-0.36
18:04:16.592,-0.4,-0.335
18:04:16.596,-0.385,-0.315
18:04:16.600,-0.35,-0.3
18:04:16.604,-0.31,-0.315
18:04:16.608,-0.3,-0.335
18:04:16.612,-0.315,-0.355
18:04:16.616,-0.34,-0.345
18:04:16.620,-0.345,-0.35
18:04:16.624,-0.33,-0.335
18:04:16.628,-0.3,-0.345
18:04:16.632,-0.34,-0.335
18:04:16.636,-0.355,-0.335
18:04:16.640,-0.315,-0.33
18:04:16.644,-0.33,-0.35
18:04:16.648,-0.34,-0.35
18:04:16.652,-0.325,-0.365
18:04:16.656,-0.3,-0.36
18:04:16.660,-0.305,-0.355
18:04:16.664,-0.285,-0.34
18:04:16.668,-0.27,-0.365
18:04:16.672,-0.295,-0.41
18:04:16.676,-0.25,-0.375
18:04:16.680,-0.235,-0.385
18:04:16.684,-0.225,-0.385
18:04:16.688,-0.215,-0.37
18:04:16.692,-0.215,-0.38
18:04:16.696,-0.215,-0.38
18:04:16.700,-0.195,-0.385
18:04:16.704,-0.165,-0.4
18:04:16.708,-0.17,-0.39
18:04:16.712,-0.19,-0.395
18:04:16.716,-0.16,-0.39
18:04:16.720,-0.085,-0.415
18:04:16.724,-0.01,-0.425
18:04:16.728,0.095,-0.415
18:04:16.732,0.145,-0.465
18:04:16.736,0.165,-0.505
18:04:16.740,0.185,-0.585
18:04:16.744,0.155,-0.62
18:04:16.748,0.125,-0.67
18:04:16.752,0.055,-0.755
18:04:16.756,0.05,-0.92
18:04:16.760,0.155,-1.11
18:04:16.764,0.415,-1.36
18:04:16.768,0.76,-1.615
18:04:16.772,0.975,-1.845
18:04:16.776,0.965,-1.965
18:04:16.780,0.7,-1.865
18:04:16.784,0.27,-1.49
18:04:16.788,-0.115,-1.015
18:04:16.792,-0.325,-0.665
18:04:16.796,-0.37,-0.505
18:04:16.800,-0.4,-0.355
18:04:16.804,-0.4,-0.275
18:04:16.808,-0.41,-0.21
18:04:16.812,-0.415,-0.18
18:04:16.816,-0.41,-0.15
18:04:16.820,-0.42,-0.17
18:04:16.824,-0.42,-0.17
18:04:16.828,-0.425,-0.18
18:04:16.832,-0.42,-0.175
18:04:16.836,-0.405,-0.17
18:04:16.840,-0.39,-0.145
18:04:16.844,-0.405,-0.145
18:04:16.848,-0.405,-0.14
18:04:16.852,-0.415,-0.11
18:04:16.856,-0.375,-0.12
18:04:16.860,-0.36,-0.125
18:04:16.864,-0.325,-0.125
18:04:16.868,-0.335,-0.115
18:04:16.872,-0.32,-0.11
18:04:16.876,-0.345,-0.105
18:04:16.880,-0.35,-0.105
18:04:16.884,-0.31,-0.115
18:04:16.888,-0.295,-0.115
18:04:16.892,-0.285,-0.15
18:04:16.896,-0.255,-0.15
18:04:16.900,-0.28,-0.135
18:04:16.904,-0.28,-0.16
18:04:16.908,-0.305,-0.165
18:04:16.912,-0.32,-0.16
18:04:16.916,-0.335,-0.155
18:04:16.920,-0.325,-0.155
18:04:16.924,-0.335,-0.15
18:04:16.928,-0.325,-0.155
18:04:16.932,-0.315,-0.135
18:04:16.936,-0.3,-0.135
18:04:16.940,-0.3,-0.145
18:04:16.944,-0.27,-0.135
18:04:16.948,-0.25,-0.13
18:04:16.952,-0.24,-0.12
18:04:16.956,-0.255,-0.12
18:04:16.960,-0.265,-0.11
18:04:16.964,-0.23,-0.08
18:04:16.968,-0.24,-0.085
18:04:16.972,-0.225,-0.09
18:04:16.976,-0.265,-0.1
18:04:16.980,-0.3,-0.065
18:04:16.984,-0.29,-0.085
18:04:16.988,-0.27,-0.09
18:04:16.992,-0.27,-0.105
18:04:16.996,-0.275,-0.14
18:04:17.000,-0.29,-0.155
18:04:17.004,-0.305,-0.18
18:04:17.008,-0.285,-0.195
18:04:17.012,-0.265,-0.225
18:04:17.016,-0.235,-0.27
18:04:17.020,-0.235,-0.28
18:04:17.024,-0.23,-0.285
18:04:17.028,-0.225,-0.3
18:04:17.032,-0.23,-0.29
18:04:17.036,-0.245,-0.315
18:04:17.040,-0.285,-0.28
18:04:17.044,-0.28,-0.3
18:04:17.048,-0.255,-0.28
18:04:17.052,-0.235,-0.285
18:04:17.056,-0.235,-0.265
18:04:17.060,-0.22,-0.285
18:04:17.064,-0.2,-0.29
18:04:17.068,-0.22,-0.315
18:04:17.072,-0.195,-0.32
18:04:17.076,-0.18,-0.345
18:04:17.080,-0.17,-0.37
18:04:17.084,-0.14,-0.355
18:04:17.088,-0.145,-0.365
18:04:17.092,-0.14,-0.355
18:04:17.096,-0.14,-0.375
18:04:17.100,-0.16,-0.355
18:04:17.104,-0.15,-0.325
18:04:17.108,-0.13,-0.315
18:04:17.112,-0.16,-0.325
18:04:17.116,-0.13,-0.325
18:04:17.120,-0.105,-0.295
18:04:17.124,-0.105,-0.28
18:04:17.128,-0.11,-0.295
18:04:17.132,-0.075,-0.285
18:04:17.136,-0.03,-0.28
18:04:17.140,0.025,-0.28
18:04:17.144,0.08,-0.275
18:04:17.148,0.125,-0.285
18:04:17.152,0.125,-0.325
18:04:17.156,0.12,-0.375
18:04:17.160,0.1,-0.435
18:04:17.164,0.075,-0.495
18:04:17.168,0.03,-0.565
18:04:17.172,-0.025,-0.65
18:04:17.176,0.0,-0.805
18:04:17.180,0.165,-1.01
18:04:17.184,0.51,-1.255
18:04:17.188,0.835,-1.56
18:04:17.192,0.96,-1.835
18:04:17.196,0.86,-1.905
18:04:17.200,0.5,-1.7
18:04:17.204,0.11,-1.275
18:04:17.208,-0.155,-0.815
18:04:17.212,-0.295,-0.61
18:04:17.216,-0.36,-0.49
18:04:17.220,-0.395,-0.385
18:04:17.224,-0.41,-0.32
18:04:17.228,-0.42,-0.285
18:04:17.232,-0.395,-0.24
18:04:17.236,-0.39,-0.215
18:04:17.240,-0.385,-0.215
18:04:17.244,-0.37,-0.21
18:04:17.248,-0.375,-0.2
18:04:17.252,-0.395,-0.23
18:04:17.256,-0.395,-0.225
18:04:17.260,-0.385,-0.2
18:04:17.264,-0.38,-0.19
18:04:17.268,-0.4,-0.185
18:04:17.272,-0.395,-0.2
18:04:17.276,-0.37,-0.18
18:04:17.280,-0.375,-0.175
18:04:17.284,-0.42,-0.16
18:04:17.288,-0.43,-0.155
18:04:17.292,-0.415,-0.145
18:04:17.296,-0.39,-0.11
18:04:17.300,-0.395,-0.09
18:04:17.304,-0.395,-0.085
18:04:17.308,-0.37,-0.095
18:04:17.312,-0.33,-0.09
18:04:17.316,-0.35,-0.09
18:04:17.320,-0.335,-0.105
18:04:17.324,-0.35,-0.09
18:04:17.328,-0.305,-0.08
18:04:17.332,-0.305,-0.115
18:04:17.336,-0.3,-0.115
18:04:17.340,-0.285,-0.08
18:04:17.344,-0.3,-0.08
18:04:17.348,-0.27,-0.08
18:04:17.352,-0.28,-0.09
18:04:17.356,-0.26,-0.11
18:04:17.360,-0.245,-0.12
18:04:17.364,-0.25,-0.155
18:04:17.368,-0.28,-0.145
18:04:17.372,-0.275,-0.155
18:04:17.376,-0.255,-0.145
18:04:17.380,-0.27,-0.15
18:04:17.384,-0.28,-0.155
18:04:17.388,-0.295,-0.195
18:04:17.392,-0.265,-0.185
18:04:17.396,-0.26,-0.23
18:04:17.400,-0.25,-0.24
18:04:17.404,-0.235,-0.27
18:04:17.408,-0.23,-0.29
18:04:17.412,-0.235,-0.29
18:04:17.416,-0.27,-0.32
18:04:17.420,-0.255,-0.325
18:04:17.424,-0.24,-0.35
18:04:17.428,-0.235,-0.35
18:04:17.432,-0.24,-0.395
18:04:17.436,-0.215,-0.38
18:04:17.440,-0.215,-0.39
18:04:17.444,-0.225,-0.41
18:04:17.448,-0.205,-0.395
18:04:17.452,-0.2,-0.4
18:04:17.456,-0.2,-0.39
18:04:17.460,-0.235,-0.39
18:04:17.464,-0.215,-0.38
18:04:17.468,-0.215,-0.425
18:04:17.472,-0.2,-0.42
18:04:17.476,-0.25,-0.415
18:04:17.480,-0.255,-0.4
18:04:17.484,-0.26,-0.395
18:04:17.488,-0.23,-0.4
18:04:17.492,-0.19,-0.4
18:04:17.496,-0.18,-0.39
18:04:17.500,-0.18,-0.38
18:04:17.504,-0.155,-0.375
18:04:17.508,-0.09,-0.365
18:04:17.512,-0.035,-0.33
18:04:17.516,0.035,-0.365
18:04:17.520,0.055,-0.38
18:04:17.524,0.02,-0.43
18:04:17.528,0.02,-0.49
18:04:17.532,-0.04,-0.535
18:04:17.536,-0.065,-0.6
18:04:17.540,-0.11,-0.685
18:04:17.544,-0.09,-0.83
18:04:17.548,0.1,-0.99
18:04:17.552,0.395,-1.235
18:04:17.556,0.72,-1.535
18:04:17.560,0.895,-1.765
18:04:17.564,0.86,-1.88
18:04:17.568,0.63,-1.73
18:04:17.572,0.245,-1.31
18:04:17.576,-0.065,-0.855
18:04:17.580,-0.23,-0.575
18:04:17.584,-0.265,-0.44
18:04:17.588,-0.275,-0.365
18:04:17.592,-0.265,-0.31
18:04:17.596,-0.295,-0.235
18:04:17.600,-0.275,-0.19
18:04:17.604,-0.27,-0.17
18:04:17.608,-0.265,-0.19
18:04:17.612,-0.28,-0.185
18:04:17.616,-0.275,-0.19
18:04:17.620,-0.255,-0.19
18:04:17.624,-0.245,-0.195
18:04:17.628,-0.25,-0.21
18:04:17.632,-0.25,-0.235
18:04:17.636,-0.3,-0.235
18:04:17.640,-0.32,-0.235
18:04:17.644,-0.315,-0.235
18:04:17.648,-0.31,-0.23
18:04:17.652,-0.3,-0.24
18:04:17.656,-0.27,-0.235
18:04:17.660,-0.24,-0.205
18:04:17.664,-0.25,-0.19
18:04:17.668,-0.27,-0.195
18:04:17.672,-0.255,-0.18
18:04:17.676,-0.31,-0.175
18:04:17.680,-0.32,-0.165
18:04:17.684,-0.34,-0.14
18:04:17.688,-0.335,-0.15
18:04:17.692,-0.335,-0.145
18:04:17.696,-0.35,-0.125
18:04:17.700,-0.345,-0.16
18:04:17.704,-0.345,-0.175
18:04:17.708,-0.325,-0.16
18:04:17.712,-0.33,-0.155
18:04:17.716,-0.305,-0.13
18:04:17.720,-0.25,-0.11
18:04:17.724,-0.26,-0.085
18:04:17.728,-0.285,-0.08
18:04:17.732,-0.33,-0.075
18:04:17.736,-0.335,-0.07
18:04:17.740,-0.32,-0.08
18:04:17.744,-0.295,-0.1
18:04:17.748,-0.3,-0.095
18:04:17.752,-0.26,-0.115
18:04:17.756,-0.27,-0.145
18:04:17.760,-0.25,-0.155
18:04:17.764,-0.225,-0.2
18:04:17.768,-0.22,-0.2
18:04:17.772,-0.21,-0.235
18:04:17.776,-0.225,-0.235
18:04:17.780,-0.24,-0.23
18:04:17.784,-0.18,-0.28
18:04:17.788,-0.17,-0.295
18:04:17.792,-0.155,-0.3
18:04:17.796,-0.185,-0.34
18:04:17.800,-0.18,-0.34
18:04:17.804,-0.16,-0.345
18:04:17.808,-0.14,-0.35
18:04:17.812,-0.125,-0.365
18:04:17.816,-0.175,-0.38
18:04:17.820,-0.16,-0.365
18:04:17.824,-0.15,-0.36
18:04:17.828,-0.13,-0.36
18:04:17.832,-0.125,-0.365
18:04:17.836,-0.16,-0.395
18:04:17.840,-0.16,-0.375
18:04:17.844,-0.135,-0.375
18:04:17.848,-0.115,-0.365
18:04:17.852,-0.125,-0.35
18:04:17.856,-0.15,-0.35
18:04:17.860,-0.13,-0.355
18:04:17.864,-0.15,-0.35
18:04:17.868,-0.14,-0.355
18:04:17.872,-0.135,-0.365
18:04:17.876,-0.095,-0.36
18:04:17.880,-0.14,-0.345
18:04:17.884,-0.14,-0.345
18:04:17.888,-0.16,-0.33
18:04:17.892,-0.16,-0.335
18:04:17.896,-0.18,-0.315
18:04:17.900,-0.17,-0.32
18:04:17.904,-0.23,-0.315
18:04:17.908,-0.175,-0.315
18:04:17.912,-0.075,-0.32
18:04:17.916,0.035,-0.32
18:04:17.920,0.095,-0.345
18:04:17.924,0.095,-0.37
18:04:17.928,0.045,-0.455
18:04:17.932,-0.005,-0.5
18:04:17.936,-0.125,-0.55
18:04:17.940,-0.14,-0.6
18:04:17.944,-0.165,-0.68
18:04:17.948,-0.16,-0.805
18:04:17.952,0.0,-0.98
18:04:17.956,0.295,-1.255
18:04:17.960,0.645,-1.555
18:04:17.964,0.865,-1.825
18:04:17.968,0.81,-1.91
18:04:17.972,0.575,-1.77
18:04:17.976,0.215,-1.365
18:04:17.980,-0.085,-0.89
18:04:17.984,-0.23,-0.615
18:04:17.988,-0.285,-0.49
18:04:17.992,-0.315,-0.36
18:04:17.996,-0.36,-0.285
18:04:18.000,-0.335,-0.225
18:04:18.004,-0.27,-0.2
18:04:18.008,-0.215,-0.17
18:04:18.012,-0.195,-0.175
18:04:18.016,-0.205,-0.16
18:04:18.020,-0.225,-0.15
18:04:18.024,-0.225,-0.135
18:04:18.028,-0.21,-0.145
18:04:18.032,-0.23,-0.135
18:04:18.036,-0.23,-0.15
18:04:18.040,-0.265,-0.135
18:04:18.044,-0.26,-0.14
18:04:18.048,-0.265,-0.145
18:04:18.052,-0.205,-0.155
18:04:18.056,-0.185,-0.16
18:04:18.060,-0.16,-0.155
18:04:18.064,-0.24,-0.15
18:04:18.068,-0.26,-0.145
18:04:18.072,-0.28,-0.135
18:04:18.076,-0.27,-0.135
18:04:18.080,-0.275,-0.115
18:04:18.084,-0.27,-0.125
18:04:18.088,-0.27,-0.12
18:04:18.092,-0.24,-0.125
18:04:18.096,-0.27,-0.13
18:04:18.100,-0.285,-0.13
18:04:18.104,-0.295,-0.105
18:04:18.108,-0.295,-0.12
18:04:18.112,-0.245,-0.135
18:04:18.116,-0.22,-0.135
18:04:18.120,-0.19,-0.14
18:04:18.124,-0.195,-0.14
18:04:18.128,-0.205,-0.14
18:04:18.132,-0.185,-0.13
18:04:18.136,-0.17,-0.11
18:04:18.140,-0.125,-0.12
18:04:18.144,-0.095,-0.13
18:04:18.148,-0.08,-0.115
18:04:18.152,-0.06,-0.125
18:04:18.156,-0.055,-0.15
18:04:18.160,-0.08,-0.185
18:04:18.164,-0.095,-0.19
18:04:18.168,-0.125,-0.2
18:04:18.172,-0.135,-0.19
18:04:18.176,-0.145,-0.215
18:04:18.180,-0.185,-0.185
18:04:18.184,-0.225,-0.2
18:04:18.188,-0.23,-0.22
18:04:18.192,-0.19,-0.26
18:04:18.196,-0.16,-0.295
18:04:18.200,-0.215,-0.32
18:04:18.204,-0.24,-0.325
18:04:18.208,-0.25,-0.345
18:04:18.212,-0.265,-0.375
18:04:18.216,-0.26,-0.39
18:04:18.220,-0.245,-0.375
18:04:18.224,-0.24,-0.395
18:04:18.228,-0.21,-0.38
18:04:18.232,-0.22,-0.375
18:04:18.236,-0.185,-0.395
18:04:18.240,-0.22,-0.38
18:04:18.244,-0.205,-0.37
18:04:18.248,-0.2,-0.355
18:04:18.252,-0.2,-0.38
18:04:18.256,-0.185,-0.365
18:04:18.260,-0.17,-0.365
18:04:18.264,-0.18,-0.37
18:04:18.268,-0.185,-0.35
18:04:18.272,-0.21,-0.38
18:04:18.276,-0.215,-0.36
18:04:18.280,-0.225,-0.33
18:04:18.284,-0.235,-0.355
18:04:18.288,-0.21,-0.33
18:04:18.292,-0.195,-0.31
18:04:18.296,-0.185,-0.33
18:04:18.300,-0.215,-0.35
18:04:18.304,-0.25,-0.34
18:04:18.308,-0.25,-0.345
18:04:18.312,-0.265,-0.32
18:04:18.316,-0.285,-0.325
18:04:18.320,-0.275,-0.345
18:04:18.324,-0.275,-0.36
18:04:18.328,-0.24,-0.395
18:04:18.332,-0.205,-0.42
18:04:18.336,-0.19,-0.415
18:04:18.340,-0.18,-0.41
18:04:18.344,-0.175,-0.43
18:04:18.348,-0.165,-0.42
18:04:18.352,-0.15,-0.4
18:04:18.356,-0.125,-0.385
18:04:18.360,-0.135,-0.395
18:04:18.364,-0.12,-0.405
18:04:18.368,-0.115,-0.385
18:04:18.372,-0.105,-0.375
18:04:18.376,-0.13,-0.36
18:04:18.380,-0.15,-0.35
18:04:18.384,-0.18,-0.33
18:04:18.388,-0.16,-0.315
18:04:18.392,-0.13,-0.33
18:04:18.396,-0.07,-0.32
18:04:18.400,0.03,-0.315
18:04:18.404,0.075,-0.34
18:04:18.408,0.12,-0.38
18:04:18.412,0.13,-0.46
18:04:18.416,0.1,-0.54
18:04:18.420,0.06,-0.6
18:04:18.424,-0.02,-0.655
18:04:18.428,-0.075,-0.77
18:04:18.432,-0.1,-0.95
18:04:18.436,0.05,-1.14
18:04:18.440,0.37,-1.38
18:04:18.444,0.66,-1.65
18:04:18.448,0.785,-1.855
18:04:18.452,0.67,-1.92
18:04:18.456,0.34,-1.725
18:04:18.460,-0.03,-1.26
18:04:18.464,-0.28,-0.875
18:04:18.468,-0.41,-0.66
18:04:18.472,-0.455,-0.545
18:04:18.476,-0.465,-0.44
18:04:18.480,-0.465,-0.385
18:04:18.484,-0.47,-0.335
18:04:18.488,-0.445,-0.31
18:04:18.492,-0.46,-0.305
18:04:18.496,-0.475,-0.275
18:04:18.500,-0.48,-0.28
18:04:18.504,-0.44,-0.27
18:04:18.508,-0.455,-0.275
18:04:18.512,-0.475,-0.3
18:04:18.516,-0.43,-0.3
18:04:18.520,-0.375,-0.27
18:04:18.524,-0.36,-0.265
18:04:18.528,-0.36,-0.23
18:04:18.532,-0.355,-0.24
18:04:18.536,-0.36,-0.21
18:04:18.540,-0.36,-0.205
18:04:18.544,-0.39,-0.21
18:04:18.548,-0.415,-0.215
18:04:18.552,-0.425,-0.21
18:04:18.556,-0.37,-0.2
18:04:18.560,-0.345,-0.195
18:04:18.564,-0.345,-0.21
18:04:18.568,-0.32,-0.195
18:04:18.572,-0.34,-0.17
18:04:18.576,-0.37,-0.13
18:04:18.580,-0.425,-0.135
18:04:18.584,-0.435,-0.115
18:04:18.588,-0.445,-0.1
18:04:18.592,-0.42,-0.105
18:04:18.596,-0.385,-0.125
18:04:18.600,-0.365,-0.135
18:04:18.604,-0.385,-0.14
18:04:18.608,-0.395,-0.13
18:04:18.612,-0.39,-0.13
18:04:18.616,-0.395,-0.15
18:04:18.620,-0.385,-0.155
18:04:18.624,-0.38,-0.14
18:04:18.628,-0.395,-0.2
18:04:18.632,-0.365,-0.21
18:04:18.636,-0.34,-0.2
18:04:18.640,-0.36,-0.205
18:04:18.644,-0.365,-0.23
18:04:18.648,-0.35,-0.24
18:04:18.652,-0.375,-0.245
18:04:18.656,-0.41,-0.27
18:04:18.660,-0.455,-0.28
18:04:18.664,-0.435,-0.305
18:04:18.668,-0.415,-0.33
18:04:18.672,-0.39,-0.355
18:04:18.676,-0.41,-0.365
18:04:18.680,-0.405,-0.365
18:04:18.684,-0.395,-0.365
18:04:18.688,-0.355,-0.36
18:04:18.692,-0.325,-0.37
18:04:18.696,-0.3,-0.39
18:04:18.700,-0.305,-0.385
18:04:18.704,-0.32,-0.38
18:04:18.708,-0.315,-0.375
18:04:18.712,-0.315,-0.38
18:04:18.716,-0.3,-0.38
18:04:18.720,-0.29,-0.435
18:04:18.724,-0.27,-0.435
18:04:18.728,-0.26,-0.415
18:04:18.732,-0.275,-0.42
18:04:18.736,-0.285,-0.4
18:04:18.740,-0.3,-0.42
18:04:18.744,-0.27,-0.44
18:04:18.748,-0.235,-0.42
18:04:18.752,-0.235,-0.42
18:04:18.756,-0.2,-0.435
18:04:18.760,-0.165,-0.41
18:04:18.764,-0.19,-0.405
18:04:18.768,-0.23,-0.4
18:04:18.772,-0.28,-0.38
18:04:18.776,-0.305,-0.35
18:04:18.780,-0.305,-0.33
18:04:18.784,-0.315,-0.31
18:04:18.788,-0.315,-0.325
18:04:18.792,-0.28,-0.33
18:04:18.796,-0.28,-0.365
18:04:18.800,-0.29,-0.34
18:04:18.804,-0.305,-0.36
18:04:18.808,-0.33,-0.35
18:04:18.812,-0.31,-0.36
18:04:18.816,-0.33,-0.375
18:04:18.820,-0.335,-0.36
18:04:18.824,-0.3,-0.36
18:04:18.828,-0.28,-0.355
18:04:18.832,-0.27,-0.345
18:04:18.836,-0.285,-0.35
18:04:18.840,-0.3,-0.36
18:04:18.844,-0.3,-0.36
18:04:18.848,-0.285,-0.38
18:04:18.852,-0.25,-0.38
18:04:18.856,-0.225,-0.36
18:04:18.860,-0.23,-0.375
18:04:18.864,-0.285,-0.365
18:04:18.868,-0.28,-0.375
18:04:18.872,-0.285,-0.385
18:04:18.876,-0.26,-0.365
18:04:18.880,-0.28,-0.375
18:04:18.884,-0.285,-0.4
18:04:18.888,-0.29,-0.38
18:04:18.892,-0.33,-0.365
18:04:18.896,-0.335,-0.355
18:04:18.900,-0.35,-0.355
18:04:18.904,-0.35,-0.33
18:04:18.908,-0.335,-0.355
18:04:18.912,-0.35,-0.345
18:04:18.916,-0.355,-0.37
18:04:18.920,-0.33,-0.38
18:04:18.924,-0.315,-0.395
18:04:18.928,-0.245,-0.405
18:04:18.932,-0.15,-0.38
18:04:18.936,-0.035,-0.39
18:04:18.940,0.055,-0.435
18:04:18.944,0.08,-0.51
18:04:18.948,0.1,-0.56
18:04:18.952,0.145,-0.645
18:04:18.956,0.155,-0.695
18:04:18.960,0.14,-0.8
18:04:18.964,0.13,-0.91
18:04:18.968,0.17,-1.09
18:04:18.972,0.385,-1.31
18:04:18.976,0.705,-1.59
18:04:18.980,0.93,-1.815
18:04:18.984,0.945,-1.93
18:04:18.988,0.665,-1.86
18:04:18.992,0.22,-1.49
18:04:18.996,-0.13,-1.055
18:04:19.000,-0.33,-0.765
18:04:19.004,-0.385,-0.615
18:04:19.008,-0.4,-0.515
18:04:19.012,-0.41,-0.4
18:04:19.016,-0.425,-0.32
18:04:19.020,-0.385,-0.255
18:04:19.024,-0.345,-0.26
18:04:19.028,-0.335,-0.24
18:04:19.032,-0.335,-0.23
18:04:19.036,-0.34,-0.24
18:04:19.040,-0.365,-0.225
18:04:19.044,-0.37,-0.195
18:04:19.048,-0.395,-0.195
18:04:19.052,-0.385,-0.175
18:04:19.056,-0.39,-0.19
18:04:19.060,-0.36,-0.19
18:04:19.064,-0.41,-0.175
18:04:19.068,-0.42,-0.19
18:04:19.072,-0.41,-0.205
18:04:19.076,-0.395,-0.175
18:04:19.080,-0.39,-0.175
18:04:19.084,-0.385,-0.165
18:04:19.088,-0.425,-0.16
18:04:19.092,-0.45,-0.13
18:04:19.096,-0.43,-0.14
18:04:19.100,-0.415,-0.15
18:04:19.104,-0.44,-0.115
18:04:19.108,-0.465,-0.125
18:04:19.112,-0.48,-0.115
18:04:19.116,-0.48,-0.12
18:04:19.120,-0.45,-0.12
18:04:19.124,-0.475,-0.125
18:04:19.128,-0.46,-0.11
18:04:19.132,-0.48,-0.11
18:04:19.136,-0.49,-0.12
18:04:19.140,-0.5,-0.13
18:04:19.144,-0.49,-0.125
18:04:19.148,-0.45,-0.12
18:04:19.152,-0.39,-0.145
18:04:19.156,-0.35,-0.165
18:04:19.160,-0.33,-0.16
18:04:19.164,-0.325,-0.145
18:04:19.168,-0.32,-0.15
18:04:19.172,-0.32,-0.15
18:04:19.176,-0.35,-0.14
18:04:19.180,-0.325,-0.14
18:04:19.184,-0.31,-0.18
18:04:19.188,-0.305,-0.22
18:04:19.192,-0.31,-0.27
18:04:19.196,-0.315,-0.3
18:04:19.200,-0.275,-0.32
18:04:19.204,-0.255,-0.335
18:04:19.208,-0.225,-0.35
18:04:19.212,-0.245,-0.37
18:04:19.216,-0.25,-0.355
18:04:19.220,-0.215,-0.335
18:04:19.224,-0.195,-0.36
18:04:19.228,-0.14,-0.36
18:04:19.232,-0.12,-0.345
18:04:19.236,-0.15,-0.36
18:04:19.240,-0.16,-0.38
18:04:19.244,-0.15,-0.385
18:04:19.248,-0.145,-0.385
18:04:19.252,-0.14,-0.355
18:04:19.256,-0.135,-0.375
18:04:19.260,-0.125,-0.36
18:04:19.264,-0.17,-0.345
18:04:19.268,-0.185,-0.35
18:04:19.272,-0.205,-0.365
18:04:19.276,-0.2,-0.365
18:04:19.280,-0.195,-0.34
18:04:19.284,-0.17,-0.355
18:04:19.288,-0.21,-0.355
18:04:19.292,-0.225,-0.32
18:04:19.296,-0.21,-0.32
18:04:19.300,-0.22,-0.33
18:04:19.304,-0.22,-0.275
18:04:19.308,-0.25,-0.295
18:04:19.312,-0.245,-0.3
