Time,ECG1,ECG2
19:12:18.840,0.38,-0.13
19:12:18.844,0.38,-0.115
19:12:18.848,0.44,-0.09
19:12:18.852,0.465,-0.205
19:12:18.856,0.465,-0.255
19:12:18.860,0.44,-0.17
19:12:18.864,0.47,-0.12
19:12:18.868,0.455,-0.14
19:12:18.872,0.48,-0.145
19:12:18.876,0.49,-0.115
19:12:18.880,0.495,-0.215
19:12:18.884,0.465,-0.2
19:12:18.888,0.49,-0.185
19:12:18.892,0.475,-0.275
19:12:18.896,0.44,-0.29
19:12:18.900,0.39,-0.205
19:12:18.904,0.335,-0.14
19:12:18.908,0.25,-0.1
19:12:18.912,0.2,-0.075
19:12:18.916,0.155,-0.12
19:12:18.920,0.105,-0.12
19:12:18.924,0.03,-0.095
19:12:18.928,-0.01,-0.085
19:12:18.932,-0.09,-0.055
19:12:18.936,-0.205,0.0
19:12:18.940,-0.225,-0.02
19:12:18.944,-0.22,-0.135
19:12:18.948,-0.245,-0.1
19:12:18.952,-0.235,-0.04
19:12:18.956,-0.22,-0.035
19:12:18.960,-0.205,-0.13
19:12:18.964,-0.2,-0.14
19:12:18.968,-0.21,-0.07
19:12:18.972,-0.18,-0.035
19:12:18.976,-0.18,-0.015
19:12:18.980,-0.11,-0.01
19:12:18.984,-0.105,0.04
19:12:18.988,-0.13,0.075
19:12:18.992,-0.085,0.04
19:12:18.996,-0.08,0.045
19:12:19.000,-0.125,0.07
19:12:19.004,-0.12,0.02
19:12:19.008,-0.04,-0.085
19:12:19.012,-0.05,-0.085
19:12:19.016,-0.035,-0.03
19:12:19.020,0.01,-0.02
19:12:19.024,0.02,-0.08
19:12:19.028,0.005,-0.085
19:12:19.032,0.035,-0.085
19:12:19.036,0.015,0.005
19:12:19.040,-0.005,0.015
19:12:19.044,-0.01,-0.03
19:12:19.048,-0.01,-0.135
19:12:19.052,-0.045,-0.11
19:12:19.056,-0.035,-0.08
19:12:19.060,-0.045,-0.035
19:12:19.064,-0.065,0.03
19:12:19.068,-0.095,0.015
19:12:19.072,-0.035,-0.03
19:12:19.076,-0.145,0.14
19:12:19.080,-0.18,0.175
19:12:19.084,0.07,-0.105
19:12:19.088,0.535,-0.34
19:12:19.092,1.04,-0.37
19:12:19.096,1.59,-0.55
19:12:19.100,1.705,-0.775
19:12:19.104,0.995,-1.025
19:12:19.108,0.08,-1.085
19:12:19.112,-0.68,-0.725
19:12:19.116,-0.91,-0.445
19:12:19.120,-0.755,-0.345
19:12:19.124,-0.6,-0.19
19:12:19.128,-0.47,-0.14
19:12:19.132,-0.355,-0.21
19:12:19.136,-0.32,-0.195
19:12:19.140,-0.35,-0.09
19:12:19.144,-0.385,-0.05
19:12:19.148,-0.415,-0.01
19:12:19.152,-0.39,0.02
19:12:19.156,-0.375,0.07
19:12:19.160,-0.39,0.085
19:12:19.164,-0.39,-0.025
19:12:19.168,-0.385,-0.025
19:12:19.172,-0.4,-0.005
19:12:19.176,-0.4,0.0
19:12:19.180,-0.36,0.05
19:12:19.184,-0.33,0.07
19:12:19.188,-0.305,0.07
19:12:19.192,-0.27,-0.015
19:12:19.196,-0.24,-0.015
19:12:19.200,-0.25,0.0
19:12:19.204,-0.26,0.045
19:12:19.208,-0.24,0.1
19:12:19.212,-0.3,0.175
19:12:19.216,-0.29,0.12
19:12:19.220,-0.25,0.0
19:12:19.224,-0.245,-0.03
19:12:19.228,-0.17,-0.025
19:12:19.232,-0.14,-0.02
19:12:19.236,-0.145,0.035
19:12:19.240,-0.195,0.135
19:12:19.244,-0.15,0.075
19:12:19.248,-0.1,-0.02
19:12:19.252,-0.095,-0.035
19:12:19.256,-0.115,-0.03
19:12:19.260,-0.1,-0.025
19:12:19.264,-0.11,0.025
19:12:19.268,-0.095,0.02
19:12:19.272,-0.07,0.04
19:12:19.276,-0.075,0.09
19:12:19.280,-0.08,0.08
19:12:19.284,-0.02,0.005
19:12:19.288,0.03,-0.105
19:12:19.292,0.04,-0.11
19:12:19.296,0.035,-0.03
19:12:19.300,0.03,0.055
19:12:19.304,0.02,0.075
19:12:19.308,0.08,0.01
19:12:19.312,0.13,-0.04
19:12:19.316,0.125,-0.02
19:12:19.320,0.13,0.015
19:12:19.324,0.175,0.0
19:12:19.328,0.23,-0.03
19:12:19.332,0.24,-0.03
19:12:19.336,0.2,-0.02
19:12:19.340,0.225,-0.055
19:12:19.344,0.21,-0.02
19:12:19.348,0.235,-0.115
19:12:19.352,0.225,-0.12
19:12:19.356,0.18,-0.02
19:12:19.360,0.16,0.05
19:12:19.364,0.25,0.02
19:12:19.368,0.285,-0.01
19:12:19.372,0.27,-0.06
19:12:19.376,0.255,-0.11
19:12:19.380,0.285,-0.1
19:12:19.384,0.225,-0.03
19:12:19.388,0.185,0.015
19:12:19.392,0.18,-0.04
19:12:19.396,0.185,0.02
19:12:19.400,0.105,0.105
19:12:19.404,0.035,0.07
19:12:19.408,0.015,0.01
19:12:19.412,-0.04,0.025
19:12:19.416,-0.12,0.075
19:12:19.420,-0.16,0.075
19:12:19.424,-0.185,0.035
19:12:19.428,-0.19,0.09
19:12:19.432,-0.22,0.175
19:12:19.436,-0.205,0.225
19:12:19.440,-0.175,0.095
19:12:19.444,-0.135,-0.025
19:12:19.448,-0.145,-0.01
19:12:19.452,-0.16,0.015
19:12:19.456,-0.175,-0.02
19:12:19.460,-0.125,0.0
19:12:19.464,-0.15,0.055
19:12:19.468,-0.16,0.05
19:12:19.472,-0.125,-0.005
19:12:19.476,-0.11,-0.005
19:12:19.480,-0.11,0.115
19:12:19.484,-0.115,0.19
19:12:19.488,0.02,0.155
19:12:19.492,0.365,0.035
19:12:19.496,1.04,-0.155
19:12:19.500,1.69,-0.215
19:12:19.504,2.16,-0.305
19:12:19.508,2.28,-0.55
19:12:19.512,1.865,-0.795
19:12:19.516,1.015,-0.765
19:12:19.520,0.445,-0.39
19:12:19.524,0.155,-0.27
19:12:19.528,-0.135,-0.3
19:12:19.532,-0.12,-0.19
19:12:19.536,-0.115,-0.165
19:12:19.540,-0.2,-0.065
19:12:19.544,-0.265,0.005
19:12:19.548,-0.285,0.035
19:12:19.552,-0.32,0.02
19:12:19.556,-0.355,0.0
19:12:19.560,-0.42,0.05
19:12:19.564,-0.41,0.11
19:12:19.568,-0.405,0.175
19:12:19.572,-0.42,0.145
19:12:19.576,-0.4,0.085
19:12:19.580,-0.4,0.055
19:12:19.584,-0.42,0.095
19:12:19.588,-0.435,0.165
19:12:19.592,-0.4,0.215
19:12:19.596,-0.32,0.12
19:12:19.600,-0.27,0.01
19:12:19.604,-0.25,0.015
19:12:19.608,-0.24,0.045
19:12:19.612,-0.28,0.13
19:12:19.616,-0.265,0.225
19:12:19.620,-0.26,0.21
19:12:19.624,-0.255,0.145
19:12:19.628,-0.235,0.095
19:12:19.632,-0.21,0.01
19:12:19.636,-0.225,0.045
19:12:19.640,-0.24,0.11
19:12:19.644,-0.19,0.175
19:12:19.648,-0.14,0.145
19:12:19.652,-0.13,0.09
19:12:19.656,-0.105,0.095
19:12:19.660,-0.085,0.135
19:12:19.664,-0.1,0.1
19:12:19.668,-0.12,0.115
19:12:19.672,-0.105,0.135
19:12:19.676,-0.095,0.12
19:12:19.680,-0.07,0.1
19:12:19.684,-0.03,0.09
19:12:19.688,-0.005,0.1
19:12:19.692,-0.035,0.11
19:12:19.696,-0.005,0.02
19:12:19.700,0.025,0.005
19:12:19.704,0.025,0.035
19:12:19.708,0.04,0.055
19:12:19.712,0.055,0.09
19:12:19.716,0.05,0.1
19:12:19.720,0.035,0.11
19:12:19.724,0.035,0.15
19:12:19.728,0.08,0.13
19:12:19.732,0.11,0.03
19:12:19.736,0.13,0.03
19:12:19.740,0.115,0.07
19:12:19.744,0.12,0.09
19:12:19.748,0.105,0.09
19:12:19.752,0.105,0.025
19:12:19.756,0.095,0.055
19:12:19.760,0.075,0.135
19:12:19.764,0.14,0.125
19:12:19.768,0.22,0.07
19:12:19.772,0.21,0.08
19:12:19.776,0.24,0.095
19:12:19.780,0.23,0.06
19:12:19.784,0.2,0.015
19:12:19.788,0.165,-0.035
19:12:19.792,0.155,-0.06
19:12:19.796,0.135,-0.025
19:12:19.800,0.11,0.005
19:12:19.804,0.115,0.085
19:12:19.808,0.095,0.13
19:12:19.812,0.13,0.07
19:12:19.816,0.185,0.0
19:12:19.820,0.09,0.045
19:12:19.824,-0.015,0.09
19:12:19.828,-0.1,0.1
19:12:19.832,-0.1,0.125
19:12:19.836,-0.08,0.12
19:12:19.840,-0.08,0.145
19:12:19.844,-0.08,0.205
19:12:19.848,-0.07,0.155
19:12:19.852,-0.015,0.06
19:12:19.856,0.05,0.09
19:12:19.860,0.035,0.14
19:12:19.864,0.025,0.17
19:12:19.868,0.075,0.095
19:12:19.872,0.1,0.05
19:12:19.876,0.055,0.145
19:12:19.880,0.045,0.135
19:12:19.884,0.035,0.13
19:12:19.888,-0.045,0.225
19:12:19.892,-0.075,0.235
19:12:19.896,-0.005,0.21
19:12:19.900,0.255,0.085
19:12:19.904,0.81,-0.16
19:12:19.908,1.425,-0.24
19:12:19.912,1.95,-0.33
19:12:19.916,1.985,-0.615
19:12:19.920,1.375,-0.945
19:12:19.924,0.48,-0.97
19:12:19.928,-0.4,-0.69
19:12:19.932,-0.705,-0.36
19:12:19.936,-0.675,-0.16
19:12:19.940,-0.37,0.05
19:12:19.944,-0.22,-0.095
19:12:19.948,-0.205,-0.24
19:12:19.952,-0.255,-0.13
19:12:19.956,-0.295,0.06
19:12:19.960,-0.33,0.17
19:12:19.964,-0.345,0.055
19:12:19.968,-0.405,-0.015
19:12:19.972,-0.475,0.13
19:12:19.976,-0.47,0.225
19:12:19.980,-0.42,0.19
19:12:19.984,-0.435,0.14
19:12:19.988,-0.41,0.125
19:12:19.992,-0.39,0.165
19:12:19.996,-0.44,0.205
19:12:20.000,-0.445,0.115
19:12:20.004,-0.395,0.05
19:12:20.008,-0.375,0.05
19:12:20.012,-0.36,0.09
19:12:20.016,-0.34,0.2
19:12:20.020,-0.32,0.22
19:12:20.024,-0.32,0.14
19:12:20.028,-0.31,0.145
19:12:20.032,-0.295,0.175
19:12:20.036,-0.295,0.175
19:12:20.040,-0.265,0.1
19:12:20.044,-0.25,0.125
19:12:20.048,-0.265,0.205
19:12:20.052,-0.295,0.2
19:12:20.056,-0.26,0.13
19:12:20.060,-0.265,0.18
19:12:20.064,-0.26,0.23
19:12:20.068,-0.23,0.2
19:12:20.072,-0.23,0.17
19:12:20.076,-0.255,0.25
19:12:20.080,-0.225,0.27
19:12:20.084,-0.175,0.14
19:12:20.088,-0.13,0.095
19:12:20.092,-0.145,0.15
19:12:20.096,-0.16,0.17
19:12:20.100,-0.19,0.17
19:12:20.104,-0.19,0.155
19:12:20.108,-0.17,0.175
19:12:20.112,-0.185,0.195
19:12:20.116,-0.2,0.19
19:12:20.120,-0.19,0.235
19:12:20.124,-0.15,0.2
19:12:20.128,-0.15,0.135
19:12:20.132,-0.125,0.195
19:12:20.136,-0.115,0.28
19:12:20.140,-0.19,0.355
19:12:20.144,-0.185,0.37
19:12:20.148,-0.125,0.255
19:12:20.152,-0.045,0.06
19:12:20.156,-0.02,0.0
19:12:20.160,-0.065,0.115
19:12:20.164,-0.16,0.245
19:12:20.168,-0.165,0.275
19:12:20.172,-0.14,0.24
19:12:20.176,-0.105,0.21
19:12:20.180,-0.115,0.215
19:12:20.184,-0.11,0.225
19:12:20.188,-0.105,0.195
19:12:20.192,-0.115,0.085
19:12:20.196,-0.11,0.11
19:12:20.200,-0.07,0.19
19:12:20.204,-0.1,0.22
19:12:20.208,-0.165,0.19
19:12:20.212,-0.255,0.2
19:12:20.216,-0.295,0.175
19:12:20.220,-0.225,0.115
19:12:20.224,-0.2,0.165
19:12:20.228,-0.16,0.14
19:12:20.232,-0.175,0.135
19:12:20.236,-0.155,0.175
19:12:20.240,-0.16,0.115
19:12:20.244,-0.17,0.165
19:12:20.248,-0.14,0.195
19:12:20.252,-0.095,0.215
19:12:20.256,-0.14,0.23
19:12:20.260,-0.2,0.265
19:12:20.264,-0.235,0.31
19:12:20.268,-0.22,0.27
19:12:20.272,-0.205,0.19
19:12:20.276,-0.205,0.22
19:12:20.280,-0.145,0.225
19:12:20.284,-0.095,0.14
19:12:20.288,-0.125,0.0
19:12:20.292,-0.17,0.02
19:12:20.296,-0.26,0.16
19:12:20.300,-0.26,0.235
19:12:20.304,-0.215,0.22
19:12:20.308,-0.225,0.175
19:12:20.312,-0.245,0.055
19:12:20.316,-0.25,0.1
19:12:20.320,-0.225,0.16
19:12:20.324,-0.21,0.15
19:12:20.328,-0.225,0.265
19:12:20.332,-0.175,0.28
19:12:20.336,-0.14,0.125
19:12:20.340,-0.185,0.11
19:12:20.344,-0.23,0.185
19:12:20.348,-0.26,0.145
19:12:20.352,-0.34,0.12
19:12:20.356,-0.35,0.115
19:12:20.360,-0.32,0.195
19:12:20.364,-0.3,0.205
19:12:20.368,-0.32,0.205
19:12:20.372,-0.295,0.145
19:12:20.376,-0.34,0.12
19:12:20.380,-0.415,0.13
19:12:20.384,-0.445,0.185
19:12:20.388,-0.43,0.215
19:12:20.392,-0.455,0.205
19:12:20.396,-0.485,0.22
19:12:20.400,-0.475,0.25
19:12:20.404,-0.485,0.22
19:12:20.408,-0.435,0.13
19:12:20.412,-0.415,0.14
19:12:20.416,-0.46,0.205
19:12:20.420,-0.435,0.205
19:12:20.424,-0.46,0.19
19:12:20.428,-0.475,0.18
19:12:20.432,-0.45,0.15
19:12:20.436,-0.39,0.16
19:12:20.440,-0.385,0.105
19:12:20.444,-0.43,0.135
19:12:20.448,-0.435,0.235
19:12:20.452,-0.43,0.325
19:12:20.456,-0.405,0.335
19:12:20.460,-0.225,0.235
19:12:20.464,0.195,0.1
19:12:20.468,0.78,0.01
19:12:20.472,1.415,-0.16
19:12:20.476,1.805,-0.505
19:12:20.480,1.5,-0.79
19:12:20.484,0.745,-0.89
19:12:20.488,-0.11,-0.75
19:12:20.492,-0.61,-0.435
19:12:20.496,-0.75,-0.365
19:12:20.500,-0.63,-0.255
19:12:20.504,-0.44,-0.11
19:12:20.508,-0.435,-0.015
19:12:20.512,-0.4,-0.02
19:12:20.516,-0.375,0.025
19:12:20.520,-0.37,0.095
19:12:20.524,-0.37,0.18
19:12:20.528,-0.355,0.28
19:12:20.532,-0.365,0.235
19:12:20.536,-0.34,0.12
19:12:20.540,-0.3,0.085
19:12:20.544,-0.325,0.17
19:12:20.548,-0.375,0.265
19:12:20.552,-0.395,0.225
19:12:20.556,-0.34,0.18
19:12:20.560,-0.275,0.1
19:12:20.564,-0.3,0.095
19:12:20.568,-0.335,0.15
19:12:20.572,-0.325,0.15
19:12:20.576,-0.32,0.125
19:12:20.580,-0.31,0.15
19:12:20.584,-0.305,0.2
19:12:20.588,-0.335,0.195
19:12:20.592,-0.365,0.215
19:12:20.596,-0.395,0.275
19:12:20.600,-0.46,0.355
19:12:20.604,-0.505,0.325
19:12:20.608,-0.515,0.255
19:12:20.612,-0.505,0.205
19:12:20.616,-0.475,0.205
19:12:20.620,-0.38,0.265
19:12:20.624,-0.34,0.3
19:12:20.628,-0.375,0.305
19:12:20.632,-0.49,0.25
19:12:20.636,-0.5,0.145
19:12:20.640,-0.48,0.125
19:12:20.644,-0.49,0.21
19:12:20.648,-0.415,0.29
19:12:20.652,-0.38,0.33
19:12:20.656,-0.385,0.165
19:12:20.660,-0.375,0.11
19:12:20.664,-0.405,0.2
19:12:20.668,-0.365,0.24
19:12:20.672,-0.305,0.275
19:12:20.676,-0.295,0.34
19:12:20.680,-0.28,0.32
19:12:20.684,-0.23,0.125
19:12:20.688,-0.16,0.06
19:12:20.692,-0.165,0.045
19:12:20.696,-0.18,0.045
19:12:20.700,-0.105,0.085
19:12:20.704,-0.1,0.16
19:12:20.708,-0.14,0.145
19:12:20.712,-0.135,0.14
19:12:20.716,-0.09,0.18
19:12:20.720,-0.09,0.105
19:12:20.724,-0.075,0.11
19:12:20.728,-0.075,0.17
19:12:20.732,-0.035,0.185
19:12:20.736,-0.015,0.06
19:12:20.740,-0.02,0.05
19:12:20.744,-0.03,0.095
19:12:20.748,-0.035,0.085
19:12:20.752,0.075,0.1
19:12:20.756,0.1,0.135
19:12:20.760,0.075,0.175
19:12:20.764,0.1,0.175
19:12:20.768,0.16,0.155
19:12:20.772,0.125,0.135
19:12:20.776,0.09,0.05
19:12:20.780,0.075,-0.025
19:12:20.784,0.035,0.04
19:12:20.788,-0.04,0.165
19:12:20.792,-0.09,0.25
19:12:20.796,-0.11,0.18
19:12:20.800,-0.115,-0.02
19:12:20.804,-0.17,-0.015
19:12:20.808,-0.265,0.115
19:12:20.812,-0.35,0.155
19:12:20.816,-0.33,0.16
19:12:20.820,-0.3,0.18
19:12:20.824,-0.285,0.145
19:12:20.828,-0.335,0.15
19:12:20.832,-0.35,0.14
19:12:20.836,-0.34,0.13
19:12:20.840,-0.385,0.175
19:12:20.844,-0.38,0.15
19:12:20.848,-0.365,0.11
19:12:20.852,-0.32,0.095
19:12:20.856,-0.26,0.115
19:12:20.860,-0.225,0.13
19:12:20.864,-0.25,0.17
19:12:20.868,-0.275,0.16
19:12:20.872,-0.235,0.16
19:12:20.876,-0.24,0.15
19:12:20.880,-0.235,0.115
19:12:20.884,-0.25,0.09
19:12:20.888,-0.22,0.12
19:12:20.892,-0.255,0.105
19:12:20.896,-0.23,0.09
19:12:20.900,-0.195,0.09
19:12:20.904,-0.17,0.125
19:12:20.908,-0.175,0.16
19:12:20.912,-0.16,0.145
19:12:20.916,-0.17,0.095
19:12:20.920,-0.19,0.09
19:12:20.924,-0.21,0.1
19:12:20.928,-0.24,0.125
19:12:20.932,-0.275,0.13
19:12:20.936,-0.24,0.155
19:12:20.940,-0.24,0.165
19:12:20.944,-0.285,0.14
19:12:20.948,-0.3,0.105
19:12:20.952,-0.295,0.12
19:12:20.956,-0.32,0.135
19:12:20.960,-0.33,0.13
19:12:20.964,-0.31,0.15
19:12:20.968,-0.33,0.155
19:12:20.972,-0.355,0.18
19:12:20.976,-0.35,0.215
19:12:20.980,-0.335,0.25
19:12:20.984,-0.355,0.195
19:12:20.988,-0.365,0.13
19:12:20.992,-0.375,0.115
19:12:20.996,-0.39,0.12
19:12:21.000,-0.42,0.24
19:12:21.004,-0.385,0.295
19:12:21.008,-0.395,0.185
19:12:21.012,-0.415,0.065
19:12:21.016,-0.44,0.02
19:12:21.020,-0.495,0.08
19:12:21.024,-0.57,0.13
19:12:21.028,-0.535,0.12
19:12:21.032,-0.51,0.11
19:12:21.036,-0.53,0.13
19:12:21.040,-0.525,0.195
19:12:21.044,-0.51,0.155
19:12:21.048,-0.515,0.18
19:12:21.052,-0.54,0.21
19:12:21.056,-0.54,0.165
19:12:21.060,-0.53,0.21
19:12:21.064,-0.53,0.275
19:12:21.068,-0.455,0.25
19:12:21.072,-0.395,0.11
19:12:21.076,-0.4,0.045
19:12:21.080,-0.43,0.115
19:12:21.084,-0.455,0.24
19:12:21.088,-0.47,0.29
19:12:21.092,-0.46,0.305
19:12:21.096,-0.33,0.28
19:12:21.100,-0.015,0.105
19:12:21.104,0.625,-0.125
19:12:21.108,1.265,-0.275
19:12:21.112,1.705,-0.485
19:12:21.116,1.625,-0.76
19:12:21.120,0.815,-0.96
19:12:21.124,-0.045,-0.8
19:12:21.128,-0.74,-0.395
19:12:21.132,-0.92,-0.26
19:12:21.136,-0.83,-0.305
19:12:21.140,-0.62,-0.24
19:12:21.144,-0.53,-0.18
19:12:21.148,-0.495,0.005
19:12:21.152,-0.49,0.115
19:12:21.156,-0.465,0.115
19:12:21.160,-0.415,0.125
19:12:21.164,-0.385,0.135
19:12:21.168,-0.395,0.105
19:12:21.172,-0.41,0.075
19:12:21.176,-0.405,0.08
19:12:21.180,-0.46,0.145
19:12:21.184,-0.48,0.215
19:12:21.188,-0.45,0.23
19:12:21.192,-0.425,0.115
19:12:21.196,-0.435,0.115
19:12:21.200,-0.415,0.16
19:12:21.204,-0.425,0.185
19:12:21.208,-0.455,0.195
19:12:21.212,-0.47,0.185
19:12:21.216,-0.445,0.2
19:12:21.220,-0.465,0.215
19:12:21.224,-0.485,0.205
19:12:21.228,-0.51,0.26
19:12:21.232,-0.555,0.375
19:12:21.236,-0.57,0.405
19:12:21.240,-0.52,0.29
19:12:21.244,-0.57,0.225
19:12:21.248,-0.62,0.225
19:12:21.252,-0.58,0.155
19:12:21.256,-0.515,0.035
19:12:21.260,-0.55,0.04
19:12:21.264,-0.57,0.165
19:12:21.268,-0.555,0.21
19:12:21.272,-0.51,0.185
19:12:21.276,-0.475,0.19
19:12:21.280,-0.39,0.21
19:12:21.284,-0.39,0.195
19:12:21.288,-0.39,0.21
19:12:21.292,-0.375,0.225
19:12:21.296,-0.36,0.245
19:12:21.300,-0.36,0.24
19:12:21.304,-0.34,0.24
19:12:21.308,-0.315,0.29
19:12:21.312,-0.315,0.285
19:12:21.316,-0.275,0.265
19:12:21.320,-0.22,0.26
19:12:21.324,-0.185,0.275
19:12:21.328,-0.2,0.24
19:12:21.332,-0.165,0.17
19:12:21.336,-0.11,0.14
19:12:21.340,-0.125,0.12
19:12:21.344,-0.11,0.175
19:12:21.348,-0.1,0.21
19:12:21.352,-0.145,0.195
19:12:21.356,-0.15,0.185
19:12:21.360,-0.125,0.27
19:12:21.364,-0.16,0.265
19:12:21.368,-0.14,0.16
19:12:21.372,-0.08,0.085
19:12:21.376,-0.065,0.11
19:12:21.380,-0.08,0.135
19:12:21.384,-0.08,0.14
19:12:21.388,-0.06,0.125
19:12:21.392,-0.05,0.15
19:12:21.396,-0.035,0.12
19:12:21.400,0.0,0.1
19:12:21.404,-0.005,0.12
19:12:21.408,-0.035,0.175
19:12:21.412,-0.04,0.18
19:12:21.416,-0.075,0.19
19:12:21.420,-0.145,0.175
19:12:21.424,-0.15,0.205
19:12:21.428,-0.195,0.195
19:12:21.432,-0.28,0.155
19:12:21.436,-0.325,0.24
19:12:21.440,-0.35,0.29
19:12:21.444,-0.39,0.21
19:12:21.448,-0.43,0.18
19:12:21.452,-0.44,0.2
19:12:21.456,-0.49,0.23
19:12:21.460,-0.5,0.225
19:12:21.464,-0.48,0.24
19:12:21.468,-0.44,0.265
19:12:21.472,-0.48,0.26
19:12:21.476,-0.475,0.2
19:12:21.480,-0.46,0.2
19:12:21.484,-0.45,0.205
19:12:21.488,-0.435,0.215
19:12:21.492,-0.41,0.235
19:12:21.496,-0.36,0.2
19:12:21.500,-0.36,0.175
19:12:21.504,-0.35,0.23
19:12:21.508,-0.335,0.255
19:12:21.512,-0.36,0.255
19:12:21.516,-0.36,0.26
19:12:21.520,-0.34,0.3
19:12:21.524,-0.375,0.28
19:12:21.528,-0.38,0.25
19:12:21.532,-0.33,0.24
19:12:21.536,-0.305,0.24
19:12:21.540,-0.29,0.245
19:12:21.544,-0.27,0.225
19:12:21.548,-0.285,0.27
19:12:21.552,-0.305,0.29
19:12:21.556,-0.32,0.335
19:12:21.560,-0.305,0.34
19:12:21.564,-0.33,0.29
19:12:21.568,-0.32,0.235
19:12:21.572,-0.285,0.14
19:12:21.576,-0.33,0.19
19:12:21.580,-0.43,0.31
19:12:21.584,-0.485,0.39
19:12:21.588,-0.415,0.365
19:12:21.592,-0.16,0.105
19:12:21.596,0.395,-0.105
19:12:21.600,1.055,-0.18
19:12:21.604,1.56,-0.38
19:12:21.608,1.44,-0.665
19:12:21.612,0.48,-0.885
19:12:21.616,-0.385,-0.715
19:12:21.620,-0.985,-0.34
19:12:21.624,-0.93,-0.17
19:12:21.628,-0.75,0.0
19:12:21.632,-0.575,0.095
19:12:21.636,-0.43,0.115
19:12:21.640,-0.42,0.155
19:12:21.644,-0.42,0.19
19:12:21.648,-0.445,0.2
19:12:21.652,-0.475,0.285
19:12:21.656,-0.53,0.27
19:12:21.660,-0.55,0.225
19:12:21.664,-0.535,0.205
19:12:21.668,-0.535,0.24
19:12:21.672,-0.52,0.23
19:12:21.676,-0.55,0.25
19:12:21.680,-0.53,0.25
19:12:21.684,-0.525,0.22
19:12:21.688,-0.555,0.2
19:12:21.692,-0.55,0.2
19:12:21.696,-0.53,0.24
19:12:21.700,-0.49,0.28
19:12:21.704,-0.46,0.3
19:12:21.708,-0.425,0.31
19:12:21.712,-0.415,0.335
19:12:21.716,-0.39,0.3
19:12:21.720,-0.365,0.295
19:12:21.724,-0.38,0.32
19:12:21.728,-0.4,0.39
19:12:21.732,-0.365,0.4
19:12:21.736,-0.355,0.335
19:12:21.740,-0.345,0.265
19:12:21.744,-0.3,0.285
19:12:21.748,-0.275,0.33
19:12:21.752,-0.265,0.355
19:12:21.756,-0.225,0.33
19:12:21.760,-0.17,0.235
19:12:21.764,-0.17,0.23
19:12:21.768,-0.17,0.31
19:12:21.772,-0.15,0.28
19:12:21.776,-0.14,0.25
19:12:21.780,-0.145,0.27
19:12:21.784,-0.09,0.265
19:12:21.788,-0.12,0.315
19:12:21.792,-0.13,0.365
19:12:21.796,-0.09,0.285
19:12:21.800,-0.035,0.165
19:12:21.804,-0.06,0.185
19:12:21.808,-0.065,0.22
19:12:21.812,-0.05,0.27
19:12:21.816,-0.055,0.315
19:12:21.820,-0.05,0.31
19:12:21.824,-0.02,0.24
19:12:21.828,-0.02,0.29
19:12:21.832,-0.03,0.28
19:12:21.836,-0.01,0.21
19:12:21.840,0.025,0.15
19:12:21.844,0.0,0.21
19:12:21.848,0.005,0.27
19:12:21.852,0.02,0.285
19:12:21.856,0.025,0.245
19:12:21.860,0.025,0.23
19:12:21.864,0.045,0.25
19:12:21.868,0.05,0.25
19:12:21.872,0.025,0.275
19:12:21.876,-0.015,0.275
19:12:21.880,0.005,0.27
19:12:21.884,-0.005,0.24
19:12:21.888,-0.015,0.26
19:12:21.892,-0.06,0.29
19:12:21.896,-0.115,0.315
19:12:21.900,-0.165,0.255
19:12:21.904,-0.165,0.21
19:12:21.908,-0.175,0.155
19:12:21.912,-0.21,0.19
19:12:21.916,-0.21,0.24
19:12:21.920,-0.2,0.335
19:12:21.924,-0.235,0.385
19:12:21.928,-0.2,0.315
19:12:21.932,-0.23,0.265
19:12:21.936,-0.255,0.28
19:12:21.940,-0.27,0.235
19:12:21.944,-0.26,0.26
19:12:21.948,-0.27,0.26
19:12:21.952,-0.275,0.3
19:12:21.956,-0.26,0.355
19:12:21.960,-0.25,0.34
19:12:21.964,-0.245,0.27
19:12:21.968,-0.2,0.245
19:12:21.972,-0.175,0.295
19:12:21.976,-0.165,0.33
19:12:21.980,-0.175,0.355
19:12:21.984,-0.175,0.325
19:12:21.988,-0.15,0.31
19:12:21.992,-0.145,0.255
19:12:21.996,-0.11,0.21
19:12:22.000,-0.14,0.235
19:12:22.004,-0.155,0.22
19:12:22.008,-0.16,0.245
19:12:22.012,-0.15,0.29
19:12:22.016,-0.19,0.28
19:12:22.020,-0.205,0.285
19:12:22.024,-0.22,0.325
19:12:22.028,-0.215,0.335
19:12:22.032,-0.23,0.27
19:12:22.036,-0.215,0.195
19:12:22.040,-0.225,0.245
19:12:22.044,-0.285,0.295
19:12:22.048,-0.31,0.285
19:12:22.052,-0.275,0.28
19:12:22.056,-0.305,0.29
19:12:22.060,-0.33,0.28
19:12:22.064,-0.3,0.28
19:12:22.068,-0.315,0.295
19:12:22.072,-0.37,0.315
19:12:22.076,-0.35,0.285
19:12:22.080,-0.37,0.27
19:12:22.084,-0.435,0.265
19:12:22.088,-0.445,0.315
19:12:22.092,-0.42,0.37
19:12:22.096,-0.44,0.34
19:12:22.100,-0.45,0.31
19:12:22.104,-0.44,0.265
19:12:22.108,-0.43,0.245
19:12:22.112,-0.47,0.27
19:12:22.116,-0.5,0.32
19:12:22.120,-0.48,0.315
19:12:22.124,-0.465,0.295
19:12:22.128,-0.425,0.305
19:12:22.132,-0.37,0.345
19:12:22.136,-0.375,0.36
19:12:22.140,-0.385,0.345
19:12:22.144,-0.37,0.36
19:12:22.148,-0.395,0.4
19:12:22.152,-0.45,0.41
19:12:22.156,-0.485,0.44
19:12:22.160,-0.41,0.405
19:12:22.164,-0.145,0.23
19:12:22.168,0.43,0.02
19:12:22.172,1.085,-0.1
19:12:22.176,1.63,-0.29
19:12:22.180,1.76,-0.585
19:12:22.184,1.095,-0.875
19:12:22.188,0.265,-0.845
19:12:22.192,-0.505,-0.44
19:12:22.196,-0.77,-0.185
19:12:22.200,-0.75,-0.175
19:12:22.204,-0.56,-0.035
19:12:22.208,-0.435,0.005
19:12:22.212,-0.415,0.095
19:12:22.216,-0.41,0.165
19:12:22.220,-0.395,0.245
19:12:22.224,-0.37,0.275
19:12:22.228,-0.37,0.315
19:12:22.232,-0.37,0.32
19:12:22.236,-0.39,0.33
19:12:22.240,-0.395,0.33
19:12:22.244,-0.405,0.305
19:12:22.248,-0.405,0.32
19:12:22.252,-0.38,0.325
19:12:22.256,-0.38,0.295
19:12:22.260,-0.4,0.295
19:12:22.264,-0.395,0.315
19:12:22.268,-0.41,0.33
19:12:22.272,-0.41,0.335
19:12:22.276,-0.395,0.36
19:12:22.280,-0.39,0.36
19:12:22.284,-0.425,0.365
19:12:22.288,-0.445,0.385
19:12:22.292,-0.455,0.395
19:12:22.296,-0.475,0.385
19:12:22.300,-0.49,0.38
19:12:22.304,-0.49,0.325
19:12:22.308,-0.48,0.3
19:12:22.312,-0.485,0.305
19:12:22.316,-0.51,0.305
19:12:22.320,-0.49,0.28
19:12:22.324,-0.49,0.31
19:12:22.328,-0.46,0.315
19:12:22.332,-0.47,0.31
19:12:22.336,-0.455,0.325
19:12:22.340,-0.445,0.34
19:12:22.344,-0.415,0.42
19:12:22.348,-0.4,0.43
19:12:22.352,-0.41,0.44
19:12:22.356,-0.37,0.47
19:12:22.360,-0.33,0.395
19:12:22.364,-0.355,0.31
19:12:22.368,-0.36,0.245
19:12:22.372,-0.325,0.325
19:12:22.376,-0.35,0.4
19:12:22.380,-0.39,0.465
19:12:22.384,-0.315,0.405
19:12:22.388,-0.25,0.18
19:12:22.392,-0.215,0.09
19:12:22.396,-0.22,0.115
19:12:22.400,-0.21,0.195
19:12:22.404,-0.19,0.215
19:12:22.408,-0.165,0.225
19:12:22.412,-0.09,0.225
19:12:22.416,-0.065,0.255
19:12:22.420,-0.055,0.265
19:12:22.424,-0.035,0.295
19:12:22.428,-0.015,0.285
19:12:22.432,-0.03,0.28
19:12:22.436,-0.015,0.295
19:12:22.440,0.01,0.31
19:12:22.444,0.02,0.34
19:12:22.448,0.05,0.32
19:12:22.452,0.105,0.295
19:12:22.456,0.14,0.285
19:12:22.460,0.14,0.295
19:12:22.464,0.175,0.29
19:12:22.468,0.2,0.205
19:12:22.472,0.175,0.15
19:12:22.476,0.125,0.235
19:12:22.480,0.06,0.35
19:12:22.484,0.035,0.375
19:12:22.488,0.01,0.265
19:12:22.492,-0.03,0.255
19:12:22.496,-0.115,0.27
19:12:22.500,-0.15,0.245
19:12:22.504,-0.17,0.18
19:12:22.508,-0.25,0.24
19:12:22.512,-0.29,0.24
19:12:22.516,-0.295,0.31
19:12:22.520,-0.3,0.385
19:12:22.524,-0.32,0.375
19:12:22.528,-0.31,0.295
19:12:22.532,-0.32,0.285
19:12:22.536,-0.355,0.295
19:12:22.540,-0.4,0.365
19:12:22.544,-0.495,0.48
19:12:22.548,-0.54,0.5
19:12:22.552,-0.36,0.315
19:12:22.556,0.295,0.135
19:12:22.560,0.955,-0.005
19:12:22.564,1.525,-0.29
19:12:22.568,1.565,-0.6
19:12:22.572,0.92,-0.725
19:12:22.576,0.045,-0.54
19:12:22.580,-0.77,-0.105
19:12:22.584,-1.005,0.235
19:12:22.588,-1.035,0.525
19:12:22.592,-0.99,0.715
19:12:22.596,-1.13,0.755
19:12:22.600,-1.245,0.815
19:12:22.604,-1.255,0.865
19:12:22.608,-1.235,0.85
19:12:22.612,-1.23,0.92
19:12:22.616,-1.245,0.925
19:12:22.620,-1.165,0.905
19:12:22.624,-0.975,0.845
19:12:22.628,-0.77,0.78
19:12:22.632,-0.68,0.73
19:12:22.636,-0.52,0.62
19:12:22.640,-0.44,0.455
19:12:22.644,-0.43,0.315
19:12:22.648,-0.395,0.295
19:12:22.652,-0.38,0.315
19:12:22.656,-0.4,0.29
19:12:22.660,-0.395,0.245
19:12:22.664,-0.365,0.24
19:12:22.668,-0.39,0.285
19:12:22.672,-0.385,0.27
19:12:22.676,-0.36,0.23
19:12:22.680,-0.355,0.205
19:12:22.684,-0.385,0.2
19:12:22.688,-0.385,0.23
19:12:22.692,-0.385,0.265
19:12:22.696,-0.38,0.25
19:12:22.700,-0.38,0.27
19:12:22.704,-0.365,0.255
19:12:22.708,-0.365,0.25
19:12:22.712,-0.39,0.235
19:12:22.716,-0.41,0.275
19:12:22.720,-0.42,0.315
19:12:22.724,-0.43,0.32
19:12:22.728,-0.4,0.265
19:12:22.732,-0.32,0.22
19:12:22.736,-0.305,0.17
19:12:22.740,-0.29,0.2
19:12:22.744,-0.265,0.225
19:12:22.748,-0.27,0.235
19:12:22.752,-0.255,0.215
19:12:22.756,-0.215,0.23
19:12:22.760,-0.195,0.24
19:12:22.764,-0.15,0.23
19:12:22.768,-0.09,0.235
19:12:22.772,-0.045,0.255
19:12:22.776,-0.035,0.19
19:12:22.780,0.035,0.1
19:12:22.784,0.09,0.07
19:12:22.788,0.1,0.08
19:12:22.792,0.07,0.11
19:12:22.796,0.135,0.075
19:12:22.800,0.195,-0.005
19:12:22.804,0.185,-0.03
19:12:22.808,0.23,-0.02
19:12:22.812,0.28,-0.015
19:12:22.816,0.295,-0.06
19:12:22.820,0.33,-0.08
19:12:22.824,0.335,-0.06
19:12:22.828,0.33,-0.055
19:12:22.832,0.3,-0.1
19:12:22.836,0.32,-0.12
19:12:22.840,0.315,-0.13
19:12:22.844,0.28,-0.12
19:12:22.848,0.24,-0.035
19:12:22.852,0.22,0.03
19:12:22.856,0.155,0.05
19:12:22.860,0.105,0.035
19:12:22.864,0.075,0.025
19:12:22.868,0.03,0.05
19:12:22.872,-0.065,0.155
19:12:22.876,-0.08,0.26
19:12:22.880,-0.075,0.175
19:12:22.884,-0.095,0.04
19:12:22.888,-0.13,0.02
19:12:22.892,-0.155,0.045
19:12:22.896,-0.17,0.085
19:12:22.900,-0.22,0.125
19:12:22.904,-0.245,0.2
19:12:22.908,-0.285,0.225
19:12:22.912,-0.305,0.24
19:12:22.916,-0.34,0.245
19:12:22.920,-0.335,0.26
19:12:22.924,-0.375,0.26
19:12:22.928,-0.38,0.265
19:12:22.932,-0.36,0.225
19:12:22.936,-0.41,0.23
19:12:22.940,-0.455,0.155
19:12:22.944,-0.505,0.155
19:12:22.948,-0.535,0.21
19:12:22.952,-0.545,0.245
19:12:22.956,-0.52,0.255
19:12:22.960,-0.51,0.27
19:12:22.964,-0.545,0.26
19:12:22.968,-0.57,0.285
19:12:22.972,-0.575,0.32
19:12:22.976,-0.64,0.35
19:12:22.980,-0.685,0.4
19:12:22.984,-0.505,0.285
19:12:22.988,-0.065,-0.005
19:12:22.992,0.565,-0.2
19:12:22.996,1.27,-0.345
19:12:23.000,1.635,-0.58
19:12:23.004,1.22,-0.795
19:12:23.008,0.425,-0.775
19:12:23.012,-0.39,-0.47
19:12:23.016,-0.88,-0.19
19:12:23.020,-0.925,-0.155
19:12:23.024,-0.91,-0.105
19:12:23.028,-0.745,-0.08
19:12:23.032,-0.71,-0.015
19:12:23.036,-0.675,-0.01
19:12:23.040,-0.655,-0.035
19:12:23.044,-0.665,-0.02
19:12:23.048,-0.665,0.08
19:12:23.052,-0.625,0.145
19:12:23.056,-0.645,0.21
19:12:23.060,-0.63,0.2
19:12:23.064,-0.605,0.205
19:12:23.068,-0.585,0.215
19:12:23.072,-0.6,0.2
19:12:23.076,-0.565,0.22
19:12:23.080,-0.575,0.225
19:12:23.084,-0.57,0.29
19:12:23.088,-0.58,0.285
19:12:23.092,-0.545,0.26
19:12:23.096,-0.55,0.25
19:12:23.100,-0.53,0.245
19:12:23.104,-0.505,0.295
19:12:23.108,-0.52,0.325
19:12:23.112,-0.565,0.345
19:12:23.116,-0.535,0.325
19:12:23.120,-0.505,0.24
19:12:23.124,-0.525,0.16
19:12:23.128,-0.53,0.195
19:12:23.132,-0.525,0.195
19:12:23.136,-0.53,0.2
19:12:23.140,-0.545,0.24
19:12:23.144,-0.53,0.29
19:12:23.148,-0.575,0.255
19:12:23.152,-0.595,0.225
19:12:23.156,-0.615,0.275
19:12:23.160,-0.63,0.28
19:12:23.164,-0.63,0.25
19:12:23.168,-0.635,0.28
19:12:23.172,-0.65,0.31
19:12:23.176,-0.64,0.295
19:12:23.180,-0.635,0.21
19:12:23.184,-0.655,0.29
19:12:23.188,-0.68,0.335
19:12:23.192,-0.71,0.28
19:12:23.196,-0.64,0.235
19:12:23.200,-0.64,0.19
19:12:23.204,-0.68,0.205
19:12:23.208,-0.685,0.285
19:12:23.212,-0.69,0.315
19:12:23.216,-0.665,0.265
19:12:23.220,-0.65,0.235
19:12:23.224,-0.655,0.265
19:12:23.228,-0.71,0.335
19:12:23.232,-0.755,0.34
19:12:23.236,-0.71,0.295
19:12:23.240,-0.68,0.26
19:12:23.244,-0.65,0.23
19:12:23.248,-0.63,0.23
19:12:23.252,-0.59,0.275
19:12:23.256,-0.56,0.245
19:12:23.260,-0.485,0.165
19:12:23.264,-0.39,0.1
19:12:23.268,-0.385,0.155
19:12:23.272,-0.345,0.21
19:12:23.276,-0.305,0.21
19:12:23.280,-0.26,0.125
19:12:23.284,-0.285,0.09
19:12:23.288,-0.27,0.165
19:12:23.292,-0.29,0.2
19:12:23.296,-0.32,0.205
19:12:23.300,-0.34,0.17
19:12:23.304,-0.295,0.185
19:12:23.308,-0.285,0.215
19:12:23.312,-0.315,0.235
19:12:23.316,-0.295,0.2
19:12:23.320,-0.27,0.135
19:12:23.324,-0.325,0.205
19:12:23.328,-0.345,0.3
19:12:23.332,-0.4,0.36
19:12:23.336,-0.33,0.26
19:12:23.340,0.075,-0.06
19:12:23.344,0.665,-0.27
19:12:23.348,1.27,-0.465
19:12:23.352,1.82,-0.755
19:12:23.356,1.9,-0.975
19:12:23.360,1.365,-1.145
19:12:23.364,0.725,-0.975
19:12:23.368,0.24,-0.68
19:12:23.372,-0.01,-0.515
19:12:23.376,-0.17,-0.235
19:12:23.380,-0.235,-0.035
19:12:23.384,-0.345,0.04
19:12:23.388,-0.44,0.125
19:12:23.392,-0.51,0.175
19:12:23.396,-0.545,0.255
19:12:23.400,-0.555,0.245
19:12:23.404,-0.595,0.16
19:12:23.408,-0.575,0.215
19:12:23.412,-0.62,0.325
19:12:23.416,-0.675,0.325
19:12:23.420,-0.65,0.245
19:12:23.424,-0.62,0.28
19:12:23.428,-0.625,0.3
19:12:23.432,-0.59,0.165
19:12:23.436,-0.545,0.065
19:12:23.440,-0.585,0.14
19:12:23.444,-0.635,0.19
19:12:23.448,-0.64,0.205
19:12:23.452,-0.65,0.185
19:12:23.456,-0.65,0.175
19:12:23.460,-0.63,0.205
19:12:23.464,-0.6,0.21
19:12:23.468,-0.625,0.185
19:12:23.472,-0.615,0.15
19:12:23.476,-0.61,0.08
19:12:23.480,-0.6,0.12
19:12:23.484,-0.59,0.155
19:12:23.488,-0.565,0.185
19:12:23.492,-0.525,0.215
19:12:23.496,-0.52,0.18
19:12:23.500,-0.505,0.19
19:12:23.504,-0.48,0.24
19:12:23.508,-0.495,0.22
19:12:23.512,-0.49,0.225
19:12:23.516,-0.45,0.27
19:12:23.520,-0.415,0.285
19:12:23.524,-0.41,0.225
19:12:23.528,-0.365,0.215
19:12:23.532,-0.36,0.195
19:12:23.536,-0.36,0.16
19:12:23.540,-0.32,0.23
19:12:23.544,-0.305,0.25
19:12:23.548,-0.31,0.2
19:12:23.552,-0.32,0.195
19:12:23.556,-0.29,0.165
19:12:23.560,-0.3,0.18
19:12:23.564,-0.32,0.18
19:12:23.568,-0.255,0.18
19:12:23.572,-0.255,0.26
19:12:23.576,-0.255,0.29
19:12:23.580,-0.205,0.22
19:12:23.584,-0.16,0.14
19:12:23.588,-0.175,0.2
19:12:23.592,-0.135,0.235
19:12:23.596,-0.055,0.135
19:12:23.600,-0.005,0.075
19:12:23.604,-0.02,0.075
19:12:23.608,0.0,0.125
19:12:23.612,0.0,0.115
19:12:23.616,0.0,0.06
19:12:23.620,-0.02,0.055
19:12:23.624,-0.05,0.13
19:12:23.628,-0.105,0.145
19:12:23.632,-0.16,0.155
19:12:23.636,-0.215,0.21
19:12:23.640,-0.175,0.16
19:12:23.644,0.26,-0.05
19:12:23.648,1.0,-0.21
19:12:23.652,1.68,-0.295
19:12:23.656,2.085,-0.38
19:12:23.660,2.065,-0.555
19:12:23.664,1.445,-0.645
19:12:23.668,0.62,-0.405
19:12:23.672,0.085,-0.07
19:12:23.676,-0.195,-0.205
19:12:23.680,-0.27,-0.24
19:12:23.684,-0.24,-0.2
19:12:23.688,-0.365,-0.135
19:12:23.692,-0.4,-0.03
19:12:23.696,-0.45,0.025
19:12:23.700,-0.495,0.06
19:12:23.704,-0.5,0.085
19:12:23.708,-0.5,0.105
19:12:23.712,-0.525,0.195
19:12:23.716,-0.5,0.19
19:12:23.720,-0.525,0.135
19:12:23.724,-0.525,0.135
19:12:23.728,-0.49,0.105
19:12:23.732,-0.47,0.065
19:12:23.736,-0.495,0.06
19:12:23.740,-0.5,0.145
19:12:23.744,-0.48,0.14
19:12:23.748,-0.51,0.17
19:12:23.752,-0.54,0.28
19:12:23.756,-0.47,0.285
19:12:23.760,-0.455,0.25
19:12:23.764,-0.48,0.19
19:12:23.768,-0.44,0.165
19:12:23.772,-0.46,0.235
19:12:23.776,-0.5,0.235
19:12:23.780,-0.475,0.175
19:12:23.784,-0.48,0.185
19:12:23.788,-0.48,0.205
19:12:23.792,-0.49,0.215
19:12:23.796,-0.44,0.165
19:12:23.800,-0.39,0.04
19:12:23.804,-0.46,0.095
19:12:23.808,-0.475,0.26
19:12:23.812,-0.535,0.265
19:12:23.816,-0.605,0.1
19:12:23.820,-0.64,0.005
19:12:23.824,-0.63,0.08
19:12:23.828,-0.635,0.11
19:12:23.832,-0.58,0.1
19:12:23.836,-0.6,0.22
19:12:23.840,-0.615,0.265
19:12:23.844,-0.565,0.225
19:12:23.848,-0.535,0.18
19:12:23.852,-0.52,0.13
19:12:23.856,-0.575,0.155
19:12:23.860,-0.5,0.17
19:12:23.864,-0.445,0.185
19:12:23.868,-0.395,0.17
19:12:23.872,-0.375,0.22
19:12:23.876,-0.305,0.185
19:12:23.880,-0.295,0.23
19:12:23.884,-0.24,0.265
19:12:23.888,-0.125,0.1
19:12:23.892,-0.12,0.03
19:12:23.896,-0.04,0.01
19:12:23.900,0.04,-0.065
19:12:23.904,0.015,-0.08
19:12:23.908,-0.08,0.015
19:12:23.912,-0.095,0.005
19:12:23.916,0.025,-0.025
19:12:23.920,0.0,-0.015
19:12:23.924,-0.115,0.035
19:12:23.928,-0.095,0.075
19:12:23.932,-0.05,0.055
19:12:23.936,-0.05,-0.035
19:12:23.940,-0.045,0.02
19:12:23.944,-0.07,0.11
19:12:23.948,-0.1,0.07
19:12:23.952,-0.125,0.065
19:12:23.956,-0.135,0.04
19:12:23.960,-0.145,0.06
19:12:23.964,-0.135,0.105
19:12:23.968,-0.1,0.14
19:12:23.972,-0.08,0.15
19:12:23.976,-0.065,0.15
19:12:23.980,-0.055,0.145
19:12:23.984,-0.045,0.085
19:12:23.988,-0.055,0.08
19:12:23.992,-0.055,0.145
19:12:23.996,-0.07,0.06
19:12:24.000,-0.065,-0.01
19:12:24.004,-0.095,0.075
19:12:24.008,-0.105,0.095
19:12:24.012,-0.135,0.085
19:12:24.016,-0.12,0.105
19:12:24.020,-0.11,0.075
19:12:24.024,-0.17,0.08
19:12:24.028,-0.2,0.145
19:12:24.032,-0.2,0.165
19:12:24.036,-0.235,0.095
19:12:24.040,-0.255,0.025
19:12:24.044,-0.24,0.04
19:12:24.048,-0.26,0.12
19:12:24.052,-0.315,0.18
19:12:24.056,-0.32,0.13
19:12:24.060,-0.28,0.11
19:12:24.064,-0.31,0.09
19:12:24.068,-0.315,0.08
19:12:24.072,-0.31,0.12
19:12:24.076,-0.315,0.14
19:12:24.080,-0.38,0.06
19:12:24.084,-0.36,0.035
19:12:24.088,-0.32,0.065
19:12:24.092,-0.32,0.12
19:12:24.096,-0.315,0.18
19:12:24.100,-0.275,0.12
19:12:24.104,-0.305,0.07
19:12:24.108,-0.31,0.095
19:12:24.112,-0.31,0.125
19:12:24.116,-0.32,0.09
19:12:24.120,-0.36,0.095
19:12:24.124,-0.365,0.175
19:12:24.128,-0.235,0.07
19:12:24.132,0.15,-0.13
19:12:24.136,0.71,-0.21
19:12:24.140,1.315,-0.35
19:12:24.144,1.78,-0.585
19:12:24.148,1.685,-0.755
19:12:24.152,0.89,-0.775
19:12:24.156,0.125,-0.66
19:12:24.160,-0.465,-0.57
19:12:24.164,-0.655,-0.57
19:12:24.168,-0.63,-0.375
19:12:24.172,-0.465,-0.295
19:12:24.176,-0.43,-0.225
19:12:24.180,-0.36,-0.07
19:12:24.184,-0.33,-0.02
19:12:24.188,-0.325,0.04
19:12:24.192,-0.315,0.03
19:12:24.196,-0.27,0.045
19:12:24.200,-0.275,0.08
19:12:24.204,-0.31,0.185
19:12:24.208,-0.295,0.15
19:12:24.212,-0.365,0.15
19:12:24.216,-0.395,0.105
19:12:24.220,-0.35,0.08
19:12:24.224,-0.375,0.18
19:12:24.228,-0.375,0.255
19:12:24.232,-0.34,0.135
19:12:24.236,-0.28,0.0
19:12:24.240,-0.29,0.02
19:12:24.244,-0.27,0.09
19:12:24.248,-0.275,0.065
19:12:24.252,-0.295,0.0
19:12:24.256,-0.29,0.025
19:12:24.260,-0.32,0.14
19:12:24.264,-0.375,0.23
19:12:24.268,-0.39,0.245
19:12:24.272,-0.37,0.11
19:12:24.276,-0.335,0.085
19:12:24.280,-0.37,0.14
19:12:24.284,-0.355,0.065
19:12:24.288,-0.375,0.01
19:12:24.292,-0.38,0.095
19:12:24.296,-0.39,0.1
19:12:24.300,-0.345,0.025
19:12:24.304,-0.36,0.035
19:12:24.308,-0.325,0.085
19:12:24.312,-0.28,0.07
19:12:24.316,-0.31,0.08
19:12:24.320,-0.28,0.06
19:12:24.324,-0.295,0.1
19:12:24.328,-0.37,0.14
19:12:24.332,-0.36,0.14
19:12:24.336,-0.335,0.075
19:12:24.340,-0.34,0.08
19:12:24.344,-0.315,0.05
19:12:24.348,-0.275,0.045
19:12:24.352,-0.275,0.05
19:12:24.356,-0.3,0.065
19:12:24.360,-0.32,-0.01
19:12:24.364,-0.305,-0.065
19:12:24.368,-0.26,-0.095
19:12:24.372,-0.265,-0.095
19:12:24.376,-0.275,-0.03
19:12:24.380,-0.255,-0.05
19:12:24.384,-0.255,-0.065
19:12:24.388,-0.16,-0.04
19:12:24.392,-0.095,-0.01
19:12:24.396,-0.13,-0.005
19:12:24.400,-0.065,-0.005
19:12:24.404,0.02,0.025
19:12:24.408,0.055,0.05
19:12:24.412,0.07,0.16
19:12:24.416,0.11,0.125
19:12:24.420,0.175,-0.075
19:12:24.424,0.16,0.0
19:12:24.428,0.21,0.1
19:12:24.432,0.25,0.005
19:12:24.436,0.23,-0.05
19:12:24.440,0.235,-0.01
19:12:24.444,0.245,0.05
19:12:24.448,0.18,0.175
19:12:24.452,0.14,0.065
19:12:24.456,0.145,-0.035
19:12:24.460,0.19,0.015
19:12:24.464,0.175,0.0
19:12:24.468,0.09,0.03
19:12:24.472,0.0,0.1
19:12:24.476,0.005,0.115
19:12:24.480,-0.015,0.155
19:12:24.484,-0.015,0.15
19:12:24.488,-0.075,0.08
19:12:24.492,-0.12,0.075
19:12:24.496,-0.08,0.085
19:12:24.500,-0.05,0.05
19:12:24.504,-0.09,0.035
19:12:24.508,-0.08,0.09
19:12:24.512,-0.115,0.135
19:12:24.516,-0.115,0.08
19:12:24.520,-0.04,0.04
19:12:24.524,-0.07,0.01
19:12:24.528,-0.05,0.04
19:12:24.532,-0.005,0.095
19:12:24.536,-0.065,0.185
19:12:24.540,-0.09,0.07
19:12:24.544,-0.095,0.025
19:12:24.548,-0.075,0.07
19:12:24.552,-0.055,0.0
19:12:24.556,-0.145,0.02
19:12:24.560,-0.155,0.11
19:12:24.564,-0.125,0.03
19:12:24.568,-0.15,-0.035
19:12:24.572,-0.18,-0.105
19:12:24.576,-0.155,-0.05
19:12:24.580,-0.16,-0.1
19:12:24.584,-0.135,-0.13
19:12:24.588,-0.16,-0.045
19:12:24.592,-0.185,-0.04
19:12:24.596,-0.2,0.01
19:12:24.600,-0.16,0.015
19:12:24.604,-0.16,-0.025
19:12:24.608,-0.16,-0.06
19:12:24.612,-0.14,-0.065
19:12:24.616,-0.12,-0.03
19:12:24.620,-0.12,0.035
19:12:24.624,-0.11,0.08
19:12:24.628,-0.065,0.0
19:12:24.632,-0.105,0.01
19:12:24.636,-0.13,0.03
19:12:24.640,-0.08,0.055
19:12:24.644,-0.065,0.05
19:12:24.648,-0.115,-0.015
19:12:24.652,-0.16,-0.01
19:12:24.656,-0.16,0.035
19:12:24.660,-0.135,0.075
19:12:24.664,-0.125,0.06
19:12:24.668,-0.125,0.005
19:12:24.672,-0.19,0.025
19:12:24.676,-0.21,0.145
19:12:24.680,-0.175,0.15
19:12:24.684,-0.1,0.065
19:12:24.688,-0.09,-0.1
19:12:24.692,-0.145,-0.075
19:12:24.696,-0.2,0.075
19:12:24.700,-0.24,0.07
19:12:24.704,-0.24,-0.07
19:12:24.708,-0.235,-0.085
19:12:24.712,-0.205,0.03
19:12:24.716,-0.17,0.055
19:12:24.720,-0.2,0.01
19:12:24.724,-0.265,0.08
19:12:24.728,-0.23,0.075
19:12:24.732,-0.16,-0.02
19:12:24.736,-0.23,-0.025
19:12:24.740,-0.325,0.0
19:12:24.744,-0.36,0.005
19:12:24.748,-0.365,0.11
19:12:24.752,-0.355,0.155
19:12:24.756,-0.305,0.04
19:12:24.760,-0.255,0.01
19:12:24.764,-0.305,0.03
19:12:24.768,-0.38,0.065
19:12:24.772,-0.355,0.02
19:12:24.776,-0.315,0.0
19:12:24.780,-0.275,-0.015
19:12:24.784,-0.255,-0.1
19:12:24.788,-0.305,-0.02
19:12:24.792,-0.385,0.065
19:12:24.796,-0.355,0.06
19:12:24.800,-0.275,-0.015
19:12:24.804,-0.31,0.0
19:12:24.808,-0.27,0.085
19:12:24.812,-0.02,-0.095
19:12:24.816,0.53,-0.31
19:12:24.820,1.11,-0.3
19:12:24.824,1.72,-0.39
19:12:24.828,1.95,-0.715
19:12:24.832,1.34,-0.98
19:12:24.836,0.5,-0.925
19:12:24.840,-0.36,-0.63
19:12:24.844,-0.795,-0.56
19:12:24.848,-0.84,-0.415
19:12:24.852,-0.575,-0.26
19:12:24.856,-0.41,-0.345
19:12:24.860,-0.325,-0.275
19:12:24.864,-0.205,-0.205
19:12:24.868,-0.135,-0.1
19:12:24.872,-0.19,-0.025
19:12:24.876,-0.255,-0.08
19:12:24.880,-0.19,-0.065
19:12:24.884,-0.11,0.02
19:12:24.888,-0.125,0.055
19:12:24.892,-0.185,0.01
19:12:24.896,-0.22,-0.005
19:12:24.900,-0.195,0.005
19:12:24.904,-0.21,-0.045
19:12:24.908,-0.265,0.025
19:12:24.912,-0.32,0.165
19:12:24.916,-0.295,0.155
19:12:24.920,-0.27,0.03
19:12:24.924,-0.26,0.015
19:12:24.928,-0.27,-0.01
19:12:24.932,-0.285,-0.035
19:12:24.936,-0.34,-0.04
19:12:24.940,-0.305,-0.03
19:12:24.944,-0.25,-0.06
19:12:24.948,-0.265,0.01
19:12:24.952,-0.32,0.095
19:12:24.956,-0.37,0.115
19:12:24.960,-0.385,0.155
19:12:24.964,-0.315,-0.07
19:12:24.968,-0.2,-0.19
19:12:24.972,-0.2,-0.015
19:12:24.976,-0.255,0.11
19:12:24.980,-0.245,0.0
19:12:24.984,-0.255,-0.055
19:12:24.988,-0.265,0.0
19:12:24.992,-0.205,0.05
19:12:24.996,-0.21,0.115
19:12:25.000,-0.22,0.045
19:12:25.004,-0.23,-0.12
19:12:25.008,-0.19,-0.16
19:12:25.012,-0.195,-0.12
19:12:25.016,-0.23,-0.04
19:12:25.020,-0.2,-0.02
19:12:25.024,-0.19,-0.1
19:12:25.028,-0.215,-0.135
19:12:25.032,-0.225,-0.125
19:12:25.036,-0.2,-0.025
19:12:25.040,-0.13,-0.035
19:12:25.044,-0.07,-0.02
19:12:25.048,-0.04,-0.05
19:12:25.052,-0.03,-0.06
19:12:25.056,-0.025,-0.185
19:12:25.060,-0.03,-0.225
19:12:25.064,-0.125,-0.035
19:12:25.068,-0.19,0.065
19:12:25.072,-0.155,0.045
19:12:25.076,-0.145,0.045
19:12:25.080,-0.09,0.025
19:12:25.084,-0.04,-0.015
19:12:25.088,0.07,-0.145
19:12:25.092,0.08,-0.205
19:12:25.096,0.04,-0.12
19:12:25.100,0.045,-0.035
19:12:25.104,0.165,-0.09
19:12:25.108,0.235,-0.14
19:12:25.112,0.26,-0.075
19:12:25.116,0.32,-0.03
19:12:25.120,0.36,-0.08
19:12:25.124,0.285,-0.075
19:12:25.128,0.235,-0.025
19:12:25.132,0.205,-0.04
19:12:25.136,0.205,-0.105
19:12:25.140,0.175,-0.075
19:12:25.144,0.115,0.0
19:12:25.148,0.0,0.075
19:12:25.152,-0.06,0.165
19:12:25.156,-0.025,0.01
19:12:25.160,-0.03,-0.13
19:12:25.164,-0.085,-0.075
19:12:25.168,-0.095,0.035
19:12:25.172,-0.14,-0.055
19:12:25.176,-0.15,-0.095
19:12:25.180,-0.085,-0.04
19:12:25.184,-0.07,-0.03
19:12:25.188,-0.135,-0.02
19:12:25.192,-0.21,-0.015
19:12:25.196,-0.19,-0.09
19:12:25.200,-0.175,-0.11
19:12:25.204,-0.165,-0.08
19:12:25.208,-0.08,-0.075
19:12:25.212,-0.06,-0.03
19:12:25.216,-0.12,0.075
19:12:25.220,-0.13,0.13
19:12:25.224,-0.08,-0.075
19:12:25.228,-0.1,-0.315
19:12:25.232,-0.13,-0.22
19:12:25.236,-0.135,-0.12
19:12:25.240,-0.13,-0.07
19:12:25.244,-0.105,-0.05
19:12:25.248,-0.065,-0.15
19:12:25.252,-0.17,-0.235
19:12:25.256,-0.19,-0.185
19:12:25.260,-0.135,-0.17
19:12:25.264,-0.12,-0.145
19:12:25.268,-0.12,-0.14
19:12:25.272,-0.08,-0.13
19:12:25.276,-0.01,-0.09
19:12:25.280,-0.005,-0.07
19:12:25.284,-0.06,-0.03
19:12:25.288,-0.09,-0.045
19:12:25.292,-0.08,-0.075
19:12:25.296,-0.145,0.01
19:12:25.300,-0.205,0.12
19:12:25.304,-0.275,0.09
19:12:25.308,-0.305,0.02
19:12:25.312,-0.1,-0.125
19:12:25.316,0.375,-0.22
19:12:25.320,0.9,-0.265
19:12:25.324,1.475,-0.535
19:12:25.328,1.52,-0.91
19:12:25.332,0.6,-1.085
19:12:25.336,-0.23,-0.86
19:12:25.340,-0.785,-0.485
19:12:25.344,-0.855,-0.42
19:12:25.348,-0.735,-0.4
19:12:25.352,-0.52,-0.325
19:12:25.356,-0.2,-0.3
19:12:25.360,-0.17,-0.205
19:12:25.364,-0.225,-0.14
19:12:25.368,-0.285,-0.065
19:12:25.372,-0.355,-0.01
19:12:25.376,-0.34,-0.025
19:12:25.380,-0.25,-0.04
19:12:25.384,-0.25,-0.035
19:12:25.388,-0.25,-0.02
19:12:25.392,-0.275,-0.015
19:12:25.396,-0.26,0.025
19:12:25.400,-0.23,0.035
19:12:25.404,-0.27,0.0
19:12:25.408,-0.295,-0.05
19:12:25.412,-0.345,-0.03
19:12:25.416,-0.355,-0.02
19:12:25.420,-0.3,0.0
19:12:25.424,-0.29,0.02
19:12:25.428,-0.315,0.03
19:12:25.432,-0.265,0.03
19:12:25.436,-0.195,0.02
19:12:25.440,-0.165,-0.02
19:12:25.444,-0.21,0.0
19:12:25.448,-0.255,0.03
19:12:25.452,-0.25,-0.01
19:12:25.456,-0.225,-0.055
19:12:25.460,-0.155,-0.065
19:12:25.464,-0.205,0.03
19:12:25.468,-0.215,0.105
19:12:25.472,-0.165,0.01
19:12:25.476,-0.145,-0.09
19:12:25.480,-0.14,-0.075
19:12:25.484,-0.105,-0.07
19:12:25.488,-0.075,-0.085
19:12:25.492,-0.045,-0.165
19:12:25.496,-0.05,-0.15
19:12:25.500,-0.015,-0.05
19:12:25.504,-0.02,-0.04
19:12:25.508,0.035,-0.05
19:12:25.512,0.11,-0.025
19:12:25.516,0.08,0.0
19:12:25.520,-0.005,0.07
19:12:25.524,-0.01,0.1
19:12:25.528,0.08,0.04
19:12:25.532,0.095,-0.08
19:12:25.536,0.075,-0.06
19:12:25.540,0.03,0.025
19:12:25.544,-0.005,0.03
19:12:25.548,0.0,0.0
19:12:25.552,0.1,0.005
19:12:25.556,0.21,0.05
19:12:25.560,0.225,0.0
19:12:25.564,0.18,-0.035
19:12:25.568,0.175,0.02
19:12:25.572,0.185,0.09
19:12:25.576,0.23,0.03
19:12:25.580,0.225,0.015
19:12:25.584,0.265,0.045
19:12:25.588,0.295,0.01
19:12:25.592,0.36,-0.04
19:12:25.596,0.34,-0.06
19:12:25.600,0.215,-0.01
19:12:25.604,0.115,0.015
19:12:25.608,0.11,0.0
19:12:25.612,0.08,-0.025
19:12:25.616,0.045,0.0
19:12:25.620,0.085,0.0
19:12:25.624,0.07,-0.08
19:12:25.628,-0.03,-0.025
19:12:25.632,-0.135,0.03
19:12:25.636,-0.2,0.08
19:12:25.640,-0.215,0.125
19:12:25.644,-0.21,0.075
19:12:25.648,-0.2,-0.06
19:12:25.652,-0.165,-0.08
19:12:25.656,-0.13,-0.06
19:12:25.660,-0.135,-0.015
19:12:25.664,-0.21,0.03
19:12:25.668,-0.25,0.07
19:12:25.672,-0.195,0.105
19:12:25.676,-0.16,0.19
19:12:25.680,-0.18,0.205
19:12:25.684,-0.155,0.115
19:12:25.688,0.08,-0.06
19:12:25.692,0.64,-0.315
19:12:25.696,1.315,-0.395
19:12:25.700,1.91,-0.47
19:12:25.704,2.215,-0.72
19:12:25.708,1.915,-0.905
19:12:25.712,0.99,-0.885
19:12:25.716,0.135,-0.66
19:12:25.720,-0.295,-0.565
19:12:25.724,-0.46,-0.51
19:12:25.728,-0.225,-0.175
19:12:25.732,-0.195,-0.16
19:12:25.736,-0.22,-0.22
19:12:25.740,-0.225,-0.21
19:12:25.744,-0.185,-0.125
19:12:25.748,-0.185,-0.005
19:12:25.752,-0.19,0.07
19:12:25.756,-0.22,0.05
19:12:25.760,-0.28,0.04
19:12:25.764,-0.245,0.1
19:12:25.768,-0.135,0.145
19:12:25.772,-0.075,0.09
19:12:25.776,-0.105,0.005
19:12:25.780,-0.185,0.09
19:12:25.784,-0.26,0.235
19:12:25.788,-0.195,0.18
19:12:25.792,-0.12,-0.055
19:12:25.796,-0.11,-0.085
19:12:25.800,-0.165,0.02
19:12:25.804,-0.12,0.05
19:12:25.808,-0.145,0.06
19:12:25.812,-0.19,0.035
19:12:25.816,-0.2,0.075
19:12:25.820,-0.18,0.08
19:12:25.824,-0.185,0.075
19:12:25.828,-0.18,0.1
19:12:25.832,-0.13,0.08
19:12:25.836,-0.155,0.105
19:12:25.840,-0.18,0.15
19:12:25.844,-0.15,0.205
19:12:25.848,-0.13,0.2
19:12:25.852,-0.135,0.09
19:12:25.856,-0.125,-0.015
19:12:25.860,-0.17,0.02
19:12:25.864,-0.145,0.055
19:12:25.868,-0.1,0.04
19:12:25.872,-0.01,-0.065
19:12:25.876,0.08,-0.055
19:12:25.880,0.07,0.0
19:12:25.884,0.005,0.055
19:12:25.888,-0.095,0.115
19:12:25.892,-0.12,0.13
19:12:25.896,-0.1,0.12
19:12:25.900,-0.055,0.095
19:12:25.904,-0.045,0.07
19:12:25.908,-0.04,0.1
19:12:25.912,0.0,0.025
19:12:25.916,0.08,-0.08
19:12:25.920,0.065,-0.08
19:12:25.924,0.065,-0.125
19:12:25.928,0.095,-0.075
19:12:25.932,0.095,0.035
19:12:25.936,0.15,0.015
19:12:25.940,0.225,-0.105
19:12:25.944,0.27,-0.09
19:12:25.948,0.345,0.0
19:12:25.952,0.445,-0.065
19:12:25.956,0.48,-0.09
19:12:25.960,0.475,-0.12
19:12:25.964,0.49,-0.05
19:12:25.968,0.465,-0.005
19:12:25.972,0.4,-0.015
19:12:25.976,0.335,0.015
19:12:25.980,0.31,0.075
19:12:25.984,0.335,0.0
19:12:25.988,0.305,-0.005
19:12:25.992,0.28,-0.005
19:12:25.996,0.2,0.015
19:12:26.000,0.1,0.125
19:12:26.004,0.11,0.135
19:12:26.008,0.115,0.1
19:12:26.012,0.135,0.065
19:12:26.016,0.145,0.01
19:12:26.020,0.1,0.06
19:12:26.024,0.065,0.155
19:12:26.028,0.11,0.18
19:12:26.032,0.185,0.085
19:12:26.036,0.195,0.02
19:12:26.040,0.215,0.105
19:12:26.044,0.2,0.2
19:12:26.048,0.145,0.165
19:12:26.052,0.04,0.05
19:12:26.056,0.035,0.035
19:12:26.060,0.095,-0.005
19:12:26.064,0.035,-0.02
19:12:26.068,-0.015,0.03
19:12:26.072,0.015,0.07
19:12:26.076,0.03,0.1
19:12:26.080,0.0,0.035
19:12:26.084,-0.005,0.02
19:12:26.088,0.005,0.005
19:12:26.092,-0.055,-0.035
19:12:26.096,-0.08,0.045
19:12:26.100,-0.115,0.185
19:12:26.104,-0.08,0.17
19:12:26.108,-0.035,0.08
19:12:26.112,-0.025,0.035
19:12:26.116,-0.04,0.05
19:12:26.120,-0.075,0.08
19:12:26.124,-0.085,0.0
19:12:26.128,-0.115,-0.03
19:12:26.132,-0.15,0.025
19:12:26.136,-0.115,0.02
19:12:26.140,-0.12,0.055
19:12:26.144,-0.115,0.035
19:12:26.148,-0.155,-0.035
19:12:26.152,-0.155,-0.04
19:12:26.156,-0.185,0.035
19:12:26.160,-0.235,0.15
19:12:26.164,-0.24,0.215
19:12:26.168,-0.05,0.12
19:12:26.172,0.42,-0.07
19:12:26.176,1.09,-0.155
19:12:26.180,1.75,-0.27
19:12:26.184,2.05,-0.485
19:12:26.188,1.625,-0.72
19:12:26.192,0.775,-0.77
19:12:26.196,-0.045,-0.48
19:12:26.200,-0.44,-0.255
19:12:26.204,-0.35,-0.245
19:12:26.208,-0.215,-0.17
19:12:26.212,-0.185,-0.19
19:12:26.216,-0.135,-0.135
19:12:26.220,-0.055,-0.06
19:12:26.224,-0.015,0.015
19:12:26.228,-0.03,0.005
19:12:26.232,0.02,-0.015
19:12:26.236,-0.03,0.015
19:12:26.240,-0.08,0.04
19:12:26.244,-0.095,0.105
19:12:26.248,-0.175,0.155
19:12:26.252,-0.2,0.095
19:12:26.256,-0.165,0.04
19:12:26.260,-0.15,0.075
19:12:26.264,-0.24,0.115
19:12:26.268,-0.28,0.25
19:12:26.272,-0.225,0.235
19:12:26.276,-0.23,0.11
19:12:26.280,-0.275,0.105
19:12:26.284,-0.22,-0.025
19:12:26.288,-0.08,-0.08
19:12:26.292,-0.07,-0.01
19:12:26.296,-0.055,0.04
19:12:26.300,-0.105,0.065
19:12:26.304,-0.18,0.125
19:12:26.308,-0.155,0.11
19:12:26.312,-0.105,0.085
19:12:26.316,-0.135,0.085
19:12:26.320,-0.17,0.07
19:12:26.324,-0.135,0.15
19:12:26.328,-0.105,0.225
19:12:26.332,-0.11,0.115
19:12:26.336,-0.175,0.08
19:12:26.340,-0.23,0.125
19:12:26.344,-0.235,0.125
19:12:26.348,-0.215,0.135
19:12:26.352,-0.225,0.225
19:12:26.356,-0.195,0.24
19:12:26.360,-0.13,0.11
19:12:26.364,-0.135,0.05
19:12:26.368,-0.21,0.09
19:12:26.372,-0.265,0.165
19:12:26.376,-0.17,0.15
19:12:26.380,-0.1,0.03
19:12:26.384,-0.105,-0.04
19:12:26.388,-0.155,0.015
19:12:26.392,-0.14,0.105
19:12:26.396,-0.12,0.09
19:12:26.400,-0.09,0.025
19:12:26.404,-0.07,0.035
19:12:26.408,-0.135,0.09
19:12:26.412,-0.205,0.13
19:12:26.416,-0.185,0.19
19:12:26.420,-0.15,0.185
19:12:26.424,-0.13,0.08
19:12:26.428,-0.04,0.045
19:12:26.432,0.015,0.1
19:12:26.436,-0.03,0.125
19:12:26.440,-0.075,0.125
19:12:26.444,0.005,0.105
19:12:26.448,0.17,0.12
19:12:26.452,0.215,0.09
19:12:26.456,0.215,0.05
19:12:26.460,0.205,0.03
19:12:26.464,0.2,0.08
19:12:26.468,0.2,0.115
19:12:26.472,0.25,0.12
19:12:26.476,0.25,0.185
19:12:26.480,0.205,0.245
19:12:26.484,0.1,0.195
19:12:26.488,0.04,0.15
19:12:26.492,-0.08,0.125
19:12:26.496,-0.06,0.15
19:12:26.500,0.03,0.135
19:12:26.504,0.07,0.06
19:12:26.508,0.055,0.04
19:12:26.512,0.03,0.095
19:12:26.516,0.0,0.065
19:12:26.520,-0.05,0.05
19:12:26.524,-0.055,0.09
19:12:26.528,-0.04,0.13
19:12:26.532,-0.04,0.12
19:12:26.536,0.04,0.135
19:12:26.540,0.05,0.11
19:12:26.544,0.0,0.13
19:12:26.548,-0.055,0.205
19:12:26.552,-0.05,0.205
19:12:26.556,0.065,0.14
19:12:26.560,0.11,0.105
19:12:26.564,0.045,0.125
19:12:26.568,-0.035,0.135
19:12:26.572,-0.11,0.115
19:12:26.576,-0.075,0.085
19:12:26.580,0.0,0.05
19:12:26.584,-0.005,0.065
19:12:26.588,-0.1,0.095
19:12:26.592,-0.135,0.125
19:12:26.596,-0.14,0.06
19:12:26.600,-0.08,-0.01
19:12:26.604,-0.055,0.035
19:12:26.608,-0.06,0.065
19:12:26.612,-0.04,0.14
19:12:26.616,-0.035,0.17
19:12:26.620,-0.025,0.135
19:12:26.624,-0.02,0.045
19:12:26.628,-0.065,0.01
19:12:26.632,-0.08,0.085
19:12:26.636,-0.125,0.13
19:12:26.640,-0.18,0.06
19:12:26.644,-0.19,0.045
19:12:26.648,-0.17,0.14
19:12:26.652,-0.175,0.205
19:12:26.656,-0.22,0.245
19:12:26.660,-0.265,0.205
19:12:26.664,-0.25,0.15
19:12:26.668,-0.215,0.1
19:12:26.672,-0.165,0.125
19:12:26.676,-0.14,0.145
19:12:26.680,-0.205,0.145
19:12:26.684,-0.205,0.19
19:12:26.688,-0.185,0.225
19:12:26.692,-0.18,0.22
19:12:26.696,-0.165,0.13
19:12:26.700,-0.15,0.155
19:12:26.704,-0.155,0.18
19:12:26.708,-0.18,0.085
19:12:26.712,-0.2,0.055
19:12:26.716,-0.27,0.115
19:12:26.720,-0.34,0.195
19:12:26.724,-0.315,0.165
19:12:26.728,-0.285,0.125
19:12:26.732,-0.3,0.07
19:12:26.736,-0.34,0.05
19:12:26.740,-0.39,0.13
19:12:26.744,-0.385,0.145
19:12:26.748,-0.4,0.19
19:12:26.752,-0.33,0.2
19:12:26.756,-0.29,0.12
19:12:26.760,-0.255,0.09
19:12:26.764,-0.23,0.1
19:12:26.768,-0.235,0.14
19:12:26.772,-0.275,0.18
19:12:26.776,-0.22,0.165
19:12:26.780,-0.22,0.16
19:12:26.784,-0.25,0.21
19:12:26.788,-0.29,0.185
19:12:26.792,-0.245,0.165
19:12:26.796,-0.275,0.13
19:12:26.800,-0.305,0.095
19:12:26.804,-0.31,0.125
19:12:26.808,-0.305,0.205
19:12:26.812,-0.34,0.175
19:12:26.816,-0.345,0.17
19:12:26.820,-0.265,0.195
19:12:26.824,-0.025,0.035
19:12:26.828,0.46,-0.05
19:12:26.832,1.085,-0.13
19:12:26.836,1.695,-0.24
19:12:26.840,1.97,-0.53
19:12:26.844,1.46,-0.795
19:12:26.848,0.57,-0.75
19:12:26.852,-0.35,-0.485
19:12:26.856,-0.775,-0.425
19:12:26.860,-0.77,-0.43
19:12:26.864,-0.545,-0.155
19:12:26.868,-0.435,-0.095
19:12:26.872,-0.33,-0.065
19:12:26.876,-0.27,-0.065
19:12:26.880,-0.28,-0.035
19:12:26.884,-0.315,0.035
19:12:26.888,-0.27,0.075
19:12:26.892,-0.2,0.09
19:12:26.896,-0.155,0.075
19:12:26.900,-0.23,0.135
19:12:26.904,-0.27,0.115
19:12:26.908,-0.4,0.175
19:12:26.912,-0.41,0.22
19:12:26.916,-0.385,0.22
19:12:26.920,-0.39,0.27
19:12:26.924,-0.395,0.275
19:12:26.928,-0.415,0.19
19:12:26.932,-0.465,0.125
19:12:26.936,-0.42,0.11
19:12:26.940,-0.43,0.205
19:12:26.944,-0.415,0.27
19:12:26.948,-0.43,0.235
19:12:26.952,-0.41,0.19
19:12:26.956,-0.435,0.11
19:12:26.960,-0.415,0.12
19:12:26.964,-0.36,0.135
19:12:26.968,-0.36,0.155
19:12:26.972,-0.32,0.065
19:12:26.976,-0.385,0.075
19:12:26.980,-0.405,0.1
19:12:26.984,-0.42,0.085
19:12:26.988,-0.39,0.105
19:12:26.992,-0.35,0.125
19:12:26.996,-0.355,0.17
19:12:27.000,-0.34,0.17
19:12:27.004,-0.26,0.215
19:12:27.008,-0.23,0.255
19:12:27.012,-0.24,0.225
19:12:27.016,-0.265,0.225
19:12:27.020,-0.26,0.135
19:12:27.024,-0.305,0.115
19:12:27.028,-0.385,0.2
19:12:27.032,-0.34,0.155
19:12:27.036,-0.21,-0.04
19:12:27.040,-0.14,-0.095
19:12:27.044,-0.165,-0.04
19:12:27.048,-0.225,0.04
19:12:27.052,-0.375,0.06
19:12:27.056,-0.375,0.06
19:12:27.060,-0.25,0.085
19:12:27.064,-0.215,0.13
19:12:27.068,-0.25,0.18
19:12:27.072,-0.255,0.23
19:12:27.076,-0.285,0.27
19:12:27.080,-0.24,0.205
19:12:27.084,-0.125,0.065
19:12:27.088,-0.1,0.06
19:12:27.092,-0.19,0.125
19:12:27.096,-0.22,0.15
19:12:27.100,-0.18,0.2
19:12:27.104,-0.12,0.17
19:12:27.108,-0.085,0.08
19:12:27.112,-0.03,0.135
19:12:27.116,0.025,0.195
19:12:27.120,0.07,0.135
19:12:27.124,0.15,0.08
19:12:27.128,0.18,0.18
19:12:27.132,0.175,0.2
19:12:27.136,0.19,0.12
19:12:27.140,0.18,0.115
19:12:27.144,0.105,0.1
19:12:27.148,0.11,0.155
19:12:27.152,0.08,0.21
19:12:27.156,-0.025,0.175
19:12:27.160,-0.16,0.105
19:12:27.164,-0.21,0.14
19:12:27.168,-0.21,0.195
19:12:27.172,-0.235,0.265
19:12:27.176,-0.16,0.22
19:12:27.180,-0.135,0.145
19:12:27.184,-0.255,0.145
19:12:27.188,-0.275,0.14
19:12:27.192,-0.26,0.155
19:12:27.196,-0.26,0.23
19:12:27.200,-0.285,0.2
19:12:27.204,-0.275,0.175
19:12:27.208,-0.325,0.225
19:12:27.212,-0.41,0.25
19:12:27.216,-0.2,0.14
19:12:27.220,0.395,-0.01
19:12:27.224,1.12,-0.15
19:12:27.228,1.745,-0.295
19:12:27.232,1.92,-0.47
19:12:27.236,1.37,-0.61
19:12:27.240,0.54,-0.56
19:12:27.244,-0.12,-0.36
19:12:27.248,-0.26,-0.27
19:12:27.252,-0.335,-0.195
19:12:27.256,-0.16,-0.035
19:12:27.260,-0.14,-0.01
19:12:27.264,-0.185,0.01
19:12:27.268,-0.16,-0.005
19:12:27.272,-0.135,0.005
19:12:27.276,-0.19,0.115
19:12:27.280,-0.27,0.14
19:12:27.284,-0.31,0.175
19:12:27.288,-0.31,0.205
19:12:27.292,-0.325,0.215
19:12:27.296,-0.26,0.265
19:12:27.300,-0.235,0.2
19:12:27.304,-0.35,0.09
19:12:27.308,-0.415,0.115
19:12:27.312,-0.435,0.185
19:12:27.316,-0.425,0.185
19:12:27.320,-0.46,0.25
19:12:27.324,-0.46,0.31
19:12:27.328,-0.45,0.19
19:12:27.332,-0.41,0.145
19:12:27.336,-0.455,0.235
19:12:27.340,-0.495,0.29
19:12:27.344,-0.48,0.29
19:12:27.348,-0.455,0.225
19:12:27.352,-0.385,0.175
19:12:27.356,-0.36,0.175
19:12:27.360,-0.36,0.18
19:12:27.364,-0.36,0.245
19:12:27.368,-0.43,0.305
19:12:27.372,-0.54,0.31
19:12:27.376,-0.54,0.29
19:12:27.380,-0.445,0.34
19:12:27.384,-0.42,0.29
19:12:27.388,-0.42,0.235
19:12:27.392,-0.445,0.285
19:12:27.396,-0.465,0.33
19:12:27.400,-0.45,0.22
19:12:27.404,-0.395,0.105
19:12:27.408,-0.35,0.185
19:12:27.412,-0.345,0.255
19:12:27.416,-0.33,0.215
19:12:27.420,-0.3,0.14
19:12:27.424,-0.27,0.095
19:12:27.428,-0.175,0.155
19:12:27.432,-0.12,0.215
19:12:27.436,-0.17,0.285
19:12:27.440,-0.08,0.3
19:12:27.444,-0.05,0.215
19:12:27.448,-0.085,0.14
19:12:27.452,-0.18,0.21
19:12:27.456,-0.15,0.215
19:12:27.460,-0.12,0.235
19:12:27.464,-0.115,0.19
19:12:27.468,-0.02,0.11
19:12:27.472,-0.005,0.125
19:12:27.476,-0.025,0.195
19:12:27.480,0.035,0.185
19:12:27.484,0.115,0.11
19:12:27.488,0.11,0.17
19:12:27.492,0.11,0.23
19:12:27.496,0.165,0.175
19:12:27.500,0.12,0.18
19:12:27.504,0.07,0.29
19:12:27.508,0.075,0.3
19:12:27.512,0.045,0.24
19:12:27.516,0.0,0.215
19:12:27.520,-0.06,0.24
19:12:27.524,-0.035,0.175
19:12:27.528,-0.025,0.1
19:12:27.532,-0.03,0.075
19:12:27.536,-0.04,0.145
19:12:27.540,-0.145,0.23
19:12:27.544,-0.22,0.325
19:12:27.548,-0.25,0.365
19:12:27.552,-0.205,0.335
19:12:27.556,0.08,0.215
19:12:27.560,0.675,-0.02
19:12:27.564,1.375,-0.16
19:12:27.568,1.9,-0.23
19:12:27.572,2.04,-0.32
19:12:27.576,1.54,-0.45
19:12:27.580,0.66,-0.475
19:12:27.584,-0.07,-0.355
19:12:27.588,-0.345,-0.16
19:12:27.592,-0.44,-0.14
19:12:27.596,-0.315,-0.02
19:12:27.600,-0.315,0.05
19:12:27.604,-0.405,0.15
19:12:27.608,-0.41,0.185
19:12:27.612,-0.46,0.155
19:12:27.616,-0.51,0.12
19:12:27.620,-0.575,0.08
19:12:27.624,-0.625,0.115
19:12:27.628,-0.59,0.16
19:12:27.632,-0.585,0.205
19:12:27.636,-0.645,0.245
19:12:27.640,-0.68,0.24
19:12:27.644,-0.635,0.21
19:12:27.648,-0.61,0.11
19:12:27.652,-0.61,0.12
19:12:27.656,-0.6,0.17
19:12:27.660,-0.575,0.275
19:12:27.664,-0.565,0.22
19:12:27.668,-0.54,0.14
19:12:27.672,-0.475,0.15
19:12:27.676,-0.49,0.18
19:12:27.680,-0.52,0.205
19:12:27.684,-0.525,0.22
19:12:27.688,-0.53,0.16
19:12:27.692,-0.5,0.09
19:12:27.696,-0.51,0.07
19:12:27.700,-0.54,0.135
19:12:27.704,-0.565,0.14
19:12:27.708,-0.535,0.185
19:12:27.712,-0.47,0.2
19:12:27.716,-0.51,0.2
19:12:27.720,-0.53,0.28
19:12:27.724,-0.54,0.315
19:12:27.728,-0.495,0.315
19:12:27.732,-0.51,0.41
19:12:27.736,-0.495,0.37
19:12:27.740,-0.505,0.235
19:12:27.744,-0.515,0.165
19:12:27.748,-0.465,0.11
19:12:27.752,-0.475,0.145
19:12:27.756,-0.485,0.115
19:12:27.760,-0.495,0.165
19:12:27.764,-0.49,0.26
19:12:27.768,-0.495,0.29
19:12:27.772,-0.48,0.245
19:12:27.776,-0.46,0.22
19:12:27.780,-0.475,0.23
19:12:27.784,-0.485,0.27
19:12:27.788,-0.445,0.315
19:12:27.792,-0.435,0.325
19:12:27.796,-0.41,0.31
19:12:27.800,-0.345,0.29
19:12:27.804,-0.275,0.255
19:12:27.808,-0.24,0.22
19:12:27.812,-0.1,0.185
19:12:27.816,-0.095,0.18
19:12:27.820,-0.115,0.18
19:12:27.824,-0.1,0.24
19:12:27.828,-0.085,0.245
19:12:27.832,-0.135,0.205
19:12:27.836,-0.31,0.15
19:12:27.840,-0.445,0.19
19:12:27.844,-0.46,0.29
19:12:27.848,-0.495,0.29
19:12:27.852,-0.49,0.315
19:12:27.856,-0.49,0.295
19:12:27.860,-0.47,0.165
19:12:27.864,-0.435,0.135
19:12:27.868,-0.4,0.175
19:12:27.872,-0.42,0.125
19:12:27.876,-0.465,0.12
19:12:27.880,-0.515,0.23
19:12:27.884,-0.335,0.17
19:12:27.888,0.23,-0.01
19:12:27.892,0.94,-0.085
19:12:27.896,1.62,-0.14
19:12:27.900,2.075,-0.275
19:12:27.904,2.07,-0.455
19:12:27.908,1.5,-0.635
19:12:27.912,0.83,-0.54
19:12:27.916,0.275,-0.435
19:12:27.920,-0.045,-0.435
19:12:27.924,-0.095,-0.18
19:12:27.928,-0.18,-0.07
19:12:27.932,-0.34,0.0
19:12:27.936,-0.39,0.145
19:12:27.940,-0.455,0.195
19:12:27.944,-0.545,0.235
19:12:27.948,-0.53,0.22
19:12:27.952,-0.51,0.105
19:12:27.956,-0.53,0.095
19:12:27.960,-0.535,0.145
19:12:27.964,-0.635,0.26
19:12:27.968,-0.675,0.265
19:12:27.972,-0.62,0.21
19:12:27.976,-0.59,0.055
19:12:27.980,-0.585,0.085
19:12:27.984,-0.605,0.115
19:12:27.988,-0.575,0.17
19:12:27.992,-0.61,0.19
19:12:27.996,-0.62,0.19
19:12:28.000,-0.575,0.21
19:12:28.004,-0.59,0.19
19:12:28.008,-0.62,0.18
19:12:28.012,-0.59,0.23
19:12:28.016,-0.61,0.295
19:12:28.020,-0.6,0.315
19:12:28.024,-0.6,0.295
19:12:28.028,-0.545,0.23
19:12:28.032,-0.545,0.185
19:12:28.036,-0.55,0.23
19:12:28.040,-0.585,0.215
19:12:28.044,-0.64,0.18
19:12:28.048,-0.63,0.2
19:12:28.052,-0.62,0.265
19:12:28.056,-0.635,0.3
19:12:28.060,-0.64,0.195
19:12:28.064,-0.63,0.07
19:12:28.068,-0.685,0.13
19:12:28.072,-0.67,0.17
19:12:28.076,-0.64,0.15
19:12:28.080,-0.605,0.135
19:12:28.084,-0.61,0.13
19:12:28.088,-0.595,0.135
19:12:28.092,-0.56,0.15
19:12:28.096,-0.575,0.13
19:12:28.100,-0.555,0.205
19:12:28.104,-0.47,0.23
19:12:28.108,-0.4,0.23
19:12:28.112,-0.345,0.185
19:12:28.116,-0.3,0.17
19:12:28.120,-0.25,0.145
19:12:28.124,-0.175,0.13
19:12:28.128,-0.14,0.095
19:12:28.132,-0.09,0.085
19:12:28.136,-0.01,0.08
19:12:28.140,-0.02,0.085
19:12:28.144,0.04,0.1
19:12:28.148,0.1,0.11
19:12:28.152,0.015,0.11
19:12:28.156,-0.06,0.155
19:12:28.160,-0.005,0.19
19:12:28.164,0.03,0.21
19:12:28.168,-0.04,0.205
19:12:28.172,-0.11,0.235
19:12:28.176,-0.18,0.25
19:12:28.180,-0.16,0.25
19:12:28.184,-0.175,0.245
19:12:28.188,-0.19,0.19
19:12:28.192,-0.135,0.135
19:12:28.196,-0.115,0.195
19:12:28.200,-0.2,0.255
19:12:28.204,-0.27,0.285
19:12:28.208,-0.35,0.3
19:12:28.212,-0.36,0.245
19:12:28.216,-0.4,0.245
19:12:28.220,-0.47,0.3
19:12:28.224,-0.36,0.23
19:12:28.228,-0.3,0.105
19:12:28.232,-0.295,0.075
19:12:28.236,-0.31,0.175
19:12:28.240,-0.3,0.185
19:12:28.244,-0.33,0.25
19:12:28.248,-0.335,0.295
19:12:28.252,-0.365,0.235
19:12:28.256,-0.365,0.18
19:12:28.260,-0.405,0.28
19:12:28.264,-0.435,0.375
19:12:28.268,-0.51,0.305
19:12:28.272,-0.535,0.135
19:12:28.276,-0.535,0.085
19:12:28.280,-0.62,0.12
19:12:28.284,-0.705,0.19
19:12:28.288,-0.69,0.27
19:12:28.292,-0.68,0.33
19:12:28.296,-0.66,0.21
19:12:28.300,-0.67,0.14
19:12:28.304,-0.7,0.2
19:12:28.308,-0.76,0.18
19:12:28.312,-0.76,0.085
19:12:28.316,-0.71,0.075
19:12:28.320,-0.76,0.01
19:12:28.324,-0.76,0.015
19:12:28.328,-0.77,0.16
19:12:28.332,-0.745,0.22
19:12:28.336,-0.745,0.175
19:12:28.340,-0.705,0.155
19:12:28.344,-0.64,0.2
19:12:28.348,-0.68,0.135
19:12:28.352,-0.765,0.12
19:12:28.356,-0.765,0.09
19:12:28.360,-0.725,-0.015
19:12:28.364,-0.655,-0.075
19:12:28.368,-0.59,-0.01
19:12:28.372,-0.63,0.1
19:12:28.376,-0.625,0.21
19:12:28.380,-0.5,0.215
19:12:28.384,-0.49,0.155
19:12:28.388,-0.64,0.23
19:12:28.392,-0.6,0.225
19:12:28.396,-0.195,-0.02
19:12:28.400,0.395,-0.13
19:12:28.404,1.045,-0.225
19:12:28.408,1.42,-0.355
19:12:28.412,1.02,-0.615
19:12:28.416,-0.075,-0.675
19:12:28.420,-0.86,-0.45
19:12:28.424,-1.25,-0.24
19:12:28.428,-1.215,-0.22
19:12:28.432,-1.02,-0.17
19:12:28.436,-0.765,-0.185
19:12:28.440,-0.63,-0.04
19:12:28.444,-0.64,0.12
19:12:28.448,-0.63,0.185
19:12:28.452,-0.685,0.1
19:12:28.456,-0.7,0.115
19:12:28.460,-0.69,0.175
19:12:28.464,-0.705,0.14
19:12:28.468,-0.67,0.09
19:12:28.472,-0.63,0.125
19:12:28.476,-0.655,0.165
19:12:28.480,-0.66,0.18
19:12:28.484,-0.69,0.21
19:12:28.488,-0.805,0.22
19:12:28.492,-0.94,0.245
19:12:28.496,-0.92,0.235
19:12:28.500,-0.87,0.2
19:12:28.504,-0.81,0.19
19:12:28.508,-0.77,0.195
19:12:28.512,-0.825,0.23
19:12:28.516,-0.84,0.25
19:12:28.520,-0.86,0.18
19:12:28.524,-0.88,0.17
19:12:28.528,-0.9,0.24
19:12:28.532,-0.86,0.255
19:12:28.536,-0.83,0.2
19:12:28.540,-0.895,0.2
19:12:28.544,-0.92,0.23
19:12:28.548,-0.855,0.145
19:12:28.552,-0.725,0.01
19:12:28.556,-0.75,-0.02
19:12:28.560,-0.805,0.06
19:12:28.564,-0.74,0.175
19:12:28.568,-0.66,0.12
19:12:28.572,-0.685,-0.025
19:12:28.576,-0.735,-0.035
19:12:28.580,-0.71,0.025
19:12:28.584,-0.715,0.12
19:12:28.588,-0.69,0.095
19:12:28.592,-0.64,0.035
19:12:28.596,-0.68,0.09
19:12:28.600,-0.68,0.15
19:12:28.604,-0.655,0.185
19:12:28.608,-0.6,0.155
19:12:28.612,-0.67,0.08
19:12:28.616,-0.715,0.085
19:12:28.620,-0.735,0.17
19:12:28.624,-0.735,0.14
19:12:28.628,-0.685,0.085
19:12:28.632,-0.595,0.05
19:12:28.636,-0.56,0.08
19:12:28.640,-0.575,0.115
19:12:28.644,-0.605,0.22
19:12:28.648,-0.625,0.24
19:12:28.652,-0.635,0.13
19:12:28.656,-0.535,0.105
19:12:28.660,-0.51,0.2
19:12:28.664,-0.465,0.125
19:12:28.668,-0.34,0.105
19:12:28.672,-0.34,0.135
19:12:28.676,-0.365,0.12
19:12:28.680,-0.3,0.055
19:12:28.684,-0.2,0.01
19:12:28.688,-0.21,0.0
19:12:28.692,-0.185,-0.01
19:12:28.696,-0.21,0.03
19:12:28.700,-0.29,0.115
19:12:28.704,-0.395,0.225
19:12:28.708,-0.37,0.25
19:12:28.712,-0.36,0.125
19:12:28.716,-0.435,0.095
19:12:28.720,-0.47,0.05
19:12:28.724,-0.41,0.055
19:12:28.728,-0.365,0.06
19:12:28.732,-0.445,0.07
19:12:28.736,-0.49,0.095
19:12:28.740,-0.535,0.08
19:12:28.744,-0.525,0.06
19:12:28.748,-0.585,-0.035
19:12:28.752,-0.725,0.0
19:12:28.756,-0.79,0.055
19:12:28.760,-0.66,0.165
19:12:28.764,-0.54,0.16
19:12:28.768,-0.525,0.115
19:12:28.772,-0.545,0.125
19:12:28.776,-0.51,0.16
19:12:28.780,-0.605,0.19
19:12:28.784,-0.6,0.095
19:12:28.788,-0.11,-0.045
19:12:28.792,0.685,-0.15
19:12:28.796,1.34,-0.26
19:12:28.800,1.74,-0.355
19:12:28.804,1.66,-0.49
19:12:28.808,0.72,-0.615
19:12:28.812,-0.55,-0.43
19:12:28.816,-1.35,-0.05
19:12:28.820,-1.595,0.15
19:12:28.824,-1.46,0.325
19:12:28.828,-1.33,0.515
19:12:28.832,-1.38,0.59
19:12:28.836,-1.34,0.65
19:12:28.840,-1.205,0.705
19:12:28.844,-1.16,0.71
19:12:28.848,-1.29,0.715
19:12:28.852,-1.46,0.745
19:12:28.856,-1.455,0.81
19:12:28.860,-1.425,0.815
19:12:28.864,-1.255,0.72
19:12:28.868,-1.015,0.59
19:12:28.872,-0.855,0.415
19:12:28.876,-0.81,0.345
19:12:28.880,-0.835,0.345
19:12:28.884,-0.84,0.31
19:12:28.888,-0.825,0.19
19:12:28.892,-0.74,0.145
19:12:28.896,-0.64,0.105
19:12:28.900,-0.61,0.08
19:12:28.904,-0.625,0.095
19:12:28.908,-0.71,0.11
19:12:28.912,-0.755,0.1
19:12:28.916,-0.72,0.115
19:12:28.920,-0.65,0.14
19:12:28.924,-0.61,0.15
19:12:28.928,-0.625,0.07
19:12:28.932,-0.62,0.04
19:12:28.936,-0.67,0.03
19:12:28.940,-0.69,0.055
19:12:28.944,-0.725,0.045
19:12:28.948,-0.78,0.055
19:12:28.952,-0.76,0.045
19:12:28.956,-0.72,0.06
19:12:28.960,-0.675,0.04
19:12:28.964,-0.62,0.04
19:12:28.968,-0.625,0.035
19:12:28.972,-0.48,-0.025
19:12:28.976,-0.4,-0.05
19:12:28.980,-0.4,-0.035
19:12:28.984,-0.35,-0.055
19:12:28.988,-0.315,-0.035
19:12:28.992,-0.325,-0.035
19:12:28.996,-0.27,-0.035
19:12:29.000,-0.21,-0.035
19:12:29.004,-0.075,-0.1
19:12:29.008,0.025,-0.13
19:12:29.012,0.04,-0.185
19:12:29.016,0.005,-0.2
19:12:29.020,-0.035,-0.175
19:12:29.024,-0.025,-0.15
19:12:29.028,0.03,-0.14
19:12:29.032,0.035,-0.1
19:12:29.036,0.08,-0.095
19:12:29.040,0.255,-0.185
19:12:29.044,0.445,-0.24
19:12:29.048,0.5,-0.225
19:12:29.052,0.425,-0.175
19:12:29.056,0.315,-0.13
19:12:29.060,0.405,-0.115
19:12:29.064,0.515,-0.09
19:12:29.068,0.565,-0.09
19:12:29.072,0.42,-0.055
19:12:29.076,0.255,-0.085
19:12:29.080,0.3,-0.12
19:12:29.084,0.48,-0.12
19:12:29.088,0.59,-0.05
19:12:29.092,0.475,0.12
19:12:29.096,0.35,0.125
19:12:29.100,0.51,-0.045
19:12:29.104,0.295,-0.205
19:12:29.108,-0.095,-0.225
19:12:29.112,-0.33,-0.125
19:12:29.116,-0.37,0.015
19:12:29.120,-0.435,0.25
19:12:29.124,-0.6,0.46
19:12:29.128,-0.57,0.36
19:12:29.132,-0.285,0.025
19:12:29.136,0.07,-0.14
19:12:29.140,0.11,-0.055
19:12:29.144,-0.215,0.065
19:12:29.148,-0.4,0.08
19:12:29.152,-0.465,0.11
19:12:29.156,-0.615,0.125
19:12:29.160,-0.825,0.175
19:12:29.164,-1.07,0.225
19:12:29.168,-1.095,0.225
19:12:29.172,-0.92,0.205
19:12:29.176,-0.81,0.125
19:12:29.180,-0.84,0.1
19:12:29.184,-0.815,0.145
19:12:29.188,-0.75,0.165
19:12:29.192,-0.77,0.145
19:12:29.196,-0.76,0.15
19:12:29.200,-0.7,0.17
19:12:29.204,-0.615,0.14
19:12:29.208,-0.53,0.14
19:12:29.212,-0.47,0.15
19:12:29.216,-0.425,0.12
19:12:29.220,-0.42,0.135
19:12:29.224,-0.41,0.095
19:12:29.228,-0.48,0.085
19:12:29.232,-0.505,0.095
19:12:29.236,-0.37,0.1
19:12:29.240,-0.495,0.095
19:12:29.244,-0.67,0.05
19:12:29.248,-0.5,0.01
19:12:29.252,-0.25,0.0
19:12:29.256,-0.42,0.04
19:12:29.260,-0.62,0.13
19:12:29.264,-0.6,0.22
19:12:29.268,-0.63,0.205
19:12:29.272,-0.64,0.225
19:12:29.276,-0.575,0.2
19:12:29.280,-0.62,0.205
19:12:29.284,-0.645,0.2
19:12:29.288,-0.455,0.22
19:12:29.292,-0.465,0.27
19:12:29.296,-0.73,0.34
19:12:29.300,-0.815,0.36
19:12:29.304,-0.66,0.31
19:12:29.308,-0.575,0.28
19:12:29.312,-0.45,0.18
19:12:29.316,-0.42,0.125
19:12:29.320,-0.455,0.13
19:12:29.324,-0.56,0.185
19:12:29.328,-0.66,0.25
19:12:29.332,-0.645,0.305
19:12:29.336,-0.545,0.22
19:12:29.340,-0.47,0.175
19:12:29.344,-0.385,0.205
19:12:29.348,-0.395,0.24
19:12:29.352,-0.51,0.26
19:12:29.356,-0.39,0.275
19:12:29.360,-0.5,0.33
19:12:29.364,-0.82,0.265
19:12:29.368,-0.885,0.27
19:12:29.372,-0.805,0.27
19:12:29.376,-0.67,0.165
19:12:29.380,-0.4,0.07
19:12:29.384,-0.265,0.04
19:12:29.388,-0.32,0.05
19:12:29.392,-0.545,0.185
19:12:29.396,-0.745,0.25
19:12:29.400,-0.78,0.23
19:12:29.404,-0.64,0.16
19:12:29.408,-0.545,0.145
19:12:29.412,-0.56,0.045
19:12:29.416,-0.57,-0.01
19:12:29.420,-0.735,0.01
19:12:29.424,-0.775,0.05
19:12:29.428,-0.695,0.125
19:12:29.432,-0.5,0.2
19:12:29.436,-0.435,0.215
19:12:29.440,-0.47,0.225
19:12:29.444,-0.67,0.21
19:12:29.448,-0.615,0.12
19:12:29.452,-0.495,0.07
19:12:29.456,-0.37,0.035
19:12:29.460,-0.37,0.04
19:12:29.464,-0.435,0.08
19:12:29.468,-0.475,0.09
19:12:29.472,-0.54,0.145
19:12:29.476,-0.625,0.205
19:12:29.480,-0.72,0.19
19:12:29.484,-0.715,0.175
19:12:29.488,-0.59,0.22
19:12:29.492,-0.42,0.17
19:12:29.496,-0.3,0.085
19:12:29.500,-0.34,0.08
19:12:29.504,-0.37,0.115
19:12:29.508,-0.435,0.16
19:12:29.512,-0.47,0.22
19:12:29.516,-0.465,0.24
19:12:29.520,-0.45,0.24
19:12:29.524,-0.455,0.22
19:12:29.528,-0.42,0.195
19:12:29.532,-0.295,0.165
19:12:29.536,-0.19,0.12
19:12:29.540,-0.245,0.17
19:12:29.544,-0.435,0.205
19:12:29.548,-0.405,0.225
19:12:29.552,-0.185,0.21
19:12:29.556,-0.185,0.22
19:12:29.560,-0.36,0.155
19:12:29.564,-0.3,0.115
19:12:29.568,-0.38,0.15
19:12:29.572,-0.48,0.165
19:12:29.576,-0.315,0.195
19:12:29.580,-0.31,0.23
19:12:29.584,-0.4,0.285
19:12:29.588,-0.43,0.26
19:12:29.592,-0.475,0.255
19:12:29.596,-0.415,0.225
19:12:29.600,-0.36,0.17
19:12:29.604,-0.39,0.04
19:12:29.608,-0.405,0.01
19:12:29.612,-0.585,0.17
19:12:29.616,-0.605,0.36
19:12:29.620,-0.45,0.395
19:12:29.624,-0.385,0.23
19:12:29.628,-0.3,0.035
19:12:29.632,-0.33,-0.05
19:12:29.636,-0.405,-0.1
19:12:29.640,-0.515,-0.055
19:12:29.644,-0.6,0.01
19:12:29.648,-0.54,0.045
19:12:29.652,-0.455,0.11
19:12:29.656,-0.34,0.13
19:12:29.660,-0.265,0.19
19:12:29.664,-0.345,0.17
19:12:29.668,-0.32,0.16
19:12:29.672,-0.205,0.155
19:12:29.676,-0.21,0.065
19:12:29.680,-0.275,0.085
19:12:29.684,-0.525,0.21
19:12:29.688,-0.615,0.28
19:12:29.692,-0.32,0.175
19:12:29.696,-0.26,0.085
19:12:29.700,-0.44,0.025
19:12:29.704,-0.45,0.01
19:12:29.708,-0.29,0.055
19:12:29.712,-0.31,0.17
19:12:29.716,-0.46,0.25
19:12:29.720,-0.475,0.215
19:12:29.724,-0.395,0.165
19:12:29.728,-0.34,0.115
19:12:29.732,-0.37,0.185
19:12:29.736,-0.305,0.165
19:12:29.740,-0.21,0.145
19:12:29.744,-0.01,0.15
19:12:29.748,-0.06,0.175
19:12:29.752,-0.23,0.195
19:12:29.756,-0.475,0.23
19:12:29.760,-0.535,0.255
19:12:29.764,-0.265,0.275
19:12:29.768,-0.06,0.2
19:12:29.772,-0.24,0.175
19:12:29.776,-0.46,0.205
19:12:29.780,-0.435,0.27
19:12:29.784,-0.41,0.27
19:12:29.788,-0.245,0.16
19:12:29.792,0.47,0.03
19:12:29.796,1.295,-0.195
19:12:29.800,1.86,-0.455
19:12:29.804,1.88,-0.76
19:12:29.808,1.315,-0.945
19:12:29.812,0.545,-0.67
19:12:29.816,-0.385,-0.26
19:12:29.820,-0.8,-0.19
19:12:29.824,-0.78,-0.105
19:12:29.828,-0.615,-0.05
19:12:29.832,-0.58,0.0
19:12:29.836,-0.545,0.065
19:12:29.840,-0.49,0.11
19:12:29.844,-0.215,0.1
19:12:29.848,-0.225,0.1
19:12:29.852,-0.54,0.14
19:12:29.856,-0.58,0.105
19:12:29.860,-0.53,0.1
19:12:29.864,-0.545,0.155
19:12:29.868,-0.47,0.195
19:12:29.872,-0.38,0.19
19:12:29.876,-0.43,0.24
19:12:29.880,-0.595,0.27
19:12:29.884,-0.62,0.235
19:12:29.888,-0.46,0.055
19:12:29.892,-0.4,-0.02
19:12:29.896,-0.285,0.005
19:12:29.900,-0.34,0.115
19:12:29.904,-0.53,0.13
19:12:29.908,-0.575,0.035
19:12:29.912,-0.49,0.02
19:12:29.916,-0.505,0.07
19:12:29.920,-0.4,0.12
19:12:29.924,-0.32,0.13
19:12:29.928,-0.445,0.12
19:12:29.932,-0.545,0.095
19:12:29.936,-0.49,0.125
19:12:29.940,-0.33,0.15
19:12:29.944,-0.225,0.105
19:12:29.948,-0.425,0.125
19:12:29.952,-0.585,0.17
19:12:29.956,-0.505,0.21
19:12:29.960,-0.39,0.245
19:12:29.964,-0.29,0.29
19:12:29.968,-0.305,0.21
19:12:29.972,-0.52,0.075
19:12:29.976,-0.535,0.005
19:12:29.980,-0.29,0.02
19:12:29.984,-0.16,0.02
19:12:29.988,-0.275,0.035
19:12:29.992,-0.365,0.05
19:12:29.996,-0.445,0.125
19:12:30.000,-0.51,0.225
19:12:30.004,-0.43,0.16
19:12:30.008,-0.315,0.01
19:12:30.012,-0.26,0.0
19:12:30.016,-0.365,0.085
19:12:30.020,-0.44,0.13
19:12:30.024,-0.47,0.13
19:12:30.028,-0.46,0.115
19:12:30.032,-0.365,0.065
19:12:30.036,-0.31,0.0
19:12:30.040,-0.35,-0.05
19:12:30.044,-0.29,-0.085
19:12:30.048,-0.4,-0.01
19:12:30.052,-0.49,-0.005
19:12:30.056,-0.4,-0.04
19:12:30.060,-0.31,-0.07
19:12:30.064,-0.065,-0.17
19:12:30.068,0.06,-0.18
19:12:30.072,-0.01,-0.16
19:12:30.076,-0.32,-0.095
19:12:30.080,-0.395,-0.015
19:12:30.084,-0.15,-0.02
19:12:30.088,0.105,-0.1
19:12:30.092,0.255,-0.18
19:12:30.096,0.34,-0.17
19:12:30.100,0.21,-0.15
19:12:30.104,-0.02,-0.185
19:12:30.108,0.0,-0.22
19:12:30.112,0.08,-0.195
19:12:30.116,0.165,-0.23
19:12:30.120,0.305,-0.295
19:12:30.124,0.33,-0.33
19:12:30.128,0.13,-0.205
19:12:30.132,0.0,-0.17
19:12:30.136,-0.04,-0.145
19:12:30.140,-0.015,-0.135
19:12:30.144,0.045,-0.135
19:12:30.148,0.235,-0.16
19:12:30.152,0.37,-0.175
19:12:30.156,0.495,-0.14
19:12:30.160,0.255,-0.05
19:12:30.164,0.27,0.015
19:12:30.168,0.145,0.035
19:12:30.172,-0.09,0.045
19:12:30.176,-0.32,0.15
19:12:30.180,-0.35,0.2
19:12:30.184,-0.285,0.15
19:12:30.188,-0.055,0.105
19:12:30.192,0.075,0.07
19:12:30.196,0.14,0.06
19:12:30.200,0.005,0.115
19:12:30.204,-0.1,0.115
19:12:30.208,0.045,-0.035
19:12:30.212,0.43,-0.2
19:12:30.216,1.055,-0.29
19:12:30.220,1.72,-0.48
19:12:30.224,2.0,-0.695
19:12:30.228,1.63,-0.81
19:12:30.232,0.57,-0.69
19:12:30.236,-0.29,-0.19
19:12:30.240,-0.92,0.19
19:12:30.244,-1.135,0.375
19:12:30.248,-1.17,0.505
19:12:30.252,-1.31,0.545
19:12:30.256,-1.435,0.62
19:12:30.260,-1.41,0.695
19:12:30.264,-1.36,0.79
19:12:30.268,-1.36,0.77
19:12:30.272,-1.33,0.75
19:12:30.276,-1.25,0.755
19:12:30.280,-1.305,0.755
19:12:30.284,-1.24,0.7
19:12:30.288,-0.845,0.55
19:12:30.292,-0.745,0.475
19:12:30.296,-0.745,0.355
19:12:30.300,-0.61,0.23
19:12:30.304,-0.46,0.13
19:12:30.308,-0.34,0.015
19:12:30.312,-0.365,0.0
19:12:30.316,-0.41,0.04
19:12:30.320,-0.61,0.135
19:12:30.324,-0.565,0.1
19:12:30.328,-0.49,0.025
19:12:30.332,-0.335,-0.05
19:12:30.336,-0.24,-0.06
19:12:30.340,-0.23,-0.075
19:12:30.344,-0.53,-0.045
19:12:30.348,-0.585,-0.08
19:12:30.352,-0.44,-0.085
19:12:30.356,-0.22,-0.07
19:12:30.360,-0.22,-0.055
19:12:30.364,-0.32,0.0
19:12:30.368,-0.325,-0.025
19:12:30.372,-0.215,-0.09
19:12:30.376,-0.16,-0.09
19:12:30.380,-0.06,-0.08
19:12:30.384,-0.13,-0.015
19:12:30.388,-0.265,0.045
19:12:30.392,0.005,-0.06
19:12:30.396,0.075,-0.105
19:12:30.400,-0.17,-0.055
19:12:30.404,-0.145,-0.06
19:12:30.408,0.03,-0.12
19:12:30.412,-0.025,-0.125
19:12:30.416,-0.105,0.03
19:12:30.420,0.015,0.025
19:12:30.424,0.29,-0.07
19:12:30.428,0.225,-0.165
19:12:30.432,0.105,-0.11
19:12:30.436,0.015,-0.025
19:12:30.440,0.25,-0.155
19:12:30.444,0.29,-0.285
19:12:30.448,0.345,-0.38
19:12:30.452,0.55,-0.39
19:12:30.456,0.58,-0.35
19:12:30.460,0.59,-0.325
19:12:30.464,0.545,-0.285
19:12:30.468,0.31,-0.25
19:12:30.472,0.22,-0.185
19:12:30.476,0.515,-0.345
19:12:30.480,0.795,-0.43
19:12:30.484,0.825,-0.445
19:12:30.488,0.825,-0.42
19:12:30.492,0.69,-0.4
19:12:30.496,0.51,-0.285
19:12:30.500,0.45,-0.225
19:12:30.504,0.73,-0.34
19:12:30.508,0.63,-0.35
19:12:30.512,0.42,-0.29
19:12:30.516,0.72,-0.335
19:12:30.520,0.915,-0.345
19:12:30.524,0.835,-0.32
19:12:30.528,0.73,-0.25
19:12:30.532,0.41,-0.17
19:12:30.536,0.14,-0.055
19:12:30.540,0.15,-0.055
19:12:30.544,0.11,-0.08
19:12:30.548,0.12,-0.125
19:12:30.552,0.285,-0.15
19:12:30.556,0.375,-0.13
19:12:30.560,0.33,-0.055
19:12:30.564,0.4,-0.065
19:12:30.568,0.22,-0.105
19:12:30.572,0.165,-0.06
19:12:30.576,0.295,-0.02
19:12:30.580,0.37,-0.095
19:12:30.584,0.355,-0.065
19:12:30.588,0.36,-0.065
19:12:30.592,0.34,-0.015
19:12:30.596,0.24,0.045
19:12:30.600,0.2,-0.02
19:12:30.604,0.355,-0.02
19:12:30.608,0.31,0.015
19:12:30.612,0.22,0.125
19:12:30.616,0.145,0.255
19:12:30.620,0.175,0.28
19:12:30.624,0.265,0.095
19:12:30.628,0.74,-0.125
19:12:30.632,1.345,-0.28
19:12:30.636,1.945,-0.54
19:12:30.640,2.245,-0.925
19:12:30.644,1.895,-1.225
19:12:30.648,1.395,-1.135
19:12:30.652,0.83,-0.725
19:12:30.656,0.48,-0.405
19:12:30.660,0.45,-0.305
19:12:30.664,0.545,-0.19
19:12:30.668,0.74,-0.155
19:12:30.672,0.83,-0.11
19:12:30.676,0.855,-0.1
19:12:30.680,0.605,-0.025
19:12:30.684,0.15,0.125
19:12:30.688,0.14,0.125
19:12:30.692,0.35,0.115
19:12:30.696,0.295,0.135
19:12:30.700,0.175,0.105
19:12:30.704,0.205,0.005
19:12:30.708,0.47,0.03
19:12:30.712,0.46,0.215
19:12:30.716,0.16,0.31
19:12:30.720,0.04,0.16
19:12:30.724,0.16,0.085
19:12:30.728,0.26,0.08
19:12:30.732,0.225,0.105
19:12:30.736,0.36,0.165
19:12:30.740,0.415,0.25
19:12:30.744,0.58,0.235
19:12:30.748,0.6,0.205
19:12:30.752,0.575,0.135
19:12:30.756,0.365,0.165
19:12:30.760,0.21,0.2
19:12:30.764,0.595,0.2
19:12:30.768,0.8,0.115
19:12:30.772,0.765,0.07
19:12:30.776,0.815,-0.01
19:12:30.780,0.9,-0.02
19:12:30.784,0.75,0.075
19:12:30.788,0.58,0.065
19:12:30.792,0.48,0.03
19:12:30.796,0.485,-0.015
19:12:30.800,0.565,-0.075
19:12:30.804,0.63,0.01
19:12:30.808,0.58,0.13
19:12:30.812,0.635,0.16
19:12:30.816,0.845,0.115
19:12:30.820,0.755,0.165
19:12:30.824,0.74,0.165
19:12:30.828,0.715,0.13
19:12:30.832,0.685,0.115
19:12:30.836,0.78,0.165
19:12:30.840,0.625,0.24
19:12:30.844,0.625,0.23
19:12:30.848,0.785,0.29
19:12:30.852,0.755,0.26
19:12:30.856,0.755,0.22
19:12:30.860,0.75,0.175
19:12:30.864,0.675,0.12
19:12:30.868,0.645,0.19
19:12:30.872,0.54,0.34
19:12:30.876,0.56,0.385
19:12:30.880,0.875,0.34
19:12:30.884,0.86,0.335
19:12:30.888,0.72,0.4
19:12:30.892,0.585,0.28
19:12:30.896,0.53,0.085
19:12:30.900,0.825,0.035
19:12:30.904,1.14,0.04
19:12:30.908,1.145,0.125
19:12:30.912,0.945,0.27
19:12:30.916,0.92,0.23
19:12:30.920,0.785,0.07
19:12:30.924,0.78,0.0
19:12:30.928,0.705,0.075
19:12:30.932,0.82,0.09
19:12:30.936,0.915,0.055
19:12:30.940,1.09,0.115
19:12:30.944,1.095,0.08
19:12:30.948,0.935,0.105
19:12:30.952,0.83,0.13
19:12:30.956,0.68,0.005
19:12:30.960,0.91,-0.005
19:12:30.964,1.015,0.03
19:12:30.968,0.855,0.005
19:12:30.972,0.785,0.005
19:12:30.976,0.95,0.075
19:12:30.980,1.125,0.12
19:12:30.984,1.03,0.105
19:12:30.988,0.945,0.08
19:12:30.992,1.01,0.03
19:12:30.996,1.185,0.05
19:12:31.000,1.035,0.035
19:12:31.004,0.7,0.06
19:12:31.008,0.545,0.04
19:12:31.012,0.735,0.005
19:12:31.016,0.995,0.125
19:12:31.020,1.25,0.155
19:12:31.024,0.905,0.105
19:12:31.028,0.78,0.01
19:12:31.032,1.09,0.06
19:12:31.036,1.225,0.075
19:12:31.040,1.305,0.045
19:12:31.044,1.35,-0.04
19:12:31.048,1.56,-0.155
19:12:31.052,1.36,-0.085
19:12:31.056,0.99,0.06
19:12:31.060,0.725,0.205
19:12:31.064,0.73,0.285
19:12:31.068,0.78,0.3
19:12:31.072,0.94,0.08
19:12:31.076,1.205,-0.17
19:12:31.080,1.705,-0.375
19:12:31.084,2.275,-0.745
19:12:31.088,2.435,-1.08
19:12:31.092,2.06,-1.22
19:12:31.096,1.565,-0.985
19:12:31.100,1.165,-0.56
19:12:31.104,1.235,-0.405
19:12:31.108,1.535,-0.32
19:12:31.112,1.72,-0.2
19:12:31.116,1.65,-0.11
19:12:31.120,1.47,-0.025
19:12:31.124,1.19,0.01
19:12:31.128,0.955,0.0
19:12:31.132,0.865,0.025
19:12:31.136,0.93,0.08
19:12:31.140,1.01,0.13
19:12:31.144,0.965,0.16
19:12:31.148,0.895,0.18
19:12:31.152,1.055,0.19
19:12:31.156,1.05,0.165
19:12:31.160,0.85,0.055
19:12:31.164,0.865,-0.02
19:12:31.168,1.02,-0.005
19:12:31.172,1.19,0.075
19:12:31.176,1.18,0.18
19:12:31.180,1.055,0.18
19:12:31.184,0.905,0.09
19:12:31.188,0.85,-0.04
19:12:31.192,1.03,-0.075
19:12:31.196,1.11,0.03
19:12:31.200,1.055,0.215
19:12:31.204,1.095,0.3
19:12:31.208,0.995,0.19
19:12:31.212,0.96,0.045
19:12:31.216,0.865,-0.105
19:12:31.220,0.88,-0.095
19:12:31.224,1.085,-0.025
19:12:31.228,1.245,0.025
19:12:31.232,1.2,0.075
19:12:31.236,1.095,0.005
19:12:31.240,1.14,-0.035
19:12:31.244,1.17,-0.04
19:12:31.248,1.13,-0.04
19:12:31.252,1.1,0.075
19:12:31.256,1.145,0.19
19:12:31.260,1.1,0.17
19:12:31.264,1.16,0.085
19:12:31.268,1.27,0.065
19:12:31.272,1.135,-0.005
19:12:31.276,1.16,-0.09
19:12:31.280,1.275,0.0
19:12:31.284,1.27,0.105
19:12:31.288,1.305,0.165
19:12:31.292,1.405,0.1
19:12:31.296,1.375,-0.025
19:12:31.300,1.115,-0.05
19:12:31.304,1.055,-0.015
19:12:31.308,1.235,0.065
19:12:31.312,1.29,0.15
19:12:31.316,1.275,0.13
19:12:31.320,1.27,0.08
19:12:31.324,1.305,0.145
19:12:31.328,1.265,0.215
19:12:31.332,1.33,0.185
19:12:31.336,1.415,0.095
19:12:31.340,1.465,0.075
19:12:31.344,1.445,0.035
19:12:31.348,1.47,0.055
19:12:31.352,1.585,0.005
19:12:31.356,1.535,0.01
19:12:31.360,1.425,0.07
19:12:31.364,1.31,0.11
19:12:31.368,1.13,0.09
19:12:31.372,1.105,0.1
19:12:31.376,1.23,0.15
19:12:31.380,1.225,0.12
19:12:31.384,1.23,0.015
19:12:31.388,1.105,-0.045
19:12:31.392,1.055,-0.03
19:12:31.396,1.06,0.04
19:12:31.400,0.97,0.135
19:12:31.404,0.85,0.115
19:12:31.408,0.95,0.04
19:12:31.412,1.16,-0.025
19:12:31.416,1.165,0.035
19:12:31.420,1.12,0.095
19:12:31.424,1.225,0.135
19:12:31.428,1.235,0.08
19:12:31.432,1.045,0.075
19:12:31.436,1.005,0.09
19:12:31.440,0.95,0.14
19:12:31.444,1.005,0.03
19:12:31.448,1.065,-0.08
19:12:31.452,1.22,-0.055
19:12:31.456,1.315,-0.06
19:12:31.460,1.37,-0.03
19:12:31.464,1.265,0.02
19:12:31.468,1.075,0.05
19:12:31.472,1.095,0.04
19:12:31.476,1.075,0.05
19:12:31.480,0.96,0.045
19:12:31.484,1.105,-0.015
19:12:31.488,1.35,-0.04
19:12:31.492,1.35,-0.02
19:12:31.496,1.175,0.0
19:12:31.500,1.065,0.055
19:12:31.504,1.02,0.075
19:12:31.508,1.17,0.095
19:12:31.512,1.12,0.065
19:12:31.516,1.23,0.075
19:12:31.520,1.175,0.115
19:12:31.524,1.01,0.15
19:12:31.528,0.88,0.11
19:12:31.532,0.945,0.075
19:12:31.536,1.11,0.025
19:12:31.540,1.165,-0.06
19:12:31.544,1.09,-0.07
19:12:31.548,0.955,0.02
19:12:31.552,0.89,0.105
19:12:31.556,1.04,0.075
19:12:31.560,1.09,0.005
19:12:31.564,0.96,0.035
19:12:31.568,0.76,0.07
19:12:31.572,0.83,0.095
19:12:31.576,1.055,0.095
19:12:31.580,1.08,0.01
19:12:31.584,0.94,0.01
19:12:31.588,0.86,0.08
19:12:31.592,0.875,0.085
19:12:31.596,0.925,0.09
19:12:31.600,0.81,0.135
19:12:31.604,0.76,0.075
19:12:31.608,0.845,-0.015
19:12:31.612,0.845,-0.02
19:12:31.616,0.885,0.045
19:12:31.620,0.925,0.11
19:12:31.624,0.925,0.195
19:12:31.628,0.905,0.335
19:12:31.632,0.795,0.34
19:12:31.636,0.81,0.165
19:12:31.640,0.855,-0.045
19:12:31.644,0.995,-0.125
19:12:31.648,1.225,-0.265
19:12:31.652,1.67,-0.365
19:12:31.656,2.04,-0.485
19:12:31.660,2.34,-0.85
19:12:31.664,2.445,-1.155
19:12:31.668,2.105,-1.285
19:12:31.672,1.705,-1.055
19:12:31.676,1.29,-0.695
19:12:31.680,1.06,-0.635
19:12:31.684,1.07,-0.475
19:12:31.688,1.195,-0.185
19:12:31.692,1.115,-0.08
19:12:31.696,1.105,-0.035
19:12:31.700,1.09,-0.035
19:12:31.704,0.89,0.005
19:12:31.708,0.73,0.075
19:12:31.712,0.79,0.12
19:12:31.716,0.99,0.155
19:12:31.720,0.975,0.18
19:12:31.724,0.87,0.195
19:12:31.728,0.815,0.16
19:12:31.732,0.81,0.14
19:12:31.736,0.87,0.105
19:12:31.740,0.9,0.095
19:12:31.744,0.895,0.095
19:12:31.748,0.775,0.07
19:12:31.752,0.755,0.1
19:12:31.756,0.755,0.15
19:12:31.760,0.835,0.075
19:12:31.764,0.925,-0.005
19:12:31.768,0.785,-0.005
19:12:31.772,0.685,0.075
19:12:31.776,0.715,0.155
19:12:31.780,0.675,0.105
19:12:31.784,0.7,0.035
19:12:31.788,0.745,0.025
19:12:31.792,0.785,0.095
19:12:31.796,0.73,0.105
19:12:31.800,0.795,0.15
19:12:31.804,0.795,0.255
19:12:31.808,0.7,0.375
19:12:31.812,0.53,0.48
19:12:31.816,0.58,0.41
19:12:31.820,0.655,0.245
19:12:31.824,0.69,0.01
19:12:31.828,0.52,-0.035
19:12:31.832,0.45,-0.025
19:12:31.836,0.54,0.075
19:12:31.840,0.565,0.02
19:12:31.844,0.525,-0.04
19:12:31.848,0.56,-0.11
19:12:31.852,0.49,0.075
19:12:31.856,0.455,0.28
19:12:31.860,0.475,0.425
19:12:31.864,0.405,0.55
19:12:31.868,0.335,0.45
19:12:31.872,0.525,0.0
19:12:31.876,0.69,-0.3
19:12:31.880,0.755,-0.225
19:12:31.884,0.675,-0.03
19:12:31.888,0.665,0.01
19:12:31.892,0.66,0.09
19:12:31.896,0.61,0.09
19:12:31.900,0.595,0.02
19:12:31.904,0.625,-0.175
19:12:31.908,0.735,-0.315
19:12:31.912,0.77,-0.25
19:12:31.916,0.78,-0.115
19:12:31.920,0.735,-0.045
19:12:31.924,0.735,0.03
19:12:31.928,0.69,0.02
19:12:31.932,0.725,-0.025
19:12:31.936,0.795,-0.13
19:12:31.940,0.88,-0.065
19:12:31.944,0.985,0.035
19:12:31.948,0.97,0.08
19:12:31.952,0.815,0.125
19:12:31.956,0.595,0.225
19:12:31.960,0.525,0.155
19:12:31.964,0.555,0.02
19:12:31.968,0.74,-0.025
19:12:31.972,0.825,-0.02
19:12:31.976,0.595,-0.035
19:12:31.980,0.42,-0.065
19:12:31.984,0.46,0.0
19:12:31.988,0.66,0.04
19:12:31.992,0.67,-0.015
19:12:31.996,0.545,-0.02
19:12:32.000,0.42,0.005
19:12:32.004,0.385,-0.005
19:12:32.008,0.425,-0.025
19:12:32.012,0.45,0.0
19:12:32.016,0.485,0.08
19:12:32.020,0.365,0.19
19:12:32.024,0.195,0.17
19:12:32.028,0.2,0.075
19:12:32.032,0.235,-0.1
19:12:32.036,0.495,-0.32
19:12:32.040,1.08,-0.485
19:12:32.044,1.625,-0.68
19:12:32.048,1.96,-0.845
19:12:32.052,2.075,-0.965
19:12:32.056,1.585,-0.815
19:12:32.060,0.945,-0.42
19:12:32.064,0.865,-0.315
19:12:32.068,0.71,-0.34
19:12:32.072,0.645,-0.235
19:12:32.076,0.535,-0.17
19:12:32.080,0.375,-0.08
19:12:32.084,0.365,-0.01
19:12:32.088,0.275,0.03
19:12:32.092,0.15,0.045
19:12:32.096,0.21,0.04
19:12:32.100,0.25,0.05
19:12:32.104,0.125,0.05
19:12:32.108,0.0,0.06
19:12:32.112,-0.065,0.17
19:12:32.116,-0.02,0.21
19:12:32.120,0.055,0.185
19:12:32.124,-0.04,0.005
19:12:32.128,-0.08,-0.13
19:12:32.132,-0.01,-0.16
19:12:32.136,-0.05,-0.07
19:12:32.140,-0.04,-0.045
19:12:32.144,0.025,0.045
19:12:32.148,0.035,0.05
19:12:32.152,0.01,0.06
19:12:32.156,0.06,0.1
19:12:32.160,0.12,0.06
19:12:32.164,-0.065,0.04
19:12:32.168,-0.175,0.07
19:12:32.172,-0.175,0.18
19:12:32.176,-0.15,0.255
19:12:32.180,-0.075,0.405
19:12:32.184,-0.195,0.565
19:12:32.188,-0.38,0.425
19:12:32.192,-0.165,-0.04
19:12:32.196,-0.11,-0.34
19:12:32.200,-0.085,-0.29
19:12:32.204,0.065,-0.185
19:12:32.208,0.12,-0.005
19:12:32.212,0.05,0.05
19:12:32.216,0.0,0.05
19:12:32.220,-0.03,0.015
19:12:32.224,-0.015,0.05
19:12:32.228,-0.01,0.06
19:12:32.232,0.075,0.035
19:12:32.236,0.27,0.03
19:12:32.240,0.1,0.055
19:12:32.244,-0.105,0.11
19:12:32.248,-0.09,0.18
19:12:32.252,-0.065,0.185
19:12:32.256,-0.085,0.08
19:12:32.260,-0.04,0.05
19:12:32.264,-0.01,0.085
19:12:32.268,-0.015,0.025
19:12:32.272,0.045,-0.095
19:12:32.276,0.12,-0.17
19:12:32.280,0.035,-0.18
19:12:32.284,0.07,-0.075
19:12:32.288,0.105,0.095
19:12:32.292,0.265,0.215
19:12:32.296,0.225,0.2
19:12:32.300,0.17,0.005
19:12:32.304,0.225,-0.13
19:12:32.308,0.29,-0.205
19:12:32.312,0.375,-0.155
19:12:32.316,0.38,-0.08
19:12:32.320,0.23,-0.045
19:12:32.324,0.11,-0.035
19:12:32.328,0.045,0.02
19:12:32.332,-0.07,0.09
19:12:32.336,0.05,0.035
19:12:32.340,0.09,0.05
19:12:32.344,-0.03,0.14
19:12:32.348,-0.245,0.125
19:12:32.352,-0.11,0.04
19:12:32.356,0.02,0.055
19:12:32.360,-0.115,0.055
19:12:32.364,-0.265,0.085
19:12:32.368,-0.355,0.145
19:12:32.372,-0.215,0.135
19:12:32.376,-0.125,0.065
19:12:32.380,-0.22,-0.055
19:12:32.384,-0.335,-0.02
19:12:32.388,-0.335,0.14
19:12:32.392,-0.36,0.17
19:12:32.396,-0.32,0.11
19:12:32.400,-0.215,0.04
19:12:32.404,-0.025,-0.015
19:12:32.408,-0.1,0.05
19:12:32.412,-0.235,0.09
19:12:32.416,-0.25,0.025
19:12:32.420,-0.23,-0.04
19:12:32.424,-0.32,0.0
19:12:32.428,-0.345,0.07
19:12:32.432,-0.265,0.05
19:12:32.436,-0.345,0.015
19:12:32.440,-0.385,0.0
19:12:32.444,-0.22,0.015
19:12:32.448,-0.335,0.035
19:12:32.452,-0.52,0.005
19:12:32.456,-0.46,0.005
19:12:32.460,-0.325,0.025
19:12:32.464,-0.365,0.01
19:12:32.468,-0.37,0.035
19:12:32.472,-0.305,0.09
19:12:32.476,-0.295,0.175
19:12:32.480,-0.405,0.22
19:12:32.484,-0.49,0.105
19:12:32.488,-0.655,0.06
19:12:32.492,-0.76,0.075
19:12:32.496,-0.66,0.095
19:12:32.500,-0.58,0.08
19:12:32.504,-0.59,0.035
19:12:32.508,-0.605,0.015
19:12:32.512,-0.58,0.0
19:12:32.516,-0.515,-0.08
19:12:32.520,-0.38,0.03
19:12:32.524,-0.295,0.145
19:12:32.528,-0.175,0.035
19:12:32.532,-0.21,-0.065
19:12:32.536,-0.28,-0.03
19:12:32.540,-0.4,0.055
19:12:32.544,-0.555,0.01
19:12:32.548,-0.585,0.03
19:12:32.552,-0.445,0.07
19:12:32.556,-0.385,0.115
19:12:32.560,-0.34,0.2
19:12:32.564,-0.3,0.255
19:12:32.568,-0.35,0.175
19:12:32.572,-0.425,-0.05
19:12:32.576,-0.27,-0.17
19:12:32.580,-0.28,-0.145
19:12:32.584,-0.295,-0.06
19:12:32.588,-0.24,0.015
19:12:32.592,-0.395,0.065
19:12:32.596,-0.49,0.09
19:12:32.600,-0.57,0.14
19:12:32.604,-0.62,0.2
19:12:32.608,-0.555,0.205
19:12:32.612,-0.5,0.025
19:12:32.616,-0.49,-0.065
19:12:32.620,-0.525,0.035
19:12:32.624,-0.47,0.135
19:12:32.628,-0.46,0.095
19:12:32.632,-0.4,-0.05
19:12:32.636,-0.475,-0.08
19:12:32.640,-0.43,0.09
19:12:32.644,-0.33,0.145
19:12:32.648,-0.56,0.06
19:12:32.652,-0.72,-0.03
19:12:32.656,-0.3,-0.16
19:12:32.660,0.405,-0.22
19:12:32.664,1.185,-0.4
19:12:32.668,1.62,-0.715
19:12:32.672,1.34,-0.98
19:12:32.676,0.595,-0.905
19:12:32.680,-0.095,-0.35
19:12:32.684,-0.54,0.0
19:12:32.688,-0.615,0.005
19:12:32.692,-0.745,-0.075
19:12:32.696,-0.595,-0.23
19:12:32.700,-0.275,-0.235
19:12:32.704,-0.075,-0.155
19:12:32.708,-0.175,-0.14
19:12:32.712,-0.55,-0.055
19:12:32.716,-0.86,0.01
19:12:32.720,-0.85,-0.035
19:12:32.724,-0.705,-0.1
19:12:32.728,-0.605,-0.055
19:12:32.732,-0.56,0.03
19:12:32.736,-0.645,0.105
19:12:32.740,-0.79,0.175
19:12:32.744,-0.935,0.135
19:12:32.748,-0.755,0.07
19:12:32.752,-0.5,0.13
19:12:32.756,-0.445,0.095
19:12:32.760,-0.38,0.01
19:12:32.764,-0.43,-0.035
19:12:32.768,-0.535,0.01
19:12:32.772,-0.425,-0.015
19:12:32.776,-0.38,-0.035
19:12:32.780,-0.475,0.04
19:12:32.784,-0.52,0.065
19:12:32.788,-0.485,0.07
19:12:32.792,-0.495,0.14
19:12:32.796,-0.625,0.2
19:12:32.800,-0.56,0.115
19:12:32.804,-0.465,-0.02
19:12:32.808,-0.375,0.04
19:12:32.812,-0.355,0.13
19:12:32.816,-0.355,0.08
19:12:32.820,-0.28,0.025
19:12:32.824,-0.31,0.015
19:12:32.828,-0.38,0.075
19:12:32.832,-0.42,0.07
19:12:32.836,-0.43,0.06
19:12:32.840,-0.245,0.035
19:12:32.844,-0.27,-0.03
19:12:32.848,-0.44,0.075
19:12:32.852,-0.42,0.205
19:12:32.856,-0.27,0.15
19:12:32.860,-0.175,0.005
19:12:32.864,-0.44,-0.03
19:12:32.868,-0.645,0.01
19:12:32.872,-0.495,-0.015
19:12:32.876,-0.405,-0.01
19:12:32.880,-0.505,-0.01
19:12:32.884,-0.475,-0.1
19:12:32.888,-0.3,-0.25
19:12:32.892,-0.19,-0.19
19:12:32.896,-0.17,-0.125
19:12:32.900,-0.415,-0.07
19:12:32.904,-0.6,-0.055
19:12:32.908,-0.525,-0.04
19:12:32.912,-0.53,-0.04
19:12:32.916,-0.44,-0.075
19:12:32.920,-0.32,-0.08
19:12:32.924,-0.39,0.005
19:12:32.928,-0.48,-0.01
19:12:32.932,-0.395,-0.07
19:12:32.936,-0.385,-0.1
19:12:32.940,-0.31,-0.105
19:12:32.944,-0.15,-0.13
19:12:32.948,-0.02,-0.16
19:12:32.952,0.1,-0.225
19:12:32.956,-0.05,-0.22
19:12:32.960,-0.295,-0.22
19:12:32.964,-0.175,-0.17
19:12:32.968,0.055,0.0
19:12:32.972,0.04,0.08
19:12:32.976,0.035,0.005
19:12:32.980,0.075,-0.115
19:12:32.984,0.095,-0.035
19:12:32.988,0.16,0.09
19:12:32.992,0.26,0.14
19:12:32.996,0.235,0.02
19:12:33.000,0.135,-0.115
19:12:33.004,-0.14,-0.1
19:12:33.008,-0.13,-0.04
19:12:33.012,-0.04,0.005
19:12:33.016,-0.06,0.045
19:12:33.020,-0.19,0.245
19:12:33.024,-0.11,0.315
19:12:33.028,-0.09,0.08
19:12:33.032,-0.04,-0.14
19:12:33.036,-0.035,-0.165
19:12:33.040,-0.01,-0.02
19:12:33.044,0.0,0.035
19:12:33.048,-0.06,0.08
19:12:33.052,-0.035,0.08
19:12:33.056,-0.1,-0.02
19:12:33.060,-0.06,-0.06
19:12:33.064,0.015,0.05
19:12:33.068,-0.025,0.21
19:12:33.072,-0.02,0.135
19:12:33.076,0.025,-0.12
19:12:33.080,0.025,-0.215
19:12:33.084,-0.045,-0.13
19:12:33.088,-0.105,-0.07
19:12:33.092,-0.29,-0.085
19:12:33.096,-0.225,-0.07
19:12:33.100,-0.1,-0.035
19:12:33.104,-0.095,-0.005
19:12:33.108,-0.125,-0.005
19:12:33.112,-0.23,0.01
19:12:33.116,-0.165,0.04
19:12:33.120,-0.17,0.075
19:12:33.124,-0.26,0.065
19:12:33.128,-0.28,0.02
19:12:33.132,-0.33,0.02
19:12:33.136,-0.48,0.07
19:12:33.140,-0.455,0.03
19:12:33.144,-0.435,0.08
19:12:33.148,-0.35,0.115
19:12:33.152,-0.49,0.145
19:12:33.156,-0.55,0.22
19:12:33.160,-0.41,0.15
19:12:33.164,-0.415,0.05
19:12:33.168,-0.375,0.0
19:12:33.172,-0.3,0.055
19:12:33.176,-0.465,0.215
19:12:33.180,-0.43,0.19
19:12:33.184,-0.195,0.075
19:12:33.188,-0.27,-0.005
19:12:33.192,-0.445,0.025
19:12:33.196,-0.295,0.06
19:12:33.200,-0.15,0.085
19:12:33.204,-0.19,0.07
19:12:33.208,-0.165,0.06
19:12:33.212,-0.125,0.045
19:12:33.216,-0.31,0.23
19:12:33.220,-0.37,0.255
19:12:33.224,-0.205,0.055
19:12:33.228,-0.18,-0.07
19:12:33.232,-0.16,-0.02
19:12:33.236,-0.15,0.095
19:12:33.240,-0.285,0.07
19:12:33.244,-0.2,0.075
19:12:33.248,-0.305,0.205
19:12:33.252,-0.43,0.13
19:12:33.256,-0.31,0.025
19:12:33.260,-0.085,0.005
19:12:33.264,0.105,0.03
19:12:33.268,-0.19,0.14
19:12:33.272,-0.545,0.165
19:12:33.276,-0.52,0.04
19:12:33.280,-0.33,0.03
19:12:33.284,-0.225,0.055
19:12:33.288,-0.18,-0.015
19:12:33.292,-0.18,-0.065
19:12:33.296,-0.065,-0.05
19:12:33.300,-0.105,-0.005
19:12:33.304,-0.35,0.045
19:12:33.308,-0.31,0.065
19:12:33.312,-0.36,0.12
19:12:33.316,-0.54,0.07
19:12:33.320,-0.355,0.025
19:12:33.324,-0.165,0.04
19:12:33.328,-0.25,0.035
19:12:33.332,-0.425,0.06
19:12:33.336,-0.46,0.055
19:12:33.340,-0.45,0.105
19:12:33.344,-0.62,0.135
19:12:33.348,-0.59,0.11
19:12:33.352,-0.49,0.095
19:12:33.356,-0.405,0.085
19:12:33.360,-0.305,0.04
19:12:33.364,-0.235,0.09
19:12:33.368,-0.575,0.125
19:12:33.372,-0.625,0.06
19:12:33.376,-0.195,-0.085
19:12:33.380,0.725,-0.255
19:12:33.384,1.42,-0.445
19:12:33.388,1.755,-0.675
19:12:33.392,1.555,-0.795
19:12:33.396,0.85,-0.65
19:12:33.400,-0.06,-0.29
19:12:33.404,-0.415,-0.095
19:12:33.408,-0.205,-0.155
19:12:33.412,-0.195,-0.115
19:12:33.416,-0.33,-0.085
19:12:33.420,-0.375,-0.05
19:12:33.424,-0.385,0.005
19:12:33.428,-0.355,0.015
19:12:33.432,-0.445,0.04
19:12:33.436,-0.515,0.03
19:12:33.440,-0.535,0.01
19:12:33.444,-0.335,0.0
19:12:33.448,-0.115,0.03
19:12:33.452,-0.18,0.065
19:12:33.456,-0.225,0.0
19:12:33.460,-0.25,-0.015
19:12:33.464,-0.35,0.03
19:12:33.468,-0.505,0.055
19:12:33.472,-0.49,0.105
19:12:33.476,-0.285,0.085
19:12:33.480,-0.095,0.045
19:12:33.484,0.21,-0.03
19:12:33.488,-0.16,0.04
19:12:33.492,-0.82,0.12
19:12:33.496,-0.89,0.14
19:12:33.500,-0.765,0.1
19:12:33.504,-0.785,0.045
19:12:33.508,-0.72,0.095
19:12:33.512,-0.42,0.08
19:12:33.516,-0.355,0.06
19:12:33.520,-0.365,0.045
19:12:33.524,-0.35,0.08
19:12:33.528,-0.2,0.04
19:12:33.532,-0.41,-0.015
19:12:33.536,-0.69,0.015
19:12:33.540,-0.73,0.005
19:12:33.544,-0.755,0.1
19:12:33.548,-0.555,0.15
19:12:33.552,-0.305,0.12
19:12:33.556,-0.24,-0.03
19:12:33.560,0.005,-0.07
19:12:33.564,-0.25,-0.03
19:12:33.568,-0.78,0.1
19:12:33.572,-0.915,0.135
19:12:33.576,-0.825,0.155
19:12:33.580,-0.655,0.19
19:12:33.584,-0.6,0.19
19:12:33.588,-0.64,0.14
19:12:33.592,-0.72,0.15
19:12:33.596,-0.79,0.105
19:12:33.600,-0.63,0.125
19:12:33.604,-0.605,0.13
19:12:33.608,-0.52,0.075
19:12:33.612,-0.23,0.03
19:12:33.616,-0.05,0.04
19:12:33.620,-0.165,0.1
19:12:33.624,-0.52,0.235
19:12:33.628,-0.79,0.29
19:12:33.632,-0.705,0.215
19:12:33.636,-0.26,0.12
19:12:33.640,0.035,0.055
19:12:33.644,-0.19,0.135
19:12:33.648,-0.4,0.24
19:12:33.652,-0.44,0.165
19:12:33.656,-0.41,0.095
19:12:33.660,-0.145,0.09
19:12:33.664,-0.045,0.095
19:12:33.668,-0.04,0.085
19:12:33.672,-0.055,0.125
19:12:33.676,-0.07,0.135
19:12:33.680,0.025,0.12
19:12:33.684,0.05,0.105
19:12:33.688,-0.09,0.07
19:12:33.692,-0.065,0.05
19:12:33.696,-0.04,0.05
19:12:33.700,-0.11,0.08
19:12:33.704,-0.13,0.145
19:12:33.708,0.01,0.12
19:12:33.712,0.005,0.115
19:12:33.716,-0.06,0.145
19:12:33.720,-0.075,0.055
19:12:33.724,-0.125,0.025
19:12:33.728,-0.15,-0.025
19:12:33.732,-0.055,-0.04
19:12:33.736,-0.155,0.185
19:12:33.740,-0.285,0.22
19:12:33.744,-0.23,0.19
19:12:33.748,-0.285,0.16
19:12:33.752,-0.335,0.185
19:12:33.756,-0.465,0.2
19:12:33.760,-0.46,0.215
19:12:33.764,-0.255,0.215
19:12:33.768,-0.33,0.24
19:12:33.772,-0.155,0.1
19:12:33.776,0.38,-0.16
19:12:33.780,0.85,-0.41
19:12:33.784,1.415,-0.59
19:12:33.788,1.69,-0.81
19:12:33.792,1.345,-0.99
19:12:33.796,0.95,-0.805
19:12:33.800,0.23,-0.28
19:12:33.804,-0.56,0.0
19:12:33.808,-0.76,0.085
19:12:33.812,-0.465,0.145
19:12:33.816,-0.16,0.125
19:12:33.820,-0.025,0.055
19:12:33.824,-0.115,0.115
19:12:33.828,-0.395,0.135
19:12:33.832,-0.505,0.205
19:12:33.836,-0.59,0.205
19:12:33.840,-0.55,0.125
19:12:33.844,-0.23,0.105
19:12:33.848,-0.1,0.085
19:12:33.852,-0.195,0.095
19:12:33.856,-0.395,0.135
19:12:33.860,-0.535,0.225
19:12:33.864,-0.6,0.33
19:12:33.868,-0.585,0.295
19:12:33.872,-0.52,0.2
19:12:33.876,-0.405,0.16
19:12:33.880,-0.205,0.145
19:12:33.884,-0.195,0.19
19:12:33.888,-0.34,0.18
19:12:33.892,-0.19,0.18
19:12:33.896,-0.185,0.16
19:12:33.900,-0.26,0.14
19:12:33.904,-0.325,0.16
19:12:33.908,-0.21,0.18
19:12:33.912,-0.225,0.13
19:12:33.916,-0.215,0.105
19:12:33.920,-0.065,0.105
19:12:33.924,-0.15,0.13
19:12:33.928,-0.205,0.095
19:12:33.932,-0.095,0.005
19:12:33.936,-0.085,0.005
19:12:33.940,-0.135,0.04
19:12:33.944,-0.19,0.035
19:12:33.948,-0.06,0.11
19:12:33.952,0.005,0.18
19:12:33.956,-0.165,0.18
19:12:33.960,-0.305,0.155
19:12:33.964,-0.345,0.145
19:12:33.968,-0.35,0.165
19:12:33.972,-0.26,0.17
19:12:33.976,-0.13,0.17
19:12:33.980,-0.21,0.145
19:12:33.984,-0.16,0.175
19:12:33.988,-0.18,0.195
19:12:33.992,-0.075,0.12
19:12:33.996,0.03,0.055
19:12:34.000,-0.065,0.09
19:12:34.004,-0.13,0.125
19:12:34.008,-0.095,0.1
19:12:34.012,-0.11,0.12
19:12:34.016,-0.06,0.095
19:12:34.020,-0.065,0.11
19:12:34.024,-0.045,0.075
19:12:34.028,0.0,0.005
19:12:34.032,0.03,-0.035
19:12:34.036,0.2,-0.065
19:12:34.040,0.2,-0.04
19:12:34.044,0.01,-0.04
19:12:34.048,0.05,0.0
19:12:34.052,0.135,0.065
19:12:34.056,0.265,0.06
19:12:34.060,0.195,0.005
19:12:34.064,0.125,0.03
19:12:34.068,0.11,0.095
19:12:34.072,0.085,0.195
19:12:34.076,0.1,0.175
19:12:34.080,0.085,0.145
19:12:34.084,0.04,0.175
19:12:34.088,-0.04,0.155
19:12:34.092,-0.055,0.1
19:12:34.096,-0.005,0.06
19:12:34.100,0.13,0.045
19:12:34.104,0.105,0.13
19:12:34.108,0.035,0.18
19:12:34.112,-0.02,0.115
19:12:34.116,0.015,0.085
19:12:34.120,-0.045,0.135
19:12:34.124,-0.16,0.13
19:12:34.128,-0.19,0.18
19:12:34.132,-0.18,0.225
19:12:34.136,-0.275,0.19
19:12:34.140,-0.12,0.195
19:12:34.144,0.01,0.14
19:12:34.148,-0.155,0.1
19:12:34.152,-0.215,0.15
19:12:34.156,-0.085,0.135
19:12:34.160,-0.135,0.175
19:12:34.164,-0.255,0.18
19:12:34.168,-0.405,0.2
19:12:34.172,-0.38,0.15
19:12:34.176,-0.16,0.17
19:12:34.180,-0.18,0.13
19:12:34.184,-0.285,0.18
19:12:34.188,-0.265,0.19
19:12:34.192,-0.35,0.185
19:12:34.196,-0.24,0.07
19:12:34.200,-0.175,0.125
19:12:34.204,-0.23,0.135
19:12:34.208,-0.285,0.145
19:12:34.212,-0.27,0.11
19:12:34.216,-0.365,0.105
19:12:34.220,-0.32,0.05
19:12:34.224,-0.26,-0.02
19:12:34.228,-0.05,-0.08
19:12:34.232,0.025,-0.115
19:12:34.236,-0.1,-0.07
19:12:34.240,-0.355,0.085
19:12:34.244,-0.66,0.145
19:12:34.248,-0.71,0.205
19:12:34.252,-0.675,0.18
19:12:34.256,-0.59,0.16
19:12:34.260,-0.525,0.19
19:12:34.264,-0.505,0.225
19:12:34.268,-0.44,0.215
19:12:34.272,-0.335,0.2
19:12:34.276,-0.25,0.16
19:12:34.280,-0.26,0.11
19:12:34.284,-0.28,0.195
19:12:34.288,-0.21,0.25
19:12:34.292,-0.135,0.21
19:12:34.296,-0.21,0.21
19:12:34.300,-0.22,0.19
19:12:34.304,-0.2,0.205
19:12:34.308,-0.195,0.175
19:12:34.312,-0.105,0.185
19:12:34.316,-0.17,0.21
19:12:34.320,-0.315,0.33
19:12:34.324,-0.33,0.34
19:12:34.328,-0.205,0.29
19:12:34.332,-0.02,0.06
19:12:34.336,0.34,-0.065
19:12:34.340,0.99,-0.105
19:12:34.344,1.535,-0.265
19:12:34.348,1.89,-0.53
19:12:34.352,1.69,-0.74
19:12:34.356,0.975,-0.68
19:12:34.360,0.205,-0.315
19:12:34.364,-0.315,-0.135
19:12:34.368,-0.405,-0.07
19:12:34.372,-0.09,0.045
19:12:34.376,0.035,0.015
19:12:34.380,0.0,0.025
19:12:34.384,-0.065,0.08
19:12:34.388,-0.075,0.11
19:12:34.392,-0.06,0.14
19:12:34.396,-0.01,0.14
19:12:34.400,-0.13,0.13
19:12:34.404,-0.14,0.1
19:12:34.408,-0.05,0.11
19:12:34.412,-0.095,0.12
19:12:34.416,-0.205,0.15
19:12:34.420,-0.275,0.19
19:12:34.424,-0.25,0.17
19:12:34.428,-0.295,0.16
19:12:34.432,-0.195,0.185
19:12:34.436,-0.095,0.18
19:12:34.440,-0.095,0.16
19:12:34.444,-0.2,0.155
19:12:34.448,-0.34,0.2
19:12:34.452,-0.39,0.23
19:12:34.456,-0.415,0.185
19:12:34.460,-0.395,0.17
19:12:34.464,-0.34,0.17
19:12:34.468,-0.425,0.21
19:12:34.472,-0.565,0.235
19:12:34.476,-0.605,0.25
19:12:34.480,-0.525,0.23
19:12:34.484,-0.475,0.21
19:12:34.488,-0.44,0.23
19:12:34.492,-0.435,0.235
19:12:34.496,-0.48,0.27
19:12:34.500,-0.41,0.33
19:12:34.504,-0.335,0.315
19:12:34.508,-0.28,0.26
19:12:34.512,-0.19,0.195
19:12:34.516,-0.15,0.175
19:12:34.520,-0.17,0.225
19:12:34.524,-0.245,0.295
19:12:34.528,-0.17,0.295
19:12:34.532,-0.07,0.335
19:12:34.536,-0.085,0.305
19:12:34.540,-0.085,0.285
19:12:34.544,-0.12,0.27
19:12:34.548,-0.145,0.25
19:12:34.552,-0.035,0.265
19:12:34.556,0.055,0.29
19:12:34.560,0.15,0.255
19:12:34.564,0.215,0.24
19:12:34.568,0.27,0.185
19:12:34.572,0.17,0.17
19:12:34.576,-0.135,0.235
19:12:34.580,-0.39,0.275
19:12:34.584,-0.355,0.26
19:12:34.588,-0.14,0.215
19:12:34.592,0.05,0.135
19:12:34.596,0.16,0.135
19:12:34.600,-0.02,0.225
19:12:34.604,-0.3,0.23
19:12:34.608,-0.31,0.22
19:12:34.612,-0.18,0.24
19:12:34.616,-0.115,0.25
19:12:34.620,0.05,0.195
19:12:34.624,0.295,0.135
19:12:34.628,0.28,0.1
19:12:34.632,0.075,0.135
19:12:34.636,0.03,0.125
19:12:34.640,0.035,0.15
19:12:34.644,0.07,0.185
19:12:34.648,0.005,0.265
19:12:34.652,0.035,0.245
19:12:34.656,-0.005,0.255
19:12:34.660,-0.03,0.195
19:12:34.664,-0.03,0.17
19:12:34.668,-0.11,0.225
19:12:34.672,-0.15,0.28
19:12:34.676,-0.11,0.285
19:12:34.680,-0.16,0.26
19:12:34.684,-0.295,0.21
19:12:34.688,-0.3,0.26
19:12:34.692,-0.32,0.23
19:12:34.696,-0.315,0.225
19:12:34.700,-0.23,0.255
19:12:34.704,-0.095,0.24
19:12:34.708,-0.18,0.225
19:12:34.712,-0.345,0.215
19:12:34.716,-0.3,0.21
19:12:34.720,-0.13,0.23
19:12:34.724,0.095,0.245
19:12:34.728,0.275,0.265
19:12:34.732,0.19,0.315
19:12:34.736,-0.13,0.41
19:12:34.740,-0.415,0.455
19:12:34.744,-0.255,0.305
19:12:34.748,-0.19,0.255
19:12:34.752,-0.14,0.37
19:12:34.756,-0.005,0.53
19:12:34.760,0.27,0.58
19:12:34.764,0.59,0.42
19:12:34.768,1.045,0.06
19:12:34.772,1.285,-0.325
19:12:34.776,1.43,-0.55
19:12:34.780,1.185,-0.835
19:12:34.784,0.265,-1.03
19:12:34.788,-0.665,-1.03
19:12:34.792,-1.48,-0.95
19:12:34.796,-1.9,-0.585
19:12:34.800,-1.87,-0.215
19:12:34.804,-1.735,0.15
19:12:34.808,-1.41,0.475
19:12:34.812,-1.095,0.51
19:12:34.816,-0.99,0.48
19:12:34.820,-0.76,0.435
19:12:34.824,-0.515,0.37
19:12:34.828,-0.425,0.265
19:12:34.832,-0.31,0.295
19:12:34.836,-0.32,0.315
19:12:34.840,-0.345,0.325
19:12:34.844,-0.34,0.235
19:12:34.848,-0.27,0.215
19:12:34.852,-0.26,0.25
19:12:34.856,-0.305,0.255
19:12:34.860,-0.285,0.28
19:12:34.864,-0.295,0.31
19:12:34.868,-0.22,0.24
19:12:34.872,-0.215,0.23
19:12:34.876,-0.215,0.265
19:12:34.880,-0.265,0.26
19:12:34.884,-0.225,0.275
19:12:34.888,-0.225,0.315
19:12:34.892,-0.37,0.315
19:12:34.896,-0.205,0.23
19:12:34.900,0.015,0.205
19:12:34.904,-0.065,0.26
19:12:34.908,-0.295,0.295
19:12:34.912,-0.465,0.28
19:12:34.916,-0.48,0.31
19:12:34.920,-0.435,0.31
19:12:34.924,-0.405,0.315
19:12:34.928,-0.325,0.355
19:12:34.932,-0.19,0.33
19:12:34.936,-0.1,0.32
19:12:34.940,0.115,0.31
19:12:34.944,0.255,0.37
19:12:34.948,0.235,0.365
19:12:34.952,0.195,0.38
19:12:34.956,0.235,0.405
19:12:34.960,0.295,0.47
19:12:34.964,0.34,0.495
19:12:34.968,0.555,0.48
19:12:34.972,0.615,0.505
19:12:34.976,0.585,0.455
19:12:34.980,0.795,0.38
19:12:34.984,0.95,0.35
19:12:34.988,0.885,0.35
19:12:34.992,0.89,0.36
19:12:34.996,1.035,0.335
19:12:35.000,1.035,0.34
19:12:35.004,1.125,0.38
19:12:35.008,1.125,0.375
19:12:35.012,1.105,0.315
19:12:35.016,1.12,0.35
19:12:35.020,0.85,0.425
19:12:35.024,0.68,0.38
19:12:35.028,0.635,0.28
19:12:35.032,0.735,0.225
19:12:35.036,0.66,0.17
19:12:35.040,0.585,0.125
19:12:35.044,0.44,0.105
19:12:35.048,0.4,0.12
19:12:35.052,0.385,0.125
19:12:35.056,0.3,0.1
19:12:35.060,0.235,0.11
19:12:35.064,0.06,0.16
19:12:35.068,-0.005,0.21
19:12:35.072,-0.005,0.265
19:12:35.076,-0.085,0.29
19:12:35.080,-0.055,0.265
19:12:35.084,-0.105,0.27
19:12:35.088,-0.12,0.235
19:12:35.092,-0.17,0.25
19:12:35.096,-0.245,0.28
19:12:35.100,-0.175,0.28
19:12:35.104,-0.115,0.255
19:12:35.108,-0.21,0.245
19:12:35.112,-0.16,0.21
19:12:35.116,-0.125,0.18
19:12:35.120,-0.295,0.245
19:12:35.124,-0.38,0.27
19:12:35.128,-0.31,0.24
19:12:35.132,-0.215,0.175
19:12:35.136,-0.365,0.175
19:12:35.140,-0.395,0.22
19:12:35.144,-0.365,0.285
19:12:35.148,-0.455,0.28
19:12:35.152,-0.395,0.225
19:12:35.156,-0.155,0.21
19:12:35.160,0.035,0.185
19:12:35.164,-0.025,0.16
19:12:35.168,-0.17,0.235
19:12:35.172,-0.315,0.275
19:12:35.176,-0.235,0.3
19:12:35.180,-0.23,0.3
19:12:35.184,-0.23,0.32
19:12:35.188,-0.095,0.3
19:12:35.192,0.015,0.215
19:12:35.196,0.06,0.22
19:12:35.200,0.05,0.255
19:12:35.204,0.155,0.24
19:12:35.208,0.18,0.23
19:12:35.212,-0.105,0.225
19:12:35.216,-0.21,0.255
19:12:35.220,-0.22,0.295
19:12:35.224,-0.195,0.285
19:12:35.228,-0.195,0.265
19:12:35.232,-0.15,0.24
19:12:35.236,-0.17,0.27
19:12:35.240,-0.12,0.255
19:12:35.244,-0.035,0.2
19:12:35.248,-0.095,0.145
19:12:35.252,-0.155,0.18
19:12:35.256,-0.085,0.175
19:12:35.260,-0.075,0.16
19:12:35.264,-0.16,0.17
19:12:35.268,-0.27,0.26
19:12:35.272,-0.22,0.36
19:12:35.276,-0.235,0.27
19:12:35.280,0.005,0.1
19:12:35.284,0.61,-0.055
19:12:35.288,1.185,-0.26
19:12:35.292,1.72,-0.5
19:12:35.296,1.92,-0.76
19:12:35.300,1.43,-0.825
19:12:35.304,0.755,-0.555
19:12:35.308,0.18,-0.15
19:12:35.312,0.01,-0.04
19:12:35.316,0.07,0.02
19:12:35.320,0.175,0.1
19:12:35.324,0.015,0.19
19:12:35.328,-0.115,0.16
19:12:35.332,-0.17,0.155
19:12:35.336,-0.245,0.17
19:12:35.340,-0.235,0.195
19:12:35.344,-0.34,0.155
19:12:35.348,-0.485,0.165
19:12:35.352,-0.41,0.165
19:12:35.356,-0.245,0.18
19:12:35.360,-0.38,0.175
19:12:35.364,-0.4,0.16
19:12:35.368,-0.275,0.2
19:12:35.372,-0.06,0.18
19:12:35.376,0.205,0.235
19:12:35.380,0.235,0.325
19:12:35.384,-0.1,0.325
19:12:35.388,-0.39,0.285
19:12:35.392,-0.515,0.3
19:12:35.396,-0.345,0.27
19:12:35.400,-0.265,0.315
19:12:35.404,-0.12,0.295
19:12:35.408,0.0,0.28
19:12:35.412,0.035,0.27
19:12:35.416,0.125,0.215
19:12:35.420,0.19,0.205
19:12:35.424,-0.015,0.19
19:12:35.428,-0.115,0.235
19:12:35.432,-0.175,0.26
19:12:35.436,-0.285,0.25
19:12:35.440,-0.39,0.28
19:12:35.444,-0.34,0.31
19:12:35.448,-0.24,0.265
19:12:35.452,-0.2,0.23
19:12:35.456,-0.135,0.19
19:12:35.460,-0.14,0.185
19:12:35.464,-0.215,0.205
19:12:35.468,-0.18,0.245
19:12:35.472,-0.155,0.265
19:12:35.476,-0.255,0.275
19:12:35.480,-0.245,0.265
19:12:35.484,-0.23,0.265
19:12:35.488,-0.245,0.24
19:12:35.492,-0.22,0.205
19:12:35.496,-0.115,0.21
19:12:35.500,-0.155,0.205
19:12:35.504,-0.195,0.195
19:12:35.508,-0.15,0.2
19:12:35.512,-0.18,0.225
19:12:35.516,-0.25,0.235
19:12:35.520,-0.36,0.26
19:12:35.524,-0.325,0.21
19:12:35.528,-0.14,0.18
19:12:35.532,-0.135,0.18
19:12:35.536,-0.085,0.2
19:12:35.540,-0.04,0.21
19:12:35.544,-0.08,0.19
19:12:35.548,-0.11,0.18
19:12:35.552,-0.23,0.235
19:12:35.556,-0.33,0.285
19:12:35.560,-0.2,0.295
19:12:35.564,0.0,0.23
19:12:35.568,0.02,0.13
19:12:35.572,-0.11,0.15
19:12:35.576,-0.05,0.185
19:12:35.580,-0.065,0.29
19:12:35.584,-0.075,0.325
19:12:35.588,-0.065,0.325
19:12:35.592,0.025,0.295
19:12:35.596,0.045,0.275
19:12:35.600,0.1,0.32
19:12:35.604,0.09,0.355
19:12:35.608,0.1,0.345
19:12:35.612,0.09,0.305
19:12:35.616,0.11,0.35
19:12:35.620,0.105,0.36
19:12:35.624,0.085,0.345
19:12:35.628,0.285,0.285
19:12:35.632,0.365,0.24
19:12:35.636,0.235,0.265
19:12:35.640,0.115,0.245
19:12:35.644,0.11,0.24
19:12:35.648,0.23,0.2
19:12:35.652,0.59,0.16
19:12:35.656,0.685,0.125
19:12:35.660,0.365,0.21
19:12:35.664,-0.195,0.3
19:12:35.668,-0.345,0.275
19:12:35.672,-0.22,0.245
19:12:35.676,-0.205,0.24
19:12:35.680,0.005,0.165
19:12:35.684,0.06,0.115
19:12:35.688,0.21,0.09
19:12:35.692,0.29,0.115
19:12:35.696,0.065,0.18
19:12:35.700,-0.305,0.205
19:12:35.704,-0.155,0.19
19:12:35.708,0.12,0.155
19:12:35.712,-0.085,0.2
19:12:35.716,-0.465,0.26
19:12:35.720,-0.445,0.29
19:12:35.724,-0.285,0.22
19:12:35.728,-0.24,0.245
19:12:35.732,-0.305,0.245
19:12:35.736,-0.275,0.24
19:12:35.740,-0.19,0.26
19:12:35.744,-0.24,0.275
19:12:35.748,-0.255,0.24
19:12:35.752,-0.295,0.255
19:12:35.756,-0.345,0.32
19:12:35.760,-0.34,0.28
19:12:35.764,-0.415,0.29
19:12:35.768,-0.405,0.255
19:12:35.772,-0.365,0.23
19:12:35.776,-0.4,0.21
19:12:35.780,-0.455,0.235
19:12:35.784,-0.38,0.22
19:12:35.788,-0.36,0.175
19:12:35.792,-0.275,0.19
19:12:35.796,-0.345,0.255
19:12:35.800,-0.28,0.285
19:12:35.804,-0.18,0.305
19:12:35.808,-0.24,0.315
19:12:35.812,-0.31,0.39
19:12:35.816,-0.41,0.385
19:12:35.820,-0.365,0.3
19:12:35.824,-0.2,0.24
19:12:35.828,0.025,0.19
19:12:35.832,0.025,0.185
19:12:35.836,-0.21,0.265
19:12:35.840,-0.365,0.355
19:12:35.844,-0.365,0.36
19:12:35.848,-0.17,0.265
19:12:35.852,-0.03,0.205
19:12:35.856,-0.05,0.18
19:12:35.860,-0.08,0.195
19:12:35.864,-0.145,0.23
19:12:35.868,-0.25,0.255
19:12:35.872,-0.27,0.23
19:12:35.876,-0.215,0.245
19:12:35.880,-0.185,0.305
19:12:35.884,-0.17,0.26
19:12:35.888,-0.185,0.185
19:12:35.892,-0.18,0.155
19:12:35.896,-0.15,0.135
19:12:35.900,-0.165,0.175
19:12:35.904,-0.205,0.25
19:12:35.908,-0.185,0.33
19:12:35.912,-0.195,0.405
19:12:35.916,-0.245,0.395
19:12:35.920,-0.17,0.175
19:12:35.924,0.21,-0.015
19:12:35.928,0.815,-0.11
19:12:35.932,1.42,-0.365
19:12:35.936,1.855,-0.655
19:12:35.940,1.73,-0.92
19:12:35.944,0.945,-0.86
19:12:35.948,0.115,-0.365
19:12:35.952,-0.515,-0.185
19:12:35.956,-0.5,-0.155
19:12:35.960,-0.31,0.05
19:12:35.964,-0.14,0.16
19:12:35.968,-0.14,0.095
19:12:35.972,-0.08,0.08
19:12:35.976,-0.2,0.14
19:12:35.980,-0.32,0.215
19:12:35.984,-0.44,0.285
19:12:35.988,-0.52,0.265
19:12:35.992,-0.5,0.24
19:12:35.996,-0.455,0.24
19:12:36.000,-0.335,0.185
19:12:36.004,-0.375,0.16
19:12:36.008,-0.4,0.155
19:12:36.012,-0.365,0.195
19:12:36.016,-0.3,0.26
19:12:36.020,-0.245,0.285
19:12:36.024,-0.22,0.305
19:12:36.028,-0.21,0.305
19:12:36.032,-0.295,0.32
19:12:36.036,-0.4,0.36
19:12:36.040,-0.475,0.355
19:12:36.044,-0.495,0.35
19:12:36.048,-0.385,0.375
19:12:36.052,-0.21,0.38
19:12:36.056,-0.14,0.39
19:12:36.060,-0.04,0.325
19:12:36.064,-0.015,0.26
19:12:36.068,-0.015,0.21
19:12:36.072,-0.105,0.225
19:12:36.076,-0.065,0.26
19:12:36.080,0.025,0.24
19:12:36.084,-0.045,0.2
19:12:36.088,-0.175,0.175
19:12:36.092,-0.19,0.19
19:12:36.096,-0.18,0.195
19:12:36.100,-0.125,0.24
19:12:36.104,0.025,0.2
19:12:36.108,0.065,0.21
19:12:36.112,-0.14,0.18
19:12:36.116,-0.18,0.14
19:12:36.120,-0.18,0.125
19:12:36.124,-0.265,0.175
19:12:36.128,-0.34,0.23
19:12:36.132,-0.28,0.215
19:12:36.136,-0.23,0.21
19:12:36.140,-0.15,0.225
19:12:36.144,-0.085,0.235
19:12:36.148,-0.125,0.165
19:12:36.152,-0.145,0.135
19:12:36.156,-0.05,0.09
19:12:36.160,-0.04,0.115
19:12:36.164,-0.22,0.145
19:12:36.168,-0.315,0.15
19:12:36.172,-0.435,0.165
19:12:36.176,-0.495,0.17
19:12:36.180,-0.365,0.12
19:12:36.184,-0.27,0.175
19:12:36.188,-0.245,0.175
19:12:36.192,-0.255,0.165
19:12:36.196,-0.28,0.185
19:12:36.200,-0.265,0.17
19:12:36.204,-0.26,0.205
19:12:36.208,-0.125,0.21
19:12:36.212,-0.035,0.175
19:12:36.216,-0.005,0.19
19:12:36.220,-0.005,0.185
19:12:36.224,0.08,0.215
19:12:36.228,0.13,0.27
19:12:36.232,0.155,0.285
19:12:36.236,0.09,0.33
19:12:36.240,0.13,0.29
19:12:36.244,0.345,0.225
19:12:36.248,0.315,0.29
19:12:36.252,0.03,0.315
19:12:36.256,-0.05,0.32
19:12:36.260,0.025,0.35
19:12:36.264,-0.015,0.42
19:12:36.268,0.24,0.31
19:12:36.272,0.27,0.225
19:12:36.276,0.225,0.17
19:12:36.280,0.145,0.17
19:12:36.284,0.04,0.2
19:12:36.288,0.215,0.185
19:12:36.292,0.445,0.175
19:12:36.296,0.37,0.18
19:12:36.300,-0.06,0.225
19:12:36.304,-0.215,0.24
19:12:36.308,-0.045,0.205
19:12:36.312,0.04,0.175
19:12:36.316,0.005,0.2
19:12:36.320,-0.075,0.21
19:12:36.324,-0.125,0.215
19:12:36.328,-0.1,0.18
19:12:36.332,0.105,0.135
19:12:36.336,0.22,0.14
19:12:36.340,0.01,0.135
19:12:36.344,-0.065,0.15
19:12:36.348,0.22,0.125
19:12:36.352,0.43,0.095
19:12:36.356,0.09,0.175
19:12:36.360,-0.25,0.19
19:12:36.364,-0.15,0.145
19:12:36.368,-0.025,0.21
19:12:36.372,-0.21,0.22
19:12:36.376,-0.2,0.205
19:12:36.380,-0.105,0.19
19:12:36.384,-0.16,0.23
19:12:36.388,-0.375,0.345
19:12:36.392,-0.625,0.405
19:12:36.396,-0.64,0.245
19:12:36.400,-0.11,-0.02
19:12:36.404,0.665,-0.21
19:12:36.408,1.3,-0.38
19:12:36.412,1.62,-0.61
19:12:36.416,1.335,-0.82
19:12:36.420,0.48,-0.655
19:12:36.424,-0.25,-0.185
19:12:36.428,-0.435,-0.085
19:12:36.432,-0.08,0.035
19:12:36.436,0.285,0.135
19:12:36.440,0.405,0.155
19:12:36.444,0.37,0.165
19:12:36.448,0.265,0.175
19:12:36.452,0.015,0.2
19:12:36.456,-0.125,0.275
19:12:36.460,-0.03,0.3
19:12:36.464,0.135,0.295
19:12:36.468,0.235,0.285
19:12:36.472,0.26,0.285
19:12:36.476,0.105,0.275
19:12:36.480,-0.2,0.3
19:12:36.484,-0.35,0.3
19:12:36.488,-0.26,0.275
19:12:36.492,-0.155,0.255
19:12:36.496,0.0,0.295
19:12:36.500,0.095,0.255
19:12:36.504,0.145,0.235
19:12:36.508,0.025,0.28
19:12:36.512,-0.125,0.265
19:12:36.516,-0.09,0.25
19:12:36.520,0.105,0.215
19:12:36.524,0.05,0.235
19:12:36.528,-0.085,0.2
19:12:36.532,-0.03,0.195
19:12:36.536,0.11,0.195
19:12:36.540,0.05,0.205
19:12:36.544,-0.1,0.195
19:12:36.548,-0.185,0.25
19:12:36.552,-0.15,0.225
19:12:36.556,0.24,0.13
19:12:36.560,0.535,0.02
19:12:36.564,0.375,0.095
19:12:36.568,-0.195,0.21
19:12:36.572,-0.26,0.21
19:12:36.576,0.105,0.225
19:12:36.580,0.015,0.255
19:12:36.584,-0.12,0.195
19:12:36.588,0.0,0.145
19:12:36.592,-0.04,0.2
19:12:36.596,-0.155,0.24
19:12:36.600,-0.02,0.225
19:12:36.604,0.01,0.25
19:12:36.608,-0.2,0.24
19:12:36.612,-0.225,0.21
19:12:36.616,-0.115,0.215
19:12:36.620,-0.135,0.21
19:12:36.624,-0.155,0.215
19:12:36.628,-0.15,0.245
19:12:36.632,-0.15,0.21
19:12:36.636,0.015,0.225
19:12:36.640,0.245,0.19
19:12:36.644,0.37,0.16
19:12:36.648,0.215,0.2
19:12:36.652,0.065,0.26
19:12:36.656,0.17,0.255
19:12:36.660,0.305,0.26
19:12:36.664,0.355,0.23
19:12:36.668,0.295,0.26
19:12:36.672,0.175,0.31
19:12:36.676,0.11,0.305
19:12:36.680,0.15,0.315
19:12:36.684,0.24,0.275
19:12:36.688,0.3,0.255
19:12:36.692,0.4,0.255
19:12:36.696,0.39,0.255
19:12:36.700,0.315,0.22
19:12:36.704,0.28,0.185
19:12:36.708,0.27,0.205
19:12:36.712,0.16,0.22
19:12:36.716,0.08,0.2
19:12:36.720,0.22,0.15
19:12:36.724,0.285,0.145
19:12:36.728,0.43,0.145
19:12:36.732,0.335,0.125
19:12:36.736,-0.095,0.2
19:12:36.740,-0.36,0.225
19:12:36.744,-0.2,0.22
19:12:36.748,-0.055,0.235
19:12:36.752,0.015,0.18
19:12:36.756,-0.055,0.12
19:12:36.760,-0.025,0.1
19:12:36.764,0.025,0.105
19:12:36.768,0.05,0.115
19:12:36.772,0.015,0.12
19:12:36.776,-0.07,0.125
19:12:36.780,-0.095,0.105
19:12:36.784,-0.07,0.125
19:12:36.788,-0.09,0.16
19:12:36.792,-0.135,0.115
19:12:36.796,-0.105,0.095
19:12:36.800,0.065,0.075
19:12:36.804,0.115,0.115
19:12:36.808,-0.12,0.175
19:12:36.812,-0.23,0.215
19:12:36.816,-0.33,0.245
19:12:36.820,-0.34,0.21
19:12:36.824,-0.3,0.12
19:12:36.828,-0.265,0.12
19:12:36.832,-0.285,0.15
19:12:36.836,-0.31,0.21
19:12:36.840,-0.165,0.17
19:12:36.844,-0.125,0.15
19:12:36.848,-0.2,0.13
19:12:36.852,-0.145,0.16
19:12:36.856,-0.16,0.22
19:12:36.860,-0.23,0.26
19:12:36.864,-0.125,0.205
19:12:36.868,0.035,0.21
19:12:36.872,-0.01,0.255
19:12:36.876,-0.06,0.33
19:12:36.880,-0.015,0.135
19:12:36.884,0.155,-0.08
19:12:36.888,0.65,-0.11
19:12:36.892,1.225,-0.205
19:12:36.896,1.88,-0.485
19:12:36.900,1.99,-0.75
19:12:36.904,1.37,-0.78
19:12:36.908,0.655,-0.485
19:12:36.912,0.055,-0.24
19:12:36.916,0.17,-0.38
19:12:36.920,0.405,-0.21
19:12:36.924,0.525,-0.065
19:12:36.928,0.355,-0.035
19:12:36.932,0.075,0.045
19:12:36.936,-0.16,0.135
19:12:36.940,-0.145,0.135
19:12:36.944,-0.07,0.165
19:12:36.948,-0.07,0.15
19:12:36.952,-0.015,0.195
19:12:36.956,-0.045,0.23
19:12:36.960,-0.06,0.11
19:12:36.964,-0.075,-0.05
19:12:36.968,-0.105,-0.08
19:12:36.972,-0.06,0.075
19:12:36.976,-0.1,0.12
19:12:36.980,-0.24,0.15
19:12:36.984,-0.16,0.185
19:12:36.988,0.09,0.08
19:12:36.992,-0.065,0.02
19:12:36.996,-0.44,0.085
19:12:37.000,-0.62,0.245
19:12:37.004,-0.61,0.335
19:12:37.008,-0.49,0.175
19:12:37.012,-0.335,0.0
19:12:37.016,-0.32,0.115
19:12:37.020,-0.395,0.19
19:12:37.024,-0.435,0.11
19:12:37.028,-0.45,0.145
19:12:37.032,-0.495,0.175
19:12:37.036,-0.545,0.17
19:12:37.040,-0.525,0.02
19:12:37.044,-0.565,-0.025
19:12:37.048,-0.535,0.1
19:12:37.052,-0.485,0.165
19:12:37.056,-0.46,0.195
19:12:37.060,-0.485,0.175
19:12:37.064,-0.485,0.2
19:12:37.068,-0.46,0.2
19:12:37.072,-0.4,0.15
19:12:37.076,-0.385,0.09
19:12:37.080,-0.335,0.115
19:12:37.084,-0.27,0.1
19:12:37.088,-0.22,0.135
19:12:37.092,-0.2,0.14
19:12:37.096,-0.14,0.17
19:12:37.100,-0.245,0.225
19:12:37.104,-0.405,0.215
19:12:37.108,-0.45,0.265
19:12:37.112,-0.275,0.29
19:12:37.116,-0.2,0.185
19:12:37.120,-0.195,0.115
19:12:37.124,-0.235,0.14
19:12:37.128,-0.185,0.135
19:12:37.132,-0.1,0.1
19:12:37.136,-0.025,0.025
19:12:37.140,0.055,0.035
19:12:37.144,0.0,0.055
19:12:37.148,-0.15,0.035
19:12:37.152,-0.125,0.125
19:12:37.156,-0.02,0.135
19:12:37.160,0.06,0.105
19:12:37.164,0.07,0.075
19:12:37.168,0.075,-0.03
19:12:37.172,0.05,-0.045
19:12:37.176,-0.01,-0.055
19:12:37.180,0.04,-0.075
19:12:37.184,0.04,-0.055
19:12:37.188,0.005,0.0
19:12:37.192,-0.005,-0.01
19:12:37.196,-0.015,0.005
19:12:37.200,-0.1,0.035
19:12:37.204,-0.235,0.075
19:12:37.208,-0.355,0.1
19:12:37.212,-0.395,0.115
19:12:37.216,-0.37,0.095
19:12:37.220,-0.28,0.035
19:12:37.224,-0.25,0.035
19:12:37.228,-0.295,0.08
19:12:37.232,-0.45,0.15
19:12:37.236,-0.535,0.225
19:12:37.240,-0.52,0.205
19:12:37.244,-0.475,0.13
19:12:37.248,-0.49,0.115
19:12:37.252,-0.565,0.125
19:12:37.256,-0.645,0.16
19:12:37.260,-0.59,0.07
19:12:37.264,-0.54,-0.05
19:12:37.268,-0.485,-0.045
19:12:37.272,-0.495,0.11
19:12:37.276,-0.545,0.1
19:12:37.280,-0.49,-0.06
19:12:37.284,-0.445,-0.05
19:12:37.288,-0.38,0.035
19:12:37.292,-0.405,0.155
19:12:37.296,-0.425,0.2
19:12:37.300,-0.405,0.09
19:12:37.304,-0.41,0.07
19:12:37.308,-0.445,0.095
19:12:37.312,-0.39,0.155
19:12:37.316,-0.365,0.14
19:12:37.320,-0.325,0.085
19:12:37.324,-0.245,0.02
19:12:37.328,-0.205,0.03
19:12:37.332,-0.29,0.035
19:12:37.336,-0.315,0.055
19:12:37.340,-0.31,0.045
19:12:37.344,-0.345,0.005
19:12:37.348,-0.42,0.05
19:12:37.352,-0.46,0.1
19:12:37.356,-0.455,0.06
19:12:37.360,-0.47,0.0
19:12:37.364,-0.545,0.045
19:12:37.368,-0.64,0.16
19:12:37.372,-0.7,0.17
19:12:37.376,-0.655,0.1
19:12:37.380,-0.57,0.07
19:12:37.384,-0.545,0.04
19:12:37.388,-0.56,0.095
19:12:37.392,-0.58,0.02
19:12:37.396,-0.555,-0.115
19:12:37.400,-0.53,-0.1
19:12:37.404,-0.545,-0.03
19:12:37.408,-0.625,-0.015
19:12:37.412,-0.67,-0.05
19:12:37.416,-0.695,-0.065
19:12:37.420,-0.69,-0.03
19:12:37.424,-0.765,0.03
19:12:37.428,-0.745,0.03
19:12:37.432,-0.68,0.09
19:12:37.436,-0.62,0.065
19:12:37.440,-0.555,0.015
19:12:37.444,-0.535,-0.075
19:12:37.448,-0.7,-0.04
19:12:37.452,-0.925,0.08
19:12:37.456,-1.02,0.16
19:12:37.460,-1.0,0.18
19:12:37.464,-1.005,0.03
19:12:37.468,-0.925,-0.005
19:12:37.472,-0.875,0.06
19:12:37.476,-0.9,0.055
19:12:37.480,-0.93,-0.01
19:12:37.484,-0.87,-0.03
19:12:37.488,-0.865,0.035
19:12:37.492,-0.885,0.08
19:12:37.496,-0.78,0.065
19:12:37.500,-0.675,0.08
19:12:37.504,-0.68,0.14
19:12:37.508,-0.645,0.115
19:12:37.512,-0.565,0.105
19:12:37.516,-0.625,0.125
19:12:37.520,-0.7,0.185
19:12:37.524,-0.74,0.2
19:12:37.528,-0.67,0.2
19:12:37.532,-0.63,0.17
19:12:37.536,-0.55,0.165
19:12:37.540,-0.465,0.14
19:12:37.544,-0.27,0.105
19:12:37.548,-0.265,0.08
19:12:37.552,-0.4,0.0
19:12:37.556,-0.58,0.065
19:12:37.560,-0.725,0.15
19:12:37.564,-0.785,0.07
19:12:37.568,-0.75,0.035
19:12:37.572,-0.72,0.065
19:12:37.576,-0.57,-0.07
19:12:37.580,-0.17,-0.22
19:12:37.584,0.5,-0.295
19:12:37.588,1.095,-0.44
19:12:37.592,1.495,-0.685
19:12:37.596,1.125,-0.945
19:12:37.600,0.145,-0.82
19:12:37.604,-0.53,-0.43
19:12:37.608,-0.925,-0.285
19:12:37.612,-0.865,-0.27
19:12:37.616,-0.83,-0.16
19:12:37.620,-0.675,-0.13
19:12:37.624,-0.52,-0.135
19:12:37.628,-0.365,-0.095
19:12:37.632,-0.525,-0.06
19:12:37.636,-0.745,0.015
19:12:37.640,-0.71,-0.025
19:12:37.644,-0.355,-0.18
19:12:37.648,-0.075,-0.24
19:12:37.652,-0.275,-0.165
19:12:37.656,-0.46,-0.035
19:12:37.660,-0.71,0.0
19:12:37.664,-0.835,0.0
19:12:37.668,-0.78,-0.01
19:12:37.672,-0.63,-0.05
19:12:37.676,-0.515,-0.06
19:12:37.680,-0.47,-0.075
19:12:37.684,-0.375,-0.11
19:12:37.688,0.025,-0.2
19:12:37.692,-0.125,-0.22
19:12:37.696,-0.7,-0.15
19:12:37.700,-1.08,0.005
19:12:37.704,-0.94,0.155
19:12:37.708,-0.675,0.095
19:12:37.712,-0.745,-0.045
19:12:37.716,-0.68,0.0
19:12:37.720,-0.56,0.045
19:12:37.724,-0.09,0.03
19:12:37.728,-0.095,0.07
19:12:37.732,-0.495,-0.02
19:12:37.736,-0.69,-0.1
19:12:37.740,-0.65,-0.025
19:12:37.744,-0.62,0.02
19:12:37.748,-0.4,0.03
19:12:37.752,-0.12,-0.015
19:12:37.756,-0.175,-0.02
19:12:37.760,-0.32,-0.01
19:12:37.764,-0.39,-0.01
19:12:37.768,-0.355,-0.06
19:12:37.772,-0.195,-0.115
19:12:37.776,-0.125,-0.175
19:12:37.780,-0.195,-0.145
19:12:37.784,-0.29,-0.045
19:12:37.788,-0.015,-0.1
19:12:37.792,0.03,-0.235
19:12:37.796,-0.225,-0.29
19:12:37.800,-0.445,-0.21
19:12:37.804,-0.26,-0.125
19:12:37.808,-0.065,-0.115
19:12:37.812,-0.07,-0.18
19:12:37.816,-0.34,-0.16
19:12:37.820,-0.61,-0.105
19:12:37.824,-0.49,-0.145
19:12:37.828,-0.2,-0.4
19:12:37.832,-0.08,-0.435
19:12:37.836,-0.05,-0.415
19:12:37.840,0.335,-0.35
19:12:37.844,-0.185,-0.205
19:12:37.848,-0.76,0.0
19:12:37.852,-0.735,0.065
19:12:37.856,-0.195,-0.13
19:12:37.860,0.055,-0.315
19:12:37.864,0.145,-0.435
19:12:37.868,0.145,-0.4
19:12:37.872,-0.01,-0.36
19:12:37.876,0.16,-0.465
19:12:37.880,0.41,-0.495
19:12:37.884,0.19,-0.455
19:12:37.888,-0.115,-0.345
19:12:37.892,-0.29,-0.325
19:12:37.896,-0.325,-0.225
19:12:37.900,-0.585,-0.185
19:12:37.904,-0.65,-0.14
19:12:37.908,-0.555,-0.07
19:12:37.912,-0.355,-0.105
19:12:37.916,-0.03,-0.12
19:12:37.920,0.04,-0.025
19:12:37.924,-0.06,-0.14
19:12:37.928,0.025,-0.25
19:12:37.932,0.21,-0.345
19:12:37.936,0.775,-0.415
19:12:37.940,0.185,-0.135
19:12:37.944,-0.61,0.065
19:12:37.948,-0.42,0.03
19:12:37.952,0.45,-0.155
19:12:37.956,0.19,-0.23
19:12:37.960,-0.505,-0.305
19:12:37.964,-0.5,-0.4
19:12:37.968,-0.41,-0.33
19:12:37.972,-0.29,-0.285
19:12:37.976,0.065,-0.365
19:12:37.980,0.025,-0.315
19:12:37.984,-0.35,-0.2
19:12:37.988,-0.37,-0.28
19:12:37.992,-0.12,-0.365
19:12:37.996,0.02,-0.335
19:12:38.000,0.25,-0.39
19:12:38.004,0.37,-0.51
19:12:38.008,-0.15,-0.395
19:12:38.012,-0.405,-0.21
19:12:38.016,-0.08,-0.325
19:12:38.020,0.63,-0.505
19:12:38.024,0.265,-0.535
19:12:38.028,0.145,-0.62
19:12:38.032,0.895,-0.795
19:12:38.036,1.475,-1.01
19:12:38.040,1.235,-1.19
19:12:38.044,0.1,-1.195
19:12:38.048,-0.965,-0.83
19:12:38.052,-1.09,-0.61
19:12:38.056,-0.59,-0.585
19:12:38.060,-0.55,-0.565
19:12:38.064,-0.625,-0.43
19:12:38.068,-0.75,-0.11
19:12:38.072,-0.7,-0.03
19:12:38.076,-0.775,-0.345
19:12:38.080,-0.795,-0.58
19:12:38.084,-0.585,-0.5
19:12:38.088,-0.535,-0.3
19:12:38.092,-0.59,-0.09
19:12:38.096,-0.485,-0.165
19:12:38.100,-0.42,-0.34
19:12:38.104,-0.215,-0.455
19:12:38.108,0.065,-0.46
19:12:38.112,-0.43,-0.29
19:12:38.116,-0.75,-0.11
19:12:38.120,-0.495,-0.135
19:12:38.124,-0.33,-0.205
19:12:38.128,-0.33,-0.16
19:12:38.132,-0.31,-0.145
19:12:38.136,-0.165,-0.155
19:12:38.140,-0.07,-0.06
19:12:38.144,-0.01,-0.115
19:12:38.148,0.015,-0.225
19:12:38.152,-0.08,-0.18
19:12:38.156,-0.235,-0.19
19:12:38.160,-0.095,-0.21
19:12:38.164,0.355,-0.16
19:12:38.168,0.15,-0.085
19:12:38.172,-0.345,-0.095
19:12:38.176,-0.31,-0.14
