Time,ECG1,ECG2
09:35:36.940,0.035,0.255
09:35:36.944,-0.17,0.22
09:35:36.948,-0.18,0.18
09:35:36.952,-0.02,0.16
09:35:36.956,0.08,0.17
09:35:36.960,0.005,0.18
09:35:36.964,-0.12,0.195
09:35:36.968,-0.07,0.195
09:35:36.972,0.07,0.19
09:35:36.976,0.145,0.195
09:35:36.980,0.08,0.23
09:35:36.984,-0.07,0.24
09:35:36.988,-0.04,0.26
09:35:36.992,0.02,0.245
09:35:36.996,0.025,0.285
09:35:37.000,0.035,0.255
09:35:37.004,0.03,0.245
09:35:37.008,0.06,0.215
09:35:37.012,0.09,0.21
09:35:37.016,0.16,0.18
09:35:37.020,0.185,0.17
09:35:37.024,0.285,0.165
09:35:37.028,0.335,0.15
09:35:37.032,0.22,0.13
09:35:37.036,0.095,0.1
09:35:37.040,-0.01,0.09
09:35:37.044,-0.025,0.085
09:35:37.048,0.015,0.11
09:35:37.052,0.015,0.14
09:35:37.056,0.045,0.15
09:35:37.060,0.08,0.165
09:35:37.064,0.16,0.175
09:35:37.068,0.2,0.215
09:35:37.072,0.305,0.18
09:35:37.076,0.41,0.205
09:35:37.080,0.335,0.18
09:35:37.084,0.155,0.185
09:35:37.088,0.03,0.19
09:35:37.092,0.005,0.18
09:35:37.096,0.055,0.19
09:35:37.100,0.11,0.205
09:35:37.104,0.12,0.225
09:35:37.108,0.17,0.23
09:35:37.112,0.215,0.235
09:35:37.116,0.2,0.2
09:35:37.120,0.185,0.215
09:35:37.124,0.205,0.24
09:35:37.128,0.175,0.25
09:35:37.132,0.125,0.23
09:35:37.136,0.18,0.195
09:35:37.140,0.25,0.215
09:35:37.144,0.225,0.25
09:35:37.148,0.205,0.26
09:35:37.152,0.16,0.23
09:35:37.156,0.115,0.22
09:35:37.160,0.105,0.22
09:35:37.164,0.09,0.2
09:35:37.168,0.035,0.215
09:35:37.172,0.035,0.205
09:35:37.176,0.115,0.24
09:35:37.180,0.225,0.25
09:35:37.184,0.33,0.22
09:35:37.188,0.42,0.225
09:35:37.192,0.46,0.23
09:35:37.196,0.48,0.24
09:35:37.200,0.435,0.255
09:35:37.204,0.43,0.255
09:35:37.208,0.59,0.23
09:35:37.212,0.78,0.215
09:35:37.216,0.65,0.225
09:35:37.220,0.34,0.21
09:35:37.224,0.215,0.16
09:35:37.228,0.11,0.14
09:35:37.232,0.055,0.13
09:35:37.236,0.18,0.13
09:35:37.240,0.305,0.14
09:35:37.244,0.375,0.14
09:35:37.248,0.385,0.16
09:35:37.252,0.415,0.155
09:35:37.256,0.5,0.15
09:35:37.260,0.615,0.1
09:35:37.264,0.765,0.075
09:35:37.268,0.865,0.1
09:35:37.272,0.825,0.19
09:35:37.276,0.705,0.305
09:35:37.280,0.52,0.31
09:35:37.284,0.265,0.025
09:35:37.288,0.005,-0.45
09:35:37.292,-0.345,-1.005
09:35:37.296,-0.57,-1.76
09:35:37.300,-0.535,-2.625
09:35:37.304,-0.375,-3.32
09:35:37.308,-0.355,-3.825
09:35:37.312,-0.46,-4.185
09:35:37.316,-0.555,-4.42
09:35:37.320,-0.83,-4.66
09:35:37.324,-1.125,-4.725
09:35:37.328,-1.225,-4.705
09:35:37.332,-1.145,-4.635
09:35:37.336,-1.07,-4.53
09:35:37.340,-0.92,-4.435
09:35:37.344,-0.97,-4.405
09:35:37.348,-1.155,-4.325
09:35:37.352,-1.23,-4.245
09:35:37.356,-1.05,-4.055
09:35:37.360,-0.89,-3.825
09:35:37.364,-0.76,-3.535
09:35:37.368,-0.6,-3.2
09:35:37.372,-0.38,-2.74
09:35:37.376,-0.12,-2.345
09:35:37.380,0.015,-1.975
09:35:37.384,-0.08,-1.595
09:35:37.388,-0.225,-1.245
09:35:37.392,-0.145,-0.94
09:35:37.396,0.095,-0.71
09:35:37.400,0.355,-0.465
09:35:37.404,0.505,-0.275
09:35:37.408,0.505,-0.04
09:35:37.412,0.5,0.15
09:35:37.416,0.525,0.33
09:35:37.420,0.575,0.465
09:35:37.424,0.605,0.57
09:35:37.428,0.61,0.64
09:35:37.432,0.615,0.7
09:35:37.436,0.635,0.74
09:35:37.440,0.7,0.75
09:35:37.444,0.7,0.765
09:35:37.448,0.63,0.82
09:35:37.452,0.605,0.815
09:35:37.456,0.625,0.825
09:35:37.460,0.655,0.82
09:35:37.464,0.665,0.83
09:35:37.468,0.66,0.845
09:35:37.472,0.675,0.85
09:35:37.476,0.7,0.875
09:35:37.480,0.735,0.885
09:35:37.484,0.82,0.915
09:35:37.488,1.11,0.935
09:35:37.492,1.13,0.94
09:35:37.496,0.705,0.96
09:35:37.500,0.35,0.955
09:35:37.504,0.36,0.955
09:35:37.508,0.49,0.975
09:35:37.512,0.665,1.025
09:35:37.516,0.785,1.075
09:35:37.520,0.8,1.08
09:35:37.524,0.75,1.16
09:35:37.528,0.75,1.175
09:35:37.532,0.775,1.21
09:35:37.536,0.82,1.225
09:35:37.540,0.86,1.245
09:35:37.544,0.88,1.25
09:35:37.548,0.855,1.305
09:35:37.552,0.83,1.31
09:35:37.556,0.9,1.325
09:35:37.560,1.06,1.345
09:35:37.564,1.22,1.41
09:35:37.568,1.125,1.41
09:35:37.572,0.85,1.455
09:35:37.576,0.71,1.475
09:35:37.580,0.74,1.515
09:35:37.584,0.855,1.535
09:35:37.588,0.975,1.555
09:35:37.592,1.065,1.595
09:35:37.596,1.085,1.62
09:35:37.600,1.12,1.6
09:35:37.604,1.165,1.56
09:35:37.608,1.12,1.52
09:35:37.612,0.89,1.46
09:35:37.616,0.72,1.44
09:35:37.620,0.66,1.425
09:35:37.624,0.71,1.38
09:35:37.628,0.72,1.325
09:35:37.632,0.705,1.275
09:35:37.636,0.69,1.23
09:35:37.640,0.675,1.155
09:35:37.644,0.64,1.065
09:35:37.648,0.58,1.005
09:35:37.652,0.545,0.9
09:35:37.656,0.535,0.85
09:35:37.660,0.525,0.75
09:35:37.664,0.535,0.69
09:35:37.668,0.54,0.62
09:35:37.672,0.46,0.56
09:35:37.676,0.4,0.495
09:35:37.680,0.36,0.445
09:35:37.684,0.4,0.4
09:35:37.688,0.435,0.33
09:35:37.692,0.45,0.295
09:35:37.696,0.48,0.31
09:35:37.700,0.475,0.28
09:35:37.704,0.385,0.28
09:35:37.708,0.27,0.285
09:35:37.712,0.235,0.27
09:35:37.716,0.245,0.26
09:35:37.720,0.305,0.265
09:35:37.724,0.415,0.245
09:35:37.728,0.43,0.245
09:35:37.732,0.355,0.255
09:35:37.736,0.215,0.235
09:35:37.740,0.145,0.225
09:35:37.744,0.2,0.225
09:35:37.748,0.31,0.25
09:35:37.752,0.38,0.245
09:35:37.756,0.45,0.255
09:35:37.760,0.455,0.24
09:35:37.764,0.42,0.27
09:35:37.768,0.365,0.315
09:35:37.772,0.315,0.32
09:35:37.776,0.345,0.325
09:35:37.780,0.465,0.31
09:35:37.784,0.495,0.275
09:35:37.788,0.415,0.28
09:35:37.792,0.405,0.3
09:35:37.796,0.445,0.26
09:35:37.800,0.465,0.27
09:35:37.804,0.49,0.26
09:35:37.808,0.475,0.235
09:35:37.812,0.5,0.235
09:35:37.816,0.54,0.215
09:35:37.820,0.565,0.2
09:35:37.824,0.53,0.205
09:35:37.828,0.48,0.18
09:35:37.832,0.425,0.18
09:35:37.836,0.4,0.12
09:35:37.840,0.38,0.125
09:35:37.844,0.395,0.145
09:35:37.848,0.43,0.16
09:35:37.852,0.44,0.16
09:35:37.856,0.47,0.145
09:35:37.860,0.505,0.11
09:35:37.864,0.475,0.125
09:35:37.868,0.375,0.155
09:35:37.872,0.285,0.135
09:35:37.876,0.255,0.125
09:35:37.880,0.295,0.13
09:35:37.884,0.35,0.13
09:35:37.888,0.355,0.125
09:35:37.892,0.365,0.15
09:35:37.896,0.38,0.125
09:35:37.900,0.365,0.125
09:35:37.904,0.345,0.12
09:35:37.908,0.385,0.115
09:35:37.912,0.5,0.12
09:35:37.916,0.535,0.115
09:35:37.920,0.4,0.085
09:35:37.924,0.27,0.1
09:35:37.928,0.275,0.08
09:35:37.932,0.375,0.085
09:35:37.936,0.555,0.06
09:35:37.940,0.855,0.07
09:35:37.944,0.965,0.09
09:35:37.948,0.84,0.15
09:35:37.952,0.645,0.26
09:35:37.956,0.435,0.335
09:35:37.960,0.145,0.205
09:35:37.964,-0.155,-0.165
09:35:37.968,-0.465,-0.635
09:35:37.972,-0.65,-1.225
09:35:37.976,-0.685,-2.01
09:35:37.980,-0.64,-2.845
09:35:37.984,-0.63,-3.58
09:35:37.988,-0.545,-4.03
09:35:37.992,-0.525,-4.34
09:35:37.996,-0.57,-4.56
09:35:38.000,-0.6,-4.665
09:35:38.004,-0.565,-4.675
09:35:38.008,-0.685,-4.625
09:35:38.012,-0.87,-4.495
09:35:38.016,-0.87,-4.42
09:35:38.020,-0.755,-4.34
09:35:38.024,-0.555,-4.205
09:35:38.028,-0.32,-4.035
09:35:38.032,-0.315,-3.93
09:35:38.036,-0.455,-3.755
09:35:38.040,-0.51,-3.545
09:35:38.044,-0.405,-3.255
09:35:38.048,-0.325,-2.945
09:35:38.052,-0.26,-2.515
09:35:38.056,-0.18,-2.125
09:35:38.060,-0.035,-1.76
09:35:38.064,0.18,-1.385
09:35:38.068,0.41,-1.085
09:35:38.072,0.45,-0.805
09:35:38.076,0.39,-0.575
09:35:38.080,0.42,-0.39
09:35:38.084,0.49,-0.195
09:35:38.088,0.58,0.0
09:35:38.092,0.655,0.22
09:35:38.096,0.685,0.385
09:35:38.100,0.755,0.51
09:35:38.104,0.825,0.625
09:35:38.108,0.875,0.695
09:35:38.112,0.915,0.705
09:35:38.116,0.89,0.745
09:35:38.120,0.77,0.775
09:35:38.124,0.67,0.795
09:35:38.128,0.66,0.83
09:35:38.132,0.68,0.84
09:35:38.136,0.73,0.855
09:35:38.140,0.9,0.86
09:35:38.144,1.085,0.91
09:35:38.148,1.04,0.915
09:35:38.152,0.925,0.965
09:35:38.156,0.905,0.98
09:35:38.160,1.03,0.97
09:35:38.164,1.035,0.975
09:35:38.168,0.945,1.02
09:35:38.172,0.86,1.05
09:35:38.176,0.88,1.05
09:35:38.180,0.94,1.075
09:35:38.184,0.985,1.08
09:35:38.188,1.0,1.09
09:35:38.192,1.075,1.105
09:35:38.196,1.12,1.115
09:35:38.200,1.09,1.085
09:35:38.204,1.075,1.115
09:35:38.208,1.075,1.145
09:35:38.212,1.125,1.14
09:35:38.216,1.15,1.15
09:35:38.220,1.16,1.185
09:35:38.224,1.16,1.24
09:35:38.228,1.21,1.255
09:35:38.232,1.24,1.27
09:35:38.236,1.18,1.265
09:35:38.240,1.095,1.315
09:35:38.244,1.155,1.31
09:35:38.248,1.155,1.3
09:35:38.252,1.04,1.33
09:35:38.256,1.01,1.39
09:35:38.260,1.085,1.39
09:35:38.264,1.14,1.42
09:35:38.268,1.09,1.435
09:35:38.272,0.955,1.445
09:35:38.276,0.755,1.43
09:35:38.280,0.59,1.395
09:35:38.284,0.585,1.365
09:35:38.288,0.67,1.345
09:35:38.292,0.71,1.325
09:35:38.296,0.685,1.295
09:35:38.300,0.625,1.25
09:35:38.304,0.595,1.175
09:35:38.308,0.58,1.12
09:35:38.312,0.595,1.07
09:35:38.316,0.5,0.97
09:35:38.320,0.37,0.91
09:35:38.324,0.37,0.87
09:35:38.328,0.455,0.79
09:35:38.332,0.515,0.69
09:35:38.336,0.445,0.595
09:35:38.340,0.34,0.57
09:35:38.344,0.305,0.52
09:35:38.348,0.385,0.49
09:35:38.352,0.495,0.47
09:35:38.356,0.695,0.445
09:35:38.360,0.75,0.435
09:35:38.364,0.56,0.39
09:35:38.368,0.365,0.37
09:35:38.372,0.345,0.345
09:35:38.376,0.31,0.335
09:35:38.380,0.155,0.355
09:35:38.384,0.135,0.37
09:35:38.388,0.21,0.335
09:35:38.392,0.205,0.335
09:35:38.396,0.105,0.3
09:35:38.400,0.06,0.275
09:35:38.404,0.075,0.21
09:35:38.408,0.08,0.185
09:35:38.412,0.095,0.175
09:35:38.416,0.125,0.155
09:35:38.420,0.115,0.12
09:35:38.424,0.14,0.08
09:35:38.428,0.045,0.05
09:35:38.432,-0.08,0.055
09:35:38.436,-0.095,0.075
09:35:38.440,-0.06,0.1
09:35:38.444,-0.035,0.115
09:35:38.448,0.025,0.125
09:35:38.452,0.055,0.145
09:35:38.456,-0.06,0.145
09:35:38.460,-0.13,0.155
09:35:38.464,-0.155,0.135
09:35:38.468,-0.055,0.11
09:35:38.472,-0.035,0.13
09:35:38.476,-0.085,0.135
09:35:38.480,-0.155,0.15
09:35:38.484,-0.145,0.13
09:35:38.488,-0.105,0.145
09:35:38.492,-0.13,0.125
09:35:38.496,-0.13,0.13
09:35:38.500,-0.06,0.1
09:35:38.504,-0.04,0.105
09:35:38.508,-0.03,0.125
09:35:38.512,0.005,0.1
09:35:38.516,0.015,0.06
09:35:38.520,0.01,0.07
09:35:38.524,-0.01,0.12
09:35:38.528,-0.015,0.135
09:35:38.532,0.045,0.13
09:35:38.536,0.015,0.14
09:35:38.540,0.045,0.16
09:35:38.544,0.125,0.18
09:35:38.548,0.115,0.165
09:35:38.552,0.095,0.155
09:35:38.556,0.08,0.145
09:35:38.560,0.065,0.17
09:35:38.564,0.08,0.2
09:35:38.568,0.11,0.145
09:35:38.572,0.145,0.14
09:35:38.576,0.115,0.15
09:35:38.580,0.035,0.145
09:35:38.584,0.035,0.155
09:35:38.588,0.07,0.14
09:35:38.592,0.01,0.155
09:35:38.596,-0.05,0.16
09:35:38.600,-0.07,0.15
09:35:38.604,-0.05,0.12
09:35:38.608,-0.01,0.07
09:35:38.612,-0.04,0.045
09:35:38.616,-0.035,0.035
09:35:38.620,-0.02,0.015
09:35:38.624,0.0,0.04
09:35:38.628,0.05,0.045
09:35:38.632,0.18,0.035
09:35:38.636,0.26,0.025
09:35:38.640,0.26,0.055
09:35:38.644,0.195,0.12
09:35:38.648,0.02,0.21
09:35:38.652,-0.27,0.23
09:35:38.656,-0.665,0.015
09:35:38.660,-1.12,-0.395
09:35:38.664,-1.5,-0.845
09:35:38.668,-1.69,-1.5
09:35:38.672,-1.76,-2.32
09:35:38.676,-1.625,-3.05
09:35:38.680,-1.46,-3.6
09:35:38.684,-1.435,-4.08
09:35:38.688,-1.58,-4.4
09:35:38.692,-1.71,-4.58
09:35:38.696,-1.82,-4.685
09:35:38.700,-1.895,-4.645
09:35:38.704,-1.895,-4.455
09:35:38.708,-1.695,-4.335
09:35:38.712,-1.505,-4.195
09:35:38.716,-1.36,-4.05
09:35:38.720,-1.245,-3.93
09:35:38.724,-1.125,-3.8
09:35:38.728,-1.005,-3.555
09:35:38.732,-0.95,-3.32
09:35:38.736,-0.935,-3.05
09:35:38.740,-0.895,-2.72
09:35:38.744,-0.835,-2.345
09:35:38.748,-0.75,-1.915
09:35:38.752,-0.66,-1.545
09:35:38.756,-0.54,-1.205
09:35:38.760,-0.435,-0.925
09:35:38.764,-0.27,-0.685
09:35:38.768,-0.13,-0.455
09:35:38.772,-0.055,-0.265
09:35:38.776,-0.03,-0.065
09:35:38.780,0.0,0.12
09:35:38.784,0.035,0.29
09:35:38.788,0.02,0.465
09:35:38.792,0.02,0.585
09:35:38.796,0.145,0.665
09:35:38.800,0.32,0.72
09:35:38.804,0.395,0.765
09:35:38.808,0.235,0.805
09:35:38.812,0.035,0.79
09:35:38.816,-0.09,0.76
09:35:38.820,-0.13,0.78
09:35:38.824,-0.09,0.755
09:35:38.828,0.015,0.79
09:35:38.832,0.07,0.77
09:35:38.836,0.09,0.76
09:35:38.840,0.15,0.78
09:35:38.844,0.17,0.775
09:35:38.848,0.19,0.79
09:35:38.852,0.18,0.82
09:35:38.856,0.17,0.86
09:35:38.860,0.185,0.87
09:35:38.864,0.23,0.88
09:35:38.868,0.215,0.885
09:35:38.872,0.175,0.895
09:35:38.876,0.185,0.915
09:35:38.880,0.19,0.925
09:35:38.884,0.205,0.97
09:35:38.888,0.195,1.0
09:35:38.892,0.205,1.005
09:35:38.896,0.16,1.04
09:35:38.900,0.135,1.04
09:35:38.904,0.175,1.07
09:35:38.908,0.255,1.125
09:35:38.912,0.35,1.155
09:35:38.916,0.445,1.17
09:35:38.920,0.41,1.215
09:35:38.924,0.23,1.26
09:35:38.928,0.075,1.275
09:35:38.932,0.06,1.275
09:35:38.936,0.12,1.3
09:35:38.940,0.175,1.34
09:35:38.944,0.24,1.41
09:35:38.948,0.28,1.39
09:35:38.952,0.295,1.4
09:35:38.956,0.19,1.415
09:35:38.960,0.035,1.4
09:35:38.964,0.01,1.375
09:35:38.968,0.04,1.37
09:35:38.972,0.01,1.35
09:35:38.976,-0.035,1.325
09:35:38.980,-0.05,1.31
09:35:38.984,-0.065,1.29
09:35:38.988,-0.055,1.235
09:35:38.992,-0.075,1.185
09:35:38.996,-0.085,1.125
09:35:39.000,-0.095,1.04
09:35:39.004,-0.22,0.92
09:35:39.008,-0.39,0.83
09:35:39.012,-0.44,0.715
09:35:39.016,-0.445,0.62
09:35:39.020,-0.46,0.535
09:35:39.024,-0.465,0.445
09:35:39.028,-0.47,0.39
09:35:39.032,-0.415,0.37
09:35:39.036,-0.38,0.325
09:35:39.040,-0.41,0.265
09:35:39.044,-0.56,0.255
09:35:39.048,-0.67,0.22
09:35:39.052,-0.695,0.17
09:35:39.056,-0.7,0.135
09:35:39.060,-0.635,0.105
09:35:39.064,-0.61,0.085
09:35:39.068,-0.57,0.11
09:35:39.072,-0.54,0.09
09:35:39.076,-0.57,0.09
09:35:39.080,-0.63,0.105
09:35:39.084,-0.62,0.13
09:35:39.088,-0.605,0.085
09:35:39.092,-0.605,0.07
09:35:39.096,-0.63,0.075
09:35:39.100,-0.615,0.075
09:35:39.104,-0.6,0.1
09:35:39.108,-0.55,0.15
09:35:39.112,-0.485,0.19
09:35:39.116,-0.415,0.175
09:35:39.120,-0.42,0.195
09:35:39.124,-0.46,0.185
09:35:39.128,-0.51,0.22
09:35:39.132,-0.515,0.21
09:35:39.136,-0.495,0.22
09:35:39.140,-0.46,0.225
09:35:39.144,-0.46,0.21
09:35:39.148,-0.44,0.225
09:35:39.152,-0.26,0.24
09:35:39.156,-0.115,0.215
09:35:39.160,-0.21,0.22
09:35:39.164,-0.485,0.245
09:35:39.168,-0.735,0.265
09:35:39.172,-0.805,0.265
09:35:39.176,-0.73,0.265
09:35:39.180,-0.68,0.285
09:35:39.184,-0.62,0.275
09:35:39.188,-0.535,0.28
09:35:39.192,-0.445,0.255
09:35:39.196,-0.39,0.24
09:35:39.200,-0.395,0.265
09:35:39.204,-0.425,0.255
09:35:39.208,-0.42,0.21
09:35:39.212,-0.415,0.175
09:35:39.216,-0.49,0.245
09:35:39.220,-0.545,0.33
09:35:39.224,-0.565,0.27
09:35:39.228,-0.53,0.2
09:35:39.232,-0.52,0.2
09:35:39.236,-0.49,0.21
09:35:39.240,-0.46,0.195
09:35:39.244,-0.49,0.17
09:35:39.248,-0.555,0.19
09:35:39.252,-0.575,0.21
09:35:39.256,-0.6,0.21
09:35:39.260,-0.56,0.22
09:35:39.264,-0.49,0.19
09:35:39.268,-0.49,0.17
09:35:39.272,-0.52,0.145
09:35:39.276,-0.51,0.14
09:35:39.280,-0.59,0.125
09:35:39.284,-0.715,0.125
09:35:39.288,-0.78,0.105
09:35:39.292,-0.81,0.095
09:35:39.296,-0.765,0.13
09:35:39.300,-0.745,0.16
09:35:39.304,-0.695,0.16
09:35:39.308,-0.655,0.16
09:35:39.312,-0.64,0.18
09:35:39.316,-0.62,0.175
09:35:39.320,-0.6,0.205
09:35:39.324,-0.575,0.23
09:35:39.328,-0.54,0.22
09:35:39.332,-0.535,0.215
09:35:39.336,-0.51,0.22
09:35:39.340,-0.5,0.2
09:35:39.344,-0.505,0.215
09:35:39.348,-0.505,0.21
09:35:39.352,-0.515,0.205
09:35:39.356,-0.465,0.205
09:35:39.360,-0.48,0.215
09:35:39.364,-0.515,0.195
09:35:39.368,-0.565,0.165
09:35:39.372,-0.655,0.185
09:35:39.376,-0.68,0.195
09:35:39.380,-0.69,0.195
09:35:39.384,-0.665,0.225
09:35:39.388,-0.605,0.215
09:35:39.392,-0.5,0.205
09:35:39.396,-0.505,0.19
09:35:39.400,-0.64,0.155
09:35:39.404,-0.68,0.165
09:35:39.408,-0.705,0.15
09:35:39.412,-0.67,0.15
09:35:39.416,-0.575,0.14
09:35:39.420,-0.49,0.105
09:35:39.424,-0.47,0.125
09:35:39.428,-0.445,0.13
09:35:39.432,-0.46,0.12
09:35:39.436,-0.52,0.125
09:35:39.440,-0.56,0.14
09:35:39.444,-0.54,0.12
09:35:39.448,-0.555,0.14
09:35:39.452,-0.56,0.155
09:35:39.456,-0.52,0.15
09:35:39.460,-0.44,0.135
09:35:39.464,-0.4,0.15
09:35:39.468,-0.38,0.16
09:35:39.472,-0.355,0.15
09:35:39.476,-0.37,0.15
09:35:39.480,-0.455,0.16
09:35:39.484,-0.44,0.125
09:35:39.488,-0.35,0.125
09:35:39.492,-0.29,0.14
09:35:39.496,-0.36,0.14
09:35:39.500,-0.44,0.145
09:35:39.504,-0.53,0.145
09:35:39.508,-0.54,0.17
09:35:39.512,-0.535,0.165
09:35:39.516,-0.53,0.18
09:35:39.520,-0.56,0.18
09:35:39.524,-0.56,0.185
09:35:39.528,-0.535,0.175
09:35:39.532,-0.5,0.21
09:35:39.536,-0.495,0.195
09:35:39.540,-0.48,0.18
09:35:39.544,-0.44,0.21
09:35:39.548,-0.485,0.225
09:35:39.552,-0.525,0.235
09:35:39.556,-0.52,0.23
09:35:39.560,-0.51,0.245
09:35:39.564,-0.485,0.225
09:35:39.568,-0.46,0.24
09:35:39.572,-0.455,0.23
09:35:39.576,-0.53,0.245
09:35:39.580,-0.565,0.23
09:35:39.584,-0.515,0.215
09:35:39.588,-0.55,0.19
09:35:39.592,-0.57,0.2
09:35:39.596,-0.57,0.23
09:35:39.600,-0.495,0.25
09:35:39.604,-0.475,0.24
09:35:39.608,-0.605,0.275
09:35:39.612,-0.725,0.27
09:35:39.616,-0.72,0.27
09:35:39.620,-0.74,0.28
09:35:39.624,-0.77,0.3
09:35:39.628,-0.74,0.25
09:35:39.632,-0.68,0.22
09:35:39.636,-0.62,0.19
09:35:39.640,-0.615,0.17
09:35:39.644,-0.57,0.15
09:35:39.648,-0.445,0.135
09:35:39.652,-0.24,0.13
09:35:39.656,-0.17,0.17
09:35:39.660,-0.26,0.22
09:35:39.664,-0.39,0.32
09:35:39.668,-0.595,0.345
09:35:39.672,-0.91,0.08
09:35:39.676,-1.18,-0.38
09:35:39.680,-1.38,-0.915
09:35:39.684,-1.48,-1.65
09:35:39.688,-1.485,-2.52
09:35:39.692,-1.355,-3.25
09:35:39.696,-1.295,-3.795
09:35:39.700,-1.38,-4.195
09:35:39.704,-1.53,-4.45
09:35:39.708,-1.6,-4.58
09:35:39.712,-1.56,-4.645
09:35:39.716,-1.585,-4.6
09:35:39.720,-1.745,-4.495
09:35:39.724,-1.82,-4.365
09:35:39.728,-1.785,-4.28
09:35:39.732,-1.705,-4.185
09:35:39.736,-1.575,-4.075
09:35:39.740,-1.44,-3.925
09:35:39.744,-1.395,-3.725
09:35:39.748,-1.455,-3.455
09:35:39.752,-1.485,-3.18
09:35:39.756,-1.43,-2.89
09:35:39.760,-1.4,-2.465
09:35:39.764,-1.385,-2.08
09:35:39.768,-1.275,-1.665
09:35:39.772,-1.135,-1.275
09:35:39.776,-0.96,-0.93
09:35:39.780,-0.815,-0.65
09:35:39.784,-0.73,-0.44
09:35:39.788,-0.64,-0.22
09:35:39.792,-0.485,0.005
09:35:39.796,-0.37,0.195
09:35:39.800,-0.35,0.42
09:35:39.804,-0.385,0.61
09:35:39.808,-0.43,0.735
09:35:39.812,-0.51,0.845
09:35:39.816,-0.545,0.92
09:35:39.820,-0.5,0.935
09:35:39.824,-0.43,0.975
09:35:39.828,-0.37,0.995
09:35:39.832,-0.315,0.975
09:35:39.836,-0.305,0.99
09:35:39.840,-0.36,1.015
09:35:39.844,-0.42,1.025
09:35:39.848,-0.465,1.03
09:35:39.852,-0.465,1.01
09:35:39.856,-0.39,0.98
09:35:39.860,-0.31,1.02
09:35:39.864,-0.235,1.0
09:35:39.868,-0.215,1.005
09:35:39.872,-0.2,1.035
09:35:39.876,-0.13,1.04
09:35:39.880,-0.155,1.065
09:35:39.884,-0.275,1.085
09:35:39.888,-0.31,1.1
09:35:39.892,-0.26,1.11
09:35:39.896,-0.24,1.145
09:35:39.900,-0.26,1.165
09:35:39.904,-0.25,1.18
09:35:39.908,-0.235,1.2
09:35:39.912,-0.22,1.23
09:35:39.916,-0.22,1.25
09:35:39.920,-0.225,1.265
09:35:39.924,-0.22,1.28
09:35:39.928,-0.27,1.275
09:35:39.932,-0.26,1.32
09:35:39.936,-0.265,1.355
09:35:39.940,-0.265,1.36
09:35:39.944,-0.295,1.395
09:35:39.948,-0.375,1.38
09:35:39.952,-0.385,1.41
09:35:39.956,-0.335,1.435
09:35:39.960,-0.305,1.46
09:35:39.964,-0.305,1.47
09:35:39.968,-0.355,1.475
09:35:39.972,-0.405,1.48
09:35:39.976,-0.44,1.475
09:35:39.980,-0.465,1.48
09:35:39.984,-0.47,1.48
09:35:39.988,-0.46,1.485
09:35:39.992,-0.4,1.465
09:35:39.996,-0.415,1.465
09:35:40.000,-0.54,1.44
09:35:40.004,-0.705,1.44
09:35:40.008,-0.77,1.41
09:35:40.012,-0.765,1.39
09:35:40.016,-0.72,1.375
09:35:40.020,-0.7,1.325
09:35:40.024,-0.63,1.285
09:35:40.028,-0.61,1.195
09:35:40.032,-0.7,1.105
09:35:40.036,-0.84,1.05
09:35:40.040,-0.95,0.92
09:35:40.044,-0.95,0.83
09:35:40.048,-0.87,0.775
09:35:40.052,-0.8,0.7
09:35:40.056,-0.825,0.645
09:35:40.060,-0.86,0.59
09:35:40.064,-0.805,0.52
09:35:40.068,-0.78,0.465
09:35:40.072,-0.82,0.45
09:35:40.076,-0.84,0.415
09:35:40.080,-0.825,0.365
09:35:40.084,-0.785,0.36
09:35:40.088,-0.77,0.365
09:35:40.092,-0.78,0.355
09:35:40.096,-0.795,0.33
09:35:40.100,-0.825,0.315
09:35:40.104,-0.855,0.33
09:35:40.108,-0.795,0.33
09:35:40.112,-0.715,0.335
09:35:40.116,-0.695,0.36
09:35:40.120,-0.74,0.335
09:35:40.124,-0.8,0.345
09:35:40.128,-0.87,0.315
09:35:40.132,-0.86,0.315
09:35:40.136,-0.755,0.32
09:35:40.140,-0.72,0.355
09:35:40.144,-0.79,0.365
09:35:40.148,-0.845,0.37
09:35:40.152,-0.87,0.385
09:35:40.156,-0.895,0.365
09:35:40.160,-0.88,0.355
09:35:40.164,-0.86,0.355
09:35:40.168,-0.825,0.35
09:35:40.172,-0.815,0.35
09:35:40.176,-0.775,0.35
09:35:40.180,-0.73,0.365
09:35:40.184,-0.75,0.385
09:35:40.188,-0.81,0.365
09:35:40.192,-0.78,0.385
09:35:40.196,-0.685,0.4
09:35:40.200,-0.71,0.41
09:35:40.204,-0.9,0.405
09:35:40.208,-1.005,0.455
09:35:40.212,-0.945,0.435
09:35:40.216,-0.81,0.445
09:35:40.220,-0.755,0.45
09:35:40.224,-0.85,0.49
09:35:40.228,-0.97,0.47
09:35:40.232,-0.96,0.44
09:35:40.236,-0.94,0.425
09:35:40.240,-0.95,0.415
09:35:40.244,-0.925,0.395
09:35:40.248,-0.91,0.34
09:35:40.252,-0.88,0.34
09:35:40.256,-0.85,0.335
09:35:40.260,-0.755,0.305
09:35:40.264,-0.66,0.315
09:35:40.268,-0.54,0.31
09:35:40.272,-0.47,0.29
09:35:40.276,-0.345,0.3
09:35:40.280,-0.24,0.34
09:35:40.284,-0.14,0.34
09:35:40.288,-0.105,0.395
09:35:40.292,-0.05,0.44
09:35:40.296,0.08,0.515
09:35:40.300,0.29,0.59
09:35:40.304,0.52,0.645
09:35:40.308,0.74,0.685
09:35:40.312,0.85,0.79
09:35:40.316,1.03,0.92
09:35:40.320,1.23,1.07
09:35:40.324,1.445,1.245
09:35:40.328,1.655,1.365
09:35:40.332,1.81,1.465
09:35:40.336,1.96,1.555
09:35:40.340,2.09,1.695
09:35:40.344,2.32,1.795
09:35:40.348,2.53,1.865
09:35:40.352,2.75,1.965
09:35:40.356,2.89,2.05
09:35:40.360,2.755,2.17
09:35:40.364,2.33,2.31
09:35:40.368,1.81,2.465
09:35:40.372,1.355,2.6
09:35:40.376,1.04,2.71
09:35:40.380,0.685,2.77
09:35:40.384,0.155,2.73
09:35:40.388,-0.53,2.68
09:35:40.392,-1.26,2.645
09:35:40.396,-1.86,2.56
09:35:40.400,-2.28,2.39
09:35:40.404,-2.405,2.075
09:35:40.408,-2.36,1.79
09:35:40.412,-2.255,1.475
09:35:40.416,-2.115,1.24
09:35:40.420,-1.85,1.065
09:35:40.424,-1.71,0.78
09:35:40.428,-1.69,0.39
09:35:40.432,-1.745,0.005
09:35:40.436,-1.81,-0.265
09:35:40.440,-1.79,-0.44
09:35:40.444,-1.71,-0.495
09:35:40.448,-1.66,-0.55
09:35:40.452,-1.635,-0.61
09:35:40.456,-1.64,-0.7
09:35:40.460,-1.7,-0.7
09:35:40.464,-1.795,-0.715
09:35:40.468,-1.84,-0.715
09:35:40.472,-1.85,-0.76
09:35:40.476,-1.84,-0.825
09:35:40.480,-1.83,-0.85
09:35:40.484,-1.8,-0.9
09:35:40.488,-1.79,-0.955
09:35:40.492,-1.81,-1.0
09:35:40.496,-1.87,-0.985
09:35:40.500,-1.89,-1.015
09:35:40.504,-1.91,-1.025
09:35:40.508,-1.93,-1.02
09:35:40.512,-1.93,-1.07
09:35:40.516,-1.96,-1.115
09:35:40.520,-2.02,-1.155
09:35:40.524,-2.1,-1.2
09:35:40.528,-2.23,-1.25
09:35:40.532,-2.325,-1.31
09:35:40.536,-2.405,-1.335
09:35:40.540,-2.415,-1.41
09:35:40.544,-2.465,-1.465
09:35:40.548,-2.495,-1.495
09:35:40.552,-2.515,-1.54
09:35:40.556,-2.555,-1.575
09:35:40.560,-2.605,-1.625
09:35:40.564,-2.605,-1.675
09:35:40.568,-2.625,-1.75
09:35:40.572,-2.695,-1.825
09:35:40.576,-2.745,-1.885
09:35:40.580,-2.79,-1.97
09:35:40.584,-2.79,-1.995
09:35:40.588,-2.815,-2.055
09:35:40.592,-2.83,-2.125
09:35:40.596,-2.785,-2.19
09:35:40.600,-2.76,-2.24
09:35:40.604,-2.765,-2.285
09:35:40.608,-2.81,-2.34
09:35:40.612,-2.81,-2.365
09:35:40.616,-2.77,-2.4
09:35:40.620,-2.705,-2.4
09:35:40.624,-2.65,-2.425
09:35:40.628,-2.565,-2.44
09:35:40.632,-2.485,-2.46
09:35:40.636,-2.39,-2.465
09:35:40.640,-2.31,-2.475
09:35:40.644,-2.205,-2.455
09:35:40.648,-2.09,-2.42
09:35:40.652,-2.0,-2.375
09:35:40.656,-1.985,-2.345
09:35:40.660,-1.915,-2.3
09:35:40.664,-1.815,-2.255
09:35:40.668,-1.67,-2.18
09:35:40.672,-1.48,-2.095
09:35:40.676,-1.38,-2.03
09:35:40.680,-1.3,-1.94
09:35:40.684,-1.21,-1.895
09:35:40.688,-1.105,-1.785
09:35:40.692,-1.02,-1.66
09:35:40.696,-1.015,-1.5
09:35:40.700,-1.005,-1.375
09:35:40.704,-0.99,-1.24
09:35:40.708,-0.89,-1.09
09:35:40.712,-0.78,-0.965
09:35:40.716,-0.77,-0.84
09:35:40.720,-0.825,-0.73
09:35:40.724,-0.845,-0.64
09:35:40.728,-0.77,-0.55
09:35:40.732,-0.705,-0.455
09:35:40.736,-0.71,-0.345
09:35:40.740,-0.725,-0.27
09:35:40.744,-0.7,-0.245
09:35:40.748,-0.66,-0.165
09:35:40.752,-0.65,-0.16
09:35:40.756,-0.715,-0.12
09:35:40.760,-0.78,-0.115
09:35:40.764,-0.74,-0.09
09:35:40.768,-0.73,-0.05
09:35:40.772,-0.73,-0.04
09:35:40.776,-0.755,-0.02
09:35:40.780,-0.71,-0.015
09:35:40.784,-0.675,-0.015
09:35:40.788,-0.725,-0.02
09:35:40.792,-0.72,-0.005
09:35:40.796,-0.665,0.02
09:35:40.800,-0.66,0.025
09:35:40.804,-0.705,0.01
09:35:40.808,-0.66,0.085
09:35:40.812,-0.7,0.08
09:35:40.816,-0.72,0.105
09:35:40.820,-0.725,0.125
09:35:40.824,-0.685,0.135
09:35:40.828,-0.65,0.185
09:35:40.832,-0.57,0.19
09:35:40.836,-0.49,0.22
09:35:40.840,-0.525,0.22
09:35:40.844,-0.675,0.215
09:35:40.848,-0.775,0.205
09:35:40.852,-0.775,0.22
09:35:40.856,-0.81,0.26
09:35:40.860,-0.8,0.275
09:35:40.864,-0.79,0.305
09:35:40.868,-0.74,0.31
09:35:40.872,-0.645,0.315
09:35:40.876,-0.585,0.295
09:35:40.880,-0.59,0.29
09:35:40.884,-0.615,0.275
09:35:40.888,-0.585,0.28
09:35:40.892,-0.54,0.24
09:35:40.896,-0.53,0.225
09:35:40.900,-0.54,0.21
09:35:40.904,-0.525,0.245
09:35:40.908,-0.52,0.28
09:35:40.912,-0.535,0.27
09:35:40.916,-0.51,0.28
09:35:40.920,-0.485,0.275
09:35:40.924,-0.5,0.295
09:35:40.928,-0.49,0.315
09:35:40.932,-0.46,0.28
09:35:40.936,-0.455,0.265
09:35:40.940,-0.43,0.27
09:35:40.944,-0.415,0.27
09:35:40.948,-0.455,0.27
09:35:40.952,-0.54,0.27
09:35:40.956,-0.63,0.28
09:35:40.960,-0.7,0.3
09:35:40.964,-0.73,0.29
09:35:40.968,-0.73,0.305
09:35:40.972,-0.62,0.29
09:35:40.976,-0.555,0.295
09:35:40.980,-0.49,0.275
09:35:40.984,-0.375,0.255
09:35:40.988,-0.21,0.245
09:35:40.992,-0.18,0.315
09:35:40.996,-0.25,0.415
09:35:41.000,-0.33,0.545
09:35:41.004,-0.52,0.51
09:35:41.008,-0.835,0.185
09:35:41.012,-1.155,-0.315
09:35:41.016,-1.425,-0.86
09:35:41.020,-1.555,-1.655
09:35:41.024,-1.605,-2.595
09:35:41.028,-1.585,-3.39
09:35:41.032,-1.57,-3.94
09:35:41.036,-1.665,-4.35
09:35:41.040,-1.755,-4.605
09:35:41.044,-1.77,-4.725
09:35:41.048,-1.715,-4.77
09:35:41.052,-1.72,-4.7
09:35:41.056,-1.835,-4.585
09:35:41.060,-1.895,-4.445
09:35:41.064,-1.91,-4.34
09:35:41.068,-1.925,-4.225
09:35:41.072,-1.9,-4.095
09:35:41.076,-1.78,-3.97
09:35:41.080,-1.555,-3.795
09:35:41.084,-1.33,-3.47
09:35:41.088,-1.195,-3.185
09:35:41.092,-1.195,-2.87
09:35:41.096,-1.335,-2.52
09:35:41.100,-1.285,-2.12
09:35:41.104,-1.125,-1.695
09:35:41.108,-0.995,-1.26
09:35:41.112,-0.905,-0.87
09:35:41.116,-0.765,-0.585
09:35:41.120,-0.55,-0.375
09:35:41.124,-0.41,-0.165
09:35:41.128,-0.41,0.005
09:35:41.132,-0.42,0.175
09:35:41.136,-0.335,0.375
09:35:41.140,-0.21,0.57
09:35:41.144,-0.19,0.705
09:35:41.148,-0.205,0.835
09:35:41.152,-0.19,0.905
09:35:41.156,-0.18,0.955
09:35:41.160,-0.155,0.995
09:35:41.164,-0.115,1.01
09:35:41.168,-0.1,1.03
09:35:41.172,-0.11,1.035
09:35:41.176,-0.09,1.065
09:35:41.180,-0.045,1.07
09:35:41.184,-0.025,1.065
09:35:41.188,-0.025,1.08
09:35:41.192,-0.06,1.105
09:35:41.196,-0.04,1.12
09:35:41.200,0.045,1.14
09:35:41.204,0.085,1.155
09:35:41.208,0.135,1.2
09:35:41.212,0.16,1.2
09:35:41.216,0.11,1.23
09:35:41.220,0.075,1.24
09:35:41.224,0.095,1.29
09:35:41.228,0.13,1.325
09:35:41.232,0.155,1.365
09:35:41.236,0.18,1.345
09:35:41.240,0.17,1.375
09:35:41.244,0.145,1.405
09:35:41.248,0.14,1.41
09:35:41.252,0.175,1.445
09:35:41.256,0.25,1.45
09:35:41.260,0.315,1.495
09:35:41.264,0.355,1.495
09:35:41.268,0.315,1.505
09:35:41.272,0.215,1.515
09:35:41.276,0.14,1.56
09:35:41.280,0.165,1.6
09:35:41.284,0.245,1.615
09:35:41.288,0.295,1.6
09:35:41.292,0.275,1.625
09:35:41.296,0.36,1.645
09:35:41.300,0.505,1.605
09:35:41.304,0.57,1.62
09:35:41.308,0.46,1.615
09:35:41.312,0.31,1.645
09:35:41.316,0.24,1.63
09:35:41.320,0.215,1.63
09:35:41.324,0.195,1.6
09:35:41.328,0.185,1.605
09:35:41.332,0.23,1.62
09:35:41.336,0.27,1.605
09:35:41.340,0.255,1.565
09:35:41.344,0.125,1.525
09:35:41.348,0.055,1.515
09:35:41.352,0.05,1.43
09:35:41.356,-0.005,1.38
09:35:41.360,-0.075,1.32
09:35:41.364,-0.125,1.27
09:35:41.368,-0.145,1.195
09:35:41.372,-0.155,1.16
09:35:41.376,-0.185,1.085
09:35:41.380,-0.28,1.015
09:35:41.384,-0.38,0.96
09:35:41.388,-0.465,0.905
09:35:41.392,-0.505,0.83
09:35:41.396,-0.49,0.82
09:35:41.400,-0.52,0.745
09:35:41.404,-0.53,0.695
09:35:41.408,-0.56,0.63
09:35:41.412,-0.585,0.605
09:35:41.416,-0.64,0.58
09:35:41.420,-0.675,0.525
09:35:41.424,-0.69,0.52
09:35:41.428,-0.72,0.525
09:35:41.432,-0.775,0.485
09:35:41.436,-0.815,0.5
09:35:41.440,-0.8,0.47
09:35:41.444,-0.81,0.45
09:35:41.448,-0.835,0.46
09:35:41.452,-0.91,0.46
09:35:41.456,-0.89,0.435
09:35:41.460,-0.82,0.455
09:35:41.464,-0.77,0.45
09:35:41.468,-0.8,0.455
09:35:41.472,-0.81,0.445
09:35:41.476,-0.82,0.425
09:35:41.480,-0.81,0.435
09:35:41.484,-0.785,0.42
09:35:41.488,-0.78,0.33
09:35:41.492,-0.775,0.28
09:35:41.496,-0.75,0.29
09:35:41.500,-0.705,0.28
09:35:41.504,-0.65,0.27
09:35:41.508,-0.595,0.315
09:35:41.512,-0.58,0.32
09:35:41.516,-0.605,0.325
09:35:41.520,-0.6,0.335
09:35:41.524,-0.6,0.365
09:35:41.528,-0.605,0.38
09:35:41.532,-0.57,0.37
09:35:41.536,-0.555,0.395
09:35:41.540,-0.505,0.39
09:35:41.544,-0.445,0.355
09:35:41.548,-0.415,0.365
09:35:41.552,-0.435,0.395
09:35:41.556,-0.49,0.36
09:35:41.560,-0.59,0.375
09:35:41.564,-0.64,0.4
09:35:41.568,-0.655,0.37
09:35:41.572,-0.59,0.37
09:35:41.576,-0.555,0.395
09:35:41.580,-0.57,0.405
09:35:41.584,-0.69,0.365
09:35:41.588,-0.8,0.365
09:35:41.592,-0.825,0.35
09:35:41.596,-0.785,0.34
09:35:41.600,-0.74,0.32
09:35:41.604,-0.755,0.31
09:35:41.608,-0.785,0.33
09:35:41.612,-0.8,0.305
09:35:41.616,-0.8,0.29
09:35:41.620,-0.78,0.295
09:35:41.624,-0.785,0.285
09:35:41.628,-0.825,0.28
09:35:41.632,-0.865,0.255
09:35:41.636,-0.93,0.26
09:35:41.640,-0.92,0.25
09:35:41.644,-0.875,0.23
09:35:41.648,-0.79,0.265
09:35:41.652,-0.765,0.285
09:35:41.656,-0.845,0.275
09:35:41.660,-0.885,0.225
09:35:41.664,-0.92,0.22
09:35:41.668,-0.91,0.275
09:35:41.672,-0.895,0.285
09:35:41.676,-0.88,0.225
09:35:41.680,-0.915,0.185
09:35:41.684,-0.925,0.19
09:35:41.688,-0.93,0.22
09:35:41.692,-0.91,0.235
09:35:41.696,-0.87,0.19
09:35:41.700,-0.815,0.175
09:35:41.704,-0.785,0.18
09:35:41.708,-0.715,0.125
09:35:41.712,-0.68,0.075
09:35:41.716,-0.705,0.085
09:35:41.720,-0.765,0.105
09:35:41.724,-0.755,0.115
09:35:41.728,-0.73,0.1
09:35:41.732,-0.73,0.08
09:35:41.736,-0.695,0.06
09:35:41.740,-0.64,0.075
09:35:41.744,-0.67,0.08
09:35:41.748,-0.68,0.1
09:35:41.752,-0.625,0.115
09:35:41.756,-0.6,0.14
09:35:41.760,-0.62,0.145
09:35:41.764,-0.63,0.18
09:35:41.768,-0.63,0.165
09:35:41.772,-0.63,0.16
09:35:41.776,-0.64,0.17
09:35:41.780,-0.665,0.175
09:35:41.784,-0.65,0.17
09:35:41.788,-0.62,0.17
09:35:41.792,-0.59,0.175
09:35:41.796,-0.6,0.16
09:35:41.800,-0.63,0.14
09:35:41.804,-0.69,0.13
09:35:41.808,-0.775,0.125
09:35:41.812,-0.775,0.155
09:35:41.816,-0.745,0.155
09:35:41.820,-0.725,0.125
09:35:41.824,-0.7,0.105
09:35:41.828,-0.755,0.135
09:35:41.832,-0.845,0.155
09:35:41.836,-0.88,0.165
09:35:41.840,-0.85,0.175
09:35:41.844,-0.78,0.195
09:35:41.848,-0.775,0.195
09:35:41.852,-0.835,0.205
09:35:41.856,-0.845,0.18
09:35:41.860,-0.805,0.16
09:35:41.864,-0.82,0.16
09:35:41.868,-0.86,0.195
09:35:41.872,-0.89,0.23
09:35:41.876,-0.85,0.225
09:35:41.880,-0.86,0.19
09:35:41.884,-0.87,0.13
09:35:41.888,-0.85,0.14
09:35:41.892,-0.84,0.165
09:35:41.896,-0.84,0.19
09:35:41.900,-0.825,0.195
09:35:41.904,-0.825,0.155
09:35:41.908,-0.81,0.135
09:35:41.912,-0.795,0.14
09:35:41.916,-0.82,0.165
09:35:41.920,-0.79,0.14
09:35:41.924,-0.755,0.155
09:35:41.928,-0.785,0.145
09:35:41.932,-0.715,0.17
09:35:41.936,-0.7,0.18
09:35:41.940,-0.71,0.22
09:35:41.944,-0.72,0.185
09:35:41.948,-0.705,0.185
09:35:41.952,-0.72,0.21
09:35:41.956,-0.69,0.215
09:35:41.960,-0.64,0.2
09:35:41.964,-0.58,0.23
09:35:41.968,-0.585,0.22
09:35:41.972,-0.625,0.21
09:35:41.976,-0.65,0.225
09:35:41.980,-0.65,0.245
09:35:41.984,-0.61,0.225
09:35:41.988,-0.63,0.245
09:35:41.992,-0.645,0.23
09:35:41.996,-0.665,0.17
09:35:42.000,-0.675,0.12
09:35:42.004,-0.66,0.14
09:35:42.008,-0.68,0.105
09:35:42.012,-0.715,0.05
09:35:42.016,-0.74,0.065
09:35:42.020,-0.725,0.055
09:35:42.024,-0.69,0.095
09:35:42.028,-0.725,0.075
09:35:42.032,-0.765,0.065
09:35:42.036,-0.785,0.105
09:35:42.040,-0.78,0.125
09:35:42.044,-0.79,0.07
09:35:42.048,-0.78,0.03
09:35:42.052,-0.74,0.075
09:35:42.056,-0.66,0.095
09:35:42.060,-0.615,0.13
09:35:42.064,-0.58,0.115
09:35:42.068,-0.475,0.075
09:35:42.072,-0.33,0.07
09:35:42.076,-0.245,0.115
09:35:42.080,-0.24,0.155
09:35:42.084,-0.3,0.235
09:35:42.088,-0.46,0.315
09:35:42.092,-0.72,0.165
09:35:42.096,-1.05,-0.22
09:35:42.100,-1.3,-0.69
09:35:42.104,-1.41,-1.28
09:35:42.108,-1.415,-2.135
09:35:42.112,-1.425,-2.94
09:35:42.116,-1.41,-3.58
09:35:42.120,-1.45,-4.08
09:35:42.124,-1.56,-4.45
09:35:42.128,-1.615,-4.66
09:35:42.132,-1.575,-4.775
09:35:42.136,-1.565,-4.745
09:35:42.140,-1.66,-4.615
09:35:42.144,-1.735,-4.415
09:35:42.148,-1.71,-4.29
09:35:42.152,-1.65,-4.17
09:35:42.156,-1.58,-4.025
09:35:42.160,-1.515,-3.915
09:35:42.164,-1.42,-3.74
09:35:42.168,-1.3,-3.49
09:35:42.172,-1.24,-3.21
09:35:42.176,-1.275,-2.905
09:35:42.180,-1.32,-2.575
09:35:42.184,-1.3,-2.185
09:35:42.188,-1.225,-1.735
09:35:42.192,-1.09,-1.325
09:35:42.196,-0.92,-0.975
09:35:42.200,-0.735,-0.695
09:35:42.204,-0.61,-0.455
09:35:42.208,-0.535,-0.26
09:35:42.212,-0.52,-0.175
09:35:42.216,-0.51,-0.035
09:35:42.220,-0.48,0.13
09:35:42.224,-0.43,0.25
09:35:42.228,-0.465,0.405
09:35:42.232,-0.45,0.525
09:35:42.236,-0.375,0.57
09:35:42.240,-0.335,0.59
09:35:42.244,-0.355,0.645
09:35:42.248,-0.375,0.69
09:35:42.252,-0.385,0.745
09:35:42.256,-0.365,0.775
09:35:42.260,-0.32,0.775
09:35:42.264,-0.27,0.775
09:35:42.268,-0.305,0.84
09:35:42.272,-0.345,0.865
09:35:42.276,-0.415,0.87
09:35:42.280,-0.42,0.855
09:35:42.284,-0.385,0.87
09:35:42.288,-0.355,0.875
09:35:42.292,-0.365,0.905
09:35:42.296,-0.365,0.94
09:35:42.300,-0.33,0.975
09:35:42.304,-0.28,0.935
09:35:42.308,-0.3,0.93
09:35:42.312,-0.34,0.975
09:35:42.316,-0.35,0.975
09:35:42.320,-0.345,0.995
09:35:42.324,-0.335,0.99
09:35:42.328,-0.33,0.995
09:35:42.332,-0.29,1.04
09:35:42.336,-0.27,1.06
09:35:42.340,-0.23,1.075
09:35:42.344,-0.22,1.1
09:35:42.348,-0.25,1.14
09:35:42.352,-0.28,1.15
09:35:42.356,-0.275,1.2
09:35:42.360,-0.235,1.22
09:35:42.364,-0.225,1.24
09:35:42.368,-0.315,1.26
09:35:42.372,-0.33,1.27
09:35:42.376,-0.325,1.275
09:35:42.380,-0.315,1.285
09:35:42.384,-0.29,1.32
09:35:42.388,-0.305,1.325
09:35:42.392,-0.335,1.365
09:35:42.396,-0.34,1.375
09:35:42.400,-0.39,1.375
09:35:42.404,-0.39,1.42
09:35:42.408,-0.39,1.405
09:35:42.412,-0.415,1.41
09:35:42.416,-0.495,1.4
09:35:42.420,-0.55,1.33
09:35:42.424,-0.555,1.275
09:35:42.428,-0.53,1.215
09:35:42.432,-0.52,1.16
09:35:42.436,-0.51,1.12
09:35:42.440,-0.48,1.08
09:35:42.444,-0.53,1.025
09:35:42.448,-0.585,1.0
09:35:42.452,-0.645,0.955
09:35:42.456,-0.72,0.91
09:35:42.460,-0.785,0.81
09:35:42.464,-0.8,0.765
09:35:42.468,-0.805,0.715
09:35:42.472,-0.835,0.65
09:35:42.476,-0.795,0.59
09:35:42.480,-0.78,0.56
09:35:42.484,-0.75,0.515
09:35:42.488,-0.725,0.45
09:35:42.492,-0.74,0.405
09:35:42.496,-0.745,0.37
09:35:42.500,-0.755,0.32
09:35:42.504,-0.74,0.295
09:35:42.508,-0.725,0.25
09:35:42.512,-0.72,0.215
09:35:42.516,-0.7,0.215
09:35:42.520,-0.715,0.24
09:35:42.524,-0.715,0.235
09:35:42.528,-0.665,0.215
09:35:42.532,-0.64,0.21
09:35:42.536,-0.65,0.22
09:35:42.540,-0.66,0.215
09:35:42.544,-0.655,0.225
09:35:42.548,-0.645,0.23
09:35:42.552,-0.64,0.235
09:35:42.556,-0.555,0.255
09:35:42.560,-0.525,0.26
09:35:42.564,-0.575,0.28
09:35:42.568,-0.625,0.27
09:35:42.572,-0.685,0.28
09:35:42.576,-0.69,0.29
09:35:42.580,-0.7,0.3
09:35:42.584,-0.74,0.31
09:35:42.588,-0.74,0.31
09:35:42.592,-0.73,0.285
09:35:42.596,-0.705,0.325
09:35:42.600,-0.68,0.34
09:35:42.604,-0.63,0.325
09:35:42.608,-0.61,0.345
09:35:42.612,-0.625,0.37
09:35:42.616,-0.665,0.395
09:35:42.620,-0.675,0.37
09:35:42.624,-0.735,0.38
09:35:42.628,-0.765,0.4
09:35:42.632,-0.78,0.35
09:35:42.636,-0.755,0.33
09:35:42.640,-0.715,0.29
09:35:42.644,-0.705,0.255
09:35:42.648,-0.665,0.245
09:35:42.652,-0.68,0.215
09:35:42.656,-0.64,0.215
09:35:42.660,-0.435,0.165
09:35:42.664,-0.15,0.175
09:35:42.668,-0.01,0.195
09:35:42.672,0.01,0.24
09:35:42.676,0.0,0.3
09:35:42.680,-0.15,0.385
09:35:42.684,-0.56,0.33
09:35:42.688,-1.025,0.055
09:35:42.692,-1.405,-0.4
09:35:42.696,-1.615,-0.98
09:35:42.700,-1.605,-1.835
09:35:42.704,-1.5,-2.67
09:35:42.708,-1.305,-3.385
09:35:42.712,-1.225,-3.93
09:35:42.716,-1.34,-4.325
09:35:42.720,-1.51,-4.585
09:35:42.724,-1.575,-4.735
09:35:42.728,-1.59,-4.725
09:35:42.732,-1.585,-4.605
09:35:42.736,-1.585,-4.46
09:35:42.740,-1.51,-4.32
09:35:42.744,-1.505,-4.195
09:35:42.748,-1.54,-4.09
09:35:42.752,-1.55,-3.98
09:35:42.756,-1.515,-3.785
09:35:42.760,-1.51,-3.495
09:35:42.764,-1.51,-3.22
09:35:42.768,-1.515,-2.9
09:35:42.772,-1.44,-2.54
09:35:42.776,-1.32,-2.13
09:35:42.780,-1.125,-1.72
09:35:42.784,-0.895,-1.295
09:35:42.788,-0.75,-0.97
09:35:42.792,-0.64,-0.705
09:35:42.796,-0.54,-0.48
09:35:42.800,-0.47,-0.28
09:35:42.804,-0.485,-0.06
09:35:42.808,-0.53,0.16
09:35:42.812,-0.56,0.335
09:35:42.816,-0.565,0.48
09:35:42.820,-0.525,0.61
09:35:42.824,-0.51,0.665
09:35:42.828,-0.435,0.73
09:35:42.832,-0.395,0.76
09:35:42.836,-0.34,0.78
09:35:42.840,-0.295,0.8
09:35:42.844,-0.265,0.83
09:35:42.848,-0.25,0.825
09:35:42.852,-0.195,0.82
09:35:42.856,-0.175,0.84
09:35:42.860,-0.19,0.83
09:35:42.864,-0.17,0.815
09:35:42.868,-0.12,0.825
09:35:42.872,-0.065,0.805
09:35:42.876,-0.005,0.81
09:35:42.880,-0.025,0.84
09:35:42.884,-0.02,0.87
09:35:42.888,0.025,0.88
09:35:42.892,-0.015,0.885
09:35:42.896,-0.1,0.895
09:35:42.900,-0.08,0.9
09:35:42.904,-0.035,0.915
09:35:42.908,0.075,0.945
09:35:42.912,0.135,0.97
09:35:42.916,0.135,0.995
09:35:42.920,0.165,1.03
09:35:42.924,0.14,1.03
09:35:42.928,0.08,1.07
09:35:42.932,0.06,1.105
09:35:42.936,0.08,1.155
09:35:42.940,0.13,1.165
09:35:42.944,0.14,1.21
09:35:42.948,0.205,1.225
09:35:42.952,0.215,1.255
09:35:42.956,0.235,1.265
09:35:42.960,0.225,1.295
09:35:42.964,0.26,1.31
09:35:42.968,0.265,1.33
09:35:42.972,0.255,1.36
09:35:42.976,0.16,1.37
09:35:42.980,0.12,1.38
09:35:42.984,0.095,1.355
09:35:42.988,0.09,1.365
09:35:42.992,0.03,1.345
09:35:42.996,-0.03,1.32
09:35:43.000,-0.045,1.305
09:35:43.004,-0.02,1.275
09:35:43.008,-0.075,1.22
09:35:43.012,-0.21,1.165
09:35:43.016,-0.34,1.12
09:35:43.020,-0.39,1.065
09:35:43.024,-0.42,1.005
09:35:43.028,-0.465,0.96
09:35:43.032,-0.515,0.91
09:35:43.036,-0.51,0.845
09:35:43.040,-0.54,0.79
09:35:43.044,-0.56,0.755
09:35:43.048,-0.56,0.69
09:35:43.052,-0.585,0.65
09:35:43.056,-0.61,0.59
09:35:43.060,-0.61,0.54
09:35:43.064,-0.61,0.465
09:35:43.068,-0.56,0.44
09:35:43.072,-0.57,0.41
09:35:43.076,-0.685,0.38
09:35:43.080,-0.74,0.33
09:35:43.084,-0.735,0.28
09:35:43.088,-0.68,0.245
09:35:43.092,-0.615,0.225
09:35:43.096,-0.53,0.22
09:35:43.100,-0.56,0.215
09:35:43.104,-0.575,0.21
09:35:43.108,-0.525,0.21
09:35:43.112,-0.48,0.19
09:35:43.116,-0.46,0.235
09:35:43.120,-0.575,0.215
09:35:43.124,-0.62,0.21
09:35:43.128,-0.585,0.195
09:35:43.132,-0.5,0.21
09:35:43.136,-0.515,0.225
09:35:43.140,-0.49,0.245
09:35:43.144,-0.47,0.25
09:35:43.148,-0.45,0.255
09:35:43.152,-0.43,0.255
09:35:43.156,-0.41,0.265
09:35:43.160,-0.405,0.275
09:35:43.164,-0.355,0.29
09:35:43.168,-0.29,0.26
09:35:43.172,-0.355,0.28
09:35:43.176,-0.495,0.3
09:35:43.180,-0.52,0.3
09:35:43.184,-0.475,0.28
09:35:43.188,-0.425,0.285
09:35:43.192,-0.38,0.29
09:35:43.196,-0.375,0.305
09:35:43.200,-0.415,0.315
09:35:43.204,-0.365,0.3
09:35:43.208,-0.42,0.28
09:35:43.212,-0.53,0.27
09:35:43.216,-0.61,0.26
09:35:43.220,-0.61,0.235
09:35:43.224,-0.57,0.24
09:35:43.228,-0.565,0.245
09:35:43.232,-0.545,0.245
09:35:43.236,-0.525,0.245
09:35:43.240,-0.455,0.255
09:35:43.244,-0.25,0.26
09:35:43.248,-0.04,0.22
09:35:43.252,0.0,0.23
09:35:43.256,0.03,0.285
09:35:43.260,0.02,0.325
09:35:43.264,-0.065,0.43
09:35:43.268,-0.375,0.28
09:35:43.272,-0.76,-0.065
09:35:43.276,-1.12,-0.61
09:35:43.280,-1.315,-1.22
09:35:43.284,-1.32,-2.14
09:35:43.288,-1.335,-3.045
09:35:43.292,-1.275,-3.71
09:35:43.296,-1.345,-4.195
09:35:43.300,-1.48,-4.53
09:35:43.304,-1.565,-4.725
09:35:43.308,-1.6,-4.81
09:35:43.312,-1.58,-4.775
09:35:43.316,-1.605,-4.7
09:35:43.320,-1.57,-4.595
09:35:43.324,-1.51,-4.525
09:35:43.328,-1.495,-4.455
09:35:43.332,-1.49,-4.375
09:35:43.336,-1.39,-4.26
09:35:43.340,-1.28,-4.07
09:35:43.344,-1.245,-3.78
09:35:43.348,-1.245,-3.485
09:35:43.352,-1.26,-3.145
09:35:43.356,-1.31,-2.75
09:35:43.360,-1.295,-2.34
09:35:43.364,-1.11,-1.875
09:35:43.368,-0.935,-1.42
09:35:43.372,-0.76,-1.055
09:35:43.376,-0.565,-0.75
09:35:43.380,-0.43,-0.505
09:35:43.384,-0.34,-0.265
09:35:43.388,-0.28,-0.01
09:35:43.392,-0.245,0.17
09:35:43.396,-0.22,0.365
09:35:43.400,-0.205,0.515
09:35:43.404,-0.205,0.635
09:35:43.408,-0.2,0.74
09:35:43.412,-0.195,0.795
09:35:43.416,-0.2,0.83
09:35:43.420,-0.175,0.865
09:35:43.424,-0.16,0.9
09:35:43.428,-0.11,0.895
09:35:43.432,-0.09,0.915
09:35:43.436,-0.1,0.945
09:35:43.440,-0.05,1.0
09:35:43.444,-0.005,1.025
09:35:43.448,-0.015,1.055
09:35:43.452,-0.125,1.075
09:35:43.456,-0.21,1.1
09:35:43.460,-0.125,1.125
09:35:43.464,-0.055,1.18
09:35:43.468,0.005,1.19
09:35:43.472,0.1,1.235
09:35:43.476,0.19,1.205
09:35:43.480,0.175,1.2
09:35:43.484,0.075,1.19
09:35:43.488,-0.005,1.18
09:35:43.492,-0.05,1.215
09:35:43.496,-0.04,1.185
09:35:43.500,0.055,1.2
09:35:43.504,0.06,1.21
09:35:43.508,-0.045,1.255
09:35:43.512,-0.14,1.285
09:35:43.516,-0.15,1.28
09:35:43.520,-0.095,1.3
09:35:43.524,-0.06,1.31
09:35:43.528,0.0,1.34
09:35:43.532,0.02,1.365
09:35:43.536,0.0,1.395
09:35:43.540,-0.035,1.385
09:35:43.544,-0.005,1.425
09:35:43.548,-0.01,1.46
09:35:43.552,-0.045,1.475
09:35:43.556,-0.095,1.495
09:35:43.560,-0.175,1.5
09:35:43.564,-0.2,1.51
09:35:43.568,-0.18,1.51
09:35:43.572,-0.165,1.5
09:35:43.576,-0.175,1.46
09:35:43.580,-0.22,1.445
09:35:43.584,-0.245,1.395
09:35:43.588,-0.27,1.35
09:35:43.592,-0.275,1.325
09:35:43.596,-0.245,1.28
09:35:43.600,-0.275,1.24
09:35:43.604,-0.32,1.17
09:35:43.608,-0.375,1.07
09:35:43.612,-0.48,1.01
09:35:43.616,-0.58,0.935
09:35:43.620,-0.63,0.87
09:35:43.624,-0.57,0.815
09:35:43.628,-0.535,0.745
09:35:43.632,-0.52,0.7
09:35:43.636,-0.585,0.64
09:35:43.640,-0.64,0.58
09:35:43.644,-0.645,0.55
09:35:43.648,-0.62,0.505
09:35:43.652,-0.605,0.49
09:35:43.656,-0.61,0.48
09:35:43.660,-0.595,0.45
09:35:43.664,-0.635,0.455
09:35:43.668,-0.635,0.455
09:35:43.672,-0.6,0.46
09:35:43.676,-0.575,0.445
09:35:43.680,-0.515,0.415
09:35:43.684,-0.525,0.395
09:35:43.688,-0.535,0.36
09:35:43.692,-0.585,0.31
09:35:43.696,-0.665,0.27
09:35:43.700,-0.625,0.26
09:35:43.704,-0.59,0.265
09:35:43.708,-0.58,0.225
09:35:43.712,-0.545,0.22
09:35:43.716,-0.515,0.195
09:35:43.720,-0.535,0.195
09:35:43.724,-0.49,0.185
09:35:43.728,-0.51,0.175
09:35:43.732,-0.585,0.185
09:35:43.736,-0.65,0.205
09:35:43.740,-0.665,0.215
09:35:43.744,-0.69,0.2
09:35:43.748,-0.665,0.235
09:35:43.752,-0.635,0.235
09:35:43.756,-0.61,0.22
09:35:43.760,-0.57,0.265
09:35:43.764,-0.545,0.235
09:35:43.768,-0.555,0.245
09:35:43.772,-0.61,0.245
09:35:43.776,-0.655,0.26
09:35:43.780,-0.655,0.26
09:35:43.784,-0.625,0.255
09:35:43.788,-0.625,0.255
09:35:43.792,-0.615,0.245
09:35:43.796,-0.615,0.215
09:35:43.800,-0.61,0.215
09:35:43.804,-0.595,0.28
09:35:43.808,-0.59,0.305
09:35:43.812,-0.59,0.295
09:35:43.816,-0.585,0.265
09:35:43.820,-0.565,0.235
09:35:43.824,-0.56,0.26
09:35:43.828,-0.605,0.265
09:35:43.832,-0.565,0.25
09:35:43.836,-0.46,0.24
09:35:43.840,-0.49,0.23
09:35:43.844,-0.63,0.21
09:35:43.848,-0.81,0.21
09:35:43.852,-0.935,0.2
09:35:43.856,-0.93,0.185
09:35:43.860,-0.825,0.21
09:35:43.864,-0.785,0.235
09:35:43.868,-0.815,0.255
09:35:43.872,-0.86,0.265
09:35:43.876,-0.84,0.27
09:35:43.880,-0.775,0.275
09:35:43.884,-0.715,0.275
09:35:43.888,-0.685,0.25
09:35:43.892,-0.67,0.24
09:35:43.896,-0.635,0.27
09:35:43.900,-0.575,0.26
09:35:43.904,-0.56,0.27
09:35:43.908,-0.575,0.245
09:35:43.912,-0.62,0.22
09:35:43.916,-0.635,0.245
09:35:43.920,-0.63,0.22
09:35:43.924,-0.63,0.225
09:35:43.928,-0.655,0.17
09:35:43.932,-0.645,0.15
09:35:43.936,-0.64,0.13
09:35:43.940,-0.615,0.12
09:35:43.944,-0.625,0.135
09:35:43.948,-0.64,0.185
09:35:43.952,-0.585,0.185
09:35:43.956,-0.565,0.16
09:35:43.960,-0.6,0.165
09:35:43.964,-0.655,0.15
09:35:43.968,-0.745,0.15
09:35:43.972,-0.755,0.13
09:35:43.976,-0.77,0.085
09:35:43.980,-0.8,0.115
09:35:43.984,-0.825,0.11
09:35:43.988,-0.75,0.125
09:35:43.992,-0.73,0.135
09:35:43.996,-0.795,0.125
09:35:44.000,-0.855,0.13
09:35:44.004,-0.89,0.14
09:35:44.008,-0.915,0.15
09:35:44.012,-0.885,0.15
09:35:44.016,-0.855,0.115
09:35:44.020,-0.845,0.135
09:35:44.024,-0.83,0.115
09:35:44.028,-0.835,0.115
09:35:44.032,-0.85,0.13
09:35:44.036,-0.86,0.13
09:35:44.040,-0.865,0.12
09:35:44.044,-0.85,0.125
09:35:44.048,-0.855,0.12
09:35:44.052,-0.875,0.14
09:35:44.056,-0.865,0.125
09:35:44.060,-0.89,0.105
09:35:44.064,-0.89,0.095
09:35:44.068,-0.875,0.095
09:35:44.072,-0.74,0.085
09:35:44.076,-0.595,0.085
09:35:44.080,-0.49,0.1
09:35:44.084,-0.475,0.15
09:35:44.088,-0.5,0.23
09:35:44.092,-0.7,0.35
09:35:44.096,-1.065,0.25
09:35:44.100,-1.42,-0.16
09:35:44.104,-1.72,-0.71
09:35:44.108,-1.89,-1.455
09:35:44.112,-1.96,-2.37
09:35:44.116,-1.905,-3.27
09:35:44.120,-1.795,-3.93
09:35:44.124,-1.745,-4.36
09:35:44.128,-1.82,-4.695
09:35:44.132,-1.865,-4.865
09:35:44.136,-1.905,-4.95
09:35:44.140,-1.915,-4.975
09:35:44.144,-1.99,-4.865
09:35:44.148,-2.005,-4.765
09:35:44.152,-2.0,-4.665
09:35:44.156,-1.975,-4.515
09:35:44.160,-1.965,-4.44
09:35:44.164,-1.885,-4.34
09:35:44.168,-1.79,-4.195
09:35:44.172,-1.69,-3.94
09:35:44.176,-1.615,-3.67
09:35:44.180,-1.545,-3.36
09:35:44.184,-1.49,-3.005
09:35:44.188,-1.46,-2.585
09:35:44.192,-1.37,-2.135
09:35:44.196,-1.245,-1.685
09:35:44.200,-1.045,-1.28
09:35:44.204,-0.85,-0.96
09:35:44.208,-0.695,-0.69
09:35:44.212,-0.56,-0.445
09:35:44.216,-0.44,-0.235
09:35:44.220,-0.41,-0.015
09:35:44.224,-0.455,0.19
09:35:44.228,-0.48,0.375
09:35:44.232,-0.45,0.535
09:35:44.236,-0.375,0.625
09:35:44.240,-0.3,0.71
09:35:44.244,-0.345,0.745
09:35:44.248,-0.43,0.79
09:35:44.252,-0.45,0.77
09:35:44.256,-0.45,0.8
09:35:44.260,-0.385,0.865
09:35:44.264,-0.29,0.87
09:35:44.268,-0.255,0.87
09:35:44.272,-0.235,0.885
09:35:44.276,-0.24,0.9
09:35:44.280,-0.24,0.905
09:35:44.284,-0.25,0.915
09:35:44.288,-0.275,0.94
09:35:44.292,-0.26,0.96
09:35:44.296,-0.225,1.0
09:35:44.300,-0.185,0.985
09:35:44.304,-0.13,1.03
09:35:44.308,-0.065,1.08
09:35:44.312,-0.015,1.1
09:35:44.316,0.01,1.115
09:35:44.320,0.06,1.145
09:35:44.324,0.105,1.185
09:35:44.328,0.15,1.215
09:35:44.332,0.145,1.21
09:35:44.336,0.115,1.2
09:35:44.340,0.14,1.21
09:35:44.344,0.185,1.215
09:35:44.348,0.21,1.235
09:35:44.352,0.2,1.25
09:35:44.356,0.195,1.285
09:35:44.360,0.185,1.3
09:35:44.364,0.195,1.295
09:35:44.368,0.23,1.315
09:35:44.372,0.325,1.33
09:35:44.376,0.38,1.335
09:35:44.380,0.42,1.375
09:35:44.384,0.33,1.365
09:35:44.388,0.23,1.415
09:35:44.392,0.185,1.425
09:35:44.396,0.195,1.44
09:35:44.400,0.22,1.455
09:35:44.404,0.27,1.47
09:35:44.408,0.295,1.46
09:35:44.412,0.29,1.495
09:35:44.416,0.2,1.445
09:35:44.420,0.09,1.4
09:35:44.424,0.025,1.375
09:35:44.428,0.015,1.365
09:35:44.432,0.045,1.3
09:35:44.436,-0.005,1.28
09:35:44.440,-0.06,1.235
09:35:44.444,-0.135,1.145
09:35:44.448,-0.165,1.1
09:35:44.452,-0.17,1.045
09:35:44.456,-0.205,0.975
09:35:44.460,-0.235,0.9
09:35:44.464,-0.24,0.81
09:35:44.468,-0.275,0.71
09:35:44.472,-0.335,0.66
09:35:44.476,-0.35,0.575
09:35:44.480,-0.32,0.52
09:35:44.484,-0.275,0.46
09:35:44.488,-0.27,0.445
09:35:44.492,-0.32,0.41
09:35:44.496,-0.305,0.37
09:35:44.500,-0.335,0.32
09:35:44.504,-0.31,0.3
09:35:44.508,-0.28,0.32
09:35:44.512,-0.285,0.265
09:35:44.516,-0.265,0.275
09:35:44.520,-0.25,0.285
09:35:44.524,-0.21,0.275
09:35:44.528,-0.16,0.245
09:35:44.532,-0.135,0.255
09:35:44.536,-0.16,0.26
09:35:44.540,-0.165,0.275
09:35:44.544,-0.155,0.26
09:35:44.548,-0.1,0.265
09:35:44.552,-0.08,0.265
09:35:44.556,-0.025,0.22
09:35:44.560,0.04,0.195
09:35:44.564,0.06,0.155
09:35:44.568,0.005,0.155
09:35:44.572,-0.075,0.155
09:35:44.576,-0.05,0.125
09:35:44.580,-0.02,0.135
09:35:44.584,0.0,0.165
09:35:44.588,0.01,0.205
09:35:44.592,0.05,0.2
09:35:44.596,0.115,0.225
09:35:44.600,0.11,0.225
09:35:44.604,0.06,0.205
09:35:44.608,-0.04,0.225
09:35:44.612,-0.07,0.205
09:35:44.616,-0.04,0.205
09:35:44.620,0.05,0.215
09:35:44.624,0.01,0.23
09:35:44.628,-0.1,0.235
09:35:44.632,-0.17,0.255
09:35:44.636,-0.155,0.245
09:35:44.640,-0.13,0.215
09:35:44.644,-0.115,0.24
09:35:44.648,-0.12,0.24
09:35:44.652,-0.11,0.205
09:35:44.656,-0.075,0.185
09:35:44.660,-0.06,0.165
09:35:44.664,-0.07,0.16
09:35:44.668,-0.045,0.155
09:35:44.672,-0.065,0.165
09:35:44.676,-0.065,0.165
09:35:44.680,-0.1,0.195
09:35:44.684,-0.045,0.205
09:35:44.688,0.0,0.2
09:35:44.692,0.05,0.185
09:35:44.696,0.145,0.165
09:35:44.700,0.195,0.17
09:35:44.704,0.155,0.18
09:35:44.708,0.015,0.175
09:35:44.712,-0.05,0.18
09:35:44.716,0.0,0.19
09:35:44.720,0.065,0.2
09:35:44.724,0.105,0.21
09:35:44.728,0.14,0.23
09:35:44.732,0.175,0.23
09:35:44.736,0.195,0.225
09:35:44.740,0.215,0.19
09:35:44.744,0.235,0.16
09:35:44.748,0.275,0.155
09:35:44.752,0.29,0.14
09:35:44.756,0.33,0.115
09:35:44.760,0.35,0.105
09:35:44.764,0.41,0.085
09:35:44.768,0.525,0.08
09:35:44.772,0.705,0.085
09:35:44.776,0.855,0.08
09:35:44.780,0.895,0.115
09:35:44.784,0.88,0.195
09:35:44.788,0.725,0.26
09:35:44.792,0.425,0.22
09:35:44.796,0.03,-0.08
09:35:44.800,-0.34,-0.565
09:35:44.804,-0.595,-1.12
09:35:44.808,-0.725,-1.89
09:35:44.812,-0.69,-2.79
09:35:44.816,-0.665,-3.595
09:35:44.820,-0.75,-4.125
09:35:44.824,-0.9,-4.545
09:35:44.828,-1.065,-4.825
09:35:44.832,-1.17,-4.93
09:35:44.836,-1.155,-4.97
09:35:44.840,-1.12,-4.89
09:35:44.844,-1.145,-4.805
09:35:44.848,-1.155,-4.715
09:35:44.852,-1.175,-4.635
09:35:44.856,-1.195,-4.58
09:35:44.860,-1.17,-4.525
09:35:44.864,-1.09,-4.43
09:35:44.868,-0.93,-4.225
09:35:44.872,-0.825,-3.955
09:35:44.876,-0.77,-3.635
09:35:44.880,-0.715,-3.295
09:35:44.884,-0.595,-2.875
09:35:44.888,-0.43,-2.41
09:35:44.892,-0.28,-1.98
09:35:44.896,-0.06,-1.625
09:35:44.900,0.135,-1.25
09:35:44.904,0.315,-0.93
09:35:44.908,0.44,-0.665
09:35:44.912,0.525,-0.435
09:35:44.916,0.625,-0.21
09:35:44.920,0.66,0.015
09:35:44.924,0.7,0.22
09:35:44.928,0.7,0.37
09:35:44.932,0.73,0.53
09:35:44.936,0.77,0.625
09:35:44.940,0.855,0.7
09:35:44.944,0.895,0.725
09:35:44.948,0.965,0.76
09:35:44.952,0.945,0.785
09:35:44.956,0.94,0.79
09:35:44.960,0.98,0.8
09:35:44.964,1.01,0.795
09:35:44.968,1.02,0.78
09:35:44.972,1.06,0.8
09:35:44.976,1.065,0.795
09:35:44.980,1.085,0.815
09:35:44.984,1.15,0.835
09:35:44.988,1.17,0.83
09:35:44.992,1.15,0.85
09:35:44.996,1.1,0.835
09:35:45.000,1.065,0.875
09:35:45.004,1.09,0.885
09:35:45.008,1.15,0.91
09:35:45.012,1.195,0.9
09:35:45.016,1.22,0.91
09:35:45.020,1.245,0.95
09:35:45.024,1.25,1.01
09:35:45.028,1.235,1.05
09:35:45.032,1.26,1.045
09:35:45.036,1.25,1.07
09:35:45.040,1.205,1.08
09:35:45.044,1.18,1.125
09:35:45.048,1.165,1.15
09:35:45.052,1.19,1.19
09:35:45.056,1.2,1.185
09:35:45.060,1.225,1.195
09:35:45.064,1.22,1.205
09:35:45.068,1.265,1.225
09:35:45.072,1.295,1.27
09:35:45.076,1.34,1.305
09:35:45.080,1.375,1.295
09:35:45.084,1.395,1.365
09:35:45.088,1.355,1.375
09:35:45.092,1.315,1.39
09:35:45.096,1.295,1.405
09:35:45.100,1.29,1.415
09:35:45.104,1.265,1.43
09:35:45.108,1.26,1.435
09:35:45.112,1.265,1.425
09:35:45.116,1.255,1.395
09:35:45.120,1.255,1.39
09:35:45.124,1.17,1.37
09:35:45.128,1.085,1.33
09:35:45.132,1.1,1.295
09:35:45.136,1.085,1.235
09:35:45.140,1.04,1.185
09:35:45.144,0.965,1.13
09:35:45.148,0.945,1.075
09:35:45.152,0.955,1.0
09:35:45.156,0.965,0.94
09:35:45.160,0.985,0.845
09:35:45.164,1.0,0.725
09:35:45.168,1.015,0.63
09:35:45.172,0.97,0.555
09:35:45.176,0.92,0.515
09:35:45.180,0.87,0.455
09:35:45.184,0.84,0.41
09:35:45.188,0.83,0.345
09:35:45.192,0.885,0.3
09:35:45.196,0.94,0.26
09:35:45.200,0.89,0.225
09:35:45.204,0.88,0.18
09:35:45.208,0.89,0.175
09:35:45.212,0.86,0.14
09:35:45.216,0.85,0.135
09:35:45.220,0.87,0.12
09:35:45.224,0.895,0.1
09:35:45.228,0.92,0.105
09:35:45.232,0.94,0.11
09:35:45.236,0.95,0.115
09:35:45.240,0.985,0.1
09:35:45.244,1.05,0.09
09:35:45.248,1.045,0.07
09:35:45.252,0.95,0.075
09:35:45.256,0.91,0.075
09:35:45.260,0.91,0.1
09:35:45.264,0.975,0.15
09:35:45.268,1.005,0.14
09:35:45.272,1.04,0.14
09:35:45.276,1.135,0.15
09:35:45.280,1.25,0.155
09:35:45.284,1.295,0.14
09:35:45.288,1.305,0.18
09:35:45.292,1.28,0.235
09:35:45.296,1.125,0.345
09:35:45.300,0.75,0.325
09:35:45.304,0.21,0.055
09:35:45.308,-0.24,-0.36
09:35:45.312,-0.49,-0.9
09:35:45.316,-0.445,-1.665
09:35:45.320,-0.255,-2.49
09:35:45.324,-0.05,-3.23
09:35:45.328,-0.015,-3.815
09:35:45.332,-0.11,-4.285
09:35:45.336,-0.17,-4.565
09:35:45.340,-0.16,-4.7
09:35:45.344,-0.12,-4.74
09:35:45.348,-0.07,-4.68
09:35:45.352,-0.03,-4.56
09:35:45.356,-0.05,-4.47
09:35:45.360,-0.15,-4.39
09:35:45.364,-0.255,-4.335
09:35:45.368,-0.24,-4.245
09:35:45.372,-0.125,-4.125
09:35:45.376,0.105,-3.91
09:35:45.380,0.255,-3.645
09:35:45.384,0.265,-3.355
09:35:45.388,0.27,-3.065
09:35:45.392,0.29,-2.67
09:35:45.396,0.405,-2.235
09:35:45.400,0.575,-1.82
09:35:45.404,0.71,-1.455
09:35:45.408,0.905,-1.13
09:35:45.412,1.1,-0.89
09:35:45.416,1.245,-0.65
09:35:45.420,1.38,-0.395
09:35:45.424,1.4,-0.205
09:35:45.428,1.315,0.025
09:35:45.432,1.23,0.215
09:35:45.436,1.265,0.39
09:35:45.440,1.365,0.515
09:35:45.444,1.42,0.57
09:35:45.448,1.42,0.6
09:35:45.452,1.355,0.645
09:35:45.456,1.37,0.655
09:35:45.460,1.485,0.685
09:35:45.464,1.515,0.695
09:35:45.468,1.58,0.74
09:35:45.472,1.595,0.75
09:35:45.476,1.52,0.745
09:35:45.480,1.48,0.785
09:35:45.484,1.56,0.78
09:35:45.488,1.565,0.765
09:35:45.492,1.545,0.79
09:35:45.496,1.57,0.82
09:35:45.500,1.61,0.82
09:35:45.504,1.64,0.875
09:35:45.508,1.665,0.915
09:35:45.512,1.675,0.985
09:35:45.516,1.725,1.035
09:35:45.520,1.81,1.03
09:35:45.524,1.79,1.06
09:35:45.528,1.675,1.055
09:35:45.532,1.62,1.065
09:35:45.536,1.62,1.075
09:35:45.540,1.665,1.09
09:35:45.544,1.76,1.1
09:35:45.548,1.85,1.145
09:35:45.552,1.84,1.165
09:35:45.556,1.785,1.17
09:35:45.560,1.74,1.21
09:35:45.564,1.74,1.22
09:35:45.568,1.785,1.235
09:35:45.572,1.845,1.27
09:35:45.576,1.905,1.31
09:35:45.580,1.86,1.3
09:35:45.584,1.78,1.335
09:35:45.588,1.725,1.325
09:35:45.592,1.805,1.335
09:35:45.596,1.855,1.355
09:35:45.600,1.86,1.405
09:35:45.604,1.835,1.445
09:35:45.608,1.77,1.425
09:35:45.612,1.72,1.38
09:35:45.616,1.74,1.345
09:35:45.620,1.78,1.31
09:35:45.624,1.795,1.255
09:35:45.628,1.73,1.195
09:35:45.632,1.615,1.12
09:35:45.636,1.465,1.055
09:35:45.640,1.345,1.01
09:35:45.644,1.27,0.94
09:35:45.648,1.295,0.9
09:35:45.652,1.345,0.825
09:35:45.656,1.335,0.745
09:35:45.660,1.265,0.69
09:35:45.664,1.215,0.61
09:35:45.668,1.25,0.505
09:35:45.672,1.26,0.405
09:35:45.676,1.23,0.35
09:35:45.680,1.215,0.32
09:35:45.684,1.27,0.27
09:35:45.688,1.3,0.245
09:35:45.692,1.215,0.21
09:35:45.696,1.115,0.21
09:35:45.700,1.095,0.175
09:35:45.704,1.175,0.175
09:35:45.708,1.24,0.15
09:35:45.712,1.34,0.16
09:35:45.716,1.34,0.175
09:35:45.720,1.275,0.17
09:35:45.724,1.245,0.17
09:35:45.728,1.26,0.155
09:35:45.732,1.255,0.145
09:35:45.736,1.235,0.15
09:35:45.740,1.28,0.205
09:35:45.744,1.295,0.19
09:35:45.748,1.32,0.19
09:35:45.752,1.305,0.205
09:35:45.756,1.305,0.2
09:35:45.760,1.35,0.22
09:35:45.764,1.385,0.21
09:35:45.768,1.435,0.205
09:35:45.772,1.43,0.205
09:35:45.776,1.395,0.205
09:35:45.780,1.385,0.23
09:35:45.784,1.37,0.24
09:35:45.788,1.345,0.25
09:35:45.792,1.315,0.25
09:35:45.796,1.29,0.255
09:35:45.800,1.27,0.24
09:35:45.804,1.28,0.22
09:35:45.808,1.31,0.215
09:35:45.812,1.35,0.19
09:35:45.816,1.385,0.185
09:35:45.820,1.4,0.18
09:35:45.824,1.425,0.17
09:35:45.828,1.47,0.145
09:35:45.832,1.545,0.165
09:35:45.836,1.565,0.165
09:35:45.840,1.39,0.145
09:35:45.844,1.21,0.13
09:35:45.848,1.185,0.105
09:35:45.852,1.23,0.11
09:35:45.856,1.25,0.135
09:35:45.860,1.275,0.16
09:35:45.864,1.325,0.15
09:35:45.868,1.33,0.135
09:35:45.872,1.355,0.105
09:35:45.876,1.37,0.105
09:35:45.880,1.315,0.105
09:35:45.884,1.255,0.12
09:35:45.888,1.16,0.125
09:35:45.892,1.155,0.085
09:35:45.896,1.175,0.07
09:35:45.900,1.215,0.07
09:35:45.904,1.205,0.05
09:35:45.908,1.22,0.055
09:35:45.912,1.215,0.075
09:35:45.916,1.27,0.05
09:35:45.920,1.31,0.09
09:35:45.924,1.235,0.08
09:35:45.928,1.16,0.075
09:35:45.932,1.115,0.095
09:35:45.936,1.09,0.075
09:35:45.940,1.16,0.085
09:35:45.944,1.205,0.09
09:35:45.948,1.22,0.055
09:35:45.952,1.235,0.085
09:35:45.956,1.285,0.08
09:35:45.960,1.3,0.09
09:35:45.964,1.33,0.085
09:35:45.968,1.3,0.105
09:35:45.972,1.255,0.135
09:35:45.976,1.225,0.125
09:35:45.980,1.21,0.15
09:35:45.984,1.165,0.145
09:35:45.988,1.13,0.14
09:35:45.992,1.165,0.14
09:35:45.996,1.185,0.135
09:35:46.000,1.23,0.14
09:35:46.004,1.295,0.165
09:35:46.008,1.37,0.145
09:35:46.012,1.37,0.145
09:35:46.016,1.305,0.155
09:35:46.020,1.255,0.12
09:35:46.024,1.22,0.11
09:35:46.028,1.2,0.09
09:35:46.032,1.21,0.06
09:35:46.036,1.195,0.035
09:35:46.040,1.19,0.01
09:35:46.044,1.21,-0.015
09:35:46.048,1.255,-0.035
09:35:46.052,1.255,-0.02
09:35:46.056,1.225,0.0
09:35:46.060,1.22,-0.01
09:35:46.064,1.205,0.025
09:35:46.068,1.22,0.01
09:35:46.072,1.195,0.005
09:35:46.076,1.19,0.0
09:35:46.080,1.195,-0.005
09:35:46.084,1.17,0.005
09:35:46.088,1.16,-0.005
09:35:46.092,1.165,-0.015
09:35:46.096,1.14,-0.035
09:35:46.100,1.13,-0.035
09:35:46.104,1.16,-0.025
09:35:46.108,1.13,-0.035
09:35:46.112,1.05,-0.025
09:35:46.116,1.0,-0.02
09:35:46.120,0.975,-0.025
09:35:46.124,0.955,-0.05
09:35:46.128,0.96,-0.075
09:35:46.132,1.0,-0.06
09:35:46.136,0.975,-0.065
09:35:46.140,0.95,-0.065
09:35:46.144,0.995,-0.05
09:35:46.148,1.01,-0.04
09:35:46.152,0.99,-0.045
09:35:46.156,1.0,-0.07
09:35:46.160,1.005,-0.065
09:35:46.164,1.035,-0.06
09:35:46.168,1.075,-0.085
09:35:46.172,1.055,-0.065
09:35:46.176,1.06,-0.04
09:35:46.180,1.075,-0.075
09:35:46.184,1.085,-0.065
09:35:46.188,1.105,-0.035
09:35:46.192,1.105,-0.015
09:35:46.196,1.17,-0.025
09:35:46.200,1.27,-0.01
09:35:46.204,1.35,0.0
09:35:46.208,1.35,0.06
09:35:46.212,1.265,0.115
09:35:46.216,1.13,0.2
09:35:46.220,0.865,0.14
09:35:46.224,0.555,-0.24
09:35:46.228,0.245,-0.8
09:35:46.232,0.03,-1.455
09:35:46.236,0.0,-2.275
09:35:46.240,0.115,-3.145
09:35:46.244,0.325,-3.87
09:35:46.248,0.355,-4.32
09:35:46.252,0.25,-4.63
09:35:46.256,0.21,-4.82
09:35:46.260,0.29,-4.895
09:35:46.264,0.305,-4.935
09:35:46.268,0.17,-4.9
09:35:46.272,-0.055,-4.805
09:35:46.276,-0.14,-4.68
09:35:46.280,-0.135,-4.605
09:35:46.284,-0.105,-4.505
09:35:46.288,-0.105,-4.42
09:35:46.292,-0.085,-4.31
09:35:46.296,-0.015,-4.105
09:35:46.300,0.07,-3.88
09:35:46.304,0.14,-3.59
09:35:46.308,0.22,-3.27
09:35:46.312,0.32,-2.885
09:35:46.316,0.385,-2.485
09:35:46.320,0.435,-2.065
09:35:46.324,0.495,-1.65
09:35:46.328,0.625,-1.31
09:35:46.332,0.765,-1.015
09:35:46.336,0.885,-0.72
09:35:46.340,1.005,-0.5
09:35:46.344,1.025,-0.27
09:35:46.348,0.995,-0.06
09:35:46.352,0.955,0.145
09:35:46.356,1.05,0.295
09:35:46.360,1.22,0.445
09:35:46.364,1.21,0.555
09:35:46.368,1.035,0.62
09:35:46.372,0.885,0.645
09:35:46.376,0.84,0.66
09:35:46.380,0.905,0.67
09:35:46.384,1.0,0.745
09:35:46.388,1.035,0.76
09:35:46.392,1.005,0.79
09:35:46.396,1.01,0.795
09:35:46.400,1.01,0.84
09:35:46.404,1.065,0.87
09:35:46.408,1.095,0.915
09:35:46.412,1.085,0.945
09:35:46.416,1.06,0.935
09:35:46.420,1.025,0.965
09:35:46.424,1.045,0.965
09:35:46.428,1.05,0.985
09:35:46.432,1.045,1.0
09:35:46.436,1.025,1.0
09:35:46.440,1.0,0.995
09:35:46.444,0.99,0.995
09:35:46.448,0.97,0.995
09:35:46.452,1.01,1.0
09:35:46.456,1.025,1.0
09:35:46.460,1.045,1.005
09:35:46.464,1.06,1.005
09:35:46.468,1.04,1.045
09:35:46.472,1.035,1.105
09:35:46.476,1.03,1.11
09:35:46.480,1.025,1.15
09:35:46.484,1.045,1.17
09:35:46.488,1.065,1.205
09:35:46.492,1.01,1.225
09:35:46.496,0.925,1.25
09:35:46.500,0.895,1.25
09:35:46.504,0.86,1.25
09:35:46.508,0.83,1.3
09:35:46.512,0.87,1.315
09:35:46.516,0.91,1.33
09:35:46.520,0.945,1.375
09:35:46.524,0.975,1.415
09:35:46.528,0.965,1.44
09:35:46.532,0.95,1.44
09:35:46.536,0.94,1.465
09:35:46.540,0.915,1.445
09:35:46.544,0.905,1.45
09:35:46.548,0.88,1.43
09:35:46.552,0.84,1.425
09:35:46.556,0.81,1.405
09:35:46.560,0.765,1.375
09:35:46.564,0.725,1.345
09:35:46.568,0.69,1.285
09:35:46.572,0.67,1.255
09:35:46.576,0.635,1.185
09:35:46.580,0.56,1.12
09:35:46.584,0.525,1.06
09:35:46.588,0.525,0.995
09:35:46.592,0.52,0.945
09:35:46.596,0.54,0.89
09:35:46.600,0.535,0.83
09:35:46.604,0.51,0.74
09:35:46.608,0.52,0.715
09:35:46.612,0.56,0.69
09:35:46.616,0.57,0.65
09:35:46.620,0.545,0.585
09:35:46.624,0.56,0.525
09:35:46.628,0.565,0.445
09:35:46.632,0.505,0.375
09:35:46.636,0.385,0.315
09:35:46.640,0.29,0.285
09:35:46.644,0.29,0.25
09:35:46.648,0.355,0.24
09:35:46.652,0.405,0.22
09:35:46.656,0.435,0.19
09:35:46.660,0.41,0.155
09:35:46.664,0.37,0.14
09:35:46.668,0.38,0.145
09:35:46.672,0.34,0.115
09:35:46.676,0.3,0.12
09:35:46.680,0.26,0.11
09:35:46.684,0.22,0.1
09:35:46.688,0.225,0.11
09:35:46.692,0.305,0.11
09:35:46.696,0.375,0.135
09:35:46.700,0.355,0.15
09:35:46.704,0.285,0.15
09:35:46.708,0.235,0.155
09:35:46.712,0.245,0.17
09:35:46.716,0.26,0.17
09:35:46.720,0.26,0.21
09:35:46.724,0.235,0.215
09:35:46.728,0.225,0.215
09:35:46.732,0.24,0.22
09:35:46.736,0.29,0.24
09:35:46.740,0.31,0.23
09:35:46.744,0.3,0.2
09:35:46.748,0.285,0.225
09:35:46.752,0.295,0.225
09:35:46.756,0.315,0.235
09:35:46.760,0.315,0.225
09:35:46.764,0.315,0.21
09:35:46.768,0.31,0.205
09:35:46.772,0.325,0.2
09:35:46.776,0.365,0.225
09:35:46.780,0.385,0.215
09:35:46.784,0.395,0.19
09:35:46.788,0.46,0.22
09:35:46.792,0.445,0.21
09:35:46.796,0.35,0.235
09:35:46.800,0.285,0.255
09:35:46.804,0.33,0.235
09:35:46.808,0.345,0.23
09:35:46.812,0.315,0.245
09:35:46.816,0.38,0.27
09:35:46.820,0.48,0.26
09:35:46.824,0.55,0.215
09:35:46.828,0.52,0.235
09:35:46.832,0.46,0.195
09:35:46.836,0.44,0.155
09:35:46.840,0.26,0.115
09:35:46.844,0.155,0.1
09:35:46.848,0.175,0.105
09:35:46.852,0.23,0.12
09:35:46.856,0.25,0.085
09:35:46.860,0.225,0.1
09:35:46.864,0.215,0.075
09:35:46.868,0.225,0.04
09:35:46.872,0.225,0.02
09:35:46.876,0.22,0.015
09:35:46.880,0.23,-0.01
09:35:46.884,0.2,-0.005
09:35:46.888,0.16,-0.03
09:35:46.892,0.155,-0.025
09:35:46.896,0.2,0.01
09:35:46.900,0.235,-0.005
09:35:46.904,0.275,-0.02
09:35:46.908,0.385,-0.02
09:35:46.912,0.48,-0.015
09:35:46.916,0.495,0.03
09:35:46.920,0.42,0.08
09:35:46.924,0.21,0.17
09:35:46.928,-0.14,0.195
09:35:46.932,-0.59,-0.015
09:35:46.936,-0.96,-0.42
09:35:46.940,-1.24,-0.92
09:35:46.944,-1.37,-1.57
09:35:46.948,-1.465,-2.485
09:35:46.952,-1.57,-3.315
09:35:46.956,-1.585,-3.95
09:35:46.960,-1.56,-4.45
09:35:46.964,-1.525,-4.73
09:35:46.968,-1.49,-4.94
09:35:46.972,-1.43,-4.98
09:35:46.976,-1.345,-4.885
09:35:46.980,-1.275,-4.725
09:35:46.984,-1.225,-4.545
09:35:46.988,-1.22,-4.43
09:35:46.992,-1.2,-4.32
09:35:46.996,-1.08,-4.2
09:35:47.000,-0.835,-4.025
09:35:47.004,-0.615,-3.765
09:35:47.008,-0.46,-3.46
09:35:47.012,-0.395,-3.08
09:35:47.016,-0.315,-2.625
09:35:47.020,-0.24,-2.21
09:35:47.024,-0.16,-1.795
09:35:47.028,-0.06,-1.445
09:35:47.032,0.04,-1.1
09:35:47.036,0.18,-0.845
09:35:47.040,0.305,-0.605
09:35:47.044,0.395,-0.39
09:35:47.048,0.45,-0.185
09:35:47.052,0.49,-0.03
09:35:47.056,0.49,0.115
09:35:47.060,0.49,0.255
09:35:47.064,0.48,0.395
09:35:47.068,0.46,0.46
09:35:47.072,0.485,0.515
09:35:47.076,0.475,0.525
09:35:47.080,0.475,0.51
09:35:47.084,0.515,0.535
09:35:47.088,0.535,0.515
09:35:47.092,0.52,0.52
09:35:47.096,0.515,0.535
09:35:47.100,0.52,0.565
09:35:47.104,0.525,0.59
09:35:47.108,0.54,0.625
09:35:47.112,0.62,0.635
09:35:47.116,0.64,0.67
09:35:47.120,0.66,0.7
09:35:47.124,0.605,0.705
09:35:47.128,0.585,0.695
09:35:47.132,0.635,0.725
09:35:47.136,0.66,0.75
09:35:47.140,0.7,0.76
09:35:47.144,0.7,0.775
09:35:47.148,0.73,0.805
09:35:47.152,0.74,0.835
09:35:47.156,0.71,0.86
09:35:47.160,0.715,0.87
09:35:47.164,0.765,0.89
09:35:47.168,0.805,0.9
09:35:47.172,0.835,0.935
09:35:47.176,0.815,0.95
09:35:47.180,0.8,0.99
09:35:47.184,0.855,1.03
09:35:47.188,0.865,1.08
09:35:47.192,0.845,1.085
09:35:47.196,0.845,1.12
09:35:47.200,0.865,1.145
09:35:47.204,0.88,1.17
09:35:47.208,0.905,1.2
09:35:47.212,0.935,1.215
09:35:47.216,0.865,1.25
09:35:47.220,0.79,1.275
09:35:47.224,0.755,1.29
09:35:47.228,0.715,1.305
09:35:47.232,0.685,1.31
09:35:47.236,0.72,1.325
09:35:47.240,0.71,1.34
09:35:47.244,0.7,1.33
09:35:47.248,0.695,1.3
09:35:47.252,0.635,1.26
09:35:47.256,0.585,1.21
09:35:47.260,0.575,1.15
09:35:47.264,0.54,1.085
09:35:47.268,0.5,1.025
09:35:47.272,0.465,0.93
09:35:47.276,0.41,0.83
09:35:47.280,0.36,0.775
09:35:47.284,0.365,0.685
09:35:47.288,0.345,0.595
09:35:47.292,0.335,0.535
09:35:47.296,0.35,0.45
09:35:47.300,0.31,0.37
09:35:47.304,0.255,0.33
09:35:47.308,0.21,0.275
09:35:47.312,0.235,0.25
09:35:47.316,0.205,0.225
09:35:47.320,0.18,0.21
09:35:47.324,0.23,0.19
09:35:47.328,0.295,0.17
09:35:47.332,0.285,0.16
09:35:47.336,0.185,0.14
09:35:47.340,0.12,0.125
09:35:47.344,0.14,0.095
09:35:47.348,0.165,0.085
09:35:47.352,0.175,0.1
09:35:47.356,0.165,0.11
09:35:47.360,0.2,0.115
09:35:47.364,0.23,0.115
09:35:47.368,0.2,0.11
09:35:47.372,0.155,0.095
09:35:47.376,0.2,0.075
09:35:47.380,0.25,0.085
09:35:47.384,0.28,0.09
09:35:47.388,0.275,0.11
09:35:47.392,0.305,0.13
09:35:47.396,0.35,0.15
09:35:47.400,0.39,0.17
09:35:47.404,0.335,0.19
09:35:47.408,0.29,0.21
09:35:47.412,0.28,0.215
09:35:47.416,0.31,0.21
09:35:47.420,0.295,0.22
09:35:47.424,0.28,0.23
09:35:47.428,0.255,0.23
09:35:47.432,0.275,0.215
09:35:47.436,0.265,0.21
09:35:47.440,0.3,0.22
09:35:47.444,0.295,0.195
09:35:47.448,0.28,0.195
09:35:47.452,0.26,0.23
09:35:47.456,0.23,0.245
09:35:47.460,0.26,0.25
09:35:47.464,0.26,0.265
09:35:47.468,0.29,0.23
09:35:47.472,0.315,0.235
09:35:47.476,0.305,0.24
09:35:47.480,0.325,0.2
09:35:47.484,0.295,0.19
09:35:47.488,0.3,0.19
09:35:47.492,0.27,0.17
09:35:47.496,0.305,0.165
09:35:47.500,0.3,0.155
09:35:47.504,0.28,0.155
09:35:47.508,0.22,0.135
09:35:47.512,0.185,0.13
09:35:47.516,0.135,0.105
09:35:47.520,0.095,0.12
09:35:47.524,0.055,0.105
09:35:47.528,0.045,0.13
09:35:47.532,0.05,0.105
09:35:47.536,0.07,0.11
09:35:47.540,0.13,0.12
09:35:47.544,0.125,0.1
09:35:47.548,0.095,0.115
09:35:47.552,0.07,0.11
09:35:47.556,0.045,0.115
09:35:47.560,0.065,0.07
09:35:47.564,0.095,0.085
09:35:47.568,0.105,0.055
09:35:47.572,0.15,0.055
09:35:47.576,0.155,0.08
09:35:47.580,0.17,0.07
09:35:47.584,0.18,0.105
09:35:47.588,0.16,0.115
09:35:47.592,0.175,0.125
09:35:47.596,0.15,0.145
09:35:47.600,0.115,0.14
09:35:47.604,0.12,0.15
09:35:47.608,0.13,0.14
09:35:47.612,0.14,0.115
09:35:47.616,0.145,0.135
09:35:47.620,0.12,0.135
09:35:47.624,0.09,0.145
09:35:47.628,0.065,0.125
09:35:47.632,0.06,0.135
09:35:47.636,0.05,0.135
09:35:47.640,0.045,0.14
09:35:47.644,0.005,0.16
09:35:47.648,-0.01,0.14
09:35:47.652,-0.015,0.12
09:35:47.656,-0.005,0.1
09:35:47.660,0.0,0.075
09:35:47.664,0.06,0.06
09:35:47.668,0.135,0.045
09:35:47.672,0.225,0.05
09:35:47.676,0.305,0.075
09:35:47.680,0.305,0.115
09:35:47.684,0.255,0.225
09:35:47.688,0.2,0.31
09:35:47.692,0.015,0.27
09:35:47.696,-0.265,-0.02
09:35:47.700,-0.575,-0.555
09:35:47.704,-0.8,-1.115
09:35:47.708,-0.845,-1.925
09:35:47.712,-0.74,-2.835
09:35:47.716,-0.64,-3.62
09:35:47.720,-0.685,-4.205
09:35:47.724,-0.88,-4.58
09:35:47.728,-1.06,-4.85
09:35:47.732,-1.125,-4.97
09:35:47.736,-1.13,-4.99
09:35:47.740,-1.14,-4.865
09:35:47.744,-1.155,-4.745
09:35:47.748,-1.155,-4.65
09:35:47.752,-1.115,-4.54
09:35:47.756,-1.09,-4.47
09:35:47.760,-1.015,-4.4
09:35:47.764,-0.96,-4.225
09:35:47.768,-0.91,-3.95
09:35:47.772,-0.835,-3.675
09:35:47.776,-0.775,-3.395
09:35:47.780,-0.7,-3.03
09:35:47.784,-0.695,-2.65
09:35:47.788,-0.715,-2.215
09:35:47.792,-0.585,-1.78
09:35:47.796,-0.38,-1.405
09:35:47.800,-0.16,-1.08
09:35:47.804,-0.005,-0.82
09:35:47.808,0.06,-0.575
09:35:47.812,0.085,-0.375
09:35:47.816,0.125,-0.15
09:35:47.820,0.125,0.07
09:35:47.824,0.16,0.235
09:35:47.828,0.19,0.375
09:35:47.832,0.185,0.465
09:35:47.836,0.23,0.54
09:35:47.840,0.24,0.56
09:35:47.844,0.27,0.58
09:35:47.848,0.27,0.62
09:35:47.852,0.28,0.63
09:35:47.856,0.285,0.65
09:35:47.860,0.28,0.665
09:35:47.864,0.275,0.715
09:35:47.868,0.265,0.735
09:35:47.872,0.275,0.75
09:35:47.876,0.27,0.76
09:35:47.880,0.3,0.795
09:35:47.884,0.335,0.765
09:35:47.888,0.355,0.82
09:35:47.892,0.385,0.865
09:35:47.896,0.415,0.9
09:35:47.900,0.4,0.925
09:35:47.904,0.37,0.96
09:35:47.908,0.33,0.97
09:35:47.912,0.35,0.995
09:35:47.916,0.37,1.005
09:35:47.920,0.375,1.015
09:35:47.924,0.31,1.035
09:35:47.928,0.335,1.06
09:35:47.932,0.325,1.08
09:35:47.936,0.285,1.065
09:35:47.940,0.23,1.105
09:35:47.944,0.23,1.11
09:35:47.948,0.26,1.16
09:35:47.952,0.315,1.175
09:35:47.956,0.38,1.185
09:35:47.960,0.375,1.18
09:35:47.964,0.37,1.19
09:35:47.968,0.335,1.22
09:35:47.972,0.365,1.24
09:35:47.976,0.39,1.27
09:35:47.980,0.4,1.27
09:35:47.984,0.42,1.29
09:35:47.988,0.42,1.32
09:35:47.992,0.38,1.335
09:35:47.996,0.3,1.345
09:35:48.000,0.265,1.34
09:35:48.004,0.295,1.335
09:35:48.008,0.305,1.315
09:35:48.012,0.245,1.305
09:35:48.016,0.195,1.265
09:35:48.020,0.19,1.255
09:35:48.024,0.175,1.195
09:35:48.028,0.15,1.15
09:35:48.032,0.13,1.13
09:35:48.036,0.095,1.04
09:35:48.040,0.05,0.975
09:35:48.044,-0.005,0.92
09:35:48.048,-0.025,0.855
09:35:48.052,-0.09,0.79
09:35:48.056,-0.205,0.69
09:35:48.060,-0.25,0.66
09:35:48.064,-0.2,0.575
09:35:48.068,-0.16,0.525
09:35:48.072,-0.145,0.48
09:35:48.076,-0.175,0.445
09:35:48.080,-0.24,0.415
09:35:48.084,-0.305,0.405
09:35:48.088,-0.335,0.38
09:35:48.092,-0.325,0.345
09:35:48.096,-0.275,0.325
09:35:48.100,-0.23,0.29
09:35:48.104,-0.205,0.275
09:35:48.108,-0.17,0.23
09:35:48.112,-0.2,0.2
09:35:48.116,-0.285,0.185
09:35:48.120,-0.29,0.205
09:35:48.124,-0.27,0.165
09:35:48.128,-0.285,0.165
09:35:48.132,-0.31,0.15
09:35:48.136,-0.315,0.135
09:35:48.140,-0.285,0.12
09:35:48.144,-0.275,0.1
09:35:48.148,-0.23,0.07
09:35:48.152,-0.215,0.1
09:35:48.156,-0.24,0.095
09:35:48.160,-0.255,0.09
09:35:48.164,-0.295,0.1
09:35:48.168,-0.275,0.12
09:35:48.172,-0.22,0.125
09:35:48.176,-0.17,0.155
09:35:48.180,-0.195,0.155
09:35:48.184,-0.225,0.165
09:35:48.188,-0.23,0.14
09:35:48.192,-0.245,0.155
09:35:48.196,-0.26,0.185
09:35:48.200,-0.265,0.19
09:35:48.204,-0.225,0.205
09:35:48.208,-0.17,0.195
09:35:48.212,-0.165,0.22
09:35:48.216,-0.275,0.195
09:35:48.220,-0.36,0.22
09:35:48.224,-0.355,0.215
09:35:48.228,-0.345,0.22
09:35:48.232,-0.355,0.21
09:35:48.236,-0.39,0.195
09:35:48.240,-0.38,0.195
09:35:48.244,-0.32,0.175
09:35:48.248,-0.22,0.2
09:35:48.252,-0.2,0.195
09:35:48.256,-0.335,0.2
09:35:48.260,-0.375,0.225
09:35:48.264,-0.36,0.235
09:35:48.268,-0.375,0.225
09:35:48.272,-0.38,0.235
09:35:48.276,-0.4,0.25
09:35:48.280,-0.395,0.24
09:35:48.284,-0.35,0.24
09:35:48.288,-0.32,0.26
09:35:48.292,-0.32,0.235
09:35:48.296,-0.36,0.245
09:35:48.300,-0.375,0.24
09:35:48.304,-0.385,0.265
09:35:48.308,-0.385,0.255
09:35:48.312,-0.395,0.27
09:35:48.316,-0.38,0.25
09:35:48.320,-0.335,0.21
09:35:48.324,-0.295,0.185
09:35:48.328,-0.245,0.135
09:35:48.332,-0.28,0.105
09:35:48.336,-0.38,0.07
09:35:48.340,-0.405,0.08
09:35:48.344,-0.34,0.075
09:35:48.348,-0.355,0.065
09:35:48.352,-0.37,0.06
09:35:48.356,-0.32,0.045
09:35:48.360,-0.275,0.015
09:35:48.364,-0.305,0.025
09:35:48.368,-0.36,0.035
09:35:48.372,-0.415,0.055
09:35:48.376,-0.435,0.035
09:35:48.380,-0.395,0.04
09:35:48.384,-0.35,0.025
09:35:48.388,-0.33,0.045
09:35:48.392,-0.345,0.055
09:35:48.396,-0.36,0.055
09:35:48.400,-0.37,0.07
09:35:48.404,-0.385,0.045
09:35:48.408,-0.415,0.06
09:35:48.412,-0.42,0.055
09:35:48.416,-0.435,0.03
09:35:48.420,-0.44,0.03
09:35:48.424,-0.445,0.03
09:35:48.428,-0.45,0.03
09:35:48.432,-0.46,0.02
09:35:48.436,-0.455,0.015
09:35:48.440,-0.42,0.015
09:35:48.444,-0.445,0.02
09:35:48.448,-0.53,0.01
09:35:48.452,-0.555,0.01
09:35:48.456,-0.555,0.0
09:35:48.460,-0.56,-0.015
09:35:48.464,-0.595,-0.005
09:35:48.468,-0.61,0.01
09:35:48.472,-0.545,0.015
09:35:48.476,-0.485,0.04
09:35:48.480,-0.44,0.04
09:35:48.484,-0.32,0.05
09:35:48.488,-0.175,0.065
09:35:48.492,-0.085,0.115
09:35:48.496,-0.065,0.155
09:35:48.500,-0.155,0.255
09:35:48.504,-0.305,0.345
09:35:48.508,-0.505,0.26
09:35:48.512,-0.775,-0.09
09:35:48.516,-1.065,-0.595
09:35:48.520,-1.26,-1.2
09:35:48.524,-1.385,-2.115
09:35:48.528,-1.36,-3.065
09:35:48.532,-1.225,-3.765
09:35:48.536,-1.175,-4.305
09:35:48.540,-1.27,-4.655
09:35:48.544,-1.37,-4.865
09:35:48.548,-1.36,-4.99
09:35:48.552,-1.36,-5.0
09:35:48.556,-1.435,-4.965
09:35:48.560,-1.505,-4.855
09:35:48.564,-1.505,-4.775
09:35:48.568,-1.555,-4.7
09:35:48.572,-1.59,-4.635
09:35:48.576,-1.605,-4.545
09:35:48.580,-1.53,-4.415
09:35:48.584,-1.45,-4.205
09:35:48.588,-1.42,-3.945
09:35:48.592,-1.42,-3.66
09:35:48.596,-1.36,-3.34
09:35:48.600,-1.305,-2.975
09:35:48.604,-1.255,-2.54
09:35:48.608,-1.155,-2.085
09:35:48.612,-0.94,-1.655
09:35:48.616,-0.75,-1.26
09:35:48.620,-0.59,-0.955
09:35:48.624,-0.48,-0.72
09:35:48.628,-0.445,-0.52
09:35:48.632,-0.39,-0.295
09:35:48.636,-0.375,-0.095
09:35:48.640,-0.355,0.085
09:35:48.644,-0.34,0.265
09:35:48.648,-0.305,0.395
09:35:48.652,-0.275,0.5
09:35:48.656,-0.28,0.545
09:35:48.660,-0.26,0.59
09:35:48.664,-0.22,0.64
09:35:48.668,-0.22,0.64
09:35:48.672,-0.2,0.695
09:35:48.676,-0.205,0.75
09:35:48.680,-0.16,0.77
09:35:48.684,-0.125,0.79
09:35:48.688,-0.125,0.795
09:35:48.692,-0.09,0.8
09:35:48.696,-0.06,0.82
09:35:48.700,-0.025,0.81
09:35:48.704,-0.025,0.835
09:35:48.708,-0.035,0.875
09:35:48.712,0.01,0.91
09:35:48.716,0.07,0.935
09:35:48.720,0.13,0.995
09:35:48.724,0.145,1.0
09:35:48.728,0.11,1.01
09:35:48.732,0.115,1.005
09:35:48.736,0.09,1.03
09:35:48.740,0.05,1.04
09:35:48.744,0.02,1.025
09:35:48.748,0.035,1.035
09:35:48.752,0.035,1.08
09:35:48.756,0.065,1.11
09:35:48.760,0.11,1.155
09:35:48.764,0.15,1.155
09:35:48.768,0.18,1.195
09:35:48.772,0.175,1.205
09:35:48.776,0.1,1.23
09:35:48.780,0.055,1.245
09:35:48.784,0.075,1.29
09:35:48.788,0.105,1.31
09:35:48.792,0.11,1.33
09:35:48.796,0.11,1.365
09:35:48.800,0.1,1.385
09:35:48.804,0.095,1.415
09:35:48.808,0.09,1.435
09:35:48.812,0.035,1.44
09:35:48.816,-0.02,1.46
09:35:48.820,-0.04,1.45
09:35:48.824,-0.06,1.445
09:35:48.828,-0.14,1.4
09:35:48.832,-0.165,1.395
09:35:48.836,-0.19,1.38
09:35:48.840,-0.23,1.335
09:35:48.844,-0.285,1.285
09:35:48.848,-0.33,1.25
09:35:48.852,-0.405,1.215
09:35:48.856,-0.425,1.135
09:35:48.860,-0.495,1.09
09:35:48.864,-0.57,1.02
09:35:48.868,-0.615,0.95
09:35:48.872,-0.645,0.845
09:35:48.876,-0.71,0.785
09:35:48.880,-0.73,0.725
09:35:48.884,-0.71,0.68
09:35:48.888,-0.73,0.605
09:35:48.892,-0.7,0.55
09:35:48.896,-0.735,0.49
09:35:48.900,-0.805,0.44
09:35:48.904,-0.86,0.405
09:35:48.908,-0.87,0.345
09:35:48.912,-0.85,0.3
09:35:48.916,-0.835,0.255
09:35:48.920,-0.84,0.28
09:35:48.924,-0.855,0.245
09:35:48.928,-0.815,0.265
09:35:48.932,-0.79,0.225
09:35:48.936,-0.765,0.195
09:35:48.940,-0.72,0.2
09:35:48.944,-0.705,0.23
09:35:48.948,-0.7,0.255
09:35:48.952,-0.725,0.25
09:35:48.956,-0.695,0.235
09:35:48.960,-0.675,0.25
09:35:48.964,-0.7,0.23
09:35:48.968,-0.68,0.24
09:35:48.972,-0.68,0.21
09:35:48.976,-0.635,0.2
09:35:48.980,-0.6,0.185
09:35:48.984,-0.6,0.19
09:35:48.988,-0.625,0.195
09:35:48.992,-0.605,0.225
09:35:48.996,-0.59,0.215
09:35:49.000,-0.675,0.21
09:35:49.004,-0.75,0.225
09:35:49.008,-0.81,0.19
09:35:49.012,-0.825,0.175
09:35:49.016,-0.86,0.17
09:35:49.020,-0.87,0.185
09:35:49.024,-0.865,0.175
09:35:49.028,-0.83,0.17
09:35:49.032,-0.85,0.16
09:35:49.036,-0.87,0.185
09:35:49.040,-0.905,0.21
09:35:49.044,-0.965,0.18
09:35:49.048,-0.94,0.175
09:35:49.052,-0.945,0.165
09:35:49.056,-0.975,0.155
09:35:49.060,-1.0,0.15
09:35:49.064,-0.98,0.16
09:35:49.068,-0.955,0.185
09:35:49.072,-0.925,0.19
09:35:49.076,-0.92,0.185
09:35:49.080,-0.915,0.18
09:35:49.084,-0.92,0.16
09:35:49.088,-0.925,0.175
09:35:49.092,-0.945,0.195
09:35:49.096,-0.87,0.19
09:35:49.100,-0.84,0.185
09:35:49.104,-0.865,0.165
09:35:49.108,-0.885,0.18
09:35:49.112,-0.88,0.16
09:35:49.116,-0.81,0.165
09:35:49.120,-0.76,0.165
09:35:49.124,-0.755,0.145
09:35:49.128,-0.79,0.185
09:35:49.132,-0.855,0.2
09:35:49.136,-0.83,0.165
09:35:49.140,-0.805,0.18
09:35:49.144,-0.81,0.19
09:35:49.148,-0.77,0.16
09:35:49.152,-0.695,0.185
09:35:49.156,-0.65,0.17
09:35:49.160,-0.68,0.17
09:35:49.164,-0.725,0.16
09:35:49.168,-0.725,0.15
09:35:49.172,-0.72,0.15
09:35:49.176,-0.78,0.16
09:35:49.180,-0.81,0.14
09:35:49.184,-0.82,0.11
09:35:49.188,-0.795,0.11
09:35:49.192,-0.73,0.12
09:35:49.196,-0.715,0.12
09:35:49.200,-0.73,0.1
09:35:49.204,-0.705,0.115
09:35:49.208,-0.645,0.125
09:35:49.212,-0.64,0.13
09:35:49.216,-0.7,0.13
09:35:49.220,-0.685,0.135
09:35:49.224,-0.68,0.115
09:35:49.228,-0.71,0.125
09:35:49.232,-0.75,0.115
09:35:49.236,-0.775,0.105
09:35:49.240,-0.75,0.1
09:35:49.244,-0.745,0.11
09:35:49.248,-0.72,0.11
09:35:49.252,-0.75,0.105
09:35:49.256,-0.77,0.105
09:35:49.260,-0.8,0.11
09:35:49.264,-0.81,0.09
09:35:49.268,-0.81,0.095
09:35:49.272,-0.845,0.12
09:35:49.276,-0.84,0.15
09:35:49.280,-0.89,0.125
09:35:49.284,-0.97,0.115
09:35:49.288,-0.995,0.115
09:35:49.292,-0.91,0.105
09:35:49.296,-0.865,0.1
09:35:49.300,-0.86,0.1
09:35:49.304,-0.86,0.1
09:35:49.308,-0.775,0.105
09:35:49.312,-0.755,0.095
09:35:49.316,-0.81,0.12
09:35:49.320,-0.825,0.12
09:35:49.324,-0.79,0.145
09:35:49.328,-0.76,0.13
09:35:49.332,-0.71,0.115
09:35:49.336,-0.705,0.115
09:35:49.340,-0.705,0.14
09:35:49.344,-0.665,0.155
09:35:49.348,-0.62,0.13
09:35:49.352,-0.575,0.13
09:35:49.356,-0.54,0.155
09:35:49.360,-0.565,0.185
09:35:49.364,-0.62,0.17
09:35:49.368,-0.605,0.155
09:35:49.372,-0.565,0.165
09:35:49.376,-0.585,0.145
09:35:49.380,-0.59,0.15
09:35:49.384,-0.55,0.145
09:35:49.388,-0.525,0.125
09:35:49.392,-0.465,0.14
09:35:49.396,-0.42,0.115
09:35:49.400,-0.43,0.12
09:35:49.404,-0.46,0.085
09:35:49.408,-0.58,0.04
09:35:49.412,-0.73,0.075
09:35:49.416,-0.735,0.035
09:35:49.420,-0.665,0.08
09:35:49.424,-0.6,0.095
09:35:49.428,-0.59,0.065
09:35:49.432,-0.585,0.045
09:35:49.436,-0.59,0.045
09:35:49.440,-0.62,0.045
09:35:49.444,-0.655,0.03
09:35:49.448,-0.63,0.04
09:35:49.452,-0.63,0.065
09:35:49.456,-0.655,0.045
09:35:49.460,-0.565,0.035
09:35:49.464,-0.465,0.01
09:35:49.468,-0.37,0.0
09:35:49.472,-0.27,0.02
09:35:49.476,-0.255,0.075
09:35:49.480,-0.335,0.17
09:35:49.484,-0.565,0.265
09:35:49.488,-0.87,0.13
09:35:49.492,-1.23,-0.2
09:35:49.496,-1.515,-0.585
09:35:49.500,-1.815,-1.135
09:35:49.504,-1.97,-1.925
09:35:49.508,-1.99,-2.8
09:35:49.512,-1.95,-3.525
09:35:49.516,-1.92,-4.08
09:35:49.520,-1.93,-4.495
09:35:49.524,-1.9,-4.77
09:35:49.528,-1.825,-4.89
09:35:49.532,-1.75,-4.935
09:35:49.536,-1.65,-4.83
09:35:49.540,-1.65,-4.6
09:35:49.544,-1.62,-4.44
09:35:49.548,-1.595,-4.24
09:35:49.552,-1.61,-4.125
09:35:49.556,-1.62,-4.025
09:35:49.560,-1.51,-3.875
09:35:49.564,-1.325,-3.635
09:35:49.568,-1.175,-3.38
09:35:49.572,-1.17,-3.09
09:35:49.576,-1.23,-2.74
09:35:49.580,-1.31,-2.41
09:35:49.584,-1.255,-2.03
09:35:49.588,-1.06,-1.64
09:35:49.592,-0.86,-1.255
09:35:49.596,-0.725,-0.975
09:35:49.600,-0.585,-0.76
09:35:49.604,-0.48,-0.605
09:35:49.608,-0.475,-0.43
09:35:49.612,-0.44,-0.3
09:35:49.616,-0.375,-0.13
09:35:49.620,-0.33,0.03
09:35:49.624,-0.3,0.18
09:35:49.628,-0.31,0.3
09:35:49.632,-0.3,0.41
09:35:49.636,-0.285,0.475
09:35:49.640,-0.33,0.505
09:35:49.644,-0.34,0.51
09:35:49.648,-0.335,0.55
09:35:49.652,-0.34,0.54
09:35:49.656,-0.36,0.54
09:35:49.660,-0.36,0.545
09:35:49.664,-0.33,0.565
09:35:49.668,-0.34,0.58
09:35:49.672,-0.315,0.59
09:35:49.676,-0.33,0.62
09:35:49.680,-0.345,0.635
09:35:49.684,-0.365,0.62
09:35:49.688,-0.395,0.655
09:35:49.692,-0.365,0.69
09:35:49.696,-0.34,0.695
09:35:49.700,-0.345,0.715
09:35:49.704,-0.35,0.72
09:35:49.708,-0.345,0.75
09:35:49.712,-0.34,0.76
09:35:49.716,-0.335,0.77
09:35:49.720,-0.325,0.795
09:35:49.724,-0.315,0.825
09:35:49.728,-0.375,0.855
09:35:49.732,-0.38,0.875
09:35:49.736,-0.39,0.91
09:35:49.740,-0.355,0.96
09:35:49.744,-0.3,0.965
09:35:49.748,-0.285,1.015
09:35:49.752,-0.32,1.035
09:35:49.756,-0.35,1.06
09:35:49.760,-0.38,1.065
09:35:49.764,-0.41,1.105
09:35:49.768,-0.39,1.125
09:35:49.772,-0.345,1.16
09:35:49.776,-0.31,1.18
09:35:49.780,-0.28,1.22
09:35:49.784,-0.33,1.225
09:35:49.788,-0.37,1.225
09:35:49.792,-0.4,1.22
09:35:49.796,-0.415,1.25
09:35:49.800,-0.41,1.2
09:35:49.804,-0.435,1.205
09:35:49.808,-0.45,1.21
09:35:49.812,-0.455,1.21
09:35:49.816,-0.445,1.22
09:35:49.820,-0.5,1.22
09:35:49.824,-0.56,1.2
09:35:49.828,-0.625,1.18
09:35:49.832,-0.685,1.15
09:35:49.836,-0.7,1.105
09:35:49.840,-0.695,1.065
09:35:49.844,-0.69,1.025
09:35:49.848,-0.695,0.97
09:35:49.852,-0.745,0.915
09:35:49.856,-0.755,0.845
09:35:49.860,-0.765,0.78
09:35:49.864,-0.815,0.72
09:35:49.868,-0.88,0.695
09:35:49.872,-0.89,0.635
09:35:49.876,-0.87,0.595
09:35:49.880,-0.825,0.54
09:35:49.884,-0.785,0.5
09:35:49.888,-0.83,0.41
09:35:49.892,-0.95,0.38
09:35:49.896,-1.045,0.335
09:35:49.900,-1.05,0.32
09:35:49.904,-1.01,0.28
09:35:49.908,-0.99,0.27
09:35:49.912,-0.98,0.245
09:35:49.916,-0.985,0.255
09:35:49.920,-0.985,0.23
09:35:49.924,-0.99,0.205
09:35:49.928,-1.025,0.19
09:35:49.932,-1.05,0.16
09:35:49.936,-0.97,0.145
09:35:49.940,-0.87,0.12
09:35:49.944,-0.845,0.155
09:35:49.948,-0.95,0.155
09:35:49.952,-1.05,0.17
09:35:49.956,-1.045,0.155
09:35:49.960,-0.98,0.165
09:35:49.964,-0.94,0.18
09:35:49.968,-0.89,0.18
09:35:49.972,-0.845,0.19
09:35:49.976,-0.8,0.195
09:35:49.980,-0.785,0.175
09:35:49.984,-0.745,0.205
09:35:49.988,-0.705,0.195
09:35:49.992,-0.695,0.195
09:35:49.996,-0.77,0.175
09:35:50.000,-0.84,0.175
09:35:50.004,-0.825,0.165
09:35:50.008,-0.79,0.145
09:35:50.012,-0.79,0.14
09:35:50.016,-0.795,0.13
09:35:50.020,-0.825,0.12
09:35:50.024,-0.845,0.105
09:35:50.028,-0.81,0.11
09:35:50.032,-0.79,0.07
09:35:50.036,-0.78,0.09
09:35:50.040,-0.74,0.1
09:35:50.044,-0.75,0.095
09:35:50.048,-0.785,0.095
09:35:50.052,-0.81,0.12
09:35:50.056,-0.81,0.11
09:35:50.060,-0.84,0.11
09:35:50.064,-0.88,0.1
09:35:50.068,-0.88,0.11
09:35:50.072,-0.885,0.13
09:35:50.076,-0.93,0.13
09:35:50.080,-0.915,0.105
09:35:50.084,-0.89,0.14
09:35:50.088,-0.895,0.13
09:35:50.092,-0.89,0.12
09:35:50.096,-0.9,0.115
09:35:50.100,-0.92,0.08
09:35:50.104,-0.94,0.11
09:35:50.108,-0.965,0.1
09:35:50.112,-0.97,0.07
09:35:50.116,-0.98,0.085
09:35:50.120,-0.95,0.07
09:35:50.124,-0.94,0.07
09:35:50.128,-0.915,0.055
09:35:50.132,-0.9,0.06
09:35:50.136,-0.88,0.05
09:35:50.140,-0.88,0.08
09:35:50.144,-0.87,0.06
09:35:50.148,-0.9,0.06
09:35:50.152,-0.89,0.095
09:35:50.156,-0.86,0.09
09:35:50.160,-0.8,0.11
09:35:50.164,-0.8,0.07
09:35:50.168,-0.81,0.11
09:35:50.172,-0.8,0.135
09:35:50.176,-0.775,0.105
09:35:50.180,-0.78,0.095
09:35:50.184,-0.745,0.11
09:35:50.188,-0.77,0.16
09:35:50.192,-0.785,0.175
09:35:50.196,-0.745,0.18
09:35:50.200,-0.71,0.16
09:35:50.204,-0.72,0.14
09:35:50.208,-0.75,0.155
09:35:50.212,-0.72,0.135
09:35:50.216,-0.64,0.15
09:35:50.220,-0.655,0.12
09:35:50.224,-0.74,0.12
09:35:50.228,-0.835,0.11
09:35:50.232,-0.89,0.065
09:35:50.236,-0.87,0.06
09:35:50.240,-0.835,0.06
09:35:50.244,-0.8,0.04
09:35:50.248,-0.795,0.015
09:35:50.252,-0.795,-0.02
09:35:50.256,-0.825,-0.08
09:35:50.260,-0.865,-0.025
09:35:50.264,-0.91,-0.01
09:35:50.268,-0.885,-0.01
09:35:50.272,-0.88,-0.04
09:35:50.276,-0.86,-0.01
09:35:50.280,-0.85,0.0
09:35:50.284,-0.81,-0.01
09:35:50.288,-0.835,-0.02
09:35:50.292,-0.88,-0.03
09:35:50.296,-0.935,-0.01
09:35:50.300,-0.92,0.0
09:35:50.304,-0.855,-0.025
09:35:50.308,-0.73,-0.02
09:35:50.312,-0.62,-0.025
09:35:50.316,-0.505,-0.02
09:35:50.320,-0.455,0.035
09:35:50.324,-0.505,0.095
09:35:50.328,-0.705,0.18
09:35:50.332,-1.035,0.195
09:35:50.336,-1.4,-0.025
09:35:50.340,-1.71,-0.47
09:35:50.344,-1.91,-1.04
09:35:50.348,-2.065,-1.85
09:35:50.352,-2.085,-2.745
09:35:50.356,-1.975,-3.495
09:35:50.360,-1.86,-4.07
09:35:50.364,-1.925,-4.51
09:35:50.368,-2.035,-4.795
09:35:50.372,-2.075,-4.905
09:35:50.376,-2.07,-4.965
09:35:50.380,-2.045,-4.885
09:35:50.384,-2.035,-4.715
09:35:50.388,-1.985,-4.565
09:35:50.392,-1.935,-4.435
09:35:50.396,-1.905,-4.35
09:35:50.400,-1.855,-4.21
09:35:50.404,-1.78,-4.06
09:35:50.408,-1.71,-3.86
09:35:50.412,-1.655,-3.595
09:35:50.416,-1.65,-3.3
09:35:50.420,-1.635,-3.005
09:35:50.424,-1.64,-2.66
09:35:50.428,-1.6,-2.27
09:35:50.432,-1.475,-1.885
09:35:50.436,-1.305,-1.47
09:35:50.440,-1.09,-1.09
09:35:50.444,-0.86,-0.8
09:35:50.448,-0.72,-0.57
09:35:50.452,-0.635,-0.38
09:35:50.456,-0.565,-0.19
09:35:50.460,-0.53,0.015
09:35:50.464,-0.48,0.215
09:35:50.468,-0.42,0.385
09:35:50.472,-0.42,0.545
09:35:50.476,-0.415,0.65
09:35:50.480,-0.45,0.68
09:35:50.484,-0.43,0.74
09:35:50.488,-0.435,0.755
09:35:50.492,-0.445,0.795
09:35:50.496,-0.485,0.83
09:35:50.500,-0.44,0.815
09:35:50.504,-0.365,0.815
09:35:50.508,-0.31,0.86
09:35:50.512,-0.35,0.915
09:35:50.516,-0.405,0.915
09:35:50.520,-0.445,0.915
09:35:50.524,-0.45,0.915
09:35:50.528,-0.43,0.93
09:35:50.532,-0.45,0.98
09:35:50.536,-0.49,0.975
09:35:50.540,-0.48,0.99
09:35:50.544,-0.44,0.985
09:35:50.548,-0.36,0.975
09:35:50.552,-0.28,1.02
09:35:50.556,-0.265,1.05
09:35:50.560,-0.345,1.045
09:35:50.564,-0.405,1.055
09:35:50.568,-0.41,1.095
09:35:50.572,-0.345,1.105
09:35:50.576,-0.29,1.15
09:35:50.580,-0.21,1.2
09:35:50.584,-0.205,1.19
09:35:50.588,-0.205,1.25
09:35:50.592,-0.2,1.275
09:35:50.596,-0.21,1.32
09:35:50.600,-0.235,1.36
09:35:50.604,-0.235,1.365
09:35:50.608,-0.22,1.36
09:35:50.612,-0.19,1.365
09:35:50.616,-0.19,1.42
09:35:50.620,-0.18,1.41
09:35:50.624,-0.15,1.445
09:35:50.628,-0.13,1.475
09:35:50.632,-0.125,1.465
09:35:50.636,-0.1,1.445
09:35:50.640,-0.13,1.435
09:35:50.644,-0.195,1.43
09:35:50.648,-0.315,1.41
09:35:50.652,-0.395,1.38
09:35:50.656,-0.48,1.35
09:35:50.660,-0.48,1.27
09:35:50.664,-0.52,1.23
09:35:50.668,-0.54,1.215
09:35:50.672,-0.51,1.16
09:35:50.676,-0.49,1.085
09:35:50.680,-0.495,1.035
09:35:50.684,-0.58,0.955
09:35:50.688,-0.73,0.88
09:35:50.692,-0.79,0.81
09:35:50.696,-0.825,0.75
09:35:50.700,-0.81,0.655
09:35:50.704,-0.79,0.625
09:35:50.708,-0.765,0.54
09:35:50.712,-0.8,0.495
09:35:50.716,-0.875,0.45
09:35:50.720,-0.895,0.415
09:35:50.724,-0.86,0.35
09:35:50.728,-0.82,0.33
09:35:50.732,-0.875,0.31
09:35:50.736,-0.9,0.29
09:35:50.740,-0.925,0.26
09:35:50.744,-0.975,0.235
09:35:50.748,-0.95,0.215
09:35:50.752,-0.92,0.205
09:35:50.756,-0.83,0.24
09:35:50.760,-0.78,0.245
09:35:50.764,-0.78,0.235
09:35:50.768,-0.84,0.255
09:35:50.772,-0.845,0.25
09:35:50.776,-0.86,0.265
09:35:50.780,-0.855,0.29
09:35:50.784,-0.83,0.265
09:35:50.788,-0.785,0.26
09:35:50.792,-0.73,0.3
09:35:50.796,-0.74,0.29
09:35:50.800,-0.78,0.25
09:35:50.804,-0.82,0.285
09:35:50.808,-0.86,0.31
09:35:50.812,-0.925,0.335
09:35:50.816,-0.965,0.325
09:35:50.820,-0.935,0.345
09:35:50.824,-0.855,0.345
09:35:50.828,-0.78,0.33
09:35:50.832,-0.73,0.305
09:35:50.836,-0.69,0.29
09:35:50.840,-0.705,0.295
09:35:50.844,-0.755,0.285
09:35:50.848,-0.75,0.28
09:35:50.852,-0.74,0.28
09:35:50.856,-0.705,0.29
09:35:50.860,-0.735,0.28
09:35:50.864,-0.755,0.24
09:35:50.868,-0.81,0.195
09:35:50.872,-0.835,0.22
09:35:50.876,-0.79,0.22
09:35:50.880,-0.73,0.23
09:35:50.884,-0.68,0.245
09:35:50.888,-0.715,0.205
09:35:50.892,-0.74,0.25
09:35:50.896,-0.775,0.235
09:35:50.900,-0.845,0.225
09:35:50.904,-0.875,0.195
09:35:50.908,-0.85,0.185
09:35:50.912,-0.83,0.2
09:35:50.916,-0.8,0.21
09:35:50.920,-0.825,0.21
09:35:50.924,-0.85,0.16
09:35:50.928,-0.865,0.15
09:35:50.932,-0.82,0.16
09:35:50.936,-0.77,0.18
09:35:50.940,-0.75,0.18
09:35:50.944,-0.74,0.18
09:35:50.948,-0.765,0.175
09:35:50.952,-0.78,0.16
09:35:50.956,-0.81,0.18
09:35:50.960,-0.85,0.19
09:35:50.964,-0.84,0.165
09:35:50.968,-0.82,0.13
09:35:50.972,-0.79,0.15
09:35:50.976,-0.775,0.165
09:35:50.980,-0.69,0.165
09:35:50.984,-0.665,0.165
09:35:50.988,-0.635,0.19
09:35:50.992,-0.67,0.255
09:35:50.996,-0.775,0.245
09:35:51.000,-0.82,0.23
09:35:51.004,-0.84,0.19
09:35:51.008,-0.85,0.17
09:35:51.012,-0.805,0.175
09:35:51.016,-0.79,0.155
09:35:51.020,-0.78,0.125
09:35:51.024,-0.75,0.125
09:35:51.028,-0.7,0.085
09:35:51.032,-0.69,0.075
09:35:51.036,-0.715,0.07
09:35:51.040,-0.73,0.075
09:35:51.044,-0.725,0.065
09:35:51.048,-0.695,0.05
09:35:51.052,-0.665,0.045
09:35:51.056,-0.685,0.025
09:35:51.060,-0.675,0.01
09:35:51.064,-0.615,0.005
09:35:51.068,-0.575,0.035
09:35:51.072,-0.59,0.025
09:35:51.076,-0.605,0.015
09:35:51.080,-0.6,0.01
09:35:51.084,-0.65,0.035
09:35:51.088,-0.7,0.025
09:35:51.092,-0.715,0.025
09:35:51.096,-0.695,0.045
09:35:51.100,-0.72,0.045
09:35:51.104,-0.67,0.05
09:35:51.108,-0.65,0.075
09:35:51.112,-0.705,0.02
09:35:51.116,-0.71,-0.005
09:35:51.120,-0.72,0.02
09:35:51.124,-0.655,0.035
09:35:51.128,-0.68,0.05
09:35:51.132,-0.705,0.07
09:35:51.136,-0.705,0.085
09:35:51.140,-0.63,0.06
09:35:51.144,-0.625,0.08
09:35:51.148,-0.655,0.075
09:35:51.152,-0.69,0.035
09:35:51.156,-0.69,0.02
09:35:51.160,-0.68,0.03
09:35:51.164,-0.725,0.045
09:35:51.168,-0.695,0.075
09:35:51.172,-0.67,0.095
09:35:51.176,-0.7,0.1
09:35:51.180,-0.73,0.1
09:35:51.184,-0.76,0.12
09:35:51.188,-0.705,0.055
09:35:51.192,-0.655,0.025
09:35:51.196,-0.64,0.005
09:35:51.200,-0.635,0.01
09:35:51.204,-0.6,0.005
09:35:51.208,-0.54,0.05
09:35:51.212,-0.48,0.06
09:35:51.216,-0.42,0.095
09:35:51.220,-0.285,0.095
09:35:51.224,-0.15,0.135
09:35:51.228,-0.16,0.175
09:35:51.232,-0.28,0.25
09:35:51.236,-0.505,0.3
09:35:51.240,-0.82,0.255
09:35:51.244,-1.18,-0.05
09:35:51.248,-1.5,-0.6
09:35:51.252,-1.765,-1.23
09:35:51.256,-1.93,-2.09
09:35:51.260,-1.92,-2.925
09:35:51.264,-1.85,-3.6
09:35:51.268,-1.82,-4.125
09:35:51.272,-1.83,-4.48
09:35:51.276,-1.845,-4.73
09:35:51.280,-1.83,-4.87
09:35:51.284,-1.805,-4.825
09:35:51.288,-1.745,-4.66
09:35:51.292,-1.72,-4.455
09:35:51.296,-1.64,-4.32
09:35:51.300,-1.575,-4.2
09:35:51.304,-1.53,-4.08
09:35:51.308,-1.515,-3.915
09:35:51.312,-1.46,-3.725
09:35:51.316,-1.42,-3.49
09:35:51.320,-1.43,-3.185
09:35:51.324,-1.445,-2.875
09:35:51.328,-1.455,-2.5
09:35:51.332,-1.375,-2.15
09:35:51.336,-1.22,-1.745
09:35:51.340,-1.06,-1.315
09:35:51.344,-0.935,-1.01
09:35:51.348,-0.91,-0.745
09:35:51.352,-0.87,-0.515
09:35:51.356,-0.77,-0.335
09:35:51.360,-0.625,-0.22
09:35:51.364,-0.58,-0.085
09:35:51.368,-0.565,0.105
09:35:51.372,-0.555,0.305
09:35:51.376,-0.48,0.44
09:35:51.380,-0.455,0.505
09:35:51.384,-0.44,0.565
09:35:51.388,-0.415,0.555
09:35:51.392,-0.39,0.595
09:35:51.396,-0.345,0.62
09:35:51.400,-0.335,0.63
09:35:51.404,-0.29,0.66
09:35:51.408,-0.27,0.68
09:35:51.412,-0.23,0.71
09:35:51.416,-0.195,0.73
09:35:51.420,-0.15,0.74
09:35:51.424,-0.12,0.755
09:35:51.428,-0.135,0.805
09:35:51.432,-0.14,0.85
09:35:51.436,-0.155,0.89
09:35:51.440,-0.19,0.89
09:35:51.444,-0.2,0.9
09:35:51.448,-0.21,0.87
09:35:51.452,-0.205,0.87
09:35:51.456,-0.215,0.835
09:35:51.460,-0.225,0.83
09:35:51.464,-0.205,0.815
09:35:51.468,-0.18,0.86
09:35:51.472,-0.165,0.9
09:35:51.476,-0.16,0.93
09:35:51.480,-0.185,0.955
09:35:51.484,-0.195,0.985
09:35:51.488,-0.22,1.01
09:35:51.492,-0.23,1.065
09:35:51.496,-0.255,1.06
09:35:51.500,-0.265,1.055
09:35:51.504,-0.305,1.045
09:35:51.508,-0.34,1.075
09:35:51.512,-0.32,1.1
09:35:51.516,-0.325,1.115
09:35:51.520,-0.3,1.14
09:35:51.524,-0.29,1.17
09:35:51.528,-0.315,1.18
09:35:51.532,-0.34,1.19
09:35:51.536,-0.375,1.22
09:35:51.540,-0.43,1.235
09:35:51.544,-0.445,1.215
09:35:51.548,-0.465,1.195
09:35:51.552,-0.445,1.205
09:35:51.556,-0.425,1.215
09:35:51.560,-0.46,1.22
09:35:51.564,-0.48,1.165
09:35:51.568,-0.55,1.16
09:35:51.572,-0.63,1.12
09:35:51.576,-0.64,1.065
09:35:51.580,-0.65,1.025
09:35:51.584,-0.68,0.97
09:35:51.588,-0.665,0.9
09:35:51.592,-0.67,0.785
09:35:51.596,-0.67,0.73
09:35:51.600,-0.63,0.695
09:35:51.604,-0.665,0.655
09:35:51.608,-0.75,0.64
09:35:51.612,-0.76,0.59
09:35:51.616,-0.74,0.54
09:35:51.620,-0.69,0.53
09:35:51.624,-0.645,0.47
09:35:51.628,-0.66,0.41
09:35:51.632,-0.7,0.4
09:35:51.636,-0.695,0.395
09:35:51.640,-0.705,0.345
09:35:51.644,-0.69,0.27
09:35:51.648,-0.685,0.21
09:35:51.652,-0.735,0.16
09:35:51.656,-0.77,0.125
09:35:51.660,-0.8,0.085
09:35:51.664,-0.83,0.06
09:35:51.668,-0.855,0.08
09:35:51.672,-0.86,0.085
09:35:51.676,-0.895,0.04
09:35:51.680,-0.9,0.065
09:35:51.684,-0.875,0.035
09:35:51.688,-0.845,0.05
09:35:51.692,-0.83,0.07
09:35:51.696,-0.905,0.09
09:35:51.700,-0.94,0.08
09:35:51.704,-0.91,0.09
09:35:51.708,-0.925,0.09
09:35:51.712,-0.89,0.055
09:35:51.716,-0.905,0.075
09:35:51.720,-0.935,0.1
09:35:51.724,-0.96,0.095
09:35:51.728,-0.96,0.105
09:35:51.732,-1.005,0.07
09:35:51.736,-1.0,0.09
09:35:51.740,-1.01,0.12
09:35:51.744,-1.01,0.12
09:35:51.748,-1.0,0.12
09:35:51.752,-0.96,0.11
09:35:51.756,-0.985,0.135
09:35:51.760,-1.03,0.135
09:35:51.764,-1.025,0.105
09:35:51.768,-0.995,0.095
09:35:51.772,-0.925,0.13
09:35:51.776,-0.88,0.155
09:35:51.780,-0.88,0.125
09:35:51.784,-0.89,0.13
09:35:51.788,-0.875,0.155
09:35:51.792,-0.8,0.16
09:35:51.796,-0.585,0.19
09:35:51.800,-0.36,0.17
09:35:51.804,-0.31,0.16
09:35:51.808,-0.39,0.23
09:35:51.812,-0.54,0.305
09:35:51.816,-0.82,0.27
09:35:51.820,-1.2,-0.015
09:35:51.824,-1.555,-0.42
09:35:51.828,-1.785,-0.92
09:35:51.832,-1.905,-1.79
09:35:51.836,-1.89,-2.74
09:35:51.840,-1.82,-3.47
09:35:51.844,-1.785,-4.02
09:35:51.848,-1.835,-4.46
09:35:51.852,-1.85,-4.735
09:35:51.856,-1.81,-4.86
09:35:51.860,-1.78,-4.84
09:35:51.864,-1.815,-4.705
09:35:51.868,-1.845,-4.545
09:35:51.872,-1.855,-4.435
09:35:51.876,-1.865,-4.34
09:35:51.880,-1.905,-4.24
09:35:51.884,-1.88,-4.16
09:35:51.888,-1.845,-3.93
09:35:51.892,-1.805,-3.675
09:35:51.896,-1.785,-3.405
09:35:51.900,-1.775,-3.105
09:35:51.904,-1.75,-2.725
09:35:51.908,-1.685,-2.325
09:35:51.912,-1.53,-1.955
09:35:51.916,-1.38,-1.545
09:35:51.920,-1.195,-1.135
09:35:51.924,-1.0,-0.835
09:35:51.928,-0.91,-0.605
09:35:51.932,-0.885,-0.41
09:35:51.936,-0.835,-0.205
09:35:51.940,-0.795,0.0
09:35:51.944,-0.78,0.16
09:35:51.948,-0.755,0.295
09:35:51.952,-0.71,0.435
09:35:51.956,-0.695,0.525
09:35:51.960,-0.68,0.575
09:35:51.964,-0.645,0.575
09:35:51.968,-0.605,0.6
09:35:51.972,-0.565,0.635
09:35:51.976,-0.555,0.685
09:35:51.980,-0.515,0.73
09:35:51.984,-0.48,0.715
09:35:51.988,-0.46,0.725
09:35:51.992,-0.5,0.77
09:35:51.996,-0.48,0.795
09:35:52.000,-0.45,0.825
09:35:52.004,-0.43,0.815
09:35:52.008,-0.375,0.85
09:35:52.012,-0.34,0.9
09:35:52.016,-0.32,0.93
09:35:52.020,-0.325,0.945
09:35:52.024,-0.26,0.94
09:35:52.028,-0.24,0.995
09:35:52.032,-0.195,1.03
09:35:52.036,-0.195,1.075
09:35:52.040,-0.18,1.09
09:35:52.044,-0.15,1.075
09:35:52.048,-0.115,1.085
09:35:52.052,-0.11,1.145
09:35:52.056,-0.045,1.175
09:35:52.060,-0.03,1.185
09:35:52.064,-0.02,1.195
09:35:52.068,-0.01,1.19
09:35:52.072,0.02,1.22
09:35:52.076,0.055,1.225
09:35:52.080,0.055,1.265
09:35:52.084,0.07,1.26
09:35:52.088,0.035,1.26
09:35:52.092,0.02,1.28
09:35:52.096,0.0,1.295
09:35:52.100,-0.015,1.325
09:35:52.104,-0.03,1.355
09:35:52.108,-0.055,1.36
09:35:52.112,-0.06,1.345
09:35:52.116,-0.115,1.35
09:35:52.120,-0.145,1.32
09:35:52.124,-0.205,1.315
09:35:52.128,-0.225,1.285
09:35:52.132,-0.295,1.225
09:35:52.136,-0.38,1.195
09:35:52.140,-0.455,1.135
09:35:52.144,-0.47,1.105
09:35:52.148,-0.555,1.05
09:35:52.152,-0.645,0.985
09:35:52.156,-0.685,0.91
09:35:52.160,-0.73,0.84
09:35:52.164,-0.815,0.795
09:35:52.168,-0.85,0.73
09:35:52.172,-0.875,0.66
09:35:52.176,-0.885,0.595
09:35:52.180,-0.88,0.56
09:35:52.184,-0.885,0.49
09:35:52.188,-0.885,0.465
09:35:52.192,-0.865,0.45
09:35:52.196,-0.89,0.375
09:35:52.200,-0.895,0.365
09:35:52.204,-0.87,0.365
09:35:52.208,-0.87,0.355
09:35:52.212,-0.915,0.315
09:35:52.216,-0.925,0.225
09:35:52.220,-0.9,0.225
09:35:52.224,-0.865,0.23
09:35:52.228,-0.87,0.235
09:35:52.232,-0.865,0.28
09:35:52.236,-0.835,0.29
09:35:52.240,-0.845,0.29
09:35:52.244,-0.83,0.28
09:35:52.248,-0.8,0.3
09:35:52.252,-0.775,0.315
09:35:52.256,-0.735,0.32
09:35:52.260,-0.715,0.345
09:35:52.264,-0.715,0.355
09:35:52.268,-0.695,0.325
09:35:52.272,-0.68,0.28
09:35:52.276,-0.705,0.235
09:35:52.280,-0.725,0.255
09:35:52.284,-0.72,0.26
09:35:52.288,-0.7,0.205
09:35:52.292,-0.675,0.2
09:35:52.296,-0.695,0.18
09:35:52.300,-0.715,0.195
09:35:52.304,-0.73,0.145
09:35:52.308,-0.71,0.12
09:35:52.312,-0.69,0.145
09:35:52.316,-0.74,0.145
09:35:52.320,-0.845,0.125
09:35:52.324,-0.88,0.135
09:35:52.328,-0.87,0.145
09:35:52.332,-0.84,0.105
09:35:52.336,-0.86,0.09
09:35:52.340,-0.89,0.075
09:35:52.344,-0.9,0.08
09:35:52.348,-0.87,0.07
09:35:52.352,-0.835,0.07
09:35:52.356,-0.765,0.07
09:35:52.360,-0.665,0.025
09:35:52.364,-0.485,0.03
09:35:52.368,-0.34,0.06
09:35:52.372,-0.31,0.135
09:35:52.376,-0.4,0.195
09:35:52.380,-0.57,0.285
09:35:52.384,-0.87,0.215
09:35:52.388,-1.175,-0.175
09:35:52.392,-1.41,-0.655
09:35:52.396,-1.52,-1.315
09:35:52.400,-1.485,-2.27
09:35:52.404,-1.345,-3.13
09:35:52.408,-1.235,-3.835
09:35:52.412,-1.29,-4.34
09:35:52.416,-1.45,-4.695
09:35:52.420,-1.655,-4.87
09:35:52.424,-1.745,-4.925
09:35:52.428,-1.765,-4.9
09:35:52.432,-1.815,-4.785
09:35:52.436,-1.82,-4.645
09:35:52.440,-1.84,-4.535
09:35:52.444,-1.865,-4.45
09:35:52.448,-1.89,-4.38
09:35:52.452,-1.825,-4.215
09:35:52.456,-1.775,-4.03
09:35:52.460,-1.725,-3.765
09:35:52.464,-1.68,-3.465
09:35:52.468,-1.63,-3.145
09:35:52.472,-1.59,-2.815
09:35:52.476,-1.515,-2.425
09:35:52.480,-1.42,-2.015
09:35:52.484,-1.27,-1.57
09:35:52.488,-1.08,-1.16
09:35:52.492,-0.905,-0.905
09:35:52.496,-0.74,-0.65
09:35:52.500,-0.625,-0.44
09:35:52.504,-0.555,-0.27
09:35:52.508,-0.545,-0.07
09:35:52.512,-0.51,0.13
09:35:52.516,-0.48,0.34
09:35:52.520,-0.49,0.495
09:35:52.524,-0.47,0.58
09:35:52.528,-0.43,0.645
09:35:52.532,-0.41,0.65
09:35:52.536,-0.36,0.665
09:35:52.540,-0.34,0.67
09:35:52.544,-0.35,0.715
09:35:52.548,-0.37,0.755
09:35:52.552,-0.41,0.79
09:35:52.556,-0.445,0.795
09:35:52.560,-0.465,0.8
09:35:52.564,-0.435,0.8
09:35:52.568,-0.415,0.79
09:35:52.572,-0.4,0.835
09:35:52.576,-0.395,0.87
09:35:52.580,-0.35,0.885
09:35:52.584,-0.3,0.92
09:35:52.588,-0.3,0.94
09:35:52.592,-0.315,0.975
09:35:52.596,-0.35,0.975
09:35:52.600,-0.285,1.015
09:35:52.604,-0.255,1.07
09:35:52.608,-0.225,1.11
09:35:52.612,-0.225,1.11
09:35:52.616,-0.19,1.08
09:35:52.620,-0.145,1.09
09:35:52.624,-0.11,1.11
09:35:52.628,-0.115,1.145
09:35:52.632,-0.115,1.18
09:35:52.636,-0.11,1.2
09:35:52.640,-0.12,1.185
09:35:52.644,-0.11,1.225
09:35:52.648,-0.12,1.265
09:35:52.652,-0.085,1.28
09:35:52.656,-0.065,1.325
09:35:52.660,-0.03,1.31
09:35:52.664,-0.015,1.34
09:35:52.668,0.045,1.37
09:35:52.672,0.045,1.415
09:35:52.676,0.02,1.46
09:35:52.680,-0.005,1.45
09:35:52.684,-0.05,1.41
09:35:52.688,-0.11,1.375
09:35:52.692,-0.12,1.365
09:35:52.696,-0.13,1.32
09:35:52.700,-0.14,1.295
09:35:52.704,-0.165,1.23
09:35:52.708,-0.24,1.135
09:35:52.712,-0.3,1.075
09:35:52.716,-0.36,1.045
09:35:52.720,-0.39,1.0
09:35:52.724,-0.465,0.88
09:35:52.728,-0.545,0.82
09:35:52.732,-0.6,0.78
09:35:52.736,-0.63,0.695
09:35:52.740,-0.69,0.655
09:35:52.744,-0.685,0.565
09:35:52.748,-0.665,0.47
09:35:52.752,-0.7,0.42
09:35:52.756,-0.77,0.35
09:35:52.760,-0.77,0.265
09:35:52.764,-0.8,0.225
09:35:52.768,-0.765,0.195
09:35:52.772,-0.775,0.17
09:35:52.776,-0.79,0.16
09:35:52.780,-0.805,0.155
09:35:52.784,-0.79,0.15
09:35:52.788,-0.775,0.14
09:35:52.792,-0.8,0.125
09:35:52.796,-0.77,0.125
09:35:52.800,-0.79,0.125
09:35:52.804,-0.79,0.105
09:35:52.808,-0.755,0.14
09:35:52.812,-0.725,0.145
09:35:52.816,-0.71,0.13
09:35:52.820,-0.675,0.115
09:35:52.824,-0.65,0.14
09:35:52.828,-0.64,0.14
09:35:52.832,-0.67,0.12
09:35:52.836,-0.695,0.145
09:35:52.840,-0.68,0.165
09:35:52.844,-0.65,0.165
09:35:52.848,-0.625,0.165
09:35:52.852,-0.61,0.16
09:35:52.856,-0.59,0.185
09:35:52.860,-0.64,0.205
09:35:52.864,-0.615,0.21
09:35:52.868,-0.57,0.225
09:35:52.872,-0.505,0.23
09:35:52.876,-0.485,0.24
09:35:52.880,-0.495,0.24
09:35:52.884,-0.52,0.25
09:35:52.888,-0.515,0.21
09:35:52.892,-0.49,0.145
09:35:52.896,-0.515,0.115
09:35:52.900,-0.495,0.1
09:35:52.904,-0.475,0.12
09:35:52.908,-0.48,0.145
09:35:52.912,-0.48,0.165
09:35:52.916,-0.515,0.14
09:35:52.920,-0.535,0.12
09:35:52.924,-0.555,0.13
09:35:52.928,-0.535,0.11
09:35:52.932,-0.495,0.05
09:35:52.936,-0.485,0.005
09:35:52.940,-0.465,0.025
09:35:52.944,-0.375,0.01
09:35:52.948,-0.265,0.005
09:35:52.952,-0.125,0.015
09:35:52.956,-0.06,0.03
09:35:52.960,-0.1,0.06
09:35:52.964,-0.25,0.13
09:35:52.968,-0.48,0.19
09:35:52.972,-0.83,0.1
09:35:52.976,-1.145,-0.235
09:35:52.980,-1.42,-0.64
09:35:52.984,-1.63,-1.15
09:35:52.988,-1.73,-1.945
09:35:52.992,-1.685,-2.795
09:35:52.996,-1.635,-3.44
09:35:53.000,-1.655,-3.97
09:35:53.004,-1.66,-4.4
09:35:53.008,-1.685,-4.665
09:35:53.012,-1.715,-4.805
09:35:53.016,-1.725,-4.815
09:35:53.020,-1.755,-4.68
09:35:53.024,-1.74,-4.54
09:35:53.028,-1.705,-4.42
09:35:53.032,-1.66,-4.335
09:35:53.036,-1.65,-4.18
09:35:53.040,-1.61,-4.06
09:35:53.044,-1.54,-3.895
09:35:53.048,-1.44,-3.675
09:35:53.052,-1.3,-3.41
09:35:53.056,-1.22,-3.115
09:35:53.060,-1.11,-2.76
09:35:53.064,-1.03,-2.35
09:35:53.068,-0.915,-1.875
09:35:53.072,-0.78,-1.445
09:35:53.076,-0.635,-1.08
09:35:53.080,-0.445,-0.755
09:35:53.084,-0.27,-0.5
09:35:53.088,-0.16,-0.375
09:35:53.092,-0.12,-0.24
09:35:53.096,-0.08,-0.06
09:35:53.100,0.005,0.125
09:35:53.104,0.0,0.275
09:35:53.108,-0.025,0.36
09:35:53.112,-0.035,0.47
09:35:53.116,-0.03,0.58
09:35:53.120,-0.04,0.6
09:35:53.124,0.01,0.575
09:35:53.128,0.065,0.6
09:35:53.132,0.12,0.645
09:35:53.136,0.05,0.69
09:35:53.140,-0.01,0.695
09:35:53.144,0.01,0.71
09:35:53.148,0.06,0.685
09:35:53.152,0.08,0.695
09:35:53.156,0.085,0.7
09:35:53.160,0.025,0.675
09:35:53.164,0.005,0.725
09:35:53.168,0.07,0.7
09:35:53.172,0.1,0.735
09:35:53.176,0.12,0.775
09:35:53.180,0.13,0.845
09:35:53.184,0.135,0.88
09:35:53.188,0.13,0.895
09:35:53.192,0.12,0.925
09:35:53.196,0.135,0.94
09:35:53.200,0.125,0.96
09:35:53.204,0.17,1.015
09:35:53.208,0.205,1.015
09:35:53.212,0.26,1.015
09:35:53.216,0.275,1.06
09:35:53.220,0.275,1.105
09:35:53.224,0.265,1.14
09:35:53.228,0.275,1.145
09:35:53.232,0.285,1.155
09:35:53.236,0.32,1.195
09:35:53.240,0.325,1.235
09:35:53.244,0.305,1.215
09:35:53.248,0.3,1.26
09:35:53.252,0.315,1.27
09:35:53.256,0.315,1.305
09:35:53.260,0.33,1.28
09:35:53.264,0.275,1.285
09:35:53.268,0.25,1.305
09:35:53.272,0.245,1.345
09:35:53.276,0.275,1.335
09:35:53.280,0.255,1.32
09:35:53.284,0.215,1.305
09:35:53.288,0.195,1.325
09:35:53.292,0.19,1.315
09:35:53.296,0.2,1.29
09:35:53.300,0.185,1.22
09:35:53.304,0.12,1.165
09:35:53.308,0.07,1.125
09:35:53.312,-0.01,1.05
09:35:53.316,-0.045,0.96
09:35:53.320,-0.105,0.865
09:35:53.324,-0.18,0.805
09:35:53.328,-0.28,0.755
09:35:53.332,-0.265,0.63
09:35:53.336,-0.245,0.57
09:35:53.340,-0.24,0.55
09:35:53.344,-0.25,0.53
09:35:53.348,-0.295,0.45
09:35:53.352,-0.305,0.335
09:35:53.356,-0.295,0.24
09:35:53.360,-0.33,0.23
09:35:53.364,-0.345,0.21
09:35:53.368,-0.35,0.21
09:35:53.372,-0.37,0.245
09:35:53.376,-0.36,0.185
09:35:53.380,-0.365,0.105
09:35:53.384,-0.35,0.125
09:35:53.388,-0.345,0.145
09:35:53.392,-0.38,0.125
09:35:53.396,-0.375,0.1
09:35:53.400,-0.37,0.095
09:35:53.404,-0.32,0.09
09:35:53.408,-0.35,0.115
09:35:53.412,-0.345,0.16
09:35:53.416,-0.33,0.16
09:35:53.420,-0.305,0.18
09:35:53.424,-0.29,0.185
09:35:53.428,-0.285,0.145
09:35:53.432,-0.355,0.155
09:35:53.436,-0.41,0.185
09:35:53.440,-0.39,0.175
09:35:53.444,-0.305,0.155
09:35:53.448,-0.245,0.16
09:35:53.452,-0.225,0.175
09:35:53.456,-0.23,0.165
09:35:53.460,-0.21,0.145
09:35:53.464,-0.23,0.155
09:35:53.468,-0.24,0.205
09:35:53.472,-0.24,0.22
09:35:53.476,-0.22,0.205
09:35:53.480,-0.205,0.185
09:35:53.484,-0.155,0.205
09:35:53.488,-0.11,0.225
09:35:53.492,-0.12,0.24
09:35:53.496,-0.115,0.275
09:35:53.500,-0.12,0.225
09:35:53.504,-0.175,0.225
09:35:53.508,-0.115,0.24
09:35:53.512,-0.035,0.265
09:35:53.516,0.09,0.275
09:35:53.520,0.24,0.255
09:35:53.524,0.34,0.275
09:35:53.528,0.355,0.3
09:35:53.532,0.275,0.28
09:35:53.536,0.04,0.295
09:35:53.540,-0.32,0.26
09:35:53.544,-0.725,-0.035
09:35:53.548,-1.045,-0.525
09:35:53.552,-1.31,-1.04
09:35:53.556,-1.47,-1.78
09:35:53.560,-1.565,-2.675
09:35:53.564,-1.565,-3.38
09:35:53.568,-1.555,-3.93
09:35:53.572,-1.585,-4.33
09:35:53.576,-1.64,-4.615
09:35:53.580,-1.66,-4.775
09:35:53.584,-1.63,-4.875
09:35:53.588,-1.59,-4.785
09:35:53.592,-1.565,-4.625
09:35:53.596,-1.49,-4.47
09:35:53.600,-1.44,-4.35
09:35:53.604,-1.445,-4.245
09:35:53.608,-1.44,-4.17
09:35:53.612,-1.365,-3.98
09:35:53.616,-1.325,-3.79
09:35:53.620,-1.23,-3.53
09:35:53.624,-1.19,-3.215
09:35:53.628,-1.145,-2.865
09:35:53.632,-1.13,-2.52
09:35:53.636,-1.035,-2.1
09:35:53.640,-0.875,-1.635
09:35:53.644,-0.72,-1.285
09:35:53.648,-0.555,-1.045
09:35:53.652,-0.4,-0.77
09:35:53.656,-0.395,-0.545
09:35:53.660,-0.345,-0.425
09:35:53.664,-0.29,-0.24
09:35:53.668,-0.19,-0.025
09:35:53.672,-0.09,0.175
09:35:53.676,-0.07,0.26
09:35:53.680,0.01,0.355
09:35:53.684,0.095,0.475
09:35:53.688,0.155,0.57
09:35:53.692,0.12,0.625
09:35:53.696,0.07,0.675
09:35:53.700,0.115,0.73
09:35:53.704,0.18,0.785
09:35:53.708,0.255,0.82
09:35:53.712,0.255,0.795
09:35:53.716,0.245,0.77
09:35:53.720,0.255,0.785
09:35:53.724,0.29,0.8
09:35:53.728,0.335,0.855
09:35:53.732,0.34,0.935
09:35:53.736,0.34,0.93
09:35:53.740,0.355,0.95
09:35:53.744,0.38,0.94
09:35:53.748,0.4,0.955
09:35:53.752,0.43,0.97
09:35:53.756,0.465,1.0
09:35:53.760,0.5,1.01
09:35:53.764,0.485,0.995
09:35:53.768,0.475,0.97
09:35:53.772,0.465,0.975
09:35:53.776,0.47,1.015
09:35:53.780,0.455,1.025
09:35:53.784,0.48,1.015
09:35:53.788,0.5,1.05
09:35:53.792,0.505,1.065
09:35:53.796,0.515,1.105
09:35:53.800,0.53,1.11
09:35:53.804,0.525,1.155
09:35:53.808,0.535,1.19
09:35:53.812,0.485,1.195
09:35:53.816,0.44,1.175
09:35:53.820,0.425,1.195
09:35:53.824,0.405,1.21
09:35:53.828,0.42,1.24
09:35:53.832,0.365,1.235
09:35:53.836,0.305,1.24
09:35:53.840,0.255,1.275
09:35:53.844,0.26,1.27
09:35:53.848,0.25,1.235
09:35:53.852,0.255,1.26
09:35:53.856,0.205,1.205
09:35:53.860,0.17,1.18
09:35:53.864,0.09,1.125
09:35:53.868,0.04,1.07
09:35:53.872,0.015,1.005
09:35:53.876,-0.005,0.975
09:35:53.880,-0.075,0.905
09:35:53.884,-0.125,0.88
09:35:53.888,-0.135,0.805
09:35:53.892,-0.135,0.735
09:35:53.896,-0.09,0.655
09:35:53.900,-0.105,0.62
09:35:53.904,-0.15,0.625
09:35:53.908,-0.17,0.575
09:35:53.912,-0.18,0.495
09:35:53.916,-0.17,0.46
09:35:53.920,-0.185,0.435
09:35:53.924,-0.185,0.405
09:35:53.928,-0.19,0.34
09:35:53.932,-0.155,0.305
09:35:53.936,-0.14,0.32
09:35:53.940,-0.175,0.325
09:35:53.944,-0.245,0.31
09:35:53.948,-0.255,0.29
09:35:53.952,-0.23,0.235
09:35:53.956,-0.235,0.245
09:35:53.960,-0.165,0.215
09:35:53.964,-0.105,0.22
09:35:53.968,-0.1,0.17
09:35:53.972,-0.18,0.155
09:35:53.976,-0.24,0.14
09:35:53.980,-0.285,0.095
09:35:53.984,-0.29,0.115
09:35:53.988,-0.315,0.13
09:35:53.992,-0.34,0.12
09:35:53.996,-0.345,0.09
09:35:54.000,-0.305,0.095
09:35:54.004,-0.295,0.1
09:35:54.008,-0.28,0.13
09:35:54.012,-0.265,0.135
09:35:54.016,-0.255,0.16
09:35:54.020,-0.25,0.16
09:35:54.024,-0.26,0.14
09:35:54.028,-0.245,0.115
09:35:54.032,-0.25,0.125
09:35:54.036,-0.26,0.135
09:35:54.040,-0.26,0.145
09:35:54.044,-0.245,0.115
09:35:54.048,-0.235,0.125
09:35:54.052,-0.26,0.14
09:35:54.056,-0.265,0.17
09:35:54.060,-0.275,0.16
09:35:54.064,-0.21,0.13
09:35:54.068,-0.165,0.13
09:35:54.072,-0.17,0.115
09:35:54.076,-0.215,0.155
09:35:54.080,-0.225,0.155
09:35:54.084,-0.21,0.125
09:35:54.088,-0.2,0.075
09:35:54.092,-0.12,0.085
09:35:54.096,-0.105,0.11
09:35:54.100,-0.11,0.14
09:35:54.104,-0.11,0.16
09:35:54.108,-0.15,0.175
09:35:54.112,-0.11,0.165
09:35:54.116,-0.12,0.18
09:35:54.120,-0.16,0.16
09:35:54.124,-0.195,0.15
09:35:54.128,-0.19,0.155
09:35:54.132,-0.155,0.155
09:35:54.136,-0.16,0.17
09:35:54.140,-0.195,0.14
09:35:54.144,-0.23,0.1
09:35:54.148,-0.24,0.11
09:35:54.152,-0.22,0.105
09:35:54.156,-0.235,0.135
09:35:54.160,-0.23,0.11
09:35:54.164,-0.22,0.1
09:35:54.168,-0.2,0.065
09:35:54.172,-0.2,0.04
09:35:54.176,-0.18,0.025
09:35:54.180,-0.205,0.01
09:35:54.184,-0.21,-0.01
09:35:54.188,-0.18,0.02
09:35:54.192,-0.155,-0.005
09:35:54.196,-0.115,0.0
09:35:54.200,-0.125,0.015
09:35:54.204,-0.17,0.025
09:35:54.208,-0.19,0.01
09:35:54.212,-0.17,0.03
09:35:54.216,-0.155,0.025
09:35:54.220,-0.145,0.0
09:35:54.224,-0.185,0.0
09:35:54.228,-0.22,0.015
09:35:54.232,-0.26,0.015
09:35:54.236,-0.245,0.01
09:35:54.240,-0.23,0.0
09:35:54.244,-0.245,0.055
09:35:54.248,-0.285,0.065
09:35:54.252,-0.26,0.075
09:35:54.256,-0.235,0.065
09:35:54.260,-0.24,0.055
09:35:54.264,-0.23,-0.01
09:35:54.268,-0.235,-0.005
09:35:54.272,-0.22,0.02
09:35:54.276,-0.195,0.065
09:35:54.280,-0.22,0.045
09:35:54.284,-0.26,-0.03
09:35:54.288,-0.255,-0.045
09:35:54.292,-0.24,0.03
09:35:54.296,-0.155,0.05
09:35:54.300,-0.105,0.02
09:35:54.304,-0.1,0.005
09:35:54.308,-0.075,0.005
09:35:54.312,-0.095,0.05
09:35:54.316,-0.145,0.055
09:35:54.320,-0.13,0.04
09:35:54.324,-0.035,0.03
09:35:54.328,0.13,0.065
09:35:54.332,0.21,0.09
09:35:54.336,0.18,0.145
09:35:54.340,0.14,0.25
09:35:54.344,0.06,0.275
09:35:54.348,-0.175,0.205
09:35:54.352,-0.535,-0.135
09:35:54.356,-0.93,-0.65
09:35:54.360,-1.195,-1.25
09:35:54.364,-1.235,-2.03
09:35:54.368,-1.195,-2.93
09:35:54.372,-1.145,-3.63
09:35:54.376,-1.135,-4.14
09:35:54.380,-1.2,-4.505
09:35:54.384,-1.225,-4.715
09:35:54.388,-1.25,-4.825
09:35:54.392,-1.28,-4.845
09:35:54.396,-1.34,-4.73
09:35:54.400,-1.355,-4.595
09:35:54.404,-1.355,-4.46
09:35:54.408,-1.405,-4.32
09:35:54.412,-1.44,-4.215
09:35:54.416,-1.41,-4.15
09:35:54.420,-1.335,-4.045
09:35:54.424,-1.21,-3.855
09:35:54.428,-1.135,-3.585
09:35:54.432,-1.1,-3.26
09:35:54.436,-1.055,-2.905
09:35:54.440,-1.005,-2.505
09:35:54.444,-0.95,-2.11
09:35:54.448,-0.86,-1.695
09:35:54.452,-0.71,-1.335
09:35:54.456,-0.565,-1.07
09:35:54.460,-0.45,-0.785
09:35:54.464,-0.35,-0.545
09:35:54.468,-0.21,-0.36
09:35:54.472,-0.11,-0.16
09:35:54.476,-0.095,0.06
09:35:54.480,-0.15,0.25
09:35:54.484,-0.195,0.455
09:35:54.488,-0.16,0.575
09:35:54.492,-0.07,0.595
09:35:54.496,0.0,0.64
09:35:54.500,0.065,0.725
09:35:54.504,0.1,0.8
09:35:54.508,0.065,0.795
09:35:54.512,0.025,0.82
09:35:54.516,0.03,0.88
09:35:54.520,0.115,0.92
09:35:54.524,0.17,0.925
09:35:54.528,0.13,0.955
09:35:54.532,0.055,0.96
09:35:54.536,0.005,0.98
09:35:54.540,0.0,1.01
09:35:54.544,0.03,1.01
09:35:54.548,0.085,1.04
09:35:54.552,0.1,1.06
09:35:54.556,0.105,1.05
09:35:54.560,0.13,1.055
09:35:54.564,0.155,1.12
09:35:54.568,0.14,1.12
09:35:54.572,0.07,1.095
09:35:54.576,0.1,1.125
09:35:54.580,0.135,1.185
09:35:54.584,0.105,1.185
09:35:54.588,0.03,1.175
09:35:54.592,0.0,1.195
09:35:54.596,0.03,1.255
09:35:54.600,0.085,1.29
09:35:54.604,0.125,1.295
09:35:54.608,0.18,1.32
09:35:54.612,0.195,1.385
09:35:54.616,0.175,1.39
09:35:54.620,0.135,1.42
09:35:54.624,0.125,1.385
09:35:54.628,0.165,1.4
09:35:54.632,0.27,1.4
09:35:54.636,0.3,1.39
09:35:54.640,0.25,1.41
09:35:54.644,0.19,1.41
09:35:54.648,0.16,1.41
09:35:54.652,0.175,1.43
09:35:54.656,0.15,1.41
09:35:54.660,0.105,1.41
09:35:54.664,0.07,1.43
09:35:54.668,0.015,1.425
09:35:54.672,-0.075,1.4
09:35:54.676,-0.125,1.375
09:35:54.680,-0.145,1.34
09:35:54.684,-0.16,1.3
09:35:54.688,-0.17,1.24
09:35:54.692,-0.205,1.195
09:35:54.696,-0.225,1.16
09:35:54.700,-0.215,1.1
09:35:54.704,-0.225,1.05
09:35:54.708,-0.255,1.015
09:35:54.712,-0.315,0.985
09:35:54.716,-0.305,0.925
09:35:54.720,-0.275,0.82
09:35:54.724,-0.275,0.77
09:35:54.728,-0.235,0.735
09:35:54.732,-0.195,0.68
09:35:54.736,-0.275,0.635
09:35:54.740,-0.37,0.605
09:35:54.744,-0.405,0.555
09:35:54.748,-0.4,0.555
09:35:54.752,-0.385,0.525
09:35:54.756,-0.42,0.525
09:35:54.760,-0.39,0.465
09:35:54.764,-0.375,0.43
09:35:54.768,-0.39,0.445
09:35:54.772,-0.425,0.425
09:35:54.776,-0.405,0.42
09:35:54.780,-0.315,0.42
09:35:54.784,-0.255,0.44
09:35:54.788,-0.365,0.435
09:35:54.792,-0.525,0.445
09:35:54.796,-0.645,0.46
09:35:54.800,-0.645,0.46
09:35:54.804,-0.585,0.505
09:35:54.808,-0.485,0.49
09:35:54.812,-0.47,0.48
09:35:54.816,-0.475,0.485
09:35:54.820,-0.46,0.555
09:35:54.824,-0.37,0.57
09:35:54.828,-0.43,0.585
09:35:54.832,-0.61,0.55
09:35:54.836,-0.675,0.54
09:35:54.840,-0.635,0.52
09:35:54.844,-0.59,0.525
09:35:54.848,-0.51,0.495
09:35:54.852,-0.415,0.51
09:35:54.856,-0.415,0.51
09:35:54.860,-0.48,0.495
09:35:54.864,-0.55,0.54
09:35:54.868,-0.61,0.545
09:35:54.872,-0.59,0.475
09:35:54.876,-0.575,0.47
09:35:54.880,-0.545,0.48
09:35:54.884,-0.5,0.475
09:35:54.888,-0.455,0.49
09:35:54.892,-0.475,0.45
09:35:54.896,-0.455,0.45
09:35:54.900,-0.405,0.455
09:35:54.904,-0.415,0.47
09:35:54.908,-0.455,0.505
09:35:54.912,-0.5,0.5
09:35:54.916,-0.505,0.515
09:35:54.920,-0.455,0.53
09:35:54.924,-0.44,0.54
09:35:54.928,-0.49,0.54
09:35:54.932,-0.545,0.47
09:35:54.936,-0.54,0.43
09:35:54.940,-0.51,0.445
09:35:54.944,-0.495,0.48
09:35:54.948,-0.48,0.47
09:35:54.952,-0.48,0.435
09:35:54.956,-0.475,0.445
09:35:54.960,-0.46,0.43
09:35:54.964,-0.45,0.46
09:35:54.968,-0.425,0.46
09:35:54.972,-0.375,0.46
09:35:54.976,-0.365,0.46
09:35:54.980,-0.455,0.44
09:35:54.984,-0.585,0.41
09:35:54.988,-0.62,0.395
09:35:54.992,-0.575,0.41
09:35:54.996,-0.505,0.465
09:35:55.000,-0.415,0.465
09:35:55.004,-0.37,0.455
09:35:55.008,-0.255,0.465
09:35:55.012,-0.02,0.465
09:35:55.016,0.1,0.5
09:35:55.020,0.015,0.555
09:35:55.024,-0.16,0.685
09:35:55.028,-0.395,0.73
09:35:55.032,-0.69,0.425
09:35:55.036,-0.995,0.0
09:35:55.040,-1.265,-0.505
09:35:55.044,-1.39,-1.22
09:35:55.048,-1.39,-2.235
09:35:55.052,-1.3,-3.13
09:35:55.056,-1.15,-3.77
09:35:55.060,-1.145,-4.25
09:35:55.064,-1.43,-4.62
09:35:55.068,-1.695,-4.79
09:35:55.072,-1.885,-4.845
09:35:55.076,-1.995,-4.77
09:35:55.080,-1.99,-4.615
09:35:55.084,-1.92,-4.48
09:35:55.088,-1.8,-4.37
09:35:55.092,-1.715,-4.305
09:35:55.096,-1.635,-4.245
09:35:55.100,-1.535,-4.105
09:35:55.104,-1.425,-3.825
09:35:55.108,-1.33,-3.525
09:35:55.112,-1.3,-3.17
09:35:55.116,-1.255,-2.76
09:35:55.120,-1.225,-2.27
09:35:55.124,-1.165,-1.74
09:35:55.128,-1.025,-1.23
09:35:55.132,-0.86,-0.845
09:35:55.136,-0.64,-0.485
09:35:55.140,-0.48,-0.2
09:35:55.144,-0.405,-0.005
09:35:55.148,-0.34,0.195
09:35:55.152,-0.275,0.41
09:35:55.156,-0.22,0.61
09:35:55.160,-0.21,0.76
09:35:55.164,-0.175,0.905
09:35:55.168,-0.175,1.005
09:35:55.172,-0.135,1.075
09:35:55.176,-0.16,1.07
09:35:55.180,-0.14,1.105
09:35:55.184,-0.095,1.15
09:35:55.188,-0.065,1.19
09:35:55.192,-0.035,1.18
09:35:55.196,-0.02,1.19
09:35:55.200,-0.07,1.185
09:35:55.204,-0.095,1.205
09:35:55.208,-0.11,1.2
09:35:55.212,-0.07,1.215
09:35:55.216,-0.045,1.215
09:35:55.220,-0.03,1.245
09:35:55.224,0.0,1.255
09:35:55.228,0.035,1.285
09:35:55.232,0.065,1.31
09:35:55.236,0.03,1.34
09:35:55.240,0.015,1.355
09:35:55.244,0.03,1.385
09:35:55.248,0.03,1.395
09:35:55.252,0.005,1.43
09:35:55.256,0.015,1.46
09:35:55.260,0.06,1.47
09:35:55.264,0.08,1.49
09:35:55.268,0.12,1.49
09:35:55.272,0.13,1.5
09:35:55.276,0.125,1.53
09:35:55.280,0.135,1.56
09:35:55.284,0.155,1.565
09:35:55.288,0.185,1.56
09:35:55.292,0.19,1.565
09:35:55.296,0.185,1.575
09:35:55.300,0.145,1.585
09:35:55.304,0.11,1.61
09:35:55.308,0.11,1.635
09:35:55.312,0.15,1.64
09:35:55.316,0.18,1.665
09:35:55.320,0.155,1.66
09:35:55.324,0.12,1.695
09:35:55.328,0.14,1.72
09:35:55.332,0.135,1.715
09:35:55.336,0.075,1.675
09:35:55.340,0.02,1.645
09:35:55.344,-0.035,1.615
09:35:55.348,-0.08,1.585
09:35:55.352,-0.1,1.52
09:35:55.356,-0.065,1.495
09:35:55.360,-0.07,1.41
09:35:55.364,-0.18,1.365
09:35:55.368,-0.3,1.29
09:35:55.372,-0.305,1.245
09:35:55.376,-0.295,1.2
09:35:55.380,-0.27,1.16
09:35:55.384,-0.285,1.075
09:35:55.388,-0.345,1.01
09:35:55.392,-0.4,0.95
09:35:55.396,-0.46,0.92
09:35:55.400,-0.43,0.855
09:35:55.404,-0.45,0.84
09:35:55.408,-0.465,0.795
09:35:55.412,-0.48,0.79
09:35:55.416,-0.475,0.76
09:35:55.420,-0.48,0.74
09:35:55.424,-0.485,0.755
09:35:55.428,-0.46,0.76
09:35:55.432,-0.4,0.745
09:35:55.436,-0.415,0.755
09:35:55.440,-0.535,0.745
09:35:55.444,-0.65,0.73
09:35:55.448,-0.65,0.72
09:35:55.452,-0.6,0.72
09:35:55.456,-0.57,0.75
09:35:55.460,-0.57,0.755
09:35:55.464,-0.58,0.755
09:35:55.468,-0.53,0.735
09:35:55.472,-0.435,0.695
09:35:55.476,-0.38,0.72
09:35:55.480,-0.36,0.725
09:35:55.484,-0.425,0.69
09:35:55.488,-0.495,0.645
09:35:55.492,-0.55,0.635
09:35:55.496,-0.54,0.64
09:35:55.500,-0.53,0.615
09:35:55.504,-0.47,0.61
09:35:55.508,-0.46,0.62
09:35:55.512,-0.41,0.62
09:35:55.516,-0.36,0.63
09:35:55.520,-0.345,0.65
09:35:55.524,-0.385,0.625
09:35:55.528,-0.46,0.595
09:35:55.532,-0.46,0.615
09:35:55.536,-0.41,0.605
09:35:55.540,-0.4,0.61
09:35:55.544,-0.45,0.61
09:35:55.548,-0.47,0.605
09:35:55.552,-0.42,0.63
09:35:55.556,-0.37,0.605
09:35:55.560,-0.375,0.605
09:35:55.564,-0.415,0.595
09:35:55.568,-0.44,0.59
09:35:55.572,-0.495,0.595
09:35:55.576,-0.495,0.58
09:35:55.580,-0.48,0.565
09:35:55.584,-0.495,0.555
09:35:55.588,-0.54,0.565
09:35:55.592,-0.595,0.575
09:35:55.596,-0.615,0.58
09:35:55.600,-0.63,0.57
09:35:55.604,-0.64,0.57
09:35:55.608,-0.59,0.545
09:35:55.612,-0.58,0.55
09:35:55.616,-0.62,0.535
09:35:55.620,-0.685,0.535
09:35:55.624,-0.75,0.54
09:35:55.628,-0.75,0.54
09:35:55.632,-0.755,0.54
09:35:55.636,-0.725,0.525
09:35:55.640,-0.695,0.535
09:35:55.644,-0.69,0.54
09:35:55.648,-0.555,0.52
09:35:55.652,-0.385,0.53
09:35:55.656,-0.22,0.52
09:35:55.660,-0.155,0.545
09:35:55.664,-0.155,0.625
09:35:55.668,-0.24,0.71
09:35:55.672,-0.5,0.63
09:35:55.676,-0.86,0.285
09:35:55.680,-1.18,-0.225
09:35:55.684,-1.39,-0.885
09:35:55.688,-1.415,-1.83
09:35:55.692,-1.33,-2.795
09:35:55.696,-1.2,-3.545
09:35:55.700,-1.27,-4.14
09:35:55.704,-1.54,-4.545
09:35:55.708,-1.675,-4.77
09:35:55.712,-1.625,-4.875
09:35:55.716,-1.555,-4.84
09:35:55.720,-1.5,-4.72
09:35:55.724,-1.44,-4.54
09:35:55.728,-1.435,-4.405
09:35:55.732,-1.505,-4.36
09:35:55.736,-1.54,-4.3
09:35:55.740,-1.41,-4.125
09:35:55.744,-1.315,-3.92
09:35:55.748,-1.3,-3.61
09:35:55.752,-1.3,-3.23
09:35:55.756,-1.26,-2.835
09:35:55.760,-1.265,-2.365
09:35:55.764,-1.22,-1.88
09:35:55.768,-1.135,-1.385
09:35:55.772,-1.045,-0.92
09:35:55.776,-0.92,-0.605
09:35:55.780,-0.775,-0.345
09:35:55.784,-0.63,-0.115
09:35:55.788,-0.465,0.075
09:35:55.792,-0.395,0.28
09:35:55.796,-0.41,0.49
09:35:55.800,-0.465,0.635
09:35:55.804,-0.48,0.775
09:35:55.808,-0.44,0.905
09:35:55.812,-0.385,0.98
09:35:55.816,-0.35,0.995
09:35:55.820,-0.385,1.055
09:35:55.824,-0.4,1.055
09:35:55.828,-0.39,1.085
09:35:55.832,-0.35,1.11
09:35:55.836,-0.32,1.135
09:35:55.840,-0.29,1.155
09:35:55.844,-0.3,1.175
09:35:55.848,-0.355,1.2
09:35:55.852,-0.34,1.205
09:35:55.856,-0.29,1.22
09:35:55.860,-0.245,1.27
09:35:55.864,-0.225,1.275
09:35:55.868,-0.26,1.305
09:35:55.872,-0.265,1.315
09:35:55.876,-0.24,1.325
09:35:55.880,-0.16,1.325
09:35:55.884,-0.14,1.355
09:35:55.888,-0.14,1.375
09:35:55.892,-0.115,1.38
09:35:55.896,-0.085,1.395
09:35:55.900,-0.065,1.44
09:35:55.904,-0.02,1.445
09:35:55.908,0.085,1.46
09:35:55.912,0.12,1.475
09:35:55.916,0.13,1.505
09:35:55.920,0.06,1.495
09:35:55.924,0.06,1.545
09:35:55.928,0.12,1.575
09:35:55.932,0.175,1.6
09:35:55.936,0.205,1.615
09:35:55.940,0.205,1.62
09:35:55.944,0.165,1.655
09:35:55.948,0.165,1.695
09:35:55.952,0.19,1.695
09:35:55.956,0.135,1.685
09:35:55.960,0.075,1.7
09:35:55.964,0.0,1.705
09:35:55.968,-0.035,1.7
09:35:55.972,-0.045,1.7
09:35:55.976,-0.07,1.69
09:35:55.980,-0.13,1.64
09:35:55.984,-0.15,1.625
09:35:55.988,-0.2,1.57
09:35:55.992,-0.25,1.515
09:35:55.996,-0.315,1.5
09:35:56.000,-0.345,1.43
09:35:56.004,-0.35,1.365
09:35:56.008,-0.405,1.28
09:35:56.012,-0.495,1.235
09:35:56.016,-0.535,1.12
09:35:56.020,-0.555,1.05
09:35:56.024,-0.565,0.995
09:35:56.028,-0.575,0.94
09:35:56.032,-0.64,0.885
09:35:56.036,-0.645,0.845
09:35:56.040,-0.65,0.79
09:35:56.044,-0.615,0.775
09:35:56.048,-0.6,0.735
09:35:56.052,-0.645,0.71
09:35:56.056,-0.705,0.645
09:35:56.060,-0.725,0.605
09:35:56.064,-0.745,0.595
09:35:56.068,-0.765,0.59
09:35:56.072,-0.77,0.585
09:35:56.076,-0.755,0.575
09:35:56.080,-0.72,0.56
09:35:56.084,-0.765,0.525
09:35:56.088,-0.76,0.5
09:35:56.092,-0.71,0.515
09:35:56.096,-0.73,0.52
09:35:56.100,-0.72,0.505
09:35:56.104,-0.655,0.51
09:35:56.108,-0.625,0.53
09:35:56.112,-0.625,0.555
09:35:56.116,-0.595,0.545
09:35:56.120,-0.59,0.515
09:35:56.124,-0.565,0.485
09:35:56.128,-0.555,0.525
09:35:56.132,-0.53,0.515
09:35:56.136,-0.495,0.545
09:35:56.140,-0.49,0.55
09:35:56.144,-0.52,0.54
09:35:56.148,-0.49,0.55
09:35:56.152,-0.44,0.54
09:35:56.156,-0.455,0.53
09:35:56.160,-0.485,0.54
09:35:56.164,-0.5,0.535
09:35:56.168,-0.485,0.525
09:35:56.172,-0.505,0.535
09:35:56.176,-0.53,0.515
09:35:56.180,-0.515,0.53
09:35:56.184,-0.51,0.53
09:35:56.188,-0.5,0.515
09:35:56.192,-0.485,0.515
09:35:56.196,-0.51,0.485
09:35:56.200,-0.53,0.495
09:35:56.204,-0.47,0.485
09:35:56.208,-0.44,0.475
09:35:56.212,-0.525,0.51
09:35:56.216,-0.65,0.495
09:35:56.220,-0.715,0.47
09:35:56.224,-0.735,0.475
09:35:56.228,-0.65,0.45
09:35:56.232,-0.585,0.47
09:35:56.236,-0.555,0.47
09:35:56.240,-0.58,0.45
09:35:56.244,-0.575,0.455
09:35:56.248,-0.565,0.465
09:35:56.252,-0.57,0.465
09:35:56.256,-0.565,0.465
09:35:56.260,-0.54,0.46
09:35:56.264,-0.555,0.465
09:35:56.268,-0.535,0.46
09:35:56.272,-0.465,0.455
09:35:56.276,-0.445,0.43
09:35:56.280,-0.5,0.4
09:35:56.284,-0.51,0.4
09:35:56.288,-0.435,0.385
09:35:56.292,-0.225,0.41
09:35:56.296,0.005,0.375
09:35:56.300,0.12,0.39
09:35:56.304,0.085,0.485
09:35:56.308,-0.03,0.56
09:35:56.312,-0.145,0.66
09:35:56.316,-0.34,0.5
09:35:56.320,-0.63,0.065
09:35:56.324,-0.935,-0.465
09:35:56.328,-1.175,-1.19
09:35:56.332,-1.225,-2.175
