Time,ECG1,ECG2
10:20:05.536,0.075,1.405
10:20:05.540,0.08,1.425
10:20:05.544,0.075,1.41
10:20:05.548,0.085,1.41
10:20:05.552,0.055,1.4
10:20:05.556,0.05,1.375
10:20:05.560,0.05,1.395
10:20:05.564,0.045,1.4
10:20:05.568,0.03,1.38
10:20:05.572,0.015,1.395
10:20:05.576,0.01,1.41
10:20:05.580,-0.005,1.375
10:20:05.584,-0.025,1.375
10:20:05.588,-0.025,1.385
10:20:05.592,-0.025,1.365
10:20:05.596,-0.025,1.39
10:20:05.600,-0.03,1.37
10:20:05.604,-0.02,1.38
10:20:05.608,0.0,1.35
10:20:05.612,0.025,1.355
10:20:05.616,0.105,1.34
10:20:05.620,0.205,1.355
10:20:05.624,0.25,1.345
10:20:05.628,0.175,1.375
10:20:05.632,0.01,1.39
10:20:05.636,-0.28,1.455
10:20:05.640,-0.735,1.39
10:20:05.644,-1.2,1.165
10:20:05.648,-1.575,0.865
10:20:05.652,-1.815,0.45
10:20:05.656,-1.87,-0.16
10:20:05.660,-1.765,-0.895
10:20:05.664,-1.605,-1.745
10:20:05.668,-1.565,-2.545
10:20:05.672,-1.6,-3.065
10:20:05.676,-1.6,-3.445
10:20:05.680,-1.525,-3.61
10:20:05.684,-1.46,-3.49
10:20:05.688,-1.395,-3.23
10:20:05.692,-1.22,-3.08
10:20:05.696,-1.015,-2.935
10:20:05.700,-0.815,-2.76
10:20:05.704,-0.645,-2.615
10:20:05.708,-0.47,-2.375
10:20:05.712,-0.305,-2.025
10:20:05.716,-0.205,-1.65
10:20:05.720,-0.15,-1.27
10:20:05.724,-0.12,-0.89
10:20:05.728,-0.09,-0.505
10:20:05.732,-0.055,-0.155
10:20:05.736,0.01,0.17
10:20:05.740,0.1,0.435
10:20:05.744,0.18,0.65
10:20:05.748,0.22,0.82
10:20:05.752,0.27,0.94
10:20:05.756,0.29,1.07
10:20:05.760,0.28,1.19
10:20:05.764,0.27,1.285
10:20:05.768,0.275,1.36
10:20:05.772,0.29,1.46
10:20:05.776,0.275,1.5
10:20:05.780,0.31,1.535
10:20:05.784,0.315,1.545
10:20:05.788,0.29,1.56
10:20:05.792,0.29,1.585
10:20:05.796,0.28,1.6
10:20:05.800,0.3,1.63
10:20:05.804,0.305,1.635
10:20:05.808,0.3,1.635
10:20:05.812,0.33,1.645
10:20:05.816,0.355,1.655
10:20:05.820,0.35,1.68
10:20:05.824,0.38,1.715
10:20:05.828,0.4,1.7
10:20:05.832,0.395,1.73
10:20:05.836,0.39,1.735
10:20:05.840,0.4,1.75
10:20:05.844,0.405,1.785
10:20:05.848,0.39,1.77
10:20:05.852,0.405,1.78
10:20:05.856,0.41,1.825
10:20:05.860,0.425,1.815
10:20:05.864,0.425,1.82
10:20:05.868,0.425,1.855
10:20:05.872,0.405,1.86
10:20:05.876,0.44,1.88
10:20:05.880,0.425,1.895
10:20:05.884,0.425,1.92
10:20:05.888,0.43,1.875
10:20:05.892,0.46,1.91
10:20:05.896,0.45,1.93
10:20:05.900,0.445,1.955
10:20:05.904,0.45,1.955
10:20:05.908,0.445,1.935
10:20:05.912,0.485,1.965
10:20:05.916,0.465,1.935
10:20:05.920,0.45,1.95
10:20:05.924,0.4,1.925
10:20:05.928,0.385,1.94
10:20:05.932,0.37,1.92
10:20:05.936,0.36,1.87
10:20:05.940,0.35,1.84
10:20:05.944,0.38,1.81
10:20:05.948,0.39,1.765
10:20:05.952,0.385,1.715
10:20:05.956,0.4,1.68
10:20:05.960,0.37,1.655
10:20:05.964,0.325,1.585
10:20:05.968,0.285,1.545
10:20:05.972,0.25,1.495
10:20:05.976,0.24,1.43
10:20:05.980,0.225,1.37
10:20:05.984,0.22,1.33
10:20:05.988,0.185,1.285
10:20:05.992,0.175,1.245
10:20:05.996,0.155,1.19
10:20:06.000,0.155,1.17
10:20:06.004,0.115,1.15
10:20:06.008,0.09,1.13
10:20:06.012,0.07,1.1
10:20:06.016,0.02,1.085
10:20:06.020,0.025,1.08
10:20:06.024,0.01,1.06
10:20:06.028,0.01,1.05
10:20:06.032,0.005,1.04
10:20:06.036,0.02,1.035
10:20:06.040,0.0,1.035
10:20:06.044,0.0,1.02
10:20:06.048,-0.01,1.01
10:20:06.052,-0.005,0.995
10:20:06.056,-0.03,1.025
10:20:06.060,-0.05,0.995
10:20:06.064,-0.08,0.985
10:20:06.068,-0.085,1.0
10:20:06.072,-0.095,1.0
10:20:06.076,-0.08,0.995
10:20:06.080,-0.09,0.96
10:20:06.084,-0.11,0.95
10:20:06.088,-0.115,0.985
10:20:06.092,-0.15,1.0
10:20:06.096,-0.165,0.965
10:20:06.100,-0.17,0.96
10:20:06.104,-0.155,0.94
10:20:06.108,-0.14,0.925
10:20:06.112,-0.125,0.93
10:20:06.116,-0.12,0.92
10:20:06.120,-0.095,0.935
10:20:06.124,-0.105,0.965
10:20:06.128,-0.11,0.955
10:20:06.132,-0.105,0.98
10:20:06.136,-0.095,0.965
10:20:06.140,-0.07,1.0
10:20:06.144,-0.095,0.99
10:20:06.148,-0.11,1.005
10:20:06.152,-0.1,1.01
10:20:06.156,-0.01,1.01
10:20:06.160,0.095,1.0
10:20:06.164,0.255,1.005
10:20:06.168,0.38,0.99
10:20:06.172,0.365,1.005
10:20:06.176,0.225,1.07
10:20:06.180,-0.025,1.085
10:20:06.184,-0.42,0.98
10:20:06.188,-0.885,0.785
10:20:06.192,-1.275,0.535
10:20:06.196,-1.51,0.135
10:20:06.200,-1.495,-0.555
10:20:06.204,-1.38,-1.34
10:20:06.208,-1.21,-2.21
10:20:06.212,-1.17,-2.94
10:20:06.216,-1.12,-3.45
10:20:06.220,-1.065,-3.805
10:20:06.224,-0.98,-3.965
10:20:06.228,-0.97,-3.825
10:20:06.232,-0.9,-3.62
10:20:06.236,-0.71,-3.495
10:20:06.240,-0.535,-3.435
10:20:06.244,-0.44,-3.325
10:20:06.248,-0.305,-3.195
10:20:06.252,-0.24,-2.965
10:20:06.256,-0.155,-2.635
10:20:06.260,-0.165,-2.23
10:20:06.264,-0.195,-1.82
10:20:06.268,-0.24,-1.38
10:20:06.272,-0.265,-0.945
10:20:06.276,-0.24,-0.56
10:20:06.280,-0.19,-0.19
10:20:06.284,-0.105,0.045
10:20:06.288,-0.04,0.25
10:20:06.292,-0.005,0.405
10:20:06.296,-0.01,0.545
10:20:06.300,-0.01,0.695
10:20:06.304,0.015,0.82
10:20:06.308,0.005,0.925
10:20:06.312,0.02,1.005
10:20:06.316,0.025,1.06
10:20:06.320,0.04,1.12
10:20:06.324,0.055,1.14
10:20:06.328,0.1,1.16
10:20:06.332,0.13,1.18
10:20:06.336,0.155,1.195
10:20:06.340,0.19,1.245
10:20:06.344,0.195,1.28
10:20:06.348,0.23,1.295
10:20:06.352,0.245,1.305
10:20:06.356,0.29,1.34
10:20:06.360,0.305,1.34
10:20:06.364,0.35,1.37
10:20:06.368,0.38,1.375
10:20:06.372,0.415,1.4
10:20:06.376,0.475,1.39
10:20:06.380,0.55,1.415
10:20:06.384,0.615,1.43
10:20:06.388,0.635,1.465
10:20:06.392,0.645,1.48
10:20:06.396,0.655,1.505
10:20:06.400,0.66,1.485
10:20:06.404,0.655,1.505
10:20:06.408,0.67,1.53
10:20:06.412,0.69,1.5
10:20:06.416,0.715,1.525
10:20:06.420,0.72,1.525
10:20:06.424,0.685,1.515
10:20:06.428,0.72,1.53
10:20:06.432,0.685,1.55
10:20:06.436,0.67,1.53
10:20:06.440,0.65,1.535
10:20:06.444,0.61,1.54
10:20:06.448,0.55,1.535
10:20:06.452,0.53,1.515
10:20:06.456,0.525,1.535
10:20:06.460,0.48,1.475
10:20:06.464,0.44,1.465
10:20:06.468,0.41,1.435
10:20:06.472,0.375,1.405
10:20:06.476,0.315,1.375
10:20:06.480,0.26,1.325
10:20:06.484,0.215,1.275
10:20:06.488,0.185,1.22
10:20:06.492,0.145,1.195
10:20:06.496,0.11,1.125
10:20:06.500,0.09,1.07
10:20:06.504,0.075,1.015
10:20:06.508,0.045,0.96
10:20:06.512,0.015,0.92
10:20:06.516,-0.005,0.88
10:20:06.520,-0.03,0.865
10:20:06.524,-0.1,0.825
10:20:06.528,-0.1,0.795
10:20:06.532,-0.11,0.745
10:20:06.536,-0.1,0.735
10:20:06.540,-0.07,0.705
10:20:06.544,-0.075,0.69
10:20:06.548,-0.065,0.665
10:20:06.552,-0.075,0.68
10:20:06.556,-0.07,0.66
10:20:06.560,-0.085,0.68
10:20:06.564,-0.08,0.715
10:20:06.568,-0.04,0.715
10:20:06.572,-0.02,0.73
10:20:06.576,-0.01,0.73
10:20:06.580,-0.05,0.73
10:20:06.584,-0.03,0.715
10:20:06.588,-0.005,0.745
10:20:06.592,0.035,0.745
10:20:06.596,0.07,0.745
10:20:06.600,0.115,0.745
10:20:06.604,0.165,0.765
10:20:06.608,0.19,0.76
10:20:06.612,0.215,0.765
10:20:06.616,0.215,0.745
10:20:06.620,0.225,0.73
10:20:06.624,0.215,0.735
10:20:06.628,0.195,0.735
10:20:06.632,0.23,0.705
10:20:06.636,0.23,0.695
10:20:06.640,0.22,0.68
10:20:06.644,0.205,0.66
10:20:06.648,0.19,0.67
10:20:06.652,0.165,0.635
10:20:06.656,0.155,0.65
10:20:06.660,0.14,0.625
10:20:06.664,0.115,0.635
10:20:06.668,0.095,0.62
10:20:06.672,0.135,0.605
10:20:06.676,0.13,0.59
10:20:06.680,0.125,0.565
10:20:06.684,0.145,0.575
10:20:06.688,0.215,0.55
10:20:06.692,0.36,0.54
10:20:06.696,0.465,0.545
10:20:06.700,0.42,0.575
10:20:06.704,0.265,0.615
10:20:06.708,-0.005,0.675
10:20:06.712,-0.425,0.59
10:20:06.716,-0.775,0.365
10:20:06.720,-1.025,0.065
10:20:06.724,-1.2,-0.405
10:20:06.728,-1.175,-1.15
10:20:06.732,-1.06,-1.985
10:20:06.736,-0.96,-2.875
10:20:06.740,-1.03,-3.645
10:20:06.744,-1.085,-4.135
10:20:06.748,-1.08,-4.455
10:20:06.752,-1.02,-4.56
10:20:06.756,-0.96,-4.425
10:20:06.760,-0.88,-4.225
10:20:06.764,-0.75,-4.075
10:20:06.768,-0.605,-3.92
10:20:06.772,-0.5,-3.77
10:20:06.776,-0.435,-3.635
10:20:06.780,-0.34,-3.35
10:20:06.784,-0.26,-2.99
10:20:06.788,-0.195,-2.58
10:20:06.792,-0.195,-2.195
10:20:06.796,-0.185,-1.785
10:20:06.800,-0.24,-1.365
10:20:06.804,-0.21,-0.97
10:20:06.808,-0.1,-0.645
10:20:06.812,0.03,-0.385
10:20:06.816,0.165,-0.17
10:20:06.820,0.255,0.04
10:20:06.824,0.305,0.21
10:20:06.828,0.345,0.335
10:20:06.832,0.385,0.475
10:20:06.836,0.42,0.58
10:20:06.840,0.445,0.665
10:20:06.844,0.43,0.725
10:20:06.848,0.445,0.795
10:20:06.852,0.465,0.825
10:20:06.856,0.5,0.835
10:20:06.860,0.485,0.865
10:20:06.864,0.485,0.88
10:20:06.868,0.485,0.905
10:20:06.872,0.52,0.915
10:20:06.876,0.535,0.91
10:20:06.880,0.55,0.905
10:20:06.884,0.56,0.925
10:20:06.888,0.55,0.95
10:20:06.892,0.54,0.965
10:20:06.896,0.54,0.97
10:20:06.900,0.56,1.0
10:20:06.904,0.58,1.04
10:20:06.908,0.575,1.04
10:20:06.912,0.575,1.02
10:20:06.916,0.595,1.055
10:20:06.920,0.585,1.095
10:20:06.924,0.59,1.115
10:20:06.928,0.6,1.1
10:20:06.932,0.615,1.14
10:20:06.936,0.635,1.135
10:20:06.940,0.635,1.155
10:20:06.944,0.615,1.18
10:20:06.948,0.605,1.195
10:20:06.952,0.605,1.205
10:20:06.956,0.59,1.215
10:20:06.960,0.61,1.21
10:20:06.964,0.565,1.22
10:20:06.968,0.55,1.215
10:20:06.972,0.55,1.21
10:20:06.976,0.53,1.19
10:20:06.980,0.515,1.19
10:20:06.984,0.485,1.19
10:20:06.988,0.445,1.18
10:20:06.992,0.44,1.125
10:20:06.996,0.41,1.105
10:20:07.000,0.435,1.115
10:20:07.004,0.345,1.065
10:20:07.008,0.3,1.045
10:20:07.012,0.26,0.99
10:20:07.016,0.27,0.97
10:20:07.020,0.295,0.915
10:20:07.024,0.265,0.87
10:20:07.028,0.25,0.84
10:20:07.032,0.19,0.795
10:20:07.036,0.19,0.75
10:20:07.040,0.185,0.71
10:20:07.044,0.185,0.66
10:20:07.048,0.235,0.605
10:20:07.052,0.27,0.585
10:20:07.056,0.29,0.535
10:20:07.060,0.305,0.505
10:20:07.064,0.285,0.48
10:20:07.068,0.285,0.445
10:20:07.072,0.26,0.415
10:20:07.076,0.24,0.375
10:20:07.080,0.215,0.35
10:20:07.084,0.215,0.33
10:20:07.088,0.175,0.32
10:20:07.092,0.175,0.3
10:20:07.096,0.17,0.28
10:20:07.100,0.185,0.285
10:20:07.104,0.185,0.25
10:20:07.108,0.19,0.26
10:20:07.112,0.16,0.27
10:20:07.116,0.155,0.265
10:20:07.120,0.14,0.255
10:20:07.124,0.115,0.24
10:20:07.128,0.105,0.225
10:20:07.132,0.09,0.22
10:20:07.136,0.085,0.225
10:20:07.140,0.065,0.225
10:20:07.144,0.085,0.22
10:20:07.148,0.085,0.205
10:20:07.152,0.065,0.22
10:20:07.156,0.055,0.21
10:20:07.160,0.07,0.19
10:20:07.164,0.04,0.19
10:20:07.168,0.05,0.185
10:20:07.172,0.1,0.18
10:20:07.176,0.24,0.18
10:20:07.180,0.405,0.15
10:20:07.184,0.43,0.145
10:20:07.188,0.28,0.22
10:20:07.192,-0.035,0.26
10:20:07.196,-0.465,0.275
10:20:07.200,-1.0,0.11
10:20:07.204,-1.445,-0.16
10:20:07.208,-1.75,-0.52
10:20:07.212,-1.86,-1.2
10:20:07.216,-1.8,-2.045
10:20:07.220,-1.675,-2.825
10:20:07.224,-1.54,-3.57
10:20:07.228,-1.43,-4.125
10:20:07.232,-1.375,-4.53
10:20:07.236,-1.3,-4.75
10:20:07.240,-1.19,-4.71
10:20:07.244,-1.1,-4.47
10:20:07.248,-0.885,-4.24
10:20:07.252,-0.64,-4.055
10:20:07.256,-0.455,-3.96
10:20:07.260,-0.345,-3.765
10:20:07.264,-0.16,-3.63
10:20:07.268,-0.045,-3.36
10:20:07.272,0.005,-3.025
10:20:07.276,0.015,-2.665
10:20:07.280,-0.01,-2.28
10:20:07.284,-0.015,-1.895
10:20:07.288,0.03,-1.535
10:20:07.292,0.085,-1.205
10:20:07.296,0.125,-0.905
10:20:07.300,0.17,-0.64
10:20:07.304,0.255,-0.41
10:20:07.308,0.3,-0.29
10:20:07.312,0.32,-0.15
10:20:07.316,0.33,0.0
10:20:07.320,0.36,0.125
10:20:07.324,0.36,0.25
10:20:07.328,0.355,0.355
10:20:07.332,0.35,0.445
10:20:07.336,0.34,0.5
10:20:07.340,0.33,0.5
10:20:07.344,0.33,0.55
10:20:07.348,0.325,0.56
10:20:07.352,0.34,0.565
10:20:07.356,0.355,0.59
10:20:07.360,0.38,0.605
10:20:07.364,0.39,0.59
10:20:07.368,0.4,0.61
10:20:07.372,0.405,0.64
10:20:07.376,0.41,0.68
10:20:07.380,0.43,0.68
10:20:07.384,0.405,0.705
10:20:07.388,0.41,0.715
10:20:07.392,0.425,0.725
10:20:07.396,0.405,0.735
10:20:07.400,0.41,0.75
10:20:07.404,0.445,0.77
10:20:07.408,0.46,0.76
10:20:07.412,0.425,0.785
10:20:07.416,0.405,0.815
10:20:07.420,0.395,0.835
10:20:07.424,0.405,0.855
10:20:07.428,0.41,0.835
10:20:07.432,0.415,0.88
10:20:07.436,0.42,0.88
10:20:07.440,0.435,0.88
10:20:07.444,0.44,0.87
10:20:07.448,0.44,0.89
10:20:07.452,0.44,0.91
10:20:07.456,0.45,0.945
10:20:07.460,0.405,0.95
10:20:07.464,0.405,0.955
10:20:07.468,0.405,0.965
10:20:07.472,0.4,0.96
10:20:07.476,0.39,0.955
10:20:07.480,0.36,0.955
10:20:07.484,0.34,0.925
10:20:07.488,0.34,0.885
10:20:07.492,0.34,0.875
10:20:07.496,0.38,0.835
10:20:07.500,0.405,0.775
10:20:07.504,0.41,0.765
10:20:07.508,0.405,0.735
10:20:07.512,0.38,0.68
10:20:07.516,0.365,0.605
10:20:07.520,0.36,0.58
10:20:07.524,0.34,0.52
10:20:07.528,0.31,0.47
10:20:07.532,0.285,0.43
10:20:07.536,0.275,0.35
10:20:07.540,0.265,0.3
10:20:07.544,0.265,0.27
10:20:07.548,0.25,0.24
10:20:07.552,0.235,0.2
10:20:07.556,0.215,0.225
10:20:07.560,0.175,0.18
10:20:07.564,0.15,0.14
10:20:07.568,0.14,0.145
10:20:07.572,0.125,0.11
10:20:07.576,0.13,0.105
10:20:07.580,0.13,0.09
10:20:07.584,0.165,0.07
10:20:07.588,0.175,0.085
10:20:07.592,0.145,0.09
10:20:07.596,0.12,0.105
10:20:07.600,0.11,0.115
10:20:07.604,0.11,0.115
10:20:07.608,0.09,0.09
10:20:07.612,0.085,0.105
10:20:07.616,0.085,0.085
10:20:07.620,0.07,0.075
10:20:07.624,0.045,0.07
10:20:07.628,0.045,0.07
10:20:07.632,0.045,0.07
10:20:07.636,0.025,0.065
10:20:07.640,-0.005,0.05
10:20:07.644,-0.025,0.06
10:20:07.648,-0.04,0.035
10:20:07.652,-0.055,0.04
10:20:07.656,-0.035,0.005
10:20:07.660,-0.035,-0.005
10:20:07.664,-0.015,-0.02
10:20:07.668,0.0,-0.015
10:20:07.672,0.01,-0.025
10:20:07.676,0.0,-0.015
10:20:07.680,0.005,-0.005
10:20:07.684,-0.01,0.03
10:20:07.688,-0.01,0.02
10:20:07.692,-0.005,0.035
10:20:07.696,0.0,0.03
10:20:07.700,0.02,0.03
10:20:07.704,0.025,0.025
10:20:07.708,0.0,0.045
10:20:07.712,0.035,0.04
10:20:07.716,0.05,0.055
10:20:07.720,0.075,0.05
10:20:07.724,0.12,0.06
10:20:07.728,0.175,0.07
10:20:07.732,0.205,0.055
10:20:07.736,0.2,0.06
10:20:07.740,0.195,0.05
10:20:07.744,0.205,0.05
10:20:07.748,0.195,0.04
10:20:07.752,0.195,0.04
10:20:07.756,0.19,0.01
10:20:07.760,0.19,0.01
10:20:07.764,0.2,0.015
10:20:07.768,0.195,0.025
10:20:07.772,0.17,-0.01
10:20:07.776,0.17,0.0
10:20:07.780,0.15,0.03
10:20:07.784,0.145,0.02
10:20:07.788,0.13,0.015
10:20:07.792,0.115,0.0
10:20:07.796,0.1,0.005
10:20:07.800,0.1,0.0
10:20:07.804,0.11,-0.005
10:20:07.808,0.085,-0.005
10:20:07.812,0.09,-0.005
10:20:07.816,0.075,-0.035
10:20:07.820,0.065,-0.025
10:20:07.824,0.065,-0.02
10:20:07.828,0.04,-0.025
10:20:07.832,0.005,-0.055
10:20:07.836,0.005,-0.055
10:20:07.840,-0.015,-0.045
10:20:07.844,-0.015,-0.08
10:20:07.848,-0.01,-0.055
10:20:07.852,-0.02,-0.075
10:20:07.856,-0.03,-0.075
10:20:07.860,-0.065,-0.1
10:20:07.864,-0.09,-0.115
10:20:07.868,-0.115,-0.125
10:20:07.872,-0.105,-0.12
10:20:07.876,-0.1,-0.14
10:20:07.880,-0.115,-0.145
10:20:07.884,-0.11,-0.185
10:20:07.888,-0.09,-0.17
10:20:07.892,-0.075,-0.16
10:20:07.896,-0.065,-0.18
10:20:07.900,-0.075,-0.14
10:20:07.904,-0.095,-0.16
10:20:07.908,-0.095,-0.135
10:20:07.912,-0.12,-0.125
10:20:07.916,-0.09,-0.12
10:20:07.920,-0.055,-0.105
10:20:07.924,-0.04,-0.115
10:20:07.928,-0.035,-0.105
10:20:07.932,-0.005,-0.105
10:20:07.936,0.04,-0.09
10:20:07.940,0.115,-0.1
10:20:07.944,0.24,-0.08
10:20:07.948,0.345,-0.095
10:20:07.952,0.33,-0.03
10:20:07.956,0.235,0.01
10:20:07.960,0.03,0.065
10:20:07.964,-0.335,0.005
10:20:07.968,-0.755,-0.255
10:20:07.972,-1.105,-0.56
10:20:07.976,-1.365,-0.955
10:20:07.980,-1.435,-1.635
10:20:07.984,-1.345,-2.465
10:20:07.988,-1.18,-3.2
10:20:07.992,-1.055,-3.945
10:20:07.996,-1.07,-4.445
10:20:08.000,-1.065,-4.77
10:20:08.004,-0.995,-4.99
10:20:08.008,-0.93,-4.95
10:20:08.012,-0.905,-4.795
10:20:08.016,-0.86,-4.615
10:20:08.020,-0.745,-4.475
10:20:08.024,-0.59,-4.375
10:20:08.028,-0.465,-4.295
10:20:08.032,-0.32,-4.165
10:20:08.036,-0.2,-3.975
10:20:08.040,-0.08,-3.695
10:20:08.044,-0.075,-3.355
10:20:08.048,-0.09,-3.015
10:20:08.052,-0.13,-2.635
10:20:08.056,-0.155,-2.24
10:20:08.060,-0.175,-1.835
10:20:08.064,-0.135,-1.465
10:20:08.068,-0.075,-1.11
10:20:08.072,-0.025,-0.875
10:20:08.076,0.03,-0.65
10:20:08.080,0.04,-0.485
10:20:08.084,0.05,-0.315
10:20:08.088,0.025,-0.155
10:20:08.092,0.035,-0.035
10:20:08.096,0.035,0.1
10:20:08.100,0.035,0.19
10:20:08.104,0.06,0.275
10:20:08.108,0.1,0.34
10:20:08.112,0.12,0.37
10:20:08.116,0.13,0.36
10:20:08.120,0.155,0.415
10:20:08.124,0.19,0.435
10:20:08.128,0.175,0.46
10:20:08.132,0.195,0.49
10:20:08.136,0.18,0.515
10:20:08.140,0.22,0.55
10:20:08.144,0.24,0.535
10:20:08.148,0.3,0.585
10:20:08.152,0.33,0.595
10:20:08.156,0.325,0.605
10:20:08.160,0.32,0.645
10:20:08.164,0.35,0.65
10:20:08.168,0.39,0.69
10:20:08.172,0.42,0.725
10:20:08.176,0.465,0.73
10:20:08.180,0.52,0.755
10:20:08.184,0.525,0.755
10:20:08.188,0.54,0.795
10:20:08.192,0.535,0.795
10:20:08.196,0.55,0.815
10:20:08.200,0.56,0.82
10:20:08.204,0.57,0.835
10:20:08.208,0.57,0.875
10:20:08.212,0.585,0.875
10:20:08.216,0.59,0.885
10:20:08.220,0.585,0.885
10:20:08.224,0.59,0.89
10:20:08.228,0.585,0.9
10:20:08.232,0.58,0.93
10:20:08.236,0.58,0.925
10:20:08.240,0.595,0.915
10:20:08.244,0.56,0.95
10:20:08.248,0.535,0.925
10:20:08.252,0.525,0.94
10:20:08.256,0.49,0.935
10:20:08.260,0.48,0.93
10:20:08.264,0.455,0.895
10:20:08.268,0.41,0.89
10:20:08.272,0.395,0.87
10:20:08.276,0.36,0.835
10:20:08.280,0.32,0.81
10:20:08.284,0.31,0.785
10:20:08.288,0.295,0.725
10:20:08.292,0.255,0.68
10:20:08.296,0.235,0.585
10:20:08.300,0.175,0.57
10:20:08.304,0.155,0.53
10:20:08.308,0.1,0.49
10:20:08.312,0.08,0.42
10:20:08.316,0.08,0.36
10:20:08.320,0.03,0.3
10:20:08.324,-0.005,0.245
10:20:08.328,-0.035,0.21
10:20:08.332,-0.035,0.16
10:20:08.336,-0.04,0.13
10:20:08.340,-0.02,0.095
10:20:08.344,-0.045,0.05
10:20:08.348,-0.055,0.02
10:20:08.352,-0.07,0.015
10:20:08.356,-0.065,-0.005
10:20:08.360,-0.085,-0.015
10:20:08.364,-0.095,0.0
10:20:08.368,-0.09,-0.005
10:20:08.372,-0.09,-0.015
10:20:08.376,-0.065,-0.01
10:20:08.380,-0.01,-0.025
10:20:08.384,-0.025,0.005
10:20:08.388,-0.025,0.015
10:20:08.392,-0.015,0.025
10:20:08.396,0.005,0.045
10:20:08.400,0.03,0.06
10:20:08.404,0.115,0.065
10:20:08.408,0.13,0.06
10:20:08.412,0.17,0.07
10:20:08.416,0.17,0.07
10:20:08.420,0.175,0.06
10:20:08.424,0.195,0.055
10:20:08.428,0.175,0.025
10:20:08.432,0.165,0.045
10:20:08.436,0.17,0.055
10:20:08.440,0.15,0.055
10:20:08.444,0.135,0.055
10:20:08.448,0.125,0.04
10:20:08.452,0.145,-0.005
10:20:08.456,0.225,-0.005
10:20:08.460,0.295,0.01
10:20:08.464,0.385,-0.005
10:20:08.468,0.325,0.05
10:20:08.472,0.175,0.095
10:20:08.476,-0.12,0.155
10:20:08.480,-0.605,0.11
10:20:08.484,-1.095,-0.06
10:20:08.488,-1.44,-0.28
10:20:08.492,-1.63,-0.63
10:20:08.496,-1.595,-1.28
10:20:08.500,-1.515,-2.145
10:20:08.504,-1.405,-2.99
10:20:08.508,-1.295,-3.75
10:20:08.512,-1.245,-4.295
10:20:08.516,-1.215,-4.675
10:20:08.520,-1.17,-4.895
10:20:08.524,-1.11,-4.905
10:20:08.528,-0.97,-4.755
10:20:08.532,-0.78,-4.655
10:20:08.536,-0.6,-4.56
10:20:08.540,-0.5,-4.46
10:20:08.544,-0.425,-4.38
10:20:08.548,-0.35,-4.15
10:20:08.552,-0.27,-3.82
10:20:08.556,-0.26,-3.445
10:20:08.560,-0.26,-3.07
10:20:08.564,-0.335,-2.695
10:20:08.568,-0.335,-2.265
10:20:08.572,-0.285,-1.83
10:20:08.576,-0.195,-1.47
10:20:08.580,-0.12,-1.155
10:20:08.584,-0.06,-0.84
10:20:08.588,-0.04,-0.625
10:20:08.592,-0.01,-0.435
10:20:08.596,0.01,-0.265
10:20:08.600,0.025,-0.095
10:20:08.604,0.065,0.045
10:20:08.608,0.1,0.165
10:20:08.612,0.095,0.28
10:20:08.616,0.085,0.35
10:20:08.620,0.115,0.4
10:20:08.624,0.155,0.44
10:20:08.628,0.175,0.455
10:20:08.632,0.22,0.475
10:20:08.636,0.285,0.495
10:20:08.640,0.325,0.51
10:20:08.644,0.365,0.52
10:20:08.648,0.395,0.53
10:20:08.652,0.41,0.515
10:20:08.656,0.405,0.535
10:20:08.660,0.4,0.535
10:20:08.664,0.42,0.56
10:20:08.668,0.425,0.57
10:20:08.672,0.45,0.57
10:20:08.676,0.44,0.565
10:20:08.680,0.43,0.58
10:20:08.684,0.435,0.575
10:20:08.688,0.47,0.59
10:20:08.692,0.475,0.62
10:20:08.696,0.465,0.62
10:20:08.700,0.455,0.63
10:20:08.704,0.425,0.645
10:20:08.708,0.41,0.655
10:20:08.712,0.395,0.665
10:20:08.716,0.415,0.68
10:20:08.720,0.41,0.69
10:20:08.724,0.435,0.71
10:20:08.728,0.41,0.72
10:20:08.732,0.405,0.72
10:20:08.736,0.405,0.725
10:20:08.740,0.41,0.745
10:20:08.744,0.415,0.74
10:20:08.748,0.365,0.735
10:20:08.752,0.355,0.74
10:20:08.756,0.315,0.755
10:20:08.760,0.285,0.765
10:20:08.764,0.285,0.72
10:20:08.768,0.245,0.7
10:20:08.772,0.195,0.665
10:20:08.776,0.165,0.645
10:20:08.780,0.12,0.625
10:20:08.784,0.1,0.575
10:20:08.788,0.09,0.535
10:20:08.792,0.045,0.495
10:20:08.796,0.015,0.445
10:20:08.800,-0.005,0.41
10:20:08.804,0.0,0.34
10:20:08.808,-0.02,0.295
10:20:08.812,-0.025,0.265
10:20:08.816,-0.05,0.23
10:20:08.820,-0.065,0.21
10:20:08.824,-0.045,0.19
10:20:08.828,-0.04,0.175
10:20:08.832,-0.02,0.16
10:20:08.836,0.0,0.14
10:20:08.840,-0.01,0.13
10:20:08.844,-0.055,0.135
10:20:08.848,-0.04,0.14
10:20:08.852,-0.02,0.115
10:20:08.856,0.0,0.105
10:20:08.860,0.02,0.09
10:20:08.864,0.08,0.095
10:20:08.868,0.11,0.09
10:20:08.872,0.135,0.075
10:20:08.876,0.115,0.075
10:20:08.880,0.135,0.06
10:20:08.884,0.135,0.07
10:20:08.888,0.115,0.065
10:20:08.892,0.115,0.045
10:20:08.896,0.09,0.04
10:20:08.900,0.105,0.01
10:20:08.904,0.1,0.0
10:20:08.908,0.09,-0.015
10:20:08.912,0.095,0.0
10:20:08.916,0.095,-0.015
10:20:08.920,0.085,-0.015
10:20:08.924,0.09,-0.02
10:20:08.928,0.07,-0.015
10:20:08.932,0.015,-0.005
10:20:08.936,0.0,-0.005
10:20:08.940,0.01,0.0
10:20:08.944,0.02,-0.03
10:20:08.948,0.0,-0.035
10:20:08.952,0.01,-0.045
10:20:08.956,-0.025,-0.035
10:20:08.960,-0.04,-0.055
10:20:08.964,-0.05,-0.05
10:20:08.968,-0.07,-0.07
10:20:08.972,-0.07,-0.05
10:20:08.976,-0.08,-0.05
10:20:08.980,-0.105,-0.04
10:20:08.984,-0.13,-0.065
10:20:08.988,-0.15,-0.055
10:20:08.992,-0.16,-0.065
10:20:08.996,-0.16,-0.095
10:20:09.000,-0.175,-0.135
10:20:09.004,-0.18,-0.105
10:20:09.008,-0.2,-0.115
10:20:09.012,-0.23,-0.125
10:20:09.016,-0.235,-0.135
10:20:09.020,-0.21,-0.145
10:20:09.024,-0.2,-0.17
10:20:09.028,-0.21,-0.2
10:20:09.032,-0.19,-0.19
10:20:09.036,-0.18,-0.2
10:20:09.040,-0.185,-0.175
10:20:09.044,-0.16,-0.185
10:20:09.048,-0.18,-0.17
10:20:09.052,-0.195,-0.16
10:20:09.056,-0.2,-0.145
10:20:09.060,-0.16,-0.12
10:20:09.064,-0.17,-0.15
10:20:09.068,-0.175,-0.14
10:20:09.072,-0.16,-0.14
10:20:09.076,-0.11,-0.135
10:20:09.080,-0.055,-0.15
10:20:09.084,-0.015,-0.14
10:20:09.088,0.035,-0.14
10:20:09.092,0.065,-0.145
10:20:09.096,0.075,-0.135
10:20:09.100,0.105,-0.15
10:20:09.104,0.1,-0.12
10:20:09.108,0.075,-0.115
10:20:09.112,0.075,-0.12
10:20:09.116,0.065,-0.14
10:20:09.120,0.09,-0.13
10:20:09.124,0.06,-0.145
10:20:09.128,0.11,-0.15
10:20:09.132,0.09,-0.16
10:20:09.136,0.095,-0.16
10:20:09.140,0.1,-0.165
10:20:09.144,0.075,-0.17
10:20:09.148,0.045,-0.14
10:20:09.152,0.015,-0.14
10:20:09.156,-0.005,-0.125
10:20:09.160,-0.02,-0.13
10:20:09.164,0.0,-0.115
10:20:09.168,-0.02,-0.16
10:20:09.172,-0.01,-0.135
10:20:09.176,-0.015,-0.14
10:20:09.180,-0.01,-0.155
10:20:09.184,-0.015,-0.145
10:20:09.188,-0.015,-0.13
10:20:09.192,-0.04,-0.12
10:20:09.196,-0.07,-0.135
10:20:09.200,-0.075,-0.13
10:20:09.204,-0.07,-0.135
10:20:09.208,-0.085,-0.145
10:20:09.212,-0.1,-0.155
10:20:09.216,-0.1,-0.17
10:20:09.220,-0.085,-0.19
10:20:09.224,-0.125,-0.165
10:20:09.228,-0.155,-0.185
10:20:09.232,-0.165,-0.17
10:20:09.236,-0.185,-0.19
10:20:09.240,-0.18,-0.22
10:20:09.244,-0.18,-0.24
10:20:09.248,-0.19,-0.21
10:20:09.252,-0.155,-0.215
10:20:09.256,-0.14,-0.24
10:20:09.260,-0.13,-0.23
10:20:09.264,-0.09,-0.22
10:20:09.268,-0.015,-0.225
10:20:09.272,0.095,-0.19
10:20:09.276,0.105,-0.14
10:20:09.280,0.025,-0.075
10:20:09.284,-0.12,0.025
10:20:09.288,-0.415,0.07
10:20:09.292,-0.865,-0.1
10:20:09.296,-1.255,-0.41
10:20:09.300,-1.525,-0.765
10:20:09.304,-1.7,-1.36
10:20:09.308,-1.705,-2.14
10:20:09.312,-1.525,-2.96
10:20:09.316,-1.315,-3.635
10:20:09.320,-1.215,-4.245
10:20:09.324,-1.18,-4.65
10:20:09.328,-1.175,-4.96
10:20:09.332,-1.09,-5.05
10:20:09.336,-1.06,-4.95
10:20:09.340,-1.03,-4.77
10:20:09.344,-0.92,-4.625
10:20:09.348,-0.775,-4.565
10:20:09.352,-0.64,-4.485
10:20:09.356,-0.52,-4.405
10:20:09.360,-0.38,-4.255
10:20:09.364,-0.25,-3.995
10:20:09.368,-0.185,-3.685
10:20:09.372,-0.195,-3.345
10:20:09.376,-0.25,-2.97
10:20:09.380,-0.31,-2.565
10:20:09.384,-0.335,-2.16
10:20:09.388,-0.3,-1.795
10:20:09.392,-0.245,-1.425
10:20:09.396,-0.18,-1.12
10:20:09.400,-0.12,-0.87
10:20:09.404,-0.105,-0.66
10:20:09.408,-0.1,-0.465
10:20:09.412,-0.06,-0.315
10:20:09.416,-0.065,-0.155
10:20:09.420,-0.07,-0.01
10:20:09.424,-0.075,0.11
10:20:09.428,-0.065,0.22
10:20:09.432,-0.07,0.295
10:20:09.436,-0.07,0.33
10:20:09.440,-0.04,0.35
10:20:09.444,-0.04,0.36
10:20:09.448,-0.045,0.38
10:20:09.452,-0.035,0.43
10:20:09.456,-0.045,0.455
10:20:09.460,-0.075,0.46
10:20:09.464,-0.05,0.465
10:20:09.468,-0.04,0.49
10:20:09.472,-0.02,0.51
10:20:09.476,-0.01,0.5
10:20:09.480,0.02,0.52
10:20:09.484,0.05,0.545
10:20:09.488,0.025,0.585
10:20:09.492,0.035,0.64
10:20:09.496,0.06,0.66
10:20:09.500,0.075,0.685
10:20:09.504,0.11,0.75
10:20:09.508,0.125,0.75
10:20:09.512,0.135,0.775
10:20:09.516,0.125,0.825
10:20:09.520,0.125,0.825
10:20:09.524,0.165,0.83
10:20:09.528,0.22,0.865
10:20:09.532,0.28,0.895
10:20:09.536,0.31,0.935
10:20:09.540,0.33,0.975
10:20:09.544,0.35,0.975
10:20:09.548,0.345,1.005
10:20:09.552,0.36,1.025
10:20:09.556,0.345,1.01
10:20:09.560,0.35,1.03
10:20:09.564,0.32,1.005
10:20:09.568,0.325,0.985
10:20:09.572,0.29,1.005
10:20:09.576,0.255,1.0
10:20:09.580,0.205,0.98
10:20:09.584,0.17,0.975
10:20:09.588,0.145,0.96
10:20:09.592,0.11,0.905
10:20:09.596,0.085,0.86
10:20:09.600,0.03,0.8
10:20:09.604,-0.015,0.755
10:20:09.608,-0.065,0.7
10:20:09.612,-0.08,0.65
10:20:09.616,-0.115,0.595
10:20:09.620,-0.14,0.545
10:20:09.624,-0.165,0.52
10:20:09.628,-0.185,0.465
10:20:09.632,-0.23,0.405
10:20:09.636,-0.265,0.365
10:20:09.640,-0.295,0.3
10:20:09.644,-0.31,0.245
10:20:09.648,-0.335,0.195
10:20:09.652,-0.375,0.14
10:20:09.656,-0.425,0.11
10:20:09.660,-0.44,0.095
10:20:09.664,-0.46,0.065
10:20:09.668,-0.505,0.04
10:20:09.672,-0.525,0.0
10:20:09.676,-0.565,-0.01
10:20:09.680,-0.595,-0.04
10:20:09.684,-0.58,-0.055
10:20:09.688,-0.595,-0.075
10:20:09.692,-0.6,-0.09
10:20:09.696,-0.62,-0.115
10:20:09.700,-0.605,-0.14
10:20:09.704,-0.6,-0.12
10:20:09.708,-0.585,-0.11
10:20:09.712,-0.615,-0.095
10:20:09.716,-0.65,-0.06
10:20:09.720,-0.645,-0.08
10:20:09.724,-0.615,-0.07
10:20:09.728,-0.585,-0.055
10:20:09.732,-0.59,-0.035
10:20:09.736,-0.585,-0.015
10:20:09.740,-0.565,0.0
10:20:09.744,-0.555,0.015
10:20:09.748,-0.525,0.04
10:20:09.752,-0.49,0.005
10:20:09.756,-0.44,0.03
10:20:09.760,-0.435,0.075
10:20:09.764,-0.415,0.06
10:20:09.768,-0.41,0.055
10:20:09.772,-0.38,0.04
10:20:09.776,-0.4,0.055
10:20:09.780,-0.42,0.06
10:20:09.784,-0.42,0.03
10:20:09.788,-0.445,0.035
10:20:09.792,-0.465,0.035
10:20:09.796,-0.48,0.03
10:20:09.800,-0.475,0.01
10:20:09.804,-0.485,0.02
10:20:09.808,-0.525,0.015
10:20:09.812,-0.535,0.025
10:20:09.816,-0.545,0.02
10:20:09.820,-0.56,-0.005
10:20:09.824,-0.595,-0.01
10:20:09.828,-0.615,-0.02
10:20:09.832,-0.64,-0.01
10:20:09.836,-0.645,-0.045
10:20:09.840,-0.675,-0.04
10:20:09.844,-0.685,-0.045
10:20:09.848,-0.72,-0.05
10:20:09.852,-0.73,-0.055
10:20:09.856,-0.745,-0.07
10:20:09.860,-0.755,-0.105
10:20:09.864,-0.8,-0.12
10:20:09.868,-0.78,-0.15
10:20:09.872,-0.815,-0.165
10:20:09.876,-0.85,-0.135
10:20:09.880,-0.88,-0.165
10:20:09.884,-0.9,-0.185
10:20:09.888,-0.945,-0.185
10:20:09.892,-0.97,-0.17
10:20:09.896,-0.98,-0.205
10:20:09.900,-1.005,-0.2
10:20:09.904,-0.99,-0.195
10:20:09.908,-0.99,-0.245
10:20:09.912,-1.015,-0.24
10:20:09.916,-0.995,-0.26
10:20:09.920,-0.995,-0.255
10:20:09.924,-0.985,-0.245
10:20:09.928,-0.99,-0.23
10:20:09.932,-1.02,-0.25
10:20:09.936,-1.04,-0.22
10:20:09.940,-1.005,-0.195
10:20:09.944,-1.005,-0.185
10:20:09.948,-1.0,-0.19
10:20:09.952,-0.985,-0.185
10:20:09.956,-0.98,-0.18
10:20:09.960,-0.98,-0.195
10:20:09.964,-0.96,-0.15
10:20:09.968,-0.93,-0.175
10:20:09.972,-0.88,-0.185
10:20:09.976,-0.805,-0.185
10:20:09.980,-0.775,-0.19
10:20:09.984,-0.76,-0.185
10:20:09.988,-0.75,-0.195
10:20:09.992,-0.75,-0.18
10:20:09.996,-0.74,-0.195
10:20:10.000,-0.76,-0.2
10:20:10.004,-0.79,-0.19
10:20:10.008,-0.78,-0.195
10:20:10.012,-0.77,-0.195
10:20:10.016,-0.78,-0.225
10:20:10.020,-0.82,-0.21
10:20:10.024,-0.825,-0.25
10:20:10.028,-0.83,-0.24
10:20:10.032,-0.83,-0.275
10:20:10.036,-0.855,-0.27
10:20:10.040,-0.895,-0.27
10:20:10.044,-0.91,-0.285
10:20:10.048,-0.915,-0.285
10:20:10.052,-0.94,-0.27
10:20:10.056,-0.96,-0.28
10:20:10.060,-1.0,-0.27
10:20:10.064,-1.01,-0.27
10:20:10.068,-1.0,-0.28
10:20:10.072,-1.005,-0.3
10:20:10.076,-1.06,-0.32
10:20:10.080,-1.06,-0.32
10:20:10.084,-1.06,-0.345
10:20:10.088,-1.08,-0.36
10:20:10.092,-1.11,-0.335
10:20:10.096,-1.115,-0.35
10:20:10.100,-1.135,-0.325
10:20:10.104,-1.18,-0.33
10:20:10.108,-1.195,-0.355
10:20:10.112,-1.17,-0.375
10:20:10.116,-1.085,-0.38
10:20:10.120,-0.96,-0.375
10:20:10.124,-0.91,-0.35
10:20:10.128,-1.05,-0.32
10:20:10.132,-1.275,-0.245
10:20:10.136,-1.585,-0.19
10:20:10.140,-2.01,-0.33
10:20:10.144,-2.45,-0.72
10:20:10.148,-2.845,-1.195
10:20:10.152,-3.105,-1.835
10:20:10.156,-3.155,-2.625
10:20:10.160,-3.035,-3.36
10:20:10.164,-2.87,-3.99
10:20:10.168,-2.84,-4.535
10:20:10.172,-2.795,-4.89
10:20:10.176,-2.725,-5.125
10:20:10.180,-2.635,-5.17
10:20:10.184,-2.51,-5.03
10:20:10.188,-2.41,-4.845
10:20:10.192,-2.185,-4.685
10:20:10.196,-1.965,-4.565
10:20:10.200,-1.79,-4.475
10:20:10.204,-1.64,-4.34
10:20:10.208,-1.515,-4.165
10:20:10.212,-1.385,-3.885
10:20:10.216,-1.34,-3.565
10:20:10.220,-1.38,-3.22
10:20:10.224,-1.38,-2.865
10:20:10.228,-1.39,-2.47
10:20:10.232,-1.335,-2.1
10:20:10.236,-1.265,-1.72
10:20:10.240,-1.18,-1.375
10:20:10.244,-1.065,-1.08
10:20:10.248,-0.995,-0.88
10:20:10.252,-0.945,-0.7
10:20:10.256,-0.92,-0.56
10:20:10.260,-0.9,-0.38
10:20:10.264,-0.89,-0.225
10:20:10.268,-0.875,-0.085
10:20:10.272,-0.875,0.025
10:20:10.276,-0.865,0.085
10:20:10.280,-0.86,0.145
10:20:10.284,-0.86,0.145
10:20:10.288,-0.84,0.165
10:20:10.292,-0.81,0.18
10:20:10.296,-0.775,0.23
10:20:10.300,-0.735,0.23
10:20:10.304,-0.75,0.255
10:20:10.308,-0.755,0.315
10:20:10.312,-0.79,0.325
10:20:10.316,-0.765,0.34
10:20:10.320,-0.745,0.34
10:20:10.324,-0.74,0.35
10:20:10.328,-0.72,0.365
10:20:10.332,-0.725,0.37
10:20:10.336,-0.715,0.41
10:20:10.340,-0.73,0.44
10:20:10.344,-0.72,0.455
10:20:10.348,-0.73,0.5
10:20:10.352,-0.685,0.495
10:20:10.356,-0.67,0.545
10:20:10.360,-0.64,0.57
10:20:10.364,-0.62,0.575
10:20:10.368,-0.6,0.635
10:20:10.372,-0.59,0.67
10:20:10.376,-0.595,0.705
10:20:10.380,-0.585,0.75
10:20:10.384,-0.54,0.745
10:20:10.388,-0.515,0.785
10:20:10.392,-0.525,0.805
10:20:10.396,-0.54,0.86
10:20:10.400,-0.535,0.88
10:20:10.404,-0.52,0.925
10:20:10.408,-0.485,0.915
10:20:10.412,-0.48,0.915
10:20:10.416,-0.455,0.91
10:20:10.420,-0.43,0.9
10:20:10.424,-0.43,0.87
10:20:10.428,-0.415,0.85
10:20:10.432,-0.455,0.835
10:20:10.436,-0.51,0.785
10:20:10.440,-0.59,0.755
10:20:10.444,-0.645,0.7
10:20:10.448,-0.69,0.645
10:20:10.452,-0.735,0.565
10:20:10.456,-0.75,0.51
10:20:10.460,-0.8,0.425
10:20:10.464,-0.795,0.35
10:20:10.468,-0.825,0.3
10:20:10.472,-0.87,0.24
10:20:10.476,-0.92,0.16
10:20:10.480,-0.95,0.095
10:20:10.484,-1.02,0.06
10:20:10.488,-1.055,0.0
10:20:10.492,-1.055,-0.04
10:20:10.496,-1.065,-0.08
10:20:10.500,-1.075,-0.125
10:20:10.504,-1.105,-0.135
10:20:10.508,-1.105,-0.16
10:20:10.512,-1.105,-0.16
10:20:10.516,-1.13,-0.205
10:20:10.520,-1.135,-0.185
10:20:10.524,-1.15,-0.195
10:20:10.528,-1.145,-0.225
10:20:10.532,-1.185,-0.22
10:20:10.536,-1.235,-0.215
10:20:10.540,-1.24,-0.22
10:20:10.544,-1.24,-0.24
10:20:10.548,-1.255,-0.24
10:20:10.552,-1.265,-0.24
10:20:10.556,-1.28,-0.23
10:20:10.560,-1.3,-0.24
10:20:10.564,-1.28,-0.215
10:20:10.568,-1.28,-0.235
10:20:10.572,-1.295,-0.25
10:20:10.576,-1.29,-0.235
10:20:10.580,-1.27,-0.24
10:20:10.584,-1.255,-0.235
10:20:10.588,-1.23,-0.25
10:20:10.592,-1.22,-0.22
10:20:10.596,-1.225,-0.2
10:20:10.600,-1.235,-0.16
10:20:10.604,-1.225,-0.13
10:20:10.608,-1.18,-0.115
10:20:10.612,-1.165,-0.115
10:20:10.616,-1.18,-0.11
10:20:10.620,-1.17,-0.095
10:20:10.624,-1.165,-0.09
10:20:10.628,-1.115,-0.085
10:20:10.632,-1.08,-0.1
10:20:10.636,-1.01,-0.11
10:20:10.640,-0.94,-0.085
10:20:10.644,-0.905,-0.095
10:20:10.648,-0.875,-0.105
10:20:10.652,-0.88,-0.115
10:20:10.656,-0.875,-0.1
10:20:10.660,-0.88,-0.115
10:20:10.664,-0.895,-0.11
10:20:10.668,-0.905,-0.125
10:20:10.672,-0.9,-0.165
10:20:10.676,-0.905,-0.19
10:20:10.680,-0.905,-0.18
10:20:10.684,-0.905,-0.2
10:20:10.688,-0.905,-0.205
10:20:10.692,-0.915,-0.205
10:20:10.696,-0.97,-0.2
10:20:10.700,-1.0,-0.195
10:20:10.704,-1.02,-0.19
10:20:10.708,-1.02,-0.195
10:20:10.712,-1.04,-0.21
10:20:10.716,-1.05,-0.205
10:20:10.720,-1.05,-0.235
10:20:10.724,-1.02,-0.255
10:20:10.728,-1.045,-0.255
10:20:10.732,-1.05,-0.265
10:20:10.736,-1.065,-0.24
10:20:10.740,-1.09,-0.26
10:20:10.744,-1.135,-0.265
10:20:10.748,-1.16,-0.285
10:20:10.752,-1.155,-0.285
10:20:10.756,-1.18,-0.29
10:20:10.760,-1.185,-0.29
10:20:10.764,-1.195,-0.31
10:20:10.768,-1.205,-0.33
10:20:10.772,-1.2,-0.33
10:20:10.776,-1.215,-0.31
10:20:10.780,-1.225,-0.325
10:20:10.784,-1.23,-0.36
10:20:10.788,-1.25,-0.365
10:20:10.792,-1.255,-0.36
10:20:10.796,-1.225,-0.35
10:20:10.800,-1.22,-0.355
10:20:10.804,-1.24,-0.345
10:20:10.808,-1.21,-0.345
10:20:10.812,-1.195,-0.335
10:20:10.816,-1.16,-0.325
10:20:10.820,-1.085,-0.315
10:20:10.824,-0.995,-0.29
10:20:10.828,-0.865,-0.265
10:20:10.832,-0.78,-0.265
10:20:10.836,-0.845,-0.2
10:20:10.840,-0.98,-0.125
10:20:10.844,-1.21,-0.025
10:20:10.848,-1.6,-0.11
10:20:10.852,-1.985,-0.395
10:20:10.856,-2.295,-0.775
10:20:10.860,-2.6,-1.305
10:20:10.864,-2.73,-2.04
10:20:10.868,-2.7,-2.85
10:20:10.872,-2.575,-3.57
10:20:10.876,-2.495,-4.205
10:20:10.880,-2.47,-4.67
10:20:10.884,-2.41,-4.965
10:20:10.888,-2.355,-5.13
10:20:10.892,-2.275,-5.095
10:20:10.896,-2.225,-4.97
10:20:10.900,-2.115,-4.845
10:20:10.904,-1.935,-4.78
10:20:10.908,-1.79,-4.71
10:20:10.912,-1.615,-4.67
10:20:10.916,-1.48,-4.545
10:20:10.920,-1.35,-4.345
10:20:10.924,-1.245,-4.05
10:20:10.928,-1.25,-3.745
10:20:10.932,-1.26,-3.385
10:20:10.936,-1.28,-3.0
10:20:10.940,-1.27,-2.545
10:20:10.944,-1.175,-2.125
10:20:10.948,-1.06,-1.69
10:20:10.952,-0.93,-1.295
10:20:10.956,-0.86,-1.005
10:20:10.960,-0.83,-0.73
10:20:10.964,-0.8,-0.555
10:20:10.968,-0.8,-0.395
10:20:10.972,-0.78,-0.195
10:20:10.976,-0.79,-0.075
10:20:10.980,-0.765,0.035
10:20:10.984,-0.745,0.165
10:20:10.988,-0.735,0.22
10:20:10.992,-0.725,0.24
10:20:10.996,-0.735,0.29
10:20:11.000,-0.72,0.325
10:20:11.004,-0.705,0.325
10:20:11.008,-0.705,0.36
10:20:11.012,-0.665,0.35
10:20:11.016,-0.635,0.37
10:20:11.020,-0.58,0.385
10:20:11.024,-0.545,0.415
10:20:11.028,-0.485,0.435
10:20:11.032,-0.48,0.475
10:20:11.036,-0.475,0.505
10:20:11.040,-0.435,0.565
10:20:11.044,-0.345,0.585
10:20:11.048,-0.315,0.64
10:20:11.052,-0.29,0.645
10:20:11.056,-0.29,0.695
10:20:11.060,-0.26,0.74
10:20:11.064,-0.2,0.755
10:20:11.068,-0.16,0.795
10:20:11.072,-0.08,0.8
10:20:11.076,-0.025,0.845
10:20:11.080,0.02,0.87
10:20:11.084,0.04,0.91
10:20:11.088,0.045,0.91
10:20:11.092,0.075,0.945
10:20:11.096,0.055,0.97
10:20:11.100,0.035,0.965
10:20:11.104,0.055,0.965
10:20:11.108,0.03,0.975
10:20:11.112,0.015,0.975
10:20:11.116,0.01,0.96
10:20:11.120,-0.005,0.985
10:20:11.124,-0.025,0.955
10:20:11.128,-0.075,0.955
10:20:11.132,-0.08,0.93
10:20:11.136,-0.14,0.935
10:20:11.140,-0.16,0.9
10:20:11.144,-0.255,0.85
10:20:11.148,-0.285,0.81
10:20:11.152,-0.335,0.765
10:20:11.156,-0.35,0.7
10:20:11.160,-0.365,0.655
10:20:11.164,-0.4,0.595
10:20:11.168,-0.46,0.535
10:20:11.172,-0.49,0.46
10:20:11.176,-0.53,0.42
10:20:11.180,-0.54,0.36
10:20:11.184,-0.555,0.28
10:20:11.188,-0.595,0.225
10:20:11.192,-0.625,0.185
10:20:11.196,-0.66,0.12
10:20:11.200,-0.69,0.055
10:20:11.204,-0.71,0.005
10:20:11.208,-0.73,-0.03
10:20:11.212,-0.735,-0.05
10:20:11.216,-0.76,-0.09
10:20:11.220,-0.8,-0.12
10:20:11.224,-0.805,-0.135
10:20:11.228,-0.81,-0.14
10:20:11.232,-0.795,-0.185
10:20:11.236,-0.79,-0.22
10:20:11.240,-0.775,-0.22
10:20:11.244,-0.745,-0.25
10:20:11.248,-0.745,-0.23
10:20:11.252,-0.735,-0.205
10:20:11.256,-0.735,-0.2
10:20:11.260,-0.735,-0.185
10:20:11.264,-0.75,-0.155
10:20:11.268,-0.745,-0.165
10:20:11.272,-0.71,-0.155
10:20:11.276,-0.68,-0.14
10:20:11.280,-0.675,-0.14
10:20:11.284,-0.635,-0.16
10:20:11.288,-0.615,-0.11
10:20:11.292,-0.585,-0.13
10:20:11.296,-0.51,-0.125
10:20:11.300,-0.44,-0.105
10:20:11.304,-0.385,-0.09
10:20:11.308,-0.33,-0.1
10:20:11.312,-0.33,-0.105
10:20:11.316,-0.325,-0.1
10:20:11.320,-0.33,-0.105
10:20:11.324,-0.355,-0.115
10:20:11.328,-0.345,-0.11
10:20:11.332,-0.325,-0.135
10:20:11.336,-0.32,-0.145
10:20:11.340,-0.34,-0.145
10:20:11.344,-0.32,-0.165
10:20:11.348,-0.34,-0.12
10:20:11.352,-0.35,-0.15
10:20:11.356,-0.365,-0.16
10:20:11.360,-0.36,-0.155
10:20:11.364,-0.405,-0.17
10:20:11.368,-0.415,-0.18
10:20:11.372,-0.4,-0.17
10:20:11.376,-0.38,-0.165
10:20:11.380,-0.415,-0.19
10:20:11.384,-0.43,-0.185
10:20:11.388,-0.415,-0.195
10:20:11.392,-0.355,-0.185
10:20:11.396,-0.245,-0.18
10:20:11.400,-0.125,-0.19
10:20:11.404,0.03,-0.185
10:20:11.408,0.06,-0.17
10:20:11.412,0.0,-0.11
10:20:11.416,-0.185,-0.015
10:20:11.420,-0.525,-0.025
10:20:11.424,-0.92,-0.23
10:20:11.428,-1.26,-0.535
10:20:11.432,-1.47,-0.92
10:20:11.436,-1.54,-1.63
10:20:11.440,-1.555,-2.52
10:20:11.444,-1.43,-3.335
10:20:11.448,-1.365,-4.085
10:20:11.452,-1.45,-4.595
10:20:11.456,-1.535,-4.895
10:20:11.460,-1.47,-5.1
10:20:11.464,-1.395,-5.13
10:20:11.468,-1.385,-5.03
10:20:11.472,-1.375,-4.93
10:20:11.476,-1.225,-4.82
10:20:11.480,-1.085,-4.71
10:20:11.484,-1.02,-4.6
10:20:11.488,-0.955,-4.475
10:20:11.492,-0.865,-4.28
10:20:11.496,-0.775,-4.01
10:20:11.500,-0.75,-3.695
10:20:11.504,-0.755,-3.34
10:20:11.508,-0.78,-2.945
10:20:11.512,-0.78,-2.525
10:20:11.516,-0.68,-2.035
10:20:11.520,-0.515,-1.665
10:20:11.524,-0.36,-1.34
10:20:11.528,-0.215,-1.06
10:20:11.532,-0.11,-0.8
10:20:11.536,-0.04,-0.585
10:20:11.540,-0.035,-0.4
10:20:11.544,-0.04,-0.225
10:20:11.548,-0.025,-0.1
10:20:11.552,-0.02,0.035
10:20:11.556,0.0,0.165
10:20:11.560,0.03,0.24
10:20:11.564,0.06,0.31
10:20:11.568,0.065,0.315
10:20:11.572,0.07,0.325
10:20:11.576,0.085,0.36
10:20:11.580,0.075,0.36
10:20:11.584,0.11,0.37
10:20:11.588,0.125,0.385
10:20:11.592,0.115,0.395
10:20:11.596,0.13,0.44
10:20:11.600,0.135,0.445
10:20:11.604,0.18,0.475
10:20:11.608,0.175,0.515
10:20:11.612,0.17,0.525
10:20:11.616,0.205,0.55
10:20:11.620,0.23,0.565
10:20:11.624,0.245,0.58
10:20:11.628,0.275,0.605
10:20:11.632,0.28,0.63
10:20:11.636,0.29,0.665
10:20:11.640,0.305,0.68
10:20:11.644,0.325,0.725
10:20:11.648,0.34,0.74
10:20:11.652,0.345,0.78
10:20:11.656,0.34,0.805
10:20:11.660,0.33,0.815
10:20:11.664,0.345,0.83
10:20:11.668,0.37,0.835
10:20:11.672,0.35,0.87
10:20:11.676,0.36,0.885
10:20:11.680,0.35,0.9
10:20:11.684,0.34,0.915
10:20:11.688,0.335,0.885
10:20:11.692,0.335,0.89
10:20:11.696,0.335,0.92
10:20:11.700,0.33,0.89
10:20:11.704,0.3,0.895
10:20:11.708,0.29,0.88
10:20:11.712,0.25,0.88
10:20:11.716,0.23,0.84
10:20:11.720,0.205,0.835
10:20:11.724,0.2,0.795
10:20:11.728,0.19,0.755
10:20:11.732,0.175,0.725
10:20:11.736,0.16,0.695
10:20:11.740,0.13,0.64
10:20:11.744,0.1,0.595
10:20:11.748,0.06,0.565
10:20:11.752,0.07,0.49
10:20:11.756,0.11,0.455
10:20:11.760,0.15,0.4
10:20:11.764,0.175,0.36
10:20:11.768,0.18,0.31
10:20:11.772,0.195,0.28
10:20:11.776,0.18,0.235
10:20:11.780,0.16,0.19
10:20:11.784,0.145,0.13
10:20:11.788,0.14,0.12
10:20:11.792,0.13,0.095
10:20:11.796,0.11,0.065
10:20:11.800,0.11,0.01
10:20:11.804,0.095,-0.005
10:20:11.808,0.1,-0.05
10:20:11.812,0.095,-0.07
10:20:11.816,0.085,-0.055
10:20:11.820,0.075,-0.08
10:20:11.824,0.07,-0.1
10:20:11.828,0.05,-0.08
10:20:11.832,0.015,-0.085
10:20:11.836,0.01,-0.09
10:20:11.840,0.02,-0.075
10:20:11.844,0.015,-0.06
10:20:11.848,-0.02,-0.07
10:20:11.852,0.0,-0.1
10:20:11.856,0.025,-0.08
10:20:11.860,0.015,-0.095
10:20:11.864,0.03,-0.07
10:20:11.868,0.005,-0.085
10:20:11.872,0.0,-0.08
10:20:11.876,-0.01,-0.08
10:20:11.880,-0.025,-0.08
10:20:11.884,-0.065,-0.08
10:20:11.888,-0.07,-0.065
10:20:11.892,-0.09,-0.08
10:20:11.896,-0.095,-0.1
10:20:11.900,-0.085,-0.115
10:20:11.904,-0.09,-0.13
10:20:11.908,-0.09,-0.15
10:20:11.912,-0.09,-0.15
10:20:11.916,-0.105,-0.17
10:20:11.920,-0.115,-0.125
10:20:11.924,-0.105,-0.15
10:20:11.928,-0.1,-0.175
10:20:11.932,-0.08,-0.17
10:20:11.936,-0.07,-0.17
10:20:11.940,-0.07,-0.155
10:20:11.944,-0.06,-0.14
10:20:11.948,-0.07,-0.135
10:20:11.952,-0.03,-0.11
10:20:11.956,-0.015,-0.09
10:20:11.960,0.005,-0.06
10:20:11.964,0.0,-0.025
10:20:11.968,-0.005,-0.04
10:20:11.972,0.01,-0.04
10:20:11.976,0.01,-0.03
10:20:11.980,0.05,-0.025
10:20:11.984,0.08,-0.045
10:20:11.988,0.125,-0.055
10:20:11.992,0.16,-0.08
10:20:11.996,0.22,-0.085
10:20:12.000,0.27,-0.07
10:20:12.004,0.32,-0.085
10:20:12.008,0.36,-0.095
10:20:12.012,0.45,-0.075
10:20:12.016,0.52,-0.08
10:20:12.020,0.52,-0.055
10:20:12.024,0.46,0.0
10:20:12.028,0.295,0.05
10:20:12.032,-0.04,0.1
10:20:12.036,-0.46,-0.065
10:20:12.040,-0.79,-0.405
10:20:12.044,-1.08,-0.79
10:20:12.048,-1.225,-1.31
10:20:12.052,-1.2,-2.06
10:20:12.056,-1.105,-2.825
10:20:12.060,-1.025,-3.51
10:20:12.064,-1.035,-4.09
10:20:12.068,-1.115,-4.49
10:20:12.072,-1.11,-4.76
10:20:12.076,-1.07,-4.845
10:20:12.080,-1.055,-4.795
10:20:12.084,-1.045,-4.685
10:20:12.088,-0.94,-4.585
10:20:12.092,-0.845,-4.495
10:20:12.096,-0.715,-4.4
10:20:12.100,-0.63,-4.3
10:20:12.104,-0.525,-4.2
10:20:12.108,-0.42,-3.98
10:20:12.112,-0.31,-3.625
10:20:12.116,-0.225,-3.345
10:20:12.120,-0.215,-3.025
10:20:12.124,-0.185,-2.67
10:20:12.128,-0.22,-2.27
10:20:12.132,-0.16,-1.895
10:20:12.136,-0.085,-1.53
10:20:12.140,-0.01,-1.19
10:20:12.144,0.07,-0.925
10:20:12.148,0.12,-0.7
10:20:12.152,0.125,-0.52
10:20:12.156,0.17,-0.33
10:20:12.160,0.21,-0.17
10:20:12.164,0.22,-0.005
10:20:12.168,0.25,0.13
10:20:12.172,0.24,0.28
10:20:12.176,0.24,0.37
10:20:12.180,0.3,0.45
10:20:12.184,0.325,0.51
10:20:12.188,0.395,0.545
10:20:12.192,0.42,0.59
10:20:12.196,0.44,0.615
10:20:12.200,0.445,0.64
10:20:12.204,0.465,0.695
10:20:12.208,0.505,0.725
10:20:12.212,0.55,0.735
10:20:12.216,0.605,0.765
10:20:12.220,0.695,0.795
10:20:12.224,0.75,0.82
10:20:12.228,0.775,0.85
10:20:12.232,0.775,0.87
10:20:12.236,0.82,0.895
10:20:12.240,0.795,0.925
10:20:12.244,0.78,0.965
10:20:12.248,0.79,0.97
10:20:12.252,0.795,0.99
10:20:12.256,0.835,1.01
10:20:12.260,0.825,1.005
10:20:12.264,0.825,1.035
10:20:12.268,0.82,1.06
10:20:12.272,0.815,1.075
10:20:12.276,0.835,1.11
10:20:12.280,0.81,1.125
10:20:12.284,0.815,1.15
10:20:12.288,0.82,1.19
10:20:12.292,0.82,1.215
10:20:12.296,0.78,1.215
10:20:12.300,0.795,1.235
10:20:12.304,0.77,1.245
10:20:12.308,0.815,1.245
10:20:12.312,0.79,1.25
10:20:12.316,0.77,1.255
10:20:12.320,0.735,1.26
10:20:12.324,0.72,1.245
10:20:12.328,0.675,1.22
10:20:12.332,0.645,1.16
10:20:12.336,0.635,1.14
10:20:12.340,0.58,1.11
10:20:12.344,0.515,1.05
10:20:12.348,0.51,0.985
10:20:12.352,0.5,0.945
10:20:12.356,0.46,0.875
10:20:12.360,0.42,0.83
10:20:12.364,0.37,0.75
10:20:12.368,0.315,0.68
10:20:12.372,0.28,0.62
10:20:12.376,0.26,0.54
10:20:12.380,0.23,0.48
10:20:12.384,0.235,0.425
10:20:12.388,0.23,0.33
10:20:12.392,0.235,0.28
10:20:12.396,0.235,0.23
10:20:12.400,0.225,0.195
10:20:12.404,0.245,0.185
10:20:12.408,0.215,0.2
10:20:12.412,0.23,0.185
10:20:12.416,0.235,0.195
10:20:12.420,0.245,0.16
10:20:12.424,0.265,0.2
10:20:12.428,0.27,0.205
10:20:12.432,0.265,0.205
10:20:12.436,0.29,0.22
10:20:12.440,0.295,0.205
10:20:12.444,0.34,0.215
10:20:12.448,0.41,0.22
10:20:12.452,0.43,0.21
10:20:12.456,0.455,0.225
10:20:12.460,0.49,0.24
10:20:12.464,0.48,0.24
10:20:12.468,0.45,0.22
10:20:12.472,0.475,0.21
10:20:12.476,0.46,0.225
10:20:12.480,0.47,0.23
10:20:12.484,0.47,0.195
10:20:12.488,0.475,0.145
10:20:12.492,0.475,0.155
10:20:12.496,0.475,0.145
10:20:12.500,0.465,0.145
10:20:12.504,0.46,0.145
10:20:12.508,0.44,0.175
10:20:12.512,0.445,0.145
10:20:12.516,0.435,0.13
10:20:12.520,0.395,0.135
10:20:12.524,0.405,0.155
10:20:12.528,0.415,0.155
10:20:12.532,0.405,0.115
10:20:12.536,0.395,0.13
10:20:12.540,0.41,0.135
10:20:12.544,0.39,0.13
10:20:12.548,0.38,0.13
10:20:12.552,0.36,0.125
10:20:12.556,0.355,0.14
10:20:12.560,0.35,0.125
10:20:12.564,0.35,0.125
10:20:12.568,0.305,0.12
10:20:12.572,0.3,0.095
10:20:12.576,0.285,0.095
10:20:12.580,0.285,0.115
10:20:12.584,0.295,0.11
10:20:12.588,0.295,0.08
10:20:12.592,0.26,0.1
10:20:12.596,0.24,0.1
10:20:12.600,0.225,0.065
10:20:12.604,0.22,0.085
10:20:12.608,0.23,0.065
10:20:12.612,0.235,0.045
10:20:12.616,0.26,0.015
10:20:12.620,0.275,0.01
10:20:12.624,0.265,0.01
10:20:12.628,0.285,0.02
10:20:12.632,0.275,0.045
10:20:12.636,0.27,0.085
10:20:12.640,0.27,0.08
10:20:12.644,0.29,0.115
10:20:12.648,0.285,0.11
10:20:12.652,0.285,0.155
10:20:12.656,0.28,0.13
10:20:12.660,0.285,0.115
10:20:12.664,0.33,0.14
10:20:12.668,0.395,0.15
10:20:12.672,0.44,0.145
10:20:12.676,0.47,0.15
10:20:12.680,0.515,0.14
10:20:12.684,0.535,0.175
10:20:12.688,0.56,0.155
10:20:12.692,0.575,0.17
10:20:12.696,0.56,0.15
10:20:12.700,0.54,0.17
10:20:12.704,0.55,0.17
10:20:12.708,0.575,0.16
10:20:12.712,0.56,0.17
10:20:12.716,0.56,0.18
10:20:12.720,0.575,0.18
10:20:12.724,0.565,0.17
10:20:12.728,0.54,0.18
10:20:12.732,0.55,0.18
10:20:12.736,0.52,0.16
10:20:12.740,0.5,0.17
10:20:12.744,0.495,0.175
10:20:12.748,0.5,0.13
10:20:12.752,0.475,0.14
10:20:12.756,0.495,0.13
10:20:12.760,0.475,0.125
10:20:12.764,0.48,0.155
10:20:12.768,0.455,0.17
10:20:12.772,0.455,0.145
10:20:12.776,0.45,0.145
10:20:12.780,0.455,0.145
10:20:12.784,0.42,0.14
10:20:12.788,0.405,0.12
10:20:12.792,0.385,0.135
10:20:12.796,0.38,0.135
10:20:12.800,0.405,0.125
10:20:12.804,0.415,0.135
10:20:12.808,0.365,0.13
10:20:12.812,0.35,0.13
10:20:12.816,0.315,0.11
10:20:12.820,0.325,0.1
10:20:12.824,0.365,0.1
10:20:12.828,0.455,0.07
10:20:12.832,0.565,0.055
10:20:12.836,0.62,0.07
10:20:12.840,0.53,0.11
10:20:12.844,0.415,0.2
10:20:12.848,0.14,0.295
10:20:12.852,-0.305,0.225
10:20:12.856,-0.725,-0.05
10:20:12.860,-1.055,-0.37
10:20:12.864,-1.27,-0.85
10:20:12.868,-1.305,-1.535
10:20:12.872,-1.245,-2.385
10:20:12.876,-1.08,-3.11
10:20:12.880,-1.005,-3.745
10:20:12.884,-0.99,-4.21
10:20:12.888,-0.92,-4.485
10:20:12.892,-0.735,-4.635
10:20:12.896,-0.605,-4.62
10:20:12.900,-0.51,-4.51
10:20:12.904,-0.405,-4.325
10:20:12.908,-0.195,-4.175
10:20:12.912,-0.04,-4.11
10:20:12.916,0.06,-4.06
10:20:12.920,0.18,-3.985
10:20:12.924,0.25,-3.855
10:20:12.928,0.335,-3.62
10:20:12.932,0.35,-3.33
10:20:12.936,0.36,-3.03
10:20:12.940,0.37,-2.67
10:20:12.944,0.36,-2.28
10:20:12.948,0.385,-1.865
10:20:12.952,0.44,-1.475
10:20:12.956,0.48,-1.135
10:20:12.960,0.525,-0.815
10:20:12.964,0.555,-0.565
10:20:12.968,0.58,-0.34
10:20:12.972,0.58,-0.145
10:20:12.976,0.595,0.0
10:20:12.980,0.625,0.17
10:20:12.984,0.625,0.305
10:20:12.988,0.635,0.45
10:20:12.992,0.66,0.565
10:20:12.996,0.65,0.635
10:20:13.000,0.67,0.675
10:20:13.004,0.665,0.685
10:20:13.008,0.69,0.735
10:20:13.012,0.685,0.74
10:20:13.016,0.665,0.78
10:20:13.020,0.67,0.8
10:20:13.024,0.71,0.81
10:20:13.028,0.73,0.81
10:20:13.032,0.745,0.845
10:20:13.036,0.765,0.875
10:20:13.040,0.735,0.88
10:20:13.044,0.73,0.945
10:20:13.048,0.73,0.965
10:20:13.052,0.745,0.965
10:20:13.056,0.785,0.97
10:20:13.060,0.82,1.015
10:20:13.064,0.815,1.03
10:20:13.068,0.85,1.03
10:20:13.072,0.855,1.095
10:20:13.076,0.88,1.115
10:20:13.080,0.845,1.17
10:20:13.084,0.885,1.215
10:20:13.088,0.895,1.24
10:20:13.092,0.92,1.28
10:20:13.096,0.92,1.325
10:20:13.100,0.955,1.315
10:20:13.104,0.96,1.35
10:20:13.108,0.975,1.395
10:20:13.112,1.0,1.425
10:20:13.116,1.02,1.445
10:20:13.120,1.05,1.435
10:20:13.124,1.105,1.475
10:20:13.128,1.115,1.475
10:20:13.132,1.14,1.485
10:20:13.136,1.095,1.515
10:20:13.140,1.095,1.51
10:20:13.144,1.045,1.485
10:20:13.148,1.03,1.455
10:20:13.152,1.02,1.41
10:20:13.156,0.99,1.38
10:20:13.160,0.955,1.3
10:20:13.164,0.91,1.26
10:20:13.168,0.885,1.2
10:20:13.172,0.835,1.13
10:20:13.176,0.81,1.075
10:20:13.180,0.79,1.02
10:20:13.184,0.74,0.95
10:20:13.188,0.735,0.88
10:20:13.192,0.68,0.795
10:20:13.196,0.665,0.73
10:20:13.200,0.625,0.665
10:20:13.204,0.615,0.59
10:20:13.208,0.57,0.55
10:20:13.212,0.57,0.47
10:20:13.216,0.555,0.435
10:20:13.220,0.54,0.42
10:20:13.224,0.535,0.38
10:20:13.228,0.49,0.37
10:20:13.232,0.475,0.305
10:20:13.236,0.455,0.285
10:20:13.240,0.46,0.265
10:20:13.244,0.475,0.24
10:20:13.248,0.435,0.235
10:20:13.252,0.42,0.23
10:20:13.256,0.42,0.21
10:20:13.260,0.4,0.235
10:20:13.264,0.37,0.21
10:20:13.268,0.365,0.22
10:20:13.272,0.34,0.205
10:20:13.276,0.33,0.22
10:20:13.280,0.34,0.2
10:20:13.284,0.36,0.175
10:20:13.288,0.365,0.17
10:20:13.292,0.38,0.175
10:20:13.296,0.385,0.175
10:20:13.300,0.395,0.19
10:20:13.304,0.395,0.195
10:20:13.308,0.415,0.25
10:20:13.312,0.435,0.265
10:20:13.316,0.43,0.285
10:20:13.320,0.455,0.325
10:20:13.324,0.445,0.335
10:20:13.328,0.45,0.345
10:20:13.332,0.47,0.355
10:20:13.336,0.495,0.365
10:20:13.340,0.525,0.375
10:20:13.344,0.54,0.39
10:20:13.348,0.555,0.395
10:20:13.352,0.595,0.385
10:20:13.356,0.635,0.42
10:20:13.360,0.645,0.405
10:20:13.364,0.605,0.39
10:20:13.368,0.61,0.38
10:20:13.372,0.61,0.375
10:20:13.376,0.6,0.38
10:20:13.380,0.615,0.36
10:20:13.384,0.62,0.35
10:20:13.388,0.62,0.325
10:20:13.392,0.6,0.315
10:20:13.396,0.595,0.31
10:20:13.400,0.585,0.285
10:20:13.404,0.56,0.295
10:20:13.408,0.53,0.285
10:20:13.412,0.515,0.28
10:20:13.416,0.505,0.245
10:20:13.420,0.51,0.27
10:20:13.424,0.5,0.26
10:20:13.428,0.49,0.255
10:20:13.432,0.48,0.25
10:20:13.436,0.46,0.235
10:20:13.440,0.44,0.235
10:20:13.444,0.44,0.22
10:20:13.448,0.435,0.22
10:20:13.452,0.44,0.215
10:20:13.456,0.42,0.205
10:20:13.460,0.385,0.19
10:20:13.464,0.38,0.19
10:20:13.468,0.38,0.185
10:20:13.472,0.355,0.18
10:20:13.476,0.375,0.175
10:20:13.480,0.38,0.14
10:20:13.484,0.47,0.155
10:20:13.488,0.565,0.135
10:20:13.492,0.65,0.15
10:20:13.496,0.62,0.195
10:20:13.500,0.515,0.245
10:20:13.504,0.295,0.335
10:20:13.508,-0.015,0.28
10:20:13.512,-0.38,-0.01
10:20:13.516,-0.72,-0.385
10:20:13.520,-0.96,-0.86
10:20:13.524,-1.085,-1.615
10:20:13.528,-1.015,-2.495
10:20:13.532,-0.92,-3.235
10:20:13.536,-0.87,-3.9
10:20:13.540,-0.895,-4.37
10:20:13.544,-0.885,-4.62
10:20:13.548,-0.835,-4.765
10:20:13.552,-0.765,-4.705
10:20:13.556,-0.72,-4.585
10:20:13.560,-0.53,-4.435
10:20:13.564,-0.245,-4.275
10:20:13.568,-0.065,-4.2
10:20:13.572,0.075,-4.175
10:20:13.576,0.21,-4.08
10:20:13.580,0.33,-3.91
10:20:13.584,0.355,-3.625
10:20:13.588,0.35,-3.29
10:20:13.592,0.325,-2.915
10:20:13.596,0.33,-2.475
10:20:13.600,0.375,-2.04
10:20:13.604,0.45,-1.62
10:20:13.608,0.53,-1.23
10:20:13.612,0.6,-0.855
10:20:13.616,0.635,-0.52
10:20:13.620,0.62,-0.275
10:20:13.624,0.645,-0.065
10:20:13.628,0.66,0.12
10:20:13.632,0.65,0.285
10:20:13.636,0.66,0.43
10:20:13.640,0.65,0.575
10:20:13.644,0.645,0.68
10:20:13.648,0.655,0.75
10:20:13.652,0.66,0.8
10:20:13.656,0.68,0.85
10:20:13.660,0.675,0.86
10:20:13.664,0.68,0.86
10:20:13.668,0.69,0.91
10:20:13.672,0.72,0.93
10:20:13.676,0.725,0.955
10:20:13.680,0.725,0.945
10:20:13.684,0.745,0.98
10:20:13.688,0.725,0.995
10:20:13.692,0.735,1.035
10:20:13.696,0.75,1.025
10:20:13.700,0.75,1.05
10:20:13.704,0.735,1.06
10:20:13.708,0.765,1.105
10:20:13.712,0.75,1.13
10:20:13.716,0.795,1.135
10:20:13.720,0.815,1.13
10:20:13.724,0.835,1.15
10:20:13.728,0.87,1.165
10:20:13.732,0.87,1.22
10:20:13.736,0.885,1.245
10:20:13.740,0.86,1.275
10:20:13.744,0.895,1.315
10:20:13.748,0.92,1.335
10:20:13.752,0.94,1.375
10:20:13.756,0.96,1.395
10:20:13.760,0.93,1.42
10:20:13.764,0.945,1.455
10:20:13.768,0.94,1.45
10:20:13.772,0.945,1.49
10:20:13.776,0.94,1.485
10:20:13.780,0.945,1.5
10:20:13.784,0.965,1.5
10:20:13.788,0.97,1.495
10:20:13.792,0.945,1.475
10:20:13.796,0.925,1.445
10:20:13.800,0.885,1.385
10:20:13.804,0.865,1.365
10:20:13.808,0.835,1.325
10:20:13.812,0.8,1.235
10:20:13.816,0.76,1.165
10:20:13.820,0.715,1.11
10:20:13.824,0.66,1.025
10:20:13.828,0.625,0.95
10:20:13.832,0.6,0.88
10:20:13.836,0.6,0.82
10:20:13.840,0.58,0.75
10:20:13.844,0.545,0.68
10:20:13.848,0.53,0.625
10:20:13.852,0.5,0.565
10:20:13.856,0.495,0.51
10:20:13.860,0.47,0.47
10:20:13.864,0.45,0.44
10:20:13.868,0.435,0.42
10:20:13.872,0.43,0.375
10:20:13.876,0.405,0.345
10:20:13.880,0.415,0.335
10:20:13.884,0.375,0.315
10:20:13.888,0.37,0.3
10:20:13.892,0.38,0.285
10:20:13.896,0.38,0.275
10:20:13.900,0.36,0.255
10:20:13.904,0.355,0.255
10:20:13.908,0.335,0.26
10:20:13.912,0.325,0.25
10:20:13.916,0.325,0.24
10:20:13.920,0.295,0.235
10:20:13.924,0.305,0.235
10:20:13.928,0.285,0.205
10:20:13.932,0.35,0.23
10:20:13.936,0.435,0.21
10:20:13.940,0.605,0.19
10:20:13.944,0.645,0.18
10:20:13.948,0.525,0.235
10:20:13.952,0.26,0.32
10:20:13.956,-0.24,0.375
10:20:13.960,-0.855,0.255
10:20:13.964,-1.39,-0.055
10:20:13.968,-1.705,-0.405
10:20:13.972,-1.805,-1.0
10:20:13.976,-1.725,-1.87
10:20:13.980,-1.62,-2.72
10:20:13.984,-1.49,-3.455
10:20:13.988,-1.335,-4.04
10:20:13.992,-1.15,-4.38
10:20:13.996,-0.92,-4.565
10:20:14.000,-0.775,-4.605
10:20:14.004,-0.68,-4.49
10:20:14.008,-0.455,-4.315
10:20:14.012,-0.155,-4.13
10:20:14.016,-0.02,-4.025
10:20:14.020,0.095,-3.985
10:20:14.024,0.175,-3.84
10:20:14.028,0.29,-3.585
10:20:14.032,0.36,-3.265
10:20:14.036,0.35,-2.91
10:20:14.040,0.325,-2.545
10:20:14.044,0.315,-2.125
10:20:14.048,0.345,-1.685
10:20:14.052,0.455,-1.285
10:20:14.056,0.49,-0.95
10:20:14.060,0.545,-0.63
10:20:14.064,0.555,-0.4
10:20:14.068,0.57,-0.165
10:20:14.072,0.585,0.05
10:20:14.076,0.59,0.225
10:20:14.080,0.565,0.395
10:20:14.084,0.565,0.55
10:20:14.088,0.56,0.665
10:20:14.092,0.595,0.755
10:20:14.096,0.58,0.775
10:20:14.100,0.585,0.795
10:20:14.104,0.59,0.825
10:20:14.108,0.6,0.82
10:20:14.112,0.595,0.84
10:20:14.116,0.61,0.875
10:20:14.120,0.605,0.88
10:20:14.124,0.605,0.895
10:20:14.128,0.58,0.935
10:20:14.132,0.575,0.935
10:20:14.136,0.565,0.935
10:20:14.140,0.565,0.955
10:20:14.144,0.565,0.985
10:20:14.148,0.575,0.98
10:20:14.152,0.615,0.98
10:20:14.156,0.65,1.01
10:20:14.160,0.665,1.02
10:20:14.164,0.64,1.055
10:20:14.168,0.625,1.07
10:20:14.172,0.635,1.105
10:20:14.176,0.665,1.145
10:20:14.180,0.655,1.18
10:20:14.184,0.665,1.195
10:20:14.188,0.695,1.205
10:20:14.192,0.72,1.225
10:20:14.196,0.71,1.255
10:20:14.200,0.67,1.29
10:20:14.204,0.685,1.295
10:20:14.208,0.655,1.305
10:20:14.212,0.66,1.315
10:20:14.216,0.695,1.315
10:20:14.220,0.735,1.305
10:20:14.224,0.72,1.33
10:20:14.228,0.68,1.295
10:20:14.232,0.67,1.275
10:20:14.236,0.64,1.235
10:20:14.240,0.605,1.185
10:20:14.244,0.58,1.135
10:20:14.248,0.545,1.09
10:20:14.252,0.52,1.035
10:20:14.256,0.515,0.96
10:20:14.260,0.49,0.875
10:20:14.264,0.435,0.825
10:20:14.268,0.4,0.775
10:20:14.272,0.375,0.72
10:20:14.276,0.36,0.665
10:20:14.280,0.345,0.605
10:20:14.284,0.335,0.57
10:20:14.288,0.275,0.545
10:20:14.292,0.225,0.495
10:20:14.296,0.23,0.445
10:20:14.300,0.19,0.39
10:20:14.304,0.185,0.37
10:20:14.308,0.185,0.35
10:20:14.312,0.165,0.32
10:20:14.316,0.15,0.3
10:20:14.320,0.135,0.28
10:20:14.324,0.13,0.28
10:20:14.328,0.115,0.265
10:20:14.332,0.095,0.27
10:20:14.336,0.055,0.26
10:20:14.340,0.05,0.275
10:20:14.344,0.02,0.245
10:20:14.348,0.03,0.265
10:20:14.352,0.01,0.22
10:20:14.356,0.0,0.225
10:20:14.360,-0.015,0.205
10:20:14.364,-0.025,0.225
10:20:14.368,-0.045,0.23
10:20:14.372,-0.055,0.235
10:20:14.376,-0.07,0.2
10:20:14.380,-0.07,0.175
10:20:14.384,-0.09,0.16
10:20:14.388,-0.05,0.155
10:20:14.392,-0.04,0.13
10:20:14.396,-0.055,0.175
10:20:14.400,-0.055,0.16
10:20:14.404,-0.065,0.175
10:20:14.408,-0.07,0.185
10:20:14.412,-0.045,0.215
10:20:14.416,-0.015,0.225
10:20:14.420,-0.055,0.255
10:20:14.424,-0.075,0.27
10:20:14.428,-0.065,0.255
10:20:14.432,-0.045,0.265
10:20:14.436,-0.025,0.25
10:20:14.440,0.01,0.23
10:20:14.444,0.075,0.26
10:20:14.448,0.135,0.285
10:20:14.452,0.14,0.27
10:20:14.456,0.135,0.25
10:20:14.460,0.125,0.24
10:20:14.464,0.095,0.27
10:20:14.468,0.095,0.265
10:20:14.472,0.08,0.26
10:20:14.476,0.08,0.24
10:20:14.480,0.06,0.225
10:20:14.484,0.05,0.22
10:20:14.488,0.035,0.195
10:20:14.492,0.025,0.21
10:20:14.496,0.005,0.2
10:20:14.500,-0.005,0.2
10:20:14.504,-0.015,0.195
10:20:14.508,-0.04,0.205
10:20:14.512,-0.085,0.195
10:20:14.516,-0.105,0.21
10:20:14.520,-0.1,0.185
10:20:14.524,-0.105,0.185
10:20:14.528,-0.13,0.155
10:20:14.532,-0.145,0.155
10:20:14.536,-0.13,0.155
10:20:14.540,-0.15,0.16
10:20:14.544,-0.18,0.16
10:20:14.548,-0.225,0.165
10:20:14.552,-0.23,0.145
10:20:14.556,-0.24,0.16
10:20:14.560,-0.275,0.145
10:20:14.564,-0.305,0.16
10:20:14.568,-0.34,0.13
10:20:14.572,-0.345,0.135
10:20:14.576,-0.385,0.09
10:20:14.580,-0.41,0.095
10:20:14.584,-0.44,0.09
10:20:14.588,-0.445,0.08
10:20:14.592,-0.5,0.085
10:20:14.596,-0.48,0.045
10:20:14.600,-0.47,0.085
10:20:14.604,-0.49,0.08
10:20:14.608,-0.485,0.045
10:20:14.612,-0.475,0.05
10:20:14.616,-0.48,0.065
10:20:14.620,-0.47,0.08
10:20:14.624,-0.46,0.1
10:20:14.628,-0.475,0.11
10:20:14.632,-0.445,0.11
10:20:14.636,-0.475,0.115
10:20:14.640,-0.5,0.145
10:20:14.644,-0.485,0.165
10:20:14.648,-0.48,0.16
10:20:14.652,-0.42,0.17
10:20:14.656,-0.375,0.15
10:20:14.660,-0.3,0.16
10:20:14.664,-0.295,0.165
10:20:14.668,-0.275,0.17
10:20:14.672,-0.305,0.185
10:20:14.676,-0.325,0.17
10:20:14.680,-0.325,0.205
10:20:14.684,-0.32,0.195
10:20:14.688,-0.335,0.185
10:20:14.692,-0.36,0.165
10:20:14.696,-0.385,0.145
10:20:14.700,-0.38,0.115
10:20:14.704,-0.355,0.13
10:20:14.708,-0.39,0.125
10:20:14.712,-0.39,0.13
10:20:14.716,-0.42,0.155
10:20:14.720,-0.48,0.15
10:20:14.724,-0.525,0.16
10:20:14.728,-0.545,0.145
10:20:14.732,-0.55,0.135
10:20:14.736,-0.56,0.11
10:20:14.740,-0.575,0.105
10:20:14.744,-0.6,0.09
10:20:14.748,-0.6,0.095
10:20:14.752,-0.63,0.1
10:20:14.756,-0.615,0.1
10:20:14.760,-0.625,0.115
10:20:14.764,-0.66,0.115
10:20:14.768,-0.71,0.085
10:20:14.772,-0.745,0.095
10:20:14.776,-0.765,0.11
10:20:14.780,-0.775,0.1
10:20:14.784,-0.825,0.07
10:20:14.788,-0.815,0.06
10:20:14.792,-0.84,0.04
10:20:14.796,-0.845,0.025
10:20:14.800,-0.885,0.045
10:20:14.804,-0.925,0.06
10:20:14.808,-0.965,0.06
10:20:14.812,-0.945,0.035
10:20:14.816,-0.955,0.005
10:20:14.820,-0.95,0.0
10:20:14.824,-0.955,-0.03
10:20:14.828,-0.92,-0.02
10:20:14.832,-0.95,-0.04
10:20:14.836,-0.935,-0.035
10:20:14.840,-0.94,-0.015
10:20:14.844,-0.94,0.015
10:20:14.848,-0.905,0.05
10:20:14.852,-0.905,0.08
10:20:14.856,-0.91,0.08
10:20:14.860,-0.925,0.075
10:20:14.864,-0.915,0.095
10:20:14.868,-0.85,0.09
10:20:14.872,-0.78,0.075
10:20:14.876,-0.75,0.085
10:20:14.880,-0.71,0.1
10:20:14.884,-0.69,0.095
10:20:14.888,-0.67,0.1
10:20:14.892,-0.675,0.085
10:20:14.896,-0.695,0.08
10:20:14.900,-0.73,0.125
10:20:14.904,-0.725,0.095
10:20:14.908,-0.755,0.075
10:20:14.912,-0.73,0.065
10:20:14.916,-0.705,0.04
10:20:14.920,-0.71,0.015
10:20:14.924,-0.745,0.005
10:20:14.928,-0.765,0.03
10:20:14.932,-0.795,0.04
10:20:14.936,-0.88,0.045
10:20:14.940,-0.915,0.03
10:20:14.944,-0.925,0.015
10:20:14.948,-0.935,0.0
10:20:14.952,-0.92,0.015
10:20:14.956,-0.95,-0.02
10:20:14.960,-0.95,-0.01
10:20:14.964,-0.995,-0.01
10:20:14.968,-0.945,-0.02
10:20:14.972,-0.905,0.0
10:20:14.976,-0.985,-0.005
10:20:14.980,-1.08,-0.02
10:20:14.984,-1.115,-0.005
10:20:14.988,-1.165,-0.02
10:20:14.992,-1.15,-0.03
10:20:14.996,-1.16,-0.03
10:20:15.000,-1.13,-0.05
10:20:15.004,-1.15,-0.06
10:20:15.008,-1.22,-0.05
10:20:15.012,-1.2,-0.075
10:20:15.016,-1.205,-0.08
10:20:15.020,-1.11,-0.1
10:20:15.024,-1.005,-0.07
10:20:15.028,-0.98,-0.105
10:20:15.032,-1.065,-0.065
10:20:15.036,-1.21,0.015
10:20:15.040,-1.545,0.05
10:20:15.044,-1.965,-0.085
10:20:15.048,-2.36,-0.465
10:20:15.052,-2.695,-0.905
10:20:15.056,-2.975,-1.505
10:20:15.060,-3.08,-2.265
10:20:15.064,-3.03,-2.985
10:20:15.068,-2.935,-3.595
10:20:15.072,-2.895,-4.075
10:20:15.076,-2.855,-4.44
10:20:15.080,-2.745,-4.665
10:20:15.084,-2.605,-4.77
10:20:15.088,-2.5,-4.705
10:20:15.092,-2.405,-4.54
10:20:15.096,-2.255,-4.365
10:20:15.100,-2.135,-4.275
10:20:15.104,-2.025,-4.165
10:20:15.108,-1.89,-4.08
10:20:15.112,-1.755,-3.935
10:20:15.116,-1.625,-3.7
10:20:15.120,-1.57,-3.435
10:20:15.124,-1.555,-3.16
10:20:15.128,-1.595,-2.83
10:20:15.132,-1.59,-2.435
10:20:15.136,-1.535,-2.07
10:20:15.140,-1.465,-1.74
10:20:15.144,-1.41,-1.375
10:20:15.148,-1.36,-1.055
10:20:15.152,-1.295,-0.81
10:20:15.156,-1.255,-0.62
10:20:15.160,-1.19,-0.46
10:20:15.164,-1.135,-0.28
10:20:15.168,-1.1,-0.125
10:20:15.172,-1.13,0.03
10:20:15.176,-1.105,0.16
10:20:15.180,-1.08,0.325
10:20:15.184,-1.075,0.385
10:20:15.188,-1.09,0.415
10:20:15.192,-1.085,0.46
10:20:15.196,-1.09,0.495
10:20:15.200,-1.145,0.5
10:20:15.204,-1.125,0.51
10:20:15.208,-1.135,0.54
10:20:15.212,-1.11,0.565
10:20:15.216,-1.115,0.54
10:20:15.220,-1.135,0.57
10:20:15.224,-1.145,0.6
10:20:15.228,-1.165,0.605
10:20:15.232,-1.145,0.615
10:20:15.236,-1.15,0.65
10:20:15.240,-1.155,0.675
10:20:15.244,-1.145,0.71
10:20:15.248,-1.17,0.68
10:20:15.252,-1.205,0.71
10:20:15.256,-1.175,0.72
10:20:15.260,-1.125,0.74
10:20:15.264,-1.11,0.785
10:20:15.268,-1.145,0.815
10:20:15.272,-1.16,0.855
10:20:15.276,-1.15,0.885
10:20:15.280,-1.145,0.92
10:20:15.284,-1.07,0.975
10:20:15.288,-1.055,0.975
10:20:15.292,-1.045,1.0
10:20:15.296,-1.055,1.035
10:20:15.300,-1.055,1.045
10:20:15.304,-1.02,1.105
10:20:15.308,-0.97,1.11
10:20:15.312,-0.925,1.14
10:20:15.316,-0.855,1.14
10:20:15.320,-0.81,1.165
10:20:15.324,-0.78,1.18
10:20:15.328,-0.82,1.19
10:20:15.332,-0.81,1.19
10:20:15.336,-0.83,1.185
10:20:15.340,-0.84,1.14
10:20:15.344,-0.865,1.11
10:20:15.348,-0.88,1.06
10:20:15.352,-0.91,1.035
10:20:15.356,-0.935,0.98
10:20:15.360,-0.98,0.93
10:20:15.364,-1.04,0.88
10:20:15.368,-1.08,0.82
10:20:15.372,-1.08,0.78
10:20:15.376,-1.12,0.73
10:20:15.380,-1.155,0.685
10:20:15.384,-1.205,0.595
10:20:15.388,-1.215,0.545
10:20:15.392,-1.255,0.47
10:20:15.396,-1.29,0.395
10:20:15.400,-1.34,0.355
10:20:15.404,-1.375,0.32
10:20:15.408,-1.375,0.27
10:20:15.412,-1.395,0.235
10:20:15.416,-1.385,0.18
10:20:15.420,-1.43,0.14
10:20:15.424,-1.485,0.125
10:20:15.428,-1.5,0.065
10:20:15.432,-1.51,0.045
10:20:15.436,-1.535,0.005
10:20:15.440,-1.545,-0.015
10:20:15.444,-1.59,-0.03
10:20:15.448,-1.625,-0.045
10:20:15.452,-1.625,-0.065
10:20:15.456,-1.63,-0.06
10:20:15.460,-1.63,-0.09
10:20:15.464,-1.675,-0.1
10:20:15.468,-1.705,-0.095
10:20:15.472,-1.745,-0.1
10:20:15.476,-1.755,-0.12
10:20:15.480,-1.725,-0.125
10:20:15.484,-1.68,-0.155
10:20:15.488,-1.655,-0.155
10:20:15.492,-1.65,-0.14
10:20:15.496,-1.68,-0.105
10:20:15.500,-1.725,-0.11
10:20:15.504,-1.675,-0.07
10:20:15.508,-1.69,-0.045
10:20:15.512,-1.65,-0.045
10:20:15.516,-1.65,-0.015
10:20:15.520,-1.63,0.0
10:20:15.524,-1.62,0.045
10:20:15.528,-1.585,0.075
10:20:15.532,-1.515,0.07
10:20:15.536,-1.495,0.08
10:20:15.540,-1.455,0.08
10:20:15.544,-1.465,0.055
10:20:15.548,-1.465,0.04
10:20:15.552,-1.425,0.04
10:20:15.556,-1.39,0.025
10:20:15.560,-1.36,0.01
10:20:15.564,-1.38,0.005
10:20:15.568,-1.36,0.015
10:20:15.572,-1.37,0.02
10:20:15.576,-1.355,0.045
10:20:15.580,-1.36,0.055
10:20:15.584,-1.38,0.07
10:20:15.588,-1.38,0.065
10:20:15.592,-1.4,0.045
10:20:15.596,-1.405,0.055
10:20:15.600,-1.4,0.035
10:20:15.604,-1.38,0.025
10:20:15.608,-1.36,0.02
10:20:15.612,-1.28,0.025
10:20:15.616,-1.11,-0.005
10:20:15.620,-0.91,0.01
10:20:15.624,-0.85,0.045
10:20:15.628,-0.955,0.12
10:20:15.632,-1.21,0.17
10:20:15.636,-1.59,0.22
10:20:15.640,-2.005,0.06
10:20:15.644,-2.315,-0.235
10:20:15.648,-2.58,-0.62
10:20:15.652,-2.66,-1.26
10:20:15.656,-2.62,-2.035
10:20:15.660,-2.56,-2.78
10:20:15.664,-2.55,-3.42
10:20:15.668,-2.61,-3.93
10:20:15.672,-2.685,-4.28
10:20:15.676,-2.715,-4.505
10:20:15.680,-2.735,-4.57
10:20:15.684,-2.74,-4.495
10:20:15.688,-2.745,-4.385
10:20:15.692,-2.65,-4.295
10:20:15.696,-2.585,-4.2
10:20:15.700,-2.53,-4.13
10:20:15.704,-2.445,-4.04
10:20:15.708,-2.32,-3.91
10:20:15.712,-2.225,-3.695
10:20:15.716,-2.175,-3.42
10:20:15.720,-2.17,-3.14
10:20:15.724,-2.16,-2.835
10:20:15.728,-2.13,-2.435
10:20:15.732,-2.04,-2.07
10:20:15.736,-1.91,-1.725
10:20:15.740,-1.745,-1.375
10:20:15.744,-1.595,-1.035
10:20:15.748,-1.48,-0.77
10:20:15.752,-1.38,-0.54
10:20:15.756,-1.315,-0.335
10:20:15.760,-1.27,-0.135
10:20:15.764,-1.2,0.07
10:20:15.768,-1.13,0.23
10:20:15.772,-1.09,0.375
10:20:15.776,-1.03,0.495
10:20:15.780,-0.97,0.52
10:20:15.784,-0.975,0.575
10:20:15.788,-0.93,0.595
10:20:15.792,-0.95,0.6
10:20:15.796,-0.94,0.625
10:20:15.800,-0.925,0.625
10:20:15.804,-0.91,0.625
10:20:15.808,-0.89,0.65
10:20:15.812,-0.89,0.645
10:20:15.816,-0.865,0.665
10:20:15.820,-0.87,0.68
10:20:15.824,-0.86,0.675
10:20:15.828,-0.805,0.715
10:20:15.832,-0.795,0.715
10:20:15.836,-0.795,0.72
10:20:15.840,-0.78,0.735
10:20:15.844,-0.79,0.76
10:20:15.848,-0.78,0.83
10:20:15.852,-0.765,0.845
10:20:15.856,-0.76,0.87
10:20:15.860,-0.72,0.885
10:20:15.864,-0.735,0.89
10:20:15.868,-0.705,0.92
10:20:15.872,-0.695,0.96
10:20:15.876,-0.675,0.995
10:20:15.880,-0.675,1.005
10:20:15.884,-0.655,1.05
10:20:15.888,-0.645,1.07
10:20:15.892,-0.655,1.08
10:20:15.896,-0.645,1.1
10:20:15.900,-0.665,1.11
10:20:15.904,-0.665,1.115
10:20:15.908,-0.685,1.12
10:20:15.912,-0.7,1.115
10:20:15.916,-0.715,1.105
10:20:15.920,-0.72,1.095
10:20:15.924,-0.74,1.05
10:20:15.928,-0.81,1.06
10:20:15.932,-0.845,1.015
10:20:15.936,-0.86,0.975
10:20:15.940,-0.89,0.94
10:20:15.944,-0.905,0.875
10:20:15.948,-0.935,0.835
10:20:15.952,-0.94,0.76
10:20:15.956,-0.95,0.72
10:20:15.960,-0.975,0.685
10:20:15.964,-0.965,0.625
10:20:15.968,-0.94,0.58
10:20:15.972,-0.96,0.52
10:20:15.976,-1.0,0.49
10:20:15.980,-1.015,0.45
10:20:15.984,-1.025,0.42
10:20:15.988,-1.0,0.38
10:20:15.992,-0.975,0.31
10:20:15.996,-0.91,0.255
10:20:16.000,-0.865,0.21
10:20:16.004,-0.8,0.215
10:20:16.008,-0.795,0.19
10:20:16.012,-0.785,0.18
10:20:16.016,-0.765,0.155
10:20:16.020,-0.775,0.16
10:20:16.024,-0.78,0.18
10:20:16.028,-0.82,0.165
10:20:16.032,-0.84,0.135
10:20:16.036,-0.82,0.13
10:20:16.040,-0.805,0.07
10:20:16.044,-0.77,0.06
10:20:16.048,-0.755,0.05
10:20:16.052,-0.765,0.065
10:20:16.056,-0.755,0.07
10:20:16.060,-0.76,0.07
10:20:16.064,-0.81,0.075
10:20:16.068,-0.815,0.095
10:20:16.072,-0.85,0.09
10:20:16.076,-0.855,0.1
10:20:16.080,-0.875,0.065
10:20:16.084,-0.865,0.07
10:20:16.088,-0.86,0.07
10:20:16.092,-0.85,0.05
10:20:16.096,-0.825,0.07
10:20:16.100,-0.815,0.065
10:20:16.104,-0.755,0.085
10:20:16.108,-0.81,0.065
10:20:16.112,-0.825,0.06
10:20:16.116,-0.795,0.055
10:20:16.120,-0.7,0.055
10:20:16.124,-0.51,0.06
10:20:16.128,-0.31,0.06
10:20:16.132,-0.18,0.105
10:20:16.136,-0.24,0.18
10:20:16.140,-0.455,0.275
10:20:16.144,-0.84,0.28
10:20:16.148,-1.345,0.095
10:20:16.152,-1.675,-0.255
10:20:16.156,-1.785,-0.68
10:20:16.160,-1.715,-1.345
10:20:16.164,-1.56,-2.13
10:20:16.168,-1.36,-2.86
10:20:16.172,-1.28,-3.455
10:20:16.176,-1.32,-3.935
10:20:16.180,-1.395,-4.225
10:20:16.184,-1.385,-4.41
10:20:16.188,-1.375,-4.485
10:20:16.192,-1.375,-4.39
10:20:16.196,-1.3,-4.275
10:20:16.200,-1.06,-4.15
10:20:16.204,-0.895,-4.03
10:20:16.208,-0.8,-3.935
10:20:16.212,-0.76,-3.82
10:20:16.216,-0.68,-3.665
10:20:16.220,-0.63,-3.425
10:20:16.224,-0.625,-3.105
10:20:16.228,-0.67,-2.81
10:20:16.232,-0.71,-2.46
10:20:16.236,-0.76,-2.025
10:20:16.240,-0.725,-1.605
10:20:16.244,-0.69,-1.275
10:20:16.248,-0.625,-0.975
10:20:16.252,-0.535,-0.695
10:20:16.256,-0.485,-0.485
10:20:16.260,-0.5,-0.275
10:20:16.264,-0.48,-0.125
10:20:16.268,-0.48,0.035
10:20:16.272,-0.45,0.215
10:20:16.276,-0.44,0.355
10:20:16.280,-0.43,0.49
10:20:16.284,-0.44,0.61
10:20:16.288,-0.43,0.7
10:20:16.292,-0.43,0.72
10:20:16.296,-0.415,0.755
10:20:16.300,-0.385,0.78
10:20:16.304,-0.38,0.795
10:20:16.308,-0.38,0.815
10:20:16.312,-0.355,0.84
10:20:16.316,-0.335,0.87
10:20:16.320,-0.29,0.87
10:20:16.324,-0.255,0.885
10:20:16.328,-0.26,0.915
10:20:16.332,-0.26,0.955
10:20:16.336,-0.27,0.975
10:20:16.340,-0.265,0.995
10:20:16.344,-0.24,1.015
10:20:16.348,-0.225,1.055
10:20:16.352,-0.185,1.05
10:20:16.356,-0.17,1.09
10:20:16.360,-0.18,1.125
10:20:16.364,-0.175,1.145
10:20:16.368,-0.14,1.16
10:20:16.372,-0.135,1.195
10:20:16.376,-0.15,1.225
10:20:16.380,-0.175,1.255
10:20:16.384,-0.175,1.3
10:20:16.388,-0.115,1.29
10:20:16.392,-0.075,1.305
10:20:16.396,-0.045,1.315
10:20:16.400,-0.02,1.34
10:20:16.404,-0.025,1.36
10:20:16.408,-0.015,1.39
10:20:16.412,-0.035,1.41
10:20:16.416,-0.015,1.42
10:20:16.420,0.015,1.445
10:20:16.424,0.01,1.47
10:20:16.428,-0.015,1.465
10:20:16.432,-0.05,1.48
10:20:16.436,-0.085,1.46
10:20:16.440,-0.115,1.465
10:20:16.444,-0.11,1.415
10:20:16.448,-0.1,1.38
10:20:16.452,-0.055,1.335
10:20:16.456,-0.015,1.28
10:20:16.460,-0.035,1.22
10:20:16.464,-0.03,1.195
10:20:16.468,0.015,1.12
10:20:16.472,0.02,1.06
10:20:16.476,-0.06,1.0
10:20:16.480,-0.13,0.94
10:20:16.484,-0.14,0.855
10:20:16.488,-0.14,0.78
10:20:16.492,-0.16,0.72
10:20:16.496,-0.18,0.66
10:20:16.500,-0.2,0.635
10:20:16.504,-0.2,0.59
10:20:16.508,-0.22,0.56
10:20:16.512,-0.19,0.555
10:20:16.516,-0.215,0.505
10:20:16.520,-0.25,0.475
10:20:16.524,-0.27,0.435
10:20:16.528,-0.28,0.435
10:20:16.532,-0.28,0.39
10:20:16.536,-0.245,0.355
10:20:16.540,-0.24,0.375
10:20:16.544,-0.245,0.4
10:20:16.548,-0.26,0.405
10:20:16.552,-0.26,0.405
10:20:16.556,-0.24,0.38
10:20:16.560,-0.255,0.38
10:20:16.564,-0.27,0.39
10:20:16.568,-0.29,0.405
10:20:16.572,-0.28,0.41
10:20:16.576,-0.285,0.395
10:20:16.580,-0.265,0.41
10:20:16.584,-0.265,0.41
10:20:16.588,-0.285,0.39
10:20:16.592,-0.305,0.4
10:20:16.596,-0.32,0.395
10:20:16.600,-0.32,0.425
10:20:16.604,-0.36,0.44
10:20:16.608,-0.35,0.415
10:20:16.612,-0.31,0.395
10:20:16.616,-0.29,0.395
10:20:16.620,-0.31,0.42
10:20:16.624,-0.255,0.39
10:20:16.628,-0.245,0.41
10:20:16.632,-0.28,0.41
10:20:16.636,-0.29,0.395
10:20:16.640,-0.28,0.425
10:20:16.644,-0.29,0.435
10:20:16.648,-0.28,0.475
10:20:16.652,-0.255,0.465
10:20:16.656,-0.21,0.475
10:20:16.660,-0.205,0.475
10:20:16.664,-0.165,0.465
10:20:16.668,-0.075,0.47
10:20:16.672,-0.02,0.485
10:20:16.676,0.0,0.47
10:20:16.680,0.04,0.49
10:20:16.684,0.085,0.48
10:20:16.688,0.105,0.48
10:20:16.692,0.125,0.46
10:20:16.696,0.075,0.465
10:20:16.700,0.05,0.45
10:20:16.704,0.035,0.48
10:20:16.708,0.06,0.46
10:20:16.712,0.045,0.445
10:20:16.716,0.08,0.435
10:20:16.720,0.095,0.455
10:20:16.724,0.115,0.435
10:20:16.728,0.105,0.435
10:20:16.732,0.07,0.455
10:20:16.736,-0.02,0.465
10:20:16.740,0.005,0.45
10:20:16.744,0.02,0.445
10:20:16.748,0.01,0.445
10:20:16.752,0.015,0.445
10:20:16.756,0.03,0.425
10:20:16.760,0.0,0.405
10:20:16.764,-0.005,0.405
10:20:16.768,0.04,0.405
10:20:16.772,0.02,0.425
10:20:16.776,0.035,0.445
10:20:16.780,0.095,0.445
10:20:16.784,0.2,0.425
10:20:16.788,0.335,0.405
10:20:16.792,0.405,0.44
10:20:16.796,0.345,0.485
10:20:16.800,0.19,0.575
10:20:16.804,-0.18,0.63
10:20:16.808,-0.645,0.535
10:20:16.812,-1.02,0.265
10:20:16.816,-1.325,-0.1
10:20:16.820,-1.52,-0.615
10:20:16.824,-1.55,-1.32
10:20:16.828,-1.46,-2.12
10:20:16.832,-1.415,-2.865
10:20:16.836,-1.405,-3.43
10:20:16.840,-1.44,-3.865
10:20:16.844,-1.42,-4.125
10:20:16.848,-1.41,-4.26
10:20:16.852,-1.385,-4.26
10:20:16.856,-1.3,-4.15
10:20:16.860,-1.115,-3.97
10:20:16.864,-0.95,-3.84
10:20:16.868,-0.845,-3.715
10:20:16.872,-0.745,-3.595
10:20:16.876,-0.6,-3.465
10:20:16.880,-0.48,-3.245
10:20:16.884,-0.36,-2.905
10:20:16.888,-0.305,-2.595
10:20:16.892,-0.235,-2.295
10:20:16.896,-0.13,-1.945
10:20:16.900,-0.09,-1.59
10:20:16.904,-0.02,-1.22
10:20:16.908,0.1,-0.9
10:20:16.912,0.2,-0.58
10:20:16.916,0.275,-0.33
10:20:16.920,0.33,-0.095
10:20:16.924,0.315,0.08
10:20:16.928,0.3,0.21
10:20:16.932,0.315,0.4
10:20:16.936,0.365,0.555
10:20:16.940,0.385,0.675
10:20:16.944,0.39,0.805
10:20:16.948,0.41,0.955
10:20:16.952,0.465,1.02
10:20:16.956,0.495,1.055
10:20:16.960,0.46,1.075
10:20:16.964,0.425,1.105
10:20:16.968,0.445,1.125
10:20:16.972,0.44,1.145
10:20:16.976,0.475,1.17
10:20:16.980,0.475,1.18
10:20:16.984,0.475,1.195
10:20:16.988,0.53,1.2
10:20:16.992,0.545,1.24
10:20:16.996,0.55,1.245
10:20:17.000,0.55,1.29
10:20:17.004,0.575,1.315
10:20:17.008,0.57,1.335
10:20:17.012,0.595,1.375
10:20:17.016,0.605,1.395
10:20:17.020,0.64,1.415
10:20:17.024,0.67,1.43
10:20:17.028,0.67,1.48
10:20:17.032,0.655,1.52
10:20:17.036,0.67,1.56
10:20:17.040,0.67,1.575
10:20:17.044,0.65,1.605
10:20:17.048,0.625,1.65
10:20:17.052,0.635,1.68
10:20:17.056,0.63,1.725
10:20:17.060,0.625,1.715
10:20:17.064,0.665,1.73
10:20:17.068,0.71,1.72
10:20:17.072,0.72,1.74
10:20:17.076,0.695,1.755
10:20:17.080,0.7,1.765
10:20:17.084,0.675,1.79
10:20:17.088,0.635,1.815
10:20:17.092,0.62,1.825
10:20:17.096,0.615,1.81
10:20:17.100,0.63,1.79
10:20:17.104,0.61,1.775
10:20:17.108,0.585,1.755
10:20:17.112,0.585,1.69
10:20:17.116,0.595,1.645
10:20:17.120,0.605,1.61
10:20:17.124,0.62,1.56
10:20:17.128,0.63,1.51
10:20:17.132,0.625,1.45
10:20:17.136,0.64,1.385
10:20:17.140,0.61,1.315
10:20:17.144,0.575,1.24
10:20:17.148,0.54,1.175
10:20:17.152,0.535,1.135
10:20:17.156,0.52,1.065
10:20:17.160,0.505,0.98
10:20:17.164,0.51,0.915
10:20:17.168,0.51,0.875
10:20:17.172,0.465,0.8
10:20:17.176,0.43,0.775
10:20:17.180,0.395,0.75
10:20:17.184,0.41,0.755
10:20:17.188,0.42,0.73
10:20:17.192,0.39,0.715
10:20:17.196,0.37,0.68
10:20:17.200,0.335,0.645
10:20:17.204,0.315,0.64
10:20:17.208,0.33,0.635
10:20:17.212,0.375,0.625
10:20:17.216,0.38,0.61
10:20:17.220,0.365,0.605
10:20:17.224,0.325,0.62
10:20:17.228,0.295,0.61
10:20:17.232,0.315,0.61
10:20:17.236,0.305,0.61
10:20:17.240,0.3,0.625
10:20:17.244,0.28,0.64
10:20:17.248,0.265,0.615
10:20:17.252,0.26,0.63
10:20:17.256,0.275,0.595
10:20:17.260,0.25,0.635
10:20:17.264,0.225,0.62
10:20:17.268,0.235,0.615
10:20:17.272,0.215,0.61
10:20:17.276,0.225,0.625
10:20:17.280,0.22,0.585
10:20:17.284,0.215,0.58
10:20:17.288,0.22,0.57
10:20:17.292,0.225,0.59
10:20:17.296,0.265,0.58
10:20:17.300,0.285,0.56
10:20:17.304,0.27,0.59
10:20:17.308,0.265,0.63
10:20:17.312,0.26,0.655
10:20:17.316,0.25,0.685
10:20:17.320,0.235,0.69
10:20:17.324,0.25,0.685
10:20:17.328,0.29,0.68
10:20:17.332,0.33,0.7
10:20:17.336,0.315,0.71
10:20:17.340,0.305,0.725
10:20:17.344,0.325,0.695
10:20:17.348,0.375,0.715
10:20:17.352,0.42,0.715
10:20:17.356,0.465,0.725
10:20:17.360,0.48,0.735
10:20:17.364,0.495,0.75
10:20:17.368,0.5,0.745
10:20:17.372,0.52,0.72
10:20:17.376,0.515,0.71
10:20:17.380,0.495,0.705
10:20:17.384,0.48,0.69
10:20:17.388,0.475,0.665
10:20:17.392,0.49,0.645
10:20:17.396,0.47,0.63
10:20:17.400,0.47,0.62
10:20:17.404,0.44,0.62
10:20:17.408,0.43,0.605
10:20:17.412,0.425,0.63
10:20:17.416,0.415,0.62
10:20:17.420,0.435,0.625
10:20:17.424,0.42,0.6
10:20:17.428,0.39,0.6
10:20:17.432,0.38,0.585
10:20:17.436,0.37,0.58
10:20:17.440,0.415,0.555
10:20:17.444,0.47,0.585
10:20:17.448,0.55,0.585
10:20:17.452,0.655,0.58
10:20:17.456,0.755,0.605
10:20:17.460,0.715,0.66
10:20:17.464,0.59,0.73
10:20:17.468,0.315,0.83
10:20:17.472,-0.07,0.805
10:20:17.476,-0.445,0.57
10:20:17.480,-0.73,0.22
10:20:17.484,-0.905,-0.265
10:20:17.488,-0.925,-0.935
10:20:17.492,-0.815,-1.675
10:20:17.496,-0.715,-2.325
10:20:17.500,-0.75,-3.045
10:20:17.504,-0.895,-3.565
10:20:17.508,-0.925,-3.845
10:20:17.512,-0.83,-4.0
10:20:17.516,-0.77,-3.97
10:20:17.520,-0.72,-3.865
10:20:17.524,-0.61,-3.715
10:20:17.528,-0.445,-3.58
10:20:17.532,-0.27,-3.415
10:20:17.536,-0.15,-3.27
10:20:17.540,-0.02,-3.145
10:20:17.544,0.12,-2.94
10:20:17.548,0.185,-2.655
10:20:17.552,0.18,-2.335
10:20:17.556,0.16,-2.0
10:20:17.560,0.185,-1.605
10:20:17.564,0.21,-1.21
10:20:17.568,0.305,-0.845
10:20:17.572,0.415,-0.52
10:20:17.576,0.535,-0.25
10:20:17.580,0.625,0.025
10:20:17.584,0.665,0.22
10:20:17.588,0.71,0.39
10:20:17.592,0.715,0.555
10:20:17.596,0.725,0.705
10:20:17.600,0.73,0.815
10:20:17.604,0.73,0.99
10:20:17.608,0.745,1.095
10:20:17.612,0.81,1.16
10:20:17.616,0.835,1.215
10:20:17.620,0.845,1.225
10:20:17.624,0.84,1.25
10:20:17.628,0.82,1.26
10:20:17.632,0.825,1.265
10:20:17.636,0.84,1.28
10:20:17.640,0.845,1.285
10:20:17.644,0.88,1.31
10:20:17.648,0.875,1.335
10:20:17.652,0.86,1.335
10:20:17.656,0.89,1.39
10:20:17.660,0.93,1.42
10:20:17.664,0.95,1.46
10:20:17.668,0.935,1.495
10:20:17.672,0.93,1.495
10:20:17.676,0.95,1.54
10:20:17.680,0.96,1.575
10:20:17.684,1.01,1.59
10:20:17.688,1.01,1.585
10:20:17.692,0.99,1.66
10:20:17.696,0.985,1.68
10:20:17.700,0.995,1.715
10:20:17.704,1.025,1.755
10:20:17.708,1.045,1.78
10:20:17.712,1.025,1.795
10:20:17.716,1.005,1.79
10:20:17.720,1.01,1.82
10:20:17.724,1.02,1.815
10:20:17.728,1.02,1.81
10:20:17.732,1.005,1.835
10:20:17.736,1.005,1.84
10:20:17.740,1.005,1.845
10:20:17.744,1.03,1.845
10:20:17.748,0.945,1.85
10:20:17.752,0.895,1.845
10:20:17.756,0.895,1.825
10:20:17.760,0.9,1.815
10:20:17.764,0.88,1.785
10:20:17.768,0.88,1.74
10:20:17.772,0.875,1.715
10:20:17.776,0.845,1.67
10:20:17.780,0.84,1.635
10:20:17.784,0.835,1.6
10:20:17.788,0.865,1.54
10:20:17.792,0.86,1.48
10:20:17.796,0.865,1.425
10:20:17.800,0.885,1.35
10:20:17.804,0.88,1.285
10:20:17.808,0.855,1.22
10:20:17.812,0.84,1.16
10:20:17.816,0.81,1.12
10:20:17.820,0.8,1.075
10:20:17.824,0.77,1.05
10:20:17.828,0.77,0.995
10:20:17.832,0.765,0.97
10:20:17.836,0.785,0.925
10:20:17.840,0.745,0.895
10:20:17.844,0.74,0.865
10:20:17.848,0.715,0.85
10:20:17.852,0.72,0.81
10:20:17.856,0.725,0.795
10:20:17.860,0.73,0.765
10:20:17.864,0.69,0.77
10:20:17.868,0.645,0.78
10:20:17.872,0.64,0.785
10:20:17.876,0.645,0.77
10:20:17.880,0.625,0.775
10:20:17.884,0.65,0.79
10:20:17.888,0.635,0.79
10:20:17.892,0.63,0.785
10:20:17.896,0.66,0.76
10:20:17.900,0.725,0.77
10:20:17.904,0.87,0.745
10:20:17.908,0.985,0.75
10:20:17.912,0.95,0.765
10:20:17.916,0.78,0.82
10:20:17.920,0.46,0.94
10:20:17.924,-0.05,0.945
10:20:17.928,-0.59,0.785
10:20:17.932,-1.0,0.525
10:20:17.936,-1.16,0.135
10:20:17.940,-1.135,-0.54
10:20:17.944,-0.985,-1.33
10:20:17.948,-0.82,-2.085
10:20:17.952,-0.76,-2.795
10:20:17.956,-0.755,-3.365
10:20:17.960,-0.685,-3.695
10:20:17.964,-0.61,-3.845
10:20:17.968,-0.52,-3.825
10:20:17.972,-0.385,-3.635
10:20:17.976,-0.17,-3.455
10:20:17.980,0.0,-3.33
10:20:17.984,0.11,-3.19
10:20:17.988,0.245,-3.1
10:20:17.992,0.4,-2.925
10:20:17.996,0.475,-2.65
10:20:18.000,0.465,-2.335
10:20:18.004,0.415,-1.97
10:20:18.008,0.4,-1.59
10:20:18.012,0.505,-1.165
10:20:18.016,0.54,-0.81
10:20:18.020,0.605,-0.48
10:20:18.024,0.69,-0.2
10:20:18.028,0.76,0.035
10:20:18.032,0.815,0.245
10:20:18.036,0.835,0.43
10:20:18.040,0.84,0.615
10:20:18.044,0.835,0.825
10:20:18.048,0.825,0.975
10:20:18.052,0.81,1.06
10:20:18.056,0.81,1.155
10:20:18.060,0.81,1.17
10:20:18.064,0.82,1.2
10:20:18.068,0.835,1.22
10:20:18.072,0.835,1.215
10:20:18.076,0.86,1.245
10:20:18.080,0.86,1.28
10:20:18.084,0.85,1.315
10:20:18.088,0.835,1.29
10:20:18.092,0.865,1.35
10:20:18.096,0.885,1.355
10:20:18.100,0.895,1.36
10:20:18.104,0.895,1.37
10:20:18.108,0.915,1.405
10:20:18.112,0.93,1.455
10:20:18.116,0.94,1.48
10:20:18.120,0.93,1.48
10:20:18.124,0.94,1.505
10:20:18.128,0.95,1.495
10:20:18.132,0.935,1.54
10:20:18.136,0.93,1.55
10:20:18.140,0.92,1.575
10:20:18.144,0.925,1.58
10:20:18.148,0.94,1.595
10:20:18.152,0.93,1.63
10:20:18.156,0.935,1.615
10:20:18.160,0.935,1.635
10:20:18.164,0.95,1.645
10:20:18.168,0.92,1.64
10:20:18.172,0.925,1.66
10:20:18.176,0.895,1.675
10:20:18.180,0.895,1.65
10:20:18.184,0.915,1.65
10:20:18.188,0.895,1.63
10:20:18.192,0.91,1.61
10:20:18.196,0.865,1.61
10:20:18.200,0.85,1.56
10:20:18.204,0.835,1.545
10:20:18.208,0.835,1.57
10:20:18.212,0.82,1.535
10:20:18.216,0.825,1.52
10:20:18.220,0.81,1.475
10:20:18.224,0.77,1.41
10:20:18.228,0.76,1.37
10:20:18.232,0.785,1.32
10:20:18.236,0.835,1.26
10:20:18.240,0.85,1.22
10:20:18.244,0.86,1.16
10:20:18.248,0.88,1.13
10:20:18.252,0.875,1.105
10:20:18.256,0.865,1.03
10:20:18.260,0.83,0.965
10:20:18.264,0.82,0.94
10:20:18.268,0.79,0.92
10:20:18.272,0.76,0.87
10:20:18.276,0.77,0.825
10:20:18.280,0.75,0.78
10:20:18.284,0.745,0.74
10:20:18.288,0.735,0.735
10:20:18.292,0.715,0.705
10:20:18.296,0.715,0.705
10:20:18.300,0.7,0.69
10:20:18.304,0.69,0.63
10:20:18.308,0.655,0.605
10:20:18.312,0.65,0.68
10:20:18.316,0.605,0.725
10:20:18.320,0.62,0.66
10:20:18.324,0.65,0.615
10:20:18.328,0.67,0.605
10:20:18.332,0.715,0.65
10:20:18.336,0.81,0.625
10:20:18.340,0.96,0.58
10:20:18.344,1.075,0.56
10:20:18.348,1.075,0.645
10:20:18.352,0.91,0.74
10:20:18.356,0.59,0.83
10:20:18.360,0.22,0.715
10:20:18.364,-0.125,0.37
10:20:18.368,-0.355,-0.055
10:20:18.372,-0.36,-0.685
10:20:18.376,-0.215,-1.465
10:20:18.380,-0.045,-2.245
10:20:18.384,0.02,-2.935
10:20:18.388,0.0,-3.47
10:20:18.392,-0.025,-3.865
10:20:18.396,-0.02,-4.06
10:20:18.400,-0.04,-4.13
10:20:18.404,0.0,-4.02
10:20:18.408,0.115,-3.88
10:20:18.412,0.275,-3.78
10:20:18.416,0.385,-3.7
10:20:18.420,0.43,-3.595
10:20:18.424,0.485,-3.45
10:20:18.428,0.55,-3.145
10:20:18.432,0.525,-2.74
10:20:18.436,0.45,-2.395
10:20:18.440,0.325,-2.075
10:20:18.444,0.295,-1.68
10:20:18.448,0.32,-1.225
10:20:18.452,0.4,-0.875
10:20:18.456,0.525,-0.6
10:20:18.460,0.64,-0.285
10:20:18.464,0.67,0.0
10:20:18.468,0.675,0.195
10:20:18.472,0.68,0.385
10:20:18.476,0.66,0.57
10:20:18.480,0.665,0.765
10:20:18.484,0.64,0.905
10:20:18.488,0.665,0.99
10:20:18.492,0.69,1.04
10:20:18.496,0.715,1.045
10:20:18.500,0.73,1.095
10:20:18.504,0.735,1.1
10:20:18.508,0.735,1.13
10:20:18.512,0.735,1.13
10:20:18.516,0.745,1.165
10:20:18.520,0.725,1.19
10:20:18.524,0.735,1.18
10:20:18.528,0.76,1.2
10:20:18.532,0.735,1.235
10:20:18.536,0.765,1.265
10:20:18.540,0.775,1.245
10:20:18.544,0.785,1.275
10:20:18.548,0.83,1.3
10:20:18.552,0.82,1.315
10:20:18.556,0.84,1.36
10:20:18.560,0.835,1.37
10:20:18.564,0.825,1.395
10:20:18.568,0.835,1.395
10:20:18.572,0.815,1.4
10:20:18.576,0.83,1.465
10:20:18.580,0.84,1.495
10:20:18.584,0.85,1.48
10:20:18.588,0.85,1.475
10:20:18.592,0.85,1.51
10:20:18.596,0.825,1.525
10:20:18.600,0.805,1.57
10:20:18.604,0.78,1.575
10:20:18.608,0.765,1.58
10:20:18.612,0.78,1.565
10:20:18.616,0.8,1.545
10:20:18.620,0.77,1.54
10:20:18.624,0.755,1.52
10:20:18.628,0.745,1.525
10:20:18.632,0.755,1.53
10:20:18.636,0.72,1.51
10:20:18.640,0.705,1.525
10:20:18.644,0.675,1.475
10:20:18.648,0.68,1.46
10:20:18.652,0.66,1.405
10:20:18.656,0.63,1.345
10:20:18.660,0.65,1.29
10:20:18.664,0.635,1.23
10:20:18.668,0.65,1.19
10:20:18.672,0.665,1.14
10:20:18.676,0.69,1.085
10:20:18.680,0.71,1.045
10:20:18.684,0.72,0.995
10:20:18.688,0.71,0.935
10:20:18.692,0.675,0.895
10:20:18.696,0.67,0.885
10:20:18.700,0.595,0.815
10:20:18.704,0.6,0.755
10:20:18.708,0.59,0.69
10:20:18.712,0.6,0.69
10:20:18.716,0.58,0.65
10:20:18.720,0.565,0.6
10:20:18.724,0.53,0.595
10:20:18.728,0.53,0.575
10:20:18.732,0.52,0.565
10:20:18.736,0.49,0.56
10:20:18.740,0.455,0.545
10:20:18.744,0.455,0.55
10:20:18.748,0.445,0.52
10:20:18.752,0.445,0.475
10:20:18.756,0.45,0.455
10:20:18.760,0.44,0.47
10:20:18.764,0.41,0.46
10:20:18.768,0.39,0.47
10:20:18.772,0.41,0.45
10:20:18.776,0.405,0.47
10:20:18.780,0.37,0.435
10:20:18.784,0.355,0.43
10:20:18.788,0.32,0.45
10:20:18.792,0.285,0.425
10:20:18.796,0.29,0.43
10:20:18.800,0.285,0.435
10:20:18.804,0.28,0.4
10:20:18.808,0.27,0.37
10:20:18.812,0.265,0.36
10:20:18.816,0.22,0.395
10:20:18.820,0.225,0.385
10:20:18.824,0.215,0.345
10:20:18.828,0.2,0.345
10:20:18.832,0.2,0.33
10:20:18.836,0.2,0.31
10:20:18.840,0.195,0.29
10:20:18.844,0.215,0.33
10:20:18.848,0.195,0.34
10:20:18.852,0.17,0.35
10:20:18.856,0.155,0.355
10:20:18.860,0.18,0.375
10:20:18.864,0.165,0.39
10:20:18.868,0.155,0.37
10:20:18.872,0.155,0.345
10:20:18.876,0.215,0.35
10:20:18.880,0.28,0.375
10:20:18.884,0.3,0.365
10:20:18.888,0.315,0.38
10:20:18.892,0.325,0.385
10:20:18.896,0.34,0.41
10:20:18.900,0.355,0.415
10:20:18.904,0.355,0.375
10:20:18.908,0.35,0.37
10:20:18.912,0.345,0.365
10:20:18.916,0.335,0.38
10:20:18.920,0.32,0.395
10:20:18.924,0.335,0.38
10:20:18.928,0.35,0.4
10:20:18.932,0.335,0.395
10:20:18.936,0.32,0.4
10:20:18.940,0.27,0.39
10:20:18.944,0.24,0.425
10:20:18.948,0.235,0.41
10:20:18.952,0.21,0.43
10:20:18.956,0.205,0.41
10:20:18.960,0.205,0.395
10:20:18.964,0.2,0.39
10:20:18.968,0.19,0.375
10:20:18.972,0.2,0.345
10:20:18.976,0.17,0.345
10:20:18.980,0.16,0.325
10:20:18.984,0.165,0.34
10:20:18.988,0.15,0.32
10:20:18.992,0.125,0.315
10:20:18.996,0.1,0.315
10:20:19.000,0.105,0.305
10:20:19.004,0.085,0.29
10:20:19.008,0.055,0.275
10:20:19.012,0.02,0.235
10:20:19.016,0.04,0.185
10:20:19.020,0.03,0.155
10:20:19.024,0.015,0.095
10:20:19.028,0.01,0.07
10:20:19.032,-0.015,0.025
10:20:19.036,-0.01,0.025
10:20:19.040,-0.005,-0.01
10:20:19.044,-0.03,-0.01
10:20:19.048,-0.03,-0.01
10:20:19.052,-0.04,-0.03
10:20:19.056,-0.02,-0.02
10:20:19.060,-0.02,-0.015
10:20:19.064,0.0,-0.02
10:20:19.068,0.0,-0.02
10:20:19.072,0.01,0.005
10:20:19.076,0.055,0.025
10:20:19.080,0.125,0.025
10:20:19.084,0.255,0.055
10:20:19.088,0.345,0.045
10:20:19.092,0.425,0.095
10:20:19.096,0.405,0.155
10:20:19.100,0.26,0.255
10:20:19.104,-0.045,0.265
10:20:19.108,-0.39,0.04
10:20:19.112,-0.7,-0.35
10:20:19.116,-0.875,-0.855
10:20:19.120,-0.88,-1.535
10:20:19.124,-0.665,-2.35
10:20:19.128,-0.47,-3.08
10:20:19.132,-0.435,-3.72
10:20:19.136,-0.49,-4.175
10:20:19.140,-0.505,-4.455
10:20:19.144,-0.46,-4.585
10:20:19.148,-0.425,-4.65
10:20:19.152,-0.42,-4.6
10:20:19.156,-0.38,-4.52
10:20:19.160,-0.27,-4.44
10:20:19.164,-0.165,-4.39
10:20:19.168,-0.065,-4.335
10:20:19.172,0.0,-4.25
10:20:19.176,0.075,-4.155
10:20:19.180,0.095,-3.955
10:20:19.184,0.08,-3.69
10:20:19.188,0.005,-3.38
10:20:19.192,-0.1,-3.045
10:20:19.196,-0.165,-2.675
10:20:19.200,-0.17,-2.31
10:20:19.204,-0.135,-1.975
10:20:19.208,-0.115,-1.665
10:20:19.212,-0.1,-1.345
10:20:19.216,-0.115,-1.095
10:20:19.220,-0.095,-0.87
10:20:19.224,-0.08,-0.7
10:20:19.228,-0.08,-0.51
10:20:19.232,-0.095,-0.33
10:20:19.236,-0.12,-0.15
10:20:19.240,-0.115,0.03
10:20:19.244,-0.115,0.115
10:20:19.248,-0.105,0.14
10:20:19.252,-0.07,0.12
10:20:19.256,-0.07,0.135
10:20:19.260,-0.06,0.16
10:20:19.264,-0.03,0.21
10:20:19.268,0.0,0.22
10:20:19.272,0.015,0.265
10:20:19.276,0.01,0.285
10:20:19.280,0.03,0.33
10:20:19.284,0.045,0.38
10:20:19.288,0.085,0.41
10:20:19.292,0.095,0.43
10:20:19.296,0.13,0.41
10:20:19.300,0.14,0.375
10:20:19.304,0.14,0.35
10:20:19.308,0.19,0.33
10:20:19.312,0.23,0.33
10:20:19.316,0.3,0.36
10:20:19.320,0.36,0.41
10:20:19.324,0.36,0.455
10:20:19.328,0.375,0.495
10:20:19.332,0.36,0.525
10:20:19.336,0.36,0.545
10:20:19.340,0.38,0.58
10:20:19.344,0.405,0.6
10:20:19.348,0.395,0.59
10:20:19.352,0.38,0.605
10:20:19.356,0.38,0.605
10:20:19.360,0.39,0.625
10:20:19.364,0.405,0.625
10:20:19.368,0.385,0.635
10:20:19.372,0.365,0.65
10:20:19.376,0.34,0.655
10:20:19.380,0.325,0.64
10:20:19.384,0.29,0.67
10:20:19.388,0.28,0.635
10:20:19.392,0.245,0.625
10:20:19.396,0.235,0.56
10:20:19.400,0.205,0.48
10:20:19.404,0.21,0.415
10:20:19.408,0.195,0.365
10:20:19.412,0.17,0.315
10:20:19.416,0.145,0.24
10:20:19.420,0.085,0.16
10:20:19.424,0.065,0.095
10:20:19.428,0.025,-0.01
10:20:19.432,-0.01,-0.09
10:20:19.436,-0.065,-0.19
10:20:19.440,-0.12,-0.27
10:20:19.444,-0.15,-0.355
10:20:19.448,-0.19,-0.485
10:20:19.452,-0.225,-0.62
10:20:19.456,-0.27,-0.715
10:20:19.460,-0.29,-0.815
10:20:19.464,-0.34,-0.86
10:20:19.468,-0.355,-0.92
10:20:19.472,-0.38,-0.985
10:20:19.476,-0.38,-1.065
10:20:19.480,-0.415,-1.12
10:20:19.484,-0.445,-1.17
10:20:19.488,-0.45,-1.25
10:20:19.492,-0.46,-1.27
10:20:19.496,-0.45,-1.295
10:20:19.500,-0.485,-1.31
10:20:19.504,-0.495,-1.28
10:20:19.508,-0.465,-1.27
10:20:19.512,-0.46,-1.25
10:20:19.516,-0.455,-1.25
10:20:19.520,-0.435,-1.275
10:20:19.524,-0.46,-1.255
10:20:19.528,-0.48,-1.245
10:20:19.532,-0.465,-1.21
10:20:19.536,-0.395,-1.21
10:20:19.540,-0.325,-1.2
10:20:19.544,-0.28,-1.2
10:20:19.548,-0.265,-1.18
10:20:19.552,-0.25,-1.16
10:20:19.556,-0.255,-1.14
10:20:19.560,-0.275,-1.135
10:20:19.564,-0.28,-1.13
10:20:19.568,-0.28,-1.15
10:20:19.572,-0.295,-1.16
10:20:19.576,-0.305,-1.165
10:20:19.580,-0.32,-1.19
10:20:19.584,-0.34,-1.21
10:20:19.588,-0.32,-1.245
10:20:19.592,-0.36,-1.25
10:20:19.596,-0.365,-1.265
10:20:19.600,-0.4,-1.27
10:20:19.604,-0.415,-1.265
10:20:19.608,-0.45,-1.265
10:20:19.612,-0.44,-1.275
10:20:19.616,-0.44,-1.28
10:20:19.620,-0.39,-1.295
10:20:19.624,-0.29,-1.315
10:20:19.628,-0.15,-1.3
10:20:19.632,-0.03,-1.32
10:20:19.636,-0.05,-1.245
10:20:19.640,-0.16,-1.16
10:20:19.644,-0.435,-1.04
10:20:19.648,-0.825,-1.08
10:20:19.652,-1.205,-1.355
10:20:19.656,-1.48,-1.8
10:20:19.660,-1.615,-2.29
10:20:19.664,-1.54,-2.99
10:20:19.668,-1.31,-3.7
10:20:19.672,-1.12,-4.285
10:20:19.676,-1.115,-4.715
10:20:19.680,-1.155,-4.985
10:20:19.684,-1.175,-5.125
10:20:19.688,-1.14,-5.22
10:20:19.692,-1.135,-5.255
10:20:19.696,-1.06,-5.235
10:20:19.700,-0.91,-5.215
10:20:19.704,-0.76,-5.185
10:20:19.708,-0.675,-5.155
10:20:19.712,-0.65,-5.125
10:20:19.716,-0.63,-5.07
10:20:19.720,-0.62,-4.96
10:20:19.724,-0.68,-4.815
10:20:19.728,-0.795,-4.64
10:20:19.732,-0.875,-4.41
10:20:19.736,-0.93,-4.115
10:20:19.740,-0.92,-3.785
10:20:19.744,-0.86,-3.465
10:20:19.748,-0.81,-3.175
10:20:19.752,-0.71,-2.865
10:20:19.756,-0.65,-2.575
10:20:19.760,-0.615,-2.27
10:20:19.764,-0.54,-1.995
10:20:19.768,-0.49,-1.725
10:20:19.772,-0.435,-1.43
10:20:19.776,-0.35,-1.21
10:20:19.780,-0.34,-1.015
10:20:19.784,-0.36,-0.89
10:20:19.788,-0.4,-0.8
10:20:19.792,-0.425,-0.755
10:20:19.796,-0.455,-0.75
10:20:19.800,-0.43,-0.755
10:20:19.804,-0.385,-0.75
10:20:19.808,-0.37,-0.755
10:20:19.812,-0.395,-0.73
10:20:19.816,-0.355,-0.735
10:20:19.820,-0.37,-0.725
10:20:19.824,-0.365,-0.7
10:20:19.828,-0.38,-0.67
10:20:19.832,-0.385,-0.665
10:20:19.836,-0.395,-0.64
10:20:19.840,-0.38,-0.64
10:20:19.844,-0.355,-0.625
10:20:19.848,-0.32,-0.605
10:20:19.852,-0.33,-0.56
10:20:19.856,-0.33,-0.505
10:20:19.860,-0.32,-0.485
10:20:19.864,-0.33,-0.45
10:20:19.868,-0.32,-0.39
10:20:19.872,-0.315,-0.365
10:20:19.876,-0.33,-0.35
10:20:19.880,-0.31,-0.31
10:20:19.884,-0.35,-0.3
10:20:19.888,-0.355,-0.315
10:20:19.892,-0.34,-0.26
10:20:19.896,-0.33,-0.245
10:20:19.900,-0.355,-0.225
10:20:19.904,-0.36,-0.205
10:20:19.908,-0.4,-0.2
10:20:19.912,-0.415,-0.205
10:20:19.916,-0.43,-0.17
10:20:19.920,-0.45,-0.15
10:20:19.924,-0.45,-0.155
10:20:19.928,-0.46,-0.19
10:20:19.932,-0.475,-0.21
10:20:19.936,-0.475,-0.235
10:20:19.940,-0.49,-0.255
10:20:19.944,-0.51,-0.3
10:20:19.948,-0.55,-0.365
10:20:19.952,-0.585,-0.4
10:20:19.956,-0.59,-0.435
10:20:19.960,-0.625,-0.5
10:20:19.964,-0.625,-0.575
10:20:19.968,-0.61,-0.675
10:20:19.972,-0.655,-0.745
10:20:19.976,-0.7,-0.81
10:20:19.980,-0.715,-0.885
10:20:19.984,-0.69,-0.96
10:20:19.988,-0.625,-1.055
10:20:19.992,-0.555,-1.145
10:20:19.996,-0.55,-1.205
10:20:20.000,-0.55,-1.25
10:20:20.004,-0.57,-1.29
10:20:20.008,-0.555,-1.335
10:20:20.012,-0.58,-1.4
10:20:20.016,-0.595,-1.42
10:20:20.020,-0.61,-1.455
10:20:20.024,-0.61,-1.51
10:20:20.028,-0.655,-1.52
10:20:20.032,-0.66,-1.6
10:20:20.036,-0.675,-1.65
10:20:20.040,-0.665,-1.665
10:20:20.044,-0.67,-1.675
10:20:20.048,-0.705,-1.69
10:20:20.052,-0.705,-1.71
10:20:20.056,-0.76,-1.705
10:20:20.060,-0.78,-1.745
10:20:20.064,-0.795,-1.745
10:20:20.068,-0.8,-1.75
10:20:20.072,-0.825,-1.78
10:20:20.076,-0.815,-1.8
10:20:20.080,-0.82,-1.805
10:20:20.084,-0.835,-1.82
10:20:20.088,-0.84,-1.835
10:20:20.092,-0.88,-1.84
10:20:20.096,-0.92,-1.87
10:20:20.100,-0.935,-1.89
10:20:20.104,-0.96,-1.915
10:20:20.108,-0.96,-1.915
10:20:20.112,-0.99,-1.945
10:20:20.116,-1.035,-1.97
10:20:20.120,-1.04,-1.99
10:20:20.124,-1.06,-2.0
10:20:20.128,-1.08,-2.02
10:20:20.132,-1.105,-2.045
10:20:20.136,-1.13,-2.095
10:20:20.140,-1.16,-2.135
10:20:20.144,-1.18,-2.135
10:20:20.148,-1.22,-2.125
10:20:20.152,-1.24,-2.19
10:20:20.156,-1.2,-2.25
10:20:20.160,-1.165,-2.26
10:20:20.164,-1.155,-2.265
10:20:20.168,-1.155,-2.245
10:20:20.172,-1.16,-2.22
10:20:20.176,-1.16,-2.255
10:20:20.180,-1.19,-2.205
10:20:20.184,-1.2,-2.21
10:20:20.188,-1.205,-2.19
10:20:20.192,-1.18,-2.165
10:20:20.196,-1.16,-2.175
10:20:20.200,-1.145,-2.195
10:20:20.204,-1.13,-2.205
10:20:20.208,-1.055,-2.19
10:20:20.212,-1.0,-2.18
10:20:20.216,-0.94,-2.165
10:20:20.220,-0.92,-2.145
10:20:20.224,-0.875,-2.16
10:20:20.228,-0.82,-2.135
10:20:20.232,-0.84,-2.15
10:20:20.236,-0.845,-2.16
10:20:20.240,-0.845,-2.15
10:20:20.244,-0.86,-2.175
10:20:20.248,-0.85,-2.2
10:20:20.252,-0.84,-2.215
10:20:20.256,-0.845,-2.245
10:20:20.260,-0.855,-2.25
10:20:20.264,-0.84,-2.23
10:20:20.268,-0.87,-2.265
10:20:20.272,-0.885,-2.265
10:20:20.276,-0.89,-2.285
10:20:20.280,-0.935,-2.315
10:20:20.284,-0.98,-2.31
10:20:20.288,-1.01,-2.31
10:20:20.292,-1.015,-2.31
10:20:20.296,-1.01,-2.345
10:20:20.300,-1.005,-2.395
10:20:20.304,-1.01,-2.355
10:20:20.308,-1.025,-2.365
10:20:20.312,-1.035,-2.37
10:20:20.316,-0.97,-2.36
10:20:20.320,-0.885,-2.375
10:20:20.324,-0.73,-2.35
10:20:20.328,-0.635,-2.32
10:20:20.332,-0.66,-2.265
10:20:20.336,-0.845,-2.235
10:20:20.340,-1.09,-2.125
10:20:20.344,-1.52,-2.065
10:20:20.348,-2.0,-2.22
10:20:20.352,-2.445,-2.64
10:20:20.356,-2.775,-3.08
10:20:20.360,-2.91,-3.555
10:20:20.364,-2.885,-4.085
10:20:20.368,-2.775,-4.57
10:20:20.372,-2.665,-4.875
10:20:20.376,-2.635,-5.09
10:20:20.380,-2.65,-5.195
10:20:20.384,-2.62,-5.275
10:20:20.388,-2.535,-5.31
10:20:20.392,-2.475,-5.31
10:20:20.396,-2.42,-5.3
10:20:20.400,-2.285,-5.27
10:20:20.404,-2.135,-5.235
10:20:20.408,-1.97,-5.225
10:20:20.412,-1.79,-5.23
10:20:20.416,-1.635,-5.2
10:20:20.420,-1.52,-5.14
10:20:20.424,-1.435,-5.09
10:20:20.428,-1.415,-5.005
10:20:20.432,-1.42,-4.89
10:20:20.436,-1.37,-4.71
10:20:20.440,-1.31,-4.485
10:20:20.444,-1.215,-4.25
10:20:20.448,-1.075,-3.975
10:20:20.452,-0.965,-3.715
10:20:20.456,-0.88,-3.455
10:20:20.460,-0.845,-3.23
10:20:20.464,-0.83,-3.045
10:20:20.468,-0.82,-2.87
10:20:20.472,-0.81,-2.69
10:20:20.476,-0.8,-2.47
10:20:20.480,-0.78,-2.295
10:20:20.484,-0.735,-2.115
10:20:20.488,-0.71,-1.975
10:20:20.492,-0.715,-1.86
10:20:20.496,-0.715,-1.79
10:20:20.500,-0.7,-1.75
10:20:20.504,-0.725,-1.74
10:20:20.508,-0.755,-1.72
10:20:20.512,-0.745,-1.695
10:20:20.516,-0.72,-1.7
10:20:20.520,-0.73,-1.665
10:20:20.524,-0.73,-1.635
10:20:20.528,-0.7,-1.605
10:20:20.532,-0.695,-1.58
10:20:20.536,-0.67,-1.535
10:20:20.540,-0.65,-1.52
10:20:20.544,-0.66,-1.5
10:20:20.548,-0.665,-1.47
10:20:20.552,-0.64,-1.45
10:20:20.556,-0.64,-1.395
10:20:20.560,-0.63,-1.34
10:20:20.564,-0.64,-1.275
10:20:20.568,-0.635,-1.24
10:20:20.572,-0.62,-1.205
10:20:20.576,-0.6,-1.14
10:20:20.580,-0.605,-1.135
10:20:20.584,-0.6,-1.075
10:20:20.588,-0.61,-1.055
10:20:20.592,-0.63,-0.995
10:20:20.596,-0.625,-0.965
10:20:20.600,-0.635,-0.92
10:20:20.604,-0.59,-0.915
10:20:20.608,-0.58,-0.89
10:20:20.612,-0.57,-0.855
10:20:20.616,-0.54,-0.81
10:20:20.620,-0.565,-0.78
10:20:20.624,-0.57,-0.77
10:20:20.628,-0.57,-0.71
10:20:20.632,-0.57,-0.68
10:20:20.636,-0.57,-0.68
10:20:20.640,-0.56,-0.705
10:20:20.644,-0.58,-0.725
10:20:20.648,-0.605,-0.76
10:20:20.652,-0.67,-0.805
10:20:20.656,-0.685,-0.86
10:20:20.660,-0.72,-0.885
10:20:20.664,-0.69,-0.945
10:20:20.668,-0.64,-1.085
10:20:20.672,-0.57,-1.235
10:20:20.676,-0.53,-1.33
10:20:20.680,-0.56,-1.41
10:20:20.684,-0.58,-1.46
10:20:20.688,-0.62,-1.54
10:20:20.692,-0.64,-1.64
10:20:20.696,-0.66,-1.785
10:20:20.700,-0.675,-1.89
10:20:20.704,-0.715,-2.0
10:20:20.708,-0.71,-2.09
10:20:20.712,-0.735,-2.195
10:20:20.716,-0.785,-2.35
10:20:20.720,-0.825,-2.475
10:20:20.724,-0.84,-2.525
10:20:20.728,-0.88,-2.59
10:20:20.732,-0.915,-2.64
10:20:20.736,-0.95,-2.705
10:20:20.740,-0.985,-2.735
10:20:20.744,-0.98,-2.785
10:20:20.748,-0.98,-2.815
10:20:20.752,-0.995,-2.82
10:20:20.756,-1.0,-2.83
10:20:20.760,-0.995,-2.85
10:20:20.764,-1.02,-2.86
10:20:20.768,-1.025,-2.84
10:20:20.772,-1.015,-2.835
10:20:20.776,-1.05,-2.86
10:20:20.780,-1.055,-2.855
10:20:20.784,-1.07,-2.85
10:20:20.788,-1.085,-2.875
10:20:20.792,-1.115,-2.86
10:20:20.796,-1.105,-2.84
10:20:20.800,-1.145,-2.835
10:20:20.804,-1.11,-2.845
10:20:20.808,-1.13,-2.845
10:20:20.812,-1.13,-2.87
10:20:20.816,-1.135,-2.89
10:20:20.820,-1.195,-2.895
10:20:20.824,-1.24,-2.895
10:20:20.828,-1.245,-2.88
10:20:20.832,-1.28,-2.9
10:20:20.836,-1.265,-2.88
10:20:20.840,-1.225,-2.92
10:20:20.844,-1.18,-2.905
10:20:20.848,-1.125,-2.91
10:20:20.852,-1.115,-2.915
10:20:20.856,-1.12,-2.9
10:20:20.860,-1.15,-2.885
10:20:20.864,-1.215,-2.835
10:20:20.868,-1.21,-2.83
10:20:20.872,-1.165,-2.81
10:20:20.876,-1.135,-2.845
10:20:20.880,-1.13,-2.815
10:20:20.884,-1.09,-2.795
10:20:20.888,-1.07,-2.78
10:20:20.892,-1.08,-2.755
10:20:20.896,-1.06,-2.77
10:20:20.900,-0.99,-2.785
10:20:20.904,-0.94,-2.79
10:20:20.908,-0.895,-2.78
10:20:20.912,-0.835,-2.725
10:20:20.916,-0.82,-2.74
10:20:20.920,-0.86,-2.75
10:20:20.924,-0.905,-2.76
10:20:20.928,-0.91,-2.755
10:20:20.932,-0.885,-2.795
10:20:20.936,-0.83,-2.78
10:20:20.940,-0.835,-2.78
10:20:20.944,-0.895,-2.815
10:20:20.948,-0.915,-2.835
10:20:20.952,-0.925,-2.875
10:20:20.956,-0.93,-2.855
10:20:20.960,-0.975,-2.865
10:20:20.964,-0.99,-2.875
10:20:20.968,-1.025,-2.895
10:20:20.972,-1.01,-2.885
10:20:20.976,-1.025,-2.875
10:20:20.980,-1.0,-2.91
10:20:20.984,-0.96,-2.895
10:20:20.988,-0.96,-2.915
10:20:20.992,-1.015,-2.94
10:20:20.996,-1.075,-2.9
10:20:21.000,-1.095,-2.91
10:20:21.004,-1.065,-2.915
10:20:21.008,-1.075,-2.925
10:20:21.012,-1.045,-2.925
10:20:21.016,-1.075,-2.93
10:20:21.020,-1.105,-2.905
10:20:21.024,-1.125,-2.925
10:20:21.028,-1.13,-2.92
10:20:21.032,-1.165,-2.91
10:20:21.036,-1.2,-2.92
10:20:21.040,-1.26,-2.935
10:20:21.044,-1.265,-2.93
10:20:21.048,-1.245,-2.96
10:20:21.052,-1.245,-2.955
10:20:21.056,-1.26,-2.94
10:20:21.060,-1.28,-2.975
10:20:21.064,-1.275,-2.965
10:20:21.068,-1.19,-2.945
10:20:21.072,-1.195,-2.965
10:20:21.076,-1.26,-2.925
10:20:21.080,-1.27,-2.925
10:20:21.084,-1.25,-2.9
10:20:21.088,-1.225,-2.895
10:20:21.092,-1.23,-2.875
10:20:21.096,-1.19,-2.87
10:20:21.100,-1.155,-2.86
10:20:21.104,-1.155,-2.845
10:20:21.108,-1.17,-2.835
10:20:21.112,-1.155,-2.835
10:20:21.116,-1.085,-2.815
10:20:21.120,-0.97,-2.8
10:20:21.124,-0.875,-2.78
10:20:21.128,-0.805,-2.77
10:20:21.132,-0.795,-2.75
10:20:21.136,-0.825,-2.71
10:20:21.140,-0.85,-2.705
10:20:21.144,-0.86,-2.69
10:20:21.148,-0.825,-2.71
10:20:21.152,-0.78,-2.715
10:20:21.156,-0.78,-2.72
10:20:21.160,-0.77,-2.74
10:20:21.164,-0.745,-2.735
10:20:21.168,-0.78,-2.735
10:20:21.172,-0.8,-2.745
10:20:21.176,-0.865,-2.77
10:20:21.180,-0.93,-2.785
10:20:21.184,-0.98,-2.825
10:20:21.188,-0.97,-2.83
10:20:21.192,-0.92,-2.825
10:20:21.196,-0.91,-2.835
10:20:21.200,-0.95,-2.845
10:20:21.204,-1.015,-2.87
10:20:21.208,-1.01,-2.875
10:20:21.212,-0.985,-2.87
10:20:21.216,-0.975,-2.865
10:20:21.220,-0.975,-2.84
10:20:21.224,-1.02,-2.855
10:20:21.228,-1.015,-2.86
10:20:21.232,-1.005,-2.83
10:20:21.236,-0.995,-2.84
10:20:21.240,-0.995,-2.84
10:20:21.244,-1.05,-2.845
10:20:21.248,-1.135,-2.82
10:20:21.252,-1.145,-2.81
10:20:21.256,-1.1,-2.83
10:20:21.260,-1.07,-2.835
10:20:21.264,-1.12,-2.83
10:20:21.268,-1.175,-2.83
10:20:21.272,-1.21,-2.835
10:20:21.276,-1.2,-2.83
10:20:21.280,-1.165,-2.86
10:20:21.284,-1.14,-2.85
10:20:21.288,-1.1,-2.88
10:20:21.292,-1.07,-2.875
10:20:21.296,-1.06,-2.875
10:20:21.300,-1.07,-2.845
10:20:21.304,-1.075,-2.82
10:20:21.308,-1.075,-2.78
10:20:21.312,-1.08,-2.745
10:20:21.316,-1.04,-2.72
10:20:21.320,-1.005,-2.72
10:20:21.324,-1.01,-2.73
10:20:21.328,-0.98,-2.69
10:20:21.332,-0.965,-2.695
10:20:21.336,-0.93,-2.67
10:20:21.340,-0.85,-2.635
10:20:21.344,-0.725,-2.605
10:20:21.348,-0.535,-2.555
10:20:21.352,-0.34,-2.49
10:20:21.356,-0.305,-2.46
10:20:21.360,-0.425,-2.375
10:20:21.364,-0.67,-2.275
10:20:21.368,-1.075,-2.285
10:20:21.372,-1.575,-2.35
10:20:21.376,-1.99,-2.665
10:20:21.380,-2.285,-3.025
10:20:21.384,-2.415,-3.425
10:20:21.388,-2.345,-3.855
10:20:21.392,-2.19,-4.21
10:20:21.396,-2.095,-4.415
10:20:21.400,-2.1,-4.55
10:20:21.404,-2.11,-4.635
10:20:21.408,-2.06,-4.665
10:20:21.412,-2.02,-4.695
10:20:21.416,-2.02,-4.695
10:20:21.420,-1.985,-4.695
10:20:21.424,-1.89,-4.68
10:20:21.428,-1.73,-4.67
10:20:21.432,-1.615,-4.65
10:20:21.436,-1.505,-4.63
10:20:21.440,-1.37,-4.615
10:20:21.444,-1.24,-4.58
10:20:21.448,-1.165,-4.515
10:20:21.452,-1.16,-4.46
10:20:21.456,-1.18,-4.365
10:20:21.460,-1.17,-4.24
10:20:21.464,-1.15,-4.07
10:20:21.468,-1.065,-3.85
10:20:21.472,-0.995,-3.62
10:20:21.476,-0.94,-3.41
10:20:21.480,-0.865,-3.225
10:20:21.484,-0.815,-3.035
10:20:21.488,-0.76,-2.865
10:20:21.492,-0.715,-2.655
10:20:21.496,-0.725,-2.46
10:20:21.500,-0.715,-2.255
10:20:21.504,-0.695,-2.055
10:20:21.508,-0.63,-1.87
10:20:21.512,-0.57,-1.78
10:20:21.516,-0.535,-1.725
10:20:21.520,-0.52,-1.66
10:20:21.524,-0.49,-1.625
10:20:21.528,-0.49,-1.525
10:20:21.532,-0.475,-1.45
10:20:21.536,-0.45,-1.4
10:20:21.540,-0.4,-1.36
10:20:21.544,-0.37,-1.29
10:20:21.548,-0.355,-1.21
10:20:21.552,-0.34,-1.095
10:20:21.556,-0.3,-1.005
10:20:21.560,-0.225,-0.895
10:20:21.564,-0.18,-0.8
10:20:21.568,-0.115,-0.68
10:20:21.572,-0.05,-0.625
10:20:21.576,0.015,-0.52
10:20:21.580,0.045,-0.455
10:20:21.584,0.07,-0.41
10:20:21.588,0.115,-0.29
10:20:21.592,0.125,-0.14
10:20:21.596,0.145,-0.075
10:20:21.600,0.25,-0.095
10:20:21.604,0.275,-0.08
10:20:21.608,0.14,-0.005
10:20:21.612,0.065,0.06
10:20:21.616,0.065,0.14
10:20:21.620,0.11,0.17
10:20:21.624,0.135,0.2
10:20:21.628,0.14,0.23
10:20:21.632,0.19,0.25
10:20:21.636,0.155,0.275
10:20:21.640,0.15,0.385
10:20:21.644,0.15,0.525
10:20:21.648,0.115,0.635
10:20:21.652,0.1,0.65
10:20:21.656,0.075,0.645
10:20:21.660,0.09,0.7
10:20:21.664,0.1,0.75
10:20:21.668,0.15,0.785
10:20:21.672,0.18,0.84
10:20:21.676,0.175,0.78
10:20:21.680,0.145,0.8
10:20:21.684,0.135,0.815
10:20:21.688,0.125,0.83
10:20:21.692,0.105,0.84
10:20:21.696,0.09,0.905
10:20:21.700,0.055,0.99
10:20:21.704,0.02,1.03
10:20:21.708,-0.05,0.995
10:20:21.712,-0.105,0.945
10:20:21.716,-0.085,0.88
10:20:21.720,-0.095,0.84
10:20:21.724,-0.125,0.815
10:20:21.728,-0.17,0.78
10:20:21.732,-0.18,0.74
10:20:21.736,-0.165,0.765
10:20:21.740,-0.115,0.815
10:20:21.744,-0.14,0.735
10:20:21.748,-0.19,0.635
10:20:21.752,-0.17,0.63
10:20:21.756,-0.145,0.645
10:20:21.760,-0.115,0.62
10:20:21.764,-0.115,0.605
10:20:21.768,-0.115,0.675
10:20:21.772,-0.115,0.665
10:20:21.776,-0.11,0.64
10:20:21.780,-0.115,0.63
10:20:21.784,-0.08,0.66
10:20:21.788,-0.045,0.64
10:20:21.792,0.025,0.645
10:20:21.796,0.105,0.675
10:20:21.800,0.15,0.7
10:20:21.804,0.155,0.72
10:20:21.808,0.135,0.71
10:20:21.812,0.115,0.73
10:20:21.816,0.12,0.74
10:20:21.820,0.105,0.73
10:20:21.824,0.11,0.765
10:20:21.828,0.11,0.755
10:20:21.832,0.08,0.755
10:20:21.836,0.09,0.74
10:20:21.840,0.08,0.74
10:20:21.844,0.11,0.75
10:20:21.848,0.11,0.755
10:20:21.852,0.14,0.815
10:20:21.856,0.16,0.865
10:20:21.860,0.11,0.895
10:20:21.864,0.045,0.87
10:20:21.868,0.02,0.81
10:20:21.872,0.005,0.825
10:20:21.876,0.005,0.845
10:20:21.880,0.06,0.89
10:20:21.884,0.11,0.88
10:20:21.888,0.235,0.885
10:20:21.892,0.37,0.9
10:20:21.896,0.475,0.985
10:20:21.900,0.46,1.005
10:20:21.904,0.29,1.045
10:20:21.908,-0.04,1.12
10:20:21.912,-0.44,1.14
10:20:21.916,-0.755,0.975
10:20:21.920,-0.96,0.71
10:20:21.924,-0.97,0.19
10:20:21.928,-0.83,-0.46
10:20:21.932,-0.67,-1.25
10:20:21.936,-0.57,-2.005
10:20:21.940,-0.59,-2.585
10:20:21.944,-0.645,-3.0
10:20:21.948,-0.65,-3.265
10:20:21.952,-0.62,-3.36
10:20:21.956,-0.565,-3.265
10:20:21.960,-0.465,-3.04
10:20:21.964,-0.26,-2.905
10:20:21.968,-0.135,-2.81
10:20:21.972,-0.09,-2.7
10:20:21.976,-0.05,-2.575
10:20:21.980,0.02,-2.335
10:20:21.984,0.055,-1.975
10:20:21.988,0.03,-1.605
10:20:21.992,-0.015,-1.2
10:20:21.996,-0.08,-0.745
10:20:22.000,-0.08,-0.26
10:20:22.004,-0.02,0.17
10:20:22.008,0.07,0.56
10:20:22.012,0.195,0.89
10:20:22.016,0.29,1.115
10:20:22.020,0.34,1.375
10:20:22.024,0.375,1.575
10:20:22.028,0.4,1.74
10:20:22.032,0.405,1.895
10:20:22.036,0.395,2.08
10:20:22.040,0.395,2.245
10:20:22.044,0.405,2.36
10:20:22.048,0.4,2.4
10:20:22.052,0.4,2.41
10:20:22.056,0.41,2.43
10:20:22.060,0.42,2.44
10:20:22.064,0.43,2.455
10:20:22.068,0.45,2.43
10:20:22.072,0.44,2.445
10:20:22.076,0.465,2.45
10:20:22.080,0.475,2.47
10:20:22.084,0.465,2.505
10:20:22.088,0.475,2.5
10:20:22.092,0.48,2.54
10:20:22.096,0.505,2.55
10:20:22.100,0.525,2.55
10:20:22.104,0.55,2.57
10:20:22.108,0.54,2.585
10:20:22.112,0.535,2.61
10:20:22.116,0.55,2.605
10:20:22.120,0.57,2.635
10:20:22.124,0.555,2.675
10:20:22.128,0.555,2.69
10:20:22.132,0.59,2.725
10:20:22.136,0.59,2.77
10:20:22.140,0.55,2.78
10:20:22.144,0.54,2.79
10:20:22.148,0.555,2.79
10:20:22.152,0.575,2.785
10:20:22.156,0.57,2.79
10:20:22.160,0.58,2.79
10:20:22.164,0.565,2.795
10:20:22.168,0.55,2.835
10:20:22.172,0.575,2.835
10:20:22.176,0.575,2.835
10:20:22.180,0.55,2.83
10:20:22.184,0.55,2.835
10:20:22.188,0.51,2.835
10:20:22.192,0.5,2.815
10:20:22.196,0.51,2.81
10:20:22.200,0.535,2.81
10:20:22.204,0.515,2.8
10:20:22.208,0.51,2.79
10:20:22.212,0.47,2.735
10:20:22.216,0.46,2.725
10:20:22.220,0.44,2.695
10:20:22.224,0.435,2.65
10:20:22.228,0.46,2.635
10:20:22.232,0.47,2.595
10:20:22.236,0.525,2.555
10:20:22.240,0.53,2.51
10:20:22.244,0.545,2.465
10:20:22.248,0.545,2.435
10:20:22.252,0.485,2.41
10:20:22.256,0.485,2.37
10:20:22.260,0.47,2.34
10:20:22.264,0.47,2.315
10:20:22.268,0.475,2.31
10:20:22.272,0.45,2.27
10:20:22.276,0.45,2.25
10:20:22.280,0.45,2.24
10:20:22.284,0.45,2.185
10:20:22.288,0.475,2.195
10:20:22.292,0.47,2.18
10:20:22.296,0.43,2.17
10:20:22.300,0.425,2.19
10:20:22.304,0.405,2.19
10:20:22.308,0.385,2.165
10:20:22.312,0.42,2.16
10:20:22.316,0.41,2.165
10:20:22.320,0.38,2.17
10:20:22.324,0.39,2.16
10:20:22.328,0.395,2.17
10:20:22.332,0.405,2.16
10:20:22.336,0.4,2.135
10:20:22.340,0.355,2.15
10:20:22.344,0.365,2.14
10:20:22.348,0.325,2.15
10:20:22.352,0.305,2.135
10:20:22.356,0.31,2.145
10:20:22.360,0.32,2.15
10:20:22.364,0.315,2.15
10:20:22.368,0.31,2.135
10:20:22.372,0.275,2.095
10:20:22.376,0.27,2.115
10:20:22.380,0.255,2.12
10:20:22.384,0.285,2.13
10:20:22.388,0.275,2.1
10:20:22.392,0.295,2.095
10:20:22.396,0.315,2.1
10:20:22.400,0.315,2.095
10:20:22.404,0.31,2.08
10:20:22.408,0.33,2.09
10:20:22.412,0.345,2.11
10:20:22.416,0.33,2.105
10:20:22.420,0.36,2.14
10:20:22.424,0.35,2.17
10:20:22.428,0.36,2.17
10:20:22.432,0.34,2.195
10:20:22.436,0.38,2.205
10:20:22.440,0.42,2.215
10:20:22.444,0.505,2.23
10:20:22.448,0.57,2.215
10:20:22.452,0.625,2.245
10:20:22.456,0.6,2.225
10:20:22.460,0.555,2.24
10:20:22.464,0.58,2.245
10:20:22.468,0.61,2.24
10:20:22.472,0.615,2.26
10:20:22.476,0.62,2.27
10:20:22.480,0.62,2.29
10:20:22.484,0.63,2.23
10:20:22.488,0.65,2.21
10:20:22.492,0.645,2.195
10:20:22.496,0.585,2.165
10:20:22.500,0.5,2.175
10:20:22.504,0.435,2.165
10:20:22.508,0.41,2.18
10:20:22.512,0.35,2.16
10:20:22.516,0.34,2.18
10:20:22.520,0.33,2.2
10:20:22.524,0.345,2.165
10:20:22.528,0.36,2.155
10:20:22.532,0.37,2.145
10:20:22.536,0.375,2.15
10:20:22.540,0.375,2.13
10:20:22.544,0.35,2.14
10:20:22.548,0.35,2.145
10:20:22.552,0.335,2.11
10:20:22.556,0.335,2.14
10:20:22.560,0.31,2.12
10:20:22.564,0.305,2.135
10:20:22.568,0.275,2.13
10:20:22.572,0.265,2.135
10:20:22.576,0.275,2.13
10:20:22.580,0.25,2.09
10:20:22.584,0.24,2.115
10:20:22.588,0.255,2.09
10:20:22.592,0.27,2.07
10:20:22.596,0.28,2.07
10:20:22.600,0.35,2.06
10:20:22.604,0.465,2.065
10:20:22.608,0.515,2.075
10:20:22.612,0.47,2.11
10:20:22.616,0.33,2.16
10:20:22.620,0.035,2.25
10:20:22.624,-0.37,2.22
10:20:22.628,-0.745,2.005
10:20:22.632,-1.025,1.705
10:20:22.636,-1.16,1.27
10:20:22.640,-1.12,0.645
10:20:22.644,-0.91,-0.08
10:20:22.648,-0.715,-0.81
10:20:22.652,-0.68,-1.5
10:20:22.656,-0.76,-2.01
10:20:22.660,-0.7,-2.34
10:20:22.664,-0.51,-2.44
10:20:22.668,-0.345,-2.32
10:20:22.672,-0.265,-2.11
10:20:22.676,-0.125,-1.94
10:20:22.680,0.03,-1.845
10:20:22.684,0.11,-1.74
10:20:22.688,0.17,-1.62
10:20:22.692,0.23,-1.47
10:20:22.696,0.36,-1.195
10:20:22.700,0.375,-0.845
10:20:22.704,0.4,-0.51
10:20:22.708,0.36,-0.145
10:20:22.712,0.37,0.25
10:20:22.716,0.395,0.675
10:20:22.720,0.455,1.025
10:20:22.724,0.495,1.325
10:20:22.728,0.525,1.595
10:20:22.732,0.53,1.77
10:20:22.736,0.545,1.925
10:20:22.740,0.56,2.055
10:20:22.744,0.56,2.2
10:20:22.748,0.6,2.3
10:20:22.752,0.615,2.415
10:20:22.756,0.595,2.53
10:20:22.760,0.62,2.595
10:20:22.764,0.625,2.635
10:20:22.768,0.635,2.655
10:20:22.772,0.635,2.675
10:20:22.776,0.645,2.72
10:20:22.780,0.675,2.74
10:20:22.784,0.69,2.76
10:20:22.788,0.7,2.74
10:20:22.792,0.71,2.72
10:20:22.796,0.715,2.74
10:20:22.800,0.7,2.76
10:20:22.804,0.74,2.78
10:20:22.808,0.705,2.79
10:20:22.812,0.7,2.815
10:20:22.816,0.66,2.84
10:20:22.820,0.595,2.86
10:20:22.824,0.645,2.86
10:20:22.828,0.69,2.875
10:20:22.832,0.73,2.895
10:20:22.836,0.755,2.92
10:20:22.840,0.745,2.94
10:20:22.844,0.77,2.99
10:20:22.848,0.83,3.02
10:20:22.852,0.815,3.035
10:20:22.856,0.81,3.065
10:20:22.860,0.805,3.08
10:20:22.864,0.835,3.105
10:20:22.868,0.875,3.15
10:20:22.872,0.935,3.16
10:20:22.876,1.015,3.185
10:20:22.880,1.09,3.185
10:20:22.884,1.075,3.215
10:20:22.888,1.025,3.235
10:20:22.892,0.995,3.255
10:20:22.896,1.05,3.25
10:20:22.900,1.03,3.26
10:20:22.904,1.05,3.24
10:20:22.908,1.02,3.24
10:20:22.912,0.92,3.22
10:20:22.916,0.86,3.17
10:20:22.920,0.85,3.15
10:20:22.924,0.86,3.09
10:20:22.928,0.83,3.065
10:20:22.932,0.785,3.03
10:20:22.936,0.745,2.995
10:20:22.940,0.72,2.935
10:20:22.944,0.69,2.9
10:20:22.948,0.65,2.835
10:20:22.952,0.65,2.795
10:20:22.956,0.645,2.75
10:20:22.960,0.635,2.675
10:20:22.964,0.615,2.63
10:20:22.968,0.62,2.595
10:20:22.972,0.615,2.56
10:20:22.976,0.565,2.535
10:20:22.980,0.56,2.495
10:20:22.984,0.55,2.44
10:20:22.988,0.51,2.41
10:20:22.992,0.5,2.36
10:20:22.996,0.495,2.265
10:20:23.000,0.465,2.19
10:20:23.004,0.465,2.16
10:20:23.008,0.49,2.14
10:20:23.012,0.465,2.09
10:20:23.016,0.425,2.095
10:20:23.020,0.37,2.07
10:20:23.024,0.35,2.075
10:20:23.028,0.325,2.07
10:20:23.032,0.34,2.07
10:20:23.036,0.365,2.055
10:20:23.040,0.415,2.03
10:20:23.044,0.44,2.01
10:20:23.048,0.42,1.98
10:20:23.052,0.355,1.97
10:20:23.056,0.33,1.99
10:20:23.060,0.32,2.02
10:20:23.064,0.325,2.005
10:20:23.068,0.34,2.025
10:20:23.072,0.34,2.045
10:20:23.076,0.385,2.05
10:20:23.080,0.42,2.065
10:20:23.084,0.47,2.065
10:20:23.088,0.51,2.095
10:20:23.092,0.53,2.035
10:20:23.096,0.545,2.045
10:20:23.100,0.58,2.01
10:20:23.104,0.6,1.995
10:20:23.108,0.62,2.02
10:20:23.112,0.615,1.995
10:20:23.116,0.625,2.0
10:20:23.120,0.63,1.97
10:20:23.124,0.65,1.98
10:20:23.128,0.655,1.97
10:20:23.132,0.65,1.94
10:20:23.136,0.63,1.94
10:20:23.140,0.635,1.94
10:20:23.144,0.63,1.92
10:20:23.148,0.585,1.925
10:20:23.152,0.61,1.92
10:20:23.156,0.605,1.915
10:20:23.160,0.61,1.92
10:20:23.164,0.585,1.9
10:20:23.168,0.53,1.905
10:20:23.172,0.47,1.89
10:20:23.176,0.45,1.86
10:20:23.180,0.48,1.87
10:20:23.184,0.49,1.855
10:20:23.188,0.505,1.835
10:20:23.192,0.46,1.83
10:20:23.196,0.475,1.825
10:20:23.200,0.46,1.83
10:20:23.204,0.44,1.81
10:20:23.208,0.42,1.8
10:20:23.212,0.375,1.79
10:20:23.216,0.38,1.76
10:20:23.220,0.365,1.77
10:20:23.224,0.385,1.77
10:20:23.228,0.365,1.76
10:20:23.232,0.35,1.725
10:20:23.236,0.325,1.735
10:20:23.240,0.325,1.735
10:20:23.244,0.325,1.725
10:20:23.248,0.275,1.71
10:20:23.252,0.275,1.65
10:20:23.256,0.3,1.66
10:20:23.260,0.315,1.66
10:20:23.264,0.295,1.65
10:20:23.268,0.295,1.635
10:20:23.272,0.285,1.63
10:20:23.276,0.305,1.635
10:20:23.280,0.3,1.645
10:20:23.284,0.34,1.665
10:20:23.288,0.35,1.675
10:20:23.292,0.33,1.68
10:20:23.296,0.32,1.675
10:20:23.300,0.34,1.675
10:20:23.304,0.345,1.67
10:20:23.308,0.41,1.675
10:20:23.312,0.465,1.65
10:20:23.316,0.535,1.66
10:20:23.320,0.575,1.65
10:20:23.324,0.56,1.66
10:20:23.328,0.585,1.67
10:20:23.332,0.58,1.655
10:20:23.336,0.545,1.635
10:20:23.340,0.515,1.66
10:20:23.344,0.515,1.645
10:20:23.348,0.525,1.62
10:20:23.352,0.54,1.62
10:20:23.356,0.5,1.64
10:20:23.360,0.49,1.63
10:20:23.364,0.5,1.605
10:20:23.368,0.495,1.595
10:20:23.372,0.47,1.61
10:20:23.376,0.45,1.6
10:20:23.380,0.435,1.61
10:20:23.384,0.43,1.595
10:20:23.388,0.415,1.595
10:20:23.392,0.405,1.585
10:20:23.396,0.395,1.56
10:20:23.400,0.4,1.565
10:20:23.404,0.41,1.57
10:20:23.408,0.39,1.545
10:20:23.412,0.39,1.535
10:20:23.416,0.39,1.545
10:20:23.420,0.4,1.55
10:20:23.424,0.36,1.55
10:20:23.428,0.33,1.535
10:20:23.432,0.32,1.525
10:20:23.436,0.315,1.505
10:20:23.440,0.32,1.53
10:20:23.444,0.325,1.53
10:20:23.448,0.335,1.51
10:20:23.452,0.305,1.48
10:20:23.456,0.3,1.495
10:20:23.460,0.225,1.485
10:20:23.464,0.185,1.47
10:20:23.468,0.16,1.485
10:20:23.472,0.21,1.45
10:20:23.476,0.22,1.455
10:20:23.480,0.225,1.435
10:20:23.484,0.23,1.45
10:20:23.488,0.245,1.44
10:20:23.492,0.255,1.47
10:20:23.496,0.265,1.48
10:20:23.500,0.29,1.505
10:20:23.504,0.29,1.53
10:20:23.508,0.31,1.53
10:20:23.512,0.275,1.535
10:20:23.516,0.27,1.555
10:20:23.520,0.265,1.575
10:20:23.524,0.305,1.57
10:20:23.528,0.345,1.56
10:20:23.532,0.435,1.55
10:20:23.536,0.46,1.55
10:20:23.540,0.505,1.565
10:20:23.544,0.49,1.56
10:20:23.548,0.475,1.555
10:20:23.552,0.46,1.555
10:20:23.556,0.475,1.55
10:20:23.560,0.47,1.53
10:20:23.564,0.475,1.53
10:20:23.568,0.48,1.53
10:20:23.572,0.48,1.505
10:20:23.576,0.48,1.5
10:20:23.580,0.46,1.49
10:20:23.584,0.47,1.48
10:20:23.588,0.45,1.5
10:20:23.592,0.42,1.48
10:20:23.596,0.405,1.47
10:20:23.600,0.38,1.445
10:20:23.604,0.38,1.47
10:20:23.608,0.375,1.465
10:20:23.612,0.36,1.44
10:20:23.616,0.36,1.44
10:20:23.620,0.37,1.44
10:20:23.624,0.36,1.425
10:20:23.628,0.335,1.405
10:20:23.632,0.335,1.425
10:20:23.636,0.31,1.41
10:20:23.640,0.305,1.425
10:20:23.644,0.315,1.41
10:20:23.648,0.305,1.395
10:20:23.652,0.265,1.41
10:20:23.656,0.265,1.395
10:20:23.660,0.245,1.415
10:20:23.664,0.245,1.395
10:20:23.668,0.25,1.41
10:20:23.672,0.23,1.375
10:20:23.676,0.22,1.37
10:20:23.680,0.175,1.395
10:20:23.684,0.18,1.38
10:20:23.688,0.165,1.35
10:20:23.692,0.185,1.35
10:20:23.696,0.235,1.33
10:20:23.700,0.24,1.34
10:20:23.704,0.235,1.34
10:20:23.708,0.235,1.325
10:20:23.712,0.225,1.355
10:20:23.716,0.23,1.39
10:20:23.720,0.26,1.385
10:20:23.724,0.275,1.43
10:20:23.728,0.245,1.425
10:20:23.732,0.245,1.435
10:20:23.736,0.255,1.43
10:20:23.740,0.27,1.43
10:20:23.744,0.285,1.43
10:20:23.748,0.35,1.425
10:20:23.752,0.425,1.43
10:20:23.756,0.47,1.435
10:20:23.760,0.48,1.455
10:20:23.764,0.48,1.465
10:20:23.768,0.475,1.465
10:20:23.772,0.49,1.46
10:20:23.776,0.5,1.45
10:20:23.780,0.47,1.46
10:20:23.784,0.435,1.425
10:20:23.788,0.425,1.4
10:20:23.792,0.425,1.395
10:20:23.796,0.445,1.385
10:20:23.800,0.415,1.37
10:20:23.804,0.43,1.385
10:20:23.808,0.425,1.385
10:20:23.812,0.445,1.37
10:20:23.816,0.52,1.4
10:20:23.820,0.635,1.38
10:20:23.824,0.665,1.375
10:20:23.828,0.6,1.42
10:20:23.832,0.445,1.455
10:20:23.836,0.16,1.535
10:20:23.840,-0.28,1.535
10:20:23.844,-0.715,1.295
10:20:23.848,-1.005,0.96
10:20:23.852,-1.15,0.505
10:20:23.856,-1.13,-0.105
10:20:23.860,-0.965,-0.84
10:20:23.864,-0.82,-1.555
10:20:23.868,-0.775,-2.235
10:20:23.872,-0.89,-2.845
10:20:23.876,-0.955,-3.195
10:20:23.880,-0.885,-3.395
10:20:23.884,-0.825,-3.45
10:20:23.888,-0.825,-3.36
10:20:23.892,-0.835,-3.235
10:20:23.896,-0.725,-3.13
10:20:23.900,-0.63,-3.06
10:20:23.904,-0.56,-3.02
10:20:23.908,-0.47,-2.965
10:20:23.912,-0.36,-2.81
10:20:23.916,-0.21,-2.605
10:20:23.920,-0.165,-2.36
10:20:23.924,-0.185,-2.06
10:20:23.928,-0.165,-1.72
10:20:23.932,-0.145,-1.29
10:20:23.936,-0.115,-0.82
10:20:23.940,-0.07,-0.405
10:20:23.944,0.025,0.005
10:20:23.948,0.15,0.33
10:20:23.952,0.245,0.645
10:20:23.956,0.24,0.91
10:20:23.960,0.225,1.085
10:20:23.964,0.255,1.265
10:20:23.968,0.3,1.41
10:20:23.972,0.315,1.52
10:20:23.976,0.36,1.665
10:20:23.980,0.42,1.785
10:20:23.984,0.445,1.87
10:20:23.988,0.46,1.905
10:20:23.992,0.51,1.945
10:20:23.996,0.51,1.94
10:20:24.000,0.485,1.965
10:20:24.004,0.47,1.965
10:20:24.008,0.48,1.965
10:20:24.012,0.505,1.945
10:20:24.016,0.545,1.96
10:20:24.020,0.56,1.955
10:20:24.024,0.58,1.98
10:20:24.028,0.535,1.99
10:20:24.032,0.525,1.995
10:20:24.036,0.515,2.025
10:20:24.040,0.525,2.03
10:20:24.044,0.525,2.02
10:20:24.048,0.515,2.045
10:20:24.052,0.51,2.02
10:20:24.056,0.525,2.045
10:20:24.060,0.52,2.085
10:20:24.064,0.53,2.085
10:20:24.068,0.53,2.105
10:20:24.072,0.52,2.135
10:20:24.076,0.515,2.165
10:20:24.080,0.515,2.18
10:20:24.084,0.53,2.205
10:20:24.088,0.515,2.225
10:20:24.092,0.51,2.245
10:20:24.096,0.53,2.25
10:20:24.100,0.54,2.285
10:20:24.104,0.555,2.31
10:20:24.108,0.57,2.325
10:20:24.112,0.55,2.33
10:20:24.116,0.535,2.355
10:20:24.120,0.495,2.38
10:20:24.124,0.445,2.36
10:20:24.128,0.4,2.365
10:20:24.132,0.37,2.365
10:20:24.136,0.395,2.36
10:20:24.140,0.42,2.33
10:20:24.144,0.39,2.305
10:20:24.148,0.38,2.29
10:20:24.152,0.34,2.25
10:20:24.156,0.285,2.24
10:20:24.160,0.205,2.21
10:20:24.164,0.18,2.16
10:20:24.168,0.19,2.14
10:20:24.172,0.18,2.12
10:20:24.176,0.17,2.06
10:20:24.180,0.135,2.0
10:20:24.184,0.11,1.94
10:20:24.188,0.1,1.9
10:20:24.192,0.11,1.835
10:20:24.196,0.13,1.79
10:20:24.200,0.135,1.72
10:20:24.204,0.17,1.65
10:20:24.208,0.155,1.65
10:20:24.212,0.155,1.615
10:20:24.216,0.155,1.54
10:20:24.220,0.135,1.485
10:20:24.224,0.115,1.435
10:20:24.228,0.075,1.415
10:20:24.232,0.075,1.385
10:20:24.236,0.075,1.35
10:20:24.240,0.055,1.31
10:20:24.244,0.035,1.265
10:20:24.248,0.045,1.24
10:20:24.252,0.04,1.24
10:20:24.256,0.01,1.24
10:20:24.260,-0.01,1.2
10:20:24.264,-0.06,1.17
10:20:24.268,-0.075,1.18
10:20:24.272,-0.11,1.18
10:20:24.276,-0.135,1.155
10:20:24.280,-0.11,1.15
10:20:24.284,-0.095,1.155
10:20:24.288,-0.115,1.175
10:20:24.292,-0.13,1.19
10:20:24.296,-0.13,1.2
10:20:24.300,-0.135,1.2
10:20:24.304,-0.14,1.2
10:20:24.308,-0.14,1.19
10:20:24.312,-0.175,1.175
10:20:24.316,-0.215,1.175
10:20:24.320,-0.21,1.19
10:20:24.324,-0.225,1.18
10:20:24.328,-0.24,1.185
10:20:24.332,-0.255,1.185
10:20:24.336,-0.275,1.185
10:20:24.340,-0.3,1.17
10:20:24.344,-0.32,1.185
10:20:24.348,-0.355,1.185
10:20:24.352,-0.35,1.175
10:20:24.356,-0.35,1.2
10:20:24.360,-0.35,1.18
10:20:24.364,-0.355,1.14
10:20:24.368,-0.325,1.125
10:20:24.372,-0.305,1.115
10:20:24.376,-0.315,1.105
10:20:24.380,-0.32,1.12
10:20:24.384,-0.335,1.135
10:20:24.388,-0.335,1.135
10:20:24.392,-0.33,1.145
10:20:24.396,-0.28,1.14
10:20:24.400,-0.27,1.125
10:20:24.404,-0.27,1.155
10:20:24.408,-0.305,1.125
10:20:24.412,-0.285,1.135
10:20:24.416,-0.275,1.11
10:20:24.420,-0.26,1.1
10:20:24.424,-0.205,1.095
10:20:24.428,-0.1,1.09
10:20:24.432,-0.005,1.125
10:20:24.436,0.115,1.11
10:20:24.440,0.185,1.06
10:20:24.444,0.175,1.07
10:20:24.448,0.065,1.115
10:20:24.452,-0.16,1.18
10:20:24.456,-0.525,1.18
10:20:24.460,-0.945,1.0
10:20:24.464,-1.32,0.69
10:20:24.468,-1.6,0.315
10:20:24.472,-1.715,-0.24
10:20:24.476,-1.67,-0.985
10:20:24.480,-1.565,-1.81
10:20:24.484,-1.5,-2.59
10:20:24.488,-1.515,-3.165
10:20:24.492,-1.525,-3.575
10:20:24.496,-1.505,-3.87
10:20:24.500,-1.48,-3.95
10:20:24.504,-1.495,-3.865
10:20:24.508,-1.415,-3.76
10:20:24.512,-1.275,-3.635
10:20:24.516,-1.15,-3.54
10:20:24.520,-1.12,-3.55
10:20:24.524,-1.075,-3.535
10:20:24.528,-0.97,-3.42
10:20:24.532,-0.855,-3.22
10:20:24.536,-0.815,-2.95
10:20:24.540,-0.8,-2.65
10:20:24.544,-0.825,-2.255
10:20:24.548,-0.805,-1.78
10:20:24.552,-0.685,-1.335
10:20:24.556,-0.59,-0.92
10:20:24.560,-0.505,-0.545
10:20:24.564,-0.41,-0.21
10:20:24.568,-0.36,0.055
10:20:24.572,-0.33,0.29
10:20:24.576,-0.28,0.51
10:20:24.580,-0.225,0.655
10:20:24.584,-0.175,0.835
10:20:24.588,-0.16,1.015
10:20:24.592,-0.16,1.13
10:20:24.596,-0.145,1.25
10:20:24.600,-0.155,1.335
10:20:24.604,-0.12,1.37
10:20:24.608,-0.105,1.395
10:20:24.612,-0.06,1.425
10:20:24.616,-0.035,1.47
10:20:24.620,-0.015,1.49
10:20:24.624,-0.035,1.525
10:20:24.628,-0.01,1.515
10:20:24.632,0.005,1.545
10:20:24.636,0.05,1.58
10:20:24.640,0.085,1.59
10:20:24.644,0.135,1.62
10:20:24.648,0.22,1.63
10:20:24.652,0.275,1.655
10:20:24.656,0.315,1.675
10:20:24.660,0.31,1.695
10:20:24.664,0.33,1.71
10:20:24.668,0.335,1.71
10:20:24.672,0.345,1.72
10:20:24.676,0.34,1.715
10:20:24.680,0.34,1.715
10:20:24.684,0.38,1.735
10:20:24.688,0.405,1.735
10:20:24.692,0.39,1.75
10:20:24.696,0.395,1.765
10:20:24.700,0.38,1.79
10:20:24.704,0.375,1.79
10:20:24.708,0.35,1.8
10:20:24.712,0.365,1.81
10:20:24.716,0.355,1.815
10:20:24.720,0.355,1.83
10:20:24.724,0.355,1.815
10:20:24.728,0.335,1.845
10:20:24.732,0.315,1.83
10:20:24.736,0.31,1.855
10:20:24.740,0.275,1.845
10:20:24.744,0.275,1.84
10:20:24.748,0.245,1.825
10:20:24.752,0.215,1.835
10:20:24.756,0.185,1.8
10:20:24.760,0.135,1.77
10:20:24.764,0.12,1.745
10:20:24.768,0.08,1.725
10:20:24.772,0.025,1.67
10:20:24.776,-0.005,1.63
10:20:24.780,-0.04,1.585
10:20:24.784,-0.085,1.515
10:20:24.788,-0.12,1.465
10:20:24.792,-0.16,1.42
10:20:24.796,-0.155,1.365
10:20:24.800,-0.225,1.32
10:20:24.804,-0.25,1.245
10:20:24.808,-0.29,1.165
10:20:24.812,-0.285,1.095
10:20:24.816,-0.245,1.035
10:20:24.820,-0.24,1.01
10:20:24.824,-0.245,0.97
10:20:24.828,-0.255,0.96
10:20:24.832,-0.275,0.93
10:20:24.836,-0.275,0.915
10:20:24.840,-0.255,0.92
10:20:24.844,-0.22,0.915
10:20:24.848,-0.215,0.905
10:20:24.852,-0.215,0.915
10:20:24.856,-0.22,0.905
10:20:24.860,-0.205,0.905
10:20:24.864,-0.195,0.89
10:20:24.868,-0.17,0.875
10:20:24.872,-0.125,0.85
10:20:24.876,-0.095,0.85
10:20:24.880,-0.03,0.86
10:20:24.884,-0.025,0.875
10:20:24.888,0.0,0.89
10:20:24.892,-0.02,0.85
10:20:24.896,-0.005,0.86
10:20:24.900,-0.005,0.855
10:20:24.904,-0.01,0.83
10:20:24.908,-0.015,0.83
10:20:24.912,-0.02,0.79
10:20:24.916,-0.025,0.775
10:20:24.920,-0.01,0.765
10:20:24.924,-0.04,0.785
10:20:24.928,-0.06,0.77
10:20:24.932,-0.09,0.735
10:20:24.936,-0.105,0.695
10:20:24.940,-0.115,0.69
