Time,ECG1,ECG2
11:12:39.512,0.04,1.165
11:12:39.516,0.02,1.185
11:12:39.520,0.01,1.195
11:12:39.524,-0.02,1.21
11:12:39.528,-0.045,1.195
11:12:39.532,-0.07,1.16
11:12:39.536,-0.105,1.17
11:12:39.540,-0.11,1.15
11:12:39.544,-0.145,1.11
11:12:39.548,-0.16,1.08
11:12:39.552,-0.18,1.06
11:12:39.556,-0.195,1.03
11:12:39.560,-0.21,0.985
11:12:39.564,-0.24,0.95
11:12:39.568,-0.23,0.91
11:12:39.572,-0.275,0.865
11:12:39.576,-0.28,0.815
11:12:39.580,-0.335,0.74
11:12:39.584,-0.335,0.675
11:12:39.588,-0.325,0.615
11:12:39.592,-0.33,0.555
11:12:39.596,-0.315,0.505
11:12:39.600,-0.335,0.46
11:12:39.604,-0.32,0.4
11:12:39.608,-0.34,0.365
11:12:39.612,-0.325,0.31
11:12:39.616,-0.33,0.325
11:12:39.620,-0.34,0.26
11:12:39.624,-0.355,0.24
11:12:39.628,-0.36,0.22
11:12:39.632,-0.38,0.185
11:12:39.636,-0.345,0.17
11:12:39.640,-0.34,0.165
11:12:39.644,-0.325,0.17
11:12:39.648,-0.32,0.155
11:12:39.652,-0.31,0.145
11:12:39.656,-0.305,0.18
11:12:39.660,-0.29,0.195
11:12:39.664,-0.285,0.18
11:12:39.668,-0.275,0.2
11:12:39.672,-0.24,0.2
11:12:39.676,-0.215,0.23
11:12:39.680,-0.16,0.195
11:12:39.684,-0.115,0.23
11:12:39.688,-0.04,0.255
11:12:39.692,0.035,0.305
11:12:39.696,0.105,0.325
11:12:39.700,0.13,0.34
11:12:39.704,0.13,0.375
11:12:39.708,0.1,0.465
11:12:39.712,0.05,0.525
11:12:39.716,0.005,0.53
11:12:39.720,-0.035,0.48
11:12:39.724,-0.075,0.43
11:12:39.728,-0.095,0.405
11:12:39.732,-0.105,0.38
11:12:39.736,-0.09,0.355
11:12:39.740,-0.095,0.325
11:12:39.744,-0.145,0.295
11:12:39.748,-0.11,0.27
11:12:39.752,-0.06,0.295
11:12:39.756,0.045,0.27
11:12:39.760,0.2,0.24
11:12:39.764,0.31,0.195
11:12:39.768,0.255,0.15
11:12:39.772,0.085,0.105
11:12:39.776,-0.22,0.075
11:12:39.780,-0.715,-0.095
11:12:39.784,-1.16,-0.51
11:12:39.788,-1.44,-0.99
11:12:39.792,-1.525,-1.74
11:12:39.796,-1.6,-2.685
11:12:39.800,-1.55,-3.45
11:12:39.804,-1.565,-4.045
11:12:39.808,-1.605,-4.45
11:12:39.812,-1.565,-4.675
11:12:39.816,-1.455,-4.82
11:12:39.820,-1.315,-4.905
11:12:39.824,-1.22,-4.86
11:12:39.828,-1.165,-4.76
11:12:39.832,-1.08,-4.61
11:12:39.836,-1.065,-4.495
11:12:39.840,-1.115,-4.4
11:12:39.844,-1.075,-4.255
11:12:39.848,-0.97,-4.005
11:12:39.852,-0.85,-3.645
11:12:39.856,-0.825,-3.28
11:12:39.860,-0.76,-2.845
11:12:39.864,-0.66,-2.41
11:12:39.868,-0.495,-1.88
11:12:39.872,-0.325,-1.42
11:12:39.876,-0.205,-1.01
11:12:39.880,-0.16,-0.72
11:12:39.884,-0.095,-0.45
11:12:39.888,-0.06,-0.195
11:12:39.892,-0.01,0.055
11:12:39.896,0.055,0.235
11:12:39.900,0.1,0.4
11:12:39.904,0.18,0.545
11:12:39.908,0.225,0.66
11:12:39.912,0.275,0.735
11:12:39.916,0.3,0.81
11:12:39.920,0.275,0.89
11:12:39.924,0.235,0.915
11:12:39.928,0.195,0.92
11:12:39.932,0.17,0.9
11:12:39.936,0.17,0.91
11:12:39.940,0.13,0.86
11:12:39.944,0.13,0.835
11:12:39.948,0.12,0.82
11:12:39.952,0.12,0.815
11:12:39.956,0.105,0.805
11:12:39.960,0.11,0.81
11:12:39.964,0.12,0.8
11:12:39.968,0.12,0.815
11:12:39.972,0.105,0.8
11:12:39.976,0.105,0.805
11:12:39.980,0.06,0.775
11:12:39.984,0.045,0.795
11:12:39.988,0.06,0.745
11:12:39.992,0.05,0.735
11:12:39.996,0.07,0.77
11:12:40.000,0.065,0.805
11:12:40.004,0.075,0.845
11:12:40.008,0.06,0.89
11:12:40.012,0.025,0.88
11:12:40.016,0.035,0.885
11:12:40.020,0.03,0.895
11:12:40.024,0.035,0.935
11:12:40.028,0.035,0.925
11:12:40.032,0.035,0.92
11:12:40.036,0.035,0.93
11:12:40.040,0.065,0.955
11:12:40.044,0.05,1.0
11:12:40.048,0.03,1.02
11:12:40.052,0.04,1.05
11:12:40.056,0.025,1.05
11:12:40.060,0.01,1.06
11:12:40.064,0.01,1.035
11:12:40.068,0.015,1.09
11:12:40.072,0.025,1.095
11:12:40.076,0.035,1.115
11:12:40.080,0.035,1.15
11:12:40.084,0.055,1.16
11:12:40.088,0.045,1.155
11:12:40.092,0.075,1.135
11:12:40.096,0.07,1.175
11:12:40.100,0.115,1.17
11:12:40.104,0.16,1.175
11:12:40.108,0.18,1.15
11:12:40.112,0.17,1.12
11:12:40.116,0.17,1.13
11:12:40.120,0.165,1.12
11:12:40.124,0.14,1.07
11:12:40.128,0.065,1.0
11:12:40.132,0.03,0.93
11:12:40.136,-0.025,0.87
11:12:40.140,-0.015,0.795
11:12:40.144,-0.045,0.71
11:12:40.148,-0.065,0.635
11:12:40.152,-0.075,0.575
11:12:40.156,-0.11,0.555
11:12:40.160,-0.13,0.51
11:12:40.164,-0.145,0.47
11:12:40.168,-0.13,0.41
11:12:40.172,-0.135,0.375
11:12:40.176,-0.16,0.355
11:12:40.180,-0.2,0.32
11:12:40.184,-0.21,0.29
11:12:40.188,-0.21,0.285
11:12:40.192,-0.22,0.25
11:12:40.196,-0.24,0.21
11:12:40.200,-0.245,0.22
11:12:40.204,-0.225,0.185
11:12:40.208,-0.215,0.17
11:12:40.212,-0.215,0.175
11:12:40.216,-0.23,0.165
11:12:40.220,-0.235,0.16
11:12:40.224,-0.225,0.145
11:12:40.228,-0.24,0.15
11:12:40.232,-0.24,0.16
11:12:40.236,-0.235,0.14
11:12:40.240,-0.215,0.165
11:12:40.244,-0.215,0.13
11:12:40.248,-0.24,0.125
11:12:40.252,-0.23,0.115
11:12:40.256,-0.21,0.1
11:12:40.260,-0.195,0.115
11:12:40.264,-0.195,0.115
11:12:40.268,-0.195,0.12
11:12:40.272,-0.2,0.135
11:12:40.276,-0.16,0.17
11:12:40.280,-0.17,0.165
11:12:40.284,-0.15,0.165
11:12:40.288,-0.115,0.145
11:12:40.292,-0.09,0.125
11:12:40.296,-0.08,0.11
11:12:40.300,-0.05,0.12
11:12:40.304,-0.025,0.19
11:12:40.308,0.045,0.22
11:12:40.312,0.1,0.215
11:12:40.316,0.13,0.215
11:12:40.320,0.15,0.25
11:12:40.324,0.195,0.265
11:12:40.328,0.205,0.27
11:12:40.332,0.18,0.31
11:12:40.336,0.135,0.345
11:12:40.340,0.07,0.345
11:12:40.344,0.025,0.36
11:12:40.348,0.015,0.305
11:12:40.352,-0.005,0.225
11:12:40.356,0.005,0.215
11:12:40.360,0.01,0.19
11:12:40.364,-0.01,0.19
11:12:40.368,0.065,0.15
11:12:40.372,0.175,0.115
11:12:40.376,0.295,0.085
11:12:40.380,0.33,0.11
11:12:40.384,0.215,0.175
11:12:40.388,0.01,0.22
11:12:40.392,-0.405,0.19
11:12:40.396,-0.89,-0.075
11:12:40.400,-1.32,-0.575
11:12:40.404,-1.655,-1.165
11:12:40.408,-1.875,-2.05
11:12:40.412,-1.94,-2.97
11:12:40.416,-1.88,-3.71
11:12:40.420,-1.815,-4.265
11:12:40.424,-1.82,-4.67
11:12:40.428,-1.805,-4.925
11:12:40.432,-1.755,-5.065
11:12:40.436,-1.66,-5.115
11:12:40.440,-1.615,-5.015
11:12:40.444,-1.6,-4.87
11:12:40.448,-1.56,-4.74
11:12:40.452,-1.52,-4.605
11:12:40.456,-1.52,-4.52
11:12:40.460,-1.535,-4.47
11:12:40.464,-1.46,-4.325
11:12:40.468,-1.31,-4.095
11:12:40.472,-1.145,-3.795
11:12:40.476,-1.0,-3.47
11:12:40.480,-0.885,-3.12
11:12:40.484,-0.79,-2.72
11:12:40.488,-0.695,-2.27
11:12:40.492,-0.53,-1.825
11:12:40.496,-0.385,-1.405
11:12:40.500,-0.245,-1.06
11:12:40.504,-0.1,-0.81
11:12:40.508,-0.02,-0.55
11:12:40.512,0.02,-0.36
11:12:40.516,0.07,-0.165
11:12:40.520,0.15,0.035
11:12:40.524,0.2,0.22
11:12:40.528,0.235,0.36
11:12:40.532,0.29,0.51
11:12:40.536,0.325,0.665
11:12:40.540,0.355,0.75
11:12:40.544,0.335,0.815
11:12:40.548,0.37,0.835
11:12:40.552,0.41,0.85
11:12:40.556,0.445,0.875
11:12:40.560,0.515,0.92
11:12:40.564,0.55,0.94
11:12:40.568,0.54,0.98
11:12:40.572,0.5,1.03
11:12:40.576,0.475,1.075
11:12:40.580,0.46,1.105
11:12:40.584,0.435,1.095
11:12:40.588,0.44,1.08
11:12:40.592,0.45,1.03
11:12:40.596,0.435,1.04
11:12:40.600,0.44,1.035
11:12:40.604,0.435,1.02
11:12:40.608,0.4,0.995
11:12:40.612,0.4,1.025
11:12:40.616,0.4,1.005
11:12:40.620,0.395,1.02
11:12:40.624,0.41,1.025
11:12:40.628,0.395,1.025
11:12:40.632,0.37,1.045
11:12:40.636,0.37,1.06
11:12:40.640,0.375,1.085
11:12:40.644,0.385,1.115
11:12:40.648,0.4,1.12
11:12:40.652,0.385,1.085
11:12:40.656,0.42,1.09
11:12:40.660,0.42,1.13
11:12:40.664,0.425,1.175
11:12:40.668,0.445,1.2
11:12:40.672,0.415,1.21
11:12:40.676,0.425,1.22
11:12:40.680,0.385,1.24
11:12:40.684,0.39,1.255
11:12:40.688,0.4,1.285
11:12:40.692,0.41,1.31
11:12:40.696,0.41,1.345
11:12:40.700,0.45,1.345
11:12:40.704,0.4,1.325
11:12:40.708,0.41,1.315
11:12:40.712,0.395,1.32
11:12:40.716,0.355,1.32
11:12:40.720,0.32,1.32
11:12:40.724,0.29,1.315
11:12:40.728,0.26,1.3
11:12:40.732,0.235,1.245
11:12:40.736,0.205,1.19
11:12:40.740,0.18,1.12
11:12:40.744,0.17,1.075
11:12:40.748,0.145,1.04
11:12:40.752,0.135,1.005
11:12:40.756,0.135,0.955
11:12:40.760,0.125,0.91
11:12:40.764,0.17,0.835
11:12:40.768,0.195,0.8
11:12:40.772,0.195,0.735
11:12:40.776,0.23,0.665
11:12:40.780,0.285,0.625
11:12:40.784,0.3,0.595
11:12:40.788,0.285,0.605
11:12:40.792,0.22,0.625
11:12:40.796,0.14,0.62
11:12:40.800,0.085,0.615
11:12:40.804,0.035,0.56
11:12:40.808,0.005,0.495
11:12:40.812,0.005,0.395
11:12:40.816,-0.005,0.355
11:12:40.820,-0.025,0.33
11:12:40.824,-0.025,0.305
11:12:40.828,-0.035,0.24
11:12:40.832,-0.06,0.25
11:12:40.836,-0.075,0.23
11:12:40.840,-0.09,0.175
11:12:40.844,-0.1,0.17
11:12:40.848,-0.14,0.19
11:12:40.852,-0.17,0.16
11:12:40.856,-0.19,0.15
11:12:40.860,-0.195,0.145
11:12:40.864,-0.195,0.11
11:12:40.868,-0.195,0.11
11:12:40.872,-0.185,0.075
11:12:40.876,-0.21,0.1
11:12:40.880,-0.215,0.095
11:12:40.884,-0.19,0.1
11:12:40.888,-0.235,0.12
11:12:40.892,-0.2,0.115
11:12:40.896,-0.215,0.12
11:12:40.900,-0.195,0.11
11:12:40.904,-0.205,0.085
11:12:40.908,-0.2,0.09
11:12:40.912,-0.2,0.1
11:12:40.916,-0.215,0.095
11:12:40.920,-0.19,0.095
11:12:40.924,-0.19,0.08
11:12:40.928,-0.19,0.09
11:12:40.932,-0.18,0.11
11:12:40.936,-0.195,0.105
11:12:40.940,-0.17,0.135
11:12:40.944,-0.16,0.135
11:12:40.948,-0.165,0.135
11:12:40.952,-0.175,0.1
11:12:40.956,-0.155,0.09
11:12:40.960,-0.135,0.11
11:12:40.964,-0.105,0.12
11:12:40.968,-0.11,0.12
11:12:40.972,-0.08,0.145
11:12:40.976,-0.06,0.155
11:12:40.980,-0.035,0.16
11:12:40.984,0.0,0.185
11:12:40.988,0.02,0.19
11:12:40.992,0.065,0.215
11:12:40.996,0.15,0.22
11:12:41.000,0.2,0.215
11:12:41.004,0.225,0.245
11:12:41.008,0.225,0.3
11:12:41.012,0.17,0.335
11:12:41.016,0.155,0.355
11:12:41.020,0.135,0.325
11:12:41.024,0.23,0.275
11:12:41.028,0.3,0.245
11:12:41.032,0.26,0.235
11:12:41.036,0.09,0.275
11:12:41.040,-0.15,0.3
11:12:41.044,-0.54,0.23
11:12:41.048,-0.985,-0.105
11:12:41.052,-1.385,-0.58
11:12:41.056,-1.71,-1.17
11:12:41.060,-1.93,-1.995
11:12:41.064,-2.0,-2.885
11:12:41.068,-1.925,-3.62
11:12:41.072,-1.89,-4.165
11:12:41.076,-1.89,-4.585
11:12:41.080,-1.915,-4.87
11:12:41.084,-1.865,-5.02
11:12:41.088,-1.81,-5.055
11:12:41.092,-1.785,-4.955
11:12:41.096,-1.785,-4.81
11:12:41.100,-1.745,-4.68
11:12:41.104,-1.64,-4.605
11:12:41.108,-1.62,-4.515
11:12:41.112,-1.56,-4.45
11:12:41.116,-1.44,-4.27
11:12:41.120,-1.26,-4.005
11:12:41.124,-1.11,-3.665
11:12:41.128,-1.015,-3.355
11:12:41.132,-0.91,-2.985
11:12:41.136,-0.84,-2.56
11:12:41.140,-0.705,-2.105
11:12:41.144,-0.54,-1.65
11:12:41.148,-0.405,-1.255
11:12:41.152,-0.275,-0.96
11:12:41.156,-0.15,-0.675
11:12:41.160,-0.125,-0.46
11:12:41.164,-0.065,-0.275
11:12:41.168,0.0,-0.07
11:12:41.172,0.035,0.15
11:12:41.176,0.06,0.34
11:12:41.180,0.095,0.48
11:12:41.184,0.145,0.59
11:12:41.188,0.16,0.67
11:12:41.192,0.195,0.735
11:12:41.196,0.225,0.79
11:12:41.200,0.25,0.83
11:12:41.204,0.31,0.855
11:12:41.208,0.35,0.865
11:12:41.212,0.375,0.9
11:12:41.216,0.445,0.925
11:12:41.220,0.48,0.955
11:12:41.224,0.515,0.96
11:12:41.228,0.51,1.02
11:12:41.232,0.465,1.06
11:12:41.236,0.44,1.095
11:12:41.240,0.385,1.12
11:12:41.244,0.39,1.135
11:12:41.248,0.355,1.08
11:12:41.252,0.355,1.05
11:12:41.256,0.35,1.05
11:12:41.260,0.355,1.035
11:12:41.264,0.36,1.05
11:12:41.268,0.375,1.035
11:12:41.272,0.375,1.04
11:12:41.276,0.405,1.055
11:12:41.280,0.38,1.09
11:12:41.284,0.39,1.12
11:12:41.288,0.375,1.155
11:12:41.292,0.375,1.16
11:12:41.296,0.355,1.195
11:12:41.300,0.33,1.195
11:12:41.304,0.335,1.195
11:12:41.308,0.335,1.22
11:12:41.312,0.345,1.235
11:12:41.316,0.325,1.28
11:12:41.320,0.33,1.305
11:12:41.324,0.315,1.35
11:12:41.328,0.325,1.335
11:12:41.332,0.28,1.35
11:12:41.336,0.27,1.375
11:12:41.340,0.27,1.38
11:12:41.344,0.255,1.385
11:12:41.348,0.245,1.395
11:12:41.352,0.225,1.365
11:12:41.356,0.225,1.37
11:12:41.360,0.19,1.385
11:12:41.364,0.16,1.385
11:12:41.368,0.08,1.335
11:12:41.372,0.06,1.3
11:12:41.376,0.025,1.26
11:12:41.380,-0.005,1.26
11:12:41.384,-0.065,1.195
11:12:41.388,-0.095,1.115
11:12:41.392,-0.095,1.05
11:12:41.396,-0.115,1.01
11:12:41.400,-0.155,0.94
11:12:41.404,-0.155,0.88
11:12:41.408,-0.18,0.81
11:12:41.412,-0.215,0.745
11:12:41.416,-0.225,0.7
11:12:41.420,-0.215,0.61
11:12:41.424,-0.215,0.575
11:12:41.428,-0.23,0.515
11:12:41.432,-0.22,0.45
11:12:41.436,-0.21,0.415
11:12:41.440,-0.19,0.375
11:12:41.444,-0.15,0.37
11:12:41.448,-0.13,0.355
11:12:41.452,-0.125,0.36
11:12:41.456,-0.11,0.355
11:12:41.460,-0.095,0.385
11:12:41.464,-0.035,0.375
11:12:41.468,0.01,0.375
11:12:41.472,0.045,0.4
11:12:41.476,0.02,0.405
11:12:41.480,0.01,0.41
11:12:41.484,-0.02,0.405
11:12:41.488,-0.08,0.415
11:12:41.492,-0.155,0.41
11:12:41.496,-0.2,0.4
11:12:41.500,-0.225,0.355
11:12:41.504,-0.225,0.34
11:12:41.508,-0.235,0.29
11:12:41.512,-0.255,0.23
11:12:41.516,-0.28,0.195
11:12:41.520,-0.3,0.185
11:12:41.524,-0.3,0.19
11:12:41.528,-0.305,0.165
11:12:41.532,-0.275,0.14
11:12:41.536,-0.235,0.145
11:12:41.540,-0.1,0.135
11:12:41.544,0.035,0.16
11:12:41.548,0.09,0.22
11:12:41.552,0.04,0.275
11:12:41.556,-0.13,0.36
11:12:41.560,-0.54,0.375
11:12:41.564,-1.055,0.17
11:12:41.568,-1.53,-0.22
11:12:41.572,-1.865,-0.735
11:12:41.576,-2.045,-1.605
11:12:41.580,-2.01,-2.61
11:12:41.584,-1.87,-3.425
11:12:41.588,-1.79,-4.06
11:12:41.592,-1.82,-4.57
11:12:41.596,-1.865,-4.825
11:12:41.600,-1.795,-4.97
11:12:41.604,-1.74,-4.97
11:12:41.608,-1.695,-4.915
11:12:41.612,-1.635,-4.81
11:12:41.616,-1.535,-4.69
11:12:41.620,-1.49,-4.595
11:12:41.624,-1.485,-4.51
11:12:41.628,-1.455,-4.405
11:12:41.632,-1.37,-4.18
11:12:41.636,-1.305,-3.89
11:12:41.640,-1.255,-3.55
11:12:41.644,-1.225,-3.19
11:12:41.648,-1.135,-2.8
11:12:41.652,-1.035,-2.34
11:12:41.656,-0.85,-1.86
11:12:41.660,-0.655,-1.42
11:12:41.664,-0.485,-1.075
11:12:41.668,-0.33,-0.775
11:12:41.672,-0.26,-0.55
11:12:41.676,-0.22,-0.32
11:12:41.680,-0.16,-0.1
11:12:41.684,-0.13,0.165
11:12:41.688,-0.115,0.36
11:12:41.692,-0.1,0.53
11:12:41.696,-0.095,0.64
11:12:41.700,-0.06,0.725
11:12:41.704,-0.05,0.79
11:12:41.708,-0.04,0.825
11:12:41.712,-0.025,0.825
11:12:41.716,0.0,0.86
11:12:41.720,-0.005,0.885
11:12:41.724,0.005,0.89
11:12:41.728,0.015,0.92
11:12:41.732,0.05,0.94
11:12:41.736,0.055,0.96
11:12:41.740,0.07,0.935
11:12:41.744,0.08,0.97
11:12:41.748,0.095,0.975
11:12:41.752,0.095,1.01
11:12:41.756,0.11,1.02
11:12:41.760,0.1,1.065
11:12:41.764,0.12,1.08
11:12:41.768,0.13,1.08
11:12:41.772,0.13,1.065
11:12:41.776,0.135,1.06
11:12:41.780,0.16,1.085
11:12:41.784,0.19,1.115
11:12:41.788,0.19,1.135
11:12:41.792,0.205,1.14
11:12:41.796,0.2,1.18
11:12:41.800,0.2,1.225
11:12:41.804,0.22,1.24
11:12:41.808,0.235,1.245
11:12:41.812,0.23,1.27
11:12:41.816,0.24,1.26
11:12:41.820,0.245,1.32
11:12:41.824,0.26,1.305
11:12:41.828,0.275,1.315
11:12:41.832,0.25,1.335
11:12:41.836,0.24,1.345
11:12:41.840,0.235,1.38
11:12:41.844,0.23,1.4
11:12:41.848,0.23,1.41
11:12:41.852,0.195,1.445
11:12:41.856,0.18,1.41
11:12:41.860,0.15,1.41
11:12:41.864,0.15,1.385
11:12:41.868,0.115,1.37
11:12:41.872,0.07,1.325
11:12:41.876,0.03,1.315
11:12:41.880,0.0,1.265
11:12:41.884,-0.04,1.205
11:12:41.888,-0.09,1.145
11:12:41.892,-0.115,1.09
11:12:41.896,-0.155,1.025
11:12:41.900,-0.18,0.975
11:12:41.904,-0.23,0.88
11:12:41.908,-0.225,0.84
11:12:41.912,-0.235,0.775
11:12:41.916,-0.26,0.72
11:12:41.920,-0.295,0.62
11:12:41.924,-0.295,0.56
11:12:41.928,-0.315,0.5
11:12:41.932,-0.335,0.485
11:12:41.936,-0.345,0.455
11:12:41.940,-0.355,0.395
11:12:41.944,-0.34,0.355
11:12:41.948,-0.33,0.35
11:12:41.952,-0.34,0.335
11:12:41.956,-0.33,0.32
11:12:41.960,-0.325,0.315
11:12:41.964,-0.34,0.29
11:12:41.968,-0.32,0.26
11:12:41.972,-0.335,0.27
11:12:41.976,-0.34,0.29
11:12:41.980,-0.33,0.28
11:12:41.984,-0.33,0.255
11:12:41.988,-0.32,0.24
11:12:41.992,-0.335,0.27
11:12:41.996,-0.31,0.29
11:12:42.000,-0.305,0.285
11:12:42.004,-0.3,0.275
11:12:42.008,-0.33,0.26
11:12:42.012,-0.335,0.255
11:12:42.016,-0.35,0.27
11:12:42.020,-0.355,0.28
11:12:42.024,-0.35,0.285
11:12:42.028,-0.355,0.27
11:12:42.032,-0.34,0.255
11:12:42.036,-0.33,0.25
11:12:42.040,-0.325,0.265
11:12:42.044,-0.325,0.275
11:12:42.048,-0.335,0.24
11:12:42.052,-0.34,0.255
11:12:42.056,-0.36,0.235
11:12:42.060,-0.355,0.235
11:12:42.064,-0.345,0.235
11:12:42.068,-0.345,0.265
11:12:42.072,-0.35,0.215
11:12:42.076,-0.355,0.195
11:12:42.080,-0.325,0.175
11:12:42.084,-0.335,0.205
11:12:42.088,-0.345,0.23
11:12:42.092,-0.35,0.27
11:12:42.096,-0.36,0.22
11:12:42.100,-0.35,0.22
11:12:42.104,-0.35,0.195
11:12:42.108,-0.355,0.175
11:12:42.112,-0.365,0.175
11:12:42.116,-0.34,0.205
11:12:42.120,-0.33,0.18
11:12:42.124,-0.345,0.175
11:12:42.128,-0.35,0.185
11:12:42.132,-0.34,0.195
11:12:42.136,-0.33,0.21
11:12:42.140,-0.335,0.18
11:12:42.144,-0.35,0.18
11:12:42.148,-0.34,0.165
11:12:42.152,-0.365,0.19
11:12:42.156,-0.35,0.195
11:12:42.160,-0.33,0.19
11:12:42.164,-0.31,0.18
11:12:42.168,-0.325,0.175
11:12:42.172,-0.32,0.2
11:12:42.176,-0.32,0.195
11:12:42.180,-0.335,0.195
11:12:42.184,-0.35,0.17
11:12:42.188,-0.355,0.175
11:12:42.192,-0.35,0.165
11:12:42.196,-0.345,0.19
11:12:42.200,-0.33,0.17
11:12:42.204,-0.33,0.195
11:12:42.208,-0.32,0.175
11:12:42.212,-0.315,0.18
11:12:42.216,-0.31,0.17
11:12:42.220,-0.325,0.18
11:12:42.224,-0.33,0.16
11:12:42.228,-0.33,0.18
11:12:42.232,-0.325,0.17
11:12:42.236,-0.34,0.215
11:12:42.240,-0.32,0.185
11:12:42.244,-0.3,0.165
11:12:42.248,-0.315,0.145
11:12:42.252,-0.32,0.145
11:12:42.256,-0.315,0.155
11:12:42.260,-0.31,0.22
11:12:42.264,-0.335,0.23
11:12:42.268,-0.34,0.2
11:12:42.272,-0.335,0.19
11:12:42.276,-0.33,0.155
11:12:42.280,-0.33,0.165
11:12:42.284,-0.32,0.165
11:12:42.288,-0.315,0.16
11:12:42.292,-0.3,0.18
11:12:42.296,-0.305,0.175
11:12:42.300,-0.315,0.175
11:12:42.304,-0.335,0.155
11:12:42.308,-0.32,0.195
11:12:42.312,-0.325,0.2
11:12:42.316,-0.335,0.215
11:12:42.320,-0.325,0.215
11:12:42.324,-0.32,0.185
11:12:42.328,-0.315,0.175
11:12:42.332,-0.33,0.195
11:12:42.336,-0.32,0.19
11:12:42.340,-0.31,0.185
11:12:42.344,-0.32,0.21
11:12:42.348,-0.32,0.205
11:12:42.352,-0.335,0.185
11:12:42.356,-0.33,0.2
11:12:42.360,-0.325,0.165
11:12:42.364,-0.32,0.19
11:12:42.368,-0.31,0.21
11:12:42.372,-0.33,0.19
11:12:42.376,-0.32,0.18
11:12:42.380,-0.31,0.16
11:12:42.384,-0.305,0.17
11:12:42.388,-0.31,0.15
11:12:42.392,-0.31,0.13
11:12:42.396,-0.33,0.14
11:12:42.400,-0.335,0.155
11:12:42.404,-0.33,0.18
11:12:42.408,-0.335,0.165
11:12:42.412,-0.33,0.175
11:12:42.416,-0.345,0.16
11:12:42.420,-0.32,0.135
11:12:42.424,-0.315,0.145
11:12:42.428,-0.335,0.145
11:12:42.432,-0.36,0.14
11:12:42.436,-0.355,0.16
11:12:42.440,-0.33,0.16
11:12:42.444,-0.34,0.13
11:12:42.448,-0.35,0.105
11:12:42.452,-0.345,0.115
11:12:42.456,-0.325,0.115
11:12:42.460,-0.32,0.15
11:12:42.464,-0.33,0.15
11:12:42.468,-0.31,0.16
11:12:42.472,-0.31,0.115
11:12:42.476,-0.32,0.13
11:12:42.480,-0.33,0.09
11:12:42.484,-0.305,0.085
11:12:42.488,-0.31,0.085
11:12:42.492,-0.295,0.06
11:12:42.496,-0.27,0.095
11:12:42.500,-0.21,0.1
11:12:42.504,-0.165,0.115
11:12:42.508,-0.13,0.15
11:12:42.512,-0.09,0.185
11:12:42.516,-0.085,0.235
11:12:42.520,-0.09,0.235
11:12:42.524,-0.14,0.295
11:12:42.528,-0.16,0.29
11:12:42.532,-0.17,0.275
11:12:42.536,-0.17,0.255
11:12:42.540,-0.195,0.21
11:12:42.544,-0.185,0.21
11:12:42.548,-0.2,0.18
11:12:42.552,-0.18,0.145
11:12:42.556,-0.16,0.115
11:12:42.560,-0.145,0.08
11:12:42.564,-0.125,0.08
11:12:42.568,-0.125,0.09
11:12:42.572,-0.14,0.09
11:12:42.576,-0.17,0.105
11:12:42.580,-0.215,0.11
11:12:42.584,-0.24,0.15
11:12:42.588,-0.31,0.175
11:12:42.592,-0.335,0.15
11:12:42.596,-0.315,0.115
11:12:42.600,-0.34,0.105
11:12:42.604,-0.39,0.09
11:12:42.608,-0.39,0.095
11:12:42.612,-0.385,0.07
11:12:42.616,-0.36,0.06
11:12:42.620,-0.355,0.05
11:12:42.624,-0.34,0.07
11:12:42.628,-0.335,0.07
11:12:42.632,-0.35,0.08
11:12:42.636,-0.37,0.085
11:12:42.640,-0.34,0.055
11:12:42.644,-0.36,0.08
11:12:42.648,-0.35,0.075
11:12:42.652,-0.34,0.065
11:12:42.656,-0.34,0.065
11:12:42.660,-0.315,0.065
11:12:42.664,-0.33,0.05
11:12:42.668,-0.32,0.055
11:12:42.672,-0.33,0.05
11:12:42.676,-0.3,0.065
11:12:42.680,-0.305,0.06
11:12:42.684,-0.315,0.055
11:12:42.688,-0.315,0.07
11:12:42.692,-0.245,0.08
11:12:42.696,-0.16,0.04
11:12:42.700,-0.04,0.025
11:12:42.704,-0.015,0.03
11:12:42.708,-0.11,0.13
11:12:42.712,-0.28,0.25
11:12:42.716,-0.59,0.225
11:12:42.720,-1.01,-0.155
11:12:42.724,-1.43,-0.735
11:12:42.728,-1.78,-1.4
11:12:42.732,-2.095,-2.295
11:12:42.736,-2.17,-3.225
11:12:42.740,-2.15,-3.965
11:12:42.744,-2.07,-4.46
11:12:42.748,-2.04,-4.805
11:12:42.752,-1.965,-5.005
11:12:42.756,-1.87,-5.09
11:12:42.760,-1.78,-5.125
11:12:42.764,-1.705,-5.02
11:12:42.768,-1.665,-4.88
11:12:42.772,-1.62,-4.725
11:12:42.776,-1.6,-4.625
11:12:42.780,-1.57,-4.515
11:12:42.784,-1.47,-4.38
11:12:42.788,-1.275,-4.15
11:12:42.792,-1.045,-3.825
11:12:42.796,-0.895,-3.505
11:12:42.800,-0.78,-3.13
11:12:42.804,-0.655,-2.685
11:12:42.808,-0.55,-2.135
11:12:42.812,-0.455,-1.69
11:12:42.816,-0.335,-1.29
11:12:42.820,-0.23,-0.965
11:12:42.824,-0.125,-0.705
11:12:42.828,-0.05,-0.47
11:12:42.832,0.0,-0.255
11:12:42.836,0.04,-0.055
11:12:42.840,0.09,0.125
11:12:42.844,0.105,0.31
11:12:42.848,0.105,0.465
11:12:42.852,0.125,0.59
11:12:42.856,0.16,0.67
11:12:42.860,0.165,0.72
11:12:42.864,0.17,0.73
11:12:42.868,0.17,0.795
11:12:42.872,0.17,0.84
11:12:42.876,0.215,0.845
11:12:42.880,0.22,0.865
11:12:42.884,0.23,0.9
11:12:42.888,0.255,0.88
11:12:42.892,0.265,0.91
11:12:42.896,0.26,0.945
11:12:42.900,0.26,0.95
11:12:42.904,0.285,0.945
11:12:42.908,0.285,0.95
11:12:42.912,0.29,0.935
11:12:42.916,0.315,0.955
11:12:42.920,0.3,0.96
11:12:42.924,0.305,0.99
11:12:42.928,0.335,1.01
11:12:42.932,0.385,1.005
11:12:42.936,0.4,1.065
11:12:42.940,0.44,1.075
11:12:42.944,0.475,1.09
11:12:42.948,0.565,1.13
11:12:42.952,0.675,1.155
11:12:42.956,0.755,1.165
11:12:42.960,0.775,1.215
11:12:42.964,0.805,1.25
11:12:42.968,0.755,1.315
11:12:42.972,0.71,1.375
11:12:42.976,0.64,1.44
11:12:42.980,0.555,1.49
11:12:42.984,0.515,1.49
11:12:42.988,0.495,1.485
11:12:42.992,0.48,1.445
11:12:42.996,0.435,1.405
11:12:43.000,0.42,1.355
11:12:43.004,0.435,1.33
11:12:43.008,0.4,1.295
11:12:43.012,0.35,1.31
11:12:43.016,0.29,1.315
11:12:43.020,0.26,1.315
11:12:43.024,0.245,1.345
11:12:43.028,0.245,1.335
11:12:43.032,0.22,1.33
11:12:43.036,0.205,1.31
11:12:43.040,0.18,1.3
11:12:43.044,0.175,1.275
11:12:43.048,0.16,1.24
11:12:43.052,0.135,1.235
11:12:43.056,0.09,1.195
11:12:43.060,0.055,1.175
11:12:43.064,0.035,1.14
11:12:43.068,-0.005,1.095
11:12:43.072,-0.025,1.03
11:12:43.076,-0.035,0.97
11:12:43.080,-0.06,0.915
11:12:43.084,-0.095,0.865
11:12:43.088,-0.115,0.835
11:12:43.092,-0.08,0.75
11:12:43.096,-0.105,0.69
11:12:43.100,-0.15,0.65
11:12:43.104,-0.16,0.585
11:12:43.108,-0.155,0.515
11:12:43.112,-0.175,0.425
11:12:43.116,-0.16,0.39
11:12:43.120,-0.185,0.34
11:12:43.124,-0.175,0.3
11:12:43.128,-0.185,0.265
11:12:43.132,-0.185,0.255
11:12:43.136,-0.17,0.22
11:12:43.140,-0.165,0.21
11:12:43.144,-0.17,0.195
11:12:43.148,-0.165,0.19
11:12:43.152,-0.15,0.245
11:12:43.156,-0.14,0.22
11:12:43.160,-0.11,0.195
11:12:43.164,-0.115,0.17
11:12:43.168,-0.12,0.16
11:12:43.172,-0.09,0.2
11:12:43.176,-0.06,0.215
11:12:43.180,-0.04,0.215
11:12:43.184,-0.025,0.245
11:12:43.188,0.01,0.255
11:12:43.192,0.05,0.285
11:12:43.196,0.095,0.285
11:12:43.200,0.125,0.325
11:12:43.204,0.18,0.35
11:12:43.208,0.25,0.345
11:12:43.212,0.29,0.365
11:12:43.216,0.34,0.435
11:12:43.220,0.37,0.435
11:12:43.224,0.325,0.465
11:12:43.228,0.285,0.53
11:12:43.232,0.25,0.555
11:12:43.236,0.19,0.51
11:12:43.240,0.17,0.465
11:12:43.244,0.145,0.43
11:12:43.248,0.165,0.385
11:12:43.252,0.24,0.38
11:12:43.256,0.445,0.345
11:12:43.260,0.635,0.29
11:12:43.264,0.775,0.25
11:12:43.268,0.7,0.255
11:12:43.272,0.47,0.25
11:12:43.276,0.055,0.2
11:12:43.280,-0.51,0.005
11:12:43.284,-1.1,-0.405
11:12:43.288,-1.53,-0.965
11:12:43.292,-1.745,-1.755
11:12:43.296,-1.795,-2.64
11:12:43.300,-1.72,-3.375
11:12:43.304,-1.615,-3.935
11:12:43.308,-1.49,-4.325
11:12:43.312,-1.32,-4.585
11:12:43.316,-1.105,-4.705
11:12:43.320,-0.95,-4.77
11:12:43.324,-0.89,-4.66
11:12:43.328,-0.86,-4.465
11:12:43.332,-0.78,-4.29
11:12:43.336,-0.795,-4.145
11:12:43.340,-0.785,-4.0
11:12:43.344,-0.685,-3.83
11:12:43.348,-0.525,-3.54
11:12:43.352,-0.415,-3.105
11:12:43.356,-0.34,-2.7
11:12:43.360,-0.335,-2.285
11:12:43.364,-0.255,-1.88
11:12:43.368,-0.11,-1.465
11:12:43.372,0.0,-1.095
11:12:43.376,0.04,-0.77
11:12:43.380,0.07,-0.505
11:12:43.384,0.07,-0.29
11:12:43.388,0.055,-0.085
11:12:43.392,0.08,0.095
11:12:43.396,0.095,0.27
11:12:43.400,0.11,0.385
11:12:43.404,0.145,0.53
11:12:43.408,0.16,0.605
11:12:43.412,0.195,0.645
11:12:43.416,0.25,0.68
11:12:43.420,0.31,0.7
11:12:43.424,0.36,0.685
11:12:43.428,0.44,0.745
11:12:43.432,0.475,0.765
11:12:43.436,0.475,0.79
11:12:43.440,0.425,0.875
11:12:43.444,0.395,0.91
11:12:43.448,0.355,0.94
11:12:43.452,0.315,0.92
11:12:43.456,0.305,0.845
11:12:43.460,0.315,0.81
11:12:43.464,0.32,0.785
11:12:43.468,0.325,0.785
11:12:43.472,0.305,0.78
11:12:43.476,0.315,0.73
11:12:43.480,0.29,0.715
11:12:43.484,0.28,0.75
11:12:43.488,0.265,0.75
11:12:43.492,0.26,0.79
11:12:43.496,0.245,0.815
11:12:43.500,0.26,0.805
11:12:43.504,0.195,0.785
11:12:43.508,0.195,0.79
11:12:43.512,0.165,0.8
11:12:43.516,0.17,0.79
11:12:43.520,0.175,0.77
11:12:43.524,0.145,0.79
11:12:43.528,0.13,0.8
11:12:43.532,0.135,0.84
11:12:43.536,0.115,0.865
11:12:43.540,0.11,0.87
11:12:43.544,0.085,0.91
11:12:43.548,0.1,0.93
11:12:43.552,0.105,0.95
11:12:43.556,0.11,0.95
11:12:43.560,0.115,0.945
11:12:43.564,0.12,0.965
11:12:43.568,0.12,0.995
11:12:43.572,0.1,1.01
11:12:43.576,0.085,1.05
11:12:43.580,0.075,1.05
11:12:43.584,0.055,1.03
11:12:43.588,0.055,1.04
11:12:43.592,0.035,1.03
11:12:43.596,0.05,1.0
11:12:43.600,0.05,0.95
11:12:43.604,0.045,0.94
11:12:43.608,0.06,0.93
11:12:43.612,0.035,0.905
11:12:43.616,0.055,0.885
11:12:43.620,0.055,0.83
11:12:43.624,0.055,0.765
11:12:43.628,0.12,0.745
11:12:43.632,0.135,0.725
11:12:43.636,0.13,0.71
11:12:43.640,0.075,0.665
11:12:43.644,0.075,0.635
11:12:43.648,0.05,0.585
11:12:43.652,0.02,0.555
11:12:43.656,0.015,0.49
11:12:43.660,-0.015,0.435
11:12:43.664,-0.025,0.38
11:12:43.668,-0.045,0.34
11:12:43.672,-0.075,0.31
11:12:43.676,-0.065,0.27
11:12:43.680,-0.09,0.235
11:12:43.684,-0.07,0.2
11:12:43.688,-0.09,0.165
11:12:43.692,-0.09,0.155
11:12:43.696,-0.09,0.165
11:12:43.700,-0.08,0.18
11:12:43.704,-0.115,0.185
11:12:43.708,-0.15,0.165
11:12:43.712,-0.17,0.14
11:12:43.716,-0.18,0.11
11:12:43.720,-0.19,0.13
11:12:43.724,-0.21,0.11
11:12:43.728,-0.19,0.115
11:12:43.732,-0.185,0.14
11:12:43.736,-0.2,0.12
11:12:43.740,-0.205,0.12
11:12:43.744,-0.22,0.12
11:12:43.748,-0.22,0.13
11:12:43.752,-0.245,0.145
11:12:43.756,-0.235,0.13
11:12:43.760,-0.215,0.08
11:12:43.764,-0.22,0.105
11:12:43.768,-0.225,0.095
11:12:43.772,-0.215,0.125
11:12:43.776,-0.175,0.15
11:12:43.780,-0.175,0.105
11:12:43.784,-0.16,0.125
11:12:43.788,-0.16,0.115
11:12:43.792,-0.16,0.11
11:12:43.796,-0.15,0.165
11:12:43.800,-0.14,0.155
11:12:43.804,-0.13,0.125
11:12:43.808,-0.095,0.155
11:12:43.812,-0.08,0.15
11:12:43.816,-0.045,0.14
11:12:43.820,-0.01,0.16
11:12:43.824,0.0,0.155
11:12:43.828,0.03,0.175
11:12:43.832,0.065,0.215
11:12:43.836,0.08,0.275
11:12:43.840,0.075,0.26
11:12:43.844,0.06,0.275
11:12:43.848,0.025,0.315
11:12:43.852,0.005,0.32
11:12:43.856,-0.025,0.28
11:12:43.860,-0.035,0.25
11:12:43.864,-0.035,0.195
11:12:43.868,-0.005,0.18
11:12:43.872,-0.03,0.17
11:12:43.876,-0.015,0.145
11:12:43.880,-0.025,0.155
11:12:43.884,-0.03,0.14
11:12:43.888,-0.025,0.115
11:12:43.892,-0.04,0.11
11:12:43.896,-0.02,0.115
11:12:43.900,0.05,0.09
11:12:43.904,0.14,0.065
11:12:43.908,0.285,0.085
11:12:43.912,0.35,0.09
11:12:43.916,0.3,0.16
11:12:43.920,0.155,0.23
11:12:43.924,-0.11,0.29
11:12:43.928,-0.545,0.14
11:12:43.932,-1.045,-0.255
11:12:43.936,-1.455,-0.78
11:12:43.940,-1.74,-1.475
11:12:43.944,-1.86,-2.41
11:12:43.948,-1.8,-3.3
11:12:43.952,-1.69,-3.95
11:12:43.956,-1.65,-4.42
11:12:43.960,-1.71,-4.735
11:12:43.964,-1.74,-4.93
11:12:43.968,-1.705,-5.035
11:12:43.972,-1.72,-5.01
11:12:43.976,-1.725,-4.9
11:12:43.980,-1.695,-4.79
11:12:43.984,-1.655,-4.675
11:12:43.988,-1.645,-4.6
11:12:43.992,-1.645,-4.52
11:12:43.996,-1.56,-4.44
11:12:44.000,-1.425,-4.265
11:12:44.004,-1.285,-4.05
11:12:44.008,-1.155,-3.735
11:12:44.012,-1.05,-3.395
11:12:44.016,-0.97,-3.015
11:12:44.020,-0.895,-2.61
11:12:44.024,-0.77,-2.16
11:12:44.028,-0.565,-1.685
11:12:44.032,-0.375,-1.255
11:12:44.036,-0.215,-0.91
11:12:44.040,-0.07,-0.64
11:12:44.044,0.02,-0.41
11:12:44.048,0.065,-0.18
11:12:44.052,0.125,0.04
11:12:44.056,0.135,0.245
11:12:44.060,0.13,0.425
11:12:44.064,0.17,0.54
11:12:44.068,0.17,0.675
11:12:44.072,0.17,0.755
11:12:44.076,0.215,0.815
11:12:44.080,0.23,0.815
11:12:44.084,0.25,0.865
11:12:44.088,0.27,0.91
11:12:44.092,0.3,0.92
11:12:44.096,0.33,0.95
11:12:44.100,0.34,0.945
11:12:44.104,0.335,0.925
11:12:44.108,0.33,0.97
11:12:44.112,0.34,0.98
11:12:44.116,0.355,1.0
11:12:44.120,0.37,0.995
11:12:44.124,0.385,1.025
11:12:44.128,0.395,1.05
11:12:44.132,0.415,1.02
11:12:44.136,0.39,1.035
11:12:44.140,0.41,1.04
11:12:44.144,0.405,1.075
11:12:44.148,0.42,1.11
11:12:44.152,0.425,1.165
11:12:44.156,0.44,1.21
11:12:44.160,0.445,1.255
11:12:44.164,0.445,1.265
11:12:44.168,0.47,1.32
11:12:44.172,0.5,1.35
11:12:44.176,0.515,1.395
11:12:44.180,0.51,1.43
11:12:44.184,0.52,1.475
11:12:44.188,0.51,1.505
11:12:44.192,0.52,1.54
11:12:44.196,0.51,1.525
11:12:44.200,0.485,1.545
11:12:44.204,0.5,1.545
11:12:44.208,0.485,1.51
11:12:44.212,0.5,1.525
11:12:44.216,0.525,1.5
11:12:44.220,0.51,1.52
11:12:44.224,0.51,1.535
11:12:44.228,0.48,1.52
11:12:44.232,0.465,1.525
11:12:44.236,0.455,1.53
11:12:44.240,0.43,1.515
11:12:44.244,0.395,1.5
11:12:44.248,0.375,1.51
11:12:44.252,0.365,1.465
11:12:44.256,0.35,1.425
11:12:44.260,0.32,1.405
11:12:44.264,0.285,1.37
11:12:44.268,0.24,1.33
11:12:44.272,0.195,1.3
11:12:44.276,0.17,1.225
11:12:44.280,0.155,1.18
11:12:44.284,0.115,1.14
11:12:44.288,0.07,1.055
11:12:44.292,0.05,0.985
11:12:44.296,0.035,0.905
11:12:44.300,0.03,0.82
11:12:44.304,0.025,0.755
11:12:44.308,0.005,0.7
11:12:44.312,0.005,0.67
11:12:44.316,-0.005,0.63
11:12:44.320,-0.03,0.57
11:12:44.324,-0.045,0.555
11:12:44.328,-0.045,0.515
11:12:44.332,-0.04,0.46
11:12:44.336,-0.045,0.42
11:12:44.340,-0.045,0.385
11:12:44.344,-0.05,0.34
11:12:44.348,-0.05,0.285
11:12:44.352,-0.04,0.31
11:12:44.356,-0.04,0.355
11:12:44.360,-0.04,0.375
11:12:44.364,-0.055,0.345
11:12:44.368,-0.075,0.32
11:12:44.372,-0.055,0.325
11:12:44.376,-0.065,0.325
11:12:44.380,-0.035,0.315
11:12:44.384,-0.05,0.31
11:12:44.388,-0.02,0.3
11:12:44.392,-0.03,0.29
11:12:44.396,-0.035,0.29
11:12:44.400,-0.025,0.295
11:12:44.404,-0.025,0.315
11:12:44.408,-0.02,0.325
11:12:44.412,-0.035,0.345
11:12:44.416,-0.01,0.315
11:12:44.420,-0.03,0.325
11:12:44.424,-0.035,0.295
11:12:44.428,-0.005,0.295
11:12:44.432,-0.005,0.305
11:12:44.436,-0.015,0.28
11:12:44.440,-0.02,0.275
11:12:44.444,-0.025,0.28
11:12:44.448,-0.025,0.305
11:12:44.452,-0.025,0.315
11:12:44.456,-0.035,0.35
11:12:44.460,-0.045,0.34
11:12:44.464,-0.055,0.32
11:12:44.468,-0.045,0.305
11:12:44.472,-0.065,0.29
11:12:44.476,-0.075,0.26
11:12:44.480,-0.065,0.27
11:12:44.484,-0.045,0.28
11:12:44.488,-0.085,0.255
11:12:44.492,-0.075,0.25
11:12:44.496,-0.07,0.245
11:12:44.500,-0.095,0.235
11:12:44.504,-0.115,0.225
11:12:44.508,-0.115,0.195
11:12:44.512,-0.1,0.22
11:12:44.516,-0.115,0.2
11:12:44.520,-0.11,0.2
11:12:44.524,-0.09,0.195
11:12:44.528,-0.1,0.185
11:12:44.532,-0.07,0.22
11:12:44.536,-0.1,0.21
11:12:44.540,-0.105,0.21
11:12:44.544,-0.105,0.18
11:12:44.548,-0.13,0.195
11:12:44.552,-0.115,0.185
11:12:44.556,-0.125,0.18
11:12:44.560,-0.095,0.19
11:12:44.564,-0.1,0.205
11:12:44.568,-0.1,0.21
11:12:44.572,-0.085,0.195
11:12:44.576,-0.105,0.17
11:12:44.580,-0.1,0.16
11:12:44.584,-0.095,0.145
11:12:44.588,-0.095,0.155
11:12:44.592,-0.11,0.195
11:12:44.596,-0.11,0.195
11:12:44.600,-0.105,0.195
11:12:44.604,-0.13,0.165
11:12:44.608,-0.135,0.14
11:12:44.612,-0.115,0.155
11:12:44.616,-0.09,0.145
11:12:44.620,-0.105,0.145
11:12:44.624,-0.12,0.13
11:12:44.628,-0.11,0.15
11:12:44.632,-0.13,0.125
11:12:44.636,-0.13,0.15
11:12:44.640,-0.145,0.145
11:12:44.644,-0.15,0.13
11:12:44.648,-0.155,0.125
11:12:44.652,-0.12,0.115
11:12:44.656,-0.125,0.095
11:12:44.660,-0.12,0.115
11:12:44.664,-0.115,0.135
11:12:44.668,-0.11,0.125
11:12:44.672,-0.11,0.13
11:12:44.676,-0.125,0.12
11:12:44.680,-0.145,0.155
11:12:44.684,-0.12,0.17
11:12:44.688,-0.125,0.15
11:12:44.692,-0.115,0.145
11:12:44.696,-0.115,0.145
11:12:44.700,-0.105,0.13
11:12:44.704,-0.125,0.13
11:12:44.708,-0.12,0.12
11:12:44.712,-0.105,0.1
11:12:44.716,-0.105,0.1
11:12:44.720,-0.11,0.11
11:12:44.724,-0.13,0.11
11:12:44.728,-0.145,0.12
11:12:44.732,-0.12,0.125
11:12:44.736,-0.125,0.11
11:12:44.740,-0.125,0.11
11:12:44.744,-0.14,0.1
11:12:44.748,-0.115,0.095
11:12:44.752,-0.105,0.095
11:12:44.756,-0.11,0.07
11:12:44.760,-0.11,0.085
11:12:44.764,-0.135,0.1
11:12:44.768,-0.12,0.115
11:12:44.772,-0.11,0.08
11:12:44.776,-0.11,0.07
11:12:44.780,-0.12,0.065
11:12:44.784,-0.135,0.055
11:12:44.788,-0.12,0.065
11:12:44.792,-0.1,0.065
11:12:44.796,-0.105,0.055
11:12:44.800,-0.115,0.075
11:12:44.804,-0.115,0.08
11:12:44.808,-0.14,0.095
11:12:44.812,-0.125,0.105
11:12:44.816,-0.105,0.08
11:12:44.820,-0.135,0.07
11:12:44.824,-0.125,0.065
11:12:44.828,-0.125,0.07
11:12:44.832,-0.115,0.085
11:12:44.836,-0.09,0.095
11:12:44.840,-0.11,0.1
11:12:44.844,-0.1,0.085
11:12:44.848,-0.11,0.095
11:12:44.852,-0.11,0.09
11:12:44.856,-0.12,0.075
11:12:44.860,-0.115,0.09
11:12:44.864,-0.105,0.06
11:12:44.868,-0.11,0.055
11:12:44.872,-0.095,0.06
11:12:44.876,-0.115,0.06
11:12:44.880,-0.08,0.03
11:12:44.884,-0.09,0.065
11:12:44.888,-0.1,0.06
11:12:44.892,-0.08,0.1
11:12:44.896,-0.09,0.095
11:12:44.900,-0.1,0.09
11:12:44.904,-0.1,0.075
11:12:44.908,-0.11,0.08
11:12:44.912,-0.11,0.06
11:12:44.916,-0.1,0.06
11:12:44.920,-0.115,0.07
11:12:44.924,-0.085,0.06
11:12:44.928,-0.075,0.05
11:12:44.932,-0.08,0.01
11:12:44.936,-0.085,0.04
11:12:44.940,-0.085,0.065
11:12:44.944,-0.08,0.065
11:12:44.948,-0.09,0.075
11:12:44.952,-0.075,0.08
11:12:44.956,-0.09,0.085
11:12:44.960,-0.08,0.1
11:12:44.964,-0.065,0.105
11:12:44.968,-0.07,0.1
11:12:44.972,-0.055,0.085
11:12:44.976,-0.06,0.065
11:12:44.980,-0.05,0.12
11:12:44.984,-0.055,0.13
11:12:44.988,-0.085,0.135
11:12:44.992,-0.12,0.125
11:12:44.996,-0.08,0.12
11:12:45.000,-0.085,0.11
11:12:45.004,-0.065,0.12
11:12:45.008,-0.04,0.09
11:12:45.012,-0.045,0.085
11:12:45.016,-0.04,0.115
11:12:45.020,-0.06,0.135
11:12:45.024,-0.05,0.15
11:12:45.028,-0.045,0.145
11:12:45.032,-0.045,0.13
11:12:45.036,-0.06,0.12
11:12:45.040,-0.065,0.125
11:12:45.044,-0.065,0.13
11:12:45.048,-0.055,0.125
11:12:45.052,-0.055,0.135
11:12:45.056,-0.05,0.135
11:12:45.060,-0.06,0.125
11:12:45.064,-0.04,0.135
11:12:45.068,-0.035,0.135
11:12:45.072,-0.05,0.115
11:12:45.076,-0.05,0.08
11:12:45.080,-0.055,0.1
11:12:45.084,-0.05,0.13
11:12:45.088,-0.04,0.15
11:12:45.092,-0.03,0.125
11:12:45.096,-0.035,0.14
11:12:45.100,-0.015,0.13
11:12:45.104,-0.025,0.1
11:12:45.108,-0.035,0.125
11:12:45.112,-0.04,0.13
11:12:45.116,-0.04,0.12
11:12:45.120,-0.04,0.105
11:12:45.124,-0.04,0.095
11:12:45.128,-0.045,0.1
11:12:45.132,-0.06,0.08
11:12:45.136,-0.03,0.095
11:12:45.140,-0.025,0.075
11:12:45.144,-0.015,0.075
11:12:45.148,-0.015,0.125
11:12:45.152,-0.035,0.115
11:12:45.156,-0.035,0.13
11:12:45.160,-0.05,0.105
11:12:45.164,-0.03,0.095
11:12:45.168,-0.03,0.125
11:12:45.172,-0.025,0.085
11:12:45.176,-0.03,0.115
11:12:45.180,-0.015,0.125
11:12:45.184,0.005,0.15
11:12:45.188,-0.025,0.12
11:12:45.192,-0.035,0.115
11:12:45.196,-0.02,0.08
11:12:45.200,-0.02,0.125
11:12:45.204,-0.05,0.13
11:12:45.208,-0.025,0.15
11:12:45.212,-0.045,0.15
11:12:45.216,-0.04,0.105
11:12:45.220,-0.045,0.1
11:12:45.224,-0.035,0.135
11:12:45.228,-0.015,0.135
11:12:45.232,-0.02,0.135
11:12:45.236,-0.025,0.12
11:12:45.240,-0.015,0.135
11:12:45.244,-0.01,0.13
11:12:45.248,-0.03,0.14
11:12:45.252,-0.035,0.15
11:12:45.256,-0.03,0.105
11:12:45.260,-0.02,0.11
11:12:45.264,-0.04,0.12
11:12:45.268,-0.005,0.13
11:12:45.272,-0.015,0.125
11:12:45.276,-0.01,0.105
11:12:45.280,0.0,0.11
11:12:45.284,-0.005,0.105
11:12:45.288,-0.015,0.1
11:12:45.292,-0.04,0.095
11:12:45.296,-0.045,0.1
11:12:45.300,-0.035,0.09
11:12:45.304,-0.04,0.07
11:12:45.308,-0.04,0.11
11:12:45.312,-0.03,0.1
11:12:45.316,-0.01,0.08
11:12:45.320,-0.005,0.105
11:12:45.324,0.005,0.1
11:12:45.328,0.0,0.105
11:12:45.332,0.005,0.12
11:12:45.336,0.015,0.13
11:12:45.340,0.03,0.12
11:12:45.344,0.055,0.11
11:12:45.348,0.105,0.1
11:12:45.352,0.125,0.12
11:12:45.356,0.165,0.15
11:12:45.360,0.18,0.185
11:12:45.364,0.17,0.25
11:12:45.368,0.16,0.27
11:12:45.372,0.13,0.3
11:12:45.376,0.09,0.285
11:12:45.380,0.065,0.26
11:12:45.384,0.05,0.235
11:12:45.388,0.045,0.225
11:12:45.392,0.03,0.16
11:12:45.396,0.055,0.095
11:12:45.400,0.095,0.1
11:12:45.404,0.11,0.085
11:12:45.408,0.14,0.09
11:12:45.412,0.14,0.095
11:12:45.416,0.145,0.135
11:12:45.420,0.09,0.145
11:12:45.424,0.035,0.18
11:12:45.428,0.0,0.18
11:12:45.432,-0.045,0.185
11:12:45.436,-0.065,0.165
11:12:45.440,-0.105,0.135
11:12:45.444,-0.105,0.1
11:12:45.448,-0.1,0.105
11:12:45.452,-0.1,0.12
11:12:45.456,-0.1,0.09
11:12:45.460,-0.1,0.1
11:12:45.464,-0.125,0.085
11:12:45.468,-0.13,0.07
11:12:45.472,-0.135,0.055
11:12:45.476,-0.13,0.055
11:12:45.480,-0.12,0.05
11:12:45.484,-0.12,0.07
11:12:45.488,-0.135,0.095
11:12:45.492,-0.115,0.11
11:12:45.496,-0.1,0.07
11:12:45.500,-0.12,0.06
11:12:45.504,-0.11,0.075
11:12:45.508,-0.145,0.06
11:12:45.512,-0.13,0.05
11:12:45.516,-0.13,0.065
11:12:45.520,-0.135,0.075
11:12:45.524,-0.115,0.07
11:12:45.528,-0.035,0.035
11:12:45.532,0.065,0.02
11:12:45.536,0.145,0.015
11:12:45.540,0.155,0.025
11:12:45.544,0.08,0.105
11:12:45.548,-0.065,0.23
11:12:45.552,-0.33,0.24
11:12:45.556,-0.675,-0.07
11:12:45.560,-1.06,-0.585
11:12:45.564,-1.39,-1.21
11:12:45.568,-1.595,-2.055
11:12:45.572,-1.68,-3.01
11:12:45.576,-1.615,-3.795
11:12:45.580,-1.575,-4.34
11:12:45.584,-1.615,-4.725
11:12:45.588,-1.655,-4.935
11:12:45.592,-1.605,-5.05
11:12:45.596,-1.575,-5.1
11:12:45.600,-1.57,-5.035
11:12:45.604,-1.575,-4.925
11:12:45.608,-1.54,-4.835
11:12:45.612,-1.495,-4.72
11:12:45.616,-1.485,-4.66
11:12:45.620,-1.37,-4.565
11:12:45.624,-1.205,-4.375
11:12:45.628,-0.99,-4.095
11:12:45.632,-0.8,-3.815
11:12:45.636,-0.72,-3.44
11:12:45.640,-0.62,-3.0
11:12:45.644,-0.53,-2.505
11:12:45.648,-0.405,-2.02
11:12:45.652,-0.295,-1.615
11:12:45.656,-0.19,-1.245
11:12:45.660,-0.075,-0.895
11:12:45.664,0.0,-0.605
11:12:45.668,0.05,-0.385
11:12:45.672,0.12,-0.22
11:12:45.676,0.15,-0.03
11:12:45.680,0.15,0.18
11:12:45.684,0.165,0.34
11:12:45.688,0.155,0.5
11:12:45.692,0.185,0.615
11:12:45.696,0.21,0.67
11:12:45.700,0.22,0.71
11:12:45.704,0.22,0.72
11:12:45.708,0.235,0.775
11:12:45.712,0.25,0.815
11:12:45.716,0.25,0.83
11:12:45.720,0.265,0.84
11:12:45.724,0.275,0.86
11:12:45.728,0.295,0.865
11:12:45.732,0.295,0.865
11:12:45.736,0.28,0.83
11:12:45.740,0.295,0.875
11:12:45.744,0.32,0.915
11:12:45.748,0.31,0.925
11:12:45.752,0.315,0.935
11:12:45.756,0.335,0.945
11:12:45.760,0.335,0.945
11:12:45.764,0.315,0.94
11:12:45.768,0.34,0.96
11:12:45.772,0.37,0.98
11:12:45.776,0.365,0.97
11:12:45.780,0.38,0.985
11:12:45.784,0.395,0.99
11:12:45.788,0.435,1.03
11:12:45.792,0.48,1.065
11:12:45.796,0.51,1.105
11:12:45.800,0.6,1.125
11:12:45.804,0.675,1.195
11:12:45.808,0.74,1.23
11:12:45.812,0.785,1.235
11:12:45.816,0.78,1.26
11:12:45.820,0.755,1.375
11:12:45.824,0.69,1.385
11:12:45.828,0.65,1.44
11:12:45.832,0.605,1.51
11:12:45.836,0.545,1.49
11:12:45.840,0.475,1.43
11:12:45.844,0.44,1.385
11:12:45.848,0.405,1.37
11:12:45.852,0.38,1.375
11:12:45.856,0.355,1.37
11:12:45.860,0.32,1.35
11:12:45.864,0.27,1.32
11:12:45.868,0.21,1.305
11:12:45.872,0.21,1.275
11:12:45.876,0.19,1.25
11:12:45.880,0.155,1.25
11:12:45.884,0.14,1.22
11:12:45.888,0.1,1.19
11:12:45.892,0.055,1.2
11:12:45.896,0.035,1.16
11:12:45.900,0.01,1.13
11:12:45.904,-0.005,1.085
11:12:45.908,-0.04,1.04
11:12:45.912,-0.06,1.02
11:12:45.916,-0.055,0.955
11:12:45.920,-0.105,0.875
11:12:45.924,-0.09,0.855
11:12:45.928,-0.13,0.8
11:12:45.932,-0.14,0.735
11:12:45.936,-0.16,0.67
11:12:45.940,-0.16,0.62
11:12:45.944,-0.2,0.59
11:12:45.948,-0.18,0.495
11:12:45.952,-0.225,0.45
11:12:45.956,-0.205,0.38
11:12:45.960,-0.205,0.325
11:12:45.964,-0.2,0.315
11:12:45.968,-0.205,0.285
11:12:45.972,-0.2,0.235
11:12:45.976,-0.215,0.23
11:12:45.980,-0.225,0.17
11:12:45.984,-0.21,0.15
11:12:45.988,-0.22,0.155
11:12:45.992,-0.22,0.14
11:12:45.996,-0.205,0.145
11:12:46.000,-0.19,0.155
11:12:46.004,-0.185,0.185
11:12:46.008,-0.18,0.155
11:12:46.012,-0.19,0.155
11:12:46.016,-0.19,0.18
11:12:46.020,-0.165,0.17
11:12:46.024,-0.12,0.165
11:12:46.028,-0.055,0.14
11:12:46.032,0.055,0.13
11:12:46.036,0.235,0.15
11:12:46.040,0.39,0.175
11:12:46.044,0.42,0.215
11:12:46.048,0.27,0.205
11:12:46.052,-0.035,0.185
11:12:46.056,-0.525,0.1
11:12:46.060,-1.055,-0.185
11:12:46.064,-1.425,-0.635
11:12:46.068,-1.54,-1.315
11:12:46.072,-1.555,-2.205
11:12:46.076,-1.55,-3.005
11:12:46.080,-1.605,-3.675
11:12:46.084,-1.73,-4.145
11:12:46.088,-1.78,-4.4
11:12:46.092,-1.75,-4.595
11:12:46.096,-1.69,-4.68
11:12:46.100,-1.65,-4.6
11:12:46.104,-1.53,-4.5
11:12:46.108,-1.39,-4.395
11:12:46.112,-1.3,-4.35
11:12:46.116,-1.185,-4.285
11:12:46.120,-0.98,-4.12
11:12:46.124,-0.76,-3.83
11:12:46.128,-0.575,-3.39
11:12:46.132,-0.475,-2.965
11:12:46.136,-0.405,-2.47
11:12:46.140,-0.285,-1.965
11:12:46.144,-0.165,-1.475
11:12:46.148,-0.08,-1.055
11:12:46.152,-0.03,-0.725
11:12:46.156,-0.01,-0.47
11:12:46.160,-0.025,-0.25
11:12:46.164,-0.04,-0.035
11:12:46.168,-0.03,0.155
11:12:46.172,-0.035,0.315
11:12:46.176,-0.005,0.455
11:12:46.180,-0.015,0.49
11:12:46.184,-0.03,0.565
11:12:46.188,-0.015,0.585
11:12:46.192,-0.005,0.595
11:12:46.196,0.0,0.62
11:12:46.200,0.01,0.615
11:12:46.204,0.045,0.61
11:12:46.208,0.075,0.645
11:12:46.212,0.09,0.675
11:12:46.216,0.1,0.675
11:12:46.220,0.13,0.69
11:12:46.224,0.15,0.7
11:12:46.228,0.16,0.71
11:12:46.232,0.185,0.755
11:12:46.236,0.195,0.76
11:12:46.240,0.21,0.775
11:12:46.244,0.23,0.775
11:12:46.248,0.235,0.79
11:12:46.252,0.29,0.83
11:12:46.256,0.33,0.85
11:12:46.260,0.35,0.845
11:12:46.264,0.38,0.88
11:12:46.268,0.41,0.915
11:12:46.272,0.455,0.925
11:12:46.276,0.48,0.96
11:12:46.280,0.51,0.99
11:12:46.284,0.515,1.035
11:12:46.288,0.495,1.055
11:12:46.292,0.45,1.085
11:12:46.296,0.41,1.1
11:12:46.300,0.36,1.075
11:12:46.304,0.315,1.06
11:12:46.308,0.29,1.06
11:12:46.312,0.22,1.04
11:12:46.316,0.21,1.045
11:12:46.320,0.195,1.03
11:12:46.324,0.16,1.015
11:12:46.328,0.145,1.01
11:12:46.332,0.13,0.975
11:12:46.336,0.13,1.0
11:12:46.340,0.09,1.03
11:12:46.344,0.085,1.025
11:12:46.348,0.06,1.02
11:12:46.352,0.005,1.0
11:12:46.356,-0.05,1.005
11:12:46.360,-0.1,0.97
11:12:46.364,-0.1,0.91
11:12:46.368,-0.14,0.87
11:12:46.372,-0.16,0.85
11:12:46.376,-0.19,0.84
11:12:46.380,-0.185,0.795
11:12:46.384,-0.185,0.755
11:12:46.388,-0.22,0.695
11:12:46.392,-0.225,0.665
11:12:46.396,-0.245,0.63
11:12:46.400,-0.235,0.61
11:12:46.404,-0.225,0.535
11:12:46.408,-0.215,0.485
11:12:46.412,-0.205,0.43
11:12:46.416,-0.2,0.41
11:12:46.420,-0.18,0.38
11:12:46.424,-0.16,0.315
11:12:46.428,-0.14,0.315
11:12:46.432,-0.13,0.305
11:12:46.436,-0.13,0.275
11:12:46.440,-0.12,0.26
11:12:46.444,-0.11,0.25
11:12:46.448,-0.095,0.235
11:12:46.452,-0.09,0.19
11:12:46.456,-0.055,0.25
11:12:46.460,0.005,0.275
11:12:46.464,0.03,0.265
11:12:46.468,0.055,0.265
11:12:46.472,0.13,0.26
11:12:46.476,0.175,0.285
11:12:46.480,0.185,0.305
11:12:46.484,0.145,0.33
11:12:46.488,0.115,0.32
11:12:46.492,0.085,0.325
11:12:46.496,0.02,0.305
11:12:46.500,0.01,0.24
11:12:46.504,0.015,0.18
11:12:46.508,-0.01,0.16
11:12:46.512,-0.025,0.145
11:12:46.516,-0.045,0.155
11:12:46.520,-0.045,0.125
11:12:46.524,-0.065,0.125
11:12:46.528,-0.07,0.105
11:12:46.532,-0.065,0.065
11:12:46.536,-0.09,0.055
11:12:46.540,-0.09,0.04
11:12:46.544,-0.1,0.055
11:12:46.548,-0.095,0.03
11:12:46.552,-0.135,0.02
11:12:46.556,-0.13,-0.005
11:12:46.560,-0.15,0.005
11:12:46.564,-0.15,-0.015
11:12:46.568,-0.17,-0.025
11:12:46.572,-0.17,-0.055
11:12:46.576,-0.19,0.0
11:12:46.580,-0.19,0.025
11:12:46.584,-0.2,0.01
11:12:46.588,-0.165,0.0
11:12:46.592,-0.18,0.0
11:12:46.596,-0.19,-0.02
11:12:46.600,-0.185,-0.02
11:12:46.604,-0.17,0.015
11:12:46.608,-0.15,0.01
11:12:46.612,-0.165,-0.01
11:12:46.616,-0.19,-0.01
11:12:46.620,-0.19,0.0
11:12:46.624,-0.16,-0.01
11:12:46.628,-0.135,0.0
11:12:46.632,-0.12,0.01
11:12:46.636,-0.115,0.01
11:12:46.640,-0.095,0.015
11:12:46.644,-0.105,0.0
11:12:46.648,-0.095,0.025
11:12:46.652,-0.07,0.025
11:12:46.656,-0.085,0.025
11:12:46.660,-0.075,0.035
11:12:46.664,-0.035,0.055
11:12:46.668,0.005,0.035
11:12:46.672,0.06,0.025
11:12:46.676,0.07,0.03
11:12:46.680,0.085,0.065
11:12:46.684,0.105,0.12
11:12:46.688,0.15,0.14
11:12:46.692,0.155,0.15
11:12:46.696,0.15,0.14
11:12:46.700,0.13,0.175
11:12:46.704,0.07,0.22
11:12:46.708,0.025,0.185
11:12:46.712,0.035,0.17
11:12:46.716,0.065,0.15
11:12:46.720,0.085,0.125
11:12:46.724,0.12,0.08
11:12:46.728,0.225,0.075
11:12:46.732,0.32,0.045
11:12:46.736,0.29,0.085
11:12:46.740,0.115,0.135
11:12:46.744,-0.16,0.195
11:12:46.748,-0.59,0.11
11:12:46.752,-1.11,-0.27
11:12:46.756,-1.525,-0.81
11:12:46.760,-1.85,-1.535
11:12:46.764,-1.98,-2.455
11:12:46.768,-1.91,-3.31
11:12:46.772,-1.77,-3.98
11:12:46.776,-1.715,-4.49
11:12:46.780,-1.7,-4.83
11:12:46.784,-1.655,-5.02
11:12:46.788,-1.575,-5.125
11:12:46.792,-1.495,-5.08
11:12:46.796,-1.455,-4.925
11:12:46.800,-1.455,-4.745
11:12:46.804,-1.41,-4.63
11:12:46.808,-1.38,-4.53
11:12:46.812,-1.35,-4.46
11:12:46.816,-1.275,-4.335
11:12:46.820,-1.11,-4.105
11:12:46.824,-0.955,-3.795
11:12:46.828,-0.845,-3.465
11:12:46.832,-0.73,-3.105
11:12:46.836,-0.66,-2.655
11:12:46.840,-0.54,-2.155
11:12:46.844,-0.36,-1.705
11:12:46.848,-0.225,-1.32
11:12:46.852,-0.1,-1.015
11:12:46.856,0.005,-0.77
11:12:46.860,0.065,-0.51
11:12:46.864,0.11,-0.26
11:12:46.868,0.15,-0.09
11:12:46.872,0.175,0.095
11:12:46.876,0.205,0.27
11:12:46.880,0.235,0.42
11:12:46.884,0.255,0.51
11:12:46.888,0.25,0.595
11:12:46.892,0.255,0.635
11:12:46.896,0.28,0.67
11:12:46.900,0.31,0.71
11:12:46.904,0.35,0.72
11:12:46.908,0.37,0.75
11:12:46.912,0.385,0.785
11:12:46.916,0.425,0.825
11:12:46.920,0.45,0.805
11:12:46.924,0.47,0.79
11:12:46.928,0.525,0.82
11:12:46.932,0.53,0.83
11:12:46.936,0.525,0.835
11:12:46.940,0.535,0.855
11:12:46.944,0.525,0.89
11:12:46.948,0.535,0.905
11:12:46.952,0.55,0.87
11:12:46.956,0.575,0.875
11:12:46.960,0.57,0.91
11:12:46.964,0.63,0.94
11:12:46.968,0.68,0.98
11:12:46.972,0.74,0.975
11:12:46.976,0.75,1.01
11:12:46.980,0.735,1.02
11:12:46.984,0.69,1.06
11:12:46.988,0.66,1.11
11:12:46.992,0.6,1.19
11:12:46.996,0.58,1.22
11:12:47.000,0.565,1.225
11:12:47.004,0.525,1.215
11:12:47.008,0.51,1.22
11:12:47.012,0.5,1.25
11:12:47.016,0.49,1.25
11:12:47.020,0.49,1.275
11:12:47.024,0.5,1.305
11:12:47.028,0.48,1.31
11:12:47.032,0.465,1.325
11:12:47.036,0.46,1.335
11:12:47.040,0.43,1.325
11:12:47.044,0.405,1.36
11:12:47.048,0.4,1.335
11:12:47.052,0.4,1.325
11:12:47.056,0.395,1.325
11:12:47.060,0.35,1.33
11:12:47.064,0.31,1.31
11:12:47.068,0.28,1.295
11:12:47.072,0.245,1.23
11:12:47.076,0.22,1.19
11:12:47.080,0.19,1.18
11:12:47.084,0.15,1.145
11:12:47.088,0.115,1.09
11:12:47.092,0.115,1.03
11:12:47.096,0.1,0.94
11:12:47.100,0.065,0.875
11:12:47.104,0.05,0.8
11:12:47.108,0.04,0.77
11:12:47.112,0.025,0.685
11:12:47.116,0.015,0.64
11:12:47.120,0.0,0.575
11:12:47.124,0.01,0.51
11:12:47.128,0.0,0.49
11:12:47.132,-0.01,0.45
11:12:47.136,-0.005,0.385
11:12:47.140,-0.005,0.365
11:12:47.144,0.01,0.34
11:12:47.148,-0.01,0.29
11:12:47.152,0.0,0.305
11:12:47.156,-0.02,0.27
11:12:47.160,-0.03,0.28
11:12:47.164,-0.04,0.25
11:12:47.168,-0.02,0.25
11:12:47.172,-0.045,0.215
11:12:47.176,-0.01,0.205
11:12:47.180,-0.01,0.205
11:12:47.184,0.005,0.195
11:12:47.188,0.005,0.2
11:12:47.192,-0.005,0.175
11:12:47.196,-0.01,0.19
11:12:47.200,-0.01,0.175
11:12:47.204,-0.005,0.165
11:12:47.208,-0.01,0.19
11:12:47.212,0.04,0.21
11:12:47.216,0.13,0.215
11:12:47.220,0.315,0.21
11:12:47.224,0.495,0.19
11:12:47.228,0.465,0.21
11:12:47.232,0.25,0.275
11:12:47.236,-0.135,0.35
11:12:47.240,-0.725,0.31
11:12:47.244,-1.385,0.05
11:12:47.248,-1.945,-0.37
11:12:47.252,-2.27,-0.975
11:12:47.256,-2.405,-1.86
11:12:47.260,-2.37,-2.74
11:12:47.264,-2.27,-3.465
11:12:47.268,-2.2,-4.09
11:12:47.272,-2.12,-4.49
11:12:47.276,-1.995,-4.725
11:12:47.280,-1.865,-4.87
11:12:47.284,-1.795,-4.835
11:12:47.288,-1.75,-4.715
11:12:47.292,-1.625,-4.585
11:12:47.296,-1.495,-4.455
11:12:47.300,-1.42,-4.375
11:12:47.304,-1.32,-4.295
11:12:47.308,-1.175,-4.14
11:12:47.312,-0.99,-3.82
11:12:47.316,-0.865,-3.47
11:12:47.320,-0.77,-3.135
11:12:47.324,-0.72,-2.715
11:12:47.328,-0.63,-2.265
11:12:47.332,-0.48,-1.76
11:12:47.336,-0.335,-1.425
11:12:47.340,-0.2,-1.13
11:12:47.344,-0.06,-0.895
11:12:47.348,0.025,-0.64
11:12:47.352,0.07,-0.38
11:12:47.356,0.11,-0.18
11:12:47.360,0.145,0.005
11:12:47.364,0.15,0.21
11:12:47.368,0.145,0.355
11:12:47.372,0.15,0.465
11:12:47.376,0.17,0.53
11:12:47.380,0.185,0.555
11:12:47.384,0.18,0.59
11:12:47.388,0.195,0.625
11:12:47.392,0.22,0.645
11:12:47.396,0.24,0.655
11:12:47.400,0.245,0.675
11:12:47.404,0.255,0.69
11:12:47.408,0.28,0.67
11:12:47.412,0.28,0.7
11:12:47.416,0.28,0.7
11:12:47.420,0.305,0.74
11:12:47.424,0.305,0.73
11:12:47.428,0.315,0.75
11:12:47.432,0.325,0.73
11:12:47.436,0.355,0.745
11:12:47.440,0.355,0.78
11:12:47.444,0.35,0.805
11:12:47.448,0.33,0.81
11:12:47.452,0.335,0.84
11:12:47.456,0.345,0.855
11:12:47.460,0.35,0.87
11:12:47.464,0.34,0.87
11:12:47.468,0.31,0.85
11:12:47.472,0.32,0.85
11:12:47.476,0.36,0.875
11:12:47.480,0.33,0.9
11:12:47.484,0.335,0.94
11:12:47.488,0.325,0.98
11:12:47.492,0.295,0.975
11:12:47.496,0.29,0.97
11:12:47.500,0.29,0.985
11:12:47.504,0.285,1.0
11:12:47.508,0.285,1.03
11:12:47.512,0.28,1.03
11:12:47.516,0.285,1.065
11:12:47.520,0.27,1.09
11:12:47.524,0.275,1.095
11:12:47.528,0.26,1.1
11:12:47.532,0.255,1.11
11:12:47.536,0.24,1.145
11:12:47.540,0.215,1.14
11:12:47.544,0.19,1.145
11:12:47.548,0.175,1.115
11:12:47.552,0.135,1.06
11:12:47.556,0.14,1.06
11:12:47.560,0.11,1.04
11:12:47.564,0.1,1.01
11:12:47.568,0.085,0.95
11:12:47.572,0.065,0.92
11:12:47.576,0.035,0.86
11:12:47.580,0.035,0.805
11:12:47.584,-0.01,0.735
11:12:47.588,-0.02,0.705
11:12:47.592,-0.025,0.655
11:12:47.596,-0.025,0.575
11:12:47.600,-0.045,0.53
11:12:47.604,-0.045,0.48
11:12:47.608,-0.05,0.415
11:12:47.612,-0.045,0.375
11:12:47.616,-0.055,0.34
11:12:47.620,-0.05,0.32
11:12:47.624,-0.065,0.28
11:12:47.628,-0.075,0.255
11:12:47.632,-0.075,0.25
11:12:47.636,-0.08,0.22
11:12:47.640,-0.095,0.205
11:12:47.644,-0.1,0.175
11:12:47.648,-0.085,0.145
11:12:47.652,-0.095,0.155
11:12:47.656,-0.09,0.135
11:12:47.660,-0.095,0.12
11:12:47.664,-0.1,0.14
11:12:47.668,-0.09,0.14
11:12:47.672,-0.07,0.145
11:12:47.676,-0.11,0.125
11:12:47.680,-0.13,0.115
11:12:47.684,-0.12,0.135
11:12:47.688,-0.1,0.145
11:12:47.692,-0.12,0.14
11:12:47.696,-0.125,0.14
11:12:47.700,-0.13,0.1
11:12:47.704,-0.13,0.105
11:12:47.708,-0.135,0.115
11:12:47.712,-0.13,0.13
11:12:47.716,-0.15,0.1
11:12:47.720,-0.16,0.105
11:12:47.724,-0.15,0.13
11:12:47.728,-0.155,0.125
11:12:47.732,-0.165,0.105
11:12:47.736,-0.125,0.1
11:12:47.740,-0.14,0.07
11:12:47.744,-0.13,0.075
11:12:47.748,-0.155,0.095
11:12:47.752,-0.15,0.09
11:12:47.756,-0.15,0.08
11:12:47.760,-0.17,0.07
11:12:47.764,-0.16,0.04
11:12:47.768,-0.155,0.03
11:12:47.772,-0.17,0.025
11:12:47.776,-0.16,0.085
11:12:47.780,-0.175,0.115
11:12:47.784,-0.14,0.095
11:12:47.788,-0.145,0.075
11:12:47.792,-0.15,0.105
11:12:47.796,-0.125,0.055
11:12:47.800,-0.145,0.055
11:12:47.804,-0.16,0.06
11:12:47.808,-0.14,0.08
11:12:47.812,-0.15,0.085
11:12:47.816,-0.16,0.055
11:12:47.820,-0.17,0.045
11:12:47.824,-0.145,0.065
11:12:47.828,-0.155,0.07
11:12:47.832,-0.15,0.07
11:12:47.836,-0.145,0.065
11:12:47.840,-0.165,0.085
11:12:47.844,-0.17,0.09
11:12:47.848,-0.195,0.08
11:12:47.852,-0.17,0.045
11:12:47.856,-0.17,0.045
11:12:47.860,-0.17,0.035
11:12:47.864,-0.17,0.03
11:12:47.868,-0.17,0.03
11:12:47.872,-0.19,0.065
11:12:47.876,-0.2,0.06
11:12:47.880,-0.185,0.06
11:12:47.884,-0.185,0.08
11:12:47.888,-0.2,0.05
11:12:47.892,-0.205,0.05
11:12:47.896,-0.225,0.055
11:12:47.900,-0.215,0.065
11:12:47.904,-0.195,0.065
11:12:47.908,-0.215,0.04
11:12:47.912,-0.17,0.035
11:12:47.916,-0.18,0.07
11:12:47.920,-0.165,0.075
11:12:47.924,-0.195,0.11
11:12:47.928,-0.2,0.125
11:12:47.932,-0.19,0.13
11:12:47.936,-0.205,0.12
11:12:47.940,-0.21,0.115
11:12:47.944,-0.205,0.11
11:12:47.948,-0.195,0.115
11:12:47.952,-0.195,0.13
11:12:47.956,-0.2,0.13
11:12:47.960,-0.205,0.115
11:12:47.964,-0.2,0.125
11:12:47.968,-0.205,0.11
11:12:47.972,-0.22,0.115
11:12:47.976,-0.22,0.095
11:12:47.980,-0.215,0.085
11:12:47.984,-0.225,0.105
11:12:47.988,-0.22,0.095
11:12:47.992,-0.225,0.07
11:12:47.996,-0.22,0.075
11:12:48.000,-0.19,0.12
11:12:48.004,-0.19,0.115
11:12:48.008,-0.225,0.105
11:12:48.012,-0.21,0.075
11:12:48.016,-0.23,0.125
11:12:48.020,-0.215,0.135
11:12:48.024,-0.215,0.13
11:12:48.028,-0.24,0.115
11:12:48.032,-0.23,0.105
11:12:48.036,-0.215,0.105
11:12:48.040,-0.22,0.105
11:12:48.044,-0.225,0.12
11:12:48.048,-0.205,0.105
11:12:48.052,-0.215,0.115
11:12:48.056,-0.2,0.125
11:12:48.060,-0.235,0.115
11:12:48.064,-0.23,0.11
11:12:48.068,-0.21,0.13
11:12:48.072,-0.225,0.13
11:12:48.076,-0.24,0.1
11:12:48.080,-0.225,0.075
11:12:48.084,-0.2,0.08
11:12:48.088,-0.205,0.065
11:12:48.092,-0.19,0.085
11:12:48.096,-0.205,0.11
11:12:48.100,-0.205,0.115
11:12:48.104,-0.225,0.13
11:12:48.108,-0.235,0.145
11:12:48.112,-0.21,0.14
11:12:48.116,-0.205,0.13
11:12:48.120,-0.23,0.115
11:12:48.124,-0.21,0.09
11:12:48.128,-0.21,0.085
11:12:48.132,-0.2,0.09
11:12:48.136,-0.19,0.13
11:12:48.140,-0.2,0.1
11:12:48.144,-0.21,0.12
11:12:48.148,-0.21,0.11
11:12:48.152,-0.21,0.125
11:12:48.156,-0.2,0.065
11:12:48.160,-0.195,0.09
11:12:48.164,-0.15,0.1
11:12:48.168,-0.115,0.085
11:12:48.172,-0.075,0.09
11:12:48.176,-0.045,0.145
11:12:48.180,-0.005,0.19
11:12:48.184,-0.01,0.205
11:12:48.188,0.01,0.23
11:12:48.192,-0.02,0.275
11:12:48.196,-0.015,0.3
11:12:48.200,-0.04,0.265
11:12:48.204,-0.06,0.24
11:12:48.208,-0.09,0.21
11:12:48.212,-0.09,0.18
11:12:48.216,-0.08,0.155
11:12:48.220,-0.07,0.145
11:12:48.224,-0.055,0.135
11:12:48.228,-0.02,0.11
11:12:48.232,-0.025,0.125
11:12:48.236,0.0,0.125
11:12:48.240,-0.025,0.145
11:12:48.244,-0.02,0.135
11:12:48.248,-0.065,0.14
11:12:48.252,-0.105,0.155
11:12:48.256,-0.17,0.165
11:12:48.260,-0.185,0.18
11:12:48.264,-0.205,0.16
11:12:48.268,-0.21,0.145
11:12:48.272,-0.245,0.11
11:12:48.276,-0.235,0.09
11:12:48.280,-0.245,0.09
11:12:48.284,-0.22,0.125
11:12:48.288,-0.22,0.1
11:12:48.292,-0.235,0.08
11:12:48.296,-0.235,0.085
11:12:48.300,-0.23,0.065
11:12:48.304,-0.24,0.06
11:12:48.308,-0.24,0.06
11:12:48.312,-0.23,0.08
11:12:48.316,-0.22,0.105
11:12:48.320,-0.235,0.12
11:12:48.324,-0.235,0.12
11:12:48.328,-0.23,0.125
11:12:48.332,-0.22,0.11
11:12:48.336,-0.235,0.115
11:12:48.340,-0.245,0.12
11:12:48.344,-0.25,0.11
11:12:48.348,-0.24,0.075
11:12:48.352,-0.23,0.07
11:12:48.356,-0.25,0.075
11:12:48.360,-0.24,0.115
11:12:48.364,-0.22,0.13
11:12:48.368,-0.2,0.11
11:12:48.372,-0.14,0.08
11:12:48.376,-0.055,0.1
11:12:48.380,0.01,0.105
11:12:48.384,0.02,0.135
11:12:48.388,-0.07,0.18
11:12:48.392,-0.2,0.25
11:12:48.396,-0.455,0.245
11:12:48.400,-0.81,-0.055
11:12:48.404,-1.17,-0.6
11:12:48.408,-1.515,-1.16
11:12:48.412,-1.795,-1.9
11:12:48.416,-1.935,-2.83
11:12:48.420,-1.93,-3.625
11:12:48.424,-1.86,-4.19
11:12:48.428,-1.88,-4.595
11:12:48.432,-1.895,-4.865
11:12:48.436,-1.845,-5.005
11:12:48.440,-1.795,-5.065
11:12:48.444,-1.75,-5.065
11:12:48.448,-1.745,-4.97
11:12:48.452,-1.71,-4.845
11:12:48.456,-1.67,-4.76
11:12:48.460,-1.655,-4.68
11:12:48.464,-1.615,-4.57
11:12:48.468,-1.485,-4.405
11:12:48.472,-1.32,-4.215
11:12:48.476,-1.105,-3.93
11:12:48.480,-0.96,-3.575
11:12:48.484,-0.865,-3.215
11:12:48.488,-0.795,-2.805
11:12:48.492,-0.705,-2.36
11:12:48.496,-0.58,-1.865
11:12:48.500,-0.45,-1.51
11:12:48.504,-0.345,-1.135
11:12:48.508,-0.24,-0.79
11:12:48.512,-0.155,-0.535
11:12:48.516,-0.115,-0.34
11:12:48.520,-0.07,-0.16
11:12:48.524,-0.025,0.01
11:12:48.528,0.005,0.175
11:12:48.532,0.035,0.335
11:12:48.536,0.06,0.49
11:12:48.540,0.065,0.62
11:12:48.544,0.055,0.725
11:12:48.548,0.05,0.775
11:12:48.552,0.075,0.785
11:12:48.556,0.085,0.815
11:12:48.560,0.1,0.815
11:12:48.564,0.12,0.835
11:12:48.568,0.13,0.84
11:12:48.572,0.12,0.825
11:12:48.576,0.145,0.84
11:12:48.580,0.155,0.875
11:12:48.584,0.18,0.885
11:12:48.588,0.165,0.94
11:12:48.592,0.215,0.94
11:12:48.596,0.2,0.94
11:12:48.600,0.22,0.91
11:12:48.604,0.21,0.965
11:12:48.608,0.225,0.985
11:12:48.612,0.225,1.005
11:12:48.616,0.245,1.015
11:12:48.620,0.25,1.01
11:12:48.624,0.275,1.01
11:12:48.628,0.295,1.045
11:12:48.632,0.33,1.08
11:12:48.636,0.375,1.12
11:12:48.640,0.455,1.13
11:12:48.644,0.535,1.145
11:12:48.648,0.61,1.195
11:12:48.652,0.665,1.205
11:12:48.656,0.67,1.255
11:12:48.660,0.615,1.315
11:12:48.664,0.575,1.41
11:12:48.668,0.52,1.465
11:12:48.672,0.44,1.5
11:12:48.676,0.405,1.47
11:12:48.680,0.33,1.435
11:12:48.684,0.31,1.38
11:12:48.688,0.28,1.38
11:12:48.692,0.275,1.35
11:12:48.696,0.255,1.355
11:12:48.700,0.26,1.33
11:12:48.704,0.21,1.335
11:12:48.708,0.165,1.34
11:12:48.712,0.105,1.34
11:12:48.716,0.095,1.3
11:12:48.720,0.095,1.32
11:12:48.724,0.085,1.31
11:12:48.728,0.055,1.31
11:12:48.732,0.05,1.3
11:12:48.736,0.02,1.27
11:12:48.740,0.0,1.24
11:12:48.744,-0.005,1.225
11:12:48.748,-0.02,1.21
11:12:48.752,-0.01,1.195
11:12:48.756,-0.065,1.15
11:12:48.760,-0.075,1.105
11:12:48.764,-0.115,1.075
11:12:48.768,-0.15,1.05
11:12:48.772,-0.15,0.995
11:12:48.776,-0.185,0.965
11:12:48.780,-0.215,0.9
11:12:48.784,-0.23,0.835
11:12:48.788,-0.225,0.78
11:12:48.792,-0.255,0.725
11:12:48.796,-0.27,0.68
11:12:48.800,-0.27,0.6
11:12:48.804,-0.285,0.545
11:12:48.808,-0.31,0.5
11:12:48.812,-0.34,0.45
11:12:48.816,-0.325,0.415
11:12:48.820,-0.34,0.395
11:12:48.824,-0.355,0.3
11:12:48.828,-0.345,0.275
11:12:48.832,-0.335,0.25
11:12:48.836,-0.33,0.275
11:12:48.840,-0.325,0.25
11:12:48.844,-0.335,0.225
11:12:48.848,-0.33,0.205
11:12:48.852,-0.315,0.215
11:12:48.856,-0.315,0.195
11:12:48.860,-0.33,0.22
11:12:48.864,-0.31,0.23
11:12:48.868,-0.325,0.225
11:12:48.872,-0.3,0.18
11:12:48.876,-0.29,0.185
11:12:48.880,-0.265,0.205
11:12:48.884,-0.255,0.21
11:12:48.888,-0.24,0.225
11:12:48.892,-0.215,0.245
11:12:48.896,-0.17,0.265
11:12:48.900,-0.145,0.29
11:12:48.904,-0.105,0.295
11:12:48.908,-0.055,0.34
11:12:48.912,-0.005,0.355
11:12:48.916,0.07,0.39
11:12:48.920,0.105,0.43
11:12:48.924,0.15,0.455
11:12:48.928,0.13,0.485
11:12:48.932,0.09,0.525
11:12:48.936,0.035,0.54
11:12:48.940,-0.005,0.535
11:12:48.944,-0.02,0.51
11:12:48.948,0.02,0.495
11:12:48.952,0.155,0.465
11:12:48.956,0.315,0.42
11:12:48.960,0.435,0.37
11:12:48.964,0.39,0.325
11:12:48.968,0.205,0.275
11:12:48.972,-0.09,0.25
11:12:48.976,-0.555,0.105
11:12:48.980,-1.03,-0.265
11:12:48.984,-1.355,-0.87
11:12:48.988,-1.505,-1.63
11:12:48.992,-1.575,-2.55
11:12:48.996,-1.52,-3.35
11:12:49.000,-1.47,-3.935
11:12:49.004,-1.47,-4.39
11:12:49.008,-1.44,-4.65
11:12:49.012,-1.325,-4.8
11:12:49.016,-1.24,-4.875
11:12:49.020,-1.14,-4.84
11:12:49.024,-1.125,-4.705
11:12:49.028,-1.08,-4.565
11:12:49.032,-1.11,-4.425
11:12:49.036,-1.18,-4.315
11:12:49.040,-1.165,-4.225
11:12:49.044,-1.07,-4.055
11:12:49.048,-0.965,-3.725
11:12:49.052,-0.85,-3.355
11:12:49.056,-0.785,-2.985
11:12:49.060,-0.72,-2.55
11:12:49.064,-0.59,-2.06
11:12:49.068,-0.395,-1.6
11:12:49.072,-0.275,-1.21
11:12:49.076,-0.2,-0.875
11:12:49.080,-0.16,-0.53
11:12:49.084,-0.13,-0.285
11:12:49.088,-0.09,-0.075
11:12:49.092,-0.1,0.115
11:12:49.096,-0.11,0.28
11:12:49.100,-0.085,0.42
11:12:49.104,-0.04,0.55
11:12:49.108,-0.02,0.62
11:12:49.112,-0.015,0.66
11:12:49.116,0.005,0.71
11:12:49.120,0.045,0.715
11:12:49.124,0.09,0.765
11:12:49.128,0.13,0.775
11:12:49.132,0.175,0.835
11:12:49.136,0.255,0.85
11:12:49.140,0.295,0.865
11:12:49.144,0.325,0.93
11:12:49.148,0.34,0.96
11:12:49.152,0.3,0.995
11:12:49.156,0.275,1.01
11:12:49.160,0.205,1.005
11:12:49.164,0.185,0.94
11:12:49.168,0.18,0.925
11:12:49.172,0.155,0.915
11:12:49.176,0.135,0.91
11:12:49.180,0.15,0.865
11:12:49.184,0.155,0.87
11:12:49.188,0.16,0.875
11:12:49.192,0.145,0.88
11:12:49.196,0.135,0.85
11:12:49.200,0.125,0.86
11:12:49.204,0.105,0.875
11:12:49.208,0.1,0.87
11:12:49.212,0.075,0.86
11:12:49.216,0.04,0.89
11:12:49.220,0.025,0.885
11:12:49.224,0.005,0.9
11:12:49.228,-0.005,0.91
11:12:49.232,-0.01,0.91
11:12:49.236,-0.025,0.91
11:12:49.240,-0.035,0.945
11:12:49.244,-0.055,0.965
11:12:49.248,-0.075,0.99
11:12:49.252,-0.075,1.005
11:12:49.256,-0.1,1.015
11:12:49.260,-0.12,1.03
11:12:49.264,-0.105,1.02
11:12:49.268,-0.105,1.045
11:12:49.272,-0.1,1.05
11:12:49.276,-0.1,1.045
11:12:49.280,-0.09,1.09
11:12:49.284,-0.105,1.09
11:12:49.288,-0.11,1.09
11:12:49.292,-0.12,1.075
11:12:49.296,-0.155,1.06
11:12:49.300,-0.17,1.01
11:12:49.304,-0.185,1.02
11:12:49.308,-0.15,0.99
11:12:49.312,-0.14,0.92
11:12:49.316,-0.135,0.895
11:12:49.320,-0.115,0.825
11:12:49.324,-0.12,0.785
11:12:49.328,-0.1,0.735
11:12:49.332,-0.065,0.71
11:12:49.336,-0.02,0.64
11:12:49.340,0.02,0.635
11:12:49.344,0.05,0.58
11:12:49.348,0.065,0.565
11:12:49.352,0.045,0.57
11:12:49.356,0.025,0.585
11:12:49.360,-0.005,0.535
11:12:49.364,-0.045,0.505
11:12:49.368,-0.08,0.475
11:12:49.372,-0.065,0.41
11:12:49.376,-0.08,0.37
11:12:49.380,-0.08,0.345
11:12:49.384,-0.09,0.325
11:12:49.388,-0.1,0.265
11:12:49.392,-0.135,0.205
11:12:49.396,-0.135,0.22
11:12:49.400,-0.13,0.22
11:12:49.404,-0.135,0.215
11:12:49.408,-0.145,0.16
11:12:49.412,-0.17,0.15
11:12:49.416,-0.18,0.16
11:12:49.420,-0.19,0.165
11:12:49.424,-0.225,0.135
11:12:49.428,-0.25,0.135
11:12:49.432,-0.27,0.13
11:12:49.436,-0.27,0.11
11:12:49.440,-0.255,0.085
11:12:49.444,-0.28,0.08
11:12:49.448,-0.27,0.085
11:12:49.452,-0.27,0.09
11:12:49.456,-0.28,0.105
11:12:49.460,-0.275,0.105
11:12:49.464,-0.29,0.11
11:12:49.468,-0.3,0.09
11:12:49.472,-0.31,0.085
11:12:49.476,-0.27,0.075
11:12:49.480,-0.29,0.095
11:12:49.484,-0.28,0.075
11:12:49.488,-0.265,0.065
11:12:49.492,-0.26,0.065
11:12:49.496,-0.255,0.075
11:12:49.500,-0.265,0.08
11:12:49.504,-0.225,0.085
11:12:49.508,-0.23,0.105
11:12:49.512,-0.22,0.135
11:12:49.516,-0.195,0.12
11:12:49.520,-0.17,0.1
11:12:49.524,-0.14,0.08
11:12:49.528,-0.12,0.11
11:12:49.532,-0.105,0.15
11:12:49.536,-0.09,0.175
11:12:49.540,-0.06,0.16
11:12:49.544,-0.04,0.185
11:12:49.548,0.02,0.195
11:12:49.552,0.06,0.21
11:12:49.556,0.055,0.23
11:12:49.560,0.05,0.245
11:12:49.564,0.01,0.24
11:12:49.568,-0.025,0.26
11:12:49.572,-0.075,0.245
11:12:49.576,-0.08,0.22
11:12:49.580,-0.09,0.21
11:12:49.584,-0.075,0.175
11:12:49.588,-0.07,0.14
11:12:49.592,-0.07,0.13
11:12:49.596,-0.03,0.11
11:12:49.600,0.08,0.07
11:12:49.604,0.18,0.065
11:12:49.608,0.225,0.05
11:12:49.612,0.145,0.085
11:12:49.616,0.0,0.145
11:12:49.620,-0.3,0.165
11:12:49.624,-0.75,0.02
11:12:49.628,-1.22,-0.405
11:12:49.632,-1.625,-0.97
11:12:49.636,-1.905,-1.78
11:12:49.640,-2.045,-2.76
11:12:49.644,-1.98,-3.605
11:12:49.648,-1.845,-4.19
11:12:49.652,-1.81,-4.635
11:12:49.656,-1.83,-4.92
11:12:49.660,-1.765,-5.065
11:12:49.664,-1.67,-5.095
11:12:49.668,-1.635,-5.035
11:12:49.672,-1.61,-4.9
11:12:49.676,-1.56,-4.74
11:12:49.680,-1.54,-4.61
11:12:49.684,-1.575,-4.54
11:12:49.688,-1.55,-4.43
11:12:49.692,-1.455,-4.305
11:12:49.696,-1.295,-4.045
11:12:49.700,-1.11,-3.755
11:12:49.704,-0.945,-3.41
11:12:49.708,-0.82,-3.02
11:12:49.712,-0.725,-2.55
11:12:49.716,-0.61,-2.055
11:12:49.720,-0.475,-1.565
11:12:49.724,-0.355,-1.185
11:12:49.728,-0.215,-0.885
11:12:49.732,-0.13,-0.615
11:12:49.736,-0.08,-0.405
11:12:49.740,-0.045,-0.265
11:12:49.744,0.035,-0.02
11:12:49.748,0.075,0.185
11:12:49.752,0.11,0.375
11:12:49.756,0.105,0.505
11:12:49.760,0.125,0.615
11:12:49.764,0.14,0.71
11:12:49.768,0.15,0.765
11:12:49.772,0.16,0.765
11:12:49.776,0.205,0.8
11:12:49.780,0.23,0.84
11:12:49.784,0.25,0.86
11:12:49.788,0.265,0.89
11:12:49.792,0.3,0.89
11:12:49.796,0.335,0.905
11:12:49.800,0.38,0.96
11:12:49.804,0.435,0.985
11:12:49.808,0.51,0.98
11:12:49.812,0.56,1.0
11:12:49.816,0.61,1.015
11:12:49.820,0.655,1.05
11:12:49.824,0.675,1.09
11:12:49.828,0.66,1.145
11:12:49.832,0.615,1.18
11:12:49.836,0.565,1.235
11:12:49.840,0.545,1.26
11:12:49.844,0.535,1.305
11:12:49.848,0.475,1.31
11:12:49.852,0.495,1.29
11:12:49.856,0.505,1.26
11:12:49.860,0.525,1.245
11:12:49.864,0.5,1.24
11:12:49.868,0.49,1.235
11:12:49.872,0.49,1.26
11:12:49.876,0.48,1.28
11:12:49.880,0.455,1.265
11:12:49.884,0.415,1.24
11:12:49.888,0.43,1.275
11:12:49.892,0.405,1.305
11:12:49.896,0.41,1.31
11:12:49.900,0.38,1.295
11:12:49.904,0.425,1.3
11:12:49.908,0.4,1.295
11:12:49.912,0.37,1.31
11:12:49.916,0.38,1.305
11:12:49.920,0.375,1.335
11:12:49.924,0.37,1.37
11:12:49.928,0.33,1.375
11:12:49.932,0.32,1.345
11:12:49.936,0.285,1.325
11:12:49.940,0.26,1.3
11:12:49.944,0.205,1.29
11:12:49.948,0.17,1.24
11:12:49.952,0.17,1.185
11:12:49.956,0.145,1.15
11:12:49.960,0.125,1.085
11:12:49.964,0.075,1.04
11:12:49.968,0.04,0.97
11:12:49.972,-0.005,0.92
11:12:49.976,-0.005,0.87
11:12:49.980,-0.045,0.8
11:12:49.984,-0.05,0.74
11:12:49.988,-0.065,0.685
11:12:49.992,-0.08,0.65
11:12:49.996,-0.09,0.575
11:12:50.000,-0.065,0.53
11:12:50.004,-0.09,0.505
11:12:50.008,-0.075,0.43
11:12:50.012,-0.07,0.41
11:12:50.016,-0.09,0.37
11:12:50.020,-0.09,0.34
11:12:50.024,-0.095,0.325
11:12:50.028,-0.08,0.32
11:12:50.032,-0.07,0.31
11:12:50.036,-0.06,0.3
11:12:50.040,-0.07,0.26
11:12:50.044,-0.07,0.27
11:12:50.048,-0.06,0.31
11:12:50.052,-0.04,0.29
11:12:50.056,-0.04,0.295
11:12:50.060,-0.04,0.305
11:12:50.064,-0.05,0.285
11:12:50.068,-0.025,0.275
11:12:50.072,-0.04,0.26
11:12:50.076,-0.03,0.265
11:12:50.080,-0.025,0.285
11:12:50.084,-0.005,0.275
11:12:50.088,0.015,0.285
11:12:50.092,0.03,0.27
11:12:50.096,0.155,0.26
11:12:50.100,0.36,0.245
11:12:50.104,0.455,0.245
11:12:50.108,0.315,0.295
11:12:50.112,0.075,0.345
11:12:50.116,-0.325,0.385
11:12:50.120,-0.93,0.21
11:12:50.124,-1.56,-0.16
11:12:50.128,-2.055,-0.62
11:12:50.132,-2.365,-1.32
11:12:50.136,-2.485,-2.265
11:12:50.140,-2.455,-3.065
11:12:50.144,-2.31,-3.705
11:12:50.148,-2.14,-4.225
11:12:50.152,-2.015,-4.585
11:12:50.156,-1.865,-4.77
11:12:50.160,-1.745,-4.825
11:12:50.164,-1.71,-4.67
11:12:50.168,-1.575,-4.47
11:12:50.172,-1.42,-4.325
11:12:50.176,-1.32,-4.215
11:12:50.180,-1.245,-4.155
11:12:50.184,-1.14,-4.01
11:12:50.188,-0.965,-3.74
11:12:50.192,-0.825,-3.44
11:12:50.196,-0.705,-3.04
11:12:50.200,-0.66,-2.63
11:12:50.204,-0.555,-2.125
11:12:50.208,-0.395,-1.685
11:12:50.212,-0.24,-1.325
11:12:50.216,-0.125,-1.005
11:12:50.220,-0.01,-0.74
11:12:50.224,0.065,-0.475
11:12:50.228,0.105,-0.27
11:12:50.232,0.135,-0.04
11:12:50.236,0.155,0.15
11:12:50.240,0.17,0.32
11:12:50.244,0.175,0.455
11:12:50.248,0.19,0.575
11:12:50.252,0.22,0.65
11:12:50.256,0.22,0.705
11:12:50.260,0.22,0.745
11:12:50.264,0.205,0.77
11:12:50.268,0.245,0.775
11:12:50.272,0.285,0.805
11:12:50.276,0.27,0.805
11:12:50.280,0.29,0.795
11:12:50.284,0.275,0.815
11:12:50.288,0.31,0.795
11:12:50.292,0.325,0.815
11:12:50.296,0.365,0.855
11:12:50.300,0.345,0.875
11:12:50.304,0.34,0.855
11:12:50.308,0.34,0.88
11:12:50.312,0.34,0.875
11:12:50.316,0.34,0.9
11:12:50.320,0.365,0.935
11:12:50.324,0.36,0.925
11:12:50.328,0.355,0.935
11:12:50.332,0.355,0.94
11:12:50.336,0.35,0.96
11:12:50.340,0.35,0.96
11:12:50.344,0.345,0.97
11:12:50.348,0.355,1.015
11:12:50.352,0.35,1.02
11:12:50.356,0.34,1.015
11:12:50.360,0.345,1.06
11:12:50.364,0.35,1.085
11:12:50.368,0.335,1.07
11:12:50.372,0.325,1.08
11:12:50.376,0.32,1.135
11:12:50.380,0.33,1.17
11:12:50.384,0.31,1.18
11:12:50.388,0.295,1.165
11:12:50.392,0.315,1.155
11:12:50.396,0.295,1.165
11:12:50.400,0.285,1.18
11:12:50.404,0.28,1.215
11:12:50.408,0.26,1.2
11:12:50.412,0.22,1.185
11:12:50.416,0.22,1.165
11:12:50.420,0.21,1.16
11:12:50.424,0.21,1.12
11:12:50.428,0.165,1.12
11:12:50.432,0.13,1.06
11:12:50.436,0.105,1.03
11:12:50.440,0.07,0.975
11:12:50.444,0.065,0.915
11:12:50.448,0.05,0.87
11:12:50.452,0.01,0.815
11:12:50.456,0.02,0.76
11:12:50.460,0.0,0.7
11:12:50.464,-0.005,0.625
11:12:50.468,-0.005,0.58
11:12:50.472,-0.025,0.525
11:12:50.476,-0.035,0.515
11:12:50.480,-0.065,0.465
11:12:50.484,-0.045,0.43
11:12:50.488,-0.065,0.36
11:12:50.492,-0.08,0.33
11:12:50.496,-0.07,0.325
11:12:50.500,-0.07,0.315
11:12:50.504,-0.06,0.285
11:12:50.508,-0.09,0.245
11:12:50.512,-0.085,0.235
11:12:50.516,-0.11,0.245
11:12:50.520,-0.095,0.255
11:12:50.524,-0.115,0.23
11:12:50.528,-0.115,0.205
11:12:50.532,-0.105,0.195
11:12:50.536,-0.13,0.19
11:12:50.540,-0.125,0.165
11:12:50.544,-0.11,0.205
11:12:50.548,-0.105,0.2
11:12:50.552,-0.12,0.185
11:12:50.556,-0.11,0.175
11:12:50.560,-0.14,0.2
11:12:50.564,-0.145,0.16
11:12:50.568,-0.165,0.15
11:12:50.572,-0.16,0.15
11:12:50.576,-0.16,0.16
11:12:50.580,-0.17,0.165
11:12:50.584,-0.155,0.14
11:12:50.588,-0.16,0.125
11:12:50.592,-0.14,0.115
11:12:50.596,-0.155,0.12
11:12:50.600,-0.18,0.12
11:12:50.604,-0.17,0.11
11:12:50.608,-0.17,0.12
11:12:50.612,-0.175,0.155
11:12:50.616,-0.18,0.155
11:12:50.620,-0.175,0.14
11:12:50.624,-0.17,0.135
11:12:50.628,-0.15,0.12
11:12:50.632,-0.17,0.125
11:12:50.636,-0.16,0.125
11:12:50.640,-0.17,0.115
11:12:50.644,-0.165,0.125
11:12:50.648,-0.18,0.135
11:12:50.652,-0.185,0.15
11:12:50.656,-0.18,0.165
11:12:50.660,-0.19,0.175
11:12:50.664,-0.175,0.14
11:12:50.668,-0.195,0.125
11:12:50.672,-0.175,0.125
11:12:50.676,-0.17,0.105
11:12:50.680,-0.19,0.095
11:12:50.684,-0.185,0.095
11:12:50.688,-0.195,0.105
11:12:50.692,-0.195,0.085
11:12:50.696,-0.2,0.09
11:12:50.700,-0.19,0.105
11:12:50.704,-0.195,0.1
11:12:50.708,-0.19,0.115
11:12:50.712,-0.2,0.115
11:12:50.716,-0.2,0.115
11:12:50.720,-0.185,0.09
11:12:50.724,-0.2,0.095
11:12:50.728,-0.205,0.1
11:12:50.732,-0.19,0.11
11:12:50.736,-0.195,0.115
11:12:50.740,-0.195,0.095
11:12:50.744,-0.2,0.085
11:12:50.748,-0.215,0.11
11:12:50.752,-0.205,0.1
11:12:50.756,-0.21,0.085
11:12:50.760,-0.22,0.09
11:12:50.764,-0.22,0.135
11:12:50.768,-0.215,0.12
11:12:50.772,-0.235,0.1
11:12:50.776,-0.255,0.105
11:12:50.780,-0.27,0.1
11:12:50.784,-0.25,0.085
11:12:50.788,-0.235,0.08
11:12:50.792,-0.24,0.11
11:12:50.796,-0.22,0.12
11:12:50.800,-0.22,0.1
11:12:50.804,-0.215,0.105
11:12:50.808,-0.23,0.11
11:12:50.812,-0.24,0.095
11:12:50.816,-0.24,0.1
11:12:50.820,-0.26,0.11
11:12:50.824,-0.24,0.1
11:12:50.828,-0.265,0.09
11:12:50.832,-0.25,0.055
11:12:50.836,-0.235,0.085
11:12:50.840,-0.235,0.12
11:12:50.844,-0.25,0.11
11:12:50.848,-0.23,0.095
11:12:50.852,-0.225,0.06
11:12:50.856,-0.25,0.11
11:12:50.860,-0.255,0.14
11:12:50.864,-0.255,0.095
11:12:50.868,-0.235,0.115
11:12:50.872,-0.25,0.08
11:12:50.876,-0.265,0.09
11:12:50.880,-0.23,0.11
11:12:50.884,-0.25,0.1
11:12:50.888,-0.24,0.12
11:12:50.892,-0.255,0.125
11:12:50.896,-0.26,0.135
11:12:50.900,-0.27,0.12
11:12:50.904,-0.275,0.105
11:12:50.908,-0.26,0.13
11:12:50.912,-0.26,0.125
11:12:50.916,-0.265,0.115
11:12:50.920,-0.26,0.12
11:12:50.924,-0.255,0.11
11:12:50.928,-0.26,0.135
11:12:50.932,-0.255,0.13
11:12:50.936,-0.27,0.14
11:12:50.940,-0.275,0.135
11:12:50.944,-0.285,0.135
11:12:50.948,-0.29,0.13
11:12:50.952,-0.265,0.115
11:12:50.956,-0.285,0.115
11:12:50.960,-0.28,0.11
11:12:50.964,-0.26,0.095
11:12:50.968,-0.255,0.12
11:12:50.972,-0.275,0.145
11:12:50.976,-0.26,0.155
11:12:50.980,-0.24,0.125
11:12:50.984,-0.23,0.14
11:12:50.988,-0.24,0.15
11:12:50.992,-0.21,0.15
11:12:50.996,-0.16,0.155
11:12:51.000,-0.145,0.155
11:12:51.004,-0.08,0.175
11:12:51.008,-0.05,0.23
11:12:51.012,-0.04,0.25
11:12:51.016,-0.065,0.255
11:12:51.020,-0.095,0.275
11:12:51.024,-0.13,0.295
11:12:51.028,-0.13,0.31
11:12:51.032,-0.155,0.25
11:12:51.036,-0.17,0.22
11:12:51.040,-0.185,0.2
11:12:51.044,-0.165,0.18
11:12:51.048,-0.115,0.135
11:12:51.052,-0.095,0.14
11:12:51.056,-0.07,0.075
11:12:51.060,-0.055,0.06
11:12:51.064,-0.065,0.11
11:12:51.068,-0.095,0.16
11:12:51.072,-0.16,0.19
11:12:51.076,-0.205,0.195
11:12:51.080,-0.235,0.205
11:12:51.084,-0.28,0.205
11:12:51.088,-0.285,0.17
11:12:51.092,-0.285,0.175
11:12:51.096,-0.295,0.145
11:12:51.100,-0.295,0.125
11:12:51.104,-0.285,0.155
11:12:51.108,-0.31,0.145
11:12:51.112,-0.29,0.115
11:12:51.116,-0.31,0.12
11:12:51.120,-0.32,0.12
11:12:51.124,-0.32,0.13
11:12:51.128,-0.33,0.135
11:12:51.132,-0.33,0.13
11:12:51.136,-0.305,0.125
11:12:51.140,-0.32,0.13
11:12:51.144,-0.31,0.12
11:12:51.148,-0.32,0.115
11:12:51.152,-0.315,0.125
11:12:51.156,-0.34,0.125
11:12:51.160,-0.315,0.11
11:12:51.164,-0.33,0.075
11:12:51.168,-0.335,0.11
11:12:51.172,-0.315,0.115
11:12:51.176,-0.3,0.135
11:12:51.180,-0.29,0.13
11:12:51.184,-0.285,0.105
11:12:51.188,-0.265,0.1
11:12:51.192,-0.16,0.09
11:12:51.196,-0.06,0.135
11:12:51.200,-0.02,0.17
11:12:51.204,-0.1,0.19
11:12:51.208,-0.21,0.255
11:12:51.212,-0.425,0.27
11:12:51.216,-0.77,0.025
11:12:51.220,-1.145,-0.46
11:12:51.224,-1.52,-1.045
11:12:51.228,-1.825,-1.82
11:12:51.232,-1.985,-2.74
11:12:51.236,-1.97,-3.515
11:12:51.240,-1.94,-4.105
11:12:51.244,-1.97,-4.565
11:12:51.248,-1.975,-4.835
11:12:51.252,-1.92,-4.995
11:12:51.256,-1.845,-5.04
11:12:51.260,-1.79,-4.99
11:12:51.264,-1.78,-4.865
11:12:51.268,-1.745,-4.75
11:12:51.272,-1.68,-4.645
11:12:51.276,-1.665,-4.56
11:12:51.280,-1.565,-4.46
11:12:51.284,-1.42,-4.295
11:12:51.288,-1.225,-4.035
11:12:51.292,-1.055,-3.72
11:12:51.296,-0.92,-3.375
11:12:51.300,-0.845,-2.99
11:12:51.304,-0.745,-2.54
11:12:51.308,-0.64,-2.05
11:12:51.312,-0.52,-1.615
11:12:51.316,-0.41,-1.19
11:12:51.320,-0.305,-0.84
11:12:51.324,-0.21,-0.53
11:12:51.328,-0.16,-0.35
11:12:51.332,-0.1,-0.15
11:12:51.336,-0.045,0.04
11:12:51.340,-0.04,0.19
11:12:51.344,-0.01,0.375
11:12:51.348,0.0,0.515
11:12:51.352,0.04,0.67
11:12:51.356,0.065,0.735
11:12:51.360,0.045,0.8
11:12:51.364,0.045,0.8
11:12:51.368,0.065,0.84
11:12:51.372,0.075,0.865
11:12:51.376,0.09,0.925
11:12:51.380,0.1,0.92
11:12:51.384,0.105,0.905
11:12:51.388,0.125,0.945
11:12:51.392,0.16,0.965
11:12:51.396,0.17,0.985
11:12:51.400,0.165,0.99
11:12:51.404,0.17,1.02
11:12:51.408,0.165,1.015
11:12:51.412,0.18,1.025
11:12:51.416,0.17,1.045
11:12:51.420,0.18,1.06
11:12:51.424,0.19,1.065
11:12:51.428,0.19,1.05
11:12:51.432,0.21,1.09
11:12:51.436,0.245,1.105
11:12:51.440,0.24,1.12
11:12:51.444,0.3,1.125
11:12:51.448,0.34,1.155
11:12:51.452,0.39,1.195
11:12:51.456,0.46,1.23
11:12:51.460,0.54,1.27
11:12:51.464,0.595,1.315
11:12:51.468,0.585,1.35
11:12:51.472,0.58,1.435
11:12:51.476,0.53,1.475
11:12:51.480,0.475,1.55
11:12:51.484,0.41,1.535
11:12:51.488,0.36,1.565
11:12:51.492,0.295,1.52
11:12:51.496,0.27,1.485
11:12:51.500,0.23,1.46
11:12:51.504,0.215,1.445
11:12:51.508,0.18,1.41
11:12:51.512,0.155,1.375
11:12:51.516,0.12,1.36
11:12:51.520,0.08,1.375
11:12:51.524,0.045,1.355
11:12:51.528,0.035,1.36
11:12:51.532,0.03,1.34
11:12:51.536,-0.005,1.325
11:12:51.540,-0.025,1.335
11:12:51.544,-0.045,1.31
11:12:51.548,-0.06,1.295
11:12:51.552,-0.085,1.26
11:12:51.556,-0.11,1.22
11:12:51.560,-0.13,1.185
11:12:51.564,-0.16,1.15
11:12:51.568,-0.155,1.13
11:12:51.572,-0.215,1.075
11:12:51.576,-0.23,1.04
11:12:51.580,-0.24,0.98
11:12:51.584,-0.275,0.935
11:12:51.588,-0.29,0.885
11:12:51.592,-0.32,0.83
11:12:51.596,-0.315,0.765
11:12:51.600,-0.33,0.69
11:12:51.604,-0.34,0.62
11:12:51.608,-0.335,0.6
11:12:51.612,-0.345,0.57
11:12:51.616,-0.37,0.515
11:12:51.620,-0.385,0.44
11:12:51.624,-0.385,0.385
11:12:51.628,-0.385,0.345
11:12:51.632,-0.395,0.315
11:12:51.636,-0.425,0.3
11:12:51.640,-0.395,0.3
11:12:51.644,-0.39,0.28
11:12:51.648,-0.385,0.285
11:12:51.652,-0.375,0.275
11:12:51.656,-0.365,0.255
11:12:51.660,-0.375,0.275
11:12:51.664,-0.365,0.285
11:12:51.668,-0.35,0.265
11:12:51.672,-0.35,0.275
11:12:51.676,-0.34,0.28
11:12:51.680,-0.33,0.275
11:12:51.684,-0.335,0.265
11:12:51.688,-0.32,0.26
11:12:51.692,-0.29,0.27
11:12:51.696,-0.26,0.3
11:12:51.700,-0.245,0.33
11:12:51.704,-0.21,0.385
11:12:51.708,-0.195,0.395
11:12:51.712,-0.17,0.385
11:12:51.716,-0.145,0.425
11:12:51.720,-0.085,0.44
11:12:51.724,-0.005,0.46
11:12:51.728,0.025,0.5
11:12:51.732,0.055,0.515
11:12:51.736,0.045,0.53
11:12:51.740,-0.005,0.57
11:12:51.744,-0.055,0.61
11:12:51.748,-0.1,0.585
11:12:51.752,-0.155,0.545
11:12:51.756,-0.19,0.505
11:12:51.760,-0.2,0.475
11:12:51.764,-0.205,0.45
11:12:51.768,-0.155,0.435
11:12:51.772,-0.06,0.375
11:12:51.776,0.105,0.325
11:12:51.780,0.15,0.315
11:12:51.784,0.13,0.37
11:12:51.788,0.0,0.45
11:12:51.792,-0.315,0.435
11:12:51.796,-0.825,0.2
11:12:51.800,-1.265,-0.28
11:12:51.804,-1.61,-0.84
11:12:51.808,-1.755,-1.64
11:12:51.812,-1.77,-2.6
11:12:51.816,-1.66,-3.405
11:12:51.820,-1.605,-4.045
11:12:51.824,-1.615,-4.485
11:12:51.828,-1.66,-4.75
11:12:51.832,-1.63,-4.905
11:12:51.836,-1.605,-4.95
11:12:51.840,-1.655,-4.885
11:12:51.844,-1.64,-4.75
11:12:51.848,-1.625,-4.69
11:12:51.852,-1.655,-4.61
11:12:51.856,-1.725,-4.52
11:12:51.860,-1.69,-4.45
11:12:51.864,-1.59,-4.275
11:12:51.868,-1.49,-3.985
11:12:51.872,-1.395,-3.7
11:12:51.876,-1.315,-3.42
11:12:51.880,-1.225,-3.02
11:12:51.884,-1.1,-2.565
11:12:51.888,-0.91,-2.05
11:12:51.892,-0.69,-1.59
11:12:51.896,-0.52,-1.22
11:12:51.900,-0.37,-0.92
11:12:51.904,-0.25,-0.665
11:12:51.908,-0.17,-0.41
11:12:51.912,-0.11,-0.11
11:12:51.916,-0.07,0.135
11:12:51.920,-0.045,0.325
11:12:51.924,-0.01,0.47
11:12:51.928,0.015,0.645
11:12:51.932,0.065,0.745
11:12:51.936,0.115,0.79
11:12:51.940,0.15,0.83
11:12:51.944,0.225,0.85
11:12:51.948,0.25,0.895
11:12:51.952,0.28,0.935
11:12:51.956,0.29,0.98
11:12:51.960,0.265,1.005
11:12:51.964,0.22,0.98
11:12:51.968,0.18,0.975
11:12:51.972,0.185,0.965
11:12:51.976,0.17,0.98
11:12:51.980,0.165,0.96
11:12:51.984,0.155,0.98
11:12:51.988,0.175,0.98
11:12:51.992,0.18,0.945
11:12:51.996,0.19,0.965
11:12:52.000,0.185,0.945
11:12:52.004,0.18,0.975
11:12:52.008,0.17,0.985
11:12:52.012,0.16,1.005
11:12:52.016,0.14,0.99
11:12:52.020,0.135,1.02
11:12:52.024,0.12,1.015
11:12:52.028,0.095,1.025
11:12:52.032,0.065,1.02
11:12:52.036,0.075,1.04
11:12:52.040,0.095,1.04
11:12:52.044,0.075,1.045
11:12:52.048,0.075,1.055
11:12:52.052,0.075,1.055
11:12:52.056,0.05,1.105
11:12:52.060,0.045,1.15
11:12:52.064,0.05,1.145
11:12:52.068,0.035,1.16
11:12:52.072,0.05,1.16
11:12:52.076,0.05,1.135
11:12:52.080,0.06,1.16
11:12:52.084,0.06,1.17
11:12:52.088,0.04,1.195
11:12:52.092,0.03,1.22
11:12:52.096,0.03,1.23
11:12:52.100,0.015,1.225
11:12:52.104,-0.005,1.245
11:12:52.108,-0.015,1.235
11:12:52.112,-0.02,1.215
11:12:52.116,-0.035,1.21
11:12:52.120,-0.045,1.195
11:12:52.124,-0.045,1.19
11:12:52.128,-0.035,1.16
11:12:52.132,-0.04,1.1
11:12:52.136,-0.035,1.06
11:12:52.140,-0.035,1.045
11:12:52.144,-0.015,1.025
11:12:52.148,-0.005,0.975
11:12:52.152,0.01,0.91
11:12:52.156,0.015,0.88
11:12:52.160,0.0,0.84
11:12:52.164,-0.025,0.845
11:12:52.168,-0.08,0.805
11:12:52.172,-0.12,0.71
11:12:52.176,-0.16,0.67
11:12:52.180,-0.195,0.575
11:12:52.184,-0.19,0.565
11:12:52.188,-0.19,0.52
11:12:52.192,-0.22,0.5
11:12:52.196,-0.24,0.435
11:12:52.200,-0.255,0.41
11:12:52.204,-0.27,0.39
11:12:52.208,-0.28,0.355
11:12:52.212,-0.285,0.295
11:12:52.216,-0.265,0.28
11:12:52.220,-0.305,0.275
11:12:52.224,-0.31,0.25
11:12:52.228,-0.33,0.24
11:12:52.232,-0.38,0.22
11:12:52.236,-0.375,0.24
11:12:52.240,-0.385,0.245
11:12:52.244,-0.415,0.225
11:12:52.248,-0.41,0.235
11:12:52.252,-0.41,0.19
11:12:52.256,-0.39,0.19
11:12:52.260,-0.405,0.185
11:12:52.264,-0.41,0.15
11:12:52.268,-0.395,0.155
11:12:52.272,-0.38,0.175
11:12:52.276,-0.38,0.19
11:12:52.280,-0.415,0.205
11:12:52.284,-0.415,0.185
11:12:52.288,-0.4,0.19
11:12:52.292,-0.41,0.195
11:12:52.296,-0.42,0.18
11:12:52.300,-0.405,0.155
11:12:52.304,-0.385,0.13
11:12:52.308,-0.39,0.135
11:12:52.312,-0.395,0.17
11:12:52.316,-0.38,0.165
11:12:52.320,-0.375,0.17
11:12:52.324,-0.36,0.17
11:12:52.328,-0.36,0.17
11:12:52.332,-0.335,0.21
11:12:52.336,-0.34,0.22
11:12:52.340,-0.305,0.215
11:12:52.344,-0.295,0.24
11:12:52.348,-0.255,0.265
11:12:52.352,-0.21,0.255
11:12:52.356,-0.17,0.265
11:12:52.360,-0.17,0.29
11:12:52.364,-0.155,0.295
11:12:52.368,-0.16,0.31
11:12:52.372,-0.165,0.325
11:12:52.376,-0.175,0.34
11:12:52.380,-0.245,0.355
11:12:52.384,-0.245,0.335
11:12:52.388,-0.255,0.305
11:12:52.392,-0.255,0.25
11:12:52.396,-0.245,0.235
11:12:52.400,-0.25,0.225
11:12:52.404,-0.25,0.21
11:12:52.408,-0.24,0.18
11:12:52.412,-0.19,0.185
11:12:52.416,-0.09,0.185
11:12:52.420,0.045,0.155
11:12:52.424,0.125,0.145
11:12:52.428,0.085,0.185
11:12:52.432,0.005,0.27
11:12:52.436,-0.23,0.335
11:12:52.440,-0.625,0.165
11:12:52.444,-1.055,-0.23
11:12:52.448,-1.425,-0.75
11:12:52.452,-1.67,-1.455
11:12:52.456,-1.815,-2.43
11:12:52.460,-1.765,-3.315
11:12:52.464,-1.67,-3.97
11:12:52.468,-1.655,-4.43
11:12:52.472,-1.745,-4.75
11:12:52.476,-1.775,-4.91
11:12:52.480,-1.755,-4.98
11:12:52.484,-1.77,-4.98
11:12:52.488,-1.785,-4.84
11:12:52.492,-1.795,-4.74
11:12:52.496,-1.755,-4.65
11:12:52.500,-1.8,-4.59
11:12:52.504,-1.83,-4.51
11:12:52.508,-1.85,-4.435
11:12:52.512,-1.775,-4.25
11:12:52.516,-1.66,-3.98
11:12:52.520,-1.52,-3.72
11:12:52.524,-1.37,-3.4
11:12:52.528,-1.255,-3.025
11:12:52.532,-1.13,-2.585
11:12:52.536,-0.975,-2.08
11:12:52.540,-0.76,-1.575
11:12:52.544,-0.57,-1.175
11:12:52.548,-0.38,-0.82
11:12:52.552,-0.24,-0.555
11:12:52.556,-0.18,-0.325
11:12:52.560,-0.085,-0.095
11:12:52.564,-0.06,0.12
11:12:52.568,-0.025,0.305
11:12:52.572,-0.01,0.49
11:12:52.576,-0.025,0.655
11:12:52.580,0.015,0.78
11:12:52.584,0.025,0.825
11:12:52.588,0.025,0.86
11:12:52.592,0.05,0.88
11:12:52.596,0.06,0.905
11:12:52.600,0.035,0.94
11:12:52.604,0.05,0.965
11:12:52.608,0.08,0.955
11:12:52.612,0.065,0.985
11:12:52.616,0.075,0.99
11:12:52.620,0.095,1.0
11:12:52.624,0.105,1.01
11:12:52.628,0.095,0.995
11:12:52.632,0.1,1.04
11:12:52.636,0.075,1.045
11:12:52.640,0.075,1.08
11:12:52.644,0.085,1.085
11:12:52.648,0.08,1.055
11:12:52.652,0.095,1.07
11:12:52.656,0.115,1.1
11:12:52.660,0.1,1.135
11:12:52.664,0.11,1.13
11:12:52.668,0.105,1.16
11:12:52.672,0.105,1.205
11:12:52.676,0.115,1.205
11:12:52.680,0.13,1.2
11:12:52.684,0.12,1.23
11:12:52.688,0.115,1.285
11:12:52.692,0.13,1.3
11:12:52.696,0.13,1.295
11:12:52.700,0.16,1.33
11:12:52.704,0.13,1.315
11:12:52.708,0.16,1.36
11:12:52.712,0.125,1.38
11:12:52.716,0.155,1.4
11:12:52.720,0.18,1.4
11:12:52.724,0.205,1.46
11:12:52.728,0.2,1.52
11:12:52.732,0.21,1.545
11:12:52.736,0.235,1.545
11:12:52.740,0.22,1.56
11:12:52.744,0.205,1.585
11:12:52.748,0.19,1.56
11:12:52.752,0.195,1.555
11:12:52.756,0.18,1.57
11:12:52.760,0.15,1.55
11:12:52.764,0.16,1.535
11:12:52.768,0.13,1.48
11:12:52.772,0.105,1.47
11:12:52.776,0.095,1.44
11:12:52.780,0.095,1.42
11:12:52.784,0.08,1.37
11:12:52.788,0.06,1.32
11:12:52.792,0.035,1.29
11:12:52.796,0.0,1.245
11:12:52.800,-0.035,1.18
11:12:52.804,-0.1,1.09
11:12:52.808,-0.16,1.01
11:12:52.812,-0.18,0.915
11:12:52.816,-0.195,0.85
11:12:52.820,-0.22,0.755
11:12:52.824,-0.21,0.69
11:12:52.828,-0.22,0.655
11:12:52.832,-0.24,0.605
11:12:52.836,-0.245,0.565
11:12:52.840,-0.25,0.5
11:12:52.844,-0.265,0.465
11:12:52.848,-0.295,0.405
11:12:52.852,-0.32,0.385
11:12:52.856,-0.335,0.36
11:12:52.860,-0.34,0.325
11:12:52.864,-0.335,0.335
11:12:52.868,-0.33,0.35
11:12:52.872,-0.34,0.31
11:12:52.876,-0.345,0.305
11:12:52.880,-0.355,0.325
11:12:52.884,-0.37,0.32
11:12:52.888,-0.365,0.295
11:12:52.892,-0.37,0.3
11:12:52.896,-0.375,0.295
11:12:52.900,-0.365,0.315
11:12:52.904,-0.375,0.31
11:12:52.908,-0.375,0.285
11:12:52.912,-0.37,0.27
11:12:52.916,-0.36,0.275
11:12:52.920,-0.355,0.24
11:12:52.924,-0.365,0.255
11:12:52.928,-0.35,0.28
11:12:52.932,-0.34,0.32
11:12:52.936,-0.355,0.31
11:12:52.940,-0.35,0.295
11:12:52.944,-0.36,0.295
11:12:52.948,-0.355,0.285
11:12:52.952,-0.345,0.28
11:12:52.956,-0.34,0.285
11:12:52.960,-0.36,0.28
11:12:52.964,-0.34,0.265
11:12:52.968,-0.36,0.285
11:12:52.972,-0.33,0.305
11:12:52.976,-0.34,0.3
11:12:52.980,-0.34,0.3
11:12:52.984,-0.33,0.305
11:12:52.988,-0.3,0.305
11:12:52.992,-0.3,0.29
11:12:52.996,-0.3,0.27
11:12:53.000,-0.275,0.25
11:12:53.004,-0.265,0.23
11:12:53.008,-0.245,0.255
11:12:53.012,-0.21,0.265
11:12:53.016,-0.16,0.26
11:12:53.020,-0.145,0.235
11:12:53.024,-0.095,0.225
11:12:53.028,-0.07,0.305
11:12:53.032,-0.035,0.33
11:12:53.036,0.01,0.345
11:12:53.040,0.1,0.355
11:12:53.044,0.25,0.37
11:12:53.048,0.315,0.385
11:12:53.052,0.255,0.44
11:12:53.056,0.145,0.5
11:12:53.060,-0.065,0.565
11:12:53.064,-0.45,0.415
11:12:53.068,-0.905,0.02
11:12:53.072,-1.295,-0.545
11:12:53.076,-1.555,-1.19
11:12:53.080,-1.675,-2.14
11:12:53.084,-1.64,-3.08
11:12:53.088,-1.53,-3.75
11:12:53.092,-1.505,-4.29
11:12:53.096,-1.55,-4.65
11:12:53.100,-1.565,-4.845
11:12:53.104,-1.545,-4.95
11:12:53.108,-1.53,-4.94
11:12:53.112,-1.59,-4.84
11:12:53.116,-1.58,-4.705
11:12:53.120,-1.515,-4.625
11:12:53.124,-1.47,-4.545
11:12:53.128,-1.495,-4.495
11:12:53.132,-1.435,-4.385
11:12:53.136,-1.335,-4.19
11:12:53.140,-1.18,-3.92
11:12:53.144,-1.06,-3.645
11:12:53.148,-0.945,-3.3
11:12:53.152,-0.9,-2.865
11:12:53.156,-0.8,-2.395
11:12:53.160,-0.655,-1.885
11:12:53.164,-0.5,-1.475
11:12:53.168,-0.355,-1.125
11:12:53.172,-0.235,-0.805
11:12:53.176,-0.16,-0.56
11:12:53.180,-0.145,-0.355
11:12:53.184,-0.095,-0.125
11:12:53.188,-0.06,0.075
11:12:53.192,-0.05,0.27
11:12:53.196,-0.035,0.44
11:12:53.200,-0.02,0.565
11:12:53.204,-0.02,0.705
11:12:53.208,-0.01,0.755
11:12:53.212,-0.005,0.77
11:12:53.216,0.015,0.78
11:12:53.220,0.045,0.84
11:12:53.224,0.07,0.855
11:12:53.228,0.075,0.865
11:12:53.232,0.055,0.89
11:12:53.236,0.08,0.92
11:12:53.240,0.12,0.965
11:12:53.244,0.14,0.96
11:12:53.248,0.15,0.98
11:12:53.252,0.155,0.99
11:12:53.256,0.16,1.02
11:12:53.260,0.17,1.035
11:12:53.264,0.195,1.05
11:12:53.268,0.205,1.055
11:12:53.272,0.215,1.08
11:12:53.276,0.255,1.12
11:12:53.280,0.22,1.11
11:12:53.284,0.225,1.135
11:12:53.288,0.25,1.14
11:12:53.292,0.265,1.165
11:12:53.296,0.28,1.175
11:12:53.300,0.275,1.17
11:12:53.304,0.29,1.195
11:12:53.308,0.3,1.225
11:12:53.312,0.305,1.255
11:12:53.316,0.31,1.255
11:12:53.320,0.315,1.29
11:12:53.324,0.315,1.34
11:12:53.328,0.32,1.365
11:12:53.332,0.32,1.38
11:12:53.336,0.305,1.375
11:12:53.340,0.31,1.42
11:12:53.344,0.315,1.425
11:12:53.348,0.33,1.455
11:12:53.352,0.33,1.465
11:12:53.356,0.325,1.48
11:12:53.360,0.335,1.5
11:12:53.364,0.295,1.48
11:12:53.368,0.285,1.5
11:12:53.372,0.26,1.49
11:12:53.376,0.22,1.445
11:12:53.380,0.175,1.42
11:12:53.384,0.16,1.415
11:12:53.388,0.13,1.36
11:12:53.392,0.12,1.31
11:12:53.396,0.075,1.275
11:12:53.400,0.06,1.245
11:12:53.404,0.02,1.19
11:12:53.408,0.015,1.13
11:12:53.412,-0.01,1.02
11:12:53.416,-0.07,0.94
11:12:53.420,-0.1,0.895
11:12:53.424,-0.075,0.86
11:12:53.428,-0.125,0.775
11:12:53.432,-0.135,0.695
11:12:53.436,-0.14,0.65
11:12:53.440,-0.12,0.585
11:12:53.444,-0.145,0.54
11:12:53.448,-0.145,0.51
11:12:53.452,-0.145,0.47
11:12:53.456,-0.175,0.42
11:12:53.460,-0.18,0.4
11:12:53.464,-0.185,0.4
11:12:53.468,-0.16,0.365
11:12:53.472,-0.175,0.335
11:12:53.476,-0.16,0.33
11:12:53.480,-0.155,0.285
11:12:53.484,-0.135,0.29
11:12:53.488,-0.155,0.27
11:12:53.492,-0.15,0.275
11:12:53.496,-0.175,0.31
11:12:53.500,-0.17,0.28
11:12:53.504,-0.185,0.295
11:12:53.508,-0.185,0.295
11:12:53.512,-0.2,0.28
11:12:53.516,-0.195,0.265
11:12:53.520,-0.17,0.215
11:12:53.524,-0.135,0.23
11:12:53.528,-0.175,0.23
11:12:53.532,-0.18,0.25
11:12:53.536,-0.185,0.26
11:12:53.540,-0.17,0.25
11:12:53.544,-0.185,0.28
11:12:53.548,-0.18,0.305
11:12:53.552,-0.19,0.305
11:12:53.556,-0.16,0.28
11:12:53.560,-0.17,0.235
11:12:53.564,-0.17,0.23
11:12:53.568,-0.16,0.245
11:12:53.572,-0.16,0.25
11:12:53.576,-0.175,0.285
11:12:53.580,-0.165,0.25
11:12:53.584,-0.14,0.265
11:12:53.588,-0.165,0.26
11:12:53.592,-0.155,0.24
11:12:53.596,-0.19,0.235
11:12:53.600,-0.175,0.245
11:12:53.604,-0.195,0.215
11:12:53.608,-0.17,0.18
11:12:53.612,-0.15,0.17
11:12:53.616,-0.17,0.2
11:12:53.620,-0.18,0.235
11:12:53.624,-0.175,0.18
11:12:53.628,-0.2,0.19
11:12:53.632,-0.225,0.21
11:12:53.636,-0.19,0.215
11:12:53.640,-0.205,0.155
11:12:53.644,-0.205,0.14
11:12:53.648,-0.17,0.175
11:12:53.652,-0.18,0.195
11:12:53.656,-0.18,0.16
11:12:53.660,-0.185,0.16
11:12:53.664,-0.19,0.185
11:12:53.668,-0.18,0.175
11:12:53.672,-0.165,0.175
11:12:53.676,-0.18,0.185
11:12:53.680,-0.2,0.205
11:12:53.684,-0.205,0.205
11:12:53.688,-0.19,0.205
11:12:53.692,-0.18,0.22
11:12:53.696,-0.18,0.195
11:12:53.700,-0.2,0.165
11:12:53.704,-0.185,0.155
11:12:53.708,-0.16,0.195
11:12:53.712,-0.18,0.215
11:12:53.716,-0.205,0.235
11:12:53.720,-0.2,0.23
11:12:53.724,-0.205,0.235
11:12:53.728,-0.2,0.21
11:12:53.732,-0.205,0.205
11:12:53.736,-0.19,0.225
11:12:53.740,-0.18,0.185
11:12:53.744,-0.195,0.185
11:12:53.748,-0.18,0.225
11:12:53.752,-0.19,0.23
11:12:53.756,-0.21,0.195
11:12:53.760,-0.205,0.185
11:12:53.764,-0.19,0.205
11:12:53.768,-0.18,0.175
11:12:53.772,-0.205,0.195
11:12:53.776,-0.2,0.18
11:12:53.780,-0.185,0.185
11:12:53.784,-0.18,0.175
11:12:53.788,-0.19,0.18
11:12:53.792,-0.195,0.15
11:12:53.796,-0.195,0.17
11:12:53.800,-0.18,0.205
11:12:53.804,-0.205,0.205
11:12:53.808,-0.205,0.17
11:12:53.812,-0.205,0.175
11:12:53.816,-0.2,0.18
11:12:53.820,-0.175,0.16
11:12:53.824,-0.195,0.155
11:12:53.828,-0.19,0.155
11:12:53.832,-0.19,0.19
11:12:53.836,-0.18,0.175
11:12:53.840,-0.2,0.18
11:12:53.844,-0.22,0.18
11:12:53.848,-0.215,0.155
11:12:53.852,-0.205,0.145
11:12:53.856,-0.205,0.17
11:12:53.860,-0.195,0.21
11:12:53.864,-0.165,0.2
11:12:53.868,-0.175,0.19
11:12:53.872,-0.17,0.19
11:12:53.876,-0.165,0.185
11:12:53.880,-0.16,0.2
11:12:53.884,-0.18,0.18
11:12:53.888,-0.175,0.18
11:12:53.892,-0.165,0.18
11:12:53.896,-0.145,0.2
11:12:53.900,-0.17,0.185
11:12:53.904,-0.155,0.195
11:12:53.908,-0.145,0.185
11:12:53.912,-0.15,0.185
11:12:53.916,-0.15,0.205
11:12:53.920,-0.155,0.235
11:12:53.924,-0.17,0.235
11:12:53.928,-0.185,0.24
11:12:53.932,-0.185,0.255
11:12:53.936,-0.185,0.225
11:12:53.940,-0.19,0.22
11:12:53.944,-0.175,0.205
11:12:53.948,-0.165,0.185
11:12:53.952,-0.18,0.195
11:12:53.956,-0.175,0.235
11:12:53.960,-0.175,0.215
11:12:53.964,-0.17,0.235
11:12:53.968,-0.195,0.235
11:12:53.972,-0.21,0.21
11:12:53.976,-0.195,0.16
11:12:53.980,-0.2,0.175
11:12:53.984,-0.215,0.205
11:12:53.988,-0.185,0.205
11:12:53.992,-0.17,0.215
11:12:53.996,-0.155,0.21
11:12:54.000,-0.155,0.195
11:12:54.004,-0.12,0.19
11:12:54.008,-0.095,0.18
11:12:54.012,-0.07,0.195
11:12:54.016,-0.055,0.205
11:12:54.020,-0.02,0.255
11:12:54.024,-0.01,0.295
11:12:54.028,0.005,0.345
11:12:54.032,0.01,0.365
11:12:54.036,0.0,0.35
11:12:54.040,0.0,0.355
11:12:54.044,0.005,0.345
11:12:54.048,-0.005,0.34
11:12:54.052,-0.03,0.29
11:12:54.056,-0.03,0.24
11:12:54.060,-0.01,0.225
11:12:54.064,0.0,0.24
11:12:54.068,-0.005,0.25
11:12:54.072,0.04,0.22
11:12:54.076,0.06,0.185
11:12:54.080,0.035,0.19
11:12:54.084,-0.01,0.24
11:12:54.088,-0.04,0.265
11:12:54.092,-0.115,0.3
11:12:54.096,-0.18,0.305
11:12:54.100,-0.21,0.275
11:12:54.104,-0.245,0.24
11:12:54.108,-0.25,0.22
11:12:54.112,-0.27,0.16
11:12:54.116,-0.26,0.125
11:12:54.120,-0.27,0.14
11:12:54.124,-0.265,0.185
11:12:54.128,-0.24,0.165
11:12:54.132,-0.275,0.17
11:12:54.136,-0.275,0.15
11:12:54.140,-0.28,0.155
11:12:54.144,-0.29,0.14
11:12:54.148,-0.295,0.135
11:12:54.152,-0.29,0.125
11:12:54.156,-0.3,0.135
11:12:54.160,-0.28,0.155
11:12:54.164,-0.27,0.155
11:12:54.168,-0.28,0.125
11:12:54.172,-0.28,0.105
11:12:54.176,-0.285,0.13
11:12:54.180,-0.305,0.135
11:12:54.184,-0.31,0.14
11:12:54.188,-0.305,0.11
11:12:54.192,-0.295,0.09
11:12:54.196,-0.285,0.105
11:12:54.200,-0.26,0.12
11:12:54.204,-0.2,0.13
11:12:54.208,-0.14,0.125
11:12:54.212,-0.065,0.125
11:12:54.216,0.01,0.155
11:12:54.220,-0.05,0.19
11:12:54.224,-0.19,0.26
11:12:54.228,-0.42,0.295
11:12:54.232,-0.76,0.13
11:12:54.236,-1.185,-0.35
11:12:54.240,-1.575,-0.92
11:12:54.244,-1.87,-1.64
11:12:54.248,-2.01,-2.55
11:12:54.252,-2.035,-3.375
11:12:54.256,-1.98,-4.015
11:12:54.260,-1.985,-4.465
11:12:54.264,-1.985,-4.8
11:12:54.268,-1.915,-4.95
11:12:54.272,-1.835,-5.03
11:12:54.276,-1.78,-5.02
11:12:54.280,-1.765,-4.885
11:12:54.284,-1.705,-4.71
11:12:54.288,-1.67,-4.615
11:12:54.292,-1.635,-4.535
11:12:54.296,-1.545,-4.43
11:12:54.300,-1.385,-4.24
11:12:54.304,-1.165,-3.975
11:12:54.308,-0.995,-3.665
11:12:54.312,-0.9,-3.305
11:12:54.316,-0.8,-2.885
11:12:54.320,-0.72,-2.395
11:12:54.324,-0.605,-1.875
11:12:54.328,-0.465,-1.48
11:12:54.332,-0.365,-1.12
11:12:54.336,-0.25,-0.79
11:12:54.340,-0.17,-0.51
11:12:54.344,-0.12,-0.28
11:12:54.348,-0.07,-0.08
11:12:54.352,-0.04,0.085
11:12:54.356,-0.015,0.26
11:12:54.360,0.0,0.435
11:12:54.364,0.025,0.585
11:12:54.368,0.03,0.7
11:12:54.372,0.045,0.765
11:12:54.376,0.07,0.815
11:12:54.380,0.095,0.85
11:12:54.384,0.1,0.875
11:12:54.388,0.1,0.875
11:12:54.392,0.1,0.885
11:12:54.396,0.11,0.905
11:12:54.400,0.11,0.905
11:12:54.404,0.11,0.95
11:12:54.408,0.15,0.96
11:12:54.412,0.155,0.985
11:12:54.416,0.185,1.01
11:12:54.420,0.19,1.005
11:12:54.424,0.205,0.99
11:12:54.428,0.2,1.01
11:12:54.432,0.215,1.04
11:12:54.436,0.23,1.06
11:12:54.440,0.24,1.075
11:12:54.444,0.305,1.115
11:12:54.448,0.355,1.13
11:12:54.452,0.445,1.15
11:12:54.456,0.52,1.185
11:12:54.460,0.6,1.235
11:12:54.464,0.63,1.28
11:12:54.468,0.59,1.345
11:12:54.472,0.56,1.4
11:12:54.476,0.5,1.455
11:12:54.480,0.41,1.49
11:12:54.484,0.345,1.52
11:12:54.488,0.295,1.47
11:12:54.492,0.265,1.465
11:12:54.496,0.24,1.415
11:12:54.500,0.22,1.38
11:12:54.504,0.21,1.36
11:12:54.508,0.17,1.32
11:12:54.512,0.115,1.345
11:12:54.516,0.09,1.37
11:12:54.520,0.045,1.375
11:12:54.524,0.02,1.355
11:12:54.528,0.005,1.35
11:12:54.532,-0.015,1.34
11:12:54.536,-0.015,1.33
11:12:54.540,-0.015,1.3
11:12:54.544,-0.03,1.32
11:12:54.548,-0.06,1.315
11:12:54.552,-0.08,1.315
11:12:54.556,-0.1,1.295
11:12:54.560,-0.13,1.28
11:12:54.564,-0.165,1.215
11:12:54.568,-0.185,1.155
11:12:54.572,-0.195,1.11
11:12:54.576,-0.21,1.09
11:12:54.580,-0.225,1.04
11:12:54.584,-0.23,0.99
11:12:54.588,-0.25,0.915
11:12:54.592,-0.28,0.875
11:12:54.596,-0.3,0.835
11:12:54.600,-0.3,0.775
11:12:54.604,-0.335,0.7
11:12:54.608,-0.35,0.63
11:12:54.612,-0.365,0.555
11:12:54.616,-0.365,0.495
11:12:54.620,-0.375,0.455
11:12:54.624,-0.35,0.405
11:12:54.628,-0.37,0.37
11:12:54.632,-0.365,0.31
11:12:54.636,-0.355,0.3
11:12:54.640,-0.365,0.26
11:12:54.644,-0.37,0.275
11:12:54.648,-0.355,0.275
11:12:54.652,-0.355,0.275
11:12:54.656,-0.355,0.24
11:12:54.660,-0.345,0.215
11:12:54.664,-0.33,0.23
11:12:54.668,-0.32,0.225
11:12:54.672,-0.3,0.225
11:12:54.676,-0.3,0.23
11:12:54.680,-0.29,0.255
11:12:54.684,-0.285,0.255
11:12:54.688,-0.295,0.265
11:12:54.692,-0.255,0.275
11:12:54.696,-0.24,0.3
11:12:54.700,-0.165,0.31
11:12:54.704,-0.13,0.31
11:12:54.708,-0.09,0.345
11:12:54.712,-0.035,0.405
11:12:54.716,0.015,0.42
11:12:54.720,0.06,0.44
11:12:54.724,0.085,0.475
11:12:54.728,0.07,0.535
11:12:54.732,0.0,0.53
11:12:54.736,-0.06,0.55
11:12:54.740,-0.12,0.555
11:12:54.744,-0.145,0.56
11:12:54.748,-0.17,0.525
11:12:54.752,-0.215,0.5
11:12:54.756,-0.23,0.44
11:12:54.760,-0.235,0.415
11:12:54.764,-0.25,0.39
11:12:54.768,-0.265,0.355
11:12:54.772,-0.295,0.32
11:12:54.776,-0.305,0.29
11:12:54.780,-0.295,0.26
11:12:54.784,-0.27,0.255
11:12:54.788,-0.155,0.235
11:12:54.792,0.0,0.22
11:12:54.796,0.075,0.265
11:12:54.800,0.04,0.31
11:12:54.804,-0.09,0.39
11:12:54.808,-0.47,0.385
11:12:54.812,-0.925,0.095
11:12:54.816,-1.31,-0.395
11:12:54.820,-1.55,-1.0
11:12:54.824,-1.625,-1.9
11:12:54.828,-1.585,-2.83
11:12:54.832,-1.48,-3.58
11:12:54.836,-1.49,-4.17
11:12:54.840,-1.55,-4.56
11:12:54.844,-1.605,-4.77
11:12:54.848,-1.595,-4.895
11:12:54.852,-1.625,-4.89
11:12:54.856,-1.635,-4.795
11:12:54.860,-1.57,-4.685
11:12:54.864,-1.545,-4.58
11:12:54.868,-1.63,-4.515
11:12:54.872,-1.64,-4.44
11:12:54.876,-1.58,-4.25
11:12:54.880,-1.445,-4.045
11:12:54.884,-1.375,-3.77
11:12:54.888,-1.29,-3.455
11:12:54.892,-1.195,-3.04
11:12:54.896,-1.065,-2.595
11:12:54.900,-0.89,-2.12
11:12:54.904,-0.665,-1.625
11:12:54.908,-0.445,-1.24
11:12:54.912,-0.26,-0.855
11:12:54.916,-0.1,-0.56
11:12:54.920,-0.005,-0.32
11:12:54.924,0.085,-0.04
11:12:54.928,0.135,0.245
11:12:54.932,0.185,0.495
11:12:54.936,0.175,0.68
11:12:54.940,0.155,0.835
11:12:54.944,0.115,0.905
11:12:54.948,0.085,0.96
11:12:54.952,0.06,0.935
11:12:54.956,0.075,0.915
11:12:54.960,0.09,0.9
11:12:54.964,0.08,0.875
11:12:54.968,0.075,0.89
11:12:54.972,0.07,0.93
11:12:54.976,0.085,0.905
11:12:54.980,0.05,0.92
11:12:54.984,0.07,0.905
11:12:54.988,0.08,0.915
11:12:54.992,0.075,0.885
11:12:54.996,0.09,0.88
11:12:55.000,0.1,0.895
11:12:55.004,0.1,0.935
11:12:55.008,0.075,0.91
11:12:55.012,0.065,0.915
11:12:55.016,0.07,0.91
11:12:55.020,0.055,0.94
11:12:55.024,0.065,0.94
11:12:55.028,0.055,0.965
11:12:55.032,0.07,0.97
11:12:55.036,0.075,0.98
11:12:55.040,0.075,1.02
11:12:55.044,0.085,1.04
11:12:55.048,0.085,1.06
11:12:55.052,0.08,1.09
11:12:55.056,0.075,1.115
11:12:55.060,0.065,1.13
11:12:55.064,0.09,1.145
11:12:55.068,0.065,1.195
11:12:55.072,0.08,1.2
11:12:55.076,0.085,1.22
11:12:55.080,0.09,1.195
11:12:55.084,0.115,1.24
11:12:55.088,0.12,1.28
11:12:55.092,0.11,1.295
11:12:55.096,0.11,1.305
11:12:55.100,0.095,1.315
11:12:55.104,0.11,1.335
11:12:55.108,0.105,1.345
11:12:55.112,0.115,1.36
11:12:55.116,0.13,1.36
11:12:55.120,0.125,1.33
11:12:55.124,0.13,1.335
11:12:55.128,0.155,1.34
11:12:55.132,0.135,1.34
11:12:55.136,0.095,1.32
11:12:55.140,0.01,1.3
11:12:55.144,-0.055,1.265
11:12:55.148,-0.105,1.185
11:12:55.152,-0.13,1.11
11:12:55.156,-0.185,1.0
11:12:55.160,-0.205,0.895
11:12:55.164,-0.21,0.83
11:12:55.168,-0.24,0.77
11:12:55.172,-0.275,0.715
11:12:55.176,-0.285,0.66
11:12:55.180,-0.285,0.63
11:12:55.184,-0.295,0.54
11:12:55.188,-0.31,0.525
11:12:55.192,-0.305,0.5
11:12:55.196,-0.335,0.445
11:12:55.200,-0.315,0.41
11:12:55.204,-0.355,0.385
11:12:55.208,-0.38,0.38
11:12:55.212,-0.385,0.36
11:12:55.216,-0.39,0.32
11:12:55.220,-0.41,0.34
11:12:55.224,-0.4,0.32
11:12:55.228,-0.405,0.31
11:12:55.232,-0.425,0.305
11:12:55.236,-0.415,0.305
11:12:55.240,-0.455,0.31
11:12:55.244,-0.435,0.295
11:12:55.248,-0.42,0.29
11:12:55.252,-0.435,0.27
11:12:55.256,-0.405,0.235
11:12:55.260,-0.395,0.255
11:12:55.264,-0.405,0.29
11:12:55.268,-0.395,0.3
11:12:55.272,-0.405,0.275
11:12:55.276,-0.41,0.255
11:12:55.280,-0.39,0.285
11:12:55.284,-0.395,0.265
11:12:55.288,-0.37,0.245
11:12:55.292,-0.355,0.26
11:12:55.296,-0.355,0.255
11:12:55.300,-0.35,0.28
11:12:55.304,-0.35,0.245
11:12:55.308,-0.335,0.24
11:12:55.312,-0.315,0.245
11:12:55.316,-0.355,0.24
11:12:55.320,-0.32,0.25
11:12:55.324,-0.32,0.245
11:12:55.328,-0.295,0.24
11:12:55.332,-0.275,0.25
11:12:55.336,-0.24,0.28
11:12:55.340,-0.205,0.275
11:12:55.344,-0.23,0.285
11:12:55.348,-0.2,0.29
11:12:55.352,-0.175,0.3
11:12:55.356,-0.155,0.27
11:12:55.360,-0.13,0.27
11:12:55.364,-0.065,0.23
11:12:55.368,-0.03,0.22
11:12:55.372,0.045,0.2
11:12:55.376,0.125,0.23
11:12:55.380,0.2,0.245
11:12:55.384,0.31,0.265
11:12:55.388,0.385,0.33
11:12:55.392,0.345,0.41
11:12:55.396,0.2,0.49
11:12:55.400,0.0,0.575
11:12:55.404,-0.375,0.445
11:12:55.408,-0.81,0.01
11:12:55.412,-1.23,-0.53
11:12:55.416,-1.56,-1.235
11:12:55.420,-1.66,-2.215
11:12:55.424,-1.64,-3.175
11:12:55.428,-1.52,-3.88
11:12:55.432,-1.54,-4.395
11:12:55.436,-1.64,-4.72
11:12:55.440,-1.69,-4.9
11:12:55.444,-1.705,-4.98
11:12:55.448,-1.75,-4.945
11:12:55.452,-1.78,-4.845
11:12:55.456,-1.765,-4.74
11:12:55.460,-1.715,-4.65
11:12:55.464,-1.76,-4.565
11:12:55.468,-1.81,-4.485
11:12:55.472,-1.775,-4.38
11:12:55.476,-1.665,-4.205
11:12:55.480,-1.565,-3.905
11:12:55.484,-1.455,-3.595
11:12:55.488,-1.37,-3.235
11:12:55.492,-1.26,-2.885
11:12:55.496,-1.135,-2.41
11:12:55.500,-0.95,-1.91
11:12:55.504,-0.765,-1.445
11:12:55.508,-0.585,-1.045
11:12:55.512,-0.4,-0.765
11:12:55.516,-0.305,-0.51
11:12:55.520,-0.25,-0.285
11:12:55.524,-0.185,-0.06
11:12:55.528,-0.16,0.21
11:12:55.532,-0.155,0.42
11:12:55.536,-0.135,0.59
11:12:55.540,-0.085,0.745
11:12:55.544,-0.07,0.83
11:12:55.548,-0.055,0.88
11:12:55.552,-0.04,0.86
11:12:55.556,-0.03,0.925
11:12:55.560,-0.02,0.95
11:12:55.564,-0.005,0.99
11:12:55.568,0.0,1.01
11:12:55.572,0.02,1.04
11:12:55.576,-0.005,1.04
11:12:55.580,0.005,1.06
11:12:55.584,0.035,1.07
11:12:55.588,0.06,1.07
11:12:55.592,0.095,1.065
11:12:55.596,0.085,1.115
11:12:55.600,0.1,1.145
11:12:55.604,0.105,1.195
11:12:55.608,0.125,1.195
11:12:55.612,0.125,1.18
11:12:55.616,0.145,1.2
11:12:55.620,0.14,1.2
11:12:55.624,0.145,1.235
11:12:55.628,0.16,1.26
11:12:55.632,0.175,1.27
11:12:55.636,0.19,1.3
11:12:55.640,0.205,1.3
11:12:55.644,0.205,1.34
11:12:55.648,0.22,1.34
11:12:55.652,0.205,1.39
11:12:55.656,0.175,1.415
11:12:55.660,0.195,1.45
11:12:55.664,0.205,1.475
11:12:55.668,0.205,1.475
11:12:55.672,0.215,1.485
11:12:55.676,0.205,1.505
11:12:55.680,0.215,1.51
11:12:55.684,0.225,1.525
11:12:55.688,0.205,1.53
11:12:55.692,0.205,1.555
11:12:55.696,0.175,1.59
11:12:55.700,0.19,1.61
11:12:55.704,0.165,1.61
11:12:55.708,0.125,1.59
11:12:55.712,0.09,1.575
11:12:55.716,0.07,1.535
11:12:55.720,0.01,1.49
11:12:55.724,-0.005,1.455
11:12:55.728,-0.02,1.415
11:12:55.732,-0.05,1.38
11:12:55.736,-0.08,1.335
11:12:55.740,-0.125,1.275
11:12:55.744,-0.145,1.2
11:12:55.748,-0.18,1.15
11:12:55.752,-0.22,1.075
11:12:55.756,-0.23,0.99
11:12:55.760,-0.265,0.9
11:12:55.764,-0.285,0.83
11:12:55.768,-0.275,0.815
11:12:55.772,-0.305,0.745
11:12:55.776,-0.315,0.7
11:12:55.780,-0.325,0.645
11:12:55.784,-0.32,0.575
11:12:55.788,-0.34,0.55
11:12:55.792,-0.34,0.485
11:12:55.796,-0.36,0.445
11:12:55.800,-0.35,0.435
11:12:55.804,-0.36,0.42
11:12:55.808,-0.35,0.39
11:12:55.812,-0.335,0.37
11:12:55.816,-0.34,0.345
11:12:55.820,-0.35,0.345
11:12:55.824,-0.335,0.325
11:12:55.828,-0.35,0.34
11:12:55.832,-0.375,0.335
11:12:55.836,-0.365,0.34
11:12:55.840,-0.37,0.31
11:12:55.844,-0.375,0.305
11:12:55.848,-0.35,0.31
11:12:55.852,-0.35,0.32
11:12:55.856,-0.38,0.315
11:12:55.860,-0.355,0.335
11:12:55.864,-0.345,0.33
11:12:55.868,-0.375,0.34
11:12:55.872,-0.37,0.33
11:12:55.876,-0.385,0.31
11:12:55.880,-0.395,0.305
11:12:55.884,-0.365,0.305
11:12:55.888,-0.37,0.27
11:12:55.892,-0.36,0.295
11:12:55.896,-0.34,0.31
11:12:55.900,-0.35,0.31
11:12:55.904,-0.355,0.31
11:12:55.908,-0.365,0.3
11:12:55.912,-0.35,0.31
11:12:55.916,-0.37,0.315
11:12:55.920,-0.385,0.295
11:12:55.924,-0.365,0.305
11:12:55.928,-0.375,0.31
11:12:55.932,-0.365,0.315
11:12:55.936,-0.36,0.285
11:12:55.940,-0.37,0.29
11:12:55.944,-0.33,0.28
11:12:55.948,-0.35,0.265
11:12:55.952,-0.36,0.275
11:12:55.956,-0.35,0.275
11:12:55.960,-0.35,0.28
11:12:55.964,-0.375,0.29
11:12:55.968,-0.355,0.28
11:12:55.972,-0.375,0.25
11:12:55.976,-0.375,0.25
11:12:55.980,-0.36,0.23
11:12:55.984,-0.38,0.21
11:12:55.988,-0.35,0.195
11:12:55.992,-0.375,0.25
11:12:55.996,-0.36,0.275
11:12:56.000,-0.37,0.28
11:12:56.004,-0.38,0.26
11:12:56.008,-0.385,0.21
11:12:56.012,-0.385,0.2
11:12:56.016,-0.39,0.195
11:12:56.020,-0.39,0.245
11:12:56.024,-0.37,0.23
11:12:56.028,-0.36,0.215
11:12:56.032,-0.355,0.215
11:12:56.036,-0.365,0.205
11:12:56.040,-0.36,0.175
11:12:56.044,-0.345,0.215
11:12:56.048,-0.34,0.215
11:12:56.052,-0.365,0.235
11:12:56.056,-0.37,0.25
11:12:56.060,-0.375,0.225
11:12:56.064,-0.385,0.185
11:12:56.068,-0.355,0.205
11:12:56.072,-0.36,0.215
11:12:56.076,-0.355,0.235
11:12:56.080,-0.36,0.21
11:12:56.084,-0.35,0.205
11:12:56.088,-0.365,0.22
11:12:56.092,-0.355,0.23
11:12:56.096,-0.345,0.23
11:12:56.100,-0.36,0.21
11:12:56.104,-0.36,0.21
11:12:56.108,-0.345,0.245
11:12:56.112,-0.33,0.235
11:12:56.116,-0.32,0.185
11:12:56.120,-0.34,0.205
11:12:56.124,-0.33,0.215
11:12:56.128,-0.35,0.235
11:12:56.132,-0.33,0.25
11:12:56.136,-0.335,0.23
11:12:56.140,-0.33,0.215
11:12:56.144,-0.34,0.185
11:12:56.148,-0.345,0.175
11:12:56.152,-0.34,0.2
11:12:56.156,-0.32,0.21
11:12:56.160,-0.32,0.21
11:12:56.164,-0.31,0.245
11:12:56.168,-0.31,0.225
11:12:56.172,-0.31,0.22
11:12:56.176,-0.315,0.215
11:12:56.180,-0.31,0.22
11:12:56.184,-0.345,0.26
11:12:56.188,-0.35,0.25
11:12:56.192,-0.35,0.25
11:12:56.196,-0.335,0.21
11:12:56.200,-0.32,0.21
11:12:56.204,-0.31,0.22
11:12:56.208,-0.305,0.22
11:12:56.212,-0.28,0.195
11:12:56.216,-0.3,0.21
11:12:56.220,-0.305,0.205
11:12:56.224,-0.32,0.19
11:12:56.228,-0.305,0.145
11:12:56.232,-0.31,0.155
11:12:56.236,-0.32,0.19
11:12:56.240,-0.33,0.195
11:12:56.244,-0.3,0.19
11:12:56.248,-0.28,0.195
11:12:56.252,-0.3,0.155
11:12:56.256,-0.3,0.16
11:12:56.260,-0.29,0.16
11:12:56.264,-0.295,0.16
11:12:56.268,-0.305,0.16
11:12:56.272,-0.295,0.19
11:12:56.276,-0.315,0.18
11:12:56.280,-0.305,0.14
11:12:56.284,-0.315,0.155
11:12:56.288,-0.3,0.135
11:12:56.292,-0.29,0.19
11:12:56.296,-0.285,0.18
11:12:56.300,-0.27,0.17
11:12:56.304,-0.285,0.15
11:12:56.308,-0.28,0.14
11:12:56.312,-0.295,0.175
11:12:56.316,-0.29,0.19
11:12:56.320,-0.31,0.19
11:12:56.324,-0.3,0.165
11:12:56.328,-0.29,0.13
11:12:56.332,-0.31,0.13
11:12:56.336,-0.28,0.14
11:12:56.340,-0.295,0.15
11:12:56.344,-0.28,0.18
11:12:56.348,-0.255,0.175
11:12:56.352,-0.27,0.155
11:12:56.356,-0.225,0.185
11:12:56.360,-0.185,0.165
11:12:56.364,-0.165,0.18
11:12:56.368,-0.13,0.195
11:12:56.372,-0.105,0.245
11:12:56.376,-0.08,0.295
11:12:56.380,-0.09,0.345
11:12:56.384,-0.115,0.325
11:12:56.388,-0.145,0.325
11:12:56.392,-0.145,0.325
11:12:56.396,-0.18,0.315
11:12:56.400,-0.165,0.3
11:12:56.404,-0.175,0.28
11:12:56.408,-0.175,0.275
11:12:56.412,-0.175,0.225
11:12:56.416,-0.15,0.18
11:12:56.420,-0.11,0.13
11:12:56.424,-0.08,0.13
11:12:56.428,-0.075,0.19
11:12:56.432,-0.095,0.21
11:12:56.436,-0.135,0.21
11:12:56.440,-0.205,0.215
11:12:56.444,-0.25,0.215
11:12:56.448,-0.325,0.255
11:12:56.452,-0.335,0.235
11:12:56.456,-0.36,0.2
11:12:56.460,-0.365,0.185
11:12:56.464,-0.36,0.155
11:12:56.468,-0.32,0.145
11:12:56.472,-0.32,0.14
11:12:56.476,-0.34,0.13
11:12:56.480,-0.325,0.125
11:12:56.484,-0.34,0.12
11:12:56.488,-0.355,0.115
11:12:56.492,-0.37,0.17
11:12:56.496,-0.38,0.145
11:12:56.500,-0.38,0.14
11:12:56.504,-0.355,0.135
11:12:56.508,-0.385,0.095
11:12:56.512,-0.37,0.105
11:12:56.516,-0.36,0.11
11:12:56.520,-0.34,0.115
11:12:56.524,-0.35,0.115
11:12:56.528,-0.34,0.13
11:12:56.532,-0.35,0.17
11:12:56.536,-0.365,0.14
11:12:56.540,-0.355,0.12
11:12:56.544,-0.34,0.1
11:12:56.548,-0.34,0.11
11:12:56.552,-0.315,0.1
11:12:56.556,-0.285,0.105
11:12:56.560,-0.24,0.08
11:12:56.564,-0.165,0.085
11:12:56.568,-0.055,0.1
11:12:56.572,-0.04,0.125
11:12:56.576,-0.11,0.19
11:12:56.580,-0.235,0.22
11:12:56.584,-0.435,0.305
11:12:56.588,-0.78,0.18
11:12:56.592,-1.195,-0.22
11:12:56.596,-1.59,-0.785
11:12:56.600,-1.905,-1.45
11:12:56.604,-2.13,-2.325
11:12:56.608,-2.205,-3.155
11:12:56.612,-2.165,-3.845
11:12:56.616,-2.14,-4.31
11:12:56.620,-2.105,-4.68
11:12:56.624,-2.03,-4.91
11:12:56.628,-1.925,-5.02
11:12:56.632,-1.845,-5.065
11:12:56.636,-1.825,-4.995
11:12:56.640,-1.79,-4.805
11:12:56.644,-1.76,-4.66
11:12:56.648,-1.725,-4.54
11:12:56.652,-1.72,-4.435
11:12:56.656,-1.63,-4.32
11:12:56.660,-1.49,-4.155
11:12:56.664,-1.305,-3.87
11:12:56.668,-1.1,-3.605
11:12:56.672,-0.99,-3.285
11:12:56.676,-0.91,-2.88
11:12:56.680,-0.825,-2.44
11:12:56.684,-0.74,-2.015
11:12:56.688,-0.57,-1.56
11:12:56.692,-0.43,-1.24
11:12:56.696,-0.36,-0.925
11:12:56.700,-0.255,-0.635
11:12:56.704,-0.175,-0.43
11:12:56.708,-0.12,-0.24
11:12:56.712,-0.075,-0.05
11:12:56.716,-0.03,0.135
11:12:56.720,-0.01,0.295
11:12:56.724,-0.005,0.41
11:12:56.728,0.01,0.565
11:12:56.732,0.05,0.705
11:12:56.736,0.045,0.74
11:12:56.740,0.06,0.74
11:12:56.744,0.075,0.8
11:12:56.748,0.075,0.82
11:12:56.752,0.1,0.815
11:12:56.756,0.09,0.855
11:12:56.760,0.08,0.86
11:12:56.764,0.1,0.855
11:12:56.768,0.13,0.88
11:12:56.772,0.135,0.88
11:12:56.776,0.175,0.92
11:12:56.780,0.21,0.91
11:12:56.784,0.21,0.92
11:12:56.788,0.19,0.935
11:12:56.792,0.195,0.965
11:12:56.796,0.195,0.98
11:12:56.800,0.22,0.975
11:12:56.804,0.25,0.98
11:12:56.808,0.265,1.0
11:12:56.812,0.315,1.03
11:12:56.816,0.345,1.045
11:12:56.820,0.435,1.07
11:12:56.824,0.495,1.08
11:12:56.828,0.555,1.14
11:12:56.832,0.625,1.18
11:12:56.836,0.655,1.225
11:12:56.840,0.63,1.295
11:12:56.844,0.59,1.325
11:12:56.848,0.54,1.395
11:12:56.852,0.46,1.405
11:12:56.856,0.4,1.43
11:12:56.860,0.385,1.42
11:12:56.864,0.36,1.39
11:12:56.868,0.335,1.37
11:12:56.872,0.3,1.325
11:12:56.876,0.285,1.31
11:12:56.880,0.285,1.32
11:12:56.884,0.28,1.32
11:12:56.888,0.235,1.3
11:12:56.892,0.17,1.295
11:12:56.896,0.135,1.27
11:12:56.900,0.13,1.25
11:12:56.904,0.09,1.24
11:12:56.908,0.08,1.23
11:12:56.912,0.09,1.225
11:12:56.916,0.07,1.21
11:12:56.920,0.045,1.215
11:12:56.924,0.005,1.19
11:12:56.928,-0.045,1.2
11:12:56.932,-0.02,1.165
11:12:56.936,-0.04,1.13
11:12:56.940,-0.08,1.07
11:12:56.944,-0.13,1.02
11:12:56.948,-0.135,0.995
11:12:56.952,-0.145,0.935
11:12:56.956,-0.165,0.845
11:12:56.960,-0.195,0.83
11:12:56.964,-0.215,0.765
11:12:56.968,-0.23,0.68
11:12:56.972,-0.26,0.64
11:12:56.976,-0.265,0.59
11:12:56.980,-0.265,0.54
11:12:56.984,-0.285,0.495
11:12:56.988,-0.31,0.445
11:12:56.992,-0.31,0.365
11:12:56.996,-0.295,0.31
11:12:57.000,-0.305,0.275
11:12:57.004,-0.315,0.27
11:12:57.008,-0.32,0.265
11:12:57.012,-0.32,0.235
11:12:57.016,-0.345,0.2
11:12:57.020,-0.335,0.195
11:12:57.024,-0.33,0.155
11:12:57.028,-0.32,0.15
11:12:57.032,-0.32,0.135
11:12:57.036,-0.305,0.145
11:12:57.040,-0.3,0.165
11:12:57.044,-0.28,0.155
11:12:57.048,-0.28,0.15
11:12:57.052,-0.27,0.155
11:12:57.056,-0.25,0.16
11:12:57.060,-0.225,0.155
11:12:57.064,-0.18,0.15
11:12:57.068,-0.075,0.19
11:12:57.072,0.055,0.19
11:12:57.076,0.295,0.14
11:12:57.080,0.475,0.135
11:12:57.084,0.45,0.155
11:12:57.088,0.24,0.215
11:12:57.092,-0.085,0.27
11:12:57.096,-0.59,0.2
11:12:57.100,-1.16,-0.055
11:12:57.104,-1.585,-0.445
11:12:57.108,-1.845,-1.05
11:12:57.112,-2.0,-1.81
11:12:57.116,-2.1,-2.495
11:12:57.120,-2.15,-3.135
11:12:57.124,-2.195,-3.675
11:12:57.128,-2.18,-4.06
11:12:57.132,-2.035,-4.325
11:12:57.136,-1.87,-4.465
11:12:57.140,-1.71,-4.48
11:12:57.144,-1.635,-4.31
11:12:57.148,-1.455,-4.175
11:12:57.152,-1.27,-4.06
11:12:57.156,-1.16,-3.945
11:12:57.160,-1.0,-3.805
11:12:57.164,-0.79,-3.595
11:12:57.168,-0.595,-3.275
11:12:57.172,-0.46,-2.875
11:12:57.176,-0.435,-2.44
11:12:57.180,-0.41,-2.055
11:12:57.184,-0.35,-1.645
11:12:57.188,-0.24,-1.28
11:12:57.192,-0.2,-0.94
11:12:57.196,-0.15,-0.675
11:12:57.200,-0.15,-0.445
11:12:57.204,-0.17,-0.22
11:12:57.208,-0.205,-0.045
11:12:57.212,-0.185,0.115
11:12:57.216,-0.185,0.25
11:12:57.220,-0.16,0.38
11:12:57.224,-0.185,0.455
11:12:57.228,-0.145,0.485
11:12:57.232,-0.15,0.51
11:12:57.236,-0.13,0.56
11:12:57.240,-0.13,0.55
11:12:57.244,-0.11,0.59
11:12:57.248,-0.105,0.59
11:12:57.252,-0.065,0.6
11:12:57.256,-0.045,0.635
11:12:57.260,-0.03,0.615
11:12:57.264,-0.02,0.655
11:12:57.268,-0.02,0.69
11:12:57.272,0.0,0.715
11:12:57.276,0.02,0.725
11:12:57.280,0.035,0.725
11:12:57.284,0.055,0.75
11:12:57.288,0.075,0.78
11:12:57.292,0.095,0.775
11:12:57.296,0.125,0.805
11:12:57.300,0.19,0.845
11:12:57.304,0.21,0.855
11:12:57.308,0.24,0.9
11:12:57.312,0.27,0.925
11:12:57.316,0.32,0.97
11:12:57.320,0.355,1.01
11:12:57.324,0.355,1.045
11:12:57.328,0.35,1.075
11:12:57.332,0.35,1.12
11:12:57.336,0.285,1.15
11:12:57.340,0.24,1.165
11:12:57.344,0.19,1.135
11:12:57.348,0.17,1.145
11:12:57.352,0.165,1.11
11:12:57.356,0.12,1.1
11:12:57.360,0.11,1.075
11:12:57.364,0.09,1.09
11:12:57.368,0.065,1.105
11:12:57.372,0.065,1.105
11:12:57.376,0.065,1.1
11:12:57.380,0.05,1.09
11:12:57.384,0.025,1.08
11:12:57.388,0.015,1.065
11:12:57.392,-0.025,1.085
11:12:57.396,-0.05,1.1
11:12:57.400,-0.065,1.07
11:12:57.404,-0.12,1.055
11:12:57.408,-0.17,1.01
11:12:57.412,-0.19,0.975
11:12:57.416,-0.235,0.935
11:12:57.420,-0.235,0.895
11:12:57.424,-0.28,0.865
11:12:57.428,-0.275,0.81
11:12:57.432,-0.275,0.735
11:12:57.436,-0.29,0.695
11:12:57.440,-0.3,0.64
11:12:57.444,-0.315,0.62
11:12:57.448,-0.305,0.58
11:12:57.452,-0.3,0.55
11:12:57.456,-0.33,0.5
11:12:57.460,-0.31,0.47
11:12:57.464,-0.28,0.42
11:12:57.468,-0.275,0.41
11:12:57.472,-0.265,0.39
11:12:57.476,-0.25,0.38
11:12:57.480,-0.235,0.34
11:12:57.484,-0.23,0.34
11:12:57.488,-0.22,0.325
11:12:57.492,-0.2,0.33
11:12:57.496,-0.19,0.35
11:12:57.500,-0.175,0.33
11:12:57.504,-0.155,0.35
11:12:57.508,-0.13,0.33
11:12:57.512,-0.065,0.295
11:12:57.516,-0.04,0.305
11:12:57.520,0.0,0.38
11:12:57.524,0.03,0.375
11:12:57.528,0.055,0.395
11:12:57.532,0.04,0.435
11:12:57.536,0.0,0.46
11:12:57.540,-0.035,0.47
11:12:57.544,-0.07,0.455
11:12:57.548,-0.1,0.405
11:12:57.552,-0.12,0.365
11:12:57.556,-0.125,0.305
11:12:57.560,-0.145,0.28
11:12:57.564,-0.16,0.27
11:12:57.568,-0.175,0.22
11:12:57.572,-0.19,0.23
11:12:57.576,-0.205,0.25
11:12:57.580,-0.23,0.25
11:12:57.584,-0.25,0.205
11:12:57.588,-0.245,0.15
11:12:57.592,-0.24,0.14
11:12:57.596,-0.24,0.135
11:12:57.600,-0.235,0.15
11:12:57.604,-0.23,0.155
11:12:57.608,-0.23,0.155
11:12:57.612,-0.24,0.145
11:12:57.616,-0.28,0.16
11:12:57.620,-0.29,0.165
11:12:57.624,-0.305,0.17
11:12:57.628,-0.305,0.135
11:12:57.632,-0.335,0.1
11:12:57.636,-0.345,0.095
11:12:57.640,-0.335,0.115
11:12:57.644,-0.325,0.11
11:12:57.648,-0.33,0.115
11:12:57.652,-0.315,0.075
11:12:57.656,-0.335,0.07
11:12:57.660,-0.33,0.08
11:12:57.664,-0.33,0.085
11:12:57.668,-0.34,0.095
11:12:57.672,-0.325,0.1
11:12:57.676,-0.325,0.09
11:12:57.680,-0.34,0.095
11:12:57.684,-0.32,0.07
11:12:57.688,-0.285,0.07
11:12:57.692,-0.275,0.105
11:12:57.696,-0.305,0.12
11:12:57.700,-0.29,0.125
11:12:57.704,-0.27,0.135
11:12:57.708,-0.25,0.135
11:12:57.712,-0.245,0.14
11:12:57.716,-0.23,0.14
11:12:57.720,-0.2,0.175
11:12:57.724,-0.175,0.185
11:12:57.728,-0.135,0.21
11:12:57.732,-0.135,0.25
11:12:57.736,-0.105,0.26
11:12:57.740,-0.115,0.265
11:12:57.744,-0.105,0.265
11:12:57.748,-0.16,0.29
11:12:57.752,-0.2,0.29
11:12:57.756,-0.225,0.235
11:12:57.760,-0.225,0.23
11:12:57.764,-0.24,0.18
11:12:57.768,-0.23,0.15
11:12:57.772,-0.23,0.14
11:12:57.776,-0.215,0.11
11:12:57.780,-0.235,0.1
11:12:57.784,-0.27,0.095
11:12:57.788,-0.275,0.115
11:12:57.792,-0.255,0.095
11:12:57.796,-0.26,0.085
11:12:57.800,-0.26,0.09
11:12:57.804,-0.205,0.06
11:12:57.808,-0.08,0.08
11:12:57.812,0.025,0.065
11:12:57.816,0.04,0.09
11:12:57.820,-0.07,0.13
11:12:57.824,-0.25,0.24
11:12:57.828,-0.61,0.23
11:12:57.832,-1.1,-0.01
11:12:57.836,-1.525,-0.465
11:12:57.840,-1.88,-1.01
11:12:57.844,-2.065,-1.82
11:12:57.848,-2.105,-2.765
11:12:57.852,-2.0,-3.54
11:12:57.856,-1.9,-4.11
11:12:57.860,-1.945,-4.54
11:12:57.864,-1.98,-4.805
11:12:57.868,-1.92,-4.95
11:12:57.872,-1.88,-4.945
11:12:57.876,-1.855,-4.88
11:12:57.880,-1.895,-4.72
11:12:57.884,-1.87,-4.595
11:12:57.888,-1.86,-4.49
11:12:57.892,-1.845,-4.405
11:12:57.896,-1.795,-4.31
11:12:57.900,-1.65,-4.16
11:12:57.904,-1.445,-3.875
11:12:57.908,-1.29,-3.585
11:12:57.912,-1.165,-3.265
11:12:57.916,-1.07,-2.825
11:12:57.920,-0.985,-2.38
11:12:57.924,-0.86,-1.87
11:12:57.928,-0.665,-1.425
11:12:57.932,-0.49,-1.07
11:12:57.936,-0.335,-0.75
11:12:57.940,-0.18,-0.505
11:12:57.944,-0.075,-0.26
11:12:57.948,-0.03,-0.03
11:12:57.952,0.01,0.155
11:12:57.956,0.05,0.365
11:12:57.960,0.06,0.525
11:12:57.964,0.045,0.695
11:12:57.968,0.04,0.82
11:12:57.972,0.025,0.84
11:12:57.976,0.055,0.87
11:12:57.980,0.07,0.87
11:12:57.984,0.075,0.83
11:12:57.988,0.095,0.85
11:12:57.992,0.1,0.865
11:12:57.996,0.1,0.88
11:12:58.000,0.135,0.875
11:12:58.004,0.12,0.925
11:12:58.008,0.125,0.92
11:12:58.012,0.13,0.955
11:12:58.016,0.125,0.965
11:12:58.020,0.12,0.975
11:12:58.024,0.125,0.98
11:12:58.028,0.13,0.955
11:12:58.032,0.15,0.99
11:12:58.036,0.155,1.02
11:12:58.040,0.15,1.06
11:12:58.044,0.16,1.085
11:12:58.048,0.14,1.12
11:12:58.052,0.125,1.145
11:12:58.056,0.14,1.155
11:12:58.060,0.15,1.175
11:12:58.064,0.175,1.18
11:12:58.068,0.185,1.225
11:12:58.072,0.195,1.24
11:12:58.076,0.205,1.26
11:12:58.080,0.205,1.25
11:12:58.084,0.205,1.3
11:12:58.088,0.215,1.32
11:12:58.092,0.225,1.36
11:12:58.096,0.22,1.375
11:12:58.100,0.245,1.43
11:12:58.104,0.23,1.46
11:12:58.108,0.24,1.445
11:12:58.112,0.28,1.465
11:12:58.116,0.265,1.485
11:12:58.120,0.24,1.51
11:12:58.124,0.22,1.52
11:12:58.128,0.23,1.52
11:12:58.132,0.22,1.54
11:12:58.136,0.21,1.565
11:12:58.140,0.185,1.555
11:12:58.144,0.175,1.555
11:12:58.148,0.145,1.56
11:12:58.152,0.125,1.49
11:12:58.156,0.13,1.465
11:12:58.160,0.105,1.42
11:12:58.164,0.105,1.405
11:12:58.168,0.07,1.345
11:12:58.172,0.06,1.285
11:12:58.176,0.06,1.205
11:12:58.180,0.045,1.145
11:12:58.184,0.05,1.065
11:12:58.188,0.06,0.99
11:12:58.192,0.07,0.92
11:12:58.196,0.06,0.865
11:12:58.200,0.0,0.785
11:12:58.204,-0.095,0.71
11:12:58.208,-0.16,0.68
11:12:58.212,-0.225,0.67
11:12:58.216,-0.26,0.625
11:12:58.220,-0.29,0.58
11:12:58.224,-0.315,0.505
11:12:58.228,-0.355,0.48
11:12:58.232,-0.36,0.41
11:12:58.236,-0.38,0.365
11:12:58.240,-0.38,0.355
11:12:58.244,-0.375,0.355
11:12:58.248,-0.385,0.35
11:12:58.252,-0.385,0.345
11:12:58.256,-0.41,0.31
11:12:58.260,-0.42,0.32
11:12:58.264,-0.42,0.335
11:12:58.268,-0.435,0.34
11:12:58.272,-0.435,0.315
11:12:58.276,-0.42,0.315
11:12:58.280,-0.415,0.32
11:12:58.284,-0.415,0.305
11:12:58.288,-0.4,0.335
11:12:58.292,-0.395,0.345
11:12:58.296,-0.4,0.35
11:12:58.300,-0.41,0.335
11:12:58.304,-0.43,0.37
11:12:58.308,-0.42,0.37
11:12:58.312,-0.42,0.355
11:12:58.316,-0.415,0.34
11:12:58.320,-0.4,0.34
11:12:58.324,-0.4,0.36
11:12:58.328,-0.385,0.355
11:12:58.332,-0.415,0.37
11:12:58.336,-0.4,0.375
11:12:58.340,-0.405,0.335
11:12:58.344,-0.395,0.31
11:12:58.348,-0.395,0.335
11:12:58.352,-0.395,0.335
11:12:58.356,-0.375,0.34
11:12:58.360,-0.36,0.33
11:12:58.364,-0.35,0.34
11:12:58.368,-0.315,0.285
11:12:58.372,-0.32,0.31
11:12:58.376,-0.325,0.35
11:12:58.380,-0.35,0.295
11:12:58.384,-0.35,0.295
11:12:58.388,-0.355,0.265
11:12:58.392,-0.365,0.25
11:12:58.396,-0.375,0.23
11:12:58.400,-0.355,0.205
11:12:58.404,-0.34,0.165
11:12:58.408,-0.325,0.19
11:12:58.412,-0.295,0.18
11:12:58.416,-0.23,0.18
11:12:58.420,-0.155,0.175
11:12:58.424,0.035,0.19
11:12:58.428,0.185,0.185
11:12:58.432,0.26,0.22
11:12:58.436,0.22,0.285
11:12:58.440,0.09,0.39
11:12:58.444,-0.21,0.38
11:12:58.448,-0.665,0.065
11:12:58.452,-1.085,-0.375
11:12:58.456,-1.425,-0.93
11:12:58.460,-1.575,-1.835
11:12:58.464,-1.585,-2.81
11:12:58.468,-1.495,-3.585
11:12:58.472,-1.565,-4.175
11:12:58.476,-1.715,-4.53
11:12:58.480,-1.825,-4.765
11:12:58.484,-1.835,-4.825
11:12:58.488,-1.865,-4.81
11:12:58.492,-1.855,-4.725
11:12:58.496,-1.78,-4.62
11:12:58.500,-1.675,-4.535
11:12:58.504,-1.685,-4.47
11:12:58.508,-1.73,-4.415
11:12:58.512,-1.65,-4.295
11:12:58.516,-1.53,-4.06
11:12:58.520,-1.46,-3.81
11:12:58.524,-1.39,-3.48
11:12:58.528,-1.34,-3.125
11:12:58.532,-1.275,-2.675
11:12:58.536,-1.12,-2.2
11:12:58.540,-0.895,-1.705
11:12:58.544,-0.69,-1.25
11:12:58.548,-0.5,-0.9
11:12:58.552,-0.36,-0.605
11:12:58.556,-0.305,-0.375
11:12:58.560,-0.235,-0.16
11:12:58.564,-0.19,0.08
11:12:58.568,-0.14,0.335
11:12:58.572,-0.145,0.51
11:12:58.576,-0.115,0.635
11:12:58.580,-0.095,0.74
11:12:58.584,-0.075,0.81
11:12:58.588,-0.05,0.82
11:12:58.592,-0.035,0.865
11:12:58.596,-0.035,0.89
11:12:58.600,-0.025,0.935
11:12:58.604,-0.01,0.945
11:12:58.608,-0.005,0.97
11:12:58.612,0.03,0.96
11:12:58.616,0.03,0.96
11:12:58.620,0.055,0.94
11:12:58.624,0.08,0.97
11:12:58.628,0.075,0.995
11:12:58.632,0.08,1.025
11:12:58.636,0.08,1.045
11:12:58.640,0.09,1.05
11:12:58.644,0.11,1.035
11:12:58.648,0.11,1.055
11:12:58.652,0.115,1.065
11:12:58.656,0.125,1.105
11:12:58.660,0.125,1.1
11:12:58.664,0.145,1.115
11:12:58.668,0.14,1.125
11:12:58.672,0.17,1.145
11:12:58.676,0.18,1.17
11:12:58.680,0.15,1.195
11:12:58.684,0.17,1.19
11:12:58.688,0.17,1.24
11:12:58.692,0.18,1.22
11:12:58.696,0.18,1.225
11:12:58.700,0.19,1.255
11:12:58.704,0.2,1.3
11:12:58.708,0.205,1.285
11:12:58.712,0.18,1.32
11:12:58.716,0.19,1.34
11:12:58.720,0.185,1.375
11:12:58.724,0.14,1.4
11:12:58.728,0.145,1.405
11:12:58.732,0.125,1.4
11:12:58.736,0.105,1.4
11:12:58.740,0.09,1.405
11:12:58.744,0.06,1.365
11:12:58.748,0.04,1.355
11:12:58.752,0.02,1.35
11:12:58.756,-0.025,1.315
11:12:58.760,-0.045,1.29
11:12:58.764,-0.085,1.24
11:12:58.768,-0.12,1.175
11:12:58.772,-0.155,1.125
11:12:58.776,-0.18,1.075
11:12:58.780,-0.2,1.015
11:12:58.784,-0.21,0.95
11:12:58.788,-0.2,0.87
11:12:58.792,-0.235,0.81
11:12:58.796,-0.23,0.775
11:12:58.800,-0.25,0.73
11:12:58.804,-0.255,0.645
11:12:58.808,-0.29,0.58
11:12:58.812,-0.29,0.545
11:12:58.816,-0.29,0.485
11:12:58.820,-0.3,0.44
11:12:58.824,-0.3,0.39
11:12:58.828,-0.285,0.385
11:12:58.832,-0.29,0.38
11:12:58.836,-0.275,0.37
11:12:58.840,-0.285,0.33
11:12:58.844,-0.275,0.325
11:12:58.848,-0.28,0.335
11:12:58.852,-0.285,0.335
11:12:58.856,-0.295,0.3
11:12:58.860,-0.315,0.28
11:12:58.864,-0.28,0.285
11:12:58.868,-0.3,0.31
11:12:58.872,-0.28,0.31
11:12:58.876,-0.29,0.29
11:12:58.880,-0.26,0.295
11:12:58.884,-0.275,0.29
11:12:58.888,-0.305,0.28
11:12:58.892,-0.295,0.275
11:12:58.896,-0.29,0.25
11:12:58.900,-0.275,0.245
11:12:58.904,-0.315,0.235
11:12:58.908,-0.285,0.28
11:12:58.912,-0.27,0.255
11:12:58.916,-0.29,0.255
11:12:58.920,-0.29,0.26
11:12:58.924,-0.295,0.245
11:12:58.928,-0.3,0.23
11:12:58.932,-0.305,0.24
11:12:58.936,-0.295,0.24
11:12:58.940,-0.315,0.22
11:12:58.944,-0.3,0.205
11:12:58.948,-0.32,0.205
11:12:58.952,-0.33,0.205
11:12:58.956,-0.325,0.21
