Time,ECG1,ECG2
11:13:39.512,-1.835,-1.09
11:13:39.516,-1.94,-2.015
11:13:39.520,-1.87,-2.995
11:13:39.524,-1.7,-3.715
11:13:39.528,-1.63,-4.21
11:13:39.532,-1.685,-4.525
11:13:39.536,-1.69,-4.695
11:13:39.540,-1.62,-4.755
11:13:39.544,-1.6,-4.72
11:13:39.548,-1.575,-4.635
11:13:39.552,-1.585,-4.49
11:13:39.556,-1.565,-4.39
11:13:39.560,-1.575,-4.3
11:13:39.564,-1.635,-4.25
11:13:39.568,-1.555,-4.17
11:13:39.572,-1.44,-4.005
11:13:39.576,-1.31,-3.75
11:13:39.580,-1.23,-3.455
11:13:39.584,-1.1,-3.075
11:13:39.588,-0.98,-2.67
11:13:39.592,-0.84,-2.195
11:13:39.596,-0.645,-1.64
11:13:39.600,-0.48,-1.195
11:13:39.604,-0.35,-0.875
11:13:39.608,-0.2,-0.565
11:13:39.612,-0.14,-0.3
11:13:39.616,-0.09,-0.06
11:13:39.620,-0.055,0.14
11:13:39.624,-0.025,0.4
11:13:39.628,-0.035,0.57
11:13:39.632,-0.015,0.72
11:13:39.636,0.01,0.835
11:13:39.640,0.03,0.9
11:13:39.644,0.06,0.975
11:13:39.648,0.075,0.985
11:13:39.652,0.115,1.025
11:13:39.656,0.13,1.035
11:13:39.660,0.135,1.07
11:13:39.664,0.145,1.11
11:13:39.668,0.135,1.125
11:13:39.672,0.175,1.15
11:13:39.676,0.18,1.185
11:13:39.680,0.205,1.175
11:13:39.684,0.245,1.175
11:13:39.688,0.265,1.175
11:13:39.692,0.275,1.22
11:13:39.696,0.295,1.285
11:13:39.700,0.345,1.305
11:13:39.704,0.39,1.325
11:13:39.708,0.395,1.325
11:13:39.712,0.395,1.38
11:13:39.716,0.395,1.405
11:13:39.720,0.415,1.445
11:13:39.724,0.405,1.49
11:13:39.728,0.375,1.505
11:13:39.732,0.375,1.505
11:13:39.736,0.39,1.555
11:13:39.740,0.37,1.59
11:13:39.744,0.375,1.595
11:13:39.748,0.385,1.58
11:13:39.752,0.4,1.575
11:13:39.756,0.37,1.62
11:13:39.760,0.38,1.655
11:13:39.764,0.405,1.645
11:13:39.768,0.4,1.625
11:13:39.772,0.395,1.65
11:13:39.776,0.41,1.655
11:13:39.780,0.4,1.64
11:13:39.784,0.375,1.65
11:13:39.788,0.345,1.69
11:13:39.792,0.315,1.685
11:13:39.796,0.305,1.68
11:13:39.800,0.25,1.68
11:13:39.804,0.24,1.66
11:13:39.808,0.18,1.645
11:13:39.812,0.135,1.585
11:13:39.816,0.095,1.535
11:13:39.820,0.05,1.475
11:13:39.824,0.065,1.415
11:13:39.828,0.015,1.36
11:13:39.832,-0.01,1.325
11:13:39.836,-0.035,1.235
11:13:39.840,-0.08,1.175
11:13:39.844,-0.115,1.12
11:13:39.848,-0.15,1.045
11:13:39.852,-0.195,0.97
11:13:39.856,-0.19,0.895
11:13:39.860,-0.2,0.82
11:13:39.864,-0.18,0.78
11:13:39.868,-0.175,0.715
11:13:39.872,-0.18,0.66
11:13:39.876,-0.17,0.64
11:13:39.880,-0.16,0.57
11:13:39.884,-0.165,0.555
11:13:39.888,-0.19,0.55
11:13:39.892,-0.19,0.545
11:13:39.896,-0.195,0.55
11:13:39.900,-0.195,0.54
11:13:39.904,-0.215,0.53
11:13:39.908,-0.2,0.49
11:13:39.912,-0.2,0.48
11:13:39.916,-0.205,0.51
11:13:39.920,-0.215,0.5
11:13:39.924,-0.215,0.535
11:13:39.928,-0.225,0.525
11:13:39.932,-0.225,0.535
11:13:39.936,-0.225,0.53
11:13:39.940,-0.235,0.505
11:13:39.944,-0.27,0.485
11:13:39.948,-0.27,0.45
11:13:39.952,-0.25,0.41
11:13:39.956,-0.245,0.395
11:13:39.960,-0.24,0.42
11:13:39.964,-0.24,0.39
11:13:39.968,-0.21,0.43
11:13:39.972,-0.225,0.39
11:13:39.976,-0.225,0.41
11:13:39.980,-0.255,0.435
11:13:39.984,-0.24,0.445
11:13:39.988,-0.26,0.42
11:13:39.992,-0.24,0.41
11:13:39.996,-0.255,0.41
11:13:40.000,-0.235,0.395
11:13:40.004,-0.24,0.415
11:13:40.008,-0.24,0.47
11:13:40.012,-0.24,0.465
11:13:40.016,-0.26,0.485
11:13:40.020,-0.275,0.475
11:13:40.024,-0.295,0.445
11:13:40.028,-0.295,0.455
11:13:40.032,-0.32,0.445
11:13:40.036,-0.315,0.435
11:13:40.040,-0.305,0.43
11:13:40.044,-0.3,0.395
11:13:40.048,-0.3,0.395
11:13:40.052,-0.275,0.39
11:13:40.056,-0.28,0.41
11:13:40.060,-0.265,0.405
11:13:40.064,-0.27,0.41
11:13:40.068,-0.255,0.43
11:13:40.072,-0.195,0.445
11:13:40.076,-0.09,0.435
11:13:40.080,0.07,0.41
11:13:40.084,0.23,0.405
11:13:40.088,0.23,0.445
11:13:40.092,0.165,0.535
11:13:40.096,-0.05,0.62
11:13:40.100,-0.4,0.565
11:13:40.104,-0.82,0.28
11:13:40.108,-1.16,-0.2
11:13:40.112,-1.39,-0.81
11:13:40.116,-1.455,-1.715
11:13:40.120,-1.425,-2.73
11:13:40.124,-1.325,-3.49
11:13:40.128,-1.295,-4.025
11:13:40.132,-1.39,-4.38
11:13:40.136,-1.445,-4.58
11:13:40.140,-1.45,-4.695
11:13:40.144,-1.495,-4.705
11:13:40.148,-1.61,-4.625
11:13:40.152,-1.68,-4.525
11:13:40.156,-1.675,-4.465
11:13:40.160,-1.745,-4.41
11:13:40.164,-1.85,-4.37
11:13:40.168,-1.87,-4.315
11:13:40.172,-1.8,-4.2
11:13:40.176,-1.665,-3.98
11:13:40.180,-1.515,-3.71
11:13:40.184,-1.4,-3.41
11:13:40.188,-1.265,-3.05
11:13:40.192,-1.12,-2.61
11:13:40.196,-0.91,-2.12
11:13:40.200,-0.7,-1.59
11:13:40.204,-0.485,-1.155
11:13:40.208,-0.315,-0.78
11:13:40.212,-0.215,-0.48
11:13:40.216,-0.16,-0.24
11:13:40.220,-0.1,-0.01
11:13:40.224,-0.055,0.245
11:13:40.228,-0.06,0.44
11:13:40.232,-0.055,0.6
11:13:40.236,-0.065,0.755
11:13:40.240,-0.05,0.84
11:13:40.244,-0.055,0.895
11:13:40.248,-0.005,0.88
11:13:40.252,0.015,0.905
11:13:40.256,0.03,0.98
11:13:40.260,0.06,1.02
11:13:40.264,0.09,1.01
11:13:40.268,0.135,1.03
11:13:40.272,0.155,1.025
11:13:40.276,0.165,1.05
11:13:40.280,0.195,1.115
11:13:40.284,0.175,1.145
11:13:40.288,0.215,1.135
11:13:40.292,0.23,1.155
11:13:40.296,0.235,1.155
11:13:40.300,0.24,1.205
11:13:40.304,0.26,1.215
11:13:40.308,0.285,1.255
11:13:40.312,0.27,1.27
11:13:40.316,0.28,1.275
11:13:40.320,0.29,1.3
11:13:40.324,0.295,1.305
11:13:40.328,0.275,1.325
11:13:40.332,0.26,1.345
11:13:40.336,0.255,1.355
11:13:40.340,0.27,1.36
11:13:40.344,0.25,1.38
11:13:40.348,0.245,1.415
11:13:40.352,0.29,1.43
11:13:40.356,0.245,1.44
11:13:40.360,0.25,1.465
11:13:40.364,0.225,1.48
11:13:40.368,0.215,1.47
11:13:40.372,0.24,1.46
11:13:40.376,0.22,1.435
11:13:40.380,0.225,1.435
11:13:40.384,0.21,1.455
11:13:40.388,0.195,1.45
11:13:40.392,0.18,1.435
11:13:40.396,0.135,1.425
11:13:40.400,0.09,1.445
11:13:40.404,0.06,1.415
11:13:40.408,0.045,1.39
11:13:40.412,0.005,1.335
11:13:40.416,-0.045,1.29
11:13:40.420,-0.09,1.265
11:13:40.424,-0.11,1.155
11:13:40.428,-0.145,1.115
11:13:40.432,-0.16,1.06
11:13:40.436,-0.17,1.025
11:13:40.440,-0.17,0.91
11:13:40.444,-0.185,0.855
11:13:40.448,-0.17,0.8
11:13:40.452,-0.17,0.78
11:13:40.456,-0.18,0.745
11:13:40.460,-0.16,0.665
11:13:40.464,-0.155,0.63
11:13:40.468,-0.165,0.55
11:13:40.472,-0.155,0.535
11:13:40.476,-0.145,0.505
11:13:40.480,-0.145,0.495
11:13:40.484,-0.13,0.495
11:13:40.488,-0.12,0.5
11:13:40.492,-0.12,0.475
11:13:40.496,-0.16,0.47
11:13:40.500,-0.145,0.44
11:13:40.504,-0.145,0.45
11:13:40.508,-0.145,0.415
11:13:40.512,-0.14,0.405
11:13:40.516,-0.145,0.415
11:13:40.520,-0.15,0.43
11:13:40.524,-0.13,0.43
11:13:40.528,-0.125,0.445
11:13:40.532,-0.15,0.45
11:13:40.536,-0.155,0.47
11:13:40.540,-0.175,0.47
11:13:40.544,-0.19,0.48
11:13:40.548,-0.215,0.5
11:13:40.552,-0.21,0.5
11:13:40.556,-0.25,0.48
11:13:40.560,-0.21,0.465
11:13:40.564,-0.215,0.42
11:13:40.568,-0.195,0.405
11:13:40.572,-0.205,0.41
11:13:40.576,-0.205,0.42
11:13:40.580,-0.25,0.425
11:13:40.584,-0.275,0.425
11:13:40.588,-0.25,0.395
11:13:40.592,-0.255,0.37
11:13:40.596,-0.275,0.295
11:13:40.600,-0.285,0.29
11:13:40.604,-0.275,0.34
11:13:40.608,-0.285,0.33
11:13:40.612,-0.265,0.3
11:13:40.616,-0.19,0.26
11:13:40.620,-0.07,0.3
11:13:40.624,0.09,0.275
11:13:40.628,0.225,0.275
11:13:40.632,0.235,0.275
11:13:40.636,0.125,0.37
11:13:40.640,-0.105,0.49
11:13:40.644,-0.535,0.455
11:13:40.648,-0.96,0.165
11:13:40.652,-1.305,-0.305
11:13:40.656,-1.52,-0.9
11:13:40.660,-1.595,-1.775
11:13:40.664,-1.565,-2.735
11:13:40.668,-1.42,-3.45
11:13:40.672,-1.29,-3.97
11:13:40.676,-1.295,-4.36
11:13:40.680,-1.265,-4.59
11:13:40.684,-1.2,-4.705
11:13:40.688,-1.145,-4.75
11:13:40.692,-1.16,-4.68
11:13:40.696,-1.15,-4.56
11:13:40.700,-1.095,-4.405
11:13:40.704,-1.085,-4.27
11:13:40.708,-1.1,-4.195
11:13:40.712,-1.115,-4.105
11:13:40.716,-1.07,-3.965
11:13:40.720,-0.985,-3.73
11:13:40.724,-0.885,-3.415
11:13:40.728,-0.83,-3.09
11:13:40.732,-0.775,-2.71
11:13:40.736,-0.73,-2.285
11:13:40.740,-0.635,-1.805
11:13:40.744,-0.47,-1.36
11:13:40.748,-0.335,-0.955
11:13:40.752,-0.185,-0.6
11:13:40.756,-0.085,-0.31
11:13:40.760,-0.06,-0.165
11:13:40.764,-0.01,-0.005
11:13:40.768,0.0,0.17
11:13:40.772,0.005,0.345
11:13:40.776,0.035,0.525
11:13:40.780,0.045,0.66
11:13:40.784,0.095,0.76
11:13:40.788,0.145,0.84
11:13:40.792,0.18,0.875
11:13:40.796,0.195,0.91
11:13:40.800,0.195,0.935
11:13:40.804,0.23,0.955
11:13:40.808,0.265,0.98
11:13:40.812,0.27,0.985
11:13:40.816,0.275,0.975
11:13:40.820,0.3,1.025
11:13:40.824,0.315,1.035
11:13:40.828,0.35,1.055
11:13:40.832,0.375,1.09
11:13:40.836,0.41,1.12
11:13:40.840,0.425,1.13
11:13:40.844,0.46,1.18
11:13:40.848,0.485,1.185
11:13:40.852,0.465,1.21
11:13:40.856,0.505,1.215
11:13:40.860,0.505,1.225
11:13:40.864,0.52,1.25
11:13:40.868,0.535,1.3
11:13:40.872,0.55,1.32
11:13:40.876,0.55,1.35
11:13:40.880,0.565,1.385
11:13:40.884,0.575,1.43
11:13:40.888,0.57,1.425
11:13:40.892,0.575,1.475
11:13:40.896,0.57,1.48
11:13:40.900,0.535,1.495
11:13:40.904,0.53,1.52
11:13:40.908,0.545,1.53
11:13:40.912,0.5,1.52
11:13:40.916,0.51,1.51
11:13:40.920,0.505,1.54
11:13:40.924,0.5,1.57
11:13:40.928,0.475,1.56
11:13:40.932,0.465,1.6
11:13:40.936,0.425,1.59
11:13:40.940,0.41,1.58
11:13:40.944,0.34,1.57
11:13:40.948,0.315,1.58
11:13:40.952,0.275,1.575
11:13:40.956,0.235,1.52
11:13:40.960,0.22,1.455
11:13:40.964,0.175,1.38
11:13:40.968,0.13,1.315
11:13:40.972,0.09,1.245
11:13:40.976,0.055,1.205
11:13:40.980,-0.015,1.11
11:13:40.984,-0.02,1.045
11:13:40.988,-0.045,0.94
11:13:40.992,-0.085,0.865
11:13:40.996,-0.095,0.81
11:13:41.000,-0.105,0.705
11:13:41.004,-0.125,0.615
11:13:41.008,-0.125,0.55
11:13:41.012,-0.105,0.49
11:13:41.016,-0.1,0.46
11:13:41.020,-0.115,0.435
11:13:41.024,-0.125,0.41
11:13:41.028,-0.145,0.405
11:13:41.032,-0.14,0.36
11:13:41.036,-0.09,0.36
11:13:41.040,-0.1,0.35
11:13:41.044,-0.125,0.36
11:13:41.048,-0.105,0.33
11:13:41.052,-0.075,0.32
11:13:41.056,-0.05,0.345
11:13:41.060,-0.02,0.295
11:13:41.064,-0.005,0.305
11:13:41.068,-0.005,0.285
11:13:41.072,-0.015,0.295
11:13:41.076,-0.02,0.31
11:13:41.080,0.0,0.325
11:13:41.084,0.01,0.36
11:13:41.088,0.005,0.355
11:13:41.092,0.005,0.325
11:13:41.096,0.015,0.35
11:13:41.100,0.01,0.355
11:13:41.104,-0.01,0.38
11:13:41.108,-0.03,0.375
11:13:41.112,-0.04,0.35
11:13:41.116,-0.045,0.35
11:13:41.120,-0.055,0.345
11:13:41.124,-0.06,0.34
11:13:41.128,-0.075,0.34
11:13:41.132,-0.08,0.325
11:13:41.136,-0.095,0.315
11:13:41.140,-0.095,0.35
11:13:41.144,-0.05,0.37
11:13:41.148,0.02,0.35
11:13:41.152,0.125,0.355
11:13:41.156,0.26,0.365
11:13:41.160,0.355,0.38
11:13:41.164,0.255,0.435
11:13:41.168,0.06,0.435
11:13:41.172,-0.235,0.47
11:13:41.176,-0.66,0.315
11:13:41.180,-1.135,-0.02
11:13:41.184,-1.51,-0.455
11:13:41.188,-1.79,-1.055
11:13:41.192,-1.9,-1.93
11:13:41.196,-1.945,-2.825
11:13:41.200,-1.865,-3.55
11:13:41.204,-1.775,-4.08
11:13:41.208,-1.68,-4.44
11:13:41.212,-1.605,-4.655
11:13:41.216,-1.515,-4.75
11:13:41.220,-1.43,-4.775
11:13:41.224,-1.415,-4.635
11:13:41.228,-1.385,-4.44
11:13:41.232,-1.28,-4.31
11:13:41.236,-1.25,-4.22
11:13:41.240,-1.18,-4.135
11:13:41.244,-1.075,-4.03
11:13:41.248,-0.935,-3.83
11:13:41.252,-0.8,-3.535
11:13:41.256,-0.665,-3.19
11:13:41.260,-0.615,-2.87
11:13:41.264,-0.57,-2.46
11:13:41.268,-0.475,-2.01
11:13:41.272,-0.315,-1.63
11:13:41.276,-0.18,-1.235
11:13:41.280,-0.075,-0.9
11:13:41.284,0.025,-0.64
11:13:41.288,0.095,-0.38
11:13:41.292,0.115,-0.175
11:13:41.296,0.125,0.03
11:13:41.300,0.15,0.205
11:13:41.304,0.175,0.38
11:13:41.308,0.19,0.54
11:13:41.312,0.18,0.645
11:13:41.316,0.205,0.76
11:13:41.320,0.225,0.83
11:13:41.324,0.24,0.84
11:13:41.328,0.25,0.905
11:13:41.332,0.285,0.94
11:13:41.336,0.285,0.965
11:13:41.340,0.3,0.99
11:13:41.344,0.32,0.985
11:13:41.348,0.35,0.995
11:13:41.352,0.36,1.03
11:13:41.356,0.385,1.07
11:13:41.360,0.425,1.085
11:13:41.364,0.47,1.11
11:13:41.368,0.455,1.105
11:13:41.372,0.475,1.145
11:13:41.376,0.5,1.175
11:13:41.380,0.475,1.165
11:13:41.384,0.475,1.16
11:13:41.388,0.455,1.17
11:13:41.392,0.46,1.165
11:13:41.396,0.45,1.16
11:13:41.400,0.47,1.17
11:13:41.404,0.485,1.18
11:13:41.408,0.5,1.22
11:13:41.412,0.51,1.22
11:13:41.416,0.48,1.26
11:13:41.420,0.495,1.28
11:13:41.424,0.515,1.275
11:13:41.428,0.51,1.33
11:13:41.432,0.495,1.315
11:13:41.436,0.495,1.365
11:13:41.440,0.51,1.37
11:13:41.444,0.535,1.385
11:13:41.448,0.56,1.405
11:13:41.452,0.57,1.405
11:13:41.456,0.57,1.425
11:13:41.460,0.585,1.445
11:13:41.464,0.55,1.465
11:13:41.468,0.515,1.48
11:13:41.472,0.47,1.49
11:13:41.476,0.42,1.47
11:13:41.480,0.35,1.44
11:13:41.484,0.29,1.425
11:13:41.488,0.255,1.39
11:13:41.492,0.235,1.335
11:13:41.496,0.225,1.295
11:13:41.500,0.19,1.23
11:13:41.504,0.15,1.155
11:13:41.508,0.115,1.13
11:13:41.512,0.075,1.055
11:13:41.516,0.035,1.0
11:13:41.520,0.0,0.955
11:13:41.524,-0.025,0.915
11:13:41.528,-0.025,0.86
11:13:41.532,-0.06,0.83
11:13:41.536,-0.055,0.745
11:13:41.540,-0.055,0.7
11:13:41.544,-0.035,0.65
11:13:41.548,-0.045,0.6
11:13:41.552,-0.05,0.545
11:13:41.556,-0.045,0.49
11:13:41.560,-0.03,0.485
11:13:41.564,-0.04,0.48
11:13:41.568,-0.02,0.405
11:13:41.572,-0.015,0.36
11:13:41.576,-0.01,0.345
11:13:41.580,-0.01,0.34
11:13:41.584,-0.04,0.315
11:13:41.588,-0.04,0.325
11:13:41.592,-0.065,0.32
11:13:41.596,-0.045,0.345
11:13:41.600,-0.055,0.325
11:13:41.604,-0.05,0.315
11:13:41.608,-0.06,0.315
11:13:41.612,-0.06,0.33
11:13:41.616,-0.06,0.325
11:13:41.620,-0.06,0.33
11:13:41.624,-0.045,0.315
11:13:41.628,-0.055,0.31
11:13:41.632,-0.055,0.285
11:13:41.636,-0.1,0.305
11:13:41.640,-0.075,0.295
11:13:41.644,-0.075,0.31
11:13:41.648,-0.065,0.285
11:13:41.652,-0.07,0.29
11:13:41.656,-0.015,0.315
11:13:41.660,0.015,0.325
11:13:41.664,0.07,0.29
11:13:41.668,0.07,0.295
11:13:41.672,0.06,0.33
11:13:41.676,0.045,0.36
11:13:41.680,-0.005,0.375
11:13:41.684,-0.065,0.35
11:13:41.688,-0.135,0.365
11:13:41.692,-0.155,0.39
11:13:41.696,-0.165,0.385
11:13:41.700,-0.165,0.37
11:13:41.704,-0.15,0.36
11:13:41.708,-0.155,0.335
11:13:41.712,-0.14,0.34
11:13:41.716,-0.155,0.335
11:13:41.720,-0.14,0.31
11:13:41.724,-0.15,0.345
11:13:41.728,-0.12,0.355
11:13:41.732,-0.13,0.36
11:13:41.736,-0.12,0.35
11:13:41.740,-0.085,0.335
11:13:41.744,-0.085,0.3
11:13:41.748,-0.08,0.285
11:13:41.752,-0.065,0.3
11:13:41.756,-0.04,0.26
11:13:41.760,0.06,0.27
11:13:41.764,0.2,0.245
11:13:41.768,0.24,0.265
11:13:41.772,0.16,0.3
11:13:41.776,-0.005,0.38
11:13:41.780,-0.285,0.425
11:13:41.784,-0.685,0.21
11:13:41.788,-1.075,-0.27
11:13:41.792,-1.425,-0.795
11:13:41.796,-1.66,-1.565
11:13:41.800,-1.81,-2.485
11:13:41.804,-1.77,-3.29
11:13:41.808,-1.7,-3.855
11:13:41.812,-1.72,-4.29
11:13:41.816,-1.82,-4.57
11:13:41.820,-1.845,-4.73
11:13:41.824,-1.845,-4.79
11:13:41.828,-1.855,-4.74
11:13:41.832,-1.89,-4.625
11:13:41.836,-1.84,-4.48
11:13:41.840,-1.75,-4.425
11:13:41.844,-1.695,-4.34
11:13:41.848,-1.615,-4.27
11:13:41.852,-1.455,-4.16
11:13:41.856,-1.25,-3.94
11:13:41.860,-1.075,-3.595
11:13:41.864,-0.97,-3.25
11:13:41.868,-0.83,-2.89
11:13:41.872,-0.72,-2.43
11:13:41.876,-0.615,-1.97
11:13:41.880,-0.45,-1.54
11:13:41.884,-0.295,-1.185
11:13:41.888,-0.12,-0.835
11:13:41.892,-0.02,-0.505
11:13:41.896,0.035,-0.27
11:13:41.900,0.07,-0.05
11:13:41.904,0.08,0.16
11:13:41.908,0.055,0.355
11:13:41.912,0.075,0.535
11:13:41.916,0.095,0.655
11:13:41.920,0.11,0.775
11:13:41.924,0.125,0.87
11:13:41.928,0.145,0.885
11:13:41.932,0.155,0.945
11:13:41.936,0.18,0.98
11:13:41.940,0.18,1.02
11:13:41.944,0.19,1.02
11:13:41.948,0.2,1.045
11:13:41.952,0.23,1.055
11:13:41.956,0.255,1.1
11:13:41.960,0.285,1.13
11:13:41.964,0.3,1.145
11:13:41.968,0.335,1.165
11:13:41.972,0.38,1.165
11:13:41.976,0.365,1.155
11:13:41.980,0.385,1.165
11:13:41.984,0.36,1.175
11:13:41.988,0.385,1.24
11:13:41.992,0.39,1.285
11:13:41.996,0.4,1.235
11:13:42.000,0.41,1.24
11:13:42.004,0.41,1.24
11:13:42.008,0.44,1.265
11:13:42.012,0.47,1.305
11:13:42.016,0.465,1.335
11:13:42.020,0.475,1.35
11:13:42.024,0.48,1.36
11:13:42.028,0.47,1.37
11:13:42.032,0.475,1.42
11:13:42.036,0.495,1.41
11:13:42.040,0.475,1.43
11:13:42.044,0.485,1.5
11:13:42.048,0.47,1.49
11:13:42.052,0.505,1.55
11:13:42.056,0.485,1.585
11:13:42.060,0.46,1.57
11:13:42.064,0.44,1.58
11:13:42.068,0.415,1.57
11:13:42.072,0.39,1.58
11:13:42.076,0.34,1.575
11:13:42.080,0.28,1.56
11:13:42.084,0.27,1.545
11:13:42.088,0.22,1.5
11:13:42.092,0.18,1.47
11:13:42.096,0.125,1.385
11:13:42.100,0.08,1.365
11:13:42.104,0.03,1.26
11:13:42.108,0.0,1.235
11:13:42.112,-0.045,1.18
11:13:42.116,-0.095,1.13
11:13:42.120,-0.09,1.05
11:13:42.124,-0.12,0.99
11:13:42.128,-0.16,0.92
11:13:42.132,-0.165,0.815
11:13:42.136,-0.17,0.77
11:13:42.140,-0.19,0.71
11:13:42.144,-0.22,0.635
11:13:42.148,-0.245,0.595
11:13:42.152,-0.23,0.565
11:13:42.156,-0.23,0.55
11:13:42.160,-0.28,0.51
11:13:42.164,-0.27,0.475
11:13:42.168,-0.285,0.455
11:13:42.172,-0.31,0.445
11:13:42.176,-0.3,0.415
11:13:42.180,-0.305,0.4
11:13:42.184,-0.315,0.43
11:13:42.188,-0.325,0.44
11:13:42.192,-0.305,0.405
11:13:42.196,-0.275,0.395
11:13:42.200,-0.26,0.355
11:13:42.204,-0.25,0.35
11:13:42.208,-0.235,0.4
11:13:42.212,-0.215,0.43
11:13:42.216,-0.21,0.46
11:13:42.220,-0.205,0.435
11:13:42.224,-0.205,0.42
11:13:42.228,-0.195,0.415
11:13:42.232,-0.18,0.395
11:13:42.236,-0.175,0.41
11:13:42.240,-0.195,0.345
11:13:42.244,-0.13,0.34
11:13:42.248,-0.025,0.315
11:13:42.252,0.105,0.315
11:13:42.256,0.235,0.355
11:13:42.260,0.23,0.425
11:13:42.264,0.055,0.52
11:13:42.268,-0.295,0.575
11:13:42.272,-0.87,0.47
11:13:42.276,-1.395,0.175
11:13:42.280,-1.78,-0.275
11:13:42.284,-1.98,-0.905
11:13:42.288,-1.995,-1.89
11:13:42.292,-1.95,-2.795
11:13:42.296,-1.875,-3.52
11:13:42.300,-1.84,-4.095
11:13:42.304,-1.77,-4.435
11:13:42.308,-1.72,-4.615
11:13:42.312,-1.63,-4.705
11:13:42.316,-1.575,-4.63
11:13:42.320,-1.465,-4.505
11:13:42.324,-1.345,-4.4
11:13:42.328,-1.315,-4.315
11:13:42.332,-1.31,-4.215
11:13:42.336,-1.27,-4.12
11:13:42.340,-1.21,-3.935
11:13:42.344,-1.095,-3.665
11:13:42.348,-1.03,-3.3
11:13:42.352,-0.99,-2.925
11:13:42.356,-0.955,-2.485
11:13:42.360,-0.83,-2.005
11:13:42.364,-0.64,-1.55
11:13:42.368,-0.485,-1.15
11:13:42.372,-0.34,-0.795
11:13:42.376,-0.195,-0.49
11:13:42.380,-0.15,-0.21
11:13:42.384,-0.11,-0.01
11:13:42.388,-0.055,0.205
11:13:42.392,-0.055,0.41
11:13:42.396,-0.015,0.58
11:13:42.400,0.01,0.765
11:13:42.404,0.03,0.9
11:13:42.408,0.05,0.925
11:13:42.412,0.06,0.915
11:13:42.416,0.075,0.94
11:13:42.420,0.085,0.955
11:13:42.424,0.105,0.97
11:13:42.428,0.135,0.98
11:13:42.432,0.155,0.965
11:13:42.436,0.185,0.945
11:13:42.440,0.225,0.975
11:13:42.444,0.255,0.995
11:13:42.448,0.295,0.995
11:13:42.452,0.325,0.99
11:13:42.456,0.35,1.01
11:13:42.460,0.355,1.055
11:13:42.464,0.39,1.095
11:13:42.468,0.405,1.15
11:13:42.472,0.395,1.15
11:13:42.476,0.38,1.19
11:13:42.480,0.38,1.21
11:13:42.484,0.34,1.22
11:13:42.488,0.345,1.26
11:13:42.492,0.345,1.245
11:13:42.496,0.34,1.255
11:13:42.500,0.34,1.28
11:13:42.504,0.32,1.325
11:13:42.508,0.325,1.33
11:13:42.512,0.335,1.335
11:13:42.516,0.29,1.345
11:13:42.520,0.29,1.36
11:13:42.524,0.28,1.4
11:13:42.528,0.28,1.415
11:13:42.532,0.26,1.415
11:13:42.536,0.235,1.435
11:13:42.540,0.22,1.43
11:13:42.544,0.195,1.45
11:13:42.548,0.185,1.455
11:13:42.552,0.165,1.46
11:13:42.556,0.15,1.465
11:13:42.560,0.14,1.455
11:13:42.564,0.09,1.445
11:13:42.568,0.06,1.42
11:13:42.572,0.025,1.37
11:13:42.576,0.0,1.315
11:13:42.580,-0.035,1.285
11:13:42.584,-0.07,1.245
11:13:42.588,-0.075,1.18
11:13:42.592,-0.09,1.125
11:13:42.596,-0.08,1.06
11:13:42.600,-0.105,0.985
11:13:42.604,-0.09,0.89
11:13:42.608,-0.1,0.825
11:13:42.612,-0.125,0.78
11:13:42.616,-0.115,0.705
11:13:42.620,-0.12,0.62
11:13:42.624,-0.13,0.56
11:13:42.628,-0.125,0.535
11:13:42.632,-0.1,0.51
11:13:42.636,-0.08,0.495
11:13:42.640,-0.075,0.45
11:13:42.644,-0.07,0.415
11:13:42.648,-0.07,0.42
11:13:42.652,-0.045,0.425
11:13:42.656,-0.04,0.41
11:13:42.660,-0.08,0.43
11:13:42.664,-0.08,0.43
11:13:42.668,-0.1,0.43
11:13:42.672,-0.09,0.4
11:13:42.676,-0.1,0.415
11:13:42.680,-0.11,0.395
11:13:42.684,-0.11,0.43
11:13:42.688,-0.095,0.445
11:13:42.692,-0.075,0.45
11:13:42.696,-0.08,0.45
11:13:42.700,-0.085,0.44
11:13:42.704,-0.115,0.435
11:13:42.708,-0.1,0.435
11:13:42.712,-0.125,0.41
11:13:42.716,-0.15,0.405
11:13:42.720,-0.155,0.385
11:13:42.724,-0.165,0.375
11:13:42.728,-0.155,0.4
11:13:42.732,-0.13,0.365
11:13:42.736,-0.12,0.345
11:13:42.740,-0.025,0.325
11:13:42.744,0.125,0.325
11:13:42.748,0.285,0.345
11:13:42.752,0.31,0.365
11:13:42.756,0.205,0.405
11:13:42.760,0.02,0.51
11:13:42.764,-0.335,0.51
11:13:42.768,-0.785,0.215
11:13:42.772,-1.195,-0.29
11:13:42.776,-1.475,-0.89
11:13:42.780,-1.64,-1.815
11:13:42.784,-1.64,-2.845
11:13:42.788,-1.53,-3.63
11:13:42.792,-1.39,-4.12
11:13:42.796,-1.4,-4.46
11:13:42.800,-1.355,-4.655
11:13:42.804,-1.27,-4.76
11:13:42.808,-1.19,-4.735
11:13:42.812,-1.19,-4.605
11:13:42.816,-1.18,-4.455
11:13:42.820,-1.15,-4.35
11:13:42.824,-1.15,-4.25
11:13:42.828,-1.18,-4.165
11:13:42.832,-1.16,-4.085
11:13:42.836,-1.045,-3.89
11:13:42.840,-0.945,-3.595
11:13:42.844,-0.855,-3.255
11:13:42.848,-0.78,-2.925
11:13:42.852,-0.69,-2.505
11:13:42.856,-0.57,-2.035
11:13:42.860,-0.37,-1.57
11:13:42.864,-0.23,-1.105
11:13:42.868,-0.085,-0.735
11:13:42.872,0.035,-0.425
11:13:42.876,0.095,-0.19
11:13:42.880,0.14,0.045
11:13:42.884,0.135,0.255
11:13:42.888,0.15,0.435
11:13:42.892,0.18,0.63
11:13:42.896,0.195,0.765
11:13:42.900,0.23,0.88
11:13:42.904,0.24,0.99
11:13:42.908,0.275,1.005
11:13:42.912,0.28,1.005
11:13:42.916,0.285,1.04
11:13:42.920,0.28,1.065
11:13:42.924,0.305,1.1
11:13:42.928,0.335,1.135
11:13:42.932,0.33,1.13
11:13:42.936,0.335,1.155
11:13:42.940,0.36,1.175
11:13:42.944,0.36,1.2
11:13:42.948,0.375,1.225
11:13:42.952,0.405,1.25
11:13:42.956,0.415,1.28
11:13:42.960,0.41,1.28
11:13:42.964,0.405,1.31
11:13:42.968,0.405,1.315
11:13:42.972,0.425,1.335
11:13:42.976,0.45,1.325
11:13:42.980,0.465,1.33
11:13:42.984,0.505,1.39
11:13:42.988,0.555,1.405
11:13:42.992,0.54,1.44
11:13:42.996,0.53,1.46
11:13:43.000,0.515,1.515
11:13:43.004,0.565,1.545
11:13:43.008,0.59,1.55
11:13:43.012,0.595,1.55
11:13:43.016,0.625,1.53
11:13:43.020,0.65,1.55
11:13:43.024,0.66,1.59
11:13:43.028,0.66,1.61
11:13:43.032,0.635,1.645
11:13:43.036,0.615,1.685
11:13:43.040,0.57,1.68
11:13:43.044,0.5,1.66
11:13:43.048,0.44,1.665
11:13:43.052,0.4,1.665
11:13:43.056,0.325,1.635
11:13:43.060,0.285,1.565
11:13:43.064,0.245,1.515
11:13:43.068,0.235,1.45
11:13:43.072,0.21,1.38
11:13:43.076,0.175,1.36
11:13:43.080,0.135,1.315
11:13:43.084,0.105,1.265
11:13:43.088,0.095,1.2
11:13:43.092,0.1,1.145
11:13:43.096,0.075,1.09
11:13:43.100,0.04,0.995
11:13:43.104,0.025,0.915
11:13:43.108,0.025,0.835
11:13:43.112,0.03,0.81
11:13:43.116,0.035,0.785
11:13:43.120,0.025,0.76
11:13:43.124,0.025,0.7
11:13:43.128,-0.005,0.685
11:13:43.132,-0.01,0.655
11:13:43.136,-0.01,0.62
11:13:43.140,0.0,0.615
11:13:43.144,-0.015,0.595
11:13:43.148,-0.035,0.595
11:13:43.152,-0.03,0.575
11:13:43.156,-0.03,0.565
11:13:43.160,-0.01,0.54
11:13:43.164,0.005,0.54
11:13:43.168,-0.005,0.565
11:13:43.172,-0.02,0.585
11:13:43.176,-0.035,0.535
11:13:43.180,-0.025,0.535
11:13:43.184,-0.045,0.58
11:13:43.188,-0.06,0.52
11:13:43.192,-0.035,0.495
11:13:43.196,0.015,0.47
11:13:43.200,0.005,0.49
11:13:43.204,0.01,0.515
11:13:43.208,0.04,0.515
11:13:43.212,0.06,0.53
11:13:43.216,0.04,0.535
11:13:43.220,0.04,0.575
11:13:43.224,0.035,0.545
11:13:43.228,0.005,0.505
11:13:43.232,-0.03,0.47
11:13:43.236,-0.025,0.485
11:13:43.240,-0.04,0.46
11:13:43.244,-0.035,0.445
11:13:43.248,-0.015,0.385
11:13:43.252,-0.025,0.355
11:13:43.256,-0.045,0.385
11:13:43.260,-0.06,0.41
11:13:43.264,-0.04,0.38
11:13:43.268,-0.04,0.375
11:13:43.272,-0.03,0.385
11:13:43.276,-0.04,0.38
11:13:43.280,-0.03,0.385
11:13:43.284,-0.025,0.385
11:13:43.288,-0.005,0.37
11:13:43.292,0.0,0.365
11:13:43.296,-0.015,0.385
11:13:43.300,-0.02,0.395
11:13:43.304,-0.045,0.39
11:13:43.308,-0.05,0.38
11:13:43.312,-0.06,0.375
11:13:43.316,-0.045,0.33
11:13:43.320,-0.005,0.355
11:13:43.324,0.005,0.355
11:13:43.328,-0.03,0.35
11:13:43.332,-0.035,0.375
11:13:43.336,-0.01,0.375
11:13:43.340,-0.025,0.335
11:13:43.344,-0.025,0.345
11:13:43.348,-0.03,0.335
11:13:43.352,-0.02,0.34
11:13:43.356,-0.005,0.32
11:13:43.360,-0.005,0.315
11:13:43.364,0.01,0.345
11:13:43.368,0.035,0.35
11:13:43.372,0.03,0.32
11:13:43.376,0.035,0.345
11:13:43.380,0.045,0.365
11:13:43.384,0.05,0.37
11:13:43.388,0.05,0.355
11:13:43.392,0.07,0.32
11:13:43.396,0.085,0.305
11:13:43.400,0.08,0.33
11:13:43.404,0.115,0.38
11:13:43.408,0.11,0.39
11:13:43.412,0.135,0.385
11:13:43.416,0.16,0.38
11:13:43.420,0.195,0.39
11:13:43.424,0.28,0.41
11:13:43.428,0.36,0.455
11:13:43.432,0.33,0.475
11:13:43.436,0.175,0.5
11:13:43.440,-0.105,0.54
11:13:43.444,-0.525,0.44
11:13:43.448,-1.0,0.1
11:13:43.452,-1.41,-0.375
11:13:43.456,-1.745,-0.96
11:13:43.460,-1.93,-1.855
11:13:43.464,-1.935,-2.755
11:13:43.468,-1.88,-3.42
11:13:43.472,-1.82,-3.95
11:13:43.476,-1.815,-4.355
11:13:43.480,-1.72,-4.6
11:13:43.484,-1.605,-4.72
11:13:43.488,-1.5,-4.705
11:13:43.492,-1.47,-4.56
11:13:43.496,-1.43,-4.39
11:13:43.500,-1.335,-4.235
11:13:43.504,-1.27,-4.12
11:13:43.508,-1.21,-4.045
11:13:43.512,-1.09,-3.94
11:13:43.516,-0.89,-3.67
11:13:43.520,-0.755,-3.4
11:13:43.524,-0.62,-3.005
11:13:43.528,-0.535,-2.565
11:13:43.532,-0.45,-2.09
11:13:43.536,-0.39,-1.715
11:13:43.540,-0.26,-1.295
11:13:43.544,-0.155,-0.92
11:13:43.548,-0.03,-0.62
11:13:43.552,0.07,-0.4
11:13:43.556,0.155,-0.18
11:13:43.560,0.215,0.01
11:13:43.564,0.28,0.19
11:13:43.568,0.315,0.37
11:13:43.572,0.335,0.535
11:13:43.576,0.35,0.695
11:13:43.580,0.38,0.84
11:13:43.584,0.41,0.915
11:13:43.588,0.42,0.975
11:13:43.592,0.435,1.015
11:13:43.596,0.445,1.06
11:13:43.600,0.46,1.07
11:13:43.604,0.495,1.085
11:13:43.608,0.485,1.085
11:13:43.612,0.49,1.13
11:13:43.616,0.525,1.165
11:13:43.620,0.565,1.175
11:13:43.624,0.58,1.19
11:13:43.628,0.6,1.215
11:13:43.632,0.575,1.27
11:13:43.636,0.585,1.3
11:13:43.640,0.595,1.27
11:13:43.644,0.57,1.265
11:13:43.648,0.585,1.26
11:13:43.652,0.59,1.255
11:13:43.656,0.59,1.27
11:13:43.660,0.585,1.295
11:13:43.664,0.585,1.315
11:13:43.668,0.6,1.335
11:13:43.672,0.585,1.36
11:13:43.676,0.585,1.405
11:13:43.680,0.575,1.42
11:13:43.684,0.55,1.435
11:13:43.688,0.555,1.435
11:13:43.692,0.56,1.465
11:13:43.696,0.555,1.46
11:13:43.700,0.565,1.51
11:13:43.704,0.58,1.55
11:13:43.708,0.59,1.535
11:13:43.712,0.57,1.54
11:13:43.716,0.57,1.575
11:13:43.720,0.58,1.61
11:13:43.724,0.565,1.615
11:13:43.728,0.56,1.61
11:13:43.732,0.55,1.59
11:13:43.736,0.54,1.57
11:13:43.740,0.525,1.59
11:13:43.744,0.495,1.575
11:13:43.748,0.445,1.55
11:13:43.752,0.4,1.505
11:13:43.756,0.36,1.47
11:13:43.760,0.335,1.445
11:13:43.764,0.29,1.415
11:13:43.768,0.235,1.345
11:13:43.772,0.24,1.29
11:13:43.776,0.195,1.245
11:13:43.780,0.17,1.17
11:13:43.784,0.15,1.09
11:13:43.788,0.14,1.005
11:13:43.792,0.115,0.98
11:13:43.796,0.085,0.925
11:13:43.800,0.07,0.88
11:13:43.804,0.07,0.825
11:13:43.808,0.06,0.765
11:13:43.812,0.035,0.71
11:13:43.816,0.045,0.715
11:13:43.820,0.03,0.66
11:13:43.824,0.05,0.655
11:13:43.828,0.1,0.615
11:13:43.832,0.095,0.6
11:13:43.836,0.105,0.615
11:13:43.840,0.11,0.61
11:13:43.844,0.105,0.565
11:13:43.848,0.095,0.515
11:13:43.852,0.125,0.49
11:13:43.856,0.125,0.45
11:13:43.860,0.115,0.435
11:13:43.864,0.135,0.41
11:13:43.868,0.125,0.42
11:13:43.872,0.135,0.4
11:13:43.876,0.145,0.44
11:13:43.880,0.14,0.42
11:13:43.884,0.115,0.425
11:13:43.888,0.085,0.45
11:13:43.892,0.08,0.46
11:13:43.896,0.09,0.48
11:13:43.900,0.075,0.455
11:13:43.904,0.095,0.45
11:13:43.908,0.055,0.495
11:13:43.912,0.07,0.515
11:13:43.916,0.085,0.48
11:13:43.920,0.09,0.485
11:13:43.924,0.085,0.5
11:13:43.928,0.085,0.485
11:13:43.932,0.08,0.505
11:13:43.936,0.075,0.495
11:13:43.940,0.07,0.54
11:13:43.944,0.085,0.535
11:13:43.948,0.065,0.515
11:13:43.952,0.075,0.515
11:13:43.956,0.095,0.515
11:13:43.960,0.07,0.52
11:13:43.964,0.03,0.495
11:13:43.968,0.025,0.54
11:13:43.972,-0.005,0.51
11:13:43.976,-0.035,0.485
11:13:43.980,-0.085,0.45
11:13:43.984,-0.125,0.42
11:13:43.988,-0.135,0.495
11:13:43.992,-0.15,0.47
11:13:43.996,-0.15,0.475
11:13:44.000,-0.135,0.435
11:13:44.004,-0.12,0.45
11:13:44.008,-0.09,0.45
11:13:44.012,-0.105,0.455
11:13:44.016,-0.11,0.455
11:13:44.020,-0.11,0.46
11:13:44.024,-0.14,0.45
11:13:44.028,-0.135,0.43
11:13:44.032,-0.12,0.36
11:13:44.036,-0.11,0.355
11:13:44.040,-0.085,0.4
11:13:44.044,-0.055,0.475
11:13:44.048,-0.04,0.48
11:13:44.052,-0.01,0.44
11:13:44.056,-0.03,0.44
11:13:44.060,-0.02,0.39
11:13:44.064,-0.025,0.37
11:13:44.068,-0.005,0.355
11:13:44.072,0.005,0.33
11:13:44.076,0.0,0.345
11:13:44.080,0.0,0.305
11:13:44.084,0.025,0.33
11:13:44.088,0.025,0.37
11:13:44.092,0.025,0.35
11:13:44.096,0.005,0.37
11:13:44.100,0.015,0.375
11:13:44.104,0.02,0.38
11:13:44.108,0.005,0.38
11:13:44.112,0.0,0.345
11:13:44.116,-0.005,0.36
11:13:44.120,0.01,0.355
11:13:44.124,0.005,0.35
11:13:44.128,0.0,0.365
11:13:44.132,0.005,0.38
11:13:44.136,0.015,0.37
11:13:44.140,0.015,0.37
11:13:44.144,0.025,0.37
11:13:44.148,0.045,0.365
11:13:44.152,0.055,0.375
11:13:44.156,0.035,0.355
11:13:44.160,0.045,0.33
11:13:44.164,0.035,0.33
11:13:44.168,0.035,0.36
11:13:44.172,0.045,0.37
11:13:44.176,0.025,0.4
11:13:44.180,0.01,0.42
11:13:44.184,0.015,0.385
11:13:44.188,0.11,0.385
11:13:44.192,0.205,0.385
11:13:44.196,0.24,0.39
11:13:44.200,0.165,0.425
11:13:44.204,-0.015,0.49
11:13:44.208,-0.32,0.525
11:13:44.212,-0.73,0.355
11:13:44.216,-1.125,-0.05
11:13:44.220,-1.455,-0.515
11:13:44.224,-1.695,-1.145
11:13:44.228,-1.835,-2.115
11:13:44.232,-1.815,-3.01
11:13:44.236,-1.72,-3.65
11:13:44.240,-1.695,-4.135
11:13:44.244,-1.715,-4.45
11:13:44.248,-1.7,-4.665
11:13:44.252,-1.61,-4.765
11:13:44.256,-1.55,-4.75
11:13:44.260,-1.515,-4.66
11:13:44.264,-1.445,-4.495
11:13:44.268,-1.38,-4.41
11:13:44.272,-1.38,-4.325
11:13:44.276,-1.37,-4.25
11:13:44.280,-1.215,-4.105
11:13:44.284,-1.055,-3.905
11:13:44.288,-0.91,-3.675
11:13:44.292,-0.81,-3.345
11:13:44.296,-0.695,-2.985
11:13:44.300,-0.62,-2.555
11:13:44.304,-0.505,-2.115
11:13:44.308,-0.38,-1.7
11:13:44.312,-0.265,-1.34
11:13:44.316,-0.125,-0.97
11:13:44.320,0.02,-0.65
11:13:44.324,0.09,-0.395
11:13:44.328,0.16,-0.185
11:13:44.332,0.215,0.06
11:13:44.336,0.265,0.275
11:13:44.340,0.28,0.455
11:13:44.344,0.3,0.595
11:13:44.348,0.31,0.745
11:13:44.352,0.35,0.85
11:13:44.356,0.35,0.915
11:13:44.360,0.375,0.93
11:13:44.364,0.395,0.95
11:13:44.368,0.395,0.975
11:13:44.372,0.375,1.025
11:13:44.376,0.37,1.065
11:13:44.380,0.36,1.125
11:13:44.384,0.36,1.12
11:13:44.388,0.36,1.125
11:13:44.392,0.35,1.125
11:13:44.396,0.345,1.155
11:13:44.400,0.36,1.195
11:13:44.404,0.345,1.24
11:13:44.408,0.355,1.265
11:13:44.412,0.33,1.27
11:13:44.416,0.35,1.275
11:13:44.420,0.35,1.27
11:13:44.424,0.375,1.305
11:13:44.428,0.385,1.31
11:13:44.432,0.41,1.33
11:13:44.436,0.42,1.33
11:13:44.440,0.42,1.365
11:13:44.444,0.45,1.385
11:13:44.448,0.455,1.43
11:13:44.452,0.465,1.45
11:13:44.456,0.46,1.46
11:13:44.460,0.485,1.48
11:13:44.464,0.475,1.48
11:13:44.468,0.48,1.485
11:13:44.472,0.495,1.485
11:13:44.476,0.495,1.515
11:13:44.480,0.485,1.565
11:13:44.484,0.49,1.595
11:13:44.488,0.505,1.635
11:13:44.492,0.485,1.625
11:13:44.496,0.49,1.635
11:13:44.500,0.485,1.64
11:13:44.504,0.475,1.65
11:13:44.508,0.44,1.65
11:13:44.512,0.43,1.615
11:13:44.516,0.415,1.6
11:13:44.520,0.41,1.61
11:13:44.524,0.365,1.59
11:13:44.528,0.34,1.57
11:13:44.532,0.3,1.56
11:13:44.536,0.25,1.505
11:13:44.540,0.225,1.445
11:13:44.544,0.19,1.4
11:13:44.548,0.15,1.295
11:13:44.552,0.12,1.245
11:13:44.556,0.085,1.19
11:13:44.560,0.05,1.13
11:13:44.564,0.03,1.055
11:13:44.568,0.035,1.0
11:13:44.572,0.035,0.93
11:13:44.576,0.045,0.86
11:13:44.580,0.035,0.82
11:13:44.584,0.0,0.785
11:13:44.588,-0.015,0.78
11:13:44.592,-0.035,0.785
11:13:44.596,-0.04,0.77
11:13:44.600,-0.035,0.735
11:13:44.604,-0.035,0.7
11:13:44.608,-0.025,0.675
11:13:44.612,-0.015,0.655
11:13:44.616,-0.03,0.645
11:13:44.620,-0.02,0.63
11:13:44.624,-0.02,0.625
11:13:44.628,-0.03,0.605
11:13:44.632,-0.02,0.61
11:13:44.636,-0.015,0.585
11:13:44.640,-0.02,0.585
11:13:44.644,-0.02,0.62
11:13:44.648,-0.02,0.595
11:13:44.652,-0.005,0.585
11:13:44.656,0.005,0.57
11:13:44.660,0.005,0.565
11:13:44.664,0.02,0.575
11:13:44.668,0.04,0.565
11:13:44.672,0.035,0.585
11:13:44.676,0.04,0.585
11:13:44.680,0.025,0.54
11:13:44.684,0.035,0.49
11:13:44.688,0.015,0.475
11:13:44.692,0.01,0.48
11:13:44.696,0.04,0.5
11:13:44.700,0.055,0.48
11:13:44.704,0.055,0.5
11:13:44.708,0.02,0.52
11:13:44.712,0.01,0.515
11:13:44.716,0.025,0.495
11:13:44.720,0.015,0.485
11:13:44.724,0.005,0.495
11:13:44.728,0.005,0.51
11:13:44.732,0.0,0.5
11:13:44.736,-0.04,0.49
11:13:44.740,-0.05,0.48
11:13:44.744,-0.055,0.46
11:13:44.748,-0.07,0.5
11:13:44.752,-0.095,0.51
11:13:44.756,-0.1,0.48
11:13:44.760,-0.11,0.48
11:13:44.764,-0.11,0.455
11:13:44.768,-0.12,0.465
11:13:44.772,-0.095,0.45
11:13:44.776,-0.08,0.445
11:13:44.780,-0.07,0.44
11:13:44.784,-0.055,0.44
11:13:44.788,-0.04,0.43
11:13:44.792,-0.035,0.45
11:13:44.796,-0.035,0.475
11:13:44.800,-0.05,0.475
11:13:44.804,-0.07,0.5
11:13:44.808,-0.07,0.5
11:13:44.812,-0.085,0.505
11:13:44.816,-0.07,0.49
11:13:44.820,-0.08,0.495
11:13:44.824,-0.085,0.485
11:13:44.828,-0.06,0.475
11:13:44.832,-0.065,0.495
11:13:44.836,-0.065,0.49
11:13:44.840,-0.08,0.465
11:13:44.844,-0.08,0.46
11:13:44.848,-0.085,0.445
11:13:44.852,-0.08,0.455
11:13:44.856,-0.09,0.43
11:13:44.860,-0.065,0.43
11:13:44.864,-0.05,0.425
11:13:44.868,-0.05,0.41
11:13:44.872,-0.03,0.385
11:13:44.876,-0.005,0.41
11:13:44.880,0.01,0.425
11:13:44.884,0.0,0.415
11:13:44.888,0.015,0.42
11:13:44.892,0.0,0.42
11:13:44.896,-0.015,0.395
11:13:44.900,-0.015,0.405
11:13:44.904,-0.02,0.4
11:13:44.908,-0.03,0.39
11:13:44.912,-0.04,0.365
11:13:44.916,-0.01,0.33
11:13:44.920,0.005,0.33
11:13:44.924,-0.02,0.29
11:13:44.928,-0.03,0.295
11:13:44.932,-0.03,0.335
11:13:44.936,-0.045,0.355
11:13:44.940,-0.055,0.335
11:13:44.944,-0.07,0.34
11:13:44.948,-0.08,0.34
11:13:44.952,-0.085,0.33
11:13:44.956,-0.09,0.31
11:13:44.960,-0.065,0.33
11:13:44.964,-0.05,0.37
11:13:44.968,-0.03,0.38
11:13:44.972,-0.03,0.38
11:13:44.976,-0.035,0.39
11:13:44.980,-0.025,0.35
11:13:44.984,-0.015,0.355
11:13:44.988,-0.01,0.36
11:13:44.992,-0.04,0.4
11:13:44.996,-0.03,0.365
11:13:45.000,-0.02,0.335
11:13:45.004,-0.005,0.335
11:13:45.008,-0.025,0.33
11:13:45.012,-0.01,0.39
11:13:45.016,-0.005,0.415
11:13:45.020,0.015,0.41
11:13:45.024,0.03,0.42
11:13:45.028,0.065,0.4
11:13:45.032,0.15,0.38
11:13:45.036,0.275,0.365
11:13:45.040,0.325,0.355
11:13:45.044,0.295,0.415
11:13:45.048,0.165,0.445
11:13:45.052,-0.04,0.55
11:13:45.056,-0.4,0.395
11:13:45.060,-0.81,0.02
11:13:45.064,-1.145,-0.44
11:13:45.068,-1.375,-1.05
11:13:45.072,-1.45,-1.99
11:13:45.076,-1.425,-2.93
11:13:45.080,-1.315,-3.62
11:13:45.084,-1.335,-4.15
11:13:45.088,-1.45,-4.485
11:13:45.092,-1.515,-4.67
11:13:45.096,-1.495,-4.745
11:13:45.100,-1.45,-4.725
11:13:45.104,-1.45,-4.66
11:13:45.108,-1.46,-4.55
11:13:45.112,-1.435,-4.46
11:13:45.116,-1.445,-4.37
11:13:45.120,-1.54,-4.31
11:13:45.124,-1.54,-4.2
11:13:45.128,-1.45,-4.06
11:13:45.132,-1.32,-3.84
11:13:45.136,-1.175,-3.59
11:13:45.140,-1.0,-3.3
11:13:45.144,-0.885,-2.97
11:13:45.148,-0.8,-2.56
11:13:45.152,-0.695,-2.115
11:13:45.156,-0.5,-1.7
11:13:45.160,-0.34,-1.295
11:13:45.164,-0.16,-0.995
11:13:45.168,0.005,-0.705
11:13:45.172,0.075,-0.44
11:13:45.176,0.135,-0.18
11:13:45.180,0.175,0.05
11:13:45.184,0.225,0.275
11:13:45.188,0.23,0.51
11:13:45.192,0.245,0.65
11:13:45.196,0.275,0.785
11:13:45.200,0.26,0.885
11:13:45.204,0.245,0.98
11:13:45.208,0.26,0.99
11:13:45.212,0.265,1.04
11:13:45.216,0.27,1.02
11:13:45.220,0.29,1.075
11:13:45.224,0.31,1.085
11:13:45.228,0.325,1.07
11:13:45.232,0.345,1.12
11:13:45.236,0.365,1.15
11:13:45.240,0.375,1.165
11:13:45.244,0.37,1.205
11:13:45.248,0.39,1.19
11:13:45.252,0.38,1.215
11:13:45.256,0.415,1.245
11:13:45.260,0.41,1.265
11:13:45.264,0.41,1.27
11:13:45.268,0.43,1.295
11:13:45.272,0.46,1.3
11:13:45.276,0.47,1.34
11:13:45.280,0.485,1.41
11:13:45.284,0.48,1.435
11:13:45.288,0.495,1.46
11:13:45.292,0.515,1.48
11:13:45.296,0.51,1.48
11:13:45.300,0.51,1.475
11:13:45.304,0.52,1.5
11:13:45.308,0.52,1.52
11:13:45.312,0.535,1.54
11:13:45.316,0.53,1.56
11:13:45.320,0.565,1.6
11:13:45.324,0.56,1.61
11:13:45.328,0.54,1.615
11:13:45.332,0.54,1.63
11:13:45.336,0.515,1.63
11:13:45.340,0.54,1.665
11:13:45.344,0.535,1.645
11:13:45.348,0.525,1.665
11:13:45.352,0.49,1.68
11:13:45.356,0.48,1.66
11:13:45.360,0.415,1.615
11:13:45.364,0.39,1.6
11:13:45.368,0.35,1.575
11:13:45.372,0.34,1.565
11:13:45.376,0.325,1.535
11:13:45.380,0.3,1.49
11:13:45.384,0.295,1.445
11:13:45.388,0.255,1.415
11:13:45.392,0.245,1.385
11:13:45.396,0.195,1.335
11:13:45.400,0.175,1.285
11:13:45.404,0.16,1.2
11:13:45.408,0.15,1.15
11:13:45.412,0.135,1.09
11:13:45.416,0.095,1.035
11:13:45.420,0.085,0.985
11:13:45.424,0.085,0.925
11:13:45.428,0.05,0.86
11:13:45.432,0.03,0.81
11:13:45.436,0.025,0.775
11:13:45.440,0.02,0.72
11:13:45.444,0.015,0.68
11:13:45.448,0.015,0.635
11:13:45.452,0.0,0.64
11:13:45.456,0.02,0.595
11:13:45.460,-0.005,0.58
11:13:45.464,-0.03,0.58
11:13:45.468,-0.025,0.595
11:13:45.472,-0.025,0.585
11:13:45.476,-0.03,0.59
11:13:45.480,-0.055,0.55
11:13:45.484,-0.05,0.56
11:13:45.488,-0.04,0.54
11:13:45.492,-0.065,0.535
11:13:45.496,-0.05,0.525
11:13:45.500,-0.055,0.52
11:13:45.504,-0.045,0.54
11:13:45.508,-0.055,0.57
11:13:45.512,-0.025,0.53
11:13:45.516,-0.015,0.515
11:13:45.520,-0.02,0.535
11:13:45.524,-0.015,0.535
11:13:45.528,-0.03,0.54
11:13:45.532,0.005,0.555
11:13:45.536,0.02,0.56
11:13:45.540,0.055,0.56
11:13:45.544,0.06,0.55
11:13:45.548,0.075,0.56
11:13:45.552,0.055,0.57
11:13:45.556,0.035,0.555
11:13:45.560,0.005,0.56
11:13:45.564,-0.05,0.58
11:13:45.568,-0.09,0.555
11:13:45.572,-0.09,0.515
11:13:45.576,-0.08,0.48
11:13:45.580,-0.08,0.44
11:13:45.584,-0.05,0.44
11:13:45.588,-0.045,0.445
11:13:45.592,-0.045,0.445
11:13:45.596,-0.01,0.49
11:13:45.600,-0.03,0.505
11:13:45.604,-0.025,0.5
11:13:45.608,-0.04,0.485
11:13:45.612,-0.035,0.48
11:13:45.616,-0.02,0.46
11:13:45.620,-0.015,0.48
11:13:45.624,-0.02,0.49
11:13:45.628,-0.015,0.48
11:13:45.632,-0.04,0.5
11:13:45.636,-0.03,0.49
11:13:45.640,-0.04,0.45
11:13:45.644,-0.045,0.47
11:13:45.648,-0.045,0.45
11:13:45.652,-0.045,0.435
11:13:45.656,-0.04,0.445
11:13:45.660,-0.055,0.48
11:13:45.664,-0.03,0.465
11:13:45.668,-0.035,0.455
11:13:45.672,-0.045,0.44
11:13:45.676,-0.025,0.44
11:13:45.680,-0.045,0.46
11:13:45.684,-0.06,0.45
11:13:45.688,-0.055,0.45
11:13:45.692,-0.07,0.415
11:13:45.696,-0.1,0.425
11:13:45.700,-0.14,0.42
11:13:45.704,-0.11,0.41
11:13:45.708,-0.1,0.345
11:13:45.712,-0.095,0.38
11:13:45.716,-0.105,0.355
11:13:45.720,-0.08,0.355
11:13:45.724,-0.095,0.38
11:13:45.728,-0.105,0.41
11:13:45.732,-0.09,0.395
11:13:45.736,-0.06,0.385
11:13:45.740,-0.08,0.405
11:13:45.744,-0.06,0.375
11:13:45.748,-0.055,0.39
11:13:45.752,-0.03,0.41
11:13:45.756,-0.01,0.405
11:13:45.760,0.0,0.405
11:13:45.764,0.045,0.405
11:13:45.768,0.045,0.395
11:13:45.772,0.055,0.4
11:13:45.776,0.04,0.44
11:13:45.780,0.025,0.445
11:13:45.784,0.02,0.405
11:13:45.788,0.015,0.395
11:13:45.792,0.025,0.395
11:13:45.796,0.035,0.405
11:13:45.800,0.03,0.39
11:13:45.804,0.025,0.42
11:13:45.808,0.025,0.43
11:13:45.812,0.05,0.4
11:13:45.816,0.035,0.4
11:13:45.820,0.035,0.385
11:13:45.824,0.025,0.375
11:13:45.828,0.03,0.385
11:13:45.832,0.015,0.37
11:13:45.836,0.01,0.39
11:13:45.840,0.015,0.355
11:13:45.844,0.015,0.345
11:13:45.848,0.0,0.395
11:13:45.852,-0.01,0.42
11:13:45.856,-0.03,0.395
11:13:45.860,-0.02,0.395
11:13:45.864,-0.025,0.355
11:13:45.868,-0.04,0.355
11:13:45.872,-0.035,0.345
11:13:45.876,-0.03,0.33
11:13:45.880,-0.045,0.35
11:13:45.884,-0.02,0.35
11:13:45.888,-0.04,0.34
11:13:45.892,-0.065,0.315
11:13:45.896,-0.075,0.34
11:13:45.900,-0.075,0.315
11:13:45.904,-0.09,0.305
11:13:45.908,-0.1,0.265
11:13:45.912,-0.1,0.295
11:13:45.916,-0.11,0.305
11:13:45.920,-0.09,0.295
11:13:45.924,-0.1,0.3
11:13:45.928,-0.105,0.285
11:13:45.932,-0.105,0.295
11:13:45.936,-0.11,0.26
11:13:45.940,-0.095,0.26
11:13:45.944,-0.075,0.29
11:13:45.948,-0.09,0.295
11:13:45.952,-0.06,0.3
11:13:45.956,-0.065,0.305
11:13:45.960,-0.06,0.29
11:13:45.964,-0.045,0.305
11:13:45.968,-0.045,0.31
11:13:45.972,-0.05,0.305
11:13:45.976,-0.04,0.275
11:13:45.980,-0.03,0.245
11:13:45.984,-0.005,0.235
11:13:45.988,-0.03,0.28
11:13:45.992,-0.055,0.275
11:13:45.996,-0.055,0.26
11:13:46.000,-0.06,0.26
11:13:46.004,-0.04,0.275
11:13:46.008,0.0,0.27
11:13:46.012,0.09,0.235
11:13:46.016,0.195,0.26
11:13:46.020,0.33,0.25
11:13:46.024,0.385,0.26
11:13:46.028,0.335,0.305
11:13:46.032,0.18,0.4
11:13:46.036,-0.125,0.46
11:13:46.040,-0.535,0.26
11:13:46.044,-0.965,-0.21
11:13:46.048,-1.275,-0.78
11:13:46.052,-1.455,-1.55
11:13:46.056,-1.495,-2.555
11:13:46.060,-1.4,-3.38
11:13:46.064,-1.26,-3.97
11:13:46.068,-1.275,-4.42
11:13:46.072,-1.38,-4.7
11:13:46.076,-1.39,-4.845
11:13:46.080,-1.34,-4.88
11:13:46.084,-1.31,-4.855
11:13:46.088,-1.345,-4.73
11:13:46.092,-1.32,-4.625
11:13:46.096,-1.3,-4.525
11:13:46.100,-1.33,-4.435
11:13:46.104,-1.37,-4.37
11:13:46.108,-1.3,-4.25
11:13:46.112,-1.16,-4.035
11:13:46.116,-1.03,-3.74
11:13:46.120,-0.89,-3.415
11:13:46.124,-0.77,-3.03
11:13:46.128,-0.685,-2.605
11:13:46.132,-0.525,-2.09
11:13:46.136,-0.38,-1.645
11:13:46.140,-0.2,-1.245
11:13:46.144,-0.045,-0.865
11:13:46.148,0.08,-0.57
11:13:46.152,0.145,-0.305
11:13:46.156,0.21,-0.095
11:13:46.160,0.235,0.125
11:13:46.164,0.275,0.325
11:13:46.168,0.28,0.515
11:13:46.172,0.305,0.66
11:13:46.176,0.35,0.785
11:13:46.180,0.38,0.845
11:13:46.184,0.395,0.885
11:13:46.188,0.4,0.915
11:13:46.192,0.38,0.955
11:13:46.196,0.39,1.0
11:13:46.200,0.37,0.995
11:13:46.204,0.39,1.02
11:13:46.208,0.395,1.025
11:13:46.212,0.41,1.02
11:13:46.216,0.425,1.01
11:13:46.220,0.435,1.04
11:13:46.224,0.44,1.1
11:13:46.228,0.455,1.09
11:13:46.232,0.46,1.12
11:13:46.236,0.485,1.145
11:13:46.240,0.485,1.16
11:13:46.244,0.46,1.16
11:13:46.248,0.46,1.165
11:13:46.252,0.47,1.17
11:13:46.256,0.515,1.18
11:13:46.260,0.495,1.19
11:13:46.264,0.515,1.23
11:13:46.268,0.525,1.265
11:13:46.272,0.525,1.3
11:13:46.276,0.51,1.34
11:13:46.280,0.51,1.37
11:13:46.284,0.505,1.425
11:13:46.288,0.505,1.42
11:13:46.292,0.505,1.445
11:13:46.296,0.505,1.445
11:13:46.300,0.5,1.47
11:13:46.304,0.51,1.51
11:13:46.308,0.515,1.565
11:13:46.312,0.535,1.6
11:13:46.316,0.505,1.615
11:13:46.320,0.495,1.635
11:13:46.324,0.505,1.65
11:13:46.328,0.475,1.645
11:13:46.332,0.47,1.645
11:13:46.336,0.46,1.665
11:13:46.340,0.43,1.655
11:13:46.344,0.405,1.66
11:13:46.348,0.4,1.62
11:13:46.352,0.37,1.575
11:13:46.356,0.34,1.53
11:13:46.360,0.285,1.475
11:13:46.364,0.24,1.465
11:13:46.368,0.205,1.42
11:13:46.372,0.19,1.35
11:13:46.376,0.18,1.24
11:13:46.380,0.155,1.165
11:13:46.384,0.15,1.06
11:13:46.388,0.155,1.005
11:13:46.392,0.175,0.945
11:13:46.396,0.175,0.91
11:13:46.400,0.17,0.85
11:13:46.404,0.135,0.805
11:13:46.408,0.11,0.76
11:13:46.412,0.105,0.705
11:13:46.416,0.105,0.66
11:13:46.420,0.09,0.64
11:13:46.424,0.075,0.555
11:13:46.428,0.07,0.535
11:13:46.432,0.035,0.505
11:13:46.436,0.04,0.47
11:13:46.440,0.07,0.5
11:13:46.444,0.05,0.475
11:13:46.448,0.065,0.47
11:13:46.452,0.065,0.43
11:13:46.456,0.05,0.44
11:13:46.460,0.035,0.46
11:13:46.464,0.03,0.455
11:13:46.468,0.02,0.45
11:13:46.472,0.015,0.445
11:13:46.476,0.005,0.47
11:13:46.480,0.015,0.505
11:13:46.484,0.015,0.495
11:13:46.488,0.0,0.49
11:13:46.492,0.01,0.51
11:13:46.496,-0.005,0.52
11:13:46.500,-0.005,0.54
11:13:46.504,0.015,0.525
11:13:46.508,0.02,0.485
11:13:46.512,0.0,0.48
11:13:46.516,0.005,0.47
11:13:46.520,0.035,0.48
11:13:46.524,0.025,0.515
11:13:46.528,0.0,0.515
11:13:46.532,-0.005,0.52
11:13:46.536,0.005,0.49
11:13:46.540,-0.005,0.48
11:13:46.544,-0.005,0.47
11:13:46.548,0.025,0.45
11:13:46.552,0.015,0.405
11:13:46.556,0.05,0.435
11:13:46.560,0.065,0.425
11:13:46.564,0.08,0.41
11:13:46.568,0.1,0.435
11:13:46.572,0.125,0.42
11:13:46.576,0.16,0.415
11:13:46.580,0.12,0.41
11:13:46.584,0.115,0.43
11:13:46.588,0.105,0.43
11:13:46.592,0.08,0.405
11:13:46.596,0.125,0.42
11:13:46.600,0.155,0.425
11:13:46.604,0.155,0.395
11:13:46.608,0.155,0.365
11:13:46.612,0.14,0.33
11:13:46.616,0.14,0.34
11:13:46.620,0.12,0.38
11:13:46.624,0.115,0.395
11:13:46.628,0.09,0.375
11:13:46.632,0.095,0.395
11:13:46.636,0.11,0.39
11:13:46.640,0.1,0.38
11:13:46.644,0.105,0.355
11:13:46.648,0.125,0.35
11:13:46.652,0.1,0.36
11:13:46.656,0.105,0.355
11:13:46.660,0.085,0.37
11:13:46.664,0.08,0.375
11:13:46.668,0.07,0.355
11:13:46.672,0.05,0.34
11:13:46.676,0.035,0.32
11:13:46.680,0.03,0.335
11:13:46.684,0.05,0.355
11:13:46.688,0.05,0.375
11:13:46.692,0.03,0.345
11:13:46.696,0.02,0.33
11:13:46.700,0.04,0.325
11:13:46.704,0.025,0.32
11:13:46.708,0.025,0.3
11:13:46.712,0.025,0.28
11:13:46.716,0.04,0.275
11:13:46.720,0.015,0.245
11:13:46.724,0.055,0.23
11:13:46.728,0.115,0.265
11:13:46.732,0.24,0.27
11:13:46.736,0.345,0.285
11:13:46.740,0.365,0.28
11:13:46.744,0.265,0.345
11:13:46.748,0.075,0.42
11:13:46.752,-0.28,0.405
11:13:46.756,-0.705,0.145
11:13:46.760,-1.09,-0.34
11:13:46.764,-1.42,-0.92
11:13:46.768,-1.56,-1.755
11:13:46.772,-1.615,-2.725
11:13:46.776,-1.53,-3.43
11:13:46.780,-1.455,-4.0
11:13:46.784,-1.46,-4.435
11:13:46.788,-1.435,-4.665
11:13:46.792,-1.365,-4.78
11:13:46.796,-1.31,-4.77
11:13:46.800,-1.33,-4.635
11:13:46.804,-1.305,-4.465
11:13:46.808,-1.265,-4.33
11:13:46.812,-1.265,-4.23
11:13:46.816,-1.215,-4.14
11:13:46.820,-1.1,-3.985
11:13:46.824,-0.91,-3.765
11:13:46.828,-0.715,-3.465
11:13:46.832,-0.595,-3.09
11:13:46.836,-0.52,-2.655
11:13:46.840,-0.415,-2.19
11:13:46.844,-0.295,-1.78
11:13:46.848,-0.155,-1.365
11:13:46.852,0.025,-0.99
11:13:46.856,0.135,-0.67
11:13:46.860,0.23,-0.43
11:13:46.864,0.27,-0.19
11:13:46.868,0.31,0.01
11:13:46.872,0.335,0.205
11:13:46.876,0.315,0.37
11:13:46.880,0.31,0.53
11:13:46.884,0.335,0.68
11:13:46.888,0.34,0.785
11:13:46.892,0.365,0.825
11:13:46.896,0.38,0.865
11:13:46.900,0.41,0.905
11:13:46.904,0.43,0.915
11:13:46.908,0.435,0.955
11:13:46.912,0.455,0.97
11:13:46.916,0.495,0.995
11:13:46.920,0.505,0.97
11:13:46.924,0.485,0.98
11:13:46.928,0.505,1.005
11:13:46.932,0.54,1.03
11:13:46.936,0.56,1.08
11:13:46.940,0.585,1.1
11:13:46.944,0.615,1.09
11:13:46.948,0.63,1.13
11:13:46.952,0.635,1.155
11:13:46.956,0.665,1.16
11:13:46.960,0.635,1.17
11:13:46.964,0.65,1.18
11:13:46.968,0.655,1.16
11:13:46.972,0.67,1.15
11:13:46.976,0.665,1.165
11:13:46.980,0.675,1.175
11:13:46.984,0.695,1.195
11:13:46.988,0.705,1.205
11:13:46.992,0.695,1.24
11:13:46.996,0.71,1.25
11:13:47.000,0.71,1.32
11:13:47.004,0.71,1.33
11:13:47.008,0.685,1.39
11:13:47.012,0.705,1.39
11:13:47.016,0.69,1.41
11:13:47.020,0.695,1.425
11:13:47.024,0.69,1.44
11:13:47.028,0.695,1.475
11:13:47.032,0.65,1.495
11:13:47.036,0.635,1.505
11:13:47.040,0.585,1.52
11:13:47.044,0.565,1.495
11:13:47.048,0.54,1.48
11:13:47.052,0.495,1.475
11:13:47.056,0.465,1.475
11:13:47.060,0.415,1.43
11:13:47.064,0.39,1.375
11:13:47.068,0.37,1.32
11:13:47.072,0.33,1.285
11:13:47.076,0.29,1.245
11:13:47.080,0.255,1.18
11:13:47.084,0.235,1.11
11:13:47.088,0.2,1.03
11:13:47.092,0.185,0.96
11:13:47.096,0.175,0.92
11:13:47.100,0.155,0.82
11:13:47.104,0.14,0.775
11:13:47.108,0.15,0.71
11:13:47.112,0.17,0.655
11:13:47.116,0.155,0.62
11:13:47.120,0.135,0.615
11:13:47.124,0.17,0.56
11:13:47.128,0.185,0.52
11:13:47.132,0.215,0.52
11:13:47.136,0.245,0.525
11:13:47.140,0.245,0.495
11:13:47.144,0.265,0.48
11:13:47.148,0.245,0.47
11:13:47.152,0.205,0.49
11:13:47.156,0.18,0.515
11:13:47.160,0.155,0.495
11:13:47.164,0.115,0.48
11:13:47.168,0.12,0.435
11:13:47.172,0.085,0.44
11:13:47.176,0.065,0.405
11:13:47.180,0.035,0.37
11:13:47.184,0.01,0.325
11:13:47.188,0.01,0.275
11:13:47.192,0.005,0.335
11:13:47.196,-0.005,0.365
11:13:47.200,-0.015,0.33
11:13:47.204,-0.015,0.33
11:13:47.208,-0.005,0.34
11:13:47.212,-0.01,0.365
11:13:47.216,-0.025,0.36
11:13:47.220,-0.03,0.35
11:13:47.224,-0.035,0.35
11:13:47.228,-0.045,0.355
11:13:47.232,-0.06,0.34
11:13:47.236,-0.04,0.36
11:13:47.240,-0.02,0.35
11:13:47.244,-0.02,0.35
11:13:47.248,-0.04,0.345
11:13:47.252,-0.025,0.34
11:13:47.256,-0.02,0.37
11:13:47.260,-0.01,0.355
11:13:47.264,-0.03,0.37
11:13:47.268,-0.015,0.34
11:13:47.272,-0.01,0.325
11:13:47.276,-0.005,0.325
11:13:47.280,0.0,0.35
11:13:47.284,-0.005,0.35
11:13:47.288,-0.01,0.34
11:13:47.292,0.0,0.345
11:13:47.296,-0.025,0.395
11:13:47.300,-0.03,0.37
11:13:47.304,-0.03,0.345
11:13:47.308,-0.025,0.33
11:13:47.312,-0.025,0.33
11:13:47.316,-0.015,0.305
11:13:47.320,0.015,0.3
11:13:47.324,0.055,0.335
11:13:47.328,0.045,0.335
11:13:47.332,0.04,0.37
11:13:47.336,0.025,0.4
11:13:47.340,0.04,0.415
11:13:47.344,0.035,0.4
11:13:47.348,0.045,0.375
11:13:47.352,0.055,0.345
11:13:47.356,0.05,0.32
11:13:47.360,0.05,0.31
11:13:47.364,0.05,0.305
11:13:47.368,0.085,0.325
11:13:47.372,0.055,0.325
11:13:47.376,0.035,0.335
11:13:47.380,0.0,0.345
11:13:47.384,-0.015,0.35
11:13:47.388,-0.035,0.32
11:13:47.392,-0.02,0.295
11:13:47.396,-0.045,0.29
11:13:47.400,-0.05,0.27
11:13:47.404,-0.05,0.25
11:13:47.408,-0.075,0.275
11:13:47.412,-0.08,0.275
11:13:47.416,-0.085,0.295
11:13:47.420,-0.09,0.26
11:13:47.424,-0.12,0.265
11:13:47.428,-0.115,0.265
11:13:47.432,-0.115,0.26
11:13:47.436,-0.135,0.27
11:13:47.440,-0.16,0.24
11:13:47.444,-0.17,0.235
11:13:47.448,-0.13,0.235
11:13:47.452,-0.16,0.23
11:13:47.456,-0.18,0.225
11:13:47.460,-0.175,0.23
11:13:47.464,-0.165,0.23
11:13:47.468,-0.155,0.245
11:13:47.472,-0.16,0.23
11:13:47.476,-0.155,0.26
11:13:47.480,-0.135,0.255
11:13:47.484,-0.125,0.24
11:13:47.488,-0.125,0.225
11:13:47.492,-0.11,0.24
11:13:47.496,-0.11,0.23
11:13:47.500,-0.105,0.25
11:13:47.504,-0.115,0.27
11:13:47.508,-0.115,0.305
11:13:47.512,-0.16,0.28
11:13:47.516,-0.16,0.255
11:13:47.520,-0.15,0.255
11:13:47.524,-0.14,0.295
11:13:47.528,-0.085,0.285
11:13:47.532,-0.055,0.28
11:13:47.536,-0.06,0.28
11:13:47.540,-0.03,0.295
11:13:47.544,0.0,0.31
11:13:47.548,0.03,0.35
11:13:47.552,0.02,0.365
11:13:47.556,0.03,0.355
11:13:47.560,0.0,0.355
11:13:47.564,-0.015,0.35
11:13:47.568,-0.04,0.37
11:13:47.572,-0.045,0.365
11:13:47.576,-0.03,0.345
11:13:47.580,-0.02,0.305
11:13:47.584,-0.025,0.27
11:13:47.588,-0.035,0.27
11:13:47.592,-0.03,0.26
11:13:47.596,-0.05,0.25
11:13:47.600,-0.07,0.27
11:13:47.604,-0.085,0.255
11:13:47.608,-0.07,0.245
11:13:47.612,-0.015,0.26
11:13:47.616,0.1,0.255
11:13:47.620,0.245,0.275
11:13:47.624,0.275,0.26
11:13:47.628,0.205,0.35
11:13:47.632,0.03,0.415
11:13:47.636,-0.245,0.45
11:13:47.640,-0.65,0.195
11:13:47.644,-1.02,-0.26
11:13:47.648,-1.35,-0.82
11:13:47.652,-1.49,-1.6
11:13:47.656,-1.55,-2.58
11:13:47.660,-1.415,-3.35
11:13:47.664,-1.37,-3.905
11:13:47.668,-1.44,-4.32
11:13:47.672,-1.495,-4.6
11:13:47.676,-1.495,-4.725
11:13:47.680,-1.505,-4.775
11:13:47.684,-1.52,-4.7
11:13:47.688,-1.55,-4.59
11:13:47.692,-1.55,-4.495
11:13:47.696,-1.565,-4.41
11:13:47.700,-1.615,-4.34
11:13:47.704,-1.585,-4.25
11:13:47.708,-1.475,-4.135
11:13:47.712,-1.35,-3.885
11:13:47.716,-1.23,-3.58
11:13:47.720,-1.08,-3.25
11:13:47.724,-0.995,-2.865
11:13:47.728,-0.86,-2.41
11:13:47.732,-0.7,-1.875
11:13:47.736,-0.505,-1.415
11:13:47.740,-0.325,-1.045
11:13:47.744,-0.16,-0.71
11:13:47.748,-0.04,-0.455
11:13:47.752,0.045,-0.21
11:13:47.756,0.135,0.06
11:13:47.760,0.185,0.31
11:13:47.764,0.19,0.48
11:13:47.768,0.195,0.63
11:13:47.772,0.235,0.76
11:13:47.776,0.26,0.85
11:13:47.780,0.28,0.88
11:13:47.784,0.295,0.955
11:13:47.788,0.305,0.965
11:13:47.792,0.31,0.98
11:13:47.796,0.31,1.01
11:13:47.800,0.31,1.015
11:13:47.804,0.31,1.045
11:13:47.808,0.31,1.06
11:13:47.812,0.315,1.075
11:13:47.816,0.32,1.1
11:13:47.820,0.345,1.12
11:13:47.824,0.335,1.16
11:13:47.828,0.355,1.13
11:13:47.832,0.355,1.16
11:13:47.836,0.375,1.16
11:13:47.840,0.355,1.205
11:13:47.844,0.36,1.215
11:13:47.848,0.36,1.245
11:13:47.852,0.375,1.275
11:13:47.856,0.38,1.275
11:13:47.860,0.395,1.31
11:13:47.864,0.375,1.32
11:13:47.868,0.365,1.335
11:13:47.872,0.35,1.365
11:13:47.876,0.345,1.375
11:13:47.880,0.345,1.38
11:13:47.884,0.345,1.395
11:13:47.888,0.355,1.455
11:13:47.892,0.33,1.47
11:13:47.896,0.34,1.5
11:13:47.900,0.35,1.505
11:13:47.904,0.37,1.52
11:13:47.908,0.38,1.555
11:13:47.912,0.385,1.56
11:13:47.916,0.395,1.56
11:13:47.920,0.385,1.61
11:13:47.924,0.375,1.63
11:13:47.928,0.36,1.62
11:13:47.932,0.32,1.64
11:13:47.936,0.29,1.645
11:13:47.940,0.27,1.675
11:13:47.944,0.245,1.64
11:13:47.948,0.205,1.6
11:13:47.952,0.18,1.59
11:13:47.956,0.17,1.545
11:13:47.960,0.145,1.49
11:13:47.964,0.105,1.445
11:13:47.968,0.07,1.385
11:13:47.972,0.035,1.305
11:13:47.976,-0.01,1.25
11:13:47.980,0.0,1.185
11:13:47.984,0.02,1.14
11:13:47.988,0.045,1.09
11:13:47.992,0.02,1.01
11:13:47.996,0.0,0.91
11:13:48.000,-0.005,0.88
11:13:48.004,-0.02,0.805
11:13:48.008,-0.02,0.74
11:13:48.012,-0.035,0.67
11:13:48.016,-0.05,0.64
11:13:48.020,-0.07,0.56
11:13:48.024,-0.06,0.545
11:13:48.028,-0.08,0.51
11:13:48.032,-0.06,0.47
11:13:48.036,-0.1,0.435
11:13:48.040,-0.105,0.41
11:13:48.044,-0.14,0.415
11:13:48.048,-0.185,0.385
11:13:48.052,-0.21,0.38
11:13:48.056,-0.245,0.365
11:13:48.060,-0.245,0.405
11:13:48.064,-0.265,0.38
11:13:48.068,-0.28,0.34
11:13:48.072,-0.3,0.32
11:13:48.076,-0.3,0.325
11:13:48.080,-0.28,0.38
11:13:48.084,-0.285,0.35
11:13:48.088,-0.26,0.36
11:13:48.092,-0.26,0.345
11:13:48.096,-0.235,0.355
11:13:48.100,-0.225,0.405
11:13:48.104,-0.225,0.395
11:13:48.108,-0.27,0.425
11:13:48.112,-0.28,0.42
11:13:48.116,-0.29,0.45
11:13:48.120,-0.28,0.455
11:13:48.124,-0.285,0.44
11:13:48.128,-0.27,0.4
11:13:48.132,-0.27,0.39
11:13:48.136,-0.265,0.405
11:13:48.140,-0.265,0.44
11:13:48.144,-0.23,0.455
11:13:48.148,-0.24,0.46
11:13:48.152,-0.245,0.47
11:13:48.156,-0.25,0.465
11:13:48.160,-0.265,0.46
11:13:48.164,-0.265,0.45
11:13:48.168,-0.27,0.425
11:13:48.172,-0.255,0.415
11:13:48.176,-0.265,0.41
11:13:48.180,-0.28,0.395
11:13:48.184,-0.285,0.43
11:13:48.188,-0.26,0.45
11:13:48.192,-0.24,0.465
11:13:48.196,-0.215,0.42
11:13:48.200,-0.2,0.4
11:13:48.204,-0.205,0.37
11:13:48.208,-0.2,0.37
11:13:48.212,-0.16,0.36
11:13:48.216,-0.17,0.33
11:13:48.220,-0.155,0.29
11:13:48.224,-0.17,0.29
11:13:48.228,-0.17,0.3
11:13:48.232,-0.185,0.3
11:13:48.236,-0.22,0.315
11:13:48.240,-0.215,0.31
11:13:48.244,-0.25,0.31
11:13:48.248,-0.24,0.265
11:13:48.252,-0.245,0.26
11:13:48.256,-0.26,0.265
11:13:48.260,-0.26,0.285
11:13:48.264,-0.285,0.28
11:13:48.268,-0.29,0.25
11:13:48.272,-0.26,0.225
11:13:48.276,-0.265,0.255
11:13:48.280,-0.28,0.225
11:13:48.284,-0.27,0.215
11:13:48.288,-0.305,0.205
11:13:48.292,-0.29,0.195
11:13:48.296,-0.28,0.19
11:13:48.300,-0.27,0.21
11:13:48.304,-0.275,0.21
11:13:48.308,-0.275,0.25
11:13:48.312,-0.3,0.25
11:13:48.316,-0.3,0.26
11:13:48.320,-0.305,0.28
11:13:48.324,-0.31,0.27
11:13:48.328,-0.305,0.29
11:13:48.332,-0.305,0.295
11:13:48.336,-0.29,0.245
11:13:48.340,-0.285,0.255
11:13:48.344,-0.27,0.255
11:13:48.348,-0.25,0.245
11:13:48.352,-0.255,0.285
11:13:48.356,-0.25,0.285
11:13:48.360,-0.25,0.3
11:13:48.364,-0.26,0.295
11:13:48.368,-0.265,0.285
11:13:48.372,-0.26,0.29
11:13:48.376,-0.24,0.26
11:13:48.380,-0.26,0.22
11:13:48.384,-0.26,0.225
11:13:48.388,-0.23,0.27
11:13:48.392,-0.22,0.29
11:13:48.396,-0.205,0.32
11:13:48.400,-0.195,0.34
11:13:48.404,-0.21,0.325
11:13:48.408,-0.2,0.355
11:13:48.412,-0.2,0.335
11:13:48.416,-0.21,0.325
11:13:48.420,-0.225,0.295
11:13:48.424,-0.24,0.235
11:13:48.428,-0.26,0.22
11:13:48.432,-0.25,0.19
11:13:48.436,-0.275,0.21
11:13:48.440,-0.245,0.195
11:13:48.444,-0.22,0.16
11:13:48.448,-0.16,0.14
11:13:48.452,-0.065,0.14
11:13:48.456,0.03,0.125
11:13:48.460,0.04,0.135
11:13:48.464,-0.06,0.2
11:13:48.468,-0.265,0.285
11:13:48.472,-0.61,0.255
11:13:48.476,-1.045,-0.075
11:13:48.480,-1.46,-0.575
11:13:48.484,-1.725,-1.215
11:13:48.488,-1.9,-2.125
11:13:48.492,-1.885,-3.05
11:13:48.496,-1.735,-3.735
11:13:48.500,-1.73,-4.255
11:13:48.504,-1.825,-4.58
11:13:48.508,-1.915,-4.78
11:13:48.512,-1.905,-4.9
11:13:48.516,-1.85,-4.915
11:13:48.520,-1.84,-4.835
11:13:48.524,-1.815,-4.75
11:13:48.528,-1.75,-4.65
11:13:48.532,-1.705,-4.575
11:13:48.536,-1.735,-4.49
11:13:48.540,-1.68,-4.4
11:13:48.544,-1.57,-4.25
11:13:48.548,-1.45,-4.005
11:13:48.552,-1.34,-3.71
11:13:48.556,-1.195,-3.4
11:13:48.560,-1.07,-3.02
11:13:48.564,-0.97,-2.535
11:13:48.568,-0.82,-2.08
11:13:48.572,-0.61,-1.59
11:13:48.576,-0.43,-1.155
11:13:48.580,-0.26,-0.81
11:13:48.584,-0.15,-0.5
11:13:48.588,-0.09,-0.225
11:13:48.592,-0.045,-0.01
11:13:48.596,0.0,0.205
11:13:48.600,0.06,0.38
11:13:48.604,0.075,0.565
11:13:48.608,0.12,0.73
11:13:48.612,0.1,0.83
11:13:48.616,0.085,0.885
11:13:48.620,0.095,0.92
11:13:48.624,0.095,0.95
11:13:48.628,0.095,0.95
11:13:48.632,0.105,1.01
11:13:48.636,0.11,1.005
11:13:48.640,0.115,0.995
11:13:48.644,0.125,0.99
11:13:48.648,0.125,0.98
11:13:48.652,0.13,1.0
11:13:48.656,0.16,1.005
11:13:48.660,0.17,1.015
11:13:48.664,0.195,1.01
11:13:48.668,0.205,1.055
11:13:48.672,0.23,1.07
11:13:48.676,0.26,1.065
11:13:48.680,0.255,1.075
11:13:48.684,0.235,1.125
11:13:48.688,0.265,1.155
11:13:48.692,0.285,1.19
11:13:48.696,0.28,1.17
11:13:48.700,0.285,1.215
11:13:48.704,0.29,1.245
11:13:48.708,0.32,1.255
11:13:48.712,0.305,1.31
11:13:48.716,0.31,1.31
11:13:48.720,0.33,1.35
11:13:48.724,0.345,1.37
11:13:48.728,0.36,1.405
11:13:48.732,0.35,1.41
11:13:48.736,0.355,1.445
11:13:48.740,0.38,1.485
11:13:48.744,0.37,1.52
11:13:48.748,0.39,1.53
11:13:48.752,0.37,1.56
11:13:48.756,0.37,1.58
11:13:48.760,0.37,1.575
11:13:48.764,0.375,1.585
11:13:48.768,0.37,1.59
11:13:48.772,0.375,1.595
11:13:48.776,0.35,1.61
11:13:48.780,0.33,1.6
11:13:48.784,0.315,1.625
11:13:48.788,0.3,1.6
11:13:48.792,0.29,1.61
11:13:48.796,0.24,1.585
11:13:48.800,0.19,1.55
11:13:48.804,0.19,1.5
11:13:48.808,0.135,1.465
11:13:48.812,0.06,1.385
11:13:48.816,0.025,1.335
11:13:48.820,-0.03,1.26
11:13:48.824,-0.04,1.21
11:13:48.828,-0.1,1.085
11:13:48.832,-0.145,0.965
11:13:48.836,-0.185,0.905
11:13:48.840,-0.185,0.86
11:13:48.844,-0.225,0.785
11:13:48.848,-0.245,0.68
11:13:48.852,-0.26,0.61
11:13:48.856,-0.26,0.515
11:13:48.860,-0.27,0.445
11:13:48.864,-0.24,0.38
11:13:48.868,-0.225,0.34
11:13:48.872,-0.215,0.33
11:13:48.876,-0.23,0.335
11:13:48.880,-0.24,0.36
11:13:48.884,-0.25,0.355
11:13:48.888,-0.255,0.38
11:13:48.892,-0.265,0.35
11:13:48.896,-0.27,0.33
11:13:48.900,-0.295,0.305
11:13:48.904,-0.27,0.29
11:13:48.908,-0.26,0.29
11:13:48.912,-0.27,0.315
11:13:48.916,-0.26,0.35
11:13:48.920,-0.28,0.36
11:13:48.924,-0.285,0.38
11:13:48.928,-0.29,0.385
11:13:48.932,-0.29,0.35
11:13:48.936,-0.315,0.36
11:13:48.940,-0.31,0.355
11:13:48.944,-0.315,0.36
11:13:48.948,-0.305,0.35
11:13:48.952,-0.295,0.36
11:13:48.956,-0.285,0.365
11:13:48.960,-0.295,0.38
11:13:48.964,-0.27,0.365
11:13:48.968,-0.275,0.365
11:13:48.972,-0.27,0.345
11:13:48.976,-0.265,0.345
11:13:48.980,-0.28,0.37
11:13:48.984,-0.28,0.355
11:13:48.988,-0.275,0.38
11:13:48.992,-0.235,0.36
11:13:48.996,-0.23,0.385
11:13:49.000,-0.2,0.395
11:13:49.004,-0.185,0.41
11:13:49.008,-0.175,0.44
11:13:49.012,-0.185,0.455
11:13:49.016,-0.195,0.46
11:13:49.020,-0.205,0.455
11:13:49.024,-0.23,0.455
11:13:49.028,-0.24,0.435
11:13:49.032,-0.25,0.405
11:13:49.036,-0.275,0.365
11:13:49.040,-0.28,0.31
11:13:49.044,-0.245,0.27
11:13:49.048,-0.225,0.215
11:13:49.052,-0.135,0.215
11:13:49.056,-0.04,0.25
11:13:49.060,0.095,0.26
11:13:49.064,0.175,0.28
11:13:49.068,0.115,0.34
11:13:49.072,-0.01,0.42
11:13:49.076,-0.205,0.455
11:13:49.080,-0.57,0.27
11:13:49.084,-0.945,-0.15
11:13:49.088,-1.25,-0.66
11:13:49.092,-1.43,-1.26
11:13:49.096,-1.495,-2.165
11:13:49.100,-1.47,-3.05
11:13:49.104,-1.36,-3.695
11:13:49.108,-1.37,-4.13
11:13:49.112,-1.465,-4.475
11:13:49.116,-1.47,-4.66
11:13:49.120,-1.475,-4.75
11:13:49.124,-1.51,-4.755
11:13:49.128,-1.52,-4.675
11:13:49.132,-1.51,-4.58
11:13:49.136,-1.475,-4.505
11:13:49.140,-1.51,-4.45
11:13:49.144,-1.545,-4.38
11:13:49.148,-1.535,-4.285
11:13:49.152,-1.455,-4.115
11:13:49.156,-1.34,-3.895
11:13:49.160,-1.245,-3.6
11:13:49.164,-1.155,-3.26
11:13:49.168,-1.07,-2.87
11:13:49.172,-0.96,-2.45
11:13:49.176,-0.78,-1.975
11:13:49.180,-0.57,-1.525
11:13:49.184,-0.43,-1.155
11:13:49.188,-0.27,-0.8
11:13:49.192,-0.195,-0.47
11:13:49.196,-0.16,-0.215
11:13:49.200,-0.1,-0.02
11:13:49.204,-0.065,0.175
11:13:49.208,-0.02,0.335
11:13:49.212,-0.025,0.49
11:13:49.216,-0.02,0.685
11:13:49.220,0.0,0.815
11:13:49.224,0.0,0.88
11:13:49.228,0.04,0.92
11:13:49.232,0.075,0.95
11:13:49.236,0.06,0.975
11:13:49.240,0.065,1.005
11:13:49.244,0.095,1.03
11:13:49.248,0.13,1.055
11:13:49.252,0.165,1.095
11:13:49.256,0.185,1.125
11:13:49.260,0.19,1.145
11:13:49.264,0.205,1.135
11:13:49.268,0.22,1.135
11:13:49.272,0.235,1.16
11:13:49.276,0.255,1.18
11:13:49.280,0.26,1.185
11:13:49.284,0.255,1.195
11:13:49.288,0.275,1.21
11:13:49.292,0.27,1.215
11:13:49.296,0.265,1.22
11:13:49.300,0.26,1.235
11:13:49.304,0.27,1.255
11:13:49.308,0.27,1.29
11:13:49.312,0.27,1.295
11:13:49.316,0.27,1.335
11:13:49.320,0.26,1.33
11:13:49.324,0.27,1.36
11:13:49.328,0.275,1.395
11:13:49.332,0.265,1.43
11:13:49.336,0.255,1.45
11:13:49.340,0.275,1.455
11:13:49.344,0.275,1.475
11:13:49.348,0.295,1.46
11:13:49.352,0.31,1.485
11:13:49.356,0.3,1.5
11:13:49.360,0.29,1.515
11:13:49.364,0.285,1.525
11:13:49.368,0.26,1.555
11:13:49.372,0.235,1.545
11:13:49.376,0.205,1.545
11:13:49.380,0.175,1.55
11:13:49.384,0.14,1.535
11:13:49.388,0.11,1.52
11:13:49.392,0.095,1.48
11:13:49.396,0.08,1.445
11:13:49.400,0.025,1.4
11:13:49.404,-0.035,1.37
11:13:49.408,-0.065,1.3
11:13:49.412,-0.1,1.235
11:13:49.416,-0.155,1.18
11:13:49.420,-0.195,1.115
11:13:49.424,-0.205,1.045
11:13:49.428,-0.26,0.96
11:13:49.432,-0.275,0.925
11:13:49.436,-0.28,0.845
11:13:49.440,-0.26,0.795
11:13:49.444,-0.27,0.7
11:13:49.448,-0.22,0.695
11:13:49.452,-0.23,0.69
11:13:49.456,-0.205,0.66
11:13:49.460,-0.19,0.625
11:13:49.464,-0.19,0.605
11:13:49.468,-0.18,0.56
11:13:49.472,-0.195,0.52
11:13:49.476,-0.16,0.51
11:13:49.480,-0.18,0.485
11:13:49.484,-0.175,0.46
11:13:49.488,-0.185,0.44
11:13:49.492,-0.175,0.42
11:13:49.496,-0.165,0.4
11:13:49.500,-0.18,0.39
11:13:49.504,-0.19,0.42
11:13:49.508,-0.2,0.395
11:13:49.512,-0.23,0.405
11:13:49.516,-0.22,0.36
11:13:49.520,-0.22,0.36
11:13:49.524,-0.22,0.355
11:13:49.528,-0.225,0.395
11:13:49.532,-0.215,0.37
11:13:49.536,-0.215,0.355
11:13:49.540,-0.23,0.355
11:13:49.544,-0.23,0.345
11:13:49.548,-0.23,0.35
11:13:49.552,-0.255,0.355
11:13:49.556,-0.265,0.38
11:13:49.560,-0.265,0.355
11:13:49.564,-0.26,0.345
11:13:49.568,-0.285,0.34
11:13:49.572,-0.27,0.345
11:13:49.576,-0.275,0.33
11:13:49.580,-0.275,0.325
11:13:49.584,-0.295,0.335
11:13:49.588,-0.265,0.355
11:13:49.592,-0.285,0.35
11:13:49.596,-0.285,0.36
11:13:49.600,-0.29,0.355
11:13:49.604,-0.295,0.34
11:13:49.608,-0.305,0.335
11:13:49.612,-0.305,0.33
11:13:49.616,-0.305,0.355
11:13:49.620,-0.31,0.38
11:13:49.624,-0.295,0.385
11:13:49.628,-0.305,0.375
11:13:49.632,-0.26,0.335
11:13:49.636,-0.16,0.33
11:13:49.640,-0.005,0.33
11:13:49.644,0.16,0.38
11:13:49.648,0.185,0.455
11:13:49.652,0.13,0.495
11:13:49.656,-0.015,0.575
11:13:49.660,-0.31,0.525
11:13:49.664,-0.705,0.25
11:13:49.668,-1.085,-0.205
11:13:49.672,-1.35,-0.84
11:13:49.676,-1.46,-1.74
11:13:49.680,-1.46,-2.775
11:13:49.684,-1.33,-3.545
11:13:49.688,-1.255,-4.11
11:13:49.692,-1.29,-4.495
11:13:49.696,-1.325,-4.72
11:13:49.700,-1.31,-4.855
11:13:49.704,-1.28,-4.85
11:13:49.708,-1.325,-4.805
11:13:49.712,-1.34,-4.63
11:13:49.716,-1.29,-4.52
11:13:49.720,-1.295,-4.445
11:13:49.724,-1.395,-4.405
11:13:49.728,-1.425,-4.31
11:13:49.732,-1.43,-4.17
11:13:49.736,-1.375,-3.96
11:13:49.740,-1.28,-3.685
11:13:49.744,-1.225,-3.38
11:13:49.748,-1.135,-3.035
11:13:49.752,-1.075,-2.6
11:13:49.756,-0.93,-2.095
11:13:49.760,-0.74,-1.595
11:13:49.764,-0.565,-1.225
11:13:49.768,-0.45,-0.885
11:13:49.772,-0.325,-0.605
11:13:49.776,-0.265,-0.35
11:13:49.780,-0.22,-0.11
11:13:49.784,-0.215,0.095
11:13:49.788,-0.195,0.32
11:13:49.792,-0.16,0.495
11:13:49.796,-0.15,0.625
11:13:49.800,-0.135,0.765
11:13:49.804,-0.115,0.835
11:13:49.808,-0.095,0.875
11:13:49.812,-0.085,0.905
11:13:49.816,-0.055,0.96
11:13:49.820,-0.05,1.0
11:13:49.824,-0.02,1.025
11:13:49.828,0.01,1.03
11:13:49.832,0.05,1.06
11:13:49.836,0.085,1.095
11:13:49.840,0.1,1.15
11:13:49.844,0.12,1.195
11:13:49.848,0.165,1.23
11:13:49.852,0.185,1.21
11:13:49.856,0.225,1.24
11:13:49.860,0.24,1.265
11:13:49.864,0.26,1.295
11:13:49.868,0.265,1.295
11:13:49.872,0.275,1.295
11:13:49.876,0.275,1.275
11:13:49.880,0.295,1.27
11:13:49.884,0.295,1.3
11:13:49.888,0.315,1.325
11:13:49.892,0.325,1.335
11:13:49.896,0.33,1.37
11:13:49.900,0.3,1.41
11:13:49.904,0.315,1.42
11:13:49.908,0.33,1.4
11:13:49.912,0.325,1.435
11:13:49.916,0.345,1.455
11:13:49.920,0.365,1.455
11:13:49.924,0.335,1.48
11:13:49.928,0.34,1.505
11:13:49.932,0.32,1.535
11:13:49.936,0.305,1.555
11:13:49.940,0.29,1.55
11:13:49.944,0.26,1.575
11:13:49.948,0.24,1.58
11:13:49.952,0.235,1.56
11:13:49.956,0.19,1.56
11:13:49.960,0.165,1.545
11:13:49.964,0.14,1.555
11:13:49.968,0.105,1.55
11:13:49.972,0.065,1.5
11:13:49.976,0.03,1.495
11:13:49.980,-0.005,1.455
11:13:49.984,-0.045,1.41
11:13:49.988,-0.095,1.335
11:13:49.992,-0.12,1.275
11:13:49.996,-0.14,1.215
11:13:50.000,-0.18,1.13
11:13:50.004,-0.17,1.045
11:13:50.008,-0.19,0.995
11:13:50.012,-0.19,0.94
11:13:50.016,-0.19,0.87
11:13:50.020,-0.225,0.81
11:13:50.024,-0.26,0.8
11:13:50.028,-0.265,0.76
11:13:50.032,-0.24,0.7
11:13:50.036,-0.245,0.675
11:13:50.040,-0.24,0.625
11:13:50.044,-0.235,0.62
11:13:50.048,-0.215,0.625
11:13:50.052,-0.205,0.61
11:13:50.056,-0.2,0.59
11:13:50.060,-0.22,0.56
11:13:50.064,-0.21,0.545
11:13:50.068,-0.25,0.505
11:13:50.072,-0.25,0.465
11:13:50.076,-0.25,0.42
11:13:50.080,-0.27,0.39
11:13:50.084,-0.25,0.38
11:13:50.088,-0.26,0.385
11:13:50.092,-0.255,0.33
11:13:50.096,-0.25,0.3
11:13:50.100,-0.26,0.305
11:13:50.104,-0.265,0.31
11:13:50.108,-0.275,0.32
11:13:50.112,-0.275,0.36
11:13:50.116,-0.275,0.325
11:13:50.120,-0.305,0.29
11:13:50.124,-0.315,0.3
11:13:50.128,-0.315,0.3
11:13:50.132,-0.34,0.27
11:13:50.136,-0.355,0.27
11:13:50.140,-0.36,0.26
11:13:50.144,-0.34,0.265
11:13:50.148,-0.37,0.25
11:13:50.152,-0.35,0.25
11:13:50.156,-0.345,0.29
11:13:50.160,-0.375,0.29
11:13:50.164,-0.395,0.28
11:13:50.168,-0.38,0.27
11:13:50.172,-0.375,0.22
11:13:50.176,-0.37,0.215
11:13:50.180,-0.345,0.245
11:13:50.184,-0.325,0.24
11:13:50.188,-0.34,0.255
11:13:50.192,-0.32,0.265
11:13:50.196,-0.335,0.285
11:13:50.200,-0.35,0.295
11:13:50.204,-0.37,0.295
11:13:50.208,-0.37,0.315
11:13:50.212,-0.355,0.265
11:13:50.216,-0.375,0.24
11:13:50.220,-0.35,0.26
11:13:50.224,-0.31,0.25
11:13:50.228,-0.265,0.26
11:13:50.232,-0.26,0.28
11:13:50.236,-0.25,0.275
11:13:50.240,-0.225,0.3
11:13:50.244,-0.23,0.34
11:13:50.248,-0.235,0.375
11:13:50.252,-0.225,0.38
11:13:50.256,-0.2,0.375
11:13:50.260,-0.19,0.355
11:13:50.264,-0.19,0.355
11:13:50.268,-0.18,0.355
11:13:50.272,-0.16,0.34
11:13:50.276,-0.165,0.35
11:13:50.280,-0.16,0.34
11:13:50.284,-0.18,0.315
11:13:50.288,-0.15,0.3
11:13:50.292,-0.14,0.295
11:13:50.296,-0.09,0.28
11:13:50.300,0.025,0.285
11:13:50.304,0.165,0.26
11:13:50.308,0.195,0.295
11:13:50.312,0.095,0.35
11:13:50.316,-0.095,0.415
11:13:50.320,-0.435,0.375
11:13:50.324,-0.865,0.065
11:13:50.328,-1.315,-0.465
11:13:50.332,-1.68,-1.145
11:13:50.336,-1.9,-2.115
11:13:50.340,-1.915,-3.07
11:13:50.344,-1.805,-3.775
11:13:50.348,-1.73,-4.265
11:13:50.352,-1.78,-4.6
11:13:50.356,-1.825,-4.77
11:13:50.360,-1.805,-4.875
11:13:50.364,-1.785,-4.895
11:13:50.368,-1.78,-4.785
11:13:50.372,-1.765,-4.675
11:13:50.376,-1.74,-4.565
11:13:50.380,-1.71,-4.455
11:13:50.384,-1.735,-4.345
11:13:50.388,-1.655,-4.23
11:13:50.392,-1.49,-4.055
11:13:50.396,-1.295,-3.785
11:13:50.400,-1.12,-3.46
11:13:50.404,-0.99,-3.09
11:13:50.408,-0.91,-2.66
11:13:50.412,-0.805,-2.175
11:13:50.416,-0.665,-1.635
11:13:50.420,-0.495,-1.215
11:13:50.424,-0.32,-0.845
11:13:50.428,-0.17,-0.56
11:13:50.432,-0.07,-0.29
11:13:50.436,0.02,-0.075
11:13:50.440,0.03,0.155
11:13:50.444,0.045,0.415
11:13:50.448,0.06,0.565
11:13:50.452,0.075,0.72
11:13:50.456,0.075,0.85
11:13:50.460,0.075,0.985
11:13:50.464,0.1,1.035
11:13:50.468,0.13,1.075
11:13:50.472,0.14,1.08
11:13:50.476,0.14,1.085
11:13:50.480,0.185,1.07
11:13:50.484,0.205,1.05
11:13:50.488,0.19,1.085
11:13:50.492,0.185,1.09
11:13:50.496,0.17,1.13
11:13:50.500,0.175,1.125
11:13:50.504,0.145,1.095
11:13:50.508,0.18,1.095
11:13:50.512,0.185,1.085
11:13:50.516,0.2,1.095
11:13:50.520,0.185,1.1
11:13:50.524,0.2,1.095
11:13:50.528,0.21,1.13
11:13:50.532,0.235,1.175
11:13:50.536,0.22,1.24
11:13:50.540,0.22,1.27
11:13:50.544,0.21,1.26
11:13:50.548,0.22,1.27
11:13:50.552,0.225,1.28
11:13:50.556,0.215,1.285
11:13:50.560,0.255,1.31
11:13:50.564,0.285,1.34
11:13:50.568,0.3,1.38
11:13:50.572,0.315,1.385
11:13:50.576,0.345,1.42
11:13:50.580,0.37,1.445
11:13:50.584,0.36,1.48
11:13:50.588,0.36,1.495
11:13:50.592,0.355,1.495
11:13:50.596,0.34,1.525
11:13:50.600,0.33,1.535
11:13:50.604,0.335,1.545
11:13:50.608,0.32,1.58
11:13:50.612,0.33,1.58
11:13:50.616,0.31,1.57
11:13:50.620,0.275,1.555
11:13:50.624,0.23,1.55
11:13:50.628,0.23,1.485
11:13:50.632,0.205,1.47
11:13:50.636,0.15,1.44
11:13:50.640,0.105,1.39
11:13:50.644,0.085,1.345
11:13:50.648,0.07,1.27
11:13:50.652,0.04,1.21
11:13:50.656,0.025,1.125
11:13:50.660,-0.005,1.07
11:13:50.664,-0.01,1.06
11:13:50.668,-0.045,1.0
11:13:50.672,-0.065,0.915
11:13:50.676,-0.09,0.82
11:13:50.680,-0.135,0.75
11:13:50.684,-0.155,0.67
11:13:50.688,-0.17,0.595
11:13:50.692,-0.21,0.545
11:13:50.696,-0.215,0.47
11:13:50.700,-0.265,0.39
11:13:50.704,-0.285,0.35
11:13:50.708,-0.275,0.345
11:13:50.712,-0.295,0.35
11:13:50.716,-0.31,0.335
11:13:50.720,-0.315,0.305
11:13:50.724,-0.345,0.3
11:13:50.728,-0.36,0.305
11:13:50.732,-0.36,0.265
11:13:50.736,-0.325,0.265
11:13:50.740,-0.3,0.255
11:13:50.744,-0.27,0.285
11:13:50.748,-0.29,0.33
11:13:50.752,-0.33,0.32
11:13:50.756,-0.305,0.32
11:13:50.760,-0.305,0.3
11:13:50.764,-0.3,0.31
11:13:50.768,-0.285,0.315
11:13:50.772,-0.265,0.335
11:13:50.776,-0.255,0.37
11:13:50.780,-0.24,0.39
11:13:50.784,-0.24,0.365
11:13:50.788,-0.22,0.365
11:13:50.792,-0.26,0.39
11:13:50.796,-0.235,0.375
11:13:50.800,-0.205,0.36
11:13:50.804,-0.175,0.31
11:13:50.808,-0.15,0.345
11:13:50.812,-0.105,0.345
11:13:50.816,-0.09,0.38
11:13:50.820,-0.07,0.415
11:13:50.824,-0.06,0.455
11:13:50.828,-0.03,0.47
11:13:50.832,-0.02,0.465
11:13:50.836,-0.02,0.49
11:13:50.840,-0.005,0.485
11:13:50.844,0.06,0.465
11:13:50.848,0.195,0.47
11:13:50.852,0.275,0.48
11:13:50.856,0.21,0.47
11:13:50.860,0.03,0.52
11:13:50.864,-0.28,0.555
11:13:50.868,-0.705,0.39
11:13:50.872,-1.16,-0.03
11:13:50.876,-1.565,-0.58
11:13:50.880,-1.87,-1.27
11:13:50.884,-2.015,-2.26
11:13:50.888,-2.025,-3.15
11:13:50.892,-1.945,-3.795
11:13:50.896,-1.875,-4.3
11:13:50.900,-1.815,-4.62
11:13:50.904,-1.695,-4.815
11:13:50.908,-1.595,-4.87
11:13:50.912,-1.575,-4.78
11:13:50.916,-1.59,-4.61
11:13:50.920,-1.545,-4.455
11:13:50.924,-1.525,-4.345
11:13:50.928,-1.53,-4.265
11:13:50.932,-1.46,-4.145
11:13:50.936,-1.315,-3.985
11:13:50.940,-1.125,-3.715
11:13:50.944,-1.005,-3.38
11:13:50.948,-0.9,-3.015
11:13:50.952,-0.83,-2.53
11:13:50.956,-0.695,-2.025
11:13:50.960,-0.56,-1.57
11:13:50.964,-0.42,-1.185
11:13:50.968,-0.32,-0.855
11:13:50.972,-0.21,-0.55
11:13:50.976,-0.14,-0.3
11:13:50.980,-0.075,-0.09
11:13:50.984,-0.005,0.095
11:13:50.988,0.035,0.335
11:13:50.992,0.095,0.535
11:13:50.996,0.09,0.695
11:13:51.000,0.125,0.81
11:13:51.004,0.165,0.92
11:13:51.008,0.155,0.95
11:13:51.012,0.175,0.985
11:13:51.016,0.21,1.03
11:13:51.020,0.215,1.07
11:13:51.024,0.245,1.09
11:13:51.028,0.275,1.115
11:13:51.032,0.31,1.105
11:13:51.036,0.32,1.14
11:13:51.040,0.32,1.165
11:13:51.044,0.335,1.215
11:13:51.048,0.33,1.21
11:13:51.052,0.31,1.2
11:13:51.056,0.3,1.195
11:13:51.060,0.28,1.185
11:13:51.064,0.275,1.16
11:13:51.068,0.235,1.165
11:13:51.072,0.245,1.145
11:13:51.076,0.245,1.16
11:13:51.080,0.235,1.17
11:13:51.084,0.23,1.18
11:13:51.088,0.22,1.205
11:13:51.092,0.225,1.225
11:13:51.096,0.225,1.215
11:13:51.100,0.23,1.24
11:13:51.104,0.25,1.265
11:13:51.108,0.285,1.275
11:13:51.112,0.3,1.28
11:13:51.116,0.285,1.335
11:13:51.120,0.265,1.35
11:13:51.124,0.28,1.375
11:13:51.128,0.265,1.42
11:13:51.132,0.25,1.425
11:13:51.136,0.24,1.42
11:13:51.140,0.235,1.425
11:13:51.144,0.205,1.445
11:13:51.148,0.19,1.47
11:13:51.152,0.16,1.43
11:13:51.156,0.145,1.425
11:13:51.160,0.1,1.41
11:13:51.164,0.065,1.375
11:13:51.168,0.04,1.35
11:13:51.172,0.03,1.315
11:13:51.176,-0.01,1.26
11:13:51.180,-0.025,1.2
11:13:51.184,-0.045,1.175
11:13:51.188,-0.055,1.095
11:13:51.192,-0.1,1.03
11:13:51.196,-0.095,0.98
11:13:51.200,-0.09,0.915
11:13:51.204,-0.12,0.895
11:13:51.208,-0.1,0.84
11:13:51.212,-0.14,0.795
11:13:51.216,-0.175,0.75
11:13:51.220,-0.185,0.69
11:13:51.224,-0.205,0.67
11:13:51.228,-0.21,0.635
11:13:51.232,-0.225,0.575
11:13:51.236,-0.245,0.54
11:13:51.240,-0.26,0.475
11:13:51.244,-0.275,0.43
11:13:51.248,-0.29,0.41
11:13:51.252,-0.31,0.39
11:13:51.256,-0.335,0.37
11:13:51.260,-0.325,0.36
11:13:51.264,-0.325,0.31
11:13:51.268,-0.34,0.29
11:13:51.272,-0.335,0.28
11:13:51.276,-0.34,0.3
11:13:51.280,-0.345,0.275
11:13:51.284,-0.34,0.295
11:13:51.288,-0.33,0.26
11:13:51.292,-0.325,0.255
11:13:51.296,-0.335,0.265
11:13:51.300,-0.34,0.27
11:13:51.304,-0.36,0.295
11:13:51.308,-0.375,0.29
11:13:51.312,-0.345,0.275
11:13:51.316,-0.34,0.285
11:13:51.320,-0.34,0.25
11:13:51.324,-0.32,0.24
11:13:51.328,-0.32,0.28
11:13:51.332,-0.305,0.27
11:13:51.336,-0.315,0.25
11:13:51.340,-0.325,0.25
11:13:51.344,-0.315,0.27
11:13:51.348,-0.305,0.275
11:13:51.352,-0.29,0.28
11:13:51.356,-0.235,0.285
11:13:51.360,-0.16,0.295
11:13:51.364,0.015,0.28
11:13:51.368,0.185,0.29
11:13:51.372,0.21,0.35
11:13:51.376,0.145,0.425
11:13:51.380,-0.03,0.515
11:13:51.384,-0.37,0.5
11:13:51.388,-0.82,0.23
11:13:51.392,-1.195,-0.245
11:13:51.396,-1.435,-0.875
11:13:51.400,-1.57,-1.83
11:13:51.404,-1.565,-2.905
11:13:51.408,-1.425,-3.67
11:13:51.412,-1.315,-4.19
11:13:51.416,-1.3,-4.56
11:13:51.420,-1.3,-4.75
11:13:51.424,-1.27,-4.83
11:13:51.428,-1.25,-4.805
11:13:51.432,-1.305,-4.685
11:13:51.436,-1.32,-4.525
11:13:51.440,-1.265,-4.445
11:13:51.444,-1.295,-4.365
11:13:51.448,-1.31,-4.33
11:13:51.452,-1.25,-4.245
11:13:51.456,-1.165,-4.005
11:13:51.460,-1.05,-3.695
11:13:51.464,-0.96,-3.36
11:13:51.468,-0.895,-3.0
11:13:51.472,-0.835,-2.5
11:13:51.476,-0.73,-1.97
11:13:51.480,-0.57,-1.515
11:13:51.484,-0.45,-1.09
11:13:51.488,-0.275,-0.79
11:13:51.492,-0.155,-0.51
11:13:51.496,-0.13,-0.275
11:13:51.500,-0.1,-0.08
11:13:51.504,-0.055,0.125
11:13:51.508,-0.005,0.35
11:13:51.512,-0.02,0.54
11:13:51.516,-0.01,0.695
11:13:51.520,0.025,0.815
11:13:51.524,0.055,0.88
11:13:51.528,0.095,0.905
11:13:51.532,0.105,0.945
11:13:51.536,0.13,0.975
11:13:51.540,0.17,1.03
11:13:51.544,0.175,1.055
11:13:51.548,0.2,1.1
11:13:51.552,0.2,1.12
11:13:51.556,0.215,1.13
11:13:51.560,0.225,1.15
11:13:51.564,0.21,1.18
11:13:51.568,0.23,1.175
11:13:51.572,0.235,1.19
11:13:51.576,0.25,1.205
11:13:51.580,0.23,1.295
11:13:51.584,0.235,1.32
11:13:51.588,0.225,1.33
11:13:51.592,0.24,1.36
11:13:51.596,0.23,1.395
11:13:51.600,0.225,1.405
11:13:51.604,0.22,1.435
11:13:51.608,0.24,1.455
11:13:51.612,0.235,1.48
11:13:51.616,0.26,1.49
11:13:51.620,0.27,1.515
11:13:51.624,0.27,1.525
11:13:51.628,0.27,1.54
11:13:51.632,0.28,1.565
11:13:51.636,0.275,1.59
11:13:51.640,0.26,1.63
11:13:51.644,0.275,1.67
11:13:51.648,0.295,1.695
11:13:51.652,0.31,1.715
11:13:51.656,0.29,1.71
11:13:51.660,0.285,1.695
11:13:51.664,0.265,1.675
11:13:51.668,0.215,1.665
11:13:51.672,0.155,1.645
11:13:51.676,0.1,1.6
11:13:51.680,0.045,1.58
11:13:51.684,-0.005,1.54
11:13:51.688,-0.04,1.465
11:13:51.692,-0.105,1.385
11:13:51.696,-0.12,1.315
11:13:51.700,-0.12,1.255
11:13:51.704,-0.145,1.18
11:13:51.708,-0.175,1.085
11:13:51.712,-0.195,1.015
11:13:51.716,-0.22,0.975
11:13:51.720,-0.255,0.905
11:13:51.724,-0.285,0.835
11:13:51.728,-0.28,0.77
11:13:51.732,-0.27,0.745
11:13:51.736,-0.28,0.68
11:13:51.740,-0.26,0.67
11:13:51.744,-0.265,0.6
11:13:51.748,-0.26,0.55
11:13:51.752,-0.255,0.545
11:13:51.756,-0.26,0.53
11:13:51.760,-0.265,0.5
11:13:51.764,-0.285,0.51
11:13:51.768,-0.28,0.525
11:13:51.772,-0.315,0.52
11:13:51.776,-0.29,0.5
11:13:51.780,-0.285,0.48
11:13:51.784,-0.315,0.47
11:13:51.788,-0.29,0.465
11:13:51.792,-0.29,0.48
11:13:51.796,-0.275,0.475
11:13:51.800,-0.28,0.475
11:13:51.804,-0.295,0.5
11:13:51.808,-0.31,0.485
11:13:51.812,-0.31,0.49
11:13:51.816,-0.31,0.515
11:13:51.820,-0.315,0.5
11:13:51.824,-0.315,0.48
11:13:51.828,-0.33,0.505
11:13:51.832,-0.325,0.52
11:13:51.836,-0.315,0.515
11:13:51.840,-0.295,0.5
11:13:51.844,-0.275,0.5
11:13:51.848,-0.265,0.51
11:13:51.852,-0.285,0.495
11:13:51.856,-0.3,0.485
11:13:51.860,-0.32,0.505
11:13:51.864,-0.3,0.475
11:13:51.868,-0.325,0.435
11:13:51.872,-0.32,0.41
11:13:51.876,-0.285,0.38
11:13:51.880,-0.295,0.35
11:13:51.884,-0.29,0.355
11:13:51.888,-0.285,0.355
11:13:51.892,-0.29,0.345
11:13:51.896,-0.28,0.33
11:13:51.900,-0.305,0.35
11:13:51.904,-0.29,0.35
11:13:51.908,-0.305,0.35
11:13:51.912,-0.305,0.35
11:13:51.916,-0.3,0.34
11:13:51.920,-0.3,0.34
11:13:51.924,-0.305,0.355
11:13:51.928,-0.27,0.325
11:13:51.932,-0.29,0.34
11:13:51.936,-0.31,0.315
11:13:51.940,-0.285,0.33
11:13:51.944,-0.28,0.3
11:13:51.948,-0.26,0.285
11:13:51.952,-0.27,0.26
11:13:51.956,-0.245,0.305
11:13:51.960,-0.235,0.325
11:13:51.964,-0.215,0.295
11:13:51.968,-0.225,0.27
11:13:51.972,-0.24,0.275
11:13:51.976,-0.26,0.3
11:13:51.980,-0.255,0.3
11:13:51.984,-0.18,0.3
11:13:51.988,-0.1,0.3
11:13:51.992,0.05,0.33
11:13:51.996,0.16,0.395
11:13:52.000,0.135,0.48
11:13:52.004,0.035,0.565
11:13:52.008,-0.185,0.59
11:13:52.012,-0.535,0.4
11:13:52.016,-0.93,-0.045
11:13:52.020,-1.27,-0.585
11:13:52.024,-1.475,-1.335
11:13:52.028,-1.555,-2.37
11:13:52.032,-1.48,-3.31
11:13:52.036,-1.38,-3.94
11:13:52.040,-1.41,-4.405
11:13:52.044,-1.5,-4.685
11:13:52.048,-1.515,-4.82
11:13:52.052,-1.495,-4.855
11:13:52.056,-1.525,-4.785
11:13:52.060,-1.58,-4.68
11:13:52.064,-1.585,-4.56
11:13:52.068,-1.6,-4.475
11:13:52.072,-1.685,-4.4
11:13:52.076,-1.735,-4.355
11:13:52.080,-1.735,-4.255
11:13:52.084,-1.635,-4.07
11:13:52.088,-1.505,-3.8
11:13:52.092,-1.4,-3.48
11:13:52.096,-1.22,-3.115
11:13:52.100,-1.115,-2.685
11:13:52.104,-1.015,-2.21
11:13:52.108,-0.845,-1.705
11:13:52.112,-0.67,-1.275
11:13:52.116,-0.5,-0.92
11:13:52.120,-0.36,-0.63
11:13:52.124,-0.25,-0.425
11:13:52.128,-0.185,-0.205
11:13:52.132,-0.155,0.035
11:13:52.136,-0.115,0.275
11:13:52.140,-0.075,0.465
11:13:52.144,-0.06,0.635
11:13:52.148,-0.015,0.78
11:13:52.152,-0.02,0.87
11:13:52.156,0.015,0.92
11:13:52.160,0.03,0.935
11:13:52.164,0.055,0.95
11:13:52.168,0.05,0.995
11:13:52.172,0.06,1.04
11:13:52.176,0.07,1.08
11:13:52.180,0.075,1.085
11:13:52.184,0.095,1.08
11:13:52.188,0.08,1.08
11:13:52.192,0.095,1.105
11:13:52.196,0.105,1.12
11:13:52.200,0.125,1.145
11:13:52.204,0.13,1.14
11:13:52.208,0.155,1.165
11:13:52.212,0.205,1.165
11:13:52.216,0.195,1.24
11:13:52.220,0.175,1.28
11:13:52.224,0.2,1.31
11:13:52.228,0.195,1.385
11:13:52.232,0.21,1.415
11:13:52.236,0.215,1.435
11:13:52.240,0.225,1.455
11:13:52.244,0.215,1.505
11:13:52.248,0.24,1.54
11:13:52.252,0.26,1.57
11:13:52.256,0.245,1.59
11:13:52.260,0.265,1.595
11:13:52.264,0.275,1.585
11:13:52.268,0.275,1.59
11:13:52.272,0.265,1.605
11:13:52.276,0.265,1.595
11:13:52.280,0.275,1.605
11:13:52.284,0.255,1.6
11:13:52.288,0.25,1.64
11:13:52.292,0.215,1.64
11:13:52.296,0.195,1.65
11:13:52.300,0.185,1.655
11:13:52.304,0.17,1.635
11:13:52.308,0.145,1.64
11:13:52.312,0.125,1.62
11:13:52.316,0.09,1.59
11:13:52.320,0.075,1.57
11:13:52.324,0.04,1.515
11:13:52.328,-0.01,1.49
11:13:52.332,-0.015,1.395
11:13:52.336,-0.055,1.325
11:13:52.340,-0.08,1.27
11:13:52.344,-0.09,1.21
11:13:52.348,-0.09,1.15
11:13:52.352,-0.105,1.1
11:13:52.356,-0.09,0.995
11:13:52.360,-0.11,0.94
11:13:52.364,-0.145,0.88
11:13:52.368,-0.185,0.825
11:13:52.372,-0.195,0.785
11:13:52.376,-0.23,0.765
11:13:52.380,-0.245,0.71
11:13:52.384,-0.26,0.665
11:13:52.388,-0.25,0.59
11:13:52.392,-0.25,0.53
11:13:52.396,-0.265,0.5
11:13:52.400,-0.265,0.475
11:13:52.404,-0.29,0.455
11:13:52.408,-0.29,0.46
11:13:52.412,-0.285,0.485
11:13:52.416,-0.3,0.48
11:13:52.420,-0.29,0.505
11:13:52.424,-0.28,0.515
11:13:52.428,-0.285,0.505
11:13:52.432,-0.28,0.475
11:13:52.436,-0.27,0.51
11:13:52.440,-0.265,0.53
11:13:52.444,-0.275,0.52
11:13:52.448,-0.26,0.545
11:13:52.452,-0.28,0.545
11:13:52.456,-0.29,0.555
11:13:52.460,-0.32,0.515
11:13:52.464,-0.315,0.505
11:13:52.468,-0.305,0.5
11:13:52.472,-0.23,0.455
11:13:52.476,-0.095,0.425
11:13:52.480,0.05,0.4
11:13:52.484,0.05,0.415
11:13:52.488,-0.115,0.46
11:13:52.492,-0.385,0.56
11:13:52.496,-0.865,0.56
11:13:52.500,-1.455,0.29
11:13:52.504,-1.99,-0.12
11:13:52.508,-2.365,-0.66
11:13:52.512,-2.525,-1.445
11:13:52.516,-2.53,-2.41
11:13:52.520,-2.435,-3.195
11:13:52.524,-2.365,-3.85
11:13:52.528,-2.365,-4.315
11:13:52.532,-2.29,-4.57
11:13:52.536,-2.215,-4.705
11:13:52.540,-2.145,-4.765
11:13:52.544,-2.11,-4.705
11:13:52.548,-2.07,-4.585
11:13:52.552,-1.955,-4.485
11:13:52.556,-1.87,-4.41
11:13:52.560,-1.815,-4.365
11:13:52.564,-1.71,-4.27
11:13:52.568,-1.52,-4.09
11:13:52.572,-1.315,-3.785
11:13:52.576,-1.16,-3.445
11:13:52.580,-1.075,-3.075
11:13:52.584,-0.995,-2.615
11:13:52.588,-0.87,-2.115
11:13:52.592,-0.715,-1.61
11:13:52.596,-0.57,-1.24
11:13:52.600,-0.4,-0.89
11:13:52.604,-0.285,-0.6
11:13:52.608,-0.235,-0.345
11:13:52.612,-0.17,-0.085
11:13:52.616,-0.085,0.17
11:13:52.620,-0.055,0.435
11:13:52.624,-0.06,0.615
11:13:52.628,-0.035,0.785
11:13:52.632,-0.005,0.945
11:13:52.636,-0.04,1.04
11:13:52.640,-0.01,1.015
11:13:52.644,-0.01,1.025
11:13:52.648,0.015,1.035
11:13:52.652,0.04,1.035
11:13:52.656,0.075,1.085
11:13:52.660,0.09,1.075
11:13:52.664,0.095,1.08
11:13:52.668,0.11,1.13
11:13:52.672,0.11,1.165
11:13:52.676,0.105,1.175
11:13:52.680,0.115,1.175
11:13:52.684,0.115,1.155
11:13:52.688,0.155,1.16
11:13:52.692,0.175,1.15
11:13:52.696,0.17,1.15
11:13:52.700,0.19,1.19
11:13:52.704,0.215,1.185
11:13:52.708,0.17,1.2
11:13:52.712,0.2,1.21
11:13:52.716,0.22,1.25
11:13:52.720,0.23,1.275
11:13:52.724,0.21,1.315
11:13:52.728,0.215,1.335
11:13:52.732,0.205,1.33
11:13:52.736,0.23,1.32
11:13:52.740,0.24,1.34
11:13:52.744,0.235,1.34
11:13:52.748,0.23,1.36
11:13:52.752,0.25,1.385
11:13:52.756,0.255,1.425
11:13:52.760,0.245,1.43
11:13:52.764,0.225,1.48
11:13:52.768,0.215,1.48
11:13:52.772,0.215,1.5
11:13:52.776,0.23,1.49
11:13:52.780,0.22,1.48
11:13:52.784,0.205,1.46
11:13:52.788,0.21,1.45
11:13:52.792,0.185,1.455
11:13:52.796,0.165,1.455
11:13:52.800,0.1,1.405
11:13:52.804,0.09,1.415
11:13:52.808,0.065,1.395
11:13:52.812,0.065,1.355
11:13:52.816,0.035,1.31
11:13:52.820,0.02,1.27
11:13:52.824,-0.005,1.22
11:13:52.828,-0.05,1.17
11:13:52.832,-0.045,1.15
11:13:52.836,-0.055,1.06
11:13:52.840,-0.105,1.005
11:13:52.844,-0.115,0.945
11:13:52.848,-0.165,0.845
11:13:52.852,-0.16,0.795
11:13:52.856,-0.17,0.735
11:13:52.860,-0.195,0.68
11:13:52.864,-0.205,0.66
11:13:52.868,-0.23,0.63
11:13:52.872,-0.235,0.625
11:13:52.876,-0.225,0.57
11:13:52.880,-0.23,0.54
11:13:52.884,-0.22,0.55
11:13:52.888,-0.24,0.525
11:13:52.892,-0.245,0.495
11:13:52.896,-0.265,0.53
11:13:52.900,-0.26,0.51
11:13:52.904,-0.265,0.53
11:13:52.908,-0.26,0.5
11:13:52.912,-0.26,0.465
11:13:52.916,-0.275,0.45
11:13:52.920,-0.255,0.435
11:13:52.924,-0.24,0.45
11:13:52.928,-0.27,0.475
11:13:52.932,-0.24,0.47
11:13:52.936,-0.26,0.45
11:13:52.940,-0.25,0.45
11:13:52.944,-0.245,0.45
11:13:52.948,-0.285,0.45
11:13:52.952,-0.29,0.455
11:13:52.956,-0.315,0.41
11:13:52.960,-0.32,0.405
11:13:52.964,-0.31,0.405
11:13:52.968,-0.315,0.38
11:13:52.972,-0.285,0.405
11:13:52.976,-0.275,0.37
11:13:52.980,-0.28,0.355
11:13:52.984,-0.26,0.38
11:13:52.988,-0.255,0.375
11:13:52.992,-0.25,0.375
11:13:52.996,-0.25,0.37
11:13:53.000,-0.255,0.35
11:13:53.004,-0.24,0.345
11:13:53.008,-0.225,0.39
11:13:53.012,-0.23,0.415
11:13:53.016,-0.235,0.435
11:13:53.020,-0.24,0.395
11:13:53.024,-0.265,0.43
11:13:53.028,-0.26,0.415
11:13:53.032,-0.25,0.43
11:13:53.036,-0.26,0.45
11:13:53.040,-0.245,0.44
11:13:53.044,-0.24,0.42
11:13:53.048,-0.2,0.425
11:13:53.052,-0.195,0.41
11:13:53.056,-0.17,0.42
11:13:53.060,-0.14,0.44
11:13:53.064,-0.155,0.48
11:13:53.068,-0.145,0.465
11:13:53.072,-0.13,0.44
11:13:53.076,-0.125,0.41
11:13:53.080,-0.145,0.39
11:13:53.084,-0.195,0.355
11:13:53.088,-0.185,0.37
11:13:53.092,-0.17,0.35
11:13:53.096,-0.17,0.315
11:13:53.100,-0.17,0.31
11:13:53.104,-0.145,0.3
11:13:53.108,-0.15,0.285
11:13:53.112,-0.16,0.285
11:13:53.116,-0.185,0.24
11:13:53.120,-0.205,0.24
11:13:53.124,-0.2,0.23
11:13:53.128,-0.235,0.245
11:13:53.132,-0.25,0.23
11:13:53.136,-0.26,0.23
11:13:53.140,-0.285,0.185
11:13:53.144,-0.295,0.175
11:13:53.148,-0.28,0.195
11:13:53.152,-0.295,0.19
11:13:53.156,-0.335,0.195
11:13:53.160,-0.32,0.18
11:13:53.164,-0.35,0.175
11:13:53.168,-0.35,0.15
11:13:53.172,-0.36,0.145
11:13:53.176,-0.385,0.14
11:13:53.180,-0.385,0.135
11:13:53.184,-0.38,0.11
11:13:53.188,-0.375,0.12
11:13:53.192,-0.36,0.155
11:13:53.196,-0.355,0.14
11:13:53.200,-0.33,0.165
11:13:53.204,-0.34,0.175
11:13:53.208,-0.32,0.185
11:13:53.212,-0.315,0.195
11:13:53.216,-0.325,0.185
11:13:53.220,-0.335,0.195
11:13:53.224,-0.355,0.19
11:13:53.228,-0.355,0.22
11:13:53.232,-0.34,0.205
11:13:53.236,-0.335,0.19
11:13:53.240,-0.31,0.215
11:13:53.244,-0.285,0.265
11:13:53.248,-0.31,0.28
11:13:53.252,-0.29,0.305
11:13:53.256,-0.3,0.34
11:13:53.260,-0.295,0.345
11:13:53.264,-0.29,0.315
11:13:53.268,-0.285,0.285
11:13:53.272,-0.285,0.3
11:13:53.276,-0.27,0.325
11:13:53.280,-0.24,0.355
11:13:53.284,-0.235,0.375
11:13:53.288,-0.21,0.37
11:13:53.292,-0.195,0.385
11:13:53.296,-0.19,0.35
11:13:53.300,-0.21,0.33
11:13:53.304,-0.22,0.28
11:13:53.308,-0.19,0.285
11:13:53.312,-0.2,0.255
11:13:53.316,-0.2,0.22
11:13:53.320,-0.18,0.235
11:13:53.324,-0.17,0.26
11:13:53.328,-0.18,0.225
11:13:53.332,-0.19,0.21
11:13:53.336,-0.15,0.19
11:13:53.340,-0.12,0.19
11:13:53.344,-0.035,0.2
11:13:53.348,0.055,0.2
11:13:53.352,0.07,0.22
11:13:53.356,-0.01,0.27
11:13:53.360,-0.17,0.335
11:13:53.364,-0.43,0.33
11:13:53.368,-0.855,0.09
11:13:53.372,-1.27,-0.37
11:13:53.376,-1.58,-0.94
11:13:53.380,-1.83,-1.745
11:13:53.384,-1.905,-2.685
11:13:53.388,-1.82,-3.425
11:13:53.392,-1.695,-3.98
11:13:53.396,-1.67,-4.395
11:13:53.400,-1.715,-4.665
11:13:53.404,-1.735,-4.81
11:13:53.408,-1.65,-4.84
11:13:53.412,-1.575,-4.81
11:13:53.416,-1.55,-4.695
11:13:53.420,-1.52,-4.535
11:13:53.424,-1.47,-4.45
11:13:53.428,-1.43,-4.305
11:13:53.432,-1.435,-4.205
11:13:53.436,-1.385,-4.105
11:13:53.440,-1.225,-3.89
11:13:53.444,-1.07,-3.59
11:13:53.448,-0.95,-3.26
11:13:53.452,-0.845,-2.86
11:13:53.456,-0.725,-2.42
11:13:53.460,-0.615,-1.96
11:13:53.464,-0.495,-1.535
11:13:53.468,-0.405,-1.15
11:13:53.472,-0.27,-0.8
11:13:53.476,-0.14,-0.44
11:13:53.480,-0.07,-0.15
11:13:53.484,-0.02,0.02
11:13:53.488,0.0,0.195
11:13:53.492,0.05,0.37
11:13:53.496,0.11,0.54
11:13:53.500,0.115,0.69
11:13:53.504,0.13,0.785
11:13:53.508,0.145,0.925
11:13:53.512,0.175,0.97
11:13:53.516,0.18,0.98
11:13:53.520,0.18,0.995
11:13:53.524,0.165,1.0
11:13:53.528,0.175,1.025
11:13:53.532,0.165,1.02
11:13:53.536,0.155,1.025
11:13:53.540,0.165,1.03
11:13:53.544,0.175,1.03
11:13:53.548,0.17,1.055
11:13:53.552,0.16,1.035
11:13:53.556,0.175,1.06
11:13:53.560,0.155,1.05
11:13:53.564,0.185,1.075
11:13:53.568,0.195,1.055
11:13:53.572,0.19,1.07
11:13:53.576,0.205,1.06
11:13:53.580,0.24,1.1
11:13:53.584,0.26,1.09
11:13:53.588,0.28,1.165
11:13:53.592,0.315,1.21
11:13:53.596,0.315,1.2
11:13:53.600,0.345,1.2
11:13:53.604,0.385,1.255
11:13:53.608,0.425,1.29
11:13:53.612,0.45,1.32
11:13:53.616,0.47,1.375
11:13:53.620,0.475,1.395
11:13:53.624,0.49,1.44
11:13:53.628,0.5,1.495
11:13:53.632,0.5,1.52
11:13:53.636,0.46,1.56
11:13:53.640,0.46,1.565
11:13:53.644,0.45,1.615
11:13:53.648,0.455,1.625
11:13:53.652,0.455,1.665
11:13:53.656,0.45,1.7
11:13:53.660,0.425,1.68
11:13:53.664,0.42,1.7
11:13:53.668,0.395,1.7
11:13:53.672,0.355,1.715
11:13:53.676,0.355,1.685
11:13:53.680,0.32,1.66
11:13:53.684,0.305,1.65
11:13:53.688,0.28,1.63
11:13:53.692,0.265,1.62
11:13:53.696,0.25,1.595
11:13:53.700,0.21,1.56
11:13:53.704,0.2,1.515
11:13:53.708,0.165,1.455
11:13:53.712,0.145,1.395
11:13:53.716,0.14,1.305
11:13:53.720,0.135,1.3
11:13:53.724,0.105,1.22
11:13:53.728,0.045,1.125
11:13:53.732,0.035,1.03
11:13:53.736,0.0,0.95
11:13:53.740,0.0,0.875
11:13:53.744,-0.005,0.8
11:13:53.748,-0.025,0.74
11:13:53.752,-0.035,0.665
11:13:53.756,-0.055,0.63
11:13:53.760,-0.07,0.56
11:13:53.764,-0.075,0.525
11:13:53.768,-0.105,0.49
11:13:53.772,-0.1,0.46
11:13:53.776,-0.12,0.46
11:13:53.780,-0.145,0.425
11:13:53.784,-0.16,0.395
11:13:53.788,-0.16,0.405
11:13:53.792,-0.155,0.41
11:13:53.796,-0.16,0.415
11:13:53.800,-0.16,0.39
11:13:53.804,-0.12,0.395
11:13:53.808,-0.09,0.385
11:13:53.812,-0.055,0.4
11:13:53.816,-0.04,0.415
11:13:53.820,-0.02,0.46
11:13:53.824,-0.045,0.49
11:13:53.828,-0.04,0.545
11:13:53.832,-0.065,0.53
11:13:53.836,-0.065,0.56
11:13:53.840,-0.05,0.55
11:13:53.844,-0.02,0.565
11:13:53.848,-0.035,0.535
11:13:53.852,-0.03,0.565
11:13:53.856,-0.045,0.58
11:13:53.860,-0.045,0.585
11:13:53.864,-0.05,0.595
11:13:53.868,-0.08,0.575
11:13:53.872,-0.08,0.595
11:13:53.876,-0.08,0.585
11:13:53.880,-0.105,0.565
11:13:53.884,-0.11,0.55
11:13:53.888,-0.095,0.535
11:13:53.892,-0.085,0.54
11:13:53.896,-0.06,0.555
11:13:53.900,0.02,0.535
11:13:53.904,0.18,0.525
11:13:53.908,0.3,0.535
11:13:53.912,0.255,0.55
11:13:53.916,0.045,0.575
11:13:53.920,-0.26,0.62
11:13:53.924,-0.685,0.54
11:13:53.928,-1.205,0.21
11:13:53.932,-1.685,-0.25
11:13:53.936,-2.015,-0.815
11:13:53.940,-2.185,-1.685
11:13:53.944,-2.26,-2.615
11:13:53.948,-2.21,-3.3
11:13:53.952,-2.06,-3.83
11:13:53.956,-1.915,-4.245
11:13:53.960,-1.79,-4.53
11:13:53.964,-1.69,-4.66
11:13:53.968,-1.615,-4.66
11:13:53.972,-1.605,-4.505
11:13:53.976,-1.57,-4.34
11:13:53.980,-1.44,-4.21
11:13:53.984,-1.415,-4.105
11:13:53.988,-1.38,-4.035
11:13:53.992,-1.275,-3.915
11:13:53.996,-1.045,-3.67
11:13:54.000,-0.85,-3.355
11:13:54.004,-0.745,-3.06
11:13:54.008,-0.645,-2.67
11:13:54.012,-0.545,-2.195
11:13:54.016,-0.39,-1.745
11:13:54.020,-0.24,-1.335
11:13:54.024,-0.12,-0.975
11:13:54.028,0.005,-0.655
11:13:54.032,0.07,-0.39
11:13:54.036,0.125,-0.15
11:13:54.040,0.145,0.005
11:13:54.044,0.16,0.255
11:13:54.048,0.155,0.48
11:13:54.052,0.16,0.6
11:13:54.056,0.155,0.73
11:13:54.060,0.165,0.83
11:13:54.064,0.2,0.85
11:13:54.068,0.19,0.895
11:13:54.072,0.195,0.905
11:13:54.076,0.185,0.91
11:13:54.080,0.195,0.945
11:13:54.084,0.2,0.965
11:13:54.088,0.21,0.99
11:13:54.092,0.185,0.995
11:13:54.096,0.2,0.97
11:13:54.100,0.215,0.985
11:13:54.104,0.22,0.985
11:13:54.108,0.24,0.985
11:13:54.112,0.26,1.005
11:13:54.116,0.285,1.005
11:13:54.120,0.295,1.03
11:13:54.124,0.28,1.065
11:13:54.128,0.255,1.095
11:13:54.132,0.27,1.105
11:13:54.136,0.28,1.14
11:13:54.140,0.3,1.135
11:13:54.144,0.29,1.145
11:13:54.148,0.29,1.16
11:13:54.152,0.31,1.185
11:13:54.156,0.315,1.23
11:13:54.160,0.335,1.275
11:13:54.164,0.34,1.275
11:13:54.168,0.325,1.29
11:13:54.172,0.345,1.315
11:13:54.176,0.355,1.325
11:13:54.180,0.35,1.355
11:13:54.184,0.355,1.38
11:13:54.188,0.335,1.39
11:13:54.192,0.35,1.39
11:13:54.196,0.38,1.415
11:13:54.200,0.375,1.405
11:13:54.204,0.385,1.425
11:13:54.208,0.385,1.45
11:13:54.212,0.37,1.465
11:13:54.216,0.355,1.47
11:13:54.220,0.33,1.455
11:13:54.224,0.29,1.455
11:13:54.228,0.26,1.41
11:13:54.232,0.255,1.36
11:13:54.236,0.24,1.28
11:13:54.240,0.22,1.235
11:13:54.244,0.175,1.185
11:13:54.248,0.175,1.125
11:13:54.252,0.12,1.06
11:13:54.256,0.11,0.995
11:13:54.260,0.07,0.93
11:13:54.264,0.035,0.865
11:13:54.268,0.0,0.815
11:13:54.272,-0.01,0.715
11:13:54.276,-0.08,0.665
11:13:54.280,-0.09,0.595
11:13:54.284,-0.105,0.54
11:13:54.288,-0.125,0.485
11:13:54.292,-0.135,0.44
11:13:54.296,-0.175,0.415
11:13:54.300,-0.195,0.4
11:13:54.304,-0.2,0.395
11:13:54.308,-0.205,0.345
11:13:54.312,-0.22,0.305
11:13:54.316,-0.2,0.3
11:13:54.320,-0.19,0.335
11:13:54.324,-0.215,0.35
11:13:54.328,-0.215,0.35
11:13:54.332,-0.23,0.345
11:13:54.336,-0.245,0.35
11:13:54.340,-0.24,0.335
11:13:54.344,-0.25,0.325
11:13:54.348,-0.275,0.33
11:13:54.352,-0.26,0.335
11:13:54.356,-0.27,0.295
11:13:54.360,-0.275,0.33
11:13:54.364,-0.245,0.325
11:13:54.368,-0.245,0.31
11:13:54.372,-0.28,0.325
11:13:54.376,-0.28,0.3
11:13:54.380,-0.27,0.315
11:13:54.384,-0.255,0.31
11:13:54.388,-0.235,0.315
11:13:54.392,-0.225,0.275
11:13:54.396,-0.2,0.245
11:13:54.400,-0.175,0.255
11:13:54.404,-0.155,0.305
11:13:54.408,-0.145,0.32
11:13:54.412,-0.13,0.335
11:13:54.416,-0.095,0.315
11:13:54.420,-0.065,0.31
11:13:54.424,-0.035,0.3
11:13:54.428,-0.005,0.29
11:13:54.432,0.105,0.285
11:13:54.436,0.26,0.26
11:13:54.440,0.315,0.285
11:13:54.444,0.235,0.33
11:13:54.448,0.1,0.415
11:13:54.452,-0.175,0.38
11:13:54.456,-0.555,0.02
11:13:54.460,-0.915,-0.52
11:13:54.464,-1.245,-1.075
11:13:54.468,-1.435,-1.925
11:13:54.472,-1.53,-2.87
11:13:54.476,-1.475,-3.595
11:13:54.480,-1.385,-4.105
11:13:54.484,-1.405,-4.505
11:13:54.488,-1.435,-4.75
11:13:54.492,-1.405,-4.875
11:13:54.496,-1.345,-4.875
11:13:54.500,-1.395,-4.79
11:13:54.504,-1.44,-4.63
11:13:54.508,-1.425,-4.505
11:13:54.512,-1.4,-4.405
11:13:54.516,-1.415,-4.35
11:13:54.520,-1.39,-4.225
11:13:54.524,-1.265,-4.06
11:13:54.528,-1.095,-3.785
11:13:54.532,-0.97,-3.465
11:13:54.536,-0.875,-3.105
11:13:54.540,-0.78,-2.615
11:13:54.544,-0.72,-2.105
11:13:54.548,-0.585,-1.645
11:13:54.552,-0.475,-1.225
11:13:54.556,-0.415,-0.81
11:13:54.560,-0.255,-0.535
11:13:54.564,-0.185,-0.315
11:13:54.568,-0.115,-0.085
11:13:54.572,-0.085,0.125
11:13:54.576,-0.025,0.345
11:13:54.580,0.015,0.55
11:13:54.584,0.045,0.665
11:13:54.588,0.12,0.845
11:13:54.592,0.13,0.98
11:13:54.596,0.18,1.01
11:13:54.600,0.195,1.08
11:13:54.604,0.225,1.105
11:13:54.608,0.245,1.155
11:13:54.612,0.27,1.205
11:13:54.616,0.3,1.235
11:13:54.620,0.34,1.225
11:13:54.624,0.375,1.255
11:13:54.628,0.375,1.275
11:13:54.632,0.405,1.3
11:13:54.636,0.41,1.31
11:13:54.640,0.42,1.335
11:13:54.644,0.41,1.335
11:13:54.648,0.415,1.37
11:13:54.652,0.39,1.35
11:13:54.656,0.395,1.37
11:13:54.660,0.41,1.36
11:13:54.664,0.385,1.39
11:13:54.668,0.37,1.4
11:13:54.672,0.375,1.42
11:13:54.676,0.395,1.46
11:13:54.680,0.385,1.47
11:13:54.684,0.365,1.52
11:13:54.688,0.365,1.555
11:13:54.692,0.36,1.58
11:13:54.696,0.33,1.57
11:13:54.700,0.32,1.565
11:13:54.704,0.34,1.59
11:13:54.708,0.345,1.595
11:13:54.712,0.35,1.64
11:13:54.716,0.315,1.665
11:13:54.720,0.31,1.685
11:13:54.724,0.285,1.71
11:13:54.728,0.285,1.71
11:13:54.732,0.235,1.7
11:13:54.736,0.22,1.7
11:13:54.740,0.19,1.695
11:13:54.744,0.155,1.645
11:13:54.748,0.135,1.62
11:13:54.752,0.105,1.605
11:13:54.756,0.08,1.565
11:13:54.760,0.015,1.51
11:13:54.764,-0.025,1.45
11:13:54.768,-0.075,1.395
11:13:54.772,-0.11,1.32
11:13:54.776,-0.13,1.23
11:13:54.780,-0.13,1.175
11:13:54.784,-0.115,1.04
11:13:54.788,-0.125,0.985
11:13:54.792,-0.085,0.96
11:13:54.796,-0.095,0.91
11:13:54.800,-0.105,0.875
11:13:54.804,-0.105,0.83
11:13:54.808,-0.1,0.795
11:13:54.812,-0.095,0.73
11:13:54.816,-0.085,0.68
11:13:54.820,-0.08,0.645
11:13:54.824,-0.095,0.585
11:13:54.828,-0.09,0.545
11:13:54.832,-0.08,0.545
11:13:54.836,-0.105,0.51
11:13:54.840,-0.1,0.49
11:13:54.844,-0.12,0.465
11:13:54.848,-0.11,0.47
11:13:54.852,-0.11,0.47
11:13:54.856,-0.125,0.45
11:13:54.860,-0.155,0.435
11:13:54.864,-0.17,0.425
11:13:54.868,-0.175,0.445
11:13:54.872,-0.205,0.435
11:13:54.876,-0.19,0.435
11:13:54.880,-0.18,0.44
11:13:54.884,-0.205,0.46
11:13:54.888,-0.2,0.45
11:13:54.892,-0.235,0.435
11:13:54.896,-0.26,0.45
11:13:54.900,-0.265,0.405
11:13:54.904,-0.275,0.415
11:13:54.908,-0.255,0.415
11:13:54.912,-0.275,0.37
11:13:54.916,-0.27,0.365
11:13:54.920,-0.245,0.355
11:13:54.924,-0.265,0.37
11:13:54.928,-0.28,0.395
11:13:54.932,-0.285,0.39
11:13:54.936,-0.275,0.39
11:13:54.940,-0.28,0.36
11:13:54.944,-0.27,0.345
11:13:54.948,-0.245,0.33
11:13:54.952,-0.3,0.365
11:13:54.956,-0.29,0.39
11:13:54.960,-0.26,0.375
11:13:54.964,-0.225,0.375
11:13:54.968,-0.25,0.365
11:13:54.972,-0.24,0.36
11:13:54.976,-0.24,0.39
11:13:54.980,-0.235,0.42
11:13:54.984,-0.235,0.42
11:13:54.988,-0.195,0.405
11:13:54.992,-0.16,0.395
11:13:54.996,-0.15,0.385
11:13:55.000,-0.14,0.415
11:13:55.004,-0.135,0.385
11:13:55.008,-0.11,0.375
11:13:55.012,-0.11,0.38
11:13:55.016,-0.125,0.39
11:13:55.020,-0.12,0.355
11:13:55.024,-0.125,0.345
11:13:55.028,-0.13,0.335
11:13:55.032,-0.15,0.35
11:13:55.036,-0.175,0.34
11:13:55.040,-0.175,0.33
11:13:55.044,-0.19,0.34
11:13:55.048,-0.185,0.335
11:13:55.052,-0.205,0.295
11:13:55.056,-0.19,0.27
11:13:55.060,-0.185,0.33
11:13:55.064,-0.16,0.365
11:13:55.068,-0.03,0.4
11:13:55.072,0.11,0.345
11:13:55.076,0.175,0.345
11:13:55.080,0.085,0.39
11:13:55.084,-0.07,0.465
11:13:55.088,-0.36,0.445
11:13:55.092,-0.825,0.135
11:13:55.096,-1.29,-0.44
11:13:55.100,-1.65,-1.1
11:13:55.104,-1.885,-2.0
11:13:55.108,-1.955,-2.92
11:13:55.112,-1.85,-3.63
11:13:55.116,-1.78,-4.19
11:13:55.120,-1.845,-4.59
11:13:55.124,-1.905,-4.775
11:13:55.128,-1.915,-4.875
11:13:55.132,-1.885,-4.89
11:13:55.136,-1.915,-4.81
11:13:55.140,-1.91,-4.69
11:13:55.144,-1.795,-4.585
11:13:55.148,-1.765,-4.52
11:13:55.152,-1.765,-4.44
11:13:55.156,-1.695,-4.34
11:13:55.160,-1.555,-4.16
11:13:55.164,-1.405,-3.88
11:13:55.168,-1.275,-3.525
11:13:55.172,-1.11,-3.145
11:13:55.176,-0.99,-2.675
11:13:55.180,-0.895,-2.175
11:13:55.184,-0.715,-1.63
11:13:55.188,-0.535,-1.155
11:13:55.192,-0.35,-0.785
11:13:55.196,-0.2,-0.455
11:13:55.200,-0.105,-0.18
11:13:55.204,-0.03,0.07
11:13:55.208,0.005,0.31
11:13:55.212,0.03,0.54
11:13:55.216,0.055,0.715
11:13:55.220,0.085,0.85
11:13:55.224,0.085,0.945
11:13:55.228,0.08,1.005
11:13:55.232,0.09,1.06
11:13:55.236,0.095,1.08
11:13:55.240,0.09,1.09
11:13:55.244,0.09,1.095
11:13:55.248,0.11,1.105
11:13:55.252,0.11,1.12
11:13:55.256,0.115,1.1
11:13:55.260,0.115,1.11
11:13:55.264,0.11,1.13
11:13:55.268,0.11,1.12
11:13:55.272,0.11,1.14
11:13:55.276,0.075,1.135
11:13:55.280,0.075,1.14
11:13:55.284,0.09,1.155
11:13:55.288,0.085,1.165
11:13:55.292,0.095,1.17
11:13:55.296,0.13,1.195
11:13:55.300,0.17,1.245
11:13:55.304,0.165,1.265
11:13:55.308,0.17,1.315
11:13:55.312,0.17,1.33
11:13:55.316,0.18,1.355
11:13:55.320,0.205,1.38
11:13:55.324,0.2,1.39
11:13:55.328,0.21,1.4
11:13:55.332,0.225,1.455
11:13:55.336,0.24,1.505
11:13:55.340,0.255,1.535
11:13:55.344,0.27,1.555
11:13:55.348,0.27,1.575
11:13:55.352,0.25,1.615
11:13:55.356,0.27,1.635
11:13:55.360,0.255,1.65
11:13:55.364,0.23,1.65
11:13:55.368,0.22,1.685
11:13:55.372,0.195,1.705
11:13:55.376,0.18,1.69
11:13:55.380,0.175,1.68
11:13:55.384,0.13,1.665
11:13:55.388,0.095,1.62
11:13:55.392,0.07,1.585
11:13:55.396,0.015,1.565
11:13:55.400,-0.03,1.515
11:13:55.404,-0.07,1.46
11:13:55.408,-0.1,1.405
11:13:55.412,-0.15,1.37
11:13:55.416,-0.16,1.31
11:13:55.420,-0.185,1.215
11:13:55.424,-0.205,1.12
11:13:55.428,-0.22,1.045
11:13:55.432,-0.24,0.935
11:13:55.436,-0.25,0.87
11:13:55.440,-0.285,0.825
11:13:55.444,-0.3,0.755
11:13:55.448,-0.34,0.69
11:13:55.452,-0.365,0.615
11:13:55.456,-0.39,0.525
11:13:55.460,-0.385,0.475
11:13:55.464,-0.385,0.43
11:13:55.468,-0.38,0.36
11:13:55.472,-0.37,0.365
11:13:55.476,-0.325,0.36
11:13:55.480,-0.315,0.375
11:13:55.484,-0.34,0.39
11:13:55.488,-0.34,0.38
11:13:55.492,-0.33,0.365
11:13:55.496,-0.33,0.355
11:13:55.500,-0.37,0.38
11:13:55.504,-0.345,0.37
11:13:55.508,-0.32,0.345
11:13:55.512,-0.305,0.365
11:13:55.516,-0.31,0.365
11:13:55.520,-0.325,0.36
11:13:55.524,-0.315,0.385
11:13:55.528,-0.32,0.415
11:13:55.532,-0.33,0.43
11:13:55.536,-0.33,0.425
11:13:55.540,-0.295,0.415
11:13:55.544,-0.245,0.395
11:13:55.548,-0.1,0.4
11:13:55.552,0.035,0.42
11:13:55.556,0.07,0.435
11:13:55.560,-0.035,0.48
11:13:55.564,-0.315,0.59
11:13:55.568,-0.82,0.605
11:13:55.572,-1.4,0.335
11:13:55.576,-1.89,-0.135
11:13:55.580,-2.175,-0.73
11:13:55.584,-2.265,-1.71
11:13:55.588,-2.255,-2.665
11:13:55.592,-2.135,-3.48
11:13:55.596,-2.06,-4.09
11:13:55.600,-2.005,-4.48
11:13:55.604,-1.915,-4.68
11:13:55.608,-1.85,-4.815
11:13:55.612,-1.86,-4.795
11:13:55.616,-1.865,-4.705
11:13:55.620,-1.795,-4.585
11:13:55.624,-1.705,-4.525
11:13:55.628,-1.725,-4.44
11:13:55.632,-1.68,-4.365
11:13:55.636,-1.57,-4.21
11:13:55.640,-1.41,-3.95
11:13:55.644,-1.23,-3.57
11:13:55.648,-1.105,-3.17
11:13:55.652,-1.0,-2.695
11:13:55.656,-0.905,-2.175
11:13:55.660,-0.71,-1.63
11:13:55.664,-0.545,-1.215
11:13:55.668,-0.36,-0.865
11:13:55.672,-0.205,-0.56
11:13:55.676,-0.115,-0.31
11:13:55.680,-0.055,-0.055
11:13:55.684,-0.005,0.215
11:13:55.688,0.005,0.47
11:13:55.692,0.015,0.66
11:13:55.696,0.025,0.82
11:13:55.700,0.035,0.96
11:13:55.704,0.035,1.005
11:13:55.708,0.06,1.035
11:13:55.712,0.075,1.03
11:13:55.716,0.095,1.075
11:13:55.720,0.09,1.105
11:13:55.724,0.08,1.11
11:13:55.728,0.09,1.11
11:13:55.732,0.1,1.185
11:13:55.736,0.105,1.185
11:13:55.740,0.095,1.21
11:13:55.744,0.1,1.215
11:13:55.748,0.12,1.225
11:13:55.752,0.15,1.22
11:13:55.756,0.145,1.225
11:13:55.760,0.175,1.24
11:13:55.764,0.175,1.275
11:13:55.768,0.2,1.255
11:13:55.772,0.215,1.29
11:13:55.776,0.205,1.34
11:13:55.780,0.2,1.33
11:13:55.784,0.195,1.32
11:13:55.788,0.225,1.31
11:13:55.792,0.215,1.31
11:13:55.796,0.235,1.3
11:13:55.800,0.25,1.33
11:13:55.804,0.25,1.33
11:13:55.808,0.26,1.35
11:13:55.812,0.235,1.375
11:13:55.816,0.235,1.39
11:13:55.820,0.215,1.415
11:13:55.824,0.205,1.42
11:13:55.828,0.2,1.44
11:13:55.832,0.215,1.455
11:13:55.836,0.195,1.445
11:13:55.840,0.185,1.505
11:13:55.844,0.165,1.495
11:13:55.848,0.17,1.49
11:13:55.852,0.15,1.505
11:13:55.856,0.14,1.5
11:13:55.860,0.14,1.485
11:13:55.864,0.09,1.445
11:13:55.868,0.065,1.395
11:13:55.872,0.03,1.36
11:13:55.876,-0.01,1.325
11:13:55.880,-0.04,1.265
11:13:55.884,-0.06,1.205
11:13:55.888,-0.075,1.16
11:13:55.892,-0.095,1.115
11:13:55.896,-0.13,1.035
11:13:55.900,-0.13,0.965
11:13:55.904,-0.145,0.93
11:13:55.908,-0.185,0.87
11:13:55.912,-0.18,0.825
11:13:55.916,-0.195,0.755
11:13:55.920,-0.195,0.695
11:13:55.924,-0.22,0.645
11:13:55.928,-0.185,0.645
11:13:55.932,-0.205,0.64
11:13:55.936,-0.225,0.655
11:13:55.940,-0.23,0.655
11:13:55.944,-0.225,0.655
11:13:55.948,-0.235,0.645
11:13:55.952,-0.22,0.62
11:13:55.956,-0.24,0.555
11:13:55.960,-0.235,0.56
11:13:55.964,-0.205,0.53
11:13:55.968,-0.19,0.55
11:13:55.972,-0.16,0.58
11:13:55.976,-0.15,0.56
11:13:55.980,-0.125,0.56
11:13:55.984,-0.155,0.57
11:13:55.988,-0.145,0.56
11:13:55.992,-0.16,0.545
11:13:55.996,-0.18,0.505
11:13:56.000,-0.21,0.48
11:13:56.004,-0.23,0.48
11:13:56.008,-0.25,0.455
11:13:56.012,-0.26,0.46
11:13:56.016,-0.235,0.4
11:13:56.020,-0.255,0.425
11:13:56.024,-0.285,0.415
11:13:56.028,-0.29,0.395
11:13:56.032,-0.28,0.395
11:13:56.036,-0.265,0.405
11:13:56.040,-0.275,0.39
11:13:56.044,-0.275,0.38
11:13:56.048,-0.3,0.39
11:13:56.052,-0.31,0.38
11:13:56.056,-0.31,0.38
11:13:56.060,-0.33,0.37
11:13:56.064,-0.34,0.37
11:13:56.068,-0.32,0.335
11:13:56.072,-0.33,0.325
11:13:56.076,-0.34,0.355
11:13:56.080,-0.355,0.355
11:13:56.084,-0.38,0.355
11:13:56.088,-0.385,0.355
11:13:56.092,-0.385,0.345
11:13:56.096,-0.41,0.335
11:13:56.100,-0.425,0.325
11:13:56.104,-0.425,0.335
11:13:56.108,-0.41,0.325
11:13:56.112,-0.43,0.325
11:13:56.116,-0.425,0.335
11:13:56.120,-0.43,0.345
11:13:56.124,-0.425,0.355
11:13:56.128,-0.435,0.32
11:13:56.132,-0.445,0.295
11:13:56.136,-0.43,0.27
11:13:56.140,-0.425,0.28
11:13:56.144,-0.42,0.25
11:13:56.148,-0.41,0.26
11:13:56.152,-0.385,0.29
11:13:56.156,-0.395,0.315
11:13:56.160,-0.395,0.305
11:13:56.164,-0.385,0.335
11:13:56.168,-0.38,0.315
11:13:56.172,-0.375,0.32
11:13:56.176,-0.375,0.3
11:13:56.180,-0.38,0.31
11:13:56.184,-0.35,0.31
11:13:56.188,-0.305,0.32
11:13:56.192,-0.3,0.295
11:13:56.196,-0.285,0.28
11:13:56.200,-0.29,0.275
11:13:56.204,-0.285,0.285
11:13:56.208,-0.29,0.285
11:13:56.212,-0.28,0.29
11:13:56.216,-0.305,0.285
11:13:56.220,-0.315,0.3
11:13:56.224,-0.295,0.295
11:13:56.228,-0.28,0.29
11:13:56.232,-0.295,0.29
11:13:56.236,-0.315,0.305
11:13:56.240,-0.295,0.32
11:13:56.244,-0.31,0.3
11:13:56.248,-0.32,0.285
11:13:56.252,-0.33,0.285
11:13:56.256,-0.36,0.26
11:13:56.260,-0.37,0.275
11:13:56.264,-0.39,0.285
11:13:56.268,-0.4,0.305
11:13:56.272,-0.38,0.32
11:13:56.276,-0.395,0.27
11:13:56.280,-0.385,0.28
11:13:56.284,-0.36,0.27
11:13:56.288,-0.355,0.28
11:13:56.292,-0.355,0.31
11:13:56.296,-0.375,0.32
11:13:56.300,-0.365,0.35
11:13:56.304,-0.365,0.335
11:13:56.308,-0.365,0.33
11:13:56.312,-0.375,0.315
11:13:56.316,-0.375,0.315
11:13:56.320,-0.385,0.315
11:13:56.324,-0.385,0.335
11:13:56.328,-0.405,0.335
11:13:56.332,-0.39,0.35
11:13:56.336,-0.4,0.33
11:13:56.340,-0.425,0.355
11:13:56.344,-0.42,0.375
11:13:56.348,-0.4,0.355
11:13:56.352,-0.375,0.325
11:13:56.356,-0.355,0.315
11:13:56.360,-0.36,0.32
11:13:56.364,-0.36,0.33
11:13:56.368,-0.36,0.355
11:13:56.372,-0.35,0.37
11:13:56.376,-0.37,0.375
11:13:56.380,-0.38,0.38
11:13:56.384,-0.39,0.395
11:13:56.388,-0.395,0.38
11:13:56.392,-0.395,0.325
11:13:56.396,-0.38,0.345
11:13:56.400,-0.355,0.32
11:13:56.404,-0.33,0.32
11:13:56.408,-0.3,0.335
11:13:56.412,-0.265,0.325
11:13:56.416,-0.25,0.28
11:13:56.420,-0.26,0.285
11:13:56.424,-0.255,0.315
11:13:56.428,-0.275,0.325
11:13:56.432,-0.29,0.33
11:13:56.436,-0.285,0.3
11:13:56.440,-0.29,0.275
11:13:56.444,-0.275,0.285
11:13:56.448,-0.265,0.295
11:13:56.452,-0.26,0.285
11:13:56.456,-0.295,0.275
11:13:56.460,-0.305,0.285
11:13:56.464,-0.335,0.31
11:13:56.468,-0.355,0.315
11:13:56.472,-0.38,0.305
11:13:56.476,-0.395,0.29
11:13:56.480,-0.41,0.3
11:13:56.484,-0.39,0.3
11:13:56.488,-0.355,0.3
11:13:56.492,-0.375,0.295
11:13:56.496,-0.37,0.27
11:13:56.500,-0.405,0.325
11:13:56.504,-0.405,0.375
11:13:56.508,-0.435,0.345
11:13:56.512,-0.45,0.33
11:13:56.516,-0.455,0.3
11:13:56.520,-0.435,0.305
11:13:56.524,-0.46,0.305
11:13:56.528,-0.46,0.33
11:13:56.532,-0.465,0.335
11:13:56.536,-0.45,0.32
11:13:56.540,-0.45,0.295
11:13:56.544,-0.46,0.29
11:13:56.548,-0.46,0.32
11:13:56.552,-0.46,0.315
11:13:56.556,-0.49,0.325
11:13:56.560,-0.5,0.305
11:13:56.564,-0.505,0.31
11:13:56.568,-0.495,0.29
11:13:56.572,-0.455,0.235
11:13:56.576,-0.42,0.225
11:13:56.580,-0.39,0.27
11:13:56.584,-0.385,0.32
11:13:56.588,-0.38,0.315
11:13:56.592,-0.39,0.325
11:13:56.596,-0.38,0.325
11:13:56.600,-0.375,0.3
11:13:56.604,-0.385,0.275
11:13:56.608,-0.4,0.255
11:13:56.612,-0.38,0.255
11:13:56.616,-0.365,0.225
11:13:56.620,-0.335,0.195
11:13:56.624,-0.305,0.165
11:13:56.628,-0.29,0.195
11:13:56.632,-0.265,0.21
11:13:56.636,-0.265,0.25
11:13:56.640,-0.265,0.28
11:13:56.644,-0.285,0.34
11:13:56.648,-0.285,0.365
11:13:56.652,-0.28,0.37
11:13:56.656,-0.28,0.34
11:13:56.660,-0.27,0.31
11:13:56.664,-0.225,0.295
11:13:56.668,-0.185,0.305
11:13:56.672,-0.095,0.3
11:13:56.676,0.015,0.295
11:13:56.680,0.08,0.355
11:13:56.684,0.02,0.445
11:13:56.688,-0.09,0.545
11:13:56.692,-0.325,0.605
11:13:56.696,-0.705,0.375
11:13:56.700,-1.105,-0.065
11:13:56.704,-1.45,-0.58
11:13:56.708,-1.675,-1.28
11:13:56.712,-1.75,-2.275
11:13:56.716,-1.655,-3.165
11:13:56.720,-1.48,-3.79
11:13:56.724,-1.45,-4.265
11:13:56.728,-1.515,-4.59
11:13:56.732,-1.53,-4.775
11:13:56.736,-1.495,-4.815
11:13:56.740,-1.47,-4.8
11:13:56.744,-1.52,-4.69
11:13:56.748,-1.565,-4.56
11:13:56.752,-1.565,-4.485
11:13:56.756,-1.59,-4.4
11:13:56.760,-1.635,-4.31
11:13:56.764,-1.6,-4.245
11:13:56.768,-1.49,-4.06
11:13:56.772,-1.36,-3.8
11:13:56.776,-1.25,-3.51
11:13:56.780,-1.16,-3.18
11:13:56.784,-1.065,-2.77
11:13:56.788,-0.98,-2.32
11:13:56.792,-0.84,-1.89
11:13:56.796,-0.64,-1.435
11:13:56.800,-0.465,-1.07
11:13:56.804,-0.335,-0.75
11:13:56.808,-0.215,-0.515
11:13:56.812,-0.165,-0.28
11:13:56.816,-0.115,-0.04
11:13:56.820,-0.075,0.195
11:13:56.824,-0.075,0.405
11:13:56.828,-0.05,0.585
11:13:56.832,-0.035,0.72
11:13:56.836,-0.015,0.83
11:13:56.840,0.02,0.93
11:13:56.844,0.045,0.97
11:13:56.848,0.075,0.96
11:13:56.852,0.105,1.02
11:13:56.856,0.145,1.05
11:13:56.860,0.17,1.095
11:13:56.864,0.22,1.115
11:13:56.868,0.285,1.14
11:13:56.872,0.32,1.15
11:13:56.876,0.325,1.175
11:13:56.880,0.325,1.215
11:13:56.884,0.32,1.29
11:13:56.888,0.295,1.355
11:13:56.892,0.215,1.335
11:13:56.896,0.185,1.35
11:13:56.900,0.195,1.37
11:13:56.904,0.18,1.415
11:13:56.908,0.18,1.4
11:13:56.912,0.195,1.4
11:13:56.916,0.205,1.4
11:13:56.920,0.215,1.42
11:13:56.924,0.2,1.42
11:13:56.928,0.245,1.44
11:13:56.932,0.25,1.45
11:13:56.936,0.245,1.49
11:13:56.940,0.235,1.525
11:13:56.944,0.235,1.56
11:13:56.948,0.255,1.535
11:13:56.952,0.27,1.545
11:13:56.956,0.27,1.585
11:13:56.960,0.285,1.59
11:13:56.964,0.28,1.58
11:13:56.968,0.295,1.6
11:13:56.972,0.325,1.59
11:13:56.976,0.345,1.59
11:13:56.980,0.365,1.625
11:13:56.984,0.39,1.64
11:13:56.988,0.405,1.635
11:13:56.992,0.39,1.665
11:13:56.996,0.39,1.65
11:13:57.000,0.395,1.65
11:13:57.004,0.39,1.705
11:13:57.008,0.385,1.68
11:13:57.012,0.37,1.67
11:13:57.016,0.335,1.675
11:13:57.020,0.33,1.68
11:13:57.024,0.31,1.64
11:13:57.028,0.285,1.63
11:13:57.032,0.235,1.58
11:13:57.036,0.2,1.58
11:13:57.040,0.165,1.555
11:13:57.044,0.13,1.52
11:13:57.048,0.095,1.455
11:13:57.052,0.075,1.4
11:13:57.056,0.04,1.335
11:13:57.060,0.025,1.275
11:13:57.064,-0.005,1.225
11:13:57.068,-0.025,1.175
11:13:57.072,-0.02,1.11
11:13:57.076,-0.035,1.065
11:13:57.080,-0.065,1.03
11:13:57.084,-0.08,0.96
11:13:57.088,-0.065,0.875
11:13:57.092,-0.055,0.845
11:13:57.096,-0.045,0.825
11:13:57.100,-0.045,0.785
11:13:57.104,-0.07,0.775
11:13:57.108,-0.11,0.79
11:13:57.112,-0.145,0.785
11:13:57.116,-0.21,0.745
11:13:57.120,-0.26,0.74
11:13:57.124,-0.295,0.7
11:13:57.128,-0.315,0.655
11:13:57.132,-0.325,0.67
11:13:57.136,-0.32,0.65
11:13:57.140,-0.33,0.61
11:13:57.144,-0.33,0.595
11:13:57.148,-0.34,0.59
11:13:57.152,-0.335,0.595
11:13:57.156,-0.33,0.58
11:13:57.160,-0.32,0.61
11:13:57.164,-0.33,0.605
11:13:57.168,-0.33,0.57
11:13:57.172,-0.325,0.59
11:13:57.176,-0.34,0.555
11:13:57.180,-0.325,0.52
11:13:57.184,-0.345,0.51
11:13:57.188,-0.335,0.485
11:13:57.192,-0.325,0.5
11:13:57.196,-0.325,0.485
11:13:57.200,-0.345,0.475
11:13:57.204,-0.36,0.48
11:13:57.208,-0.36,0.45
11:13:57.212,-0.375,0.47
11:13:57.216,-0.365,0.46
11:13:57.220,-0.36,0.425
11:13:57.224,-0.34,0.39
11:13:57.228,-0.295,0.385
11:13:57.232,-0.165,0.375
11:13:57.236,0.01,0.39
11:13:57.240,0.165,0.38
11:13:57.244,0.13,0.455
11:13:57.248,-0.035,0.53
11:13:57.252,-0.355,0.6
11:13:57.256,-0.83,0.505
11:13:57.260,-1.4,0.155
11:13:57.264,-1.82,-0.32
11:13:57.268,-2.075,-0.97
11:13:57.272,-2.18,-1.935
11:13:57.276,-2.12,-2.84
11:13:57.280,-2.0,-3.585
11:13:57.284,-1.905,-4.105
11:13:57.288,-1.845,-4.48
11:13:57.292,-1.77,-4.685
11:13:57.296,-1.72,-4.755
11:13:57.300,-1.765,-4.745
11:13:57.304,-1.85,-4.645
11:13:57.308,-1.835,-4.525
11:13:57.312,-1.84,-4.415
11:13:57.316,-1.855,-4.33
11:13:57.320,-1.885,-4.3
11:13:57.324,-1.81,-4.175
11:13:57.328,-1.685,-3.94
11:13:57.332,-1.53,-3.635
11:13:57.336,-1.39,-3.295
11:13:57.340,-1.275,-2.925
11:13:57.344,-1.145,-2.455
11:13:57.348,-0.96,-1.915
11:13:57.352,-0.74,-1.39
11:13:57.356,-0.535,-1.02
11:13:57.360,-0.35,-0.66
11:13:57.364,-0.26,-0.45
11:13:57.368,-0.19,-0.2
11:13:57.372,-0.14,0.04
11:13:57.376,-0.115,0.275
11:13:57.380,-0.095,0.465
11:13:57.384,-0.115,0.6
11:13:57.388,-0.1,0.725
11:13:57.392,-0.07,0.82
11:13:57.396,-0.055,0.86
11:13:57.400,-0.06,0.895
11:13:57.404,-0.05,0.915
11:13:57.408,-0.025,0.91
11:13:57.412,-0.01,0.935
11:13:57.416,0.03,0.995
11:13:57.420,0.045,1.04
11:13:57.424,0.08,1.035
11:13:57.428,0.09,1.045
11:13:57.432,0.095,1.06
11:13:57.436,0.125,1.08
11:13:57.440,0.115,1.1
11:13:57.444,0.09,1.115
11:13:57.448,0.095,1.11
11:13:57.452,0.12,1.11
11:13:57.456,0.105,1.11
11:13:57.460,0.13,1.1
11:13:57.464,0.125,1.13
11:13:57.468,0.135,1.15
11:13:57.472,0.135,1.16
11:13:57.476,0.1,1.19
11:13:57.480,0.11,1.215
11:13:57.484,0.09,1.2
11:13:57.488,0.09,1.185
11:13:57.492,0.095,1.215
11:13:57.496,0.09,1.205
11:13:57.500,0.1,1.225
11:13:57.504,0.1,1.24
11:13:57.508,0.13,1.24
11:13:57.512,0.15,1.31
11:13:57.516,0.15,1.315
11:13:57.520,0.195,1.355
11:13:57.524,0.215,1.41
11:13:57.528,0.175,1.44
11:13:57.532,0.135,1.48
11:13:57.536,0.115,1.51
11:13:57.540,0.075,1.535
11:13:57.544,0.08,1.515
11:13:57.548,0.085,1.52
11:13:57.552,0.06,1.53
11:13:57.556,0.03,1.475
11:13:57.560,0.02,1.475
11:13:57.564,-0.025,1.44
11:13:57.568,-0.065,1.425
11:13:57.572,-0.105,1.385
11:13:57.576,-0.135,1.32
11:13:57.580,-0.15,1.26
11:13:57.584,-0.19,1.175
11:13:57.588,-0.2,1.1
11:13:57.592,-0.195,1.015
11:13:57.596,-0.22,0.975
11:13:57.600,-0.24,0.905
11:13:57.604,-0.24,0.855
11:13:57.608,-0.24,0.77
11:13:57.612,-0.255,0.71
11:13:57.616,-0.27,0.67
11:13:57.620,-0.275,0.615
11:13:57.624,-0.29,0.545
11:13:57.628,-0.315,0.505
11:13:57.632,-0.31,0.485
11:13:57.636,-0.3,0.465
11:13:57.640,-0.32,0.445
11:13:57.644,-0.34,0.415
11:13:57.648,-0.365,0.405
11:13:57.652,-0.355,0.385
11:13:57.656,-0.355,0.37
11:13:57.660,-0.36,0.36
11:13:57.664,-0.37,0.34
11:13:57.668,-0.395,0.335
11:13:57.672,-0.42,0.32
11:13:57.676,-0.405,0.305
11:13:57.680,-0.385,0.325
11:13:57.684,-0.41,0.335
11:13:57.688,-0.42,0.32
11:13:57.692,-0.435,0.315
11:13:57.696,-0.45,0.32
11:13:57.700,-0.45,0.335
11:13:57.704,-0.435,0.32
11:13:57.708,-0.435,0.345
11:13:57.712,-0.44,0.34
11:13:57.716,-0.42,0.325
11:13:57.720,-0.43,0.355
11:13:57.724,-0.39,0.36
11:13:57.728,-0.39,0.35
11:13:57.732,-0.385,0.335
11:13:57.736,-0.36,0.375
11:13:57.740,-0.35,0.375
11:13:57.744,-0.3,0.41
11:13:57.748,-0.24,0.43
11:13:57.752,-0.195,0.4
11:13:57.756,-0.15,0.4
11:13:57.760,-0.14,0.36
11:13:57.764,-0.15,0.37
11:13:57.768,-0.15,0.4
11:13:57.772,-0.15,0.395
11:13:57.776,-0.15,0.41
11:13:57.780,-0.165,0.44
11:13:57.784,-0.175,0.41
11:13:57.788,-0.165,0.39
11:13:57.792,-0.15,0.38
11:13:57.796,-0.14,0.37
11:13:57.800,-0.185,0.355
11:13:57.804,-0.16,0.34
11:13:57.808,-0.17,0.315
11:13:57.812,-0.145,0.295
11:13:57.816,-0.145,0.295
11:13:57.820,-0.165,0.31
11:13:57.824,-0.165,0.31
11:13:57.828,-0.18,0.29
11:13:57.832,-0.19,0.29
11:13:57.836,-0.205,0.28
11:13:57.840,-0.21,0.265
11:13:57.844,-0.245,0.245
11:13:57.848,-0.29,0.24
11:13:57.852,-0.3,0.235
11:13:57.856,-0.285,0.225
11:13:57.860,-0.275,0.225
11:13:57.864,-0.21,0.23
11:13:57.868,-0.145,0.21
11:13:57.872,-0.06,0.22
11:13:57.876,-0.01,0.22
11:13:57.880,-0.07,0.27
11:13:57.884,-0.215,0.34
11:13:57.888,-0.425,0.42
11:13:57.892,-0.855,0.265
11:13:57.896,-1.275,-0.18
11:13:57.900,-1.645,-0.71
11:13:57.904,-1.97,-1.38
11:13:57.908,-2.17,-2.3
11:13:57.912,-2.19,-3.18
11:13:57.916,-2.095,-3.815
11:13:57.920,-2.04,-4.285
11:13:57.924,-2.02,-4.58
11:13:57.928,-1.995,-4.77
11:13:57.932,-1.905,-4.83
11:13:57.936,-1.835,-4.83
11:13:57.940,-1.835,-4.695
11:13:57.944,-1.785,-4.52
11:13:57.948,-1.735,-4.385
11:13:57.952,-1.675,-4.225
11:13:57.956,-1.63,-4.15
11:13:57.960,-1.505,-4.05
11:13:57.964,-1.32,-3.81
11:13:57.968,-1.1,-3.53
11:13:57.972,-0.905,-3.215
11:13:57.976,-0.735,-2.87
11:13:57.980,-0.64,-2.4
11:13:57.984,-0.555,-1.875
11:13:57.988,-0.435,-1.455
11:13:57.992,-0.3,-1.02
11:13:57.996,-0.185,-0.645
11:13:58.000,-0.05,-0.39
11:13:58.004,0.04,-0.145
11:13:58.008,0.055,0.03
11:13:58.012,0.09,0.205
11:13:58.016,0.14,0.375
11:13:58.020,0.13,0.565
11:13:58.024,0.105,0.72
11:13:58.028,0.115,0.845
11:13:58.032,0.135,0.94
11:13:58.036,0.12,0.97
11:13:58.040,0.145,0.99
11:13:58.044,0.125,1.025
11:13:58.048,0.145,1.035
11:13:58.052,0.135,1.035
11:13:58.056,0.115,1.04
11:13:58.060,0.115,1.07
11:13:58.064,0.135,1.07
11:13:58.068,0.14,1.115
11:13:58.072,0.165,1.125
11:13:58.076,0.155,1.155
11:13:58.080,0.135,1.15
11:13:58.084,0.155,1.17
11:13:58.088,0.155,1.205
11:13:58.092,0.16,1.19
11:13:58.096,0.195,1.225
11:13:58.100,0.195,1.24
11:13:58.104,0.21,1.22
11:13:58.108,0.22,1.23
11:13:58.112,0.24,1.245
11:13:58.116,0.285,1.3
11:13:58.120,0.29,1.335
11:13:58.124,0.29,1.36
11:13:58.128,0.3,1.4
11:13:58.132,0.29,1.42
11:13:58.136,0.31,1.44
11:13:58.140,0.36,1.48
11:13:58.144,0.37,1.49
11:13:58.148,0.415,1.475
11:13:58.152,0.425,1.485
11:13:58.156,0.44,1.51
11:13:58.160,0.41,1.555
11:13:58.164,0.425,1.59
11:13:58.168,0.465,1.64
11:13:58.172,0.45,1.65
11:13:58.176,0.43,1.68
11:13:58.180,0.405,1.66
11:13:58.184,0.395,1.685
11:13:58.188,0.375,1.665
11:13:58.192,0.315,1.66
11:13:58.196,0.255,1.61
11:13:58.200,0.235,1.58
11:13:58.204,0.21,1.56
11:13:58.208,0.175,1.485
11:13:58.212,0.145,1.45
11:13:58.216,0.105,1.41
11:13:58.220,0.075,1.325
11:13:58.224,0.03,1.265
11:13:58.228,-0.015,1.17
11:13:58.232,-0.025,1.115
11:13:58.236,-0.06,1.025
11:13:58.240,-0.07,0.95
11:13:58.244,-0.07,0.895
11:13:58.248,-0.095,0.87
11:13:58.252,-0.115,0.79
11:13:58.256,-0.125,0.725
11:13:58.260,-0.17,0.685
11:13:58.264,-0.21,0.65
11:13:58.268,-0.23,0.6
11:13:58.272,-0.235,0.545
11:13:58.276,-0.275,0.49
11:13:58.280,-0.26,0.44
11:13:58.284,-0.27,0.42
11:13:58.288,-0.28,0.39
11:13:58.292,-0.295,0.385
11:13:58.296,-0.295,0.355
11:13:58.300,-0.29,0.335
11:13:58.304,-0.29,0.32
11:13:58.308,-0.28,0.3
11:13:58.312,-0.27,0.26
11:13:58.316,-0.255,0.255
11:13:58.320,-0.275,0.245
11:13:58.324,-0.26,0.22
11:13:58.328,-0.23,0.25
11:13:58.332,-0.195,0.26
11:13:58.336,-0.225,0.245
11:13:58.340,-0.2,0.26
11:13:58.344,-0.18,0.315
11:13:58.348,-0.145,0.315
11:13:58.352,-0.09,0.355
11:13:58.356,0.055,0.33
11:13:58.360,0.22,0.335
11:13:58.364,0.215,0.355
11:13:58.368,0.03,0.395
11:13:58.372,-0.26,0.46
11:13:58.376,-0.77,0.4
11:13:58.380,-1.38,0.17
11:13:58.384,-1.88,-0.23
11:13:58.388,-2.31,-0.72
11:13:58.392,-2.55,-1.52
11:13:58.396,-2.625,-2.435
11:13:58.400,-2.555,-3.245
11:13:58.404,-2.415,-3.81
11:13:58.408,-2.245,-4.28
11:13:58.412,-2.09,-4.58
11:13:58.416,-1.985,-4.74
11:13:58.420,-1.88,-4.715
11:13:58.424,-1.825,-4.56
11:13:58.428,-1.71,-4.39
11:13:58.432,-1.535,-4.225
11:13:58.436,-1.45,-4.13
11:13:58.440,-1.395,-4.06
11:13:58.444,-1.235,-3.935
11:13:58.448,-1.045,-3.67
11:13:58.452,-0.855,-3.35
11:13:58.456,-0.77,-2.93
11:13:58.460,-0.72,-2.53
11:13:58.464,-0.665,-2.015
11:13:58.468,-0.51,-1.51
11:13:58.472,-0.39,-1.13
11:13:58.476,-0.26,-0.765
11:13:58.480,-0.16,-0.52
11:13:58.484,-0.11,-0.3
11:13:58.488,-0.05,-0.1
11:13:58.492,0.0,0.07
11:13:58.496,0.03,0.24
11:13:58.500,0.035,0.45
11:13:58.504,0.05,0.595
11:13:58.508,0.07,0.705
11:13:58.512,0.075,0.755
11:13:58.516,0.07,0.795
11:13:58.520,0.07,0.81
11:13:58.524,0.115,0.855
11:13:58.528,0.13,0.9
11:13:58.532,0.16,0.925
11:13:58.536,0.195,0.925
11:13:58.540,0.225,0.95
11:13:58.544,0.255,0.97
11:13:58.548,0.25,0.98
11:13:58.552,0.255,1.015
11:13:58.556,0.275,1.045
11:13:58.560,0.28,1.045
11:13:58.564,0.275,1.08
11:13:58.568,0.32,1.13
11:13:58.572,0.33,1.125
11:13:58.576,0.345,1.145
11:13:58.580,0.35,1.14
11:13:58.584,0.335,1.19
11:13:58.588,0.36,1.21
11:13:58.592,0.325,1.245
11:13:58.596,0.325,1.31
11:13:58.600,0.315,1.27
11:13:58.604,0.29,1.27
11:13:58.608,0.265,1.295
11:13:58.612,0.25,1.34
11:13:58.616,0.235,1.36
11:13:58.620,0.255,1.33
11:13:58.624,0.265,1.3
11:13:58.628,0.255,1.32
11:13:58.632,0.22,1.37
11:13:58.636,0.22,1.4
11:13:58.640,0.2,1.4
11:13:58.644,0.2,1.42
11:13:58.648,0.17,1.405
11:13:58.652,0.155,1.415
11:13:58.656,0.11,1.395
11:13:58.660,0.07,1.36
11:13:58.664,0.035,1.35
11:13:58.668,0.035,1.335
11:13:58.672,-0.02,1.31
11:13:58.676,-0.04,1.26
11:13:58.680,-0.08,1.24
11:13:58.684,-0.11,1.205
11:13:58.688,-0.145,1.12
11:13:58.692,-0.16,1.075
11:13:58.696,-0.17,0.955
11:13:58.700,-0.18,0.91
11:13:58.704,-0.19,0.845
11:13:58.708,-0.195,0.785
11:13:58.712,-0.225,0.745
11:13:58.716,-0.235,0.725
11:13:58.720,-0.23,0.685
11:13:58.724,-0.23,0.685
11:13:58.728,-0.22,0.635
11:13:58.732,-0.22,0.625
11:13:58.736,-0.245,0.58
11:13:58.740,-0.21,0.54
11:13:58.744,-0.225,0.54
11:13:58.748,-0.21,0.5
11:13:58.752,-0.2,0.49
11:13:58.756,-0.195,0.47
11:13:58.760,-0.16,0.51
11:13:58.764,-0.14,0.49
11:13:58.768,-0.13,0.47
11:13:58.772,-0.14,0.515
11:13:58.776,-0.135,0.515
11:13:58.780,-0.085,0.51
11:13:58.784,-0.1,0.505
11:13:58.788,-0.09,0.505
11:13:58.792,-0.07,0.485
11:13:58.796,-0.05,0.495
11:13:58.800,-0.055,0.5
11:13:58.804,-0.065,0.545
11:13:58.808,-0.07,0.53
11:13:58.812,-0.09,0.51
11:13:58.816,-0.125,0.49
11:13:58.820,-0.14,0.485
11:13:58.824,-0.19,0.48
11:13:58.828,-0.205,0.445
11:13:58.832,-0.205,0.375
11:13:58.836,-0.25,0.29
11:13:58.840,-0.29,0.28
11:13:58.844,-0.295,0.25
11:13:58.848,-0.325,0.24
11:13:58.852,-0.345,0.21
11:13:58.856,-0.37,0.24
11:13:58.860,-0.41,0.23
11:13:58.864,-0.44,0.215
11:13:58.868,-0.44,0.145
11:13:58.872,-0.435,0.16
11:13:58.876,-0.44,0.125
11:13:58.880,-0.42,0.13
11:13:58.884,-0.435,0.12
11:13:58.888,-0.445,0.155
11:13:58.892,-0.45,0.155
11:13:58.896,-0.475,0.125
11:13:58.900,-0.475,0.085
11:13:58.904,-0.475,0.125
11:13:58.908,-0.475,0.195
11:13:58.912,-0.47,0.215
11:13:58.916,-0.465,0.195
11:13:58.920,-0.43,0.185
11:13:58.924,-0.42,0.23
11:13:58.928,-0.4,0.19
11:13:58.932,-0.39,0.19
11:13:58.936,-0.365,0.2
11:13:58.940,-0.355,0.22
11:13:58.944,-0.33,0.24
11:13:58.948,-0.305,0.235
11:13:58.952,-0.305,0.23
11:13:58.956,-0.29,0.255
11:13:58.960,-0.3,0.26
11:13:58.964,-0.28,0.27
11:13:58.968,-0.29,0.3
11:13:58.972,-0.26,0.315
11:13:58.976,-0.255,0.31
11:13:58.980,-0.25,0.31
11:13:58.984,-0.26,0.325
