Time,ECG1,ECG2
11:40:13.708,-0.26,1.335
11:40:13.712,-0.27,1.31
11:40:13.716,-0.28,1.355
11:40:13.720,-0.32,1.295
11:40:13.724,-0.32,1.31
11:40:13.728,-0.33,1.29
11:40:13.732,-0.325,1.265
11:40:13.736,-0.32,1.24
11:40:13.740,-0.355,1.235
11:40:13.744,-0.355,1.19
11:40:13.748,-0.375,1.15
11:40:13.752,-0.385,1.145
11:40:13.756,-0.39,1.1
11:40:13.760,-0.415,1.045
11:40:13.764,-0.405,1.0
11:40:13.768,-0.405,0.945
11:40:13.772,-0.415,0.895
11:40:13.776,-0.45,0.84
11:40:13.780,-0.455,0.765
11:40:13.784,-0.43,0.72
11:40:13.788,-0.4,0.67
11:40:13.792,-0.405,0.61
11:40:13.796,-0.4,0.575
11:40:13.800,-0.38,0.54
11:40:13.804,-0.385,0.515
11:40:13.808,-0.395,0.485
11:40:13.812,-0.405,0.445
11:40:13.816,-0.405,0.39
11:40:13.820,-0.39,0.36
11:40:13.824,-0.365,0.35
11:40:13.828,-0.375,0.335
11:40:13.832,-0.335,0.31
11:40:13.836,-0.305,0.3
11:40:13.840,-0.29,0.3
11:40:13.844,-0.3,0.295
11:40:13.848,-0.28,0.305
11:40:13.852,-0.255,0.325
11:40:13.856,-0.225,0.335
11:40:13.860,-0.19,0.355
11:40:13.864,-0.13,0.37
11:40:13.868,-0.03,0.39
11:40:13.872,0.045,0.405
11:40:13.876,0.07,0.455
11:40:13.880,0.085,0.46
11:40:13.884,0.08,0.515
11:40:13.888,0.055,0.585
11:40:13.892,0.02,0.59
11:40:13.896,-0.03,0.58
11:40:13.900,-0.075,0.555
11:40:13.904,-0.1,0.5
11:40:13.908,-0.075,0.47
11:40:13.912,-0.105,0.425
11:40:13.916,-0.1,0.395
11:40:13.920,-0.09,0.365
11:40:13.924,-0.03,0.36
11:40:13.928,0.08,0.345
11:40:13.932,0.255,0.34
11:40:13.936,0.425,0.325
11:40:13.940,0.525,0.29
11:40:13.944,0.52,0.31
11:40:13.948,0.385,0.33
11:40:13.952,0.195,0.355
11:40:13.956,-0.09,0.145
11:40:13.960,-0.385,-0.265
11:40:13.964,-0.525,-0.865
11:40:13.968,-0.56,-1.635
11:40:13.972,-0.49,-2.525
11:40:13.976,-0.46,-3.28
11:40:13.980,-0.56,-3.91
11:40:13.984,-0.755,-4.475
11:40:13.988,-0.85,-4.72
11:40:13.992,-0.74,-4.85
11:40:13.996,-0.565,-4.845
11:40:14.000,-0.4,-4.755
11:40:14.004,-0.25,-4.575
11:40:14.008,-0.135,-4.405
11:40:14.012,-0.17,-4.28
11:40:14.016,-0.2,-4.15
11:40:14.020,-0.175,-3.975
11:40:14.024,-0.155,-3.665
11:40:14.028,-0.12,-3.26
11:40:14.032,-0.13,-2.78
11:40:14.036,-0.18,-2.3
11:40:14.040,-0.19,-1.81
11:40:14.044,-0.095,-1.285
11:40:14.048,-0.07,-0.795
11:40:14.052,-0.065,-0.41
11:40:14.056,-0.065,-0.11
11:40:14.060,-0.08,0.085
11:40:14.064,-0.085,0.285
11:40:14.068,-0.095,0.415
11:40:14.072,-0.07,0.52
11:40:14.076,-0.01,0.605
11:40:14.080,0.035,0.71
11:40:14.084,0.09,0.765
11:40:14.088,0.155,0.815
11:40:14.092,0.195,0.85
11:40:14.096,0.19,0.925
11:40:14.100,0.145,0.935
11:40:14.104,0.115,0.945
11:40:14.108,0.06,0.96
11:40:14.112,0.045,0.915
11:40:14.116,0.035,0.9
11:40:14.120,0.02,0.88
11:40:14.124,-0.005,0.855
11:40:14.128,-0.025,0.835
11:40:14.132,-0.01,0.84
11:40:14.136,-0.04,0.825
11:40:14.140,-0.035,0.84
11:40:14.144,-0.04,0.825
11:40:14.148,-0.065,0.84
11:40:14.152,-0.07,0.85
11:40:14.156,-0.095,0.815
11:40:14.160,-0.1,0.845
11:40:14.164,-0.1,0.81
11:40:14.168,-0.095,0.805
11:40:14.172,-0.085,0.82
11:40:14.176,-0.105,0.84
11:40:14.180,-0.11,0.865
11:40:14.184,-0.095,0.86
11:40:14.188,-0.1,0.915
11:40:14.192,-0.105,0.935
11:40:14.196,-0.125,0.95
11:40:14.200,-0.14,0.955
11:40:14.204,-0.145,0.99
11:40:14.208,-0.135,1.0
11:40:14.212,-0.115,0.985
11:40:14.216,-0.1,1.035
11:40:14.220,-0.115,1.05
11:40:14.224,-0.115,1.075
11:40:14.228,-0.13,1.115
11:40:14.232,-0.135,1.135
11:40:14.236,-0.145,1.145
11:40:14.240,-0.135,1.175
11:40:14.244,-0.145,1.175
11:40:14.248,-0.145,1.19
11:40:14.252,-0.125,1.215
11:40:14.256,-0.12,1.255
11:40:14.260,-0.135,1.26
11:40:14.264,-0.125,1.275
11:40:14.268,-0.115,1.245
11:40:14.272,-0.095,1.255
11:40:14.276,-0.08,1.225
11:40:14.280,-0.055,1.24
11:40:14.284,-0.025,1.21
11:40:14.288,-0.01,1.18
11:40:14.292,-0.01,1.15
11:40:14.296,-0.01,1.105
11:40:14.300,-0.005,1.04
11:40:14.304,-0.05,0.975
11:40:14.308,-0.06,0.925
11:40:14.312,-0.065,0.88
11:40:14.316,-0.1,0.795
11:40:14.320,-0.145,0.71
11:40:14.324,-0.145,0.65
11:40:14.328,-0.12,0.605
11:40:14.332,-0.135,0.535
11:40:14.336,-0.13,0.475
11:40:14.340,-0.16,0.415
11:40:14.344,-0.155,0.375
11:40:14.348,-0.17,0.36
11:40:14.352,-0.195,0.315
11:40:14.356,-0.19,0.33
11:40:14.360,-0.22,0.28
11:40:14.364,-0.225,0.255
11:40:14.368,-0.205,0.26
11:40:14.372,-0.195,0.24
11:40:14.376,-0.19,0.205
11:40:14.380,-0.19,0.21
11:40:14.384,-0.18,0.21
11:40:14.388,-0.2,0.195
11:40:14.392,-0.185,0.21
11:40:14.396,-0.17,0.195
11:40:14.400,-0.175,0.215
11:40:14.404,-0.175,0.225
11:40:14.408,-0.195,0.24
11:40:14.412,-0.19,0.21
11:40:14.416,-0.185,0.23
11:40:14.420,-0.165,0.205
11:40:14.424,-0.14,0.235
11:40:14.428,-0.115,0.245
11:40:14.432,-0.11,0.23
11:40:14.436,-0.12,0.245
11:40:14.440,-0.1,0.235
11:40:14.444,-0.105,0.23
11:40:14.448,-0.085,0.25
11:40:14.452,-0.055,0.245
11:40:14.456,-0.01,0.25
11:40:14.460,0.035,0.26
11:40:14.464,0.09,0.265
11:40:14.468,0.12,0.305
11:40:14.472,0.14,0.32
11:40:14.476,0.16,0.335
11:40:14.480,0.17,0.355
11:40:14.484,0.195,0.37
11:40:14.488,0.185,0.37
11:40:14.492,0.19,0.37
11:40:14.496,0.195,0.33
11:40:14.500,0.13,0.33
11:40:14.504,0.105,0.335
11:40:14.508,0.095,0.34
11:40:14.512,0.085,0.3
11:40:14.516,0.055,0.29
11:40:14.520,0.02,0.285
11:40:14.524,0.025,0.275
11:40:14.528,0.035,0.27
11:40:14.532,0.04,0.25
11:40:14.536,0.115,0.22
11:40:14.540,0.25,0.22
11:40:14.544,0.285,0.25
11:40:14.548,0.27,0.28
11:40:14.552,0.18,0.355
11:40:14.556,0.035,0.38
11:40:14.560,-0.16,0.23
11:40:14.564,-0.375,-0.165
11:40:14.568,-0.54,-0.675
11:40:14.572,-0.61,-1.36
11:40:14.576,-0.55,-2.205
11:40:14.580,-0.475,-3.08
11:40:14.584,-0.455,-3.735
11:40:14.588,-0.575,-4.21
11:40:14.592,-0.705,-4.645
11:40:14.596,-0.765,-4.83
11:40:14.600,-0.73,-4.9
11:40:14.604,-0.64,-4.825
11:40:14.608,-0.555,-4.66
11:40:14.612,-0.47,-4.52
11:40:14.616,-0.415,-4.39
11:40:14.620,-0.37,-4.23
11:40:14.624,-0.315,-4.065
11:40:14.628,-0.25,-3.93
11:40:14.632,-0.215,-3.7
11:40:14.636,-0.215,-3.365
11:40:14.640,-0.25,-2.97
11:40:14.644,-0.29,-2.55
11:40:14.648,-0.335,-2.085
11:40:14.652,-0.305,-1.62
11:40:14.656,-0.255,-1.19
11:40:14.660,-0.165,-0.83
11:40:14.664,-0.08,-0.535
11:40:14.668,-0.01,-0.295
11:40:14.672,0.04,-0.075
11:40:14.676,0.095,0.085
11:40:14.680,0.1,0.285
11:40:14.684,0.115,0.455
11:40:14.688,0.125,0.635
11:40:14.692,0.17,0.755
11:40:14.696,0.195,0.875
11:40:14.700,0.26,0.925
11:40:14.704,0.33,0.955
11:40:14.708,0.33,1.0
11:40:14.712,0.355,1.06
11:40:14.716,0.335,1.095
11:40:14.720,0.245,1.12
11:40:14.724,0.185,1.14
11:40:14.728,0.18,1.135
11:40:14.732,0.16,1.12
11:40:14.736,0.15,1.095
11:40:14.740,0.135,1.06
11:40:14.744,0.13,1.065
11:40:14.748,0.135,1.055
11:40:14.752,0.12,1.035
11:40:14.756,0.1,1.045
11:40:14.760,0.07,1.06
11:40:14.764,0.055,1.065
11:40:14.768,0.06,1.045
11:40:14.772,0.055,1.08
11:40:14.776,0.07,1.08
11:40:14.780,0.06,1.1
11:40:14.784,0.075,1.09
11:40:14.788,0.06,1.12
11:40:14.792,0.055,1.125
11:40:14.796,0.07,1.135
11:40:14.800,0.085,1.16
11:40:14.804,0.09,1.175
11:40:14.808,0.075,1.215
11:40:14.812,0.075,1.24
11:40:14.816,0.095,1.235
11:40:14.820,0.09,1.285
11:40:14.824,0.1,1.285
11:40:14.828,0.09,1.305
11:40:14.832,0.09,1.305
11:40:14.836,0.08,1.35
11:40:14.840,0.09,1.355
11:40:14.844,0.11,1.385
11:40:14.848,0.15,1.41
11:40:14.852,0.13,1.435
11:40:14.856,0.12,1.44
11:40:14.860,0.105,1.465
11:40:14.864,0.105,1.46
11:40:14.868,0.095,1.49
11:40:14.872,0.115,1.47
11:40:14.876,0.095,1.465
11:40:14.880,0.095,1.44
11:40:14.884,0.065,1.44
11:40:14.888,0.055,1.395
11:40:14.892,0.03,1.375
11:40:14.896,0.05,1.335
11:40:14.900,0.02,1.295
11:40:14.904,0.0,1.27
11:40:14.908,0.02,1.205
11:40:14.912,0.08,1.15
11:40:14.916,0.12,1.11
11:40:14.920,0.175,1.075
11:40:14.924,0.2,1.045
11:40:14.928,0.175,0.995
11:40:14.932,0.11,0.985
11:40:14.936,0.065,1.01
11:40:14.940,-0.005,0.99
11:40:14.944,-0.055,0.935
11:40:14.948,-0.075,0.84
11:40:14.952,-0.1,0.76
11:40:14.956,-0.1,0.665
11:40:14.960,-0.055,0.565
11:40:14.964,-0.07,0.535
11:40:14.968,-0.09,0.535
11:40:14.972,-0.125,0.53
11:40:14.976,-0.13,0.465
11:40:14.980,-0.145,0.435
11:40:14.984,-0.18,0.4
11:40:14.988,-0.18,0.375
11:40:14.992,-0.19,0.365
11:40:14.996,-0.21,0.345
11:40:15.000,-0.22,0.34
11:40:15.004,-0.21,0.335
11:40:15.008,-0.2,0.32
11:40:15.012,-0.2,0.33
11:40:15.016,-0.2,0.315
11:40:15.020,-0.21,0.315
11:40:15.024,-0.22,0.335
11:40:15.028,-0.215,0.315
11:40:15.032,-0.195,0.3
11:40:15.036,-0.21,0.335
11:40:15.040,-0.19,0.325
11:40:15.044,-0.22,0.305
11:40:15.048,-0.195,0.29
11:40:15.052,-0.195,0.315
11:40:15.056,-0.175,0.335
11:40:15.060,-0.19,0.345
11:40:15.064,-0.2,0.35
11:40:15.068,-0.205,0.35
11:40:15.072,-0.19,0.36
11:40:15.076,-0.21,0.34
11:40:15.080,-0.19,0.335
11:40:15.084,-0.135,0.33
11:40:15.088,-0.005,0.31
11:40:15.092,0.135,0.32
11:40:15.096,0.22,0.335
11:40:15.100,0.22,0.37
11:40:15.104,0.145,0.43
11:40:15.108,-0.02,0.5
11:40:15.112,-0.275,0.375
11:40:15.116,-0.52,0.055
11:40:15.120,-0.745,-0.44
11:40:15.124,-0.86,-1.045
11:40:15.128,-0.835,-1.93
11:40:15.132,-0.715,-2.85
11:40:15.136,-0.73,-3.69
11:40:15.140,-0.835,-4.245
11:40:15.144,-0.985,-4.615
11:40:15.148,-1.01,-4.77
11:40:15.152,-0.955,-4.85
11:40:15.156,-0.9,-4.805
11:40:15.160,-0.83,-4.68
11:40:15.164,-0.69,-4.555
11:40:15.168,-0.64,-4.445
11:40:15.172,-0.655,-4.365
11:40:15.176,-0.645,-4.285
11:40:15.180,-0.65,-4.145
11:40:15.184,-0.64,-3.905
11:40:15.188,-0.655,-3.6
11:40:15.192,-0.69,-3.24
11:40:15.196,-0.7,-2.83
11:40:15.200,-0.67,-2.305
11:40:15.204,-0.58,-1.795
11:40:15.208,-0.47,-1.36
11:40:15.212,-0.375,-0.99
11:40:15.216,-0.25,-0.64
11:40:15.220,-0.155,-0.365
11:40:15.224,-0.1,-0.12
11:40:15.228,-0.1,0.08
11:40:15.232,-0.095,0.315
11:40:15.236,-0.1,0.47
11:40:15.240,-0.09,0.63
11:40:15.244,-0.065,0.735
11:40:15.248,-0.07,0.855
11:40:15.252,-0.045,0.88
11:40:15.256,-0.045,0.905
11:40:15.260,-0.035,0.945
11:40:15.264,-0.015,0.955
11:40:15.268,0.01,0.99
11:40:15.272,0.0,1.005
11:40:15.276,0.015,1.035
11:40:15.280,0.02,1.035
11:40:15.284,0.0,1.06
11:40:15.288,0.03,1.065
11:40:15.292,0.04,1.065
11:40:15.296,0.055,1.06
11:40:15.300,0.08,1.075
11:40:15.304,0.09,1.1
11:40:15.308,0.085,1.13
11:40:15.312,0.11,1.13
11:40:15.316,0.09,1.15
11:40:15.320,0.105,1.175
11:40:15.324,0.135,1.175
11:40:15.328,0.115,1.22
11:40:15.332,0.11,1.21
11:40:15.336,0.13,1.215
11:40:15.340,0.12,1.23
11:40:15.344,0.13,1.275
11:40:15.348,0.135,1.285
11:40:15.352,0.135,1.3
11:40:15.356,0.115,1.325
11:40:15.360,0.125,1.345
11:40:15.364,0.115,1.37
11:40:15.368,0.115,1.385
11:40:15.372,0.12,1.41
11:40:15.376,0.135,1.42
11:40:15.380,0.145,1.45
11:40:15.384,0.13,1.445
11:40:15.388,0.14,1.51
11:40:15.392,0.12,1.53
11:40:15.396,0.1,1.54
11:40:15.400,0.085,1.545
11:40:15.404,0.08,1.54
11:40:15.408,0.075,1.57
11:40:15.412,0.06,1.56
11:40:15.416,0.05,1.545
11:40:15.420,0.045,1.55
11:40:15.424,0.04,1.53
11:40:15.428,0.005,1.49
11:40:15.432,-0.03,1.465
11:40:15.436,-0.05,1.435
11:40:15.440,-0.09,1.425
11:40:15.444,-0.105,1.345
11:40:15.448,-0.115,1.285
11:40:15.452,-0.12,1.23
11:40:15.456,-0.135,1.17
11:40:15.460,-0.145,1.1
11:40:15.464,-0.14,1.02
11:40:15.468,-0.14,0.975
11:40:15.472,-0.14,0.895
11:40:15.476,-0.15,0.855
11:40:15.480,-0.17,0.81
11:40:15.484,-0.2,0.745
11:40:15.488,-0.19,0.69
11:40:15.492,-0.17,0.64
11:40:15.496,-0.17,0.6
11:40:15.500,-0.16,0.55
11:40:15.504,-0.165,0.51
11:40:15.508,-0.16,0.49
11:40:15.512,-0.175,0.475
11:40:15.516,-0.175,0.455
11:40:15.520,-0.165,0.44
11:40:15.524,-0.175,0.45
11:40:15.528,-0.18,0.415
11:40:15.532,-0.17,0.415
11:40:15.536,-0.17,0.4
11:40:15.540,-0.18,0.38
11:40:15.544,-0.165,0.38
11:40:15.548,-0.15,0.385
11:40:15.552,-0.135,0.37
11:40:15.556,-0.15,0.4
11:40:15.560,-0.15,0.385
11:40:15.564,-0.165,0.38
11:40:15.568,-0.16,0.365
11:40:15.572,-0.15,0.385
11:40:15.576,-0.16,0.38
11:40:15.580,-0.16,0.37
11:40:15.584,-0.16,0.39
11:40:15.588,-0.165,0.39
11:40:15.592,-0.14,0.355
11:40:15.596,-0.14,0.36
11:40:15.600,-0.145,0.36
11:40:15.604,-0.14,0.36
11:40:15.608,-0.16,0.37
11:40:15.612,-0.16,0.36
11:40:15.616,-0.145,0.355
11:40:15.620,-0.15,0.365
11:40:15.624,-0.15,0.37
11:40:15.628,-0.175,0.355
11:40:15.632,-0.16,0.335
11:40:15.636,-0.17,0.32
11:40:15.640,-0.15,0.33
11:40:15.644,-0.165,0.33
11:40:15.648,-0.16,0.355
11:40:15.652,-0.175,0.335
11:40:15.656,-0.16,0.315
11:40:15.660,-0.185,0.33
11:40:15.664,-0.18,0.315
11:40:15.668,-0.18,0.3
11:40:15.672,-0.165,0.29
11:40:15.676,-0.16,0.3
11:40:15.680,-0.185,0.3
11:40:15.684,-0.18,0.29
11:40:15.688,-0.2,0.29
11:40:15.692,-0.195,0.325
11:40:15.696,-0.215,0.3
11:40:15.700,-0.225,0.28
11:40:15.704,-0.225,0.255
11:40:15.708,-0.205,0.28
11:40:15.712,-0.21,0.265
11:40:15.716,-0.22,0.265
11:40:15.720,-0.215,0.265
11:40:15.724,-0.22,0.255
11:40:15.728,-0.205,0.27
11:40:15.732,-0.23,0.27
11:40:15.736,-0.225,0.28
11:40:15.740,-0.245,0.28
11:40:15.744,-0.235,0.235
11:40:15.748,-0.245,0.24
11:40:15.752,-0.245,0.22
11:40:15.756,-0.24,0.24
11:40:15.760,-0.23,0.26
11:40:15.764,-0.245,0.26
11:40:15.768,-0.25,0.21
11:40:15.772,-0.25,0.24
11:40:15.776,-0.265,0.255
11:40:15.780,-0.235,0.25
11:40:15.784,-0.26,0.25
11:40:15.788,-0.28,0.25
11:40:15.792,-0.28,0.25
11:40:15.796,-0.27,0.265
11:40:15.800,-0.255,0.255
11:40:15.804,-0.27,0.24
11:40:15.808,-0.265,0.25
11:40:15.812,-0.285,0.255
11:40:15.816,-0.255,0.28
11:40:15.820,-0.275,0.285
11:40:15.824,-0.27,0.28
11:40:15.828,-0.28,0.275
11:40:15.832,-0.29,0.27
11:40:15.836,-0.28,0.255
11:40:15.840,-0.275,0.255
11:40:15.844,-0.275,0.265
11:40:15.848,-0.26,0.265
11:40:15.852,-0.26,0.27
11:40:15.856,-0.29,0.265
11:40:15.860,-0.285,0.275
11:40:15.864,-0.28,0.26
11:40:15.868,-0.28,0.27
11:40:15.872,-0.3,0.26
11:40:15.876,-0.31,0.255
11:40:15.880,-0.305,0.265
11:40:15.884,-0.3,0.25
11:40:15.888,-0.285,0.25
11:40:15.892,-0.28,0.26
11:40:15.896,-0.295,0.255
11:40:15.900,-0.31,0.26
11:40:15.904,-0.32,0.25
11:40:15.908,-0.33,0.245
11:40:15.912,-0.295,0.225
11:40:15.916,-0.31,0.25
11:40:15.920,-0.32,0.24
11:40:15.924,-0.31,0.245
11:40:15.928,-0.29,0.235
11:40:15.932,-0.3,0.24
11:40:15.936,-0.29,0.245
11:40:15.940,-0.285,0.25
11:40:15.944,-0.32,0.24
11:40:15.948,-0.3,0.26
11:40:15.952,-0.28,0.26
11:40:15.956,-0.31,0.265
11:40:15.960,-0.34,0.23
11:40:15.964,-0.32,0.25
11:40:15.968,-0.31,0.24
11:40:15.972,-0.28,0.235
11:40:15.976,-0.29,0.235
11:40:15.980,-0.26,0.235
11:40:15.984,-0.22,0.24
11:40:15.988,-0.21,0.265
11:40:15.992,-0.21,0.265
11:40:15.996,-0.155,0.28
11:40:16.000,-0.13,0.32
11:40:16.004,-0.095,0.33
11:40:16.008,-0.075,0.37
11:40:16.012,-0.1,0.39
11:40:16.016,-0.105,0.405
11:40:16.020,-0.115,0.405
11:40:16.024,-0.14,0.41
11:40:16.028,-0.175,0.38
11:40:16.032,-0.195,0.365
11:40:16.036,-0.185,0.325
11:40:16.040,-0.155,0.325
11:40:16.044,-0.135,0.28
11:40:16.048,-0.13,0.28
11:40:16.052,-0.095,0.235
11:40:16.056,-0.065,0.22
11:40:16.060,-0.055,0.24
11:40:16.064,-0.085,0.25
11:40:16.068,-0.135,0.275
11:40:16.072,-0.145,0.3
11:40:16.076,-0.215,0.335
11:40:16.080,-0.28,0.325
11:40:16.084,-0.32,0.31
11:40:16.088,-0.36,0.31
11:40:16.092,-0.375,0.275
11:40:16.096,-0.34,0.245
11:40:16.100,-0.305,0.235
11:40:16.104,-0.315,0.205
11:40:16.108,-0.32,0.215
11:40:16.112,-0.31,0.205
11:40:16.116,-0.335,0.205
11:40:16.120,-0.34,0.22
11:40:16.124,-0.345,0.205
11:40:16.128,-0.355,0.23
11:40:16.132,-0.36,0.2
11:40:16.136,-0.34,0.175
11:40:16.140,-0.335,0.185
11:40:16.144,-0.325,0.19
11:40:16.148,-0.32,0.2
11:40:16.152,-0.32,0.17
11:40:16.156,-0.32,0.195
11:40:16.160,-0.34,0.2
11:40:16.164,-0.355,0.21
11:40:16.168,-0.345,0.185
11:40:16.172,-0.345,0.205
11:40:16.176,-0.345,0.195
11:40:16.180,-0.335,0.185
11:40:16.184,-0.29,0.18
11:40:16.188,-0.285,0.165
11:40:16.192,-0.195,0.16
11:40:16.196,-0.08,0.19
11:40:16.200,-0.01,0.2
11:40:16.204,-0.02,0.245
11:40:16.208,-0.005,0.325
11:40:16.212,-0.025,0.41
11:40:16.216,-0.125,0.315
11:40:16.220,-0.2,-0.14
11:40:16.224,-0.29,-0.72
11:40:16.228,-0.34,-1.355
11:40:16.232,-0.32,-2.17
11:40:16.236,-0.255,-3.035
11:40:16.240,-0.185,-3.75
11:40:16.244,-0.24,-4.22
11:40:16.248,-0.4,-4.535
11:40:16.252,-0.53,-4.715
11:40:16.256,-0.56,-4.825
11:40:16.260,-0.545,-4.95
11:40:16.264,-0.515,-4.915
11:40:16.268,-0.47,-4.75
11:40:16.272,-0.365,-4.585
11:40:16.276,-0.33,-4.44
11:40:16.280,-0.36,-4.315
11:40:16.284,-0.35,-4.21
11:40:16.288,-0.385,-4.05
11:40:16.292,-0.42,-3.795
11:40:16.296,-0.48,-3.515
11:40:16.300,-0.565,-3.195
11:40:16.304,-0.63,-2.87
11:40:16.308,-0.715,-2.5
11:40:16.312,-0.755,-2.045
11:40:16.316,-0.655,-1.53
11:40:16.320,-0.575,-1.16
11:40:16.324,-0.45,-0.825
11:40:16.328,-0.34,-0.545
11:40:16.332,-0.26,-0.315
11:40:16.336,-0.235,-0.095
11:40:16.340,-0.19,0.07
11:40:16.344,-0.18,0.27
11:40:16.348,-0.18,0.45
11:40:16.352,-0.175,0.59
11:40:16.356,-0.16,0.74
11:40:16.360,-0.145,0.82
11:40:16.364,-0.135,0.88
11:40:16.368,-0.15,0.925
11:40:16.372,-0.135,0.93
11:40:16.376,-0.12,0.965
11:40:16.380,-0.125,0.98
11:40:16.384,-0.115,1.0
11:40:16.388,-0.1,1.025
11:40:16.392,-0.085,1.04
11:40:16.396,-0.1,1.05
11:40:16.400,-0.075,1.055
11:40:16.404,-0.065,1.08
11:40:16.408,-0.085,1.08
11:40:16.412,-0.06,1.08
11:40:16.416,-0.095,1.12
11:40:16.420,-0.08,1.115
11:40:16.424,-0.08,1.135
11:40:16.428,-0.07,1.12
11:40:16.432,-0.07,1.125
11:40:16.436,-0.045,1.135
11:40:16.440,-0.06,1.125
11:40:16.444,-0.055,1.15
11:40:16.448,-0.03,1.155
11:40:16.452,-0.04,1.175
11:40:16.456,-0.035,1.19
11:40:16.460,-0.035,1.2
11:40:16.464,-0.035,1.2
11:40:16.468,-0.05,1.235
11:40:16.472,-0.05,1.24
11:40:16.476,-0.055,1.235
11:40:16.480,-0.05,1.265
11:40:16.484,-0.055,1.255
11:40:16.488,-0.045,1.285
11:40:16.492,-0.05,1.3
11:40:16.496,-0.05,1.315
11:40:16.500,-0.055,1.335
11:40:16.504,-0.08,1.36
11:40:16.508,-0.06,1.36
11:40:16.512,-0.08,1.375
11:40:16.516,-0.1,1.365
11:40:16.520,-0.095,1.38
11:40:16.524,-0.085,1.4
11:40:16.528,-0.105,1.38
11:40:16.532,-0.11,1.395
11:40:16.536,-0.12,1.43
11:40:16.540,-0.13,1.43
11:40:16.544,-0.16,1.435
11:40:16.548,-0.175,1.45
11:40:16.552,-0.18,1.43
11:40:16.556,-0.185,1.42
11:40:16.560,-0.21,1.395
11:40:16.564,-0.21,1.4
11:40:16.568,-0.23,1.375
11:40:16.572,-0.23,1.355
11:40:16.576,-0.25,1.315
11:40:16.580,-0.265,1.295
11:40:16.584,-0.27,1.275
11:40:16.588,-0.28,1.235
11:40:16.592,-0.295,1.195
11:40:16.596,-0.32,1.125
11:40:16.600,-0.315,1.08
11:40:16.604,-0.315,1.04
11:40:16.608,-0.32,1.015
11:40:16.612,-0.32,0.95
11:40:16.616,-0.3,0.885
11:40:16.620,-0.295,0.83
11:40:16.624,-0.285,0.775
11:40:16.628,-0.325,0.755
11:40:16.632,-0.315,0.72
11:40:16.636,-0.31,0.645
11:40:16.640,-0.335,0.605
11:40:16.644,-0.315,0.59
11:40:16.648,-0.335,0.545
11:40:16.652,-0.34,0.525
11:40:16.656,-0.31,0.495
11:40:16.660,-0.3,0.44
11:40:16.664,-0.29,0.43
11:40:16.668,-0.27,0.43
11:40:16.672,-0.28,0.405
11:40:16.676,-0.3,0.415
11:40:16.680,-0.31,0.4
11:40:16.684,-0.305,0.395
11:40:16.688,-0.275,0.405
11:40:16.692,-0.28,0.385
11:40:16.696,-0.3,0.385
11:40:16.700,-0.27,0.37
11:40:16.704,-0.245,0.355
11:40:16.708,-0.24,0.405
11:40:16.712,-0.24,0.4
11:40:16.716,-0.245,0.43
11:40:16.720,-0.255,0.425
11:40:16.724,-0.235,0.44
11:40:16.728,-0.22,0.435
11:40:16.732,-0.235,0.42
11:40:16.736,-0.245,0.44
11:40:16.740,-0.245,0.425
11:40:16.744,-0.23,0.44
11:40:16.748,-0.22,0.445
11:40:16.752,-0.19,0.46
11:40:16.756,-0.19,0.455
11:40:16.760,-0.2,0.45
11:40:16.764,-0.215,0.46
11:40:16.768,-0.22,0.455
11:40:16.772,-0.205,0.485
11:40:16.776,-0.215,0.46
11:40:16.780,-0.235,0.465
11:40:16.784,-0.245,0.455
11:40:16.788,-0.21,0.485
11:40:16.792,-0.2,0.475
11:40:16.796,-0.19,0.48
11:40:16.800,-0.205,0.465
11:40:16.804,-0.19,0.495
11:40:16.808,-0.23,0.495
11:40:16.812,-0.24,0.485
11:40:16.816,-0.245,0.445
11:40:16.820,-0.255,0.445
11:40:16.824,-0.235,0.435
11:40:16.828,-0.23,0.45
11:40:16.832,-0.25,0.44
11:40:16.836,-0.255,0.445
11:40:16.840,-0.25,0.44
11:40:16.844,-0.265,0.45
11:40:16.848,-0.26,0.44
11:40:16.852,-0.25,0.46
11:40:16.856,-0.265,0.44
11:40:16.860,-0.26,0.415
11:40:16.864,-0.265,0.425
11:40:16.868,-0.26,0.395
11:40:16.872,-0.265,0.39
11:40:16.876,-0.27,0.39
11:40:16.880,-0.26,0.365
11:40:16.884,-0.26,0.37
11:40:16.888,-0.265,0.37
11:40:16.892,-0.265,0.37
11:40:16.896,-0.265,0.365
11:40:16.900,-0.26,0.365
11:40:16.904,-0.26,0.355
11:40:16.908,-0.28,0.34
11:40:16.912,-0.295,0.34
11:40:16.916,-0.265,0.31
11:40:16.920,-0.255,0.315
11:40:16.924,-0.24,0.315
11:40:16.928,-0.25,0.31
11:40:16.932,-0.25,0.31
11:40:16.936,-0.255,0.31
11:40:16.940,-0.275,0.32
11:40:16.944,-0.27,0.33
11:40:16.948,-0.29,0.3
11:40:16.952,-0.27,0.295
11:40:16.956,-0.28,0.295
11:40:16.960,-0.275,0.275
11:40:16.964,-0.25,0.285
11:40:16.968,-0.26,0.285
11:40:16.972,-0.285,0.28
11:40:16.976,-0.285,0.275
11:40:16.980,-0.285,0.29
11:40:16.984,-0.275,0.27
11:40:16.988,-0.27,0.27
11:40:16.992,-0.29,0.27
11:40:16.996,-0.285,0.27
11:40:17.000,-0.29,0.255
11:40:17.004,-0.275,0.25
11:40:17.008,-0.275,0.255
11:40:17.012,-0.26,0.235
11:40:17.016,-0.25,0.245
11:40:17.020,-0.275,0.265
11:40:17.024,-0.285,0.245
11:40:17.028,-0.28,0.255
11:40:17.032,-0.275,0.275
11:40:17.036,-0.275,0.245
11:40:17.040,-0.285,0.28
11:40:17.044,-0.285,0.24
11:40:17.048,-0.28,0.23
11:40:17.052,-0.265,0.225
11:40:17.056,-0.255,0.215
11:40:17.060,-0.225,0.225
11:40:17.064,-0.23,0.245
11:40:17.068,-0.205,0.245
11:40:17.072,-0.165,0.255
11:40:17.076,-0.155,0.275
11:40:17.080,-0.1,0.29
11:40:17.084,-0.06,0.31
11:40:17.088,-0.05,0.345
11:40:17.092,-0.085,0.375
11:40:17.096,-0.105,0.39
11:40:17.100,-0.125,0.385
11:40:17.104,-0.14,0.39
11:40:17.108,-0.155,0.365
11:40:17.112,-0.17,0.36
11:40:17.116,-0.185,0.315
11:40:17.120,-0.185,0.295
11:40:17.124,-0.165,0.275
11:40:17.128,-0.14,0.25
11:40:17.132,-0.11,0.225
11:40:17.136,-0.08,0.2
11:40:17.140,-0.06,0.2
11:40:17.144,-0.07,0.22
11:40:17.148,-0.105,0.235
11:40:17.152,-0.155,0.26
11:40:17.156,-0.18,0.305
11:40:17.160,-0.2,0.315
11:40:17.164,-0.255,0.315
11:40:17.168,-0.295,0.31
11:40:17.172,-0.305,0.26
11:40:17.176,-0.305,0.215
11:40:17.180,-0.31,0.215
11:40:17.184,-0.32,0.2
11:40:17.188,-0.325,0.205
11:40:17.192,-0.305,0.21
11:40:17.196,-0.29,0.195
11:40:17.200,-0.29,0.205
11:40:17.204,-0.315,0.215
11:40:17.208,-0.315,0.225
11:40:17.212,-0.31,0.22
11:40:17.216,-0.315,0.22
11:40:17.220,-0.315,0.205
11:40:17.224,-0.315,0.205
11:40:17.228,-0.3,0.195
11:40:17.232,-0.285,0.195
11:40:17.236,-0.285,0.205
11:40:17.240,-0.32,0.2
11:40:17.244,-0.29,0.195
11:40:17.248,-0.315,0.205
11:40:17.252,-0.295,0.195
11:40:17.256,-0.275,0.215
11:40:17.260,-0.295,0.205
11:40:17.264,-0.265,0.21
11:40:17.268,-0.245,0.205
11:40:17.272,-0.2,0.21
11:40:17.276,-0.095,0.205
11:40:17.280,-0.005,0.18
11:40:17.284,0.05,0.195
11:40:17.288,0.05,0.28
11:40:17.292,0.035,0.35
11:40:17.296,0.0,0.445
11:40:17.300,-0.08,0.325
11:40:17.304,-0.185,-0.09
11:40:17.308,-0.305,-0.68
11:40:17.312,-0.365,-1.325
11:40:17.316,-0.33,-2.125
11:40:17.320,-0.255,-2.995
11:40:17.324,-0.215,-3.695
11:40:17.328,-0.27,-4.165
11:40:17.332,-0.42,-4.48
11:40:17.336,-0.53,-4.68
11:40:17.340,-0.515,-4.775
11:40:17.344,-0.465,-4.815
11:40:17.348,-0.39,-4.76
11:40:17.352,-0.335,-4.65
11:40:17.356,-0.27,-4.485
11:40:17.360,-0.24,-4.365
11:40:17.364,-0.26,-4.24
11:40:17.368,-0.255,-4.14
11:40:17.372,-0.28,-3.975
11:40:17.376,-0.285,-3.745
11:40:17.380,-0.33,-3.445
11:40:17.384,-0.38,-3.12
11:40:17.388,-0.45,-2.74
11:40:17.392,-0.48,-2.335
11:40:17.396,-0.515,-1.86
11:40:17.400,-0.445,-1.47
11:40:17.404,-0.375,-1.095
11:40:17.408,-0.275,-0.775
11:40:17.412,-0.18,-0.48
11:40:17.416,-0.12,-0.28
11:40:17.420,-0.085,-0.095
11:40:17.424,-0.06,0.1
11:40:17.428,-0.04,0.25
11:40:17.432,-0.045,0.415
11:40:17.436,-0.065,0.555
11:40:17.440,-0.025,0.67
11:40:17.444,0.0,0.78
11:40:17.448,0.01,0.85
11:40:17.452,0.015,0.885
11:40:17.456,0.025,0.89
11:40:17.460,0.025,0.935
11:40:17.464,0.01,0.935
11:40:17.468,0.015,0.975
11:40:17.472,0.03,0.985
11:40:17.476,0.05,0.98
11:40:17.480,0.04,1.0
11:40:17.484,0.065,0.99
11:40:17.488,0.07,1.005
11:40:17.492,0.09,1.035
11:40:17.496,0.085,1.025
11:40:17.500,0.075,1.065
11:40:17.504,0.1,1.09
11:40:17.508,0.115,1.1
11:40:17.512,0.12,1.1
11:40:17.516,0.18,1.13
11:40:17.520,0.215,1.14
11:40:17.524,0.28,1.155
11:40:17.528,0.28,1.195
11:40:17.532,0.34,1.235
11:40:17.536,0.4,1.235
11:40:17.540,0.45,1.265
11:40:17.544,0.51,1.325
11:40:17.548,0.54,1.385
11:40:17.552,0.54,1.44
11:40:17.556,0.515,1.485
11:40:17.560,0.49,1.555
11:40:17.564,0.425,1.585
11:40:17.568,0.375,1.635
11:40:17.572,0.315,1.635
11:40:17.576,0.285,1.62
11:40:17.580,0.27,1.56
11:40:17.584,0.21,1.52
11:40:17.588,0.2,1.525
11:40:17.592,0.18,1.525
11:40:17.596,0.135,1.5
11:40:17.600,0.105,1.475
11:40:17.604,0.075,1.47
11:40:17.608,0.045,1.47
11:40:17.612,0.045,1.485
11:40:17.616,0.025,1.46
11:40:17.620,0.035,1.455
11:40:17.624,-0.005,1.465
11:40:17.628,-0.04,1.475
11:40:17.632,-0.065,1.46
11:40:17.636,-0.07,1.43
11:40:17.640,-0.07,1.435
11:40:17.644,-0.095,1.415
11:40:17.648,-0.095,1.36
11:40:17.652,-0.125,1.34
11:40:17.656,-0.135,1.285
11:40:17.660,-0.135,1.23
11:40:17.664,-0.14,1.17
11:40:17.668,-0.145,1.13
11:40:17.672,-0.165,1.08
11:40:17.676,-0.185,1.045
11:40:17.680,-0.23,0.985
11:40:17.684,-0.215,0.905
11:40:17.688,-0.21,0.835
11:40:17.692,-0.185,0.755
11:40:17.696,-0.21,0.69
11:40:17.700,-0.2,0.645
11:40:17.704,-0.165,0.59
11:40:17.708,-0.16,0.53
11:40:17.712,-0.175,0.495
11:40:17.716,-0.185,0.44
11:40:17.720,-0.18,0.41
11:40:17.724,-0.16,0.38
11:40:17.728,-0.17,0.34
11:40:17.732,-0.16,0.32
11:40:17.736,-0.13,0.29
11:40:17.740,-0.135,0.255
11:40:17.744,-0.11,0.255
11:40:17.748,-0.1,0.25
11:40:17.752,-0.075,0.26
11:40:17.756,-0.055,0.24
11:40:17.760,-0.075,0.225
11:40:17.764,-0.085,0.255
11:40:17.768,-0.05,0.255
11:40:17.772,-0.02,0.25
11:40:17.776,0.045,0.25
11:40:17.780,0.175,0.26
11:40:17.784,0.37,0.255
11:40:17.788,0.57,0.245
11:40:17.792,0.675,0.265
11:40:17.796,0.7,0.305
11:40:17.800,0.685,0.38
11:40:17.804,0.54,0.365
11:40:17.808,0.33,0.215
11:40:17.812,0.095,-0.2
11:40:17.816,0.0,-0.715
11:40:17.820,-0.015,-1.4
11:40:17.824,0.015,-2.105
11:40:17.828,-0.075,-2.775
11:40:17.832,-0.245,-3.375
11:40:17.836,-0.49,-3.83
11:40:17.840,-0.58,-4.135
11:40:17.844,-0.54,-4.415
11:40:17.848,-0.44,-4.49
11:40:17.852,-0.315,-4.36
11:40:17.856,-0.18,-4.17
11:40:17.860,-0.085,-4.04
11:40:17.864,-0.05,-3.91
11:40:17.868,-0.085,-3.85
11:40:17.872,-0.09,-3.695
11:40:17.876,-0.13,-3.475
11:40:17.880,-0.165,-3.12
11:40:17.884,-0.22,-2.73
11:40:17.888,-0.265,-2.335
11:40:17.892,-0.235,-1.915
11:40:17.896,-0.19,-1.44
11:40:17.900,-0.145,-1.005
11:40:17.904,-0.135,-0.67
11:40:17.908,-0.17,-0.38
11:40:17.912,-0.2,-0.15
11:40:17.916,-0.21,0.0
11:40:17.920,-0.21,0.185
11:40:17.924,-0.205,0.345
11:40:17.928,-0.21,0.48
11:40:17.932,-0.22,0.57
11:40:17.936,-0.225,0.615
11:40:17.940,-0.205,0.65
11:40:17.944,-0.195,0.665
11:40:17.948,-0.155,0.695
11:40:17.952,-0.175,0.735
11:40:17.956,-0.14,0.715
11:40:17.960,-0.135,0.75
11:40:17.964,-0.12,0.765
11:40:17.968,-0.12,0.795
11:40:17.972,-0.095,0.8
11:40:17.976,-0.075,0.81
11:40:17.980,-0.055,0.84
11:40:17.984,-0.05,0.86
11:40:17.988,-0.055,0.87
11:40:17.992,-0.025,0.87
11:40:17.996,0.0,0.89
11:40:18.000,0.02,0.9
11:40:18.004,0.07,0.905
11:40:18.008,0.115,0.945
11:40:18.012,0.135,0.965
11:40:18.016,0.17,0.985
11:40:18.020,0.21,1.025
11:40:18.024,0.265,1.065
11:40:18.028,0.285,1.105
11:40:18.032,0.305,1.17
11:40:18.036,0.295,1.17
11:40:18.040,0.27,1.18
11:40:18.044,0.21,1.2
11:40:18.048,0.18,1.195
11:40:18.052,0.12,1.16
11:40:18.056,0.12,1.16
11:40:18.060,0.06,1.165
11:40:18.064,0.025,1.16
11:40:18.068,0.005,1.16
11:40:18.072,-0.02,1.145
11:40:18.076,-0.04,1.13
11:40:18.080,-0.075,1.155
11:40:18.084,-0.1,1.115
11:40:18.088,-0.085,1.125
11:40:18.092,-0.115,1.135
11:40:18.096,-0.18,1.145
11:40:18.100,-0.21,1.13
11:40:18.104,-0.235,1.15
11:40:18.108,-0.265,1.16
11:40:18.112,-0.28,1.15
11:40:18.116,-0.27,1.15
11:40:18.120,-0.285,1.105
11:40:18.124,-0.31,1.095
11:40:18.128,-0.34,1.07
11:40:18.132,-0.33,1.035
11:40:18.136,-0.35,0.975
11:40:18.140,-0.37,0.94
11:40:18.144,-0.375,0.9
11:40:18.148,-0.415,0.845
11:40:18.152,-0.405,0.805
11:40:18.156,-0.385,0.765
11:40:18.160,-0.365,0.705
11:40:18.164,-0.35,0.655
11:40:18.168,-0.34,0.61
11:40:18.172,-0.295,0.555
11:40:18.176,-0.275,0.515
11:40:18.180,-0.25,0.5
11:40:18.184,-0.235,0.49
11:40:18.188,-0.225,0.45
11:40:18.192,-0.225,0.435
11:40:18.196,-0.2,0.42
11:40:18.200,-0.195,0.43
11:40:18.204,-0.175,0.4
11:40:18.208,-0.145,0.39
11:40:18.212,-0.1,0.38
11:40:18.216,-0.04,0.38
11:40:18.220,-0.015,0.39
11:40:18.224,0.0,0.405
11:40:18.228,0.04,0.435
11:40:18.232,0.09,0.465
11:40:18.236,0.105,0.495
11:40:18.240,0.095,0.51
11:40:18.244,0.05,0.515
11:40:18.248,0.05,0.5
11:40:18.252,0.0,0.46
11:40:18.256,-0.01,0.445
11:40:18.260,-0.02,0.395
11:40:18.264,-0.04,0.375
11:40:18.268,-0.07,0.365
11:40:18.272,-0.095,0.355
11:40:18.276,-0.11,0.35
11:40:18.280,-0.145,0.355
11:40:18.284,-0.15,0.3
11:40:18.288,-0.16,0.285
11:40:18.292,-0.19,0.26
11:40:18.296,-0.195,0.235
11:40:18.300,-0.195,0.22
11:40:18.304,-0.19,0.215
11:40:18.308,-0.2,0.22
11:40:18.312,-0.22,0.18
11:40:18.316,-0.235,0.185
11:40:18.320,-0.24,0.2
11:40:18.324,-0.25,0.185
11:40:18.328,-0.25,0.195
11:40:18.332,-0.25,0.17
11:40:18.336,-0.245,0.185
11:40:18.340,-0.24,0.17
11:40:18.344,-0.235,0.16
11:40:18.348,-0.245,0.16
11:40:18.352,-0.26,0.15
11:40:18.356,-0.265,0.165
11:40:18.360,-0.275,0.165
11:40:18.364,-0.285,0.15
11:40:18.368,-0.26,0.155
11:40:18.372,-0.26,0.16
11:40:18.376,-0.275,0.165
11:40:18.380,-0.24,0.15
11:40:18.384,-0.235,0.15
11:40:18.388,-0.21,0.145
11:40:18.392,-0.22,0.175
11:40:18.396,-0.215,0.155
11:40:18.400,-0.23,0.165
11:40:18.404,-0.195,0.17
11:40:18.408,-0.2,0.195
11:40:18.412,-0.195,0.19
11:40:18.416,-0.175,0.22
11:40:18.420,-0.145,0.21
11:40:18.424,-0.1,0.23
11:40:18.428,-0.08,0.23
11:40:18.432,-0.04,0.26
11:40:18.436,-0.035,0.275
11:40:18.440,-0.005,0.305
11:40:18.444,0.015,0.35
11:40:18.448,0.045,0.4
11:40:18.452,0.06,0.39
11:40:18.456,0.005,0.375
11:40:18.460,-0.035,0.37
11:40:18.464,-0.07,0.36
11:40:18.468,-0.07,0.315
11:40:18.472,-0.005,0.3
11:40:18.476,0.1,0.25
11:40:18.480,0.145,0.285
11:40:18.484,0.12,0.315
11:40:18.488,0.065,0.345
11:40:18.492,0.0,0.4
11:40:18.496,-0.17,0.33
11:40:18.500,-0.38,-0.02
11:40:18.504,-0.535,-0.575
11:40:18.508,-0.66,-1.17
11:40:18.512,-0.675,-2.005
11:40:18.516,-0.54,-2.91
11:40:18.520,-0.42,-3.63
11:40:18.524,-0.5,-4.145
11:40:18.528,-0.66,-4.59
11:40:18.532,-0.805,-4.865
11:40:18.536,-0.765,-4.965
11:40:18.540,-0.73,-4.935
11:40:18.544,-0.665,-4.86
11:40:18.548,-0.555,-4.69
11:40:18.552,-0.46,-4.565
11:40:18.556,-0.425,-4.425
11:40:18.560,-0.44,-4.31
11:40:18.564,-0.45,-4.175
11:40:18.568,-0.465,-4.0
11:40:18.572,-0.52,-3.74
11:40:18.576,-0.6,-3.415
11:40:18.580,-0.665,-3.085
11:40:18.584,-0.77,-2.705
11:40:18.588,-0.795,-2.23
11:40:18.592,-0.725,-1.74
11:40:18.596,-0.62,-1.31
11:40:18.600,-0.485,-0.945
11:40:18.604,-0.345,-0.625
11:40:18.608,-0.29,-0.4
11:40:18.612,-0.235,-0.21
11:40:18.616,-0.21,0.01
11:40:18.620,-0.195,0.215
11:40:18.624,-0.185,0.4
11:40:18.628,-0.165,0.555
11:40:18.632,-0.14,0.68
11:40:18.636,-0.15,0.75
11:40:18.640,-0.12,0.82
11:40:18.644,-0.105,0.88
11:40:18.648,-0.115,0.9
11:40:18.652,-0.095,0.915
11:40:18.656,-0.09,0.965
11:40:18.660,-0.075,0.965
11:40:18.664,-0.08,0.985
11:40:18.668,-0.055,0.97
11:40:18.672,-0.06,0.995
11:40:18.676,-0.055,0.995
11:40:18.680,-0.04,1.025
11:40:18.684,-0.05,1.04
11:40:18.688,-0.05,1.055
11:40:18.692,-0.04,1.075
11:40:18.696,-0.035,1.09
11:40:18.700,-0.04,1.11
11:40:18.704,-0.025,1.115
11:40:18.708,-0.04,1.135
11:40:18.712,-0.025,1.13
11:40:18.716,-0.01,1.14
11:40:18.720,-0.015,1.175
11:40:18.724,-0.015,1.19
11:40:18.728,-0.015,1.215
11:40:18.732,-0.015,1.26
11:40:18.736,-0.015,1.275
11:40:18.740,-0.01,1.29
11:40:18.744,0.0,1.31
11:40:18.748,-0.015,1.32
11:40:18.752,-0.02,1.345
11:40:18.756,-0.015,1.34
11:40:18.760,-0.01,1.355
11:40:18.764,-0.01,1.39
11:40:18.768,-0.02,1.395
11:40:18.772,-0.005,1.43
11:40:18.776,-0.005,1.42
11:40:18.780,-0.03,1.445
11:40:18.784,-0.02,1.475
11:40:18.788,-0.02,1.505
11:40:18.792,-0.035,1.495
11:40:18.796,-0.015,1.49
11:40:18.800,-0.005,1.495
11:40:18.804,-0.015,1.495
11:40:18.808,-0.03,1.495
11:40:18.812,-0.06,1.495
11:40:18.816,-0.095,1.505
11:40:18.820,-0.12,1.465
11:40:18.824,-0.13,1.435
11:40:18.828,-0.155,1.4
11:40:18.832,-0.18,1.345
11:40:18.836,-0.19,1.3
11:40:18.840,-0.205,1.24
11:40:18.844,-0.215,1.19
11:40:18.848,-0.23,1.14
11:40:18.852,-0.235,1.06
11:40:18.856,-0.255,0.995
11:40:18.860,-0.265,0.925
11:40:18.864,-0.3,0.88
11:40:18.868,-0.3,0.78
11:40:18.872,-0.29,0.705
11:40:18.876,-0.285,0.65
11:40:18.880,-0.29,0.595
11:40:18.884,-0.285,0.53
11:40:18.888,-0.285,0.5
11:40:18.892,-0.295,0.48
11:40:18.896,-0.315,0.46
11:40:18.900,-0.32,0.425
11:40:18.904,-0.335,0.38
11:40:18.908,-0.3,0.37
11:40:18.912,-0.305,0.365
11:40:18.916,-0.295,0.34
11:40:18.920,-0.285,0.315
11:40:18.924,-0.255,0.305
11:40:18.928,-0.26,0.315
11:40:18.932,-0.275,0.335
11:40:18.936,-0.27,0.315
11:40:18.940,-0.27,0.305
11:40:18.944,-0.265,0.305
11:40:18.948,-0.265,0.315
11:40:18.952,-0.26,0.335
11:40:18.956,-0.275,0.315
11:40:18.960,-0.25,0.305
11:40:18.964,-0.245,0.285
11:40:18.968,-0.22,0.305
11:40:18.972,-0.24,0.33
11:40:18.976,-0.26,0.315
11:40:18.980,-0.25,0.325
11:40:18.984,-0.245,0.325
11:40:18.988,-0.265,0.35
11:40:18.992,-0.25,0.315
11:40:18.996,-0.23,0.34
11:40:19.000,-0.24,0.325
11:40:19.004,-0.225,0.305
11:40:19.008,-0.21,0.325
11:40:19.012,-0.205,0.35
11:40:19.016,-0.22,0.32
11:40:19.020,-0.24,0.34
11:40:19.024,-0.24,0.35
11:40:19.028,-0.245,0.335
11:40:19.032,-0.27,0.33
11:40:19.036,-0.255,0.33
11:40:19.040,-0.26,0.32
11:40:19.044,-0.23,0.315
11:40:19.048,-0.235,0.3
11:40:19.052,-0.245,0.315
11:40:19.056,-0.26,0.31
11:40:19.060,-0.275,0.305
11:40:19.064,-0.26,0.315
11:40:19.068,-0.25,0.295
11:40:19.072,-0.245,0.315
11:40:19.076,-0.28,0.285
11:40:19.080,-0.275,0.265
11:40:19.084,-0.285,0.245
11:40:19.088,-0.29,0.255
11:40:19.092,-0.28,0.255
11:40:19.096,-0.275,0.265
11:40:19.100,-0.26,0.26
11:40:19.104,-0.285,0.24
11:40:19.108,-0.275,0.255
11:40:19.112,-0.28,0.27
11:40:19.116,-0.28,0.245
11:40:19.120,-0.29,0.26
11:40:19.124,-0.275,0.255
11:40:19.128,-0.27,0.225
11:40:19.132,-0.27,0.245
11:40:19.136,-0.27,0.24
11:40:19.140,-0.26,0.255
11:40:19.144,-0.275,0.25
11:40:19.148,-0.285,0.24
11:40:19.152,-0.285,0.25
11:40:19.156,-0.295,0.25
11:40:19.160,-0.285,0.245
11:40:19.164,-0.285,0.245
11:40:19.168,-0.28,0.225
11:40:19.172,-0.26,0.215
11:40:19.176,-0.27,0.21
11:40:19.180,-0.275,0.225
11:40:19.184,-0.29,0.215
11:40:19.188,-0.29,0.23
11:40:19.192,-0.29,0.225
11:40:19.196,-0.28,0.21
11:40:19.200,-0.295,0.215
11:40:19.204,-0.275,0.22
11:40:19.208,-0.28,0.215
11:40:19.212,-0.265,0.22
11:40:19.216,-0.28,0.22
11:40:19.220,-0.305,0.22
11:40:19.224,-0.3,0.23
11:40:19.228,-0.27,0.23
11:40:19.232,-0.29,0.235
11:40:19.236,-0.305,0.24
11:40:19.240,-0.3,0.23
11:40:19.244,-0.3,0.21
11:40:19.248,-0.285,0.225
11:40:19.252,-0.29,0.215
11:40:19.256,-0.29,0.225
11:40:19.260,-0.275,0.215
11:40:19.264,-0.285,0.22
11:40:19.268,-0.285,0.21
11:40:19.272,-0.26,0.22
11:40:19.276,-0.285,0.22
11:40:19.280,-0.3,0.225
11:40:19.284,-0.285,0.225
11:40:19.288,-0.275,0.215
11:40:19.292,-0.25,0.225
11:40:19.296,-0.245,0.22
11:40:19.300,-0.245,0.2
11:40:19.304,-0.22,0.22
11:40:19.308,-0.235,0.225
11:40:19.312,-0.25,0.235
11:40:19.316,-0.24,0.225
11:40:19.320,-0.28,0.235
11:40:19.324,-0.255,0.23
11:40:19.328,-0.275,0.22
11:40:19.332,-0.275,0.195
11:40:19.336,-0.265,0.195
11:40:19.340,-0.255,0.2
11:40:19.344,-0.275,0.24
11:40:19.348,-0.245,0.215
11:40:19.352,-0.25,0.225
11:40:19.356,-0.25,0.235
11:40:19.360,-0.245,0.235
11:40:19.364,-0.245,0.215
11:40:19.368,-0.24,0.21
11:40:19.372,-0.255,0.22
11:40:19.376,-0.25,0.215
11:40:19.380,-0.24,0.23
11:40:19.384,-0.245,0.23
11:40:19.388,-0.25,0.24
11:40:19.392,-0.25,0.235
11:40:19.396,-0.265,0.24
11:40:19.400,-0.26,0.26
11:40:19.404,-0.26,0.25
11:40:19.408,-0.22,0.25
11:40:19.412,-0.24,0.235
11:40:19.416,-0.245,0.225
11:40:19.420,-0.23,0.215
11:40:19.424,-0.22,0.215
11:40:19.428,-0.24,0.225
11:40:19.432,-0.23,0.24
11:40:19.436,-0.235,0.24
11:40:19.440,-0.255,0.24
11:40:19.444,-0.27,0.215
11:40:19.448,-0.26,0.22
11:40:19.452,-0.26,0.235
11:40:19.456,-0.24,0.215
11:40:19.460,-0.215,0.22
11:40:19.464,-0.21,0.23
11:40:19.468,-0.215,0.21
11:40:19.472,-0.23,0.225
11:40:19.476,-0.22,0.235
11:40:19.480,-0.245,0.22
11:40:19.484,-0.23,0.225
11:40:19.488,-0.23,0.23
11:40:19.492,-0.22,0.225
11:40:19.496,-0.175,0.22
11:40:19.500,-0.12,0.205
11:40:19.504,-0.075,0.21
11:40:19.508,-0.03,0.27
11:40:19.512,-0.01,0.305
11:40:19.516,-0.03,0.34
11:40:19.520,-0.055,0.37
11:40:19.524,-0.065,0.38
11:40:19.528,-0.09,0.41
11:40:19.532,-0.1,0.39
11:40:19.536,-0.135,0.355
11:40:19.540,-0.145,0.32
11:40:19.544,-0.125,0.265
11:40:19.548,-0.13,0.23
11:40:19.552,-0.095,0.22
11:40:19.556,-0.1,0.195
11:40:19.560,-0.055,0.195
11:40:19.564,-0.075,0.185
11:40:19.568,-0.065,0.185
11:40:19.572,-0.09,0.215
11:40:19.576,-0.115,0.21
11:40:19.580,-0.16,0.24
11:40:19.584,-0.185,0.245
11:40:19.588,-0.23,0.235
11:40:19.592,-0.235,0.245
11:40:19.596,-0.25,0.22
11:40:19.600,-0.275,0.18
11:40:19.604,-0.28,0.145
11:40:19.608,-0.28,0.145
11:40:19.612,-0.29,0.13
11:40:19.616,-0.3,0.125
11:40:19.620,-0.3,0.13
11:40:19.624,-0.275,0.13
11:40:19.628,-0.275,0.135
11:40:19.632,-0.285,0.13
11:40:19.636,-0.275,0.115
11:40:19.640,-0.285,0.125
11:40:19.644,-0.28,0.12
11:40:19.648,-0.285,0.145
11:40:19.652,-0.3,0.145
11:40:19.656,-0.305,0.145
11:40:19.660,-0.28,0.14
11:40:19.664,-0.3,0.16
11:40:19.668,-0.26,0.175
11:40:19.672,-0.285,0.15
11:40:19.676,-0.245,0.18
11:40:19.680,-0.27,0.175
11:40:19.684,-0.27,0.17
11:40:19.688,-0.26,0.175
11:40:19.692,-0.205,0.18
11:40:19.696,-0.12,0.17
11:40:19.700,-0.015,0.165
11:40:19.704,0.035,0.195
11:40:19.708,0.025,0.25
11:40:19.712,0.045,0.36
11:40:19.716,0.015,0.395
11:40:19.720,-0.05,0.135
11:40:19.724,-0.145,-0.435
11:40:19.728,-0.23,-1.065
11:40:19.732,-0.245,-1.825
11:40:19.736,-0.21,-2.715
11:40:19.740,-0.17,-3.515
11:40:19.744,-0.205,-4.08
11:40:19.748,-0.345,-4.425
11:40:19.752,-0.475,-4.665
11:40:19.756,-0.47,-4.78
11:40:19.760,-0.435,-4.845
11:40:19.764,-0.395,-4.83
11:40:19.768,-0.33,-4.69
11:40:19.772,-0.305,-4.575
11:40:19.776,-0.3,-4.445
11:40:19.780,-0.335,-4.335
11:40:19.784,-0.355,-4.215
11:40:19.788,-0.385,-4.06
11:40:19.792,-0.42,-3.815
11:40:19.796,-0.48,-3.505
11:40:19.800,-0.545,-3.115
11:40:19.804,-0.605,-2.72
11:40:19.808,-0.68,-2.31
11:40:19.812,-0.705,-1.835
11:40:19.816,-0.625,-1.39
11:40:19.820,-0.525,-1.03
11:40:19.824,-0.395,-0.715
11:40:19.828,-0.3,-0.42
11:40:19.832,-0.23,-0.22
11:40:19.836,-0.215,-0.05
11:40:19.840,-0.19,0.15
11:40:19.844,-0.19,0.33
11:40:19.848,-0.175,0.49
11:40:19.852,-0.19,0.625
11:40:19.856,-0.185,0.74
11:40:19.860,-0.175,0.8
11:40:19.864,-0.155,0.86
11:40:19.868,-0.14,0.91
11:40:19.872,-0.14,0.925
11:40:19.876,-0.14,0.925
11:40:19.880,-0.15,0.93
11:40:19.884,-0.125,0.945
11:40:19.888,-0.12,0.955
11:40:19.892,-0.1,0.975
11:40:19.896,-0.11,0.98
11:40:19.900,-0.115,1.0
11:40:19.904,-0.115,1.035
11:40:19.908,-0.115,1.035
11:40:19.912,-0.105,1.045
11:40:19.916,-0.085,1.055
11:40:19.920,-0.085,1.06
11:40:19.924,-0.045,1.055
11:40:19.928,-0.04,1.07
11:40:19.932,-0.06,1.085
11:40:19.936,-0.04,1.105
11:40:19.940,-0.045,1.145
11:40:19.944,0.01,1.135
11:40:19.948,0.005,1.15
11:40:19.952,0.035,1.16
11:40:19.956,0.065,1.19
11:40:19.960,0.105,1.215
11:40:19.964,0.165,1.23
11:40:19.968,0.25,1.285
11:40:19.972,0.3,1.34
11:40:19.976,0.305,1.385
11:40:19.980,0.295,1.43
11:40:19.984,0.245,1.485
11:40:19.988,0.205,1.535
11:40:19.992,0.185,1.6
11:40:19.996,0.13,1.61
11:40:20.000,0.07,1.62
11:40:20.004,0.035,1.545
11:40:20.008,-0.01,1.505
11:40:20.012,-0.045,1.49
11:40:20.016,-0.095,1.465
11:40:20.020,-0.115,1.46
11:40:20.024,-0.155,1.43
11:40:20.028,-0.21,1.395
11:40:20.032,-0.285,1.405
11:40:20.036,-0.335,1.38
11:40:20.040,-0.335,1.36
11:40:20.044,-0.355,1.34
11:40:20.048,-0.39,1.34
11:40:20.052,-0.38,1.3
11:40:20.056,-0.385,1.26
11:40:20.060,-0.38,1.235
11:40:20.064,-0.425,1.205
11:40:20.068,-0.405,1.19
11:40:20.072,-0.445,1.155
11:40:20.076,-0.465,1.125
11:40:20.080,-0.475,1.065
11:40:20.084,-0.475,1.025
11:40:20.088,-0.48,0.94
11:40:20.092,-0.48,0.895
11:40:20.096,-0.48,0.835
11:40:20.100,-0.465,0.765
11:40:20.104,-0.48,0.73
11:40:20.108,-0.495,0.665
11:40:20.112,-0.49,0.625
11:40:20.116,-0.485,0.555
11:40:20.120,-0.485,0.475
11:40:20.124,-0.475,0.45
11:40:20.128,-0.475,0.405
11:40:20.132,-0.455,0.365
11:40:20.136,-0.46,0.335
11:40:20.140,-0.44,0.27
11:40:20.144,-0.44,0.27
11:40:20.148,-0.43,0.235
11:40:20.152,-0.425,0.225
11:40:20.156,-0.44,0.21
11:40:20.160,-0.43,0.23
11:40:20.164,-0.44,0.2
11:40:20.168,-0.415,0.185
11:40:20.172,-0.425,0.155
11:40:20.176,-0.4,0.19
11:40:20.180,-0.355,0.195
11:40:20.184,-0.35,0.175
11:40:20.188,-0.32,0.18
11:40:20.192,-0.315,0.18
11:40:20.196,-0.305,0.215
11:40:20.200,-0.25,0.225
11:40:20.204,-0.155,0.225
11:40:20.208,-0.015,0.23
11:40:20.212,0.165,0.23
11:40:20.216,0.32,0.23
11:40:20.220,0.4,0.285
11:40:20.224,0.42,0.335
11:40:20.228,0.34,0.365
11:40:20.232,0.16,0.33
11:40:20.236,-0.06,0.1
11:40:20.240,-0.21,-0.315
11:40:20.244,-0.295,-0.925
11:40:20.248,-0.275,-1.68
11:40:20.252,-0.23,-2.455
11:40:20.256,-0.29,-3.11
11:40:20.260,-0.59,-3.75
11:40:20.264,-0.845,-4.28
11:40:20.268,-0.93,-4.5
11:40:20.272,-0.785,-4.64
11:40:20.276,-0.685,-4.605
11:40:20.280,-0.6,-4.485
11:40:20.284,-0.47,-4.345
11:40:20.288,-0.44,-4.195
11:40:20.292,-0.49,-4.105
11:40:20.296,-0.565,-4.015
11:40:20.300,-0.6,-3.855
11:40:20.304,-0.67,-3.61
11:40:20.308,-0.705,-3.27
11:40:20.312,-0.72,-2.83
11:40:20.316,-0.7,-2.415
11:40:20.320,-0.62,-1.905
11:40:20.324,-0.49,-1.43
11:40:20.328,-0.42,-1.02
11:40:20.332,-0.4,-0.685
11:40:20.336,-0.36,-0.36
11:40:20.340,-0.39,-0.13
11:40:20.344,-0.37,0.055
11:40:20.348,-0.395,0.23
11:40:20.352,-0.38,0.39
11:40:20.356,-0.39,0.51
11:40:20.360,-0.355,0.605
11:40:20.364,-0.33,0.64
11:40:20.368,-0.365,0.67
11:40:20.372,-0.355,0.74
11:40:20.376,-0.36,0.77
11:40:20.380,-0.34,0.76
11:40:20.384,-0.32,0.79
11:40:20.388,-0.32,0.785
11:40:20.392,-0.305,0.815
11:40:20.396,-0.275,0.815
11:40:20.400,-0.245,0.845
11:40:20.404,-0.23,0.855
11:40:20.408,-0.21,0.875
11:40:20.412,-0.2,0.875
11:40:20.416,-0.185,0.88
11:40:20.420,-0.19,0.93
11:40:20.424,-0.17,0.945
11:40:20.428,-0.16,0.965
11:40:20.432,-0.115,0.97
11:40:20.436,-0.125,0.96
11:40:20.440,-0.1,0.995
11:40:20.444,-0.05,0.99
11:40:20.448,0.0,1.03
11:40:20.452,0.035,1.045
11:40:20.456,0.06,1.075
11:40:20.460,0.09,1.11
11:40:20.464,0.11,1.145
11:40:20.468,0.135,1.165
11:40:20.472,0.155,1.19
11:40:20.476,0.165,1.245
11:40:20.480,0.135,1.25
11:40:20.484,0.11,1.25
11:40:20.488,0.075,1.26
11:40:20.492,0.025,1.24
11:40:20.496,-0.015,1.225
11:40:20.500,-0.03,1.245
11:40:20.504,-0.085,1.24
11:40:20.508,-0.11,1.23
11:40:20.512,-0.14,1.22
11:40:20.516,-0.16,1.195
11:40:20.520,-0.19,1.185
11:40:20.524,-0.195,1.18
11:40:20.528,-0.22,1.2
11:40:20.532,-0.255,1.19
11:40:20.536,-0.29,1.19
11:40:20.540,-0.31,1.18
11:40:20.544,-0.335,1.175
11:40:20.548,-0.35,1.175
11:40:20.552,-0.38,1.155
11:40:20.556,-0.405,1.12
11:40:20.560,-0.435,1.105
11:40:20.564,-0.44,1.065
11:40:20.568,-0.455,1.03
11:40:20.572,-0.475,0.995
11:40:20.576,-0.48,0.965
11:40:20.580,-0.505,0.915
11:40:20.584,-0.515,0.865
11:40:20.588,-0.485,0.825
11:40:20.592,-0.51,0.77
11:40:20.596,-0.515,0.725
11:40:20.600,-0.48,0.69
11:40:20.604,-0.495,0.63
11:40:20.608,-0.46,0.6
11:40:20.612,-0.435,0.555
11:40:20.616,-0.42,0.515
11:40:20.620,-0.39,0.485
11:40:20.624,-0.375,0.49
11:40:20.628,-0.38,0.46
11:40:20.632,-0.355,0.43
11:40:20.636,-0.35,0.43
11:40:20.640,-0.335,0.415
11:40:20.644,-0.305,0.395
11:40:20.648,-0.31,0.405
11:40:20.652,-0.31,0.405
11:40:20.656,-0.275,0.37
11:40:20.660,-0.235,0.39
11:40:20.664,-0.205,0.4
11:40:20.668,-0.185,0.41
11:40:20.672,-0.155,0.42
11:40:20.676,-0.12,0.435
11:40:20.680,-0.095,0.465
11:40:20.684,-0.065,0.495
11:40:20.688,-0.07,0.49
11:40:20.692,-0.03,0.515
11:40:20.696,-0.035,0.475
11:40:20.700,-0.065,0.45
11:40:20.704,-0.07,0.425
11:40:20.708,-0.1,0.43
11:40:20.712,-0.135,0.435
11:40:20.716,-0.15,0.405
11:40:20.720,-0.19,0.355
11:40:20.724,-0.22,0.33
11:40:20.728,-0.225,0.345
11:40:20.732,-0.25,0.335
11:40:20.736,-0.265,0.29
11:40:20.740,-0.285,0.27
11:40:20.744,-0.31,0.27
11:40:20.748,-0.325,0.235
11:40:20.752,-0.345,0.205
11:40:20.756,-0.35,0.185
11:40:20.760,-0.375,0.195
11:40:20.764,-0.385,0.185
11:40:20.768,-0.4,0.185
11:40:20.772,-0.405,0.16
11:40:20.776,-0.395,0.165
11:40:20.780,-0.42,0.14
11:40:20.784,-0.42,0.125
11:40:20.788,-0.425,0.135
11:40:20.792,-0.42,0.125
11:40:20.796,-0.415,0.145
11:40:20.800,-0.44,0.125
11:40:20.804,-0.425,0.15
11:40:20.808,-0.43,0.14
11:40:20.812,-0.45,0.135
11:40:20.816,-0.435,0.115
11:40:20.820,-0.455,0.11
11:40:20.824,-0.43,0.135
11:40:20.828,-0.41,0.14
11:40:20.832,-0.39,0.15
11:40:20.836,-0.4,0.16
11:40:20.840,-0.37,0.175
11:40:20.844,-0.365,0.155
11:40:20.848,-0.385,0.19
11:40:20.852,-0.355,0.17
11:40:20.856,-0.355,0.175
11:40:20.860,-0.345,0.195
11:40:20.864,-0.345,0.185
11:40:20.868,-0.31,0.175
11:40:20.872,-0.29,0.18
11:40:20.876,-0.25,0.195
11:40:20.880,-0.26,0.195
11:40:20.884,-0.21,0.225
11:40:20.888,-0.205,0.245
11:40:20.892,-0.19,0.255
11:40:20.896,-0.19,0.28
11:40:20.900,-0.155,0.295
11:40:20.904,-0.145,0.305
11:40:20.908,-0.09,0.295
11:40:20.912,-0.075,0.26
11:40:20.916,-0.095,0.23
11:40:20.920,-0.09,0.23
11:40:20.924,-0.09,0.23
11:40:20.928,-0.045,0.215
11:40:20.932,0.015,0.19
11:40:20.936,0.125,0.195
11:40:20.940,0.16,0.23
11:40:20.944,0.115,0.28
11:40:20.948,0.07,0.37
11:40:20.952,-0.02,0.41
11:40:20.956,-0.2,0.29
11:40:20.960,-0.355,-0.115
11:40:20.964,-0.51,-0.655
11:40:20.968,-0.605,-1.27
11:40:20.972,-0.555,-2.11
11:40:20.976,-0.435,-3.005
11:40:20.980,-0.34,-3.705
11:40:20.984,-0.395,-4.195
11:40:20.988,-0.55,-4.54
11:40:20.992,-0.67,-4.83
11:40:20.996,-0.66,-4.945
11:40:21.000,-0.575,-4.945
11:40:21.004,-0.5,-4.86
11:40:21.008,-0.415,-4.69
11:40:21.012,-0.295,-4.515
11:40:21.016,-0.275,-4.385
11:40:21.020,-0.305,-4.245
11:40:21.024,-0.335,-4.14
11:40:21.028,-0.385,-3.985
11:40:21.032,-0.445,-3.77
11:40:21.036,-0.505,-3.475
11:40:21.040,-0.57,-3.16
11:40:21.044,-0.65,-2.855
11:40:21.048,-0.7,-2.52
11:40:21.052,-0.735,-2.07
11:40:21.056,-0.67,-1.62
11:40:21.060,-0.585,-1.235
11:40:21.064,-0.48,-0.86
11:40:21.068,-0.395,-0.56
11:40:21.072,-0.345,-0.365
11:40:21.076,-0.29,-0.175
11:40:21.080,-0.24,0.01
11:40:21.084,-0.205,0.195
11:40:21.088,-0.185,0.375
11:40:21.092,-0.17,0.535
11:40:21.096,-0.155,0.675
11:40:21.100,-0.185,0.795
11:40:21.104,-0.15,0.86
11:40:21.108,-0.13,0.91
11:40:21.112,-0.1,0.935
11:40:21.116,-0.08,0.95
11:40:21.120,-0.09,0.98
11:40:21.124,-0.08,1.005
11:40:21.128,-0.07,1.0
11:40:21.132,-0.065,1.04
11:40:21.136,-0.01,1.05
11:40:21.140,0.01,1.06
11:40:21.144,0.06,1.085
11:40:21.148,0.115,1.105
11:40:21.152,0.17,1.14
11:40:21.156,0.225,1.16
11:40:21.160,0.265,1.2
11:40:21.164,0.26,1.24
11:40:21.168,0.235,1.265
11:40:21.172,0.19,1.29
11:40:21.176,0.17,1.345
11:40:21.180,0.15,1.37
11:40:21.184,0.12,1.42
11:40:21.188,0.12,1.42
11:40:21.192,0.115,1.395
11:40:21.196,0.13,1.41
11:40:21.200,0.12,1.38
11:40:21.204,0.085,1.385
11:40:21.208,0.075,1.375
11:40:21.212,0.08,1.365
11:40:21.216,0.09,1.355
11:40:21.220,0.07,1.355
11:40:21.224,0.075,1.345
11:40:21.228,0.03,1.37
11:40:21.232,0.005,1.36
11:40:21.236,-0.025,1.365
11:40:21.240,-0.03,1.38
11:40:21.244,-0.01,1.4
11:40:21.248,-0.03,1.41
11:40:21.252,-0.01,1.43
11:40:21.256,-0.02,1.435
11:40:21.260,-0.025,1.435
11:40:21.264,-0.025,1.45
11:40:21.268,-0.03,1.45
11:40:21.272,-0.045,1.45
11:40:21.276,-0.06,1.445
11:40:21.280,-0.065,1.425
11:40:21.284,-0.08,1.435
11:40:21.288,-0.13,1.41
11:40:21.292,-0.13,1.41
11:40:21.296,-0.145,1.385
11:40:21.300,-0.175,1.335
11:40:21.304,-0.18,1.275
11:40:21.308,-0.195,1.235
11:40:21.312,-0.22,1.2
11:40:21.316,-0.245,1.15
11:40:21.320,-0.235,1.1
11:40:21.324,-0.25,1.06
11:40:21.328,-0.265,1.0
11:40:21.332,-0.295,0.945
11:40:21.336,-0.295,0.87
11:40:21.340,-0.305,0.825
11:40:21.344,-0.275,0.755
11:40:21.348,-0.275,0.715
11:40:21.352,-0.265,0.635
11:40:21.356,-0.25,0.615
11:40:21.360,-0.23,0.55
11:40:21.364,-0.235,0.515
11:40:21.368,-0.23,0.485
11:40:21.372,-0.225,0.49
11:40:21.376,-0.215,0.435
11:40:21.380,-0.205,0.41
11:40:21.384,-0.175,0.41
11:40:21.388,-0.185,0.385
11:40:21.392,-0.195,0.395
11:40:21.396,-0.16,0.345
11:40:21.400,-0.135,0.37
11:40:21.404,-0.13,0.365
11:40:21.408,-0.16,0.345
11:40:21.412,-0.14,0.37
11:40:21.416,-0.14,0.36
11:40:21.420,-0.155,0.365
11:40:21.424,-0.15,0.355
11:40:21.428,-0.13,0.325
11:40:21.432,-0.125,0.36
11:40:21.436,-0.13,0.355
11:40:21.440,-0.105,0.35
11:40:21.444,-0.095,0.38
11:40:21.448,-0.095,0.375
11:40:21.452,-0.08,0.36
11:40:21.456,-0.06,0.375
11:40:21.460,-0.06,0.385
11:40:21.464,-0.08,0.4
11:40:21.468,-0.075,0.37
11:40:21.472,-0.09,0.375
11:40:21.476,-0.085,0.36
11:40:21.480,-0.08,0.355
11:40:21.484,-0.08,0.375
11:40:21.488,-0.065,0.35
11:40:21.492,-0.065,0.355
11:40:21.496,-0.08,0.375
11:40:21.500,-0.07,0.385
11:40:21.504,-0.09,0.39
11:40:21.508,-0.055,0.38
11:40:21.512,-0.055,0.365
11:40:21.516,-0.08,0.365
11:40:21.520,-0.07,0.36
11:40:21.524,-0.055,0.35
11:40:21.528,-0.055,0.355
11:40:21.532,-0.04,0.355
11:40:21.536,-0.04,0.36
11:40:21.540,-0.02,0.355
11:40:21.544,-0.05,0.365
11:40:21.548,-0.055,0.36
11:40:21.552,-0.04,0.35
11:40:21.556,-0.03,0.33
11:40:21.560,-0.045,0.335
11:40:21.564,-0.045,0.31
11:40:21.568,-0.055,0.305
11:40:21.572,-0.045,0.315
11:40:21.576,-0.04,0.315
11:40:21.580,-0.025,0.27
11:40:21.584,-0.04,0.275
11:40:21.588,-0.05,0.29
11:40:21.592,-0.045,0.265
11:40:21.596,-0.045,0.275
11:40:21.600,-0.075,0.26
11:40:21.604,-0.065,0.245
11:40:21.608,-0.035,0.24
11:40:21.612,-0.04,0.235
11:40:21.616,-0.05,0.235
11:40:21.620,-0.045,0.22
11:40:21.624,-0.035,0.25
11:40:21.628,-0.06,0.28
11:40:21.632,-0.05,0.255
11:40:21.636,-0.045,0.235
11:40:21.640,-0.06,0.245
11:40:21.644,-0.055,0.225
11:40:21.648,-0.045,0.23
11:40:21.652,-0.035,0.2
11:40:21.656,-0.04,0.245
11:40:21.660,-0.03,0.2
11:40:21.664,-0.04,0.225
11:40:21.668,-0.04,0.21
11:40:21.672,-0.035,0.205
11:40:21.676,-0.04,0.2
11:40:21.680,-0.04,0.195
11:40:21.684,-0.01,0.2
11:40:21.688,-0.035,0.2
11:40:21.692,-0.035,0.21
11:40:21.696,-0.015,0.21
11:40:21.700,-0.01,0.19
11:40:21.704,-0.015,0.185
11:40:21.708,-0.015,0.185
11:40:21.712,-0.03,0.19
11:40:21.716,-0.04,0.2
11:40:21.720,-0.06,0.19
11:40:21.724,-0.05,0.18
11:40:21.728,-0.045,0.18
11:40:21.732,-0.035,0.165
11:40:21.736,-0.035,0.16
11:40:21.740,-0.025,0.17
11:40:21.744,-0.015,0.165
11:40:21.748,-0.03,0.165
11:40:21.752,-0.04,0.175
11:40:21.756,-0.035,0.18
11:40:21.760,-0.05,0.17
11:40:21.764,-0.045,0.17
11:40:21.768,-0.05,0.155
11:40:21.772,-0.05,0.16
11:40:21.776,-0.075,0.15
11:40:21.780,-0.075,0.16
11:40:21.784,-0.055,0.14
11:40:21.788,-0.025,0.155
11:40:21.792,-0.03,0.155
11:40:21.796,-0.055,0.145
11:40:21.800,-0.055,0.145
11:40:21.804,-0.06,0.145
11:40:21.808,-0.065,0.155
11:40:21.812,-0.065,0.135
11:40:21.816,-0.09,0.155
11:40:21.820,-0.08,0.14
11:40:21.824,-0.065,0.145
11:40:21.828,-0.045,0.135
11:40:21.832,-0.055,0.115
11:40:21.836,-0.05,0.125
11:40:21.840,-0.05,0.125
11:40:21.844,-0.06,0.155
11:40:21.848,-0.075,0.14
11:40:21.852,-0.075,0.115
11:40:21.856,-0.075,0.12
11:40:21.860,-0.08,0.12
11:40:21.864,-0.085,0.115
11:40:21.868,-0.09,0.08
11:40:21.872,-0.08,0.1
11:40:21.876,-0.085,0.08
11:40:21.880,-0.075,0.11
11:40:21.884,-0.09,0.105
11:40:21.888,-0.095,0.115
11:40:21.892,-0.105,0.105
11:40:21.896,-0.125,0.11
11:40:21.900,-0.125,0.125
11:40:21.904,-0.135,0.09
11:40:21.908,-0.1,0.115
11:40:21.912,-0.105,0.095
11:40:21.916,-0.1,0.09
11:40:21.920,-0.11,0.11
11:40:21.924,-0.105,0.115
11:40:21.928,-0.12,0.115
11:40:21.932,-0.14,0.125
11:40:21.936,-0.145,0.1
11:40:21.940,-0.125,0.13
11:40:21.944,-0.12,0.105
11:40:21.948,-0.13,0.115
11:40:21.952,-0.12,0.095
11:40:21.956,-0.115,0.105
11:40:21.960,-0.13,0.085
11:40:21.964,-0.14,0.1
11:40:21.968,-0.15,0.125
11:40:21.972,-0.155,0.115
11:40:21.976,-0.16,0.13
11:40:21.980,-0.14,0.11
11:40:21.984,-0.17,0.095
11:40:21.988,-0.16,0.075
11:40:21.992,-0.175,0.095
11:40:21.996,-0.18,0.06
11:40:22.000,-0.14,0.095
11:40:22.004,-0.155,0.09
11:40:22.008,-0.165,0.095
11:40:22.012,-0.16,0.1
11:40:22.016,-0.175,0.08
11:40:22.020,-0.18,0.1
11:40:22.024,-0.195,0.12
11:40:22.028,-0.18,0.105
11:40:22.032,-0.19,0.095
11:40:22.036,-0.18,0.085
11:40:22.040,-0.19,0.095
11:40:22.044,-0.2,0.095
11:40:22.048,-0.195,0.1
11:40:22.052,-0.18,0.115
11:40:22.056,-0.195,0.11
11:40:22.060,-0.2,0.125
11:40:22.064,-0.195,0.11
11:40:22.068,-0.21,0.125
11:40:22.072,-0.205,0.11
11:40:22.076,-0.21,0.105
11:40:22.080,-0.21,0.095
11:40:22.084,-0.195,0.1
11:40:22.088,-0.19,0.11
11:40:22.092,-0.19,0.115
11:40:22.096,-0.2,0.11
11:40:22.100,-0.185,0.115
11:40:22.104,-0.19,0.13
11:40:22.108,-0.205,0.105
11:40:22.112,-0.22,0.11
11:40:22.116,-0.225,0.1
11:40:22.120,-0.24,0.07
11:40:22.124,-0.215,0.075
11:40:22.128,-0.23,0.095
11:40:22.132,-0.215,0.075
11:40:22.136,-0.21,0.09
11:40:22.140,-0.205,0.105
11:40:22.144,-0.21,0.11
11:40:22.148,-0.2,0.095
11:40:22.152,-0.22,0.09
11:40:22.156,-0.23,0.115
11:40:22.160,-0.24,0.09
11:40:22.164,-0.23,0.1
11:40:22.168,-0.215,0.105
11:40:22.172,-0.215,0.125
11:40:22.176,-0.2,0.09
11:40:22.180,-0.2,0.11
11:40:22.184,-0.215,0.125
11:40:22.188,-0.22,0.11
11:40:22.192,-0.24,0.135
11:40:22.196,-0.255,0.125
11:40:22.200,-0.235,0.11
11:40:22.204,-0.215,0.11
11:40:22.208,-0.225,0.095
11:40:22.212,-0.225,0.09
11:40:22.216,-0.22,0.125
11:40:22.220,-0.215,0.115
11:40:22.224,-0.225,0.13
11:40:22.228,-0.23,0.115
11:40:22.232,-0.235,0.12
11:40:22.236,-0.225,0.115
11:40:22.240,-0.24,0.13
11:40:22.244,-0.24,0.125
11:40:22.248,-0.25,0.12
11:40:22.252,-0.23,0.105
11:40:22.256,-0.215,0.14
11:40:22.260,-0.225,0.125
11:40:22.264,-0.23,0.145
11:40:22.268,-0.21,0.13
11:40:22.272,-0.215,0.125
11:40:22.276,-0.225,0.155
11:40:22.280,-0.22,0.13
11:40:22.284,-0.24,0.145
11:40:22.288,-0.26,0.145
11:40:22.292,-0.26,0.135
11:40:22.296,-0.23,0.14
11:40:22.300,-0.215,0.16
11:40:22.304,-0.22,0.15
11:40:22.308,-0.205,0.14
11:40:22.312,-0.215,0.145
11:40:22.316,-0.23,0.16
11:40:22.320,-0.21,0.155
11:40:22.324,-0.225,0.165
11:40:22.328,-0.2,0.165
11:40:22.332,-0.155,0.145
11:40:22.336,-0.12,0.155
11:40:22.340,-0.1,0.145
11:40:22.344,-0.09,0.18
11:40:22.348,-0.075,0.205
11:40:22.352,-0.055,0.28
11:40:22.356,-0.06,0.305
11:40:22.360,-0.075,0.305
11:40:22.364,-0.055,0.345
11:40:22.368,-0.06,0.335
11:40:22.372,-0.065,0.315
11:40:22.376,-0.065,0.305
11:40:22.380,-0.06,0.275
11:40:22.384,-0.085,0.23
11:40:22.388,-0.08,0.23
11:40:22.392,-0.075,0.225
11:40:22.396,-0.065,0.22
11:40:22.400,-0.035,0.195
11:40:22.404,-0.04,0.19
11:40:22.408,-0.03,0.185
11:40:22.412,-0.055,0.185
11:40:22.416,-0.06,0.2
11:40:22.420,-0.13,0.22
11:40:22.424,-0.195,0.255
11:40:22.428,-0.25,0.245
11:40:22.432,-0.265,0.24
11:40:22.436,-0.3,0.215
11:40:22.440,-0.3,0.185
11:40:22.444,-0.315,0.195
11:40:22.448,-0.32,0.155
11:40:22.452,-0.34,0.14
11:40:22.456,-0.34,0.145
11:40:22.460,-0.35,0.14
11:40:22.464,-0.32,0.115
11:40:22.468,-0.33,0.125
11:40:22.472,-0.33,0.13
11:40:22.476,-0.335,0.15
11:40:22.480,-0.335,0.16
11:40:22.484,-0.34,0.16
11:40:22.488,-0.355,0.18
11:40:22.492,-0.35,0.175
11:40:22.496,-0.36,0.16
11:40:22.500,-0.37,0.16
11:40:22.504,-0.35,0.13
11:40:22.508,-0.34,0.14
11:40:22.512,-0.335,0.145
11:40:22.516,-0.315,0.15
11:40:22.520,-0.32,0.135
11:40:22.524,-0.31,0.145
11:40:22.528,-0.28,0.14
11:40:22.532,-0.24,0.155
11:40:22.536,-0.145,0.145
11:40:22.540,-0.055,0.135
11:40:22.544,-0.005,0.145
11:40:22.548,0.035,0.23
11:40:22.552,0.04,0.315
11:40:22.556,0.015,0.325
11:40:22.560,-0.065,0.04
11:40:22.564,-0.13,-0.52
11:40:22.568,-0.235,-1.185
11:40:22.572,-0.245,-2.005
11:40:22.576,-0.18,-2.915
11:40:22.580,-0.115,-3.695
11:40:22.584,-0.175,-4.225
11:40:22.588,-0.31,-4.565
11:40:22.592,-0.435,-4.78
11:40:22.596,-0.455,-4.875
11:40:22.600,-0.43,-4.92
11:40:22.604,-0.38,-4.855
11:40:22.608,-0.345,-4.725
11:40:22.612,-0.3,-4.6
11:40:22.616,-0.31,-4.51
11:40:22.620,-0.33,-4.4
11:40:22.624,-0.34,-4.265
11:40:22.628,-0.355,-4.105
11:40:22.632,-0.395,-3.855
11:40:22.636,-0.47,-3.53
11:40:22.640,-0.575,-3.205
11:40:22.644,-0.695,-2.855
11:40:22.648,-0.765,-2.44
11:40:22.652,-0.735,-1.92
11:40:22.656,-0.64,-1.465
11:40:22.660,-0.54,-1.09
11:40:22.664,-0.445,-0.76
11:40:22.668,-0.35,-0.515
11:40:22.672,-0.315,-0.285
11:40:22.676,-0.27,-0.09
11:40:22.680,-0.235,0.105
11:40:22.684,-0.24,0.3
11:40:22.688,-0.21,0.46
11:40:22.692,-0.245,0.615
11:40:22.696,-0.23,0.71
11:40:22.700,-0.22,0.78
11:40:22.704,-0.23,0.785
11:40:22.708,-0.22,0.825
11:40:22.712,-0.22,0.84
11:40:22.716,-0.2,0.87
11:40:22.720,-0.21,0.88
11:40:22.724,-0.175,0.895
11:40:22.728,-0.185,0.905
11:40:22.732,-0.17,0.925
11:40:22.736,-0.18,0.92
11:40:22.740,-0.19,0.945
11:40:22.744,-0.19,0.945
11:40:22.748,-0.18,0.965
11:40:22.752,-0.175,0.965
11:40:22.756,-0.17,0.975
11:40:22.760,-0.16,0.965
11:40:22.764,-0.13,0.985
11:40:22.768,-0.11,1.02
11:40:22.772,-0.1,1.02
11:40:22.776,-0.095,1.015
11:40:22.780,-0.07,1.05
11:40:22.784,-0.065,1.055
11:40:22.788,-0.03,1.08
11:40:22.792,-0.015,1.1
11:40:22.796,0.04,1.14
11:40:22.800,0.11,1.17
11:40:22.804,0.205,1.205
11:40:22.808,0.255,1.225
11:40:22.812,0.26,1.285
11:40:22.816,0.225,1.33
11:40:22.820,0.215,1.39
11:40:22.824,0.155,1.455
11:40:22.828,0.085,1.475
11:40:22.832,0.025,1.48
11:40:22.836,-0.005,1.475
11:40:22.840,-0.05,1.46
11:40:22.844,-0.09,1.4
11:40:22.848,-0.12,1.36
11:40:22.852,-0.195,1.33
11:40:22.856,-0.23,1.305
11:40:22.860,-0.305,1.295
11:40:22.864,-0.36,1.27
11:40:22.868,-0.41,1.28
11:40:22.872,-0.435,1.255
11:40:22.876,-0.455,1.26
11:40:22.880,-0.465,1.205
11:40:22.884,-0.46,1.205
11:40:22.888,-0.5,1.23
11:40:22.892,-0.51,1.21
11:40:22.896,-0.525,1.165
11:40:22.900,-0.53,1.145
11:40:22.904,-0.56,1.125
11:40:22.908,-0.58,1.09
11:40:22.912,-0.58,1.035
11:40:22.916,-0.585,1.0
11:40:22.920,-0.585,0.955
11:40:22.924,-0.595,0.91
11:40:22.928,-0.555,0.86
11:40:22.932,-0.575,0.785
11:40:22.936,-0.57,0.745
11:40:22.940,-0.57,0.72
11:40:22.944,-0.56,0.645
11:40:22.948,-0.535,0.61
11:40:22.952,-0.56,0.535
11:40:22.956,-0.545,0.5
11:40:22.960,-0.555,0.425
11:40:22.964,-0.55,0.395
11:40:22.968,-0.54,0.355
11:40:22.972,-0.515,0.3
11:40:22.976,-0.52,0.27
11:40:22.980,-0.495,0.235
11:40:22.984,-0.485,0.235
11:40:22.988,-0.515,0.205
11:40:22.992,-0.51,0.205
11:40:22.996,-0.495,0.195
11:40:23.000,-0.485,0.18
11:40:23.004,-0.47,0.165
11:40:23.008,-0.445,0.175
11:40:23.012,-0.435,0.16
11:40:23.016,-0.42,0.175
11:40:23.020,-0.41,0.21
11:40:23.024,-0.4,0.225
11:40:23.028,-0.39,0.23
11:40:23.032,-0.375,0.225
11:40:23.036,-0.34,0.235
11:40:23.040,-0.32,0.235
11:40:23.044,-0.32,0.26
11:40:23.048,-0.29,0.28
11:40:23.052,-0.235,0.305
11:40:23.056,-0.195,0.315
11:40:23.060,-0.18,0.335
11:40:23.064,-0.105,0.385
11:40:23.068,-0.04,0.39
11:40:23.072,-0.005,0.425
11:40:23.076,0.02,0.465
11:40:23.080,0.045,0.515
11:40:23.084,0.1,0.51
11:40:23.088,0.195,0.54
11:40:23.092,0.325,0.53
11:40:23.096,0.44,0.48
11:40:23.100,0.51,0.44
11:40:23.104,0.525,0.44
11:40:23.108,0.455,0.43
11:40:23.112,0.25,0.39
11:40:23.116,-0.065,0.18
11:40:23.120,-0.32,-0.25
11:40:23.124,-0.39,-0.885
11:40:23.128,-0.37,-1.74
11:40:23.132,-0.29,-2.625
11:40:23.136,-0.315,-3.375
11:40:23.140,-0.465,-3.965
11:40:23.144,-0.63,-4.39
11:40:23.148,-0.675,-4.655
11:40:23.152,-0.545,-4.74
11:40:23.156,-0.45,-4.745
11:40:23.160,-0.37,-4.585
11:40:23.164,-0.29,-4.41
11:40:23.168,-0.32,-4.26
11:40:23.172,-0.395,-4.12
11:40:23.176,-0.44,-3.97
11:40:23.180,-0.485,-3.765
11:40:23.184,-0.54,-3.425
11:40:23.188,-0.58,-3.06
11:40:23.192,-0.63,-2.725
11:40:23.196,-0.675,-2.325
11:40:23.200,-0.59,-1.835
11:40:23.204,-0.475,-1.365
11:40:23.208,-0.41,-0.96
11:40:23.212,-0.38,-0.64
11:40:23.216,-0.355,-0.36
11:40:23.220,-0.36,-0.13
11:40:23.224,-0.345,0.05
11:40:23.228,-0.345,0.24
11:40:23.232,-0.335,0.385
11:40:23.236,-0.325,0.53
11:40:23.240,-0.305,0.63
11:40:23.244,-0.3,0.67
11:40:23.248,-0.3,0.69
11:40:23.252,-0.305,0.74
11:40:23.256,-0.275,0.73
11:40:23.260,-0.225,0.77
11:40:23.264,-0.2,0.82
11:40:23.268,-0.19,0.84
11:40:23.272,-0.165,0.835
11:40:23.276,-0.155,0.855
11:40:23.280,-0.095,0.875
11:40:23.284,-0.075,0.93
11:40:23.288,-0.04,0.945
11:40:23.292,-0.005,0.995
11:40:23.296,0.06,1.015
11:40:23.300,0.1,1.055
11:40:23.304,0.125,1.055
11:40:23.308,0.13,1.055
11:40:23.312,0.105,1.08
11:40:23.316,0.06,1.09
11:40:23.320,0.035,1.08
11:40:23.324,-0.005,1.08
11:40:23.328,-0.03,1.055
11:40:23.332,-0.04,1.06
11:40:23.336,-0.065,1.04
11:40:23.340,-0.085,1.04
11:40:23.344,-0.09,1.02
11:40:23.348,-0.07,0.995
11:40:23.352,-0.1,1.01
11:40:23.356,-0.125,1.015
11:40:23.360,-0.145,1.045
11:40:23.364,-0.16,1.045
11:40:23.368,-0.17,1.055
11:40:23.372,-0.18,1.04
11:40:23.376,-0.18,1.05
11:40:23.380,-0.21,1.075
11:40:23.384,-0.2,1.095
11:40:23.388,-0.2,1.105
11:40:23.392,-0.205,1.095
11:40:23.396,-0.24,1.135
11:40:23.400,-0.26,1.155
11:40:23.404,-0.26,1.16
11:40:23.408,-0.29,1.16
11:40:23.412,-0.285,1.18
11:40:23.416,-0.31,1.175
11:40:23.420,-0.31,1.17
11:40:23.424,-0.3,1.155
11:40:23.428,-0.32,1.165
11:40:23.432,-0.34,1.15
11:40:23.436,-0.355,1.105
11:40:23.440,-0.36,1.07
11:40:23.444,-0.365,1.06
11:40:23.448,-0.37,1.005
11:40:23.452,-0.36,0.95
11:40:23.456,-0.37,0.905
11:40:23.460,-0.375,0.87
11:40:23.464,-0.365,0.815
11:40:23.468,-0.35,0.775
11:40:23.472,-0.32,0.72
11:40:23.476,-0.305,0.69
11:40:23.480,-0.265,0.665
11:40:23.484,-0.255,0.625
11:40:23.488,-0.245,0.615
11:40:23.492,-0.21,0.6
11:40:23.496,-0.18,0.565
11:40:23.500,-0.17,0.565
11:40:23.504,-0.125,0.56
11:40:23.508,-0.085,0.565
11:40:23.512,-0.065,0.54
11:40:23.516,-0.085,0.505
11:40:23.520,-0.065,0.505
11:40:23.524,-0.11,0.47
11:40:23.528,-0.16,0.48
11:40:23.532,-0.175,0.45
11:40:23.536,-0.185,0.41
11:40:23.540,-0.2,0.385
11:40:23.544,-0.21,0.365
11:40:23.548,-0.225,0.34
11:40:23.552,-0.22,0.31
11:40:23.556,-0.22,0.28
11:40:23.560,-0.23,0.29
11:40:23.564,-0.255,0.295
11:40:23.568,-0.305,0.28
11:40:23.572,-0.315,0.26
11:40:23.576,-0.31,0.245
11:40:23.580,-0.305,0.215
11:40:23.584,-0.285,0.225
11:40:23.588,-0.31,0.215
11:40:23.592,-0.32,0.225
11:40:23.596,-0.305,0.22
11:40:23.600,-0.3,0.2
11:40:23.604,-0.305,0.195
11:40:23.608,-0.305,0.2
11:40:23.612,-0.325,0.18
11:40:23.616,-0.31,0.215
11:40:23.620,-0.315,0.2
11:40:23.624,-0.33,0.18
11:40:23.628,-0.315,0.17
11:40:23.632,-0.28,0.165
11:40:23.636,-0.27,0.175
11:40:23.640,-0.28,0.165
11:40:23.644,-0.285,0.17
11:40:23.648,-0.28,0.205
11:40:23.652,-0.265,0.19
11:40:23.656,-0.265,0.205
11:40:23.660,-0.265,0.185
11:40:23.664,-0.235,0.185
11:40:23.668,-0.235,0.195
11:40:23.672,-0.21,0.2
11:40:23.676,-0.195,0.21
11:40:23.680,-0.18,0.21
11:40:23.684,-0.165,0.24
11:40:23.688,-0.16,0.255
11:40:23.692,-0.15,0.29
11:40:23.696,-0.135,0.3
11:40:23.700,-0.11,0.32
11:40:23.704,-0.14,0.32
11:40:23.708,-0.1,0.32
11:40:23.712,-0.08,0.295
11:40:23.716,-0.05,0.285
11:40:23.720,-0.045,0.265
11:40:23.724,-0.025,0.24
11:40:23.728,-0.065,0.24
11:40:23.732,-0.1,0.215
11:40:23.736,-0.145,0.205
11:40:23.740,-0.15,0.215
11:40:23.744,-0.135,0.185
11:40:23.748,-0.095,0.195
11:40:23.752,-0.025,0.185
11:40:23.756,0.075,0.165
11:40:23.760,0.165,0.165
11:40:23.764,0.19,0.2
11:40:23.768,0.175,0.285
11:40:23.772,0.085,0.365
11:40:23.776,-0.065,0.34
11:40:23.780,-0.28,0.065
11:40:23.784,-0.455,-0.44
11:40:23.788,-0.54,-1.08
11:40:23.792,-0.49,-1.925
11:40:23.796,-0.385,-2.82
11:40:23.800,-0.285,-3.595
11:40:23.804,-0.335,-4.125
11:40:23.808,-0.455,-4.425
11:40:23.812,-0.55,-4.615
11:40:23.816,-0.5,-4.735
11:40:23.820,-0.435,-4.775
11:40:23.824,-0.37,-4.705
11:40:23.828,-0.275,-4.58
11:40:23.832,-0.245,-4.45
11:40:23.836,-0.26,-4.31
11:40:23.840,-0.295,-4.22
11:40:23.844,-0.325,-4.085
11:40:23.848,-0.35,-3.85
11:40:23.852,-0.375,-3.585
11:40:23.856,-0.455,-3.29
11:40:23.860,-0.52,-2.92
11:40:23.864,-0.57,-2.515
11:40:23.868,-0.605,-2.065
11:40:23.872,-0.495,-1.62
11:40:23.876,-0.43,-1.255
11:40:23.880,-0.31,-0.9
11:40:23.884,-0.195,-0.6
11:40:23.888,-0.125,-0.355
11:40:23.892,-0.08,-0.145
11:40:23.896,-0.045,0.045
11:40:23.900,-0.02,0.24
11:40:23.904,0.01,0.415
11:40:23.908,0.06,0.58
11:40:23.912,0.07,0.72
11:40:23.916,0.085,0.83
11:40:23.920,0.085,0.885
11:40:23.924,0.115,0.935
11:40:23.928,0.125,0.97
11:40:23.932,0.135,0.99
11:40:23.936,0.125,1.005
11:40:23.940,0.135,1.015
11:40:23.944,0.13,1.0
11:40:23.948,0.105,0.985
11:40:23.952,0.11,0.99
11:40:23.956,0.09,0.965
11:40:23.960,0.08,0.985
11:40:23.964,0.07,0.975
11:40:23.968,0.06,0.955
11:40:23.972,0.085,0.98
11:40:23.976,0.09,0.98
11:40:23.980,0.085,0.995
11:40:23.984,0.095,0.995
11:40:23.988,0.085,1.03
11:40:23.992,0.075,1.035
11:40:23.996,0.07,1.035
11:40:24.000,0.035,1.03
11:40:24.004,0.03,1.035
11:40:24.008,0.06,1.015
11:40:24.012,0.06,1.055
11:40:24.016,0.065,1.1
11:40:24.020,0.07,1.085
11:40:24.024,0.065,1.125
11:40:24.028,0.065,1.14
11:40:24.032,0.09,1.175
11:40:24.036,0.1,1.2
11:40:24.040,0.07,1.225
11:40:24.044,0.07,1.235
11:40:24.048,0.085,1.25
11:40:24.052,0.13,1.265
11:40:24.056,0.105,1.3
11:40:24.060,0.11,1.315
11:40:24.064,0.105,1.335
11:40:24.068,0.11,1.355
11:40:24.072,0.1,1.39
11:40:24.076,0.095,1.38
11:40:24.080,0.125,1.405
11:40:24.084,0.105,1.44
11:40:24.088,0.105,1.45
11:40:24.092,0.105,1.42
11:40:24.096,0.115,1.435
11:40:24.100,0.115,1.41
11:40:24.104,0.115,1.405
11:40:24.108,0.07,1.405
11:40:24.112,0.065,1.38
11:40:24.116,0.07,1.35
11:40:24.120,0.035,1.315
11:40:24.124,0.03,1.265
11:40:24.128,0.035,1.235
11:40:24.132,0.04,1.17
11:40:24.136,0.045,1.095
11:40:24.140,0.04,1.055
11:40:24.144,0.055,0.97
11:40:24.148,0.035,0.895
11:40:24.152,0.015,0.82
11:40:24.156,0.02,0.74
11:40:24.160,-0.025,0.68
11:40:24.164,-0.045,0.6
11:40:24.168,-0.065,0.53
11:40:24.172,-0.075,0.46
11:40:24.176,-0.075,0.415
11:40:24.180,-0.06,0.36
11:40:24.184,-0.075,0.345
11:40:24.188,-0.075,0.315
11:40:24.192,-0.085,0.31
11:40:24.196,-0.11,0.29
11:40:24.200,-0.14,0.26
11:40:24.204,-0.14,0.275
11:40:24.208,-0.13,0.245
11:40:24.212,-0.16,0.225
11:40:24.216,-0.15,0.23
11:40:24.220,-0.155,0.205
11:40:24.224,-0.14,0.21
11:40:24.228,-0.155,0.21
11:40:24.232,-0.115,0.21
11:40:24.236,-0.145,0.215
11:40:24.240,-0.115,0.2
11:40:24.244,-0.12,0.235
11:40:24.248,-0.135,0.25
11:40:24.252,-0.13,0.24
11:40:24.256,-0.12,0.24
11:40:24.260,-0.125,0.235
11:40:24.264,-0.1,0.235
11:40:24.268,-0.085,0.225
11:40:24.272,-0.065,0.235
11:40:24.276,-0.07,0.25
11:40:24.280,-0.075,0.275
11:40:24.284,-0.085,0.28
11:40:24.288,-0.075,0.285
11:40:24.292,-0.06,0.275
11:40:24.296,-0.005,0.28
11:40:24.300,0.045,0.27
11:40:24.304,0.185,0.27
11:40:24.308,0.305,0.245
11:40:24.312,0.335,0.27
11:40:24.316,0.32,0.325
11:40:24.320,0.265,0.4
11:40:24.324,0.17,0.47
11:40:24.328,-0.02,0.375
11:40:24.332,-0.255,0.035
11:40:24.336,-0.42,-0.35
11:40:24.340,-0.525,-0.91
11:40:24.344,-0.505,-1.72
11:40:24.348,-0.415,-2.65
11:40:24.352,-0.37,-3.42
11:40:24.356,-0.395,-3.98
11:40:24.360,-0.445,-4.37
11:40:24.364,-0.445,-4.615
11:40:24.368,-0.395,-4.74
11:40:24.372,-0.335,-4.74
11:40:24.376,-0.265,-4.585
11:40:24.380,-0.16,-4.445
11:40:24.384,-0.105,-4.335
11:40:24.388,-0.105,-4.235
11:40:24.392,-0.105,-4.175
11:40:24.396,-0.08,-4.065
11:40:24.400,-0.105,-3.85
11:40:24.404,-0.15,-3.565
11:40:24.408,-0.245,-3.195
11:40:24.412,-0.28,-2.845
11:40:24.416,-0.32,-2.435
11:40:24.420,-0.32,-1.995
11:40:24.424,-0.28,-1.57
11:40:24.428,-0.23,-1.195
11:40:24.432,-0.175,-0.885
11:40:24.436,-0.095,-0.555
11:40:24.440,-0.035,-0.335
11:40:24.444,-0.04,-0.155
11:40:24.448,-0.04,0.01
11:40:24.452,-0.03,0.2
11:40:24.456,-0.035,0.375
11:40:24.460,-0.02,0.5
11:40:24.464,-0.015,0.61
11:40:24.468,0.005,0.715
11:40:24.472,0.01,0.755
11:40:24.476,0.005,0.785
11:40:24.480,0.04,0.785
11:40:24.484,0.075,0.8
11:40:24.488,0.075,0.855
11:40:24.492,0.09,0.865
11:40:24.496,0.125,0.88
11:40:24.500,0.13,0.905
11:40:24.504,0.13,0.925
11:40:24.508,0.145,0.925
11:40:24.512,0.155,0.94
11:40:24.516,0.16,0.965
11:40:24.520,0.16,0.97
11:40:24.524,0.195,0.96
11:40:24.528,0.21,0.98
11:40:24.532,0.245,1.025
11:40:24.536,0.235,1.025
11:40:24.540,0.255,1.065
11:40:24.544,0.27,1.11
11:40:24.548,0.29,1.13
11:40:24.552,0.31,1.15
11:40:24.556,0.325,1.195
11:40:24.560,0.335,1.2
11:40:24.564,0.335,1.24
11:40:24.568,0.32,1.255
11:40:24.572,0.31,1.27
11:40:24.576,0.315,1.26
11:40:24.580,0.285,1.285
11:40:24.584,0.28,1.275
11:40:24.588,0.28,1.255
11:40:24.592,0.275,1.295
11:40:24.596,0.275,1.275
11:40:24.600,0.235,1.315
11:40:24.604,0.215,1.315
11:40:24.608,0.17,1.34
11:40:24.612,0.17,1.365
11:40:24.616,0.155,1.4
11:40:24.620,0.14,1.385
11:40:24.624,0.12,1.405
11:40:24.628,0.085,1.4
11:40:24.632,0.07,1.395
11:40:24.636,0.015,1.395
11:40:24.640,0.02,1.4
11:40:24.644,-0.01,1.36
11:40:24.648,-0.015,1.325
11:40:24.652,-0.06,1.335
11:40:24.656,-0.095,1.3
11:40:24.660,-0.11,1.23
11:40:24.664,-0.095,1.185
11:40:24.668,-0.115,1.165
11:40:24.672,-0.14,1.12
11:40:24.676,-0.15,1.06
11:40:24.680,-0.175,0.98
11:40:24.684,-0.18,0.925
11:40:24.688,-0.18,0.855
11:40:24.692,-0.19,0.815
11:40:24.696,-0.2,0.745
11:40:24.700,-0.165,0.69
11:40:24.704,-0.18,0.62
11:40:24.708,-0.2,0.59
11:40:24.712,-0.185,0.53
11:40:24.716,-0.19,0.515
11:40:24.720,-0.175,0.455
11:40:24.724,-0.185,0.42
11:40:24.728,-0.185,0.395
11:40:24.732,-0.195,0.39
11:40:24.736,-0.175,0.35
11:40:24.740,-0.18,0.31
11:40:24.744,-0.185,0.29
11:40:24.748,-0.16,0.3
11:40:24.752,-0.14,0.275
11:40:24.756,-0.13,0.3
11:40:24.760,-0.145,0.28
11:40:24.764,-0.14,0.275
11:40:24.768,-0.16,0.3
11:40:24.772,-0.155,0.275
11:40:24.776,-0.15,0.31
11:40:24.780,-0.11,0.295
11:40:24.784,-0.065,0.31
11:40:24.788,-0.05,0.305
11:40:24.792,-0.02,0.315
11:40:24.796,-0.01,0.34
11:40:24.800,-0.02,0.35
11:40:24.804,-0.025,0.375
11:40:24.808,-0.05,0.345
11:40:24.812,-0.02,0.34
11:40:24.816,-0.015,0.33
11:40:24.820,-0.055,0.29
11:40:24.824,-0.08,0.27
11:40:24.828,-0.09,0.255
11:40:24.832,-0.095,0.24
11:40:24.836,-0.115,0.23
11:40:24.840,-0.125,0.22
11:40:24.844,-0.13,0.205
11:40:24.848,-0.145,0.2
11:40:24.852,-0.16,0.19
11:40:24.856,-0.19,0.21
11:40:24.860,-0.185,0.195
11:40:24.864,-0.19,0.16
11:40:24.868,-0.18,0.125
11:40:24.872,-0.19,0.13
11:40:24.876,-0.21,0.115
11:40:24.880,-0.21,0.125
11:40:24.884,-0.225,0.105
11:40:24.888,-0.215,0.095
11:40:24.892,-0.235,0.115
11:40:24.896,-0.255,0.095
11:40:24.900,-0.26,0.085
11:40:24.904,-0.25,0.07
11:40:24.908,-0.24,0.06
11:40:24.912,-0.215,0.065
11:40:24.916,-0.2,0.05
11:40:24.920,-0.12,0.05
11:40:24.924,0.01,0.055
11:40:24.928,0.075,0.08
11:40:24.932,0.125,0.105
11:40:24.936,0.12,0.17
11:40:24.940,0.095,0.25
11:40:24.944,0.015,0.285
11:40:24.948,-0.11,0.1
11:40:24.952,-0.22,-0.34
11:40:24.956,-0.325,-0.88
11:40:24.960,-0.355,-1.58
11:40:24.964,-0.31,-2.45
11:40:24.968,-0.25,-3.315
11:40:24.972,-0.28,-3.975
11:40:24.976,-0.465,-4.42
11:40:24.980,-0.69,-4.795
11:40:24.984,-0.84,-5.01
11:40:24.988,-0.835,-5.07
11:40:24.992,-0.775,-5.05
11:40:24.996,-0.72,-4.965
11:40:25.000,-0.62,-4.815
11:40:25.004,-0.54,-4.69
11:40:25.008,-0.53,-4.605
11:40:25.012,-0.525,-4.485
11:40:25.016,-0.525,-4.35
11:40:25.020,-0.545,-4.155
11:40:25.024,-0.555,-3.89
11:40:25.028,-0.595,-3.53
11:40:25.032,-0.6,-3.16
11:40:25.036,-0.62,-2.755
11:40:25.040,-0.63,-2.3
11:40:25.044,-0.535,-1.795
11:40:25.048,-0.46,-1.405
11:40:25.052,-0.385,-1.04
11:40:25.056,-0.29,-0.745
11:40:25.060,-0.205,-0.47
11:40:25.064,-0.19,-0.27
11:40:25.068,-0.17,-0.07
11:40:25.072,-0.18,0.07
11:40:25.076,-0.15,0.26
11:40:25.080,-0.13,0.395
11:40:25.084,-0.155,0.54
11:40:25.088,-0.15,0.63
11:40:25.092,-0.145,0.71
11:40:25.096,-0.14,0.74
11:40:25.100,-0.16,0.785
11:40:25.104,-0.16,0.81
11:40:25.108,-0.15,0.84
11:40:25.112,-0.17,0.85
11:40:25.116,-0.155,0.865
11:40:25.120,-0.145,0.88
11:40:25.124,-0.155,0.895
11:40:25.128,-0.14,0.9
11:40:25.132,-0.13,0.925
11:40:25.136,-0.1,0.94
11:40:25.140,-0.08,0.935
11:40:25.144,-0.095,0.965
11:40:25.148,-0.1,0.995
11:40:25.152,-0.08,0.995
11:40:25.156,-0.09,1.03
11:40:25.160,-0.055,1.045
11:40:25.164,-0.075,1.035
11:40:25.168,-0.055,1.075
11:40:25.172,-0.04,1.075
11:40:25.176,-0.04,1.09
11:40:25.180,-0.01,1.115
11:40:25.184,0.01,1.13
11:40:25.188,-0.01,1.165
11:40:25.192,-0.02,1.19
11:40:25.196,-0.02,1.22
11:40:25.200,-0.01,1.225
11:40:25.204,-0.015,1.25
11:40:25.208,-0.03,1.24
11:40:25.212,-0.02,1.28
11:40:25.216,-0.01,1.29
11:40:25.220,0.0,1.33
11:40:25.224,0.015,1.335
11:40:25.228,-0.03,1.38
11:40:25.232,-0.04,1.385
11:40:25.236,-0.06,1.425
11:40:25.240,-0.065,1.445
11:40:25.244,-0.085,1.49
11:40:25.248,-0.09,1.47
11:40:25.252,-0.075,1.485
11:40:25.256,-0.06,1.495
11:40:25.260,-0.06,1.52
11:40:25.264,-0.07,1.51
11:40:25.268,-0.07,1.505
11:40:25.272,-0.1,1.5
11:40:25.276,-0.12,1.49
11:40:25.280,-0.165,1.46
11:40:25.284,-0.165,1.43
11:40:25.288,-0.175,1.35
11:40:25.292,-0.195,1.26
11:40:25.296,-0.225,1.22
11:40:25.300,-0.22,1.16
11:40:25.304,-0.23,1.11
11:40:25.308,-0.23,1.05
11:40:25.312,-0.25,0.99
11:40:25.316,-0.27,0.925
11:40:25.320,-0.275,0.85
11:40:25.324,-0.275,0.78
11:40:25.328,-0.28,0.725
11:40:25.332,-0.29,0.65
11:40:25.336,-0.275,0.57
11:40:25.340,-0.3,0.53
11:40:25.344,-0.33,0.47
11:40:25.348,-0.34,0.42
11:40:25.352,-0.31,0.405
11:40:25.356,-0.33,0.37
11:40:25.360,-0.315,0.34
11:40:25.364,-0.34,0.3
11:40:25.368,-0.335,0.305
11:40:25.372,-0.36,0.285
11:40:25.376,-0.36,0.28
11:40:25.380,-0.355,0.265
11:40:25.384,-0.36,0.26
11:40:25.388,-0.355,0.235
11:40:25.392,-0.355,0.23
11:40:25.396,-0.335,0.215
11:40:25.400,-0.315,0.225
11:40:25.404,-0.31,0.21
11:40:25.408,-0.305,0.23
11:40:25.412,-0.3,0.23
11:40:25.416,-0.315,0.215
11:40:25.420,-0.305,0.235
11:40:25.424,-0.305,0.235
11:40:25.428,-0.3,0.22
11:40:25.432,-0.32,0.215
11:40:25.436,-0.31,0.235
11:40:25.440,-0.32,0.255
11:40:25.444,-0.285,0.265
11:40:25.448,-0.265,0.215
11:40:25.452,-0.27,0.25
11:40:25.456,-0.265,0.27
11:40:25.460,-0.26,0.26
11:40:25.464,-0.29,0.27
11:40:25.468,-0.29,0.295
11:40:25.472,-0.27,0.305
11:40:25.476,-0.23,0.295
11:40:25.480,-0.21,0.335
11:40:25.484,-0.2,0.345
11:40:25.488,-0.185,0.345
11:40:25.492,-0.15,0.34
11:40:25.496,-0.185,0.32
11:40:25.500,-0.215,0.33
11:40:25.504,-0.2,0.28
11:40:25.508,-0.215,0.275
11:40:25.512,-0.225,0.235
11:40:25.516,-0.23,0.23
11:40:25.520,-0.22,0.21
11:40:25.524,-0.23,0.22
11:40:25.528,-0.22,0.19
11:40:25.532,-0.23,0.18
11:40:25.536,-0.225,0.18
11:40:25.540,-0.215,0.17
11:40:25.544,-0.235,0.17
11:40:25.548,-0.25,0.16
11:40:25.552,-0.27,0.13
11:40:25.556,-0.285,0.13
11:40:25.560,-0.3,0.11
11:40:25.564,-0.305,0.115
11:40:25.568,-0.31,0.11
11:40:25.572,-0.325,0.095
11:40:25.576,-0.325,0.075
11:40:25.580,-0.34,0.09
11:40:25.584,-0.335,0.075
11:40:25.588,-0.34,0.075
11:40:25.592,-0.345,0.065
11:40:25.596,-0.36,0.07
11:40:25.600,-0.36,0.075
11:40:25.604,-0.35,0.06
11:40:25.608,-0.345,0.075
11:40:25.612,-0.365,0.06
11:40:25.616,-0.36,0.045
11:40:25.620,-0.335,0.065
11:40:25.624,-0.335,0.08
11:40:25.628,-0.35,0.075
11:40:25.632,-0.345,0.07
11:40:25.636,-0.33,0.065
11:40:25.640,-0.305,0.05
11:40:25.644,-0.235,0.055
11:40:25.648,-0.1,0.08
11:40:25.652,0.02,0.095
11:40:25.656,0.075,0.115
11:40:25.660,0.055,0.2
11:40:25.664,0.035,0.28
11:40:25.668,-0.065,0.355
11:40:25.672,-0.24,0.2
11:40:25.676,-0.41,-0.215
11:40:25.680,-0.56,-0.75
11:40:25.684,-0.615,-1.45
11:40:25.688,-0.555,-2.37
11:40:25.692,-0.4,-3.26
11:40:25.696,-0.36,-3.91
11:40:25.700,-0.485,-4.375
11:40:25.704,-0.67,-4.75
11:40:25.708,-0.785,-4.965
11:40:25.712,-0.735,-5.02
11:40:25.716,-0.68,-5.01
11:40:25.720,-0.625,-4.905
11:40:25.724,-0.53,-4.765
11:40:25.728,-0.48,-4.62
11:40:25.732,-0.48,-4.51
11:40:25.736,-0.46,-4.41
11:40:25.740,-0.44,-4.28
11:40:25.744,-0.505,-4.095
11:40:25.748,-0.55,-3.855
11:40:25.752,-0.625,-3.52
11:40:25.756,-0.665,-3.225
11:40:25.760,-0.755,-2.855
11:40:25.764,-0.795,-2.445
11:40:25.768,-0.75,-1.985
11:40:25.772,-0.665,-1.52
11:40:25.776,-0.57,-1.205
11:40:25.780,-0.445,-0.88
11:40:25.784,-0.385,-0.63
11:40:25.788,-0.36,-0.4
11:40:25.792,-0.315,-0.17
11:40:25.796,-0.315,0.03
11:40:25.800,-0.295,0.235
11:40:25.804,-0.3,0.36
11:40:25.808,-0.32,0.515
11:40:25.812,-0.305,0.62
11:40:25.816,-0.285,0.685
11:40:25.820,-0.285,0.715
11:40:25.824,-0.24,0.72
11:40:25.828,-0.22,0.765
11:40:25.832,-0.23,0.805
11:40:25.836,-0.205,0.835
11:40:25.840,-0.175,0.865
11:40:25.844,-0.18,0.865
11:40:25.848,-0.15,0.91
11:40:25.852,-0.13,0.915
11:40:25.856,-0.13,0.93
11:40:25.860,-0.12,0.925
11:40:25.864,-0.09,0.95
11:40:25.868,-0.055,0.98
11:40:25.872,-0.08,1.005
11:40:25.876,-0.065,1.03
11:40:25.880,-0.025,1.03
11:40:25.884,-0.02,1.08
11:40:25.888,-0.015,1.07
11:40:25.892,0.015,1.1
11:40:25.896,0.025,1.14
11:40:25.900,0.05,1.165
11:40:25.904,0.075,1.19
11:40:25.908,0.09,1.22
11:40:25.912,0.075,1.26
11:40:25.916,0.07,1.26
11:40:25.920,0.085,1.26
11:40:25.924,0.05,1.27
11:40:25.928,0.07,1.235
11:40:25.932,0.06,1.235
11:40:25.936,0.06,1.24
11:40:25.940,0.045,1.24
11:40:25.944,0.01,1.26
11:40:25.948,-0.005,1.25
11:40:25.952,-0.04,1.3
11:40:25.956,-0.065,1.305
11:40:25.960,-0.08,1.335
11:40:25.964,-0.1,1.365
11:40:25.968,-0.125,1.37
11:40:25.972,-0.14,1.38
11:40:25.976,-0.17,1.38
11:40:25.980,-0.18,1.38
11:40:25.984,-0.215,1.37
11:40:25.988,-0.22,1.365
11:40:25.992,-0.235,1.355
11:40:25.996,-0.26,1.35
11:40:26.000,-0.275,1.31
11:40:26.004,-0.295,1.32
11:40:26.008,-0.32,1.275
11:40:26.012,-0.36,1.235
11:40:26.016,-0.365,1.185
11:40:26.020,-0.395,1.125
11:40:26.024,-0.43,1.055
11:40:26.028,-0.425,0.995
11:40:26.032,-0.44,0.945
11:40:26.036,-0.415,0.88
11:40:26.040,-0.445,0.805
11:40:26.044,-0.44,0.77
11:40:26.048,-0.445,0.675
11:40:26.052,-0.465,0.635
11:40:26.056,-0.46,0.56
11:40:26.060,-0.445,0.52
11:40:26.064,-0.44,0.48
11:40:26.068,-0.43,0.435
11:40:26.072,-0.42,0.39
11:40:26.076,-0.39,0.365
11:40:26.080,-0.38,0.35
11:40:26.084,-0.385,0.33
11:40:26.088,-0.385,0.325
11:40:26.092,-0.355,0.3
11:40:26.096,-0.365,0.3
11:40:26.100,-0.355,0.31
11:40:26.104,-0.32,0.31
11:40:26.108,-0.31,0.285
11:40:26.112,-0.26,0.33
11:40:26.116,-0.28,0.315
11:40:26.120,-0.23,0.31
11:40:26.124,-0.205,0.35
11:40:26.128,-0.19,0.37
11:40:26.132,-0.205,0.36
11:40:26.136,-0.18,0.365
11:40:26.140,-0.2,0.355
11:40:26.144,-0.2,0.33
11:40:26.148,-0.235,0.32
11:40:26.152,-0.265,0.295
11:40:26.156,-0.275,0.275
11:40:26.160,-0.28,0.245
11:40:26.164,-0.265,0.24
11:40:26.168,-0.27,0.225
11:40:26.172,-0.27,0.245
11:40:26.176,-0.29,0.23
11:40:26.180,-0.31,0.195
11:40:26.184,-0.325,0.215
11:40:26.188,-0.345,0.225
11:40:26.192,-0.35,0.235
11:40:26.196,-0.35,0.195
11:40:26.200,-0.34,0.2
11:40:26.204,-0.345,0.21
11:40:26.208,-0.33,0.2
11:40:26.212,-0.3,0.185
11:40:26.216,-0.21,0.18
11:40:26.220,-0.065,0.17
11:40:26.224,0.085,0.175
11:40:26.228,0.155,0.195
11:40:26.232,0.165,0.235
11:40:26.236,0.095,0.325
11:40:26.240,-0.05,0.35
11:40:26.244,-0.2,0.185
11:40:26.248,-0.32,-0.235
11:40:26.252,-0.375,-0.795
11:40:26.256,-0.385,-1.575
11:40:26.260,-0.27,-2.515
11:40:26.264,-0.215,-3.36
11:40:26.268,-0.27,-4.01
11:40:26.272,-0.505,-4.455
11:40:26.276,-0.705,-4.795
11:40:26.280,-0.82,-4.97
11:40:26.284,-0.79,-5.01
11:40:26.288,-0.765,-4.98
11:40:26.292,-0.73,-4.84
11:40:26.296,-0.7,-4.695
11:40:26.300,-0.65,-4.575
11:40:26.304,-0.64,-4.445
11:40:26.308,-0.655,-4.35
11:40:26.312,-0.705,-4.19
11:40:26.316,-0.72,-3.93
11:40:26.320,-0.755,-3.58
11:40:26.324,-0.78,-3.22
11:40:26.328,-0.815,-2.8
11:40:26.332,-0.8,-2.32
11:40:26.336,-0.68,-1.795
11:40:26.340,-0.545,-1.325
11:40:26.344,-0.42,-1.025
11:40:26.348,-0.3,-0.72
11:40:26.352,-0.25,-0.46
11:40:26.356,-0.22,-0.24
11:40:26.360,-0.19,-0.055
11:40:26.364,-0.18,0.145
11:40:26.368,-0.15,0.33
11:40:26.372,-0.175,0.465
11:40:26.376,-0.22,0.61
11:40:26.380,-0.225,0.695
11:40:26.384,-0.26,0.745
11:40:26.388,-0.265,0.795
11:40:26.392,-0.27,0.84
11:40:26.396,-0.265,0.855
11:40:26.400,-0.23,0.87
11:40:26.404,-0.23,0.875
11:40:26.408,-0.23,0.88
11:40:26.412,-0.22,0.92
11:40:26.416,-0.195,0.91
11:40:26.420,-0.205,0.97
11:40:26.424,-0.2,0.995
11:40:26.428,-0.185,1.0
11:40:26.432,-0.185,1.045
11:40:26.436,-0.165,1.06
11:40:26.440,-0.155,1.04
11:40:26.444,-0.15,1.08
11:40:26.448,-0.15,1.07
11:40:26.452,-0.11,1.085
11:40:26.456,-0.095,1.11
11:40:26.460,-0.08,1.13
11:40:26.464,-0.055,1.145
11:40:26.468,-0.045,1.195
11:40:26.472,-0.055,1.23
11:40:26.476,-0.03,1.24
11:40:26.480,-0.005,1.27
11:40:26.484,0.0,1.29
11:40:26.488,0.01,1.3
11:40:26.492,0.03,1.325
11:40:26.496,0.05,1.34
11:40:26.500,0.08,1.35
11:40:26.504,0.09,1.38
11:40:26.508,0.075,1.42
11:40:26.512,0.085,1.435
11:40:26.516,0.09,1.47
11:40:26.520,0.09,1.5
11:40:26.524,0.105,1.525
11:40:26.528,0.1,1.545
11:40:26.532,0.095,1.54
11:40:26.536,0.125,1.58
11:40:26.540,0.145,1.585
11:40:26.544,0.15,1.6
11:40:26.548,0.13,1.59
11:40:26.552,0.07,1.565
11:40:26.556,0.05,1.535
11:40:26.560,0.015,1.475
11:40:26.564,-0.03,1.405
11:40:26.568,-0.065,1.325
11:40:26.572,-0.125,1.24
11:40:26.576,-0.135,1.19
11:40:26.580,-0.18,1.115
11:40:26.584,-0.18,1.04
11:40:26.588,-0.225,0.975
11:40:26.592,-0.235,0.895
11:40:26.596,-0.265,0.835
11:40:26.600,-0.255,0.75
11:40:26.604,-0.295,0.69
11:40:26.608,-0.33,0.63
11:40:26.612,-0.345,0.57
11:40:26.616,-0.355,0.52
11:40:26.620,-0.37,0.485
11:40:26.624,-0.355,0.425
11:40:26.628,-0.37,0.385
11:40:26.632,-0.375,0.36
11:40:26.636,-0.365,0.35
11:40:26.640,-0.39,0.33
11:40:26.644,-0.41,0.315
11:40:26.648,-0.41,0.29
11:40:26.652,-0.395,0.275
11:40:26.656,-0.385,0.31
11:40:26.660,-0.38,0.28
11:40:26.664,-0.365,0.275
11:40:26.668,-0.38,0.28
11:40:26.672,-0.37,0.265
11:40:26.676,-0.355,0.275
11:40:26.680,-0.36,0.295
11:40:26.684,-0.365,0.3
11:40:26.688,-0.37,0.295
11:40:26.692,-0.37,0.295
11:40:26.696,-0.375,0.285
11:40:26.700,-0.345,0.285
11:40:26.704,-0.33,0.295
11:40:26.708,-0.315,0.31
11:40:26.712,-0.31,0.285
11:40:26.716,-0.29,0.29
11:40:26.720,-0.3,0.28
11:40:26.724,-0.275,0.305
11:40:26.728,-0.285,0.31
11:40:26.732,-0.28,0.32
11:40:26.736,-0.25,0.31
11:40:26.740,-0.24,0.32
11:40:26.744,-0.195,0.335
11:40:26.748,-0.195,0.315
11:40:26.752,-0.195,0.35
11:40:26.756,-0.175,0.365
11:40:26.760,-0.17,0.345
11:40:26.764,-0.2,0.35
11:40:26.768,-0.21,0.325
11:40:26.772,-0.21,0.295
11:40:26.776,-0.235,0.27
11:40:26.780,-0.255,0.265
11:40:26.784,-0.27,0.23
11:40:26.788,-0.265,0.2
11:40:26.792,-0.285,0.185
11:40:26.796,-0.31,0.205
11:40:26.800,-0.34,0.165
11:40:26.804,-0.36,0.15
11:40:26.808,-0.365,0.135
11:40:26.812,-0.38,0.15
11:40:26.816,-0.355,0.105
11:40:26.820,-0.365,0.11
11:40:26.824,-0.345,0.095
11:40:26.828,-0.34,0.095
11:40:26.832,-0.34,0.1
11:40:26.836,-0.36,0.12
11:40:26.840,-0.365,0.11
11:40:26.844,-0.375,0.085
11:40:26.848,-0.39,0.11
11:40:26.852,-0.4,0.12
11:40:26.856,-0.39,0.125
11:40:26.860,-0.41,0.105
11:40:26.864,-0.42,0.1
11:40:26.868,-0.4,0.095
11:40:26.872,-0.395,0.095
11:40:26.876,-0.39,0.095
11:40:26.880,-0.395,0.095
11:40:26.884,-0.4,0.11
11:40:26.888,-0.42,0.12
11:40:26.892,-0.42,0.12
11:40:26.896,-0.39,0.105
11:40:26.900,-0.39,0.105
11:40:26.904,-0.37,0.095
11:40:26.908,-0.355,0.08
11:40:26.912,-0.305,0.09
11:40:26.916,-0.22,0.09
11:40:26.920,-0.095,0.1
11:40:26.924,0.025,0.12
11:40:26.928,0.06,0.145
11:40:26.932,0.035,0.255
11:40:26.936,-0.005,0.375
11:40:26.940,-0.155,0.335
11:40:26.944,-0.335,0.025
11:40:26.948,-0.505,-0.52
11:40:26.952,-0.59,-1.2
11:40:26.956,-0.55,-2.1
11:40:26.960,-0.395,-3.055
11:40:26.964,-0.355,-3.81
11:40:26.968,-0.47,-4.325
11:40:26.972,-0.685,-4.735
11:40:26.976,-0.895,-4.965
11:40:26.980,-0.9,-5.06
11:40:26.984,-0.835,-5.02
11:40:26.988,-0.82,-4.92
11:40:26.992,-0.735,-4.805
11:40:26.996,-0.67,-4.665
11:40:27.000,-0.64,-4.52
11:40:27.004,-0.665,-4.44
11:40:27.008,-0.7,-4.34
11:40:27.012,-0.735,-4.105
11:40:27.016,-0.79,-3.8
11:40:27.020,-0.825,-3.505
11:40:27.024,-0.83,-3.17
11:40:27.028,-0.85,-2.78
11:40:27.032,-0.86,-2.365
11:40:27.036,-0.76,-1.845
11:40:27.040,-0.65,-1.41
11:40:27.044,-0.515,-1.035
11:40:27.048,-0.445,-0.72
11:40:27.052,-0.385,-0.46
11:40:27.056,-0.355,-0.26
11:40:27.060,-0.32,-0.035
11:40:27.064,-0.295,0.175
11:40:27.068,-0.295,0.355
11:40:27.072,-0.29,0.505
11:40:27.076,-0.28,0.64
11:40:27.080,-0.27,0.715
11:40:27.084,-0.25,0.765
11:40:27.088,-0.255,0.79
11:40:27.092,-0.255,0.84
11:40:27.096,-0.255,0.865
11:40:27.100,-0.245,0.88
11:40:27.104,-0.21,0.9
11:40:27.108,-0.2,0.91
11:40:27.112,-0.2,0.935
11:40:27.116,-0.175,0.96
11:40:27.120,-0.14,0.965
11:40:27.124,-0.12,0.985
11:40:27.128,-0.105,1.0
11:40:27.132,-0.095,1.01
11:40:27.136,-0.095,1.025
11:40:27.140,-0.08,1.055
11:40:27.144,-0.085,1.08
11:40:27.148,-0.07,1.095
11:40:27.152,-0.05,1.105
11:40:27.156,-0.04,1.12
11:40:27.160,-0.015,1.135
11:40:27.164,0.005,1.16
11:40:27.168,0.025,1.165
11:40:27.172,0.015,1.2
11:40:27.176,0.04,1.225
11:40:27.180,0.04,1.255
11:40:27.184,0.055,1.265
11:40:27.188,0.075,1.295
11:40:27.192,0.09,1.325
11:40:27.196,0.11,1.345
11:40:27.200,0.17,1.36
11:40:27.204,0.22,1.405
11:40:27.208,0.25,1.44
11:40:27.212,0.265,1.485
11:40:27.216,0.265,1.53
11:40:27.220,0.235,1.565
11:40:27.224,0.23,1.605
11:40:27.228,0.175,1.63
11:40:27.232,0.125,1.66
11:40:27.236,0.055,1.655
11:40:27.240,0.01,1.605
11:40:27.244,-0.02,1.54
11:40:27.248,-0.025,1.51
11:40:27.252,-0.02,1.465
11:40:27.256,-0.07,1.445
11:40:27.260,-0.105,1.39
11:40:27.264,-0.165,1.38
11:40:27.268,-0.195,1.355
11:40:27.272,-0.275,1.28
11:40:27.276,-0.315,1.235
11:40:27.280,-0.355,1.18
11:40:27.284,-0.35,1.12
11:40:27.288,-0.355,1.06
11:40:27.292,-0.375,0.97
11:40:27.296,-0.385,0.925
11:40:27.300,-0.4,0.86
11:40:27.304,-0.42,0.81
11:40:27.308,-0.45,0.75
11:40:27.312,-0.465,0.675
11:40:27.316,-0.445,0.62
11:40:27.320,-0.46,0.56
11:40:27.324,-0.47,0.51
11:40:27.328,-0.445,0.445
11:40:27.332,-0.425,0.41
11:40:27.336,-0.415,0.385
11:40:27.340,-0.435,0.37
11:40:27.344,-0.435,0.33
11:40:27.348,-0.42,0.345
11:40:27.352,-0.445,0.305
11:40:27.356,-0.44,0.3
11:40:27.360,-0.45,0.29
11:40:27.364,-0.445,0.29
11:40:27.368,-0.425,0.3
11:40:27.372,-0.41,0.3
11:40:27.376,-0.4,0.295
11:40:27.380,-0.39,0.305
11:40:27.384,-0.38,0.315
11:40:27.388,-0.4,0.325
11:40:27.392,-0.385,0.34
11:40:27.396,-0.37,0.34
11:40:27.400,-0.35,0.32
11:40:27.404,-0.37,0.345
11:40:27.408,-0.305,0.335
11:40:27.412,-0.3,0.35
11:40:27.416,-0.26,0.35
11:40:27.420,-0.26,0.37
11:40:27.424,-0.23,0.375
11:40:27.428,-0.24,0.41
11:40:27.432,-0.23,0.395
11:40:27.436,-0.205,0.41
11:40:27.440,-0.18,0.43
11:40:27.444,-0.14,0.435
11:40:27.448,-0.115,0.44
11:40:27.452,-0.125,0.46
11:40:27.456,-0.12,0.465
11:40:27.460,-0.12,0.47
11:40:27.464,-0.135,0.51
11:40:27.468,-0.16,0.55
11:40:27.472,-0.19,0.57
11:40:27.476,-0.2,0.565
11:40:27.480,-0.22,0.505
11:40:27.484,-0.215,0.45
11:40:27.488,-0.215,0.4
11:40:27.492,-0.215,0.37
11:40:27.496,-0.21,0.375
11:40:27.500,-0.205,0.37
11:40:27.504,-0.22,0.355
11:40:27.508,-0.24,0.36
11:40:27.512,-0.25,0.38
11:40:27.516,-0.25,0.345
11:40:27.520,-0.28,0.335
11:40:27.524,-0.31,0.33
11:40:27.528,-0.32,0.275
11:40:27.532,-0.285,0.27
11:40:27.536,-0.28,0.26
11:40:27.540,-0.275,0.265
11:40:27.544,-0.29,0.255
11:40:27.548,-0.3,0.25
11:40:27.552,-0.295,0.23
11:40:27.556,-0.26,0.245
11:40:27.560,-0.175,0.225
11:40:27.564,-0.01,0.215
11:40:27.568,0.125,0.22
11:40:27.572,0.2,0.26
11:40:27.576,0.22,0.325
11:40:27.580,0.16,0.45
11:40:27.584,-0.01,0.46
11:40:27.588,-0.185,0.16
11:40:27.592,-0.365,-0.34
11:40:27.596,-0.47,-1.025
11:40:27.600,-0.465,-1.925
11:40:27.604,-0.37,-2.895
11:40:27.608,-0.355,-3.67
11:40:27.612,-0.52,-4.205
11:40:27.616,-0.74,-4.65
11:40:27.620,-0.92,-4.89
11:40:27.624,-0.915,-4.975
11:40:27.628,-0.855,-4.955
11:40:27.632,-0.835,-4.875
11:40:27.636,-0.795,-4.765
11:40:27.640,-0.775,-4.64
11:40:27.644,-0.785,-4.52
11:40:27.648,-0.78,-4.42
11:40:27.652,-0.78,-4.27
11:40:27.656,-0.8,-4.06
11:40:27.660,-0.81,-3.765
11:40:27.664,-0.785,-3.455
11:40:27.668,-0.79,-3.07
11:40:27.672,-0.79,-2.63
11:40:27.676,-0.745,-2.11
11:40:27.680,-0.625,-1.595
11:40:27.684,-0.52,-1.18
11:40:27.688,-0.385,-0.775
11:40:27.692,-0.25,-0.47
11:40:27.696,-0.185,-0.215
11:40:27.700,-0.135,-0.025
11:40:27.704,-0.105,0.145
11:40:27.708,-0.115,0.325
11:40:27.712,-0.135,0.48
11:40:27.716,-0.125,0.61
11:40:27.720,-0.13,0.735
11:40:27.724,-0.14,0.805
11:40:27.728,-0.12,0.855
11:40:27.732,-0.135,0.885
11:40:27.736,-0.145,0.88
11:40:27.740,-0.115,0.925
11:40:27.744,-0.09,0.925
11:40:27.748,-0.055,0.945
11:40:27.752,-0.08,0.955
11:40:27.756,-0.09,0.97
11:40:27.760,-0.085,0.97
11:40:27.764,-0.1,0.975
11:40:27.768,-0.085,0.99
11:40:27.772,-0.105,0.995
11:40:27.776,-0.07,1.005
11:40:27.780,-0.065,1.015
11:40:27.784,-0.045,1.025
11:40:27.788,-0.03,1.05
11:40:27.792,-0.005,1.09
11:40:27.796,0.0,1.095
11:40:27.800,0.0,1.1
11:40:27.804,0.015,1.135
11:40:27.808,0.02,1.155
11:40:27.812,0.04,1.165
11:40:27.816,0.045,1.16
11:40:27.820,0.075,1.18
11:40:27.824,0.08,1.205
11:40:27.828,0.105,1.25
11:40:27.832,0.105,1.27
11:40:27.836,0.125,1.305
11:40:27.840,0.13,1.31
11:40:27.844,0.145,1.35
11:40:27.848,0.13,1.36
11:40:27.852,0.12,1.395
11:40:27.856,0.155,1.405
11:40:27.860,0.165,1.43
11:40:27.864,0.185,1.46
11:40:27.868,0.21,1.495
11:40:27.872,0.24,1.51
11:40:27.876,0.25,1.54
11:40:27.880,0.26,1.515
11:40:27.884,0.245,1.545
11:40:27.888,0.24,1.585
11:40:27.892,0.23,1.575
11:40:27.896,0.205,1.535
11:40:27.900,0.195,1.52
11:40:27.904,0.185,1.485
11:40:27.908,0.16,1.445
11:40:27.912,0.12,1.4
11:40:27.916,0.065,1.32
11:40:27.920,0.015,1.28
11:40:27.924,-0.015,1.24
11:40:27.928,-0.05,1.195
11:40:27.932,-0.11,1.125
11:40:27.936,-0.115,1.06
11:40:27.940,-0.16,1.0
11:40:27.944,-0.165,0.92
11:40:27.948,-0.19,0.835
11:40:27.952,-0.215,0.8
11:40:27.956,-0.23,0.71
11:40:27.960,-0.265,0.66
11:40:27.964,-0.3,0.61
11:40:27.968,-0.305,0.555
11:40:27.972,-0.32,0.545
11:40:27.976,-0.32,0.51
11:40:27.980,-0.325,0.465
11:40:27.984,-0.32,0.425
11:40:27.988,-0.325,0.41
11:40:27.992,-0.315,0.395
11:40:27.996,-0.355,0.355
11:40:28.000,-0.32,0.345
11:40:28.004,-0.31,0.36
11:40:28.008,-0.33,0.355
11:40:28.012,-0.325,0.345
11:40:28.016,-0.335,0.34
11:40:28.020,-0.335,0.345
11:40:28.024,-0.325,0.325
11:40:28.028,-0.335,0.34
11:40:28.032,-0.33,0.34
11:40:28.036,-0.31,0.305
11:40:28.040,-0.3,0.315
11:40:28.044,-0.29,0.31
11:40:28.048,-0.275,0.325
11:40:28.052,-0.285,0.33
11:40:28.056,-0.3,0.335
11:40:28.060,-0.28,0.36
11:40:28.064,-0.28,0.34
11:40:28.068,-0.275,0.35
11:40:28.072,-0.24,0.34
11:40:28.076,-0.24,0.33
11:40:28.080,-0.255,0.33
11:40:28.084,-0.25,0.33
11:40:28.088,-0.26,0.33
11:40:28.092,-0.23,0.335
11:40:28.096,-0.23,0.335
11:40:28.100,-0.235,0.335
11:40:28.104,-0.23,0.305
11:40:28.108,-0.235,0.3
11:40:28.112,-0.235,0.3
11:40:28.116,-0.245,0.31
11:40:28.120,-0.215,0.3
11:40:28.124,-0.235,0.305
11:40:28.128,-0.215,0.28
11:40:28.132,-0.19,0.315
11:40:28.136,-0.195,0.29
11:40:28.140,-0.185,0.31
11:40:28.144,-0.2,0.315
11:40:28.148,-0.19,0.3
11:40:28.152,-0.205,0.26
11:40:28.156,-0.23,0.26
11:40:28.160,-0.225,0.235
11:40:28.164,-0.185,0.265
11:40:28.168,-0.175,0.24
11:40:28.172,-0.17,0.265
11:40:28.176,-0.18,0.26
11:40:28.180,-0.16,0.245
11:40:28.184,-0.17,0.28
11:40:28.188,-0.185,0.24
11:40:28.192,-0.19,0.26
11:40:28.196,-0.16,0.265
11:40:28.200,-0.165,0.265
11:40:28.204,-0.135,0.26
11:40:28.208,-0.17,0.255
11:40:28.212,-0.17,0.255
11:40:28.216,-0.155,0.26
11:40:28.220,-0.17,0.27
11:40:28.224,-0.15,0.28
11:40:28.228,-0.16,0.295
11:40:28.232,-0.175,0.285
11:40:28.236,-0.16,0.295
11:40:28.240,-0.15,0.275
11:40:28.244,-0.145,0.26
11:40:28.248,-0.145,0.26
11:40:28.252,-0.155,0.275
11:40:28.256,-0.145,0.25
11:40:28.260,-0.125,0.245
11:40:28.264,-0.14,0.235
11:40:28.268,-0.14,0.255
11:40:28.272,-0.135,0.25
11:40:28.276,-0.14,0.265
11:40:28.280,-0.15,0.245
11:40:28.284,-0.14,0.25
11:40:28.288,-0.135,0.23
11:40:28.292,-0.135,0.24
11:40:28.296,-0.125,0.24
11:40:28.300,-0.115,0.23
11:40:28.304,-0.105,0.225
11:40:28.308,-0.135,0.22
11:40:28.312,-0.12,0.225
11:40:28.316,-0.16,0.22
11:40:28.320,-0.145,0.23
11:40:28.324,-0.145,0.195
11:40:28.328,-0.135,0.195
11:40:28.332,-0.13,0.185
11:40:28.336,-0.095,0.195
11:40:28.340,-0.12,0.175
11:40:28.344,-0.125,0.2
11:40:28.348,-0.12,0.195
11:40:28.352,-0.13,0.205
11:40:28.356,-0.125,0.22
11:40:28.360,-0.125,0.23
11:40:28.364,-0.135,0.215
11:40:28.368,-0.14,0.205
11:40:28.372,-0.14,0.205
11:40:28.376,-0.13,0.19
11:40:28.380,-0.09,0.205
11:40:28.384,-0.075,0.23
11:40:28.388,-0.08,0.22
11:40:28.392,-0.105,0.23
11:40:28.396,-0.1,0.205
11:40:28.400,-0.105,0.245
11:40:28.404,-0.095,0.25
11:40:28.408,-0.1,0.23
11:40:28.412,-0.085,0.23
11:40:28.416,-0.1,0.235
11:40:28.420,-0.1,0.235
11:40:28.424,-0.08,0.23
11:40:28.428,-0.09,0.22
11:40:28.432,-0.055,0.21
11:40:28.436,-0.075,0.225
11:40:28.440,-0.075,0.235
11:40:28.444,-0.08,0.225
11:40:28.448,-0.075,0.215
11:40:28.452,-0.065,0.24
11:40:28.456,-0.075,0.205
11:40:28.460,-0.06,0.22
11:40:28.464,-0.055,0.215
11:40:28.468,-0.04,0.19
11:40:28.472,-0.02,0.215
11:40:28.476,-0.03,0.21
11:40:28.480,-0.04,0.205
11:40:28.484,-0.055,0.205
11:40:28.488,-0.07,0.18
11:40:28.492,-0.075,0.195
11:40:28.496,-0.04,0.185
11:40:28.500,-0.045,0.18
11:40:28.504,-0.045,0.18
11:40:28.508,-0.055,0.17
11:40:28.512,-0.04,0.165
11:40:28.516,-0.035,0.175
11:40:28.520,-0.02,0.17
11:40:28.524,-0.02,0.185
11:40:28.528,-0.04,0.175
11:40:28.532,-0.025,0.21
11:40:28.536,-0.005,0.2
11:40:28.540,-0.025,0.165
11:40:28.544,-0.035,0.155
11:40:28.548,-0.035,0.145
11:40:28.552,-0.01,0.145
11:40:28.556,0.0,0.15
11:40:28.560,0.015,0.13
11:40:28.564,-0.015,0.155
11:40:28.568,-0.01,0.135
11:40:28.572,0.0,0.145
11:40:28.576,0.0,0.135
11:40:28.580,0.0,0.125
11:40:28.584,-0.01,0.14
11:40:28.588,-0.015,0.14
11:40:28.592,-0.015,0.095
11:40:28.596,0.01,0.12
11:40:28.600,0.0,0.13
11:40:28.604,0.035,0.14
11:40:28.608,0.03,0.13
11:40:28.612,0.02,0.15
11:40:28.616,0.02,0.135
11:40:28.620,0.005,0.125
11:40:28.624,-0.01,0.125
11:40:28.628,-0.005,0.12
11:40:28.632,0.0,0.125
11:40:28.636,0.045,0.125
11:40:28.640,0.04,0.1
11:40:28.644,0.05,0.12
11:40:28.648,0.04,0.135
11:40:28.652,0.04,0.145
11:40:28.656,0.03,0.155
11:40:28.660,0.045,0.165
11:40:28.664,0.045,0.13
11:40:28.668,0.045,0.125
11:40:28.672,0.035,0.125
11:40:28.676,0.06,0.115
11:40:28.680,0.055,0.115
11:40:28.684,0.075,0.12
11:40:28.688,0.065,0.12
11:40:28.692,0.06,0.145
11:40:28.696,0.055,0.125
11:40:28.700,0.05,0.165
11:40:28.704,0.06,0.145
11:40:28.708,0.07,0.14
11:40:28.712,0.055,0.135
11:40:28.716,0.06,0.125
11:40:28.720,0.06,0.115
11:40:28.724,0.065,0.12
11:40:28.728,0.075,0.12
11:40:28.732,0.075,0.13
11:40:28.736,0.075,0.155
11:40:28.740,0.07,0.15
11:40:28.744,0.085,0.17
11:40:28.748,0.075,0.175
11:40:28.752,0.08,0.155
11:40:28.756,0.09,0.15
11:40:28.760,0.08,0.155
11:40:28.764,0.07,0.115
11:40:28.768,0.085,0.13
11:40:28.772,0.085,0.11
11:40:28.776,0.12,0.12
11:40:28.780,0.095,0.135
11:40:28.784,0.11,0.13
11:40:28.788,0.09,0.14
11:40:28.792,0.065,0.15
11:40:28.796,0.09,0.13
11:40:28.800,0.07,0.155
11:40:28.804,0.075,0.165
11:40:28.808,0.095,0.155
11:40:28.812,0.1,0.145
11:40:28.816,0.12,0.15
11:40:28.820,0.105,0.17
11:40:28.824,0.085,0.16
11:40:28.828,0.09,0.165
11:40:28.832,0.09,0.17
11:40:28.836,0.085,0.155
11:40:28.840,0.07,0.17
11:40:28.844,0.095,0.16
11:40:28.848,0.095,0.145
11:40:28.852,0.09,0.145
11:40:28.856,0.115,0.145
11:40:28.860,0.1,0.145
11:40:28.864,0.125,0.135
11:40:28.868,0.12,0.145
11:40:28.872,0.12,0.16
11:40:28.876,0.115,0.16
11:40:28.880,0.1,0.165
11:40:28.884,0.085,0.17
11:40:28.888,0.1,0.145
11:40:28.892,0.105,0.14
11:40:28.896,0.115,0.145
11:40:28.900,0.125,0.145
11:40:28.904,0.11,0.155
11:40:28.908,0.115,0.12
11:40:28.912,0.135,0.145
11:40:28.916,0.125,0.13
11:40:28.920,0.11,0.15
11:40:28.924,0.115,0.18
11:40:28.928,0.105,0.145
11:40:28.932,0.115,0.13
11:40:28.936,0.12,0.135
11:40:28.940,0.115,0.15
11:40:28.944,0.135,0.12
11:40:28.948,0.12,0.145
11:40:28.952,0.13,0.14
11:40:28.956,0.12,0.135
11:40:28.960,0.115,0.14
11:40:28.964,0.1,0.15
11:40:28.968,0.105,0.12
11:40:28.972,0.1,0.155
11:40:28.976,0.095,0.13
11:40:28.980,0.095,0.125
11:40:28.984,0.1,0.105
11:40:28.988,0.115,0.115
11:40:28.992,0.115,0.11
11:40:28.996,0.12,0.135
11:40:29.000,0.115,0.12
11:40:29.004,0.11,0.14
11:40:29.008,0.085,0.155
11:40:29.012,0.08,0.14
11:40:29.016,0.085,0.12
11:40:29.020,0.075,0.105
11:40:29.024,0.1,0.105
11:40:29.028,0.105,0.115
11:40:29.032,0.085,0.13
11:40:29.036,0.095,0.135
11:40:29.040,0.105,0.135
11:40:29.044,0.12,0.14
11:40:29.048,0.1,0.16
11:40:29.052,0.11,0.15
11:40:29.056,0.095,0.145
11:40:29.060,0.1,0.135
11:40:29.064,0.07,0.145
11:40:29.068,0.09,0.145
11:40:29.072,0.09,0.115
11:40:29.076,0.115,0.11
11:40:29.080,0.095,0.145
11:40:29.084,0.125,0.13
11:40:29.088,0.105,0.135
11:40:29.092,0.11,0.115
11:40:29.096,0.08,0.14
11:40:29.100,0.08,0.125
11:40:29.104,0.075,0.12
11:40:29.108,0.09,0.1
11:40:29.112,0.085,0.085
11:40:29.116,0.085,0.095
11:40:29.120,0.08,0.09
11:40:29.124,0.075,0.085
11:40:29.128,0.07,0.09
11:40:29.132,0.08,0.095
11:40:29.136,0.095,0.11
11:40:29.140,0.085,0.11
11:40:29.144,0.08,0.115
11:40:29.148,0.075,0.12
11:40:29.152,0.08,0.13
11:40:29.156,0.125,0.115
11:40:29.160,0.15,0.125
11:40:29.164,0.19,0.125
11:40:29.168,0.21,0.135
11:40:29.172,0.22,0.18
11:40:29.176,0.24,0.195
11:40:29.180,0.235,0.215
11:40:29.184,0.22,0.26
11:40:29.188,0.215,0.27
11:40:29.192,0.205,0.225
11:40:29.196,0.165,0.22
11:40:29.200,0.165,0.195
11:40:29.204,0.18,0.2
11:40:29.208,0.175,0.175
11:40:29.212,0.19,0.155
11:40:29.216,0.185,0.13
11:40:29.220,0.205,0.105
11:40:29.224,0.21,0.1
11:40:29.228,0.215,0.095
11:40:29.232,0.245,0.105
11:40:29.236,0.21,0.115
11:40:29.240,0.18,0.1
11:40:29.244,0.155,0.145
11:40:29.248,0.105,0.175
11:40:29.252,0.065,0.185
11:40:29.256,0.04,0.185
11:40:29.260,0.025,0.165
11:40:29.264,0.0,0.115
11:40:29.268,0.02,0.095
11:40:29.272,0.01,0.095
11:40:29.276,-0.025,0.09
11:40:29.280,-0.025,0.07
11:40:29.284,-0.01,0.07
11:40:29.288,0.005,0.04
11:40:29.292,0.005,0.05
11:40:29.296,-0.01,0.05
11:40:29.300,0.0,0.055
11:40:29.304,-0.005,0.045
11:40:29.308,-0.025,0.065
11:40:29.312,-0.025,0.085
11:40:29.316,-0.01,0.07
11:40:29.320,-0.02,0.075
11:40:29.324,-0.025,0.055
11:40:29.328,-0.02,0.07
11:40:29.332,-0.025,0.07
11:40:29.336,-0.02,0.05
11:40:29.340,-0.005,0.07
11:40:29.344,0.0,0.085
11:40:29.348,0.0,0.08
11:40:29.352,0.0,0.08
11:40:29.356,0.0,0.055
11:40:29.360,0.005,0.06
11:40:29.364,0.075,0.06
11:40:29.368,0.165,0.045
11:40:29.372,0.26,0.065
11:40:29.376,0.315,0.1
11:40:29.380,0.325,0.155
11:40:29.384,0.35,0.24
11:40:29.388,0.33,0.275
11:40:29.392,0.275,0.04
11:40:29.396,0.2,-0.475
11:40:29.400,0.115,-1.075
11:40:29.404,0.135,-1.795
11:40:29.408,0.18,-2.65
11:40:29.412,0.23,-3.455
11:40:29.416,0.2,-4.035
11:40:29.420,0.07,-4.445
11:40:29.424,-0.04,-4.715
11:40:29.428,-0.06,-4.865
11:40:29.432,-0.03,-4.935
11:40:29.436,0.025,-4.895
11:40:29.440,0.055,-4.775
11:40:29.444,0.105,-4.625
11:40:29.448,0.1,-4.5
11:40:29.452,0.085,-4.385
11:40:29.456,0.085,-4.3
11:40:29.460,0.07,-4.185
11:40:29.464,0.05,-3.985
11:40:29.468,-0.035,-3.69
11:40:29.472,-0.145,-3.385
11:40:29.476,-0.265,-3.065
11:40:29.480,-0.35,-2.645
11:40:29.484,-0.39,-2.165
11:40:29.488,-0.365,-1.74
11:40:29.492,-0.33,-1.36
11:40:29.496,-0.26,-1.02
11:40:29.500,-0.17,-0.74
11:40:29.504,-0.08,-0.51
11:40:29.508,-0.055,-0.305
11:40:29.512,-0.015,-0.145
11:40:29.516,-0.02,0.035
11:40:29.520,-0.015,0.21
11:40:29.524,0.005,0.365
11:40:29.528,0.005,0.51
11:40:29.532,-0.02,0.605
11:40:29.536,-0.01,0.69
11:40:29.540,0.005,0.705
11:40:29.544,-0.005,0.725
11:40:29.548,0.01,0.755
11:40:29.552,0.02,0.77
11:40:29.556,0.025,0.79
11:40:29.560,0.03,0.795
11:40:29.564,0.025,0.815
11:40:29.568,0.015,0.825
11:40:29.572,0.02,0.83
11:40:29.576,0.025,0.85
11:40:29.580,0.015,0.865
11:40:29.584,0.035,0.865
11:40:29.588,0.05,0.87
11:40:29.592,0.06,0.855
11:40:29.596,0.07,0.865
11:40:29.600,0.075,0.885
11:40:29.604,0.075,0.915
11:40:29.608,0.085,0.92
11:40:29.612,0.075,0.93
11:40:29.616,0.07,0.94
11:40:29.620,0.085,0.97
11:40:29.624,0.085,0.955
11:40:29.628,0.08,0.945
11:40:29.632,0.075,0.975
11:40:29.636,0.065,0.995
11:40:29.640,0.09,0.985
11:40:29.644,0.11,1.01
11:40:29.648,0.07,1.025
11:40:29.652,0.07,1.055
11:40:29.656,0.04,1.07
11:40:29.660,0.045,1.115
11:40:29.664,0.03,1.125
11:40:29.668,0.03,1.13
11:40:29.672,0.005,1.13
11:40:29.676,-0.005,1.15
11:40:29.680,-0.005,1.14
11:40:29.684,-0.015,1.17
11:40:29.688,-0.04,1.175
11:40:29.692,-0.03,1.175
11:40:29.696,-0.07,1.195
11:40:29.700,-0.095,1.225
11:40:29.704,-0.12,1.25
11:40:29.708,-0.14,1.205
11:40:29.712,-0.14,1.22
11:40:29.716,-0.16,1.205
11:40:29.720,-0.18,1.205
11:40:29.724,-0.205,1.205
11:40:29.728,-0.21,1.195
11:40:29.732,-0.19,1.185
11:40:29.736,-0.21,1.18
11:40:29.740,-0.24,1.16
11:40:29.744,-0.26,1.12
11:40:29.748,-0.26,1.11
11:40:29.752,-0.27,1.06
11:40:29.756,-0.275,1.065
11:40:29.760,-0.28,1.04
11:40:29.764,-0.275,0.965
11:40:29.768,-0.255,0.94
11:40:29.772,-0.265,0.905
11:40:29.776,-0.27,0.85
11:40:29.780,-0.25,0.795
11:40:29.784,-0.265,0.77
11:40:29.788,-0.255,0.72
11:40:29.792,-0.25,0.68
11:40:29.796,-0.26,0.64
11:40:29.800,-0.255,0.58
11:40:29.804,-0.25,0.51
11:40:29.808,-0.22,0.47
11:40:29.812,-0.205,0.425
11:40:29.816,-0.18,0.41
11:40:29.820,-0.19,0.38
11:40:29.824,-0.205,0.345
11:40:29.828,-0.195,0.34
11:40:29.832,-0.185,0.3
11:40:29.836,-0.175,0.295
11:40:29.840,-0.17,0.255
11:40:29.844,-0.18,0.275
11:40:29.848,-0.18,0.21
11:40:29.852,-0.17,0.21
11:40:29.856,-0.12,0.215
11:40:29.860,-0.145,0.205
11:40:29.864,-0.135,0.205
11:40:29.868,-0.11,0.21
11:40:29.872,-0.12,0.195
11:40:29.876,-0.11,0.215
11:40:29.880,-0.12,0.195
11:40:29.884,-0.135,0.195
11:40:29.888,-0.11,0.195
11:40:29.892,-0.08,0.195
11:40:29.896,-0.07,0.195
11:40:29.900,-0.085,0.18
11:40:29.904,-0.065,0.21
11:40:29.908,-0.085,0.215
11:40:29.912,-0.06,0.2
11:40:29.916,-0.08,0.23
11:40:29.920,-0.08,0.23
11:40:29.924,-0.08,0.24
11:40:29.928,-0.095,0.23
11:40:29.932,-0.06,0.235
11:40:29.936,-0.08,0.24
11:40:29.940,-0.065,0.23
11:40:29.944,-0.07,0.29
11:40:29.948,-0.085,0.275
11:40:29.952,-0.075,0.28
11:40:29.956,-0.095,0.29
11:40:29.960,-0.09,0.305
11:40:29.964,-0.11,0.285
11:40:29.968,-0.08,0.27
11:40:29.972,-0.095,0.265
11:40:29.976,-0.09,0.29
11:40:29.980,-0.095,0.275
11:40:29.984,-0.1,0.255
11:40:29.988,-0.1,0.235
11:40:29.992,-0.1,0.23
11:40:29.996,-0.1,0.225
11:40:30.000,-0.09,0.235
11:40:30.004,-0.105,0.24
11:40:30.008,-0.125,0.215
11:40:30.012,-0.145,0.205
11:40:30.016,-0.12,0.195
11:40:30.020,-0.12,0.175
11:40:30.024,-0.135,0.18
11:40:30.028,-0.13,0.17
11:40:30.032,-0.125,0.155
11:40:30.036,-0.13,0.135
11:40:30.040,-0.125,0.16
11:40:30.044,-0.14,0.135
11:40:30.048,-0.15,0.14
11:40:30.052,-0.16,0.155
11:40:30.056,-0.145,0.115
11:40:30.060,-0.135,0.13
11:40:30.064,-0.155,0.13
11:40:30.068,-0.135,0.115
11:40:30.072,-0.1,0.13
11:40:30.076,-0.11,0.145
11:40:30.080,-0.1,0.14
11:40:30.084,-0.13,0.14
11:40:30.088,-0.15,0.13
11:40:30.092,-0.14,0.135
11:40:30.096,-0.125,0.12
11:40:30.100,-0.125,0.13
11:40:30.104,-0.125,0.135
11:40:30.108,-0.1,0.095
11:40:30.112,-0.085,0.115
11:40:30.116,-0.09,0.105
11:40:30.120,-0.09,0.125
11:40:30.124,-0.09,0.13
11:40:30.128,-0.08,0.12
11:40:30.132,-0.09,0.115
11:40:30.136,-0.1,0.11
11:40:30.140,-0.105,0.12
11:40:30.144,-0.095,0.1
11:40:30.148,-0.06,0.105
11:40:30.152,-0.045,0.11
11:40:30.156,-0.06,0.105
11:40:30.160,-0.065,0.075
11:40:30.164,-0.06,0.085
11:40:30.168,-0.04,0.11
11:40:30.172,-0.075,0.11
11:40:30.176,-0.07,0.13
11:40:30.180,-0.04,0.115
11:40:30.184,-0.04,0.125
11:40:30.188,-0.045,0.11
11:40:30.192,-0.035,0.105
11:40:30.196,-0.02,0.09
11:40:30.200,-0.045,0.085
11:40:30.204,-0.025,0.095
11:40:30.208,-0.025,0.085
11:40:30.212,-0.02,0.115
11:40:30.216,-0.005,0.095
11:40:30.220,-0.01,0.105
11:40:30.224,-0.015,0.12
11:40:30.228,-0.02,0.1
11:40:30.232,-0.015,0.075
11:40:30.236,-0.025,0.06
11:40:30.240,0.0,0.07
11:40:30.244,0.0,0.08
11:40:30.248,-0.005,0.065
11:40:30.252,-0.01,0.07
11:40:30.256,-0.005,0.08
11:40:30.260,-0.01,0.09
11:40:30.264,-0.015,0.09
11:40:30.268,0.0,0.08
11:40:30.272,0.0,0.07
11:40:30.276,0.005,0.075
11:40:30.280,0.005,0.08
11:40:30.284,0.005,0.055
11:40:30.288,-0.005,0.055
11:40:30.292,-0.015,0.07
11:40:30.296,0.0,0.085
11:40:30.300,-0.01,0.065
11:40:30.304,-0.02,0.06
11:40:30.308,-0.01,0.035
11:40:30.312,0.0,0.05
11:40:30.316,0.005,0.035
11:40:30.320,0.03,0.035
11:40:30.324,0.055,0.02
11:40:30.328,0.085,0.06
11:40:30.332,0.105,0.06
11:40:30.336,0.15,0.065
11:40:30.340,0.155,0.1
11:40:30.344,0.175,0.135
11:40:30.348,0.19,0.165
11:40:30.352,0.145,0.18
11:40:30.356,0.13,0.205
11:40:30.360,0.125,0.21
11:40:30.364,0.115,0.175
11:40:30.368,0.09,0.165
11:40:30.372,0.07,0.14
11:40:30.376,0.055,0.125
11:40:30.380,0.08,0.11
11:40:30.384,0.095,0.08
11:40:30.388,0.11,0.08
11:40:30.392,0.125,0.055
11:40:30.396,0.145,0.055
11:40:30.400,0.15,0.02
11:40:30.404,0.135,0.035
11:40:30.408,0.11,0.065
11:40:30.412,0.08,0.075
11:40:30.416,0.03,0.115
11:40:30.420,-0.025,0.14
11:40:30.424,-0.065,0.13
11:40:30.428,-0.065,0.09
11:40:30.432,-0.085,0.06
11:40:30.436,-0.085,0.05
11:40:30.440,-0.115,0.005
11:40:30.444,-0.115,0.01
11:40:30.448,-0.105,0.005
11:40:30.452,-0.115,0.01
11:40:30.456,-0.1,0.025
11:40:30.460,-0.12,0.01
11:40:30.464,-0.125,0.0
11:40:30.468,-0.13,0.025
11:40:30.472,-0.12,0.04
11:40:30.476,-0.12,0.025
11:40:30.480,-0.14,0.015
11:40:30.484,-0.155,-0.01
11:40:30.488,-0.145,0.0
11:40:30.492,-0.135,0.0
11:40:30.496,-0.16,-0.01
11:40:30.500,-0.15,-0.01
11:40:30.504,-0.16,-0.01
11:40:30.508,-0.13,0.01
11:40:30.512,-0.16,0.015
11:40:30.516,-0.17,0.015
11:40:30.520,-0.155,0.0
11:40:30.524,-0.145,-0.015
11:40:30.528,-0.105,-0.01
11:40:30.532,0.005,-0.025
11:40:30.536,0.125,-0.035
11:40:30.540,0.135,-0.005
11:40:30.544,0.12,0.07
11:40:30.548,0.115,0.155
11:40:30.552,0.085,0.2
11:40:30.556,-0.015,-0.005
11:40:30.560,-0.12,-0.53
11:40:30.564,-0.225,-1.16
11:40:30.568,-0.275,-1.87
11:40:30.572,-0.205,-2.75
11:40:30.576,-0.15,-3.595
11:40:30.580,-0.135,-4.205
11:40:30.584,-0.225,-4.57
11:40:30.588,-0.34,-4.835
11:40:30.592,-0.355,-4.96
11:40:30.596,-0.33,-5.015
11:40:30.600,-0.295,-4.98
11:40:30.604,-0.22,-4.835
11:40:30.608,-0.17,-4.705
11:40:30.612,-0.17,-4.565
11:40:30.616,-0.2,-4.465
11:40:30.620,-0.185,-4.325
11:40:30.624,-0.205,-4.18
11:40:30.628,-0.21,-3.92
11:40:30.632,-0.315,-3.605
11:40:30.636,-0.4,-3.265
11:40:30.640,-0.485,-2.86
11:40:30.644,-0.54,-2.42
11:40:30.648,-0.53,-1.97
11:40:30.652,-0.435,-1.57
11:40:30.656,-0.365,-1.21
11:40:30.660,-0.26,-0.89
11:40:30.664,-0.16,-0.635
11:40:30.668,-0.11,-0.41
11:40:30.672,-0.08,-0.23
11:40:30.676,-0.08,-0.025
11:40:30.680,-0.055,0.155
11:40:30.684,-0.045,0.315
11:40:30.688,-0.065,0.475
11:40:30.692,-0.04,0.58
11:40:30.696,-0.025,0.64
11:40:30.700,-0.015,0.665
11:40:30.704,-0.01,0.7
11:40:30.708,-0.01,0.705
11:40:30.712,-0.005,0.745
11:40:30.716,0.01,0.75
11:40:30.720,-0.005,0.78
11:40:30.724,0.005,0.795
11:40:30.728,0.025,0.81
11:40:30.732,0.02,0.81
11:40:30.736,0.035,0.805
11:40:30.740,0.045,0.845
11:40:30.744,0.055,0.845
11:40:30.748,0.055,0.87
11:40:30.752,0.055,0.885
11:40:30.756,0.095,0.9
11:40:30.760,0.1,0.93
11:40:30.764,0.09,0.96
11:40:30.768,0.095,0.955
11:40:30.772,0.135,0.985
11:40:30.776,0.155,0.98
11:40:30.780,0.2,1.005
11:40:30.784,0.245,1.03
11:40:30.788,0.25,1.05
11:40:30.792,0.305,1.08
11:40:30.796,0.395,1.125
11:40:30.800,0.43,1.155
11:40:30.804,0.475,1.22
11:40:30.808,0.485,1.275
11:40:30.812,0.485,1.31
11:40:30.816,0.455,1.375
11:40:30.820,0.385,1.43
11:40:30.824,0.35,1.49
11:40:30.828,0.28,1.48
11:40:30.832,0.24,1.475
11:40:30.836,0.175,1.43
11:40:30.840,0.155,1.425
11:40:30.844,0.085,1.4
11:40:30.848,0.06,1.39
11:40:30.852,0.015,1.35
11:40:30.856,-0.03,1.315
11:40:30.860,-0.075,1.34
11:40:30.864,-0.085,1.29
11:40:30.868,-0.105,1.285
11:40:30.872,-0.125,1.27
11:40:30.876,-0.14,1.27
11:40:30.880,-0.17,1.26
11:40:30.884,-0.19,1.24
11:40:30.888,-0.225,1.185
11:40:30.892,-0.215,1.165
11:40:30.896,-0.245,1.12
11:40:30.900,-0.27,1.09
11:40:30.904,-0.285,1.03
11:40:30.908,-0.3,0.99
11:40:30.912,-0.31,0.935
11:40:30.916,-0.31,0.875
11:40:30.920,-0.315,0.8
11:40:30.924,-0.31,0.735
11:40:30.928,-0.325,0.66
11:40:30.932,-0.335,0.585
11:40:30.936,-0.32,0.535
11:40:30.940,-0.34,0.455
11:40:30.944,-0.33,0.38
11:40:30.948,-0.315,0.315
11:40:30.952,-0.305,0.275
11:40:30.956,-0.31,0.245
11:40:30.960,-0.295,0.205
11:40:30.964,-0.305,0.155
11:40:30.968,-0.31,0.135
11:40:30.972,-0.32,0.105
11:40:30.976,-0.31,0.075
11:40:30.980,-0.3,0.055
11:40:30.984,-0.295,0.035
11:40:30.988,-0.285,0.005
11:40:30.992,-0.29,-0.01
11:40:30.996,-0.25,-0.005
11:40:31.000,-0.235,-0.01
11:40:31.004,-0.24,-0.025
11:40:31.008,-0.24,0.0
11:40:31.012,-0.21,-0.01
11:40:31.016,-0.175,0.01
11:40:31.020,-0.095,0.015
11:40:31.024,0.035,-0.005
11:40:31.028,0.2,0.0
11:40:31.032,0.355,-0.025
11:40:31.036,0.45,-0.01
11:40:31.040,0.45,0.015
11:40:31.044,0.42,0.06
11:40:31.048,0.24,0.0
11:40:31.052,-0.01,-0.31
11:40:31.056,-0.155,-0.795
11:40:31.060,-0.14,-1.475
11:40:31.064,0.0,-2.27
11:40:31.068,0.1,-3.01
11:40:31.072,0.04,-3.63
11:40:31.076,-0.12,-4.13
11:40:31.080,-0.27,-4.385
11:40:31.084,-0.23,-4.555
11:40:31.088,-0.155,-4.64
11:40:31.092,-0.125,-4.585
11:40:31.096,-0.07,-4.475
11:40:31.100,0.005,-4.305
11:40:31.104,-0.01,-4.21
11:40:31.108,-0.07,-4.145
11:40:31.112,-0.13,-4.025
11:40:31.116,-0.225,-3.805
11:40:31.120,-0.28,-3.475
11:40:31.124,-0.325,-3.04
11:40:31.128,-0.365,-2.64
11:40:31.132,-0.355,-2.205
11:40:31.136,-0.32,-1.735
11:40:31.140,-0.255,-1.275
11:40:31.144,-0.245,-0.935
11:40:31.148,-0.25,-0.665
11:40:31.152,-0.26,-0.415
11:40:31.156,-0.275,-0.22
11:40:31.160,-0.28,-0.03
11:40:31.164,-0.295,0.105
11:40:31.168,-0.295,0.24
11:40:31.172,-0.3,0.33
11:40:31.176,-0.29,0.41
11:40:31.180,-0.29,0.45
11:40:31.184,-0.29,0.46
11:40:31.188,-0.285,0.475
11:40:31.192,-0.255,0.51
11:40:31.196,-0.22,0.535
11:40:31.200,-0.19,0.56
11:40:31.204,-0.2,0.56
11:40:31.208,-0.205,0.55
11:40:31.212,-0.195,0.61
11:40:31.216,-0.155,0.59
11:40:31.220,-0.135,0.65
11:40:31.224,-0.12,0.635
11:40:31.228,-0.12,0.69
11:40:31.232,-0.125,0.675
11:40:31.236,-0.095,0.69
11:40:31.240,-0.075,0.69
11:40:31.244,-0.045,0.725
11:40:31.248,-0.03,0.74
11:40:31.252,-0.02,0.77
11:40:31.256,0.0,0.8
11:40:31.260,0.005,0.8
11:40:31.264,0.015,0.82
11:40:31.268,0.065,0.88
11:40:31.272,0.07,0.92
11:40:31.276,0.115,0.945
11:40:31.280,0.17,0.97
11:40:31.284,0.195,1.0
11:40:31.288,0.215,1.055
11:40:31.292,0.245,1.095
11:40:31.296,0.25,1.145
11:40:31.300,0.235,1.15
11:40:31.304,0.185,1.165
11:40:31.308,0.145,1.16
11:40:31.312,0.11,1.17
11:40:31.316,0.06,1.135
11:40:31.320,0.01,1.14
11:40:31.324,0.01,1.11
11:40:31.328,-0.025,1.085
11:40:31.332,-0.065,1.09
11:40:31.336,-0.085,1.09
11:40:31.340,-0.125,1.085
11:40:31.344,-0.145,1.07
11:40:31.348,-0.215,1.05
11:40:31.352,-0.235,1.045
11:40:31.356,-0.255,1.0
11:40:31.360,-0.27,0.93
11:40:31.364,-0.3,0.895
11:40:31.368,-0.305,0.86
11:40:31.372,-0.335,0.8
11:40:31.376,-0.34,0.78
11:40:31.380,-0.36,0.735
11:40:31.384,-0.36,0.68
11:40:31.388,-0.35,0.615
11:40:31.392,-0.36,0.56
11:40:31.396,-0.36,0.5
11:40:31.400,-0.34,0.435
11:40:31.404,-0.33,0.385
11:40:31.408,-0.31,0.35
11:40:31.412,-0.29,0.315
11:40:31.416,-0.285,0.29
11:40:31.420,-0.265,0.25
11:40:31.424,-0.24,0.24
11:40:31.428,-0.215,0.23
11:40:31.432,-0.22,0.205
11:40:31.436,-0.2,0.21
11:40:31.440,-0.19,0.195
11:40:31.444,-0.17,0.17
11:40:31.448,-0.16,0.185
11:40:31.452,-0.14,0.18
11:40:31.456,-0.14,0.195
11:40:31.460,-0.13,0.19
11:40:31.464,-0.11,0.2
11:40:31.468,-0.115,0.2
11:40:31.472,-0.12,0.225
11:40:31.476,-0.095,0.24
11:40:31.480,-0.02,0.235
11:40:31.484,0.005,0.255
11:40:31.488,0.05,0.25
11:40:31.492,0.075,0.255
11:40:31.496,0.08,0.275
11:40:31.500,0.09,0.31
11:40:31.504,0.115,0.33
11:40:31.508,0.11,0.325
11:40:31.512,0.09,0.335
11:40:31.516,0.07,0.285
11:40:31.520,0.025,0.28
11:40:31.524,0.005,0.24
11:40:31.528,-0.01,0.24
11:40:31.532,-0.015,0.21
11:40:31.536,-0.035,0.18
11:40:31.540,-0.065,0.18
11:40:31.544,-0.06,0.145
11:40:31.548,-0.11,0.15
11:40:31.552,-0.14,0.12
11:40:31.556,-0.125,0.115
11:40:31.560,-0.16,0.1
11:40:31.564,-0.16,0.07
11:40:31.568,-0.2,0.05
11:40:31.572,-0.19,0.03
11:40:31.576,-0.2,0.005
11:40:31.580,-0.205,0.01
11:40:31.584,-0.205,0.025
11:40:31.588,-0.24,0.01
11:40:31.592,-0.255,0.0
11:40:31.596,-0.245,-0.01
11:40:31.600,-0.26,-0.005
11:40:31.604,-0.265,-0.025
11:40:31.608,-0.235,-0.03
11:40:31.612,-0.23,-0.045
11:40:31.616,-0.215,-0.03
11:40:31.620,-0.24,-0.03
11:40:31.624,-0.24,-0.03
11:40:31.628,-0.24,0.0
11:40:31.632,-0.215,-0.015
11:40:31.636,-0.22,-0.015
11:40:31.640,-0.25,0.01
11:40:31.644,-0.23,0.01
11:40:31.648,-0.215,-0.02
11:40:31.652,-0.195,0.0
11:40:31.656,-0.2,-0.035
11:40:31.660,-0.18,-0.01
11:40:31.664,-0.175,-0.005
11:40:31.668,-0.16,-0.005
11:40:31.672,-0.175,0.025
11:40:31.676,-0.155,0.005
11:40:31.680,-0.155,0.015
11:40:31.684,-0.14,0.025
11:40:31.688,-0.115,0.05
11:40:31.692,-0.1,0.035
11:40:31.696,-0.08,0.045
11:40:31.700,-0.05,0.07
11:40:31.704,0.0,0.095
11:40:31.708,0.025,0.12
11:40:31.712,0.065,0.125
11:40:31.716,0.05,0.125
11:40:31.720,0.055,0.165
11:40:31.724,0.08,0.19
11:40:31.728,0.05,0.185
11:40:31.732,0.035,0.18
11:40:31.736,0.035,0.14
11:40:31.740,0.045,0.125
11:40:31.744,0.115,0.115
11:40:31.748,0.235,0.085
11:40:31.752,0.255,0.09
11:40:31.756,0.22,0.11
11:40:31.760,0.175,0.2
11:40:31.764,0.08,0.245
11:40:31.768,-0.06,0.13
11:40:31.772,-0.21,-0.26
11:40:31.776,-0.345,-0.795
11:40:31.780,-0.375,-1.48
11:40:31.784,-0.345,-2.34
11:40:31.788,-0.185,-3.25
11:40:31.792,-0.115,-3.905
11:40:31.796,-0.205,-4.41
11:40:31.800,-0.365,-4.675
11:40:31.804,-0.43,-4.835
11:40:31.808,-0.435,-4.92
11:40:31.812,-0.37,-4.915
11:40:31.816,-0.34,-4.79
11:40:31.820,-0.27,-4.64
11:40:31.824,-0.235,-4.48
11:40:31.828,-0.22,-4.355
11:40:31.832,-0.255,-4.25
11:40:31.836,-0.3,-4.125
11:40:31.840,-0.34,-3.94
11:40:31.844,-0.4,-3.635
11:40:31.848,-0.505,-3.33
11:40:31.852,-0.58,-2.98
11:40:31.856,-0.635,-2.59
11:40:31.860,-0.675,-2.215
11:40:31.864,-0.595,-1.77
11:40:31.868,-0.485,-1.375
11:40:31.872,-0.37,-1.03
11:40:31.876,-0.265,-0.74
11:40:31.880,-0.18,-0.49
11:40:31.884,-0.16,-0.265
11:40:31.888,-0.135,-0.06
11:40:31.892,-0.115,0.11
11:40:31.896,-0.1,0.305
11:40:31.900,-0.085,0.435
11:40:31.904,-0.04,0.56
11:40:31.908,-0.02,0.645
11:40:31.912,-0.025,0.705
11:40:31.916,0.0,0.74
11:40:31.920,0.02,0.755
11:40:31.924,0.035,0.785
11:40:31.928,0.065,0.805
11:40:31.932,0.08,0.84
11:40:31.936,0.1,0.87
11:40:31.940,0.11,0.905
11:40:31.944,0.15,0.915
11:40:31.948,0.19,0.935
11:40:31.952,0.21,0.97
11:40:31.956,0.245,1.0
11:40:31.960,0.2,1.05
11:40:31.964,0.145,1.08
11:40:31.968,0.11,1.115
11:40:31.972,0.1,1.16
11:40:31.976,0.12,1.125
11:40:31.980,0.13,1.085
11:40:31.984,0.1,1.08
11:40:31.988,0.07,1.055
11:40:31.992,0.08,1.06
11:40:31.996,0.095,1.06
11:40:32.000,0.08,1.06
11:40:32.004,0.055,1.08
11:40:32.008,0.025,1.09
11:40:32.012,0.01,1.115
11:40:32.016,-0.005,1.105
11:40:32.020,-0.02,1.1
11:40:32.024,-0.03,1.11
11:40:32.028,-0.02,1.09
11:40:32.032,-0.02,1.11
11:40:32.036,-0.03,1.125
11:40:32.040,-0.01,1.14
11:40:32.044,-0.045,1.175
11:40:32.048,-0.02,1.185
11:40:32.052,-0.045,1.2
11:40:32.056,-0.055,1.23
11:40:32.060,-0.055,1.24
11:40:32.064,-0.035,1.24
11:40:32.068,-0.04,1.265
11:40:32.072,-0.035,1.255
11:40:32.076,-0.025,1.26
11:40:32.080,-0.03,1.25
11:40:32.084,-0.035,1.265
11:40:32.088,-0.065,1.285
11:40:32.092,-0.085,1.26
11:40:32.096,-0.08,1.23
11:40:32.100,-0.11,1.22
11:40:32.104,-0.125,1.16
11:40:32.108,-0.14,1.135
11:40:32.112,-0.145,1.085
11:40:32.116,-0.16,1.035
11:40:32.120,-0.165,0.985
11:40:32.124,-0.175,0.915
11:40:32.128,-0.195,0.855
11:40:32.132,-0.2,0.815
11:40:32.136,-0.195,0.775
11:40:32.140,-0.205,0.705
11:40:32.144,-0.185,0.64
11:40:32.148,-0.16,0.595
11:40:32.152,-0.165,0.555
11:40:32.156,-0.145,0.51
11:40:32.160,-0.11,0.495
11:40:32.164,-0.07,0.47
11:40:32.168,-0.02,0.42
11:40:32.172,0.02,0.41
11:40:32.176,0.03,0.39
11:40:32.180,-0.015,0.375
11:40:32.184,-0.045,0.405
11:40:32.188,-0.07,0.415
11:40:32.192,-0.09,0.4
11:40:32.196,-0.14,0.375
11:40:32.200,-0.145,0.32
11:40:32.204,-0.17,0.28
11:40:32.208,-0.165,0.24
11:40:32.212,-0.15,0.235
11:40:32.216,-0.16,0.19
11:40:32.220,-0.16,0.215
11:40:32.224,-0.175,0.21
11:40:32.228,-0.19,0.19
11:40:32.232,-0.19,0.175
11:40:32.236,-0.21,0.18
11:40:32.240,-0.21,0.18
11:40:32.244,-0.235,0.17
11:40:32.248,-0.23,0.175
11:40:32.252,-0.235,0.16
11:40:32.256,-0.24,0.165
11:40:32.260,-0.245,0.18
11:40:32.264,-0.23,0.185
11:40:32.268,-0.255,0.165
11:40:32.272,-0.24,0.155
11:40:32.276,-0.255,0.14
11:40:32.280,-0.26,0.15
11:40:32.284,-0.265,0.15
11:40:32.288,-0.255,0.16
11:40:32.292,-0.25,0.155
11:40:32.296,-0.275,0.145
11:40:32.300,-0.29,0.145
11:40:32.304,-0.285,0.18
11:40:32.308,-0.285,0.165
11:40:32.312,-0.3,0.15
11:40:32.316,-0.28,0.165
11:40:32.320,-0.27,0.14
11:40:32.324,-0.255,0.16
11:40:32.328,-0.26,0.135
11:40:32.332,-0.27,0.125
11:40:32.336,-0.28,0.16
11:40:32.340,-0.27,0.13
11:40:32.344,-0.27,0.155
11:40:32.348,-0.26,0.17
11:40:32.352,-0.24,0.155
11:40:32.356,-0.24,0.165
11:40:32.360,-0.26,0.145
11:40:32.364,-0.235,0.14
11:40:32.368,-0.225,0.125
11:40:32.372,-0.2,0.125
11:40:32.376,-0.19,0.125
11:40:32.380,-0.155,0.115
11:40:32.384,-0.135,0.155
11:40:32.388,-0.08,0.175
11:40:32.392,-0.05,0.195
11:40:32.396,-0.015,0.225
11:40:32.400,0.02,0.24
11:40:32.404,0.025,0.25
11:40:32.408,0.05,0.26
11:40:32.412,0.025,0.24
11:40:32.416,0.035,0.24
11:40:32.420,0.03,0.225
11:40:32.424,0.09,0.2
11:40:32.428,0.175,0.2
11:40:32.432,0.235,0.205
11:40:32.436,0.23,0.22
11:40:32.440,0.185,0.25
11:40:32.444,0.095,0.315
11:40:32.448,-0.065,0.31
11:40:32.452,-0.24,0.1
11:40:32.456,-0.41,-0.35
11:40:32.460,-0.545,-0.92
11:40:32.464,-0.59,-1.655
11:40:32.468,-0.545,-2.56
11:40:32.472,-0.445,-3.355
11:40:32.476,-0.44,-3.945
11:40:32.480,-0.585,-4.41
11:40:32.484,-0.745,-4.74
11:40:32.488,-0.79,-4.92
11:40:32.492,-0.745,-4.99
11:40:32.496,-0.68,-4.925
11:40:32.500,-0.61,-4.805
11:40:32.504,-0.465,-4.645
11:40:32.508,-0.39,-4.49
11:40:32.512,-0.395,-4.39
11:40:32.516,-0.425,-4.325
11:40:32.520,-0.465,-4.19
11:40:32.524,-0.5,-3.985
11:40:32.528,-0.565,-3.715
11:40:32.532,-0.66,-3.41
11:40:32.536,-0.755,-3.095
11:40:32.540,-0.785,-2.71
11:40:32.544,-0.785,-2.23
11:40:32.548,-0.685,-1.78
11:40:32.552,-0.555,-1.365
11:40:32.556,-0.43,-1.015
11:40:32.560,-0.29,-0.72
11:40:32.564,-0.235,-0.485
11:40:32.568,-0.175,-0.295
11:40:32.572,-0.14,-0.095
11:40:32.576,-0.12,0.09
11:40:32.580,-0.09,0.27
11:40:32.584,-0.09,0.415
11:40:32.588,-0.045,0.52
11:40:32.592,-0.035,0.615
11:40:32.596,-0.035,0.7
11:40:32.600,-0.01,0.745
11:40:32.604,0.005,0.775
11:40:32.608,0.01,0.79
11:40:32.612,0.035,0.815
11:40:32.616,0.06,0.83
11:40:32.620,0.08,0.835
11:40:32.624,0.09,0.86
11:40:32.628,0.125,0.895
11:40:32.632,0.18,0.9
11:40:32.636,0.23,0.955
11:40:32.640,0.25,0.97
11:40:32.644,0.3,1.015
11:40:32.648,0.305,1.025
11:40:32.652,0.33,1.055
11:40:32.656,0.325,1.045
11:40:32.660,0.31,1.06
11:40:32.664,0.245,1.065
11:40:32.668,0.195,1.065
11:40:32.672,0.15,1.09
11:40:32.676,0.16,1.075
11:40:32.680,0.155,1.08
11:40:32.684,0.145,1.085
11:40:32.688,0.15,1.06
11:40:32.692,0.11,1.05
11:40:32.696,0.095,1.085
11:40:32.700,0.07,1.07
11:40:32.704,0.035,1.08
11:40:32.708,0.04,1.1
11:40:32.712,0.04,1.095
11:40:32.716,0.03,1.12
11:40:32.720,0.06,1.135
11:40:32.724,0.045,1.16
11:40:32.728,0.025,1.175
11:40:32.732,0.01,1.21
11:40:32.736,0.02,1.215
11:40:32.740,0.01,1.24
11:40:32.744,0.035,1.24
11:40:32.748,0.015,1.245
11:40:32.752,0.01,1.265
11:40:32.756,0.015,1.295
11:40:32.760,0.005,1.27
11:40:32.764,-0.005,1.295
11:40:32.768,-0.02,1.28
11:40:32.772,-0.02,1.275
11:40:32.776,-0.015,1.26
11:40:32.780,-0.04,1.245
11:40:32.784,-0.08,1.225
11:40:32.788,-0.08,1.185
11:40:32.792,-0.12,1.155
11:40:32.796,-0.14,1.09
11:40:32.800,-0.15,1.055
11:40:32.804,-0.17,1.0
11:40:32.808,-0.17,0.915
11:40:32.812,-0.185,0.915
11:40:32.816,-0.19,0.84
11:40:32.820,-0.205,0.77
11:40:32.824,-0.2,0.685
11:40:32.828,-0.215,0.645
11:40:32.832,-0.205,0.595
11:40:32.836,-0.205,0.54
11:40:32.840,-0.2,0.495
11:40:32.844,-0.18,0.45
11:40:32.848,-0.155,0.435
11:40:32.852,-0.13,0.385
11:40:32.856,-0.115,0.38
11:40:32.860,-0.09,0.365
11:40:32.864,-0.085,0.345
11:40:32.868,-0.06,0.35
11:40:32.872,-0.025,0.345
11:40:32.876,-0.02,0.36
11:40:32.880,-0.015,0.37
11:40:32.884,-0.005,0.335
11:40:32.888,-0.025,0.315
11:40:32.892,-0.055,0.29
11:40:32.896,-0.095,0.32
11:40:32.900,-0.12,0.295
11:40:32.904,-0.14,0.27
11:40:32.908,-0.15,0.25
11:40:32.912,-0.12,0.245
11:40:32.916,-0.085,0.235
11:40:32.920,-0.005,0.205
11:40:32.924,0.15,0.195
11:40:32.928,0.255,0.17
11:40:32.932,0.29,0.22
11:40:32.936,0.23,0.31
11:40:32.940,0.055,0.38
11:40:32.944,-0.21,0.36
11:40:32.948,-0.49,0.12
11:40:32.952,-0.735,-0.295
11:40:32.956,-0.855,-0.875
11:40:32.960,-0.82,-1.63
11:40:32.964,-0.7,-2.455
11:40:32.968,-0.67,-3.27
11:40:32.972,-0.81,-3.975
11:40:32.976,-1.01,-4.44
11:40:32.980,-1.1,-4.725
11:40:32.984,-1.1,-4.87
11:40:32.988,-1.05,-4.885
11:40:32.992,-0.995,-4.83
11:40:32.996,-0.94,-4.725
11:40:33.000,-0.855,-4.62
11:40:33.004,-0.845,-4.535
11:40:33.008,-0.855,-4.45
11:40:33.012,-0.88,-4.375
11:40:33.016,-0.89,-4.215
11:40:33.020,-0.89,-3.925
11:40:33.024,-0.885,-3.615
11:40:33.028,-0.9,-3.26
11:40:33.032,-0.88,-2.845
11:40:33.036,-0.8,-2.365
11:40:33.040,-0.69,-1.855
11:40:33.044,-0.55,-1.41
