Time,ECG1,ECG2
13:31:30.220,0.34,1.7
13:31:30.224,0.385,1.71
13:31:30.228,0.39,1.72
13:31:30.232,0.335,1.735
13:31:30.236,0.265,1.735
13:31:30.240,0.295,1.73
13:31:30.244,0.315,1.79
13:31:30.248,0.375,1.815
13:31:30.252,0.39,1.805
13:31:30.256,0.41,1.795
13:31:30.260,0.34,1.775
13:31:30.264,0.19,1.735
13:31:30.268,0.12,1.715
13:31:30.272,0.12,1.67
13:31:30.276,0.155,1.655
13:31:30.280,0.175,1.63
13:31:30.284,0.18,1.58
13:31:30.288,0.14,1.525
13:31:30.292,0.035,1.465
13:31:30.296,-0.05,1.385
13:31:30.300,-0.11,1.335
13:31:30.304,-0.145,1.265
13:31:30.308,-0.125,1.175
13:31:30.312,-0.125,1.115
13:31:30.316,-0.12,1.04
13:31:30.320,-0.14,0.955
13:31:30.324,-0.155,0.885
13:31:30.328,-0.13,0.83
13:31:30.332,-0.135,0.78
13:31:30.336,-0.22,0.735
13:31:30.340,-0.265,0.7
13:31:30.344,-0.23,0.645
13:31:30.348,-0.22,0.635
13:31:30.352,-0.275,0.58
13:31:30.356,-0.33,0.5
13:31:30.360,-0.3,0.47
13:31:30.364,-0.25,0.485
13:31:30.368,-0.28,0.51
13:31:30.372,-0.34,0.5
13:31:30.376,-0.315,0.495
13:31:30.380,-0.26,0.51
13:31:30.384,-0.225,0.565
13:31:30.388,-0.3,0.57
13:31:30.392,-0.605,0.605
13:31:30.396,-1.15,0.48
13:31:30.400,-1.83,0.24
13:31:30.404,-2.325,-0.195
13:31:30.408,-2.63,-0.74
13:31:30.412,-2.7,-1.56
13:31:30.416,-2.59,-2.495
13:31:30.420,-2.545,-3.33
13:31:30.424,-2.71,-3.96
13:31:30.428,-2.965,-4.33
13:31:30.432,-3.25,-4.53
13:31:30.436,-3.345,-4.715
13:31:30.440,-3.325,-4.73
13:31:30.444,-3.305,-4.675
13:31:30.448,-3.18,-4.63
13:31:30.452,-2.95,-4.54
13:31:30.456,-2.775,-4.49
13:31:30.460,-2.54,-4.425
13:31:30.464,-2.19,-4.355
13:31:30.468,-1.965,-4.115
13:31:30.472,-1.895,-3.835
13:31:30.476,-1.815,-3.54
13:31:30.480,-1.57,-3.195
13:31:30.484,-1.37,-2.775
13:31:30.488,-1.255,-2.275
13:31:30.492,-0.975,-1.75
13:31:30.496,-0.615,-1.27
13:31:30.500,-0.37,-0.885
13:31:30.504,-0.31,-0.555
13:31:30.508,-0.275,-0.255
13:31:30.512,-0.15,0.03
13:31:30.516,-0.03,0.33
13:31:30.520,-0.065,0.575
13:31:30.524,-0.06,0.755
13:31:30.528,-0.055,0.87
13:31:30.532,0.005,0.925
13:31:30.536,0.07,0.965
13:31:30.540,0.0,1.02
13:31:30.544,-0.115,1.08
13:31:30.548,-0.155,1.16
13:31:30.552,-0.19,1.17
13:31:30.556,-0.125,1.175
13:31:30.560,-0.045,1.185
13:31:30.564,-0.05,1.235
13:31:30.568,-0.125,1.25
13:31:30.572,-0.065,1.25
13:31:30.576,0.02,1.26
13:31:30.580,0.065,1.25
13:31:30.584,0.085,1.25
13:31:30.588,0.035,1.26
13:31:30.592,-0.03,1.265
13:31:30.596,-0.055,1.295
13:31:30.600,-0.08,1.33
13:31:30.604,-0.035,1.315
13:31:30.608,0.075,1.365
13:31:30.612,0.19,1.38
13:31:30.616,0.195,1.38
13:31:30.620,0.1,1.4
13:31:30.624,-0.005,1.415
13:31:30.628,0.035,1.415
13:31:30.632,0.095,1.415
13:31:30.636,0.18,1.445
13:31:30.640,0.185,1.47
13:31:30.644,0.19,1.505
13:31:30.648,0.165,1.525
13:31:30.652,0.225,1.52
13:31:30.656,0.275,1.52
13:31:30.660,0.215,1.51
13:31:30.664,0.145,1.51
13:31:30.668,0.21,1.53
13:31:30.672,0.235,1.55
13:31:30.676,0.155,1.53
13:31:30.680,0.11,1.515
13:31:30.684,0.12,1.485
13:31:30.688,0.015,1.435
13:31:30.692,-0.115,1.4
13:31:30.696,-0.08,1.395
13:31:30.700,-0.065,1.34
13:31:30.704,-0.025,1.315
13:31:30.708,-0.02,1.255
13:31:30.712,-0.05,1.17
13:31:30.716,-0.065,1.16
13:31:30.720,-0.165,1.1
13:31:30.724,-0.245,1.05
13:31:30.728,-0.28,0.99
13:31:30.732,-0.26,0.94
13:31:30.736,-0.275,0.87
13:31:30.740,-0.365,0.845
13:31:30.744,-0.49,0.77
13:31:30.748,-0.63,0.695
13:31:30.752,-0.65,0.64
13:31:30.756,-0.465,0.59
13:31:30.760,-0.32,0.555
13:31:30.764,-0.395,0.515
13:31:30.768,-0.62,0.515
13:31:30.772,-0.68,0.465
13:31:30.776,-0.705,0.45
13:31:30.780,-0.675,0.415
13:31:30.784,-0.61,0.415
13:31:30.788,-0.52,0.42
13:31:30.792,-0.56,0.385
13:31:30.796,-0.585,0.37
13:31:30.800,-0.54,0.37
13:31:30.804,-0.49,0.37
13:31:30.808,-0.425,0.39
13:31:30.812,-0.39,0.39
13:31:30.816,-0.37,0.41
13:31:30.820,-0.415,0.405
13:31:30.824,-0.525,0.375
13:31:30.828,-0.56,0.385
13:31:30.832,-0.465,0.37
13:31:30.836,-0.33,0.395
13:31:30.840,-0.355,0.43
13:31:30.844,-0.545,0.425
13:31:30.848,-0.66,0.36
13:31:30.852,-0.61,0.38
13:31:30.856,-0.45,0.4
13:31:30.860,-0.36,0.41
13:31:30.864,-0.355,0.415
13:31:30.868,-0.46,0.4
13:31:30.872,-0.555,0.395
13:31:30.876,-0.57,0.41
13:31:30.880,-0.535,0.425
13:31:30.884,-0.475,0.485
13:31:30.888,-0.375,0.485
13:31:30.892,-0.275,0.51
13:31:30.896,-0.29,0.535
13:31:30.900,-0.41,0.54
13:31:30.904,-0.525,0.55
13:31:30.908,-0.525,0.525
13:31:30.912,-0.395,0.51
13:31:30.916,-0.265,0.465
13:31:30.920,-0.225,0.425
13:31:30.924,-0.14,0.38
13:31:30.928,-0.01,0.36
13:31:30.932,0.0,0.4
13:31:30.936,-0.155,0.47
13:31:30.940,-0.34,0.56
13:31:30.944,-0.64,0.5
13:31:30.948,-1.03,0.16
13:31:30.952,-1.415,-0.315
13:31:30.956,-1.675,-0.975
13:31:30.960,-1.7,-1.97
13:31:30.964,-1.56,-2.945
13:31:30.968,-1.465,-3.725
13:31:30.972,-1.58,-4.265
13:31:30.976,-1.655,-4.605
13:31:30.980,-1.625,-4.79
13:31:30.984,-1.615,-4.88
13:31:30.988,-1.65,-4.89
13:31:30.992,-1.745,-4.85
13:31:30.996,-1.85,-4.795
13:31:31.000,-1.855,-4.75
13:31:31.004,-1.93,-4.685
13:31:31.008,-2.17,-4.65
13:31:31.012,-2.185,-4.56
13:31:31.016,-1.99,-4.4
13:31:31.020,-1.845,-4.15
13:31:31.024,-1.73,-3.88
13:31:31.028,-1.575,-3.53
13:31:31.032,-1.46,-3.07
13:31:31.036,-1.32,-2.53
13:31:31.040,-1.06,-1.965
13:31:31.044,-0.765,-1.375
13:31:31.048,-0.56,-0.875
13:31:31.052,-0.51,-0.525
13:31:31.056,-0.545,-0.27
13:31:31.060,-0.455,-0.06
13:31:31.064,-0.19,0.215
13:31:31.068,0.015,0.415
13:31:31.072,0.045,0.59
13:31:31.076,-0.1,0.73
13:31:31.080,-0.25,0.88
13:31:31.084,-0.275,0.95
13:31:31.088,-0.195,1.035
13:31:31.092,-0.045,1.08
13:31:31.096,0.115,1.065
13:31:31.100,0.11,1.075
13:31:31.104,-0.09,1.085
13:31:31.108,-0.195,1.09
13:31:31.112,-0.08,1.12
13:31:31.116,-0.015,1.165
13:31:31.120,0.14,1.23
13:31:31.124,0.27,1.25
13:31:31.128,0.225,1.26
13:31:31.132,0.055,1.285
13:31:31.136,0.06,1.305
13:31:31.140,0.09,1.31
13:31:31.144,0.11,1.295
13:31:31.148,0.145,1.325
13:31:31.152,0.19,1.4
13:31:31.156,0.22,1.485
13:31:31.160,0.32,1.51
13:31:31.164,0.405,1.53
13:31:31.168,0.35,1.55
13:31:31.172,0.175,1.58
13:31:31.176,0.065,1.59
13:31:31.180,0.08,1.635
13:31:31.184,0.195,1.66
13:31:31.188,0.35,1.69
13:31:31.192,0.38,1.74
13:31:31.196,0.365,1.765
13:31:31.200,0.36,1.79
13:31:31.204,0.37,1.8
13:31:31.208,0.33,1.825
13:31:31.212,0.2,1.83
13:31:31.216,0.18,1.86
13:31:31.220,0.2,1.845
13:31:31.224,0.25,1.85
13:31:31.228,0.34,1.83
13:31:31.232,0.395,1.76
13:31:31.236,0.39,1.685
13:31:31.240,0.41,1.605
13:31:31.244,0.28,1.6
13:31:31.248,0.04,1.495
13:31:31.252,-0.1,1.44
13:31:31.256,-0.11,1.39
13:31:31.260,-0.115,1.3
13:31:31.264,-0.03,1.215
13:31:31.268,-0.01,1.13
13:31:31.272,-0.19,1.065
13:31:31.276,-0.365,1.0
13:31:31.280,-0.39,0.915
13:31:31.284,-0.34,0.85
13:31:31.288,-0.27,0.795
13:31:31.292,-0.27,0.755
13:31:31.296,-0.275,0.695
13:31:31.300,-0.265,0.655
13:31:31.304,-0.335,0.58
13:31:31.308,-0.445,0.53
13:31:31.312,-0.49,0.51
13:31:31.316,-0.44,0.49
13:31:31.320,-0.335,0.46
13:31:31.324,-0.275,0.465
13:31:31.328,-0.315,0.46
13:31:31.332,-0.47,0.435
13:31:31.336,-0.55,0.435
13:31:31.340,-0.475,0.435
13:31:31.344,-0.41,0.44
13:31:31.348,-0.35,0.42
13:31:31.352,-0.35,0.415
13:31:31.356,-0.47,0.405
13:31:31.360,-0.49,0.42
13:31:31.364,-0.34,0.38
13:31:31.368,-0.2,0.39
13:31:31.372,-0.25,0.445
13:31:31.376,-0.46,0.49
13:31:31.380,-0.64,0.515
13:31:31.384,-0.635,0.54
13:31:31.388,-0.56,0.54
13:31:31.392,-0.4,0.55
13:31:31.396,-0.305,0.515
13:31:31.400,-0.22,0.43
13:31:31.404,-0.275,0.435
13:31:31.408,-0.4,0.435
13:31:31.412,-0.435,0.41
13:31:31.416,-0.415,0.415
13:31:31.420,-0.39,0.4
13:31:31.424,-0.34,0.415
13:31:31.428,-0.27,0.415
13:31:31.432,-0.23,0.38
13:31:31.436,-0.265,0.365
13:31:31.440,-0.4,0.355
13:31:31.444,-0.42,0.33
13:31:31.448,-0.365,0.34
13:31:31.452,-0.355,0.35
13:31:31.456,-0.28,0.33
13:31:31.460,-0.145,0.315
13:31:31.464,-0.045,0.29
13:31:31.468,-0.015,0.315
13:31:31.472,-0.01,0.34
13:31:31.476,-0.05,0.39
13:31:31.480,-0.225,0.46
13:31:31.484,-0.6,0.46
13:31:31.488,-1.06,0.19
13:31:31.492,-1.405,-0.245
13:31:31.496,-1.61,-0.76
13:31:31.500,-1.67,-1.59
13:31:31.504,-1.595,-2.62
13:31:31.508,-1.43,-3.425
13:31:31.512,-1.3,-4.075
13:31:31.516,-1.45,-4.46
13:31:31.520,-1.585,-4.725
13:31:31.524,-1.6,-4.845
13:31:31.528,-1.635,-4.895
13:31:31.532,-1.675,-4.805
13:31:31.536,-1.655,-4.75
13:31:31.540,-1.5,-4.66
13:31:31.544,-1.39,-4.6
13:31:31.548,-1.33,-4.52
13:31:31.552,-1.335,-4.425
13:31:31.556,-1.38,-4.295
13:31:31.560,-1.29,-4.05
13:31:31.564,-1.16,-3.75
13:31:31.568,-1.085,-3.445
13:31:31.572,-0.985,-3.055
13:31:31.576,-0.925,-2.585
13:31:31.580,-0.83,-2.085
13:31:31.584,-0.7,-1.605
13:31:31.588,-0.59,-1.17
13:31:31.592,-0.41,-0.73
13:31:31.596,-0.235,-0.385
13:31:31.600,-0.165,-0.135
13:31:31.604,-0.155,0.12
13:31:31.608,-0.165,0.355
13:31:31.612,-0.175,0.575
13:31:31.616,-0.135,0.695
13:31:31.620,-0.075,0.835
13:31:31.624,-0.025,0.94
13:31:31.628,0.03,1.04
13:31:31.632,0.03,1.095
13:31:31.636,0.065,1.15
13:31:31.640,0.075,1.155
13:31:31.644,0.1,1.18
13:31:31.648,0.11,1.24
13:31:31.652,0.16,1.235
13:31:31.656,0.19,1.295
13:31:31.660,0.225,1.315
13:31:31.664,0.25,1.305
13:31:31.668,0.275,1.34
13:31:31.672,0.3,1.365
13:31:31.676,0.27,1.425
13:31:31.680,0.3,1.46
13:31:31.684,0.355,1.485
13:31:31.688,0.36,1.525
13:31:31.692,0.37,1.56
13:31:31.696,0.41,1.585
13:31:31.700,0.43,1.615
13:31:31.704,0.44,1.635
13:31:31.708,0.435,1.66
13:31:31.712,0.46,1.68
13:31:31.716,0.455,1.7
13:31:31.720,0.475,1.76
13:31:31.724,0.45,1.775
13:31:31.728,0.385,1.725
13:31:31.732,0.325,1.72
13:31:31.736,0.325,1.745
13:31:31.740,0.32,1.74
13:31:31.744,0.32,1.73
13:31:31.748,0.41,1.74
13:31:31.752,0.425,1.735
13:31:31.756,0.375,1.7
13:31:31.760,0.3,1.69
13:31:31.764,0.26,1.705
13:31:31.768,0.215,1.69
13:31:31.772,0.205,1.66
13:31:31.776,0.2,1.615
13:31:31.780,0.165,1.6
13:31:31.784,0.14,1.57
13:31:31.788,0.135,1.495
13:31:31.792,0.12,1.44
13:31:31.796,0.08,1.39
13:31:31.800,0.0,1.32
13:31:31.804,-0.03,1.25
13:31:31.808,-0.055,1.2
13:31:31.812,-0.06,1.135
13:31:31.816,-0.05,1.045
13:31:31.820,-0.055,0.97
13:31:31.824,-0.055,0.93
13:31:31.828,-0.08,0.875
13:31:31.832,-0.16,0.825
13:31:31.836,-0.21,0.76
13:31:31.840,-0.195,0.69
13:31:31.844,-0.2,0.66
13:31:31.848,-0.185,0.64
13:31:31.852,-0.2,0.605
13:31:31.856,-0.2,0.6
13:31:31.860,-0.18,0.585
13:31:31.864,-0.145,0.595
13:31:31.868,-0.135,0.55
13:31:31.872,-0.16,0.535
13:31:31.876,-0.115,0.55
13:31:31.880,-0.065,0.565
13:31:31.884,-0.05,0.545
13:31:31.888,-0.09,0.515
13:31:31.892,-0.155,0.47
13:31:31.896,-0.2,0.48
13:31:31.900,-0.23,0.425
13:31:31.904,-0.27,0.37
13:31:31.908,-0.25,0.335
13:31:31.912,-0.22,0.33
13:31:31.916,-0.15,0.305
13:31:31.920,-0.07,0.315
13:31:31.924,-0.09,0.32
13:31:31.928,-0.205,0.335
13:31:31.932,-0.23,0.34
13:31:31.936,-0.165,0.355
13:31:31.940,-0.085,0.37
13:31:31.944,0.09,0.385
13:31:31.948,0.275,0.415
13:31:31.952,0.28,0.445
13:31:31.956,0.14,0.52
13:31:31.960,-0.13,0.63
13:31:31.964,-0.585,0.62
13:31:31.968,-1.095,0.37
13:31:31.972,-1.495,-0.015
13:31:31.976,-1.65,-0.6
13:31:31.980,-1.65,-1.48
13:31:31.984,-1.59,-2.505
13:31:31.988,-1.52,-3.375
13:31:31.992,-1.55,-4.035
13:31:31.996,-1.62,-4.455
13:31:32.000,-1.625,-4.675
13:31:32.004,-1.595,-4.78
13:31:32.008,-1.645,-4.81
13:31:32.012,-1.69,-4.755
13:31:32.016,-1.59,-4.675
13:31:32.020,-1.455,-4.59
13:31:32.024,-1.395,-4.53
13:31:32.028,-1.315,-4.435
13:31:32.032,-1.25,-4.34
13:31:32.036,-1.125,-4.07
13:31:32.040,-1.005,-3.775
13:31:32.044,-0.94,-3.425
13:31:32.048,-0.89,-2.975
13:31:32.052,-0.79,-2.48
13:31:32.056,-0.62,-1.955
13:31:32.060,-0.46,-1.545
13:31:32.064,-0.33,-1.15
13:31:32.068,-0.175,-0.765
13:31:32.072,-0.035,-0.425
13:31:32.076,0.015,-0.19
13:31:32.080,0.075,0.025
13:31:32.084,0.185,0.23
13:31:32.088,0.245,0.455
13:31:32.092,0.23,0.655
13:31:32.096,0.22,0.845
13:31:32.100,0.27,0.97
13:31:32.104,0.31,1.045
13:31:32.108,0.3,1.08
13:31:32.112,0.315,1.13
13:31:32.116,0.335,1.125
13:31:32.120,0.34,1.185
13:31:32.124,0.35,1.2
13:31:32.128,0.36,1.245
13:31:32.132,0.375,1.255
13:31:32.136,0.39,1.265
13:31:32.140,0.37,1.305
13:31:32.144,0.38,1.3
13:31:32.148,0.41,1.3
13:31:32.152,0.44,1.375
13:31:32.156,0.455,1.38
13:31:32.160,0.46,1.425
13:31:32.164,0.46,1.455
13:31:32.168,0.475,1.46
13:31:32.172,0.49,1.475
13:31:32.176,0.475,1.48
13:31:32.180,0.48,1.5
13:31:32.184,0.53,1.545
13:31:32.188,0.52,1.585
13:31:32.192,0.54,1.58
13:31:32.196,0.535,1.64
13:31:32.200,0.575,1.665
13:31:32.204,0.625,1.685
13:31:32.208,0.625,1.675
13:31:32.212,0.59,1.7
13:31:32.216,0.57,1.725
13:31:32.220,0.58,1.725
13:31:32.224,0.585,1.71
13:31:32.228,0.6,1.7
13:31:32.232,0.595,1.675
13:31:32.236,0.545,1.655
13:31:32.240,0.53,1.66
13:31:32.244,0.515,1.61
13:31:32.248,0.475,1.62
13:31:32.252,0.43,1.575
13:31:32.256,0.425,1.51
13:31:32.260,0.395,1.455
13:31:32.264,0.385,1.435
13:31:32.268,0.345,1.375
13:31:32.272,0.335,1.335
13:31:32.276,0.3,1.295
13:31:32.280,0.29,1.255
13:31:32.284,0.25,1.205
13:31:32.288,0.23,1.15
13:31:32.292,0.2,1.07
13:31:32.296,0.18,1.03
13:31:32.300,0.175,0.96
13:31:32.304,0.135,0.885
13:31:32.308,0.125,0.835
13:31:32.312,0.13,0.815
13:31:32.316,0.13,0.75
13:31:32.320,0.14,0.7
13:31:32.324,0.16,0.68
13:31:32.328,0.155,0.665
13:31:32.332,0.17,0.67
13:31:32.336,0.07,0.62
13:31:32.340,-0.03,0.6
13:31:32.344,-0.015,0.57
13:31:32.348,0.02,0.54
13:31:32.352,0.045,0.52
13:31:32.356,0.035,0.54
13:31:32.360,0.015,0.5
13:31:32.364,0.035,0.53
13:31:32.368,0.01,0.53
13:31:32.372,-0.025,0.53
13:31:32.376,-0.06,0.485
13:31:32.380,-0.02,0.475
13:31:32.384,-0.05,0.485
13:31:32.388,-0.055,0.485
13:31:32.392,-0.055,0.43
13:31:32.396,-0.06,0.4
13:31:32.400,-0.055,0.34
13:31:32.404,-0.055,0.31
13:31:32.408,0.005,0.315
13:31:32.412,0.03,0.31
13:31:32.416,0.065,0.3
13:31:32.420,0.105,0.28
13:31:32.424,0.11,0.32
13:31:32.428,0.11,0.35
13:31:32.432,0.15,0.34
13:31:32.436,0.165,0.375
13:31:32.440,0.16,0.405
13:31:32.444,0.17,0.415
13:31:32.448,0.18,0.425
13:31:32.452,0.185,0.475
13:31:32.456,0.195,0.495
13:31:32.460,0.145,0.49
13:31:32.464,0.175,0.48
13:31:32.468,0.165,0.49
13:31:32.472,0.175,0.49
13:31:32.476,0.175,0.485
13:31:32.480,0.165,0.475
13:31:32.484,0.155,0.485
13:31:32.488,0.16,0.485
13:31:32.492,0.155,0.47
13:31:32.496,0.155,0.485
13:31:32.500,0.155,0.505
13:31:32.504,0.13,0.495
13:31:32.508,0.13,0.505
13:31:32.512,0.105,0.495
13:31:32.516,0.11,0.46
13:31:32.520,0.11,0.465
13:31:32.524,0.12,0.445
13:31:32.528,0.095,0.425
13:31:32.532,0.13,0.44
13:31:32.536,0.14,0.445
13:31:32.540,0.125,0.43
13:31:32.544,0.12,0.445
13:31:32.548,0.11,0.435
13:31:32.552,0.11,0.46
13:31:32.556,0.16,0.45
13:31:32.560,0.25,0.44
13:31:32.564,0.37,0.395
13:31:32.568,0.425,0.41
13:31:32.572,0.345,0.47
13:31:32.576,0.255,0.56
13:31:32.580,0.04,0.61
13:31:32.584,-0.25,0.49
13:31:32.588,-0.56,0.075
13:31:32.592,-0.875,-0.43
13:31:32.596,-1.09,-1.08
13:31:32.600,-1.175,-1.965
13:31:32.604,-1.135,-2.925
13:31:32.608,-1.105,-3.655
13:31:32.612,-1.095,-4.185
13:31:32.616,-1.195,-4.52
13:31:32.620,-1.225,-4.725
13:31:32.624,-1.16,-4.79
13:31:32.628,-1.105,-4.815
13:31:32.632,-1.075,-4.74
13:31:32.636,-1.02,-4.61
13:31:32.640,-0.955,-4.5
13:31:32.644,-0.895,-4.43
13:31:32.648,-0.87,-4.355
13:31:32.652,-0.77,-4.265
13:31:32.656,-0.615,-4.085
13:31:32.660,-0.43,-3.79
13:31:32.664,-0.32,-3.405
13:31:32.668,-0.25,-3.03
13:31:32.672,-0.22,-2.62
13:31:32.676,-0.18,-2.14
13:31:32.680,-0.1,-1.68
13:31:32.684,-0.03,-1.285
13:31:32.688,0.07,-0.845
13:31:32.692,0.14,-0.515
13:31:32.696,0.255,-0.26
13:31:32.700,0.305,-0.005
13:31:32.704,0.365,0.175
13:31:32.708,0.435,0.36
13:31:32.712,0.455,0.545
13:31:32.716,0.48,0.695
13:31:32.720,0.495,0.84
13:31:32.724,0.52,0.955
13:31:32.728,0.535,1.07
13:31:32.732,0.535,1.105
13:31:32.736,0.585,1.13
13:31:32.740,0.6,1.175
13:31:32.744,0.615,1.2
13:31:32.748,0.625,1.22
13:31:32.752,0.655,1.255
13:31:32.756,0.69,1.285
13:31:32.760,0.725,1.305
13:31:32.764,0.735,1.36
13:31:32.768,0.745,1.375
13:31:32.772,0.755,1.4
13:31:32.776,0.74,1.425
13:31:32.780,0.745,1.475
13:31:32.784,0.77,1.495
13:31:32.788,0.78,1.53
13:31:32.792,0.835,1.545
13:31:32.796,0.87,1.575
13:31:32.800,0.87,1.605
13:31:32.804,0.88,1.61
13:31:32.808,0.9,1.67
13:31:32.812,0.915,1.7
13:31:32.816,0.9,1.72
13:31:32.820,0.9,1.74
13:31:32.824,0.9,1.75
13:31:32.828,0.89,1.76
13:31:32.832,0.895,1.78
13:31:32.836,0.885,1.81
13:31:32.840,0.9,1.815
13:31:32.844,0.895,1.81
13:31:32.848,0.885,1.83
13:31:32.852,0.88,1.85
13:31:32.856,0.865,1.865
13:31:32.860,0.83,1.85
13:31:32.864,0.84,1.82
13:31:32.868,0.795,1.825
13:31:32.872,0.765,1.825
13:31:32.876,0.74,1.835
13:31:32.880,0.725,1.815
13:31:32.884,0.72,1.81
13:31:32.888,0.69,1.76
13:31:32.892,0.65,1.715
13:31:32.896,0.61,1.67
13:31:32.900,0.605,1.635
13:31:32.904,0.555,1.61
13:31:32.908,0.54,1.545
13:31:32.912,0.52,1.495
13:31:32.916,0.495,1.43
13:31:32.920,0.47,1.405
13:31:32.924,0.45,1.33
13:31:32.928,0.445,1.235
13:31:32.932,0.42,1.17
13:31:32.936,0.405,1.09
13:31:32.940,0.375,1.06
13:31:32.944,0.345,1.02
13:31:32.948,0.305,0.965
13:31:32.952,0.27,0.91
13:31:32.956,0.245,0.875
13:31:32.960,0.215,0.84
13:31:32.964,0.18,0.775
13:31:32.968,0.18,0.745
13:31:32.972,0.18,0.71
13:31:32.976,0.205,0.695
13:31:32.980,0.22,0.675
13:31:32.984,0.24,0.615
13:31:32.988,0.235,0.575
13:31:32.992,0.21,0.55
13:31:32.996,0.19,0.54
13:31:33.000,0.18,0.525
13:31:33.004,0.165,0.51
13:31:33.008,0.16,0.485
13:31:33.012,0.155,0.45
13:31:33.016,0.175,0.415
13:31:33.020,0.235,0.425
13:31:33.024,0.275,0.43
13:31:33.028,0.385,0.43
13:31:33.032,0.45,0.455
13:31:33.036,0.405,0.53
13:31:33.040,0.25,0.58
13:31:33.044,-0.135,0.645
13:31:33.048,-0.69,0.525
13:31:33.052,-1.18,0.27
13:31:33.056,-1.57,-0.075
13:31:33.060,-1.745,-0.66
13:31:33.064,-1.73,-1.545
13:31:33.068,-1.705,-2.485
13:31:33.072,-1.78,-3.275
13:31:33.076,-1.875,-3.9
13:31:33.080,-1.955,-4.305
13:31:33.084,-1.965,-4.52
13:31:33.088,-1.95,-4.675
13:31:33.092,-1.92,-4.665
13:31:33.096,-1.81,-4.6
13:31:33.100,-1.64,-4.535
13:31:33.104,-1.48,-4.48
13:31:33.108,-1.42,-4.425
13:31:33.112,-1.29,-4.36
13:31:33.116,-1.13,-4.215
13:31:33.120,-0.925,-4.0
13:31:33.124,-0.765,-3.71
13:31:33.128,-0.67,-3.36
13:31:33.132,-0.58,-2.945
13:31:33.136,-0.465,-2.43
13:31:33.140,-0.325,-1.89
13:31:33.144,-0.15,-1.41
13:31:33.148,-0.01,-0.995
13:31:33.152,0.155,-0.62
13:31:33.156,0.225,-0.32
13:31:33.160,0.285,-0.06
13:31:33.164,0.34,0.205
13:31:33.168,0.36,0.425
13:31:33.172,0.37,0.65
13:31:33.176,0.375,0.82
13:31:33.180,0.355,0.945
13:31:33.184,0.36,1.04
13:31:33.188,0.34,1.075
13:31:33.192,0.365,1.08
13:31:33.196,0.4,1.085
13:31:33.200,0.415,1.085
13:31:33.204,0.425,1.08
13:31:33.208,0.43,1.115
13:31:33.212,0.435,1.145
13:31:33.216,0.445,1.155
13:31:33.220,0.45,1.18
13:31:33.224,0.485,1.21
13:31:33.228,0.495,1.24
13:31:33.232,0.485,1.26
13:31:33.236,0.515,1.275
13:31:33.240,0.545,1.3
13:31:33.244,0.575,1.32
13:31:33.248,0.595,1.33
13:31:33.252,0.585,1.38
13:31:33.256,0.605,1.395
13:31:33.260,0.61,1.435
13:31:33.264,0.61,1.48
13:31:33.268,0.6,1.47
13:31:33.272,0.61,1.49
13:31:33.276,0.61,1.51
13:31:33.280,0.605,1.525
13:31:33.284,0.595,1.55
13:31:33.288,0.595,1.555
13:31:33.292,0.58,1.57
13:31:33.296,0.6,1.555
13:31:33.300,0.595,1.585
13:31:33.304,0.555,1.585
13:31:33.308,0.57,1.58
13:31:33.312,0.565,1.59
13:31:33.316,0.55,1.595
13:31:33.320,0.545,1.62
13:31:33.324,0.525,1.61
13:31:33.328,0.505,1.6
13:31:33.332,0.53,1.575
13:31:33.336,0.52,1.57
13:31:33.340,0.515,1.555
13:31:33.344,0.48,1.515
13:31:33.348,0.43,1.475
13:31:33.352,0.38,1.43
13:31:33.356,0.35,1.385
13:31:33.360,0.355,1.31
13:31:33.364,0.335,1.235
13:31:33.368,0.275,1.18
13:31:33.372,0.22,1.13
13:31:33.376,0.22,1.095
13:31:33.380,0.19,1.045
13:31:33.384,0.165,0.955
13:31:33.388,0.15,0.93
13:31:33.392,0.135,0.89
13:31:33.396,0.12,0.84
13:31:33.400,0.115,0.795
13:31:33.404,0.13,0.745
13:31:33.408,0.125,0.7
13:31:33.412,0.12,0.705
13:31:33.416,0.11,0.665
13:31:33.420,0.115,0.625
13:31:33.424,0.115,0.615
13:31:33.428,0.1,0.615
13:31:33.432,0.12,0.595
13:31:33.436,0.115,0.6
13:31:33.440,0.11,0.56
13:31:33.444,0.145,0.57
13:31:33.448,0.135,0.57
13:31:33.452,0.135,0.57
13:31:33.456,0.18,0.59
13:31:33.460,0.245,0.585
13:31:33.464,0.395,0.57
13:31:33.468,0.545,0.565
13:31:33.472,0.665,0.57
13:31:33.476,0.58,0.635
13:31:33.480,0.38,0.72
13:31:33.484,0.01,0.82
13:31:33.488,-0.52,0.705
13:31:33.492,-1.075,0.395
13:31:33.496,-1.51,-0.07
13:31:33.500,-1.74,-0.69
13:31:33.504,-1.7,-1.6
13:31:33.508,-1.53,-2.6
13:31:33.512,-1.35,-3.37
13:31:33.516,-1.315,-4.0
13:31:33.520,-1.325,-4.415
13:31:33.524,-1.355,-4.62
13:31:33.528,-1.29,-4.755
13:31:33.532,-1.28,-4.775
13:31:33.536,-1.32,-4.71
13:31:33.540,-1.32,-4.635
13:31:33.544,-1.275,-4.525
13:31:33.548,-1.255,-4.46
13:31:33.552,-1.28,-4.42
13:31:33.556,-1.27,-4.38
13:31:33.560,-1.225,-4.26
13:31:33.564,-1.09,-3.995
13:31:33.568,-0.975,-3.685
13:31:33.572,-0.89,-3.345
13:31:33.576,-0.81,-2.945
13:31:33.580,-0.675,-2.46
13:31:33.584,-0.51,-1.94
13:31:33.588,-0.36,-1.445
13:31:33.592,-0.23,-1.005
13:31:33.596,-0.085,-0.64
13:31:33.600,0.035,-0.355
13:31:33.604,0.1,-0.105
13:31:33.608,0.17,0.11
13:31:33.612,0.22,0.29
13:31:33.616,0.275,0.525
13:31:33.620,0.29,0.74
13:31:33.624,0.305,0.9
13:31:33.628,0.355,0.98
13:31:33.632,0.39,1.07
13:31:33.636,0.405,1.145
13:31:33.640,0.455,1.175
13:31:33.644,0.515,1.24
13:31:33.648,0.52,1.255
13:31:33.652,0.505,1.265
13:31:33.656,0.5,1.28
13:31:33.660,0.53,1.34
13:31:33.664,0.58,1.375
13:31:33.668,0.61,1.385
13:31:33.672,0.595,1.43
13:31:33.676,0.645,1.415
13:31:33.680,0.68,1.475
13:31:33.684,0.685,1.505
13:31:33.688,0.68,1.54
13:31:33.692,0.715,1.54
13:31:33.696,0.745,1.555
13:31:33.700,0.745,1.585
13:31:33.704,0.73,1.605
13:31:33.708,0.755,1.665
13:31:33.712,0.795,1.7
13:31:33.716,0.82,1.715
13:31:33.720,0.825,1.725
13:31:33.724,0.785,1.775
13:31:33.728,0.815,1.795
13:31:33.732,0.865,1.83
13:31:33.736,0.93,1.855
13:31:33.740,0.925,1.895
13:31:33.744,0.87,1.915
13:31:33.748,0.82,1.91
13:31:33.752,0.805,1.935
13:31:33.756,0.77,1.935
13:31:33.760,0.73,1.94
13:31:33.764,0.7,1.945
13:31:33.768,0.695,1.94
13:31:33.772,0.655,1.87
13:31:33.776,0.655,1.81
13:31:33.780,0.635,1.76
13:31:33.784,0.555,1.725
13:31:33.788,0.495,1.665
13:31:33.792,0.45,1.63
13:31:33.796,0.455,1.59
13:31:33.800,0.46,1.515
13:31:33.804,0.375,1.49
13:31:33.808,0.28,1.425
13:31:33.812,0.235,1.36
13:31:33.816,0.22,1.32
13:31:33.820,0.195,1.235
13:31:33.824,0.195,1.16
13:31:33.828,0.185,1.09
13:31:33.832,0.165,1.015
13:31:33.836,0.19,0.945
13:31:33.840,0.175,0.9
13:31:33.844,0.155,0.85
13:31:33.848,0.155,0.82
13:31:33.852,0.12,0.8
13:31:33.856,0.11,0.79
13:31:33.860,0.08,0.745
13:31:33.864,0.075,0.715
13:31:33.868,0.06,0.68
13:31:33.872,0.045,0.63
13:31:33.876,0.025,0.61
13:31:33.880,0.06,0.61
13:31:33.884,0.08,0.62
13:31:33.888,0.09,0.61
13:31:33.892,0.055,0.575
13:31:33.896,0.07,0.585
13:31:33.900,0.115,0.6
13:31:33.904,0.17,0.63
13:31:33.908,0.175,0.63
13:31:33.912,0.18,0.63
13:31:33.916,0.23,0.65
13:31:33.920,0.395,0.695
13:31:33.924,0.58,0.685
13:31:33.928,0.63,0.73
13:31:33.932,0.445,0.785
13:31:33.936,0.2,0.86
13:31:33.940,-0.235,0.925
13:31:33.944,-0.79,0.81
13:31:33.948,-1.265,0.42
13:31:33.952,-1.675,-0.075
13:31:33.956,-1.89,-0.765
13:31:33.960,-1.92,-1.735
13:31:33.964,-1.89,-2.725
13:31:33.968,-1.815,-3.485
13:31:33.972,-1.815,-4.095
13:31:33.976,-1.825,-4.465
13:31:33.980,-1.775,-4.635
13:31:33.984,-1.76,-4.715
13:31:33.988,-1.795,-4.725
13:31:33.992,-1.785,-4.67
13:31:33.996,-1.72,-4.59
13:31:34.000,-1.615,-4.56
13:31:34.004,-1.53,-4.49
13:31:34.008,-1.455,-4.465
13:31:34.012,-1.37,-4.36
13:31:34.016,-1.28,-4.155
13:31:34.020,-1.135,-3.89
13:31:34.024,-1.01,-3.56
13:31:34.028,-0.925,-3.155
13:31:34.032,-0.835,-2.7
13:31:34.036,-0.675,-2.155
13:31:34.040,-0.495,-1.62
13:31:34.044,-0.345,-1.15
13:31:34.048,-0.18,-0.77
13:31:34.052,0.0,-0.385
13:31:34.056,0.06,-0.095
13:31:34.060,0.115,0.12
13:31:34.064,0.21,0.355
13:31:34.068,0.265,0.595
13:31:34.072,0.285,0.82
13:31:34.076,0.3,0.975
13:31:34.080,0.325,1.11
13:31:34.084,0.34,1.23
13:31:34.088,0.33,1.27
13:31:34.092,0.37,1.31
13:31:34.096,0.43,1.33
13:31:34.100,0.52,1.365
13:31:34.104,0.605,1.375
13:31:34.108,0.675,1.415
13:31:34.112,0.72,1.465
13:31:34.116,0.66,1.5
13:31:34.120,0.58,1.525
13:31:34.124,0.55,1.565
13:31:34.128,0.53,1.61
13:31:34.132,0.525,1.68
13:31:34.136,0.585,1.69
13:31:34.140,0.635,1.68
13:31:34.144,0.66,1.68
13:31:34.148,0.655,1.725
13:31:34.152,0.69,1.695
13:31:34.156,0.7,1.705
13:31:34.160,0.7,1.7
13:31:34.164,0.73,1.725
13:31:34.168,0.74,1.735
13:31:34.172,0.745,1.785
13:31:34.176,0.73,1.805
13:31:34.180,0.795,1.8
13:31:34.184,0.84,1.81
13:31:34.188,0.8,1.815
13:31:34.192,0.745,1.815
13:31:34.196,0.72,1.835
13:31:34.200,0.69,1.85
13:31:34.204,0.665,1.855
13:31:34.208,0.655,1.845
13:31:34.212,0.645,1.86
13:31:34.216,0.625,1.855
13:31:34.220,0.595,1.835
13:31:34.224,0.62,1.815
13:31:34.228,0.605,1.805
13:31:34.232,0.52,1.715
13:31:34.236,0.42,1.705
13:31:34.240,0.35,1.64
13:31:34.244,0.32,1.585
13:31:34.248,0.295,1.585
13:31:34.252,0.265,1.555
13:31:34.256,0.25,1.475
13:31:34.260,0.225,1.435
13:31:34.264,0.215,1.37
13:31:34.268,0.17,1.31
13:31:34.272,0.135,1.22
13:31:34.276,0.14,1.115
13:31:34.280,0.16,1.06
13:31:34.284,0.18,1.025
13:31:34.288,0.18,1.02
13:31:34.292,0.155,0.95
13:31:34.296,0.115,0.915
13:31:34.300,0.075,0.905
13:31:34.304,0.075,0.88
13:31:34.308,0.15,0.86
13:31:34.312,0.265,0.825
13:31:34.316,0.37,0.845
13:31:34.320,0.27,0.815
13:31:34.324,0.085,0.845
13:31:34.328,0.06,0.785
13:31:34.332,0.08,0.755
13:31:34.336,0.135,0.73
13:31:34.340,0.15,0.745
13:31:34.344,0.135,0.71
13:31:34.348,0.08,0.705
13:31:34.352,0.075,0.665
13:31:34.356,0.045,0.665
13:31:34.360,0.055,0.68
13:31:34.364,0.04,0.68
13:31:34.368,0.085,0.695
13:31:34.372,0.085,0.675
13:31:34.376,0.09,0.655
13:31:34.380,0.07,0.66
13:31:34.384,0.035,0.635
13:31:34.388,-0.015,0.615
13:31:34.392,0.0,0.625
13:31:34.396,0.035,0.645
13:31:34.400,0.07,0.63
13:31:34.404,0.035,0.62
13:31:34.408,-0.005,0.56
13:31:34.412,-0.03,0.58
13:31:34.416,-0.03,0.545
13:31:34.420,-0.035,0.525
13:31:34.424,-0.015,0.57
13:31:34.428,-0.02,0.615
13:31:34.432,-0.05,0.6
13:31:34.436,-0.08,0.605
13:31:34.440,-0.075,0.61
13:31:34.444,-0.085,0.615
13:31:34.448,-0.11,0.57
13:31:34.452,-0.18,0.56
13:31:34.456,-0.19,0.525
13:31:34.460,-0.135,0.54
13:31:34.464,-0.1,0.52
13:31:34.468,-0.1,0.525
13:31:34.472,-0.11,0.53
13:31:34.476,-0.1,0.58
13:31:34.480,-0.125,0.595
13:31:34.484,-0.13,0.55
13:31:34.488,-0.055,0.525
13:31:34.492,0.04,0.525
13:31:34.496,0.065,0.51
13:31:34.500,0.0,0.525
13:31:34.504,-0.025,0.555
13:31:34.508,0.01,0.58
13:31:34.512,0.09,0.57
13:31:34.516,0.095,0.57
13:31:34.520,0.085,0.54
13:31:34.524,0.125,0.515
13:31:34.528,0.095,0.465
13:31:34.532,0.1,0.465
13:31:34.536,0.23,0.42
13:31:34.540,0.33,0.435
13:31:34.544,0.26,0.51
13:31:34.548,0.075,0.615
13:31:34.552,-0.26,0.635
13:31:34.556,-0.68,0.365
13:31:34.560,-1.015,-0.12
13:31:34.564,-1.295,-0.7
13:31:34.568,-1.53,-1.5
13:31:34.572,-1.61,-2.5
13:31:34.576,-1.585,-3.345
13:31:34.580,-1.515,-3.945
13:31:34.584,-1.58,-4.365
13:31:34.588,-1.63,-4.605
13:31:34.592,-1.62,-4.73
13:31:34.596,-1.605,-4.79
13:31:34.600,-1.63,-4.78
13:31:34.604,-1.665,-4.71
13:31:34.608,-1.57,-4.655
13:31:34.612,-1.42,-4.59
13:31:34.616,-1.37,-4.535
13:31:34.620,-1.435,-4.455
13:31:34.624,-1.485,-4.39
13:31:34.628,-1.405,-4.23
13:31:34.632,-1.265,-3.955
13:31:34.636,-1.095,-3.6
13:31:34.640,-0.97,-3.195
13:31:34.644,-0.8,-2.705
13:31:34.648,-0.645,-2.095
13:31:34.652,-0.5,-1.59
13:31:34.656,-0.375,-1.075
13:31:34.660,-0.23,-0.655
13:31:34.664,-0.1,-0.315
13:31:34.668,0.07,-0.055
13:31:34.672,0.19,0.15
13:31:34.676,0.29,0.36
13:31:34.680,0.375,0.565
13:31:34.684,0.41,0.77
13:31:34.688,0.45,0.945
13:31:34.692,0.49,1.09
13:31:34.696,0.495,1.205
13:31:34.700,0.5,1.255
13:31:34.704,0.525,1.31
13:31:34.708,0.58,1.345
13:31:34.712,0.62,1.37
13:31:34.716,0.645,1.39
13:31:34.720,0.66,1.425
13:31:34.724,0.675,1.43
13:31:34.728,0.68,1.48
13:31:34.732,0.695,1.5
13:31:34.736,0.735,1.52
13:31:34.740,0.74,1.55
13:31:34.744,0.75,1.625
13:31:34.748,0.73,1.64
13:31:34.752,0.76,1.65
13:31:34.756,0.78,1.695
13:31:34.760,0.825,1.72
13:31:34.764,0.805,1.755
13:31:34.768,0.825,1.795
13:31:34.772,0.815,1.815
13:31:34.776,0.84,1.87
13:31:34.780,0.855,1.92
13:31:34.784,0.845,1.945
13:31:34.788,0.89,2.0
13:31:34.792,0.93,2.005
13:31:34.796,0.965,2.05
13:31:34.800,0.9,2.085
13:31:34.804,0.845,2.11
13:31:34.808,0.85,2.11
13:31:34.812,0.89,2.15
13:31:34.816,0.885,2.195
13:31:34.820,0.865,2.25
13:31:34.824,0.845,2.245
13:31:34.828,0.825,2.26
13:31:34.832,0.83,2.265
13:31:34.836,0.83,2.23
13:31:34.840,0.815,2.175
13:31:34.844,0.795,2.15
13:31:34.848,0.74,2.075
13:31:34.852,0.69,2.03
13:31:34.856,0.605,1.955
13:31:34.860,0.585,1.865
13:31:34.864,0.57,1.775
13:31:34.868,0.58,1.73
13:31:34.872,0.57,1.66
13:31:34.876,0.56,1.595
13:31:34.880,0.53,1.535
13:31:34.884,0.49,1.43
13:31:34.888,0.43,1.42
13:31:34.892,0.4,1.355
13:31:34.896,0.355,1.3
13:31:34.900,0.34,1.2
13:31:34.904,0.305,1.155
13:31:34.908,0.26,1.1
13:31:34.912,0.245,1.055
13:31:34.916,0.235,0.975
13:31:34.920,0.205,0.915
13:31:34.924,0.18,0.855
13:31:34.928,0.11,0.775
13:31:34.932,0.045,0.74
13:31:34.936,0.055,0.7
13:31:34.940,0.07,0.725
13:31:34.944,0.075,0.68
13:31:34.948,0.1,0.69
13:31:34.952,0.09,0.68
13:31:34.956,0.065,0.665
13:31:34.960,0.005,0.675
13:31:34.964,-0.035,0.655
13:31:34.968,-0.03,0.66
13:31:34.972,-0.02,0.7
13:31:34.976,-0.02,0.68
13:31:34.980,0.035,0.685
13:31:34.984,0.015,0.665
13:31:34.988,-0.05,0.66
13:31:34.992,-0.09,0.635
13:31:34.996,-0.08,0.655
13:31:35.000,-0.075,0.675
13:31:35.004,-0.07,0.695
13:31:35.008,-0.03,0.685
13:31:35.012,-0.02,0.685
13:31:35.016,-0.02,0.69
13:31:35.020,-0.04,0.66
13:31:35.024,-0.05,0.675
13:31:35.028,-0.01,0.67
13:31:35.032,0.025,0.66
13:31:35.036,0.045,0.65
13:31:35.040,0.035,0.66
13:31:35.044,0.09,0.67
13:31:35.048,0.11,0.71
13:31:35.052,0.12,0.73
13:31:35.056,0.125,0.76
13:31:35.060,0.135,0.8
13:31:35.064,0.145,0.785
13:31:35.068,0.165,0.77
13:31:35.072,0.16,0.71
13:31:35.076,0.175,0.685
13:31:35.080,0.15,0.655
13:31:35.084,0.11,0.64
13:31:35.088,0.09,0.61
13:31:35.092,0.11,0.605
13:31:35.096,0.11,0.57
13:31:35.100,0.16,0.57
13:31:35.104,0.135,0.585
13:31:35.108,0.025,0.565
13:31:35.112,0.025,0.55
13:31:35.116,0.025,0.5
13:31:35.120,-0.015,0.535
13:31:35.124,-0.03,0.56
13:31:35.128,-0.035,0.53
13:31:35.132,-0.055,0.535
13:31:35.136,-0.115,0.53
13:31:35.140,-0.145,0.545
13:31:35.144,-0.105,0.515
13:31:35.148,-0.085,0.51
13:31:35.152,-0.075,0.52
13:31:35.156,-0.035,0.545
13:31:35.160,-0.015,0.545
13:31:35.164,-0.055,0.53
13:31:35.168,-0.06,0.52
13:31:35.172,-0.03,0.525
13:31:35.176,-0.045,0.52
13:31:35.180,-0.09,0.51
13:31:35.184,-0.07,0.49
13:31:35.188,-0.02,0.445
13:31:35.192,-0.06,0.445
13:31:35.196,-0.14,0.47
13:31:35.200,-0.15,0.435
13:31:35.204,-0.15,0.445
13:31:35.208,-0.125,0.445
13:31:35.212,-0.1,0.47
13:31:35.216,-0.09,0.465
13:31:35.220,-0.05,0.46
13:31:35.224,0.015,0.46
13:31:35.228,0.055,0.445
13:31:35.232,0.135,0.45
13:31:35.236,0.28,0.46
13:31:35.240,0.295,0.51
13:31:35.244,0.205,0.595
13:31:35.248,0.065,0.735
13:31:35.252,-0.24,0.745
13:31:35.256,-0.7,0.505
13:31:35.260,-1.17,0.025
13:31:35.264,-1.55,-0.64
13:31:35.268,-1.735,-1.575
13:31:35.272,-1.745,-2.66
13:31:35.276,-1.625,-3.49
13:31:35.280,-1.57,-4.025
13:31:35.284,-1.66,-4.38
13:31:35.288,-1.74,-4.585
13:31:35.292,-1.745,-4.675
13:31:35.296,-1.755,-4.735
13:31:35.300,-1.75,-4.695
13:31:35.304,-1.715,-4.645
13:31:35.308,-1.675,-4.63
13:31:35.312,-1.655,-4.565
13:31:35.316,-1.635,-4.49
13:31:35.320,-1.615,-4.44
13:31:35.324,-1.55,-4.33
13:31:35.328,-1.395,-4.095
13:31:35.332,-1.24,-3.775
13:31:35.336,-1.115,-3.435
13:31:35.340,-0.985,-2.955
13:31:35.344,-0.86,-2.42
13:31:35.348,-0.655,-1.81
13:31:35.352,-0.495,-1.33
13:31:35.356,-0.335,-0.91
13:31:35.360,-0.145,-0.54
13:31:35.364,-0.025,-0.25
13:31:35.368,0.045,0.02
13:31:35.372,0.1,0.26
13:31:35.376,0.13,0.51
13:31:35.380,0.175,0.74
13:31:35.384,0.205,0.88
13:31:35.388,0.26,1.03
13:31:35.392,0.295,1.135
13:31:35.396,0.365,1.195
13:31:35.400,0.435,1.22
13:31:35.404,0.52,1.265
13:31:35.408,0.575,1.315
13:31:35.412,0.55,1.355
13:31:35.416,0.5,1.395
13:31:35.420,0.48,1.43
13:31:35.424,0.495,1.48
13:31:35.428,0.52,1.51
13:31:35.432,0.485,1.52
13:31:35.436,0.505,1.52
13:31:35.440,0.52,1.53
13:31:35.444,0.545,1.54
13:31:35.448,0.58,1.525
13:31:35.452,0.595,1.53
13:31:35.456,0.575,1.57
13:31:35.460,0.565,1.59
13:31:35.464,0.575,1.615
13:31:35.468,0.595,1.645
13:31:35.472,0.575,1.64
13:31:35.476,0.595,1.65
13:31:35.480,0.61,1.685
13:31:35.484,0.62,1.72
13:31:35.488,0.655,1.76
13:31:35.492,0.655,1.78
13:31:35.496,0.685,1.81
13:31:35.500,0.71,1.835
13:31:35.504,0.655,1.87
13:31:35.508,0.575,1.88
13:31:35.512,0.535,1.88
13:31:35.516,0.51,1.91
13:31:35.520,0.51,1.905
13:31:35.524,0.515,1.935
13:31:35.528,0.51,1.955
13:31:35.532,0.495,1.895
13:31:35.536,0.51,1.885
13:31:35.540,0.47,1.87
13:31:35.544,0.405,1.825
13:31:35.548,0.335,1.785
13:31:35.552,0.28,1.755
13:31:35.556,0.275,1.71
13:31:35.560,0.24,1.65
13:31:35.564,0.235,1.595
13:31:35.568,0.215,1.5
13:31:35.572,0.205,1.43
13:31:35.576,0.21,1.39
13:31:35.580,0.235,1.33
13:31:35.584,0.28,1.28
13:31:35.588,0.27,1.26
13:31:35.592,0.22,1.2
13:31:35.596,0.17,1.15
13:31:35.600,0.115,1.08
13:31:35.604,0.09,1.035
13:31:35.608,0.1,0.995
13:31:35.612,0.095,1.005
13:31:35.616,0.08,0.95
13:31:35.620,0.07,0.87
13:31:35.624,0.06,0.79
13:31:35.628,0.02,0.71
13:31:35.632,0.005,0.675
13:31:35.636,0.01,0.64
13:31:35.640,0.01,0.595
13:31:35.644,0.01,0.545
13:31:35.648,0.055,0.55
13:31:35.652,0.16,0.505
13:31:35.656,0.23,0.49
13:31:35.660,0.185,0.525
13:31:35.664,0.035,0.605
13:31:35.668,-0.315,0.63
13:31:35.672,-0.94,0.545
13:31:35.676,-1.575,0.29
13:31:35.680,-2.125,-0.065
13:31:35.684,-2.425,-0.635
13:31:35.688,-2.56,-1.585
13:31:35.692,-2.55,-2.555
13:31:35.696,-2.515,-3.39
13:31:35.700,-2.505,-4.015
13:31:35.704,-2.58,-4.385
13:31:35.708,-2.66,-4.62
13:31:35.712,-2.675,-4.715
13:31:35.716,-2.59,-4.735
13:31:35.720,-2.42,-4.69
13:31:35.724,-2.22,-4.645
13:31:35.728,-2.065,-4.59
13:31:35.732,-1.94,-4.535
13:31:35.736,-1.755,-4.48
13:31:35.740,-1.495,-4.295
13:31:35.744,-1.235,-4.005
13:31:35.748,-1.085,-3.65
13:31:35.752,-0.95,-3.24
13:31:35.756,-0.785,-2.695
13:31:35.760,-0.575,-2.075
13:31:35.764,-0.375,-1.545
13:31:35.768,-0.185,-1.06
13:31:35.772,-0.035,-0.61
13:31:35.776,0.04,-0.265
13:31:35.780,0.13,0.06
13:31:35.784,0.215,0.35
13:31:35.788,0.215,0.6
13:31:35.792,0.22,0.815
13:31:35.796,0.215,0.965
13:31:35.800,0.235,1.08
13:31:35.804,0.255,1.13
13:31:35.808,0.25,1.19
13:31:35.812,0.29,1.21
13:31:35.816,0.335,1.24
13:31:35.820,0.335,1.235
13:31:35.824,0.38,1.255
13:31:35.828,0.4,1.27
13:31:35.832,0.435,1.28
13:31:35.836,0.405,1.295
13:31:35.840,0.415,1.285
13:31:35.844,0.39,1.32
13:31:35.848,0.38,1.355
13:31:35.852,0.405,1.4
13:31:35.856,0.425,1.41
13:31:35.860,0.41,1.43
13:31:35.864,0.375,1.42
13:31:35.868,0.335,1.435
13:31:35.872,0.31,1.475
13:31:35.876,0.29,1.475
13:31:35.880,0.275,1.49
13:31:35.884,0.25,1.505
13:31:35.888,0.25,1.525
13:31:35.892,0.305,1.545
13:31:35.896,0.36,1.57
13:31:35.900,0.35,1.59
13:31:35.904,0.355,1.595
13:31:35.908,0.365,1.615
13:31:35.912,0.355,1.615
13:31:35.916,0.365,1.665
13:31:35.920,0.37,1.68
13:31:35.924,0.4,1.7
13:31:35.928,0.395,1.695
13:31:35.932,0.405,1.715
13:31:35.936,0.375,1.725
13:31:35.940,0.39,1.73
13:31:35.944,0.37,1.725
13:31:35.948,0.335,1.7
13:31:35.952,0.315,1.69
13:31:35.956,0.33,1.65
13:31:35.960,0.33,1.61
13:31:35.964,0.33,1.55
13:31:35.968,0.285,1.54
13:31:35.972,0.245,1.5
13:31:35.976,0.195,1.435
13:31:35.980,0.165,1.36
13:31:35.984,0.16,1.27
13:31:35.988,0.13,1.2
13:31:35.992,0.13,1.12
13:31:35.996,0.085,1.025
13:31:36.000,0.05,0.905
13:31:36.004,0.095,0.83
13:31:36.008,0.03,0.78
13:31:36.012,-0.08,0.74
13:31:36.016,-0.18,0.685
13:31:36.020,-0.21,0.66
13:31:36.024,-0.195,0.67
13:31:36.028,-0.16,0.665
13:31:36.032,-0.18,0.645
13:31:36.036,-0.18,0.615
13:31:36.040,-0.155,0.6
13:31:36.044,-0.16,0.595
13:31:36.048,-0.175,0.565
13:31:36.052,-0.195,0.58
13:31:36.056,-0.175,0.57
13:31:36.060,-0.14,0.58
13:31:36.064,-0.155,0.58
13:31:36.068,-0.135,0.57
13:31:36.072,-0.115,0.535
13:31:36.076,-0.15,0.54
13:31:36.080,-0.21,0.56
13:31:36.084,-0.205,0.55
13:31:36.088,-0.16,0.545
13:31:36.092,-0.16,0.545
13:31:36.096,-0.12,0.545
13:31:36.100,-0.09,0.58
13:31:36.104,-0.095,0.59
13:31:36.108,-0.125,0.595
13:31:36.112,-0.16,0.57
13:31:36.116,-0.165,0.57
13:31:36.120,-0.18,0.6
13:31:36.124,-0.195,0.57
13:31:36.128,-0.2,0.6
13:31:36.132,-0.175,0.58
13:31:36.136,-0.155,0.58
13:31:36.140,-0.13,0.56
13:31:36.144,-0.13,0.52
13:31:36.148,-0.105,0.495
13:31:36.152,-0.115,0.475
13:31:36.156,-0.135,0.49
13:31:36.160,-0.12,0.465
13:31:36.164,-0.13,0.49
13:31:36.168,-0.11,0.455
13:31:36.172,-0.11,0.48
13:31:36.176,-0.1,0.44
13:31:36.180,-0.13,0.45
13:31:36.184,-0.095,0.46
13:31:36.188,-0.095,0.47
13:31:36.192,-0.03,0.49
13:31:36.196,-0.06,0.48
13:31:36.200,-0.125,0.495
13:31:36.204,-0.12,0.525
13:31:36.208,-0.11,0.505
13:31:36.212,-0.07,0.495
13:31:36.216,-0.09,0.485
13:31:36.220,-0.17,0.525
13:31:36.224,-0.215,0.52
13:31:36.228,-0.16,0.485
13:31:36.232,-0.135,0.5
13:31:36.236,-0.125,0.505
13:31:36.240,-0.16,0.505
13:31:36.244,-0.16,0.505
13:31:36.248,-0.14,0.53
13:31:36.252,-0.11,0.55
13:31:36.256,-0.12,0.555
13:31:36.260,-0.105,0.56
13:31:36.264,-0.105,0.545
13:31:36.268,-0.11,0.55
13:31:36.272,-0.115,0.56
13:31:36.276,-0.125,0.56
13:31:36.280,-0.135,0.555
13:31:36.284,-0.135,0.565
13:31:36.288,-0.135,0.56
13:31:36.292,-0.13,0.58
13:31:36.296,-0.1,0.61
13:31:36.300,-0.125,0.575
13:31:36.304,-0.17,0.585
13:31:36.308,-0.18,0.56
13:31:36.312,-0.15,0.51
13:31:36.316,-0.12,0.475
13:31:36.320,-0.165,0.445
13:31:36.324,-0.17,0.43
13:31:36.328,-0.185,0.415
13:31:36.332,-0.225,0.395
13:31:36.336,-0.235,0.38
13:31:36.340,-0.205,0.4
13:31:36.344,-0.17,0.415
13:31:36.348,-0.125,0.435
13:31:36.352,-0.11,0.425
13:31:36.356,-0.115,0.4
13:31:36.360,-0.145,0.38
13:31:36.364,-0.105,0.41
13:31:36.368,-0.065,0.435
13:31:36.372,-0.11,0.425
13:31:36.376,-0.28,0.405
13:31:36.380,-0.34,0.415
13:31:36.384,-0.31,0.415
13:31:36.388,-0.29,0.415
13:31:36.392,-0.295,0.455
13:31:36.396,-0.295,0.455
13:31:36.400,-0.275,0.43
13:31:36.404,-0.235,0.39
13:31:36.408,-0.23,0.415
13:31:36.412,-0.21,0.405
13:31:36.416,-0.16,0.375
13:31:36.420,-0.065,0.36
13:31:36.424,0.06,0.355
13:31:36.428,0.075,0.395
13:31:36.432,-0.08,0.48
13:31:36.436,-0.295,0.575
13:31:36.440,-0.625,0.58
13:31:36.444,-1.06,0.34
13:31:36.448,-1.5,-0.09
13:31:36.452,-1.785,-0.705
13:31:36.456,-1.9,-1.6
13:31:36.460,-1.905,-2.635
13:31:36.464,-1.795,-3.47
13:31:36.468,-1.72,-4.075
13:31:36.472,-1.755,-4.45
13:31:36.476,-1.77,-4.705
13:31:36.480,-1.705,-4.79
13:31:36.484,-1.685,-4.835
13:31:36.488,-1.75,-4.795
13:31:36.492,-1.76,-4.705
13:31:36.496,-1.675,-4.635
13:31:36.500,-1.585,-4.585
13:31:36.504,-1.54,-4.505
13:31:36.508,-1.475,-4.46
13:31:36.512,-1.415,-4.34
13:31:36.516,-1.355,-4.14
13:31:36.520,-1.28,-3.86
13:31:36.524,-1.18,-3.555
13:31:36.528,-1.085,-3.17
13:31:36.532,-0.985,-2.745
13:31:36.536,-0.855,-2.225
13:31:36.540,-0.68,-1.65
13:31:36.544,-0.54,-1.17
13:31:36.548,-0.37,-0.8
13:31:36.552,-0.195,-0.43
13:31:36.556,-0.065,-0.155
13:31:36.560,0.025,0.035
13:31:36.564,0.095,0.245
13:31:36.568,0.11,0.5
13:31:36.572,0.11,0.69
13:31:36.576,0.17,0.85
13:31:36.580,0.205,0.97
13:31:36.584,0.235,1.12
13:31:36.588,0.26,1.16
13:31:36.592,0.27,1.205
13:31:36.596,0.285,1.21
13:31:36.600,0.23,1.24
13:31:36.604,0.175,1.3
13:31:36.608,0.245,1.325
13:31:36.612,0.315,1.39
13:31:36.616,0.365,1.42
13:31:36.620,0.41,1.435
13:31:36.624,0.41,1.48
13:31:36.628,0.4,1.51
13:31:36.632,0.43,1.515
13:31:36.636,0.45,1.525
13:31:36.640,0.505,1.54
13:31:36.644,0.515,1.59
13:31:36.648,0.51,1.635
13:31:36.652,0.49,1.675
13:31:36.656,0.475,1.69
13:31:36.660,0.52,1.725
13:31:36.664,0.6,1.76
13:31:36.668,0.685,1.775
13:31:36.672,0.76,1.79
13:31:36.676,0.76,1.845
13:31:36.680,0.71,1.895
13:31:36.684,0.695,1.925
13:31:36.688,0.725,1.96
13:31:36.692,0.725,1.97
13:31:36.696,0.725,1.965
13:31:36.700,0.685,1.955
13:31:36.704,0.655,1.97
13:31:36.708,0.655,1.96
13:31:36.712,0.625,1.98
13:31:36.716,0.63,1.98
13:31:36.720,0.625,2.035
13:31:36.724,0.64,2.02
13:31:36.728,0.655,1.995
13:31:36.732,0.68,1.96
13:31:36.736,0.7,1.96
13:31:36.740,0.61,1.925
13:31:36.744,0.445,1.905
13:31:36.748,0.34,1.865
13:31:36.752,0.375,1.81
13:31:36.756,0.375,1.74
13:31:36.760,0.365,1.7
13:31:36.764,0.385,1.67
13:31:36.768,0.39,1.61
13:31:36.772,0.37,1.54
13:31:36.776,0.34,1.495
13:31:36.780,0.325,1.42
13:31:36.784,0.34,1.34
13:31:36.788,0.27,1.28
13:31:36.792,0.14,1.23
13:31:36.796,0.06,1.2
13:31:36.800,0.075,1.14
13:31:36.804,0.105,1.075
13:31:36.808,0.07,1.035
13:31:36.812,0.065,0.975
13:31:36.816,0.04,0.95
13:31:36.820,0.01,0.895
13:31:36.824,0.0,0.815
13:31:36.828,0.025,0.8
13:31:36.832,0.045,0.81
13:31:36.836,0.05,0.79
13:31:36.840,0.04,0.75
13:31:36.844,0.045,0.765
13:31:36.848,0.085,0.755
13:31:36.852,0.06,0.71
13:31:36.856,0.03,0.705
13:31:36.860,0.045,0.68
13:31:36.864,0.09,0.635
13:31:36.868,0.06,0.615
13:31:36.872,0.035,0.575
13:31:36.876,0.035,0.56
13:31:36.880,0.03,0.535
13:31:36.884,0.0,0.54
13:31:36.888,-0.06,0.525
13:31:36.892,-0.1,0.515
13:31:36.896,-0.125,0.515
13:31:36.900,-0.135,0.525
13:31:36.904,-0.145,0.495
13:31:36.908,-0.07,0.485
13:31:36.912,-0.02,0.485
13:31:36.916,-0.095,0.515
13:31:36.920,-0.185,0.51
13:31:36.924,-0.19,0.485
13:31:36.928,-0.145,0.45
13:31:36.932,-0.15,0.465
13:31:36.936,-0.14,0.485
13:31:36.940,-0.125,0.465
13:31:36.944,-0.06,0.47
13:31:36.948,-0.025,0.5
13:31:36.952,0.03,0.515
13:31:36.956,-0.005,0.52
13:31:36.960,-0.025,0.485
13:31:36.964,-0.055,0.47
13:31:36.968,0.015,0.475
13:31:36.972,0.05,0.485
13:31:36.976,-0.01,0.5
13:31:36.980,-0.04,0.495
13:31:36.984,-0.005,0.505
13:31:36.988,0.06,0.49
13:31:36.992,0.135,0.475
13:31:36.996,0.24,0.49
13:31:37.000,0.29,0.51
13:31:37.004,0.34,0.51
13:31:37.008,0.43,0.525
13:31:37.012,0.57,0.54
13:31:37.016,0.59,0.585
13:31:37.020,0.575,0.65
13:31:37.024,0.585,0.72
13:31:37.028,0.65,0.77
13:31:37.032,0.855,0.825
13:31:37.036,1.09,0.88
13:31:37.040,1.305,1.0
13:31:37.044,1.48,1.13
13:31:37.048,1.625,1.35
13:31:37.052,1.755,1.485
13:31:37.056,1.875,1.59
13:31:37.060,2.01,1.66
13:31:37.064,2.14,1.765
13:31:37.068,2.245,1.925
13:31:37.072,2.375,2.04
13:31:37.076,2.5,2.135
13:31:37.080,2.61,2.18
13:31:37.084,2.585,2.29
13:31:37.088,2.37,2.42
13:31:37.092,2.03,2.54
13:31:37.096,1.665,2.62
13:31:37.100,1.375,2.705
13:31:37.104,1.16,2.75
13:31:37.108,1.025,2.76
13:31:37.112,0.845,2.725
13:31:37.116,0.585,2.64
13:31:37.120,0.295,2.59
13:31:37.124,-0.035,2.55
13:31:37.128,-0.525,2.53
13:31:37.132,-0.99,2.475
13:31:37.136,-1.275,2.36
13:31:37.140,-1.355,2.19
13:31:37.144,-1.3,1.95
13:31:37.148,-1.095,1.71
13:31:37.152,-0.91,1.6
13:31:37.156,-0.75,1.545
13:31:37.160,-0.79,1.335
13:31:37.164,-0.85,0.835
13:31:37.168,-0.795,0.17
13:31:37.172,-0.715,-0.315
13:31:37.176,-0.67,-0.525
13:31:37.180,-0.755,-0.69
13:31:37.184,-0.86,-0.805
13:31:37.188,-0.95,-0.895
13:31:37.192,-1.035,-0.97
13:31:37.196,-1.055,-1.025
13:31:37.200,-1.025,-1.1
13:31:37.204,-0.915,-1.135
13:31:37.208,-0.855,-1.16
13:31:37.212,-0.915,-1.205
13:31:37.216,-1.025,-1.25
13:31:37.220,-1.065,-1.3
13:31:37.224,-1.085,-1.34
13:31:37.228,-1.14,-1.335
13:31:37.232,-1.2,-1.4
13:31:37.236,-1.26,-1.465
13:31:37.240,-1.325,-1.535
13:31:37.244,-1.34,-1.555
13:31:37.248,-1.34,-1.62
13:31:37.252,-1.405,-1.655
13:31:37.256,-1.46,-1.705
13:31:37.260,-1.5,-1.79
13:31:37.264,-1.535,-1.895
13:31:37.268,-1.625,-1.97
13:31:37.272,-1.735,-2.05
13:31:37.276,-1.755,-2.11
13:31:37.280,-1.715,-2.24
13:31:37.284,-1.745,-2.325
13:31:37.288,-1.85,-2.41
13:31:37.292,-1.945,-2.43
13:31:37.296,-1.95,-2.505
13:31:37.300,-1.875,-2.575
13:31:37.304,-1.805,-2.64
13:31:37.308,-1.69,-2.685
13:31:37.312,-1.6,-2.71
13:31:37.316,-1.595,-2.775
13:31:37.320,-1.55,-2.785
13:31:37.324,-1.485,-2.795
13:31:37.328,-1.495,-2.805
13:31:37.332,-1.425,-2.795
13:31:37.336,-1.315,-2.8
13:31:37.340,-1.2,-2.81
13:31:37.344,-1.135,-2.77
13:31:37.348,-1.01,-2.72
13:31:37.352,-0.94,-2.69
13:31:37.356,-0.895,-2.655
13:31:37.360,-0.845,-2.58
13:31:37.364,-0.735,-2.51
13:31:37.368,-0.65,-2.42
13:31:37.372,-0.555,-2.295
13:31:37.376,-0.47,-2.22
13:31:37.380,-0.39,-2.145
13:31:37.384,-0.305,-2.045
13:31:37.388,-0.32,-1.92
13:31:37.392,-0.335,-1.785
13:31:37.396,-0.32,-1.655
13:31:37.400,-0.33,-1.53
13:31:37.404,-0.33,-1.41
13:31:37.408,-0.29,-1.295
13:31:37.412,-0.225,-1.16
13:31:37.416,-0.2,-1.055
13:31:37.420,-0.165,-0.915
13:31:37.424,-0.135,-0.805
13:31:37.428,-0.095,-0.7
13:31:37.432,-0.045,-0.605
13:31:37.436,-0.035,-0.53
13:31:37.440,-0.005,-0.42
13:31:37.444,-0.06,-0.37
13:31:37.448,-0.14,-0.32
13:31:37.452,-0.13,-0.295
13:31:37.456,-0.11,-0.245
13:31:37.460,-0.12,-0.225
13:31:37.464,-0.08,-0.21
13:31:37.468,-0.065,-0.18
13:31:37.472,-0.07,-0.16
13:31:37.476,-0.04,-0.13
13:31:37.480,0.03,-0.09
13:31:37.484,0.0,-0.065
13:31:37.488,-0.09,-0.035
13:31:37.492,-0.12,0.0
13:31:37.496,-0.09,-0.005
13:31:37.500,-0.08,0.0
13:31:37.504,-0.08,0.02
13:31:37.508,-0.055,0.07
13:31:37.512,0.0,0.12
13:31:37.516,0.005,0.125
13:31:37.520,-0.005,0.165
13:31:37.524,-0.015,0.2
13:31:37.528,-0.02,0.215
13:31:37.532,0.005,0.24
13:31:37.536,-0.005,0.235
13:31:37.540,-0.015,0.26
13:31:37.544,-0.03,0.26
13:31:37.548,0.005,0.24
13:31:37.552,0.075,0.26
13:31:37.556,0.1,0.275
13:31:37.560,0.06,0.265
13:31:37.564,-0.035,0.31
13:31:37.568,-0.095,0.285
13:31:37.572,-0.08,0.245
13:31:37.576,-0.06,0.28
13:31:37.580,-0.095,0.32
13:31:37.584,-0.11,0.34
13:31:37.588,-0.06,0.355
13:31:37.592,-0.04,0.345
13:31:37.596,-0.07,0.335
13:31:37.600,-0.11,0.31
13:31:37.604,-0.1,0.31
13:31:37.608,-0.085,0.315
13:31:37.612,-0.015,0.29
13:31:37.616,0.07,0.32
13:31:37.620,0.045,0.345
13:31:37.624,-0.03,0.34
13:31:37.628,-0.05,0.34
13:31:37.632,-0.035,0.3
13:31:37.636,-0.065,0.31
13:31:37.640,-0.105,0.325
13:31:37.644,-0.14,0.3
13:31:37.648,-0.14,0.285
13:31:37.652,-0.065,0.28
13:31:37.656,0.05,0.305
13:31:37.660,-0.02,0.305
13:31:37.664,-0.115,0.3
13:31:37.668,-0.08,0.29
13:31:37.672,-0.025,0.29
13:31:37.676,0.01,0.34
13:31:37.680,0.035,0.34
13:31:37.684,0.05,0.375
13:31:37.688,0.17,0.355
13:31:37.692,0.3,0.355
13:31:37.696,0.355,0.36
13:31:37.700,0.38,0.365
13:31:37.704,0.305,0.44
13:31:37.708,0.165,0.485
13:31:37.712,-0.06,0.58
13:31:37.716,-0.49,0.545
13:31:37.720,-0.96,0.275
13:31:37.724,-1.33,-0.185
13:31:37.728,-1.545,-0.765
13:31:37.732,-1.675,-1.635
13:31:37.736,-1.74,-2.64
13:31:37.740,-1.635,-3.445
13:31:37.744,-1.495,-4.04
13:31:37.748,-1.425,-4.45
13:31:37.752,-1.5,-4.66
13:31:37.756,-1.585,-4.81
13:31:37.760,-1.6,-4.855
13:31:37.764,-1.555,-4.83
13:31:37.768,-1.58,-4.735
13:31:37.772,-1.63,-4.635
13:31:37.776,-1.655,-4.545
13:31:37.780,-1.65,-4.485
13:31:37.784,-1.625,-4.415
13:31:37.788,-1.54,-4.35
13:31:37.792,-1.405,-4.16
13:31:37.796,-1.18,-3.905
13:31:37.800,-1.04,-3.625
13:31:37.804,-1.025,-3.285
13:31:37.808,-0.98,-2.905
13:31:37.812,-0.855,-2.435
13:31:37.816,-0.695,-1.895
13:31:37.820,-0.525,-1.375
13:31:37.824,-0.38,-0.935
13:31:37.828,-0.235,-0.585
13:31:37.832,-0.11,-0.29
13:31:37.836,-0.04,-0.02
13:31:37.840,0.03,0.21
13:31:37.844,0.185,0.43
13:31:37.848,0.225,0.645
13:31:37.852,0.165,0.785
13:31:37.856,0.195,0.915
13:31:37.860,0.29,0.995
13:31:37.864,0.39,1.05
13:31:37.868,0.41,1.12
13:31:37.872,0.305,1.145
13:31:37.876,0.22,1.17
13:31:37.880,0.29,1.22
13:31:37.884,0.37,1.245
13:31:37.888,0.35,1.315
13:31:37.892,0.405,1.365
13:31:37.896,0.465,1.39
13:31:37.900,0.475,1.42
13:31:37.904,0.46,1.46
13:31:37.908,0.505,1.47
13:31:37.912,0.6,1.51
13:31:37.916,0.715,1.52
13:31:37.920,0.775,1.565
13:31:37.924,0.71,1.6
13:31:37.928,0.665,1.635
13:31:37.932,0.635,1.675
13:31:37.936,0.58,1.715
13:31:37.940,0.61,1.735
13:31:37.944,0.695,1.78
13:31:37.948,0.745,1.795
13:31:37.952,0.66,1.83
13:31:37.956,0.595,1.855
13:31:37.960,0.665,1.88
13:31:37.964,0.725,1.925
13:31:37.968,0.745,1.935
13:31:37.972,0.71,1.975
13:31:37.976,0.725,1.985
13:31:37.980,0.73,2.0
13:31:37.984,0.685,2.045
13:31:37.988,0.58,2.08
13:31:37.992,0.585,2.085
13:31:37.996,0.665,2.085
13:31:38.000,0.815,2.075
13:31:38.004,0.87,2.075
13:31:38.008,0.825,2.045
13:31:38.012,0.645,2.03
13:31:38.016,0.555,2.005
13:31:38.020,0.52,1.99
13:31:38.024,0.505,1.945
13:31:38.028,0.555,1.93
13:31:38.032,0.555,1.915
13:31:38.036,0.48,1.84
13:31:38.040,0.38,1.835
13:31:38.044,0.275,1.73
13:31:38.048,0.225,1.695
13:31:38.052,0.235,1.63
13:31:38.056,0.295,1.53
13:31:38.060,0.32,1.435
13:31:38.064,0.2,1.345
13:31:38.068,0.155,1.275
13:31:38.072,0.095,1.18
13:31:38.076,0.07,1.12
13:31:38.080,0.075,1.02
13:31:38.084,0.05,0.965
13:31:38.088,-0.015,0.905
13:31:38.092,-0.14,0.865
13:31:38.096,-0.115,0.83
13:31:38.100,-0.025,0.785
13:31:38.104,0.02,0.755
13:31:38.108,-0.03,0.715
13:31:38.112,-0.09,0.695
13:31:38.116,-0.08,0.69
13:31:38.120,-0.16,0.655
13:31:38.124,-0.27,0.65
13:31:38.128,-0.27,0.65
13:31:38.132,-0.15,0.605
13:31:38.136,-0.145,0.61
13:31:38.140,-0.235,0.605
13:31:38.144,-0.32,0.575
13:31:38.148,-0.28,0.575
13:31:38.152,-0.21,0.57
13:31:38.156,-0.165,0.575
13:31:38.160,-0.095,0.575
13:31:38.164,-0.095,0.605
13:31:38.168,-0.235,0.6
13:31:38.172,-0.34,0.61
13:31:38.176,-0.255,0.595
13:31:38.180,-0.045,0.585
13:31:38.184,0.05,0.625
13:31:38.188,-0.065,0.615
13:31:38.192,-0.165,0.615
13:31:38.196,-0.1,0.6
13:31:38.200,-0.09,0.61
13:31:38.204,-0.215,0.635
13:31:38.208,-0.3,0.655
13:31:38.212,-0.315,0.655
13:31:38.216,-0.345,0.66
13:31:38.220,-0.29,0.695
13:31:38.224,-0.155,0.71
13:31:38.228,-0.055,0.755
13:31:38.232,-0.065,0.745
13:31:38.236,0.0,0.73
13:31:38.240,0.035,0.69
13:31:38.244,-0.06,0.715
13:31:38.248,-0.22,0.705
13:31:38.252,-0.33,0.665
13:31:38.256,-0.275,0.585
13:31:38.260,-0.09,0.56
13:31:38.264,-0.05,0.56
13:31:38.268,-0.25,0.575
13:31:38.272,-0.495,0.63
13:31:38.276,-0.745,0.63
13:31:38.280,-1.09,0.47
13:31:38.284,-1.465,0.06
13:31:38.288,-1.76,-0.455
13:31:38.292,-1.95,-1.14
13:31:38.296,-2.11,-2.135
13:31:38.300,-2.235,-3.05
13:31:38.304,-2.26,-3.735
13:31:38.308,-2.32,-4.205
13:31:38.312,-2.395,-4.54
13:31:38.316,-2.25,-4.705
13:31:38.320,-2.07,-4.795
13:31:38.324,-2.09,-4.845
13:31:38.328,-2.135,-4.785
13:31:38.332,-1.92,-4.73
13:31:38.336,-1.755,-4.7
13:31:38.340,-1.82,-4.67
13:31:38.344,-1.99,-4.615
13:31:38.348,-1.885,-4.555
13:31:38.352,-1.625,-4.41
13:31:38.356,-1.515,-4.18
13:31:38.360,-1.475,-3.885
13:31:38.364,-1.295,-3.505
13:31:38.368,-1.085,-3.07
13:31:38.372,-0.85,-2.545
13:31:38.376,-0.705,-1.965
13:31:38.380,-0.68,-1.46
13:31:38.384,-0.585,-1.06
13:31:38.388,-0.385,-0.645
13:31:38.392,-0.17,-0.285
13:31:38.396,0.045,-0.02
13:31:38.400,0.145,0.235
13:31:38.404,0.14,0.435
13:31:38.408,0.06,0.66
13:31:38.412,-0.06,0.825
13:31:38.416,-0.135,0.96
13:31:38.420,-0.035,1.095
13:31:38.424,0.13,1.175
13:31:38.428,0.235,1.255
13:31:38.432,0.155,1.29
13:31:38.436,0.065,1.315
13:31:38.440,0.075,1.325
13:31:38.444,0.035,1.32
13:31:38.448,-0.03,1.315
13:31:38.452,-0.02,1.31
13:31:38.456,0.025,1.305
13:31:38.460,0.07,1.27
13:31:38.464,0.19,1.275
13:31:38.468,0.335,1.335
13:31:38.472,0.305,1.385
13:31:38.476,0.195,1.41
13:31:38.480,0.18,1.425
13:31:38.484,0.185,1.43
13:31:38.488,0.255,1.46
13:31:38.492,0.29,1.51
13:31:38.496,0.385,1.545
13:31:38.500,0.5,1.545
13:31:38.504,0.455,1.59
13:31:38.508,0.365,1.605
13:31:38.512,0.39,1.62
13:31:38.516,0.395,1.68
13:31:38.520,0.315,1.69
13:31:38.524,0.29,1.71
13:31:38.528,0.435,1.7
13:31:38.532,0.55,1.725
13:31:38.536,0.55,1.76
13:31:38.540,0.43,1.765
13:31:38.544,0.305,1.785
13:31:38.548,0.235,1.765
13:31:38.552,0.235,1.765
13:31:38.556,0.285,1.8
13:31:38.560,0.3,1.82
13:31:38.564,0.32,1.805
13:31:38.568,0.35,1.795
13:31:38.572,0.315,1.745
13:31:38.576,0.215,1.71
13:31:38.580,0.15,1.635
13:31:38.584,0.13,1.6
13:31:38.588,0.195,1.56
13:31:38.592,0.27,1.51
13:31:38.596,0.305,1.47
13:31:38.600,0.23,1.405
13:31:38.604,0.04,1.33
13:31:38.608,-0.245,1.245
13:31:38.612,-0.44,1.185
13:31:38.616,-0.465,1.13
13:31:38.620,-0.425,1.07
13:31:38.624,-0.4,1.015
13:31:38.628,-0.355,0.97
13:31:38.632,-0.295,0.925
13:31:38.636,-0.35,0.865
13:31:38.640,-0.405,0.81
13:31:38.644,-0.35,0.75
13:31:38.648,-0.305,0.72
13:31:38.652,-0.33,0.675
13:31:38.656,-0.35,0.665
13:31:38.660,-0.355,0.66
13:31:38.664,-0.35,0.645
13:31:38.668,-0.31,0.635
13:31:38.672,-0.325,0.605
13:31:38.676,-0.35,0.54
13:31:38.680,-0.285,0.5
13:31:38.684,-0.275,0.47
13:31:38.688,-0.195,0.44
13:31:38.692,-0.175,0.42
13:31:38.696,-0.35,0.415
13:31:38.700,-0.555,0.4
13:31:38.704,-0.55,0.39
13:31:38.708,-0.49,0.38
13:31:38.712,-0.405,0.4
13:31:38.716,-0.305,0.39
13:31:38.720,-0.205,0.39
13:31:38.724,-0.235,0.4
13:31:38.728,-0.295,0.41
13:31:38.732,-0.315,0.42
13:31:38.736,-0.235,0.42
13:31:38.740,-0.215,0.42
13:31:38.744,-0.275,0.415
13:31:38.748,-0.3,0.435
13:31:38.752,-0.315,0.435
13:31:38.756,-0.3,0.43
13:31:38.760,-0.275,0.415
13:31:38.764,-0.255,0.405
13:31:38.768,-0.24,0.395
13:31:38.772,-0.2,0.41
13:31:38.776,-0.17,0.415
13:31:38.780,-0.205,0.445
13:31:38.784,-0.225,0.435
13:31:38.788,-0.25,0.42
13:31:38.792,-0.295,0.44
13:31:38.796,-0.31,0.415
13:31:38.800,-0.28,0.415
13:31:38.804,-0.285,0.44
13:31:38.808,-0.355,0.435
13:31:38.812,-0.39,0.38
13:31:38.816,-0.395,0.375
13:31:38.820,-0.42,0.37
13:31:38.824,-0.425,0.405
13:31:38.828,-0.4,0.4
13:31:38.832,-0.37,0.41
13:31:38.836,-0.355,0.415
13:31:38.840,-0.295,0.37
13:31:38.844,-0.245,0.375
13:31:38.848,-0.255,0.385
13:31:38.852,-0.255,0.41
13:31:38.856,-0.245,0.355
13:31:38.860,-0.255,0.385
13:31:38.864,-0.245,0.38
13:31:38.868,-0.18,0.405
13:31:38.872,-0.16,0.375
13:31:38.876,-0.235,0.375
13:31:38.880,-0.24,0.355
13:31:38.884,-0.185,0.345
13:31:38.888,-0.195,0.37
13:31:38.892,-0.32,0.36
13:31:38.896,-0.345,0.375
13:31:38.900,-0.32,0.38
13:31:38.904,-0.285,0.385
13:31:38.908,-0.265,0.385
13:31:38.912,-0.27,0.36
13:31:38.916,-0.215,0.37
13:31:38.920,-0.195,0.37
13:31:38.924,-0.17,0.36
13:31:38.928,-0.175,0.395
13:31:38.932,-0.18,0.375
13:31:38.936,-0.16,0.375
13:31:38.940,-0.175,0.38
13:31:38.944,-0.18,0.385
13:31:38.948,-0.145,0.415
13:31:38.952,-0.09,0.395
13:31:38.956,-0.075,0.385
13:31:38.960,-0.24,0.36
13:31:38.964,-0.3,0.355
13:31:38.968,-0.265,0.39
13:31:38.972,-0.205,0.405
13:31:38.976,-0.28,0.405
13:31:38.980,-0.365,0.38
13:31:38.984,-0.43,0.365
13:31:38.988,-0.405,0.345
13:31:38.992,-0.365,0.355
13:31:38.996,-0.31,0.37
13:31:39.000,-0.285,0.355
13:31:39.004,-0.25,0.395
13:31:39.008,-0.255,0.365
13:31:39.012,-0.285,0.36
13:31:39.016,-0.28,0.335
13:31:39.020,-0.24,0.375
13:31:39.024,-0.155,0.385
13:31:39.028,-0.1,0.37
13:31:39.032,-0.02,0.425
13:31:39.036,0.1,0.39
13:31:39.040,0.185,0.4
13:31:39.044,0.17,0.425
13:31:39.048,0.01,0.47
13:31:39.052,-0.15,0.54
13:31:39.056,-0.425,0.545
13:31:39.060,-0.84,0.245
13:31:39.064,-1.145,-0.32
13:31:39.068,-1.41,-0.98
13:31:39.072,-1.585,-1.92
13:31:39.076,-1.62,-2.94
13:31:39.080,-1.45,-3.735
13:31:39.084,-1.3,-4.24
13:31:39.088,-1.31,-4.565
13:31:39.092,-1.305,-4.72
13:31:39.096,-1.35,-4.84
13:31:39.100,-1.43,-4.855
13:31:39.104,-1.465,-4.805
13:31:39.108,-1.365,-4.715
13:31:39.112,-1.2,-4.585
13:31:39.116,-1.18,-4.515
13:31:39.120,-1.185,-4.46
13:31:39.124,-1.115,-4.34
13:31:39.128,-1.05,-4.195
13:31:39.132,-0.93,-3.91
13:31:39.136,-0.815,-3.585
13:31:39.140,-0.72,-3.215
13:31:39.144,-0.62,-2.8
13:31:39.148,-0.545,-2.23
13:31:39.152,-0.365,-1.7
13:31:39.156,-0.205,-1.205
13:31:39.160,-0.13,-0.8
13:31:39.164,-0.035,-0.46
13:31:39.168,0.08,-0.17
13:31:39.172,0.145,0.085
13:31:39.176,0.185,0.28
13:31:39.180,0.195,0.455
13:31:39.184,0.185,0.655
13:31:39.188,0.27,0.785
13:31:39.192,0.35,0.895
13:31:39.196,0.4,1.01
13:31:39.200,0.395,1.05
13:31:39.204,0.39,1.14
13:31:39.208,0.445,1.15
13:31:39.212,0.54,1.205
13:31:39.216,0.585,1.24
13:31:39.220,0.575,1.235
13:31:39.224,0.485,1.235
13:31:39.228,0.455,1.24
13:31:39.232,0.52,1.28
13:31:39.236,0.595,1.31
13:31:39.240,0.68,1.345
13:31:39.244,0.73,1.41
13:31:39.248,0.745,1.385
13:31:39.252,0.755,1.405
13:31:39.256,0.755,1.44
13:31:39.260,0.7,1.445
13:31:39.264,0.675,1.46
13:31:39.268,0.725,1.48
13:31:39.272,0.765,1.505
13:31:39.276,0.785,1.535
13:31:39.280,0.8,1.59
13:31:39.284,0.815,1.62
13:31:39.288,0.835,1.645
13:31:39.292,0.815,1.65
13:31:39.296,0.835,1.69
13:31:39.300,0.85,1.69
13:31:39.304,0.85,1.72
13:31:39.308,0.875,1.735
13:31:39.312,0.865,1.745
13:31:39.316,0.915,1.775
13:31:39.320,0.94,1.8
13:31:39.324,0.92,1.79
13:31:39.328,0.87,1.78
13:31:39.332,0.785,1.8
13:31:39.336,0.72,1.805
13:31:39.340,0.68,1.825
13:31:39.344,0.67,1.84
13:31:39.348,0.66,1.78
13:31:39.352,0.68,1.735
13:31:39.356,0.675,1.685
13:31:39.360,0.71,1.635
13:31:39.364,0.695,1.56
13:31:39.368,0.615,1.49
13:31:39.372,0.535,1.47
13:31:39.376,0.515,1.385
13:31:39.380,0.51,1.315
13:31:39.384,0.505,1.22
13:31:39.388,0.48,1.135
13:31:39.392,0.43,1.08
13:31:39.396,0.39,1.025
13:31:39.400,0.37,0.97
13:31:39.404,0.33,0.92
13:31:39.408,0.34,0.85
13:31:39.412,0.345,0.825
13:31:39.416,0.335,0.785
13:31:39.420,0.295,0.745
13:31:39.424,0.285,0.71
13:31:39.428,0.255,0.67
13:31:39.432,0.265,0.63
13:31:39.436,0.29,0.605
13:31:39.440,0.26,0.57
13:31:39.444,0.21,0.555
13:31:39.448,0.195,0.54
13:31:39.452,0.245,0.515
13:31:39.456,0.35,0.55
13:31:39.460,0.495,0.59
13:31:39.464,0.65,0.56
13:31:39.468,0.735,0.535
13:31:39.472,0.675,0.51
13:31:39.476,0.465,0.54
13:31:39.480,0.11,0.5
13:31:39.484,-0.42,0.39
13:31:39.488,-1.0,0.13
13:31:39.492,-1.335,-0.365
13:31:39.496,-1.43,-1.04
13:31:39.500,-1.41,-1.915
13:31:39.504,-1.485,-2.72
13:31:39.508,-1.63,-3.43
13:31:39.512,-1.82,-3.945
13:31:39.516,-1.855,-4.25
13:31:39.520,-1.77,-4.47
13:31:39.524,-1.55,-4.525
13:31:39.528,-1.365,-4.385
13:31:39.532,-1.18,-4.27
13:31:39.536,-1.04,-4.11
13:31:39.540,-0.985,-3.99
13:31:39.544,-0.81,-3.88
13:31:39.548,-0.58,-3.63
13:31:39.552,-0.305,-3.185
13:31:39.556,-0.115,-2.76
13:31:39.560,0.0,-2.335
13:31:39.564,0.115,-1.87
13:31:39.568,0.265,-1.395
13:31:39.572,0.31,-0.905
13:31:39.576,0.31,-0.475
13:31:39.580,0.35,-0.135
13:31:39.584,0.33,0.16
13:31:39.588,0.315,0.35
13:31:39.592,0.285,0.55
13:31:39.596,0.33,0.72
13:31:39.600,0.42,0.83
13:31:39.604,0.47,0.92
13:31:39.608,0.485,0.97
13:31:39.612,0.435,0.97
13:31:39.616,0.41,0.99
13:31:39.620,0.44,1.0
13:31:39.624,0.49,1.005
13:31:39.628,0.515,1.005
13:31:39.632,0.48,1.03
13:31:39.636,0.46,1.015
13:31:39.640,0.47,1.005
13:31:39.644,0.475,0.99
13:31:39.648,0.445,0.995
13:31:39.652,0.41,0.99
13:31:39.656,0.395,1.015
13:31:39.660,0.35,1.04
13:31:39.664,0.33,1.085
13:31:39.668,0.3,1.095
13:31:39.672,0.325,1.085
13:31:39.676,0.32,1.075
13:31:39.680,0.33,1.095
13:31:39.684,0.345,1.125
13:31:39.688,0.375,1.155
13:31:39.692,0.385,1.185
13:31:39.696,0.365,1.23
13:31:39.700,0.31,1.25
13:31:39.704,0.275,1.26
13:31:39.708,0.245,1.265
13:31:39.712,0.265,1.305
13:31:39.716,0.3,1.355
13:31:39.720,0.33,1.33
13:31:39.724,0.35,1.355
13:31:39.728,0.325,1.365
13:31:39.732,0.22,1.355
13:31:39.736,0.13,1.355
13:31:39.740,0.14,1.365
13:31:39.744,0.165,1.365
13:31:39.748,0.19,1.36
13:31:39.752,0.215,1.35
13:31:39.756,0.185,1.35
13:31:39.760,0.165,1.33
13:31:39.764,0.18,1.28
13:31:39.768,0.18,1.235
13:31:39.772,0.17,1.205
13:31:39.776,0.16,1.18
13:31:39.780,0.175,1.11
13:31:39.784,0.155,1.06
13:31:39.788,0.14,1.025
13:31:39.792,0.14,0.97
13:31:39.796,0.135,0.94
13:31:39.800,0.095,0.905
13:31:39.804,0.085,0.88
13:31:39.808,0.095,0.82
13:31:39.812,0.13,0.79
13:31:39.816,0.12,0.73
13:31:39.820,0.11,0.7
13:31:39.824,0.115,0.66
13:31:39.828,0.115,0.605
13:31:39.832,0.11,0.56
13:31:39.836,0.125,0.52
13:31:39.840,0.095,0.52
13:31:39.844,0.05,0.495
13:31:39.848,0.0,0.47
13:31:39.852,-0.005,0.44
13:31:39.856,0.045,0.435
13:31:39.860,0.04,0.425
13:31:39.864,0.025,0.405
13:31:39.868,0.03,0.385
13:31:39.872,0.04,0.395
13:31:39.876,0.015,0.44
13:31:39.880,0.005,0.44
13:31:39.884,0.01,0.43
13:31:39.888,0.055,0.45
13:31:39.892,0.09,0.455
13:31:39.896,0.235,0.44
13:31:39.900,0.46,0.435
13:31:39.904,0.62,0.43
13:31:39.908,0.625,0.5
13:31:39.912,0.47,0.605
13:31:39.916,0.16,0.665
13:31:39.920,-0.265,0.54
13:31:39.924,-0.685,0.115
13:31:39.928,-0.945,-0.435
13:31:39.932,-1.02,-1.255
13:31:39.936,-0.855,-2.27
13:31:39.940,-0.64,-3.155
13:31:39.944,-0.605,-3.87
13:31:39.948,-0.74,-4.31
13:31:39.952,-0.915,-4.56
13:31:39.956,-0.945,-4.7
13:31:39.960,-0.94,-4.7
13:31:39.964,-0.97,-4.69
13:31:39.968,-0.93,-4.57
13:31:39.972,-0.87,-4.47
13:31:39.976,-0.88,-4.43
13:31:39.980,-0.915,-4.34
13:31:39.984,-0.875,-4.25
13:31:39.988,-0.79,-4.08
13:31:39.992,-0.73,-3.825
13:31:39.996,-0.73,-3.505
13:31:40.000,-0.715,-3.14
13:31:40.004,-0.675,-2.695
13:31:40.008,-0.615,-2.14
13:31:40.012,-0.47,-1.655
13:31:40.016,-0.33,-1.21
13:31:40.020,-0.185,-0.83
13:31:40.024,-0.01,-0.495
13:31:40.028,0.08,-0.2
13:31:40.032,0.185,0.05
13:31:40.036,0.26,0.285
13:31:40.040,0.305,0.54
13:31:40.044,0.29,0.745
13:31:40.048,0.305,0.91
13:31:40.052,0.325,1.055
13:31:40.056,0.355,1.15
13:31:40.060,0.37,1.23
13:31:40.064,0.4,1.24
13:31:40.068,0.405,1.265
13:31:40.072,0.425,1.3
13:31:40.076,0.445,1.345
13:31:40.080,0.475,1.355
13:31:40.084,0.49,1.365
13:31:40.088,0.535,1.425
13:31:40.092,0.575,1.47
13:31:40.096,0.595,1.48
13:31:40.100,0.59,1.515
13:31:40.104,0.605,1.53
13:31:40.108,0.61,1.57
13:31:40.112,0.65,1.58
13:31:40.116,0.68,1.59
13:31:40.120,0.69,1.62
13:31:40.124,0.74,1.68
13:31:40.128,0.775,1.715
13:31:40.132,0.805,1.755
13:31:40.136,0.83,1.765
13:31:40.140,0.83,1.795
13:31:40.144,0.85,1.845
13:31:40.148,0.88,1.875
13:31:40.152,0.865,1.905
13:31:40.156,0.89,1.925
13:31:40.160,0.89,1.92
13:31:40.164,0.9,1.93
13:31:40.168,0.88,1.885
13:31:40.172,0.85,1.875
13:31:40.176,0.785,1.86
13:31:40.180,0.745,1.84
13:31:40.184,0.73,1.815
13:31:40.188,0.7,1.815
13:31:40.192,0.655,1.77
13:31:40.196,0.6,1.725
13:31:40.200,0.58,1.71
13:31:40.204,0.53,1.69
13:31:40.208,0.485,1.635
13:31:40.212,0.465,1.575
13:31:40.216,0.435,1.505
13:31:40.220,0.4,1.46
13:31:40.224,0.36,1.4
13:31:40.228,0.295,1.365
13:31:40.232,0.26,1.29
13:31:40.236,0.23,1.215
13:31:40.240,0.195,1.14
13:31:40.244,0.175,1.1
13:31:40.248,0.16,1.02
13:31:40.252,0.1,0.99
13:31:40.256,0.095,0.92
13:31:40.260,0.105,0.855
13:31:40.264,0.065,0.855
13:31:40.268,0.04,0.805
13:31:40.272,0.035,0.775
13:31:40.276,0.03,0.77
13:31:40.280,0.03,0.72
13:31:40.284,0.01,0.705
13:31:40.288,0.015,0.69
13:31:40.292,0.0,0.665
13:31:40.296,0.01,0.645
13:31:40.300,0.0,0.66
13:31:40.304,0.015,0.66
13:31:40.308,0.01,0.66
13:31:40.312,0.02,0.66
13:31:40.316,0.04,0.635
13:31:40.320,0.055,0.645
13:31:40.324,0.09,0.69
13:31:40.328,0.12,0.685
13:31:40.332,0.195,0.65
13:31:40.336,0.35,0.62
13:31:40.340,0.485,0.595
13:31:40.344,0.465,0.59
13:31:40.348,0.245,0.635
13:31:40.352,-0.1,0.705
13:31:40.356,-0.675,0.71
13:31:40.360,-1.325,0.415
13:31:40.364,-1.89,-0.055
13:31:40.368,-2.265,-0.63
13:31:40.372,-2.395,-1.49
13:31:40.376,-2.395,-2.465
13:31:40.380,-2.295,-3.29
13:31:40.384,-2.255,-3.94
13:31:40.388,-2.27,-4.38
13:31:40.392,-2.195,-4.605
13:31:40.396,-2.14,-4.73
13:31:40.400,-2.11,-4.77
13:31:40.404,-2.095,-4.745
13:31:40.408,-2.04,-4.68
13:31:40.412,-1.915,-4.63
13:31:40.416,-1.805,-4.575
13:31:40.420,-1.715,-4.51
13:31:40.424,-1.57,-4.42
13:31:40.428,-1.375,-4.245
13:31:40.432,-1.12,-3.905
13:31:40.436,-0.92,-3.535
13:31:40.440,-0.82,-3.115
13:31:40.444,-0.705,-2.585
13:31:40.448,-0.575,-2.01
13:31:40.452,-0.405,-1.46
13:31:40.456,-0.265,-1.0
13:31:40.460,-0.125,-0.565
13:31:40.464,0.055,-0.22
13:31:40.468,0.15,0.065
13:31:40.472,0.195,0.31
13:31:40.476,0.235,0.53
13:31:40.480,0.27,0.775
13:31:40.484,0.265,0.975
13:31:40.488,0.29,1.105
13:31:40.492,0.315,1.215
13:31:40.496,0.315,1.305
13:31:40.500,0.34,1.35
13:31:40.504,0.355,1.37
13:31:40.508,0.38,1.415
13:31:40.512,0.355,1.42
13:31:40.516,0.375,1.435
13:31:40.520,0.415,1.425
13:31:40.524,0.445,1.41
13:31:40.528,0.44,1.41
13:31:40.532,0.435,1.41
13:31:40.536,0.445,1.43
13:31:40.540,0.425,1.415
13:31:40.544,0.435,1.46
13:31:40.548,0.46,1.48
13:31:40.552,0.46,1.51
13:31:40.556,0.51,1.52
13:31:40.560,0.53,1.51
13:31:40.564,0.56,1.545
13:31:40.568,0.575,1.565
13:31:40.572,0.545,1.61
13:31:40.576,0.56,1.635
13:31:40.580,0.55,1.7
13:31:40.584,0.575,1.71
13:31:40.588,0.57,1.73
13:31:40.592,0.575,1.715
13:31:40.596,0.58,1.725
13:31:40.600,0.59,1.75
13:31:40.604,0.585,1.78
13:31:40.608,0.6,1.77
13:31:40.612,0.6,1.785
13:31:40.616,0.605,1.815
13:31:40.620,0.56,1.825
13:31:40.624,0.56,1.835
13:31:40.628,0.515,1.83
13:31:40.632,0.48,1.815
13:31:40.636,0.475,1.775
13:31:40.640,0.44,1.755
13:31:40.644,0.405,1.71
13:31:40.648,0.385,1.705
13:31:40.652,0.37,1.64
13:31:40.656,0.34,1.575
13:31:40.660,0.315,1.535
13:31:40.664,0.28,1.49
13:31:40.668,0.23,1.435
13:31:40.672,0.215,1.37
13:31:40.676,0.185,1.305
13:31:40.680,0.165,1.26
13:31:40.684,0.145,1.18
13:31:40.688,0.125,1.095
13:31:40.692,0.075,1.0
13:31:40.696,0.07,0.925
13:31:40.700,0.05,0.84
13:31:40.704,0.035,0.77
13:31:40.708,0.0,0.71
13:31:40.712,-0.03,0.66
13:31:40.716,-0.065,0.665
13:31:40.720,-0.08,0.62
13:31:40.724,-0.08,0.565
13:31:40.728,-0.055,0.545
13:31:40.732,-0.045,0.51
13:31:40.736,-0.02,0.505
13:31:40.740,0.01,0.5
13:31:40.744,-0.01,0.495
13:31:40.748,0.01,0.535
13:31:40.752,-0.005,0.54
13:31:40.756,-0.025,0.54
13:31:40.760,-0.04,0.535
13:31:40.764,-0.05,0.57
13:31:40.768,-0.045,0.55
13:31:40.772,-0.025,0.55
13:31:40.776,-0.01,0.525
13:31:40.780,0.0,0.535
13:31:40.784,0.0,0.54
13:31:40.788,-0.005,0.535
13:31:40.792,-0.045,0.535
13:31:40.796,-0.06,0.54
13:31:40.800,-0.04,0.525
13:31:40.804,-0.06,0.53
13:31:40.808,-0.065,0.52
13:31:40.812,-0.07,0.52
13:31:40.816,-0.06,0.53
13:31:40.820,-0.095,0.48
13:31:40.824,-0.085,0.49
13:31:40.828,-0.08,0.485
13:31:40.832,-0.095,0.485
13:31:40.836,-0.095,0.47
13:31:40.840,-0.105,0.48
13:31:40.844,-0.12,0.475
13:31:40.848,-0.14,0.485
13:31:40.852,-0.175,0.49
13:31:40.856,-0.195,0.455
13:31:40.860,-0.19,0.435
13:31:40.864,-0.19,0.43
13:31:40.868,-0.19,0.405
13:31:40.872,-0.205,0.415
13:31:40.876,-0.21,0.42
13:31:40.880,-0.185,0.42
13:31:40.884,-0.17,0.395
13:31:40.888,-0.19,0.385
13:31:40.892,-0.21,0.345
13:31:40.896,-0.205,0.3
13:31:40.900,-0.19,0.295
13:31:40.904,-0.145,0.285
13:31:40.908,-0.115,0.26
13:31:40.912,-0.095,0.22
13:31:40.916,-0.065,0.24
13:31:40.920,-0.06,0.265
13:31:40.924,-0.045,0.29
13:31:40.928,-0.05,0.32
13:31:40.932,-0.015,0.34
13:31:40.936,0.035,0.365
13:31:40.940,0.16,0.37
13:31:40.944,0.26,0.37
13:31:40.948,0.215,0.39
13:31:40.952,0.07,0.455
13:31:40.956,-0.115,0.55
13:31:40.960,-0.415,0.545
13:31:40.964,-0.805,0.305
13:31:40.968,-1.16,-0.16
13:31:40.972,-1.4,-0.775
13:31:40.976,-1.525,-1.58
13:31:40.980,-1.56,-2.54
13:31:40.984,-1.49,-3.29
13:31:40.988,-1.395,-3.855
13:31:40.992,-1.435,-4.215
13:31:40.996,-1.535,-4.46
13:31:41.000,-1.555,-4.585
13:31:41.004,-1.555,-4.675
13:31:41.008,-1.515,-4.705
13:31:41.012,-1.515,-4.65
13:31:41.016,-1.435,-4.57
13:31:41.020,-1.355,-4.53
13:31:41.024,-1.33,-4.49
13:31:41.028,-1.315,-4.425
13:31:41.032,-1.225,-4.335
13:31:41.036,-1.05,-4.17
13:31:41.040,-0.87,-3.92
13:31:41.044,-0.76,-3.615
13:31:41.048,-0.68,-3.225
13:31:41.052,-0.625,-2.77
13:31:41.056,-0.595,-2.205
13:31:41.060,-0.475,-1.65
13:31:41.064,-0.385,-1.205
13:31:41.068,-0.23,-0.805
13:31:41.072,-0.09,-0.445
13:31:41.076,0.015,-0.135
13:31:41.080,0.11,0.09
13:31:41.084,0.185,0.29
13:31:41.088,0.235,0.45
13:31:41.092,0.31,0.585
13:31:41.096,0.365,0.705
13:31:41.100,0.41,0.82
13:31:41.104,0.425,0.94
13:31:41.108,0.445,1.05
13:31:41.112,0.475,1.16
13:31:41.116,0.485,1.205
13:31:41.120,0.495,1.245
13:31:41.124,0.475,1.26
13:31:41.128,0.51,1.275
13:31:41.132,0.525,1.295
13:31:41.136,0.565,1.34
13:31:41.140,0.565,1.365
13:31:41.144,0.59,1.36
13:31:41.148,0.65,1.36
13:31:41.152,0.665,1.405
13:31:41.156,0.65,1.44
13:31:41.160,0.69,1.49
13:31:41.164,0.735,1.495
13:31:41.168,0.765,1.55
13:31:41.172,0.76,1.58
13:31:41.176,0.795,1.61
13:31:41.180,0.81,1.645
13:31:41.184,0.855,1.69
13:31:41.188,0.89,1.7
13:31:41.192,0.89,1.75
13:31:41.196,0.91,1.775
13:31:41.200,0.91,1.83
13:31:41.204,0.88,1.875
13:31:41.208,0.87,1.865
13:31:41.212,0.86,1.9
13:31:41.216,0.865,1.89
13:31:41.220,0.885,1.91
13:31:41.224,0.88,1.93
13:31:41.228,0.875,1.945
13:31:41.232,0.885,1.94
13:31:41.236,0.87,1.97
13:31:41.240,0.865,1.99
13:31:41.244,0.82,2.01
13:31:41.248,0.82,2.01
13:31:41.252,0.765,1.99
13:31:41.256,0.765,1.985
13:31:41.260,0.765,1.92
13:31:41.264,0.715,1.87
13:31:41.268,0.695,1.81
13:31:41.272,0.65,1.755
13:31:41.276,0.615,1.675
13:31:41.280,0.595,1.6
13:31:41.284,0.565,1.495
13:31:41.288,0.515,1.45
13:31:41.292,0.49,1.375
13:31:41.296,0.46,1.3
13:31:41.300,0.445,1.265
13:31:41.304,0.39,1.19
13:31:41.308,0.335,1.11
13:31:41.312,0.33,1.04
13:31:41.316,0.33,1.01
13:31:41.320,0.305,0.95
13:31:41.324,0.265,0.885
13:31:41.328,0.24,0.855
13:31:41.332,0.235,0.815
13:31:41.336,0.245,0.79
13:31:41.340,0.205,0.735
13:31:41.344,0.19,0.725
13:31:41.348,0.18,0.7
13:31:41.352,0.175,0.675
13:31:41.356,0.18,0.625
13:31:41.360,0.185,0.59
13:31:41.364,0.185,0.625
13:31:41.368,0.17,0.61
13:31:41.372,0.165,0.59
13:31:41.376,0.155,0.605
13:31:41.380,0.12,0.6
13:31:41.384,0.075,0.575
13:31:41.388,0.095,0.58
13:31:41.392,0.09,0.59
13:31:41.396,0.065,0.58
13:31:41.400,0.05,0.54
13:31:41.404,0.015,0.53
13:31:41.408,0.025,0.545
13:31:41.412,0.04,0.55
13:31:41.416,0.035,0.575
13:31:41.420,0.055,0.55
13:31:41.424,0.045,0.545
13:31:41.428,0.065,0.535
13:31:41.432,0.095,0.52
13:31:41.436,0.1,0.54
13:31:41.440,0.1,0.52
13:31:41.444,0.09,0.47
13:31:41.448,0.075,0.5
13:31:41.452,0.07,0.475
13:31:41.456,0.055,0.475
13:31:41.460,0.06,0.485
13:31:41.464,0.085,0.505
13:31:41.468,0.13,0.495
13:31:41.472,0.16,0.53
13:31:41.476,0.12,0.55
13:31:41.480,0.13,0.54
13:31:41.484,0.135,0.545
13:31:41.488,0.155,0.53
13:31:41.492,0.13,0.555
13:31:41.496,0.15,0.54
13:31:41.500,0.16,0.54
13:31:41.504,0.16,0.545
13:31:41.508,0.14,0.56
13:31:41.512,0.13,0.54
13:31:41.516,0.14,0.56
13:31:41.520,0.125,0.575
13:31:41.524,0.11,0.555
13:31:41.528,0.115,0.55
13:31:41.532,0.11,0.545
13:31:41.536,0.12,0.52
13:31:41.540,0.115,0.52
13:31:41.544,0.11,0.53
13:31:41.548,0.11,0.535
13:31:41.552,0.115,0.515
13:31:41.556,0.155,0.515
13:31:41.560,0.26,0.5
13:31:41.564,0.33,0.48
13:31:41.568,0.28,0.485
13:31:41.572,0.11,0.53
13:31:41.576,-0.105,0.6
13:31:41.580,-0.4,0.62
13:31:41.584,-0.815,0.425
13:31:41.588,-1.175,-0.01
13:31:41.592,-1.425,-0.525
13:31:41.596,-1.5,-1.22
13:31:41.600,-1.395,-2.165
13:31:41.604,-1.405,-3.055
13:31:41.608,-1.45,-3.705
13:31:41.612,-1.58,-4.17
13:31:41.616,-1.68,-4.485
13:31:41.620,-1.71,-4.675
13:31:41.624,-1.625,-4.74
13:31:41.628,-1.6,-4.72
13:31:41.632,-1.58,-4.655
13:31:41.636,-1.51,-4.545
13:31:41.640,-1.36,-4.45
13:31:41.644,-1.26,-4.37
13:31:41.648,-1.195,-4.285
13:31:41.652,-1.065,-4.17
13:31:41.656,-0.875,-3.99
13:31:41.660,-0.68,-3.735
13:31:41.664,-0.49,-3.425
13:31:41.668,-0.37,-3.02
13:31:41.672,-0.305,-2.605
13:31:41.676,-0.225,-2.185
13:31:41.680,-0.16,-1.755
13:31:41.684,-0.025,-1.295
13:31:41.688,0.1,-0.895
13:31:41.692,0.225,-0.545
13:31:41.696,0.32,-0.24
13:31:41.700,0.36,0.005
13:31:41.704,0.395,0.23
13:31:41.708,0.44,0.415
13:31:41.712,0.465,0.585
13:31:41.716,0.49,0.75
13:31:41.720,0.505,0.88
13:31:41.724,0.545,0.99
13:31:41.728,0.555,1.055
13:31:41.732,0.575,1.135
13:31:41.736,0.6,1.205
13:31:41.740,0.6,1.225
13:31:41.744,0.595,1.235
13:31:41.748,0.625,1.25
13:31:41.752,0.64,1.28
13:31:41.756,0.62,1.31
13:31:41.760,0.62,1.32
13:31:41.764,0.635,1.275
13:31:41.768,0.66,1.35
13:31:41.772,0.68,1.37
13:31:41.776,0.69,1.385
13:31:41.780,0.68,1.41
13:31:41.784,0.685,1.425
13:31:41.788,0.69,1.455
13:31:41.792,0.69,1.48
13:31:41.796,0.67,1.49
13:31:41.800,0.655,1.465
13:31:41.804,0.675,1.475
13:31:41.808,0.685,1.495
13:31:41.812,0.715,1.51
13:31:41.816,0.745,1.545
13:31:41.820,0.765,1.56
13:31:41.824,0.785,1.6
13:31:41.828,0.785,1.61
13:31:41.832,0.76,1.635
13:31:41.836,0.735,1.65
13:31:41.840,0.755,1.675
13:31:41.844,0.795,1.7
13:31:41.848,0.775,1.7
13:31:41.852,0.755,1.715
13:31:41.856,0.715,1.74
13:31:41.860,0.68,1.72
13:31:41.864,0.67,1.71
13:31:41.868,0.66,1.71
13:31:41.872,0.625,1.71
13:31:41.876,0.57,1.715
13:31:41.880,0.55,1.695
13:31:41.884,0.555,1.63
13:31:41.888,0.515,1.6
13:31:41.892,0.48,1.54
13:31:41.896,0.425,1.485
13:31:41.900,0.45,1.46
13:31:41.904,0.435,1.41
13:31:41.908,0.405,1.35
13:31:41.912,0.38,1.285
13:31:41.916,0.365,1.22
13:31:41.920,0.35,1.17
13:31:41.924,0.34,1.14
13:31:41.928,0.31,1.04
13:31:41.932,0.305,1.0
13:31:41.936,0.3,0.95
13:31:41.940,0.24,0.915
13:31:41.944,0.22,0.835
13:31:41.948,0.15,0.77
13:31:41.952,0.11,0.715
13:31:41.956,0.09,0.685
13:31:41.960,0.1,0.63
13:31:41.964,0.085,0.6
13:31:41.968,0.11,0.56
13:31:41.972,0.11,0.505
13:31:41.976,0.085,0.5
13:31:41.980,0.07,0.51
13:31:41.984,0.05,0.505
13:31:41.988,0.07,0.48
13:31:41.992,0.105,0.455
13:31:41.996,0.12,0.455
13:31:42.000,0.105,0.505
13:31:42.004,0.08,0.495
13:31:42.008,0.055,0.51
13:31:42.012,0.065,0.505
13:31:42.016,0.08,0.485
13:31:42.020,0.075,0.48
13:31:42.024,0.095,0.47
13:31:42.028,0.07,0.47
13:31:42.032,0.1,0.495
13:31:42.036,0.12,0.515
13:31:42.040,0.105,0.49
13:31:42.044,0.095,0.49
13:31:42.048,0.1,0.5
13:31:42.052,0.13,0.495
13:31:42.056,0.14,0.51
13:31:42.060,0.15,0.48
13:31:42.064,0.15,0.475
13:31:42.068,0.155,0.49
13:31:42.072,0.125,0.485
13:31:42.076,0.14,0.465
13:31:42.080,0.17,0.455
13:31:42.084,0.165,0.475
13:31:42.088,0.16,0.47
13:31:42.092,0.175,0.495
13:31:42.096,0.22,0.505
13:31:42.100,0.31,0.52
13:31:42.104,0.425,0.495
13:31:42.108,0.535,0.505
13:31:42.112,0.51,0.51
13:31:42.116,0.39,0.535
13:31:42.120,0.185,0.595
13:31:42.124,-0.075,0.595
13:31:42.128,-0.415,0.35
13:31:42.132,-0.76,-0.14
13:31:42.136,-1.03,-0.725
13:31:42.140,-1.14,-1.465
13:31:42.144,-1.14,-2.46
13:31:42.148,-1.09,-3.32
13:31:42.152,-1.025,-3.94
13:31:42.156,-1.08,-4.35
13:31:42.160,-1.22,-4.61
13:31:42.164,-1.27,-4.75
13:31:42.168,-1.24,-4.81
13:31:42.172,-1.24,-4.795
13:31:42.176,-1.26,-4.745
13:31:42.180,-1.26,-4.685
13:31:42.184,-1.19,-4.615
13:31:42.188,-1.215,-4.55
13:31:42.192,-1.26,-4.51
13:31:42.196,-1.22,-4.445
13:31:42.200,-1.085,-4.28
13:31:42.204,-0.925,-4.035
13:31:42.208,-0.81,-3.75
13:31:42.212,-0.7,-3.4
13:31:42.216,-0.605,-2.945
13:31:42.220,-0.55,-2.415
13:31:42.224,-0.395,-1.86
13:31:42.228,-0.235,-1.37
13:31:42.232,-0.08,-0.92
13:31:42.236,0.005,-0.535
13:31:42.240,0.115,-0.285
13:31:42.244,0.18,-0.04
13:31:42.248,0.23,0.235
13:31:42.252,0.295,0.44
13:31:42.256,0.34,0.63
13:31:42.260,0.345,0.785
13:31:42.264,0.37,0.9
13:31:42.268,0.41,1.025
13:31:42.272,0.44,1.095
13:31:42.276,0.455,1.14
13:31:42.280,0.45,1.14
13:31:42.284,0.47,1.19
13:31:42.288,0.51,1.225
13:31:42.292,0.55,1.27
13:31:42.296,0.58,1.285
13:31:42.300,0.625,1.315
13:31:42.304,0.66,1.34
13:31:42.308,0.71,1.39
13:31:42.312,0.73,1.395
13:31:42.316,0.73,1.42
13:31:42.320,0.75,1.44
13:31:42.324,0.76,1.445
13:31:42.328,0.79,1.45
13:31:42.332,0.78,1.465
13:31:42.336,0.79,1.47
13:31:42.340,0.8,1.495
13:31:42.344,0.8,1.52
13:31:42.348,0.78,1.58
13:31:42.352,0.765,1.6
13:31:42.356,0.785,1.665
13:31:42.360,0.795,1.7
13:31:42.364,0.82,1.745
13:31:42.368,0.83,1.76
13:31:42.372,0.84,1.77
13:31:42.376,0.815,1.83
13:31:42.380,0.815,1.84
13:31:42.384,0.815,1.855
13:31:42.388,0.805,1.875
13:31:42.392,0.79,1.86
13:31:42.396,0.74,1.85
13:31:42.400,0.71,1.885
13:31:42.404,0.67,1.89
13:31:42.408,0.63,1.855
13:31:42.412,0.58,1.82
13:31:42.416,0.55,1.795
13:31:42.420,0.525,1.755
13:31:42.424,0.46,1.685
13:31:42.428,0.435,1.62
13:31:42.432,0.405,1.57
13:31:42.436,0.375,1.515
13:31:42.440,0.345,1.44
13:31:42.444,0.31,1.385
13:31:42.448,0.295,1.3
13:31:42.452,0.26,1.23
13:31:42.456,0.205,1.17
13:31:42.460,0.19,1.1
13:31:42.464,0.185,1.035
13:31:42.468,0.19,0.98
13:31:42.472,0.17,0.91
13:31:42.476,0.155,0.86
13:31:42.480,0.15,0.81
13:31:42.484,0.155,0.775
13:31:42.488,0.165,0.77
13:31:42.492,0.15,0.74
13:31:42.496,0.185,0.72
13:31:42.500,0.185,0.69
13:31:42.504,0.195,0.67
13:31:42.508,0.155,0.65
13:31:42.512,0.135,0.635
13:31:42.516,0.1,0.59
13:31:42.520,0.075,0.535
13:31:42.524,0.01,0.46
13:31:42.528,0.01,0.39
13:31:42.532,0.035,0.41
13:31:42.536,-0.015,0.42
13:31:42.540,-0.035,0.455
13:31:42.544,-0.045,0.48
13:31:42.548,-0.05,0.45
13:31:42.552,-0.05,0.44
13:31:42.556,-0.01,0.43
13:31:42.560,-0.005,0.385
13:31:42.564,0.0,0.355
13:31:42.568,0.005,0.345
13:31:42.572,-0.005,0.4
13:31:42.576,0.005,0.41
13:31:42.580,0.02,0.405
13:31:42.584,0.015,0.415
13:31:42.588,-0.015,0.395
13:31:42.592,-0.05,0.435
13:31:42.596,-0.07,0.49
13:31:42.600,-0.09,0.44
13:31:42.604,-0.06,0.425
13:31:42.608,-0.065,0.395
13:31:42.612,-0.055,0.42
13:31:42.616,-0.065,0.38
13:31:42.620,-0.045,0.39
13:31:42.624,-0.09,0.415
13:31:42.628,-0.105,0.435
13:31:42.632,-0.09,0.41
13:31:42.636,-0.1,0.4
13:31:42.640,-0.1,0.405
13:31:42.644,-0.06,0.37
13:31:42.648,-0.075,0.355
13:31:42.652,-0.04,0.32
13:31:42.656,-0.015,0.325
13:31:42.660,0.01,0.36
13:31:42.664,0.025,0.37
13:31:42.668,0.04,0.41
13:31:42.672,0.05,0.43
13:31:42.676,0.045,0.46
13:31:42.680,0.06,0.47
13:31:42.684,0.05,0.47
13:31:42.688,0.04,0.465
13:31:42.692,0.02,0.455
13:31:42.696,0.01,0.445
13:31:42.700,-0.005,0.455
13:31:42.704,-0.05,0.44
13:31:42.708,-0.045,0.44
13:31:42.712,-0.025,0.415
13:31:42.716,-0.045,0.39
13:31:42.720,-0.065,0.365
13:31:42.724,-0.07,0.38
13:31:42.728,-0.07,0.335
13:31:42.732,-0.1,0.375
13:31:42.736,-0.06,0.355
13:31:42.740,-0.06,0.38
13:31:42.744,-0.06,0.37
13:31:42.748,-0.115,0.325
13:31:42.752,-0.125,0.315
13:31:42.756,-0.095,0.34
13:31:42.760,-0.075,0.345
13:31:42.764,-0.07,0.325
13:31:42.768,-0.045,0.35
13:31:42.772,-0.03,0.34
13:31:42.776,-0.05,0.335
13:31:42.780,-0.085,0.295
13:31:42.784,-0.105,0.31
13:31:42.788,-0.105,0.33
13:31:42.792,-0.12,0.325
13:31:42.796,-0.1,0.33
13:31:42.800,-0.07,0.345
13:31:42.804,-0.07,0.335
13:31:42.808,-0.09,0.34
13:31:42.812,-0.075,0.35
13:31:42.816,-0.03,0.345
13:31:42.820,-0.04,0.33
13:31:42.824,-0.04,0.295
13:31:42.828,-0.045,0.305
13:31:42.832,-0.035,0.325
13:31:42.836,0.0,0.36
13:31:42.840,0.005,0.34
13:31:42.844,0.04,0.335
13:31:42.848,0.055,0.33
13:31:42.852,0.07,0.355
13:31:42.856,0.09,0.355
13:31:42.860,0.075,0.34
13:31:42.864,0.09,0.35
13:31:42.868,0.095,0.36
13:31:42.872,0.1,0.365
13:31:42.876,0.09,0.37
13:31:42.880,0.09,0.34
13:31:42.884,0.075,0.33
13:31:42.888,0.04,0.305
13:31:42.892,-0.01,0.305
13:31:42.896,-0.055,0.31
13:31:42.900,-0.075,0.3
13:31:42.904,-0.09,0.28
13:31:42.908,-0.065,0.29
13:31:42.912,-0.095,0.285
13:31:42.916,-0.085,0.29
13:31:42.920,-0.095,0.27
13:31:42.924,-0.065,0.28
13:31:42.928,0.045,0.265
13:31:42.932,0.21,0.275
13:31:42.936,0.26,0.29
13:31:42.940,0.19,0.325
13:31:42.944,0.04,0.405
13:31:42.948,-0.205,0.48
13:31:42.952,-0.605,0.39
13:31:42.956,-0.98,-0.015
13:31:42.960,-1.31,-0.595
13:31:42.964,-1.515,-1.32
13:31:42.968,-1.59,-2.34
13:31:42.972,-1.445,-3.27
13:31:42.976,-1.3,-3.9
13:31:42.980,-1.345,-4.36
13:31:42.984,-1.445,-4.61
13:31:42.988,-1.495,-4.76
13:31:42.992,-1.46,-4.825
13:31:42.996,-1.43,-4.835
13:31:43.000,-1.43,-4.78
13:31:43.004,-1.36,-4.715
13:31:43.008,-1.3,-4.67
13:31:43.012,-1.31,-4.575
13:31:43.016,-1.335,-4.51
13:31:43.020,-1.3,-4.415
13:31:43.024,-1.2,-4.23
13:31:43.028,-1.085,-3.93
13:31:43.032,-0.985,-3.605
13:31:43.036,-0.855,-3.27
13:31:43.040,-0.795,-2.86
13:31:43.044,-0.64,-2.335
13:31:43.048,-0.455,-1.785
13:31:43.052,-0.28,-1.3
13:31:43.056,-0.06,-0.94
13:31:43.060,0.09,-0.63
13:31:43.064,0.18,-0.37
13:31:43.068,0.23,-0.04
13:31:43.072,0.3,0.225
13:31:43.076,0.35,0.455
13:31:43.080,0.315,0.615
13:31:43.084,0.31,0.77
13:31:43.088,0.32,0.945
13:31:43.092,0.315,1.035
13:31:43.096,0.335,1.105
13:31:43.100,0.355,1.14
13:31:43.104,0.38,1.175
13:31:43.108,0.365,1.23
13:31:43.112,0.365,1.245
13:31:43.116,0.385,1.255
13:31:43.120,0.445,1.31
13:31:43.124,0.455,1.315
13:31:43.128,0.48,1.31
13:31:43.132,0.49,1.35
13:31:43.136,0.495,1.385
13:31:43.140,0.495,1.415
13:31:43.144,0.54,1.445
13:31:43.148,0.54,1.49
13:31:43.152,0.58,1.505
13:31:43.156,0.585,1.54
13:31:43.160,0.645,1.555
13:31:43.164,0.68,1.555
13:31:43.168,0.695,1.595
13:31:43.172,0.735,1.645
13:31:43.176,0.755,1.675
13:31:43.180,0.76,1.725
13:31:43.184,0.74,1.74
13:31:43.188,0.72,1.785
13:31:43.192,0.74,1.825
13:31:43.196,0.76,1.825
13:31:43.200,0.79,1.84
13:31:43.204,0.8,1.89
13:31:43.208,0.8,1.91
13:31:43.212,0.825,1.915
13:31:43.216,0.825,1.89
13:31:43.220,0.81,1.925
13:31:43.224,0.795,1.91
13:31:43.228,0.785,1.93
13:31:43.232,0.81,1.875
13:31:43.236,0.785,1.87
13:31:43.240,0.74,1.865
13:31:43.244,0.7,1.805
13:31:43.248,0.675,1.795
13:31:43.252,0.6,1.76
13:31:43.256,0.59,1.685
13:31:43.260,0.56,1.66
13:31:43.264,0.505,1.585
13:31:43.268,0.47,1.51
13:31:43.272,0.44,1.455
13:31:43.276,0.39,1.415
13:31:43.280,0.375,1.34
13:31:43.284,0.32,1.275
13:31:43.288,0.245,1.205
13:31:43.292,0.19,1.15
13:31:43.296,0.145,1.08
13:31:43.300,0.135,0.985
13:31:43.304,0.145,0.905
13:31:43.308,0.125,0.83
13:31:43.312,0.11,0.77
13:31:43.316,0.085,0.73
13:31:43.320,0.05,0.7
13:31:43.324,0.01,0.675
13:31:43.328,-0.005,0.63
13:31:43.332,0.005,0.61
13:31:43.336,0.03,0.585
13:31:43.340,0.035,0.545
13:31:43.344,0.095,0.535
13:31:43.348,0.2,0.515
13:31:43.352,0.255,0.525
13:31:43.356,0.2,0.58
13:31:43.360,-0.03,0.625
13:31:43.364,-0.535,0.62
13:31:43.368,-1.16,0.45
13:31:43.372,-1.735,0.105
13:31:43.376,-2.11,-0.305
13:31:43.380,-2.225,-1.04
13:31:43.384,-2.205,-2.01
13:31:43.388,-2.28,-2.95
13:31:43.392,-2.425,-3.705
13:31:43.396,-2.62,-4.225
13:31:43.400,-2.71,-4.495
13:31:43.404,-2.76,-4.685
13:31:43.408,-2.785,-4.705
13:31:43.412,-2.725,-4.63
13:31:43.416,-2.56,-4.575
13:31:43.420,-2.38,-4.51
13:31:43.424,-2.265,-4.455
13:31:43.428,-2.055,-4.42
13:31:43.432,-1.73,-4.245
13:31:43.436,-1.39,-4.01
13:31:43.440,-1.135,-3.75
13:31:43.444,-0.895,-3.39
13:31:43.448,-0.705,-2.875
13:31:43.452,-0.48,-2.27
13:31:43.456,-0.305,-1.775
13:31:43.460,-0.13,-1.325
13:31:43.464,0.03,-0.895
13:31:43.468,0.105,-0.535
13:31:43.472,0.175,-0.195
13:31:43.476,0.205,0.125
13:31:43.480,0.205,0.41
13:31:43.484,0.205,0.625
13:31:43.488,0.235,0.77
13:31:43.492,0.215,0.88
13:31:43.496,0.21,0.94
13:31:43.500,0.215,0.965
13:31:43.504,0.255,0.995
13:31:43.508,0.26,1.01
13:31:43.512,0.29,1.035
13:31:43.516,0.295,1.05
13:31:43.520,0.32,1.075
13:31:43.524,0.33,1.08
13:31:43.528,0.36,1.085
13:31:43.532,0.385,1.145
13:31:43.536,0.385,1.185
13:31:43.540,0.405,1.195
13:31:43.544,0.425,1.18
13:31:43.548,0.44,1.21
13:31:43.552,0.43,1.24
13:31:43.556,0.42,1.265
13:31:43.560,0.44,1.285
13:31:43.564,0.465,1.27
13:31:43.568,0.455,1.3
13:31:43.572,0.455,1.32
13:31:43.576,0.46,1.345
13:31:43.580,0.43,1.375
13:31:43.584,0.425,1.38
13:31:43.588,0.375,1.405
13:31:43.592,0.38,1.41
13:31:43.596,0.43,1.4
13:31:43.600,0.44,1.44
13:31:43.604,0.45,1.475
13:31:43.608,0.445,1.52
13:31:43.612,0.46,1.535
13:31:43.616,0.47,1.54
13:31:43.620,0.455,1.535
13:31:43.624,0.445,1.51
13:31:43.628,0.42,1.505
13:31:43.632,0.4,1.47
13:31:43.636,0.395,1.445
13:31:43.640,0.365,1.4
13:31:43.644,0.335,1.38
13:31:43.648,0.3,1.315
13:31:43.652,0.25,1.31
13:31:43.656,0.21,1.26
13:31:43.660,0.165,1.185
13:31:43.664,0.135,1.155
13:31:43.668,0.085,1.095
13:31:43.672,0.065,1.05
13:31:43.676,0.035,1.005
13:31:43.680,0.02,0.91
13:31:43.684,0.0,0.86
13:31:43.688,-0.01,0.815
13:31:43.692,0.0,0.78
13:31:43.696,-0.005,0.725
13:31:43.700,-0.03,0.66
13:31:43.704,-0.05,0.625
13:31:43.708,-0.06,0.62
13:31:43.712,-0.05,0.57
13:31:43.716,-0.04,0.555
13:31:43.720,-0.04,0.515
13:31:43.724,-0.025,0.49
13:31:43.728,-0.055,0.475
13:31:43.732,-0.08,0.46
13:31:43.736,-0.11,0.435
13:31:43.740,-0.13,0.45
13:31:43.744,-0.14,0.455
13:31:43.748,-0.17,0.45
13:31:43.752,-0.16,0.45
13:31:43.756,-0.145,0.415
13:31:43.760,-0.12,0.41
13:31:43.764,-0.14,0.395
13:31:43.768,-0.18,0.355
13:31:43.772,-0.155,0.36
13:31:43.776,-0.13,0.37
13:31:43.780,-0.085,0.31
13:31:43.784,-0.065,0.35
13:31:43.788,-0.055,0.35
13:31:43.792,-0.085,0.36
13:31:43.796,-0.06,0.35
13:31:43.800,-0.03,0.355
13:31:43.804,-0.005,0.365
13:31:43.808,-0.025,0.36
13:31:43.812,-0.04,0.305
13:31:43.816,-0.005,0.305
13:31:43.820,0.005,0.325
13:31:43.824,-0.005,0.325
13:31:43.828,-0.025,0.36
13:31:43.832,-0.01,0.37
13:31:43.836,-0.015,0.38
13:31:43.840,-0.03,0.375
13:31:43.844,-0.045,0.38
13:31:43.848,-0.05,0.345
13:31:43.852,-0.06,0.35
13:31:43.856,-0.05,0.325
13:31:43.860,-0.065,0.34
13:31:43.864,-0.045,0.35
13:31:43.868,-0.04,0.37
13:31:43.872,-0.04,0.36
13:31:43.876,-0.03,0.385
13:31:43.880,-0.025,0.345
13:31:43.884,-0.045,0.355
13:31:43.888,-0.055,0.335
13:31:43.892,-0.06,0.325
13:31:43.896,-0.04,0.325
13:31:43.900,-0.015,0.31
13:31:43.904,0.0,0.32
13:31:43.908,0.005,0.33
13:31:43.912,0.005,0.32
13:31:43.916,-0.005,0.305
13:31:43.920,-0.04,0.31
13:31:43.924,-0.09,0.31
13:31:43.928,-0.08,0.31
13:31:43.932,-0.065,0.28
13:31:43.936,-0.045,0.275
13:31:43.940,0.005,0.265
13:31:43.944,0.02,0.24
13:31:43.948,-0.06,0.225
13:31:43.952,-0.08,0.165
13:31:43.956,-0.08,0.15
13:31:43.960,-0.12,0.17
13:31:43.964,-0.085,0.205
13:31:43.968,-0.045,0.275
13:31:43.972,-0.01,0.25
13:31:43.976,0.065,0.255
13:31:43.980,0.175,0.25
13:31:43.984,0.285,0.27
13:31:43.988,0.35,0.29
13:31:43.992,0.245,0.34
13:31:43.996,0.1,0.42
13:31:44.000,-0.21,0.5
13:31:44.004,-0.675,0.36
13:31:44.008,-1.15,-0.105
13:31:44.012,-1.465,-0.67
13:31:44.016,-1.68,-1.465
13:31:44.020,-1.805,-2.42
13:31:44.024,-1.66,-3.3
13:31:44.028,-1.46,-3.915
13:31:44.032,-1.42,-4.325
13:31:44.036,-1.44,-4.605
13:31:44.040,-1.41,-4.72
13:31:44.044,-1.32,-4.77
13:31:44.048,-1.26,-4.785
13:31:44.052,-1.215,-4.68
13:31:44.056,-1.13,-4.59
13:31:44.060,-1.015,-4.505
13:31:44.064,-0.96,-4.415
13:31:44.068,-0.93,-4.35
13:31:44.072,-0.865,-4.2
13:31:44.076,-0.64,-3.93
13:31:44.080,-0.415,-3.585
13:31:44.084,-0.37,-3.135
13:31:44.088,-0.31,-2.695
13:31:44.092,-0.215,-2.235
13:31:44.096,-0.235,-1.74
13:31:44.100,-0.22,-1.285
13:31:44.104,-0.16,-0.835
13:31:44.108,0.0,-0.48
13:31:44.112,0.14,-0.2
13:31:44.116,0.235,0.04
13:31:44.120,0.29,0.24
13:31:44.124,0.33,0.4
13:31:44.128,0.325,0.575
13:31:44.132,0.365,0.69
13:31:44.136,0.385,0.79
13:31:44.140,0.435,0.895
13:31:44.144,0.465,0.965
13:31:44.148,0.495,1.015
13:31:44.152,0.525,1.065
13:31:44.156,0.545,1.105
13:31:44.160,0.59,1.145
13:31:44.164,0.64,1.195
13:31:44.168,0.65,1.21
13:31:44.172,0.62,1.215
13:31:44.176,0.64,1.23
13:31:44.180,0.725,1.275
13:31:44.184,0.755,1.305
13:31:44.188,0.725,1.32
13:31:44.192,0.65,1.355
13:31:44.196,0.655,1.33
13:31:44.200,0.675,1.365
13:31:44.204,0.7,1.44
13:31:44.208,0.735,1.46
13:31:44.212,0.745,1.51
13:31:44.216,0.815,1.525
13:31:44.220,0.92,1.57
13:31:44.224,0.875,1.585
13:31:44.228,0.8,1.62
13:31:44.232,0.8,1.655
13:31:44.236,0.84,1.695
13:31:44.240,0.795,1.72
13:31:44.244,0.79,1.73
13:31:44.248,0.835,1.76
13:31:44.252,0.88,1.795
13:31:44.256,0.87,1.84
13:31:44.260,0.875,1.865
13:31:44.264,0.855,1.875
13:31:44.268,0.86,1.9
13:31:44.272,0.865,1.89
13:31:44.276,0.84,1.87
13:31:44.280,0.84,1.875
13:31:44.284,0.815,1.86
13:31:44.288,0.785,1.84
13:31:44.292,0.8,1.815
13:31:44.296,0.79,1.8
13:31:44.300,0.72,1.765
13:31:44.304,0.55,1.69
13:31:44.308,0.52,1.59
13:31:44.312,0.545,1.51
13:31:44.316,0.525,1.39
13:31:44.320,0.445,1.335
13:31:44.324,0.37,1.27
13:31:44.328,0.355,1.225
13:31:44.332,0.385,1.175
13:31:44.336,0.365,1.11
13:31:44.340,0.405,1.04
13:31:44.344,0.415,0.98
13:31:44.348,0.43,0.95
13:31:44.352,0.375,0.87
13:31:44.356,0.245,0.795
13:31:44.360,0.18,0.725
13:31:44.364,0.17,0.655
13:31:44.368,0.165,0.65
13:31:44.372,0.14,0.625
13:31:44.376,0.155,0.61
13:31:44.380,0.155,0.57
13:31:44.384,0.175,0.535
13:31:44.388,0.19,0.535
13:31:44.392,0.175,0.55
13:31:44.396,0.175,0.52
13:31:44.400,0.14,0.51
13:31:44.404,0.145,0.5
13:31:44.408,0.18,0.49
13:31:44.412,0.195,0.445
13:31:44.416,0.19,0.445
13:31:44.420,0.27,0.45
13:31:44.424,0.42,0.465
13:31:44.428,0.55,0.48
13:31:44.432,0.475,0.52
13:31:44.436,0.205,0.62
13:31:44.440,-0.26,0.715
13:31:44.444,-0.88,0.6
13:31:44.448,-1.445,0.245
13:31:44.452,-1.835,-0.22
13:31:44.456,-2.07,-0.86
13:31:44.460,-2.18,-1.79
13:31:44.464,-2.16,-2.73
13:31:44.468,-2.14,-3.52
13:31:44.472,-2.255,-4.125
13:31:44.476,-2.34,-4.47
13:31:44.480,-2.295,-4.65
13:31:44.484,-2.175,-4.75
13:31:44.488,-2.07,-4.74
13:31:44.492,-1.87,-4.65
13:31:44.496,-1.735,-4.57
13:31:44.500,-1.675,-4.46
13:31:44.504,-1.58,-4.38
13:31:44.508,-1.41,-4.295
13:31:44.512,-1.185,-4.08
13:31:44.516,-0.95,-3.795
13:31:44.520,-0.78,-3.455
13:31:44.524,-0.65,-3.05
13:31:44.528,-0.535,-2.505
13:31:44.532,-0.35,-1.985
13:31:44.536,-0.14,-1.55
13:31:44.540,0.05,-1.16
13:31:44.544,0.145,-0.8
13:31:44.548,0.155,-0.445
13:31:44.552,0.135,-0.175
13:31:44.556,0.125,0.085
13:31:44.560,0.12,0.315
13:31:44.564,0.175,0.545
13:31:44.568,0.275,0.73
13:31:44.572,0.345,0.87
13:31:44.576,0.3,0.975
13:31:44.580,0.22,1.05
13:31:44.584,0.18,1.07
13:31:44.588,0.185,1.075
13:31:44.592,0.235,1.105
13:31:44.596,0.295,1.16
13:31:44.600,0.335,1.165
13:31:44.604,0.345,1.19
13:31:44.608,0.285,1.23
13:31:44.612,0.26,1.255
13:31:44.616,0.33,1.265
13:31:44.620,0.355,1.26
13:31:44.624,0.34,1.28
13:31:44.628,0.3,1.295
13:31:44.632,0.34,1.36
13:31:44.636,0.395,1.36
13:31:44.640,0.46,1.395
13:31:44.644,0.465,1.415
13:31:44.648,0.435,1.445
13:31:44.652,0.38,1.465
13:31:44.656,0.395,1.485
13:31:44.660,0.44,1.49
13:31:44.664,0.45,1.48
13:31:44.668,0.37,1.45
13:31:44.672,0.29,1.43
13:31:44.676,0.265,1.395
13:31:44.680,0.32,1.45
13:31:44.684,0.4,1.48
13:31:44.688,0.415,1.525
13:31:44.692,0.375,1.525
13:31:44.696,0.35,1.55
13:31:44.700,0.405,1.555
13:31:44.704,0.4,1.575
13:31:44.708,0.4,1.59
13:31:44.712,0.355,1.565
13:31:44.716,0.345,1.545
13:31:44.720,0.28,1.525
13:31:44.724,0.145,1.54
13:31:44.728,0.1,1.52
13:31:44.732,0.16,1.49
13:31:44.736,0.2,1.455
13:31:44.740,0.205,1.43
13:31:44.744,0.15,1.37
13:31:44.748,0.15,1.31
13:31:44.752,0.1,1.255
13:31:44.756,-0.005,1.21
13:31:44.760,-0.13,1.18
13:31:44.764,-0.18,1.095
13:31:44.768,-0.155,1.035
13:31:44.772,-0.085,0.975
13:31:44.776,-0.02,0.925
13:31:44.780,0.025,0.87
13:31:44.784,0.005,0.82
13:31:44.788,-0.09,0.77
13:31:44.792,-0.205,0.71
13:31:44.796,-0.285,0.66
13:31:44.800,-0.335,0.66
13:31:44.804,-0.26,0.63
13:31:44.808,-0.19,0.6
13:31:44.812,-0.26,0.575
13:31:44.816,-0.36,0.565
13:31:44.820,-0.365,0.535
13:31:44.824,-0.29,0.54
13:31:44.828,-0.21,0.545
13:31:44.832,-0.225,0.555
13:31:44.836,-0.255,0.555
13:31:44.840,-0.23,0.55
13:31:44.844,-0.195,0.535
13:31:44.848,-0.18,0.525
13:31:44.852,-0.255,0.53
13:31:44.856,-0.285,0.53
13:31:44.860,-0.315,0.53
13:31:44.864,-0.245,0.54
13:31:44.868,-0.125,0.55
13:31:44.872,-0.05,0.555
13:31:44.876,-0.055,0.54
13:31:44.880,-0.125,0.505
13:31:44.884,-0.195,0.445
13:31:44.888,-0.23,0.43
13:31:44.892,-0.22,0.445
13:31:44.896,-0.16,0.43
13:31:44.900,-0.105,0.435
13:31:44.904,-0.18,0.455
13:31:44.908,-0.345,0.45
13:31:44.912,-0.41,0.445
13:31:44.916,-0.4,0.42
13:31:44.920,-0.35,0.425
13:31:44.924,-0.28,0.46
13:31:44.928,-0.215,0.485
13:31:44.932,-0.255,0.475
13:31:44.936,-0.305,0.465
13:31:44.940,-0.28,0.42
13:31:44.944,-0.24,0.415
13:31:44.948,-0.195,0.415
13:31:44.952,-0.115,0.42
13:31:44.956,-0.225,0.42
13:31:44.960,-0.48,0.38
13:31:44.964,-0.59,0.35
13:31:44.968,-0.56,0.38
13:31:44.972,-0.47,0.39
13:31:44.976,-0.395,0.39
13:31:44.980,-0.335,0.42
13:31:44.984,-0.2,0.405
13:31:44.988,-0.2,0.405
13:31:44.992,-0.38,0.375
13:31:44.996,-0.545,0.335
13:31:45.000,-0.51,0.315
13:31:45.004,-0.41,0.315
13:31:45.008,-0.385,0.345
13:31:45.012,-0.5,0.38
13:31:45.016,-0.555,0.36
13:31:45.020,-0.425,0.365
13:31:45.024,-0.315,0.36
13:31:45.028,-0.375,0.36
13:31:45.032,-0.55,0.355
13:31:45.036,-0.655,0.33
13:31:45.040,-0.62,0.33
13:31:45.044,-0.495,0.35
13:31:45.048,-0.355,0.355
13:31:45.052,-0.205,0.385
13:31:45.056,-0.175,0.405
13:31:45.060,-0.31,0.385
13:31:45.064,-0.445,0.39
13:31:45.068,-0.45,0.3
13:31:45.072,-0.385,0.31
13:31:45.076,-0.305,0.33
13:31:45.080,-0.195,0.355
13:31:45.084,-0.12,0.405
13:31:45.088,-0.125,0.4
13:31:45.092,-0.215,0.365
13:31:45.096,-0.29,0.315
13:31:45.100,-0.31,0.29
13:31:45.104,-0.19,0.33
13:31:45.108,-0.19,0.365
13:31:45.112,-0.24,0.365
13:31:45.116,-0.35,0.375
13:31:45.120,-0.385,0.37
13:31:45.124,-0.32,0.385
13:31:45.128,-0.255,0.405
13:31:45.132,-0.355,0.375
13:31:45.136,-0.51,0.345
13:31:45.140,-0.515,0.3
13:31:45.144,-0.475,0.285
13:31:45.148,-0.46,0.35
13:31:45.152,-0.425,0.405
13:31:45.156,-0.295,0.4
13:31:45.160,-0.25,0.38
13:31:45.164,-0.395,0.35
13:31:45.168,-0.58,0.295
13:31:45.172,-0.535,0.315
13:31:45.176,-0.405,0.3
13:31:45.180,-0.27,0.325
13:31:45.184,-0.2,0.39
13:31:45.188,-0.295,0.44
13:31:45.192,-0.435,0.45
13:31:45.196,-0.555,0.43
13:31:45.200,-0.53,0.365
13:31:45.204,-0.435,0.345
13:31:45.208,-0.365,0.355
13:31:45.212,-0.37,0.395
13:31:45.216,-0.46,0.415
13:31:45.220,-0.47,0.4
13:31:45.224,-0.445,0.37
13:31:45.228,-0.425,0.37
13:31:45.232,-0.385,0.345
13:31:45.236,-0.34,0.32
13:31:45.240,-0.47,0.36
13:31:45.244,-0.54,0.36
13:31:45.248,-0.48,0.29
13:31:45.252,-0.42,0.285
13:31:45.256,-0.355,0.29
13:31:45.260,-0.275,0.315
13:31:45.264,-0.17,0.3
13:31:45.268,-0.11,0.325
13:31:45.272,-0.155,0.355
13:31:45.276,-0.265,0.37
13:31:45.280,-0.37,0.335
13:31:45.284,-0.465,0.335
13:31:45.288,-0.52,0.315
13:31:45.292,-0.455,0.33
13:31:45.296,-0.345,0.31
13:31:45.300,-0.38,0.325
13:31:45.304,-0.48,0.32
13:31:45.308,-0.55,0.27
13:31:45.312,-0.56,0.285
13:31:45.316,-0.555,0.29
13:31:45.320,-0.51,0.305
13:31:45.324,-0.37,0.335
13:31:45.328,-0.21,0.305
13:31:45.332,-0.075,0.285
13:31:45.336,-0.15,0.32
13:31:45.340,-0.225,0.37
13:31:45.344,-0.24,0.47
13:31:45.348,-0.485,0.53
13:31:45.352,-0.96,0.35
13:31:45.356,-1.36,-0.12
13:31:45.360,-1.65,-0.685
13:31:45.364,-1.875,-1.45
13:31:45.368,-2.055,-2.405
13:31:45.372,-2.02,-3.245
13:31:45.376,-1.82,-3.87
13:31:45.380,-1.68,-4.31
13:31:45.384,-1.695,-4.575
13:31:45.388,-1.87,-4.745
13:31:45.392,-2.05,-4.81
13:31:45.396,-2.05,-4.81
13:31:45.400,-2.02,-4.75
13:31:45.404,-1.905,-4.675
13:31:45.408,-1.77,-4.59
13:31:45.412,-1.735,-4.495
13:31:45.416,-1.8,-4.43
13:31:45.420,-1.84,-4.355
13:31:45.424,-1.77,-4.215
13:31:45.428,-1.6,-3.99
13:31:45.432,-1.345,-3.685
13:31:45.436,-1.12,-3.355
13:31:45.440,-1.045,-2.955
13:31:45.444,-1.03,-2.52
13:31:45.448,-0.975,-2.04
13:31:45.452,-0.825,-1.59
13:31:45.456,-0.565,-1.155
13:31:45.460,-0.405,-0.71
13:31:45.464,-0.335,-0.39
13:31:45.468,-0.265,-0.14
13:31:45.472,-0.235,0.055
13:31:45.476,-0.18,0.22
13:31:45.480,-0.17,0.425
13:31:45.484,-0.16,0.645
13:31:45.488,-0.14,0.79
13:31:45.492,-0.125,0.895
13:31:45.496,-0.16,0.955
13:31:45.500,-0.18,1.03
13:31:45.504,-0.12,1.06
13:31:45.508,-0.04,1.125
13:31:45.512,-0.005,1.15
13:31:45.516,-0.01,1.175
13:31:45.520,-0.025,1.18
13:31:45.524,-0.01,1.155
13:31:45.528,-0.05,1.18
13:31:45.532,-0.065,1.215
13:31:45.536,0.005,1.29
13:31:45.540,0.105,1.34
13:31:45.544,0.17,1.35
13:31:45.548,0.14,1.335
13:31:45.552,0.135,1.355
13:31:45.556,0.145,1.39
13:31:45.560,0.195,1.44
13:31:45.564,0.21,1.465
13:31:45.568,0.23,1.495
13:31:45.572,0.215,1.515
13:31:45.576,0.18,1.53
13:31:45.580,0.18,1.54
13:31:45.584,0.23,1.58
13:31:45.588,0.31,1.635
13:31:45.592,0.415,1.685
13:31:45.596,0.41,1.715
13:31:45.600,0.345,1.745
13:31:45.604,0.355,1.785
13:31:45.608,0.335,1.79
13:31:45.612,0.345,1.79
13:31:45.616,0.405,1.795
13:31:45.620,0.435,1.83
13:31:45.624,0.375,1.82
13:31:45.628,0.285,1.855
13:31:45.632,0.26,1.895
13:31:45.636,0.27,1.955
13:31:45.640,0.305,1.975
13:31:45.644,0.33,1.96
13:31:45.648,0.3,1.91
13:31:45.652,0.285,1.855
13:31:45.656,0.28,1.84
13:31:45.660,0.265,1.825
13:31:45.664,0.225,1.77
13:31:45.668,0.19,1.735
13:31:45.672,0.155,1.68
13:31:45.676,0.17,1.64
13:31:45.680,0.12,1.59
13:31:45.684,0.065,1.545
13:31:45.688,0.03,1.485
13:31:45.692,0.01,1.425
13:31:45.696,-0.09,1.375
13:31:45.700,-0.185,1.3
13:31:45.704,-0.27,1.235
13:31:45.708,-0.31,1.17
13:31:45.712,-0.34,1.1
13:31:45.716,-0.36,1.055
13:31:45.720,-0.36,1.0
13:31:45.724,-0.315,0.965
13:31:45.728,-0.28,0.89
13:31:45.732,-0.26,0.855
13:31:45.736,-0.335,0.815
13:31:45.740,-0.42,0.725
13:31:45.744,-0.455,0.685
13:31:45.748,-0.47,0.645
13:31:45.752,-0.49,0.585
13:31:45.756,-0.48,0.58
13:31:45.760,-0.44,0.585
13:31:45.764,-0.39,0.54
13:31:45.768,-0.385,0.52
13:31:45.772,-0.38,0.52
13:31:45.776,-0.36,0.515
13:31:45.780,-0.305,0.54
13:31:45.784,-0.195,0.55
13:31:45.788,-0.025,0.535
13:31:45.792,0.085,0.55
13:31:45.796,0.145,0.53
13:31:45.800,0.12,0.525
13:31:45.804,-0.165,0.515
13:31:45.808,-0.66,0.52
13:31:45.812,-1.265,0.415
13:31:45.816,-1.85,0.11
13:31:45.820,-2.2,-0.445
13:31:45.824,-2.265,-1.185
13:31:45.828,-2.25,-2.0
13:31:45.832,-2.2,-2.76
13:31:45.836,-2.315,-3.47
13:31:45.840,-2.575,-3.995
13:31:45.844,-2.78,-4.305
13:31:45.848,-2.8,-4.505
13:31:45.852,-2.715,-4.58
13:31:45.856,-2.61,-4.57
13:31:45.860,-2.46,-4.505
13:31:45.864,-2.25,-4.43
13:31:45.868,-2.1,-4.325
13:31:45.872,-1.985,-4.29
13:31:45.876,-1.81,-4.17
13:31:45.880,-1.535,-3.965
13:31:45.884,-1.335,-3.625
13:31:45.888,-1.2,-3.275
13:31:45.892,-1.04,-2.85
13:31:45.896,-0.83,-2.345
13:31:45.900,-0.585,-1.715
13:31:45.904,-0.425,-1.175
13:31:45.908,-0.275,-0.72
13:31:45.912,-0.115,-0.355
13:31:45.916,-0.105,-0.035
13:31:45.920,-0.26,0.25
13:31:45.924,-0.375,0.475
13:31:45.928,-0.38,0.64
13:31:45.932,-0.325,0.755
13:31:45.936,-0.29,0.89
13:31:45.940,-0.265,1.01
13:31:45.944,-0.22,1.045
13:31:45.948,-0.195,1.06
13:31:45.952,-0.21,1.095
13:31:45.956,-0.235,1.175
13:31:45.960,-0.225,1.175
13:31:45.964,-0.19,1.185
13:31:45.968,-0.145,1.21
13:31:45.972,-0.135,1.22
13:31:45.976,-0.095,1.205
13:31:45.980,-0.07,1.235
13:31:45.984,-0.125,1.195
13:31:45.988,-0.185,1.195
13:31:45.992,-0.24,1.21
13:31:45.996,-0.165,1.22
13:31:46.000,-0.13,1.305
13:31:46.004,-0.135,1.355
13:31:46.008,-0.155,1.375
13:31:46.012,-0.155,1.39
13:31:46.016,-0.17,1.385
13:31:46.020,-0.18,1.38
13:31:46.024,-0.19,1.375
13:31:46.028,-0.175,1.37
13:31:46.032,-0.12,1.38
13:31:46.036,-0.095,1.345
13:31:46.040,-0.105,1.34
13:31:46.044,-0.13,1.335
13:31:46.048,-0.24,1.325
13:31:46.052,-0.4,1.325
13:31:46.056,-0.475,1.345
13:31:46.060,-0.455,1.35
13:31:46.064,-0.43,1.345
13:31:46.068,-0.39,1.32
13:31:46.072,-0.36,1.335
13:31:46.076,-0.33,1.355
13:31:46.080,-0.345,1.355
13:31:46.084,-0.365,1.38
13:31:46.088,-0.365,1.375
13:31:46.092,-0.345,1.38
13:31:46.096,-0.36,1.37
13:31:46.100,-0.365,1.31
13:31:46.104,-0.39,1.285
13:31:46.108,-0.4,1.245
13:31:46.112,-0.42,1.215
13:31:46.116,-0.42,1.195
13:31:46.120,-0.425,1.12
13:31:46.124,-0.445,1.085
13:31:46.128,-0.445,1.025
13:31:46.132,-0.455,0.98
13:31:46.136,-0.475,0.935
13:31:46.140,-0.485,0.875
13:31:46.144,-0.49,0.83
13:31:46.148,-0.5,0.77
13:31:46.152,-0.47,0.755
13:31:46.156,-0.49,0.68
13:31:46.160,-0.54,0.67
13:31:46.164,-0.575,0.635
13:31:46.168,-0.595,0.585
13:31:46.172,-0.58,0.54
13:31:46.176,-0.585,0.505
13:31:46.180,-0.595,0.5
13:31:46.184,-0.54,0.51
13:31:46.188,-0.505,0.495
13:31:46.192,-0.505,0.505
13:31:46.196,-0.46,0.51
13:31:46.200,-0.47,0.555
13:31:46.204,-0.585,0.565
13:31:46.208,-0.585,0.57
13:31:46.212,-0.54,0.545
13:31:46.216,-0.535,0.51
13:31:46.220,-0.49,0.495
13:31:46.224,-0.47,0.51
13:31:46.228,-0.465,0.51
13:31:46.232,-0.46,0.495
13:31:46.236,-0.495,0.48
13:31:46.240,-0.505,0.46
13:31:46.244,-0.525,0.46
13:31:46.248,-0.485,0.475
13:31:46.252,-0.455,0.45
13:31:46.256,-0.445,0.425
13:31:46.260,-0.445,0.43
13:31:46.264,-0.455,0.44
13:31:46.268,-0.445,0.45
13:31:46.272,-0.425,0.43
13:31:46.276,-0.43,0.45
13:31:46.280,-0.44,0.475
13:31:46.284,-0.415,0.45
13:31:46.288,-0.38,0.425
13:31:46.292,-0.365,0.415
13:31:46.296,-0.415,0.4
13:31:46.300,-0.45,0.415
13:31:46.304,-0.445,0.405
13:31:46.308,-0.47,0.405
13:31:46.312,-0.42,0.415
13:31:46.316,-0.445,0.44
13:31:46.320,-0.48,0.44
13:31:46.324,-0.525,0.38
13:31:46.328,-0.53,0.34
13:31:46.332,-0.53,0.33
13:31:46.336,-0.525,0.38
13:31:46.340,-0.515,0.35
13:31:46.344,-0.515,0.33
13:31:46.348,-0.55,0.31
13:31:46.352,-0.59,0.3
13:31:46.356,-0.58,0.3
13:31:46.360,-0.535,0.32
13:31:46.364,-0.4,0.31
13:31:46.368,-0.255,0.27
13:31:46.372,-0.19,0.315
13:31:46.376,-0.27,0.38
13:31:46.380,-0.42,0.51
13:31:46.384,-0.7,0.595
13:31:46.388,-1.085,0.47
13:31:46.392,-1.53,0.05
13:31:46.396,-1.945,-0.5
13:31:46.400,-2.22,-1.27
13:31:46.404,-2.4,-2.26
13:31:46.408,-2.4,-3.145
13:31:46.412,-2.34,-3.815
13:31:46.416,-2.315,-4.29
13:31:46.420,-2.325,-4.615
13:31:46.424,-2.28,-4.775
13:31:46.428,-2.245,-4.845
13:31:46.432,-2.26,-4.865
13:31:46.436,-2.335,-4.8
13:31:46.440,-2.33,-4.7
13:31:46.444,-2.23,-4.635
13:31:46.448,-2.16,-4.56
13:31:46.452,-2.08,-4.5
13:31:46.456,-1.96,-4.42
13:31:46.460,-1.77,-4.265
13:31:46.464,-1.525,-4.065
13:31:46.468,-1.35,-3.78
13:31:46.472,-1.2,-3.425
13:31:46.476,-1.065,-2.96
13:31:46.480,-0.93,-2.44
13:31:46.484,-0.8,-1.895
13:31:46.488,-0.655,-1.36
13:31:46.492,-0.46,-0.965
13:31:46.496,-0.31,-0.555
13:31:46.500,-0.245,-0.3
13:31:46.504,-0.18,-0.085
13:31:46.508,-0.14,0.145
13:31:46.512,-0.06,0.41
13:31:46.516,0.02,0.585
13:31:46.520,0.055,0.76
13:31:46.524,0.025,0.935
13:31:46.528,-0.06,1.065
13:31:46.532,-0.12,1.1
13:31:46.536,-0.1,1.085
13:31:46.540,-0.08,1.07
13:31:46.544,-0.015,1.15
13:31:46.548,0.03,1.185
13:31:46.552,0.06,1.19
13:31:46.556,0.11,1.24
13:31:46.560,0.13,1.3
13:31:46.564,0.145,1.335
13:31:46.568,0.165,1.32
13:31:46.572,0.195,1.39
13:31:46.576,0.22,1.46
13:31:46.580,0.25,1.5
13:31:46.584,0.255,1.525
13:31:46.588,0.29,1.545
13:31:46.592,0.31,1.545
13:31:46.596,0.34,1.575
13:31:46.600,0.34,1.65
13:31:46.604,0.37,1.675
13:31:46.608,0.38,1.71
13:31:46.612,0.415,1.745
13:31:46.616,0.415,1.78
13:31:46.620,0.425,1.83
13:31:46.624,0.43,1.855
13:31:46.628,0.455,1.9
13:31:46.632,0.49,1.925
13:31:46.636,0.505,1.96
13:31:46.640,0.51,1.96
13:31:46.644,0.53,2.0
13:31:46.648,0.535,1.995
13:31:46.652,0.535,2.02
13:31:46.656,0.5,2.035
13:31:46.660,0.47,2.05
13:31:46.664,0.42,2.03
13:31:46.668,0.38,1.99
13:31:46.672,0.315,1.935
13:31:46.676,0.29,1.875
13:31:46.680,0.25,1.855
13:31:46.684,0.23,1.82
13:31:46.688,0.205,1.765
13:31:46.692,0.18,1.705
13:31:46.696,0.155,1.64
13:31:46.700,0.12,1.59
13:31:46.704,0.095,1.525
13:31:46.708,0.045,1.435
13:31:46.712,-0.025,1.335
13:31:46.716,-0.12,1.265
13:31:46.720,-0.195,1.19
13:31:46.724,-0.245,1.085
13:31:46.728,-0.275,1.005
13:31:46.732,-0.27,0.975
13:31:46.736,-0.24,0.93
13:31:46.740,-0.225,0.875
13:31:46.744,-0.27,0.84
13:31:46.748,-0.37,0.775
13:31:46.752,-0.375,0.735
13:31:46.756,-0.4,0.67
13:31:46.760,-0.405,0.655
13:31:46.764,-0.395,0.605
13:31:46.768,-0.36,0.605
13:31:46.772,-0.36,0.575
13:31:46.776,-0.335,0.555
13:31:46.780,-0.345,0.555
13:31:46.784,-0.37,0.555
13:31:46.788,-0.39,0.55
13:31:46.792,-0.36,0.53
13:31:46.796,-0.385,0.535
13:31:46.800,-0.36,0.52
13:31:46.804,-0.355,0.535
13:31:46.808,-0.355,0.54
13:31:46.812,-0.345,0.54
13:31:46.816,-0.315,0.51
13:31:46.820,-0.27,0.51
13:31:46.824,-0.23,0.505
13:31:46.828,-0.14,0.495
13:31:46.832,0.02,0.49
13:31:46.836,0.175,0.465
13:31:46.840,0.17,0.535
13:31:46.844,-0.005,0.57
13:31:46.848,-0.29,0.655
13:31:46.852,-0.765,0.67
13:31:46.856,-1.415,0.485
13:31:46.860,-2.045,0.03
13:31:46.864,-2.465,-0.48
13:31:46.868,-2.72,-1.295
13:31:46.872,-2.8,-2.28
13:31:46.876,-2.77,-3.17
13:31:46.880,-2.78,-3.875
13:31:46.884,-2.83,-4.355
13:31:46.888,-2.865,-4.64
13:31:46.892,-2.83,-4.78
13:31:46.896,-2.825,-4.83
13:31:46.900,-2.84,-4.815
13:31:46.904,-2.75,-4.76
13:31:46.908,-2.6,-4.705
13:31:46.912,-2.45,-4.665
13:31:46.916,-2.33,-4.595
13:31:46.920,-2.165,-4.53
13:31:46.924,-1.93,-4.345
13:31:46.928,-1.73,-4.08
13:31:46.932,-1.585,-3.785
13:31:46.936,-1.46,-3.395
13:31:46.940,-1.315,-2.915
13:31:46.944,-1.11,-2.325
13:31:46.948,-0.94,-1.75
13:31:46.952,-0.695,-1.225
13:31:46.956,-0.49,-0.8
13:31:46.960,-0.32,-0.46
13:31:46.964,-0.235,-0.17
13:31:46.968,-0.17,0.125
13:31:46.972,-0.125,0.415
13:31:46.976,-0.085,0.68
13:31:46.980,-0.06,0.885
13:31:46.984,-0.03,1.045
13:31:46.988,-0.01,1.155
13:31:46.992,0.03,1.205
13:31:46.996,0.035,1.27
13:31:47.000,0.075,1.27
13:31:47.004,0.105,1.315
13:31:47.008,0.13,1.345
13:31:47.012,0.2,1.4
13:31:47.016,0.22,1.415
13:31:47.020,0.185,1.45
13:31:47.024,0.17,1.46
13:31:47.028,0.2,1.485
13:31:47.032,0.235,1.47
13:31:47.036,0.24,1.45
13:31:47.040,0.245,1.445
13:31:47.044,0.25,1.445
13:31:47.048,0.215,1.435
13:31:47.052,0.21,1.475
13:31:47.056,0.21,1.465
13:31:47.060,0.205,1.49
13:31:47.064,0.155,1.485
13:31:47.068,0.115,1.475
13:31:47.072,0.15,1.52
13:31:47.076,0.18,1.55
13:31:47.080,0.175,1.55
13:31:47.084,0.155,1.545
13:31:47.088,0.13,1.55
13:31:47.092,0.145,1.605
13:31:47.096,0.15,1.62
13:31:47.100,0.16,1.635
13:31:47.104,0.135,1.675
13:31:47.108,0.18,1.7
13:31:47.112,0.18,1.7
13:31:47.116,0.065,1.7
13:31:47.120,-0.01,1.715
13:31:47.124,0.025,1.71
13:31:47.128,0.04,1.68
13:31:47.132,0.02,1.655
13:31:47.136,-0.095,1.63
13:31:47.140,-0.18,1.63
13:31:47.144,-0.195,1.565
13:31:47.148,-0.175,1.525
13:31:47.152,-0.2,1.485
13:31:47.156,-0.195,1.475
13:31:47.160,-0.205,1.415
13:31:47.164,-0.21,1.365
13:31:47.168,-0.175,1.265
13:31:47.172,-0.175,1.205
13:31:47.176,-0.18,1.175
13:31:47.180,-0.195,1.08
13:31:47.184,-0.175,1.025
13:31:47.188,-0.195,0.98
13:31:47.192,-0.185,0.96
13:31:47.196,-0.175,0.935
13:31:47.200,-0.17,0.865
13:31:47.204,-0.14,0.835
13:31:47.208,-0.14,0.815
13:31:47.212,-0.14,0.8
13:31:47.216,-0.185,0.735
13:31:47.220,-0.245,0.7
13:31:47.224,-0.28,0.665
13:31:47.228,-0.335,0.615
13:31:47.232,-0.335,0.57
13:31:47.236,-0.365,0.525
13:31:47.240,-0.355,0.485
13:31:47.244,-0.33,0.425
13:31:47.248,-0.325,0.405
13:31:47.252,-0.3,0.44
13:31:47.256,-0.295,0.445
13:31:47.260,-0.29,0.44
13:31:47.264,-0.285,0.42
13:31:47.268,-0.305,0.44
13:31:47.272,-0.33,0.455
13:31:47.276,-0.345,0.445
13:31:47.280,-0.37,0.445
13:31:47.284,-0.365,0.44
13:31:47.288,-0.355,0.4
13:31:47.292,-0.375,0.43
13:31:47.296,-0.4,0.41
13:31:47.300,-0.365,0.4
13:31:47.304,-0.365,0.415
13:31:47.308,-0.37,0.455
13:31:47.312,-0.37,0.425
13:31:47.316,-0.335,0.4
13:31:47.320,-0.38,0.405
13:31:47.324,-0.43,0.395
13:31:47.328,-0.455,0.39
13:31:47.332,-0.475,0.35
13:31:47.336,-0.465,0.38
13:31:47.340,-0.4,0.4
13:31:47.344,-0.35,0.42
13:31:47.348,-0.3,0.425
13:31:47.352,-0.28,0.435
13:31:47.356,-0.245,0.415
13:31:47.360,-0.305,0.4
13:31:47.364,-0.44,0.415
13:31:47.368,-0.485,0.39
13:31:47.372,-0.445,0.415
13:31:47.376,-0.395,0.42
13:31:47.380,-0.31,0.43
13:31:47.384,-0.225,0.43
13:31:47.388,-0.205,0.43
13:31:47.392,-0.31,0.465
13:31:47.396,-0.39,0.475
13:31:47.400,-0.35,0.475
13:31:47.404,-0.26,0.48
13:31:47.408,-0.305,0.455
13:31:47.412,-0.425,0.435
13:31:47.416,-0.455,0.4
13:31:47.420,-0.44,0.355
13:31:47.424,-0.355,0.34
13:31:47.428,-0.355,0.38
13:31:47.432,-0.385,0.415
13:31:47.436,-0.4,0.405
13:31:47.440,-0.38,0.425
13:31:47.444,-0.355,0.435
13:31:47.448,-0.335,0.455
13:31:47.452,-0.35,0.455
13:31:47.456,-0.33,0.455
13:31:47.460,-0.3,0.42
13:31:47.464,-0.305,0.425
13:31:47.468,-0.3,0.395
13:31:47.472,-0.285,0.41
13:31:47.476,-0.295,0.415
13:31:47.480,-0.28,0.435
13:31:47.484,-0.28,0.425
13:31:47.488,-0.29,0.4
13:31:47.492,-0.295,0.345
13:31:47.496,-0.295,0.355
13:31:47.500,-0.35,0.385
13:31:47.504,-0.415,0.375
13:31:47.508,-0.445,0.355
13:31:47.512,-0.4,0.345
13:31:47.516,-0.365,0.34
13:31:47.520,-0.315,0.345
13:31:47.524,-0.26,0.34
13:31:47.528,-0.235,0.32
13:31:47.532,-0.27,0.325
13:31:47.536,-0.345,0.33
13:31:47.540,-0.285,0.325
13:31:47.544,-0.12,0.35
13:31:47.548,-0.01,0.34
13:31:47.552,-0.08,0.4
13:31:47.556,-0.265,0.52
13:31:47.560,-0.58,0.595
13:31:47.564,-1.015,0.43
13:31:47.568,-1.445,-0.01
13:31:47.572,-1.8,-0.605
13:31:47.576,-2.075,-1.355
13:31:47.580,-2.18,-2.33
13:31:47.584,-2.085,-3.225
13:31:47.588,-1.965,-3.835
13:31:47.592,-1.95,-4.225
13:31:47.596,-1.95,-4.47
13:31:47.600,-1.88,-4.585
13:31:47.604,-1.81,-4.685
13:31:47.608,-1.81,-4.68
13:31:47.612,-1.85,-4.635
13:31:47.616,-1.805,-4.59
13:31:47.620,-1.745,-4.51
13:31:47.624,-1.85,-4.465
13:31:47.628,-1.94,-4.43
13:31:47.632,-1.93,-4.34
13:31:47.636,-1.74,-4.145
13:31:47.640,-1.49,-3.875
13:31:47.644,-1.27,-3.565
13:31:47.648,-1.065,-3.19
13:31:47.652,-0.91,-2.745
13:31:47.656,-0.825,-2.215
13:31:47.660,-0.735,-1.645
13:31:47.664,-0.59,-1.195
13:31:47.668,-0.46,-0.83
13:31:47.672,-0.3,-0.46
13:31:47.676,-0.22,-0.195
13:31:47.680,-0.135,0.01
13:31:47.684,-0.02,0.25
13:31:47.688,0.08,0.475
13:31:47.692,0.16,0.64
13:31:47.696,0.145,0.815
13:31:47.700,0.105,0.945
13:31:47.704,0.085,1.05
13:31:47.708,0.14,1.13
13:31:47.712,0.25,1.185
13:31:47.716,0.35,1.18
13:31:47.720,0.36,1.195
13:31:47.724,0.37,1.23
13:31:47.728,0.37,1.315
13:31:47.732,0.365,1.345
13:31:47.736,0.37,1.38
13:31:47.740,0.39,1.405
13:31:47.744,0.405,1.45
13:31:47.748,0.42,1.475
13:31:47.752,0.48,1.49
13:31:47.756,0.505,1.52
13:31:47.760,0.555,1.575
13:31:47.764,0.61,1.625
13:31:47.768,0.615,1.66
13:31:47.772,0.55,1.7
13:31:47.776,0.565,1.71
13:31:47.780,0.59,1.75
13:31:47.784,0.645,1.77
13:31:47.788,0.705,1.76
13:31:47.792,0.71,1.79
13:31:47.796,0.745,1.85
13:31:47.800,0.79,1.875
13:31:47.804,0.755,1.895
13:31:47.808,0.705,1.91
13:31:47.812,0.74,1.905
13:31:47.816,0.73,1.94
13:31:47.820,0.695,1.945
13:31:47.824,0.64,1.985
13:31:47.828,0.675,1.99
13:31:47.832,0.685,2.0
13:31:47.836,0.665,1.99
13:31:47.840,0.625,1.99
13:31:47.844,0.6,1.98
13:31:47.848,0.57,2.0
13:31:47.852,0.56,1.97
13:31:47.856,0.515,1.925
13:31:47.860,0.41,1.86
13:31:47.864,0.37,1.85
13:31:47.868,0.34,1.82
13:31:47.872,0.365,1.785
13:31:47.876,0.345,1.725
13:31:47.880,0.31,1.655
13:31:47.884,0.3,1.595
13:31:47.888,0.225,1.505
13:31:47.892,0.175,1.445
13:31:47.896,0.155,1.37
13:31:47.900,0.155,1.31
13:31:47.904,0.09,1.25
13:31:47.908,0.085,1.175
13:31:47.912,0.11,1.11
13:31:47.916,0.12,1.06
13:31:47.920,0.065,1.015
13:31:47.924,0.0,0.945
13:31:47.928,-0.015,0.9
13:31:47.932,-0.055,0.84
13:31:47.936,-0.06,0.805
13:31:47.940,-0.03,0.75
13:31:47.944,0.01,0.7
13:31:47.948,0.03,0.665
13:31:47.952,-0.025,0.615
13:31:47.956,-0.185,0.595
13:31:47.960,-0.23,0.535
13:31:47.964,-0.185,0.51
13:31:47.968,-0.155,0.485
13:31:47.972,-0.11,0.485
13:31:47.976,-0.12,0.53
13:31:47.980,-0.125,0.505
13:31:47.984,-0.12,0.5
13:31:47.988,-0.125,0.485
13:31:47.992,-0.04,0.46
13:31:47.996,0.015,0.495
13:31:48.000,0.18,0.505
13:31:48.004,0.375,0.515
13:31:48.008,0.45,0.55
13:31:48.012,0.34,0.625
13:31:48.016,0.05,0.74
13:31:48.020,-0.44,0.785
13:31:48.024,-1.045,0.64
13:31:48.028,-1.58,0.235
13:31:48.032,-1.955,-0.25
13:31:48.036,-2.125,-1.04
13:31:48.040,-2.195,-2.015
13:31:48.044,-2.215,-2.9
13:31:48.048,-2.285,-3.675
13:31:48.052,-2.35,-4.22
13:31:48.056,-2.375,-4.535
13:31:48.060,-2.265,-4.685
13:31:48.064,-2.14,-4.735
13:31:48.068,-2.135,-4.715
13:31:48.072,-2.08,-4.69
13:31:48.076,-1.93,-4.64
13:31:48.080,-1.84,-4.585
13:31:48.084,-1.835,-4.51
13:31:48.088,-1.755,-4.44
13:31:48.092,-1.51,-4.225
13:31:48.096,-1.255,-3.955
13:31:48.100,-1.11,-3.56
13:31:48.104,-0.95,-3.14
13:31:48.108,-0.745,-2.59
13:31:48.112,-0.56,-2.045
13:31:48.116,-0.365,-1.555
13:31:48.120,-0.14,-1.125
13:31:48.124,0.025,-0.76
13:31:48.128,0.15,-0.425
13:31:48.132,0.19,-0.16
13:31:48.136,0.23,0.09
13:31:48.140,0.25,0.38
13:31:48.144,0.245,0.625
13:31:48.148,0.27,0.805
13:31:48.152,0.32,0.99
13:31:48.156,0.4,1.085
13:31:48.160,0.46,1.12
13:31:48.164,0.48,1.15
13:31:48.168,0.42,1.18
13:31:48.172,0.39,1.205
13:31:48.176,0.375,1.215
13:31:48.180,0.335,1.2
13:31:48.184,0.3,1.26
13:31:48.188,0.35,1.275
13:31:48.192,0.475,1.28
13:31:48.196,0.525,1.3
13:31:48.200,0.405,1.325
13:31:48.204,0.32,1.355
13:31:48.208,0.34,1.37
13:31:48.212,0.325,1.395
13:31:48.216,0.35,1.44
13:31:48.220,0.395,1.47
13:31:48.224,0.415,1.485
13:31:48.228,0.435,1.5
13:31:48.232,0.48,1.54
13:31:48.236,0.5,1.55
13:31:48.240,0.49,1.56
13:31:48.244,0.525,1.6
13:31:48.248,0.54,1.6
13:31:48.252,0.535,1.59
13:31:48.256,0.54,1.59
13:31:48.260,0.555,1.625
13:31:48.264,0.555,1.625
13:31:48.268,0.55,1.625
13:31:48.272,0.53,1.605
13:31:48.276,0.55,1.61
13:31:48.280,0.58,1.61
13:31:48.284,0.59,1.6
13:31:48.288,0.595,1.59
13:31:48.292,0.57,1.56
13:31:48.296,0.54,1.585
13:31:48.300,0.505,1.565
13:31:48.304,0.465,1.53
13:31:48.308,0.415,1.505
13:31:48.312,0.38,1.495
13:31:48.316,0.33,1.465
13:31:48.320,0.27,1.4
13:31:48.324,0.215,1.305
13:31:48.328,0.245,1.25
13:31:48.332,0.25,1.215
13:31:48.336,0.22,1.2
13:31:48.340,0.11,1.145
13:31:48.344,0.015,1.09
13:31:48.348,-0.03,1.04
13:31:48.352,-0.025,0.955
13:31:48.356,-0.04,0.89
13:31:48.360,-0.08,0.83
13:31:48.364,-0.105,0.79
13:31:48.368,-0.1,0.76
13:31:48.372,-0.005,0.71
13:31:48.376,0.0,0.685
13:31:48.380,-0.05,0.7
13:31:48.384,-0.08,0.64
13:31:48.388,-0.11,0.6
13:31:48.392,-0.1,0.59
13:31:48.396,-0.065,0.59
13:31:48.400,-0.04,0.56
13:31:48.404,-0.06,0.525
13:31:48.408,-0.06,0.515
13:31:48.412,-0.075,0.525
13:31:48.416,-0.04,0.515
13:31:48.420,0.045,0.505
13:31:48.424,0.115,0.49
13:31:48.428,0.22,0.495
13:31:48.432,0.375,0.495
13:31:48.436,0.455,0.54
13:31:48.440,0.365,0.615
13:31:48.444,0.155,0.69
13:31:48.448,-0.29,0.75
13:31:48.452,-0.805,0.57
13:31:48.456,-1.235,0.16
13:31:48.460,-1.525,-0.435
13:31:48.464,-1.59,-1.29
13:31:48.468,-1.515,-2.395
13:31:48.472,-1.385,-3.285
13:31:48.476,-1.235,-3.925
13:31:48.480,-1.235,-4.36
13:31:48.484,-1.35,-4.605
13:31:48.488,-1.39,-4.75
13:31:48.492,-1.455,-4.805
13:31:48.496,-1.555,-4.825
13:31:48.500,-1.585,-4.78
13:31:48.504,-1.52,-4.735
13:31:48.508,-1.39,-4.68
13:31:48.512,-1.3,-4.63
13:31:48.516,-1.26,-4.535
13:31:48.520,-1.275,-4.43
13:31:48.524,-1.215,-4.22
13:31:48.528,-1.115,-3.895
13:31:48.532,-0.965,-3.53
13:31:48.536,-0.81,-3.14
13:31:48.540,-0.62,-2.615
13:31:48.544,-0.465,-2.02
13:31:48.548,-0.32,-1.52
13:31:48.552,-0.195,-1.08
13:31:48.556,-0.04,-0.695
13:31:48.560,0.065,-0.345
13:31:48.564,0.13,-0.065
13:31:48.568,0.175,0.18
13:31:48.572,0.21,0.42
13:31:48.576,0.24,0.67
13:31:48.580,0.3,0.835
13:31:48.584,0.31,0.96
13:31:48.588,0.34,1.09
13:31:48.592,0.35,1.185
13:31:48.596,0.38,1.215
13:31:48.600,0.41,1.24
13:31:48.604,0.455,1.305
13:31:48.608,0.5,1.335
13:31:48.612,0.56,1.35
13:31:48.616,0.635,1.36
13:31:48.620,0.675,1.385
13:31:48.624,0.645,1.4
13:31:48.628,0.6,1.405
13:31:48.632,0.58,1.425
13:31:48.636,0.59,1.465
13:31:48.640,0.625,1.51
13:31:48.644,0.635,1.56
13:31:48.648,0.73,1.605
13:31:48.652,0.78,1.615
13:31:48.656,0.785,1.635
13:31:48.660,0.69,1.64
13:31:48.664,0.595,1.655
13:31:48.668,0.58,1.64
13:31:48.672,0.645,1.675
13:31:48.676,0.655,1.705
13:31:48.680,0.655,1.73
13:31:48.684,0.67,1.72
13:31:48.688,0.735,1.75
13:31:48.692,0.76,1.775
13:31:48.696,0.755,1.785
13:31:48.700,0.78,1.81
13:31:48.704,0.825,1.84
13:31:48.708,0.81,1.865
13:31:48.712,0.78,1.885
13:31:48.716,0.73,1.855
13:31:48.720,0.695,1.87
13:31:48.724,0.695,1.855
13:31:48.728,0.7,1.85
13:31:48.732,0.71,1.845
13:31:48.736,0.665,1.815
13:31:48.740,0.56,1.755
13:31:48.744,0.42,1.705
13:31:48.748,0.365,1.65
13:31:48.752,0.35,1.61
13:31:48.756,0.37,1.54
13:31:48.760,0.345,1.465
13:31:48.764,0.335,1.405
13:31:48.768,0.3,1.345
13:31:48.772,0.25,1.28
13:31:48.776,0.225,1.22
13:31:48.780,0.21,1.115
13:31:48.784,0.185,1.06
13:31:48.788,0.155,1.01
13:31:48.792,0.135,0.915
13:31:48.796,0.12,0.865
13:31:48.800,0.11,0.825
13:31:48.804,0.11,0.77
13:31:48.808,0.09,0.72
13:31:48.812,0.105,0.68
13:31:48.816,0.125,0.615
13:31:48.820,0.195,0.615
13:31:48.824,0.21,0.61
13:31:48.828,0.105,0.555
13:31:48.832,-0.01,0.495
13:31:48.836,-0.03,0.47
13:31:48.840,0.075,0.46
13:31:48.844,0.24,0.415
13:31:48.848,0.29,0.465
13:31:48.852,0.2,0.545
13:31:48.856,-0.095,0.645
13:31:48.860,-0.66,0.665
13:31:48.864,-1.265,0.465
13:31:48.868,-1.7,0.03
13:31:48.872,-1.915,-0.495
13:31:48.876,-1.97,-1.31
13:31:48.880,-1.89,-2.255
13:31:48.884,-1.73,-3.14
13:31:48.888,-1.715,-3.865
13:31:48.892,-1.81,-4.33
13:31:48.896,-1.91,-4.6
13:31:48.900,-1.875,-4.73
13:31:48.904,-1.94,-4.785
13:31:48.908,-2.025,-4.76
13:31:48.912,-1.945,-4.7
13:31:48.916,-1.765,-4.625
13:31:48.920,-1.65,-4.52
13:31:48.924,-1.53,-4.465
13:31:48.928,-1.38,-4.39
13:31:48.932,-1.1,-4.22
13:31:48.936,-0.775,-3.895
13:31:48.940,-0.57,-3.52
13:31:48.944,-0.495,-3.125
13:31:48.948,-0.405,-2.575
13:31:48.952,-0.285,-2.03
13:31:48.956,-0.185,-1.56
13:31:48.960,-0.1,-1.115
13:31:48.964,0.0,-0.71
13:31:48.968,0.215,-0.39
13:31:48.972,0.345,-0.09
13:31:48.976,0.445,0.125
13:31:48.980,0.415,0.355
13:31:48.984,0.26,0.58
13:31:48.988,0.11,0.74
13:31:48.992,0.1,0.905
13:31:48.996,0.155,1.045
13:31:49.000,0.23,1.13
13:31:49.004,0.295,1.18
13:31:49.008,0.275,1.24
13:31:49.012,0.27,1.255
13:31:49.016,0.28,1.245
13:31:49.020,0.3,1.24
13:31:49.024,0.315,1.235
13:31:49.028,0.36,1.245
13:31:49.032,0.435,1.245
13:31:49.036,0.5,1.26
13:31:49.040,0.535,1.305
13:31:49.044,0.61,1.36
13:31:49.048,0.65,1.37
13:31:49.052,0.58,1.405
13:31:49.056,0.505,1.455
13:31:49.060,0.435,1.455
13:31:49.064,0.425,1.48
13:31:49.068,0.5,1.52
13:31:49.072,0.62,1.55
13:31:49.076,0.65,1.575
13:31:49.080,0.635,1.605
13:31:49.084,0.62,1.63
13:31:49.088,0.595,1.65
13:31:49.092,0.555,1.655
13:31:49.096,0.53,1.705
13:31:49.100,0.555,1.725
13:31:49.104,0.62,1.745
13:31:49.108,0.66,1.79
13:31:49.112,0.655,1.805
13:31:49.116,0.6,1.8
13:31:49.120,0.545,1.83
13:31:49.124,0.495,1.83
13:31:49.128,0.505,1.82
13:31:49.132,0.545,1.79
13:31:49.136,0.57,1.815
13:31:49.140,0.555,1.8
13:31:49.144,0.555,1.775
13:31:49.148,0.535,1.715
13:31:49.152,0.53,1.665
13:31:49.156,0.5,1.58
13:31:49.160,0.47,1.52
13:31:49.164,0.435,1.46
13:31:49.168,0.43,1.41
13:31:49.172,0.435,1.32
13:31:49.176,0.385,1.25
13:31:49.180,0.34,1.18
13:31:49.184,0.29,1.1
13:31:49.188,0.255,1.0
13:31:49.192,0.24,0.96
13:31:49.196,0.21,0.865
13:31:49.200,0.145,0.785
13:31:49.204,0.11,0.72
13:31:49.208,0.085,0.645
13:31:49.212,0.05,0.59
13:31:49.216,0.07,0.59
13:31:49.220,0.145,0.575
13:31:49.224,0.175,0.59
13:31:49.228,0.17,0.58
13:31:49.232,0.12,0.565
13:31:49.236,0.09,0.565
13:31:49.240,0.06,0.55
13:31:49.244,0.0,0.555
13:31:49.248,-0.165,0.535
13:31:49.252,-0.205,0.565
13:31:49.256,-0.2,0.57
13:31:49.260,-0.115,0.595
13:31:49.264,-0.07,0.6
13:31:49.268,-0.03,0.615
13:31:49.272,-0.005,0.61
13:31:49.276,0.015,0.595
13:31:49.280,0.015,0.585
13:31:49.284,0.075,0.58
13:31:49.288,0.16,0.58
13:31:49.292,0.185,0.56
13:31:49.296,0.155,0.54
13:31:49.300,0.07,0.54
13:31:49.304,0.01,0.535
13:31:49.308,-0.05,0.53
13:31:49.312,-0.04,0.57
13:31:49.316,0.02,0.595
13:31:49.320,0.02,0.605
13:31:49.324,-0.005,0.62
13:31:49.328,-0.02,0.625
13:31:49.332,-0.015,0.6
13:31:49.336,0.02,0.585
13:31:49.340,0.075,0.565
13:31:49.344,0.195,0.56
13:31:49.348,0.265,0.565
13:31:49.352,0.205,0.555
13:31:49.356,0.08,0.56
13:31:49.360,-0.03,0.535
13:31:49.364,-0.075,0.49
13:31:49.368,-0.1,0.5
13:31:49.372,-0.055,0.505
13:31:49.376,-0.02,0.495
13:31:49.380,0.035,0.46
13:31:49.384,0.065,0.43
13:31:49.388,0.005,0.375
13:31:49.392,-0.105,0.365
13:31:49.396,-0.165,0.37
13:31:49.400,-0.14,0.37
13:31:49.404,-0.07,0.38
13:31:49.408,-0.005,0.415
13:31:49.412,-0.02,0.455
13:31:49.416,-0.015,0.47
13:31:49.420,-0.005,0.475
13:31:49.424,0.015,0.48
13:31:49.428,0.01,0.45
13:31:49.432,0.0,0.435
13:31:49.436,0.04,0.445
13:31:49.440,0.06,0.485
13:31:49.444,0.08,0.485
13:31:49.448,0.085,0.48
13:31:49.452,0.155,0.49
13:31:49.456,0.13,0.49
13:31:49.460,0.06,0.48
13:31:49.464,0.005,0.445
13:31:49.468,-0.055,0.46
13:31:49.472,-0.025,0.425
13:31:49.476,0.055,0.41
13:31:49.480,0.1,0.435
13:31:49.484,0.115,0.47
13:31:49.488,0.06,0.47
13:31:49.492,-0.035,0.465
13:31:49.496,-0.09,0.47
13:31:49.500,-0.11,0.475
13:31:49.504,-0.05,0.48
13:31:49.508,-0.075,0.465
13:31:49.512,-0.05,0.47
13:31:49.516,0.0,0.465
13:31:49.520,0.0,0.45
13:31:49.524,-0.075,0.435
13:31:49.528,-0.16,0.445
13:31:49.532,-0.17,0.435
13:31:49.536,-0.15,0.435
13:31:49.540,-0.1,0.46
13:31:49.544,-0.07,0.455
13:31:49.548,-0.12,0.45
13:31:49.552,-0.16,0.415
13:31:49.556,-0.19,0.385
13:31:49.560,-0.19,0.33
13:31:49.564,-0.12,0.295
13:31:49.568,-0.11,0.255
13:31:49.572,-0.13,0.305
13:31:49.576,-0.1,0.34
13:31:49.580,0.02,0.34
13:31:49.584,0.105,0.33
13:31:49.588,0.085,0.305
13:31:49.592,0.02,0.305
13:31:49.596,-0.025,0.295
13:31:49.600,-0.105,0.285
13:31:49.604,-0.17,0.315
13:31:49.608,-0.18,0.33
13:31:49.612,-0.185,0.315
13:31:49.616,-0.115,0.35
13:31:49.620,0.005,0.355
13:31:49.624,0.15,0.355
13:31:49.628,0.23,0.355
13:31:49.632,0.18,0.39
13:31:49.636,0.035,0.455
13:31:49.640,-0.14,0.535
13:31:49.644,-0.435,0.565
13:31:49.648,-0.855,0.385
13:31:49.652,-1.205,-0.04
13:31:49.656,-1.48,-0.6
13:31:49.660,-1.665,-1.29
13:31:49.664,-1.74,-2.25
13:31:49.668,-1.71,-3.145
13:31:49.672,-1.645,-3.785
13:31:49.676,-1.63,-4.28
13:31:49.680,-1.7,-4.575
13:31:49.684,-1.65,-4.755
13:31:49.688,-1.575,-4.825
13:31:49.692,-1.55,-4.835
13:31:49.696,-1.57,-4.815
13:31:49.700,-1.6,-4.735
13:31:49.704,-1.56,-4.615
13:31:49.708,-1.46,-4.545
13:31:49.712,-1.42,-4.46
13:31:49.716,-1.4,-4.4
13:31:49.720,-1.26,-4.275
13:31:49.724,-1.07,-4.095
13:31:49.728,-0.9,-3.795
13:31:49.732,-0.88,-3.475
13:31:49.736,-0.975,-3.085
13:31:49.740,-1.04,-2.665
13:31:49.744,-0.945,-2.2
13:31:49.748,-0.74,-1.665
13:31:49.752,-0.475,-1.19
13:31:49.756,-0.255,-0.875
13:31:49.760,-0.085,-0.585
13:31:49.764,0.0,-0.32
