Time,ECG1,ECG2
13:32:30.220,-0.15,1.23
13:32:30.224,-0.095,1.165
13:32:30.228,-0.12,1.125
13:32:30.232,-0.255,1.07
13:32:30.236,-0.415,0.97
13:32:30.240,-0.48,0.865
13:32:30.244,-0.51,0.79
13:32:30.248,-0.525,0.74
13:32:30.252,-0.46,0.685
13:32:30.256,-0.365,0.6
13:32:30.260,-0.35,0.55
13:32:30.264,-0.51,0.535
13:32:30.268,-0.63,0.495
13:32:30.272,-0.705,0.47
13:32:30.276,-0.64,0.42
13:32:30.280,-0.53,0.41
13:32:30.284,-0.52,0.445
13:32:30.288,-0.595,0.455
13:32:30.292,-0.635,0.415
13:32:30.296,-0.68,0.425
13:32:30.300,-0.715,0.415
13:32:30.304,-0.675,0.445
13:32:30.308,-0.605,0.41
13:32:30.312,-0.5,0.425
13:32:30.316,-0.44,0.38
13:32:30.320,-0.395,0.395
13:32:30.324,-0.415,0.385
13:32:30.328,-0.445,0.37
13:32:30.332,-0.435,0.315
13:32:30.336,-0.325,0.325
13:32:30.340,-0.265,0.32
13:32:30.344,-0.26,0.3
13:32:30.348,-0.365,0.3
13:32:30.352,-0.525,0.29
13:32:30.356,-0.635,0.29
13:32:30.360,-0.645,0.285
13:32:30.364,-0.645,0.33
13:32:30.368,-0.66,0.395
13:32:30.372,-0.62,0.395
13:32:30.376,-0.535,0.425
13:32:30.380,-0.465,0.445
13:32:30.384,-0.415,0.435
13:32:30.388,-0.425,0.425
13:32:30.392,-0.405,0.415
13:32:30.396,-0.37,0.44
13:32:30.400,-0.32,0.415
13:32:30.404,-0.24,0.415
13:32:30.408,-0.315,0.405
13:32:30.412,-0.58,0.42
13:32:30.416,-0.73,0.445
13:32:30.420,-0.75,0.46
13:32:30.424,-0.64,0.445
13:32:30.428,-0.45,0.415
13:32:30.432,-0.29,0.415
13:32:30.436,-0.33,0.375
13:32:30.440,-0.555,0.345
13:32:30.444,-0.775,0.345
13:32:30.448,-0.88,0.31
13:32:30.452,-0.83,0.33
13:32:30.456,-0.8,0.34
13:32:30.460,-0.8,0.37
13:32:30.464,-0.82,0.34
13:32:30.468,-0.815,0.305
13:32:30.472,-0.78,0.305
13:32:30.476,-0.75,0.32
13:32:30.480,-0.695,0.33
13:32:30.484,-0.67,0.295
13:32:30.488,-0.7,0.3
13:32:30.492,-0.725,0.27
13:32:30.496,-0.71,0.245
13:32:30.500,-0.665,0.22
13:32:30.504,-0.645,0.205
13:32:30.508,-0.62,0.145
13:32:30.512,-0.545,0.085
13:32:30.516,-0.5,0.065
13:32:30.520,-0.59,0.04
13:32:30.524,-0.78,0.065
13:32:30.528,-0.85,0.055
13:32:30.532,-0.77,0.07
13:32:30.536,-0.605,0.11
13:32:30.540,-0.59,0.16
13:32:30.544,-0.63,0.195
13:32:30.548,-0.69,0.27
13:32:30.552,-0.765,0.285
13:32:30.556,-0.75,0.295
13:32:30.560,-0.655,0.305
13:32:30.564,-0.49,0.31
13:32:30.568,-0.39,0.32
13:32:30.572,-0.375,0.31
13:32:30.576,-0.47,0.32
13:32:30.580,-0.65,0.325
13:32:30.584,-0.755,0.315
13:32:30.588,-0.77,0.32
13:32:30.592,-0.61,0.335
13:32:30.596,-0.48,0.34
13:32:30.600,-0.445,0.335
13:32:30.604,-0.55,0.345
13:32:30.608,-0.56,0.315
13:32:30.612,-0.595,0.24
13:32:30.616,-0.74,0.24
13:32:30.620,-0.84,0.28
13:32:30.624,-0.795,0.28
13:32:30.628,-0.675,0.285
13:32:30.632,-0.555,0.305
13:32:30.636,-0.465,0.29
13:32:30.640,-0.52,0.255
13:32:30.644,-0.66,0.24
13:32:30.648,-0.7,0.23
13:32:30.652,-0.78,0.185
13:32:30.656,-0.85,0.17
13:32:30.660,-0.82,0.23
13:32:30.664,-0.735,0.31
13:32:30.668,-0.675,0.335
13:32:30.672,-0.655,0.335
13:32:30.676,-0.715,0.315
13:32:30.680,-0.84,0.28
13:32:30.684,-0.9,0.25
13:32:30.688,-0.8,0.24
13:32:30.692,-0.58,0.27
13:32:30.696,-0.475,0.275
13:32:30.700,-0.44,0.27
13:32:30.704,-0.41,0.28
13:32:30.708,-0.455,0.34
13:32:30.712,-0.54,0.385
13:32:30.716,-0.82,0.475
13:32:30.720,-1.32,0.245
13:32:30.724,-1.885,-0.205
13:32:30.728,-2.3,-0.8
13:32:30.732,-2.54,-1.675
13:32:30.736,-2.57,-2.67
13:32:30.740,-2.43,-3.505
13:32:30.744,-2.335,-4.06
13:32:30.748,-2.385,-4.455
13:32:30.752,-2.465,-4.68
13:32:30.756,-2.49,-4.795
13:32:30.760,-2.485,-4.855
13:32:30.764,-2.43,-4.855
13:32:30.768,-2.465,-4.84
13:32:30.772,-2.57,-4.79
13:32:30.776,-2.54,-4.735
13:32:30.780,-2.415,-4.685
13:32:30.784,-2.315,-4.66
13:32:30.788,-2.22,-4.595
13:32:30.792,-2.075,-4.475
13:32:30.796,-1.89,-4.25
13:32:30.800,-1.765,-3.995
13:32:30.804,-1.67,-3.665
13:32:30.808,-1.575,-3.315
13:32:30.812,-1.455,-2.88
13:32:30.816,-1.27,-2.37
13:32:30.820,-1.065,-1.87
13:32:30.824,-0.79,-1.36
13:32:30.828,-0.51,-0.98
13:32:30.832,-0.435,-0.7
13:32:30.836,-0.47,-0.405
13:32:30.840,-0.515,-0.115
13:32:30.844,-0.59,0.16
13:32:30.848,-0.59,0.39
13:32:30.852,-0.5,0.565
13:32:30.856,-0.425,0.74
13:32:30.860,-0.385,0.92
13:32:30.864,-0.38,1.01
13:32:30.868,-0.325,1.04
13:32:30.872,-0.3,1.07
13:32:30.876,-0.225,1.08
13:32:30.880,-0.125,1.11
13:32:30.884,-0.025,1.18
13:32:30.888,-0.01,1.19
13:32:30.892,-0.095,1.2
13:32:30.896,-0.105,1.205
13:32:30.900,-0.02,1.28
13:32:30.904,0.04,1.3
13:32:30.908,0.085,1.33
13:32:30.912,0.13,1.38
13:32:30.916,0.125,1.44
13:32:30.920,0.17,1.465
13:32:30.924,0.17,1.47
13:32:30.928,0.2,1.515
13:32:30.932,0.18,1.57
13:32:30.936,0.17,1.605
13:32:30.940,0.175,1.65
13:32:30.944,0.19,1.65
13:32:30.948,0.055,1.675
13:32:30.952,-0.01,1.72
13:32:30.956,0.0,1.755
13:32:30.960,0.035,1.76
13:32:30.964,0.04,1.74
13:32:30.968,0.09,1.755
13:32:30.972,0.125,1.765
13:32:30.976,0.115,1.81
13:32:30.980,0.105,1.76
13:32:30.984,0.115,1.77
13:32:30.988,0.13,1.775
13:32:30.992,0.145,1.815
13:32:30.996,0.125,1.805
13:32:31.000,0.105,1.82
13:32:31.004,0.115,1.815
13:32:31.008,0.045,1.785
13:32:31.012,-0.06,1.76
13:32:31.016,-0.075,1.725
13:32:31.020,-0.055,1.705
13:32:31.024,-0.03,1.675
13:32:31.028,-0.085,1.62
13:32:31.032,-0.145,1.565
13:32:31.036,-0.23,1.495
13:32:31.040,-0.32,1.45
13:32:31.044,-0.47,1.355
13:32:31.048,-0.565,1.265
13:32:31.052,-0.57,1.195
13:32:31.056,-0.505,1.145
13:32:31.060,-0.395,1.045
13:32:31.064,-0.365,0.975
13:32:31.068,-0.495,0.87
13:32:31.072,-0.615,0.805
13:32:31.076,-0.68,0.77
13:32:31.080,-0.78,0.725
13:32:31.084,-0.79,0.695
13:32:31.088,-0.74,0.675
13:32:31.092,-0.73,0.64
13:32:31.096,-0.725,0.6
13:32:31.100,-0.745,0.57
13:32:31.104,-0.73,0.535
13:32:31.108,-0.725,0.515
13:32:31.112,-0.71,0.48
13:32:31.116,-0.69,0.48
13:32:31.120,-0.7,0.46
13:32:31.124,-0.78,0.435
13:32:31.128,-0.73,0.405
13:32:31.132,-0.765,0.395
13:32:31.136,-0.835,0.44
13:32:31.140,-0.88,0.44
13:32:31.144,-0.825,0.365
13:32:31.148,-0.84,0.33
13:32:31.152,-0.885,0.345
13:32:31.156,-0.835,0.345
13:32:31.160,-0.66,0.33
13:32:31.164,-0.37,0.315
13:32:31.168,-0.02,0.34
13:32:31.172,0.185,0.34
13:32:31.176,0.215,0.39
13:32:31.180,0.19,0.505
13:32:31.184,0.07,0.7
13:32:31.188,-0.165,0.79
13:32:31.192,-0.375,0.665
13:32:31.196,-0.46,0.485
13:32:31.200,-0.395,0.22
13:32:31.204,-0.13,-0.345
13:32:31.208,0.185,-0.985
13:32:31.212,0.425,-1.61
13:32:31.216,0.63,-2.205
13:32:31.220,0.72,-2.56
13:32:31.224,0.29,-2.74
13:32:31.228,-0.4,-2.715
13:32:31.232,-0.81,-2.425
13:32:31.236,-0.92,-1.845
13:32:31.240,-0.84,-1.21
13:32:31.244,-0.705,-0.74
13:32:31.248,-0.745,-0.38
13:32:31.252,-0.875,-0.12
13:32:31.256,-0.965,0.005
13:32:31.260,-0.985,0.075
13:32:31.264,-1.035,0.125
13:32:31.268,-1.055,0.175
13:32:31.272,-1.06,0.185
13:32:31.276,-1.035,0.175
13:32:31.280,-0.99,0.195
13:32:31.284,-0.95,0.245
13:32:31.288,-0.925,0.235
13:32:31.292,-0.895,0.24
13:32:31.296,-0.92,0.235
13:32:31.300,-1.065,0.22
13:32:31.304,-1.185,0.235
13:32:31.308,-1.24,0.265
13:32:31.312,-1.22,0.27
13:32:31.316,-1.22,0.285
13:32:31.320,-1.135,0.265
13:32:31.324,-1.055,0.275
13:32:31.328,-1.02,0.245
13:32:31.332,-1.025,0.225
13:32:31.336,-1.13,0.205
13:32:31.340,-1.305,0.225
13:32:31.344,-1.27,0.21
13:32:31.348,-1.17,0.185
13:32:31.352,-1.185,0.185
13:32:31.356,-1.34,0.135
13:32:31.360,-1.525,0.075
13:32:31.364,-1.665,0.055
13:32:31.368,-1.615,0.11
13:32:31.372,-1.535,0.155
13:32:31.376,-1.505,0.175
13:32:31.380,-1.505,0.205
13:32:31.384,-1.52,0.205
13:32:31.388,-1.56,0.19
13:32:31.392,-1.58,0.155
13:32:31.396,-1.59,0.165
13:32:31.400,-1.57,0.165
13:32:31.404,-1.525,0.165
13:32:31.408,-1.495,0.145
13:32:31.412,-1.545,0.105
13:32:31.416,-1.54,0.11
13:32:31.420,-1.42,0.15
13:32:31.424,-1.3,0.2
13:32:31.428,-1.42,0.25
13:32:31.432,-1.66,0.295
13:32:31.436,-1.715,0.27
13:32:31.440,-1.655,0.3
13:32:31.444,-1.53,0.36
13:32:31.448,-1.41,0.42
13:32:31.452,-1.325,0.45
13:32:31.456,-1.245,0.43
13:32:31.460,-1.2,0.43
13:32:31.464,-1.17,0.42
13:32:31.468,-1.145,0.41
13:32:31.472,-1.135,0.45
13:32:31.476,-1.135,0.465
13:32:31.480,-1.1,0.46
13:32:31.484,-1.09,0.415
13:32:31.488,-1.075,0.34
13:32:31.492,-1.05,0.29
13:32:31.496,-0.99,0.265
13:32:31.500,-0.93,0.265
13:32:31.504,-0.915,0.25
13:32:31.508,-0.87,0.21
13:32:31.512,-0.86,0.17
13:32:31.516,-1.025,0.195
13:32:31.520,-1.185,0.255
13:32:31.524,-1.2,0.23
13:32:31.528,-1.145,0.25
13:32:31.532,-1.095,0.235
13:32:31.536,-1.015,0.235
13:32:31.540,-1.035,0.27
13:32:31.544,-1.035,0.25
13:32:31.548,-0.975,0.255
13:32:31.552,-0.945,0.225
13:32:31.556,-1.0,0.2
13:32:31.560,-1.095,0.225
13:32:31.564,-1.105,0.245
13:32:31.568,-1.075,0.25
13:32:31.572,-0.955,0.22
13:32:31.576,-0.755,0.195
13:32:31.580,-0.71,0.21
13:32:31.584,-0.815,0.215
13:32:31.588,-0.915,0.24
13:32:31.592,-0.885,0.25
13:32:31.596,-0.815,0.27
13:32:31.600,-0.78,0.3
13:32:31.604,-0.805,0.31
13:32:31.608,-0.955,0.305
13:32:31.612,-1.08,0.275
13:32:31.616,-1.02,0.305
13:32:31.620,-0.925,0.325
13:32:31.624,-0.865,0.355
13:32:31.628,-0.845,0.37
13:32:31.632,-0.835,0.365
13:32:31.636,-0.785,0.365
13:32:31.640,-0.725,0.4
13:32:31.644,-0.66,0.395
13:32:31.648,-0.745,0.355
13:32:31.652,-0.92,0.305
13:32:31.656,-0.815,0.285
13:32:31.660,-0.62,0.25
13:32:31.664,-0.83,0.215
13:32:31.668,-1.15,0.215
13:32:31.672,-1.25,0.215
13:32:31.676,-1.195,0.17
13:32:31.680,-1.095,0.195
13:32:31.684,-1.09,0.245
13:32:31.688,-1.06,0.245
13:32:31.692,-0.95,0.225
13:32:31.696,-0.795,0.205
13:32:31.700,-0.59,0.235
13:32:31.704,-0.485,0.255
13:32:31.708,-0.605,0.305
13:32:31.712,-0.815,0.38
13:32:31.716,-1.08,0.475
13:32:31.720,-1.475,0.315
13:32:31.724,-1.955,-0.105
13:32:31.728,-2.4,-0.685
13:32:31.732,-2.795,-1.49
13:32:31.736,-2.98,-2.44
13:32:31.740,-2.925,-3.29
13:32:31.744,-2.73,-3.94
13:32:31.748,-2.615,-4.33
13:32:31.752,-2.745,-4.59
13:32:31.756,-2.89,-4.7
13:32:31.760,-2.8,-4.785
13:32:31.764,-2.69,-4.785
13:32:31.768,-2.64,-4.755
13:32:31.772,-2.57,-4.69
13:32:31.776,-2.555,-4.625
13:32:31.780,-2.56,-4.58
13:32:31.784,-2.42,-4.51
13:32:31.788,-2.2,-4.435
13:32:31.792,-1.95,-4.24
13:32:31.796,-1.69,-4.01
13:32:31.800,-1.565,-3.69
13:32:31.804,-1.655,-3.295
13:32:31.808,-1.715,-2.855
13:32:31.812,-1.585,-2.325
13:32:31.816,-1.28,-1.77
13:32:31.820,-1.02,-1.205
13:32:31.824,-0.825,-0.745
13:32:31.828,-0.66,-0.41
13:32:31.832,-0.535,-0.135
13:32:31.836,-0.51,0.12
13:32:31.840,-0.515,0.325
13:32:31.844,-0.48,0.555
13:32:31.848,-0.43,0.76
13:32:31.852,-0.385,0.905
13:32:31.856,-0.345,1.03
13:32:31.860,-0.3,1.095
13:32:31.864,-0.27,1.145
13:32:31.868,-0.265,1.18
13:32:31.872,-0.24,1.2
13:32:31.876,-0.21,1.245
13:32:31.880,-0.185,1.255
13:32:31.884,-0.16,1.275
13:32:31.888,-0.11,1.33
13:32:31.892,-0.075,1.35
13:32:31.896,-0.06,1.4
13:32:31.900,-0.045,1.44
13:32:31.904,-0.05,1.445
13:32:31.908,-0.045,1.475
13:32:31.912,0.025,1.51
13:32:31.916,0.07,1.515
13:32:31.920,0.11,1.535
13:32:31.924,0.135,1.575
13:32:31.928,0.115,1.605
13:32:31.932,0.17,1.635
13:32:31.936,0.24,1.715
13:32:31.940,0.355,1.76
13:32:31.944,0.38,1.825
13:32:31.948,0.285,1.865
13:32:31.952,0.185,1.89
13:32:31.956,0.175,1.89
13:32:31.960,0.2,1.925
13:32:31.964,0.215,1.93
13:32:31.968,0.26,1.98
13:32:31.972,0.23,2.0
13:32:31.976,0.185,2.015
13:32:31.980,0.15,2.005
13:32:31.984,0.135,2.01
13:32:31.988,0.115,2.01
13:32:31.992,0.125,1.955
13:32:31.996,0.115,1.945
13:32:32.000,0.11,1.905
13:32:32.004,0.05,1.865
13:32:32.008,-0.005,1.875
13:32:32.012,-0.04,1.805
13:32:32.016,-0.065,1.77
13:32:32.020,-0.07,1.735
13:32:32.024,-0.045,1.675
13:32:32.028,-0.015,1.57
13:32:32.032,-0.1,1.515
13:32:32.036,-0.3,1.43
13:32:32.040,-0.485,1.33
13:32:32.044,-0.565,1.26
13:32:32.048,-0.525,1.13
13:32:32.052,-0.48,1.05
13:32:32.056,-0.435,0.975
13:32:32.060,-0.395,0.885
13:32:32.064,-0.455,0.795
13:32:32.068,-0.615,0.77
13:32:32.072,-0.715,0.69
13:32:32.076,-0.79,0.595
13:32:32.080,-0.8,0.52
13:32:32.084,-0.78,0.48
13:32:32.088,-0.745,0.47
13:32:32.092,-0.7,0.435
13:32:32.096,-0.69,0.36
13:32:32.100,-0.675,0.345
13:32:32.104,-0.67,0.33
13:32:32.108,-0.675,0.385
13:32:32.112,-0.69,0.395
13:32:32.116,-0.69,0.415
13:32:32.120,-0.685,0.395
13:32:32.124,-0.675,0.395
13:32:32.128,-0.675,0.405
13:32:32.132,-0.69,0.38
13:32:32.136,-0.69,0.38
13:32:32.140,-0.675,0.38
13:32:32.144,-0.7,0.385
13:32:32.148,-0.7,0.375
13:32:32.152,-0.68,0.35
13:32:32.156,-0.71,0.35
13:32:32.160,-0.73,0.335
13:32:32.164,-0.735,0.36
13:32:32.168,-0.72,0.375
13:32:32.172,-0.72,0.355
13:32:32.176,-0.74,0.34
13:32:32.180,-0.73,0.335
13:32:32.184,-0.71,0.345
13:32:32.188,-0.735,0.365
13:32:32.192,-0.715,0.385
13:32:32.196,-0.725,0.38
13:32:32.200,-0.71,0.37
13:32:32.204,-0.685,0.365
13:32:32.208,-0.665,0.395
13:32:32.212,-0.625,0.42
13:32:32.216,-0.62,0.42
13:32:32.220,-0.63,0.405
13:32:32.224,-0.645,0.39
13:32:32.228,-0.63,0.38
13:32:32.232,-0.605,0.37
13:32:32.236,-0.6,0.355
13:32:32.240,-0.6,0.31
13:32:32.244,-0.56,0.33
13:32:32.248,-0.525,0.31
13:32:32.252,-0.55,0.285
13:32:32.256,-0.55,0.29
13:32:32.260,-0.58,0.3
13:32:32.264,-0.585,0.285
13:32:32.268,-0.565,0.32
13:32:32.272,-0.57,0.345
13:32:32.276,-0.55,0.315
13:32:32.280,-0.545,0.3
13:32:32.284,-0.525,0.345
13:32:32.288,-0.52,0.34
13:32:32.292,-0.57,0.34
13:32:32.296,-0.56,0.34
13:32:32.300,-0.56,0.295
13:32:32.304,-0.535,0.29
13:32:32.308,-0.53,0.29
13:32:32.312,-0.555,0.285
13:32:32.316,-0.59,0.295
13:32:32.320,-0.63,0.27
13:32:32.324,-0.65,0.245
13:32:32.328,-0.65,0.3
13:32:32.332,-0.63,0.31
13:32:32.336,-0.65,0.265
13:32:32.340,-0.63,0.255
13:32:32.344,-0.595,0.24
13:32:32.348,-0.665,0.25
13:32:32.352,-0.69,0.22
13:32:32.356,-0.655,0.205
13:32:32.360,-0.64,0.205
13:32:32.364,-0.65,0.22
13:32:32.368,-0.635,0.215
13:32:32.372,-0.625,0.205
13:32:32.376,-0.61,0.225
13:32:32.380,-0.575,0.225
13:32:32.384,-0.59,0.185
13:32:32.388,-0.59,0.18
13:32:32.392,-0.58,0.175
13:32:32.396,-0.585,0.2
13:32:32.400,-0.59,0.245
13:32:32.404,-0.6,0.225
13:32:32.408,-0.585,0.2
13:32:32.412,-0.59,0.19
13:32:32.416,-0.58,0.19
13:32:32.420,-0.57,0.195
13:32:32.424,-0.52,0.17
13:32:32.428,-0.52,0.18
13:32:32.432,-0.52,0.18
13:32:32.436,-0.5,0.185
13:32:32.440,-0.485,0.21
13:32:32.444,-0.425,0.225
13:32:32.448,-0.395,0.225
13:32:32.452,-0.4,0.245
13:32:32.456,-0.41,0.305
13:32:32.460,-0.37,0.28
13:32:32.464,-0.29,0.24
13:32:32.468,-0.16,0.215
13:32:32.472,-0.04,0.205
13:32:32.476,-0.12,0.21
13:32:32.480,-0.31,0.27
13:32:32.484,-0.57,0.32
13:32:32.488,-0.995,0.195
13:32:32.492,-1.455,-0.19
13:32:32.496,-1.835,-0.74
13:32:32.500,-2.07,-1.515
13:32:32.504,-2.145,-2.51
13:32:32.508,-1.975,-3.395
13:32:32.512,-1.865,-3.975
13:32:32.516,-1.91,-4.38
13:32:32.520,-2.0,-4.62
13:32:32.524,-2.025,-4.735
13:32:32.528,-1.965,-4.77
13:32:32.532,-1.93,-4.765
13:32:32.536,-1.905,-4.715
13:32:32.540,-1.835,-4.68
13:32:32.544,-1.755,-4.63
13:32:32.548,-1.745,-4.57
13:32:32.552,-1.775,-4.53
13:32:32.556,-1.71,-4.45
13:32:32.560,-1.55,-4.33
13:32:32.564,-1.41,-4.095
13:32:32.568,-1.305,-3.785
13:32:32.572,-1.2,-3.42
13:32:32.576,-1.105,-2.985
13:32:32.580,-1.01,-2.51
13:32:32.584,-0.86,-1.96
13:32:32.588,-0.715,-1.425
13:32:32.592,-0.535,-1.005
13:32:32.596,-0.36,-0.685
13:32:32.600,-0.24,-0.395
13:32:32.604,-0.17,-0.11
13:32:32.608,-0.13,0.17
13:32:32.612,-0.145,0.37
13:32:32.616,-0.12,0.585
13:32:32.620,-0.1,0.76
13:32:32.624,-0.07,0.94
13:32:32.628,-0.045,1.03
13:32:32.632,-0.02,1.09
13:32:32.636,0.01,1.115
13:32:32.640,0.06,1.15
13:32:32.644,0.115,1.2
13:32:32.648,0.125,1.225
13:32:32.652,0.15,1.225
13:32:32.656,0.195,1.275
13:32:32.660,0.205,1.295
13:32:32.664,0.235,1.295
13:32:32.668,0.27,1.305
13:32:32.672,0.265,1.31
13:32:32.676,0.27,1.31
13:32:32.680,0.285,1.37
13:32:32.684,0.325,1.395
13:32:32.688,0.36,1.415
13:32:32.692,0.365,1.44
13:32:32.696,0.395,1.485
13:32:32.700,0.43,1.525
13:32:32.704,0.445,1.58
13:32:32.708,0.48,1.605
13:32:32.712,0.47,1.63
13:32:32.716,0.495,1.67
13:32:32.720,0.505,1.71
13:32:32.724,0.51,1.725
13:32:32.728,0.54,1.74
13:32:32.732,0.57,1.795
13:32:32.736,0.57,1.78
13:32:32.740,0.595,1.795
13:32:32.744,0.625,1.82
13:32:32.748,0.63,1.86
13:32:32.752,0.63,1.89
13:32:32.756,0.595,1.92
13:32:32.760,0.56,1.895
13:32:32.764,0.505,1.9
13:32:32.768,0.46,1.92
13:32:32.772,0.425,1.89
13:32:32.776,0.4,1.84
13:32:32.780,0.375,1.755
13:32:32.784,0.32,1.71
13:32:32.788,0.255,1.69
13:32:32.792,0.21,1.665
13:32:32.796,0.17,1.605
13:32:32.800,0.15,1.52
13:32:32.804,0.085,1.46
13:32:32.808,0.04,1.355
13:32:32.812,0.015,1.295
13:32:32.816,0.01,1.255
13:32:32.820,-0.02,1.205
13:32:32.824,-0.02,1.11
13:32:32.828,-0.055,1.04
13:32:32.832,-0.065,0.95
13:32:32.836,-0.09,0.85
13:32:32.840,-0.12,0.785
13:32:32.844,-0.14,0.68
13:32:32.848,-0.14,0.62
13:32:32.852,-0.115,0.55
13:32:32.856,-0.115,0.445
13:32:32.860,-0.165,0.375
13:32:32.864,-0.2,0.325
13:32:32.868,-0.19,0.29
13:32:32.872,-0.22,0.255
13:32:32.876,-0.3,0.28
13:32:32.880,-0.32,0.3
13:32:32.884,-0.36,0.265
13:32:32.888,-0.305,0.28
13:32:32.892,-0.295,0.285
13:32:32.896,-0.29,0.285
13:32:32.900,-0.28,0.265
13:32:32.904,-0.295,0.25
13:32:32.908,-0.35,0.255
13:32:32.912,-0.325,0.27
13:32:32.916,-0.28,0.27
13:32:32.920,-0.285,0.3
13:32:32.924,-0.27,0.295
13:32:32.928,-0.255,0.305
13:32:32.932,-0.26,0.32
13:32:32.936,-0.26,0.34
13:32:32.940,-0.25,0.35
13:32:32.944,-0.225,0.355
13:32:32.948,-0.23,0.34
13:32:32.952,-0.225,0.34
13:32:32.956,-0.24,0.37
13:32:32.960,-0.21,0.37
13:32:32.964,-0.2,0.43
13:32:32.968,-0.18,0.395
13:32:32.972,-0.185,0.415
13:32:32.976,-0.21,0.41
13:32:32.980,-0.235,0.44
13:32:32.984,-0.24,0.48
13:32:32.988,-0.255,0.48
13:32:32.992,-0.225,0.475
13:32:32.996,-0.235,0.46
13:32:33.000,-0.215,0.48
13:32:33.004,-0.205,0.47
13:32:33.008,-0.18,0.46
13:32:33.012,-0.21,0.405
13:32:33.016,-0.205,0.35
13:32:33.020,-0.24,0.375
13:32:33.024,-0.235,0.38
13:32:33.028,-0.235,0.36
13:32:33.032,-0.25,0.36
13:32:33.036,-0.205,0.305
13:32:33.040,-0.24,0.26
13:32:33.044,-0.23,0.285
13:32:33.048,-0.23,0.295
13:32:33.052,-0.235,0.26
13:32:33.056,-0.255,0.27
13:32:33.060,-0.23,0.255
13:32:33.064,-0.275,0.255
13:32:33.068,-0.26,0.275
13:32:33.072,-0.265,0.29
13:32:33.076,-0.265,0.285
13:32:33.080,-0.27,0.265
13:32:33.084,-0.275,0.275
13:32:33.088,-0.255,0.25
13:32:33.092,-0.235,0.25
13:32:33.096,-0.2,0.245
13:32:33.100,-0.21,0.255
13:32:33.104,-0.285,0.25
13:32:33.108,-0.305,0.24
13:32:33.112,-0.32,0.255
13:32:33.116,-0.28,0.28
13:32:33.120,-0.25,0.29
13:32:33.124,-0.245,0.265
13:32:33.128,-0.355,0.26
13:32:33.132,-0.375,0.25
13:32:33.136,-0.36,0.23
13:32:33.140,-0.31,0.225
13:32:33.144,-0.29,0.275
13:32:33.148,-0.29,0.285
13:32:33.152,-0.265,0.28
13:32:33.156,-0.26,0.26
13:32:33.160,-0.225,0.23
13:32:33.164,-0.185,0.22
13:32:33.168,-0.15,0.225
13:32:33.172,-0.13,0.195
13:32:33.176,-0.1,0.19
13:32:33.180,-0.095,0.255
13:32:33.184,-0.05,0.29
13:32:33.188,-0.05,0.31
13:32:33.192,-0.05,0.26
13:32:33.196,-0.095,0.225
13:32:33.200,-0.11,0.165
13:32:33.204,-0.07,0.1
13:32:33.208,-0.07,0.07
13:32:33.212,-0.055,0.095
13:32:33.216,-0.145,0.165
13:32:33.220,-0.3,0.29
13:32:33.224,-0.615,0.38
13:32:33.228,-1.06,0.12
13:32:33.232,-1.475,-0.375
13:32:33.236,-1.785,-0.995
13:32:33.240,-1.975,-1.895
13:32:33.244,-2.015,-2.865
13:32:33.248,-1.88,-3.645
13:32:33.252,-1.74,-4.15
13:32:33.256,-1.745,-4.48
13:32:33.260,-1.835,-4.705
13:32:33.264,-1.875,-4.81
13:32:33.268,-1.85,-4.83
13:32:33.272,-1.855,-4.86
13:32:33.276,-1.8,-4.84
13:32:33.280,-1.655,-4.805
13:32:33.284,-1.62,-4.74
13:32:33.288,-1.69,-4.73
13:32:33.292,-1.725,-4.705
13:32:33.296,-1.67,-4.66
13:32:33.300,-1.57,-4.52
13:32:33.304,-1.455,-4.29
13:32:33.308,-1.305,-3.985
13:32:33.312,-1.14,-3.635
13:32:33.316,-1.0,-3.23
13:32:33.320,-0.915,-2.725
13:32:33.324,-0.73,-2.185
13:32:33.328,-0.53,-1.635
13:32:33.332,-0.33,-1.185
13:32:33.336,-0.125,-0.805
13:32:33.340,0.045,-0.51
13:32:33.344,0.12,-0.265
13:32:33.348,0.215,-0.04
13:32:33.352,0.29,0.18
13:32:33.356,0.29,0.385
13:32:33.360,0.33,0.58
13:32:33.364,0.37,0.73
13:32:33.368,0.355,0.875
13:32:33.372,0.29,0.965
13:32:33.376,0.285,0.995
13:32:33.380,0.275,1.055
13:32:33.384,0.275,1.09
13:32:33.388,0.3,1.1
13:32:33.392,0.35,1.09
13:32:33.396,0.36,1.12
13:32:33.400,0.355,1.13
13:32:33.404,0.385,1.165
13:32:33.408,0.425,1.19
13:32:33.412,0.425,1.21
13:32:33.416,0.44,1.265
13:32:33.420,0.44,1.265
13:32:33.424,0.435,1.305
13:32:33.428,0.45,1.325
13:32:33.432,0.505,1.395
13:32:33.436,0.575,1.41
13:32:33.440,0.665,1.45
13:32:33.444,0.685,1.485
13:32:33.448,0.64,1.495
13:32:33.452,0.595,1.58
13:32:33.456,0.615,1.615
13:32:33.460,0.65,1.645
13:32:33.464,0.675,1.685
13:32:33.468,0.68,1.715
13:32:33.472,0.715,1.73
13:32:33.476,0.755,1.755
13:32:33.480,0.76,1.79
13:32:33.484,0.775,1.81
13:32:33.488,0.765,1.82
13:32:33.492,0.765,1.86
13:32:33.496,0.77,1.88
13:32:33.500,0.83,1.865
13:32:33.504,0.85,1.875
13:32:33.508,0.825,1.84
13:32:33.512,0.73,1.815
13:32:33.516,0.615,1.77
13:32:33.520,0.54,1.655
13:32:33.524,0.51,1.635
13:32:33.528,0.525,1.58
13:32:33.532,0.51,1.52
13:32:33.536,0.46,1.49
13:32:33.540,0.405,1.43
13:32:33.544,0.295,1.375
13:32:33.548,0.22,1.325
13:32:33.552,0.14,1.3
13:32:33.556,0.13,1.235
13:32:33.560,0.135,1.19
13:32:33.564,0.17,1.12
13:32:33.568,0.16,1.04
13:32:33.572,0.14,0.94
13:32:33.576,0.05,0.87
13:32:33.580,0.015,0.775
13:32:33.584,-0.045,0.725
13:32:33.588,-0.1,0.72
13:32:33.592,-0.145,0.67
13:32:33.596,-0.135,0.62
13:32:33.600,-0.07,0.57
13:32:33.604,-0.1,0.515
13:32:33.608,-0.18,0.485
13:32:33.612,-0.255,0.455
13:32:33.616,-0.21,0.425
13:32:33.620,-0.105,0.4
13:32:33.624,-0.075,0.4
13:32:33.628,-0.12,0.39
13:32:33.632,-0.24,0.345
13:32:33.636,-0.3,0.355
13:32:33.640,-0.28,0.37
13:32:33.644,-0.21,0.365
13:32:33.648,-0.135,0.34
13:32:33.652,-0.075,0.37
13:32:33.656,-0.055,0.375
13:32:33.660,-0.055,0.39
13:32:33.664,0.045,0.375
13:32:33.668,0.16,0.38
13:32:33.672,0.09,0.39
13:32:33.676,-0.135,0.37
13:32:33.680,-0.235,0.355
13:32:33.684,-0.22,0.35
13:32:33.688,-0.15,0.38
13:32:33.692,-0.115,0.41
13:32:33.696,-0.1,0.43
13:32:33.700,-0.115,0.435
13:32:33.704,-0.065,0.405
13:32:33.708,0.09,0.4
13:32:33.712,0.185,0.355
13:32:33.716,0.11,0.35
13:32:33.720,-0.01,0.37
13:32:33.724,0.005,0.38
13:32:33.728,0.045,0.365
13:32:33.732,0.07,0.35
13:32:33.736,0.01,0.33
13:32:33.740,-0.05,0.29
13:32:33.744,-0.1,0.25
13:32:33.748,-0.175,0.21
13:32:33.752,-0.2,0.23
13:32:33.756,-0.145,0.25
13:32:33.760,-0.13,0.245
13:32:33.764,-0.17,0.255
13:32:33.768,-0.155,0.26
13:32:33.772,-0.06,0.255
13:32:33.776,-0.01,0.225
13:32:33.780,-0.045,0.19
13:32:33.784,-0.14,0.185
13:32:33.788,-0.23,0.145
13:32:33.792,-0.295,0.14
13:32:33.796,-0.3,0.165
13:32:33.800,-0.18,0.21
13:32:33.804,-0.05,0.22
13:32:33.808,-0.025,0.2
13:32:33.812,-0.145,0.18
13:32:33.816,-0.24,0.195
13:32:33.820,-0.265,0.215
13:32:33.824,-0.18,0.2
13:32:33.828,-0.1,0.195
13:32:33.832,-0.065,0.2
13:32:33.836,-0.05,0.21
13:32:33.840,-0.06,0.16
13:32:33.844,-0.08,0.14
13:32:33.848,-0.1,0.125
13:32:33.852,-0.09,0.155
13:32:33.856,-0.12,0.225
13:32:33.860,-0.225,0.25
13:32:33.864,-0.275,0.255
13:32:33.868,-0.25,0.19
13:32:33.872,-0.145,0.24
13:32:33.876,-0.115,0.235
13:32:33.880,-0.15,0.26
13:32:33.884,-0.18,0.28
13:32:33.888,-0.135,0.235
13:32:33.892,-0.025,0.215
13:32:33.896,0.07,0.21
13:32:33.900,0.145,0.28
13:32:33.904,0.145,0.315
13:32:33.908,0.01,0.3
13:32:33.912,-0.045,0.27
13:32:33.916,-0.035,0.275
13:32:33.920,0.045,0.27
13:32:33.924,0.155,0.28
13:32:33.928,0.095,0.265
13:32:33.932,-0.11,0.23
13:32:33.936,-0.245,0.17
13:32:33.940,-0.205,0.16
13:32:33.944,-0.11,0.11
13:32:33.948,-0.14,0.15
13:32:33.952,-0.15,0.17
13:32:33.956,-0.15,0.17
13:32:33.960,-0.155,0.115
13:32:33.964,-0.135,0.1
13:32:33.968,-0.14,0.105
13:32:33.972,-0.16,0.12
13:32:33.976,-0.14,0.115
13:32:33.980,-0.105,0.115
13:32:33.984,-0.04,0.115
13:32:33.988,-0.015,0.105
13:32:33.992,-0.08,0.105
13:32:33.996,-0.185,0.11
13:32:34.000,-0.165,0.14
13:32:34.004,-0.01,0.11
13:32:34.008,0.09,0.13
13:32:34.012,0.055,0.125
13:32:34.016,-0.05,0.11
13:32:34.020,0.015,0.085
13:32:34.024,0.225,0.08
13:32:34.028,0.39,0.115
13:32:34.032,0.32,0.18
13:32:34.036,0.125,0.27
13:32:34.040,0.03,0.365
13:32:34.044,-0.265,0.375
13:32:34.048,-0.765,0.135
13:32:34.052,-1.36,-0.36
13:32:34.056,-1.74,-0.955
13:32:34.060,-1.88,-1.78
13:32:34.064,-1.815,-2.73
13:32:34.068,-1.675,-3.545
13:32:34.072,-1.61,-4.095
13:32:34.076,-1.63,-4.49
13:32:34.080,-1.725,-4.72
13:32:34.084,-1.66,-4.82
13:32:34.088,-1.565,-4.875
13:32:34.092,-1.58,-4.87
13:32:34.096,-1.62,-4.855
13:32:34.100,-1.51,-4.79
13:32:34.104,-1.415,-4.74
13:32:34.108,-1.365,-4.665
13:32:34.112,-1.39,-4.605
13:32:34.116,-1.535,-4.57
13:32:34.120,-1.535,-4.485
13:32:34.124,-1.21,-4.28
13:32:34.128,-0.685,-4.0
13:32:34.132,-0.47,-3.69
13:32:34.136,-0.69,-3.33
13:32:34.140,-0.885,-2.925
13:32:34.144,-0.715,-2.44
13:32:34.148,-0.325,-1.9
13:32:34.152,-0.05,-1.445
13:32:34.156,0.045,-1.045
13:32:34.160,0.03,-0.69
13:32:34.164,0.105,-0.39
13:32:34.168,0.23,-0.18
13:32:34.172,0.335,0.06
13:32:34.176,0.42,0.305
13:32:34.180,0.515,0.53
13:32:34.184,0.62,0.68
13:32:34.188,0.605,0.79
13:32:34.192,0.485,0.905
13:32:34.196,0.405,0.965
13:32:34.200,0.415,0.97
13:32:34.204,0.56,1.0
13:32:34.208,0.78,1.08
13:32:34.212,0.86,1.115
13:32:34.216,0.735,1.145
13:32:34.220,0.535,1.19
13:32:34.224,0.48,1.21
13:32:34.228,0.495,1.215
13:32:34.232,0.56,1.235
13:32:34.236,0.645,1.28
13:32:34.240,0.71,1.31
13:32:34.244,0.785,1.355
13:32:34.248,0.885,1.36
13:32:34.252,0.91,1.39
13:32:34.256,0.895,1.415
13:32:34.260,0.895,1.455
13:32:34.264,0.945,1.485
13:32:34.268,0.99,1.55
13:32:34.272,0.93,1.575
13:32:34.276,0.865,1.59
13:32:34.280,0.89,1.605
13:32:34.284,0.995,1.655
13:32:34.288,1.085,1.675
13:32:34.292,1.095,1.705
13:32:34.296,1.015,1.69
13:32:34.300,0.995,1.725
13:32:34.304,0.985,1.735
13:32:34.308,0.975,1.78
13:32:34.312,1.005,1.81
13:32:34.316,1.04,1.85
13:32:34.320,1.05,1.85
13:32:34.324,1.06,1.84
13:32:34.328,1.06,1.86
13:32:34.332,1.03,1.85
13:32:34.336,0.975,1.835
13:32:34.340,0.965,1.825
13:32:34.344,0.98,1.805
13:32:34.348,0.935,1.775
13:32:34.352,0.93,1.75
13:32:34.356,0.84,1.72
13:32:34.360,0.745,1.67
13:32:34.364,0.685,1.61
13:32:34.368,0.65,1.555
13:32:34.372,0.625,1.515
13:32:34.376,0.57,1.45
13:32:34.380,0.515,1.38
13:32:34.384,0.525,1.29
13:32:34.388,0.59,1.23
13:32:34.392,0.59,1.14
13:32:34.396,0.525,1.05
13:32:34.400,0.42,0.965
13:32:34.404,0.36,0.92
13:32:34.408,0.315,0.87
13:32:34.412,0.31,0.785
13:32:34.416,0.285,0.75
13:32:34.420,0.245,0.685
13:32:34.424,0.225,0.62
13:32:34.428,0.255,0.545
13:32:34.432,0.305,0.5
13:32:34.436,0.37,0.505
13:32:34.440,0.31,0.48
13:32:34.444,0.23,0.475
13:32:34.448,0.26,0.44
13:32:34.452,0.305,0.425
13:32:34.456,0.305,0.4
13:32:34.460,0.285,0.41
13:32:34.464,0.295,0.435
13:32:34.468,0.35,0.445
13:32:34.472,0.395,0.505
13:32:34.476,0.47,0.545
13:32:34.480,0.435,0.57
13:32:34.484,0.315,0.575
13:32:34.488,0.255,0.55
13:32:34.492,0.26,0.545
13:32:34.496,0.295,0.525
13:32:34.500,0.375,0.51
13:32:34.504,0.445,0.51
13:32:34.508,0.46,0.475
13:32:34.512,0.35,0.475
13:32:34.516,0.27,0.435
13:32:34.520,0.28,0.43
13:32:34.524,0.36,0.405
13:32:34.528,0.465,0.415
13:32:34.532,0.485,0.385
13:32:34.536,0.43,0.395
13:32:34.540,0.41,0.435
13:32:34.544,0.525,0.435
13:32:34.548,0.56,0.38
13:32:34.552,0.455,0.37
13:32:34.556,0.3,0.365
13:32:34.560,0.325,0.35
13:32:34.564,0.56,0.32
13:32:34.568,0.83,0.35
13:32:34.572,0.875,0.365
13:32:34.576,0.615,0.365
13:32:34.580,0.285,0.39
13:32:34.584,0.06,0.435
13:32:34.588,-0.23,0.385
13:32:34.592,-0.67,0.12
13:32:34.596,-1.15,-0.29
13:32:34.600,-1.465,-0.845
13:32:34.604,-1.52,-1.69
13:32:34.608,-1.53,-2.725
13:32:34.612,-1.465,-3.54
13:32:34.616,-1.355,-4.11
13:32:34.620,-1.275,-4.505
13:32:34.624,-1.295,-4.725
13:32:34.628,-1.25,-4.845
13:32:34.632,-1.165,-4.865
13:32:34.636,-1.12,-4.85
13:32:34.640,-1.025,-4.795
13:32:34.644,-0.915,-4.715
13:32:34.648,-0.8,-4.615
13:32:34.652,-0.71,-4.53
13:32:34.656,-0.565,-4.43
13:32:34.660,-0.385,-4.25
13:32:34.664,-0.255,-3.985
13:32:34.668,-0.2,-3.675
13:32:34.672,-0.18,-3.355
13:32:34.676,-0.135,-2.93
13:32:34.680,-0.065,-2.43
13:32:34.684,0.045,-1.95
13:32:34.688,0.135,-1.52
13:32:34.692,0.225,-1.115
13:32:34.696,0.31,-0.705
13:32:34.700,0.47,-0.37
13:32:34.704,0.63,-0.12
13:32:34.708,0.71,0.13
13:32:34.712,0.77,0.38
13:32:34.716,0.75,0.585
13:32:34.720,0.685,0.755
13:32:34.724,0.66,0.845
13:32:34.728,0.66,0.915
13:32:34.732,0.67,1.01
13:32:34.736,0.705,1.04
13:32:34.740,0.85,1.035
13:32:34.744,0.935,1.03
13:32:34.748,0.895,1.065
13:32:34.752,0.835,1.08
13:32:34.756,0.74,1.085
13:32:34.760,0.71,1.115
13:32:34.764,0.78,1.135
13:32:34.768,0.795,1.16
13:32:34.772,0.82,1.195
13:32:34.776,0.82,1.22
13:32:34.780,0.855,1.2
13:32:34.784,0.96,1.235
13:32:34.788,1.125,1.25
13:32:34.792,1.13,1.26
13:32:34.796,1.04,1.31
13:32:34.800,0.91,1.335
13:32:34.804,0.815,1.37
13:32:34.808,0.75,1.385
13:32:34.812,0.765,1.415
13:32:34.816,0.845,1.465
13:32:34.820,0.9,1.495
13:32:34.824,0.93,1.515
13:32:34.828,0.91,1.535
13:32:34.832,0.875,1.53
13:32:34.836,0.9,1.545
13:32:34.840,0.99,1.535
13:32:34.844,1.04,1.57
13:32:34.848,0.98,1.62
13:32:34.852,0.95,1.685
13:32:34.856,1.0,1.695
13:32:34.860,0.985,1.69
13:32:34.864,0.89,1.66
13:32:34.868,0.805,1.635
13:32:34.872,0.765,1.64
13:32:34.876,0.76,1.595
13:32:34.880,0.805,1.59
13:32:34.884,0.895,1.525
13:32:34.888,0.98,1.48
13:32:34.892,0.87,1.475
13:32:34.896,0.615,1.42
13:32:34.900,0.44,1.345
13:32:34.904,0.42,1.29
13:32:34.908,0.5,1.23
13:32:34.912,0.54,1.16
13:32:34.916,0.605,1.08
13:32:34.920,0.715,0.99
13:32:34.924,0.745,0.915
13:32:34.928,0.555,0.805
13:32:34.932,0.34,0.675
13:32:34.936,0.27,0.59
13:32:34.940,0.305,0.55
13:32:34.944,0.345,0.53
13:32:34.948,0.36,0.505
13:32:34.952,0.37,0.425
13:32:34.956,0.365,0.39
13:32:34.960,0.35,0.35
13:32:34.964,0.345,0.305
13:32:34.968,0.375,0.29
13:32:34.972,0.385,0.265
13:32:34.976,0.45,0.24
13:32:34.980,0.495,0.24
13:32:34.984,0.46,0.24
13:32:34.988,0.32,0.235
13:32:34.992,0.315,0.25
13:32:34.996,0.425,0.215
13:32:35.000,0.475,0.225
13:32:35.004,0.495,0.24
13:32:35.008,0.375,0.25
13:32:35.012,0.295,0.265
13:32:35.016,0.35,0.275
13:32:35.020,0.39,0.295
13:32:35.024,0.405,0.325
13:32:35.028,0.415,0.365
13:32:35.032,0.375,0.36
13:32:35.036,0.34,0.335
13:32:35.040,0.29,0.33
13:32:35.044,0.23,0.34
13:32:35.048,0.245,0.33
13:32:35.052,0.3,0.315
13:32:35.056,0.295,0.29
13:32:35.060,0.32,0.315
13:32:35.064,0.35,0.325
13:32:35.068,0.355,0.31
13:32:35.072,0.325,0.295
13:32:35.076,0.275,0.285
13:32:35.080,0.21,0.29
13:32:35.084,0.155,0.315
13:32:35.088,0.155,0.29
13:32:35.092,0.2,0.265
13:32:35.096,0.215,0.25
13:32:35.100,0.21,0.26
13:32:35.104,0.245,0.255
13:32:35.108,0.3,0.23
13:32:35.112,0.31,0.21
13:32:35.116,0.26,0.225
13:32:35.120,0.225,0.235
13:32:35.124,0.245,0.23
13:32:35.128,0.315,0.225
13:32:35.132,0.35,0.205
13:32:35.136,0.305,0.205
13:32:35.140,0.185,0.21
13:32:35.144,0.165,0.21
13:32:35.148,0.245,0.195
13:32:35.152,0.305,0.18
13:32:35.156,0.205,0.195
13:32:35.160,0.205,0.235
13:32:35.164,0.265,0.22
13:32:35.168,0.23,0.215
13:32:35.172,0.175,0.21
13:32:35.176,0.215,0.19
13:32:35.180,0.27,0.165
13:32:35.184,0.315,0.18
13:32:35.188,0.34,0.205
13:32:35.192,0.345,0.2
13:32:35.196,0.3,0.225
13:32:35.200,0.275,0.265
13:32:35.204,0.265,0.265
13:32:35.208,0.28,0.255
13:32:35.212,0.29,0.255
13:32:35.216,0.35,0.23
13:32:35.220,0.4,0.23
13:32:35.224,0.405,0.23
13:32:35.228,0.37,0.225
13:32:35.232,0.31,0.205
13:32:35.236,0.21,0.195
13:32:35.240,0.19,0.225
13:32:35.244,0.31,0.2
13:32:35.248,0.51,0.22
13:32:35.252,0.53,0.265
13:32:35.256,0.44,0.315
13:32:35.260,0.3,0.405
13:32:35.264,0.025,0.4
13:32:35.268,-0.46,0.115
13:32:35.272,-0.945,-0.35
13:32:35.276,-1.22,-0.945
13:32:35.280,-1.34,-1.69
13:32:35.284,-1.39,-2.675
13:32:35.288,-1.23,-3.49
13:32:35.292,-0.995,-4.085
13:32:35.296,-0.965,-4.47
13:32:35.300,-1.09,-4.715
13:32:35.304,-1.135,-4.855
13:32:35.308,-1.085,-4.865
13:32:35.312,-1.07,-4.855
13:32:35.316,-1.06,-4.765
13:32:35.320,-1.02,-4.655
13:32:35.324,-0.94,-4.59
13:32:35.328,-0.925,-4.52
13:32:35.332,-0.885,-4.45
13:32:35.336,-0.775,-4.325
13:32:35.340,-0.655,-4.145
13:32:35.344,-0.495,-3.845
13:32:35.348,-0.365,-3.495
13:32:35.352,-0.2,-3.13
13:32:35.356,-0.04,-2.69
13:32:35.360,0.01,-2.235
13:32:35.364,-0.11,-1.75
13:32:35.368,-0.19,-1.345
13:32:35.372,-0.16,-1.0
13:32:35.376,-0.025,-0.64
13:32:35.380,0.15,-0.35
13:32:35.384,0.26,-0.13
13:32:35.388,0.33,0.13
13:32:35.392,0.405,0.355
13:32:35.396,0.45,0.525
13:32:35.400,0.425,0.685
13:32:35.404,0.425,0.83
13:32:35.408,0.475,0.945
13:32:35.412,0.495,0.98
13:32:35.416,0.535,1.03
13:32:35.420,0.59,1.05
13:32:35.424,0.675,1.065
13:32:35.428,0.7,1.12
13:32:35.432,0.65,1.16
13:32:35.436,0.705,1.175
13:32:35.440,0.69,1.21
13:32:35.444,0.55,1.22
13:32:35.448,0.51,1.25
13:32:35.452,0.605,1.285
13:32:35.456,0.635,1.33
13:32:35.460,0.6,1.395
13:32:35.464,0.645,1.44
13:32:35.468,0.74,1.5
13:32:35.472,0.81,1.555
13:32:35.476,0.825,1.595
13:32:35.480,0.855,1.64
13:32:35.484,0.88,1.65
13:32:35.488,0.91,1.71
13:32:35.492,0.935,1.76
13:32:35.496,0.965,1.76
13:32:35.500,0.98,1.81
13:32:35.504,0.995,1.805
13:32:35.508,1.02,1.82
13:32:35.512,1.01,1.81
13:32:35.516,1.05,1.845
13:32:35.520,1.15,1.84
13:32:35.524,1.165,1.85
13:32:35.528,1.085,1.845
13:32:35.532,0.965,1.845
13:32:35.536,0.825,1.855
13:32:35.540,0.785,1.84
13:32:35.544,0.845,1.865
13:32:35.548,0.895,1.845
13:32:35.552,0.89,1.825
13:32:35.556,0.73,1.825
13:32:35.560,0.56,1.765
13:32:35.564,0.49,1.705
13:32:35.568,0.505,1.635
13:32:35.572,0.515,1.54
13:32:35.576,0.545,1.42
13:32:35.580,0.495,1.34
13:32:35.584,0.35,1.275
13:32:35.588,0.255,1.19
13:32:35.592,0.25,1.12
13:32:35.596,0.215,1.03
13:32:35.600,0.185,0.975
13:32:35.604,0.215,0.9
13:32:35.608,0.18,0.835
13:32:35.612,0.08,0.72
13:32:35.616,0.065,0.665
13:32:35.620,0.115,0.58
13:32:35.624,0.14,0.55
13:32:35.628,0.14,0.52
13:32:35.632,0.13,0.485
13:32:35.636,0.2,0.445
13:32:35.640,0.18,0.465
13:32:35.644,0.105,0.475
13:32:35.648,0.095,0.5
13:32:35.652,0.07,0.525
13:32:35.656,-0.23,0.505
13:32:35.660,-0.68,0.41
13:32:35.664,-1.17,0.135
13:32:35.668,-1.62,-0.23
13:32:35.672,-1.845,-0.795
13:32:35.676,-1.97,-1.71
13:32:35.680,-2.11,-2.645
13:32:35.684,-2.245,-3.455
13:32:35.688,-2.41,-3.975
13:32:35.692,-2.615,-4.31
13:32:35.696,-2.83,-4.535
13:32:35.700,-2.87,-4.625
13:32:35.704,-2.73,-4.61
13:32:35.708,-2.515,-4.565
13:32:35.712,-2.265,-4.515
13:32:35.716,-2.07,-4.475
13:32:35.720,-1.815,-4.42
13:32:35.724,-1.5,-4.32
13:32:35.728,-1.28,-4.135
13:32:35.732,-1.175,-3.865
13:32:35.736,-1.065,-3.51
13:32:35.740,-0.77,-3.11
13:32:35.744,-0.48,-2.54
13:32:35.748,-0.315,-2.005
13:32:35.752,-0.22,-1.555
13:32:35.756,-0.06,-1.16
13:32:35.760,0.085,-0.825
13:32:35.764,0.14,-0.53
13:32:35.768,0.185,-0.195
13:32:35.772,0.27,0.145
13:32:35.776,0.325,0.415
13:32:35.780,0.285,0.655
13:32:35.784,0.35,0.785
13:32:35.788,0.49,0.86
13:32:35.792,0.45,0.9
13:32:35.796,0.315,0.935
13:32:35.800,0.21,0.98
13:32:35.804,0.26,1.01
13:32:35.808,0.385,1.055
13:32:35.812,0.41,1.12
13:32:35.816,0.445,1.19
13:32:35.820,0.6,1.22
13:32:35.824,0.665,1.24
13:32:35.828,0.585,1.24
13:32:35.832,0.56,1.28
13:32:35.836,0.53,1.32
13:32:35.840,0.54,1.34
13:32:35.844,0.65,1.37
13:32:35.848,0.72,1.4
13:32:35.852,0.7,1.405
13:32:35.856,0.575,1.44
13:32:35.860,0.465,1.405
13:32:35.864,0.405,1.385
13:32:35.868,0.47,1.365
13:32:35.872,0.59,1.36
13:32:35.876,0.67,1.375
13:32:35.880,0.705,1.38
13:32:35.884,0.735,1.39
13:32:35.888,0.72,1.405
13:32:35.892,0.705,1.405
13:32:35.896,0.73,1.44
13:32:35.900,0.745,1.43
13:32:35.904,0.74,1.43
13:32:35.908,0.73,1.45
13:32:35.912,0.705,1.42
13:32:35.916,0.62,1.42
13:32:35.920,0.565,1.43
13:32:35.924,0.595,1.405
13:32:35.928,0.59,1.435
13:32:35.932,0.54,1.415
13:32:35.936,0.4,1.375
13:32:35.940,0.275,1.355
13:32:35.944,0.25,1.295
13:32:35.948,0.345,1.255
13:32:35.952,0.445,1.19
13:32:35.956,0.37,1.11
13:32:35.960,0.215,1.03
13:32:35.964,0.235,0.97
13:32:35.968,0.21,0.93
13:32:35.972,0.02,0.88
13:32:35.976,-0.105,0.84
13:32:35.980,-0.08,0.795
13:32:35.984,-0.035,0.76
13:32:35.988,0.005,0.72
13:32:35.992,0.035,0.685
13:32:35.996,0.09,0.685
13:32:36.000,0.1,0.635
13:32:36.004,0.095,0.555
13:32:36.008,0.105,0.58
13:32:36.012,0.21,0.55
13:32:36.016,0.275,0.525
13:32:36.020,0.22,0.52
13:32:36.024,0.18,0.53
13:32:36.028,0.15,0.53
13:32:36.032,0.105,0.47
13:32:36.036,0.02,0.41
13:32:36.040,0.07,0.375
13:32:36.044,0.18,0.34
13:32:36.048,0.235,0.33
13:32:36.052,0.115,0.335
13:32:36.056,0.0,0.33
13:32:36.060,0.025,0.315
13:32:36.064,0.035,0.315
13:32:36.068,-0.035,0.32
13:32:36.072,-0.06,0.315
13:32:36.076,-0.07,0.335
13:32:36.080,-0.035,0.315
13:32:36.084,0.005,0.29
13:32:36.088,-0.03,0.24
13:32:36.092,0.025,0.24
13:32:36.096,0.135,0.265
13:32:36.100,0.36,0.27
13:32:36.104,0.595,0.26
13:32:36.108,0.66,0.285
13:32:36.112,0.56,0.355
13:32:36.116,0.375,0.44
13:32:36.120,0.11,0.535
13:32:36.124,-0.255,0.48
13:32:36.128,-0.69,0.105
13:32:36.132,-1.095,-0.37
13:32:36.136,-1.35,-1.08
13:32:36.140,-1.415,-2.065
13:32:36.144,-1.33,-3.04
13:32:36.148,-1.185,-3.785
13:32:36.152,-1.1,-4.31
13:32:36.156,-1.125,-4.605
13:32:36.160,-1.155,-4.775
13:32:36.164,-1.115,-4.835
13:32:36.168,-1.125,-4.855
13:32:36.172,-1.045,-4.785
13:32:36.176,-0.89,-4.715
13:32:36.180,-0.815,-4.66
13:32:36.184,-0.9,-4.61
13:32:36.188,-0.9,-4.565
13:32:36.192,-0.93,-4.465
13:32:36.196,-1.075,-4.29
13:32:36.200,-1.125,-4.015
13:32:36.204,-1.0,-3.64
13:32:36.208,-0.845,-3.245
13:32:36.212,-0.735,-2.72
13:32:36.216,-0.575,-2.125
13:32:36.220,-0.345,-1.625
13:32:36.224,-0.15,-1.21
13:32:36.228,0.0,-0.795
13:32:36.232,0.06,-0.475
13:32:36.236,0.125,-0.2
13:32:36.240,0.175,0.045
13:32:36.244,0.23,0.285
13:32:36.248,0.28,0.49
13:32:36.252,0.33,0.69
13:32:36.256,0.385,0.83
13:32:36.260,0.455,0.92
13:32:36.264,0.485,1.005
13:32:36.268,0.48,1.03
13:32:36.272,0.435,1.06
13:32:36.276,0.4,1.12
13:32:36.280,0.38,1.19
13:32:36.284,0.375,1.225
13:32:36.288,0.395,1.275
13:32:36.292,0.415,1.295
13:32:36.296,0.435,1.33
13:32:36.300,0.45,1.36
13:32:36.304,0.525,1.405
13:32:36.308,0.63,1.455
13:32:36.312,0.715,1.5
13:32:36.316,0.7,1.515
13:32:36.320,0.665,1.555
13:32:36.324,0.675,1.595
13:32:36.328,0.695,1.625
13:32:36.332,0.74,1.65
13:32:36.336,0.805,1.71
13:32:36.340,0.9,1.77
13:32:36.344,0.925,1.795
13:32:36.348,0.825,1.815
13:32:36.352,0.77,1.865
13:32:36.356,0.77,1.915
13:32:36.360,0.83,1.925
13:32:36.364,0.9,1.955
13:32:36.368,0.91,1.995
13:32:36.372,0.825,1.995
13:32:36.376,0.75,2.01
13:32:36.380,0.75,1.985
13:32:36.384,0.77,1.955
13:32:36.388,0.71,1.92
13:32:36.392,0.635,1.875
13:32:36.396,0.59,1.855
13:32:36.400,0.555,1.795
13:32:36.404,0.57,1.705
13:32:36.408,0.575,1.665
13:32:36.412,0.59,1.58
13:32:36.416,0.575,1.485
13:32:36.420,0.48,1.42
13:32:36.424,0.285,1.345
13:32:36.428,0.175,1.24
13:32:36.432,0.195,1.185
13:32:36.436,0.24,1.15
13:32:36.440,0.21,1.095
13:32:36.444,0.205,1.005
13:32:36.448,0.19,0.96
13:32:36.452,0.225,0.88
13:32:36.456,0.255,0.83
13:32:36.460,0.305,0.745
13:32:36.464,0.35,0.675
13:32:36.468,0.25,0.605
13:32:36.472,0.025,0.595
13:32:36.476,-0.11,0.585
13:32:36.480,-0.08,0.56
13:32:36.484,0.0,0.54
13:32:36.488,0.13,0.53
13:32:36.492,0.21,0.545
13:32:36.496,0.1,0.55
13:32:36.500,-0.02,0.53
13:32:36.504,-0.02,0.485
13:32:36.508,-0.01,0.485
13:32:36.512,-0.025,0.51
13:32:36.516,0.05,0.51
13:32:36.520,0.12,0.475
13:32:36.524,0.095,0.495
13:32:36.528,0.025,0.49
13:32:36.532,0.0,0.455
13:32:36.536,0.005,0.455
13:32:36.540,0.07,0.45
13:32:36.544,0.07,0.455
13:32:36.548,0.005,0.395
13:32:36.552,0.005,0.35
13:32:36.556,0.03,0.33
13:32:36.560,0.03,0.335
13:32:36.564,0.065,0.3
13:32:36.568,0.11,0.285
13:32:36.572,0.07,0.31
13:32:36.576,-0.005,0.32
13:32:36.580,-0.035,0.325
13:32:36.584,0.015,0.305
13:32:36.588,0.075,0.285
13:32:36.592,0.125,0.31
13:32:36.596,0.11,0.295
13:32:36.600,0.02,0.325
13:32:36.604,-0.02,0.295
13:32:36.608,0.02,0.295
13:32:36.612,0.15,0.28
13:32:36.616,0.25,0.335
13:32:36.620,0.1,0.37
13:32:36.624,-0.1,0.36
13:32:36.628,-0.205,0.375
13:32:36.632,-0.18,0.35
13:32:36.636,-0.1,0.37
13:32:36.640,-0.04,0.375
13:32:36.644,-0.03,0.38
13:32:36.648,0.005,0.36
13:32:36.652,0.005,0.37
13:32:36.656,0.07,0.35
13:32:36.660,0.2,0.355
13:32:36.664,0.225,0.34
13:32:36.668,0.055,0.345
13:32:36.672,-0.07,0.375
13:32:36.676,0.005,0.335
13:32:36.680,0.11,0.34
13:32:36.684,0.015,0.34
13:32:36.688,-0.15,0.335
13:32:36.692,-0.175,0.325
13:32:36.696,-0.1,0.32
13:32:36.700,-0.015,0.37
13:32:36.704,0.04,0.355
13:32:36.708,0.07,0.355
13:32:36.712,0.065,0.33
13:32:36.716,0.055,0.315
13:32:36.720,0.025,0.29
13:32:36.724,0.0,0.225
13:32:36.728,0.005,0.24
13:32:36.732,0.05,0.245
13:32:36.736,0.12,0.225
13:32:36.740,0.165,0.195
13:32:36.744,0.165,0.23
13:32:36.748,0.1,0.23
13:32:36.752,0.07,0.255
13:32:36.756,0.075,0.24
13:32:36.760,0.065,0.25
13:32:36.764,0.07,0.255
13:32:36.768,0.035,0.28
13:32:36.772,-0.03,0.275
13:32:36.776,-0.09,0.255
13:32:36.780,-0.095,0.26
13:32:36.784,-0.065,0.255
13:32:36.788,-0.025,0.265
13:32:36.792,-0.01,0.27
13:32:36.796,0.02,0.285
13:32:36.800,0.06,0.265
13:32:36.804,0.15,0.29
13:32:36.808,0.315,0.285
13:32:36.812,0.475,0.3
13:32:36.816,0.5,0.335
13:32:36.820,0.345,0.395
13:32:36.824,0.06,0.51
13:32:36.828,-0.27,0.535
13:32:36.832,-0.6,0.285
13:32:36.836,-0.91,-0.24
13:32:36.840,-1.27,-0.84
13:32:36.844,-1.455,-1.665
13:32:36.848,-1.515,-2.7
13:32:36.852,-1.42,-3.515
13:32:36.856,-1.39,-4.05
13:32:36.860,-1.42,-4.395
13:32:36.864,-1.475,-4.62
13:32:36.868,-1.405,-4.75
13:32:36.872,-1.2,-4.775
13:32:36.876,-1.0,-4.75
13:32:36.880,-0.945,-4.695
13:32:36.884,-0.89,-4.61
13:32:36.888,-0.925,-4.535
13:32:36.892,-1.0,-4.44
13:32:36.896,-1.005,-4.42
13:32:36.900,-0.955,-4.28
13:32:36.904,-0.895,-4.07
13:32:36.908,-0.76,-3.78
13:32:36.912,-0.625,-3.41
13:32:36.916,-0.535,-3.035
13:32:36.920,-0.445,-2.525
13:32:36.924,-0.31,-2.045
13:32:36.928,-0.18,-1.57
13:32:36.932,-0.03,-1.12
13:32:36.936,0.01,-0.735
13:32:36.940,0.115,-0.45
13:32:36.944,0.315,-0.225
13:32:36.948,0.315,-0.015
13:32:36.952,0.175,0.215
13:32:36.956,0.09,0.415
13:32:36.960,0.145,0.595
13:32:36.964,0.27,0.765
13:32:36.968,0.265,0.89
13:32:36.972,0.245,0.99
13:32:36.976,0.23,1.05
13:32:36.980,0.21,1.11
13:32:36.984,0.24,1.15
13:32:36.988,0.335,1.18
13:32:36.992,0.435,1.185
13:32:36.996,0.51,1.235
13:32:37.000,0.505,1.245
13:32:37.004,0.52,1.26
13:32:37.008,0.57,1.295
13:32:37.012,0.665,1.305
13:32:37.016,0.68,1.34
13:32:37.020,0.665,1.37
13:32:37.024,0.7,1.43
13:32:37.028,0.715,1.465
13:32:37.032,0.75,1.485
13:32:37.036,0.785,1.545
13:32:37.040,0.86,1.57
13:32:37.044,0.865,1.625
13:32:37.048,0.815,1.67
13:32:37.052,0.825,1.74
13:32:37.056,0.905,1.77
13:32:37.060,0.98,1.815
13:32:37.064,0.96,1.84
13:32:37.068,0.87,1.82
13:32:37.072,0.775,1.83
13:32:37.076,0.78,1.835
13:32:37.080,0.815,1.83
13:32:37.084,0.845,1.865
13:32:37.088,0.885,1.845
13:32:37.092,0.885,1.87
13:32:37.096,0.835,1.865
13:32:37.100,0.745,1.87
13:32:37.104,0.685,1.855
13:32:37.108,0.66,1.845
13:32:37.112,0.68,1.825
13:32:37.116,0.695,1.815
13:32:37.120,0.695,1.74
13:32:37.124,0.6,1.725
13:32:37.128,0.54,1.665
13:32:37.132,0.5,1.595
13:32:37.136,0.485,1.55
13:32:37.140,0.45,1.485
13:32:37.144,0.335,1.44
13:32:37.148,0.31,1.36
13:32:37.152,0.325,1.275
13:32:37.156,0.32,1.225
13:32:37.160,0.27,1.14
13:32:37.164,0.23,1.065
13:32:37.168,0.19,0.985
13:32:37.172,0.16,0.93
13:32:37.176,0.165,0.88
13:32:37.180,0.155,0.78
13:32:37.184,0.085,0.74
13:32:37.188,0.08,0.69
13:32:37.192,0.11,0.645
13:32:37.196,0.115,0.595
13:32:37.200,0.03,0.56
13:32:37.204,-0.01,0.505
13:32:37.208,0.02,0.48
13:32:37.212,0.1,0.45
13:32:37.216,0.11,0.435
13:32:37.220,0.135,0.46
13:32:37.224,0.16,0.45
13:32:37.228,0.11,0.43
13:32:37.232,0.025,0.445
13:32:37.236,0.055,0.425
13:32:37.240,0.035,0.44
13:32:37.244,0.01,0.395
13:32:37.248,0.11,0.405
13:32:37.252,0.235,0.395
13:32:37.256,0.235,0.39
13:32:37.260,0.155,0.385
13:32:37.264,0.175,0.41
13:32:37.268,0.225,0.415
13:32:37.272,0.13,0.44
13:32:37.276,0.01,0.425
13:32:37.280,0.005,0.415
13:32:37.284,0.035,0.425
13:32:37.288,0.035,0.455
13:32:37.292,0.045,0.465
13:32:37.296,0.08,0.455
13:32:37.300,0.155,0.45
13:32:37.304,0.165,0.465
13:32:37.308,0.195,0.485
13:32:37.312,0.2,0.475
13:32:37.316,0.18,0.44
13:32:37.320,0.19,0.46
13:32:37.324,0.205,0.445
13:32:37.328,0.185,0.475
13:32:37.332,0.14,0.465
13:32:37.336,0.1,0.49
13:32:37.340,0.09,0.48
13:32:37.344,0.1,0.45
13:32:37.348,0.15,0.465
13:32:37.352,0.155,0.48
13:32:37.356,0.135,0.465
13:32:37.360,0.1,0.44
13:32:37.364,0.055,0.465
13:32:37.368,0.025,0.48
13:32:37.372,0.05,0.465
13:32:37.376,0.04,0.465
13:32:37.380,0.035,0.435
13:32:37.384,0.025,0.41
13:32:37.388,0.045,0.405
13:32:37.392,0.055,0.395
13:32:37.396,0.065,0.36
13:32:37.400,0.055,0.39
13:32:37.404,0.065,0.4
13:32:37.408,0.125,0.39
13:32:37.412,0.185,0.375
13:32:37.416,0.14,0.37
13:32:37.420,0.02,0.39
13:32:37.424,-0.035,0.36
13:32:37.428,-0.055,0.35
13:32:37.432,-0.025,0.345
13:32:37.436,0.025,0.32
13:32:37.440,0.09,0.325
13:32:37.444,0.095,0.315
13:32:37.448,0.075,0.315
13:32:37.452,0.06,0.275
13:32:37.456,0.055,0.3
13:32:37.460,0.095,0.35
13:32:37.464,0.19,0.355
13:32:37.468,0.155,0.345
13:32:37.472,0.06,0.33
13:32:37.476,0.035,0.335
13:32:37.480,0.05,0.315
13:32:37.484,0.14,0.325
13:32:37.488,0.165,0.395
13:32:37.492,0.215,0.385
13:32:37.496,0.25,0.37
13:32:37.500,0.3,0.37
13:32:37.504,0.205,0.39
13:32:37.508,0.01,0.415
13:32:37.512,-0.05,0.4
13:32:37.516,-0.05,0.385
13:32:37.520,0.0,0.355
13:32:37.524,0.045,0.38
13:32:37.528,0.03,0.39
13:32:37.532,0.04,0.395
13:32:37.536,0.055,0.39
13:32:37.540,0.08,0.4
13:32:37.544,0.14,0.375
13:32:37.548,0.135,0.37
13:32:37.552,0.14,0.37
13:32:37.556,0.085,0.375
13:32:37.560,0.03,0.36
13:32:37.564,0.07,0.365
13:32:37.568,0.095,0.34
13:32:37.572,0.03,0.295
13:32:37.576,-0.055,0.285
13:32:37.580,-0.105,0.285
13:32:37.584,-0.07,0.3
13:32:37.588,-0.06,0.325
13:32:37.592,-0.04,0.325
13:32:37.596,-0.06,0.34
13:32:37.600,-0.115,0.325
13:32:37.604,-0.135,0.32
13:32:37.608,-0.125,0.315
13:32:37.612,-0.065,0.34
13:32:37.616,0.01,0.425
13:32:37.620,0.075,0.515
13:32:37.624,0.12,0.54
13:32:37.628,0.09,0.505
13:32:37.632,0.08,0.485
13:32:37.636,0.14,0.47
13:32:37.640,0.145,0.465
13:32:37.644,0.2,0.475
13:32:37.648,0.205,0.475
13:32:37.652,0.225,0.475
13:32:37.656,0.33,0.495
13:32:37.660,0.335,0.515
13:32:37.664,0.21,0.57
13:32:37.668,0.045,0.645
13:32:37.672,-0.165,0.74
13:32:37.676,-0.52,0.7
13:32:37.680,-0.945,0.4
13:32:37.684,-1.225,-0.08
13:32:37.688,-1.4,-0.7
13:32:37.692,-1.44,-1.53
13:32:37.696,-1.395,-2.54
13:32:37.700,-1.255,-3.345
13:32:37.704,-1.08,-3.92
13:32:37.708,-1.04,-4.295
13:32:37.712,-1.065,-4.525
13:32:37.716,-1.13,-4.655
13:32:37.720,-1.265,-4.71
13:32:37.724,-1.425,-4.675
13:32:37.728,-1.425,-4.565
13:32:37.732,-1.25,-4.455
13:32:37.736,-0.98,-4.345
13:32:37.740,-0.93,-4.28
13:32:37.744,-1.045,-4.18
13:32:37.748,-1.07,-4.13
13:32:37.752,-0.975,-3.9
13:32:37.756,-0.81,-3.625
13:32:37.760,-0.67,-3.255
13:32:37.764,-0.51,-2.83
13:32:37.768,-0.44,-2.31
13:32:37.772,-0.375,-1.795
13:32:37.776,-0.29,-1.315
13:32:37.780,-0.215,-0.89
13:32:37.784,-0.11,-0.495
13:32:37.788,0.05,-0.175
13:32:37.792,0.195,0.06
13:32:37.796,0.345,0.25
13:32:37.800,0.43,0.46
13:32:37.804,0.42,0.625
13:32:37.808,0.375,0.81
13:32:37.812,0.405,0.92
13:32:37.816,0.425,1.045
13:32:37.820,0.485,1.17
13:32:37.824,0.555,1.215
13:32:37.828,0.555,1.25
13:32:37.832,0.46,1.27
13:32:37.836,0.43,1.295
13:32:37.840,0.45,1.33
13:32:37.844,0.535,1.355
13:32:37.848,0.585,1.395
13:32:37.852,0.63,1.415
13:32:37.856,0.725,1.445
13:32:37.860,0.795,1.505
13:32:37.864,0.825,1.515
13:32:37.868,0.775,1.52
13:32:37.872,0.69,1.55
13:32:37.876,0.59,1.565
13:32:37.880,0.595,1.575
13:32:37.884,0.61,1.61
13:32:37.888,0.61,1.64
13:32:37.892,0.59,1.675
13:32:37.896,0.645,1.71
13:32:37.900,0.68,1.73
13:32:37.904,0.69,1.79
13:32:37.908,0.72,1.81
13:32:37.912,0.685,1.79
13:32:37.916,0.67,1.84
13:32:37.920,0.66,1.835
13:32:37.924,0.67,1.85
13:32:37.928,0.62,1.875
13:32:37.932,0.65,1.905
13:32:37.936,0.74,1.925
13:32:37.940,0.715,1.95
13:32:37.944,0.62,1.98
13:32:37.948,0.565,1.98
13:32:37.952,0.61,2.02
13:32:37.956,0.625,2.03
13:32:37.960,0.695,2.015
13:32:37.964,0.72,2.01
13:32:37.968,0.685,1.99
13:32:37.972,0.62,1.935
13:32:37.976,0.55,1.915
13:32:37.980,0.475,1.855
13:32:37.984,0.46,1.81
13:32:37.988,0.48,1.765
13:32:37.992,0.46,1.71
13:32:37.996,0.41,1.685
13:32:38.000,0.355,1.6
13:32:38.004,0.36,1.535
13:32:38.008,0.37,1.49
13:32:38.012,0.395,1.425
13:32:38.016,0.415,1.375
13:32:38.020,0.34,1.315
13:32:38.024,0.225,1.25
13:32:38.028,0.145,1.185
13:32:38.032,0.14,1.11
13:32:38.036,0.185,1.07
13:32:38.040,0.18,1.035
13:32:38.044,0.16,0.99
13:32:38.048,0.145,0.925
13:32:38.052,0.115,0.88
13:32:38.056,0.065,0.845
13:32:38.060,0.035,0.815
13:32:38.064,0.04,0.775
13:32:38.068,0.065,0.765
13:32:38.072,0.04,0.74
13:32:38.076,-0.03,0.74
13:32:38.080,-0.035,0.715
13:32:38.084,0.01,0.735
13:32:38.088,0.08,0.73
13:32:38.092,0.0,0.72
13:32:38.096,-0.12,0.69
13:32:38.100,-0.205,0.68
13:32:38.104,-0.22,0.68
13:32:38.108,-0.155,0.675
13:32:38.112,-0.055,0.71
13:32:38.116,0.075,0.725
13:32:38.120,0.21,0.73
13:32:38.124,0.28,0.755
13:32:38.128,0.285,0.78
13:32:38.132,0.23,0.815
13:32:38.136,-0.02,0.865
13:32:38.140,-0.485,0.855
13:32:38.144,-1.085,0.665
13:32:38.148,-1.61,0.3
13:32:38.152,-1.98,-0.14
13:32:38.156,-2.06,-0.855
13:32:38.160,-1.98,-1.885
13:32:38.164,-1.965,-2.845
13:32:38.168,-2.03,-3.65
13:32:38.172,-2.16,-4.18
13:32:38.176,-2.245,-4.48
13:32:38.180,-2.21,-4.67
13:32:38.184,-2.055,-4.74
13:32:38.188,-1.94,-4.685
13:32:38.192,-1.945,-4.605
13:32:38.196,-1.89,-4.555
13:32:38.200,-1.715,-4.49
13:32:38.204,-1.455,-4.465
13:32:38.208,-1.265,-4.365
13:32:38.212,-1.155,-4.185
13:32:38.216,-1.005,-3.875
13:32:38.220,-0.875,-3.5
13:32:38.224,-0.795,-3.075
13:32:38.228,-0.62,-2.485
13:32:38.232,-0.455,-1.89
13:32:38.236,-0.405,-1.39
13:32:38.240,-0.35,-0.945
13:32:38.244,-0.24,-0.55
13:32:38.248,-0.075,-0.215
13:32:38.252,0.025,0.085
13:32:38.256,0.09,0.315
13:32:38.260,0.155,0.535
13:32:38.264,0.24,0.73
13:32:38.268,0.35,0.905
13:32:38.272,0.315,1.055
13:32:38.276,0.19,1.16
13:32:38.280,0.14,1.235
13:32:38.284,0.18,1.275
13:32:38.288,0.215,1.325
13:32:38.292,0.28,1.36
13:32:38.296,0.335,1.38
13:32:38.300,0.285,1.42
13:32:38.304,0.24,1.41
13:32:38.308,0.26,1.44
13:32:38.312,0.26,1.43
13:32:38.316,0.25,1.48
13:32:38.320,0.23,1.48
13:32:38.324,0.255,1.495
13:32:38.328,0.33,1.515
13:32:38.332,0.435,1.535
13:32:38.336,0.48,1.54
13:32:38.340,0.42,1.58
13:32:38.344,0.39,1.565
13:32:38.348,0.405,1.57
13:32:38.352,0.44,1.6
13:32:38.356,0.535,1.65
13:32:38.360,0.63,1.69
13:32:38.364,0.61,1.685
13:32:38.368,0.53,1.675
13:32:38.372,0.515,1.665
13:32:38.376,0.565,1.665
13:32:38.380,0.565,1.65
13:32:38.384,0.56,1.685
13:32:38.388,0.51,1.69
13:32:38.392,0.485,1.71
13:32:38.396,0.49,1.72
13:32:38.400,0.53,1.725
13:32:38.404,0.53,1.74
13:32:38.408,0.47,1.735
13:32:38.412,0.38,1.71
13:32:38.416,0.365,1.715
13:32:38.420,0.425,1.685
13:32:38.424,0.375,1.68
13:32:38.428,0.215,1.645
13:32:38.432,0.14,1.61
13:32:38.436,0.2,1.575
13:32:38.440,0.13,1.52
13:32:38.444,0.045,1.495
13:32:38.448,0.005,1.455
13:32:38.452,0.05,1.395
13:32:38.456,0.055,1.355
13:32:38.460,0.065,1.28
13:32:38.464,0.12,1.22
13:32:38.468,0.14,1.13
13:32:38.472,0.08,1.07
13:32:38.476,-0.005,1.0
13:32:38.480,0.005,0.955
13:32:38.484,-0.035,0.91
13:32:38.488,-0.165,0.855
13:32:38.492,-0.32,0.825
13:32:38.496,-0.355,0.79
13:32:38.500,-0.265,0.725
13:32:38.504,-0.135,0.69
13:32:38.508,-0.03,0.685
13:32:38.512,0.0,0.675
13:32:38.516,-0.06,0.68
13:32:38.520,-0.18,0.67
13:32:38.524,-0.215,0.615
13:32:38.528,-0.175,0.63
13:32:38.532,-0.125,0.66
13:32:38.536,0.01,0.68
13:32:38.540,0.085,0.675
13:32:38.544,0.02,0.685
13:32:38.548,-0.155,0.675
13:32:38.552,-0.19,0.64
13:32:38.556,-0.1,0.66
13:32:38.560,-0.005,0.66
13:32:38.564,-0.03,0.685
13:32:38.568,-0.15,0.685
13:32:38.572,-0.145,0.665
13:32:38.576,-0.085,0.675
13:32:38.580,-0.05,0.635
13:32:38.584,-0.06,0.66
13:32:38.588,-0.045,0.685
13:32:38.592,-0.03,0.66
13:32:38.596,0.0,0.625
13:32:38.600,0.005,0.61
13:32:38.604,0.075,0.59
13:32:38.608,0.16,0.605
13:32:38.612,0.225,0.585
13:32:38.616,0.335,0.585
13:32:38.620,0.365,0.59
13:32:38.624,0.315,0.645
13:32:38.628,0.235,0.67
13:32:38.632,0.075,0.77
13:32:38.636,-0.245,0.735
13:32:38.640,-0.64,0.44
13:32:38.644,-0.995,-0.025
13:32:38.648,-1.285,-0.65
13:32:38.652,-1.43,-1.535
13:32:38.656,-1.465,-2.615
13:32:38.660,-1.385,-3.465
13:32:38.664,-1.295,-4.065
13:32:38.668,-1.265,-4.465
13:32:38.672,-1.355,-4.71
13:32:38.676,-1.46,-4.815
13:32:38.680,-1.46,-4.87
13:32:38.684,-1.405,-4.83
13:32:38.688,-1.38,-4.74
13:32:38.692,-1.32,-4.665
13:32:38.696,-1.205,-4.59
13:32:38.700,-1.11,-4.515
13:32:38.704,-0.96,-4.445
13:32:38.708,-0.94,-4.305
13:32:38.712,-0.96,-4.07
13:32:38.716,-0.91,-3.775
13:32:38.720,-0.84,-3.415
13:32:38.724,-0.805,-2.985
13:32:38.728,-0.725,-2.485
13:32:38.732,-0.68,-1.89
13:32:38.736,-0.665,-1.37
13:32:38.740,-0.5,-0.885
13:32:38.744,-0.27,-0.47
13:32:38.748,-0.175,-0.145
13:32:38.752,-0.135,0.135
13:32:38.756,-0.055,0.395
13:32:38.760,0.005,0.575
13:32:38.764,0.06,0.795
13:32:38.768,0.175,0.97
13:32:38.772,0.275,1.115
13:32:38.776,0.335,1.195
13:32:38.780,0.31,1.295
13:32:38.784,0.275,1.32
13:32:38.788,0.21,1.325
13:32:38.792,0.255,1.32
13:32:38.796,0.38,1.37
13:32:38.800,0.485,1.385
13:32:38.804,0.42,1.41
13:32:38.808,0.255,1.415
13:32:38.812,0.135,1.39
13:32:38.816,0.165,1.42
13:32:38.820,0.265,1.43
13:32:38.824,0.39,1.445
13:32:38.828,0.44,1.515
13:32:38.832,0.435,1.51
13:32:38.836,0.415,1.515
13:32:38.840,0.415,1.565
13:32:38.844,0.44,1.575
13:32:38.848,0.49,1.61
13:32:38.852,0.535,1.635
13:32:38.856,0.595,1.66
13:32:38.860,0.555,1.705
13:32:38.864,0.5,1.715
13:32:38.868,0.515,1.745
13:32:38.872,0.57,1.76
13:32:38.876,0.58,1.81
13:32:38.880,0.55,1.805
13:32:38.884,0.535,1.825
13:32:38.888,0.625,1.855
13:32:38.892,0.705,1.87
13:32:38.896,0.65,1.89
13:32:38.900,0.51,1.895
13:32:38.904,0.38,1.89
13:32:38.908,0.37,1.885
13:32:38.912,0.4,1.89
13:32:38.916,0.44,1.885
13:32:38.920,0.425,1.88
13:32:38.924,0.42,1.85
13:32:38.928,0.385,1.805
13:32:38.932,0.28,1.78
13:32:38.936,0.245,1.745
13:32:38.940,0.22,1.71
13:32:38.944,0.225,1.62
13:32:38.948,0.18,1.56
13:32:38.952,0.125,1.49
13:32:38.956,0.1,1.445
13:32:38.960,0.125,1.38
13:32:38.964,0.17,1.295
13:32:38.968,0.16,1.26
13:32:38.972,0.135,1.175
13:32:38.976,0.065,1.125
13:32:38.980,0.03,1.025
13:32:38.984,-0.075,0.95
13:32:38.988,-0.16,0.85
13:32:38.992,-0.195,0.83
13:32:38.996,-0.125,0.755
13:32:39.000,-0.14,0.685
13:32:39.004,-0.2,0.65
13:32:39.008,-0.24,0.6
13:32:39.012,-0.22,0.58
13:32:39.016,-0.24,0.575
13:32:39.020,-0.235,0.56
13:32:39.024,-0.245,0.545
13:32:39.028,-0.28,0.535
13:32:39.032,-0.295,0.48
13:32:39.036,-0.315,0.485
13:32:39.040,-0.285,0.48
13:32:39.044,-0.195,0.475
13:32:39.048,-0.1,0.5
13:32:39.052,-0.2,0.49
13:32:39.056,-0.345,0.5
13:32:39.060,-0.375,0.535
13:32:39.064,-0.32,0.52
13:32:39.068,-0.245,0.53
13:32:39.072,-0.23,0.56
13:32:39.076,-0.23,0.55
13:32:39.080,-0.2,0.555
13:32:39.084,-0.245,0.52
13:32:39.088,-0.285,0.515
13:32:39.092,-0.205,0.49
13:32:39.096,-0.01,0.49
13:32:39.100,0.27,0.48
13:32:39.104,0.34,0.545
13:32:39.108,0.12,0.615
13:32:39.112,-0.3,0.73
13:32:39.116,-0.935,0.755
13:32:39.120,-1.45,0.555
13:32:39.124,-1.89,0.12
13:32:39.128,-2.13,-0.44
13:32:39.132,-2.185,-1.3
13:32:39.136,-2.16,-2.37
13:32:39.140,-2.07,-3.31
13:32:39.144,-1.935,-3.98
13:32:39.148,-1.87,-4.465
13:32:39.152,-1.9,-4.745
13:32:39.156,-2.035,-4.88
13:32:39.160,-2.245,-4.985
13:32:39.164,-2.365,-4.955
13:32:39.168,-2.3,-4.95
13:32:39.172,-2.035,-4.87
13:32:39.176,-1.84,-4.805
13:32:39.180,-1.745,-4.75
13:32:39.184,-1.735,-4.69
13:32:39.188,-1.635,-4.6
13:32:39.192,-1.41,-4.34
13:32:39.196,-1.195,-4.02
13:32:39.200,-1.015,-3.635
13:32:39.204,-0.97,-3.18
13:32:39.208,-0.935,-2.64
13:32:39.212,-0.795,-2.06
13:32:39.216,-0.56,-1.495
13:32:39.220,-0.385,-1.03
13:32:39.224,-0.245,-0.62
13:32:39.228,-0.14,-0.32
13:32:39.232,-0.01,-0.07
13:32:39.236,0.055,0.15
13:32:39.240,0.0,0.375
13:32:39.244,-0.045,0.62
13:32:39.248,-0.08,0.785
13:32:39.252,-0.1,0.94
13:32:39.256,-0.06,1.035
13:32:39.260,0.02,1.09
13:32:39.264,0.07,1.175
13:32:39.268,0.09,1.185
13:32:39.272,0.11,1.2
13:32:39.276,0.135,1.205
13:32:39.280,0.135,1.24
13:32:39.284,0.1,1.265
13:32:39.288,0.08,1.28
13:32:39.292,0.045,1.315
13:32:39.296,0.065,1.345
13:32:39.300,0.15,1.345
13:32:39.304,0.245,1.395
13:32:39.308,0.325,1.43
13:32:39.312,0.35,1.47
13:32:39.316,0.34,1.51
13:32:39.320,0.345,1.51
13:32:39.324,0.33,1.54
13:32:39.328,0.34,1.565
13:32:39.332,0.41,1.6
13:32:39.336,0.44,1.63
13:32:39.340,0.46,1.66
13:32:39.344,0.44,1.7
13:32:39.348,0.465,1.715
13:32:39.352,0.54,1.695
13:32:39.356,0.54,1.725
13:32:39.360,0.47,1.715
13:32:39.364,0.395,1.73
13:32:39.368,0.34,1.73
13:32:39.372,0.295,1.705
13:32:39.376,0.295,1.695
13:32:39.380,0.3,1.695
13:32:39.384,0.28,1.7
13:32:39.388,0.25,1.7
13:32:39.392,0.255,1.675
13:32:39.396,0.285,1.655
13:32:39.400,0.285,1.65
13:32:39.404,0.26,1.6
13:32:39.408,0.19,1.535
13:32:39.412,0.18,1.495
13:32:39.416,0.145,1.44
13:32:39.420,0.02,1.405
13:32:39.424,-0.08,1.32
13:32:39.428,-0.1,1.25
13:32:39.432,-0.08,1.18
13:32:39.436,-0.06,1.105
13:32:39.440,-0.015,1.025
13:32:39.444,0.005,0.98
13:32:39.448,-0.11,0.9
13:32:39.452,-0.26,0.84
13:32:39.456,-0.335,0.79
13:32:39.460,-0.415,0.74
13:32:39.464,-0.435,0.72
13:32:39.468,-0.35,0.675
13:32:39.472,-0.26,0.67
13:32:39.476,-0.18,0.63
13:32:39.480,-0.185,0.59
13:32:39.484,-0.275,0.565
13:32:39.488,-0.31,0.595
13:32:39.492,-0.32,0.545
13:32:39.496,-0.29,0.58
13:32:39.500,-0.265,0.58
13:32:39.504,-0.25,0.56
13:32:39.508,-0.255,0.59
13:32:39.512,-0.265,0.61
13:32:39.516,-0.265,0.605
13:32:39.520,-0.25,0.595
13:32:39.524,-0.19,0.555
13:32:39.528,-0.15,0.56
13:32:39.532,-0.145,0.575
13:32:39.536,-0.18,0.545
13:32:39.540,-0.165,0.52
13:32:39.544,-0.105,0.5
13:32:39.548,0.07,0.45
13:32:39.552,0.25,0.45
13:32:39.556,0.225,0.46
13:32:39.560,0.05,0.53
13:32:39.564,-0.29,0.605
13:32:39.568,-0.835,0.61
13:32:39.572,-1.44,0.32
13:32:39.576,-2.005,-0.16
13:32:39.580,-2.25,-0.76
13:32:39.584,-2.25,-1.67
13:32:39.588,-2.235,-2.745
13:32:39.592,-2.275,-3.56
13:32:39.596,-2.32,-4.2
13:32:39.600,-2.305,-4.625
13:32:39.604,-2.195,-4.835
13:32:39.608,-2.04,-4.965
13:32:39.612,-1.945,-4.975
13:32:39.616,-1.905,-4.96
13:32:39.620,-1.835,-4.89
13:32:39.624,-1.73,-4.84
13:32:39.628,-1.63,-4.78
13:32:39.632,-1.55,-4.73
13:32:39.636,-1.445,-4.61
13:32:39.640,-1.315,-4.38
13:32:39.644,-1.19,-4.055
13:32:39.648,-1.11,-3.67
13:32:39.652,-1.015,-3.24
13:32:39.656,-0.865,-2.66
13:32:39.660,-0.69,-2.035
13:32:39.664,-0.525,-1.47
13:32:39.668,-0.355,-1.055
13:32:39.672,-0.16,-0.595
13:32:39.676,-0.04,-0.27
13:32:39.680,-0.025,-0.015
13:32:39.684,-0.045,0.235
13:32:39.688,-0.11,0.44
13:32:39.692,-0.13,0.66
13:32:39.696,-0.06,0.855
13:32:39.700,0.035,0.965
13:32:39.704,0.12,1.105
13:32:39.708,0.185,1.185
13:32:39.712,0.175,1.24
13:32:39.716,0.11,1.245
13:32:39.720,0.09,1.295
13:32:39.724,0.095,1.315
13:32:39.728,0.125,1.325
13:32:39.732,0.225,1.32
13:32:39.736,0.335,1.34
13:32:39.740,0.425,1.35
13:32:39.744,0.355,1.35
13:32:39.748,0.17,1.365
13:32:39.752,0.065,1.375
13:32:39.756,0.165,1.395
13:32:39.760,0.25,1.395
13:32:39.764,0.255,1.4
13:32:39.768,0.275,1.445
13:32:39.772,0.29,1.44
13:32:39.776,0.36,1.465
13:32:39.780,0.45,1.52
13:32:39.784,0.5,1.56
13:32:39.788,0.5,1.575
13:32:39.792,0.535,1.63
13:32:39.796,0.575,1.64
13:32:39.800,0.605,1.655
13:32:39.804,0.6,1.66
13:32:39.808,0.465,1.685
13:32:39.812,0.375,1.695
13:32:39.816,0.445,1.685
13:32:39.820,0.465,1.74
13:32:39.824,0.425,1.74
13:32:39.828,0.34,1.715
13:32:39.832,0.31,1.7
13:32:39.836,0.335,1.71
13:32:39.840,0.32,1.7
13:32:39.844,0.34,1.665
13:32:39.848,0.36,1.63
13:32:39.852,0.255,1.58
13:32:39.856,0.14,1.525
13:32:39.860,0.115,1.425
13:32:39.864,0.12,1.375
13:32:39.868,0.12,1.305
13:32:39.872,0.155,1.245
13:32:39.876,0.09,1.17
13:32:39.880,-0.05,1.115
13:32:39.884,-0.09,1.055
13:32:39.888,-0.01,0.97
13:32:39.892,0.0,0.9
13:32:39.896,-0.105,0.88
13:32:39.900,-0.26,0.8
13:32:39.904,-0.29,0.725
13:32:39.908,-0.205,0.655
13:32:39.912,-0.1,0.62
13:32:39.916,-0.105,0.57
13:32:39.920,-0.13,0.535
13:32:39.924,-0.175,0.485
13:32:39.928,-0.175,0.445
13:32:39.932,-0.08,0.42
13:32:39.936,-0.065,0.425
13:32:39.940,-0.215,0.415
13:32:39.944,-0.385,0.405
13:32:39.948,-0.37,0.375
13:32:39.952,-0.305,0.355
13:32:39.956,-0.22,0.355
13:32:39.960,-0.25,0.385
13:32:39.964,-0.345,0.38
13:32:39.968,-0.385,0.335
13:32:39.972,-0.355,0.315
13:32:39.976,-0.235,0.32
13:32:39.980,-0.19,0.34
13:32:39.984,-0.27,0.355
13:32:39.988,-0.31,0.39
13:32:39.992,-0.245,0.385
13:32:39.996,-0.16,0.37
13:32:40.000,-0.135,0.39
13:32:40.004,-0.22,0.38
13:32:40.008,-0.28,0.395
13:32:40.012,-0.245,0.4
13:32:40.016,-0.195,0.395
13:32:40.020,-0.195,0.425
13:32:40.024,-0.275,0.39
13:32:40.028,-0.31,0.37
13:32:40.032,-0.28,0.35
13:32:40.036,-0.265,0.34
13:32:40.040,-0.25,0.34
13:32:40.044,-0.23,0.34
13:32:40.048,-0.235,0.345
13:32:40.052,-0.285,0.35
13:32:40.056,-0.295,0.35
13:32:40.060,-0.285,0.335
13:32:40.064,-0.315,0.325
13:32:40.068,-0.345,0.31
13:32:40.072,-0.36,0.305
13:32:40.076,-0.305,0.305
13:32:40.080,-0.305,0.3
13:32:40.084,-0.3,0.31
13:32:40.088,-0.26,0.28
13:32:40.092,-0.28,0.28
13:32:40.096,-0.415,0.25
13:32:40.100,-0.475,0.23
13:32:40.104,-0.44,0.23
13:32:40.108,-0.425,0.225
13:32:40.112,-0.42,0.245
13:32:40.116,-0.305,0.235
13:32:40.120,-0.195,0.23
13:32:40.124,-0.155,0.225
13:32:40.128,-0.175,0.215
13:32:40.132,-0.165,0.185
13:32:40.136,-0.16,0.205
13:32:40.140,-0.25,0.23
13:32:40.144,-0.34,0.245
13:32:40.148,-0.39,0.255
13:32:40.152,-0.335,0.28
13:32:40.156,-0.225,0.305
13:32:40.160,-0.14,0.295
13:32:40.164,-0.1,0.32
13:32:40.168,-0.145,0.365
13:32:40.172,-0.13,0.38
13:32:40.176,-0.11,0.38
13:32:40.180,-0.06,0.355
13:32:40.184,0.1,0.35
13:32:40.188,0.165,0.375
13:32:40.192,0.005,0.415
13:32:40.196,-0.29,0.47
13:32:40.200,-0.57,0.47
13:32:40.204,-0.895,0.245
13:32:40.208,-1.375,-0.21
13:32:40.212,-1.79,-0.75
13:32:40.216,-1.98,-1.55
13:32:40.220,-1.895,-2.605
13:32:40.224,-1.68,-3.545
13:32:40.228,-1.745,-4.19
13:32:40.232,-1.99,-4.68
13:32:40.236,-2.03,-4.95
13:32:40.240,-1.855,-5.1
13:32:40.244,-1.68,-5.13
13:32:40.248,-1.635,-5.105
13:32:40.252,-1.715,-5.01
13:32:40.256,-1.6,-4.94
13:32:40.260,-1.425,-4.86
13:32:40.264,-1.275,-4.795
13:32:40.268,-1.2,-4.685
13:32:40.272,-1.08,-4.53
13:32:40.276,-0.87,-4.24
13:32:40.280,-0.755,-3.905
13:32:40.284,-0.74,-3.495
13:32:40.288,-0.745,-3.04
13:32:40.292,-0.705,-2.52
13:32:40.296,-0.595,-1.93
13:32:40.300,-0.445,-1.44
13:32:40.304,-0.285,-1.035
13:32:40.308,-0.115,-0.66
13:32:40.312,0.02,-0.365
13:32:40.316,0.16,-0.145
13:32:40.320,0.22,0.085
13:32:40.324,0.17,0.335
13:32:40.328,0.06,0.52
13:32:40.332,0.055,0.675
13:32:40.336,0.165,0.8
13:32:40.340,0.2,0.925
13:32:40.344,0.265,0.99
13:32:40.348,0.335,1.045
13:32:40.352,0.26,1.075
13:32:40.356,0.14,1.155
13:32:40.360,0.115,1.19
13:32:40.364,0.13,1.18
13:32:40.368,0.165,1.215
13:32:40.372,0.24,1.245
13:32:40.376,0.305,1.26
13:32:40.380,0.41,1.26
13:32:40.384,0.48,1.245
13:32:40.388,0.53,1.265
13:32:40.392,0.535,1.295
13:32:40.396,0.52,1.32
13:32:40.400,0.56,1.355
13:32:40.404,0.63,1.37
13:32:40.408,0.605,1.395
13:32:40.412,0.535,1.41
13:32:40.416,0.445,1.45
13:32:40.420,0.39,1.47
13:32:40.424,0.435,1.495
13:32:40.428,0.55,1.515
13:32:40.432,0.66,1.53
13:32:40.436,0.645,1.56
13:32:40.440,0.6,1.585
13:32:40.444,0.59,1.63
13:32:40.448,0.61,1.655
13:32:40.452,0.57,1.66
13:32:40.456,0.58,1.67
13:32:40.460,0.62,1.685
13:32:40.464,0.635,1.685
13:32:40.468,0.675,1.7
13:32:40.472,0.7,1.695
13:32:40.476,0.635,1.67
13:32:40.480,0.595,1.65
13:32:40.484,0.595,1.64
13:32:40.488,0.605,1.615
13:32:40.492,0.575,1.605
13:32:40.496,0.515,1.555
13:32:40.500,0.365,1.525
13:32:40.504,0.28,1.465
13:32:40.508,0.195,1.38
13:32:40.512,0.155,1.33
13:32:40.516,0.185,1.265
13:32:40.520,0.21,1.205
13:32:40.524,0.18,1.175
13:32:40.528,0.15,1.095
13:32:40.532,0.115,1.035
13:32:40.536,0.1,0.97
13:32:40.540,0.09,0.93
13:32:40.544,0.085,0.855
13:32:40.548,0.11,0.79
13:32:40.552,0.14,0.76
13:32:40.556,0.18,0.665
13:32:40.560,0.175,0.6
13:32:40.564,0.14,0.535
13:32:40.568,0.075,0.495
13:32:40.572,0.065,0.455
13:32:40.576,0.025,0.415
13:32:40.580,-0.015,0.385
13:32:40.584,-0.065,0.305
13:32:40.588,-0.14,0.325
13:32:40.592,-0.24,0.285
13:32:40.596,-0.225,0.275
13:32:40.600,-0.185,0.275
13:32:40.604,-0.07,0.26
13:32:40.608,0.115,0.29
13:32:40.612,0.315,0.27
13:32:40.616,0.365,0.29
13:32:40.620,0.22,0.355
13:32:40.624,-0.11,0.44
13:32:40.628,-0.63,0.45
13:32:40.632,-1.22,0.245
13:32:40.636,-1.675,-0.14
13:32:40.640,-1.95,-0.67
13:32:40.644,-2.015,-1.505
13:32:40.648,-1.95,-2.475
13:32:40.652,-1.925,-3.28
13:32:40.656,-1.985,-3.975
13:32:40.660,-2.065,-4.45
13:32:40.664,-2.055,-4.74
13:32:40.668,-1.985,-4.87
13:32:40.672,-1.885,-4.875
13:32:40.676,-1.76,-4.775
13:32:40.680,-1.69,-4.65
13:32:40.684,-1.555,-4.545
13:32:40.688,-1.44,-4.46
13:32:40.692,-1.37,-4.345
13:32:40.696,-1.23,-4.16
13:32:40.700,-0.99,-3.855
13:32:40.704,-0.83,-3.5
13:32:40.708,-0.715,-3.105
13:32:40.712,-0.585,-2.575
13:32:40.716,-0.445,-2.005
13:32:40.720,-0.32,-1.54
13:32:40.724,-0.19,-1.105
13:32:40.728,0.005,-0.735
13:32:40.732,0.115,-0.37
13:32:40.736,0.15,-0.11
13:32:40.740,0.235,0.1
13:32:40.744,0.325,0.3
13:32:40.748,0.305,0.47
13:32:40.752,0.185,0.62
13:32:40.756,0.12,0.74
13:32:40.760,0.175,0.815
13:32:40.764,0.235,0.855
13:32:40.768,0.305,0.865
13:32:40.772,0.4,0.895
13:32:40.776,0.4,0.915
13:32:40.780,0.27,0.955
13:32:40.784,0.195,0.95
13:32:40.788,0.275,0.98
13:32:40.792,0.33,1.015
13:32:40.796,0.295,1.045
13:32:40.800,0.23,1.045
13:32:40.804,0.185,1.075
13:32:40.808,0.22,1.065
13:32:40.812,0.27,1.1
13:32:40.816,0.315,1.095
13:32:40.820,0.34,1.13
13:32:40.824,0.33,1.185
13:32:40.828,0.325,1.215
13:32:40.832,0.39,1.245
13:32:40.836,0.425,1.245
13:32:40.840,0.355,1.275
13:32:40.844,0.29,1.285
13:32:40.848,0.29,1.305
13:32:40.852,0.25,1.31
13:32:40.856,0.205,1.315
13:32:40.860,0.14,1.33
13:32:40.864,0.15,1.345
13:32:40.868,0.235,1.35
13:32:40.872,0.355,1.395
13:32:40.876,0.365,1.395
13:32:40.880,0.27,1.38
13:32:40.884,0.165,1.375
13:32:40.888,0.2,1.38
13:32:40.892,0.25,1.35
13:32:40.896,0.265,1.335
13:32:40.900,0.25,1.35
13:32:40.904,0.275,1.335
13:32:40.908,0.265,1.29
13:32:40.912,0.145,1.265
13:32:40.916,0.075,1.23
13:32:40.920,0.065,1.195
13:32:40.924,0.01,1.125
13:32:40.928,-0.005,1.055
13:32:40.932,0.0,0.98
13:32:40.936,0.005,0.895
13:32:40.940,0.025,0.815
13:32:40.944,0.05,0.74
13:32:40.948,0.02,0.65
13:32:40.952,-0.035,0.59
13:32:40.956,-0.08,0.565
13:32:40.960,-0.12,0.525
13:32:40.964,-0.11,0.48
13:32:40.968,-0.165,0.435
13:32:40.972,-0.185,0.41
13:32:40.976,-0.17,0.36
13:32:40.980,-0.16,0.32
13:32:40.984,-0.155,0.3
13:32:40.988,-0.13,0.295
13:32:40.992,-0.125,0.3
13:32:40.996,-0.09,0.275
13:32:41.000,-0.085,0.27
13:32:41.004,-0.08,0.29
13:32:41.008,-0.135,0.295
13:32:41.012,-0.07,0.295
13:32:41.016,0.22,0.29
13:32:41.020,0.52,0.315
13:32:41.024,0.58,0.365
13:32:41.028,0.365,0.445
13:32:41.032,-0.035,0.525
13:32:41.036,-0.575,0.495
13:32:41.040,-1.08,0.205
13:32:41.044,-1.42,-0.23
13:32:41.048,-1.555,-0.855
13:32:41.052,-1.505,-1.82
13:32:41.056,-1.33,-2.815
13:32:41.060,-1.13,-3.575
13:32:41.064,-1.145,-4.215
13:32:41.068,-1.26,-4.635
13:32:41.072,-1.24,-4.855
13:32:41.076,-1.215,-5.0
13:32:41.080,-1.32,-4.985
13:32:41.084,-1.395,-4.93
13:32:41.088,-1.305,-4.86
13:32:41.092,-1.255,-4.765
13:32:41.096,-1.28,-4.68
13:32:41.100,-1.175,-4.62
13:32:41.104,-0.965,-4.51
13:32:41.108,-0.89,-4.25
13:32:41.112,-0.86,-3.945
13:32:41.116,-0.845,-3.56
13:32:41.120,-0.815,-3.155
13:32:41.124,-0.74,-2.66
13:32:41.128,-0.66,-2.085
13:32:41.132,-0.565,-1.575
13:32:41.136,-0.475,-1.15
13:32:41.140,-0.41,-0.785
13:32:41.144,-0.36,-0.455
13:32:41.148,-0.3,-0.24
13:32:41.152,-0.185,-0.03
13:32:41.156,-0.08,0.17
13:32:41.160,-0.08,0.375
13:32:41.164,-0.025,0.535
13:32:41.168,0.085,0.695
13:32:41.172,0.16,0.805
13:32:41.176,0.06,0.89
13:32:41.180,-0.06,0.945
13:32:41.184,-0.085,0.965
13:32:41.188,-0.005,0.995
13:32:41.192,0.125,1.03
13:32:41.196,0.23,1.08
13:32:41.200,0.31,1.12
13:32:41.204,0.31,1.125
13:32:41.208,0.25,1.125
13:32:41.212,0.195,1.16
13:32:41.216,0.155,1.165
13:32:41.220,0.2,1.2
13:32:41.224,0.29,1.25
13:32:41.228,0.33,1.27
13:32:41.232,0.35,1.32
13:32:41.236,0.395,1.345
13:32:41.240,0.355,1.355
13:32:41.244,0.22,1.4
13:32:41.248,0.18,1.4
13:32:41.252,0.31,1.415
13:32:41.256,0.365,1.445
13:32:41.260,0.36,1.485
13:32:41.264,0.31,1.485
13:32:41.268,0.39,1.525
13:32:41.272,0.445,1.56
13:32:41.276,0.455,1.585
13:32:41.280,0.465,1.6
13:32:41.284,0.375,1.59
13:32:41.288,0.29,1.605
13:32:41.292,0.285,1.58
13:32:41.296,0.355,1.54
13:32:41.300,0.365,1.505
13:32:41.304,0.41,1.47
13:32:41.308,0.35,1.46
13:32:41.312,0.21,1.45
13:32:41.316,0.125,1.415
13:32:41.320,0.13,1.35
13:32:41.324,0.165,1.325
13:32:41.328,0.165,1.26
13:32:41.332,0.08,1.22
13:32:41.336,0.01,1.15
13:32:41.340,-0.04,1.095
13:32:41.344,-0.06,1.04
13:32:41.348,-0.045,0.97
13:32:41.352,0.025,0.93
13:32:41.356,0.02,0.86
13:32:41.360,-0.145,0.81
13:32:41.364,-0.265,0.75
13:32:41.368,-0.215,0.69
13:32:41.372,-0.175,0.625
13:32:41.376,-0.095,0.6
13:32:41.380,-0.02,0.55
13:32:41.384,-0.06,0.515
13:32:41.388,-0.24,0.475
13:32:41.392,-0.305,0.44
13:32:41.396,-0.255,0.405
13:32:41.400,-0.29,0.405
13:32:41.404,-0.405,0.395
13:32:41.408,-0.49,0.39
13:32:41.412,-0.51,0.39
13:32:41.416,-0.435,0.38
13:32:41.420,-0.335,0.39
13:32:41.424,-0.25,0.37
13:32:41.428,-0.2,0.365
13:32:41.432,-0.32,0.35
13:32:41.436,-0.505,0.36
13:32:41.440,-0.565,0.345
13:32:41.444,-0.5,0.35
13:32:41.448,-0.395,0.35
13:32:41.452,-0.315,0.345
13:32:41.456,-0.26,0.31
13:32:41.460,-0.29,0.28
13:32:41.464,-0.305,0.275
13:32:41.468,-0.335,0.24
13:32:41.472,-0.405,0.215
13:32:41.476,-0.365,0.225
13:32:41.480,-0.32,0.215
13:32:41.484,-0.185,0.235
13:32:41.488,-0.005,0.225
13:32:41.492,-0.065,0.225
13:32:41.496,-0.26,0.225
13:32:41.500,-0.415,0.215
13:32:41.504,-0.495,0.22
13:32:41.508,-0.39,0.235
13:32:41.512,-0.33,0.225
13:32:41.516,-0.235,0.29
13:32:41.520,-0.165,0.295
13:32:41.524,-0.205,0.29
13:32:41.528,-0.25,0.305
13:32:41.532,-0.375,0.31
13:32:41.536,-0.5,0.265
13:32:41.540,-0.48,0.305
13:32:41.544,-0.44,0.265
13:32:41.548,-0.46,0.295
13:32:41.552,-0.495,0.295
13:32:41.556,-0.44,0.255
13:32:41.560,-0.37,0.25
13:32:41.564,-0.4,0.265
13:32:41.568,-0.42,0.255
13:32:41.572,-0.32,0.255
13:32:41.576,-0.18,0.28
13:32:41.580,-0.175,0.305
13:32:41.584,-0.365,0.295
13:32:41.588,-0.41,0.28
13:32:41.592,-0.4,0.28
13:32:41.596,-0.5,0.285
13:32:41.600,-0.64,0.29
13:32:41.604,-0.705,0.275
13:32:41.608,-0.67,0.28
13:32:41.612,-0.64,0.275
13:32:41.616,-0.545,0.305
13:32:41.620,-0.38,0.27
13:32:41.624,-0.375,0.27
13:32:41.628,-0.485,0.25
13:32:41.632,-0.48,0.285
13:32:41.636,-0.365,0.25
13:32:41.640,-0.31,0.225
13:32:41.644,-0.375,0.225
13:32:41.648,-0.45,0.225
13:32:41.652,-0.335,0.21
13:32:41.656,-0.135,0.22
13:32:41.660,-0.015,0.245
13:32:41.664,-0.09,0.245
13:32:41.668,-0.28,0.21
13:32:41.672,-0.485,0.175
13:32:41.676,-0.54,0.175
13:32:41.680,-0.495,0.19
13:32:41.684,-0.355,0.17
13:32:41.688,-0.24,0.18
13:32:41.692,-0.17,0.175
13:32:41.696,-0.18,0.175
13:32:41.700,-0.205,0.14
13:32:41.704,-0.22,0.115
13:32:41.708,-0.265,0.145
13:32:41.712,-0.225,0.155
13:32:41.716,-0.065,0.155
13:32:41.720,0.035,0.155
13:32:41.724,-0.035,0.225
13:32:41.728,-0.38,0.315
13:32:41.732,-0.985,0.355
13:32:41.736,-1.52,0.08
13:32:41.740,-1.845,-0.395
13:32:41.744,-1.97,-0.98
13:32:41.748,-2.0,-1.805
13:32:41.752,-1.9,-2.8
13:32:41.756,-1.85,-3.61
13:32:41.760,-1.98,-4.21
13:32:41.764,-2.13,-4.685
13:32:41.768,-2.18,-4.975
13:32:41.772,-2.07,-5.095
13:32:41.776,-1.96,-5.18
13:32:41.780,-1.91,-5.19
13:32:41.784,-1.945,-5.125
13:32:41.788,-1.895,-5.065
13:32:41.792,-1.81,-4.985
13:32:41.796,-1.655,-4.91
13:32:41.800,-1.615,-4.835
13:32:41.804,-1.59,-4.755
13:32:41.808,-1.49,-4.575
13:32:41.812,-1.305,-4.265
13:32:41.816,-1.015,-3.945
13:32:41.820,-0.835,-3.545
13:32:41.824,-0.96,-3.145
13:32:41.828,-1.14,-2.7
13:32:41.832,-1.105,-2.205
13:32:41.836,-0.945,-1.675
13:32:41.840,-0.745,-1.17
13:32:41.844,-0.475,-0.73
13:32:41.848,-0.29,-0.385
13:32:41.852,-0.255,-0.065
13:32:41.856,-0.225,0.15
13:32:41.860,-0.155,0.34
13:32:41.864,-0.02,0.5
13:32:41.868,0.185,0.675
13:32:41.872,0.355,0.785
13:32:41.876,0.295,0.92
13:32:41.880,0.115,1.035
13:32:41.884,0.005,1.085
13:32:41.888,-0.095,1.11
13:32:41.892,-0.105,1.1
13:32:41.896,0.035,1.16
13:32:41.900,0.16,1.215
13:32:41.904,0.245,1.25
13:32:41.908,0.215,1.265
13:32:41.912,0.12,1.275
13:32:41.916,0.08,1.3
13:32:41.920,0.11,1.315
13:32:41.924,0.31,1.335
13:32:41.928,0.43,1.355
13:32:41.932,0.165,1.395
13:32:41.936,-0.105,1.43
13:32:41.940,-0.18,1.455
13:32:41.944,-0.055,1.475
13:32:41.948,0.125,1.525
13:32:41.952,0.205,1.575
13:32:41.956,0.255,1.56
13:32:41.960,0.3,1.57
13:32:41.964,0.285,1.64
13:32:41.968,0.26,1.65
13:32:41.972,0.265,1.665
13:32:41.976,0.345,1.695
13:32:41.980,0.41,1.73
13:32:41.984,0.345,1.765
13:32:41.988,0.345,1.79
13:32:41.992,0.425,1.805
13:32:41.996,0.41,1.81
13:32:42.000,0.355,1.825
13:32:42.004,0.375,1.805
13:32:42.008,0.47,1.855
13:32:42.012,0.515,1.81
13:32:42.016,0.46,1.83
13:32:42.020,0.28,1.855
13:32:42.024,0.245,1.835
13:32:42.028,0.305,1.79
13:32:42.032,0.335,1.77
13:32:42.036,0.325,1.745
13:32:42.040,0.315,1.715
13:32:42.044,0.23,1.715
13:32:42.048,0.15,1.685
13:32:42.052,0.14,1.605
13:32:42.056,0.14,1.555
13:32:42.060,0.075,1.51
13:32:42.064,0.085,1.47
13:32:42.068,0.13,1.41
13:32:42.072,0.05,1.335
13:32:42.076,-0.035,1.275
13:32:42.080,-0.09,1.245
13:32:42.084,-0.115,1.175
13:32:42.088,-0.23,1.08
13:32:42.092,-0.365,1.01
13:32:42.096,-0.465,0.895
13:32:42.100,-0.43,0.795
13:32:42.104,-0.4,0.69
13:32:42.108,-0.45,0.635
13:32:42.112,-0.51,0.535
13:32:42.116,-0.51,0.505
13:32:42.120,-0.48,0.415
13:32:42.124,-0.395,0.37
13:32:42.128,-0.35,0.37
13:32:42.132,-0.48,0.375
13:32:42.136,-0.575,0.295
13:32:42.140,-0.575,0.245
13:32:42.144,-0.535,0.21
13:32:42.148,-0.455,0.195
13:32:42.152,-0.39,0.2
13:32:42.156,-0.29,0.165
13:32:42.160,-0.15,0.175
13:32:42.164,-0.035,0.165
13:32:42.168,-0.02,0.205
13:32:42.172,-0.145,0.28
13:32:42.176,-0.49,0.355
13:32:42.180,-1.035,0.345
13:32:42.184,-1.575,0.14
13:32:42.188,-1.965,-0.215
13:32:42.192,-2.12,-0.735
13:32:42.196,-2.245,-1.57
13:32:42.200,-2.28,-2.605
13:32:42.204,-2.26,-3.485
13:32:42.208,-2.42,-4.185
13:32:42.212,-2.615,-4.655
13:32:42.216,-2.675,-4.94
13:32:42.220,-2.635,-5.06
13:32:42.224,-2.52,-5.085
13:32:42.228,-2.43,-5.035
13:32:42.232,-2.375,-4.955
13:32:42.236,-2.31,-4.9
13:32:42.240,-2.215,-4.85
13:32:42.244,-2.045,-4.81
13:32:42.248,-1.83,-4.685
13:32:42.252,-1.51,-4.465
13:32:42.256,-1.315,-4.14
13:32:42.260,-1.155,-3.765
13:32:42.264,-0.995,-3.335
13:32:42.268,-0.79,-2.795
13:32:42.272,-0.66,-2.19
13:32:42.276,-0.475,-1.66
13:32:42.280,-0.31,-1.25
13:32:42.284,-0.21,-0.855
13:32:42.288,-0.26,-0.555
13:32:42.292,-0.3,-0.315
13:32:42.296,-0.225,-0.1
13:32:42.300,-0.055,0.125
13:32:42.304,0.01,0.31
13:32:42.308,-0.015,0.485
13:32:42.312,-0.115,0.605
13:32:42.316,-0.155,0.7
13:32:42.320,-0.115,0.74
13:32:42.324,-0.055,0.745
13:32:42.328,-0.08,0.78
13:32:42.332,-0.12,0.84
13:32:42.336,-0.175,0.855
13:32:42.340,-0.14,0.845
13:32:42.344,-0.06,0.875
13:32:42.348,0.015,0.9
13:32:42.352,0.04,0.94
13:32:42.356,0.04,0.97
13:32:42.360,-0.1,0.96
13:32:42.364,-0.21,0.945
13:32:42.368,-0.2,0.975
13:32:42.372,-0.095,0.975
13:32:42.376,0.01,1.005
13:32:42.380,0.025,1.045
13:32:42.384,-0.015,1.07
13:32:42.388,-0.035,1.08
13:32:42.392,-0.02,1.115
13:32:42.396,-0.01,1.145
13:32:42.400,-0.075,1.16
13:32:42.404,-0.155,1.155
13:32:42.408,-0.15,1.165
13:32:42.412,-0.09,1.18
13:32:42.416,-0.025,1.195
13:32:42.420,0.005,1.225
13:32:42.424,-0.085,1.24
13:32:42.428,-0.135,1.21
13:32:42.432,-0.03,1.24
13:32:42.436,0.115,1.265
13:32:42.440,0.135,1.27
13:32:42.444,-0.025,1.285
13:32:42.448,-0.155,1.265
13:32:42.452,-0.18,1.255
13:32:42.456,-0.2,1.23
13:32:42.460,-0.225,1.23
13:32:42.464,-0.175,1.23
13:32:42.468,-0.115,1.27
13:32:42.472,-0.09,1.235
13:32:42.476,-0.075,1.185
13:32:42.480,-0.05,1.14
13:32:42.484,-0.075,1.1
13:32:42.488,-0.105,1.025
13:32:42.492,-0.155,0.94
13:32:42.496,-0.225,0.855
13:32:42.500,-0.25,0.77
13:32:42.504,-0.225,0.735
13:32:42.508,-0.13,0.665
13:32:42.512,-0.05,0.585
13:32:42.516,-0.125,0.525
13:32:42.520,-0.39,0.495
13:32:42.524,-0.525,0.48
13:32:42.528,-0.52,0.435
13:32:42.532,-0.51,0.385
13:32:42.536,-0.475,0.345
13:32:42.540,-0.435,0.3
13:32:42.544,-0.42,0.26
13:32:42.548,-0.41,0.26
13:32:42.552,-0.385,0.235
13:32:42.556,-0.315,0.245
13:32:42.560,-0.26,0.195
13:32:42.564,-0.325,0.185
13:32:42.568,-0.345,0.165
13:32:42.572,-0.38,0.185
13:32:42.576,-0.425,0.16
13:32:42.580,-0.395,0.145
13:32:42.584,-0.46,0.145
13:32:42.588,-0.59,0.135
13:32:42.592,-0.65,0.125
13:32:42.596,-0.595,0.105
13:32:42.600,-0.53,0.07
13:32:42.604,-0.47,0.105
13:32:42.608,-0.465,0.09
13:32:42.612,-0.445,0.09
13:32:42.616,-0.43,0.085
13:32:42.620,-0.43,0.1
13:32:42.624,-0.4,0.09
13:32:42.628,-0.315,0.06
13:32:42.632,-0.29,0.07
13:32:42.636,-0.4,0.1
13:32:42.640,-0.44,0.105
13:32:42.644,-0.44,0.105
13:32:42.648,-0.495,0.11
13:32:42.652,-0.58,0.13
13:32:42.656,-0.5,0.125
13:32:42.660,-0.32,0.115
13:32:42.664,-0.3,0.1
13:32:42.668,-0.41,0.09
13:32:42.672,-0.505,0.07
13:32:42.676,-0.475,0.06
13:32:42.680,-0.49,0.015
13:32:42.684,-0.515,0.04
13:32:42.688,-0.48,0.035
13:32:42.692,-0.415,0.03
13:32:42.696,-0.42,0.05
13:32:42.700,-0.465,0.02
13:32:42.704,-0.45,0.015
13:32:42.708,-0.435,0.02
13:32:42.712,-0.435,0.0
13:32:42.716,-0.385,0.0
13:32:42.720,-0.38,0.0
13:32:42.724,-0.51,-0.01
13:32:42.728,-0.64,-0.025
13:32:42.732,-0.645,-0.06
13:32:42.736,-0.65,-0.04
13:32:42.740,-0.635,0.005
13:32:42.744,-0.655,0.0
13:32:42.748,-0.61,0.005
13:32:42.752,-0.56,-0.02
13:32:42.756,-0.44,-0.04
13:32:42.760,-0.4,-0.02
13:32:42.764,-0.47,-0.02
13:32:42.768,-0.575,-0.04
13:32:42.772,-0.595,-0.065
13:32:42.776,-0.575,-0.11
13:32:42.780,-0.58,-0.095
13:32:42.784,-0.5,-0.075
13:32:42.788,-0.32,-0.07
13:32:42.792,-0.2,-0.035
13:32:42.796,-0.235,0.005
13:32:42.800,-0.44,0.07
13:32:42.804,-0.76,0.12
13:32:42.808,-1.195,0.045
13:32:42.812,-1.595,-0.305
13:32:42.816,-1.86,-0.8
13:32:42.820,-2.035,-1.465
13:32:42.824,-2.12,-2.4
13:32:42.828,-2.04,-3.36
13:32:42.832,-1.84,-4.095
13:32:42.836,-1.7,-4.63
13:32:42.840,-1.83,-4.965
13:32:42.844,-2.03,-5.17
13:32:42.848,-2.06,-5.28
13:32:42.852,-1.95,-5.32
13:32:42.856,-1.865,-5.265
13:32:42.860,-1.775,-5.17
13:32:42.864,-1.585,-5.045
13:32:42.868,-1.5,-4.96
13:32:42.872,-1.535,-4.88
13:32:42.876,-1.515,-4.795
13:32:42.880,-1.39,-4.65
13:32:42.884,-1.185,-4.405
13:32:42.888,-0.975,-4.075
13:32:42.892,-0.865,-3.725
13:32:42.896,-0.855,-3.32
13:32:42.900,-0.89,-2.905
13:32:42.904,-0.88,-2.365
13:32:42.908,-0.725,-1.83
13:32:42.912,-0.595,-1.395
13:32:42.916,-0.48,-1.03
13:32:42.920,-0.36,-0.705
13:32:42.924,-0.26,-0.43
13:32:42.928,-0.2,-0.23
13:32:42.932,-0.145,-0.025
13:32:42.936,-0.1,0.18
13:32:42.940,-0.075,0.33
13:32:42.944,-0.1,0.48
13:32:42.948,-0.115,0.575
13:32:42.952,-0.06,0.7
13:32:42.956,0.025,0.76
13:32:42.960,0.08,0.825
13:32:42.964,0.05,0.84
13:32:42.968,0.01,0.875
13:32:42.972,0.07,0.91
13:32:42.976,0.2,0.95
13:32:42.980,0.24,0.965
13:32:42.984,0.135,1.0
13:32:42.988,0.065,1.035
13:32:42.992,0.045,1.055
13:32:42.996,0.11,1.1
13:32:43.000,0.2,1.125
13:32:43.004,0.225,1.175
13:32:43.008,0.195,1.21
13:32:43.012,0.195,1.225
13:32:43.016,0.215,1.265
13:32:43.020,0.275,1.29
13:32:43.024,0.33,1.3
13:32:43.028,0.31,1.335
13:32:43.032,0.28,1.32
13:32:43.036,0.295,1.315
13:32:43.040,0.33,1.34
13:32:43.044,0.36,1.38
13:32:43.048,0.39,1.41
13:32:43.052,0.395,1.405
13:32:43.056,0.4,1.445
13:32:43.060,0.4,1.46
13:32:43.064,0.42,1.5
13:32:43.068,0.435,1.52
13:32:43.072,0.44,1.52
13:32:43.076,0.42,1.54
13:32:43.080,0.41,1.54
13:32:43.084,0.465,1.54
13:32:43.088,0.515,1.54
13:32:43.092,0.42,1.535
13:32:43.096,0.33,1.54
13:32:43.100,0.23,1.5
13:32:43.104,0.08,1.485
13:32:43.108,-0.005,1.455
13:32:43.112,-0.005,1.4
13:32:43.116,-0.02,1.35
13:32:43.120,-0.035,1.315
13:32:43.124,-0.04,1.24
13:32:43.128,-0.055,1.165
13:32:43.132,-0.075,1.105
13:32:43.136,-0.085,1.08
13:32:43.140,-0.12,1.005
13:32:43.144,-0.145,0.94
13:32:43.148,-0.105,0.885
13:32:43.152,-0.07,0.795
13:32:43.156,-0.185,0.735
13:32:43.160,-0.365,0.685
13:32:43.164,-0.455,0.605
13:32:43.168,-0.425,0.555
13:32:43.172,-0.4,0.515
13:32:43.176,-0.37,0.5
13:32:43.180,-0.395,0.45
13:32:43.184,-0.42,0.4
13:32:43.188,-0.355,0.36
13:32:43.192,-0.245,0.31
13:32:43.196,-0.31,0.26
13:32:43.200,-0.52,0.235
13:32:43.204,-0.65,0.15
13:32:43.208,-0.59,0.11
13:32:43.212,-0.495,0.115
13:32:43.216,-0.485,0.135
13:32:43.220,-0.51,0.145
13:32:43.224,-0.54,0.12
13:32:43.228,-0.54,0.1
13:32:43.232,-0.52,0.11
13:32:43.236,-0.485,0.11
13:32:43.240,-0.47,0.12
13:32:43.244,-0.41,0.135
13:32:43.248,-0.365,0.13
13:32:43.252,-0.375,0.125
13:32:43.256,-0.36,0.1
13:32:43.260,-0.33,0.09
13:32:43.264,-0.39,0.11
13:32:43.268,-0.46,0.14
13:32:43.272,-0.525,0.11
13:32:43.276,-0.525,0.15
13:32:43.280,-0.55,0.15
13:32:43.284,-0.55,0.18
13:32:43.288,-0.52,0.185
13:32:43.292,-0.44,0.205
13:32:43.296,-0.44,0.2
13:32:43.300,-0.55,0.19
13:32:43.304,-0.57,0.18
13:32:43.308,-0.545,0.185
13:32:43.312,-0.51,0.175
13:32:43.316,-0.495,0.195
13:32:43.320,-0.49,0.185
13:32:43.324,-0.475,0.19
13:32:43.328,-0.5,0.175
13:32:43.332,-0.485,0.205
13:32:43.336,-0.485,0.205
13:32:43.340,-0.475,0.17
13:32:43.344,-0.445,0.145
13:32:43.348,-0.41,0.15
13:32:43.352,-0.4,0.115
13:32:43.356,-0.45,0.11
13:32:43.360,-0.475,0.085
13:32:43.364,-0.47,0.065
13:32:43.368,-0.445,0.06
13:32:43.372,-0.435,0.05
13:32:43.376,-0.44,0.01
13:32:43.380,-0.41,0.02
13:32:43.384,-0.42,-0.045
13:32:43.388,-0.415,-0.06
13:32:43.392,-0.37,-0.06
13:32:43.396,-0.34,-0.075
13:32:43.400,-0.36,-0.105
13:32:43.404,-0.4,-0.095
13:32:43.408,-0.445,-0.095
13:32:43.412,-0.505,-0.08
13:32:43.416,-0.525,-0.065
13:32:43.420,-0.525,-0.075
13:32:43.424,-0.475,-0.08
13:32:43.428,-0.33,-0.09
13:32:43.432,-0.195,-0.105
13:32:43.436,-0.05,-0.09
13:32:43.440,-0.06,-0.045
13:32:43.444,-0.22,0.07
13:32:43.448,-0.435,0.18
13:32:43.452,-0.79,0.175
13:32:43.456,-1.17,-0.18
13:32:43.460,-1.37,-0.69
13:32:43.464,-1.57,-1.36
13:32:43.468,-1.75,-2.37
13:32:43.472,-1.78,-3.38
13:32:43.476,-1.74,-4.145
13:32:43.480,-1.76,-4.655
13:32:43.484,-1.85,-4.99
13:32:43.488,-1.875,-5.18
13:32:43.492,-1.775,-5.28
13:32:43.496,-1.615,-5.28
13:32:43.500,-1.54,-5.225
13:32:43.504,-1.625,-5.13
13:32:43.508,-1.66,-5.075
13:32:43.512,-1.625,-4.995
13:32:43.516,-1.625,-4.925
13:32:43.520,-1.475,-4.84
13:32:43.524,-1.305,-4.68
13:32:43.528,-1.09,-4.41
13:32:43.532,-1.02,-4.085
13:32:43.536,-0.99,-3.71
13:32:43.540,-0.94,-3.255
13:32:43.544,-0.855,-2.75
13:32:43.548,-0.735,-2.17
13:32:43.552,-0.575,-1.64
13:32:43.556,-0.35,-1.205
13:32:43.560,-0.125,-0.865
13:32:43.564,-0.04,-0.58
13:32:43.568,-0.04,-0.35
13:32:43.572,-0.065,-0.13
13:32:43.576,-0.095,0.075
13:32:43.580,-0.13,0.265
13:32:43.584,-0.18,0.44
13:32:43.588,-0.15,0.59
13:32:43.592,-0.1,0.695
13:32:43.596,-0.05,0.76
13:32:43.600,0.005,0.775
13:32:43.604,0.07,0.82
13:32:43.608,0.105,0.85
13:32:43.612,0.145,0.855
13:32:43.616,0.155,0.88
13:32:43.620,0.195,0.92
13:32:43.624,0.19,0.955
13:32:43.628,0.21,0.98
13:32:43.632,0.27,1.025
13:32:43.636,0.305,1.015
13:32:43.640,0.31,1.06
13:32:43.644,0.315,1.09
13:32:43.648,0.37,1.165
13:32:43.652,0.405,1.225
13:32:43.656,0.39,1.26
13:32:43.660,0.405,1.28
13:32:43.664,0.385,1.31
13:32:43.668,0.38,1.36
13:32:43.672,0.38,1.4
13:32:43.676,0.42,1.42
13:32:43.680,0.51,1.465
13:32:43.684,0.565,1.45
13:32:43.688,0.525,1.45
13:32:43.692,0.445,1.45
13:32:43.696,0.41,1.425
13:32:43.700,0.47,1.43
13:32:43.704,0.505,1.45
13:32:43.708,0.495,1.455
13:32:43.712,0.46,1.465
13:32:43.716,0.45,1.445
13:32:43.720,0.435,1.415
13:32:43.724,0.455,1.425
13:32:43.728,0.45,1.375
13:32:43.732,0.41,1.345
13:32:43.736,0.405,1.33
13:32:43.740,0.36,1.275
13:32:43.744,0.315,1.22
13:32:43.748,0.25,1.205
13:32:43.752,0.215,1.155
13:32:43.756,0.14,1.085
13:32:43.760,0.085,1.04
13:32:43.764,0.05,0.985
13:32:43.768,0.09,0.9
13:32:43.772,0.08,0.835
13:32:43.776,0.02,0.73
13:32:43.780,-0.045,0.655
13:32:43.784,-0.08,0.56
13:32:43.788,-0.035,0.5
13:32:43.792,-0.04,0.44
13:32:43.796,-0.085,0.385
13:32:43.800,-0.14,0.365
13:32:43.804,-0.17,0.32
13:32:43.808,-0.18,0.285
13:32:43.812,-0.19,0.25
13:32:43.816,-0.175,0.2
13:32:43.820,-0.17,0.18
13:32:43.824,-0.2,0.13
13:32:43.828,-0.21,0.12
13:32:43.832,-0.195,0.12
13:32:43.836,-0.17,0.125
13:32:43.840,-0.2,0.11
13:32:43.844,-0.23,0.1
13:32:43.848,-0.255,0.115
13:32:43.852,-0.235,0.075
13:32:43.856,-0.225,0.05
13:32:43.860,-0.2,0.045
13:32:43.864,-0.185,0.05
13:32:43.868,-0.175,0.035
13:32:43.872,-0.145,0.05
13:32:43.876,-0.095,0.055
13:32:43.880,-0.08,0.06
13:32:43.884,-0.115,0.07
13:32:43.888,-0.15,0.07
13:32:43.892,-0.19,0.065
13:32:43.896,-0.225,0.075
13:32:43.900,-0.185,0.07
13:32:43.904,-0.155,0.08
13:32:43.908,-0.12,0.11
13:32:43.912,-0.12,0.09
13:32:43.916,-0.09,0.095
13:32:43.920,-0.08,0.06
13:32:43.924,-0.11,0.075
13:32:43.928,-0.135,0.07
13:32:43.932,-0.14,0.055
13:32:43.936,-0.19,0.07
13:32:43.940,-0.215,0.065
13:32:43.944,-0.155,0.065
13:32:43.948,-0.15,0.075
13:32:43.952,-0.2,0.065
13:32:43.956,-0.245,0.03
13:32:43.960,-0.22,0.01
13:32:43.964,-0.21,0.025
13:32:43.968,-0.205,0.04
13:32:43.972,-0.18,0.035
13:32:43.976,-0.235,0.02
13:32:43.980,-0.29,0.025
13:32:43.984,-0.325,0.03
13:32:43.988,-0.335,0.02
13:32:43.992,-0.335,0.01
13:32:43.996,-0.29,0.01
13:32:44.000,-0.25,-0.03
13:32:44.004,-0.225,-0.05
13:32:44.008,-0.195,-0.035
13:32:44.012,-0.165,-0.04
13:32:44.016,-0.085,0.0
13:32:44.020,-0.045,0.0
13:32:44.024,-0.11,-0.03
13:32:44.028,-0.24,-0.055
13:32:44.032,-0.32,-0.1
13:32:44.036,-0.27,-0.14
13:32:44.040,-0.28,-0.13
13:32:44.044,-0.265,-0.11
13:32:44.048,-0.26,-0.1
13:32:44.052,-0.255,-0.065
13:32:44.056,-0.245,-0.07
13:32:44.060,-0.24,-0.075
13:32:44.064,-0.22,-0.065
13:32:44.068,-0.18,-0.07
13:32:44.072,-0.07,-0.08
13:32:44.076,0.04,-0.075
13:32:44.080,-0.025,-0.095
13:32:44.084,-0.225,-0.12
13:32:44.088,-0.375,-0.125
13:32:44.092,-0.45,-0.12
13:32:44.096,-0.425,-0.125
13:32:44.100,-0.385,-0.09
13:32:44.104,-0.34,-0.055
13:32:44.108,-0.325,-0.05
13:32:44.112,-0.32,-0.05
13:32:44.116,-0.31,-0.07
13:32:44.120,-0.3,-0.08
13:32:44.124,-0.29,-0.075
13:32:44.128,-0.295,-0.08
13:32:44.132,-0.275,-0.09
13:32:44.136,-0.285,-0.075
13:32:44.140,-0.255,-0.045
13:32:44.144,-0.275,-0.085
13:32:44.148,-0.26,-0.07
13:32:44.152,-0.26,-0.055
13:32:44.156,-0.25,-0.045
13:32:44.160,-0.16,-0.045
13:32:44.164,-0.03,-0.05
13:32:44.168,0.045,-0.06
13:32:44.172,0.01,-0.03
13:32:44.176,-0.045,0.015
13:32:44.180,-0.185,0.09
13:32:44.184,-0.56,0.06
13:32:44.188,-1.04,-0.305
13:32:44.192,-1.395,-0.965
13:32:44.196,-1.62,-1.79
13:32:44.200,-1.85,-2.73
13:32:44.204,-1.885,-3.63
13:32:44.208,-1.88,-4.305
13:32:44.212,-1.815,-4.76
13:32:44.216,-1.81,-5.07
13:32:44.220,-1.735,-5.215
13:32:44.224,-1.7,-5.295
13:32:44.228,-1.75,-5.29
13:32:44.232,-1.845,-5.265
13:32:44.236,-1.79,-5.195
13:32:44.240,-1.68,-5.14
13:32:44.244,-1.57,-5.06
13:32:44.248,-1.445,-5.005
13:32:44.252,-1.3,-4.94
13:32:44.256,-1.14,-4.79
13:32:44.260,-0.96,-4.53
13:32:44.264,-0.87,-4.22
13:32:44.268,-0.815,-3.855
13:32:44.272,-0.775,-3.425
13:32:44.276,-0.72,-2.91
13:32:44.280,-0.6,-2.4
13:32:44.284,-0.475,-1.92
13:32:44.288,-0.335,-1.53
13:32:44.292,-0.21,-1.19
13:32:44.296,-0.13,-0.92
13:32:44.300,-0.055,-0.66
13:32:44.304,-0.025,-0.42
13:32:44.308,0.02,-0.215
13:32:44.312,0.065,0.0
13:32:44.316,0.095,0.165
13:32:44.320,0.13,0.325
13:32:44.324,0.105,0.425
13:32:44.328,0.11,0.465
13:32:44.332,0.125,0.505
13:32:44.336,0.19,0.53
13:32:44.340,0.275,0.575
13:32:44.344,0.3,0.59
13:32:44.348,0.23,0.575
13:32:44.352,0.13,0.605
13:32:44.356,0.155,0.635
13:32:44.360,0.21,0.66
13:32:44.364,0.23,0.74
13:32:44.368,0.275,0.76
13:32:44.372,0.315,0.79
13:32:44.376,0.38,0.815
13:32:44.380,0.445,0.825
13:32:44.384,0.45,0.845
13:32:44.388,0.475,0.91
13:32:44.392,0.475,0.925
13:32:44.396,0.5,0.96
13:32:44.400,0.485,0.99
13:32:44.404,0.44,1.055
13:32:44.408,0.485,1.075
13:32:44.412,0.49,1.125
13:32:44.416,0.47,1.14
13:32:44.420,0.475,1.14
13:32:44.424,0.46,1.155
13:32:44.428,0.44,1.165
13:32:44.432,0.415,1.185
13:32:44.436,0.44,1.205
13:32:44.440,0.465,1.24
13:32:44.444,0.56,1.26
13:32:44.448,0.59,1.285
13:32:44.452,0.57,1.285
13:32:44.456,0.415,1.295
13:32:44.460,0.23,1.26
13:32:44.464,0.105,1.235
13:32:44.468,0.075,1.21
13:32:44.472,0.105,1.18
13:32:44.476,0.105,1.17
13:32:44.480,0.075,1.125
13:32:44.484,0.085,1.06
13:32:44.488,0.075,1.0
13:32:44.492,0.07,0.96
13:32:44.496,-0.01,0.87
13:32:44.500,-0.07,0.77
13:32:44.504,-0.13,0.67
13:32:44.508,-0.15,0.605
13:32:44.512,-0.155,0.505
13:32:44.516,-0.135,0.4
13:32:44.520,-0.11,0.32
13:32:44.524,-0.07,0.24
13:32:44.528,-0.04,0.185
13:32:44.532,-0.05,0.14
13:32:44.536,-0.115,0.065
13:32:44.540,-0.195,0.025
13:32:44.544,-0.24,-0.025
13:32:44.548,-0.285,-0.075
13:32:44.552,-0.305,-0.075
13:32:44.556,-0.275,-0.115
13:32:44.560,-0.22,-0.115
13:32:44.564,-0.17,-0.115
13:32:44.568,-0.05,-0.125
13:32:44.572,-0.02,-0.135
13:32:44.576,-0.145,-0.15
13:32:44.580,-0.25,-0.15
13:32:44.584,-0.375,-0.185
13:32:44.588,-0.47,-0.205
13:32:44.592,-0.45,-0.195
13:32:44.596,-0.325,-0.195
13:32:44.600,-0.16,-0.205
13:32:44.604,0.055,-0.18
13:32:44.608,0.215,-0.175
13:32:44.612,0.22,-0.185
13:32:44.616,0.06,-0.15
13:32:44.620,-0.315,-0.17
13:32:44.624,-0.895,-0.305
13:32:44.628,-1.46,-0.645
13:32:44.632,-1.81,-1.19
13:32:44.636,-1.99,-2.03
13:32:44.640,-1.945,-2.94
13:32:44.644,-1.94,-3.71
13:32:44.648,-1.995,-4.335
13:32:44.652,-2.075,-4.74
13:32:44.656,-2.075,-4.975
13:32:44.660,-1.95,-5.095
13:32:44.664,-1.82,-5.165
13:32:44.668,-1.665,-5.17
13:32:44.672,-1.53,-5.105
13:32:44.676,-1.505,-5.065
13:32:44.680,-1.55,-5.02
13:32:44.684,-1.49,-4.945
13:32:44.688,-1.28,-4.79
13:32:44.692,-1.04,-4.505
13:32:44.696,-0.835,-4.11
13:32:44.700,-0.7,-3.71
13:32:44.704,-0.58,-3.24
13:32:44.708,-0.4,-2.615
13:32:44.712,-0.235,-2.02
13:32:44.716,-0.14,-1.5
13:32:44.720,-0.025,-1.04
13:32:44.724,0.03,-0.67
13:32:44.728,0.145,-0.405
13:32:44.732,0.205,-0.145
13:32:44.736,0.085,0.05
13:32:44.740,-0.1,0.245
13:32:44.744,-0.135,0.355
13:32:44.748,-0.105,0.455
13:32:44.752,-0.09,0.54
13:32:44.756,-0.06,0.61
13:32:44.760,-0.045,0.64
13:32:44.764,-0.035,0.645
13:32:44.768,-0.005,0.7
13:32:44.772,0.005,0.705
13:32:44.776,0.02,0.73
13:32:44.780,0.13,0.72
13:32:44.784,0.23,0.735
13:32:44.788,0.19,0.735
13:32:44.792,0.065,0.775
13:32:44.796,-0.03,0.78
13:32:44.800,-0.06,0.79
13:32:44.804,-0.065,0.775
13:32:44.808,-0.045,0.815
13:32:44.812,-0.025,0.815
13:32:44.816,-0.02,0.85
13:32:44.820,-0.015,0.84
13:32:44.824,0.01,0.845
13:32:44.828,0.05,0.87
13:32:44.832,0.045,0.88
13:32:44.836,0.075,0.91
13:32:44.840,0.17,0.94
13:32:44.844,0.19,0.945
13:32:44.848,0.105,0.965
13:32:44.852,0.03,0.975
13:32:44.856,-0.005,0.985
13:32:44.860,-0.005,0.995
13:32:44.864,0.005,1.015
13:32:44.868,0.035,1.04
13:32:44.872,0.09,1.035
13:32:44.876,0.135,1.025
13:32:44.880,0.11,1.065
13:32:44.884,0.015,1.06
13:32:44.888,-0.005,1.05
13:32:44.892,0.01,1.04
13:32:44.896,0.0,1.005
13:32:44.900,-0.02,0.995
13:32:44.904,-0.055,0.98
13:32:44.908,-0.02,0.94
13:32:44.912,0.055,0.86
13:32:44.916,0.1,0.79
13:32:44.920,0.03,0.705
13:32:44.924,-0.15,0.635
13:32:44.928,-0.28,0.57
13:32:44.932,-0.28,0.495
13:32:44.936,-0.285,0.415
13:32:44.940,-0.26,0.365
13:32:44.944,-0.275,0.295
13:32:44.948,-0.26,0.225
13:32:44.952,-0.27,0.16
13:32:44.956,-0.28,0.095
13:32:44.960,-0.27,0.06
13:32:44.964,-0.285,0.03
13:32:44.968,-0.235,-0.005
13:32:44.972,-0.205,-0.045
13:32:44.976,-0.275,-0.065
13:32:44.980,-0.415,-0.12
13:32:44.984,-0.5,-0.175
13:32:44.988,-0.51,-0.17
13:32:44.992,-0.48,-0.205
13:32:44.996,-0.425,-0.18
13:32:45.000,-0.395,-0.19
13:32:45.004,-0.325,-0.17
13:32:45.008,-0.245,-0.165
13:32:45.012,-0.065,-0.16
13:32:45.016,0.185,-0.155
13:32:45.020,0.34,-0.115
13:32:45.024,0.31,-0.065
13:32:45.028,0.02,0.015
13:32:45.032,-0.5,0.1
13:32:45.036,-1.03,-0.015
13:32:45.040,-1.39,-0.445
13:32:45.044,-1.6,-1.03
13:32:45.048,-1.65,-1.87
13:32:45.052,-1.545,-2.93
13:32:45.056,-1.38,-3.825
13:32:45.060,-1.26,-4.455
13:32:45.064,-1.235,-4.88
13:32:45.068,-1.245,-5.155
13:32:45.072,-1.24,-5.28
13:32:45.076,-1.275,-5.325
13:32:45.080,-1.34,-5.325
13:32:45.084,-1.315,-5.29
13:32:45.088,-1.305,-5.215
13:32:45.092,-1.29,-5.17
13:32:45.096,-1.265,-5.1
13:32:45.100,-1.28,-5.055
13:32:45.104,-1.2,-4.945
13:32:45.108,-1.085,-4.685
13:32:45.112,-1.025,-4.405
13:32:45.116,-1.005,-4.065
13:32:45.120,-0.985,-3.64
13:32:45.124,-0.87,-3.16
13:32:45.128,-0.69,-2.65
13:32:45.132,-0.53,-2.08
13:32:45.136,-0.34,-1.645
13:32:45.140,-0.11,-1.28
13:32:45.144,0.045,-0.93
13:32:45.148,0.115,-0.675
13:32:45.152,0.055,-0.44
13:32:45.156,-0.09,-0.2
13:32:45.160,-0.155,0.03
13:32:45.164,-0.095,0.23
13:32:45.168,-0.025,0.395
13:32:45.172,0.035,0.54
13:32:45.176,0.08,0.66
13:32:45.180,0.135,0.71
13:32:45.184,0.17,0.755
13:32:45.188,0.18,0.795
13:32:45.192,0.195,0.82
13:32:45.196,0.23,0.85
13:32:45.200,0.26,0.89
13:32:45.204,0.265,0.89
13:32:45.208,0.26,0.92
13:32:45.212,0.3,0.945
13:32:45.216,0.335,0.97
13:32:45.220,0.36,1.02
13:32:45.224,0.365,1.055
13:32:45.228,0.395,1.095
13:32:45.232,0.41,1.14
13:32:45.236,0.405,1.19
13:32:45.240,0.405,1.22
13:32:45.244,0.44,1.265
13:32:45.248,0.5,1.265
13:32:45.252,0.48,1.295
13:32:45.256,0.42,1.32
13:32:45.260,0.39,1.34
13:32:45.264,0.405,1.35
13:32:45.268,0.425,1.37
13:32:45.272,0.46,1.395
13:32:45.276,0.485,1.415
13:32:45.280,0.495,1.41
13:32:45.284,0.48,1.405
13:32:45.288,0.505,1.405
13:32:45.292,0.505,1.38
13:32:45.296,0.51,1.375
13:32:45.300,0.53,1.315
13:32:45.304,0.45,1.295
13:32:45.308,0.34,1.265
13:32:45.312,0.28,1.2
13:32:45.316,0.18,1.145
13:32:45.320,0.145,1.105
13:32:45.324,0.115,1.05
13:32:45.328,0.07,0.985
13:32:45.332,-0.01,0.94
13:32:45.336,-0.06,0.86
13:32:45.340,-0.045,0.79
13:32:45.344,-0.02,0.73
13:32:45.348,0.02,0.655
13:32:45.352,-0.02,0.6
13:32:45.356,-0.08,0.535
13:32:45.360,-0.105,0.495
13:32:45.364,-0.11,0.445
13:32:45.368,-0.125,0.365
13:32:45.372,-0.15,0.3
13:32:45.376,-0.2,0.28
13:32:45.380,-0.215,0.2
13:32:45.384,-0.215,0.15
13:32:45.388,-0.2,0.125
13:32:45.392,-0.175,0.09
13:32:45.396,-0.155,0.09
13:32:45.400,-0.16,0.06
13:32:45.404,-0.15,0.06
13:32:45.408,-0.145,0.04
13:32:45.412,-0.17,0.015
13:32:45.416,-0.19,0.0
13:32:45.420,-0.165,-0.02
13:32:45.424,-0.14,-0.02
13:32:45.428,-0.14,-0.02
13:32:45.432,-0.215,0.005
13:32:45.436,-0.29,-0.015
13:32:45.440,-0.365,0.0
13:32:45.444,-0.365,-0.03
13:32:45.448,-0.335,-0.005
13:32:45.452,-0.325,-0.01
13:32:45.456,-0.275,0.0
13:32:45.460,-0.215,0.025
13:32:45.464,-0.195,0.01
13:32:45.468,-0.18,-0.015
13:32:45.472,-0.165,-0.005
13:32:45.476,-0.09,-0.045
13:32:45.480,0.035,-0.025
13:32:45.484,0.2,-0.03
13:32:45.488,0.195,-0.045
13:32:45.492,0.04,0.02
13:32:45.496,-0.185,0.1
13:32:45.500,-0.595,0.13
13:32:45.504,-1.05,-0.035
13:32:45.508,-1.4,-0.455
13:32:45.512,-1.595,-1.035
13:32:45.516,-1.73,-1.89
13:32:45.520,-1.765,-2.88
13:32:45.524,-1.765,-3.775
13:32:45.528,-1.695,-4.39
13:32:45.532,-1.705,-4.83
13:32:45.536,-1.705,-5.095
13:32:45.540,-1.63,-5.24
13:32:45.544,-1.52,-5.31
13:32:45.548,-1.475,-5.3
13:32:45.552,-1.34,-5.26
13:32:45.556,-1.155,-5.185
13:32:45.560,-1.0,-5.11
13:32:45.564,-0.945,-5.015
13:32:45.568,-0.975,-4.96
13:32:45.572,-1.04,-4.86
13:32:45.576,-1.01,-4.67
13:32:45.580,-0.88,-4.39
13:32:45.584,-0.815,-4.04
13:32:45.588,-0.79,-3.69
13:32:45.592,-0.75,-3.215
13:32:45.596,-0.655,-2.695
13:32:45.600,-0.485,-2.175
13:32:45.604,-0.305,-1.745
13:32:45.608,-0.105,-1.32
13:32:45.612,0.055,-0.97
13:32:45.616,0.085,-0.665
13:32:45.620,-0.025,-0.445
13:32:45.624,-0.14,-0.19
13:32:45.628,-0.16,0.035
13:32:45.632,-0.1,0.235
13:32:45.636,-0.025,0.415
13:32:45.640,0.035,0.55
13:32:45.644,0.065,0.655
13:32:45.648,0.135,0.715
13:32:45.652,0.24,0.745
13:32:45.656,0.33,0.775
13:32:45.660,0.315,0.83
13:32:45.664,0.23,0.86
13:32:45.668,0.195,0.89
13:32:45.672,0.215,0.92
13:32:45.676,0.225,0.945
13:32:45.680,0.22,0.97
13:32:45.684,0.275,0.99
13:32:45.688,0.33,1.03
13:32:45.692,0.39,1.03
13:32:45.696,0.42,1.05
13:32:45.700,0.47,1.065
13:32:45.704,0.56,1.075
13:32:45.708,0.65,1.065
13:32:45.712,0.645,1.065
13:32:45.716,0.515,1.09
13:32:45.720,0.37,1.125
13:32:45.724,0.345,1.135
13:32:45.728,0.345,1.115
13:32:45.732,0.415,1.165
13:32:45.736,0.445,1.21
13:32:45.740,0.535,1.23
13:32:45.744,0.555,1.24
13:32:45.748,0.62,1.25
13:32:45.752,0.71,1.275
13:32:45.756,0.76,1.29
13:32:45.760,0.685,1.31
13:32:45.764,0.49,1.315
13:32:45.768,0.345,1.32
13:32:45.772,0.245,1.27
13:32:45.776,0.245,1.265
13:32:45.780,0.26,1.265
13:32:45.784,0.27,1.26
13:32:45.788,0.275,1.2
13:32:45.792,0.265,1.185
13:32:45.796,0.25,1.155
13:32:45.800,0.22,1.06
13:32:45.804,0.205,1.02
13:32:45.808,0.17,0.965
13:32:45.812,0.2,0.9
13:32:45.816,0.195,0.845
13:32:45.820,0.13,0.745
13:32:45.824,0.02,0.655
13:32:45.828,-0.035,0.605
13:32:45.832,-0.07,0.525
13:32:45.836,-0.115,0.47
13:32:45.840,-0.135,0.425
13:32:45.844,-0.12,0.375
13:32:45.848,-0.14,0.33
13:32:45.852,-0.13,0.27
13:32:45.856,-0.125,0.28
13:32:45.860,-0.115,0.215
13:32:45.864,-0.07,0.175
13:32:45.868,-0.02,0.145
13:32:45.872,0.03,0.1
13:32:45.876,0.01,0.04
13:32:45.880,-0.13,0.015
13:32:45.884,-0.235,-0.03
13:32:45.888,-0.27,-0.05
13:32:45.892,-0.255,-0.05
13:32:45.896,-0.205,-0.06
13:32:45.900,-0.17,-0.045
13:32:45.904,-0.16,-0.035
13:32:45.908,-0.13,-0.05
13:32:45.912,-0.1,-0.07
13:32:45.916,-0.065,-0.045
13:32:45.920,-0.05,-0.05
13:32:45.924,0.015,-0.015
13:32:45.928,0.04,0.02
13:32:45.932,0.005,0.01
13:32:45.936,-0.03,0.025
13:32:45.940,-0.1,0.04
13:32:45.944,-0.2,0.035
13:32:45.948,-0.24,0.025
13:32:45.952,-0.215,0.005
13:32:45.956,-0.17,0.0
13:32:45.960,-0.185,0.01
13:32:45.964,-0.185,0.025
13:32:45.968,-0.175,0.035
13:32:45.972,-0.155,0.025
13:32:45.976,-0.135,0.0
13:32:45.980,-0.15,0.0
13:32:45.984,-0.175,0.0
13:32:45.988,-0.17,-0.005
13:32:45.992,-0.15,0.0
13:32:45.996,-0.17,-0.015
13:32:46.000,-0.235,-0.015
13:32:46.004,-0.23,-0.04
13:32:46.008,-0.2,-0.02
13:32:46.012,-0.235,-0.05
13:32:46.016,-0.305,-0.04
13:32:46.020,-0.335,-0.035
13:32:46.024,-0.355,-0.015
13:32:46.028,-0.33,-0.035
13:32:46.032,-0.315,-0.045
13:32:46.036,-0.32,-0.045
13:32:46.040,-0.315,-0.07
13:32:46.044,-0.35,-0.07
13:32:46.048,-0.365,-0.1
13:32:46.052,-0.41,-0.14
13:32:46.056,-0.41,-0.185
13:32:46.060,-0.39,-0.21
13:32:46.064,-0.36,-0.22
13:32:46.068,-0.385,-0.24
13:32:46.072,-0.405,-0.25
13:32:46.076,-0.4,-0.28
13:32:46.080,-0.34,-0.28
13:32:46.084,-0.28,-0.29
13:32:46.088,-0.295,-0.26
13:32:46.092,-0.36,-0.275
13:32:46.096,-0.405,-0.255
13:32:46.100,-0.4,-0.245
13:32:46.104,-0.355,-0.245
13:32:46.108,-0.275,-0.235
13:32:46.112,-0.205,-0.225
13:32:46.116,-0.16,-0.235
13:32:46.120,-0.21,-0.23
13:32:46.124,-0.33,-0.23
13:32:46.128,-0.425,-0.225
13:32:46.132,-0.465,-0.225
13:32:46.136,-0.505,-0.24
13:32:46.140,-0.47,-0.22
13:32:46.144,-0.405,-0.23
13:32:46.148,-0.38,-0.205
13:32:46.152,-0.345,-0.205
13:32:46.156,-0.345,-0.215
13:32:46.160,-0.33,-0.195
13:32:46.164,-0.315,-0.215
13:32:46.168,-0.315,-0.195
13:32:46.172,-0.315,-0.19
13:32:46.176,-0.285,-0.185
13:32:46.180,-0.21,-0.19
13:32:46.184,-0.105,-0.195
13:32:46.188,-0.03,-0.165
13:32:46.192,-0.06,-0.155
13:32:46.196,-0.12,-0.11
13:32:46.200,-0.23,0.015
13:32:46.204,-0.515,0.065
13:32:46.208,-0.955,-0.095
13:32:46.212,-1.39,-0.55
13:32:46.216,-1.77,-1.175
13:32:46.220,-2.08,-1.92
13:32:46.224,-2.145,-2.835
13:32:46.228,-2.035,-3.655
13:32:46.232,-1.92,-4.285
13:32:46.236,-1.925,-4.705
13:32:46.240,-1.965,-4.99
13:32:46.244,-1.95,-5.16
13:32:46.248,-1.86,-5.23
13:32:46.252,-1.825,-5.27
13:32:46.256,-1.825,-5.25
13:32:46.260,-1.815,-5.225
13:32:46.264,-1.8,-5.145
13:32:46.268,-1.8,-5.115
13:32:46.272,-1.745,-5.06
13:32:46.276,-1.6,-5.0
13:32:46.280,-1.42,-4.885
13:32:46.284,-1.245,-4.7
13:32:46.288,-1.12,-4.41
13:32:46.292,-1.03,-4.075
13:32:46.296,-0.91,-3.685
13:32:46.300,-0.88,-3.25
13:32:46.304,-0.805,-2.75
13:32:46.308,-0.69,-2.23
13:32:46.312,-0.54,-1.725
13:32:46.316,-0.375,-1.315
13:32:46.320,-0.225,-0.98
13:32:46.324,-0.13,-0.71
13:32:46.328,-0.065,-0.49
13:32:46.332,0.03,-0.265
13:32:46.336,0.065,-0.035
13:32:46.340,0.04,0.165
13:32:46.344,0.05,0.355
13:32:46.348,0.1,0.51
13:32:46.352,0.12,0.635
13:32:46.356,0.135,0.725
13:32:46.360,0.14,0.79
13:32:46.364,0.13,0.805
13:32:46.368,0.09,0.85
13:32:46.372,0.115,0.875
13:32:46.376,0.18,0.915
13:32:46.380,0.215,0.94
13:32:46.384,0.24,0.99
13:32:46.388,0.29,1.025
13:32:46.392,0.295,1.075
13:32:46.396,0.24,1.065
13:32:46.400,0.25,1.125
13:32:46.404,0.26,1.14
13:32:46.408,0.325,1.165
13:32:46.412,0.385,1.205
13:32:46.416,0.36,1.22
13:32:46.420,0.305,1.245
13:32:46.424,0.3,1.28
13:32:46.428,0.29,1.32
13:32:46.432,0.315,1.355
13:32:46.436,0.295,1.39
13:32:46.440,0.35,1.43
13:32:46.444,0.385,1.425
13:32:46.448,0.43,1.42
13:32:46.452,0.48,1.4
13:32:46.456,0.485,1.405
13:32:46.460,0.385,1.405
13:32:46.464,0.34,1.4
13:32:46.468,0.415,1.42
13:32:46.472,0.44,1.47
13:32:46.476,0.48,1.48
13:32:46.480,0.455,1.515
13:32:46.484,0.45,1.52
13:32:46.488,0.46,1.525
13:32:46.492,0.405,1.535
13:32:46.496,0.36,1.53
13:32:46.500,0.325,1.49
13:32:46.504,0.305,1.485
13:32:46.508,0.305,1.46
13:32:46.512,0.285,1.415
13:32:46.516,0.2,1.365
13:32:46.520,0.155,1.335
13:32:46.524,0.17,1.3
13:32:46.528,0.115,1.23
13:32:46.532,0.035,1.18
13:32:46.536,-0.02,1.12
13:32:46.540,-0.01,1.05
13:32:46.544,-0.035,0.96
13:32:46.548,-0.1,0.89
13:32:46.552,-0.12,0.825
13:32:46.556,-0.125,0.75
13:32:46.560,-0.11,0.69
13:32:46.564,-0.08,0.6
13:32:46.568,-0.115,0.56
13:32:46.572,-0.24,0.495
13:32:46.576,-0.275,0.43
13:32:46.580,-0.315,0.375
13:32:46.584,-0.37,0.33
13:32:46.588,-0.38,0.29
13:32:46.592,-0.37,0.255
13:32:46.596,-0.405,0.205
13:32:46.600,-0.365,0.165
13:32:46.604,-0.33,0.135
13:32:46.608,-0.305,0.11
13:32:46.612,-0.25,0.09
13:32:46.616,-0.205,0.12
13:32:46.620,-0.205,0.095
13:32:46.624,-0.225,0.105
13:32:46.628,-0.225,0.09
13:32:46.632,-0.225,0.075
13:32:46.636,-0.225,0.08
13:32:46.640,-0.215,0.055
13:32:46.644,-0.185,0.055
13:32:46.648,-0.19,0.085
13:32:46.652,-0.215,0.085
13:32:46.656,-0.185,0.075
13:32:46.660,-0.185,0.11
13:32:46.664,-0.15,0.085
13:32:46.668,0.01,0.08
13:32:46.672,0.13,0.08
13:32:46.676,0.115,0.16
13:32:46.680,-0.055,0.23
13:32:46.684,-0.445,0.285
13:32:46.688,-1.045,0.21
13:32:46.692,-1.66,-0.115
13:32:46.696,-2.12,-0.545
13:32:46.700,-2.28,-1.175
13:32:46.704,-2.32,-2.13
13:32:46.708,-2.255,-3.085
13:32:46.712,-2.245,-3.875
13:32:46.716,-2.32,-4.46
13:32:46.720,-2.4,-4.81
13:32:46.724,-2.455,-5.015
13:32:46.728,-2.455,-5.13
13:32:46.732,-2.43,-5.16
13:32:46.736,-2.335,-5.125
13:32:46.740,-2.195,-5.09
13:32:46.744,-2.06,-5.035
13:32:46.748,-1.95,-4.995
13:32:46.752,-1.845,-4.97
13:32:46.756,-1.71,-4.86
13:32:46.760,-1.545,-4.695
13:32:46.764,-1.45,-4.415
13:32:46.768,-1.4,-4.105
13:32:46.772,-1.325,-3.705
13:32:46.776,-1.16,-3.22
13:32:46.780,-0.88,-2.7
13:32:46.784,-0.515,-2.115
13:32:46.788,-0.3,-1.65
13:32:46.792,-0.26,-1.25
13:32:46.796,-0.25,-0.94
13:32:46.800,-0.235,-0.67
13:32:46.804,-0.185,-0.445
13:32:46.808,-0.145,-0.19
13:32:46.812,-0.095,0.065
13:32:46.816,0.005,0.285
13:32:46.820,0.055,0.455
13:32:46.824,0.05,0.56
13:32:46.828,0.055,0.645
13:32:46.832,0.07,0.7
13:32:46.836,0.095,0.72
13:32:46.840,0.12,0.76
13:32:46.844,0.14,0.815
13:32:46.848,0.155,0.82
13:32:46.852,0.165,0.865
13:32:46.856,0.185,0.88
13:32:46.860,0.19,0.92
13:32:46.864,0.21,0.92
13:32:46.868,0.26,0.99
13:32:46.872,0.32,0.98
13:32:46.876,0.335,1.005
13:32:46.880,0.26,1.04
13:32:46.884,0.17,1.055
13:32:46.888,0.13,1.075
13:32:46.892,0.11,1.12
13:32:46.896,0.105,1.1
13:32:46.900,0.165,1.135
13:32:46.904,0.185,1.135
13:32:46.908,0.19,1.155
13:32:46.912,0.22,1.17
13:32:46.916,0.255,1.18
13:32:46.920,0.245,1.225
13:32:46.924,0.265,1.23
13:32:46.928,0.285,1.235
13:32:46.932,0.305,1.26
13:32:46.936,0.375,1.285
13:32:46.940,0.42,1.285
13:32:46.944,0.37,1.3
13:32:46.948,0.21,1.31
13:32:46.952,0.1,1.305
13:32:46.956,0.07,1.285
13:32:46.960,0.055,1.25
13:32:46.964,0.025,1.235
13:32:46.968,0.01,1.26
13:32:46.972,0.025,1.245
13:32:46.976,0.03,1.2
13:32:46.980,0.015,1.165
13:32:46.984,0.02,1.14
13:32:46.988,0.035,1.085
13:32:46.992,0.065,1.02
13:32:46.996,0.065,0.97
13:32:47.000,0.025,0.905
13:32:47.004,-0.075,0.855
13:32:47.008,-0.15,0.8
13:32:47.012,-0.185,0.75
13:32:47.016,-0.155,0.685
13:32:47.020,-0.115,0.645
13:32:47.024,-0.1,0.61
13:32:47.028,-0.11,0.555
13:32:47.032,-0.09,0.51
13:32:47.036,-0.065,0.48
13:32:47.040,-0.03,0.415
13:32:47.044,0.065,0.35
13:32:47.048,0.115,0.3
13:32:47.052,-0.015,0.28
13:32:47.056,-0.265,0.23
13:32:47.060,-0.365,0.175
13:32:47.064,-0.34,0.135
13:32:47.068,-0.345,0.15
13:32:47.072,-0.33,0.14
13:32:47.076,-0.305,0.15
13:32:47.080,-0.25,0.135
13:32:47.084,-0.215,0.085
13:32:47.088,-0.155,0.085
13:32:47.092,0.01,0.055
13:32:47.096,0.195,0.045
13:32:47.100,0.3,0.095
13:32:47.104,0.28,0.13
13:32:47.108,0.06,0.235
13:32:47.112,-0.43,0.33
13:32:47.116,-1.035,0.225
13:32:47.120,-1.56,-0.16
13:32:47.124,-1.885,-0.765
13:32:47.128,-1.97,-1.57
13:32:47.132,-1.865,-2.555
13:32:47.136,-1.655,-3.455
13:32:47.140,-1.51,-4.13
13:32:47.144,-1.495,-4.61
13:32:47.148,-1.485,-4.88
13:32:47.152,-1.425,-5.03
13:32:47.156,-1.37,-5.115
13:32:47.160,-1.295,-5.11
13:32:47.164,-1.26,-5.08
13:32:47.168,-1.245,-5.005
13:32:47.172,-1.27,-4.955
13:32:47.176,-1.32,-4.88
13:32:47.180,-1.4,-4.83
13:32:47.184,-1.445,-4.745
13:32:47.188,-1.42,-4.54
13:32:47.192,-1.335,-4.24
13:32:47.196,-1.24,-3.895
13:32:47.200,-1.135,-3.5
13:32:47.204,-1.05,-3.015
13:32:47.208,-0.895,-2.505
13:32:47.212,-0.7,-1.955
13:32:47.216,-0.485,-1.46
13:32:47.220,-0.285,-1.08
13:32:47.224,-0.145,-0.705
13:32:47.228,-0.085,-0.44
13:32:47.232,-0.07,-0.215
13:32:47.236,-0.03,0.0
13:32:47.240,-0.025,0.215
13:32:47.244,0.03,0.42
13:32:47.248,0.09,0.57
13:32:47.252,0.145,0.685
13:32:47.256,0.15,0.755
13:32:47.260,0.145,0.825
13:32:47.264,0.165,0.835
13:32:47.268,0.15,0.865
13:32:47.272,0.14,0.885
13:32:47.276,0.175,0.935
13:32:47.280,0.205,0.965
13:32:47.284,0.215,1.01
13:32:47.288,0.275,1.065
13:32:47.292,0.355,1.08
13:32:47.296,0.415,1.095
13:32:47.300,0.385,1.13
13:32:47.304,0.305,1.16
13:32:47.308,0.24,1.195
13:32:47.312,0.255,1.22
13:32:47.316,0.25,1.27
13:32:47.320,0.285,1.3
13:32:47.324,0.34,1.365
13:32:47.328,0.38,1.385
13:32:47.332,0.43,1.415
13:32:47.336,0.465,1.435
13:32:47.340,0.515,1.475
13:32:47.344,0.51,1.48
13:32:47.348,0.45,1.5
13:32:47.352,0.41,1.535
13:32:47.356,0.41,1.54
13:32:47.360,0.405,1.55
13:32:47.364,0.395,1.57
13:32:47.368,0.41,1.6
13:32:47.372,0.41,1.605
13:32:47.376,0.44,1.615
13:32:47.380,0.51,1.61
13:32:47.384,0.405,1.58
13:32:47.388,0.265,1.56
13:32:47.392,0.095,1.52
13:32:47.396,0.03,1.455
13:32:47.400,0.005,1.395
13:32:47.404,0.005,1.345
13:32:47.408,0.005,1.28
13:32:47.412,0.02,1.175
13:32:47.416,0.0,1.105
13:32:47.420,-0.025,1.035
13:32:47.424,-0.05,0.925
13:32:47.428,-0.065,0.855
13:32:47.432,-0.045,0.75
13:32:47.436,0.015,0.655
13:32:47.440,0.105,0.59
13:32:47.444,0.07,0.505
13:32:47.448,-0.1,0.465
13:32:47.452,-0.255,0.415
13:32:47.456,-0.31,0.37
13:32:47.460,-0.29,0.31
13:32:47.464,-0.25,0.305
13:32:47.468,-0.215,0.285
13:32:47.472,-0.205,0.275
13:32:47.476,-0.21,0.25
13:32:47.480,-0.225,0.24
13:32:47.484,-0.245,0.21
13:32:47.488,-0.205,0.225
13:32:47.492,-0.2,0.195
13:32:47.496,-0.22,0.18
13:32:47.500,-0.195,0.16
13:32:47.504,-0.16,0.185
13:32:47.508,-0.14,0.18
13:32:47.512,-0.145,0.17
13:32:47.516,-0.18,0.185
13:32:47.520,-0.25,0.185
13:32:47.524,-0.275,0.18
13:32:47.528,-0.24,0.19
13:32:47.532,-0.135,0.19
13:32:47.536,0.035,0.18
13:32:47.540,0.205,0.215
13:32:47.544,0.165,0.26
13:32:47.548,-0.045,0.345
13:32:47.552,-0.395,0.47
13:32:47.556,-0.865,0.505
13:32:47.560,-1.32,0.255
13:32:47.564,-1.665,-0.245
13:32:47.568,-1.825,-0.905
13:32:47.572,-1.83,-1.89
13:32:47.576,-1.78,-2.925
13:32:47.580,-1.715,-3.785
13:32:47.584,-1.665,-4.36
13:32:47.588,-1.73,-4.74
13:32:47.592,-1.73,-4.925
13:32:47.596,-1.59,-5.03
13:32:47.600,-1.485,-5.075
13:32:47.604,-1.53,-5.05
13:32:47.608,-1.555,-4.985
13:32:47.612,-1.49,-4.97
13:32:47.616,-1.37,-4.885
13:32:47.620,-1.295,-4.8
13:32:47.624,-1.175,-4.745
13:32:47.628,-1.02,-4.56
13:32:47.632,-0.87,-4.25
13:32:47.636,-0.8,-3.895
13:32:47.640,-0.79,-3.505
13:32:47.644,-0.745,-3.025
13:32:47.648,-0.66,-2.45
13:32:47.652,-0.5,-1.85
13:32:47.656,-0.335,-1.4
13:32:47.660,-0.175,-0.955
13:32:47.664,-0.03,-0.605
13:32:47.668,0.055,-0.29
13:32:47.672,0.165,-0.045
13:32:47.676,0.16,0.21
13:32:47.680,0.12,0.45
13:32:47.684,0.11,0.645
13:32:47.688,0.11,0.815
13:32:47.692,0.055,0.925
13:32:47.696,0.06,1.025
13:32:47.700,0.115,1.085
13:32:47.704,0.185,1.11
13:32:47.708,0.275,1.085
13:32:47.712,0.275,1.11
13:32:47.716,0.195,1.17
13:32:47.720,0.135,1.15
13:32:47.724,0.1,1.185
13:32:47.728,0.14,1.195
13:32:47.732,0.24,1.22
13:32:47.736,0.3,1.275
13:32:47.740,0.3,1.28
13:32:47.744,0.33,1.29
13:32:47.748,0.38,1.32
13:32:47.752,0.41,1.355
13:32:47.756,0.415,1.385
13:32:47.760,0.415,1.41
13:32:47.764,0.45,1.455
13:32:47.768,0.515,1.485
13:32:47.772,0.535,1.52
13:32:47.776,0.535,1.535
13:32:47.780,0.525,1.55
13:32:47.784,0.53,1.51
13:32:47.788,0.57,1.5
13:32:47.792,0.58,1.495
13:32:47.796,0.53,1.5
13:32:47.800,0.5,1.505
13:32:47.804,0.455,1.515
13:32:47.808,0.475,1.515
13:32:47.812,0.48,1.51
13:32:47.816,0.485,1.495
13:32:47.820,0.425,1.47
13:32:47.824,0.375,1.45
13:32:47.828,0.365,1.4
13:32:47.832,0.31,1.365
13:32:47.836,0.23,1.3
13:32:47.840,0.16,1.235
13:32:47.844,0.15,1.19
13:32:47.848,0.125,1.115
13:32:47.852,0.06,1.02
13:32:47.856,0.045,0.945
13:32:47.860,0.015,0.88
13:32:47.864,-0.03,0.785
13:32:47.868,-0.065,0.73
13:32:47.872,-0.05,0.65
13:32:47.876,-0.035,0.58
13:32:47.880,-0.02,0.56
13:32:47.884,-0.005,0.515
13:32:47.888,-0.075,0.465
13:32:47.892,-0.125,0.44
13:32:47.896,-0.195,0.385
13:32:47.900,-0.235,0.34
13:32:47.904,-0.2,0.29
13:32:47.908,-0.16,0.265
13:32:47.912,-0.12,0.23
13:32:47.916,-0.14,0.21
13:32:47.920,-0.14,0.185
13:32:47.924,-0.1,0.185
13:32:47.928,0.0,0.17
13:32:47.932,0.16,0.185
13:32:47.936,0.3,0.18
13:32:47.940,0.335,0.21
13:32:47.944,0.215,0.285
13:32:47.948,-0.035,0.4
13:32:47.952,-0.445,0.44
13:32:47.956,-0.965,0.29
13:32:47.960,-1.455,-0.125
13:32:47.964,-1.75,-0.68
13:32:47.968,-1.835,-1.465
13:32:47.972,-1.795,-2.45
13:32:47.976,-1.665,-3.33
13:32:47.980,-1.675,-4.03
13:32:47.984,-1.765,-4.51
13:32:47.988,-1.77,-4.76
13:32:47.992,-1.66,-4.9
13:32:47.996,-1.59,-4.98
13:32:48.000,-1.505,-4.935
13:32:48.004,-1.405,-4.845
13:32:48.008,-1.325,-4.785
13:32:48.012,-1.27,-4.705
13:32:48.016,-1.24,-4.65
13:32:48.020,-1.115,-4.555
13:32:48.024,-0.945,-4.325
13:32:48.028,-0.795,-4.03
13:32:48.032,-0.625,-3.63
13:32:48.036,-0.41,-3.16
13:32:48.040,-0.27,-2.64
13:32:48.044,-0.285,-2.15
13:32:48.048,-0.395,-1.675
13:32:48.052,-0.385,-1.26
13:32:48.056,-0.305,-0.93
13:32:48.060,-0.19,-0.57
13:32:48.064,-0.125,-0.25
13:32:48.068,-0.025,0.035
13:32:48.072,0.06,0.27
13:32:48.076,0.08,0.475
13:32:48.080,0.135,0.635
13:32:48.084,0.155,0.775
13:32:48.088,0.19,0.87
13:32:48.092,0.215,0.935
13:32:48.096,0.265,0.94
13:32:48.100,0.28,0.99
13:32:48.104,0.32,1.015
13:32:48.108,0.325,1.055
13:32:48.112,0.325,1.08
13:32:48.116,0.34,1.08
13:32:48.120,0.325,1.13
13:32:48.124,0.285,1.13
13:32:48.128,0.315,1.19
13:32:48.132,0.365,1.2
13:32:48.136,0.41,1.195
13:32:48.140,0.415,1.25
13:32:48.144,0.435,1.285
13:32:48.148,0.445,1.305
13:32:48.152,0.49,1.33
13:32:48.156,0.51,1.335
13:32:48.160,0.545,1.345
13:32:48.164,0.58,1.385
13:32:48.168,0.61,1.385
13:32:48.172,0.645,1.375
13:32:48.176,0.7,1.435
13:32:48.180,0.71,1.445
13:32:48.184,0.72,1.47
13:32:48.188,0.695,1.48
13:32:48.192,0.62,1.52
13:32:48.196,0.57,1.535
13:32:48.200,0.56,1.545
13:32:48.204,0.57,1.545
13:32:48.208,0.585,1.575
13:32:48.212,0.56,1.565
13:32:48.216,0.46,1.53
13:32:48.220,0.375,1.48
13:32:48.224,0.325,1.435
13:32:48.228,0.315,1.415
13:32:48.232,0.24,1.315
13:32:48.236,0.215,1.25
13:32:48.240,0.17,1.16
13:32:48.244,0.165,1.075
13:32:48.248,0.2,0.955
13:32:48.252,0.175,0.895
13:32:48.256,0.21,0.8
13:32:48.260,0.225,0.735
13:32:48.264,0.23,0.67
13:32:48.268,0.19,0.64
13:32:48.272,0.165,0.575
13:32:48.276,0.19,0.525
13:32:48.280,0.16,0.48
13:32:48.284,0.07,0.41
13:32:48.288,-0.035,0.395
13:32:48.292,-0.04,0.365
13:32:48.296,-0.035,0.325
13:32:48.300,-0.015,0.285
13:32:48.304,-0.03,0.265
13:32:48.308,-0.04,0.265
13:32:48.312,-0.06,0.25
13:32:48.316,-0.095,0.215
13:32:48.320,-0.06,0.24
13:32:48.324,-0.065,0.225
13:32:48.328,-0.085,0.22
13:32:48.332,-0.065,0.195
13:32:48.336,-0.055,0.175
13:32:48.340,-0.025,0.175
13:32:48.344,0.0,0.19
13:32:48.348,0.01,0.185
13:32:48.352,0.025,0.175
13:32:48.356,0.0,0.19
13:32:48.360,-0.045,0.185
13:32:48.364,-0.025,0.21
13:32:48.368,-0.015,0.19
13:32:48.372,-0.01,0.19
13:32:48.376,-0.05,0.2
13:32:48.380,-0.07,0.21
13:32:48.384,-0.105,0.21
13:32:48.388,-0.08,0.22
13:32:48.392,-0.08,0.21
13:32:48.396,-0.105,0.21
13:32:48.400,-0.095,0.18
13:32:48.404,-0.065,0.18
13:32:48.408,-0.06,0.18
13:32:48.412,-0.04,0.18
13:32:48.416,-0.005,0.18
13:32:48.420,0.07,0.16
13:32:48.424,0.15,0.165
13:32:48.428,0.11,0.18
13:32:48.432,0.065,0.195
13:32:48.436,0.015,0.195
13:32:48.440,-0.025,0.2
13:32:48.444,-0.04,0.215
13:32:48.448,0.005,0.255
13:32:48.452,0.02,0.26
13:32:48.456,0.02,0.265
13:32:48.460,0.015,0.265
13:32:48.464,0.015,0.245
13:32:48.468,-0.04,0.215
13:32:48.472,-0.13,0.205
13:32:48.476,-0.135,0.175
13:32:48.480,-0.115,0.17
13:32:48.484,-0.09,0.21
13:32:48.488,-0.095,0.21
13:32:48.492,-0.09,0.185
13:32:48.496,-0.105,0.16
13:32:48.500,-0.09,0.135
13:32:48.504,-0.06,0.155
13:32:48.508,-0.07,0.165
13:32:48.512,-0.08,0.135
13:32:48.516,-0.115,0.105
13:32:48.520,-0.12,0.1
13:32:48.524,-0.115,0.09
13:32:48.528,-0.065,0.095
13:32:48.532,-0.07,0.11
13:32:48.536,-0.065,0.115
13:32:48.540,-0.035,0.095
13:32:48.544,-0.025,0.105
13:32:48.548,-0.055,0.095
13:32:48.552,-0.14,0.075
13:32:48.556,-0.19,0.06
13:32:48.560,-0.19,0.07
13:32:48.564,-0.19,0.095
13:32:48.568,-0.215,0.09
13:32:48.572,-0.185,0.095
13:32:48.576,-0.13,0.115
13:32:48.580,-0.11,0.125
13:32:48.584,-0.08,0.145
13:32:48.588,-0.03,0.1
13:32:48.592,-0.015,0.155
13:32:48.596,0.0,0.135
13:32:48.600,-0.005,0.13
13:32:48.604,0.035,0.105
13:32:48.608,0.135,0.11
13:32:48.612,0.185,0.115
13:32:48.616,0.13,0.185
13:32:48.620,-0.02,0.31
13:32:48.624,-0.275,0.32
13:32:48.628,-0.69,0.14
13:32:48.632,-1.065,-0.355
13:32:48.636,-1.38,-1.015
13:32:48.640,-1.56,-1.855
13:32:48.644,-1.58,-2.845
13:32:48.648,-1.45,-3.675
13:32:48.652,-1.37,-4.255
13:32:48.656,-1.38,-4.66
13:32:48.660,-1.435,-4.9
13:32:48.664,-1.36,-5.025
13:32:48.668,-1.175,-5.075
13:32:48.672,-1.11,-5.05
13:32:48.676,-1.24,-4.995
13:32:48.680,-1.4,-4.885
13:32:48.684,-1.41,-4.85
13:32:48.688,-1.335,-4.775
13:32:48.692,-1.21,-4.685
13:32:48.696,-1.065,-4.555
13:32:48.700,-0.93,-4.34
13:32:48.704,-0.85,-4.02
13:32:48.708,-0.825,-3.69
13:32:48.712,-0.785,-3.25
13:32:48.716,-0.735,-2.765
13:32:48.720,-0.61,-2.235
13:32:48.724,-0.345,-1.73
13:32:48.728,-0.165,-1.32
13:32:48.732,-0.11,-0.945
13:32:48.736,-0.14,-0.635
13:32:48.740,-0.11,-0.375
13:32:48.744,-0.04,-0.115
13:32:48.748,0.05,0.13
13:32:48.752,0.14,0.395
13:32:48.756,0.21,0.565
13:32:48.760,0.255,0.73
13:32:48.764,0.285,0.845
13:32:48.768,0.345,0.935
13:32:48.772,0.39,1.005
13:32:48.776,0.43,1.07
13:32:48.780,0.52,1.11
13:32:48.784,0.655,1.16
13:32:48.788,0.685,1.205
13:32:48.792,0.535,1.23
13:32:48.796,0.445,1.25
13:32:48.800,0.435,1.235
13:32:48.804,0.48,1.235
13:32:48.808,0.535,1.255
13:32:48.812,0.585,1.3
13:32:48.816,0.61,1.345
13:32:48.820,0.65,1.355
13:32:48.824,0.71,1.36
13:32:48.828,0.815,1.39
13:32:48.832,0.89,1.43
13:32:48.836,0.82,1.48
13:32:48.840,0.665,1.505
13:32:48.844,0.59,1.525
13:32:48.848,0.6,1.555
13:32:48.852,0.63,1.595
13:32:48.856,0.66,1.63
13:32:48.860,0.685,1.68
13:32:48.864,0.715,1.685
13:32:48.868,0.725,1.71
13:32:48.872,0.745,1.75
13:32:48.876,0.745,1.77
13:32:48.880,0.77,1.795
13:32:48.884,0.8,1.81
13:32:48.888,0.83,1.84
13:32:48.892,0.795,1.825
13:32:48.896,0.705,1.825
13:32:48.900,0.64,1.825
13:32:48.904,0.6,1.84
13:32:48.908,0.58,1.795
13:32:48.912,0.6,1.775
13:32:48.916,0.56,1.74
13:32:48.920,0.515,1.71
13:32:48.924,0.445,1.665
13:32:48.928,0.44,1.62
13:32:48.932,0.42,1.545
13:32:48.936,0.42,1.48
13:32:48.940,0.45,1.39
13:32:48.944,0.45,1.335
13:32:48.948,0.35,1.275
13:32:48.952,0.245,1.215
13:32:48.956,0.18,1.145
13:32:48.960,0.13,1.09
13:32:48.964,0.105,1.055
13:32:48.968,0.075,0.975
13:32:48.972,0.08,0.94
13:32:48.976,0.08,0.875
13:32:48.980,0.095,0.815
13:32:48.984,0.08,0.755
13:32:48.988,0.06,0.69
13:32:48.992,0.035,0.665
13:32:48.996,0.02,0.615
13:32:49.000,0.01,0.535
13:32:49.004,0.02,0.515
13:32:49.008,-0.005,0.48
13:32:49.012,-0.06,0.43
13:32:49.016,-0.16,0.37
13:32:49.020,-0.26,0.275
13:32:49.024,-0.31,0.24
13:32:49.028,-0.34,0.225
13:32:49.032,-0.3,0.195
13:32:49.036,-0.27,0.21
13:32:49.040,-0.2,0.21
13:32:49.044,-0.145,0.185
13:32:49.048,-0.08,0.195
13:32:49.052,-0.09,0.2
13:32:49.056,-0.18,0.205
13:32:49.060,-0.31,0.205
13:32:49.064,-0.4,0.205
13:32:49.068,-0.41,0.2
13:32:49.072,-0.36,0.195
13:32:49.076,-0.32,0.185
13:32:49.080,-0.255,0.225
13:32:49.084,-0.195,0.22
13:32:49.088,-0.135,0.22
13:32:49.092,-0.155,0.22
13:32:49.096,-0.215,0.235
13:32:49.100,-0.275,0.24
13:32:49.104,-0.25,0.22
13:32:49.108,-0.25,0.2
13:32:49.112,-0.22,0.255
13:32:49.116,-0.255,0.275
13:32:49.120,-0.255,0.3
13:32:49.124,-0.225,0.32
13:32:49.128,-0.165,0.315
13:32:49.132,-0.145,0.34
13:32:49.136,-0.15,0.355
13:32:49.140,-0.25,0.375
13:32:49.144,-0.32,0.39
13:32:49.148,-0.37,0.345
13:32:49.152,-0.375,0.36
13:32:49.156,-0.375,0.325
13:32:49.160,-0.35,0.305
13:32:49.164,-0.335,0.295
13:32:49.168,-0.29,0.29
13:32:49.172,-0.26,0.285
13:32:49.176,-0.225,0.26
13:32:49.180,-0.2,0.24
13:32:49.184,-0.25,0.24
13:32:49.188,-0.355,0.23
13:32:49.192,-0.415,0.21
13:32:49.196,-0.48,0.18
13:32:49.200,-0.5,0.175
13:32:49.204,-0.44,0.19
13:32:49.208,-0.415,0.195
13:32:49.212,-0.355,0.18
13:32:49.216,-0.335,0.175
13:32:49.220,-0.245,0.175
13:32:49.224,-0.195,0.155
13:32:49.228,-0.305,0.16
13:32:49.232,-0.41,0.18
13:32:49.236,-0.475,0.16
13:32:49.240,-0.49,0.13
13:32:49.244,-0.49,0.105
13:32:49.248,-0.475,0.105
13:32:49.252,-0.415,0.115
13:32:49.256,-0.31,0.095
13:32:49.260,-0.155,0.1
13:32:49.264,-0.03,0.095
13:32:49.268,0.06,0.105
13:32:49.272,0.015,0.18
13:32:49.276,-0.065,0.27
13:32:49.280,-0.28,0.355
13:32:49.284,-0.72,0.235
13:32:49.288,-1.265,-0.16
13:32:49.292,-1.7,-0.705
13:32:49.296,-1.945,-1.475
13:32:49.300,-1.99,-2.44
13:32:49.304,-1.855,-3.33
13:32:49.308,-1.755,-4.015
13:32:49.312,-1.81,-4.495
13:32:49.316,-1.95,-4.81
13:32:49.320,-2.03,-4.97
13:32:49.324,-2.015,-5.01
13:32:49.328,-2.0,-5.045
13:32:49.332,-2.005,-5.0
13:32:49.336,-1.86,-4.925
13:32:49.340,-1.675,-4.89
13:32:49.344,-1.55,-4.805
13:32:49.348,-1.59,-4.77
13:32:49.352,-1.61,-4.705
13:32:49.356,-1.53,-4.585
13:32:49.360,-1.375,-4.365
13:32:49.364,-1.205,-4.09
13:32:49.368,-1.13,-3.76
13:32:49.372,-1.065,-3.31
13:32:49.376,-1.0,-2.885
13:32:49.380,-0.895,-2.365
13:32:49.384,-0.725,-1.825
13:32:49.388,-0.475,-1.35
13:32:49.392,-0.245,-0.97
13:32:49.396,-0.115,-0.635
13:32:49.400,-0.03,-0.405
13:32:49.404,-0.055,-0.15
13:32:49.408,-0.165,0.1
13:32:49.412,-0.23,0.3
13:32:49.416,-0.21,0.475
13:32:49.420,-0.155,0.625
13:32:49.424,-0.155,0.77
13:32:49.428,-0.13,0.85
13:32:49.432,-0.08,0.88
13:32:49.436,-0.045,0.915
13:32:49.440,0.015,0.94
13:32:49.444,0.04,0.96
13:32:49.448,0.075,1.005
13:32:49.452,0.105,1.035
13:32:49.456,0.11,1.06
13:32:49.460,0.165,1.11
13:32:49.464,0.225,1.14
13:32:49.468,0.255,1.165
13:32:49.472,0.295,1.22
13:32:49.476,0.295,1.275
13:32:49.480,0.35,1.305
13:32:49.484,0.375,1.37
13:32:49.488,0.39,1.4
13:32:49.492,0.385,1.455
13:32:49.496,0.41,1.505
13:32:49.500,0.465,1.51
13:32:49.504,0.47,1.54
13:32:49.508,0.49,1.575
13:32:49.512,0.525,1.61
13:32:49.516,0.555,1.625
13:32:49.520,0.58,1.64
13:32:49.524,0.59,1.665
13:32:49.528,0.625,1.655
13:32:49.532,0.6,1.69
13:32:49.536,0.56,1.7
13:32:49.540,0.55,1.705
13:32:49.544,0.55,1.695
13:32:49.548,0.525,1.695
13:32:49.552,0.505,1.665
13:32:49.556,0.465,1.63
13:32:49.560,0.435,1.61
13:32:49.564,0.385,1.62
13:32:49.568,0.345,1.57
13:32:49.572,0.315,1.545
13:32:49.576,0.27,1.515
13:32:49.580,0.215,1.475
13:32:49.584,0.17,1.425
13:32:49.588,0.125,1.36
13:32:49.592,0.1,1.285
13:32:49.596,0.03,1.235
13:32:49.600,-0.02,1.15
13:32:49.604,-0.1,1.09
13:32:49.608,-0.17,1.015
13:32:49.612,-0.165,0.93
13:32:49.616,-0.185,0.835
13:32:49.620,-0.195,0.8
13:32:49.624,-0.18,0.74
13:32:49.628,-0.1,0.66
13:32:49.632,-0.09,0.625
13:32:49.636,-0.195,0.56
13:32:49.640,-0.325,0.52
13:32:49.644,-0.4,0.485
13:32:49.648,-0.395,0.465
13:32:49.652,-0.375,0.47
13:32:49.656,-0.365,0.435
