Time,ECG1,ECG2
13:32:14.300,-0.145,0.205
13:32:14.304,-0.16,0.2
13:32:14.308,-0.155,0.21
13:32:14.312,-0.14,0.195
13:32:14.316,-0.16,0.19
13:32:14.320,-0.175,0.225
13:32:14.324,-0.19,0.21
13:32:14.328,-0.2,0.21
13:32:14.332,-0.235,0.175
13:32:14.336,-0.235,0.175
13:32:14.340,-0.24,0.21
13:32:14.344,-0.255,0.21
13:32:14.348,-0.28,0.18
13:32:14.352,-0.3,0.21
13:32:14.356,-0.285,0.19
13:32:14.360,-0.3,0.2
13:32:14.364,-0.29,0.215
13:32:14.368,-0.305,0.22
13:32:14.372,-0.3,0.19
13:32:14.376,-0.28,0.205
13:32:14.380,-0.32,0.215
13:32:14.384,-0.335,0.2
13:32:14.388,-0.34,0.21
13:32:14.392,-0.35,0.205
13:32:14.396,-0.36,0.18
13:32:14.400,-0.375,0.19
13:32:14.404,-0.35,0.19
13:32:14.408,-0.35,0.235
13:32:14.412,-0.335,0.27
13:32:14.416,-0.32,0.25
13:32:14.420,-0.26,0.28
13:32:14.424,-0.205,0.275
13:32:14.428,-0.16,0.305
13:32:14.432,-0.13,0.325
13:32:14.436,-0.135,0.27
13:32:14.440,-0.14,0.235
13:32:14.444,-0.125,0.22
13:32:14.448,-0.135,0.235
13:32:14.452,-0.155,0.2
13:32:14.456,-0.135,0.2
13:32:14.460,-0.14,0.18
13:32:14.464,-0.16,0.205
13:32:14.468,-0.175,0.2
13:32:14.472,-0.16,0.23
13:32:14.476,-0.175,0.21
13:32:14.480,-0.185,0.22
13:32:14.484,-0.195,0.205
13:32:14.488,-0.19,0.21
13:32:14.492,-0.18,0.215
13:32:14.496,-0.185,0.22
13:32:14.500,-0.19,0.22
13:32:14.504,-0.195,0.215
13:32:14.508,-0.195,0.205
13:32:14.512,-0.19,0.205
13:32:14.516,-0.195,0.195
13:32:14.520,-0.2,0.19
13:32:14.524,-0.23,0.225
13:32:14.528,-0.205,0.22
13:32:14.532,-0.215,0.205
13:32:14.536,-0.215,0.195
13:32:14.540,-0.215,0.215
13:32:14.544,-0.225,0.2
13:32:14.548,-0.23,0.215
13:32:14.552,-0.24,0.21
13:32:14.556,-0.24,0.2
13:32:14.560,-0.27,0.21
13:32:14.564,-0.27,0.21
13:32:14.568,-0.28,0.22
13:32:14.572,-0.29,0.21
13:32:14.576,-0.305,0.21
13:32:14.580,-0.31,0.24
13:32:14.584,-0.335,0.22
13:32:14.588,-0.32,0.22
13:32:14.592,-0.32,0.205
13:32:14.596,-0.32,0.22
13:32:14.600,-0.335,0.215
13:32:14.604,-0.305,0.245
13:32:14.608,-0.32,0.21
13:32:14.612,-0.335,0.23
13:32:14.616,-0.35,0.245
13:32:14.620,-0.375,0.225
13:32:14.624,-0.365,0.23
13:32:14.628,-0.365,0.245
13:32:14.632,-0.35,0.245
13:32:14.636,-0.345,0.26
13:32:14.640,-0.305,0.25
13:32:14.644,-0.32,0.23
13:32:14.648,-0.32,0.26
13:32:14.652,-0.3,0.28
13:32:14.656,-0.245,0.285
13:32:14.660,-0.2,0.29
13:32:14.664,-0.155,0.315
13:32:14.668,-0.15,0.28
13:32:14.672,-0.165,0.25
13:32:14.676,-0.14,0.23
13:32:14.680,-0.16,0.2
13:32:14.684,-0.17,0.215
13:32:14.688,-0.19,0.17
13:32:14.692,-0.24,0.17
13:32:14.696,-0.285,0.18
13:32:14.700,-0.3,0.165
13:32:14.704,-0.32,0.17
13:32:14.708,-0.275,0.145
13:32:14.712,-0.105,0.04
13:32:14.716,0.185,-0.045
13:32:14.720,0.52,-0.19
13:32:14.724,0.895,-0.29
13:32:14.728,1.09,-0.205
13:32:14.732,1.015,0.025
13:32:14.736,0.51,0.4
13:32:14.740,-0.145,0.675
13:32:14.744,-0.73,0.83
13:32:14.748,-0.97,0.71
13:32:14.752,-0.92,0.43
13:32:14.756,-0.76,0.135
13:32:14.760,-0.545,-0.01
13:32:14.764,-0.4,-0.005
13:32:14.768,-0.33,-0.01
13:32:14.772,-0.295,0.05
13:32:14.776,-0.26,0.155
13:32:14.780,-0.27,0.21
13:32:14.784,-0.28,0.215
13:32:14.788,-0.295,0.195
13:32:14.792,-0.315,0.195
13:32:14.796,-0.305,0.225
13:32:14.800,-0.31,0.225
13:32:14.804,-0.335,0.215
13:32:14.808,-0.34,0.22
13:32:14.812,-0.32,0.23
13:32:14.816,-0.31,0.235
13:32:14.820,-0.33,0.27
13:32:14.824,-0.32,0.235
13:32:14.828,-0.315,0.25
13:32:14.832,-0.325,0.26
13:32:14.836,-0.31,0.235
13:32:14.840,-0.335,0.25
13:32:14.844,-0.315,0.27
13:32:14.848,-0.32,0.28
13:32:14.852,-0.325,0.275
13:32:14.856,-0.325,0.27
13:32:14.860,-0.3,0.265
13:32:14.864,-0.285,0.27
13:32:14.868,-0.265,0.295
13:32:14.872,-0.27,0.295
13:32:14.876,-0.225,0.31
13:32:14.880,-0.21,0.31
13:32:14.884,-0.18,0.33
13:32:14.888,-0.105,0.35
13:32:14.892,-0.07,0.34
13:32:14.896,-0.05,0.345
13:32:14.900,-0.04,0.305
13:32:14.904,-0.02,0.27
13:32:14.908,-0.025,0.25
13:32:14.912,-0.03,0.24
13:32:14.916,0.01,0.23
13:32:14.920,0.025,0.205
13:32:14.924,0.04,0.2
13:32:14.928,0.055,0.19
13:32:14.932,0.07,0.185
13:32:14.936,0.08,0.18
13:32:14.940,0.095,0.16
13:32:14.944,0.105,0.175
13:32:14.948,0.125,0.17
13:32:14.952,0.1,0.15
13:32:14.956,0.1,0.185
13:32:14.960,0.09,0.2
13:32:14.964,0.11,0.17
13:32:14.968,0.11,0.17
13:32:14.972,0.105,0.185
13:32:14.976,0.1,0.17
13:32:14.980,0.09,0.18
13:32:14.984,0.08,0.16
13:32:14.988,0.085,0.18
13:32:14.992,0.08,0.18
13:32:14.996,0.065,0.19
13:32:15.000,0.035,0.19
13:32:15.004,0.03,0.22
13:32:15.008,0.015,0.235
13:32:15.012,-0.03,0.215
13:32:15.016,-0.05,0.225
13:32:15.020,-0.06,0.21
13:32:15.024,-0.09,0.235
13:32:15.028,-0.1,0.225
13:32:15.032,-0.125,0.205
13:32:15.036,-0.15,0.2
13:32:15.040,-0.195,0.225
13:32:15.044,-0.2,0.2
13:32:15.048,-0.22,0.215
13:32:15.052,-0.23,0.195
13:32:15.056,-0.245,0.205
13:32:15.060,-0.245,0.215
13:32:15.064,-0.285,0.23
13:32:15.068,-0.285,0.22
13:32:15.072,-0.32,0.22
13:32:15.076,-0.345,0.215
13:32:15.080,-0.335,0.235
13:32:15.084,-0.34,0.24
13:32:15.088,-0.3,0.25
13:32:15.092,-0.28,0.28
13:32:15.096,-0.24,0.27
13:32:15.100,-0.205,0.29
13:32:15.104,-0.19,0.295
13:32:15.108,-0.16,0.26
13:32:15.112,-0.17,0.245
13:32:15.116,-0.16,0.265
13:32:15.120,-0.17,0.24
13:32:15.124,-0.125,0.26
13:32:15.128,-0.12,0.225
13:32:15.132,-0.13,0.255
13:32:15.136,-0.14,0.25
13:32:15.140,-0.145,0.25
13:32:15.144,-0.155,0.23
13:32:15.148,-0.145,0.235
13:32:15.152,-0.135,0.255
13:32:15.156,-0.13,0.245
13:32:15.160,-0.155,0.275
13:32:15.164,-0.14,0.265
13:32:15.168,-0.14,0.26
13:32:15.172,-0.14,0.245
13:32:15.176,-0.14,0.24
13:32:15.180,-0.14,0.235
13:32:15.184,-0.155,0.26
13:32:15.188,-0.115,0.265
13:32:15.192,-0.125,0.235
13:32:15.196,-0.155,0.235
13:32:15.200,-0.155,0.255
13:32:15.204,-0.145,0.235
13:32:15.208,-0.155,0.25
13:32:15.212,-0.16,0.235
13:32:15.216,-0.17,0.24
13:32:15.220,-0.2,0.235
13:32:15.224,-0.24,0.22
13:32:15.228,-0.315,0.22
13:32:15.232,-0.315,0.2
13:32:15.236,-0.305,0.195
13:32:15.240,-0.215,0.165
13:32:15.244,0.04,0.1
13:32:15.248,0.365,0.01
13:32:15.252,0.715,-0.1
13:32:15.256,0.945,-0.14
13:32:15.260,0.925,-0.075
13:32:15.264,0.505,0.165
13:32:15.268,-0.09,0.54
13:32:15.272,-0.65,0.8
13:32:15.276,-0.975,0.93
13:32:15.280,-1.035,0.725
13:32:15.284,-0.94,0.36
13:32:15.288,-0.775,0.11
13:32:15.292,-0.58,0.03
13:32:15.296,-0.475,0.02
13:32:15.300,-0.435,0.035
13:32:15.304,-0.4,0.1
13:32:15.308,-0.365,0.195
13:32:15.312,-0.33,0.275
13:32:15.316,-0.31,0.25
13:32:15.320,-0.29,0.255
13:32:15.324,-0.28,0.22
13:32:15.328,-0.245,0.175
13:32:15.332,-0.215,0.185
13:32:15.336,-0.195,0.19
13:32:15.340,-0.16,0.18
13:32:15.344,-0.135,0.19
13:32:15.348,-0.135,0.2
13:32:15.352,-0.15,0.2
13:32:15.356,-0.13,0.19
13:32:15.360,-0.14,0.215
13:32:15.364,-0.125,0.185
13:32:15.368,-0.135,0.185
13:32:15.372,-0.14,0.175
13:32:15.376,-0.155,0.195
13:32:15.380,-0.135,0.2
13:32:15.384,-0.15,0.18
13:32:15.388,-0.13,0.175
13:32:15.392,-0.11,0.19
13:32:15.396,-0.095,0.19
13:32:15.400,-0.1,0.185
13:32:15.404,-0.09,0.2
13:32:15.408,-0.08,0.19
13:32:15.412,-0.08,0.195
13:32:15.416,-0.07,0.19
13:32:15.420,-0.04,0.18
13:32:15.424,-0.045,0.2
13:32:15.428,-0.02,0.2
13:32:15.432,-0.01,0.19
13:32:15.436,-0.005,0.19
13:32:15.440,0.025,0.155
13:32:15.444,0.01,0.155
13:32:15.448,0.045,0.14
13:32:15.452,0.055,0.15
13:32:15.456,0.075,0.135
13:32:15.460,0.08,0.165
13:32:15.464,0.075,0.13
13:32:15.468,0.065,0.13
13:32:15.472,0.065,0.135
13:32:15.476,0.05,0.11
13:32:15.480,0.055,0.125
13:32:15.484,0.02,0.135
13:32:15.488,0.015,0.095
13:32:15.492,-0.01,0.11
13:32:15.496,-0.03,0.135
13:32:15.500,-0.045,0.125
13:32:15.504,-0.06,0.135
13:32:15.508,-0.09,0.13
13:32:15.512,-0.11,0.15
13:32:15.516,-0.155,0.16
13:32:15.520,-0.185,0.17
13:32:15.524,-0.205,0.175
13:32:15.528,-0.195,0.195
13:32:15.532,-0.22,0.18
13:32:15.536,-0.235,0.185
13:32:15.540,-0.24,0.175
13:32:15.544,-0.235,0.19
13:32:15.548,-0.245,0.195
13:32:15.552,-0.245,0.24
13:32:15.556,-0.215,0.27
13:32:15.560,-0.195,0.29
13:32:15.564,-0.16,0.27
13:32:15.568,-0.14,0.275
13:32:15.572,-0.12,0.265
13:32:15.576,-0.135,0.275
13:32:15.580,-0.13,0.26
13:32:15.584,-0.105,0.235
13:32:15.588,-0.135,0.215
13:32:15.592,-0.115,0.235
13:32:15.596,-0.115,0.2
13:32:15.600,-0.105,0.21
13:32:15.604,-0.115,0.18
13:32:15.608,-0.125,0.2
13:32:15.612,-0.115,0.19
13:32:15.616,-0.115,0.175
13:32:15.620,-0.115,0.19
13:32:15.624,-0.1,0.205
13:32:15.628,-0.095,0.17
13:32:15.632,-0.095,0.21
13:32:15.636,-0.095,0.175
13:32:15.640,-0.09,0.185
13:32:15.644,-0.085,0.15
13:32:15.648,-0.09,0.16
13:32:15.652,-0.1,0.18
13:32:15.656,-0.1,0.175
13:32:15.660,-0.11,0.17
13:32:15.664,-0.105,0.16
13:32:15.668,-0.09,0.19
13:32:15.672,-0.105,0.18
13:32:15.676,-0.125,0.165
13:32:15.680,-0.125,0.17
13:32:15.684,-0.14,0.19
13:32:15.688,-0.135,0.175
13:32:15.692,-0.14,0.18
13:32:15.696,-0.14,0.175
13:32:15.700,-0.14,0.175
13:32:15.704,-0.17,0.175
13:32:15.708,-0.16,0.18
13:32:15.712,-0.185,0.175
13:32:15.716,-0.22,0.165
13:32:15.720,-0.23,0.17
13:32:15.724,-0.285,0.18
13:32:15.728,-0.35,0.145
13:32:15.732,-0.38,0.155
13:32:15.736,-0.35,0.16
13:32:15.740,-0.275,0.145
13:32:15.744,-0.18,0.11
13:32:15.748,0.08,0.035
13:32:15.752,0.38,-0.09
13:32:15.756,0.725,-0.205
13:32:15.760,0.94,-0.175
13:32:15.764,0.915,-0.05
13:32:15.768,0.54,0.245
13:32:15.772,-0.04,0.63
13:32:15.776,-0.55,0.875
13:32:15.780,-0.935,0.995
13:32:15.784,-0.985,0.8
13:32:15.788,-0.9,0.42
13:32:15.792,-0.72,0.185
13:32:15.796,-0.495,0.105
13:32:15.800,-0.285,0.105
13:32:15.804,-0.185,0.165
13:32:15.808,-0.145,0.21
13:32:15.812,-0.11,0.25
13:32:15.816,-0.095,0.305
13:32:15.820,-0.065,0.275
13:32:15.824,-0.09,0.28
13:32:15.828,-0.105,0.225
13:32:15.832,-0.09,0.255
13:32:15.836,-0.065,0.25
13:32:15.840,-0.055,0.255
13:32:15.844,-0.095,0.245
13:32:15.848,-0.1,0.23
13:32:15.852,-0.07,0.25
13:32:15.856,-0.055,0.245
13:32:15.860,-0.035,0.26
13:32:15.864,-0.03,0.25
13:32:15.868,-0.075,0.235
13:32:15.872,-0.03,0.23
13:32:15.876,-0.005,0.255
13:32:15.880,-0.04,0.275
13:32:15.884,-0.02,0.24
13:32:15.888,-0.045,0.25
13:32:15.892,-0.04,0.28
13:32:15.896,-0.01,0.3
13:32:15.900,-0.02,0.3
13:32:15.904,-0.005,0.27
13:32:15.908,-0.005,0.26
13:32:15.912,0.03,0.275
13:32:15.916,0.065,0.25
13:32:15.920,0.03,0.27
13:32:15.924,0.03,0.265
13:32:15.928,0.085,0.255
13:32:15.932,0.095,0.26
13:32:15.936,0.085,0.22
13:32:15.940,0.145,0.215
13:32:15.944,0.14,0.25
13:32:15.948,0.175,0.25
13:32:15.952,0.18,0.22
13:32:15.956,0.155,0.255
13:32:15.960,0.105,0.245
13:32:15.964,0.105,0.195
13:32:15.968,0.13,0.195
13:32:15.972,0.145,0.235
13:32:15.976,0.145,0.18
13:32:15.980,0.135,0.165
13:32:15.984,0.14,0.14
13:32:15.988,0.125,0.16
13:32:15.992,0.135,0.205
13:32:15.996,0.115,0.21
13:32:16.000,0.12,0.195
13:32:16.004,0.155,0.195
13:32:16.008,0.14,0.165
13:32:16.012,0.12,0.2
13:32:16.016,0.1,0.22
13:32:16.020,0.09,0.2
13:32:16.024,0.15,0.215
13:32:16.028,0.16,0.26
13:32:16.032,0.12,0.26
13:32:16.036,0.075,0.215
13:32:16.040,0.085,0.265
13:32:16.044,0.105,0.345
13:32:16.048,0.105,0.3
13:32:16.052,0.125,0.28
13:32:16.056,0.16,0.295
13:32:16.060,0.16,0.295
13:32:16.064,0.155,0.295
13:32:16.068,0.14,0.27
13:32:16.072,0.095,0.185
13:32:16.076,0.045,0.2
13:32:16.080,0.015,0.175
13:32:16.084,0.065,0.175
13:32:16.088,0.055,0.205
13:32:16.092,0.04,0.185
13:32:16.096,0.06,0.17
13:32:16.100,0.09,0.175
13:32:16.104,0.075,0.205
13:32:16.108,0.04,0.18
13:32:16.112,0.045,0.195
13:32:16.116,0.03,0.185
13:32:16.120,0.015,0.19
13:32:16.124,0.03,0.145
13:32:16.128,0.04,0.18
13:32:16.132,0.04,0.195
13:32:16.136,0.02,0.16
13:32:16.140,0.035,0.175
13:32:16.144,0.03,0.185
13:32:16.148,0.015,0.185
13:32:16.152,0.0,0.17
13:32:16.156,-0.025,0.115
13:32:16.160,0.005,0.135
13:32:16.164,0.03,0.145
13:32:16.168,0.005,0.165
13:32:16.172,0.015,0.145
13:32:16.176,0.02,0.145
13:32:16.180,0.05,0.165
13:32:16.184,0.04,0.19
13:32:16.188,0.005,0.155
13:32:16.192,0.0,0.135
13:32:16.196,-0.005,0.17
13:32:16.200,-0.005,0.15
13:32:16.204,-0.025,0.11
13:32:16.208,-0.065,0.14
13:32:16.212,-0.065,0.11
13:32:16.216,-0.085,0.08
13:32:16.220,-0.075,0.105
13:32:16.224,-0.065,0.145
13:32:16.228,-0.12,0.11
13:32:16.232,-0.145,0.125
13:32:16.236,-0.135,0.1
13:32:16.240,-0.125,0.085
13:32:16.244,-0.125,0.1
13:32:16.248,-0.135,0.105
13:32:16.252,-0.155,0.105
13:32:16.256,-0.15,0.11
13:32:16.260,-0.16,0.115
13:32:16.264,-0.19,0.155
13:32:16.268,-0.2,0.11
13:32:16.272,-0.18,0.09
13:32:16.276,-0.195,0.15
13:32:16.280,-0.18,0.16
13:32:16.284,-0.125,0.15
13:32:16.288,-0.09,0.165
13:32:16.292,-0.025,0.19
13:32:16.296,-0.02,0.19
13:32:16.300,-0.005,0.185
13:32:16.304,-0.01,0.15
13:32:16.308,-0.01,0.135
13:32:16.312,-0.005,0.125
13:32:16.316,-0.03,0.085
13:32:16.320,-0.045,0.095
13:32:16.324,-0.055,0.095
13:32:16.328,-0.06,0.09
13:32:16.332,-0.05,0.115
13:32:16.336,-0.025,0.12
13:32:16.340,-0.06,0.12
13:32:16.344,-0.085,0.095
13:32:16.348,-0.075,0.085
13:32:16.352,-0.075,0.105
13:32:16.356,-0.07,0.075
13:32:16.360,-0.07,0.07
13:32:16.364,-0.07,0.095
13:32:16.368,-0.085,0.065
13:32:16.372,-0.08,0.085
13:32:16.376,-0.085,0.085
13:32:16.380,-0.085,0.065
13:32:16.384,-0.09,0.07
13:32:16.388,-0.1,0.07
13:32:16.392,-0.09,0.055
13:32:16.396,-0.11,0.085
13:32:16.400,-0.12,0.085
13:32:16.404,-0.11,0.055
13:32:16.408,-0.115,0.06
13:32:16.412,-0.13,0.075
13:32:16.416,-0.135,0.07
13:32:16.420,-0.125,0.065
13:32:16.424,-0.12,0.06
13:32:16.428,-0.135,0.085
13:32:16.432,-0.135,0.065
13:32:16.436,-0.145,0.085
13:32:16.440,-0.13,0.04
13:32:16.444,-0.15,0.085
13:32:16.448,-0.165,0.035
13:32:16.452,-0.155,0.005
13:32:16.456,-0.175,0.045
13:32:16.460,-0.185,0.05
13:32:16.464,-0.2,0.05
13:32:16.468,-0.215,0.03
13:32:16.472,-0.21,0.015
13:32:16.476,-0.2,0.015
13:32:16.480,-0.2,0.045
13:32:16.484,-0.215,0.04
13:32:16.488,-0.235,0.03
13:32:16.492,-0.23,0.055
13:32:16.496,-0.24,0.035
13:32:16.500,-0.25,0.065
13:32:16.504,-0.265,0.04
13:32:16.508,-0.275,0.05
13:32:16.512,-0.285,0.03
13:32:16.516,-0.28,0.055
13:32:16.520,-0.265,0.04
13:32:16.524,-0.255,0.04
13:32:16.528,-0.24,0.06
13:32:16.532,-0.19,0.08
13:32:16.536,-0.13,0.105
13:32:16.540,-0.04,0.135
13:32:16.544,-0.05,0.135
13:32:16.548,-0.015,0.115
13:32:16.552,-0.02,0.08
13:32:16.556,-0.01,0.115
13:32:16.560,-0.05,0.1
13:32:16.564,-0.1,-0.01
13:32:16.568,-0.185,-0.03
13:32:16.572,-0.235,-0.01
13:32:16.576,-0.275,0.03
13:32:16.580,-0.275,0.005
13:32:16.584,-0.195,-0.015
13:32:16.588,-0.045,-0.06
13:32:16.592,0.245,-0.15
13:32:16.596,0.58,-0.26
13:32:16.600,0.915,-0.355
13:32:16.604,1.205,-0.305
13:32:16.608,1.28,-0.14
13:32:16.612,0.9,0.15
13:32:16.616,0.175,0.455
13:32:16.620,-0.49,0.68
13:32:16.624,-0.895,0.585
13:32:16.628,-0.885,0.33
13:32:16.632,-0.705,0.04
13:32:16.636,-0.485,-0.09
13:32:16.640,-0.33,-0.135
13:32:16.644,-0.26,-0.08
13:32:16.648,-0.22,-0.04
13:32:16.652,-0.2,0.02
13:32:16.656,-0.19,0.075
13:32:16.660,-0.195,0.08
13:32:16.664,-0.22,0.07
13:32:16.668,-0.225,0.06
13:32:16.672,-0.215,0.09
13:32:16.676,-0.225,0.11
13:32:16.680,-0.225,0.08
13:32:16.684,-0.215,0.08
13:32:16.688,-0.235,0.07
13:32:16.692,-0.265,0.07
13:32:16.696,-0.275,0.06
13:32:16.700,-0.275,0.085
13:32:16.704,-0.27,0.105
13:32:16.708,-0.275,0.1
13:32:16.712,-0.3,0.07
13:32:16.716,-0.31,0.095
13:32:16.720,-0.3,0.105
13:32:16.724,-0.29,0.115
13:32:16.728,-0.3,0.12
13:32:16.732,-0.32,0.075
13:32:16.736,-0.33,0.09
13:32:16.740,-0.3,0.11
13:32:16.744,-0.32,0.105
13:32:16.748,-0.315,0.125
13:32:16.752,-0.325,0.14
13:32:16.756,-0.315,0.145
13:32:16.760,-0.305,0.145
13:32:16.764,-0.265,0.15
13:32:16.768,-0.215,0.14
13:32:16.772,-0.165,0.175
13:32:16.776,-0.085,0.22
13:32:16.780,-0.025,0.255
13:32:16.784,-0.005,0.23
13:32:16.788,-0.005,0.17
13:32:16.792,0.01,0.15
13:32:16.796,0.04,0.145
13:32:16.800,0.05,0.13
13:32:16.804,0.085,0.105
13:32:16.808,0.07,0.08
13:32:16.812,0.125,0.095
13:32:16.816,0.135,0.11
13:32:16.820,0.155,0.085
13:32:16.824,0.18,0.085
13:32:16.828,0.185,0.085
13:32:16.832,0.21,0.07
13:32:16.836,0.22,0.095
13:32:16.840,0.245,0.09
13:32:16.844,0.235,0.09
13:32:16.848,0.25,0.095
13:32:16.852,0.255,0.105
13:32:16.856,0.255,0.095
13:32:16.860,0.265,0.1
13:32:16.864,0.255,0.1
13:32:16.868,0.26,0.09
13:32:16.872,0.23,0.065
13:32:16.876,0.21,0.06
13:32:16.880,0.195,0.07
13:32:16.884,0.175,0.08
13:32:16.888,0.14,0.11
13:32:16.892,0.13,0.13
13:32:16.896,0.095,0.11
13:32:16.900,0.09,0.11
13:32:16.904,0.08,0.09
13:32:16.908,0.065,0.12
13:32:16.912,0.025,0.11
13:32:16.916,0.005,0.11
13:32:16.920,-0.025,0.11
13:32:16.924,-0.075,0.09
13:32:16.928,-0.085,0.1
13:32:16.932,-0.105,0.105
13:32:16.936,-0.12,0.12
13:32:16.940,-0.155,0.13
13:32:16.944,-0.17,0.095
13:32:16.948,-0.19,0.115
13:32:16.952,-0.2,0.11
13:32:16.956,-0.22,0.12
13:32:16.960,-0.22,0.125
13:32:16.964,-0.225,0.12
13:32:16.968,-0.235,0.145
13:32:16.972,-0.245,0.15
13:32:16.976,-0.27,0.145
13:32:16.980,-0.28,0.15
13:32:16.984,-0.27,0.13
13:32:16.988,-0.285,0.145
13:32:16.992,-0.285,0.155
13:32:16.996,-0.28,0.115
13:32:17.000,-0.26,0.135
13:32:17.004,-0.25,0.15
13:32:17.008,-0.23,0.19
13:32:17.012,-0.205,0.205
13:32:17.016,-0.17,0.235
13:32:17.020,-0.115,0.245
13:32:17.024,-0.105,0.275
13:32:17.028,-0.09,0.255
13:32:17.032,-0.08,0.23
13:32:17.036,-0.09,0.21
13:32:17.040,-0.09,0.2
13:32:17.044,-0.08,0.2
13:32:17.048,-0.095,0.17
13:32:17.052,-0.085,0.165
13:32:17.056,-0.085,0.16
13:32:17.060,-0.09,0.195
13:32:17.064,-0.1,0.17
13:32:17.068,-0.1,0.15
13:32:17.072,-0.115,0.145
13:32:17.076,-0.11,0.16
13:32:17.080,-0.105,0.14
13:32:17.084,-0.12,0.185
13:32:17.088,-0.11,0.175
13:32:17.092,-0.12,0.18
13:32:17.096,-0.12,0.15
13:32:17.100,-0.115,0.16
13:32:17.104,-0.12,0.145
13:32:17.108,-0.125,0.15
13:32:17.112,-0.125,0.155
13:32:17.116,-0.115,0.175
13:32:17.120,-0.12,0.145
13:32:17.124,-0.145,0.155
13:32:17.128,-0.145,0.145
13:32:17.132,-0.145,0.16
13:32:17.136,-0.145,0.15
13:32:17.140,-0.145,0.165
13:32:17.144,-0.145,0.13
13:32:17.148,-0.15,0.12
13:32:17.152,-0.175,0.135
13:32:17.156,-0.185,0.15
13:32:17.160,-0.17,0.135
13:32:17.164,-0.19,0.145
13:32:17.168,-0.205,0.1
13:32:17.172,-0.235,0.115
13:32:17.176,-0.25,0.14
13:32:17.180,-0.25,0.145
13:32:17.184,-0.27,0.145
13:32:17.188,-0.26,0.12
13:32:17.192,-0.265,0.14
13:32:17.196,-0.29,0.125
13:32:17.200,-0.265,0.135
13:32:17.204,-0.285,0.14
13:32:17.208,-0.29,0.125
13:32:17.212,-0.31,0.14
13:32:17.216,-0.29,0.17
13:32:17.220,-0.32,0.13
13:32:17.224,-0.335,0.155
13:32:17.228,-0.35,0.14
13:32:17.232,-0.355,0.155
13:32:17.236,-0.355,0.165
13:32:17.240,-0.32,0.15
13:32:17.244,-0.315,0.15
13:32:17.248,-0.26,0.205
13:32:17.252,-0.175,0.205
13:32:17.256,-0.12,0.235
13:32:17.260,-0.1,0.235
13:32:17.264,-0.1,0.205
13:32:17.268,-0.105,0.17
13:32:17.272,-0.105,0.185
13:32:17.276,-0.105,0.145
13:32:17.280,-0.1,0.16
13:32:17.284,-0.115,0.145
13:32:17.288,-0.12,0.145
13:32:17.292,-0.12,0.13
13:32:17.296,-0.145,0.15
13:32:17.300,-0.2,0.165
13:32:17.304,-0.24,0.135
13:32:17.308,-0.315,0.11
13:32:17.312,-0.33,0.12
13:32:17.316,-0.335,0.07
13:32:17.320,-0.225,0.025
13:32:17.324,0.025,-0.06
13:32:17.328,0.365,-0.205
13:32:17.332,0.735,-0.32
13:32:17.336,1.025,-0.32
13:32:17.340,0.96,-0.09
13:32:17.344,0.51,0.32
13:32:17.348,-0.14,0.675
13:32:17.352,-0.76,0.89
13:32:17.356,-1.0,0.755
13:32:17.360,-0.955,0.455
13:32:17.364,-0.775,0.145
13:32:17.368,-0.545,-0.01
13:32:17.372,-0.385,-0.03
13:32:17.376,-0.305,-0.01
13:32:17.380,-0.265,0.02
13:32:17.384,-0.26,0.105
13:32:17.388,-0.26,0.135
13:32:17.392,-0.245,0.16
13:32:17.396,-0.25,0.15
13:32:17.400,-0.27,0.15
13:32:17.404,-0.285,0.155
13:32:17.408,-0.31,0.165
13:32:17.412,-0.305,0.155
13:32:17.416,-0.335,0.12
13:32:17.420,-0.35,0.16
13:32:17.424,-0.315,0.165
13:32:17.428,-0.335,0.155
13:32:17.432,-0.34,0.155
13:32:17.436,-0.345,0.135
13:32:17.440,-0.34,0.15
13:32:17.444,-0.34,0.155
13:32:17.448,-0.345,0.17
13:32:17.452,-0.335,0.2
13:32:17.456,-0.36,0.2
13:32:17.460,-0.345,0.21
13:32:17.464,-0.365,0.185
13:32:17.468,-0.34,0.185
13:32:17.472,-0.32,0.175
13:32:17.476,-0.285,0.21
13:32:17.480,-0.24,0.215
13:32:17.484,-0.16,0.235
13:32:17.488,-0.115,0.245
13:32:17.492,-0.1,0.26
13:32:17.496,-0.085,0.245
13:32:17.500,-0.07,0.26
13:32:17.504,-0.065,0.22
13:32:17.508,-0.025,0.205
13:32:17.512,-0.03,0.18
13:32:17.516,-0.02,0.14
13:32:17.520,0.02,0.13
13:32:17.524,0.02,0.125
13:32:17.528,0.04,0.12
13:32:17.532,0.055,0.14
13:32:17.536,0.075,0.125
13:32:17.540,0.095,0.105
13:32:17.544,0.12,0.115
13:32:17.548,0.15,0.105
13:32:17.552,0.135,0.115
13:32:17.556,0.155,0.115
13:32:17.560,0.17,0.095
13:32:17.564,0.175,0.105
13:32:17.568,0.155,0.13
13:32:17.572,0.165,0.09
13:32:17.576,0.155,0.1
13:32:17.580,0.14,0.115
13:32:17.584,0.14,0.1
13:32:17.588,0.13,0.115
13:32:17.592,0.13,0.1
13:32:17.596,0.095,0.1
13:32:17.600,0.07,0.095
13:32:17.604,0.035,0.12
13:32:17.608,-0.01,0.12
13:32:17.612,-0.01,0.135
13:32:17.616,-0.04,0.15
13:32:17.620,-0.075,0.135
13:32:17.624,-0.105,0.14
13:32:17.628,-0.15,0.14
13:32:17.632,-0.185,0.145
13:32:17.636,-0.185,0.14
13:32:17.640,-0.215,0.115
13:32:17.644,-0.235,0.14
13:32:17.648,-0.24,0.15
13:32:17.652,-0.25,0.135
13:32:17.656,-0.28,0.13
13:32:17.660,-0.295,0.125
13:32:17.664,-0.315,0.11
13:32:17.668,-0.34,0.115
13:32:17.672,-0.34,0.135
13:32:17.676,-0.355,0.155
13:32:17.680,-0.35,0.17
13:32:17.684,-0.35,0.165
13:32:17.688,-0.38,0.15
13:32:17.692,-0.37,0.15
13:32:17.696,-0.375,0.165
13:32:17.700,-0.35,0.14
13:32:17.704,-0.335,0.195
13:32:17.708,-0.32,0.165
13:32:17.712,-0.31,0.175
13:32:17.716,-0.27,0.22
13:32:17.720,-0.235,0.25
13:32:17.724,-0.195,0.225
13:32:17.728,-0.18,0.265
13:32:17.732,-0.175,0.275
13:32:17.736,-0.16,0.22
13:32:17.740,-0.175,0.195
13:32:17.744,-0.17,0.19
13:32:17.748,-0.145,0.195
13:32:17.752,-0.155,0.175
13:32:17.756,-0.155,0.165
13:32:17.760,-0.18,0.155
13:32:17.764,-0.17,0.18
13:32:17.768,-0.155,0.175
13:32:17.772,-0.18,0.17
13:32:17.776,-0.17,0.2
13:32:17.780,-0.165,0.19
13:32:17.784,-0.18,0.18
13:32:17.788,-0.16,0.19
13:32:17.792,-0.165,0.2
13:32:17.796,-0.175,0.185
13:32:17.800,-0.18,0.16
13:32:17.804,-0.185,0.17
13:32:17.808,-0.19,0.18
13:32:17.812,-0.185,0.185
13:32:17.816,-0.19,0.185
13:32:17.820,-0.215,0.175
13:32:17.824,-0.22,0.195
13:32:17.828,-0.235,0.205
13:32:17.832,-0.225,0.22
13:32:17.836,-0.225,0.195
13:32:17.840,-0.21,0.21
13:32:17.844,-0.205,0.165
13:32:17.848,-0.23,0.2
13:32:17.852,-0.335,0.175
13:32:17.856,-0.375,0.155
13:32:17.860,-0.415,0.18
13:32:17.864,-0.4,0.135
13:32:17.868,-0.275,0.095
13:32:17.872,0.0,0.0
13:32:17.876,0.335,-0.095
13:32:17.880,0.725,-0.195
13:32:17.884,1.0,-0.18
13:32:17.888,0.965,-0.01
13:32:17.892,0.53,0.355
13:32:17.896,-0.075,0.655
13:32:17.900,-0.625,0.83
13:32:17.904,-0.925,0.96
13:32:17.908,-1.02,0.72
13:32:17.912,-0.97,0.295
13:32:17.916,-0.815,0.065
13:32:17.920,-0.64,0.0
13:32:17.924,-0.49,0.0
13:32:17.928,-0.44,0.035
13:32:17.932,-0.39,0.065
13:32:17.936,-0.35,0.18
13:32:17.940,-0.295,0.22
13:32:17.944,-0.24,0.25
13:32:17.948,-0.205,0.27
13:32:17.952,-0.165,0.29
13:32:17.956,-0.15,0.265
13:32:17.960,-0.14,0.255
13:32:17.964,-0.15,0.23
13:32:17.968,-0.135,0.215
13:32:17.972,-0.125,0.215
13:32:17.976,-0.115,0.2
13:32:17.980,-0.15,0.19
13:32:17.984,-0.14,0.185
13:32:17.988,-0.12,0.195
13:32:17.992,-0.11,0.17
13:32:17.996,-0.105,0.175
13:32:18.000,-0.125,0.23
13:32:18.004,-0.115,0.2
13:32:18.008,-0.09,0.19
13:32:18.012,-0.1,0.2
13:32:18.016,-0.105,0.175
13:32:18.020,-0.11,0.175
13:32:18.024,-0.1,0.155
13:32:18.028,-0.09,0.18
13:32:18.032,-0.095,0.175
13:32:18.036,-0.085,0.165
13:32:18.040,-0.075,0.165
13:32:18.044,-0.06,0.16
13:32:18.048,-0.04,0.17
13:32:18.052,-0.055,0.165
13:32:18.056,-0.035,0.14
13:32:18.060,-0.015,0.135
13:32:18.064,0.01,0.145
13:32:18.068,0.05,0.13
13:32:18.072,0.03,0.14
13:32:18.076,0.045,0.13
13:32:18.080,0.05,0.12
13:32:18.084,0.075,0.095
13:32:18.088,0.1,0.09
13:32:18.092,0.085,0.07
13:32:18.096,0.085,0.075
13:32:18.100,0.075,0.1
13:32:18.104,0.075,0.075
13:32:18.108,0.065,0.07
13:32:18.112,0.05,0.085
13:32:18.116,0.055,0.095
13:32:18.120,0.045,0.07
13:32:18.124,-0.005,0.085
13:32:18.128,-0.025,0.1
13:32:18.132,-0.025,0.115
13:32:18.136,-0.03,0.085
13:32:18.140,-0.065,0.115
13:32:18.144,-0.095,0.125
13:32:18.148,-0.13,0.1
13:32:18.152,-0.155,0.135
13:32:18.156,-0.17,0.155
13:32:18.160,-0.175,0.155
13:32:18.164,-0.18,0.145
13:32:18.168,-0.165,0.165
13:32:18.172,-0.18,0.205
13:32:18.176,-0.16,0.235
13:32:18.180,-0.16,0.245
13:32:18.184,-0.125,0.27
13:32:18.188,-0.105,0.275
13:32:18.192,-0.12,0.27
13:32:18.196,-0.12,0.24
13:32:18.200,-0.14,0.215
13:32:18.204,-0.125,0.225
13:32:18.208,-0.145,0.2
13:32:18.212,-0.14,0.175
13:32:18.216,-0.15,0.17
13:32:18.220,-0.155,0.18
13:32:18.224,-0.16,0.16
13:32:18.228,-0.16,0.165
13:32:18.232,-0.165,0.18
13:32:18.236,-0.17,0.19
13:32:18.240,-0.155,0.185
13:32:18.244,-0.16,0.19
13:32:18.248,-0.16,0.18
13:32:18.252,-0.15,0.155
13:32:18.256,-0.145,0.165
13:32:18.260,-0.14,0.165
13:32:18.264,-0.145,0.195
13:32:18.268,-0.15,0.155
13:32:18.272,-0.165,0.165
13:32:18.276,-0.165,0.16
13:32:18.280,-0.155,0.15
13:32:18.284,-0.145,0.175
13:32:18.288,-0.165,0.18
13:32:18.292,-0.16,0.16
13:32:18.296,-0.155,0.17
13:32:18.300,-0.165,0.155
13:32:18.304,-0.175,0.175
13:32:18.308,-0.195,0.165
13:32:18.312,-0.21,0.155
13:32:18.316,-0.205,0.155
13:32:18.320,-0.225,0.17
13:32:18.324,-0.215,0.15
13:32:18.328,-0.26,0.15
13:32:18.332,-0.275,0.145
13:32:18.336,-0.285,0.13
13:32:18.340,-0.28,0.135
13:32:18.344,-0.305,0.115
13:32:18.348,-0.285,0.15
13:32:18.352,-0.305,0.165
13:32:18.356,-0.32,0.13
13:32:18.360,-0.315,0.13
13:32:18.364,-0.32,0.13
13:32:18.368,-0.325,0.14
13:32:18.372,-0.35,0.14
13:32:18.376,-0.34,0.145
13:32:18.380,-0.36,0.155
13:32:18.384,-0.37,0.155
13:32:18.388,-0.37,0.155
13:32:18.392,-0.345,0.15
13:32:18.396,-0.315,0.2
13:32:18.400,-0.29,0.205
13:32:18.404,-0.255,0.19
13:32:18.408,-0.21,0.26
13:32:18.412,-0.19,0.265
13:32:18.416,-0.145,0.27
13:32:18.420,-0.15,0.265
13:32:18.424,-0.125,0.195
13:32:18.428,-0.135,0.21
13:32:18.432,-0.16,0.2
13:32:18.436,-0.155,0.17
13:32:18.440,-0.155,0.145
13:32:18.444,-0.16,0.135
13:32:18.448,-0.165,0.125
13:32:18.452,-0.205,0.135
13:32:18.456,-0.275,0.115
13:32:18.460,-0.325,0.125
13:32:18.464,-0.34,0.095
13:32:18.468,-0.34,0.105
13:32:18.472,-0.28,0.055
13:32:18.476,-0.06,-0.015
13:32:18.480,0.275,-0.135
13:32:18.484,0.675,-0.225
13:32:18.488,1.05,-0.23
13:32:18.492,1.205,-0.1
13:32:18.496,0.91,0.215
13:32:18.500,0.26,0.565
13:32:18.504,-0.42,0.725
13:32:18.508,-0.9,0.815
13:32:18.512,-0.985,0.56
13:32:18.516,-0.86,0.22
13:32:18.520,-0.64,0.015
13:32:18.524,-0.46,-0.05
13:32:18.528,-0.345,-0.04
13:32:18.532,-0.275,0.015
13:32:18.536,-0.25,0.05
13:32:18.540,-0.25,0.13
13:32:18.544,-0.24,0.16
13:32:18.548,-0.265,0.155
13:32:18.552,-0.275,0.135
13:32:18.556,-0.27,0.17
13:32:18.560,-0.285,0.14
13:32:18.564,-0.3,0.16
13:32:18.568,-0.31,0.11
13:32:18.572,-0.32,0.155
13:32:18.576,-0.33,0.15
13:32:18.580,-0.32,0.155
13:32:18.584,-0.315,0.14
13:32:18.588,-0.325,0.165
13:32:18.592,-0.345,0.165
13:32:18.596,-0.355,0.17
13:32:18.600,-0.36,0.18
13:32:18.604,-0.36,0.155
13:32:18.608,-0.34,0.195
13:32:18.612,-0.335,0.205
13:32:18.616,-0.35,0.19
13:32:18.620,-0.345,0.175
13:32:18.624,-0.335,0.175
13:32:18.628,-0.29,0.165
13:32:18.632,-0.27,0.185
13:32:18.636,-0.255,0.21
13:32:18.640,-0.2,0.24
13:32:18.644,-0.145,0.275
13:32:18.648,-0.09,0.31
13:32:18.652,-0.065,0.305
13:32:18.656,-0.065,0.265
13:32:18.660,-0.035,0.205
13:32:18.664,-0.025,0.195
13:32:18.668,-0.005,0.2
13:32:18.672,0.03,0.145
13:32:18.676,0.035,0.15
13:32:18.680,0.06,0.15
13:32:18.684,0.1,0.145
13:32:18.688,0.085,0.14
13:32:18.692,0.105,0.155
13:32:18.696,0.145,0.11
13:32:18.700,0.155,0.115
13:32:18.704,0.16,0.115
13:32:18.708,0.165,0.105
13:32:18.712,0.18,0.1
13:32:18.716,0.185,0.1
13:32:18.720,0.15,0.115
13:32:18.724,0.175,0.11
13:32:18.728,0.16,0.12
13:32:18.732,0.15,0.1
13:32:18.736,0.135,0.11
13:32:18.740,0.125,0.135
13:32:18.744,0.095,0.135
13:32:18.748,0.065,0.13
13:32:18.752,0.055,0.15
13:32:18.756,0.03,0.165
13:32:18.760,-0.005,0.165
13:32:18.764,-0.01,0.155
13:32:18.768,-0.02,0.19
13:32:18.772,-0.08,0.185
13:32:18.776,-0.07,0.175
13:32:18.780,-0.11,0.19
13:32:18.784,-0.13,0.185
13:32:18.788,-0.17,0.165
13:32:18.792,-0.205,0.185
13:32:18.796,-0.225,0.155
13:32:18.800,-0.235,0.175
13:32:18.804,-0.25,0.195
13:32:18.808,-0.26,0.17
13:32:18.812,-0.285,0.185
13:32:18.816,-0.28,0.21
13:32:18.820,-0.31,0.205
13:32:18.824,-0.3,0.2
13:32:18.828,-0.315,0.185
13:32:18.832,-0.32,0.19
13:32:18.836,-0.325,0.22
13:32:18.840,-0.34,0.22
13:32:18.844,-0.335,0.23
13:32:18.848,-0.34,0.255
13:32:18.852,-0.34,0.255
13:32:18.856,-0.3,0.245
13:32:18.860,-0.26,0.25
13:32:18.864,-0.26,0.285
13:32:18.868,-0.22,0.275
13:32:18.872,-0.18,0.345
13:32:18.876,-0.145,0.36
13:32:18.880,-0.12,0.37
13:32:18.884,-0.11,0.335
13:32:18.888,-0.09,0.31
13:32:18.892,-0.08,0.28
13:32:18.896,-0.09,0.29
13:32:18.900,-0.105,0.255
13:32:18.904,-0.1,0.255
13:32:18.908,-0.1,0.245
13:32:18.912,-0.09,0.23
13:32:18.916,-0.07,0.26
13:32:18.920,-0.105,0.265
13:32:18.924,-0.11,0.255
13:32:18.928,-0.1,0.26
13:32:18.932,-0.11,0.25
13:32:18.936,-0.11,0.245
13:32:18.940,-0.11,0.24
13:32:18.944,-0.11,0.24
13:32:18.948,-0.1,0.245
13:32:18.952,-0.1,0.24
13:32:18.956,-0.13,0.25
13:32:18.960,-0.13,0.25
13:32:18.964,-0.13,0.26
13:32:18.968,-0.14,0.24
13:32:18.972,-0.15,0.245
13:32:18.976,-0.145,0.235
13:32:18.980,-0.13,0.23
13:32:18.984,-0.135,0.255
13:32:18.988,-0.145,0.23
13:32:18.992,-0.145,0.225
13:32:18.996,-0.155,0.225
13:32:19.000,-0.175,0.215
13:32:19.004,-0.175,0.2
13:32:19.008,-0.19,0.245
13:32:19.012,-0.21,0.22
13:32:19.016,-0.205,0.22
13:32:19.020,-0.205,0.215
13:32:19.024,-0.25,0.22
13:32:19.028,-0.26,0.22
13:32:19.032,-0.26,0.2
13:32:19.036,-0.285,0.205
13:32:19.040,-0.26,0.195
13:32:19.044,-0.295,0.2
13:32:19.048,-0.275,0.22
13:32:19.052,-0.275,0.21
13:32:19.056,-0.295,0.215
13:32:19.060,-0.285,0.23
13:32:19.064,-0.3,0.215
13:32:19.068,-0.3,0.225
13:32:19.072,-0.305,0.21
13:32:19.076,-0.33,0.245
13:32:19.080,-0.335,0.265
13:32:19.084,-0.335,0.25
13:32:19.088,-0.315,0.235
13:32:19.092,-0.3,0.235
13:32:19.096,-0.305,0.24
13:32:19.100,-0.22,0.275
13:32:19.104,-0.185,0.325
13:32:19.108,-0.145,0.32
13:32:19.112,-0.09,0.305
13:32:19.116,-0.085,0.275
13:32:19.120,-0.075,0.27
13:32:19.124,-0.065,0.28
13:32:19.128,-0.095,0.23
13:32:19.132,-0.09,0.22
13:32:19.136,-0.105,0.23
13:32:19.140,-0.09,0.215
13:32:19.144,-0.125,0.235
13:32:19.148,-0.11,0.235
13:32:19.152,-0.11,0.225
13:32:19.156,-0.12,0.225
13:32:19.160,-0.105,0.24
13:32:19.164,-0.12,0.235
13:32:19.168,-0.125,0.215
13:32:19.172,-0.12,0.24
13:32:19.176,-0.12,0.23
13:32:19.180,-0.125,0.235
13:32:19.184,-0.125,0.235
13:32:19.188,-0.125,0.215
13:32:19.192,-0.145,0.235
13:32:19.196,-0.18,0.225
13:32:19.200,-0.245,0.21
13:32:19.204,-0.27,0.19
13:32:19.208,-0.29,0.185
13:32:19.212,-0.265,0.15
13:32:19.216,-0.155,0.115
13:32:19.220,0.085,0.0
13:32:19.224,0.42,-0.115
13:32:19.228,0.77,-0.215
13:32:19.232,1.08,-0.185
13:32:19.236,1.135,0.025
13:32:19.240,0.8,0.395
13:32:19.244,0.125,0.75
13:32:19.248,-0.53,0.93
13:32:19.252,-0.935,0.82
13:32:19.256,-0.965,0.455
13:32:19.260,-0.8,0.175
13:32:19.264,-0.595,0.005
13:32:19.268,-0.43,0.0
13:32:19.272,-0.365,0.05
13:32:19.276,-0.315,0.115
13:32:19.280,-0.325,0.185
13:32:19.284,-0.32,0.26
13:32:19.288,-0.33,0.245
13:32:19.292,-0.345,0.215
13:32:19.296,-0.315,0.245
13:32:19.300,-0.335,0.265
13:32:19.304,-0.315,0.26
13:32:19.308,-0.33,0.265
13:32:19.312,-0.3,0.25
13:32:19.316,-0.305,0.26
13:32:19.320,-0.3,0.255
13:32:19.324,-0.29,0.28
13:32:19.328,-0.28,0.3
13:32:19.332,-0.24,0.32
13:32:19.336,-0.19,0.32
13:32:19.340,-0.15,0.325
13:32:19.344,-0.14,0.32
13:32:19.348,-0.13,0.315
13:32:19.352,-0.13,0.31
13:32:19.356,-0.105,0.28
13:32:19.360,-0.085,0.265
13:32:19.364,-0.08,0.24
13:32:19.368,-0.085,0.22
13:32:19.372,-0.085,0.22
13:32:19.376,-0.1,0.265
13:32:19.380,-0.07,0.24
13:32:19.384,-0.065,0.25
13:32:19.388,-0.06,0.24
13:32:19.392,-0.065,0.235
13:32:19.396,-0.055,0.24
13:32:19.400,-0.035,0.235
13:32:19.404,-0.035,0.225
13:32:19.408,-0.035,0.25
13:32:19.412,-0.035,0.23
13:32:19.416,-0.015,0.215
13:32:19.420,0.01,0.22
13:32:19.424,0.02,0.245
13:32:19.428,0.025,0.215
13:32:19.432,0.055,0.21
13:32:19.436,0.06,0.205
13:32:19.440,0.09,0.21
13:32:19.444,0.08,0.21
13:32:19.448,0.125,0.2
13:32:19.452,0.13,0.21
13:32:19.456,0.135,0.18
13:32:19.460,0.125,0.175
13:32:19.464,0.135,0.19
13:32:19.468,0.155,0.21
13:32:19.472,0.135,0.175
13:32:19.476,0.12,0.185
13:32:19.480,0.12,0.175
13:32:19.484,0.095,0.185
13:32:19.488,0.065,0.19
13:32:19.492,0.055,0.155
13:32:19.496,0.03,0.18
13:32:19.500,0.01,0.165
13:32:19.504,-0.02,0.17
13:32:19.508,-0.055,0.2
13:32:19.512,-0.1,0.195
13:32:19.516,-0.13,0.205
13:32:19.520,-0.13,0.18
13:32:19.524,-0.145,0.2
13:32:19.528,-0.155,0.195
13:32:19.532,-0.165,0.215
13:32:19.536,-0.185,0.22
13:32:19.540,-0.19,0.245
13:32:19.544,-0.21,0.22
13:32:19.548,-0.22,0.24
13:32:19.552,-0.205,0.22
13:32:19.556,-0.21,0.24
13:32:19.560,-0.21,0.25
13:32:19.564,-0.2,0.27
13:32:19.568,-0.17,0.275
13:32:19.572,-0.115,0.3
13:32:19.576,-0.1,0.3
13:32:19.580,-0.1,0.29
13:32:19.584,-0.12,0.27
13:32:19.588,-0.12,0.265
13:32:19.592,-0.12,0.23
13:32:19.596,-0.12,0.245
13:32:19.600,-0.115,0.23
13:32:19.604,-0.125,0.215
13:32:19.608,-0.12,0.235
13:32:19.612,-0.125,0.22
13:32:19.616,-0.125,0.225
13:32:19.620,-0.135,0.215
13:32:19.624,-0.14,0.2
13:32:19.628,-0.15,0.21
13:32:19.632,-0.12,0.24
13:32:19.636,-0.135,0.24
13:32:19.640,-0.13,0.23
13:32:19.644,-0.13,0.225
13:32:19.648,-0.14,0.245
13:32:19.652,-0.155,0.235
13:32:19.656,-0.16,0.255
13:32:19.660,-0.17,0.23
13:32:19.664,-0.16,0.23
13:32:19.668,-0.19,0.235
13:32:19.672,-0.175,0.225
13:32:19.676,-0.19,0.29
13:32:19.680,-0.19,0.29
13:32:19.684,-0.2,0.255
13:32:19.688,-0.185,0.245
13:32:19.692,-0.19,0.245
13:32:19.696,-0.19,0.225
13:32:19.700,-0.185,0.27
13:32:19.704,-0.225,0.26
13:32:19.708,-0.23,0.22
13:32:19.712,-0.23,0.24
13:32:19.716,-0.25,0.225
13:32:19.720,-0.255,0.23
13:32:19.724,-0.275,0.22
13:32:19.728,-0.28,0.21
13:32:19.732,-0.285,0.23
13:32:19.736,-0.29,0.22
13:32:19.740,-0.28,0.225
13:32:19.744,-0.3,0.215
13:32:19.748,-0.31,0.235
13:32:19.752,-0.31,0.22
13:32:19.756,-0.31,0.22
13:32:19.760,-0.335,0.215
13:32:19.764,-0.345,0.22
13:32:19.768,-0.36,0.225
13:32:19.772,-0.35,0.24
13:32:19.776,-0.335,0.23
13:32:19.780,-0.32,0.245
13:32:19.784,-0.32,0.24
13:32:19.788,-0.295,0.235
13:32:19.792,-0.27,0.28
13:32:19.796,-0.255,0.275
13:32:19.800,-0.235,0.305
13:32:19.804,-0.205,0.315
13:32:19.808,-0.155,0.275
13:32:19.812,-0.1,0.235
13:32:19.816,0.015,0.195
13:32:19.820,0.22,0.08
13:32:19.824,0.5,-0.045
13:32:19.828,0.795,-0.19
13:32:19.832,1.0,-0.22
13:32:19.836,1.03,-0.165
13:32:19.840,0.64,0.135
13:32:19.844,0.19,0.505
13:32:19.848,-0.36,0.83
13:32:19.852,-0.785,0.94
13:32:19.856,-0.91,0.775
13:32:19.860,-0.85,0.43
13:32:19.864,-0.675,0.2
13:32:19.868,-0.455,0.07
13:32:19.872,-0.285,0.06
13:32:19.876,-0.22,0.055
13:32:19.880,-0.18,0.13
13:32:19.884,-0.16,0.22
13:32:19.888,-0.17,0.27
13:32:19.892,-0.165,0.255
13:32:19.896,-0.185,0.255
13:32:19.900,-0.175,0.255
13:32:19.904,-0.17,0.245
13:32:19.908,-0.175,0.26
13:32:19.912,-0.175,0.26
13:32:19.916,-0.185,0.275
13:32:19.920,-0.17,0.29
13:32:19.924,-0.19,0.275
13:32:19.928,-0.155,0.275
13:32:19.932,-0.17,0.27
13:32:19.936,-0.18,0.27
13:32:19.940,-0.185,0.26
13:32:19.944,-0.185,0.27
13:32:19.948,-0.205,0.26
13:32:19.952,-0.23,0.265
13:32:19.956,-0.23,0.28
13:32:19.960,-0.235,0.235
13:32:19.964,-0.24,0.255
13:32:19.968,-0.25,0.245
13:32:19.972,-0.255,0.255
13:32:19.976,-0.235,0.245
13:32:19.980,-0.245,0.245
13:32:19.984,-0.23,0.245
13:32:19.988,-0.225,0.255
13:32:19.992,-0.245,0.25
13:32:19.996,-0.23,0.245
13:32:20.000,-0.23,0.265
13:32:20.004,-0.205,0.28
13:32:20.008,-0.2,0.255
13:32:20.012,-0.185,0.255
13:32:20.016,-0.16,0.25
13:32:20.020,-0.145,0.26
13:32:20.024,-0.09,0.23
13:32:20.028,-0.05,0.245
13:32:20.032,-0.005,0.24
13:32:20.036,0.035,0.265
13:32:20.040,0.085,0.275
13:32:20.044,0.15,0.275
13:32:20.048,0.205,0.295
13:32:20.052,0.235,0.3
13:32:20.056,0.255,0.275
13:32:20.060,0.265,0.25
13:32:20.064,0.28,0.23
13:32:20.068,0.28,0.23
13:32:20.072,0.26,0.205
13:32:20.076,0.26,0.18
13:32:20.080,0.285,0.2
13:32:20.084,0.265,0.19
13:32:20.088,0.23,0.19
13:32:20.092,0.21,0.165
13:32:20.096,0.205,0.18
13:32:20.100,0.2,0.195
13:32:20.104,0.17,0.22
13:32:20.108,0.14,0.215
13:32:20.112,0.105,0.21
13:32:20.116,0.075,0.2
13:32:20.120,0.05,0.2
13:32:20.124,0.04,0.215
13:32:20.128,0.005,0.19
13:32:20.132,-0.02,0.205
13:32:20.136,-0.07,0.235
13:32:20.140,-0.08,0.215
13:32:20.144,-0.08,0.22
13:32:20.148,-0.095,0.205
13:32:20.152,-0.13,0.215
13:32:20.156,-0.14,0.225
13:32:20.160,-0.15,0.23
13:32:20.164,-0.17,0.24
13:32:20.168,-0.18,0.24
13:32:20.172,-0.195,0.215
13:32:20.176,-0.21,0.235
13:32:20.180,-0.225,0.23
13:32:20.184,-0.23,0.23
13:32:20.188,-0.24,0.245
13:32:20.192,-0.26,0.255
13:32:20.196,-0.26,0.21
13:32:20.200,-0.26,0.21
13:32:20.204,-0.29,0.24
13:32:20.208,-0.305,0.225
13:32:20.212,-0.31,0.21
13:32:20.216,-0.315,0.225
13:32:20.220,-0.315,0.24
13:32:20.224,-0.31,0.24
13:32:20.228,-0.315,0.245
13:32:20.232,-0.345,0.22
13:32:20.236,-0.34,0.24
13:32:20.240,-0.345,0.225
13:32:20.244,-0.33,0.19
13:32:20.248,-0.36,0.22
13:32:20.252,-0.365,0.19
13:32:20.256,-0.36,0.21
13:32:20.260,-0.37,0.225
13:32:20.264,-0.355,0.23
13:32:20.268,-0.31,0.25
13:32:20.272,-0.295,0.275
13:32:20.276,-0.275,0.26
13:32:20.280,-0.27,0.295
13:32:20.284,-0.225,0.31
13:32:20.288,-0.21,0.32
13:32:20.292,-0.18,0.3
13:32:20.296,-0.175,0.33
13:32:20.300,-0.165,0.29
13:32:20.304,-0.17,0.26
13:32:20.308,-0.17,0.26
13:32:20.312,-0.175,0.25
13:32:20.316,-0.17,0.23
13:32:20.320,-0.17,0.23
13:32:20.324,-0.17,0.225
13:32:20.328,-0.18,0.205
13:32:20.332,-0.19,0.225
13:32:20.336,-0.2,0.2
13:32:20.340,-0.195,0.22
13:32:20.344,-0.19,0.2
13:32:20.348,-0.25,0.19
13:32:20.352,-0.33,0.205
13:32:20.356,-0.4,0.185
13:32:20.360,-0.425,0.145
13:32:20.364,-0.395,0.135
13:32:20.368,-0.32,0.065
13:32:20.372,-0.1,0.015
13:32:20.376,0.2,-0.07
13:32:20.380,0.58,-0.165
13:32:20.384,0.895,-0.18
13:32:20.388,0.99,-0.025
13:32:20.392,0.72,0.3
13:32:20.396,0.22,0.595
13:32:20.400,-0.35,0.82
13:32:20.404,-0.785,0.93
13:32:20.408,-0.925,0.69
13:32:20.412,-0.86,0.315
13:32:20.416,-0.69,0.04
13:32:20.420,-0.56,-0.03
13:32:20.424,-0.41,-0.02
13:32:20.428,-0.34,-0.025
13:32:20.432,-0.325,0.045
13:32:20.436,-0.335,0.115
13:32:20.440,-0.345,0.155
13:32:20.444,-0.35,0.16
13:32:20.448,-0.35,0.175
13:32:20.452,-0.38,0.17
13:32:20.456,-0.35,0.185
13:32:20.460,-0.32,0.195
13:32:20.464,-0.335,0.205
13:32:20.468,-0.365,0.17
13:32:20.472,-0.375,0.17
13:32:20.476,-0.36,0.16
13:32:20.480,-0.36,0.16
13:32:20.484,-0.37,0.205
13:32:20.488,-0.385,0.205
13:32:20.492,-0.385,0.19
13:32:20.496,-0.39,0.195
13:32:20.500,-0.38,0.195
13:32:20.504,-0.375,0.205
13:32:20.508,-0.345,0.19
13:32:20.512,-0.31,0.19
13:32:20.516,-0.295,0.22
13:32:20.520,-0.265,0.205
13:32:20.524,-0.24,0.235
13:32:20.528,-0.235,0.265
13:32:20.532,-0.175,0.275
13:32:20.536,-0.14,0.26
13:32:20.540,-0.115,0.255
13:32:20.544,-0.115,0.245
13:32:20.548,-0.09,0.24
13:32:20.552,-0.09,0.205
13:32:20.556,-0.06,0.18
13:32:20.560,-0.075,0.145
13:32:20.564,-0.055,0.16
13:32:20.568,-0.025,0.145
13:32:20.572,-0.02,0.13
13:32:20.576,0.03,0.145
13:32:20.580,0.05,0.13
13:32:20.584,0.045,0.15
13:32:20.588,0.05,0.155
13:32:20.592,0.085,0.14
13:32:20.596,0.11,0.115
13:32:20.600,0.1,0.12
13:32:20.604,0.11,0.12
13:32:20.608,0.12,0.1
13:32:20.612,0.105,0.1
13:32:20.616,0.11,0.11
13:32:20.620,0.105,0.07
13:32:20.624,0.105,0.095
13:32:20.628,0.095,0.095
13:32:20.632,0.09,0.09
13:32:20.636,0.055,0.11
13:32:20.640,0.04,0.115
13:32:20.644,0.035,0.12
13:32:20.648,0.01,0.145
13:32:20.652,0.0,0.13
13:32:20.656,-0.025,0.145
13:32:20.660,-0.055,0.155
13:32:20.664,-0.095,0.145
13:32:20.668,-0.11,0.125
13:32:20.672,-0.145,0.155
13:32:20.676,-0.165,0.175
13:32:20.680,-0.19,0.155
13:32:20.684,-0.21,0.165
13:32:20.688,-0.265,0.17
13:32:20.692,-0.295,0.165
13:32:20.696,-0.285,0.145
13:32:20.700,-0.295,0.16
13:32:20.704,-0.315,0.15
13:32:20.708,-0.315,0.18
13:32:20.712,-0.32,0.175
13:32:20.716,-0.34,0.17
13:32:20.720,-0.36,0.17
13:32:20.724,-0.36,0.17
13:32:20.728,-0.36,0.17
13:32:20.732,-0.38,0.19
13:32:20.736,-0.395,0.2
13:32:20.740,-0.4,0.19
13:32:20.744,-0.4,0.18
13:32:20.748,-0.38,0.17
13:32:20.752,-0.36,0.19
13:32:20.756,-0.325,0.2
13:32:20.760,-0.32,0.215
13:32:20.764,-0.31,0.215
13:32:20.768,-0.29,0.255
13:32:20.772,-0.265,0.26
13:32:20.776,-0.215,0.285
13:32:20.780,-0.18,0.275
13:32:20.784,-0.165,0.27
13:32:20.788,-0.17,0.26
13:32:20.792,-0.16,0.235
13:32:20.796,-0.155,0.205
13:32:20.800,-0.16,0.225
13:32:20.804,-0.16,0.205
13:32:20.808,-0.17,0.205
13:32:20.812,-0.165,0.19
13:32:20.816,-0.16,0.185
13:32:20.820,-0.16,0.195
13:32:20.824,-0.17,0.205
13:32:20.828,-0.15,0.205
13:32:20.832,-0.135,0.2
13:32:20.836,-0.14,0.195
13:32:20.840,-0.155,0.21
13:32:20.844,-0.16,0.185
13:32:20.848,-0.15,0.22
13:32:20.852,-0.135,0.195
13:32:20.856,-0.16,0.2
13:32:20.860,-0.2,0.195
13:32:20.864,-0.275,0.175
13:32:20.868,-0.38,0.15
13:32:20.872,-0.41,0.175
13:32:20.876,-0.43,0.16
13:32:20.880,-0.38,0.135
13:32:20.884,-0.195,0.07
13:32:20.888,0.155,0.015
13:32:20.892,0.545,-0.085
13:32:20.896,0.935,-0.115
13:32:20.900,1.18,-0.055
13:32:20.904,1.09,0.22
13:32:20.908,0.565,0.56
13:32:20.912,-0.085,0.81
13:32:20.916,-0.64,0.955
13:32:20.920,-0.955,0.865
13:32:20.924,-0.98,0.45
13:32:20.928,-0.865,0.115
13:32:20.932,-0.665,-0.03
13:32:20.936,-0.515,-0.01
13:32:20.940,-0.42,0.0
13:32:20.944,-0.385,0.045
13:32:20.948,-0.365,0.11
13:32:20.952,-0.345,0.195
13:32:20.956,-0.365,0.23
13:32:20.960,-0.35,0.19
13:32:20.964,-0.335,0.2
13:32:20.968,-0.365,0.175
13:32:20.972,-0.365,0.185
13:32:20.976,-0.375,0.205
13:32:20.980,-0.375,0.195
13:32:20.984,-0.375,0.21
13:32:20.988,-0.38,0.215
13:32:20.992,-0.37,0.22
13:32:20.996,-0.37,0.22
13:32:21.000,-0.335,0.23
13:32:21.004,-0.305,0.25
13:32:21.008,-0.275,0.24
13:32:21.012,-0.22,0.275
13:32:21.016,-0.185,0.295
13:32:21.020,-0.155,0.315
13:32:21.024,-0.14,0.31
13:32:21.028,-0.125,0.28
13:32:21.032,-0.135,0.21
13:32:21.036,-0.11,0.235
13:32:21.040,-0.105,0.24
13:32:21.044,-0.095,0.195
13:32:21.048,-0.095,0.22
13:32:21.052,-0.105,0.205
13:32:21.056,-0.1,0.185
13:32:21.060,-0.1,0.2
13:32:21.064,-0.065,0.195
13:32:21.068,-0.05,0.21
13:32:21.072,-0.03,0.195
13:32:21.076,-0.015,0.185
13:32:21.080,-0.015,0.19
13:32:21.084,-0.01,0.185
13:32:21.088,0.015,0.17
13:32:21.092,0.025,0.18
13:32:21.096,0.04,0.19
13:32:21.100,0.06,0.175
13:32:21.104,0.075,0.17
13:32:21.108,0.06,0.145
13:32:21.112,0.085,0.155
13:32:21.116,0.085,0.135
13:32:21.120,0.1,0.145
13:32:21.124,0.1,0.155
13:32:21.128,0.09,0.14
13:32:21.132,0.085,0.13
13:32:21.136,0.08,0.135
13:32:21.140,0.075,0.17
13:32:21.144,0.07,0.16
13:32:21.148,0.055,0.15
13:32:21.152,0.05,0.155
13:32:21.156,0.01,0.175
13:32:21.160,-0.005,0.175
13:32:21.164,-0.03,0.18
13:32:21.168,-0.065,0.15
13:32:21.172,-0.1,0.165
13:32:21.176,-0.145,0.165
13:32:21.180,-0.155,0.185
13:32:21.184,-0.165,0.165
13:32:21.188,-0.2,0.155
13:32:21.192,-0.205,0.185
13:32:21.196,-0.24,0.17
13:32:21.200,-0.27,0.19
13:32:21.204,-0.275,0.2
13:32:21.208,-0.28,0.185
13:32:21.212,-0.29,0.18
13:32:21.216,-0.29,0.195
13:32:21.220,-0.32,0.19
13:32:21.224,-0.335,0.205
13:32:21.228,-0.33,0.19
13:32:21.232,-0.32,0.195
13:32:21.236,-0.31,0.19
13:32:21.240,-0.295,0.21
13:32:21.244,-0.28,0.23
13:32:21.248,-0.27,0.255
13:32:21.252,-0.275,0.26
13:32:21.256,-0.255,0.275
13:32:21.260,-0.2,0.295
13:32:21.264,-0.16,0.31
13:32:21.268,-0.15,0.295
13:32:21.272,-0.15,0.29
13:32:21.276,-0.12,0.255
13:32:21.280,-0.145,0.245
13:32:21.284,-0.14,0.23
13:32:21.288,-0.13,0.205
13:32:21.292,-0.13,0.19
13:32:21.296,-0.125,0.205
13:32:21.300,-0.11,0.195
13:32:21.304,-0.1,0.205
13:32:21.308,-0.115,0.21
13:32:21.312,-0.115,0.21
13:32:21.316,-0.105,0.17
13:32:21.320,-0.105,0.21
13:32:21.324,-0.11,0.195
13:32:21.328,-0.085,0.225
13:32:21.332,-0.095,0.18
13:32:21.336,-0.105,0.195
13:32:21.340,-0.105,0.215
13:32:21.344,-0.11,0.175
13:32:21.348,-0.13,0.165
13:32:21.352,-0.15,0.195
13:32:21.356,-0.16,0.19
13:32:21.360,-0.24,0.175
13:32:21.364,-0.305,0.165
13:32:21.368,-0.34,0.135
13:32:21.372,-0.355,0.135
13:32:21.376,-0.3,0.1
13:32:21.380,-0.08,0.055
13:32:21.384,0.27,-0.03
13:32:21.388,0.68,-0.145
13:32:21.392,1.055,-0.16
13:32:21.396,1.235,-0.035
13:32:21.400,1.08,0.27
13:32:21.404,0.445,0.665
13:32:21.408,-0.27,0.92
13:32:21.412,-0.855,0.96
13:32:21.416,-1.03,0.625
13:32:21.420,-0.92,0.235
13:32:21.424,-0.695,0.025
13:32:21.428,-0.5,-0.005
13:32:21.432,-0.42,0.0
13:32:21.436,-0.375,0.04
13:32:21.440,-0.37,0.115
13:32:21.444,-0.37,0.165
13:32:21.448,-0.37,0.18
13:32:21.452,-0.38,0.19
13:32:21.456,-0.37,0.195
13:32:21.460,-0.375,0.2
13:32:21.464,-0.385,0.225
13:32:21.468,-0.395,0.215
13:32:21.472,-0.385,0.23
13:32:21.476,-0.37,0.21
13:32:21.480,-0.34,0.235
13:32:21.484,-0.345,0.27
13:32:21.488,-0.27,0.3
13:32:21.492,-0.245,0.3
13:32:21.496,-0.175,0.335
13:32:21.500,-0.15,0.34
13:32:21.504,-0.16,0.31
13:32:21.508,-0.12,0.255
13:32:21.512,-0.16,0.255
13:32:21.516,-0.13,0.245
13:32:21.520,-0.13,0.23
13:32:21.524,-0.12,0.235
13:32:21.528,-0.125,0.245
13:32:21.532,-0.12,0.22
13:32:21.536,-0.105,0.245
13:32:21.540,-0.105,0.225
13:32:21.544,-0.075,0.225
13:32:21.548,-0.075,0.27
13:32:21.552,-0.07,0.22
13:32:21.556,-0.055,0.235
13:32:21.560,-0.05,0.215
13:32:21.564,-0.05,0.22
13:32:21.568,-0.03,0.22
13:32:21.572,-0.02,0.24
13:32:21.576,0.0,0.215
13:32:21.580,0.01,0.22
13:32:21.584,0.035,0.2
13:32:21.588,0.03,0.215
13:32:21.592,0.035,0.195
13:32:21.596,0.055,0.215
13:32:21.600,0.07,0.2
13:32:21.604,0.08,0.2
13:32:21.608,0.055,0.185
13:32:21.612,0.085,0.19
13:32:21.616,0.08,0.2
13:32:21.620,0.085,0.215
13:32:21.624,0.08,0.19
13:32:21.628,0.07,0.185
13:32:21.632,0.065,0.18
13:32:21.636,0.03,0.175
13:32:21.640,0.02,0.195
13:32:21.644,0.0,0.19
13:32:21.648,-0.035,0.175
13:32:21.652,-0.05,0.165
13:32:21.656,-0.1,0.17
13:32:21.660,-0.11,0.18
13:32:21.664,-0.135,0.19
13:32:21.668,-0.16,0.195
13:32:21.672,-0.195,0.2
13:32:21.676,-0.215,0.2
13:32:21.680,-0.24,0.2
13:32:21.684,-0.255,0.2
13:32:21.688,-0.255,0.225
13:32:21.692,-0.315,0.21
13:32:21.696,-0.325,0.2
13:32:21.700,-0.315,0.205
13:32:21.704,-0.345,0.19
13:32:21.708,-0.325,0.22
13:32:21.712,-0.315,0.225
13:32:21.716,-0.31,0.215
13:32:21.720,-0.27,0.225
13:32:21.724,-0.285,0.255
13:32:21.728,-0.26,0.305
13:32:21.732,-0.21,0.285
13:32:21.736,-0.16,0.305
13:32:21.740,-0.12,0.305
13:32:21.744,-0.12,0.275
13:32:21.748,-0.13,0.265
13:32:21.752,-0.13,0.215
13:32:21.756,-0.115,0.24
13:32:21.760,-0.125,0.215
13:32:21.764,-0.105,0.21
13:32:21.768,-0.12,0.22
13:32:21.772,-0.105,0.225
13:32:21.776,-0.1,0.21
13:32:21.780,-0.085,0.24
13:32:21.784,-0.1,0.22
13:32:21.788,-0.1,0.195
13:32:21.792,-0.1,0.21
13:32:21.796,-0.095,0.225
13:32:21.800,-0.075,0.21
13:32:21.804,-0.085,0.26
13:32:21.808,-0.09,0.205
13:32:21.812,-0.125,0.205
13:32:21.816,-0.17,0.185
13:32:21.820,-0.28,0.18
13:32:21.824,-0.32,0.17
13:32:21.828,-0.345,0.15
13:32:21.832,-0.345,0.115
13:32:21.836,-0.195,0.07
13:32:21.840,0.14,0.01
13:32:21.844,0.555,-0.08
13:32:21.848,0.965,-0.15
13:32:21.852,1.2,-0.07
13:32:21.856,1.08,0.21
13:32:21.860,0.5,0.64
13:32:21.864,-0.18,0.94
13:32:21.868,-0.795,1.025
13:32:21.872,-0.98,0.725
13:32:21.876,-0.865,0.29
13:32:21.880,-0.635,0.07
13:32:21.884,-0.465,0.025
13:32:21.888,-0.345,0.015
13:32:21.892,-0.31,0.05
13:32:21.896,-0.275,0.16
13:32:21.900,-0.285,0.205
13:32:21.904,-0.305,0.23
13:32:21.908,-0.3,0.23
13:32:21.912,-0.305,0.23
13:32:21.916,-0.315,0.22
13:32:21.920,-0.315,0.25
13:32:21.924,-0.315,0.22
13:32:21.928,-0.305,0.225
13:32:21.932,-0.325,0.26
13:32:21.936,-0.32,0.265
13:32:21.940,-0.335,0.265
13:32:21.944,-0.355,0.26
13:32:21.948,-0.34,0.265
13:32:21.952,-0.32,0.26
13:32:21.956,-0.3,0.285
13:32:21.960,-0.275,0.275
13:32:21.964,-0.19,0.335
13:32:21.968,-0.16,0.355
13:32:21.972,-0.12,0.365
13:32:21.976,-0.11,0.305
13:32:21.980,-0.09,0.28
13:32:21.984,-0.085,0.28
13:32:21.988,-0.085,0.295
13:32:21.992,-0.07,0.255
13:32:21.996,-0.06,0.25
13:32:22.000,-0.06,0.225
13:32:22.004,-0.05,0.235
13:32:22.008,-0.045,0.27
13:32:22.012,-0.05,0.255
13:32:22.016,-0.02,0.215
13:32:22.020,0.0,0.255
13:32:22.024,0.01,0.235
13:32:22.028,0.02,0.23
13:32:22.032,0.035,0.23
13:32:22.036,0.055,0.235
13:32:22.040,0.065,0.22
13:32:22.044,0.08,0.2
13:32:22.048,0.075,0.2
13:32:22.052,0.1,0.195
13:32:22.056,0.08,0.22
13:32:22.060,0.095,0.22
13:32:22.064,0.11,0.18
13:32:22.068,0.075,0.18
13:32:22.072,0.085,0.195
13:32:22.076,0.065,0.175
13:32:22.080,0.075,0.185
13:32:22.084,0.08,0.17
13:32:22.088,0.085,0.215
13:32:22.092,0.08,0.205
13:32:22.096,0.07,0.195
13:32:22.100,0.035,0.22
13:32:22.104,0.01,0.185
13:32:22.108,-0.01,0.205
13:32:22.112,-0.04,0.205
13:32:22.116,-0.08,0.195
13:32:22.120,-0.11,0.165
13:32:22.124,-0.135,0.2
13:32:22.128,-0.145,0.19
13:32:22.132,-0.19,0.215
13:32:22.136,-0.205,0.195
13:32:22.140,-0.225,0.205
13:32:22.144,-0.265,0.195
13:32:22.148,-0.265,0.2
13:32:22.152,-0.25,0.205
13:32:22.156,-0.275,0.195
13:32:22.160,-0.275,0.215
13:32:22.164,-0.26,0.205
13:32:22.168,-0.3,0.22
13:32:22.172,-0.305,0.21
13:32:22.176,-0.27,0.21
13:32:22.180,-0.255,0.205
13:32:22.184,-0.22,0.205
13:32:22.188,-0.23,0.23
13:32:22.192,-0.215,0.245
13:32:22.196,-0.19,0.25
13:32:22.200,-0.135,0.29
13:32:22.204,-0.1,0.3
13:32:22.208,-0.07,0.3
13:32:22.212,-0.06,0.265
13:32:22.216,-0.06,0.26
13:32:22.220,-0.05,0.24
13:32:22.224,-0.06,0.225
13:32:22.228,-0.06,0.2
13:32:22.232,-0.065,0.205
13:32:22.236,-0.065,0.21
13:32:22.240,-0.045,0.205
13:32:22.244,-0.05,0.185
13:32:22.248,-0.075,0.195
13:32:22.252,-0.055,0.185
13:32:22.256,-0.06,0.2
13:32:22.260,-0.075,0.2
13:32:22.264,-0.09,0.17
13:32:22.268,-0.16,0.17
13:32:22.272,-0.255,0.135
13:32:22.276,-0.31,0.145
13:32:22.280,-0.35,0.14
13:32:22.284,-0.315,0.075
13:32:22.288,-0.125,0.015
13:32:22.292,0.23,-0.04
13:32:22.296,0.705,-0.185
13:32:22.300,1.085,-0.205
13:32:22.304,1.18,0.035
13:32:22.308,0.845,0.415
13:32:22.312,0.185,0.8
13:32:22.316,-0.5,0.98
13:32:22.320,-0.915,0.865
13:32:22.324,-0.9,0.435
13:32:22.328,-0.705,0.12
13:32:22.332,-0.475,0.0
13:32:22.336,-0.34,0.005
13:32:22.340,-0.265,0.03
13:32:22.344,-0.25,0.075
13:32:22.348,-0.24,0.16
13:32:22.352,-0.28,0.17
13:32:22.356,-0.275,0.17
13:32:22.360,-0.28,0.15
13:32:22.364,-0.285,0.15
13:32:22.368,-0.305,0.19
13:32:22.372,-0.305,0.21
13:32:22.376,-0.3,0.16
13:32:22.380,-0.32,0.155
13:32:22.384,-0.325,0.175
13:32:22.388,-0.33,0.17
13:32:22.392,-0.33,0.185
13:32:22.396,-0.34,0.185
13:32:22.400,-0.34,0.185
13:32:22.404,-0.355,0.195
13:32:22.408,-0.33,0.215
13:32:22.412,-0.325,0.185
13:32:22.416,-0.3,0.22
13:32:22.420,-0.26,0.195
13:32:22.424,-0.195,0.225
13:32:22.428,-0.13,0.245
13:32:22.432,-0.095,0.275
13:32:22.436,-0.07,0.27
13:32:22.440,-0.08,0.225
13:32:22.444,-0.06,0.19
13:32:22.448,-0.045,0.195
13:32:22.452,-0.05,0.18
13:32:22.456,-0.03,0.19
13:32:22.460,-0.015,0.195
13:32:22.464,0.0,0.2
13:32:22.468,0.01,0.185
13:32:22.472,0.025,0.165
13:32:22.476,0.04,0.175
13:32:22.480,0.04,0.165
13:32:22.484,0.055,0.18
13:32:22.488,0.085,0.165
13:32:22.492,0.09,0.17
13:32:22.496,0.12,0.155
13:32:22.500,0.12,0.115
13:32:22.504,0.13,0.13
13:32:22.508,0.1,0.14
13:32:22.512,0.105,0.12
13:32:22.516,0.125,0.145
13:32:22.520,0.115,0.135
13:32:22.524,0.105,0.14
13:32:22.528,0.115,0.125
13:32:22.532,0.095,0.125
13:32:22.536,0.075,0.14
13:32:22.540,0.07,0.155
13:32:22.544,0.075,0.155
13:32:22.548,0.04,0.145
13:32:22.552,0.025,0.15
13:32:22.556,-0.01,0.145
13:32:22.560,-0.04,0.155
13:32:22.564,-0.07,0.14
13:32:22.568,-0.09,0.14
13:32:22.572,-0.1,0.15
13:32:22.576,-0.145,0.16
13:32:22.580,-0.18,0.135
13:32:22.584,-0.19,0.135
13:32:22.588,-0.2,0.145
13:32:22.592,-0.245,0.14
13:32:22.596,-0.255,0.16
13:32:22.600,-0.27,0.125
13:32:22.604,-0.3,0.14
13:32:22.608,-0.31,0.14
13:32:22.612,-0.29,0.13
13:32:22.616,-0.29,0.145
13:32:22.620,-0.295,0.155
13:32:22.624,-0.315,0.15
13:32:22.628,-0.31,0.16
13:32:22.632,-0.32,0.17
13:32:22.636,-0.29,0.16
13:32:22.640,-0.285,0.185
13:32:22.644,-0.26,0.18
13:32:22.648,-0.25,0.2
13:32:22.652,-0.23,0.225
13:32:22.656,-0.185,0.245
13:32:22.660,-0.125,0.245
13:32:22.664,-0.09,0.27
13:32:22.668,-0.09,0.24
13:32:22.672,-0.08,0.235
13:32:22.676,-0.085,0.195
13:32:22.680,-0.075,0.19
13:32:22.684,-0.075,0.145
13:32:22.688,-0.065,0.155
13:32:22.692,-0.08,0.16
13:32:22.696,-0.08,0.155
13:32:22.700,-0.085,0.165
13:32:22.704,-0.095,0.14
13:32:22.708,-0.08,0.155
13:32:22.712,-0.08,0.15
13:32:22.716,-0.08,0.155
13:32:22.720,-0.075,0.145
13:32:22.724,-0.095,0.145
13:32:22.728,-0.1,0.13
13:32:22.732,-0.09,0.155
13:32:22.736,-0.1,0.16
13:32:22.740,-0.135,0.175
13:32:22.744,-0.235,0.115
13:32:22.748,-0.29,0.095
13:32:22.752,-0.34,0.095
13:32:22.756,-0.33,0.105
13:32:22.760,-0.28,0.045
13:32:22.764,-0.045,-0.06
13:32:22.768,0.3,-0.15
13:32:22.772,0.705,-0.235
13:32:22.776,1.045,-0.21
13:32:22.780,1.13,-0.025
13:32:22.784,0.79,0.425
13:32:22.788,0.115,0.79
13:32:22.792,-0.52,1.01
13:32:22.796,-0.905,0.875
13:32:22.800,-0.95,0.455
13:32:22.804,-0.84,0.06
13:32:22.808,-0.66,-0.05
13:32:22.812,-0.495,-0.07
13:32:22.816,-0.4,-0.04
13:32:22.820,-0.35,0.03
13:32:22.824,-0.33,0.105
13:32:22.828,-0.35,0.15
13:32:22.832,-0.375,0.165
13:32:22.836,-0.38,0.16
13:32:22.840,-0.34,0.165
13:32:22.844,-0.35,0.175
13:32:22.848,-0.35,0.16
13:32:22.852,-0.36,0.185
13:32:22.856,-0.37,0.19
13:32:22.860,-0.38,0.18
13:32:22.864,-0.38,0.18
13:32:22.868,-0.375,0.205
13:32:22.872,-0.355,0.185
13:32:22.876,-0.325,0.215
13:32:22.880,-0.275,0.225
13:32:22.884,-0.205,0.235
13:32:22.888,-0.155,0.28
13:32:22.892,-0.135,0.285
13:32:22.896,-0.13,0.25
13:32:22.900,-0.125,0.23
13:32:22.904,-0.105,0.205
13:32:22.908,-0.105,0.205
13:32:22.912,-0.085,0.195
13:32:22.916,-0.08,0.195
13:32:22.920,-0.095,0.17
13:32:22.924,-0.08,0.185
13:32:22.928,-0.06,0.185
13:32:22.932,-0.05,0.215
13:32:22.936,-0.045,0.165
13:32:22.940,-0.025,0.17
13:32:22.944,-0.02,0.19
13:32:22.948,0.0,0.175
13:32:22.952,0.015,0.165
13:32:22.956,0.02,0.175
13:32:22.960,0.005,0.145
13:32:22.964,0.015,0.15
13:32:22.968,0.015,0.125
13:32:22.972,0.04,0.145
13:32:22.976,0.035,0.15
13:32:22.980,0.045,0.155
13:32:22.984,0.05,0.13
13:32:22.988,0.05,0.15
13:32:22.992,0.055,0.13
13:32:22.996,0.05,0.14
13:32:23.000,0.06,0.17
13:32:23.004,0.04,0.145
13:32:23.008,0.045,0.125
13:32:23.012,0.035,0.135
13:32:23.016,0.03,0.14
13:32:23.020,-0.005,0.115
13:32:23.024,-0.01,0.165
13:32:23.028,-0.035,0.145
13:32:23.032,-0.065,0.145
13:32:23.036,-0.105,0.12
13:32:23.040,-0.115,0.145
13:32:23.044,-0.15,0.15
13:32:23.048,-0.18,0.16
13:32:23.052,-0.2,0.145
13:32:23.056,-0.22,0.13
13:32:23.060,-0.25,0.165
13:32:23.064,-0.25,0.155
13:32:23.068,-0.265,0.14
13:32:23.072,-0.285,0.145
13:32:23.076,-0.29,0.13
13:32:23.080,-0.305,0.155
13:32:23.084,-0.32,0.155
13:32:23.088,-0.33,0.165
13:32:23.092,-0.345,0.195
13:32:23.096,-0.325,0.155
13:32:23.100,-0.325,0.14
13:32:23.104,-0.305,0.16
13:32:23.108,-0.285,0.2
13:32:23.112,-0.27,0.22
13:32:23.116,-0.22,0.27
13:32:23.120,-0.19,0.25
13:32:23.124,-0.145,0.26
13:32:23.128,-0.135,0.25
13:32:23.132,-0.105,0.24
13:32:23.136,-0.125,0.22
13:32:23.140,-0.125,0.235
13:32:23.144,-0.12,0.21
13:32:23.148,-0.115,0.195
13:32:23.152,-0.11,0.145
13:32:23.156,-0.1,0.16
13:32:23.160,-0.11,0.165
13:32:23.164,-0.095,0.16
13:32:23.168,-0.095,0.185
13:32:23.172,-0.1,0.155
13:32:23.176,-0.09,0.175
13:32:23.180,-0.095,0.165
13:32:23.184,-0.095,0.175
13:32:23.188,-0.095,0.155
13:32:23.192,-0.095,0.165
13:32:23.196,-0.115,0.165
13:32:23.200,-0.13,0.175
13:32:23.204,-0.15,0.165
13:32:23.208,-0.21,0.18
13:32:23.212,-0.275,0.105
13:32:23.216,-0.315,0.105
13:32:23.220,-0.325,0.105
13:32:23.224,-0.27,0.04
13:32:23.228,-0.11,-0.005
13:32:23.232,0.15,-0.05
13:32:23.236,0.525,-0.17
13:32:23.240,0.905,-0.2
13:32:23.244,1.11,-0.105
13:32:23.248,1.03,0.2
13:32:23.252,0.535,0.635
13:32:23.256,-0.12,0.875
13:32:23.260,-0.685,1.0
13:32:23.264,-0.935,0.8
13:32:23.268,-0.915,0.355
13:32:23.272,-0.78,0.04
13:32:23.276,-0.59,-0.075
13:32:23.280,-0.45,-0.07
13:32:23.284,-0.38,-0.055
13:32:23.288,-0.335,0.01
13:32:23.292,-0.325,0.115
13:32:23.296,-0.36,0.135
13:32:23.300,-0.36,0.185
13:32:23.304,-0.345,0.14
13:32:23.308,-0.37,0.145
13:32:23.312,-0.35,0.175
13:32:23.316,-0.35,0.145
13:32:23.320,-0.36,0.17
13:32:23.324,-0.355,0.2
13:32:23.328,-0.385,0.17
13:32:23.332,-0.38,0.17
13:32:23.336,-0.39,0.165
13:32:23.340,-0.365,0.16
13:32:23.344,-0.34,0.18
13:32:23.348,-0.3,0.175
13:32:23.352,-0.255,0.195
13:32:23.356,-0.215,0.235
13:32:23.360,-0.165,0.26
13:32:23.364,-0.16,0.255
13:32:23.368,-0.155,0.24
13:32:23.372,-0.16,0.205
13:32:23.376,-0.125,0.19
13:32:23.380,-0.135,0.175
13:32:23.384,-0.13,0.165
13:32:23.388,-0.115,0.14
13:32:23.392,-0.105,0.135
13:32:23.396,-0.12,0.12
13:32:23.400,-0.09,0.125
13:32:23.404,-0.08,0.12
13:32:23.408,-0.07,0.13
13:32:23.412,-0.055,0.125
13:32:23.416,-0.04,0.115
13:32:23.420,-0.03,0.1
13:32:23.424,-0.015,0.125
13:32:23.428,0.005,0.14
13:32:23.432,0.005,0.1
13:32:23.436,0.015,0.095
13:32:23.440,0.02,0.11
13:32:23.444,0.02,0.07
13:32:23.448,0.025,0.075
13:32:23.452,0.025,0.075
13:32:23.456,0.02,0.085
13:32:23.460,0.015,0.085
13:32:23.464,0.02,0.075
13:32:23.468,0.025,0.08
13:32:23.472,0.02,0.075
13:32:23.476,0.025,0.085
13:32:23.480,0.015,0.075
13:32:23.484,0.0,0.08
13:32:23.488,-0.02,0.1
13:32:23.492,-0.055,0.095
13:32:23.496,-0.04,0.085
13:32:23.500,-0.065,0.09
13:32:23.504,-0.1,0.07
13:32:23.508,-0.13,0.095
13:32:23.512,-0.17,0.09
13:32:23.516,-0.19,0.08
13:32:23.520,-0.215,0.095
13:32:23.524,-0.24,0.105
13:32:23.528,-0.26,0.105
13:32:23.532,-0.275,0.135
13:32:23.536,-0.285,0.12
13:32:23.540,-0.315,0.125
13:32:23.544,-0.34,0.115
13:32:23.548,-0.345,0.115
13:32:23.552,-0.35,0.15
13:32:23.556,-0.345,0.14
13:32:23.560,-0.37,0.14
13:32:23.564,-0.36,0.135
13:32:23.568,-0.375,0.135
13:32:23.572,-0.365,0.13
13:32:23.576,-0.375,0.125
13:32:23.580,-0.345,0.13
13:32:23.584,-0.325,0.125
13:32:23.588,-0.31,0.145
13:32:23.592,-0.29,0.155
13:32:23.596,-0.275,0.21
13:32:23.600,-0.235,0.215
13:32:23.604,-0.19,0.215
13:32:23.608,-0.175,0.19
13:32:23.612,-0.165,0.21
13:32:23.616,-0.155,0.185
13:32:23.620,-0.145,0.16
13:32:23.624,-0.15,0.16
13:32:23.628,-0.14,0.15
13:32:23.632,-0.135,0.105
13:32:23.636,-0.14,0.095
13:32:23.640,-0.15,0.095
13:32:23.644,-0.145,0.115
13:32:23.648,-0.135,0.1
13:32:23.652,-0.145,0.11
13:32:23.656,-0.13,0.105
13:32:23.660,-0.135,0.115
13:32:23.664,-0.14,0.105
13:32:23.668,-0.215,0.105
13:32:23.672,-0.295,0.09
13:32:23.676,-0.37,0.05
13:32:23.680,-0.405,0.065
13:32:23.684,-0.385,0.025
13:32:23.688,-0.255,-0.01
13:32:23.692,0.03,-0.085
13:32:23.696,0.415,-0.155
13:32:23.700,0.835,-0.23
13:32:23.704,1.115,-0.195
13:32:23.708,1.1,0.05
13:32:23.712,0.66,0.415
13:32:23.716,0.05,0.71
13:32:23.720,-0.56,0.92
13:32:23.724,-0.935,0.82
13:32:23.728,-0.945,0.44
13:32:23.732,-0.815,0.055
13:32:23.736,-0.62,-0.085
13:32:23.740,-0.48,-0.1
13:32:23.744,-0.395,-0.105
13:32:23.748,-0.36,-0.06
13:32:23.752,-0.375,0.025
13:32:23.756,-0.37,0.095
13:32:23.760,-0.355,0.115
13:32:23.764,-0.38,0.105
13:32:23.768,-0.38,0.105
13:32:23.772,-0.375,0.11
13:32:23.776,-0.37,0.105
13:32:23.780,-0.38,0.11
13:32:23.784,-0.4,0.09
13:32:23.788,-0.4,0.12
13:32:23.792,-0.395,0.11
13:32:23.796,-0.4,0.1
13:32:23.800,-0.395,0.115
13:32:23.804,-0.4,0.135
13:32:23.808,-0.4,0.12
13:32:23.812,-0.415,0.135
13:32:23.816,-0.395,0.135
13:32:23.820,-0.395,0.14
13:32:23.824,-0.375,0.13
13:32:23.828,-0.34,0.14
13:32:23.832,-0.32,0.145
13:32:23.836,-0.3,0.175
13:32:23.840,-0.23,0.18
13:32:23.844,-0.195,0.22
13:32:23.848,-0.15,0.215
13:32:23.852,-0.145,0.195
13:32:23.856,-0.135,0.15
13:32:23.860,-0.105,0.155
13:32:23.864,-0.095,0.145
13:32:23.868,-0.095,0.115
13:32:23.872,-0.085,0.11
13:32:23.876,-0.065,0.095
13:32:23.880,-0.04,0.095
13:32:23.884,-0.025,0.12
13:32:23.888,-0.01,0.115
13:32:23.892,0.0,0.09
13:32:23.896,0.025,0.095
13:32:23.900,0.02,0.08
13:32:23.904,0.04,0.095
13:32:23.908,0.045,0.085
13:32:23.912,0.04,0.07
13:32:23.916,0.055,0.08
13:32:23.920,0.05,0.07
13:32:23.924,0.035,0.065
13:32:23.928,0.04,0.055
13:32:23.932,0.04,0.07
13:32:23.936,0.025,0.065
13:32:23.940,0.015,0.075
13:32:23.944,0.0,0.075
13:32:23.948,0.005,0.07
13:32:23.952,-0.005,0.095
13:32:23.956,-0.015,0.115
13:32:23.960,-0.03,0.105
13:32:23.964,-0.05,0.1
13:32:23.968,-0.075,0.105
13:32:23.972,-0.07,0.12
13:32:23.976,-0.1,0.135
13:32:23.980,-0.14,0.135
13:32:23.984,-0.155,0.09
13:32:23.988,-0.18,0.115
13:32:23.992,-0.18,0.115
13:32:23.996,-0.225,0.115
13:32:24.000,-0.24,0.11
13:32:24.004,-0.27,0.125
13:32:24.008,-0.275,0.105
13:32:24.012,-0.295,0.115
13:32:24.016,-0.315,0.1
13:32:24.020,-0.325,0.11
13:32:24.024,-0.32,0.11
13:32:24.028,-0.36,0.135
13:32:24.032,-0.365,0.115
13:32:24.036,-0.355,0.085
13:32:24.040,-0.355,0.095
13:32:24.044,-0.35,0.1
13:32:24.048,-0.365,0.125
13:32:24.052,-0.36,0.125
13:32:24.056,-0.345,0.1
13:32:24.060,-0.335,0.125
13:32:24.064,-0.33,0.095
13:32:24.068,-0.3,0.115
13:32:24.072,-0.29,0.145
13:32:24.076,-0.295,0.16
13:32:24.080,-0.26,0.16
13:32:24.084,-0.24,0.18
13:32:24.088,-0.205,0.195
13:32:24.092,-0.175,0.19
13:32:24.096,-0.145,0.19
13:32:24.100,-0.13,0.2
13:32:24.104,-0.12,0.155
13:32:24.108,-0.125,0.15
13:32:24.112,-0.12,0.135
13:32:24.116,-0.1,0.13
13:32:24.120,-0.1,0.135
13:32:24.124,-0.125,0.1
13:32:24.128,-0.11,0.085
13:32:24.132,-0.075,0.105
13:32:24.136,-0.12,0.11
13:32:24.140,-0.135,0.115
13:32:24.144,-0.115,0.14
13:32:24.148,-0.12,0.11
13:32:24.152,-0.12,0.105
13:32:24.156,-0.135,0.105
13:32:24.160,-0.115,0.115
13:32:24.164,-0.115,0.095
13:32:24.168,-0.12,0.115
13:32:24.172,-0.14,0.105
13:32:24.176,-0.215,0.085
13:32:24.180,-0.28,0.07
13:32:24.184,-0.32,0.075
13:32:24.188,-0.345,0.065
13:32:24.192,-0.325,0.03
13:32:24.196,-0.175,0.0
13:32:24.200,0.055,-0.09
13:32:24.204,0.34,-0.2
13:32:24.208,0.64,-0.23
13:32:24.212,0.905,-0.175
13:32:24.216,1.005,0.035
13:32:24.220,0.735,0.375
13:32:24.224,0.23,0.685
13:32:24.228,-0.155,0.85
13:32:24.232,-0.425,0.84
13:32:24.236,-0.525,0.72
13:32:24.240,-0.59,0.635
13:32:24.244,-0.6,0.565
13:32:24.248,-0.635,0.59
13:32:24.252,-0.635,0.615
13:32:24.256,-0.67,0.67
13:32:24.260,-0.7,0.69
13:32:24.264,-0.72,0.8
13:32:24.268,-0.74,0.855
13:32:24.272,-0.76,0.95
13:32:24.276,-0.75,1.005
13:32:24.280,-0.745,0.955
13:32:24.284,-0.725,0.945
13:32:24.288,-0.715,0.925
13:32:24.292,-0.625,0.81
13:32:24.296,-0.525,0.625
13:32:24.300,-0.485,0.455
13:32:24.304,-0.45,0.34
13:32:24.308,-0.425,0.235
13:32:24.312,-0.385,0.16
13:32:24.316,-0.37,0.09
13:32:24.320,-0.32,0.095
13:32:24.324,-0.275,0.095
13:32:24.328,-0.2,0.105
13:32:24.332,-0.155,0.14
13:32:24.336,-0.13,0.14
13:32:24.340,-0.145,0.085
13:32:24.344,-0.115,0.06
13:32:24.348,-0.12,0.055
13:32:24.352,-0.135,0.015
13:32:24.356,-0.11,0.05
13:32:24.360,-0.105,0.0
13:32:24.364,-0.115,-0.005
13:32:24.368,-0.09,-0.02
13:32:24.372,-0.105,-0.005
13:32:24.376,-0.11,-0.05
13:32:24.380,-0.085,-0.065
13:32:24.384,-0.09,-0.055
13:32:24.388,-0.085,-0.075
13:32:24.392,-0.065,-0.085
13:32:24.396,-0.06,-0.085
13:32:24.400,-0.05,-0.12
13:32:24.404,-0.03,-0.135
13:32:24.408,-0.03,-0.15
13:32:24.412,-0.02,-0.175
13:32:24.416,0.005,-0.205
13:32:24.420,0.01,-0.23
13:32:24.424,0.015,-0.205
13:32:24.428,0.02,-0.2
13:32:24.432,0.015,-0.21
13:32:24.436,0.055,-0.25
13:32:24.440,0.035,-0.24
13:32:24.444,0.05,-0.26
13:32:24.448,0.035,-0.275
13:32:24.452,0.04,-0.27
13:32:24.456,0.035,-0.3
13:32:24.460,0.04,-0.285
13:32:24.464,0.04,-0.28
13:32:24.468,0.02,-0.295
13:32:24.472,0.0,-0.29
13:32:24.476,-0.015,-0.28
13:32:24.480,-0.02,-0.295
13:32:24.484,-0.05,-0.26
13:32:24.488,-0.1,-0.245
13:32:24.492,-0.105,-0.235
13:32:24.496,-0.155,-0.22
13:32:24.500,-0.15,-0.21
13:32:24.504,-0.175,-0.2
13:32:24.508,-0.205,-0.17
13:32:24.512,-0.215,-0.155
13:32:24.516,-0.22,-0.115
13:32:24.520,-0.255,-0.105
13:32:24.524,-0.255,-0.055
13:32:24.528,-0.275,-0.07
13:32:24.532,-0.28,-0.055
13:32:24.536,-0.295,-0.025
13:32:24.540,-0.295,-0.01
13:32:24.544,-0.32,0.025
13:32:24.548,-0.32,0.03
13:32:24.552,-0.315,0.05
13:32:24.556,-0.3,0.06
13:32:24.560,-0.27,0.095
13:32:24.564,-0.23,0.1
13:32:24.568,-0.165,0.145
13:32:24.572,-0.14,0.165
13:32:24.576,-0.14,0.2
13:32:24.580,-0.12,0.16
13:32:24.584,-0.125,0.145
13:32:24.588,-0.125,0.13
13:32:24.592,-0.13,0.125
13:32:24.596,-0.13,0.1
13:32:24.600,-0.12,0.08
13:32:24.604,-0.15,0.1
13:32:24.608,-0.14,0.08
13:32:24.612,-0.145,0.075
13:32:24.616,-0.13,0.09
13:32:24.620,-0.13,0.095
13:32:24.624,-0.115,0.095
13:32:24.628,-0.105,0.075
13:32:24.632,-0.095,0.07
13:32:24.636,-0.09,0.065
13:32:24.640,-0.105,0.065
13:32:24.644,-0.105,0.04
13:32:24.648,-0.115,0.08
13:32:24.652,-0.14,0.075
13:32:24.656,-0.215,0.055
13:32:24.660,-0.275,0.015
13:32:24.664,-0.33,0.025
13:32:24.668,-0.32,0.0
13:32:24.672,-0.245,-0.03
13:32:24.676,-0.07,-0.11
13:32:24.680,0.235,-0.175
13:32:24.684,0.615,-0.28
13:32:24.688,0.975,-0.275
13:32:24.692,1.135,-0.205
13:32:24.696,0.96,0.125
13:32:24.700,0.455,0.545
13:32:24.704,-0.155,0.815
13:32:24.708,-0.71,0.925
13:32:24.712,-0.98,0.74
13:32:24.716,-0.945,0.34
13:32:24.720,-0.74,0.03
13:32:24.724,-0.545,-0.07
13:32:24.728,-0.4,-0.06
13:32:24.732,-0.36,-0.055
13:32:24.736,-0.33,0.035
13:32:24.740,-0.315,0.075
13:32:24.744,-0.34,0.13
13:32:24.748,-0.325,0.135
13:32:24.752,-0.345,0.11
13:32:24.756,-0.355,0.135
13:32:24.760,-0.35,0.125
13:32:24.764,-0.355,0.135
13:32:24.768,-0.34,0.135
13:32:24.772,-0.365,0.12
13:32:24.776,-0.385,0.14
13:32:24.780,-0.385,0.155
13:32:24.784,-0.39,0.145
13:32:24.788,-0.36,0.145
13:32:24.792,-0.36,0.14
13:32:24.796,-0.355,0.155
13:32:24.800,-0.325,0.175
13:32:24.804,-0.27,0.205
13:32:24.808,-0.22,0.2
13:32:24.812,-0.17,0.22
13:32:24.816,-0.14,0.25
13:32:24.820,-0.13,0.22
13:32:24.824,-0.12,0.185
13:32:24.828,-0.1,0.19
13:32:24.832,-0.11,0.175
13:32:24.836,-0.1,0.16
13:32:24.840,-0.09,0.135
13:32:24.844,-0.065,0.135
13:32:24.848,-0.065,0.14
13:32:24.852,-0.07,0.16
13:32:24.856,-0.05,0.14
13:32:24.860,-0.045,0.155
13:32:24.864,-0.025,0.145
13:32:24.868,-0.005,0.135
13:32:24.872,0.015,0.145
13:32:24.876,0.025,0.15
13:32:24.880,0.03,0.13
13:32:24.884,0.045,0.13
13:32:24.888,0.06,0.155
13:32:24.892,0.05,0.115
13:32:24.896,0.065,0.14
13:32:24.900,0.065,0.125
13:32:24.904,0.06,0.12
13:32:24.908,0.07,0.145
13:32:24.912,0.07,0.125
13:32:24.916,0.075,0.105
13:32:24.920,0.05,0.14
13:32:24.924,0.06,0.13
13:32:24.928,0.05,0.13
13:32:24.932,0.05,0.1
13:32:24.936,0.03,0.135
13:32:24.940,0.015,0.13
13:32:24.944,0.0,0.145
13:32:24.948,-0.035,0.135
13:32:24.952,-0.035,0.13
13:32:24.956,-0.065,0.135
13:32:24.960,-0.095,0.12
13:32:24.964,-0.135,0.14
13:32:24.968,-0.15,0.14
13:32:24.972,-0.18,0.125
13:32:24.976,-0.205,0.125
13:32:24.980,-0.22,0.12
13:32:24.984,-0.255,0.135
13:32:24.988,-0.24,0.15
13:32:24.992,-0.265,0.175
13:32:24.996,-0.29,0.165
13:32:25.000,-0.265,0.15
13:32:25.004,-0.29,0.145
13:32:25.008,-0.29,0.14
13:32:25.012,-0.3,0.145
13:32:25.016,-0.32,0.155
13:32:25.020,-0.32,0.175
13:32:25.024,-0.31,0.155
13:32:25.028,-0.285,0.155
13:32:25.032,-0.275,0.145
13:32:25.036,-0.245,0.19
13:32:25.040,-0.215,0.205
13:32:25.044,-0.17,0.23
13:32:25.048,-0.11,0.255
13:32:25.052,-0.1,0.24
13:32:25.056,-0.1,0.23
13:32:25.060,-0.095,0.215
13:32:25.064,-0.1,0.18
13:32:25.068,-0.08,0.145
13:32:25.072,-0.085,0.15
13:32:25.076,-0.09,0.145
13:32:25.080,-0.09,0.13
13:32:25.084,-0.085,0.15
13:32:25.088,-0.08,0.125
13:32:25.092,-0.085,0.14
13:32:25.096,-0.09,0.15
13:32:25.100,-0.1,0.145
13:32:25.104,-0.07,0.135
13:32:25.108,-0.085,0.16
13:32:25.112,-0.07,0.14
13:32:25.116,-0.095,0.125
13:32:25.120,-0.13,0.135
13:32:25.124,-0.19,0.115
13:32:25.128,-0.265,0.095
13:32:25.132,-0.335,0.1
13:32:25.136,-0.355,0.055
13:32:25.140,-0.305,0.03
13:32:25.144,-0.115,-0.035
13:32:25.148,0.135,-0.13
13:32:25.152,0.46,-0.215
13:32:25.156,0.77,-0.17
13:32:25.160,0.915,-0.005
13:32:25.164,0.67,0.395
13:32:25.168,0.215,0.745
13:32:25.172,-0.11,0.905
13:32:25.176,-0.33,0.885
13:32:25.180,-0.43,0.77
13:32:25.184,-0.48,0.65
13:32:25.188,-0.485,0.6
13:32:25.192,-0.51,0.63
13:32:25.196,-0.53,0.66
13:32:25.200,-0.58,0.715
13:32:25.204,-0.61,0.745
13:32:25.208,-0.655,0.825
13:32:25.212,-0.715,0.935
13:32:25.216,-0.71,1.005
13:32:25.220,-0.7,1.04
13:32:25.224,-0.705,1.025
13:32:25.228,-0.705,1.015
13:32:25.232,-0.655,0.935
13:32:25.236,-0.55,0.73
13:32:25.240,-0.465,0.52
13:32:25.244,-0.405,0.375
13:32:25.248,-0.365,0.305
13:32:25.252,-0.37,0.19
13:32:25.256,-0.355,0.115
13:32:25.260,-0.34,0.07
13:32:25.264,-0.345,0.11
13:32:25.268,-0.325,0.085
13:32:25.272,-0.285,0.09
13:32:25.276,-0.215,0.105
13:32:25.280,-0.15,0.12
13:32:25.284,-0.125,0.115
13:32:25.288,-0.1,0.09
13:32:25.292,-0.09,0.065
13:32:25.296,-0.1,0.03
13:32:25.300,-0.105,0.01
13:32:25.304,-0.1,0.0
13:32:25.308,-0.08,-0.005
13:32:25.312,-0.06,-0.035
13:32:25.316,-0.08,0.0
13:32:25.320,-0.07,-0.03
13:32:25.324,-0.07,-0.045
13:32:25.328,-0.07,-0.075
13:32:25.332,-0.05,-0.08
13:32:25.336,-0.04,-0.085
13:32:25.340,-0.02,-0.09
13:32:25.344,-0.02,-0.115
13:32:25.348,0.005,-0.12
13:32:25.352,0.0,-0.16
13:32:25.356,0.005,-0.195
13:32:25.360,0.03,-0.2
13:32:25.364,0.04,-0.2
13:32:25.368,0.03,-0.22
13:32:25.372,0.035,-0.245
13:32:25.376,0.055,-0.255
13:32:25.380,0.05,-0.265
13:32:25.384,0.055,-0.26
13:32:25.388,0.06,-0.265
13:32:25.392,0.075,-0.265
13:32:25.396,0.06,-0.29
13:32:25.400,0.06,-0.3
13:32:25.404,0.055,-0.29
13:32:25.408,0.05,-0.285
13:32:25.412,0.03,-0.28
13:32:25.416,0.0,-0.285
13:32:25.420,-0.005,-0.265
13:32:25.424,-0.035,-0.245
13:32:25.428,-0.065,-0.21
13:32:25.432,-0.095,-0.19
13:32:25.436,-0.105,-0.2
13:32:25.440,-0.14,-0.17
13:32:25.444,-0.165,-0.17
13:32:25.448,-0.17,-0.16
13:32:25.452,-0.2,-0.145
13:32:25.456,-0.225,-0.1
13:32:25.460,-0.24,-0.08
13:32:25.464,-0.255,-0.065
13:32:25.468,-0.27,-0.08
13:32:25.472,-0.275,-0.02
13:32:25.476,-0.29,-0.015
13:32:25.480,-0.32,0.005
13:32:25.484,-0.31,0.01
13:32:25.488,-0.32,0.025
13:32:25.492,-0.31,0.045
13:32:25.496,-0.3,0.055
13:32:25.500,-0.265,0.105
13:32:25.504,-0.26,0.1
13:32:25.508,-0.245,0.115
13:32:25.512,-0.225,0.135
13:32:25.516,-0.14,0.155
13:32:25.520,-0.125,0.145
13:32:25.524,-0.095,0.19
13:32:25.528,-0.1,0.125
13:32:25.532,-0.105,0.1
13:32:25.536,-0.08,0.085
13:32:25.540,-0.095,0.08
13:32:25.544,-0.08,0.055
13:32:25.548,-0.09,0.085
13:32:25.552,-0.09,0.055
13:32:25.556,-0.08,0.07
13:32:25.560,-0.08,0.075
13:32:25.564,-0.075,0.05
13:32:25.568,-0.095,0.05
13:32:25.572,-0.085,0.07
13:32:25.576,-0.075,0.05
13:32:25.580,-0.085,0.045
13:32:25.584,-0.075,0.065
13:32:25.588,-0.09,0.07
13:32:25.592,-0.105,0.04
13:32:25.596,-0.11,0.06
13:32:25.600,-0.12,0.055
13:32:25.604,-0.14,0.04
13:32:25.608,-0.18,0.055
13:32:25.612,-0.265,0.005
13:32:25.616,-0.29,0.005
13:32:25.620,-0.32,-0.005
13:32:25.624,-0.335,-0.025
13:32:25.628,-0.2,-0.085
13:32:25.632,0.08,-0.15
13:32:25.636,0.47,-0.28
13:32:25.640,0.825,-0.335
13:32:25.644,1.06,-0.265
13:32:25.648,1.04,-0.02
13:32:25.652,0.535,0.45
13:32:25.656,-0.205,0.77
13:32:25.660,-0.82,0.79
13:32:25.664,-1.06,0.475
13:32:25.668,-0.945,0.13
13:32:25.672,-0.735,-0.08
13:32:25.676,-0.555,-0.145
13:32:25.680,-0.43,-0.13
13:32:25.684,-0.375,-0.07
13:32:25.688,-0.345,0.02
13:32:25.692,-0.36,0.085
13:32:25.696,-0.36,0.095
13:32:25.700,-0.375,0.085
13:32:25.704,-0.38,0.11
13:32:25.708,-0.36,0.125
13:32:25.712,-0.375,0.105
13:32:25.716,-0.37,0.12
13:32:25.720,-0.4,0.125
13:32:25.724,-0.415,0.13
13:32:25.728,-0.385,0.15
13:32:25.732,-0.37,0.13
13:32:25.736,-0.35,0.155
13:32:25.740,-0.3,0.18
13:32:25.744,-0.255,0.185
13:32:25.748,-0.185,0.2
13:32:25.752,-0.135,0.235
13:32:25.756,-0.13,0.225
13:32:25.760,-0.145,0.175
13:32:25.764,-0.125,0.155
13:32:25.768,-0.13,0.175
13:32:25.772,-0.125,0.14
13:32:25.776,-0.11,0.135
13:32:25.780,-0.115,0.135
13:32:25.784,-0.125,0.15
13:32:25.788,-0.09,0.14
13:32:25.792,-0.09,0.14
13:32:25.796,-0.085,0.14
13:32:25.800,-0.07,0.15
13:32:25.804,-0.065,0.125
13:32:25.808,-0.045,0.125
13:32:25.812,-0.045,0.13
13:32:25.816,-0.03,0.16
13:32:25.820,-0.005,0.135
13:32:25.824,-0.005,0.135
13:32:25.828,-0.01,0.12
13:32:25.832,0.0,0.13
13:32:25.836,0.005,0.115
13:32:25.840,0.02,0.135
13:32:25.844,0.015,0.16
13:32:25.848,0.01,0.135
13:32:25.852,0.04,0.145
13:32:25.856,0.0,0.145
13:32:25.860,0.015,0.135
13:32:25.864,0.03,0.13
13:32:25.868,0.005,0.135
13:32:25.872,0.005,0.11
13:32:25.876,-0.005,0.11
13:32:25.880,-0.01,0.125
13:32:25.884,-0.005,0.115
13:32:25.888,-0.025,0.15
13:32:25.892,-0.05,0.145
13:32:25.896,-0.095,0.11
13:32:25.900,-0.105,0.115
13:32:25.904,-0.125,0.115
13:32:25.908,-0.165,0.105
13:32:25.912,-0.185,0.11
13:32:25.916,-0.21,0.135
13:32:25.920,-0.23,0.105
13:32:25.924,-0.235,0.1
13:32:25.928,-0.265,0.115
13:32:25.932,-0.27,0.135
13:32:25.936,-0.285,0.135
13:32:25.940,-0.285,0.105
13:32:25.944,-0.3,0.105
13:32:25.948,-0.32,0.1
13:32:25.952,-0.325,0.125
13:32:25.956,-0.35,0.105
13:32:25.960,-0.305,0.14
13:32:25.964,-0.28,0.13
13:32:25.968,-0.28,0.155
13:32:25.972,-0.225,0.17
13:32:25.976,-0.225,0.195
13:32:25.980,-0.16,0.225
13:32:25.984,-0.13,0.195
13:32:25.988,-0.115,0.215
13:32:25.992,-0.115,0.2
13:32:25.996,-0.105,0.18
13:32:26.000,-0.1,0.165
13:32:26.004,-0.095,0.18
13:32:26.008,-0.1,0.145
13:32:26.012,-0.105,0.14
13:32:26.016,-0.095,0.115
13:32:26.020,-0.09,0.115
13:32:26.024,-0.09,0.15
13:32:26.028,-0.105,0.125
13:32:26.032,-0.11,0.115
13:32:26.036,-0.1,0.135
13:32:26.040,-0.085,0.14
13:32:26.044,-0.135,0.11
13:32:26.048,-0.12,0.115
13:32:26.052,-0.115,0.12
13:32:26.056,-0.11,0.085
13:32:26.060,-0.115,0.115
13:32:26.064,-0.125,0.105
13:32:26.068,-0.125,0.1
13:32:26.072,-0.145,0.125
13:32:26.076,-0.135,0.115
13:32:26.080,-0.135,0.075
13:32:26.084,-0.165,0.09
13:32:26.088,-0.175,0.085
13:32:26.092,-0.17,0.11
13:32:26.096,-0.17,0.125
13:32:26.100,-0.18,0.11
13:32:26.104,-0.175,0.1
13:32:26.108,-0.21,0.09
13:32:26.112,-0.215,0.095
13:32:26.116,-0.215,0.105
13:32:26.120,-0.22,0.105
13:32:26.124,-0.24,0.1
13:32:26.128,-0.27,0.11
13:32:26.132,-0.26,0.095
13:32:26.136,-0.29,0.09
13:32:26.140,-0.29,0.085
13:32:26.144,-0.285,0.085
13:32:26.148,-0.295,0.09
13:32:26.152,-0.275,0.095
13:32:26.156,-0.325,0.095
13:32:26.160,-0.32,0.12
13:32:26.164,-0.33,0.115
13:32:26.168,-0.325,0.095
13:32:26.172,-0.345,0.075
13:32:26.176,-0.32,0.125
13:32:26.180,-0.335,0.105
13:32:26.184,-0.34,0.135
13:32:26.188,-0.375,0.115
13:32:26.192,-0.35,0.125
13:32:26.196,-0.345,0.125
13:32:26.200,-0.325,0.125
13:32:26.204,-0.275,0.155
13:32:26.208,-0.235,0.19
13:32:26.212,-0.16,0.205
13:32:26.216,-0.15,0.2
13:32:26.220,-0.145,0.155
13:32:26.224,-0.13,0.15
13:32:26.228,-0.135,0.155
13:32:26.232,-0.125,0.14
13:32:26.236,-0.14,0.105
13:32:26.240,-0.16,0.095
13:32:26.244,-0.145,0.095
13:32:26.248,-0.16,0.095
13:32:26.252,-0.14,0.105
13:32:26.256,-0.175,0.1
13:32:26.260,-0.15,0.105
13:32:26.264,-0.155,0.115
13:32:26.268,-0.155,0.105
13:32:26.272,-0.145,0.09
13:32:26.276,-0.19,0.09
13:32:26.280,-0.25,0.075
13:32:26.284,-0.285,0.05
13:32:26.288,-0.33,0.035
13:32:26.292,-0.345,0.015
13:32:26.296,-0.285,-0.06
13:32:26.300,-0.085,-0.13
13:32:26.304,0.23,-0.275
13:32:26.308,0.635,-0.38
13:32:26.312,1.035,-0.36
13:32:26.316,1.175,-0.145
13:32:26.320,0.89,0.255
13:32:26.324,0.295,0.57
13:32:26.328,-0.38,0.78
13:32:26.332,-0.865,0.73
13:32:26.336,-0.935,0.405
13:32:26.340,-0.85,0.065
13:32:26.344,-0.645,-0.065
13:32:26.348,-0.495,-0.14
13:32:26.352,-0.385,-0.12
13:32:26.356,-0.32,-0.09
13:32:26.360,-0.31,0.0
13:32:26.364,-0.305,0.07
13:32:26.368,-0.32,0.09
13:32:26.372,-0.31,0.09
13:32:26.376,-0.33,0.085
13:32:26.380,-0.34,0.1
13:32:26.384,-0.34,0.085
13:32:26.388,-0.37,0.115
13:32:26.392,-0.365,0.095
13:32:26.396,-0.375,0.085
13:32:26.400,-0.365,0.13
13:32:26.404,-0.385,0.125
13:32:26.408,-0.385,0.13
13:32:26.412,-0.395,0.11
13:32:26.416,-0.36,0.115
13:32:26.420,-0.37,0.125
13:32:26.424,-0.345,0.11
13:32:26.428,-0.345,0.13
13:32:26.432,-0.315,0.145
13:32:26.436,-0.27,0.185
13:32:26.440,-0.215,0.18
13:32:26.444,-0.16,0.165
13:32:26.448,-0.145,0.175
13:32:26.452,-0.125,0.155
13:32:26.456,-0.14,0.15
13:32:26.460,-0.125,0.12
13:32:26.464,-0.11,0.115
13:32:26.468,-0.095,0.065
13:32:26.472,-0.09,0.055
13:32:26.476,-0.07,0.025
13:32:26.480,-0.06,0.04
13:32:26.484,-0.055,0.03
13:32:26.488,-0.06,0.03
13:32:26.492,-0.04,0.04
13:32:26.496,-0.04,0.04
13:32:26.500,-0.01,0.05
13:32:26.504,0.015,0.035
13:32:26.508,0.01,0.01
13:32:26.512,0.005,0.025
13:32:26.516,0.03,0.015
13:32:26.520,0.05,0.03
13:32:26.524,0.05,0.01
13:32:26.528,0.035,-0.01
13:32:26.532,0.045,-0.01
13:32:26.536,0.035,0.005
13:32:26.540,0.04,-0.015
13:32:26.544,0.01,0.01
13:32:26.548,0.035,0.03
13:32:26.552,0.01,0.025
13:32:26.556,0.015,0.03
13:32:26.560,0.015,0.0
13:32:26.564,-0.005,0.03
13:32:26.568,0.0,0.015
13:32:26.572,-0.02,0.035
13:32:26.576,-0.02,0.025
13:32:26.580,-0.06,0.025
13:32:26.584,-0.1,0.055
13:32:26.588,-0.115,0.05
13:32:26.592,-0.145,0.035
13:32:26.596,-0.17,0.03
13:32:26.600,-0.2,0.03
13:32:26.604,-0.22,0.035
13:32:26.608,-0.24,0.045
13:32:26.612,-0.27,0.04
13:32:26.616,-0.27,0.065
13:32:26.620,-0.305,0.04
13:32:26.624,-0.3,0.065
13:32:26.628,-0.315,0.065
13:32:26.632,-0.33,0.055
13:32:26.636,-0.335,0.07
13:32:26.640,-0.35,0.08
13:32:26.644,-0.365,0.075
13:32:26.648,-0.36,0.075
13:32:26.652,-0.37,0.075
13:32:26.656,-0.36,0.06
13:32:26.660,-0.33,0.095
13:32:26.664,-0.315,0.095
13:32:26.668,-0.3,0.105
13:32:26.672,-0.25,0.165
13:32:26.676,-0.215,0.165
13:32:26.680,-0.16,0.185
13:32:26.684,-0.155,0.185
13:32:26.688,-0.16,0.17
13:32:26.692,-0.17,0.125
13:32:26.696,-0.175,0.15
13:32:26.700,-0.165,0.11
13:32:26.704,-0.165,0.095
13:32:26.708,-0.15,0.095
13:32:26.712,-0.16,0.09
13:32:26.716,-0.175,0.105
13:32:26.720,-0.17,0.115
13:32:26.724,-0.175,0.11
13:32:26.728,-0.155,0.115
13:32:26.732,-0.165,0.105
13:32:26.736,-0.16,0.105
13:32:26.740,-0.17,0.09
13:32:26.744,-0.175,0.085
13:32:26.748,-0.165,0.1
13:32:26.752,-0.17,0.105
13:32:26.756,-0.175,0.09
13:32:26.760,-0.175,0.085
13:32:26.764,-0.18,0.08
13:32:26.768,-0.185,0.105
13:32:26.772,-0.185,0.085
13:32:26.776,-0.21,0.08
13:32:26.780,-0.205,0.085
13:32:26.784,-0.22,0.08
13:32:26.788,-0.22,0.075
13:32:26.792,-0.2,0.075
13:32:26.796,-0.215,0.095
13:32:26.800,-0.22,0.075
13:32:26.804,-0.22,0.065
13:32:26.808,-0.24,0.065
13:32:26.812,-0.265,0.055
13:32:26.816,-0.275,0.065
13:32:26.820,-0.29,0.065
13:32:26.824,-0.305,0.065
13:32:26.828,-0.315,0.05
13:32:26.832,-0.33,0.045
13:32:26.836,-0.32,0.06
13:32:26.840,-0.32,0.08
13:32:26.844,-0.32,0.065
13:32:26.848,-0.365,0.05
13:32:26.852,-0.35,0.06
13:32:26.856,-0.345,0.055
13:32:26.860,-0.355,0.04
13:32:26.864,-0.36,0.045
13:32:26.868,-0.4,0.035
13:32:26.872,-0.455,0.02
13:32:26.876,-0.445,0.015
13:32:26.880,-0.39,0.0
13:32:26.884,-0.28,0.0
13:32:26.888,-0.06,-0.06
13:32:26.892,0.275,-0.18
13:32:26.896,0.655,-0.24
13:32:26.900,1.025,-0.255
13:32:26.904,1.12,-0.16
13:32:26.908,0.855,0.085
13:32:26.912,0.25,0.425
13:32:26.916,-0.285,0.64
13:32:26.920,-0.725,0.75
13:32:26.924,-0.91,0.65
13:32:26.928,-0.9,0.285
13:32:26.932,-0.755,0.015
13:32:26.936,-0.54,-0.07
13:32:26.940,-0.34,-0.08
13:32:26.944,-0.235,-0.095
13:32:26.948,-0.195,-0.05
13:32:26.952,-0.18,0.03
13:32:26.956,-0.19,0.08
13:32:26.960,-0.205,0.06
13:32:26.964,-0.2,0.045
13:32:26.968,-0.185,0.055
13:32:26.972,-0.175,0.07
13:32:26.976,-0.19,0.07
13:32:26.980,-0.19,0.065
13:32:26.984,-0.185,0.075
13:32:26.988,-0.185,0.05
13:32:26.992,-0.195,0.075
13:32:26.996,-0.19,0.07
13:32:27.000,-0.195,0.065
13:32:27.004,-0.195,0.065
13:32:27.008,-0.195,0.07
13:32:27.012,-0.215,0.07
13:32:27.016,-0.19,0.065
13:32:27.020,-0.175,0.085
13:32:27.024,-0.18,0.055
13:32:27.028,-0.19,0.065
13:32:27.032,-0.175,0.08
13:32:27.036,-0.17,0.085
13:32:27.040,-0.17,0.07
13:32:27.044,-0.175,0.065
13:32:27.048,-0.2,0.025
13:32:27.052,-0.195,0.045
13:32:27.056,-0.21,0.04
13:32:27.060,-0.195,0.03
13:32:27.064,-0.175,0.045
13:32:27.068,-0.155,0.03
13:32:27.072,-0.14,0.02
13:32:27.076,-0.15,0.015
13:32:27.080,-0.12,0.01
13:32:27.084,-0.09,-0.01
13:32:27.088,-0.075,0.005
13:32:27.092,-0.08,-0.015
13:32:27.096,-0.035,-0.005
13:32:27.100,-0.045,0.0
13:32:27.104,-0.02,-0.02
13:32:27.108,-0.01,0.0
13:32:27.112,0.01,-0.02
13:32:27.116,0.04,-0.045
13:32:27.120,0.06,-0.03
13:32:27.124,0.07,0.005
13:32:27.128,0.105,0.015
13:32:27.132,0.155,0.035
13:32:27.136,0.185,0.07
13:32:27.140,0.19,0.09
13:32:27.144,0.185,0.07
13:32:27.148,0.185,0.03
13:32:27.152,0.17,0.04
13:32:27.156,0.155,0.04
13:32:27.160,0.11,0.025
13:32:27.164,0.085,0.005
13:32:27.168,0.07,0.0
13:32:27.172,0.045,0.02
13:32:27.176,0.025,0.055
13:32:27.180,-0.01,0.075
13:32:27.184,-0.01,0.04
13:32:27.188,-0.05,0.045
13:32:27.192,-0.055,0.05
13:32:27.196,-0.09,0.035
13:32:27.200,-0.09,0.075
13:32:27.204,-0.115,0.055
13:32:27.208,-0.13,0.055
13:32:27.212,-0.13,0.075
13:32:27.216,-0.155,0.05
13:32:27.220,-0.155,0.04
13:32:27.224,-0.185,0.055
13:32:27.228,-0.18,0.035
13:32:27.232,-0.17,0.045
13:32:27.236,-0.18,0.075
13:32:27.240,-0.165,0.065
13:32:27.244,-0.175,0.055
13:32:27.248,-0.195,0.075
13:32:27.252,-0.2,0.055
13:32:27.256,-0.195,0.045
13:32:27.260,-0.205,0.035
13:32:27.264,-0.205,0.02
13:32:27.268,-0.2,0.055
13:32:27.272,-0.22,0.035
13:32:27.276,-0.23,0.005
13:32:27.280,-0.265,0.01
13:32:27.284,-0.245,0.015
13:32:27.288,-0.255,0.0
13:32:27.292,-0.27,0.005
13:32:27.296,-0.275,0.0
13:32:27.300,-0.275,0.0
13:32:27.304,-0.275,0.015
13:32:27.308,-0.28,0.015
13:32:27.312,-0.295,0.025
13:32:27.316,-0.295,0.005
13:32:27.320,-0.295,0.02
13:32:27.324,-0.3,0.0
13:32:27.328,-0.33,0.005
13:32:27.332,-0.305,0.02
13:32:27.336,-0.33,0.03
13:32:27.340,-0.315,0.005
13:32:27.344,-0.305,0.005
13:32:27.348,-0.285,0.03
13:32:27.352,-0.23,0.06
13:32:27.356,-0.235,0.08
13:32:27.360,-0.205,0.09
13:32:27.364,-0.155,0.14
13:32:27.368,-0.12,0.155
13:32:27.372,-0.115,0.12
13:32:27.376,-0.105,0.065
13:32:27.380,-0.12,0.04
13:32:27.384,-0.115,0.06
13:32:27.388,-0.105,0.025
13:32:27.392,-0.1,0.005
13:32:27.396,-0.11,0.005
13:32:27.400,-0.115,0.0
13:32:27.404,-0.135,0.015
13:32:27.408,-0.125,-0.01
13:32:27.412,-0.14,0.0
13:32:27.416,-0.14,0.015
13:32:27.420,-0.14,0.02
13:32:27.424,-0.155,-0.005
13:32:27.428,-0.155,0.02
13:32:27.432,-0.155,0.005
13:32:27.436,-0.22,-0.02
13:32:27.440,-0.28,-0.015
13:32:27.444,-0.32,-0.035
13:32:27.448,-0.325,-0.04
13:32:27.452,-0.27,-0.085
13:32:27.456,-0.08,-0.16
13:32:27.460,0.24,-0.275
13:32:27.464,0.62,-0.4
13:32:27.468,0.955,-0.41
13:32:27.472,1.15,-0.27
13:32:27.476,0.985,0.065
13:32:27.480,0.435,0.455
13:32:27.484,-0.23,0.675
13:32:27.488,-0.785,0.76
13:32:27.492,-0.97,0.45
13:32:27.496,-0.875,0.1
13:32:27.500,-0.69,-0.14
13:32:27.504,-0.525,-0.21
13:32:27.508,-0.39,-0.185
13:32:27.512,-0.335,-0.165
13:32:27.516,-0.315,-0.095
13:32:27.520,-0.315,-0.025
13:32:27.524,-0.315,0.0
13:32:27.528,-0.325,0.005
13:32:27.532,-0.32,0.0
13:32:27.536,-0.33,-0.01
13:32:27.540,-0.31,0.005
13:32:27.544,-0.345,0.03
13:32:27.548,-0.365,0.02
13:32:27.552,-0.345,0.005
13:32:27.556,-0.355,0.01
13:32:27.560,-0.345,0.0
13:32:27.564,-0.35,0.04
13:32:27.568,-0.36,0.01
13:32:27.572,-0.38,0.015
13:32:27.576,-0.35,0.04
13:32:27.580,-0.35,0.025
13:32:27.584,-0.325,0.02
13:32:27.588,-0.3,0.06
13:32:27.592,-0.285,0.07
13:32:27.596,-0.22,0.08
13:32:27.600,-0.15,0.09
13:32:27.604,-0.12,0.13
13:32:27.608,-0.1,0.12
13:32:27.612,-0.105,0.1
13:32:27.616,-0.065,0.045
13:32:27.620,-0.065,0.05
13:32:27.624,-0.065,0.035
13:32:27.628,-0.04,0.03
13:32:27.632,-0.05,0.015
13:32:27.636,-0.02,0.05
13:32:27.640,-0.035,0.04
13:32:27.644,-0.025,0.02
13:32:27.648,0.0,0.01
13:32:27.652,0.005,0.03
13:32:27.656,0.015,0.03
13:32:27.660,0.02,0.02
13:32:27.664,0.055,0.0
13:32:27.668,0.065,-0.005
13:32:27.672,0.08,0.0
13:32:27.676,0.1,-0.035
13:32:27.680,0.11,0.0
13:32:27.684,0.135,-0.015
13:32:27.688,0.11,-0.025
13:32:27.692,0.13,-0.02
13:32:27.696,0.125,-0.015
13:32:27.700,0.125,-0.04
13:32:27.704,0.125,-0.02
13:32:27.708,0.12,-0.04
13:32:27.712,0.14,-0.02
13:32:27.716,0.115,-0.02
13:32:27.720,0.105,-0.005
13:32:27.724,0.055,-0.005
13:32:27.728,0.025,-0.005
13:32:27.732,0.01,-0.03
13:32:27.736,-0.015,-0.02
13:32:27.740,-0.02,0.0
13:32:27.744,-0.055,-0.015
13:32:27.748,-0.095,0.0
13:32:27.752,-0.115,-0.005
13:32:27.756,-0.13,-0.03
13:32:27.760,-0.175,-0.05
13:32:27.764,-0.205,-0.01
13:32:27.768,-0.22,-0.01
13:32:27.772,-0.24,-0.01
13:32:27.776,-0.27,0.005
13:32:27.780,-0.275,-0.01
13:32:27.784,-0.28,-0.02
13:32:27.788,-0.3,-0.015
13:32:27.792,-0.29,-0.02
13:32:27.796,-0.31,0.015
13:32:27.800,-0.295,0.01
13:32:27.804,-0.31,-0.01
13:32:27.808,-0.335,0.0
13:32:27.812,-0.31,0.005
13:32:27.816,-0.285,0.0
13:32:27.820,-0.275,0.015
13:32:27.824,-0.275,0.03
13:32:27.828,-0.255,0.055
13:32:27.832,-0.195,0.075
13:32:27.836,-0.16,0.09
13:32:27.840,-0.125,0.105
13:32:27.844,-0.1,0.12
13:32:27.848,-0.11,0.08
13:32:27.852,-0.115,0.06
13:32:27.856,-0.11,0.04
13:32:27.860,-0.115,0.005
13:32:27.864,-0.12,0.005
13:32:27.868,-0.105,0.015
13:32:27.872,-0.115,0.015
13:32:27.876,-0.12,0.015
13:32:27.880,-0.105,0.03
13:32:27.884,-0.13,0.035
13:32:27.888,-0.13,0.045
13:32:27.892,-0.125,0.05
13:32:27.896,-0.12,0.03
13:32:27.900,-0.125,0.03
13:32:27.904,-0.13,0.03
13:32:27.908,-0.12,0.035
13:32:27.912,-0.12,0.015
13:32:27.916,-0.125,0.04
13:32:27.920,-0.115,0.03
13:32:27.924,-0.14,0.025
13:32:27.928,-0.145,0.03
13:32:27.932,-0.155,0.02
13:32:27.936,-0.155,0.03
13:32:27.940,-0.135,0.03
13:32:27.944,-0.16,0.03
13:32:27.948,-0.155,0.025
13:32:27.952,-0.195,0.035
13:32:27.956,-0.235,0.035
13:32:27.960,-0.32,0.01
13:32:27.964,-0.345,-0.01
13:32:27.968,-0.345,-0.035
13:32:27.972,-0.295,-0.05
13:32:27.976,-0.13,-0.115
13:32:27.980,0.185,-0.2
13:32:27.984,0.505,-0.28
13:32:27.988,0.835,-0.37
13:32:27.992,1.055,-0.315
13:32:27.996,0.985,-0.08
13:32:28.000,0.495,0.34
13:32:28.004,-0.14,0.665
13:32:28.008,-0.71,0.845
13:32:28.012,-1.02,0.71
13:32:28.016,-1.02,0.32
13:32:28.020,-0.885,-0.025
13:32:28.024,-0.68,-0.15
13:32:28.028,-0.515,-0.155
13:32:28.032,-0.4,-0.135
13:32:28.036,-0.365,-0.12
13:32:28.040,-0.35,-0.04
13:32:28.044,-0.37,0.0
13:32:28.048,-0.36,0.04
13:32:28.052,-0.345,0.045
13:32:28.056,-0.36,0.045
13:32:28.060,-0.345,0.05
13:32:28.064,-0.285,0.075
13:32:28.068,-0.205,0.095
13:32:28.072,-0.16,0.13
13:32:28.076,-0.145,0.125
13:32:28.080,-0.125,0.1
13:32:28.084,-0.135,0.055
13:32:28.088,-0.115,0.065
13:32:28.092,-0.095,0.05
13:32:28.096,-0.095,0.055
13:32:28.100,-0.095,0.025
13:32:28.104,-0.09,0.04
13:32:28.108,-0.1,0.015
13:32:28.112,-0.095,0.045
13:32:28.116,-0.1,0.04
13:32:28.120,-0.07,0.04
13:32:28.124,-0.075,0.02
13:32:28.128,-0.09,0.025
13:32:28.132,-0.085,0.02
13:32:28.136,-0.06,0.035
13:32:28.140,-0.055,0.045
13:32:28.144,-0.045,0.015
13:32:28.148,-0.04,0.02
13:32:28.152,-0.015,0.035
13:32:28.156,-0.01,0.035
13:32:28.160,-0.025,0.02
13:32:28.164,0.015,0.035
13:32:28.168,0.005,0.02
13:32:28.172,0.025,0.02
13:32:28.176,0.045,0.03
13:32:28.180,0.07,0.005
13:32:28.184,0.07,0.015
13:32:28.188,0.095,-0.005
13:32:28.192,0.09,0.005
13:32:28.196,0.115,0.0
13:32:28.200,0.14,0.005
13:32:28.204,0.145,-0.025
13:32:28.208,0.16,-0.02
13:32:28.212,0.155,-0.045
13:32:28.216,0.15,-0.035
13:32:28.220,0.13,-0.035
13:32:28.224,0.095,-0.04
13:32:28.228,0.08,-0.04
13:32:28.232,0.07,-0.05
13:32:28.236,0.07,-0.05
13:32:28.240,0.06,-0.035
13:32:28.244,0.025,-0.055
13:32:28.248,0.005,-0.04
13:32:28.252,-0.02,-0.03
13:32:28.256,-0.05,-0.02
13:32:28.260,-0.06,-0.01
13:32:28.264,-0.085,-0.015
13:32:28.268,-0.105,-0.02
13:32:28.272,-0.15,-0.005
13:32:28.276,-0.145,-0.02
13:32:28.280,-0.17,-0.015
13:32:28.284,-0.205,-0.005
13:32:28.288,-0.19,-0.01
13:32:28.292,-0.2,-0.02
13:32:28.296,-0.195,0.005
13:32:28.300,-0.18,0.01
13:32:28.304,-0.195,0.03
13:32:28.308,-0.155,0.06
13:32:28.312,-0.11,0.055
13:32:28.316,-0.08,0.09
13:32:28.320,-0.07,0.105
13:32:28.324,-0.08,0.075
13:32:28.328,-0.06,0.025
13:32:28.332,-0.07,0.005
13:32:28.336,-0.065,0.025
13:32:28.340,-0.04,-0.015
13:32:28.344,-0.055,0.0
13:32:28.348,-0.055,-0.045
13:32:28.352,-0.05,-0.035
13:32:28.356,-0.065,0.0
13:32:28.360,-0.055,-0.005
13:32:28.364,-0.05,0.025
13:32:28.368,-0.04,0.015
13:32:28.372,-0.055,0.0
13:32:28.376,-0.045,0.0
13:32:28.380,-0.04,-0.005
13:32:28.384,-0.055,-0.01
13:32:28.388,-0.04,-0.02
13:32:28.392,-0.06,-0.02
13:32:28.396,-0.05,-0.035
13:32:28.400,-0.06,-0.04
13:32:28.404,-0.08,-0.055
13:32:28.408,-0.065,-0.05
13:32:28.412,-0.055,-0.035
13:32:28.416,-0.07,-0.025
13:32:28.420,-0.085,-0.04
13:32:28.424,-0.07,-0.055
13:32:28.428,-0.08,-0.035
13:32:28.432,-0.1,-0.03
13:32:28.436,-0.115,-0.05
13:32:28.440,-0.105,-0.04
13:32:28.444,-0.125,-0.045
13:32:28.448,-0.13,-0.04
13:32:28.452,-0.145,-0.045
13:32:28.456,-0.16,-0.045
13:32:28.460,-0.17,-0.05
13:32:28.464,-0.18,-0.07
13:32:28.468,-0.21,-0.07
13:32:28.472,-0.225,-0.06
13:32:28.476,-0.24,-0.085
13:32:28.480,-0.24,-0.085
13:32:28.484,-0.23,-0.05
13:32:28.488,-0.24,-0.05
13:32:28.492,-0.265,-0.07
13:32:28.496,-0.265,-0.06
13:32:28.500,-0.25,-0.08
13:32:28.504,-0.275,-0.07
13:32:28.508,-0.3,-0.06
13:32:28.512,-0.295,-0.075
13:32:28.516,-0.285,-0.06
13:32:28.520,-0.315,-0.035
13:32:28.524,-0.315,-0.055
13:32:28.528,-0.29,-0.06
13:32:28.532,-0.31,-0.045
13:32:28.536,-0.28,-0.04
13:32:28.540,-0.25,-0.02
13:32:28.544,-0.235,-0.005
13:32:28.548,-0.17,0.025
13:32:28.552,-0.115,0.035
13:32:28.556,-0.115,0.025
13:32:28.560,-0.09,0.0
13:32:28.564,-0.08,-0.01
13:32:28.568,-0.07,-0.03
13:32:28.572,-0.075,-0.025
13:32:28.576,-0.075,-0.065
13:32:28.580,-0.085,-0.055
13:32:28.584,-0.085,-0.05
13:32:28.588,-0.1,-0.045
13:32:28.592,-0.135,-0.04
13:32:28.596,-0.11,-0.055
13:32:28.600,-0.09,-0.035
13:32:28.604,-0.1,-0.025
13:32:28.608,-0.1,-0.025
13:32:28.612,-0.105,-0.045
13:32:28.616,-0.115,-0.04
13:32:28.620,-0.105,-0.05
13:32:28.624,-0.115,-0.04
13:32:28.628,-0.145,-0.055
13:32:28.632,-0.185,-0.065
13:32:28.636,-0.235,-0.08
13:32:28.640,-0.285,-0.07
13:32:28.644,-0.275,-0.085
13:32:28.648,-0.25,-0.125
13:32:28.652,-0.205,-0.165
13:32:28.656,-0.015,-0.28
13:32:28.660,0.295,-0.4
13:32:28.664,0.68,-0.5
13:32:28.668,1.02,-0.5
13:32:28.672,1.225,-0.385
13:32:28.676,1.125,-0.045
13:32:28.680,0.62,0.32
13:32:28.684,-0.055,0.58
13:32:28.688,-0.68,0.65
13:32:28.692,-0.97,0.42
13:32:28.696,-0.915,0.085
13:32:28.700,-0.755,-0.125
13:32:28.704,-0.555,-0.24
13:32:28.708,-0.39,-0.26
13:32:28.712,-0.32,-0.23
13:32:28.716,-0.275,-0.18
13:32:28.720,-0.26,-0.095
13:32:28.724,-0.26,-0.05
13:32:28.728,-0.25,-0.03
13:32:28.732,-0.275,-0.05
13:32:28.736,-0.295,-0.045
13:32:28.740,-0.295,-0.005
13:32:28.744,-0.295,-0.035
13:32:28.748,-0.295,-0.015
13:32:28.752,-0.3,-0.035
13:32:28.756,-0.32,-0.025
13:32:28.760,-0.325,-0.015
13:32:28.764,-0.32,-0.01
13:32:28.768,-0.315,-0.025
13:32:28.772,-0.31,-0.01
13:32:28.776,-0.32,-0.025
13:32:28.780,-0.28,0.0
13:32:28.784,-0.255,0.0
13:32:28.788,-0.235,0.03
13:32:28.792,-0.17,0.035
13:32:28.796,-0.085,0.075
13:32:28.800,-0.08,0.05
13:32:28.804,-0.05,0.05
13:32:28.808,-0.035,0.02
13:32:28.812,-0.04,0.0
13:32:28.816,-0.045,-0.01
13:32:28.820,-0.015,-0.035
13:32:28.824,-0.02,-0.04
13:32:28.828,-0.005,-0.035
13:32:28.832,-0.025,-0.035
13:32:28.836,-0.01,-0.035
13:32:28.840,-0.015,-0.03
13:32:28.844,0.015,-0.01
13:32:28.848,0.02,-0.035
13:32:28.852,0.05,-0.025
13:32:28.856,0.05,-0.04
13:32:28.860,0.075,-0.04
13:32:28.864,0.065,-0.04
13:32:28.868,0.095,-0.035
13:32:28.872,0.11,-0.065
13:32:28.876,0.12,-0.05
13:32:28.880,0.115,-0.055
13:32:28.884,0.165,-0.075
13:32:28.888,0.17,-0.08
13:32:28.892,0.175,-0.05
13:32:28.896,0.18,-0.06
13:32:28.900,0.19,-0.065
13:32:28.904,0.185,-0.065
13:32:28.908,0.185,-0.07
13:32:28.912,0.195,-0.045
13:32:28.916,0.195,-0.035
13:32:28.920,0.18,-0.04
13:32:28.924,0.175,-0.045
13:32:28.928,0.16,-0.015
13:32:28.932,0.14,-0.06
13:32:28.936,0.125,-0.055
13:32:28.940,0.105,-0.005
13:32:28.944,0.065,-0.055
13:32:28.948,0.04,-0.05
13:32:28.952,0.005,-0.065
13:32:28.956,-0.01,-0.045
13:32:28.960,-0.035,-0.045
13:32:28.964,-0.055,-0.025
13:32:28.968,-0.085,-0.065
13:32:28.972,-0.11,-0.035
13:32:28.976,-0.15,-0.025
13:32:28.980,-0.17,-0.04
13:32:28.984,-0.16,-0.05
13:32:28.988,-0.2,-0.02
13:32:28.992,-0.21,-0.04
13:32:28.996,-0.205,-0.03
13:32:29.000,-0.215,-0.025
13:32:29.004,-0.22,-0.04
13:32:29.008,-0.24,-0.03
13:32:29.012,-0.22,-0.005
13:32:29.016,-0.215,-0.015
13:32:29.020,-0.19,0.0
13:32:29.024,-0.18,0.01
13:32:29.028,-0.115,0.05
13:32:29.032,-0.075,0.06
13:32:29.036,-0.045,0.095
13:32:29.040,-0.025,0.07
13:32:29.044,-0.05,0.04
13:32:29.048,-0.045,0.01
13:32:29.052,-0.045,0.015
13:32:29.056,-0.045,0.0
13:32:29.060,-0.055,0.0
13:32:29.064,-0.06,-0.01
13:32:29.068,-0.035,0.0
13:32:29.072,-0.055,-0.01
13:32:29.076,-0.05,-0.015
13:32:29.080,-0.07,0.015
13:32:29.084,-0.065,-0.015
13:32:29.088,-0.08,-0.01
13:32:29.092,-0.06,0.0
13:32:29.096,-0.05,0.005
13:32:29.100,-0.05,0.0
13:32:29.104,-0.075,0.0
13:32:29.108,-0.065,0.015
13:32:29.112,-0.08,0.0
13:32:29.116,-0.08,-0.01
13:32:29.120,-0.07,-0.01
13:32:29.124,-0.07,0.0
13:32:29.128,-0.08,0.005
13:32:29.132,-0.09,-0.02
13:32:29.136,-0.09,0.0
13:32:29.140,-0.1,-0.02
13:32:29.144,-0.1,-0.02
13:32:29.148,-0.105,-0.01
13:32:29.152,-0.11,-0.01
13:32:29.156,-0.1,-0.02
13:32:29.160,-0.13,0.0
13:32:29.164,-0.125,0.0
13:32:29.168,-0.115,-0.015
13:32:29.172,-0.14,-0.02
13:32:29.176,-0.145,0.0
13:32:29.180,-0.175,-0.025
13:32:29.184,-0.2,-0.03
13:32:29.188,-0.21,-0.03
13:32:29.192,-0.21,-0.06
13:32:29.196,-0.21,-0.025
13:32:29.200,-0.205,-0.04
13:32:29.204,-0.215,-0.03
13:32:29.208,-0.25,-0.045
13:32:29.212,-0.265,-0.05
13:32:29.216,-0.235,-0.05
13:32:29.220,-0.245,-0.025
13:32:29.224,-0.255,-0.025
13:32:29.228,-0.275,-0.03
13:32:29.232,-0.285,-0.045
13:32:29.236,-0.3,-0.035
13:32:29.240,-0.285,-0.03
13:32:29.244,-0.275,-0.045
13:32:29.248,-0.26,-0.05
13:32:29.252,-0.255,0.0
13:32:29.256,-0.2,0.0
13:32:29.260,-0.135,0.025
13:32:29.264,-0.065,0.055
13:32:29.268,-0.03,0.015
13:32:29.272,-0.03,0.015
13:32:29.276,-0.025,-0.02
13:32:29.280,-0.04,-0.03
13:32:29.284,-0.035,-0.045
13:32:29.288,-0.025,-0.055
13:32:29.292,-0.07,-0.045
13:32:29.296,-0.065,-0.055
13:32:29.300,-0.125,-0.06
13:32:29.304,-0.15,-0.07
13:32:29.308,-0.175,-0.06
13:32:29.312,-0.155,-0.1
13:32:29.316,-0.08,-0.155
13:32:29.320,0.085,-0.27
13:32:29.324,0.36,-0.4
13:32:29.328,0.69,-0.53
13:32:29.332,0.985,-0.54
13:32:29.336,1.07,-0.415
13:32:29.340,0.8,-0.055
13:32:29.344,0.25,0.365
13:32:29.348,-0.39,0.62
13:32:29.352,-0.825,0.655
13:32:29.356,-0.93,0.37
13:32:29.360,-0.845,0.045
13:32:29.364,-0.61,-0.18
13:32:29.368,-0.4,-0.21
13:32:29.372,-0.265,-0.21
13:32:29.376,-0.205,-0.18
13:32:29.380,-0.14,-0.125
13:32:29.384,-0.135,-0.07
13:32:29.388,-0.145,-0.05
13:32:29.392,-0.14,-0.03
13:32:29.396,-0.15,-0.035
13:32:29.400,-0.16,-0.04
13:32:29.404,-0.17,-0.03
13:32:29.408,-0.18,-0.05
13:32:29.412,-0.21,-0.06
13:32:29.416,-0.21,-0.07
13:32:29.420,-0.23,-0.075
13:32:29.424,-0.22,-0.05
13:32:29.428,-0.245,-0.045
13:32:29.432,-0.23,-0.05
13:32:29.436,-0.24,-0.04
13:32:29.440,-0.235,-0.045
13:32:29.444,-0.24,-0.06
13:32:29.448,-0.25,-0.065
13:32:29.452,-0.245,-0.055
13:32:29.456,-0.25,-0.065
13:32:29.460,-0.26,-0.055
13:32:29.464,-0.24,-0.045
13:32:29.468,-0.275,-0.04
13:32:29.472,-0.245,-0.05
13:32:29.476,-0.235,-0.04
13:32:29.480,-0.21,-0.03
13:32:29.484,-0.175,-0.01
13:32:29.488,-0.16,-0.01
13:32:29.492,-0.09,0.0
13:32:29.496,-0.005,0.0
13:32:29.500,0.05,0.02
13:32:29.504,0.07,0.025
13:32:29.508,0.09,-0.01
13:32:29.512,0.075,-0.065
13:32:29.516,0.105,-0.055
13:32:29.520,0.14,-0.09
13:32:29.524,0.15,-0.11
13:32:29.528,0.165,-0.11
13:32:29.532,0.18,-0.14
13:32:29.536,0.225,-0.12
13:32:29.540,0.225,-0.11
13:32:29.544,0.23,-0.12
13:32:29.548,0.235,-0.145
13:32:29.552,0.25,-0.135
13:32:29.556,0.255,-0.13
13:32:29.560,0.27,-0.135
13:32:29.564,0.255,-0.14
13:32:29.568,0.24,-0.14
13:32:29.572,0.255,-0.14
13:32:29.576,0.22,-0.145
13:32:29.580,0.22,-0.14
13:32:29.584,0.205,-0.12
13:32:29.588,0.165,-0.125
13:32:29.592,0.18,-0.135
13:32:29.596,0.13,-0.11
13:32:29.600,0.105,-0.1
13:32:29.604,0.06,-0.11
13:32:29.608,0.03,-0.06
13:32:29.612,0.03,-0.075
13:32:29.616,0.01,-0.065
13:32:29.620,-0.025,-0.085
13:32:29.624,-0.045,-0.075
13:32:29.628,-0.055,-0.08
13:32:29.632,-0.095,-0.07
13:32:29.636,-0.12,-0.06
13:32:29.640,-0.15,-0.1
13:32:29.644,-0.18,-0.1
13:32:29.648,-0.17,-0.115
13:32:29.652,-0.18,-0.115
13:32:29.656,-0.23,-0.105
13:32:29.660,-0.23,-0.13
13:32:29.664,-0.23,-0.105
13:32:29.668,-0.26,-0.1
13:32:29.672,-0.275,-0.095
13:32:29.676,-0.275,-0.1
13:32:29.680,-0.285,-0.09
13:32:29.684,-0.29,-0.105
13:32:29.688,-0.315,-0.055
13:32:29.692,-0.315,-0.1
13:32:29.696,-0.325,-0.11
13:32:29.700,-0.32,-0.07
13:32:29.704,-0.315,-0.1
13:32:29.708,-0.295,-0.085
13:32:29.712,-0.29,-0.075
13:32:29.716,-0.26,-0.08
13:32:29.720,-0.24,-0.045
13:32:29.724,-0.205,-0.025
13:32:29.728,-0.16,-0.025
13:32:29.732,-0.1,-0.005
13:32:29.736,-0.095,0.005
13:32:29.740,-0.08,-0.02
13:32:29.744,-0.105,-0.03
13:32:29.748,-0.08,-0.015
13:32:29.752,-0.085,-0.075
13:32:29.756,-0.09,-0.07
13:32:29.760,-0.09,-0.09
13:32:29.764,-0.07,-0.1
13:32:29.768,-0.085,-0.085
13:32:29.772,-0.095,-0.09
13:32:29.776,-0.095,-0.08
13:32:29.780,-0.09,-0.05
13:32:29.784,-0.07,-0.09
13:32:29.788,-0.09,-0.07
13:32:29.792,-0.09,-0.055
13:32:29.796,-0.11,-0.07
13:32:29.800,-0.11,-0.09
13:32:29.804,-0.115,-0.07
13:32:29.808,-0.115,-0.095
13:32:29.812,-0.12,-0.085
13:32:29.816,-0.13,-0.085
13:32:29.820,-0.15,-0.075
13:32:29.824,-0.13,-0.065
13:32:29.828,-0.14,-0.06
13:32:29.832,-0.155,-0.08
13:32:29.836,-0.15,-0.07
13:32:29.840,-0.155,-0.105
13:32:29.844,-0.165,-0.09
13:32:29.848,-0.17,-0.075
13:32:29.852,-0.17,-0.08
13:32:29.856,-0.18,-0.11
13:32:29.860,-0.175,-0.09
13:32:29.864,-0.2,-0.095
13:32:29.868,-0.2,-0.09
13:32:29.872,-0.25,-0.13
13:32:29.876,-0.315,-0.12
13:32:29.880,-0.37,-0.12
13:32:29.884,-0.36,-0.14
13:32:29.888,-0.335,-0.18
13:32:29.892,-0.22,-0.235
13:32:29.896,0.065,-0.335
13:32:29.900,0.39,-0.46
13:32:29.904,0.765,-0.56
13:32:29.908,1.005,-0.515
13:32:29.912,0.98,-0.28
13:32:29.916,0.53,0.09
13:32:29.920,-0.04,0.4
13:32:29.924,-0.615,0.635
13:32:29.928,-0.94,0.66
13:32:29.932,-1.05,0.35
13:32:29.936,-1.0,-0.04
13:32:29.940,-0.775,-0.225
13:32:29.944,-0.555,-0.25
13:32:29.948,-0.345,-0.22
13:32:29.952,-0.22,-0.17
13:32:29.956,-0.11,-0.065
13:32:29.960,-0.09,0.01
13:32:29.964,-0.095,-0.01
13:32:29.968,-0.095,-0.02
13:32:29.972,-0.1,-0.025
13:32:29.976,-0.09,-0.02
13:32:29.980,-0.09,-0.03
13:32:29.984,-0.075,-0.06
13:32:29.988,-0.05,-0.04
13:32:29.992,-0.05,-0.02
13:32:29.996,-0.06,-0.055
13:32:30.000,-0.08,-0.06
13:32:30.004,-0.065,-0.065
13:32:30.008,-0.075,-0.05
13:32:30.012,-0.065,-0.05
13:32:30.016,-0.05,-0.05
13:32:30.020,-0.045,-0.05
13:32:30.024,-0.065,-0.01
13:32:30.028,-0.065,-0.05
13:32:30.032,-0.075,-0.05
13:32:30.036,-0.055,-0.045
13:32:30.040,-0.06,-0.03
13:32:30.044,-0.04,-0.07
13:32:30.048,-0.05,-0.075
13:32:30.052,-0.055,-0.055
13:32:30.056,-0.055,-0.05
13:32:30.060,-0.04,-0.06
13:32:30.064,-0.045,-0.075
13:32:30.068,-0.015,-0.045
13:32:30.072,0.0,-0.065
13:32:30.076,0.015,-0.085
13:32:30.080,0.035,-0.08
13:32:30.084,0.035,-0.08
13:32:30.088,0.055,-0.085
13:32:30.092,0.075,-0.075
13:32:30.096,0.07,-0.11
13:32:30.100,0.09,-0.14
13:32:30.104,0.07,-0.13
13:32:30.108,0.09,-0.13
13:32:30.112,0.09,-0.16
13:32:30.116,0.095,-0.16
13:32:30.120,0.1,-0.15
13:32:30.124,0.085,-0.165
13:32:30.128,0.1,-0.16
13:32:30.132,0.075,-0.155
13:32:30.136,0.055,-0.165
13:32:30.140,0.045,-0.15
13:32:30.144,0.045,-0.19
13:32:30.148,0.045,-0.175
13:32:30.152,0.02,-0.145
13:32:30.156,0.0,-0.12
13:32:30.160,-0.01,-0.125
13:32:30.164,-0.035,-0.14
13:32:30.168,-0.03,-0.12
13:32:30.172,-0.03,-0.08
13:32:30.176,-0.04,-0.075
13:32:30.180,-0.025,-0.05
13:32:30.184,-0.03,-0.01
13:32:30.188,0.0,-0.005
13:32:30.192,0.03,0.0
13:32:30.196,0.02,0.0
13:32:30.200,0.0,-0.015
13:32:30.204,-0.005,-0.025
13:32:30.208,-0.035,-0.055
13:32:30.212,-0.03,-0.07
13:32:30.216,-0.04,-0.07
13:32:30.220,-0.055,-0.085
13:32:30.224,-0.055,-0.11
13:32:30.228,-0.08,-0.09
13:32:30.232,-0.09,-0.08
13:32:30.236,-0.09,-0.085
13:32:30.240,-0.075,-0.055
13:32:30.244,-0.08,-0.065
13:32:30.248,-0.09,-0.065
13:32:30.252,-0.095,-0.075
13:32:30.256,-0.085,-0.07
13:32:30.260,-0.085,-0.09
13:32:30.264,-0.095,-0.075
13:32:30.268,-0.105,-0.125
13:32:30.272,-0.115,-0.09
13:32:30.276,-0.115,-0.1
13:32:30.280,-0.12,-0.09
13:32:30.284,-0.095,-0.085
13:32:30.288,-0.1,-0.085
13:32:30.292,-0.095,-0.095
13:32:30.296,-0.125,-0.095
13:32:30.300,-0.09,-0.105
13:32:30.304,-0.105,-0.09
13:32:30.308,-0.09,-0.085
13:32:30.312,-0.09,-0.09
13:32:30.316,-0.105,-0.12
13:32:30.320,-0.135,-0.115
13:32:30.324,-0.14,-0.1
13:32:30.328,-0.15,-0.11
13:32:30.332,-0.175,-0.09
13:32:30.336,-0.2,-0.075
13:32:30.340,-0.2,-0.11
13:32:30.344,-0.21,-0.11
13:32:30.348,-0.215,-0.11
13:32:30.352,-0.21,-0.08
13:32:30.356,-0.22,-0.11
13:32:30.360,-0.215,-0.12
13:32:30.364,-0.265,-0.1
13:32:30.368,-0.27,-0.115
13:32:30.372,-0.26,-0.125
13:32:30.376,-0.265,-0.085
13:32:30.380,-0.27,-0.1
13:32:30.384,-0.305,-0.105
13:32:30.388,-0.3,-0.1
13:32:30.392,-0.295,-0.08
13:32:30.396,-0.275,-0.075
13:32:30.400,-0.28,-0.07
13:32:30.404,-0.26,-0.08
13:32:30.408,-0.22,-0.03
13:32:30.412,-0.135,-0.005
13:32:30.416,-0.115,0.01
13:32:30.420,-0.085,0.02
13:32:30.424,-0.08,-0.01
13:32:30.428,-0.08,-0.06
13:32:30.432,-0.07,-0.06
13:32:30.436,-0.09,-0.07
13:32:30.440,-0.08,-0.085
13:32:30.444,-0.115,-0.075
13:32:30.448,-0.105,-0.105
13:32:30.452,-0.105,-0.08
13:32:30.456,-0.09,-0.08
13:32:30.460,-0.115,-0.1
13:32:30.464,-0.11,-0.095
13:32:30.468,-0.115,-0.095
13:32:30.472,-0.12,-0.08
13:32:30.476,-0.13,-0.115
13:32:30.480,-0.125,-0.115
13:32:30.484,-0.115,-0.105
13:32:30.488,-0.135,-0.09
13:32:30.492,-0.135,-0.125
13:32:30.496,-0.135,-0.115
13:32:30.500,-0.13,-0.11
13:32:30.504,-0.14,-0.105
13:32:30.508,-0.14,-0.095
13:32:30.512,-0.14,-0.085
13:32:30.516,-0.17,-0.11
13:32:30.520,-0.155,-0.11
13:32:30.524,-0.175,-0.095
13:32:30.528,-0.17,-0.125
13:32:30.532,-0.18,-0.11
13:32:30.536,-0.18,-0.095
13:32:30.540,-0.17,-0.1
13:32:30.544,-0.19,-0.125
13:32:30.548,-0.19,-0.12
13:32:30.552,-0.195,-0.13
13:32:30.556,-0.21,-0.115
13:32:30.560,-0.215,-0.12
13:32:30.564,-0.23,-0.11
13:32:30.568,-0.24,-0.1
13:32:30.572,-0.285,-0.13
13:32:30.576,-0.275,-0.14
13:32:30.580,-0.275,-0.135
13:32:30.584,-0.28,-0.12
13:32:30.588,-0.305,-0.115
13:32:30.592,-0.3,-0.13
13:32:30.596,-0.305,-0.135
13:32:30.600,-0.31,-0.125
13:32:30.604,-0.32,-0.12
13:32:30.608,-0.325,-0.1
13:32:30.612,-0.33,-0.095
13:32:30.616,-0.355,-0.105
13:32:30.620,-0.37,-0.12
13:32:30.624,-0.37,-0.1
13:32:30.628,-0.35,-0.125
13:32:30.632,-0.34,-0.115
13:32:30.636,-0.33,-0.09
13:32:30.640,-0.3,-0.055
13:32:30.644,-0.23,-0.035
13:32:30.648,-0.18,0.01
13:32:30.652,-0.15,0.005
13:32:30.656,-0.155,-0.005
13:32:30.660,-0.13,-0.06
13:32:30.664,-0.14,-0.065
13:32:30.668,-0.12,-0.085
13:32:30.672,-0.12,-0.12
13:32:30.676,-0.14,-0.14
13:32:30.680,-0.14,-0.12
13:32:30.684,-0.155,-0.11
13:32:30.688,-0.165,-0.12
13:32:30.692,-0.16,-0.105
13:32:30.696,-0.185,-0.14
13:32:30.700,-0.23,-0.12
13:32:30.704,-0.3,-0.135
13:32:30.708,-0.32,-0.15
13:32:30.712,-0.315,-0.19
13:32:30.716,-0.245,-0.24
13:32:30.720,-0.03,-0.38
13:32:30.724,0.325,-0.495
13:32:30.728,0.7,-0.6
13:32:30.732,1.065,-0.555
13:32:30.736,1.22,-0.325
13:32:30.740,1.0,0.025
13:32:30.744,0.37,0.315
13:32:30.748,-0.365,0.55
13:32:30.752,-0.895,0.475
13:32:30.756,-0.985,0.125
13:32:30.760,-0.86,-0.155
13:32:30.764,-0.635,-0.31
13:32:30.768,-0.47,-0.36
13:32:30.772,-0.36,-0.335
13:32:30.776,-0.29,-0.27
13:32:30.780,-0.28,-0.185
13:32:30.784,-0.28,-0.115
13:32:30.788,-0.285,-0.115
13:32:30.792,-0.31,-0.11
13:32:30.796,-0.305,-0.11
13:32:30.800,-0.325,-0.1
13:32:30.804,-0.305,-0.115
13:32:30.808,-0.31,-0.11
13:32:30.812,-0.31,-0.095
13:32:30.816,-0.33,-0.1
13:32:30.820,-0.335,-0.1
13:32:30.824,-0.34,-0.1
13:32:30.828,-0.35,-0.105
13:32:30.832,-0.355,-0.115
13:32:30.836,-0.33,-0.095
13:32:30.840,-0.35,-0.11
13:32:30.844,-0.355,-0.055
13:32:30.848,-0.365,-0.04
13:32:30.852,-0.365,-0.055
13:32:30.856,-0.335,-0.075
13:32:30.860,-0.31,-0.05
13:32:30.864,-0.255,-0.03
13:32:30.868,-0.19,-0.025
13:32:30.872,-0.14,0.015
13:32:30.876,-0.11,0.035
13:32:30.880,-0.075,0.005
13:32:30.884,-0.08,-0.055
13:32:30.888,-0.075,-0.065
13:32:30.892,-0.055,-0.04
13:32:30.896,-0.065,-0.055
13:32:30.900,-0.03,-0.075
13:32:30.904,-0.025,-0.08
13:32:30.908,-0.005,-0.07
13:32:30.912,0.0,-0.075
13:32:30.916,0.03,-0.075
13:32:30.920,0.04,-0.085
13:32:30.924,0.06,-0.09
13:32:30.928,0.055,-0.07
13:32:30.932,0.1,-0.09
13:32:30.936,0.115,-0.095
13:32:30.940,0.13,-0.07
13:32:30.944,0.155,-0.095
13:32:30.948,0.165,-0.105
13:32:30.952,0.17,-0.115
13:32:30.956,0.175,-0.095
13:32:30.960,0.19,-0.095
13:32:30.964,0.19,-0.09
13:32:30.968,0.19,-0.1
13:32:30.972,0.18,-0.09
13:32:30.976,0.17,-0.11
13:32:30.980,0.14,-0.085
13:32:30.984,0.155,-0.065
13:32:30.988,0.14,-0.075
13:32:30.992,0.115,-0.1
13:32:30.996,0.095,-0.09
13:32:31.000,0.075,-0.08
13:32:31.004,0.05,-0.065
13:32:31.008,0.025,-0.055
13:32:31.012,0.0,-0.085
13:32:31.016,-0.01,-0.07
13:32:31.020,-0.07,-0.06
13:32:31.024,-0.115,-0.055
13:32:31.028,-0.105,-0.07
13:32:31.032,-0.145,-0.05
13:32:31.036,-0.17,-0.08
13:32:31.040,-0.185,-0.06
13:32:31.044,-0.205,-0.065
13:32:31.048,-0.245,-0.065
13:32:31.052,-0.265,-0.075
13:32:31.056,-0.25,-0.06
13:32:31.060,-0.28,-0.05
13:32:31.064,-0.255,-0.04
13:32:31.068,-0.275,-0.04
13:32:31.072,-0.285,-0.06
13:32:31.076,-0.305,-0.05
13:32:31.080,-0.31,-0.035
13:32:31.084,-0.275,-0.025
13:32:31.088,-0.26,0.01
13:32:31.092,-0.255,-0.005
13:32:31.096,-0.24,-0.005
13:32:31.100,-0.19,0.05
13:32:31.104,-0.15,0.04
13:32:31.108,-0.135,0.07
13:32:31.112,-0.135,0.04
13:32:31.116,-0.11,0.035
13:32:31.120,-0.105,0.01
13:32:31.124,-0.11,0.015
13:32:31.128,-0.1,-0.03
13:32:31.132,-0.105,-0.045
13:32:31.136,-0.115,-0.05
13:32:31.140,-0.125,-0.045
13:32:31.144,-0.115,-0.035
13:32:31.148,-0.13,0.0
13:32:31.152,-0.125,-0.02
13:32:31.156,-0.13,-0.025
13:32:31.160,-0.12,-0.03
13:32:31.164,-0.115,-0.02
13:32:31.168,-0.125,0.0
13:32:31.172,-0.11,-0.03
13:32:31.176,-0.12,-0.03
13:32:31.180,-0.13,-0.035
13:32:31.184,-0.135,-0.04
13:32:31.188,-0.125,-0.035
13:32:31.192,-0.135,-0.025
13:32:31.196,-0.135,-0.035
13:32:31.200,-0.15,-0.035
13:32:31.204,-0.14,-0.035
13:32:31.208,-0.14,-0.005
13:32:31.212,-0.16,-0.02
13:32:31.216,-0.15,-0.035
13:32:31.220,-0.185,-0.025
13:32:31.224,-0.17,-0.025
13:32:31.228,-0.165,-0.025
13:32:31.232,-0.165,-0.045
13:32:31.236,-0.195,-0.035
13:32:31.240,-0.2,-0.03
13:32:31.244,-0.235,-0.03
13:32:31.248,-0.255,-0.055
13:32:31.252,-0.24,-0.065
13:32:31.256,-0.265,-0.05
13:32:31.260,-0.255,-0.055
13:32:31.264,-0.255,-0.06
13:32:31.268,-0.29,-0.045
13:32:31.272,-0.295,-0.045
13:32:31.276,-0.3,-0.065
13:32:31.280,-0.315,-0.085
13:32:31.284,-0.295,-0.04
13:32:31.288,-0.305,-0.085
13:32:31.292,-0.32,-0.055
13:32:31.296,-0.315,-0.065
13:32:31.300,-0.34,-0.055
13:32:31.304,-0.35,-0.015
13:32:31.308,-0.355,-0.03
13:32:31.312,-0.33,-0.04
13:32:31.316,-0.32,-0.06
13:32:31.320,-0.295,-0.045
13:32:31.324,-0.23,-0.01
13:32:31.328,-0.165,0.03
13:32:31.332,-0.115,0.045
13:32:31.336,-0.105,0.015
13:32:31.340,-0.105,-0.015
13:32:31.344,-0.11,-0.005
13:32:31.348,-0.085,-0.02
13:32:31.352,-0.11,-0.045
13:32:31.356,-0.11,-0.06
13:32:31.360,-0.12,-0.055
13:32:31.364,-0.11,-0.03
13:32:31.368,-0.135,-0.03
13:32:31.372,-0.125,-0.06
13:32:31.376,-0.135,-0.05
13:32:31.380,-0.135,-0.06
13:32:31.384,-0.145,-0.055
13:32:31.388,-0.15,-0.04
13:32:31.392,-0.135,-0.055
13:32:31.396,-0.14,-0.03
13:32:31.400,-0.165,-0.045
13:32:31.404,-0.14,-0.055
13:32:31.408,-0.145,-0.06
13:32:31.412,-0.175,-0.055
13:32:31.416,-0.16,-0.05
13:32:31.420,-0.145,-0.04
13:32:31.424,-0.17,-0.06
13:32:31.428,-0.195,-0.05
13:32:31.432,-0.18,-0.045
13:32:31.436,-0.195,-0.075
13:32:31.440,-0.205,-0.05
13:32:31.444,-0.185,-0.04
13:32:31.448,-0.215,-0.065
13:32:31.452,-0.195,-0.08
13:32:31.456,-0.22,-0.075
13:32:31.460,-0.215,-0.08
13:32:31.464,-0.23,-0.075
13:32:31.468,-0.22,-0.085
13:32:31.472,-0.245,-0.09
13:32:31.476,-0.255,-0.105
13:32:31.480,-0.275,-0.095
13:32:31.484,-0.285,-0.09
13:32:31.488,-0.275,-0.09
13:32:31.492,-0.3,-0.095
13:32:31.496,-0.325,-0.07
13:32:31.500,-0.31,-0.09
13:32:31.504,-0.33,-0.095
13:32:31.508,-0.34,-0.08
13:32:31.512,-0.325,-0.095
13:32:31.516,-0.33,-0.1
13:32:31.520,-0.36,-0.09
13:32:31.524,-0.36,-0.07
13:32:31.528,-0.39,-0.105
13:32:31.532,-0.4,-0.085
13:32:31.536,-0.415,-0.105
13:32:31.540,-0.395,-0.08
13:32:31.544,-0.395,-0.095
13:32:31.548,-0.355,-0.085
13:32:31.552,-0.375,-0.065
13:32:31.556,-0.33,-0.025
13:32:31.560,-0.315,-0.035
13:32:31.564,-0.265,-0.055
13:32:31.568,-0.18,-0.16
13:32:31.572,0.0,-0.265
13:32:31.576,0.31,-0.39
13:32:31.580,0.625,-0.535
13:32:31.584,0.925,-0.6
13:32:31.588,1.16,-0.45
13:32:31.592,1.02,-0.13
13:32:31.596,0.48,0.225
13:32:31.600,-0.22,0.51
13:32:31.604,-0.83,0.555
13:32:31.608,-1.055,0.305
13:32:31.612,-0.955,0.0
13:32:31.616,-0.735,-0.22
13:32:31.620,-0.485,-0.285
13:32:31.624,-0.335,-0.285
13:32:31.628,-0.27,-0.265
13:32:31.632,-0.23,-0.21
13:32:31.636,-0.215,-0.12
13:32:31.640,-0.225,-0.075
13:32:31.644,-0.22,-0.065
13:32:31.648,-0.215,-0.08
13:32:31.652,-0.22,-0.085
13:32:31.656,-0.22,-0.05
13:32:31.660,-0.225,-0.08
13:32:31.664,-0.22,-0.065
13:32:31.668,-0.23,-0.055
13:32:31.672,-0.205,-0.04
13:32:31.676,-0.23,-0.075
13:32:31.680,-0.22,-0.075
13:32:31.684,-0.23,-0.065
13:32:31.688,-0.26,-0.075
13:32:31.692,-0.235,-0.08
13:32:31.696,-0.24,-0.075
13:32:31.700,-0.25,-0.08
13:32:31.704,-0.26,-0.075
13:32:31.708,-0.27,-0.095
13:32:31.712,-0.28,-0.07
13:32:31.716,-0.28,-0.075
13:32:31.720,-0.29,-0.08
13:32:31.724,-0.295,-0.085
13:32:31.728,-0.305,-0.045
13:32:31.732,-0.285,-0.085
13:32:31.736,-0.31,-0.095
13:32:31.740,-0.3,-0.07
13:32:31.744,-0.295,-0.065
13:32:31.748,-0.29,-0.07
13:32:31.752,-0.285,-0.08
13:32:31.756,-0.28,-0.05
13:32:31.760,-0.25,-0.05
13:32:31.764,-0.245,-0.05
13:32:31.768,-0.22,-0.07
13:32:31.772,-0.17,-0.05
13:32:31.776,-0.135,-0.035
13:32:31.780,-0.065,-0.04
13:32:31.784,0.0,0.005
13:32:31.788,0.1,0.0
13:32:31.792,0.12,-0.025
13:32:31.796,0.155,-0.035
13:32:31.800,0.175,-0.055
13:32:31.804,0.205,-0.07
13:32:31.808,0.21,-0.075
13:32:31.812,0.245,-0.09
13:32:31.816,0.245,-0.11
13:32:31.820,0.22,-0.125
13:32:31.824,0.265,-0.1
13:32:31.828,0.25,-0.12
13:32:31.832,0.235,-0.095
13:32:31.836,0.22,-0.11
13:32:31.840,0.205,-0.11
13:32:31.844,0.2,-0.095
13:32:31.848,0.185,-0.115
13:32:31.852,0.16,-0.115
13:32:31.856,0.125,-0.1
13:32:31.860,0.115,-0.1
13:32:31.864,0.095,-0.105
13:32:31.868,0.055,-0.105
13:32:31.872,0.04,-0.105
13:32:31.876,0.015,-0.095
13:32:31.880,-0.005,-0.08
13:32:31.884,-0.04,-0.095
13:32:31.888,-0.07,-0.07
13:32:31.892,-0.075,-0.085
13:32:31.896,-0.095,-0.1
13:32:31.900,-0.1,-0.075
13:32:31.904,-0.125,-0.06
13:32:31.908,-0.145,-0.09
13:32:31.912,-0.155,-0.07
13:32:31.916,-0.185,-0.07
13:32:31.920,-0.18,-0.08
13:32:31.924,-0.215,-0.06
13:32:31.928,-0.22,-0.09
13:32:31.932,-0.25,-0.07
13:32:31.936,-0.27,-0.07
13:32:31.940,-0.265,-0.08
13:32:31.944,-0.285,-0.095
13:32:31.948,-0.3,-0.095
13:32:31.952,-0.315,-0.075
13:32:31.956,-0.315,-0.06
13:32:31.960,-0.325,-0.075
13:32:31.964,-0.33,-0.065
13:32:31.968,-0.335,-0.075
13:32:31.972,-0.335,-0.055
13:32:31.976,-0.345,-0.065
13:32:31.980,-0.345,-0.05
13:32:31.984,-0.365,-0.035
13:32:31.988,-0.355,-0.07
13:32:31.992,-0.36,-0.065
13:32:31.996,-0.355,-0.05
13:32:32.000,-0.315,-0.045
13:32:32.004,-0.3,-0.01
13:32:32.008,-0.27,0.0
13:32:32.012,-0.26,0.015
13:32:32.016,-0.22,0.015
13:32:32.020,-0.16,0.065
13:32:32.024,-0.125,0.03
13:32:32.028,-0.105,0.035
13:32:32.032,-0.12,0.015
13:32:32.036,-0.135,0.005
13:32:32.040,-0.14,-0.025
13:32:32.044,-0.13,-0.05
13:32:32.048,-0.115,-0.06
13:32:32.052,-0.115,-0.04
13:32:32.056,-0.115,-0.05
13:32:32.060,-0.09,-0.045
13:32:32.064,-0.1,-0.035
13:32:32.068,-0.115,-0.015
13:32:32.072,-0.105,-0.045
13:32:32.076,-0.125,-0.045
13:32:32.080,-0.135,-0.025
13:32:32.084,-0.135,-0.05
13:32:32.088,-0.135,-0.03
13:32:32.092,-0.14,-0.06
13:32:32.096,-0.135,-0.045
13:32:32.100,-0.17,-0.05
13:32:32.104,-0.2,-0.055
13:32:32.108,-0.26,-0.08
13:32:32.112,-0.295,-0.09
13:32:32.116,-0.335,-0.105
13:32:32.120,-0.345,-0.115
13:32:32.124,-0.24,-0.18
13:32:32.128,0.005,-0.285
13:32:32.132,0.345,-0.375
13:32:32.136,0.705,-0.475
13:32:32.140,0.995,-0.435
13:32:32.144,1.045,-0.21
13:32:32.148,0.695,0.2
13:32:32.152,0.05,0.58
13:32:32.156,-0.55,0.745
13:32:32.160,-0.96,0.575
13:32:32.164,-1.005,0.185
13:32:32.168,-0.865,-0.14
13:32:32.172,-0.665,-0.27
13:32:32.176,-0.505,-0.29
13:32:32.180,-0.4,-0.27
13:32:32.184,-0.34,-0.23
13:32:32.188,-0.31,-0.135
13:32:32.192,-0.33,-0.09
13:32:32.196,-0.345,-0.06
13:32:32.200,-0.34,-0.06
13:32:32.204,-0.35,-0.06
13:32:32.208,-0.335,-0.06
13:32:32.212,-0.33,-0.055
13:32:32.216,-0.345,-0.07
13:32:32.220,-0.34,-0.04
13:32:32.224,-0.35,-0.04
13:32:32.228,-0.37,-0.015
13:32:32.232,-0.36,-0.04
13:32:32.236,-0.36,-0.03
13:32:32.240,-0.33,-0.05
13:32:32.244,-0.3,-0.03
13:32:32.248,-0.23,-0.025
13:32:32.252,-0.165,0.025
13:32:32.256,-0.13,0.065
13:32:32.260,-0.115,0.02
13:32:32.264,-0.1,0.01
13:32:32.268,-0.1,-0.025
13:32:32.272,-0.11,-0.025
13:32:32.276,-0.095,-0.02
13:32:32.280,-0.075,-0.045
13:32:32.284,-0.065,-0.06
13:32:32.288,-0.11,0.0
13:32:32.292,-0.05,-0.01
13:32:32.296,-0.05,-0.065
13:32:32.300,-0.045,-0.035
13:32:32.304,-0.04,-0.045
13:32:32.308,-0.035,-0.04
13:32:32.312,-0.03,-0.035
13:32:32.316,0.005,-0.05
13:32:32.320,0.015,-0.045
13:32:32.324,0.035,-0.035
13:32:32.328,0.045,-0.05
13:32:32.332,0.065,-0.06
13:32:32.336,0.07,-0.08
13:32:32.340,0.115,-0.075
13:32:32.344,0.115,-0.065
13:32:32.348,0.125,-0.075
13:32:32.352,0.135,-0.105
13:32:32.356,0.155,-0.095
13:32:32.360,0.14,-0.095
13:32:32.364,0.135,-0.095
13:32:32.368,0.14,-0.105
13:32:32.372,0.145,-0.1
13:32:32.376,0.14,-0.115
13:32:32.380,0.135,-0.12
13:32:32.384,0.12,-0.125
13:32:32.388,0.1,-0.11
13:32:32.392,0.075,-0.08
13:32:32.396,0.05,-0.1
13:32:32.400,0.005,-0.13
13:32:32.404,-0.025,-0.105
13:32:32.408,-0.065,-0.115
13:32:32.412,-0.08,-0.14
13:32:32.416,-0.125,-0.1
13:32:32.420,-0.155,-0.085
13:32:32.424,-0.175,-0.11
13:32:32.428,-0.205,-0.085
13:32:32.432,-0.225,-0.08
13:32:32.436,-0.245,-0.095
13:32:32.440,-0.29,-0.075
13:32:32.444,-0.305,-0.09
13:32:32.448,-0.315,-0.11
13:32:32.452,-0.32,-0.1
13:32:32.456,-0.36,-0.09
13:32:32.460,-0.37,-0.1
13:32:32.464,-0.37,-0.06
13:32:32.468,-0.37,-0.095
13:32:32.472,-0.345,-0.1
13:32:32.476,-0.325,-0.075
13:32:32.480,-0.32,-0.05
13:32:32.484,-0.31,-0.055
13:32:32.488,-0.28,0.005
13:32:32.492,-0.23,-0.015
13:32:32.496,-0.195,0.01
13:32:32.500,-0.175,-0.025
13:32:32.504,-0.18,0.005
13:32:32.508,-0.16,-0.05
13:32:32.512,-0.165,-0.04
13:32:32.516,-0.14,-0.085
13:32:32.520,-0.16,-0.09
13:32:32.524,-0.16,-0.1
13:32:32.528,-0.15,-0.1
13:32:32.532,-0.15,-0.11
13:32:32.536,-0.14,-0.1
13:32:32.540,-0.15,-0.095
13:32:32.544,-0.15,-0.095
13:32:32.548,-0.175,-0.095
13:32:32.552,-0.17,-0.08
13:32:32.556,-0.18,-0.095
13:32:32.560,-0.175,-0.075
13:32:32.564,-0.175,-0.1
13:32:32.568,-0.17,-0.095
13:32:32.572,-0.16,-0.105
13:32:32.576,-0.19,-0.095
13:32:32.580,-0.185,-0.105
13:32:32.584,-0.205,-0.08
13:32:32.588,-0.25,-0.09
13:32:32.592,-0.295,-0.085
13:32:32.596,-0.355,-0.095
13:32:32.600,-0.36,-0.105
13:32:32.604,-0.345,-0.15
13:32:32.608,-0.285,-0.215
13:32:32.612,-0.13,-0.37
13:32:32.616,0.105,-0.495
13:32:32.620,0.35,-0.66
13:32:32.624,0.64,-0.74
13:32:32.628,0.75,-0.635
13:32:32.632,0.575,-0.3
13:32:32.636,0.115,0.095
13:32:32.640,-0.435,0.415
13:32:32.644,-0.885,0.585
13:32:32.648,-1.09,0.46
13:32:32.652,-1.08,0.055
13:32:32.656,-0.92,-0.225
13:32:32.660,-0.72,-0.335
13:32:32.664,-0.575,-0.295
13:32:32.668,-0.48,-0.28
13:32:32.672,-0.43,-0.235
13:32:32.676,-0.42,-0.14
13:32:32.680,-0.425,-0.105
13:32:32.684,-0.415,-0.07
13:32:32.688,-0.43,-0.055
13:32:32.692,-0.42,-0.075
13:32:32.696,-0.42,-0.065
13:32:32.700,-0.425,-0.06
13:32:32.704,-0.435,-0.03
13:32:32.708,-0.43,-0.05
13:32:32.712,-0.415,-0.045
13:32:32.716,-0.41,-0.055
13:32:32.720,-0.385,-0.03
13:32:32.724,-0.34,-0.02
13:32:32.728,-0.29,0.01
13:32:32.732,-0.24,0.03
13:32:32.736,-0.21,0.04
13:32:32.740,-0.17,0.01
13:32:32.744,-0.18,0.015
13:32:32.748,-0.185,-0.01
13:32:32.752,-0.185,-0.005
13:32:32.756,-0.16,-0.03
13:32:32.760,-0.185,-0.015
13:32:32.764,-0.14,-0.04
13:32:32.768,-0.14,-0.04
13:32:32.772,-0.14,-0.025
13:32:32.776,-0.13,0.0
13:32:32.780,-0.13,-0.025
13:32:32.784,-0.11,0.0
13:32:32.788,-0.1,-0.02
13:32:32.792,-0.105,-0.015
13:32:32.796,-0.085,0.0
13:32:32.800,-0.085,-0.015
13:32:32.804,-0.07,-0.005
13:32:32.808,-0.05,-0.015
13:32:32.812,-0.04,0.005
13:32:32.816,-0.02,-0.02
13:32:32.820,-0.025,0.015
13:32:32.824,-0.005,-0.01
13:32:32.828,-0.005,-0.03
13:32:32.832,0.0,-0.03
13:32:32.836,0.005,-0.035
13:32:32.840,0.005,-0.035
13:32:32.844,0.015,-0.01
13:32:32.848,0.0,-0.04
13:32:32.852,0.0,-0.05
13:32:32.856,-0.015,-0.06
13:32:32.860,-0.03,-0.03
13:32:32.864,-0.055,-0.07
13:32:32.868,-0.07,-0.065
13:32:32.872,-0.09,-0.1
13:32:32.876,-0.095,-0.095
13:32:32.880,-0.125,-0.08
13:32:32.884,-0.145,-0.09
13:32:32.888,-0.17,-0.11
13:32:32.892,-0.18,-0.08
13:32:32.896,-0.2,-0.12
13:32:32.900,-0.235,-0.095
13:32:32.904,-0.26,-0.105
13:32:32.908,-0.27,-0.12
13:32:32.912,-0.295,-0.07
13:32:32.916,-0.33,-0.09
13:32:32.920,-0.34,-0.105
13:32:32.924,-0.345,-0.105
13:32:32.928,-0.355,-0.07
13:32:32.932,-0.375,-0.05
13:32:32.936,-0.385,-0.08
13:32:32.940,-0.39,-0.07
13:32:32.944,-0.395,-0.08
13:32:32.948,-0.415,-0.07
13:32:32.952,-0.39,-0.055
13:32:32.956,-0.375,-0.06
13:32:32.960,-0.35,-0.03
13:32:32.964,-0.33,-0.01
13:32:32.968,-0.31,-0.01
13:32:32.972,-0.285,-0.005
13:32:32.976,-0.235,0.01
13:32:32.980,-0.205,0.005
13:32:32.984,-0.195,0.02
13:32:32.988,-0.2,0.0
13:32:32.992,-0.195,-0.03
13:32:32.996,-0.175,-0.025
13:32:33.000,-0.175,-0.035
13:32:33.004,-0.17,-0.07
13:32:33.008,-0.2,-0.07
13:32:33.012,-0.18,-0.055
13:32:33.016,-0.185,-0.085
13:32:33.020,-0.19,-0.045
13:32:33.024,-0.185,-0.05
13:32:33.028,-0.16,-0.04
13:32:33.032,-0.15,-0.025
13:32:33.036,-0.165,-0.025
13:32:33.040,-0.155,-0.065
13:32:33.044,-0.17,-0.045
13:32:33.048,-0.16,-0.06
13:32:33.052,-0.175,-0.05
13:32:33.056,-0.165,-0.045
13:32:33.060,-0.18,-0.065
13:32:33.064,-0.175,-0.06
13:32:33.068,-0.2,-0.055
13:32:33.072,-0.27,-0.08
13:32:33.076,-0.345,-0.1
13:32:33.080,-0.4,-0.1
13:32:33.084,-0.43,-0.08
13:32:33.088,-0.395,-0.145
13:32:33.092,-0.26,-0.19
13:32:33.096,0.055,-0.295
13:32:33.100,0.455,-0.365
13:32:33.104,0.835,-0.43
13:32:33.108,1.11,-0.365
13:32:33.112,1.16,-0.115
13:32:33.116,0.78,0.25
13:32:33.120,0.13,0.525
13:32:33.124,-0.51,0.695
13:32:33.128,-0.94,0.63
13:32:33.132,-1.05,0.25
13:32:33.136,-0.94,-0.135
13:32:33.140,-0.78,-0.315
13:32:33.144,-0.6,-0.36
13:32:33.148,-0.485,-0.32
13:32:33.152,-0.42,-0.26
13:32:33.156,-0.4,-0.165
13:32:33.160,-0.395,-0.1
13:32:33.164,-0.435,-0.08
13:32:33.168,-0.405,-0.085
13:32:33.172,-0.41,-0.065
13:32:33.176,-0.415,-0.065
13:32:33.180,-0.415,-0.045
13:32:33.184,-0.425,-0.07
13:32:33.188,-0.43,-0.045
13:32:33.192,-0.44,-0.045
13:32:33.196,-0.42,-0.07
13:32:33.200,-0.395,-0.04
13:32:33.204,-0.395,-0.02
13:32:33.208,-0.375,-0.02
13:32:33.212,-0.31,0.0
13:32:33.216,-0.265,0.0
13:32:33.220,-0.225,0.035
13:32:33.224,-0.205,0.06
13:32:33.228,-0.18,0.02
13:32:33.232,-0.18,-0.02
13:32:33.236,-0.205,-0.005
13:32:33.240,-0.175,-0.035
13:32:33.244,-0.15,-0.04
13:32:33.248,-0.17,-0.04
13:32:33.252,-0.14,-0.06
13:32:33.256,-0.15,-0.04
13:32:33.260,-0.125,-0.06
13:32:33.264,-0.12,-0.065
13:32:33.268,-0.135,-0.06
13:32:33.272,-0.1,-0.025
13:32:33.276,-0.1,-0.065
13:32:33.280,-0.08,-0.06
13:32:33.284,-0.055,-0.06
13:32:33.288,-0.04,-0.08
13:32:33.292,-0.02,-0.09
13:32:33.296,-0.03,-0.055
13:32:33.300,-0.005,-0.07
13:32:33.304,0.015,-0.06
13:32:33.308,0.005,-0.11
13:32:33.312,0.015,-0.115
13:32:33.316,0.02,-0.12
13:32:33.320,0.02,-0.105
13:32:33.324,0.04,-0.125
13:32:33.328,0.035,-0.12
13:32:33.332,0.035,-0.12
13:32:33.336,0.01,-0.125
13:32:33.340,0.005,-0.12
13:32:33.344,0.005,-0.12
13:32:33.348,0.0,-0.135
13:32:33.352,-0.01,-0.125
13:32:33.356,-0.015,-0.13
13:32:33.360,-0.045,-0.13
13:32:33.364,-0.05,-0.09
13:32:33.368,-0.11,-0.115
13:32:33.372,-0.135,-0.105
13:32:33.376,-0.17,-0.1
13:32:33.380,-0.17,-0.13
13:32:33.384,-0.21,-0.11
13:32:33.388,-0.25,-0.08
13:32:33.392,-0.26,-0.11
13:32:33.396,-0.28,-0.095
13:32:33.400,-0.32,-0.09
13:32:33.404,-0.33,-0.095
13:32:33.408,-0.335,-0.11
13:32:33.412,-0.315,-0.08
13:32:33.416,-0.35,-0.095
13:32:33.420,-0.375,-0.08
13:32:33.424,-0.39,-0.075
13:32:33.428,-0.41,-0.075
13:32:33.432,-0.395,-0.08
13:32:33.436,-0.4,-0.085
13:32:33.440,-0.375,-0.09
13:32:33.444,-0.35,-0.06
13:32:33.448,-0.33,-0.045
13:32:33.452,-0.315,-0.02
13:32:33.456,-0.3,-0.02
13:32:33.460,-0.235,0.0
13:32:33.464,-0.205,-0.005
13:32:33.468,-0.195,0.0
13:32:33.472,-0.195,-0.03
13:32:33.476,-0.19,-0.05
13:32:33.480,-0.2,-0.055
13:32:33.484,-0.21,-0.06
13:32:33.488,-0.165,-0.09
13:32:33.492,-0.175,-0.085
13:32:33.496,-0.18,-0.125
13:32:33.500,-0.165,-0.105
13:32:33.504,-0.175,-0.1
13:32:33.508,-0.15,-0.08
13:32:33.512,-0.155,-0.105
13:32:33.516,-0.16,-0.1
