Time,ECG1,ECG2
09:02:00.172,0.09,-0.185
09:02:00.176,0.085,-0.16
09:02:00.180,0.075,-0.17
09:02:00.184,0.05,-0.165
09:02:00.188,0.03,-0.165
09:02:00.192,0.02,-0.155
09:02:00.196,0.01,-0.155
09:02:00.200,0.03,-0.16
09:02:00.204,0.035,-0.195
09:02:00.208,0.07,-0.185
09:02:00.212,0.06,-0.195
09:02:00.216,0.05,-0.195
09:02:00.220,0.04,-0.18
09:02:00.224,0.06,-0.175
09:02:00.228,0.065,-0.2
09:02:00.232,0.04,-0.2
09:02:00.236,0.03,-0.215
09:02:00.240,0.02,-0.225
09:02:00.244,0.03,-0.22
09:02:00.248,0.025,-0.215
09:02:00.252,0.015,-0.205
09:02:00.256,0.03,-0.19
09:02:00.260,0.025,-0.2
09:02:00.264,0.02,-0.2
09:02:00.268,0.035,-0.215
09:02:00.272,0.055,-0.22
09:02:00.276,0.085,-0.215
09:02:00.280,0.05,-0.205
09:02:00.284,0.0,-0.205
09:02:00.288,-0.02,-0.195
09:02:00.292,0.0,-0.19
09:02:00.296,0.025,-0.18
09:02:00.300,0.025,-0.175
09:02:00.304,0.015,-0.16
09:02:00.308,0.015,-0.175
09:02:00.312,0.02,-0.155
09:02:00.316,0.01,-0.16
09:02:00.320,0.01,-0.15
09:02:00.324,0.0,-0.16
09:02:00.328,0.015,-0.135
09:02:00.332,0.02,-0.135
09:02:00.336,0.01,-0.14
09:02:00.340,0.0,-0.155
09:02:00.344,0.015,-0.155
09:02:00.348,0.0,-0.16
09:02:00.352,0.035,-0.17
09:02:00.356,0.015,-0.16
09:02:00.360,0.025,-0.16
09:02:00.364,0.02,-0.15
09:02:00.368,0.01,-0.155
09:02:00.372,0.02,-0.14
09:02:00.376,0.01,-0.165
09:02:00.380,0.0,-0.145
09:02:00.384,-0.025,-0.155
09:02:00.388,0.005,-0.15
09:02:00.392,0.005,-0.15
09:02:00.396,0.03,-0.15
09:02:00.400,0.015,-0.155
09:02:00.404,0.0,-0.145
09:02:00.408,-0.005,-0.15
09:02:00.412,-0.025,-0.135
09:02:00.416,-0.045,-0.14
09:02:00.420,-0.045,-0.14
09:02:00.424,-0.04,-0.17
09:02:00.428,-0.035,-0.18
09:02:00.432,-0.01,-0.19
09:02:00.436,0.0,-0.195
09:02:00.440,-0.02,-0.19
09:02:00.444,0.0,-0.18
09:02:00.448,-0.01,-0.18
09:02:00.452,0.0,-0.165
09:02:00.456,0.0,-0.165
09:02:00.460,-0.005,-0.16
09:02:00.464,-0.025,-0.175
09:02:00.468,-0.035,-0.16
09:02:00.472,-0.02,-0.155
09:02:00.476,-0.025,-0.175
09:02:00.480,-0.035,-0.15
09:02:00.484,-0.04,-0.145
09:02:00.488,-0.045,-0.145
09:02:00.492,-0.015,-0.16
09:02:00.496,0.005,-0.155
09:02:00.500,0.0,-0.16
09:02:00.504,0.0,-0.16
09:02:00.508,0.005,-0.155
09:02:00.512,0.005,-0.155
09:02:00.516,0.01,-0.155
09:02:00.520,-0.025,-0.155
09:02:00.524,-0.055,-0.165
09:02:00.528,-0.06,-0.16
09:02:00.532,-0.045,-0.17
09:02:00.536,-0.035,-0.18
09:02:00.540,-0.045,-0.165
09:02:00.544,-0.055,-0.16
09:02:00.548,-0.04,-0.17
09:02:00.552,-0.01,-0.16
09:02:00.556,-0.04,-0.15
09:02:00.560,-0.04,-0.125
09:02:00.564,-0.045,-0.1
09:02:00.568,-0.015,-0.07
09:02:00.572,-0.045,-0.06
09:02:00.576,-0.07,-0.065
09:02:00.580,-0.08,-0.055
09:02:00.584,-0.07,-0.1
09:02:00.588,-0.02,-0.1
09:02:00.592,-0.005,-0.07
09:02:00.596,-0.025,-0.04
09:02:00.600,-0.1,-0.035
09:02:00.604,-0.225,-0.03
09:02:00.608,-0.35,-0.015
09:02:00.612,-0.39,0.005
09:02:00.616,-0.405,0.015
09:02:00.620,-0.365,0.0
09:02:00.624,-0.295,-0.05
09:02:00.628,-0.245,-0.105
09:02:00.632,-0.195,-0.14
09:02:00.636,-0.15,-0.115
09:02:00.640,-0.105,-0.095
09:02:00.644,-0.01,-0.125
09:02:00.648,-0.02,-0.2
09:02:00.652,-0.07,-0.235
09:02:00.656,-0.135,-0.24
09:02:00.660,-0.1,-0.22
09:02:00.664,-0.095,-0.235
09:02:00.668,-0.1,-0.225
09:02:00.672,-0.065,-0.22
09:02:00.676,-0.05,-0.22
09:02:00.680,-0.05,-0.23
09:02:00.684,-0.045,-0.225
09:02:00.688,-0.065,-0.22
09:02:00.692,-0.055,-0.22
09:02:00.696,-0.07,-0.21
09:02:00.700,-0.045,-0.215
09:02:00.704,-0.015,-0.21
09:02:00.708,0.035,-0.195
09:02:00.712,0.025,-0.185
09:02:00.716,-0.05,-0.175
09:02:00.720,-0.085,-0.185
09:02:00.724,-0.1,-0.17
09:02:00.728,-0.065,-0.175
09:02:00.732,-0.035,-0.175
09:02:00.736,-0.02,-0.185
09:02:00.740,-0.055,-0.16
09:02:00.744,-0.08,-0.185
09:02:00.748,-0.1,-0.185
09:02:00.752,-0.075,-0.19
09:02:00.756,-0.075,-0.195
09:02:00.760,-0.05,-0.2
09:02:00.764,-0.065,-0.175
09:02:00.768,-0.04,-0.19
09:02:00.772,-0.05,-0.175
09:02:00.776,-0.04,-0.18
09:02:00.780,-0.02,-0.195
09:02:00.784,-0.04,-0.2
09:02:00.788,-0.015,-0.2
09:02:00.792,-0.01,-0.19
09:02:00.796,0.025,-0.18
09:02:00.800,0.06,-0.155
09:02:00.804,0.07,-0.15
09:02:00.808,-0.025,-0.17
09:02:00.812,-0.11,-0.185
09:02:00.816,-0.125,-0.2
09:02:00.820,-0.07,-0.215
09:02:00.824,-0.015,-0.23
09:02:00.828,0.005,-0.21
09:02:00.832,0.005,-0.185
09:02:00.836,0.025,-0.175
09:02:00.840,0.0,-0.17
09:02:00.844,-0.055,-0.165
09:02:00.848,-0.11,-0.16
09:02:00.852,-0.105,-0.15
09:02:00.856,-0.075,-0.155
09:02:00.860,-0.05,-0.14
09:02:00.864,-0.065,-0.135
09:02:00.868,-0.065,-0.125
09:02:00.872,-0.06,-0.13
09:02:00.876,-0.05,-0.14
09:02:00.880,-0.03,-0.12
09:02:00.884,-0.04,-0.13
09:02:00.888,-0.035,-0.125
09:02:00.892,-0.035,-0.12
09:02:00.896,-0.025,-0.1
09:02:00.900,-0.01,-0.095
09:02:00.904,0.0,-0.1
09:02:00.908,-0.015,-0.12
09:02:00.912,-0.005,-0.155
09:02:00.916,-0.005,-0.18
09:02:00.920,0.01,-0.175
09:02:00.924,0.015,-0.17
09:02:00.928,0.02,-0.16
09:02:00.932,0.005,-0.165
09:02:00.936,0.0,-0.165
09:02:00.940,-0.015,-0.16
09:02:00.944,0.0,-0.155
09:02:00.948,-0.005,-0.175
09:02:00.952,0.015,-0.175
09:02:00.956,0.04,-0.185
09:02:00.960,0.08,-0.19
09:02:00.964,0.105,-0.185
09:02:00.968,0.085,-0.18
09:02:00.972,0.005,-0.155
09:02:00.976,-0.06,-0.17
09:02:00.980,-0.08,-0.17
09:02:00.984,-0.035,-0.175
09:02:00.988,-0.01,-0.175
09:02:00.992,-0.015,-0.17
09:02:00.996,0.0,-0.175
09:02:01.000,-0.01,-0.16
09:02:01.004,-0.005,-0.17
09:02:01.008,-0.015,-0.155
09:02:01.012,0.0,-0.15
09:02:01.016,-0.01,-0.155
09:02:01.020,0.0,-0.15
09:02:01.024,-0.01,-0.155
09:02:01.028,0.005,-0.14
09:02:01.032,0.005,-0.135
09:02:01.036,0.01,-0.14
09:02:01.040,0.005,-0.155
09:02:01.044,0.015,-0.16
09:02:01.048,0.02,-0.165
09:02:01.052,0.015,-0.165
09:02:01.056,0.025,-0.165
09:02:01.060,0.025,-0.175
09:02:01.064,0.02,-0.15
09:02:01.068,0.025,-0.145
09:02:01.072,0.03,-0.155
09:02:01.076,0.015,-0.14
09:02:01.080,0.015,-0.155
09:02:01.084,0.015,-0.165
09:02:01.088,0.01,-0.15
09:02:01.092,0.01,-0.16
09:02:01.096,0.015,-0.145
09:02:01.100,0.015,-0.16
09:02:01.104,0.015,-0.16
09:02:01.108,0.015,-0.165
09:02:01.112,0.03,-0.175
09:02:01.116,0.035,-0.16
09:02:01.120,0.03,-0.145
09:02:01.124,0.03,-0.15
09:02:01.128,0.035,-0.15
09:02:01.132,0.005,-0.13
09:02:01.136,0.01,-0.12
09:02:01.140,0.025,-0.08
09:02:01.144,0.005,-0.04
09:02:01.148,-0.025,-0.055
09:02:01.152,0.0,-0.1
09:02:01.156,0.015,-0.11
09:02:01.160,0.06,-0.105
09:02:01.164,0.055,-0.075
09:02:01.168,0.01,-0.05
09:02:01.172,-0.115,-0.04
09:02:01.176,-0.27,-0.02
09:02:01.180,-0.365,0.01
09:02:01.184,-0.36,0.03
09:02:01.188,-0.345,0.015
09:02:01.192,-0.275,-0.025
09:02:01.196,-0.195,-0.08
09:02:01.200,-0.12,-0.14
09:02:01.204,-0.075,-0.14
09:02:01.208,-0.06,-0.135
09:02:01.212,-0.04,-0.15
09:02:01.216,-0.015,-0.155
09:02:01.220,0.0,-0.19
09:02:01.224,0.035,-0.18
09:02:01.228,0.03,-0.165
09:02:01.232,0.065,-0.16
09:02:01.236,0.085,-0.185
09:02:01.240,0.11,-0.175
09:02:01.244,0.11,-0.18
09:02:01.248,0.045,-0.18
09:02:01.252,0.0,-0.185
09:02:01.256,-0.01,-0.18
09:02:01.260,0.015,-0.17
09:02:01.264,0.05,-0.185
09:02:01.268,0.08,-0.195
09:02:01.272,0.07,-0.195
09:02:01.276,0.055,-0.205
09:02:01.280,0.035,-0.195
09:02:01.284,0.03,-0.19
09:02:01.288,0.025,-0.19
09:02:01.292,0.04,-0.195
09:02:01.296,0.045,-0.2
09:02:01.300,0.045,-0.205
09:02:01.304,0.105,-0.2
09:02:01.308,0.12,-0.21
09:02:01.312,0.115,-0.205
09:02:01.316,0.03,-0.18
09:02:01.320,-0.04,-0.18
09:02:01.324,-0.03,-0.17
09:02:01.328,-0.01,-0.175
09:02:01.332,0.03,-0.205
09:02:01.336,0.05,-0.225
09:02:01.340,0.035,-0.245
09:02:01.344,0.01,-0.24
09:02:01.348,-0.005,-0.24
09:02:01.352,-0.015,-0.225
09:02:01.356,0.0,-0.215
09:02:01.360,0.02,-0.215
09:02:01.364,0.035,-0.205
09:02:01.368,0.03,-0.2
09:02:01.372,0.02,-0.195
09:02:01.376,0.0,-0.2
09:02:01.380,-0.01,-0.2
09:02:01.384,-0.005,-0.205
09:02:01.388,0.0,-0.195
09:02:01.392,0.01,-0.17
09:02:01.396,0.025,-0.2
09:02:01.400,0.06,-0.185
09:02:01.404,0.04,-0.175
09:02:01.408,0.05,-0.18
09:02:01.412,0.03,-0.18
09:02:01.416,0.015,-0.17
09:02:01.420,0.01,-0.17
09:02:01.424,0.01,-0.16
09:02:01.428,0.055,-0.155
09:02:01.432,0.075,-0.12
09:02:01.436,0.095,-0.12
09:02:01.440,0.065,-0.15
09:02:01.444,-0.005,-0.18
09:02:01.448,-0.04,-0.19
09:02:01.452,-0.01,-0.185
09:02:01.456,0.0,-0.17
09:02:01.460,0.0,-0.155
09:02:01.464,0.015,-0.14
09:02:01.468,0.03,-0.16
09:02:01.472,0.005,-0.18
09:02:01.476,0.005,-0.195
09:02:01.480,0.02,-0.175
09:02:01.484,0.0,-0.18
09:02:01.488,-0.03,-0.2
09:02:01.492,-0.075,-0.205
09:02:01.496,-0.06,-0.2
09:02:01.500,-0.05,-0.19
09:02:01.504,-0.03,-0.175
09:02:01.508,-0.02,-0.16
09:02:01.512,-0.015,-0.17
09:02:01.516,-0.01,-0.17
09:02:01.520,0.0,-0.165
09:02:01.524,0.0,-0.155
09:02:01.528,0.02,-0.16
09:02:01.532,0.01,-0.16
09:02:01.536,0.035,-0.16
09:02:01.540,0.035,-0.165
09:02:01.544,0.035,-0.17
09:02:01.548,0.025,-0.165
09:02:01.552,0.02,-0.16
09:02:01.556,0.015,-0.17
09:02:01.560,0.025,-0.165
09:02:01.564,0.015,-0.16
09:02:01.568,0.025,-0.155
09:02:01.572,0.03,-0.15
09:02:01.576,0.025,-0.165
09:02:01.580,0.015,-0.165
09:02:01.584,0.035,-0.17
09:02:01.588,0.03,-0.175
09:02:01.592,0.02,-0.18
09:02:01.596,0.035,-0.19
09:02:01.600,0.03,-0.19
09:02:01.604,0.025,-0.18
09:02:01.608,0.01,-0.19
09:02:01.612,0.01,-0.165
09:02:01.616,0.01,-0.165
09:02:01.620,0.01,-0.18
09:02:01.624,0.0,-0.17
09:02:01.628,0.005,-0.18
09:02:01.632,-0.02,-0.19
09:02:01.636,-0.025,-0.17
09:02:01.640,-0.005,-0.155
09:02:01.644,-0.015,-0.16
09:02:01.648,-0.01,-0.16
09:02:01.652,0.01,-0.16
09:02:01.656,0.0,-0.155
09:02:01.660,-0.005,-0.15
09:02:01.664,-0.025,-0.16
09:02:01.668,0.0,-0.15
09:02:01.672,0.015,-0.15
09:02:01.676,0.005,-0.15
09:02:01.680,0.015,-0.15
09:02:01.684,0.035,-0.145
09:02:01.688,0.035,-0.14
09:02:01.692,0.01,-0.135
09:02:01.696,-0.04,-0.12
09:02:01.700,-0.065,-0.13
09:02:01.704,-0.065,-0.13
09:02:01.708,-0.055,-0.155
09:02:01.712,-0.045,-0.165
09:02:01.716,-0.025,-0.16
09:02:01.720,-0.03,-0.175
09:02:01.724,-0.005,-0.165
09:02:01.728,0.0,-0.155
09:02:01.732,0.015,-0.135
09:02:01.736,0.01,-0.145
09:02:01.740,0.015,-0.16
09:02:01.744,0.01,-0.17
09:02:01.748,0.0,-0.165
09:02:01.752,-0.015,-0.16
09:02:01.756,-0.005,-0.165
09:02:01.760,0.0,-0.165
09:02:01.764,0.015,-0.17
09:02:01.768,0.005,-0.16
09:02:01.772,-0.02,-0.165
09:02:01.776,0.0,-0.16
09:02:01.780,0.005,-0.16
09:02:01.784,0.005,-0.15
09:02:01.788,0.01,-0.14
09:02:01.792,0.02,-0.11
09:02:01.796,0.02,-0.075
09:02:01.800,-0.005,-0.055
09:02:01.804,-0.015,-0.065
09:02:01.808,-0.015,-0.1
09:02:01.812,0.01,-0.12
09:02:01.816,0.05,-0.1
09:02:01.820,0.07,-0.08
09:02:01.824,0.025,-0.06
09:02:01.828,-0.09,-0.04
09:02:01.832,-0.245,-0.02
09:02:01.836,-0.34,0.005
09:02:01.840,-0.335,0.025
09:02:01.844,-0.32,0.025
09:02:01.848,-0.3,-0.01
09:02:01.852,-0.235,-0.045
09:02:01.856,-0.16,-0.095
09:02:01.860,-0.11,-0.14
09:02:01.864,-0.055,-0.145
09:02:01.868,-0.01,-0.165
09:02:01.872,-0.01,-0.18
09:02:01.876,0.01,-0.17
09:02:01.880,0.03,-0.165
09:02:01.884,0.115,-0.15
09:02:01.888,0.14,-0.14
09:02:01.892,0.095,-0.14
09:02:01.896,0.02,-0.15
09:02:01.900,0.015,-0.155
09:02:01.904,0.045,-0.16
09:02:01.908,0.05,-0.19
09:02:01.912,0.06,-0.175
09:02:01.916,0.05,-0.185
09:02:01.920,0.03,-0.185
09:02:01.924,0.03,-0.18
09:02:01.928,0.06,-0.19
09:02:01.932,0.065,-0.185
09:02:01.936,0.08,-0.17
09:02:01.940,0.07,-0.16
09:02:01.944,0.065,-0.17
09:02:01.948,0.065,-0.17
09:02:01.952,0.06,-0.18
09:02:01.956,0.05,-0.175
09:02:01.960,0.03,-0.18
09:02:01.964,0.06,-0.185
09:02:01.968,0.075,-0.195
09:02:01.972,0.07,-0.185
09:02:01.976,0.035,-0.175
09:02:01.980,0.02,-0.18
09:02:01.984,0.03,-0.2
09:02:01.988,0.025,-0.185
09:02:01.992,0.025,-0.175
09:02:01.996,0.06,-0.175
09:02:02.000,0.055,-0.185
09:02:02.004,0.07,-0.19
09:02:02.008,0.06,-0.185
09:02:02.012,0.02,-0.195
09:02:02.016,0.01,-0.19
09:02:02.020,0.03,-0.195
09:02:02.024,0.04,-0.18
09:02:02.028,0.025,-0.185
09:02:02.032,0.015,-0.18
09:02:02.036,0.015,-0.175
09:02:02.040,0.005,-0.175
09:02:02.044,0.005,-0.175
09:02:02.048,0.01,-0.185
09:02:02.052,0.03,-0.18
09:02:02.056,0.055,-0.185
09:02:02.060,0.045,-0.175
09:02:02.064,0.03,-0.17
09:02:02.068,0.03,-0.17
09:02:02.072,0.045,-0.165
09:02:02.076,0.045,-0.135
09:02:02.080,0.045,-0.135
09:02:02.084,0.045,-0.155
09:02:02.088,0.055,-0.15
09:02:02.092,0.075,-0.13
09:02:02.096,0.09,-0.145
09:02:02.100,0.05,-0.17
09:02:02.104,0.025,-0.175
09:02:02.108,0.03,-0.175
09:02:02.112,0.035,-0.165
09:02:02.116,0.045,-0.15
09:02:02.120,0.065,-0.16
09:02:02.124,0.045,-0.15
09:02:02.128,0.015,-0.145
09:02:02.132,0.0,-0.145
09:02:02.136,-0.02,-0.145
09:02:02.140,-0.04,-0.145
09:02:02.144,-0.035,-0.13
09:02:02.148,-0.02,-0.13
09:02:02.152,-0.015,-0.135
09:02:02.156,-0.01,-0.14
09:02:02.160,-0.04,-0.135
09:02:02.164,-0.02,-0.125
09:02:02.168,0.0,-0.135
09:02:02.172,0.035,-0.14
09:02:02.176,0.03,-0.145
09:02:02.180,0.01,-0.125
09:02:02.184,-0.02,-0.115
09:02:02.188,-0.015,-0.125
09:02:02.192,-0.01,-0.13
09:02:02.196,0.005,-0.155
09:02:02.200,0.01,-0.185
09:02:02.204,0.025,-0.185
09:02:02.208,0.035,-0.185
09:02:02.212,0.03,-0.175
09:02:02.216,0.04,-0.17
09:02:02.220,0.055,-0.17
09:02:02.224,0.03,-0.17
09:02:02.228,0.04,-0.18
09:02:02.232,0.07,-0.175
09:02:02.236,0.085,-0.165
09:02:02.240,0.035,-0.175
09:02:02.244,0.01,-0.165
09:02:02.248,0.015,-0.17
09:02:02.252,0.03,-0.17
09:02:02.256,0.015,-0.165
09:02:02.260,0.01,-0.175
09:02:02.264,0.0,-0.16
09:02:02.268,0.02,-0.155
09:02:02.272,0.005,-0.135
09:02:02.276,0.01,-0.13
09:02:02.280,0.035,-0.14
09:02:02.284,0.025,-0.15
09:02:02.288,0.04,-0.145
09:02:02.292,-0.005,-0.15
09:02:02.296,-0.04,-0.14
09:02:02.300,-0.02,-0.15
09:02:02.304,-0.02,-0.15
09:02:02.308,-0.02,-0.125
09:02:02.312,-0.005,-0.135
09:02:02.316,-0.01,-0.145
09:02:02.320,-0.01,-0.15
09:02:02.324,-0.01,-0.145
09:02:02.328,0.01,-0.14
09:02:02.332,0.0,-0.15
09:02:02.336,0.045,-0.135
09:02:02.340,0.065,-0.125
09:02:02.344,0.04,-0.13
09:02:02.348,0.0,-0.145
09:02:02.352,-0.045,-0.17
09:02:02.356,-0.075,-0.17
09:02:02.360,-0.07,-0.175
09:02:02.364,-0.03,-0.165
09:02:02.368,-0.02,-0.15
09:02:02.372,0.0,-0.1
09:02:02.376,-0.01,-0.07
09:02:02.380,-0.04,-0.045
09:02:02.384,-0.04,-0.07
09:02:02.388,-0.005,-0.11
09:02:02.392,0.025,-0.12
09:02:02.396,0.035,-0.09
09:02:02.400,0.03,-0.065
09:02:02.404,-0.06,-0.04
09:02:02.408,-0.195,-0.01
09:02:02.412,-0.33,-0.02
09:02:02.416,-0.4,-0.01
09:02:02.420,-0.37,-0.005
09:02:02.424,-0.32,-0.02
09:02:02.428,-0.27,-0.05
09:02:02.432,-0.23,-0.08
09:02:02.436,-0.16,-0.12
09:02:02.440,-0.16,-0.155
09:02:02.444,-0.1,-0.155
09:02:02.448,-0.09,-0.175
09:02:02.452,-0.075,-0.18
09:02:02.456,-0.055,-0.18
09:02:02.460,-0.03,-0.15
09:02:02.464,-0.03,-0.135
09:02:02.468,-0.015,-0.15
09:02:02.472,-0.02,-0.18
09:02:02.476,-0.005,-0.185
09:02:02.480,-0.005,-0.2
09:02:02.484,-0.035,-0.18
09:02:02.488,-0.015,-0.18
09:02:02.492,0.0,-0.195
09:02:02.496,-0.005,-0.2
09:02:02.500,0.005,-0.215
09:02:02.504,-0.03,-0.225
09:02:02.508,-0.04,-0.21
09:02:02.512,-0.02,-0.205
09:02:02.516,-0.005,-0.2
09:02:02.520,-0.01,-0.205
09:02:02.524,-0.005,-0.2
09:02:02.528,0.005,-0.195
09:02:02.532,-0.005,-0.19
09:02:02.536,-0.01,-0.185
09:02:02.540,0.0,-0.19
09:02:02.544,0.0,-0.2
09:02:02.548,0.025,-0.21
09:02:02.552,0.02,-0.185
09:02:02.556,0.02,-0.2
09:02:02.560,-0.01,-0.205
09:02:02.564,-0.005,-0.185
09:02:02.568,0.0,-0.18
09:02:02.572,0.005,-0.185
09:02:02.576,0.01,-0.19
09:02:02.580,0.0,-0.185
09:02:02.584,0.025,-0.18
09:02:02.588,0.05,-0.185
09:02:02.592,0.055,-0.19
09:02:02.596,0.025,-0.18
09:02:02.600,-0.03,-0.185
09:02:02.604,-0.08,-0.185
09:02:02.608,-0.08,-0.18
09:02:02.612,-0.06,-0.19
09:02:02.616,-0.025,-0.19
09:02:02.620,-0.02,-0.19
09:02:02.624,-0.05,-0.185
09:02:02.628,-0.095,-0.185
09:02:02.632,-0.09,-0.19
09:02:02.636,-0.06,-0.195
09:02:02.640,-0.025,-0.175
09:02:02.644,-0.005,-0.15
09:02:02.648,-0.05,-0.16
09:02:02.652,-0.08,-0.16
09:02:02.656,-0.105,-0.17
09:02:02.660,-0.085,-0.165
09:02:02.664,-0.08,-0.155
09:02:02.668,-0.045,-0.16
09:02:02.672,-0.05,-0.165
09:02:02.676,-0.07,-0.16
09:02:02.680,-0.075,-0.155
09:02:02.684,-0.06,-0.155
09:02:02.688,-0.055,-0.16
09:02:02.692,-0.065,-0.15
09:02:02.696,-0.04,-0.145
09:02:02.700,-0.055,-0.155
09:02:02.704,-0.04,-0.16
09:02:02.708,-0.045,-0.15
09:02:02.712,-0.02,-0.155
09:02:02.716,-0.02,-0.145
09:02:02.720,-0.055,-0.14
09:02:02.724,-0.05,-0.155
09:02:02.728,-0.04,-0.165
09:02:02.732,-0.04,-0.16
09:02:02.736,-0.02,-0.145
09:02:02.740,-0.04,-0.16
09:02:02.744,-0.055,-0.155
09:02:02.748,-0.035,-0.16
09:02:02.752,-0.045,-0.155
09:02:02.756,-0.035,-0.15
09:02:02.760,-0.03,-0.155
09:02:02.764,-0.03,-0.15
09:02:02.768,-0.04,-0.16
09:02:02.772,-0.05,-0.165
09:02:02.776,-0.045,-0.17
09:02:02.780,-0.045,-0.175
09:02:02.784,-0.04,-0.16
09:02:02.788,-0.07,-0.165
09:02:02.792,-0.075,-0.16
09:02:02.796,-0.07,-0.155
09:02:02.800,-0.065,-0.16
09:02:02.804,-0.055,-0.17
09:02:02.808,-0.075,-0.175
09:02:02.812,-0.075,-0.165
09:02:02.816,-0.05,-0.16
09:02:02.820,-0.05,-0.16
09:02:02.824,-0.055,-0.16
09:02:02.828,-0.06,-0.165
09:02:02.832,-0.05,-0.175
09:02:02.836,-0.06,-0.16
09:02:02.840,-0.06,-0.155
09:02:02.844,-0.06,-0.16
09:02:02.848,-0.075,-0.14
09:02:02.852,-0.06,-0.15
09:02:02.856,-0.07,-0.14
09:02:02.860,-0.065,-0.15
09:02:02.864,-0.055,-0.15
09:02:02.868,-0.035,-0.15
09:02:02.872,-0.02,-0.14
09:02:02.876,0.0,-0.145
09:02:02.880,0.045,-0.145
09:02:02.884,0.035,-0.14
09:02:02.888,-0.02,-0.13
09:02:02.892,-0.08,-0.145
09:02:02.896,-0.155,-0.13
09:02:02.900,-0.12,-0.14
09:02:02.904,-0.11,-0.13
09:02:02.908,-0.105,-0.125
09:02:02.912,-0.11,-0.13
09:02:02.916,-0.11,-0.135
09:02:02.920,-0.12,-0.13
09:02:02.924,-0.12,-0.135
09:02:02.928,-0.105,-0.13
09:02:02.932,-0.105,-0.12
09:02:02.936,-0.105,-0.13
09:02:02.940,-0.105,-0.115
09:02:02.944,-0.1,-0.1
09:02:02.948,-0.11,-0.07
09:02:02.952,-0.115,-0.04
09:02:02.956,-0.14,-0.04
09:02:02.960,-0.13,-0.07
09:02:02.964,-0.09,-0.08
09:02:02.968,-0.04,-0.07
09:02:02.972,-0.06,-0.035
09:02:02.976,-0.105,-0.03
09:02:02.980,-0.23,-0.005
09:02:02.984,-0.365,0.01
09:02:02.988,-0.465,0.025
09:02:02.992,-0.47,0.035
09:02:02.996,-0.44,0.025
09:02:03.000,-0.35,-0.02
09:02:03.004,-0.275,-0.06
09:02:03.008,-0.23,-0.12
09:02:03.012,-0.195,-0.135
09:02:03.016,-0.155,-0.155
09:02:03.020,-0.115,-0.155
09:02:03.024,-0.075,-0.175
09:02:03.028,-0.085,-0.16
09:02:03.032,-0.09,-0.145
09:02:03.036,-0.14,-0.12
09:02:03.040,-0.115,-0.135
09:02:03.044,-0.11,-0.145
09:02:03.048,-0.1,-0.165
09:02:03.052,-0.085,-0.17
09:02:03.056,-0.115,-0.175
09:02:03.060,-0.135,-0.195
09:02:03.064,-0.12,-0.19
09:02:03.068,-0.115,-0.195
09:02:03.072,-0.12,-0.185
09:02:03.076,-0.12,-0.19
09:02:03.080,-0.065,-0.185
09:02:03.084,-0.045,-0.17
09:02:03.088,-0.045,-0.175
09:02:03.092,-0.075,-0.17
09:02:03.096,-0.12,-0.16
09:02:03.100,-0.15,-0.155
09:02:03.104,-0.125,-0.155
09:02:03.108,-0.105,-0.17
09:02:03.112,-0.09,-0.165
09:02:03.116,-0.095,-0.165
09:02:03.120,-0.09,-0.18
09:02:03.124,-0.095,-0.18
09:02:03.128,-0.09,-0.165
09:02:03.132,-0.08,-0.175
09:02:03.136,-0.075,-0.17
09:02:03.140,-0.07,-0.17
09:02:03.144,-0.055,-0.17
09:02:03.148,-0.06,-0.175
09:02:03.152,-0.065,-0.175
09:02:03.156,-0.08,-0.17
09:02:03.160,-0.075,-0.165
09:02:03.164,-0.08,-0.17
09:02:03.168,-0.06,-0.17
09:02:03.172,-0.06,-0.16
09:02:03.176,-0.065,-0.165
09:02:03.180,-0.06,-0.17
09:02:03.184,-0.05,-0.175
09:02:03.188,-0.065,-0.17
09:02:03.192,-0.07,-0.15
09:02:03.196,-0.05,-0.15
09:02:03.200,-0.06,-0.15
09:02:03.204,-0.085,-0.125
09:02:03.208,-0.1,-0.13
09:02:03.212,-0.085,-0.125
09:02:03.216,-0.095,-0.13
09:02:03.220,-0.065,-0.14
09:02:03.224,-0.025,-0.14
09:02:03.228,-0.03,-0.13
09:02:03.232,-0.075,-0.135
09:02:03.236,-0.11,-0.125
09:02:03.240,-0.12,-0.13
09:02:03.244,-0.1,-0.12
09:02:03.248,-0.13,-0.125
09:02:03.252,-0.155,-0.12
09:02:03.256,-0.155,-0.12
09:02:03.260,-0.14,-0.12
09:02:03.264,-0.12,-0.125
09:02:03.268,-0.115,-0.125
09:02:03.272,-0.12,-0.115
09:02:03.276,-0.105,-0.115
09:02:03.280,-0.105,-0.12
09:02:03.284,-0.105,-0.11
09:02:03.288,-0.105,-0.11
09:02:03.292,-0.075,-0.125
09:02:03.296,-0.065,-0.13
09:02:03.300,-0.085,-0.14
09:02:03.304,-0.075,-0.13
09:02:03.308,-0.07,-0.135
09:02:03.312,-0.08,-0.125
09:02:03.316,-0.08,-0.12
09:02:03.320,-0.105,-0.125
09:02:03.324,-0.065,-0.12
09:02:03.328,-0.065,-0.125
09:02:03.332,-0.02,-0.12
09:02:03.336,-0.03,-0.125
09:02:03.340,-0.05,-0.115
09:02:03.344,-0.09,-0.11
09:02:03.348,-0.085,-0.12
09:02:03.352,-0.09,-0.14
09:02:03.356,-0.095,-0.145
09:02:03.360,-0.095,-0.16
09:02:03.364,-0.105,-0.16
09:02:03.368,-0.09,-0.14
09:02:03.372,-0.1,-0.14
09:02:03.376,-0.115,-0.135
09:02:03.380,-0.13,-0.135
09:02:03.384,-0.12,-0.14
09:02:03.388,-0.13,-0.15
09:02:03.392,-0.12,-0.145
09:02:03.396,-0.11,-0.14
09:02:03.400,-0.11,-0.135
09:02:03.404,-0.11,-0.12
09:02:03.408,-0.105,-0.135
09:02:03.412,-0.055,-0.14
09:02:03.416,0.03,-0.135
09:02:03.420,0.04,-0.15
09:02:03.424,-0.055,-0.15
09:02:03.428,-0.14,-0.15
09:02:03.432,-0.08,-0.14
09:02:03.436,0.01,-0.14
09:02:03.440,0.005,-0.135
09:02:03.444,-0.13,-0.13
09:02:03.448,-0.22,-0.135
09:02:03.452,-0.19,-0.13
09:02:03.456,-0.135,-0.13
09:02:03.460,-0.13,-0.125
09:02:03.464,-0.135,-0.105
09:02:03.468,-0.125,-0.09
09:02:03.472,-0.07,-0.06
09:02:03.476,-0.06,-0.01
09:02:03.480,-0.07,-0.01
09:02:03.484,-0.085,-0.035
09:02:03.488,-0.1,-0.065
09:02:03.492,-0.05,-0.075
09:02:03.496,-0.035,-0.05
09:02:03.500,-0.04,-0.03
09:02:03.504,-0.125,-0.03
09:02:03.508,-0.25,0.0
09:02:03.512,-0.36,0.01
09:02:03.516,-0.395,0.03
09:02:03.520,-0.4,0.04
09:02:03.524,-0.345,0.01
09:02:03.528,-0.295,-0.05
09:02:03.532,-0.225,-0.115
09:02:03.536,-0.15,-0.16
09:02:03.540,-0.11,-0.155
09:02:03.544,-0.09,-0.16
09:02:03.548,-0.105,-0.18
09:02:03.552,-0.12,-0.17
09:02:03.556,-0.095,-0.14
09:02:03.560,-0.06,-0.12
09:02:03.564,-0.055,-0.14
09:02:03.568,-0.05,-0.155
09:02:03.572,-0.045,-0.16
09:02:03.576,-0.025,-0.18
09:02:03.580,-0.02,-0.165
09:02:03.584,-0.02,-0.18
09:02:03.588,-0.015,-0.18
09:02:03.592,0.0,-0.195
09:02:03.596,0.01,-0.195
09:02:03.600,0.03,-0.185
09:02:03.604,0.03,-0.16
09:02:03.608,0.025,-0.17
09:02:03.612,0.04,-0.155
09:02:03.616,0.03,-0.16
09:02:03.620,0.045,-0.16
09:02:03.624,0.02,-0.155
09:02:03.628,0.015,-0.15
09:02:03.632,0.025,-0.145
09:02:03.636,0.035,-0.14
09:02:03.640,0.04,-0.135
09:02:03.644,0.065,-0.14
09:02:03.648,0.09,-0.145
09:02:03.652,0.09,-0.155
09:02:03.656,0.105,-0.155
09:02:03.660,0.15,-0.155
09:02:03.664,0.09,-0.145
09:02:03.668,-0.04,-0.145
09:02:03.672,-0.12,-0.155
09:02:03.676,-0.1,-0.145
09:02:03.680,0.005,-0.155
09:02:03.684,0.035,-0.155
09:02:03.688,0.01,-0.17
09:02:03.692,-0.025,-0.17
09:02:03.696,0.0,-0.185
09:02:03.700,0.015,-0.175
09:02:03.704,0.05,-0.16
09:02:03.708,0.015,-0.17
09:02:03.712,-0.03,-0.17
09:02:03.716,-0.01,-0.155
09:02:03.720,-0.01,-0.155
09:02:03.724,0.02,-0.16
09:02:03.728,0.03,-0.14
09:02:03.732,0.03,-0.155
09:02:03.736,0.05,-0.15
09:02:03.740,0.04,-0.15
09:02:03.744,0.045,-0.14
09:02:03.748,0.055,-0.125
09:02:03.752,0.06,-0.11
09:02:03.756,0.035,-0.12
09:02:03.760,0.025,-0.1
09:02:03.764,0.035,-0.115
09:02:03.768,0.035,-0.12
09:02:03.772,0.04,-0.105
09:02:03.776,0.035,-0.11
09:02:03.780,0.05,-0.09
09:02:03.784,0.04,-0.105
09:02:03.788,0.07,-0.1
09:02:03.792,0.075,-0.105
09:02:03.796,0.09,-0.1
09:02:03.800,0.055,-0.105
09:02:03.804,0.045,-0.11
09:02:03.808,0.045,-0.115
09:02:03.812,0.005,-0.115
09:02:03.816,-0.035,-0.115
09:02:03.820,-0.02,-0.11
09:02:03.824,0.015,-0.12
09:02:03.828,0.02,-0.115
09:02:03.832,0.03,-0.105
09:02:03.836,0.055,-0.115
09:02:03.840,0.04,-0.12
09:02:03.844,0.055,-0.115
09:02:03.848,0.065,-0.11
09:02:03.852,0.06,-0.135
09:02:03.856,0.06,-0.125
09:02:03.860,0.065,-0.135
09:02:03.864,0.105,-0.14
09:02:03.868,0.135,-0.145
09:02:03.872,0.16,-0.14
09:02:03.876,0.2,-0.14
09:02:03.880,0.19,-0.125
09:02:03.884,0.145,-0.12
09:02:03.888,0.06,-0.11
09:02:03.892,0.02,-0.105
09:02:03.896,0.05,-0.105
09:02:03.900,0.105,-0.12
09:02:03.904,0.15,-0.12
09:02:03.908,0.17,-0.135
09:02:03.912,0.17,-0.115
09:02:03.916,0.13,-0.11
09:02:03.920,0.045,-0.115
09:02:03.924,-0.02,-0.105
09:02:03.928,-0.01,-0.115
09:02:03.932,0.01,-0.105
09:02:03.936,0.045,-0.1
09:02:03.940,0.045,-0.095
09:02:03.944,0.065,-0.095
09:02:03.948,0.065,-0.125
09:02:03.952,0.05,-0.12
09:02:03.956,0.065,-0.11
09:02:03.960,0.05,-0.11
09:02:03.964,0.065,-0.115
09:02:03.968,0.075,-0.12
09:02:03.972,0.09,-0.115
09:02:03.976,0.085,-0.12
09:02:03.980,0.085,-0.115
09:02:03.984,0.1,-0.12
09:02:03.988,0.105,-0.11
09:02:03.992,0.1,-0.125
09:02:03.996,0.095,-0.13
09:02:04.000,0.14,-0.12
09:02:04.004,0.135,-0.11
09:02:04.008,0.125,-0.07
09:02:04.012,0.105,-0.03
09:02:04.016,0.06,-0.005
09:02:04.020,0.07,-0.015
09:02:04.024,0.13,-0.05
09:02:04.028,0.205,-0.065
09:02:04.032,0.205,-0.045
09:02:04.036,0.16,-0.02
09:02:04.040,0.045,-0.025
09:02:04.044,-0.08,-0.02
09:02:04.048,-0.22,0.0
09:02:04.052,-0.27,0.025
09:02:04.056,-0.275,0.05
09:02:04.060,-0.24,0.03
09:02:04.064,-0.17,-0.015
09:02:04.068,-0.04,-0.055
09:02:04.072,0.025,-0.095
09:02:04.076,0.015,-0.11
09:02:04.080,0.02,-0.115
09:02:04.084,0.0,-0.135
09:02:04.088,0.01,-0.145
09:02:04.092,0.03,-0.14
09:02:04.096,0.07,-0.12
09:02:04.100,0.12,-0.095
09:02:04.104,0.115,-0.13
09:02:04.108,0.12,-0.135
09:02:04.112,0.11,-0.13
09:02:04.116,0.1,-0.145
09:02:04.120,0.1,-0.145
09:02:04.124,0.11,-0.15
09:02:04.128,0.115,-0.17
09:02:04.132,0.115,-0.17
09:02:04.136,0.155,-0.17
09:02:04.140,0.14,-0.165
09:02:04.144,0.145,-0.165
09:02:04.148,0.12,-0.165
09:02:04.152,0.125,-0.15
09:02:04.156,0.135,-0.135
09:02:04.160,0.135,-0.12
09:02:04.164,0.145,-0.105
09:02:04.168,0.165,-0.135
09:02:04.172,0.17,-0.135
09:02:04.176,0.165,-0.15
09:02:04.180,0.155,-0.14
09:02:04.184,0.16,-0.14
09:02:04.188,0.15,-0.155
09:02:04.192,0.135,-0.145
09:02:04.196,0.16,-0.145
09:02:04.200,0.17,-0.145
09:02:04.204,0.17,-0.15
09:02:04.208,0.115,-0.155
09:02:04.212,0.105,-0.155
09:02:04.216,0.14,-0.155
09:02:04.220,0.19,-0.165
09:02:04.224,0.24,-0.16
09:02:04.228,0.17,-0.15
09:02:04.232,0.095,-0.15
09:02:04.236,0.075,-0.165
09:02:04.240,0.115,-0.16
09:02:04.244,0.13,-0.16
09:02:04.248,0.085,-0.16
09:02:04.252,0.055,-0.145
09:02:04.256,0.085,-0.15
09:02:04.260,0.13,-0.155
09:02:04.264,0.155,-0.15
09:02:04.268,0.11,-0.15
09:02:04.272,0.09,-0.145
09:02:04.276,0.1,-0.125
09:02:04.280,0.115,-0.125
09:02:04.284,0.125,-0.12
09:02:04.288,0.13,-0.115
09:02:04.292,0.12,-0.12
09:02:04.296,0.125,-0.13
09:02:04.300,0.15,-0.125
09:02:04.304,0.15,-0.125
09:02:04.308,0.145,-0.11
09:02:04.312,0.155,-0.1
09:02:04.316,0.17,-0.1
09:02:04.320,0.185,-0.1
09:02:04.324,0.155,-0.105
09:02:04.328,0.175,-0.1
09:02:04.332,0.15,-0.1
09:02:04.336,0.06,-0.11
09:02:04.340,0.02,-0.105
09:02:04.344,0.07,-0.11
09:02:04.348,0.115,-0.11
09:02:04.352,0.12,-0.115
09:02:04.356,0.1,-0.125
09:02:04.360,0.06,-0.12
09:02:04.364,0.05,-0.12
09:02:04.368,0.05,-0.13
09:02:04.372,0.075,-0.125
09:02:04.376,0.085,-0.13
09:02:04.380,0.095,-0.125
09:02:04.384,0.095,-0.125
09:02:04.388,0.105,-0.145
09:02:04.392,0.11,-0.13
09:02:04.396,0.11,-0.135
09:02:04.400,0.12,-0.14
09:02:04.404,0.135,-0.135
09:02:04.408,0.13,-0.14
09:02:04.412,0.14,-0.145
09:02:04.416,0.14,-0.15
09:02:04.420,0.12,-0.14
09:02:04.424,0.13,-0.145
09:02:04.428,0.19,-0.135
09:02:04.432,0.165,-0.135
09:02:04.436,0.19,-0.145
09:02:04.440,0.19,-0.155
09:02:04.444,0.185,-0.145
09:02:04.448,0.13,-0.15
09:02:04.452,0.1,-0.13
09:02:04.456,0.125,-0.12
09:02:04.460,0.145,-0.13
09:02:04.464,0.11,-0.11
09:02:04.468,0.11,-0.105
09:02:04.472,0.095,-0.08
09:02:04.476,0.06,-0.035
09:02:04.480,0.04,0.0
09:02:04.484,0.035,-0.005
09:02:04.488,0.06,-0.045
09:02:04.492,0.11,-0.08
09:02:04.496,0.165,-0.09
09:02:04.500,0.16,-0.095
09:02:04.504,0.11,-0.09
09:02:04.508,-0.055,-0.075
09:02:04.512,-0.2,-0.045
09:02:04.516,-0.3,-0.02
09:02:04.520,-0.275,0.01
09:02:04.524,-0.22,-0.005
09:02:04.528,-0.15,-0.05
09:02:04.532,-0.08,-0.09
09:02:04.536,-0.03,-0.12
09:02:04.540,0.005,-0.12
09:02:04.544,0.05,-0.14
09:02:04.548,0.065,-0.16
09:02:04.552,0.1,-0.155
09:02:04.556,0.115,-0.155
09:02:04.560,0.135,-0.135
09:02:04.564,0.16,-0.125
09:02:04.568,0.2,-0.15
09:02:04.572,0.185,-0.145
09:02:04.576,0.2,-0.155
09:02:04.580,0.165,-0.165
09:02:04.584,0.14,-0.16
09:02:04.588,0.135,-0.16
09:02:04.592,0.115,-0.155
09:02:04.596,0.115,-0.155
09:02:04.600,0.115,-0.16
09:02:04.604,0.13,-0.16
09:02:04.608,0.14,-0.17
09:02:04.612,0.14,-0.17
09:02:04.616,0.14,-0.165
09:02:04.620,0.135,-0.155
09:02:04.624,0.14,-0.165
09:02:04.628,0.15,-0.15
09:02:04.632,0.115,-0.165
09:02:04.636,0.13,-0.175
09:02:04.640,0.135,-0.175
09:02:04.644,0.135,-0.18
09:02:04.648,0.14,-0.175
09:02:04.652,0.16,-0.17
09:02:04.656,0.15,-0.19
09:02:04.660,0.14,-0.17
09:02:04.664,0.125,-0.16
09:02:04.668,0.135,-0.165
09:02:04.672,0.15,-0.165
09:02:04.676,0.135,-0.17
09:02:04.680,0.12,-0.165
09:02:04.684,0.125,-0.17
09:02:04.688,0.145,-0.16
09:02:04.692,0.16,-0.155
09:02:04.696,0.145,-0.165
09:02:04.700,0.145,-0.14
09:02:04.704,0.12,-0.145
09:02:04.708,0.135,-0.135
09:02:04.712,0.15,-0.13
09:02:04.716,0.145,-0.12
09:02:04.720,0.13,-0.135
09:02:04.724,0.13,-0.13
09:02:04.728,0.14,-0.135
09:02:04.732,0.115,-0.125
09:02:04.736,0.065,-0.145
09:02:04.740,0.05,-0.11
09:02:04.744,0.06,-0.12
09:02:04.748,0.07,-0.13
09:02:04.752,0.09,-0.105
09:02:04.756,0.095,-0.11
09:02:04.760,0.1,-0.12
09:02:04.764,0.095,-0.115
09:02:04.768,0.095,-0.11
09:02:04.772,0.105,-0.11
09:02:04.776,0.09,-0.115
09:02:04.780,0.115,-0.115
09:02:04.784,0.11,-0.135
09:02:04.788,0.13,-0.13
09:02:04.792,0.12,-0.12
09:02:04.796,0.105,-0.115
09:02:04.800,0.11,-0.125
09:02:04.804,0.105,-0.13
09:02:04.808,0.095,-0.125
09:02:04.812,0.095,-0.115
09:02:04.816,0.105,-0.135
09:02:04.820,0.11,-0.13
09:02:04.824,0.115,-0.125
09:02:04.828,0.105,-0.145
09:02:04.832,0.11,-0.14
09:02:04.836,0.11,-0.14
09:02:04.840,0.11,-0.14
09:02:04.844,0.13,-0.15
09:02:04.848,0.12,-0.14
09:02:04.852,0.105,-0.15
09:02:04.856,0.11,-0.14
09:02:04.860,0.09,-0.135
09:02:04.864,0.095,-0.125
09:02:04.868,0.1,-0.115
09:02:04.872,0.105,-0.115
09:02:04.876,0.11,-0.13
09:02:04.880,0.125,-0.135
09:02:04.884,0.145,-0.14
09:02:04.888,0.15,-0.135
09:02:04.892,0.155,-0.145
09:02:04.896,0.13,-0.135
09:02:04.900,0.105,-0.1
09:02:04.904,0.11,-0.08
09:02:04.908,0.115,-0.085
09:02:04.912,0.12,-0.04
09:02:04.916,0.105,-0.005
09:02:04.920,0.095,0.05
09:02:04.924,0.06,0.08
09:02:04.928,0.015,0.075
09:02:04.932,-0.01,0.035
09:02:04.936,0.02,-0.025
09:02:04.940,0.03,-0.095
09:02:04.944,0.06,-0.205
09:02:04.948,0.065,-0.29
09:02:04.952,0.075,-0.32
09:02:04.956,0.085,-0.36
09:02:04.960,0.1,-0.445
09:02:04.964,0.06,-0.505
09:02:04.968,0.01,-0.575
09:02:04.972,-0.08,-0.61
09:02:04.976,-0.14,-0.6
09:02:04.980,-0.215,-0.525
09:02:04.984,-0.275,-0.45
09:02:04.988,-0.34,-0.405
09:02:04.992,-0.315,-0.375
09:02:04.996,-0.26,-0.365
09:02:05.000,-0.19,-0.34
09:02:05.004,-0.1,-0.285
09:02:05.008,-0.03,-0.235
09:02:05.012,0.06,-0.185
09:02:05.016,0.085,-0.165
09:02:05.020,0.08,-0.15
09:02:05.024,0.05,-0.125
09:02:05.028,0.03,-0.12
09:02:05.032,0.025,-0.105
09:02:05.036,0.015,-0.095
09:02:05.040,0.04,-0.07
09:02:05.044,0.05,-0.085
09:02:05.048,0.06,-0.08
09:02:05.052,0.1,-0.08
09:02:05.056,0.11,-0.065
09:02:05.060,0.095,-0.065
09:02:05.064,0.12,-0.065
09:02:05.068,0.105,-0.06
09:02:05.072,0.12,-0.05
09:02:05.076,0.105,-0.06
09:02:05.080,0.12,-0.05
09:02:05.084,0.125,-0.045
09:02:05.088,0.12,-0.025
09:02:05.092,0.11,-0.025
09:02:05.096,0.115,-0.04
09:02:05.100,0.105,-0.035
09:02:05.104,0.105,-0.025
09:02:05.108,0.115,-0.02
09:02:05.112,0.115,-0.02
09:02:05.116,0.115,-0.015
09:02:05.120,0.105,-0.005
09:02:05.124,0.1,0.005
09:02:05.128,0.09,0.01
09:02:05.132,0.1,0.03
09:02:05.136,0.14,0.025
09:02:05.140,0.13,0.035
09:02:05.144,0.15,0.055
09:02:05.148,0.14,0.055
09:02:05.152,0.135,0.06
09:02:05.156,0.085,0.055
09:02:05.160,0.045,0.055
09:02:05.164,0.05,0.06
09:02:05.168,0.05,0.075
09:02:05.172,0.065,0.075
09:02:05.176,0.05,0.08
09:02:05.180,0.055,0.075
09:02:05.184,0.06,0.075
09:02:05.188,0.085,0.085
09:02:05.192,0.08,0.085
09:02:05.196,0.08,0.08
09:02:05.200,0.085,0.075
09:02:05.204,0.08,0.075
09:02:05.208,0.1,0.06
09:02:05.212,0.1,0.045
09:02:05.216,0.1,0.02
09:02:05.220,0.095,0.01
09:02:05.224,0.1,0.0
09:02:05.228,0.085,-0.005
09:02:05.232,0.09,-0.005
09:02:05.236,0.065,-0.015
09:02:05.240,0.075,-0.025
09:02:05.244,0.06,-0.045
09:02:05.248,0.095,-0.075
09:02:05.252,0.12,-0.09
09:02:05.256,0.085,-0.09
09:02:05.260,0.05,-0.08
09:02:05.264,0.03,-0.08
09:02:05.268,0.04,-0.085
09:02:05.272,0.05,-0.09
09:02:05.276,0.055,-0.095
09:02:05.280,0.075,-0.09
09:02:05.284,0.05,-0.1
09:02:05.288,0.03,-0.105
09:02:05.292,0.02,-0.11
09:02:05.296,0.045,-0.115
09:02:05.300,0.05,-0.125
09:02:05.304,0.045,-0.115
09:02:05.308,0.035,-0.125
09:02:05.312,0.045,-0.13
09:02:05.316,0.04,-0.125
09:02:05.320,0.07,-0.12
09:02:05.324,0.065,-0.095
09:02:05.328,0.09,-0.095
09:02:05.332,0.07,-0.1
09:02:05.336,0.055,-0.11
09:02:05.340,0.035,-0.105
09:02:05.344,0.02,-0.11
09:02:05.348,0.02,-0.105
09:02:05.352,0.045,-0.105
09:02:05.356,0.055,-0.09
09:02:05.360,0.045,-0.1
09:02:05.364,0.055,-0.095
09:02:05.368,0.005,-0.1
09:02:05.372,-0.01,-0.095
09:02:05.376,0.01,-0.11
09:02:05.380,0.025,-0.115
09:02:05.384,0.025,-0.12
09:02:05.388,0.035,-0.12
09:02:05.392,0.02,-0.135
09:02:05.396,0.03,-0.13
09:02:05.400,0.045,-0.125
09:02:05.404,0.045,-0.13
09:02:05.408,0.03,-0.12
09:02:05.412,0.01,-0.11
09:02:05.416,-0.02,-0.12
09:02:05.420,-0.02,-0.12
09:02:05.424,-0.01,-0.12
09:02:05.428,-0.02,-0.125
09:02:05.432,-0.01,-0.135
09:02:05.436,0.0,-0.14
09:02:05.440,0.0,-0.14
09:02:05.444,-0.005,-0.16
09:02:05.448,0.005,-0.16
09:02:05.452,-0.015,-0.165
09:02:05.456,0.005,-0.155
09:02:05.460,0.015,-0.15
09:02:05.464,-0.01,-0.135
09:02:05.468,0.01,-0.135
09:02:05.472,0.025,-0.125
09:02:05.476,0.035,-0.14
09:02:05.480,0.055,-0.145
09:02:05.484,0.065,-0.13
09:02:05.488,0.03,-0.115
09:02:05.492,-0.01,-0.11
09:02:05.496,-0.035,-0.1
09:02:05.500,-0.045,-0.1
09:02:05.504,-0.035,-0.115
09:02:05.508,-0.045,-0.12
09:02:05.512,-0.035,-0.13
09:02:05.516,-0.015,-0.145
09:02:05.520,-0.03,-0.12
09:02:05.524,-0.04,-0.12
09:02:05.528,-0.05,-0.125
09:02:05.532,-0.05,-0.11
09:02:05.536,-0.035,-0.105
09:02:05.540,-0.035,-0.105
09:02:05.544,-0.005,-0.115
09:02:05.548,-0.01,-0.115
09:02:05.552,-0.02,-0.135
09:02:05.556,-0.035,-0.115
09:02:05.560,-0.05,-0.125
09:02:05.564,-0.03,-0.12
09:02:05.568,-0.03,-0.12
09:02:05.572,-0.015,-0.125
09:02:05.576,0.01,-0.11
09:02:05.580,0.005,-0.11
09:02:05.584,0.0,-0.105
09:02:05.588,-0.04,-0.13
09:02:05.592,-0.07,-0.15
09:02:05.596,-0.065,-0.145
09:02:05.600,-0.04,-0.145
09:02:05.604,-0.015,-0.145
09:02:05.608,0.025,-0.13
09:02:05.612,0.05,-0.13
09:02:05.616,0.02,-0.12
09:02:05.620,-0.005,-0.105
09:02:05.624,-0.015,-0.09
09:02:05.628,-0.025,-0.08
09:02:05.632,-0.035,-0.045
09:02:05.636,-0.05,-0.005
09:02:05.640,-0.04,0.0
09:02:05.644,-0.05,-0.01
09:02:05.648,-0.015,-0.05
09:02:05.652,-0.03,-0.045
09:02:05.656,-0.005,-0.02
09:02:05.660,-0.035,0.005
09:02:05.664,-0.16,0.03
09:02:05.668,-0.285,0.03
09:02:05.672,-0.365,0.035
09:02:05.676,-0.39,0.05
09:02:05.680,-0.365,0.045
09:02:05.684,-0.3,0.0
09:02:05.688,-0.245,-0.045
09:02:05.692,-0.155,-0.085
09:02:05.696,-0.1,-0.115
09:02:05.700,-0.015,-0.12
09:02:05.704,-0.02,-0.13
09:02:05.708,-0.015,-0.14
09:02:05.712,-0.025,-0.145
09:02:05.716,0.0,-0.135
09:02:05.720,-0.01,-0.115
09:02:05.724,-0.05,-0.12
09:02:05.728,-0.05,-0.14
09:02:05.732,-0.03,-0.15
09:02:05.736,-0.015,-0.145
09:02:05.740,-0.01,-0.14
09:02:05.744,0.005,-0.15
09:02:05.748,0.0,-0.16
09:02:05.752,0.0,-0.18
09:02:05.756,0.0,-0.18
09:02:05.760,0.015,-0.18
09:02:05.764,0.02,-0.165
09:02:05.768,0.03,-0.16
09:02:05.772,0.025,-0.15
09:02:05.776,0.025,-0.155
09:02:05.780,0.025,-0.14
09:02:05.784,0.025,-0.135
09:02:05.788,0.03,-0.14
09:02:05.792,0.045,-0.15
09:02:05.796,0.075,-0.145
09:02:05.800,0.065,-0.145
09:02:05.804,0.05,-0.14
09:02:05.808,0.015,-0.14
09:02:05.812,0.0,-0.145
09:02:05.816,0.0,-0.17
09:02:05.820,0.02,-0.17
09:02:05.824,0.02,-0.17
09:02:05.828,0.02,-0.16
09:02:05.832,0.03,-0.16
09:02:05.836,0.04,-0.15
09:02:05.840,0.015,-0.155
09:02:05.844,0.01,-0.16
09:02:05.848,-0.005,-0.16
09:02:05.852,0.0,-0.175
09:02:05.856,0.01,-0.185
09:02:05.860,0.02,-0.18
09:02:05.864,0.03,-0.17
09:02:05.868,0.045,-0.17
09:02:05.872,0.04,-0.16
09:02:05.876,0.045,-0.155
09:02:05.880,0.075,-0.155
09:02:05.884,0.11,-0.16
09:02:05.888,0.115,-0.165
09:02:05.892,0.08,-0.17
09:02:05.896,0.05,-0.155
09:02:05.900,0.08,-0.135
09:02:05.904,0.09,-0.135
09:02:05.908,0.09,-0.125
09:02:05.912,0.04,-0.11
09:02:05.916,-0.01,-0.125
09:02:05.920,-0.03,-0.12
09:02:05.924,-0.015,-0.11
09:02:05.928,0.025,-0.11
09:02:05.932,0.05,-0.115
09:02:05.936,0.05,-0.105
09:02:05.940,0.025,-0.09
09:02:05.944,0.01,-0.105
09:02:05.948,0.02,-0.105
09:02:05.952,0.045,-0.105
09:02:05.956,0.065,-0.115
09:02:05.960,0.075,-0.115
09:02:05.964,0.065,-0.105
09:02:05.968,0.01,-0.1
09:02:05.972,-0.02,-0.1
09:02:05.976,-0.02,-0.095
09:02:05.980,0.0,-0.105
09:02:05.984,0.005,-0.1
09:02:05.988,0.0,-0.085
09:02:05.992,0.01,-0.09
09:02:05.996,0.02,-0.1
09:02:06.000,0.03,-0.115
09:02:06.004,0.055,-0.12
09:02:06.008,0.04,-0.115
09:02:06.012,0.05,-0.13
09:02:06.016,0.035,-0.125
09:02:06.020,0.035,-0.12
09:02:06.024,0.07,-0.12
09:02:06.028,0.085,-0.115
09:02:06.032,0.085,-0.125
09:02:06.036,0.07,-0.125
09:02:06.040,0.055,-0.115
09:02:06.044,0.035,-0.12
09:02:06.048,0.05,-0.105
09:02:06.052,0.07,-0.1
09:02:06.056,0.07,-0.105
09:02:06.060,0.035,-0.1
09:02:06.064,0.025,-0.1
09:02:06.068,0.04,-0.09
09:02:06.072,0.055,-0.1
09:02:06.076,0.045,-0.105
09:02:06.080,0.065,-0.095
09:02:06.084,0.1,-0.115
09:02:06.088,0.1,-0.12
09:02:06.092,0.085,-0.125
09:02:06.096,0.075,-0.125
09:02:06.100,0.045,-0.125
09:02:06.104,0.01,-0.125
09:02:06.108,0.0,-0.125
09:02:06.112,0.03,-0.11
09:02:06.116,0.05,-0.115
09:02:06.120,0.065,-0.12
09:02:06.124,0.07,-0.105
09:02:06.128,0.01,-0.105
09:02:06.132,0.0,-0.11
09:02:06.136,0.0,-0.115
09:02:06.140,0.01,-0.1
09:02:06.144,0.015,-0.105
09:02:06.148,0.035,-0.1
09:02:06.152,0.02,-0.1
09:02:06.156,0.025,-0.09
09:02:06.160,0.04,-0.115
09:02:06.164,0.055,-0.12
09:02:06.168,0.065,-0.125
09:02:06.172,0.075,-0.125
09:02:06.176,0.09,-0.11
09:02:06.180,0.06,-0.115
09:02:06.184,0.04,-0.1
09:02:06.188,0.02,-0.1
09:02:06.192,0.015,-0.095
09:02:06.196,0.055,-0.08
09:02:06.200,0.145,-0.075
09:02:06.204,0.14,-0.08
09:02:06.208,0.02,-0.085
09:02:06.212,-0.08,-0.08
09:02:06.216,-0.075,-0.075
09:02:06.220,-0.03,-0.085
09:02:06.224,0.01,-0.095
09:02:06.228,0.045,-0.095
09:02:06.232,0.045,-0.09
09:02:06.236,0.04,-0.095
09:02:06.240,0.06,-0.095
09:02:06.244,0.055,-0.08
09:02:06.248,0.04,-0.09
09:02:06.252,0.015,-0.11
09:02:06.256,0.03,-0.105
09:02:06.260,0.04,-0.125
09:02:06.264,0.045,-0.14
09:02:06.268,0.05,-0.125
09:02:06.272,0.03,-0.115
09:02:06.276,0.06,-0.11
09:02:06.280,0.065,-0.11
09:02:06.284,0.05,-0.1
09:02:06.288,0.045,-0.115
09:02:06.292,0.035,-0.09
09:02:06.296,0.055,-0.1
09:02:06.300,0.09,-0.105
09:02:06.304,0.105,-0.115
09:02:06.308,0.075,-0.115
09:02:06.312,0.03,-0.115
09:02:06.316,0.015,-0.125
09:02:06.320,0.01,-0.13
09:02:06.324,0.005,-0.13
09:02:06.328,0.0,-0.115
09:02:06.332,0.035,-0.115
09:02:06.336,0.065,-0.11
09:02:06.340,0.075,-0.105
09:02:06.344,0.04,-0.095
09:02:06.348,0.01,-0.095
09:02:06.352,0.015,-0.085
09:02:06.356,0.03,-0.095
09:02:06.360,0.055,-0.08
09:02:06.364,0.05,-0.08
09:02:06.368,0.065,-0.065
09:02:06.372,0.09,-0.03
09:02:06.376,0.095,-0.005
09:02:06.380,0.07,0.01
09:02:06.384,0.03,-0.02
09:02:06.388,0.025,-0.055
09:02:06.392,0.08,-0.075
09:02:06.396,0.11,-0.05
09:02:06.400,0.14,-0.015
09:02:06.404,0.07,0.005
09:02:06.408,-0.09,0.005
09:02:06.412,-0.295,0.02
09:02:06.416,-0.375,0.04
09:02:06.420,-0.315,0.04
09:02:06.424,-0.19,0.015
09:02:06.428,-0.12,-0.025
09:02:06.432,-0.135,-0.08
09:02:06.436,-0.155,-0.125
09:02:06.440,-0.11,-0.12
09:02:06.444,-0.085,-0.13
09:02:06.448,-0.055,-0.145
09:02:06.452,-0.035,-0.16
09:02:06.456,-0.01,-0.16
09:02:06.460,0.035,-0.14
09:02:06.464,0.06,-0.115
09:02:06.468,0.035,-0.125
09:02:06.472,0.035,-0.13
09:02:06.476,0.02,-0.135
09:02:06.480,0.05,-0.15
09:02:06.484,0.055,-0.13
09:02:06.488,0.045,-0.145
09:02:06.492,0.05,-0.135
09:02:06.496,0.055,-0.145
09:02:06.500,0.085,-0.16
09:02:06.504,0.095,-0.155
09:02:06.508,0.125,-0.155
09:02:06.512,0.155,-0.145
09:02:06.516,0.14,-0.135
09:02:06.520,0.105,-0.11
09:02:06.524,0.065,-0.135
09:02:06.528,0.075,-0.135
09:02:06.532,0.13,-0.14
09:02:06.536,0.155,-0.125
09:02:06.540,0.12,-0.13
09:02:06.544,0.04,-0.12
09:02:06.548,0.025,-0.135
09:02:06.552,0.06,-0.14
09:02:06.556,0.075,-0.13
09:02:06.560,0.075,-0.145
09:02:06.564,0.09,-0.145
09:02:06.568,0.105,-0.15
09:02:06.572,0.13,-0.16
09:02:06.576,0.15,-0.175
09:02:06.580,0.115,-0.185
09:02:06.584,0.1,-0.16
09:02:06.588,0.06,-0.165
09:02:06.592,0.07,-0.16
09:02:06.596,0.09,-0.16
09:02:06.600,0.105,-0.17
09:02:06.604,0.105,-0.16
09:02:06.608,0.11,-0.165
09:02:06.612,0.08,-0.16
09:02:06.616,0.07,-0.15
09:02:06.620,0.08,-0.155
09:02:06.624,0.095,-0.155
09:02:06.628,0.09,-0.155
09:02:06.632,0.1,-0.155
09:02:06.636,0.095,-0.145
09:02:06.640,0.085,-0.145
09:02:06.644,0.115,-0.14
09:02:06.648,0.125,-0.13
09:02:06.652,0.115,-0.125
09:02:06.656,0.11,-0.13
09:02:06.660,0.12,-0.13
09:02:06.664,0.145,-0.13
09:02:06.668,0.14,-0.135
09:02:06.672,0.11,-0.115
09:02:06.676,0.085,-0.11
09:02:06.680,0.105,-0.1
09:02:06.684,0.135,-0.1
09:02:06.688,0.125,-0.105
09:02:06.692,0.115,-0.1
09:02:06.696,0.115,-0.095
09:02:06.700,0.105,-0.11
09:02:06.704,0.115,-0.115
09:02:06.708,0.12,-0.115
09:02:06.712,0.12,-0.11
09:02:06.716,0.12,-0.095
09:02:06.720,0.125,-0.1
09:02:06.724,0.115,-0.12
09:02:06.728,0.11,-0.115
09:02:06.732,0.11,-0.12
09:02:06.736,0.115,-0.11
09:02:06.740,0.13,-0.115
09:02:06.744,0.095,-0.12
09:02:06.748,0.11,-0.12
09:02:06.752,0.115,-0.12
09:02:06.756,0.12,-0.135
09:02:06.760,0.12,-0.13
09:02:06.764,0.115,-0.135
09:02:06.768,0.135,-0.13
09:02:06.772,0.17,-0.125
09:02:06.776,0.13,-0.12
09:02:06.780,0.055,-0.11
09:02:06.784,0.04,-0.12
09:02:06.788,0.075,-0.125
09:02:06.792,0.125,-0.13
09:02:06.796,0.13,-0.12
09:02:06.800,0.145,-0.13
09:02:06.804,0.12,-0.115
09:02:06.808,0.125,-0.115
09:02:06.812,0.145,-0.115
09:02:06.816,0.145,-0.115
09:02:06.820,0.135,-0.115
09:02:06.824,0.14,-0.115
09:02:06.828,0.12,-0.115
09:02:06.832,0.13,-0.12
09:02:06.836,0.14,-0.105
09:02:06.840,0.14,-0.11
09:02:06.844,0.15,-0.095
09:02:06.848,0.155,-0.1
09:02:06.852,0.165,-0.11
09:02:06.856,0.15,-0.12
09:02:06.860,0.155,-0.13
09:02:06.864,0.175,-0.125
09:02:06.868,0.19,-0.12
09:02:06.872,0.17,-0.105
09:02:06.876,0.12,-0.105
09:02:06.880,0.1,-0.11
09:02:06.884,0.1,-0.08
09:02:06.888,0.1,-0.09
09:02:06.892,0.115,-0.07
09:02:06.896,0.105,-0.03
09:02:06.900,0.1,0.005
09:02:06.904,0.08,-0.005
09:02:06.908,0.1,-0.045
09:02:06.912,0.135,-0.08
09:02:06.916,0.185,-0.08
09:02:06.920,0.19,-0.065
09:02:06.924,0.135,-0.04
09:02:06.928,-0.005,-0.01
09:02:06.932,-0.19,0.0
09:02:06.936,-0.29,0.035
09:02:06.940,-0.27,0.055
09:02:06.944,-0.215,0.045
09:02:06.948,-0.15,0.015
09:02:06.952,-0.075,-0.035
09:02:06.956,-0.005,-0.08
09:02:06.960,0.045,-0.105
09:02:06.964,0.13,-0.11
09:02:06.968,0.125,-0.12
09:02:06.972,0.085,-0.115
09:02:06.976,0.065,-0.095
09:02:06.980,0.1,-0.08
09:02:06.984,0.14,-0.1
09:02:06.988,0.13,-0.115
09:02:06.992,0.145,-0.115
09:02:06.996,0.13,-0.115
09:02:07.000,0.145,-0.13
09:02:07.004,0.135,-0.145
09:02:07.008,0.135,-0.14
09:02:07.012,0.115,-0.15
09:02:07.016,0.115,-0.14
09:02:07.020,0.135,-0.155
09:02:07.024,0.14,-0.155
09:02:07.028,0.14,-0.13
09:02:07.032,0.15,-0.15
09:02:07.036,0.145,-0.16
09:02:07.040,0.135,-0.15
09:02:07.044,0.125,-0.155
09:02:07.048,0.12,-0.155
09:02:07.052,0.135,-0.145
09:02:07.056,0.14,-0.15
09:02:07.060,0.15,-0.15
09:02:07.064,0.13,-0.145
09:02:07.068,0.135,-0.15
09:02:07.072,0.145,-0.135
09:02:07.076,0.125,-0.125
09:02:07.080,0.13,-0.12
09:02:07.084,0.105,-0.135
09:02:07.088,0.085,-0.15
09:02:07.092,0.1,-0.145
09:02:07.096,0.1,-0.135
09:02:07.100,0.13,-0.11
09:02:07.104,0.125,-0.115
09:02:07.108,0.12,-0.125
09:02:07.112,0.115,-0.15
09:02:07.116,0.155,-0.16
09:02:07.120,0.15,-0.145
09:02:07.124,0.13,-0.135
09:02:07.128,0.105,-0.12
09:02:07.132,0.11,-0.125
09:02:07.136,0.125,-0.115
09:02:07.140,0.13,-0.13
09:02:07.144,0.155,-0.125
09:02:07.148,0.165,-0.12
09:02:07.152,0.16,-0.11
09:02:07.156,0.12,-0.1
09:02:07.160,0.055,-0.105
09:02:07.164,0.065,-0.105
09:02:07.168,0.06,-0.105
09:02:07.172,0.08,-0.095
09:02:07.176,0.105,-0.1
09:02:07.180,0.115,-0.1
09:02:07.184,0.13,-0.11
09:02:07.188,0.12,-0.095
09:02:07.192,0.1,-0.08
09:02:07.196,0.1,-0.095
09:02:07.200,0.115,-0.105
09:02:07.204,0.14,-0.1
09:02:07.208,0.145,-0.12
09:02:07.212,0.155,-0.1
09:02:07.216,0.16,-0.095
09:02:07.220,0.115,-0.115
09:02:07.224,0.085,-0.105
09:02:07.228,0.055,-0.09
09:02:07.232,0.075,-0.105
09:02:07.236,0.09,-0.1
09:02:07.240,0.06,-0.11
09:02:07.244,0.045,-0.09
09:02:07.248,0.065,-0.08
09:02:07.252,0.085,-0.08
09:02:07.256,0.105,-0.1
09:02:07.260,0.09,-0.085
09:02:07.264,0.075,-0.095
09:02:07.268,0.06,-0.105
09:02:07.272,0.07,-0.12
09:02:07.276,0.07,-0.125
09:02:07.280,0.09,-0.11
09:02:07.284,0.12,-0.11
09:02:07.288,0.125,-0.12
09:02:07.292,0.095,-0.11
09:02:07.296,0.07,-0.12
09:02:07.300,0.06,-0.125
09:02:07.304,0.065,-0.125
09:02:07.308,0.095,-0.125
09:02:07.312,0.105,-0.13
09:02:07.316,0.105,-0.145
09:02:07.320,0.09,-0.125
09:02:07.324,0.09,-0.14
09:02:07.328,0.095,-0.12
09:02:07.332,0.105,-0.125
09:02:07.336,0.12,-0.105
09:02:07.340,0.095,-0.115
09:02:07.344,0.095,-0.12
09:02:07.348,0.095,-0.115
09:02:07.352,0.085,-0.12
09:02:07.356,0.07,-0.11
09:02:07.360,0.035,-0.12
09:02:07.364,0.035,-0.1
09:02:07.368,0.05,-0.11
09:02:07.372,0.055,-0.115
09:02:07.376,0.065,-0.105
09:02:07.380,0.05,-0.105
09:02:07.384,0.045,-0.11
09:02:07.388,0.035,-0.1
09:02:07.392,0.03,-0.08
09:02:07.396,0.035,-0.09
09:02:07.400,0.015,-0.08
09:02:07.404,0.015,-0.095
09:02:07.408,0.01,-0.105
09:02:07.412,0.03,-0.1
09:02:07.416,0.035,-0.105
09:02:07.420,0.03,-0.1
09:02:07.424,0.03,-0.095
09:02:07.428,0.03,-0.09
09:02:07.432,0.035,-0.09
09:02:07.436,0.02,-0.095
09:02:07.440,0.02,-0.085
09:02:07.444,0.015,-0.06
09:02:07.448,0.0,-0.035
09:02:07.452,0.01,-0.02
09:02:07.456,0.01,-0.035
09:02:07.460,0.02,-0.05
09:02:07.464,0.045,-0.08
09:02:07.468,0.065,-0.045
09:02:07.472,0.06,-0.04
09:02:07.476,-0.03,-0.035
09:02:07.480,-0.17,-0.02
09:02:07.484,-0.335,-0.01
09:02:07.488,-0.365,0.01
09:02:07.492,-0.34,0.04
09:02:07.496,-0.3,0.025
09:02:07.500,-0.255,-0.01
09:02:07.504,-0.185,-0.065
09:02:07.508,-0.13,-0.105
09:02:07.512,-0.08,-0.12
09:02:07.516,-0.04,-0.125
09:02:07.520,-0.035,-0.14
09:02:07.524,-0.005,-0.14
09:02:07.528,0.02,-0.125
09:02:07.532,0.045,-0.11
09:02:07.536,0.035,-0.095
09:02:07.540,0.055,-0.11
09:02:07.544,0.045,-0.115
09:02:07.548,0.04,-0.125
09:02:07.552,0.055,-0.15
09:02:07.556,0.1,-0.165
09:02:07.560,0.09,-0.15
09:02:07.564,0.03,-0.14
09:02:07.568,-0.005,-0.14
09:02:07.572,-0.015,-0.17
09:02:07.576,0.015,-0.175
09:02:07.580,0.05,-0.16
09:02:07.584,0.055,-0.165
09:02:07.588,0.0,-0.16
09:02:07.592,-0.02,-0.13
09:02:07.596,-0.005,-0.13
09:02:07.600,0.02,-0.14
09:02:07.604,0.035,-0.155
09:02:07.608,0.025,-0.165
09:02:07.612,0.03,-0.15
09:02:07.616,0.035,-0.15
09:02:07.620,0.045,-0.15
09:02:07.624,0.03,-0.16
09:02:07.628,0.025,-0.145
09:02:07.632,0.04,-0.145
09:02:07.636,0.035,-0.13
09:02:07.640,0.03,-0.145
09:02:07.644,0.035,-0.155
09:02:07.648,0.04,-0.19
09:02:07.652,0.05,-0.18
09:02:07.656,0.055,-0.185
09:02:07.660,0.065,-0.175
09:02:07.664,0.05,-0.175
09:02:07.668,0.01,-0.18
09:02:07.672,0.005,-0.175
09:02:07.676,0.015,-0.185
09:02:07.680,0.005,-0.17
09:02:07.684,0.005,-0.16
09:02:07.688,-0.02,-0.155
09:02:07.692,-0.02,-0.16
09:02:07.696,-0.015,-0.16
09:02:07.700,-0.01,-0.15
09:02:07.704,-0.005,-0.16
09:02:07.708,0.01,-0.155
09:02:07.712,0.01,-0.145
09:02:07.716,0.015,-0.145
09:02:07.720,0.005,-0.145
09:02:07.724,0.02,-0.14
09:02:07.728,0.01,-0.12
09:02:07.732,0.005,-0.12
09:02:07.736,-0.02,-0.14
09:02:07.740,0.005,-0.135
09:02:07.744,0.0,-0.14
09:02:07.748,0.0,-0.14
09:02:07.752,0.02,-0.135
09:02:07.756,-0.015,-0.12
09:02:07.760,-0.025,-0.11
09:02:07.764,-0.02,-0.125
09:02:07.768,-0.025,-0.14
09:02:07.772,0.015,-0.15
09:02:07.776,0.045,-0.16
09:02:07.780,0.055,-0.14
09:02:07.784,-0.005,-0.14
09:02:07.788,-0.045,-0.135
09:02:07.792,-0.065,-0.135
09:02:07.796,-0.04,-0.125
09:02:07.800,0.0,-0.125
09:02:07.804,-0.01,-0.11
09:02:07.808,0.005,-0.115
09:02:07.812,0.0,-0.135
09:02:07.816,0.0,-0.135
09:02:07.820,-0.015,-0.155
09:02:07.824,-0.015,-0.17
09:02:07.828,-0.015,-0.165
09:02:07.832,-0.015,-0.14
09:02:07.836,-0.025,-0.13
09:02:07.840,-0.02,-0.13
09:02:07.844,-0.04,-0.12
09:02:07.848,-0.04,-0.125
09:02:07.852,-0.015,-0.135
09:02:07.856,-0.015,-0.13
09:02:07.860,-0.04,-0.13
09:02:07.864,-0.06,-0.135
09:02:07.868,-0.065,-0.125
09:02:07.872,-0.06,-0.145
09:02:07.876,-0.05,-0.135
09:02:07.880,-0.035,-0.15
09:02:07.884,-0.04,-0.14
09:02:07.888,-0.035,-0.13
09:02:07.892,-0.025,-0.135
09:02:07.896,-0.03,-0.135
09:02:07.900,-0.025,-0.14
09:02:07.904,-0.045,-0.15
09:02:07.908,-0.025,-0.135
09:02:07.912,-0.02,-0.125
09:02:07.916,-0.02,-0.125
09:02:07.920,-0.02,-0.13
09:02:07.924,-0.02,-0.145
09:02:07.928,0.0,-0.14
09:02:07.932,-0.01,-0.135
09:02:07.936,0.0,-0.12
09:02:07.940,0.005,-0.13
09:02:07.944,0.005,-0.13
09:02:07.948,0.0,-0.125
09:02:07.952,0.005,-0.115
09:02:07.956,0.0,-0.115
09:02:07.960,-0.025,-0.105
09:02:07.964,-0.04,-0.1
09:02:07.968,-0.03,-0.11
09:02:07.972,-0.035,-0.115
09:02:07.976,-0.055,-0.1
09:02:07.980,-0.065,-0.12
09:02:07.984,-0.08,-0.11
09:02:07.988,-0.09,-0.115
09:02:07.992,-0.095,-0.125
09:02:07.996,-0.1,-0.125
09:02:08.000,-0.085,-0.13
09:02:08.004,-0.095,-0.12
09:02:08.008,-0.085,-0.11
09:02:08.012,-0.09,-0.12
09:02:08.016,-0.06,-0.11
09:02:08.020,-0.075,-0.1
09:02:08.024,-0.04,-0.09
09:02:08.028,-0.065,-0.075
09:02:08.032,-0.075,-0.045
09:02:08.036,-0.08,-0.03
09:02:08.040,-0.105,-0.05
09:02:08.044,-0.075,-0.065
09:02:08.048,-0.02,-0.075
09:02:08.052,0.02,-0.06
09:02:08.056,-0.01,-0.03
09:02:08.060,-0.095,0.0
09:02:08.064,-0.23,0.015
09:02:08.068,-0.36,0.045
09:02:08.072,-0.455,0.055
09:02:08.076,-0.45,0.07
09:02:08.080,-0.415,0.05
09:02:08.084,-0.335,0.01
09:02:08.088,-0.25,-0.01
09:02:08.092,-0.2,-0.075
09:02:08.096,-0.16,-0.09
09:02:08.100,-0.145,-0.11
09:02:08.104,-0.1,-0.135
09:02:08.108,-0.085,-0.14
09:02:08.112,-0.075,-0.15
09:02:08.116,-0.065,-0.135
09:02:08.120,-0.055,-0.12
09:02:08.124,-0.055,-0.14
09:02:08.128,-0.06,-0.135
09:02:08.132,-0.045,-0.13
09:02:08.136,-0.04,-0.155
09:02:08.140,-0.06,-0.155
09:02:08.144,-0.045,-0.15
09:02:08.148,-0.055,-0.16
09:02:08.152,-0.075,-0.175
09:02:08.156,-0.095,-0.16
09:02:08.160,-0.075,-0.18
09:02:08.164,-0.045,-0.17
09:02:08.168,-0.055,-0.17
09:02:08.172,-0.04,-0.155
09:02:08.176,-0.085,-0.16
09:02:08.180,-0.085,-0.16
09:02:08.184,-0.08,-0.15
09:02:08.188,-0.06,-0.155
09:02:08.192,-0.04,-0.15
09:02:08.196,-0.05,-0.15
09:02:08.200,-0.05,-0.155
09:02:08.204,-0.03,-0.15
09:02:08.208,-0.035,-0.16
09:02:08.212,-0.03,-0.16
09:02:08.216,-0.025,-0.165
09:02:08.220,-0.025,-0.155
09:02:08.224,-0.015,-0.155
09:02:08.228,-0.015,-0.16
09:02:08.232,-0.025,-0.155
09:02:08.236,0.0,-0.16
09:02:08.240,0.0,-0.15
09:02:08.244,-0.005,-0.14
09:02:08.248,-0.02,-0.14
09:02:08.252,-0.04,-0.135
09:02:08.256,-0.045,-0.14
09:02:08.260,-0.045,-0.135
09:02:08.264,-0.04,-0.135
09:02:08.268,-0.065,-0.145
09:02:08.272,-0.07,-0.15
09:02:08.276,-0.075,-0.145
09:02:08.280,-0.07,-0.125
09:02:08.284,-0.08,-0.1
09:02:08.288,-0.06,-0.105
09:02:08.292,-0.065,-0.13
09:02:08.296,-0.075,-0.14
09:02:08.300,-0.07,-0.14
09:02:08.304,-0.09,-0.125
09:02:08.308,-0.09,-0.115
09:02:08.312,-0.1,-0.145
09:02:08.316,-0.095,-0.135
09:02:08.320,-0.085,-0.13
09:02:08.324,-0.08,-0.11
09:02:08.328,-0.05,-0.11
09:02:08.332,-0.06,-0.09
09:02:08.336,-0.065,-0.105
09:02:08.340,-0.07,-0.11
09:02:08.344,-0.07,-0.105
09:02:08.348,-0.085,-0.12
09:02:08.352,-0.09,-0.105
09:02:08.356,-0.08,-0.1
09:02:08.360,-0.07,-0.095
09:02:08.364,-0.06,-0.1
09:02:08.368,-0.05,-0.095
09:02:08.372,-0.055,-0.11
09:02:08.376,-0.065,-0.115
09:02:08.380,-0.09,-0.095
09:02:08.384,-0.05,-0.095
09:02:08.388,-0.03,-0.08
09:02:08.392,-0.045,-0.105
09:02:08.396,-0.08,-0.13
09:02:08.400,-0.12,-0.14
09:02:08.404,-0.125,-0.14
09:02:08.408,-0.12,-0.125
09:02:08.412,-0.115,-0.14
09:02:08.416,-0.105,-0.115
09:02:08.420,-0.09,-0.12
09:02:08.424,-0.105,-0.14
09:02:08.428,-0.115,-0.14
09:02:08.432,-0.12,-0.145
09:02:08.436,-0.12,-0.13
09:02:08.440,-0.105,-0.125
09:02:08.444,-0.115,-0.14
09:02:08.448,-0.1,-0.135
09:02:08.452,-0.1,-0.145
09:02:08.456,-0.095,-0.135
09:02:08.460,-0.095,-0.135
09:02:08.464,-0.08,-0.15
09:02:08.468,-0.1,-0.145
09:02:08.472,-0.075,-0.155
09:02:08.476,-0.07,-0.15
09:02:08.480,-0.075,-0.145
09:02:08.484,-0.06,-0.14
09:02:08.488,-0.065,-0.135
09:02:08.492,-0.065,-0.135
09:02:08.496,-0.06,-0.135
09:02:08.500,-0.065,-0.135
09:02:08.504,-0.05,-0.12
09:02:08.508,-0.055,-0.1
09:02:08.512,-0.05,-0.11
09:02:08.516,-0.05,-0.12
09:02:08.520,-0.04,-0.13
09:02:08.524,-0.03,-0.13
09:02:08.528,-0.05,-0.135
09:02:08.532,-0.055,-0.115
09:02:08.536,-0.1,-0.09
09:02:08.540,-0.12,-0.085
09:02:08.544,-0.1,-0.08
09:02:08.548,-0.105,-0.055
09:02:08.552,-0.11,-0.015
09:02:08.556,-0.115,-0.025
09:02:08.560,-0.115,-0.06
09:02:08.564,-0.07,-0.08
09:02:08.568,-0.055,-0.08
09:02:08.572,-0.04,-0.055
09:02:08.576,-0.055,-0.035
09:02:08.580,-0.16,-0.025
09:02:08.584,-0.3,-0.015
09:02:08.588,-0.4,0.005
09:02:08.592,-0.43,0.025
09:02:08.596,-0.44,0.04
09:02:08.600,-0.4,0.0
09:02:08.604,-0.33,-0.055
09:02:08.608,-0.245,-0.1
09:02:08.612,-0.19,-0.12
09:02:08.616,-0.155,-0.12
09:02:08.620,-0.135,-0.14
09:02:08.624,-0.11,-0.16
09:02:08.628,-0.105,-0.165
09:02:08.632,-0.095,-0.155
09:02:08.636,-0.075,-0.125
09:02:08.640,-0.08,-0.13
09:02:08.644,-0.085,-0.15
09:02:08.648,-0.06,-0.145
09:02:08.652,-0.05,-0.155
09:02:08.656,-0.055,-0.145
09:02:08.660,-0.06,-0.155
09:02:08.664,-0.045,-0.155
09:02:08.668,-0.06,-0.165
09:02:08.672,-0.06,-0.175
09:02:08.676,-0.06,-0.175
09:02:08.680,-0.055,-0.17
09:02:08.684,-0.05,-0.17
09:02:08.688,-0.05,-0.17
09:02:08.692,-0.02,-0.17
09:02:08.696,-0.02,-0.165
09:02:08.700,-0.035,-0.155
09:02:08.704,-0.065,-0.14
09:02:08.708,-0.085,-0.14
09:02:08.712,-0.085,-0.145
09:02:08.716,-0.075,-0.14
09:02:08.720,-0.085,-0.135
09:02:08.724,-0.055,-0.14
09:02:08.728,-0.045,-0.135
09:02:08.732,-0.07,-0.13
09:02:08.736,-0.075,-0.14
09:02:08.740,-0.065,-0.125
09:02:08.744,-0.055,-0.15
09:02:08.748,-0.025,-0.175
09:02:08.752,-0.04,-0.195
09:02:08.756,-0.04,-0.165
09:02:08.760,-0.04,-0.155
09:02:08.764,-0.025,-0.14
09:02:08.768,-0.025,-0.145
09:02:08.772,-0.055,-0.15
09:02:08.776,-0.055,-0.15
09:02:08.780,-0.03,-0.145
09:02:08.784,-0.04,-0.13
09:02:08.788,-0.03,-0.145
09:02:08.792,-0.04,-0.16
09:02:08.796,-0.065,-0.155
09:02:08.800,-0.06,-0.15
09:02:08.804,-0.065,-0.15
09:02:08.808,-0.055,-0.135
09:02:08.812,-0.025,-0.135
09:02:08.816,-0.015,-0.125
09:02:08.820,-0.035,-0.115
09:02:08.824,-0.07,-0.125
09:02:08.828,-0.095,-0.14
09:02:08.832,-0.085,-0.135
09:02:08.836,-0.075,-0.11
09:02:08.840,-0.06,-0.11
09:02:08.844,-0.07,-0.085
09:02:08.848,-0.035,-0.08
09:02:08.852,-0.04,-0.1
09:02:08.856,-0.045,-0.11
09:02:08.860,-0.055,-0.105
09:02:08.864,-0.075,-0.1
09:02:08.868,-0.07,-0.11
09:02:08.872,-0.06,-0.115
09:02:08.876,-0.035,-0.125
09:02:08.880,-0.025,-0.115
09:02:08.884,-0.04,-0.1
09:02:08.888,-0.03,-0.105
09:02:08.892,-0.04,-0.1
09:02:08.896,-0.01,-0.12
09:02:08.900,0.0,-0.11
09:02:08.904,-0.005,-0.115
09:02:08.908,-0.02,-0.115
09:02:08.912,-0.01,-0.1
09:02:08.916,-0.015,-0.11
09:02:08.920,-0.015,-0.105
09:02:08.924,-0.005,-0.1
09:02:08.928,0.005,-0.105
09:02:08.932,0.0,-0.095
09:02:08.936,-0.025,-0.105
09:02:08.940,-0.055,-0.12
09:02:08.944,-0.06,-0.12
09:02:08.948,-0.05,-0.1
09:02:08.952,-0.055,-0.125
09:02:08.956,-0.035,-0.12
09:02:08.960,-0.03,-0.1
09:02:08.964,-0.03,-0.115
09:02:08.968,-0.02,-0.125
09:02:08.972,-0.02,-0.115
09:02:08.976,-0.03,-0.12
09:02:08.980,-0.04,-0.125
09:02:08.984,-0.025,-0.12
09:02:08.988,-0.025,-0.11
09:02:08.992,-0.015,-0.125
09:02:08.996,-0.015,-0.125
09:02:09.000,-0.015,-0.105
09:02:09.004,0.0,-0.095
09:02:09.008,-0.005,-0.125
09:02:09.012,-0.02,-0.1
09:02:09.016,-0.035,-0.095
09:02:09.020,-0.025,-0.09
09:02:09.024,-0.035,-0.08
09:02:09.028,-0.005,-0.1
09:02:09.032,0.005,-0.13
09:02:09.036,0.045,-0.135
09:02:09.040,0.045,-0.12
09:02:09.044,-0.025,-0.115
09:02:09.048,-0.06,-0.12
09:02:09.052,-0.075,-0.12
09:02:09.056,-0.055,-0.12
09:02:09.060,-0.05,-0.12
09:02:09.064,-0.04,-0.125
09:02:09.068,-0.04,-0.125
09:02:09.072,-0.045,-0.115
09:02:09.076,-0.06,-0.14
09:02:09.080,-0.05,-0.13
09:02:09.084,-0.025,-0.13
09:02:09.088,-0.04,-0.11
09:02:09.092,-0.045,-0.12
09:02:09.096,-0.045,-0.12
09:02:09.100,-0.045,-0.115
09:02:09.104,-0.05,-0.105
09:02:09.108,-0.04,-0.12
09:02:09.112,-0.035,-0.115
09:02:09.116,-0.05,-0.11
09:02:09.120,-0.055,-0.11
09:02:09.124,-0.03,-0.095
09:02:09.128,-0.035,-0.095
09:02:09.132,-0.02,-0.095
09:02:09.136,-0.035,-0.11
09:02:09.140,-0.02,-0.12
09:02:09.144,-0.005,-0.115
09:02:09.148,-0.015,-0.115
09:02:09.152,-0.035,-0.11
09:02:09.156,-0.02,-0.09
09:02:09.160,-0.03,-0.1
09:02:09.164,-0.025,-0.095
09:02:09.168,-0.02,-0.065
09:02:09.172,-0.025,-0.035
09:02:09.176,-0.02,-0.005
09:02:09.180,-0.055,0.005
09:02:09.184,-0.06,-0.01
09:02:09.188,-0.03,-0.035
09:02:09.192,0.0,-0.045
09:02:09.196,0.025,-0.03
09:02:09.200,0.0,-0.01
09:02:09.204,-0.065,0.01
09:02:09.208,-0.21,0.025
09:02:09.212,-0.34,0.04
09:02:09.216,-0.415,0.055
09:02:09.220,-0.4,0.07
09:02:09.224,-0.36,0.05
09:02:09.228,-0.285,-0.005
09:02:09.232,-0.2,-0.04
09:02:09.236,-0.145,-0.09
09:02:09.240,-0.12,-0.095
09:02:09.244,-0.11,-0.085
09:02:09.248,-0.09,-0.105
09:02:09.252,-0.055,-0.105
09:02:09.256,0.0,-0.115
09:02:09.260,0.055,-0.11
09:02:09.264,0.055,-0.13
09:02:09.268,-0.02,-0.12
09:02:09.272,-0.045,-0.14
09:02:09.276,-0.035,-0.115
09:02:09.280,-0.005,-0.115
09:02:09.284,-0.01,-0.14
09:02:09.288,-0.015,-0.15
09:02:09.292,0.0,-0.145
09:02:09.296,0.01,-0.155
09:02:09.300,0.03,-0.155
09:02:09.304,0.03,-0.16
09:02:09.308,0.02,-0.14
09:02:09.312,0.015,-0.145
09:02:09.316,0.02,-0.145
09:02:09.320,0.015,-0.13
09:02:09.324,0.03,-0.125
09:02:09.328,0.045,-0.12
09:02:09.332,0.025,-0.12
09:02:09.336,0.04,-0.13
09:02:09.340,0.045,-0.12
09:02:09.344,0.045,-0.135
09:02:09.348,0.015,-0.14
09:02:09.352,0.035,-0.145
09:02:09.356,0.035,-0.155
09:02:09.360,0.04,-0.14
09:02:09.364,0.05,-0.16
09:02:09.368,0.065,-0.145
09:02:09.372,0.105,-0.16
09:02:09.376,0.09,-0.155
09:02:09.380,0.09,-0.145
09:02:09.384,0.07,-0.13
09:02:09.388,0.025,-0.135
09:02:09.392,0.015,-0.135
09:02:09.396,0.04,-0.155
09:02:09.400,0.04,-0.145
09:02:09.404,0.03,-0.14
09:02:09.408,0.03,-0.13
09:02:09.412,0.015,-0.13
09:02:09.416,0.01,-0.14
09:02:09.420,0.03,-0.16
09:02:09.424,0.025,-0.155
09:02:09.428,0.03,-0.155
09:02:09.432,0.025,-0.155
09:02:09.436,0.02,-0.135
09:02:09.440,0.03,-0.13
09:02:09.444,0.025,-0.12
09:02:09.448,0.005,-0.13
09:02:09.452,0.02,-0.125
09:02:09.456,0.02,-0.115
09:02:09.460,0.02,-0.125
09:02:09.464,0.01,-0.13
09:02:09.468,0.02,-0.14
09:02:09.472,0.025,-0.125
09:02:09.476,0.0,-0.12
09:02:09.480,0.01,-0.125
09:02:09.484,0.005,-0.12
09:02:09.488,0.01,-0.115
09:02:09.492,0.0,-0.11
09:02:09.496,0.0,-0.11
09:02:09.500,0.005,-0.125
09:02:09.504,0.0,-0.125
09:02:09.508,0.02,-0.11
09:02:09.512,0.025,-0.11
09:02:09.516,0.04,-0.095
09:02:09.520,0.055,-0.095
09:02:09.524,0.085,-0.105
09:02:09.528,0.075,-0.105
09:02:09.532,0.075,-0.105
09:02:09.536,0.075,-0.095
09:02:09.540,0.05,-0.085
09:02:09.544,0.01,-0.08
09:02:09.548,-0.035,-0.09
09:02:09.552,-0.035,-0.11
09:02:09.556,-0.015,-0.12
09:02:09.560,-0.01,-0.12
09:02:09.564,0.015,-0.1
09:02:09.568,0.01,-0.105
09:02:09.572,0.015,-0.105
09:02:09.576,0.01,-0.11
09:02:09.580,0.01,-0.11
09:02:09.584,0.01,-0.11
09:02:09.588,0.01,-0.11
09:02:09.592,0.02,-0.11
09:02:09.596,0.01,-0.115
09:02:09.600,0.02,-0.115
09:02:09.604,0.02,-0.135
09:02:09.608,0.01,-0.125
09:02:09.612,0.025,-0.135
09:02:09.616,0.03,-0.13
09:02:09.620,0.055,-0.13
09:02:09.624,0.045,-0.145
09:02:09.628,0.035,-0.16
09:02:09.632,0.03,-0.16
09:02:09.636,0.03,-0.145
09:02:09.640,0.035,-0.135
09:02:09.644,0.045,-0.12
09:02:09.648,0.06,-0.11
09:02:09.652,0.08,-0.09
09:02:09.656,0.085,-0.08
09:02:09.660,0.08,-0.09
09:02:09.664,0.045,-0.1
09:02:09.668,0.0,-0.095
09:02:09.672,0.005,-0.095
09:02:09.676,0.025,-0.1
09:02:09.680,0.06,-0.105
09:02:09.684,0.065,-0.09
09:02:09.688,0.035,-0.1
09:02:09.692,0.01,-0.1
09:02:09.696,0.015,-0.115
09:02:09.700,0.01,-0.11
09:02:09.704,0.005,-0.105
09:02:09.708,0.02,-0.1
09:02:09.712,0.015,-0.1
09:02:09.716,0.015,-0.1
09:02:09.720,-0.005,-0.09
09:02:09.724,0.01,-0.105
09:02:09.728,0.025,-0.105
09:02:09.732,0.015,-0.09
09:02:09.736,0.02,-0.09
09:02:09.740,0.03,-0.06
09:02:09.744,0.03,-0.02
09:02:09.748,0.01,0.01
09:02:09.752,-0.02,0.02
09:02:09.756,-0.01,-0.04
09:02:09.760,0.035,-0.075
09:02:09.764,0.06,-0.09
09:02:09.768,0.05,-0.075
09:02:09.772,-0.005,-0.055
09:02:09.776,-0.165,-0.025
09:02:09.780,-0.31,-0.005
09:02:09.784,-0.37,0.015
09:02:09.788,-0.345,0.04
09:02:09.792,-0.31,0.025
09:02:09.796,-0.24,-0.01
09:02:09.800,-0.165,-0.04
09:02:09.804,-0.12,-0.09
09:02:09.808,-0.075,-0.12
09:02:09.812,-0.045,-0.125
09:02:09.816,-0.025,-0.135
09:02:09.820,0.01,-0.125
09:02:09.824,0.01,-0.12
09:02:09.828,0.045,-0.11
09:02:09.832,0.08,-0.105
09:02:09.836,0.075,-0.125
09:02:09.840,0.1,-0.13
09:02:09.844,0.115,-0.13
09:02:09.848,0.115,-0.145
09:02:09.852,0.09,-0.15
09:02:09.856,0.11,-0.145
09:02:09.860,0.1,-0.145
09:02:09.864,0.115,-0.155
09:02:09.868,0.115,-0.15
09:02:09.872,0.12,-0.16
09:02:09.876,0.12,-0.16
09:02:09.880,0.115,-0.16
09:02:09.884,0.12,-0.145
09:02:09.888,0.14,-0.135
09:02:09.892,0.145,-0.135
09:02:09.896,0.145,-0.15
09:02:09.900,0.135,-0.135
09:02:09.904,0.155,-0.135
09:02:09.908,0.17,-0.125
09:02:09.912,0.205,-0.135
09:02:09.916,0.21,-0.125
09:02:09.920,0.17,-0.11
09:02:09.924,0.115,-0.11
09:02:09.928,0.1,-0.125
09:02:09.932,0.125,-0.15
09:02:09.936,0.115,-0.155
09:02:09.940,0.14,-0.145
09:02:09.944,0.125,-0.145
09:02:09.948,0.13,-0.145
09:02:09.952,0.115,-0.14
09:02:09.956,0.13,-0.15
09:02:09.960,0.15,-0.145
09:02:09.964,0.17,-0.13
09:02:09.968,0.17,-0.13
09:02:09.972,0.175,-0.14
09:02:09.976,0.17,-0.15
09:02:09.980,0.17,-0.16
09:02:09.984,0.17,-0.15
09:02:09.988,0.165,-0.145
09:02:09.992,0.15,-0.145
09:02:09.996,0.17,-0.145
09:02:10.000,0.17,-0.15
09:02:10.004,0.17,-0.155
09:02:10.008,0.175,-0.13
09:02:10.012,0.185,-0.13
09:02:10.016,0.175,-0.12
09:02:10.020,0.17,-0.115
09:02:10.024,0.16,-0.1
09:02:10.028,0.17,-0.1
09:02:10.032,0.165,-0.1
09:02:10.036,0.175,-0.105
09:02:10.040,0.17,-0.095
09:02:10.044,0.155,-0.08
09:02:10.048,0.18,-0.08
09:02:10.052,0.16,-0.085
09:02:10.056,0.15,-0.08
09:02:10.060,0.16,-0.08
09:02:10.064,0.15,-0.07
09:02:10.068,0.14,-0.07
09:02:10.072,0.14,-0.075
09:02:10.076,0.135,-0.09
09:02:10.080,0.135,-0.085
09:02:10.084,0.15,-0.1
09:02:10.088,0.155,-0.095
09:02:10.092,0.155,-0.09
09:02:10.096,0.13,-0.095
09:02:10.100,0.13,-0.085
09:02:10.104,0.175,-0.095
09:02:10.108,0.195,-0.1
09:02:10.112,0.18,-0.1
09:02:10.116,0.145,-0.105
09:02:10.120,0.115,-0.115
09:02:10.124,0.135,-0.105
09:02:10.128,0.12,-0.11
09:02:10.132,0.15,-0.115
09:02:10.136,0.155,-0.12
09:02:10.140,0.18,-0.115
09:02:10.144,0.16,-0.11
09:02:10.148,0.175,-0.11
09:02:10.152,0.17,-0.115
09:02:10.156,0.165,-0.1
09:02:10.160,0.16,-0.095
09:02:10.164,0.155,-0.11
09:02:10.168,0.155,-0.11
09:02:10.172,0.155,-0.095
09:02:10.176,0.155,-0.09
09:02:10.180,0.13,-0.085
09:02:10.184,0.125,-0.095
09:02:10.188,0.115,-0.105
09:02:10.192,0.12,-0.1
09:02:10.196,0.115,-0.095
09:02:10.200,0.11,-0.085
09:02:10.204,0.115,-0.09
09:02:10.208,0.1,-0.1
09:02:10.212,0.105,-0.1
09:02:10.216,0.115,-0.105
09:02:10.220,0.105,-0.09
09:02:10.224,0.125,-0.08
09:02:10.228,0.11,-0.085
09:02:10.232,0.105,-0.07
09:02:10.236,0.1,-0.07
09:02:10.240,0.115,-0.07
09:02:10.244,0.135,-0.08
09:02:10.248,0.14,-0.07
09:02:10.252,0.145,-0.055
09:02:10.256,0.14,-0.025
09:02:10.260,0.13,0.015
09:02:10.264,0.12,0.025
09:02:10.268,0.115,0.01
09:02:10.272,0.105,-0.01
09:02:10.276,0.155,-0.03
09:02:10.280,0.175,-0.025
09:02:10.284,0.185,0.01
09:02:10.288,0.095,0.01
09:02:10.292,-0.055,0.025
09:02:10.296,-0.225,0.04
09:02:10.300,-0.29,0.065
09:02:10.304,-0.285,0.075
09:02:10.308,-0.225,0.045
09:02:10.312,-0.175,0.0
09:02:10.316,-0.075,-0.06
09:02:10.320,-0.035,-0.1
09:02:10.324,0.02,-0.105
09:02:10.328,0.025,-0.115
09:02:10.332,0.045,-0.115
09:02:10.336,0.06,-0.115
09:02:10.340,0.085,-0.115
09:02:10.344,0.075,-0.095
09:02:10.348,0.09,-0.08
09:02:10.352,0.095,-0.1
09:02:10.356,0.095,-0.09
09:02:10.360,0.105,-0.095
09:02:10.364,0.1,-0.1
09:02:10.368,0.12,-0.13
09:02:10.372,0.095,-0.135
09:02:10.376,0.1,-0.145
09:02:10.380,0.11,-0.13
09:02:10.384,0.125,-0.13
09:02:10.388,0.13,-0.13
09:02:10.392,0.115,-0.135
09:02:10.396,0.125,-0.15
09:02:10.400,0.135,-0.14
09:02:10.404,0.135,-0.145
09:02:10.408,0.145,-0.14
09:02:10.412,0.14,-0.125
09:02:10.416,0.15,-0.135
09:02:10.420,0.13,-0.125
09:02:10.424,0.125,-0.13
09:02:10.428,0.12,-0.125
09:02:10.432,0.13,-0.13
09:02:10.436,0.14,-0.13
09:02:10.440,0.14,-0.13
09:02:10.444,0.14,-0.12
09:02:10.448,0.15,-0.12
09:02:10.452,0.16,-0.125
09:02:10.456,0.135,-0.13
09:02:10.460,0.115,-0.135
09:02:10.464,0.115,-0.125
09:02:10.468,0.14,-0.13
09:02:10.472,0.14,-0.13
09:02:10.476,0.115,-0.13
09:02:10.480,0.065,-0.14
09:02:10.484,0.065,-0.125
09:02:10.488,0.09,-0.125
09:02:10.492,0.09,-0.12
09:02:10.496,0.1,-0.105
09:02:10.500,0.095,-0.08
09:02:10.504,0.075,-0.07
09:02:10.508,0.075,-0.11
09:02:10.512,0.085,-0.14
09:02:10.516,0.09,-0.125
09:02:10.520,0.095,-0.11
09:02:10.524,0.095,-0.105
09:02:10.528,0.085,-0.095
09:02:10.532,0.075,-0.105
09:02:10.536,0.075,-0.095
09:02:10.540,0.09,-0.08
09:02:10.544,0.08,-0.08
09:02:10.548,0.09,-0.08
09:02:10.552,0.085,-0.08
09:02:10.556,0.09,-0.085
09:02:10.560,0.105,-0.08
09:02:10.564,0.09,-0.07
09:02:10.568,0.105,-0.075
09:02:10.572,0.13,-0.085
09:02:10.576,0.095,-0.09
09:02:10.580,0.105,-0.08
09:02:10.584,0.1,-0.075
09:02:10.588,0.09,-0.08
09:02:10.592,0.095,-0.08
09:02:10.596,0.09,-0.08
09:02:10.600,0.085,-0.08
09:02:10.604,0.075,-0.07
09:02:10.608,0.09,-0.055
09:02:10.612,0.09,-0.075
09:02:10.616,0.095,-0.09
09:02:10.620,0.1,-0.095
09:02:10.624,0.105,-0.095
09:02:10.628,0.1,-0.1
09:02:10.632,0.085,-0.085
09:02:10.636,0.12,-0.08
09:02:10.640,0.12,-0.08
09:02:10.644,0.105,-0.095
09:02:10.648,0.11,-0.1
09:02:10.652,0.075,-0.115
09:02:10.656,0.08,-0.11
09:02:10.660,0.075,-0.1
09:02:10.664,0.095,-0.095
09:02:10.668,0.085,-0.1
09:02:10.672,0.08,-0.095
09:02:10.676,0.045,-0.1
09:02:10.680,0.045,-0.11
09:02:10.684,0.06,-0.12
09:02:10.688,0.07,-0.11
09:02:10.692,0.09,-0.105
09:02:10.696,0.085,-0.105
09:02:10.700,0.085,-0.115
09:02:10.704,0.09,-0.09
09:02:10.708,0.095,-0.07
09:02:10.712,0.09,-0.075
09:02:10.716,0.095,-0.085
09:02:10.720,0.095,-0.095
09:02:10.724,0.085,-0.08
09:02:10.728,0.075,-0.075
09:02:10.732,0.07,-0.08
09:02:10.736,0.065,-0.1
09:02:10.740,0.055,-0.115
09:02:10.744,0.07,-0.1
09:02:10.748,0.09,-0.08
09:02:10.752,0.075,-0.08
09:02:10.756,0.085,-0.08
09:02:10.760,0.09,-0.085
09:02:10.764,0.09,-0.065
09:02:10.768,0.095,-0.025
09:02:10.772,0.085,0.015
09:02:10.776,0.035,0.05
09:02:10.780,0.04,0.035
09:02:10.784,0.055,0.0
09:02:10.788,0.1,-0.025
09:02:10.792,0.125,-0.03
09:02:10.796,0.13,-0.005
09:02:10.800,0.07,0.015
09:02:10.804,-0.05,0.03
09:02:10.808,-0.21,0.04
09:02:10.812,-0.29,0.06
09:02:10.816,-0.29,0.095
09:02:10.820,-0.3,0.08
09:02:10.824,-0.275,0.045
09:02:10.828,-0.195,-0.01
09:02:10.832,-0.13,-0.075
09:02:10.836,-0.085,-0.09
09:02:10.840,-0.065,-0.085
09:02:10.844,-0.01,-0.09
09:02:10.848,0.02,-0.105
09:02:10.852,0.025,-0.11
09:02:10.856,0.06,-0.095
09:02:10.860,0.055,-0.105
09:02:10.864,0.085,-0.105
09:02:10.868,0.08,-0.11
09:02:10.872,0.09,-0.115
09:02:10.876,0.105,-0.11
09:02:10.880,0.085,-0.125
09:02:10.884,0.08,-0.135
09:02:10.888,0.085,-0.125
09:02:10.892,0.09,-0.13
09:02:10.896,0.085,-0.125
09:02:10.900,0.1,-0.13
09:02:10.904,0.09,-0.125
09:02:10.908,0.09,-0.135
09:02:10.912,0.085,-0.125
09:02:10.916,0.08,-0.11
09:02:10.920,0.09,-0.115
09:02:10.924,0.1,-0.115
09:02:10.928,0.1,-0.115
09:02:10.932,0.095,-0.115
09:02:10.936,0.09,-0.1
09:02:10.940,0.11,-0.1
09:02:10.944,0.09,-0.1
09:02:10.948,0.085,-0.095
09:02:10.952,0.1,-0.105
09:02:10.956,0.105,-0.12
09:02:10.960,0.105,-0.11
09:02:10.964,0.12,-0.1
09:02:10.968,0.105,-0.105
09:02:10.972,0.125,-0.105
09:02:10.976,0.115,-0.115
09:02:10.980,0.115,-0.12
09:02:10.984,0.115,-0.1
09:02:10.988,0.125,-0.105
09:02:10.992,0.11,-0.105
09:02:10.996,0.1,-0.115
09:02:11.000,0.125,-0.115
09:02:11.004,0.145,-0.1
09:02:11.008,0.165,-0.09
09:02:11.012,0.14,-0.105
09:02:11.016,0.15,-0.115
09:02:11.020,0.14,-0.1
09:02:11.024,0.145,-0.095
09:02:11.028,0.15,-0.06
09:02:11.032,0.105,-0.065
09:02:11.036,0.08,-0.08
09:02:11.040,0.055,-0.085
09:02:11.044,0.07,-0.08
09:02:11.048,0.065,-0.075
09:02:11.052,0.07,-0.075
09:02:11.056,0.08,-0.065
09:02:11.060,0.08,-0.05
09:02:11.064,0.095,-0.05
09:02:11.068,0.08,-0.045
09:02:11.072,0.075,-0.05
09:02:11.076,0.075,-0.045
09:02:11.080,0.065,-0.04
09:02:11.084,0.06,-0.04
09:02:11.088,0.075,-0.04
09:02:11.092,0.085,-0.055
09:02:11.096,0.08,-0.05
09:02:11.100,0.09,-0.04
09:02:11.104,0.09,-0.05
09:02:11.108,0.08,-0.055
09:02:11.112,0.09,-0.055
09:02:11.116,0.085,-0.05
09:02:11.120,0.085,-0.06
09:02:11.124,0.08,-0.07
09:02:11.128,0.09,-0.095
09:02:11.132,0.1,-0.09
09:02:11.136,0.095,-0.085
09:02:11.140,0.1,-0.085
09:02:11.144,0.1,-0.085
09:02:11.148,0.115,-0.08
09:02:11.152,0.115,-0.085
09:02:11.156,0.115,-0.075
09:02:11.160,0.105,-0.06
09:02:11.164,0.085,-0.045
09:02:11.168,0.085,-0.055
09:02:11.172,0.1,-0.065
09:02:11.176,0.08,-0.06
09:02:11.180,0.09,-0.065
09:02:11.184,0.08,-0.05
09:02:11.188,0.075,-0.065
09:02:11.192,0.085,-0.06
09:02:11.196,0.075,-0.065
09:02:11.200,0.095,-0.07
09:02:11.204,0.075,-0.055
09:02:11.208,0.07,-0.07
09:02:11.212,0.06,-0.075
09:02:11.216,0.06,-0.075
09:02:11.220,0.07,-0.075
09:02:11.224,0.06,-0.08
09:02:11.228,0.07,-0.085
09:02:11.232,0.08,-0.095
09:02:11.236,0.075,-0.08
09:02:11.240,0.09,-0.08
09:02:11.244,0.085,-0.06
09:02:11.248,0.06,-0.085
09:02:11.252,0.07,-0.09
09:02:11.256,0.085,-0.09
09:02:11.260,0.085,-0.08
09:02:11.264,0.09,-0.08
09:02:11.268,0.085,-0.09
09:02:11.272,0.08,-0.08
09:02:11.276,0.09,-0.07
09:02:11.280,0.07,-0.065
09:02:11.284,0.095,-0.075
09:02:11.288,0.085,-0.07
09:02:11.292,0.08,-0.05
09:02:11.296,0.085,-0.03
09:02:11.300,0.08,-0.025
09:02:11.304,0.08,-0.025
09:02:11.308,0.08,-0.045
09:02:11.312,0.09,-0.04
09:02:11.316,0.09,-0.045
09:02:11.320,0.075,-0.03
09:02:11.324,0.05,-0.045
09:02:11.328,0.06,-0.035
09:02:11.332,0.06,-0.045
09:02:11.336,0.075,-0.035
09:02:11.340,0.07,-0.045
09:02:11.344,0.075,-0.05
09:02:11.348,0.075,-0.035
09:02:11.352,0.055,-0.005
09:02:11.356,0.06,0.025
09:02:11.360,0.035,0.035
09:02:11.364,0.05,0.035
09:02:11.368,0.035,0.015
09:02:11.372,0.09,-0.015
09:02:11.376,0.095,0.005
09:02:11.380,0.08,0.01
09:02:11.384,0.05,0.01
09:02:11.388,-0.06,0.015
09:02:11.392,-0.23,0.03
09:02:11.396,-0.32,0.055
09:02:11.400,-0.36,0.085
09:02:11.404,-0.32,0.095
09:02:11.408,-0.265,0.075
09:02:11.412,-0.205,0.045
09:02:11.416,-0.135,-0.01
09:02:11.420,-0.085,-0.06
09:02:11.424,-0.05,-0.09
09:02:11.428,-0.015,-0.1
09:02:11.432,0.005,-0.125
09:02:11.436,0.015,-0.12
09:02:11.440,0.03,-0.105
09:02:11.444,0.05,-0.065
09:02:11.448,0.055,-0.07
09:02:11.452,0.075,-0.075
09:02:11.456,0.055,-0.085
09:02:11.460,0.055,-0.085
09:02:11.464,0.07,-0.085
09:02:11.468,0.06,-0.095
09:02:11.472,0.06,-0.115
09:02:11.476,0.075,-0.11
09:02:11.480,0.08,-0.095
09:02:11.484,0.075,-0.105
09:02:11.488,0.075,-0.1
09:02:11.492,0.075,-0.105
09:02:11.496,0.065,-0.105
09:02:11.500,0.07,-0.095
09:02:11.504,0.06,-0.095
09:02:11.508,0.06,-0.11
09:02:11.512,0.08,-0.125
09:02:11.516,0.07,-0.125
09:02:11.520,0.085,-0.11
09:02:11.524,0.095,-0.105
09:02:11.528,0.1,-0.1
09:02:11.532,0.09,-0.105
09:02:11.536,0.06,-0.13
09:02:11.540,0.06,-0.135
09:02:11.544,0.065,-0.13
09:02:11.548,0.075,-0.12
09:02:11.552,0.075,-0.12
09:02:11.556,0.07,-0.12
09:02:11.560,0.085,-0.115
09:02:11.564,0.09,-0.13
09:02:11.568,0.085,-0.11
09:02:11.572,0.055,-0.1
09:02:11.576,0.065,-0.115
09:02:11.580,0.07,-0.095
09:02:11.584,0.06,-0.1
09:02:11.588,0.065,-0.095
09:02:11.592,0.07,-0.1
09:02:11.596,0.065,-0.095
09:02:11.600,0.07,-0.095
09:02:11.604,0.07,-0.09
09:02:11.608,0.075,-0.085
09:02:11.612,0.065,-0.1
09:02:11.616,0.07,-0.095
09:02:11.620,0.08,-0.08
09:02:11.624,0.085,-0.08
09:02:11.628,0.085,-0.085
09:02:11.632,0.095,-0.075
09:02:11.636,0.08,-0.07
09:02:11.640,0.08,-0.09
09:02:11.644,0.075,-0.085
09:02:11.648,0.08,-0.09
09:02:11.652,0.07,-0.085
09:02:11.656,0.075,-0.065
09:02:11.660,0.09,-0.065
09:02:11.664,0.085,-0.065
09:02:11.668,0.07,-0.055
09:02:11.672,0.06,-0.05
09:02:11.676,0.065,-0.06
09:02:11.680,0.07,-0.06
09:02:11.684,0.06,-0.06
09:02:11.688,0.06,-0.05
09:02:11.692,0.065,-0.065
09:02:11.696,0.06,-0.065
09:02:11.700,0.055,-0.05
09:02:11.704,0.08,-0.055
09:02:11.708,0.07,-0.07
09:02:11.712,0.06,-0.08
09:02:11.716,0.06,-0.08
09:02:11.720,0.065,-0.075
09:02:11.724,0.06,-0.075
09:02:11.728,0.065,-0.075
09:02:11.732,0.075,-0.07
09:02:11.736,0.075,-0.075
09:02:11.740,0.085,-0.075
09:02:11.744,0.09,-0.055
09:02:11.748,0.095,-0.06
09:02:11.752,0.09,-0.06
09:02:11.756,0.115,-0.075
09:02:11.760,0.095,-0.07
09:02:11.764,0.085,-0.07
09:02:11.768,0.09,-0.055
09:02:11.772,0.09,-0.06
09:02:11.776,0.075,-0.065
09:02:11.780,0.075,-0.08
09:02:11.784,0.06,-0.06
09:02:11.788,0.055,-0.055
09:02:11.792,0.055,-0.04
09:02:11.796,0.06,-0.055
09:02:11.800,0.055,-0.06
09:02:11.804,0.06,-0.065
09:02:11.808,0.06,-0.085
09:02:11.812,0.06,-0.075
09:02:11.816,0.065,-0.075
09:02:11.820,0.08,-0.075
09:02:11.824,0.085,-0.06
09:02:11.828,0.07,-0.055
09:02:11.832,0.075,-0.06
09:02:11.836,0.09,-0.06
09:02:11.840,0.07,-0.06
09:02:11.844,0.035,-0.065
09:02:11.848,0.02,-0.045
09:02:11.852,0.005,-0.02
09:02:11.856,0.015,0.005
09:02:11.860,0.005,0.02
09:02:11.864,0.01,0.02
09:02:11.868,0.04,0.015
09:02:11.872,0.08,0.015
09:02:11.876,0.095,0.01
09:02:11.880,0.055,0.0
09:02:11.884,-0.065,0.01
09:02:11.888,-0.235,0.035
09:02:11.892,-0.335,0.08
09:02:11.896,-0.355,0.095
09:02:11.900,-0.325,0.09
09:02:11.904,-0.26,0.06
09:02:11.908,-0.17,0.02
09:02:11.912,-0.1,-0.02
09:02:11.916,-0.06,-0.055
09:02:11.920,-0.02,-0.08
09:02:11.924,0.005,-0.085
09:02:11.928,0.04,-0.09
09:02:11.932,0.09,-0.07
09:02:11.936,0.105,-0.04
09:02:11.940,0.115,-0.035
09:02:11.944,0.12,-0.04
09:02:11.948,0.1,-0.055
09:02:11.952,0.085,-0.055
09:02:11.956,0.085,-0.055
09:02:11.960,0.085,-0.07
09:02:11.964,0.075,-0.07
09:02:11.968,0.08,-0.05
09:02:11.972,0.06,-0.065
09:02:11.976,0.055,-0.08
09:02:11.980,0.08,-0.09
09:02:11.984,0.085,-0.105
09:02:11.988,0.065,-0.105
09:02:11.992,0.08,-0.1
09:02:11.996,0.085,-0.1
09:02:12.000,0.08,-0.095
09:02:12.004,0.1,-0.08
09:02:12.008,0.09,-0.095
09:02:12.012,0.075,-0.095
09:02:12.016,0.055,-0.08
09:02:12.020,0.035,-0.095
09:02:12.024,0.06,-0.095
09:02:12.028,0.07,-0.105
09:02:12.032,0.08,-0.12
09:02:12.036,0.08,-0.12
09:02:12.040,0.095,-0.115
09:02:12.044,0.095,-0.105
09:02:12.048,0.095,-0.1
09:02:12.052,0.1,-0.11
09:02:12.056,0.105,-0.105
09:02:12.060,0.1,-0.085
09:02:12.064,0.11,-0.09
09:02:12.068,0.115,-0.09
09:02:12.072,0.11,-0.1
09:02:12.076,0.115,-0.08
09:02:12.080,0.13,-0.075
09:02:12.084,0.11,-0.065
09:02:12.088,0.12,-0.085
09:02:12.092,0.125,-0.08
09:02:12.096,0.13,-0.075
09:02:12.100,0.125,-0.06
09:02:12.104,0.11,-0.07
09:02:12.108,0.095,-0.06
09:02:12.112,0.06,-0.04
09:02:12.116,0.09,-0.045
09:02:12.120,0.085,-0.04
09:02:12.124,0.075,-0.05
09:02:12.128,0.05,-0.055
09:02:12.132,0.03,-0.05
09:02:12.136,0.035,-0.04
09:02:12.140,0.025,-0.04
09:02:12.144,0.025,-0.035
09:02:12.148,0.03,-0.035
09:02:12.152,0.035,-0.04
09:02:12.156,0.035,-0.055
09:02:12.160,0.025,-0.035
09:02:12.164,0.025,-0.04
09:02:12.168,0.06,-0.05
09:02:12.172,0.075,-0.05
09:02:12.176,0.105,-0.065
09:02:12.180,0.095,-0.06
09:02:12.184,0.08,-0.04
09:02:12.188,0.065,-0.045
09:02:12.192,0.06,-0.045
09:02:12.196,0.035,-0.04
09:02:12.200,0.015,-0.055
09:02:12.204,0.0,-0.05
09:02:12.208,0.02,-0.055
09:02:12.212,0.04,-0.055
09:02:12.216,0.045,-0.055
09:02:12.220,0.055,-0.045
09:02:12.224,0.06,-0.045
09:02:12.228,0.075,-0.045
09:02:12.232,0.055,-0.05
09:02:12.236,0.065,-0.04
09:02:12.240,0.075,-0.035
09:02:12.244,0.055,-0.045
09:02:12.248,0.055,-0.055
09:02:12.252,0.065,-0.055
09:02:12.256,0.045,-0.05
09:02:12.260,0.035,-0.03
09:02:12.264,0.035,-0.025
09:02:12.268,0.02,-0.055
09:02:12.272,0.025,-0.05
09:02:12.276,0.04,-0.06
09:02:12.280,0.01,-0.065
09:02:12.284,0.005,-0.065
09:02:12.288,0.015,-0.06
09:02:12.292,0.02,-0.065
09:02:12.296,0.02,-0.065
09:02:12.300,0.01,-0.065
09:02:12.304,0.015,-0.055
09:02:12.308,0.015,-0.065
09:02:12.312,0.0,-0.045
09:02:12.316,0.02,-0.055
09:02:12.320,0.02,-0.05
09:02:12.324,0.035,-0.065
09:02:12.328,0.04,-0.05
09:02:12.332,-0.005,-0.045
09:02:12.336,0.005,-0.035
09:02:12.340,-0.01,-0.025
09:02:12.344,0.0,-0.025
09:02:12.348,0.02,-0.015
09:02:12.352,0.0,0.02
09:02:12.356,0.005,0.045
09:02:12.360,-0.01,0.06
09:02:12.364,-0.005,0.03
09:02:12.368,0.02,-0.005
09:02:12.372,0.075,-0.01
09:02:12.376,0.07,0.005
09:02:12.380,0.03,0.03
09:02:12.384,-0.11,0.045
09:02:12.388,-0.27,0.065
09:02:12.392,-0.385,0.08
09:02:12.396,-0.405,0.12
09:02:12.400,-0.365,0.135
09:02:12.404,-0.33,0.1
09:02:12.408,-0.24,0.04
09:02:12.412,-0.16,-0.015
09:02:12.416,-0.145,-0.05
09:02:12.420,-0.125,-0.07
09:02:12.424,-0.1,-0.095
09:02:12.428,-0.07,-0.1
09:02:12.432,-0.055,-0.1
09:02:12.436,-0.035,-0.075
09:02:12.440,-0.005,-0.06
09:02:12.444,-0.02,-0.06
09:02:12.448,-0.02,-0.075
09:02:12.452,0.005,-0.075
09:02:12.456,0.0,-0.075
09:02:12.460,0.0,-0.08
09:02:12.464,0.0,-0.1
09:02:12.468,-0.01,-0.1
09:02:12.472,0.005,-0.1
09:02:12.476,0.025,-0.11
09:02:12.480,0.01,-0.1
09:02:12.484,0.02,-0.1
09:02:12.488,0.05,-0.11
09:02:12.492,0.045,-0.12
09:02:12.496,0.015,-0.115
09:02:12.500,0.02,-0.115
09:02:12.504,0.035,-0.115
09:02:12.508,0.045,-0.1
09:02:12.512,0.035,-0.1
09:02:12.516,0.02,-0.1
09:02:12.520,0.01,-0.09
09:02:12.524,0.0,-0.085
09:02:12.528,0.0,-0.09
09:02:12.532,0.0,-0.1
09:02:12.536,0.0,-0.12
09:02:12.540,0.0,-0.125
09:02:12.544,-0.005,-0.115
09:02:12.548,0.005,-0.1
09:02:12.552,0.015,-0.095
09:02:12.556,0.0,-0.105
09:02:12.560,-0.01,-0.095
09:02:12.564,-0.015,-0.105
09:02:12.568,0.01,-0.11
09:02:12.572,0.005,-0.105
09:02:12.576,-0.015,-0.115
09:02:12.580,0.0,-0.11
09:02:12.584,0.0,-0.105
09:02:12.588,0.0,-0.095
09:02:12.592,0.005,-0.095
09:02:12.596,0.015,-0.085
09:02:12.600,0.01,-0.08
09:02:12.604,-0.015,-0.07
09:02:12.608,-0.015,-0.065
09:02:12.612,0.0,-0.07
09:02:12.616,0.01,-0.08
09:02:12.620,0.025,-0.08
09:02:12.624,0.015,-0.07
09:02:12.628,0.015,-0.065
09:02:12.632,0.0,-0.065
09:02:12.636,0.0,-0.06
09:02:12.640,-0.015,-0.07
09:02:12.644,0.01,-0.065
09:02:12.648,0.015,-0.055
09:02:12.652,0.005,-0.05
09:02:12.656,0.0,-0.055
09:02:12.660,-0.015,-0.055
09:02:12.664,-0.04,-0.06
09:02:12.668,-0.02,-0.055
09:02:12.672,-0.005,-0.045
09:02:12.676,-0.005,-0.045
09:02:12.680,0.0,-0.065
09:02:12.684,-0.005,-0.055
09:02:12.688,-0.02,-0.05
09:02:12.692,-0.03,-0.075
09:02:12.696,-0.02,-0.075
09:02:12.700,-0.02,-0.075
09:02:12.704,-0.005,-0.075
09:02:12.708,-0.02,-0.065
09:02:12.712,-0.025,-0.06
09:02:12.716,-0.04,-0.07
09:02:12.720,-0.035,-0.065
09:02:12.724,-0.03,-0.06
09:02:12.728,-0.04,-0.06
09:02:12.732,-0.045,-0.075
09:02:12.736,-0.025,-0.085
09:02:12.740,-0.015,-0.085
09:02:12.744,-0.01,-0.08
09:02:12.748,0.0,-0.075
09:02:12.752,0.005,-0.065
09:02:12.756,0.005,-0.07
09:02:12.760,0.01,-0.08
09:02:12.764,0.01,-0.065
09:02:12.768,-0.005,-0.08
09:02:12.772,0.0,-0.075
09:02:12.776,0.005,-0.065
09:02:12.780,0.005,-0.065
09:02:12.784,0.01,-0.07
09:02:12.788,-0.015,-0.07
09:02:12.792,-0.01,-0.07
09:02:12.796,-0.01,-0.06
09:02:12.800,-0.015,-0.07
09:02:12.804,-0.01,-0.055
09:02:12.808,-0.015,-0.075
09:02:12.812,-0.02,-0.095
09:02:12.816,-0.02,-0.08
09:02:12.820,0.0,-0.06
09:02:12.824,-0.03,-0.07
09:02:12.828,-0.01,-0.065
09:02:12.832,-0.015,-0.06
09:02:12.836,-0.015,-0.05
09:02:12.840,-0.03,-0.07
09:02:12.844,-0.025,-0.09
09:02:12.848,-0.03,-0.1
09:02:12.852,-0.04,-0.09
09:02:12.856,-0.05,-0.08
09:02:12.860,-0.045,-0.085
09:02:12.864,-0.035,-0.08
09:02:12.868,-0.03,-0.075
09:02:12.872,-0.055,-0.07
09:02:12.876,-0.015,-0.075
09:02:12.880,-0.03,-0.06
09:02:12.884,-0.03,-0.05
09:02:12.888,-0.02,-0.025
09:02:12.892,-0.03,-0.005
09:02:12.896,-0.02,0.015
09:02:12.900,-0.025,0.02
09:02:12.904,-0.045,0.015
09:02:12.908,-0.005,-0.005
09:02:12.912,0.02,-0.02
09:02:12.916,0.04,0.0
09:02:12.920,0.025,0.015
09:02:12.924,-0.07,0.025
09:02:12.928,-0.235,0.05
09:02:12.932,-0.38,0.065
09:02:12.936,-0.425,0.105
09:02:12.940,-0.405,0.135
09:02:12.944,-0.34,0.1
09:02:12.948,-0.295,0.05
09:02:12.952,-0.225,0.0
09:02:12.956,-0.185,-0.045
09:02:12.960,-0.15,-0.05
09:02:12.964,-0.115,-0.065
09:02:12.968,-0.09,-0.07
09:02:12.972,-0.08,-0.08
09:02:12.976,-0.05,-0.085
09:02:12.980,-0.045,-0.08
09:02:12.984,-0.035,-0.07
09:02:12.988,-0.02,-0.085
09:02:12.992,-0.025,-0.095
09:02:12.996,-0.02,-0.105
09:02:13.000,-0.03,-0.1
09:02:13.004,-0.015,-0.11
09:02:13.008,-0.005,-0.1
09:02:13.012,-0.01,-0.115
09:02:13.016,-0.02,-0.115
09:02:13.020,-0.005,-0.12
09:02:13.024,0.005,-0.13
09:02:13.028,0.0,-0.12
09:02:13.032,0.005,-0.115
09:02:13.036,0.015,-0.1
09:02:13.040,0.005,-0.1
09:02:13.044,0.015,-0.115
09:02:13.048,0.01,-0.115
09:02:13.052,0.01,-0.12
09:02:13.056,0.02,-0.12
09:02:13.060,0.015,-0.115
09:02:13.064,0.03,-0.11
09:02:13.068,0.03,-0.115
09:02:13.072,0.04,-0.115
09:02:13.076,0.02,-0.105
09:02:13.080,0.02,-0.11
09:02:13.084,0.01,-0.1
09:02:13.088,-0.02,-0.105
09:02:13.092,-0.03,-0.1
09:02:13.096,-0.025,-0.085
09:02:13.100,-0.015,-0.115
09:02:13.104,-0.025,-0.105
09:02:13.108,-0.015,-0.1
09:02:13.112,-0.01,-0.1
09:02:13.116,-0.02,-0.1
09:02:13.120,-0.02,-0.135
09:02:13.124,-0.04,-0.145
09:02:13.128,-0.025,-0.135
09:02:13.132,-0.015,-0.135
09:02:13.136,0.0,-0.125
09:02:13.140,0.0,-0.115
09:02:13.144,-0.025,-0.115
09:02:13.148,0.01,-0.115
09:02:13.152,-0.015,-0.105
09:02:13.156,-0.005,-0.11
09:02:13.160,-0.01,-0.105
09:02:13.164,0.005,-0.095
09:02:13.168,0.0,-0.085
09:02:13.172,0.015,-0.08
09:02:13.176,0.015,-0.09
09:02:13.180,0.03,-0.075
09:02:13.184,0.025,-0.085
09:02:13.188,-0.01,-0.08
09:02:13.192,-0.015,-0.075
09:02:13.196,-0.03,-0.075
09:02:13.200,-0.03,-0.07
09:02:13.204,-0.03,-0.065
09:02:13.208,-0.045,-0.06
09:02:13.212,-0.04,-0.055
09:02:13.216,-0.055,-0.07
09:02:13.220,-0.05,-0.08
09:02:13.224,-0.055,-0.08
09:02:13.228,-0.035,-0.07
09:02:13.232,-0.04,-0.07
09:02:13.236,-0.05,-0.085
09:02:13.240,-0.05,-0.085
09:02:13.244,-0.05,-0.07
09:02:13.248,-0.055,-0.065
09:02:13.252,-0.035,-0.055
09:02:13.256,-0.035,-0.065
09:02:13.260,-0.05,-0.075
09:02:13.264,-0.035,-0.095
09:02:13.268,-0.035,-0.105
09:02:13.272,-0.04,-0.115
09:02:13.276,-0.04,-0.105
09:02:13.280,-0.04,-0.085
09:02:13.284,-0.03,-0.095
09:02:13.288,-0.025,-0.1
09:02:13.292,-0.025,-0.11
09:02:13.296,-0.04,-0.095
09:02:13.300,-0.065,-0.09
09:02:13.304,-0.055,-0.11
09:02:13.308,-0.035,-0.11
09:02:13.312,-0.035,-0.12
09:02:13.316,-0.035,-0.115
09:02:13.320,-0.025,-0.095
09:02:13.324,-0.02,-0.09
09:02:13.328,-0.035,-0.085
09:02:13.332,-0.035,-0.105
09:02:13.336,-0.015,-0.12
09:02:13.340,-0.01,-0.11
09:02:13.344,-0.01,-0.095
09:02:13.348,-0.04,-0.095
09:02:13.352,-0.04,-0.085
09:02:13.356,-0.035,-0.085
09:02:13.360,-0.06,-0.075
09:02:13.364,-0.055,-0.065
09:02:13.368,-0.05,-0.075
09:02:13.372,-0.07,-0.075
09:02:13.376,-0.08,-0.075
09:02:13.380,-0.07,-0.095
09:02:13.384,-0.055,-0.065
09:02:13.388,-0.08,-0.065
09:02:13.392,-0.07,-0.075
09:02:13.396,-0.07,-0.08
09:02:13.400,-0.085,-0.09
09:02:13.404,-0.075,-0.095
09:02:13.408,-0.075,-0.085
09:02:13.412,-0.06,-0.08
09:02:13.416,-0.07,-0.08
09:02:13.420,-0.075,-0.095
09:02:13.424,-0.07,-0.08
09:02:13.428,-0.075,-0.06
09:02:13.432,-0.065,-0.04
09:02:13.436,-0.05,-0.005
09:02:13.440,-0.065,0.02
09:02:13.444,-0.09,0.015
09:02:13.448,-0.05,-0.005
09:02:13.452,-0.01,-0.02
09:02:13.456,0.0,-0.01
09:02:13.460,-0.025,0.015
09:02:13.464,-0.105,0.02
09:02:13.468,-0.26,0.035
09:02:13.472,-0.4,0.04
09:02:13.476,-0.46,0.055
09:02:13.480,-0.47,0.09
09:02:13.484,-0.425,0.08
09:02:13.488,-0.355,0.04
09:02:13.492,-0.265,-0.02
09:02:13.496,-0.21,-0.065
09:02:13.500,-0.21,-0.09
09:02:13.504,-0.19,-0.09
09:02:13.508,-0.17,-0.1
09:02:13.512,-0.155,-0.12
09:02:13.516,-0.13,-0.13
09:02:13.520,-0.11,-0.12
09:02:13.524,-0.105,-0.105
09:02:13.528,-0.09,-0.11
09:02:13.532,-0.09,-0.125
09:02:13.536,-0.085,-0.13
09:02:13.540,-0.07,-0.13
09:02:13.544,-0.09,-0.145
09:02:13.548,-0.085,-0.14
09:02:13.552,-0.09,-0.14
09:02:13.556,-0.08,-0.135
09:02:13.560,-0.065,-0.135
09:02:13.564,-0.06,-0.14
09:02:13.568,-0.07,-0.145
09:02:13.572,-0.045,-0.16
09:02:13.576,-0.04,-0.155
09:02:13.580,-0.02,-0.135
09:02:13.584,-0.04,-0.135
09:02:13.588,-0.025,-0.14
09:02:13.592,-0.025,-0.14
09:02:13.596,-0.035,-0.14
09:02:13.600,-0.01,-0.135
09:02:13.604,-0.03,-0.125
09:02:13.608,-0.04,-0.145
09:02:13.612,-0.035,-0.135
09:02:13.616,-0.02,-0.145
09:02:13.620,-0.03,-0.14
09:02:13.624,-0.02,-0.145
09:02:13.628,-0.03,-0.125
09:02:13.632,-0.035,-0.135
09:02:13.636,-0.02,-0.135
09:02:13.640,-0.055,-0.13
09:02:13.644,-0.055,-0.13
09:02:13.648,-0.075,-0.155
09:02:13.652,-0.08,-0.14
09:02:13.656,-0.09,-0.135
09:02:13.660,-0.09,-0.145
09:02:13.664,-0.07,-0.13
09:02:13.668,-0.065,-0.14
09:02:13.672,-0.075,-0.14
09:02:13.676,-0.07,-0.135
09:02:13.680,-0.08,-0.135
09:02:13.684,-0.07,-0.14
09:02:13.688,-0.065,-0.14
09:02:13.692,-0.075,-0.125
09:02:13.696,-0.07,-0.115
09:02:13.700,-0.08,-0.115
09:02:13.704,-0.065,-0.12
09:02:13.708,-0.065,-0.12
09:02:13.712,-0.06,-0.125
09:02:13.716,-0.075,-0.11
09:02:13.720,-0.065,-0.1
09:02:13.724,-0.045,-0.095
09:02:13.728,-0.06,-0.095
09:02:13.732,-0.05,-0.085
09:02:13.736,-0.045,-0.095
09:02:13.740,-0.045,-0.095
09:02:13.744,-0.045,-0.095
09:02:13.748,-0.05,-0.105
09:02:13.752,-0.04,-0.095
09:02:13.756,-0.03,-0.085
09:02:13.760,-0.045,-0.075
09:02:13.764,-0.035,-0.08
09:02:13.768,-0.045,-0.085
09:02:13.772,-0.07,-0.08
09:02:13.776,-0.08,-0.075
09:02:13.780,-0.09,-0.075
09:02:13.784,-0.075,-0.08
09:02:13.788,-0.09,-0.09
09:02:13.792,-0.09,-0.095
09:02:13.796,-0.11,-0.09
09:02:13.800,-0.11,-0.075
09:02:13.804,-0.095,-0.095
09:02:13.808,-0.1,-0.1
09:02:13.812,-0.095,-0.115
09:02:13.816,-0.1,-0.105
09:02:13.820,-0.085,-0.105
09:02:13.824,-0.08,-0.095
09:02:13.828,-0.09,-0.115
09:02:13.832,-0.07,-0.105
09:02:13.836,-0.075,-0.105
09:02:13.840,-0.07,-0.11
09:02:13.844,-0.085,-0.11
09:02:13.848,-0.07,-0.11
09:02:13.852,-0.095,-0.1
09:02:13.856,-0.09,-0.11
09:02:13.860,-0.07,-0.1
09:02:13.864,-0.07,-0.1
09:02:13.868,-0.055,-0.11
09:02:13.872,-0.045,-0.12
09:02:13.876,-0.055,-0.095
09:02:13.880,-0.045,-0.09
09:02:13.884,-0.055,-0.095
09:02:13.888,-0.05,-0.12
09:02:13.892,-0.04,-0.13
09:02:13.896,-0.05,-0.125
09:02:13.900,-0.055,-0.12
09:02:13.904,-0.055,-0.1
09:02:13.908,-0.03,-0.105
09:02:13.912,-0.025,-0.095
09:02:13.916,-0.04,-0.085
09:02:13.920,-0.065,-0.1
09:02:13.924,-0.08,-0.085
09:02:13.928,-0.09,-0.085
09:02:13.932,-0.06,-0.08
09:02:13.936,-0.06,-0.07
09:02:13.940,-0.095,-0.07
09:02:13.944,-0.1,-0.065
09:02:13.948,-0.11,-0.095
09:02:13.952,-0.1,-0.095
09:02:13.956,-0.08,-0.095
09:02:13.960,-0.085,-0.095
09:02:13.964,-0.07,-0.085
09:02:13.968,-0.075,-0.085
09:02:13.972,-0.1,-0.1
09:02:13.976,-0.09,-0.095
09:02:13.980,-0.08,-0.075
09:02:13.984,-0.08,-0.07
09:02:13.988,-0.075,-0.075
09:02:13.992,-0.08,-0.07
09:02:13.996,-0.085,-0.085
09:02:14.000,-0.09,-0.08
09:02:14.004,-0.075,-0.075
09:02:14.008,-0.09,-0.09
09:02:14.012,-0.085,-0.07
09:02:14.016,-0.07,-0.04
09:02:14.020,-0.08,-0.01
09:02:14.024,-0.06,0.02
09:02:14.028,-0.08,0.025
09:02:14.032,-0.065,0.015
09:02:14.036,-0.04,-0.01
09:02:14.040,-0.015,-0.005
09:02:14.044,0.005,0.03
09:02:14.048,-0.04,0.055
09:02:14.052,-0.16,0.06
09:02:14.056,-0.315,0.09
09:02:14.060,-0.425,0.12
09:02:14.064,-0.455,0.135
09:02:14.068,-0.45,0.13
09:02:14.072,-0.39,0.085
09:02:14.076,-0.315,0.025
09:02:14.080,-0.235,-0.025
09:02:14.084,-0.185,-0.07
09:02:14.088,-0.18,-0.1
09:02:14.092,-0.165,-0.115
09:02:14.096,-0.14,-0.115
09:02:14.100,-0.13,-0.125
09:02:14.104,-0.115,-0.11
09:02:14.108,-0.09,-0.09
09:02:14.112,-0.09,-0.085
09:02:14.116,-0.06,-0.095
09:02:14.120,-0.08,-0.105
09:02:14.124,-0.095,-0.11
09:02:14.128,-0.095,-0.13
09:02:14.132,-0.09,-0.135
09:02:14.136,-0.085,-0.125
09:02:14.140,-0.08,-0.14
09:02:14.144,-0.06,-0.145
09:02:14.148,-0.07,-0.145
09:02:14.152,-0.065,-0.155
09:02:14.156,-0.045,-0.15
09:02:14.160,-0.035,-0.135
09:02:14.164,-0.04,-0.13
09:02:14.168,-0.06,-0.11
09:02:14.172,-0.065,-0.12
09:02:14.176,-0.035,-0.12
09:02:14.180,-0.015,-0.115
09:02:14.184,-0.02,-0.11
09:02:14.188,-0.03,-0.105
09:02:14.192,-0.015,-0.115
09:02:14.196,-0.015,-0.095
09:02:14.200,0.0,-0.11
09:02:14.204,-0.01,-0.1
09:02:14.208,-0.015,-0.11
09:02:14.212,-0.005,-0.11
09:02:14.216,-0.01,-0.12
09:02:14.220,0.0,-0.115
09:02:14.224,0.0,-0.125
09:02:14.228,-0.01,-0.125
09:02:14.232,-0.015,-0.135
09:02:14.236,-0.01,-0.12
09:02:14.240,-0.015,-0.12
09:02:14.244,-0.035,-0.115
09:02:14.248,-0.035,-0.12
09:02:14.252,-0.06,-0.085
09:02:14.256,-0.06,-0.085
09:02:14.260,-0.045,-0.1
09:02:14.264,-0.05,-0.12
09:02:14.268,-0.07,-0.135
09:02:14.272,-0.065,-0.125
09:02:14.276,-0.075,-0.12
09:02:14.280,-0.075,-0.1
09:02:14.284,-0.08,-0.095
09:02:14.288,-0.08,-0.08
09:02:14.292,-0.065,-0.08
09:02:14.296,-0.065,-0.105
09:02:14.300,-0.04,-0.12
09:02:14.304,-0.055,-0.095
09:02:14.308,-0.05,-0.08
09:02:14.312,-0.04,-0.07
09:02:14.316,-0.04,-0.08
09:02:14.320,-0.03,-0.065
09:02:14.324,-0.045,-0.065
09:02:14.328,-0.05,-0.07
09:02:14.332,-0.04,-0.075
09:02:14.336,-0.035,-0.065
09:02:14.340,-0.035,-0.075
09:02:14.344,-0.045,-0.065
09:02:14.348,-0.04,-0.075
09:02:14.352,-0.025,-0.075
09:02:14.356,-0.03,-0.07
09:02:14.360,-0.02,-0.055
09:02:14.364,-0.015,-0.065
09:02:14.368,-0.03,-0.065
09:02:14.372,-0.015,-0.07
09:02:14.376,-0.035,-0.055
09:02:14.380,-0.045,-0.07
09:02:14.384,-0.05,-0.075
09:02:14.388,-0.055,-0.065
09:02:14.392,-0.05,-0.07
09:02:14.396,-0.07,-0.065
09:02:14.400,-0.075,-0.07
09:02:14.404,-0.075,-0.065
09:02:14.408,-0.07,-0.065
09:02:14.412,-0.08,-0.08
09:02:14.416,-0.07,-0.085
09:02:14.420,-0.07,-0.095
09:02:14.424,-0.075,-0.105
09:02:14.428,-0.085,-0.105
09:02:14.432,-0.04,-0.105
09:02:14.436,-0.02,-0.08
09:02:14.440,-0.03,-0.09
09:02:14.444,-0.055,-0.09
09:02:14.448,-0.075,-0.075
09:02:14.452,-0.07,-0.09
09:02:14.456,-0.05,-0.085
09:02:14.460,-0.045,-0.09
09:02:14.464,-0.045,-0.105
09:02:14.468,-0.04,-0.115
09:02:14.472,-0.04,-0.095
09:02:14.476,-0.035,-0.08
09:02:14.480,-0.03,-0.08
09:02:14.484,-0.02,-0.095
09:02:14.488,-0.015,-0.085
09:02:14.492,-0.015,-0.11
09:02:14.496,-0.025,-0.09
09:02:14.500,-0.02,-0.09
09:02:14.504,-0.025,-0.105
09:02:14.508,-0.035,-0.105
09:02:14.512,-0.03,-0.1
09:02:14.516,-0.05,-0.09
09:02:14.520,-0.045,-0.09
09:02:14.524,-0.055,-0.08
09:02:14.528,-0.05,-0.075
09:02:14.532,-0.055,-0.095
09:02:14.536,-0.035,-0.095
09:02:14.540,-0.035,-0.095
09:02:14.544,-0.06,-0.09
09:02:14.548,-0.1,-0.08
09:02:14.552,-0.14,-0.085
09:02:14.556,-0.14,-0.085
09:02:14.560,-0.155,-0.075
09:02:14.564,-0.125,-0.08
09:02:14.568,-0.125,-0.09
09:02:14.572,-0.14,-0.1
09:02:14.576,-0.13,-0.1
09:02:14.580,-0.12,-0.09
09:02:14.584,-0.08,-0.08
09:02:14.588,-0.06,-0.095
09:02:14.592,-0.09,-0.08
09:02:14.596,-0.155,-0.065
09:02:14.600,-0.165,-0.05
09:02:14.604,-0.16,-0.055
09:02:14.608,-0.14,-0.065
09:02:14.612,-0.12,-0.08
09:02:14.616,-0.125,-0.09
09:02:14.620,-0.11,-0.08
09:02:14.624,-0.15,-0.075
09:02:14.628,-0.15,-0.085
09:02:14.632,-0.145,-0.075
09:02:14.636,-0.16,-0.055
09:02:14.640,-0.16,-0.035
09:02:14.644,-0.17,-0.02
09:02:14.648,-0.175,0.005
09:02:14.652,-0.19,0.02
09:02:14.656,-0.205,0.0
09:02:14.660,-0.185,-0.025
09:02:14.664,-0.15,-0.01
09:02:14.668,-0.15,0.01
09:02:14.672,-0.185,0.045
09:02:14.676,-0.265,0.05
09:02:14.680,-0.425,0.06
09:02:14.684,-0.54,0.08
09:02:14.688,-0.6,0.09
09:02:14.692,-0.575,0.115
09:02:14.696,-0.53,0.095
09:02:14.700,-0.45,0.03
09:02:14.704,-0.39,-0.02
09:02:14.708,-0.325,-0.07
09:02:14.712,-0.305,-0.095
09:02:14.716,-0.3,-0.12
09:02:14.720,-0.255,-0.125
09:02:14.724,-0.24,-0.14
09:02:14.728,-0.215,-0.13
09:02:14.732,-0.195,-0.11
09:02:14.736,-0.21,-0.085
09:02:14.740,-0.195,-0.11
09:02:14.744,-0.17,-0.12
09:02:14.748,-0.14,-0.11
09:02:14.752,-0.15,-0.12
09:02:14.756,-0.15,-0.125
09:02:14.760,-0.145,-0.13
09:02:14.764,-0.16,-0.14
09:02:14.768,-0.15,-0.14
09:02:14.772,-0.15,-0.125
09:02:14.776,-0.155,-0.125
09:02:14.780,-0.16,-0.125
09:02:14.784,-0.125,-0.115
09:02:14.788,-0.14,-0.11
09:02:14.792,-0.135,-0.115
09:02:14.796,-0.15,-0.115
09:02:14.800,-0.145,-0.115
09:02:14.804,-0.15,-0.115
09:02:14.808,-0.15,-0.115
09:02:14.812,-0.16,-0.11
09:02:14.816,-0.15,-0.13
09:02:14.820,-0.145,-0.125
09:02:14.824,-0.145,-0.125
09:02:14.828,-0.14,-0.12
09:02:14.832,-0.145,-0.13
09:02:14.836,-0.14,-0.12
09:02:14.840,-0.155,-0.115
09:02:14.844,-0.155,-0.12
09:02:14.848,-0.15,-0.12
09:02:14.852,-0.16,-0.11
09:02:14.856,-0.14,-0.125
09:02:14.860,-0.125,-0.11
09:02:14.864,-0.105,-0.12
09:02:14.868,-0.12,-0.135
09:02:14.872,-0.15,-0.155
09:02:14.876,-0.15,-0.145
09:02:14.880,-0.145,-0.125
09:02:14.884,-0.15,-0.12
09:02:14.888,-0.17,-0.12
09:02:14.892,-0.175,-0.125
09:02:14.896,-0.185,-0.12
09:02:14.900,-0.175,-0.12
09:02:14.904,-0.165,-0.115
09:02:14.908,-0.155,-0.13
09:02:14.912,-0.135,-0.11
09:02:14.916,-0.125,-0.095
09:02:14.920,-0.14,-0.1
09:02:14.924,-0.14,-0.09
09:02:14.928,-0.14,-0.09
09:02:14.932,-0.13,-0.085
09:02:14.936,-0.145,-0.07
09:02:14.940,-0.15,-0.06
09:02:14.944,-0.14,-0.07
09:02:14.948,-0.145,-0.065
09:02:14.952,-0.12,-0.09
09:02:14.956,-0.135,-0.075
09:02:14.960,-0.13,-0.075
09:02:14.964,-0.135,-0.075
09:02:14.968,-0.135,-0.06
09:02:14.972,-0.145,-0.05
09:02:14.976,-0.13,-0.055
09:02:14.980,-0.125,-0.045
09:02:14.984,-0.145,-0.05
09:02:14.988,-0.14,-0.075
09:02:14.992,-0.125,-0.055
09:02:14.996,-0.125,-0.05
09:02:15.000,-0.11,-0.075
09:02:15.004,-0.105,-0.075
09:02:15.008,-0.125,-0.085
09:02:15.012,-0.1,-0.08
09:02:15.016,-0.095,-0.065
09:02:15.020,-0.11,-0.08
09:02:15.024,-0.13,-0.08
09:02:15.028,-0.14,-0.085
09:02:15.032,-0.13,-0.095
09:02:15.036,-0.13,-0.085
09:02:15.040,-0.12,-0.09
09:02:15.044,-0.11,-0.09
09:02:15.048,-0.115,-0.085
09:02:15.052,-0.1,-0.09
09:02:15.056,-0.115,-0.1
09:02:15.060,-0.11,-0.11
09:02:15.064,-0.105,-0.115
09:02:15.068,-0.125,-0.11
09:02:15.072,-0.12,-0.105
09:02:15.076,-0.12,-0.09
09:02:15.080,-0.115,-0.095
09:02:15.084,-0.095,-0.085
09:02:15.088,-0.09,-0.09
09:02:15.092,-0.105,-0.095
09:02:15.096,-0.1,-0.095
09:02:15.100,-0.105,-0.095
09:02:15.104,-0.09,-0.09
09:02:15.108,-0.08,-0.1
09:02:15.112,-0.08,-0.095
09:02:15.116,-0.07,-0.1
09:02:15.120,-0.085,-0.08
09:02:15.124,-0.07,-0.07
09:02:15.128,-0.085,-0.065
09:02:15.132,-0.075,-0.07
09:02:15.136,-0.065,-0.07
09:02:15.140,-0.08,-0.07
09:02:15.144,-0.085,-0.065
09:02:15.148,-0.08,-0.055
09:02:15.152,-0.08,-0.06
09:02:15.156,-0.095,-0.06
09:02:15.160,-0.075,-0.045
09:02:15.164,-0.09,-0.07
09:02:15.168,-0.105,-0.055
09:02:15.172,-0.105,-0.065
09:02:15.176,-0.08,-0.08
09:02:15.180,-0.095,-0.085
09:02:15.184,-0.1,-0.09
09:02:15.188,-0.1,-0.08
09:02:15.192,-0.1,-0.08
09:02:15.196,-0.08,-0.06
09:02:15.200,-0.075,-0.055
09:02:15.204,-0.085,-0.015
09:02:15.208,-0.09,0.01
09:02:15.212,-0.1,0.03
09:02:15.216,-0.105,0.005
09:02:15.220,-0.105,-0.01
09:02:15.224,-0.055,-0.03
09:02:15.228,-0.035,-0.015
09:02:15.232,-0.055,0.015
09:02:15.236,-0.13,0.025
09:02:15.240,-0.3,0.06
09:02:15.244,-0.43,0.085
09:02:15.248,-0.475,0.12
09:02:15.252,-0.435,0.135
09:02:15.256,-0.39,0.11
09:02:15.260,-0.315,0.05
09:02:15.264,-0.27,-0.02
09:02:15.268,-0.205,-0.075
09:02:15.272,-0.18,-0.09
09:02:15.276,-0.16,-0.11
09:02:15.280,-0.125,-0.115
09:02:15.284,-0.12,-0.115
09:02:15.288,-0.105,-0.08
09:02:15.292,-0.075,-0.08
09:02:15.296,-0.065,-0.07
09:02:15.300,-0.06,-0.08
09:02:15.304,-0.06,-0.09
09:02:15.308,-0.08,-0.085
09:02:15.312,-0.065,-0.105
09:02:15.316,-0.07,-0.12
09:02:15.320,-0.05,-0.115
09:02:15.324,-0.06,-0.115
09:02:15.328,-0.065,-0.115
09:02:15.332,-0.075,-0.12
09:02:15.336,-0.05,-0.13
09:02:15.340,-0.07,-0.14
09:02:15.344,-0.05,-0.14
09:02:15.348,-0.05,-0.135
09:02:15.352,-0.025,-0.12
09:02:15.356,-0.025,-0.12
09:02:15.360,-0.02,-0.12
09:02:15.364,-0.02,-0.13
09:02:15.368,-0.015,-0.125
09:02:15.372,-0.015,-0.115
09:02:15.376,-0.02,-0.115
09:02:15.380,-0.01,-0.11
09:02:15.384,0.0,-0.12
09:02:15.388,0.0,-0.105
09:02:15.392,0.0,-0.105
09:02:15.396,-0.015,-0.105
09:02:15.400,-0.015,-0.085
09:02:15.404,-0.035,-0.095
09:02:15.408,-0.035,-0.1
09:02:15.412,-0.025,-0.1
09:02:15.416,-0.02,-0.1
09:02:15.420,-0.03,-0.1
09:02:15.424,-0.025,-0.115
09:02:15.428,-0.02,-0.11
09:02:15.432,-0.035,-0.105
09:02:15.436,-0.015,-0.11
09:02:15.440,-0.035,-0.095
09:02:15.444,-0.04,-0.105
09:02:15.448,-0.035,-0.12
09:02:15.452,-0.04,-0.115
09:02:15.456,-0.03,-0.115
09:02:15.460,-0.03,-0.095
09:02:15.464,-0.035,-0.105
09:02:15.468,-0.03,-0.105
09:02:15.472,-0.03,-0.1
09:02:15.476,-0.01,-0.11
09:02:15.480,-0.035,-0.105
09:02:15.484,-0.04,-0.115
09:02:15.488,-0.025,-0.11
09:02:15.492,-0.04,-0.095
09:02:15.496,-0.035,-0.085
09:02:15.500,-0.025,-0.095
09:02:15.504,-0.03,-0.08
09:02:15.508,-0.065,-0.08
09:02:15.512,-0.045,-0.085
09:02:15.516,-0.04,-0.08
09:02:15.520,-0.04,-0.07
09:02:15.524,-0.045,-0.09
09:02:15.528,-0.045,-0.08
09:02:15.532,-0.06,-0.08
09:02:15.536,-0.045,-0.055
09:02:15.540,-0.02,-0.05
09:02:15.544,-0.02,-0.055
09:02:15.548,-0.035,-0.08
09:02:15.552,-0.045,-0.075
09:02:15.556,-0.045,-0.08
09:02:15.560,-0.045,-0.07
09:02:15.564,-0.035,-0.075
09:02:15.568,-0.02,-0.075
09:02:15.572,-0.01,-0.065
09:02:15.576,-0.035,-0.08
09:02:15.580,-0.06,-0.09
09:02:15.584,-0.05,-0.095
09:02:15.588,-0.06,-0.085
09:02:15.592,-0.04,-0.1
09:02:15.596,-0.04,-0.08
09:02:15.600,-0.035,-0.09
09:02:15.604,-0.05,-0.1
09:02:15.608,-0.045,-0.125
09:02:15.612,-0.035,-0.12
09:02:15.616,-0.035,-0.125
09:02:15.620,-0.025,-0.11
09:02:15.624,-0.03,-0.11
09:02:15.628,-0.035,-0.11
09:02:15.632,-0.02,-0.12
09:02:15.636,-0.02,-0.1
09:02:15.640,-0.025,-0.1
09:02:15.644,-0.03,-0.105
09:02:15.648,-0.01,-0.1
09:02:15.652,0.0,-0.085
09:02:15.656,0.01,-0.085
09:02:15.660,0.0,-0.09
09:02:15.664,-0.03,-0.09
09:02:15.668,-0.04,-0.09
09:02:15.672,-0.035,-0.09
09:02:15.676,-0.025,-0.09
09:02:15.680,-0.015,-0.065
09:02:15.684,-0.015,-0.065
09:02:15.688,-0.005,-0.065
09:02:15.692,-0.02,-0.08
09:02:15.696,-0.025,-0.075
09:02:15.700,-0.045,-0.08
09:02:15.704,-0.025,-0.085
09:02:15.708,-0.025,-0.075
09:02:15.712,-0.02,-0.07
09:02:15.716,-0.02,-0.06
09:02:15.720,-0.015,-0.07
09:02:15.724,-0.015,-0.08
09:02:15.728,-0.01,-0.08
09:02:15.732,-0.01,-0.09
09:02:15.736,-0.02,-0.09
09:02:15.740,-0.02,-0.095
09:02:15.744,-0.02,-0.075
09:02:15.748,-0.03,-0.085
09:02:15.752,-0.02,-0.075
09:02:15.756,-0.005,-0.08
09:02:15.760,-0.015,-0.08
09:02:15.764,-0.005,-0.075
09:02:15.768,0.0,-0.1
09:02:15.772,-0.01,-0.105
09:02:15.776,-0.02,-0.105
09:02:15.780,-0.01,-0.1
09:02:15.784,-0.015,-0.085
09:02:15.788,-0.015,-0.085
09:02:15.792,-0.015,-0.08
09:02:15.796,-0.035,-0.08
09:02:15.800,-0.03,-0.09
09:02:15.804,-0.015,-0.1
09:02:15.808,-0.03,-0.095
09:02:15.812,-0.015,-0.09
09:02:15.816,-0.01,-0.085
09:02:15.820,-0.005,-0.08
09:02:15.824,0.0,-0.065
09:02:15.828,0.01,-0.06
09:02:15.832,0.005,-0.075
09:02:15.836,-0.005,-0.065
09:02:15.840,-0.005,-0.08
09:02:15.844,0.0,-0.08
09:02:15.848,0.025,-0.09
09:02:15.852,0.06,-0.08
09:02:15.856,0.055,-0.075
09:02:15.860,0.04,-0.09
09:02:15.864,0.005,-0.08
09:02:15.868,-0.03,-0.085
09:02:15.872,-0.055,-0.07
09:02:15.876,-0.055,-0.07
09:02:15.880,-0.06,-0.065
09:02:15.884,-0.05,-0.06
09:02:15.888,-0.065,-0.055
09:02:15.892,-0.04,-0.08
09:02:15.896,-0.035,-0.09
09:02:15.900,0.0,-0.09
09:02:15.904,0.005,-0.08
09:02:15.908,0.01,-0.08
09:02:15.912,0.01,-0.085
09:02:15.916,0.015,-0.095
09:02:15.920,0.015,-0.09
09:02:15.924,0.015,-0.085
09:02:15.928,0.015,-0.075
09:02:15.932,0.02,-0.08
09:02:15.936,0.01,-0.075
09:02:15.940,0.005,-0.065
09:02:15.944,0.005,-0.06
09:02:15.948,0.025,-0.04
09:02:15.952,0.005,-0.015
09:02:15.956,0.0,0.005
09:02:15.960,-0.01,-0.005
09:02:15.964,0.01,-0.02
09:02:15.968,0.035,-0.025
09:02:15.972,0.04,-0.01
09:02:15.976,0.025,0.01
09:02:15.980,-0.055,0.02
09:02:15.984,-0.2,0.025
09:02:15.988,-0.345,0.04
09:02:15.992,-0.385,0.07
09:02:15.996,-0.36,0.105
09:02:16.000,-0.355,0.095
09:02:16.004,-0.32,0.035
09:02:16.008,-0.25,-0.005
09:02:16.012,-0.16,-0.07
09:02:16.016,-0.07,-0.08
09:02:16.020,-0.03,-0.085
09:02:16.024,-0.02,-0.1
09:02:16.028,-0.02,-0.11
09:02:16.032,-0.01,-0.105
09:02:16.036,0.0,-0.08
09:02:16.040,0.015,-0.06
09:02:16.044,0.035,-0.075
09:02:16.048,0.05,-0.105
09:02:16.052,0.07,-0.11
09:02:16.056,0.085,-0.095
09:02:16.060,0.08,-0.11
09:02:16.064,0.055,-0.11
09:02:16.068,0.045,-0.11
09:02:16.072,0.04,-0.11
09:02:16.076,0.055,-0.115
09:02:16.080,0.06,-0.125
09:02:16.084,0.07,-0.135
09:02:16.088,0.095,-0.13
09:02:16.092,0.1,-0.115
09:02:16.096,0.1,-0.115
09:02:16.100,0.09,-0.1
09:02:16.104,0.06,-0.115
09:02:16.108,0.055,-0.135
09:02:16.112,0.055,-0.14
09:02:16.116,0.03,-0.135
09:02:16.120,0.03,-0.12
09:02:16.124,0.045,-0.115
09:02:16.128,0.02,-0.115
09:02:16.132,0.03,-0.12
09:02:16.136,0.045,-0.125
09:02:16.140,0.055,-0.115
09:02:16.144,0.065,-0.1
09:02:16.148,0.07,-0.115
09:02:16.152,0.065,-0.115
09:02:16.156,0.055,-0.105
09:02:16.160,0.07,-0.12
09:02:16.164,0.08,-0.1
09:02:16.168,0.05,-0.1
09:02:16.172,0.055,-0.105
09:02:16.176,0.06,-0.1
09:02:16.180,0.06,-0.115
09:02:16.184,0.07,-0.11
09:02:16.188,0.06,-0.115
09:02:16.192,0.095,-0.11
09:02:16.196,0.075,-0.12
09:02:16.200,0.07,-0.125
09:02:16.204,0.065,-0.125
09:02:16.208,0.07,-0.115
09:02:16.212,0.08,-0.105
09:02:16.216,0.075,-0.12
09:02:16.220,0.075,-0.11
09:02:16.224,0.08,-0.095
09:02:16.228,0.075,-0.09
09:02:16.232,0.07,-0.085
09:02:16.236,0.065,-0.095
09:02:16.240,0.05,-0.09
09:02:16.244,0.065,-0.09
09:02:16.248,0.07,-0.08
09:02:16.252,0.055,-0.085
09:02:16.256,0.05,-0.075
09:02:16.260,0.055,-0.08
09:02:16.264,0.075,-0.09
09:02:16.268,0.075,-0.075
09:02:16.272,0.05,-0.065
09:02:16.276,0.055,-0.065
09:02:16.280,0.03,-0.07
09:02:16.284,0.03,-0.06
09:02:16.288,0.045,-0.07
09:02:16.292,0.045,-0.065
09:02:16.296,0.05,-0.065
09:02:16.300,0.05,-0.085
09:02:16.304,0.055,-0.07
09:02:16.308,0.035,-0.08
09:02:16.312,0.055,-0.085
09:02:16.316,0.055,-0.075
09:02:16.320,0.055,-0.08
09:02:16.324,0.065,-0.075
09:02:16.328,0.075,-0.075
09:02:16.332,0.065,-0.095
09:02:16.336,0.075,-0.095
09:02:16.340,0.09,-0.085
09:02:16.344,0.085,-0.095
09:02:16.348,0.085,-0.08
09:02:16.352,0.08,-0.09
09:02:16.356,0.075,-0.095
09:02:16.360,0.09,-0.09
09:02:16.364,0.095,-0.09
09:02:16.368,0.12,-0.08
09:02:16.372,0.12,-0.075
09:02:16.376,0.11,-0.085
09:02:16.380,0.08,-0.105
09:02:16.384,0.095,-0.11
09:02:16.388,0.075,-0.105
09:02:16.392,0.055,-0.105
09:02:16.396,0.055,-0.105
09:02:16.400,0.055,-0.08
09:02:16.404,0.07,-0.1
09:02:16.408,0.04,-0.1
09:02:16.412,0.045,-0.09
09:02:16.416,0.04,-0.1
09:02:16.420,0.035,-0.09
09:02:16.424,0.055,-0.1
09:02:16.428,0.055,-0.08
09:02:16.432,0.06,-0.09
09:02:16.436,0.04,-0.095
09:02:16.440,0.045,-0.1
09:02:16.444,0.05,-0.1
09:02:16.448,0.035,-0.095
09:02:16.452,0.055,-0.095
09:02:16.456,0.05,-0.09
09:02:16.460,0.05,-0.08
09:02:16.464,0.05,-0.05
09:02:16.468,0.04,-0.02
09:02:16.472,0.03,0.01
09:02:16.476,0.025,0.005
09:02:16.480,0.04,-0.01
09:02:16.484,0.075,-0.02
09:02:16.488,0.11,-0.03
09:02:16.492,0.1,-0.035
09:02:16.496,0.02,-0.01
09:02:16.500,-0.13,0.02
09:02:16.504,-0.31,0.04
09:02:16.508,-0.38,0.075
09:02:16.512,-0.37,0.105
09:02:16.516,-0.315,0.09
09:02:16.520,-0.23,0.025
09:02:16.524,-0.16,-0.03
09:02:16.528,-0.105,-0.075
09:02:16.532,-0.09,-0.09
09:02:16.536,-0.06,-0.11
09:02:16.540,-0.015,-0.13
09:02:16.544,-0.005,-0.14
09:02:16.548,0.02,-0.125
09:02:16.552,0.04,-0.11
09:02:16.556,0.035,-0.11
09:02:16.560,0.065,-0.105
09:02:16.564,0.1,-0.11
09:02:16.568,0.095,-0.12
09:02:16.572,0.04,-0.125
09:02:16.576,0.02,-0.13
09:02:16.580,0.025,-0.14
09:02:16.584,0.02,-0.14
09:02:16.588,0.03,-0.15
09:02:16.592,0.025,-0.155
09:02:16.596,0.04,-0.15
09:02:16.600,0.065,-0.145
09:02:16.604,0.065,-0.145
09:02:16.608,0.07,-0.13
09:02:16.612,0.045,-0.13
09:02:16.616,0.05,-0.14
09:02:16.620,0.06,-0.145
09:02:16.624,0.085,-0.145
09:02:16.628,0.065,-0.125
09:02:16.632,0.06,-0.135
09:02:16.636,0.075,-0.13
09:02:16.640,0.07,-0.12
09:02:16.644,0.065,-0.11
09:02:16.648,0.065,-0.105
09:02:16.652,0.085,-0.12
09:02:16.656,0.055,-0.135
09:02:16.660,0.07,-0.14
09:02:16.664,0.065,-0.12
09:02:16.668,0.08,-0.135
09:02:16.672,0.065,-0.135
09:02:16.676,0.07,-0.125
09:02:16.680,0.065,-0.12
09:02:16.684,0.065,-0.13
09:02:16.688,0.065,-0.13
09:02:16.692,0.06,-0.125
09:02:16.696,0.08,-0.14
09:02:16.700,0.07,-0.15
09:02:16.704,0.07,-0.14
09:02:16.708,0.055,-0.145
09:02:16.712,0.06,-0.13
09:02:16.716,0.055,-0.14
09:02:16.720,0.065,-0.135
09:02:16.724,0.085,-0.125
09:02:16.728,0.1,-0.125
09:02:16.732,0.075,-0.125
09:02:16.736,0.04,-0.115
09:02:16.740,0.03,-0.12
09:02:16.744,0.03,-0.115
09:02:16.748,0.02,-0.105
09:02:16.752,0.03,-0.105
09:02:16.756,0.01,-0.1
09:02:16.760,0.0,-0.085
09:02:16.764,0.0,-0.075
09:02:16.768,0.01,-0.07
09:02:16.772,0.015,-0.075
09:02:16.776,0.01,-0.085
09:02:16.780,0.005,-0.1
09:02:16.784,0.005,-0.105
09:02:16.788,0.03,-0.105
09:02:16.792,0.015,-0.1
09:02:16.796,0.015,-0.09
09:02:16.800,0.015,-0.095
09:02:16.804,0.015,-0.085
09:02:16.808,0.02,-0.085
09:02:16.812,0.005,-0.095
09:02:16.816,0.015,-0.095
09:02:16.820,0.025,-0.095
09:02:16.824,0.03,-0.08
09:02:16.828,0.03,-0.095
09:02:16.832,0.04,-0.105
09:02:16.836,0.055,-0.115
09:02:16.840,0.04,-0.12
09:02:16.844,0.035,-0.13
09:02:16.848,0.045,-0.125
09:02:16.852,0.065,-0.12
09:02:16.856,0.08,-0.135
09:02:16.860,0.085,-0.13
09:02:16.864,0.06,-0.125
09:02:16.868,0.025,-0.12
09:02:16.872,0.015,-0.115
09:02:16.876,0.02,-0.12
09:02:16.880,0.03,-0.12
09:02:16.884,0.015,-0.125
09:02:16.888,0.035,-0.125
09:02:16.892,0.01,-0.125
09:02:16.896,-0.015,-0.13
09:02:16.900,0.0,-0.12
09:02:16.904,-0.01,-0.115
09:02:16.908,-0.01,-0.115
09:02:16.912,-0.015,-0.13
09:02:16.916,-0.015,-0.12
09:02:16.920,0.01,-0.12
09:02:16.924,0.01,-0.11
09:02:16.928,0.035,-0.105
09:02:16.932,0.035,-0.105
09:02:16.936,0.05,-0.1
09:02:16.940,0.05,-0.095
09:02:16.944,0.05,-0.09
09:02:16.948,0.0,-0.105
09:02:16.952,-0.015,-0.105
09:02:16.956,-0.02,-0.13
09:02:16.960,-0.015,-0.12
09:02:16.964,0.005,-0.12
09:02:16.968,0.01,-0.11
09:02:16.972,0.015,-0.09
09:02:16.976,0.015,-0.055
09:02:16.980,0.035,-0.02
09:02:16.984,0.05,0.025
09:02:16.988,0.055,0.065
09:02:16.992,0.045,0.085
09:02:16.996,0.055,0.085
09:02:17.000,0.045,0.095
09:02:17.004,0.075,0.08
09:02:17.008,0.15,0.07
09:02:17.012,0.215,0.055
09:02:17.016,0.245,0.035
09:02:17.020,0.255,0.035
09:02:17.024,0.255,-0.035
09:02:17.028,0.255,-0.155
09:02:17.032,0.265,-0.23
09:02:17.036,0.32,-0.285
09:02:17.040,0.385,-0.335
09:02:17.044,0.42,-0.375
09:02:17.048,0.42,-0.4
09:02:17.052,0.375,-0.385
09:02:17.056,0.265,-0.355
09:02:17.060,0.18,-0.295
09:02:17.064,0.14,-0.255
09:02:17.068,0.1,-0.21
09:02:17.072,0.075,-0.175
09:02:17.076,0.01,-0.15
09:02:17.080,-0.03,-0.125
09:02:17.084,-0.04,-0.125
09:02:17.088,-0.035,-0.12
09:02:17.092,-0.03,-0.1
09:02:17.096,-0.035,-0.1
09:02:17.100,-0.045,-0.095
09:02:17.104,-0.045,-0.1
09:02:17.108,-0.04,-0.115
09:02:17.112,-0.035,-0.105
09:02:17.116,-0.035,-0.1
09:02:17.120,-0.025,-0.1
09:02:17.124,-0.02,-0.11
09:02:17.128,-0.03,-0.115
09:02:17.132,-0.05,-0.095
09:02:17.136,-0.035,-0.09
09:02:17.140,-0.04,-0.1
09:02:17.144,-0.045,-0.095
09:02:17.148,-0.075,-0.08
09:02:17.152,-0.09,-0.09
09:02:17.156,-0.105,-0.1
09:02:17.160,-0.115,-0.095
09:02:17.164,-0.1,-0.08
09:02:17.168,-0.1,-0.075
09:02:17.172,-0.115,-0.07
09:02:17.176,-0.13,-0.08
09:02:17.180,-0.135,-0.07
09:02:17.184,-0.135,-0.05
09:02:17.188,-0.15,-0.06
09:02:17.192,-0.15,-0.06
09:02:17.196,-0.165,-0.05
09:02:17.200,-0.165,-0.04
09:02:17.204,-0.175,-0.03
09:02:17.208,-0.165,-0.025
09:02:17.212,-0.16,-0.045
09:02:17.216,-0.15,-0.035
09:02:17.220,-0.165,-0.025
09:02:17.224,-0.16,-0.035
09:02:17.228,-0.185,-0.035
09:02:17.232,-0.175,-0.025
09:02:17.236,-0.18,-0.02
09:02:17.240,-0.17,-0.025
09:02:17.244,-0.16,-0.03
09:02:17.248,-0.165,-0.03
09:02:17.252,-0.175,-0.02
09:02:17.256,-0.16,-0.025
09:02:17.260,-0.16,-0.015
09:02:17.264,-0.16,-0.02
09:02:17.268,-0.15,-0.03
09:02:17.272,-0.13,-0.02
09:02:17.276,-0.14,-0.03
09:02:17.280,-0.135,-0.03
09:02:17.284,-0.13,-0.04
09:02:17.288,-0.11,-0.06
09:02:17.292,-0.11,-0.06
09:02:17.296,-0.1,-0.065
09:02:17.300,-0.105,-0.065
09:02:17.304,-0.09,-0.05
09:02:17.308,-0.105,-0.05
09:02:17.312,-0.065,-0.045
09:02:17.316,-0.055,-0.055
09:02:17.320,-0.055,-0.075
09:02:17.324,-0.04,-0.1
09:02:17.328,-0.015,-0.09
09:02:17.332,-0.01,-0.085
09:02:17.336,-0.03,-0.09
09:02:17.340,-0.045,-0.1
09:02:17.344,-0.045,-0.095
09:02:17.348,-0.025,-0.11
09:02:17.352,-0.005,-0.1
09:02:17.356,0.04,-0.105
09:02:17.360,0.03,-0.105
09:02:17.364,-0.01,-0.1
09:02:17.368,-0.08,-0.09
09:02:17.372,-0.075,-0.09
09:02:17.376,-0.03,-0.1
09:02:17.380,0.01,-0.095
09:02:17.384,0.0,-0.09
09:02:17.388,-0.025,-0.09
09:02:17.392,-0.075,-0.095
09:02:17.396,-0.095,-0.1
09:02:17.400,-0.095,-0.09
09:02:17.404,-0.08,-0.085
09:02:17.408,-0.055,-0.085
09:02:17.412,-0.055,-0.095
09:02:17.416,-0.025,-0.08
09:02:17.420,-0.02,-0.075
09:02:17.424,-0.02,-0.08
09:02:17.428,-0.04,-0.08
09:02:17.432,-0.04,-0.085
09:02:17.436,-0.04,-0.08
09:02:17.440,-0.03,-0.09
09:02:17.444,-0.035,-0.095
09:02:17.448,-0.04,-0.085
09:02:17.452,-0.04,-0.095
09:02:17.456,-0.04,-0.095
09:02:17.460,-0.03,-0.09
09:02:17.464,-0.04,-0.1
09:02:17.468,-0.045,-0.11
09:02:17.472,-0.075,-0.09
09:02:17.476,-0.1,-0.09
09:02:17.480,-0.07,-0.095
09:02:17.484,-0.075,-0.095
09:02:17.488,-0.06,-0.085
09:02:17.492,-0.07,-0.085
09:02:17.496,-0.07,-0.075
09:02:17.500,-0.05,-0.09
09:02:17.504,-0.065,-0.095
09:02:17.508,-0.055,-0.105
09:02:17.512,-0.055,-0.11
09:02:17.516,-0.06,-0.1
09:02:17.520,-0.09,-0.09
09:02:17.524,-0.08,-0.095
09:02:17.528,-0.08,-0.1
09:02:17.532,-0.085,-0.1
09:02:17.536,-0.105,-0.105
09:02:17.540,-0.13,-0.085
09:02:17.544,-0.14,-0.095
09:02:17.548,-0.135,-0.105
09:02:17.552,-0.095,-0.115
09:02:17.556,-0.07,-0.12
09:02:17.560,-0.065,-0.125
09:02:17.564,-0.075,-0.12
09:02:17.568,-0.075,-0.11
09:02:17.572,-0.085,-0.115
09:02:17.576,-0.14,-0.1
09:02:17.580,-0.17,-0.105
09:02:17.584,-0.16,-0.1
09:02:17.588,-0.13,-0.11
09:02:17.592,-0.12,-0.1
09:02:17.596,-0.125,-0.115
09:02:17.600,-0.115,-0.12
09:02:17.604,-0.115,-0.11
09:02:17.608,-0.11,-0.105
09:02:17.612,-0.1,-0.105
09:02:17.616,-0.12,-0.1
09:02:17.620,-0.12,-0.11
09:02:17.624,-0.095,-0.105
09:02:17.628,-0.11,-0.1
09:02:17.632,-0.095,-0.1
09:02:17.636,-0.085,-0.1
09:02:17.640,-0.055,-0.095
09:02:17.644,-0.06,-0.085
09:02:17.648,-0.065,-0.095
09:02:17.652,-0.095,-0.095
09:02:17.656,-0.12,-0.1
09:02:17.660,-0.11,-0.105
09:02:17.664,-0.105,-0.085
09:02:17.668,-0.13,-0.095
09:02:17.672,-0.165,-0.105
09:02:17.676,-0.19,-0.115
09:02:17.680,-0.16,-0.125
09:02:17.684,-0.145,-0.115
09:02:17.688,-0.13,-0.115
09:02:17.692,-0.115,-0.12
09:02:17.696,-0.12,-0.12
09:02:17.700,-0.125,-0.105
09:02:17.704,-0.13,-0.1
09:02:17.708,-0.11,-0.095
09:02:17.712,-0.12,-0.09
09:02:17.716,-0.11,-0.09
09:02:17.720,-0.12,-0.095
09:02:17.724,-0.11,-0.095
09:02:17.728,-0.12,-0.105
09:02:17.732,-0.12,-0.1
09:02:17.736,-0.1,-0.095
09:02:17.740,-0.115,-0.1
09:02:17.744,-0.125,-0.1
09:02:17.748,-0.105,-0.1
09:02:17.752,-0.11,-0.1
09:02:17.756,-0.075,-0.1
09:02:17.760,-0.035,-0.095
09:02:17.764,-0.08,-0.1
09:02:17.768,-0.135,-0.1
09:02:17.772,-0.165,-0.1
09:02:17.776,-0.16,-0.105
09:02:17.780,-0.155,-0.12
09:02:17.784,-0.14,-0.12
09:02:17.788,-0.11,-0.105
09:02:17.792,-0.12,-0.09
09:02:17.796,-0.13,-0.08
09:02:17.800,-0.13,-0.09
09:02:17.804,-0.15,-0.105
09:02:17.808,-0.165,-0.125
09:02:17.812,-0.17,-0.12
09:02:17.816,-0.155,-0.11
09:02:17.820,-0.165,-0.095
09:02:17.824,-0.16,-0.095
09:02:17.828,-0.15,-0.11
09:02:17.832,-0.145,-0.12
09:02:17.836,-0.145,-0.115
09:02:17.840,-0.13,-0.115
09:02:17.844,-0.14,-0.08
09:02:17.848,-0.135,-0.095
09:02:17.852,-0.13,-0.09
09:02:17.856,-0.145,-0.095
09:02:17.860,-0.145,-0.1
09:02:17.864,-0.135,-0.105
09:02:17.868,-0.15,-0.085
09:02:17.872,-0.145,-0.05
09:02:17.876,-0.15,-0.005
09:02:17.880,-0.165,0.005
09:02:17.884,-0.16,-0.01
09:02:17.888,-0.145,-0.055
09:02:17.892,-0.135,-0.035
09:02:17.896,-0.13,-0.025
09:02:17.900,-0.145,0.025
09:02:17.904,-0.215,0.02
09:02:17.908,-0.355,0.04
09:02:17.912,-0.5,0.05
09:02:17.916,-0.58,0.06
09:02:17.920,-0.565,0.085
09:02:17.924,-0.525,0.07
09:02:17.928,-0.465,0.03
09:02:17.932,-0.355,-0.04
09:02:17.936,-0.27,-0.08
09:02:17.940,-0.2,-0.1
09:02:17.944,-0.2,-0.115
09:02:17.948,-0.225,-0.135
09:02:17.952,-0.24,-0.145
09:02:17.956,-0.23,-0.125
09:02:17.960,-0.215,-0.095
09:02:17.964,-0.185,-0.07
09:02:17.968,-0.16,-0.09
09:02:17.972,-0.14,-0.115
09:02:17.976,-0.15,-0.115
09:02:17.980,-0.15,-0.115
09:02:17.984,-0.135,-0.125
09:02:17.988,-0.145,-0.12
09:02:17.992,-0.155,-0.13
09:02:17.996,-0.145,-0.125
09:02:18.000,-0.14,-0.13
09:02:18.004,-0.13,-0.14
09:02:18.008,-0.125,-0.135
09:02:18.012,-0.115,-0.125
09:02:18.016,-0.13,-0.12
09:02:18.020,-0.14,-0.115
09:02:18.024,-0.125,-0.135
09:02:18.028,-0.13,-0.13
09:02:18.032,-0.145,-0.12
09:02:18.036,-0.13,-0.125
09:02:18.040,-0.145,-0.115
09:02:18.044,-0.145,-0.11
09:02:18.048,-0.13,-0.14
09:02:18.052,-0.135,-0.13
09:02:18.056,-0.125,-0.13
09:02:18.060,-0.135,-0.13
09:02:18.064,-0.145,-0.14
09:02:18.068,-0.15,-0.145
09:02:18.072,-0.14,-0.14
09:02:18.076,-0.13,-0.14
09:02:18.080,-0.12,-0.135
09:02:18.084,-0.115,-0.135
09:02:18.088,-0.115,-0.145
09:02:18.092,-0.15,-0.15
09:02:18.096,-0.175,-0.125
09:02:18.100,-0.16,-0.13
09:02:18.104,-0.145,-0.135
09:02:18.108,-0.14,-0.145
09:02:18.112,-0.13,-0.155
09:02:18.116,-0.115,-0.15
09:02:18.120,-0.115,-0.14
09:02:18.124,-0.11,-0.135
09:02:18.128,-0.13,-0.135
09:02:18.132,-0.11,-0.12
09:02:18.136,-0.115,-0.13
09:02:18.140,-0.125,-0.145
09:02:18.144,-0.12,-0.135
09:02:18.148,-0.135,-0.135
09:02:18.152,-0.125,-0.125
09:02:18.156,-0.125,-0.13
09:02:18.160,-0.115,-0.12
09:02:18.164,-0.115,-0.12
09:02:18.168,-0.12,-0.11
09:02:18.172,-0.11,-0.105
09:02:18.176,-0.105,-0.115
09:02:18.180,-0.11,-0.125
09:02:18.184,-0.13,-0.135
09:02:18.188,-0.105,-0.12
09:02:18.192,-0.095,-0.12
09:02:18.196,-0.095,-0.115
09:02:18.200,-0.1,-0.12
09:02:18.204,-0.11,-0.1
09:02:18.208,-0.12,-0.1
09:02:18.212,-0.13,-0.095
09:02:18.216,-0.135,-0.1
09:02:18.220,-0.115,-0.1
09:02:18.224,-0.125,-0.115
09:02:18.228,-0.125,-0.09
09:02:18.232,-0.105,-0.095
09:02:18.236,-0.105,-0.08
09:02:18.240,-0.085,-0.08
09:02:18.244,-0.1,-0.085
09:02:18.248,-0.115,-0.075
09:02:18.252,-0.155,-0.06
09:02:18.256,-0.14,-0.08
09:02:18.260,-0.12,-0.08
09:02:18.264,-0.11,-0.08
09:02:18.268,-0.12,-0.08
09:02:18.272,-0.125,-0.075
09:02:18.276,-0.135,-0.07
09:02:18.280,-0.12,-0.075
09:02:18.284,-0.145,-0.075
09:02:18.288,-0.145,-0.1
09:02:18.292,-0.125,-0.105
09:02:18.296,-0.135,-0.1
09:02:18.300,-0.14,-0.1
09:02:18.304,-0.12,-0.115
09:02:18.308,-0.115,-0.11
09:02:18.312,-0.11,-0.125
09:02:18.316,-0.105,-0.1
09:02:18.320,-0.11,-0.1
09:02:18.324,-0.115,-0.105
09:02:18.328,-0.12,-0.115
09:02:18.332,-0.11,-0.115
09:02:18.336,-0.115,-0.115
09:02:18.340,-0.09,-0.115
09:02:18.344,-0.075,-0.11
09:02:18.348,-0.075,-0.11
09:02:18.352,-0.05,-0.105
09:02:18.356,-0.045,-0.11
09:02:18.360,-0.02,-0.1
09:02:18.364,-0.02,-0.11
09:02:18.368,-0.035,-0.095
09:02:18.372,-0.105,-0.085
09:02:18.376,-0.12,-0.085
09:02:18.380,-0.08,-0.095
09:02:18.384,-0.07,-0.1
09:02:18.388,-0.08,-0.1
09:02:18.392,-0.095,-0.11
09:02:18.396,-0.115,-0.1
09:02:18.400,-0.095,-0.11
09:02:18.404,-0.085,-0.11
09:02:18.408,-0.1,-0.11
09:02:18.412,-0.1,-0.1
09:02:18.416,-0.12,-0.085
09:02:18.420,-0.125,-0.085
09:02:18.424,-0.125,-0.075
09:02:18.428,-0.14,-0.085
09:02:18.432,-0.14,-0.08
09:02:18.436,-0.13,-0.085
09:02:18.440,-0.135,-0.105
09:02:18.444,-0.125,-0.11
09:02:18.448,-0.13,-0.09
09:02:18.452,-0.135,-0.095
09:02:18.456,-0.12,-0.105
09:02:18.460,-0.13,-0.105
09:02:18.464,-0.12,-0.1
09:02:18.468,-0.135,-0.095
09:02:18.472,-0.095,-0.095
09:02:18.476,-0.06,-0.1
09:02:18.480,-0.06,-0.11
09:02:18.484,-0.085,-0.095
09:02:18.488,-0.13,-0.085
09:02:18.492,-0.125,-0.08
09:02:18.496,-0.14,-0.1
09:02:18.500,-0.12,-0.095
09:02:18.504,-0.1,-0.085
09:02:18.508,-0.105,-0.065
09:02:18.512,-0.115,-0.025
09:02:18.516,-0.14,-0.005
09:02:18.520,-0.135,0.0
09:02:18.524,-0.095,-0.05
09:02:18.528,-0.07,-0.065
09:02:18.532,-0.035,-0.065
09:02:18.536,-0.04,-0.055
09:02:18.540,-0.08,-0.03
09:02:18.544,-0.2,-0.015
09:02:18.548,-0.38,-0.005
09:02:18.552,-0.515,0.01
09:02:18.556,-0.54,0.04
09:02:18.560,-0.525,0.06
09:02:18.564,-0.465,0.025
09:02:18.568,-0.385,-0.03
09:02:18.572,-0.325,-0.1
09:02:18.576,-0.285,-0.12
09:02:18.580,-0.23,-0.125
09:02:18.584,-0.225,-0.14
09:02:18.588,-0.2,-0.145
09:02:18.592,-0.18,-0.16
09:02:18.596,-0.15,-0.145
09:02:18.600,-0.145,-0.115
09:02:18.604,-0.125,-0.115
09:02:18.608,-0.11,-0.125
09:02:18.612,-0.095,-0.13
09:02:18.616,-0.095,-0.135
09:02:18.620,-0.095,-0.135
09:02:18.624,-0.085,-0.155
09:02:18.628,-0.1,-0.15
09:02:18.632,-0.105,-0.15
09:02:18.636,-0.09,-0.14
09:02:18.640,-0.065,-0.145
09:02:18.644,-0.07,-0.155
09:02:18.648,-0.075,-0.155
09:02:18.652,-0.075,-0.145
09:02:18.656,-0.06,-0.135
09:02:18.660,-0.02,-0.135
09:02:18.664,-0.04,-0.14
09:02:18.668,-0.085,-0.145
09:02:18.672,-0.13,-0.16
09:02:18.676,-0.13,-0.165
09:02:18.680,-0.1,-0.16
09:02:18.684,-0.06,-0.165
09:02:18.688,-0.04,-0.155
09:02:18.692,-0.02,-0.145
09:02:18.696,-0.015,-0.14
09:02:18.700,-0.02,-0.135
09:02:18.704,-0.055,-0.12
09:02:18.708,-0.105,-0.14
09:02:18.712,-0.11,-0.155
09:02:18.716,-0.1,-0.14
09:02:18.720,-0.115,-0.15
09:02:18.724,-0.105,-0.15
09:02:18.728,-0.105,-0.155
09:02:18.732,-0.11,-0.155
09:02:18.736,-0.1,-0.16
09:02:18.740,-0.095,-0.155
09:02:18.744,-0.08,-0.155
09:02:18.748,-0.085,-0.14
09:02:18.752,-0.095,-0.135
09:02:18.756,-0.08,-0.135
09:02:18.760,-0.09,-0.14
09:02:18.764,-0.075,-0.135
09:02:18.768,-0.075,-0.13
09:02:18.772,-0.1,-0.13
09:02:18.776,-0.085,-0.135
09:02:18.780,-0.09,-0.135
09:02:18.784,-0.075,-0.125
09:02:18.788,-0.09,-0.13
09:02:18.792,-0.045,-0.135
09:02:18.796,-0.02,-0.12
09:02:18.800,-0.025,-0.13
09:02:18.804,-0.095,-0.125
09:02:18.808,-0.115,-0.125
09:02:18.812,-0.105,-0.115
09:02:18.816,-0.075,-0.115
09:02:18.820,-0.04,-0.09
09:02:18.824,-0.045,-0.1
09:02:18.828,-0.05,-0.095
09:02:18.832,-0.08,-0.095
09:02:18.836,-0.135,-0.12
09:02:18.840,-0.155,-0.135
09:02:18.844,-0.12,-0.135
09:02:18.848,-0.085,-0.135
09:02:18.852,-0.09,-0.125
09:02:18.856,-0.09,-0.135
09:02:18.860,-0.12,-0.115
09:02:18.864,-0.105,-0.12
09:02:18.868,-0.1,-0.135
09:02:18.872,-0.095,-0.12
09:02:18.876,-0.085,-0.125
09:02:18.880,-0.1,-0.125
09:02:18.884,-0.09,-0.115
09:02:18.888,-0.075,-0.125
09:02:18.892,-0.04,-0.12
09:02:18.896,-0.05,-0.12
09:02:18.900,-0.075,-0.125
09:02:18.904,-0.09,-0.13
09:02:18.908,-0.09,-0.13
09:02:18.912,-0.075,-0.12
09:02:18.916,-0.08,-0.13
09:02:18.920,-0.08,-0.13
09:02:18.924,-0.06,-0.115
09:02:18.928,-0.09,-0.125
09:02:18.932,-0.115,-0.14
09:02:18.936,-0.13,-0.14
09:02:18.940,-0.11,-0.13
09:02:18.944,-0.08,-0.14
09:02:18.948,-0.06,-0.135
09:02:18.952,-0.065,-0.135
09:02:18.956,-0.075,-0.14
09:02:18.960,-0.08,-0.13
09:02:18.964,-0.07,-0.135
09:02:18.968,-0.08,-0.145
09:02:18.972,-0.08,-0.13
09:02:18.976,-0.075,-0.125
09:02:18.980,-0.055,-0.135
09:02:18.984,-0.035,-0.14
09:02:18.988,-0.06,-0.135
09:02:18.992,-0.05,-0.13
09:02:18.996,-0.055,-0.125
09:02:19.000,-0.08,-0.12
09:02:19.004,-0.08,-0.125
09:02:19.008,-0.095,-0.12
09:02:19.012,-0.05,-0.11
09:02:19.016,-0.07,-0.105
09:02:19.020,-0.09,-0.11
09:02:19.024,-0.095,-0.11
09:02:19.028,-0.095,-0.105
09:02:19.032,-0.08,-0.1
09:02:19.036,-0.075,-0.105
09:02:19.040,-0.07,-0.115
09:02:19.044,-0.025,-0.09
09:02:19.048,0.0,-0.08
09:02:19.052,-0.045,-0.07
09:02:19.056,-0.08,-0.015
09:02:19.060,-0.115,-0.01
09:02:19.064,-0.145,-0.025
09:02:19.068,-0.115,-0.045
09:02:19.072,-0.075,-0.065
09:02:19.076,-0.04,-0.065
09:02:19.080,-0.05,-0.045
09:02:19.084,-0.095,-0.025
09:02:19.088,-0.265,-0.01
09:02:19.092,-0.395,-0.01
09:02:19.096,-0.475,0.0
09:02:19.100,-0.47,0.02
09:02:19.104,-0.43,0.015
09:02:19.108,-0.385,-0.015
09:02:19.112,-0.31,-0.045
09:02:19.116,-0.24,-0.105
09:02:19.120,-0.2,-0.13
09:02:19.124,-0.17,-0.15
09:02:19.128,-0.15,-0.15
09:02:19.132,-0.125,-0.165
09:02:19.136,-0.105,-0.155
09:02:19.140,-0.055,-0.14
09:02:19.144,-0.035,-0.12
09:02:19.148,-0.035,-0.115
