Time,ECG1,ECG2
09:03:00.172,-0.045,-0.08
09:03:00.176,-0.015,-0.09
09:03:00.180,0.025,-0.085
09:03:00.184,0.055,-0.055
09:03:00.188,0.06,-0.045
09:03:00.192,-0.005,-0.05
09:03:00.196,-0.1,-0.03
09:03:00.200,-0.24,-0.01
09:03:00.204,-0.31,0.035
09:03:00.208,-0.28,0.04
09:03:00.212,-0.285,0.0
09:03:00.216,-0.285,-0.085
09:03:00.220,-0.225,-0.155
09:03:00.224,-0.135,-0.185
09:03:00.228,-0.085,-0.175
09:03:00.232,-0.04,-0.175
09:03:00.236,0.005,-0.18
09:03:00.240,0.0,-0.18
09:03:00.244,-0.005,-0.17
09:03:00.248,0.0,-0.155
09:03:00.252,-0.015,-0.14
09:03:00.256,-0.055,-0.16
09:03:00.260,-0.03,-0.16
09:03:00.264,0.0,-0.17
09:03:00.268,0.03,-0.18
09:03:00.272,0.01,-0.195
09:03:00.276,-0.01,-0.2
09:03:00.280,-0.01,-0.195
09:03:00.284,0.0,-0.19
09:03:00.288,0.035,-0.19
09:03:00.292,0.04,-0.185
09:03:00.296,0.05,-0.19
09:03:00.300,0.07,-0.175
09:03:00.304,0.11,-0.165
09:03:00.308,0.105,-0.16
09:03:00.312,0.03,-0.13
09:03:00.316,-0.04,-0.12
09:03:00.320,-0.01,-0.145
09:03:00.324,0.08,-0.175
09:03:00.328,0.075,-0.185
09:03:00.332,0.0,-0.2
09:03:00.336,-0.055,-0.18
09:03:00.340,-0.01,-0.17
09:03:00.344,0.005,-0.18
09:03:00.348,0.05,-0.185
09:03:00.352,0.075,-0.215
09:03:00.356,0.085,-0.195
09:03:00.360,0.055,-0.175
09:03:00.364,0.035,-0.18
09:03:00.368,0.04,-0.18
09:03:00.372,0.055,-0.19
09:03:00.376,0.05,-0.18
09:03:00.380,0.085,-0.175
09:03:00.384,0.16,-0.175
09:03:00.388,0.18,-0.165
09:03:00.392,0.085,-0.165
09:03:00.396,-0.01,-0.165
09:03:00.400,-0.055,-0.155
09:03:00.404,0.0,-0.17
09:03:00.408,0.04,-0.155
09:03:00.412,-0.01,-0.165
09:03:00.416,-0.005,-0.15
09:03:00.420,0.0,-0.155
09:03:00.424,0.03,-0.155
09:03:00.428,0.05,-0.145
09:03:00.432,0.055,-0.13
09:03:00.436,0.045,-0.14
09:03:00.440,0.045,-0.155
09:03:00.444,0.075,-0.145
09:03:00.448,0.075,-0.145
09:03:00.452,0.06,-0.14
09:03:00.456,0.055,-0.15
09:03:00.460,0.06,-0.135
09:03:00.464,0.105,-0.13
09:03:00.468,0.145,-0.14
09:03:00.472,0.145,-0.135
09:03:00.476,0.075,-0.115
09:03:00.480,0.01,-0.12
09:03:00.484,-0.015,-0.12
09:03:00.488,0.005,-0.125
09:03:00.492,0.02,-0.12
09:03:00.496,0.01,-0.125
09:03:00.500,-0.005,-0.13
09:03:00.504,0.0,-0.12
09:03:00.508,0.02,-0.12
09:03:00.512,0.025,-0.135
09:03:00.516,0.045,-0.135
09:03:00.520,0.035,-0.125
09:03:00.524,0.04,-0.12
09:03:00.528,0.04,-0.115
09:03:00.532,0.02,-0.105
09:03:00.536,0.015,-0.1
09:03:00.540,0.035,-0.115
09:03:00.544,0.05,-0.125
09:03:00.548,0.06,-0.13
09:03:00.552,0.075,-0.14
09:03:00.556,0.085,-0.14
09:03:00.560,0.1,-0.14
09:03:00.564,0.165,-0.12
09:03:00.568,0.21,-0.115
09:03:00.572,0.125,-0.145
09:03:00.576,-0.02,-0.16
09:03:00.580,-0.075,-0.14
09:03:00.584,-0.04,-0.15
09:03:00.588,-0.01,-0.16
09:03:00.592,-0.005,-0.155
09:03:00.596,0.025,-0.17
09:03:00.600,0.04,-0.165
09:03:00.604,0.065,-0.16
09:03:00.608,0.07,-0.16
09:03:00.612,0.065,-0.14
09:03:00.616,0.07,-0.135
09:03:00.620,0.08,-0.145
09:03:00.624,0.085,-0.13
09:03:00.628,0.075,-0.13
09:03:00.632,0.095,-0.135
09:03:00.636,0.135,-0.14
09:03:00.640,0.105,-0.13
09:03:00.644,0.075,-0.125
09:03:00.648,0.04,-0.13
09:03:00.652,0.065,-0.145
09:03:00.656,0.075,-0.155
09:03:00.660,0.045,-0.15
09:03:00.664,0.08,-0.12
09:03:00.668,0.1,-0.12
09:03:00.672,0.105,-0.1
09:03:00.676,0.02,-0.08
09:03:00.680,-0.02,-0.09
09:03:00.684,-0.025,-0.13
09:03:00.688,0.025,-0.145
09:03:00.692,0.0,-0.135
09:03:00.696,0.015,-0.14
09:03:00.700,0.055,-0.11
09:03:00.704,0.065,-0.12
09:03:00.708,0.07,-0.12
09:03:00.712,0.07,-0.14
09:03:00.716,0.11,-0.14
09:03:00.720,0.105,-0.135
09:03:00.724,0.095,-0.14
09:03:00.728,0.05,-0.135
09:03:00.732,0.03,-0.12
09:03:00.736,0.045,-0.11
09:03:00.740,0.095,-0.12
09:03:00.744,0.105,-0.115
09:03:00.748,0.07,-0.13
09:03:00.752,0.02,-0.14
09:03:00.756,-0.06,-0.145
09:03:00.760,-0.04,-0.14
09:03:00.764,0.015,-0.14
09:03:00.768,0.07,-0.115
09:03:00.772,0.1,-0.115
09:03:00.776,0.085,-0.08
09:03:00.780,0.065,-0.055
09:03:00.784,0.065,-0.035
09:03:00.788,0.035,-0.045
09:03:00.792,-0.03,-0.07
09:03:00.796,-0.04,-0.08
09:03:00.800,0.015,-0.075
09:03:00.804,0.09,-0.05
09:03:00.808,0.095,-0.035
09:03:00.812,0.01,-0.03
09:03:00.816,-0.14,-0.03
09:03:00.820,-0.28,-0.01
09:03:00.824,-0.33,0.0
09:03:00.828,-0.305,0.0
09:03:00.832,-0.25,-0.04
09:03:00.836,-0.215,-0.075
09:03:00.840,-0.13,-0.125
09:03:00.844,-0.075,-0.15
09:03:00.848,-0.045,-0.15
09:03:00.852,-0.02,-0.17
09:03:00.856,0.02,-0.175
09:03:00.860,0.02,-0.175
09:03:00.864,0.07,-0.145
09:03:00.868,0.075,-0.13
09:03:00.872,0.085,-0.125
09:03:00.876,0.09,-0.13
09:03:00.880,0.095,-0.14
09:03:00.884,0.1,-0.125
09:03:00.888,0.135,-0.135
09:03:00.892,0.215,-0.16
09:03:00.896,0.215,-0.17
09:03:00.900,0.075,-0.205
09:03:00.904,-0.03,-0.2
09:03:00.908,-0.065,-0.19
09:03:00.912,0.0,-0.18
09:03:00.916,0.015,-0.155
09:03:00.920,0.05,-0.145
09:03:00.924,0.04,-0.165
09:03:00.928,0.06,-0.185
09:03:00.932,0.06,-0.18
09:03:00.936,0.06,-0.185
09:03:00.940,0.055,-0.185
09:03:00.944,0.05,-0.18
09:03:00.948,0.07,-0.18
09:03:00.952,0.09,-0.16
09:03:00.956,0.08,-0.185
09:03:00.960,0.08,-0.175
09:03:00.964,0.07,-0.165
09:03:00.968,0.08,-0.185
09:03:00.972,0.125,-0.2
09:03:00.976,0.18,-0.195
09:03:00.980,0.195,-0.185
09:03:00.984,0.175,-0.165
09:03:00.988,0.16,-0.16
09:03:00.992,0.135,-0.16
09:03:00.996,0.055,-0.15
09:03:01.000,0.0,-0.155
09:03:01.004,0.0,-0.17
09:03:01.008,0.05,-0.195
09:03:01.012,0.02,-0.185
09:03:01.016,-0.005,-0.185
09:03:01.020,0.005,-0.185
09:03:01.024,0.065,-0.18
09:03:01.028,0.06,-0.175
09:03:01.032,0.0,-0.18
09:03:01.036,-0.025,-0.175
09:03:01.040,-0.01,-0.18
09:03:01.044,0.035,-0.16
09:03:01.048,0.045,-0.165
09:03:01.052,0.04,-0.155
09:03:01.056,0.045,-0.16
09:03:01.060,0.04,-0.155
09:03:01.064,0.02,-0.15
09:03:01.068,0.01,-0.155
09:03:01.072,0.025,-0.15
09:03:01.076,0.03,-0.145
09:03:01.080,0.015,-0.145
09:03:01.084,0.04,-0.14
09:03:01.088,0.015,-0.15
09:03:01.092,0.035,-0.145
09:03:01.096,0.03,-0.15
09:03:01.100,0.04,-0.14
09:03:01.104,0.04,-0.125
09:03:01.108,0.055,-0.13
09:03:01.112,0.065,-0.135
09:03:01.116,0.07,-0.13
09:03:01.120,0.075,-0.13
09:03:01.124,0.085,-0.14
09:03:01.128,0.065,-0.14
09:03:01.132,0.055,-0.13
09:03:01.136,0.06,-0.14
09:03:01.140,0.055,-0.11
09:03:01.144,0.115,-0.115
09:03:01.148,0.2,-0.095
09:03:01.152,0.185,-0.085
09:03:01.156,0.05,-0.12
09:03:01.160,-0.02,-0.135
09:03:01.164,-0.035,-0.16
09:03:01.168,0.015,-0.155
09:03:01.172,0.045,-0.155
09:03:01.176,0.075,-0.175
09:03:01.180,0.105,-0.185
09:03:01.184,0.13,-0.175
09:03:01.188,0.155,-0.175
09:03:01.192,0.115,-0.15
09:03:01.196,0.055,-0.14
09:03:01.200,0.02,-0.16
09:03:01.204,0.04,-0.145
09:03:01.208,0.045,-0.155
09:03:01.212,0.05,-0.15
09:03:01.216,0.075,-0.145
09:03:01.220,0.09,-0.155
09:03:01.224,0.115,-0.15
09:03:01.228,0.115,-0.155
09:03:01.232,0.085,-0.16
09:03:01.236,0.08,-0.155
09:03:01.240,0.075,-0.145
09:03:01.244,0.09,-0.15
09:03:01.248,0.105,-0.15
09:03:01.252,0.115,-0.145
09:03:01.256,0.125,-0.15
09:03:01.260,0.12,-0.135
09:03:01.264,0.075,-0.145
09:03:01.268,0.025,-0.135
09:03:01.272,0.005,-0.1
09:03:01.276,0.04,-0.1
09:03:01.280,0.06,-0.135
09:03:01.284,0.05,-0.165
09:03:01.288,0.065,-0.175
09:03:01.292,0.06,-0.175
09:03:01.296,0.095,-0.16
09:03:01.300,0.155,-0.15
09:03:01.304,0.175,-0.14
09:03:01.308,0.1,-0.13
09:03:01.312,0.04,-0.13
09:03:01.316,0.02,-0.135
09:03:01.320,0.055,-0.15
09:03:01.324,0.08,-0.15
09:03:01.328,0.105,-0.14
09:03:01.332,0.085,-0.13
09:03:01.336,0.035,-0.1
09:03:01.340,0.045,-0.065
09:03:01.344,0.065,-0.055
09:03:01.348,0.055,-0.075
09:03:01.352,0.015,-0.085
09:03:01.356,0.06,-0.085
09:03:01.360,0.115,-0.085
09:03:01.364,0.115,-0.065
09:03:01.368,0.04,-0.075
09:03:01.372,-0.115,-0.06
09:03:01.376,-0.23,-0.035
09:03:01.380,-0.275,0.005
09:03:01.384,-0.26,0.005
09:03:01.388,-0.24,-0.02
09:03:01.392,-0.185,-0.06
09:03:01.396,-0.09,-0.095
09:03:01.400,-0.025,-0.12
09:03:01.404,0.0,-0.14
09:03:01.408,0.02,-0.175
09:03:01.412,0.01,-0.19
09:03:01.416,0.03,-0.185
09:03:01.420,0.075,-0.185
09:03:01.424,0.105,-0.155
09:03:01.428,0.13,-0.135
09:03:01.432,0.15,-0.155
09:03:01.436,0.17,-0.16
09:03:01.440,0.15,-0.17
09:03:01.444,0.12,-0.185
09:03:01.448,0.095,-0.195
09:03:01.452,0.1,-0.185
09:03:01.456,0.15,-0.205
09:03:01.460,0.245,-0.195
09:03:01.464,0.295,-0.185
09:03:01.468,0.195,-0.175
09:03:01.472,0.055,-0.17
09:03:01.476,0.015,-0.155
09:03:01.480,0.03,-0.16
09:03:01.484,0.045,-0.16
09:03:01.488,0.07,-0.16
09:03:01.492,0.125,-0.145
09:03:01.496,0.12,-0.14
09:03:01.500,0.11,-0.175
09:03:01.504,0.105,-0.175
09:03:01.508,0.105,-0.195
09:03:01.512,0.095,-0.18
09:03:01.516,0.11,-0.18
09:03:01.520,0.115,-0.175
09:03:01.524,0.14,-0.18
09:03:01.528,0.14,-0.17
09:03:01.532,0.14,-0.18
09:03:01.536,0.14,-0.18
09:03:01.540,0.16,-0.175
09:03:01.544,0.125,-0.185
09:03:01.548,0.135,-0.175
09:03:01.552,0.12,-0.185
09:03:01.556,0.14,-0.185
09:03:01.560,0.175,-0.18
09:03:01.564,0.185,-0.175
09:03:01.568,0.175,-0.175
09:03:01.572,0.165,-0.16
09:03:01.576,0.225,-0.15
09:03:01.580,0.19,-0.135
09:03:01.584,0.09,-0.125
09:03:01.588,0.015,-0.135
09:03:01.592,0.005,-0.145
09:03:01.596,0.025,-0.15
09:03:01.600,0.025,-0.16
09:03:01.604,0.055,-0.17
09:03:01.608,0.065,-0.165
09:03:01.612,0.11,-0.155
09:03:01.616,0.115,-0.165
09:03:01.620,0.1,-0.16
09:03:01.624,0.095,-0.15
09:03:01.628,0.075,-0.145
09:03:01.632,0.08,-0.155
09:03:01.636,0.11,-0.12
09:03:01.640,0.17,-0.13
09:03:01.644,0.255,-0.13
09:03:01.648,0.245,-0.125
09:03:01.652,0.105,-0.12
09:03:01.656,0.0,-0.13
09:03:01.660,-0.005,-0.135
09:03:01.664,0.035,-0.135
09:03:01.668,0.045,-0.13
09:03:01.672,0.085,-0.12
09:03:01.676,0.09,-0.115
09:03:01.680,0.12,-0.11
09:03:01.684,0.115,-0.11
09:03:01.688,0.105,-0.125
09:03:01.692,0.12,-0.125
09:03:01.696,0.115,-0.13
09:03:01.700,0.115,-0.12
09:03:01.704,0.115,-0.125
09:03:01.708,0.11,-0.14
09:03:01.712,0.12,-0.13
09:03:01.716,0.135,-0.135
09:03:01.720,0.12,-0.145
09:03:01.724,0.12,-0.16
09:03:01.728,0.115,-0.18
09:03:01.732,0.125,-0.18
09:03:01.736,0.145,-0.165
09:03:01.740,0.18,-0.155
09:03:01.744,0.205,-0.16
09:03:01.748,0.195,-0.155
09:03:01.752,0.13,-0.155
09:03:01.756,0.105,-0.135
09:03:01.760,0.145,-0.135
09:03:01.764,0.11,-0.15
09:03:01.768,0.02,-0.15
09:03:01.772,-0.04,-0.185
09:03:01.776,0.005,-0.185
09:03:01.780,0.105,-0.18
09:03:01.784,0.15,-0.16
09:03:01.788,0.095,-0.155
09:03:01.792,0.015,-0.145
09:03:01.796,0.015,-0.135
09:03:01.800,0.055,-0.14
09:03:01.804,0.095,-0.14
09:03:01.808,0.12,-0.15
09:03:01.812,0.13,-0.145
09:03:01.816,0.11,-0.145
09:03:01.820,0.085,-0.135
09:03:01.824,0.09,-0.135
09:03:01.828,0.075,-0.135
09:03:01.832,0.105,-0.145
09:03:01.836,0.105,-0.11
09:03:01.840,0.17,-0.11
09:03:01.844,0.155,-0.11
09:03:01.848,0.095,-0.115
09:03:01.852,0.065,-0.145
09:03:01.856,0.07,-0.16
09:03:01.860,0.125,-0.16
09:03:01.864,0.165,-0.145
09:03:01.868,0.155,-0.135
09:03:01.872,0.095,-0.115
09:03:01.876,0.045,-0.08
09:03:01.880,0.065,-0.045
09:03:01.884,0.05,-0.04
09:03:01.888,0.045,-0.06
09:03:01.892,0.065,-0.095
09:03:01.896,0.17,-0.075
09:03:01.900,0.255,-0.055
09:03:01.904,0.215,-0.045
09:03:01.908,0.06,-0.045
09:03:01.912,-0.09,-0.035
09:03:01.916,-0.255,-0.035
09:03:01.920,-0.315,-0.01
09:03:01.924,-0.31,0.005
09:03:01.928,-0.27,-0.01
09:03:01.932,-0.205,-0.045
09:03:01.936,-0.135,-0.085
09:03:01.940,-0.06,-0.14
09:03:01.944,-0.005,-0.165
09:03:01.948,0.01,-0.185
09:03:01.952,0.03,-0.2
09:03:01.956,0.055,-0.205
09:03:01.960,0.07,-0.185
09:03:01.964,0.14,-0.15
09:03:01.968,0.19,-0.13
09:03:01.972,0.19,-0.16
09:03:01.976,0.12,-0.175
09:03:01.980,0.035,-0.19
09:03:01.984,0.055,-0.185
09:03:01.988,0.09,-0.17
09:03:01.992,0.095,-0.175
09:03:01.996,0.11,-0.185
09:03:02.000,0.175,-0.215
09:03:02.004,0.245,-0.2
09:03:02.008,0.225,-0.215
09:03:02.012,0.12,-0.2
09:03:02.016,0.0,-0.19
09:03:02.020,-0.07,-0.19
09:03:02.024,0.0,-0.185
09:03:02.028,0.045,-0.18
09:03:02.032,0.075,-0.19
09:03:02.036,0.08,-0.185
09:03:02.040,0.085,-0.185
09:03:02.044,0.085,-0.175
09:03:02.048,0.11,-0.17
09:03:02.052,0.105,-0.16
09:03:02.056,0.095,-0.15
09:03:02.060,0.11,-0.18
09:03:02.064,0.095,-0.19
09:03:02.068,0.075,-0.19
09:03:02.072,0.085,-0.215
09:03:02.076,0.095,-0.205
09:03:02.080,0.095,-0.2
09:03:02.084,0.1,-0.2
09:03:02.088,0.12,-0.21
09:03:02.092,0.11,-0.195
09:03:02.096,0.085,-0.185
09:03:02.100,0.075,-0.18
09:03:02.104,0.1,-0.17
09:03:02.108,0.14,-0.16
09:03:02.112,0.19,-0.16
09:03:02.116,0.185,-0.16
09:03:02.120,0.125,-0.15
09:03:02.124,0.07,-0.145
09:03:02.128,0.035,-0.13
09:03:02.132,0.05,-0.125
09:03:02.136,0.075,-0.155
09:03:02.140,0.1,-0.15
09:03:02.144,0.115,-0.15
09:03:02.148,0.07,-0.155
09:03:02.152,0.05,-0.145
09:03:02.156,0.055,-0.13
09:03:02.160,0.07,-0.13
09:03:02.164,0.075,-0.14
09:03:02.168,0.105,-0.13
09:03:02.172,0.105,-0.145
09:03:02.176,0.08,-0.14
09:03:02.180,0.075,-0.135
09:03:02.184,0.09,-0.12
09:03:02.188,0.075,-0.12
09:03:02.192,0.105,-0.12
09:03:02.196,0.1,-0.125
09:03:02.200,0.16,-0.14
09:03:02.204,0.22,-0.145
09:03:02.208,0.18,-0.14
09:03:02.212,0.045,-0.13
09:03:02.216,0.0,-0.12
09:03:02.220,0.03,-0.14
09:03:02.224,0.045,-0.15
09:03:02.228,0.025,-0.15
09:03:02.232,0.03,-0.16
09:03:02.236,0.035,-0.16
09:03:02.240,0.06,-0.16
09:03:02.244,0.09,-0.16
09:03:02.248,0.145,-0.16
09:03:02.252,0.13,-0.16
09:03:02.256,0.085,-0.15
09:03:02.260,0.03,-0.145
09:03:02.264,0.04,-0.145
09:03:02.268,0.08,-0.14
09:03:02.272,0.09,-0.14
09:03:02.276,0.12,-0.13
09:03:02.280,0.095,-0.135
09:03:02.284,0.06,-0.15
09:03:02.288,0.05,-0.155
09:03:02.292,0.055,-0.155
09:03:02.296,0.065,-0.14
09:03:02.300,0.085,-0.13
09:03:02.304,0.08,-0.13
09:03:02.308,0.09,-0.155
09:03:02.312,0.08,-0.16
09:03:02.316,0.085,-0.175
09:03:02.320,0.09,-0.175
09:03:02.324,0.095,-0.165
09:03:02.328,0.09,-0.15
09:03:02.332,0.115,-0.14
09:03:02.336,0.135,-0.13
09:03:02.340,0.18,-0.125
09:03:02.344,0.195,-0.135
09:03:02.348,0.13,-0.135
09:03:02.352,0.1,-0.155
09:03:02.356,0.075,-0.16
09:03:02.360,0.055,-0.17
09:03:02.364,0.025,-0.17
09:03:02.368,0.035,-0.165
09:03:02.372,0.075,-0.155
09:03:02.376,0.115,-0.15
09:03:02.380,0.15,-0.14
09:03:02.384,0.13,-0.13
09:03:02.388,0.09,-0.135
09:03:02.392,0.08,-0.145
09:03:02.396,0.02,-0.125
09:03:02.400,-0.005,-0.125
09:03:02.404,0.005,-0.125
09:03:02.408,0.065,-0.11
09:03:02.412,0.125,-0.12
09:03:02.416,0.1,-0.13
09:03:02.420,0.065,-0.115
09:03:02.424,0.085,-0.115
09:03:02.428,0.12,-0.11
09:03:02.432,0.16,-0.105
09:03:02.436,0.145,-0.105
09:03:02.440,0.055,-0.115
09:03:02.444,0.005,-0.13
09:03:02.448,0.04,-0.145
09:03:02.452,0.07,-0.145
09:03:02.456,0.11,-0.12
09:03:02.460,0.12,-0.125
09:03:02.464,0.08,-0.11
09:03:02.468,0.075,-0.095
09:03:02.472,0.105,-0.11
09:03:02.476,0.12,-0.11
09:03:02.480,0.125,-0.12
09:03:02.484,0.1,-0.12
09:03:02.488,0.1,-0.105
09:03:02.492,0.105,-0.115
09:03:02.496,0.07,-0.135
09:03:02.500,0.04,-0.145
09:03:02.504,0.065,-0.145
09:03:02.508,0.09,-0.145
09:03:02.512,0.105,-0.135
09:03:02.516,0.115,-0.135
09:03:02.520,0.125,-0.125
09:03:02.524,0.15,-0.13
09:03:02.528,0.135,-0.12
09:03:02.532,0.12,-0.135
09:03:02.536,0.075,-0.125
09:03:02.540,0.055,-0.125
09:03:02.544,0.085,-0.12
09:03:02.548,0.155,-0.11
09:03:02.552,0.205,-0.095
09:03:02.556,0.14,-0.055
09:03:02.560,0.03,-0.005
09:03:02.564,-0.02,0.0
09:03:02.568,0.015,-0.03
09:03:02.572,0.08,-0.035
09:03:02.576,0.15,-0.045
09:03:02.580,0.12,-0.03
09:03:02.584,0.095,-0.015
09:03:02.588,0.05,-0.015
09:03:02.592,-0.055,-0.005
09:03:02.596,-0.195,0.0
09:03:02.600,-0.295,0.015
09:03:02.604,-0.3,0.025
09:03:02.608,-0.255,0.0
09:03:02.612,-0.165,-0.045
09:03:02.616,-0.11,-0.08
09:03:02.620,-0.02,-0.145
09:03:02.624,-0.01,-0.16
09:03:02.628,0.03,-0.18
09:03:02.632,0.04,-0.195
09:03:02.636,0.065,-0.195
09:03:02.640,0.1,-0.175
09:03:02.644,0.175,-0.15
09:03:02.648,0.225,-0.135
09:03:02.652,0.2,-0.135
09:03:02.656,0.13,-0.155
09:03:02.660,0.06,-0.14
09:03:02.664,0.035,-0.145
09:03:02.668,0.03,-0.15
09:03:02.672,0.05,-0.155
09:03:02.676,0.06,-0.155
09:03:02.680,0.06,-0.165
09:03:02.684,0.095,-0.165
09:03:02.688,0.115,-0.145
09:03:02.692,0.1,-0.16
09:03:02.696,0.12,-0.16
09:03:02.700,0.135,-0.15
09:03:02.704,0.19,-0.165
09:03:02.708,0.27,-0.16
09:03:02.712,0.3,-0.155
09:03:02.716,0.235,-0.14
09:03:02.720,0.12,-0.105
09:03:02.724,0.01,-0.105
09:03:02.728,-0.01,-0.125
09:03:02.732,0.02,-0.15
09:03:02.736,0.055,-0.185
09:03:02.740,0.06,-0.195
09:03:02.744,0.075,-0.2
09:03:02.748,0.12,-0.175
09:03:02.752,0.14,-0.16
09:03:02.756,0.14,-0.16
09:03:02.760,0.115,-0.155
09:03:02.764,0.13,-0.17
09:03:02.768,0.12,-0.175
09:03:02.772,0.105,-0.18
09:03:02.776,0.11,-0.165
09:03:02.780,0.085,-0.15
09:03:02.784,0.11,-0.15
09:03:02.788,0.11,-0.15
09:03:02.792,0.11,-0.165
09:03:02.796,0.12,-0.175
09:03:02.800,0.1,-0.18
09:03:02.804,0.1,-0.175
09:03:02.808,0.095,-0.17
09:03:02.812,0.08,-0.17
09:03:02.816,0.08,-0.16
09:03:02.820,0.1,-0.16
09:03:02.824,0.13,-0.135
09:03:02.828,0.145,-0.135
09:03:02.832,0.1,-0.135
09:03:02.836,0.08,-0.125
09:03:02.840,0.095,-0.14
09:03:02.844,0.165,-0.13
09:03:02.848,0.19,-0.135
09:03:02.852,0.095,-0.125
09:03:02.856,-0.005,-0.11
09:03:02.860,-0.005,-0.12
09:03:02.864,0.025,-0.115
09:03:02.868,0.045,-0.115
09:03:02.872,0.05,-0.105
09:03:02.876,0.09,-0.105
09:03:02.880,0.095,-0.11
09:03:02.884,0.085,-0.125
09:03:02.888,0.085,-0.13
09:03:02.892,0.075,-0.13
09:03:02.896,0.075,-0.125
09:03:02.900,0.09,-0.11
09:03:02.904,0.105,-0.115
09:03:02.908,0.115,-0.11
09:03:02.912,0.15,-0.12
09:03:02.916,0.195,-0.12
09:03:02.920,0.19,-0.125
09:03:02.924,0.105,-0.145
09:03:02.928,0.045,-0.145
09:03:02.932,0.025,-0.15
09:03:02.936,0.02,-0.14
09:03:02.940,0.005,-0.145
09:03:02.944,0.045,-0.135
09:03:02.948,0.065,-0.145
09:03:02.952,0.06,-0.155
09:03:02.956,0.055,-0.155
09:03:02.960,0.055,-0.175
09:03:02.964,0.085,-0.175
09:03:02.968,0.11,-0.16
09:03:02.972,0.08,-0.155
09:03:02.976,0.05,-0.16
09:03:02.980,0.01,-0.145
09:03:02.984,0.04,-0.14
09:03:02.988,0.06,-0.15
09:03:02.992,0.095,-0.155
09:03:02.996,0.11,-0.165
09:03:03.000,0.135,-0.16
09:03:03.004,0.105,-0.145
09:03:03.008,0.07,-0.155
09:03:03.012,0.08,-0.15
09:03:03.016,0.11,-0.15
09:03:03.020,0.15,-0.145
09:03:03.024,0.1,-0.12
09:03:03.028,0.08,-0.125
09:03:03.032,0.095,-0.125
09:03:03.036,0.12,-0.155
09:03:03.040,0.12,-0.14
09:03:03.044,0.11,-0.16
09:03:03.048,0.105,-0.145
09:03:03.052,0.085,-0.135
09:03:03.056,0.04,-0.135
09:03:03.060,0.01,-0.13
09:03:03.064,0.045,-0.14
09:03:03.068,0.085,-0.15
09:03:03.072,0.09,-0.145
09:03:03.076,0.08,-0.12
09:03:03.080,0.09,-0.085
09:03:03.084,0.045,-0.035
09:03:03.088,0.005,-0.035
09:03:03.092,-0.005,-0.06
09:03:03.096,0.01,-0.08
09:03:03.100,0.07,-0.08
09:03:03.104,0.105,-0.09
09:03:03.108,0.11,-0.1
09:03:03.112,0.06,-0.08
09:03:03.116,-0.08,-0.065
09:03:03.120,-0.24,-0.035
09:03:03.124,-0.3,0.0
09:03:03.128,-0.265,0.005
09:03:03.132,-0.2,-0.035
09:03:03.136,-0.125,-0.09
09:03:03.140,-0.05,-0.165
09:03:03.144,-0.03,-0.175
09:03:03.148,-0.07,-0.15
09:03:03.152,-0.06,-0.15
09:03:03.156,-0.025,-0.16
09:03:03.160,0.05,-0.18
09:03:03.164,0.095,-0.14
09:03:03.168,0.115,-0.14
09:03:03.172,0.145,-0.175
09:03:03.176,0.105,-0.18
09:03:03.180,0.085,-0.18
09:03:03.184,0.08,-0.18
09:03:03.188,0.09,-0.19
09:03:03.192,0.085,-0.18
09:03:03.196,0.075,-0.18
09:03:03.200,0.075,-0.175
09:03:03.204,0.1,-0.175
09:03:03.208,0.09,-0.195
09:03:03.212,0.1,-0.185
09:03:03.216,0.085,-0.19
09:03:03.220,0.1,-0.175
09:03:03.224,0.09,-0.175
09:03:03.228,0.095,-0.165
09:03:03.232,0.105,-0.17
09:03:03.236,0.15,-0.16
09:03:03.240,0.175,-0.16
09:03:03.244,0.095,-0.185
09:03:03.248,0.0,-0.205
09:03:03.252,-0.015,-0.225
09:03:03.256,0.005,-0.21
09:03:03.260,0.03,-0.21
09:03:03.264,0.06,-0.195
09:03:03.268,0.08,-0.185
09:03:03.272,0.12,-0.18
09:03:03.276,0.1,-0.165
09:03:03.280,0.09,-0.17
09:03:03.284,0.07,-0.155
09:03:03.288,0.1,-0.165
09:03:03.292,0.095,-0.175
09:03:03.296,0.095,-0.16
09:03:03.300,0.095,-0.165
09:03:03.304,0.1,-0.17
09:03:03.308,0.105,-0.16
09:03:03.312,0.095,-0.155
09:03:03.316,0.095,-0.16
09:03:03.320,0.095,-0.165
09:03:03.324,0.1,-0.155
09:03:03.328,0.105,-0.16
09:03:03.332,0.145,-0.15
09:03:03.336,0.14,-0.165
09:03:03.340,0.08,-0.155
09:03:03.344,0.045,-0.16
09:03:03.348,0.045,-0.16
09:03:03.352,0.085,-0.16
09:03:03.356,0.13,-0.145
09:03:03.360,0.14,-0.15
09:03:03.364,0.11,-0.14
09:03:03.368,0.025,-0.13
09:03:03.372,-0.02,-0.14
09:03:03.376,-0.03,-0.125
09:03:03.380,0.01,-0.12
09:03:03.384,0.01,-0.15
09:03:03.388,0.025,-0.165
09:03:03.392,0.035,-0.165
09:03:03.396,0.04,-0.16
09:03:03.400,0.045,-0.15
09:03:03.404,0.04,-0.145
09:03:03.408,0.06,-0.14
09:03:03.412,0.075,-0.14
09:03:03.416,0.09,-0.135
09:03:03.420,0.075,-0.13
09:03:03.424,0.09,-0.12
09:03:03.428,0.14,-0.13
09:03:03.432,0.185,-0.12
09:03:03.436,0.14,-0.115
09:03:03.440,0.07,-0.13
09:03:03.444,0.11,-0.125
09:03:03.448,0.19,-0.12
09:03:03.452,0.14,-0.125
09:03:03.456,0.025,-0.125
09:03:03.460,-0.015,-0.13
09:03:03.464,0.045,-0.135
09:03:03.468,0.065,-0.12
09:03:03.472,0.08,-0.12
09:03:03.476,0.095,-0.12
09:03:03.480,0.085,-0.125
09:03:03.484,0.06,-0.14
09:03:03.488,0.1,-0.135
09:03:03.492,0.13,-0.135
09:03:03.496,0.19,-0.13
09:03:03.500,0.165,-0.14
09:03:03.504,0.11,-0.15
09:03:03.508,0.025,-0.16
09:03:03.512,0.025,-0.15
09:03:03.516,0.02,-0.155
09:03:03.520,0.025,-0.155
09:03:03.524,0.055,-0.15
09:03:03.528,0.05,-0.155
09:03:03.532,0.05,-0.14
09:03:03.536,0.06,-0.14
09:03:03.540,0.06,-0.135
09:03:03.544,0.065,-0.13
09:03:03.548,0.07,-0.145
09:03:03.552,0.07,-0.12
09:03:03.556,0.07,-0.125
09:03:03.560,0.065,-0.125
09:03:03.564,0.07,-0.12
09:03:03.568,0.08,-0.115
09:03:03.572,0.11,-0.115
09:03:03.576,0.13,-0.115
09:03:03.580,0.165,-0.11
09:03:03.584,0.11,-0.13
09:03:03.588,0.045,-0.125
09:03:03.592,0.015,-0.145
09:03:03.596,0.05,-0.16
09:03:03.600,0.09,-0.145
09:03:03.604,0.115,-0.13
09:03:03.608,0.135,-0.115
09:03:03.612,0.13,-0.11
09:03:03.616,0.12,-0.105
09:03:03.620,0.065,-0.125
09:03:03.624,0.03,-0.135
09:03:03.628,0.045,-0.14
09:03:03.632,0.055,-0.14
09:03:03.636,0.09,-0.155
09:03:03.640,0.085,-0.13
09:03:03.644,0.075,-0.145
09:03:03.648,0.07,-0.15
09:03:03.652,0.065,-0.155
09:03:03.656,0.065,-0.15
09:03:03.660,0.065,-0.14
09:03:03.664,0.055,-0.13
09:03:03.668,0.035,-0.135
09:03:03.672,0.035,-0.145
09:03:03.676,0.03,-0.125
09:03:03.680,0.03,-0.12
09:03:03.684,0.025,-0.115
09:03:03.688,0.03,-0.115
09:03:03.692,0.035,-0.09
09:03:03.696,0.04,-0.05
09:03:03.700,0.035,-0.045
09:03:03.704,0.035,-0.04
09:03:03.708,0.03,-0.04
09:03:03.712,0.015,-0.06
09:03:03.716,0.025,-0.075
09:03:03.720,0.075,-0.08
09:03:03.724,0.095,-0.09
09:03:03.728,0.125,-0.07
09:03:03.732,0.08,-0.05
09:03:03.736,-0.02,-0.04
09:03:03.740,-0.17,-0.02
09:03:03.744,-0.29,0.0
09:03:03.748,-0.32,0.03
09:03:03.752,-0.295,0.02
09:03:03.756,-0.235,-0.02
09:03:03.760,-0.16,-0.055
09:03:03.764,-0.09,-0.115
09:03:03.768,-0.045,-0.145
09:03:03.772,0.0,-0.15
09:03:03.776,0.025,-0.16
09:03:03.780,0.045,-0.165
09:03:03.784,0.05,-0.15
09:03:03.788,0.08,-0.135
09:03:03.792,0.09,-0.12
09:03:03.796,0.105,-0.14
09:03:03.800,0.105,-0.14
09:03:03.804,0.1,-0.145
09:03:03.808,0.085,-0.13
09:03:03.812,0.085,-0.155
09:03:03.816,0.07,-0.155
09:03:03.820,0.065,-0.18
09:03:03.824,0.05,-0.16
09:03:03.828,0.065,-0.16
09:03:03.832,0.065,-0.15
09:03:03.836,0.065,-0.155
09:03:03.840,0.065,-0.155
09:03:03.844,0.055,-0.16
09:03:03.848,0.075,-0.165
09:03:03.852,0.065,-0.185
09:03:03.856,0.07,-0.195
09:03:03.860,0.065,-0.185
09:03:03.864,0.055,-0.165
09:03:03.868,0.045,-0.175
09:03:03.872,0.08,-0.18
09:03:03.876,0.045,-0.185
09:03:03.880,0.055,-0.175
09:03:03.884,0.04,-0.155
09:03:03.888,0.05,-0.175
09:03:03.892,0.055,-0.185
09:03:03.896,0.055,-0.19
09:03:03.900,0.07,-0.185
09:03:03.904,0.08,-0.18
09:03:03.908,0.055,-0.19
09:03:03.912,0.06,-0.19
09:03:03.916,0.07,-0.205
09:03:03.920,0.055,-0.2
09:03:03.924,0.06,-0.19
09:03:03.928,0.065,-0.195
09:03:03.932,0.06,-0.185
09:03:03.936,0.06,-0.19
09:03:03.940,0.035,-0.195
09:03:03.944,0.025,-0.2
09:03:03.948,0.025,-0.205
09:03:03.952,0.015,-0.19
09:03:03.956,0.01,-0.18
09:03:03.960,0.005,-0.175
09:03:03.964,0.005,-0.17
09:03:03.968,0.0,-0.18
09:03:03.972,0.02,-0.185
09:03:03.976,0.015,-0.2
09:03:03.980,0.03,-0.19
09:03:03.984,0.035,-0.185
09:03:03.988,0.025,-0.175
09:03:03.992,-0.02,-0.17
09:03:03.996,-0.07,-0.14
09:03:04.000,-0.145,-0.145
09:03:04.004,-0.14,-0.13
09:03:04.008,-0.11,-0.135
09:03:04.012,-0.08,-0.145
09:03:04.016,-0.08,-0.135
09:03:04.020,-0.095,-0.13
09:03:04.024,-0.12,-0.135
09:03:04.028,-0.115,-0.145
09:03:04.032,-0.095,-0.145
09:03:04.036,-0.105,-0.135
09:03:04.040,-0.09,-0.125
09:03:04.044,-0.08,-0.135
09:03:04.048,-0.07,-0.095
09:03:04.052,-0.1,-0.09
09:03:04.056,-0.085,-0.12
09:03:04.060,-0.08,-0.135
09:03:04.064,-0.08,-0.135
09:03:04.068,-0.095,-0.15
09:03:04.072,-0.06,-0.17
09:03:04.076,-0.06,-0.155
09:03:04.080,-0.05,-0.15
09:03:04.084,-0.045,-0.13
09:03:04.088,-0.07,-0.13
09:03:04.092,-0.045,-0.145
09:03:04.096,-0.03,-0.18
09:03:04.100,-0.04,-0.2
09:03:04.104,-0.095,-0.18
09:03:04.108,-0.145,-0.17
09:03:04.112,-0.18,-0.155
09:03:04.116,-0.185,-0.17
09:03:04.120,-0.15,-0.185
09:03:04.124,-0.15,-0.18
09:03:04.128,-0.15,-0.18
09:03:04.132,-0.185,-0.18
09:03:04.136,-0.19,-0.17
09:03:04.140,-0.19,-0.16
09:03:04.144,-0.205,-0.155
09:03:04.148,-0.205,-0.17
09:03:04.152,-0.21,-0.175
09:03:04.156,-0.205,-0.17
09:03:04.160,-0.22,-0.175
09:03:04.164,-0.225,-0.14
09:03:04.168,-0.23,-0.13
09:03:04.172,-0.255,-0.145
09:03:04.176,-0.265,-0.165
09:03:04.180,-0.255,-0.175
09:03:04.184,-0.265,-0.17
09:03:04.188,-0.28,-0.16
09:03:04.192,-0.295,-0.14
09:03:04.196,-0.31,-0.165
09:03:04.200,-0.32,-0.16
09:03:04.204,-0.32,-0.16
09:03:04.208,-0.325,-0.15
09:03:04.212,-0.32,-0.16
09:03:04.216,-0.315,-0.16
09:03:04.220,-0.34,-0.155
09:03:04.224,-0.34,-0.145
09:03:04.228,-0.35,-0.155
09:03:04.232,-0.33,-0.155
09:03:04.236,-0.33,-0.15
09:03:04.240,-0.35,-0.14
09:03:04.244,-0.385,-0.15
09:03:04.248,-0.43,-0.16
09:03:04.252,-0.415,-0.165
09:03:04.256,-0.4,-0.145
09:03:04.260,-0.41,-0.12
09:03:04.264,-0.395,-0.12
09:03:04.268,-0.405,-0.14
09:03:04.272,-0.41,-0.16
09:03:04.276,-0.42,-0.145
09:03:04.280,-0.45,-0.13
09:03:04.284,-0.45,-0.145
09:03:04.288,-0.44,-0.185
09:03:04.292,-0.43,-0.18
09:03:04.296,-0.43,-0.16
09:03:04.300,-0.44,-0.155
09:03:04.304,-0.43,-0.16
09:03:04.308,-0.41,-0.155
09:03:04.312,-0.425,-0.155
09:03:04.316,-0.415,-0.14
09:03:04.320,-0.42,-0.14
09:03:04.324,-0.425,-0.135
09:03:04.328,-0.44,-0.13
09:03:04.332,-0.44,-0.13
09:03:04.336,-0.435,-0.12
09:03:04.340,-0.44,-0.105
09:03:04.344,-0.43,-0.065
09:03:04.348,-0.42,-0.035
09:03:04.352,-0.415,-0.04
09:03:04.356,-0.4,-0.06
09:03:04.360,-0.415,-0.08
09:03:04.364,-0.425,-0.075
09:03:04.368,-0.44,-0.05
09:03:04.372,-0.445,-0.035
09:03:04.376,-0.535,-0.025
09:03:04.380,-0.655,-0.015
09:03:04.384,-0.785,0.0
09:03:04.388,-0.815,0.025
09:03:04.392,-0.78,0.005
09:03:04.396,-0.725,-0.005
09:03:04.400,-0.65,-0.055
09:03:04.404,-0.575,-0.11
09:03:04.408,-0.525,-0.14
09:03:04.412,-0.475,-0.14
09:03:04.416,-0.465,-0.14
09:03:04.420,-0.445,-0.155
09:03:04.424,-0.425,-0.15
09:03:04.428,-0.395,-0.135
09:03:04.432,-0.4,-0.12
09:03:04.436,-0.39,-0.12
09:03:04.440,-0.365,-0.11
09:03:04.444,-0.365,-0.1
09:03:04.448,-0.38,-0.12
09:03:04.452,-0.39,-0.16
09:03:04.456,-0.37,-0.175
09:03:04.460,-0.375,-0.18
09:03:04.464,-0.385,-0.21
09:03:04.468,-0.375,-0.25
09:03:04.472,-0.355,-0.24
09:03:04.476,-0.34,-0.21
09:03:04.480,-0.33,-0.195
09:03:04.484,-0.33,-0.175
09:03:04.488,-0.345,-0.165
09:03:04.492,-0.345,-0.155
09:03:04.496,-0.355,-0.16
09:03:04.500,-0.34,-0.16
09:03:04.504,-0.35,-0.155
09:03:04.508,-0.34,-0.155
09:03:04.512,-0.34,-0.16
09:03:04.516,-0.34,-0.16
09:03:04.520,-0.36,-0.15
09:03:04.524,-0.345,-0.16
09:03:04.528,-0.315,-0.155
09:03:04.532,-0.31,-0.165
09:03:04.536,-0.285,-0.175
09:03:04.540,-0.285,-0.17
09:03:04.544,-0.33,-0.17
09:03:04.548,-0.355,-0.17
09:03:04.552,-0.365,-0.175
09:03:04.556,-0.34,-0.16
09:03:04.560,-0.32,-0.165
09:03:04.564,-0.31,-0.175
09:03:04.568,-0.305,-0.175
09:03:04.572,-0.32,-0.17
09:03:04.576,-0.335,-0.18
09:03:04.580,-0.345,-0.165
09:03:04.584,-0.32,-0.16
09:03:04.588,-0.315,-0.16
09:03:04.592,-0.31,-0.165
09:03:04.596,-0.32,-0.165
09:03:04.600,-0.31,-0.145
09:03:04.604,-0.325,-0.145
09:03:04.608,-0.32,-0.145
09:03:04.612,-0.32,-0.16
09:03:04.616,-0.325,-0.16
09:03:04.620,-0.355,-0.155
09:03:04.624,-0.355,-0.15
09:03:04.628,-0.355,-0.145
09:03:04.632,-0.32,-0.12
09:03:04.636,-0.33,-0.115
09:03:04.640,-0.335,-0.1
09:03:04.644,-0.335,-0.1
09:03:04.648,-0.335,-0.12
09:03:04.652,-0.325,-0.115
09:03:04.656,-0.325,-0.11
09:03:04.660,-0.335,-0.095
09:03:04.664,-0.33,-0.095
09:03:04.668,-0.325,-0.125
09:03:04.672,-0.335,-0.14
09:03:04.676,-0.33,-0.145
09:03:04.680,-0.31,-0.13
09:03:04.684,-0.285,-0.12
09:03:04.688,-0.315,-0.115
09:03:04.692,-0.325,-0.125
09:03:04.696,-0.345,-0.14
09:03:04.700,-0.34,-0.13
09:03:04.704,-0.33,-0.13
09:03:04.708,-0.315,-0.135
09:03:04.712,-0.3,-0.12
09:03:04.716,-0.315,-0.125
09:03:04.720,-0.335,-0.135
09:03:04.724,-0.345,-0.14
09:03:04.728,-0.34,-0.14
09:03:04.732,-0.33,-0.16
09:03:04.736,-0.305,-0.145
09:03:04.740,-0.3,-0.14
09:03:04.744,-0.315,-0.13
09:03:04.748,-0.32,-0.115
09:03:04.752,-0.345,-0.13
09:03:04.756,-0.375,-0.155
09:03:04.760,-0.345,-0.17
09:03:04.764,-0.365,-0.18
09:03:04.768,-0.355,-0.16
09:03:04.772,-0.35,-0.14
09:03:04.776,-0.36,-0.115
09:03:04.780,-0.37,-0.125
09:03:04.784,-0.37,-0.135
09:03:04.788,-0.365,-0.14
09:03:04.792,-0.35,-0.14
09:03:04.796,-0.36,-0.135
09:03:04.800,-0.35,-0.13
09:03:04.804,-0.34,-0.11
09:03:04.808,-0.355,-0.125
09:03:04.812,-0.36,-0.115
09:03:04.816,-0.365,-0.12
09:03:04.820,-0.365,-0.115
09:03:04.824,-0.365,-0.12
09:03:04.828,-0.375,-0.11
09:03:04.832,-0.375,-0.105
09:03:04.836,-0.35,-0.12
09:03:04.840,-0.375,-0.115
09:03:04.844,-0.38,-0.1
09:03:04.848,-0.355,-0.11
09:03:04.852,-0.35,-0.115
09:03:04.856,-0.375,-0.13
09:03:04.860,-0.375,-0.135
09:03:04.864,-0.365,-0.13
09:03:04.868,-0.36,-0.115
09:03:04.872,-0.36,-0.12
09:03:04.876,-0.37,-0.095
09:03:04.880,-0.38,-0.045
09:03:04.884,-0.38,-0.04
09:03:04.888,-0.38,-0.035
09:03:04.892,-0.395,-0.07
09:03:04.896,-0.37,-0.08
09:03:04.900,-0.34,-0.08
09:03:04.904,-0.32,-0.05
09:03:04.908,-0.325,-0.015
09:03:04.912,-0.4,0.02
09:03:04.916,-0.52,0.03
09:03:04.920,-0.68,0.04
09:03:04.924,-0.755,0.055
09:03:04.928,-0.75,0.08
09:03:04.932,-0.72,0.065
09:03:04.936,-0.66,0.02
09:03:04.940,-0.575,-0.025
09:03:04.944,-0.525,-0.08
09:03:04.948,-0.48,-0.09
09:03:04.952,-0.455,-0.115
09:03:04.956,-0.44,-0.115
09:03:04.960,-0.44,-0.095
09:03:04.964,-0.44,-0.08
09:03:04.968,-0.41,-0.08
09:03:04.972,-0.415,-0.075
09:03:04.976,-0.39,-0.09
09:03:04.980,-0.39,-0.12
09:03:04.984,-0.395,-0.185
09:03:04.988,-0.4,-0.225
09:03:04.992,-0.39,-0.215
09:03:04.996,-0.36,-0.2
09:03:05.000,-0.38,-0.19
09:03:05.004,-0.37,-0.18
09:03:05.008,-0.36,-0.185
09:03:05.012,-0.395,-0.16
09:03:05.016,-0.39,-0.165
09:03:05.020,-0.375,-0.17
09:03:05.024,-0.38,-0.165
09:03:05.028,-0.385,-0.175
09:03:05.032,-0.375,-0.165
09:03:05.036,-0.375,-0.17
09:03:05.040,-0.38,-0.16
09:03:05.044,-0.38,-0.17
09:03:05.048,-0.365,-0.155
09:03:05.052,-0.355,-0.155
09:03:05.056,-0.38,-0.16
09:03:05.060,-0.385,-0.16
09:03:05.064,-0.395,-0.16
09:03:05.068,-0.405,-0.155
09:03:05.072,-0.395,-0.16
09:03:05.076,-0.39,-0.155
09:03:05.080,-0.375,-0.155
09:03:05.084,-0.385,-0.15
09:03:05.088,-0.39,-0.145
09:03:05.092,-0.385,-0.155
09:03:05.096,-0.37,-0.145
09:03:05.100,-0.38,-0.165
09:03:05.104,-0.395,-0.16
09:03:05.108,-0.37,-0.185
09:03:05.112,-0.36,-0.18
09:03:05.116,-0.375,-0.16
09:03:05.120,-0.375,-0.15
09:03:05.124,-0.38,-0.165
09:03:05.128,-0.39,-0.155
09:03:05.132,-0.38,-0.14
09:03:05.136,-0.37,-0.145
09:03:05.140,-0.37,-0.13
09:03:05.144,-0.365,-0.13
09:03:05.148,-0.375,-0.13
09:03:05.152,-0.375,-0.14
09:03:05.156,-0.36,-0.13
09:03:05.160,-0.375,-0.105
09:03:05.164,-0.365,-0.12
09:03:05.168,-0.32,-0.125
09:03:05.172,-0.31,-0.135
09:03:05.176,-0.345,-0.135
09:03:05.180,-0.385,-0.125
09:03:05.184,-0.4,-0.125
09:03:05.188,-0.395,-0.115
09:03:05.192,-0.42,-0.12
09:03:05.196,-0.43,-0.11
09:03:05.200,-0.435,-0.11
09:03:05.204,-0.42,-0.115
09:03:05.208,-0.41,-0.11
09:03:05.212,-0.415,-0.11
09:03:05.216,-0.41,-0.105
09:03:05.220,-0.415,-0.1
09:03:05.224,-0.4,-0.095
09:03:05.228,-0.41,-0.105
09:03:05.232,-0.39,-0.115
09:03:05.236,-0.36,-0.1
09:03:05.240,-0.375,-0.1
09:03:05.244,-0.37,-0.11
09:03:05.248,-0.37,-0.115
09:03:05.252,-0.375,-0.11
09:03:05.256,-0.385,-0.115
09:03:05.260,-0.38,-0.1
09:03:05.264,-0.37,-0.095
09:03:05.268,-0.37,-0.11
09:03:05.272,-0.355,-0.125
09:03:05.276,-0.345,-0.125
09:03:05.280,-0.345,-0.125
09:03:05.284,-0.34,-0.12
09:03:05.288,-0.34,-0.115
09:03:05.292,-0.345,-0.12
09:03:05.296,-0.355,-0.105
09:03:05.300,-0.35,-0.1
09:03:05.304,-0.34,-0.1
09:03:05.308,-0.345,-0.1
09:03:05.312,-0.345,-0.12
09:03:05.316,-0.355,-0.125
09:03:05.320,-0.355,-0.13
09:03:05.324,-0.355,-0.135
09:03:05.328,-0.355,-0.135
09:03:05.332,-0.365,-0.13
09:03:05.336,-0.36,-0.12
09:03:05.340,-0.345,-0.095
09:03:05.344,-0.37,-0.095
09:03:05.348,-0.375,-0.1
09:03:05.352,-0.36,-0.11
09:03:05.356,-0.355,-0.115
09:03:05.360,-0.37,-0.115
09:03:05.364,-0.345,-0.11
09:03:05.368,-0.32,-0.09
09:03:05.372,-0.325,-0.08
09:03:05.376,-0.345,-0.07
09:03:05.380,-0.355,-0.09
09:03:05.384,-0.37,-0.115
09:03:05.388,-0.355,-0.11
09:03:05.392,-0.365,-0.105
09:03:05.396,-0.385,-0.09
09:03:05.400,-0.4,-0.1
09:03:05.404,-0.375,-0.1
09:03:05.408,-0.345,-0.11
09:03:05.412,-0.35,-0.1
09:03:05.416,-0.345,-0.1
09:03:05.420,-0.33,-0.1
09:03:05.424,-0.355,-0.075
09:03:05.428,-0.34,-0.07
09:03:05.432,-0.315,-0.1
09:03:05.436,-0.325,-0.105
09:03:05.440,-0.32,-0.085
09:03:05.444,-0.32,-0.08
09:03:05.448,-0.31,-0.065
09:03:05.452,-0.31,-0.04
09:03:05.456,-0.33,-0.005
09:03:05.460,-0.33,0.015
09:03:05.464,-0.34,0.015
09:03:05.468,-0.36,0.005
09:03:05.472,-0.34,0.0
09:03:05.476,-0.315,0.01
09:03:05.480,-0.305,0.05
09:03:05.484,-0.315,0.095
09:03:05.488,-0.39,0.125
09:03:05.492,-0.535,0.155
09:03:05.496,-0.685,0.185
09:03:05.500,-0.71,0.205
09:03:05.504,-0.7,0.215
09:03:05.508,-0.635,0.21
09:03:05.512,-0.56,0.19
09:03:05.516,-0.455,0.185
09:03:05.520,-0.39,0.17
09:03:05.524,-0.34,0.1
09:03:05.528,-0.355,0.04
09:03:05.532,-0.365,0.03
09:03:05.536,-0.345,0.04
09:03:05.540,-0.32,0.065
09:03:05.544,-0.29,0.085
09:03:05.548,-0.305,0.045
09:03:05.552,-0.29,0.0
09:03:05.556,-0.275,-0.045
09:03:05.560,-0.28,-0.09
09:03:05.564,-0.27,-0.1
09:03:05.568,-0.23,-0.115
09:03:05.572,-0.24,-0.12
09:03:05.576,-0.235,-0.135
09:03:05.580,-0.24,-0.135
09:03:05.584,-0.215,-0.15
09:03:05.588,-0.245,-0.145
09:03:05.592,-0.235,-0.14
09:03:05.596,-0.25,-0.14
09:03:05.600,-0.245,-0.13
09:03:05.604,-0.24,-0.125
09:03:05.608,-0.24,-0.125
09:03:05.612,-0.235,-0.145
09:03:05.616,-0.235,-0.145
09:03:05.620,-0.22,-0.155
09:03:05.624,-0.215,-0.15
09:03:05.628,-0.225,-0.145
09:03:05.632,-0.24,-0.16
09:03:05.636,-0.24,-0.18
09:03:05.640,-0.235,-0.195
09:03:05.644,-0.22,-0.205
09:03:05.648,-0.21,-0.225
09:03:05.652,-0.22,-0.23
09:03:05.656,-0.19,-0.23
09:03:05.660,-0.195,-0.21
09:03:05.664,-0.2,-0.215
09:03:05.668,-0.19,-0.23
09:03:05.672,-0.19,-0.215
09:03:05.676,-0.17,-0.215
09:03:05.680,-0.18,-0.22
09:03:05.684,-0.15,-0.215
09:03:05.688,-0.16,-0.205
09:03:05.692,-0.175,-0.215
09:03:05.696,-0.185,-0.215
09:03:05.700,-0.2,-0.215
09:03:05.704,-0.19,-0.22
09:03:05.708,-0.185,-0.215
09:03:05.712,-0.195,-0.19
09:03:05.716,-0.205,-0.19
09:03:05.720,-0.19,-0.2
09:03:05.724,-0.195,-0.195
09:03:05.728,-0.21,-0.2
09:03:05.732,-0.2,-0.2
09:03:05.736,-0.19,-0.19
09:03:05.740,-0.195,-0.18
09:03:05.744,-0.19,-0.17
09:03:05.748,-0.195,-0.165
09:03:05.752,-0.19,-0.155
09:03:05.756,-0.195,-0.16
09:03:05.760,-0.205,-0.155
09:03:05.764,-0.19,-0.145
09:03:05.768,-0.21,-0.145
09:03:05.772,-0.21,-0.135
09:03:05.776,-0.2,-0.15
09:03:05.780,-0.205,-0.12
09:03:05.784,-0.21,-0.12
09:03:05.788,-0.22,-0.115
09:03:05.792,-0.21,-0.12
09:03:05.796,-0.195,-0.12
09:03:05.800,-0.19,-0.125
09:03:05.804,-0.18,-0.135
09:03:05.808,-0.185,-0.135
09:03:05.812,-0.18,-0.14
09:03:05.816,-0.175,-0.135
09:03:05.820,-0.16,-0.115
09:03:05.824,-0.18,-0.12
09:03:05.828,-0.175,-0.115
09:03:05.832,-0.175,-0.11
09:03:05.836,-0.155,-0.115
09:03:05.840,-0.15,-0.115
09:03:05.844,-0.15,-0.11
09:03:05.848,-0.15,-0.1
09:03:05.852,-0.15,-0.11
09:03:05.856,-0.155,-0.11
09:03:05.860,-0.155,-0.105
09:03:05.864,-0.145,-0.075
09:03:05.868,-0.16,-0.04
09:03:05.872,-0.165,-0.04
09:03:05.876,-0.155,-0.07
09:03:05.880,-0.15,-0.115
09:03:05.884,-0.17,-0.135
09:03:05.888,-0.145,-0.1
09:03:05.892,-0.12,-0.105
09:03:05.896,-0.115,-0.105
09:03:05.900,-0.105,-0.105
09:03:05.904,-0.105,-0.13
09:03:05.908,-0.14,-0.12
09:03:05.912,-0.2,-0.125
09:03:05.916,-0.2,-0.12
09:03:05.920,-0.205,-0.095
09:03:05.924,-0.19,-0.1
09:03:05.928,-0.185,-0.1
09:03:05.932,-0.175,-0.1
09:03:05.936,-0.155,-0.105
09:03:05.940,-0.175,-0.105
09:03:05.944,-0.155,-0.1
09:03:05.948,-0.16,-0.1
09:03:05.952,-0.155,-0.12
09:03:05.956,-0.17,-0.105
09:03:05.960,-0.16,-0.105
09:03:05.964,-0.155,-0.105
09:03:05.968,-0.145,-0.095
09:03:05.972,-0.17,-0.09
09:03:05.976,-0.155,-0.085
09:03:05.980,-0.145,-0.085
09:03:05.984,-0.14,-0.1
09:03:05.988,-0.135,-0.095
09:03:05.992,-0.14,-0.095
09:03:05.996,-0.125,-0.085
09:03:06.000,-0.12,-0.085
09:03:06.004,-0.135,-0.085
09:03:06.008,-0.14,-0.08
09:03:06.012,-0.15,-0.065
09:03:06.016,-0.14,-0.07
09:03:06.020,-0.145,-0.08
09:03:06.024,-0.155,-0.09
09:03:06.028,-0.14,-0.095
09:03:06.032,-0.15,-0.09
09:03:06.036,-0.145,-0.075
09:03:06.040,-0.155,-0.065
09:03:06.044,-0.155,-0.025
09:03:06.048,-0.15,0.0
09:03:06.052,-0.155,-0.005
09:03:06.056,-0.165,-0.02
09:03:06.060,-0.14,-0.035
09:03:06.064,-0.13,-0.015
09:03:06.068,-0.1,0.0
09:03:06.072,-0.105,0.0
09:03:06.076,-0.17,-0.025
09:03:06.080,-0.305,-0.035
09:03:06.084,-0.45,-0.01
09:03:06.088,-0.54,0.035
09:03:06.092,-0.51,0.04
09:03:06.096,-0.455,0.02
09:03:06.100,-0.395,-0.01
09:03:06.104,-0.34,-0.025
09:03:06.108,-0.29,-0.055
09:03:06.112,-0.27,-0.045
09:03:06.116,-0.23,-0.075
09:03:06.120,-0.2,-0.1
09:03:06.124,-0.17,-0.105
09:03:06.128,-0.12,-0.115
09:03:06.132,-0.09,-0.09
09:03:06.136,-0.085,-0.095
09:03:06.140,-0.09,-0.115
09:03:06.144,-0.095,-0.13
09:03:06.148,-0.095,-0.125
09:03:06.152,-0.085,-0.135
09:03:06.156,-0.095,-0.135
09:03:06.160,-0.07,-0.13
09:03:06.164,-0.08,-0.13
09:03:06.168,-0.07,-0.135
09:03:06.172,-0.06,-0.14
09:03:06.176,-0.07,-0.135
09:03:06.180,-0.055,-0.125
09:03:06.184,-0.065,-0.125
09:03:06.188,-0.05,-0.11
09:03:06.192,-0.05,-0.115
09:03:06.196,-0.045,-0.125
09:03:06.200,-0.055,-0.13
09:03:06.204,-0.065,-0.125
09:03:06.208,-0.055,-0.15
09:03:06.212,-0.05,-0.16
09:03:06.216,-0.07,-0.17
09:03:06.220,-0.045,-0.175
09:03:06.224,-0.05,-0.175
09:03:06.228,-0.04,-0.165
09:03:06.232,-0.045,-0.15
09:03:06.236,-0.05,-0.15
09:03:06.240,-0.055,-0.15
09:03:06.244,-0.05,-0.16
09:03:06.248,-0.045,-0.16
09:03:06.252,-0.02,-0.16
09:03:06.256,-0.055,-0.155
09:03:06.260,-0.045,-0.14
09:03:06.264,-0.045,-0.14
09:03:06.268,-0.035,-0.155
09:03:06.272,-0.055,-0.155
09:03:06.276,-0.065,-0.145
09:03:06.280,-0.08,-0.15
09:03:06.284,-0.09,-0.145
09:03:06.288,-0.075,-0.135
09:03:06.292,-0.06,-0.145
09:03:06.296,-0.04,-0.125
09:03:06.300,-0.03,-0.135
09:03:06.304,0.0,-0.125
09:03:06.308,0.015,-0.115
09:03:06.312,0.005,-0.11
09:03:06.316,-0.06,-0.115
09:03:06.320,-0.105,-0.11
09:03:06.324,-0.105,-0.11
09:03:06.328,-0.09,-0.11
09:03:06.332,-0.08,-0.1
09:03:06.336,-0.08,-0.07
09:03:06.340,-0.065,-0.055
09:03:06.344,-0.075,-0.07
09:03:06.348,-0.065,-0.09
09:03:06.352,-0.07,-0.135
09:03:06.356,-0.05,-0.14
09:03:06.360,-0.05,-0.135
09:03:06.364,-0.05,-0.12
09:03:06.368,-0.04,-0.105
09:03:06.372,-0.045,-0.095
09:03:06.376,-0.065,-0.11
09:03:06.380,-0.08,-0.12
09:03:06.384,-0.06,-0.115
09:03:06.388,-0.065,-0.11
09:03:06.392,-0.07,-0.12
09:03:06.396,-0.055,-0.125
09:03:06.400,-0.06,-0.115
09:03:06.404,-0.05,-0.11
09:03:06.408,-0.055,-0.1
09:03:06.412,-0.04,-0.11
09:03:06.416,-0.03,-0.1
09:03:06.420,-0.045,-0.11
09:03:06.424,-0.045,-0.115
09:03:06.428,-0.04,-0.125
09:03:06.432,-0.035,-0.12
09:03:06.436,-0.03,-0.115
09:03:06.440,-0.02,-0.115
09:03:06.444,-0.02,-0.105
09:03:06.448,-0.02,-0.11
09:03:06.452,-0.015,-0.11
09:03:06.456,-0.02,-0.115
09:03:06.460,-0.02,-0.125
09:03:06.464,-0.015,-0.13
09:03:06.468,0.0,-0.12
09:03:06.472,-0.005,-0.115
09:03:06.476,-0.005,-0.105
09:03:06.480,0.0,-0.105
09:03:06.484,-0.015,-0.11
09:03:06.488,-0.005,-0.105
09:03:06.492,0.01,-0.12
09:03:06.496,0.01,-0.105
09:03:06.500,0.005,-0.095
09:03:06.504,0.01,-0.09
09:03:06.508,0.01,-0.1
09:03:06.512,0.015,-0.11
09:03:06.516,0.005,-0.115
09:03:06.520,0.005,-0.12
09:03:06.524,0.01,-0.13
09:03:06.528,0.015,-0.145
09:03:06.532,0.02,-0.14
09:03:06.536,0.02,-0.125
09:03:06.540,0.02,-0.1
09:03:06.544,0.02,-0.11
09:03:06.548,0.005,-0.085
09:03:06.552,-0.01,-0.1
09:03:06.556,-0.015,-0.125
09:03:06.560,-0.01,-0.13
09:03:06.564,-0.01,-0.135
09:03:06.568,0.0,-0.105
09:03:06.572,0.015,-0.08
09:03:06.576,0.005,-0.045
09:03:06.580,-0.02,-0.02
09:03:06.584,-0.045,-0.005
09:03:06.588,-0.05,-0.035
09:03:06.592,-0.05,-0.055
09:03:06.596,-0.005,-0.05
09:03:06.600,0.015,-0.05
09:03:06.604,0.035,-0.035
09:03:06.608,0.0,-0.015
09:03:06.612,-0.13,0.01
09:03:06.616,-0.275,0.015
09:03:06.620,-0.37,0.035
09:03:06.624,-0.385,0.06
09:03:06.628,-0.38,0.035
09:03:06.632,-0.31,0.0
09:03:06.636,-0.235,-0.03
09:03:06.640,-0.19,-0.065
09:03:06.644,-0.155,-0.07
09:03:06.648,-0.105,-0.09
09:03:06.652,-0.09,-0.09
09:03:06.656,-0.075,-0.12
09:03:06.660,-0.04,-0.11
09:03:06.664,-0.02,-0.095
09:03:06.668,-0.005,-0.105
09:03:06.672,0.0,-0.13
09:03:06.676,-0.005,-0.14
09:03:06.680,0.0,-0.15
09:03:06.684,0.0,-0.16
09:03:06.688,0.01,-0.165
09:03:06.692,0.0,-0.165
09:03:06.696,-0.01,-0.165
09:03:06.700,-0.02,-0.17
09:03:06.704,-0.03,-0.155
09:03:06.708,-0.015,-0.16
09:03:06.712,-0.005,-0.17
09:03:06.716,-0.005,-0.155
09:03:06.720,0.0,-0.155
09:03:06.724,0.0,-0.155
09:03:06.728,0.0,-0.15
09:03:06.732,0.01,-0.14
09:03:06.736,0.03,-0.14
09:03:06.740,0.02,-0.14
09:03:06.744,0.015,-0.13
09:03:06.748,-0.005,-0.16
09:03:06.752,0.005,-0.145
09:03:06.756,0.01,-0.145
09:03:06.760,0.015,-0.15
09:03:06.764,0.01,-0.145
09:03:06.768,0.01,-0.155
09:03:06.772,0.0,-0.145
09:03:06.776,-0.005,-0.15
09:03:06.780,0.0,-0.155
09:03:06.784,-0.01,-0.17
09:03:06.788,-0.01,-0.16
09:03:06.792,0.005,-0.175
09:03:06.796,0.01,-0.16
09:03:06.800,0.0,-0.175
09:03:06.804,0.02,-0.17
09:03:06.808,-0.01,-0.18
09:03:06.812,0.02,-0.175
09:03:06.816,0.015,-0.17
09:03:06.820,0.015,-0.175
09:03:06.824,0.02,-0.165
09:03:06.828,0.025,-0.17
09:03:06.832,0.015,-0.18
09:03:06.836,0.015,-0.155
09:03:06.840,0.025,-0.145
09:03:06.844,0.01,-0.14
09:03:06.848,0.0,-0.13
09:03:06.852,0.005,-0.115
09:03:06.856,0.005,-0.115
09:03:06.860,-0.03,-0.115
09:03:06.864,-0.075,-0.105
09:03:06.868,-0.095,-0.11
09:03:06.872,-0.05,-0.11
09:03:06.876,-0.06,-0.095
09:03:06.880,-0.05,-0.09
09:03:06.884,-0.04,-0.09
09:03:06.888,0.0,-0.11
09:03:06.892,0.01,-0.095
09:03:06.896,0.0,-0.095
09:03:06.900,-0.035,-0.105
09:03:06.904,-0.05,-0.105
09:03:06.908,-0.03,-0.11
09:03:06.912,-0.025,-0.11
09:03:06.916,-0.01,-0.105
09:03:06.920,-0.025,-0.115
09:03:06.924,-0.03,-0.12
09:03:06.928,-0.025,-0.115
09:03:06.932,-0.015,-0.12
09:03:06.936,-0.015,-0.125
09:03:06.940,-0.025,-0.115
09:03:06.944,-0.045,-0.1
09:03:06.948,-0.035,-0.095
09:03:06.952,-0.035,-0.1
09:03:06.956,-0.045,-0.125
09:03:06.960,-0.035,-0.13
09:03:06.964,0.005,-0.14
09:03:06.968,0.02,-0.165
09:03:06.972,0.025,-0.185
09:03:06.976,0.015,-0.175
09:03:06.980,-0.045,-0.15
09:03:06.984,-0.065,-0.135
09:03:06.988,-0.06,-0.125
09:03:06.992,-0.06,-0.13
09:03:06.996,-0.03,-0.125
09:03:07.000,-0.01,-0.125
09:03:07.004,-0.005,-0.12
09:03:07.008,0.0,-0.125
09:03:07.012,-0.01,-0.135
09:03:07.016,-0.01,-0.125
09:03:07.020,0.0,-0.125
09:03:07.024,-0.01,-0.125
09:03:07.028,-0.015,-0.13
09:03:07.032,-0.01,-0.13
09:03:07.036,-0.015,-0.13
09:03:07.040,0.01,-0.135
09:03:07.044,0.015,-0.14
09:03:07.048,0.005,-0.12
09:03:07.052,-0.02,-0.135
09:03:07.056,-0.01,-0.14
09:03:07.060,0.0,-0.145
09:03:07.064,-0.005,-0.15
09:03:07.068,-0.04,-0.15
09:03:07.072,-0.07,-0.14
09:03:07.076,-0.085,-0.14
09:03:07.080,-0.085,-0.135
09:03:07.084,-0.07,-0.14
09:03:07.088,-0.06,-0.14
09:03:07.092,-0.065,-0.145
09:03:07.096,-0.06,-0.155
09:03:07.100,-0.05,-0.13
09:03:07.104,-0.05,-0.115
09:03:07.108,-0.045,-0.095
09:03:07.112,-0.045,-0.06
09:03:07.116,-0.06,-0.04
09:03:07.120,-0.08,-0.05
09:03:07.124,-0.06,-0.085
09:03:07.128,-0.02,-0.08
09:03:07.132,0.045,-0.05
09:03:07.136,0.065,-0.02
09:03:07.140,0.045,0.0
09:03:07.144,-0.105,0.02
09:03:07.148,-0.325,0.045
09:03:07.152,-0.445,0.07
09:03:07.156,-0.43,0.09
09:03:07.160,-0.385,0.07
09:03:07.164,-0.345,0.03
09:03:07.168,-0.285,-0.025
09:03:07.172,-0.22,-0.075
09:03:07.176,-0.18,-0.09
09:03:07.180,-0.145,-0.1
09:03:07.184,-0.125,-0.095
09:03:07.188,-0.06,-0.06
09:03:07.192,-0.055,-0.055
09:03:07.196,-0.04,-0.08
09:03:07.200,-0.045,-0.13
09:03:07.204,-0.04,-0.185
09:03:07.208,-0.025,-0.195
09:03:07.212,0.0,-0.2
09:03:07.216,0.02,-0.19
09:03:07.220,0.0,-0.185
09:03:07.224,0.005,-0.17
09:03:07.228,-0.01,-0.195
09:03:07.232,0.015,-0.195
09:03:07.236,0.035,-0.19
09:03:07.240,0.03,-0.19
09:03:07.244,0.02,-0.195
09:03:07.248,-0.01,-0.185
09:03:07.252,-0.015,-0.185
09:03:07.256,0.02,-0.18
09:03:07.260,0.06,-0.18
09:03:07.264,0.065,-0.165
09:03:07.268,0.005,-0.16
09:03:07.272,-0.065,-0.15
09:03:07.276,-0.11,-0.15
09:03:07.280,-0.11,-0.155
09:03:07.284,-0.07,-0.16
09:03:07.288,-0.045,-0.17
09:03:07.292,-0.025,-0.165
09:03:07.296,-0.005,-0.15
09:03:07.300,0.005,-0.155
09:03:07.304,0.0,-0.175
09:03:07.308,0.01,-0.175
09:03:07.312,0.01,-0.16
09:03:07.316,0.0,-0.17
09:03:07.320,0.01,-0.17
09:03:07.324,0.01,-0.17
09:03:07.328,0.02,-0.17
09:03:07.332,0.01,-0.175
09:03:07.336,0.025,-0.18
09:03:07.340,0.025,-0.18
09:03:07.344,0.005,-0.18
09:03:07.348,0.01,-0.19
09:03:07.352,0.005,-0.185
09:03:07.356,0.01,-0.185
09:03:07.360,0.01,-0.195
09:03:07.364,0.005,-0.19
09:03:07.368,0.0,-0.195
09:03:07.372,0.01,-0.18
09:03:07.376,0.005,-0.175
09:03:07.380,0.0,-0.17
09:03:07.384,0.015,-0.17
09:03:07.388,0.015,-0.165
09:03:07.392,0.02,-0.155
09:03:07.396,0.02,-0.155
09:03:07.400,0.015,-0.15
09:03:07.404,0.005,-0.14
09:03:07.408,-0.015,-0.14
09:03:07.412,0.0,-0.13
09:03:07.416,0.0,-0.12
09:03:07.420,-0.01,-0.125
09:03:07.424,-0.015,-0.11
09:03:07.428,0.005,-0.12
09:03:07.432,0.01,-0.13
09:03:07.436,0.0,-0.11
09:03:07.440,0.01,-0.1
09:03:07.444,0.005,-0.105
09:03:07.448,0.02,-0.11
09:03:07.452,0.01,-0.12
09:03:07.456,0.025,-0.11
09:03:07.460,0.025,-0.12
09:03:07.464,0.045,-0.12
09:03:07.468,0.055,-0.14
09:03:07.472,0.04,-0.12
09:03:07.476,0.045,-0.11
09:03:07.480,0.05,-0.115
09:03:07.484,0.055,-0.12
09:03:07.488,0.065,-0.14
09:03:07.492,0.075,-0.115
09:03:07.496,0.095,-0.135
09:03:07.500,0.075,-0.125
09:03:07.504,0.1,-0.125
09:03:07.508,0.095,-0.115
09:03:07.512,0.1,-0.12
09:03:07.516,0.095,-0.13
09:03:07.520,0.08,-0.135
09:03:07.524,0.08,-0.14
09:03:07.528,0.085,-0.165
09:03:07.532,0.095,-0.17
09:03:07.536,0.095,-0.12
09:03:07.540,0.095,-0.1
09:03:07.544,0.08,-0.11
09:03:07.548,0.075,-0.13
09:03:07.552,0.09,-0.16
09:03:07.556,0.075,-0.14
09:03:07.560,0.06,-0.135
09:03:07.564,0.07,-0.14
09:03:07.568,0.06,-0.13
09:03:07.572,0.085,-0.13
09:03:07.576,0.075,-0.135
09:03:07.580,0.09,-0.12
09:03:07.584,0.08,-0.115
09:03:07.588,0.095,-0.085
09:03:07.592,0.085,-0.08
09:03:07.596,0.09,-0.06
09:03:07.600,0.095,-0.035
09:03:07.604,0.09,-0.015
09:03:07.608,0.055,-0.04
09:03:07.612,0.065,-0.06
09:03:07.616,0.075,-0.07
09:03:07.620,0.13,-0.06
09:03:07.624,0.14,-0.04
09:03:07.628,0.11,-0.03
09:03:07.632,-0.005,0.0
09:03:07.636,-0.17,0.02
09:03:07.640,-0.29,0.03
09:03:07.644,-0.295,0.045
09:03:07.648,-0.255,0.01
09:03:07.652,-0.215,-0.015
09:03:07.656,-0.145,-0.08
09:03:07.660,-0.09,-0.11
09:03:07.664,-0.04,-0.12
09:03:07.668,-0.015,-0.12
09:03:07.672,0.01,-0.14
09:03:07.676,0.02,-0.15
09:03:07.680,0.045,-0.125
09:03:07.684,0.06,-0.115
09:03:07.688,0.08,-0.115
09:03:07.692,0.08,-0.11
09:03:07.696,0.08,-0.11
09:03:07.700,0.085,-0.135
09:03:07.704,0.1,-0.16
09:03:07.708,0.09,-0.165
09:03:07.712,0.075,-0.17
09:03:07.716,0.075,-0.17
09:03:07.720,0.08,-0.175
09:03:07.724,0.08,-0.195
09:03:07.728,0.055,-0.175
09:03:07.732,0.07,-0.18
09:03:07.736,0.08,-0.165
09:03:07.740,0.09,-0.155
09:03:07.744,0.065,-0.16
09:03:07.748,0.075,-0.15
09:03:07.752,0.06,-0.155
09:03:07.756,0.08,-0.175
09:03:07.760,0.095,-0.17
09:03:07.764,0.095,-0.185
09:03:07.768,0.09,-0.18
09:03:07.772,0.08,-0.165
09:03:07.776,0.1,-0.19
09:03:07.780,0.09,-0.175
09:03:07.784,0.1,-0.18
09:03:07.788,0.08,-0.21
09:03:07.792,0.075,-0.23
09:03:07.796,0.1,-0.22
09:03:07.800,0.085,-0.22
09:03:07.804,0.105,-0.22
09:03:07.808,0.105,-0.195
09:03:07.812,0.105,-0.175
09:03:07.816,0.09,-0.18
09:03:07.820,0.075,-0.175
09:03:07.824,0.075,-0.195
09:03:07.828,0.07,-0.195
09:03:07.832,0.095,-0.205
09:03:07.836,0.095,-0.21
09:03:07.840,0.105,-0.2
09:03:07.844,0.095,-0.215
09:03:07.848,0.1,-0.205
09:03:07.852,0.075,-0.205
09:03:07.856,0.1,-0.205
09:03:07.860,0.105,-0.21
09:03:07.864,0.1,-0.19
09:03:07.868,0.1,-0.17
09:03:07.872,0.1,-0.175
09:03:07.876,0.105,-0.175
09:03:07.880,0.095,-0.16
09:03:07.884,0.085,-0.175
09:03:07.888,0.095,-0.17
09:03:07.892,0.08,-0.15
09:03:07.896,0.09,-0.14
09:03:07.900,0.06,-0.14
09:03:07.904,0.07,-0.135
09:03:07.908,0.08,-0.15
09:03:07.912,0.05,-0.155
09:03:07.916,0.06,-0.15
09:03:07.920,0.055,-0.16
09:03:07.924,0.05,-0.17
09:03:07.928,0.055,-0.175
09:03:07.932,0.075,-0.175
09:03:07.936,0.055,-0.185
09:03:07.940,0.045,-0.185
09:03:07.944,0.045,-0.2
09:03:07.948,0.06,-0.2
09:03:07.952,0.075,-0.195
09:03:07.956,0.055,-0.18
09:03:07.960,0.06,-0.185
09:03:07.964,0.07,-0.225
09:03:07.968,0.065,-0.25
09:03:07.972,0.065,-0.225
09:03:07.976,0.075,-0.185
09:03:07.980,0.08,-0.185
09:03:07.984,0.095,-0.195
09:03:07.988,0.105,-0.2
09:03:07.992,0.11,-0.2
09:03:07.996,0.12,-0.2
09:03:08.000,0.12,-0.195
09:03:08.004,0.13,-0.205
09:03:08.008,0.135,-0.215
09:03:08.012,0.13,-0.215
09:03:08.016,0.115,-0.21
09:03:08.020,0.105,-0.23
09:03:08.024,0.11,-0.235
09:03:08.028,0.1,-0.235
09:03:08.032,0.1,-0.215
09:03:08.036,0.09,-0.195
09:03:08.040,0.095,-0.23
09:03:08.044,0.1,-0.235
09:03:08.048,0.105,-0.235
09:03:08.052,0.115,-0.225
09:03:08.056,0.11,-0.21
09:03:08.060,0.105,-0.215
09:03:08.064,0.11,-0.19
09:03:08.068,0.105,-0.17
09:03:08.072,0.085,-0.15
09:03:08.076,0.08,-0.175
09:03:08.080,0.065,-0.215
09:03:08.084,0.06,-0.21
09:03:08.088,0.115,-0.22
09:03:08.092,0.15,-0.23
09:03:08.096,0.185,-0.19
09:03:08.100,0.12,-0.185
09:03:08.104,-0.005,-0.14
09:03:08.108,-0.14,-0.075
09:03:08.112,-0.225,0.0
09:03:08.116,-0.215,0.02
09:03:08.120,-0.18,0.0
09:03:08.124,-0.08,-0.045
09:03:08.128,-0.025,-0.09
09:03:08.132,0.055,-0.14
09:03:08.136,0.11,-0.16
09:03:08.140,0.165,-0.175
09:03:08.144,0.21,-0.18
09:03:08.148,0.215,-0.215
09:03:08.152,0.205,-0.24
09:03:08.156,0.19,-0.255
09:03:08.160,0.205,-0.25
09:03:08.164,0.21,-0.265
09:03:08.168,0.2,-0.265
09:03:08.172,0.19,-0.27
09:03:08.176,0.175,-0.285
09:03:08.180,0.14,-0.285
09:03:08.184,0.15,-0.29
09:03:08.188,0.125,-0.31
09:03:08.192,0.14,-0.315
09:03:08.196,0.125,-0.325
09:03:08.200,0.14,-0.33
09:03:08.204,0.14,-0.32
09:03:08.208,0.165,-0.315
09:03:08.212,0.145,-0.31
09:03:08.216,0.16,-0.305
09:03:08.220,0.15,-0.33
09:03:08.224,0.15,-0.33
09:03:08.228,0.16,-0.315
09:03:08.232,0.155,-0.32
09:03:08.236,0.15,-0.335
09:03:08.240,0.155,-0.33
09:03:08.244,0.155,-0.315
09:03:08.248,0.155,-0.325
09:03:08.252,0.165,-0.31
09:03:08.256,0.17,-0.315
09:03:08.260,0.155,-0.3
09:03:08.264,0.15,-0.32
09:03:08.268,0.15,-0.33
09:03:08.272,0.125,-0.325
09:03:08.276,0.155,-0.34
09:03:08.280,0.135,-0.34
09:03:08.284,0.15,-0.35
09:03:08.288,0.125,-0.335
09:03:08.292,0.135,-0.32
09:03:08.296,0.125,-0.315
09:03:08.300,0.115,-0.325
09:03:08.304,0.115,-0.32
09:03:08.308,0.115,-0.32
09:03:08.312,0.11,-0.33
09:03:08.316,0.11,-0.32
09:03:08.320,0.11,-0.325
09:03:08.324,0.105,-0.345
09:03:08.328,0.115,-0.345
09:03:08.332,0.115,-0.33
09:03:08.336,0.115,-0.32
09:03:08.340,0.1,-0.31
09:03:08.344,0.115,-0.305
09:03:08.348,0.1,-0.315
09:03:08.352,0.09,-0.32
09:03:08.356,0.1,-0.32
09:03:08.360,0.11,-0.32
09:03:08.364,0.14,-0.34
09:03:08.368,0.12,-0.33
09:03:08.372,0.13,-0.31
09:03:08.376,0.13,-0.31
09:03:08.380,0.13,-0.32
09:03:08.384,0.135,-0.3
09:03:08.388,0.13,-0.3
09:03:08.392,0.14,-0.295
09:03:08.396,0.135,-0.305
09:03:08.400,0.16,-0.305
09:03:08.404,0.155,-0.31
09:03:08.408,0.14,-0.285
09:03:08.412,0.13,-0.285
09:03:08.416,0.145,-0.29
09:03:08.420,0.145,-0.295
09:03:08.424,0.165,-0.295
09:03:08.428,0.15,-0.29
09:03:08.432,0.17,-0.29
09:03:08.436,0.165,-0.28
09:03:08.440,0.16,-0.285
09:03:08.444,0.155,-0.29
09:03:08.448,0.155,-0.29
09:03:08.452,0.15,-0.295
09:03:08.456,0.14,-0.295
09:03:08.460,0.175,-0.29
09:03:08.464,0.17,-0.29
09:03:08.468,0.175,-0.295
09:03:08.472,0.17,-0.29
09:03:08.476,0.16,-0.295
09:03:08.480,0.17,-0.295
09:03:08.484,0.17,-0.305
09:03:08.488,0.17,-0.29
09:03:08.492,0.16,-0.295
09:03:08.496,0.165,-0.285
09:03:08.500,0.155,-0.285
09:03:08.504,0.15,-0.28
09:03:08.508,0.165,-0.27
09:03:08.512,0.16,-0.27
09:03:08.516,0.165,-0.275
09:03:08.520,0.16,-0.28
09:03:08.524,0.165,-0.28
09:03:08.528,0.145,-0.27
09:03:08.532,0.15,-0.285
09:03:08.536,0.15,-0.275
09:03:08.540,0.145,-0.26
09:03:08.544,0.15,-0.26
09:03:08.548,0.165,-0.27
09:03:08.552,0.15,-0.265
09:03:08.556,0.145,-0.28
09:03:08.560,0.15,-0.28
09:03:08.564,0.155,-0.265
09:03:08.568,0.155,-0.26
09:03:08.572,0.17,-0.25
09:03:08.576,0.155,-0.26
09:03:08.580,0.155,-0.27
09:03:08.584,0.165,-0.28
09:03:08.588,0.155,-0.27
09:03:08.592,0.15,-0.28
09:03:08.596,0.145,-0.265
09:03:08.600,0.15,-0.265
09:03:08.604,0.16,-0.26
09:03:08.608,0.145,-0.265
09:03:08.612,0.135,-0.27
09:03:08.616,0.145,-0.28
09:03:08.620,0.13,-0.285
09:03:08.624,0.13,-0.275
09:03:08.628,0.135,-0.26
09:03:08.632,0.135,-0.28
09:03:08.636,0.135,-0.285
09:03:08.640,0.12,-0.275
09:03:08.644,0.11,-0.255
09:03:08.648,0.13,-0.22
09:03:08.652,0.135,-0.165
09:03:08.656,0.12,-0.155
09:03:08.660,0.085,-0.17
09:03:08.664,0.1,-0.22
09:03:08.668,0.135,-0.24
09:03:08.672,0.17,-0.23
09:03:08.676,0.195,-0.215
09:03:08.680,0.165,-0.205
09:03:08.684,0.085,-0.18
09:03:08.688,-0.06,-0.16
09:03:08.692,-0.185,-0.135
09:03:08.696,-0.235,-0.095
09:03:08.700,-0.205,-0.12
09:03:08.704,-0.16,-0.175
09:03:08.708,-0.09,-0.23
09:03:08.712,-0.015,-0.275
09:03:08.716,0.015,-0.28
09:03:08.720,0.055,-0.295
09:03:08.724,0.06,-0.29
09:03:08.728,0.09,-0.295
09:03:08.732,0.1,-0.28
09:03:08.736,0.115,-0.25
09:03:08.740,0.135,-0.25
09:03:08.744,0.135,-0.255
09:03:08.748,0.155,-0.265
09:03:08.752,0.14,-0.26
09:03:08.756,0.145,-0.285
09:03:08.760,0.14,-0.305
09:03:08.764,0.135,-0.295
09:03:08.768,0.115,-0.305
09:03:08.772,0.11,-0.305
09:03:08.776,0.13,-0.315
09:03:08.780,0.12,-0.32
09:03:08.784,0.11,-0.32
09:03:08.788,0.12,-0.31
09:03:08.792,0.13,-0.295
09:03:08.796,0.14,-0.305
09:03:08.800,0.14,-0.3
09:03:08.804,0.125,-0.3
09:03:08.808,0.125,-0.295
09:03:08.812,0.13,-0.295
09:03:08.816,0.12,-0.305
09:03:08.820,0.12,-0.305
09:03:08.824,0.125,-0.305
09:03:08.828,0.13,-0.305
09:03:08.832,0.145,-0.295
09:03:08.836,0.145,-0.29
09:03:08.840,0.145,-0.3
09:03:08.844,0.15,-0.29
09:03:08.848,0.14,-0.29
09:03:08.852,0.125,-0.31
09:03:08.856,0.105,-0.305
09:03:08.860,0.1,-0.305
09:03:08.864,0.13,-0.29
09:03:08.868,0.115,-0.29
09:03:08.872,0.115,-0.295
09:03:08.876,0.115,-0.3
09:03:08.880,0.095,-0.3
09:03:08.884,0.08,-0.3
09:03:08.888,0.085,-0.3
09:03:08.892,0.08,-0.28
09:03:08.896,0.085,-0.28
09:03:08.900,0.07,-0.29
09:03:08.904,0.075,-0.295
09:03:08.908,0.05,-0.28
09:03:08.912,0.07,-0.285
09:03:08.916,0.075,-0.285
09:03:08.920,0.065,-0.275
09:03:08.924,0.06,-0.275
09:03:08.928,0.035,-0.275
09:03:08.932,0.055,-0.27
09:03:08.936,0.045,-0.26
09:03:08.940,0.06,-0.265
09:03:08.944,0.07,-0.265
09:03:08.948,0.055,-0.26
09:03:08.952,0.045,-0.25
09:03:08.956,0.04,-0.265
09:03:08.960,0.045,-0.27
09:03:08.964,0.035,-0.265
09:03:08.968,0.035,-0.265
09:03:08.972,0.03,-0.24
09:03:08.976,0.03,-0.255
09:03:08.980,0.03,-0.235
09:03:08.984,0.035,-0.235
09:03:08.988,0.03,-0.25
09:03:08.992,0.035,-0.24
09:03:08.996,0.02,-0.255
09:03:09.000,0.03,-0.24
09:03:09.004,0.02,-0.245
09:03:09.008,0.015,-0.265
09:03:09.012,0.015,-0.26
09:03:09.016,0.005,-0.265
09:03:09.020,0.01,-0.245
09:03:09.024,0.01,-0.265
09:03:09.028,0.0,-0.26
09:03:09.032,0.0,-0.28
09:03:09.036,-0.01,-0.27
09:03:09.040,0.015,-0.265
09:03:09.044,0.015,-0.26
09:03:09.048,0.0,-0.27
09:03:09.052,0.0,-0.27
09:03:09.056,0.01,-0.255
09:03:09.060,0.005,-0.265
09:03:09.064,0.0,-0.265
09:03:09.068,0.02,-0.26
09:03:09.072,0.02,-0.255
09:03:09.076,0.02,-0.265
09:03:09.080,0.0,-0.27
09:03:09.084,0.0,-0.26
09:03:09.088,0.005,-0.28
09:03:09.092,-0.01,-0.28
09:03:09.096,-0.005,-0.27
09:03:09.100,0.01,-0.29
09:03:09.104,0.005,-0.27
09:03:09.108,0.005,-0.27
09:03:09.112,-0.015,-0.275
09:03:09.116,0.0,-0.27
09:03:09.120,-0.01,-0.26
09:03:09.124,-0.01,-0.265
09:03:09.128,-0.03,-0.26
09:03:09.132,-0.02,-0.255
09:03:09.136,-0.025,-0.255
09:03:09.140,-0.02,-0.265
09:03:09.144,-0.025,-0.265
09:03:09.148,-0.025,-0.25
09:03:09.152,-0.015,-0.265
09:03:09.156,-0.02,-0.26
09:03:09.160,-0.02,-0.26
09:03:09.164,-0.04,-0.26
09:03:09.168,-0.02,-0.25
09:03:09.172,-0.005,-0.235
09:03:09.176,-0.015,-0.235
09:03:09.180,-0.015,-0.24
09:03:09.184,-0.025,-0.24
09:03:09.188,-0.025,-0.235
09:03:09.192,-0.025,-0.25
09:03:09.196,-0.02,-0.25
09:03:09.200,-0.03,-0.25
09:03:09.204,-0.025,-0.24
09:03:09.208,-0.025,-0.25
09:03:09.212,-0.03,-0.235
09:03:09.216,-0.02,-0.245
09:03:09.220,-0.025,-0.25
09:03:09.224,-0.03,-0.25
09:03:09.228,-0.03,-0.25
09:03:09.232,-0.02,-0.25
09:03:09.236,-0.01,-0.24
09:03:09.240,-0.025,-0.245
09:03:09.244,-0.035,-0.245
09:03:09.248,-0.03,-0.235
09:03:09.252,-0.035,-0.215
09:03:09.256,-0.04,-0.16
09:03:09.260,-0.045,-0.15
09:03:09.264,-0.07,-0.155
09:03:09.268,-0.085,-0.19
09:03:09.272,-0.075,-0.195
09:03:09.276,-0.035,-0.2
09:03:09.280,-0.02,-0.18
09:03:09.284,-0.02,-0.16
09:03:09.288,-0.075,-0.14
09:03:09.292,-0.22,-0.115
09:03:09.296,-0.375,-0.095
09:03:09.300,-0.435,-0.06
09:03:09.304,-0.44,-0.05
09:03:09.308,-0.39,-0.105
09:03:09.312,-0.335,-0.145
09:03:09.316,-0.25,-0.195
09:03:09.320,-0.19,-0.225
09:03:09.324,-0.16,-0.24
09:03:09.328,-0.13,-0.255
09:03:09.332,-0.12,-0.265
09:03:09.336,-0.1,-0.265
09:03:09.340,-0.09,-0.25
09:03:09.344,-0.06,-0.235
09:03:09.348,-0.06,-0.225
09:03:09.352,-0.045,-0.24
09:03:09.356,-0.055,-0.26
09:03:09.360,-0.055,-0.25
09:03:09.364,-0.04,-0.27
09:03:09.368,-0.045,-0.26
09:03:09.372,-0.06,-0.275
09:03:09.376,-0.06,-0.275
09:03:09.380,-0.055,-0.275
09:03:09.384,-0.07,-0.27
09:03:09.388,-0.06,-0.265
09:03:09.392,-0.055,-0.265
09:03:09.396,-0.065,-0.255
09:03:09.400,-0.085,-0.265
09:03:09.404,-0.08,-0.255
09:03:09.408,-0.08,-0.26
09:03:09.412,-0.085,-0.255
09:03:09.416,-0.085,-0.26
09:03:09.420,-0.09,-0.27
09:03:09.424,-0.08,-0.265
09:03:09.428,-0.075,-0.255
09:03:09.432,-0.08,-0.26
09:03:09.436,-0.075,-0.25
09:03:09.440,-0.08,-0.245
09:03:09.444,-0.08,-0.24
09:03:09.448,-0.06,-0.25
09:03:09.452,-0.07,-0.25
09:03:09.456,-0.07,-0.255
09:03:09.460,-0.055,-0.245
09:03:09.464,-0.07,-0.24
09:03:09.468,-0.07,-0.24
09:03:09.472,-0.08,-0.25
09:03:09.476,-0.09,-0.25
09:03:09.480,-0.09,-0.25
09:03:09.484,-0.085,-0.23
09:03:09.488,-0.085,-0.245
09:03:09.492,-0.1,-0.24
09:03:09.496,-0.09,-0.24
09:03:09.500,-0.085,-0.24
09:03:09.504,-0.09,-0.235
09:03:09.508,-0.095,-0.23
09:03:09.512,-0.08,-0.22
09:03:09.516,-0.105,-0.21
09:03:09.520,-0.105,-0.205
09:03:09.524,-0.11,-0.21
09:03:09.528,-0.095,-0.225
09:03:09.532,-0.105,-0.22
09:03:09.536,-0.095,-0.2
09:03:09.540,-0.105,-0.205
09:03:09.544,-0.1,-0.185
09:03:09.548,-0.115,-0.175
09:03:09.552,-0.11,-0.18
09:03:09.556,-0.14,-0.19
09:03:09.560,-0.13,-0.2
09:03:09.564,-0.155,-0.19
09:03:09.568,-0.15,-0.17
09:03:09.572,-0.15,-0.17
09:03:09.576,-0.145,-0.155
09:03:09.580,-0.145,-0.165
09:03:09.584,-0.145,-0.17
09:03:09.588,-0.155,-0.165
09:03:09.592,-0.14,-0.185
09:03:09.596,-0.17,-0.19
09:03:09.600,-0.17,-0.215
09:03:09.604,-0.155,-0.21
09:03:09.608,-0.165,-0.205
09:03:09.612,-0.165,-0.195
09:03:09.616,-0.125,-0.205
09:03:09.620,-0.115,-0.185
09:03:09.624,-0.115,-0.2
09:03:09.628,-0.14,-0.205
09:03:09.632,-0.17,-0.21
09:03:09.636,-0.175,-0.195
09:03:09.640,-0.17,-0.2
09:03:09.644,-0.16,-0.19
09:03:09.648,-0.165,-0.19
09:03:09.652,-0.16,-0.175
09:03:09.656,-0.165,-0.18
09:03:09.660,-0.16,-0.18
09:03:09.664,-0.16,-0.185
09:03:09.668,-0.15,-0.175
09:03:09.672,-0.14,-0.185
09:03:09.676,-0.16,-0.18
09:03:09.680,-0.155,-0.175
09:03:09.684,-0.135,-0.18
09:03:09.688,-0.13,-0.16
09:03:09.692,-0.11,-0.17
09:03:09.696,-0.1,-0.165
09:03:09.700,-0.09,-0.165
09:03:09.704,-0.105,-0.155
09:03:09.708,-0.11,-0.155
09:03:09.712,-0.12,-0.16
09:03:09.716,-0.125,-0.165
09:03:09.720,-0.125,-0.165
09:03:09.724,-0.13,-0.155
09:03:09.728,-0.12,-0.145
09:03:09.732,-0.135,-0.14
09:03:09.736,-0.14,-0.15
09:03:09.740,-0.14,-0.175
09:03:09.744,-0.135,-0.16
09:03:09.748,-0.13,-0.14
09:03:09.752,-0.125,-0.095
09:03:09.756,-0.135,-0.08
09:03:09.760,-0.16,-0.09
09:03:09.764,-0.15,-0.13
09:03:09.768,-0.12,-0.125
09:03:09.772,-0.075,-0.11
09:03:09.776,-0.055,-0.09
09:03:09.780,-0.105,-0.08
09:03:09.784,-0.215,-0.055
09:03:09.788,-0.385,-0.03
09:03:09.792,-0.49,0.01
09:03:09.796,-0.52,0.03
09:03:09.800,-0.495,0.0
09:03:09.804,-0.425,-0.04
09:03:09.808,-0.365,-0.09
09:03:09.812,-0.305,-0.11
09:03:09.816,-0.235,-0.12
09:03:09.820,-0.21,-0.135
09:03:09.824,-0.185,-0.14
09:03:09.828,-0.15,-0.14
09:03:09.832,-0.155,-0.125
09:03:09.836,-0.11,-0.105
09:03:09.840,-0.1,-0.11
09:03:09.844,-0.09,-0.13
09:03:09.848,-0.075,-0.14
09:03:09.852,-0.08,-0.16
09:03:09.856,-0.095,-0.17
09:03:09.860,-0.095,-0.18
09:03:09.864,-0.095,-0.185
09:03:09.868,-0.11,-0.195
09:03:09.872,-0.085,-0.2
09:03:09.876,-0.08,-0.215
09:03:09.880,-0.085,-0.215
09:03:09.884,-0.08,-0.205
09:03:09.888,-0.08,-0.2
09:03:09.892,-0.065,-0.185
09:03:09.896,-0.075,-0.18
09:03:09.900,-0.08,-0.16
09:03:09.904,-0.075,-0.155
09:03:09.908,-0.075,-0.16
09:03:09.912,-0.065,-0.19
09:03:09.916,-0.02,-0.205
09:03:09.920,0.04,-0.22
09:03:09.924,0.075,-0.225
09:03:09.928,0.03,-0.23
09:03:09.932,0.0,-0.235
09:03:09.936,-0.1,-0.235
09:03:09.940,-0.16,-0.22
09:03:09.944,-0.21,-0.21
09:03:09.948,-0.2,-0.2
09:03:09.952,-0.175,-0.195
09:03:09.956,-0.135,-0.195
09:03:09.960,-0.11,-0.21
09:03:09.964,-0.095,-0.195
09:03:09.968,-0.08,-0.175
09:03:09.972,-0.06,-0.185
09:03:09.976,-0.05,-0.19
09:03:09.980,-0.06,-0.195
09:03:09.984,-0.03,-0.195
09:03:09.988,-0.02,-0.19
09:03:09.992,-0.025,-0.175
09:03:09.996,-0.03,-0.165
09:03:10.000,-0.015,-0.165
09:03:10.004,-0.01,-0.155
09:03:10.008,-0.015,-0.145
09:03:10.012,-0.01,-0.155
09:03:10.016,-0.015,-0.15
09:03:10.020,0.0,-0.145
09:03:10.024,-0.015,-0.155
09:03:10.028,0.0,-0.14
09:03:10.032,-0.005,-0.155
09:03:10.036,0.0,-0.14
09:03:10.040,0.0,-0.16
09:03:10.044,0.015,-0.155
09:03:10.048,0.03,-0.15
09:03:10.052,0.03,-0.16
09:03:10.056,0.015,-0.155
09:03:10.060,0.035,-0.15
09:03:10.064,0.085,-0.15
09:03:10.068,0.095,-0.16
09:03:10.072,0.08,-0.155
09:03:10.076,0.015,-0.15
09:03:10.080,-0.05,-0.13
09:03:10.084,-0.085,-0.135
09:03:10.088,-0.065,-0.14
09:03:10.092,-0.05,-0.145
09:03:10.096,-0.005,-0.14
09:03:10.100,0.01,-0.145
09:03:10.104,0.035,-0.145
09:03:10.108,0.045,-0.145
09:03:10.112,0.04,-0.155
09:03:10.116,0.05,-0.135
09:03:10.120,0.07,-0.135
09:03:10.124,0.065,-0.15
09:03:10.128,0.065,-0.15
09:03:10.132,0.075,-0.135
09:03:10.136,0.075,-0.145
09:03:10.140,0.09,-0.14
09:03:10.144,0.075,-0.16
09:03:10.148,0.085,-0.145
09:03:10.152,0.09,-0.15
09:03:10.156,0.095,-0.145
09:03:10.160,0.11,-0.165
09:03:10.164,0.1,-0.155
09:03:10.168,0.1,-0.16
09:03:10.172,0.095,-0.155
09:03:10.176,0.11,-0.155
09:03:10.180,0.1,-0.15
09:03:10.184,0.11,-0.14
09:03:10.188,0.12,-0.15
09:03:10.192,0.11,-0.155
09:03:10.196,0.105,-0.155
09:03:10.200,0.1,-0.14
09:03:10.204,0.1,-0.15
09:03:10.208,0.11,-0.145
09:03:10.212,0.12,-0.135
09:03:10.216,0.13,-0.145
09:03:10.220,0.12,-0.15
09:03:10.224,0.11,-0.145
09:03:10.228,0.12,-0.145
09:03:10.232,0.11,-0.15
09:03:10.236,0.11,-0.14
09:03:10.240,0.105,-0.14
09:03:10.244,0.11,-0.135
09:03:10.248,0.1,-0.135
09:03:10.252,0.12,-0.145
09:03:10.256,0.125,-0.135
09:03:10.260,0.135,-0.135
09:03:10.264,0.13,-0.145
09:03:10.268,0.14,-0.15
09:03:10.272,0.14,-0.145
09:03:10.276,0.13,-0.135
09:03:10.280,0.145,-0.14
09:03:10.284,0.125,-0.145
09:03:10.288,0.13,-0.14
09:03:10.292,0.135,-0.135
09:03:10.296,0.14,-0.13
09:03:10.300,0.15,-0.13
09:03:10.304,0.145,-0.135
09:03:10.308,0.14,-0.125
09:03:10.312,0.15,-0.125
09:03:10.316,0.13,-0.13
09:03:10.320,0.12,-0.125
09:03:10.324,0.1,-0.135
09:03:10.328,0.115,-0.14
09:03:10.332,0.115,-0.125
09:03:10.336,0.12,-0.125
09:03:10.340,0.12,-0.115
09:03:10.344,0.14,-0.115
09:03:10.348,0.13,-0.105
09:03:10.352,0.135,-0.11
09:03:10.356,0.13,-0.085
09:03:10.360,0.145,-0.05
09:03:10.364,0.14,-0.02
09:03:10.368,0.135,-0.04
09:03:10.372,0.125,-0.08
09:03:10.376,0.135,-0.09
09:03:10.380,0.165,-0.105
09:03:10.384,0.2,-0.07
09:03:10.388,0.19,-0.05
09:03:10.392,0.11,-0.02
09:03:10.396,-0.035,0.0
09:03:10.400,-0.185,0.025
09:03:10.404,-0.295,0.07
09:03:10.408,-0.285,0.07
09:03:10.412,-0.24,0.03
09:03:10.416,-0.17,-0.035
09:03:10.420,-0.085,-0.085
09:03:10.424,-0.02,-0.12
09:03:10.428,0.015,-0.11
09:03:10.432,0.04,-0.13
09:03:10.436,0.06,-0.13
09:03:10.440,0.095,-0.145
09:03:10.444,0.115,-0.13
09:03:10.448,0.16,-0.1
09:03:10.452,0.155,-0.1
09:03:10.456,0.17,-0.11
09:03:10.460,0.165,-0.125
09:03:10.464,0.16,-0.12
09:03:10.468,0.16,-0.14
09:03:10.472,0.17,-0.16
09:03:10.476,0.16,-0.16
09:03:10.480,0.135,-0.155
09:03:10.484,0.14,-0.145
09:03:10.488,0.15,-0.15
09:03:10.492,0.17,-0.16
09:03:10.496,0.155,-0.165
09:03:10.500,0.165,-0.165
09:03:10.504,0.17,-0.165
09:03:10.508,0.165,-0.16
09:03:10.512,0.15,-0.16
09:03:10.516,0.175,-0.165
09:03:10.520,0.155,-0.16
09:03:10.524,0.18,-0.17
09:03:10.528,0.18,-0.155
09:03:10.532,0.165,-0.15
09:03:10.536,0.16,-0.16
09:03:10.540,0.175,-0.17
09:03:10.544,0.165,-0.175
09:03:10.548,0.17,-0.165
09:03:10.552,0.16,-0.165
09:03:10.556,0.17,-0.175
09:03:10.560,0.175,-0.18
09:03:10.564,0.155,-0.185
09:03:10.568,0.16,-0.19
09:03:10.572,0.16,-0.18
09:03:10.576,0.145,-0.17
09:03:10.580,0.155,-0.175
09:03:10.584,0.14,-0.19
09:03:10.588,0.15,-0.17
09:03:10.592,0.13,-0.165
09:03:10.596,0.13,-0.165
09:03:10.600,0.135,-0.17
09:03:10.604,0.125,-0.16
09:03:10.608,0.13,-0.16
09:03:10.612,0.145,-0.155
09:03:10.616,0.145,-0.16
09:03:10.620,0.125,-0.16
09:03:10.624,0.125,-0.155
09:03:10.628,0.11,-0.17
09:03:10.632,0.125,-0.16
09:03:10.636,0.12,-0.155
09:03:10.640,0.115,-0.16
09:03:10.644,0.125,-0.15
09:03:10.648,0.115,-0.14
09:03:10.652,0.125,-0.14
09:03:10.656,0.115,-0.13
09:03:10.660,0.115,-0.145
09:03:10.664,0.115,-0.13
09:03:10.668,0.1,-0.13
09:03:10.672,0.11,-0.12
09:03:10.676,0.11,-0.14
09:03:10.680,0.095,-0.12
09:03:10.684,0.1,-0.11
09:03:10.688,0.115,-0.12
09:03:10.692,0.085,-0.115
09:03:10.696,0.09,-0.11
09:03:10.700,0.085,-0.12
09:03:10.704,0.09,-0.11
09:03:10.708,0.115,-0.125
09:03:10.712,0.105,-0.13
09:03:10.716,0.105,-0.12
09:03:10.720,0.095,-0.115
09:03:10.724,0.085,-0.12
09:03:10.728,0.095,-0.13
09:03:10.732,0.105,-0.12
09:03:10.736,0.11,-0.115
09:03:10.740,0.125,-0.12
09:03:10.744,0.12,-0.135
09:03:10.748,0.12,-0.13
09:03:10.752,0.125,-0.115
09:03:10.756,0.12,-0.105
09:03:10.760,0.14,-0.1
09:03:10.764,0.135,-0.12
09:03:10.768,0.14,-0.125
09:03:10.772,0.145,-0.14
09:03:10.776,0.14,-0.155
09:03:10.780,0.13,-0.15
09:03:10.784,0.14,-0.15
09:03:10.788,0.14,-0.145
09:03:10.792,0.14,-0.15
09:03:10.796,0.155,-0.14
09:03:10.800,0.15,-0.14
09:03:10.804,0.135,-0.155
09:03:10.808,0.135,-0.165
09:03:10.812,0.125,-0.15
09:03:10.816,0.125,-0.14
09:03:10.820,0.13,-0.14
09:03:10.824,0.12,-0.125
09:03:10.828,0.105,-0.11
09:03:10.832,0.105,-0.105
09:03:10.836,0.115,-0.055
09:03:10.840,0.13,-0.005
09:03:10.844,0.1,-0.005
09:03:10.848,0.075,-0.02
09:03:10.852,0.085,-0.06
09:03:10.856,0.13,-0.075
09:03:10.860,0.195,-0.065
09:03:10.864,0.17,-0.03
09:03:10.868,0.09,-0.01
09:03:10.872,-0.05,-0.01
09:03:10.876,-0.225,0.0
09:03:10.880,-0.32,0.045
09:03:10.884,-0.295,0.06
09:03:10.888,-0.215,0.01
09:03:10.892,-0.15,-0.03
09:03:10.896,-0.065,-0.07
09:03:10.900,-0.02,-0.095
09:03:10.904,0.01,-0.1
09:03:10.908,0.05,-0.12
09:03:10.912,0.065,-0.13
09:03:10.916,0.095,-0.125
09:03:10.920,0.11,-0.095
09:03:10.924,0.135,-0.08
09:03:10.928,0.135,-0.095
09:03:10.932,0.14,-0.115
09:03:10.936,0.145,-0.14
09:03:10.940,0.13,-0.16
09:03:10.944,0.12,-0.19
09:03:10.948,0.115,-0.23
09:03:10.952,0.12,-0.22
09:03:10.956,0.11,-0.205
09:03:10.960,0.11,-0.215
09:03:10.964,0.12,-0.22
09:03:10.968,0.125,-0.225
09:03:10.972,0.12,-0.215
09:03:10.976,0.14,-0.2
09:03:10.980,0.145,-0.195
09:03:10.984,0.14,-0.185
09:03:10.988,0.14,-0.195
09:03:10.992,0.13,-0.18
09:03:10.996,0.125,-0.17
09:03:11.000,0.13,-0.17
09:03:11.004,0.14,-0.18
09:03:11.008,0.145,-0.185
09:03:11.012,0.13,-0.2
09:03:11.016,0.145,-0.22
09:03:11.020,0.15,-0.23
09:03:11.024,0.145,-0.21
09:03:11.028,0.15,-0.2
09:03:11.032,0.15,-0.215
09:03:11.036,0.145,-0.22
09:03:11.040,0.145,-0.2
09:03:11.044,0.13,-0.19
09:03:11.048,0.115,-0.205
09:03:11.052,0.115,-0.205
09:03:11.056,0.105,-0.195
09:03:11.060,0.095,-0.19
09:03:11.064,0.105,-0.21
09:03:11.068,0.11,-0.215
09:03:11.072,0.105,-0.195
09:03:11.076,0.085,-0.19
09:03:11.080,0.085,-0.185
09:03:11.084,0.09,-0.175
09:03:11.088,0.1,-0.18
09:03:11.092,0.1,-0.175
09:03:11.096,0.105,-0.185
09:03:11.100,0.08,-0.185
09:03:11.104,0.085,-0.18
09:03:11.108,0.085,-0.19
09:03:11.112,0.08,-0.195
09:03:11.116,0.08,-0.195
09:03:11.120,0.08,-0.195
09:03:11.124,0.07,-0.16
09:03:11.128,0.08,-0.155
09:03:11.132,0.055,-0.16
09:03:11.136,0.08,-0.175
09:03:11.140,0.08,-0.155
09:03:11.144,0.08,-0.155
09:03:11.148,0.075,-0.165
09:03:11.152,0.065,-0.17
09:03:11.156,0.05,-0.16
09:03:11.160,0.04,-0.145
09:03:11.164,0.04,-0.13
09:03:11.168,0.025,-0.135
09:03:11.172,0.015,-0.135
09:03:11.176,0.025,-0.145
09:03:11.180,0.045,-0.155
09:03:11.184,0.025,-0.16
09:03:11.188,0.04,-0.165
09:03:11.192,0.025,-0.18
09:03:11.196,0.015,-0.165
09:03:11.200,0.025,-0.15
09:03:11.204,0.025,-0.145
09:03:11.208,0.035,-0.155
09:03:11.212,0.025,-0.175
09:03:11.216,0.025,-0.16
09:03:11.220,0.015,-0.155
09:03:11.224,0.04,-0.155
09:03:11.228,0.05,-0.16
09:03:11.232,0.03,-0.175
09:03:11.236,0.025,-0.17
09:03:11.240,0.025,-0.175
09:03:11.244,0.01,-0.185
09:03:11.248,0.01,-0.18
09:03:11.252,0.01,-0.17
09:03:11.256,0.03,-0.155
09:03:11.260,0.01,-0.16
09:03:11.264,0.015,-0.165
09:03:11.268,0.025,-0.17
09:03:11.272,0.045,-0.16
09:03:11.276,0.045,-0.18
09:03:11.280,0.025,-0.18
09:03:11.284,0.035,-0.18
09:03:11.288,0.03,-0.17
09:03:11.292,0.045,-0.175
09:03:11.296,0.025,-0.175
09:03:11.300,0.025,-0.17
09:03:11.304,0.015,-0.195
09:03:11.308,0.025,-0.165
09:03:11.312,0.0,-0.155
09:03:11.316,0.005,-0.165
09:03:11.320,0.015,-0.165
09:03:11.324,0.01,-0.16
09:03:11.328,0.01,-0.16
09:03:11.332,0.015,-0.155
09:03:11.336,0.02,-0.15
09:03:11.340,0.02,-0.12
09:03:11.344,0.02,-0.14
09:03:11.348,0.005,-0.145
09:03:11.352,0.005,-0.135
09:03:11.356,0.04,-0.15
09:03:11.360,0.03,-0.17
09:03:11.364,0.035,-0.195
09:03:11.368,0.025,-0.15
09:03:11.372,0.015,-0.08
09:03:11.376,0.01,-0.035
09:03:11.380,0.0,-0.04
09:03:11.384,0.005,-0.07
09:03:11.388,0.03,-0.09
09:03:11.392,0.055,-0.085
09:03:11.396,0.09,-0.09
09:03:11.400,0.075,-0.07
09:03:11.404,0.035,-0.065
09:03:11.408,-0.105,-0.055
09:03:11.412,-0.24,-0.04
09:03:11.416,-0.34,-0.02
09:03:11.420,-0.35,-0.02
09:03:11.424,-0.315,-0.02
09:03:11.428,-0.245,-0.065
09:03:11.432,-0.17,-0.125
09:03:11.436,-0.105,-0.15
09:03:11.440,-0.06,-0.165
09:03:11.444,-0.045,-0.16
09:03:11.448,-0.015,-0.175
09:03:11.452,0.005,-0.18
09:03:11.456,0.015,-0.17
09:03:11.460,0.025,-0.14
09:03:11.464,0.065,-0.15
09:03:11.468,0.07,-0.16
09:03:11.472,0.085,-0.16
09:03:11.476,0.085,-0.17
09:03:11.480,0.09,-0.185
09:03:11.484,0.08,-0.175
09:03:11.488,0.06,-0.18
09:03:11.492,0.065,-0.18
09:03:11.496,0.045,-0.195
09:03:11.500,0.065,-0.2
09:03:11.504,0.075,-0.19
09:03:11.508,0.065,-0.195
09:03:11.512,0.055,-0.185
09:03:11.516,0.065,-0.185
09:03:11.520,0.085,-0.21
09:03:11.524,0.08,-0.215
09:03:11.528,0.085,-0.195
09:03:11.532,0.055,-0.195
09:03:11.536,0.065,-0.175
09:03:11.540,0.08,-0.18
09:03:11.544,0.085,-0.18
09:03:11.548,0.09,-0.195
09:03:11.552,0.085,-0.21
09:03:11.556,0.095,-0.205
09:03:11.560,0.09,-0.2
09:03:11.564,0.11,-0.195
09:03:11.568,0.095,-0.2
09:03:11.572,0.105,-0.205
09:03:11.576,0.09,-0.215
09:03:11.580,0.1,-0.22
09:03:11.584,0.105,-0.21
09:03:11.588,0.1,-0.215
09:03:11.592,0.11,-0.22
09:03:11.596,0.105,-0.21
09:03:11.600,0.1,-0.205
09:03:11.604,0.095,-0.22
09:03:11.608,0.105,-0.21
09:03:11.612,0.085,-0.205
09:03:11.616,0.095,-0.2
09:03:11.620,0.1,-0.2
09:03:11.624,0.085,-0.195
09:03:11.628,0.09,-0.195
09:03:11.632,0.09,-0.185
09:03:11.636,0.085,-0.18
09:03:11.640,0.075,-0.185
09:03:11.644,0.055,-0.18
09:03:11.648,0.075,-0.17
09:03:11.652,0.045,-0.18
09:03:11.656,0.045,-0.19
09:03:11.660,0.04,-0.175
09:03:11.664,0.045,-0.175
09:03:11.668,0.035,-0.175
09:03:11.672,0.05,-0.175
09:03:11.676,0.035,-0.16
09:03:11.680,0.035,-0.175
09:03:11.684,0.035,-0.16
09:03:11.688,0.045,-0.16
09:03:11.692,0.025,-0.155
09:03:11.696,0.03,-0.16
09:03:11.700,0.04,-0.16
09:03:11.704,0.04,-0.15
09:03:11.708,0.035,-0.15
09:03:11.712,0.035,-0.155
09:03:11.716,0.03,-0.155
09:03:11.720,0.06,-0.165
09:03:11.724,0.045,-0.165
09:03:11.728,0.045,-0.16
09:03:11.732,0.075,-0.15
09:03:11.736,0.05,-0.14
09:03:11.740,0.055,-0.15
09:03:11.744,0.065,-0.155
09:03:11.748,0.055,-0.145
09:03:11.752,0.055,-0.15
09:03:11.756,0.055,-0.145
09:03:11.760,0.06,-0.14
09:03:11.764,0.07,-0.145
09:03:11.768,0.07,-0.155
09:03:11.772,0.085,-0.16
09:03:11.776,0.06,-0.16
09:03:11.780,0.055,-0.16
09:03:11.784,0.06,-0.145
09:03:11.788,0.05,-0.15
09:03:11.792,0.03,-0.16
09:03:11.796,0.04,-0.165
09:03:11.800,0.025,-0.16
09:03:11.804,0.015,-0.17
09:03:11.808,0.025,-0.17
09:03:11.812,0.04,-0.18
09:03:11.816,0.04,-0.17
09:03:11.820,0.02,-0.16
09:03:11.824,0.045,-0.155
09:03:11.828,0.03,-0.145
09:03:11.832,0.04,-0.16
09:03:11.836,0.045,-0.18
09:03:11.840,0.055,-0.155
09:03:11.844,0.045,-0.125
09:03:11.848,0.055,-0.08
09:03:11.852,0.055,-0.04
09:03:11.856,0.02,-0.03
09:03:11.860,0.01,-0.05
09:03:11.864,0.025,-0.09
09:03:11.868,0.035,-0.1
09:03:11.872,0.09,-0.1
09:03:11.876,0.115,-0.085
09:03:11.880,0.095,-0.08
09:03:11.884,-0.04,-0.075
09:03:11.888,-0.21,-0.035
09:03:11.892,-0.325,0.01
09:03:11.896,-0.35,0.02
09:03:11.900,-0.315,-0.01
09:03:11.904,-0.26,-0.065
09:03:11.908,-0.205,-0.11
09:03:11.912,-0.12,-0.135
09:03:11.916,-0.08,-0.13
09:03:11.920,-0.05,-0.15
09:03:11.924,-0.025,-0.15
09:03:11.928,-0.015,-0.155
09:03:11.932,0.005,-0.135
09:03:11.936,0.025,-0.115
09:03:11.940,0.045,-0.135
09:03:11.944,0.045,-0.12
09:03:11.948,0.045,-0.14
09:03:11.952,0.045,-0.14
09:03:11.956,0.07,-0.175
09:03:11.960,0.06,-0.18
09:03:11.964,0.06,-0.18
09:03:11.968,0.055,-0.19
09:03:11.972,0.06,-0.19
09:03:11.976,0.06,-0.195
09:03:11.980,0.08,-0.195
09:03:11.984,0.07,-0.2
09:03:11.988,0.07,-0.2
09:03:11.992,0.065,-0.19
09:03:11.996,0.065,-0.19
09:03:12.000,0.065,-0.18
09:03:12.004,0.065,-0.2
09:03:12.008,0.075,-0.185
09:03:12.012,0.08,-0.19
09:03:12.016,0.085,-0.205
09:03:12.020,0.08,-0.19
09:03:12.024,0.085,-0.185
09:03:12.028,0.065,-0.18
09:03:12.032,0.09,-0.16
09:03:12.036,0.065,-0.19
09:03:12.040,0.05,-0.185
09:03:12.044,0.06,-0.195
09:03:12.048,0.07,-0.19
09:03:12.052,0.04,-0.2
09:03:12.056,0.04,-0.195
09:03:12.060,0.04,-0.195
09:03:12.064,0.03,-0.2
09:03:12.068,0.03,-0.19
09:03:12.072,0.025,-0.19
09:03:12.076,0.03,-0.19
09:03:12.080,0.045,-0.18
09:03:12.084,0.02,-0.195
09:03:12.088,0.035,-0.195
09:03:12.092,0.025,-0.18
09:03:12.096,0.035,-0.185
09:03:12.100,0.045,-0.17
09:03:12.104,0.05,-0.18
09:03:12.108,0.055,-0.16
09:03:12.112,0.055,-0.165
09:03:12.116,0.045,-0.16
09:03:12.120,0.03,-0.165
09:03:12.124,0.04,-0.17
09:03:12.128,0.035,-0.16
09:03:12.132,0.06,-0.155
09:03:12.136,0.035,-0.16
09:03:12.140,0.04,-0.16
09:03:12.144,0.04,-0.16
09:03:12.148,0.05,-0.155
09:03:12.152,0.05,-0.15
09:03:12.156,0.04,-0.15
09:03:12.160,0.045,-0.16
09:03:12.164,0.04,-0.15
09:03:12.168,0.07,-0.15
09:03:12.172,0.05,-0.15
09:03:12.176,0.05,-0.15
09:03:12.180,0.06,-0.155
09:03:12.184,0.045,-0.145
09:03:12.188,0.04,-0.155
09:03:12.192,0.035,-0.16
09:03:12.196,0.025,-0.16
09:03:12.200,0.015,-0.155
09:03:12.204,0.01,-0.165
09:03:12.208,0.01,-0.155
09:03:12.212,0.005,-0.145
09:03:12.216,0.01,-0.16
09:03:12.220,0.03,-0.15
09:03:12.224,0.035,-0.145
09:03:12.228,0.02,-0.16
09:03:12.232,0.03,-0.15
09:03:12.236,0.015,-0.17
09:03:12.240,0.035,-0.17
09:03:12.244,0.035,-0.165
09:03:12.248,0.04,-0.17
09:03:12.252,0.04,-0.17
09:03:12.256,0.035,-0.18
09:03:12.260,0.045,-0.18
09:03:12.264,0.045,-0.19
09:03:12.268,0.04,-0.17
09:03:12.272,0.05,-0.17
09:03:12.276,0.055,-0.155
09:03:12.280,0.055,-0.17
09:03:12.284,0.055,-0.185
09:03:12.288,0.055,-0.175
09:03:12.292,0.06,-0.175
09:03:12.296,0.04,-0.17
09:03:12.300,0.04,-0.165
09:03:12.304,0.04,-0.155
09:03:12.308,0.035,-0.155
09:03:12.312,0.05,-0.16
09:03:12.316,0.055,-0.145
09:03:12.320,0.025,-0.155
09:03:12.324,0.03,-0.15
09:03:12.328,0.025,-0.15
09:03:12.332,0.015,-0.145
09:03:12.336,0.03,-0.16
09:03:12.340,0.03,-0.16
09:03:12.344,0.02,-0.16
09:03:12.348,0.02,-0.15
09:03:12.352,0.02,-0.145
09:03:12.356,0.03,-0.15
09:03:12.360,0.03,-0.15
09:03:12.364,0.03,-0.155
09:03:12.368,0.015,-0.15
09:03:12.372,0.015,-0.155
09:03:12.376,0.02,-0.135
09:03:12.380,0.015,-0.16
09:03:12.384,0.015,-0.14
09:03:12.388,0.015,-0.15
09:03:12.392,0.015,-0.135
09:03:12.396,0.01,-0.145
09:03:12.400,0.025,-0.15
09:03:12.404,0.035,-0.16
09:03:12.408,0.03,-0.155
09:03:12.412,0.01,-0.16
09:03:12.416,0.025,-0.16
09:03:12.420,0.005,-0.16
09:03:12.424,0.005,-0.155
09:03:12.428,0.01,-0.145
09:03:12.432,0.005,-0.14
09:03:12.436,0.02,-0.125
09:03:12.440,0.025,-0.095
09:03:12.444,0.025,-0.06
09:03:12.448,0.02,-0.05
09:03:12.452,-0.005,-0.045
09:03:12.456,-0.035,-0.08
09:03:12.460,-0.005,-0.1
09:03:12.464,0.045,-0.085
09:03:12.468,0.06,-0.05
09:03:12.472,0.05,-0.02
09:03:12.476,-0.01,0.01
09:03:12.480,-0.145,0.02
09:03:12.484,-0.28,0.02
09:03:12.488,-0.345,0.05
09:03:12.492,-0.37,0.04
09:03:12.496,-0.335,0.01
09:03:12.500,-0.28,-0.015
09:03:12.504,-0.2,-0.08
09:03:12.508,-0.135,-0.105
09:03:12.512,-0.1,-0.12
09:03:12.516,-0.07,-0.13
09:03:12.520,-0.06,-0.15
09:03:12.524,-0.04,-0.16
09:03:12.528,-0.015,-0.125
09:03:12.532,0.01,-0.095
09:03:12.536,0.025,-0.1
09:03:12.540,0.01,-0.13
09:03:12.544,0.015,-0.14
09:03:12.548,0.03,-0.16
09:03:12.552,0.03,-0.16
09:03:12.556,0.035,-0.18
09:03:12.560,0.025,-0.17
09:03:12.564,0.025,-0.195
09:03:12.568,0.01,-0.2
09:03:12.572,0.005,-0.19
09:03:12.576,0.02,-0.185
09:03:12.580,0.03,-0.195
09:03:12.584,0.015,-0.185
09:03:12.588,0.025,-0.175
09:03:12.592,0.03,-0.18
09:03:12.596,0.015,-0.175
09:03:12.600,0.02,-0.175
09:03:12.604,0.02,-0.175
09:03:12.608,0.02,-0.18
09:03:12.612,0.03,-0.175
09:03:12.616,0.045,-0.18
09:03:12.620,0.02,-0.185
09:03:12.624,0.01,-0.19
09:03:12.628,0.015,-0.19
09:03:12.632,0.015,-0.18
09:03:12.636,0.03,-0.18
09:03:12.640,0.01,-0.19
09:03:12.644,0.01,-0.175
09:03:12.648,0.005,-0.19
09:03:12.652,0.01,-0.185
09:03:12.656,0.005,-0.2
09:03:12.660,0.025,-0.195
09:03:12.664,0.005,-0.205
09:03:12.668,0.01,-0.2
09:03:12.672,0.02,-0.19
09:03:12.676,0.02,-0.19
09:03:12.680,0.015,-0.195
09:03:12.684,0.025,-0.195
09:03:12.688,0.01,-0.19
09:03:12.692,0.005,-0.195
09:03:12.696,0.0,-0.19
09:03:12.700,-0.01,-0.18
09:03:12.704,-0.01,-0.175
09:03:12.708,-0.02,-0.17
09:03:12.712,-0.015,-0.18
09:03:12.716,0.0,-0.185
09:03:12.720,0.0,-0.185
09:03:12.724,0.0,-0.175
09:03:12.728,0.0,-0.165
09:03:12.732,-0.005,-0.155
09:03:12.736,-0.015,-0.145
09:03:12.740,-0.01,-0.14
09:03:12.744,-0.025,-0.14
09:03:12.748,-0.025,-0.14
09:03:12.752,-0.03,-0.14
09:03:12.756,-0.005,-0.13
09:03:12.760,-0.01,-0.14
09:03:12.764,-0.015,-0.135
09:03:12.768,-0.02,-0.145
09:03:12.772,-0.035,-0.15
09:03:12.776,-0.025,-0.145
09:03:12.780,-0.035,-0.125
09:03:12.784,-0.03,-0.135
09:03:12.788,-0.03,-0.13
09:03:12.792,-0.03,-0.12
09:03:12.796,-0.035,-0.115
09:03:12.800,-0.025,-0.105
09:03:12.804,-0.005,-0.105
09:03:12.808,-0.02,-0.105
09:03:12.812,-0.04,-0.11
09:03:12.816,-0.035,-0.125
09:03:12.820,-0.03,-0.105
09:03:12.824,-0.02,-0.115
09:03:12.828,-0.025,-0.115
09:03:12.832,-0.035,-0.12
09:03:12.836,-0.02,-0.115
09:03:12.840,-0.04,-0.145
09:03:12.844,-0.06,-0.14
09:03:12.848,-0.075,-0.14
09:03:12.852,-0.08,-0.14
09:03:12.856,-0.1,-0.15
09:03:12.860,-0.095,-0.15
09:03:12.864,-0.105,-0.15
09:03:12.868,-0.11,-0.15
09:03:12.872,-0.095,-0.155
09:03:12.876,-0.105,-0.155
09:03:12.880,-0.1,-0.165
09:03:12.884,-0.085,-0.155
09:03:12.888,-0.11,-0.155
09:03:12.892,-0.125,-0.155
09:03:12.896,-0.12,-0.16
09:03:12.900,-0.135,-0.15
09:03:12.904,-0.13,-0.15
09:03:12.908,-0.125,-0.16
09:03:12.912,-0.14,-0.155
09:03:12.916,-0.14,-0.155
09:03:12.920,-0.12,-0.16
09:03:12.924,-0.13,-0.16
09:03:12.928,-0.12,-0.145
09:03:12.932,-0.105,-0.155
09:03:12.936,-0.11,-0.15
09:03:12.940,-0.115,-0.155
09:03:12.944,-0.115,-0.14
09:03:12.948,-0.12,-0.15
09:03:12.952,-0.12,-0.145
09:03:12.956,-0.105,-0.15
09:03:12.960,-0.11,-0.145
09:03:12.964,-0.1,-0.14
09:03:12.968,-0.12,-0.15
09:03:12.972,-0.105,-0.17
09:03:12.976,-0.11,-0.16
09:03:12.980,-0.11,-0.155
09:03:12.984,-0.1,-0.165
09:03:12.988,-0.1,-0.17
09:03:12.992,-0.1,-0.155
09:03:12.996,-0.085,-0.155
09:03:13.000,-0.09,-0.145
09:03:13.004,-0.08,-0.16
09:03:13.008,-0.09,-0.155
09:03:13.012,-0.085,-0.16
09:03:13.016,-0.085,-0.155
09:03:13.020,-0.095,-0.16
09:03:13.024,-0.09,-0.155
09:03:13.028,-0.09,-0.16
09:03:13.032,-0.09,-0.165
09:03:13.036,-0.1,-0.18
09:03:13.040,-0.09,-0.175
09:03:13.044,-0.1,-0.165
09:03:13.048,-0.1,-0.175
09:03:13.052,-0.11,-0.17
09:03:13.056,-0.095,-0.17
09:03:13.060,-0.1,-0.19
09:03:13.064,-0.105,-0.17
09:03:13.068,-0.085,-0.15
09:03:13.072,-0.11,-0.15
09:03:13.076,-0.095,-0.15
09:03:13.080,-0.09,-0.16
09:03:13.084,-0.095,-0.16
09:03:13.088,-0.1,-0.16
09:03:13.092,-0.1,-0.16
09:03:13.096,-0.105,-0.17
09:03:13.100,-0.095,-0.18
09:03:13.104,-0.1,-0.195
09:03:13.108,-0.09,-0.17
09:03:13.112,-0.07,-0.165
09:03:13.116,-0.065,-0.165
09:03:13.120,-0.065,-0.18
09:03:13.124,-0.075,-0.16
09:03:13.128,-0.075,-0.165
09:03:13.132,-0.065,-0.165
09:03:13.136,-0.06,-0.165
09:03:13.140,-0.065,-0.16
09:03:13.144,-0.06,-0.165
09:03:13.148,-0.05,-0.165
09:03:13.152,-0.08,-0.185
09:03:13.156,-0.075,-0.17
09:03:13.160,-0.07,-0.18
09:03:13.164,-0.065,-0.175
09:03:13.168,-0.075,-0.165
09:03:13.172,-0.075,-0.16
09:03:13.176,-0.055,-0.14
09:03:13.180,-0.07,-0.145
09:03:13.184,0.0,-0.115
09:03:13.188,-0.005,-0.09
09:03:13.192,-0.03,-0.055
09:03:13.196,-0.07,-0.06
09:03:13.200,-0.12,-0.085
09:03:13.204,-0.11,-0.11
09:03:13.208,-0.06,-0.105
09:03:13.212,-0.03,-0.08
09:03:13.216,-0.065,-0.07
09:03:13.220,-0.145,-0.045
09:03:13.224,-0.28,-0.03
09:03:13.228,-0.43,0.0
09:03:13.232,-0.48,0.0
09:03:13.236,-0.455,-0.015
09:03:13.240,-0.385,-0.045
09:03:13.244,-0.3,-0.09
09:03:13.248,-0.22,-0.13
09:03:13.252,-0.155,-0.135
09:03:13.256,-0.12,-0.13
09:03:13.260,-0.105,-0.16
09:03:13.264,-0.05,-0.185
09:03:13.268,-0.005,-0.165
09:03:13.272,0.03,-0.145
09:03:13.276,0.04,-0.125
09:03:13.280,0.07,-0.125
09:03:13.284,0.09,-0.14
09:03:13.288,0.105,-0.14
09:03:13.292,0.14,-0.145
09:03:13.296,0.13,-0.16
09:03:13.300,0.115,-0.175
09:03:13.304,0.09,-0.18
09:03:13.308,0.1,-0.195
09:03:13.312,0.12,-0.215
09:03:13.316,0.125,-0.215
09:03:13.320,0.15,-0.23
09:03:13.324,0.185,-0.23
09:03:13.328,0.21,-0.225
09:03:13.332,0.21,-0.22
09:03:13.336,0.195,-0.205
09:03:13.340,0.18,-0.2
09:03:13.344,0.12,-0.215
09:03:13.348,0.075,-0.2
09:03:13.352,0.07,-0.205
09:03:13.356,0.065,-0.21
09:03:13.360,0.1,-0.205
09:03:13.364,0.12,-0.2
09:03:13.368,0.145,-0.195
09:03:13.372,0.195,-0.18
09:03:13.376,0.22,-0.195
09:03:13.380,0.205,-0.225
09:03:13.384,0.205,-0.22
09:03:13.388,0.215,-0.22
09:03:13.392,0.19,-0.235
09:03:13.396,0.17,-0.215
09:03:13.400,0.15,-0.23
09:03:13.404,0.17,-0.22
09:03:13.408,0.205,-0.225
09:03:13.412,0.225,-0.205
09:03:13.416,0.28,-0.19
09:03:13.420,0.305,-0.2
09:03:13.424,0.215,-0.235
09:03:13.428,0.145,-0.24
09:03:13.432,0.145,-0.245
09:03:13.436,0.22,-0.24
09:03:13.440,0.25,-0.235
09:03:13.444,0.21,-0.24
09:03:13.448,0.165,-0.23
09:03:13.452,0.2,-0.21
09:03:13.456,0.245,-0.17
09:03:13.460,0.275,-0.14
09:03:13.464,0.295,-0.155
09:03:13.468,0.27,-0.175
09:03:13.472,0.22,-0.18
09:03:13.476,0.24,-0.18
09:03:13.480,0.255,-0.17
09:03:13.484,0.17,-0.15
09:03:13.488,0.115,-0.12
09:03:13.492,0.16,-0.095
09:03:13.496,0.2,-0.105
09:03:13.500,0.23,-0.115
09:03:13.504,0.225,-0.125
09:03:13.508,0.22,-0.125
09:03:13.512,0.235,-0.125
09:03:13.516,0.28,-0.13
09:03:13.520,0.29,-0.12
09:03:13.524,0.25,-0.12
09:03:13.528,0.235,-0.12
09:03:13.532,0.23,-0.145
09:03:13.536,0.285,-0.145
09:03:13.540,0.3,-0.13
09:03:13.544,0.3,-0.125
09:03:13.548,0.27,-0.12
09:03:13.552,0.285,-0.085
09:03:13.556,0.23,-0.06
09:03:13.560,0.195,-0.06
09:03:13.564,0.195,-0.085
09:03:13.568,0.21,-0.1
09:03:13.572,0.215,-0.105
09:03:13.576,0.21,-0.095
09:03:13.580,0.21,-0.115
09:03:13.584,0.235,-0.13
09:03:13.588,0.245,-0.1
09:03:13.592,0.26,-0.075
09:03:13.596,0.28,-0.07
09:03:13.600,0.24,-0.08
09:03:13.604,0.21,-0.11
09:03:13.608,0.225,-0.135
09:03:13.612,0.245,-0.16
09:03:13.616,0.26,-0.17
09:03:13.620,0.275,-0.175
09:03:13.624,0.29,-0.155
09:03:13.628,0.26,-0.165
09:03:13.632,0.245,-0.16
09:03:13.636,0.23,-0.15
09:03:13.640,0.24,-0.12
09:03:13.644,0.265,-0.09
09:03:13.648,0.265,-0.075
09:03:13.652,0.25,-0.13
09:03:13.656,0.25,-0.16
09:03:13.660,0.245,-0.12
09:03:13.664,0.235,-0.075
09:03:13.668,0.245,-0.1
09:03:13.672,0.25,-0.17
09:03:13.676,0.26,-0.195
09:03:13.680,0.25,-0.18
09:03:13.684,0.25,-0.145
09:03:13.688,0.25,-0.135
09:03:13.692,0.255,-0.14
09:03:13.696,0.255,-0.2
09:03:13.700,0.25,-0.25
09:03:13.704,0.23,-0.265
09:03:13.708,0.22,-0.28
09:03:13.712,0.245,-0.25
09:03:13.716,0.24,-0.22
09:03:13.720,0.235,-0.185
09:03:13.724,0.23,-0.14
09:03:13.728,0.205,-0.065
09:03:13.732,0.2,-0.045
09:03:13.736,0.165,-0.085
09:03:13.740,0.17,-0.115
09:03:13.744,0.195,-0.16
09:03:13.748,0.225,-0.17
09:03:13.752,0.26,-0.16
09:03:13.756,0.23,-0.105
09:03:13.760,0.17,-0.065
09:03:13.764,0.1,-0.045
09:03:13.768,-0.02,-0.03
09:03:13.772,-0.055,-0.01
09:03:13.776,-0.075,0.03
09:03:13.780,-0.11,0.03
09:03:13.784,-0.12,-0.01
09:03:13.788,-0.11,-0.105
09:03:13.792,-0.075,-0.195
09:03:13.796,0.06,-0.245
09:03:13.800,0.17,-0.24
09:03:13.804,0.125,-0.235
09:03:13.808,0.11,-0.25
09:03:13.812,0.205,-0.24
09:03:13.816,0.34,-0.205
09:03:13.820,0.46,-0.195
09:03:13.824,0.42,-0.19
09:03:13.828,0.21,-0.2
09:03:13.832,0.07,-0.23
09:03:13.836,0.175,-0.275
09:03:13.840,0.39,-0.265
09:03:13.844,0.445,-0.23
09:03:13.848,0.3,-0.215
09:03:13.852,0.215,-0.245
09:03:13.856,0.095,-0.29
09:03:13.860,0.03,-0.295
09:03:13.864,0.12,-0.25
09:03:13.868,0.28,-0.24
09:03:13.872,0.42,-0.285
09:03:13.876,0.31,-0.295
09:03:13.880,0.145,-0.29
09:03:13.884,0.155,-0.26
09:03:13.888,0.155,-0.22
09:03:13.892,0.13,-0.24
09:03:13.896,0.14,-0.24
09:03:13.900,0.095,-0.235
09:03:13.904,0.045,-0.225
09:03:13.908,0.045,-0.2
09:03:13.912,0.06,-0.16
09:03:13.916,0.045,-0.135
09:03:13.920,0.03,-0.145
09:03:13.924,0.05,-0.18
09:03:13.928,0.055,-0.235
09:03:13.932,0.08,-0.26
09:03:13.936,0.125,-0.265
09:03:13.940,0.13,-0.245
09:03:13.944,0.155,-0.225
09:03:13.948,0.215,-0.22
09:03:13.952,0.25,-0.225
09:03:13.956,0.235,-0.19
09:03:13.960,0.18,-0.13
09:03:13.964,0.075,-0.075
09:03:13.968,0.025,-0.08
09:03:13.972,0.06,-0.15
09:03:13.976,-0.03,-0.22
09:03:13.980,-0.035,-0.23
09:03:13.984,0.065,-0.185
09:03:13.988,0.285,-0.145
09:03:13.992,0.5,-0.155
09:03:13.996,0.34,-0.175
09:03:14.000,0.06,-0.215
09:03:14.004,-0.12,-0.235
09:03:14.008,-0.22,-0.245
09:03:14.012,-0.17,-0.22
09:03:14.016,-0.105,-0.2
09:03:14.020,-0.07,-0.185
09:03:14.024,-0.04,-0.175
09:03:14.028,0.0,-0.16
09:03:14.032,-0.01,-0.14
09:03:14.036,0.0,-0.15
09:03:14.040,-0.01,-0.145
09:03:14.044,0.0,-0.14
09:03:14.048,-0.02,-0.15
09:03:14.052,-0.03,-0.16
09:03:14.056,-0.04,-0.16
09:03:14.060,-0.05,-0.155
09:03:14.064,-0.06,-0.125
09:03:14.068,-0.08,-0.13
09:03:14.072,-0.095,-0.135
09:03:14.076,-0.11,-0.155
09:03:14.080,-0.095,-0.155
09:03:14.084,-0.085,-0.16
09:03:14.088,-0.075,-0.155
09:03:14.092,-0.11,-0.16
09:03:14.096,-0.125,-0.175
09:03:14.100,-0.125,-0.15
09:03:14.104,-0.13,-0.165
09:03:14.108,-0.115,-0.155
09:03:14.112,0.025,-0.145
09:03:14.116,0.035,-0.12
09:03:14.120,-0.17,-0.045
09:03:14.124,-0.255,-0.015
09:03:14.128,-0.185,-0.105
09:03:14.132,-0.17,-0.215
09:03:14.136,-0.175,-0.245
09:03:14.140,-0.115,-0.23
09:03:14.144,-0.185,-0.19
09:03:14.148,-0.23,-0.2
09:03:14.152,-0.16,-0.195
09:03:14.156,-0.11,-0.18
09:03:14.160,-0.135,-0.185
09:03:14.164,-0.195,-0.17
09:03:14.168,-0.245,-0.16
09:03:14.172,-0.23,-0.155
09:03:14.176,-0.195,-0.15
09:03:14.180,-0.21,-0.16
09:03:14.184,-0.18,-0.185
09:03:14.188,-0.18,-0.16
09:03:14.192,-0.165,-0.135
09:03:14.196,-0.15,-0.12
09:03:14.200,-0.15,-0.155
09:03:14.204,-0.15,-0.16
09:03:14.208,-0.17,-0.155
09:03:14.212,-0.155,-0.13
09:03:14.216,-0.16,-0.14
09:03:14.220,-0.19,-0.12
09:03:14.224,-0.2,-0.085
09:03:14.228,-0.18,-0.09
09:03:14.232,-0.19,-0.175
09:03:14.236,-0.18,-0.19
09:03:14.240,-0.19,-0.16
09:03:14.244,-0.175,-0.16
09:03:14.248,-0.18,-0.165
09:03:14.252,-0.16,-0.13
09:03:14.256,-0.145,-0.075
09:03:14.260,-0.15,-0.105
09:03:14.264,-0.135,-0.175
09:03:14.268,-0.12,-0.17
09:03:14.272,-0.16,-0.14
09:03:14.276,-0.185,-0.15
09:03:14.280,-0.155,-0.165
09:03:14.284,-0.14,-0.16
09:03:14.288,-0.18,-0.1
09:03:14.292,-0.26,-0.09
09:03:14.296,-0.275,-0.115
09:03:14.300,-0.25,-0.135
09:03:14.304,-0.16,-0.115
09:03:14.308,-0.045,-0.075
09:03:14.312,-0.03,-0.045
09:03:14.316,-0.21,-0.025
09:03:14.320,-0.415,-0.005
09:03:14.324,-0.5,0.015
09:03:14.328,-0.505,0.07
09:03:14.332,-0.365,0.09
09:03:14.336,-0.175,0.055
09:03:14.340,-0.18,-0.01
09:03:14.344,-0.295,-0.07
09:03:14.348,-0.33,-0.105
09:03:14.352,-0.385,-0.11
09:03:14.356,-0.255,-0.12
09:03:14.360,-0.16,-0.12
09:03:14.364,-0.19,-0.17
09:03:14.368,-0.275,-0.2
09:03:14.372,-0.265,-0.18
09:03:14.376,-0.215,-0.19
09:03:14.380,-0.2,-0.19
09:03:14.384,-0.22,-0.215
09:03:14.388,-0.215,-0.22
09:03:14.392,-0.16,-0.22
09:03:14.396,-0.14,-0.225
09:03:14.400,-0.17,-0.21
09:03:14.404,-0.11,-0.185
09:03:14.408,-0.08,-0.205
09:03:14.412,-0.16,-0.225
09:03:14.416,-0.215,-0.225
09:03:14.420,-0.21,-0.215
09:03:14.424,-0.135,-0.215
09:03:14.428,-0.055,-0.2
09:03:14.432,-0.065,-0.21
09:03:14.436,-0.16,-0.22
09:03:14.440,-0.205,-0.21
09:03:14.444,-0.155,-0.215
09:03:14.448,-0.06,-0.21
09:03:14.452,0.01,-0.2
09:03:14.456,-0.035,-0.19
09:03:14.460,-0.1,-0.2
09:03:14.464,0.0,-0.205
09:03:14.468,0.055,-0.21
09:03:14.472,-0.065,-0.2
09:03:14.476,-0.14,-0.23
09:03:14.480,-0.175,-0.215
09:03:14.484,-0.165,-0.2
09:03:14.488,-0.145,-0.2
09:03:14.492,-0.075,-0.2
09:03:14.496,-0.045,-0.205
09:03:14.500,-0.02,-0.215
09:03:14.504,-0.045,-0.2
09:03:14.508,-0.1,-0.195
09:03:14.512,-0.16,-0.19
09:03:14.516,-0.185,-0.21
09:03:14.520,-0.155,-0.185
09:03:14.524,-0.14,-0.17
09:03:14.528,-0.1,-0.12
09:03:14.532,-0.115,-0.165
09:03:14.536,-0.125,-0.22
09:03:14.540,-0.12,-0.23
09:03:14.544,-0.095,-0.24
09:03:14.548,-0.095,-0.225
09:03:14.552,-0.11,-0.195
09:03:14.556,-0.12,-0.17
09:03:14.560,-0.11,-0.175
09:03:14.564,-0.12,-0.18
09:03:14.568,-0.14,-0.18
09:03:14.572,-0.135,-0.17
09:03:14.576,-0.11,-0.165
09:03:14.580,-0.11,-0.16
09:03:14.584,-0.13,-0.165
09:03:14.588,-0.125,-0.16
09:03:14.592,-0.14,-0.155
09:03:14.596,-0.16,-0.17
09:03:14.600,-0.17,-0.155
09:03:14.604,-0.15,-0.15
09:03:14.608,-0.15,-0.13
09:03:14.612,-0.135,-0.12
09:03:14.616,-0.14,-0.115
09:03:14.620,-0.15,-0.12
09:03:14.624,-0.16,-0.1
09:03:14.628,-0.13,-0.07
09:03:14.632,-0.15,-0.07
09:03:14.636,-0.1,-0.085
09:03:14.640,-0.01,-0.105
09:03:14.644,-0.175,-0.105
09:03:14.648,-0.3,-0.125
09:03:14.652,-0.255,-0.18
09:03:14.656,-0.225,-0.24
09:03:14.660,-0.215,-0.255
09:03:14.664,-0.04,-0.215
09:03:14.668,-0.035,-0.19
09:03:14.672,-0.255,-0.195
09:03:14.676,-0.35,-0.18
09:03:14.680,-0.31,-0.215
09:03:14.684,-0.325,-0.205
09:03:14.688,-0.335,-0.2
09:03:14.692,-0.285,-0.185
09:03:14.696,-0.28,-0.175
09:03:14.700,-0.27,-0.165
09:03:14.704,-0.235,-0.16
09:03:14.708,-0.195,-0.125
09:03:14.712,-0.185,-0.13
09:03:14.716,-0.255,-0.14
09:03:14.720,-0.24,-0.12
09:03:14.724,-0.255,-0.145
09:03:14.728,-0.25,-0.195
09:03:14.732,-0.22,-0.215
09:03:14.736,-0.19,-0.18
09:03:14.740,-0.12,-0.12
09:03:14.744,-0.085,-0.09
09:03:14.748,-0.145,-0.11
09:03:14.752,-0.22,-0.175
09:03:14.756,-0.24,-0.225
09:03:14.760,-0.225,-0.24
09:03:14.764,-0.2,-0.23
09:03:14.768,-0.14,-0.2
09:03:14.772,-0.155,-0.17
09:03:14.776,-0.25,-0.165
09:03:14.780,-0.265,-0.155
09:03:14.784,-0.25,-0.155
09:03:14.788,-0.2,-0.16
09:03:14.792,-0.175,-0.14
09:03:14.796,-0.18,-0.15
09:03:14.800,-0.17,-0.14
09:03:14.804,-0.17,-0.15
09:03:14.808,-0.195,-0.115
09:03:14.812,-0.205,-0.095
09:03:14.816,-0.22,-0.055
09:03:14.820,-0.185,-0.06
09:03:14.824,-0.17,-0.095
09:03:14.828,-0.175,-0.11
09:03:14.832,-0.19,-0.115
09:03:14.836,-0.16,-0.1
09:03:14.840,-0.11,-0.085
09:03:14.844,-0.14,-0.035
09:03:14.848,-0.225,0.0
09:03:14.852,-0.36,0.02
09:03:14.856,-0.49,0.055
09:03:14.860,-0.55,0.105
09:03:14.864,-0.53,0.085
09:03:14.868,-0.465,0.0
09:03:14.872,-0.41,-0.08
09:03:14.876,-0.34,-0.17
09:03:14.880,-0.29,-0.175
09:03:14.884,-0.25,-0.15
09:03:14.888,-0.22,-0.18
09:03:14.892,-0.205,-0.23
09:03:14.896,-0.2,-0.25
09:03:14.900,-0.16,-0.21
09:03:14.904,-0.135,-0.17
09:03:14.908,-0.14,-0.185
09:03:14.912,-0.155,-0.18
09:03:14.916,-0.18,-0.165
09:03:14.920,-0.185,-0.175
09:03:14.924,-0.185,-0.19
09:03:14.928,-0.175,-0.195
09:03:14.932,-0.18,-0.2
09:03:14.936,-0.2,-0.205
09:03:14.940,-0.19,-0.2
09:03:14.944,-0.19,-0.21
09:03:14.948,-0.185,-0.2
09:03:14.952,-0.19,-0.185
09:03:14.956,-0.205,-0.185
09:03:14.960,-0.2,-0.185
09:03:14.964,-0.23,-0.175
09:03:14.968,-0.24,-0.18
09:03:14.972,-0.23,-0.18
09:03:14.976,-0.23,-0.165
09:03:14.980,-0.235,-0.15
09:03:14.984,-0.245,-0.12
09:03:14.988,-0.255,-0.09
09:03:14.992,-0.26,-0.115
09:03:14.996,-0.27,-0.18
09:03:15.000,-0.29,-0.24
09:03:15.004,-0.275,-0.235
09:03:15.008,-0.205,-0.19
09:03:15.012,-0.16,-0.15
09:03:15.016,-0.105,-0.15
09:03:15.020,-0.135,-0.19
09:03:15.024,-0.29,-0.205
09:03:15.028,-0.275,-0.2
09:03:15.032,-0.195,-0.21
09:03:15.036,-0.305,-0.22
09:03:15.040,-0.395,-0.22
09:03:15.044,-0.345,-0.21
09:03:15.048,-0.275,-0.22
09:03:15.052,-0.17,-0.21
09:03:15.056,-0.115,-0.18
09:03:15.060,-0.215,-0.175
09:03:15.064,-0.41,-0.195
09:03:15.068,-0.45,-0.185
09:03:15.072,-0.405,-0.18
09:03:15.076,-0.34,-0.175
09:03:15.080,-0.21,-0.17
09:03:15.084,-0.05,-0.135
09:03:15.088,-0.08,-0.09
09:03:15.092,-0.255,-0.03
09:03:15.096,-0.325,-0.01
09:03:15.100,-0.245,-0.085
09:03:15.104,-0.22,-0.155
09:03:15.108,-0.305,-0.2
09:03:15.112,-0.355,-0.24
09:03:15.116,-0.285,-0.24
09:03:15.120,-0.2,-0.2
09:03:15.124,-0.18,-0.15
09:03:15.128,-0.32,-0.14
09:03:15.132,-0.41,-0.165
09:03:15.136,-0.395,-0.185
09:03:15.140,-0.36,-0.19
09:03:15.144,-0.33,-0.18
09:03:15.148,-0.26,-0.16
09:03:15.152,-0.23,-0.155
09:03:15.156,-0.215,-0.155
09:03:15.160,-0.19,-0.145
09:03:15.164,-0.175,-0.15
09:03:15.168,-0.16,-0.145
09:03:15.172,-0.145,-0.16
09:03:15.176,-0.125,-0.16
09:03:15.180,-0.105,-0.165
09:03:15.184,-0.12,-0.165
09:03:15.188,-0.16,-0.16
09:03:15.192,-0.21,-0.145
09:03:15.196,-0.18,-0.15
09:03:15.200,-0.16,-0.165
09:03:15.204,-0.165,-0.165
09:03:15.208,-0.15,-0.15
09:03:15.212,-0.155,-0.12
09:03:15.216,-0.13,-0.14
09:03:15.220,-0.155,-0.145
09:03:15.224,-0.16,-0.14
09:03:15.228,-0.15,-0.16
09:03:15.232,-0.165,-0.175
09:03:15.236,-0.16,-0.175
09:03:15.240,-0.13,-0.205
09:03:15.244,-0.115,-0.22
09:03:15.248,-0.115,-0.225
09:03:15.252,-0.13,-0.19
09:03:15.256,-0.105,-0.18
09:03:15.260,-0.11,-0.195
09:03:15.264,-0.1,-0.195
09:03:15.268,-0.11,-0.175
09:03:15.272,-0.13,-0.16
09:03:15.276,-0.115,-0.165
09:03:15.280,-0.12,-0.155
09:03:15.284,-0.13,-0.145
09:03:15.288,-0.135,-0.145
09:03:15.292,-0.115,-0.16
09:03:15.296,-0.12,-0.155
09:03:15.300,-0.12,-0.165
09:03:15.304,-0.09,-0.145
09:03:15.308,-0.1,-0.135
09:03:15.312,-0.125,-0.13
09:03:15.316,-0.12,-0.125
09:03:15.320,-0.11,-0.095
09:03:15.324,-0.12,-0.06
09:03:15.328,-0.15,-0.055
09:03:15.332,-0.16,-0.1
09:03:15.336,-0.165,-0.165
09:03:15.340,-0.175,-0.215
09:03:15.344,-0.16,-0.175
09:03:15.348,-0.145,-0.13
09:03:15.352,-0.17,-0.13
09:03:15.356,-0.2,-0.165
09:03:15.360,-0.195,-0.185
09:03:15.364,-0.14,-0.19
09:03:15.368,-0.08,-0.18
09:03:15.372,-0.115,-0.175
09:03:15.376,-0.18,-0.17
09:03:15.380,-0.205,-0.16
09:03:15.384,-0.23,-0.155
09:03:15.388,-0.285,-0.16
09:03:15.392,-0.275,-0.17
09:03:15.396,-0.21,-0.18
09:03:15.400,-0.2,-0.165
09:03:15.404,-0.16,-0.15
09:03:15.408,-0.105,-0.145
09:03:15.412,-0.135,-0.14
09:03:15.416,-0.225,-0.13
09:03:15.420,-0.305,-0.105
09:03:15.424,-0.29,-0.085
09:03:15.428,-0.22,-0.125
09:03:15.432,-0.19,-0.12
09:03:15.436,-0.25,-0.125
09:03:15.440,-0.28,-0.11
09:03:15.444,-0.24,-0.08
09:03:15.448,-0.2,-0.06
09:03:15.452,-0.23,-0.06
09:03:15.456,-0.305,-0.09
09:03:15.460,-0.305,-0.11
09:03:15.464,-0.245,-0.09
09:03:15.468,-0.07,-0.04
09:03:15.472,0.0,-0.02
09:03:15.476,-0.11,0.005
09:03:15.480,-0.29,0.025
09:03:15.484,-0.435,0.045
09:03:15.488,-0.5,0.05
09:03:15.492,-0.465,0.095
09:03:15.496,-0.375,0.045
09:03:15.500,-0.375,-0.025
09:03:15.504,-0.395,-0.105
09:03:15.508,-0.39,-0.155
09:03:15.512,-0.44,-0.19
09:03:15.516,-0.41,-0.195
09:03:15.520,-0.34,-0.155
09:03:15.524,-0.29,-0.11
09:03:15.528,-0.3,-0.125
09:03:15.532,-0.29,-0.155
09:03:15.536,-0.27,-0.185
09:03:15.540,-0.195,-0.2
09:03:15.544,-0.145,-0.17
09:03:15.548,-0.155,-0.18
09:03:15.552,-0.15,-0.215
09:03:15.556,-0.09,-0.225
09:03:15.560,-0.075,-0.22
09:03:15.564,-0.025,-0.205
09:03:15.568,0.02,-0.195
09:03:15.572,0.01,-0.17
09:03:15.576,-0.075,-0.17
09:03:15.580,-0.11,-0.175
09:03:15.584,-0.17,-0.18
09:03:15.588,-0.185,-0.165
09:03:15.592,-0.15,-0.145
09:03:15.596,-0.105,-0.155
09:03:15.600,-0.05,-0.16
09:03:15.604,-0.015,-0.15
09:03:15.608,-0.01,-0.145
09:03:15.612,-0.08,-0.135
09:03:15.616,-0.1,-0.135
09:03:15.620,-0.085,-0.14
09:03:15.624,-0.07,-0.155
09:03:15.628,-0.055,-0.155
09:03:15.632,-0.05,-0.15
09:03:15.636,-0.035,-0.16
09:03:15.640,-0.02,-0.17
09:03:15.644,-0.04,-0.165
09:03:15.648,-0.02,-0.155
09:03:15.652,-0.03,-0.135
09:03:15.656,-0.04,-0.12
09:03:15.660,-0.035,-0.115
09:03:15.664,-0.025,-0.165
09:03:15.668,-0.04,-0.225
09:03:15.672,-0.025,-0.225
09:03:15.676,0.005,-0.2
09:03:15.680,0.005,-0.185
09:03:15.684,0.0,-0.17
09:03:15.688,0.01,-0.155
09:03:15.692,0.01,-0.16
09:03:15.696,0.005,-0.17
09:03:15.700,-0.015,-0.175
09:03:15.704,-0.05,-0.16
09:03:15.708,-0.035,-0.145
09:03:15.712,-0.025,-0.125
09:03:15.716,-0.02,-0.115
09:03:15.720,-0.03,-0.115
09:03:15.724,-0.07,-0.13
09:03:15.728,-0.075,-0.155
09:03:15.732,-0.115,-0.17
09:03:15.736,-0.11,-0.145
09:03:15.740,-0.045,-0.14
09:03:15.744,0.025,-0.105
09:03:15.748,-0.04,-0.095
09:03:15.752,-0.175,-0.095
09:03:15.756,-0.205,-0.09
09:03:15.760,-0.14,-0.11
09:03:15.764,-0.03,-0.125
09:03:15.768,0.03,-0.11
09:03:15.772,-0.08,-0.11
09:03:15.776,-0.195,-0.095
09:03:15.780,-0.09,-0.105
09:03:15.784,0.015,-0.09
09:03:15.788,-0.085,-0.055
09:03:15.792,-0.27,-0.015
09:03:15.796,-0.295,-0.025
09:03:15.800,-0.215,-0.08
09:03:15.804,-0.155,-0.145
09:03:15.808,-0.145,-0.18
09:03:15.812,-0.165,-0.18
09:03:15.816,-0.155,-0.13
09:03:15.820,-0.1,-0.135
09:03:15.824,-0.045,-0.145
09:03:15.828,-0.095,-0.17
09:03:15.832,-0.14,-0.195
09:03:15.836,-0.035,-0.17
09:03:15.840,0.025,-0.155
09:03:15.844,-0.085,-0.15
09:03:15.848,-0.155,-0.16
09:03:15.852,-0.15,-0.15
09:03:15.856,-0.085,-0.155
09:03:15.860,-0.03,-0.165
09:03:15.864,-0.115,-0.16
09:03:15.868,-0.1,-0.17
09:03:15.872,-0.035,-0.165
09:03:15.876,0.0,-0.15
09:03:15.880,-0.04,-0.14
09:03:15.884,-0.08,-0.14
09:03:15.888,-0.05,-0.135
09:03:15.892,-0.055,-0.125
09:03:15.896,-0.205,-0.135
09:03:15.900,-0.27,-0.13
09:03:15.904,-0.205,-0.12
09:03:15.908,-0.12,-0.105
09:03:15.912,-0.115,-0.06
09:03:15.916,-0.14,-0.065
09:03:15.920,-0.13,-0.12
09:03:15.924,-0.08,-0.16
09:03:15.928,-0.035,-0.165
09:03:15.932,-0.075,-0.145
09:03:15.936,-0.075,-0.12
09:03:15.940,-0.005,-0.085
09:03:15.944,0.05,-0.095
09:03:15.948,0.045,-0.145
09:03:15.952,-0.01,-0.145
09:03:15.956,-0.045,-0.14
09:03:15.960,-0.06,-0.125
09:03:15.964,-0.05,-0.125
09:03:15.968,-0.03,-0.13
09:03:15.972,-0.035,-0.115
09:03:15.976,-0.045,-0.125
09:03:15.980,-0.06,-0.11
09:03:15.984,-0.025,-0.11
09:03:15.988,-0.005,-0.11
09:03:15.992,0.01,-0.11
09:03:15.996,-0.01,-0.125
09:03:16.000,-0.02,-0.13
09:03:16.004,-0.04,-0.12
09:03:16.008,-0.01,-0.11
09:03:16.012,-0.02,-0.125
09:03:16.016,-0.01,-0.115
09:03:16.020,-0.015,-0.1
09:03:16.024,-0.01,-0.085
09:03:16.028,-0.02,-0.09
09:03:16.032,-0.045,-0.12
09:03:16.036,-0.05,-0.145
09:03:16.040,-0.015,-0.16
09:03:16.044,-0.015,-0.16
09:03:16.048,-0.025,-0.175
09:03:16.052,-0.03,-0.17
09:03:16.056,-0.015,-0.155
09:03:16.060,0.01,-0.14
09:03:16.064,-0.015,-0.14
09:03:16.068,-0.05,-0.135
09:03:16.072,-0.06,-0.13
09:03:16.076,-0.055,-0.115
09:03:16.080,-0.035,-0.095
09:03:16.084,-0.05,-0.065
09:03:16.088,-0.045,-0.035
09:03:16.092,-0.03,-0.02
09:03:16.096,-0.04,-0.045
09:03:16.100,-0.025,-0.04
09:03:16.104,-0.01,-0.01
09:03:16.108,-0.015,0.02
09:03:16.112,-0.065,0.035
09:03:16.116,-0.135,0.065
09:03:16.120,-0.22,0.08
09:03:16.124,-0.37,0.08
09:03:16.128,-0.5,0.125
09:03:16.132,-0.47,0.1
09:03:16.136,-0.38,0.05
09:03:16.140,-0.315,0.0
09:03:16.144,-0.215,-0.05
09:03:16.148,-0.095,-0.13
09:03:16.152,-0.2,-0.21
09:03:16.156,-0.375,-0.265
09:03:16.160,-0.315,-0.24
09:03:16.164,-0.045,-0.19
09:03:16.168,0.145,-0.145
09:03:16.172,0.025,-0.15
09:03:16.176,-0.24,-0.175
09:03:16.180,-0.275,-0.18
09:03:16.184,-0.175,-0.175
09:03:16.188,-0.07,-0.17
09:03:16.192,-0.025,-0.18
09:03:16.196,-0.04,-0.19
09:03:16.200,-0.115,-0.215
09:03:16.204,-0.14,-0.195
09:03:16.208,-0.075,-0.18
09:03:16.212,-0.025,-0.16
09:03:16.216,-0.14,-0.15
09:03:16.220,-0.21,-0.14
09:03:16.224,-0.11,-0.15
09:03:16.228,-0.025,-0.16
09:03:16.232,0.0,-0.145
09:03:16.236,-0.06,-0.125
09:03:16.240,-0.16,-0.125
09:03:16.244,-0.2,-0.15
09:03:16.248,-0.155,-0.175
09:03:16.252,-0.055,-0.185
09:03:16.256,0.05,-0.17
09:03:16.260,0.075,-0.15
09:03:16.264,0.0,-0.12
09:03:16.268,-0.05,-0.125
09:03:16.272,-0.125,-0.15
09:03:16.276,-0.14,-0.16
09:03:16.280,-0.075,-0.175
09:03:16.284,0.02,-0.16
09:03:16.288,0.04,-0.155
09:03:16.292,0.005,-0.14
09:03:16.296,-0.045,-0.145
09:03:16.300,-0.07,-0.155
09:03:16.304,-0.07,-0.155
09:03:16.308,-0.065,-0.165
09:03:16.312,-0.02,-0.16
09:03:16.316,0.01,-0.14
09:03:16.320,0.045,-0.13
09:03:16.324,0.075,-0.12
09:03:16.328,-0.01,-0.105
09:03:16.332,-0.1,-0.105
09:03:16.336,-0.07,-0.14
09:03:16.340,0.0,-0.165
09:03:16.344,0.03,-0.16
09:03:16.348,0.005,-0.13
09:03:16.352,-0.03,-0.105
09:03:16.356,-0.035,-0.11
09:03:16.360,-0.01,-0.13
09:03:16.364,0.025,-0.115
09:03:16.368,0.04,-0.095
09:03:16.372,0.035,-0.1
09:03:16.376,0.03,-0.105
09:03:16.380,0.025,-0.11
09:03:16.384,0.025,-0.095
09:03:16.388,0.03,-0.11
09:03:16.392,0.01,-0.115
09:03:16.396,0.025,-0.115
09:03:16.400,0.03,-0.1
09:03:16.404,0.035,-0.09
09:03:16.408,0.02,-0.09
09:03:16.412,0.02,-0.085
09:03:16.416,0.015,-0.1
09:03:16.420,0.005,-0.12
09:03:16.424,0.03,-0.13
09:03:16.428,0.005,-0.12
09:03:16.432,0.025,-0.115
09:03:16.436,0.035,-0.115
09:03:16.440,0.02,-0.135
09:03:16.444,0.015,-0.14
09:03:16.448,0.035,-0.13
09:03:16.452,0.04,-0.12
09:03:16.456,0.055,-0.11
09:03:16.460,0.07,-0.095
09:03:16.464,-0.01,-0.095
09:03:16.468,-0.04,-0.085
09:03:16.472,-0.025,-0.09
09:03:16.476,-0.045,-0.095
09:03:16.480,-0.06,-0.145
09:03:16.484,-0.05,-0.185
09:03:16.488,-0.02,-0.155
09:03:16.492,0.07,-0.115
09:03:16.496,0.09,-0.075
09:03:16.500,-0.015,-0.11
09:03:16.504,-0.105,-0.17
09:03:16.508,-0.035,-0.19
09:03:16.512,0.115,-0.19
09:03:16.516,0.195,-0.165
09:03:16.520,-0.005,-0.155
09:03:16.524,-0.12,-0.155
09:03:16.528,-0.07,-0.16
09:03:16.532,0.0,-0.16
09:03:16.536,0.03,-0.16
09:03:16.540,0.04,-0.14
09:03:16.544,-0.025,-0.125
09:03:16.548,-0.16,-0.13
09:03:16.552,-0.17,-0.14
09:03:16.556,-0.08,-0.14
09:03:16.560,0.0,-0.135
09:03:16.564,-0.04,-0.13
09:03:16.568,-0.095,-0.115
09:03:16.572,-0.03,-0.115
09:03:16.576,0.04,-0.11
09:03:16.580,0.035,-0.09
09:03:16.584,0.0,-0.115
09:03:16.588,-0.095,-0.145
09:03:16.592,-0.195,-0.145
09:03:16.596,-0.145,-0.12
09:03:16.600,-0.09,-0.1
09:03:16.604,-0.035,-0.095
09:03:16.608,0.015,-0.1
09:03:16.612,0.03,-0.11
09:03:16.616,0.065,-0.105
09:03:16.620,0.11,-0.085
09:03:16.624,0.02,-0.06
09:03:16.628,-0.155,-0.045
09:03:16.632,-0.14,-0.08
09:03:16.636,-0.08,-0.11
09:03:16.640,-0.045,-0.13
09:03:16.644,-0.03,-0.15
09:03:16.648,0.03,-0.155
09:03:16.652,0.06,-0.14
09:03:16.656,0.065,-0.12
09:03:16.660,0.11,-0.115
09:03:16.664,0.06,-0.11
09:03:16.668,0.05,-0.1
09:03:16.672,0.05,-0.085
09:03:16.676,0.0,-0.085
09:03:16.680,0.015,-0.085
09:03:16.684,0.025,-0.05
09:03:16.688,-0.045,-0.03
09:03:16.692,-0.08,-0.02
09:03:16.696,-0.05,-0.02
09:03:16.700,-0.025,-0.055
09:03:16.704,0.06,-0.055
09:03:16.708,0.115,-0.03
09:03:16.712,0.14,0.0
09:03:16.716,0.1,0.0
09:03:16.720,-0.01,0.015
09:03:16.724,-0.205,0.03
09:03:16.728,-0.35,0.055
09:03:16.732,-0.36,0.075
09:03:16.736,-0.315,0.06
09:03:16.740,-0.29,-0.005
09:03:16.744,-0.185,-0.075
09:03:16.748,-0.13,-0.135
09:03:16.752,-0.07,-0.16
09:03:16.756,-0.045,-0.165
09:03:16.760,-0.005,-0.19
09:03:16.764,0.005,-0.19
09:03:16.768,0.045,-0.185
09:03:16.772,0.055,-0.16
09:03:16.776,0.07,-0.15
09:03:16.780,0.075,-0.145
09:03:16.784,0.08,-0.145
09:03:16.788,0.105,-0.135
09:03:16.792,0.09,-0.13
09:03:16.796,0.085,-0.12
09:03:16.800,0.085,-0.12
09:03:16.804,0.085,-0.135
09:03:16.808,0.075,-0.16
09:03:16.812,0.085,-0.205
09:03:16.816,0.12,-0.2
09:03:16.820,0.12,-0.195
09:03:16.824,0.14,-0.165
09:03:16.828,0.155,-0.155
09:03:16.832,0.145,-0.135
09:03:16.836,0.13,-0.145
09:03:16.840,0.125,-0.14
09:03:16.844,0.175,-0.13
09:03:16.848,0.215,-0.13
09:03:16.852,0.12,-0.13
09:03:16.856,0.055,-0.14
09:03:16.860,0.075,-0.165
09:03:16.864,0.105,-0.17
09:03:16.868,0.12,-0.16
09:03:16.872,0.085,-0.17
09:03:16.876,0.04,-0.18
09:03:16.880,0.025,-0.165
09:03:16.884,0.075,-0.16
09:03:16.888,0.12,-0.155
09:03:16.892,0.155,-0.175
09:03:16.896,0.135,-0.18
09:03:16.900,0.08,-0.17
09:03:16.904,0.045,-0.165
09:03:16.908,0.14,-0.15
09:03:16.912,0.215,-0.145
09:03:16.916,0.085,-0.145
09:03:16.920,-0.05,-0.13
09:03:16.924,-0.06,-0.13
09:03:16.928,0.005,-0.15
09:03:16.932,0.105,-0.145
09:03:16.936,0.18,-0.14
09:03:16.940,0.165,-0.13
09:03:16.944,0.07,-0.115
09:03:16.948,-0.01,-0.105
09:03:16.952,0.005,-0.125
09:03:16.956,0.025,-0.135
09:03:16.960,0.075,-0.12
09:03:16.964,0.165,-0.115
09:03:16.968,0.215,-0.08
09:03:16.972,0.075,-0.075
09:03:16.976,-0.06,-0.1
09:03:16.980,0.015,-0.095
09:03:16.984,0.095,-0.095
09:03:16.988,0.11,-0.09
09:03:16.992,0.1,-0.11
09:03:16.996,0.06,-0.15
09:03:17.000,0.13,-0.16
09:03:17.004,0.165,-0.125
09:03:17.008,0.135,-0.105
09:03:17.012,0.065,-0.105
09:03:17.016,0.005,-0.135
09:03:17.020,-0.045,-0.165
09:03:17.024,0.005,-0.165
09:03:17.028,0.17,-0.155
09:03:17.032,0.175,-0.145
09:03:17.036,0.13,-0.14
09:03:17.040,0.09,-0.12
09:03:17.044,0.035,-0.11
09:03:17.048,0.055,-0.12
09:03:17.052,0.055,-0.14
09:03:17.056,0.01,-0.16
09:03:17.060,-0.01,-0.16
09:03:17.064,0.025,-0.15
09:03:17.068,0.075,-0.14
09:03:17.072,0.105,-0.145
09:03:17.076,0.08,-0.16
09:03:17.080,0.07,-0.145
09:03:17.084,0.105,-0.155
09:03:17.088,0.105,-0.16
09:03:17.092,0.115,-0.16
09:03:17.096,0.1,-0.15
09:03:17.100,0.025,-0.16
09:03:17.104,0.035,-0.155
09:03:17.108,0.16,-0.15
09:03:17.112,0.205,-0.14
09:03:17.116,0.11,-0.145
09:03:17.120,0.085,-0.15
09:03:17.124,0.14,-0.135
09:03:17.128,0.18,-0.155
09:03:17.132,0.14,-0.15
09:03:17.136,0.105,-0.16
09:03:17.140,0.04,-0.15
09:03:17.144,-0.01,-0.14
09:03:17.148,0.04,-0.13
09:03:17.152,0.16,-0.11
09:03:17.156,0.18,-0.11
09:03:17.160,0.175,-0.115
09:03:17.164,0.095,-0.135
09:03:17.168,-0.015,-0.145
09:03:17.172,-0.005,-0.155
09:03:17.176,0.1,-0.125
09:03:17.180,0.13,-0.1
09:03:17.184,0.035,-0.095
09:03:17.188,0.005,-0.135
09:03:17.192,0.035,-0.155
09:03:17.196,0.105,-0.17
09:03:17.200,0.16,-0.15
09:03:17.204,0.13,-0.135
09:03:17.208,0.015,-0.125
09:03:17.212,0.01,-0.13
09:03:17.216,0.025,-0.13
09:03:17.220,0.055,-0.135
09:03:17.224,0.07,-0.12
09:03:17.228,0.08,-0.13
09:03:17.232,0.065,-0.11
09:03:17.236,0.055,-0.14
09:03:17.240,0.07,-0.14
09:03:17.244,0.09,-0.14
09:03:17.248,0.105,-0.135
09:03:17.252,0.105,-0.13
09:03:17.256,0.1,-0.135
09:03:17.260,0.06,-0.135
09:03:17.264,0.07,-0.115
09:03:17.268,0.07,-0.125
09:03:17.272,0.08,-0.125
09:03:17.276,0.09,-0.125
09:03:17.280,0.1,-0.11
09:03:17.284,0.105,-0.1
09:03:17.288,0.08,-0.055
09:03:17.292,0.08,-0.02
09:03:17.296,0.085,-0.015
09:03:17.300,0.11,-0.05
09:03:17.304,0.115,-0.08
09:03:17.308,0.125,-0.07
09:03:17.312,0.245,-0.015
09:03:17.316,0.2,-0.01
09:03:17.320,-0.015,0.0
09:03:17.324,-0.235,0.035
09:03:17.328,-0.33,0.07
09:03:17.332,-0.36,0.095
09:03:17.336,-0.315,0.105
09:03:17.340,-0.21,0.065
09:03:17.344,-0.2,0.005
09:03:17.348,-0.245,-0.09
09:03:17.352,-0.25,-0.16
09:03:17.356,-0.21,-0.16
09:03:17.360,-0.125,-0.18
09:03:17.364,-0.01,-0.22
09:03:17.368,0.07,-0.215
09:03:17.372,0.025,-0.195
09:03:17.376,-0.05,-0.175
09:03:17.380,-0.04,-0.17
09:03:17.384,0.04,-0.155
09:03:17.388,0.035,-0.15
09:03:17.392,0.045,-0.135
09:03:17.396,0.06,-0.145
09:03:17.400,0.015,-0.15
09:03:17.404,-0.035,-0.18
09:03:17.408,0.005,-0.16
09:03:17.412,0.045,-0.175
09:03:17.416,0.035,-0.18
09:03:17.420,0.055,-0.16
09:03:17.424,0.1,-0.155
09:03:17.428,0.095,-0.17
09:03:17.432,0.095,-0.17
09:03:17.436,0.145,-0.145
09:03:17.440,0.05,-0.145
09:03:17.444,-0.02,-0.15
09:03:17.448,0.025,-0.185
09:03:17.452,0.14,-0.175
09:03:17.456,0.115,-0.16
09:03:17.460,0.02,-0.155
09:03:17.464,0.015,-0.15
09:03:17.468,0.075,-0.135
09:03:17.472,0.09,-0.13
09:03:17.476,0.06,-0.14
09:03:17.480,0.05,-0.13
09:03:17.484,0.06,-0.13
09:03:17.488,0.05,-0.115
09:03:17.492,0.07,-0.14
09:03:17.496,0.175,-0.155
09:03:17.500,0.245,-0.16
09:03:17.504,0.145,-0.15
09:03:17.508,0.045,-0.12
09:03:17.512,0.085,-0.115
09:03:17.516,0.045,-0.15
09:03:17.520,-0.03,-0.175
09:03:17.524,-0.005,-0.175
09:03:17.528,0.08,-0.155
09:03:17.532,0.115,-0.155
09:03:17.536,0.13,-0.145
09:03:17.540,0.155,-0.15
09:03:17.544,0.165,-0.13
09:03:17.548,0.135,-0.135
09:03:17.552,0.09,-0.14
09:03:17.556,0.1,-0.13
09:03:17.560,0.1,-0.125
09:03:17.564,0.065,-0.1
09:03:17.568,0.055,-0.115
09:03:17.572,0.095,-0.09
09:03:17.576,0.125,-0.115
09:03:17.580,0.145,-0.1
09:03:17.584,0.13,-0.105
09:03:17.588,0.145,-0.1
09:03:17.592,0.13,-0.1
09:03:17.596,0.145,-0.08
09:03:17.600,0.14,-0.08
09:03:17.604,0.15,-0.065
09:03:17.608,0.145,-0.065
09:03:17.612,0.135,-0.075
09:03:17.616,0.125,-0.085
09:03:17.620,0.1,-0.075
09:03:17.624,0.1,-0.075
09:03:17.628,0.09,-0.085
09:03:17.632,0.105,-0.115
09:03:17.636,0.135,-0.125
09:03:17.640,0.135,-0.115
09:03:17.644,0.14,-0.105
09:03:17.648,0.14,-0.1
09:03:17.652,0.155,-0.1
09:03:17.656,0.145,-0.115
09:03:17.660,0.13,-0.11
09:03:17.664,0.105,-0.115
09:03:17.668,0.115,-0.125
09:03:17.672,0.15,-0.12
09:03:17.676,0.19,-0.105
09:03:17.680,0.16,-0.11
09:03:17.684,0.14,-0.115
09:03:17.688,0.09,-0.125
09:03:17.692,0.11,-0.125
09:03:17.696,0.17,-0.11
09:03:17.700,0.145,-0.1
09:03:17.704,0.09,-0.095
09:03:17.708,0.07,-0.105
09:03:17.712,0.045,-0.105
09:03:17.716,0.02,-0.12
09:03:17.720,0.055,-0.09
09:03:17.724,0.09,-0.09
09:03:17.728,0.115,-0.09
09:03:17.732,0.14,-0.085
09:03:17.736,0.12,-0.075
09:03:17.740,0.06,-0.075
09:03:17.744,0.07,-0.07
09:03:17.748,0.18,-0.055
09:03:17.752,0.145,-0.02
09:03:17.756,0.015,-0.025
09:03:17.760,-0.085,-0.08
09:03:17.764,-0.16,-0.085
09:03:17.768,-0.08,-0.065
09:03:17.772,0.055,-0.045
09:03:17.776,0.18,-0.045
09:03:17.780,0.12,-0.065
09:03:17.784,-0.045,-0.09
09:03:17.788,-0.185,-0.105
09:03:17.792,-0.08,-0.1
09:03:17.796,0.06,-0.115
09:03:17.800,0.1,-0.12
09:03:17.804,0.145,-0.135
09:03:17.808,-0.015,-0.135
09:03:17.812,-0.16,-0.11
09:03:17.816,-0.175,-0.07
09:03:17.820,-0.145,-0.045
09:03:17.824,-0.1,-0.065
09:03:17.828,-0.095,-0.08
09:03:17.832,-0.04,-0.09
09:03:17.836,-0.015,-0.09
09:03:17.840,-0.025,-0.07
09:03:17.844,-0.025,-0.055
09:03:17.848,-0.06,-0.035
09:03:17.852,-0.19,-0.035
09:03:17.856,-0.265,-0.01
09:03:17.860,-0.34,-0.005
09:03:17.864,-0.395,-0.035
09:03:17.868,-0.37,-0.08
09:03:17.872,-0.235,-0.12
09:03:17.876,-0.05,-0.155
09:03:17.880,-0.02,-0.15
09:03:17.884,-0.115,-0.165
09:03:17.888,-0.075,-0.16
09:03:17.892,-0.045,-0.175
09:03:17.896,-0.065,-0.185
09:03:17.900,-0.025,-0.18
09:03:17.904,-0.03,-0.18
09:03:17.908,-0.08,-0.17
09:03:17.912,-0.035,-0.17
09:03:17.916,0.0,-0.165
09:03:17.920,0.06,-0.17
09:03:17.924,0.105,-0.155
09:03:17.928,0.11,-0.155
09:03:17.932,0.105,-0.17
09:03:17.936,0.085,-0.185
09:03:17.940,0.07,-0.2
09:03:17.944,0.1,-0.155
09:03:17.948,0.07,-0.11
09:03:17.952,-0.115,-0.145
09:03:17.956,-0.175,-0.17
09:03:17.960,-0.105,-0.155
09:03:17.964,0.0,-0.14
09:03:17.968,0.08,-0.16
09:03:17.972,0.165,-0.165
09:03:17.976,0.155,-0.17
09:03:17.980,0.095,-0.18
09:03:17.984,0.09,-0.195
09:03:17.988,0.09,-0.19
09:03:17.992,0.09,-0.175
09:03:17.996,0.055,-0.16
09:03:18.000,0.03,-0.155
09:03:18.004,-0.005,-0.165
09:03:18.008,-0.015,-0.145
09:03:18.012,0.02,-0.15
09:03:18.016,0.07,-0.16
09:03:18.020,0.075,-0.16
09:03:18.024,0.07,-0.15
09:03:18.028,0.065,-0.14
09:03:18.032,0.085,-0.15
09:03:18.036,0.08,-0.15
09:03:18.040,0.085,-0.16
09:03:18.044,0.07,-0.15
09:03:18.048,0.075,-0.155
09:03:18.052,0.075,-0.15
09:03:18.056,0.07,-0.14
09:03:18.060,0.08,-0.15
09:03:18.064,0.085,-0.155
09:03:18.068,0.085,-0.14
09:03:18.072,0.075,-0.135
09:03:18.076,0.09,-0.135
09:03:18.080,0.095,-0.14
09:03:18.084,0.08,-0.175
09:03:18.088,0.15,-0.155
09:03:18.092,0.205,-0.155
09:03:18.096,0.125,-0.135
09:03:18.100,0.0,-0.14
09:03:18.104,0.01,-0.13
09:03:18.108,0.025,-0.13
09:03:18.112,0.035,-0.145
09:03:18.116,0.02,-0.135
09:03:18.120,0.03,-0.13
09:03:18.124,0.04,-0.13
09:03:18.128,0.035,-0.135
09:03:18.132,0.045,-0.145
09:03:18.136,0.06,-0.14
09:03:18.140,0.095,-0.125
09:03:18.144,0.185,-0.12
09:03:18.148,0.19,-0.105
09:03:18.152,0.035,-0.11
09:03:18.156,-0.05,-0.115
09:03:18.160,0.0,-0.145
09:03:18.164,0.1,-0.145
09:03:18.168,0.14,-0.155
09:03:18.172,0.055,-0.145
09:03:18.176,0.015,-0.14
09:03:18.180,0.065,-0.155
09:03:18.184,0.075,-0.16
09:03:18.188,0.11,-0.15
09:03:18.192,0.13,-0.13
09:03:18.196,0.14,-0.11
09:03:18.200,0.055,-0.13
09:03:18.204,-0.03,-0.15
09:03:18.208,0.0,-0.155
09:03:18.212,0.03,-0.15
09:03:18.216,0.06,-0.155
09:03:18.220,0.075,-0.16
09:03:18.224,0.09,-0.15
09:03:18.228,0.065,-0.165
09:03:18.232,0.03,-0.17
09:03:18.236,0.01,-0.16
09:03:18.240,-0.005,-0.16
09:03:18.244,0.01,-0.16
09:03:18.248,0.075,-0.14
09:03:18.252,0.075,-0.12
09:03:18.256,0.055,-0.115
09:03:18.260,0.015,-0.135
09:03:18.264,-0.025,-0.145
09:03:18.268,0.015,-0.145
09:03:18.272,0.045,-0.17
09:03:18.276,0.04,-0.175
09:03:18.280,0.04,-0.16
09:03:18.284,0.08,-0.14
09:03:18.288,0.12,-0.12
09:03:18.292,0.025,-0.125
09:03:18.296,0.0,-0.125
09:03:18.300,0.07,-0.135
09:03:18.304,0.13,-0.115
09:03:18.308,0.105,-0.115
09:03:18.312,-0.015,-0.115
09:03:18.316,-0.03,-0.115
09:03:18.320,0.03,-0.13
09:03:18.324,0.07,-0.12
09:03:18.328,0.105,-0.115
09:03:18.332,0.195,-0.09
09:03:18.336,0.11,-0.07
09:03:18.340,-0.025,-0.04
09:03:18.344,-0.04,-0.03
09:03:18.348,-0.015,-0.045
09:03:18.352,0.03,-0.08
09:03:18.356,0.095,-0.065
09:03:18.360,0.155,-0.025
09:03:18.364,0.175,0.01
09:03:18.368,0.05,0.03
09:03:18.372,-0.135,0.04
09:03:18.376,-0.26,0.055
09:03:18.380,-0.305,0.075
09:03:18.384,-0.31,0.06
09:03:18.388,-0.255,0.005
09:03:18.392,-0.185,-0.05
09:03:18.396,-0.1,-0.1
09:03:18.400,-0.06,-0.14
09:03:18.404,-0.03,-0.15
09:03:18.408,0.0,-0.15
09:03:18.412,0.04,-0.18
09:03:18.416,0.04,-0.19
09:03:18.420,0.04,-0.16
09:03:18.424,0.045,-0.13
09:03:18.428,0.05,-0.14
09:03:18.432,0.1,-0.15
09:03:18.436,0.095,-0.16
09:03:18.440,0.025,-0.16
09:03:18.444,0.02,-0.17
09:03:18.448,0.05,-0.185
09:03:18.452,0.065,-0.175
09:03:18.456,0.075,-0.19
09:03:18.460,0.095,-0.16
09:03:18.464,0.085,-0.185
09:03:18.468,0.095,-0.175
09:03:18.472,0.105,-0.17
09:03:18.476,0.095,-0.17
09:03:18.480,0.125,-0.175
09:03:18.484,0.11,-0.17
09:03:18.488,0.1,-0.17
09:03:18.492,0.105,-0.17
09:03:18.496,0.125,-0.18
09:03:18.500,0.13,-0.175
09:03:18.504,0.105,-0.185
09:03:18.508,0.095,-0.18
09:03:18.512,0.11,-0.185
09:03:18.516,0.16,-0.17
09:03:18.520,0.15,-0.18
09:03:18.524,0.085,-0.18
09:03:18.528,0.06,-0.185
09:03:18.532,0.095,-0.17
09:03:18.536,0.12,-0.175
09:03:18.540,0.09,-0.18
09:03:18.544,0.12,-0.17
09:03:18.548,0.175,-0.165
09:03:18.552,0.12,-0.155
09:03:18.556,0.05,-0.155
09:03:18.560,0.03,-0.14
09:03:18.564,0.065,-0.125
09:03:18.568,0.095,-0.14
09:03:18.572,0.145,-0.135
09:03:18.576,0.15,-0.125
09:03:18.580,0.095,-0.115
09:03:18.584,0.08,-0.13
09:03:18.588,0.095,-0.115
09:03:18.592,0.06,-0.12
09:03:18.596,-0.02,-0.11
09:03:18.600,-0.04,-0.13
09:03:18.604,0.09,-0.145
09:03:18.608,0.22,-0.12
09:03:18.612,0.145,-0.125
09:03:18.616,-0.04,-0.12
09:03:18.620,-0.05,-0.14
09:03:18.624,0.0,-0.105
09:03:18.628,-0.03,-0.11
09:03:18.632,-0.04,-0.12
09:03:18.636,0.05,-0.13
09:03:18.640,0.11,-0.115
09:03:18.644,0.06,-0.11
09:03:18.648,0.04,-0.115
09:03:18.652,0.07,-0.12
09:03:18.656,0.105,-0.115
09:03:18.660,0.045,-0.11
09:03:18.664,0.0,-0.095
09:03:18.668,0.02,-0.11
09:03:18.672,0.06,-0.115
09:03:18.676,0.05,-0.12
09:03:18.680,0.05,-0.14
09:03:18.684,0.07,-0.145
09:03:18.688,0.035,-0.145
09:03:18.692,0.045,-0.13
09:03:18.696,0.115,-0.115
09:03:18.700,0.135,-0.115
09:03:18.704,0.12,-0.125
09:03:18.708,0.125,-0.12
09:03:18.712,0.04,-0.115
09:03:18.716,-0.025,-0.12
09:03:18.720,-0.015,-0.13
09:03:18.724,0.015,-0.125
09:03:18.728,0.075,-0.135
09:03:18.732,0.075,-0.125
09:03:18.736,0.105,-0.13
09:03:18.740,0.17,-0.125
09:03:18.744,0.065,-0.12
09:03:18.748,-0.005,-0.13
09:03:18.752,0.06,-0.135
09:03:18.756,0.175,-0.12
09:03:18.760,0.12,-0.135
09:03:18.764,-0.015,-0.145
09:03:18.768,-0.025,-0.14
09:03:18.772,0.025,-0.15
09:03:18.776,0.05,-0.15
09:03:18.780,0.055,-0.14
09:03:18.784,0.08,-0.135
09:03:18.788,0.065,-0.13
09:03:18.792,0.055,-0.115
09:03:18.796,0.05,-0.13
09:03:18.800,0.05,-0.125
09:03:18.804,0.075,-0.1
09:03:18.808,0.095,-0.11
09:03:18.812,0.14,-0.11
09:03:18.816,0.235,-0.11
09:03:18.820,0.29,-0.115
09:03:18.824,0.125,-0.12
09:03:18.828,-0.04,-0.125
09:03:18.832,-0.065,-0.095
09:03:18.836,0.015,-0.09
09:03:18.840,0.07,-0.09
09:03:18.844,0.11,-0.115
09:03:18.848,0.115,-0.15
09:03:18.852,0.095,-0.155
09:03:18.856,0.085,-0.14
09:03:18.860,0.05,-0.12
09:03:18.864,0.06,-0.085
09:03:18.868,0.075,-0.05
09:03:18.872,0.085,-0.01
09:03:18.876,0.095,0.025
09:03:18.880,0.085,0.04
09:03:18.884,0.1,0.06
09:03:18.888,0.09,0.055
09:03:18.892,0.085,0.055
09:03:18.896,0.08,0.015
09:03:18.900,0.13,-0.005
09:03:18.904,0.19,-0.05
09:03:18.908,0.23,-0.08
09:03:18.912,0.255,-0.13
09:03:18.916,0.26,-0.22
09:03:18.920,0.27,-0.305
09:03:18.924,0.29,-0.34
09:03:18.928,0.295,-0.38
09:03:18.932,0.36,-0.43
09:03:18.936,0.445,-0.475
09:03:18.940,0.55,-0.51
09:03:18.944,0.67,-0.52
09:03:18.948,0.72,-0.52
09:03:18.952,0.745,-0.515
09:03:18.956,0.815,-0.5
09:03:18.960,0.935,-0.495
09:03:18.964,1.105,-0.44
09:03:18.968,1.1,-0.38
09:03:18.972,1.02,-0.29
09:03:18.976,0.915,-0.225
09:03:18.980,0.775,-0.16
09:03:18.984,0.53,-0.11
09:03:18.988,0.275,-0.09
09:03:18.992,0.06,-0.06
09:03:18.996,-0.11,-0.045
09:03:19.000,-0.145,-0.02
09:03:19.004,-0.085,-0.015
09:03:19.008,-0.1,-0.035
09:03:19.012,-0.08,-0.075
09:03:19.016,0.0,-0.095
09:03:19.020,0.05,-0.07
09:03:19.024,0.025,-0.045
09:03:19.028,-0.035,-0.07
09:03:19.032,-0.14,-0.09
09:03:19.036,-0.14,-0.09
09:03:19.040,0.0,-0.08
09:03:19.044,-0.025,-0.065
09:03:19.048,-0.145,-0.06
09:03:19.052,-0.175,-0.06
09:03:19.056,-0.125,-0.065
09:03:19.060,-0.07,-0.045
09:03:19.064,-0.11,-0.04
09:03:19.068,-0.185,-0.04
09:03:19.072,-0.225,-0.04
09:03:19.076,-0.215,-0.01
09:03:19.080,-0.195,-0.015
09:03:19.084,-0.18,-0.015
09:03:19.088,-0.195,-0.015
09:03:19.092,-0.19,-0.015
09:03:19.096,-0.195,-0.005
09:03:19.100,-0.235,-0.005
09:03:19.104,-0.235,-0.005
09:03:19.108,-0.215,0.0
09:03:19.112,-0.2,0.005
09:03:19.116,-0.28,0.03
09:03:19.120,-0.285,0.045
09:03:19.124,-0.29,0.055
09:03:19.128,-0.3,0.04
09:03:19.132,-0.305,0.035
09:03:19.136,-0.305,0.025
09:03:19.140,-0.31,0.03
09:03:19.144,-0.33,0.025
09:03:19.148,-0.315,0.04
09:03:19.152,-0.32,0.04
09:03:19.156,-0.315,0.04
09:03:19.160,-0.3,0.04
09:03:19.164,-0.3,0.03
09:03:19.168,-0.3,0.015
09:03:19.172,-0.305,0.01
09:03:19.176,-0.29,-0.005
09:03:19.180,-0.215,-0.01
09:03:19.184,-0.095,-0.005
