Time,ECG1,ECG2
13:54:45.536,-0.075,0.055
13:54:45.540,-0.085,0.05
13:54:45.544,-0.1,0.04
13:54:45.548,-0.1,0.05
13:54:45.552,-0.09,0.05
13:54:45.556,-0.09,0.04
13:54:45.560,-0.115,0.04
13:54:45.564,-0.11,0.045
13:54:45.568,-0.1,0.04
13:54:45.572,-0.08,0.035
13:54:45.576,-0.115,0.05
13:54:45.580,-0.11,0.035
13:54:45.584,-0.105,0.05
13:54:45.588,-0.11,0.045
13:54:45.592,-0.105,0.04
13:54:45.596,-0.115,0.05
13:54:45.600,-0.125,0.04
13:54:45.604,-0.115,0.045
13:54:45.608,-0.12,0.035
13:54:45.612,-0.105,0.035
13:54:45.616,-0.105,0.02
13:54:45.620,-0.11,0.035
13:54:45.624,-0.105,0.03
13:54:45.628,-0.105,0.03
13:54:45.632,-0.095,0.025
13:54:45.636,-0.095,0.02
13:54:45.640,-0.1,0.035
13:54:45.644,-0.11,0.04
13:54:45.648,-0.095,0.035
13:54:45.652,-0.095,0.04
13:54:45.656,-0.105,0.035
13:54:45.660,-0.12,0.025
13:54:45.664,-0.11,0.03
13:54:45.668,-0.125,0.025
13:54:45.672,-0.11,0.035
13:54:45.676,-0.11,0.015
13:54:45.680,-0.115,0.025
13:54:45.684,-0.115,0.02
13:54:45.688,-0.11,0.005
13:54:45.692,-0.115,0.015
13:54:45.696,-0.105,0.005
13:54:45.700,-0.105,0.025
13:54:45.704,-0.095,0.025
13:54:45.708,-0.11,0.02
13:54:45.712,-0.1,0.02
13:54:45.716,-0.1,0.03
13:54:45.720,-0.09,0.03
13:54:45.724,-0.095,0.035
13:54:45.728,-0.09,0.03
13:54:45.732,-0.1,0.035
13:54:45.736,-0.09,0.0
13:54:45.740,-0.095,0.02
13:54:45.744,-0.07,0.02
13:54:45.748,-0.07,0.015
13:54:45.752,-0.06,0.025
13:54:45.756,-0.075,0.025
13:54:45.760,-0.035,0.03
13:54:45.764,-0.035,0.01
13:54:45.768,-0.02,0.005
13:54:45.772,-0.05,0.01
13:54:45.776,-0.03,0.025
13:54:45.780,-0.035,0.03
13:54:45.784,-0.04,0.045
13:54:45.788,-0.05,0.04
13:54:45.792,-0.055,0.045
13:54:45.796,-0.05,0.035
13:54:45.800,-0.06,0.035
13:54:45.804,-0.065,0.04
13:54:45.808,-0.075,0.035
13:54:45.812,-0.09,0.035
13:54:45.816,-0.09,0.04
13:54:45.820,-0.1,0.05
13:54:45.824,-0.09,0.045
13:54:45.828,-0.105,0.045
13:54:45.832,-0.09,0.045
13:54:45.836,-0.105,0.04
13:54:45.840,-0.1,0.035
13:54:45.844,-0.1,0.04
13:54:45.848,-0.09,0.02
13:54:45.852,-0.115,0.02
13:54:45.856,-0.115,0.03
13:54:45.860,-0.12,0.03
13:54:45.864,-0.105,0.025
13:54:45.868,-0.105,0.03
13:54:45.872,-0.125,0.03
13:54:45.876,-0.135,0.02
13:54:45.880,-0.13,0.025
13:54:45.884,-0.125,0.015
13:54:45.888,-0.11,0.01
13:54:45.892,-0.12,0.015
13:54:45.896,-0.115,0.015
13:54:45.900,-0.125,0.015
13:54:45.904,-0.095,0.02
13:54:45.908,-0.1,0.015
13:54:45.912,-0.095,0.02
13:54:45.916,-0.115,0.015
13:54:45.920,-0.11,0.015
13:54:45.924,-0.125,0.015
13:54:45.928,-0.09,0.01
13:54:45.932,-0.115,0.01
13:54:45.936,-0.115,0.025
13:54:45.940,-0.125,0.005
13:54:45.944,-0.115,0.015
13:54:45.948,-0.11,0.0
13:54:45.952,-0.11,0.015
13:54:45.956,-0.1,0.0
13:54:45.960,-0.11,0.01
13:54:45.964,-0.11,-0.005
13:54:45.968,-0.105,0.0
13:54:45.972,-0.105,-0.01
13:54:45.976,-0.1,0.0
13:54:45.980,-0.095,0.0
13:54:45.984,-0.1,0.015
13:54:45.988,-0.08,0.015
13:54:45.992,-0.08,0.005
13:54:45.996,-0.075,0.0
13:54:46.000,-0.075,-0.005
13:54:46.004,-0.08,0.0
13:54:46.008,-0.065,0.0
13:54:46.012,-0.06,0.015
13:54:46.016,-0.06,0.005
13:54:46.020,-0.08,0.03
13:54:46.024,-0.065,0.015
13:54:46.028,-0.075,0.02
13:54:46.032,-0.06,0.01
13:54:46.036,-0.04,0.0
13:54:46.040,-0.035,0.005
13:54:46.044,-0.035,0.0
13:54:46.048,-0.04,0.0
13:54:46.052,-0.02,0.0
13:54:46.056,-0.02,0.01
13:54:46.060,-0.03,0.005
13:54:46.064,-0.03,0.01
13:54:46.068,-0.02,0.02
13:54:46.072,-0.055,0.015
13:54:46.076,-0.045,0.015
13:54:46.080,-0.065,0.025
13:54:46.084,-0.075,0.025
13:54:46.088,-0.08,0.04
13:54:46.092,-0.095,0.035
13:54:46.096,-0.1,0.03
13:54:46.100,-0.105,0.025
13:54:46.104,-0.095,0.025
13:54:46.108,-0.1,0.035
13:54:46.112,-0.1,0.02
13:54:46.116,-0.095,0.02
13:54:46.120,-0.1,0.005
13:54:46.124,-0.105,0.03
13:54:46.128,-0.11,0.01
13:54:46.132,-0.115,0.015
13:54:46.136,-0.105,0.02
13:54:46.140,-0.12,0.02
13:54:46.144,-0.115,0.035
13:54:46.148,-0.13,0.03
13:54:46.152,-0.115,0.015
13:54:46.156,-0.11,0.025
13:54:46.160,-0.1,0.005
13:54:46.164,-0.1,0.015
13:54:46.168,-0.12,0.015
13:54:46.172,-0.13,0.0
13:54:46.176,-0.115,0.01
13:54:46.180,-0.11,0.01
13:54:46.184,-0.11,0.015
13:54:46.188,-0.115,0.0
13:54:46.192,-0.03,0.02
13:54:46.196,0.135,0.035
13:54:46.200,0.375,0.035
13:54:46.204,0.64,0.035
13:54:46.208,0.9,-0.005
13:54:46.212,1.125,-0.03
13:54:46.216,1.2,-0.1
13:54:46.220,1.03,-0.175
13:54:46.224,0.645,-0.28
13:54:46.228,0.115,-0.375
13:54:46.232,-0.335,-0.445
13:54:46.236,-0.555,-0.49
13:54:46.240,-0.595,-0.475
13:54:46.244,-0.565,-0.39
13:54:46.248,-0.46,-0.29
13:54:46.252,-0.34,-0.185
13:54:46.256,-0.25,-0.07
13:54:46.260,-0.19,0.0
13:54:46.264,-0.155,0.035
13:54:46.268,-0.145,0.075
13:54:46.272,-0.18,0.07
13:54:46.276,-0.18,0.09
13:54:46.280,-0.17,0.08
13:54:46.284,-0.17,0.065
13:54:46.288,-0.175,0.075
13:54:46.292,-0.17,0.05
13:54:46.296,-0.16,0.04
13:54:46.300,-0.16,0.04
13:54:46.304,-0.14,0.04
13:54:46.308,-0.135,0.035
13:54:46.312,-0.135,0.045
13:54:46.316,-0.14,0.035
13:54:46.320,-0.13,0.03
13:54:46.324,-0.125,0.03
13:54:46.328,-0.13,0.04
13:54:46.332,-0.13,0.04
13:54:46.336,-0.135,0.04
13:54:46.340,-0.14,0.035
13:54:46.344,-0.14,0.055
13:54:46.348,-0.16,0.04
13:54:46.352,-0.155,0.05
13:54:46.356,-0.175,0.065
13:54:46.360,-0.18,0.065
13:54:46.364,-0.2,0.06
13:54:46.368,-0.21,0.06
13:54:46.372,-0.225,0.08
13:54:46.376,-0.225,0.07
13:54:46.380,-0.235,0.045
13:54:46.384,-0.22,0.065
13:54:46.388,-0.22,0.055
13:54:46.392,-0.23,0.05
13:54:46.396,-0.23,0.045
13:54:46.400,-0.25,0.06
13:54:46.404,-0.255,0.055
13:54:46.408,-0.26,0.07
13:54:46.412,-0.26,0.06
13:54:46.416,-0.265,0.07
13:54:46.420,-0.27,0.08
13:54:46.424,-0.285,0.07
13:54:46.428,-0.28,0.065
13:54:46.432,-0.265,0.055
13:54:46.436,-0.26,0.065
13:54:46.440,-0.26,0.055
13:54:46.444,-0.26,0.045
13:54:46.448,-0.25,0.06
13:54:46.452,-0.235,0.055
13:54:46.456,-0.225,0.05
13:54:46.460,-0.22,0.05
13:54:46.464,-0.21,0.03
13:54:46.468,-0.21,0.045
13:54:46.472,-0.19,0.04
13:54:46.476,-0.18,0.035
13:54:46.480,-0.16,0.04
13:54:46.484,-0.14,0.03
13:54:46.488,-0.14,0.015
13:54:46.492,-0.125,0.02
13:54:46.496,-0.1,0.02
13:54:46.500,-0.08,0.02
13:54:46.504,-0.06,0.005
13:54:46.508,-0.055,0.01
13:54:46.512,-0.03,-0.005
13:54:46.516,0.0,0.0
13:54:46.520,-0.005,0.01
13:54:46.524,-0.005,0.015
13:54:46.528,-0.01,-0.01
13:54:46.532,0.015,-0.02
13:54:46.536,0.005,0.005
13:54:46.540,0.02,0.02
13:54:46.544,0.02,0.025
13:54:46.548,0.03,0.02
13:54:46.552,0.015,0.015
13:54:46.556,0.015,0.025
13:54:46.560,0.0,0.005
13:54:46.564,0.01,0.015
13:54:46.568,0.005,0.03
13:54:46.572,0.01,0.025
13:54:46.576,0.005,0.015
13:54:46.580,0.015,0.03
13:54:46.584,0.025,0.02
13:54:46.588,0.02,0.03
13:54:46.592,0.03,0.035
13:54:46.596,0.05,0.03
13:54:46.600,0.045,0.04
13:54:46.604,0.05,0.035
13:54:46.608,0.045,0.035
13:54:46.612,0.045,0.04
13:54:46.616,0.04,0.055
13:54:46.620,0.035,0.05
13:54:46.624,0.015,0.04
13:54:46.628,0.01,0.055
13:54:46.632,-0.015,0.05
13:54:46.636,-0.015,0.06
13:54:46.640,-0.035,0.08
13:54:46.644,-0.025,0.06
13:54:46.648,-0.04,0.07
13:54:46.652,-0.025,0.065
13:54:46.656,-0.045,0.07
13:54:46.660,-0.035,0.07
13:54:46.664,-0.03,0.05
13:54:46.668,-0.025,0.05
13:54:46.672,-0.045,0.05
13:54:46.676,-0.04,0.055
13:54:46.680,-0.045,0.055
13:54:46.684,-0.04,0.06
13:54:46.688,-0.05,0.045
13:54:46.692,-0.055,0.055
13:54:46.696,-0.065,0.07
13:54:46.700,-0.065,0.075
13:54:46.704,-0.06,0.075
13:54:46.708,-0.08,0.06
13:54:46.712,-0.08,0.045
13:54:46.716,-0.085,0.055
13:54:46.720,-0.075,0.05
13:54:46.724,-0.08,0.03
13:54:46.728,-0.075,0.045
13:54:46.732,-0.07,0.04
13:54:46.736,-0.09,0.05
13:54:46.740,-0.08,0.045
13:54:46.744,-0.07,0.04
13:54:46.748,-0.06,0.045
13:54:46.752,-0.065,0.04
13:54:46.756,-0.095,0.045
13:54:46.760,-0.105,0.045
13:54:46.764,-0.075,0.05
13:54:46.768,0.025,0.05
13:54:46.772,0.23,0.06
13:54:46.776,0.47,0.05
13:54:46.780,0.705,0.01
13:54:46.784,0.91,-0.03
13:54:46.788,1.055,-0.09
13:54:46.792,0.99,-0.17
13:54:46.796,0.655,-0.275
13:54:46.800,0.135,-0.385
13:54:46.804,-0.41,-0.47
13:54:46.808,-0.705,-0.535
13:54:46.812,-0.705,-0.51
13:54:46.816,-0.575,-0.435
13:54:46.820,-0.415,-0.345
13:54:46.824,-0.255,-0.22
13:54:46.828,-0.15,-0.105
13:54:46.832,-0.11,0.0
13:54:46.836,-0.125,0.075
13:54:46.840,-0.115,0.115
13:54:46.844,-0.125,0.11
13:54:46.848,-0.11,0.11
13:54:46.852,-0.12,0.09
13:54:46.856,-0.115,0.09
13:54:46.860,-0.1,0.07
13:54:46.864,-0.11,0.065
13:54:46.868,-0.105,0.06
13:54:46.872,-0.09,0.07
13:54:46.876,-0.09,0.055
13:54:46.880,-0.07,0.06
13:54:46.884,-0.07,0.055
13:54:46.888,-0.065,0.06
13:54:46.892,-0.06,0.055
13:54:46.896,-0.055,0.055
13:54:46.900,-0.05,0.055
13:54:46.904,-0.065,0.075
13:54:46.908,-0.08,0.055
13:54:46.912,-0.09,0.075
13:54:46.916,-0.09,0.09
13:54:46.920,-0.1,0.07
13:54:46.924,-0.1,0.075
13:54:46.928,-0.13,0.09
13:54:46.932,-0.14,0.095
13:54:46.936,-0.135,0.095
13:54:46.940,-0.135,0.095
13:54:46.944,-0.15,0.085
13:54:46.948,-0.17,0.11
13:54:46.952,-0.185,0.095
13:54:46.956,-0.175,0.095
13:54:46.960,-0.16,0.095
13:54:46.964,-0.18,0.095
13:54:46.968,-0.19,0.085
13:54:46.972,-0.2,0.1
13:54:46.976,-0.19,0.125
13:54:46.980,-0.195,0.12
13:54:46.984,-0.2,0.1
13:54:46.988,-0.21,0.11
13:54:46.992,-0.21,0.125
13:54:46.996,-0.22,0.105
13:54:47.000,-0.215,0.115
13:54:47.004,-0.195,0.105
13:54:47.008,-0.2,0.095
13:54:47.012,-0.2,0.09
13:54:47.016,-0.195,0.09
13:54:47.020,-0.185,0.085
13:54:47.024,-0.17,0.08
13:54:47.028,-0.15,0.09
13:54:47.032,-0.145,0.1
13:54:47.036,-0.155,0.08
13:54:47.040,-0.12,0.07
13:54:47.044,-0.1,0.07
13:54:47.048,-0.085,0.055
13:54:47.052,-0.085,0.05
13:54:47.056,-0.055,0.06
13:54:47.060,-0.05,0.06
13:54:47.064,-0.04,0.04
13:54:47.068,-0.035,0.045
13:54:47.072,-0.02,0.045
13:54:47.076,-0.02,0.035
13:54:47.080,-0.005,0.025
13:54:47.084,-0.01,0.025
13:54:47.088,-0.025,0.02
13:54:47.092,-0.015,0.02
13:54:47.096,-0.03,0.02
13:54:47.100,-0.015,0.015
13:54:47.104,-0.025,0.02
13:54:47.108,-0.035,0.02
13:54:47.112,-0.04,0.02
13:54:47.116,-0.04,0.015
13:54:47.120,-0.045,0.02
13:54:47.124,-0.04,0.02
13:54:47.128,-0.04,0.015
13:54:47.132,-0.055,0.005
13:54:47.136,-0.04,0.005
13:54:47.140,-0.05,0.01
13:54:47.144,-0.04,0.0
13:54:47.148,-0.03,0.0
13:54:47.152,-0.02,0.005
13:54:47.156,-0.03,0.015
13:54:47.160,-0.02,0.0
13:54:47.164,-0.015,0.005
13:54:47.168,0.0,-0.005
13:54:47.172,0.01,0.015
13:54:47.176,0.005,0.01
13:54:47.180,0.0,0.01
13:54:47.184,-0.005,0.02
13:54:47.188,-0.015,0.01
13:54:47.192,0.005,0.035
13:54:47.196,0.0,0.035
13:54:47.200,-0.035,0.035
13:54:47.204,-0.05,0.025
13:54:47.208,-0.07,0.04
13:54:47.212,-0.055,0.03
13:54:47.216,-0.07,0.035
13:54:47.220,-0.075,0.05
13:54:47.224,-0.09,0.05
13:54:47.228,-0.105,0.05
13:54:47.232,-0.095,0.035
13:54:47.236,-0.1,0.035
13:54:47.240,-0.085,0.025
13:54:47.244,-0.1,0.025
13:54:47.248,-0.095,0.025
13:54:47.252,-0.09,0.02
13:54:47.256,-0.11,0.04
13:54:47.260,-0.11,0.035
13:54:47.264,-0.095,0.03
13:54:47.268,-0.115,0.03
13:54:47.272,-0.125,0.03
13:54:47.276,-0.13,0.035
13:54:47.280,-0.135,0.02
13:54:47.284,-0.18,0.02
13:54:47.288,-0.17,0.03
13:54:47.292,-0.13,0.045
13:54:47.296,0.015,0.065
13:54:47.300,0.225,0.05
13:54:47.304,0.48,0.03
13:54:47.308,0.675,-0.005
13:54:47.312,0.86,-0.055
13:54:47.316,0.9,-0.1
13:54:47.320,0.75,-0.17
13:54:47.324,0.365,-0.275
13:54:47.328,-0.145,-0.355
13:54:47.332,-0.57,-0.445
13:54:47.336,-0.735,-0.51
13:54:47.340,-0.725,-0.475
13:54:47.344,-0.605,-0.405
13:54:47.348,-0.45,-0.295
13:54:47.352,-0.33,-0.175
13:54:47.356,-0.245,-0.065
13:54:47.360,-0.2,0.01
13:54:47.364,-0.18,0.065
13:54:47.368,-0.185,0.095
13:54:47.372,-0.175,0.095
13:54:47.376,-0.18,0.085
13:54:47.380,-0.19,0.07
13:54:47.384,-0.185,0.07
13:54:47.388,-0.175,0.07
13:54:47.392,-0.165,0.065
13:54:47.396,-0.195,0.05
13:54:47.400,-0.175,0.05
13:54:47.404,-0.18,0.045
13:54:47.408,-0.175,0.05
13:54:47.412,-0.18,0.05
13:54:47.416,-0.17,0.055
13:54:47.420,-0.18,0.06
13:54:47.424,-0.165,0.035
13:54:47.428,-0.17,0.05
13:54:47.432,-0.17,0.055
13:54:47.436,-0.16,0.07
13:54:47.440,-0.16,0.06
13:54:47.444,-0.13,0.05
13:54:47.448,-0.14,0.04
13:54:47.452,-0.145,0.055
13:54:47.456,-0.13,0.07
13:54:47.460,-0.13,0.08
13:54:47.464,-0.14,0.08
13:54:47.468,-0.14,0.085
13:54:47.472,-0.145,0.08
13:54:47.476,-0.14,0.075
13:54:47.480,-0.18,0.08
13:54:47.484,-0.185,0.08
13:54:47.488,-0.19,0.09
13:54:47.492,-0.205,0.08
13:54:47.496,-0.215,0.1
13:54:47.500,-0.24,0.095
13:54:47.504,-0.245,0.09
13:54:47.508,-0.25,0.1
13:54:47.512,-0.225,0.1
13:54:47.516,-0.225,0.085
13:54:47.520,-0.24,0.09
13:54:47.524,-0.225,0.095
13:54:47.528,-0.23,0.085
13:54:47.532,-0.225,0.09
13:54:47.536,-0.23,0.105
13:54:47.540,-0.23,0.085
13:54:47.544,-0.22,0.095
13:54:47.548,-0.21,0.09
13:54:47.552,-0.195,0.075
13:54:47.556,-0.185,0.085
13:54:47.560,-0.185,0.07
13:54:47.564,-0.17,0.065
13:54:47.568,-0.14,0.055
13:54:47.572,-0.115,0.065
13:54:47.576,-0.09,0.04
13:54:47.580,-0.075,0.05
13:54:47.584,-0.075,0.035
13:54:47.588,-0.045,0.035
13:54:47.592,-0.04,0.04
13:54:47.596,-0.03,0.045
13:54:47.600,-0.035,0.035
13:54:47.604,-0.035,0.035
13:54:47.608,-0.03,0.025
13:54:47.612,-0.03,0.025
13:54:47.616,-0.025,0.03
13:54:47.620,-0.045,0.04
13:54:47.624,-0.04,0.03
13:54:47.628,-0.04,0.03
13:54:47.632,-0.04,0.04
13:54:47.636,-0.055,0.045
13:54:47.640,-0.06,0.025
13:54:47.644,-0.05,0.03
13:54:47.648,-0.055,0.02
13:54:47.652,-0.06,0.02
13:54:47.656,-0.06,0.01
13:54:47.660,-0.065,0.025
13:54:47.664,-0.055,0.03
13:54:47.668,-0.05,0.04
13:54:47.672,-0.04,0.02
13:54:47.676,-0.04,0.03
13:54:47.680,-0.025,0.035
13:54:47.684,-0.04,0.035
13:54:47.688,-0.04,0.04
13:54:47.692,-0.045,0.045
13:54:47.696,-0.03,0.045
13:54:47.700,-0.055,0.05
13:54:47.704,-0.05,0.04
13:54:47.708,-0.04,0.06
13:54:47.712,-0.05,0.04
13:54:47.716,-0.04,0.055
13:54:47.720,-0.035,0.04
13:54:47.724,-0.015,0.04
13:54:47.728,-0.015,0.045
13:54:47.732,-0.02,0.04
13:54:47.736,-0.005,0.04
13:54:47.740,0.0,0.05
13:54:47.744,-0.005,0.05
13:54:47.748,-0.02,0.055
13:54:47.752,-0.015,0.05
13:54:47.756,-0.025,0.055
13:54:47.760,-0.03,0.07
13:54:47.764,-0.04,0.06
13:54:47.768,-0.065,0.055
13:54:47.772,-0.06,0.04
13:54:47.776,-0.075,0.065
13:54:47.780,-0.065,0.05
13:54:47.784,-0.075,0.05
13:54:47.788,-0.08,0.055
13:54:47.792,-0.09,0.05
13:54:47.796,-0.085,0.045
13:54:47.800,-0.115,0.045
13:54:47.804,-0.11,0.055
13:54:47.808,-0.09,0.035
13:54:47.812,-0.105,0.035
13:54:47.816,-0.105,0.03
13:54:47.820,-0.13,0.025
13:54:47.824,-0.125,0.04
13:54:47.828,-0.115,0.04
13:54:47.832,-0.125,0.045
13:54:47.836,-0.13,0.035
13:54:47.840,-0.13,0.03
13:54:47.844,-0.13,0.025
13:54:47.848,-0.115,0.03
13:54:47.852,-0.135,0.025
13:54:47.856,-0.135,0.025
13:54:47.860,-0.125,0.015
13:54:47.864,-0.13,0.02
13:54:47.868,-0.125,0.015
13:54:47.872,-0.11,0.02
13:54:47.876,-0.13,0.025
13:54:47.880,-0.135,0.035
13:54:47.884,-0.125,0.015
13:54:47.888,-0.13,0.03
13:54:47.892,-0.125,0.025
13:54:47.896,-0.12,0.03
13:54:47.900,-0.14,0.02
13:54:47.904,-0.15,0.035
13:54:47.908,-0.135,0.025
13:54:47.912,-0.135,0.02
13:54:47.916,-0.12,0.03
13:54:47.920,-0.12,0.01
13:54:47.924,-0.125,0.01
13:54:47.928,-0.12,0.02
13:54:47.932,-0.12,0.0
13:54:47.936,-0.13,0.015
13:54:47.940,-0.125,0.01
13:54:47.944,-0.125,0.0
13:54:47.948,-0.14,0.0
13:54:47.952,-0.13,0.01
13:54:47.956,-0.125,0.01
13:54:47.960,-0.135,0.0
13:54:47.964,-0.12,0.015
13:54:47.968,-0.125,0.005
13:54:47.972,-0.1,0.01
13:54:47.976,-0.11,0.01
13:54:47.980,-0.09,0.005
13:54:47.984,-0.1,0.015
13:54:47.988,-0.09,0.0
13:54:47.992,-0.07,0.015
13:54:47.996,-0.06,0.02
13:54:48.000,-0.06,0.025
13:54:48.004,-0.065,0.005
13:54:48.008,-0.055,0.02
13:54:48.012,-0.045,0.0
13:54:48.016,-0.025,0.0
13:54:48.020,-0.04,0.02
13:54:48.024,-0.035,0.02
13:54:48.028,-0.04,0.03
13:54:48.032,-0.03,0.035
13:54:48.036,-0.035,0.02
13:54:48.040,-0.05,0.01
13:54:48.044,-0.075,0.01
13:54:48.048,-0.085,0.02
13:54:48.052,-0.1,0.03
13:54:48.056,-0.105,0.03
13:54:48.060,-0.095,0.04
13:54:48.064,-0.08,0.035
13:54:48.068,-0.11,0.025
13:54:48.072,-0.115,0.025
13:54:48.076,-0.125,0.03
13:54:48.080,-0.1,0.025
13:54:48.084,-0.115,0.035
13:54:48.088,-0.12,0.015
13:54:48.092,-0.11,0.02
13:54:48.096,-0.13,0.015
13:54:48.100,-0.13,0.025
13:54:48.104,-0.13,0.02
13:54:48.108,-0.12,0.02
13:54:48.112,-0.135,0.025
13:54:48.116,-0.13,0.015
13:54:48.120,-0.135,0.0
13:54:48.124,-0.13,0.0
13:54:48.128,-0.14,0.01
13:54:48.132,-0.14,0.005
13:54:48.136,-0.14,0.015
13:54:48.140,-0.135,0.005
13:54:48.144,-0.13,0.01
13:54:48.148,-0.125,0.01
13:54:48.152,-0.135,0.01
13:54:48.156,-0.13,0.015
13:54:48.160,-0.13,0.02
13:54:48.164,-0.13,0.01
13:54:48.168,-0.135,0.015
13:54:48.172,-0.135,0.02
13:54:48.176,-0.12,0.02
13:54:48.180,-0.125,0.01
13:54:48.184,-0.12,0.01
13:54:48.188,-0.115,0.02
13:54:48.192,-0.14,0.005
13:54:48.196,-0.12,-0.005
13:54:48.200,-0.135,-0.005
13:54:48.204,-0.13,-0.02
13:54:48.208,-0.135,0.0
13:54:48.212,-0.125,0.005
13:54:48.216,-0.14,0.01
13:54:48.220,-0.115,0.005
13:54:48.224,-0.12,0.005
13:54:48.228,-0.125,0.005
13:54:48.232,-0.12,0.01
13:54:48.236,-0.105,0.0
13:54:48.240,-0.105,-0.01
13:54:48.244,-0.085,0.0
13:54:48.248,-0.095,0.0
13:54:48.252,-0.09,0.0
13:54:48.256,-0.095,0.015
13:54:48.260,-0.105,0.025
13:54:48.264,-0.09,0.015
13:54:48.268,-0.085,0.005
13:54:48.272,-0.075,0.01
13:54:48.276,-0.08,0.005
13:54:48.280,-0.07,0.01
13:54:48.284,-0.065,0.0
13:54:48.288,-0.055,0.005
13:54:48.292,-0.055,0.005
13:54:48.296,-0.05,0.015
13:54:48.300,-0.055,0.02
13:54:48.304,-0.06,0.005
13:54:48.308,-0.055,0.02
13:54:48.312,-0.045,0.035
13:54:48.316,-0.05,0.035
13:54:48.320,-0.07,0.035
13:54:48.324,-0.085,0.025
13:54:48.328,-0.1,0.025
13:54:48.332,-0.115,0.04
13:54:48.336,-0.105,0.035
13:54:48.340,-0.11,0.02
13:54:48.344,-0.12,0.035
13:54:48.348,-0.13,0.035
13:54:48.352,-0.13,0.03
13:54:48.356,-0.125,0.025
13:54:48.360,-0.125,0.035
13:54:48.364,-0.11,0.04
13:54:48.368,-0.14,0.04
13:54:48.372,-0.135,0.025
13:54:48.376,-0.15,0.025
13:54:48.380,-0.12,0.03
13:54:48.384,-0.115,0.025
13:54:48.388,-0.135,0.025
13:54:48.392,-0.145,0.025
13:54:48.396,-0.13,0.035
13:54:48.400,-0.13,0.03
13:54:48.404,-0.125,0.04
13:54:48.408,-0.13,0.025
13:54:48.412,-0.13,0.02
13:54:48.416,-0.13,0.025
13:54:48.420,-0.125,0.015
13:54:48.424,-0.12,0.025
13:54:48.428,-0.125,0.04
13:54:48.432,-0.125,0.04
13:54:48.436,-0.125,0.035
13:54:48.440,-0.12,0.035
13:54:48.444,-0.115,0.03
13:54:48.448,-0.125,0.025
13:54:48.452,-0.095,0.025
13:54:48.456,0.025,0.055
13:54:48.460,0.2,0.07
13:54:48.464,0.465,0.07
13:54:48.468,0.71,0.035
13:54:48.472,0.93,-0.005
13:54:48.476,1.11,-0.055
13:54:48.480,1.105,-0.11
13:54:48.484,0.825,-0.215
13:54:48.488,0.375,-0.3
13:54:48.492,-0.12,-0.38
13:54:48.496,-0.475,-0.435
13:54:48.500,-0.59,-0.465
13:54:48.504,-0.6,-0.415
13:54:48.508,-0.52,-0.32
13:54:48.512,-0.4,-0.21
13:54:48.516,-0.295,-0.115
13:54:48.520,-0.22,-0.01
13:54:48.524,-0.175,0.045
13:54:48.528,-0.165,0.07
13:54:48.532,-0.165,0.09
13:54:48.536,-0.18,0.1
13:54:48.540,-0.165,0.095
13:54:48.544,-0.16,0.105
13:54:48.548,-0.15,0.075
13:54:48.552,-0.155,0.07
13:54:48.556,-0.15,0.065
13:54:48.560,-0.14,0.06
13:54:48.564,-0.14,0.05
13:54:48.568,-0.12,0.06
13:54:48.572,-0.14,0.06
13:54:48.576,-0.145,0.075
13:54:48.580,-0.145,0.08
13:54:48.584,-0.14,0.075
13:54:48.588,-0.155,0.075
13:54:48.592,-0.16,0.075
13:54:48.596,-0.175,0.085
13:54:48.600,-0.19,0.08
13:54:48.604,-0.22,0.085
13:54:48.608,-0.215,0.09
13:54:48.612,-0.225,0.095
13:54:48.616,-0.23,0.09
13:54:48.620,-0.245,0.1
13:54:48.624,-0.245,0.095
13:54:48.628,-0.265,0.08
13:54:48.632,-0.24,0.08
13:54:48.636,-0.25,0.085
13:54:48.640,-0.26,0.095
13:54:48.644,-0.275,0.085
13:54:48.648,-0.26,0.105
13:54:48.652,-0.26,0.1
13:54:48.656,-0.275,0.085
13:54:48.660,-0.28,0.1
13:54:48.664,-0.285,0.1
13:54:48.668,-0.295,0.105
13:54:48.672,-0.3,0.105
13:54:48.676,-0.29,0.1
13:54:48.680,-0.285,0.105
13:54:48.684,-0.29,0.105
13:54:48.688,-0.285,0.1
13:54:48.692,-0.27,0.11
13:54:48.696,-0.285,0.095
13:54:48.700,-0.27,0.1
13:54:48.704,-0.26,0.11
13:54:48.708,-0.255,0.095
13:54:48.712,-0.26,0.095
13:54:48.716,-0.24,0.1
13:54:48.720,-0.235,0.095
13:54:48.724,-0.225,0.105
13:54:48.728,-0.21,0.085
13:54:48.732,-0.205,0.095
13:54:48.736,-0.2,0.1
13:54:48.740,-0.17,0.09
13:54:48.744,-0.17,0.08
13:54:48.748,-0.16,0.075
13:54:48.752,-0.145,0.065
13:54:48.756,-0.12,0.055
13:54:48.760,-0.09,0.055
13:54:48.764,-0.08,0.06
13:54:48.768,-0.075,0.05
13:54:48.772,-0.06,0.05
13:54:48.776,-0.035,0.04
13:54:48.780,-0.01,0.05
13:54:48.784,-0.005,0.055
13:54:48.788,0.0,0.055
13:54:48.792,0.005,0.055
13:54:48.796,0.015,0.07
13:54:48.800,0.04,0.065
13:54:48.804,0.035,0.06
13:54:48.808,0.03,0.055
13:54:48.812,0.03,0.055
13:54:48.816,0.04,0.055
13:54:48.820,0.04,0.06
13:54:48.824,0.07,0.06
13:54:48.828,0.065,0.055
13:54:48.832,0.065,0.06
13:54:48.836,0.06,0.055
13:54:48.840,0.065,0.07
13:54:48.844,0.06,0.065
13:54:48.848,0.065,0.075
13:54:48.852,0.06,0.06
13:54:48.856,0.045,0.055
13:54:48.860,0.04,0.07
13:54:48.864,0.04,0.09
13:54:48.868,0.02,0.08
13:54:48.872,0.0,0.08
13:54:48.876,-0.015,0.09
13:54:48.880,-0.04,0.075
13:54:48.884,-0.045,0.09
13:54:48.888,-0.05,0.105
13:54:48.892,-0.04,0.085
13:54:48.896,-0.055,0.08
13:54:48.900,-0.05,0.08
13:54:48.904,-0.06,0.09
13:54:48.908,-0.06,0.08
13:54:48.912,-0.065,0.085
13:54:48.916,-0.065,0.08
13:54:48.920,-0.08,0.095
13:54:48.924,-0.085,0.09
13:54:48.928,-0.085,0.1
13:54:48.932,-0.08,0.09
13:54:48.936,-0.08,0.075
13:54:48.940,-0.095,0.085
13:54:48.944,-0.09,0.075
13:54:48.948,-0.08,0.08
13:54:48.952,-0.09,0.085
13:54:48.956,-0.08,0.07
13:54:48.960,-0.09,0.075
13:54:48.964,-0.09,0.065
13:54:48.968,-0.09,0.07
13:54:48.972,-0.09,0.065
13:54:48.976,-0.09,0.07
13:54:48.980,-0.095,0.065
13:54:48.984,-0.085,0.085
13:54:48.988,-0.1,0.085
13:54:48.992,-0.095,0.06
13:54:48.996,-0.095,0.07
13:54:49.000,-0.1,0.065
13:54:49.004,-0.1,0.08
13:54:49.008,-0.115,0.075
13:54:49.012,-0.13,0.07
13:54:49.016,-0.115,0.06
13:54:49.020,-0.12,0.06
13:54:49.024,-0.11,0.07
13:54:49.028,-0.12,0.055
13:54:49.032,-0.125,0.04
13:54:49.036,-0.12,0.04
13:54:49.040,-0.115,0.055
13:54:49.044,-0.115,0.055
13:54:49.048,-0.125,0.055
13:54:49.052,-0.125,0.045
13:54:49.056,-0.115,0.045
13:54:49.060,-0.12,0.045
13:54:49.064,-0.13,0.04
13:54:49.068,-0.11,0.055
13:54:49.072,-0.12,0.04
13:54:49.076,-0.11,0.055
13:54:49.080,-0.115,0.05
13:54:49.084,-0.1,0.065
13:54:49.088,-0.11,0.05
13:54:49.092,-0.105,0.055
13:54:49.096,-0.095,0.06
13:54:49.100,-0.095,0.06
13:54:49.104,-0.095,0.045
13:54:49.108,-0.1,0.05
13:54:49.112,-0.095,0.045
13:54:49.116,-0.08,0.04
13:54:49.120,-0.075,0.035
13:54:49.124,-0.055,0.03
13:54:49.128,-0.065,0.03
13:54:49.132,-0.065,0.04
13:54:49.136,-0.06,0.045
13:54:49.140,-0.07,0.05
13:54:49.144,-0.06,0.06
13:54:49.148,-0.07,0.055
13:54:49.152,-0.095,0.06
13:54:49.156,-0.115,0.065
13:54:49.160,-0.12,0.06
13:54:49.164,-0.135,0.075
13:54:49.168,-0.14,0.06
13:54:49.172,-0.155,0.07
13:54:49.176,-0.165,0.065
13:54:49.180,-0.17,0.06
13:54:49.184,-0.155,0.04
13:54:49.188,-0.155,0.03
13:54:49.192,-0.165,0.05
13:54:49.196,-0.16,0.045
13:54:49.200,-0.165,0.045
13:54:49.204,-0.175,0.05
13:54:49.208,-0.17,0.03
13:54:49.212,-0.185,0.04
13:54:49.216,-0.18,0.035
13:54:49.220,-0.185,0.045
13:54:49.224,-0.175,0.045
13:54:49.228,-0.18,0.04
13:54:49.232,-0.18,0.04
13:54:49.236,-0.185,0.045
13:54:49.240,-0.175,0.035
13:54:49.244,-0.18,0.05
13:54:49.248,-0.17,0.03
13:54:49.252,-0.185,0.045
13:54:49.256,-0.16,0.04
13:54:49.260,-0.16,0.05
13:54:49.264,-0.17,0.045
13:54:49.268,-0.175,0.05
13:54:49.272,-0.175,0.055
13:54:49.276,-0.185,0.055
13:54:49.280,-0.18,0.04
13:54:49.284,-0.17,0.055
13:54:49.288,-0.185,0.05
13:54:49.292,-0.175,0.055
13:54:49.296,-0.16,0.045
13:54:49.300,-0.165,0.045
13:54:49.304,-0.16,0.06
13:54:49.308,-0.16,0.06
13:54:49.312,-0.16,0.045
13:54:49.316,-0.155,0.055
13:54:49.320,-0.16,0.055
13:54:49.324,-0.17,0.045
13:54:49.328,-0.175,0.035
13:54:49.332,-0.175,0.045
13:54:49.336,-0.16,0.035
13:54:49.340,-0.17,0.03
13:54:49.344,-0.19,0.035
13:54:49.348,-0.185,0.03
13:54:49.352,-0.16,0.05
13:54:49.356,-0.165,0.03
13:54:49.360,-0.155,0.03
13:54:49.364,-0.16,0.035
13:54:49.368,-0.155,0.03
13:54:49.372,-0.155,0.035
13:54:49.376,-0.135,0.04
13:54:49.380,-0.125,0.05
13:54:49.384,-0.125,0.045
13:54:49.388,-0.115,0.04
13:54:49.392,-0.11,0.05
13:54:49.396,-0.1,0.04
13:54:49.400,-0.085,0.045
13:54:49.404,-0.095,0.035
13:54:49.408,-0.075,0.05
13:54:49.412,-0.08,0.045
13:54:49.416,-0.1,0.045
13:54:49.420,-0.095,0.04
13:54:49.424,-0.1,0.055
13:54:49.428,-0.105,0.055
13:54:49.432,-0.105,0.06
13:54:49.436,-0.01,0.075
13:54:49.440,0.14,0.1
13:54:49.444,0.355,0.12
13:54:49.448,0.58,0.095
13:54:49.452,0.795,0.055
13:54:49.456,0.935,0.015
13:54:49.460,0.96,-0.04
13:54:49.464,0.725,-0.135
13:54:49.468,0.32,-0.24
13:54:49.472,-0.18,-0.32
13:54:49.476,-0.575,-0.405
13:54:49.480,-0.73,-0.455
13:54:49.484,-0.73,-0.435
13:54:49.488,-0.64,-0.36
13:54:49.492,-0.52,-0.28
13:54:49.496,-0.39,-0.17
13:54:49.500,-0.32,-0.055
13:54:49.504,-0.28,0.02
13:54:49.508,-0.255,0.09
13:54:49.512,-0.265,0.13
13:54:49.516,-0.27,0.15
13:54:49.520,-0.265,0.12
13:54:49.524,-0.255,0.115
13:54:49.528,-0.275,0.1
13:54:49.532,-0.25,0.1
13:54:49.536,-0.26,0.105
13:54:49.540,-0.25,0.1
13:54:49.544,-0.275,0.09
13:54:49.548,-0.27,0.075
13:54:49.552,-0.25,0.075
13:54:49.556,-0.26,0.07
13:54:49.560,-0.26,0.08
13:54:49.564,-0.255,0.08
13:54:49.568,-0.25,0.085
13:54:49.572,-0.24,0.095
13:54:49.576,-0.255,0.08
13:54:49.580,-0.25,0.085
13:54:49.584,-0.235,0.08
13:54:49.588,-0.235,0.08
13:54:49.592,-0.245,0.065
13:54:49.596,-0.26,0.075
13:54:49.600,-0.245,0.075
13:54:49.604,-0.255,0.075
13:54:49.608,-0.25,0.085
13:54:49.612,-0.245,0.085
13:54:49.616,-0.255,0.08
13:54:49.620,-0.25,0.075
13:54:49.624,-0.265,0.085
13:54:49.628,-0.25,0.1
13:54:49.632,-0.25,0.08
13:54:49.636,-0.26,0.08
13:54:49.640,-0.25,0.085
13:54:49.644,-0.255,0.095
13:54:49.648,-0.235,0.11
13:54:49.652,-0.24,0.115
13:54:49.656,-0.215,0.11
13:54:49.660,-0.21,0.1
13:54:49.664,-0.22,0.095
13:54:49.668,-0.225,0.085
13:54:49.672,-0.21,0.09
13:54:49.676,-0.185,0.09
13:54:49.680,-0.19,0.11
13:54:49.684,-0.18,0.105
13:54:49.688,-0.195,0.1
13:54:49.692,-0.19,0.115
13:54:49.696,-0.19,0.105
13:54:49.700,-0.18,0.1
13:54:49.704,-0.175,0.11
13:54:49.708,-0.185,0.1
13:54:49.712,-0.17,0.11
13:54:49.716,-0.18,0.09
13:54:49.720,-0.17,0.085
13:54:49.724,-0.18,0.095
13:54:49.728,-0.17,0.09
13:54:49.732,-0.16,0.085
13:54:49.736,-0.15,0.08
13:54:49.740,-0.14,0.08
13:54:49.744,-0.13,0.075
13:54:49.748,-0.12,0.075
13:54:49.752,-0.1,0.055
13:54:49.756,-0.105,0.06
13:54:49.760,-0.095,0.045
13:54:49.764,-0.1,0.06
13:54:49.768,-0.11,0.055
13:54:49.772,-0.085,0.04
13:54:49.776,-0.1,0.055
13:54:49.780,-0.095,0.045
13:54:49.784,-0.095,0.05
13:54:49.788,-0.105,0.045
13:54:49.792,-0.105,0.05
13:54:49.796,-0.11,0.05
13:54:49.800,-0.11,0.045
13:54:49.804,-0.12,0.04
13:54:49.808,-0.14,0.035
13:54:49.812,-0.15,0.025
13:54:49.816,-0.145,0.035
13:54:49.820,-0.145,0.02
13:54:49.824,-0.14,0.025
13:54:49.828,-0.145,0.035
13:54:49.832,-0.16,0.025
13:54:49.836,-0.15,0.03
13:54:49.840,-0.15,0.03
13:54:49.844,-0.14,0.045
13:54:49.848,-0.165,0.05
13:54:49.852,-0.155,0.05
13:54:49.856,-0.15,0.05
13:54:49.860,-0.14,0.03
13:54:49.864,-0.13,0.035
13:54:49.868,-0.145,0.025
13:54:49.872,-0.15,0.035
13:54:49.876,-0.15,0.025
13:54:49.880,-0.155,0.025
13:54:49.884,-0.15,0.025
13:54:49.888,-0.13,0.04
13:54:49.892,-0.14,0.04
13:54:49.896,-0.15,0.025
13:54:49.900,-0.14,0.03
13:54:49.904,-0.125,0.025
13:54:49.908,-0.115,0.03
13:54:49.912,-0.12,0.03
13:54:49.916,-0.12,0.035
13:54:49.920,-0.14,0.045
13:54:49.924,-0.125,0.045
13:54:49.928,-0.13,0.045
13:54:49.932,-0.115,0.03
13:54:49.936,-0.12,0.045
13:54:49.940,-0.115,0.035
13:54:49.944,-0.105,0.045
13:54:49.948,-0.09,0.035
13:54:49.952,-0.06,0.035
13:54:49.956,-0.07,0.03
13:54:49.960,-0.08,0.03
13:54:49.964,-0.08,0.03
13:54:49.968,-0.075,0.03
13:54:49.972,-0.055,0.035
13:54:49.976,-0.06,0.035
13:54:49.980,-0.075,0.04
13:54:49.984,-0.085,0.035
13:54:49.988,-0.08,0.04
13:54:49.992,-0.105,0.05
13:54:49.996,-0.11,0.04
13:54:50.000,-0.125,0.035
13:54:50.004,-0.14,0.05
13:54:50.008,-0.18,0.055
13:54:50.012,-0.155,0.04
13:54:50.016,-0.17,0.025
13:54:50.020,-0.17,0.03
13:54:50.024,-0.18,0.035
13:54:50.028,-0.175,0.02
13:54:50.032,-0.18,0.035
13:54:50.036,-0.175,0.035
13:54:50.040,-0.185,0.03
13:54:50.044,-0.2,0.025
13:54:50.048,-0.195,0.025
13:54:50.052,-0.2,0.02
13:54:50.056,-0.195,0.03
13:54:50.060,-0.2,0.02
13:54:50.064,-0.205,0.005
13:54:50.068,-0.19,0.025
13:54:50.072,-0.185,0.015
13:54:50.076,-0.195,0.0
13:54:50.080,-0.205,0.01
13:54:50.084,-0.2,0.0
13:54:50.088,-0.21,-0.005
13:54:50.092,-0.195,-0.005
13:54:50.096,-0.195,0.005
13:54:50.100,-0.19,0.0
13:54:50.104,-0.195,0.0
13:54:50.108,-0.215,-0.01
13:54:50.112,-0.205,-0.005
13:54:50.116,-0.185,-0.005
13:54:50.120,-0.19,-0.01
13:54:50.124,-0.2,-0.005
13:54:50.128,-0.2,0.0
13:54:50.132,-0.185,0.0
13:54:50.136,-0.19,0.005
13:54:50.140,-0.18,0.005
13:54:50.144,-0.185,-0.015
13:54:50.148,-0.19,0.0
13:54:50.152,-0.175,-0.015
13:54:50.156,-0.175,-0.02
13:54:50.160,-0.185,-0.02
13:54:50.164,-0.2,-0.02
13:54:50.168,-0.18,-0.03
13:54:50.172,-0.2,-0.025
13:54:50.176,-0.215,-0.03
13:54:50.180,-0.2,-0.03
13:54:50.184,-0.195,-0.025
13:54:50.188,-0.205,-0.04
13:54:50.192,-0.2,-0.04
13:54:50.196,-0.19,-0.035
13:54:50.200,-0.185,-0.03
13:54:50.204,-0.175,-0.02
13:54:50.208,-0.17,-0.025
13:54:50.212,-0.175,-0.02
13:54:50.216,-0.185,-0.02
13:54:50.220,-0.15,-0.035
13:54:50.224,-0.155,-0.01
13:54:50.228,-0.155,-0.015
13:54:50.232,-0.05,0.01
13:54:50.236,0.1,0.015
13:54:50.240,0.335,0.015
13:54:50.244,0.565,-0.015
13:54:50.248,0.775,-0.035
13:54:50.252,0.93,-0.085
13:54:50.256,0.925,-0.155
13:54:50.260,0.675,-0.23
13:54:50.264,0.25,-0.3
13:54:50.268,-0.225,-0.385
13:54:50.272,-0.56,-0.455
13:54:50.276,-0.655,-0.48
13:54:50.280,-0.62,-0.465
13:54:50.284,-0.545,-0.375
13:54:50.288,-0.43,-0.275
13:54:50.292,-0.32,-0.17
13:54:50.296,-0.255,-0.085
13:54:50.300,-0.235,-0.005
13:54:50.304,-0.22,0.04
13:54:50.308,-0.23,0.055
13:54:50.312,-0.245,0.07
13:54:50.316,-0.245,0.06
13:54:50.320,-0.26,0.035
13:54:50.324,-0.26,0.03
13:54:50.328,-0.255,0.035
13:54:50.332,-0.275,0.04
13:54:50.336,-0.285,0.01
13:54:50.340,-0.285,0.015
13:54:50.344,-0.29,0.01
13:54:50.348,-0.28,0.01
13:54:50.352,-0.275,0.015
13:54:50.356,-0.28,0.015
13:54:50.360,-0.28,0.025
13:54:50.364,-0.285,0.0
13:54:50.368,-0.275,0.0
13:54:50.372,-0.285,0.0
13:54:50.376,-0.27,0.0
13:54:50.380,-0.265,0.0
13:54:50.384,-0.27,0.005
13:54:50.388,-0.26,0.01
13:54:50.392,-0.27,0.03
13:54:50.396,-0.29,0.025
13:54:50.400,-0.27,0.01
13:54:50.404,-0.28,0.015
13:54:50.408,-0.27,0.005
13:54:50.412,-0.26,0.005
13:54:50.416,-0.27,0.015
13:54:50.420,-0.275,0.015
13:54:50.424,-0.28,0.025
13:54:50.428,-0.275,0.02
13:54:50.432,-0.265,0.015
13:54:50.436,-0.275,0.02
13:54:50.440,-0.27,0.025
13:54:50.444,-0.265,0.02
13:54:50.448,-0.255,0.035
13:54:50.452,-0.27,0.02
13:54:50.456,-0.275,0.02
13:54:50.460,-0.28,0.04
13:54:50.464,-0.28,0.03
13:54:50.468,-0.275,0.025
13:54:50.472,-0.265,0.02
13:54:50.476,-0.27,0.02
13:54:50.480,-0.265,0.02
13:54:50.484,-0.255,0.025
13:54:50.488,-0.255,0.025
13:54:50.492,-0.255,0.015
13:54:50.496,-0.25,0.01
13:54:50.500,-0.235,0.02
13:54:50.504,-0.225,0.01
13:54:50.508,-0.22,0.03
13:54:50.512,-0.205,0.025
13:54:50.516,-0.175,-0.005
13:54:50.520,-0.16,0.005
13:54:50.524,-0.155,-0.005
13:54:50.528,-0.11,-0.01
13:54:50.532,-0.115,-0.01
13:54:50.536,-0.085,-0.02
13:54:50.540,-0.065,-0.01
13:54:50.544,-0.055,-0.01
13:54:50.548,-0.04,-0.01
13:54:50.552,-0.02,-0.03
13:54:50.556,-0.025,-0.015
13:54:50.560,-0.015,-0.015
13:54:50.564,-0.025,-0.005
13:54:50.568,-0.035,-0.005
13:54:50.572,-0.02,-0.015
13:54:50.576,-0.035,-0.005
13:54:50.580,-0.035,-0.02
13:54:50.584,-0.08,-0.005
13:54:50.588,-0.095,-0.005
13:54:50.592,-0.115,-0.01
13:54:50.596,-0.12,-0.005
13:54:50.600,-0.145,0.0
13:54:50.604,-0.15,0.015
13:54:50.608,-0.16,0.015
13:54:50.612,-0.17,0.01
13:54:50.616,-0.16,-0.005
13:54:50.620,-0.17,0.005
13:54:50.624,-0.17,0.01
13:54:50.628,-0.185,0.01
13:54:50.632,-0.19,0.0
13:54:50.636,-0.19,-0.005
13:54:50.640,-0.185,-0.005
13:54:50.644,-0.175,-0.01
13:54:50.648,-0.17,-0.01
13:54:50.652,-0.19,0.0
13:54:50.656,-0.18,-0.005
13:54:50.660,-0.17,0.0
13:54:50.664,-0.16,0.005
13:54:50.668,-0.18,0.005
13:54:50.672,-0.17,0.015
13:54:50.676,-0.175,0.015
13:54:50.680,-0.16,0.005
13:54:50.684,-0.145,0.005
13:54:50.688,-0.14,0.01
13:54:50.692,-0.14,0.02
13:54:50.696,-0.14,0.01
13:54:50.700,-0.13,0.02
13:54:50.704,-0.135,0.005
13:54:50.708,-0.125,0.025
13:54:50.712,-0.125,0.015
13:54:50.716,-0.115,0.02
13:54:50.720,-0.12,0.015
13:54:50.724,-0.1,0.025
13:54:50.728,-0.12,0.005
13:54:50.732,-0.11,0.01
13:54:50.736,-0.115,0.01
13:54:50.740,-0.115,0.02
13:54:50.744,-0.125,0.01
13:54:50.748,-0.13,0.005
13:54:50.752,-0.13,0.01
13:54:50.756,-0.12,0.0
13:54:50.760,-0.135,0.01
13:54:50.764,-0.115,0.015
13:54:50.768,-0.12,0.02
13:54:50.772,-0.13,0.005
13:54:50.776,-0.12,0.005
13:54:50.780,-0.14,0.005
13:54:50.784,-0.115,0.01
13:54:50.788,-0.12,0.005
13:54:50.792,-0.115,0.01
13:54:50.796,-0.11,0.015
13:54:50.800,-0.115,0.0
13:54:50.804,-0.115,0.0
13:54:50.808,-0.105,0.005
13:54:50.812,-0.09,0.005
13:54:50.816,-0.09,-0.005
13:54:50.820,-0.095,0.0
13:54:50.824,-0.08,-0.01
13:54:50.828,-0.085,-0.015
13:54:50.832,-0.085,0.0
13:54:50.836,-0.09,0.0
13:54:50.840,-0.08,0.01
13:54:50.844,-0.075,0.01
13:54:50.848,-0.08,0.02
13:54:50.852,-0.09,0.025
13:54:50.856,-0.08,0.02
13:54:50.860,-0.09,0.03
13:54:50.864,-0.1,0.03
13:54:50.868,-0.095,0.025
13:54:50.872,-0.11,0.015
13:54:50.876,-0.13,0.015
13:54:50.880,-0.15,0.01
13:54:50.884,-0.155,0.015
13:54:50.888,-0.15,0.025
13:54:50.892,-0.155,0.02
13:54:50.896,-0.16,0.02
13:54:50.900,-0.16,0.025
13:54:50.904,-0.185,0.015
13:54:50.908,-0.175,0.01
13:54:50.912,-0.175,0.0
13:54:50.916,-0.17,0.01
13:54:50.920,-0.175,0.01
13:54:50.924,-0.165,0.01
13:54:50.928,-0.19,0.015
13:54:50.932,-0.18,0.01
13:54:50.936,-0.19,0.005
13:54:50.940,-0.18,0.015
13:54:50.944,-0.19,0.005
13:54:50.948,-0.19,0.01
13:54:50.952,-0.18,0.0
13:54:50.956,-0.17,0.01
13:54:50.960,-0.16,0.01
13:54:50.964,-0.165,0.0
13:54:50.968,-0.17,0.005
13:54:50.972,-0.17,0.005
13:54:50.976,-0.165,0.015
13:54:50.980,-0.165,0.0
13:54:50.984,-0.17,0.0
13:54:50.988,-0.165,0.0
13:54:50.992,-0.175,0.005
13:54:50.996,-0.16,-0.01
13:54:51.000,-0.145,0.01
13:54:51.004,-0.165,0.01
13:54:51.008,-0.165,0.01
13:54:51.012,-0.15,0.005
13:54:51.016,-0.155,0.005
13:54:51.020,-0.15,0.0
13:54:51.024,-0.15,0.0
13:54:51.028,-0.16,0.0
13:54:51.032,-0.16,0.0
13:54:51.036,-0.155,0.0
13:54:51.040,-0.16,-0.01
13:54:51.044,-0.16,0.0
13:54:51.048,-0.16,-0.01
13:54:51.052,-0.135,-0.02
13:54:51.056,-0.155,-0.01
13:54:51.060,-0.16,-0.015
13:54:51.064,-0.14,0.005
13:54:51.068,-0.14,0.0
13:54:51.072,-0.15,0.015
13:54:51.076,-0.15,0.01
13:54:51.080,-0.14,0.005
13:54:51.084,-0.13,0.01
13:54:51.088,-0.135,0.015
13:54:51.092,-0.135,0.005
13:54:51.096,-0.135,0.0
13:54:51.100,-0.12,0.0
13:54:51.104,-0.125,-0.015
13:54:51.108,-0.105,0.01
13:54:51.112,-0.1,0.0
13:54:51.116,-0.08,-0.005
13:54:51.120,-0.095,-0.005
13:54:51.124,-0.06,-0.01
13:54:51.128,-0.07,-0.01
13:54:51.132,-0.08,0.0
13:54:51.136,-0.085,0.0
13:54:51.140,-0.075,0.005
13:54:51.144,-0.08,0.0
13:54:51.148,-0.075,0.005
13:54:51.152,-0.095,0.005
13:54:51.156,-0.1,0.0
13:54:51.160,-0.11,0.0
13:54:51.164,-0.115,0.01
13:54:51.168,-0.125,0.0
13:54:51.172,-0.13,0.015
13:54:51.176,-0.15,0.0
13:54:51.180,-0.155,0.005
13:54:51.184,-0.135,0.005
13:54:51.188,-0.035,0.015
13:54:51.192,0.135,0.035
13:54:51.196,0.355,0.05
13:54:51.200,0.61,0.02
13:54:51.204,0.83,-0.005
13:54:51.208,1.015,-0.045
13:54:51.212,1.05,-0.135
13:54:51.216,0.835,-0.225
13:54:51.220,0.405,-0.305
13:54:51.224,-0.09,-0.425
13:54:51.228,-0.465,-0.5
13:54:51.232,-0.61,-0.53
13:54:51.236,-0.63,-0.48
13:54:51.240,-0.575,-0.405
13:54:51.244,-0.46,-0.285
13:54:51.248,-0.345,-0.175
13:54:51.252,-0.28,-0.07
13:54:51.256,-0.225,-0.01
13:54:51.260,-0.225,0.045
13:54:51.264,-0.235,0.065
13:54:51.268,-0.23,0.09
13:54:51.272,-0.235,0.085
13:54:51.276,-0.22,0.07
13:54:51.280,-0.22,0.06
13:54:51.284,-0.225,0.04
13:54:51.288,-0.225,0.04
13:54:51.292,-0.22,0.045
13:54:51.296,-0.225,0.04
13:54:51.300,-0.205,0.02
13:54:51.304,-0.23,0.02
13:54:51.308,-0.23,0.02
13:54:51.312,-0.23,0.015
13:54:51.316,-0.24,0.015
13:54:51.320,-0.24,0.025
13:54:51.324,-0.24,0.015
13:54:51.328,-0.235,0.015
13:54:51.332,-0.235,-0.005
13:54:51.336,-0.24,0.005
13:54:51.340,-0.23,0.03
13:54:51.344,-0.24,0.025
13:54:51.348,-0.235,0.02
13:54:51.352,-0.24,0.04
13:54:51.356,-0.24,0.02
13:54:51.360,-0.235,0.055
13:54:51.364,-0.24,0.05
13:54:51.368,-0.235,0.035
13:54:51.372,-0.23,0.04
13:54:51.376,-0.22,0.03
13:54:51.380,-0.23,0.025
13:54:51.384,-0.25,0.045
13:54:51.388,-0.215,0.04
13:54:51.392,-0.225,0.04
13:54:51.396,-0.215,0.04
13:54:51.400,-0.2,0.03
13:54:51.404,-0.21,0.04
13:54:51.408,-0.215,0.035
13:54:51.412,-0.195,0.035
13:54:51.416,-0.195,0.045
13:54:51.420,-0.19,0.055
13:54:51.424,-0.175,0.06
13:54:51.428,-0.18,0.05
13:54:51.432,-0.19,0.07
13:54:51.436,-0.19,0.085
13:54:51.440,-0.195,0.075
13:54:51.444,-0.195,0.065
13:54:51.448,-0.2,0.065
13:54:51.452,-0.23,0.06
13:54:51.456,-0.23,0.085
13:54:51.460,-0.23,0.08
13:54:51.464,-0.215,0.065
13:54:51.468,-0.21,0.06
13:54:51.472,-0.21,0.06
13:54:51.476,-0.185,0.045
13:54:51.480,-0.175,0.045
13:54:51.484,-0.16,0.035
13:54:51.488,-0.155,0.035
13:54:51.492,-0.135,0.04
13:54:51.496,-0.12,0.025
13:54:51.500,-0.11,0.035
13:54:51.504,-0.1,0.03
13:54:51.508,-0.08,0.025
13:54:51.512,-0.065,0.015
13:54:51.516,-0.07,0.02
13:54:51.520,-0.055,0.025
13:54:51.524,-0.075,0.015
13:54:51.528,-0.055,0.005
13:54:51.532,-0.045,0.005
13:54:51.536,-0.045,0.02
13:54:51.540,-0.06,0.01
13:54:51.544,-0.055,0.02
13:54:51.548,-0.07,0.01
13:54:51.552,-0.065,0.01
13:54:51.556,-0.07,0.01
13:54:51.560,-0.085,0.015
13:54:51.564,-0.09,0.015
13:54:51.568,-0.095,0.03
13:54:51.572,-0.075,0.015
13:54:51.576,-0.075,0.015
13:54:51.580,-0.09,0.005
13:54:51.584,-0.08,0.015
13:54:51.588,-0.075,0.0
13:54:51.592,-0.08,0.0
13:54:51.596,-0.08,0.005
13:54:51.600,-0.1,0.01
13:54:51.604,-0.09,0.005
13:54:51.608,-0.11,0.0
13:54:51.612,-0.105,-0.005
13:54:51.616,-0.09,0.005
13:54:51.620,-0.105,0.0
13:54:51.624,-0.08,0.01
13:54:51.628,-0.095,0.01
13:54:51.632,-0.095,0.0
13:54:51.636,-0.105,0.02
13:54:51.640,-0.1,0.01
13:54:51.644,-0.095,0.005
13:54:51.648,-0.095,0.01
13:54:51.652,-0.09,0.015
13:54:51.656,-0.08,0.02
13:54:51.660,-0.09,0.025
13:54:51.664,-0.08,0.015
13:54:51.668,-0.085,0.015
13:54:51.672,-0.08,0.01
13:54:51.676,-0.065,0.02
13:54:51.680,-0.05,0.005
13:54:51.684,-0.04,0.02
13:54:51.688,-0.04,0.015
13:54:51.692,-0.035,0.02
13:54:51.696,-0.025,0.02
13:54:51.700,-0.015,0.01
13:54:51.704,-0.005,0.02
13:54:51.708,-0.015,0.03
13:54:51.712,-0.005,0.035
13:54:51.716,-0.005,0.035
13:54:51.720,-0.01,0.035
13:54:51.724,-0.02,0.045
13:54:51.728,-0.03,0.05
13:54:51.732,-0.04,0.035
13:54:51.736,-0.055,0.02
13:54:51.740,-0.075,0.035
13:54:51.744,-0.085,0.035
13:54:51.748,-0.085,0.055
13:54:51.752,-0.105,0.055
13:54:51.756,-0.115,0.05
13:54:51.760,-0.12,0.045
13:54:51.764,-0.12,0.045
13:54:51.768,-0.12,0.05
13:54:51.772,-0.12,0.045
13:54:51.776,-0.14,0.035
13:54:51.780,-0.125,0.035
13:54:51.784,-0.125,0.03
13:54:51.788,-0.13,0.025
13:54:51.792,-0.125,0.025
13:54:51.796,-0.155,0.02
13:54:51.800,-0.145,0.03
13:54:51.804,-0.13,0.02
13:54:51.808,-0.125,0.02
13:54:51.812,-0.145,0.035
13:54:51.816,-0.125,0.025
13:54:51.820,-0.135,0.02
13:54:51.824,-0.115,0.025
13:54:51.828,-0.115,0.03
13:54:51.832,-0.12,0.015
13:54:51.836,-0.13,0.035
13:54:51.840,-0.12,0.035
13:54:51.844,-0.12,0.035
13:54:51.848,-0.11,0.03
13:54:51.852,-0.12,0.015
13:54:51.856,-0.12,0.02
13:54:51.860,-0.14,0.015
13:54:51.864,-0.125,0.02
13:54:51.868,-0.115,0.005
13:54:51.872,-0.105,0.025
13:54:51.876,-0.12,0.01
13:54:51.880,-0.11,0.01
13:54:51.884,-0.11,0.0
13:54:51.888,-0.11,0.0
13:54:51.892,-0.115,0.005
13:54:51.896,-0.105,0.005
13:54:51.900,-0.12,0.01
13:54:51.904,-0.115,0.005
13:54:51.908,-0.115,0.0
13:54:51.912,-0.12,0.0
13:54:51.916,-0.125,0.005
13:54:51.920,-0.105,0.0
13:54:51.924,-0.12,0.02
13:54:51.928,-0.11,0.02
13:54:51.932,-0.115,0.02
13:54:51.936,-0.1,0.025
13:54:51.940,-0.09,0.015
13:54:51.944,-0.105,0.005
13:54:51.948,-0.09,0.015
13:54:51.952,-0.085,0.02
13:54:51.956,-0.075,0.01
13:54:51.960,-0.085,0.0
13:54:51.964,-0.085,0.005
13:54:51.968,-0.07,0.005
13:54:51.972,-0.05,0.01
13:54:51.976,-0.04,0.015
13:54:51.980,-0.05,-0.015
13:54:51.984,-0.035,0.0
13:54:51.988,-0.03,0.01
13:54:51.992,-0.02,0.015
13:54:51.996,-0.025,0.015
13:54:52.000,-0.025,0.01
13:54:52.004,-0.035,0.015
13:54:52.008,-0.045,0.025
13:54:52.012,-0.04,0.01
13:54:52.016,-0.045,0.03
13:54:52.020,-0.045,0.025
13:54:52.024,-0.055,0.015
13:54:52.028,-0.065,0.03
13:54:52.032,-0.08,0.035
13:54:52.036,-0.075,0.045
13:54:52.040,-0.09,0.025
13:54:52.044,-0.095,0.02
13:54:52.048,-0.05,0.02
13:54:52.052,0.0,0.035
13:54:52.056,0.16,0.06
13:54:52.060,0.395,0.08
13:54:52.064,0.63,0.05
13:54:52.068,0.825,0.01
13:54:52.072,0.965,-0.025
13:54:52.076,0.96,-0.09
13:54:52.080,0.69,-0.19
13:54:52.084,0.225,-0.27
13:54:52.088,-0.245,-0.38
13:54:52.092,-0.54,-0.465
13:54:52.096,-0.605,-0.5
13:54:52.100,-0.59,-0.485
13:54:52.104,-0.52,-0.375
13:54:52.108,-0.41,-0.26
13:54:52.112,-0.305,-0.16
13:54:52.116,-0.24,-0.065
13:54:52.120,-0.18,0.015
13:54:52.124,-0.18,0.055
13:54:52.128,-0.165,0.095
13:54:52.132,-0.195,0.085
13:54:52.136,-0.18,0.085
13:54:52.140,-0.175,0.085
13:54:52.144,-0.165,0.055
13:54:52.148,-0.17,0.055
13:54:52.152,-0.17,0.05
13:54:52.156,-0.18,0.03
13:54:52.160,-0.175,0.025
13:54:52.164,-0.185,0.025
13:54:52.168,-0.18,0.02
13:54:52.172,-0.18,0.03
13:54:52.176,-0.195,0.035
13:54:52.180,-0.18,0.03
13:54:52.184,-0.185,0.015
13:54:52.188,-0.205,0.02
13:54:52.192,-0.2,0.02
13:54:52.196,-0.195,0.005
13:54:52.200,-0.175,0.015
13:54:52.204,-0.19,0.02
13:54:52.208,-0.175,0.02
13:54:52.212,-0.17,0.02
13:54:52.216,-0.195,0.035
13:54:52.220,-0.195,0.035
13:54:52.224,-0.19,0.04
13:54:52.228,-0.185,0.04
13:54:52.232,-0.185,0.035
13:54:52.236,-0.17,0.035
13:54:52.240,-0.19,0.035
13:54:52.244,-0.17,0.035
13:54:52.248,-0.17,0.025
13:54:52.252,-0.17,0.015
13:54:52.256,-0.15,0.03
13:54:52.260,-0.16,0.035
13:54:52.264,-0.155,0.035
13:54:52.268,-0.155,0.035
13:54:52.272,-0.135,0.035
13:54:52.276,-0.135,0.04
13:54:52.280,-0.155,0.05
13:54:52.284,-0.135,0.045
13:54:52.288,-0.145,0.04
13:54:52.292,-0.125,0.07
13:54:52.296,-0.13,0.065
13:54:52.300,-0.135,0.06
13:54:52.304,-0.145,0.065
13:54:52.308,-0.14,0.075
13:54:52.312,-0.165,0.07
13:54:52.316,-0.18,0.075
13:54:52.320,-0.18,0.07
13:54:52.324,-0.185,0.06
13:54:52.328,-0.175,0.065
13:54:52.332,-0.15,0.06
13:54:52.336,-0.13,0.065
13:54:52.340,-0.15,0.04
13:54:52.344,-0.135,0.05
13:54:52.348,-0.12,0.035
13:54:52.352,-0.1,0.025
13:54:52.356,-0.095,0.035
13:54:52.360,-0.08,0.025
13:54:52.364,-0.07,0.03
13:54:52.368,-0.075,0.015
13:54:52.372,-0.06,0.01
13:54:52.376,-0.055,0.01
13:54:52.380,-0.04,0.01
13:54:52.384,-0.04,0.015
13:54:52.388,-0.055,0.0
13:54:52.392,-0.04,0.0
13:54:52.396,-0.055,-0.01
13:54:52.400,-0.045,0.0
13:54:52.404,-0.06,0.0
13:54:52.408,-0.07,0.0
13:54:52.412,-0.075,0.0
13:54:52.416,-0.065,0.0
13:54:52.420,-0.05,0.0
13:54:52.424,-0.065,0.0
13:54:52.428,-0.07,0.01
13:54:52.432,-0.075,0.005
13:54:52.436,-0.065,0.0
13:54:52.440,-0.075,0.01
13:54:52.444,-0.085,0.0
13:54:52.448,-0.095,-0.005
13:54:52.452,-0.095,-0.01
13:54:52.456,-0.095,-0.02
13:54:52.460,-0.09,-0.025
13:54:52.464,-0.095,-0.015
13:54:52.468,-0.105,-0.02
13:54:52.472,-0.1,-0.005
13:54:52.476,-0.105,-0.005
13:54:52.480,-0.1,0.0
13:54:52.484,-0.105,0.005
13:54:52.488,-0.105,0.0
13:54:52.492,-0.105,0.0
13:54:52.496,-0.105,0.01
13:54:52.500,-0.08,-0.005
13:54:52.504,-0.09,0.0
13:54:52.508,-0.1,0.01
13:54:52.512,-0.1,0.02
13:54:52.516,-0.085,0.015
13:54:52.520,-0.1,0.035
13:54:52.524,-0.08,0.01
13:54:52.528,-0.065,0.02
13:54:52.532,-0.075,0.005
13:54:52.536,-0.07,0.0
13:54:52.540,-0.05,0.02
13:54:52.544,-0.05,0.0
13:54:52.548,-0.03,0.0
13:54:52.552,-0.045,0.0
13:54:52.556,-0.05,0.015
13:54:52.560,-0.02,0.01
13:54:52.564,-0.015,0.015
13:54:52.568,-0.02,0.0
13:54:52.572,-0.02,0.02
13:54:52.576,-0.045,0.03
13:54:52.580,-0.02,0.03
13:54:52.584,-0.04,0.03
13:54:52.588,-0.035,0.025
13:54:52.592,-0.035,0.03
13:54:52.596,-0.06,0.025
13:54:52.600,-0.075,0.015
13:54:52.604,-0.08,0.015
13:54:52.608,-0.1,0.03
13:54:52.612,-0.1,0.025
13:54:52.616,-0.115,0.02
13:54:52.620,-0.11,0.015
13:54:52.624,-0.125,0.02
13:54:52.628,-0.125,0.03
13:54:52.632,-0.125,0.02
13:54:52.636,-0.12,0.015
13:54:52.640,-0.125,0.015
13:54:52.644,-0.13,0.015
13:54:52.648,-0.13,0.01
13:54:52.652,-0.14,0.005
13:54:52.656,-0.135,0.015
13:54:52.660,-0.135,0.015
13:54:52.664,-0.13,0.0
13:54:52.668,-0.13,0.005
13:54:52.672,-0.105,0.0
13:54:52.676,-0.125,0.0
13:54:52.680,-0.125,0.01
13:54:52.684,-0.125,0.005
13:54:52.688,-0.12,0.01
13:54:52.692,-0.125,0.0
13:54:52.696,-0.11,0.0
13:54:52.700,-0.125,0.01
13:54:52.704,-0.12,0.01
13:54:52.708,-0.125,0.005
13:54:52.712,-0.115,0.005
13:54:52.716,-0.105,0.005
13:54:52.720,-0.1,0.01
13:54:52.724,-0.105,0.015
13:54:52.728,-0.1,0.01
13:54:52.732,-0.085,0.02
13:54:52.736,-0.09,0.025
13:54:52.740,-0.085,0.0
13:54:52.744,-0.08,0.005
13:54:52.748,-0.095,0.01
13:54:52.752,-0.105,0.005
13:54:52.756,-0.09,0.0
13:54:52.760,-0.1,0.0
13:54:52.764,-0.095,-0.005
13:54:52.768,-0.1,0.005
13:54:52.772,-0.115,-0.005
13:54:52.776,-0.105,-0.005
13:54:52.780,-0.08,-0.01
13:54:52.784,-0.1,-0.005
13:54:52.788,-0.095,-0.005
13:54:52.792,-0.1,0.015
13:54:52.796,-0.08,0.02
13:54:52.800,-0.08,0.03
13:54:52.804,-0.07,0.0
13:54:52.808,-0.08,0.01
13:54:52.812,-0.07,0.005
13:54:52.816,-0.075,0.005
13:54:52.820,-0.07,0.015
13:54:52.824,-0.07,0.01
13:54:52.828,-0.065,0.005
13:54:52.832,-0.06,0.01
13:54:52.836,-0.055,-0.01
13:54:52.840,-0.04,-0.01
13:54:52.844,-0.015,-0.005
13:54:52.848,-0.01,0.0
13:54:52.852,-0.025,0.0
13:54:52.856,-0.025,0.0
13:54:52.860,-0.01,0.0
13:54:52.864,-0.01,-0.015
13:54:52.868,-0.01,-0.01
13:54:52.872,-0.025,0.0
13:54:52.876,-0.015,0.015
13:54:52.880,-0.035,0.02
13:54:52.884,-0.02,0.015
13:54:52.888,-0.025,0.02
13:54:52.892,-0.04,0.005
13:54:52.896,-0.065,0.015
13:54:52.900,-0.085,0.015
13:54:52.904,-0.07,0.02
13:54:52.908,-0.095,0.015
13:54:52.912,-0.085,0.03
13:54:52.916,-0.09,0.03
13:54:52.920,-0.09,0.015
13:54:52.924,-0.105,0.02
13:54:52.928,-0.1,0.02
13:54:52.932,-0.105,0.01
13:54:52.936,-0.11,0.005
13:54:52.940,-0.1,0.02
13:54:52.944,-0.1,0.015
13:54:52.948,-0.095,0.01
13:54:52.952,-0.11,0.01
13:54:52.956,-0.11,0.0
13:54:52.960,-0.105,0.0
13:54:52.964,-0.095,0.0
13:54:52.968,-0.09,0.005
13:54:52.972,-0.09,0.0
13:54:52.976,-0.1,0.005
13:54:52.980,-0.095,0.0
13:54:52.984,-0.09,0.0
13:54:52.988,-0.09,0.005
13:54:52.992,-0.085,0.0
13:54:52.996,-0.08,0.015
13:54:53.000,-0.085,0.01
13:54:53.004,-0.09,0.0
13:54:53.008,-0.085,0.02
13:54:53.012,-0.08,0.0
13:54:53.016,-0.065,-0.005
13:54:53.020,-0.075,0.0
13:54:53.024,-0.07,0.0
13:54:53.028,-0.075,-0.01
13:54:53.032,-0.07,0.005
13:54:53.036,-0.065,-0.005
13:54:53.040,-0.075,-0.005
13:54:53.044,-0.08,0.0
13:54:53.048,-0.085,0.0
13:54:53.052,-0.07,-0.01
13:54:53.056,-0.075,-0.005
13:54:53.060,-0.085,-0.02
13:54:53.064,-0.08,-0.015
13:54:53.068,-0.08,-0.025
13:54:53.072,-0.08,-0.005
13:54:53.076,-0.06,-0.01
13:54:53.080,-0.07,-0.03
13:54:53.084,-0.07,-0.01
13:54:53.088,-0.06,-0.015
13:54:53.092,-0.055,0.0
13:54:53.096,-0.045,0.01
13:54:53.100,-0.055,0.0
13:54:53.104,-0.05,-0.005
13:54:53.108,-0.025,0.0
13:54:53.112,0.045,0.005
13:54:53.116,0.195,0.025
13:54:53.120,0.425,0.04
13:54:53.124,0.65,0.015
13:54:53.128,0.88,-0.015
13:54:53.132,1.07,-0.065
13:54:53.136,1.14,-0.125
13:54:53.140,0.995,-0.195
13:54:53.144,0.635,-0.295
13:54:53.148,0.165,-0.41
13:54:53.152,-0.27,-0.475
13:54:53.156,-0.475,-0.515
13:54:53.160,-0.51,-0.485
13:54:53.164,-0.455,-0.42
13:54:53.168,-0.34,-0.315
13:54:53.172,-0.2,-0.19
13:54:53.176,-0.13,-0.085
13:54:53.180,-0.09,-0.01
13:54:53.184,-0.095,0.05
13:54:53.188,-0.105,0.09
13:54:53.192,-0.145,0.085
13:54:53.196,-0.15,0.055
13:54:53.200,-0.155,0.08
13:54:53.204,-0.155,0.065
13:54:53.208,-0.18,0.055
13:54:53.212,-0.185,0.055
13:54:53.216,-0.19,0.05
13:54:53.220,-0.185,0.035
13:54:53.224,-0.185,0.02
13:54:53.228,-0.185,0.04
13:54:53.232,-0.19,0.03
13:54:53.236,-0.21,0.03
13:54:53.240,-0.185,0.02
13:54:53.244,-0.195,0.015
13:54:53.248,-0.19,0.015
13:54:53.252,-0.195,0.02
13:54:53.256,-0.195,0.005
13:54:53.260,-0.195,0.025
13:54:53.264,-0.2,0.025
13:54:53.268,-0.21,0.015
13:54:53.272,-0.19,0.025
13:54:53.276,-0.21,0.04
13:54:53.280,-0.2,0.03
13:54:53.284,-0.205,0.015
13:54:53.288,-0.205,0.015
13:54:53.292,-0.205,0.03
13:54:53.296,-0.215,0.035
13:54:53.300,-0.21,0.03
13:54:53.304,-0.195,0.035
13:54:53.308,-0.195,0.04
13:54:53.312,-0.19,0.04
13:54:53.316,-0.2,0.05
13:54:53.320,-0.19,0.04
13:54:53.324,-0.195,0.04
13:54:53.328,-0.2,0.035
13:54:53.332,-0.185,0.03
13:54:53.336,-0.195,0.05
13:54:53.340,-0.2,0.05
13:54:53.344,-0.19,0.055
13:54:53.348,-0.19,0.035
13:54:53.352,-0.18,0.035
13:54:53.356,-0.19,0.03
13:54:53.360,-0.205,0.04
13:54:53.364,-0.195,0.04
13:54:53.368,-0.18,0.045
13:54:53.372,-0.18,0.06
13:54:53.376,-0.17,0.04
13:54:53.380,-0.165,0.04
13:54:53.384,-0.16,0.045
13:54:53.388,-0.16,0.04
13:54:53.392,-0.14,0.045
13:54:53.396,-0.125,0.03
13:54:53.400,-0.11,0.035
13:54:53.404,-0.09,0.015
13:54:53.408,-0.075,0.015
13:54:53.412,-0.05,0.015
13:54:53.416,-0.02,0.015
13:54:53.420,-0.015,0.01
13:54:53.424,0.01,0.005
13:54:53.428,0.03,-0.005
13:54:53.432,0.055,0.0
13:54:53.436,0.055,0.005
13:54:53.440,0.09,0.0
13:54:53.444,0.08,0.0
13:54:53.448,0.095,0.02
13:54:53.452,0.08,0.0
13:54:53.456,0.075,0.015
13:54:53.460,0.08,0.015
13:54:53.464,0.05,0.02
13:54:53.468,0.035,0.02
13:54:53.472,0.01,0.005
13:54:53.476,0.0,0.03
13:54:53.480,-0.005,0.025
13:54:53.484,-0.03,0.025
13:54:53.488,-0.045,0.035
13:54:53.492,-0.055,0.03
13:54:53.496,-0.045,0.02
13:54:53.500,-0.08,0.02
13:54:53.504,-0.065,0.01
13:54:53.508,-0.075,0.015
13:54:53.512,-0.09,0.015
13:54:53.516,-0.08,0.03
13:54:53.520,-0.075,0.02
13:54:53.524,-0.075,0.015
13:54:53.528,-0.09,0.005
13:54:53.532,-0.085,0.015
13:54:53.536,-0.08,0.015
13:54:53.540,-0.085,0.015
13:54:53.544,-0.075,0.0
13:54:53.548,-0.09,0.015
13:54:53.552,-0.085,0.02
13:54:53.556,-0.09,0.005
13:54:53.560,-0.08,0.02
13:54:53.564,-0.075,0.025
13:54:53.568,-0.075,0.025
13:54:53.572,-0.075,0.025
13:54:53.576,-0.06,0.025
13:54:53.580,-0.07,0.03
13:54:53.584,-0.06,0.03
13:54:53.588,-0.055,0.04
13:54:53.592,-0.055,0.035
13:54:53.596,-0.035,0.045
13:54:53.600,-0.025,0.05
13:54:53.604,-0.015,0.03
13:54:53.608,-0.015,0.04
13:54:53.612,-0.02,0.025
13:54:53.616,-0.035,0.02
13:54:53.620,-0.03,0.01
13:54:53.624,-0.015,0.02
13:54:53.628,-0.02,0.025
13:54:53.632,-0.03,0.005
13:54:53.636,-0.04,0.015
13:54:53.640,-0.035,0.01
13:54:53.644,-0.035,0.015
13:54:53.648,-0.01,0.015
13:54:53.652,-0.01,0.015
13:54:53.656,-0.02,0.01
13:54:53.660,-0.025,0.01
13:54:53.664,-0.03,0.015
13:54:53.668,-0.025,0.025
13:54:53.672,-0.02,0.04
13:54:53.676,-0.03,0.025
13:54:53.680,-0.035,0.03
13:54:53.684,-0.025,0.025
13:54:53.688,-0.035,0.025
13:54:53.692,-0.02,0.04
13:54:53.696,-0.015,0.03
13:54:53.700,-0.015,0.015
13:54:53.704,-0.015,0.025
13:54:53.708,0.0,0.035
13:54:53.712,0.015,0.025
13:54:53.716,0.03,0.015
13:54:53.720,0.02,0.015
13:54:53.724,0.04,0.02
13:54:53.728,0.03,0.02
13:54:53.732,0.05,0.03
13:54:53.736,0.035,0.035
13:54:53.740,0.03,0.04
13:54:53.744,0.03,0.035
13:54:53.748,0.035,0.04
13:54:53.752,0.03,0.045
13:54:53.756,0.015,0.04
13:54:53.760,0.0,0.035
13:54:53.764,-0.005,0.065
13:54:53.768,-0.025,0.055
13:54:53.772,-0.04,0.05
13:54:53.776,-0.045,0.04
13:54:53.780,-0.055,0.045
13:54:53.784,-0.055,0.04
13:54:53.788,-0.06,0.03
13:54:53.792,-0.045,0.025
13:54:53.796,-0.07,0.05
13:54:53.800,-0.06,0.055
13:54:53.804,-0.075,0.05
13:54:53.808,-0.075,0.025
13:54:53.812,-0.065,0.02
13:54:53.816,-0.06,0.025
13:54:53.820,-0.065,0.03
13:54:53.824,-0.06,0.025
13:54:53.828,-0.065,0.035
13:54:53.832,-0.075,0.035
13:54:53.836,-0.065,0.02
13:54:53.840,-0.06,0.035
13:54:53.844,-0.065,0.025
13:54:53.848,-0.065,0.015
13:54:53.852,-0.03,0.03
13:54:53.856,0.085,0.06
13:54:53.860,0.27,0.07
13:54:53.864,0.525,0.055
13:54:53.868,0.72,0.035
13:54:53.872,0.92,0.0
13:54:53.876,1.055,-0.045
13:54:53.880,1.01,-0.115
13:54:53.884,0.73,-0.23
13:54:53.888,0.305,-0.33
13:54:53.892,-0.18,-0.415
13:54:53.896,-0.52,-0.5
13:54:53.900,-0.64,-0.5
13:54:53.904,-0.61,-0.46
13:54:53.908,-0.525,-0.385
13:54:53.912,-0.375,-0.28
13:54:53.916,-0.245,-0.15
13:54:53.920,-0.16,-0.07
13:54:53.924,-0.11,0.005
13:54:53.928,-0.11,0.065
13:54:53.932,-0.115,0.09
13:54:53.936,-0.13,0.095
13:54:53.940,-0.115,0.09
13:54:53.944,-0.11,0.075
13:54:53.948,-0.095,0.075
13:54:53.952,-0.105,0.065
13:54:53.956,-0.105,0.065
13:54:53.960,-0.115,0.065
13:54:53.964,-0.105,0.08
13:54:53.968,-0.11,0.07
13:54:53.972,-0.11,0.06
13:54:53.976,-0.1,0.055
13:54:53.980,-0.105,0.055
13:54:53.984,-0.1,0.045
13:54:53.988,-0.095,0.055
13:54:53.992,-0.09,0.05
13:54:53.996,-0.08,0.05
13:54:54.000,-0.1,0.055
13:54:54.004,-0.085,0.045
13:54:54.008,-0.075,0.05
13:54:54.012,-0.06,0.045
13:54:54.016,-0.075,0.035
13:54:54.020,-0.08,0.045
13:54:54.024,-0.07,0.035
13:54:54.028,-0.06,0.055
13:54:54.032,-0.07,0.055
13:54:54.036,-0.065,0.07
13:54:54.040,-0.075,0.06
13:54:54.044,-0.08,0.075
13:54:54.048,-0.085,0.075
13:54:54.052,-0.08,0.085
13:54:54.056,-0.09,0.085
13:54:54.060,-0.12,0.1
13:54:54.064,-0.15,0.11
13:54:54.068,-0.15,0.1
13:54:54.072,-0.16,0.085
13:54:54.076,-0.16,0.095
13:54:54.080,-0.175,0.09
13:54:54.084,-0.18,0.085
13:54:54.088,-0.19,0.085
13:54:54.092,-0.175,0.095
13:54:54.096,-0.175,0.095
13:54:54.100,-0.175,0.095
13:54:54.104,-0.18,0.09
13:54:54.108,-0.18,0.095
13:54:54.112,-0.18,0.08
13:54:54.116,-0.155,0.08
13:54:54.120,-0.145,0.07
13:54:54.124,-0.145,0.075
13:54:54.128,-0.15,0.065
13:54:54.132,-0.12,0.065
13:54:54.136,-0.1,0.065
13:54:54.140,-0.08,0.065
13:54:54.144,-0.075,0.06
13:54:54.148,-0.07,0.03
13:54:54.152,-0.05,0.03
13:54:54.156,-0.02,0.035
13:54:54.160,-0.02,0.025
13:54:54.164,-0.01,0.015
13:54:54.168,0.0,0.015
13:54:54.172,0.01,0.025
13:54:54.176,0.015,0.025
13:54:54.180,0.025,0.005
13:54:54.184,0.025,-0.005
13:54:54.188,0.01,0.0
13:54:54.192,0.02,0.02
13:54:54.196,0.02,0.005
13:54:54.200,0.01,0.0
13:54:54.204,0.0,-0.015
13:54:54.208,-0.015,-0.005
13:54:54.212,-0.03,0.0
13:54:54.216,-0.025,0.0
13:54:54.220,-0.04,-0.015
13:54:54.224,-0.045,0.0
13:54:54.228,-0.04,-0.005
13:54:54.232,-0.05,0.0
13:54:54.236,-0.055,0.0
13:54:54.240,-0.06,0.01
13:54:54.244,-0.07,0.0
13:54:54.248,-0.065,0.0
13:54:54.252,-0.06,0.0
13:54:54.256,-0.065,-0.015
13:54:54.260,-0.07,-0.01
13:54:54.264,-0.05,-0.005
13:54:54.268,-0.06,-0.025
13:54:54.272,-0.065,0.0
13:54:54.276,-0.04,-0.01
13:54:54.280,-0.04,0.005
13:54:54.284,-0.035,-0.005
13:54:54.288,-0.02,-0.015
13:54:54.292,-0.02,0.0
13:54:54.296,-0.03,0.005
13:54:54.300,-0.025,0.0
13:54:54.304,-0.015,0.0
13:54:54.308,-0.02,0.01
13:54:54.312,-0.025,0.015
13:54:54.316,-0.03,0.03
13:54:54.320,-0.025,0.02
13:54:54.324,-0.025,0.02
13:54:54.328,-0.03,0.025
13:54:54.332,-0.035,0.025
13:54:54.336,-0.065,0.025
13:54:54.340,-0.075,0.01
13:54:54.344,-0.09,0.02
13:54:54.348,-0.09,0.015
13:54:54.352,-0.095,0.02
13:54:54.356,-0.09,0.02
13:54:54.360,-0.11,0.03
13:54:54.364,-0.115,0.035
13:54:54.368,-0.11,0.02
13:54:54.372,-0.125,0.02
13:54:54.376,-0.105,0.02
13:54:54.380,-0.125,0.01
13:54:54.384,-0.12,0.025
13:54:54.388,-0.125,0.02
13:54:54.392,-0.12,0.035
13:54:54.396,-0.115,0.015
13:54:54.400,-0.11,0.015
13:54:54.404,-0.12,0.015
13:54:54.408,-0.125,0.005
13:54:54.412,-0.125,0.01
13:54:54.416,-0.125,0.01
13:54:54.420,-0.13,0.01
13:54:54.424,-0.14,0.03
13:54:54.428,-0.13,0.015
13:54:54.432,-0.13,0.01
13:54:54.436,-0.12,0.015
13:54:54.440,-0.115,0.005
13:54:54.444,-0.105,0.01
13:54:54.448,-0.115,0.01
13:54:54.452,-0.105,0.015
13:54:54.456,-0.09,0.015
13:54:54.460,-0.08,0.005
13:54:54.464,-0.11,0.01
13:54:54.468,-0.08,0.005
13:54:54.472,-0.095,0.015
13:54:54.476,-0.095,0.015
13:54:54.480,-0.08,0.025
13:54:54.484,-0.08,0.015
13:54:54.488,-0.09,0.02
13:54:54.492,-0.1,0.0
13:54:54.496,-0.11,0.005
13:54:54.500,-0.1,0.0
13:54:54.504,-0.1,-0.01
13:54:54.508,-0.105,0.0
13:54:54.512,-0.115,0.0
13:54:54.516,-0.1,-0.005
13:54:54.520,-0.095,0.005
13:54:54.524,-0.09,0.01
13:54:54.528,-0.09,0.005
13:54:54.532,-0.11,-0.015
13:54:54.536,-0.1,-0.005
13:54:54.540,-0.09,0.0
13:54:54.544,-0.09,0.0
13:54:54.548,-0.08,0.0
13:54:54.552,-0.085,0.0
13:54:54.556,-0.055,-0.015
13:54:54.560,-0.045,-0.005
13:54:54.564,-0.04,-0.015
13:54:54.568,-0.025,-0.02
13:54:54.572,-0.025,-0.015
13:54:54.576,-0.02,0.015
13:54:54.580,-0.01,0.015
13:54:54.584,-0.02,0.005
13:54:54.588,-0.035,0.0
13:54:54.592,-0.04,0.02
13:54:54.596,-0.045,0.02
13:54:54.600,-0.03,0.03
13:54:54.604,-0.04,0.03
13:54:54.608,-0.07,0.025
13:54:54.612,-0.085,0.025
13:54:54.616,-0.085,0.035
13:54:54.620,-0.095,0.025
13:54:54.624,-0.1,0.03
13:54:54.628,-0.12,0.02
13:54:54.632,-0.11,0.02
13:54:54.636,-0.11,0.01
13:54:54.640,-0.125,0.02
13:54:54.644,-0.12,0.015
13:54:54.648,-0.12,0.03
13:54:54.652,-0.12,0.02
13:54:54.656,-0.13,0.025
13:54:54.660,-0.135,0.025
13:54:54.664,-0.12,0.025
13:54:54.668,-0.13,0.01
13:54:54.672,-0.12,0.015
13:54:54.676,-0.13,0.015
13:54:54.680,-0.12,0.02
13:54:54.684,-0.13,0.03
13:54:54.688,-0.125,0.025
13:54:54.692,-0.14,0.02
13:54:54.696,-0.13,0.015
13:54:54.700,-0.13,0.03
13:54:54.704,-0.125,0.02
13:54:54.708,-0.11,0.02
13:54:54.712,-0.12,0.005
13:54:54.716,-0.125,0.04
13:54:54.720,-0.115,0.015
13:54:54.724,-0.1,0.02
13:54:54.728,-0.09,0.015
13:54:54.732,-0.11,0.015
13:54:54.736,-0.1,0.02
13:54:54.740,-0.11,0.015
13:54:54.744,-0.09,0.025
13:54:54.748,-0.105,0.03
13:54:54.752,-0.09,0.015
13:54:54.756,-0.1,0.03
13:54:54.760,-0.1,0.03
13:54:54.764,-0.095,0.015
13:54:54.768,-0.08,0.025
13:54:54.772,-0.08,0.015
13:54:54.776,-0.08,0.035
13:54:54.780,-0.08,0.02
13:54:54.784,-0.095,0.03
13:54:54.788,-0.105,0.02
13:54:54.792,-0.09,0.015
13:54:54.796,-0.1,0.01
13:54:54.800,-0.1,0.02
13:54:54.804,-0.09,0.025
13:54:54.808,-0.09,0.02
13:54:54.812,-0.075,0.025
13:54:54.816,-0.075,0.04
13:54:54.820,-0.085,0.04
13:54:54.824,-0.08,0.015
13:54:54.828,-0.08,0.02
13:54:54.832,-0.08,0.02
13:54:54.836,-0.045,0.015
13:54:54.840,-0.04,0.025
13:54:54.844,-0.03,0.02
13:54:54.848,-0.005,0.015
13:54:54.852,-0.01,0.025
13:54:54.856,0.0,0.025
13:54:54.860,0.0,0.02
13:54:54.864,0.0,0.03
13:54:54.868,-0.03,0.045
13:54:54.872,-0.015,0.035
13:54:54.876,0.04,0.035
13:54:54.880,0.165,0.06
13:54:54.884,0.355,0.07
13:54:54.888,0.58,0.08
13:54:54.892,0.83,0.045
13:54:54.896,1.02,0.02
13:54:54.900,1.13,-0.025
13:54:54.904,1.005,-0.1
13:54:54.908,0.64,-0.175
13:54:54.912,0.18,-0.26
13:54:54.916,-0.295,-0.345
13:54:54.920,-0.52,-0.41
13:54:54.924,-0.565,-0.415
13:54:54.928,-0.56,-0.36
13:54:54.932,-0.485,-0.27
13:54:54.936,-0.355,-0.185
13:54:54.940,-0.26,-0.1
13:54:54.944,-0.195,0.0
13:54:54.948,-0.175,0.065
13:54:54.952,-0.185,0.085
13:54:54.956,-0.195,0.105
13:54:54.960,-0.175,0.12
13:54:54.964,-0.175,0.105
13:54:54.968,-0.19,0.085
13:54:54.972,-0.195,0.075
13:54:54.976,-0.195,0.075
13:54:54.980,-0.19,0.06
13:54:54.984,-0.19,0.05
13:54:54.988,-0.185,0.045
13:54:54.992,-0.19,0.07
13:54:54.996,-0.185,0.04
13:54:55.000,-0.19,0.05
13:54:55.004,-0.18,0.075
13:54:55.008,-0.18,0.07
13:54:55.012,-0.195,0.065
13:54:55.016,-0.185,0.055
13:54:55.020,-0.2,0.065
13:54:55.024,-0.195,0.07
13:54:55.028,-0.18,0.075
13:54:55.032,-0.185,0.07
13:54:55.036,-0.185,0.065
13:54:55.040,-0.18,0.07
13:54:55.044,-0.19,0.065
13:54:55.048,-0.19,0.07
13:54:55.052,-0.185,0.065
13:54:55.056,-0.18,0.06
13:54:55.060,-0.19,0.055
13:54:55.064,-0.165,0.055
13:54:55.068,-0.195,0.055
13:54:55.072,-0.19,0.07
13:54:55.076,-0.19,0.065
13:54:55.080,-0.2,0.075
13:54:55.084,-0.205,0.075
13:54:55.088,-0.19,0.075
13:54:55.092,-0.195,0.09
13:54:55.096,-0.195,0.085
13:54:55.100,-0.2,0.08
13:54:55.104,-0.18,0.075
13:54:55.108,-0.195,0.065
13:54:55.112,-0.18,0.08
13:54:55.116,-0.18,0.085
13:54:55.120,-0.16,0.075
13:54:55.124,-0.155,0.075
13:54:55.128,-0.135,0.07
13:54:55.132,-0.125,0.065
13:54:55.136,-0.13,0.055
13:54:55.140,-0.1,0.055
13:54:55.144,-0.105,0.065
13:54:55.148,-0.095,0.06
13:54:55.152,-0.075,0.07
13:54:55.156,-0.07,0.08
13:54:55.160,-0.075,0.075
13:54:55.164,-0.06,0.085
13:54:55.168,-0.06,0.07
13:54:55.172,-0.045,0.075
13:54:55.176,-0.04,0.075
13:54:55.180,-0.045,0.055
13:54:55.184,-0.055,0.055
13:54:55.188,-0.055,0.04
13:54:55.192,-0.04,0.04
13:54:55.196,-0.04,0.055
13:54:55.200,-0.035,0.065
13:54:55.204,-0.03,0.06
13:54:55.208,-0.03,0.04
13:54:55.212,-0.02,0.05
13:54:55.216,-0.005,0.055
13:54:55.220,-0.03,0.04
13:54:55.224,-0.03,0.03
13:54:55.228,-0.04,0.04
13:54:55.232,-0.05,0.03
13:54:55.236,-0.045,0.035
13:54:55.240,-0.06,0.035
13:54:55.244,-0.065,0.03
13:54:55.248,-0.06,0.025
13:54:55.252,-0.08,0.03
13:54:55.256,-0.085,0.04
13:54:55.260,-0.09,0.04
13:54:55.264,-0.095,0.02
13:54:55.268,-0.085,0.025
13:54:55.272,-0.08,0.02
13:54:55.276,-0.08,0.025
13:54:55.280,-0.09,0.03
13:54:55.284,-0.1,0.035
13:54:55.288,-0.095,0.03
13:54:55.292,-0.11,0.03
13:54:55.296,-0.105,0.045
13:54:55.300,-0.09,0.05
13:54:55.304,-0.1,0.04
13:54:55.308,-0.08,0.045
13:54:55.312,-0.085,0.055
13:54:55.316,-0.09,0.05
13:54:55.320,-0.07,0.035
13:54:55.324,-0.08,0.055
13:54:55.328,-0.08,0.045
13:54:55.332,-0.095,0.035
13:54:55.336,-0.09,0.045
13:54:55.340,-0.095,0.03
13:54:55.344,-0.08,0.025
13:54:55.348,-0.085,0.02
13:54:55.352,-0.08,0.005
13:54:55.356,-0.085,0.01
13:54:55.360,-0.075,0.015
13:54:55.364,-0.07,0.04
13:54:55.368,-0.065,0.04
13:54:55.372,-0.08,0.025
13:54:55.376,-0.06,0.025
13:54:55.380,-0.06,0.025
13:54:55.384,-0.055,0.025
13:54:55.388,-0.05,0.02
13:54:55.392,-0.05,0.015
13:54:55.396,-0.05,0.02
13:54:55.400,-0.04,0.015
13:54:55.404,-0.035,0.015
13:54:55.408,-0.04,0.025
13:54:55.412,-0.035,0.005
13:54:55.416,-0.025,0.015
13:54:55.420,-0.02,0.02
13:54:55.424,-0.005,0.015
13:54:55.428,0.0,0.015
13:54:55.432,0.0,0.01
13:54:55.436,0.0,0.015
13:54:55.440,-0.005,0.02
13:54:55.444,0.0,0.05
13:54:55.448,0.005,0.04
13:54:55.452,0.01,0.03
13:54:55.456,-0.025,0.05
13:54:55.460,-0.03,0.04
13:54:55.464,-0.03,0.06
13:54:55.468,-0.045,0.055
13:54:55.472,-0.045,0.055
13:54:55.476,-0.055,0.055
13:54:55.480,-0.08,0.05
13:54:55.484,-0.085,0.05
13:54:55.488,-0.06,0.06
13:54:55.492,-0.02,0.07
13:54:55.496,0.11,0.095
13:54:55.500,0.305,0.095
13:54:55.504,0.555,0.075
13:54:55.508,0.775,0.03
13:54:55.512,0.955,-0.015
13:54:55.516,0.955,-0.07
13:54:55.520,0.7,-0.18
13:54:55.524,0.255,-0.265
13:54:55.528,-0.27,-0.37
13:54:55.532,-0.61,-0.46
13:54:55.536,-0.725,-0.48
13:54:55.540,-0.655,-0.445
13:54:55.544,-0.545,-0.375
13:54:55.548,-0.395,-0.27
13:54:55.552,-0.26,-0.16
13:54:55.556,-0.195,-0.035
13:54:55.560,-0.16,0.04
13:54:55.564,-0.155,0.12
13:54:55.568,-0.17,0.135
13:54:55.572,-0.175,0.14
13:54:55.576,-0.17,0.115
13:54:55.580,-0.165,0.11
13:54:55.584,-0.18,0.105
13:54:55.588,-0.175,0.1
13:54:55.592,-0.175,0.075
13:54:55.596,-0.165,0.095
13:54:55.600,-0.17,0.095
13:54:55.604,-0.155,0.095
13:54:55.608,-0.17,0.085
13:54:55.612,-0.175,0.075
13:54:55.616,-0.17,0.065
13:54:55.620,-0.165,0.06
13:54:55.624,-0.17,0.055
13:54:55.628,-0.185,0.07
13:54:55.632,-0.18,0.07
13:54:55.636,-0.17,0.07
13:54:55.640,-0.16,0.065
13:54:55.644,-0.19,0.065
13:54:55.648,-0.18,0.075
13:54:55.652,-0.185,0.07
13:54:55.656,-0.16,0.075
13:54:55.660,-0.17,0.075
13:54:55.664,-0.175,0.08
13:54:55.668,-0.165,0.09
13:54:55.672,-0.165,0.095
13:54:55.676,-0.16,0.105
13:54:55.680,-0.16,0.095
13:54:55.684,-0.17,0.095
13:54:55.688,-0.16,0.105
13:54:55.692,-0.15,0.11
13:54:55.696,-0.155,0.11
13:54:55.700,-0.165,0.115
13:54:55.704,-0.16,0.105
13:54:55.708,-0.155,0.105
13:54:55.712,-0.155,0.105
13:54:55.716,-0.135,0.11
13:54:55.720,-0.12,0.1
13:54:55.724,-0.12,0.115
13:54:55.728,-0.115,0.12
13:54:55.732,-0.105,0.13
13:54:55.736,-0.095,0.12
13:54:55.740,-0.1,0.12
13:54:55.744,-0.085,0.115
13:54:55.748,-0.085,0.12
13:54:55.752,-0.075,0.115
13:54:55.756,-0.07,0.125
13:54:55.760,-0.07,0.125
13:54:55.764,-0.07,0.12
13:54:55.768,-0.07,0.125
13:54:55.772,-0.075,0.125
13:54:55.776,-0.085,0.115
13:54:55.780,-0.06,0.125
13:54:55.784,-0.055,0.12
13:54:55.788,-0.045,0.115
13:54:55.792,-0.04,0.105
13:54:55.796,-0.04,0.11
13:54:55.800,-0.03,0.085
13:54:55.804,-0.02,0.09
13:54:55.808,-0.015,0.07
13:54:55.812,-0.005,0.08
13:54:55.816,-0.015,0.07
13:54:55.820,-0.015,0.07
13:54:55.824,-0.035,0.085
13:54:55.828,-0.03,0.06
13:54:55.832,-0.03,0.06
13:54:55.836,-0.035,0.05
13:54:55.840,-0.055,0.06
13:54:55.844,-0.05,0.06
13:54:55.848,-0.065,0.05
13:54:55.852,-0.055,0.055
13:54:55.856,-0.06,0.05
13:54:55.860,-0.065,0.06
13:54:55.864,-0.07,0.075
13:54:55.868,-0.065,0.065
13:54:55.872,-0.07,0.05
13:54:55.876,-0.07,0.065
13:54:55.880,-0.07,0.05
13:54:55.884,-0.08,0.06
13:54:55.888,-0.065,0.065
13:54:55.892,-0.065,0.05
13:54:55.896,-0.065,0.065
13:54:55.900,-0.05,0.065
13:54:55.904,-0.055,0.05
13:54:55.908,-0.06,0.055
13:54:55.912,-0.065,0.065
13:54:55.916,-0.065,0.065
13:54:55.920,-0.075,0.07
13:54:55.924,-0.07,0.055
13:54:55.928,-0.09,0.055
13:54:55.932,-0.1,0.055
13:54:55.936,-0.07,0.045
13:54:55.940,-0.08,0.055
13:54:55.944,-0.075,0.065
13:54:55.948,-0.07,0.055
13:54:55.952,-0.075,0.055
13:54:55.956,-0.075,0.055
13:54:55.960,-0.06,0.06
13:54:55.964,-0.065,0.055
13:54:55.968,-0.06,0.055
13:54:55.972,-0.06,0.06
13:54:55.976,-0.05,0.065
13:54:55.980,-0.04,0.06
13:54:55.984,-0.04,0.075
13:54:55.988,-0.04,0.065
13:54:55.992,-0.04,0.06
13:54:55.996,-0.03,0.055
13:54:56.000,-0.03,0.05
13:54:56.004,-0.02,0.06
13:54:56.008,-0.015,0.045
13:54:56.012,-0.015,0.035
13:54:56.016,-0.015,0.04
13:54:56.020,0.0,0.05
13:54:56.024,0.0,0.065
13:54:56.028,-0.015,0.06
13:54:56.032,-0.025,0.05
13:54:56.036,-0.015,0.055
13:54:56.040,-0.02,0.08
13:54:56.044,-0.02,0.055
13:54:56.048,-0.04,0.065
13:54:56.052,-0.06,0.045
13:54:56.056,-0.08,0.045
13:54:56.060,-0.065,0.05
13:54:56.064,-0.085,0.065
13:54:56.068,-0.09,0.08
13:54:56.072,-0.09,0.075
13:54:56.076,-0.11,0.055
13:54:56.080,-0.12,0.06
13:54:56.084,-0.12,0.045
13:54:56.088,-0.105,0.07
13:54:56.092,-0.125,0.045
13:54:56.096,-0.12,0.05
13:54:56.100,-0.125,0.04
13:54:56.104,-0.135,0.035
13:54:56.108,-0.125,0.045
13:54:56.112,-0.125,0.055
13:54:56.116,-0.14,0.035
13:54:56.120,-0.135,0.05
13:54:56.124,-0.125,0.04
13:54:56.128,-0.125,0.04
13:54:56.132,-0.125,0.015
13:54:56.136,-0.145,0.035
13:54:56.140,-0.14,0.035
13:54:56.144,-0.13,0.05
13:54:56.148,-0.115,0.015
13:54:56.152,-0.12,0.03
13:54:56.156,-0.12,0.03
13:54:56.160,-0.135,0.025
13:54:56.164,-0.11,0.03
13:54:56.168,-0.115,0.035
13:54:56.172,-0.12,0.025
13:54:56.176,-0.135,0.03
13:54:56.180,-0.11,0.04
13:54:56.184,-0.12,0.035
13:54:56.188,-0.115,0.035
13:54:56.192,-0.13,0.025
13:54:56.196,-0.12,0.015
13:54:56.200,-0.12,0.01
13:54:56.204,-0.12,0.015
13:54:56.208,-0.11,0.02
13:54:56.212,-0.115,0.03
13:54:56.216,-0.115,0.015
13:54:56.220,-0.115,0.03
13:54:56.224,-0.125,0.035
13:54:56.228,-0.14,0.015
13:54:56.232,-0.135,0.02
13:54:56.236,-0.135,0.01
13:54:56.240,-0.125,0.01
13:54:56.244,-0.145,0.01
13:54:56.248,-0.13,0.01
13:54:56.252,-0.115,0.015
13:54:56.256,-0.11,0.03
13:54:56.260,-0.105,0.02
13:54:56.264,-0.1,0.005
13:54:56.268,-0.1,0.02
13:54:56.272,-0.095,0.025
13:54:56.276,-0.08,0.02
13:54:56.280,-0.08,0.015
13:54:56.284,-0.06,0.005
13:54:56.288,-0.055,0.0
13:54:56.292,-0.055,-0.01
13:54:56.296,-0.05,-0.005
13:54:56.300,-0.06,0.01
13:54:56.304,-0.055,0.015
13:54:56.308,-0.075,0.015
13:54:56.312,-0.065,0.035
13:54:56.316,-0.065,0.04
13:54:56.320,-0.055,0.025
13:54:56.324,-0.08,0.025
13:54:56.328,-0.085,0.025
13:54:56.332,-0.115,0.03
13:54:56.336,-0.105,0.035
13:54:56.340,-0.105,0.045
13:54:56.344,-0.13,0.045
13:54:56.348,-0.13,0.05
13:54:56.352,-0.155,0.04
13:54:56.356,-0.15,0.025
13:54:56.360,-0.13,0.02
13:54:56.364,-0.15,0.03
13:54:56.368,-0.145,0.03
13:54:56.372,-0.16,0.03
13:54:56.376,-0.15,0.025
13:54:56.380,-0.16,0.02
13:54:56.384,-0.14,0.03
13:54:56.388,-0.165,0.03
13:54:56.392,-0.15,0.025
13:54:56.396,-0.175,0.04
13:54:56.400,-0.15,0.035
13:54:56.404,-0.16,0.035
13:54:56.408,-0.145,0.03
13:54:56.412,-0.14,0.02
13:54:56.416,-0.14,0.02
13:54:56.420,-0.15,0.03
13:54:56.424,-0.13,0.025
13:54:56.428,-0.125,0.015
13:54:56.432,-0.125,0.005
13:54:56.436,-0.15,0.02
13:54:56.440,-0.125,0.02
13:54:56.444,-0.13,0.02
13:54:56.448,-0.135,0.02
13:54:56.452,-0.125,0.03
13:54:56.456,-0.14,0.025
13:54:56.460,-0.135,0.025
13:54:56.464,-0.135,0.035
13:54:56.468,-0.13,0.035
13:54:56.472,-0.12,0.03
13:54:56.476,-0.115,0.02
13:54:56.480,-0.115,0.045
13:54:56.484,-0.12,0.03
13:54:56.488,-0.105,0.02
13:54:56.492,-0.125,0.01
13:54:56.496,-0.12,0.025
13:54:56.500,-0.14,0.02
13:54:56.504,-0.14,0.03
13:54:56.508,-0.135,0.02
13:54:56.512,-0.12,0.015
13:54:56.516,-0.11,0.03
13:54:56.520,-0.115,0.03
13:54:56.524,-0.115,0.04
13:54:56.528,-0.12,0.04
13:54:56.532,-0.125,0.05
13:54:56.536,-0.11,0.04
13:54:56.540,-0.11,0.035
13:54:56.544,-0.115,0.045
13:54:56.548,-0.115,0.03
13:54:56.552,-0.09,0.04
13:54:56.556,-0.1,0.04
13:54:56.560,-0.09,0.03
13:54:56.564,-0.1,0.035
13:54:56.568,-0.085,0.04
13:54:56.572,-0.07,0.05
13:54:56.576,-0.04,0.045
13:54:56.580,-0.045,0.035
13:54:56.584,-0.045,0.03
13:54:56.588,-0.03,0.015
13:54:56.592,-0.035,0.03
13:54:56.596,-0.05,0.035
13:54:56.600,-0.035,0.02
13:54:56.604,-0.05,0.035
13:54:56.608,-0.04,0.03
13:54:56.612,-0.04,0.04
13:54:56.616,-0.05,0.035
13:54:56.620,-0.065,0.06
13:54:56.624,-0.07,0.05
13:54:56.628,-0.095,0.055
13:54:56.632,-0.105,0.065
13:54:56.636,-0.1,0.055
13:54:56.640,-0.11,0.065
13:54:56.644,-0.115,0.045
13:54:56.648,-0.12,0.035
13:54:56.652,-0.11,0.04
13:54:56.656,-0.12,0.04
13:54:56.660,-0.11,0.055
13:54:56.664,-0.11,0.045
13:54:56.668,-0.065,0.06
13:54:56.672,0.05,0.05
13:54:56.676,0.265,0.085
13:54:56.680,0.525,0.075
13:54:56.684,0.78,0.055
13:54:56.688,1.01,0.0
13:54:56.692,1.135,-0.035
13:54:56.696,1.04,-0.13
13:54:56.700,0.67,-0.225
13:54:56.704,0.19,-0.32
13:54:56.708,-0.255,-0.41
13:54:56.712,-0.47,-0.455
13:54:56.716,-0.545,-0.44
13:54:56.720,-0.535,-0.365
13:54:56.724,-0.45,-0.255
13:54:56.728,-0.355,-0.155
13:54:56.732,-0.26,-0.045
13:54:56.736,-0.215,0.02
13:54:56.740,-0.175,0.095
13:54:56.744,-0.175,0.12
13:54:56.748,-0.185,0.135
13:54:56.752,-0.165,0.12
13:54:56.756,-0.18,0.115
13:54:56.760,-0.185,0.105
13:54:56.764,-0.19,0.085
13:54:56.768,-0.19,0.09
13:54:56.772,-0.19,0.085
13:54:56.776,-0.2,0.08
13:54:56.780,-0.2,0.08
13:54:56.784,-0.19,0.06
13:54:56.788,-0.205,0.065
13:54:56.792,-0.21,0.065
13:54:56.796,-0.2,0.08
13:54:56.800,-0.19,0.075
13:54:56.804,-0.2,0.075
13:54:56.808,-0.18,0.075
13:54:56.812,-0.185,0.08
13:54:56.816,-0.195,0.08
13:54:56.820,-0.195,0.09
13:54:56.824,-0.195,0.09
13:54:56.828,-0.195,0.08
13:54:56.832,-0.185,0.075
13:54:56.836,-0.195,0.075
13:54:56.840,-0.2,0.075
13:54:56.844,-0.195,0.075
13:54:56.848,-0.19,0.085
13:54:56.852,-0.19,0.075
13:54:56.856,-0.185,0.08
13:54:56.860,-0.19,0.08
13:54:56.864,-0.195,0.075
13:54:56.868,-0.18,0.065
13:54:56.872,-0.17,0.075
13:54:56.876,-0.145,0.08
13:54:56.880,-0.14,0.075
13:54:56.884,-0.15,0.08
13:54:56.888,-0.155,0.09
13:54:56.892,-0.16,0.085
13:54:56.896,-0.155,0.105
13:54:56.900,-0.16,0.1
13:54:56.904,-0.17,0.09
13:54:56.908,-0.18,0.095
13:54:56.912,-0.195,0.1
13:54:56.916,-0.18,0.105
13:54:56.920,-0.19,0.1
13:54:56.924,-0.205,0.115
13:54:56.928,-0.215,0.11
13:54:56.932,-0.235,0.095
13:54:56.936,-0.225,0.11
13:54:56.940,-0.215,0.095
13:54:56.944,-0.21,0.09
13:54:56.948,-0.23,0.085
13:54:56.952,-0.205,0.065
13:54:56.956,-0.2,0.06
13:54:56.960,-0.195,0.08
13:54:56.964,-0.185,0.075
13:54:56.968,-0.16,0.065
13:54:56.972,-0.145,0.07
13:54:56.976,-0.115,0.07
13:54:56.980,-0.11,0.04
13:54:56.984,-0.09,0.045
13:54:56.988,-0.07,0.045
13:54:56.992,-0.055,0.05
13:54:56.996,-0.055,0.045
13:54:57.000,-0.04,0.035
13:54:57.004,-0.025,0.035
13:54:57.008,-0.01,0.045
13:54:57.012,-0.025,0.045
13:54:57.016,-0.02,0.04
13:54:57.020,-0.005,0.05
13:54:57.024,0.0,0.045
13:54:57.028,-0.01,0.035
13:54:57.032,0.0,0.05
13:54:57.036,-0.02,0.05
13:54:57.040,-0.015,0.04
13:54:57.044,-0.005,0.045
13:54:57.048,-0.01,0.035
13:54:57.052,-0.025,0.025
13:54:57.056,-0.035,0.04
13:54:57.060,-0.04,0.03
13:54:57.064,-0.055,0.03
13:54:57.068,-0.05,0.025
13:54:57.072,-0.06,0.015
13:54:57.076,-0.07,0.035
13:54:57.080,-0.075,0.015
13:54:57.084,-0.06,0.025
13:54:57.088,-0.06,0.03
13:54:57.092,-0.06,0.03
13:54:57.096,-0.06,0.04
13:54:57.100,-0.07,0.04
13:54:57.104,-0.06,0.035
13:54:57.108,-0.055,0.04
13:54:57.112,-0.04,0.04
13:54:57.116,-0.05,0.035
13:54:57.120,-0.04,0.035
13:54:57.124,-0.06,0.045
13:54:57.128,-0.06,0.035
13:54:57.132,-0.055,0.03
13:54:57.136,-0.05,0.04
13:54:57.140,-0.04,0.045
13:54:57.144,-0.04,0.035
13:54:57.148,-0.025,0.025
13:54:57.152,-0.02,0.025
13:54:57.156,0.0,0.03
13:54:57.160,-0.01,0.03
13:54:57.164,0.0,0.03
13:54:57.168,-0.005,0.04
13:54:57.172,0.0,0.05
13:54:57.176,0.01,0.06
13:54:57.180,0.0,0.035
13:54:57.184,0.0,0.035
13:54:57.188,-0.005,0.055
13:54:57.192,-0.01,0.05
13:54:57.196,-0.015,0.05
13:54:57.200,-0.05,0.045
13:54:57.204,-0.055,0.04
13:54:57.208,-0.07,0.065
13:54:57.212,-0.075,0.05
13:54:57.216,-0.08,0.045
13:54:57.220,-0.09,0.055
13:54:57.224,-0.09,0.05
13:54:57.228,-0.1,0.04
13:54:57.232,-0.105,0.045
13:54:57.236,-0.1,0.035
13:54:57.240,-0.125,0.03
13:54:57.244,-0.115,0.04
13:54:57.248,-0.135,0.04
13:54:57.252,-0.1,0.04
13:54:57.256,-0.12,0.03
13:54:57.260,-0.125,0.035
13:54:57.264,-0.13,0.04
13:54:57.268,-0.14,0.025
13:54:57.272,-0.13,0.02
13:54:57.276,-0.14,0.015
13:54:57.280,-0.14,0.025
13:54:57.284,-0.125,0.03
13:54:57.288,-0.13,0.02
13:54:57.292,-0.12,0.015
13:54:57.296,-0.125,0.015
13:54:57.300,-0.135,0.015
13:54:57.304,-0.135,0.015
13:54:57.308,-0.125,0.025
13:54:57.312,-0.135,0.02
13:54:57.316,-0.145,0.02
13:54:57.320,-0.125,0.025
13:54:57.324,-0.12,0.03
13:54:57.328,-0.125,0.015
13:54:57.332,-0.13,0.025
13:54:57.336,-0.11,0.025
13:54:57.340,-0.11,0.02
13:54:57.344,-0.11,0.02
13:54:57.348,-0.1,0.015
13:54:57.352,-0.12,0.0
13:54:57.356,-0.125,0.005
13:54:57.360,-0.13,-0.005
13:54:57.364,-0.135,0.0
13:54:57.368,-0.13,0.0
13:54:57.372,-0.13,0.005
13:54:57.376,-0.145,0.005
13:54:57.380,-0.12,-0.015
13:54:57.384,-0.125,0.0
13:54:57.388,-0.125,0.0
13:54:57.392,-0.125,0.0
13:54:57.396,-0.13,0.0
13:54:57.400,-0.12,0.0
13:54:57.404,-0.1,0.02
13:54:57.408,-0.125,-0.005
13:54:57.412,-0.11,0.0
13:54:57.416,-0.1,0.0
13:54:57.420,-0.115,0.0
13:54:57.424,-0.11,0.01
13:54:57.428,-0.11,0.0
13:54:57.432,-0.1,0.01
13:54:57.436,-0.105,0.01
13:54:57.440,-0.095,-0.005
13:54:57.444,-0.08,-0.01
13:54:57.448,-0.07,0.005
13:54:57.452,-0.07,0.0
13:54:57.456,-0.065,0.01
13:54:57.460,-0.06,-0.005
13:54:57.464,-0.04,-0.005
13:54:57.468,-0.04,0.0
13:54:57.472,-0.04,0.005
13:54:57.476,-0.05,0.01
13:54:57.480,-0.06,0.015
13:54:57.484,-0.065,0.025
13:54:57.488,-0.08,0.045
13:54:57.492,-0.08,0.025
13:54:57.496,-0.1,0.025
13:54:57.500,-0.095,0.015
13:54:57.504,-0.11,0.025
13:54:57.508,-0.115,0.02
13:54:57.512,-0.09,0.035
13:54:57.516,-0.02,0.02
13:54:57.520,0.095,0.06
13:54:57.524,0.3,0.065
13:54:57.528,0.55,0.055
13:54:57.532,0.78,0.02
13:54:57.536,0.96,-0.005
13:54:57.540,1.025,-0.065
13:54:57.544,0.87,-0.14
13:54:57.548,0.5,-0.23
13:54:57.552,-0.01,-0.32
13:54:57.556,-0.415,-0.395
13:54:57.560,-0.62,-0.45
13:54:57.564,-0.64,-0.45
13:54:57.568,-0.59,-0.385
13:54:57.572,-0.465,-0.285
13:54:57.576,-0.35,-0.19
13:54:57.580,-0.26,-0.08
13:54:57.584,-0.205,-0.01
13:54:57.588,-0.19,0.04
13:54:57.592,-0.18,0.08
13:54:57.596,-0.19,0.085
13:54:57.600,-0.185,0.095
13:54:57.604,-0.195,0.09
13:54:57.608,-0.2,0.085
13:54:57.612,-0.18,0.075
13:54:57.616,-0.18,0.06
13:54:57.620,-0.19,0.06
13:54:57.624,-0.19,0.065
13:54:57.628,-0.185,0.06
13:54:57.632,-0.195,0.05
13:54:57.636,-0.175,0.06
13:54:57.640,-0.165,0.06
13:54:57.644,-0.19,0.055
13:54:57.648,-0.185,0.05
13:54:57.652,-0.195,0.05
13:54:57.656,-0.195,0.055
13:54:57.660,-0.18,0.05
13:54:57.664,-0.19,0.055
13:54:57.668,-0.205,0.045
13:54:57.672,-0.195,0.04
13:54:57.676,-0.18,0.045
13:54:57.680,-0.185,0.06
13:54:57.684,-0.18,0.05
13:54:57.688,-0.185,0.075
13:54:57.692,-0.175,0.065
13:54:57.696,-0.18,0.075
13:54:57.700,-0.18,0.075
13:54:57.704,-0.18,0.08
13:54:57.708,-0.175,0.07
13:54:57.712,-0.18,0.075
13:54:57.716,-0.18,0.08
13:54:57.720,-0.175,0.09
13:54:57.724,-0.18,0.07
13:54:57.728,-0.18,0.08
13:54:57.732,-0.17,0.1
13:54:57.736,-0.16,0.09
13:54:57.740,-0.16,0.09
13:54:57.744,-0.13,0.095
13:54:57.748,-0.12,0.08
13:54:57.752,-0.13,0.1
13:54:57.756,-0.13,0.1
13:54:57.760,-0.12,0.1
13:54:57.764,-0.09,0.09
13:54:57.768,-0.11,0.095
13:54:57.772,-0.13,0.09
13:54:57.776,-0.1,0.1
13:54:57.780,-0.12,0.12
13:54:57.784,-0.13,0.105
13:54:57.788,-0.14,0.11
13:54:57.792,-0.14,0.105
13:54:57.796,-0.15,0.095
13:54:57.800,-0.115,0.115
13:54:57.804,-0.12,0.105
13:54:57.808,-0.11,0.1
13:54:57.812,-0.095,0.095
13:54:57.816,-0.085,0.1
13:54:57.820,-0.08,0.09
13:54:57.824,-0.075,0.07
13:54:57.828,-0.05,0.07
13:54:57.832,-0.035,0.075
13:54:57.836,-0.055,0.06
13:54:57.840,-0.035,0.065
13:54:57.844,-0.035,0.055
13:54:57.848,-0.02,0.06
13:54:57.852,-0.01,0.05
13:54:57.856,-0.02,0.06
13:54:57.860,-0.03,0.05
13:54:57.864,-0.03,0.045
13:54:57.868,-0.03,0.04
13:54:57.872,-0.045,0.04
13:54:57.876,-0.065,0.05
13:54:57.880,-0.065,0.05
13:54:57.884,-0.07,0.05
13:54:57.888,-0.04,0.05
13:54:57.892,-0.05,0.045
13:54:57.896,-0.04,0.035
13:54:57.900,-0.06,0.035
13:54:57.904,-0.05,0.055
13:54:57.908,-0.065,0.03
13:54:57.912,-0.06,0.03
13:54:57.916,-0.08,0.02
13:54:57.920,-0.08,0.02
13:54:57.924,-0.09,0.025
13:54:57.928,-0.09,0.025
13:54:57.932,-0.085,0.01
13:54:57.936,-0.085,0.02
13:54:57.940,-0.09,0.025
13:54:57.944,-0.085,0.02
13:54:57.948,-0.085,0.015
13:54:57.952,-0.075,0.02
13:54:57.956,-0.075,0.025
13:54:57.960,-0.075,0.035
13:54:57.964,-0.08,0.04
13:54:57.968,-0.075,0.05
13:54:57.972,-0.08,0.055
13:54:57.976,-0.075,0.06
13:54:57.980,-0.075,0.05
13:54:57.984,-0.06,0.055
13:54:57.988,-0.07,0.055
13:54:57.992,-0.055,0.05
13:54:57.996,-0.055,0.05
13:54:58.000,-0.035,0.055
13:54:58.004,-0.05,0.045
13:54:58.008,-0.035,0.045
13:54:58.012,-0.01,0.035
13:54:58.016,-0.02,0.025
13:54:58.020,-0.01,0.03
13:54:58.024,-0.005,0.035
13:54:58.028,0.0,0.03
13:54:58.032,0.015,0.015
13:54:58.036,0.025,0.035
13:54:58.040,0.03,0.05
13:54:58.044,0.02,0.055
13:54:58.048,0.005,0.055
13:54:58.052,0.01,0.045
13:54:58.056,0.015,0.045
13:54:58.060,0.0,0.05
13:54:58.064,-0.01,0.055
13:54:58.068,-0.015,0.06
13:54:58.072,-0.05,0.03
13:54:58.076,-0.05,0.04
13:54:58.080,-0.06,0.045
13:54:58.084,-0.07,0.05
13:54:58.088,-0.09,0.05
13:54:58.092,-0.105,0.045
13:54:58.096,-0.085,0.035
13:54:58.100,-0.095,0.03
13:54:58.104,-0.09,0.035
13:54:58.108,-0.105,0.04
13:54:58.112,-0.11,0.03
13:54:58.116,-0.11,0.025
13:54:58.120,-0.115,0.04
13:54:58.124,-0.105,0.04
13:54:58.128,-0.11,0.035
13:54:58.132,-0.115,0.015
13:54:58.136,-0.125,0.015
13:54:58.140,-0.11,0.03
13:54:58.144,-0.11,0.015
13:54:58.148,-0.11,0.03
13:54:58.152,-0.11,0.02
13:54:58.156,-0.115,0.04
13:54:58.160,-0.105,0.035
13:54:58.164,-0.105,0.015
13:54:58.168,-0.11,0.015
13:54:58.172,-0.115,0.015
13:54:58.176,-0.11,0.0
13:54:58.180,-0.11,0.01
13:54:58.184,-0.11,0.02
13:54:58.188,-0.115,0.03
13:54:58.192,-0.125,0.025
13:54:58.196,-0.12,0.015
13:54:58.200,-0.115,0.01
13:54:58.204,-0.115,0.01
13:54:58.208,-0.09,0.0
13:54:58.212,-0.115,-0.01
13:54:58.216,-0.1,-0.015
13:54:58.220,-0.105,0.0
13:54:58.224,-0.11,0.0
13:54:58.228,-0.105,-0.005
13:54:58.232,-0.085,0.0
13:54:58.236,-0.105,0.0
13:54:58.240,-0.11,0.01
13:54:58.244,-0.1,0.01
13:54:58.248,-0.09,0.015
13:54:58.252,-0.095,0.015
13:54:58.256,-0.105,0.005
13:54:58.260,-0.095,0.01
13:54:58.264,-0.08,0.015
13:54:58.268,-0.08,0.015
13:54:58.272,-0.075,-0.005
13:54:58.276,-0.07,0.0
13:54:58.280,-0.065,0.0
13:54:58.284,-0.06,0.005
13:54:58.288,-0.05,-0.005
13:54:58.292,-0.04,0.01
13:54:58.296,-0.04,0.0
13:54:58.300,-0.035,0.0
13:54:58.304,-0.015,0.02
13:54:58.308,0.0,0.005
13:54:58.312,-0.015,0.01
13:54:58.316,-0.005,0.025
13:54:58.320,-0.025,0.03
13:54:58.324,-0.02,0.015
13:54:58.328,-0.03,0.045
13:54:58.332,-0.025,0.035
13:54:58.336,-0.05,0.025
13:54:58.340,-0.055,0.025
13:54:58.344,-0.045,0.04
13:54:58.348,0.02,0.06
13:54:58.352,0.15,0.07
13:54:58.356,0.385,0.095
13:54:58.360,0.605,0.05
13:54:58.364,0.82,0.025
13:54:58.368,0.97,-0.01
13:54:58.372,0.995,-0.08
13:54:58.376,0.79,-0.18
13:54:58.380,0.37,-0.295
13:54:58.384,-0.125,-0.37
13:54:58.388,-0.515,-0.45
13:54:58.392,-0.68,-0.5
13:54:58.396,-0.685,-0.47
13:54:58.400,-0.62,-0.4
13:54:58.404,-0.485,-0.305
13:54:58.408,-0.365,-0.21
13:54:58.412,-0.27,-0.09
13:54:58.416,-0.21,-0.01
13:54:58.420,-0.185,0.055
13:54:58.424,-0.195,0.08
13:54:58.428,-0.205,0.09
13:54:58.432,-0.2,0.095
13:54:58.436,-0.18,0.085
13:54:58.440,-0.17,0.075
13:54:58.444,-0.19,0.065
13:54:58.448,-0.19,0.065
13:54:58.452,-0.205,0.06
13:54:58.456,-0.21,0.06
13:54:58.460,-0.2,0.05
13:54:58.464,-0.195,0.05
13:54:58.468,-0.205,0.03
13:54:58.472,-0.21,0.055
13:54:58.476,-0.205,0.055
13:54:58.480,-0.185,0.03
13:54:58.484,-0.18,0.04
13:54:58.488,-0.185,0.03
13:54:58.492,-0.2,0.03
13:54:58.496,-0.18,0.055
13:54:58.500,-0.18,0.03
13:54:58.504,-0.185,0.05
13:54:58.508,-0.175,0.04
13:54:58.512,-0.175,0.035
13:54:58.516,-0.175,0.035
13:54:58.520,-0.17,0.05
13:54:58.524,-0.165,0.055
13:54:58.528,-0.17,0.065
13:54:58.532,-0.17,0.07
13:54:58.536,-0.18,0.06
13:54:58.540,-0.16,0.065
13:54:58.544,-0.145,0.055
13:54:58.548,-0.14,0.06
13:54:58.552,-0.145,0.055
13:54:58.556,-0.145,0.06
13:54:58.560,-0.13,0.065
13:54:58.564,-0.125,0.075
13:54:58.568,-0.115,0.065
13:54:58.572,-0.12,0.07
13:54:58.576,-0.12,0.07
13:54:58.580,-0.1,0.075
13:54:58.584,-0.135,0.085
13:54:58.588,-0.1,0.1
13:54:58.592,-0.115,0.095
13:54:58.596,-0.13,0.075
13:54:58.600,-0.145,0.09
13:54:58.604,-0.14,0.08
13:54:58.608,-0.145,0.075
13:54:58.612,-0.155,0.09
13:54:58.616,-0.16,0.095
13:54:58.620,-0.16,0.08
13:54:58.624,-0.13,0.075
13:54:58.628,-0.13,0.08
13:54:58.632,-0.13,0.06
13:54:58.636,-0.12,0.045
13:54:58.640,-0.1,0.04
13:54:58.644,-0.07,0.05
13:54:58.648,-0.065,0.035
13:54:58.652,-0.05,0.04
13:54:58.656,-0.055,0.035
13:54:58.660,-0.05,0.03
13:54:58.664,-0.035,0.01
13:54:58.668,-0.03,0.03
13:54:58.672,-0.025,0.015
13:54:58.676,-0.035,0.02
13:54:58.680,-0.02,0.015
13:54:58.684,-0.04,0.025
13:54:58.688,-0.025,0.005
13:54:58.692,-0.04,0.0
13:54:58.696,-0.035,0.01
13:54:58.700,-0.045,0.01
13:54:58.704,-0.06,0.02
13:54:58.708,-0.05,0.0
13:54:58.712,-0.05,0.01
13:54:58.716,-0.065,0.015
13:54:58.720,-0.075,0.02
13:54:58.724,-0.07,0.025
13:54:58.728,-0.08,0.02
13:54:58.732,-0.08,0.01
13:54:58.736,-0.08,0.01
13:54:58.740,-0.095,0.015
13:54:58.744,-0.09,0.01
13:54:58.748,-0.075,0.02
13:54:58.752,-0.095,0.01
13:54:58.756,-0.08,-0.005
13:54:58.760,-0.095,-0.005
13:54:58.764,-0.08,0.0
13:54:58.768,-0.095,-0.005
13:54:58.772,-0.07,0.0
13:54:58.776,-0.07,-0.01
13:54:58.780,-0.05,0.0
13:54:58.784,-0.065,0.0
13:54:58.788,-0.055,0.005
13:54:58.792,-0.06,0.03
13:54:58.796,-0.04,0.015
13:54:58.800,-0.06,0.015
13:54:58.804,-0.045,0.03
13:54:58.808,-0.05,0.0
13:54:58.812,-0.04,0.01
13:54:58.816,-0.035,0.02
13:54:58.820,-0.015,0.025
13:54:58.824,-0.02,0.015
13:54:58.828,-0.01,0.02
13:54:58.832,0.0,0.025
13:54:58.836,0.005,0.01
13:54:58.840,0.02,0.03
13:54:58.844,0.03,0.04
13:54:58.848,0.02,0.035
13:54:58.852,0.02,0.05
13:54:58.856,0.0,0.05
13:54:58.860,-0.005,0.06
13:54:58.864,-0.01,0.055
13:54:58.868,-0.015,0.055
13:54:58.872,-0.01,0.07
13:54:58.876,-0.015,0.055
13:54:58.880,-0.035,0.07
13:54:58.884,-0.05,0.055
13:54:58.888,-0.075,0.075
13:54:58.892,-0.06,0.06
13:54:58.896,-0.055,0.06
13:54:58.900,-0.04,0.05
13:54:58.904,-0.065,0.05
13:54:58.908,-0.07,0.04
13:54:58.912,-0.075,0.045
13:54:58.916,-0.075,0.04
13:54:58.920,-0.08,0.05
13:54:58.924,-0.095,0.045
13:54:58.928,-0.08,0.045
13:54:58.932,-0.09,0.05
13:54:58.936,-0.105,0.045
13:54:58.940,-0.09,0.045
13:54:58.944,-0.1,0.04
13:54:58.948,-0.09,0.04
13:54:58.952,-0.1,0.045
13:54:58.956,-0.12,0.03
13:54:58.960,-0.11,0.025
13:54:58.964,-0.1,0.04
13:54:58.968,-0.03,0.045
13:54:58.972,0.105,0.05
13:54:58.976,0.325,0.055
13:54:58.980,0.575,0.04
13:54:58.984,0.815,-0.015
13:54:58.988,1.0,-0.05
13:54:58.992,1.045,-0.115
13:54:58.996,0.865,-0.195
13:54:59.000,0.445,-0.31
13:54:59.004,-0.03,-0.405
13:54:59.008,-0.44,-0.46
13:54:59.012,-0.59,-0.495
13:54:59.016,-0.6,-0.44
13:54:59.020,-0.52,-0.35
13:54:59.024,-0.4,-0.245
13:54:59.028,-0.26,-0.145
13:54:59.032,-0.19,-0.04
13:54:59.036,-0.14,0.025
13:54:59.040,-0.13,0.075
13:54:59.044,-0.14,0.085
13:54:59.048,-0.14,0.085
13:54:59.052,-0.13,0.08
13:54:59.056,-0.125,0.07
13:54:59.060,-0.105,0.06
13:54:59.064,-0.11,0.075
13:54:59.068,-0.11,0.05
13:54:59.072,-0.12,0.035
13:54:59.076,-0.105,0.045
13:54:59.080,-0.1,0.045
13:54:59.084,-0.12,0.045
13:54:59.088,-0.13,0.045
13:54:59.092,-0.115,0.035
13:54:59.096,-0.1,0.045
13:54:59.100,-0.095,0.05
13:54:59.104,-0.11,0.045
13:54:59.108,-0.105,0.02
13:54:59.112,-0.095,0.025
13:54:59.116,-0.095,0.03
13:54:59.120,-0.08,0.035
13:54:59.124,-0.08,0.025
13:54:59.128,-0.075,0.035
13:54:59.132,-0.08,0.045
13:54:59.136,-0.08,0.06
13:54:59.140,-0.105,0.06
13:54:59.144,-0.115,0.075
13:54:59.148,-0.12,0.05
13:54:59.152,-0.13,0.05
13:54:59.156,-0.145,0.065
13:54:59.160,-0.165,0.065
13:54:59.164,-0.175,0.085
13:54:59.168,-0.17,0.09
13:54:59.172,-0.17,0.075
13:54:59.176,-0.185,0.075
13:54:59.180,-0.185,0.075
13:54:59.184,-0.195,0.09
13:54:59.188,-0.215,0.09
13:54:59.192,-0.215,0.07
13:54:59.196,-0.21,0.06
13:54:59.200,-0.205,0.065
13:54:59.204,-0.21,0.075
13:54:59.208,-0.22,0.075
13:54:59.212,-0.21,0.07
13:54:59.216,-0.2,0.065
13:54:59.220,-0.2,0.05
13:54:59.224,-0.195,0.04
13:54:59.228,-0.18,0.07
13:54:59.232,-0.185,0.045
13:54:59.236,-0.165,0.05
13:54:59.240,-0.14,0.04
13:54:59.244,-0.12,0.04
13:54:59.248,-0.14,0.04
13:54:59.252,-0.115,0.025
13:54:59.256,-0.1,0.035
13:54:59.260,-0.075,0.03
13:54:59.264,-0.075,0.02
13:54:59.268,-0.07,0.02
13:54:59.272,-0.045,0.005
13:54:59.276,-0.035,0.0
13:54:59.280,-0.03,0.0
13:54:59.284,-0.035,0.005
13:54:59.288,-0.02,0.015
13:54:59.292,-0.03,0.0
13:54:59.296,-0.03,-0.005
13:54:59.300,-0.02,-0.015
13:54:59.304,-0.03,0.0
13:54:59.308,-0.03,-0.005
13:54:59.312,-0.045,-0.02
13:54:59.316,-0.06,-0.01
13:54:59.320,-0.045,-0.015
13:54:59.324,-0.045,-0.01
13:54:59.328,-0.045,-0.015
13:54:59.332,-0.055,0.0
13:54:59.336,-0.065,0.005
13:54:59.340,-0.06,-0.005
13:54:59.344,-0.055,0.0
13:54:59.348,-0.07,-0.01
13:54:59.352,-0.04,-0.01
13:54:59.356,-0.065,-0.01
13:54:59.360,-0.065,-0.02
13:54:59.364,-0.07,-0.02
13:54:59.368,-0.04,0.0
13:54:59.372,-0.035,-0.02
13:54:59.376,-0.03,0.0
13:54:59.380,-0.04,0.0
13:54:59.384,-0.03,-0.02
13:54:59.388,-0.02,-0.01
13:54:59.392,0.0,0.005
13:54:59.396,-0.01,-0.01
13:54:59.400,-0.02,-0.005
13:54:59.404,-0.02,0.0
13:54:59.408,0.0,-0.005
13:54:59.412,-0.01,0.0
13:54:59.416,-0.005,0.01
13:54:59.420,-0.015,0.005
13:54:59.424,-0.045,0.005
13:54:59.428,-0.045,0.0
13:54:59.432,-0.055,0.015
13:54:59.436,-0.07,0.015
13:54:59.440,-0.08,0.025
13:54:59.444,-0.085,0.015
13:54:59.448,-0.08,0.015
13:54:59.452,-0.075,0.005
13:54:59.456,-0.07,0.01
13:54:59.460,-0.11,0.0
13:54:59.464,-0.11,0.0
13:54:59.468,-0.11,0.0
13:54:59.472,-0.105,0.0
13:54:59.476,-0.095,0.01
13:54:59.480,-0.105,0.01
13:54:59.484,-0.12,0.005
13:54:59.488,-0.11,0.0
13:54:59.492,-0.12,-0.005
13:54:59.496,-0.12,-0.005
13:54:59.500,-0.115,-0.01
13:54:59.504,-0.13,-0.025
13:54:59.508,-0.145,-0.025
13:54:59.512,-0.12,-0.01
13:54:59.516,-0.105,0.0
13:54:59.520,-0.12,-0.005
13:54:59.524,-0.125,-0.01
13:54:59.528,-0.12,-0.015
13:54:59.532,-0.135,-0.01
13:54:59.536,-0.13,-0.005
13:54:59.540,-0.12,-0.02
13:54:59.544,-0.135,-0.015
13:54:59.548,-0.135,-0.02
13:54:59.552,-0.13,-0.015
13:54:59.556,-0.135,-0.015
13:54:59.560,-0.12,-0.02
13:54:59.564,-0.135,-0.03
13:54:59.568,-0.14,-0.025
13:54:59.572,-0.13,-0.025
13:54:59.576,-0.13,-0.025
13:54:59.580,-0.12,-0.03
13:54:59.584,-0.125,-0.025
13:54:59.588,-0.125,-0.025
13:54:59.592,-0.12,-0.035
13:54:59.596,-0.115,-0.03
13:54:59.600,-0.1,-0.035
13:54:59.604,-0.105,-0.02
13:54:59.608,-0.1,-0.025
13:54:59.612,-0.115,-0.04
13:54:59.616,-0.085,-0.015
13:54:59.620,-0.09,-0.01
13:54:59.624,-0.095,0.0
13:54:59.628,-0.08,0.01
13:54:59.632,-0.085,0.005
13:54:59.636,-0.08,0.005
13:54:59.640,-0.075,0.0
13:54:59.644,-0.065,0.02
13:54:59.648,-0.06,0.02
13:54:59.652,-0.045,0.0
13:54:59.656,-0.04,0.0
13:54:59.660,-0.03,0.015
13:54:59.664,-0.01,0.005
13:54:59.668,-0.025,0.01
13:54:59.672,-0.02,0.01
13:54:59.676,-0.02,0.0
13:54:59.680,-0.035,0.015
13:54:59.684,-0.03,0.03
13:54:59.688,-0.035,0.01
13:54:59.692,-0.05,0.025
13:54:59.696,-0.045,0.025
13:54:59.700,-0.065,0.035
13:54:59.704,-0.07,0.035
13:54:59.708,-0.08,0.03
13:54:59.712,-0.085,0.045
13:54:59.716,-0.085,0.035
13:54:59.720,-0.085,0.04
13:54:59.724,-0.09,0.04
13:54:59.728,-0.09,0.03
13:54:59.732,-0.075,0.035
13:54:59.736,-0.09,0.03
13:54:59.740,-0.095,0.03
13:54:59.744,-0.085,0.04
13:54:59.748,-0.085,0.03
13:54:59.752,-0.095,0.035
13:54:59.756,-0.105,0.035
13:54:59.760,-0.075,0.035
13:54:59.764,0.01,0.065
13:54:59.768,0.165,0.075
13:54:59.772,0.39,0.075
13:54:59.776,0.635,0.045
13:54:59.780,0.865,0.035
13:54:59.784,1.045,-0.025
13:54:59.788,1.085,-0.095
13:54:59.792,0.895,-0.195
13:54:59.796,0.485,-0.275
13:54:59.800,-0.03,-0.37
13:54:59.804,-0.415,-0.455
13:54:59.808,-0.56,-0.465
13:54:59.812,-0.6,-0.43
13:54:59.816,-0.545,-0.355
13:54:59.820,-0.435,-0.25
13:54:59.824,-0.31,-0.135
13:54:59.828,-0.24,-0.04
13:54:59.832,-0.185,0.02
13:54:59.836,-0.165,0.09
13:54:59.840,-0.16,0.11
13:54:59.844,-0.17,0.115
13:54:59.848,-0.165,0.105
13:54:59.852,-0.155,0.095
13:54:59.856,-0.18,0.07
13:54:59.860,-0.175,0.085
13:54:59.864,-0.175,0.085
13:54:59.868,-0.155,0.08
13:54:59.872,-0.15,0.065
13:54:59.876,-0.155,0.065
13:54:59.880,-0.16,0.065
13:54:59.884,-0.17,0.075
13:54:59.888,-0.155,0.06
13:54:59.892,-0.15,0.055
13:54:59.896,-0.15,0.06
13:54:59.900,-0.18,0.065
13:54:59.904,-0.16,0.06
13:54:59.908,-0.165,0.045
13:54:59.912,-0.16,0.065
13:54:59.916,-0.145,0.08
13:54:59.920,-0.145,0.06
13:54:59.924,-0.155,0.04
13:54:59.928,-0.16,0.065
13:54:59.932,-0.14,0.06
13:54:59.936,-0.12,0.06
13:54:59.940,-0.125,0.07
13:54:59.944,-0.115,0.07
13:54:59.948,-0.125,0.07
13:54:59.952,-0.12,0.075
13:54:59.956,-0.12,0.09
13:54:59.960,-0.13,0.095
13:54:59.964,-0.145,0.095
13:54:59.968,-0.16,0.11
13:54:59.972,-0.165,0.11
13:54:59.976,-0.175,0.105
13:54:59.980,-0.185,0.13
13:54:59.984,-0.195,0.11
13:54:59.988,-0.2,0.115
13:54:59.992,-0.215,0.115
13:54:59.996,-0.2,0.1
13:55:00.000,-0.2,0.105
13:55:00.004,-0.215,0.1
13:55:00.008,-0.21,0.1
13:55:00.012,-0.21,0.115
13:55:00.016,-0.195,0.09
13:55:00.020,-0.185,0.085
13:55:00.024,-0.195,0.095
13:55:00.028,-0.19,0.095
13:55:00.032,-0.175,0.075
13:55:00.036,-0.18,0.08
13:55:00.040,-0.16,0.075
13:55:00.044,-0.14,0.055
13:55:00.048,-0.155,0.075
13:55:00.052,-0.125,0.06
13:55:00.056,-0.105,0.045
13:55:00.060,-0.085,0.045
13:55:00.064,-0.075,0.035
13:55:00.068,-0.05,0.025
13:55:00.072,-0.04,0.03
13:55:00.076,-0.025,0.03
13:55:00.080,-0.02,0.045
13:55:00.084,-0.015,0.03
13:55:00.088,-0.015,0.02
13:55:00.092,-0.005,0.03
13:55:00.096,-0.005,0.025
13:55:00.100,-0.02,0.035
13:55:00.104,-0.015,0.015
13:55:00.108,0.0,0.02
13:55:00.112,-0.015,0.03
13:55:00.116,-0.015,0.015
13:55:00.120,-0.015,0.025
13:55:00.124,-0.01,0.02
13:55:00.128,-0.015,0.015
13:55:00.132,-0.015,0.02
13:55:00.136,-0.03,0.025
13:55:00.140,-0.025,0.025
13:55:00.144,-0.02,0.025
13:55:00.148,-0.04,0.035
13:55:00.152,-0.04,0.04
13:55:00.156,-0.03,0.035
13:55:00.160,-0.04,0.025
13:55:00.164,-0.03,0.035
13:55:00.168,-0.03,0.04
13:55:00.172,-0.03,0.025
13:55:00.176,-0.035,0.03
13:55:00.180,-0.04,0.04
13:55:00.184,-0.025,0.03
13:55:00.188,-0.01,0.015
13:55:00.192,-0.005,0.02
13:55:00.196,-0.01,0.025
13:55:00.200,-0.01,0.015
13:55:00.204,0.005,0.03
13:55:00.208,0.025,0.02
13:55:00.212,0.035,0.025
13:55:00.216,0.02,0.015
13:55:00.220,0.035,0.025
13:55:00.224,0.04,0.035
13:55:00.228,0.015,0.04
13:55:00.232,0.005,0.045
13:55:00.236,0.005,0.05
13:55:00.240,-0.01,0.045
13:55:00.244,-0.02,0.055
13:55:00.248,-0.05,0.05
13:55:00.252,-0.04,0.045
13:55:00.256,-0.055,0.045
13:55:00.260,-0.055,0.06
13:55:00.264,-0.07,0.055
13:55:00.268,-0.06,0.06
13:55:00.272,-0.075,0.045
13:55:00.276,-0.065,0.05
13:55:00.280,-0.075,0.035
13:55:00.284,-0.08,0.045
13:55:00.288,-0.095,0.04
13:55:00.292,-0.08,0.035
13:55:00.296,-0.08,0.035
13:55:00.300,-0.085,0.035
13:55:00.304,-0.12,0.045
13:55:00.308,-0.1,0.03
13:55:00.312,-0.115,0.04
13:55:00.316,-0.12,0.035
13:55:00.320,-0.1,0.025
13:55:00.324,-0.115,0.015
13:55:00.328,-0.115,0.015
13:55:00.332,-0.115,0.015
13:55:00.336,-0.125,0.015
13:55:00.340,-0.13,0.015
13:55:00.344,-0.12,0.02
13:55:00.348,-0.12,0.015
13:55:00.352,-0.125,0.01
13:55:00.356,-0.12,0.015
13:55:00.360,-0.125,0.02
13:55:00.364,-0.125,0.02
13:55:00.368,-0.125,0.02
13:55:00.372,-0.125,0.01
13:55:00.376,-0.135,0.015
13:55:00.380,-0.115,0.015
13:55:00.384,-0.13,0.03
13:55:00.388,-0.135,0.015
13:55:00.392,-0.15,0.01
13:55:00.396,-0.15,0.0
13:55:00.400,-0.13,0.005
13:55:00.404,-0.125,0.0
13:55:00.408,-0.125,0.0
13:55:00.412,-0.135,0.0
13:55:00.416,-0.125,-0.005
13:55:00.420,-0.12,-0.01
13:55:00.424,-0.115,-0.005
13:55:00.428,-0.105,-0.01
13:55:00.432,-0.115,-0.01
13:55:00.436,-0.12,-0.005
13:55:00.440,-0.1,0.005
13:55:00.444,-0.1,0.0
13:55:00.448,-0.09,0.01
13:55:00.452,-0.11,0.0
13:55:00.456,-0.095,0.02
13:55:00.460,-0.095,0.015
13:55:00.464,-0.085,0.0
13:55:00.468,-0.085,-0.005
13:55:00.472,-0.09,0.005
13:55:00.476,-0.075,0.005
13:55:00.480,-0.07,0.0
13:55:00.484,-0.06,0.0
13:55:00.488,-0.035,-0.005
13:55:00.492,-0.03,0.0
13:55:00.496,-0.05,0.005
13:55:00.500,-0.025,0.02
13:55:00.504,-0.035,0.015
13:55:00.508,-0.025,0.015
13:55:00.512,-0.035,0.025
13:55:00.516,-0.05,0.035
13:55:00.520,-0.075,0.035
13:55:00.524,-0.065,0.01
13:55:00.528,-0.085,0.035
13:55:00.532,-0.08,0.025
13:55:00.536,-0.09,0.035
13:55:00.540,-0.095,0.055
13:55:00.544,-0.1,0.04
13:55:00.548,-0.095,0.025
13:55:00.552,-0.095,0.02
13:55:00.556,-0.1,0.01
13:55:00.560,-0.125,0.02
13:55:00.564,-0.13,0.035
13:55:00.568,-0.13,0.02
13:55:00.572,-0.135,0.03
13:55:00.576,-0.145,0.03
13:55:00.580,-0.14,0.025
13:55:00.584,-0.14,0.03
13:55:00.588,-0.15,0.005
13:55:00.592,-0.14,0.015
13:55:00.596,-0.13,0.0
13:55:00.600,-0.14,0.015
13:55:00.604,-0.13,0.025
13:55:00.608,-0.13,0.015
13:55:00.612,-0.12,0.015
13:55:00.616,-0.12,0.03
13:55:00.620,-0.13,0.005
13:55:00.624,-0.12,0.025
13:55:00.628,-0.11,0.02
13:55:00.632,-0.125,0.03
13:55:00.636,-0.115,0.03
13:55:00.640,-0.11,0.03
13:55:00.644,-0.12,0.025
13:55:00.648,-0.13,0.02
13:55:00.652,-0.125,0.025
13:55:00.656,-0.12,0.03
13:55:00.660,-0.12,0.04
13:55:00.664,-0.12,0.03
13:55:00.668,-0.11,0.025
13:55:00.672,-0.115,0.03
13:55:00.676,-0.105,0.02
13:55:00.680,-0.105,0.02
13:55:00.684,-0.115,0.025
13:55:00.688,-0.11,0.015
13:55:00.692,-0.125,0.015
13:55:00.696,-0.125,0.0
13:55:00.700,-0.12,0.0
13:55:00.704,-0.13,0.0
13:55:00.708,-0.13,0.01
13:55:00.712,-0.115,0.005
13:55:00.716,-0.115,0.01
13:55:00.720,-0.13,0.02
13:55:00.724,-0.125,0.025
13:55:00.728,-0.12,0.02
13:55:00.732,-0.115,0.025
13:55:00.736,-0.12,0.03
13:55:00.740,-0.11,0.02
13:55:00.744,-0.1,0.025
13:55:00.748,-0.1,0.025
13:55:00.752,-0.09,0.02
13:55:00.756,-0.085,0.025
13:55:00.760,-0.09,0.03
13:55:00.764,-0.08,0.025
13:55:00.768,-0.09,0.035
13:55:00.772,-0.09,0.03
13:55:00.776,-0.085,0.04
13:55:00.780,-0.075,0.01
13:55:00.784,-0.07,0.015
13:55:00.788,-0.06,0.015
13:55:00.792,-0.045,0.02
13:55:00.796,-0.06,0.02
13:55:00.800,-0.06,0.005
13:55:00.804,-0.05,0.025
13:55:00.808,-0.045,0.02
13:55:00.812,-0.06,0.02
13:55:00.816,-0.055,0.005
13:55:00.820,-0.05,0.025
13:55:00.824,-0.055,0.015
13:55:00.828,-0.06,0.03
13:55:00.832,-0.06,0.045
13:55:00.836,-0.08,0.035
13:55:00.840,-0.11,0.06
13:55:00.844,-0.105,0.055
13:55:00.848,-0.1,0.055
13:55:00.852,-0.105,0.05
13:55:00.856,-0.115,0.05
13:55:00.860,-0.12,0.06
13:55:00.864,-0.135,0.06
13:55:00.868,-0.105,0.06
13:55:00.872,-0.12,0.05
13:55:00.876,-0.13,0.035
13:55:00.880,-0.13,0.035
13:55:00.884,-0.115,0.035
13:55:00.888,-0.12,0.05
13:55:00.892,-0.12,0.04
13:55:00.896,-0.115,0.04
13:55:00.900,-0.12,0.03
13:55:00.904,-0.12,0.025
13:55:00.908,-0.115,0.02
13:55:00.912,-0.1,0.025
13:55:00.916,-0.115,0.02
13:55:00.920,-0.12,0.02
13:55:00.924,-0.12,0.035
13:55:00.928,-0.11,0.02
13:55:00.932,-0.11,0.03
13:55:00.936,-0.095,0.035
13:55:00.940,-0.085,0.03
13:55:00.944,-0.1,0.035
13:55:00.948,-0.105,0.035
13:55:00.952,-0.08,0.035
13:55:00.956,-0.065,0.025
13:55:00.960,0.04,0.04
13:55:00.964,0.205,0.055
13:55:00.968,0.44,0.06
13:55:00.972,0.7,0.03
13:55:00.976,0.91,-0.015
13:55:00.980,1.1,-0.075
13:55:00.984,1.105,-0.145
13:55:00.988,0.87,-0.25
13:55:00.992,0.415,-0.36
13:55:00.996,-0.115,-0.46
13:55:01.000,-0.48,-0.525
13:55:01.004,-0.615,-0.52
13:55:01.008,-0.61,-0.435
13:55:01.012,-0.525,-0.365
13:55:01.016,-0.39,-0.25
13:55:01.020,-0.275,-0.125
13:55:01.024,-0.195,-0.03
13:55:01.028,-0.155,0.03
13:55:01.032,-0.15,0.07
13:55:01.036,-0.155,0.09
13:55:01.040,-0.15,0.09
13:55:01.044,-0.17,0.1
13:55:01.048,-0.165,0.08
13:55:01.052,-0.165,0.075
13:55:01.056,-0.16,0.055
13:55:01.060,-0.15,0.06
13:55:01.064,-0.15,0.04
13:55:01.068,-0.16,0.035
13:55:01.072,-0.135,0.03
13:55:01.076,-0.135,0.04
13:55:01.080,-0.12,0.035
13:55:01.084,-0.11,0.035
13:55:01.088,-0.09,0.025
13:55:01.092,-0.1,0.03
13:55:01.096,-0.115,0.035
13:55:01.100,-0.12,0.045
13:55:01.104,-0.115,0.025
13:55:01.108,-0.11,0.025
13:55:01.112,-0.135,0.045
13:55:01.116,-0.155,0.055
13:55:01.120,-0.15,0.035
13:55:01.124,-0.165,0.055
13:55:01.128,-0.175,0.06
13:55:01.132,-0.2,0.07
13:55:01.136,-0.205,0.05
13:55:01.140,-0.225,0.055
13:55:01.144,-0.24,0.065
13:55:01.148,-0.235,0.07
13:55:01.152,-0.24,0.055
13:55:01.156,-0.255,0.065
13:55:01.160,-0.265,0.055
13:55:01.164,-0.27,0.065
13:55:01.168,-0.265,0.06
13:55:01.172,-0.265,0.07
13:55:01.176,-0.26,0.075
13:55:01.180,-0.255,0.065
13:55:01.184,-0.27,0.065
13:55:01.188,-0.27,0.07
13:55:01.192,-0.295,0.07
13:55:01.196,-0.27,0.075
13:55:01.200,-0.265,0.08
13:55:01.204,-0.265,0.05
13:55:01.208,-0.245,0.05
13:55:01.212,-0.265,0.06
13:55:01.216,-0.245,0.04
13:55:01.220,-0.24,0.045
13:55:01.224,-0.26,0.055
13:55:01.228,-0.245,0.045
13:55:01.232,-0.245,0.03
13:55:01.236,-0.225,0.02
13:55:01.240,-0.21,0.005
13:55:01.244,-0.205,0.0
13:55:01.248,-0.2,0.0
13:55:01.252,-0.165,-0.02
13:55:01.256,-0.14,-0.015
13:55:01.260,-0.14,-0.03
13:55:01.264,-0.13,-0.025
13:55:01.268,-0.1,-0.015
13:55:01.272,-0.095,-0.02
13:55:01.276,-0.07,-0.015
13:55:01.280,-0.06,-0.02
13:55:01.284,-0.045,-0.01
13:55:01.288,-0.045,-0.01
13:55:01.292,-0.04,-0.01
13:55:01.296,-0.025,-0.015
13:55:01.300,-0.025,-0.015
13:55:01.304,-0.025,-0.015
13:55:01.308,-0.015,-0.01
13:55:01.312,0.0,-0.015
13:55:01.316,-0.01,-0.025
13:55:01.320,-0.02,-0.025
13:55:01.324,-0.015,-0.01
13:55:01.328,-0.02,-0.01
13:55:01.332,-0.005,-0.005
13:55:01.336,0.0,-0.025
13:55:01.340,0.0,0.0
13:55:01.344,0.015,-0.005
13:55:01.348,0.0,0.0
13:55:01.352,-0.01,-0.01
13:55:01.356,-0.015,-0.015
13:55:01.360,0.0,-0.005
13:55:01.364,0.0,0.0
13:55:01.368,-0.015,0.0
13:55:01.372,-0.01,0.0
13:55:01.376,-0.01,0.005
13:55:01.380,-0.015,0.01
13:55:01.384,-0.025,0.01
13:55:01.388,-0.025,0.025
13:55:01.392,-0.04,0.02
13:55:01.396,-0.07,0.015
13:55:01.400,-0.08,0.0
13:55:01.404,-0.08,0.005
13:55:01.408,-0.095,0.005
13:55:01.412,-0.11,0.01
13:55:01.416,-0.1,0.01
13:55:01.420,-0.1,0.0
13:55:01.424,-0.1,0.005
13:55:01.428,-0.11,0.015
13:55:01.432,-0.105,0.02
13:55:01.436,-0.1,0.005
13:55:01.440,-0.115,0.01
13:55:01.444,-0.12,0.0
13:55:01.448,-0.13,0.0
13:55:01.452,-0.12,0.0
13:55:01.456,-0.13,0.0
13:55:01.460,-0.13,0.005
13:55:01.464,-0.135,0.01
13:55:01.468,-0.12,0.0
13:55:01.472,-0.13,0.0
13:55:01.476,-0.115,0.0
13:55:01.480,-0.12,-0.005
13:55:01.484,-0.115,0.0
13:55:01.488,-0.12,-0.015
13:55:01.492,-0.11,-0.01
13:55:01.496,-0.11,-0.01
13:55:01.500,-0.11,-0.01
13:55:01.504,-0.135,-0.005
13:55:01.508,-0.145,-0.02
13:55:01.512,-0.12,-0.01
13:55:01.516,-0.135,-0.01
13:55:01.520,-0.14,-0.01
13:55:01.524,-0.135,-0.015
13:55:01.528,-0.14,-0.005
13:55:01.532,-0.13,-0.02
13:55:01.536,-0.14,-0.03
13:55:01.540,-0.115,-0.02
13:55:01.544,-0.12,-0.03
13:55:01.548,-0.125,-0.035
13:55:01.552,-0.105,-0.035
13:55:01.556,-0.12,-0.015
13:55:01.560,-0.125,-0.015
13:55:01.564,-0.115,-0.015
13:55:01.568,-0.12,-0.035
13:55:01.572,-0.105,-0.02
13:55:01.576,-0.115,-0.03
13:55:01.580,-0.12,-0.015
13:55:01.584,-0.115,-0.005
13:55:01.588,-0.115,-0.02
13:55:01.592,-0.11,-0.015
13:55:01.596,-0.11,-0.035
13:55:01.600,-0.09,-0.015
13:55:01.604,-0.09,-0.02
13:55:01.608,-0.085,-0.03
13:55:01.612,-0.085,-0.025
13:55:01.616,-0.075,-0.03
13:55:01.620,-0.075,-0.035
13:55:01.624,-0.07,-0.02
13:55:01.628,-0.07,0.0
13:55:01.632,-0.06,-0.025
13:55:01.636,-0.055,-0.015
13:55:01.640,-0.045,-0.015
13:55:01.644,-0.05,-0.005
13:55:01.648,-0.06,0.0
13:55:01.652,-0.065,0.005
13:55:01.656,-0.08,0.0
13:55:01.660,-0.09,0.0
13:55:01.664,-0.1,0.0
13:55:01.668,-0.105,0.0
13:55:01.672,-0.115,0.005
13:55:01.676,-0.105,0.015
13:55:01.680,-0.115,0.01
13:55:01.684,-0.12,0.02
13:55:01.688,-0.125,0.0
13:55:01.692,-0.14,0.0
13:55:01.696,-0.12,0.0
13:55:01.700,-0.135,0.005
13:55:01.704,-0.14,0.0
13:55:01.708,-0.145,0.01
13:55:01.712,-0.16,0.0
13:55:01.716,-0.16,0.0
13:55:01.720,-0.15,0.0
13:55:01.724,-0.17,-0.01
13:55:01.728,-0.155,0.015
13:55:01.732,-0.16,0.015
13:55:01.736,-0.155,0.0
13:55:01.740,-0.14,0.005
13:55:01.744,-0.14,0.005
13:55:01.748,-0.14,0.0
13:55:01.752,-0.15,-0.015
13:55:01.756,-0.145,-0.015
13:55:01.760,-0.135,-0.01
13:55:01.764,-0.135,0.0
13:55:01.768,-0.13,0.0
13:55:01.772,-0.14,-0.01
13:55:01.776,-0.135,-0.005
13:55:01.780,-0.115,-0.005
13:55:01.784,-0.135,0.005
13:55:01.788,-0.12,0.0
13:55:01.792,-0.145,0.0
13:55:01.796,-0.13,0.005
13:55:01.800,-0.12,-0.01
13:55:01.804,-0.115,0.005
13:55:01.808,-0.115,0.015
13:55:01.812,-0.115,0.0
13:55:01.816,-0.125,0.005
13:55:01.820,-0.12,-0.005
13:55:01.824,-0.105,-0.005
13:55:01.828,-0.105,-0.02
13:55:01.832,-0.11,-0.02
13:55:01.836,-0.1,-0.02
13:55:01.840,-0.09,-0.015
13:55:01.844,-0.08,0.0
13:55:01.848,-0.09,-0.015
13:55:01.852,-0.08,0.0
13:55:01.856,-0.06,0.005
13:55:01.860,0.035,0.015
13:55:01.864,0.195,0.015
13:55:01.868,0.465,0.02
13:55:01.872,0.7,0.0
13:55:01.876,0.93,-0.025
13:55:01.880,1.09,-0.08
13:55:01.884,1.08,-0.165
13:55:01.888,0.805,-0.245
13:55:01.892,0.38,-0.335
13:55:01.896,-0.12,-0.42
13:55:01.900,-0.485,-0.475
13:55:01.904,-0.575,-0.48
13:55:01.908,-0.58,-0.44
13:55:01.912,-0.475,-0.365
13:55:01.916,-0.335,-0.265
13:55:01.920,-0.215,-0.155
13:55:01.924,-0.155,-0.065
13:55:01.928,-0.12,0.015
13:55:01.932,-0.115,0.05
13:55:01.936,-0.12,0.07
13:55:01.940,-0.135,0.085
13:55:01.944,-0.14,0.075
13:55:01.948,-0.16,0.065
13:55:01.952,-0.155,0.055
13:55:01.956,-0.16,0.055
13:55:01.960,-0.175,0.03
13:55:01.964,-0.18,0.03
13:55:01.968,-0.175,0.035
13:55:01.972,-0.17,0.025
13:55:01.976,-0.18,0.025
13:55:01.980,-0.18,0.02
13:55:01.984,-0.19,0.015
13:55:01.988,-0.195,0.025
13:55:01.992,-0.2,0.025
13:55:01.996,-0.205,0.005
13:55:02.000,-0.19,0.015
13:55:02.004,-0.205,0.015
13:55:02.008,-0.225,0.02
13:55:02.012,-0.2,0.035
13:55:02.016,-0.195,0.02
13:55:02.020,-0.21,0.02
13:55:02.024,-0.2,0.01
13:55:02.028,-0.205,0.005
13:55:02.032,-0.205,0.025
13:55:02.036,-0.21,0.03
13:55:02.040,-0.215,0.02
13:55:02.044,-0.22,0.035
13:55:02.048,-0.215,0.03
13:55:02.052,-0.225,0.02
13:55:02.056,-0.215,0.035
13:55:02.060,-0.22,0.02
13:55:02.064,-0.235,0.04
13:55:02.068,-0.235,0.03
13:55:02.072,-0.215,0.04
13:55:02.076,-0.225,0.04
13:55:02.080,-0.22,0.04
13:55:02.084,-0.23,0.015
13:55:02.088,-0.23,0.035
13:55:02.092,-0.24,0.04
13:55:02.096,-0.21,0.045
13:55:02.100,-0.2,0.03
13:55:02.104,-0.2,0.045
13:55:02.108,-0.195,0.04
13:55:02.112,-0.2,0.035
13:55:02.116,-0.19,0.03
13:55:02.120,-0.185,0.005
13:55:02.124,-0.18,0.0
13:55:02.128,-0.165,0.01
13:55:02.132,-0.165,0.015
13:55:02.136,-0.155,0.02
13:55:02.140,-0.125,0.005
13:55:02.144,-0.11,0.0
13:55:02.148,-0.09,-0.015
13:55:02.152,-0.07,-0.005
13:55:02.156,-0.065,-0.005
13:55:02.160,-0.035,-0.015
13:55:02.164,0.0,-0.015
13:55:02.168,0.025,-0.015
13:55:02.172,0.02,-0.01
13:55:02.176,0.045,-0.025
13:55:02.180,0.045,-0.01
13:55:02.184,0.04,-0.015
13:55:02.188,0.045,-0.01
13:55:02.192,0.03,0.0
13:55:02.196,0.025,-0.01
13:55:02.200,0.0,-0.02
13:55:02.204,-0.015,-0.015
13:55:02.208,-0.035,-0.015
13:55:02.212,-0.05,-0.005
13:55:02.216,-0.055,-0.02
13:55:02.220,-0.075,-0.005
13:55:02.224,-0.075,-0.03
13:55:02.228,-0.095,-0.035
13:55:02.232,-0.09,-0.03
13:55:02.236,-0.105,-0.045
13:55:02.240,-0.095,-0.04
13:55:02.244,-0.1,-0.045
13:55:02.248,-0.105,-0.04
13:55:02.252,-0.105,-0.045
13:55:02.256,-0.12,-0.05
13:55:02.260,-0.13,-0.05
13:55:02.264,-0.135,-0.055
13:55:02.268,-0.125,-0.045
13:55:02.272,-0.135,-0.04
13:55:02.276,-0.15,-0.055
13:55:02.280,-0.155,-0.06
13:55:02.284,-0.15,-0.055
13:55:02.288,-0.145,-0.05
13:55:02.292,-0.135,-0.04
13:55:02.296,-0.13,-0.05
13:55:02.300,-0.14,-0.05
13:55:02.304,-0.12,-0.05
13:55:02.308,-0.13,-0.045
13:55:02.312,-0.11,-0.055
13:55:02.316,-0.12,-0.05
13:55:02.320,-0.115,-0.045
13:55:02.324,-0.12,-0.03
13:55:02.328,-0.11,-0.035
13:55:02.332,-0.115,-0.04
13:55:02.336,-0.125,-0.05
13:55:02.340,-0.125,-0.04
13:55:02.344,-0.115,-0.045
13:55:02.348,-0.12,-0.05
13:55:02.352,-0.105,-0.04
13:55:02.356,-0.105,-0.04
13:55:02.360,-0.125,-0.06
13:55:02.364,-0.115,-0.06
13:55:02.368,-0.095,-0.065
13:55:02.372,-0.095,-0.065
13:55:02.376,-0.09,-0.06
13:55:02.380,-0.095,-0.055
13:55:02.384,-0.085,-0.065
13:55:02.388,-0.095,-0.05
13:55:02.392,-0.08,-0.055
13:55:02.396,-0.08,-0.06
13:55:02.400,-0.085,-0.06
13:55:02.404,-0.1,-0.08
13:55:02.408,-0.085,-0.07
13:55:02.412,-0.075,-0.05
13:55:02.416,-0.06,-0.075
13:55:02.420,-0.075,-0.06
13:55:02.424,-0.075,-0.075
13:55:02.428,-0.075,-0.065
13:55:02.432,-0.045,-0.06
13:55:02.436,-0.045,-0.075
13:55:02.440,-0.04,-0.08
13:55:02.444,-0.05,-0.075
13:55:02.448,-0.03,-0.055
13:55:02.452,-0.03,-0.07
13:55:02.456,-0.035,-0.07
13:55:02.460,-0.045,-0.065
13:55:02.464,-0.045,-0.055
13:55:02.468,-0.07,-0.055
13:55:02.472,-0.08,-0.06
13:55:02.476,-0.095,-0.05
13:55:02.480,-0.09,-0.03
13:55:02.484,-0.1,-0.04
13:55:02.488,-0.125,-0.015
13:55:02.492,-0.135,-0.06
13:55:02.496,-0.125,-0.045
13:55:02.500,-0.14,-0.055
13:55:02.504,-0.13,-0.055
13:55:02.508,-0.15,-0.075
13:55:02.512,-0.155,-0.065
13:55:02.516,-0.13,-0.055
13:55:02.520,-0.15,-0.045
13:55:02.524,-0.16,-0.06
13:55:02.528,-0.155,-0.06
13:55:02.532,-0.175,-0.055
13:55:02.536,-0.17,-0.045
13:55:02.540,-0.16,-0.05
13:55:02.544,-0.16,-0.045
13:55:02.548,-0.175,-0.05
13:55:02.552,-0.175,-0.07
13:55:02.556,-0.185,-0.06
13:55:02.560,-0.165,-0.065
13:55:02.564,-0.185,-0.075
13:55:02.568,-0.16,-0.07
13:55:02.572,-0.16,-0.065
13:55:02.576,-0.15,-0.075
13:55:02.580,-0.145,-0.075
13:55:02.584,-0.14,-0.065
13:55:02.588,-0.155,-0.05
13:55:02.592,-0.15,-0.06
13:55:02.596,-0.145,-0.065
13:55:02.600,-0.15,-0.04
13:55:02.604,-0.15,-0.05
13:55:02.608,-0.15,-0.065
13:55:02.612,-0.16,-0.07
13:55:02.616,-0.16,-0.075
13:55:02.620,-0.16,-0.08
13:55:02.624,-0.16,-0.065
13:55:02.628,-0.17,-0.075
13:55:02.632,-0.155,-0.075
13:55:02.636,-0.135,-0.055
13:55:02.640,-0.135,-0.065
13:55:02.644,-0.125,-0.075
13:55:02.648,-0.14,-0.085
13:55:02.652,-0.13,-0.065
13:55:02.656,-0.135,-0.075
13:55:02.660,-0.13,-0.07
13:55:02.664,-0.105,-0.065
13:55:02.668,-0.09,-0.07
13:55:02.672,-0.105,-0.07
13:55:02.676,-0.11,-0.07
13:55:02.680,-0.125,-0.07
13:55:02.684,-0.1,-0.055
13:55:02.688,-0.035,-0.055
13:55:02.692,0.08,-0.025
13:55:02.696,0.29,-0.015
13:55:02.700,0.545,-0.035
13:55:02.704,0.79,-0.075
13:55:02.708,0.98,-0.1
13:55:02.712,1.08,-0.165
13:55:02.716,0.97,-0.26
13:55:02.720,0.63,-0.37
13:55:02.724,0.14,-0.455
13:55:02.728,-0.34,-0.53
13:55:02.732,-0.6,-0.57
13:55:02.736,-0.63,-0.55
13:55:02.740,-0.57,-0.475
13:55:02.744,-0.43,-0.38
13:55:02.748,-0.28,-0.265
13:55:02.752,-0.2,-0.16
13:55:02.756,-0.17,-0.06
13:55:02.760,-0.155,0.01
13:55:02.764,-0.16,0.04
13:55:02.768,-0.17,0.05
13:55:02.772,-0.18,0.055
13:55:02.776,-0.17,0.04
13:55:02.780,-0.18,0.03
13:55:02.784,-0.175,0.025
13:55:02.788,-0.185,0.01
13:55:02.792,-0.185,0.02
13:55:02.796,-0.195,0.015
13:55:02.800,-0.2,0.01
13:55:02.804,-0.205,0.005
13:55:02.808,-0.2,0.015
13:55:02.812,-0.205,0.01
13:55:02.816,-0.215,0.005
13:55:02.820,-0.215,0.005
13:55:02.824,-0.225,0.0
13:55:02.828,-0.225,0.0
13:55:02.832,-0.215,-0.005
13:55:02.836,-0.215,0.0
13:55:02.840,-0.22,0.0
13:55:02.844,-0.23,0.005
13:55:02.848,-0.225,-0.005
13:55:02.852,-0.21,0.0
13:55:02.856,-0.21,0.0
13:55:02.860,-0.225,0.015
13:55:02.864,-0.235,0.0
13:55:02.868,-0.24,0.015
13:55:02.872,-0.23,0.01
13:55:02.876,-0.215,0.015
13:55:02.880,-0.24,0.015
13:55:02.884,-0.24,0.02
13:55:02.888,-0.245,0.02
13:55:02.892,-0.245,0.015
13:55:02.896,-0.235,0.01
13:55:02.900,-0.235,0.02
13:55:02.904,-0.225,0.01
13:55:02.908,-0.23,0.015
13:55:02.912,-0.22,0.005
13:55:02.916,-0.21,0.015
13:55:02.920,-0.22,0.005
13:55:02.924,-0.215,0.025
13:55:02.928,-0.21,0.005
13:55:02.932,-0.2,0.015
13:55:02.936,-0.18,0.015
13:55:02.940,-0.195,0.02
13:55:02.944,-0.195,0.015
13:55:02.948,-0.19,0.015
13:55:02.952,-0.185,0.01
13:55:02.956,-0.17,0.015
13:55:02.960,-0.15,0.0
13:55:02.964,-0.14,0.0
13:55:02.968,-0.15,-0.01
13:55:02.972,-0.12,0.0
13:55:02.976,-0.1,-0.01
13:55:02.980,-0.065,-0.025
13:55:02.984,-0.05,-0.015
13:55:02.988,-0.015,-0.03
13:55:02.992,-0.005,-0.025
13:55:02.996,0.02,-0.025
13:55:03.000,0.015,0.0
13:55:03.004,0.04,-0.02
13:55:03.008,0.01,-0.015
13:55:03.012,0.005,-0.01
13:55:03.016,0.005,-0.02
13:55:03.020,0.01,-0.02
13:55:03.024,0.0,-0.005
13:55:03.028,0.0,-0.025
13:55:03.032,-0.02,-0.02
13:55:03.036,-0.03,-0.01
13:55:03.040,-0.04,-0.015
13:55:03.044,-0.04,-0.02
13:55:03.048,-0.06,-0.03
13:55:03.052,-0.085,-0.03
13:55:03.056,-0.065,-0.03
13:55:03.060,-0.06,-0.04
13:55:03.064,-0.085,-0.03
13:55:03.068,-0.1,-0.02
13:55:03.072,-0.115,-0.035
13:55:03.076,-0.115,-0.035
13:55:03.080,-0.12,-0.035
13:55:03.084,-0.13,-0.045
13:55:03.088,-0.135,-0.03
13:55:03.092,-0.12,-0.02
13:55:03.096,-0.145,-0.04
13:55:03.100,-0.14,-0.045
13:55:03.104,-0.135,-0.055
13:55:03.108,-0.13,-0.03
13:55:03.112,-0.13,-0.035
13:55:03.116,-0.13,-0.035
13:55:03.120,-0.13,-0.035
13:55:03.124,-0.105,-0.04
13:55:03.128,-0.12,-0.055
13:55:03.132,-0.12,-0.04
13:55:03.136,-0.14,-0.02
13:55:03.140,-0.12,-0.02
13:55:03.144,-0.115,-0.02
13:55:03.148,-0.11,-0.01
13:55:03.152,-0.13,-0.02
13:55:03.156,-0.14,-0.025
13:55:03.160,-0.145,-0.03
13:55:03.164,-0.135,-0.035
13:55:03.168,-0.125,-0.03
13:55:03.172,-0.11,-0.04
13:55:03.176,-0.13,-0.06
13:55:03.180,-0.105,-0.045
13:55:03.184,-0.11,-0.04
13:55:03.188,-0.09,-0.03
13:55:03.192,-0.095,-0.03
13:55:03.196,-0.075,-0.04
13:55:03.200,-0.08,-0.045
13:55:03.204,-0.09,-0.04
13:55:03.208,-0.08,-0.025
13:55:03.212,-0.075,-0.04
13:55:03.216,-0.085,-0.035
13:55:03.220,-0.08,-0.035
13:55:03.224,-0.095,-0.05
13:55:03.228,-0.095,-0.045
13:55:03.232,-0.09,-0.04
13:55:03.236,-0.08,-0.05
13:55:03.240,-0.08,-0.07
13:55:03.244,-0.07,-0.055
13:55:03.248,-0.08,-0.06
13:55:03.252,-0.07,-0.07
13:55:03.256,-0.06,-0.045
13:55:03.260,-0.06,-0.07
13:55:03.264,-0.06,-0.06
13:55:03.268,-0.06,-0.065
13:55:03.272,-0.07,-0.055
13:55:03.276,-0.07,-0.055
13:55:03.280,-0.065,-0.04
13:55:03.284,-0.09,-0.06
13:55:03.288,-0.1,-0.055
13:55:03.292,-0.095,-0.04
13:55:03.296,-0.105,-0.045
13:55:03.300,-0.115,-0.045
13:55:03.304,-0.135,-0.045
13:55:03.308,-0.135,-0.055
13:55:03.312,-0.135,-0.035
13:55:03.316,-0.125,-0.055
13:55:03.320,-0.12,-0.045
13:55:03.324,-0.14,-0.065
13:55:03.328,-0.145,-0.07
13:55:03.332,-0.155,-0.06
13:55:03.336,-0.145,-0.05
13:55:03.340,-0.16,-0.065
13:55:03.344,-0.16,-0.075
13:55:03.348,-0.17,-0.075
13:55:03.352,-0.18,-0.08
13:55:03.356,-0.17,-0.065
13:55:03.360,-0.16,-0.075
13:55:03.364,-0.17,-0.095
13:55:03.368,-0.175,-0.075
13:55:03.372,-0.17,-0.065
13:55:03.376,-0.155,-0.075
13:55:03.380,-0.16,-0.08
13:55:03.384,-0.175,-0.075
13:55:03.388,-0.175,-0.08
13:55:03.392,-0.17,-0.07
13:55:03.396,-0.165,-0.08
13:55:03.400,-0.175,-0.08
13:55:03.404,-0.16,-0.08
13:55:03.408,-0.165,-0.065
13:55:03.412,-0.18,-0.07
13:55:03.416,-0.185,-0.08
13:55:03.420,-0.165,-0.095
13:55:03.424,-0.18,-0.07
13:55:03.428,-0.17,-0.065
13:55:03.432,-0.16,-0.065
13:55:03.436,-0.16,-0.085
13:55:03.440,-0.16,-0.085
13:55:03.444,-0.15,-0.1
13:55:03.448,-0.16,-0.095
13:55:03.452,-0.155,-0.1
13:55:03.456,-0.16,-0.08
13:55:03.460,-0.155,-0.085
13:55:03.464,-0.15,-0.085
13:55:03.468,-0.16,-0.105
13:55:03.472,-0.17,-0.095
13:55:03.476,-0.17,-0.1
13:55:03.480,-0.155,-0.1
13:55:03.484,-0.14,-0.105
13:55:03.488,-0.15,-0.115
13:55:03.492,-0.13,-0.105
13:55:03.496,-0.11,-0.07
13:55:03.500,-0.025,-0.055
13:55:03.504,0.15,-0.055
13:55:03.508,0.395,-0.065
13:55:03.512,0.62,-0.085
13:55:03.516,0.835,-0.115
13:55:03.520,0.975,-0.16
13:55:03.524,0.94,-0.25
13:55:03.528,0.685,-0.345
13:55:03.532,0.24,-0.43
13:55:03.536,-0.25,-0.505
13:55:03.540,-0.59,-0.58
13:55:03.544,-0.665,-0.59
13:55:03.548,-0.625,-0.54
13:55:03.552,-0.5,-0.465
13:55:03.556,-0.36,-0.345
13:55:03.560,-0.245,-0.23
13:55:03.564,-0.17,-0.15
13:55:03.568,-0.135,-0.07
13:55:03.572,-0.14,0.0
13:55:03.576,-0.16,0.005
13:55:03.580,-0.16,0.01
13:55:03.584,-0.175,0.0
13:55:03.588,-0.2,-0.005
13:55:03.592,-0.205,0.005
13:55:03.596,-0.22,-0.005
13:55:03.600,-0.22,-0.015
13:55:03.604,-0.215,-0.035
13:55:03.608,-0.23,-0.02
13:55:03.612,-0.225,-0.05
13:55:03.616,-0.25,-0.03
13:55:03.620,-0.245,-0.025
13:55:03.624,-0.245,-0.025
13:55:03.628,-0.24,-0.025
13:55:03.632,-0.255,-0.035
13:55:03.636,-0.25,-0.035
13:55:03.640,-0.245,-0.04
13:55:03.644,-0.255,-0.045
13:55:03.648,-0.26,-0.045
13:55:03.652,-0.25,-0.03
13:55:03.656,-0.245,-0.015
13:55:03.660,-0.26,-0.025
13:55:03.664,-0.28,-0.035
13:55:03.668,-0.27,-0.05
13:55:03.672,-0.245,-0.04
13:55:03.676,-0.26,-0.04
13:55:03.680,-0.27,-0.035
13:55:03.684,-0.275,-0.03
13:55:03.688,-0.28,-0.025
13:55:03.692,-0.265,-0.02
13:55:03.696,-0.255,-0.03
13:55:03.700,-0.26,-0.02
13:55:03.704,-0.25,-0.015
13:55:03.708,-0.265,0.0
13:55:03.712,-0.255,-0.01
13:55:03.716,-0.24,0.0
13:55:03.720,-0.255,0.0
13:55:03.724,-0.255,-0.015
13:55:03.728,-0.245,-0.015
13:55:03.732,-0.25,-0.02
13:55:03.736,-0.245,-0.005
13:55:03.740,-0.24,-0.02
13:55:03.744,-0.255,-0.035
13:55:03.748,-0.275,-0.035
13:55:03.752,-0.255,-0.035
13:55:03.756,-0.235,-0.03
13:55:03.760,-0.22,-0.035
13:55:03.764,-0.22,-0.035
13:55:03.768,-0.22,-0.035
13:55:03.772,-0.195,-0.03
13:55:03.776,-0.19,-0.035
13:55:03.780,-0.18,-0.025
13:55:03.784,-0.165,-0.045
13:55:03.788,-0.15,-0.04
13:55:03.792,-0.135,-0.055
13:55:03.796,-0.125,-0.045
13:55:03.800,-0.085,-0.045
13:55:03.804,-0.09,-0.04
13:55:03.808,-0.06,-0.04
13:55:03.812,-0.065,-0.045
13:55:03.816,-0.045,-0.05
13:55:03.820,-0.025,-0.075
13:55:03.824,-0.015,-0.065
13:55:03.828,0.005,-0.06
13:55:03.832,0.005,-0.07
13:55:03.836,0.01,-0.065
13:55:03.840,0.01,-0.065
13:55:03.844,0.015,-0.075
13:55:03.848,0.005,-0.06
13:55:03.852,-0.005,-0.055
13:55:03.856,-0.015,-0.05
13:55:03.860,-0.02,-0.045
13:55:03.864,-0.025,-0.045
13:55:03.868,-0.045,-0.035
13:55:03.872,-0.07,-0.04
13:55:03.876,-0.11,-0.03
13:55:03.880,-0.12,-0.03
13:55:03.884,-0.12,-0.03
13:55:03.888,-0.125,-0.035
13:55:03.892,-0.14,-0.04
13:55:03.896,-0.155,-0.02
13:55:03.900,-0.16,-0.02
13:55:03.904,-0.155,-0.04
13:55:03.908,-0.15,-0.05
13:55:03.912,-0.155,-0.03
13:55:03.916,-0.175,-0.04
13:55:03.920,-0.165,-0.045
13:55:03.924,-0.16,-0.055
13:55:03.928,-0.16,-0.05
13:55:03.932,-0.165,-0.055
13:55:03.936,-0.155,-0.055
13:55:03.940,-0.175,-0.055
13:55:03.944,-0.145,-0.06
13:55:03.948,-0.14,-0.055
13:55:03.952,-0.14,-0.045
13:55:03.956,-0.145,-0.05
13:55:03.960,-0.15,-0.05
13:55:03.964,-0.14,-0.06
13:55:03.968,-0.125,-0.04
13:55:03.972,-0.105,-0.035
13:55:03.976,-0.125,-0.045
13:55:03.980,-0.125,-0.04
13:55:03.984,-0.13,-0.045
13:55:03.988,-0.1,-0.055
13:55:03.992,-0.09,-0.05
13:55:03.996,-0.09,-0.055
13:55:04.000,-0.11,-0.04
13:55:04.004,-0.115,-0.06
13:55:04.008,-0.105,-0.055
13:55:04.012,-0.11,-0.07
13:55:04.016,-0.105,-0.065
13:55:04.020,-0.125,-0.07
13:55:04.024,-0.12,-0.08
13:55:04.028,-0.115,-0.075
13:55:04.032,-0.11,-0.075
13:55:04.036,-0.125,-0.08
13:55:04.040,-0.12,-0.065
13:55:04.044,-0.12,-0.06
13:55:04.048,-0.12,-0.085
13:55:04.052,-0.125,-0.055
13:55:04.056,-0.125,-0.05
13:55:04.060,-0.12,-0.055
13:55:04.064,-0.13,-0.06
13:55:04.068,-0.125,-0.06
13:55:04.072,-0.12,-0.045
13:55:04.076,-0.105,-0.05
13:55:04.080,-0.11,-0.06
13:55:04.084,-0.105,-0.06
13:55:04.088,-0.11,-0.06
13:55:04.092,-0.095,-0.07
13:55:04.096,-0.095,-0.07
13:55:04.100,-0.095,-0.06
13:55:04.104,-0.1,-0.06
13:55:04.108,-0.08,-0.075
13:55:04.112,-0.08,-0.09
13:55:04.116,-0.085,-0.07
13:55:04.120,-0.07,-0.07
13:55:04.124,-0.075,-0.075
13:55:04.128,-0.085,-0.07
13:55:04.132,-0.07,-0.065
13:55:04.136,-0.065,-0.06
13:55:04.140,-0.065,-0.065
13:55:04.144,-0.08,-0.055
13:55:04.148,-0.085,-0.065
13:55:04.152,-0.095,-0.065
13:55:04.156,-0.115,-0.065
13:55:04.160,-0.13,-0.04
13:55:04.164,-0.14,-0.025
13:55:04.168,-0.155,-0.05
13:55:04.172,-0.16,-0.065
13:55:04.176,-0.135,-0.06
13:55:04.180,-0.14,-0.065
13:55:04.184,-0.17,-0.06
13:55:04.188,-0.16,-0.055
13:55:04.192,-0.16,-0.055
13:55:04.196,-0.18,-0.06
13:55:04.200,-0.155,-0.06
13:55:04.204,-0.16,-0.055
13:55:04.208,-0.165,-0.06
13:55:04.212,-0.18,-0.05
13:55:04.216,-0.17,-0.075
13:55:04.220,-0.095,-0.05
13:55:04.224,0.04,-0.035
13:55:04.228,0.26,-0.01
13:55:04.232,0.52,-0.04
13:55:04.236,0.77,-0.08
13:55:04.240,0.98,-0.125
13:55:04.244,1.045,-0.195
13:55:04.248,0.895,-0.285
13:55:04.252,0.53,-0.38
13:55:04.256,0.025,-0.48
13:55:04.260,-0.405,-0.53
13:55:04.264,-0.63,-0.575
13:55:04.268,-0.68,-0.535
13:55:04.272,-0.66,-0.465
13:55:04.276,-0.56,-0.34
13:55:04.280,-0.425,-0.25
13:55:04.284,-0.295,-0.15
13:55:04.288,-0.25,-0.09
13:55:04.292,-0.22,-0.035
13:55:04.296,-0.225,-0.005
13:55:04.300,-0.22,0.015
13:55:04.304,-0.22,0.0
13:55:04.308,-0.215,-0.01
13:55:04.312,-0.22,-0.02
13:55:04.316,-0.23,-0.025
13:55:04.320,-0.235,-0.04
13:55:04.324,-0.215,-0.035
13:55:04.328,-0.225,-0.045
13:55:04.332,-0.215,-0.035
13:55:04.336,-0.225,-0.03
13:55:04.340,-0.23,-0.035
13:55:04.344,-0.21,-0.04
13:55:04.348,-0.235,-0.045
13:55:04.352,-0.215,-0.04
13:55:04.356,-0.23,-0.04
13:55:04.360,-0.21,-0.05
13:55:04.364,-0.205,-0.045
13:55:04.368,-0.205,-0.035
13:55:04.372,-0.205,-0.035
13:55:04.376,-0.205,-0.03
13:55:04.380,-0.205,-0.04
13:55:04.384,-0.195,-0.045
13:55:04.388,-0.175,-0.05
13:55:04.392,-0.16,-0.045
13:55:04.396,-0.16,-0.045
13:55:04.400,-0.155,-0.05
13:55:04.404,-0.17,-0.03
13:55:04.408,-0.16,-0.035
13:55:04.412,-0.15,-0.035
13:55:04.416,-0.165,-0.03
13:55:04.420,-0.16,-0.025
13:55:04.424,-0.17,-0.025
13:55:04.428,-0.18,-0.01
13:55:04.432,-0.195,-0.005
13:55:04.436,-0.205,-0.005
13:55:04.440,-0.24,-0.01
13:55:04.444,-0.255,0.005
13:55:04.448,-0.26,0.0
13:55:04.452,-0.255,0.01
13:55:04.456,-0.255,0.0
13:55:04.460,-0.275,0.0
13:55:04.464,-0.27,0.0
13:55:04.468,-0.265,0.0
13:55:04.472,-0.27,0.0
13:55:04.476,-0.265,-0.01
13:55:04.480,-0.265,-0.005
13:55:04.484,-0.27,-0.015
13:55:04.488,-0.245,-0.015
13:55:04.492,-0.245,-0.02
13:55:04.496,-0.215,-0.02
13:55:04.500,-0.21,-0.04
13:55:04.504,-0.205,-0.03
13:55:04.508,-0.19,-0.04
13:55:04.512,-0.17,-0.045
13:55:04.516,-0.14,-0.04
13:55:04.520,-0.135,-0.06
13:55:04.524,-0.115,-0.06
13:55:04.528,-0.105,-0.07
13:55:04.532,-0.1,-0.04
13:55:04.536,-0.095,-0.045
13:55:04.540,-0.075,-0.06
13:55:04.544,-0.06,-0.055
13:55:04.548,-0.07,-0.05
13:55:04.552,-0.065,-0.06
13:55:04.556,-0.06,-0.07
13:55:04.560,-0.06,-0.06
13:55:04.564,-0.055,-0.06
13:55:04.568,-0.06,-0.065
13:55:04.572,-0.06,-0.06
13:55:04.576,-0.07,-0.045
13:55:04.580,-0.08,-0.055
13:55:04.584,-0.09,-0.05
13:55:04.588,-0.09,-0.05
13:55:04.592,-0.105,-0.05
13:55:04.596,-0.115,-0.04
13:55:04.600,-0.12,-0.04
13:55:04.604,-0.13,-0.06
13:55:04.608,-0.135,-0.06
13:55:04.612,-0.125,-0.07
13:55:04.616,-0.13,-0.065
13:55:04.620,-0.125,-0.065
13:55:04.624,-0.135,-0.055
13:55:04.628,-0.135,-0.04
13:55:04.632,-0.145,-0.06
13:55:04.636,-0.14,-0.05
13:55:04.640,-0.13,-0.055
13:55:04.644,-0.12,-0.05
13:55:04.648,-0.125,-0.05
13:55:04.652,-0.12,-0.06
13:55:04.656,-0.11,-0.06
13:55:04.660,-0.1,-0.06
13:55:04.664,-0.09,-0.06
13:55:04.668,-0.08,-0.045
13:55:04.672,-0.085,-0.06
13:55:04.676,-0.08,-0.05
13:55:04.680,-0.08,-0.04
13:55:04.684,-0.075,-0.055
13:55:04.688,-0.09,-0.055
13:55:04.692,-0.085,-0.06
13:55:04.696,-0.085,-0.04
13:55:04.700,-0.08,-0.03
13:55:04.704,-0.08,-0.045
13:55:04.708,-0.09,-0.025
13:55:04.712,-0.1,-0.025
13:55:04.716,-0.115,-0.03
13:55:04.720,-0.12,-0.04
13:55:04.724,-0.13,-0.025
13:55:04.728,-0.13,-0.045
13:55:04.732,-0.13,-0.025
13:55:04.736,-0.155,-0.045
13:55:04.740,-0.16,-0.03
13:55:04.744,-0.165,-0.035
13:55:04.748,-0.155,-0.04
13:55:04.752,-0.17,-0.04
