Time,ECG1,ECG2
23:55:36.596,0.155,-0.06
23:55:36.600,0.155,-0.06
23:55:36.604,0.165,-0.055
23:55:36.608,0.155,-0.055
23:55:36.612,0.13,-0.07
23:55:36.616,0.15,-0.06
23:55:36.620,0.15,-0.03
23:55:36.624,0.165,-0.015
23:55:36.628,0.2,-0.025
23:55:36.632,0.22,-0.015
23:55:36.636,0.215,-0.04
23:55:36.640,0.215,-0.025
23:55:36.644,0.24,0.01
23:55:36.648,0.235,0.025
23:55:36.652,0.245,0.02
23:55:36.656,0.23,0.0
23:55:36.660,0.215,-0.02
23:55:36.664,0.18,-0.045
23:55:36.668,0.145,-0.055
23:55:36.672,0.135,-0.03
23:55:36.676,0.115,-0.035
23:55:36.680,0.12,-0.025
23:55:36.684,0.15,-0.035
23:55:36.688,0.135,-0.02
23:55:36.692,0.13,-0.05
23:55:36.696,0.125,-0.075
23:55:36.700,0.125,-0.09
23:55:36.704,0.125,-0.105
23:55:36.708,0.13,-0.11
23:55:36.712,0.135,-0.11
23:55:36.716,0.125,-0.12
23:55:36.720,0.12,-0.13
23:55:36.724,0.13,-0.14
23:55:36.728,0.135,-0.135
23:55:36.732,0.12,-0.145
23:55:36.736,0.105,-0.14
23:55:36.740,0.125,-0.14
23:55:36.744,0.12,-0.14
23:55:36.748,0.125,-0.145
23:55:36.752,0.145,-0.125
23:55:36.756,0.145,-0.11
23:55:36.760,0.145,-0.125
23:55:36.764,0.155,-0.13
23:55:36.768,0.14,-0.135
23:55:36.772,0.14,-0.14
23:55:36.776,0.125,-0.125
23:55:36.780,0.15,-0.005
23:55:36.784,0.14,0.235
23:55:36.788,0.165,0.575
23:55:36.792,0.195,0.9
23:55:36.796,0.25,0.96
23:55:36.800,0.33,0.705
23:55:36.804,0.415,0.14
23:55:36.808,0.41,-0.585
23:55:36.812,0.29,-1.03
23:55:36.816,0.1,-1.14
23:55:36.820,-0.09,-1.0
23:55:36.824,-0.195,-0.74
23:55:36.828,-0.225,-0.585
23:55:36.832,-0.185,-0.42
23:55:36.836,-0.11,-0.28
23:55:36.840,-0.05,-0.17
23:55:36.844,0.035,-0.165
23:55:36.848,0.105,-0.18
23:55:36.852,0.14,-0.16
23:55:36.856,0.145,-0.18
23:55:36.860,0.165,-0.2
23:55:36.864,0.145,-0.195
23:55:36.868,0.145,-0.19
23:55:36.872,0.155,-0.225
23:55:36.876,0.18,-0.245
23:55:36.880,0.17,-0.265
23:55:36.884,0.17,-0.255
23:55:36.888,0.185,-0.21
23:55:36.892,0.175,-0.18
23:55:36.896,0.175,-0.185
23:55:36.900,0.155,-0.165
23:55:36.904,0.135,-0.195
23:55:36.908,0.13,-0.205
23:55:36.912,0.08,-0.225
23:55:36.916,0.08,-0.2
23:55:36.920,0.085,-0.2
23:55:36.924,0.09,-0.21
23:55:36.928,0.09,-0.215
23:55:36.932,0.09,-0.205
23:55:36.936,0.085,-0.185
23:55:36.940,0.1,-0.19
23:55:36.944,0.085,-0.18
23:55:36.948,0.09,-0.175
23:55:36.952,0.09,-0.18
23:55:36.956,0.095,-0.155
23:55:36.960,0.095,-0.15
23:55:36.964,0.08,-0.125
23:55:36.968,0.095,-0.12
23:55:36.972,0.105,-0.105
23:55:36.976,0.09,-0.09
23:55:36.980,0.105,-0.08
23:55:36.984,0.09,-0.08
23:55:36.988,0.115,-0.065
23:55:36.992,0.105,-0.06
23:55:36.996,0.12,-0.03
23:55:37.000,0.12,-0.015
23:55:37.004,0.12,-0.015
23:55:37.008,0.13,-0.015
23:55:37.012,0.15,-0.005
23:55:37.016,0.135,0.0
23:55:37.020,0.145,0.005
23:55:37.024,0.135,0.025
23:55:37.028,0.145,0.03
23:55:37.032,0.145,0.035
23:55:37.036,0.165,0.035
23:55:37.040,0.18,0.055
23:55:37.044,0.175,0.035
23:55:37.048,0.165,0.015
23:55:37.052,0.18,0.03
23:55:37.056,0.195,0.015
23:55:37.060,0.205,0.04
23:55:37.064,0.24,0.035
23:55:37.068,0.25,0.015
23:55:37.072,0.24,-0.02
23:55:37.076,0.215,-0.03
23:55:37.080,0.225,-0.025
23:55:37.084,0.205,-0.03
23:55:37.088,0.175,-0.07
23:55:37.092,0.185,-0.08
23:55:37.096,0.17,-0.09
23:55:37.100,0.135,-0.1
23:55:37.104,0.125,-0.11
23:55:37.108,0.115,-0.145
23:55:37.112,0.105,-0.145
23:55:37.116,0.11,-0.165
23:55:37.120,0.12,-0.165
23:55:37.124,0.13,-0.16
23:55:37.128,0.11,-0.155
23:55:37.132,0.12,-0.175
23:55:37.136,0.11,-0.175
23:55:37.140,0.1,-0.17
23:55:37.144,0.11,-0.18
23:55:37.148,0.125,-0.18
23:55:37.152,0.105,-0.19
23:55:37.156,0.13,-0.195
23:55:37.160,0.11,-0.2
23:55:37.164,0.12,-0.195
23:55:37.168,0.11,-0.205
23:55:37.172,0.115,-0.22
23:55:37.176,0.12,-0.21
23:55:37.180,0.095,-0.2
23:55:37.184,0.1,-0.205
23:55:37.188,0.12,-0.21
23:55:37.192,0.13,-0.22
23:55:37.196,0.115,-0.21
23:55:37.200,0.115,-0.225
23:55:37.204,0.1,-0.235
23:55:37.208,0.11,-0.225
23:55:37.212,0.11,-0.245
23:55:37.216,0.115,-0.255
23:55:37.220,0.125,-0.265
23:55:37.224,0.105,-0.28
23:55:37.228,0.125,-0.25
23:55:37.232,0.135,-0.195
23:55:37.236,0.145,-0.175
23:55:37.240,0.16,-0.14
23:55:37.244,0.155,-0.11
23:55:37.248,0.16,-0.105
23:55:37.252,0.18,-0.12
23:55:37.256,0.19,-0.125
23:55:37.260,0.175,-0.115
23:55:37.264,0.165,-0.12
23:55:37.268,0.17,-0.135
23:55:37.272,0.145,-0.13
23:55:37.276,0.15,-0.14
23:55:37.280,0.14,-0.16
23:55:37.284,0.135,-0.175
23:55:37.288,0.12,-0.185
23:55:37.292,0.115,-0.185
23:55:37.296,0.115,-0.195
23:55:37.300,0.125,-0.205
23:55:37.304,0.115,-0.205
23:55:37.308,0.11,-0.175
23:55:37.312,0.115,-0.085
23:55:37.316,0.14,0.14
23:55:37.320,0.17,0.42
23:55:37.324,0.215,0.71
23:55:37.328,0.28,0.935
23:55:37.332,0.37,0.875
23:55:37.336,0.485,0.545
23:55:37.340,0.48,-0.045
23:55:37.344,0.43,-0.71
23:55:37.348,0.285,-1.075
23:55:37.352,0.09,-1.185
23:55:37.356,-0.115,-1.11
23:55:37.360,-0.24,-0.905
23:55:37.364,-0.315,-0.715
23:55:37.368,-0.265,-0.57
23:55:37.372,-0.22,-0.44
23:55:37.376,-0.125,-0.33
23:55:37.380,-0.02,-0.275
23:55:37.384,0.04,-0.26
23:55:37.388,0.11,-0.24
23:55:37.392,0.14,-0.235
23:55:37.396,0.12,-0.25
23:55:37.400,0.155,-0.245
23:55:37.404,0.15,-0.265
23:55:37.408,0.15,-0.26
23:55:37.412,0.165,-0.26
23:55:37.416,0.175,-0.22
23:55:37.420,0.175,-0.2
23:55:37.424,0.19,-0.17
23:55:37.428,0.21,-0.175
23:55:37.432,0.21,-0.165
23:55:37.436,0.185,-0.145
23:55:37.440,0.19,-0.16
23:55:37.444,0.185,-0.155
23:55:37.448,0.16,-0.155
23:55:37.452,0.14,-0.16
23:55:37.456,0.15,-0.18
23:55:37.460,0.14,-0.185
23:55:37.464,0.11,-0.18
23:55:37.468,0.135,-0.185
23:55:37.472,0.14,-0.175
23:55:37.476,0.135,-0.19
23:55:37.480,0.135,-0.19
23:55:37.484,0.14,-0.205
23:55:37.488,0.12,-0.2
23:55:37.492,0.12,-0.19
23:55:37.496,0.125,-0.2
23:55:37.500,0.115,-0.215
23:55:37.504,0.13,-0.2
23:55:37.508,0.125,-0.205
23:55:37.512,0.135,-0.195
23:55:37.516,0.13,-0.185
23:55:37.520,0.13,-0.19
23:55:37.524,0.155,-0.195
23:55:37.528,0.135,-0.185
23:55:37.532,0.15,-0.165
23:55:37.536,0.145,-0.16
23:55:37.540,0.14,-0.15
23:55:37.544,0.16,-0.135
23:55:37.548,0.17,-0.115
23:55:37.552,0.145,-0.095
23:55:37.556,0.165,-0.09
23:55:37.560,0.16,-0.06
23:55:37.564,0.18,-0.065
23:55:37.568,0.2,-0.05
23:55:37.572,0.21,-0.03
23:55:37.576,0.185,0.0
23:55:37.580,0.225,0.025
23:55:37.584,0.235,0.015
23:55:37.588,0.23,-0.005
23:55:37.592,0.22,0.0
23:55:37.596,0.235,0.03
23:55:37.600,0.23,0.095
23:55:37.604,0.245,0.105
23:55:37.608,0.285,0.135
23:55:37.612,0.29,0.13
23:55:37.616,0.28,0.13
23:55:37.620,0.27,0.105
23:55:37.624,0.26,0.08
23:55:37.628,0.24,0.075
23:55:37.632,0.25,0.06
23:55:37.636,0.245,0.025
23:55:37.640,0.25,0.01
23:55:37.644,0.21,-0.015
23:55:37.648,0.205,-0.05
23:55:37.652,0.18,-0.08
23:55:37.656,0.175,-0.08
23:55:37.660,0.175,-0.105
23:55:37.664,0.16,-0.105
23:55:37.668,0.145,-0.135
23:55:37.672,0.13,-0.13
23:55:37.676,0.15,-0.135
23:55:37.680,0.15,-0.14
23:55:37.684,0.14,-0.15
23:55:37.688,0.15,-0.165
23:55:37.692,0.15,-0.155
23:55:37.696,0.135,-0.16
23:55:37.700,0.135,-0.175
23:55:37.704,0.135,-0.17
23:55:37.708,0.145,-0.205
23:55:37.712,0.115,-0.21
23:55:37.716,0.115,-0.22
23:55:37.720,0.12,-0.21
23:55:37.724,0.12,-0.17
23:55:37.728,0.135,-0.175
23:55:37.732,0.13,-0.195
23:55:37.736,0.115,-0.18
23:55:37.740,0.13,-0.2
23:55:37.744,0.13,-0.205
23:55:37.748,0.14,-0.215
23:55:37.752,0.135,-0.19
23:55:37.756,0.14,-0.24
23:55:37.760,0.145,-0.24
23:55:37.764,0.14,-0.21
23:55:37.768,0.135,-0.22
23:55:37.772,0.16,-0.25
23:55:37.776,0.185,-0.265
23:55:37.780,0.18,-0.28
23:55:37.784,0.19,-0.24
23:55:37.788,0.185,-0.18
23:55:37.792,0.19,-0.145
23:55:37.796,0.165,-0.12
23:55:37.800,0.18,-0.085
23:55:37.804,0.19,-0.085
23:55:37.808,0.195,-0.11
23:55:37.812,0.175,-0.14
23:55:37.816,0.16,-0.125
23:55:37.820,0.155,-0.135
23:55:37.824,0.155,-0.135
23:55:37.828,0.165,-0.15
23:55:37.832,0.145,-0.145
23:55:37.836,0.145,-0.165
23:55:37.840,0.15,-0.155
23:55:37.844,0.16,-0.165
23:55:37.848,0.14,-0.155
23:55:37.852,0.12,-0.175
23:55:37.856,0.135,-0.175
23:55:37.860,0.115,-0.175
23:55:37.864,0.125,-0.16
23:55:37.868,0.135,-0.135
23:55:37.872,0.13,-0.005
23:55:37.876,0.15,0.225
23:55:37.880,0.19,0.525
23:55:37.884,0.225,0.785
23:55:37.888,0.285,0.865
23:55:37.892,0.375,0.68
23:55:37.896,0.445,0.235
23:55:37.900,0.46,-0.48
23:55:37.904,0.41,-1.02
23:55:37.908,0.33,-1.27
23:55:37.912,0.155,-1.23
23:55:37.916,-0.04,-1.05
23:55:37.920,-0.165,-0.85
23:55:37.924,-0.25,-0.69
23:55:37.928,-0.215,-0.55
23:55:37.932,-0.175,-0.46
23:55:37.936,-0.105,-0.345
23:55:37.940,-0.03,-0.285
23:55:37.944,0.025,-0.27
23:55:37.948,0.085,-0.245
23:55:37.952,0.1,-0.235
23:55:37.956,0.11,-0.24
23:55:37.960,0.145,-0.235
23:55:37.964,0.16,-0.22
23:55:37.968,0.15,-0.225
23:55:37.972,0.17,-0.25
23:55:37.976,0.16,-0.24
23:55:37.980,0.145,-0.205
23:55:37.984,0.13,-0.205
23:55:37.988,0.15,-0.215
23:55:37.992,0.12,-0.21
23:55:37.996,0.1,-0.22
23:55:38.000,0.1,-0.22
23:55:38.004,0.105,-0.225
23:55:38.008,0.095,-0.22
23:55:38.012,0.09,-0.225
23:55:38.016,0.08,-0.255
23:55:38.020,0.07,-0.26
23:55:38.024,0.08,-0.275
23:55:38.028,0.085,-0.285
23:55:38.032,0.075,-0.28
23:55:38.036,0.075,-0.275
23:55:38.040,0.075,-0.27
23:55:38.044,0.075,-0.27
23:55:38.048,0.06,-0.265
23:55:38.052,0.065,-0.285
23:55:38.056,0.08,-0.3
23:55:38.060,0.08,-0.295
23:55:38.064,0.07,-0.29
23:55:38.068,0.075,-0.28
23:55:38.072,0.075,-0.285
23:55:38.076,0.075,-0.285
23:55:38.080,0.075,-0.295
23:55:38.084,0.09,-0.285
23:55:38.088,0.09,-0.265
23:55:38.092,0.095,-0.25
23:55:38.096,0.08,-0.25
23:55:38.100,0.095,-0.25
23:55:38.104,0.095,-0.24
23:55:38.108,0.115,-0.215
23:55:38.112,0.11,-0.225
23:55:38.116,0.1,-0.215
23:55:38.120,0.105,-0.22
23:55:38.124,0.11,-0.205
23:55:38.128,0.11,-0.125
23:55:38.132,0.14,-0.06
23:55:38.136,0.15,-0.05
23:55:38.140,0.185,-0.05
23:55:38.144,0.195,-0.045
23:55:38.148,0.175,-0.035
23:55:38.152,0.155,-0.03
23:55:38.156,0.15,-0.035
23:55:38.160,0.14,-0.035
23:55:38.164,0.15,-0.03
23:55:38.168,0.175,-0.04
23:55:38.172,0.155,-0.055
23:55:38.176,0.155,-0.075
23:55:38.180,0.155,-0.1
23:55:38.184,0.145,-0.095
23:55:38.188,0.15,-0.12
23:55:38.192,0.12,-0.13
23:55:38.196,0.125,-0.14
23:55:38.200,0.13,-0.14
23:55:38.204,0.13,-0.16
23:55:38.208,0.145,-0.165
23:55:38.212,0.14,-0.17
23:55:38.216,0.115,-0.17
23:55:38.220,0.115,-0.195
23:55:38.224,0.115,-0.21
23:55:38.228,0.13,-0.19
23:55:38.232,0.135,-0.175
23:55:38.236,0.13,-0.195
23:55:38.240,0.125,-0.185
23:55:38.244,0.11,-0.195
23:55:38.248,0.115,-0.215
23:55:38.252,0.135,-0.215
23:55:38.256,0.13,-0.195
23:55:38.260,0.14,-0.205
23:55:38.264,0.135,-0.21
23:55:38.268,0.14,-0.22
23:55:38.272,0.125,-0.2
23:55:38.276,0.125,-0.205
23:55:38.280,0.135,-0.2
23:55:38.284,0.13,-0.22
23:55:38.288,0.125,-0.225
23:55:38.292,0.14,-0.205
23:55:38.296,0.145,-0.205
23:55:38.300,0.165,-0.215
23:55:38.304,0.175,-0.23
23:55:38.308,0.155,-0.23
23:55:38.312,0.165,-0.2
23:55:38.316,0.18,-0.19
23:55:38.320,0.185,-0.155
23:55:38.324,0.17,-0.135
23:55:38.328,0.185,-0.15
23:55:38.332,0.2,-0.145
23:55:38.336,0.19,-0.14
23:55:38.340,0.185,-0.16
23:55:38.344,0.16,-0.17
23:55:38.348,0.145,-0.19
23:55:38.352,0.12,-0.18
23:55:38.356,0.125,-0.195
23:55:38.360,0.135,-0.21
23:55:38.364,0.15,-0.215
23:55:38.368,0.135,-0.235
23:55:38.372,0.125,-0.23
23:55:38.376,0.135,-0.215
23:55:38.380,0.135,-0.23
23:55:38.384,0.125,-0.225
23:55:38.388,0.125,-0.24
23:55:38.392,0.12,-0.24
23:55:38.396,0.11,-0.255
23:55:38.400,0.12,-0.24
23:55:38.404,0.115,-0.245
23:55:38.408,0.12,-0.25
23:55:38.412,0.12,-0.245
23:55:38.416,0.105,-0.235
23:55:38.420,0.115,-0.255
23:55:38.424,0.12,-0.265
23:55:38.428,0.11,-0.265
23:55:38.432,0.105,-0.28
23:55:38.436,0.095,-0.265
23:55:38.440,0.12,-0.26
23:55:38.444,0.11,-0.265
23:55:38.448,0.1,-0.28
23:55:38.452,0.125,-0.275
23:55:38.456,0.105,-0.275
23:55:38.460,0.09,-0.26
23:55:38.464,0.095,-0.275
23:55:38.468,0.11,-0.28
23:55:38.472,0.105,-0.27
23:55:38.476,0.11,-0.275
23:55:38.480,0.105,-0.27
23:55:38.484,0.11,-0.27
23:55:38.488,0.095,-0.255
23:55:38.492,0.105,-0.245
23:55:38.496,0.125,-0.24
23:55:38.500,0.14,-0.245
23:55:38.504,0.14,-0.24
23:55:38.508,0.16,-0.22
23:55:38.512,0.185,-0.17
23:55:38.516,0.19,-0.13
23:55:38.520,0.21,-0.09
23:55:38.524,0.225,-0.05
23:55:38.528,0.215,-0.075
23:55:38.532,0.215,-0.105
23:55:38.536,0.205,-0.13
23:55:38.540,0.19,-0.14
23:55:38.544,0.165,-0.155
23:55:38.548,0.17,-0.15
23:55:38.552,0.15,-0.17
23:55:38.556,0.17,-0.16
23:55:38.560,0.155,-0.175
23:55:38.564,0.16,-0.125
23:55:38.568,0.155,-0.03
23:55:38.572,0.145,0.115
23:55:38.576,0.195,0.365
23:55:38.580,0.23,0.655
23:55:38.584,0.28,0.915
23:55:38.588,0.355,0.965
23:55:38.592,0.41,0.805
23:55:38.596,0.475,0.375
23:55:38.600,0.48,-0.32
23:55:38.604,0.445,-0.89
23:55:38.608,0.345,-1.145
23:55:38.612,0.155,-1.225
23:55:38.616,-0.025,-1.09
23:55:38.620,-0.14,-0.875
23:55:38.624,-0.2,-0.705
23:55:38.628,-0.19,-0.585
23:55:38.632,-0.15,-0.48
23:55:38.636,-0.115,-0.38
23:55:38.640,-0.03,-0.3
23:55:38.644,0.04,-0.275
23:55:38.648,0.085,-0.25
23:55:38.652,0.1,-0.265
23:55:38.656,0.115,-0.285
23:55:38.660,0.125,-0.275
23:55:38.664,0.11,-0.27
23:55:38.668,0.11,-0.265
23:55:38.672,0.12,-0.275
23:55:38.676,0.115,-0.26
23:55:38.680,0.105,-0.275
23:55:38.684,0.115,-0.265
23:55:38.688,0.11,-0.26
23:55:38.692,0.12,-0.25
23:55:38.696,0.125,-0.275
23:55:38.700,0.14,-0.275
23:55:38.704,0.145,-0.275
23:55:38.708,0.15,-0.29
23:55:38.712,0.13,-0.295
23:55:38.716,0.12,-0.28
23:55:38.720,0.115,-0.29
23:55:38.724,0.105,-0.295
23:55:38.728,0.115,-0.275
23:55:38.732,0.115,-0.245
23:55:38.736,0.14,-0.235
23:55:38.740,0.135,-0.25
23:55:38.744,0.14,-0.26
23:55:38.748,0.155,-0.27
23:55:38.752,0.16,-0.27
23:55:38.756,0.155,-0.25
23:55:38.760,0.15,-0.225
23:55:38.764,0.175,-0.23
23:55:38.768,0.19,-0.21
23:55:38.772,0.175,-0.195
23:55:38.776,0.18,-0.19
23:55:38.780,0.145,-0.185
23:55:38.784,0.15,-0.175
23:55:38.788,0.125,-0.18
23:55:38.792,0.125,-0.185
23:55:38.796,0.125,-0.175
23:55:38.800,0.12,-0.19
23:55:38.804,0.115,-0.18
23:55:38.808,0.135,-0.18
23:55:38.812,0.13,-0.155
23:55:38.816,0.13,-0.16
23:55:38.820,0.11,-0.165
23:55:38.824,0.135,-0.16
23:55:38.828,0.1,-0.14
23:55:38.832,0.125,-0.15
23:55:38.836,0.145,-0.12
23:55:38.840,0.14,-0.125
23:55:38.844,0.125,-0.1
23:55:38.848,0.13,-0.09
23:55:38.852,0.145,-0.07
23:55:38.856,0.14,-0.08
23:55:38.860,0.125,-0.075
23:55:38.864,0.15,-0.065
23:55:38.868,0.135,-0.04
23:55:38.872,0.15,-0.03
23:55:38.876,0.155,-0.025
23:55:38.880,0.165,-0.035
23:55:38.884,0.19,-0.05
23:55:38.888,0.185,-0.06
23:55:38.892,0.165,-0.05
23:55:38.896,0.165,-0.04
23:55:38.900,0.18,-0.055
23:55:38.904,0.19,-0.085
23:55:38.908,0.18,-0.075
23:55:38.912,0.185,-0.055
23:55:38.916,0.165,-0.075
23:55:38.920,0.175,-0.08
23:55:38.924,0.165,-0.12
23:55:38.928,0.17,-0.125
23:55:38.932,0.165,-0.1
23:55:38.936,0.175,-0.11
23:55:38.940,0.16,-0.09
23:55:38.944,0.155,-0.095
23:55:38.948,0.155,-0.1
23:55:38.952,0.185,-0.075
23:55:38.956,0.19,-0.085
23:55:38.960,0.205,-0.075
23:55:38.964,0.185,-0.105
23:55:38.968,0.205,-0.14
23:55:38.972,0.225,-0.165
23:55:38.976,0.205,-0.165
23:55:38.980,0.19,-0.155
23:55:38.984,0.195,-0.19
23:55:38.988,0.195,-0.175
23:55:38.992,0.2,-0.165
23:55:38.996,0.2,-0.135
23:55:39.000,0.205,-0.12
23:55:39.004,0.2,-0.11
23:55:39.008,0.2,-0.105
23:55:39.012,0.215,-0.12
23:55:39.016,0.175,-0.14
23:55:39.020,0.155,-0.16
23:55:39.024,0.145,-0.18
23:55:39.028,0.1,-0.2
23:55:39.032,0.095,-0.195
23:55:39.036,0.07,-0.2
23:55:39.040,0.08,-0.195
23:55:39.044,0.065,-0.195
23:55:39.048,0.09,-0.22
23:55:39.052,0.085,-0.22
23:55:39.056,0.085,-0.185
23:55:39.060,0.07,-0.215
23:55:39.064,0.095,-0.205
23:55:39.068,0.095,-0.2
23:55:39.072,0.09,-0.18
23:55:39.076,0.09,-0.2
23:55:39.080,0.115,-0.2
23:55:39.084,0.085,-0.19
23:55:39.088,0.11,-0.195
23:55:39.092,0.095,-0.2
23:55:39.096,0.1,-0.1
23:55:39.100,0.115,0.115
23:55:39.104,0.145,0.405
23:55:39.108,0.195,0.72
23:55:39.112,0.28,0.95
23:55:39.116,0.355,0.885
23:55:39.120,0.425,0.62
23:55:39.124,0.415,0.16
23:55:39.128,0.35,-0.42
23:55:39.132,0.19,-0.94
23:55:39.136,0.01,-1.14
23:55:39.140,-0.19,-1.135
23:55:39.144,-0.305,-0.96
23:55:39.148,-0.35,-0.765
23:55:39.152,-0.295,-0.6
23:55:39.156,-0.23,-0.48
23:55:39.160,-0.135,-0.39
23:55:39.164,-0.02,-0.315
23:55:39.168,0.055,-0.295
23:55:39.172,0.105,-0.315
23:55:39.176,0.14,-0.335
23:55:39.180,0.14,-0.315
23:55:39.184,0.15,-0.285
23:55:39.188,0.14,-0.23
23:55:39.192,0.155,-0.205
23:55:39.196,0.125,-0.175
23:55:39.200,0.13,-0.17
23:55:39.204,0.135,-0.17
23:55:39.208,0.13,-0.165
23:55:39.212,0.115,-0.185
23:55:39.216,0.13,-0.185
23:55:39.220,0.125,-0.19
23:55:39.224,0.095,-0.19
23:55:39.228,0.095,-0.2
23:55:39.232,0.12,-0.23
23:55:39.236,0.105,-0.24
23:55:39.240,0.095,-0.27
23:55:39.244,0.085,-0.26
23:55:39.248,0.075,-0.245
23:55:39.252,0.075,-0.27
23:55:39.256,0.065,-0.275
23:55:39.260,0.08,-0.275
23:55:39.264,0.06,-0.26
23:55:39.268,0.05,-0.26
23:55:39.272,0.065,-0.245
23:55:39.276,0.08,-0.245
23:55:39.280,0.07,-0.245
23:55:39.284,0.105,-0.245
23:55:39.288,0.095,-0.23
23:55:39.292,0.095,-0.22
23:55:39.296,0.11,-0.225
23:55:39.300,0.105,-0.245
23:55:39.304,0.11,-0.215
23:55:39.308,0.1,-0.2
23:55:39.312,0.12,-0.185
23:55:39.316,0.115,-0.185
23:55:39.320,0.12,-0.19
23:55:39.324,0.145,-0.19
23:55:39.328,0.14,-0.17
23:55:39.332,0.13,-0.155
23:55:39.336,0.145,-0.17
23:55:39.340,0.165,-0.18
23:55:39.344,0.17,-0.215
23:55:39.348,0.16,-0.215
23:55:39.352,0.17,-0.185
23:55:39.356,0.155,-0.135
23:55:39.360,0.185,-0.095
23:55:39.364,0.19,-0.095
23:55:39.368,0.185,-0.05
23:55:39.372,0.195,-0.025
23:55:39.376,0.195,-0.02
23:55:39.380,0.195,-0.025
23:55:39.384,0.19,0.0
23:55:39.388,0.165,-0.015
23:55:39.392,0.19,-0.025
23:55:39.396,0.175,-0.04
23:55:39.400,0.165,-0.06
23:55:39.404,0.165,-0.095
23:55:39.408,0.155,-0.105
23:55:39.412,0.145,-0.11
23:55:39.416,0.13,-0.12
23:55:39.420,0.12,-0.13
23:55:39.424,0.12,-0.135
23:55:39.428,0.115,-0.155
23:55:39.432,0.14,-0.155
23:55:39.436,0.13,-0.16
23:55:39.440,0.135,-0.17
23:55:39.444,0.12,-0.18
23:55:39.448,0.13,-0.17
23:55:39.452,0.125,-0.175
23:55:39.456,0.115,-0.2
23:55:39.460,0.12,-0.2
23:55:39.464,0.125,-0.205
23:55:39.468,0.125,-0.21
23:55:39.472,0.12,-0.19
23:55:39.476,0.14,-0.2
23:55:39.480,0.125,-0.17
23:55:39.484,0.13,-0.205
23:55:39.488,0.14,-0.205
23:55:39.492,0.155,-0.195
23:55:39.496,0.145,-0.19
23:55:39.500,0.15,-0.195
23:55:39.504,0.15,-0.225
23:55:39.508,0.125,-0.215
23:55:39.512,0.145,-0.225
23:55:39.516,0.14,-0.225
23:55:39.520,0.13,-0.24
23:55:39.524,0.15,-0.27
23:55:39.528,0.16,-0.275
23:55:39.532,0.175,-0.21
23:55:39.536,0.18,-0.175
23:55:39.540,0.2,-0.155
23:55:39.544,0.205,-0.155
23:55:39.548,0.19,-0.14
23:55:39.552,0.2,-0.145
23:55:39.556,0.205,-0.09
23:55:39.560,0.225,-0.08
23:55:39.564,0.215,-0.105
23:55:39.568,0.225,-0.11
23:55:39.572,0.21,-0.135
23:55:39.576,0.195,-0.135
23:55:39.580,0.17,-0.13
23:55:39.584,0.175,-0.14
23:55:39.588,0.175,-0.155
23:55:39.592,0.155,-0.15
23:55:39.596,0.15,-0.17
23:55:39.600,0.17,-0.17
23:55:39.604,0.145,-0.19
23:55:39.608,0.15,-0.19
23:55:39.612,0.14,-0.21
23:55:39.616,0.13,-0.205
23:55:39.620,0.145,-0.19
23:55:39.624,0.155,-0.205
23:55:39.628,0.13,-0.21
23:55:39.632,0.135,-0.215
23:55:39.636,0.15,-0.21
23:55:39.640,0.145,-0.205
23:55:39.644,0.125,-0.225
23:55:39.648,0.15,-0.245
23:55:39.652,0.145,-0.235
23:55:39.656,0.13,-0.24
23:55:39.660,0.155,-0.225
23:55:39.664,0.13,-0.225
23:55:39.668,0.13,-0.245
23:55:39.672,0.105,-0.27
23:55:39.676,0.115,-0.265
23:55:39.680,0.12,-0.255
23:55:39.684,0.11,-0.255
23:55:39.688,0.12,-0.26
23:55:39.692,0.11,-0.255
23:55:39.696,0.13,-0.235
23:55:39.700,0.125,-0.24
23:55:39.704,0.125,-0.225
23:55:39.708,0.145,-0.215
23:55:39.712,0.13,-0.225
23:55:39.716,0.145,-0.23
23:55:39.720,0.135,-0.24
23:55:39.724,0.125,-0.235
23:55:39.728,0.14,-0.25
23:55:39.732,0.14,-0.26
23:55:39.736,0.145,-0.27
23:55:39.740,0.145,-0.275
23:55:39.744,0.155,-0.275
23:55:39.748,0.165,-0.26
23:55:39.752,0.18,-0.23
23:55:39.756,0.185,-0.18
23:55:39.760,0.21,-0.175
23:55:39.764,0.22,-0.145
23:55:39.768,0.22,-0.13
23:55:39.772,0.21,-0.13
23:55:39.776,0.2,-0.16
23:55:39.780,0.18,-0.155
23:55:39.784,0.165,-0.145
23:55:39.788,0.155,-0.145
23:55:39.792,0.155,-0.155
23:55:39.796,0.14,-0.18
23:55:39.800,0.14,-0.18
23:55:39.804,0.135,-0.18
23:55:39.808,0.13,-0.185
23:55:39.812,0.14,-0.19
23:55:39.816,0.13,-0.19
23:55:39.820,0.105,-0.18
23:55:39.824,0.1,-0.19
23:55:39.828,0.12,-0.195
23:55:39.832,0.12,-0.18
23:55:39.836,0.12,-0.185
23:55:39.840,0.13,-0.205
23:55:39.844,0.12,-0.17
23:55:39.848,0.125,-0.07
23:55:39.852,0.14,0.135
23:55:39.856,0.165,0.395
23:55:39.860,0.185,0.675
23:55:39.864,0.265,0.82
23:55:39.868,0.345,0.715
23:55:39.872,0.435,0.41
23:55:39.876,0.465,-0.11
23:55:39.880,0.435,-0.73
23:55:39.884,0.385,-1.12
23:55:39.888,0.26,-1.245
23:55:39.892,0.06,-1.155
23:55:39.896,-0.075,-0.97
23:55:39.900,-0.205,-0.8
23:55:39.904,-0.22,-0.68
23:55:39.908,-0.215,-0.57
23:55:39.912,-0.175,-0.455
23:55:39.916,-0.115,-0.335
23:55:39.920,-0.04,-0.295
23:55:39.924,0.035,-0.26
23:55:39.928,0.085,-0.255
23:55:39.932,0.115,-0.27
23:55:39.936,0.12,-0.27
23:55:39.940,0.105,-0.275
23:55:39.944,0.105,-0.255
23:55:39.948,0.12,-0.255
23:55:39.952,0.14,-0.26
23:55:39.956,0.15,-0.24
23:55:39.960,0.15,-0.225
23:55:39.964,0.16,-0.21
23:55:39.968,0.16,-0.175
23:55:39.972,0.18,-0.16
23:55:39.976,0.195,-0.15
23:55:39.980,0.205,-0.165
23:55:39.984,0.18,-0.15
23:55:39.988,0.195,-0.14
23:55:39.992,0.175,-0.155
23:55:39.996,0.155,-0.145
23:55:40.000,0.115,-0.185
23:55:40.004,0.115,-0.2
23:55:40.008,0.11,-0.22
23:55:40.012,0.09,-0.215
23:55:40.016,0.1,-0.24
23:55:40.020,0.085,-0.23
23:55:40.024,0.08,-0.235
23:55:40.028,0.1,-0.235
23:55:40.032,0.095,-0.235
23:55:40.036,0.105,-0.23
23:55:40.040,0.1,-0.24
23:55:40.044,0.1,-0.23
23:55:40.048,0.11,-0.235
23:55:40.052,0.11,-0.225
23:55:40.056,0.095,-0.235
23:55:40.060,0.09,-0.215
23:55:40.064,0.1,-0.23
23:55:40.068,0.1,-0.22
23:55:40.072,0.1,-0.215
23:55:40.076,0.1,-0.2
23:55:40.080,0.105,-0.2
23:55:40.084,0.105,-0.215
23:55:40.088,0.115,-0.215
23:55:40.092,0.115,-0.19
23:55:40.096,0.125,-0.215
23:55:40.100,0.13,-0.2
23:55:40.104,0.115,-0.22
23:55:40.108,0.095,-0.205
23:55:40.112,0.095,-0.215
23:55:40.116,0.1,-0.2
23:55:40.120,0.105,-0.2
23:55:40.124,0.095,-0.22
23:55:40.128,0.095,-0.225
23:55:40.132,0.08,-0.205
23:55:40.136,0.085,-0.17
23:55:40.140,0.095,-0.145
23:55:40.144,0.12,-0.16
23:55:40.148,0.12,-0.165
23:55:40.152,0.14,-0.15
23:55:40.156,0.155,-0.125
23:55:40.160,0.15,-0.12
23:55:40.164,0.175,-0.12
23:55:40.168,0.19,-0.12
23:55:40.172,0.2,-0.115
23:55:40.176,0.215,-0.085
23:55:40.180,0.215,-0.075
23:55:40.184,0.215,-0.06
23:55:40.188,0.22,-0.045
23:55:40.192,0.23,-0.03
23:55:40.196,0.255,-0.035
23:55:40.200,0.265,-0.025
23:55:40.204,0.245,-0.02
23:55:40.208,0.22,-0.07
23:55:40.212,0.215,-0.065
23:55:40.216,0.21,-0.075
23:55:40.220,0.185,-0.07
23:55:40.224,0.185,-0.105
23:55:40.228,0.17,-0.105
23:55:40.232,0.15,-0.12
23:55:40.236,0.155,-0.14
23:55:40.240,0.14,-0.13
23:55:40.244,0.13,-0.13
23:55:40.248,0.14,-0.14
23:55:40.252,0.135,-0.135
23:55:40.256,0.14,-0.14
23:55:40.260,0.125,-0.14
23:55:40.264,0.125,-0.155
23:55:40.268,0.125,-0.155
23:55:40.272,0.13,-0.16
23:55:40.276,0.135,-0.16
23:55:40.280,0.14,-0.165
23:55:40.284,0.12,-0.155
23:55:40.288,0.125,-0.17
23:55:40.292,0.135,-0.185
23:55:40.296,0.125,-0.205
23:55:40.300,0.11,-0.18
23:55:40.304,0.115,-0.22
23:55:40.308,0.11,-0.235
23:55:40.312,0.095,-0.24
23:55:40.316,0.09,-0.255
23:55:40.320,0.115,-0.24
23:55:40.324,0.075,-0.265
23:55:40.328,0.09,-0.28
23:55:40.332,0.1,-0.275
23:55:40.336,0.085,-0.265
23:55:40.340,0.085,-0.24
23:55:40.344,0.105,-0.26
23:55:40.348,0.125,-0.25
23:55:40.352,0.13,-0.265
23:55:40.356,0.12,-0.27
23:55:40.360,0.135,-0.26
23:55:40.364,0.13,-0.21
23:55:40.368,0.14,-0.23
23:55:40.372,0.15,-0.27
23:55:40.376,0.165,-0.315
23:55:40.380,0.155,-0.28
23:55:40.384,0.185,-0.24
23:55:40.388,0.18,-0.17
23:55:40.392,0.185,-0.14
23:55:40.396,0.2,-0.12
23:55:40.400,0.205,-0.095
23:55:40.404,0.205,-0.09
23:55:40.408,0.185,-0.12
23:55:40.412,0.195,-0.13
23:55:40.416,0.185,-0.125
23:55:40.420,0.165,-0.1
23:55:40.424,0.16,-0.11
23:55:40.428,0.16,-0.135
23:55:40.432,0.155,-0.14
23:55:40.436,0.155,-0.165
23:55:40.440,0.15,-0.195
23:55:40.444,0.15,-0.2
23:55:40.448,0.14,-0.2
23:55:40.452,0.135,-0.195
23:55:40.456,0.15,-0.21
23:55:40.460,0.13,-0.19
23:55:40.464,0.145,-0.21
23:55:40.468,0.145,-0.21
23:55:40.472,0.145,-0.2
23:55:40.476,0.125,-0.215
23:55:40.480,0.14,-0.21
23:55:40.484,0.125,-0.22
23:55:40.488,0.135,-0.225
23:55:40.492,0.14,-0.225
23:55:40.496,0.145,-0.245
23:55:40.500,0.135,-0.23
23:55:40.504,0.15,-0.22
23:55:40.508,0.15,-0.21
23:55:40.512,0.155,-0.22
23:55:40.516,0.135,-0.22
23:55:40.520,0.16,-0.25
23:55:40.524,0.135,-0.235
23:55:40.528,0.11,-0.19
23:55:40.532,0.12,-0.07
23:55:40.536,0.165,0.125
23:55:40.540,0.18,0.4
23:55:40.544,0.22,0.66
23:55:40.548,0.305,0.835
23:55:40.552,0.385,0.75
23:55:40.556,0.46,0.46
23:55:40.560,0.49,-0.12
23:55:40.564,0.43,-0.755
23:55:40.568,0.335,-1.115
23:55:40.572,0.2,-1.26
23:55:40.576,0.015,-1.185
23:55:40.580,-0.1,-0.965
23:55:40.584,-0.16,-0.8
23:55:40.588,-0.135,-0.635
23:55:40.592,-0.085,-0.495
23:55:40.596,-0.045,-0.32
23:55:40.600,0.045,-0.195
23:55:40.604,0.115,-0.14
23:55:40.608,0.185,-0.115
23:55:40.612,0.205,-0.105
23:55:40.616,0.23,-0.13
23:55:40.620,0.205,-0.145
23:55:40.624,0.185,-0.15
23:55:40.628,0.18,-0.15
23:55:40.632,0.19,-0.16
23:55:40.636,0.175,-0.18
23:55:40.640,0.175,-0.205
23:55:40.644,0.145,-0.195
23:55:40.648,0.16,-0.21
23:55:40.652,0.145,-0.215
23:55:40.656,0.145,-0.23
23:55:40.660,0.135,-0.22
23:55:40.664,0.145,-0.205
23:55:40.668,0.13,-0.21
23:55:40.672,0.14,-0.22
23:55:40.676,0.135,-0.225
23:55:40.680,0.13,-0.215
23:55:40.684,0.135,-0.225
23:55:40.688,0.135,-0.23
23:55:40.692,0.115,-0.22
23:55:40.696,0.13,-0.215
23:55:40.700,0.13,-0.225
23:55:40.704,0.13,-0.24
23:55:40.708,0.135,-0.225
23:55:40.712,0.12,-0.23
23:55:40.716,0.135,-0.23
23:55:40.720,0.13,-0.245
23:55:40.724,0.13,-0.24
23:55:40.728,0.135,-0.245
23:55:40.732,0.12,-0.255
23:55:40.736,0.115,-0.245
23:55:40.740,0.12,-0.265
23:55:40.744,0.125,-0.28
23:55:40.748,0.105,-0.27
23:55:40.752,0.1,-0.265
23:55:40.756,0.1,-0.255
23:55:40.760,0.105,-0.23
23:55:40.764,0.125,-0.24
23:55:40.768,0.145,-0.255
23:55:40.772,0.155,-0.25
23:55:40.776,0.155,-0.225
23:55:40.780,0.15,-0.205
23:55:40.784,0.17,-0.225
23:55:40.788,0.165,-0.21
23:55:40.792,0.2,-0.17
23:55:40.796,0.22,-0.15
23:55:40.800,0.225,-0.13
23:55:40.804,0.235,-0.085
23:55:40.808,0.245,-0.08
23:55:40.812,0.255,-0.045
23:55:40.816,0.25,-0.005
23:55:40.820,0.25,-0.015
23:55:40.824,0.245,0.02
23:55:40.828,0.225,-0.01
23:55:40.832,0.215,-0.01
23:55:40.836,0.21,-0.01
23:55:40.840,0.205,-0.015
23:55:40.844,0.185,-0.045
23:55:40.848,0.16,-0.075
23:55:40.852,0.165,-0.08
23:55:40.856,0.16,-0.085
23:55:40.860,0.155,-0.09
23:55:40.864,0.165,-0.11
23:55:40.868,0.165,-0.095
23:55:40.872,0.15,-0.1
23:55:40.876,0.155,-0.115
23:55:40.880,0.16,-0.11
23:55:40.884,0.16,-0.12
23:55:40.888,0.17,-0.14
23:55:40.892,0.18,-0.12
23:55:40.896,0.18,-0.11
23:55:40.900,0.18,-0.11
23:55:40.904,0.185,-0.11
23:55:40.908,0.17,-0.12
23:55:40.912,0.175,-0.115
23:55:40.916,0.175,-0.13
23:55:40.920,0.175,-0.125
23:55:40.924,0.165,-0.13
23:55:40.928,0.155,-0.13
23:55:40.932,0.165,-0.155
23:55:40.936,0.14,-0.145
23:55:40.940,0.15,-0.175
23:55:40.944,0.155,-0.21
23:55:40.948,0.14,-0.245
23:55:40.952,0.13,-0.24
23:55:40.956,0.115,-0.24
23:55:40.960,0.115,-0.23
23:55:40.964,0.1,-0.21
23:55:40.968,0.1,-0.22
23:55:40.972,0.13,-0.245
23:55:40.976,0.15,-0.23
23:55:40.980,0.15,-0.24
23:55:40.984,0.145,-0.245
23:55:40.988,0.13,-0.255
23:55:40.992,0.14,-0.255
23:55:40.996,0.14,-0.25
23:55:41.000,0.155,-0.245
23:55:41.004,0.19,-0.26
23:55:41.008,0.22,-0.22
23:55:41.012,0.21,-0.16
23:55:41.016,0.21,-0.095
23:55:41.020,0.205,-0.05
23:55:41.024,0.2,-0.07
23:55:41.028,0.195,-0.105
23:55:41.032,0.175,-0.095
23:55:41.036,0.16,-0.12
23:55:41.040,0.155,-0.12
23:55:41.044,0.165,-0.135
23:55:41.048,0.16,-0.15
23:55:41.052,0.155,-0.19
23:55:41.056,0.155,-0.18
23:55:41.060,0.12,-0.18
23:55:41.064,0.115,-0.195
23:55:41.068,0.14,-0.21
23:55:41.072,0.125,-0.2
23:55:41.076,0.12,-0.19
23:55:41.080,0.14,-0.19
23:55:41.084,0.12,-0.185
23:55:41.088,0.115,-0.185
23:55:41.092,0.135,-0.205
23:55:41.096,0.135,-0.11
23:55:41.100,0.125,0.085
23:55:41.104,0.175,0.375
23:55:41.108,0.22,0.66
23:55:41.112,0.275,0.915
23:55:41.116,0.375,0.92
23:55:41.120,0.45,0.74
23:55:41.124,0.51,0.275
23:55:41.128,0.45,-0.38
23:55:41.132,0.345,-0.925
23:55:41.136,0.165,-1.14
23:55:41.140,-0.055,-1.13
23:55:41.144,-0.215,-0.99
23:55:41.148,-0.285,-0.78
23:55:41.152,-0.265,-0.605
23:55:41.156,-0.225,-0.475
23:55:41.160,-0.13,-0.37
23:55:41.164,-0.025,-0.255
23:55:41.168,0.04,-0.23
23:55:41.172,0.1,-0.235
23:55:41.176,0.12,-0.255
23:55:41.180,0.125,-0.25
23:55:41.184,0.135,-0.25
23:55:41.188,0.13,-0.25
23:55:41.192,0.11,-0.24
23:55:41.196,0.14,-0.235
23:55:41.200,0.145,-0.255
23:55:41.204,0.14,-0.255
23:55:41.208,0.13,-0.24
23:55:41.212,0.145,-0.235
23:55:41.216,0.14,-0.23
23:55:41.220,0.13,-0.245
23:55:41.224,0.125,-0.24
23:55:41.228,0.13,-0.255
23:55:41.232,0.135,-0.245
23:55:41.236,0.14,-0.24
23:55:41.240,0.105,-0.24
23:55:41.244,0.13,-0.24
23:55:41.248,0.14,-0.245
23:55:41.252,0.12,-0.22
23:55:41.256,0.145,-0.23
23:55:41.260,0.16,-0.23
23:55:41.264,0.14,-0.22
23:55:41.268,0.14,-0.2
23:55:41.272,0.15,-0.205
23:55:41.276,0.15,-0.215
23:55:41.280,0.13,-0.195
23:55:41.284,0.14,-0.195
23:55:41.288,0.165,-0.165
23:55:41.292,0.18,-0.18
23:55:41.296,0.17,-0.185
23:55:41.300,0.155,-0.18
23:55:41.304,0.155,-0.185
23:55:41.308,0.145,-0.17
23:55:41.312,0.135,-0.19
23:55:41.316,0.125,-0.16
23:55:41.320,0.145,-0.14
23:55:41.324,0.18,-0.135
23:55:41.328,0.195,-0.11
23:55:41.332,0.215,-0.1
23:55:41.336,0.23,-0.105
23:55:41.340,0.24,-0.12
23:55:41.344,0.24,-0.12
23:55:41.348,0.245,-0.11
23:55:41.352,0.235,-0.095
23:55:41.356,0.265,-0.085
23:55:41.360,0.25,-0.08
23:55:41.364,0.245,-0.095
23:55:41.368,0.215,-0.08
23:55:41.372,0.2,-0.085
23:55:41.376,0.15,-0.1
23:55:41.380,0.17,-0.095
23:55:41.384,0.145,-0.095
23:55:41.388,0.16,-0.08
23:55:41.392,0.155,-0.08
23:55:41.396,0.165,-0.085
23:55:41.400,0.165,-0.1
23:55:41.404,0.155,-0.12
23:55:41.408,0.165,-0.12
23:55:41.412,0.15,-0.12
23:55:41.416,0.155,-0.13
23:55:41.420,0.155,-0.14
23:55:41.424,0.14,-0.165
23:55:41.428,0.165,-0.16
23:55:41.432,0.155,-0.18
23:55:41.436,0.16,-0.19
23:55:41.440,0.145,-0.19
23:55:41.444,0.15,-0.18
23:55:41.448,0.16,-0.175
23:55:41.452,0.145,-0.185
23:55:41.456,0.14,-0.18
23:55:41.460,0.16,-0.185
23:55:41.464,0.145,-0.19
23:55:41.468,0.14,-0.16
23:55:41.472,0.16,-0.15
23:55:41.476,0.165,-0.16
23:55:41.480,0.16,-0.17
23:55:41.484,0.15,-0.185
23:55:41.488,0.155,-0.125
23:55:41.492,0.15,0.045
23:55:41.496,0.175,0.315
23:55:41.500,0.23,0.635
23:55:41.504,0.295,0.865
23:55:41.508,0.375,0.835
23:55:41.512,0.475,0.545
23:55:41.516,0.535,-0.06
23:55:41.520,0.455,-0.81
23:55:41.524,0.32,-1.19
23:55:41.528,0.125,-1.27
23:55:41.532,-0.045,-1.07
23:55:41.536,-0.18,-0.835
23:55:41.540,-0.2,-0.68
23:55:41.544,-0.14,-0.53
23:55:41.548,-0.1,-0.385
23:55:41.552,-0.035,-0.265
23:55:41.556,0.035,-0.205
23:55:41.560,0.095,-0.19
23:55:41.564,0.145,-0.18
23:55:41.568,0.155,-0.18
23:55:41.572,0.18,-0.155
23:55:41.576,0.165,-0.155
23:55:41.580,0.16,-0.155
23:55:41.584,0.175,-0.17
23:55:41.588,0.18,-0.17
23:55:41.592,0.185,-0.185
23:55:41.596,0.21,-0.21
23:55:41.600,0.195,-0.275
23:55:41.604,0.19,-0.29
23:55:41.608,0.195,-0.24
23:55:41.612,0.22,-0.205
23:55:41.616,0.235,-0.19
23:55:41.620,0.22,-0.2
23:55:41.624,0.195,-0.195
23:55:41.628,0.205,-0.21
23:55:41.632,0.17,-0.21
23:55:41.636,0.14,-0.24
23:55:41.640,0.12,-0.23
23:55:41.644,0.105,-0.2
23:55:41.648,0.08,-0.2
23:55:41.652,0.115,-0.21
23:55:41.656,0.105,-0.205
23:55:41.660,0.1,-0.18
23:55:41.664,0.11,-0.18
23:55:41.668,0.115,-0.175
23:55:41.672,0.095,-0.155
23:55:41.676,0.105,-0.135
23:55:41.680,0.11,-0.12
23:55:41.684,0.115,-0.125
23:55:41.688,0.13,-0.11
23:55:41.692,0.12,-0.12
23:55:41.696,0.125,-0.1
23:55:41.700,0.11,-0.065
23:55:41.704,0.13,-0.06
23:55:41.708,0.15,-0.05
23:55:41.712,0.13,-0.04
23:55:41.716,0.13,-0.035
23:55:41.720,0.155,-0.015
23:55:41.724,0.15,-0.02
23:55:41.728,0.15,-0.005
23:55:41.732,0.15,-0.01
23:55:41.736,0.155,0.0
23:55:41.740,0.18,0.015
23:55:41.744,0.155,0.025
23:55:41.748,0.175,0.04
23:55:41.752,0.16,0.02
23:55:41.756,0.16,0.01
23:55:41.760,0.165,0.0
23:55:41.764,0.195,-0.015
23:55:41.768,0.175,0.0
23:55:41.772,0.19,-0.005
23:55:41.776,0.2,-0.03
23:55:41.780,0.23,-0.04
23:55:41.784,0.23,-0.065
23:55:41.788,0.23,-0.07
23:55:41.792,0.24,-0.08
23:55:41.796,0.245,-0.08
23:55:41.800,0.24,-0.09
23:55:41.804,0.245,-0.095
23:55:41.808,0.255,-0.105
23:55:41.812,0.265,-0.095
23:55:41.816,0.265,-0.095
23:55:41.820,0.28,-0.095
23:55:41.824,0.27,-0.08
23:55:41.828,0.25,-0.08
23:55:41.832,0.235,-0.085
23:55:41.836,0.265,-0.09
23:55:41.840,0.235,-0.11
23:55:41.844,0.235,-0.115
23:55:41.848,0.2,-0.13
23:55:41.852,0.2,-0.135
23:55:41.856,0.175,-0.165
23:55:41.860,0.18,-0.16
23:55:41.864,0.15,-0.175
23:55:41.868,0.175,-0.175
23:55:41.872,0.18,-0.185
23:55:41.876,0.16,-0.18
23:55:41.880,0.165,-0.195
23:55:41.884,0.165,-0.18
23:55:41.888,0.165,-0.19
23:55:41.892,0.155,-0.19
23:55:41.896,0.15,-0.22
23:55:41.900,0.14,-0.205
23:55:41.904,0.14,-0.21
23:55:41.908,0.16,-0.205
23:55:41.912,0.165,-0.225
23:55:41.916,0.165,-0.22
23:55:41.920,0.155,-0.225
23:55:41.924,0.16,-0.22
23:55:41.928,0.165,-0.215
23:55:41.932,0.165,-0.205
23:55:41.936,0.165,-0.23
23:55:41.940,0.17,-0.22
23:55:41.944,0.17,-0.205
23:55:41.948,0.175,-0.2
23:55:41.952,0.185,-0.21
23:55:41.956,0.18,-0.21
23:55:41.960,0.17,-0.22
23:55:41.964,0.17,-0.22
23:55:41.968,0.16,-0.225
23:55:41.972,0.175,-0.19
23:55:41.976,0.17,-0.215
23:55:41.980,0.175,-0.24
23:55:41.984,0.185,-0.255
23:55:41.988,0.195,-0.275
23:55:41.992,0.185,-0.265
23:55:41.996,0.195,-0.23
23:55:42.000,0.205,-0.185
23:55:42.004,0.22,-0.15
23:55:42.008,0.22,-0.125
23:55:42.012,0.22,-0.115
23:55:42.016,0.23,-0.135
23:55:42.020,0.235,-0.135
23:55:42.024,0.2,-0.14
23:55:42.028,0.21,-0.145
23:55:42.032,0.185,-0.17
23:55:42.036,0.185,-0.185
23:55:42.040,0.16,-0.175
23:55:42.044,0.16,-0.23
23:55:42.048,0.165,-0.245
23:55:42.052,0.15,-0.23
23:55:42.056,0.14,-0.235
23:55:42.060,0.145,-0.255
23:55:42.064,0.145,-0.23
23:55:42.068,0.14,-0.24
23:55:42.072,0.135,-0.25
23:55:42.076,0.145,-0.24
23:55:42.080,0.125,-0.26
23:55:42.084,0.115,-0.25
23:55:42.088,0.125,-0.24
23:55:42.092,0.13,-0.235
23:55:42.096,0.11,-0.25
23:55:42.100,0.135,-0.26
23:55:42.104,0.15,-0.26
23:55:42.108,0.135,-0.175
23:55:42.112,0.155,-0.005
23:55:42.116,0.18,0.255
23:55:42.120,0.19,0.54
23:55:42.124,0.275,0.76
23:55:42.128,0.36,0.785
23:55:42.132,0.44,0.66
23:55:42.136,0.475,0.265
23:55:42.140,0.47,-0.365
23:55:42.144,0.405,-0.935
23:55:42.148,0.28,-1.195
23:55:42.152,0.09,-1.245
23:55:42.156,-0.085,-1.09
23:55:42.160,-0.19,-0.91
23:55:42.164,-0.24,-0.73
23:55:42.168,-0.21,-0.6
23:55:42.172,-0.18,-0.475
23:55:42.176,-0.095,-0.355
23:55:42.180,-0.02,-0.295
23:55:42.184,0.06,-0.27
23:55:42.188,0.11,-0.27
23:55:42.192,0.135,-0.255
23:55:42.196,0.14,-0.255
23:55:42.200,0.165,-0.255
23:55:42.204,0.18,-0.265
23:55:42.208,0.175,-0.275
23:55:42.212,0.2,-0.225
23:55:42.216,0.185,-0.16
23:55:42.220,0.205,-0.145
23:55:42.224,0.255,-0.15
23:55:42.228,0.255,-0.16
23:55:42.232,0.24,-0.15
23:55:42.236,0.23,-0.16
23:55:42.240,0.225,-0.185
23:55:42.244,0.19,-0.21
23:55:42.248,0.145,-0.24
23:55:42.252,0.14,-0.255
23:55:42.256,0.12,-0.265
23:55:42.260,0.115,-0.25
23:55:42.264,0.115,-0.25
23:55:42.268,0.115,-0.27
23:55:42.272,0.115,-0.26
23:55:42.276,0.115,-0.25
23:55:42.280,0.115,-0.255
23:55:42.284,0.12,-0.265
23:55:42.288,0.11,-0.245
23:55:42.292,0.11,-0.25
23:55:42.296,0.12,-0.24
23:55:42.300,0.1,-0.23
23:55:42.304,0.12,-0.245
23:55:42.308,0.14,-0.25
23:55:42.312,0.14,-0.23
23:55:42.316,0.115,-0.235
23:55:42.320,0.13,-0.22
23:55:42.324,0.125,-0.215
23:55:42.328,0.125,-0.185
23:55:42.332,0.135,-0.21
23:55:42.336,0.135,-0.185
23:55:42.340,0.135,-0.175
23:55:42.344,0.14,-0.16
23:55:42.348,0.155,-0.16
23:55:42.352,0.15,-0.155
23:55:42.356,0.145,-0.14
23:55:42.360,0.155,-0.13
23:55:42.364,0.17,-0.115
23:55:42.368,0.17,-0.09
23:55:42.372,0.16,-0.08
23:55:42.376,0.185,-0.06
23:55:42.380,0.195,-0.035
23:55:42.384,0.21,-0.02
23:55:42.388,0.215,-0.025
23:55:42.392,0.225,-0.025
23:55:42.396,0.21,-0.01
23:55:42.400,0.2,0.0
23:55:42.404,0.21,-0.005
23:55:42.408,0.21,0.03
23:55:42.412,0.245,0.015
23:55:42.416,0.255,0.03
23:55:42.420,0.265,0.02
23:55:42.424,0.265,0.01
23:55:42.428,0.275,-0.015
23:55:42.432,0.275,-0.005
23:55:42.436,0.265,-0.02
23:55:42.440,0.275,-0.025
23:55:42.444,0.295,-0.02
23:55:42.448,0.28,-0.04
23:55:42.452,0.31,-0.07
23:55:42.456,0.295,-0.08
23:55:42.460,0.255,-0.095
23:55:42.464,0.245,-0.125
23:55:42.468,0.225,-0.13
23:55:42.472,0.21,-0.15
23:55:42.476,0.19,-0.175
23:55:42.480,0.17,-0.16
23:55:42.484,0.18,-0.16
23:55:42.488,0.16,-0.16
23:55:42.492,0.175,-0.175
23:55:42.496,0.18,-0.18
23:55:42.500,0.165,-0.185
23:55:42.504,0.17,-0.17
23:55:42.508,0.15,-0.175
23:55:42.512,0.165,-0.195
23:55:42.516,0.185,-0.2
23:55:42.520,0.155,-0.215
23:55:42.524,0.155,-0.21
23:55:42.528,0.15,-0.19
23:55:42.532,0.155,-0.2
23:55:42.536,0.175,-0.205
23:55:42.540,0.17,-0.215
23:55:42.544,0.15,-0.215
23:55:42.548,0.16,-0.22
23:55:42.552,0.16,-0.205
23:55:42.556,0.15,-0.215
23:55:42.560,0.165,-0.23
23:55:42.564,0.17,-0.24
23:55:42.568,0.155,-0.225
23:55:42.572,0.165,-0.22
23:55:42.576,0.155,-0.215
23:55:42.580,0.155,-0.22
23:55:42.584,0.15,-0.205
23:55:42.588,0.16,-0.22
23:55:42.592,0.175,-0.215
23:55:42.596,0.185,-0.2
23:55:42.600,0.18,-0.185
23:55:42.604,0.19,-0.215
23:55:42.608,0.205,-0.195
23:55:42.612,0.185,-0.19
23:55:42.616,0.19,-0.21
23:55:42.620,0.17,-0.22
23:55:42.624,0.175,-0.175
23:55:42.628,0.165,-0.06
23:55:42.632,0.205,0.17
23:55:42.636,0.245,0.42
23:55:42.640,0.31,0.655
23:55:42.644,0.36,0.69
23:55:42.648,0.465,0.515
23:55:42.652,0.53,0.11
23:55:42.656,0.525,-0.465
23:55:42.660,0.5,-0.935
23:55:42.664,0.44,-1.155
23:55:42.668,0.32,-1.175
23:55:42.672,0.175,-1.015
23:55:42.676,0.045,-0.82
23:55:42.680,-0.035,-0.67
23:55:42.684,-0.065,-0.545
23:55:42.688,-0.08,-0.45
23:55:42.692,-0.045,-0.355
23:55:42.696,0.01,-0.26
23:55:42.700,0.045,-0.235
23:55:42.704,0.1,-0.24
23:55:42.708,0.135,-0.24
23:55:42.712,0.14,-0.24
23:55:42.716,0.14,-0.25
23:55:42.720,0.15,-0.245
23:55:42.724,0.155,-0.26
23:55:42.728,0.135,-0.275
23:55:42.732,0.13,-0.265
23:55:42.736,0.125,-0.255
23:55:42.740,0.14,-0.265
23:55:42.744,0.15,-0.255
23:55:42.748,0.135,-0.27
23:55:42.752,0.125,-0.26
23:55:42.756,0.125,-0.26
23:55:42.760,0.13,-0.25
23:55:42.764,0.12,-0.26
23:55:42.768,0.125,-0.27
23:55:42.772,0.13,-0.255
23:55:42.776,0.14,-0.25
23:55:42.780,0.125,-0.235
23:55:42.784,0.13,-0.26
23:55:42.788,0.135,-0.27
23:55:42.792,0.105,-0.255
23:55:42.796,0.135,-0.265
23:55:42.800,0.125,-0.245
23:55:42.804,0.15,-0.245
23:55:42.808,0.13,-0.23
23:55:42.812,0.145,-0.24
23:55:42.816,0.155,-0.225
23:55:42.820,0.145,-0.22
23:55:42.824,0.14,-0.23
23:55:42.828,0.155,-0.255
23:55:42.832,0.15,-0.245
23:55:42.836,0.135,-0.235
23:55:42.840,0.155,-0.25
23:55:42.844,0.135,-0.23
23:55:42.848,0.15,-0.24
23:55:42.852,0.165,-0.23
23:55:42.856,0.18,-0.22
23:55:42.860,0.165,-0.225
23:55:42.864,0.175,-0.215
23:55:42.868,0.18,-0.23
23:55:42.872,0.18,-0.225
23:55:42.876,0.185,-0.18
23:55:42.880,0.21,-0.145
23:55:42.884,0.215,-0.14
23:55:42.888,0.225,-0.14
23:55:42.892,0.235,-0.13
23:55:42.896,0.22,-0.12
23:55:42.900,0.2,-0.12
23:55:42.904,0.18,-0.145
23:55:42.908,0.175,-0.155
23:55:42.912,0.16,-0.16
23:55:42.916,0.15,-0.145
23:55:42.920,0.145,-0.135
23:55:42.924,0.14,-0.15
23:55:42.928,0.15,-0.165
23:55:42.932,0.175,-0.18
23:55:42.936,0.18,-0.16
23:55:42.940,0.155,-0.175
23:55:42.944,0.165,-0.19
23:55:42.948,0.155,-0.2
23:55:42.952,0.155,-0.205
23:55:42.956,0.165,-0.2
23:55:42.960,0.175,-0.2
23:55:42.964,0.185,-0.18
23:55:42.968,0.175,-0.19
23:55:42.972,0.18,-0.2
23:55:42.976,0.165,-0.205
23:55:42.980,0.165,-0.18
23:55:42.984,0.165,-0.185
23:55:42.988,0.165,-0.18
23:55:42.992,0.165,-0.185
23:55:42.996,0.175,-0.195
23:55:43.000,0.165,-0.21
23:55:43.004,0.155,-0.205
23:55:43.008,0.15,-0.18
23:55:43.012,0.145,-0.195
23:55:43.016,0.135,-0.2
23:55:43.020,0.135,-0.185
23:55:43.024,0.15,-0.175
23:55:43.028,0.16,-0.19
23:55:43.032,0.135,-0.175
23:55:43.036,0.145,-0.2
23:55:43.040,0.15,-0.205
23:55:43.044,0.15,-0.2
23:55:43.048,0.15,-0.22
23:55:43.052,0.125,-0.255
23:55:43.056,0.12,-0.22
23:55:43.060,0.115,-0.24
23:55:43.064,0.11,-0.24
23:55:43.068,0.14,-0.24
23:55:43.072,0.135,-0.245
23:55:43.076,0.135,-0.255
23:55:43.080,0.15,-0.27
23:55:43.084,0.165,-0.285
23:55:43.088,0.14,-0.28
23:55:43.092,0.175,-0.215
23:55:43.096,0.19,-0.155
23:55:43.100,0.2,-0.14
23:55:43.104,0.215,-0.115
23:55:43.108,0.22,-0.06
23:55:43.112,0.215,0.045
23:55:43.116,0.2,0.27
23:55:43.120,0.23,0.525
23:55:43.124,0.275,0.755
23:55:43.128,0.325,0.845
23:55:43.132,0.39,0.705
23:55:43.136,0.425,0.34
23:55:43.140,0.415,-0.315
23:55:43.144,0.34,-0.885
23:55:43.148,0.205,-1.165
23:55:43.152,0.045,-1.185
23:55:43.156,-0.1,-1.035
23:55:43.160,-0.185,-0.86
23:55:43.164,-0.185,-0.68
23:55:43.168,-0.16,-0.535
23:55:43.172,-0.145,-0.42
23:55:43.176,-0.08,-0.345
23:55:43.180,0.0,-0.28
23:55:43.184,0.05,-0.255
23:55:43.188,0.09,-0.255
23:55:43.192,0.125,-0.265
23:55:43.196,0.115,-0.26
23:55:43.200,0.11,-0.265
23:55:43.204,0.095,-0.275
23:55:43.208,0.105,-0.28
23:55:43.212,0.105,-0.27
23:55:43.216,0.11,-0.26
23:55:43.220,0.115,-0.245
23:55:43.224,0.11,-0.26
23:55:43.228,0.11,-0.255
23:55:43.232,0.125,-0.25
23:55:43.236,0.115,-0.265
23:55:43.240,0.11,-0.255
23:55:43.244,0.115,-0.255
23:55:43.248,0.125,-0.255
23:55:43.252,0.11,-0.23
23:55:43.256,0.105,-0.215
23:55:43.260,0.135,-0.22
23:55:43.264,0.13,-0.24
23:55:43.268,0.115,-0.235
23:55:43.272,0.13,-0.245
23:55:43.276,0.13,-0.245
23:55:43.280,0.12,-0.24
23:55:43.284,0.1,-0.23
23:55:43.288,0.12,-0.24
23:55:43.292,0.135,-0.215
23:55:43.296,0.13,-0.2
23:55:43.300,0.15,-0.225
23:55:43.304,0.15,-0.245
23:55:43.308,0.155,-0.23
23:55:43.312,0.165,-0.235
23:55:43.316,0.185,-0.185
23:55:43.320,0.185,-0.11
23:55:43.324,0.205,-0.11
23:55:43.328,0.205,-0.145
23:55:43.332,0.195,-0.125
23:55:43.336,0.185,-0.125
23:55:43.340,0.17,-0.155
23:55:43.344,0.165,-0.16
23:55:43.348,0.145,-0.185
23:55:43.352,0.125,-0.175
23:55:43.356,0.115,-0.185
23:55:43.360,0.105,-0.165
23:55:43.364,0.115,-0.155
23:55:43.368,0.12,-0.15
23:55:43.372,0.13,-0.15
23:55:43.376,0.115,-0.13
23:55:43.380,0.13,-0.12
23:55:43.384,0.13,-0.11
23:55:43.388,0.135,-0.1
23:55:43.392,0.145,-0.095
23:55:43.396,0.14,-0.1
23:55:43.400,0.14,-0.1
23:55:43.404,0.125,-0.125
23:55:43.408,0.13,-0.13
23:55:43.412,0.135,-0.135
23:55:43.416,0.115,-0.12
23:55:43.420,0.135,-0.14
23:55:43.424,0.15,-0.155
23:55:43.428,0.14,-0.16
23:55:43.432,0.145,-0.185
23:55:43.436,0.13,-0.175
23:55:43.440,0.145,-0.175
23:55:43.444,0.125,-0.18
23:55:43.448,0.135,-0.185
23:55:43.452,0.145,-0.18
23:55:43.456,0.145,-0.18
23:55:43.460,0.15,-0.18
23:55:43.464,0.135,-0.165
23:55:43.468,0.145,-0.17
23:55:43.472,0.17,-0.165
23:55:43.476,0.175,-0.16
23:55:43.480,0.175,-0.165
23:55:43.484,0.155,-0.145
23:55:43.488,0.175,-0.175
23:55:43.492,0.16,-0.19
23:55:43.496,0.13,-0.18
23:55:43.500,0.13,-0.19
23:55:43.504,0.145,-0.195
23:55:43.508,0.14,-0.175
23:55:43.512,0.17,-0.18
23:55:43.516,0.175,-0.18
23:55:43.520,0.2,-0.195
23:55:43.524,0.18,-0.2
23:55:43.528,0.18,-0.22
23:55:43.532,0.2,-0.16
23:55:43.536,0.215,-0.11
23:55:43.540,0.23,-0.095
23:55:43.544,0.255,-0.1
23:55:43.548,0.26,-0.125
23:55:43.552,0.225,-0.16
23:55:43.556,0.21,-0.16
23:55:43.560,0.195,-0.035
23:55:43.564,0.2,0.2
23:55:43.568,0.225,0.495
23:55:43.572,0.25,0.78
23:55:43.576,0.35,0.865
23:55:43.580,0.445,0.71
23:55:43.584,0.495,0.295
23:55:43.588,0.445,-0.32
23:55:43.592,0.32,-0.81
23:55:43.596,0.12,-1.025
23:55:43.600,-0.045,-1.035
23:55:43.604,-0.145,-0.915
23:55:43.608,-0.195,-0.725
23:55:43.612,-0.17,-0.57
23:55:43.616,-0.145,-0.46
23:55:43.620,-0.115,-0.32
23:55:43.624,0.0,-0.25
23:55:43.628,0.075,-0.22
23:55:43.632,0.115,-0.215
23:55:43.636,0.145,-0.235
23:55:43.640,0.17,-0.24
23:55:43.644,0.155,-0.23
23:55:43.648,0.145,-0.225
23:55:43.652,0.125,-0.24
23:55:43.656,0.155,-0.245
23:55:43.660,0.15,-0.215
23:55:43.664,0.145,-0.195
23:55:43.668,0.145,-0.205
23:55:43.672,0.145,-0.22
23:55:43.676,0.155,-0.23
23:55:43.680,0.14,-0.215
23:55:43.684,0.135,-0.205
23:55:43.688,0.14,-0.2
23:55:43.692,0.165,-0.22
23:55:43.696,0.15,-0.205
23:55:43.700,0.15,-0.2
23:55:43.704,0.145,-0.22
23:55:43.708,0.145,-0.22
23:55:43.712,0.14,-0.21
23:55:43.716,0.11,-0.22
23:55:43.720,0.12,-0.225
23:55:43.724,0.135,-0.21
23:55:43.728,0.125,-0.2
23:55:43.732,0.14,-0.18
23:55:43.736,0.155,-0.19
23:55:43.740,0.17,-0.21
23:55:43.744,0.165,-0.2
23:55:43.748,0.17,-0.185
23:55:43.752,0.185,-0.18
23:55:43.756,0.185,-0.145
23:55:43.760,0.195,-0.12
23:55:43.764,0.2,-0.105
23:55:43.768,0.245,-0.085
23:55:43.772,0.24,-0.07
23:55:43.776,0.235,-0.08
23:55:43.780,0.225,-0.095
23:55:43.784,0.21,-0.09
23:55:43.788,0.2,-0.12
23:55:43.792,0.185,-0.12
23:55:43.796,0.175,-0.115
23:55:43.800,0.14,-0.11
23:55:43.804,0.135,-0.12
23:55:43.808,0.155,-0.12
23:55:43.812,0.155,-0.095
23:55:43.816,0.15,-0.08
23:55:43.820,0.18,-0.085
23:55:43.824,0.175,-0.06
23:55:43.828,0.16,-0.065
23:55:43.832,0.175,-0.05
23:55:43.836,0.16,-0.035
23:55:43.840,0.18,-0.04
23:55:43.844,0.17,-0.075
23:55:43.848,0.165,-0.065
23:55:43.852,0.17,-0.085
23:55:43.856,0.185,-0.065
23:55:43.860,0.2,-0.08
23:55:43.864,0.2,-0.11
23:55:43.868,0.185,-0.125
23:55:43.872,0.185,-0.135
23:55:43.876,0.18,-0.135
23:55:43.880,0.16,-0.14
23:55:43.884,0.175,-0.15
23:55:43.888,0.17,-0.17
23:55:43.892,0.165,-0.155
23:55:43.896,0.165,-0.145
23:55:43.900,0.17,-0.16
23:55:43.904,0.175,-0.17
23:55:43.908,0.16,-0.16
23:55:43.912,0.175,-0.155
23:55:43.916,0.17,-0.15
23:55:43.920,0.17,-0.145
23:55:43.924,0.17,-0.155
23:55:43.928,0.16,-0.145
23:55:43.932,0.165,-0.17
23:55:43.936,0.165,-0.185
23:55:43.940,0.16,-0.18
23:55:43.944,0.16,-0.195
23:55:43.948,0.155,-0.18
23:55:43.952,0.18,-0.185
23:55:43.956,0.195,-0.195
23:55:43.960,0.21,-0.19
23:55:43.964,0.195,-0.225
23:55:43.968,0.225,-0.245
23:55:43.972,0.21,-0.18
23:55:43.976,0.215,-0.105
23:55:43.980,0.22,-0.085
23:55:43.984,0.255,-0.09
23:55:43.988,0.26,-0.07
23:55:43.992,0.235,-0.025
23:55:43.996,0.215,0.17
23:55:44.000,0.225,0.405
23:55:44.004,0.265,0.665
23:55:44.008,0.34,0.92
23:55:44.012,0.39,0.975
23:55:44.016,0.475,0.76
23:55:44.020,0.53,0.26
23:55:44.024,0.485,-0.485
23:55:44.028,0.32,-1.035
23:55:44.032,0.15,-1.225
23:55:44.036,-0.035,-1.15
23:55:44.040,-0.16,-0.92
23:55:44.044,-0.235,-0.74
23:55:44.048,-0.21,-0.605
23:55:44.052,-0.175,-0.455
23:55:44.056,-0.115,-0.345
23:55:44.060,-0.04,-0.24
23:55:44.064,0.035,-0.225
23:55:44.068,0.085,-0.215
23:55:44.072,0.12,-0.23
23:55:44.076,0.125,-0.235
23:55:44.080,0.12,-0.22
23:55:44.084,0.12,-0.235
23:55:44.088,0.115,-0.225
23:55:44.092,0.135,-0.23
23:55:44.096,0.125,-0.23
23:55:44.100,0.1,-0.235
23:55:44.104,0.115,-0.22
23:55:44.108,0.105,-0.22
23:55:44.112,0.11,-0.225
23:55:44.116,0.1,-0.23
23:55:44.120,0.11,-0.225
23:55:44.124,0.1,-0.205
23:55:44.128,0.115,-0.225
23:55:44.132,0.12,-0.21
23:55:44.136,0.125,-0.2
23:55:44.140,0.11,-0.205
23:55:44.144,0.15,-0.205
23:55:44.148,0.115,-0.2
23:55:44.152,0.125,-0.22
23:55:44.156,0.105,-0.23
23:55:44.160,0.1,-0.225
23:55:44.164,0.115,-0.22
23:55:44.168,0.125,-0.215
23:55:44.172,0.115,-0.21
23:55:44.176,0.135,-0.195
23:55:44.180,0.135,-0.225
23:55:44.184,0.155,-0.205
23:55:44.188,0.145,-0.21
23:55:44.192,0.18,-0.21
23:55:44.196,0.18,-0.18
23:55:44.200,0.195,-0.12
23:55:44.204,0.2,-0.1
23:55:44.208,0.22,-0.085
23:55:44.212,0.22,-0.1
23:55:44.216,0.215,-0.11
23:55:44.220,0.17,-0.12
23:55:44.224,0.16,-0.12
23:55:44.228,0.145,-0.12
23:55:44.232,0.13,-0.115
23:55:44.236,0.13,-0.105
23:55:44.240,0.125,-0.09
23:55:44.244,0.135,-0.09
23:55:44.248,0.145,-0.06
23:55:44.252,0.15,-0.055
23:55:44.256,0.155,-0.045
23:55:44.260,0.155,-0.035
23:55:44.264,0.155,-0.02
23:55:44.268,0.17,-0.015
23:55:44.272,0.18,-0.005
23:55:44.276,0.165,-0.005
23:55:44.280,0.17,-0.01
23:55:44.284,0.16,-0.005
23:55:44.288,0.175,-0.005
23:55:44.292,0.18,-0.035
23:55:44.296,0.19,-0.05
23:55:44.300,0.18,-0.08
23:55:44.304,0.18,-0.08
23:55:44.308,0.165,-0.1
23:55:44.312,0.17,-0.105
23:55:44.316,0.16,-0.13
23:55:44.320,0.165,-0.15
23:55:44.324,0.17,-0.14
23:55:44.328,0.16,-0.135
23:55:44.332,0.15,-0.125
23:55:44.336,0.16,-0.13
23:55:44.340,0.145,-0.16
23:55:44.344,0.14,-0.155
23:55:44.348,0.155,-0.145
23:55:44.352,0.155,-0.135
23:55:44.356,0.155,-0.135
23:55:44.360,0.16,-0.16
23:55:44.364,0.17,-0.15
23:55:44.368,0.155,-0.145
23:55:44.372,0.15,-0.17
23:55:44.376,0.15,-0.2
23:55:44.380,0.15,-0.205
23:55:44.384,0.13,-0.17
23:55:44.388,0.145,-0.18
23:55:44.392,0.155,-0.16
23:55:44.396,0.19,-0.175
23:55:44.400,0.185,-0.195
23:55:44.404,0.19,-0.16
23:55:44.408,0.205,-0.045
23:55:44.412,0.23,0.23
23:55:44.416,0.275,0.595
23:55:44.420,0.36,0.95
23:55:44.424,0.465,1.14
23:55:44.428,0.565,0.98
23:55:44.432,0.625,0.46
23:55:44.436,0.59,-0.33
23:55:44.440,0.46,-1.03
23:55:44.444,0.2,-1.29
23:55:44.448,-0.02,-1.23
23:55:44.452,-0.18,-0.995
23:55:44.456,-0.24,-0.795
23:55:44.460,-0.225,-0.625
23:55:44.464,-0.195,-0.48
23:55:44.468,-0.15,-0.35
23:55:44.472,-0.045,-0.26
23:55:44.476,0.025,-0.215
23:55:44.480,0.075,-0.22
23:55:44.484,0.11,-0.235
23:55:44.488,0.12,-0.235
23:55:44.492,0.11,-0.225
23:55:44.496,0.115,-0.23
23:55:44.500,0.11,-0.245
23:55:44.504,0.115,-0.265
23:55:44.508,0.1,-0.255
23:55:44.512,0.11,-0.255
23:55:44.516,0.11,-0.235
23:55:44.520,0.12,-0.235
23:55:44.524,0.105,-0.265
23:55:44.528,0.11,-0.255
23:55:44.532,0.1,-0.25
23:55:44.536,0.115,-0.24
23:55:44.540,0.1,-0.235
23:55:44.544,0.095,-0.23
23:55:44.548,0.12,-0.23
23:55:44.552,0.13,-0.24
23:55:44.556,0.105,-0.225
23:55:44.560,0.125,-0.225
23:55:44.564,0.115,-0.22
23:55:44.568,0.115,-0.225
23:55:44.572,0.125,-0.22
23:55:44.576,0.14,-0.2
23:55:44.580,0.15,-0.19
23:55:44.584,0.135,-0.19
23:55:44.588,0.125,-0.195
23:55:44.592,0.135,-0.215
23:55:44.596,0.125,-0.195
23:55:44.600,0.13,-0.19
23:55:44.604,0.12,-0.185
23:55:44.608,0.14,-0.185
23:55:44.612,0.145,-0.19
23:55:44.616,0.165,-0.17
23:55:44.620,0.16,-0.165
23:55:44.624,0.16,-0.15
23:55:44.628,0.17,-0.165
23:55:44.632,0.195,-0.16
23:55:44.636,0.19,-0.125
23:55:44.640,0.195,-0.065
23:55:44.644,0.24,-0.05
23:55:44.648,0.25,-0.035
23:55:44.652,0.265,-0.04
23:55:44.656,0.24,-0.025
23:55:44.660,0.215,-0.03
23:55:44.664,0.18,-0.04
23:55:44.668,0.18,-0.05
23:55:44.672,0.155,-0.065
23:55:44.676,0.15,-0.06
23:55:44.680,0.155,-0.03
23:55:44.684,0.165,-0.02
23:55:44.688,0.175,-0.025
23:55:44.692,0.175,-0.04
23:55:44.696,0.155,-0.04
23:55:44.700,0.17,-0.055
23:55:44.704,0.165,-0.065
23:55:44.708,0.17,-0.09
23:55:44.712,0.17,-0.115
23:55:44.716,0.15,-0.125
23:55:44.720,0.15,-0.14
23:55:44.724,0.175,-0.13
23:55:44.728,0.17,-0.135
23:55:44.732,0.185,-0.155
23:55:44.736,0.17,-0.16
23:55:44.740,0.15,-0.16
23:55:44.744,0.155,-0.155
23:55:44.748,0.145,-0.15
23:55:44.752,0.165,-0.165
23:55:44.756,0.145,-0.165
23:55:44.760,0.16,-0.17
23:55:44.764,0.155,-0.135
23:55:44.768,0.15,-0.16
23:55:44.772,0.17,-0.175
23:55:44.776,0.145,-0.18
23:55:44.780,0.145,-0.16
23:55:44.784,0.145,-0.175
23:55:44.788,0.15,-0.17
23:55:44.792,0.145,-0.155
23:55:44.796,0.155,-0.14
23:55:44.800,0.16,-0.165
23:55:44.804,0.15,-0.175
23:55:44.808,0.15,-0.17
23:55:44.812,0.165,-0.18
23:55:44.816,0.16,-0.21
23:55:44.820,0.14,-0.22
23:55:44.824,0.13,-0.225
23:55:44.828,0.14,-0.205
23:55:44.832,0.14,-0.21
23:55:44.836,0.155,-0.225
23:55:44.840,0.155,-0.255
23:55:44.844,0.16,-0.265
23:55:44.848,0.185,-0.275
23:55:44.852,0.185,-0.205
23:55:44.856,0.19,-0.15
23:55:44.860,0.205,-0.1
23:55:44.864,0.23,-0.09
23:55:44.868,0.225,-0.115
23:55:44.872,0.2,-0.145
23:55:44.876,0.185,-0.155
23:55:44.880,0.16,-0.17
23:55:44.884,0.145,-0.175
23:55:44.888,0.125,-0.17
23:55:44.892,0.13,-0.175
23:55:44.896,0.135,-0.2
23:55:44.900,0.13,-0.185
23:55:44.904,0.125,-0.195
23:55:44.908,0.145,-0.195
23:55:44.912,0.125,-0.19
23:55:44.916,0.125,-0.195
23:55:44.920,0.135,-0.215
23:55:44.924,0.135,-0.2
23:55:44.928,0.13,-0.18
23:55:44.932,0.12,-0.21
23:55:44.936,0.13,-0.22
23:55:44.940,0.12,-0.21
23:55:44.944,0.13,-0.2
23:55:44.948,0.14,-0.195
23:55:44.952,0.135,-0.2
23:55:44.956,0.13,-0.19
23:55:44.960,0.115,-0.22
23:55:44.964,0.14,-0.22
23:55:44.968,0.12,-0.22
23:55:44.972,0.125,-0.21
23:55:44.976,0.14,-0.185
23:55:44.980,0.135,-0.185
23:55:44.984,0.14,-0.19
23:55:44.988,0.135,-0.195
23:55:44.992,0.15,-0.205
23:55:44.996,0.125,-0.18
23:55:45.000,0.125,-0.2
23:55:45.004,0.11,-0.18
23:55:45.008,0.13,-0.175
23:55:45.012,0.125,-0.165
23:55:45.016,0.14,-0.17
23:55:45.020,0.135,-0.175
23:55:45.024,0.145,-0.195
23:55:45.028,0.12,-0.21
23:55:45.032,0.135,-0.2
23:55:45.036,0.12,-0.205
23:55:45.040,0.11,-0.22
23:55:45.044,0.11,-0.21
23:55:45.048,0.125,-0.225
23:55:45.052,0.13,-0.225
23:55:45.056,0.15,-0.26
23:55:45.060,0.125,-0.28
23:55:45.064,0.125,-0.315
23:55:45.068,0.13,-0.285
23:55:45.072,0.145,-0.22
23:55:45.076,0.135,-0.16
23:55:45.080,0.18,-0.175
23:55:45.084,0.205,-0.18
23:55:45.088,0.205,-0.165
23:55:45.092,0.185,-0.175
23:55:45.096,0.165,-0.185
23:55:45.100,0.14,-0.2
23:55:45.104,0.105,-0.225
23:55:45.108,0.105,-0.235
23:55:45.112,0.085,-0.225
23:55:45.116,0.09,-0.22
23:55:45.120,0.075,-0.22
23:55:45.124,0.095,-0.225
23:55:45.128,0.065,-0.23
23:55:45.132,0.075,-0.22
23:55:45.136,0.09,-0.225
23:55:45.140,0.08,-0.225
23:55:45.144,0.09,-0.245
23:55:45.148,0.09,-0.235
23:55:45.152,0.085,-0.25
23:55:45.156,0.08,-0.22
23:55:45.160,0.08,-0.23
23:55:45.164,0.08,-0.26
23:55:45.168,0.09,-0.245
23:55:45.172,0.075,-0.23
23:55:45.176,0.065,-0.225
23:55:45.180,0.085,-0.23
23:55:45.184,0.08,-0.235
23:55:45.188,0.07,-0.235
23:55:45.192,0.08,-0.245
23:55:45.196,0.085,-0.235
23:55:45.200,0.08,-0.23
23:55:45.204,0.08,-0.22
23:55:45.208,0.07,-0.215
23:55:45.212,0.085,-0.195
23:55:45.216,0.09,-0.19
23:55:45.220,0.08,-0.205
23:55:45.224,0.09,-0.19
23:55:45.228,0.105,-0.17
23:55:45.232,0.095,-0.1
23:55:45.236,0.115,0.005
23:55:45.240,0.155,0.2
23:55:45.244,0.17,0.43
23:55:45.248,0.185,0.67
23:55:45.252,0.24,0.78
23:55:45.256,0.325,0.67
23:55:45.260,0.395,0.335
23:55:45.264,0.4,-0.225
23:55:45.268,0.39,-0.79
23:55:45.272,0.35,-1.13
23:55:45.276,0.275,-1.24
23:55:45.280,0.125,-1.175
23:55:45.284,-0.015,-1.0
23:55:45.288,-0.11,-0.83
23:55:45.292,-0.15,-0.635
23:55:45.296,-0.11,-0.465
23:55:45.300,-0.05,-0.36
23:55:45.304,0.015,-0.245
23:55:45.308,0.065,-0.19
23:55:45.312,0.1,-0.19
23:55:45.316,0.115,-0.175
23:55:45.320,0.11,-0.205
23:55:45.324,0.105,-0.21
23:55:45.328,0.09,-0.235
23:55:45.332,0.08,-0.24
23:55:45.336,0.085,-0.235
23:55:45.340,0.075,-0.235
23:55:45.344,0.09,-0.225
23:55:45.348,0.075,-0.22
23:55:45.352,0.065,-0.225
23:55:45.356,0.07,-0.24
23:55:45.360,0.065,-0.235
23:55:45.364,0.06,-0.23
23:55:45.368,0.075,-0.215
23:55:45.372,0.085,-0.225
23:55:45.376,0.07,-0.235
23:55:45.380,0.075,-0.24
23:55:45.384,0.08,-0.23
23:55:45.388,0.07,-0.225
23:55:45.392,0.07,-0.23
23:55:45.396,0.08,-0.245
23:55:45.400,0.075,-0.23
23:55:45.404,0.065,-0.235
23:55:45.408,0.075,-0.22
23:55:45.412,0.07,-0.23
23:55:45.416,0.07,-0.225
23:55:45.420,0.07,-0.23
23:55:45.424,0.085,-0.21
23:55:45.428,0.075,-0.21
23:55:45.432,0.095,-0.2
23:55:45.436,0.08,-0.215
23:55:45.440,0.08,-0.185
23:55:45.444,0.09,-0.17
23:55:45.448,0.095,-0.16
23:55:45.452,0.105,-0.145
23:55:45.456,0.11,-0.135
23:55:45.460,0.105,-0.14
23:55:45.464,0.105,-0.13
23:55:45.468,0.105,-0.12
23:55:45.472,0.1,-0.12
23:55:45.476,0.105,-0.13
23:55:45.480,0.1,-0.115
23:55:45.484,0.1,-0.1
23:55:45.488,0.115,-0.07
23:55:45.492,0.12,-0.07
23:55:45.496,0.155,-0.08
23:55:45.500,0.165,-0.07
23:55:45.504,0.16,-0.05
23:55:45.508,0.175,-0.05
23:55:45.512,0.18,-0.03
23:55:45.516,0.18,-0.005
23:55:45.520,0.21,0.02
23:55:45.524,0.22,0.035
23:55:45.528,0.24,0.055
23:55:45.532,0.21,0.05
23:55:45.536,0.19,0.03
23:55:45.540,0.17,0.02
23:55:45.544,0.16,-0.005
23:55:45.548,0.16,-0.005
23:55:45.552,0.135,0.01
23:55:45.556,0.14,-0.01
23:55:45.560,0.145,-0.005
23:55:45.564,0.17,0.0
23:55:45.568,0.16,0.005
23:55:45.572,0.155,-0.01
23:55:45.576,0.175,-0.035
23:55:45.580,0.17,-0.04
23:55:45.584,0.155,-0.065
23:55:45.588,0.17,-0.07
23:55:45.592,0.155,-0.07
23:55:45.596,0.145,-0.09
23:55:45.600,0.15,-0.08
23:55:45.604,0.155,-0.1
23:55:45.608,0.14,-0.105
23:55:45.612,0.14,-0.105
23:55:45.616,0.13,-0.11
23:55:45.620,0.15,-0.105
23:55:45.624,0.115,-0.1
23:55:45.628,0.145,-0.115
23:55:45.632,0.15,-0.1
23:55:45.636,0.125,-0.1
23:55:45.640,0.135,-0.1
23:55:45.644,0.125,-0.115
23:55:45.648,0.145,-0.085
23:55:45.652,0.13,-0.095
23:55:45.656,0.13,-0.095
23:55:45.660,0.135,-0.095
23:55:45.664,0.12,-0.095
23:55:45.668,0.125,-0.12
23:55:45.672,0.125,-0.105
23:55:45.676,0.12,-0.09
23:55:45.680,0.13,-0.1
23:55:45.684,0.135,-0.125
23:55:45.688,0.125,-0.125
23:55:45.692,0.135,-0.135
23:55:45.696,0.115,-0.145
23:55:45.700,0.105,-0.175
23:55:45.704,0.1,-0.18
23:55:45.708,0.1,-0.16
23:55:45.712,0.135,-0.16
23:55:45.716,0.13,-0.16
23:55:45.720,0.135,-0.185
23:55:45.724,0.14,-0.225
23:55:45.728,0.145,-0.24
23:55:45.732,0.14,-0.185
23:55:45.736,0.16,-0.115
23:55:45.740,0.19,-0.09
23:55:45.744,0.2,-0.09
23:55:45.748,0.19,-0.09
23:55:45.752,0.175,-0.115
23:55:45.756,0.145,-0.11
23:55:45.760,0.115,-0.12
23:55:45.764,0.105,-0.155
23:55:45.768,0.11,-0.18
23:55:45.772,0.105,-0.17
23:55:45.776,0.1,-0.165
23:55:45.780,0.1,-0.175
23:55:45.784,0.105,-0.17
23:55:45.788,0.11,-0.175
23:55:45.792,0.1,-0.16
23:55:45.796,0.1,-0.175
23:55:45.800,0.105,-0.175
23:55:45.804,0.09,-0.175
23:55:45.808,0.12,-0.18
23:55:45.812,0.1,-0.17
23:55:45.816,0.1,-0.175
23:55:45.820,0.105,-0.175
23:55:45.824,0.1,-0.185
23:55:45.828,0.105,-0.19
23:55:45.832,0.105,-0.195
23:55:45.836,0.105,-0.19
23:55:45.840,0.095,-0.17
23:55:45.844,0.105,-0.185
23:55:45.848,0.105,-0.185
23:55:45.852,0.1,-0.185
23:55:45.856,0.095,-0.175
23:55:45.860,0.1,-0.18
23:55:45.864,0.1,-0.19
23:55:45.868,0.105,-0.19
23:55:45.872,0.105,-0.19
23:55:45.876,0.11,-0.165
23:55:45.880,0.095,-0.16
23:55:45.884,0.1,-0.185
23:55:45.888,0.115,-0.175
23:55:45.892,0.115,-0.17
23:55:45.896,0.095,-0.145
23:55:45.900,0.11,-0.16
23:55:45.904,0.11,-0.16
23:55:45.908,0.115,-0.16
23:55:45.912,0.105,-0.17
23:55:45.916,0.115,-0.16
23:55:45.920,0.085,-0.15
23:55:45.924,0.095,-0.07
23:55:45.928,0.135,0.14
23:55:45.932,0.165,0.385
23:55:45.936,0.205,0.635
23:55:45.940,0.275,0.835
23:55:45.944,0.365,0.79
23:55:45.948,0.445,0.545
23:55:45.952,0.46,0.075
23:55:45.956,0.45,-0.51
23:55:45.960,0.35,-0.92
23:55:45.964,0.185,-1.09
23:55:45.968,-0.02,-1.075
23:55:45.972,-0.165,-0.88
23:55:45.976,-0.245,-0.685
23:55:45.980,-0.23,-0.535
23:55:45.984,-0.225,-0.435
23:55:45.988,-0.14,-0.32
23:55:45.992,-0.08,-0.255
23:55:45.996,0.0,-0.23
23:55:46.000,0.035,-0.24
23:55:46.004,0.08,-0.23
23:55:46.008,0.075,-0.225
23:55:46.012,0.085,-0.23
23:55:46.016,0.065,-0.25
23:55:46.020,0.065,-0.245
23:55:46.024,0.08,-0.24
23:55:46.028,0.08,-0.25
23:55:46.032,0.065,-0.255
23:55:46.036,0.06,-0.26
23:55:46.040,0.07,-0.26
23:55:46.044,0.055,-0.245
23:55:46.048,0.05,-0.255
23:55:46.052,0.07,-0.265
23:55:46.056,0.06,-0.25
23:55:46.060,0.065,-0.26
23:55:46.064,0.07,-0.255
23:55:46.068,0.055,-0.25
23:55:46.072,0.06,-0.25
23:55:46.076,0.055,-0.26
23:55:46.080,0.055,-0.245
23:55:46.084,0.04,-0.235
23:55:46.088,0.06,-0.235
23:55:46.092,0.075,-0.225
23:55:46.096,0.035,-0.23
23:55:46.100,0.05,-0.22
23:55:46.104,0.045,-0.21
23:55:46.108,0.055,-0.205
23:55:46.112,0.045,-0.2
23:55:46.116,0.06,-0.2
23:55:46.120,0.065,-0.22
23:55:46.124,0.06,-0.215
23:55:46.128,0.065,-0.22
23:55:46.132,0.07,-0.22
23:55:46.136,0.075,-0.225
23:55:46.140,0.055,-0.22
23:55:46.144,0.045,-0.225
23:55:46.148,0.055,-0.21
23:55:46.152,0.07,-0.185
23:55:46.156,0.11,-0.19
23:55:46.160,0.11,-0.21
23:55:46.164,0.105,-0.2
23:55:46.168,0.11,-0.175
23:55:46.172,0.13,-0.14
23:55:46.176,0.15,-0.115
23:55:46.180,0.145,-0.095
23:55:46.184,0.15,-0.125
23:55:46.188,0.18,-0.1
23:55:46.192,0.155,-0.1
23:55:46.196,0.135,-0.095
23:55:46.200,0.115,-0.12
23:55:46.204,0.11,-0.135
23:55:46.208,0.095,-0.13
23:55:46.212,0.07,-0.1
23:55:46.216,0.06,-0.1
23:55:46.220,0.05,-0.11
23:55:46.224,0.055,-0.1
23:55:46.228,0.065,-0.095
23:55:46.232,0.075,-0.07
23:55:46.236,0.075,-0.065
23:55:46.240,0.075,-0.06
23:55:46.244,0.085,-0.065
23:55:46.248,0.105,-0.07
23:55:46.252,0.1,-0.095
23:55:46.256,0.095,-0.09
23:55:46.260,0.085,-0.105
23:55:46.264,0.065,-0.12
23:55:46.268,0.095,-0.135
23:55:46.272,0.09,-0.125
23:55:46.276,0.095,-0.12
23:55:46.280,0.085,-0.14
23:55:46.284,0.1,-0.15
23:55:46.288,0.09,-0.14
23:55:46.292,0.075,-0.135
23:55:46.296,0.075,-0.15
23:55:46.300,0.09,-0.135
23:55:46.304,0.08,-0.14
23:55:46.308,0.08,-0.15
23:55:46.312,0.08,-0.14
23:55:46.316,0.09,-0.115
23:55:46.320,0.08,-0.135
23:55:46.324,0.085,-0.13
23:55:46.328,0.09,-0.135
23:55:46.332,0.08,-0.135
23:55:46.336,0.095,-0.125
23:55:46.340,0.105,-0.12
23:55:46.344,0.1,-0.12
23:55:46.348,0.11,-0.15
23:55:46.352,0.115,-0.165
23:55:46.356,0.09,-0.17
23:55:46.360,0.07,-0.105
23:55:46.364,0.09,0.045
23:55:46.368,0.115,0.3
23:55:46.372,0.16,0.605
23:55:46.376,0.255,0.82
23:55:46.380,0.355,0.74
23:55:46.384,0.42,0.405
23:55:46.388,0.425,-0.23
23:55:46.392,0.335,-0.905
23:55:46.396,0.165,-1.195
23:55:46.400,-0.03,-1.185
23:55:46.404,-0.18,-1.03
23:55:46.408,-0.28,-0.815
23:55:46.412,-0.28,-0.64
23:55:46.416,-0.24,-0.49
23:55:46.420,-0.195,-0.36
23:55:46.424,-0.12,-0.26
23:55:46.428,-0.045,-0.215
23:55:46.432,0.005,-0.235
23:55:46.436,0.035,-0.24
23:55:46.440,0.035,-0.22
23:55:46.444,0.05,-0.26
23:55:46.448,0.05,-0.265
23:55:46.452,0.045,-0.25
23:55:46.456,0.03,-0.25
23:55:46.460,0.055,-0.25
23:55:46.464,0.055,-0.255
23:55:46.468,0.035,-0.25
23:55:46.472,0.045,-0.255
23:55:46.476,0.025,-0.255
23:55:46.480,0.02,-0.24
23:55:46.484,0.035,-0.235
23:55:46.488,0.025,-0.255
23:55:46.492,0.025,-0.255
23:55:46.496,0.04,-0.245
23:55:46.500,0.045,-0.24
23:55:46.504,0.035,-0.24
23:55:46.508,0.03,-0.23
23:55:46.512,0.04,-0.24
23:55:46.516,0.04,-0.225
23:55:46.520,0.025,-0.215
23:55:46.524,0.025,-0.205
23:55:46.528,0.04,-0.2
23:55:46.532,0.035,-0.21
23:55:46.536,0.02,-0.195
23:55:46.540,0.045,-0.2
23:55:46.544,0.04,-0.185
23:55:46.548,0.055,-0.175
23:55:46.552,0.045,-0.17
23:55:46.556,0.065,-0.16
23:55:46.560,0.065,-0.14
23:55:46.564,0.075,-0.13
23:55:46.568,0.07,-0.125
23:55:46.572,0.06,-0.145
23:55:46.576,0.065,-0.155
23:55:46.580,0.05,-0.15
23:55:46.584,0.065,-0.155
23:55:46.588,0.07,-0.115
23:55:46.592,0.065,-0.105
23:55:46.596,0.09,-0.115
23:55:46.600,0.095,-0.1
23:55:46.604,0.12,-0.085
23:55:46.608,0.125,-0.08
23:55:46.612,0.13,-0.07
23:55:46.616,0.145,-0.04
23:55:46.620,0.155,0.01
23:55:46.624,0.18,0.03
23:55:46.628,0.18,0.035
23:55:46.632,0.185,0.025
23:55:46.636,0.19,0.01
23:55:46.640,0.15,0.0
23:55:46.644,0.14,-0.015
23:55:46.648,0.125,-0.045
23:55:46.652,0.11,-0.055
23:55:46.656,0.1,-0.09
23:55:46.660,0.08,-0.1
23:55:46.664,0.08,-0.1
23:55:46.668,0.07,-0.12
23:55:46.672,0.08,-0.13
23:55:46.676,0.075,-0.145
23:55:46.680,0.075,-0.165
23:55:46.684,0.06,-0.15
23:55:46.688,0.075,-0.155
23:55:46.692,0.085,-0.16
23:55:46.696,0.085,-0.15
23:55:46.700,0.07,-0.15
23:55:46.704,0.08,-0.16
23:55:46.708,0.08,-0.175
23:55:46.712,0.07,-0.165
23:55:46.716,0.085,-0.175
23:55:46.720,0.075,-0.165
23:55:46.724,0.07,-0.185
23:55:46.728,0.075,-0.18
23:55:46.732,0.075,-0.185
23:55:46.736,0.055,-0.185
23:55:46.740,0.075,-0.195
23:55:46.744,0.055,-0.205
23:55:46.748,0.08,-0.18
23:55:46.752,0.065,-0.185
23:55:46.756,0.065,-0.18
23:55:46.760,0.06,-0.19
23:55:46.764,0.055,-0.195
23:55:46.768,0.06,-0.18
23:55:46.772,0.045,-0.185
23:55:46.776,0.07,-0.19
23:55:46.780,0.055,-0.185
23:55:46.784,0.075,-0.18
23:55:46.788,0.09,-0.205
23:55:46.792,0.065,-0.195
23:55:46.796,0.05,-0.2
23:55:46.800,0.055,-0.22
23:55:46.804,0.045,-0.25
23:55:46.808,0.04,-0.25
23:55:46.812,0.045,-0.245
23:55:46.816,0.055,-0.235
23:55:46.820,0.06,-0.245
23:55:46.824,0.06,-0.275
23:55:46.828,0.065,-0.295
23:55:46.832,0.07,-0.32
23:55:46.836,0.085,-0.275
23:55:46.840,0.1,-0.21
23:55:46.844,0.115,-0.185
23:55:46.848,0.1,-0.14
23:55:46.852,0.11,-0.145
23:55:46.856,0.125,-0.16
23:55:46.860,0.105,-0.17
23:55:46.864,0.075,-0.135
23:55:46.868,0.085,-0.045
23:55:46.872,0.105,0.17
23:55:46.876,0.125,0.455
23:55:46.880,0.16,0.745
23:55:46.884,0.23,0.93
23:55:46.888,0.32,0.865
23:55:46.892,0.375,0.585
23:55:46.896,0.395,-0.01
23:55:46.900,0.34,-0.705
23:55:46.904,0.25,-1.11
23:55:46.908,0.04,-1.235
23:55:46.912,-0.125,-1.145
23:55:46.916,-0.24,-0.92
23:55:46.920,-0.29,-0.76
23:55:46.924,-0.275,-0.605
23:55:46.928,-0.265,-0.475
23:55:46.932,-0.21,-0.37
23:55:46.936,-0.105,-0.28
23:55:46.940,-0.04,-0.25
23:55:46.944,-0.005,-0.26
23:55:46.948,0.03,-0.28
23:55:46.952,0.05,-0.265
23:55:46.956,0.04,-0.25
23:55:46.960,0.035,-0.245
23:55:46.964,0.03,-0.245
23:55:46.968,0.02,-0.265
23:55:46.972,0.03,-0.26
23:55:46.976,0.04,-0.255
23:55:46.980,0.045,-0.26
23:55:46.984,0.025,-0.255
23:55:46.988,0.025,-0.24
23:55:46.992,0.04,-0.25
23:55:46.996,0.03,-0.23
23:55:47.000,0.025,-0.235
23:55:47.004,0.05,-0.22
23:55:47.008,0.04,-0.24
23:55:47.012,0.04,-0.25
23:55:47.016,0.035,-0.27
23:55:47.020,0.025,-0.255
23:55:47.024,0.01,-0.25
23:55:47.028,0.03,-0.25
23:55:47.032,0.05,-0.24
23:55:47.036,0.045,-0.225
23:55:47.040,0.055,-0.22
23:55:47.044,0.075,-0.23
23:55:47.048,0.09,-0.22
23:55:47.052,0.065,-0.225
23:55:47.056,0.09,-0.205
23:55:47.060,0.095,-0.16
23:55:47.064,0.09,-0.145
23:55:47.068,0.1,-0.12
23:55:47.072,0.11,-0.125
23:55:47.076,0.115,-0.105
23:55:47.080,0.11,-0.12
23:55:47.084,0.11,-0.14
23:55:47.088,0.085,-0.145
23:55:47.092,0.065,-0.17
23:55:47.096,0.04,-0.16
23:55:47.100,0.04,-0.155
23:55:47.104,0.02,-0.14
23:55:47.108,0.02,-0.155
23:55:47.112,0.035,-0.16
23:55:47.116,0.025,-0.155
23:55:47.120,0.02,-0.135
23:55:47.124,0.005,-0.135
23:55:47.128,0.03,-0.125
23:55:47.132,0.02,-0.15
23:55:47.136,0.01,-0.125
23:55:47.140,0.015,-0.075
23:55:47.144,0.015,-0.05
23:55:47.148,0.035,-0.035
23:55:47.152,0.065,-0.05
23:55:47.156,0.07,-0.065
23:55:47.160,0.05,-0.07
23:55:47.164,0.035,-0.095
23:55:47.168,0.03,-0.105
23:55:47.172,0.015,-0.13
23:55:47.176,0.02,-0.145
23:55:47.180,0.01,-0.145
23:55:47.184,0.03,-0.14
23:55:47.188,0.04,-0.135
23:55:47.192,0.02,-0.175
23:55:47.196,0.03,-0.205
23:55:47.200,0.015,-0.2
23:55:47.204,-0.03,-0.21
23:55:47.208,-0.025,-0.215
23:55:47.212,-0.02,-0.2
23:55:47.216,-0.02,-0.19
23:55:47.220,0.0,-0.2
23:55:47.224,0.0,-0.205
23:55:47.228,-0.025,-0.22
23:55:47.232,-0.04,-0.24
23:55:47.236,-0.01,-0.285
23:55:47.240,0.0,-0.26
23:55:47.244,0.005,-0.26
23:55:47.248,0.025,-0.265
23:55:47.252,0.0,-0.265
23:55:47.256,-0.05,-0.235
23:55:47.260,-0.045,-0.255
23:55:47.264,0.0,-0.24
23:55:47.268,0.065,-0.235
23:55:47.272,0.075,-0.26
23:55:47.276,0.045,-0.32
23:55:47.280,0.005,-0.335
23:55:47.284,-0.05,-0.3
23:55:47.288,-0.06,-0.27
23:55:47.292,-0.045,-0.235
23:55:47.296,-0.02,-0.235
23:55:47.300,0.03,-0.255
23:55:47.304,0.005,-0.265
23:55:47.308,-0.06,-0.26
23:55:47.312,-0.18,-0.275
23:55:47.316,-0.275,-0.335
23:55:47.320,-0.28,-0.345
23:55:47.324,-0.235,-0.36
23:55:47.328,-0.26,-0.36
23:55:47.332,-0.28,-0.355
23:55:47.336,-0.29,-0.35
23:55:47.340,-0.295,-0.35
23:55:47.344,-0.31,-0.37
23:55:47.348,-0.3,-0.36
23:55:47.352,-0.25,-0.33
23:55:47.356,-0.215,-0.35
23:55:47.360,-0.18,-0.37
23:55:47.364,-0.135,-0.395
23:55:47.368,-0.115,-0.39
23:55:47.372,-0.11,-0.38
23:55:47.376,-0.11,-0.38
23:55:47.380,-0.16,-0.39
23:55:47.384,-0.22,-0.385
23:55:47.388,-0.245,-0.355
23:55:47.392,-0.225,-0.35
23:55:47.396,-0.19,-0.35
23:55:47.400,-0.205,-0.345
23:55:47.404,-0.195,-0.31
23:55:47.408,-0.195,-0.305
23:55:47.412,-0.2,-0.3
23:55:47.416,-0.25,-0.285
23:55:47.420,-0.285,-0.265
23:55:47.424,-0.215,-0.295
23:55:47.428,-0.185,-0.295
23:55:47.432,-0.2,-0.195
23:55:47.436,-0.2,-0.03
23:55:47.440,-0.135,0.2
23:55:47.444,-0.105,0.475
23:55:47.448,-0.1,0.785
23:55:47.452,0.035,0.9
23:55:47.456,0.205,0.78
23:55:47.460,0.245,0.335
23:55:47.464,0.17,-0.44
23:55:47.468,0.16,-1.045
23:55:47.472,0.135,-1.315
23:55:47.476,0.065,-1.34
23:55:47.480,-0.125,-1.21
23:55:47.484,-0.27,-1.035
23:55:47.488,-0.355,-0.865
23:55:47.492,-0.35,-0.745
23:55:47.496,-0.36,-0.62
23:55:47.500,-0.315,-0.445
23:55:47.504,-0.225,-0.295
23:55:47.508,-0.1,-0.285
23:55:47.512,-0.04,-0.255
23:55:47.516,-0.005,-0.26
23:55:47.520,-0.04,-0.265
23:55:47.524,-0.11,-0.275
23:55:47.528,-0.12,-0.285
23:55:47.532,-0.1,-0.29
23:55:47.536,-0.155,-0.3
23:55:47.540,-0.17,-0.345
23:55:47.544,-0.16,-0.35
23:55:47.548,-0.14,-0.34
23:55:47.552,-0.13,-0.33
23:55:47.556,-0.14,-0.335
23:55:47.560,-0.18,-0.34
23:55:47.564,-0.21,-0.35
23:55:47.568,-0.23,-0.345
23:55:47.572,-0.215,-0.33
23:55:47.576,-0.175,-0.345
23:55:47.580,-0.17,-0.36
23:55:47.584,-0.17,-0.335
23:55:47.588,-0.2,-0.33
23:55:47.592,-0.31,-0.32
23:55:47.596,-0.305,-0.315
23:55:47.600,-0.24,-0.295
23:55:47.604,-0.165,-0.32
23:55:47.608,-0.135,-0.375
23:55:47.612,-0.155,-0.395
23:55:47.616,-0.22,-0.335
23:55:47.620,-0.27,-0.33
23:55:47.624,-0.255,-0.33
23:55:47.628,-0.24,-0.34
23:55:47.632,-0.235,-0.325
23:55:47.636,-0.21,-0.31
23:55:47.640,-0.165,-0.295
23:55:47.644,-0.145,-0.31
23:55:47.648,-0.15,-0.29
23:55:47.652,-0.135,-0.29
23:55:47.656,-0.13,-0.29
23:55:47.660,-0.13,-0.28
23:55:47.664,-0.2,-0.28
23:55:47.668,-0.265,-0.28
23:55:47.672,-0.295,-0.28
23:55:47.676,-0.24,-0.275
23:55:47.680,-0.21,-0.275
23:55:47.684,-0.195,-0.27
23:55:47.688,-0.17,-0.295
23:55:47.692,-0.185,-0.265
23:55:47.696,-0.16,-0.24
23:55:47.700,-0.12,-0.24
23:55:47.704,-0.09,-0.225
23:55:47.708,-0.11,-0.205
23:55:47.712,-0.095,-0.225
23:55:47.716,-0.045,-0.2
23:55:47.720,-0.03,-0.16
23:55:47.724,-0.035,-0.125
23:55:47.728,-0.045,-0.075
23:55:47.732,-0.045,-0.04
23:55:47.736,0.005,-0.06
23:55:47.740,0.08,-0.065
23:55:47.744,0.135,-0.065
23:55:47.748,0.14,-0.085
23:55:47.752,0.085,-0.12
23:55:47.756,0.04,-0.135
23:55:47.760,-0.035,-0.115
23:55:47.764,-0.075,-0.155
23:55:47.768,0.005,-0.18
23:55:47.772,0.03,-0.22
23:55:47.776,-0.035,-0.22
23:55:47.780,-0.04,-0.205
23:55:47.784,0.005,-0.2
23:55:47.788,0.03,-0.175
23:55:47.792,0.05,-0.21
23:55:47.796,0.09,-0.22
23:55:47.800,0.095,-0.22
23:55:47.804,0.09,-0.225
23:55:47.808,0.11,-0.22
23:55:47.812,0.15,-0.195
23:55:47.816,0.125,-0.18
23:55:47.820,0.075,-0.205
23:55:47.824,0.03,-0.195
23:55:47.828,0.025,-0.2
23:55:47.832,0.01,-0.22
23:55:47.836,0.02,-0.24
23:55:47.840,0.03,-0.26
23:55:47.844,0.055,-0.25
23:55:47.848,0.05,-0.225
23:55:47.852,0.055,-0.245
23:55:47.856,0.105,-0.26
23:55:47.860,0.11,-0.295
23:55:47.864,0.055,-0.255
23:55:47.868,-0.015,-0.26
23:55:47.872,0.035,-0.275
23:55:47.876,0.105,-0.275
23:55:47.880,0.095,-0.285
23:55:47.884,0.035,-0.33
23:55:47.888,0.005,-0.325
23:55:47.892,0.015,-0.22
23:55:47.896,0.065,0.04
23:55:47.900,0.09,0.355
23:55:47.904,0.13,0.68
23:55:47.908,0.21,0.84
23:55:47.912,0.31,0.82
23:55:47.916,0.38,0.575
23:55:47.920,0.325,0.035
23:55:47.924,0.27,-0.645
23:55:47.928,0.215,-1.075
23:55:47.932,0.08,-1.225
23:55:47.936,-0.12,-1.16
23:55:47.940,-0.255,-1.0
23:55:47.944,-0.3,-0.805
23:55:47.948,-0.29,-0.62
23:55:47.952,-0.225,-0.485
23:55:47.956,-0.15,-0.405
23:55:47.960,-0.065,-0.345
23:55:47.964,0.01,-0.32
23:55:47.968,0.075,-0.36
23:55:47.972,0.035,-0.385
23:55:47.976,-0.065,-0.365
23:55:47.980,-0.07,-0.375
23:55:47.984,0.0,-0.38
23:55:47.988,-0.015,-0.38
23:55:47.992,-0.05,-0.34
23:55:47.996,-0.05,-0.375
23:55:48.000,0.0,-0.43
23:55:48.004,-0.035,-0.425
23:55:48.008,-0.08,-0.41
23:55:48.012,-0.06,-0.41
23:55:48.016,-0.06,-0.385
23:55:48.020,-0.05,-0.385
23:55:48.024,-0.05,-0.41
23:55:48.028,-0.02,-0.4
23:55:48.032,0.0,-0.38
23:55:48.036,0.0,-0.405
23:55:48.040,-0.02,-0.41
23:55:48.044,-0.035,-0.415
23:55:48.048,-0.055,-0.4
23:55:48.052,-0.055,-0.4
23:55:48.056,-0.05,-0.405
23:55:48.060,-0.06,-0.39
23:55:48.064,0.0,-0.39
23:55:48.068,0.01,-0.39
23:55:48.072,0.015,-0.385
23:55:48.076,-0.02,-0.395
23:55:48.080,-0.04,-0.385
23:55:48.084,-0.035,-0.395
23:55:48.088,-0.045,-0.385
23:55:48.092,-0.035,-0.37
23:55:48.096,-0.025,-0.37
23:55:48.100,-0.04,-0.37
23:55:48.104,-0.025,-0.385
23:55:48.108,-0.025,-0.38
23:55:48.112,-0.055,-0.37
23:55:48.116,-0.03,-0.38
23:55:48.120,-0.035,-0.385
23:55:48.124,-0.06,-0.375
23:55:48.128,-0.015,-0.365
23:55:48.132,0.0,-0.365
23:55:48.136,0.0,-0.365
23:55:48.140,-0.03,-0.345
23:55:48.144,-0.01,-0.335
23:55:48.148,0.015,-0.33
23:55:48.152,0.045,-0.305
23:55:48.156,0.085,-0.32
23:55:48.160,0.06,-0.315
23:55:48.164,0.01,-0.28
23:55:48.168,0.01,-0.24
23:55:48.172,0.045,-0.22
23:55:48.176,0.065,-0.215
23:55:48.180,0.075,-0.205
23:55:48.184,0.06,-0.23
23:55:48.188,0.06,-0.26
23:55:48.192,0.055,-0.29
23:55:48.196,0.03,-0.305
23:55:48.200,0.025,-0.33
23:55:48.204,0.01,-0.365
23:55:48.208,-0.03,-0.345
23:55:48.212,-0.035,-0.345
23:55:48.216,0.01,-0.35
23:55:48.220,0.035,-0.37
23:55:48.224,0.02,-0.365
23:55:48.228,0.0,-0.39
23:55:48.232,0.005,-0.4
23:55:48.236,-0.01,-0.38
23:55:48.240,-0.035,-0.39
23:55:48.244,-0.055,-0.395
23:55:48.248,-0.055,-0.39
23:55:48.252,-0.055,-0.39
23:55:48.256,-0.035,-0.395
23:55:48.260,-0.03,-0.385
23:55:48.264,-0.015,-0.41
23:55:48.268,-0.005,-0.395
23:55:48.272,-0.005,-0.395
23:55:48.276,-0.02,-0.39
23:55:48.280,-0.02,-0.4
23:55:48.284,-0.02,-0.41
23:55:48.288,-0.02,-0.4
23:55:48.292,0.0,-0.375
23:55:48.296,0.02,-0.36
23:55:48.300,0.005,-0.385
23:55:48.304,-0.015,-0.4
23:55:48.308,-0.025,-0.44
23:55:48.312,-0.01,-0.45
23:55:48.316,-0.005,-0.45
23:55:48.320,0.02,-0.44
23:55:48.324,0.0,-0.445
23:55:48.328,0.0,-0.44
23:55:48.332,0.02,-0.45
23:55:48.336,0.025,-0.455
23:55:48.340,0.005,-0.485
23:55:48.344,0.015,-0.49
23:55:48.348,-0.01,-0.47
23:55:48.352,-0.01,-0.475
23:55:48.356,0.005,-0.445
23:55:48.360,0.035,-0.465
23:55:48.364,0.045,-0.475
23:55:48.368,0.065,-0.49
23:55:48.372,0.055,-0.505
23:55:48.376,0.055,-0.495
23:55:48.380,0.06,-0.425
23:55:48.384,0.095,-0.395
23:55:48.388,0.105,-0.395
23:55:48.392,0.13,-0.3
23:55:48.396,0.12,-0.055
23:55:48.400,0.15,0.25
23:55:48.404,0.19,0.635
23:55:48.408,0.255,0.915
23:55:48.412,0.35,1.015
23:55:48.416,0.45,0.935
23:55:48.420,0.47,0.485
23:55:48.424,0.375,-0.355
23:55:48.428,0.21,-0.98
23:55:48.432,0.0,-1.245
23:55:48.436,-0.215,-1.245
23:55:48.440,-0.33,-1.085
23:55:48.444,-0.4,-0.95
23:55:48.448,-0.39,-0.815
23:55:48.452,-0.32,-0.69
23:55:48.456,-0.245,-0.61
23:55:48.460,-0.135,-0.56
23:55:48.464,-0.06,-0.54
23:55:48.468,-0.035,-0.545
23:55:48.472,-0.015,-0.54
23:55:48.476,0.0,-0.54
23:55:48.480,0.015,-0.52
23:55:48.484,0.035,-0.53
23:55:48.488,0.015,-0.51
23:55:48.492,0.025,-0.515
23:55:48.496,0.02,-0.52
23:55:48.500,0.025,-0.53
23:55:48.504,0.03,-0.515
23:55:48.508,0.055,-0.53
23:55:48.512,0.045,-0.525
23:55:48.516,0.02,-0.515
23:55:48.520,-0.07,-0.495
23:55:48.524,-0.065,-0.5
23:55:48.528,-0.04,-0.505
23:55:48.532,0.0,-0.515
23:55:48.536,0.035,-0.51
23:55:48.540,0.045,-0.51
23:55:48.544,0.035,-0.5
23:55:48.548,0.04,-0.48
23:55:48.552,0.035,-0.51
23:55:48.556,0.03,-0.52
23:55:48.560,0.045,-0.51
23:55:48.564,0.02,-0.505
23:55:48.568,-0.005,-0.505
23:55:48.572,-0.01,-0.515
23:55:48.576,0.0,-0.475
23:55:48.580,0.025,-0.45
23:55:48.584,0.085,-0.445
23:55:48.588,0.075,-0.445
23:55:48.592,0.075,-0.45
23:55:48.596,0.07,-0.475
23:55:48.600,0.08,-0.455
23:55:48.604,0.12,-0.395
23:55:48.608,0.115,-0.375
23:55:48.612,0.115,-0.36
23:55:48.616,0.145,-0.36
23:55:48.620,0.135,-0.355
23:55:48.624,0.125,-0.345
23:55:48.628,0.115,-0.365
23:55:48.632,0.09,-0.38
23:55:48.636,0.09,-0.395
23:55:48.640,0.1,-0.395
23:55:48.644,0.06,-0.375
23:55:48.648,0.055,-0.37
23:55:48.652,0.055,-0.355
23:55:48.656,0.02,-0.345
23:55:48.660,0.045,-0.34
23:55:48.664,0.065,-0.32
23:55:48.668,0.075,-0.3
23:55:48.672,0.075,-0.28
23:55:48.676,0.075,-0.285
23:55:48.680,0.065,-0.265
23:55:48.684,0.085,-0.28
23:55:48.688,0.1,-0.28
23:55:48.692,0.075,-0.315
23:55:48.696,0.065,-0.315
23:55:48.700,0.06,-0.34
23:55:48.704,0.08,-0.355
23:55:48.708,0.08,-0.37
23:55:48.712,0.08,-0.37
23:55:48.716,0.08,-0.37
23:55:48.720,0.09,-0.39
23:55:48.724,0.075,-0.38
23:55:48.728,0.09,-0.38
23:55:48.732,0.06,-0.385
23:55:48.736,0.095,-0.37
23:55:48.740,0.085,-0.39
23:55:48.744,0.095,-0.4
23:55:48.748,0.095,-0.395
23:55:48.752,0.105,-0.365
23:55:48.756,0.1,-0.355
23:55:48.760,0.105,-0.37
23:55:48.764,0.115,-0.365
23:55:48.768,0.12,-0.355
23:55:48.772,0.095,-0.365
23:55:48.776,0.12,-0.37
23:55:48.780,0.115,-0.385
23:55:48.784,0.075,-0.4
23:55:48.788,0.08,-0.415
23:55:48.792,0.075,-0.395
23:55:48.796,0.07,-0.39
23:55:48.800,0.1,-0.38
23:55:48.804,0.11,-0.39
23:55:48.808,0.115,-0.385
23:55:48.812,0.11,-0.39
23:55:48.816,0.12,-0.38
23:55:48.820,0.12,-0.41
23:55:48.824,0.14,-0.4
23:55:48.828,0.145,-0.36
23:55:48.832,0.165,-0.225
23:55:48.836,0.215,0.05
23:55:48.840,0.27,0.405
23:55:48.844,0.315,0.78
23:55:48.848,0.41,1.005
23:55:48.852,0.5,0.985
23:55:48.856,0.545,0.685
23:55:48.860,0.5,0.09
23:55:48.864,0.315,-0.62
23:55:48.868,0.065,-1.035
23:55:48.872,-0.18,-1.115
23:55:48.876,-0.33,-0.975
23:55:48.880,-0.365,-0.805
23:55:48.884,-0.345,-0.685
23:55:48.888,-0.28,-0.575
23:55:48.892,-0.185,-0.47
23:55:48.896,-0.075,-0.405
23:55:48.900,0.0,-0.4
23:55:48.904,0.05,-0.41
23:55:48.908,0.065,-0.435
23:55:48.912,0.095,-0.44
23:55:48.916,0.07,-0.425
23:55:48.920,0.07,-0.405
23:55:48.924,0.07,-0.44
23:55:48.928,0.085,-0.42
23:55:48.932,0.085,-0.405
23:55:48.936,0.075,-0.4
23:55:48.940,0.05,-0.4
23:55:48.944,0.05,-0.405
23:55:48.948,0.04,-0.415
23:55:48.952,0.06,-0.41
23:55:48.956,0.065,-0.41
23:55:48.960,0.065,-0.405
23:55:48.964,0.065,-0.41
23:55:48.968,0.07,-0.4
23:55:48.972,0.06,-0.395
23:55:48.976,0.075,-0.38
23:55:48.980,0.08,-0.39
23:55:48.984,0.1,-0.385
23:55:48.988,0.07,-0.395
23:55:48.992,0.09,-0.4
23:55:48.996,0.09,-0.385
23:55:49.000,0.085,-0.385
23:55:49.004,0.07,-0.395
23:55:49.008,0.09,-0.375
23:55:49.012,0.09,-0.37
23:55:49.016,0.09,-0.375
23:55:49.020,0.105,-0.36
23:55:49.024,0.105,-0.335
23:55:49.028,0.11,-0.34
23:55:49.032,0.115,-0.325
23:55:49.036,0.13,-0.315
23:55:49.040,0.135,-0.305
23:55:49.044,0.14,-0.315
23:55:49.048,0.145,-0.3
23:55:49.052,0.135,-0.26
23:55:49.056,0.155,-0.245
23:55:49.060,0.165,-0.235
23:55:49.064,0.15,-0.23
23:55:49.068,0.115,-0.25
23:55:49.072,0.085,-0.25
23:55:49.076,0.07,-0.23
23:55:49.080,0.045,-0.225
23:55:49.084,0.035,-0.25
23:55:49.088,0.04,-0.25
23:55:49.092,0.015,-0.235
23:55:49.096,-0.035,-0.22
23:55:49.100,-0.01,-0.215
23:55:49.104,-0.005,-0.22
23:55:49.108,-0.025,-0.23
23:55:49.112,-0.04,-0.265
23:55:49.116,-0.03,-0.245
23:55:49.120,-0.04,-0.27
23:55:49.124,-0.03,-0.285
23:55:49.128,0.0,-0.29
23:55:49.132,-0.005,-0.295
23:55:49.136,-0.01,-0.32
23:55:49.140,-0.01,-0.335
23:55:49.144,-0.005,-0.34
23:55:49.148,0.0,-0.34
23:55:49.152,0.0,-0.34
23:55:49.156,0.0,-0.37
23:55:49.160,0.005,-0.36
23:55:49.164,0.01,-0.35
23:55:49.168,0.035,-0.36
23:55:49.172,0.045,-0.345
23:55:49.176,0.06,-0.34
23:55:49.180,0.1,-0.335
23:55:49.184,0.15,-0.345
23:55:49.188,0.185,-0.34
23:55:49.192,0.155,-0.34
23:55:49.196,0.16,-0.335
23:55:49.200,0.15,-0.345
23:55:49.204,0.13,-0.31
23:55:49.208,0.095,-0.305
23:55:49.212,0.1,-0.295
23:55:49.216,0.1,-0.3
23:55:49.220,0.105,-0.315
23:55:49.224,0.08,-0.33
23:55:49.228,0.065,-0.35
23:55:49.232,0.045,-0.345
23:55:49.236,0.045,-0.355
23:55:49.240,0.075,-0.335
23:55:49.244,0.095,-0.245
23:55:49.248,0.13,-0.05
23:55:49.252,0.165,0.185
23:55:49.256,0.215,0.47
23:55:49.260,0.255,0.725
23:55:49.264,0.355,0.83
23:55:49.268,0.435,0.795
23:55:49.272,0.49,0.545
23:55:49.276,0.55,-0.125
23:55:49.280,0.58,-0.85
23:55:49.284,0.505,-1.23
23:55:49.288,0.425,-1.32
23:55:49.292,0.245,-1.165
23:55:49.296,0.085,-1.0
23:55:49.300,0.0,-0.86
23:55:49.304,-0.065,-0.74
23:55:49.308,-0.045,-0.63
23:55:49.312,-0.05,-0.53
23:55:49.316,-0.005,-0.44
23:55:49.320,0.015,-0.395
23:55:49.324,0.07,-0.375
23:55:49.328,0.115,-0.365
23:55:49.332,0.17,-0.385
23:55:49.336,0.16,-0.37
23:55:49.340,0.165,-0.375
23:55:49.344,0.175,-0.405
23:55:49.348,0.16,-0.4
23:55:49.352,0.135,-0.38
23:55:49.356,0.13,-0.37
23:55:49.360,0.13,-0.395
23:55:49.364,0.14,-0.395
23:55:49.368,0.12,-0.39
23:55:49.372,0.13,-0.38
23:55:49.376,0.15,-0.38
23:55:49.380,0.135,-0.38
23:55:49.384,0.125,-0.38
23:55:49.388,0.11,-0.37
23:55:49.392,0.12,-0.36
23:55:49.396,0.12,-0.33
23:55:49.400,0.12,-0.345
23:55:49.404,0.11,-0.33
23:55:49.408,0.12,-0.32
23:55:49.412,0.125,-0.325
23:55:49.416,0.11,-0.315
23:55:49.420,0.11,-0.28
23:55:49.424,0.095,-0.28
23:55:49.428,0.08,-0.295
23:55:49.432,0.095,-0.295
23:55:49.436,0.1,-0.285
23:55:49.440,0.105,-0.295
23:55:49.444,0.11,-0.315
23:55:49.448,0.1,-0.33
23:55:49.452,0.09,-0.325
23:55:49.456,0.08,-0.32
23:55:49.460,0.09,-0.29
23:55:49.464,0.07,-0.28
23:55:49.468,0.08,-0.265
23:55:49.472,0.105,-0.27
23:55:49.476,0.1,-0.255
23:55:49.480,0.12,-0.245
23:55:49.484,0.135,-0.255
23:55:49.488,0.145,-0.255
23:55:49.492,0.155,-0.22
23:55:49.496,0.175,-0.175
23:55:49.500,0.195,-0.13
23:55:49.504,0.18,-0.13
23:55:49.508,0.195,-0.11
23:55:49.512,0.16,-0.08
23:55:49.516,0.16,-0.085
23:55:49.520,0.155,-0.14
23:55:49.524,0.165,-0.17
23:55:49.528,0.155,-0.195
23:55:49.532,0.16,-0.2
23:55:49.536,0.16,-0.21
23:55:49.540,0.15,-0.225
23:55:49.544,0.145,-0.265
23:55:49.548,0.14,-0.27
23:55:49.552,0.155,-0.285
23:55:49.556,0.145,-0.28
23:55:49.560,0.145,-0.28
23:55:49.564,0.15,-0.29
23:55:49.568,0.145,-0.3
23:55:49.572,0.135,-0.305
23:55:49.576,0.145,-0.3
23:55:49.580,0.15,-0.29
23:55:49.584,0.135,-0.295
23:55:49.588,0.145,-0.27
23:55:49.592,0.155,-0.285
23:55:49.596,0.15,-0.3
23:55:49.600,0.145,-0.295
23:55:49.604,0.15,-0.3
23:55:49.608,0.155,-0.305
23:55:49.612,0.135,-0.3
23:55:49.616,0.155,-0.29
23:55:49.620,0.15,-0.27
23:55:49.624,0.155,-0.27
23:55:49.628,0.17,-0.265
23:55:49.632,0.17,-0.265
23:55:49.636,0.16,-0.265
23:55:49.640,0.16,-0.26
23:55:49.644,0.18,-0.26
23:55:49.648,0.195,-0.29
23:55:49.652,0.215,-0.305
23:55:49.656,0.21,-0.305
23:55:49.660,0.215,-0.23
23:55:49.664,0.235,-0.12
23:55:49.668,0.285,0.1
23:55:49.672,0.335,0.385
23:55:49.676,0.375,0.625
23:55:49.680,0.445,0.59
23:55:49.684,0.525,0.33
23:55:49.688,0.54,-0.125
23:55:49.692,0.47,-0.7
23:55:49.696,0.405,-1.14
23:55:49.700,0.215,-1.2
23:55:49.704,0.03,-1.11
23:55:49.708,-0.045,-0.875
23:55:49.712,-0.085,-0.655
23:55:49.716,-0.065,-0.48
23:55:49.720,0.025,-0.35
23:55:49.724,0.145,-0.26
23:55:49.728,0.23,-0.25
23:55:49.732,0.26,-0.285
23:55:49.736,0.27,-0.275
23:55:49.740,0.26,-0.275
23:55:49.744,0.27,-0.285
23:55:49.748,0.245,-0.305
23:55:49.752,0.28,-0.325
23:55:49.756,0.275,-0.33
23:55:49.760,0.27,-0.32
23:55:49.764,0.275,-0.31
23:55:49.768,0.28,-0.31
23:55:49.772,0.295,-0.325
23:55:49.776,0.3,-0.31
23:55:49.780,0.295,-0.305
23:55:49.784,0.305,-0.295
23:55:49.788,0.285,-0.31
23:55:49.792,0.305,-0.335
23:55:49.796,0.295,-0.35
23:55:49.800,0.315,-0.36
23:55:49.804,0.31,-0.35
23:55:49.808,0.305,-0.34
23:55:49.812,0.31,-0.33
23:55:49.816,0.305,-0.335
23:55:49.820,0.305,-0.34
23:55:49.824,0.295,-0.345
23:55:49.828,0.3,-0.32
23:55:49.832,0.305,-0.315
23:55:49.836,0.28,-0.32
23:55:49.840,0.29,-0.335
23:55:49.844,0.29,-0.29
23:55:49.848,0.295,-0.32
23:55:49.852,0.28,-0.31
23:55:49.856,0.29,-0.31
23:55:49.860,0.29,-0.3
23:55:49.864,0.295,-0.3
23:55:49.868,0.295,-0.305
23:55:49.872,0.315,-0.295
23:55:49.876,0.315,-0.29
23:55:49.880,0.325,-0.305
23:55:49.884,0.315,-0.29
23:55:49.888,0.315,-0.31
23:55:49.892,0.305,-0.305
23:55:49.896,0.3,-0.32
23:55:49.900,0.285,-0.295
23:55:49.904,0.3,-0.29
23:55:49.908,0.3,-0.265
23:55:49.912,0.33,-0.24
23:55:49.916,0.335,-0.23
23:55:49.920,0.35,-0.23
23:55:49.924,0.36,-0.2
23:55:49.928,0.37,-0.195
23:55:49.932,0.39,-0.16
23:55:49.936,0.41,-0.13
23:55:49.940,0.42,-0.095
23:55:49.944,0.42,-0.12
23:55:49.948,0.45,-0.12
23:55:49.952,0.425,-0.115
23:55:49.956,0.4,-0.13
23:55:49.960,0.405,-0.15
23:55:49.964,0.405,-0.165
23:55:49.968,0.37,-0.19
23:55:49.972,0.35,-0.195
23:55:49.976,0.35,-0.205
23:55:49.980,0.345,-0.225
23:55:49.984,0.35,-0.235
23:55:49.988,0.34,-0.23
23:55:49.992,0.34,-0.205
23:55:49.996,0.33,-0.21
23:55:50.000,0.345,-0.22
23:55:50.004,0.345,-0.22
23:55:50.008,0.34,-0.225
23:55:50.012,0.33,-0.225
23:55:50.016,0.35,-0.22
23:55:50.020,0.34,-0.21
23:55:50.024,0.33,-0.23
23:55:50.028,0.325,-0.235
23:55:50.032,0.305,-0.22
23:55:50.036,0.295,-0.22
23:55:50.040,0.305,-0.22
23:55:50.044,0.315,-0.245
23:55:50.048,0.325,-0.255
23:55:50.052,0.33,-0.26
23:55:50.056,0.33,-0.255
23:55:50.060,0.315,-0.24
23:55:50.064,0.305,-0.25
23:55:50.068,0.3,-0.255
23:55:50.072,0.31,-0.25
23:55:50.076,0.29,-0.25
23:55:50.080,0.295,-0.27
23:55:50.084,0.29,-0.27
23:55:50.088,0.28,-0.27
23:55:50.092,0.3,-0.26
23:55:50.096,0.305,-0.24
23:55:50.100,0.3,-0.26
23:55:50.104,0.28,-0.26
23:55:50.108,0.28,-0.27
23:55:50.112,0.28,-0.3
23:55:50.116,0.265,-0.3
23:55:50.120,0.255,-0.3
23:55:50.124,0.25,-0.285
23:55:50.128,0.255,-0.285
23:55:50.132,0.275,-0.255
23:55:50.136,0.29,-0.275
23:55:50.140,0.275,-0.275
23:55:50.144,0.285,-0.295
23:55:50.148,0.295,-0.275
23:55:50.152,0.31,-0.22
23:55:50.156,0.32,-0.14
23:55:50.160,0.35,-0.035
23:55:50.164,0.375,0.19
23:55:50.168,0.41,0.495
23:55:50.172,0.45,0.78
23:55:50.176,0.505,1.055
23:55:50.180,0.57,1.125
23:55:50.184,0.665,0.99
23:55:50.188,0.66,0.525
23:55:50.192,0.625,-0.22
23:55:50.196,0.47,-0.795
23:55:50.200,0.28,-1.065
23:55:50.204,0.08,-1.085
23:55:50.208,-0.065,-0.925
23:55:50.212,-0.135,-0.75
23:55:50.216,-0.1,-0.59
23:55:50.220,-0.07,-0.47
23:55:50.224,-0.01,-0.375
23:55:50.228,0.085,-0.305
23:55:50.232,0.16,-0.3
23:55:50.236,0.21,-0.28
23:55:50.240,0.225,-0.29
23:55:50.244,0.235,-0.285
23:55:50.248,0.26,-0.295
23:55:50.252,0.24,-0.285
23:55:50.256,0.24,-0.305
23:55:50.260,0.25,-0.3
23:55:50.264,0.24,-0.29
23:55:50.268,0.24,-0.295
23:55:50.272,0.25,-0.315
23:55:50.276,0.24,-0.3
23:55:50.280,0.245,-0.295
23:55:50.284,0.235,-0.295
23:55:50.288,0.23,-0.28
23:55:50.292,0.23,-0.28
23:55:50.296,0.245,-0.285
23:55:50.300,0.25,-0.29
23:55:50.304,0.235,-0.285
23:55:50.308,0.245,-0.285
23:55:50.312,0.255,-0.265
23:55:50.316,0.255,-0.26
23:55:50.320,0.26,-0.265
23:55:50.324,0.265,-0.265
23:55:50.328,0.285,-0.245
23:55:50.332,0.275,-0.25
23:55:50.336,0.26,-0.26
23:55:50.340,0.285,-0.25
23:55:50.344,0.28,-0.24
23:55:50.348,0.29,-0.225
23:55:50.352,0.305,-0.22
23:55:50.356,0.3,-0.24
23:55:50.360,0.315,-0.235
23:55:50.364,0.325,-0.21
23:55:50.368,0.34,-0.21
23:55:50.372,0.345,-0.175
23:55:50.376,0.36,-0.155
23:55:50.380,0.375,-0.12
23:55:50.384,0.375,-0.13
23:55:50.388,0.37,-0.135
23:55:50.392,0.355,-0.14
23:55:50.396,0.36,-0.14
23:55:50.400,0.325,-0.17
23:55:50.404,0.295,-0.15
23:55:50.408,0.295,-0.16
23:55:50.412,0.305,-0.155
23:55:50.416,0.28,-0.13
23:55:50.420,0.265,-0.13
23:55:50.424,0.3,-0.1
23:55:50.428,0.29,-0.08
23:55:50.432,0.285,-0.07
23:55:50.436,0.285,-0.065
23:55:50.440,0.285,-0.07
23:55:50.444,0.305,-0.05
23:55:50.448,0.305,-0.05
23:55:50.452,0.31,-0.045
23:55:50.456,0.295,-0.065
23:55:50.460,0.32,-0.08
23:55:50.464,0.31,-0.085
23:55:50.468,0.32,-0.09
23:55:50.472,0.315,-0.115
23:55:50.476,0.315,-0.135
23:55:50.480,0.31,-0.14
23:55:50.484,0.31,-0.115
23:55:50.488,0.31,-0.135
23:55:50.492,0.31,-0.14
23:55:50.496,0.31,-0.15
23:55:50.500,0.32,-0.155
23:55:50.504,0.31,-0.17
23:55:50.508,0.305,-0.15
23:55:50.512,0.32,-0.14
23:55:50.516,0.305,-0.155
23:55:50.520,0.3,-0.155
23:55:50.524,0.31,-0.12
23:55:50.528,0.31,-0.125
23:55:50.532,0.315,-0.105
23:55:50.536,0.31,-0.11
23:55:50.540,0.33,-0.14
23:55:50.544,0.34,-0.175
23:55:50.548,0.32,-0.16
23:55:50.552,0.295,-0.035
23:55:50.556,0.32,0.185
23:55:50.560,0.36,0.555
23:55:50.564,0.455,0.99
23:55:50.568,0.53,1.27
23:55:50.572,0.66,1.15
23:55:50.576,0.755,0.73
23:55:50.580,0.725,-0.02
23:55:50.584,0.56,-0.795
23:55:50.588,0.325,-1.195
23:55:50.592,0.08,-1.175
23:55:50.596,-0.025,-0.94
23:55:50.600,-0.065,-0.675
23:55:50.604,-0.02,-0.505
23:55:50.608,0.04,-0.38
23:55:50.612,0.135,-0.27
23:55:50.616,0.2,-0.185
23:55:50.620,0.275,-0.17
23:55:50.624,0.305,-0.22
23:55:50.628,0.31,-0.225
23:55:50.632,0.295,-0.225
23:55:50.636,0.275,-0.23
23:55:50.640,0.29,-0.24
23:55:50.644,0.29,-0.225
23:55:50.648,0.28,-0.23
23:55:50.652,0.3,-0.245
23:55:50.656,0.29,-0.25
23:55:50.660,0.26,-0.24
23:55:50.664,0.255,-0.25
23:55:50.668,0.28,-0.245
23:55:50.672,0.29,-0.24
23:55:50.676,0.285,-0.235
23:55:50.680,0.29,-0.24
23:55:50.684,0.275,-0.235
23:55:50.688,0.285,-0.225
23:55:50.692,0.27,-0.245
23:55:50.696,0.28,-0.23
23:55:50.700,0.305,-0.22
23:55:50.704,0.29,-0.22
23:55:50.708,0.295,-0.225
23:55:50.712,0.29,-0.205
23:55:50.716,0.285,-0.185
23:55:50.720,0.285,-0.19
23:55:50.724,0.295,-0.195
23:55:50.728,0.29,-0.185
23:55:50.732,0.305,-0.18
23:55:50.736,0.29,-0.18
23:55:50.740,0.305,-0.15
23:55:50.744,0.31,-0.145
23:55:50.748,0.31,-0.145
23:55:50.752,0.325,-0.14
23:55:50.756,0.305,-0.13
23:55:50.760,0.325,-0.11
23:55:50.764,0.325,-0.12
23:55:50.768,0.33,-0.12
23:55:50.772,0.335,-0.12
23:55:50.776,0.335,-0.11
23:55:50.780,0.325,-0.085
23:55:50.784,0.295,-0.1
23:55:50.788,0.32,-0.095
23:55:50.792,0.33,-0.085
23:55:50.796,0.325,-0.065
23:55:50.800,0.365,-0.05
23:55:50.804,0.375,-0.055
23:55:50.808,0.375,-0.04
23:55:50.812,0.375,-0.035
23:55:50.816,0.375,-0.03
23:55:50.820,0.4,0.0
23:55:50.824,0.395,0.035
23:55:50.828,0.41,0.04
23:55:50.832,0.44,0.015
23:55:50.836,0.44,0.01
23:55:50.840,0.43,-0.005
23:55:50.844,0.405,-0.02
23:55:50.848,0.365,-0.03
23:55:50.852,0.38,-0.08
23:55:50.856,0.345,-0.1
23:55:50.860,0.335,-0.115
23:55:50.864,0.33,-0.11
23:55:50.868,0.315,-0.14
23:55:50.872,0.31,-0.13
23:55:50.876,0.31,-0.135
23:55:50.880,0.295,-0.145
23:55:50.884,0.305,-0.13
23:55:50.888,0.31,-0.145
23:55:50.892,0.325,-0.14
23:55:50.896,0.305,-0.14
23:55:50.900,0.31,-0.145
23:55:50.904,0.305,-0.145
23:55:50.908,0.31,-0.135
23:55:50.912,0.31,-0.17
23:55:50.916,0.295,-0.185
23:55:50.920,0.29,-0.18
23:55:50.924,0.3,-0.155
23:55:50.928,0.305,-0.16
23:55:50.932,0.3,-0.165
23:55:50.936,0.295,-0.175
23:55:50.940,0.285,-0.18
23:55:50.944,0.29,-0.17
23:55:50.948,0.29,-0.18
23:55:50.952,0.305,-0.2
23:55:50.956,0.29,-0.19
23:55:50.960,0.3,-0.185
23:55:50.964,0.3,-0.19
23:55:50.968,0.28,-0.185
23:55:50.972,0.285,-0.155
23:55:50.976,0.285,-0.175
23:55:50.980,0.295,-0.195
23:55:50.984,0.295,-0.18
23:55:50.988,0.31,-0.165
23:55:50.992,0.305,-0.2
23:55:50.996,0.295,-0.205
23:55:51.000,0.29,-0.205
23:55:51.004,0.265,-0.2
23:55:51.008,0.3,-0.21
23:55:51.012,0.31,-0.19
23:55:51.016,0.305,-0.21
23:55:51.020,0.31,-0.185
23:55:51.024,0.31,-0.08
23:55:51.028,0.35,0.12
23:55:51.032,0.39,0.44
23:55:51.036,0.445,0.825
23:55:51.040,0.52,1.07
23:55:51.044,0.635,1.075
23:55:51.048,0.73,0.89
23:55:51.052,0.75,0.385
23:55:51.056,0.67,-0.335
23:55:51.060,0.53,-0.84
23:55:51.064,0.345,-1.07
23:55:51.068,0.135,-1.01
23:55:51.072,-0.015,-0.835
23:55:51.076,-0.09,-0.695
23:55:51.080,-0.07,-0.515
23:55:51.084,-0.04,-0.4
23:55:51.088,0.0,-0.315
23:55:51.092,0.085,-0.24
23:55:51.096,0.155,-0.21
23:55:51.100,0.22,-0.21
23:55:51.104,0.24,-0.22
23:55:51.108,0.275,-0.205
23:55:51.112,0.275,-0.225
23:55:51.116,0.265,-0.22
23:55:51.120,0.23,-0.24
23:55:51.124,0.235,-0.22
23:55:51.128,0.235,-0.235
23:55:51.132,0.24,-0.225
23:55:51.136,0.225,-0.215
23:55:51.140,0.25,-0.225
23:55:51.144,0.23,-0.235
23:55:51.148,0.235,-0.225
23:55:51.152,0.22,-0.22
23:55:51.156,0.24,-0.23
23:55:51.160,0.23,-0.245
23:55:51.164,0.235,-0.24
23:55:51.168,0.245,-0.25
23:55:51.172,0.24,-0.225
23:55:51.176,0.24,-0.21
23:55:51.180,0.26,-0.205
23:55:51.184,0.225,-0.225
23:55:51.188,0.23,-0.21
23:55:51.192,0.25,-0.2
23:55:51.196,0.235,-0.195
23:55:51.200,0.24,-0.205
23:55:51.204,0.26,-0.2
23:55:51.208,0.27,-0.21
23:55:51.212,0.26,-0.2
23:55:51.216,0.26,-0.21
23:55:51.220,0.235,-0.215
23:55:51.224,0.235,-0.235
23:55:51.228,0.27,-0.225
23:55:51.232,0.23,-0.19
23:55:51.236,0.27,-0.175
23:55:51.240,0.275,-0.165
23:55:51.244,0.29,-0.175
23:55:51.248,0.3,-0.175
23:55:51.252,0.295,-0.155
23:55:51.256,0.315,-0.125
23:55:51.260,0.305,-0.085
23:55:51.264,0.325,-0.055
23:55:51.268,0.345,-0.05
23:55:51.272,0.33,-0.045
23:55:51.276,0.335,-0.035
23:55:51.280,0.325,-0.025
23:55:51.284,0.325,-0.015
23:55:51.288,0.29,-0.005
23:55:51.292,0.3,-0.015
23:55:51.296,0.295,-0.02
23:55:51.300,0.265,0.0
23:55:51.304,0.265,0.0
23:55:51.308,0.26,0.005
23:55:51.312,0.265,0.015
23:55:51.316,0.29,0.02
23:55:51.320,0.28,0.01
23:55:51.324,0.3,0.025
23:55:51.328,0.315,-0.005
23:55:51.332,0.305,-0.02
23:55:51.336,0.31,-0.035
23:55:51.340,0.31,-0.04
23:55:51.344,0.3,-0.05
23:55:51.348,0.305,-0.06
23:55:51.352,0.3,-0.08
23:55:51.356,0.28,-0.075
23:55:51.360,0.265,-0.095
23:55:51.364,0.27,-0.105
23:55:51.368,0.28,-0.1
23:55:51.372,0.28,-0.105
23:55:51.376,0.295,-0.115
23:55:51.380,0.3,-0.095
23:55:51.384,0.26,-0.09
23:55:51.388,0.265,-0.1
23:55:51.392,0.3,-0.105
23:55:51.396,0.28,-0.09
23:55:51.400,0.295,-0.08
23:55:51.404,0.295,-0.1
23:55:51.408,0.285,-0.11
23:55:51.412,0.26,-0.05
23:55:51.416,0.285,0.11
23:55:51.420,0.34,0.39
23:55:51.424,0.38,0.695
23:55:51.428,0.45,0.95
23:55:51.432,0.535,0.88
23:55:51.436,0.605,0.565
23:55:51.440,0.575,0.015
23:55:51.444,0.43,-0.625
23:55:51.448,0.23,-0.99
23:55:51.452,0.005,-1.05
23:55:51.456,-0.08,-0.95
23:55:51.460,-0.13,-0.715
23:55:51.464,-0.115,-0.53
23:55:51.468,-0.065,-0.43
23:55:51.472,0.025,-0.335
23:55:51.476,0.165,-0.22
23:55:51.480,0.255,-0.165
23:55:51.484,0.28,-0.11
23:55:51.488,0.33,-0.115
23:55:51.492,0.32,-0.125
23:55:51.496,0.31,-0.175
23:55:51.500,0.31,-0.165
23:55:51.504,0.265,-0.185
23:55:51.508,0.26,-0.195
23:55:51.512,0.265,-0.215
23:55:51.516,0.26,-0.225
23:55:51.520,0.23,-0.21
23:55:51.524,0.235,-0.22
23:55:51.528,0.235,-0.21
23:55:51.532,0.215,-0.22
23:55:51.536,0.225,-0.21
23:55:51.540,0.23,-0.21
23:55:51.544,0.23,-0.22
23:55:51.548,0.215,-0.21
23:55:51.552,0.23,-0.21
23:55:51.556,0.23,-0.21
23:55:51.560,0.235,-0.185
23:55:51.564,0.225,-0.205
23:55:51.568,0.245,-0.185
23:55:51.572,0.22,-0.18
23:55:51.576,0.225,-0.18
23:55:51.580,0.235,-0.19
23:55:51.584,0.235,-0.165
23:55:51.588,0.25,-0.165
23:55:51.592,0.23,-0.155
23:55:51.596,0.245,-0.16
23:55:51.600,0.235,-0.15
23:55:51.604,0.245,-0.155
23:55:51.608,0.245,-0.14
23:55:51.612,0.26,-0.135
23:55:51.616,0.25,-0.135
23:55:51.620,0.26,-0.14
23:55:51.624,0.26,-0.13
23:55:51.628,0.26,-0.105
23:55:51.632,0.265,-0.125
23:55:51.636,0.27,-0.12
23:55:51.640,0.26,-0.1
23:55:51.644,0.275,-0.095
23:55:51.648,0.285,-0.07
23:55:51.652,0.285,-0.055
23:55:51.656,0.285,-0.055
23:55:51.660,0.295,-0.07
23:55:51.664,0.28,-0.055
23:55:51.668,0.285,-0.06
23:55:51.672,0.275,-0.015
23:55:51.676,0.3,-0.015
23:55:51.680,0.3,0.0
23:55:51.684,0.325,0.0
23:55:51.688,0.355,0.0
23:55:51.692,0.37,-0.005
23:55:51.696,0.36,-0.01
23:55:51.700,0.37,-0.02
23:55:51.704,0.38,0.01
23:55:51.708,0.38,0.035
23:55:51.712,0.41,0.035
23:55:51.716,0.41,-0.01
23:55:51.720,0.4,-0.02
23:55:51.724,0.375,-0.04
23:55:51.728,0.345,-0.065
23:55:51.732,0.32,-0.09
23:55:51.736,0.275,-0.09
23:55:51.740,0.275,-0.115
23:55:51.744,0.285,-0.11
23:55:51.748,0.255,-0.115
23:55:51.752,0.27,-0.12
23:55:51.756,0.245,-0.135
23:55:51.760,0.235,-0.135
23:55:51.764,0.23,-0.135
23:55:51.768,0.255,-0.13
23:55:51.772,0.26,-0.145
23:55:51.776,0.265,-0.135
23:55:51.780,0.255,-0.14
23:55:51.784,0.25,-0.16
23:55:51.788,0.26,-0.15
23:55:51.792,0.235,-0.14
23:55:51.796,0.24,-0.15
23:55:51.800,0.235,-0.175
23:55:51.804,0.23,-0.155
23:55:51.808,0.24,-0.16
23:55:51.812,0.24,-0.16
23:55:51.816,0.235,-0.17
23:55:51.820,0.23,-0.175
23:55:51.824,0.21,-0.19
23:55:51.828,0.245,-0.185
23:55:51.832,0.23,-0.16
23:55:51.836,0.23,-0.16
23:55:51.840,0.23,-0.15
23:55:51.844,0.235,-0.165
23:55:51.848,0.215,-0.145
23:55:51.852,0.215,-0.16
23:55:51.856,0.225,-0.16
23:55:51.860,0.25,-0.14
23:55:51.864,0.24,-0.145
23:55:51.868,0.265,-0.15
23:55:51.872,0.275,-0.14
23:55:51.876,0.25,-0.125
23:55:51.880,0.25,-0.05
23:55:51.884,0.27,0.16
23:55:51.888,0.315,0.475
23:55:51.892,0.34,0.795
23:55:51.896,0.44,1.01
23:55:51.900,0.55,1.005
23:55:51.904,0.615,0.785
23:55:51.908,0.615,0.22
23:55:51.912,0.55,-0.48
23:55:51.916,0.425,-0.955
23:55:51.920,0.275,-1.1
23:55:51.924,0.075,-0.965
23:55:51.928,-0.055,-0.76
23:55:51.932,-0.065,-0.585
23:55:51.936,-0.035,-0.415
23:55:51.940,-0.015,-0.285
23:55:51.944,0.015,-0.205
23:55:51.948,0.08,-0.15
23:55:51.952,0.155,-0.145
23:55:51.956,0.205,-0.15
23:55:51.960,0.205,-0.165
23:55:51.964,0.215,-0.175
23:55:51.968,0.23,-0.16
23:55:51.972,0.195,-0.185
23:55:51.976,0.195,-0.17
23:55:51.980,0.2,-0.16
23:55:51.984,0.205,-0.165
23:55:51.988,0.195,-0.18
23:55:51.992,0.2,-0.185
23:55:51.996,0.2,-0.19
23:55:52.000,0.205,-0.19
23:55:52.004,0.21,-0.19
23:55:52.008,0.2,-0.19
23:55:52.012,0.195,-0.19
23:55:52.016,0.22,-0.18
23:55:52.020,0.215,-0.175
23:55:52.024,0.18,-0.175
23:55:52.028,0.19,-0.18
23:55:52.032,0.185,-0.185
23:55:52.036,0.185,-0.18
23:55:52.040,0.17,-0.18
23:55:52.044,0.195,-0.18
23:55:52.048,0.185,-0.175
23:55:52.052,0.195,-0.18
23:55:52.056,0.19,-0.17
23:55:52.060,0.205,-0.165
23:55:52.064,0.19,-0.15
23:55:52.068,0.175,-0.17
23:55:52.072,0.2,-0.16
23:55:52.076,0.2,-0.145
23:55:52.080,0.205,-0.135
23:55:52.084,0.24,-0.135
23:55:52.088,0.23,-0.11
23:55:52.092,0.22,-0.135
23:55:52.096,0.225,-0.11
23:55:52.100,0.22,-0.095
23:55:52.104,0.2,-0.105
23:55:52.108,0.215,-0.11
23:55:52.112,0.205,-0.105
23:55:52.116,0.21,-0.095
23:55:52.120,0.225,-0.045
23:55:52.124,0.25,-0.025
23:55:52.128,0.26,0.01
23:55:52.132,0.26,0.055
23:55:52.136,0.26,0.13
23:55:52.140,0.275,0.14
23:55:52.144,0.29,0.165
23:55:52.148,0.3,0.165
23:55:52.152,0.31,0.14
23:55:52.156,0.31,0.12
23:55:52.160,0.295,0.105
23:55:52.164,0.295,0.115
23:55:52.168,0.265,0.095
23:55:52.172,0.265,0.075
23:55:52.176,0.26,0.055
23:55:52.180,0.27,0.055
23:55:52.184,0.27,0.05
23:55:52.188,0.27,0.01
23:55:52.192,0.265,-0.005
23:55:52.196,0.26,-0.02
23:55:52.200,0.25,-0.025
23:55:52.204,0.255,-0.05
23:55:52.208,0.26,-0.075
23:55:52.212,0.235,-0.065
23:55:52.216,0.225,-0.09
23:55:52.220,0.25,-0.09
23:55:52.224,0.225,-0.085
23:55:52.228,0.23,-0.105
23:55:52.232,0.23,-0.125
23:55:52.236,0.235,-0.12
23:55:52.240,0.215,-0.11
23:55:52.244,0.215,-0.125
23:55:52.248,0.21,-0.115
23:55:52.252,0.21,-0.12
23:55:52.256,0.225,-0.155
23:55:52.260,0.235,-0.155
23:55:52.264,0.215,-0.145
23:55:52.268,0.21,-0.14
23:55:52.272,0.225,-0.155
23:55:52.276,0.23,-0.16
23:55:52.280,0.21,-0.145
23:55:52.284,0.22,-0.155
23:55:52.288,0.22,-0.15
23:55:52.292,0.23,-0.155
23:55:52.296,0.2,-0.155
23:55:52.300,0.215,-0.17
23:55:52.304,0.215,-0.17
23:55:52.308,0.22,-0.145
23:55:52.312,0.215,-0.175
23:55:52.316,0.22,-0.19
23:55:52.320,0.225,-0.19
23:55:52.324,0.22,-0.2
23:55:52.328,0.195,-0.2
23:55:52.332,0.2,-0.23
23:55:52.336,0.205,-0.22
23:55:52.340,0.205,-0.215
23:55:52.344,0.22,-0.205
23:55:52.348,0.22,-0.2
23:55:52.352,0.22,-0.21
23:55:52.356,0.24,-0.28
23:55:52.360,0.235,-0.235
23:55:52.364,0.225,-0.175
23:55:52.368,0.23,-0.105
23:55:52.372,0.27,-0.11
23:55:52.376,0.275,-0.11
23:55:52.380,0.265,-0.085
23:55:52.384,0.255,0.05
23:55:52.388,0.265,0.31
23:55:52.392,0.26,0.625
23:55:52.396,0.305,0.87
23:55:52.400,0.35,1.0
23:55:52.404,0.46,0.885
23:55:52.408,0.515,0.57
23:55:52.412,0.51,-0.115
23:55:52.416,0.47,-0.78
23:55:52.420,0.395,-1.165
23:55:52.424,0.245,-1.205
23:55:52.428,0.055,-1.06
23:55:52.432,-0.08,-0.86
23:55:52.436,-0.155,-0.715
23:55:52.440,-0.155,-0.58
23:55:52.444,-0.145,-0.455
23:55:52.448,-0.085,-0.36
23:55:52.452,-0.01,-0.265
23:55:52.456,0.065,-0.235
23:55:52.460,0.11,-0.225
23:55:52.464,0.145,-0.24
23:55:52.468,0.165,-0.215
23:55:52.472,0.145,-0.22
23:55:52.476,0.145,-0.24
23:55:52.480,0.16,-0.245
23:55:52.484,0.155,-0.24
23:55:52.488,0.145,-0.235
23:55:52.492,0.14,-0.21
23:55:52.496,0.15,-0.215
23:55:52.500,0.14,-0.225
23:55:52.504,0.14,-0.235
23:55:52.508,0.15,-0.235
23:55:52.512,0.135,-0.215
23:55:52.516,0.135,-0.22
23:55:52.520,0.145,-0.235
23:55:52.524,0.145,-0.205
23:55:52.528,0.14,-0.21
23:55:52.532,0.15,-0.22
23:55:52.536,0.16,-0.22
23:55:52.540,0.14,-0.23
23:55:52.544,0.15,-0.25
23:55:52.548,0.16,-0.255
23:55:52.552,0.15,-0.235
23:55:52.556,0.155,-0.24
23:55:52.560,0.145,-0.23
23:55:52.564,0.15,-0.24
23:55:52.568,0.18,-0.23
23:55:52.572,0.19,-0.24
23:55:52.576,0.18,-0.235
23:55:52.580,0.19,-0.245
23:55:52.584,0.185,-0.23
23:55:52.588,0.205,-0.2
23:55:52.592,0.185,-0.17
23:55:52.596,0.235,-0.17
23:55:52.600,0.24,-0.18
23:55:52.604,0.225,-0.165
23:55:52.608,0.21,-0.165
23:55:52.612,0.2,-0.18
23:55:52.616,0.2,-0.18
23:55:52.620,0.175,-0.185
23:55:52.624,0.16,-0.215
23:55:52.628,0.165,-0.215
23:55:52.632,0.145,-0.2
23:55:52.636,0.145,-0.17
23:55:52.640,0.14,-0.165
23:55:52.644,0.16,-0.175
23:55:52.648,0.15,-0.145
23:55:52.652,0.165,-0.14
23:55:52.656,0.17,-0.12
23:55:52.660,0.185,-0.095
23:55:52.664,0.18,-0.1
23:55:52.668,0.19,-0.105
23:55:52.672,0.21,-0.085
23:55:52.676,0.19,-0.07
23:55:52.680,0.19,-0.075
23:55:52.684,0.205,-0.085
23:55:52.688,0.2,-0.09
23:55:52.692,0.21,-0.085
23:55:52.696,0.22,-0.095
23:55:52.700,0.225,-0.09
23:55:52.704,0.21,-0.09
23:55:52.708,0.215,-0.105
23:55:52.712,0.215,-0.12
23:55:52.716,0.225,-0.095
23:55:52.720,0.23,-0.105
23:55:52.724,0.235,-0.105
23:55:52.728,0.21,-0.105
23:55:52.732,0.225,-0.1
23:55:52.736,0.23,-0.08
23:55:52.740,0.2,-0.08
23:55:52.744,0.215,-0.085
23:55:52.748,0.215,-0.095
23:55:52.752,0.235,-0.08
23:55:52.756,0.24,-0.05
23:55:52.760,0.24,-0.075
23:55:52.764,0.245,-0.105
23:55:52.768,0.215,-0.12
23:55:52.772,0.18,-0.115
23:55:52.776,0.205,-0.13
23:55:52.780,0.2,-0.11
23:55:52.784,0.195,-0.125
23:55:52.788,0.23,-0.125
23:55:52.792,0.245,-0.145
23:55:52.796,0.23,-0.14
23:55:52.800,0.23,-0.145
23:55:52.804,0.23,-0.155
23:55:52.808,0.24,-0.135
23:55:52.812,0.24,-0.085
23:55:52.816,0.255,-0.06
23:55:52.820,0.28,-0.06
23:55:52.824,0.28,-0.07
23:55:52.828,0.26,-0.085
23:55:52.832,0.22,-0.105
23:55:52.836,0.205,-0.095
23:55:52.840,0.185,-0.1
23:55:52.844,0.185,-0.115
23:55:52.848,0.175,-0.12
23:55:52.852,0.17,-0.115
23:55:52.856,0.18,-0.13
23:55:52.860,0.16,-0.125
23:55:52.864,0.165,-0.145
23:55:52.868,0.155,-0.185
23:55:52.872,0.155,-0.15
23:55:52.876,0.17,0.025
23:55:52.880,0.22,0.315
23:55:52.884,0.24,0.6
23:55:52.888,0.295,0.85
23:55:52.892,0.365,0.9
23:55:52.896,0.435,0.79
23:55:52.900,0.49,0.42
23:55:52.904,0.485,-0.215
23:55:52.908,0.385,-0.8
23:55:52.912,0.255,-1.04
23:55:52.916,0.015,-1.02
23:55:52.920,-0.135,-0.855
23:55:52.924,-0.21,-0.685
23:55:52.928,-0.205,-0.54
23:55:52.932,-0.185,-0.42
23:55:52.936,-0.125,-0.31
23:55:52.940,-0.025,-0.22
23:55:52.944,0.04,-0.195
23:55:52.948,0.115,-0.2
23:55:52.952,0.12,-0.2
23:55:52.956,0.145,-0.205
23:55:52.960,0.15,-0.185
23:55:52.964,0.13,-0.185
23:55:52.968,0.13,-0.2
23:55:52.972,0.15,-0.215
23:55:52.976,0.125,-0.21
23:55:52.980,0.115,-0.215
23:55:52.984,0.13,-0.205
23:55:52.988,0.13,-0.225
23:55:52.992,0.125,-0.22
23:55:52.996,0.11,-0.225
23:55:53.000,0.13,-0.21
23:55:53.004,0.125,-0.2
23:55:53.008,0.145,-0.205
23:55:53.012,0.155,-0.215
23:55:53.016,0.17,-0.225
23:55:53.020,0.15,-0.235
23:55:53.024,0.16,-0.21
23:55:53.028,0.175,-0.18
23:55:53.032,0.2,-0.135
23:55:53.036,0.21,-0.13
23:55:53.040,0.2,-0.12
23:55:53.044,0.19,-0.1
23:55:53.048,0.205,-0.11
23:55:53.052,0.18,-0.12
23:55:53.056,0.155,-0.12
23:55:53.060,0.17,-0.14
23:55:53.064,0.155,-0.125
23:55:53.068,0.125,-0.14
23:55:53.072,0.13,-0.135
23:55:53.076,0.115,-0.145
23:55:53.080,0.125,-0.14
23:55:53.084,0.13,-0.11
23:55:53.088,0.14,-0.12
23:55:53.092,0.15,-0.125
23:55:53.096,0.12,-0.14
23:55:53.100,0.125,-0.14
23:55:53.104,0.135,-0.155
23:55:53.108,0.12,-0.125
23:55:53.112,0.125,-0.125
23:55:53.116,0.14,-0.135
23:55:53.120,0.15,-0.12
23:55:53.124,0.14,-0.105
23:55:53.128,0.155,-0.13
23:55:53.132,0.13,-0.125
23:55:53.136,0.12,-0.13
23:55:53.140,0.115,-0.12
23:55:53.144,0.14,-0.115
23:55:53.148,0.115,-0.12
23:55:53.152,0.115,-0.09
23:55:53.156,0.105,-0.095
23:55:53.160,0.1,-0.1
23:55:53.164,0.085,-0.085
23:55:53.168,0.11,-0.09
23:55:53.172,0.12,-0.095
23:55:53.176,0.15,-0.1
23:55:53.180,0.17,-0.115
23:55:53.184,0.175,-0.125
23:55:53.188,0.165,-0.125
23:55:53.192,0.155,-0.115
23:55:53.196,0.155,-0.13
23:55:53.200,0.15,-0.15
23:55:53.204,0.14,-0.16
23:55:53.208,0.14,-0.165
23:55:53.212,0.13,-0.16
23:55:53.216,0.135,-0.16
23:55:53.220,0.11,-0.17
23:55:53.224,0.12,-0.17
23:55:53.228,0.145,-0.155
23:55:53.232,0.155,-0.15
23:55:53.236,0.14,-0.155
23:55:53.240,0.175,-0.155
23:55:53.244,0.16,-0.16
23:55:53.248,0.175,-0.16
23:55:53.252,0.175,-0.115
23:55:53.256,0.18,-0.09
23:55:53.260,0.16,-0.115
23:55:53.264,0.19,-0.135
23:55:53.268,0.175,-0.14
23:55:53.272,0.14,-0.125
23:55:53.276,0.08,-0.16
23:55:53.280,0.1,-0.195
23:55:53.284,0.08,-0.225
23:55:53.288,0.07,-0.22
23:55:53.292,0.055,-0.22
23:55:53.296,0.06,-0.22
23:55:53.300,0.06,-0.22
23:55:53.304,0.05,-0.235
23:55:53.308,0.065,-0.23
23:55:53.312,0.07,-0.235
23:55:53.316,0.075,-0.22
23:55:53.320,0.08,-0.24
23:55:53.324,0.075,-0.255
23:55:53.328,0.075,-0.26
23:55:53.332,0.065,-0.265
23:55:53.336,0.08,-0.28
23:55:53.340,0.085,-0.28
23:55:53.344,0.1,-0.28
23:55:53.348,0.085,-0.3
23:55:53.352,0.1,-0.295
23:55:53.356,0.105,-0.28
23:55:53.360,0.11,-0.295
23:55:53.364,0.085,-0.3
23:55:53.368,0.045,-0.29
23:55:53.372,0.02,-0.3
23:55:53.376,0.005,-0.28
23:55:53.380,0.005,-0.27
23:55:53.384,0.02,-0.255
23:55:53.388,0.025,-0.275
23:55:53.392,0.015,-0.28
23:55:53.396,0.0,-0.28
23:55:53.400,0.0,-0.28
23:55:53.404,0.01,-0.27
23:55:53.408,0.02,-0.275
23:55:53.412,0.01,-0.25
23:55:53.416,0.0,-0.255
23:55:53.420,-0.005,-0.265
23:55:53.424,-0.055,-0.255
23:55:53.428,-0.09,-0.22
23:55:53.432,-0.07,-0.085
23:55:53.436,-0.04,0.2
23:55:53.440,-0.015,0.52
23:55:53.444,0.04,0.845
23:55:53.448,0.12,1.015
23:55:53.452,0.18,1.0
23:55:53.456,0.25,0.59
23:55:53.460,0.23,-0.195
23:55:53.464,0.16,-0.885
23:55:53.468,0.025,-1.2
23:55:53.472,-0.175,-1.17
23:55:53.476,-0.35,-0.96
23:55:53.480,-0.44,-0.78
23:55:53.484,-0.445,-0.62
23:55:53.488,-0.4,-0.48
23:55:53.492,-0.37,-0.39
23:55:53.496,-0.27,-0.335
23:55:53.500,-0.235,-0.32
23:55:53.504,-0.19,-0.345
23:55:53.508,-0.15,-0.375
23:55:53.512,-0.14,-0.38
23:55:53.516,-0.135,-0.38
23:55:53.520,-0.155,-0.37
23:55:53.524,-0.14,-0.37
23:55:53.528,-0.12,-0.37
23:55:53.532,-0.095,-0.365
23:55:53.536,-0.055,-0.385
23:55:53.540,-0.065,-0.395
23:55:53.544,-0.055,-0.375
23:55:53.548,-0.025,-0.395
23:55:53.552,-0.02,-0.395
23:55:53.556,-0.025,-0.39
23:55:53.560,-0.045,-0.375
23:55:53.564,-0.05,-0.36
23:55:53.568,-0.055,-0.34
23:55:53.572,-0.045,-0.355
23:55:53.576,-0.035,-0.37
23:55:53.580,-0.015,-0.355
23:55:53.584,0.0,-0.34
23:55:53.588,0.015,-0.365
23:55:53.592,0.03,-0.365
23:55:53.596,0.02,-0.355
23:55:53.600,0.01,-0.345
23:55:53.604,0.0,-0.36
23:55:53.608,0.025,-0.36
23:55:53.612,0.02,-0.365
23:55:53.616,0.0,-0.37
23:55:53.620,-0.015,-0.365
23:55:53.624,-0.005,-0.335
23:55:53.628,0.01,-0.325
23:55:53.632,0.015,-0.31
23:55:53.636,0.045,-0.295
23:55:53.640,0.03,-0.305
23:55:53.644,0.015,-0.315
23:55:53.648,0.04,-0.3
23:55:53.652,0.035,-0.3
23:55:53.656,0.01,-0.285
23:55:53.660,0.02,-0.3
23:55:53.664,0.055,-0.265
23:55:53.668,0.07,-0.23
23:55:53.672,0.09,-0.23
23:55:53.676,0.075,-0.245
23:55:53.680,0.08,-0.24
23:55:53.684,0.09,-0.215
23:55:53.688,0.115,-0.18
23:55:53.692,0.1,-0.16
23:55:53.696,0.115,-0.135
23:55:53.700,0.16,-0.105
23:55:53.704,0.175,-0.11
23:55:53.708,0.19,-0.095
23:55:53.712,0.165,-0.085
23:55:53.716,0.135,-0.105
23:55:53.720,0.125,-0.11
23:55:53.724,0.085,-0.11
23:55:53.728,0.06,-0.125
23:55:53.732,0.06,-0.13
23:55:53.736,0.065,-0.14
23:55:53.740,0.085,-0.14
23:55:53.744,0.1,-0.13
23:55:53.748,0.09,-0.12
23:55:53.752,0.105,-0.16
23:55:53.756,0.08,-0.2
23:55:53.760,0.095,-0.22
23:55:53.764,0.09,-0.22
23:55:53.768,0.09,-0.215
23:55:53.772,0.075,-0.2
23:55:53.776,0.075,-0.2
23:55:53.780,0.06,-0.21
23:55:53.784,0.09,-0.21
23:55:53.788,0.07,-0.2
23:55:53.792,0.045,-0.205
23:55:53.796,0.045,-0.215
23:55:53.800,0.04,-0.235
23:55:53.804,0.025,-0.235
23:55:53.808,0.035,-0.225
23:55:53.812,0.04,-0.225
23:55:53.816,0.045,-0.22
23:55:53.820,0.085,-0.235
23:55:53.824,0.08,-0.245
23:55:53.828,0.07,-0.235
23:55:53.832,0.055,-0.215
23:55:53.836,0.055,-0.225
23:55:53.840,0.055,-0.225
23:55:53.844,0.07,-0.21
23:55:53.848,0.11,-0.205
23:55:53.852,0.095,-0.24
23:55:53.856,0.105,-0.275
23:55:53.860,0.08,-0.31
23:55:53.864,0.06,-0.27
23:55:53.868,0.075,-0.145
23:55:53.872,0.125,0.095
23:55:53.876,0.17,0.41
23:55:53.880,0.22,0.73
23:55:53.884,0.29,0.87
23:55:53.888,0.39,0.83
23:55:53.892,0.45,0.625
23:55:53.896,0.445,0.015
23:55:53.900,0.365,-0.705
23:55:53.904,0.22,-1.115
23:55:53.908,0.035,-1.17
23:55:53.912,-0.14,-1.02
23:55:53.916,-0.245,-0.84
23:55:53.920,-0.24,-0.645
23:55:53.924,-0.2,-0.48
23:55:53.928,-0.15,-0.345
23:55:53.932,-0.06,-0.27
23:55:53.936,0.025,-0.24
23:55:53.940,0.075,-0.22
23:55:53.944,0.115,-0.255
23:55:53.948,0.12,-0.26
23:55:53.952,0.135,-0.29
23:55:53.956,0.095,-0.29
23:55:53.960,0.08,-0.295
23:55:53.964,0.065,-0.3
23:55:53.968,0.045,-0.31
23:55:53.972,0.065,-0.305
23:55:53.976,0.075,-0.295
23:55:53.980,0.06,-0.28
23:55:53.984,0.085,-0.305
23:55:53.988,0.11,-0.31
23:55:53.992,0.105,-0.295
23:55:53.996,0.105,-0.28
23:55:54.000,0.115,-0.29
23:55:54.004,0.12,-0.295
23:55:54.008,0.115,-0.29
23:55:54.012,0.115,-0.295
23:55:54.016,0.135,-0.285
23:55:54.020,0.11,-0.265
23:55:54.024,0.1,-0.285
23:55:54.028,0.095,-0.29
23:55:54.032,0.105,-0.28
23:55:54.036,0.095,-0.27
23:55:54.040,0.105,-0.265
23:55:54.044,0.115,-0.26
23:55:54.048,0.085,-0.27
23:55:54.052,0.095,-0.28
23:55:54.056,0.075,-0.26
23:55:54.060,0.09,-0.24
23:55:54.064,0.1,-0.245
23:55:54.068,0.11,-0.23
23:55:54.072,0.11,-0.225
23:55:54.076,0.125,-0.2
23:55:54.080,0.145,-0.21
23:55:54.084,0.15,-0.21
23:55:54.088,0.145,-0.21
23:55:54.092,0.14,-0.225
23:55:54.096,0.155,-0.215
23:55:54.100,0.18,-0.22
23:55:54.104,0.155,-0.195
23:55:54.108,0.11,-0.185
23:55:54.112,0.115,-0.185
23:55:54.116,0.11,-0.15
23:55:54.120,0.14,-0.12
23:55:54.124,0.155,-0.11
23:55:54.128,0.17,-0.11
23:55:54.132,0.165,-0.07
23:55:54.136,0.18,-0.09
23:55:54.140,0.18,-0.07
23:55:54.144,0.21,-0.05
23:55:54.148,0.215,-0.05
23:55:54.152,0.25,-0.04
23:55:54.156,0.27,-0.05
23:55:54.160,0.27,-0.075
23:55:54.164,0.28,-0.08
23:55:54.168,0.25,-0.11
23:55:54.172,0.24,-0.115
23:55:54.176,0.22,-0.135
23:55:54.180,0.225,-0.16
23:55:54.184,0.225,-0.17
23:55:54.188,0.205,-0.18
23:55:54.192,0.205,-0.17
23:55:54.196,0.165,-0.175
23:55:54.200,0.16,-0.185
23:55:54.204,0.135,-0.18
23:55:54.208,0.145,-0.17
23:55:54.212,0.15,-0.175
23:55:54.216,0.13,-0.18
23:55:54.220,0.145,-0.195
23:55:54.224,0.125,-0.19
23:55:54.228,0.11,-0.16
23:55:54.232,0.105,-0.18
23:55:54.236,0.1,-0.195
23:55:54.240,0.095,-0.195
23:55:54.244,0.125,-0.195
23:55:54.248,0.11,-0.2
23:55:54.252,0.07,-0.19
23:55:54.256,0.075,-0.215
23:55:54.260,0.1,-0.215
23:55:54.264,0.075,-0.22
23:55:54.268,0.085,-0.22
23:55:54.272,0.1,-0.22
23:55:54.276,0.105,-0.23
23:55:54.280,0.085,-0.22
23:55:54.284,0.095,-0.24
23:55:54.288,0.07,-0.22
23:55:54.292,0.06,-0.22
23:55:54.296,0.07,-0.23
23:55:54.300,0.065,-0.24
23:55:54.304,0.07,-0.235
23:55:54.308,0.07,-0.215
23:55:54.312,0.08,-0.22
23:55:54.316,0.085,-0.22
23:55:54.320,0.1,-0.22
23:55:54.324,0.095,-0.23
23:55:54.328,0.08,-0.245
23:55:54.332,0.08,-0.235
23:55:54.336,0.05,-0.23
23:55:54.340,0.05,-0.235
23:55:54.344,0.06,-0.22
23:55:54.348,0.075,-0.145
23:55:54.352,0.095,0.015
23:55:54.356,0.105,0.295
23:55:54.360,0.125,0.635
23:55:54.364,0.17,0.95
23:55:54.368,0.28,1.095
23:55:54.372,0.405,0.99
23:55:54.376,0.47,0.585
23:55:54.380,0.455,-0.105
23:55:54.384,0.405,-0.78
23:55:54.388,0.26,-1.07
23:55:54.392,0.06,-1.11
23:55:54.396,-0.115,-0.965
23:55:54.400,-0.245,-0.815
23:55:54.404,-0.315,-0.665
23:55:54.408,-0.305,-0.525
23:55:54.412,-0.3,-0.41
23:55:54.416,-0.225,-0.34
23:55:54.420,-0.165,-0.26
23:55:54.424,-0.085,-0.25
23:55:54.428,-0.03,-0.24
23:55:54.432,0.01,-0.24
23:55:54.436,0.005,-0.24
23:55:54.440,0.005,-0.27
23:55:54.444,-0.005,-0.26
23:55:54.448,0.005,-0.25
23:55:54.452,0.005,-0.24
23:55:54.456,-0.02,-0.25
23:55:54.460,-0.025,-0.25
23:55:54.464,0.0,-0.275
23:55:54.468,-0.01,-0.255
23:55:54.472,0.0,-0.245
23:55:54.476,0.005,-0.26
23:55:54.480,0.03,-0.27
23:55:54.484,0.0,-0.27
23:55:54.488,0.0,-0.27
23:55:54.492,0.0,-0.265
23:55:54.496,0.01,-0.25
23:55:54.500,0.025,-0.245
23:55:54.504,0.015,-0.265
23:55:54.508,0.035,-0.265
23:55:54.512,0.02,-0.245
23:55:54.516,0.03,-0.25
23:55:54.520,0.03,-0.245
23:55:54.524,0.025,-0.24
23:55:54.528,0.025,-0.24
23:55:54.532,0.035,-0.23
23:55:54.536,0.015,-0.215
23:55:54.540,0.03,-0.25
23:55:54.544,0.03,-0.255
23:55:54.548,-0.01,-0.27
23:55:54.552,0.015,-0.255
23:55:54.556,0.015,-0.24
23:55:54.560,0.03,-0.24
23:55:54.564,0.04,-0.215
23:55:54.568,0.035,-0.23
23:55:54.572,0.045,-0.225
23:55:54.576,0.035,-0.215
23:55:54.580,0.045,-0.2
23:55:54.584,0.075,-0.21
23:55:54.588,0.075,-0.205
23:55:54.592,0.08,-0.15
23:55:54.596,0.1,-0.12
23:55:54.600,0.125,-0.12
23:55:54.604,0.105,-0.095
23:55:54.608,0.095,-0.115
23:55:54.612,0.09,-0.12
23:55:54.616,0.075,-0.11
23:55:54.620,0.04,-0.095
23:55:54.624,0.05,-0.13
23:55:54.628,0.06,-0.135
23:55:54.632,0.07,-0.13
23:55:54.636,0.05,-0.115
23:55:54.640,0.05,-0.12
23:55:54.644,0.06,-0.13
23:55:54.648,0.075,-0.145
23:55:54.652,0.05,-0.16
23:55:54.656,0.035,-0.16
23:55:54.660,0.045,-0.15
23:55:54.664,0.055,-0.145
23:55:54.668,0.075,-0.16
23:55:54.672,0.065,-0.16
23:55:54.676,0.055,-0.17
23:55:54.680,0.06,-0.175
23:55:54.684,0.06,-0.15
23:55:54.688,0.075,-0.16
23:55:54.692,0.065,-0.175
23:55:54.696,0.055,-0.16
23:55:54.700,0.06,-0.155
23:55:54.704,0.07,-0.14
23:55:54.708,0.065,-0.135
23:55:54.712,0.07,-0.13
23:55:54.716,0.085,-0.14
23:55:54.720,0.09,-0.135
23:55:54.724,0.09,-0.125
23:55:54.728,0.11,-0.135
23:55:54.732,0.07,-0.145
23:55:54.736,0.06,-0.14
23:55:54.740,0.07,-0.13
23:55:54.744,0.07,-0.135
23:55:54.748,0.075,-0.12
23:55:54.752,0.085,-0.135
23:55:54.756,0.085,-0.13
23:55:54.760,0.075,-0.165
23:55:54.764,0.11,-0.215
23:55:54.768,0.125,-0.245
23:55:54.772,0.07,-0.165
23:55:54.776,0.075,0.015
23:55:54.780,0.135,0.29
23:55:54.784,0.185,0.605
23:55:54.788,0.25,0.775
23:55:54.792,0.355,0.695
23:55:54.796,0.385,0.495
23:55:54.800,0.37,0.1
23:55:54.804,0.285,-0.465
23:55:54.808,0.145,-0.855
23:55:54.812,-0.05,-0.96
23:55:54.816,-0.2,-0.89
23:55:54.820,-0.24,-0.67
23:55:54.824,-0.245,-0.48
23:55:54.828,-0.2,-0.34
23:55:54.832,-0.12,-0.235
23:55:54.836,-0.025,-0.185
23:55:54.840,0.035,-0.2
23:55:54.844,0.07,-0.21
23:55:54.848,0.095,-0.225
23:55:54.852,0.085,-0.23
23:55:54.856,0.105,-0.245
23:55:54.860,0.09,-0.26
23:55:54.864,0.075,-0.25
23:55:54.868,0.045,-0.26
23:55:54.872,0.025,-0.26
23:55:54.876,0.05,-0.28
23:55:54.880,0.045,-0.285
23:55:54.884,0.03,-0.275
23:55:54.888,0.045,-0.28
23:55:54.892,0.045,-0.28
23:55:54.896,0.055,-0.275
23:55:54.900,0.055,-0.285
23:55:54.904,0.04,-0.285
23:55:54.908,0.05,-0.265
23:55:54.912,0.045,-0.28
23:55:54.916,0.06,-0.275
23:55:54.920,0.045,-0.275
23:55:54.924,0.03,-0.27
23:55:54.928,0.055,-0.265
23:55:54.932,0.05,-0.245
23:55:54.936,0.07,-0.26
23:55:54.940,0.055,-0.27
23:55:54.944,0.065,-0.24
23:55:54.948,0.07,-0.23
23:55:54.952,0.065,-0.24
23:55:54.956,0.07,-0.255
23:55:54.960,0.07,-0.24
23:55:54.964,0.075,-0.22
23:55:54.968,0.08,-0.23
23:55:54.972,0.09,-0.225
23:55:54.976,0.1,-0.2
23:55:54.980,0.075,-0.225
23:55:54.984,0.085,-0.23
23:55:54.988,0.075,-0.225
23:55:54.992,0.075,-0.21
23:55:54.996,0.09,-0.21
23:55:55.000,0.095,-0.22
23:55:55.004,0.085,-0.225
23:55:55.008,0.11,-0.195
23:55:55.012,0.08,-0.175
23:55:55.016,0.08,-0.15
23:55:55.020,0.105,-0.16
23:55:55.024,0.13,-0.125
23:55:55.028,0.135,-0.115
23:55:55.032,0.14,-0.12
23:55:55.036,0.145,-0.105
23:55:55.040,0.135,-0.05
23:55:55.044,0.185,-0.045
23:55:55.048,0.205,-0.03
23:55:55.052,0.195,-0.04
23:55:55.056,0.17,-0.06
23:55:55.060,0.14,-0.07
23:55:55.064,0.135,-0.095
23:55:55.068,0.13,-0.13
23:55:55.072,0.12,-0.135
23:55:55.076,0.12,-0.165
23:55:55.080,0.08,-0.165
23:55:55.084,0.07,-0.18
23:55:55.088,0.08,-0.175
23:55:55.092,0.1,-0.175
23:55:55.096,0.075,-0.19
23:55:55.100,0.09,-0.215
23:55:55.104,0.095,-0.2
23:55:55.108,0.085,-0.205
23:55:55.112,0.07,-0.195
23:55:55.116,0.075,-0.2
23:55:55.120,0.06,-0.21
23:55:55.124,0.075,-0.195
23:55:55.128,0.065,-0.2
23:55:55.132,0.08,-0.215
23:55:55.136,0.075,-0.195
23:55:55.140,0.055,-0.2
23:55:55.144,0.055,-0.22
23:55:55.148,0.045,-0.23
23:55:55.152,0.04,-0.215
23:55:55.156,0.07,-0.22
23:55:55.160,0.07,-0.22
23:55:55.164,0.07,-0.23
23:55:55.168,0.065,-0.23
23:55:55.172,0.06,-0.225
23:55:55.176,0.07,-0.22
23:55:55.180,0.06,-0.24
23:55:55.184,0.07,-0.25
23:55:55.188,0.055,-0.245
23:55:55.192,0.055,-0.235
23:55:55.196,0.075,-0.24
23:55:55.200,0.07,-0.23
23:55:55.204,0.07,-0.235
23:55:55.208,0.08,-0.265
23:55:55.212,0.095,-0.26
23:55:55.216,0.08,-0.26
23:55:55.220,0.06,-0.275
23:55:55.224,0.045,-0.28
23:55:55.228,0.045,-0.295
23:55:55.232,0.045,-0.27
23:55:55.236,0.06,-0.27
23:55:55.240,0.05,-0.275
23:55:55.244,0.065,-0.285
23:55:55.248,0.1,-0.29
23:55:55.252,0.1,-0.335
23:55:55.256,0.08,-0.325
23:55:55.260,0.075,-0.275
23:55:55.264,0.06,-0.21
23:55:55.268,0.13,-0.2
23:55:55.272,0.165,-0.185
23:55:55.276,0.175,-0.2
23:55:55.280,0.175,-0.185
23:55:55.284,0.145,-0.18
23:55:55.288,0.105,-0.175
23:55:55.292,0.1,-0.21
23:55:55.296,0.1,-0.22
23:55:55.300,0.085,-0.205
23:55:55.304,0.09,-0.19
23:55:55.308,0.09,-0.22
23:55:55.312,0.095,-0.165
23:55:55.316,0.095,-0.065
23:55:55.320,0.115,0.165
23:55:55.324,0.155,0.455
23:55:55.328,0.16,0.76
23:55:55.332,0.225,0.94
23:55:55.336,0.305,0.925
23:55:55.340,0.38,0.74
23:55:55.344,0.41,0.295
23:55:55.348,0.41,-0.42
23:55:55.352,0.36,-0.99
23:55:55.356,0.22,-1.195
23:55:55.360,-0.005,-1.155
23:55:55.364,-0.165,-0.955
23:55:55.368,-0.265,-0.81
23:55:55.372,-0.3,-0.66
23:55:55.376,-0.275,-0.56
23:55:55.380,-0.225,-0.45
23:55:55.384,-0.135,-0.34
23:55:55.388,-0.05,-0.3
23:55:55.392,0.035,-0.305
23:55:55.396,0.065,-0.3
23:55:55.400,0.055,-0.285
23:55:55.404,0.08,-0.275
23:55:55.408,0.075,-0.275
23:55:55.412,0.09,-0.285
23:55:55.416,0.095,-0.31
23:55:55.420,0.09,-0.315
23:55:55.424,0.06,-0.29
23:55:55.428,0.04,-0.295
23:55:55.432,0.06,-0.32
23:55:55.436,0.08,-0.315
23:55:55.440,0.06,-0.31
23:55:55.444,0.07,-0.305
23:55:55.448,0.055,-0.32
23:55:55.452,0.04,-0.3
23:55:55.456,0.055,-0.295
23:55:55.460,0.085,-0.28
23:55:55.464,0.07,-0.285
23:55:55.468,0.09,-0.305
23:55:55.472,0.085,-0.295
23:55:55.476,0.085,-0.31
23:55:55.480,0.075,-0.31
23:55:55.484,0.11,-0.26
23:55:55.488,0.105,-0.205
23:55:55.492,0.13,-0.185
23:55:55.496,0.15,-0.185
23:55:55.500,0.175,-0.185
23:55:55.504,0.135,-0.175
23:55:55.508,0.145,-0.19
23:55:55.512,0.13,-0.19
23:55:55.516,0.11,-0.185
23:55:55.520,0.085,-0.195
23:55:55.524,0.06,-0.185
23:55:55.528,0.075,-0.18
23:55:55.532,0.045,-0.185
23:55:55.536,0.045,-0.19
23:55:55.540,0.075,-0.195
23:55:55.544,0.08,-0.17
23:55:55.548,0.065,-0.17
23:55:55.552,0.06,-0.17
23:55:55.556,0.065,-0.155
23:55:55.560,0.065,-0.14
23:55:55.564,0.09,-0.145
23:55:55.568,0.075,-0.145
23:55:55.572,0.09,-0.13
23:55:55.576,0.055,-0.135
23:55:55.580,0.09,-0.12
23:55:55.584,0.095,-0.11
23:55:55.588,0.105,-0.09
23:55:55.592,0.105,-0.065
23:55:55.596,0.1,-0.1
23:55:55.600,0.09,-0.075
23:55:55.604,0.115,-0.08
23:55:55.608,0.115,-0.075
23:55:55.612,0.11,-0.11
23:55:55.616,0.115,-0.1
23:55:55.620,0.145,-0.12
23:55:55.624,0.13,-0.115
23:55:55.628,0.13,-0.13
23:55:55.632,0.14,-0.14
23:55:55.636,0.145,-0.155
23:55:55.640,0.14,-0.16
23:55:55.644,0.14,-0.17
23:55:55.648,0.145,-0.16
23:55:55.652,0.155,-0.155
23:55:55.656,0.16,-0.16
23:55:55.660,0.17,-0.175
23:55:55.664,0.15,-0.175
23:55:55.668,0.15,-0.18
23:55:55.672,0.135,-0.18
23:55:55.676,0.125,-0.195
23:55:55.680,0.095,-0.175
23:55:55.684,0.11,-0.15
23:55:55.688,0.16,-0.155
23:55:55.692,0.18,-0.145
23:55:55.696,0.165,-0.13
23:55:55.700,0.165,-0.14
23:55:55.704,0.17,-0.145
23:55:55.708,0.19,-0.145
23:55:55.712,0.19,-0.12
23:55:55.716,0.22,-0.095
23:55:55.720,0.23,-0.09
23:55:55.724,0.235,-0.11
23:55:55.728,0.24,-0.11
23:55:55.732,0.215,-0.1
23:55:55.736,0.19,-0.12
23:55:55.740,0.165,-0.125
23:55:55.744,0.165,-0.155
23:55:55.748,0.155,-0.16
23:55:55.752,0.145,-0.165
23:55:55.756,0.135,-0.175
23:55:55.760,0.14,-0.175
23:55:55.764,0.13,-0.195
23:55:55.768,0.135,-0.2
23:55:55.772,0.155,-0.22
23:55:55.776,0.135,-0.22
23:55:55.780,0.105,-0.2
23:55:55.784,0.11,-0.19
23:55:55.788,0.115,-0.21
23:55:55.792,0.11,-0.21
23:55:55.796,0.115,-0.21
23:55:55.800,0.1,-0.225
23:55:55.804,0.1,-0.225
23:55:55.808,0.105,-0.245
23:55:55.812,0.115,-0.22
23:55:55.816,0.11,-0.23
23:55:55.820,0.105,-0.23
23:55:55.824,0.12,-0.24
23:55:55.828,0.115,-0.245
23:55:55.832,0.11,-0.245
23:55:55.836,0.11,-0.245
23:55:55.840,0.1,-0.25
23:55:55.844,0.105,-0.235
23:55:55.848,0.105,-0.25
23:55:55.852,0.09,-0.265
23:55:55.856,0.085,-0.235
23:55:55.860,0.085,-0.225
23:55:55.864,0.12,-0.25
23:55:55.868,0.105,-0.24
23:55:55.872,0.09,-0.25
