Time,ECG1,ECG2
23:57:36.596,0.025,-0.135
23:57:36.600,0.03,-0.12
23:57:36.604,0.015,-0.15
23:57:36.608,0.03,-0.145
23:57:36.612,0.03,-0.135
23:57:36.616,0.03,-0.14
23:57:36.620,0.04,-0.15
23:57:36.624,0.035,-0.145
23:57:36.628,0.03,-0.155
23:57:36.632,0.01,-0.155
23:57:36.636,0.03,-0.16
23:57:36.640,0.025,-0.14
23:57:36.644,0.025,-0.145
23:57:36.648,0.02,-0.14
23:57:36.652,0.035,-0.135
23:57:36.656,0.06,-0.125
23:57:36.660,0.045,-0.12
23:57:36.664,0.075,-0.17
23:57:36.668,0.07,-0.185
23:57:36.672,0.07,-0.23
23:57:36.676,0.065,-0.19
23:57:36.680,0.05,-0.04
23:57:36.684,0.09,0.195
23:57:36.688,0.135,0.475
23:57:36.692,0.17,0.735
23:57:36.696,0.255,0.8
23:57:36.700,0.345,0.65
23:57:36.704,0.4,0.2
23:57:36.708,0.34,-0.485
23:57:36.712,0.205,-1.0
23:57:36.716,0.045,-1.12
23:57:36.720,-0.13,-0.975
23:57:36.724,-0.25,-0.78
23:57:36.728,-0.28,-0.615
23:57:36.732,-0.24,-0.445
23:57:36.736,-0.19,-0.325
23:57:36.740,-0.125,-0.235
23:57:36.744,-0.04,-0.18
23:57:36.748,-0.015,-0.19
23:57:36.752,0.05,-0.195
23:57:36.756,0.065,-0.215
23:57:36.760,0.045,-0.21
23:57:36.764,0.035,-0.225
23:57:36.768,0.055,-0.225
23:57:36.772,0.04,-0.235
23:57:36.776,0.055,-0.2
23:57:36.780,0.055,-0.215
23:57:36.784,0.035,-0.22
23:57:36.788,0.05,-0.215
23:57:36.792,0.045,-0.205
23:57:36.796,0.045,-0.2
23:57:36.800,0.05,-0.205
23:57:36.804,0.035,-0.21
23:57:36.808,0.025,-0.22
23:57:36.812,0.04,-0.205
23:57:36.816,0.03,-0.2
23:57:36.820,0.035,-0.2
23:57:36.824,0.04,-0.205
23:57:36.828,0.03,-0.195
23:57:36.832,0.035,-0.19
23:57:36.836,0.02,-0.205
23:57:36.840,0.03,-0.18
23:57:36.844,0.02,-0.155
23:57:36.848,0.03,-0.17
23:57:36.852,0.035,-0.165
23:57:36.856,0.05,-0.17
23:57:36.860,0.025,-0.155
23:57:36.864,0.03,-0.14
23:57:36.868,0.03,-0.14
23:57:36.872,0.045,-0.125
23:57:36.876,0.045,-0.125
23:57:36.880,0.06,-0.115
23:57:36.884,0.065,-0.115
23:57:36.888,0.05,-0.12
23:57:36.892,0.05,-0.125
23:57:36.896,0.055,-0.135
23:57:36.900,0.03,-0.12
23:57:36.904,0.045,-0.115
23:57:36.908,0.055,-0.1
23:57:36.912,0.055,-0.07
23:57:36.916,0.055,-0.07
23:57:36.920,0.075,-0.04
23:57:36.924,0.075,-0.045
23:57:36.928,0.095,-0.025
23:57:36.932,0.1,-0.045
23:57:36.936,0.115,-0.025
23:57:36.940,0.125,-0.015
23:57:36.944,0.14,0.02
23:57:36.948,0.145,0.0
23:57:36.952,0.185,0.0
23:57:36.956,0.18,-0.025
23:57:36.960,0.175,-0.05
23:57:36.964,0.145,-0.05
23:57:36.968,0.12,-0.07
23:57:36.972,0.085,-0.09
23:57:36.976,0.08,-0.115
23:57:36.980,0.06,-0.13
23:57:36.984,0.04,-0.12
23:57:36.988,0.035,-0.14
23:57:36.992,0.035,-0.14
23:57:36.996,0.03,-0.14
23:57:37.000,0.03,-0.145
23:57:37.004,0.04,-0.13
23:57:37.008,0.035,-0.12
23:57:37.012,0.03,-0.135
23:57:37.016,0.03,-0.15
23:57:37.020,0.03,-0.15
23:57:37.024,0.04,-0.14
23:57:37.028,0.015,-0.15
23:57:37.032,0.02,-0.145
23:57:37.036,0.02,-0.16
23:57:37.040,0.015,-0.16
23:57:37.044,0.025,-0.155
23:57:37.048,0.015,-0.145
23:57:37.052,0.02,-0.155
23:57:37.056,0.025,-0.16
23:57:37.060,0.02,-0.16
23:57:37.064,0.01,-0.175
23:57:37.068,0.025,-0.155
23:57:37.072,0.01,-0.17
23:57:37.076,0.035,-0.15
23:57:37.080,0.045,-0.165
23:57:37.084,0.035,-0.17
23:57:37.088,0.025,-0.145
23:57:37.092,0.03,-0.16
23:57:37.096,0.03,-0.175
23:57:37.100,0.03,-0.195
23:57:37.104,0.03,-0.175
23:57:37.108,0.02,-0.08
23:57:37.112,0.075,0.14
23:57:37.116,0.095,0.425
23:57:37.120,0.135,0.675
23:57:37.124,0.19,0.805
23:57:37.128,0.265,0.72
23:57:37.132,0.35,0.395
23:57:37.136,0.34,-0.235
23:57:37.140,0.285,-0.83
23:57:37.144,0.19,-1.11
23:57:37.148,0.04,-1.14
23:57:37.152,-0.11,-1.01
23:57:37.156,-0.235,-0.85
23:57:37.160,-0.26,-0.665
23:57:37.164,-0.24,-0.49
23:57:37.168,-0.175,-0.35
23:57:37.172,-0.11,-0.235
23:57:37.176,-0.02,-0.175
23:57:37.180,0.02,-0.19
23:57:37.184,0.03,-0.21
23:57:37.188,0.02,-0.235
23:57:37.192,0.03,-0.23
23:57:37.196,-0.02,-0.235
23:57:37.200,-0.02,-0.235
23:57:37.204,-0.025,-0.23
23:57:37.208,-0.015,-0.23
23:57:37.212,-0.04,-0.22
23:57:37.216,-0.025,-0.22
23:57:37.220,-0.035,-0.23
23:57:37.224,-0.02,-0.235
23:57:37.228,-0.03,-0.24
23:57:37.232,-0.035,-0.22
23:57:37.236,-0.04,-0.23
23:57:37.240,-0.025,-0.245
23:57:37.244,-0.03,-0.22
23:57:37.248,-0.03,-0.23
23:57:37.252,-0.03,-0.21
23:57:37.256,-0.03,-0.205
23:57:37.260,-0.05,-0.22
23:57:37.264,-0.045,-0.23
23:57:37.268,-0.03,-0.205
23:57:37.272,-0.035,-0.195
23:57:37.276,-0.03,-0.19
23:57:37.280,-0.04,-0.18
23:57:37.284,-0.04,-0.2
23:57:37.288,-0.03,-0.185
23:57:37.292,-0.035,-0.19
23:57:37.296,-0.025,-0.175
23:57:37.300,-0.035,-0.175
23:57:37.304,-0.03,-0.155
23:57:37.308,-0.025,-0.14
23:57:37.312,-0.015,-0.16
23:57:37.316,-0.005,-0.14
23:57:37.320,-0.01,-0.115
23:57:37.324,0.0,-0.105
23:57:37.328,0.025,-0.115
23:57:37.332,0.005,-0.115
23:57:37.336,0.01,-0.095
23:57:37.340,-0.01,-0.08
23:57:37.344,0.005,-0.075
23:57:37.348,-0.01,-0.06
23:57:37.352,0.015,-0.05
23:57:37.356,0.02,-0.035
23:57:37.360,0.055,-0.045
23:57:37.364,0.07,-0.035
23:57:37.368,0.065,-0.06
23:57:37.372,0.065,-0.065
23:57:37.376,0.065,-0.05
23:57:37.380,0.085,-0.065
23:57:37.384,0.1,-0.05
23:57:37.388,0.095,-0.075
23:57:37.392,0.12,-0.065
23:57:37.396,0.11,-0.085
23:57:37.400,0.105,-0.09
23:57:37.404,0.075,-0.09
23:57:37.408,0.07,-0.12
23:57:37.412,0.045,-0.145
23:57:37.416,0.045,-0.13
23:57:37.420,0.005,-0.14
23:57:37.424,0.005,-0.15
23:57:37.428,0.005,-0.15
23:57:37.432,0.0,-0.145
23:57:37.436,0.0,-0.14
23:57:37.440,0.0,-0.12
23:57:37.444,0.0,-0.13
23:57:37.448,0.005,-0.145
23:57:37.452,0.01,-0.17
23:57:37.456,0.005,-0.145
23:57:37.460,0.01,-0.135
23:57:37.464,0.0,-0.145
23:57:37.468,0.0,-0.145
23:57:37.472,0.0,-0.15
23:57:37.476,-0.005,-0.155
23:57:37.480,0.0,-0.145
23:57:37.484,0.0,-0.145
23:57:37.488,0.005,-0.17
23:57:37.492,0.005,-0.18
23:57:37.496,0.015,-0.175
23:57:37.500,0.01,-0.185
23:57:37.504,0.0,-0.2
23:57:37.508,0.0,-0.19
23:57:37.512,0.0,-0.195
23:57:37.516,0.0,-0.19
23:57:37.520,0.015,-0.2
23:57:37.524,0.0,-0.2
23:57:37.528,0.0,-0.19
23:57:37.532,0.0,-0.205
23:57:37.536,0.005,-0.205
23:57:37.540,0.01,-0.18
23:57:37.544,0.005,-0.175
23:57:37.548,0.015,-0.195
23:57:37.552,0.03,-0.21
23:57:37.556,0.01,-0.22
23:57:37.560,0.015,-0.225
23:57:37.564,0.01,-0.22
23:57:37.568,-0.005,-0.215
23:57:37.572,-0.025,-0.23
23:57:37.576,0.015,-0.225
23:57:37.580,0.01,-0.235
23:57:37.584,0.0,-0.22
23:57:37.588,0.04,-0.26
23:57:37.592,0.04,-0.29
23:57:37.596,0.05,-0.245
23:57:37.600,0.045,-0.19
23:57:37.604,0.065,-0.155
23:57:37.608,0.075,-0.155
23:57:37.612,0.085,-0.155
23:57:37.616,0.085,-0.175
23:57:37.620,0.065,-0.155
23:57:37.624,0.035,-0.185
23:57:37.628,0.02,-0.175
23:57:37.632,0.0,-0.185
23:57:37.636,0.0,-0.205
23:57:37.640,0.005,-0.205
23:57:37.644,-0.005,-0.205
23:57:37.648,-0.015,-0.185
23:57:37.652,0.0,-0.215
23:57:37.656,0.015,-0.215
23:57:37.660,0.0,-0.2
23:57:37.664,0.005,-0.185
23:57:37.668,0.03,-0.2
23:57:37.672,0.005,-0.2
23:57:37.676,0.0,-0.205
23:57:37.680,0.005,-0.215
23:57:37.684,0.02,-0.19
23:57:37.688,0.02,-0.175
23:57:37.692,0.015,-0.195
23:57:37.696,0.025,-0.17
23:57:37.700,0.03,-0.075
23:57:37.704,0.055,0.1
23:57:37.708,0.065,0.36
23:57:37.712,0.085,0.645
23:57:37.716,0.125,0.82
23:57:37.720,0.215,0.77
23:57:37.724,0.325,0.55
23:57:37.728,0.35,0.1
23:57:37.732,0.345,-0.525
23:57:37.736,0.295,-0.99
23:57:37.740,0.17,-1.155
23:57:37.744,0.015,-1.1
23:57:37.748,-0.18,-0.925
23:57:37.752,-0.27,-0.785
23:57:37.756,-0.3,-0.615
23:57:37.760,-0.27,-0.47
23:57:37.764,-0.245,-0.37
23:57:37.768,-0.16,-0.29
23:57:37.772,-0.09,-0.245
23:57:37.776,-0.04,-0.25
23:57:37.780,0.005,-0.25
23:57:37.784,0.0,-0.26
23:57:37.788,-0.01,-0.245
23:57:37.792,0.015,-0.25
23:57:37.796,-0.005,-0.25
23:57:37.800,0.015,-0.26
23:57:37.804,0.04,-0.27
23:57:37.808,0.04,-0.265
23:57:37.812,0.04,-0.27
23:57:37.816,0.035,-0.27
23:57:37.820,0.045,-0.235
23:57:37.824,0.06,-0.21
23:57:37.828,0.08,-0.185
23:57:37.832,0.1,-0.19
23:57:37.836,0.095,-0.205
23:57:37.840,0.065,-0.215
23:57:37.844,0.03,-0.225
23:57:37.848,0.01,-0.245
23:57:37.852,-0.01,-0.24
23:57:37.856,-0.015,-0.225
23:57:37.860,-0.03,-0.24
23:57:37.864,-0.025,-0.235
23:57:37.868,-0.01,-0.215
23:57:37.872,-0.025,-0.22
23:57:37.876,-0.005,-0.21
23:57:37.880,-0.025,-0.215
23:57:37.884,0.0,-0.22
23:57:37.888,-0.015,-0.225
23:57:37.892,-0.01,-0.205
23:57:37.896,0.0,-0.2
23:57:37.900,0.0,-0.225
23:57:37.904,-0.005,-0.22
23:57:37.908,-0.01,-0.21
23:57:37.912,0.0,-0.22
23:57:37.916,0.0,-0.22
23:57:37.920,0.0,-0.205
23:57:37.924,-0.015,-0.23
23:57:37.928,-0.01,-0.235
23:57:37.932,-0.005,-0.22
23:57:37.936,0.0,-0.21
23:57:37.940,0.0,-0.22
23:57:37.944,-0.015,-0.22
23:57:37.948,-0.01,-0.2
23:57:37.952,-0.01,-0.18
23:57:37.956,0.015,-0.165
23:57:37.960,0.015,-0.16
23:57:37.964,0.0,-0.155
23:57:37.968,0.0,-0.125
23:57:37.972,0.035,-0.115
23:57:37.976,0.02,-0.12
23:57:37.980,0.045,-0.125
23:57:37.984,0.065,-0.125
23:57:37.988,0.045,-0.11
23:57:37.992,0.05,-0.135
23:57:37.996,0.065,-0.13
23:57:38.000,0.04,-0.15
23:57:38.004,0.015,-0.165
23:57:38.008,0.025,-0.18
23:57:38.012,0.045,-0.16
23:57:38.016,0.025,-0.145
23:57:38.020,0.045,-0.14
23:57:38.024,0.06,-0.14
23:57:38.028,0.065,-0.135
23:57:38.032,0.07,-0.14
23:57:38.036,0.08,-0.12
23:57:38.040,0.095,-0.115
23:57:38.044,0.11,-0.1
23:57:38.048,0.12,-0.08
23:57:38.052,0.125,-0.055
23:57:38.056,0.125,-0.04
23:57:38.060,0.125,-0.045
23:57:38.064,0.105,-0.05
23:57:38.068,0.075,-0.07
23:57:38.072,0.045,-0.08
23:57:38.076,0.015,-0.09
23:57:38.080,0.005,-0.095
23:57:38.084,0.0,-0.09
23:57:38.088,0.0,-0.095
23:57:38.092,0.0,-0.09
23:57:38.096,0.01,-0.105
23:57:38.100,0.0,-0.085
23:57:38.104,0.02,-0.1
23:57:38.108,0.015,-0.125
23:57:38.112,0.01,-0.125
23:57:38.116,0.005,-0.135
23:57:38.120,0.01,-0.11
23:57:38.124,0.0,-0.12
23:57:38.128,0.005,-0.145
23:57:38.132,0.0,-0.135
23:57:38.136,0.0,-0.135
23:57:38.140,0.0,-0.13
23:57:38.144,0.0,-0.145
23:57:38.148,0.0,-0.14
23:57:38.152,-0.005,-0.135
23:57:38.156,0.005,-0.16
23:57:38.160,0.015,-0.19
23:57:38.164,0.005,-0.155
23:57:38.168,0.0,-0.05
23:57:38.172,0.04,0.19
23:57:38.176,0.06,0.485
23:57:38.180,0.095,0.78
23:57:38.184,0.18,0.89
23:57:38.188,0.25,0.805
23:57:38.192,0.305,0.54
23:57:38.196,0.275,0.05
23:57:38.200,0.18,-0.52
23:57:38.204,0.055,-0.865
23:57:38.208,-0.125,-0.99
23:57:38.212,-0.33,-0.915
23:57:38.216,-0.42,-0.74
23:57:38.220,-0.415,-0.565
23:57:38.224,-0.37,-0.45
23:57:38.228,-0.28,-0.335
23:57:38.232,-0.175,-0.255
23:57:38.236,-0.11,-0.25
23:57:38.240,0.0,-0.255
23:57:38.244,0.015,-0.25
23:57:38.248,0.015,-0.28
23:57:38.252,0.01,-0.265
23:57:38.256,0.035,-0.24
23:57:38.260,0.04,-0.205
23:57:38.264,0.035,-0.22
23:57:38.268,0.035,-0.23
23:57:38.272,0.025,-0.24
23:57:38.276,0.0,-0.25
23:57:38.280,-0.02,-0.255
23:57:38.284,-0.045,-0.26
23:57:38.288,-0.055,-0.295
23:57:38.292,-0.065,-0.3
23:57:38.296,-0.08,-0.295
23:57:38.300,-0.06,-0.27
23:57:38.304,-0.055,-0.285
23:57:38.308,-0.055,-0.27
23:57:38.312,-0.06,-0.275
23:57:38.316,-0.075,-0.265
23:57:38.320,-0.06,-0.265
23:57:38.324,-0.045,-0.25
23:57:38.328,-0.04,-0.25
23:57:38.332,-0.05,-0.255
23:57:38.336,-0.04,-0.255
23:57:38.340,-0.04,-0.24
23:57:38.344,-0.04,-0.235
23:57:38.348,-0.055,-0.225
23:57:38.352,-0.025,-0.225
23:57:38.356,-0.04,-0.22
23:57:38.360,-0.045,-0.205
23:57:38.364,-0.025,-0.215
23:57:38.368,-0.03,-0.22
23:57:38.372,-0.015,-0.215
23:57:38.376,-0.03,-0.23
23:57:38.380,-0.03,-0.22
23:57:38.384,-0.035,-0.21
23:57:38.388,-0.025,-0.205
23:57:38.392,-0.005,-0.215
23:57:38.396,-0.02,-0.205
23:57:38.400,-0.025,-0.2
23:57:38.404,0.0,-0.19
23:57:38.408,0.015,-0.185
23:57:38.412,-0.01,-0.16
23:57:38.416,0.005,-0.15
23:57:38.420,0.005,-0.145
23:57:38.424,0.01,-0.135
23:57:38.428,0.015,-0.11
23:57:38.432,0.045,-0.125
23:57:38.436,0.045,-0.15
23:57:38.440,0.04,-0.175
23:57:38.444,0.015,-0.175
23:57:38.448,0.025,-0.17
23:57:38.452,0.025,-0.165
23:57:38.456,0.02,-0.185
23:57:38.460,0.025,-0.18
23:57:38.464,0.045,-0.175
23:57:38.468,0.045,-0.185
23:57:38.472,0.04,-0.19
23:57:38.476,0.065,-0.2
23:57:38.480,0.05,-0.195
23:57:38.484,0.085,-0.175
23:57:38.488,0.095,-0.15
23:57:38.492,0.105,-0.12
23:57:38.496,0.12,-0.11
23:57:38.500,0.095,-0.135
23:57:38.504,0.105,-0.155
23:57:38.508,0.085,-0.13
23:57:38.512,0.085,-0.145
23:57:38.516,0.055,-0.15
23:57:38.520,0.03,-0.175
23:57:38.524,0.005,-0.17
23:57:38.528,0.015,-0.17
23:57:38.532,0.025,-0.155
23:57:38.536,0.005,-0.15
23:57:38.540,-0.005,-0.165
23:57:38.544,0.015,-0.195
23:57:38.548,0.005,-0.165
23:57:38.552,0.005,-0.175
23:57:38.556,0.02,-0.17
23:57:38.560,0.01,-0.16
23:57:38.564,0.005,-0.175
23:57:38.568,0.02,-0.175
23:57:38.572,0.0,-0.18
23:57:38.576,0.005,-0.19
23:57:38.580,0.01,-0.21
23:57:38.584,0.015,-0.2
23:57:38.588,0.0,-0.195
23:57:38.592,0.015,-0.18
23:57:38.596,0.015,-0.21
23:57:38.600,0.005,-0.205
23:57:38.604,0.005,-0.205
23:57:38.608,0.01,-0.2
23:57:38.612,0.025,-0.19
23:57:38.616,0.005,-0.19
23:57:38.620,0.015,-0.195
23:57:38.624,0.02,-0.2
23:57:38.628,0.005,-0.18
23:57:38.632,0.025,-0.185
23:57:38.636,0.03,-0.185
23:57:38.640,0.03,-0.175
23:57:38.644,0.025,-0.175
23:57:38.648,0.02,-0.19
23:57:38.652,0.04,-0.19
23:57:38.656,0.01,-0.2
23:57:38.660,0.005,-0.21
23:57:38.664,0.005,-0.215
23:57:38.668,0.005,-0.22
23:57:38.672,0.01,-0.215
23:57:38.676,0.015,-0.195
23:57:38.680,0.02,-0.205
23:57:38.684,0.015,-0.23
23:57:38.688,0.04,-0.255
23:57:38.692,0.035,-0.295
23:57:38.696,0.055,-0.27
23:57:38.700,0.065,-0.23
23:57:38.704,0.07,-0.2
23:57:38.708,0.07,-0.175
23:57:38.712,0.08,-0.17
23:57:38.716,0.07,-0.155
23:57:38.720,0.075,-0.15
23:57:38.724,0.05,-0.16
23:57:38.728,0.01,-0.185
23:57:38.732,0.025,-0.2
23:57:38.736,0.01,-0.205
23:57:38.740,-0.005,-0.205
23:57:38.744,-0.01,-0.205
23:57:38.748,-0.005,-0.19
23:57:38.752,-0.015,-0.205
23:57:38.756,-0.005,-0.195
23:57:38.760,-0.005,-0.2
23:57:38.764,0.0,-0.195
23:57:38.768,0.0,-0.205
23:57:38.772,0.015,-0.205
23:57:38.776,0.0,-0.195
23:57:38.780,0.015,-0.2
23:57:38.784,0.01,-0.205
23:57:38.788,0.01,-0.205
23:57:38.792,-0.005,-0.22
23:57:38.796,0.0,-0.215
23:57:38.800,0.04,-0.185
23:57:38.804,0.005,-0.185
23:57:38.808,0.015,-0.195
23:57:38.812,0.005,-0.21
23:57:38.816,0.035,-0.195
23:57:38.820,0.01,-0.19
23:57:38.824,0.0,-0.18
23:57:38.828,0.01,-0.19
23:57:38.832,0.0,-0.185
23:57:38.836,0.005,-0.17
23:57:38.840,0.025,-0.085
23:57:38.844,0.025,0.09
23:57:38.848,0.055,0.345
23:57:38.852,0.09,0.61
23:57:38.856,0.115,0.875
23:57:38.860,0.19,0.98
23:57:38.864,0.3,0.845
23:57:38.868,0.365,0.47
23:57:38.872,0.345,-0.16
23:57:38.876,0.275,-0.775
23:57:38.880,0.155,-1.09
23:57:38.884,-0.03,-1.15
23:57:38.888,-0.235,-1.035
23:57:38.892,-0.37,-0.84
23:57:38.896,-0.385,-0.665
23:57:38.900,-0.33,-0.505
23:57:38.904,-0.28,-0.41
23:57:38.908,-0.205,-0.34
23:57:38.912,-0.125,-0.3
23:57:38.916,-0.025,-0.305
23:57:38.920,0.02,-0.295
23:57:38.924,0.05,-0.235
23:57:38.928,0.035,-0.22
23:57:38.932,0.065,-0.205
23:57:38.936,0.075,-0.21
23:57:38.940,0.075,-0.195
23:57:38.944,0.045,-0.185
23:57:38.948,0.04,-0.21
23:57:38.952,0.02,-0.215
23:57:38.956,-0.005,-0.225
23:57:38.960,-0.03,-0.235
23:57:38.964,-0.02,-0.23
23:57:38.968,-0.025,-0.22
23:57:38.972,-0.02,-0.215
23:57:38.976,-0.02,-0.22
23:57:38.980,-0.015,-0.22
23:57:38.984,-0.025,-0.2
23:57:38.988,-0.005,-0.21
23:57:38.992,-0.015,-0.21
23:57:38.996,-0.025,-0.205
23:57:39.000,-0.035,-0.2
23:57:39.004,-0.035,-0.18
23:57:39.008,-0.035,-0.17
23:57:39.012,-0.025,-0.155
23:57:39.016,-0.02,-0.16
23:57:39.020,-0.005,-0.155
23:57:39.024,-0.015,-0.135
23:57:39.028,-0.01,-0.145
23:57:39.032,-0.005,-0.135
23:57:39.036,0.0,-0.12
23:57:39.040,-0.005,-0.11
23:57:39.044,-0.02,-0.11
23:57:39.048,-0.005,-0.1
23:57:39.052,-0.005,-0.08
23:57:39.056,0.005,-0.08
23:57:39.060,0.015,-0.09
23:57:39.064,0.0,-0.08
23:57:39.068,0.01,-0.07
23:57:39.072,0.03,-0.07
23:57:39.076,0.015,-0.04
23:57:39.080,0.02,-0.05
23:57:39.084,0.025,-0.055
23:57:39.088,0.025,-0.035
23:57:39.092,0.035,-0.025
23:57:39.096,0.045,-0.035
23:57:39.100,0.05,-0.045
23:57:39.104,0.045,-0.04
23:57:39.108,0.05,-0.03
23:57:39.112,0.04,0.0
23:57:39.116,0.045,0.0
23:57:39.120,0.025,0.01
23:57:39.124,0.055,0.005
23:57:39.128,0.075,0.0
23:57:39.132,0.1,0.005
23:57:39.136,0.075,-0.005
23:57:39.140,0.105,-0.01
23:57:39.144,0.125,-0.01
23:57:39.148,0.115,-0.035
23:57:39.152,0.125,-0.04
23:57:39.156,0.14,-0.04
23:57:39.160,0.135,-0.065
23:57:39.164,0.105,-0.08
23:57:39.168,0.115,-0.065
23:57:39.172,0.09,-0.075
23:57:39.176,0.075,-0.095
23:57:39.180,0.05,-0.125
23:57:39.184,0.025,-0.15
23:57:39.188,0.01,-0.14
23:57:39.192,0.005,-0.15
23:57:39.196,0.005,-0.14
23:57:39.200,0.005,-0.13
23:57:39.204,0.0,-0.135
23:57:39.208,0.01,-0.14
23:57:39.212,0.01,-0.11
23:57:39.216,0.005,-0.11
23:57:39.220,0.03,-0.11
23:57:39.224,0.015,-0.125
23:57:39.228,0.01,-0.12
23:57:39.232,0.0,-0.135
23:57:39.236,0.005,-0.13
23:57:39.240,0.005,-0.12
23:57:39.244,0.01,-0.145
23:57:39.248,0.005,-0.145
23:57:39.252,0.0,-0.13
23:57:39.256,0.015,-0.135
23:57:39.260,0.005,-0.14
23:57:39.264,0.005,-0.17
23:57:39.268,0.0,-0.16
23:57:39.272,0.0,-0.175
23:57:39.276,0.0,-0.155
23:57:39.280,0.0,-0.155
23:57:39.284,0.0,-0.165
23:57:39.288,0.0,-0.175
23:57:39.292,-0.015,-0.17
23:57:39.296,0.0,-0.16
23:57:39.300,-0.005,-0.145
23:57:39.304,0.015,-0.17
23:57:39.308,0.015,-0.165
23:57:39.312,0.02,-0.17
23:57:39.316,0.025,-0.185
23:57:39.320,0.02,-0.195
23:57:39.324,0.01,-0.205
23:57:39.328,0.0,-0.22
23:57:39.332,0.0,-0.22
23:57:39.336,-0.015,-0.205
23:57:39.340,0.0,-0.195
23:57:39.344,0.0,-0.22
23:57:39.348,0.015,-0.23
23:57:39.352,0.02,-0.235
23:57:39.356,0.025,-0.275
23:57:39.360,0.025,-0.24
23:57:39.364,0.045,-0.17
23:57:39.368,0.055,-0.155
23:57:39.372,0.075,-0.14
23:57:39.376,0.075,-0.06
23:57:39.380,0.075,0.085
23:57:39.384,0.09,0.29
23:57:39.388,0.115,0.575
23:57:39.392,0.115,0.85
23:57:39.396,0.16,0.98
23:57:39.400,0.23,0.885
23:57:39.404,0.325,0.565
23:57:39.408,0.34,-0.07
23:57:39.412,0.325,-0.745
23:57:39.416,0.225,-1.15
23:57:39.420,0.1,-1.25
23:57:39.424,-0.075,-1.13
23:57:39.428,-0.255,-0.93
23:57:39.432,-0.325,-0.77
23:57:39.436,-0.32,-0.635
23:57:39.440,-0.295,-0.49
23:57:39.444,-0.265,-0.4
23:57:39.448,-0.18,-0.295
23:57:39.452,-0.1,-0.265
23:57:39.456,-0.055,-0.245
23:57:39.460,-0.005,-0.245
23:57:39.464,0.0,-0.23
23:57:39.468,-0.005,-0.23
23:57:39.472,-0.015,-0.245
23:57:39.476,-0.01,-0.25
23:57:39.480,0.0,-0.24
23:57:39.484,-0.02,-0.24
23:57:39.488,-0.02,-0.25
23:57:39.492,0.0,-0.25
23:57:39.496,-0.025,-0.255
23:57:39.500,-0.04,-0.245
23:57:39.504,-0.02,-0.235
23:57:39.508,-0.025,-0.23
23:57:39.512,-0.03,-0.22
23:57:39.516,-0.02,-0.235
23:57:39.520,-0.025,-0.23
23:57:39.524,-0.02,-0.22
23:57:39.528,-0.01,-0.205
23:57:39.532,-0.005,-0.205
23:57:39.536,-0.015,-0.245
23:57:39.540,-0.015,-0.23
23:57:39.544,-0.02,-0.235
23:57:39.548,-0.02,-0.235
23:57:39.552,-0.04,-0.22
23:57:39.556,-0.06,-0.225
23:57:39.560,-0.045,-0.225
23:57:39.564,-0.005,-0.19
23:57:39.568,-0.015,-0.19
23:57:39.572,0.0,-0.205
23:57:39.576,0.01,-0.21
23:57:39.580,0.005,-0.205
23:57:39.584,0.025,-0.18
23:57:39.588,0.05,-0.15
23:57:39.592,0.07,-0.14
23:57:39.596,0.085,-0.145
23:57:39.600,0.07,-0.145
23:57:39.604,0.08,-0.145
23:57:39.608,0.035,-0.155
23:57:39.612,0.02,-0.165
23:57:39.616,0.025,-0.195
23:57:39.620,-0.015,-0.195
23:57:39.624,-0.03,-0.18
23:57:39.628,-0.03,-0.165
23:57:39.632,-0.02,-0.175
23:57:39.636,-0.035,-0.15
23:57:39.640,-0.02,-0.16
23:57:39.644,-0.005,-0.14
23:57:39.648,0.0,-0.14
23:57:39.652,-0.005,-0.13
23:57:39.656,-0.015,-0.16
23:57:39.660,0.015,-0.165
23:57:39.664,0.005,-0.17
23:57:39.668,0.01,-0.185
23:57:39.672,0.01,-0.19
23:57:39.676,0.01,-0.19
23:57:39.680,0.015,-0.21
23:57:39.684,0.02,-0.205
23:57:39.688,0.015,-0.18
23:57:39.692,0.005,-0.185
23:57:39.696,0.0,-0.2
23:57:39.700,0.015,-0.19
23:57:39.704,0.01,-0.185
23:57:39.708,0.015,-0.16
23:57:39.712,0.025,-0.155
23:57:39.716,0.02,-0.13
23:57:39.720,0.01,-0.145
23:57:39.724,0.035,-0.14
23:57:39.728,0.015,-0.14
23:57:39.732,0.02,-0.13
23:57:39.736,0.025,-0.115
23:57:39.740,0.035,-0.115
23:57:39.744,0.025,-0.12
23:57:39.748,0.03,-0.115
23:57:39.752,0.04,-0.115
23:57:39.756,0.045,-0.115
23:57:39.760,0.02,-0.135
23:57:39.764,0.04,-0.14
23:57:39.768,0.02,-0.16
23:57:39.772,0.015,-0.16
23:57:39.776,0.0,-0.185
23:57:39.780,0.0,-0.165
23:57:39.784,0.01,-0.17
23:57:39.788,0.025,-0.175
23:57:39.792,0.045,-0.18
23:57:39.796,0.05,-0.19
23:57:39.800,0.05,-0.205
23:57:39.804,0.045,-0.22
23:57:39.808,0.04,-0.21
23:57:39.812,0.085,-0.165
23:57:39.816,0.105,-0.135
23:57:39.820,0.1,-0.115
23:57:39.824,0.095,-0.125
23:57:39.828,0.095,-0.115
23:57:39.832,0.055,-0.13
23:57:39.836,0.04,-0.155
23:57:39.840,0.025,-0.195
23:57:39.844,0.005,-0.205
23:57:39.848,0.005,-0.1
23:57:39.852,0.015,0.15
23:57:39.856,0.055,0.445
23:57:39.860,0.095,0.745
23:57:39.864,0.155,0.89
23:57:39.868,0.255,0.825
23:57:39.872,0.34,0.58
23:57:39.876,0.335,0.105
23:57:39.880,0.22,-0.495
23:57:39.884,0.05,-0.835
23:57:39.888,-0.15,-0.93
23:57:39.892,-0.32,-0.9
23:57:39.896,-0.37,-0.74
23:57:39.900,-0.38,-0.575
23:57:39.904,-0.355,-0.46
23:57:39.908,-0.29,-0.35
23:57:39.912,-0.175,-0.27
23:57:39.916,-0.09,-0.26
23:57:39.920,-0.025,-0.225
23:57:39.924,0.005,-0.215
23:57:39.928,0.0,-0.22
23:57:39.932,0.02,-0.23
23:57:39.936,0.015,-0.225
23:57:39.940,0.01,-0.21
23:57:39.944,-0.005,-0.215
23:57:39.948,0.0,-0.235
23:57:39.952,0.0,-0.235
23:57:39.956,-0.02,-0.22
23:57:39.960,0.0,-0.2
23:57:39.964,0.01,-0.21
23:57:39.968,0.0,-0.195
23:57:39.972,-0.005,-0.21
23:57:39.976,0.015,-0.22
23:57:39.980,0.01,-0.225
23:57:39.984,0.01,-0.225
23:57:39.988,0.005,-0.235
23:57:39.992,-0.025,-0.225
23:57:39.996,-0.03,-0.225
23:57:40.000,-0.005,-0.185
23:57:40.004,-0.01,-0.16
23:57:40.008,0.005,-0.16
23:57:40.012,0.03,-0.175
23:57:40.016,0.025,-0.17
23:57:40.020,0.03,-0.155
23:57:40.024,0.065,-0.13
23:57:40.028,0.05,-0.105
23:57:40.032,0.05,-0.055
23:57:40.036,0.1,-0.04
23:57:40.040,0.12,-0.05
23:57:40.044,0.105,-0.02
23:57:40.048,0.09,-0.045
23:57:40.052,0.06,-0.05
23:57:40.056,0.045,-0.06
23:57:40.060,0.02,-0.065
23:57:40.064,0.015,-0.065
23:57:40.068,0.015,-0.055
23:57:40.072,-0.015,-0.055
23:57:40.076,0.0,-0.05
23:57:40.080,0.005,-0.05
23:57:40.084,0.005,-0.045
23:57:40.088,0.01,-0.03
23:57:40.092,0.005,-0.04
23:57:40.096,0.02,-0.04
23:57:40.100,0.01,-0.035
23:57:40.104,0.02,-0.045
23:57:40.108,0.01,-0.05
23:57:40.112,0.03,-0.05
23:57:40.116,0.03,-0.09
23:57:40.120,0.03,-0.105
23:57:40.124,0.025,-0.095
23:57:40.128,0.015,-0.105
23:57:40.132,0.015,-0.135
23:57:40.136,0.015,-0.15
23:57:40.140,-0.01,-0.16
23:57:40.144,0.005,-0.17
23:57:40.148,0.03,-0.165
23:57:40.152,0.005,-0.16
23:57:40.156,0.005,-0.165
23:57:40.160,0.005,-0.175
23:57:40.164,0.0,-0.17
23:57:40.168,0.01,-0.175
23:57:40.172,0.0,-0.17
23:57:40.176,0.005,-0.17
23:57:40.180,0.005,-0.155
23:57:40.184,0.01,-0.14
23:57:40.188,0.03,-0.145
23:57:40.192,0.03,-0.145
23:57:40.196,0.035,-0.16
23:57:40.200,0.035,-0.185
23:57:40.204,0.03,-0.175
23:57:40.208,0.02,-0.18
23:57:40.212,0.005,-0.19
23:57:40.216,0.01,-0.185
23:57:40.220,0.0,-0.165
23:57:40.224,0.025,-0.16
23:57:40.228,0.05,-0.16
23:57:40.232,0.04,-0.16
23:57:40.236,0.02,-0.19
23:57:40.240,0.035,-0.205
23:57:40.244,0.055,-0.2
23:57:40.248,0.05,-0.19
23:57:40.252,0.07,-0.145
23:57:40.256,0.105,-0.13
23:57:40.260,0.085,-0.07
23:57:40.264,0.09,0.125
23:57:40.268,0.1,0.425
23:57:40.272,0.135,0.745
23:57:40.276,0.16,1.035
23:57:40.280,0.23,1.135
23:57:40.284,0.325,1.005
23:57:40.288,0.415,0.57
23:57:40.292,0.385,-0.16
23:57:40.296,0.25,-0.81
23:57:40.300,-0.01,-1.105
23:57:40.304,-0.255,-1.075
23:57:40.308,-0.405,-0.9
23:57:40.312,-0.44,-0.71
23:57:40.316,-0.41,-0.555
23:57:40.320,-0.37,-0.45
23:57:40.324,-0.31,-0.365
23:57:40.328,-0.205,-0.275
23:57:40.332,-0.115,-0.245
23:57:40.336,-0.07,-0.25
23:57:40.340,-0.015,-0.255
23:57:40.344,-0.03,-0.26
23:57:40.348,-0.025,-0.255
23:57:40.352,-0.03,-0.25
23:57:40.356,-0.035,-0.24
23:57:40.360,-0.035,-0.245
23:57:40.364,-0.02,-0.265
23:57:40.368,-0.025,-0.25
23:57:40.372,-0.035,-0.24
23:57:40.376,-0.04,-0.225
23:57:40.380,-0.04,-0.24
23:57:40.384,-0.04,-0.24
23:57:40.388,-0.06,-0.24
23:57:40.392,-0.045,-0.235
23:57:40.396,-0.03,-0.225
23:57:40.400,-0.05,-0.22
23:57:40.404,-0.035,-0.225
23:57:40.408,-0.04,-0.21
23:57:40.412,-0.01,-0.185
23:57:40.416,-0.015,-0.19
23:57:40.420,0.0,-0.2
23:57:40.424,-0.005,-0.2
23:57:40.428,-0.02,-0.17
23:57:40.432,-0.03,-0.175
23:57:40.436,-0.04,-0.165
23:57:40.440,-0.03,-0.14
23:57:40.444,-0.025,-0.11
23:57:40.448,-0.005,-0.11
23:57:40.452,0.015,-0.115
23:57:40.456,0.02,-0.095
23:57:40.460,0.025,-0.09
23:57:40.464,0.045,-0.08
23:57:40.468,0.055,-0.06
23:57:40.472,0.06,-0.01
23:57:40.476,0.11,0.01
23:57:40.480,0.1,0.035
23:57:40.484,0.09,0.005
23:57:40.488,0.09,0.0
23:57:40.492,0.07,0.0
23:57:40.496,0.05,0.015
23:57:40.500,0.03,-0.01
23:57:40.504,0.025,-0.005
23:57:40.508,0.02,-0.01
23:57:40.512,0.005,-0.025
23:57:40.516,0.0,-0.025
23:57:40.520,0.005,-0.035
23:57:40.524,0.025,-0.055
23:57:40.528,0.015,-0.075
23:57:40.532,0.025,-0.095
23:57:40.536,0.03,-0.1
23:57:40.540,0.03,-0.1
23:57:40.544,0.01,-0.12
23:57:40.548,0.005,-0.145
23:57:40.552,0.0,-0.16
23:57:40.556,0.025,-0.165
23:57:40.560,0.015,-0.145
23:57:40.564,0.02,-0.17
23:57:40.568,0.0,-0.175
23:57:40.572,0.0,-0.17
23:57:40.576,0.015,-0.16
23:57:40.580,0.01,-0.165
23:57:40.584,0.025,-0.16
23:57:40.588,0.02,-0.175
23:57:40.592,0.0,-0.16
23:57:40.596,-0.005,-0.16
23:57:40.600,0.01,-0.155
23:57:40.604,0.01,-0.16
23:57:40.608,0.005,-0.175
23:57:40.612,0.015,-0.185
23:57:40.616,0.01,-0.15
23:57:40.620,0.005,-0.16
23:57:40.624,0.02,-0.155
23:57:40.628,0.025,-0.15
23:57:40.632,0.03,-0.16
23:57:40.636,0.035,-0.17
23:57:40.640,0.035,-0.175
23:57:40.644,0.02,-0.175
23:57:40.648,0.03,-0.185
23:57:40.652,0.02,-0.205
23:57:40.656,0.01,-0.2
23:57:40.660,0.0,-0.18
23:57:40.664,-0.01,-0.18
23:57:40.668,0.03,-0.185
23:57:40.672,0.02,-0.21
23:57:40.676,0.03,-0.225
23:57:40.680,0.035,-0.265
23:57:40.684,0.06,-0.26
23:57:40.688,0.065,-0.235
23:57:40.692,0.09,-0.19
23:57:40.696,0.08,-0.15
23:57:40.700,0.07,-0.135
23:57:40.704,0.095,-0.115
23:57:40.708,0.07,-0.155
23:57:40.712,0.035,-0.165
23:57:40.716,0.01,-0.19
23:57:40.720,0.01,-0.195
23:57:40.724,0.005,-0.18
23:57:40.728,-0.01,-0.185
23:57:40.732,0.02,-0.195
23:57:40.736,0.015,-0.2
23:57:40.740,0.005,-0.2
23:57:40.744,0.0,-0.195
23:57:40.748,0.03,-0.19
23:57:40.752,0.0,-0.185
23:57:40.756,0.02,-0.2
23:57:40.760,0.025,-0.195
23:57:40.764,0.01,-0.19
23:57:40.768,0.02,-0.185
23:57:40.772,0.025,-0.19
23:57:40.776,0.005,-0.18
23:57:40.780,0.02,-0.19
23:57:40.784,0.015,-0.19
23:57:40.788,0.025,-0.19
23:57:40.792,0.005,-0.19
23:57:40.796,0.025,-0.2
23:57:40.800,0.015,-0.185
23:57:40.804,0.025,-0.185
23:57:40.808,0.03,-0.175
23:57:40.812,0.02,-0.18
23:57:40.816,0.02,-0.15
23:57:40.820,0.04,-0.16
23:57:40.824,0.035,-0.16
23:57:40.828,0.05,-0.155
23:57:40.832,0.04,-0.14
23:57:40.836,0.045,-0.115
23:57:40.840,0.035,-0.005
23:57:40.844,0.08,0.215
23:57:40.848,0.11,0.525
23:57:40.852,0.155,0.795
23:57:40.856,0.23,1.005
23:57:40.860,0.3,1.005
23:57:40.864,0.39,0.775
23:57:40.868,0.4,0.185
23:57:40.872,0.36,-0.52
23:57:40.876,0.255,-0.96
23:57:40.880,0.09,-1.135
23:57:40.884,-0.1,-1.075
23:57:40.888,-0.235,-0.9
23:57:40.892,-0.315,-0.755
23:57:40.896,-0.32,-0.615
23:57:40.900,-0.25,-0.505
23:57:40.904,-0.19,-0.355
23:57:40.908,-0.07,-0.245
23:57:40.912,0.025,-0.175
23:57:40.916,0.09,-0.16
23:57:40.920,0.14,-0.175
23:57:40.924,0.135,-0.185
23:57:40.928,0.1,-0.19
23:57:40.932,0.08,-0.2
23:57:40.936,0.03,-0.245
23:57:40.940,0.035,-0.255
23:57:40.944,0.005,-0.245
23:57:40.948,0.005,-0.24
23:57:40.952,0.01,-0.24
23:57:40.956,0.0,-0.235
23:57:40.960,0.0,-0.255
23:57:40.964,0.005,-0.24
23:57:40.968,0.0,-0.245
23:57:40.972,0.015,-0.22
23:57:40.976,0.01,-0.225
23:57:40.980,0.02,-0.235
23:57:40.984,0.0,-0.23
23:57:40.988,0.02,-0.225
23:57:40.992,0.015,-0.22
23:57:40.996,0.015,-0.22
23:57:41.000,0.01,-0.21
23:57:41.004,0.01,-0.215
23:57:41.008,0.01,-0.2
23:57:41.012,0.02,-0.19
23:57:41.016,0.02,-0.18
23:57:41.020,0.045,-0.18
23:57:41.024,0.025,-0.185
23:57:41.028,0.03,-0.17
23:57:41.032,0.025,-0.17
23:57:41.036,0.02,-0.16
23:57:41.040,0.015,-0.135
23:57:41.044,0.02,-0.15
23:57:41.048,0.045,-0.135
23:57:41.052,0.035,-0.105
23:57:41.056,0.035,-0.09
23:57:41.060,0.035,-0.085
23:57:41.064,0.065,-0.085
23:57:41.068,0.06,-0.065
23:57:41.072,0.07,-0.05
23:57:41.076,0.075,-0.04
23:57:41.080,0.065,-0.035
23:57:41.084,0.08,-0.035
23:57:41.088,0.07,-0.025
23:57:41.092,0.06,-0.02
23:57:41.096,0.07,0.01
23:57:41.100,0.05,0.015
23:57:41.104,0.075,0.03
23:57:41.108,0.1,0.035
23:57:41.112,0.11,0.045
23:57:41.116,0.13,0.05
23:57:41.120,0.13,0.055
23:57:41.124,0.125,0.035
23:57:41.128,0.155,0.0
23:57:41.132,0.145,-0.005
23:57:41.136,0.135,0.005
23:57:41.140,0.14,0.005
23:57:41.144,0.145,0.0
23:57:41.148,0.12,-0.01
23:57:41.152,0.125,-0.04
23:57:41.156,0.11,-0.045
23:57:41.160,0.06,-0.065
23:57:41.164,0.05,-0.085
23:57:41.168,0.045,-0.095
23:57:41.172,0.01,-0.095
23:57:41.176,0.015,-0.1
23:57:41.180,-0.005,-0.1
23:57:41.184,0.005,-0.09
23:57:41.188,0.015,-0.1
23:57:41.192,0.0,-0.11
23:57:41.196,0.015,-0.1
23:57:41.200,0.005,-0.09
23:57:41.204,0.0,-0.1
23:57:41.208,-0.005,-0.105
23:57:41.212,-0.01,-0.125
23:57:41.216,-0.005,-0.12
23:57:41.220,-0.005,-0.12
23:57:41.224,-0.015,-0.12
23:57:41.228,0.0,-0.11
23:57:41.232,0.0,-0.125
23:57:41.236,-0.015,-0.125
23:57:41.240,-0.01,-0.115
23:57:41.244,0.0,-0.13
23:57:41.248,-0.015,-0.14
23:57:41.252,0.0,-0.14
23:57:41.256,-0.02,-0.14
23:57:41.260,-0.015,-0.135
23:57:41.264,-0.02,-0.14
23:57:41.268,-0.03,-0.145
23:57:41.272,-0.01,-0.13
23:57:41.276,-0.005,-0.14
23:57:41.280,-0.01,-0.175
23:57:41.284,0.0,-0.165
23:57:41.288,-0.01,-0.095
23:57:41.292,-0.015,0.045
23:57:41.296,0.055,0.285
23:57:41.300,0.085,0.56
23:57:41.304,0.11,0.795
23:57:41.308,0.155,0.81
23:57:41.312,0.235,0.615
23:57:41.316,0.285,0.155
23:57:41.320,0.275,-0.505
23:57:41.324,0.205,-0.98
23:57:41.328,0.12,-1.17
23:57:41.332,-0.025,-1.13
23:57:41.336,-0.195,-0.945
23:57:41.340,-0.285,-0.85
23:57:41.344,-0.3,-0.64
23:57:41.348,-0.275,-0.46
23:57:41.352,-0.225,-0.31
23:57:41.356,-0.135,-0.2
23:57:41.360,-0.05,-0.16
23:57:41.364,-0.005,-0.155
23:57:41.368,0.0,-0.19
23:57:41.372,-0.005,-0.225
23:57:41.376,-0.025,-0.235
23:57:41.380,-0.06,-0.24
23:57:41.384,-0.065,-0.255
23:57:41.388,-0.08,-0.24
23:57:41.392,-0.085,-0.24
23:57:41.396,-0.065,-0.245
23:57:41.400,-0.065,-0.25
23:57:41.404,-0.07,-0.255
23:57:41.408,-0.05,-0.235
23:57:41.412,-0.085,-0.26
23:57:41.416,-0.065,-0.25
23:57:41.420,-0.085,-0.245
23:57:41.424,-0.07,-0.24
23:57:41.428,-0.055,-0.235
23:57:41.432,-0.06,-0.23
23:57:41.436,-0.075,-0.255
23:57:41.440,-0.055,-0.23
23:57:41.444,-0.07,-0.24
23:57:41.448,-0.055,-0.215
23:57:41.452,-0.05,-0.21
23:57:41.456,-0.06,-0.23
23:57:41.460,-0.07,-0.225
23:57:41.464,-0.06,-0.2
23:57:41.468,-0.07,-0.205
23:57:41.472,-0.045,-0.195
23:57:41.476,-0.06,-0.175
23:57:41.480,-0.055,-0.185
23:57:41.484,-0.065,-0.195
23:57:41.488,-0.055,-0.165
23:57:41.492,-0.07,-0.15
23:57:41.496,-0.045,-0.165
23:57:41.500,-0.055,-0.165
23:57:41.504,-0.055,-0.16
23:57:41.508,-0.045,-0.145
23:57:41.512,-0.045,-0.135
23:57:41.516,-0.025,-0.12
23:57:41.520,-0.015,-0.15
23:57:41.524,-0.01,-0.155
23:57:41.528,-0.025,-0.135
23:57:41.532,-0.03,-0.135
23:57:41.536,-0.025,-0.12
23:57:41.540,-0.015,-0.115
23:57:41.544,-0.015,-0.1
23:57:41.548,0.01,-0.095
23:57:41.552,0.045,-0.1
23:57:41.556,0.04,-0.09
23:57:41.560,0.045,-0.115
23:57:41.564,0.075,-0.125
23:57:41.568,0.07,-0.13
23:57:41.572,0.08,-0.115
23:57:41.576,0.095,-0.115
23:57:41.580,0.095,-0.115
23:57:41.584,0.095,-0.125
23:57:41.588,0.11,-0.11
23:57:41.592,0.115,-0.105
23:57:41.596,0.065,-0.1
23:57:41.600,0.055,-0.14
23:57:41.604,0.045,-0.165
23:57:41.608,0.02,-0.155
23:57:41.612,0.0,-0.145
23:57:41.616,0.0,-0.155
23:57:41.620,-0.01,-0.15
23:57:41.624,-0.02,-0.15
23:57:41.628,-0.015,-0.155
23:57:41.632,-0.02,-0.155
23:57:41.636,-0.005,-0.145
23:57:41.640,0.0,-0.155
23:57:41.644,0.0,-0.155
23:57:41.648,0.0,-0.165
23:57:41.652,0.005,-0.155
23:57:41.656,0.01,-0.15
23:57:41.660,0.005,-0.16
23:57:41.664,0.0,-0.165
23:57:41.668,0.0,-0.175
23:57:41.672,0.0,-0.175
23:57:41.676,-0.01,-0.155
23:57:41.680,0.0,-0.17
23:57:41.684,-0.01,-0.185
23:57:41.688,0.0,-0.175
23:57:41.692,-0.005,-0.185
23:57:41.696,0.005,-0.18
23:57:41.700,0.005,-0.17
23:57:41.704,0.0,-0.16
23:57:41.708,0.0,-0.185
23:57:41.712,0.0,-0.165
23:57:41.716,0.0,-0.16
23:57:41.720,0.005,-0.15
23:57:41.724,0.015,-0.175
23:57:41.728,0.03,-0.16
23:57:41.732,0.025,-0.145
23:57:41.736,0.035,-0.165
23:57:41.740,0.04,-0.175
23:57:41.744,0.02,-0.15
23:57:41.748,0.005,-0.06
23:57:41.752,0.04,0.155
23:57:41.756,0.04,0.44
23:57:41.760,0.09,0.74
23:57:41.764,0.155,0.875
23:57:41.768,0.25,0.795
23:57:41.772,0.32,0.505
23:57:41.776,0.365,-0.105
23:57:41.780,0.355,-0.77
23:57:41.784,0.295,-1.125
23:57:41.788,0.17,-1.16
23:57:41.792,0.005,-1.025
23:57:41.796,-0.12,-0.84
23:57:41.800,-0.21,-0.695
23:57:41.804,-0.235,-0.535
23:57:41.808,-0.21,-0.415
23:57:41.812,-0.21,-0.31
23:57:41.816,-0.11,-0.255
23:57:41.820,-0.075,-0.215
23:57:41.824,-0.02,-0.215
23:57:41.828,-0.02,-0.21
23:57:41.832,0.005,-0.22
23:57:41.836,0.005,-0.215
23:57:41.840,0.0,-0.195
23:57:41.844,0.0,-0.215
23:57:41.848,-0.005,-0.21
23:57:41.852,0.0,-0.23
23:57:41.856,0.0,-0.215
23:57:41.860,0.0,-0.22
23:57:41.864,0.02,-0.21
23:57:41.868,-0.01,-0.21
23:57:41.872,-0.01,-0.225
23:57:41.876,-0.005,-0.235
23:57:41.880,0.0,-0.21
23:57:41.884,-0.02,-0.215
23:57:41.888,0.0,-0.22
23:57:41.892,-0.015,-0.22
23:57:41.896,0.0,-0.225
23:57:41.900,-0.005,-0.205
23:57:41.904,0.0,-0.2
23:57:41.908,0.0,-0.2
23:57:41.912,-0.005,-0.205
23:57:41.916,-0.015,-0.21
23:57:41.920,-0.005,-0.185
23:57:41.924,-0.02,-0.18
23:57:41.928,0.0,-0.175
23:57:41.932,0.005,-0.18
23:57:41.936,-0.02,-0.17
23:57:41.940,-0.015,-0.165
23:57:41.944,0.0,-0.15
23:57:41.948,0.0,-0.16
23:57:41.952,0.0,-0.165
23:57:41.956,0.01,-0.165
23:57:41.960,0.01,-0.18
23:57:41.964,0.005,-0.17
23:57:41.968,0.01,-0.17
23:57:41.972,0.005,-0.19
23:57:41.976,0.0,-0.18
23:57:41.980,-0.005,-0.15
23:57:41.984,0.005,-0.11
23:57:41.988,0.015,-0.1
23:57:41.992,0.05,-0.105
23:57:41.996,0.055,-0.095
23:57:42.000,0.065,-0.1
23:57:42.004,0.075,-0.08
23:57:42.008,0.09,-0.045
23:57:42.012,0.09,-0.045
23:57:42.016,0.12,-0.035
23:57:42.020,0.12,-0.045
23:57:42.024,0.12,-0.05
23:57:42.028,0.125,-0.07
23:57:42.032,0.1,-0.065
23:57:42.036,0.06,-0.1
23:57:42.040,0.05,-0.135
23:57:42.044,0.065,-0.15
23:57:42.048,0.005,-0.13
23:57:42.052,0.01,-0.14
23:57:42.056,-0.015,-0.14
23:57:42.060,0.0,-0.145
23:57:42.064,0.015,-0.135
23:57:42.068,0.03,-0.145
23:57:42.072,0.01,-0.13
23:57:42.076,0.025,-0.12
23:57:42.080,0.02,-0.135
23:57:42.084,0.015,-0.125
23:57:42.088,0.0,-0.105
23:57:42.092,0.015,-0.095
23:57:42.096,0.005,-0.105
23:57:42.100,0.0,-0.11
23:57:42.104,0.01,-0.115
23:57:42.108,0.02,-0.11
23:57:42.112,0.015,-0.08
23:57:42.116,0.015,-0.11
23:57:42.120,0.0,-0.14
23:57:42.124,0.015,-0.12
23:57:42.128,0.025,-0.095
23:57:42.132,0.01,-0.1
23:57:42.136,0.0,-0.125
23:57:42.140,0.015,-0.12
23:57:42.144,0.015,-0.145
23:57:42.148,0.03,-0.195
23:57:42.152,0.025,-0.18
23:57:42.156,0.005,-0.12
23:57:42.160,0.02,0.05
23:57:42.164,0.07,0.315
23:57:42.168,0.09,0.61
23:57:42.172,0.155,0.775
23:57:42.176,0.255,0.69
23:57:42.180,0.305,0.42
23:57:42.184,0.28,-0.025
23:57:42.188,0.205,-0.59
23:57:42.192,0.06,-0.88
23:57:42.196,-0.115,-0.925
23:57:42.200,-0.315,-0.875
23:57:42.204,-0.37,-0.725
23:57:42.208,-0.345,-0.555
23:57:42.212,-0.29,-0.44
23:57:42.216,-0.215,-0.32
23:57:42.220,-0.11,-0.295
23:57:42.224,0.0,-0.265
23:57:42.228,0.06,-0.205
23:57:42.232,0.095,-0.18
23:57:42.236,0.085,-0.175
23:57:42.240,0.09,-0.19
23:57:42.244,0.045,-0.205
23:57:42.248,0.035,-0.21
23:57:42.252,0.01,-0.245
23:57:42.256,0.005,-0.24
23:57:42.260,-0.02,-0.275
23:57:42.264,-0.025,-0.27
23:57:42.268,-0.03,-0.275
23:57:42.272,-0.025,-0.26
23:57:42.276,-0.025,-0.25
23:57:42.280,-0.025,-0.265
23:57:42.284,-0.025,-0.265
23:57:42.288,-0.035,-0.26
23:57:42.292,-0.035,-0.255
23:57:42.296,-0.02,-0.265
23:57:42.300,-0.02,-0.27
23:57:42.304,-0.035,-0.26
23:57:42.308,-0.035,-0.25
23:57:42.312,-0.025,-0.255
23:57:42.316,-0.01,-0.225
23:57:42.320,-0.01,-0.225
23:57:42.324,-0.015,-0.23
23:57:42.328,0.0,-0.235
23:57:42.332,0.0,-0.21
23:57:42.336,-0.015,-0.19
23:57:42.340,-0.01,-0.18
23:57:42.344,-0.005,-0.21
23:57:42.348,-0.01,-0.205
23:57:42.352,-0.01,-0.195
23:57:42.356,0.0,-0.185
23:57:42.360,-0.005,-0.19
23:57:42.364,0.01,-0.2
23:57:42.368,0.01,-0.185
23:57:42.372,0.015,-0.185
23:57:42.376,0.005,-0.17
23:57:42.380,0.01,-0.15
23:57:42.384,0.02,-0.145
23:57:42.388,0.02,-0.125
23:57:42.392,0.03,-0.135
23:57:42.396,0.045,-0.1
23:57:42.400,0.055,-0.095
23:57:42.404,0.035,-0.1
23:57:42.408,0.06,-0.125
23:57:42.412,0.04,-0.13
23:57:42.416,0.03,-0.12
23:57:42.420,0.03,-0.125
23:57:42.424,0.03,-0.125
23:57:42.428,0.06,-0.115
23:57:42.432,0.06,-0.14
23:57:42.436,0.085,-0.15
23:57:42.440,0.085,-0.15
23:57:42.444,0.085,-0.16
23:57:42.448,0.08,-0.145
23:57:42.452,0.105,-0.125
23:57:42.456,0.11,-0.105
23:57:42.460,0.125,-0.115
23:57:42.464,0.135,-0.11
23:57:42.468,0.11,-0.1
23:57:42.472,0.105,-0.125
23:57:42.476,0.075,-0.135
23:57:42.480,0.05,-0.145
23:57:42.484,0.035,-0.15
23:57:42.488,0.005,-0.14
23:57:42.492,0.0,-0.16
23:57:42.496,-0.01,-0.16
23:57:42.500,0.005,-0.155
23:57:42.504,0.01,-0.15
23:57:42.508,0.005,-0.16
23:57:42.512,0.02,-0.16
23:57:42.516,0.01,-0.165
23:57:42.520,0.01,-0.16
23:57:42.524,0.015,-0.16
23:57:42.528,0.015,-0.165
23:57:42.532,0.03,-0.16
23:57:42.536,0.02,-0.16
23:57:42.540,0.005,-0.18
23:57:42.544,0.015,-0.19
23:57:42.548,0.0,-0.19
23:57:42.552,0.015,-0.175
23:57:42.556,0.02,-0.195
23:57:42.560,0.005,-0.19
23:57:42.564,0.01,-0.185
23:57:42.568,0.015,-0.19
23:57:42.572,0.02,-0.18
23:57:42.576,0.01,-0.2
23:57:42.580,-0.005,-0.195
23:57:42.584,0.0,-0.19
23:57:42.588,0.0,-0.185
23:57:42.592,-0.01,-0.185
23:57:42.596,0.005,-0.18
23:57:42.600,0.005,-0.19
23:57:42.604,0.015,-0.175
23:57:42.608,0.03,-0.18
23:57:42.612,0.03,-0.185
23:57:42.616,0.04,-0.185
23:57:42.620,0.025,-0.185
23:57:42.624,0.015,-0.215
23:57:42.628,0.02,-0.23
23:57:42.632,0.0,-0.225
23:57:42.636,-0.005,-0.225
23:57:42.640,-0.005,-0.22
23:57:42.644,0.01,-0.2
23:57:42.648,0.025,-0.205
23:57:42.652,0.02,-0.22
23:57:42.656,0.03,-0.24
23:57:42.660,0.04,-0.265
23:57:42.664,0.055,-0.275
23:57:42.668,0.075,-0.225
23:57:42.672,0.085,-0.175
23:57:42.676,0.09,-0.18
23:57:42.680,0.1,-0.18
23:57:42.684,0.085,-0.14
23:57:42.688,0.08,-0.15
23:57:42.692,0.025,-0.17
23:57:42.696,0.01,-0.19
23:57:42.700,0.01,-0.185
23:57:42.704,0.005,-0.2
23:57:42.708,0.0,-0.195
23:57:42.712,0.0,-0.185
23:57:42.716,0.01,-0.185
23:57:42.720,0.0,-0.19
23:57:42.724,0.0,-0.2
23:57:42.728,0.005,-0.18
23:57:42.732,0.005,-0.19
23:57:42.736,0.01,-0.2
23:57:42.740,0.01,-0.21
23:57:42.744,0.005,-0.205
23:57:42.748,0.03,-0.18
23:57:42.752,0.0,-0.185
23:57:42.756,0.005,-0.2
23:57:42.760,0.0,-0.2
23:57:42.764,0.02,-0.195
23:57:42.768,0.005,-0.19
23:57:42.772,0.015,-0.175
23:57:42.776,0.035,-0.19
23:57:42.780,0.015,-0.17
23:57:42.784,0.015,-0.185
23:57:42.788,0.035,-0.195
23:57:42.792,0.03,-0.175
23:57:42.796,0.04,-0.085
23:57:42.800,0.05,0.065
23:57:42.804,0.07,0.335
23:57:42.808,0.085,0.61
23:57:42.812,0.155,0.88
23:57:42.816,0.23,1.0
23:57:42.820,0.32,0.915
23:57:42.824,0.38,0.585
23:57:42.828,0.375,-0.015
23:57:42.832,0.275,-0.6
23:57:42.836,0.14,-0.94
23:57:42.840,-0.07,-1.065
23:57:42.844,-0.26,-0.985
23:57:42.848,-0.385,-0.8
23:57:42.852,-0.41,-0.605
23:57:42.856,-0.34,-0.48
23:57:42.860,-0.28,-0.355
23:57:42.864,-0.18,-0.27
23:57:42.868,-0.08,-0.255
23:57:42.872,0.0,-0.26
23:57:42.876,0.055,-0.245
23:57:42.880,0.07,-0.295
23:57:42.884,0.08,-0.29
23:57:42.888,0.085,-0.255
23:57:42.892,0.1,-0.195
23:57:42.896,0.105,-0.195
23:57:42.900,0.105,-0.175
23:57:42.904,0.115,-0.19
23:57:42.908,0.075,-0.195
23:57:42.912,0.095,-0.195
23:57:42.916,0.065,-0.2
23:57:42.920,0.05,-0.205
23:57:42.924,0.005,-0.23
23:57:42.928,0.005,-0.23
23:57:42.932,0.0,-0.215
23:57:42.936,0.01,-0.215
23:57:42.940,0.0,-0.225
23:57:42.944,0.01,-0.2
23:57:42.948,0.01,-0.195
23:57:42.952,0.01,-0.2
23:57:42.956,0.02,-0.195
23:57:42.960,0.02,-0.175
23:57:42.964,0.01,-0.155
23:57:42.968,0.035,-0.17
23:57:42.972,0.035,-0.15
23:57:42.976,0.005,-0.155
23:57:42.980,0.035,-0.135
23:57:42.984,0.04,-0.13
23:57:42.988,0.035,-0.125
23:57:42.992,0.04,-0.125
23:57:42.996,0.045,-0.11
23:57:43.000,0.06,-0.095
23:57:43.004,0.04,-0.1
23:57:43.008,0.055,-0.1
23:57:43.012,0.06,-0.09
23:57:43.016,0.055,-0.09
23:57:43.020,0.065,-0.09
23:57:43.024,0.07,-0.065
23:57:43.028,0.075,-0.06
23:57:43.032,0.07,-0.08
23:57:43.036,0.06,-0.075
23:57:43.040,0.07,-0.05
23:57:43.044,0.065,-0.03
23:57:43.048,0.09,-0.01
23:57:43.052,0.11,-0.005
23:57:43.056,0.1,0.0
23:57:43.060,0.11,0.015
23:57:43.064,0.12,0.01
23:57:43.068,0.125,0.015
23:57:43.072,0.125,0.005
23:57:43.076,0.11,0.01
23:57:43.080,0.095,0.02
23:57:43.084,0.09,0.03
23:57:43.088,0.115,0.03
23:57:43.092,0.105,0.02
23:57:43.096,0.135,0.01
23:57:43.100,0.155,-0.015
23:57:43.104,0.15,-0.01
23:57:43.108,0.155,-0.02
23:57:43.112,0.18,-0.03
23:57:43.116,0.17,-0.035
23:57:43.120,0.175,-0.02
23:57:43.124,0.18,-0.025
23:57:43.128,0.17,-0.035
23:57:43.132,0.165,-0.045
23:57:43.136,0.145,-0.055
23:57:43.140,0.12,-0.04
23:57:43.144,0.11,-0.065
23:57:43.148,0.075,-0.055
23:57:43.152,0.065,-0.085
23:57:43.156,0.05,-0.095
23:57:43.160,0.065,-0.1
23:57:43.164,0.05,-0.1
23:57:43.168,0.07,-0.1
23:57:43.172,0.09,-0.09
23:57:43.176,0.09,-0.115
23:57:43.180,0.07,-0.105
23:57:43.184,0.095,-0.12
23:57:43.188,0.07,-0.1
23:57:43.192,0.08,-0.11
23:57:43.196,0.075,-0.125
23:57:43.200,0.08,-0.135
23:57:43.204,0.06,-0.12
23:57:43.208,0.055,-0.105
23:57:43.212,0.065,-0.13
23:57:43.216,0.05,-0.145
23:57:43.220,0.06,-0.145
23:57:43.224,0.055,-0.145
23:57:43.228,0.055,-0.13
23:57:43.232,0.06,-0.15
23:57:43.236,0.06,-0.16
23:57:43.240,0.055,-0.14
23:57:43.244,0.05,-0.15
23:57:43.248,0.055,-0.155
23:57:43.252,0.055,-0.165
23:57:43.256,0.035,-0.17
23:57:43.260,0.045,-0.17
23:57:43.264,0.035,-0.17
23:57:43.268,0.045,-0.155
23:57:43.272,0.04,-0.14
23:57:43.276,0.04,-0.16
23:57:43.280,0.045,-0.185
23:57:43.284,0.045,-0.18
23:57:43.288,0.045,-0.205
23:57:43.292,0.025,-0.205
23:57:43.296,0.025,-0.2
23:57:43.300,0.01,-0.195
23:57:43.304,0.015,-0.225
23:57:43.308,0.02,-0.21
23:57:43.312,0.01,-0.24
23:57:43.316,0.025,-0.24
23:57:43.320,0.035,-0.28
23:57:43.324,0.025,-0.305
23:57:43.328,0.065,-0.285
23:57:43.332,0.06,-0.245
23:57:43.336,0.07,-0.205
23:57:43.340,0.075,-0.18
23:57:43.344,0.085,-0.16
23:57:43.348,0.075,-0.17
23:57:43.352,0.085,-0.16
23:57:43.356,0.045,-0.16
23:57:43.360,0.035,-0.205
23:57:43.364,0.015,-0.215
23:57:43.368,-0.015,-0.205
23:57:43.372,0.0,-0.215
23:57:43.376,0.015,-0.195
23:57:43.380,-0.015,-0.2
23:57:43.384,0.005,-0.225
23:57:43.388,0.015,-0.225
23:57:43.392,0.0,-0.15
23:57:43.396,0.02,0.005
23:57:43.400,0.03,0.25
23:57:43.404,0.075,0.55
23:57:43.408,0.13,0.805
23:57:43.412,0.175,0.9
23:57:43.416,0.295,0.795
23:57:43.420,0.335,0.47
23:57:43.424,0.35,-0.15
23:57:43.428,0.275,-0.785
23:57:43.432,0.185,-1.115
23:57:43.436,-0.04,-1.165
23:57:43.440,-0.27,-1.05
23:57:43.444,-0.405,-0.85
23:57:43.448,-0.44,-0.685
23:57:43.452,-0.39,-0.545
23:57:43.456,-0.31,-0.43
23:57:43.460,-0.215,-0.32
23:57:43.464,-0.115,-0.255
23:57:43.468,-0.05,-0.255
23:57:43.472,-0.005,-0.245
23:57:43.476,0.015,-0.24
23:57:43.480,0.015,-0.245
23:57:43.484,0.0,-0.235
23:57:43.488,0.015,-0.24
23:57:43.492,0.02,-0.235
23:57:43.496,0.025,-0.225
23:57:43.500,0.015,-0.23
23:57:43.504,0.015,-0.235
23:57:43.508,0.015,-0.26
23:57:43.512,-0.005,-0.265
23:57:43.516,-0.005,-0.26
23:57:43.520,-0.02,-0.255
23:57:43.524,-0.005,-0.26
23:57:43.528,-0.005,-0.26
23:57:43.532,0.005,-0.24
23:57:43.536,0.02,-0.255
23:57:43.540,0.015,-0.25
23:57:43.544,0.035,-0.24
23:57:43.548,0.035,-0.235
23:57:43.552,0.04,-0.24
23:57:43.556,0.04,-0.22
23:57:43.560,0.05,-0.18
23:57:43.564,0.07,-0.155
23:57:43.568,0.09,-0.15
23:57:43.572,0.085,-0.145
23:57:43.576,0.085,-0.15
23:57:43.580,0.055,-0.15
23:57:43.584,0.05,-0.16
23:57:43.588,0.015,-0.165
23:57:43.592,0.0,-0.18
23:57:43.596,-0.01,-0.185
23:57:43.600,-0.03,-0.165
23:57:43.604,-0.005,-0.16
23:57:43.608,-0.005,-0.165
23:57:43.612,-0.02,-0.175
23:57:43.616,-0.005,-0.175
23:57:43.620,-0.005,-0.155
23:57:43.624,0.0,-0.16
23:57:43.628,0.0,-0.15
23:57:43.632,-0.005,-0.16
23:57:43.636,0.015,-0.14
23:57:43.640,-0.01,-0.135
23:57:43.644,0.01,-0.125
23:57:43.648,0.01,-0.115
23:57:43.652,0.005,-0.09
23:57:43.656,0.005,-0.08
23:57:43.660,0.005,-0.1
23:57:43.664,0.015,-0.08
23:57:43.668,0.02,-0.07
23:57:43.672,0.025,-0.11
23:57:43.676,0.035,-0.12
23:57:43.680,0.03,-0.12
23:57:43.684,0.025,-0.14
23:57:43.688,0.045,-0.14
23:57:43.692,0.045,-0.15
23:57:43.696,0.04,-0.165
23:57:43.700,0.035,-0.165
23:57:43.704,0.035,-0.14
23:57:43.708,0.04,-0.16
23:57:43.712,0.045,-0.15
23:57:43.716,0.06,-0.14
23:57:43.720,0.04,-0.16
23:57:43.724,0.06,-0.175
23:57:43.728,0.065,-0.165
23:57:43.732,0.035,-0.175
23:57:43.736,0.04,-0.17
23:57:43.740,0.02,-0.175
23:57:43.744,0.02,-0.18
23:57:43.748,0.015,-0.14
23:57:43.752,0.01,-0.13
23:57:43.756,0.07,-0.14
23:57:43.760,0.08,-0.155
23:57:43.764,0.07,-0.15
23:57:43.768,0.08,-0.16
23:57:43.772,0.075,-0.16
23:57:43.776,0.095,-0.14
23:57:43.780,0.095,-0.16
23:57:43.784,0.09,-0.135
23:57:43.788,0.11,-0.125
23:57:43.792,0.11,-0.115
23:57:43.796,0.13,-0.1
23:57:43.800,0.09,-0.12
23:57:43.804,0.075,-0.135
23:57:43.808,0.05,-0.15
23:57:43.812,0.035,-0.17
23:57:43.816,0.005,-0.17
23:57:43.820,0.0,-0.175
23:57:43.824,0.01,-0.185
23:57:43.828,0.005,-0.195
23:57:43.832,0.005,-0.17
23:57:43.836,0.0,-0.16
23:57:43.840,0.01,-0.185
23:57:43.844,0.02,-0.19
23:57:43.848,0.01,-0.185
23:57:43.852,0.015,-0.19
23:57:43.856,0.005,-0.16
23:57:43.860,0.025,-0.18
23:57:43.864,0.02,-0.195
23:57:43.868,0.01,-0.2
23:57:43.872,0.005,-0.185
23:57:43.876,-0.005,-0.205
23:57:43.880,-0.005,-0.2
23:57:43.884,0.005,-0.2
23:57:43.888,0.015,-0.19
23:57:43.892,0.03,-0.185
23:57:43.896,0.01,-0.175
23:57:43.900,0.005,-0.185
23:57:43.904,0.01,-0.185
23:57:43.908,0.01,-0.18
23:57:43.912,0.015,-0.185
23:57:43.916,0.015,-0.165
23:57:43.920,0.02,-0.17
23:57:43.924,0.02,-0.165
23:57:43.928,0.02,-0.14
23:57:43.932,0.025,-0.075
23:57:43.936,0.035,0.105
23:57:43.940,0.075,0.385
23:57:43.944,0.1,0.655
23:57:43.948,0.16,0.87
23:57:43.952,0.215,0.875
23:57:43.956,0.29,0.7
23:57:43.960,0.36,0.21
23:57:43.964,0.355,-0.49
23:57:43.968,0.275,-1.01
23:57:43.972,0.2,-1.25
23:57:43.976,0.075,-1.245
23:57:43.980,-0.095,-1.085
23:57:43.984,-0.23,-0.945
23:57:43.988,-0.27,-0.81
23:57:43.992,-0.255,-0.635
23:57:43.996,-0.235,-0.44
23:57:44.000,-0.195,-0.295
23:57:44.004,-0.09,-0.205
23:57:44.008,0.005,-0.17
23:57:44.012,0.06,-0.16
23:57:44.016,0.07,-0.18
23:57:44.020,0.055,-0.195
23:57:44.024,0.02,-0.185
23:57:44.028,0.01,-0.205
23:57:44.032,0.0,-0.225
23:57:44.036,0.005,-0.22
23:57:44.040,-0.03,-0.225
23:57:44.044,-0.015,-0.2
23:57:44.048,0.0,-0.21
23:57:44.052,-0.005,-0.205
23:57:44.056,-0.02,-0.24
23:57:44.060,-0.005,-0.225
23:57:44.064,-0.015,-0.215
23:57:44.068,0.0,-0.23
23:57:44.072,-0.02,-0.23
23:57:44.076,-0.025,-0.22
23:57:44.080,-0.01,-0.215
23:57:44.084,-0.005,-0.215
23:57:44.088,0.0,-0.205
23:57:44.092,-0.005,-0.21
23:57:44.096,0.0,-0.22
23:57:44.100,0.0,-0.21
23:57:44.104,-0.01,-0.185
23:57:44.108,-0.01,-0.185
23:57:44.112,-0.01,-0.195
23:57:44.116,-0.015,-0.195
23:57:44.120,-0.005,-0.185
23:57:44.124,0.005,-0.18
23:57:44.128,-0.015,-0.175
23:57:44.132,-0.005,-0.18
23:57:44.136,-0.025,-0.17
23:57:44.140,0.0,-0.165
23:57:44.144,-0.01,-0.16
23:57:44.148,0.0,-0.16
23:57:44.152,0.025,-0.165
23:57:44.156,0.005,-0.155
23:57:44.160,0.0,-0.145
23:57:44.164,0.03,-0.155
23:57:44.168,0.025,-0.16
23:57:44.172,0.015,-0.15
23:57:44.176,0.0,-0.155
23:57:44.180,0.015,-0.15
23:57:44.184,0.005,-0.13
23:57:44.188,0.015,-0.11
23:57:44.192,0.025,-0.1
23:57:44.196,0.03,-0.07
23:57:44.200,0.03,-0.085
23:57:44.204,0.055,-0.09
23:57:44.208,0.07,-0.1
23:57:44.212,0.075,-0.105
23:57:44.216,0.075,-0.125
23:57:44.220,0.1,-0.125
23:57:44.224,0.105,-0.1
23:57:44.228,0.125,-0.105
23:57:44.232,0.115,-0.11
23:57:44.236,0.11,-0.135
23:57:44.240,0.09,-0.135
23:57:44.244,0.07,-0.135
23:57:44.248,0.04,-0.16
23:57:44.252,0.02,-0.17
23:57:44.256,0.01,-0.18
23:57:44.260,0.005,-0.17
23:57:44.264,-0.015,-0.15
23:57:44.268,-0.005,-0.15
23:57:44.272,-0.01,-0.14
23:57:44.276,0.015,-0.135
23:57:44.280,-0.02,-0.125
23:57:44.284,-0.01,-0.125
23:57:44.288,0.0,-0.12
23:57:44.292,-0.015,-0.12
23:57:44.296,-0.005,-0.13
23:57:44.300,-0.01,-0.12
23:57:44.304,0.0,-0.105
23:57:44.308,-0.01,-0.12
23:57:44.312,-0.015,-0.125
23:57:44.316,0.005,-0.13
23:57:44.320,-0.02,-0.135
23:57:44.324,-0.01,-0.13
23:57:44.328,-0.025,-0.15
23:57:44.332,-0.03,-0.135
23:57:44.336,-0.03,-0.145
23:57:44.340,-0.015,-0.155
23:57:44.344,-0.03,-0.16
23:57:44.348,-0.025,-0.165
23:57:44.352,-0.035,-0.155
23:57:44.356,-0.045,-0.16
23:57:44.360,-0.035,-0.165
23:57:44.364,-0.035,-0.16
23:57:44.368,-0.03,-0.17
23:57:44.372,-0.03,-0.155
23:57:44.376,-0.025,-0.155
23:57:44.380,-0.025,-0.17
23:57:44.384,-0.015,-0.18
23:57:44.388,-0.015,-0.18
23:57:44.392,-0.03,-0.185
23:57:44.396,-0.04,-0.205
23:57:44.400,-0.045,-0.21
23:57:44.404,-0.06,-0.215
23:57:44.408,-0.05,-0.205
23:57:44.412,-0.04,-0.15
23:57:44.416,-0.01,-0.015
23:57:44.420,0.025,0.23
23:57:44.424,0.05,0.5
23:57:44.428,0.105,0.755
23:57:44.432,0.185,0.985
23:57:44.436,0.28,1.02
23:57:44.440,0.36,0.74
23:57:44.444,0.37,0.09
23:57:44.448,0.295,-0.575
23:57:44.452,0.185,-0.98
23:57:44.456,-0.025,-1.07
23:57:44.460,-0.235,-0.99
23:57:44.464,-0.37,-0.83
23:57:44.468,-0.4,-0.66
23:57:44.472,-0.39,-0.51
23:57:44.476,-0.33,-0.39
23:57:44.480,-0.27,-0.29
23:57:44.484,-0.175,-0.25
23:57:44.488,-0.115,-0.25
23:57:44.492,-0.04,-0.265
23:57:44.496,-0.04,-0.25
23:57:44.500,-0.035,-0.25
23:57:44.504,-0.025,-0.26
23:57:44.508,-0.02,-0.255
23:57:44.512,-0.03,-0.255
23:57:44.516,-0.045,-0.25
23:57:44.520,-0.04,-0.245
23:57:44.524,-0.045,-0.255
23:57:44.528,-0.045,-0.26
23:57:44.532,-0.045,-0.27
23:57:44.536,-0.035,-0.245
23:57:44.540,-0.035,-0.245
23:57:44.544,-0.045,-0.245
23:57:44.548,-0.06,-0.245
23:57:44.552,-0.04,-0.24
23:57:44.556,-0.05,-0.23
23:57:44.560,-0.055,-0.225
23:57:44.564,-0.05,-0.22
23:57:44.568,-0.05,-0.22
23:57:44.572,-0.04,-0.23
23:57:44.576,-0.04,-0.205
23:57:44.580,-0.03,-0.195
23:57:44.584,-0.03,-0.19
23:57:44.588,-0.03,-0.19
23:57:44.592,-0.03,-0.16
23:57:44.596,-0.02,-0.16
23:57:44.600,-0.01,-0.16
23:57:44.604,0.0,-0.16
23:57:44.608,-0.005,-0.15
23:57:44.612,-0.01,-0.18
23:57:44.616,-0.01,-0.18
23:57:44.620,-0.025,-0.18
23:57:44.624,-0.02,-0.165
23:57:44.628,-0.015,-0.18
23:57:44.632,-0.005,-0.16
23:57:44.636,0.0,-0.16
23:57:44.640,0.02,-0.145
23:57:44.644,0.025,-0.155
23:57:44.648,0.02,-0.155
23:57:44.652,0.025,-0.145
23:57:44.656,0.055,-0.08
23:57:44.660,0.06,-0.065
23:57:44.664,0.1,-0.03
23:57:44.668,0.11,-0.02
23:57:44.672,0.075,-0.04
23:57:44.676,0.08,-0.06
23:57:44.680,0.065,-0.065
23:57:44.684,0.06,-0.075
23:57:44.688,0.01,-0.095
23:57:44.692,0.015,-0.15
23:57:44.696,-0.01,-0.155
23:57:44.700,-0.015,-0.135
23:57:44.704,-0.01,-0.16
23:57:44.708,-0.01,-0.165
23:57:44.712,-0.01,-0.175
23:57:44.716,-0.035,-0.165
23:57:44.720,-0.01,-0.175
23:57:44.724,0.0,-0.17
23:57:44.728,0.0,-0.17
23:57:44.732,0.0,-0.16
23:57:44.736,0.005,-0.16
23:57:44.740,-0.01,-0.155
23:57:44.744,0.0,-0.145
23:57:44.748,0.0,-0.15
23:57:44.752,0.005,-0.14
23:57:44.756,-0.02,-0.125
23:57:44.760,-0.005,-0.14
23:57:44.764,0.005,-0.14
23:57:44.768,-0.005,-0.12
23:57:44.772,0.02,-0.13
23:57:44.776,0.0,-0.14
23:57:44.780,-0.005,-0.14
23:57:44.784,-0.01,-0.12
23:57:44.788,0.0,-0.125
23:57:44.792,0.01,-0.135
23:57:44.796,0.0,-0.14
23:57:44.800,0.0,-0.135
23:57:44.804,0.01,-0.13
23:57:44.808,0.0,-0.12
23:57:44.812,0.005,-0.16
23:57:44.816,0.02,-0.2
23:57:44.820,0.03,-0.17
23:57:44.824,0.035,-0.02
23:57:44.828,0.055,0.195
23:57:44.832,0.095,0.46
23:57:44.836,0.13,0.71
23:57:44.840,0.205,0.74
23:57:44.844,0.29,0.605
23:57:44.848,0.315,0.255
23:57:44.852,0.26,-0.345
23:57:44.856,0.15,-0.865
23:57:44.860,0.0,-1.055
23:57:44.864,-0.2,-1.01
23:57:44.868,-0.34,-0.89
23:57:44.872,-0.36,-0.705
23:57:44.876,-0.31,-0.525
23:57:44.880,-0.23,-0.365
23:57:44.884,-0.155,-0.225
23:57:44.888,-0.065,-0.15
23:57:44.892,0.005,-0.155
23:57:44.896,0.025,-0.185
23:57:44.900,0.04,-0.19
23:57:44.904,0.02,-0.235
23:57:44.908,0.0,-0.245
23:57:44.912,0.0,-0.23
23:57:44.916,0.0,-0.235
23:57:44.920,-0.035,-0.22
23:57:44.924,-0.015,-0.25
23:57:44.928,-0.01,-0.235
23:57:44.932,-0.025,-0.22
23:57:44.936,-0.04,-0.24
23:57:44.940,-0.03,-0.24
23:57:44.944,-0.01,-0.225
23:57:44.948,-0.03,-0.21
23:57:44.952,-0.02,-0.205
23:57:44.956,-0.025,-0.2
23:57:44.960,-0.015,-0.2
23:57:44.964,-0.025,-0.21
23:57:44.968,-0.02,-0.205
23:57:44.972,-0.015,-0.195
23:57:44.976,-0.015,-0.18
23:57:44.980,-0.01,-0.17
23:57:44.984,-0.035,-0.165
23:57:44.988,-0.01,-0.16
23:57:44.992,-0.015,-0.145
23:57:44.996,-0.005,-0.14
23:57:45.000,-0.01,-0.12
23:57:45.004,-0.015,-0.125
23:57:45.008,0.0,-0.13
23:57:45.012,0.0,-0.095
23:57:45.016,0.005,-0.085
23:57:45.020,0.01,-0.085
23:57:45.024,0.02,-0.09
23:57:45.028,0.015,-0.07
23:57:45.032,0.02,-0.05
23:57:45.036,0.03,-0.065
23:57:45.040,0.045,-0.055
23:57:45.044,0.05,-0.04
23:57:45.048,0.06,-0.065
23:57:45.052,0.065,-0.06
23:57:45.056,0.05,-0.035
23:57:45.060,0.025,-0.05
23:57:45.064,0.03,-0.04
23:57:45.068,0.04,-0.05
23:57:45.072,0.05,-0.03
23:57:45.076,0.07,-0.02
23:57:45.080,0.075,-0.02
23:57:45.084,0.095,-0.045
23:57:45.088,0.105,-0.075
23:57:45.092,0.115,-0.085
23:57:45.096,0.115,-0.055
23:57:45.100,0.135,-0.04
23:57:45.104,0.15,-0.045
23:57:45.108,0.16,-0.075
23:57:45.112,0.14,-0.075
23:57:45.116,0.115,-0.1
23:57:45.120,0.105,-0.085
23:57:45.124,0.06,-0.1
23:57:45.128,0.05,-0.12
23:57:45.132,0.02,-0.135
23:57:45.136,0.035,-0.13
23:57:45.140,-0.015,-0.13
23:57:45.144,-0.005,-0.145
23:57:45.148,0.0,-0.14
23:57:45.152,0.0,-0.125
23:57:45.156,0.01,-0.135
23:57:45.160,0.005,-0.135
23:57:45.164,-0.005,-0.12
23:57:45.168,0.005,-0.14
23:57:45.172,0.01,-0.14
23:57:45.176,0.01,-0.14
23:57:45.180,-0.01,-0.135
23:57:45.184,-0.005,-0.135
23:57:45.188,0.01,-0.145
23:57:45.192,0.0,-0.15
23:57:45.196,-0.01,-0.15
23:57:45.200,0.01,-0.15
23:57:45.204,0.0,-0.145
23:57:45.208,0.0,-0.155
23:57:45.212,0.005,-0.17
23:57:45.216,0.0,-0.16
23:57:45.220,-0.01,-0.16
23:57:45.224,0.0,-0.175
23:57:45.228,0.0,-0.18
23:57:45.232,-0.025,-0.175
23:57:45.236,0.0,-0.175
23:57:45.240,-0.005,-0.18
23:57:45.244,-0.015,-0.175
23:57:45.248,-0.01,-0.175
23:57:45.252,0.0,-0.165
23:57:45.256,0.005,-0.17
23:57:45.260,-0.015,-0.16
23:57:45.264,0.025,-0.175
23:57:45.268,0.01,-0.18
23:57:45.272,0.005,-0.205
23:57:45.276,-0.005,-0.22
23:57:45.280,-0.015,-0.215
23:57:45.284,-0.015,-0.21
23:57:45.288,-0.015,-0.19
23:57:45.292,-0.03,-0.21
23:57:45.296,0.0,-0.23
23:57:45.300,0.005,-0.225
23:57:45.304,0.01,-0.245
23:57:45.308,0.025,-0.27
23:57:45.312,0.015,-0.245
23:57:45.316,0.035,-0.22
23:57:45.320,0.035,-0.185
23:57:45.324,0.055,-0.155
23:57:45.328,0.03,-0.16
23:57:45.332,0.025,-0.17
23:57:45.336,0.015,-0.15
23:57:45.340,0.0,-0.18
23:57:45.344,-0.005,-0.18
23:57:45.348,0.0,-0.19
23:57:45.352,-0.035,-0.215
23:57:45.356,-0.03,-0.2
23:57:45.360,-0.025,-0.21
23:57:45.364,-0.01,-0.215
23:57:45.368,-0.025,-0.19
23:57:45.372,-0.025,-0.2
23:57:45.376,-0.025,-0.19
23:57:45.380,-0.03,-0.205
23:57:45.384,-0.04,-0.2
23:57:45.388,-0.03,-0.205
23:57:45.392,-0.04,-0.21
23:57:45.396,-0.045,-0.205
23:57:45.400,-0.045,-0.215
23:57:45.404,-0.025,-0.21
23:57:45.408,-0.035,-0.2
23:57:45.412,-0.03,-0.2
23:57:45.416,-0.025,-0.215
23:57:45.420,-0.01,-0.205
23:57:45.424,-0.03,-0.185
23:57:45.428,-0.02,-0.195
23:57:45.432,-0.005,-0.2
23:57:45.436,-0.005,-0.19
23:57:45.440,-0.005,-0.175
23:57:45.444,-0.005,-0.09
23:57:45.448,0.0,0.125
23:57:45.452,0.025,0.45
23:57:45.456,0.06,0.74
23:57:45.460,0.135,0.955
23:57:45.464,0.23,0.95
23:57:45.468,0.325,0.72
23:57:45.472,0.345,0.24
23:57:45.476,0.27,-0.43
23:57:45.480,0.15,-0.885
23:57:45.484,0.0,-1.11
23:57:45.488,-0.22,-1.085
23:57:45.492,-0.375,-0.915
23:57:45.496,-0.45,-0.73
23:57:45.500,-0.415,-0.59
23:57:45.504,-0.37,-0.465
23:57:45.508,-0.3,-0.365
23:57:45.512,-0.19,-0.285
23:57:45.516,-0.1,-0.28
23:57:45.520,-0.02,-0.28
23:57:45.524,0.02,-0.31
23:57:45.528,0.015,-0.32
23:57:45.532,0.05,-0.31
23:57:45.536,0.045,-0.26
23:57:45.540,0.035,-0.235
23:57:45.544,0.06,-0.225
23:57:45.548,0.065,-0.22
23:57:45.552,0.055,-0.21
23:57:45.556,0.035,-0.205
23:57:45.560,0.02,-0.215
23:57:45.564,0.025,-0.255
23:57:45.568,-0.015,-0.27
23:57:45.572,-0.035,-0.26
23:57:45.576,-0.025,-0.255
23:57:45.580,-0.04,-0.255
23:57:45.584,-0.04,-0.25
23:57:45.588,-0.045,-0.24
23:57:45.592,-0.025,-0.215
23:57:45.596,0.0,-0.22
23:57:45.600,-0.01,-0.21
23:57:45.604,-0.015,-0.22
23:57:45.608,0.01,-0.21
23:57:45.612,-0.02,-0.205
23:57:45.616,-0.01,-0.19
23:57:45.620,-0.01,-0.195
23:57:45.624,-0.01,-0.17
23:57:45.628,0.0,-0.175
23:57:45.632,0.005,-0.16
23:57:45.636,0.0,-0.15
23:57:45.640,0.02,-0.14
23:57:45.644,0.01,-0.15
23:57:45.648,0.02,-0.145
23:57:45.652,0.02,-0.115
23:57:45.656,0.025,-0.12
23:57:45.660,0.035,-0.105
23:57:45.664,0.025,-0.105
23:57:45.668,0.025,-0.12
23:57:45.672,0.04,-0.11
23:57:45.676,0.045,-0.125
23:57:45.680,0.045,-0.095
23:57:45.684,0.045,-0.06
23:57:45.688,0.03,-0.08
23:57:45.692,0.04,-0.065
23:57:45.696,0.045,-0.03
23:57:45.700,0.06,-0.01
23:57:45.704,0.075,-0.025
23:57:45.708,0.085,-0.025
23:57:45.712,0.065,-0.045
23:57:45.716,0.085,-0.03
23:57:45.720,0.05,-0.025
23:57:45.724,0.05,-0.04
23:57:45.728,0.045,-0.05
23:57:45.732,0.06,-0.04
23:57:45.736,0.06,-0.03
23:57:45.740,0.085,-0.06
23:57:45.744,0.11,-0.07
23:57:45.748,0.115,-0.08
23:57:45.752,0.095,-0.1
23:57:45.756,0.11,-0.13
23:57:45.760,0.13,-0.12
23:57:45.764,0.11,-0.11
23:57:45.768,0.105,-0.11
23:57:45.772,0.13,-0.125
23:57:45.776,0.115,-0.1
23:57:45.780,0.125,-0.08
23:57:45.784,0.09,-0.1
23:57:45.788,0.065,-0.12
23:57:45.792,0.035,-0.135
23:57:45.796,0.035,-0.16
23:57:45.800,0.01,-0.13
23:57:45.804,0.01,-0.12
23:57:45.808,-0.01,-0.145
23:57:45.812,0.0,-0.14
23:57:45.816,0.005,-0.135
23:57:45.820,0.01,-0.135
23:57:45.824,-0.01,-0.145
23:57:45.828,-0.005,-0.155
23:57:45.832,-0.005,-0.155
23:57:45.836,-0.005,-0.17
23:57:45.840,0.005,-0.165
23:57:45.844,0.005,-0.14
23:57:45.848,-0.005,-0.15
23:57:45.852,0.01,-0.15
23:57:45.856,0.0,-0.16
23:57:45.860,0.0,-0.14
23:57:45.864,0.01,-0.155
23:57:45.868,0.0,-0.16
23:57:45.872,0.0,-0.18
23:57:45.876,0.0,-0.18
23:57:45.880,0.0,-0.185
23:57:45.884,0.005,-0.17
23:57:45.888,-0.015,-0.17
23:57:45.892,0.0,-0.195
23:57:45.896,0.01,-0.185
23:57:45.900,0.01,-0.185
23:57:45.904,-0.01,-0.19
23:57:45.908,0.015,-0.185
23:57:45.912,0.02,-0.185
23:57:45.916,0.005,-0.175
23:57:45.920,0.02,-0.195
23:57:45.924,0.02,-0.195
23:57:45.928,0.01,-0.185
23:57:45.932,0.02,-0.2
23:57:45.936,0.015,-0.21
23:57:45.940,0.005,-0.22
23:57:45.944,-0.005,-0.235
23:57:45.948,-0.02,-0.22
23:57:45.952,-0.02,-0.23
23:57:45.956,0.0,-0.23
23:57:45.960,-0.005,-0.24
23:57:45.964,0.0,-0.24
23:57:45.968,0.025,-0.27
23:57:45.972,0.025,-0.28
23:57:45.976,0.05,-0.255
23:57:45.980,0.035,-0.21
23:57:45.984,0.06,-0.115
23:57:45.988,0.07,0.025
23:57:45.992,0.105,0.29
23:57:45.996,0.135,0.62
23:57:46.000,0.145,0.92
23:57:46.004,0.19,1.05
23:57:46.008,0.26,0.995
23:57:46.012,0.32,0.68
23:57:46.016,0.34,-0.035
23:57:46.020,0.315,-0.73
23:57:46.024,0.23,-1.15
23:57:46.028,0.045,-1.255
23:57:46.032,-0.16,-1.125
23:57:46.036,-0.32,-0.92
23:57:46.040,-0.395,-0.775
23:57:46.044,-0.38,-0.635
23:57:46.048,-0.33,-0.505
23:57:46.052,-0.295,-0.385
23:57:46.056,-0.2,-0.285
23:57:46.060,-0.115,-0.26
23:57:46.064,-0.08,-0.245
23:57:46.068,-0.05,-0.25
23:57:46.072,-0.015,-0.275
23:57:46.076,-0.01,-0.26
23:57:46.080,-0.005,-0.25
23:57:46.084,-0.035,-0.26
23:57:46.088,-0.02,-0.26
23:57:46.092,-0.05,-0.235
23:57:46.096,-0.03,-0.25
23:57:46.100,-0.04,-0.265
23:57:46.104,-0.035,-0.275
23:57:46.108,-0.04,-0.26
23:57:46.112,-0.04,-0.255
23:57:46.116,-0.04,-0.245
23:57:46.120,-0.05,-0.245
23:57:46.124,-0.06,-0.23
23:57:46.128,-0.05,-0.24
23:57:46.132,-0.045,-0.23
23:57:46.136,-0.03,-0.215
23:57:46.140,-0.04,-0.21
23:57:46.144,-0.045,-0.215
23:57:46.148,-0.045,-0.22
23:57:46.152,-0.04,-0.235
23:57:46.156,-0.02,-0.23
23:57:46.160,-0.035,-0.22
23:57:46.164,-0.07,-0.215
23:57:46.168,-0.05,-0.23
23:57:46.172,-0.05,-0.22
23:57:46.176,-0.03,-0.185
23:57:46.180,-0.01,-0.195
23:57:46.184,-0.005,-0.18
23:57:46.188,-0.02,-0.19
23:57:46.192,0.0,-0.21
23:57:46.196,0.03,-0.2
23:57:46.200,0.005,-0.2
23:57:46.204,0.025,-0.175
23:57:46.208,0.04,-0.16
23:57:46.212,0.03,-0.13
23:57:46.216,0.05,-0.135
23:57:46.220,0.05,-0.13
23:57:46.224,0.035,-0.11
23:57:46.228,0.0,-0.14
23:57:46.232,-0.02,-0.16
23:57:46.236,-0.03,-0.135
23:57:46.240,-0.035,-0.12
23:57:46.244,-0.045,-0.14
23:57:46.248,-0.03,-0.13
23:57:46.252,-0.03,-0.12
23:57:46.256,-0.005,-0.115
23:57:46.260,-0.035,-0.13
23:57:46.264,0.0,-0.14
23:57:46.268,-0.005,-0.155
23:57:46.272,-0.005,-0.16
23:57:46.276,-0.01,-0.18
23:57:46.280,0.0,-0.185
23:57:46.284,-0.01,-0.195
23:57:46.288,0.0,-0.205
23:57:46.292,-0.015,-0.205
23:57:46.296,-0.025,-0.2
23:57:46.300,-0.01,-0.215
23:57:46.304,-0.005,-0.19
23:57:46.308,-0.005,-0.19
23:57:46.312,-0.01,-0.195
23:57:46.316,-0.01,-0.2
23:57:46.320,-0.02,-0.17
23:57:46.324,-0.02,-0.175
23:57:46.328,-0.02,-0.16
23:57:46.332,-0.015,-0.175
23:57:46.336,-0.02,-0.165
23:57:46.340,-0.03,-0.145
23:57:46.344,-0.035,-0.14
23:57:46.348,-0.03,-0.16
23:57:46.352,-0.04,-0.155
23:57:46.356,-0.015,-0.15
23:57:46.360,-0.005,-0.14
23:57:46.364,-0.02,-0.135
23:57:46.368,-0.015,-0.155
23:57:46.372,0.005,-0.19
23:57:46.376,-0.015,-0.175
23:57:46.380,-0.03,-0.195
23:57:46.384,-0.015,-0.205
23:57:46.388,-0.04,-0.215
23:57:46.392,-0.035,-0.22
23:57:46.396,-0.05,-0.225
23:57:46.400,-0.02,-0.23
23:57:46.404,-0.025,-0.225
23:57:46.408,-0.02,-0.25
23:57:46.412,0.01,-0.27
23:57:46.416,0.0,-0.285
23:57:46.420,0.005,-0.26
23:57:46.424,0.015,-0.195
23:57:46.428,0.03,-0.165
23:57:46.432,0.03,-0.165
23:57:46.436,0.04,-0.175
23:57:46.440,0.025,-0.19
23:57:46.444,0.015,-0.185
23:57:46.448,-0.015,-0.19
23:57:46.452,-0.03,-0.215
23:57:46.456,-0.03,-0.22
23:57:46.460,-0.065,-0.23
23:57:46.464,-0.035,-0.21
23:57:46.468,-0.045,-0.205
23:57:46.472,-0.03,-0.2
23:57:46.476,-0.055,-0.22
23:57:46.480,-0.035,-0.235
23:57:46.484,-0.035,-0.215
23:57:46.488,-0.03,-0.14
23:57:46.492,-0.035,0.03
23:57:46.496,-0.01,0.31
23:57:46.500,0.035,0.57
23:57:46.504,0.07,0.71
23:57:46.508,0.145,0.69
23:57:46.512,0.23,0.49
23:57:46.516,0.285,0.065
23:57:46.520,0.295,-0.565
23:57:46.524,0.265,-1.06
23:57:46.528,0.17,-1.22
23:57:46.532,-0.03,-1.17
23:57:46.536,-0.23,-1.01
23:57:46.540,-0.355,-0.835
23:57:46.544,-0.38,-0.695
23:57:46.548,-0.36,-0.55
23:57:46.552,-0.315,-0.42
23:57:46.556,-0.255,-0.31
23:57:46.560,-0.16,-0.25
23:57:46.564,-0.095,-0.23
23:57:46.568,-0.03,-0.245
23:57:46.572,-0.02,-0.23
23:57:46.576,0.005,-0.23
23:57:46.580,-0.02,-0.235
23:57:46.584,-0.02,-0.245
23:57:46.588,-0.02,-0.27
23:57:46.592,-0.025,-0.265
23:57:46.596,-0.05,-0.26
23:57:46.600,-0.04,-0.275
23:57:46.604,-0.045,-0.28
23:57:46.608,-0.045,-0.27
23:57:46.612,-0.05,-0.275
23:57:46.616,-0.03,-0.26
23:57:46.620,-0.03,-0.275
23:57:46.624,-0.01,-0.285
23:57:46.628,-0.025,-0.305
23:57:46.632,-0.015,-0.295
23:57:46.636,0.0,-0.27
23:57:46.640,0.0,-0.235
23:57:46.644,0.01,-0.215
23:57:46.648,0.02,-0.19
23:57:46.652,0.02,-0.185
23:57:46.656,0.04,-0.2
23:57:46.660,0.02,-0.19
23:57:46.664,-0.01,-0.19
23:57:46.668,-0.02,-0.21
23:57:46.672,-0.04,-0.205
23:57:46.676,-0.055,-0.2
23:57:46.680,-0.06,-0.2
23:57:46.684,-0.07,-0.205
23:57:46.688,-0.06,-0.195
23:57:46.692,-0.06,-0.195
23:57:46.696,-0.04,-0.19
23:57:46.700,-0.05,-0.19
23:57:46.704,-0.06,-0.185
23:57:46.708,-0.045,-0.185
23:57:46.712,-0.035,-0.17
23:57:46.716,-0.045,-0.18
23:57:46.720,-0.025,-0.155
23:57:46.724,-0.025,-0.155
23:57:46.728,-0.02,-0.15
23:57:46.732,-0.04,-0.15
23:57:46.736,-0.015,-0.13
23:57:46.740,-0.015,-0.13
23:57:46.744,-0.015,-0.14
23:57:46.748,-0.015,-0.135
23:57:46.752,-0.01,-0.14
23:57:46.756,-0.015,-0.135
23:57:46.760,-0.005,-0.135
23:57:46.764,0.0,-0.155
23:57:46.768,-0.015,-0.175
23:57:46.772,-0.02,-0.18
23:57:46.776,-0.02,-0.2
23:57:46.780,0.005,-0.205
23:57:46.784,-0.01,-0.195
23:57:46.788,-0.015,-0.205
23:57:46.792,-0.01,-0.22
23:57:46.796,0.005,-0.225
23:57:46.800,0.0,-0.195
23:57:46.804,0.0,-0.21
23:57:46.808,0.025,-0.22
23:57:46.812,-0.005,-0.22
23:57:46.816,0.005,-0.2
23:57:46.820,0.005,-0.225
23:57:46.824,-0.005,-0.205
23:57:46.828,-0.01,-0.215
23:57:46.832,-0.015,-0.215
23:57:46.836,0.0,-0.18
23:57:46.840,0.025,-0.155
23:57:46.844,0.035,-0.18
23:57:46.848,0.03,-0.17
23:57:46.852,0.04,-0.165
23:57:46.856,0.045,-0.16
23:57:46.860,0.065,-0.14
23:57:46.864,0.06,-0.125
23:57:46.868,0.07,-0.11
23:57:46.872,0.105,-0.1
23:57:46.876,0.1,-0.105
23:57:46.880,0.085,-0.1
23:57:46.884,0.07,-0.11
23:57:46.888,0.05,-0.135
23:57:46.892,0.035,-0.16
23:57:46.896,0.0,-0.16
23:57:46.900,-0.01,-0.16
23:57:46.904,-0.015,-0.145
23:57:46.908,-0.025,-0.155
23:57:46.912,-0.02,-0.175
23:57:46.916,-0.01,-0.18
23:57:46.920,0.0,-0.17
23:57:46.924,-0.015,-0.175
23:57:46.928,-0.005,-0.18
23:57:46.932,-0.015,-0.195
23:57:46.936,-0.01,-0.205
23:57:46.940,-0.01,-0.2
23:57:46.944,-0.015,-0.2
23:57:46.948,-0.005,-0.185
23:57:46.952,0.0,-0.19
23:57:46.956,-0.025,-0.205
23:57:46.960,-0.025,-0.2
23:57:46.964,-0.02,-0.195
23:57:46.968,-0.015,-0.185
23:57:46.972,-0.02,-0.21
23:57:46.976,-0.01,-0.22
23:57:46.980,-0.005,-0.21
23:57:46.984,-0.005,-0.2
23:57:46.988,-0.01,-0.21
23:57:46.992,-0.01,-0.215
23:57:46.996,-0.02,-0.21
23:57:47.000,-0.02,-0.21
23:57:47.004,-0.015,-0.18
23:57:47.008,-0.015,-0.195
23:57:47.012,-0.015,-0.2
23:57:47.016,-0.02,-0.175
23:57:47.020,0.0,-0.185
23:57:47.024,-0.005,-0.185
23:57:47.028,0.0,-0.18
23:57:47.032,0.015,-0.2
23:57:47.036,-0.015,-0.21
23:57:47.040,-0.01,-0.225
23:57:47.044,-0.03,-0.23
23:57:47.048,-0.03,-0.21
23:57:47.052,-0.03,-0.195
23:57:47.056,-0.02,-0.21
23:57:47.060,-0.01,-0.23
23:57:47.064,0.0,-0.24
23:57:47.068,0.0,-0.245
23:57:47.072,0.0,-0.25
23:57:47.076,0.015,-0.23
23:57:47.080,0.035,-0.19
23:57:47.084,0.025,-0.17
23:57:47.088,0.05,-0.15
23:57:47.092,0.055,-0.14
23:57:47.096,0.045,-0.155
23:57:47.100,0.03,-0.16
23:57:47.104,0.0,-0.18
23:57:47.108,-0.005,-0.215
23:57:47.112,-0.035,-0.18
23:57:47.116,-0.045,-0.215
23:57:47.120,-0.045,-0.22
23:57:47.124,-0.045,-0.215
23:57:47.128,-0.045,-0.22
23:57:47.132,-0.035,-0.195
23:57:47.136,-0.025,-0.2
23:57:47.140,-0.035,-0.2
23:57:47.144,-0.025,-0.2
23:57:47.148,-0.035,-0.22
23:57:47.152,-0.06,-0.215
23:57:47.156,-0.035,-0.21
23:57:47.160,-0.035,-0.21
23:57:47.164,-0.02,-0.215
23:57:47.168,-0.04,-0.215
23:57:47.172,-0.03,-0.205
23:57:47.176,-0.035,-0.195
23:57:47.180,-0.045,-0.205
23:57:47.184,-0.02,-0.215
23:57:47.188,-0.03,-0.21
23:57:47.192,-0.035,-0.225
23:57:47.196,-0.04,-0.205
23:57:47.200,-0.02,-0.22
23:57:47.204,-0.025,-0.225
23:57:47.208,-0.055,-0.21
23:57:47.212,-0.055,-0.21
23:57:47.216,-0.03,-0.205
23:57:47.220,-0.01,-0.2
23:57:47.224,-0.02,-0.19
23:57:47.228,-0.035,-0.175
23:57:47.232,-0.04,-0.195
23:57:47.236,-0.03,-0.195
23:57:47.240,0.0,-0.195
23:57:47.244,-0.02,-0.19
23:57:47.248,-0.015,-0.205
23:57:47.252,-0.02,-0.22
23:57:47.256,-0.01,-0.2
23:57:47.260,-0.02,-0.22
23:57:47.264,-0.045,-0.24
23:57:47.268,-0.05,-0.245
23:57:47.272,-0.055,-0.23
23:57:47.276,-0.015,-0.205
23:57:47.280,-0.025,-0.245
23:57:47.284,-0.005,-0.26
23:57:47.288,-0.015,-0.275
23:57:47.292,0.0,-0.29
23:57:47.296,0.03,-0.24
23:57:47.300,0.03,-0.205
23:57:47.304,0.0,-0.18
23:57:47.308,0.015,-0.185
23:57:47.312,0.02,-0.175
23:57:47.316,0.02,-0.155
23:57:47.320,0.01,-0.17
23:57:47.324,0.0,-0.175
23:57:47.328,-0.035,-0.2
23:57:47.332,-0.045,-0.2
23:57:47.336,-0.04,-0.205
23:57:47.340,-0.045,-0.195
23:57:47.344,-0.04,-0.19
23:57:47.348,-0.055,-0.215
23:57:47.352,-0.04,-0.215
23:57:47.356,-0.035,-0.19
23:57:47.360,-0.05,-0.185
23:57:47.364,-0.045,-0.2
23:57:47.368,-0.05,-0.2
23:57:47.372,-0.06,-0.215
23:57:47.376,-0.055,-0.21
23:57:47.380,-0.06,-0.205
23:57:47.384,-0.035,-0.2
23:57:47.388,-0.03,-0.19
23:57:47.392,-0.04,-0.2
23:57:47.396,-0.065,-0.19
23:57:47.400,-0.055,-0.2
23:57:47.404,-0.055,-0.19
23:57:47.408,-0.045,-0.19
23:57:47.412,-0.04,-0.2
23:57:47.416,-0.04,-0.2
23:57:47.420,-0.045,-0.125
23:57:47.424,-0.045,0.065
23:57:47.428,-0.005,0.33
23:57:47.432,0.015,0.61
23:57:47.436,0.065,0.86
23:57:47.440,0.145,0.965
23:57:47.444,0.215,0.86
23:57:47.448,0.26,0.58
23:57:47.452,0.235,0.105
23:57:47.456,0.15,-0.485
23:57:47.460,0.04,-0.86
23:57:47.464,-0.14,-1.03
23:57:47.468,-0.34,-0.975
23:57:47.472,-0.46,-0.815
23:57:47.476,-0.48,-0.615
23:57:47.480,-0.435,-0.515
23:57:47.484,-0.37,-0.42
23:57:47.488,-0.28,-0.345
23:57:47.492,-0.195,-0.295
23:57:47.496,-0.13,-0.265
23:57:47.500,-0.075,-0.27
23:57:47.504,-0.03,-0.275
23:57:47.508,-0.025,-0.295
23:57:47.512,-0.025,-0.315
23:57:47.516,-0.005,-0.315
23:57:47.520,0.005,-0.275
23:57:47.524,0.005,-0.23
23:57:47.528,0.01,-0.225
23:57:47.532,0.015,-0.23
23:57:47.536,0.005,-0.22
23:57:47.540,-0.005,-0.205
23:57:47.544,-0.02,-0.23
23:57:47.548,-0.055,-0.225
23:57:47.552,-0.045,-0.245
23:57:47.556,-0.08,-0.255
23:57:47.560,-0.09,-0.255
23:57:47.564,-0.08,-0.225
23:57:47.568,-0.06,-0.235
23:57:47.572,-0.065,-0.22
23:57:47.576,-0.07,-0.205
23:57:47.580,-0.055,-0.22
23:57:47.584,-0.06,-0.215
23:57:47.588,-0.055,-0.19
23:57:47.592,-0.06,-0.195
23:57:47.596,-0.04,-0.18
23:57:47.600,-0.04,-0.18
23:57:47.604,-0.045,-0.155
23:57:47.608,-0.045,-0.145
23:57:47.612,-0.045,-0.16
23:57:47.616,-0.035,-0.15
23:57:47.620,-0.05,-0.135
23:57:47.624,-0.025,-0.13
23:57:47.628,-0.025,-0.12
23:57:47.632,-0.015,-0.105
23:57:47.636,-0.045,-0.105
23:57:47.640,-0.02,-0.11
23:57:47.644,-0.01,-0.1
23:57:47.648,-0.005,-0.095
23:57:47.652,0.0,-0.1
23:57:47.656,-0.01,-0.105
23:57:47.660,-0.005,-0.105
23:57:47.664,0.0,-0.105
23:57:47.668,0.01,-0.085
23:57:47.672,0.0,-0.08
23:57:47.676,0.015,-0.09
23:57:47.680,0.01,-0.085
23:57:47.684,0.02,-0.06
23:57:47.688,0.03,-0.07
23:57:47.692,0.045,-0.07
23:57:47.696,0.035,-0.08
23:57:47.700,0.03,-0.07
23:57:47.704,0.02,-0.075
23:57:47.708,0.025,-0.055
23:57:47.712,0.005,-0.035
23:57:47.716,0.03,-0.025
23:57:47.720,0.045,-0.04
23:57:47.724,0.05,-0.045
23:57:47.728,0.06,-0.085
23:57:47.732,0.065,-0.07
23:57:47.736,0.07,-0.085
23:57:47.740,0.065,-0.075
23:57:47.744,0.08,-0.095
23:57:47.748,0.1,-0.075
23:57:47.752,0.095,-0.075
23:57:47.756,0.08,-0.095
23:57:47.760,0.085,-0.095
23:57:47.764,0.07,-0.1
23:57:47.768,0.04,-0.1
23:57:47.772,0.015,-0.125
23:57:47.776,0.01,-0.13
23:57:47.780,-0.01,-0.13
23:57:47.784,-0.03,-0.15
23:57:47.788,-0.01,-0.145
23:57:47.792,-0.01,-0.12
23:57:47.796,0.0,-0.125
23:57:47.800,0.0,-0.125
23:57:47.804,0.0,-0.12
23:57:47.808,0.0,-0.125
23:57:47.812,0.02,-0.12
23:57:47.816,0.02,-0.115
23:57:47.820,-0.005,-0.115
23:57:47.824,0.005,-0.13
23:57:47.828,0.0,-0.125
23:57:47.832,0.01,-0.12
23:57:47.836,0.01,-0.125
23:57:47.840,0.015,-0.13
23:57:47.844,0.02,-0.13
23:57:47.848,0.005,-0.13
23:57:47.852,0.01,-0.14
23:57:47.856,-0.005,-0.125
23:57:47.860,0.015,-0.135
23:57:47.864,0.0,-0.15
23:57:47.868,0.005,-0.135
23:57:47.872,0.01,-0.14
23:57:47.876,0.0,-0.135
23:57:47.880,0.0,-0.145
23:57:47.884,0.015,-0.155
23:57:47.888,0.0,-0.175
23:57:47.892,0.0,-0.19
23:57:47.896,0.02,-0.07
23:57:47.900,0.035,0.13
23:57:47.904,0.05,0.395
23:57:47.908,0.09,0.67
23:57:47.912,0.185,0.845
23:57:47.916,0.245,0.79
23:57:47.920,0.335,0.5
23:57:47.924,0.32,-0.075
23:57:47.928,0.2,-0.695
23:57:47.932,0.065,-1.04
23:57:47.936,-0.08,-1.13
23:57:47.940,-0.24,-1.025
23:57:47.944,-0.375,-0.845
23:57:47.948,-0.395,-0.695
23:57:47.952,-0.335,-0.575
23:57:47.956,-0.28,-0.43
23:57:47.960,-0.175,-0.28
23:57:47.964,-0.08,-0.21
23:57:47.968,0.0,-0.205
23:57:47.972,0.04,-0.195
23:57:47.976,0.06,-0.195
23:57:47.980,0.035,-0.185
23:57:47.984,0.01,-0.195
23:57:47.988,-0.015,-0.225
23:57:47.992,-0.025,-0.24
23:57:47.996,-0.04,-0.24
23:57:48.000,-0.04,-0.245
23:57:48.004,-0.05,-0.245
23:57:48.008,-0.06,-0.255
23:57:48.012,-0.05,-0.245
23:57:48.016,-0.045,-0.255
23:57:48.020,-0.04,-0.255
23:57:48.024,-0.055,-0.23
23:57:48.028,-0.065,-0.23
23:57:48.032,-0.055,-0.24
23:57:48.036,-0.045,-0.225
23:57:48.040,-0.065,-0.22
23:57:48.044,-0.065,-0.215
23:57:48.048,-0.05,-0.23
23:57:48.052,-0.045,-0.2
23:57:48.056,-0.055,-0.205
23:57:48.060,-0.065,-0.19
23:57:48.064,-0.03,-0.18
23:57:48.068,-0.055,-0.15
23:57:48.072,-0.045,-0.155
23:57:48.076,-0.04,-0.155
23:57:48.080,-0.04,-0.13
23:57:48.084,-0.035,-0.13
23:57:48.088,-0.025,-0.11
23:57:48.092,-0.04,-0.105
23:57:48.096,-0.03,-0.095
23:57:48.100,-0.025,-0.1
23:57:48.104,-0.03,-0.1
23:57:48.108,-0.045,-0.09
23:57:48.112,-0.015,-0.09
23:57:48.116,-0.01,-0.08
23:57:48.120,-0.02,-0.06
23:57:48.124,-0.01,-0.05
23:57:48.128,0.015,-0.05
23:57:48.132,0.01,-0.06
23:57:48.136,0.015,-0.065
23:57:48.140,0.0,-0.065
23:57:48.144,0.01,-0.06
23:57:48.148,0.0,-0.05
23:57:48.152,-0.005,-0.075
23:57:48.156,0.0,-0.08
23:57:48.160,0.015,-0.085
23:57:48.164,0.025,-0.095
23:57:48.168,0.035,-0.12
23:57:48.172,0.025,-0.13
23:57:48.176,0.06,-0.14
23:57:48.180,0.06,-0.135
23:57:48.184,0.08,-0.13
23:57:48.188,0.075,-0.115
23:57:48.192,0.09,-0.12
23:57:48.196,0.065,-0.14
23:57:48.200,0.085,-0.15
23:57:48.204,0.055,-0.135
23:57:48.208,0.045,-0.14
23:57:48.212,0.015,-0.15
23:57:48.216,0.0,-0.16
23:57:48.220,-0.02,-0.165
23:57:48.224,-0.015,-0.17
23:57:48.228,-0.045,-0.16
23:57:48.232,-0.035,-0.145
23:57:48.236,-0.03,-0.165
23:57:48.240,-0.035,-0.165
23:57:48.244,-0.02,-0.155
23:57:48.248,-0.02,-0.15
23:57:48.252,-0.02,-0.155
23:57:48.256,-0.035,-0.16
23:57:48.260,-0.03,-0.165
23:57:48.264,-0.02,-0.165
23:57:48.268,-0.025,-0.15
23:57:48.272,-0.025,-0.17
23:57:48.276,-0.025,-0.19
23:57:48.280,-0.025,-0.185
23:57:48.284,-0.035,-0.175
23:57:48.288,-0.04,-0.19
23:57:48.292,-0.025,-0.19
23:57:48.296,-0.035,-0.185
23:57:48.300,-0.035,-0.195
23:57:48.304,-0.035,-0.185
23:57:48.308,-0.04,-0.185
23:57:48.312,-0.03,-0.18
23:57:48.316,-0.03,-0.195
23:57:48.320,-0.05,-0.195
23:57:48.324,-0.06,-0.195
23:57:48.328,-0.045,-0.185
23:57:48.332,-0.035,-0.175
23:57:48.336,-0.045,-0.16
23:57:48.340,-0.025,-0.16
23:57:48.344,-0.035,-0.185
23:57:48.348,-0.025,-0.205
23:57:48.352,-0.03,-0.21
23:57:48.356,-0.04,-0.23
23:57:48.360,-0.04,-0.17
23:57:48.364,-0.06,-0.01
23:57:48.368,-0.035,0.285
23:57:48.372,0.015,0.595
23:57:48.376,0.07,0.835
23:57:48.380,0.135,0.9
23:57:48.384,0.235,0.74
23:57:48.388,0.31,0.335
23:57:48.392,0.3,-0.32
23:57:48.396,0.265,-0.88
23:57:48.400,0.16,-1.145
23:57:48.404,0.03,-1.17
23:57:48.408,-0.135,-1.045
23:57:48.412,-0.25,-0.875
23:57:48.416,-0.305,-0.7
23:57:48.420,-0.33,-0.56
23:57:48.424,-0.315,-0.435
23:57:48.428,-0.3,-0.36
23:57:48.432,-0.235,-0.29
23:57:48.436,-0.175,-0.245
23:57:48.440,-0.12,-0.24
23:57:48.444,-0.085,-0.255
23:57:48.448,-0.095,-0.26
23:57:48.452,-0.075,-0.265
23:57:48.456,-0.065,-0.245
23:57:48.460,-0.08,-0.24
23:57:48.464,-0.085,-0.265
23:57:48.468,-0.08,-0.275
23:57:48.472,-0.075,-0.255
23:57:48.476,-0.095,-0.255
23:57:48.480,-0.085,-0.265
23:57:48.484,-0.09,-0.26
23:57:48.488,-0.075,-0.25
23:57:48.492,-0.1,-0.25
23:57:48.496,-0.1,-0.26
23:57:48.500,-0.065,-0.24
23:57:48.504,-0.08,-0.225
23:57:48.508,-0.09,-0.245
23:57:48.512,-0.08,-0.265
23:57:48.516,-0.085,-0.24
23:57:48.520,-0.08,-0.235
23:57:48.524,-0.07,-0.22
23:57:48.528,-0.105,-0.215
23:57:48.532,-0.11,-0.225
23:57:48.536,-0.09,-0.2
23:57:48.540,-0.09,-0.185
23:57:48.544,-0.085,-0.17
23:57:48.548,-0.115,-0.175
23:57:48.552,-0.08,-0.17
23:57:48.556,-0.08,-0.14
23:57:48.560,-0.075,-0.145
23:57:48.564,-0.055,-0.15
23:57:48.568,-0.05,-0.15
23:57:48.572,-0.07,-0.165
23:57:48.576,-0.065,-0.17
23:57:48.580,-0.06,-0.16
23:57:48.584,-0.07,-0.15
23:57:48.588,-0.065,-0.155
23:57:48.592,-0.06,-0.16
23:57:48.596,-0.05,-0.13
23:57:48.600,-0.015,-0.11
23:57:48.604,-0.025,-0.11
23:57:48.608,-0.02,-0.1
23:57:48.612,-0.025,-0.1
23:57:48.616,-0.005,-0.085
23:57:48.620,0.005,-0.065
23:57:48.624,0.005,-0.035
23:57:48.628,0.025,-0.02
23:57:48.632,0.045,-0.05
23:57:48.636,0.025,-0.05
23:57:48.640,0.04,-0.065
23:57:48.644,0.035,-0.095
23:57:48.648,0.025,-0.11
23:57:48.652,-0.02,-0.13
23:57:48.656,-0.03,-0.16
23:57:48.660,-0.02,-0.19
23:57:48.664,-0.045,-0.185
23:57:48.668,-0.05,-0.19
23:57:48.672,-0.06,-0.2
23:57:48.676,-0.04,-0.21
23:57:48.680,-0.055,-0.2
23:57:48.684,-0.04,-0.195
23:57:48.688,-0.045,-0.185
23:57:48.692,-0.05,-0.165
23:57:48.696,-0.05,-0.18
23:57:48.700,-0.025,-0.185
23:57:48.704,-0.035,-0.155
23:57:48.708,-0.03,-0.155
23:57:48.712,-0.035,-0.155
23:57:48.716,-0.025,-0.16
23:57:48.720,-0.025,-0.15
23:57:48.724,-0.045,-0.16
23:57:48.728,-0.03,-0.145
23:57:48.732,-0.035,-0.15
23:57:48.736,-0.045,-0.16
23:57:48.740,-0.04,-0.16
23:57:48.744,-0.05,-0.16
23:57:48.748,-0.05,-0.15
23:57:48.752,-0.05,-0.16
23:57:48.756,-0.04,-0.15
23:57:48.760,-0.045,-0.145
23:57:48.764,-0.03,-0.155
23:57:48.768,-0.02,-0.135
23:57:48.772,-0.025,-0.135
23:57:48.776,-0.025,-0.14
23:57:48.780,-0.02,-0.155
23:57:48.784,-0.02,-0.14
23:57:48.788,0.0,-0.16
23:57:48.792,-0.01,-0.18
23:57:48.796,-0.01,-0.235
23:57:48.800,-0.03,-0.215
23:57:48.804,-0.045,-0.15
23:57:48.808,-0.025,0.04
23:57:48.812,0.015,0.33
23:57:48.816,0.015,0.62
23:57:48.820,0.1,0.74
23:57:48.824,0.18,0.645
23:57:48.828,0.26,0.37
23:57:48.832,0.3,-0.155
23:57:48.836,0.285,-0.74
23:57:48.840,0.215,-1.025
23:57:48.844,0.115,-1.075
23:57:48.848,-0.035,-0.97
23:57:48.852,-0.18,-0.805
23:57:48.856,-0.27,-0.69
23:57:48.860,-0.305,-0.535
23:57:48.864,-0.295,-0.42
23:57:48.868,-0.26,-0.32
23:57:48.872,-0.175,-0.235
23:57:48.876,-0.115,-0.22
23:57:48.880,-0.08,-0.22
23:57:48.884,-0.04,-0.225
23:57:48.888,-0.03,-0.24
23:57:48.892,-0.015,-0.225
23:57:48.896,-0.05,-0.225
23:57:48.900,-0.03,-0.225
23:57:48.904,-0.04,-0.245
23:57:48.908,-0.05,-0.235
23:57:48.912,-0.04,-0.225
23:57:48.916,-0.03,-0.22
23:57:48.920,-0.04,-0.235
23:57:48.924,-0.045,-0.245
23:57:48.928,-0.06,-0.225
23:57:48.932,-0.065,-0.225
23:57:48.936,-0.045,-0.22
23:57:48.940,-0.05,-0.23
23:57:48.944,-0.055,-0.235
23:57:48.948,-0.05,-0.24
23:57:48.952,-0.06,-0.215
23:57:48.956,-0.06,-0.205
23:57:48.960,-0.045,-0.195
23:57:48.964,-0.06,-0.19
23:57:48.968,-0.06,-0.185
23:57:48.972,-0.06,-0.175
23:57:48.976,-0.06,-0.175
23:57:48.980,-0.045,-0.16
23:57:48.984,-0.055,-0.17
23:57:48.988,-0.04,-0.155
23:57:48.992,-0.03,-0.135
23:57:48.996,-0.015,-0.135
23:57:49.000,0.0,-0.135
23:57:49.004,-0.005,-0.145
23:57:49.008,-0.02,-0.16
23:57:49.012,-0.03,-0.175
23:57:49.016,-0.01,-0.175
23:57:49.020,-0.04,-0.16
23:57:49.024,-0.04,-0.165
23:57:49.028,-0.02,-0.14
23:57:49.032,-0.02,-0.145
23:57:49.036,0.0,-0.115
23:57:49.040,0.01,-0.13
23:57:49.044,0.015,-0.125
23:57:49.048,0.005,-0.12
23:57:49.052,0.005,-0.11
23:57:49.056,0.03,-0.075
23:57:49.060,0.045,-0.03
23:57:49.064,0.06,-0.03
23:57:49.068,0.085,-0.045
23:57:49.072,0.07,-0.07
23:57:49.076,0.065,-0.075
23:57:49.080,0.045,-0.105
23:57:49.084,0.035,-0.125
23:57:49.088,0.015,-0.14
23:57:49.092,-0.005,-0.16
23:57:49.096,-0.025,-0.175
23:57:49.100,-0.035,-0.185
23:57:49.104,-0.04,-0.18
23:57:49.108,-0.04,-0.195
23:57:49.112,-0.04,-0.19
23:57:49.116,-0.035,-0.18
23:57:49.120,-0.035,-0.175
23:57:49.124,-0.035,-0.16
23:57:49.128,-0.035,-0.175
23:57:49.132,-0.015,-0.18
23:57:49.136,-0.03,-0.17
23:57:49.140,-0.03,-0.16
23:57:49.144,-0.03,-0.14
23:57:49.148,-0.025,-0.15
23:57:49.152,-0.025,-0.17
23:57:49.156,-0.02,-0.15
23:57:49.160,-0.025,-0.16
23:57:49.164,-0.02,-0.145
23:57:49.168,-0.035,-0.14
23:57:49.172,-0.025,-0.15
23:57:49.176,-0.03,-0.155
23:57:49.180,-0.03,-0.135
23:57:49.184,-0.045,-0.135
23:57:49.188,-0.03,-0.155
23:57:49.192,-0.02,-0.155
23:57:49.196,-0.04,-0.15
23:57:49.200,-0.025,-0.205
23:57:49.204,-0.03,-0.195
23:57:49.208,-0.035,-0.12
23:57:49.212,-0.02,0.05
23:57:49.216,0.005,0.295
23:57:49.220,0.07,0.585
23:57:49.224,0.11,0.735
23:57:49.228,0.2,0.64
23:57:49.232,0.28,0.365
23:57:49.236,0.265,-0.115
23:57:49.240,0.18,-0.67
23:57:49.244,0.03,-0.965
23:57:49.248,-0.145,-1.01
23:57:49.252,-0.345,-0.89
23:57:49.256,-0.425,-0.765
23:57:49.260,-0.4,-0.605
23:57:49.264,-0.375,-0.465
23:57:49.268,-0.295,-0.375
23:57:49.272,-0.18,-0.325
23:57:49.276,-0.09,-0.285
23:57:49.280,-0.015,-0.225
23:57:49.284,0.025,-0.2
23:57:49.288,0.035,-0.16
23:57:49.292,0.025,-0.195
23:57:49.296,0.005,-0.21
23:57:49.300,-0.005,-0.215
23:57:49.304,-0.015,-0.225
23:57:49.308,-0.035,-0.235
23:57:49.312,-0.065,-0.26
23:57:49.316,-0.065,-0.24
23:57:49.320,-0.09,-0.235
23:57:49.324,-0.08,-0.235
23:57:49.328,-0.07,-0.245
23:57:49.332,-0.065,-0.235
23:57:49.336,-0.085,-0.255
23:57:49.340,-0.065,-0.255
23:57:49.344,-0.08,-0.235
23:57:49.348,-0.065,-0.235
23:57:49.352,-0.075,-0.235
23:57:49.356,-0.07,-0.225
23:57:49.360,-0.075,-0.22
23:57:49.364,-0.095,-0.22
23:57:49.368,-0.06,-0.215
23:57:49.372,-0.065,-0.185
23:57:49.376,-0.06,-0.175
23:57:49.380,-0.055,-0.185
23:57:49.384,-0.075,-0.155
23:57:49.388,-0.05,-0.155
23:57:49.392,-0.06,-0.13
23:57:49.396,-0.035,-0.14
23:57:49.400,-0.065,-0.145
23:57:49.404,-0.055,-0.13
23:57:49.408,-0.05,-0.11
23:57:49.412,-0.025,-0.09
23:57:49.416,-0.04,-0.095
23:57:49.420,-0.03,-0.1
23:57:49.424,-0.02,-0.1
23:57:49.428,-0.02,-0.075
23:57:49.432,-0.02,-0.08
23:57:49.436,-0.01,-0.065
23:57:49.440,-0.02,-0.055
23:57:49.444,0.0,-0.055
23:57:49.448,0.005,-0.055
23:57:49.452,0.0,-0.055
23:57:49.456,0.0,-0.055
23:57:49.460,-0.025,-0.07
23:57:49.464,-0.025,-0.085
23:57:49.468,-0.005,-0.075
23:57:49.472,-0.01,-0.07
23:57:49.476,0.0,-0.065
23:57:49.480,0.0,-0.085
23:57:49.484,0.02,-0.115
23:57:49.488,0.03,-0.135
23:57:49.492,0.04,-0.15
23:57:49.496,0.035,-0.135
23:57:49.500,0.055,-0.11
23:57:49.504,0.06,-0.1
23:57:49.508,0.08,-0.105
23:57:49.512,0.09,-0.12
23:57:49.516,0.075,-0.115
23:57:49.520,0.05,-0.115
23:57:49.524,0.0,-0.115
23:57:49.528,0.01,-0.135
23:57:49.532,-0.005,-0.145
23:57:49.536,-0.025,-0.135
23:57:49.540,-0.05,-0.15
23:57:49.544,-0.05,-0.155
23:57:49.548,-0.05,-0.155
23:57:49.552,-0.055,-0.13
23:57:49.556,-0.06,-0.13
23:57:49.560,-0.03,-0.14
23:57:49.564,-0.025,-0.14
23:57:49.568,-0.05,-0.155
23:57:49.572,-0.05,-0.16
23:57:49.576,-0.045,-0.16
23:57:49.580,-0.055,-0.15
23:57:49.584,-0.055,-0.175
23:57:49.588,-0.04,-0.16
23:57:49.592,-0.055,-0.17
23:57:49.596,-0.05,-0.175
23:57:49.600,-0.055,-0.185
23:57:49.604,-0.05,-0.18
23:57:49.608,-0.04,-0.185
23:57:49.612,-0.06,-0.19
23:57:49.616,-0.045,-0.185
23:57:49.620,-0.045,-0.175
23:57:49.624,-0.065,-0.195
23:57:49.628,-0.045,-0.205
23:57:49.632,-0.07,-0.19
23:57:49.636,-0.06,-0.185
23:57:49.640,-0.06,-0.195
23:57:49.644,-0.055,-0.18
23:57:49.648,-0.05,-0.175
23:57:49.652,-0.05,-0.185
23:57:49.656,-0.045,-0.18
23:57:49.660,-0.045,-0.175
23:57:49.664,-0.04,-0.18
23:57:49.668,-0.035,-0.2
23:57:49.672,-0.04,-0.2
23:57:49.676,-0.035,-0.22
23:57:49.680,-0.05,-0.215
23:57:49.684,-0.05,-0.145
23:57:49.688,-0.03,0.05
23:57:49.692,0.0,0.335
23:57:49.696,0.04,0.625
23:57:49.700,0.09,0.89
23:57:49.704,0.18,0.945
23:57:49.708,0.305,0.8
23:57:49.712,0.36,0.365
23:57:49.716,0.33,-0.31
23:57:49.720,0.225,-0.81
23:57:49.724,0.045,-1.03
23:57:49.728,-0.17,-0.98
23:57:49.732,-0.34,-0.83
23:57:49.736,-0.415,-0.635
23:57:49.740,-0.415,-0.49
23:57:49.744,-0.37,-0.37
23:57:49.748,-0.28,-0.295
23:57:49.752,-0.2,-0.255
23:57:49.756,-0.125,-0.24
23:57:49.760,-0.055,-0.235
23:57:49.764,-0.055,-0.245
23:57:49.768,-0.06,-0.255
23:57:49.772,-0.06,-0.255
23:57:49.776,-0.08,-0.24
23:57:49.780,-0.075,-0.25
23:57:49.784,-0.06,-0.24
23:57:49.788,-0.055,-0.24
23:57:49.792,-0.05,-0.245
23:57:49.796,-0.05,-0.25
23:57:49.800,-0.055,-0.235
23:57:49.804,-0.06,-0.245
23:57:49.808,-0.05,-0.225
23:57:49.812,-0.055,-0.25
23:57:49.816,-0.065,-0.24
23:57:49.820,-0.045,-0.245
23:57:49.824,-0.07,-0.235
23:57:49.828,-0.07,-0.22
23:57:49.832,-0.05,-0.225
23:57:49.836,-0.05,-0.205
23:57:49.840,-0.065,-0.21
23:57:49.844,-0.06,-0.2
23:57:49.848,-0.06,-0.195
23:57:49.852,-0.04,-0.2
23:57:49.856,-0.055,-0.185
23:57:49.860,-0.03,-0.175
23:57:49.864,-0.03,-0.16
23:57:49.868,-0.035,-0.155
23:57:49.872,-0.025,-0.155
23:57:49.876,-0.02,-0.14
23:57:49.880,-0.01,-0.14
23:57:49.884,0.01,-0.14
23:57:49.888,0.0,-0.145
23:57:49.892,-0.01,-0.155
23:57:49.896,-0.005,-0.16
23:57:49.900,-0.015,-0.17
23:57:49.904,-0.015,-0.14
23:57:49.908,-0.01,-0.135
23:57:49.912,-0.005,-0.11
23:57:49.916,0.01,-0.115
23:57:49.920,0.025,-0.105
23:57:49.924,0.045,-0.1
23:57:49.928,0.055,-0.075
23:57:49.932,0.045,-0.06
23:57:49.936,0.085,-0.015
23:57:49.940,0.105,0.0
23:57:49.944,0.115,0.03
23:57:49.948,0.135,0.03
23:57:49.952,0.12,0.04
23:57:49.956,0.11,0.01
23:57:49.960,0.09,0.0
23:57:49.964,0.06,-0.02
23:57:49.968,0.025,-0.045
23:57:49.972,0.02,-0.07
23:57:49.976,0.01,-0.1
23:57:49.980,0.0,-0.115
23:57:49.984,-0.02,-0.11
23:57:49.988,-0.035,-0.105
23:57:49.992,-0.015,-0.11
23:57:49.996,0.005,-0.125
23:57:50.000,-0.01,-0.125
23:57:50.004,-0.025,-0.12
23:57:50.008,-0.02,-0.13
23:57:50.012,-0.015,-0.115
23:57:50.016,-0.02,-0.115
23:57:50.020,-0.02,-0.145
23:57:50.024,-0.015,-0.13
23:57:50.028,-0.04,-0.125
23:57:50.032,-0.035,-0.115
23:57:50.036,-0.02,-0.135
23:57:50.040,-0.025,-0.13
23:57:50.044,-0.055,-0.15
23:57:50.048,-0.04,-0.145
23:57:50.052,-0.025,-0.14
23:57:50.056,-0.02,-0.13
23:57:50.060,-0.03,-0.145
23:57:50.064,-0.035,-0.15
23:57:50.068,-0.035,-0.15
23:57:50.072,-0.035,-0.14
23:57:50.076,-0.025,-0.145
23:57:50.080,-0.035,-0.145
23:57:50.084,-0.045,-0.155
23:57:50.088,-0.02,-0.15
23:57:50.092,-0.015,-0.13
23:57:50.096,-0.015,-0.105
23:57:50.100,0.0,-0.135
23:57:50.104,-0.005,-0.17
23:57:50.108,0.0,-0.225
23:57:50.112,-0.01,-0.19
23:57:50.116,-0.005,-0.055
23:57:50.120,-0.01,0.19
23:57:50.124,0.035,0.455
23:57:50.128,0.08,0.725
23:57:50.132,0.155,0.815
23:57:50.136,0.26,0.68
23:57:50.140,0.315,0.25
23:57:50.144,0.315,-0.42
23:57:50.148,0.17,-0.945
23:57:50.152,0.0,-1.14
23:57:50.156,-0.2,-1.04
23:57:50.160,-0.365,-0.825
23:57:50.164,-0.395,-0.655
23:57:50.168,-0.355,-0.475
23:57:50.172,-0.29,-0.345
23:57:50.176,-0.225,-0.22
23:57:50.180,-0.15,-0.185
23:57:50.184,-0.095,-0.21
23:57:50.188,-0.035,-0.23
23:57:50.192,-0.04,-0.225
23:57:50.196,-0.04,-0.215
23:57:50.200,-0.04,-0.235
23:57:50.204,-0.045,-0.235
23:57:50.208,-0.04,-0.225
23:57:50.212,-0.05,-0.225
23:57:50.216,-0.04,-0.21
23:57:50.220,-0.05,-0.22
23:57:50.224,-0.055,-0.215
23:57:50.228,-0.04,-0.235
23:57:50.232,-0.055,-0.23
23:57:50.236,-0.035,-0.23
23:57:50.240,-0.045,-0.215
23:57:50.244,-0.045,-0.21
23:57:50.248,-0.04,-0.23
23:57:50.252,-0.025,-0.225
23:57:50.256,-0.04,-0.2
23:57:50.260,-0.04,-0.205
23:57:50.264,-0.04,-0.2
23:57:50.268,-0.03,-0.195
23:57:50.272,-0.025,-0.185
23:57:50.276,-0.035,-0.18
23:57:50.280,-0.035,-0.16
23:57:50.284,-0.015,-0.145
23:57:50.288,-0.03,-0.14
23:57:50.292,-0.01,-0.155
23:57:50.296,0.005,-0.14
23:57:50.300,-0.01,-0.115
23:57:50.304,-0.01,-0.125
23:57:50.308,0.0,-0.125
23:57:50.312,-0.005,-0.105
23:57:50.316,0.0,-0.1
23:57:50.320,0.015,-0.105
23:57:50.324,0.01,-0.105
23:57:50.328,0.01,-0.12
23:57:50.332,0.025,-0.125
23:57:50.336,0.01,-0.115
23:57:50.340,0.0,-0.105
23:57:50.344,-0.005,-0.11
23:57:50.348,-0.01,-0.105
23:57:50.352,0.005,-0.065
23:57:50.356,0.01,-0.055
23:57:50.360,0.03,-0.045
23:57:50.364,0.055,-0.035
23:57:50.368,0.055,-0.04
23:57:50.372,0.065,-0.075
23:57:50.376,0.065,-0.05
23:57:50.380,0.075,-0.04
23:57:50.384,0.085,-0.045
23:57:50.388,0.09,-0.075
23:57:50.392,0.09,-0.075
23:57:50.396,0.085,-0.085
23:57:50.400,0.04,-0.105
23:57:50.404,0.01,-0.135
23:57:50.408,-0.005,-0.155
23:57:50.412,-0.015,-0.175
23:57:50.416,-0.025,-0.19
23:57:50.420,-0.04,-0.18
23:57:50.424,-0.065,-0.19
23:57:50.428,-0.035,-0.195
23:57:50.432,-0.04,-0.195
23:57:50.436,-0.035,-0.175
23:57:50.440,-0.05,-0.18
23:57:50.444,-0.03,-0.185
23:57:50.448,-0.035,-0.18
23:57:50.452,-0.035,-0.18
23:57:50.456,-0.04,-0.19
23:57:50.460,-0.025,-0.195
23:57:50.464,-0.045,-0.17
23:57:50.468,-0.065,-0.17
23:57:50.472,-0.05,-0.185
23:57:50.476,-0.04,-0.205
23:57:50.480,-0.07,-0.18
23:57:50.484,-0.05,-0.19
23:57:50.488,-0.05,-0.185
23:57:50.492,-0.045,-0.18
23:57:50.496,-0.045,-0.195
23:57:50.500,-0.035,-0.195
23:57:50.504,-0.06,-0.19
23:57:50.508,-0.05,-0.205
23:57:50.512,-0.04,-0.24
23:57:50.516,-0.045,-0.23
23:57:50.520,-0.05,-0.135
23:57:50.524,-0.03,0.035
23:57:50.528,0.015,0.295
23:57:50.532,0.055,0.58
23:57:50.536,0.115,0.735
23:57:50.540,0.205,0.69
23:57:50.544,0.295,0.435
23:57:50.548,0.325,-0.07
23:57:50.552,0.245,-0.71
23:57:50.556,0.145,-1.125
23:57:50.560,0.02,-1.225
23:57:50.564,-0.16,-1.1
23:57:50.568,-0.32,-0.91
23:57:50.572,-0.41,-0.76
23:57:50.576,-0.365,-0.625
23:57:50.580,-0.31,-0.49
23:57:50.584,-0.29,-0.39
23:57:50.588,-0.185,-0.335
23:57:50.592,-0.08,-0.32
23:57:50.596,-0.03,-0.29
23:57:50.600,0.0,-0.26
23:57:50.604,0.025,-0.245
23:57:50.608,0.03,-0.21
23:57:50.612,0.015,-0.205
23:57:50.616,0.015,-0.2
23:57:50.620,-0.01,-0.235
23:57:50.624,-0.035,-0.245
23:57:50.628,-0.075,-0.255
23:57:50.632,-0.07,-0.24
23:57:50.636,-0.075,-0.26
23:57:50.640,-0.09,-0.26
23:57:50.644,-0.08,-0.245
23:57:50.648,-0.075,-0.235
23:57:50.652,-0.09,-0.245
23:57:50.656,-0.07,-0.25
23:57:50.660,-0.06,-0.255
23:57:50.664,-0.07,-0.25
23:57:50.668,-0.085,-0.23
23:57:50.672,-0.075,-0.23
23:57:50.676,-0.07,-0.235
23:57:50.680,-0.075,-0.22
23:57:50.684,-0.055,-0.215
23:57:50.688,-0.065,-0.22
23:57:50.692,-0.07,-0.205
23:57:50.696,-0.05,-0.185
23:57:50.700,-0.065,-0.19
23:57:50.704,-0.045,-0.185
23:57:50.708,-0.08,-0.185
23:57:50.712,-0.055,-0.19
23:57:50.716,-0.07,-0.175
23:57:50.720,-0.06,-0.16
23:57:50.724,-0.06,-0.16
23:57:50.728,-0.06,-0.16
23:57:50.732,-0.05,-0.15
23:57:50.736,-0.05,-0.15
23:57:50.740,-0.055,-0.155
23:57:50.744,-0.045,-0.14
23:57:50.748,-0.03,-0.11
23:57:50.752,-0.02,-0.1
23:57:50.756,-0.03,-0.08
23:57:50.760,-0.015,-0.06
23:57:50.764,-0.025,-0.08
23:57:50.768,-0.01,-0.095
23:57:50.772,-0.005,-0.075
23:57:50.776,-0.025,-0.07
23:57:50.780,-0.025,-0.07
23:57:50.784,-0.015,-0.1
23:57:50.788,0.005,-0.1
23:57:50.792,0.015,-0.11
23:57:50.796,0.025,-0.115
23:57:50.800,0.015,-0.14
23:57:50.804,0.05,-0.15
23:57:50.808,0.035,-0.16
23:57:50.812,0.06,-0.155
23:57:50.816,0.04,-0.155
23:57:50.820,0.06,-0.14
23:57:50.824,0.08,-0.15
23:57:50.828,0.07,-0.14
23:57:50.832,0.075,-0.13
23:57:50.836,0.075,-0.13
23:57:50.840,0.065,-0.12
23:57:50.844,0.04,-0.135
23:57:50.848,0.035,-0.155
23:57:50.852,0.0,-0.17
23:57:50.856,-0.015,-0.165
23:57:50.860,-0.03,-0.145
23:57:50.864,-0.03,-0.16
23:57:50.868,-0.04,-0.155
23:57:50.872,-0.03,-0.175
23:57:50.876,-0.025,-0.16
23:57:50.880,-0.035,-0.155
23:57:50.884,-0.03,-0.14
23:57:50.888,-0.02,-0.165
23:57:50.892,-0.03,-0.16
23:57:50.896,-0.025,-0.155
23:57:50.900,-0.02,-0.165
23:57:50.904,-0.015,-0.16
23:57:50.908,-0.02,-0.16
23:57:50.912,-0.025,-0.175
23:57:50.916,-0.035,-0.17
23:57:50.920,-0.01,-0.175
23:57:50.924,-0.025,-0.16
23:57:50.928,-0.01,-0.185
23:57:50.932,-0.015,-0.18
23:57:50.936,-0.03,-0.19
23:57:50.940,-0.02,-0.18
23:57:50.944,-0.02,-0.185
23:57:50.948,-0.03,-0.2
23:57:50.952,-0.015,-0.195
23:57:50.956,-0.045,-0.2
23:57:50.960,-0.01,-0.185
23:57:50.964,-0.005,-0.19
23:57:50.968,-0.02,-0.19
23:57:50.972,-0.025,-0.195
23:57:50.976,-0.015,-0.165
23:57:50.980,-0.015,-0.145
23:57:50.984,0.0,-0.185
23:57:50.988,-0.01,-0.2
23:57:50.992,-0.015,-0.18
23:57:50.996,0.0,-0.06
23:57:51.000,0.0,0.175
23:57:51.004,0.015,0.47
23:57:51.008,0.04,0.75
23:57:51.012,0.135,0.875
23:57:51.016,0.235,0.74
23:57:51.020,0.305,0.37
23:57:51.024,0.335,-0.3
23:57:51.028,0.315,-0.945
23:57:51.032,0.22,-1.245
23:57:51.036,0.065,-1.215
23:57:51.040,-0.1,-1.005
23:57:51.044,-0.2,-0.805
23:57:51.048,-0.255,-0.675
23:57:51.052,-0.23,-0.525
23:57:51.056,-0.24,-0.41
23:57:51.060,-0.225,-0.305
23:57:51.064,-0.175,-0.235
23:57:51.068,-0.125,-0.22
23:57:51.072,-0.06,-0.235
23:57:51.076,-0.04,-0.225
23:57:51.080,-0.025,-0.235
23:57:51.084,-0.045,-0.215
23:57:51.088,-0.035,-0.215
23:57:51.092,-0.04,-0.22
23:57:51.096,-0.04,-0.245
23:57:51.100,-0.025,-0.25
23:57:51.104,0.0,-0.24
23:57:51.108,-0.03,-0.23
23:57:51.112,-0.025,-0.23
23:57:51.116,-0.035,-0.235
23:57:51.120,-0.035,-0.245
23:57:51.124,-0.03,-0.225
23:57:51.128,-0.025,-0.23
23:57:51.132,-0.045,-0.24
23:57:51.136,-0.04,-0.23
23:57:51.140,-0.035,-0.235
23:57:51.144,-0.03,-0.23
23:57:51.148,-0.025,-0.215
23:57:51.152,-0.035,-0.2
23:57:51.156,-0.045,-0.215
23:57:51.160,-0.045,-0.2
23:57:51.164,-0.06,-0.205
23:57:51.168,-0.03,-0.2
23:57:51.172,-0.03,-0.165
23:57:51.176,-0.02,-0.18
23:57:51.180,-0.02,-0.185
23:57:51.184,-0.025,-0.16
23:57:51.188,-0.015,-0.16
23:57:51.192,-0.005,-0.17
23:57:51.196,0.0,-0.155
23:57:51.200,0.0,-0.16
23:57:51.204,0.0,-0.18
23:57:51.208,0.015,-0.185
23:57:51.212,-0.01,-0.175
23:57:51.216,-0.01,-0.195
23:57:51.220,-0.01,-0.185
23:57:51.224,-0.01,-0.17
23:57:51.228,0.005,-0.155
23:57:51.232,0.0,-0.11
23:57:51.236,0.02,-0.125
23:57:51.240,0.025,-0.115
23:57:51.244,0.035,-0.12
23:57:51.248,0.06,-0.08
23:57:51.252,0.05,-0.08
23:57:51.256,0.09,-0.06
23:57:51.260,0.075,-0.045
23:57:51.264,0.085,-0.035
23:57:51.268,0.095,-0.05
23:57:51.272,0.1,-0.065
23:57:51.276,0.085,-0.095
23:57:51.280,0.07,-0.115
23:57:51.284,0.03,-0.14
23:57:51.288,0.035,-0.16
23:57:51.292,0.01,-0.16
23:57:51.296,0.0,-0.17
23:57:51.300,0.0,-0.17
23:57:51.304,-0.02,-0.18
23:57:51.308,-0.01,-0.18
23:57:51.312,0.0,-0.175
23:57:51.316,0.005,-0.19
23:57:51.320,-0.01,-0.17
23:57:51.324,0.005,-0.165
23:57:51.328,0.01,-0.16
23:57:51.332,0.0,-0.145
23:57:51.336,-0.005,-0.13
23:57:51.340,-0.01,-0.15
23:57:51.344,-0.015,-0.16
23:57:51.348,-0.02,-0.155
23:57:51.352,-0.015,-0.13
23:57:51.356,0.005,-0.14
23:57:51.360,0.0,-0.12
23:57:51.364,-0.01,-0.16
23:57:51.368,-0.015,-0.14
23:57:51.372,-0.01,-0.14
23:57:51.376,-0.005,-0.15
23:57:51.380,-0.02,-0.15
23:57:51.384,-0.015,-0.155
23:57:51.388,-0.015,-0.15
23:57:51.392,-0.015,-0.15
23:57:51.396,-0.015,-0.15
23:57:51.400,-0.005,-0.145
23:57:51.404,-0.02,-0.16
23:57:51.408,-0.01,-0.16
23:57:51.412,-0.015,-0.165
23:57:51.416,-0.005,-0.15
23:57:51.420,-0.01,-0.18
23:57:51.424,0.005,-0.205
23:57:51.428,-0.005,-0.24
23:57:51.432,-0.01,-0.235
23:57:51.436,-0.015,-0.16
23:57:51.440,-0.02,0.045
23:57:51.444,0.015,0.335
23:57:51.448,0.055,0.615
23:57:51.452,0.13,0.785
23:57:51.456,0.23,0.72
23:57:51.460,0.28,0.385
23:57:51.464,0.28,-0.185
23:57:51.468,0.23,-0.765
23:57:51.472,0.08,-1.005
23:57:51.476,-0.075,-1.035
23:57:51.480,-0.23,-0.925
23:57:51.484,-0.345,-0.76
23:57:51.488,-0.34,-0.605
23:57:51.492,-0.32,-0.465
23:57:51.496,-0.28,-0.34
23:57:51.500,-0.205,-0.275
23:57:51.504,-0.105,-0.255
23:57:51.508,-0.055,-0.25
23:57:51.512,-0.03,-0.25
23:57:51.516,-0.03,-0.255
23:57:51.520,-0.015,-0.255
23:57:51.524,-0.025,-0.265
23:57:51.528,-0.035,-0.265
23:57:51.532,-0.035,-0.265
23:57:51.536,-0.025,-0.26
23:57:51.540,-0.03,-0.25
23:57:51.544,-0.045,-0.255
23:57:51.548,-0.025,-0.265
23:57:51.552,-0.04,-0.265
23:57:51.556,-0.045,-0.275
23:57:51.560,-0.035,-0.265
23:57:51.564,-0.025,-0.275
23:57:51.568,-0.035,-0.255
23:57:51.572,-0.03,-0.275
23:57:51.576,-0.03,-0.245
23:57:51.580,-0.035,-0.245
23:57:51.584,-0.04,-0.235
23:57:51.588,-0.025,-0.255
23:57:51.592,-0.045,-0.255
23:57:51.596,-0.04,-0.235
23:57:51.600,-0.04,-0.235
23:57:51.604,-0.04,-0.22
23:57:51.608,-0.055,-0.225
23:57:51.612,-0.025,-0.22
23:57:51.616,-0.02,-0.2
23:57:51.620,-0.035,-0.18
23:57:51.624,-0.025,-0.18
23:57:51.628,-0.005,-0.195
23:57:51.632,-0.005,-0.19
23:57:51.636,-0.005,-0.18
23:57:51.640,0.0,-0.2
23:57:51.644,0.0,-0.205
23:57:51.648,-0.005,-0.215
23:57:51.652,-0.005,-0.225
23:57:51.656,-0.02,-0.23
23:57:51.660,-0.005,-0.21
23:57:51.664,-0.025,-0.185
23:57:51.668,0.0,-0.175
23:57:51.672,0.02,-0.17
23:57:51.676,0.015,-0.16
23:57:51.680,0.02,-0.155
23:57:51.684,0.05,-0.155
23:57:51.688,0.065,-0.105
23:57:51.692,0.065,-0.08
23:57:51.696,0.11,-0.075
23:57:51.700,0.105,-0.09
23:57:51.704,0.085,-0.1
23:57:51.708,0.075,-0.115
23:57:51.712,0.06,-0.135
23:57:51.716,0.035,-0.17
23:57:51.720,0.02,-0.18
23:57:51.724,0.015,-0.19
23:57:51.728,-0.025,-0.2
23:57:51.732,-0.03,-0.22
23:57:51.736,-0.035,-0.21
23:57:51.740,-0.03,-0.2
23:57:51.744,-0.025,-0.185
23:57:51.748,-0.02,-0.19
23:57:51.752,-0.025,-0.215
23:57:51.756,-0.015,-0.2
23:57:51.760,0.0,-0.2
23:57:51.764,0.0,-0.16
23:57:51.768,-0.015,-0.155
23:57:51.772,-0.01,-0.16
23:57:51.776,-0.02,-0.19
23:57:51.780,-0.02,-0.18
23:57:51.784,-0.02,-0.17
23:57:51.788,-0.015,-0.175
23:57:51.792,-0.02,-0.175
23:57:51.796,-0.025,-0.175
23:57:51.800,-0.015,-0.165
23:57:51.804,-0.015,-0.155
23:57:51.808,-0.01,-0.16
23:57:51.812,-0.015,-0.175
23:57:51.816,0.005,-0.19
23:57:51.820,-0.02,-0.19
23:57:51.824,-0.03,-0.22
23:57:51.828,-0.02,-0.265
23:57:51.832,-0.015,-0.24
23:57:51.836,-0.025,-0.085
23:57:51.840,0.01,0.145
23:57:51.844,0.04,0.42
23:57:51.848,0.09,0.68
23:57:51.852,0.18,0.725
23:57:51.856,0.28,0.575
23:57:51.860,0.325,0.205
23:57:51.864,0.28,-0.395
23:57:51.868,0.15,-0.88
23:57:51.872,-0.015,-1.04
23:57:51.876,-0.235,-1.005
23:57:51.880,-0.395,-0.875
23:57:51.884,-0.435,-0.685
23:57:51.888,-0.39,-0.53
23:57:51.892,-0.33,-0.415
23:57:51.896,-0.23,-0.3
23:57:51.900,-0.135,-0.28
23:57:51.904,-0.04,-0.265
23:57:51.908,0.02,-0.24
23:57:51.912,0.055,-0.18
23:57:51.916,0.085,-0.185
23:57:51.920,0.07,-0.18
23:57:51.924,0.04,-0.195
23:57:51.928,0.02,-0.195
23:57:51.932,0.01,-0.2
23:57:51.936,-0.005,-0.23
23:57:51.940,-0.005,-0.24
23:57:51.944,-0.02,-0.245
23:57:51.948,-0.045,-0.235
23:57:51.952,-0.03,-0.23
23:57:51.956,-0.035,-0.225
23:57:51.960,-0.045,-0.24
23:57:51.964,-0.04,-0.23
23:57:51.968,-0.015,-0.24
23:57:51.972,-0.03,-0.23
23:57:51.976,-0.035,-0.205
23:57:51.980,-0.04,-0.215
23:57:51.984,-0.025,-0.21
23:57:51.988,-0.04,-0.185
23:57:51.992,-0.02,-0.18
23:57:51.996,-0.02,-0.165
23:57:52.000,0.0,-0.165
23:57:52.004,-0.015,-0.16
23:57:52.008,-0.01,-0.15
23:57:52.012,-0.005,-0.14
23:57:52.016,-0.005,-0.14
23:57:52.020,-0.01,-0.125
23:57:52.024,0.005,-0.115
23:57:52.028,0.015,-0.1
23:57:52.032,-0.01,-0.1
23:57:52.036,0.01,-0.09
23:57:52.040,0.01,-0.095
23:57:52.044,0.005,-0.095
23:57:52.048,0.01,-0.095
23:57:52.052,0.025,-0.075
23:57:52.056,0.015,-0.06
23:57:52.060,0.01,-0.065
23:57:52.064,0.025,-0.055
23:57:52.068,0.045,-0.04
23:57:52.072,0.04,-0.025
23:57:52.076,0.05,-0.02
23:57:52.080,0.045,-0.04
23:57:52.084,0.06,-0.035
23:57:52.088,0.07,-0.05
23:57:52.092,0.05,-0.06
23:57:52.096,0.045,-0.05
23:57:52.100,0.045,-0.07
23:57:52.104,0.055,-0.095
23:57:52.108,0.07,-0.1
23:57:52.112,0.085,-0.11
23:57:52.116,0.105,-0.12
23:57:52.120,0.12,-0.135
23:57:52.124,0.105,-0.115
23:57:52.128,0.11,-0.095
23:57:52.132,0.11,-0.07
23:57:52.136,0.135,-0.05
23:57:52.140,0.145,-0.08
23:57:52.144,0.13,-0.105
23:57:52.148,0.12,-0.085
23:57:52.152,0.1,-0.095
23:57:52.156,0.085,-0.105
23:57:52.160,0.07,-0.12
23:57:52.164,0.03,-0.12
23:57:52.168,0.01,-0.13
23:57:52.172,0.005,-0.14
23:57:52.176,0.01,-0.14
23:57:52.180,0.01,-0.14
23:57:52.184,-0.005,-0.145
23:57:52.188,0.01,-0.155
23:57:52.192,0.0,-0.145
23:57:52.196,0.005,-0.15
23:57:52.200,0.02,-0.16
23:57:52.204,0.015,-0.155
23:57:52.208,-0.01,-0.17
23:57:52.212,0.0,-0.16
23:57:52.216,0.01,-0.18
23:57:52.220,-0.01,-0.17
23:57:52.224,-0.01,-0.185
23:57:52.228,0.0,-0.19
23:57:52.232,-0.01,-0.175
23:57:52.236,-0.01,-0.19
23:57:52.240,0.0,-0.205
23:57:52.244,-0.005,-0.2
23:57:52.248,-0.02,-0.19
23:57:52.252,-0.02,-0.18
23:57:52.256,-0.02,-0.18
23:57:52.260,0.0,-0.185
23:57:52.264,-0.01,-0.19
23:57:52.268,0.0,-0.195
23:57:52.272,-0.005,-0.16
23:57:52.276,0.005,-0.165
23:57:52.280,0.005,-0.185
23:57:52.284,0.02,-0.2
23:57:52.288,0.015,-0.14
23:57:52.292,0.01,0.015
23:57:52.296,0.065,0.285
23:57:52.300,0.085,0.58
23:57:52.304,0.12,0.825
23:57:52.308,0.215,0.865
23:57:52.312,0.3,0.725
23:57:52.316,0.345,0.295
23:57:52.320,0.29,-0.375
23:57:52.324,0.16,-0.855
23:57:52.328,-0.01,-1.05
23:57:52.332,-0.22,-1.025
23:57:52.336,-0.335,-0.905
23:57:52.340,-0.37,-0.71
23:57:52.344,-0.32,-0.51
23:57:52.348,-0.245,-0.36
23:57:52.352,-0.17,-0.24
23:57:52.356,-0.08,-0.18
23:57:52.360,0.0,-0.185
23:57:52.364,0.015,-0.21
23:57:52.368,0.02,-0.205
23:57:52.372,0.005,-0.23
23:57:52.376,0.0,-0.225
23:57:52.380,-0.02,-0.21
23:57:52.384,-0.02,-0.23
23:57:52.388,-0.045,-0.25
23:57:52.392,-0.055,-0.255
23:57:52.396,-0.055,-0.245
23:57:52.400,-0.05,-0.26
23:57:52.404,-0.045,-0.25
23:57:52.408,-0.02,-0.255
23:57:52.412,-0.03,-0.255
23:57:52.416,-0.025,-0.26
23:57:52.420,-0.035,-0.24
23:57:52.424,-0.045,-0.24
23:57:52.428,-0.04,-0.24
23:57:52.432,-0.04,-0.255
23:57:52.436,-0.04,-0.24
23:57:52.440,-0.035,-0.245
23:57:52.444,-0.03,-0.24
23:57:52.448,-0.035,-0.235
23:57:52.452,-0.06,-0.235
23:57:52.456,-0.035,-0.235
23:57:52.460,-0.04,-0.22
23:57:52.464,-0.035,-0.215
23:57:52.468,-0.04,-0.2
23:57:52.472,-0.015,-0.22
23:57:52.476,-0.015,-0.195
23:57:52.480,-0.01,-0.195
23:57:52.484,-0.01,-0.21
23:57:52.488,-0.015,-0.19
23:57:52.492,-0.02,-0.19
23:57:52.496,0.01,-0.185
23:57:52.500,0.01,-0.18
23:57:52.504,0.01,-0.16
23:57:52.508,0.015,-0.145
23:57:52.512,0.02,-0.165
23:57:52.516,0.025,-0.185
23:57:52.520,0.04,-0.165
23:57:52.524,0.035,-0.145
23:57:52.528,0.02,-0.135
23:57:52.532,0.02,-0.115
23:57:52.536,0.02,-0.12
23:57:52.540,0.03,-0.095
23:57:52.544,0.06,-0.06
23:57:52.548,0.065,-0.06
23:57:52.552,0.08,-0.08
23:57:52.556,0.09,-0.08
23:57:52.560,0.1,-0.065
23:57:52.564,0.1,-0.06
23:57:52.568,0.135,-0.045
23:57:52.572,0.135,-0.035
23:57:52.576,0.135,-0.06
23:57:52.580,0.135,-0.1
23:57:52.584,0.13,-0.12
23:57:52.588,0.095,-0.105
23:57:52.592,0.075,-0.135
23:57:52.596,0.035,-0.165
23:57:52.600,0.025,-0.165
23:57:52.604,-0.005,-0.16
23:57:52.608,-0.005,-0.175
23:57:52.612,-0.01,-0.175
23:57:52.616,-0.005,-0.19
23:57:52.620,0.0,-0.175
23:57:52.624,0.02,-0.165
23:57:52.628,-0.005,-0.155
23:57:52.632,0.0,-0.14
23:57:52.636,0.01,-0.16
23:57:52.640,0.015,-0.18
23:57:52.644,0.01,-0.17
23:57:52.648,0.015,-0.165
23:57:52.652,0.015,-0.175
23:57:52.656,0.0,-0.185
23:57:52.660,-0.015,-0.19
23:57:52.664,0.01,-0.19
23:57:52.668,0.0,-0.17
23:57:52.672,0.005,-0.185
23:57:52.676,-0.005,-0.205
23:57:52.680,0.0,-0.205
23:57:52.684,-0.015,-0.195
23:57:52.688,-0.01,-0.215
23:57:52.692,0.005,-0.19
23:57:52.696,0.015,-0.205
23:57:52.700,0.0,-0.2
23:57:52.704,0.025,-0.205
23:57:52.708,0.01,-0.205
23:57:52.712,0.0,-0.245
23:57:52.716,0.005,-0.265
23:57:52.720,0.03,-0.2
23:57:52.724,0.03,0.025
23:57:52.728,0.075,0.295
23:57:52.732,0.145,0.58
23:57:52.736,0.2,0.785
23:57:52.740,0.275,0.74
23:57:52.744,0.355,0.455
23:57:52.748,0.33,-0.08
23:57:52.752,0.245,-0.67
23:57:52.756,0.1,-1.07
23:57:52.760,-0.05,-1.165
23:57:52.764,-0.235,-1.04
23:57:52.768,-0.355,-0.86
23:57:52.772,-0.375,-0.695
23:57:52.776,-0.3,-0.585
23:57:52.780,-0.245,-0.46
23:57:52.784,-0.16,-0.325
23:57:52.788,-0.06,-0.245
23:57:52.792,0.04,-0.235
23:57:52.796,0.075,-0.215
23:57:52.800,0.07,-0.205
23:57:52.804,0.07,-0.215
23:57:52.808,0.04,-0.235
23:57:52.812,0.03,-0.245
23:57:52.816,0.02,-0.27
23:57:52.820,-0.03,-0.26
23:57:52.824,-0.025,-0.265
23:57:52.828,-0.02,-0.245
23:57:52.832,-0.025,-0.24
23:57:52.836,-0.035,-0.24
23:57:52.840,-0.01,-0.25
23:57:52.844,-0.02,-0.25
23:57:52.848,-0.01,-0.26
23:57:52.852,-0.005,-0.245
23:57:52.856,-0.02,-0.25
23:57:52.860,-0.015,-0.23
23:57:52.864,0.005,-0.245
23:57:52.868,-0.01,-0.235
23:57:52.872,-0.015,-0.225
23:57:52.876,-0.015,-0.2
23:57:52.880,0.0,-0.21
23:57:52.884,-0.005,-0.21
23:57:52.888,-0.005,-0.21
23:57:52.892,-0.01,-0.19
23:57:52.896,0.01,-0.18
23:57:52.900,-0.005,-0.18
23:57:52.904,0.0,-0.19
23:57:52.908,0.005,-0.175
23:57:52.912,0.01,-0.15
23:57:52.916,0.0,-0.145
23:57:52.920,0.02,-0.145
23:57:52.924,0.02,-0.14
23:57:52.928,0.015,-0.145
23:57:52.932,0.025,-0.14
23:57:52.936,0.025,-0.13
23:57:52.940,0.035,-0.1
23:57:52.944,0.04,-0.1
23:57:52.948,0.05,-0.105
23:57:52.952,0.045,-0.095
23:57:52.956,0.065,-0.07
23:57:52.960,0.06,-0.075
23:57:52.964,0.055,-0.055
23:57:52.968,0.04,-0.05
23:57:52.972,0.05,-0.065
23:57:52.976,0.055,-0.04
23:57:52.980,0.065,-0.02
23:57:52.984,0.07,-0.04
23:57:52.988,0.095,-0.085
23:57:52.992,0.1,-0.08
23:57:52.996,0.1,-0.09
23:57:53.000,0.1,-0.095
23:57:53.004,0.125,-0.105
23:57:53.008,0.115,-0.095
23:57:53.012,0.125,-0.09
23:57:53.016,0.15,-0.105
23:57:53.020,0.145,-0.125
23:57:53.024,0.145,-0.115
23:57:53.028,0.11,-0.12
23:57:53.032,0.095,-0.13
23:57:53.036,0.075,-0.145
23:57:53.040,0.065,-0.16
23:57:53.044,0.035,-0.16
23:57:53.048,0.02,-0.165
23:57:53.052,-0.01,-0.17
23:57:53.056,-0.01,-0.17
23:57:53.060,0.015,-0.16
23:57:53.064,0.02,-0.155
23:57:53.068,0.005,-0.175
23:57:53.072,0.02,-0.175
23:57:53.076,0.025,-0.16
23:57:53.080,0.015,-0.165
23:57:53.084,0.015,-0.185
23:57:53.088,0.01,-0.175
23:57:53.092,0.0,-0.17
23:57:53.096,0.03,-0.16
23:57:53.100,0.015,-0.185
23:57:53.104,0.02,-0.18
23:57:53.108,0.025,-0.185
23:57:53.112,0.02,-0.205
23:57:53.116,0.01,-0.215
23:57:53.120,0.0,-0.21
23:57:53.124,0.0,-0.19
23:57:53.128,0.005,-0.2
23:57:53.132,0.01,-0.18
23:57:53.136,0.005,-0.19
23:57:53.140,0.03,-0.2
23:57:53.144,0.01,-0.185
23:57:53.148,0.005,-0.18
23:57:53.152,0.015,-0.18
23:57:53.156,0.02,-0.22
23:57:53.160,0.02,-0.21
23:57:53.164,0.035,-0.145
23:57:53.168,0.035,0.0
23:57:53.172,0.07,0.28
23:57:53.176,0.085,0.54
23:57:53.180,0.14,0.775
23:57:53.184,0.2,0.78
23:57:53.188,0.275,0.595
23:57:53.192,0.33,0.095
23:57:53.196,0.315,-0.54
23:57:53.200,0.245,-0.99
23:57:53.204,0.145,-1.165
23:57:53.208,0.0,-1.09
23:57:53.212,-0.155,-0.96
23:57:53.216,-0.25,-0.855
23:57:53.220,-0.26,-0.68
23:57:53.224,-0.235,-0.48
23:57:53.228,-0.19,-0.345
23:57:53.232,-0.115,-0.23
23:57:53.236,-0.02,-0.2
23:57:53.240,0.015,-0.195
23:57:53.244,0.045,-0.22
23:57:53.248,0.025,-0.21
23:57:53.252,0.02,-0.225
23:57:53.256,-0.015,-0.24
23:57:53.260,-0.02,-0.26
23:57:53.264,-0.025,-0.25
23:57:53.268,-0.035,-0.23
23:57:53.272,-0.03,-0.25
23:57:53.276,-0.025,-0.25
23:57:53.280,-0.03,-0.235
23:57:53.284,-0.02,-0.245
23:57:53.288,-0.025,-0.23
23:57:53.292,-0.015,-0.235
23:57:53.296,-0.035,-0.25
23:57:53.300,-0.02,-0.255
23:57:53.304,-0.025,-0.24
23:57:53.308,-0.04,-0.23
23:57:53.312,-0.04,-0.245
23:57:53.316,-0.03,-0.24
23:57:53.320,-0.03,-0.235
23:57:53.324,-0.03,-0.22
23:57:53.328,-0.03,-0.21
23:57:53.332,-0.015,-0.205
23:57:53.336,-0.02,-0.21
23:57:53.340,-0.03,-0.22
23:57:53.344,-0.01,-0.22
23:57:53.348,-0.025,-0.21
23:57:53.352,-0.02,-0.2
23:57:53.356,0.0,-0.21
23:57:53.360,-0.015,-0.2
23:57:53.364,-0.005,-0.205
23:57:53.368,-0.01,-0.185
23:57:53.372,0.005,-0.18
23:57:53.376,-0.02,-0.16
23:57:53.380,-0.01,-0.185
23:57:53.384,0.005,-0.17
23:57:53.388,0.005,-0.145
23:57:53.392,0.02,-0.125
23:57:53.396,0.035,-0.14
23:57:53.400,0.025,-0.13
23:57:53.404,0.0,-0.145
23:57:53.408,0.01,-0.145
23:57:53.412,0.025,-0.115
23:57:53.416,0.0,-0.11
23:57:53.420,0.03,-0.095
23:57:53.424,0.025,-0.08
23:57:53.428,0.055,-0.1
23:57:53.432,0.06,-0.095
23:57:53.436,0.085,-0.115
23:57:53.440,0.09,-0.125
23:57:53.444,0.095,-0.135
23:57:53.448,0.095,-0.13
23:57:53.452,0.11,-0.13
23:57:53.456,0.115,-0.125
23:57:53.460,0.125,-0.135
23:57:53.464,0.105,-0.15
23:57:53.468,0.11,-0.155
23:57:53.472,0.07,-0.17
23:57:53.476,0.055,-0.18
23:57:53.480,0.035,-0.19
23:57:53.484,0.03,-0.195
23:57:53.488,0.01,-0.18
23:57:53.492,-0.01,-0.2
23:57:53.496,0.0,-0.165
23:57:53.500,0.005,-0.16
23:57:53.504,-0.005,-0.185
23:57:53.508,0.015,-0.17
23:57:53.512,0.0,-0.175
23:57:53.516,0.01,-0.155
23:57:53.520,0.015,-0.16
23:57:53.524,0.015,-0.16
23:57:53.528,-0.01,-0.18
23:57:53.532,0.01,-0.18
23:57:53.536,0.015,-0.18
23:57:53.540,0.015,-0.175
23:57:53.544,0.0,-0.175
23:57:53.548,0.03,-0.18
23:57:53.552,0.01,-0.18
23:57:53.556,0.005,-0.175
23:57:53.560,0.0,-0.175
23:57:53.564,0.01,-0.175
23:57:53.568,0.01,-0.17
23:57:53.572,0.015,-0.185
23:57:53.576,0.02,-0.225
23:57:53.580,0.015,-0.24
23:57:53.584,0.02,-0.21
23:57:53.588,0.0,-0.085
23:57:53.592,0.025,0.15
23:57:53.596,0.045,0.435
23:57:53.600,0.09,0.635
23:57:53.604,0.195,0.625
23:57:53.608,0.27,0.385
23:57:53.612,0.35,-0.075
23:57:53.616,0.335,-0.68
23:57:53.620,0.275,-1.09
23:57:53.624,0.15,-1.175
23:57:53.628,-0.04,-1.065
23:57:53.632,-0.22,-0.905
23:57:53.636,-0.305,-0.74
23:57:53.640,-0.29,-0.61
23:57:53.644,-0.24,-0.5
23:57:53.648,-0.2,-0.395
23:57:53.652,-0.11,-0.335
23:57:53.656,-0.025,-0.305
23:57:53.660,0.03,-0.255
23:57:53.664,0.065,-0.2
23:57:53.668,0.09,-0.225
23:57:53.672,0.095,-0.23
23:57:53.676,0.085,-0.21
23:57:53.680,0.075,-0.21
23:57:53.684,0.05,-0.23
23:57:53.688,0.03,-0.24
23:57:53.692,0.015,-0.25
23:57:53.696,-0.01,-0.27
23:57:53.700,-0.005,-0.26
23:57:53.704,-0.025,-0.245
23:57:53.708,-0.015,-0.26
23:57:53.712,-0.005,-0.275
23:57:53.716,0.0,-0.26
23:57:53.720,-0.015,-0.27
23:57:53.724,0.0,-0.25
23:57:53.728,0.0,-0.25
23:57:53.732,-0.005,-0.265
23:57:53.736,-0.015,-0.27
23:57:53.740,0.0,-0.245
23:57:53.744,0.005,-0.235
23:57:53.748,0.0,-0.24
23:57:53.752,-0.005,-0.245
23:57:53.756,-0.015,-0.235
23:57:53.760,-0.005,-0.22
23:57:53.764,-0.015,-0.205
23:57:53.768,0.01,-0.215
23:57:53.772,0.005,-0.22
23:57:53.776,-0.005,-0.225
23:57:53.780,0.015,-0.22
23:57:53.784,-0.005,-0.205
23:57:53.788,0.01,-0.2
23:57:53.792,0.015,-0.205
23:57:53.796,0.015,-0.195
23:57:53.800,0.025,-0.195
23:57:53.804,0.015,-0.195
23:57:53.808,0.015,-0.185
23:57:53.812,0.03,-0.17
23:57:53.816,0.02,-0.16
23:57:53.820,0.045,-0.135
23:57:53.824,0.045,-0.13
23:57:53.828,0.05,-0.115
23:57:53.832,0.075,-0.15
23:57:53.836,0.085,-0.15
23:57:53.840,0.06,-0.15
23:57:53.844,0.05,-0.145
23:57:53.848,0.055,-0.16
23:57:53.852,0.04,-0.155
23:57:53.856,0.055,-0.16
23:57:53.860,0.08,-0.155
23:57:53.864,0.08,-0.16
23:57:53.868,0.105,-0.165
23:57:53.872,0.12,-0.2
23:57:53.876,0.13,-0.2
23:57:53.880,0.105,-0.17
23:57:53.884,0.125,-0.145
23:57:53.888,0.135,-0.13
23:57:53.892,0.15,-0.115
23:57:53.896,0.17,-0.13
23:57:53.900,0.155,-0.145
23:57:53.904,0.11,-0.14
23:57:53.908,0.105,-0.14
23:57:53.912,0.085,-0.16
23:57:53.916,0.07,-0.18
23:57:53.920,0.05,-0.185
23:57:53.924,0.045,-0.16
23:57:53.928,0.025,-0.155
23:57:53.932,0.04,-0.145
23:57:53.936,0.035,-0.14
23:57:53.940,0.05,-0.155
23:57:53.944,0.05,-0.16
23:57:53.948,0.05,-0.155
23:57:53.952,0.04,-0.135
23:57:53.956,0.05,-0.155
23:57:53.960,0.035,-0.155
23:57:53.964,0.04,-0.16
23:57:53.968,0.05,-0.15
23:57:53.972,0.04,-0.16
23:57:53.976,0.03,-0.16
23:57:53.980,0.035,-0.17
23:57:53.984,0.045,-0.18
23:57:53.988,0.045,-0.15
23:57:53.992,0.045,-0.175
23:57:53.996,0.04,-0.17
23:57:54.000,0.045,-0.19
23:57:54.004,0.04,-0.2
23:57:54.008,0.015,-0.2
23:57:54.012,0.04,-0.19
23:57:54.016,0.035,-0.2
23:57:54.020,0.035,-0.215
23:57:54.024,0.055,-0.205
23:57:54.028,0.045,-0.2
23:57:54.032,0.03,-0.18
23:57:54.036,0.045,-0.195
23:57:54.040,0.045,-0.175
23:57:54.044,0.035,-0.18
23:57:54.048,0.045,-0.2
23:57:54.052,0.065,-0.2
23:57:54.056,0.05,-0.215
23:57:54.060,0.03,-0.23
23:57:54.064,0.03,-0.25
23:57:54.068,0.04,-0.255
23:57:54.072,0.02,-0.25
23:57:54.076,0.015,-0.24
23:57:54.080,0.025,-0.22
23:57:54.084,0.05,-0.23
23:57:54.088,0.04,-0.25
23:57:54.092,0.055,-0.265
23:57:54.096,0.07,-0.27
23:57:54.100,0.085,-0.225
23:57:54.104,0.075,-0.175
23:57:54.108,0.105,-0.165
23:57:54.112,0.105,-0.165
23:57:54.116,0.105,-0.15
23:57:54.120,0.085,-0.155
23:57:54.124,0.085,-0.17
23:57:54.128,0.04,-0.175
23:57:54.132,0.045,-0.195
23:57:54.136,0.04,-0.185
23:57:54.140,0.035,-0.18
23:57:54.144,0.04,-0.2
23:57:54.148,0.045,-0.2
23:57:54.152,0.02,-0.21
23:57:54.156,0.035,-0.2
23:57:54.160,0.025,-0.205
23:57:54.164,0.03,-0.2
23:57:54.168,0.025,-0.195
23:57:54.172,0.015,-0.215
23:57:54.176,0.035,-0.19
23:57:54.180,0.045,-0.19
23:57:54.184,0.035,-0.205
23:57:54.188,0.035,-0.195
23:57:54.192,0.035,-0.205
23:57:54.196,0.03,-0.195
23:57:54.200,0.03,-0.21
23:57:54.204,0.035,-0.21
23:57:54.208,0.03,-0.205
23:57:54.212,0.025,-0.205
23:57:54.216,0.055,-0.22
23:57:54.220,0.045,-0.2
23:57:54.224,0.045,-0.195
23:57:54.228,0.04,-0.2
23:57:54.232,0.04,-0.21
23:57:54.236,0.025,-0.2
23:57:54.240,0.04,-0.19
23:57:54.244,0.05,-0.185
23:57:54.248,0.04,-0.18
23:57:54.252,0.025,-0.195
23:57:54.256,0.055,-0.165
23:57:54.260,0.05,-0.14
23:57:54.264,0.04,-0.165
23:57:54.268,0.055,-0.175
23:57:54.272,0.045,-0.175
23:57:54.276,0.04,-0.065
23:57:54.280,0.065,0.125
23:57:54.284,0.09,0.415
23:57:54.288,0.1,0.695
23:57:54.292,0.15,0.895
23:57:54.296,0.255,0.9
23:57:54.300,0.36,0.725
23:57:54.304,0.38,0.325
23:57:54.308,0.33,-0.335
23:57:54.312,0.26,-0.855
23:57:54.316,0.1,-1.075
23:57:54.320,-0.105,-1.06
23:57:54.324,-0.25,-0.865
23:57:54.328,-0.32,-0.655
23:57:54.332,-0.295,-0.515
23:57:54.336,-0.25,-0.39
23:57:54.340,-0.175,-0.295
23:57:54.344,-0.1,-0.24
23:57:54.348,-0.045,-0.26
23:57:54.352,-0.005,-0.275
23:57:54.356,0.02,-0.275
23:57:54.360,0.025,-0.275
23:57:54.364,0.005,-0.26
23:57:54.368,0.0,-0.27
23:57:54.372,-0.01,-0.265
23:57:54.376,0.0,-0.275
23:57:54.380,0.0,-0.27
23:57:54.384,-0.01,-0.255
23:57:54.388,-0.02,-0.275
23:57:54.392,-0.005,-0.26
23:57:54.396,0.0,-0.255
23:57:54.400,-0.005,-0.275
23:57:54.404,-0.005,-0.255
23:57:54.408,0.0,-0.265
23:57:54.412,-0.02,-0.275
23:57:54.416,-0.015,-0.28
23:57:54.420,-0.01,-0.265
23:57:54.424,-0.015,-0.245
23:57:54.428,-0.02,-0.24
23:57:54.432,0.005,-0.225
23:57:54.436,-0.005,-0.215
23:57:54.440,0.0,-0.21
23:57:54.444,0.01,-0.21
23:57:54.448,0.01,-0.195
23:57:54.452,-0.005,-0.165
23:57:54.456,0.005,-0.17
23:57:54.460,0.01,-0.155
23:57:54.464,0.03,-0.16
23:57:54.468,0.015,-0.14
23:57:54.472,0.025,-0.13
23:57:54.476,0.035,-0.13
23:57:54.480,0.03,-0.11
23:57:54.484,0.045,-0.12
23:57:54.488,0.06,-0.095
23:57:54.492,0.065,-0.09
23:57:54.496,0.07,-0.12
23:57:54.500,0.085,-0.125
23:57:54.504,0.07,-0.125
23:57:54.508,0.055,-0.13
23:57:54.512,0.05,-0.12
23:57:54.516,0.06,-0.1
23:57:54.520,0.06,-0.07
23:57:54.524,0.095,-0.085
23:57:54.528,0.1,-0.05
23:57:54.532,0.12,-0.05
23:57:54.536,0.115,-0.035
23:57:54.540,0.13,-0.06
23:57:54.544,0.165,-0.02
23:57:54.548,0.17,0.01
23:57:54.552,0.165,0.03
23:57:54.556,0.185,0.025
23:57:54.560,0.195,0.01
23:57:54.564,0.155,0.005
23:57:54.568,0.14,0.005
23:57:54.572,0.125,-0.02
23:57:54.576,0.095,-0.04
23:57:54.580,0.06,-0.06
23:57:54.584,0.045,-0.085
23:57:54.588,0.03,-0.095
23:57:54.592,0.04,-0.105
23:57:54.596,0.05,-0.1
23:57:54.600,0.02,-0.12
23:57:54.604,0.03,-0.135
23:57:54.608,0.04,-0.15
23:57:54.612,0.05,-0.13
23:57:54.616,0.05,-0.11
23:57:54.620,0.03,-0.12
23:57:54.624,0.065,-0.14
23:57:54.628,0.055,-0.145
23:57:54.632,0.055,-0.14
23:57:54.636,0.05,-0.135
23:57:54.640,0.055,-0.135
23:57:54.644,0.05,-0.14
23:57:54.648,0.03,-0.13
23:57:54.652,0.06,-0.125
23:57:54.656,0.035,-0.115
23:57:54.660,0.05,-0.135
23:57:54.664,0.045,-0.145
23:57:54.668,0.025,-0.135
23:57:54.672,0.03,-0.125
23:57:54.676,0.015,-0.13
23:57:54.680,0.035,-0.12
23:57:54.684,0.025,-0.14
23:57:54.688,0.05,-0.135
23:57:54.692,0.06,-0.12
23:57:54.696,0.035,-0.09
23:57:54.700,0.035,-0.115
23:57:54.704,0.05,-0.125
23:57:54.708,0.075,-0.165
23:57:54.712,0.05,-0.18
23:57:54.716,0.055,-0.16
23:57:54.720,0.065,-0.025
23:57:54.724,0.1,0.2
23:57:54.728,0.125,0.445
23:57:54.732,0.185,0.685
23:57:54.736,0.24,0.765
23:57:54.740,0.345,0.59
23:57:54.744,0.39,0.21
23:57:54.748,0.34,-0.395
23:57:54.752,0.165,-0.89
23:57:54.756,0.0,-1.085
23:57:54.760,-0.195,-1.02
23:57:54.764,-0.31,-0.83
23:57:54.768,-0.33,-0.64
23:57:54.772,-0.28,-0.475
23:57:54.776,-0.22,-0.33
23:57:54.780,-0.155,-0.24
23:57:54.784,-0.06,-0.22
23:57:54.788,0.0,-0.245
23:57:54.792,0.025,-0.265
23:57:54.796,0.05,-0.27
23:57:54.800,0.025,-0.265
23:57:54.804,0.015,-0.265
23:57:54.808,0.015,-0.28
23:57:54.812,0.005,-0.29
23:57:54.816,0.0,-0.27
23:57:54.820,0.005,-0.275
23:57:54.824,0.015,-0.275
23:57:54.828,0.01,-0.275
23:57:54.832,0.005,-0.27
23:57:54.836,0.0,-0.265
23:57:54.840,0.015,-0.26
23:57:54.844,0.005,-0.25
23:57:54.848,0.015,-0.255
23:57:54.852,0.0,-0.26
23:57:54.856,0.0,-0.255
23:57:54.860,0.0,-0.24
23:57:54.864,-0.01,-0.235
23:57:54.868,0.01,-0.24
23:57:54.872,-0.01,-0.235
23:57:54.876,0.0,-0.21
23:57:54.880,0.03,-0.215
23:57:54.884,0.03,-0.195
23:57:54.888,0.02,-0.19
23:57:54.892,0.02,-0.175
23:57:54.896,0.02,-0.18
23:57:54.900,0.005,-0.165
23:57:54.904,0.02,-0.15
23:57:54.908,0.055,-0.145
23:57:54.912,0.055,-0.145
23:57:54.916,0.04,-0.145
23:57:54.920,0.04,-0.13
23:57:54.924,0.07,-0.13
23:57:54.928,0.06,-0.1
23:57:54.932,0.085,-0.135
23:57:54.936,0.075,-0.135
23:57:54.940,0.07,-0.14
23:57:54.944,0.075,-0.13
23:57:54.948,0.07,-0.11
23:57:54.952,0.045,-0.105
23:57:54.956,0.05,-0.11
23:57:54.960,0.06,-0.065
23:57:54.964,0.095,-0.065
23:57:54.968,0.115,-0.06
23:57:54.972,0.12,-0.07
23:57:54.976,0.12,-0.085
23:57:54.980,0.135,-0.085
23:57:54.984,0.135,-0.065
23:57:54.988,0.175,-0.055
23:57:54.992,0.195,-0.06
23:57:54.996,0.17,-0.075
23:57:55.000,0.18,-0.1
23:57:55.004,0.175,-0.105
23:57:55.008,0.155,-0.095
23:57:55.012,0.13,-0.12
23:57:55.016,0.105,-0.14
23:57:55.020,0.085,-0.185
23:57:55.024,0.05,-0.155
23:57:55.028,0.055,-0.15
23:57:55.032,0.04,-0.15
23:57:55.036,0.06,-0.16
23:57:55.040,0.05,-0.155
23:57:55.044,0.06,-0.155
23:57:55.048,0.06,-0.14
23:57:55.052,0.06,-0.135
23:57:55.056,0.07,-0.145
23:57:55.060,0.065,-0.145
23:57:55.064,0.06,-0.145
23:57:55.068,0.065,-0.155
23:57:55.072,0.045,-0.16
23:57:55.076,0.065,-0.16
23:57:55.080,0.055,-0.16
23:57:55.084,0.06,-0.18
23:57:55.088,0.055,-0.16
23:57:55.092,0.055,-0.155
23:57:55.096,0.055,-0.135
23:57:55.100,0.065,-0.155
23:57:55.104,0.06,-0.15
23:57:55.108,0.06,-0.16
23:57:55.112,0.065,-0.165
23:57:55.116,0.065,-0.17
23:57:55.120,0.05,-0.2
23:57:55.124,0.065,-0.235
23:57:55.128,0.075,-0.21
23:57:55.132,0.07,-0.05
23:57:55.136,0.105,0.185
23:57:55.140,0.16,0.465
23:57:55.144,0.21,0.725
23:57:55.148,0.295,0.795
23:57:55.152,0.38,0.655
23:57:55.156,0.435,0.295
23:57:55.160,0.39,-0.32
23:57:55.164,0.285,-0.865
23:57:55.168,0.13,-1.075
23:57:55.172,-0.05,-1.03
23:57:55.176,-0.235,-0.865
23:57:55.180,-0.32,-0.735
23:57:55.184,-0.295,-0.585
23:57:55.188,-0.25,-0.45
23:57:55.192,-0.17,-0.38
23:57:55.196,-0.065,-0.315
23:57:55.200,0.01,-0.25
23:57:55.204,0.075,-0.24
23:57:55.208,0.12,-0.22
23:57:55.212,0.135,-0.2
23:57:55.216,0.125,-0.18
23:57:55.220,0.115,-0.185
23:57:55.224,0.07,-0.215
23:57:55.228,0.055,-0.23
23:57:55.232,0.035,-0.24
23:57:55.236,0.02,-0.24
23:57:55.240,0.005,-0.235
23:57:55.244,0.0,-0.255
23:57:55.248,0.0,-0.235
23:57:55.252,0.0,-0.235
23:57:55.256,0.005,-0.22
23:57:55.260,0.01,-0.225
23:57:55.264,0.02,-0.24
23:57:55.268,0.025,-0.23
23:57:55.272,-0.005,-0.225
23:57:55.276,0.0,-0.215
23:57:55.280,0.02,-0.21
23:57:55.284,0.0,-0.215
23:57:55.288,0.0,-0.205
23:57:55.292,0.01,-0.195
23:57:55.296,0.015,-0.18
23:57:55.300,0.025,-0.16
23:57:55.304,0.01,-0.175
23:57:55.308,0.0,-0.175
23:57:55.312,0.0,-0.16
23:57:55.316,0.02,-0.16
23:57:55.320,0.02,-0.13
23:57:55.324,0.015,-0.135
23:57:55.328,0.02,-0.145
23:57:55.332,0.025,-0.135
23:57:55.336,0.02,-0.135
23:57:55.340,0.02,-0.11
23:57:55.344,0.015,-0.1
23:57:55.348,0.025,-0.095
23:57:55.352,0.02,-0.09
23:57:55.356,0.04,-0.085
23:57:55.360,0.055,-0.075
23:57:55.364,0.04,-0.05
23:57:55.368,0.05,-0.055
23:57:55.372,0.07,-0.05
23:57:55.376,0.05,-0.04
23:57:55.380,0.075,-0.04
23:57:55.384,0.06,-0.03
23:57:55.388,0.045,-0.045
23:57:55.392,0.035,-0.06
23:57:55.396,0.04,-0.07
23:57:55.400,0.07,-0.07
23:57:55.404,0.08,-0.06
23:57:55.408,0.095,-0.095
23:57:55.412,0.11,-0.11
23:57:55.416,0.095,-0.115
23:57:55.420,0.105,-0.115
23:57:55.424,0.13,-0.115
23:57:55.428,0.12,-0.115
23:57:55.432,0.11,-0.115
23:57:55.436,0.125,-0.105
23:57:55.440,0.13,-0.095
23:57:55.444,0.115,-0.085
23:57:55.448,0.1,-0.085
23:57:55.452,0.09,-0.085
23:57:55.456,0.07,-0.105
23:57:55.460,0.03,-0.13
23:57:55.464,0.03,-0.13
23:57:55.468,0.015,-0.135
23:57:55.472,-0.01,-0.12
23:57:55.476,-0.01,-0.14
23:57:55.480,0.005,-0.145
23:57:55.484,0.0,-0.12
23:57:55.488,0.0,-0.135
23:57:55.492,0.02,-0.145
23:57:55.496,0.01,-0.155
23:57:55.500,0.005,-0.15
23:57:55.504,0.0,-0.15
23:57:55.508,0.0,-0.14
23:57:55.512,0.01,-0.15
23:57:55.516,0.01,-0.175
23:57:55.520,0.01,-0.17
23:57:55.524,0.01,-0.16
23:57:55.528,0.01,-0.16
23:57:55.532,0.0,-0.17
23:57:55.536,0.015,-0.18
23:57:55.540,0.015,-0.175
23:57:55.544,0.0,-0.175
23:57:55.548,0.025,-0.16
23:57:55.552,0.015,-0.16
23:57:55.556,-0.02,-0.18
23:57:55.560,0.01,-0.21
23:57:55.564,0.01,-0.185
23:57:55.568,0.0,-0.16
23:57:55.572,0.005,-0.15
23:57:55.576,0.015,-0.175
23:57:55.580,0.01,-0.155
23:57:55.584,0.015,-0.155
23:57:55.588,0.025,-0.16
23:57:55.592,0.045,-0.17
23:57:55.596,0.035,-0.185
23:57:55.600,0.025,-0.195
23:57:55.604,0.025,-0.12
23:57:55.608,0.02,0.05
23:57:55.612,0.045,0.315
23:57:55.616,0.09,0.62
23:57:55.620,0.115,0.855
23:57:55.624,0.21,0.915
23:57:55.628,0.305,0.72
23:57:55.632,0.36,0.175
23:57:55.636,0.365,-0.575
23:57:55.640,0.29,-1.05
23:57:55.644,0.18,-1.18
23:57:55.648,0.035,-1.1
23:57:55.652,-0.12,-0.88
23:57:55.656,-0.225,-0.74
23:57:55.660,-0.24,-0.565
23:57:55.664,-0.24,-0.435
23:57:55.668,-0.225,-0.34
23:57:55.672,-0.165,-0.275
