Time,ECG1,ECG2
00:02:14.940:1,0.095,-0.185
00:02:14.944:1,0.085,-0.195
00:02:14.948:1,0.095,-0.185
00:02:14.952:1,0.085,-0.18
00:02:14.956:1,0.09,-0.175
00:02:14.960:1,0.12,-0.165
00:02:14.964:1,0.125,-0.16
00:02:14.968:1,0.115,-0.155
00:02:14.972:1,0.12,-0.14
00:02:14.976:1,0.14,-0.135
00:02:14.980:1,0.15,-0.1
00:02:14.984:1,0.16,-0.1
00:02:14.988:1,0.165,-0.09
00:02:14.992:1,0.185,-0.115
00:02:14.996:1,0.215,-0.12
00:02:15.000:1,0.21,-0.16
00:02:15.004:1,0.22,-0.17
00:02:15.008:1,0.21,-0.175
00:02:15.012:1,0.2,-0.205
00:02:15.016:1,0.205,-0.195
00:02:15.020:1,0.205,-0.16
00:02:15.024:1,0.21,-0.17
00:02:15.028:1,0.21,-0.14
00:02:15.032:1,0.21,-0.115
00:02:15.036:1,0.195,-0.065
00:02:15.040:1,0.2,-0.055
00:02:15.044:1,0.22,-0.06
00:02:15.048:1,0.22,-0.05
00:02:15.052:1,0.195,-0.06
00:02:15.056:1,0.18,-0.07
00:02:15.060:1,0.165,-0.07
00:02:15.064:1,0.175,-0.08
00:02:15.068:1,0.145,-0.085
00:02:15.072:1,0.135,-0.105
00:02:15.076:1,0.12,-0.115
00:02:15.080:1,0.105,-0.135
00:02:15.084:1,0.12,-0.135
00:02:15.088:1,0.115,-0.135
00:02:15.092:1,0.12,-0.155
00:02:15.096:1,0.125,-0.17
00:02:15.100:1,0.11,-0.165
00:02:15.104:1,0.1,-0.175
00:02:15.108:1,0.105,-0.175
00:02:15.112:1,0.115,-0.185
00:02:15.116:1,0.1,-0.2
00:02:15.120:1,0.105,-0.205
00:02:15.124:1,0.1,-0.205
00:02:15.128:1,0.1,-0.215
00:02:15.132:1,0.105,-0.2
00:02:15.136:1,0.1,-0.22
00:02:15.140:1,0.105,-0.215
00:02:15.144:1,0.11,-0.185
00:02:15.148:1,0.11,-0.17
00:02:15.152:1,0.12,-0.195
00:02:15.156:1,0.125,-0.215
00:02:15.160:1,0.12,-0.225
00:02:15.164:1,0.14,-0.24
00:02:15.168:1,0.145,-0.245
00:02:15.172:1,0.15,-0.255
00:02:15.176:1,0.165,-0.27
00:02:15.180:1,0.17,-0.25
00:02:15.184:1,0.16,-0.27
00:02:15.188:1,0.16,-0.27
00:02:15.192:1,0.18,-0.28
00:02:15.196:1,0.185,-0.24
00:02:15.200:1,0.16,-0.19
00:02:15.204:1,0.15,-0.155
00:02:15.208:1,0.17,-0.13
00:02:15.212:1,0.17,-0.125
00:02:15.216:1,0.155,-0.16
00:02:15.220:1,0.16,-0.185
00:02:15.224:1,0.145,-0.2
00:02:15.228:1,0.145,-0.18
00:02:15.232:1,0.135,-0.18
00:02:15.236:1,0.155,-0.2
00:02:15.240:1,0.14,-0.23
00:02:15.244:1,0.135,-0.235
00:02:15.248:1,0.115,-0.22
00:02:15.252:1,0.105,-0.245
00:02:15.256:1,0.125,-0.25
00:02:15.260:1,0.115,-0.26
00:02:15.264:1,0.125,-0.255
00:02:15.268:1,0.125,-0.265
00:02:15.272:1,0.12,-0.26
00:02:15.276:1,0.125,-0.255
00:02:15.280:1,0.105,-0.275
00:02:15.284:1,0.1,-0.26
00:02:15.288:1,0.12,-0.27
00:02:15.292:1,0.115,-0.26
00:02:15.296:1,0.105,-0.255
00:02:15.300:1,0.1,-0.24
00:02:15.304:1,0.125,-0.265
00:02:15.308:1,0.105,-0.24
00:02:15.312:1,0.115,-0.24
00:02:15.316:1,0.12,-0.24
00:02:15.320:1,0.115,-0.23
00:02:15.324:1,0.13,-0.215
00:02:15.328:1,0.15,-0.23
00:02:15.332:1,0.145,-0.205
00:02:15.336:1,0.14,-0.225
00:02:15.340:1,0.16,-0.25
00:02:15.344:1,0.19,-0.27
00:02:15.348:1,0.19,-0.28
00:02:15.352:1,0.165,-0.295
00:02:15.356:1,0.165,-0.3
00:02:15.360:1,0.19,-0.31
00:02:15.364:1,0.175,-0.295
00:02:15.368:1,0.19,-0.27
00:02:15.372:1,0.185,-0.25
00:02:15.376:1,0.17,-0.205
00:02:15.380:1,0.17,-0.185
00:02:15.384:1,0.175,-0.165
00:02:15.388:1,0.19,-0.18
00:02:15.392:1,0.16,-0.18
00:02:15.396:1,0.145,-0.185
00:02:15.400:1,0.15,-0.2
00:02:15.404:1,0.135,-0.185
00:02:15.408:1,0.12,-0.21
00:02:15.412:1,0.105,-0.21
00:02:15.416:1,0.105,-0.195
00:02:15.420:1,0.11,-0.21
00:02:15.424:1,0.12,-0.23
00:02:15.428:1,0.115,-0.23
00:02:15.432:1,0.105,-0.235
00:02:15.436:1,0.1,-0.185
00:02:15.440:1,0.13,0.0
00:02:15.444:1,0.155,0.295
00:02:15.448:1,0.19,0.61
00:02:15.452:1,0.23,0.875
00:02:15.456:1,0.33,0.965
00:02:15.460:1,0.415,0.865
00:02:15.464:1,0.48,0.515
00:02:15.468:1,0.455,-0.045
00:02:15.472:1,0.355,-0.625
00:02:15.476:1,0.21,-0.945
00:02:15.480:1,-0.015,-1.045
00:02:15.484:1,-0.21,-0.935
00:02:15.488:1,-0.31,-0.72
00:02:15.492:1,-0.31,-0.56
00:02:15.496:1,-0.255,-0.43
00:02:15.500:1,-0.155,-0.335
00:02:15.504:1,-0.035,-0.27
00:02:15.508:1,0.04,-0.275
00:02:15.512:1,0.135,-0.28
00:02:15.516:1,0.195,-0.305
00:02:15.520:1,0.2,-0.295
00:02:15.524:1,0.195,-0.305
00:02:15.528:1,0.19,-0.32
00:02:15.532:1,0.19,-0.335
00:02:15.536:1,0.205,-0.32
00:02:15.540:1,0.2,-0.27
00:02:15.544:1,0.185,-0.255
00:02:15.548:1,0.195,-0.215
00:02:15.552:1,0.185,-0.205
00:02:15.556:1,0.2,-0.175
00:02:15.560:1,0.215,-0.185
00:02:15.564:1,0.205,-0.185
00:02:15.568:1,0.17,-0.22
00:02:15.572:1,0.17,-0.225
00:02:15.576:1,0.165,-0.24
00:02:15.580:1,0.125,-0.245
00:02:15.584:1,0.135,-0.265
00:02:15.588:1,0.115,-0.28
00:02:15.592:1,0.105,-0.3
00:02:15.596:1,0.105,-0.32
00:02:15.600:1,0.095,-0.3
00:02:15.604:1,0.12,-0.315
00:02:15.608:1,0.085,-0.285
00:02:15.612:1,0.105,-0.31
00:02:15.616:1,0.115,-0.3
00:02:15.620:1,0.1,-0.295
00:02:15.624:1,0.1,-0.285
00:02:15.628:1,0.125,-0.275
00:02:15.632:1,0.12,-0.26
00:02:15.636:1,0.115,-0.255
00:02:15.640:1,0.135,-0.26
00:02:15.644:1,0.135,-0.235
00:02:15.648:1,0.145,-0.22
00:02:15.652:1,0.15,-0.195
00:02:15.656:1,0.18,-0.195
00:02:15.660:1,0.17,-0.16
00:02:15.664:1,0.19,-0.155
00:02:15.668:1,0.2,-0.16
00:02:15.672:1,0.235,-0.185
00:02:15.676:1,0.235,-0.195
00:02:15.680:1,0.24,-0.205
00:02:15.684:1,0.23,-0.225
00:02:15.688:1,0.25,-0.22
00:02:15.692:1,0.265,-0.215
00:02:15.696:1,0.255,-0.215
00:02:15.700:1,0.27,-0.2
00:02:15.704:1,0.275,-0.16
00:02:15.708:1,0.275,-0.105
00:02:15.712:1,0.265,-0.07
00:02:15.716:1,0.255,-0.035
00:02:15.720:1,0.24,-0.03
00:02:15.724:1,0.255,-0.02
00:02:15.728:1,0.27,-0.02
00:02:15.732:1,0.235,-0.005
00:02:15.736:1,0.26,-0.03
00:02:15.740:1,0.235,-0.04
00:02:15.744:1,0.22,-0.04
00:02:15.748:1,0.2,-0.05
00:02:15.752:1,0.175,-0.075
00:02:15.756:1,0.18,-0.08
00:02:15.760:1,0.17,-0.105
00:02:15.764:1,0.165,-0.1
00:02:15.768:1,0.155,-0.105
00:02:15.772:1,0.17,-0.115
00:02:15.776:1,0.155,-0.135
00:02:15.780:1,0.17,-0.15
00:02:15.784:1,0.16,-0.155
00:02:15.788:1,0.16,-0.135
00:02:15.792:1,0.16,-0.14
00:02:15.796:1,0.165,-0.155
00:02:15.800:1,0.165,-0.155
00:02:15.804:1,0.165,-0.155
00:02:15.808:1,0.19,-0.135
00:02:15.812:1,0.175,-0.13
00:02:15.816:1,0.18,-0.13
00:02:15.820:1,0.18,-0.105
00:02:15.824:1,0.19,-0.095
00:02:15.828:1,0.18,-0.08
00:02:15.832:1,0.2,-0.095
00:02:15.836:1,0.21,-0.1
00:02:15.840:1,0.23,-0.125
00:02:15.844:1,0.235,-0.175
00:02:15.848:1,0.22,-0.2
00:02:15.852:1,0.215,-0.21
00:02:15.856:1,0.215,-0.21
00:02:15.860:1,0.225,-0.25
00:02:15.864:1,0.215,-0.25
00:02:15.868:1,0.19,-0.2
00:02:15.872:1,0.195,-0.15
00:02:15.876:1,0.205,-0.11
00:02:15.880:1,0.2,-0.09
00:02:15.884:1,0.2,-0.095
00:02:15.888:1,0.2,-0.15
00:02:15.892:1,0.205,-0.175
00:02:15.896:1,0.185,-0.15
00:02:15.900:1,0.155,-0.02
00:02:15.904:1,0.21,0.2
00:02:15.908:1,0.205,0.48
00:02:15.912:1,0.25,0.715
00:02:15.916:1,0.335,0.82
00:02:15.920:1,0.405,0.73
00:02:15.924:1,0.455,0.41
00:02:15.928:1,0.445,-0.125
00:02:15.932:1,0.335,-0.72
00:02:15.936:1,0.175,-1.03
00:02:15.940:1,0.0,-1.1
00:02:15.944:1,-0.2,-0.995
00:02:15.948:1,-0.315,-0.835
00:02:15.952:1,-0.29,-0.68
00:02:15.956:1,-0.25,-0.535
00:02:15.960:1,-0.205,-0.415
00:02:15.964:1,-0.13,-0.34
00:02:15.968:1,-0.035,-0.3
00:02:15.972:1,0.04,-0.315
00:02:15.976:1,0.09,-0.31
00:02:15.980:1,0.11,-0.31
00:02:15.984:1,0.125,-0.305
00:02:15.988:1,0.115,-0.285
00:02:15.992:1,0.115,-0.29
00:02:15.996:1,0.125,-0.285
00:02:16.000:1,0.115,-0.265
00:02:16.004:1,0.105,-0.235
00:02:16.008:1,0.125,-0.26
00:02:16.012:1,0.14,-0.265
00:02:16.016:1,0.135,-0.275
00:02:16.020:1,0.155,-0.285
00:02:16.024:1,0.16,-0.305
00:02:16.028:1,0.165,-0.3
00:02:16.032:1,0.15,-0.315
00:02:16.036:1,0.15,-0.315
00:02:16.040:1,0.155,-0.295
00:02:16.044:1,0.175,-0.28
00:02:16.048:1,0.165,-0.265
00:02:16.052:1,0.18,-0.23
00:02:16.056:1,0.155,-0.195
00:02:16.060:1,0.175,-0.165
00:02:16.064:1,0.185,-0.135
00:02:16.068:1,0.195,-0.115
00:02:16.072:1,0.18,-0.125
00:02:16.076:1,0.18,-0.14
00:02:16.080:1,0.165,-0.14
00:02:16.084:1,0.16,-0.125
00:02:16.088:1,0.11,-0.15
00:02:16.092:1,0.12,-0.155
00:02:16.096:1,0.115,-0.15
00:02:16.100:1,0.095,-0.17
00:02:16.104:1,0.09,-0.165
00:02:16.108:1,0.105,-0.15
00:02:16.112:1,0.1,-0.14
00:02:16.116:1,0.1,-0.16
00:02:16.120:1,0.09,-0.15
00:02:16.124:1,0.11,-0.135
00:02:16.128:1,0.115,-0.14
00:02:16.132:1,0.13,-0.145
00:02:16.136:1,0.105,-0.12
00:02:16.140:1,0.11,-0.13
00:02:16.144:1,0.13,-0.125
00:02:16.148:1,0.15,-0.12
00:02:16.152:1,0.14,-0.09
00:02:16.156:1,0.145,-0.105
00:02:16.160:1,0.15,-0.095
00:02:16.164:1,0.155,-0.08
00:02:16.168:1,0.15,-0.065
00:02:16.172:1,0.175,-0.045
00:02:16.176:1,0.19,-0.04
00:02:16.180:1,0.19,-0.045
00:02:16.184:1,0.22,-0.06
00:02:16.188:1,0.26,-0.095
00:02:16.192:1,0.245,-0.14
00:02:16.196:1,0.245,-0.18
00:02:16.200:1,0.23,-0.19
00:02:16.204:1,0.24,-0.21
00:02:16.208:1,0.24,-0.21
00:02:16.212:1,0.24,-0.21
00:02:16.216:1,0.235,-0.215
00:02:16.220:1,0.245,-0.2
00:02:16.224:1,0.215,-0.17
00:02:16.228:1,0.235,-0.155
00:02:16.232:1,0.24,-0.14
00:02:16.236:1,0.25,-0.125
00:02:16.240:1,0.22,-0.155
00:02:16.244:1,0.225,-0.145
00:02:16.248:1,0.205,-0.14
00:02:16.252:1,0.195,-0.15
00:02:16.256:1,0.18,-0.175
00:02:16.260:1,0.16,-0.18
00:02:16.264:1,0.155,-0.16
00:02:16.268:1,0.145,-0.175
00:02:16.272:1,0.14,-0.19
00:02:16.276:1,0.135,-0.2
00:02:16.280:1,0.115,-0.21
00:02:16.284:1,0.135,-0.21
00:02:16.288:1,0.14,-0.2
00:02:16.292:1,0.135,-0.2
00:02:16.296:1,0.11,-0.2
00:02:16.300:1,0.11,-0.22
00:02:16.304:1,0.105,-0.225
00:02:16.308:1,0.12,-0.235
00:02:16.312:1,0.125,-0.21
00:02:16.316:1,0.12,-0.205
00:02:16.320:1,0.13,-0.235
00:02:16.324:1,0.12,-0.235
00:02:16.328:1,0.11,-0.225
00:02:16.332:1,0.125,-0.215
00:02:16.336:1,0.125,-0.205
00:02:16.340:1,0.105,-0.215
00:02:16.344:1,0.11,-0.215
00:02:16.348:1,0.13,-0.22
00:02:16.352:1,0.14,-0.225
00:02:16.356:1,0.145,-0.24
00:02:16.360:1,0.145,-0.26
00:02:16.364:1,0.14,-0.28
00:02:16.368:1,0.17,-0.3
00:02:16.372:1,0.155,-0.285
00:02:16.376:1,0.145,-0.295
00:02:16.380:1,0.17,-0.295
00:02:16.384:1,0.175,-0.325
00:02:16.388:1,0.19,-0.325
00:02:16.392:1,0.165,-0.27
00:02:16.396:1,0.17,-0.205
00:02:16.400:1,0.15,-0.16
00:02:16.404:1,0.17,-0.14
00:02:16.408:1,0.18,-0.175
00:02:16.412:1,0.15,-0.185
00:02:16.416:1,0.14,-0.185
00:02:16.420:1,0.135,-0.195
00:02:16.424:1,0.135,-0.19
00:02:16.428:1,0.115,-0.19
00:02:16.432:1,0.12,-0.215
00:02:16.436:1,0.12,-0.21
00:02:16.440:1,0.11,-0.2
00:02:16.444:1,0.12,-0.195
00:02:16.448:1,0.115,-0.205
00:02:16.452:1,0.1,-0.225
00:02:16.456:1,0.1,-0.225
00:02:16.460:1,0.1,-0.215
00:02:16.464:1,0.085,-0.21
00:02:16.468:1,0.12,-0.22
00:02:16.472:1,0.11,-0.24
00:02:16.476:1,0.105,-0.225
00:02:16.480:1,0.095,-0.24
00:02:16.484:1,0.105,-0.235
00:02:16.488:1,0.09,-0.245
00:02:16.492:1,0.1,-0.225
00:02:16.496:1,0.105,-0.225
00:02:16.500:1,0.115,-0.21
00:02:16.504:1,0.105,-0.205
00:02:16.508:1,0.115,-0.205
00:02:16.512:1,0.125,-0.19
00:02:16.516:1,0.115,-0.195
00:02:16.520:1,0.115,-0.19
00:02:16.524:1,0.15,-0.155
00:02:16.528:1,0.135,-0.175
00:02:16.532:1,0.165,-0.175
00:02:16.536:1,0.18,-0.205
00:02:16.540:1,0.185,-0.205
00:02:16.544:1,0.175,-0.205
00:02:16.548:1,0.18,-0.2
00:02:16.552:1,0.18,-0.21
00:02:16.556:1,0.205,-0.22
00:02:16.560:1,0.215,-0.22
00:02:16.564:1,0.205,-0.16
00:02:16.568:1,0.215,0.01
00:02:16.572:1,0.22,0.305
00:02:16.576:1,0.25,0.62
00:02:16.580:1,0.285,0.885
00:02:16.584:1,0.365,1.055
00:02:16.588:1,0.45,1.01
00:02:16.592:1,0.49,0.725
00:02:16.596:1,0.525,0.115
00:02:16.600:1,0.505,-0.595
00:02:16.604:1,0.43,-1.04
00:02:16.608:1,0.295,-1.26
00:02:16.612:1,0.115,-1.2
00:02:16.616:1,-0.08,-1.03
00:02:16.620:1,-0.215,-0.865
00:02:16.624:1,-0.275,-0.71
00:02:16.628:1,-0.24,-0.57
00:02:16.632:1,-0.24,-0.46
00:02:16.636:1,-0.165,-0.395
00:02:16.640:1,-0.08,-0.345
00:02:16.644:1,-0.02,-0.33
00:02:16.648:1,0.025,-0.345
00:02:16.652:1,0.05,-0.33
00:02:16.656:1,0.065,-0.335
00:02:16.660:1,0.06,-0.315
00:02:16.664:1,0.075,-0.315
00:02:16.668:1,0.075,-0.315
00:02:16.672:1,0.075,-0.315
00:02:16.676:1,0.055,-0.3
00:02:16.680:1,0.065,-0.31
00:02:16.684:1,0.065,-0.29
00:02:16.688:1,0.08,-0.28
00:02:16.692:1,0.09,-0.25
00:02:16.696:1,0.11,-0.23
00:02:16.700:1,0.12,-0.24
00:02:16.704:1,0.13,-0.285
00:02:16.708:1,0.14,-0.295
00:02:16.712:1,0.125,-0.305
00:02:16.716:1,0.125,-0.305
00:02:16.720:1,0.12,-0.31
00:02:16.724:1,0.12,-0.315
00:02:16.728:1,0.115,-0.295
00:02:16.732:1,0.125,-0.28
00:02:16.736:1,0.14,-0.27
00:02:16.740:1,0.135,-0.24
00:02:16.744:1,0.145,-0.235
00:02:16.748:1,0.14,-0.195
00:02:16.752:1,0.155,-0.155
00:02:16.756:1,0.16,-0.155
00:02:16.760:1,0.185,-0.155
00:02:16.764:1,0.155,-0.18
00:02:16.768:1,0.12,-0.18
00:02:16.772:1,0.125,-0.18
00:02:16.776:1,0.115,-0.17
00:02:16.780:1,0.1,-0.18
00:02:16.784:1,0.095,-0.2
00:02:16.788:1,0.08,-0.19
00:02:16.792:1,0.07,-0.18
00:02:16.796:1,0.08,-0.175
00:02:16.800:1,0.065,-0.16
00:02:16.804:1,0.07,-0.16
00:02:16.808:1,0.065,-0.145
00:02:16.812:1,0.085,-0.135
00:02:16.816:1,0.085,-0.12
00:02:16.820:1,0.08,-0.115
00:02:16.824:1,0.095,-0.105
00:02:16.828:1,0.12,-0.12
00:02:16.832:1,0.115,-0.11
00:02:16.836:1,0.125,-0.065
00:02:16.840:1,0.125,-0.065
00:02:16.844:1,0.13,-0.04
00:02:16.848:1,0.145,0.015
00:02:16.852:1,0.14,0.01
00:02:16.856:1,0.17,0.005
00:02:16.860:1,0.195,-0.005
00:02:16.864:1,0.2,-0.01
00:02:16.868:1,0.2,-0.02
00:02:16.872:1,0.205,-0.06
00:02:16.876:1,0.2,-0.08
00:02:16.880:1,0.205,-0.095
00:02:16.884:1,0.205,-0.115
00:02:16.888:1,0.2,-0.13
00:02:16.892:1,0.205,-0.135
00:02:16.896:1,0.185,-0.135
00:02:16.900:1,0.2,-0.1
00:02:16.904:1,0.195,-0.06
00:02:16.908:1,0.175,-0.05
00:02:16.912:1,0.19,-0.06
00:02:16.916:1,0.21,-0.025
00:02:16.920:1,0.21,-0.025
00:02:16.924:1,0.21,-0.03
00:02:16.928:1,0.175,-0.045
00:02:16.932:1,0.165,-0.07
00:02:16.936:1,0.17,-0.095
00:02:16.940:1,0.165,-0.08
00:02:16.944:1,0.125,-0.08
00:02:16.948:1,0.135,-0.1
00:02:16.952:1,0.135,-0.12
00:02:16.956:1,0.105,-0.13
00:02:16.960:1,0.11,-0.14
00:02:16.964:1,0.125,-0.145
00:02:16.968:1,0.09,-0.15
00:02:16.972:1,0.105,-0.17
00:02:16.976:1,0.11,-0.185
00:02:16.980:1,0.105,-0.19
00:02:16.984:1,0.105,-0.185
00:02:16.988:1,0.11,-0.21
00:02:16.992:1,0.1,-0.215
00:02:16.996:1,0.105,-0.215
00:02:17.000:1,0.085,-0.215
00:02:17.004:1,0.11,-0.2
00:02:17.008:1,0.105,-0.18
00:02:17.012:1,0.095,-0.18
00:02:17.016:1,0.115,-0.21
00:02:17.020:1,0.145,-0.21
00:02:17.024:1,0.125,-0.2
00:02:17.028:1,0.14,-0.23
00:02:17.032:1,0.14,-0.24
00:02:17.036:1,0.145,-0.255
00:02:17.040:1,0.16,-0.29
00:02:17.044:1,0.165,-0.285
00:02:17.048:1,0.155,-0.285
00:02:17.052:1,0.15,-0.28
00:02:17.056:1,0.155,-0.28
00:02:17.060:1,0.175,-0.245
00:02:17.064:1,0.155,-0.22
00:02:17.068:1,0.165,-0.18
00:02:17.072:1,0.18,-0.145
00:02:17.076:1,0.195,-0.145
00:02:17.080:1,0.175,-0.16
00:02:17.084:1,0.16,-0.16
00:02:17.088:1,0.14,-0.165
00:02:17.092:1,0.135,-0.155
00:02:17.096:1,0.12,-0.17
00:02:17.100:1,0.145,-0.16
00:02:17.104:1,0.13,-0.155
00:02:17.108:1,0.12,-0.145
00:02:17.112:1,0.12,-0.08
00:02:17.116:1,0.12,0.075
00:02:17.120:1,0.135,0.315
00:02:17.124:1,0.16,0.555
00:02:17.128:1,0.21,0.795
00:02:17.132:1,0.26,0.865
00:02:17.136:1,0.345,0.735
00:02:17.140:1,0.435,0.38
00:02:17.144:1,0.445,-0.22
00:02:17.148:1,0.435,-0.875
00:02:17.152:1,0.375,-1.21
00:02:17.156:1,0.255,-1.27
00:02:17.160:1,0.05,-1.13
00:02:17.164:1,-0.105,-0.945
00:02:17.168:1,-0.205,-0.775
00:02:17.172:1,-0.22,-0.615
00:02:17.176:1,-0.205,-0.51
00:02:17.180:1,-0.155,-0.395
00:02:17.184:1,-0.075,-0.315
00:02:17.188:1,-0.005,-0.25
00:02:17.192:1,0.05,-0.255
00:02:17.196:1,0.115,-0.26
00:02:17.200:1,0.12,-0.25
00:02:17.204:1,0.155,-0.29
00:02:17.208:1,0.15,-0.305
00:02:17.212:1,0.155,-0.33
00:02:17.216:1,0.145,-0.335
00:02:17.220:1,0.135,-0.365
00:02:17.224:1,0.14,-0.39
00:02:17.228:1,0.12,-0.375
00:02:17.232:1,0.125,-0.36
00:02:17.236:1,0.14,-0.335
00:02:17.240:1,0.135,-0.285
00:02:17.244:1,0.135,-0.28
00:02:17.248:1,0.125,-0.265
00:02:17.252:1,0.135,-0.245
00:02:17.256:1,0.115,-0.26
00:02:17.260:1,0.105,-0.275
00:02:17.264:1,0.095,-0.265
00:02:17.268:1,0.09,-0.285
00:02:17.272:1,0.085,-0.29
00:02:17.276:1,0.1,-0.29
00:02:17.280:1,0.09,-0.29
00:02:17.284:1,0.075,-0.28
00:02:17.288:1,0.095,-0.285
00:02:17.292:1,0.09,-0.28
00:02:17.296:1,0.085,-0.26
00:02:17.300:1,0.075,-0.275
00:02:17.304:1,0.085,-0.275
00:02:17.308:1,0.095,-0.285
00:02:17.312:1,0.075,-0.27
00:02:17.316:1,0.095,-0.275
00:02:17.320:1,0.1,-0.245
00:02:17.324:1,0.085,-0.25
00:02:17.328:1,0.09,-0.25
00:02:17.332:1,0.125,-0.27
00:02:17.336:1,0.1,-0.25
00:02:17.340:1,0.09,-0.255
00:02:17.344:1,0.095,-0.245
00:02:17.348:1,0.095,-0.25
00:02:17.352:1,0.105,-0.255
00:02:17.356:1,0.1,-0.25
00:02:17.360:1,0.125,-0.23
00:02:17.364:1,0.125,-0.215
00:02:17.368:1,0.135,-0.2
00:02:17.372:1,0.14,-0.195
00:02:17.376:1,0.14,-0.17
00:02:17.380:1,0.165,-0.155
00:02:17.384:1,0.165,-0.155
00:02:17.388:1,0.175,-0.185
00:02:17.392:1,0.175,-0.195
00:02:17.396:1,0.17,-0.205
00:02:17.400:1,0.185,-0.215
00:02:17.404:1,0.195,-0.205
00:02:17.408:1,0.185,-0.185
00:02:17.412:1,0.185,-0.175
00:02:17.416:1,0.2,-0.15
00:02:17.420:1,0.185,-0.145
00:02:17.424:1,0.2,-0.155
00:02:17.428:1,0.2,-0.15
00:02:17.432:1,0.185,-0.14
00:02:17.436:1,0.16,-0.17
00:02:17.440:1,0.18,-0.175
00:02:17.444:1,0.165,-0.175
00:02:17.448:1,0.145,-0.195
00:02:17.452:1,0.14,-0.205
00:02:17.456:1,0.14,-0.215
00:02:17.460:1,0.14,-0.21
00:02:17.464:1,0.125,-0.2
00:02:17.468:1,0.1,-0.21
00:02:17.472:1,0.11,-0.205
00:02:17.476:1,0.135,-0.195
00:02:17.480:1,0.12,-0.195
00:02:17.484:1,0.11,-0.2
00:02:17.488:1,0.11,-0.2
00:02:17.492:1,0.125,-0.185
00:02:17.496:1,0.125,-0.2
00:02:17.500:1,0.12,-0.195
00:02:17.504:1,0.12,-0.195
00:02:17.508:1,0.135,-0.185
00:02:17.512:1,0.14,-0.175
00:02:17.516:1,0.12,-0.205
00:02:17.520:1,0.14,-0.21
00:02:17.524:1,0.12,-0.205
00:02:17.528:1,0.125,-0.18
00:02:17.532:1,0.135,-0.18
00:02:17.536:1,0.13,-0.165
00:02:17.540:1,0.145,-0.18
00:02:17.544:1,0.145,-0.165
00:02:17.548:1,0.165,-0.215
00:02:17.552:1,0.165,-0.225
00:02:17.556:1,0.165,-0.225
00:02:17.560:1,0.16,-0.23
00:02:17.564:1,0.175,-0.245
00:02:17.568:1,0.18,-0.24
00:02:17.572:1,0.19,-0.265
00:02:17.576:1,0.175,-0.3
00:02:17.580:1,0.19,-0.32
00:02:17.584:1,0.18,-0.27
00:02:17.588:1,0.185,-0.115
00:02:17.592:1,0.19,0.145
00:02:17.596:1,0.225,0.465
00:02:17.600:1,0.265,0.78
00:02:17.604:1,0.335,0.925
00:02:17.608:1,0.405,0.87
00:02:17.612:1,0.485,0.61
00:02:17.616:1,0.495,0.035
00:02:17.620:1,0.42,-0.6
00:02:17.624:1,0.285,-0.95
00:02:17.628:1,0.11,-1.055
00:02:17.632:1,-0.09,-0.98
00:02:17.636:1,-0.225,-0.81
00:02:17.640:1,-0.245,-0.675
00:02:17.644:1,-0.23,-0.535
00:02:17.648:1,-0.19,-0.415
00:02:17.652:1,-0.1,-0.34
00:02:17.656:1,-0.005,-0.3
00:02:17.660:1,0.06,-0.305
00:02:17.664:1,0.09,-0.31
00:02:17.668:1,0.115,-0.33
00:02:17.672:1,0.115,-0.32
00:02:17.676:1,0.12,-0.325
00:02:17.680:1,0.1,-0.32
00:02:17.684:1,0.115,-0.32
00:02:17.688:1,0.115,-0.33
00:02:17.692:1,0.1,-0.315
00:02:17.696:1,0.095,-0.295
00:02:17.700:1,0.115,-0.29
00:02:17.704:1,0.1,-0.28
00:02:17.708:1,0.115,-0.28
00:02:17.712:1,0.12,-0.26
00:02:17.716:1,0.145,-0.24
00:02:17.720:1,0.15,-0.245
00:02:17.724:1,0.15,-0.265
00:02:17.728:1,0.175,-0.275
00:02:17.732:1,0.17,-0.28
00:02:17.736:1,0.175,-0.26
00:02:17.740:1,0.165,-0.27
00:02:17.744:1,0.175,-0.28
00:02:17.748:1,0.195,-0.26
00:02:17.752:1,0.19,-0.225
00:02:17.756:1,0.2,-0.195
00:02:17.760:1,0.195,-0.155
00:02:17.764:1,0.195,-0.145
00:02:17.768:1,0.2,-0.155
00:02:17.772:1,0.205,-0.175
00:02:17.776:1,0.165,-0.17
00:02:17.780:1,0.165,-0.175
00:02:17.784:1,0.14,-0.19
00:02:17.788:1,0.115,-0.185
00:02:17.792:1,0.115,-0.185
00:02:17.796:1,0.105,-0.2
00:02:17.800:1,0.095,-0.2
00:02:17.804:1,0.08,-0.235
00:02:17.808:1,0.08,-0.23
00:02:17.812:1,0.085,-0.235
00:02:17.816:1,0.07,-0.225
00:02:17.820:1,0.08,-0.25
00:02:17.824:1,0.085,-0.22
00:02:17.828:1,0.095,-0.225
00:02:17.832:1,0.105,-0.22
00:02:17.836:1,0.105,-0.205
00:02:17.840:1,0.1,-0.2
00:02:17.844:1,0.105,-0.175
00:02:17.848:1,0.125,-0.18
00:02:17.852:1,0.115,-0.16
00:02:17.856:1,0.1,-0.14
00:02:17.860:1,0.13,-0.135
00:02:17.864:1,0.15,-0.12
00:02:17.868:1,0.14,-0.105
00:02:17.872:1,0.145,-0.11
00:02:17.876:1,0.175,-0.11
00:02:17.880:1,0.16,-0.08
00:02:17.884:1,0.175,-0.105
00:02:17.888:1,0.195,-0.12
00:02:17.892:1,0.2,-0.16
00:02:17.896:1,0.195,-0.18
00:02:17.900:1,0.2,-0.2
00:02:17.904:1,0.205,-0.195
00:02:17.908:1,0.19,-0.17
00:02:17.912:1,0.195,-0.18
00:02:17.916:1,0.195,-0.19
00:02:17.920:1,0.21,-0.16
00:02:17.924:1,0.215,-0.14
00:02:17.928:1,0.21,-0.11
00:02:17.932:1,0.225,-0.095
00:02:17.936:1,0.22,-0.075
00:02:17.940:1,0.225,-0.08
00:02:17.944:1,0.24,-0.065
00:02:17.948:1,0.225,-0.075
00:02:17.952:1,0.205,-0.11
00:02:17.956:1,0.19,-0.11
00:02:17.960:1,0.17,-0.14
00:02:17.964:1,0.145,-0.135
00:02:17.968:1,0.14,-0.155
00:02:17.972:1,0.13,-0.15
00:02:17.976:1,0.125,-0.18
00:02:17.980:1,0.135,-0.195
00:02:17.984:1,0.125,-0.175
00:02:17.988:1,0.115,-0.175
00:02:17.992:1,0.11,-0.19
00:02:17.996:1,0.1,-0.2
00:02:18.000:1,0.11,-0.205
00:02:18.004:1,0.095,-0.2
00:02:18.008:1,0.11,-0.2
00:02:18.012:1,0.105,-0.21
00:02:18.016:1,0.095,-0.24
00:02:18.020:1,0.11,-0.32
00:02:18.024:1,0.105,-0.33
00:02:18.028:1,0.11,-0.21
00:02:18.032:1,0.105,0.045
00:02:18.036:1,0.11,0.36
00:02:18.040:1,0.185,0.67
00:02:18.044:1,0.27,0.87
00:02:18.048:1,0.375,0.825
00:02:18.052:1,0.46,0.575
00:02:18.056:1,0.48,0.09
00:02:18.060:1,0.405,-0.54
00:02:18.064:1,0.25,-0.93
00:02:18.068:1,0.045,-1.04
00:02:18.072:1,-0.17,-0.98
00:02:18.076:1,-0.265,-0.835
00:02:18.080:1,-0.285,-0.695
00:02:18.084:1,-0.255,-0.58
00:02:18.088:1,-0.19,-0.48
00:02:18.092:1,-0.06,-0.39
00:02:18.096:1,0.005,-0.32
00:02:18.100:1,0.075,-0.295
00:02:18.104:1,0.13,-0.25
00:02:18.108:1,0.145,-0.22
00:02:18.112:1,0.13,-0.18
00:02:18.116:1,0.145,-0.2
00:02:18.120:1,0.16,-0.22
00:02:18.124:1,0.12,-0.205
00:02:18.128:1,0.12,-0.245
00:02:18.132:1,0.12,-0.24
00:02:18.136:1,0.11,-0.265
00:02:18.140:1,0.095,-0.275
00:02:18.144:1,0.09,-0.28
00:02:18.148:1,0.08,-0.31
00:02:18.152:1,0.055,-0.305
00:02:18.156:1,0.07,-0.305
00:02:18.160:1,0.065,-0.34
00:02:18.164:1,0.065,-0.335
00:02:18.168:1,0.055,-0.335
00:02:18.172:1,0.05,-0.34
00:02:18.176:1,0.065,-0.315
00:02:18.180:1,0.04,-0.31
00:02:18.184:1,0.06,-0.32
00:02:18.188:1,0.065,-0.345
00:02:18.192:1,0.06,-0.315
00:02:18.196:1,0.055,-0.3
00:02:18.200:1,0.055,-0.305
00:02:18.204:1,0.085,-0.3
00:02:18.208:1,0.07,-0.295
00:02:18.212:1,0.075,-0.28
00:02:18.216:1,0.115,-0.25
00:02:18.220:1,0.08,-0.23
00:02:18.224:1,0.095,-0.225
00:02:18.228:1,0.095,-0.205
00:02:18.232:1,0.115,-0.17
00:02:18.236:1,0.125,-0.145
00:02:18.240:1,0.15,-0.135
00:02:18.244:1,0.15,-0.145
00:02:18.248:1,0.175,-0.165
00:02:18.252:1,0.17,-0.185
00:02:18.256:1,0.21,-0.195
00:02:18.260:1,0.19,-0.195
00:02:18.264:1,0.18,-0.185
00:02:18.268:1,0.19,-0.175
00:02:18.272:1,0.21,-0.155
00:02:18.276:1,0.19,-0.11
00:02:18.280:1,0.2,-0.065
00:02:18.284:1,0.22,-0.05
00:02:18.288:1,0.225,-0.055
00:02:18.292:1,0.245,-0.05
00:02:18.296:1,0.22,-0.045
00:02:18.300:1,0.22,-0.05
00:02:18.304:1,0.195,-0.055
00:02:18.308:1,0.18,-0.075
00:02:18.312:1,0.18,-0.105
00:02:18.316:1,0.16,-0.12
00:02:18.320:1,0.14,-0.12
00:02:18.324:1,0.125,-0.15
00:02:18.328:1,0.1,-0.16
00:02:18.332:1,0.11,-0.18
00:02:18.336:1,0.115,-0.175
00:02:18.340:1,0.115,-0.19
00:02:18.344:1,0.095,-0.195
00:02:18.348:1,0.125,-0.19
00:02:18.352:1,0.12,-0.2
00:02:18.356:1,0.11,-0.22
00:02:18.360:1,0.1,-0.2
00:02:18.364:1,0.12,-0.21
00:02:18.368:1,0.115,-0.205
00:02:18.372:1,0.12,-0.22
00:02:18.376:1,0.11,-0.225
00:02:18.380:1,0.125,-0.21
00:02:18.384:1,0.115,-0.21
00:02:18.388:1,0.115,-0.19
00:02:18.392:1,0.125,-0.195
00:02:18.396:1,0.12,-0.19
00:02:18.400:1,0.12,-0.16
00:02:18.404:1,0.145,-0.17
00:02:18.408:1,0.155,-0.16
00:02:18.412:1,0.145,-0.165
00:02:18.416:1,0.165,-0.195
00:02:18.420:1,0.175,-0.21
00:02:18.424:1,0.2,-0.205
00:02:18.428:1,0.19,-0.21
00:02:18.432:1,0.19,-0.23
00:02:18.436:1,0.175,-0.25
00:02:18.440:1,0.185,-0.255
00:02:18.444:1,0.19,-0.24
00:02:18.448:1,0.205,-0.185
00:02:18.452:1,0.19,-0.15
00:02:18.456:1,0.21,-0.135
00:02:18.460:1,0.2,-0.135
00:02:18.464:1,0.19,-0.14
00:02:18.468:1,0.155,-0.16
00:02:18.472:1,0.16,-0.18
00:02:18.476:1,0.15,-0.205
00:02:18.480:1,0.14,-0.205
00:02:18.484:1,0.115,-0.2
00:02:18.488:1,0.11,-0.195
00:02:18.492:1,0.125,-0.2
00:02:18.496:1,0.12,-0.22
00:02:18.500:1,0.11,-0.24
00:02:18.504:1,0.115,-0.27
00:02:18.508:1,0.105,-0.26
00:02:18.512:1,0.105,-0.265
00:02:18.516:1,0.085,-0.265
00:02:18.520:1,0.09,-0.27
00:02:18.524:1,0.075,-0.265
00:02:18.528:1,0.105,-0.27
00:02:18.532:1,0.09,-0.27
00:02:18.536:1,0.11,-0.265
00:02:18.540:1,0.095,-0.28
00:02:18.544:1,0.105,-0.28
00:02:18.548:1,0.1,-0.27
00:02:18.552:1,0.125,-0.275
00:02:18.556:1,0.11,-0.26
00:02:18.560:1,0.12,-0.24
00:02:18.564:1,0.12,-0.24
00:02:18.568:1,0.13,-0.225
00:02:18.572:1,0.125,-0.205
00:02:18.576:1,0.145,-0.215
00:02:18.580:1,0.14,-0.245
00:02:18.584:1,0.16,-0.25
00:02:18.588:1,0.16,-0.25
00:02:18.592:1,0.185,-0.25
00:02:18.596:1,0.18,-0.26
00:02:18.600:1,0.175,-0.25
00:02:18.604:1,0.17,-0.275
00:02:18.608:1,0.2,-0.285
00:02:18.612:1,0.2,-0.265
00:02:18.616:1,0.22,-0.26
00:02:18.620:1,0.205,-0.215
00:02:18.624:1,0.21,-0.165
00:02:18.628:1,0.235,-0.15
00:02:18.632:1,0.205,-0.125
00:02:18.636:1,0.215,-0.125
00:02:18.640:1,0.215,-0.145
00:02:18.644:1,0.2,-0.135
00:02:18.648:1,0.195,-0.075
00:02:18.652:1,0.185,0.09
00:02:18.656:1,0.2,0.38
00:02:18.660:1,0.235,0.685
00:02:18.664:1,0.28,0.95
00:02:18.668:1,0.355,1.045
00:02:18.672:1,0.46,0.925
00:02:18.676:1,0.51,0.485
00:02:18.680:1,0.54,-0.24
00:02:18.684:1,0.46,-0.835
00:02:18.688:1,0.325,-1.14
00:02:18.692:1,0.09,-1.205
00:02:18.696:1,-0.095,-1.055
00:02:18.700:1,-0.22,-0.86
00:02:18.704:1,-0.275,-0.695
00:02:18.708:1,-0.245,-0.57
00:02:18.712:1,-0.205,-0.455
00:02:18.716:1,-0.13,-0.37
00:02:18.720:1,-0.015,-0.315
00:02:18.724:1,0.035,-0.29
00:02:18.728:1,0.11,-0.295
00:02:18.732:1,0.13,-0.29
00:02:18.736:1,0.14,-0.24
00:02:18.740:1,0.135,-0.215
00:02:18.744:1,0.15,-0.225
00:02:18.748:1,0.17,-0.25
00:02:18.752:1,0.175,-0.26
00:02:18.756:1,0.175,-0.275
00:02:18.760:1,0.17,-0.295
00:02:18.764:1,0.155,-0.29
00:02:18.768:1,0.145,-0.31
00:02:18.772:1,0.13,-0.32
00:02:18.776:1,0.16,-0.31
00:02:18.780:1,0.15,-0.28
00:02:18.784:1,0.16,-0.275
00:02:18.788:1,0.14,-0.23
00:02:18.792:1,0.16,-0.22
00:02:18.796:1,0.155,-0.21
00:02:18.800:1,0.18,-0.205
00:02:18.804:1,0.19,-0.185
00:02:18.808:1,0.17,-0.175
00:02:18.812:1,0.15,-0.215
00:02:18.816:1,0.15,-0.21
00:02:18.820:1,0.13,-0.205
00:02:18.824:1,0.12,-0.19
00:02:18.828:1,0.095,-0.21
00:02:18.832:1,0.085,-0.235
00:02:18.836:1,0.075,-0.245
00:02:18.840:1,0.07,-0.24
00:02:18.844:1,0.07,-0.225
00:02:18.848:1,0.07,-0.21
00:02:18.852:1,0.08,-0.22
00:02:18.856:1,0.095,-0.225
00:02:18.860:1,0.085,-0.21
00:02:18.864:1,0.095,-0.195
00:02:18.868:1,0.085,-0.2
00:02:18.872:1,0.105,-0.175
00:02:18.876:1,0.1,-0.165
00:02:18.880:1,0.105,-0.155
00:02:18.884:1,0.115,-0.14
00:02:18.888:1,0.12,-0.105
00:02:18.892:1,0.135,-0.115
00:02:18.896:1,0.14,-0.1
00:02:18.900:1,0.16,-0.075
00:02:18.904:1,0.155,-0.015
00:02:18.908:1,0.17,-0.005
00:02:18.912:1,0.195,0.025
00:02:18.916:1,0.195,0.055
00:02:18.920:1,0.205,0.045
00:02:18.924:1,0.24,0.04
00:02:18.928:1,0.27,0.02
00:02:18.932:1,0.26,0.015
00:02:18.936:1,0.24,0.0
00:02:18.940:1,0.235,-0.025
00:02:18.944:1,0.24,-0.01
00:02:18.948:1,0.24,-0.01
00:02:18.952:1,0.245,-0.015
00:02:18.956:1,0.25,0.0
00:02:18.960:1,0.24,0.035
00:02:18.964:1,0.255,0.02
00:02:18.968:1,0.245,0.055
00:02:18.972:1,0.255,0.045
00:02:18.976:1,0.255,0.005
00:02:18.980:1,0.25,-0.025
00:02:18.984:1,0.22,-0.05
00:02:18.988:1,0.205,-0.055
00:02:18.992:1,0.195,-0.06
00:02:18.996:1,0.175,-0.08
00:02:19.000:1,0.165,-0.095
00:02:19.004:1,0.14,-0.11
00:02:19.008:1,0.13,-0.12
00:02:19.012:1,0.105,-0.13
00:02:19.016:1,0.11,-0.15
00:02:19.020:1,0.115,-0.16
00:02:19.024:1,0.105,-0.16
00:02:19.028:1,0.095,-0.18
00:02:19.032:1,0.115,-0.165
00:02:19.036:1,0.1,-0.165
00:02:19.040:1,0.1,-0.17
00:02:19.044:1,0.1,-0.19
00:02:19.048:1,0.1,-0.195
00:02:19.052:1,0.07,-0.185
00:02:19.056:1,0.09,-0.205
00:02:19.060:1,0.095,-0.215
00:02:19.064:1,0.09,-0.22
00:02:19.068:1,0.075,-0.215
00:02:19.072:1,0.105,-0.21
00:02:19.076:1,0.095,-0.2
00:02:19.080:1,0.1,-0.18
00:02:19.084:1,0.1,-0.2
00:02:19.088:1,0.12,-0.225
00:02:19.092:1,0.115,-0.245
00:02:19.096:1,0.125,-0.255
00:02:19.100:1,0.14,-0.27
00:02:19.104:1,0.12,-0.28
00:02:19.108:1,0.125,-0.335
00:02:19.112:1,0.135,-0.325
00:02:19.116:1,0.155,-0.345
00:02:19.120:1,0.14,-0.315
00:02:19.124:1,0.115,-0.275
00:02:19.128:1,0.125,-0.23
00:02:19.132:1,0.13,-0.175
00:02:19.136:1,0.16,-0.155
00:02:19.140:1,0.155,-0.15
00:02:19.144:1,0.15,-0.145
00:02:19.148:1,0.15,-0.17
00:02:19.152:1,0.11,-0.2
00:02:19.156:1,0.115,-0.205
00:02:19.160:1,0.125,-0.195
00:02:19.164:1,0.085,-0.2
00:02:19.168:1,0.085,-0.2
00:02:19.172:1,0.06,-0.215
00:02:19.176:1,0.075,-0.225
00:02:19.180:1,0.085,-0.21
00:02:19.184:1,0.075,-0.225
00:02:19.188:1,0.075,-0.24
00:02:19.192:1,0.09,-0.245
00:02:19.196:1,0.07,-0.24
00:02:19.200:1,0.055,-0.235
00:02:19.204:1,0.06,-0.235
00:02:19.208:1,0.065,-0.255
00:02:19.212:1,0.065,-0.25
00:02:19.216:1,0.075,-0.245
00:02:19.220:1,0.07,-0.225
00:02:19.224:1,0.085,-0.12
00:02:19.228:1,0.1,0.075
00:02:19.232:1,0.12,0.35
00:02:19.236:1,0.145,0.63
00:02:19.240:1,0.21,0.825
00:02:19.244:1,0.275,0.82
00:02:19.248:1,0.36,0.575
00:02:19.252:1,0.435,0.0
00:02:19.256:1,0.465,-0.67
00:02:19.260:1,0.425,-1.145
00:02:19.264:1,0.34,-1.3
00:02:19.268:1,0.155,-1.22
00:02:19.272:1,-0.03,-1.045
00:02:19.276:1,-0.16,-0.88
00:02:19.280:1,-0.215,-0.74
00:02:19.284:1,-0.22,-0.615
00:02:19.288:1,-0.175,-0.535
00:02:19.292:1,-0.11,-0.45
00:02:19.296:1,-0.03,-0.385
00:02:19.300:1,0.045,-0.35
00:02:19.304:1,0.11,-0.315
00:02:19.308:1,0.14,-0.26
00:02:19.312:1,0.125,-0.225
00:02:19.316:1,0.135,-0.23
00:02:19.320:1,0.155,-0.24
00:02:19.324:1,0.16,-0.235
00:02:19.328:1,0.135,-0.255
00:02:19.332:1,0.115,-0.25
00:02:19.336:1,0.085,-0.275
00:02:19.340:1,0.075,-0.295
00:02:19.344:1,0.06,-0.29
00:02:19.348:1,0.045,-0.295
00:02:19.352:1,0.045,-0.325
00:02:19.356:1,0.03,-0.35
00:02:19.360:1,0.03,-0.35
00:02:19.364:1,0.03,-0.365
00:02:19.368:1,0.03,-0.365
00:02:19.372:1,0.03,-0.355
00:02:19.376:1,0.03,-0.35
00:02:19.380:1,0.02,-0.36
00:02:19.384:1,0.035,-0.37
00:02:19.388:1,0.04,-0.355
00:02:19.392:1,0.04,-0.32
00:02:19.396:1,0.04,-0.34
00:02:19.400:1,0.05,-0.365
00:02:19.404:1,0.035,-0.355
00:02:19.408:1,0.05,-0.34
00:02:19.412:1,0.04,-0.335
00:02:19.416:1,0.045,-0.31
00:02:19.420:1,0.045,-0.29
00:02:19.424:1,0.05,-0.28
00:02:19.428:1,0.075,-0.265
00:02:19.432:1,0.085,-0.255
00:02:19.436:1,0.105,-0.255
00:02:19.440:1,0.115,-0.28
00:02:19.444:1,0.12,-0.31
00:02:19.448:1,0.13,-0.315
00:02:19.452:1,0.125,-0.315
00:02:19.456:1,0.105,-0.32
00:02:19.460:1,0.105,-0.295
00:02:19.464:1,0.105,-0.3
00:02:19.468:1,0.11,-0.275
00:02:19.472:1,0.13,-0.255
00:02:19.476:1,0.125,-0.18
00:02:19.480:1,0.135,-0.195
00:02:19.484:1,0.145,-0.17
00:02:19.488:1,0.15,-0.15
00:02:19.492:1,0.18,-0.13
00:02:19.496:1,0.18,-0.12
00:02:19.500:1,0.155,-0.12
00:02:19.504:1,0.15,-0.13
00:02:19.508:1,0.135,-0.12
00:02:19.512:1,0.125,-0.14
00:02:19.516:1,0.115,-0.12
00:02:19.520:1,0.125,-0.13
00:02:19.524:1,0.12,-0.145
00:02:19.528:1,0.105,-0.17
00:02:19.532:1,0.13,-0.165
00:02:19.536:1,0.115,-0.195
00:02:19.540:1,0.11,-0.19
00:02:19.544:1,0.11,-0.225
00:02:19.548:1,0.115,-0.245
00:02:19.552:1,0.135,-0.225
00:02:19.556:1,0.105,-0.225
00:02:19.560:1,0.115,-0.225
00:02:19.564:1,0.115,-0.22
00:02:19.568:1,0.105,-0.225
00:02:19.572:1,0.13,-0.22
00:02:19.576:1,0.14,-0.21
00:02:19.580:1,0.15,-0.195
00:02:19.584:1,0.135,-0.18
00:02:19.588:1,0.135,-0.17
00:02:19.592:1,0.165,-0.175
00:02:19.596:1,0.17,-0.15
00:02:19.600:1,0.18,-0.135
00:02:19.604:1,0.185,-0.13
00:02:19.608:1,0.175,-0.09
00:02:19.612:1,0.205,-0.12
00:02:19.616:1,0.2,-0.155
00:02:19.620:1,0.22,-0.175
00:02:19.624:1,0.215,-0.2
00:02:19.628:1,0.2,-0.22
00:02:19.632:1,0.22,-0.24
00:02:19.636:1,0.22,-0.225
00:02:19.640:1,0.205,-0.215
00:02:19.644:1,0.2,-0.21
00:02:19.648:1,0.21,-0.195
00:02:19.652:1,0.21,-0.16
00:02:19.656:1,0.205,-0.155
00:02:19.660:1,0.225,-0.11
00:02:19.664:1,0.21,-0.11
00:02:19.668:1,0.215,-0.12
00:02:19.672:1,0.195,-0.155
00:02:19.676:1,0.195,-0.16
00:02:19.680:1,0.18,-0.16
00:02:19.684:1,0.155,-0.185
00:02:19.688:1,0.155,-0.18
00:02:19.692:1,0.14,-0.19
00:02:19.696:1,0.14,-0.215
00:02:19.700:1,0.125,-0.205
00:02:19.704:1,0.12,-0.23
00:02:19.708:1,0.12,-0.225
00:02:19.712:1,0.13,-0.255
00:02:19.716:1,0.125,-0.26
00:02:19.720:1,0.11,-0.25
00:02:19.724:1,0.115,-0.235
00:02:19.728:1,0.12,-0.24
00:02:19.732:1,0.12,-0.245
00:02:19.736:1,0.12,-0.255
00:02:19.740:1,0.115,-0.245
00:02:19.744:1,0.11,-0.25
00:02:19.748:1,0.12,-0.24
00:02:19.752:1,0.115,-0.25
00:02:19.756:1,0.1,-0.24
00:02:19.760:1,0.12,-0.23
00:02:19.764:1,0.11,-0.215
00:02:19.768:1,0.125,-0.22
00:02:19.772:1,0.125,-0.205
00:02:19.776:1,0.105,-0.225
00:02:19.780:1,0.15,-0.235
00:02:19.784:1,0.18,-0.24
00:02:19.788:1,0.18,-0.225
00:02:19.792:1,0.165,-0.24
00:02:19.796:1,0.19,-0.245
00:02:19.800:1,0.18,-0.26
00:02:19.804:1,0.185,-0.265
00:02:19.808:1,0.185,-0.26
00:02:19.812:1,0.17,-0.26
00:02:19.816:1,0.175,-0.26
00:02:19.820:1,0.19,-0.265
00:02:19.824:1,0.18,-0.25
00:02:19.828:1,0.185,-0.205
00:02:19.832:1,0.185,-0.185
00:02:19.836:1,0.17,-0.155
00:02:19.840:1,0.17,-0.13
00:02:19.844:1,0.17,-0.12
00:02:19.848:1,0.18,-0.15
00:02:19.852:1,0.165,-0.135
00:02:19.856:1,0.165,-0.16
00:02:19.860:1,0.14,-0.175
00:02:19.864:1,0.15,-0.205
00:02:19.868:1,0.13,-0.19
00:02:19.872:1,0.13,-0.2
00:02:19.876:1,0.12,-0.22
00:02:19.880:1,0.125,-0.225
00:02:19.884:1,0.1,-0.23
00:02:19.888:1,0.11,-0.24
00:02:19.892:1,0.105,-0.23
00:02:19.896:1,0.12,-0.25
00:02:19.900:1,0.09,-0.25
00:02:19.904:1,0.125,-0.26
00:02:19.908:1,0.1,-0.22
00:02:19.912:1,0.11,-0.11
00:02:19.916:1,0.12,0.065
00:02:19.920:1,0.165,0.335
00:02:19.924:1,0.17,0.615
00:02:19.928:1,0.225,0.855
00:02:19.932:1,0.31,0.91
00:02:19.936:1,0.39,0.8
00:02:19.940:1,0.47,0.435
00:02:19.944:1,0.495,-0.205
00:02:19.948:1,0.455,-0.79
00:02:19.952:1,0.365,-1.09
00:02:19.956:1,0.2,-1.18
00:02:19.960:1,0.01,-1.085
00:02:19.964:1,-0.13,-0.9
00:02:19.968:1,-0.18,-0.755
00:02:19.972:1,-0.18,-0.635
00:02:19.976:1,-0.145,-0.52
00:02:19.980:1,-0.115,-0.43
00:02:19.984:1,-0.035,-0.355
00:02:19.988:1,0.05,-0.31
00:02:19.992:1,0.11,-0.26
00:02:19.996:1,0.16,-0.215
00:02:20.000:1,0.215,-0.17
00:02:20.004:1,0.185,-0.165
00:02:20.008:1,0.2,-0.185
00:02:20.012:1,0.195,-0.2
00:02:20.016:1,0.16,-0.21
00:02:20.020:1,0.145,-0.23
00:02:20.024:1,0.14,-0.245
00:02:20.028:1,0.125,-0.245
00:02:20.032:1,0.105,-0.255
00:02:20.036:1,0.115,-0.26
00:02:20.040:1,0.095,-0.275
00:02:20.044:1,0.085,-0.285
00:02:20.048:1,0.075,-0.3
00:02:20.052:1,0.065,-0.305
00:02:20.056:1,0.085,-0.32
00:02:20.060:1,0.07,-0.31
00:02:20.064:1,0.07,-0.305
00:02:20.068:1,0.075,-0.3
00:02:20.072:1,0.07,-0.31
00:02:20.076:1,0.055,-0.305
00:02:20.080:1,0.085,-0.32
00:02:20.084:1,0.045,-0.3
00:02:20.088:1,0.055,-0.295
00:02:20.092:1,0.045,-0.305
00:02:20.096:1,0.085,-0.29
00:02:20.100:1,0.065,-0.245
00:02:20.104:1,0.075,-0.25
00:02:20.108:1,0.09,-0.23
00:02:20.112:1,0.095,-0.22
00:02:20.116:1,0.11,-0.21
00:02:20.120:1,0.13,-0.225
00:02:20.124:1,0.155,-0.235
00:02:20.128:1,0.15,-0.26
00:02:20.132:1,0.14,-0.28
00:02:20.136:1,0.155,-0.27
00:02:20.140:1,0.145,-0.265
00:02:20.144:1,0.15,-0.265
00:02:20.148:1,0.155,-0.265
00:02:20.152:1,0.18,-0.265
00:02:20.156:1,0.17,-0.235
00:02:20.160:1,0.17,-0.205
00:02:20.164:1,0.18,-0.17
00:02:20.168:1,0.155,-0.145
00:02:20.172:1,0.18,-0.15
00:02:20.176:1,0.175,-0.16
00:02:20.180:1,0.17,-0.145
00:02:20.184:1,0.14,-0.125
00:02:20.188:1,0.135,-0.145
00:02:20.192:1,0.13,-0.155
00:02:20.196:1,0.1,-0.145
00:02:20.200:1,0.085,-0.14
00:02:20.204:1,0.1,-0.145
00:02:20.208:1,0.085,-0.145
00:02:20.212:1,0.085,-0.16
00:02:20.216:1,0.07,-0.18
00:02:20.220:1,0.1,-0.185
00:02:20.224:1,0.09,-0.185
00:02:20.228:1,0.085,-0.165
00:02:20.232:1,0.11,-0.175
00:02:20.236:1,0.1,-0.19
00:02:20.240:1,0.09,-0.2
00:02:20.244:1,0.1,-0.195
00:02:20.248:1,0.12,-0.195
00:02:20.252:1,0.115,-0.185
00:02:20.256:1,0.11,-0.2
00:02:20.260:1,0.115,-0.16
00:02:20.264:1,0.115,-0.125
00:02:20.268:1,0.135,-0.1
00:02:20.272:1,0.155,-0.12
00:02:20.276:1,0.16,-0.13
00:02:20.280:1,0.18,-0.145
00:02:20.284:1,0.17,-0.165
00:02:20.288:1,0.175,-0.16
00:02:20.292:1,0.19,-0.16
00:02:20.296:1,0.185,-0.18
00:02:20.300:1,0.17,-0.2
00:02:20.304:1,0.15,-0.195
00:02:20.308:1,0.165,-0.175
00:02:20.312:1,0.19,-0.16
00:02:20.316:1,0.18,-0.135
00:02:20.320:1,0.16,-0.105
00:02:20.324:1,0.185,-0.105
00:02:20.328:1,0.2,-0.065
00:02:20.332:1,0.19,-0.07
00:02:20.336:1,0.18,-0.08
00:02:20.340:1,0.16,-0.12
00:02:20.344:1,0.155,-0.13
00:02:20.348:1,0.13,-0.11
00:02:20.352:1,0.13,-0.145
00:02:20.356:1,0.12,-0.145
00:02:20.360:1,0.11,-0.15
00:02:20.364:1,0.095,-0.18
00:02:20.368:1,0.09,-0.195
00:02:20.372:1,0.095,-0.195
00:02:20.376:1,0.09,-0.2
00:02:20.380:1,0.08,-0.22
00:02:20.384:1,0.1,-0.21
00:02:20.388:1,0.09,-0.2
00:02:20.392:1,0.09,-0.19
00:02:20.396:1,0.105,-0.19
00:02:20.400:1,0.1,-0.21
00:02:20.404:1,0.095,-0.22
00:02:20.408:1,0.105,-0.215
00:02:20.412:1,0.11,-0.19
00:02:20.416:1,0.095,-0.195
00:02:20.420:1,0.11,-0.205
00:02:20.424:1,0.12,-0.21
00:02:20.428:1,0.115,-0.205
00:02:20.432:1,0.105,-0.23
00:02:20.436:1,0.14,-0.22
00:02:20.440:1,0.13,-0.215
00:02:20.444:1,0.135,-0.23
00:02:20.448:1,0.145,-0.245
00:02:20.452:1,0.145,-0.24
00:02:20.456:1,0.16,-0.235
00:02:20.460:1,0.14,-0.255
00:02:20.464:1,0.14,-0.27
00:02:20.468:1,0.145,-0.275
00:02:20.472:1,0.17,-0.255
00:02:20.476:1,0.185,-0.09
00:02:20.480:1,0.225,0.2
00:02:20.484:1,0.245,0.53
00:02:20.488:1,0.285,0.84
00:02:20.492:1,0.35,1.06
00:02:20.496:1,0.435,1.055
00:02:20.500:1,0.52,0.775
00:02:20.504:1,0.52,0.115
00:02:20.508:1,0.43,-0.565
00:02:20.512:1,0.245,-0.96
00:02:20.516:1,0.005,-1.095
00:02:20.520:1,-0.21,-1.005
00:02:20.524:1,-0.325,-0.82
00:02:20.528:1,-0.36,-0.67
00:02:20.532:1,-0.295,-0.54
00:02:20.536:1,-0.24,-0.44
00:02:20.540:1,-0.13,-0.345
00:02:20.544:1,-0.05,-0.31
00:02:20.548:1,0.01,-0.28
00:02:20.552:1,0.08,-0.305
00:02:20.556:1,0.08,-0.315
00:02:20.560:1,0.1,-0.3
00:02:20.564:1,0.105,-0.305
00:02:20.568:1,0.1,-0.305
00:02:20.572:1,0.09,-0.295
00:02:20.576:1,0.08,-0.285
00:02:20.580:1,0.09,-0.275
00:02:20.584:1,0.115,-0.26
00:02:20.588:1,0.11,-0.26
00:02:20.592:1,0.1,-0.265
00:02:20.596:1,0.12,-0.255
00:02:20.600:1,0.115,-0.235
00:02:20.604:1,0.12,-0.235
00:02:20.608:1,0.14,-0.255
00:02:20.612:1,0.16,-0.28
00:02:20.616:1,0.16,-0.305
00:02:20.620:1,0.155,-0.305
00:02:20.624:1,0.145,-0.3
00:02:20.628:1,0.155,-0.32
00:02:20.632:1,0.14,-0.32
00:02:20.636:1,0.16,-0.31
00:02:20.640:1,0.14,-0.29
00:02:20.644:1,0.155,-0.275
00:02:20.648:1,0.18,-0.235
00:02:20.652:1,0.18,-0.215
00:02:20.656:1,0.185,-0.18
00:02:20.660:1,0.18,-0.165
00:02:20.664:1,0.195,-0.15
00:02:20.668:1,0.205,-0.14
00:02:20.672:1,0.205,-0.145
00:02:20.676:1,0.2,-0.155
00:02:20.680:1,0.195,-0.15
00:02:20.684:1,0.175,-0.145
00:02:20.688:1,0.14,-0.155
00:02:20.692:1,0.135,-0.175
00:02:20.696:1,0.115,-0.195
00:02:20.700:1,0.12,-0.2
00:02:20.704:1,0.12,-0.19
00:02:20.708:1,0.105,-0.19
00:02:20.712:1,0.115,-0.2
00:02:20.716:1,0.11,-0.2
00:02:20.720:1,0.11,-0.215
00:02:20.724:1,0.13,-0.205
00:02:20.728:1,0.12,-0.17
00:02:20.732:1,0.13,-0.155
00:02:20.736:1,0.13,-0.17
00:02:20.740:1,0.14,-0.16
00:02:20.744:1,0.145,-0.135
00:02:20.748:1,0.16,-0.11
00:02:20.752:1,0.16,-0.095
00:02:20.756:1,0.17,-0.08
00:02:20.760:1,0.16,-0.065
00:02:20.764:1,0.2,-0.045
00:02:20.768:1,0.195,-0.055
00:02:20.772:1,0.235,-0.065
00:02:20.776:1,0.225,-0.11
00:02:20.780:1,0.215,-0.135
00:02:20.784:1,0.195,-0.155
00:02:20.788:1,0.2,-0.16
00:02:20.792:1,0.215,-0.17
00:02:20.796:1,0.2,-0.17
00:02:20.800:1,0.19,-0.17
00:02:20.804:1,0.195,-0.165
00:02:20.808:1,0.2,-0.135
00:02:20.812:1,0.215,-0.11
00:02:20.816:1,0.22,-0.1
00:02:20.820:1,0.235,-0.085
00:02:20.824:1,0.23,-0.07
00:02:20.828:1,0.215,-0.065
00:02:20.832:1,0.225,-0.085
00:02:20.836:1,0.21,-0.075
00:02:20.840:1,0.195,-0.105
00:02:20.844:1,0.175,-0.115
00:02:20.848:1,0.155,-0.115
00:02:20.852:1,0.16,-0.1
00:02:20.856:1,0.13,-0.115
00:02:20.860:1,0.145,-0.14
00:02:20.864:1,0.125,-0.14
00:02:20.868:1,0.125,-0.16
00:02:20.872:1,0.145,-0.17
00:02:20.876:1,0.145,-0.18
00:02:20.880:1,0.125,-0.185
00:02:20.884:1,0.15,-0.21
00:02:20.888:1,0.14,-0.21
00:02:20.892:1,0.125,-0.21
00:02:20.896:1,0.12,-0.195
00:02:20.900:1,0.125,-0.18
00:02:20.904:1,0.115,-0.205
00:02:20.908:1,0.14,-0.23
00:02:20.912:1,0.14,-0.21
00:02:20.916:1,0.13,-0.195
00:02:20.920:1,0.14,-0.175
00:02:20.924:1,0.13,-0.19
00:02:20.928:1,0.135,-0.22
00:02:20.932:1,0.13,-0.2
00:02:20.936:1,0.16,-0.21
00:02:20.940:1,0.175,-0.22
00:02:20.944:1,0.165,-0.225
00:02:20.948:1,0.175,-0.22
00:02:20.952:1,0.17,-0.24
00:02:20.956:1,0.185,-0.24
00:02:20.960:1,0.17,-0.215
00:02:20.964:1,0.155,-0.24
00:02:20.968:1,0.175,-0.245
00:02:20.972:1,0.19,-0.245
00:02:20.976:1,0.185,-0.25
00:02:20.980:1,0.225,-0.235
00:02:20.984:1,0.225,-0.19
00:02:20.988:1,0.215,-0.155
00:02:20.992:1,0.195,-0.115
00:02:20.996:1,0.2,-0.095
00:02:21.000:1,0.205,-0.095
00:02:21.004:1,0.195,-0.135
00:02:21.008:1,0.195,-0.125
00:02:21.012:1,0.175,-0.125
00:02:21.016:1,0.15,-0.135
00:02:21.020:1,0.155,-0.155
00:02:21.024:1,0.135,-0.17
00:02:21.028:1,0.15,-0.09
00:02:21.032:1,0.16,0.095
00:02:21.036:1,0.19,0.37
00:02:21.040:1,0.195,0.675
00:02:21.044:1,0.27,0.93
00:02:21.048:1,0.36,1.01
00:02:21.052:1,0.465,0.87
00:02:21.056:1,0.505,0.4
00:02:21.060:1,0.525,-0.295
00:02:21.064:1,0.395,-0.835
00:02:21.068:1,0.205,-1.08
00:02:21.072:1,-0.04,-1.115
00:02:21.076:1,-0.205,-0.925
00:02:21.080:1,-0.315,-0.74
00:02:21.084:1,-0.295,-0.58
00:02:21.088:1,-0.26,-0.445
00:02:21.092:1,-0.185,-0.345
00:02:21.096:1,-0.07,-0.28
00:02:21.100:1,0.04,-0.255
00:02:21.104:1,0.125,-0.275
00:02:21.108:1,0.15,-0.285
00:02:21.112:1,0.18,-0.31
00:02:21.116:1,0.175,-0.315
00:02:21.120:1,0.17,-0.32
00:02:21.124:1,0.165,-0.31
00:02:21.128:1,0.175,-0.31
00:02:21.132:1,0.155,-0.3
00:02:21.136:1,0.15,-0.32
00:02:21.140:1,0.145,-0.31
00:02:21.144:1,0.14,-0.305
00:02:21.148:1,0.13,-0.295
00:02:21.152:1,0.135,-0.31
00:02:21.156:1,0.15,-0.325
00:02:21.160:1,0.14,-0.32
00:02:21.164:1,0.15,-0.325
00:02:21.168:1,0.16,-0.31
00:02:21.172:1,0.175,-0.3
00:02:21.176:1,0.17,-0.275
00:02:21.180:1,0.16,-0.295
00:02:21.184:1,0.17,-0.245
00:02:21.188:1,0.19,-0.225
00:02:21.192:1,0.205,-0.195
00:02:21.196:1,0.18,-0.195
00:02:21.200:1,0.2,-0.175
00:02:21.204:1,0.19,-0.16
00:02:21.208:1,0.18,-0.165
00:02:21.212:1,0.175,-0.16
00:02:21.216:1,0.14,-0.16
00:02:21.220:1,0.165,-0.155
00:02:21.224:1,0.135,-0.17
00:02:21.228:1,0.11,-0.16
00:02:21.232:1,0.115,-0.15
00:02:21.236:1,0.12,-0.165
00:02:21.240:1,0.105,-0.165
00:02:21.244:1,0.115,-0.12
00:02:21.248:1,0.115,-0.11
00:02:21.252:1,0.17,-0.085
00:02:21.256:1,0.155,-0.065
00:02:21.260:1,0.15,-0.045
00:02:21.264:1,0.16,-0.065
00:02:21.268:1,0.175,-0.075
00:02:21.272:1,0.19,-0.08
00:02:21.276:1,0.195,-0.1
00:02:21.280:1,0.195,-0.12
00:02:21.284:1,0.175,-0.11
00:02:21.288:1,0.17,-0.1
00:02:21.292:1,0.16,-0.09
00:02:21.296:1,0.165,-0.09
00:02:21.300:1,0.155,-0.07
00:02:21.304:1,0.155,-0.07
00:02:21.308:1,0.175,-0.075
00:02:21.312:1,0.17,-0.07
00:02:21.316:1,0.15,-0.075
00:02:21.320:1,0.185,-0.1
00:02:21.324:1,0.18,-0.13
00:02:21.328:1,0.16,-0.145
00:02:21.332:1,0.16,-0.14
00:02:21.336:1,0.155,-0.155
00:02:21.340:1,0.16,-0.165
00:02:21.344:1,0.165,-0.175
00:02:21.348:1,0.17,-0.16
00:02:21.352:1,0.165,-0.13
00:02:21.356:1,0.17,-0.11
00:02:21.360:1,0.175,-0.095
00:02:21.364:1,0.2,-0.1
00:02:21.368:1,0.18,-0.105
00:02:21.372:1,0.17,-0.11
00:02:21.376:1,0.16,-0.115
00:02:21.380:1,0.14,-0.11
00:02:21.384:1,0.13,-0.125
00:02:21.388:1,0.14,-0.115
00:02:21.392:1,0.135,-0.135
00:02:21.396:1,0.11,-0.105
00:02:21.400:1,0.12,-0.105
00:02:21.404:1,0.125,-0.125
00:02:21.408:1,0.13,-0.11
00:02:21.412:1,0.125,-0.115
00:02:21.416:1,0.14,-0.115
00:02:21.420:1,0.135,-0.12
00:02:21.424:1,0.135,-0.135
00:02:21.428:1,0.13,-0.16
00:02:21.432:1,0.14,-0.185
00:02:21.436:1,0.125,-0.18
00:02:21.440:1,0.135,-0.19
00:02:21.444:1,0.135,-0.195
00:02:21.448:1,0.15,-0.21
00:02:21.452:1,0.135,-0.21
00:02:21.456:1,0.125,-0.21
00:02:21.460:1,0.135,-0.2
00:02:21.464:1,0.135,-0.215
00:02:21.468:1,0.12,-0.23
00:02:21.472:1,0.12,-0.235
00:02:21.476:1,0.125,-0.225
00:02:21.480:1,0.115,-0.235
00:02:21.484:1,0.115,-0.245
00:02:21.488:1,0.115,-0.245
00:02:21.492:1,0.12,-0.28
00:02:21.496:1,0.125,-0.29
00:02:21.500:1,0.11,-0.275
00:02:21.504:1,0.105,-0.29
00:02:21.508:1,0.11,-0.325
00:02:21.512:1,0.125,-0.345
00:02:21.516:1,0.135,-0.375
00:02:21.520:1,0.12,-0.34
00:02:21.524:1,0.135,-0.195
00:02:21.528:1,0.13,0.01
00:02:21.532:1,0.185,0.3
00:02:21.536:1,0.23,0.58
00:02:21.540:1,0.285,0.815
00:02:21.544:1,0.345,0.87
00:02:21.548:1,0.405,0.745
00:02:21.552:1,0.47,0.385
00:02:21.556:1,0.47,-0.26
00:02:21.560:1,0.435,-0.82
00:02:21.564:1,0.33,-1.1
00:02:21.568:1,0.16,-1.13
00:02:21.572:1,-0.015,-0.965
00:02:21.576:1,-0.155,-0.795
00:02:21.580:1,-0.205,-0.645
00:02:21.584:1,-0.21,-0.48
00:02:21.588:1,-0.18,-0.38
00:02:21.592:1,-0.095,-0.3
00:02:21.596:1,-0.02,-0.27
00:02:21.600:1,0.055,-0.265
00:02:21.604:1,0.105,-0.27
00:02:21.608:1,0.105,-0.265
00:02:21.612:1,0.12,-0.27
00:02:21.616:1,0.105,-0.285
00:02:21.620:1,0.11,-0.29
00:02:21.624:1,0.105,-0.295
00:02:21.628:1,0.1,-0.295
00:02:21.632:1,0.1,-0.285
00:02:21.636:1,0.08,-0.28
00:02:21.640:1,0.085,-0.275
00:02:21.644:1,0.095,-0.29
00:02:21.648:1,0.105,-0.305
00:02:21.652:1,0.095,-0.29
00:02:21.656:1,0.09,-0.285
00:02:21.660:1,0.095,-0.315
00:02:21.664:1,0.075,-0.3
00:02:21.668:1,0.075,-0.3
00:02:21.672:1,0.075,-0.295
00:02:21.676:1,0.075,-0.31
00:02:21.680:1,0.07,-0.295
00:02:21.684:1,0.065,-0.32
00:02:21.688:1,0.1,-0.295
00:02:21.692:1,0.1,-0.31
00:02:21.696:1,0.09,-0.3
00:02:21.700:1,0.08,-0.275
00:02:21.704:1,0.075,-0.24
00:02:21.708:1,0.075,-0.185
00:02:21.712:1,0.12,-0.17
00:02:21.716:1,0.15,-0.16
00:02:21.720:1,0.12,-0.14
00:02:21.724:1,0.13,-0.14
00:02:21.728:1,0.12,-0.145
00:02:21.732:1,0.11,-0.125
00:02:21.736:1,0.1,-0.125
00:02:21.740:1,0.105,-0.135
00:02:21.744:1,0.095,-0.115
00:02:21.748:1,0.095,-0.125
00:02:21.752:1,0.095,-0.105
00:02:21.756:1,0.105,-0.12
00:02:21.760:1,0.115,-0.14
00:02:21.764:1,0.115,-0.16
00:02:21.768:1,0.115,-0.175
00:02:21.772:1,0.13,-0.165
00:02:21.776:1,0.115,-0.17
00:02:21.780:1,0.105,-0.175
00:02:21.784:1,0.09,-0.175
00:02:21.788:1,0.09,-0.15
00:02:21.792:1,0.105,-0.14
00:02:21.796:1,0.1,-0.14
00:02:21.800:1,0.1,-0.15
00:02:21.804:1,0.095,-0.155
00:02:21.808:1,0.09,-0.16
00:02:21.812:1,0.11,-0.165
00:02:21.816:1,0.115,-0.16
00:02:21.820:1,0.11,-0.195
00:02:21.824:1,0.12,-0.21
00:02:21.828:1,0.12,-0.225
00:02:21.832:1,0.125,-0.215
00:02:21.836:1,0.105,-0.23
00:02:21.840:1,0.12,-0.23
00:02:21.844:1,0.12,-0.235
00:02:21.848:1,0.11,-0.22
00:02:21.852:1,0.135,-0.19
00:02:21.856:1,0.145,-0.145
00:02:21.860:1,0.145,-0.12
00:02:21.864:1,0.16,-0.1
00:02:21.868:1,0.16,-0.09
00:02:21.872:1,0.16,-0.055
00:02:21.876:1,0.17,-0.07
00:02:21.880:1,0.17,-0.08
00:02:21.884:1,0.16,-0.06
00:02:21.888:1,0.135,-0.065
00:02:21.892:1,0.145,-0.065
00:02:21.896:1,0.16,-0.06
00:02:21.900:1,0.145,-0.06
00:02:21.904:1,0.14,-0.08
00:02:21.908:1,0.15,-0.105
00:02:21.912:1,0.135,-0.115
00:02:21.916:1,0.13,-0.11
00:02:21.920:1,0.135,-0.11
00:02:21.924:1,0.14,-0.13
00:02:21.928:1,0.145,-0.135
00:02:21.932:1,0.14,-0.16
00:02:21.936:1,0.145,-0.155
00:02:21.940:1,0.14,-0.165
00:02:21.944:1,0.16,-0.16
00:02:21.948:1,0.16,-0.16
00:02:21.952:1,0.14,-0.185
00:02:21.956:1,0.145,-0.195
00:02:21.960:1,0.145,-0.19
00:02:21.964:1,0.14,-0.19
00:02:21.968:1,0.135,-0.215
00:02:21.972:1,0.125,-0.24
00:02:21.976:1,0.135,-0.255
00:02:21.980:1,0.105,-0.26
00:02:21.984:1,0.115,-0.255
00:02:21.988:1,0.135,-0.24
00:02:21.992:1,0.145,-0.205
00:02:21.996:1,0.155,-0.205
00:02:22.000:1,0.16,-0.19
00:02:22.004:1,0.135,-0.105
00:02:22.008:1,0.135,0.065
00:02:22.012:1,0.15,0.29
00:02:22.016:1,0.175,0.565
00:02:22.020:1,0.205,0.76
00:02:22.024:1,0.275,0.77
00:02:22.028:1,0.37,0.605
00:02:22.032:1,0.425,0.215
00:02:22.036:1,0.43,-0.41
00:02:22.040:1,0.385,-0.945
00:02:22.044:1,0.31,-1.185
00:02:22.048:1,0.195,-1.175
00:02:22.052:1,0.005,-1.06
00:02:22.056:1,-0.12,-0.905
00:02:22.060:1,-0.215,-0.755
00:02:22.064:1,-0.225,-0.6
00:02:22.068:1,-0.2,-0.475
00:02:22.072:1,-0.185,-0.395
00:02:22.076:1,-0.12,-0.3
00:02:22.080:1,-0.045,-0.265
00:02:22.084:1,0.025,-0.28
00:02:22.088:1,0.055,-0.265
00:02:22.092:1,0.09,-0.285
00:02:22.096:1,0.1,-0.28
00:02:22.100:1,0.095,-0.28
00:02:22.104:1,0.09,-0.295
00:02:22.108:1,0.095,-0.29
00:02:22.112:1,0.085,-0.31
00:02:22.116:1,0.065,-0.31
00:02:22.120:1,0.055,-0.34
00:02:22.124:1,0.07,-0.335
00:02:22.128:1,0.085,-0.315
00:02:22.132:1,0.08,-0.32
00:02:22.136:1,0.075,-0.325
00:02:22.140:1,0.08,-0.32
00:02:22.144:1,0.075,-0.325
00:02:22.148:1,0.065,-0.345
00:02:22.152:1,0.075,-0.36
00:02:22.156:1,0.065,-0.365
00:02:22.160:1,0.065,-0.365
00:02:22.164:1,0.05,-0.32
00:02:22.168:1,0.045,-0.255
00:02:22.172:1,0.085,-0.245
00:02:22.176:1,0.095,-0.22
00:02:22.180:1,0.1,-0.225
00:02:22.184:1,0.075,-0.215
00:02:22.188:1,0.09,-0.215
00:02:22.192:1,0.075,-0.195
00:02:22.196:1,0.08,-0.19
00:02:22.200:1,0.07,-0.195
00:02:22.204:1,0.075,-0.2
00:02:22.208:1,0.055,-0.18
00:02:22.212:1,0.055,-0.18
00:02:22.216:1,0.055,-0.17
00:02:22.220:1,0.055,-0.165
00:02:22.224:1,0.075,-0.16
00:02:22.228:1,0.07,-0.15
00:02:22.232:1,0.085,-0.125
00:02:22.236:1,0.095,-0.135
00:02:22.240:1,0.11,-0.12
00:02:22.244:1,0.125,-0.14
00:02:22.248:1,0.12,-0.145
00:02:22.252:1,0.115,-0.15
00:02:22.256:1,0.12,-0.135
00:02:22.260:1,0.135,-0.135
00:02:22.264:1,0.135,-0.155
00:02:22.268:1,0.145,-0.16
00:02:22.272:1,0.15,-0.15
00:02:22.276:1,0.135,-0.13
00:02:22.280:1,0.12,-0.11
00:02:22.284:1,0.125,-0.135
00:02:22.288:1,0.14,-0.14
00:02:22.292:1,0.125,-0.15
00:02:22.296:1,0.14,-0.16
00:02:22.300:1,0.145,-0.185
00:02:22.304:1,0.155,-0.2
00:02:22.308:1,0.165,-0.22
00:02:22.312:1,0.165,-0.225
00:02:22.316:1,0.17,-0.25
00:02:22.320:1,0.155,-0.265
00:02:22.324:1,0.145,-0.245
00:02:22.328:1,0.135,-0.23
00:02:22.332:1,0.165,-0.21
00:02:22.336:1,0.155,-0.175
00:02:22.340:1,0.165,-0.16
00:02:22.344:1,0.175,-0.145
00:02:22.348:1,0.175,-0.135
00:02:22.352:1,0.165,-0.14
00:02:22.356:1,0.165,-0.13
00:02:22.360:1,0.13,-0.14
00:02:22.364:1,0.125,-0.14
00:02:22.368:1,0.115,-0.145
00:02:22.372:1,0.125,-0.14
00:02:22.376:1,0.105,-0.1
00:02:22.380:1,0.115,-0.12
00:02:22.384:1,0.145,-0.12
00:02:22.388:1,0.14,-0.1
00:02:22.392:1,0.125,-0.1
00:02:22.396:1,0.14,-0.125
00:02:22.400:1,0.15,-0.12
00:02:22.404:1,0.165,-0.12
00:02:22.408:1,0.135,-0.15
00:02:22.412:1,0.165,-0.165
00:02:22.416:1,0.16,-0.16
00:02:22.420:1,0.16,-0.165
00:02:22.424:1,0.17,-0.185
00:02:22.428:1,0.18,-0.19
00:02:22.432:1,0.155,-0.2
00:02:22.436:1,0.15,-0.205
00:02:22.440:1,0.15,-0.205
00:02:22.444:1,0.135,-0.21
00:02:22.448:1,0.135,-0.225
00:02:22.452:1,0.135,-0.24
00:02:22.456:1,0.135,-0.24
00:02:22.460:1,0.125,-0.245
00:02:22.464:1,0.13,-0.255
00:02:22.468:1,0.13,-0.275
00:02:22.472:1,0.11,-0.285
00:02:22.476:1,0.1,-0.295
00:02:22.480:1,0.115,-0.27
00:02:22.484:1,0.12,-0.265
00:02:22.488:1,0.12,-0.275
00:02:22.492:1,0.12,-0.305
00:02:22.496:1,0.12,-0.33
00:02:22.500:1,0.135,-0.345
00:02:22.504:1,0.145,-0.3
00:02:22.508:1,0.145,-0.245
00:02:22.512:1,0.145,-0.22
00:02:22.516:1,0.135,-0.215
00:02:22.520:1,0.145,-0.17
00:02:22.524:1,0.14,-0.17
00:02:22.528:1,0.135,-0.165
00:02:22.532:1,0.135,-0.195
00:02:22.536:1,0.12,-0.175
00:02:22.540:1,0.105,-0.19
00:02:22.544:1,0.105,-0.185
00:02:22.548:1,0.13,-0.17
00:02:22.552:1,0.11,-0.155
00:02:22.556:1,0.11,-0.165
00:02:22.560:1,0.135,-0.17
00:02:22.564:1,0.135,-0.15
00:02:22.568:1,0.125,-0.16
00:02:22.572:1,0.15,-0.15
00:02:22.576:1,0.165,-0.155
00:02:22.580:1,0.175,-0.165
00:02:22.584:1,0.165,-0.19
00:02:22.588:1,0.185,-0.195
00:02:22.592:1,0.17,-0.19
00:02:22.596:1,0.18,-0.2
00:02:22.600:1,0.165,-0.18
00:02:22.604:1,0.175,-0.205
00:02:22.608:1,0.17,-0.195
00:02:22.612:1,0.175,-0.205
00:02:22.616:1,0.165,-0.21
00:02:22.620:1,0.155,-0.215
00:02:22.624:1,0.145,-0.205
00:02:22.628:1,0.145,-0.21
00:02:22.632:1,0.145,-0.2
00:02:22.636:1,0.135,-0.215
00:02:22.640:1,0.14,-0.215
00:02:22.644:1,0.155,-0.225
00:02:22.648:1,0.125,-0.165
00:02:22.652:1,0.14,-0.02
00:02:22.656:1,0.18,0.195
00:02:22.660:1,0.21,0.475
00:02:22.664:1,0.235,0.745
00:02:22.668:1,0.31,0.89
00:02:22.672:1,0.39,0.83
00:02:22.676:1,0.47,0.62
00:02:22.680:1,0.505,0.095
00:02:22.684:1,0.475,-0.54
00:02:22.688:1,0.365,-0.955
00:02:22.692:1,0.195,-1.13
00:02:22.696:1,0.0,-1.065
00:02:22.700:1,-0.155,-0.915
00:02:22.704:1,-0.245,-0.73
00:02:22.708:1,-0.255,-0.57
00:02:22.712:1,-0.2,-0.43
00:02:22.716:1,-0.175,-0.315
00:02:22.720:1,-0.08,-0.26
00:02:22.724:1,0.005,-0.235
00:02:22.728:1,0.075,-0.235
00:02:22.732:1,0.13,-0.24
00:02:22.736:1,0.135,-0.25
00:02:22.740:1,0.135,-0.27
00:02:22.744:1,0.135,-0.275
00:02:22.748:1,0.15,-0.28
00:02:22.752:1,0.12,-0.27
00:02:22.756:1,0.15,-0.265
00:02:22.760:1,0.13,-0.275
00:02:22.764:1,0.135,-0.285
00:02:22.768:1,0.135,-0.29
00:02:22.772:1,0.135,-0.3
00:02:22.776:1,0.12,-0.3
00:02:22.780:1,0.11,-0.31
00:02:22.784:1,0.11,-0.32
00:02:22.788:1,0.105,-0.33
00:02:22.792:1,0.1,-0.32
00:02:22.796:1,0.115,-0.3
00:02:22.800:1,0.11,-0.305
00:02:22.804:1,0.105,-0.32
00:02:22.808:1,0.105,-0.32
00:02:22.812:1,0.12,-0.31
00:02:22.816:1,0.11,-0.31
00:02:22.820:1,0.12,-0.3
00:02:22.824:1,0.115,-0.305
00:02:22.828:1,0.105,-0.305
00:02:22.832:1,0.105,-0.325
00:02:22.836:1,0.11,-0.32
00:02:22.840:1,0.115,-0.275
00:02:22.844:1,0.13,-0.24
00:02:22.848:1,0.145,-0.195
00:02:22.852:1,0.165,-0.135
00:02:22.856:1,0.14,-0.125
00:02:22.860:1,0.165,-0.11
00:02:22.864:1,0.155,-0.095
00:02:22.868:1,0.175,-0.11
00:02:22.872:1,0.16,-0.1
00:02:22.876:1,0.165,-0.08
00:02:22.880:1,0.165,-0.095
00:02:22.884:1,0.16,-0.105
00:02:22.888:1,0.18,-0.11
00:02:22.892:1,0.17,-0.11
00:02:22.896:1,0.16,-0.115
00:02:22.900:1,0.18,-0.105
00:02:22.904:1,0.155,-0.11
00:02:22.908:1,0.17,-0.11
00:02:22.912:1,0.17,-0.13
00:02:22.916:1,0.175,-0.13
00:02:22.920:1,0.185,-0.105
00:02:22.924:1,0.19,-0.1
00:02:22.928:1,0.185,-0.105
00:02:22.932:1,0.18,-0.105
00:02:22.936:1,0.19,-0.1
00:02:22.940:1,0.175,-0.09
00:02:22.944:1,0.18,-0.075
00:02:22.948:1,0.185,-0.075
00:02:22.952:1,0.185,-0.1
00:02:22.956:1,0.175,-0.12
00:02:22.960:1,0.175,-0.13
00:02:22.964:1,0.165,-0.14
00:02:22.968:1,0.185,-0.15
00:02:22.972:1,0.18,-0.18
00:02:22.976:1,0.165,-0.185
00:02:22.980:1,0.15,-0.21
00:02:22.984:1,0.15,-0.21
00:02:22.988:1,0.15,-0.205
00:02:22.992:1,0.155,-0.205
00:02:22.996:1,0.15,-0.23
00:02:23.000:1,0.16,-0.225
00:02:23.004:1,0.15,-0.185
00:02:23.008:1,0.14,-0.1
00:02:23.012:1,0.15,-0.085
00:02:23.016:1,0.175,-0.075
00:02:23.020:1,0.18,-0.055
00:02:23.024:1,0.2,-0.04
00:02:23.028:1,0.185,-0.015
00:02:23.032:1,0.18,-0.02
00:02:23.036:1,0.185,-0.01
00:02:23.040:1,0.175,-0.025
00:02:23.044:1,0.185,-0.05
00:02:23.048:1,0.185,-0.06
00:02:23.052:1,0.16,-0.07
00:02:23.056:1,0.17,-0.075
00:02:23.060:1,0.17,-0.095
00:02:23.064:1,0.185,-0.105
00:02:23.068:1,0.18,-0.12
00:02:23.072:1,0.17,-0.15
00:02:23.076:1,0.17,-0.145
00:02:23.080:1,0.165,-0.175
00:02:23.084:1,0.14,-0.17
00:02:23.088:1,0.17,-0.18
00:02:23.092:1,0.16,-0.18
00:02:23.096:1,0.13,-0.185
00:02:23.100:1,0.145,-0.195
00:02:23.104:1,0.145,-0.21
00:02:23.108:1,0.14,-0.22
00:02:23.112:1,0.14,-0.225
00:02:23.116:1,0.125,-0.225
00:02:23.120:1,0.14,-0.25
00:02:23.124:1,0.125,-0.26
00:02:23.128:1,0.115,-0.275
00:02:23.132:1,0.11,-0.28
00:02:23.136:1,0.115,-0.3
00:02:23.140:1,0.115,-0.305
00:02:23.144:1,0.095,-0.31
00:02:23.148:1,0.09,-0.285
00:02:23.152:1,0.1,-0.28
00:02:23.156:1,0.09,-0.24
00:02:23.160:1,0.105,-0.245
00:02:23.164:1,0.105,-0.215
00:02:23.168:1,0.13,-0.12
00:02:23.172:1,0.15,0.11
00:02:23.176:1,0.165,0.415
00:02:23.180:1,0.19,0.695
00:02:23.184:1,0.28,0.95
00:02:23.188:1,0.36,0.945
00:02:23.192:1,0.47,0.735
00:02:23.196:1,0.455,0.245
00:02:23.200:1,0.4,-0.4
00:02:23.204:1,0.23,-0.86
00:02:23.208:1,0.09,-1.05
00:02:23.212:1,-0.115,-1.0
00:02:23.216:1,-0.25,-0.84
00:02:23.220:1,-0.305,-0.67
00:02:23.224:1,-0.255,-0.545
00:02:23.228:1,-0.215,-0.435
00:02:23.232:1,-0.1,-0.345
00:02:23.236:1,-0.015,-0.31
00:02:23.240:1,0.06,-0.285
00:02:23.244:1,0.095,-0.295
00:02:23.248:1,0.115,-0.3
00:02:23.252:1,0.115,-0.32
00:02:23.256:1,0.115,-0.32
00:02:23.260:1,0.1,-0.3
00:02:23.264:1,0.115,-0.32
00:02:23.268:1,0.105,-0.33
00:02:23.272:1,0.1,-0.32
00:02:23.276:1,0.085,-0.35
00:02:23.280:1,0.095,-0.345
00:02:23.284:1,0.09,-0.365
00:02:23.288:1,0.085,-0.375
00:02:23.292:1,0.1,-0.365
00:02:23.296:1,0.09,-0.36
00:02:23.300:1,0.09,-0.37
00:02:23.304:1,0.1,-0.385
00:02:23.308:1,0.09,-0.395
00:02:23.312:1,0.085,-0.385
00:02:23.316:1,0.085,-0.36
00:02:23.320:1,0.085,-0.315
00:02:23.324:1,0.095,-0.275
00:02:23.328:1,0.11,-0.25
00:02:23.332:1,0.14,-0.245
00:02:23.336:1,0.14,-0.21
00:02:23.340:1,0.125,-0.18
00:02:23.344:1,0.13,-0.15
00:02:23.348:1,0.11,-0.165
00:02:23.352:1,0.125,-0.17
00:02:23.356:1,0.125,-0.18
00:02:23.360:1,0.13,-0.175
00:02:23.364:1,0.105,-0.175
00:02:23.368:1,0.135,-0.185
00:02:23.372:1,0.1,-0.18
00:02:23.376:1,0.115,-0.19
00:02:23.380:1,0.13,-0.19
00:02:23.384:1,0.125,-0.19
00:02:23.388:1,0.13,-0.205
00:02:23.392:1,0.145,-0.21
00:02:23.396:1,0.11,-0.205
00:02:23.400:1,0.13,-0.2
00:02:23.404:1,0.14,-0.19
00:02:23.408:1,0.12,-0.21
00:02:23.412:1,0.115,-0.19
00:02:23.416:1,0.14,-0.2
00:02:23.420:1,0.13,-0.19
00:02:23.424:1,0.135,-0.165
00:02:23.428:1,0.14,-0.17
00:02:23.432:1,0.15,-0.185
00:02:23.436:1,0.14,-0.155
00:02:23.440:1,0.15,-0.16
00:02:23.444:1,0.16,-0.165
00:02:23.448:1,0.155,-0.16
00:02:23.452:1,0.155,-0.175
00:02:23.456:1,0.14,-0.205
00:02:23.460:1,0.16,-0.195
00:02:23.464:1,0.15,-0.185
00:02:23.468:1,0.145,-0.2
00:02:23.472:1,0.145,-0.22
00:02:23.476:1,0.135,-0.23
00:02:23.480:1,0.15,-0.23
00:02:23.484:1,0.135,-0.185
00:02:23.488:1,0.155,-0.125
00:02:23.492:1,0.19,-0.09
00:02:23.496:1,0.205,-0.09
00:02:23.500:1,0.195,-0.085
00:02:23.504:1,0.195,-0.055
00:02:23.508:1,0.195,-0.07
00:02:23.512:1,0.205,-0.095
00:02:23.516:1,0.195,-0.09
00:02:23.520:1,0.175,-0.085
00:02:23.524:1,0.17,-0.11
00:02:23.528:1,0.195,-0.115
00:02:23.532:1,0.175,-0.135
00:02:23.536:1,0.155,-0.145
00:02:23.540:1,0.155,-0.175
00:02:23.544:1,0.15,-0.19
00:02:23.548:1,0.125,-0.18
00:02:23.552:1,0.135,-0.195
00:02:23.556:1,0.14,-0.185
00:02:23.560:1,0.13,-0.19
00:02:23.564:1,0.105,-0.22
00:02:23.568:1,0.13,-0.205
00:02:23.572:1,0.125,-0.2
00:02:23.576:1,0.13,-0.21
00:02:23.580:1,0.14,-0.22
00:02:23.584:1,0.12,-0.22
00:02:23.588:1,0.125,-0.215
00:02:23.592:1,0.115,-0.23
00:02:23.596:1,0.115,-0.24
00:02:23.600:1,0.12,-0.24
00:02:23.604:1,0.14,-0.25
00:02:23.608:1,0.14,-0.26
00:02:23.612:1,0.13,-0.255
00:02:23.616:1,0.105,-0.255
00:02:23.620:1,0.135,-0.26
00:02:23.624:1,0.12,-0.285
00:02:23.628:1,0.105,-0.28
00:02:23.632:1,0.1,-0.305
00:02:23.636:1,0.115,-0.325
00:02:23.640:1,0.105,-0.3
00:02:23.644:1,0.11,-0.255
00:02:23.648:1,0.13,-0.215
00:02:23.652:1,0.135,-0.155
00:02:23.656:1,0.15,-0.135
00:02:23.660:1,0.145,-0.145
00:02:23.664:1,0.145,-0.145
00:02:23.668:1,0.135,-0.11
00:02:23.672:1,0.135,-0.095
00:02:23.676:1,0.14,-0.1
00:02:23.680:1,0.15,-0.11
00:02:23.684:1,0.15,-0.14
00:02:23.688:1,0.165,-0.155
00:02:23.692:1,0.16,-0.085
00:02:23.696:1,0.19,0.1
00:02:23.700:1,0.235,0.37
00:02:23.704:1,0.255,0.64
00:02:23.708:1,0.295,0.895
00:02:23.712:1,0.38,0.985
00:02:23.716:1,0.47,0.875
00:02:23.720:1,0.52,0.46
00:02:23.724:1,0.51,-0.24
00:02:23.728:1,0.42,-0.795
00:02:23.732:1,0.24,-1.05
00:02:23.736:1,0.01,-1.03
00:02:23.740:1,-0.165,-0.89
00:02:23.744:1,-0.265,-0.715
00:02:23.748:1,-0.275,-0.57
00:02:23.752:1,-0.225,-0.45
00:02:23.756:1,-0.155,-0.34
00:02:23.760:1,-0.055,-0.295
00:02:23.764:1,0.03,-0.285
00:02:23.768:1,0.095,-0.285
00:02:23.772:1,0.125,-0.29
00:02:23.776:1,0.14,-0.27
00:02:23.780:1,0.125,-0.29
00:02:23.784:1,0.145,-0.29
00:02:23.788:1,0.125,-0.305
00:02:23.792:1,0.14,-0.3
00:02:23.796:1,0.13,-0.285
00:02:23.800:1,0.14,-0.275
00:02:23.804:1,0.145,-0.225
00:02:23.808:1,0.135,-0.2
00:02:23.812:1,0.16,-0.21
00:02:23.816:1,0.16,-0.205
00:02:23.820:1,0.17,-0.195
00:02:23.824:1,0.155,-0.205
00:02:23.828:1,0.15,-0.21
00:02:23.832:1,0.125,-0.195
00:02:23.836:1,0.115,-0.21
00:02:23.840:1,0.115,-0.215
00:02:23.844:1,0.09,-0.215
00:02:23.848:1,0.105,-0.23
00:02:23.852:1,0.1,-0.215
00:02:23.856:1,0.11,-0.21
00:02:23.860:1,0.125,-0.2
00:02:23.864:1,0.12,-0.19
00:02:23.868:1,0.135,-0.18
00:02:23.872:1,0.145,-0.18
00:02:23.876:1,0.125,-0.17
00:02:23.880:1,0.145,-0.16
00:02:23.884:1,0.135,-0.155
00:02:23.888:1,0.155,-0.125
00:02:23.892:1,0.16,-0.15
00:02:23.896:1,0.15,-0.17
00:02:23.900:1,0.165,-0.185
00:02:23.904:1,0.17,-0.205
00:02:23.908:1,0.175,-0.205
00:02:23.912:1,0.16,-0.24
00:02:23.916:1,0.17,-0.23
00:02:23.920:1,0.18,-0.235
00:02:23.924:1,0.16,-0.235
00:02:23.928:1,0.15,-0.2
00:02:23.932:1,0.155,-0.225
00:02:23.936:1,0.165,-0.23
00:02:23.940:1,0.16,-0.19
00:02:23.944:1,0.165,-0.175
00:02:23.948:1,0.175,-0.155
00:02:23.952:1,0.185,-0.1
00:02:23.956:1,0.195,-0.07
00:02:23.960:1,0.21,-0.045
00:02:23.964:1,0.225,-0.01
00:02:23.968:1,0.22,0.02
00:02:23.972:1,0.22,0.03
00:02:23.976:1,0.21,0.025
00:02:23.980:1,0.215,0.035
00:02:23.984:1,0.225,0.025
00:02:23.988:1,0.215,0.035
00:02:23.992:1,0.22,0.01
00:02:23.996:1,0.215,0.0
00:02:24.000:1,0.2,-0.02
00:02:24.004:1,0.215,-0.045
00:02:24.008:1,0.21,-0.035
00:02:24.012:1,0.205,-0.045
00:02:24.016:1,0.205,-0.075
00:02:24.020:1,0.21,-0.075
00:02:24.024:1,0.205,-0.075
00:02:24.028:1,0.195,-0.08
00:02:24.032:1,0.215,-0.08
00:02:24.036:1,0.195,-0.08
00:02:24.040:1,0.2,-0.08
00:02:24.044:1,0.215,-0.07
00:02:24.048:1,0.225,-0.075
00:02:24.052:1,0.225,-0.045
00:02:24.056:1,0.22,-0.035
00:02:24.060:1,0.225,-0.03
00:02:24.064:1,0.235,-0.035
00:02:24.068:1,0.245,-0.055
00:02:24.072:1,0.245,-0.08
00:02:24.076:1,0.24,-0.12
00:02:24.080:1,0.23,-0.165
00:02:24.084:1,0.225,-0.175
00:02:24.088:1,0.215,-0.18
00:02:24.092:1,0.205,-0.205
00:02:24.096:1,0.21,-0.185
00:02:24.100:1,0.21,-0.16
00:02:24.104:1,0.2,-0.16
00:02:24.108:1,0.19,-0.145
00:02:24.112:1,0.185,-0.16
00:02:24.116:1,0.17,-0.165
00:02:24.120:1,0.18,-0.11
00:02:24.124:1,0.16,0.05
00:02:24.128:1,0.18,0.315
00:02:24.132:1,0.24,0.63
00:02:24.136:1,0.285,0.865
00:02:24.140:1,0.365,0.91
00:02:24.144:1,0.43,0.695
00:02:24.148:1,0.505,0.255
00:02:24.152:1,0.48,-0.455
00:02:24.156:1,0.345,-0.99
00:02:24.160:1,0.16,-1.18
00:02:24.164:1,-0.025,-1.12
00:02:24.168:1,-0.225,-0.9
00:02:24.172:1,-0.32,-0.72
00:02:24.176:1,-0.29,-0.595
00:02:24.180:1,-0.24,-0.44
00:02:24.184:1,-0.195,-0.335
00:02:24.188:1,-0.1,-0.26
00:02:24.192:1,0.0,-0.255
00:02:24.196:1,0.06,-0.24
00:02:24.200:1,0.075,-0.23
00:02:24.204:1,0.1,-0.245
00:02:24.208:1,0.12,-0.235
00:02:24.212:1,0.11,-0.235
00:02:24.216:1,0.12,-0.23
00:02:24.220:1,0.115,-0.2
00:02:24.224:1,0.095,-0.215
00:02:24.228:1,0.125,-0.21
00:02:24.232:1,0.125,-0.24
00:02:24.236:1,0.13,-0.24
00:02:24.240:1,0.12,-0.27
00:02:24.244:1,0.115,-0.275
00:02:24.248:1,0.13,-0.275
00:02:24.252:1,0.125,-0.255
00:02:24.256:1,0.12,-0.275
00:02:24.260:1,0.115,-0.27
00:02:24.264:1,0.11,-0.28
00:02:24.268:1,0.095,-0.265
00:02:24.272:1,0.1,-0.285
00:02:24.276:1,0.11,-0.29
00:02:24.280:1,0.125,-0.27
00:02:24.284:1,0.11,-0.27
00:02:24.288:1,0.105,-0.275
00:02:24.292:1,0.1,-0.23
00:02:24.296:1,0.1,-0.175
00:02:24.300:1,0.125,-0.15
00:02:24.304:1,0.15,-0.145
00:02:24.308:1,0.145,-0.14
00:02:24.312:1,0.14,-0.135
00:02:24.316:1,0.13,-0.13
00:02:24.320:1,0.115,-0.12
00:02:24.324:1,0.1,-0.125
00:02:24.328:1,0.075,-0.14
00:02:24.332:1,0.08,-0.165
00:02:24.336:1,0.06,-0.175
00:02:24.340:1,0.07,-0.145
00:02:24.344:1,0.06,-0.17
00:02:24.348:1,0.035,-0.13
00:02:24.352:1,0.045,-0.135
00:02:24.356:1,0.055,-0.12
00:02:24.360:1,0.07,-0.105
00:02:24.364:1,0.08,-0.065
00:02:24.368:1,0.075,-0.065
00:02:24.372:1,0.1,-0.05
00:02:24.376:1,0.095,-0.025
00:02:24.380:1,0.1,0.0
00:02:24.384:1,0.11,0.01
00:02:24.388:1,0.13,0.005
00:02:24.392:1,0.13,-0.01
00:02:24.396:1,0.14,-0.05
00:02:24.400:1,0.155,-0.06
00:02:24.404:1,0.14,-0.075
00:02:24.408:1,0.14,-0.095
00:02:24.412:1,0.155,-0.11
00:02:24.416:1,0.135,-0.135
00:02:24.420:1,0.145,-0.14
00:02:24.424:1,0.16,-0.17
00:02:24.428:1,0.145,-0.155
00:02:24.432:1,0.13,-0.16
00:02:24.436:1,0.14,-0.165
00:02:24.440:1,0.135,-0.175
00:02:24.444:1,0.155,-0.19
00:02:24.448:1,0.17,-0.185
00:02:24.452:1,0.165,-0.195
00:02:24.456:1,0.15,-0.18
00:02:24.460:1,0.155,-0.14
00:02:24.464:1,0.165,-0.11
00:02:24.468:1,0.18,-0.1
00:02:24.472:1,0.18,-0.095
00:02:24.476:1,0.19,-0.09
00:02:24.480:1,0.19,-0.075
00:02:24.484:1,0.2,-0.065
00:02:24.488:1,0.18,-0.085
00:02:24.492:1,0.16,-0.105
00:02:24.496:1,0.145,-0.12
00:02:24.500:1,0.135,-0.125
00:02:24.504:1,0.12,-0.16
00:02:24.508:1,0.115,-0.135
00:02:24.512:1,0.11,-0.135
00:02:24.516:1,0.11,-0.13
00:02:24.520:1,0.1,-0.13
00:02:24.524:1,0.095,-0.135
00:02:24.528:1,0.125,-0.11
00:02:24.532:1,0.125,-0.105
00:02:24.536:1,0.135,-0.13
00:02:24.540:1,0.14,-0.135
00:02:24.544:1,0.155,-0.14
00:02:24.548:1,0.14,-0.14
00:02:24.552:1,0.16,-0.125
00:02:24.556:1,0.16,-0.16
00:02:24.560:1,0.175,-0.18
00:02:24.564:1,0.145,-0.175
00:02:24.568:1,0.15,-0.2
00:02:24.572:1,0.155,-0.23
00:02:24.576:1,0.135,-0.255
00:02:24.580:1,0.13,-0.26
00:02:24.584:1,0.13,-0.29
00:02:24.588:1,0.12,-0.28
00:02:24.592:1,0.12,-0.24
00:02:24.596:1,0.11,-0.22
00:02:24.600:1,0.14,-0.225
00:02:24.604:1,0.145,-0.225
00:02:24.608:1,0.155,-0.205
00:02:24.612:1,0.15,-0.19
00:02:24.616:1,0.175,-0.185
00:02:24.620:1,0.15,-0.15
00:02:24.624:1,0.145,-0.135
00:02:24.628:1,0.165,-0.135
00:02:24.632:1,0.155,-0.09
00:02:24.636:1,0.165,-0.085
00:02:24.640:1,0.155,-0.095
00:02:24.644:1,0.165,-0.065
00:02:24.648:1,0.15,0.035
00:02:24.652:1,0.155,0.285
00:02:24.656:1,0.2,0.565
00:02:24.660:1,0.23,0.83
00:02:24.664:1,0.3,0.96
00:02:24.668:1,0.37,0.9
00:02:24.672:1,0.465,0.6
00:02:24.676:1,0.495,-0.025
00:02:24.680:1,0.46,-0.69
00:02:24.684:1,0.4,-1.09
00:02:24.688:1,0.29,-1.19
00:02:24.692:1,0.09,-1.03
00:02:24.696:1,-0.045,-0.825
00:02:24.700:1,-0.17,-0.675
00:02:24.704:1,-0.195,-0.54
00:02:24.708:1,-0.175,-0.44
00:02:24.712:1,-0.12,-0.335
00:02:24.716:1,-0.06,-0.26
00:02:24.720:1,0.01,-0.24
00:02:24.724:1,0.075,-0.24
00:02:24.728:1,0.135,-0.285
00:02:24.732:1,0.12,-0.29
00:02:24.736:1,0.125,-0.26
00:02:24.740:1,0.125,-0.225
00:02:24.744:1,0.125,-0.205
00:02:24.748:1,0.15,-0.225
00:02:24.752:1,0.16,-0.21
00:02:24.756:1,0.145,-0.18
00:02:24.760:1,0.15,-0.185
00:02:24.764:1,0.14,-0.19
00:02:24.768:1,0.15,-0.22
00:02:24.772:1,0.145,-0.2
00:02:24.776:1,0.135,-0.195
00:02:24.780:1,0.12,-0.18
00:02:24.784:1,0.11,-0.16
00:02:24.788:1,0.115,-0.18
00:02:24.792:1,0.115,-0.185
00:02:24.796:1,0.115,-0.18
00:02:24.800:1,0.13,-0.175
00:02:24.804:1,0.12,-0.185
00:02:24.808:1,0.105,-0.195
00:02:24.812:1,0.11,-0.19
00:02:24.816:1,0.115,-0.185
00:02:24.820:1,0.1,-0.185
00:02:24.824:1,0.09,-0.18
00:02:24.828:1,0.09,-0.185
00:02:24.832:1,0.085,-0.195
00:02:24.836:1,0.1,-0.19
00:02:24.840:1,0.11,-0.195
00:02:24.844:1,0.085,-0.205
00:02:24.848:1,0.1,-0.225
00:02:24.852:1,0.085,-0.215
00:02:24.856:1,0.09,-0.195
00:02:24.860:1,0.085,-0.185
00:02:24.864:1,0.115,-0.185
00:02:24.868:1,0.105,-0.17
00:02:24.872:1,0.135,-0.16
00:02:24.876:1,0.14,-0.12
00:02:24.880:1,0.14,-0.065
00:02:24.884:1,0.15,-0.04
00:02:24.888:1,0.185,-0.005
00:02:24.892:1,0.185,-0.015
00:02:24.896:1,0.185,0.01
00:02:24.900:1,0.19,0.0
00:02:24.904:1,0.19,0.005
00:02:24.908:1,0.18,0.03
00:02:24.912:1,0.185,0.02
00:02:24.916:1,0.195,0.02
00:02:24.920:1,0.19,0.035
00:02:24.924:1,0.165,0.035
00:02:24.928:1,0.185,0.04
00:02:24.932:1,0.195,0.035
00:02:24.936:1,0.175,0.015
00:02:24.940:1,0.19,0.02
00:02:24.944:1,0.2,0.04
00:02:24.948:1,0.19,0.02
00:02:24.952:1,0.2,-0.005
00:02:24.956:1,0.2,-0.015
00:02:24.960:1,0.185,-0.025
00:02:24.964:1,0.2,-0.03
00:02:24.968:1,0.195,-0.04
00:02:24.972:1,0.205,-0.06
00:02:24.976:1,0.17,-0.075
00:02:24.980:1,0.17,-0.07
00:02:24.984:1,0.185,-0.09
00:02:24.988:1,0.165,-0.08
00:02:24.992:1,0.155,-0.105
00:02:24.996:1,0.16,-0.135
00:02:25.000:1,0.15,-0.12
00:02:25.004:1,0.14,-0.105
00:02:25.008:1,0.15,-0.1
00:02:25.012:1,0.155,-0.1
00:02:25.016:1,0.17,-0.095
00:02:25.020:1,0.17,-0.09
00:02:25.024:1,0.175,-0.08
00:02:25.028:1,0.185,-0.06
00:02:25.032:1,0.185,-0.035
00:02:25.036:1,0.18,-0.035
00:02:25.040:1,0.185,-0.01
00:02:25.044:1,0.195,0.0
00:02:25.048:1,0.215,0.02
00:02:25.052:1,0.205,0.015
00:02:25.056:1,0.21,0.015
00:02:25.060:1,0.21,-0.01
00:02:25.064:1,0.21,-0.03
00:02:25.068:1,0.215,-0.035
00:02:25.072:1,0.195,-0.05
00:02:25.076:1,0.195,-0.08
00:02:25.080:1,0.205,-0.09
00:02:25.084:1,0.175,-0.09
00:02:25.088:1,0.19,-0.09
00:02:25.092:1,0.18,-0.1
00:02:25.096:1,0.175,-0.11
00:02:25.100:1,0.16,-0.13
00:02:25.104:1,0.17,-0.16
00:02:25.108:1,0.18,-0.16
00:02:25.112:1,0.175,-0.095
00:02:25.116:1,0.165,0.045
00:02:25.120:1,0.19,0.31
00:02:25.124:1,0.23,0.59
00:02:25.128:1,0.27,0.785
00:02:25.132:1,0.34,0.795
00:02:25.136:1,0.43,0.63
00:02:25.140:1,0.475,0.2
00:02:25.144:1,0.47,-0.45
00:02:25.148:1,0.405,-0.895
00:02:25.152:1,0.305,-1.055
00:02:25.156:1,0.135,-1.035
00:02:25.160:1,-0.07,-0.915
00:02:25.164:1,-0.175,-0.75
00:02:25.168:1,-0.21,-0.6
00:02:25.172:1,-0.205,-0.475
00:02:25.176:1,-0.18,-0.34
00:02:25.180:1,-0.075,-0.285
00:02:25.184:1,0.02,-0.25
00:02:25.188:1,0.095,-0.255
00:02:25.192:1,0.14,-0.27
00:02:25.196:1,0.165,-0.25
00:02:25.200:1,0.175,-0.225
00:02:25.204:1,0.175,-0.19
00:02:25.208:1,0.17,-0.165
00:02:25.212:1,0.165,-0.14
00:02:25.216:1,0.185,-0.135
00:02:25.220:1,0.165,-0.12
00:02:25.224:1,0.15,-0.13
00:02:25.228:1,0.15,-0.13
00:02:25.232:1,0.14,-0.12
00:02:25.236:1,0.125,-0.15
00:02:25.240:1,0.13,-0.17
00:02:25.244:1,0.135,-0.195
00:02:25.248:1,0.12,-0.21
00:02:25.252:1,0.115,-0.25
00:02:25.256:1,0.105,-0.225
00:02:25.260:1,0.11,-0.24
00:02:25.264:1,0.08,-0.235
00:02:25.268:1,0.095,-0.26
00:02:25.272:1,0.07,-0.265
00:02:25.276:1,0.08,-0.255
00:02:25.280:1,0.07,-0.275
00:02:25.284:1,0.09,-0.27
00:02:25.288:1,0.075,-0.265
00:02:25.292:1,0.085,-0.275
00:02:25.296:1,0.08,-0.25
00:02:25.300:1,0.075,-0.255
00:02:25.304:1,0.085,-0.25
00:02:25.308:1,0.08,-0.255
00:02:25.312:1,0.075,-0.265
00:02:25.316:1,0.09,-0.235
00:02:25.320:1,0.1,-0.245
00:02:25.324:1,0.095,-0.24
00:02:25.328:1,0.1,-0.255
00:02:25.332:1,0.105,-0.25
00:02:25.336:1,0.11,-0.245
00:02:25.340:1,0.11,-0.245
00:02:25.344:1,0.095,-0.245
00:02:25.348:1,0.125,-0.24
00:02:25.352:1,0.12,-0.24
00:02:25.356:1,0.125,-0.195
00:02:25.360:1,0.13,-0.195
00:02:25.364:1,0.155,-0.175
00:02:25.368:1,0.17,-0.155
00:02:25.372:1,0.18,-0.09
00:02:25.376:1,0.205,-0.065
00:02:25.380:1,0.215,-0.01
00:02:25.384:1,0.21,0.005
00:02:25.388:1,0.225,0.035
00:02:25.392:1,0.22,0.075
00:02:25.396:1,0.2,0.09
00:02:25.400:1,0.21,0.075
00:02:25.404:1,0.225,0.015
00:02:25.408:1,0.225,-0.005
00:02:25.412:1,0.21,-0.025
00:02:25.416:1,0.175,-0.05
00:02:25.420:1,0.205,-0.05
00:02:25.424:1,0.195,-0.06
00:02:25.428:1,0.195,-0.07
00:02:25.432:1,0.185,-0.085
00:02:25.436:1,0.175,-0.105
00:02:25.440:1,0.175,-0.085
00:02:25.444:1,0.175,-0.1
00:02:25.448:1,0.16,-0.11
00:02:25.452:1,0.17,-0.115
00:02:25.456:1,0.145,-0.12
00:02:25.460:1,0.18,-0.105
00:02:25.464:1,0.165,-0.095
00:02:25.468:1,0.18,-0.09
00:02:25.472:1,0.165,-0.13
00:02:25.476:1,0.16,-0.125
00:02:25.480:1,0.15,-0.125
00:02:25.484:1,0.165,-0.14
00:02:25.488:1,0.16,-0.125
00:02:25.492:1,0.165,-0.15
00:02:25.496:1,0.155,-0.165
00:02:25.500:1,0.15,-0.17
00:02:25.504:1,0.155,-0.185
00:02:25.508:1,0.135,-0.175
00:02:25.512:1,0.14,-0.195
00:02:25.516:1,0.15,-0.21
00:02:25.520:1,0.135,-0.23
00:02:25.524:1,0.155,-0.24
00:02:25.528:1,0.165,-0.26
00:02:25.532:1,0.17,-0.225
00:02:25.536:1,0.17,-0.215
00:02:25.540:1,0.18,-0.17
00:02:25.544:1,0.18,-0.13
00:02:25.548:1,0.18,-0.055
00:02:25.552:1,0.2,-0.045
00:02:25.556:1,0.215,-0.035
00:02:25.560:1,0.185,-0.02
00:02:25.564:1,0.18,-0.04
00:02:25.568:1,0.18,-0.055
00:02:25.572:1,0.185,-0.055
00:02:25.576:1,0.17,-0.07
00:02:25.580:1,0.17,-0.1
00:02:25.584:1,0.18,-0.105
00:02:25.588:1,0.19,-0.115
00:02:25.592:1,0.2,-0.12
00:02:25.596:1,0.215,-0.115
00:02:25.600:1,0.18,-0.135
00:02:25.604:1,0.185,-0.145
00:02:25.608:1,0.175,-0.13
00:02:25.612:1,0.18,-0.13
00:02:25.616:1,0.165,-0.155
00:02:25.620:1,0.16,-0.17
00:02:25.624:1,0.155,-0.155
00:02:25.628:1,0.17,-0.145
00:02:25.632:1,0.17,-0.16
00:02:25.636:1,0.17,-0.15
00:02:25.640:1,0.155,-0.15
00:02:25.644:1,0.155,-0.15
00:02:25.648:1,0.155,-0.17
00:02:25.652:1,0.155,-0.16
00:02:25.656:1,0.155,-0.155
00:02:25.660:1,0.135,-0.185
00:02:25.664:1,0.15,-0.185
00:02:25.668:1,0.165,-0.17
00:02:25.672:1,0.155,-0.175
00:02:25.676:1,0.17,-0.17
00:02:25.680:1,0.16,-0.16
00:02:25.684:1,0.165,-0.16
00:02:25.688:1,0.17,-0.17
00:02:25.692:1,0.18,-0.18
00:02:25.696:1,0.17,-0.17
00:02:25.700:1,0.19,-0.185
00:02:25.704:1,0.21,-0.175
00:02:25.708:1,0.26,-0.125
00:02:25.712:1,0.245,-0.115
00:02:25.716:1,0.255,-0.045
00:02:25.720:1,0.26,0.09
00:02:25.724:1,0.28,0.335
00:02:25.728:1,0.305,0.635
00:02:25.732:1,0.345,0.96
00:02:25.736:1,0.4,1.15
00:02:25.740:1,0.445,1.12
00:02:25.744:1,0.545,0.835
00:02:25.748:1,0.57,0.23
00:02:25.752:1,0.495,-0.45
00:02:25.756:1,0.345,-0.84
00:02:25.760:1,0.12,-0.995
00:02:25.764:1,-0.08,-0.915
00:02:25.768:1,-0.195,-0.735
00:02:25.772:1,-0.22,-0.555
00:02:25.776:1,-0.195,-0.435
00:02:25.780:1,-0.16,-0.32
00:02:25.784:1,-0.065,-0.265
00:02:25.788:1,0.03,-0.225
00:02:25.792:1,0.1,-0.21
00:02:25.796:1,0.16,-0.23
00:02:25.800:1,0.175,-0.225
00:02:25.804:1,0.17,-0.215
00:02:25.808:1,0.15,-0.235
00:02:25.812:1,0.135,-0.25
00:02:25.816:1,0.15,-0.225
00:02:25.820:1,0.155,-0.23
00:02:25.824:1,0.14,-0.25
00:02:25.828:1,0.15,-0.265
00:02:25.832:1,0.13,-0.26
00:02:25.836:1,0.14,-0.265
00:02:25.840:1,0.13,-0.255
00:02:25.844:1,0.13,-0.255
00:02:25.848:1,0.14,-0.265
00:02:25.852:1,0.155,-0.27
00:02:25.856:1,0.15,-0.265
00:02:25.860:1,0.145,-0.27
00:02:25.864:1,0.155,-0.28
00:02:25.868:1,0.155,-0.255
00:02:25.872:1,0.175,-0.24
00:02:25.876:1,0.17,-0.17
00:02:25.880:1,0.19,-0.12
00:02:25.884:1,0.22,-0.09
00:02:25.888:1,0.21,-0.065
00:02:25.892:1,0.21,-0.07
00:02:25.896:1,0.21,-0.05
00:02:25.900:1,0.215,-0.045
00:02:25.904:1,0.2,-0.04
00:02:25.908:1,0.205,-0.065
00:02:25.912:1,0.195,-0.04
00:02:25.916:1,0.195,-0.02
00:02:25.920:1,0.18,-0.005
00:02:25.924:1,0.2,-0.015
00:02:25.928:1,0.205,-0.06
00:02:25.932:1,0.215,-0.05
00:02:25.936:1,0.21,-0.07
00:02:25.940:1,0.195,-0.075
00:02:25.944:1,0.19,-0.055
00:02:25.948:1,0.205,-0.055
00:02:25.952:1,0.19,-0.06
00:02:25.956:1,0.175,-0.05
00:02:25.960:1,0.18,-0.06
00:02:25.964:1,0.205,-0.035
00:02:25.968:1,0.2,-0.015
00:02:25.972:1,0.205,-0.015
00:02:25.976:1,0.195,-0.02
00:02:25.980:1,0.215,-0.02
00:02:25.984:1,0.21,0.0
00:02:25.988:1,0.225,0.0
00:02:25.992:1,0.225,0.01
00:02:25.996:1,0.215,0.03
00:02:26.000:1,0.23,0.015
00:02:26.004:1,0.215,0.035
00:02:26.008:1,0.22,0.035
00:02:26.012:1,0.245,0.045
00:02:26.016:1,0.23,0.035
00:02:26.020:1,0.255,0.035
00:02:26.024:1,0.23,0.035
00:02:26.028:1,0.24,0.035
00:02:26.032:1,0.26,0.03
00:02:26.036:1,0.255,0.02
00:02:26.040:1,0.25,0.01
00:02:26.044:1,0.275,0.015
00:02:26.048:1,0.265,0.04
00:02:26.052:1,0.27,0.06
00:02:26.056:1,0.27,0.04
00:02:26.060:1,0.285,0.045
00:02:26.064:1,0.265,0.05
00:02:26.068:1,0.265,0.05
00:02:26.072:1,0.23,0.03
00:02:26.076:1,0.215,0.035
00:02:26.080:1,0.185,0.03
00:02:26.084:1,0.19,0.015
00:02:26.088:1,0.21,0.01
00:02:26.092:1,0.205,-0.015
00:02:26.096:1,0.21,-0.035
00:02:26.100:1,0.21,-0.055
00:02:26.104:1,0.215,-0.065
00:02:26.108:1,0.2,-0.08
00:02:26.112:1,0.195,-0.09
00:02:26.116:1,0.19,-0.105
00:02:26.120:1,0.175,-0.115
00:02:26.124:1,0.175,-0.13
00:02:26.128:1,0.185,-0.13
00:02:26.132:1,0.175,-0.115
00:02:26.136:1,0.155,-0.135
00:02:26.140:1,0.175,-0.165
00:02:26.144:1,0.16,-0.16
00:02:26.148:1,0.145,-0.175
00:02:26.152:1,0.14,-0.165
00:02:26.156:1,0.13,-0.185
00:02:26.160:1,0.15,-0.18
00:02:26.164:1,0.14,-0.19
00:02:26.168:1,0.16,-0.195
00:02:26.172:1,0.155,-0.185
00:02:26.176:1,0.155,-0.18
00:02:26.180:1,0.145,-0.18
00:02:26.184:1,0.15,-0.185
00:02:26.188:1,0.15,-0.195
00:02:26.192:1,0.15,-0.21
00:02:26.196:1,0.16,-0.2
00:02:26.200:1,0.175,-0.2
00:02:26.204:1,0.175,-0.205
00:02:26.208:1,0.195,-0.15
00:02:26.212:1,0.185,-0.105
00:02:26.216:1,0.19,-0.075
00:02:26.220:1,0.185,-0.08
00:02:26.224:1,0.195,-0.095
00:02:26.228:1,0.18,-0.105
00:02:26.232:1,0.17,-0.1
00:02:26.236:1,0.155,-0.105
00:02:26.240:1,0.15,-0.11
00:02:26.244:1,0.14,-0.115
00:02:26.248:1,0.155,-0.035
00:02:26.252:1,0.17,0.155
00:02:26.256:1,0.16,0.45
00:02:26.260:1,0.205,0.705
00:02:26.264:1,0.305,0.95
00:02:26.268:1,0.375,1.01
00:02:26.272:1,0.5,0.86
00:02:26.276:1,0.55,0.39
00:02:26.280:1,0.51,-0.3
00:02:26.284:1,0.395,-0.805
00:02:26.288:1,0.195,-1.04
00:02:26.292:1,-0.005,-1.0
00:02:26.296:1,-0.185,-0.855
00:02:26.300:1,-0.255,-0.7
00:02:26.304:1,-0.255,-0.565
00:02:26.308:1,-0.225,-0.445
00:02:26.312:1,-0.16,-0.345
00:02:26.316:1,-0.03,-0.295
00:02:26.320:1,0.035,-0.275
00:02:26.324:1,0.07,-0.3
00:02:26.328:1,0.125,-0.3
00:02:26.332:1,0.145,-0.295
00:02:26.336:1,0.13,-0.295
00:02:26.340:1,0.12,-0.28
00:02:26.344:1,0.125,-0.28
00:02:26.348:1,0.115,-0.29
00:02:26.352:1,0.125,-0.285
00:02:26.356:1,0.125,-0.29
00:02:26.360:1,0.13,-0.295
00:02:26.364:1,0.125,-0.28
00:02:26.368:1,0.115,-0.285
00:02:26.372:1,0.135,-0.315
00:02:26.376:1,0.125,-0.3
00:02:26.380:1,0.15,-0.28
00:02:26.384:1,0.145,-0.27
00:02:26.388:1,0.16,-0.245
00:02:26.392:1,0.18,-0.225
00:02:26.396:1,0.19,-0.2
00:02:26.400:1,0.205,-0.18
00:02:26.404:1,0.195,-0.145
00:02:26.408:1,0.2,-0.115
00:02:26.412:1,0.205,-0.115
00:02:26.416:1,0.2,-0.1
00:02:26.420:1,0.18,-0.06
00:02:26.424:1,0.185,-0.065
00:02:26.428:1,0.2,-0.075
00:02:26.432:1,0.18,-0.11
00:02:26.436:1,0.185,-0.15
00:02:26.440:1,0.175,-0.185
00:02:26.444:1,0.185,-0.205
00:02:26.448:1,0.14,-0.22
00:02:26.452:1,0.12,-0.24
00:02:26.456:1,0.135,-0.25
00:02:26.460:1,0.13,-0.24
00:02:26.464:1,0.135,-0.22
00:02:26.468:1,0.14,-0.24
00:02:26.472:1,0.125,-0.23
00:02:26.476:1,0.135,-0.24
00:02:26.480:1,0.135,-0.25
00:02:26.484:1,0.135,-0.235
00:02:26.488:1,0.125,-0.215
00:02:26.492:1,0.13,-0.215
00:02:26.496:1,0.15,-0.225
00:02:26.500:1,0.135,-0.195
00:02:26.504:1,0.135,-0.19
00:02:26.508:1,0.155,-0.18
00:02:26.512:1,0.15,-0.155
00:02:26.516:1,0.145,-0.135
00:02:26.520:1,0.16,-0.14
00:02:26.524:1,0.16,-0.12
00:02:26.528:1,0.155,-0.11
00:02:26.532:1,0.15,-0.1
00:02:26.536:1,0.17,-0.095
00:02:26.540:1,0.17,-0.09
00:02:26.544:1,0.18,-0.09
00:02:26.548:1,0.185,-0.1
00:02:26.552:1,0.19,-0.09
00:02:26.556:1,0.19,-0.1
00:02:26.560:1,0.18,-0.105
00:02:26.564:1,0.19,-0.13
00:02:26.568:1,0.195,-0.11
00:02:26.572:1,0.195,-0.115
00:02:26.576:1,0.205,-0.1
00:02:26.580:1,0.21,-0.105
00:02:26.584:1,0.23,-0.08
00:02:26.588:1,0.22,-0.07
00:02:26.592:1,0.235,-0.06
00:02:26.596:1,0.24,-0.08
00:02:26.600:1,0.255,-0.105
00:02:26.604:1,0.27,-0.115
00:02:26.608:1,0.265,-0.11
00:02:26.612:1,0.29,-0.11
00:02:26.616:1,0.305,-0.08
00:02:26.620:1,0.295,-0.1
00:02:26.624:1,0.285,-0.095
00:02:26.628:1,0.275,-0.115
00:02:26.632:1,0.265,-0.095
00:02:26.636:1,0.27,-0.09
00:02:26.640:1,0.3,-0.075
00:02:26.644:1,0.285,-0.06
00:02:26.648:1,0.285,-0.05
00:02:26.652:1,0.26,-0.065
00:02:26.656:1,0.26,-0.075
00:02:26.660:1,0.245,-0.095
00:02:26.664:1,0.22,-0.115
00:02:26.668:1,0.2,-0.15
00:02:26.672:1,0.18,-0.145
00:02:26.676:1,0.165,-0.155
00:02:26.680:1,0.175,-0.16
00:02:26.684:1,0.155,-0.18
00:02:26.688:1,0.155,-0.18
00:02:26.692:1,0.17,-0.18
00:02:26.696:1,0.17,-0.17
00:02:26.700:1,0.16,-0.185
00:02:26.704:1,0.16,-0.18
00:02:26.708:1,0.155,-0.2
00:02:26.712:1,0.16,-0.185
00:02:26.716:1,0.165,-0.19
00:02:26.720:1,0.165,-0.18
00:02:26.724:1,0.165,-0.185
00:02:26.728:1,0.155,-0.185
00:02:26.732:1,0.145,-0.2
00:02:26.736:1,0.15,-0.17
00:02:26.740:1,0.16,-0.16
00:02:26.744:1,0.15,-0.145
00:02:26.748:1,0.155,-0.16
00:02:26.752:1,0.155,-0.17
00:02:26.756:1,0.145,-0.145
00:02:26.760:1,0.145,-0.14
00:02:26.764:1,0.145,-0.15
00:02:26.768:1,0.17,-0.15
00:02:26.772:1,0.155,-0.15
00:02:26.776:1,0.19,-0.145
00:02:26.780:1,0.205,-0.165
00:02:26.784:1,0.19,-0.165
00:02:26.788:1,0.2,-0.18
00:02:26.792:1,0.205,-0.175
00:02:26.796:1,0.2,-0.16
00:02:26.800:1,0.19,-0.145
00:02:26.804:1,0.205,-0.175
00:02:26.808:1,0.2,-0.185
00:02:26.812:1,0.22,-0.215
00:02:26.816:1,0.21,-0.195
00:02:26.820:1,0.2,-0.16
00:02:26.824:1,0.22,-0.115
00:02:26.828:1,0.185,-0.075
00:02:26.832:1,0.195,-0.06
00:02:26.836:1,0.205,-0.075
00:02:26.840:1,0.18,-0.08
00:02:26.844:1,0.165,-0.07
00:02:26.848:1,0.15,-0.08
00:02:26.852:1,0.155,-0.1
00:02:26.856:1,0.135,-0.11
00:02:26.860:1,0.16,-0.14
00:02:26.864:1,0.13,-0.145
00:02:26.868:1,0.12,-0.145
00:02:26.872:1,0.105,-0.15
00:02:26.876:1,0.095,-0.185
00:02:26.880:1,0.11,-0.165
00:02:26.884:1,0.095,-0.165
00:02:26.888:1,0.085,-0.16
00:02:26.892:1,0.115,-0.185
00:02:26.896:1,0.105,-0.17
00:02:26.900:1,0.105,-0.18
00:02:26.904:1,0.115,-0.16
00:02:26.908:1,0.14,-0.16
00:02:26.912:1,0.13,-0.135
00:02:26.916:1,0.125,-0.145
00:02:26.920:1,0.14,-0.14
00:02:26.924:1,0.135,-0.125
00:02:26.928:1,0.15,-0.12
00:02:26.932:1,0.15,-0.11
00:02:26.936:1,0.155,-0.115
00:02:26.940:1,0.165,-0.09
00:02:26.944:1,0.18,0.03
00:02:26.948:1,0.235,0.285
00:02:26.952:1,0.27,0.59
00:02:26.956:1,0.3,0.855
00:02:26.960:1,0.385,1.01
00:02:26.964:1,0.485,0.93
00:02:26.968:1,0.555,0.64
00:02:26.972:1,0.58,0.035
00:02:26.976:1,0.545,-0.605
00:02:26.980:1,0.445,-1.005
00:02:26.984:1,0.27,-1.12
00:02:26.988:1,0.035,-1.02
00:02:26.992:1,-0.12,-0.805
00:02:26.996:1,-0.235,-0.635
00:02:27.000:1,-0.24,-0.515
00:02:27.004:1,-0.21,-0.41
00:02:27.008:1,-0.16,-0.335
00:02:27.012:1,-0.065,-0.265
00:02:27.016:1,0.0,-0.205
00:02:27.020:1,0.06,-0.21
00:02:27.024:1,0.095,-0.24
00:02:27.028:1,0.115,-0.245
00:02:27.032:1,0.1,-0.24
00:02:27.036:1,0.1,-0.255
00:02:27.040:1,0.105,-0.26
00:02:27.044:1,0.085,-0.28
00:02:27.048:1,0.095,-0.27
00:02:27.052:1,0.09,-0.275
00:02:27.056:1,0.09,-0.27
00:02:27.060:1,0.09,-0.255
00:02:27.064:1,0.09,-0.275
00:02:27.068:1,0.09,-0.29
00:02:27.072:1,0.085,-0.275
00:02:27.076:1,0.095,-0.28
00:02:27.080:1,0.095,-0.26
00:02:27.084:1,0.105,-0.255
00:02:27.088:1,0.1,-0.24
00:02:27.092:1,0.115,-0.24
00:02:27.096:1,0.12,-0.235
00:02:27.100:1,0.1,-0.205
00:02:27.104:1,0.12,-0.195
00:02:27.108:1,0.13,-0.18
00:02:27.112:1,0.14,-0.145
00:02:27.116:1,0.155,-0.155
00:02:27.120:1,0.165,-0.17
00:02:27.124:1,0.165,-0.195
00:02:27.128:1,0.175,-0.21
00:02:27.132:1,0.165,-0.225
00:02:27.136:1,0.155,-0.22
00:02:27.140:1,0.155,-0.19
00:02:27.144:1,0.155,-0.185
00:02:27.148:1,0.18,-0.15
00:02:27.152:1,0.18,-0.115
00:02:27.156:1,0.18,-0.095
00:02:27.160:1,0.18,-0.07
00:02:27.164:1,0.21,-0.03
00:02:27.168:1,0.185,-0.035
00:02:27.172:1,0.19,-0.025
00:02:27.176:1,0.195,-0.035
00:02:27.180:1,0.175,0.0
00:02:27.184:1,0.15,-0.01
00:02:27.188:1,0.145,-0.025
00:02:27.192:1,0.12,-0.03
00:02:27.196:1,0.11,-0.045
00:02:27.200:1,0.1,-0.04
00:02:27.204:1,0.11,-0.05
00:02:27.208:1,0.085,-0.045
00:02:27.212:1,0.09,-0.045
00:02:27.216:1,0.1,-0.035
00:02:27.220:1,0.095,-0.03
00:02:27.224:1,0.095,-0.025
00:02:27.228:1,0.115,-0.035
00:02:27.232:1,0.115,-0.025
00:02:27.236:1,0.11,-0.025
00:02:27.240:1,0.115,-0.03
00:02:27.244:1,0.15,-0.015
00:02:27.248:1,0.135,-0.02
00:02:27.252:1,0.14,-0.02
00:02:27.256:1,0.16,-0.04
00:02:27.260:1,0.145,-0.05
00:02:27.264:1,0.14,-0.04
00:02:27.268:1,0.15,-0.025
00:02:27.272:1,0.15,-0.045
00:02:27.276:1,0.155,-0.04
00:02:27.280:1,0.165,-0.025
00:02:27.284:1,0.175,-0.06
00:02:27.288:1,0.175,-0.09
00:02:27.292:1,0.2,-0.105
00:02:27.296:1,0.195,-0.14
00:02:27.300:1,0.19,-0.16
00:02:27.304:1,0.17,-0.135
00:02:27.308:1,0.165,-0.14
00:02:27.312:1,0.19,-0.135
00:02:27.316:1,0.205,-0.11
00:02:27.320:1,0.19,-0.095
00:02:27.324:1,0.195,-0.07
00:02:27.328:1,0.205,-0.03
00:02:27.332:1,0.195,-0.015
00:02:27.336:1,0.22,-0.015
00:02:27.340:1,0.23,-0.02
00:02:27.344:1,0.195,-0.03
00:02:27.348:1,0.17,-0.07
00:02:27.352:1,0.155,-0.115
00:02:27.356:1,0.15,-0.11
00:02:27.360:1,0.115,-0.095
00:02:27.364:1,0.1,-0.125
00:02:27.368:1,0.11,-0.14
00:02:27.372:1,0.11,-0.14
00:02:27.376:1,0.09,-0.155
00:02:27.380:1,0.08,-0.18
00:02:27.384:1,0.08,-0.17
00:02:27.388:1,0.11,-0.175
00:02:27.392:1,0.09,-0.18
00:02:27.396:1,0.095,-0.195
00:02:27.400:1,0.09,-0.2
00:02:27.404:1,0.08,-0.19
00:02:27.408:1,0.09,-0.195
00:02:27.412:1,0.095,-0.205
00:02:27.416:1,0.08,-0.2
00:02:27.420:1,0.085,-0.22
00:02:27.424:1,0.095,-0.225
00:02:27.428:1,0.075,-0.2
00:02:27.432:1,0.075,-0.18
00:02:27.436:1,0.09,-0.185
00:02:27.440:1,0.085,-0.165
00:02:27.444:1,0.1,-0.185
00:02:27.448:1,0.105,-0.185
00:02:27.452:1,0.13,-0.195
00:02:27.456:1,0.13,-0.185
00:02:27.460:1,0.12,-0.22
00:02:27.464:1,0.15,-0.235
00:02:27.468:1,0.135,-0.23
00:02:27.472:1,0.135,-0.23
00:02:27.476:1,0.155,-0.225
00:02:27.480:1,0.17,-0.23
00:02:27.484:1,0.165,-0.245
00:02:27.488:1,0.175,-0.225
00:02:27.492:1,0.175,-0.17
00:02:27.496:1,0.165,-0.125
00:02:27.500:1,0.175,-0.105
00:02:27.504:1,0.195,-0.075
00:02:27.508:1,0.165,-0.065
00:02:27.512:1,0.175,-0.085
00:02:27.516:1,0.165,-0.105
00:02:27.520:1,0.145,-0.1
00:02:27.524:1,0.12,-0.13
00:02:27.528:1,0.12,-0.145
00:02:27.532:1,0.13,-0.14
00:02:27.536:1,0.1,-0.11
00:02:27.540:1,0.095,-0.07
00:02:27.544:1,0.11,0.02
00:02:27.548:1,0.105,0.23
00:02:27.552:1,0.16,0.485
00:02:27.556:1,0.18,0.75
00:02:27.560:1,0.215,0.875
00:02:27.564:1,0.3,0.815
00:02:27.568:1,0.39,0.485
00:02:27.572:1,0.42,-0.1
00:02:27.576:1,0.425,-0.765
00:02:27.580:1,0.36,-1.19
00:02:27.584:1,0.25,-1.315
00:02:27.588:1,0.07,-1.19
00:02:27.592:1,-0.095,-0.995
00:02:27.596:1,-0.205,-0.825
00:02:27.600:1,-0.23,-0.66
00:02:27.604:1,-0.225,-0.53
00:02:27.608:1,-0.19,-0.455
00:02:27.612:1,-0.12,-0.34
00:02:27.616:1,-0.03,-0.28
00:02:27.620:1,0.045,-0.26
00:02:27.624:1,0.095,-0.265
00:02:27.628:1,0.125,-0.285
00:02:27.632:1,0.12,-0.305
00:02:27.636:1,0.13,-0.32
00:02:27.640:1,0.135,-0.305
00:02:27.644:1,0.12,-0.3
00:02:27.648:1,0.15,-0.31
00:02:27.652:1,0.14,-0.295
00:02:27.656:1,0.16,-0.28
00:02:27.660:1,0.15,-0.245
00:02:27.664:1,0.145,-0.225
00:02:27.668:1,0.135,-0.195
00:02:27.672:1,0.135,-0.2
00:02:27.676:1,0.175,-0.195
00:02:27.680:1,0.18,-0.195
00:02:27.684:1,0.155,-0.195
00:02:27.688:1,0.14,-0.22
00:02:27.692:1,0.12,-0.23
00:02:27.696:1,0.12,-0.225
00:02:27.700:1,0.095,-0.225
00:02:27.704:1,0.095,-0.22
00:02:27.708:1,0.09,-0.24
00:02:27.712:1,0.08,-0.24
00:02:27.716:1,0.075,-0.245
00:02:27.720:1,0.075,-0.24
00:02:27.724:1,0.06,-0.235
00:02:27.728:1,0.09,-0.245
00:02:27.732:1,0.08,-0.255
00:02:27.736:1,0.08,-0.25
00:02:27.740:1,0.075,-0.245
00:02:27.744:1,0.085,-0.25
00:02:27.748:1,0.09,-0.225
00:02:27.752:1,0.1,-0.205
00:02:27.756:1,0.105,-0.21
00:02:27.760:1,0.115,-0.195
00:02:27.764:1,0.095,-0.19
00:02:27.768:1,0.12,-0.195
00:02:27.772:1,0.125,-0.22
00:02:27.776:1,0.125,-0.22
00:02:27.780:1,0.135,-0.215
00:02:27.784:1,0.12,-0.225
00:02:27.788:1,0.155,-0.235
00:02:27.792:1,0.17,-0.23
00:02:27.796:1,0.145,-0.24
00:02:27.800:1,0.15,-0.25
00:02:27.804:1,0.155,-0.245
00:02:27.808:1,0.16,-0.21
00:02:27.812:1,0.165,-0.215
00:02:27.816:1,0.2,-0.17
00:02:27.820:1,0.18,-0.135
00:02:27.824:1,0.185,-0.1
00:02:27.828:1,0.19,-0.08
00:02:27.832:1,0.21,-0.055
00:02:27.836:1,0.2,-0.06
00:02:27.840:1,0.185,-0.065
00:02:27.844:1,0.185,-0.07
00:02:27.848:1,0.19,-0.065
00:02:27.852:1,0.17,-0.1
00:02:27.856:1,0.175,-0.12
00:02:27.860:1,0.16,-0.135
00:02:27.864:1,0.145,-0.12
00:02:27.868:1,0.135,-0.12
00:02:27.872:1,0.13,-0.13
00:02:27.876:1,0.12,-0.14
00:02:27.880:1,0.13,-0.15
00:02:27.884:1,0.125,-0.155
00:02:27.888:1,0.11,-0.125
00:02:27.892:1,0.11,-0.13
00:02:27.896:1,0.125,-0.12
00:02:27.900:1,0.145,-0.14
00:02:27.904:1,0.14,-0.12
00:02:27.908:1,0.145,-0.1
00:02:27.912:1,0.17,-0.09
00:02:27.916:1,0.14,-0.07
00:02:27.920:1,0.165,-0.095
00:02:27.924:1,0.155,-0.125
00:02:27.928:1,0.165,-0.12
00:02:27.932:1,0.155,-0.13
00:02:27.936:1,0.165,-0.145
00:02:27.940:1,0.17,-0.135
00:02:27.944:1,0.18,-0.16
00:02:27.948:1,0.175,-0.185
00:02:27.952:1,0.185,-0.18
00:02:27.956:1,0.16,-0.185
00:02:27.960:1,0.175,-0.195
00:02:27.964:1,0.165,-0.22
00:02:27.968:1,0.175,-0.24
00:02:27.972:1,0.185,-0.215
00:02:27.976:1,0.19,-0.165
00:02:27.980:1,0.185,-0.14
00:02:27.984:1,0.185,-0.12
00:02:27.988:1,0.17,-0.12
00:02:27.992:1,0.195,-0.1
00:02:27.996:1,0.185,-0.115
00:02:28.000:1,0.175,-0.11
00:02:28.004:1,0.145,-0.15
00:02:28.008:1,0.155,-0.135
00:02:28.012:1,0.13,-0.155
00:02:28.016:1,0.15,-0.16
00:02:28.020:1,0.125,-0.18
00:02:28.024:1,0.105,-0.195
00:02:28.028:1,0.105,-0.205
00:02:28.032:1,0.125,-0.205
00:02:28.036:1,0.115,-0.185
00:02:28.040:1,0.115,-0.185
00:02:28.044:1,0.115,-0.2
00:02:28.048:1,0.13,-0.21
00:02:28.052:1,0.125,-0.205
00:02:28.056:1,0.125,-0.195
00:02:28.060:1,0.115,-0.195
00:02:28.064:1,0.13,-0.175
00:02:28.068:1,0.125,-0.195
00:02:28.072:1,0.125,-0.215
00:02:28.076:1,0.12,-0.22
00:02:28.080:1,0.13,-0.215
00:02:28.084:1,0.13,-0.215
00:02:28.088:1,0.145,-0.22
00:02:28.092:1,0.15,-0.22
00:02:28.096:1,0.15,-0.22
00:02:28.100:1,0.17,-0.22
00:02:28.104:1,0.17,-0.225
00:02:28.108:1,0.16,-0.24
00:02:28.112:1,0.145,-0.26
00:02:28.116:1,0.14,-0.255
00:02:28.120:1,0.125,-0.26
00:02:28.124:1,0.125,-0.27
00:02:28.128:1,0.14,-0.27
00:02:28.132:1,0.12,-0.29
00:02:28.136:1,0.135,-0.265
00:02:28.140:1,0.12,-0.285
00:02:28.144:1,0.13,-0.27
00:02:28.148:1,0.12,-0.28
00:02:28.152:1,0.115,-0.3
00:02:28.156:1,0.105,-0.295
00:02:28.160:1,0.12,-0.295
00:02:28.164:1,0.115,-0.29
00:02:28.168:1,0.13,-0.28
00:02:28.172:1,0.125,-0.29
00:02:28.176:1,0.15,-0.27
00:02:28.180:1,0.13,-0.265
00:02:28.184:1,0.16,-0.23
00:02:28.188:1,0.15,-0.18
00:02:28.192:1,0.155,-0.15
00:02:28.196:1,0.17,-0.125
00:02:28.200:1,0.18,-0.105
00:02:28.204:1,0.175,-0.11
00:02:28.208:1,0.155,-0.115
00:02:28.212:1,0.15,-0.13
00:02:28.216:1,0.14,-0.13
00:02:28.220:1,0.12,-0.15
00:02:28.224:1,0.13,-0.13
00:02:28.228:1,0.115,-0.13
00:02:28.232:1,0.14,-0.145
00:02:28.236:1,0.13,-0.17
00:02:28.240:1,0.135,-0.15
00:02:28.244:1,0.135,-0.16
00:02:28.248:1,0.13,-0.145
00:02:28.252:1,0.145,-0.155
00:02:28.256:1,0.14,-0.155
00:02:28.260:1,0.15,-0.17
00:02:28.264:1,0.17,-0.17
00:02:28.268:1,0.135,-0.19
00:02:28.272:1,0.135,-0.155
00:02:28.276:1,0.14,-0.04
00:02:28.280:1,0.17,0.215
00:02:28.284:1,0.19,0.53
00:02:28.288:1,0.22,0.83
00:02:28.292:1,0.31,1.015
00:02:28.296:1,0.425,1.005
00:02:28.300:1,0.495,0.805
00:02:28.304:1,0.52,0.265
00:02:28.308:1,0.48,-0.42
00:02:28.312:1,0.35,-0.875
00:02:28.316:1,0.135,-1.095
00:02:28.320:1,-0.08,-1.085
00:02:28.324:1,-0.26,-0.89
00:02:28.328:1,-0.335,-0.73
00:02:28.332:1,-0.325,-0.6
00:02:28.336:1,-0.265,-0.52
00:02:28.340:1,-0.195,-0.415
00:02:28.344:1,-0.09,-0.36
00:02:28.348:1,0.005,-0.36
00:02:28.352:1,0.07,-0.38
00:02:28.356:1,0.085,-0.395
00:02:28.360:1,0.115,-0.375
00:02:28.364:1,0.115,-0.325
00:02:28.368:1,0.11,-0.275
00:02:28.372:1,0.125,-0.24
00:02:28.376:1,0.155,-0.225
00:02:28.380:1,0.155,-0.205
00:02:28.384:1,0.15,-0.195
00:02:28.388:1,0.15,-0.19
00:02:28.392:1,0.15,-0.18
00:02:28.396:1,0.14,-0.195
00:02:28.400:1,0.15,-0.195
00:02:28.404:1,0.145,-0.22
00:02:28.408:1,0.155,-0.23
00:02:28.412:1,0.155,-0.25
00:02:28.416:1,0.145,-0.275
00:02:28.420:1,0.145,-0.305
00:02:28.424:1,0.12,-0.3
00:02:28.428:1,0.11,-0.31
00:02:28.432:1,0.105,-0.305
00:02:28.436:1,0.095,-0.3
00:02:28.440:1,0.105,-0.295
00:02:28.444:1,0.11,-0.3
00:02:28.448:1,0.1,-0.295
00:02:28.452:1,0.1,-0.3
00:02:28.456:1,0.115,-0.29
00:02:28.460:1,0.105,-0.295
00:02:28.464:1,0.105,-0.29
00:02:28.468:1,0.105,-0.305
00:02:28.472:1,0.125,-0.3
00:02:28.476:1,0.11,-0.28
00:02:28.480:1,0.125,-0.28
00:02:28.484:1,0.12,-0.28
00:02:28.488:1,0.125,-0.265
00:02:28.492:1,0.125,-0.265
00:02:28.496:1,0.13,-0.26
00:02:28.500:1,0.14,-0.255
00:02:28.504:1,0.115,-0.26
00:02:28.508:1,0.125,-0.265
00:02:28.512:1,0.14,-0.27
00:02:28.516:1,0.125,-0.26
00:02:28.520:1,0.125,-0.24
00:02:28.524:1,0.14,-0.22
00:02:28.528:1,0.15,-0.225
00:02:28.532:1,0.145,-0.18
00:02:28.536:1,0.195,-0.13
00:02:28.540:1,0.215,-0.085
00:02:28.544:1,0.21,-0.045
00:02:28.548:1,0.225,-0.025
00:02:28.552:1,0.205,0.005
00:02:28.556:1,0.215,0.05
00:02:28.560:1,0.225,0.045
00:02:28.564:1,0.22,0.03
00:02:28.568:1,0.22,0.01
00:02:28.572:1,0.21,0.0
00:02:28.576:1,0.23,0.0
00:02:28.580:1,0.215,-0.005
00:02:28.584:1,0.195,-0.035
00:02:28.588:1,0.185,-0.05
00:02:28.592:1,0.175,-0.065
00:02:28.596:1,0.175,-0.075
00:02:28.600:1,0.17,-0.1
00:02:28.604:1,0.17,-0.095
00:02:28.608:1,0.155,-0.12
00:02:28.612:1,0.155,-0.135
00:02:28.616:1,0.165,-0.155
00:02:28.620:1,0.155,-0.145
00:02:28.624:1,0.155,-0.14
00:02:28.628:1,0.15,-0.16
00:02:28.632:1,0.15,-0.175
00:02:28.636:1,0.15,-0.18
00:02:28.640:1,0.14,-0.19
00:02:28.644:1,0.135,-0.175
00:02:28.648:1,0.12,-0.185
00:02:28.652:1,0.13,-0.195
00:02:28.656:1,0.14,-0.19
00:02:28.660:1,0.14,-0.19
00:02:28.664:1,0.16,-0.18
00:02:28.668:1,0.145,-0.195
00:02:28.672:1,0.135,-0.23
00:02:28.676:1,0.145,-0.24
00:02:28.680:1,0.155,-0.23
00:02:28.684:1,0.16,-0.195
00:02:28.688:1,0.17,-0.16
00:02:28.692:1,0.185,-0.15
00:02:28.696:1,0.205,-0.145
00:02:28.700:1,0.195,-0.1
00:02:28.704:1,0.18,-0.075
00:02:28.708:1,0.195,-0.05
00:02:28.712:1,0.19,-0.1
00:02:28.716:1,0.2,-0.08
00:02:28.720:1,0.16,-0.11
00:02:28.724:1,0.17,-0.11
00:02:28.728:1,0.175,-0.135
00:02:28.732:1,0.18,-0.135
00:02:28.736:1,0.17,-0.165
00:02:28.740:1,0.185,-0.175
00:02:28.744:1,0.19,-0.2
00:02:28.748:1,0.175,-0.21
00:02:28.752:1,0.17,-0.205
00:02:28.756:1,0.18,-0.225
00:02:28.760:1,0.16,-0.23
00:02:28.764:1,0.15,-0.22
00:02:28.768:1,0.165,-0.23
00:02:28.772:1,0.145,-0.245
00:02:28.776:1,0.155,-0.25
00:02:28.780:1,0.15,-0.26
00:02:28.784:1,0.145,-0.255
00:02:28.788:1,0.155,-0.255
00:02:28.792:1,0.14,-0.285
00:02:28.796:1,0.12,-0.29
00:02:28.800:1,0.125,-0.29
00:02:28.804:1,0.11,-0.3
00:02:28.808:1,0.13,-0.315
00:02:28.812:1,0.13,-0.305
00:02:28.816:1,0.1,-0.3
00:02:28.820:1,0.12,-0.295
00:02:28.824:1,0.115,-0.275
00:02:28.828:1,0.11,-0.25
00:02:28.832:1,0.12,-0.24
00:02:28.836:1,0.12,-0.22
00:02:28.840:1,0.15,-0.225
00:02:28.844:1,0.15,-0.22
00:02:28.848:1,0.145,-0.22
00:02:28.852:1,0.155,-0.2
00:02:28.856:1,0.135,-0.175
00:02:28.860:1,0.145,-0.19
00:02:28.864:1,0.145,-0.185
00:02:28.868:1,0.145,-0.085
00:02:28.872:1,0.165,0.12
00:02:28.876:1,0.205,0.4
00:02:28.880:1,0.235,0.69
00:02:28.884:1,0.285,0.975
00:02:28.888:1,0.395,1.065
00:02:28.892:1,0.49,0.985
00:02:28.896:1,0.55,0.62
00:02:28.900:1,0.525,-0.03
00:02:28.904:1,0.44,-0.625
00:02:28.908:1,0.29,-0.95
00:02:28.912:1,0.05,-1.04
00:02:28.916:1,-0.13,-0.925
00:02:28.920:1,-0.21,-0.78
00:02:28.924:1,-0.245,-0.64
00:02:28.928:1,-0.215,-0.505
00:02:28.932:1,-0.165,-0.395
00:02:28.936:1,-0.08,-0.315
00:02:28.940:1,-0.005,-0.27
00:02:28.944:1,0.095,-0.28
00:02:28.948:1,0.13,-0.305
00:02:28.952:1,0.15,-0.33
00:02:28.956:1,0.155,-0.335
00:02:28.960:1,0.17,-0.35
00:02:28.964:1,0.155,-0.36
00:02:28.968:1,0.135,-0.35
00:02:28.972:1,0.155,-0.3
00:02:28.976:1,0.13,-0.3
00:02:28.980:1,0.125,-0.295
00:02:28.984:1,0.125,-0.29
00:02:28.988:1,0.12,-0.31
00:02:28.992:1,0.11,-0.29
00:02:28.996:1,0.095,-0.29
00:02:29.000:1,0.12,-0.29
00:02:29.004:1,0.115,-0.27
00:02:29.008:1,0.1,-0.27
00:02:29.012:1,0.1,-0.265
00:02:29.016:1,0.115,-0.265
00:02:29.020:1,0.105,-0.26
00:02:29.024:1,0.11,-0.265
00:02:29.028:1,0.105,-0.275
00:02:29.032:1,0.11,-0.265
00:02:29.036:1,0.1,-0.25
00:02:29.040:1,0.1,-0.255
00:02:29.044:1,0.115,-0.23
00:02:29.048:1,0.13,-0.235
00:02:29.052:1,0.13,-0.25
00:02:29.056:1,0.145,-0.245
00:02:29.060:1,0.13,-0.225
00:02:29.064:1,0.125,-0.22
00:02:29.068:1,0.16,-0.215
00:02:29.072:1,0.17,-0.205
00:02:29.076:1,0.16,-0.18
00:02:29.080:1,0.175,-0.195
00:02:29.084:1,0.18,-0.175
00:02:29.088:1,0.17,-0.155
00:02:29.092:1,0.195,-0.155
00:02:29.096:1,0.195,-0.16
00:02:29.100:1,0.215,-0.185
00:02:29.104:1,0.21,-0.185
00:02:29.108:1,0.215,-0.185
00:02:29.112:1,0.205,-0.215
00:02:29.116:1,0.19,-0.22
00:02:29.120:1,0.2,-0.21
00:02:29.124:1,0.21,-0.18
00:02:29.128:1,0.205,-0.155
00:02:29.132:1,0.2,-0.125
00:02:29.136:1,0.2,-0.13
00:02:29.140:1,0.195,-0.1
00:02:29.144:1,0.195,-0.1
00:02:29.148:1,0.205,-0.08
00:02:29.152:1,0.23,-0.09
00:02:29.156:1,0.185,-0.085
00:02:29.160:1,0.205,-0.09
00:02:29.164:1,0.195,-0.075
00:02:29.168:1,0.205,-0.08
00:02:29.172:1,0.2,-0.11
00:02:29.176:1,0.2,-0.135
00:02:29.180:1,0.185,-0.135
00:02:29.184:1,0.195,-0.14
00:02:29.188:1,0.18,-0.16
00:02:29.192:1,0.19,-0.175
00:02:29.196:1,0.175,-0.17
00:02:29.200:1,0.18,-0.195
00:02:29.204:1,0.195,-0.2
00:02:29.208:1,0.185,-0.2
00:02:29.212:1,0.175,-0.2
00:02:29.216:1,0.195,-0.21
00:02:29.220:1,0.18,-0.215
00:02:29.224:1,0.155,-0.205
00:02:29.228:1,0.155,-0.23
00:02:29.232:1,0.175,-0.215
00:02:29.236:1,0.17,-0.215
00:02:29.240:1,0.165,-0.235
00:02:29.244:1,0.18,-0.235
00:02:29.248:1,0.19,-0.225
00:02:29.252:1,0.165,-0.225
00:02:29.256:1,0.185,-0.22
00:02:29.260:1,0.195,-0.175
00:02:29.264:1,0.2,-0.13
00:02:29.268:1,0.21,-0.125
00:02:29.272:1,0.23,-0.135
00:02:29.276:1,0.215,-0.13
00:02:29.280:1,0.215,-0.135
00:02:29.284:1,0.19,-0.13
00:02:29.288:1,0.175,-0.115
00:02:29.292:1,0.155,-0.125
00:02:29.296:1,0.19,-0.145
00:02:29.300:1,0.16,-0.175
00:02:29.304:1,0.145,-0.16
00:02:29.308:1,0.145,-0.18
00:02:29.312:1,0.13,-0.19
00:02:29.316:1,0.115,-0.2
00:02:29.320:1,0.115,-0.22
00:02:29.324:1,0.115,-0.24
00:02:29.328:1,0.105,-0.23
00:02:29.332:1,0.095,-0.225
00:02:29.336:1,0.105,-0.25
00:02:29.340:1,0.1,-0.27
00:02:29.344:1,0.115,-0.26
00:02:29.348:1,0.085,-0.275
00:02:29.352:1,0.085,-0.29
00:02:29.356:1,0.08,-0.265
00:02:29.360:1,0.09,-0.26
00:02:29.364:1,0.065,-0.26
00:02:29.368:1,0.095,-0.265
00:02:29.372:1,0.1,-0.265
00:02:29.376:1,0.1,-0.28
00:02:29.380:1,0.07,-0.285
00:02:29.384:1,0.095,-0.28
00:02:29.388:1,0.1,-0.255
00:02:29.392:1,0.09,-0.26
00:02:29.396:1,0.115,-0.28
00:02:29.400:1,0.115,-0.255
00:02:29.404:1,0.11,-0.14
00:02:29.408:1,0.13,0.075
00:02:29.412:1,0.165,0.385
00:02:29.416:1,0.215,0.685
00:02:29.420:1,0.27,0.87
00:02:29.424:1,0.395,0.85
00:02:29.428:1,0.47,0.615
00:02:29.432:1,0.53,0.05
00:02:29.436:1,0.495,-0.61
00:02:29.440:1,0.425,-1.06
00:02:29.444:1,0.255,-1.245
00:02:29.448:1,0.055,-1.21
00:02:29.452:1,-0.105,-1.04
00:02:29.456:1,-0.22,-0.85
00:02:29.460:1,-0.215,-0.695
00:02:29.464:1,-0.165,-0.575
00:02:29.468:1,-0.15,-0.49
00:02:29.472:1,-0.06,-0.41
00:02:29.476:1,0.015,-0.38
00:02:29.480:1,0.095,-0.34
00:02:29.484:1,0.11,-0.315
00:02:29.488:1,0.14,-0.29
00:02:29.492:1,0.16,-0.27
00:02:29.496:1,0.16,-0.245
00:02:29.500:1,0.175,-0.245
00:02:29.504:1,0.175,-0.25
00:02:29.508:1,0.155,-0.255
00:02:29.512:1,0.12,-0.24
00:02:29.516:1,0.105,-0.265
00:02:29.520:1,0.085,-0.265
00:02:29.524:1,0.075,-0.275
00:02:29.528:1,0.065,-0.3
00:02:29.532:1,0.045,-0.305
00:02:29.536:1,0.04,-0.3
00:02:29.540:1,0.045,-0.285
00:02:29.544:1,0.045,-0.295
00:02:29.548:1,0.045,-0.275
00:02:29.552:1,0.065,-0.28
00:02:29.556:1,0.055,-0.285
00:02:29.560:1,0.065,-0.26
00:02:29.564:1,0.065,-0.235
00:02:29.568:1,0.07,-0.22
00:02:29.572:1,0.065,-0.205
00:02:29.576:1,0.075,-0.21
00:02:29.580:1,0.105,-0.225
00:02:29.584:1,0.105,-0.22
00:02:29.588:1,0.105,-0.225
00:02:29.592:1,0.095,-0.24
00:02:29.596:1,0.11,-0.235
00:02:29.600:1,0.105,-0.245
00:02:29.604:1,0.085,-0.22
00:02:29.608:1,0.095,-0.23
00:02:29.612:1,0.1,-0.245
00:02:29.616:1,0.095,-0.245
00:02:29.620:1,0.1,-0.235
00:02:29.624:1,0.11,-0.215
00:02:29.628:1,0.11,-0.21
00:02:29.632:1,0.1,-0.22
00:02:29.636:1,0.095,-0.235
00:02:29.640:1,0.12,-0.22
00:02:29.644:1,0.095,-0.215
00:02:29.648:1,0.11,-0.22
00:02:29.652:1,0.13,-0.22
00:02:29.656:1,0.145,-0.2
00:02:29.660:1,0.13,-0.175
00:02:29.664:1,0.13,-0.18
00:02:29.668:1,0.14,-0.135
00:02:29.672:1,0.125,-0.095
00:02:29.676:1,0.155,-0.085
00:02:29.680:1,0.15,-0.06
00:02:29.684:1,0.17,-0.025
00:02:29.688:1,0.17,-0.03
00:02:29.692:1,0.17,-0.03
00:02:29.696:1,0.155,-0.065
00:02:29.700:1,0.13,-0.08
00:02:29.704:1,0.14,-0.08
00:02:29.708:1,0.145,-0.08
00:02:29.712:1,0.135,-0.11
00:02:29.716:1,0.125,-0.105
00:02:29.720:1,0.135,-0.115
00:02:29.724:1,0.14,-0.095
00:02:29.728:1,0.125,-0.095
00:02:29.732:1,0.13,-0.085
00:02:29.736:1,0.14,-0.115
00:02:29.740:1,0.16,-0.11
00:02:29.744:1,0.155,-0.13
00:02:29.748:1,0.17,-0.14
00:02:29.752:1,0.18,-0.145
00:02:29.756:1,0.175,-0.155
00:02:29.760:1,0.18,-0.18
00:02:29.764:1,0.175,-0.175
00:02:29.768:1,0.155,-0.16
00:02:29.772:1,0.155,-0.175
00:02:29.776:1,0.155,-0.165
00:02:29.780:1,0.145,-0.17
00:02:29.784:1,0.145,-0.185
00:02:29.788:1,0.15,-0.185
00:02:29.792:1,0.16,-0.185
00:02:29.796:1,0.145,-0.18
00:02:29.800:1,0.135,-0.175
00:02:29.804:1,0.155,-0.185
00:02:29.808:1,0.145,-0.205
00:02:29.812:1,0.145,-0.205
00:02:29.816:1,0.15,-0.2
00:02:29.820:1,0.155,-0.145
00:02:29.824:1,0.165,-0.02
00:02:29.828:1,0.175,0.18
00:02:29.832:1,0.235,0.41
00:02:29.836:1,0.275,0.625
00:02:29.840:1,0.315,0.685
00:02:29.844:1,0.415,0.56
00:02:29.848:1,0.485,0.22
00:02:29.852:1,0.48,-0.395
00:02:29.856:1,0.47,-0.94
00:02:29.860:1,0.365,-1.165
00:02:29.864:1,0.205,-1.095
00:02:29.868:1,0.01,-0.915
00:02:29.872:1,-0.16,-0.77
00:02:29.876:1,-0.195,-0.625
00:02:29.880:1,-0.185,-0.51
00:02:29.884:1,-0.18,-0.415
00:02:29.888:1,-0.125,-0.335
00:02:29.892:1,-0.035,-0.245
00:02:29.896:1,0.0,-0.23
00:02:29.900:1,0.055,-0.225
00:02:29.904:1,0.07,-0.225
00:02:29.908:1,0.07,-0.23
00:02:29.912:1,0.09,-0.22
00:02:29.916:1,0.11,-0.225
00:02:29.920:1,0.1,-0.225
00:02:29.924:1,0.115,-0.26
00:02:29.928:1,0.125,-0.275
00:02:29.932:1,0.12,-0.28
00:02:29.936:1,0.095,-0.28
00:02:29.940:1,0.105,-0.28
00:02:29.944:1,0.095,-0.28
00:02:29.948:1,0.095,-0.285
00:02:29.952:1,0.075,-0.3
00:02:29.956:1,0.085,-0.305
00:02:29.960:1,0.075,-0.29
00:02:29.964:1,0.07,-0.305
00:02:29.968:1,0.09,-0.3
00:02:29.972:1,0.075,-0.315
00:02:29.976:1,0.065,-0.295
00:02:29.980:1,0.065,-0.31
00:02:29.984:1,0.075,-0.3
00:02:29.988:1,0.06,-0.275
00:02:29.992:1,0.065,-0.28
00:02:29.996:1,0.07,-0.275
00:02:30.000:1,0.065,-0.25
00:02:30.004:1,0.08,-0.265
00:02:30.008:1,0.08,-0.275
00:02:30.012:1,0.095,-0.28
00:02:30.016:1,0.075,-0.24
00:02:30.020:1,0.085,-0.195
00:02:30.024:1,0.095,-0.15
00:02:30.028:1,0.115,-0.14
00:02:30.032:1,0.115,-0.13
00:02:30.036:1,0.135,-0.11
00:02:30.040:1,0.11,-0.1
00:02:30.044:1,0.115,-0.095
00:02:30.048:1,0.11,-0.095
00:02:30.052:1,0.125,-0.095
00:02:30.056:1,0.105,-0.105
00:02:30.060:1,0.095,-0.12
00:02:30.064:1,0.115,-0.085
00:02:30.068:1,0.1,-0.075
00:02:30.072:1,0.095,-0.07
00:02:30.076:1,0.095,-0.06
00:02:30.080:1,0.105,-0.02
00:02:30.084:1,0.125,-0.015
00:02:30.088:1,0.14,-0.04
00:02:30.092:1,0.155,-0.075
00:02:30.096:1,0.145,-0.09
00:02:30.100:1,0.15,-0.115
00:02:30.104:1,0.16,-0.135
00:02:30.108:1,0.135,-0.145
00:02:30.112:1,0.145,-0.16
00:02:30.116:1,0.155,-0.185
00:02:30.120:1,0.16,-0.195
00:02:30.124:1,0.165,-0.195
00:02:30.128:1,0.14,-0.21
00:02:30.132:1,0.14,-0.22
00:02:30.136:1,0.15,-0.23
00:02:30.140:1,0.135,-0.24
00:02:30.144:1,0.14,-0.24
00:02:30.148:1,0.12,-0.225
00:02:30.152:1,0.115,-0.25
00:02:30.156:1,0.13,-0.28
00:02:30.160:1,0.125,-0.275
00:02:30.164:1,0.135,-0.28
00:02:30.168:1,0.13,-0.27
00:02:30.172:1,0.145,-0.205
00:02:30.176:1,0.15,-0.2
00:02:30.180:1,0.155,-0.185
00:02:30.184:1,0.17,-0.19
00:02:30.188:1,0.175,-0.165
00:02:30.192:1,0.165,-0.155
00:02:30.196:1,0.14,-0.15
00:02:30.200:1,0.14,-0.16
00:02:30.204:1,0.135,-0.155
00:02:30.208:1,0.115,-0.17
00:02:30.212:1,0.125,-0.16
00:02:30.216:1,0.095,-0.17
00:02:30.220:1,0.12,-0.19
00:02:30.224:1,0.1,-0.19
00:02:30.228:1,0.09,-0.16
00:02:30.232:1,0.075,-0.155
00:02:30.236:1,0.09,-0.145
00:02:30.240:1,0.095,-0.155
00:02:30.244:1,0.105,-0.175
00:02:30.248:1,0.115,-0.185
00:02:30.252:1,0.105,-0.195
00:02:30.256:1,0.115,-0.22
00:02:30.260:1,0.125,-0.22
00:02:30.264:1,0.115,-0.22
00:02:30.268:1,0.13,-0.23
00:02:30.272:1,0.11,-0.22
00:02:30.276:1,0.12,-0.25
00:02:30.280:1,0.11,-0.305
00:02:30.284:1,0.115,-0.265
00:02:30.288:1,0.09,-0.2
00:02:30.292:1,0.12,0.02
00:02:30.296:1,0.14,0.315
00:02:30.300:1,0.185,0.615
00:02:30.304:1,0.225,0.775
00:02:30.308:1,0.335,0.735
00:02:30.312:1,0.425,0.51
00:02:30.316:1,0.45,0.05
00:02:30.320:1,0.405,-0.58
00:02:30.324:1,0.32,-1.005
00:02:30.328:1,0.165,-1.165
00:02:30.332:1,-0.03,-1.13
00:02:30.336:1,-0.205,-0.965
00:02:30.340:1,-0.255,-0.77
00:02:30.344:1,-0.255,-0.585
00:02:30.348:1,-0.205,-0.43
00:02:30.352:1,-0.15,-0.33
00:02:30.356:1,-0.055,-0.25
00:02:30.360:1,0.015,-0.225
00:02:30.364:1,0.07,-0.22
00:02:30.368:1,0.11,-0.24
00:02:30.372:1,0.115,-0.235
00:02:30.376:1,0.115,-0.24
00:02:30.380:1,0.105,-0.235
00:02:30.384:1,0.09,-0.26
00:02:30.388:1,0.1,-0.25
00:02:30.392:1,0.09,-0.235
00:02:30.396:1,0.09,-0.22
00:02:30.400:1,0.085,-0.23
00:02:30.404:1,0.085,-0.235
00:02:30.408:1,0.105,-0.27
00:02:30.412:1,0.11,-0.285
00:02:30.416:1,0.11,-0.31
00:02:30.420:1,0.105,-0.3
00:02:30.424:1,0.085,-0.31
00:02:30.428:1,0.09,-0.33
00:02:30.432:1,0.09,-0.33
00:02:30.436:1,0.1,-0.34
00:02:30.440:1,0.085,-0.355
00:02:30.444:1,0.085,-0.35
00:02:30.448:1,0.075,-0.34
00:02:30.452:1,0.07,-0.335
00:02:30.456:1,0.06,-0.355
00:02:30.460:1,0.075,-0.34
00:02:30.464:1,0.075,-0.355
00:02:30.468:1,0.065,-0.35
00:02:30.472:1,0.09,-0.365
00:02:30.476:1,0.065,-0.355
00:02:30.480:1,0.065,-0.355
00:02:30.484:1,0.065,-0.35
00:02:30.488:1,0.085,-0.36
00:02:30.492:1,0.075,-0.365
00:02:30.496:1,0.05,-0.37
00:02:30.500:1,0.065,-0.36
00:02:30.504:1,0.07,-0.315
00:02:30.508:1,0.085,-0.29
00:02:30.512:1,0.085,-0.26
00:02:30.516:1,0.09,-0.235
00:02:30.520:1,0.085,-0.215
00:02:30.524:1,0.085,-0.21
00:02:30.528:1,0.1,-0.19
00:02:30.532:1,0.09,-0.18
00:02:30.536:1,0.095,-0.17
00:02:30.540:1,0.11,-0.135
00:02:30.544:1,0.135,-0.12
00:02:30.548:1,0.11,-0.1
00:02:30.552:1,0.145,-0.08
00:02:30.556:1,0.135,-0.05
00:02:30.560:1,0.125,-0.065
00:02:30.564:1,0.165,-0.065
00:02:30.568:1,0.175,-0.065
00:02:30.572:1,0.185,-0.06
00:02:30.576:1,0.185,-0.09
00:02:30.580:1,0.175,-0.085
00:02:30.584:1,0.185,-0.1
00:02:30.588:1,0.195,-0.11
00:02:30.592:1,0.175,-0.145
00:02:30.596:1,0.185,-0.17
00:02:30.600:1,0.19,-0.205
00:02:30.604:1,0.175,-0.18
00:02:30.608:1,0.18,-0.175
00:02:30.612:1,0.175,-0.18
00:02:30.616:1,0.17,-0.2
00:02:30.620:1,0.17,-0.21
00:02:30.624:1,0.16,-0.215
00:02:30.628:1,0.17,-0.215
00:02:30.632:1,0.14,-0.23
00:02:30.636:1,0.145,-0.235
00:02:30.640:1,0.12,-0.235
00:02:30.644:1,0.125,-0.23
00:02:30.648:1,0.135,-0.225
00:02:30.652:1,0.12,-0.195
00:02:30.656:1,0.11,-0.195
00:02:30.660:1,0.115,-0.2
00:02:30.664:1,0.11,-0.185
00:02:30.668:1,0.14,-0.155
00:02:30.672:1,0.115,-0.15
00:02:30.676:1,0.12,-0.155
00:02:30.680:1,0.11,-0.16
00:02:30.684:1,0.125,-0.17
00:02:30.688:1,0.135,-0.16
00:02:30.692:1,0.13,-0.145
00:02:30.696:1,0.13,-0.16
00:02:30.700:1,0.13,-0.165
00:02:30.704:1,0.13,-0.175
00:02:30.708:1,0.14,-0.155
00:02:30.712:1,0.14,-0.155
00:02:30.716:1,0.15,-0.16
00:02:30.720:1,0.135,-0.16
00:02:30.724:1,0.115,-0.16
00:02:30.728:1,0.135,-0.18
00:02:30.732:1,0.15,-0.195
00:02:30.736:1,0.145,-0.19
00:02:30.740:1,0.16,-0.225
00:02:30.744:1,0.17,-0.24
00:02:30.748:1,0.17,-0.24
00:02:30.752:1,0.165,-0.25
00:02:30.756:1,0.165,-0.26
00:02:30.760:1,0.165,-0.255
00:02:30.764:1,0.145,-0.26
00:02:30.768:1,0.155,-0.25
00:02:30.772:1,0.145,-0.265
00:02:30.776:1,0.115,-0.26
00:02:30.780:1,0.17,-0.27
00:02:30.784:1,0.155,-0.29
00:02:30.788:1,0.115,-0.275
00:02:30.792:1,0.115,-0.285
00:02:30.796:1,0.14,-0.28
00:02:30.800:1,0.12,-0.31
00:02:30.804:1,0.105,-0.305
00:02:30.808:1,0.11,-0.33
00:02:30.812:1,0.11,-0.33
00:02:30.816:1,0.1,-0.33
00:02:30.820:1,0.11,-0.36
00:02:30.824:1,0.11,-0.38
00:02:30.828:1,0.125,-0.36
00:02:30.832:1,0.12,-0.285
00:02:30.836:1,0.105,-0.22
00:02:30.840:1,0.12,-0.205
00:02:30.844:1,0.14,-0.205
00:02:30.848:1,0.14,-0.18
00:02:30.852:1,0.125,-0.17
00:02:30.856:1,0.125,-0.185
00:02:30.860:1,0.12,-0.19
00:02:30.864:1,0.115,-0.225
00:02:30.868:1,0.11,-0.225
00:02:30.872:1,0.11,-0.215
00:02:30.876:1,0.095,-0.2
00:02:30.880:1,0.1,-0.21
00:02:30.884:1,0.095,-0.195
00:02:30.888:1,0.1,-0.19
00:02:30.892:1,0.095,-0.185
00:02:30.896:1,0.105,-0.16
00:02:30.900:1,0.11,-0.145
00:02:30.904:1,0.11,-0.155
00:02:30.908:1,0.135,-0.155
00:02:30.912:1,0.145,-0.055
00:02:30.916:1,0.175,0.16
00:02:30.920:1,0.225,0.455
00:02:30.924:1,0.245,0.765
00:02:30.928:1,0.31,0.995
00:02:30.932:1,0.4,1.015
00:02:30.936:1,0.515,0.825
00:02:30.940:1,0.545,0.36
00:02:30.944:1,0.485,-0.345
00:02:30.948:1,0.365,-0.86
00:02:30.952:1,0.16,-1.1
00:02:30.956:1,-0.095,-1.125
00:02:30.960:1,-0.25,-0.96
00:02:30.964:1,-0.325,-0.78
00:02:30.968:1,-0.33,-0.64
00:02:30.972:1,-0.275,-0.525
00:02:30.976:1,-0.16,-0.425
00:02:30.980:1,-0.09,-0.345
00:02:30.984:1,0.015,-0.33
00:02:30.988:1,0.07,-0.345
00:02:30.992:1,0.11,-0.35
00:02:30.996:1,0.115,-0.37
00:02:31.000:1,0.105,-0.375
00:02:31.004:1,0.1,-0.375
00:02:31.008:1,0.105,-0.34
00:02:31.012:1,0.105,-0.32
00:02:31.016:1,0.115,-0.285
00:02:31.020:1,0.14,-0.26
00:02:31.024:1,0.125,-0.235
00:02:31.028:1,0.155,-0.24
00:02:31.032:1,0.145,-0.225
00:02:31.036:1,0.13,-0.215
00:02:31.040:1,0.135,-0.23
00:02:31.044:1,0.14,-0.23
00:02:31.048:1,0.125,-0.215
00:02:31.052:1,0.11,-0.205
00:02:31.056:1,0.115,-0.215
00:02:31.060:1,0.11,-0.24
00:02:31.064:1,0.11,-0.235
00:02:31.068:1,0.105,-0.235
00:02:31.072:1,0.105,-0.225
00:02:31.076:1,0.09,-0.215
00:02:31.080:1,0.11,-0.2
00:02:31.084:1,0.13,-0.17
00:02:31.088:1,0.14,-0.19
00:02:31.092:1,0.145,-0.225
00:02:31.096:1,0.175,-0.235
00:02:31.100:1,0.16,-0.26
00:02:31.104:1,0.145,-0.27
00:02:31.108:1,0.145,-0.29
00:02:31.112:1,0.15,-0.265
00:02:31.116:1,0.14,-0.27
00:02:31.120:1,0.145,-0.275
00:02:31.124:1,0.15,-0.285
00:02:31.128:1,0.125,-0.26
00:02:31.132:1,0.13,-0.27
00:02:31.136:1,0.155,-0.28
00:02:31.140:1,0.145,-0.275
00:02:31.144:1,0.14,-0.24
00:02:31.148:1,0.13,-0.205
00:02:31.152:1,0.16,-0.18
00:02:31.156:1,0.19,-0.165
00:02:31.160:1,0.195,-0.135
00:02:31.164:1,0.2,-0.12
00:02:31.168:1,0.18,-0.1
00:02:31.172:1,0.18,-0.065
00:02:31.176:1,0.175,-0.05
00:02:31.180:1,0.18,-0.045
00:02:31.184:1,0.175,-0.03
00:02:31.188:1,0.175,-0.04
00:02:31.192:1,0.19,-0.015
00:02:31.196:1,0.18,-0.005
00:02:31.200:1,0.165,0.0
00:02:31.204:1,0.165,-0.03
00:02:31.208:1,0.16,-0.015
00:02:31.212:1,0.16,0.0
00:02:31.216:1,0.165,-0.015
00:02:31.220:1,0.17,-0.05
00:02:31.224:1,0.155,-0.065
00:02:31.228:1,0.16,-0.065
00:02:31.232:1,0.155,-0.085
00:02:31.236:1,0.16,-0.105
00:02:31.240:1,0.165,-0.095
00:02:31.244:1,0.155,-0.1
00:02:31.248:1,0.17,-0.08
00:02:31.252:1,0.165,-0.08
00:02:31.256:1,0.18,-0.08
00:02:31.260:1,0.2,-0.1
00:02:31.264:1,0.185,-0.13
00:02:31.268:1,0.195,-0.18
00:02:31.272:1,0.18,-0.18
00:02:31.276:1,0.19,-0.21
00:02:31.280:1,0.165,-0.225
00:02:31.284:1,0.165,-0.235
00:02:31.288:1,0.195,-0.21
00:02:31.292:1,0.165,-0.185
00:02:31.296:1,0.175,-0.14
00:02:31.300:1,0.175,-0.15
00:02:31.304:1,0.17,-0.16
00:02:31.308:1,0.14,-0.15
00:02:31.312:1,0.14,-0.14
00:02:31.316:1,0.15,-0.145
00:02:31.320:1,0.14,-0.13
00:02:31.324:1,0.15,-0.14
00:02:31.328:1,0.155,-0.15
00:02:31.332:1,0.16,-0.15
00:02:31.336:1,0.15,-0.15
00:02:31.340:1,0.14,-0.165
00:02:31.344:1,0.13,-0.165
00:02:31.348:1,0.135,-0.175
00:02:31.352:1,0.125,-0.19
00:02:31.356:1,0.125,-0.195
00:02:31.360:1,0.105,-0.18
00:02:31.364:1,0.1,-0.2
00:02:31.368:1,0.11,-0.21
00:02:31.372:1,0.105,-0.225
00:02:31.376:1,0.1,-0.22
00:02:31.380:1,0.115,-0.23
00:02:31.384:1,0.1,-0.24
00:02:31.388:1,0.1,-0.24
00:02:31.392:1,0.09,-0.255
00:02:31.396:1,0.095,-0.27
00:02:31.400:1,0.1,-0.255
00:02:31.404:1,0.11,-0.26
00:02:31.408:1,0.105,-0.25
00:02:31.412:1,0.125,-0.265
00:02:31.416:1,0.105,-0.265
00:02:31.420:1,0.12,-0.28
00:02:31.424:1,0.12,-0.295
00:02:31.428:1,0.115,-0.295
00:02:31.432:1,0.11,-0.31
00:02:31.436:1,0.125,-0.285
00:02:31.440:1,0.14,-0.24
00:02:31.444:1,0.15,-0.225
00:02:31.448:1,0.165,-0.19
00:02:31.452:1,0.18,-0.22
00:02:31.456:1,0.18,-0.2
00:02:31.460:1,0.155,-0.18
00:02:31.464:1,0.15,-0.17
00:02:31.468:1,0.16,-0.17
00:02:31.472:1,0.135,-0.16
00:02:31.476:1,0.125,-0.18
00:02:31.480:1,0.12,-0.19
00:02:31.484:1,0.145,-0.185
00:02:31.488:1,0.135,-0.195
00:02:31.492:1,0.13,-0.21
00:02:31.496:1,0.13,-0.215
00:02:31.500:1,0.12,-0.225
00:02:31.504:1,0.125,-0.22
00:02:31.508:1,0.125,-0.22
00:02:31.512:1,0.095,-0.215
00:02:31.516:1,0.125,-0.23
00:02:31.520:1,0.12,-0.22
00:02:31.524:1,0.12,-0.22
00:02:31.528:1,0.11,-0.21
00:02:31.532:1,0.13,-0.215
00:02:31.536:1,0.12,-0.225
00:02:31.540:1,0.115,-0.235
00:02:31.544:1,0.11,-0.24
00:02:31.548:1,0.115,-0.245
00:02:31.552:1,0.11,-0.225
00:02:31.556:1,0.115,-0.23
00:02:31.560:1,0.125,-0.245
00:02:31.564:1,0.095,-0.25
00:02:31.568:1,0.115,-0.245
00:02:31.572:1,0.115,-0.23
00:02:31.576:1,0.135,-0.215
00:02:31.580:1,0.115,-0.195
00:02:31.584:1,0.14,-0.11
00:02:31.588:1,0.16,0.11
00:02:31.592:1,0.19,0.425
00:02:31.596:1,0.215,0.715
00:02:31.600:1,0.275,0.965
00:02:31.604:1,0.375,1.035
00:02:31.608:1,0.45,0.94
00:02:31.612:1,0.52,0.535
00:02:31.616:1,0.5,-0.08
00:02:31.620:1,0.4,-0.65
00:02:31.624:1,0.225,-0.98
00:02:31.628:1,0.0,-1.075
00:02:31.632:1,-0.19,-0.96
00:02:31.636:1,-0.305,-0.79
00:02:31.640:1,-0.3,-0.645
00:02:31.644:1,-0.265,-0.535
00:02:31.648:1,-0.23,-0.435
00:02:31.652:1,-0.125,-0.345
00:02:31.656:1,-0.045,-0.295
00:02:31.660:1,0.045,-0.31
00:02:31.664:1,0.095,-0.315
00:02:31.668:1,0.12,-0.32
00:02:31.672:1,0.1,-0.325
00:02:31.676:1,0.115,-0.32
00:02:31.680:1,0.105,-0.32
00:02:31.684:1,0.095,-0.33
00:02:31.688:1,0.09,-0.335
00:02:31.692:1,0.095,-0.36
00:02:31.696:1,0.11,-0.35
00:02:31.700:1,0.095,-0.345
00:02:31.704:1,0.085,-0.355
00:02:31.708:1,0.085,-0.37
00:02:31.712:1,0.095,-0.385
00:02:31.716:1,0.09,-0.38
00:02:31.720:1,0.075,-0.36
00:02:31.724:1,0.1,-0.33
00:02:31.728:1,0.115,-0.285
00:02:31.732:1,0.13,-0.29
00:02:31.736:1,0.14,-0.265
00:02:31.740:1,0.16,-0.25
00:02:31.744:1,0.135,-0.22
00:02:31.748:1,0.115,-0.225
00:02:31.752:1,0.115,-0.2
00:02:31.756:1,0.1,-0.18
00:02:31.760:1,0.125,-0.145
00:02:31.764:1,0.14,-0.14
00:02:31.768:1,0.165,-0.17
00:02:31.772:1,0.17,-0.195
00:02:31.776:1,0.175,-0.2
00:02:31.780:1,0.175,-0.205
00:02:31.784:1,0.16,-0.195
00:02:31.788:1,0.14,-0.2
00:02:31.792:1,0.14,-0.21
00:02:31.796:1,0.145,-0.215
00:02:31.800:1,0.14,-0.205
00:02:31.804:1,0.165,-0.21
00:02:31.808:1,0.15,-0.215
00:02:31.812:1,0.145,-0.22
00:02:31.816:1,0.15,-0.19
00:02:31.820:1,0.17,-0.19
00:02:31.824:1,0.145,-0.18
00:02:31.828:1,0.155,-0.185
00:02:31.832:1,0.15,-0.18
00:02:31.836:1,0.165,-0.18
00:02:31.840:1,0.15,-0.155
00:02:31.844:1,0.175,-0.15
00:02:31.848:1,0.18,-0.13
00:02:31.852:1,0.185,-0.115
00:02:31.856:1,0.165,-0.13
00:02:31.860:1,0.215,-0.12
00:02:31.864:1,0.195,-0.115
00:02:31.868:1,0.19,-0.105
00:02:31.872:1,0.2,-0.11
00:02:31.876:1,0.215,-0.105
00:02:31.880:1,0.19,-0.04
00:02:31.884:1,0.245,-0.01
00:02:31.888:1,0.25,-0.02
00:02:31.892:1,0.25,-0.005
00:02:31.896:1,0.235,0.01
00:02:31.900:1,0.25,0.005
00:02:31.904:1,0.24,-0.005
00:02:31.908:1,0.24,0.01
00:02:31.912:1,0.24,0.01
00:02:31.916:1,0.24,-0.005
00:02:31.920:1,0.23,-0.035
00:02:31.924:1,0.235,-0.055
00:02:31.928:1,0.23,-0.075
00:02:31.932:1,0.215,-0.115
00:02:31.936:1,0.19,-0.135
00:02:31.940:1,0.175,-0.135
00:02:31.944:1,0.19,-0.14
00:02:31.948:1,0.195,-0.135
00:02:31.952:1,0.17,-0.16
00:02:31.956:1,0.18,-0.17
00:02:31.960:1,0.175,-0.175
00:02:31.964:1,0.165,-0.175
00:02:31.968:1,0.165,-0.175
00:02:31.972:1,0.17,-0.195
00:02:31.976:1,0.155,-0.185
00:02:31.980:1,0.15,-0.2
00:02:31.984:1,0.15,-0.21
00:02:31.988:1,0.135,-0.21
00:02:31.992:1,0.14,-0.21
00:02:31.996:1,0.12,-0.215
00:02:32.000:1,0.125,-0.24
00:02:32.004:1,0.12,-0.23
00:02:32.008:1,0.11,-0.225
00:02:32.012:1,0.105,-0.24
00:02:32.016:1,0.12,-0.225
00:02:32.020:1,0.105,-0.235
00:02:32.024:1,0.125,-0.23
00:02:32.028:1,0.105,-0.21
00:02:32.032:1,0.11,-0.185
00:02:32.036:1,0.115,-0.155
00:02:32.040:1,0.135,-0.155
00:02:32.044:1,0.135,-0.15
00:02:32.048:1,0.13,-0.135
00:02:32.052:1,0.14,-0.135
00:02:32.056:1,0.12,-0.115
00:02:32.060:1,0.115,-0.11
00:02:32.064:1,0.13,-0.1
00:02:32.068:1,0.145,-0.1
00:02:32.072:1,0.15,-0.09
00:02:32.076:1,0.14,-0.1
00:02:32.080:1,0.15,-0.13
00:02:32.084:1,0.125,-0.12
00:02:32.088:1,0.13,-0.135
00:02:32.092:1,0.15,-0.15
00:02:32.096:1,0.135,-0.15
00:02:32.100:1,0.12,-0.125
00:02:32.104:1,0.145,0.015
00:02:32.108:1,0.15,0.28
00:02:32.112:1,0.19,0.6
00:02:32.116:1,0.24,0.84
00:02:32.120:1,0.315,0.905
00:02:32.124:1,0.415,0.765
00:02:32.128:1,0.485,0.295
00:02:32.132:1,0.445,-0.41
00:02:32.136:1,0.385,-0.945
00:02:32.140:1,0.225,-1.185
00:02:32.144:1,0.045,-1.205
00:02:32.148:1,-0.135,-1.02
00:02:32.152:1,-0.285,-0.845
00:02:32.156:1,-0.29,-0.69
00:02:32.160:1,-0.265,-0.545
00:02:32.164:1,-0.23,-0.435
00:02:32.168:1,-0.155,-0.345
00:02:32.172:1,-0.045,-0.305
00:02:32.176:1,0.01,-0.29
00:02:32.180:1,0.07,-0.265
00:02:32.184:1,0.085,-0.285
00:02:32.188:1,0.1,-0.285
00:02:32.192:1,0.09,-0.28
00:02:32.196:1,0.07,-0.265
00:02:32.200:1,0.085,-0.245
00:02:32.204:1,0.075,-0.255
00:02:32.208:1,0.06,-0.24
00:02:32.212:1,0.06,-0.255
00:02:32.216:1,0.06,-0.25
00:02:32.220:1,0.06,-0.265
00:02:32.224:1,0.05,-0.255
00:02:32.228:1,0.05,-0.235
00:02:32.232:1,0.06,-0.215
00:02:32.236:1,0.05,-0.235
00:02:32.240:1,0.09,-0.24
00:02:32.244:1,0.085,-0.26
00:02:32.248:1,0.075,-0.28
00:02:32.252:1,0.07,-0.3
00:02:32.256:1,0.05,-0.32
00:02:32.260:1,0.035,-0.32
00:02:32.264:1,0.045,-0.3
00:02:32.268:1,0.04,-0.32
00:02:32.272:1,0.03,-0.33
00:02:32.276:1,0.04,-0.345
00:02:32.280:1,0.035,-0.35
00:02:32.284:1,0.03,-0.36
00:02:32.288:1,0.035,-0.345
00:02:32.292:1,0.03,-0.34
00:02:32.296:1,0.04,-0.31
00:02:32.300:1,0.035,-0.285
00:02:32.304:1,0.06,-0.28
00:02:32.308:1,0.065,-0.265
00:02:32.312:1,0.05,-0.265
00:02:32.316:1,0.035,-0.25
00:02:32.320:1,0.02,-0.245
00:02:32.324:1,0.045,-0.23
00:02:32.328:1,0.05,-0.2
00:02:32.332:1,0.05,-0.215
00:02:32.336:1,0.065,-0.215
00:02:32.340:1,0.055,-0.185
00:02:32.344:1,0.055,-0.155
00:02:32.348:1,0.035,-0.165
00:02:32.352:1,0.04,-0.165
00:02:32.356:1,0.05,-0.14
00:02:32.360:1,0.06,-0.14
00:02:32.364:1,0.055,-0.12
00:02:32.368:1,0.05,-0.11
00:02:32.372:1,0.055,-0.1
00:02:32.376:1,0.07,-0.095
00:02:32.380:1,0.075,-0.09
00:02:32.384:1,0.08,-0.085
00:02:32.388:1,0.095,-0.07
00:02:32.392:1,0.12,-0.06
00:02:32.396:1,0.115,-0.06
00:02:32.400:1,0.115,-0.075
00:02:32.404:1,0.13,-0.1
00:02:32.408:1,0.15,-0.13
00:02:32.412:1,0.135,-0.15
00:02:32.416:1,0.14,-0.17
00:02:32.420:1,0.135,-0.185
00:02:32.424:1,0.125,-0.185
00:02:32.428:1,0.105,-0.185
00:02:32.432:1,0.13,-0.215
00:02:32.436:1,0.125,-0.21
00:02:32.440:1,0.125,-0.205
00:02:32.444:1,0.11,-0.2
00:02:32.448:1,0.145,-0.16
00:02:32.452:1,0.125,-0.155
00:02:32.456:1,0.125,-0.135
00:02:32.460:1,0.125,-0.135
00:02:32.464:1,0.115,-0.135
00:02:32.468:1,0.12,-0.12
00:02:32.472:1,0.095,-0.12
00:02:32.476:1,0.115,-0.12
00:02:32.480:1,0.105,-0.125
00:02:32.484:1,0.095,-0.145
00:02:32.488:1,0.115,-0.15
00:02:32.492:1,0.095,-0.13
00:02:32.496:1,0.09,-0.16
00:02:32.500:1,0.085,-0.175
00:02:32.504:1,0.1,-0.19
00:02:32.508:1,0.07,-0.19
00:02:32.512:1,0.1,-0.21
00:02:32.516:1,0.085,-0.21
00:02:32.520:1,0.085,-0.215
00:02:32.524:1,0.085,-0.22
00:02:32.528:1,0.075,-0.23
00:02:32.532:1,0.09,-0.215
00:02:32.536:1,0.09,-0.245
00:02:32.540:1,0.085,-0.26
00:02:32.544:1,0.08,-0.275
00:02:32.548:1,0.07,-0.285
00:02:32.552:1,0.055,-0.29
00:02:32.556:1,0.045,-0.28
00:02:32.560:1,0.065,-0.285
00:02:32.564:1,0.065,-0.295
00:02:32.568:1,0.075,-0.29
00:02:32.572:1,0.065,-0.265
00:02:32.576:1,0.075,-0.25
00:02:32.580:1,0.075,-0.265
00:02:32.584:1,0.085,-0.27
00:02:32.588:1,0.07,-0.24
00:02:32.592:1,0.085,-0.225
00:02:32.596:1,0.11,-0.215
00:02:32.600:1,0.14,-0.19
00:02:32.604:1,0.13,-0.19
00:02:32.608:1,0.135,-0.165
00:02:32.612:1,0.135,-0.16
00:02:32.616:1,0.12,-0.145
00:02:32.620:1,0.13,-0.145
00:02:32.624:1,0.115,-0.15
00:02:32.628:1,0.1,-0.15
00:02:32.632:1,0.11,-0.13
00:02:32.636:1,0.095,-0.05
00:02:32.640:1,0.095,0.1
00:02:32.644:1,0.115,0.34
00:02:32.648:1,0.14,0.625
00:02:32.652:1,0.185,0.86
00:02:32.656:1,0.255,0.935
00:02:32.660:1,0.35,0.8
00:02:32.664:1,0.44,0.38
00:02:32.668:1,0.43,-0.31
00:02:32.672:1,0.425,-0.89
00:02:32.676:1,0.37,-1.23
00:02:32.680:1,0.215,-1.28
00:02:32.684:1,0.025,-1.125
00:02:32.688:1,-0.1,-0.965
00:02:32.692:1,-0.225,-0.84
00:02:32.696:1,-0.27,-0.705
00:02:32.700:1,-0.235,-0.57
00:02:32.704:1,-0.18,-0.475
00:02:32.708:1,-0.12,-0.38
00:02:32.712:1,-0.06,-0.32
00:02:32.716:1,0.0,-0.3
00:02:32.720:1,0.045,-0.275
00:02:32.724:1,0.07,-0.27
00:02:32.728:1,0.075,-0.295
00:02:32.732:1,0.06,-0.285
00:02:32.736:1,0.06,-0.265
00:02:32.740:1,0.06,-0.255
00:02:32.744:1,0.065,-0.24
00:02:32.748:1,0.085,-0.215
00:02:32.752:1,0.065,-0.195
00:02:32.756:1,0.065,-0.175
00:02:32.760:1,0.085,-0.18
00:02:32.764:1,0.085,-0.17
00:02:32.768:1,0.105,-0.185
00:02:32.772:1,0.1,-0.215
00:02:32.776:1,0.1,-0.23
00:02:32.780:1,0.08,-0.23
00:02:32.784:1,0.065,-0.23
00:02:32.788:1,0.055,-0.245
00:02:32.792:1,0.055,-0.26
00:02:32.796:1,0.055,-0.28
00:02:32.800:1,0.06,-0.28
00:02:32.804:1,0.045,-0.27
