Time,ECG1,ECG2
18:42:28.732,0.52,-1.125
18:42:28.736,0.815,-1.41
18:42:28.740,1.115,-1.71
18:42:28.744,1.3,-1.965
18:42:28.748,1.18,-2.05
18:42:28.752,0.82,-1.905
18:42:28.756,0.325,-1.465
18:42:28.760,0.025,-1.015
18:42:28.764,-0.135,-0.73
18:42:28.768,-0.2,-0.53
18:42:28.772,-0.19,-0.36
18:42:28.776,-0.21,-0.195
18:42:28.780,-0.245,-0.075
18:42:28.784,-0.26,0.01
18:42:28.788,-0.275,0.05
18:42:28.792,-0.26,0.075
18:42:28.796,-0.27,0.085
18:42:28.800,-0.275,0.115
18:42:28.804,-0.26,0.105
18:42:28.808,-0.28,0.095
18:42:28.812,-0.29,0.105
18:42:28.816,-0.325,0.11
18:42:28.820,-0.345,0.11
18:42:28.824,-0.33,0.095
18:42:28.828,-0.33,0.135
18:42:28.832,-0.33,0.145
18:42:28.836,-0.35,0.16
18:42:28.840,-0.365,0.17
18:42:28.844,-0.355,0.185
18:42:28.848,-0.345,0.17
18:42:28.852,-0.32,0.15
18:42:28.856,-0.32,0.155
18:42:28.860,-0.34,0.155
18:42:28.864,-0.32,0.165
18:42:28.868,-0.345,0.155
18:42:28.872,-0.345,0.165
18:42:28.876,-0.33,0.12
18:42:28.880,-0.36,0.125
18:42:28.884,-0.385,0.115
18:42:28.888,-0.37,0.075
18:42:28.892,-0.375,0.065
18:42:28.896,-0.39,0.055
18:42:28.900,-0.375,0.045
18:42:28.904,-0.375,0.065
18:42:28.908,-0.395,0.05
18:42:28.912,-0.385,0.065
18:42:28.916,-0.38,0.055
18:42:28.920,-0.385,0.065
18:42:28.924,-0.385,0.05
18:42:28.928,-0.38,0.05
18:42:28.932,-0.38,0.045
18:42:28.936,-0.385,0.025
18:42:28.940,-0.35,0.01
18:42:28.944,-0.365,0.0
18:42:28.948,-0.33,0.0
18:42:28.952,-0.295,0.0
18:42:28.956,-0.29,-0.035
18:42:28.960,-0.255,-0.035
18:42:28.964,-0.235,-0.045
18:42:28.968,-0.22,-0.065
18:42:28.972,-0.205,-0.06
18:42:28.976,-0.185,-0.065
18:42:28.980,-0.18,-0.07
18:42:28.984,-0.175,-0.095
18:42:28.988,-0.17,-0.1
18:42:28.992,-0.145,-0.09
18:42:28.996,-0.135,-0.09
18:42:29.000,-0.12,-0.105
18:42:29.004,-0.135,-0.105
18:42:29.008,-0.12,-0.08
18:42:29.012,-0.125,-0.07
18:42:29.016,-0.1,-0.06
18:42:29.020,-0.11,-0.075
18:42:29.024,-0.085,-0.065
18:42:29.028,-0.09,-0.045
18:42:29.032,-0.075,-0.04
18:42:29.036,-0.075,-0.03
18:42:29.040,-0.065,-0.01
18:42:29.044,-0.085,0.0
18:42:29.048,-0.125,-0.01
18:42:29.052,-0.16,-0.015
18:42:29.056,-0.18,0.01
18:42:29.060,-0.215,0.015
18:42:29.064,-0.235,0.01
18:42:29.068,-0.23,0.01
18:42:29.072,-0.25,0.005
18:42:29.076,-0.235,0.035
18:42:29.080,-0.235,0.025
18:42:29.084,-0.24,0.03
18:42:29.088,-0.24,0.03
18:42:29.092,-0.215,0.03
18:42:29.096,-0.22,0.015
18:42:29.100,-0.225,0.03
18:42:29.104,-0.21,0.005
18:42:29.108,-0.205,0.0
18:42:29.112,-0.195,-0.005
18:42:29.116,-0.2,-0.025
18:42:29.120,-0.21,-0.065
18:42:29.124,-0.225,-0.06
18:42:29.128,-0.245,-0.115
18:42:29.132,-0.255,-0.105
18:42:29.136,-0.265,-0.14
18:42:29.140,-0.25,-0.155
18:42:29.144,-0.275,-0.16
18:42:29.148,-0.29,-0.16
18:42:29.152,-0.28,-0.18
18:42:29.156,-0.26,-0.18
18:42:29.160,-0.27,-0.17
18:42:29.164,-0.265,-0.2
18:42:29.168,-0.27,-0.195
18:42:29.172,-0.26,-0.185
18:42:29.176,-0.265,-0.175
18:42:29.180,-0.25,-0.185
18:42:29.184,-0.24,-0.16
18:42:29.188,-0.24,-0.15
18:42:29.192,-0.235,-0.14
18:42:29.196,-0.24,-0.13
18:42:29.200,-0.23,-0.12
18:42:29.204,-0.245,-0.14
18:42:29.208,-0.225,-0.135
18:42:29.212,-0.225,-0.125
18:42:29.216,-0.2,-0.13
18:42:29.220,-0.215,-0.125
18:42:29.224,-0.22,-0.13
18:42:29.228,-0.22,-0.12
18:42:29.232,-0.21,-0.135
18:42:29.236,-0.19,-0.115
18:42:29.240,-0.205,-0.13
18:42:29.244,-0.19,-0.11
18:42:29.248,-0.165,-0.12
18:42:29.252,-0.16,-0.09
18:42:29.256,-0.16,-0.09
18:42:29.260,-0.17,-0.09
18:42:29.264,-0.175,-0.05
18:42:29.268,-0.12,-0.045
18:42:29.272,-0.13,-0.055
18:42:29.276,-0.1,-0.055
18:42:29.280,-0.115,-0.045
18:42:29.284,-0.13,-0.035
18:42:29.288,-0.14,-0.03
18:42:29.292,-0.16,-0.045
18:42:29.296,-0.205,-0.025
18:42:29.300,-0.225,-0.005
18:42:29.304,-0.225,0.0
18:42:29.308,-0.24,0.03
18:42:29.312,-0.22,0.025
18:42:29.316,-0.205,0.06
18:42:29.320,-0.2,0.045
18:42:29.324,-0.185,0.03
18:42:29.328,-0.165,0.04
18:42:29.332,-0.17,0.025
18:42:29.336,-0.15,0.035
18:42:29.340,-0.135,0.025
18:42:29.344,-0.145,0.015
18:42:29.348,-0.145,0.0
18:42:29.352,-0.16,0.0
18:42:29.356,-0.175,-0.02
18:42:29.360,-0.17,-0.05
18:42:29.364,-0.19,-0.125
18:42:29.368,-0.18,-0.13
18:42:29.372,-0.21,-0.15
18:42:29.376,-0.205,-0.14
18:42:29.380,-0.225,-0.145
18:42:29.384,-0.205,-0.14
18:42:29.388,-0.205,-0.15
18:42:29.392,-0.21,-0.16
18:42:29.396,-0.205,-0.165
18:42:29.400,-0.2,-0.17
18:42:29.404,-0.205,-0.145
18:42:29.408,-0.21,-0.165
18:42:29.412,-0.215,-0.15
18:42:29.416,-0.21,-0.135
18:42:29.420,-0.205,-0.145
18:42:29.424,-0.2,-0.13
18:42:29.428,-0.21,-0.14
18:42:29.432,-0.205,-0.12
18:42:29.436,-0.21,-0.115
18:42:29.440,-0.22,-0.105
18:42:29.444,-0.21,-0.085
18:42:29.448,-0.19,-0.105
18:42:29.452,-0.16,-0.105
18:42:29.456,-0.1,-0.105
18:42:29.460,-0.03,-0.095
18:42:29.464,0.05,-0.115
18:42:29.468,0.145,-0.125
18:42:29.472,0.2,-0.185
18:42:29.476,0.245,-0.24
18:42:29.480,0.285,-0.335
18:42:29.484,0.32,-0.43
18:42:29.488,0.31,-0.58
18:42:29.492,0.33,-0.75
18:42:29.496,0.415,-0.95
18:42:29.500,0.59,-1.205
18:42:29.504,0.935,-1.495
18:42:29.508,1.23,-1.775
18:42:29.512,1.39,-1.99
18:42:29.516,1.245,-2.06
18:42:29.520,0.745,-1.85
18:42:29.524,0.2,-1.38
18:42:29.528,-0.135,-0.885
18:42:29.532,-0.315,-0.58
18:42:29.536,-0.36,-0.325
18:42:29.540,-0.355,-0.13
18:42:29.544,-0.36,0.0
18:42:29.548,-0.38,0.11
18:42:29.552,-0.405,0.18
18:42:29.556,-0.4,0.21
18:42:29.560,-0.405,0.24
18:42:29.564,-0.37,0.225
18:42:29.568,-0.375,0.23
18:42:29.572,-0.37,0.21
18:42:29.576,-0.385,0.21
18:42:29.580,-0.375,0.155
18:42:29.584,-0.385,0.165
18:42:29.588,-0.4,0.14
18:42:29.592,-0.385,0.135
18:42:29.596,-0.38,0.115
18:42:29.600,-0.385,0.12
18:42:29.604,-0.4,0.14
18:42:29.608,-0.395,0.135
18:42:29.612,-0.395,0.105
18:42:29.616,-0.39,0.12
18:42:29.620,-0.41,0.115
18:42:29.624,-0.415,0.11
18:42:29.628,-0.42,0.13
18:42:29.632,-0.43,0.14
18:42:29.636,-0.425,0.115
18:42:29.640,-0.405,0.13
18:42:29.644,-0.4,0.125
18:42:29.648,-0.415,0.125
18:42:29.652,-0.4,0.14
18:42:29.656,-0.39,0.14
18:42:29.660,-0.4,0.13
18:42:29.664,-0.38,0.14
18:42:29.668,-0.38,0.155
18:42:29.672,-0.365,0.165
18:42:29.676,-0.355,0.165
18:42:29.680,-0.35,0.175
18:42:29.684,-0.355,0.175
18:42:29.688,-0.33,0.14
18:42:29.692,-0.34,0.17
18:42:29.696,-0.3,0.175
18:42:29.700,-0.3,0.2
18:42:29.704,-0.3,0.185
18:42:29.708,-0.29,0.19
18:42:29.712,-0.29,0.205
18:42:29.716,-0.26,0.195
18:42:29.720,-0.245,0.215
18:42:29.724,-0.2,0.21
18:42:29.728,-0.2,0.21
18:42:29.732,-0.185,0.19
18:42:29.736,-0.2,0.195
18:42:29.740,-0.19,0.18
18:42:29.744,-0.22,0.21
18:42:29.748,-0.23,0.21
18:42:29.752,-0.24,0.225
18:42:29.756,-0.225,0.23
18:42:29.760,-0.24,0.22
18:42:29.764,-0.235,0.23
18:42:29.768,-0.225,0.235
18:42:29.772,-0.2,0.2
18:42:29.776,-0.205,0.175
18:42:29.780,-0.195,0.18
18:42:29.784,-0.19,0.155
18:42:29.788,-0.21,0.135
18:42:29.792,-0.195,0.095
18:42:29.796,-0.205,0.085
18:42:29.800,-0.195,0.035
18:42:29.804,-0.185,0.035
18:42:29.808,-0.2,-0.01
18:42:29.812,-0.215,-0.03
18:42:29.816,-0.195,-0.06
18:42:29.820,-0.215,-0.055
18:42:29.824,-0.225,-0.06
18:42:29.828,-0.21,-0.075
18:42:29.832,-0.21,-0.075
18:42:29.836,-0.23,-0.055
18:42:29.840,-0.245,-0.055
18:42:29.844,-0.255,-0.055
18:42:29.848,-0.25,-0.05
18:42:29.852,-0.285,-0.05
18:42:29.856,-0.3,-0.035
18:42:29.860,-0.305,-0.03
18:42:29.864,-0.325,-0.065
18:42:29.868,-0.35,-0.04
18:42:29.872,-0.355,-0.05
18:42:29.876,-0.34,-0.05
18:42:29.880,-0.355,-0.06
18:42:29.884,-0.36,-0.045
18:42:29.888,-0.36,-0.07
18:42:29.892,-0.365,-0.07
18:42:29.896,-0.35,-0.07
18:42:29.900,-0.365,-0.06
18:42:29.904,-0.365,-0.045
18:42:29.908,-0.34,-0.065
18:42:29.912,-0.355,-0.06
18:42:29.916,-0.345,-0.055
18:42:29.920,-0.35,-0.04
18:42:29.924,-0.32,-0.04
18:42:29.928,-0.315,-0.04
18:42:29.932,-0.295,-0.05
18:42:29.936,-0.265,-0.045
18:42:29.940,-0.265,-0.025
18:42:29.944,-0.26,-0.05
18:42:29.948,-0.265,-0.01
18:42:29.952,-0.225,-0.015
18:42:29.956,-0.195,0.005
18:42:29.960,-0.155,-0.005
18:42:29.964,-0.07,-0.025
18:42:29.968,0.025,-0.045
18:42:29.972,0.095,-0.06
18:42:29.976,0.145,-0.13
18:42:29.980,0.15,-0.215
18:42:29.984,0.16,-0.32
18:42:29.988,0.14,-0.375
18:42:29.992,0.12,-0.505
18:42:29.996,0.135,-0.65
18:42:30.000,0.25,-0.875
18:42:30.004,0.495,-1.13
18:42:30.008,0.835,-1.455
18:42:30.012,1.1,-1.735
18:42:30.016,1.14,-1.95
18:42:30.020,0.88,-1.965
18:42:30.024,0.365,-1.63
18:42:30.028,-0.07,-1.14
18:42:30.032,-0.29,-0.725
18:42:30.036,-0.395,-0.515
18:42:30.040,-0.43,-0.37
18:42:30.044,-0.445,-0.22
18:42:30.048,-0.47,-0.1
18:42:30.052,-0.485,-0.015
18:42:30.056,-0.49,0.015
18:42:30.060,-0.495,0.02
18:42:30.064,-0.515,0.04
18:42:30.068,-0.52,0.055
18:42:30.072,-0.53,0.065
18:42:30.076,-0.54,0.08
18:42:30.080,-0.555,0.075
18:42:30.084,-0.545,0.065
18:42:30.088,-0.55,0.085
18:42:30.092,-0.56,0.1
18:42:30.096,-0.565,0.1
18:42:30.100,-0.565,0.095
18:42:30.104,-0.59,0.08
18:42:30.108,-0.605,0.09
18:42:30.112,-0.605,0.09
18:42:30.116,-0.595,0.105
18:42:30.120,-0.595,0.105
18:42:30.124,-0.585,0.1
18:42:30.128,-0.59,0.125
18:42:30.132,-0.59,0.11
18:42:30.136,-0.595,0.13
18:42:30.140,-0.57,0.14
18:42:30.144,-0.58,0.15
18:42:30.148,-0.585,0.13
18:42:30.152,-0.565,0.135
18:42:30.156,-0.565,0.16
18:42:30.160,-0.54,0.155
18:42:30.164,-0.525,0.18
18:42:30.168,-0.505,0.165
18:42:30.172,-0.47,0.19
18:42:30.176,-0.45,0.22
18:42:30.180,-0.435,0.21
18:42:30.184,-0.405,0.23
18:42:30.188,-0.33,0.255
18:42:30.192,-0.285,0.27
18:42:30.196,-0.285,0.24
18:42:30.200,-0.27,0.24
18:42:30.204,-0.265,0.24
18:42:30.208,-0.285,0.24
18:42:30.212,-0.29,0.25
18:42:30.216,-0.31,0.255
18:42:30.220,-0.32,0.28
18:42:30.224,-0.31,0.27
18:42:30.228,-0.32,0.25
18:42:30.232,-0.32,0.22
18:42:30.236,-0.3,0.185
18:42:30.240,-0.305,0.14
18:42:30.244,-0.31,0.155
18:42:30.248,-0.305,0.105
18:42:30.252,-0.3,0.05
18:42:30.256,-0.315,0.055
18:42:30.260,-0.31,0.03
18:42:30.264,-0.305,0.0
18:42:30.268,-0.32,-0.015
18:42:30.272,-0.325,-0.02
18:42:30.276,-0.325,-0.02
18:42:30.280,-0.34,-0.005
18:42:30.284,-0.35,-0.02
18:42:30.288,-0.365,-0.03
18:42:30.292,-0.345,-0.005
18:42:30.296,-0.37,-0.04
18:42:30.300,-0.345,-0.025
18:42:30.304,-0.35,-0.045
18:42:30.308,-0.37,-0.04
18:42:30.312,-0.39,-0.055
18:42:30.316,-0.375,-0.025
18:42:30.320,-0.395,0.0
18:42:30.324,-0.415,-0.01
18:42:30.328,-0.415,-0.015
18:42:30.332,-0.43,-0.03
18:42:30.336,-0.45,-0.02
18:42:30.340,-0.44,-0.005
18:42:30.344,-0.46,0.005
18:42:30.348,-0.455,0.0
18:42:30.352,-0.465,-0.01
18:42:30.356,-0.48,-0.005
18:42:30.360,-0.475,-0.015
18:42:30.364,-0.49,-0.005
18:42:30.368,-0.48,-0.01
18:42:30.372,-0.465,-0.01
18:42:30.376,-0.45,-0.005
18:42:30.380,-0.445,-0.025
18:42:30.384,-0.425,-0.01
18:42:30.388,-0.43,0.005
18:42:30.392,-0.41,0.04
18:42:30.396,-0.39,0.02
18:42:30.400,-0.385,0.015
18:42:30.404,-0.38,0.035
18:42:30.408,-0.36,0.005
18:42:30.412,-0.32,0.01
18:42:30.416,-0.3,0.03
18:42:30.420,-0.255,0.03
18:42:30.424,-0.22,0.04
18:42:30.428,-0.22,0.04
18:42:30.432,-0.185,0.025
18:42:30.436,-0.205,0.06
18:42:30.440,-0.22,0.075
18:42:30.444,-0.225,0.09
18:42:30.448,-0.235,0.095
18:42:30.452,-0.265,0.075
18:42:30.456,-0.26,0.055
18:42:30.460,-0.27,0.035
18:42:30.464,-0.27,0.02
18:42:30.468,-0.26,-0.01
18:42:30.472,-0.265,0.0
18:42:30.476,-0.28,-0.035
18:42:30.480,-0.28,-0.05
18:42:30.484,-0.255,-0.065
18:42:30.488,-0.255,-0.06
18:42:30.492,-0.23,-0.07
18:42:30.496,-0.2,-0.07
18:42:30.500,-0.14,-0.07
18:42:30.504,-0.065,-0.09
18:42:30.508,-0.015,-0.125
18:42:30.512,0.07,-0.165
18:42:30.516,0.1,-0.23
18:42:30.520,0.14,-0.37
18:42:30.524,0.13,-0.44
18:42:30.528,0.165,-0.545
18:42:30.532,0.12,-0.72
18:42:30.536,0.125,-0.915
18:42:30.540,0.285,-1.155
18:42:30.544,0.57,-1.45
18:42:30.548,0.855,-1.75
18:42:30.552,0.97,-1.995
18:42:30.556,0.8,-2.095
18:42:30.560,0.33,-1.915
18:42:30.564,-0.125,-1.435
18:42:30.568,-0.39,-0.935
18:42:30.572,-0.5,-0.63
18:42:30.576,-0.545,-0.445
18:42:30.580,-0.57,-0.275
18:42:30.584,-0.575,-0.13
18:42:30.588,-0.595,-0.025
18:42:30.592,-0.6,0.035
18:42:30.596,-0.625,0.065
18:42:30.600,-0.62,0.095
18:42:30.604,-0.61,0.11
18:42:30.608,-0.605,0.13
18:42:30.612,-0.6,0.15
18:42:30.616,-0.6,0.13
18:42:30.620,-0.58,0.13
18:42:30.624,-0.56,0.15
18:42:30.628,-0.55,0.155
18:42:30.632,-0.53,0.15
18:42:30.636,-0.52,0.15
18:42:30.640,-0.495,0.14
18:42:30.644,-0.47,0.165
18:42:30.648,-0.455,0.15
18:42:30.652,-0.445,0.175
18:42:30.656,-0.475,0.18
18:42:30.660,-0.475,0.185
18:42:30.664,-0.465,0.185
18:42:30.668,-0.47,0.205
18:42:30.672,-0.49,0.205
18:42:30.676,-0.495,0.225
18:42:30.680,-0.475,0.19
18:42:30.684,-0.47,0.19
18:42:30.688,-0.475,0.17
18:42:30.692,-0.485,0.155
18:42:30.696,-0.48,0.15
18:42:30.700,-0.495,0.155
18:42:30.704,-0.465,0.18
18:42:30.708,-0.46,0.155
18:42:30.712,-0.47,0.175
18:42:30.716,-0.48,0.165
18:42:30.720,-0.485,0.17
18:42:30.724,-0.51,0.14
18:42:30.728,-0.495,0.155
18:42:30.732,-0.475,0.135
18:42:30.736,-0.465,0.14
18:42:30.740,-0.465,0.12
18:42:30.744,-0.465,0.1
18:42:30.748,-0.48,0.095
18:42:30.752,-0.45,0.075
18:42:30.756,-0.445,0.08
18:42:30.760,-0.45,0.07
18:42:30.764,-0.45,0.065
18:42:30.768,-0.465,0.035
18:42:30.772,-0.5,0.035
18:42:30.776,-0.475,0.01
18:42:30.780,-0.475,0.0
18:42:30.784,-0.44,-0.02
18:42:30.788,-0.46,-0.04
18:42:30.792,-0.475,-0.045
18:42:30.796,-0.47,-0.075
18:42:30.800,-0.46,-0.105
18:42:30.804,-0.445,-0.095
18:42:30.808,-0.415,-0.095
18:42:30.812,-0.395,-0.1
18:42:30.816,-0.4,-0.105
18:42:30.820,-0.4,-0.105
18:42:30.824,-0.39,-0.085
18:42:30.828,-0.38,-0.09
18:42:30.832,-0.39,-0.08
18:42:30.836,-0.38,-0.095
18:42:30.840,-0.365,-0.105
18:42:30.844,-0.35,-0.09
18:42:30.848,-0.335,-0.085
18:42:30.852,-0.33,-0.06
18:42:30.856,-0.355,-0.04
18:42:30.860,-0.37,-0.055
18:42:30.864,-0.38,-0.045
18:42:30.868,-0.38,-0.015
18:42:30.872,-0.37,-0.015
18:42:30.876,-0.4,0.005
18:42:30.880,-0.425,0.0
18:42:30.884,-0.445,-0.025
18:42:30.888,-0.44,-0.055
18:42:30.892,-0.465,-0.08
18:42:30.896,-0.465,-0.1
18:42:30.900,-0.445,-0.1
18:42:30.904,-0.44,-0.105
18:42:30.908,-0.39,-0.125
18:42:30.912,-0.395,-0.12
18:42:30.916,-0.395,-0.11
18:42:30.920,-0.41,-0.125
18:42:30.924,-0.4,-0.115
18:42:30.928,-0.405,-0.115
18:42:30.932,-0.41,-0.1
18:42:30.936,-0.42,-0.085
18:42:30.940,-0.425,-0.09
18:42:30.944,-0.4,-0.1
18:42:30.948,-0.405,-0.095
18:42:30.952,-0.415,-0.1
18:42:30.956,-0.435,-0.08
18:42:30.960,-0.455,-0.08
18:42:30.964,-0.46,-0.1
18:42:30.968,-0.435,-0.09
18:42:30.972,-0.44,-0.09
18:42:30.976,-0.435,-0.12
18:42:30.980,-0.445,-0.11
18:42:30.984,-0.44,-0.13
18:42:30.988,-0.385,-0.115
18:42:30.992,-0.35,-0.12
18:42:30.996,-0.27,-0.12
18:42:31.000,-0.165,-0.15
18:42:31.004,-0.07,-0.185
18:42:31.008,-0.005,-0.225
18:42:31.012,0.03,-0.31
18:42:31.016,0.1,-0.395
18:42:31.020,0.175,-0.49
18:42:31.024,0.175,-0.625
18:42:31.028,0.175,-0.78
18:42:31.032,0.25,-0.985
18:42:31.036,0.47,-1.205
18:42:31.040,0.795,-1.47
18:42:31.044,1.015,-1.72
18:42:31.048,0.99,-1.88
18:42:31.052,0.65,-1.84
18:42:31.056,0.185,-1.545
18:42:31.060,-0.175,-1.11
18:42:31.064,-0.325,-0.71
18:42:31.068,-0.36,-0.52
18:42:31.072,-0.39,-0.35
18:42:31.076,-0.405,-0.175
18:42:31.080,-0.43,-0.04
18:42:31.084,-0.5,0.07
18:42:31.088,-0.525,0.15
18:42:31.092,-0.575,0.185
18:42:31.096,-0.57,0.19
18:42:31.100,-0.595,0.185
18:42:31.104,-0.615,0.155
18:42:31.108,-0.625,0.095
18:42:31.112,-0.635,0.07
18:42:31.116,-0.645,0.045
18:42:31.120,-0.65,0.065
18:42:31.124,-0.63,0.04
18:42:31.128,-0.62,0.055
18:42:31.132,-0.635,0.04
18:42:31.136,-0.63,0.05
18:42:31.140,-0.625,0.06
18:42:31.144,-0.64,0.06
18:42:31.148,-0.63,0.085
18:42:31.152,-0.625,0.07
18:42:31.156,-0.605,0.105
18:42:31.160,-0.6,0.1
18:42:31.164,-0.615,0.1
18:42:31.168,-0.615,0.145
18:42:31.172,-0.605,0.145
18:42:31.176,-0.625,0.15
18:42:31.180,-0.625,0.17
18:42:31.184,-0.63,0.16
18:42:31.188,-0.62,0.185
18:42:31.192,-0.64,0.19
18:42:31.196,-0.655,0.21
18:42:31.200,-0.625,0.22
18:42:31.204,-0.64,0.225
18:42:31.208,-0.66,0.235
18:42:31.212,-0.63,0.205
18:42:31.216,-0.605,0.21
18:42:31.220,-0.57,0.21
18:42:31.224,-0.57,0.185
18:42:31.228,-0.575,0.185
18:42:31.232,-0.56,0.165
18:42:31.236,-0.575,0.175
18:42:31.240,-0.54,0.17
18:42:31.244,-0.555,0.165
18:42:31.248,-0.53,0.145
18:42:31.252,-0.535,0.145
18:42:31.256,-0.515,0.14
18:42:31.260,-0.525,0.125
18:42:31.264,-0.49,0.1
18:42:31.268,-0.485,0.095
18:42:31.272,-0.47,0.09
18:42:31.276,-0.42,0.075
18:42:31.280,-0.38,0.06
18:42:31.284,-0.39,0.035
18:42:31.288,-0.37,0.04
18:42:31.292,-0.355,0.055
18:42:31.296,-0.34,0.065
18:42:31.300,-0.3,0.055
18:42:31.304,-0.305,0.06
18:42:31.308,-0.32,0.05
18:42:31.312,-0.335,0.07
18:42:31.316,-0.33,0.045
18:42:31.320,-0.315,0.035
18:42:31.324,-0.33,0.025
18:42:31.328,-0.34,-0.005
18:42:31.332,-0.35,-0.03
18:42:31.336,-0.355,-0.08
18:42:31.340,-0.37,-0.105
18:42:31.344,-0.35,-0.135
18:42:31.348,-0.365,-0.13
18:42:31.352,-0.36,-0.12
18:42:31.356,-0.34,-0.12
18:42:31.360,-0.36,-0.105
18:42:31.364,-0.34,-0.1
18:42:31.368,-0.37,-0.095
18:42:31.372,-0.37,-0.085
18:42:31.376,-0.37,-0.065
18:42:31.380,-0.32,-0.075
18:42:31.384,-0.27,-0.07
18:42:31.388,-0.18,-0.05
18:42:31.392,-0.11,-0.08
18:42:31.396,-0.05,-0.125
18:42:31.400,-0.005,-0.16
18:42:31.404,0.015,-0.25
18:42:31.408,0.02,-0.32
18:42:31.412,0.01,-0.445
18:42:31.416,0.01,-0.595
18:42:31.420,0.085,-0.81
18:42:31.424,0.31,-1.09
18:42:31.428,0.635,-1.35
18:42:31.432,0.95,-1.67
18:42:31.436,1.12,-1.93
18:42:31.440,1.005,-2.015
18:42:31.444,0.61,-1.865
18:42:31.448,0.09,-1.415
18:42:31.452,-0.305,-0.955
18:42:31.456,-0.445,-0.64
18:42:31.460,-0.48,-0.465
18:42:31.464,-0.515,-0.31
18:42:31.468,-0.505,-0.155
18:42:31.472,-0.505,-0.05
18:42:31.476,-0.5,0.025
18:42:31.480,-0.525,0.055
18:42:31.484,-0.505,0.095
18:42:31.488,-0.505,0.095
18:42:31.492,-0.525,0.125
18:42:31.496,-0.535,0.14
18:42:31.500,-0.545,0.155
18:42:31.504,-0.56,0.195
18:42:31.508,-0.565,0.175
18:42:31.512,-0.55,0.215
18:42:31.516,-0.57,0.23
18:42:31.520,-0.555,0.23
18:42:31.524,-0.565,0.21
18:42:31.528,-0.59,0.2
18:42:31.532,-0.59,0.225
18:42:31.536,-0.6,0.215
18:42:31.540,-0.575,0.185
18:42:31.544,-0.55,0.16
18:42:31.548,-0.535,0.14
18:42:31.552,-0.535,0.115
18:42:31.556,-0.525,0.11
18:42:31.560,-0.51,0.1
18:42:31.564,-0.545,0.13
18:42:31.568,-0.545,0.14
18:42:31.572,-0.565,0.135
18:42:31.576,-0.575,0.13
18:42:31.580,-0.56,0.115
18:42:31.584,-0.59,0.125
18:42:31.588,-0.57,0.155
18:42:31.592,-0.57,0.135
18:42:31.596,-0.56,0.13
18:42:31.600,-0.57,0.12
18:42:31.604,-0.56,0.14
18:42:31.608,-0.54,0.15
18:42:31.612,-0.54,0.125
18:42:31.616,-0.55,0.13
18:42:31.620,-0.54,0.115
18:42:31.624,-0.515,0.115
18:42:31.628,-0.515,0.135
18:42:31.632,-0.505,0.095
18:42:31.636,-0.48,0.105
18:42:31.640,-0.475,0.065
18:42:31.644,-0.47,0.07
18:42:31.648,-0.445,0.065
18:42:31.652,-0.43,0.06
18:42:31.656,-0.435,0.065
18:42:31.660,-0.425,0.03
18:42:31.664,-0.405,0.02
18:42:31.668,-0.405,0.015
18:42:31.672,-0.415,0.0
18:42:31.676,-0.41,-0.02
18:42:31.680,-0.4,-0.01
18:42:31.684,-0.385,0.0
18:42:31.688,-0.37,-0.005
18:42:31.692,-0.355,-0.005
18:42:31.696,-0.325,-0.005
18:42:31.700,-0.32,-0.005
18:42:31.704,-0.315,-0.02
18:42:31.708,-0.31,0.005
18:42:31.712,-0.32,-0.015
18:42:31.716,-0.31,0.0
18:42:31.720,-0.31,-0.015
18:42:31.724,-0.35,-0.02
18:42:31.728,-0.365,-0.02
18:42:31.732,-0.375,0.005
18:42:31.736,-0.375,0.02
18:42:31.740,-0.395,0.035
18:42:31.744,-0.42,0.09
18:42:31.748,-0.46,0.105
18:42:31.752,-0.445,0.07
18:42:31.756,-0.43,0.115
18:42:31.760,-0.445,0.1
18:42:31.764,-0.43,0.095
18:42:31.768,-0.405,0.05
18:42:31.772,-0.415,0.04
18:42:31.776,-0.425,0.025
18:42:31.780,-0.405,0.01
18:42:31.784,-0.38,0.005
18:42:31.788,-0.39,-0.005
18:42:31.792,-0.375,-0.03
18:42:31.796,-0.345,-0.055
18:42:31.800,-0.35,-0.05
18:42:31.804,-0.37,-0.09
18:42:31.808,-0.39,-0.1
18:42:31.812,-0.405,-0.115
18:42:31.816,-0.41,-0.105
18:42:31.820,-0.39,-0.11
18:42:31.824,-0.41,-0.14
18:42:31.828,-0.41,-0.115
18:42:31.832,-0.415,-0.115
18:42:31.836,-0.405,-0.13
18:42:31.840,-0.42,-0.115
18:42:31.844,-0.41,-0.13
18:42:31.848,-0.425,-0.115
18:42:31.852,-0.435,-0.12
18:42:31.856,-0.435,-0.115
18:42:31.860,-0.41,-0.095
18:42:31.864,-0.41,-0.11
18:42:31.868,-0.41,-0.11
18:42:31.872,-0.425,-0.1
18:42:31.876,-0.42,-0.09
18:42:31.880,-0.425,-0.105
18:42:31.884,-0.41,-0.1
18:42:31.888,-0.41,-0.09
18:42:31.892,-0.395,-0.075
18:42:31.896,-0.36,-0.075
18:42:31.900,-0.3,-0.09
18:42:31.904,-0.26,-0.09
18:42:31.908,-0.145,-0.08
18:42:31.912,-0.05,-0.135
18:42:31.916,0.0,-0.19
18:42:31.920,0.085,-0.265
18:42:31.924,0.135,-0.345
18:42:31.928,0.18,-0.45
18:42:31.932,0.19,-0.585
18:42:31.936,0.195,-0.75
18:42:31.940,0.24,-0.965
18:42:31.944,0.46,-1.23
18:42:31.948,0.78,-1.51
18:42:31.952,1.04,-1.765
18:42:31.956,1.075,-1.965
18:42:31.960,0.77,-1.975
18:42:31.964,0.225,-1.705
18:42:31.968,-0.24,-1.205
18:42:31.972,-0.49,-0.76
18:42:31.976,-0.6,-0.485
18:42:31.980,-0.635,-0.335
18:42:31.984,-0.625,-0.23
18:42:31.988,-0.645,-0.08
18:42:31.992,-0.655,0.0
18:42:31.996,-0.655,0.075
18:42:32.000,-0.63,0.1
18:42:32.004,-0.615,0.115
18:42:32.008,-0.6,0.115
18:42:32.012,-0.575,0.115
18:42:32.016,-0.56,0.125
18:42:32.020,-0.51,0.13
18:42:32.024,-0.53,0.14
18:42:32.028,-0.54,0.135
18:42:32.032,-0.525,0.13
18:42:32.036,-0.555,0.105
18:42:32.040,-0.56,0.095
18:42:32.044,-0.585,0.1
18:42:32.048,-0.585,0.105
18:42:32.052,-0.6,0.1
18:42:32.056,-0.6,0.105
18:42:32.060,-0.6,0.1
18:42:32.064,-0.605,0.1
18:42:32.068,-0.62,0.12
18:42:32.072,-0.62,0.12
18:42:32.076,-0.6,0.145
18:42:32.080,-0.605,0.125
18:42:32.084,-0.61,0.145
18:42:32.088,-0.61,0.13
18:42:32.092,-0.6,0.165
18:42:32.096,-0.6,0.165
18:42:32.100,-0.59,0.165
18:42:32.104,-0.58,0.15
18:42:32.108,-0.595,0.18
18:42:32.112,-0.56,0.165
18:42:32.116,-0.565,0.16
18:42:32.120,-0.555,0.165
18:42:32.124,-0.565,0.185
18:42:32.128,-0.535,0.21
18:42:32.132,-0.54,0.22
18:42:32.136,-0.535,0.21
18:42:32.140,-0.515,0.21
18:42:32.144,-0.48,0.22
18:42:32.148,-0.48,0.22
18:42:32.152,-0.45,0.23
18:42:32.156,-0.46,0.23
18:42:32.160,-0.43,0.195
18:42:32.164,-0.415,0.2
18:42:32.168,-0.405,0.185
18:42:32.172,-0.415,0.165
18:42:32.176,-0.415,0.18
18:42:32.180,-0.465,0.19
18:42:32.184,-0.475,0.18
18:42:32.188,-0.51,0.15
18:42:32.192,-0.53,0.15
18:42:32.196,-0.55,0.155
18:42:32.200,-0.56,0.16
18:42:32.204,-0.54,0.13
18:42:32.208,-0.51,0.095
18:42:32.212,-0.52,0.06
18:42:32.216,-0.49,0.045
18:42:32.220,-0.48,0.04
18:42:32.224,-0.48,0.025
18:42:32.228,-0.47,0.005
18:42:32.232,-0.465,0.015
18:42:32.236,-0.465,0.02
18:42:32.240,-0.445,-0.01
18:42:32.244,-0.415,-0.005
18:42:32.248,-0.41,-0.01
18:42:32.252,-0.405,-0.035
18:42:32.256,-0.405,-0.055
18:42:32.260,-0.405,-0.08
18:42:32.264,-0.39,-0.07
18:42:32.268,-0.36,-0.04
18:42:32.272,-0.36,-0.05
18:42:32.276,-0.335,-0.035
18:42:32.280,-0.34,-0.03
18:42:32.284,-0.36,-0.015
18:42:32.288,-0.345,-0.02
18:42:32.292,-0.345,0.01
18:42:32.296,-0.37,0.035
18:42:32.300,-0.38,0.02
18:42:32.304,-0.39,0.05
18:42:32.308,-0.39,0.035
18:42:32.312,-0.4,0.045
18:42:32.316,-0.4,0.025
18:42:32.320,-0.4,0.03
18:42:32.324,-0.38,0.035
18:42:32.328,-0.39,0.04
18:42:32.332,-0.41,0.03
18:42:32.336,-0.415,0.01
18:42:32.340,-0.425,0.01
18:42:32.344,-0.415,0.0
18:42:32.348,-0.405,0.005
18:42:32.352,-0.4,0.02
18:42:32.356,-0.405,0.02
18:42:32.360,-0.405,0.005
18:42:32.364,-0.415,0.035
18:42:32.368,-0.38,0.01
18:42:32.372,-0.36,0.015
18:42:32.376,-0.38,0.02
18:42:32.380,-0.355,0.015
18:42:32.384,-0.365,0.035
18:42:32.388,-0.34,0.02
18:42:32.392,-0.33,0.04
18:42:32.396,-0.33,0.04
18:42:32.400,-0.305,0.06
18:42:32.404,-0.295,0.03
18:42:32.408,-0.29,0.055
18:42:32.412,-0.295,0.055
18:42:32.416,-0.31,0.075
18:42:32.420,-0.305,0.085
18:42:32.424,-0.285,0.09
18:42:32.428,-0.275,0.095
18:42:32.432,-0.225,0.09
18:42:32.436,-0.15,0.045
18:42:32.440,-0.09,-0.02
18:42:32.444,-0.04,-0.115
18:42:32.448,-0.01,-0.25
18:42:32.452,-0.01,-0.37
18:42:32.456,-0.005,-0.55
18:42:32.460,0.0,-0.75
18:42:32.464,0.115,-1.025
18:42:32.468,0.38,-1.32
18:42:32.472,0.73,-1.65
18:42:32.476,0.99,-1.92
18:42:32.480,0.99,-2.125
18:42:32.484,0.675,-2.12
18:42:32.488,0.16,-1.78
18:42:32.492,-0.215,-1.235
18:42:32.496,-0.39,-0.815
18:42:32.500,-0.44,-0.585
18:42:32.504,-0.45,-0.405
18:42:32.508,-0.435,-0.215
18:42:32.512,-0.43,-0.08
18:42:32.516,-0.465,0.0
18:42:32.520,-0.46,0.06
18:42:32.524,-0.475,0.11
18:42:32.528,-0.475,0.14
18:42:32.532,-0.475,0.145
18:42:32.536,-0.5,0.16
18:42:32.540,-0.485,0.175
18:42:32.544,-0.5,0.17
18:42:32.548,-0.505,0.175
18:42:32.552,-0.51,0.17
18:42:32.556,-0.52,0.17
18:42:32.560,-0.525,0.195
18:42:32.564,-0.53,0.19
18:42:32.568,-0.545,0.185
18:42:32.572,-0.545,0.2
18:42:32.576,-0.56,0.185
18:42:32.580,-0.56,0.18
18:42:32.584,-0.565,0.215
18:42:32.588,-0.545,0.195
18:42:32.592,-0.535,0.215
18:42:32.596,-0.53,0.21
18:42:32.600,-0.5,0.24
18:42:32.604,-0.5,0.235
18:42:32.608,-0.49,0.23
18:42:32.612,-0.51,0.255
18:42:32.616,-0.475,0.255
18:42:32.620,-0.46,0.26
18:42:32.624,-0.455,0.27
18:42:32.628,-0.43,0.275
18:42:32.632,-0.425,0.28
18:42:32.636,-0.43,0.3
18:42:32.640,-0.415,0.315
18:42:32.644,-0.45,0.29
18:42:32.648,-0.475,0.275
18:42:32.652,-0.495,0.27
18:42:32.656,-0.505,0.24
18:42:32.660,-0.51,0.255
18:42:32.664,-0.49,0.205
18:42:32.668,-0.49,0.18
18:42:32.672,-0.495,0.18
18:42:32.676,-0.48,0.165
18:42:32.680,-0.49,0.135
18:42:32.684,-0.48,0.095
18:42:32.688,-0.48,0.085
18:42:32.692,-0.465,0.04
18:42:32.696,-0.45,0.035
18:42:32.700,-0.43,0.02
18:42:32.704,-0.445,-0.025
18:42:32.708,-0.405,-0.035
18:42:32.712,-0.42,-0.045
18:42:32.716,-0.39,-0.025
18:42:32.720,-0.385,-0.05
18:42:32.724,-0.37,-0.06
18:42:32.728,-0.35,-0.045
18:42:32.732,-0.345,-0.04
18:42:32.736,-0.33,-0.06
18:42:32.740,-0.3,-0.04
18:42:32.744,-0.29,-0.05
18:42:32.748,-0.3,-0.02
18:42:32.752,-0.31,-0.045
18:42:32.756,-0.295,-0.01
18:42:32.760,-0.315,-0.01
18:42:32.764,-0.3,-0.015
18:42:32.768,-0.315,0.0
18:42:32.772,-0.295,0.015
18:42:32.776,-0.31,0.005
18:42:32.780,-0.31,0.015
18:42:32.784,-0.33,-0.005
18:42:32.788,-0.345,0.005
18:42:32.792,-0.375,0.005
18:42:32.796,-0.355,0.0
18:42:32.800,-0.385,0.01
18:42:32.804,-0.36,0.0
18:42:32.808,-0.4,0.0
18:42:32.812,-0.4,-0.025
18:42:32.816,-0.395,-0.035
18:42:32.820,-0.385,-0.035
18:42:32.824,-0.37,-0.035
18:42:32.828,-0.355,-0.045
18:42:32.832,-0.365,-0.03
18:42:32.836,-0.36,-0.035
18:42:32.840,-0.37,-0.02
18:42:32.844,-0.365,-0.01
18:42:32.848,-0.37,0.01
18:42:32.852,-0.365,0.005
18:42:32.856,-0.345,0.015
18:42:32.860,-0.32,0.0
18:42:32.864,-0.295,0.015
18:42:32.868,-0.25,0.015
18:42:32.872,-0.18,0.0
18:42:32.876,-0.11,-0.06
18:42:32.880,-0.065,-0.085
18:42:32.884,-0.01,-0.175
18:42:32.888,0.03,-0.285
18:42:32.892,0.06,-0.355
18:42:32.896,0.11,-0.49
18:42:32.900,0.11,-0.63
18:42:32.904,0.15,-0.815
18:42:32.908,0.32,-1.06
18:42:32.912,0.655,-1.33
18:42:32.916,0.915,-1.635
18:42:32.920,0.99,-1.885
18:42:32.924,0.765,-1.97
18:42:32.928,0.295,-1.76
18:42:32.932,-0.125,-1.3
18:42:32.936,-0.395,-0.885
18:42:32.940,-0.475,-0.64
18:42:32.944,-0.51,-0.475
18:42:32.948,-0.51,-0.32
18:42:32.952,-0.525,-0.15
18:42:32.956,-0.54,-0.075
18:42:32.960,-0.565,-0.005
18:42:32.964,-0.565,0.015
18:42:32.968,-0.57,0.01
18:42:32.972,-0.56,0.03
18:42:32.976,-0.545,0.045
18:42:32.980,-0.55,0.07
18:42:32.984,-0.525,0.075
18:42:32.988,-0.515,0.11
18:42:32.992,-0.505,0.1
18:42:32.996,-0.49,0.1
18:42:33.000,-0.49,0.11
18:42:33.004,-0.495,0.12
18:42:33.008,-0.49,0.155
18:42:33.012,-0.5,0.155
18:42:33.016,-0.505,0.16
18:42:33.020,-0.525,0.135
18:42:33.024,-0.515,0.115
18:42:33.028,-0.525,0.09
18:42:33.032,-0.56,0.075
18:42:33.036,-0.56,0.05
18:42:33.040,-0.58,0.055
18:42:33.044,-0.56,0.055
18:42:33.048,-0.58,0.03
18:42:33.052,-0.575,0.06
18:42:33.056,-0.52,0.04
18:42:33.060,-0.52,0.06
18:42:33.064,-0.515,0.08
18:42:33.068,-0.52,0.1
18:42:33.072,-0.54,0.115
18:42:33.076,-0.545,0.135
18:42:33.080,-0.57,0.145
18:42:33.084,-0.59,0.17
18:42:33.088,-0.58,0.155
18:42:33.092,-0.57,0.135
18:42:33.096,-0.54,0.15
18:42:33.100,-0.55,0.125
18:42:33.104,-0.53,0.105
18:42:33.108,-0.54,0.11
18:42:33.112,-0.53,0.105
18:42:33.116,-0.525,0.095
18:42:33.120,-0.53,0.085
18:42:33.124,-0.52,0.07
18:42:33.128,-0.495,0.035
18:42:33.132,-0.5,0.045
18:42:33.136,-0.49,0.01
18:42:33.140,-0.475,0.0
18:42:33.144,-0.455,-0.015
18:42:33.148,-0.45,-0.02
18:42:33.152,-0.46,-0.035
18:42:33.156,-0.445,-0.06
18:42:33.160,-0.45,-0.065
18:42:33.164,-0.44,-0.045
18:42:33.168,-0.445,-0.07
18:42:33.172,-0.45,-0.07
18:42:33.176,-0.44,-0.1
18:42:33.180,-0.44,-0.12
18:42:33.184,-0.4,-0.115
18:42:33.188,-0.37,-0.125
18:42:33.192,-0.34,-0.125
18:42:33.196,-0.33,-0.12
18:42:33.200,-0.325,-0.11
18:42:33.204,-0.325,-0.08
18:42:33.208,-0.32,-0.07
18:42:33.212,-0.325,-0.08
18:42:33.216,-0.31,-0.06
18:42:33.220,-0.315,-0.05
18:42:33.224,-0.315,-0.045
18:42:33.228,-0.29,-0.045
18:42:33.232,-0.28,-0.07
18:42:33.236,-0.23,-0.065
18:42:33.240,-0.245,-0.04
18:42:33.244,-0.235,-0.03
18:42:33.248,-0.205,-0.04
18:42:33.252,-0.15,-0.06
18:42:33.256,-0.085,-0.02
18:42:33.260,-0.005,-0.02
18:42:33.264,0.055,-0.04
18:42:33.268,0.12,-0.075
18:42:33.272,0.18,-0.17
18:42:33.276,0.19,-0.25
18:42:33.280,0.22,-0.355
18:42:33.284,0.22,-0.475
18:42:33.288,0.2,-0.65
18:42:33.292,0.255,-0.88
18:42:33.296,0.46,-1.14
18:42:33.300,0.79,-1.44
18:42:33.304,1.065,-1.72
18:42:33.308,1.165,-1.955
18:42:33.312,0.98,-2.04
18:42:33.316,0.525,-1.845
18:42:33.320,0.06,-1.375
18:42:33.324,-0.225,-0.91
18:42:33.328,-0.37,-0.64
18:42:33.332,-0.42,-0.5
18:42:33.336,-0.445,-0.33
18:42:33.340,-0.49,-0.18
18:42:33.344,-0.51,-0.085
18:42:33.348,-0.535,-0.03
18:42:33.352,-0.52,0.025
18:42:33.356,-0.53,0.03
18:42:33.360,-0.52,0.04
18:42:33.364,-0.515,0.05
18:42:33.368,-0.545,0.06
18:42:33.372,-0.525,0.09
18:42:33.376,-0.53,0.1
18:42:33.380,-0.525,0.085
18:42:33.384,-0.525,0.105
18:42:33.388,-0.52,0.11
18:42:33.392,-0.55,0.105
18:42:33.396,-0.54,0.125
18:42:33.400,-0.565,0.095
18:42:33.404,-0.535,0.11
18:42:33.408,-0.535,0.12
18:42:33.412,-0.565,0.13
18:42:33.416,-0.55,0.105
18:42:33.420,-0.56,0.14
18:42:33.424,-0.56,0.145
18:42:33.428,-0.555,0.165
18:42:33.432,-0.55,0.155
18:42:33.436,-0.54,0.165
18:42:33.440,-0.525,0.165
18:42:33.444,-0.54,0.16
18:42:33.448,-0.52,0.155
18:42:33.452,-0.515,0.18
18:42:33.456,-0.505,0.18
18:42:33.460,-0.465,0.22
18:42:33.464,-0.42,0.215
18:42:33.468,-0.4,0.21
18:42:33.472,-0.38,0.22
18:42:33.476,-0.375,0.235
18:42:33.480,-0.35,0.225
18:42:33.484,-0.33,0.205
18:42:33.488,-0.32,0.195
18:42:33.492,-0.32,0.17
18:42:33.496,-0.335,0.155
18:42:33.500,-0.325,0.135
18:42:33.504,-0.345,0.11
18:42:33.508,-0.33,0.1
18:42:33.512,-0.34,0.05
18:42:33.516,-0.305,0.025
18:42:33.520,-0.33,0.02
18:42:33.524,-0.315,-0.03
18:42:33.528,-0.31,-0.025
18:42:33.532,-0.34,-0.035
18:42:33.536,-0.31,-0.045
18:42:33.540,-0.35,-0.06
18:42:33.544,-0.36,-0.095
18:42:33.548,-0.34,-0.085
18:42:33.552,-0.34,-0.08
18:42:33.556,-0.33,-0.06
18:42:33.560,-0.3,-0.085
18:42:33.564,-0.305,-0.09
18:42:33.568,-0.29,-0.075
18:42:33.572,-0.315,-0.08
18:42:33.576,-0.3,-0.105
18:42:33.580,-0.285,-0.08
18:42:33.584,-0.3,-0.06
18:42:33.588,-0.295,-0.055
18:42:33.592,-0.28,-0.05
18:42:33.596,-0.28,-0.08
18:42:33.600,-0.26,-0.07
18:42:33.604,-0.265,-0.06
18:42:33.608,-0.275,-0.07
18:42:33.612,-0.255,-0.055
18:42:33.616,-0.25,-0.06
18:42:33.620,-0.23,-0.08
18:42:33.624,-0.18,-0.055
18:42:33.628,-0.12,-0.045
18:42:33.632,-0.05,-0.07
18:42:33.636,-0.005,-0.1
18:42:33.640,0.03,-0.145
18:42:33.644,0.035,-0.205
18:42:33.648,0.05,-0.3
18:42:33.652,0.02,-0.38
18:42:33.656,0.01,-0.515
18:42:33.660,0.055,-0.72
18:42:33.664,0.21,-0.94
18:42:33.668,0.51,-1.21
18:42:33.672,0.885,-1.52
18:42:33.676,1.13,-1.8
18:42:33.680,1.195,-1.99
18:42:33.684,0.975,-1.965
18:42:33.688,0.5,-1.64
18:42:33.692,0.035,-1.135
18:42:33.696,-0.185,-0.72
18:42:33.700,-0.285,-0.475
18:42:33.704,-0.305,-0.365
18:42:33.708,-0.33,-0.255
18:42:33.712,-0.355,-0.13
18:42:33.716,-0.385,-0.085
18:42:33.720,-0.395,-0.02
18:42:33.724,-0.395,-0.025
18:42:33.728,-0.41,-0.035
18:42:33.732,-0.405,-0.03
18:42:33.736,-0.4,-0.025
18:42:33.740,-0.4,-0.025
18:42:33.744,-0.425,-0.02
18:42:33.748,-0.425,0.0
18:42:33.752,-0.435,0.01
18:42:33.756,-0.435,0.015
18:42:33.760,-0.455,0.025
18:42:33.764,-0.455,0.065
18:42:33.768,-0.5,0.075
18:42:33.772,-0.5,0.06
18:42:33.776,-0.51,0.055
18:42:33.780,-0.53,0.07
18:42:33.784,-0.535,0.09
18:42:33.788,-0.525,0.125
18:42:33.792,-0.52,0.12
18:42:33.796,-0.535,0.12
18:42:33.800,-0.54,0.13
18:42:33.804,-0.525,0.14
18:42:33.808,-0.51,0.16
18:42:33.812,-0.495,0.175
18:42:33.816,-0.52,0.2
18:42:33.820,-0.5,0.18
18:42:33.824,-0.48,0.18
18:42:33.828,-0.485,0.175
18:42:33.832,-0.47,0.175
18:42:33.836,-0.475,0.18
18:42:33.840,-0.44,0.19
18:42:33.844,-0.43,0.18
18:42:33.848,-0.425,0.185
18:42:33.852,-0.42,0.19
18:42:33.856,-0.39,0.17
18:42:33.860,-0.395,0.18
18:42:33.864,-0.405,0.155
18:42:33.868,-0.38,0.15
18:42:33.872,-0.36,0.13
18:42:33.876,-0.345,0.12
18:42:33.880,-0.33,0.11
18:42:33.884,-0.345,0.09
18:42:33.888,-0.32,0.065
18:42:33.892,-0.295,0.07
18:42:33.896,-0.275,0.07
18:42:33.900,-0.265,0.06
18:42:33.904,-0.265,0.055
18:42:33.908,-0.265,0.055
18:42:33.912,-0.28,0.035
18:42:33.916,-0.29,0.005
18:42:33.920,-0.305,-0.025
18:42:33.924,-0.27,-0.015
18:42:33.928,-0.255,-0.06
18:42:33.932,-0.25,-0.095
18:42:33.936,-0.26,-0.12
18:42:33.940,-0.255,-0.13
18:42:33.944,-0.245,-0.13
18:42:33.948,-0.255,-0.13
18:42:33.952,-0.27,-0.14
18:42:33.956,-0.265,-0.125
18:42:33.960,-0.295,-0.14
18:42:33.964,-0.31,-0.135
18:42:33.968,-0.33,-0.13
18:42:33.972,-0.33,-0.165
18:42:33.976,-0.33,-0.13
18:42:33.980,-0.31,-0.135
18:42:33.984,-0.33,-0.12
18:42:33.988,-0.32,-0.12
18:42:33.992,-0.35,-0.13
18:42:33.996,-0.375,-0.12
18:42:34.000,-0.38,-0.12
18:42:34.004,-0.4,-0.11
18:42:34.008,-0.415,-0.11
18:42:34.012,-0.43,-0.085
18:42:34.016,-0.405,-0.085
18:42:34.020,-0.395,-0.06
18:42:34.024,-0.4,-0.095
18:42:34.028,-0.41,-0.08
18:42:34.032,-0.39,-0.115
18:42:34.036,-0.38,-0.095
18:42:34.040,-0.345,-0.09
18:42:34.044,-0.33,-0.08
18:42:34.048,-0.32,-0.1
18:42:34.052,-0.315,-0.1
18:42:34.056,-0.3,-0.075
18:42:34.060,-0.3,-0.075
18:42:34.064,-0.3,-0.095
18:42:34.068,-0.275,-0.08
18:42:34.072,-0.27,-0.08
18:42:34.076,-0.26,-0.065
18:42:34.080,-0.275,-0.075
18:42:34.084,-0.265,-0.06
18:42:34.088,-0.28,-0.075
18:42:34.092,-0.275,-0.09
18:42:34.096,-0.28,-0.065
18:42:34.100,-0.28,-0.07
18:42:34.104,-0.26,-0.06
18:42:34.108,-0.245,-0.065
18:42:34.112,-0.24,-0.05
18:42:34.116,-0.25,-0.06
18:42:34.120,-0.245,-0.055
18:42:34.124,-0.25,-0.015
18:42:34.128,-0.24,-0.06
18:42:34.132,-0.26,-0.05
18:42:34.136,-0.275,-0.075
18:42:34.140,-0.29,-0.08
18:42:34.144,-0.315,-0.095
18:42:34.148,-0.315,-0.12
18:42:34.152,-0.325,-0.115
18:42:34.156,-0.34,-0.125
18:42:34.160,-0.345,-0.125
18:42:34.164,-0.355,-0.125
18:42:34.168,-0.35,-0.13
18:42:34.172,-0.36,-0.13
18:42:34.176,-0.36,-0.15
18:42:34.180,-0.37,-0.165
18:42:34.184,-0.345,-0.135
18:42:34.188,-0.35,-0.175
18:42:34.192,-0.36,-0.16
18:42:34.196,-0.365,-0.17
18:42:34.200,-0.36,-0.155
18:42:34.204,-0.35,-0.15
18:42:34.208,-0.36,-0.16
18:42:34.212,-0.355,-0.16
18:42:34.216,-0.36,-0.135
18:42:34.220,-0.375,-0.135
18:42:34.224,-0.37,-0.105
18:42:34.228,-0.37,-0.12
18:42:34.232,-0.37,-0.11
18:42:34.236,-0.36,-0.095
18:42:34.240,-0.33,-0.12
18:42:34.244,-0.345,-0.11
18:42:34.248,-0.34,-0.1
18:42:34.252,-0.345,-0.11
18:42:34.256,-0.355,-0.085
18:42:34.260,-0.34,-0.075
18:42:34.264,-0.32,-0.07
18:42:34.268,-0.32,-0.04
18:42:34.272,-0.3,-0.06
18:42:34.276,-0.29,-0.055
18:42:34.280,-0.27,-0.055
18:42:34.284,-0.24,-0.065
18:42:34.288,-0.23,-0.02
18:42:34.292,-0.25,-0.04
18:42:34.296,-0.24,-0.045
18:42:34.300,-0.225,-0.035
18:42:34.304,-0.22,-0.02
18:42:34.308,-0.2,-0.035
18:42:34.312,-0.185,-0.02
18:42:34.316,-0.2,-0.015
18:42:34.320,-0.2,-0.025
18:42:34.324,-0.18,-0.02
18:42:34.328,-0.195,0.0
18:42:34.332,-0.215,-0.005
18:42:34.336,-0.22,0.04
18:42:34.340,-0.235,0.045
18:42:34.344,-0.245,0.035
18:42:34.348,-0.25,0.02
18:42:34.352,-0.25,0.0
18:42:34.356,-0.255,-0.03
18:42:34.360,-0.26,-0.065
18:42:34.364,-0.26,-0.09
18:42:34.368,-0.25,-0.12
18:42:34.372,-0.225,-0.1
18:42:34.376,-0.23,-0.075
18:42:34.380,-0.195,-0.08
18:42:34.384,-0.145,-0.095
18:42:34.388,-0.09,-0.09
18:42:34.392,-0.02,-0.09
18:42:34.396,0.07,-0.13
18:42:34.400,0.125,-0.17
18:42:34.404,0.19,-0.22
18:42:34.408,0.19,-0.305
18:42:34.412,0.22,-0.41
18:42:34.416,0.2,-0.525
18:42:34.420,0.19,-0.68
18:42:34.424,0.195,-0.885
18:42:34.428,0.34,-1.14
18:42:34.432,0.58,-1.39
18:42:34.436,0.9,-1.705
18:42:34.440,1.17,-1.965
18:42:34.444,1.195,-2.095
18:42:34.448,0.925,-2.04
18:42:34.452,0.42,-1.675
18:42:34.456,-0.03,-1.17
18:42:34.460,-0.255,-0.76
18:42:34.464,-0.385,-0.51
18:42:34.468,-0.44,-0.355
18:42:34.472,-0.46,-0.19
18:42:34.476,-0.465,-0.055
18:42:34.480,-0.475,0.02
18:42:34.484,-0.49,0.08
18:42:34.488,-0.465,0.13
18:42:34.492,-0.47,0.145
18:42:34.496,-0.49,0.18
18:42:34.500,-0.495,0.195
18:42:34.504,-0.49,0.19
18:42:34.508,-0.48,0.2
18:42:34.512,-0.46,0.21
18:42:34.516,-0.455,0.215
18:42:34.520,-0.43,0.26
18:42:34.524,-0.41,0.235
18:42:34.528,-0.4,0.26
18:42:34.532,-0.385,0.265
18:42:34.536,-0.38,0.255
18:42:34.540,-0.385,0.215
18:42:34.544,-0.405,0.18
18:42:34.548,-0.395,0.165
18:42:34.552,-0.405,0.17
18:42:34.556,-0.435,0.185
18:42:34.560,-0.415,0.175
18:42:34.564,-0.44,0.165
18:42:34.568,-0.465,0.175
18:42:34.572,-0.49,0.155
18:42:34.576,-0.45,0.13
18:42:34.580,-0.455,0.14
18:42:34.584,-0.45,0.135
18:42:34.588,-0.455,0.15
18:42:34.592,-0.46,0.165
18:42:34.596,-0.45,0.165
18:42:34.600,-0.44,0.175
18:42:34.604,-0.44,0.175
18:42:34.608,-0.425,0.195
18:42:34.612,-0.42,0.19
18:42:34.616,-0.4,0.19
18:42:34.620,-0.39,0.205
18:42:34.624,-0.37,0.18
18:42:34.628,-0.37,0.2
18:42:34.632,-0.355,0.2
18:42:34.636,-0.365,0.215
18:42:34.640,-0.37,0.23
18:42:34.644,-0.34,0.225
18:42:34.648,-0.33,0.185
18:42:34.652,-0.315,0.16
18:42:34.656,-0.32,0.15
18:42:34.660,-0.325,0.205
18:42:34.664,-0.355,0.21
18:42:34.668,-0.355,0.23
18:42:34.672,-0.345,0.175
18:42:34.676,-0.35,0.14
18:42:34.680,-0.34,0.12
18:42:34.684,-0.355,0.085
18:42:34.688,-0.32,0.06
18:42:34.692,-0.315,0.07
18:42:34.696,-0.29,0.055
18:42:34.700,-0.3,0.065
18:42:34.704,-0.275,0.02
18:42:34.708,-0.245,0.01
18:42:34.712,-0.22,0.01
18:42:34.716,-0.21,-0.025
18:42:34.720,-0.21,-0.035
18:42:34.724,-0.18,-0.03
18:42:34.728,-0.16,-0.025
18:42:34.732,-0.155,-0.01
18:42:34.736,-0.13,-0.005
18:42:34.740,-0.13,-0.015
18:42:34.744,-0.13,-0.055
18:42:34.748,-0.12,-0.04
18:42:34.752,-0.125,-0.03
18:42:34.756,-0.12,-0.035
18:42:34.760,-0.155,-0.01
18:42:34.764,-0.175,-0.01
18:42:34.768,-0.215,0.025
18:42:34.772,-0.205,0.03
18:42:34.776,-0.22,0.095
18:42:34.780,-0.235,0.095
18:42:34.784,-0.25,0.06
18:42:34.788,-0.29,0.015
18:42:34.792,-0.295,-0.005
18:42:34.796,-0.285,0.005
18:42:34.800,-0.285,0.03
18:42:34.804,-0.29,0.0
18:42:34.808,-0.295,0.005
18:42:34.812,-0.3,-0.025
18:42:34.816,-0.31,-0.01
18:42:34.820,-0.305,-0.005
18:42:34.824,-0.32,0.01
18:42:34.828,-0.36,-0.01
18:42:34.832,-0.34,-0.025
18:42:34.836,-0.355,-0.02
18:42:34.840,-0.37,-0.025
18:42:34.844,-0.39,-0.02
18:42:34.848,-0.355,-0.02
18:42:34.852,-0.33,0.02
18:42:34.856,-0.35,0.03
18:42:34.860,-0.355,0.005
18:42:34.864,-0.355,-0.065
18:42:34.868,-0.34,-0.1
18:42:34.872,-0.32,-0.1
18:42:34.876,-0.335,-0.115
18:42:34.880,-0.355,-0.11
18:42:34.884,-0.34,-0.105
18:42:34.888,-0.335,-0.125
18:42:34.892,-0.34,-0.08
18:42:34.896,-0.32,-0.11
18:42:34.900,-0.315,-0.115
18:42:34.904,-0.295,-0.09
18:42:34.908,-0.275,-0.09
18:42:34.912,-0.265,-0.085
18:42:34.916,-0.275,-0.115
18:42:34.920,-0.265,-0.125
18:42:34.924,-0.2,-0.14
18:42:34.928,-0.135,-0.14
18:42:34.932,-0.075,-0.15
18:42:34.936,0.01,-0.175
18:42:34.940,0.095,-0.225
18:42:34.944,0.12,-0.3
18:42:34.948,0.135,-0.37
18:42:34.952,0.19,-0.445
18:42:34.956,0.2,-0.575
18:42:34.960,0.205,-0.735
18:42:34.964,0.29,-0.94
18:42:34.968,0.5,-1.24
18:42:34.972,0.815,-1.575
18:42:34.976,1.09,-1.875
18:42:34.980,1.17,-2.05
18:42:34.984,0.92,-2.085
18:42:34.988,0.44,-1.835
18:42:34.992,0.005,-1.345
18:42:34.996,-0.245,-0.885
18:42:35.000,-0.345,-0.585
18:42:35.004,-0.395,-0.395
18:42:35.008,-0.4,-0.215
18:42:35.012,-0.41,-0.07
18:42:35.016,-0.43,0.02
18:42:35.020,-0.47,0.11
18:42:35.024,-0.47,0.115
18:42:35.028,-0.48,0.15
18:42:35.032,-0.5,0.12
18:42:35.036,-0.505,0.1
18:42:35.040,-0.51,0.1
18:42:35.044,-0.505,0.085
18:42:35.048,-0.515,0.095
18:42:35.052,-0.5,0.105
18:42:35.056,-0.52,0.11
18:42:35.060,-0.505,0.085
18:42:35.064,-0.495,0.11
18:42:35.068,-0.505,0.105
18:42:35.072,-0.515,0.15
18:42:35.076,-0.525,0.21
18:42:35.080,-0.54,0.175
18:42:35.084,-0.525,0.13
18:42:35.088,-0.545,0.03
18:42:35.092,-0.57,0.025
18:42:35.096,-0.575,0.03
18:42:35.100,-0.56,0.06
18:42:35.104,-0.555,0.07
18:42:35.108,-0.53,0.09
18:42:35.112,-0.55,0.085
18:42:35.116,-0.545,0.055
18:42:35.120,-0.52,0.015
18:42:35.124,-0.485,0.03
18:42:35.128,-0.48,0.11
18:42:35.132,-0.45,0.15
18:42:35.136,-0.44,0.19
18:42:35.140,-0.45,0.155
18:42:35.144,-0.44,0.085
18:42:35.148,-0.465,0.05
18:42:35.152,-0.42,0.055
18:42:35.156,-0.42,0.075
18:42:35.160,-0.42,0.105
18:42:35.164,-0.42,0.11
18:42:35.168,-0.4,0.125
18:42:35.172,-0.375,0.15
18:42:35.176,-0.36,0.12
18:42:35.180,-0.35,0.115
18:42:35.184,-0.32,0.13
18:42:35.188,-0.3,0.135
18:42:35.192,-0.315,0.09
18:42:35.196,-0.335,0.015
18:42:35.200,-0.355,0.0
18:42:35.204,-0.375,0.005
18:42:35.208,-0.34,0.025
18:42:35.212,-0.34,0.03
18:42:35.216,-0.325,0.035
18:42:35.220,-0.315,0.025
18:42:35.224,-0.33,0.005
18:42:35.228,-0.325,0.02
18:42:35.232,-0.3,0.01
18:42:35.236,-0.305,0.01
18:42:35.240,-0.29,0.01
18:42:35.244,-0.3,0.005
18:42:35.248,-0.295,0.0
18:42:35.252,-0.28,0.02
18:42:35.256,-0.275,0.0
18:42:35.260,-0.26,0.015
18:42:35.264,-0.24,0.005
18:42:35.268,-0.255,-0.025
18:42:35.272,-0.3,-0.115
18:42:35.276,-0.315,-0.125
18:42:35.280,-0.345,-0.135
18:42:35.284,-0.37,-0.1
18:42:35.288,-0.355,-0.07
18:42:35.292,-0.345,-0.075
18:42:35.296,-0.35,-0.065
18:42:35.300,-0.365,-0.065
18:42:35.304,-0.36,-0.07
18:42:35.308,-0.39,-0.1
18:42:35.312,-0.395,-0.1
18:42:35.316,-0.415,-0.075
18:42:35.320,-0.44,-0.07
18:42:35.324,-0.44,-0.07
18:42:35.328,-0.405,-0.075
18:42:35.332,-0.4,-0.105
18:42:35.336,-0.41,-0.105
18:42:35.340,-0.41,-0.135
18:42:35.344,-0.395,-0.205
18:42:35.348,-0.355,-0.22
18:42:35.352,-0.345,-0.23
18:42:35.356,-0.315,-0.225
18:42:35.360,-0.295,-0.21
18:42:35.364,-0.32,-0.205
18:42:35.368,-0.34,-0.17
18:42:35.372,-0.355,-0.165
18:42:35.376,-0.37,-0.125
18:42:35.380,-0.335,-0.105
18:42:35.384,-0.35,-0.09
18:42:35.388,-0.32,-0.08
18:42:35.392,-0.315,-0.1
18:42:35.396,-0.31,-0.12
18:42:35.400,-0.29,-0.145
18:42:35.404,-0.25,-0.16
18:42:35.408,-0.225,-0.15
18:42:35.412,-0.225,-0.095
18:42:35.416,-0.23,0.0
18:42:35.420,-0.24,-0.025
18:42:35.424,-0.265,-0.095
18:42:35.428,-0.315,-0.195
18:42:35.432,-0.345,-0.15
18:42:35.436,-0.355,-0.095
18:42:35.440,-0.35,-0.04
18:42:35.444,-0.365,-0.025
18:42:35.448,-0.365,-0.035
18:42:35.452,-0.35,-0.05
18:42:35.456,-0.345,-0.055
18:42:35.460,-0.33,-0.07
18:42:35.464,-0.305,-0.085
18:42:35.468,-0.295,-0.055
18:42:35.472,-0.29,-0.05
18:42:35.476,-0.295,-0.09
18:42:35.480,-0.3,-0.16
18:42:35.484,-0.3,-0.175
18:42:35.488,-0.295,-0.17
18:42:35.492,-0.265,-0.13
18:42:35.496,-0.215,-0.105
18:42:35.500,-0.155,-0.095
18:42:35.504,-0.08,-0.115
18:42:35.508,0.035,-0.14
18:42:35.512,0.12,-0.22
18:42:35.516,0.215,-0.325
18:42:35.520,0.285,-0.4
18:42:35.524,0.32,-0.505
18:42:35.528,0.28,-0.67
18:42:35.532,0.25,-0.865
18:42:35.536,0.335,-1.035
18:42:35.540,0.535,-1.265
18:42:35.544,0.855,-1.565
18:42:35.548,1.085,-1.83
18:42:35.552,1.07,-1.995
18:42:35.556,0.765,-1.985
18:42:35.560,0.26,-1.73
18:42:35.564,-0.18,-1.3
18:42:35.568,-0.35,-0.95
18:42:35.572,-0.41,-0.72
18:42:35.576,-0.395,-0.5
18:42:35.580,-0.375,-0.32
18:42:35.584,-0.375,-0.2
18:42:35.588,-0.405,-0.15
18:42:35.592,-0.41,-0.13
18:42:35.596,-0.415,-0.105
18:42:35.600,-0.42,-0.12
18:42:35.604,-0.425,-0.1
18:42:35.608,-0.41,-0.075
18:42:35.612,-0.41,-0.07
18:42:35.616,-0.42,-0.08
18:42:35.620,-0.405,-0.075
18:42:35.624,-0.37,-0.02
18:42:35.628,-0.345,-0.02
18:42:35.632,-0.32,-0.015
18:42:35.636,-0.305,0.0
18:42:35.640,-0.3,0.03
18:42:35.644,-0.295,0.035
18:42:35.648,-0.315,0.055
18:42:35.652,-0.335,0.06
18:42:35.656,-0.38,0.075
18:42:35.660,-0.37,0.085
18:42:35.664,-0.38,0.1
18:42:35.668,-0.4,0.12
18:42:35.672,-0.42,0.15
18:42:35.676,-0.42,0.145
18:42:35.680,-0.455,0.155
18:42:35.684,-0.475,0.145
18:42:35.688,-0.505,0.135
18:42:35.692,-0.525,0.14
18:42:35.696,-0.57,0.135
18:42:35.700,-0.59,0.155
18:42:35.704,-0.59,0.135
18:42:35.708,-0.595,0.11
18:42:35.712,-0.61,0.145
18:42:35.716,-0.61,0.1
18:42:35.720,-0.59,0.1
18:42:35.724,-0.59,0.13
18:42:35.728,-0.595,0.175
18:42:35.732,-0.555,0.205
18:42:35.736,-0.56,0.185
18:42:35.740,-0.535,0.12
18:42:35.744,-0.545,0.05
18:42:35.748,-0.55,-0.02
18:42:35.752,-0.55,0.0
18:42:35.756,-0.545,0.06
18:42:35.760,-0.505,0.06
18:42:35.764,-0.495,0.04
18:42:35.768,-0.49,0.005
18:42:35.772,-0.495,-0.04
18:42:35.776,-0.505,-0.06
18:42:35.780,-0.49,-0.025
18:42:35.784,-0.47,-0.04
18:42:35.788,-0.435,-0.01
18:42:35.792,-0.405,-0.06
18:42:35.796,-0.38,-0.12
18:42:35.800,-0.365,-0.21
18:42:35.804,-0.315,-0.21
18:42:35.808,-0.32,-0.21
18:42:35.812,-0.3,-0.225
18:42:35.816,-0.28,-0.29
18:42:35.820,-0.26,-0.3
18:42:35.824,-0.25,-0.27
18:42:35.828,-0.245,-0.22
18:42:35.832,-0.215,-0.2
18:42:35.836,-0.185,-0.23
18:42:35.840,-0.15,-0.245
18:42:35.844,-0.145,-0.175
18:42:35.848,-0.16,-0.13
18:42:35.852,-0.155,-0.145
18:42:35.856,-0.145,-0.16
18:42:35.860,-0.145,-0.16
18:42:35.864,-0.16,-0.16
18:42:35.868,-0.18,-0.145
18:42:35.872,-0.175,-0.155
18:42:35.876,-0.175,-0.17
18:42:35.880,-0.19,-0.16
18:42:35.884,-0.165,-0.145
18:42:35.888,-0.2,-0.14
18:42:35.892,-0.205,-0.13
18:42:35.896,-0.185,-0.15
18:42:35.900,-0.18,-0.2
18:42:35.904,-0.11,-0.215
18:42:35.908,-0.055,-0.21
18:42:35.912,0.005,-0.225
18:42:35.916,0.05,-0.24
18:42:35.920,0.07,-0.295
18:42:35.924,0.06,-0.385
18:42:35.928,0.03,-0.55
18:42:35.932,-0.005,-0.685
18:42:35.936,0.01,-0.89
18:42:35.940,0.165,-1.095
18:42:35.944,0.435,-1.35
18:42:35.948,0.775,-1.645
18:42:35.952,1.01,-1.945
18:42:35.956,1.0,-2.165
18:42:35.960,0.735,-2.13
18:42:35.964,0.235,-1.785
18:42:35.968,-0.19,-1.32
18:42:35.972,-0.4,-0.905
18:42:35.976,-0.5,-0.66
18:42:35.980,-0.545,-0.49
18:42:35.984,-0.57,-0.335
18:42:35.988,-0.61,-0.22
18:42:35.992,-0.635,-0.16
18:42:35.996,-0.635,-0.155
18:42:36.000,-0.66,-0.105
18:42:36.004,-0.675,-0.055
18:42:36.008,-0.655,-0.025
18:42:36.012,-0.665,-0.02
18:42:36.016,-0.665,0.005
18:42:36.020,-0.64,-0.035
18:42:36.024,-0.65,-0.06
18:42:36.028,-0.655,-0.08
18:42:36.032,-0.65,-0.055
18:42:36.036,-0.63,-0.04
18:42:36.040,-0.63,-0.045
18:42:36.044,-0.595,-0.115
18:42:36.048,-0.595,-0.12
18:42:36.052,-0.58,-0.095
18:42:36.056,-0.565,-0.105
18:42:36.060,-0.545,-0.15
18:42:36.064,-0.53,-0.15
18:42:36.068,-0.505,-0.135
18:42:36.072,-0.475,-0.14
18:42:36.076,-0.405,-0.13
18:42:36.080,-0.34,-0.11
18:42:36.084,-0.325,-0.04
18:42:36.088,-0.32,-0.02
18:42:36.092,-0.345,0.04
18:42:36.096,-0.345,0.035
18:42:36.100,-0.38,0.025
18:42:36.104,-0.405,0.045
18:42:36.108,-0.405,0.055
18:42:36.112,-0.42,0.145
18:42:36.116,-0.405,0.17
18:42:36.120,-0.42,0.155
18:42:36.124,-0.425,0.095
18:42:36.128,-0.45,0.065
18:42:36.132,-0.45,0.08
18:42:36.136,-0.44,0.125
18:42:36.140,-0.445,0.12
18:42:36.144,-0.46,0.065
18:42:36.148,-0.435,0.045
18:42:36.152,-0.45,0.0
18:42:36.156,-0.455,-0.07
18:42:36.160,-0.46,-0.1
18:42:36.164,-0.435,-0.085
18:42:36.168,-0.44,-0.11
18:42:36.172,-0.42,-0.095
18:42:36.176,-0.445,-0.135
18:42:36.180,-0.45,-0.12
18:42:36.184,-0.435,-0.15
18:42:36.188,-0.44,-0.19
18:42:36.192,-0.405,-0.17
18:42:36.196,-0.41,-0.15
18:42:36.200,-0.39,-0.145
18:42:36.204,-0.405,-0.19
18:42:36.208,-0.4,-0.24
18:42:36.212,-0.405,-0.26
18:42:36.216,-0.405,-0.245
18:42:36.220,-0.43,-0.2
18:42:36.224,-0.415,-0.19
18:42:36.228,-0.405,-0.19
18:42:36.232,-0.425,-0.19
18:42:36.236,-0.405,-0.255
18:42:36.240,-0.43,-0.24
18:42:36.244,-0.4,-0.205
18:42:36.248,-0.42,-0.205
18:42:36.252,-0.415,-0.235
18:42:36.256,-0.395,-0.245
18:42:36.260,-0.405,-0.225
18:42:36.264,-0.42,-0.215
18:42:36.268,-0.42,-0.19
18:42:36.272,-0.435,-0.2
18:42:36.276,-0.43,-0.19
18:42:36.280,-0.415,-0.155
18:42:36.284,-0.41,-0.135
18:42:36.288,-0.38,-0.17
18:42:36.292,-0.33,-0.25
18:42:36.296,-0.29,-0.325
18:42:36.300,-0.21,-0.32
18:42:36.304,-0.13,-0.32
18:42:36.308,-0.035,-0.365
18:42:36.312,0.03,-0.445
18:42:36.316,0.08,-0.555
18:42:36.320,0.11,-0.62
18:42:36.324,0.125,-0.69
18:42:36.328,0.12,-0.76
18:42:36.332,0.125,-0.905
18:42:36.336,0.22,-1.145
18:42:36.340,0.46,-1.425
18:42:36.344,0.81,-1.705
18:42:36.348,1.12,-1.95
18:42:36.352,1.21,-2.115
18:42:36.356,0.995,-2.095
18:42:36.360,0.53,-1.795
18:42:36.364,0.04,-1.335
18:42:36.368,-0.23,-0.945
18:42:36.372,-0.36,-0.725
18:42:36.376,-0.415,-0.54
18:42:36.380,-0.445,-0.365
18:42:36.384,-0.475,-0.205
18:42:36.388,-0.495,-0.15
18:42:36.392,-0.53,-0.09
18:42:36.396,-0.54,-0.025
18:42:36.400,-0.535,-0.055
18:42:36.404,-0.55,-0.105
18:42:36.408,-0.53,-0.12
18:42:36.412,-0.55,-0.155
18:42:36.416,-0.55,-0.14
18:42:36.420,-0.57,-0.095
18:42:36.424,-0.57,-0.05
18:42:36.428,-0.58,-0.035
18:42:36.432,-0.59,-0.025
18:42:36.436,-0.585,-0.03
18:42:36.440,-0.555,-0.04
18:42:36.444,-0.54,-0.035
18:42:36.448,-0.535,0.02
18:42:36.452,-0.545,0.035
18:42:36.456,-0.58,0.0
18:42:36.460,-0.565,-0.095
18:42:36.464,-0.56,-0.12
18:42:36.468,-0.53,-0.145
18:42:36.472,-0.5,-0.055
18:42:36.476,-0.485,0.01
18:42:36.480,-0.48,0.035
18:42:36.484,-0.485,0.045
18:42:36.488,-0.475,0.035
18:42:36.492,-0.48,0.015
18:42:36.496,-0.47,-0.015
18:42:36.500,-0.485,0.015
18:42:36.504,-0.49,0.05
18:42:36.508,-0.48,0.08
18:42:36.512,-0.46,0.08
18:42:36.516,-0.445,0.045
18:42:36.520,-0.43,0.045
18:42:36.524,-0.46,0.03
18:42:36.528,-0.44,0.045
18:42:36.532,-0.43,0.03
18:42:36.536,-0.4,-0.04
18:42:36.540,-0.37,-0.12
18:42:36.544,-0.355,-0.135
18:42:36.548,-0.335,-0.135
18:42:36.552,-0.33,-0.115
18:42:36.556,-0.32,-0.14
18:42:36.560,-0.305,-0.16
18:42:36.564,-0.29,-0.195
18:42:36.568,-0.305,-0.225
18:42:36.572,-0.32,-0.22
18:42:36.576,-0.315,-0.22
18:42:36.580,-0.315,-0.215
18:42:36.584,-0.3,-0.185
18:42:36.588,-0.285,-0.165
18:42:36.592,-0.28,-0.175
18:42:36.596,-0.27,-0.195
18:42:36.600,-0.285,-0.215
18:42:36.604,-0.29,-0.23
18:42:36.608,-0.28,-0.225
18:42:36.612,-0.28,-0.21
18:42:36.616,-0.3,-0.21
18:42:36.620,-0.28,-0.185
18:42:36.624,-0.28,-0.21
18:42:36.628,-0.31,-0.29
18:42:36.632,-0.305,-0.355
18:42:36.636,-0.33,-0.38
18:42:36.640,-0.34,-0.35
18:42:36.644,-0.36,-0.33
18:42:36.648,-0.34,-0.275
18:42:36.652,-0.34,-0.245
18:42:36.656,-0.355,-0.225
18:42:36.660,-0.375,-0.24
18:42:36.664,-0.375,-0.275
18:42:36.668,-0.335,-0.27
18:42:36.672,-0.275,-0.29
18:42:36.676,-0.175,-0.31
18:42:36.680,-0.085,-0.35
18:42:36.684,-0.04,-0.38
18:42:36.688,-0.01,-0.45
18:42:36.692,0.0,-0.52
18:42:36.696,0.015,-0.61
18:42:36.700,0.01,-0.69
18:42:36.704,0.015,-0.785
18:42:36.708,0.03,-0.92
18:42:36.712,0.135,-1.1
18:42:36.716,0.36,-1.305
18:42:36.720,0.715,-1.61
18:42:36.724,0.99,-1.985
18:42:36.728,1.07,-2.315
18:42:36.732,0.885,-2.37
18:42:36.736,0.495,-2.09
18:42:36.740,0.08,-1.535
18:42:36.744,-0.155,-1.095
18:42:36.748,-0.28,-0.84
18:42:36.752,-0.29,-0.65
18:42:36.756,-0.29,-0.485
18:42:36.760,-0.305,-0.35
18:42:36.764,-0.335,-0.245
18:42:36.768,-0.35,-0.195
18:42:36.772,-0.395,-0.16
18:42:36.776,-0.425,-0.14
18:42:36.780,-0.445,-0.145
18:42:36.784,-0.42,-0.21
18:42:36.788,-0.41,-0.245
18:42:36.792,-0.4,-0.23
18:42:36.796,-0.39,-0.185
18:42:36.800,-0.42,-0.12
18:42:36.804,-0.455,-0.1
18:42:36.808,-0.485,-0.175
18:42:36.812,-0.465,-0.265
18:42:36.816,-0.485,-0.26
18:42:36.820,-0.49,-0.2
18:42:36.824,-0.505,-0.125
18:42:36.828,-0.51,-0.13
18:42:36.832,-0.525,-0.145
18:42:36.836,-0.555,-0.155
18:42:36.840,-0.56,-0.15
18:42:36.844,-0.59,-0.16
18:42:36.848,-0.61,-0.16
18:42:36.852,-0.59,-0.18
18:42:36.856,-0.585,-0.185
18:42:36.860,-0.575,-0.145
18:42:36.864,-0.565,-0.105
18:42:36.868,-0.58,-0.075
18:42:36.872,-0.615,-0.095
18:42:36.876,-0.57,-0.105
18:42:36.880,-0.57,-0.135
18:42:36.884,-0.55,-0.14
18:42:36.888,-0.53,-0.115
18:42:36.892,-0.535,-0.135
18:42:36.896,-0.55,-0.12
18:42:36.900,-0.545,-0.135
18:42:36.904,-0.55,-0.125
18:42:36.908,-0.545,-0.11
18:42:36.912,-0.52,-0.115
18:42:36.916,-0.51,-0.17
18:42:36.920,-0.53,-0.275
18:42:36.924,-0.53,-0.315
18:42:36.928,-0.5,-0.305
18:42:36.932,-0.475,-0.26
18:42:36.936,-0.45,-0.255
18:42:36.940,-0.44,-0.255
18:42:36.944,-0.425,-0.25
18:42:36.948,-0.405,-0.285
18:42:36.952,-0.39,-0.245
18:42:36.956,-0.385,-0.24
18:42:36.960,-0.365,-0.28
18:42:36.964,-0.32,-0.355
18:42:36.968,-0.275,-0.42
18:42:36.972,-0.27,-0.39
18:42:36.976,-0.25,-0.32
18:42:36.980,-0.245,-0.345
18:42:36.984,-0.2,-0.355
18:42:36.988,-0.2,-0.355
18:42:36.992,-0.215,-0.32
18:42:36.996,-0.215,-0.37
18:42:37.000,-0.23,-0.385
18:42:37.004,-0.25,-0.415
18:42:37.008,-0.24,-0.365
18:42:37.012,-0.285,-0.295
18:42:37.016,-0.295,-0.27
18:42:37.020,-0.305,-0.265
18:42:37.024,-0.28,-0.275
18:42:37.028,-0.26,-0.225
18:42:37.032,-0.23,-0.155
18:42:37.036,-0.24,-0.185
18:42:37.040,-0.22,-0.255
18:42:37.044,-0.21,-0.32
18:42:37.048,-0.145,-0.305
18:42:37.052,-0.085,-0.24
18:42:37.056,-0.03,-0.29
18:42:37.060,0.0,-0.41
18:42:37.064,0.035,-0.57
18:42:37.068,0.055,-0.71
18:42:37.072,0.07,-0.77
18:42:37.076,0.09,-0.82
18:42:37.080,0.095,-0.93
18:42:37.084,0.14,-1.07
18:42:37.088,0.315,-1.245
18:42:37.092,0.595,-1.47
18:42:37.096,0.915,-1.745
18:42:37.100,1.045,-2.065
18:42:37.104,0.9,-2.24
18:42:37.108,0.51,-2.09
18:42:37.112,0.05,-1.69
18:42:37.116,-0.235,-1.225
18:42:37.120,-0.375,-0.95
18:42:37.124,-0.435,-0.75
18:42:37.128,-0.475,-0.605
18:42:37.132,-0.475,-0.47
18:42:37.136,-0.52,-0.4
18:42:37.140,-0.56,-0.36
18:42:37.144,-0.565,-0.335
18:42:37.148,-0.58,-0.34
18:42:37.152,-0.57,-0.335
18:42:37.156,-0.565,-0.275
18:42:37.160,-0.555,-0.265
18:42:37.164,-0.57,-0.22
18:42:37.168,-0.595,-0.195
18:42:37.172,-0.58,-0.195
18:42:37.176,-0.56,-0.175
18:42:37.180,-0.565,-0.225
18:42:37.184,-0.57,-0.245
18:42:37.188,-0.555,-0.21
18:42:37.192,-0.57,-0.175
18:42:37.196,-0.55,-0.15
18:42:37.200,-0.52,-0.14
18:42:37.204,-0.48,-0.135
18:42:37.208,-0.485,-0.085
18:42:37.212,-0.465,-0.105
18:42:37.216,-0.465,-0.155
18:42:37.220,-0.465,-0.185
18:42:37.224,-0.475,-0.16
18:42:37.228,-0.49,-0.13
18:42:37.232,-0.495,-0.105
18:42:37.236,-0.49,-0.085
18:42:37.240,-0.52,-0.075
18:42:37.244,-0.475,-0.045
18:42:37.248,-0.465,-0.05
18:42:37.252,-0.465,-0.085
18:42:37.256,-0.455,-0.09
18:42:37.260,-0.46,-0.1
18:42:37.264,-0.475,-0.105
18:42:37.268,-0.465,-0.125
18:42:37.272,-0.46,-0.12
18:42:37.276,-0.465,-0.14
18:42:37.280,-0.47,-0.14
18:42:37.284,-0.495,-0.16
18:42:37.288,-0.49,-0.16
18:42:37.292,-0.485,-0.175
18:42:37.296,-0.495,-0.22
18:42:37.300,-0.48,-0.275
18:42:37.304,-0.485,-0.285
18:42:37.308,-0.47,-0.255
18:42:37.312,-0.46,-0.28
18:42:37.316,-0.41,-0.305
18:42:37.320,-0.415,-0.33
18:42:37.324,-0.39,-0.33
18:42:37.328,-0.38,-0.345
18:42:37.332,-0.355,-0.385
18:42:37.336,-0.375,-0.415
18:42:37.340,-0.36,-0.39
18:42:37.344,-0.345,-0.375
18:42:37.348,-0.335,-0.345
18:42:37.352,-0.33,-0.32
18:42:37.356,-0.32,-0.315
18:42:37.360,-0.32,-0.35
18:42:37.364,-0.33,-0.43
18:42:37.368,-0.32,-0.405
18:42:37.372,-0.315,-0.415
18:42:37.376,-0.305,-0.355
18:42:37.380,-0.305,-0.335
18:42:37.384,-0.345,-0.325
18:42:37.388,-0.345,-0.34
18:42:37.392,-0.34,-0.415
18:42:37.396,-0.32,-0.45
18:42:37.400,-0.31,-0.465
18:42:37.404,-0.265,-0.45
18:42:37.408,-0.215,-0.45
18:42:37.412,-0.145,-0.43
18:42:37.416,-0.065,-0.43
18:42:37.420,0.0,-0.455
18:42:37.424,0.02,-0.48
18:42:37.428,0.03,-0.51
18:42:37.432,0.005,-0.56
18:42:37.436,-0.015,-0.595
18:42:37.440,-0.05,-0.715
18:42:37.444,0.03,-0.85
18:42:37.448,0.255,-1.055
18:42:37.452,0.575,-1.355
18:42:37.456,0.93,-1.72
18:42:37.460,1.16,-2.1
18:42:37.464,1.225,-2.325
18:42:37.468,1.0,-2.27
18:42:37.472,0.565,-1.965
18:42:37.476,0.1,-1.47
18:42:37.480,-0.14,-1.05
18:42:37.484,-0.29,-0.855
18:42:37.488,-0.305,-0.73
18:42:37.492,-0.35,-0.575
18:42:37.496,-0.38,-0.455
18:42:37.500,-0.405,-0.33
18:42:37.504,-0.415,-0.255
18:42:37.508,-0.42,-0.23
18:42:37.512,-0.445,-0.195
18:42:37.516,-0.465,-0.18
18:42:37.520,-0.475,-0.17
18:42:37.524,-0.46,-0.145
18:42:37.528,-0.49,-0.16
18:42:37.532,-0.5,-0.215
18:42:37.536,-0.485,-0.22
18:42:37.540,-0.51,-0.2
18:42:37.544,-0.5,-0.22
18:42:37.548,-0.505,-0.22
18:42:37.552,-0.505,-0.215
18:42:37.556,-0.495,-0.18
18:42:37.560,-0.5,-0.14
18:42:37.564,-0.505,-0.12
18:42:37.568,-0.505,-0.115
18:42:37.572,-0.495,-0.125
18:42:37.576,-0.495,-0.13
18:42:37.580,-0.495,-0.105
18:42:37.584,-0.48,-0.11
18:42:37.588,-0.485,-0.13
18:42:37.592,-0.48,-0.11
18:42:37.596,-0.475,-0.095
18:42:37.600,-0.49,-0.075
18:42:37.604,-0.47,-0.09
18:42:37.608,-0.485,-0.135
18:42:37.612,-0.46,-0.16
18:42:37.616,-0.485,-0.145
18:42:37.620,-0.475,-0.125
18:42:37.624,-0.465,-0.13
18:42:37.628,-0.44,-0.11
18:42:37.632,-0.445,-0.13
18:42:37.636,-0.465,-0.135
18:42:37.640,-0.465,-0.085
18:42:37.644,-0.44,-0.13
18:42:37.648,-0.405,-0.15
18:42:37.652,-0.36,-0.145
18:42:37.656,-0.32,-0.125
18:42:37.660,-0.285,-0.065
18:42:37.664,-0.26,-0.1
18:42:37.668,-0.23,-0.235
18:42:37.672,-0.235,-0.375
18:42:37.676,-0.225,-0.425
18:42:37.680,-0.21,-0.375
18:42:37.684,-0.22,-0.345
18:42:37.688,-0.24,-0.31
18:42:37.692,-0.245,-0.31
18:42:37.696,-0.235,-0.355
18:42:37.700,-0.215,-0.35
18:42:37.704,-0.195,-0.335
18:42:37.708,-0.18,-0.3
18:42:37.712,-0.17,-0.275
18:42:37.716,-0.175,-0.27
18:42:37.720,-0.16,-0.295
18:42:37.724,-0.2,-0.29
18:42:37.728,-0.195,-0.295
18:42:37.732,-0.2,-0.29
18:42:37.736,-0.215,-0.375
18:42:37.740,-0.22,-0.4
18:42:37.744,-0.24,-0.425
18:42:37.748,-0.26,-0.425
18:42:37.752,-0.275,-0.415
18:42:37.756,-0.31,-0.38
18:42:37.760,-0.325,-0.345
18:42:37.764,-0.35,-0.345
18:42:37.768,-0.37,-0.335
18:42:37.772,-0.36,-0.34
18:42:37.776,-0.345,-0.32
18:42:37.780,-0.34,-0.335
18:42:37.784,-0.36,-0.335
18:42:37.788,-0.38,-0.315
18:42:37.792,-0.36,-0.32
18:42:37.796,-0.34,-0.355
18:42:37.800,-0.35,-0.385
18:42:37.804,-0.365,-0.435
18:42:37.808,-0.37,-0.41
18:42:37.812,-0.375,-0.385
18:42:37.816,-0.375,-0.395
18:42:37.820,-0.395,-0.38
18:42:37.824,-0.4,-0.375
18:42:37.828,-0.38,-0.375
18:42:37.832,-0.355,-0.365
18:42:37.836,-0.385,-0.35
18:42:37.840,-0.37,-0.335
18:42:37.844,-0.36,-0.365
18:42:37.848,-0.375,-0.355
18:42:37.852,-0.36,-0.365
18:42:37.856,-0.375,-0.4
18:42:37.860,-0.375,-0.43
18:42:37.864,-0.375,-0.415
18:42:37.868,-0.38,-0.43
18:42:37.872,-0.4,-0.44
18:42:37.876,-0.405,-0.39
18:42:37.880,-0.395,-0.405
18:42:37.884,-0.415,-0.41
18:42:37.888,-0.41,-0.385
18:42:37.892,-0.38,-0.36
18:42:37.896,-0.355,-0.36
18:42:37.900,-0.3,-0.365
18:42:37.904,-0.26,-0.365
18:42:37.908,-0.22,-0.35
18:42:37.912,-0.2,-0.36
18:42:37.916,-0.18,-0.4
18:42:37.920,-0.17,-0.415
18:42:37.924,-0.165,-0.39
18:42:37.928,-0.135,-0.35
18:42:37.932,-0.09,-0.3
18:42:37.936,-0.025,-0.285
18:42:37.940,0.035,-0.355
18:42:37.944,0.095,-0.41
18:42:37.948,0.14,-0.45
18:42:37.952,0.165,-0.55
18:42:37.956,0.18,-0.665
18:42:37.960,0.185,-0.84
18:42:37.964,0.19,-0.99
18:42:37.968,0.25,-1.14
18:42:37.972,0.46,-1.365
18:42:37.976,0.805,-1.68
18:42:37.980,1.04,-2.03
18:42:37.984,1.1,-2.26
18:42:37.988,0.88,-2.325
18:42:37.992,0.375,-2.105
18:42:37.996,-0.055,-1.595
18:42:38.000,-0.335,-1.15
18:42:38.004,-0.43,-0.905
18:42:38.008,-0.485,-0.745
18:42:38.012,-0.505,-0.59
18:42:38.016,-0.53,-0.47
18:42:38.020,-0.555,-0.36
18:42:38.024,-0.54,-0.32
18:42:38.028,-0.54,-0.27
18:42:38.032,-0.545,-0.235
18:42:38.036,-0.535,-0.27
18:42:38.040,-0.53,-0.285
18:42:38.044,-0.545,-0.265
18:42:38.048,-0.54,-0.275
18:42:38.052,-0.54,-0.26
18:42:38.056,-0.58,-0.24
18:42:38.060,-0.575,-0.215
18:42:38.064,-0.59,-0.215
18:42:38.068,-0.565,-0.205
18:42:38.072,-0.55,-0.195
18:42:38.076,-0.57,-0.16
18:42:38.080,-0.565,-0.14
18:42:38.084,-0.575,-0.155
18:42:38.088,-0.57,-0.225
18:42:38.092,-0.55,-0.265
18:42:38.096,-0.575,-0.235
18:42:38.100,-0.55,-0.185
18:42:38.104,-0.55,-0.155
18:42:38.108,-0.56,-0.12
18:42:38.112,-0.56,-0.1
18:42:38.116,-0.54,-0.13
18:42:38.120,-0.53,-0.16
18:42:38.124,-0.495,-0.095
18:42:38.128,-0.505,-0.08
18:42:38.132,-0.505,-0.06
18:42:38.136,-0.48,-0.135
18:42:38.140,-0.445,-0.155
18:42:38.144,-0.42,-0.165
18:42:38.148,-0.36,-0.11
18:42:38.152,-0.315,-0.07
18:42:38.156,-0.235,-0.07
18:42:38.160,-0.225,-0.085
18:42:38.164,-0.215,-0.05
18:42:38.168,-0.23,-0.05
18:42:38.172,-0.28,-0.065
18:42:38.176,-0.28,-0.095
18:42:38.180,-0.3,-0.105
18:42:38.184,-0.315,-0.085
18:42:38.188,-0.345,-0.08
18:42:38.192,-0.32,-0.085
18:42:38.196,-0.335,-0.08
18:42:38.200,-0.32,-0.075
18:42:38.204,-0.32,-0.09
18:42:38.208,-0.33,-0.12
18:42:38.212,-0.34,-0.15
18:42:38.216,-0.345,-0.18
18:42:38.220,-0.335,-0.2
18:42:38.224,-0.315,-0.2
18:42:38.228,-0.305,-0.25
18:42:38.232,-0.32,-0.27
18:42:38.236,-0.31,-0.31
18:42:38.240,-0.335,-0.35
18:42:38.244,-0.33,-0.38
18:42:38.248,-0.345,-0.385
18:42:38.252,-0.32,-0.405
18:42:38.256,-0.335,-0.41
18:42:38.260,-0.355,-0.39
18:42:38.264,-0.315,-0.385
18:42:38.268,-0.32,-0.385
18:42:38.272,-0.335,-0.36
18:42:38.276,-0.32,-0.385
18:42:38.280,-0.325,-0.385
18:42:38.284,-0.32,-0.39
18:42:38.288,-0.32,-0.375
18:42:38.292,-0.325,-0.41
18:42:38.296,-0.32,-0.4
18:42:38.300,-0.335,-0.385
18:42:38.304,-0.345,-0.35
18:42:38.308,-0.355,-0.33
18:42:38.312,-0.345,-0.32
18:42:38.316,-0.345,-0.305
18:42:38.320,-0.34,-0.33
18:42:38.324,-0.325,-0.32
18:42:38.328,-0.34,-0.29
18:42:38.332,-0.35,-0.305
18:42:38.336,-0.355,-0.31
18:42:38.340,-0.35,-0.335
18:42:38.344,-0.34,-0.325
18:42:38.348,-0.335,-0.335
18:42:38.352,-0.34,-0.35
18:42:38.356,-0.355,-0.35
18:42:38.360,-0.32,-0.3
18:42:38.364,-0.3,-0.295
18:42:38.368,-0.315,-0.32
18:42:38.372,-0.3,-0.31
18:42:38.376,-0.29,-0.3
18:42:38.380,-0.265,-0.32
18:42:38.384,-0.23,-0.32
18:42:38.388,-0.2,-0.295
18:42:38.392,-0.17,-0.28
18:42:38.396,-0.165,-0.28
18:42:38.400,-0.14,-0.24
18:42:38.404,-0.15,-0.23
18:42:38.408,-0.155,-0.24
18:42:38.412,-0.165,-0.255
18:42:38.416,-0.195,-0.25
18:42:38.420,-0.24,-0.275
18:42:38.424,-0.27,-0.255
18:42:38.428,-0.275,-0.235
18:42:38.432,-0.285,-0.22
18:42:38.436,-0.29,-0.21
18:42:38.440,-0.285,-0.205
18:42:38.444,-0.28,-0.215
18:42:38.448,-0.265,-0.23
18:42:38.452,-0.2,-0.28
18:42:38.456,-0.155,-0.31
18:42:38.460,-0.09,-0.315
18:42:38.464,-0.025,-0.355
18:42:38.468,0.025,-0.425
18:42:38.472,0.09,-0.515
18:42:38.476,0.115,-0.635
18:42:38.480,0.135,-0.705
18:42:38.484,0.155,-0.86
18:42:38.488,0.145,-1.01
18:42:38.492,0.205,-1.22
18:42:38.496,0.405,-1.47
18:42:38.500,0.735,-1.785
18:42:38.504,1.025,-2.1
18:42:38.508,1.16,-2.345
18:42:38.512,0.975,-2.4
18:42:38.516,0.55,-2.175
18:42:38.520,0.085,-1.66
18:42:38.524,-0.21,-1.215
18:42:38.528,-0.345,-0.88
18:42:38.532,-0.425,-0.7
18:42:38.536,-0.445,-0.545
18:42:38.540,-0.465,-0.365
18:42:38.544,-0.5,-0.275
18:42:38.548,-0.5,-0.19
18:42:38.552,-0.53,-0.155
18:42:38.556,-0.545,-0.17
18:42:38.560,-0.53,-0.165
18:42:38.564,-0.515,-0.125
18:42:38.568,-0.515,-0.12
18:42:38.572,-0.51,-0.16
18:42:38.576,-0.515,-0.17
18:42:38.580,-0.525,-0.14
18:42:38.584,-0.515,-0.125
18:42:38.588,-0.495,-0.14
18:42:38.592,-0.51,-0.125
18:42:38.596,-0.51,-0.11
18:42:38.600,-0.5,-0.115
18:42:38.604,-0.505,-0.12
18:42:38.608,-0.52,-0.08
18:42:38.612,-0.47,-0.11
18:42:38.616,-0.475,-0.1
18:42:38.620,-0.46,-0.1
18:42:38.624,-0.45,-0.09
18:42:38.628,-0.435,-0.06
18:42:38.632,-0.415,-0.04
18:42:38.636,-0.37,-0.045
18:42:38.640,-0.345,-0.03
18:42:38.644,-0.325,-0.015
18:42:38.648,-0.315,-0.01
18:42:38.652,-0.32,0.0
18:42:38.656,-0.345,-0.02
18:42:38.660,-0.37,0.0
18:42:38.664,-0.395,-0.015
18:42:38.668,-0.38,-0.025
18:42:38.672,-0.395,0.0
18:42:38.676,-0.405,-0.025
18:42:38.680,-0.39,-0.015
18:42:38.684,-0.37,-0.045
18:42:38.688,-0.36,-0.04
18:42:38.692,-0.335,-0.055
18:42:38.696,-0.34,-0.09
18:42:38.700,-0.34,-0.1
18:42:38.704,-0.31,-0.14
18:42:38.708,-0.315,-0.125
18:42:38.712,-0.315,-0.16
18:42:38.716,-0.33,-0.17
18:42:38.720,-0.295,-0.19
18:42:38.724,-0.295,-0.225
18:42:38.728,-0.295,-0.24
18:42:38.732,-0.305,-0.245
18:42:38.736,-0.295,-0.235
18:42:38.740,-0.305,-0.245
18:42:38.744,-0.305,-0.31
18:42:38.748,-0.285,-0.31
18:42:38.752,-0.265,-0.32
18:42:38.756,-0.27,-0.33
18:42:38.760,-0.27,-0.325
18:42:38.764,-0.275,-0.335
18:42:38.768,-0.26,-0.335
18:42:38.772,-0.235,-0.34
18:42:38.776,-0.255,-0.32
18:42:38.780,-0.255,-0.355
18:42:38.784,-0.265,-0.35
18:42:38.788,-0.295,-0.335
18:42:38.792,-0.3,-0.345
18:42:38.796,-0.305,-0.335
18:42:38.800,-0.3,-0.34
18:42:38.804,-0.3,-0.355
18:42:38.808,-0.295,-0.355
18:42:38.812,-0.285,-0.335
18:42:38.816,-0.305,-0.34
18:42:38.820,-0.31,-0.315
18:42:38.824,-0.325,-0.3
18:42:38.828,-0.32,-0.32
18:42:38.832,-0.335,-0.3
18:42:38.836,-0.345,-0.295
18:42:38.840,-0.35,-0.285
18:42:38.844,-0.34,-0.29
18:42:38.848,-0.35,-0.275
18:42:38.852,-0.33,-0.27
18:42:38.856,-0.31,-0.25
18:42:38.860,-0.295,-0.24
18:42:38.864,-0.275,-0.245
18:42:38.868,-0.29,-0.23
18:42:38.872,-0.26,-0.22
18:42:38.876,-0.24,-0.22
18:42:38.880,-0.235,-0.235
18:42:38.884,-0.23,-0.255
18:42:38.888,-0.215,-0.28
18:42:38.892,-0.21,-0.29
18:42:38.896,-0.225,-0.33
18:42:38.900,-0.22,-0.315
18:42:38.904,-0.255,-0.345
18:42:38.908,-0.27,-0.32
18:42:38.912,-0.3,-0.355
18:42:38.916,-0.29,-0.33
18:42:38.920,-0.29,-0.34
18:42:38.924,-0.27,-0.34
18:42:38.928,-0.265,-0.36
18:42:38.932,-0.265,-0.365
18:42:38.936,-0.265,-0.365
18:42:38.940,-0.24,-0.355
18:42:38.944,-0.26,-0.355
18:42:38.948,-0.265,-0.375
18:42:38.952,-0.29,-0.35
18:42:38.956,-0.27,-0.36
18:42:38.960,-0.285,-0.36
18:42:38.964,-0.275,-0.365
18:42:38.968,-0.295,-0.37
18:42:38.972,-0.315,-0.36
18:42:38.976,-0.305,-0.385
18:42:38.980,-0.31,-0.395
18:42:38.984,-0.295,-0.395
18:42:38.988,-0.325,-0.41
18:42:38.992,-0.325,-0.39
18:42:38.996,-0.32,-0.385
18:42:39.000,-0.325,-0.395
18:42:39.004,-0.315,-0.385
18:42:39.008,-0.31,-0.41
18:42:39.012,-0.31,-0.415
18:42:39.016,-0.275,-0.415
18:42:39.020,-0.17,-0.42
18:42:39.024,-0.11,-0.445
18:42:39.028,-0.01,-0.445
18:42:39.032,0.06,-0.49
18:42:39.036,0.135,-0.56
18:42:39.040,0.21,-0.66
18:42:39.044,0.265,-0.775
18:42:39.048,0.3,-0.845
18:42:39.052,0.31,-0.995
18:42:39.056,0.305,-1.18
18:42:39.060,0.425,-1.385
18:42:39.064,0.715,-1.68
18:42:39.068,1.03,-1.97
18:42:39.072,1.21,-2.18
18:42:39.076,1.09,-2.29
18:42:39.080,0.665,-2.145
18:42:39.084,0.18,-1.685
18:42:39.088,-0.13,-1.26
18:42:39.092,-0.265,-0.945
18:42:39.096,-0.31,-0.77
18:42:39.100,-0.315,-0.59
18:42:39.104,-0.32,-0.435
18:42:39.108,-0.355,-0.305
18:42:39.112,-0.37,-0.24
18:42:39.116,-0.37,-0.205
18:42:39.120,-0.35,-0.205
18:42:39.124,-0.38,-0.195
18:42:39.128,-0.365,-0.19
18:42:39.132,-0.4,-0.17
18:42:39.136,-0.405,-0.17
18:42:39.140,-0.395,-0.185
18:42:39.144,-0.41,-0.18
18:42:39.148,-0.445,-0.16
18:42:39.152,-0.45,-0.155
18:42:39.156,-0.47,-0.145
18:42:39.160,-0.485,-0.17
18:42:39.164,-0.48,-0.185
18:42:39.168,-0.505,-0.175
18:42:39.172,-0.505,-0.175
18:42:39.176,-0.5,-0.17
18:42:39.180,-0.5,-0.165
18:42:39.184,-0.475,-0.175
18:42:39.188,-0.465,-0.16
18:42:39.192,-0.465,-0.16
18:42:39.196,-0.48,-0.15
18:42:39.200,-0.475,-0.16
18:42:39.204,-0.47,-0.145
18:42:39.208,-0.465,-0.13
18:42:39.212,-0.48,-0.155
18:42:39.216,-0.48,-0.155
18:42:39.220,-0.49,-0.105
18:42:39.224,-0.49,-0.095
18:42:39.228,-0.48,-0.08
18:42:39.232,-0.475,-0.11
18:42:39.236,-0.505,-0.12
18:42:39.240,-0.49,-0.13
18:42:39.244,-0.46,-0.13
18:42:39.248,-0.455,-0.095
18:42:39.252,-0.45,-0.115
18:42:39.256,-0.44,-0.135
18:42:39.260,-0.425,-0.12
18:42:39.264,-0.435,-0.15
18:42:39.268,-0.42,-0.14
18:42:39.272,-0.425,-0.14
18:42:39.276,-0.41,-0.17
18:42:39.280,-0.41,-0.18
18:42:39.284,-0.37,-0.16
18:42:39.288,-0.385,-0.185
18:42:39.292,-0.375,-0.185
18:42:39.296,-0.355,-0.195
18:42:39.300,-0.325,-0.185
18:42:39.304,-0.305,-0.2
18:42:39.308,-0.305,-0.2
18:42:39.312,-0.29,-0.21
18:42:39.316,-0.295,-0.235
18:42:39.320,-0.28,-0.215
18:42:39.324,-0.25,-0.215
18:42:39.328,-0.235,-0.205
18:42:39.332,-0.205,-0.215
18:42:39.336,-0.185,-0.215
18:42:39.340,-0.14,-0.215
18:42:39.344,-0.105,-0.215
18:42:39.348,-0.09,-0.195
18:42:39.352,-0.12,-0.22
18:42:39.356,-0.13,-0.2
18:42:39.360,-0.135,-0.22
18:42:39.364,-0.135,-0.19
18:42:39.368,-0.16,-0.215
18:42:39.372,-0.19,-0.22
18:42:39.376,-0.155,-0.265
18:42:39.380,-0.16,-0.24
18:42:39.384,-0.165,-0.24
18:42:39.388,-0.145,-0.235
18:42:39.392,-0.14,-0.245
18:42:39.396,-0.145,-0.28
18:42:39.400,-0.16,-0.3
18:42:39.404,-0.14,-0.315
18:42:39.408,-0.13,-0.33
18:42:39.412,-0.08,-0.34
18:42:39.416,0.01,-0.34
18:42:39.420,0.07,-0.4
18:42:39.424,0.105,-0.455
18:42:39.428,0.15,-0.48
18:42:39.432,0.2,-0.55
18:42:39.436,0.17,-0.62
18:42:39.440,0.15,-0.715
18:42:39.444,0.13,-0.835
18:42:39.448,0.155,-1.025
18:42:39.452,0.32,-1.26
18:42:39.456,0.615,-1.52
18:42:39.460,0.945,-1.86
18:42:39.464,1.17,-2.16
18:42:39.468,1.225,-2.385
18:42:39.472,0.995,-2.32
18:42:39.476,0.51,-1.975
18:42:39.480,0.07,-1.475
18:42:39.484,-0.22,-1.05
18:42:39.488,-0.32,-0.84
18:42:39.492,-0.365,-0.7
18:42:39.496,-0.39,-0.545
18:42:39.500,-0.4,-0.395
18:42:39.504,-0.415,-0.325
18:42:39.508,-0.425,-0.285
18:42:39.512,-0.425,-0.25
18:42:39.516,-0.44,-0.245
18:42:39.520,-0.43,-0.205
18:42:39.524,-0.46,-0.17
18:42:39.528,-0.465,-0.14
18:42:39.532,-0.47,-0.15
18:42:39.536,-0.47,-0.125
18:42:39.540,-0.44,-0.105
18:42:39.544,-0.44,-0.135
18:42:39.548,-0.445,-0.085
18:42:39.552,-0.41,-0.1
18:42:39.556,-0.4,-0.06
18:42:39.560,-0.38,-0.075
18:42:39.564,-0.385,-0.07
18:42:39.568,-0.34,-0.04
18:42:39.572,-0.305,-0.03
18:42:39.576,-0.26,-0.015
18:42:39.580,-0.285,0.01
18:42:39.584,-0.305,-0.005
18:42:39.588,-0.315,0.025
18:42:39.592,-0.33,0.045
18:42:39.596,-0.355,0.02
18:42:39.600,-0.38,0.0
18:42:39.604,-0.395,0.0
18:42:39.608,-0.385,0.005
18:42:39.612,-0.4,0.025
18:42:39.616,-0.4,0.01
18:42:39.620,-0.37,0.015
18:42:39.624,-0.36,0.005
18:42:39.628,-0.34,-0.005
18:42:39.632,-0.33,-0.015
18:42:39.636,-0.34,-0.01
18:42:39.640,-0.32,-0.03
18:42:39.644,-0.305,-0.05
18:42:39.648,-0.34,-0.065
18:42:39.652,-0.325,-0.12
18:42:39.656,-0.32,-0.16
18:42:39.660,-0.315,-0.18
18:42:39.664,-0.275,-0.2
18:42:39.668,-0.24,-0.225
18:42:39.672,-0.24,-0.25
18:42:39.676,-0.23,-0.245
18:42:39.680,-0.215,-0.285
18:42:39.684,-0.23,-0.265
18:42:39.688,-0.215,-0.29
18:42:39.692,-0.205,-0.285
18:42:39.696,-0.2,-0.3
18:42:39.700,-0.205,-0.32
18:42:39.704,-0.225,-0.335
18:42:39.708,-0.225,-0.36
18:42:39.712,-0.215,-0.33
18:42:39.716,-0.23,-0.345
18:42:39.720,-0.24,-0.345
18:42:39.724,-0.245,-0.34
18:42:39.728,-0.25,-0.345
18:42:39.732,-0.24,-0.345
18:42:39.736,-0.26,-0.36
18:42:39.740,-0.25,-0.365
18:42:39.744,-0.25,-0.355
18:42:39.748,-0.245,-0.35
18:42:39.752,-0.23,-0.345
18:42:39.756,-0.22,-0.32
18:42:39.760,-0.19,-0.305
18:42:39.764,-0.13,-0.3
18:42:39.768,-0.045,-0.31
18:42:39.772,0.0,-0.32
18:42:39.776,0.07,-0.355
18:42:39.780,0.115,-0.42
18:42:39.784,0.115,-0.48
18:42:39.788,0.105,-0.595
18:42:39.792,0.095,-0.72
18:42:39.796,0.14,-0.87
18:42:39.800,0.26,-1.03
18:42:39.804,0.51,-1.275
18:42:39.808,0.88,-1.56
18:42:39.812,1.19,-1.85
18:42:39.816,1.335,-2.11
18:42:39.820,1.255,-2.205
18:42:39.824,0.89,-2.045
18:42:39.828,0.37,-1.595
18:42:39.832,0.0,-1.16
18:42:39.836,-0.17,-0.87
18:42:39.840,-0.24,-0.67
18:42:39.844,-0.265,-0.545
18:42:39.848,-0.295,-0.37
18:42:39.852,-0.295,-0.255
18:42:39.856,-0.31,-0.19
18:42:39.860,-0.305,-0.165
18:42:39.864,-0.305,-0.145
18:42:39.868,-0.33,-0.155
18:42:39.872,-0.32,-0.17
18:42:39.876,-0.34,-0.205
18:42:39.880,-0.34,-0.2
18:42:39.884,-0.375,-0.195
18:42:39.888,-0.39,-0.195
18:42:39.892,-0.385,-0.205
18:42:39.896,-0.39,-0.205
18:42:39.900,-0.39,-0.185
18:42:39.904,-0.4,-0.165
18:42:39.908,-0.37,-0.155
18:42:39.912,-0.37,-0.17
18:42:39.916,-0.375,-0.175
18:42:39.920,-0.38,-0.15
18:42:39.924,-0.385,-0.14
18:42:39.928,-0.405,-0.125
18:42:39.932,-0.42,-0.095
18:42:39.936,-0.43,-0.08
18:42:39.940,-0.425,-0.1
18:42:39.944,-0.435,-0.105
18:42:39.948,-0.425,-0.085
18:42:39.952,-0.435,-0.07
18:42:39.956,-0.44,-0.05
18:42:39.960,-0.47,-0.045
18:42:39.964,-0.47,-0.03
18:42:39.968,-0.48,-0.02
18:42:39.972,-0.485,-0.025
18:42:39.976,-0.475,-0.045
18:42:39.980,-0.48,-0.035
18:42:39.984,-0.475,-0.04
18:42:39.988,-0.45,-0.035
18:42:39.992,-0.425,-0.03
18:42:39.996,-0.42,-0.065
18:42:40.000,-0.395,-0.08
18:42:40.004,-0.365,-0.075
18:42:40.008,-0.335,-0.08
18:42:40.012,-0.315,-0.085
18:42:40.016,-0.28,-0.12
18:42:40.020,-0.27,-0.125
18:42:40.024,-0.205,-0.14
18:42:40.028,-0.205,-0.135
18:42:40.032,-0.165,-0.14
18:42:40.036,-0.145,-0.12
18:42:40.040,-0.14,-0.145
18:42:40.044,-0.135,-0.18
18:42:40.048,-0.135,-0.16
18:42:40.052,-0.135,-0.17
18:42:40.056,-0.11,-0.195
18:42:40.060,-0.13,-0.18
18:42:40.064,-0.105,-0.185
18:42:40.068,-0.12,-0.235
18:42:40.072,-0.12,-0.225
18:42:40.076,-0.115,-0.2
18:42:40.080,-0.13,-0.225
18:42:40.084,-0.14,-0.22
18:42:40.088,-0.15,-0.235
18:42:40.092,-0.17,-0.265
18:42:40.096,-0.195,-0.315
18:42:40.100,-0.215,-0.32
18:42:40.104,-0.2,-0.335
18:42:40.108,-0.21,-0.345
18:42:40.112,-0.23,-0.355
18:42:40.116,-0.23,-0.36
18:42:40.120,-0.25,-0.355
18:42:40.124,-0.26,-0.37
18:42:40.128,-0.25,-0.365
18:42:40.132,-0.27,-0.36
18:42:40.136,-0.285,-0.365
18:42:40.140,-0.28,-0.355
18:42:40.144,-0.285,-0.355
18:42:40.148,-0.285,-0.34
18:42:40.152,-0.295,-0.32
18:42:40.156,-0.285,-0.34
18:42:40.160,-0.29,-0.35
18:42:40.164,-0.3,-0.345
18:42:40.168,-0.305,-0.335
18:42:40.172,-0.3,-0.33
18:42:40.176,-0.295,-0.33
18:42:40.180,-0.31,-0.34
18:42:40.184,-0.3,-0.31
18:42:40.188,-0.325,-0.325
18:42:40.192,-0.315,-0.32
18:42:40.196,-0.3,-0.32
18:42:40.200,-0.32,-0.305
18:42:40.204,-0.31,-0.32
18:42:40.208,-0.29,-0.33
18:42:40.212,-0.305,-0.315
18:42:40.216,-0.295,-0.3
18:42:40.220,-0.285,-0.315
18:42:40.224,-0.275,-0.325
18:42:40.228,-0.245,-0.31
18:42:40.232,-0.235,-0.33
18:42:40.236,-0.205,-0.295
18:42:40.240,-0.205,-0.315
18:42:40.244,-0.17,-0.305
18:42:40.248,-0.12,-0.305
18:42:40.252,-0.04,-0.285
18:42:40.256,0.03,-0.32
18:42:40.260,0.125,-0.31
18:42:40.264,0.205,-0.36
18:42:40.268,0.25,-0.445
18:42:40.272,0.29,-0.535
18:42:40.276,0.315,-0.605
18:42:40.280,0.295,-0.715
18:42:40.284,0.335,-0.86
18:42:40.288,0.37,-1.075
18:42:40.292,0.54,-1.34
18:42:40.296,0.84,-1.615
18:42:40.300,1.135,-1.905
18:42:40.304,1.285,-2.135
18:42:40.308,1.135,-2.2
18:42:40.312,0.695,-2.035
18:42:40.316,0.19,-1.565
18:42:40.320,-0.115,-1.1
18:42:40.324,-0.245,-0.82
18:42:40.328,-0.3,-0.67
18:42:40.332,-0.325,-0.55
18:42:40.336,-0.335,-0.44
18:42:40.340,-0.38,-0.36
18:42:40.344,-0.42,-0.31
18:42:40.348,-0.415,-0.26
18:42:40.352,-0.415,-0.24
18:42:40.356,-0.425,-0.215
18:42:40.360,-0.435,-0.195
18:42:40.364,-0.44,-0.205
18:42:40.368,-0.425,-0.19
18:42:40.372,-0.43,-0.17
18:42:40.376,-0.435,-0.14
18:42:40.380,-0.445,-0.16
18:42:40.384,-0.455,-0.19
18:42:40.388,-0.425,-0.15
18:42:40.392,-0.415,-0.155
18:42:40.396,-0.41,-0.145
18:42:40.400,-0.415,-0.13
18:42:40.404,-0.415,-0.12
18:42:40.408,-0.4,-0.11
18:42:40.412,-0.4,-0.06
18:42:40.416,-0.39,-0.06
18:42:40.420,-0.405,-0.05
18:42:40.424,-0.385,-0.04
18:42:40.428,-0.385,-0.02
18:42:40.432,-0.395,-0.02
18:42:40.436,-0.385,0.005
18:42:40.440,-0.38,0.005
18:42:40.444,-0.395,0.005
18:42:40.448,-0.38,0.025
18:42:40.452,-0.365,0.03
18:42:40.456,-0.355,0.02
18:42:40.460,-0.335,0.045
18:42:40.464,-0.35,0.05
18:42:40.468,-0.34,0.03
18:42:40.472,-0.32,0.01
18:42:40.476,-0.32,-0.015
18:42:40.480,-0.305,0.015
18:42:40.484,-0.305,0.0
18:42:40.488,-0.295,0.0
18:42:40.492,-0.275,0.005
18:42:40.496,-0.25,0.015
18:42:40.500,-0.25,-0.01
18:42:40.504,-0.26,-0.04
18:42:40.508,-0.265,-0.06
18:42:40.512,-0.26,-0.085
18:42:40.516,-0.255,-0.1
18:42:40.520,-0.25,-0.065
18:42:40.524,-0.235,-0.09
18:42:40.528,-0.225,-0.12
18:42:40.532,-0.225,-0.14
18:42:40.536,-0.2,-0.165
18:42:40.540,-0.175,-0.18
18:42:40.544,-0.18,-0.22
18:42:40.548,-0.14,-0.225
18:42:40.552,-0.13,-0.24
18:42:40.556,-0.13,-0.265
18:42:40.560,-0.135,-0.275
18:42:40.564,-0.145,-0.295
18:42:40.568,-0.135,-0.345
18:42:40.572,-0.13,-0.355
18:42:40.576,-0.14,-0.355
18:42:40.580,-0.155,-0.355
18:42:40.584,-0.18,-0.33
18:42:40.588,-0.18,-0.32
18:42:40.592,-0.17,-0.335
18:42:40.596,-0.19,-0.335
18:42:40.600,-0.175,-0.32
18:42:40.604,-0.18,-0.3
18:42:40.608,-0.19,-0.305
18:42:40.612,-0.17,-0.3
18:42:40.616,-0.2,-0.29
18:42:40.620,-0.215,-0.3
18:42:40.624,-0.24,-0.305
18:42:40.628,-0.265,-0.265
18:42:40.632,-0.255,-0.26
18:42:40.636,-0.265,-0.265
18:42:40.640,-0.27,-0.24
18:42:40.644,-0.28,-0.235
18:42:40.648,-0.27,-0.255
18:42:40.652,-0.265,-0.235
18:42:40.656,-0.285,-0.265
18:42:40.660,-0.28,-0.25
18:42:40.664,-0.32,-0.23
18:42:40.668,-0.29,-0.225
18:42:40.672,-0.315,-0.225
18:42:40.676,-0.28,-0.235
18:42:40.680,-0.27,-0.23
18:42:40.684,-0.26,-0.205
18:42:40.688,-0.23,-0.22
18:42:40.692,-0.24,-0.215
18:42:40.696,-0.225,-0.21
18:42:40.700,-0.23,-0.225
18:42:40.704,-0.225,-0.22
18:42:40.708,-0.235,-0.245
18:42:40.712,-0.23,-0.24
18:42:40.716,-0.235,-0.205
18:42:40.720,-0.195,-0.225
18:42:40.724,-0.19,-0.23
18:42:40.728,-0.155,-0.23
18:42:40.732,-0.095,-0.25
18:42:40.736,-0.015,-0.25
18:42:40.740,0.045,-0.26
18:42:40.744,0.09,-0.265
18:42:40.748,0.155,-0.33
18:42:40.752,0.195,-0.42
18:42:40.756,0.225,-0.565
18:42:40.760,0.24,-0.66
18:42:40.764,0.235,-0.805
18:42:40.768,0.255,-1.005
18:42:40.772,0.385,-1.245
18:42:40.776,0.635,-1.56
18:42:40.780,0.98,-1.89
18:42:40.784,1.23,-2.22
18:42:40.788,1.255,-2.41
18:42:40.792,0.955,-2.395
18:42:40.796,0.465,-2.04
18:42:40.800,0.05,-1.53
18:42:40.804,-0.185,-1.105
18:42:40.808,-0.275,-0.88
18:42:40.812,-0.32,-0.715
18:42:40.816,-0.31,-0.53
18:42:40.820,-0.315,-0.42
18:42:40.824,-0.355,-0.325
18:42:40.828,-0.375,-0.255
18:42:40.832,-0.375,-0.215
18:42:40.836,-0.365,-0.205
18:42:40.840,-0.355,-0.205
18:42:40.844,-0.37,-0.17
18:42:40.848,-0.35,-0.175
18:42:40.852,-0.38,-0.16
18:42:40.856,-0.42,-0.155
18:42:40.860,-0.415,-0.19
18:42:40.864,-0.43,-0.17
18:42:40.868,-0.445,-0.185
18:42:40.872,-0.465,-0.175
18:42:40.876,-0.495,-0.165
18:42:40.880,-0.5,-0.14
18:42:40.884,-0.505,-0.13
18:42:40.888,-0.51,-0.14
18:42:40.892,-0.49,-0.125
18:42:40.896,-0.5,-0.075
18:42:40.900,-0.52,-0.085
18:42:40.904,-0.495,-0.07
18:42:40.908,-0.51,-0.06
18:42:40.912,-0.49,-0.04
18:42:40.916,-0.48,-0.05
18:42:40.920,-0.445,-0.035
18:42:40.924,-0.45,-0.03
18:42:40.928,-0.42,-0.02
18:42:40.932,-0.39,-0.015
18:42:40.936,-0.4,0.0
18:42:40.940,-0.38,0.02
18:42:40.944,-0.38,0.025
18:42:40.948,-0.365,0.025
18:42:40.952,-0.375,0.025
18:42:40.956,-0.355,0.05
18:42:40.960,-0.355,0.06
18:42:40.964,-0.335,0.055
18:42:40.968,-0.32,0.02
18:42:40.972,-0.31,0.035
18:42:40.976,-0.28,0.035
18:42:40.980,-0.31,0.0
18:42:40.984,-0.32,-0.045
18:42:40.988,-0.315,-0.07
18:42:40.992,-0.3,-0.11
18:42:40.996,-0.28,-0.105
18:42:41.000,-0.275,-0.13
18:42:41.004,-0.235,-0.16
18:42:41.008,-0.21,-0.205
18:42:41.012,-0.2,-0.255
18:42:41.016,-0.175,-0.285
18:42:41.020,-0.175,-0.295
18:42:41.024,-0.195,-0.34
18:42:41.028,-0.165,-0.355
18:42:41.032,-0.165,-0.365
18:42:41.036,-0.18,-0.38
18:42:41.040,-0.18,-0.375
18:42:41.044,-0.17,-0.35
18:42:41.048,-0.165,-0.36
18:42:41.052,-0.185,-0.35
18:42:41.056,-0.17,-0.345
18:42:41.060,-0.165,-0.325
18:42:41.064,-0.175,-0.335
18:42:41.068,-0.175,-0.33
18:42:41.072,-0.18,-0.32
18:42:41.076,-0.195,-0.32
18:42:41.080,-0.22,-0.35
18:42:41.084,-0.235,-0.325
18:42:41.088,-0.265,-0.35
18:42:41.092,-0.275,-0.335
18:42:41.096,-0.285,-0.32
18:42:41.100,-0.295,-0.29
18:42:41.104,-0.335,-0.28
18:42:41.108,-0.35,-0.295
18:42:41.112,-0.34,-0.305
18:42:41.116,-0.36,-0.31
18:42:41.120,-0.37,-0.29
18:42:41.124,-0.38,-0.285
18:42:41.128,-0.38,-0.28
18:42:41.132,-0.385,-0.25
18:42:41.136,-0.355,-0.255
18:42:41.140,-0.355,-0.27
18:42:41.144,-0.355,-0.255
18:42:41.148,-0.325,-0.26
18:42:41.152,-0.245,-0.265
18:42:41.156,-0.175,-0.27
18:42:41.160,-0.095,-0.27
18:42:41.164,-0.01,-0.31
18:42:41.168,0.045,-0.34
18:42:41.172,0.105,-0.41
18:42:41.176,0.145,-0.485
18:42:41.180,0.195,-0.605
18:42:41.184,0.19,-0.705
18:42:41.188,0.195,-0.905
18:42:41.192,0.27,-1.135
18:42:41.196,0.45,-1.385
18:42:41.200,0.77,-1.7
18:42:41.204,1.085,-2.01
18:42:41.208,1.215,-2.24
18:42:41.212,1.045,-2.315
18:42:41.216,0.615,-2.055
18:42:41.220,0.155,-1.55
18:42:41.224,-0.11,-1.1
18:42:41.228,-0.255,-0.815
18:42:41.232,-0.315,-0.66
18:42:41.236,-0.355,-0.505
18:42:41.240,-0.385,-0.375
18:42:41.244,-0.42,-0.275
18:42:41.248,-0.405,-0.205
18:42:41.252,-0.4,-0.17
18:42:41.256,-0.38,-0.14
18:42:41.260,-0.335,-0.15
18:42:41.264,-0.32,-0.16
18:42:41.268,-0.315,-0.175
18:42:41.272,-0.32,-0.155
18:42:41.276,-0.31,-0.175
18:42:41.280,-0.32,-0.165
18:42:41.284,-0.345,-0.15
18:42:41.288,-0.365,-0.185
18:42:41.292,-0.395,-0.16
18:42:41.296,-0.405,-0.155
18:42:41.300,-0.375,-0.18
18:42:41.304,-0.395,-0.16
18:42:41.308,-0.41,-0.16
18:42:41.312,-0.43,-0.13
18:42:41.316,-0.445,-0.115
18:42:41.320,-0.46,-0.125
18:42:41.324,-0.47,-0.12
18:42:41.328,-0.49,-0.095
18:42:41.332,-0.515,-0.095
18:42:41.336,-0.52,-0.085
18:42:41.340,-0.535,-0.085
18:42:41.344,-0.55,-0.095
18:42:41.348,-0.535,-0.12
18:42:41.352,-0.52,-0.095
18:42:41.356,-0.505,-0.105
18:42:41.360,-0.53,-0.07
18:42:41.364,-0.52,-0.06
18:42:41.368,-0.515,-0.075
18:42:41.372,-0.515,-0.075
18:42:41.376,-0.52,-0.085
18:42:41.380,-0.49,-0.06
18:42:41.384,-0.48,-0.045
18:42:41.388,-0.465,-0.055
18:42:41.392,-0.465,-0.065
18:42:41.396,-0.45,-0.075
18:42:41.400,-0.425,-0.095
18:42:41.404,-0.37,-0.1
18:42:41.408,-0.34,-0.1
18:42:41.412,-0.3,-0.12
18:42:41.416,-0.26,-0.115
18:42:41.420,-0.21,-0.145
18:42:41.424,-0.2,-0.15
18:42:41.428,-0.165,-0.16
18:42:41.432,-0.16,-0.165
18:42:41.436,-0.15,-0.14
18:42:41.440,-0.15,-0.18
18:42:41.444,-0.175,-0.18
18:42:41.448,-0.135,-0.185
18:42:41.452,-0.13,-0.185
18:42:41.456,-0.13,-0.195
18:42:41.460,-0.115,-0.245
18:42:41.464,-0.11,-0.27
18:42:41.468,-0.11,-0.265
18:42:41.472,-0.11,-0.24
18:42:41.476,-0.1,-0.24
18:42:41.480,-0.09,-0.265
18:42:41.484,-0.09,-0.27
18:42:41.488,-0.105,-0.27
18:42:41.492,-0.105,-0.3
18:42:41.496,-0.08,-0.32
18:42:41.500,-0.105,-0.325
18:42:41.504,-0.13,-0.35
18:42:41.508,-0.145,-0.33
18:42:41.512,-0.18,-0.355
18:42:41.516,-0.18,-0.335
18:42:41.520,-0.165,-0.315
18:42:41.524,-0.185,-0.29
18:42:41.528,-0.21,-0.305
18:42:41.532,-0.24,-0.295
18:42:41.536,-0.25,-0.3
18:42:41.540,-0.26,-0.3
18:42:41.544,-0.29,-0.28
18:42:41.548,-0.305,-0.255
18:42:41.552,-0.295,-0.245
18:42:41.556,-0.32,-0.255
18:42:41.560,-0.325,-0.265
18:42:41.564,-0.35,-0.27
18:42:41.568,-0.355,-0.28
18:42:41.572,-0.38,-0.26
18:42:41.576,-0.36,-0.27
18:42:41.580,-0.375,-0.26
18:42:41.584,-0.355,-0.28
18:42:41.588,-0.35,-0.27
18:42:41.592,-0.39,-0.27
18:42:41.596,-0.38,-0.24
18:42:41.600,-0.39,-0.245
18:42:41.604,-0.385,-0.23
18:42:41.608,-0.395,-0.245
18:42:41.612,-0.395,-0.245
18:42:41.616,-0.38,-0.25
18:42:41.620,-0.385,-0.255
18:42:41.624,-0.365,-0.255
18:42:41.628,-0.315,-0.245
18:42:41.632,-0.315,-0.27
18:42:41.636,-0.255,-0.28
18:42:41.640,-0.18,-0.285
18:42:41.644,-0.075,-0.285
18:42:41.648,0.03,-0.27
18:42:41.652,0.115,-0.31
18:42:41.656,0.21,-0.345
18:42:41.660,0.32,-0.405
18:42:41.664,0.385,-0.515
18:42:41.668,0.46,-0.58
18:42:41.672,0.495,-0.69
18:42:41.676,0.475,-0.86
18:42:41.680,0.505,-1.045
18:42:41.684,0.685,-1.265
18:42:41.688,0.995,-1.55
18:42:41.692,1.24,-1.865
18:42:41.696,1.3,-2.065
18:42:41.700,1.03,-2.125
18:42:41.704,0.545,-1.915
18:42:41.708,0.135,-1.475
18:42:41.712,-0.07,-1.07
18:42:41.716,-0.165,-0.82
18:42:41.720,-0.195,-0.665
18:42:41.724,-0.18,-0.5
18:42:41.728,-0.205,-0.385
18:42:41.732,-0.28,-0.265
18:42:41.736,-0.315,-0.21
18:42:41.740,-0.32,-0.155
18:42:41.744,-0.33,-0.175
18:42:41.748,-0.35,-0.17
18:42:41.752,-0.345,-0.145
18:42:41.756,-0.335,-0.15
18:42:41.760,-0.32,-0.145
18:42:41.764,-0.33,-0.115
18:42:41.768,-0.36,-0.115
18:42:41.772,-0.36,-0.105
18:42:41.776,-0.35,-0.09
18:42:41.780,-0.36,-0.085
18:42:41.784,-0.375,-0.08
18:42:41.788,-0.385,-0.095
18:42:41.792,-0.41,-0.065
18:42:41.796,-0.44,-0.045
18:42:41.800,-0.45,-0.05
18:42:41.804,-0.465,-0.015
18:42:41.808,-0.475,-0.01
18:42:41.812,-0.5,-0.01
18:42:41.816,-0.515,0.01
18:42:41.820,-0.515,0.015
18:42:41.824,-0.525,0.015
18:42:41.828,-0.52,-0.015
18:42:41.832,-0.505,0.01
18:42:41.836,-0.52,-0.015
18:42:41.840,-0.525,0.0
18:42:41.844,-0.54,-0.015
18:42:41.848,-0.55,0.03
18:42:41.852,-0.525,0.015
18:42:41.856,-0.51,0.025
18:42:41.860,-0.47,-0.01
18:42:41.864,-0.45,0.005
18:42:41.868,-0.435,-0.015
18:42:41.872,-0.41,-0.015
18:42:41.876,-0.39,-0.02
18:42:41.880,-0.355,-0.015
18:42:41.884,-0.32,-0.015
18:42:41.888,-0.285,-0.01
18:42:41.892,-0.255,0.005
18:42:41.896,-0.24,-0.015
18:42:41.900,-0.235,-0.015
18:42:41.904,-0.215,-0.04
18:42:41.908,-0.23,-0.015
18:42:41.912,-0.24,-0.055
18:42:41.916,-0.24,-0.08
18:42:41.920,-0.23,-0.085
18:42:41.924,-0.2,-0.1
18:42:41.928,-0.2,-0.11
18:42:41.932,-0.175,-0.15
18:42:41.936,-0.145,-0.14
18:42:41.940,-0.135,-0.165
18:42:41.944,-0.12,-0.185
18:42:41.948,-0.115,-0.215
18:42:41.952,-0.11,-0.265
18:42:41.956,-0.085,-0.305
18:42:41.960,-0.11,-0.295
18:42:41.964,-0.12,-0.3
18:42:41.968,-0.13,-0.315
18:42:41.972,-0.12,-0.31
18:42:41.976,-0.125,-0.295
18:42:41.980,-0.145,-0.28
18:42:41.984,-0.16,-0.29
18:42:41.988,-0.16,-0.29
18:42:41.992,-0.17,-0.28
18:42:41.996,-0.175,-0.285
18:42:42.000,-0.195,-0.255
18:42:42.004,-0.21,-0.24
18:42:42.008,-0.205,-0.245
18:42:42.012,-0.225,-0.235
18:42:42.016,-0.24,-0.225
18:42:42.020,-0.245,-0.23
18:42:42.024,-0.25,-0.2
18:42:42.028,-0.265,-0.21
18:42:42.032,-0.255,-0.195
18:42:42.036,-0.3,-0.2
18:42:42.040,-0.295,-0.2
18:42:42.044,-0.3,-0.185
18:42:42.048,-0.315,-0.19
18:42:42.052,-0.285,-0.19
18:42:42.056,-0.3,-0.19
18:42:42.060,-0.265,-0.205
18:42:42.064,-0.23,-0.21
18:42:42.068,-0.17,-0.205
18:42:42.072,-0.07,-0.24
18:42:42.076,0.015,-0.27
18:42:42.080,0.07,-0.345
18:42:42.084,0.125,-0.415
18:42:42.088,0.165,-0.525
18:42:42.092,0.165,-0.61
18:42:42.096,0.18,-0.76
18:42:42.100,0.195,-0.945
18:42:42.104,0.32,-1.15
18:42:42.108,0.6,-1.42
18:42:42.112,0.975,-1.7
18:42:42.116,1.265,-1.965
18:42:42.120,1.32,-2.16
18:42:42.124,1.08,-2.155
18:42:42.128,0.56,-1.855
18:42:42.132,0.125,-1.335
18:42:42.136,-0.14,-0.93
18:42:42.140,-0.25,-0.665
18:42:42.144,-0.285,-0.5
18:42:42.148,-0.295,-0.355
18:42:42.152,-0.315,-0.24
18:42:42.156,-0.34,-0.145
18:42:42.160,-0.35,-0.07
18:42:42.164,-0.33,-0.02
18:42:42.168,-0.33,0.0
18:42:42.172,-0.335,0.035
18:42:42.176,-0.355,0.04
18:42:42.180,-0.37,0.01
18:42:42.184,-0.37,0.015
18:42:42.188,-0.385,0.0
18:42:42.192,-0.365,0.0
18:42:42.196,-0.365,-0.04
18:42:42.200,-0.39,-0.085
18:42:42.204,-0.39,-0.07
18:42:42.208,-0.405,-0.065
18:42:42.212,-0.415,-0.075
18:42:42.216,-0.41,-0.06
18:42:42.220,-0.44,-0.06
18:42:42.224,-0.455,-0.05
18:42:42.228,-0.44,-0.03
18:42:42.232,-0.48,-0.01
18:42:42.236,-0.46,-0.01
18:42:42.240,-0.475,-0.015
18:42:42.244,-0.465,0.0
18:42:42.248,-0.49,0.02
18:42:42.252,-0.46,0.03
18:42:42.256,-0.47,0.03
18:42:42.260,-0.495,0.03
18:42:42.264,-0.49,0.045
18:42:42.268,-0.485,0.08
18:42:42.272,-0.49,0.04
18:42:42.276,-0.475,0.04
18:42:42.280,-0.47,0.035
18:42:42.284,-0.465,0.055
18:42:42.288,-0.465,0.055
18:42:42.292,-0.475,0.045
18:42:42.296,-0.465,0.04
18:42:42.300,-0.475,0.01
18:42:42.304,-0.455,0.02
18:42:42.308,-0.435,0.0
18:42:42.312,-0.4,-0.035
18:42:42.316,-0.38,-0.015
18:42:42.320,-0.37,-0.07
18:42:42.324,-0.355,-0.075
18:42:42.328,-0.29,-0.095
18:42:42.332,-0.26,-0.095
18:42:42.336,-0.225,-0.085
18:42:42.340,-0.2,-0.105
18:42:42.344,-0.21,-0.105
18:42:42.348,-0.205,-0.105
18:42:42.352,-0.17,-0.105
18:42:42.356,-0.16,-0.095
18:42:42.360,-0.145,-0.095
18:42:42.364,-0.12,-0.105
18:42:42.368,-0.105,-0.12
18:42:42.372,-0.11,-0.13
18:42:42.376,-0.12,-0.105
18:42:42.380,-0.105,-0.11
18:42:42.384,-0.1,-0.11
18:42:42.388,-0.095,-0.115
18:42:42.392,-0.07,-0.12
18:42:42.396,-0.07,-0.115
18:42:42.400,-0.07,-0.1
18:42:42.404,-0.07,-0.105
18:42:42.408,-0.06,-0.1
18:42:42.412,-0.06,-0.085
18:42:42.416,-0.08,-0.065
18:42:42.420,-0.11,-0.075
18:42:42.424,-0.14,-0.08
18:42:42.428,-0.15,-0.14
18:42:42.432,-0.16,-0.165
18:42:42.436,-0.19,-0.18
18:42:42.440,-0.195,-0.195
18:42:42.444,-0.195,-0.195
18:42:42.448,-0.15,-0.18
18:42:42.452,-0.095,-0.2
18:42:42.456,-0.01,-0.23
18:42:42.460,0.04,-0.26
18:42:42.464,0.055,-0.305
18:42:42.468,0.065,-0.35
18:42:42.472,0.035,-0.45
18:42:42.476,0.065,-0.57
18:42:42.480,0.05,-0.72
18:42:42.484,0.11,-0.88
18:42:42.488,0.28,-1.09
18:42:42.492,0.595,-1.365
18:42:42.496,0.935,-1.675
18:42:42.500,1.165,-1.95
18:42:42.504,1.16,-2.11
18:42:42.508,0.865,-2.04
18:42:42.512,0.37,-1.67
18:42:42.516,-0.07,-1.145
18:42:42.520,-0.285,-0.8
18:42:42.524,-0.375,-0.6
18:42:42.528,-0.405,-0.44
18:42:42.532,-0.405,-0.32
18:42:42.536,-0.4,-0.19
18:42:42.540,-0.435,-0.1
18:42:42.544,-0.425,-0.06
18:42:42.548,-0.4,-0.03
18:42:42.552,-0.395,0.0
18:42:42.556,-0.4,0.04
18:42:42.560,-0.38,0.05
18:42:42.564,-0.405,0.035
18:42:42.568,-0.38,0.065
18:42:42.572,-0.38,0.04
18:42:42.576,-0.38,0.06
18:42:42.580,-0.37,0.07
18:42:42.584,-0.34,0.07
18:42:42.588,-0.34,0.085
18:42:42.592,-0.34,0.08
18:42:42.596,-0.3,0.1
18:42:42.600,-0.31,0.095
18:42:42.604,-0.31,0.12
18:42:42.608,-0.3,0.125
18:42:42.612,-0.275,0.105
18:42:42.616,-0.29,0.15
18:42:42.620,-0.31,0.17
18:42:42.624,-0.34,0.155
18:42:42.628,-0.33,0.15
18:42:42.632,-0.36,0.14
18:42:42.636,-0.355,0.12
18:42:42.640,-0.35,0.1
18:42:42.644,-0.35,0.095
18:42:42.648,-0.355,0.1
18:42:42.652,-0.38,0.075
18:42:42.656,-0.4,0.08
18:42:42.660,-0.375,0.075
18:42:42.664,-0.38,0.09
18:42:42.668,-0.35,0.085
18:42:42.672,-0.38,0.08
18:42:42.676,-0.38,0.075
18:42:42.680,-0.365,0.08
18:42:42.684,-0.34,0.055
18:42:42.688,-0.35,0.05
18:42:42.692,-0.37,0.03
18:42:42.696,-0.355,0.015
18:42:42.700,-0.36,0.005
18:42:42.704,-0.35,-0.02
18:42:42.708,-0.35,-0.045
18:42:42.712,-0.35,-0.095
18:42:42.716,-0.36,-0.105
18:42:42.720,-0.35,-0.1
18:42:42.724,-0.32,-0.11
18:42:42.728,-0.3,-0.075
18:42:42.732,-0.3,-0.12
18:42:42.736,-0.255,-0.11
18:42:42.740,-0.26,-0.105
18:42:42.744,-0.255,-0.12
18:42:42.748,-0.235,-0.12
18:42:42.752,-0.21,-0.11
18:42:42.756,-0.19,-0.13
18:42:42.760,-0.2,-0.12
18:42:42.764,-0.19,-0.105
18:42:42.768,-0.19,-0.11
18:42:42.772,-0.16,-0.095
18:42:42.776,-0.16,-0.08
18:42:42.780,-0.155,-0.08
18:42:42.784,-0.165,-0.1
18:42:42.788,-0.175,-0.08
18:42:42.792,-0.165,-0.08
18:42:42.796,-0.17,-0.08
18:42:42.800,-0.17,-0.09
18:42:42.804,-0.185,-0.095
18:42:42.808,-0.165,-0.09
18:42:42.812,-0.135,-0.07
18:42:42.816,-0.125,-0.06
18:42:42.820,-0.14,-0.09
18:42:42.824,-0.14,-0.08
18:42:42.828,-0.135,-0.06
18:42:42.832,-0.16,-0.055
18:42:42.836,-0.155,-0.05
18:42:42.840,-0.16,-0.06
18:42:42.844,-0.17,-0.035
18:42:42.848,-0.215,-0.06
18:42:42.852,-0.19,-0.105
18:42:42.856,-0.195,-0.1
18:42:42.860,-0.195,-0.12
18:42:42.864,-0.225,-0.155
18:42:42.868,-0.235,-0.185
18:42:42.872,-0.235,-0.185
18:42:42.876,-0.245,-0.19
18:42:42.880,-0.27,-0.18
18:42:42.884,-0.25,-0.17
18:42:42.888,-0.26,-0.175
18:42:42.892,-0.24,-0.165
18:42:42.896,-0.25,-0.17
18:42:42.900,-0.27,-0.16
18:42:42.904,-0.265,-0.145
18:42:42.908,-0.26,-0.16
18:42:42.912,-0.265,-0.17
18:42:42.916,-0.275,-0.15
18:42:42.920,-0.3,-0.165
18:42:42.924,-0.315,-0.175
18:42:42.928,-0.335,-0.18
18:42:42.932,-0.34,-0.19
18:42:42.936,-0.335,-0.185
18:42:42.940,-0.34,-0.2
18:42:42.944,-0.35,-0.17
18:42:42.948,-0.36,-0.155
18:42:42.952,-0.34,-0.16
18:42:42.956,-0.36,-0.17
18:42:42.960,-0.32,-0.17
18:42:42.964,-0.3,-0.15
18:42:42.968,-0.285,-0.16
18:42:42.972,-0.255,-0.16
18:42:42.976,-0.22,-0.145
18:42:42.980,-0.19,-0.15
18:42:42.984,-0.125,-0.15
18:42:42.988,-0.095,-0.175
18:42:42.992,0.01,-0.185
18:42:42.996,0.08,-0.2
18:42:43.000,0.145,-0.215
18:42:43.004,0.22,-0.3
18:42:43.008,0.26,-0.39
18:42:43.012,0.27,-0.495
18:42:43.016,0.26,-0.625
18:42:43.020,0.27,-0.805
18:42:43.024,0.315,-1.06
18:42:43.028,0.49,-1.3
18:42:43.032,0.795,-1.585
18:42:43.036,1.12,-1.895
18:42:43.040,1.26,-2.12
18:42:43.044,1.1,-2.155
18:42:43.048,0.645,-1.965
18:42:43.052,0.16,-1.48
18:42:43.056,-0.145,-0.975
18:42:43.060,-0.3,-0.66
18:42:43.064,-0.36,-0.505
18:42:43.068,-0.37,-0.32
18:42:43.072,-0.395,-0.21
18:42:43.076,-0.425,-0.1
18:42:43.080,-0.49,-0.065
18:42:43.084,-0.5,-0.045
18:42:43.088,-0.495,-0.02
18:42:43.092,-0.51,-0.01
18:42:43.096,-0.485,-0.03
18:42:43.100,-0.495,-0.02
18:42:43.104,-0.49,-0.02
18:42:43.108,-0.51,-0.01
18:42:43.112,-0.5,0.0
18:42:43.116,-0.51,0.02
18:42:43.120,-0.51,0.015
18:42:43.124,-0.495,-0.01
18:42:43.128,-0.475,0.0
18:42:43.132,-0.495,0.005
18:42:43.136,-0.495,0.02
18:42:43.140,-0.51,0.03
18:42:43.144,-0.51,0.03
18:42:43.148,-0.535,0.015
18:42:43.152,-0.55,0.005
18:42:43.156,-0.55,0.05
18:42:43.160,-0.555,0.05
18:42:43.164,-0.53,0.065
18:42:43.168,-0.52,0.06
18:42:43.172,-0.5,0.06
18:42:43.176,-0.515,0.08
18:42:43.180,-0.52,0.075
18:42:43.184,-0.505,0.08
18:42:43.188,-0.485,0.08
18:42:43.192,-0.46,0.09
18:42:43.196,-0.445,0.095
18:42:43.200,-0.455,0.095
18:42:43.204,-0.41,0.1
18:42:43.208,-0.41,0.115
18:42:43.212,-0.37,0.14
18:42:43.216,-0.38,0.14
18:42:43.220,-0.36,0.13
18:42:43.224,-0.355,0.105
18:42:43.228,-0.325,0.105
18:42:43.232,-0.3,0.105
18:42:43.236,-0.265,0.095
18:42:43.240,-0.275,0.07
18:42:43.244,-0.26,0.075
18:42:43.248,-0.27,0.075
18:42:43.252,-0.26,0.05
18:42:43.256,-0.27,0.015
18:42:43.260,-0.26,0.01
18:42:43.264,-0.265,-0.025
18:42:43.268,-0.25,-0.005
18:42:43.272,-0.27,-0.025
18:42:43.276,-0.26,-0.08
18:42:43.280,-0.255,-0.095
18:42:43.284,-0.26,-0.15
18:42:43.288,-0.25,-0.155
18:42:43.292,-0.255,-0.15
18:42:43.296,-0.25,-0.175
18:42:43.300,-0.265,-0.2
18:42:43.304,-0.27,-0.225
18:42:43.308,-0.28,-0.225
18:42:43.312,-0.285,-0.185
18:42:43.316,-0.28,-0.195
18:42:43.320,-0.295,-0.195
18:42:43.324,-0.305,-0.195
18:42:43.328,-0.26,-0.17
18:42:43.332,-0.285,-0.185
18:42:43.336,-0.28,-0.165
18:42:43.340,-0.27,-0.16
18:42:43.344,-0.27,-0.16
18:42:43.348,-0.27,-0.14
18:42:43.352,-0.295,-0.15
18:42:43.356,-0.28,-0.14
18:42:43.360,-0.31,-0.145
18:42:43.364,-0.33,-0.135
18:42:43.368,-0.31,-0.135
18:42:43.372,-0.31,-0.135
18:42:43.376,-0.34,-0.105
18:42:43.380,-0.335,-0.08
18:42:43.384,-0.33,-0.08
18:42:43.388,-0.345,-0.09
18:42:43.392,-0.35,-0.1
18:42:43.396,-0.34,-0.09
18:42:43.400,-0.335,-0.08
18:42:43.404,-0.33,-0.1
18:42:43.408,-0.325,-0.11
18:42:43.412,-0.31,-0.1
18:42:43.416,-0.32,-0.12
18:42:43.420,-0.32,-0.14
18:42:43.424,-0.315,-0.15
18:42:43.428,-0.32,-0.15
18:42:43.432,-0.315,-0.125
18:42:43.436,-0.32,-0.14
18:42:43.440,-0.32,-0.175
18:42:43.444,-0.285,-0.175
18:42:43.448,-0.29,-0.135
18:42:43.452,-0.27,-0.145
18:42:43.456,-0.285,-0.16
18:42:43.460,-0.27,-0.17
18:42:43.464,-0.235,-0.12
18:42:43.468,-0.24,-0.145
18:42:43.472,-0.215,-0.125
18:42:43.476,-0.22,-0.115
18:42:43.480,-0.195,-0.095
18:42:43.484,-0.185,-0.1
18:42:43.488,-0.19,-0.115
18:42:43.492,-0.185,-0.125
18:42:43.496,-0.185,-0.135
18:42:43.500,-0.19,-0.14
18:42:43.504,-0.19,-0.155
18:42:43.508,-0.2,-0.185
18:42:43.512,-0.185,-0.195
18:42:43.516,-0.16,-0.21
18:42:43.520,-0.14,-0.22
18:42:43.524,-0.08,-0.225
18:42:43.528,-0.04,-0.25
18:42:43.532,0.035,-0.285
18:42:43.536,0.11,-0.32
18:42:43.540,0.17,-0.365
18:42:43.544,0.195,-0.435
18:42:43.548,0.23,-0.545
18:42:43.552,0.235,-0.65
18:42:43.556,0.22,-0.79
18:42:43.560,0.195,-1.0
18:42:43.564,0.27,-1.21
18:42:43.568,0.505,-1.475
18:42:43.572,0.845,-1.825
18:42:43.576,1.075,-2.085
18:42:43.580,1.09,-2.245
18:42:43.584,0.8,-2.24
18:42:43.588,0.295,-1.83
18:42:43.592,-0.115,-1.3
18:42:43.596,-0.31,-0.865
18:42:43.600,-0.38,-0.63
18:42:43.604,-0.4,-0.47
18:42:43.608,-0.4,-0.305
18:42:43.612,-0.41,-0.2
18:42:43.616,-0.435,-0.11
18:42:43.620,-0.455,-0.045
18:42:43.624,-0.44,-0.02
18:42:43.628,-0.44,-0.03
18:42:43.632,-0.46,0.0
18:42:43.636,-0.44,0.005
18:42:43.640,-0.44,0.005
18:42:43.644,-0.44,-0.005
18:42:43.648,-0.45,0.005
18:42:43.652,-0.48,0.0
18:42:43.656,-0.49,0.0
18:42:43.660,-0.48,0.025
18:42:43.664,-0.48,0.0
18:42:43.668,-0.48,0.0
18:42:43.672,-0.47,-0.01
18:42:43.676,-0.495,0.03
18:42:43.680,-0.495,0.025
18:42:43.684,-0.5,0.035
18:42:43.688,-0.485,0.03
18:42:43.692,-0.49,0.02
18:42:43.696,-0.495,0.035
18:42:43.700,-0.465,0.03
18:42:43.704,-0.45,0.05
18:42:43.708,-0.435,0.03
18:42:43.712,-0.42,0.065
18:42:43.716,-0.415,0.04
18:42:43.720,-0.36,0.05
18:42:43.724,-0.345,0.065
18:42:43.728,-0.335,0.055
18:42:43.732,-0.315,0.045
18:42:43.736,-0.325,0.025
18:42:43.740,-0.31,0.035
18:42:43.744,-0.31,0.025
18:42:43.748,-0.32,0.025
18:42:43.752,-0.34,0.015
18:42:43.756,-0.365,0.005
18:42:43.760,-0.39,-0.005
18:42:43.764,-0.425,-0.01
18:42:43.768,-0.44,-0.02
18:42:43.772,-0.445,-0.03
18:42:43.776,-0.435,-0.045
18:42:43.780,-0.42,-0.055
18:42:43.784,-0.415,-0.06
18:42:43.788,-0.41,-0.09
18:42:43.792,-0.42,-0.11
18:42:43.796,-0.415,-0.125
18:42:43.800,-0.4,-0.12
18:42:43.804,-0.395,-0.13
18:42:43.808,-0.395,-0.155
18:42:43.812,-0.385,-0.165
18:42:43.816,-0.375,-0.16
18:42:43.820,-0.365,-0.15
18:42:43.824,-0.32,-0.165
18:42:43.828,-0.33,-0.155
18:42:43.832,-0.32,-0.14
18:42:43.836,-0.28,-0.15
18:42:43.840,-0.28,-0.13
18:42:43.844,-0.26,-0.13
18:42:43.848,-0.255,-0.125
18:42:43.852,-0.23,-0.13
18:42:43.856,-0.235,-0.17
18:42:43.860,-0.21,-0.18
18:42:43.864,-0.225,-0.16
18:42:43.868,-0.205,-0.16
18:42:43.872,-0.22,-0.165
18:42:43.876,-0.235,-0.16
18:42:43.880,-0.255,-0.165
18:42:43.884,-0.26,-0.14
18:42:43.888,-0.28,-0.165
18:42:43.892,-0.25,-0.15
18:42:43.896,-0.275,-0.15
18:42:43.900,-0.285,-0.15
18:42:43.904,-0.29,-0.155
18:42:43.908,-0.32,-0.16
18:42:43.912,-0.295,-0.15
18:42:43.916,-0.245,-0.165
18:42:43.920,-0.17,-0.17
18:42:43.924,-0.07,-0.205
18:42:43.928,0.035,-0.21
18:42:43.932,0.1,-0.24
18:42:43.936,0.2,-0.285
18:42:43.940,0.22,-0.405
18:42:43.944,0.25,-0.48
18:42:43.948,0.245,-0.625
18:42:43.952,0.23,-0.82
18:42:43.956,0.295,-1.015
18:42:43.960,0.515,-1.295
18:42:43.964,0.8,-1.57
18:42:43.968,1.07,-1.92
18:42:43.972,1.16,-2.18
18:42:43.976,0.98,-2.255
18:42:43.980,0.555,-2.02
18:42:43.984,0.11,-1.54
18:42:43.988,-0.195,-1.11
18:42:43.992,-0.33,-0.83
18:42:43.996,-0.41,-0.645
18:42:44.000,-0.45,-0.48
18:42:44.004,-0.5,-0.355
18:42:44.008,-0.525,-0.24
18:42:44.012,-0.55,-0.19
18:42:44.016,-0.575,-0.16
18:42:44.020,-0.605,-0.135
18:42:44.024,-0.595,-0.135
18:42:44.028,-0.58,-0.12
18:42:44.032,-0.595,-0.12
18:42:44.036,-0.585,-0.115
18:42:44.040,-0.585,-0.085
18:42:44.044,-0.58,-0.065
18:42:44.048,-0.56,-0.065
18:42:44.052,-0.575,-0.045
18:42:44.056,-0.6,0.0
18:42:44.060,-0.605,-0.01
18:42:44.064,-0.61,0.0
18:42:44.068,-0.61,0.025
18:42:44.072,-0.595,0.03
18:42:44.076,-0.595,0.04
18:42:44.080,-0.555,0.035
18:42:44.084,-0.52,0.03
18:42:44.088,-0.505,0.04
18:42:44.092,-0.485,0.045
18:42:44.096,-0.48,0.05
18:42:44.100,-0.475,0.045
18:42:44.104,-0.475,0.05
18:42:44.108,-0.505,0.05
18:42:44.112,-0.52,0.045
18:42:44.116,-0.545,0.055
18:42:44.120,-0.54,0.045
18:42:44.124,-0.57,0.065
18:42:44.128,-0.545,0.045
18:42:44.132,-0.57,0.035
18:42:44.136,-0.56,0.02
18:42:44.140,-0.56,-0.005
18:42:44.144,-0.53,0.015
18:42:44.148,-0.495,0.0
18:42:44.152,-0.48,-0.015
18:42:44.156,-0.45,-0.03
18:42:44.160,-0.41,-0.035
18:42:44.164,-0.425,-0.035
18:42:44.168,-0.42,-0.055
18:42:44.172,-0.395,-0.07
18:42:44.176,-0.39,-0.115
18:42:44.180,-0.38,-0.16
18:42:44.184,-0.39,-0.17
18:42:44.188,-0.385,-0.2
18:42:44.192,-0.37,-0.205
18:42:44.196,-0.355,-0.22
18:42:44.200,-0.34,-0.225
18:42:44.204,-0.36,-0.245
18:42:44.208,-0.365,-0.25
18:42:44.212,-0.36,-0.255
18:42:44.216,-0.365,-0.255
18:42:44.220,-0.37,-0.24
18:42:44.224,-0.38,-0.245
18:42:44.228,-0.375,-0.26
18:42:44.232,-0.375,-0.26
18:42:44.236,-0.4,-0.245
18:42:44.240,-0.4,-0.255
18:42:44.244,-0.395,-0.25
18:42:44.248,-0.4,-0.26
18:42:44.252,-0.405,-0.265
18:42:44.256,-0.41,-0.26
18:42:44.260,-0.45,-0.23
18:42:44.264,-0.45,-0.225
18:42:44.268,-0.45,-0.205
18:42:44.272,-0.455,-0.205
18:42:44.276,-0.455,-0.21
18:42:44.280,-0.445,-0.195
18:42:44.284,-0.43,-0.185
18:42:44.288,-0.44,-0.185
18:42:44.292,-0.42,-0.17
18:42:44.296,-0.41,-0.18
18:42:44.300,-0.4,-0.17
18:42:44.304,-0.385,-0.17
18:42:44.308,-0.35,-0.175
18:42:44.312,-0.315,-0.16
18:42:44.316,-0.305,-0.175
18:42:44.320,-0.275,-0.16
18:42:44.324,-0.27,-0.185
18:42:44.328,-0.255,-0.21
18:42:44.332,-0.29,-0.185
18:42:44.336,-0.285,-0.16
18:42:44.340,-0.285,-0.18
18:42:44.344,-0.315,-0.14
18:42:44.348,-0.315,-0.16
18:42:44.352,-0.305,-0.185
18:42:44.356,-0.3,-0.205
18:42:44.360,-0.315,-0.2
18:42:44.364,-0.34,-0.195
18:42:44.368,-0.325,-0.21
18:42:44.372,-0.32,-0.22
18:42:44.376,-0.33,-0.215
18:42:44.380,-0.32,-0.23
18:42:44.384,-0.32,-0.235
18:42:44.388,-0.305,-0.21
18:42:44.392,-0.33,-0.21
18:42:44.396,-0.315,-0.21
18:42:44.400,-0.34,-0.195
18:42:44.404,-0.33,-0.195
18:42:44.408,-0.355,-0.21
18:42:44.412,-0.36,-0.21
18:42:44.416,-0.365,-0.245
18:42:44.420,-0.37,-0.3
18:42:44.424,-0.37,-0.31
18:42:44.428,-0.37,-0.325
18:42:44.432,-0.38,-0.295
18:42:44.436,-0.385,-0.315
18:42:44.440,-0.415,-0.3
18:42:44.444,-0.395,-0.31
18:42:44.448,-0.405,-0.29
18:42:44.452,-0.375,-0.305
18:42:44.456,-0.385,-0.3
18:42:44.460,-0.38,-0.275
18:42:44.464,-0.39,-0.295
18:42:44.468,-0.37,-0.295
18:42:44.472,-0.38,-0.26
18:42:44.476,-0.385,-0.25
18:42:44.480,-0.405,-0.24
18:42:44.484,-0.43,-0.23
18:42:44.488,-0.41,-0.24
18:42:44.492,-0.415,-0.22
18:42:44.496,-0.38,-0.225
18:42:44.500,-0.41,-0.245
18:42:44.504,-0.425,-0.255
18:42:44.508,-0.405,-0.215
18:42:44.512,-0.375,-0.22
18:42:44.516,-0.36,-0.235
18:42:44.520,-0.355,-0.22
18:42:44.524,-0.345,-0.215
18:42:44.528,-0.34,-0.215
18:42:44.532,-0.35,-0.215
18:42:44.536,-0.33,-0.2
18:42:44.540,-0.285,-0.22
18:42:44.544,-0.27,-0.23
18:42:44.548,-0.255,-0.235
18:42:44.552,-0.25,-0.24
18:42:44.556,-0.235,-0.215
18:42:44.560,-0.26,-0.19
18:42:44.564,-0.265,-0.175
18:42:44.568,-0.265,-0.15
18:42:44.572,-0.265,-0.16
18:42:44.576,-0.255,-0.16
18:42:44.580,-0.265,-0.175
18:42:44.584,-0.245,-0.175
18:42:44.588,-0.27,-0.18
18:42:44.592,-0.31,-0.19
18:42:44.596,-0.31,-0.21
18:42:44.600,-0.315,-0.195
18:42:44.604,-0.315,-0.2
18:42:44.608,-0.315,-0.215
18:42:44.612,-0.31,-0.22
18:42:44.616,-0.31,-0.235
18:42:44.620,-0.33,-0.26
18:42:44.624,-0.32,-0.265
18:42:44.628,-0.305,-0.23
18:42:44.632,-0.315,-0.21
18:42:44.636,-0.275,-0.255
18:42:44.640,-0.22,-0.235
18:42:44.644,-0.155,-0.265
18:42:44.648,-0.07,-0.315
18:42:44.652,0.0,-0.385
18:42:44.656,0.075,-0.465
18:42:44.660,0.105,-0.525
18:42:44.664,0.125,-0.62
18:42:44.668,0.125,-0.71
18:42:44.672,0.105,-0.82
18:42:44.676,0.13,-1.0
18:42:44.680,0.21,-1.215
18:42:44.684,0.425,-1.46
18:42:44.688,0.755,-1.77
18:42:44.692,1.045,-2.05
18:42:44.696,1.13,-2.2
18:42:44.700,0.89,-2.215
18:42:44.704,0.41,-1.91
18:42:44.708,-0.065,-1.425
18:42:44.712,-0.35,-0.97
18:42:44.716,-0.45,-0.735
18:42:44.720,-0.52,-0.555
18:42:44.724,-0.525,-0.395
18:42:44.728,-0.545,-0.245
18:42:44.732,-0.565,-0.17
18:42:44.736,-0.575,-0.085
18:42:44.740,-0.56,-0.065
18:42:44.744,-0.58,-0.045
18:42:44.748,-0.56,-0.035
18:42:44.752,-0.58,-0.05
18:42:44.756,-0.53,-0.045
18:42:44.760,-0.505,-0.05
18:42:44.764,-0.525,-0.03
18:42:44.768,-0.49,-0.05
18:42:44.772,-0.49,-0.035
18:42:44.776,-0.48,-0.035
18:42:44.780,-0.465,-0.025
18:42:44.784,-0.465,-0.015
18:42:44.788,-0.455,-0.01
18:42:44.792,-0.445,0.005
18:42:44.796,-0.455,0.02
18:42:44.800,-0.44,0.015
18:42:44.804,-0.445,0.005
18:42:44.808,-0.445,0.025
18:42:44.812,-0.445,0.025
18:42:44.816,-0.46,0.025
18:42:44.820,-0.445,0.03
18:42:44.824,-0.485,0.025
18:42:44.828,-0.49,0.035
18:42:44.832,-0.5,0.01
18:42:44.836,-0.515,0.025
18:42:44.840,-0.535,0.01
18:42:44.844,-0.515,0.02
18:42:44.848,-0.515,0.01
18:42:44.852,-0.52,0.02
18:42:44.856,-0.525,0.02
18:42:44.860,-0.505,0.02
18:42:44.864,-0.51,0.0
18:42:44.868,-0.52,-0.01
18:42:44.872,-0.525,-0.035
18:42:44.876,-0.53,-0.075
18:42:44.880,-0.54,-0.075
18:42:44.884,-0.52,-0.105
18:42:44.888,-0.505,-0.11
18:42:44.892,-0.505,-0.105
18:42:44.896,-0.5,-0.105
18:42:44.900,-0.495,-0.1
18:42:44.904,-0.5,-0.08
18:42:44.908,-0.505,-0.085
18:42:44.912,-0.505,-0.09
18:42:44.916,-0.495,-0.085
18:42:44.920,-0.51,-0.1
18:42:44.924,-0.48,-0.095
18:42:44.928,-0.465,-0.08
18:42:44.932,-0.465,-0.11
18:42:44.936,-0.445,-0.11
18:42:44.940,-0.46,-0.13
18:42:44.944,-0.425,-0.155
18:42:44.948,-0.435,-0.13
18:42:44.952,-0.415,-0.15
18:42:44.956,-0.425,-0.18
18:42:44.960,-0.435,-0.17
18:42:44.964,-0.425,-0.2
18:42:44.968,-0.44,-0.18
18:42:44.972,-0.415,-0.19
18:42:44.976,-0.39,-0.175
18:42:44.980,-0.395,-0.185
18:42:44.984,-0.39,-0.215
18:42:44.988,-0.35,-0.19
18:42:44.992,-0.34,-0.215
18:42:44.996,-0.33,-0.215
18:42:45.000,-0.315,-0.195
18:42:45.004,-0.32,-0.195
18:42:45.008,-0.295,-0.175
18:42:45.012,-0.32,-0.175
18:42:45.016,-0.31,-0.165
18:42:45.020,-0.31,-0.14
18:42:45.024,-0.285,-0.13
18:42:45.028,-0.295,-0.165
18:42:45.032,-0.31,-0.175
18:42:45.036,-0.31,-0.16
18:42:45.040,-0.32,-0.145
18:42:45.044,-0.315,-0.135
18:42:45.048,-0.345,-0.12
18:42:45.052,-0.34,-0.145
18:42:45.056,-0.355,-0.135
18:42:45.060,-0.385,-0.145
18:42:45.064,-0.4,-0.125
18:42:45.068,-0.385,-0.13
18:42:45.072,-0.43,-0.12
18:42:45.076,-0.435,-0.135
18:42:45.080,-0.435,-0.135
18:42:45.084,-0.445,-0.17
18:42:45.088,-0.455,-0.185
18:42:45.092,-0.43,-0.18
18:42:45.096,-0.455,-0.25
18:42:45.100,-0.455,-0.275
18:42:45.104,-0.46,-0.305
18:42:45.108,-0.45,-0.31
18:42:45.112,-0.45,-0.29
18:42:45.116,-0.43,-0.27
18:42:45.120,-0.45,-0.27
18:42:45.124,-0.455,-0.28
18:42:45.128,-0.475,-0.3
18:42:45.132,-0.5,-0.28
18:42:45.136,-0.475,-0.285
18:42:45.140,-0.485,-0.29
18:42:45.144,-0.455,-0.26
18:42:45.148,-0.45,-0.27
18:42:45.152,-0.455,-0.23
18:42:45.156,-0.445,-0.235
18:42:45.160,-0.445,-0.225
18:42:45.164,-0.43,-0.225
18:42:45.168,-0.42,-0.235
18:42:45.172,-0.435,-0.235
18:42:45.176,-0.41,-0.245
18:42:45.180,-0.425,-0.22
18:42:45.184,-0.45,-0.21
18:42:45.188,-0.45,-0.235
18:42:45.192,-0.445,-0.245
18:42:45.196,-0.45,-0.215
18:42:45.200,-0.455,-0.225
18:42:45.204,-0.46,-0.23
18:42:45.208,-0.42,-0.22
18:42:45.212,-0.39,-0.23
18:42:45.216,-0.325,-0.26
18:42:45.220,-0.255,-0.25
18:42:45.224,-0.155,-0.255
18:42:45.228,-0.08,-0.285
18:42:45.232,0.0,-0.33
18:42:45.236,0.03,-0.385
18:42:45.240,0.095,-0.475
18:42:45.244,0.105,-0.545
18:42:45.248,0.085,-0.66
18:42:45.252,0.085,-0.84
18:42:45.256,0.135,-1.035
18:42:45.260,0.355,-1.3
18:42:45.264,0.67,-1.585
18:42:45.268,0.995,-1.885
18:42:45.272,1.135,-2.115
18:42:45.276,1.015,-2.205
18:42:45.280,0.57,-1.98
18:42:45.284,0.065,-1.51
18:42:45.288,-0.24,-1.03
18:42:45.292,-0.42,-0.73
18:42:45.296,-0.475,-0.56
18:42:45.300,-0.5,-0.44
18:42:45.304,-0.515,-0.305
18:42:45.308,-0.55,-0.23
18:42:45.312,-0.57,-0.18
18:42:45.316,-0.595,-0.14
18:42:45.320,-0.59,-0.145
18:42:45.324,-0.6,-0.145
18:42:45.328,-0.62,-0.13
18:42:45.332,-0.635,-0.145
18:42:45.336,-0.63,-0.12
18:42:45.340,-0.64,-0.105
18:42:45.344,-0.635,-0.105
18:42:45.348,-0.655,-0.105
18:42:45.352,-0.66,-0.125
18:42:45.356,-0.66,-0.08
18:42:45.360,-0.675,-0.085
18:42:45.364,-0.665,-0.065
18:42:45.368,-0.66,-0.06
18:42:45.372,-0.65,-0.04
18:42:45.376,-0.655,-0.02
18:42:45.380,-0.67,0.0
18:42:45.384,-0.66,-0.015
18:42:45.388,-0.64,-0.015
18:42:45.392,-0.64,-0.01
18:42:45.396,-0.63,0.0
18:42:45.400,-0.64,0.015
18:42:45.404,-0.635,0.015
18:42:45.408,-0.64,0.03
18:42:45.412,-0.655,0.055
18:42:45.416,-0.64,0.065
18:42:45.420,-0.635,0.09
18:42:45.424,-0.65,0.07
18:42:45.428,-0.635,0.085
18:42:45.432,-0.64,0.08
18:42:45.436,-0.61,0.075
18:42:45.440,-0.595,0.085
18:42:45.444,-0.575,0.07
18:42:45.448,-0.59,0.055
18:42:45.452,-0.545,0.06
18:42:45.456,-0.545,0.07
18:42:45.460,-0.515,0.065
18:42:45.464,-0.495,0.05
18:42:45.468,-0.455,0.045
18:42:45.472,-0.455,0.02
18:42:45.476,-0.455,0.01
18:42:45.480,-0.445,-0.005
18:42:45.484,-0.445,-0.045
18:42:45.488,-0.43,-0.065
18:42:45.492,-0.455,-0.08
18:42:45.496,-0.445,-0.095
18:42:45.500,-0.445,-0.095
18:42:45.504,-0.42,-0.11
18:42:45.508,-0.425,-0.125
18:42:45.512,-0.405,-0.15
18:42:45.516,-0.395,-0.17
18:42:45.520,-0.405,-0.195
18:42:45.524,-0.395,-0.195
18:42:45.528,-0.39,-0.19
18:42:45.532,-0.385,-0.205
18:42:45.536,-0.38,-0.24
18:42:45.540,-0.385,-0.245
18:42:45.544,-0.395,-0.24
18:42:45.548,-0.39,-0.215
18:42:45.552,-0.42,-0.23
18:42:45.556,-0.43,-0.225
18:42:45.560,-0.43,-0.23
18:42:45.564,-0.44,-0.23
18:42:45.568,-0.435,-0.22
18:42:45.572,-0.445,-0.235
18:42:45.576,-0.43,-0.24
18:42:45.580,-0.42,-0.225
18:42:45.584,-0.43,-0.22
18:42:45.588,-0.445,-0.195
18:42:45.592,-0.45,-0.2
18:42:45.596,-0.425,-0.17
18:42:45.600,-0.44,-0.16
18:42:45.604,-0.45,-0.155
18:42:45.608,-0.455,-0.14
18:42:45.612,-0.44,-0.14
18:42:45.616,-0.385,-0.13
18:42:45.620,-0.32,-0.135
18:42:45.624,-0.235,-0.13
18:42:45.628,-0.2,-0.18
18:42:45.632,-0.12,-0.21
18:42:45.636,-0.08,-0.255
18:42:45.640,-0.065,-0.32
18:42:45.644,-0.065,-0.42
18:42:45.648,-0.07,-0.55
18:42:45.652,-0.08,-0.725
18:42:45.656,-0.02,-0.945
18:42:45.660,0.145,-1.185
18:42:45.664,0.495,-1.485
18:42:45.668,0.83,-1.84
18:42:45.672,1.06,-2.14
18:42:45.676,1.02,-2.26
18:42:45.680,0.705,-2.14
18:42:45.684,0.235,-1.7
18:42:45.688,-0.175,-1.17
18:42:45.692,-0.365,-0.785
18:42:45.696,-0.46,-0.6
18:42:45.700,-0.505,-0.49
18:42:45.704,-0.5,-0.35
18:42:45.708,-0.525,-0.23
18:42:45.712,-0.55,-0.135
18:42:45.716,-0.54,-0.09
18:42:45.720,-0.53,-0.055
18:42:45.724,-0.55,-0.035
18:42:45.728,-0.55,-0.025
18:42:45.732,-0.54,-0.03
18:42:45.736,-0.54,-0.03
18:42:45.740,-0.54,-0.01
18:42:45.744,-0.55,-0.01
18:42:45.748,-0.555,0.0
18:42:45.752,-0.54,-0.01
18:42:45.756,-0.52,-0.01
18:42:45.760,-0.525,-0.035
18:42:45.764,-0.535,-0.025
18:42:45.768,-0.535,-0.045
18:42:45.772,-0.555,-0.025
18:42:45.776,-0.575,-0.045
18:42:45.780,-0.57,-0.07
18:42:45.784,-0.6,-0.075
18:42:45.788,-0.645,-0.04
18:42:45.792,-0.65,-0.01
18:42:45.796,-0.655,-0.04
18:42:45.800,-0.65,-0.03
18:42:45.804,-0.67,-0.005
18:42:45.808,-0.685,0.0
18:42:45.812,-0.675,0.01
18:42:45.816,-0.68,0.02
18:42:45.820,-0.665,0.015
18:42:45.824,-0.67,0.015
18:42:45.828,-0.685,0.02
18:42:45.832,-0.635,0.01
18:42:45.836,-0.63,0.02
18:42:45.840,-0.64,0.035
18:42:45.844,-0.63,0.035
18:42:45.848,-0.605,0.02
18:42:45.852,-0.61,0.005
18:42:45.856,-0.6,0.005
18:42:45.860,-0.585,0.005
18:42:45.864,-0.575,-0.01
18:42:45.868,-0.56,-0.01
18:42:45.872,-0.54,-0.035
18:42:45.876,-0.52,-0.04
18:42:45.880,-0.495,-0.08
18:42:45.884,-0.46,-0.11
18:42:45.888,-0.465,-0.13
18:42:45.892,-0.405,-0.12
18:42:45.896,-0.39,-0.145
18:42:45.900,-0.39,-0.14
18:42:45.904,-0.36,-0.18
18:42:45.908,-0.38,-0.18
18:42:45.912,-0.385,-0.2
18:42:45.916,-0.385,-0.19
18:42:45.920,-0.395,-0.19
18:42:45.924,-0.38,-0.22
18:42:45.928,-0.39,-0.22
18:42:45.932,-0.405,-0.21
18:42:45.936,-0.41,-0.205
18:42:45.940,-0.405,-0.225
18:42:45.944,-0.405,-0.22
18:42:45.948,-0.375,-0.205
18:42:45.952,-0.385,-0.225
18:42:45.956,-0.395,-0.21
18:42:45.960,-0.4,-0.23
18:42:45.964,-0.405,-0.21
18:42:45.968,-0.41,-0.22
18:42:45.972,-0.425,-0.195
18:42:45.976,-0.405,-0.205
18:42:45.980,-0.43,-0.185
18:42:45.984,-0.445,-0.19
18:42:45.988,-0.41,-0.18
18:42:45.992,-0.415,-0.19
18:42:45.996,-0.38,-0.195
18:42:46.000,-0.385,-0.2
18:42:46.004,-0.39,-0.19
18:42:46.008,-0.4,-0.195
18:42:46.012,-0.38,-0.175
18:42:46.016,-0.405,-0.18
18:42:46.020,-0.395,-0.22
18:42:46.024,-0.42,-0.235
18:42:46.028,-0.435,-0.26
18:42:46.032,-0.43,-0.255
18:42:46.036,-0.42,-0.27
18:42:46.040,-0.425,-0.28
18:42:46.044,-0.41,-0.255
18:42:46.048,-0.415,-0.27
18:42:46.052,-0.405,-0.255
18:42:46.056,-0.4,-0.25
18:42:46.060,-0.42,-0.235
18:42:46.064,-0.415,-0.23
18:42:46.068,-0.42,-0.21
18:42:46.072,-0.435,-0.2
18:42:46.076,-0.44,-0.21
18:42:46.080,-0.46,-0.235
18:42:46.084,-0.465,-0.22
18:42:46.088,-0.49,-0.24
18:42:46.092,-0.5,-0.25
18:42:46.096,-0.49,-0.23
18:42:46.100,-0.505,-0.24
18:42:46.104,-0.48,-0.24
18:42:46.108,-0.44,-0.23
18:42:46.112,-0.445,-0.265
18:42:46.116,-0.47,-0.26
18:42:46.120,-0.455,-0.245
18:42:46.124,-0.455,-0.24
18:42:46.128,-0.42,-0.22
18:42:46.132,-0.44,-0.215
18:42:46.136,-0.46,-0.23
18:42:46.140,-0.455,-0.25
18:42:46.144,-0.435,-0.25
18:42:46.148,-0.445,-0.255
18:42:46.152,-0.425,-0.245
18:42:46.156,-0.435,-0.27
18:42:46.160,-0.435,-0.25
18:42:46.164,-0.425,-0.235
18:42:46.168,-0.445,-0.265
18:42:46.172,-0.435,-0.24
18:42:46.176,-0.445,-0.255
18:42:46.180,-0.465,-0.245
18:42:46.184,-0.45,-0.24
18:42:46.188,-0.45,-0.245
18:42:46.192,-0.435,-0.245
18:42:46.196,-0.44,-0.255
18:42:46.200,-0.405,-0.255
18:42:46.204,-0.385,-0.245
18:42:46.208,-0.345,-0.255
18:42:46.212,-0.26,-0.27
18:42:46.216,-0.15,-0.26
18:42:46.220,-0.065,-0.295
18:42:46.224,0.025,-0.325
18:42:46.228,0.075,-0.4
18:42:46.232,0.14,-0.485
18:42:46.236,0.175,-0.57
18:42:46.240,0.195,-0.69
18:42:46.244,0.2,-0.9
18:42:46.248,0.21,-1.13
18:42:46.252,0.325,-1.375
18:42:46.256,0.625,-1.645
18:42:46.260,0.915,-1.955
18:42:46.264,1.095,-2.16
18:42:46.268,0.99,-2.245
18:42:46.272,0.605,-2.105
18:42:46.276,0.075,-1.66
18:42:46.280,-0.28,-1.175
18:42:46.284,-0.395,-0.89
18:42:46.288,-0.45,-0.695
18:42:46.292,-0.46,-0.51
18:42:46.296,-0.475,-0.365
18:42:46.300,-0.525,-0.245
18:42:46.304,-0.575,-0.15
18:42:46.308,-0.6,-0.09
18:42:46.312,-0.615,-0.055
18:42:46.316,-0.62,-0.07
18:42:46.320,-0.645,-0.08
18:42:46.324,-0.655,-0.065
18:42:46.328,-0.655,-0.08
18:42:46.332,-0.65,-0.07
18:42:46.336,-0.655,-0.065
18:42:46.340,-0.65,-0.06
18:42:46.344,-0.65,-0.075
18:42:46.348,-0.655,-0.06
18:42:46.352,-0.66,-0.07
18:42:46.356,-0.67,-0.055
18:42:46.360,-0.65,-0.06
18:42:46.364,-0.66,-0.085
18:42:46.368,-0.665,-0.065
18:42:46.372,-0.64,-0.075
18:42:46.376,-0.64,-0.055
18:42:46.380,-0.625,-0.035
18:42:46.384,-0.63,-0.045
18:42:46.388,-0.63,-0.045
18:42:46.392,-0.65,-0.03
18:42:46.396,-0.64,-0.025
18:42:46.400,-0.63,-0.025
18:42:46.404,-0.65,0.0
18:42:46.408,-0.635,0.0
18:42:46.412,-0.635,-0.01
18:42:46.416,-0.62,-0.005
18:42:46.420,-0.625,0.01
18:42:46.424,-0.61,0.02
18:42:46.428,-0.61,0.02
18:42:46.432,-0.615,0.04
18:42:46.436,-0.59,0.055
18:42:46.440,-0.58,0.065
18:42:46.444,-0.57,0.045
18:42:46.448,-0.57,0.025
18:42:46.452,-0.555,0.02
18:42:46.456,-0.565,-0.005
18:42:46.460,-0.575,-0.02
18:42:46.464,-0.58,-0.035
18:42:46.468,-0.555,-0.065
18:42:46.472,-0.54,-0.04
18:42:46.476,-0.545,-0.045
18:42:46.480,-0.52,-0.065
18:42:46.484,-0.525,-0.085
18:42:46.488,-0.51,-0.085
18:42:46.492,-0.47,-0.09
18:42:46.496,-0.465,-0.08
18:42:46.500,-0.455,-0.09
18:42:46.504,-0.42,-0.09
18:42:46.508,-0.375,-0.085
18:42:46.512,-0.365,-0.115
18:42:46.516,-0.365,-0.095
18:42:46.520,-0.35,-0.09
18:42:46.524,-0.365,-0.115
18:42:46.528,-0.365,-0.14
18:42:46.532,-0.36,-0.14
18:42:46.536,-0.355,-0.14
18:42:46.540,-0.36,-0.14
18:42:46.544,-0.35,-0.15
18:42:46.548,-0.365,-0.16
18:42:46.552,-0.37,-0.18
18:42:46.556,-0.37,-0.165
18:42:46.560,-0.375,-0.165
18:42:46.564,-0.385,-0.16
18:42:46.568,-0.39,-0.16
18:42:46.572,-0.385,-0.16
18:42:46.576,-0.395,-0.16
18:42:46.580,-0.375,-0.185
18:42:46.584,-0.385,-0.145
18:42:46.588,-0.385,-0.185
18:42:46.592,-0.385,-0.2
18:42:46.596,-0.4,-0.195
18:42:46.600,-0.415,-0.17
18:42:46.604,-0.425,-0.18
18:42:46.608,-0.41,-0.185
18:42:46.612,-0.42,-0.175
18:42:46.616,-0.415,-0.195
18:42:46.620,-0.405,-0.185
18:42:46.624,-0.365,-0.195
18:42:46.628,-0.315,-0.215
18:42:46.632,-0.25,-0.19
18:42:46.636,-0.175,-0.21
18:42:46.640,-0.1,-0.23
18:42:46.644,-0.06,-0.29
18:42:46.648,-0.02,-0.35
18:42:46.652,-0.01,-0.45
18:42:46.656,-0.01,-0.56
18:42:46.660,0.0,-0.7
18:42:46.664,0.025,-0.87
18:42:46.668,0.145,-1.115
18:42:46.672,0.42,-1.355
18:42:46.676,0.785,-1.66
18:42:46.680,1.05,-1.95
18:42:46.684,1.15,-2.15
18:42:46.688,0.93,-2.15
18:42:46.692,0.455,-1.84
18:42:46.696,-0.03,-1.385
18:42:46.700,-0.32,-1.005
18:42:46.704,-0.455,-0.795
18:42:46.708,-0.51,-0.645
18:42:46.712,-0.525,-0.475
18:42:46.716,-0.53,-0.345
18:42:46.720,-0.55,-0.245
18:42:46.724,-0.57,-0.155
18:42:46.728,-0.565,-0.12
18:42:46.732,-0.54,-0.09
18:42:46.736,-0.53,-0.075
18:42:46.740,-0.52,-0.05
18:42:46.744,-0.525,-0.02
18:42:46.748,-0.51,-0.02
18:42:46.752,-0.535,0.0
18:42:46.756,-0.545,-0.005
18:42:46.760,-0.565,-0.02
18:42:46.764,-0.57,0.0
18:42:46.768,-0.575,0.005
18:42:46.772,-0.565,0.015
18:42:46.776,-0.55,0.0
18:42:46.780,-0.57,0.0
18:42:46.784,-0.57,0.01
18:42:46.788,-0.575,0.03
18:42:46.792,-0.595,0.05
18:42:46.796,-0.615,0.035
18:42:46.800,-0.615,0.025
18:42:46.804,-0.62,0.045
18:42:46.808,-0.61,0.04
18:42:46.812,-0.63,0.02
18:42:46.816,-0.63,0.025
18:42:46.820,-0.615,0.005
18:42:46.824,-0.61,0.04
18:42:46.828,-0.595,0.02
18:42:46.832,-0.63,0.035
18:42:46.836,-0.61,0.06
18:42:46.840,-0.605,0.065
18:42:46.844,-0.59,0.06
18:42:46.848,-0.585,0.04
18:42:46.852,-0.56,0.05
18:42:46.856,-0.565,0.065
18:42:46.860,-0.555,0.06
18:42:46.864,-0.55,0.075
18:42:46.868,-0.55,0.06
18:42:46.872,-0.525,0.055
18:42:46.876,-0.53,0.06
18:42:46.880,-0.515,0.05
18:42:46.884,-0.495,0.03
18:42:46.888,-0.49,0.005
18:42:46.892,-0.485,0.0
18:42:46.896,-0.475,-0.025
18:42:46.900,-0.46,-0.065
18:42:46.904,-0.455,-0.09
18:42:46.908,-0.44,-0.12
18:42:46.912,-0.435,-0.12
18:42:46.916,-0.42,-0.165
18:42:46.920,-0.39,-0.2
18:42:46.924,-0.4,-0.2
18:42:46.928,-0.38,-0.21
18:42:46.932,-0.375,-0.2
18:42:46.936,-0.37,-0.235
18:42:46.940,-0.37,-0.26
18:42:46.944,-0.36,-0.235
18:42:46.948,-0.35,-0.25
18:42:46.952,-0.355,-0.235
18:42:46.956,-0.37,-0.225
18:42:46.960,-0.375,-0.24
18:42:46.964,-0.36,-0.235
18:42:46.968,-0.38,-0.205
18:42:46.972,-0.405,-0.205
18:42:46.976,-0.4,-0.2
18:42:46.980,-0.395,-0.18
18:42:46.984,-0.39,-0.215
18:42:46.988,-0.41,-0.17
18:42:46.992,-0.4,-0.18
18:42:46.996,-0.41,-0.175
18:42:47.000,-0.39,-0.165
18:42:47.004,-0.39,-0.18
18:42:47.008,-0.385,-0.165
18:42:47.012,-0.39,-0.16
18:42:47.016,-0.395,-0.16
18:42:47.020,-0.405,-0.155
18:42:47.024,-0.42,-0.175
18:42:47.028,-0.395,-0.19
18:42:47.032,-0.41,-0.155
18:42:47.036,-0.42,-0.165
18:42:47.040,-0.42,-0.2
18:42:47.044,-0.435,-0.195
18:42:47.048,-0.415,-0.21
18:42:47.052,-0.38,-0.21
18:42:47.056,-0.38,-0.205
18:42:47.060,-0.37,-0.21
18:42:47.064,-0.35,-0.215
18:42:47.068,-0.34,-0.205
18:42:47.072,-0.295,-0.195
18:42:47.076,-0.25,-0.2
18:42:47.080,-0.18,-0.19
18:42:47.084,-0.085,-0.215
18:42:47.088,-0.035,-0.275
18:42:47.092,0.025,-0.33
18:42:47.096,0.08,-0.465
18:42:47.100,0.06,-0.54
18:42:47.104,0.07,-0.675
18:42:47.108,0.055,-0.83
18:42:47.112,0.075,-1.02
18:42:47.116,0.245,-1.28
18:42:47.120,0.51,-1.51
18:42:47.124,0.86,-1.805
18:42:47.128,1.01,-2.045
18:42:47.132,0.93,-2.195
18:42:47.136,0.525,-2.035
18:42:47.140,0.02,-1.635
18:42:47.144,-0.31,-1.175
18:42:47.148,-0.485,-0.88
18:42:47.152,-0.55,-0.705
18:42:47.156,-0.575,-0.53
18:42:47.160,-0.57,-0.38
18:42:47.164,-0.59,-0.25
18:42:47.168,-0.63,-0.16
18:42:47.172,-0.625,-0.13
18:42:47.176,-0.61,-0.075
18:42:47.180,-0.605,-0.075
18:42:47.184,-0.615,-0.065
18:42:47.188,-0.62,-0.065
18:42:47.192,-0.605,-0.05
18:42:47.196,-0.62,-0.03
18:42:47.200,-0.62,-0.045
18:42:47.204,-0.63,-0.06
18:42:47.208,-0.635,-0.035
18:42:47.212,-0.64,-0.02
18:42:47.216,-0.605,-0.025
18:42:47.220,-0.605,-0.015
18:42:47.224,-0.6,0.0
18:42:47.228,-0.62,0.02
18:42:47.232,-0.605,0.015
18:42:47.236,-0.59,0.04
18:42:47.240,-0.615,0.02
18:42:47.244,-0.61,0.03
18:42:47.248,-0.585,0.04
18:42:47.252,-0.61,0.05
18:42:47.256,-0.6,0.065
18:42:47.260,-0.585,0.07
18:42:47.264,-0.575,0.06
18:42:47.268,-0.55,0.065
18:42:47.272,-0.555,0.06
18:42:47.276,-0.54,0.06
18:42:47.280,-0.53,0.05
18:42:47.284,-0.52,0.03
18:42:47.288,-0.535,0.005
18:42:47.292,-0.535,0.05
18:42:47.296,-0.535,0.035
18:42:47.300,-0.515,0.05
18:42:47.304,-0.515,0.02
18:42:47.308,-0.525,-0.02
18:42:47.312,-0.53,-0.005
18:42:47.316,-0.5,-0.015
18:42:47.320,-0.495,-0.025
18:42:47.324,-0.49,-0.03
18:42:47.328,-0.52,-0.03
18:42:47.332,-0.515,-0.055
18:42:47.336,-0.515,-0.045
18:42:47.340,-0.51,-0.055
18:42:47.344,-0.51,-0.06
18:42:47.348,-0.48,-0.08
18:42:47.352,-0.49,-0.115
18:42:47.356,-0.48,-0.125
18:42:47.360,-0.45,-0.15
18:42:47.364,-0.46,-0.125
18:42:47.368,-0.46,-0.13
18:42:47.372,-0.455,-0.14
18:42:47.376,-0.45,-0.155
18:42:47.380,-0.45,-0.16
18:42:47.384,-0.445,-0.165
18:42:47.388,-0.445,-0.155
18:42:47.392,-0.46,-0.175
18:42:47.396,-0.44,-0.155
18:42:47.400,-0.44,-0.17
18:42:47.404,-0.45,-0.18
18:42:47.408,-0.42,-0.16
18:42:47.412,-0.45,-0.17
18:42:47.416,-0.455,-0.165
18:42:47.420,-0.46,-0.16
18:42:47.424,-0.46,-0.18
18:42:47.428,-0.44,-0.16
18:42:47.432,-0.44,-0.16
18:42:47.436,-0.435,-0.145
18:42:47.440,-0.41,-0.16
18:42:47.444,-0.44,-0.145
18:42:47.448,-0.4,-0.155
18:42:47.452,-0.42,-0.15
18:42:47.456,-0.42,-0.19
18:42:47.460,-0.405,-0.19
18:42:47.464,-0.41,-0.2
18:42:47.468,-0.395,-0.2
18:42:47.472,-0.4,-0.185
18:42:47.476,-0.39,-0.175
18:42:47.480,-0.39,-0.185
18:42:47.484,-0.39,-0.17
18:42:47.488,-0.365,-0.185
18:42:47.492,-0.4,-0.19
18:42:47.496,-0.385,-0.19
18:42:47.500,-0.4,-0.215
18:42:47.504,-0.375,-0.19
18:42:47.508,-0.345,-0.19
18:42:47.512,-0.315,-0.205
18:42:47.516,-0.24,-0.2
18:42:47.520,-0.15,-0.225
18:42:47.524,-0.1,-0.28
18:42:47.528,-0.065,-0.305
18:42:47.532,-0.04,-0.4
18:42:47.536,-0.015,-0.475
18:42:47.540,-0.01,-0.585
18:42:47.544,0.0,-0.72
18:42:47.548,0.015,-0.895
18:42:47.552,0.115,-1.07
18:42:47.556,0.38,-1.33
18:42:47.560,0.72,-1.645
18:42:47.564,0.98,-1.895
18:42:47.568,1.0,-2.085
18:42:47.572,0.705,-2.03
18:42:47.576,0.215,-1.68
18:42:47.580,-0.22,-1.17
18:42:47.584,-0.42,-0.775
18:42:47.588,-0.5,-0.565
18:42:47.592,-0.555,-0.41
