Time,ECG1,ECG2
01:16:09.108:1,0.18,-0.41
01:16:09.112:1,0.17,-0.44
01:16:09.116:1,0.18,-0.45
01:16:09.120:1,0.175,-0.47
01:16:09.124:1,0.125,-0.48
01:16:09.128:1,0.125,-0.47
01:16:09.132:1,0.105,-0.46
01:16:09.136:1,0.115,-0.465
01:16:09.140:1,0.115,-0.44
01:16:09.144:1,0.12,-0.43
01:16:09.148:1,0.115,-0.435
01:16:09.152:1,0.13,-0.425
01:16:09.156:1,0.14,-0.435
01:16:09.160:1,0.135,-0.4
01:16:09.164:1,0.145,-0.41
01:16:09.168:1,0.14,-0.41
01:16:09.172:1,0.155,-0.4
01:16:09.176:1,0.135,-0.39
01:16:09.180:1,0.15,-0.385
01:16:09.184:1,0.165,-0.38
01:16:09.188:1,0.145,-0.36
01:16:09.192:1,0.135,-0.35
01:16:09.196:1,0.14,-0.355
01:16:09.200:1,0.145,-0.325
01:16:09.204:1,0.145,-0.34
01:16:09.208:1,0.165,-0.335
01:16:09.212:1,0.155,-0.355
01:16:09.216:1,0.145,-0.365
01:16:09.220:1,0.155,-0.375
01:16:09.224:1,0.155,-0.39
01:16:09.228:1,0.135,-0.415
01:16:09.232:1,0.145,-0.42
01:16:09.236:1,0.15,-0.435
01:16:09.240:1,0.13,-0.425
01:16:09.244:1,0.135,-0.46
01:16:09.248:1,0.145,-0.46
01:16:09.252:1,0.125,-0.46
01:16:09.256:1,0.12,-0.435
01:16:09.260:1,0.105,-0.46
01:16:09.264:1,0.11,-0.455
01:16:09.268:1,0.11,-0.47
01:16:09.272:1,0.105,-0.46
01:16:09.276:1,0.14,-0.47
01:16:09.280:1,0.14,-0.44
01:16:09.284:1,0.125,-0.395
01:16:09.288:1,0.14,-0.275
01:16:09.292:1,0.13,-0.07
01:16:09.296:1,0.11,0.17
01:16:09.300:1,0.09,0.265
01:16:09.304:1,0.145,0.29
01:16:09.308:1,0.21,0.215
01:16:09.312:1,0.275,-0.025
01:16:09.316:1,0.34,-0.27
01:16:09.320:1,0.365,-0.445
01:16:09.324:1,0.365,-0.48
01:16:09.328:1,0.4,-0.39
01:16:09.332:1,0.43,-0.425
01:16:09.336:1,0.495,-0.515
01:16:09.340:1,0.535,-0.6
01:16:09.344:1,0.565,-0.65
01:16:09.348:1,0.59,-0.685
01:16:09.352:1,0.595,-0.675
01:16:09.356:1,0.59,-0.71
01:16:09.360:1,0.6,-0.735
01:16:09.364:1,0.6,-0.755
01:16:09.368:1,0.57,-0.75
01:16:09.372:1,0.51,-0.745
01:16:09.376:1,0.45,-0.69
01:16:09.380:1,0.315,-0.61
01:16:09.384:1,0.155,-0.545
01:16:09.388:1,0.01,-0.515
01:16:09.392:1,-0.05,-0.525
01:16:09.396:1,-0.04,-0.52
01:16:09.400:1,-0.03,-0.53
01:16:09.404:1,-0.055,-0.545
01:16:09.408:1,-0.045,-0.56
01:16:09.412:1,-0.05,-0.57
01:16:09.416:1,-0.07,-0.565
01:16:09.420:1,-0.075,-0.55
01:16:09.424:1,-0.07,-0.5
01:16:09.428:1,-0.07,-0.45
01:16:09.432:1,-0.045,-0.435
01:16:09.436:1,-0.06,-0.44
01:16:09.440:1,-0.065,-0.425
01:16:09.444:1,-0.075,-0.415
01:16:09.448:1,-0.1,-0.395
01:16:09.452:1,-0.07,-0.38
01:16:09.456:1,-0.08,-0.37
01:16:09.460:1,-0.1,-0.365
01:16:09.464:1,-0.085,-0.355
01:16:09.468:1,-0.09,-0.345
01:16:09.472:1,-0.1,-0.33
01:16:09.476:1,-0.095,-0.335
01:16:09.480:1,-0.09,-0.35
01:16:09.484:1,-0.09,-0.34
01:16:09.488:1,-0.08,-0.34
01:16:09.492:1,-0.095,-0.34
01:16:09.496:1,-0.11,-0.34
01:16:09.500:1,-0.105,-0.34
01:16:09.504:1,-0.12,-0.355
01:16:09.508:1,-0.11,-0.35
01:16:09.512:1,-0.13,-0.335
01:16:09.516:1,-0.12,-0.35
01:16:09.520:1,-0.12,-0.34
01:16:09.524:1,-0.12,-0.335
01:16:09.528:1,-0.135,-0.315
01:16:09.532:1,-0.14,-0.3
01:16:09.536:1,-0.14,-0.29
01:16:09.540:1,-0.155,-0.295
01:16:09.544:1,-0.15,-0.265
01:16:09.548:1,-0.145,-0.27
01:16:09.552:1,-0.14,-0.26
01:16:09.556:1,-0.14,-0.275
01:16:09.560:1,-0.145,-0.29
01:16:09.564:1,-0.13,-0.245
01:16:09.568:1,-0.145,-0.18
01:16:09.572:1,-0.125,-0.14
01:16:09.576:1,-0.11,-0.15
01:16:09.580:1,-0.095,-0.145
01:16:09.584:1,-0.105,-0.155
01:16:09.588:1,-0.1,-0.16
01:16:09.592:1,-0.095,-0.16
01:16:09.596:1,-0.08,-0.175
01:16:09.600:1,-0.08,-0.19
01:16:09.604:1,-0.045,-0.19
01:16:09.608:1,-0.05,-0.175
01:16:09.612:1,-0.04,-0.18
01:16:09.616:1,-0.02,-0.19
01:16:09.620:1,-0.01,-0.175
01:16:09.624:1,-0.02,-0.195
01:16:09.628:1,-0.01,-0.21
01:16:09.632:1,0.01,-0.22
01:16:09.636:1,0.005,-0.23
01:16:09.640:1,0.02,-0.24
01:16:09.644:1,0.04,-0.245
01:16:09.648:1,0.035,-0.265
01:16:09.652:1,0.035,-0.26
01:16:09.656:1,0.03,-0.26
01:16:09.660:1,0.035,-0.275
01:16:09.664:1,0.03,-0.28
01:16:09.668:1,0.02,-0.3
01:16:09.672:1,0.03,-0.315
01:16:09.676:1,0.015,-0.32
01:16:09.680:1,0.0,-0.32
01:16:09.684:1,0.0,-0.335
01:16:09.688:1,0.005,-0.335
01:16:09.692:1,0.0,-0.34
01:16:09.696:1,-0.01,-0.35
01:16:09.700:1,0.0,-0.345
01:16:09.704:1,-0.015,-0.34
01:16:09.708:1,-0.02,-0.365
01:16:09.712:1,-0.02,-0.36
01:16:09.716:1,-0.02,-0.34
01:16:09.720:1,-0.02,-0.315
01:16:09.724:1,-0.015,-0.31
01:16:09.728:1,-0.005,-0.29
01:16:09.732:1,-0.025,-0.275
01:16:09.736:1,-0.03,-0.255
01:16:09.740:1,-0.04,-0.24
01:16:09.744:1,-0.055,-0.245
01:16:09.748:1,-0.07,-0.26
01:16:09.752:1,-0.05,-0.265
01:16:09.756:1,-0.075,-0.26
01:16:09.760:1,-0.085,-0.26
01:16:09.764:1,-0.09,-0.265
01:16:09.768:1,-0.095,-0.27
01:16:09.772:1,-0.11,-0.27
01:16:09.776:1,-0.1,-0.27
01:16:09.780:1,-0.08,-0.28
01:16:09.784:1,-0.095,-0.265
01:16:09.788:1,-0.115,-0.255
01:16:09.792:1,-0.115,-0.255
01:16:09.796:1,-0.105,-0.255
01:16:09.800:1,-0.1,-0.245
01:16:09.804:1,-0.095,-0.245
01:16:09.808:1,-0.075,-0.24
01:16:09.812:1,-0.075,-0.26
01:16:09.816:1,-0.09,-0.255
01:16:09.820:1,-0.075,-0.255
01:16:09.824:1,-0.08,-0.26
01:16:09.828:1,-0.09,-0.275
01:16:09.832:1,-0.085,-0.26
01:16:09.836:1,-0.105,-0.265
01:16:09.840:1,-0.105,-0.265
01:16:09.844:1,-0.095,-0.27
01:16:09.848:1,-0.1,-0.29
01:16:09.852:1,-0.115,-0.29
01:16:09.856:1,-0.11,-0.285
01:16:09.860:1,-0.11,-0.24
01:16:09.864:1,-0.11,-0.2
01:16:09.868:1,-0.105,-0.15
01:16:09.872:1,-0.08,-0.125
01:16:09.876:1,-0.085,-0.105
01:16:09.880:1,-0.115,-0.095
01:16:09.884:1,-0.1,-0.09
01:16:09.888:1,-0.11,-0.08
01:16:09.892:1,-0.11,-0.085
01:16:09.896:1,-0.11,-0.075
01:16:09.900:1,-0.12,-0.065
01:16:09.904:1,-0.11,-0.06
01:16:09.908:1,-0.105,-0.075
01:16:09.912:1,-0.11,-0.05
01:16:09.916:1,-0.12,-0.04
01:16:09.920:1,-0.13,-0.055
01:16:09.924:1,-0.14,-0.055
01:16:09.928:1,-0.125,-0.065
01:16:09.932:1,-0.16,-0.07
01:16:09.936:1,-0.155,-0.095
01:16:09.940:1,-0.14,-0.075
01:16:09.944:1,-0.17,0.01
01:16:09.948:1,-0.155,0.195
01:16:09.952:1,-0.13,0.42
01:16:09.956:1,-0.11,0.655
01:16:09.960:1,-0.045,0.825
01:16:09.964:1,0.035,0.885
01:16:09.968:1,0.12,0.84
01:16:09.972:1,0.17,0.635
01:16:09.976:1,0.155,0.15
01:16:09.980:1,0.095,-0.32
01:16:09.984:1,-0.055,-0.565
01:16:09.988:1,-0.3,-0.585
01:16:09.992:1,-0.445,-0.52
01:16:09.996:1,-0.51,-0.42
01:16:10.000:1,-0.525,-0.325
01:16:10.004:1,-0.475,-0.245
01:16:10.008:1,-0.415,-0.21
01:16:10.012:1,-0.305,-0.185
01:16:10.016:1,-0.265,-0.135
01:16:10.020:1,-0.225,-0.06
01:16:10.024:1,-0.195,-0.03
01:16:10.028:1,-0.18,-0.005
01:16:10.032:1,-0.18,0.02
01:16:10.036:1,-0.205,0.015
01:16:10.040:1,-0.225,0.01
01:16:10.044:1,-0.215,0.0
01:16:10.048:1,-0.23,0.005
01:16:10.052:1,-0.225,0.02
01:16:10.056:1,-0.24,0.0
01:16:10.060:1,-0.24,-0.03
01:16:10.064:1,-0.27,-0.02
01:16:10.068:1,-0.275,0.0
01:16:10.072:1,-0.285,0.01
01:16:10.076:1,-0.28,0.015
01:16:10.080:1,-0.29,0.01
01:16:10.084:1,-0.275,0.025
01:16:10.088:1,-0.295,0.025
01:16:10.092:1,-0.29,0.01
01:16:10.096:1,-0.29,0.015
01:16:10.100:1,-0.305,0.025
01:16:10.104:1,-0.295,0.03
01:16:10.108:1,-0.305,0.04
01:16:10.112:1,-0.305,0.065
01:16:10.116:1,-0.295,0.075
01:16:10.120:1,-0.285,0.075
01:16:10.124:1,-0.29,0.09
01:16:10.128:1,-0.3,0.105
01:16:10.132:1,-0.31,0.075
01:16:10.136:1,-0.275,0.06
01:16:10.140:1,-0.295,0.06
01:16:10.144:1,-0.29,0.05
01:16:10.148:1,-0.3,0.035
01:16:10.152:1,-0.295,0.025
01:16:10.156:1,-0.32,0.025
01:16:10.160:1,-0.33,0.055
01:16:10.164:1,-0.31,0.075
01:16:10.168:1,-0.32,0.09
01:16:10.172:1,-0.305,0.095
01:16:10.176:1,-0.3,0.12
01:16:10.180:1,-0.31,0.16
01:16:10.184:1,-0.3,0.2
01:16:10.188:1,-0.3,0.2
01:16:10.192:1,-0.305,0.215
01:16:10.196:1,-0.31,0.23
01:16:10.200:1,-0.33,0.23
01:16:10.204:1,-0.305,0.255
01:16:10.208:1,-0.325,0.27
01:16:10.212:1,-0.34,0.265
01:16:10.216:1,-0.32,0.28
01:16:10.220:1,-0.345,0.305
01:16:10.224:1,-0.335,0.325
01:16:10.228:1,-0.345,0.355
01:16:10.232:1,-0.325,0.355
01:16:10.236:1,-0.33,0.37
01:16:10.240:1,-0.335,0.375
01:16:10.244:1,-0.335,0.39
01:16:10.248:1,-0.35,0.4
01:16:10.252:1,-0.34,0.43
01:16:10.256:1,-0.34,0.425
01:16:10.260:1,-0.33,0.43
01:16:10.264:1,-0.32,0.44
01:16:10.268:1,-0.335,0.435
01:16:10.272:1,-0.315,0.425
01:16:10.276:1,-0.33,0.405
01:16:10.280:1,-0.35,0.4
01:16:10.284:1,-0.345,0.4
01:16:10.288:1,-0.345,0.41
01:16:10.292:1,-0.34,0.4
01:16:10.296:1,-0.34,0.39
01:16:10.300:1,-0.34,0.4
01:16:10.304:1,-0.34,0.46
01:16:10.308:1,-0.34,0.51
01:16:10.312:1,-0.32,0.515
01:16:10.316:1,-0.305,0.525
01:16:10.320:1,-0.31,0.53
01:16:10.324:1,-0.335,0.525
01:16:10.328:1,-0.35,0.515
01:16:10.332:1,-0.325,0.495
01:16:10.336:1,-0.34,0.485
01:16:10.340:1,-0.365,0.51
01:16:10.344:1,-0.375,0.485
01:16:10.348:1,-0.375,0.455
01:16:10.352:1,-0.375,0.445
01:16:10.356:1,-0.4,0.445
01:16:10.360:1,-0.395,0.44
01:16:10.364:1,-0.41,0.445
01:16:10.368:1,-0.42,0.435
01:16:10.372:1,-0.43,0.435
01:16:10.376:1,-0.425,0.425
01:16:10.380:1,-0.435,0.41
01:16:10.384:1,-0.44,0.405
01:16:10.388:1,-0.44,0.41
01:16:10.392:1,-0.445,0.395
01:16:10.396:1,-0.465,0.4
01:16:10.400:1,-0.465,0.405
01:16:10.404:1,-0.45,0.375
01:16:10.408:1,-0.47,0.355
01:16:10.412:1,-0.475,0.355
01:16:10.416:1,-0.455,0.44
01:16:10.420:1,-0.47,0.6
01:16:10.424:1,-0.44,0.81
01:16:10.428:1,-0.425,0.965
01:16:10.432:1,-0.355,1.02
01:16:10.436:1,-0.27,1.04
01:16:10.440:1,-0.195,0.955
01:16:10.444:1,-0.17,0.65
01:16:10.448:1,-0.175,0.23
01:16:10.452:1,-0.27,0.005
01:16:10.456:1,-0.43,0.015
01:16:10.460:1,-0.64,0.07
01:16:10.464:1,-0.73,0.115
01:16:10.468:1,-0.745,0.165
01:16:10.472:1,-0.74,0.295
01:16:10.476:1,-0.745,0.43
01:16:10.480:1,-0.665,0.51
01:16:10.484:1,-0.575,0.54
01:16:10.488:1,-0.535,0.545
01:16:10.492:1,-0.515,0.56
01:16:10.496:1,-0.495,0.555
01:16:10.500:1,-0.5,0.535
01:16:10.504:1,-0.52,0.535
01:16:10.508:1,-0.505,0.515
01:16:10.512:1,-0.505,0.495
01:16:10.516:1,-0.505,0.475
01:16:10.520:1,-0.52,0.47
01:16:10.524:1,-0.525,0.455
01:16:10.528:1,-0.52,0.435
01:16:10.532:1,-0.54,0.45
01:16:10.536:1,-0.53,0.435
01:16:10.540:1,-0.535,0.42
01:16:10.544:1,-0.535,0.425
01:16:10.548:1,-0.56,0.405
01:16:10.552:1,-0.54,0.4
01:16:10.556:1,-0.53,0.39
01:16:10.560:1,-0.535,0.38
01:16:10.564:1,-0.555,0.365
01:16:10.568:1,-0.555,0.38
01:16:10.572:1,-0.535,0.365
01:16:10.576:1,-0.545,0.37
01:16:10.580:1,-0.55,0.355
01:16:10.584:1,-0.545,0.345
01:16:10.588:1,-0.55,0.375
01:16:10.592:1,-0.545,0.38
01:16:10.596:1,-0.545,0.36
01:16:10.600:1,-0.55,0.36
01:16:10.604:1,-0.55,0.34
01:16:10.608:1,-0.55,0.355
01:16:10.612:1,-0.565,0.345
01:16:10.616:1,-0.565,0.37
01:16:10.620:1,-0.575,0.365
01:16:10.624:1,-0.55,0.355
01:16:10.628:1,-0.57,0.375
01:16:10.632:1,-0.545,0.435
01:16:10.636:1,-0.555,0.485
01:16:10.640:1,-0.54,0.51
01:16:10.644:1,-0.535,0.55
01:16:10.648:1,-0.52,0.575
01:16:10.652:1,-0.505,0.585
01:16:10.656:1,-0.52,0.595
01:16:10.660:1,-0.54,0.6
01:16:10.664:1,-0.52,0.625
01:16:10.668:1,-0.51,0.655
01:16:10.672:1,-0.525,0.675
01:16:10.676:1,-0.525,0.675
01:16:10.680:1,-0.495,0.695
01:16:10.684:1,-0.51,0.715
01:16:10.688:1,-0.505,0.705
01:16:10.692:1,-0.485,0.715
01:16:10.696:1,-0.505,0.705
01:16:10.700:1,-0.48,0.7
01:16:10.704:1,-0.48,0.685
01:16:10.708:1,-0.475,0.66
01:16:10.712:1,-0.48,0.65
01:16:10.716:1,-0.495,0.62
01:16:10.720:1,-0.47,0.62
01:16:10.724:1,-0.48,0.63
01:16:10.728:1,-0.48,0.625
01:16:10.732:1,-0.47,0.615
01:16:10.736:1,-0.475,0.615
01:16:10.740:1,-0.465,0.6
01:16:10.744:1,-0.475,0.6
01:16:10.748:1,-0.485,0.595
01:16:10.752:1,-0.48,0.61
01:16:10.756:1,-0.48,0.57
01:16:10.760:1,-0.475,0.585
01:16:10.764:1,-0.49,0.59
01:16:10.768:1,-0.47,0.575
01:16:10.772:1,-0.495,0.57
01:16:10.776:1,-0.485,0.565
01:16:10.780:1,-0.495,0.57
01:16:10.784:1,-0.5,0.56
01:16:10.788:1,-0.495,0.55
01:16:10.792:1,-0.485,0.545
01:16:10.796:1,-0.515,0.54
01:16:10.800:1,-0.51,0.55
01:16:10.804:1,-0.515,0.54
01:16:10.808:1,-0.5,0.54
01:16:10.812:1,-0.51,0.515
01:16:10.816:1,-0.52,0.53
01:16:10.820:1,-0.52,0.505
01:16:10.824:1,-0.515,0.505
01:16:10.828:1,-0.52,0.51
01:16:10.832:1,-0.5,0.545
01:16:10.836:1,-0.495,0.61
01:16:10.840:1,-0.49,0.66
01:16:10.844:1,-0.475,0.68
01:16:10.848:1,-0.475,0.685
01:16:10.852:1,-0.46,0.695
01:16:10.856:1,-0.475,0.69
01:16:10.860:1,-0.48,0.675
01:16:10.864:1,-0.475,0.67
01:16:10.868:1,-0.48,0.67
01:16:10.872:1,-0.495,0.635
01:16:10.876:1,-0.47,0.625
01:16:10.880:1,-0.485,0.62
01:16:10.884:1,-0.48,0.605
01:16:10.888:1,-0.495,0.61
01:16:10.892:1,-0.475,0.6
01:16:10.896:1,-0.5,0.595
01:16:10.900:1,-0.49,0.605
01:16:10.904:1,-0.485,0.6
01:16:10.908:1,-0.49,0.59
01:16:10.912:1,-0.48,0.605
01:16:10.916:1,-0.48,0.595
01:16:10.920:1,-0.46,0.58
01:16:10.924:1,-0.485,0.595
01:16:10.928:1,-0.49,0.57
01:16:10.932:1,-0.47,0.565
01:16:10.936:1,-0.46,0.56
01:16:10.940:1,-0.48,0.565
01:16:10.944:1,-0.485,0.535
01:16:10.948:1,-0.48,0.56
01:16:10.952:1,-0.47,0.66
01:16:10.956:1,-0.45,0.85
01:16:10.960:1,-0.425,1.055
01:16:10.964:1,-0.39,1.28
01:16:10.968:1,-0.315,1.41
01:16:10.972:1,-0.235,1.395
01:16:10.976:1,-0.125,1.32
01:16:10.980:1,-0.145,0.975
01:16:10.984:1,-0.19,0.485
01:16:10.988:1,-0.28,0.105
01:16:10.992:1,-0.48,-0.05
01:16:10.996:1,-0.695,-0.045
01:16:11.000:1,-0.815,0.0
01:16:11.004:1,-0.81,0.13
01:16:11.008:1,-0.81,0.285
01:16:11.012:1,-0.755,0.37
01:16:11.016:1,-0.625,0.45
01:16:11.020:1,-0.55,0.45
01:16:11.024:1,-0.5,0.47
01:16:11.028:1,-0.46,0.53
01:16:11.032:1,-0.44,0.6
01:16:11.036:1,-0.435,0.635
01:16:11.040:1,-0.425,0.62
01:16:11.044:1,-0.4,0.615
01:16:11.048:1,-0.415,0.615
01:16:11.052:1,-0.405,0.6
01:16:11.056:1,-0.415,0.58
01:16:11.060:1,-0.41,0.56
01:16:11.064:1,-0.41,0.525
01:16:11.068:1,-0.425,0.52
01:16:11.072:1,-0.42,0.5
01:16:11.076:1,-0.425,0.515
01:16:11.080:1,-0.445,0.515
01:16:11.084:1,-0.435,0.495
01:16:11.088:1,-0.425,0.505
01:16:11.092:1,-0.44,0.5
01:16:11.096:1,-0.425,0.51
01:16:11.100:1,-0.425,0.485
01:16:11.104:1,-0.435,0.485
01:16:11.108:1,-0.425,0.49
01:16:11.112:1,-0.435,0.48
01:16:11.116:1,-0.425,0.485
01:16:11.120:1,-0.45,0.48
01:16:11.124:1,-0.445,0.455
01:16:11.128:1,-0.44,0.47
01:16:11.132:1,-0.445,0.485
01:16:11.136:1,-0.445,0.475
01:16:11.140:1,-0.44,0.46
01:16:11.144:1,-0.405,0.445
01:16:11.148:1,-0.445,0.46
01:16:11.152:1,-0.435,0.46
01:16:11.156:1,-0.425,0.45
01:16:11.160:1,-0.43,0.455
01:16:11.164:1,-0.435,0.465
01:16:11.168:1,-0.42,0.45
01:16:11.172:1,-0.42,0.455
01:16:11.176:1,-0.42,0.465
01:16:11.180:1,-0.4,0.445
01:16:11.184:1,-0.42,0.43
01:16:11.188:1,-0.41,0.455
01:16:11.192:1,-0.405,0.435
01:16:11.196:1,-0.38,0.435
01:16:11.200:1,-0.39,0.455
01:16:11.204:1,-0.39,0.485
01:16:11.208:1,-0.365,0.5
01:16:11.212:1,-0.36,0.53
01:16:11.216:1,-0.365,0.55
01:16:11.220:1,-0.36,0.57
01:16:11.224:1,-0.335,0.57
01:16:11.228:1,-0.31,0.585
01:16:11.232:1,-0.295,0.615
01:16:11.236:1,-0.285,0.68
01:16:11.240:1,-0.27,0.725
01:16:11.244:1,-0.26,0.76
01:16:11.248:1,-0.26,0.725
01:16:11.252:1,-0.255,0.72
01:16:11.256:1,-0.285,0.69
01:16:11.260:1,-0.28,0.665
01:16:11.264:1,-0.29,0.66
01:16:11.268:1,-0.285,0.65
01:16:11.272:1,-0.285,0.63
01:16:11.276:1,-0.29,0.605
01:16:11.280:1,-0.3,0.61
01:16:11.284:1,-0.295,0.605
01:16:11.288:1,-0.29,0.58
01:16:11.292:1,-0.305,0.585
01:16:11.296:1,-0.305,0.565
01:16:11.300:1,-0.29,0.565
01:16:11.304:1,-0.285,0.555
01:16:11.308:1,-0.295,0.565
01:16:11.312:1,-0.305,0.55
01:16:11.316:1,-0.29,0.565
01:16:11.320:1,-0.29,0.54
01:16:11.324:1,-0.3,0.56
01:16:11.328:1,-0.295,0.55
01:16:11.332:1,-0.28,0.54
01:16:11.336:1,-0.29,0.525
01:16:11.340:1,-0.28,0.52
01:16:11.344:1,-0.275,0.525
01:16:11.348:1,-0.275,0.51
01:16:11.352:1,-0.29,0.49
01:16:11.356:1,-0.285,0.485
01:16:11.360:1,-0.285,0.485
01:16:11.364:1,-0.27,0.475
01:16:11.368:1,-0.295,0.455
01:16:11.372:1,-0.275,0.455
01:16:11.376:1,-0.27,0.46
01:16:11.380:1,-0.265,0.45
01:16:11.384:1,-0.265,0.435
01:16:11.388:1,-0.255,0.45
01:16:11.392:1,-0.255,0.415
01:16:11.396:1,-0.25,0.395
01:16:11.400:1,-0.25,0.375
01:16:11.404:1,-0.26,0.36
01:16:11.408:1,-0.25,0.35
01:16:11.412:1,-0.255,0.35
01:16:11.416:1,-0.275,0.32
01:16:11.420:1,-0.265,0.315
01:16:11.424:1,-0.275,0.335
01:16:11.428:1,-0.275,0.355
01:16:11.432:1,-0.255,0.335
01:16:11.436:1,-0.245,0.325
01:16:11.440:1,-0.225,0.345
01:16:11.444:1,-0.225,0.365
01:16:11.448:1,-0.235,0.42
01:16:11.452:1,-0.225,0.41
01:16:11.456:1,-0.225,0.405
01:16:11.460:1,-0.22,0.4
01:16:11.464:1,-0.225,0.38
01:16:11.468:1,-0.22,0.385
01:16:11.472:1,-0.21,0.36
01:16:11.476:1,-0.235,0.37
01:16:11.480:1,-0.215,0.36
01:16:11.484:1,-0.225,0.365
01:16:11.488:1,-0.225,0.345
01:16:11.492:1,-0.235,0.34
01:16:11.496:1,-0.22,0.34
01:16:11.500:1,-0.22,0.35
01:16:11.504:1,-0.21,0.33
01:16:11.508:1,-0.21,0.33
01:16:11.512:1,-0.215,0.335
01:16:11.516:1,-0.215,0.32
01:16:11.520:1,-0.19,0.34
01:16:11.524:1,-0.22,0.325
01:16:11.528:1,-0.2,0.295
01:16:11.532:1,-0.195,0.295
01:16:11.536:1,-0.19,0.29
01:16:11.540:1,-0.215,0.29
01:16:11.544:1,-0.21,0.28
01:16:11.548:1,-0.175,0.285
01:16:11.552:1,-0.19,0.27
01:16:11.556:1,-0.175,0.27
01:16:11.560:1,-0.175,0.27
01:16:11.564:1,-0.17,0.275
01:16:11.568:1,-0.18,0.26
01:16:11.572:1,-0.155,0.245
01:16:11.576:1,-0.145,0.245
01:16:11.580:1,-0.145,0.24
01:16:11.584:1,-0.135,0.21
01:16:11.588:1,-0.14,0.23
01:16:11.592:1,-0.13,0.24
01:16:11.596:1,-0.135,0.21
01:16:11.600:1,-0.125,0.195
01:16:11.604:1,-0.115,0.195
01:16:11.608:1,-0.12,0.215
01:16:11.612:1,-0.125,0.21
01:16:11.616:1,-0.125,0.195
01:16:11.620:1,-0.105,0.185
01:16:11.624:1,-0.11,0.255
01:16:11.628:1,-0.095,0.425
01:16:11.632:1,-0.06,0.67
01:16:11.636:1,-0.035,0.935
01:16:11.640:1,0.015,1.12
01:16:11.644:1,0.075,1.18
01:16:11.648:1,0.19,1.17
01:16:11.652:1,0.225,0.985
01:16:11.656:1,0.19,0.515
01:16:11.660:1,0.14,0.055
01:16:11.664:1,-0.025,-0.235
01:16:11.668:1,-0.235,-0.32
01:16:11.672:1,-0.39,-0.275
01:16:11.676:1,-0.445,-0.145
01:16:11.680:1,-0.43,-0.025
01:16:11.684:1,-0.375,0.065
01:16:11.688:1,-0.3,0.135
01:16:11.692:1,-0.25,0.155
01:16:11.696:1,-0.165,0.14
01:16:11.700:1,-0.135,0.115
01:16:11.704:1,-0.12,0.115
01:16:11.708:1,-0.135,0.11
01:16:11.712:1,-0.115,0.1
01:16:11.716:1,-0.11,0.1
01:16:11.720:1,-0.13,0.08
01:16:11.724:1,-0.12,0.085
01:16:11.728:1,-0.115,0.07
01:16:11.732:1,-0.12,0.075
01:16:11.736:1,-0.115,0.055
01:16:11.740:1,-0.1,0.05
01:16:11.744:1,-0.105,0.06
01:16:11.748:1,-0.085,0.045
01:16:11.752:1,-0.085,0.025
01:16:11.756:1,-0.075,0.03
01:16:11.760:1,-0.08,-0.005
01:16:11.764:1,-0.085,-0.025
01:16:11.768:1,-0.065,-0.055
01:16:11.772:1,-0.085,-0.05
01:16:11.776:1,-0.08,-0.08
01:16:11.780:1,-0.08,-0.075
01:16:11.784:1,-0.075,-0.055
01:16:11.788:1,-0.06,-0.06
01:16:11.792:1,-0.045,-0.085
01:16:11.796:1,-0.065,-0.06
01:16:11.800:1,-0.06,-0.05
01:16:11.804:1,-0.075,-0.03
01:16:11.808:1,-0.075,-0.025
01:16:11.812:1,-0.07,-0.015
01:16:11.816:1,-0.07,0.015
01:16:11.820:1,-0.04,0.035
01:16:11.824:1,-0.02,0.055
01:16:11.828:1,0.005,0.055
01:16:11.832:1,-0.005,0.045
01:16:11.836:1,-0.025,0.045
01:16:11.840:1,-0.025,0.055
01:16:11.844:1,-0.025,0.045
01:16:11.848:1,0.015,0.05
01:16:11.852:1,0.005,0.035
01:16:11.856:1,0.01,0.045
01:16:11.860:1,0.025,0.035
01:16:11.864:1,0.03,0.055
01:16:11.868:1,0.025,0.06
01:16:11.872:1,0.04,0.07
01:16:11.876:1,0.055,0.07
01:16:11.880:1,0.055,0.08
01:16:11.884:1,0.055,0.085
01:16:11.888:1,0.075,0.09
01:16:11.892:1,0.065,0.105
01:16:11.896:1,0.08,0.11
01:16:11.900:1,0.1,0.125
01:16:11.904:1,0.11,0.135
01:16:11.908:1,0.1,0.14
01:16:11.912:1,0.105,0.14
01:16:11.916:1,0.115,0.17
01:16:11.920:1,0.13,0.175
01:16:11.924:1,0.135,0.17
01:16:11.928:1,0.145,0.19
01:16:11.932:1,0.145,0.18
01:16:11.936:1,0.155,0.165
01:16:11.940:1,0.15,0.16
01:16:11.944:1,0.175,0.14
01:16:11.948:1,0.155,0.125
01:16:11.952:1,0.155,0.105
01:16:11.956:1,0.155,0.08
01:16:11.960:1,0.15,0.075
01:16:11.964:1,0.15,0.045
01:16:11.968:1,0.16,0.03
01:16:11.972:1,0.15,0.025
01:16:11.976:1,0.15,0.015
01:16:11.980:1,0.15,-0.005
01:16:11.984:1,0.14,-0.04
01:16:11.988:1,0.13,-0.035
01:16:11.992:1,0.14,-0.05
01:16:11.996:1,0.13,-0.045
01:16:12.000:1,0.115,-0.025
01:16:12.004:1,0.11,0.0
01:16:12.008:1,0.125,0.01
01:16:12.012:1,0.14,0.02
01:16:12.016:1,0.13,0.035
01:16:12.020:1,0.125,0.03
01:16:12.024:1,0.145,0.03
01:16:12.028:1,0.125,0.015
01:16:12.032:1,0.145,0.01
01:16:12.036:1,0.15,0.01
01:16:12.040:1,0.145,0.005
01:16:12.044:1,0.15,0.0
01:16:12.048:1,0.165,-0.01
01:16:12.052:1,0.155,-0.01
01:16:12.056:1,0.165,0.005
01:16:12.060:1,0.185,0.0
01:16:12.064:1,0.195,-0.025
01:16:12.068:1,0.195,-0.045
01:16:12.072:1,0.175,-0.04
01:16:12.076:1,0.185,-0.05
01:16:12.080:1,0.185,-0.065
01:16:12.084:1,0.18,-0.085
01:16:12.088:1,0.185,-0.085
01:16:12.092:1,0.18,-0.105
01:16:12.096:1,0.19,-0.095
01:16:12.100:1,0.18,-0.09
01:16:12.104:1,0.175,-0.11
01:16:12.108:1,0.2,-0.1
01:16:12.112:1,0.195,-0.115
01:16:12.116:1,0.195,-0.12
01:16:12.120:1,0.2,-0.145
01:16:12.124:1,0.2,-0.17
01:16:12.128:1,0.18,-0.185
01:16:12.132:1,0.18,-0.205
01:16:12.136:1,0.19,-0.19
01:16:12.140:1,0.18,-0.195
01:16:12.144:1,0.19,-0.23
01:16:12.148:1,0.2,-0.235
01:16:12.152:1,0.205,-0.235
01:16:12.156:1,0.19,-0.205
01:16:12.160:1,0.175,-0.205
01:16:12.164:1,0.195,-0.19
01:16:12.168:1,0.185,-0.175
01:16:12.172:1,0.19,-0.17
01:16:12.176:1,0.21,-0.15
01:16:12.180:1,0.23,-0.115
01:16:12.184:1,0.23,-0.1
01:16:12.188:1,0.215,-0.09
01:16:12.192:1,0.23,-0.08
01:16:12.196:1,0.22,-0.1
01:16:12.200:1,0.23,-0.115
01:16:12.204:1,0.225,-0.135
01:16:12.208:1,0.235,-0.135
01:16:12.212:1,0.23,-0.16
01:16:12.216:1,0.24,-0.15
01:16:12.220:1,0.235,-0.045
01:16:12.224:1,0.265,0.14
01:16:12.228:1,0.275,0.405
01:16:12.232:1,0.34,0.66
01:16:12.236:1,0.42,0.815
01:16:12.240:1,0.525,0.795
01:16:12.244:1,0.635,0.625
01:16:12.248:1,0.645,0.215
01:16:12.252:1,0.605,-0.3
01:16:12.256:1,0.485,-0.635
01:16:12.260:1,0.265,-0.765
01:16:12.264:1,0.06,-0.715
01:16:12.268:1,-0.025,-0.67
01:16:12.272:1,-0.04,-0.57
01:16:12.276:1,-0.03,-0.465
01:16:12.280:1,0.01,-0.385
01:16:12.284:1,0.095,-0.32
01:16:12.288:1,0.18,-0.3
01:16:12.292:1,0.24,-0.33
01:16:12.296:1,0.27,-0.335
01:16:12.300:1,0.265,-0.345
01:16:12.304:1,0.255,-0.36
01:16:12.308:1,0.26,-0.37
01:16:12.312:1,0.275,-0.375
01:16:12.316:1,0.27,-0.35
01:16:12.320:1,0.25,-0.36
01:16:12.324:1,0.27,-0.395
01:16:12.328:1,0.265,-0.39
01:16:12.332:1,0.26,-0.41
01:16:12.336:1,0.265,-0.395
01:16:12.340:1,0.24,-0.4
01:16:12.344:1,0.235,-0.385
01:16:12.348:1,0.25,-0.395
01:16:12.352:1,0.25,-0.365
01:16:12.356:1,0.24,-0.365
01:16:12.360:1,0.27,-0.36
01:16:12.364:1,0.26,-0.36
01:16:12.368:1,0.25,-0.34
01:16:12.372:1,0.265,-0.355
01:16:12.376:1,0.255,-0.345
01:16:12.380:1,0.275,-0.355
01:16:12.384:1,0.24,-0.375
01:16:12.388:1,0.245,-0.38
01:16:12.392:1,0.26,-0.365
01:16:12.396:1,0.255,-0.375
01:16:12.400:1,0.245,-0.39
01:16:12.404:1,0.265,-0.405
01:16:12.408:1,0.28,-0.4
01:16:12.412:1,0.255,-0.4
01:16:12.416:1,0.245,-0.39
01:16:12.420:1,0.265,-0.365
01:16:12.424:1,0.28,-0.37
01:16:12.428:1,0.275,-0.395
01:16:12.432:1,0.29,-0.41
01:16:12.436:1,0.275,-0.405
01:16:12.440:1,0.275,-0.42
01:16:12.444:1,0.315,-0.43
01:16:12.448:1,0.305,-0.435
01:16:12.452:1,0.31,-0.445
01:16:12.456:1,0.305,-0.455
01:16:12.460:1,0.305,-0.44
01:16:12.464:1,0.3,-0.43
01:16:12.468:1,0.305,-0.445
01:16:12.472:1,0.315,-0.445
01:16:12.476:1,0.3,-0.43
01:16:12.480:1,0.3,-0.42
01:16:12.484:1,0.31,-0.415
01:16:12.488:1,0.31,-0.39
01:16:12.492:1,0.325,-0.35
01:16:12.496:1,0.32,-0.36
01:16:12.500:1,0.36,-0.36
01:16:12.504:1,0.33,-0.34
01:16:12.508:1,0.35,-0.34
01:16:12.512:1,0.345,-0.345
01:16:12.516:1,0.345,-0.34
01:16:12.520:1,0.37,-0.31
01:16:12.524:1,0.37,-0.335
01:16:12.528:1,0.37,-0.335
01:16:12.532:1,0.375,-0.345
01:16:12.536:1,0.38,-0.355
01:16:12.540:1,0.385,-0.365
01:16:12.544:1,0.41,-0.365
01:16:12.548:1,0.385,-0.37
01:16:12.552:1,0.395,-0.405
01:16:12.556:1,0.4,-0.39
01:16:12.560:1,0.4,-0.345
01:16:12.564:1,0.425,-0.32
01:16:12.568:1,0.435,-0.32
01:16:12.572:1,0.425,-0.345
01:16:12.576:1,0.385,-0.355
01:16:12.580:1,0.375,-0.355
01:16:12.584:1,0.37,-0.355
01:16:12.588:1,0.37,-0.36
01:16:12.592:1,0.365,-0.36
01:16:12.596:1,0.375,-0.35
01:16:12.600:1,0.385,-0.33
01:16:12.604:1,0.38,-0.325
01:16:12.608:1,0.395,-0.32
01:16:12.612:1,0.4,-0.31
01:16:12.616:1,0.395,-0.295
01:16:12.620:1,0.425,-0.315
01:16:12.624:1,0.44,-0.345
01:16:12.628:1,0.435,-0.36
01:16:12.632:1,0.44,-0.375
01:16:12.636:1,0.43,-0.41
01:16:12.640:1,0.435,-0.42
01:16:12.644:1,0.425,-0.425
01:16:12.648:1,0.45,-0.445
01:16:12.652:1,0.44,-0.45
01:16:12.656:1,0.435,-0.45
01:16:12.660:1,0.435,-0.465
01:16:12.664:1,0.43,-0.47
01:16:12.668:1,0.445,-0.485
01:16:12.672:1,0.425,-0.475
01:16:12.676:1,0.42,-0.485
01:16:12.680:1,0.435,-0.495
01:16:12.684:1,0.435,-0.49
01:16:12.688:1,0.43,-0.51
01:16:12.692:1,0.445,-0.505
01:16:12.696:1,0.435,-0.515
01:16:12.700:1,0.45,-0.49
01:16:12.704:1,0.43,-0.5
01:16:12.708:1,0.45,-0.52
01:16:12.712:1,0.43,-0.5
01:16:12.716:1,0.455,-0.505
01:16:12.720:1,0.45,-0.52
01:16:12.724:1,0.455,-0.52
01:16:12.728:1,0.47,-0.52
01:16:12.732:1,0.475,-0.525
01:16:12.736:1,0.46,-0.52
01:16:12.740:1,0.49,-0.52
01:16:12.744:1,0.465,-0.53
01:16:12.748:1,0.485,-0.545
01:16:12.752:1,0.485,-0.525
01:16:12.756:1,0.485,-0.53
01:16:12.760:1,0.49,-0.55
01:16:12.764:1,0.5,-0.54
01:16:12.768:1,0.49,-0.525
01:16:12.772:1,0.5,-0.525
01:16:12.776:1,0.5,-0.53
01:16:12.780:1,0.515,-0.54
01:16:12.784:1,0.495,-0.565
01:16:12.788:1,0.51,-0.555
01:16:12.792:1,0.51,-0.535
01:16:12.796:1,0.525,-0.525
01:16:12.800:1,0.535,-0.555
01:16:12.804:1,0.525,-0.54
01:16:12.808:1,0.505,-0.55
01:16:12.812:1,0.54,-0.54
01:16:12.816:1,0.545,-0.545
01:16:12.820:1,0.535,-0.545
01:16:12.824:1,0.545,-0.56
01:16:12.828:1,0.56,-0.56
01:16:12.832:1,0.555,-0.545
01:16:12.836:1,0.565,-0.55
01:16:12.840:1,0.58,-0.55
01:16:12.844:1,0.585,-0.525
01:16:12.848:1,0.585,-0.51
01:16:12.852:1,0.605,-0.48
01:16:12.856:1,0.635,-0.49
01:16:12.860:1,0.63,-0.505
01:16:12.864:1,0.675,-0.55
01:16:12.868:1,0.655,-0.545
01:16:12.872:1,0.655,-0.55
01:16:12.876:1,0.655,-0.57
01:16:12.880:1,0.645,-0.605
01:16:12.884:1,0.655,-0.605
01:16:12.888:1,0.655,-0.605
01:16:12.892:1,0.655,-0.605
01:16:12.896:1,0.655,-0.595
01:16:12.900:1,0.67,-0.575
01:16:12.904:1,0.665,-0.56
01:16:12.908:1,0.67,-0.555
01:16:12.912:1,0.65,-0.57
01:16:12.916:1,0.67,-0.585
01:16:12.920:1,0.66,-0.605
01:16:12.924:1,0.645,-0.6
01:16:12.928:1,0.64,-0.605
01:16:12.932:1,0.64,-0.63
01:16:12.936:1,0.63,-0.63
01:16:12.940:1,0.625,-0.645
01:16:12.944:1,0.63,-0.635
01:16:12.948:1,0.65,-0.64
01:16:12.952:1,0.655,-0.63
01:16:12.956:1,0.63,-0.64
01:16:12.960:1,0.645,-0.645
01:16:12.964:1,0.65,-0.65
01:16:12.968:1,0.655,-0.64
01:16:12.972:1,0.66,-0.655
01:16:12.976:1,0.68,-0.65
01:16:12.980:1,0.67,-0.65
01:16:12.984:1,0.675,-0.645
01:16:12.988:1,0.695,-0.645
01:16:12.992:1,0.69,-0.645
01:16:12.996:1,0.685,-0.66
01:16:13.000:1,0.675,-0.68
01:16:13.004:1,0.685,-0.605
01:16:13.008:1,0.7,-0.47
01:16:13.012:1,0.74,-0.255
01:16:13.016:1,0.765,-0.025
01:16:13.020:1,0.8,0.165
01:16:13.024:1,0.9,0.26
01:16:13.028:1,0.995,0.27
01:16:13.032:1,1.035,0.145
01:16:13.036:1,1.03,-0.25
01:16:13.040:1,1.005,-0.725
01:16:13.044:1,0.925,-0.96
01:16:13.048:1,0.72,-1.06
01:16:13.052:1,0.53,-1.085
01:16:13.056:1,0.43,-1.065
01:16:13.060:1,0.405,-0.955
01:16:13.064:1,0.425,-0.84
01:16:13.068:1,0.445,-0.79
01:16:13.072:1,0.53,-0.74
01:16:13.076:1,0.58,-0.7
01:16:13.080:1,0.655,-0.7
01:16:13.084:1,0.705,-0.705
01:16:13.088:1,0.73,-0.71
01:16:13.092:1,0.74,-0.715
01:16:13.096:1,0.745,-0.725
01:16:13.100:1,0.755,-0.74
01:16:13.104:1,0.745,-0.74
01:16:13.108:1,0.72,-0.75
01:16:13.112:1,0.73,-0.77
01:16:13.116:1,0.715,-0.78
01:16:13.120:1,0.705,-0.755
01:16:13.124:1,0.735,-0.745
01:16:13.128:1,0.755,-0.76
01:16:13.132:1,0.745,-0.775
01:16:13.136:1,0.745,-0.785
01:16:13.140:1,0.74,-0.79
01:16:13.144:1,0.755,-0.785
01:16:13.148:1,0.77,-0.75
01:16:13.152:1,0.78,-0.71
01:16:13.156:1,0.79,-0.705
01:16:13.160:1,0.795,-0.7
01:16:13.164:1,0.785,-0.71
01:16:13.168:1,0.765,-0.745
01:16:13.172:1,0.775,-0.75
01:16:13.176:1,0.75,-0.74
01:16:13.180:1,0.71,-0.745
01:16:13.184:1,0.725,-0.745
01:16:13.188:1,0.73,-0.74
01:16:13.192:1,0.725,-0.73
01:16:13.196:1,0.745,-0.74
01:16:13.200:1,0.735,-0.735
01:16:13.204:1,0.735,-0.75
01:16:13.208:1,0.735,-0.765
01:16:13.212:1,0.735,-0.755
01:16:13.216:1,0.725,-0.74
01:16:13.220:1,0.735,-0.735
01:16:13.224:1,0.735,-0.74
01:16:13.228:1,0.735,-0.72
01:16:13.232:1,0.735,-0.72
01:16:13.236:1,0.755,-0.73
01:16:13.240:1,0.745,-0.72
01:16:13.244:1,0.725,-0.73
01:16:13.248:1,0.74,-0.735
01:16:13.252:1,0.745,-0.715
01:16:13.256:1,0.74,-0.72
01:16:13.260:1,0.735,-0.715
01:16:13.264:1,0.74,-0.715
01:16:13.268:1,0.75,-0.705
01:16:13.272:1,0.76,-0.68
01:16:13.276:1,0.755,-0.7
01:16:13.280:1,0.74,-0.705
01:16:13.284:1,0.765,-0.68
01:16:13.288:1,0.765,-0.66
01:16:13.292:1,0.77,-0.645
01:16:13.296:1,0.755,-0.64
01:16:13.300:1,0.77,-0.64
01:16:13.304:1,0.775,-0.625
01:16:13.308:1,0.77,-0.63
01:16:13.312:1,0.775,-0.6
01:16:13.316:1,0.79,-0.595
01:16:13.320:1,0.79,-0.61
01:16:13.324:1,0.78,-0.595
01:16:13.328:1,0.785,-0.625
01:16:13.332:1,0.805,-0.62
01:16:13.336:1,0.805,-0.605
01:16:13.340:1,0.8,-0.62
01:16:13.344:1,0.805,-0.635
01:16:13.348:1,0.8,-0.65
01:16:13.352:1,0.795,-0.65
01:16:13.356:1,0.805,-0.65
01:16:13.360:1,0.785,-0.645
01:16:13.364:1,0.8,-0.66
01:16:13.368:1,0.795,-0.65
01:16:13.372:1,0.805,-0.64
01:16:13.376:1,0.8,-0.645
01:16:13.380:1,0.805,-0.63
01:16:13.384:1,0.795,-0.655
01:16:13.388:1,0.8,-0.64
01:16:13.392:1,0.79,-0.65
01:16:13.396:1,0.81,-0.64
01:16:13.400:1,0.805,-0.645
01:16:13.404:1,0.785,-0.655
01:16:13.408:1,0.79,-0.66
01:16:13.412:1,0.8,-0.635
01:16:13.416:1,0.79,-0.64
01:16:13.420:1,0.785,-0.655
01:16:13.424:1,0.8,-0.65
01:16:13.428:1,0.775,-0.655
01:16:13.432:1,0.795,-0.66
01:16:13.436:1,0.785,-0.665
01:16:13.440:1,0.785,-0.66
01:16:13.444:1,0.765,-0.66
01:16:13.448:1,0.775,-0.675
01:16:13.452:1,0.775,-0.68
01:16:13.456:1,0.765,-0.67
01:16:13.460:1,0.755,-0.68
01:16:13.464:1,0.785,-0.69
01:16:13.468:1,0.77,-0.7
01:16:13.472:1,0.75,-0.68
01:16:13.476:1,0.755,-0.7
01:16:13.480:1,0.775,-0.7
01:16:13.484:1,0.755,-0.7
01:16:13.488:1,0.77,-0.695
01:16:13.492:1,0.76,-0.69
01:16:13.496:1,0.755,-0.71
01:16:13.500:1,0.75,-0.71
01:16:13.504:1,0.75,-0.72
01:16:13.508:1,0.755,-0.725
01:16:13.512:1,0.735,-0.705
01:16:13.516:1,0.74,-0.72
01:16:13.520:1,0.77,-0.72
01:16:13.524:1,0.76,-0.715
01:16:13.528:1,0.75,-0.71
01:16:13.532:1,0.73,-0.73
01:16:13.536:1,0.755,-0.72
01:16:13.540:1,0.745,-0.73
01:16:13.544:1,0.755,-0.725
01:16:13.548:1,0.755,-0.72
01:16:13.552:1,0.74,-0.705
01:16:13.556:1,0.74,-0.72
01:16:13.560:1,0.75,-0.745
01:16:13.564:1,0.745,-0.74
01:16:13.568:1,0.74,-0.71
01:16:13.572:1,0.745,-0.73
01:16:13.576:1,0.755,-0.735
01:16:13.580:1,0.75,-0.72
01:16:13.584:1,0.73,-0.715
01:16:13.588:1,0.745,-0.73
01:16:13.592:1,0.735,-0.72
01:16:13.596:1,0.73,-0.735
01:16:13.600:1,0.74,-0.725
01:16:13.604:1,0.755,-0.73
01:16:13.608:1,0.73,-0.71
01:16:13.612:1,0.735,-0.73
01:16:13.616:1,0.735,-0.735
01:16:13.620:1,0.735,-0.745
01:16:13.624:1,0.735,-0.735
01:16:13.628:1,0.735,-0.735
01:16:13.632:1,0.74,-0.735
01:16:13.636:1,0.72,-0.74
01:16:13.640:1,0.73,-0.72
01:16:13.644:1,0.72,-0.72
01:16:13.648:1,0.72,-0.725
01:16:13.652:1,0.725,-0.74
01:16:13.656:1,0.73,-0.745
01:16:13.660:1,0.725,-0.735
01:16:13.664:1,0.725,-0.72
01:16:13.668:1,0.715,-0.73
01:16:13.672:1,0.745,-0.72
01:16:13.676:1,0.73,-0.74
01:16:13.680:1,0.715,-0.725
01:16:13.684:1,0.725,-0.73
01:16:13.688:1,0.725,-0.73
01:16:13.692:1,0.7,-0.735
01:16:13.696:1,0.7,-0.73
01:16:13.700:1,0.72,-0.725
01:16:13.704:1,0.71,-0.72
01:16:13.708:1,0.7,-0.74
01:16:13.712:1,0.705,-0.74
01:16:13.716:1,0.72,-0.735
01:16:13.720:1,0.705,-0.72
01:16:13.724:1,0.71,-0.735
01:16:13.728:1,0.71,-0.735
01:16:13.732:1,0.71,-0.725
01:16:13.736:1,0.71,-0.725
01:16:13.740:1,0.71,-0.725
01:16:13.744:1,0.69,-0.72
01:16:13.748:1,0.695,-0.72
01:16:13.752:1,0.695,-0.73
01:16:13.756:1,0.7,-0.735
01:16:13.760:1,0.685,-0.72
01:16:13.764:1,0.695,-0.735
01:16:13.768:1,0.715,-0.735
01:16:13.772:1,0.71,-0.735
01:16:13.776:1,0.71,-0.725
01:16:13.780:1,0.7,-0.74
01:16:13.784:1,0.705,-0.74
01:16:13.788:1,0.695,-0.725
01:16:13.792:1,0.695,-0.73
01:16:13.796:1,0.71,-0.73
01:16:13.800:1,0.685,-0.715
01:16:13.804:1,0.695,-0.75
01:16:13.808:1,0.705,-0.72
01:16:13.812:1,0.695,-0.73
01:16:13.816:1,0.695,-0.72
01:16:13.820:1,0.705,-0.715
01:16:13.824:1,0.7,-0.715
01:16:13.828:1,0.71,-0.72
01:16:13.832:1,0.695,-0.725
01:16:13.836:1,0.7,-0.725
01:16:13.840:1,0.69,-0.72
01:16:13.844:1,0.695,-0.72
01:16:13.848:1,0.705,-0.73
01:16:13.852:1,0.695,-0.735
01:16:13.856:1,0.695,-0.73
01:16:13.860:1,0.715,-0.72
01:16:13.864:1,0.71,-0.715
01:16:13.868:1,0.695,-0.735
01:16:13.872:1,0.675,-0.735
01:16:13.876:1,0.7,-0.725
01:16:13.880:1,0.68,-0.71
01:16:13.884:1,0.685,-0.73
01:16:13.888:1,0.685,-0.72
01:16:13.892:1,0.685,-0.71
01:16:13.896:1,0.695,-0.71
01:16:13.900:1,0.705,-0.7
01:16:13.904:1,0.685,-0.71
01:16:13.908:1,0.67,-0.715
01:16:13.912:1,0.695,-0.74
01:16:13.916:1,0.71,-0.72
01:16:13.920:1,0.7,-0.705
01:16:13.924:1,0.7,-0.715
01:16:13.928:1,0.705,-0.71
01:16:13.932:1,0.685,-0.7
01:16:13.936:1,0.69,-0.695
01:16:13.940:1,0.7,-0.7
01:16:13.944:1,0.68,-0.695
01:16:13.948:1,0.69,-0.67
01:16:13.952:1,0.705,-0.65
01:16:13.956:1,0.695,-0.64
01:16:13.960:1,0.715,-0.625
01:16:13.964:1,0.725,-0.63
01:16:13.968:1,0.74,-0.615
01:16:13.972:1,0.745,-0.58
01:16:13.976:1,0.745,-0.575
01:16:13.980:1,0.76,-0.585
01:16:13.984:1,0.745,-0.615
01:16:13.988:1,0.71,-0.635
01:16:13.992:1,0.685,-0.645
01:16:13.996:1,0.67,-0.675
01:16:14.000:1,0.655,-0.69
01:16:14.004:1,0.665,-0.695
01:16:14.008:1,0.665,-0.705
01:16:14.012:1,0.645,-0.68
01:16:14.016:1,0.635,-0.67
01:16:14.020:1,0.655,-0.685
01:16:14.024:1,0.67,-0.69
01:16:14.028:1,0.655,-0.71
01:16:14.032:1,0.67,-0.715
01:16:14.036:1,0.66,-0.735
01:16:14.040:1,0.665,-0.755
01:16:14.044:1,0.655,-0.75
01:16:14.048:1,0.69,-0.785
01:16:14.052:1,0.685,-0.77
01:16:14.056:1,0.655,-0.78
01:16:14.060:1,0.66,-0.77
01:16:14.064:1,0.66,-0.77
01:16:14.068:1,0.635,-0.765
01:16:14.072:1,0.625,-0.755
01:16:14.076:1,0.635,-0.76
01:16:14.080:1,0.645,-0.765
01:16:14.084:1,0.645,-0.74
01:16:14.088:1,0.63,-0.755
01:16:14.092:1,0.645,-0.77
01:16:14.096:1,0.65,-0.785
01:16:14.100:1,0.63,-0.79
01:16:14.104:1,0.635,-0.745
01:16:14.108:1,0.66,-0.65
01:16:14.112:1,0.665,-0.475
01:16:14.116:1,0.665,-0.265
01:16:14.120:1,0.715,-0.08
01:16:14.124:1,0.775,0.09
01:16:14.128:1,0.84,0.12
01:16:14.132:1,0.905,0.115
01:16:14.136:1,0.89,-0.035
01:16:14.140:1,0.845,-0.47
01:16:14.144:1,0.785,-0.88
01:16:14.148:1,0.645,-1.1
01:16:14.152:1,0.435,-1.19
01:16:14.156:1,0.295,-1.17
01:16:14.160:1,0.25,-1.085
01:16:14.164:1,0.24,-0.965
01:16:14.168:1,0.295,-0.885
01:16:14.172:1,0.365,-0.805
01:16:14.176:1,0.465,-0.79
01:16:14.180:1,0.515,-0.775
01:16:14.184:1,0.585,-0.785
01:16:14.188:1,0.59,-0.79
01:16:14.192:1,0.595,-0.795
01:16:14.196:1,0.585,-0.79
01:16:14.200:1,0.6,-0.785
01:16:14.204:1,0.6,-0.785
01:16:14.208:1,0.61,-0.77
01:16:14.212:1,0.595,-0.78
01:16:14.216:1,0.6,-0.765
01:16:14.220:1,0.605,-0.77
01:16:14.224:1,0.575,-0.765
01:16:14.228:1,0.605,-0.78
01:16:14.232:1,0.59,-0.77
01:16:14.236:1,0.595,-0.78
01:16:14.240:1,0.575,-0.765
01:16:14.244:1,0.58,-0.74
01:16:14.248:1,0.58,-0.74
01:16:14.252:1,0.59,-0.75
01:16:14.256:1,0.595,-0.78
01:16:14.260:1,0.595,-0.765
01:16:14.264:1,0.565,-0.765
01:16:14.268:1,0.57,-0.77
01:16:14.272:1,0.585,-0.795
01:16:14.276:1,0.58,-0.775
01:16:14.280:1,0.555,-0.765
01:16:14.284:1,0.565,-0.76
01:16:14.288:1,0.55,-0.745
01:16:14.292:1,0.535,-0.755
01:16:14.296:1,0.555,-0.745
01:16:14.300:1,0.58,-0.745
01:16:14.304:1,0.57,-0.76
01:16:14.308:1,0.585,-0.745
01:16:14.312:1,0.595,-0.68
01:16:14.316:1,0.61,-0.615
01:16:14.320:1,0.63,-0.59
01:16:14.324:1,0.655,-0.58
01:16:14.328:1,0.645,-0.61
01:16:14.332:1,0.65,-0.635
01:16:14.336:1,0.65,-0.68
01:16:14.340:1,0.635,-0.68
01:16:14.344:1,0.605,-0.68
01:16:14.348:1,0.585,-0.705
01:16:14.352:1,0.57,-0.7
01:16:14.356:1,0.535,-0.705
01:16:14.360:1,0.55,-0.7
01:16:14.364:1,0.55,-0.695
01:16:14.368:1,0.555,-0.675
01:16:14.372:1,0.555,-0.68
01:16:14.376:1,0.555,-0.675
01:16:14.380:1,0.555,-0.665
01:16:14.384:1,0.56,-0.645
01:16:14.388:1,0.54,-0.67
01:16:14.392:1,0.56,-0.67
01:16:14.396:1,0.545,-0.64
01:16:14.400:1,0.53,-0.645
01:16:14.404:1,0.54,-0.615
01:16:14.408:1,0.54,-0.615
01:16:14.412:1,0.55,-0.61
01:16:14.416:1,0.555,-0.61
01:16:14.420:1,0.55,-0.58
01:16:14.424:1,0.54,-0.565
01:16:14.428:1,0.545,-0.565
01:16:14.432:1,0.555,-0.57
01:16:14.436:1,0.545,-0.555
01:16:14.440:1,0.545,-0.56
01:16:14.444:1,0.56,-0.57
01:16:14.448:1,0.53,-0.595
01:16:14.452:1,0.55,-0.605
01:16:14.456:1,0.53,-0.615
01:16:14.460:1,0.51,-0.61
01:16:14.464:1,0.53,-0.64
01:16:14.468:1,0.52,-0.64
01:16:14.472:1,0.525,-0.64
01:16:14.476:1,0.5,-0.64
01:16:14.480:1,0.525,-0.655
01:16:14.484:1,0.53,-0.66
01:16:14.488:1,0.52,-0.655
01:16:14.492:1,0.515,-0.635
01:16:14.496:1,0.5,-0.635
01:16:14.500:1,0.515,-0.64
01:16:14.504:1,0.52,-0.675
01:16:14.508:1,0.52,-0.675
01:16:14.512:1,0.505,-0.58
01:16:14.516:1,0.525,-0.42
01:16:14.520:1,0.54,-0.185
01:16:14.524:1,0.54,0.07
01:16:14.528:1,0.555,0.235
01:16:14.532:1,0.625,0.325
01:16:14.536:1,0.71,0.255
01:16:14.540:1,0.775,-0.075
01:16:14.544:1,0.86,-0.47
01:16:14.548:1,0.84,-0.785
01:16:14.552:1,0.71,-0.9
01:16:14.556:1,0.58,-0.89
01:16:14.560:1,0.465,-0.9
01:16:14.564:1,0.39,-0.905
01:16:14.568:1,0.38,-0.845
01:16:14.572:1,0.355,-0.745
01:16:14.576:1,0.335,-0.685
01:16:14.580:1,0.385,-0.66
01:16:14.584:1,0.435,-0.65
01:16:14.588:1,0.445,-0.63
01:16:14.592:1,0.47,-0.675
01:16:14.596:1,0.47,-0.665
01:16:14.600:1,0.455,-0.685
01:16:14.604:1,0.45,-0.69
01:16:14.608:1,0.445,-0.69
01:16:14.612:1,0.44,-0.68
01:16:14.616:1,0.435,-0.67
01:16:14.620:1,0.425,-0.69
01:16:14.624:1,0.44,-0.705
01:16:14.628:1,0.455,-0.715
01:16:14.632:1,0.44,-0.685
01:16:14.636:1,0.43,-0.72
01:16:14.640:1,0.415,-0.73
01:16:14.644:1,0.395,-0.705
01:16:14.648:1,0.425,-0.73
01:16:14.652:1,0.41,-0.725
01:16:14.656:1,0.43,-0.735
01:16:14.660:1,0.415,-0.735
01:16:14.664:1,0.415,-0.735
01:16:14.668:1,0.415,-0.685
01:16:14.672:1,0.4,-0.62
01:16:14.676:1,0.41,-0.64
01:16:14.680:1,0.445,-0.63
01:16:14.684:1,0.42,-0.58
01:16:14.688:1,0.425,-0.57
01:16:14.692:1,0.42,-0.555
01:16:14.696:1,0.42,-0.545
01:16:14.700:1,0.425,-0.515
01:16:14.704:1,0.415,-0.505
01:16:14.708:1,0.415,-0.48
01:16:14.712:1,0.415,-0.475
01:16:14.716:1,0.415,-0.46
01:16:14.720:1,0.43,-0.475
01:16:14.724:1,0.435,-0.46
01:16:14.728:1,0.43,-0.465
01:16:14.732:1,0.445,-0.48
01:16:14.736:1,0.435,-0.475
01:16:14.740:1,0.42,-0.475
01:16:14.744:1,0.41,-0.48
01:16:14.748:1,0.41,-0.465
01:16:14.752:1,0.415,-0.475
01:16:14.756:1,0.41,-0.48
01:16:14.760:1,0.405,-0.47
01:16:14.764:1,0.405,-0.47
01:16:14.768:1,0.405,-0.435
01:16:14.772:1,0.42,-0.455
01:16:14.776:1,0.415,-0.44
01:16:14.780:1,0.395,-0.43
01:16:14.784:1,0.42,-0.43
01:16:14.788:1,0.405,-0.43
01:16:14.792:1,0.405,-0.43
01:16:14.796:1,0.42,-0.465
01:16:14.800:1,0.445,-0.47
01:16:14.804:1,0.41,-0.505
01:16:14.808:1,0.405,-0.525
01:16:14.812:1,0.4,-0.545
01:16:14.816:1,0.41,-0.55
01:16:14.820:1,0.4,-0.565
01:16:14.824:1,0.405,-0.57
01:16:14.828:1,0.405,-0.575
01:16:14.832:1,0.41,-0.595
01:16:14.836:1,0.415,-0.6
01:16:14.840:1,0.405,-0.605
01:16:14.844:1,0.425,-0.565
01:16:14.848:1,0.405,-0.5
01:16:14.852:1,0.41,-0.47
01:16:14.856:1,0.43,-0.475
01:16:14.860:1,0.435,-0.445
01:16:14.864:1,0.45,-0.455
01:16:14.868:1,0.44,-0.42
01:16:14.872:1,0.45,-0.425
01:16:14.876:1,0.4,-0.405
01:16:14.880:1,0.425,-0.405
01:16:14.884:1,0.405,-0.41
01:16:14.888:1,0.41,-0.415
01:16:14.892:1,0.38,-0.43
01:16:14.896:1,0.4,-0.43
01:16:14.900:1,0.375,-0.445
01:16:14.904:1,0.405,-0.42
01:16:14.908:1,0.425,-0.41
01:16:14.912:1,0.405,-0.415
01:16:14.916:1,0.415,-0.435
01:16:14.920:1,0.415,-0.475
01:16:14.924:1,0.415,-0.46
01:16:14.928:1,0.395,-0.47
01:16:14.932:1,0.405,-0.485
01:16:14.936:1,0.385,-0.48
01:16:14.940:1,0.38,-0.465
01:16:14.944:1,0.39,-0.47
01:16:14.948:1,0.385,-0.48
01:16:14.952:1,0.385,-0.48
01:16:14.956:1,0.38,-0.5
01:16:14.960:1,0.375,-0.485
01:16:14.964:1,0.375,-0.51
01:16:14.968:1,0.37,-0.505
01:16:14.972:1,0.335,-0.505
01:16:14.976:1,0.35,-0.53
01:16:14.980:1,0.35,-0.53
01:16:14.984:1,0.35,-0.54
01:16:14.988:1,0.32,-0.535
01:16:14.992:1,0.335,-0.53
01:16:14.996:1,0.315,-0.54
01:16:15.000:1,0.305,-0.54
01:16:15.004:1,0.315,-0.56
01:16:15.008:1,0.31,-0.55
01:16:15.012:1,0.295,-0.535
01:16:15.016:1,0.295,-0.435
01:16:15.020:1,0.32,-0.215
01:16:15.024:1,0.33,0.07
01:16:15.028:1,0.38,0.275
01:16:15.032:1,0.465,0.42
01:16:15.036:1,0.535,0.47
01:16:15.040:1,0.605,0.39
01:16:15.044:1,0.635,0.05
01:16:15.048:1,0.615,-0.43
01:16:15.052:1,0.555,-0.72
01:16:15.056:1,0.355,-0.84
01:16:15.060:1,0.155,-0.85
01:16:15.064:1,0.04,-0.825
01:16:15.068:1,-0.015,-0.74
01:16:15.072:1,0.02,-0.64
01:16:15.076:1,0.015,-0.57
01:16:15.080:1,0.065,-0.49
01:16:15.084:1,0.14,-0.475
01:16:15.088:1,0.18,-0.465
01:16:15.092:1,0.215,-0.47
01:16:15.096:1,0.225,-0.45
01:16:15.100:1,0.24,-0.465
01:16:15.104:1,0.25,-0.46
01:16:15.108:1,0.24,-0.475
01:16:15.112:1,0.235,-0.49
01:16:15.116:1,0.245,-0.49
01:16:15.120:1,0.215,-0.495
01:16:15.124:1,0.225,-0.51
01:16:15.128:1,0.2,-0.51
01:16:15.132:1,0.215,-0.51
01:16:15.136:1,0.195,-0.52
01:16:15.140:1,0.18,-0.53
01:16:15.144:1,0.19,-0.54
01:16:15.148:1,0.165,-0.525
01:16:15.152:1,0.165,-0.52
01:16:15.156:1,0.18,-0.53
01:16:15.160:1,0.155,-0.535
01:16:15.164:1,0.145,-0.55
01:16:15.168:1,0.15,-0.56
01:16:15.172:1,0.14,-0.55
01:16:15.176:1,0.13,-0.5
01:16:15.180:1,0.15,-0.475
01:16:15.184:1,0.15,-0.45
01:16:15.188:1,0.135,-0.425
01:16:15.192:1,0.13,-0.43
01:16:15.196:1,0.14,-0.415
01:16:15.200:1,0.11,-0.4
01:16:15.204:1,0.105,-0.39
01:16:15.208:1,0.095,-0.39
01:16:15.212:1,0.09,-0.385
01:16:15.216:1,0.085,-0.35
01:16:15.220:1,0.095,-0.35
01:16:15.224:1,0.085,-0.365
01:16:15.228:1,0.095,-0.35
01:16:15.232:1,0.085,-0.335
01:16:15.236:1,0.105,-0.355
01:16:15.240:1,0.11,-0.36
01:16:15.244:1,0.11,-0.36
01:16:15.248:1,0.075,-0.36
01:16:15.252:1,0.09,-0.35
01:16:15.256:1,0.08,-0.345
01:16:15.260:1,0.075,-0.35
01:16:15.264:1,0.085,-0.31
01:16:15.268:1,0.055,-0.29
01:16:15.272:1,0.08,-0.285
01:16:15.276:1,0.075,-0.295
01:16:15.280:1,0.075,-0.295
01:16:15.284:1,0.08,-0.29
01:16:15.288:1,0.085,-0.265
01:16:15.292:1,0.08,-0.285
01:16:15.296:1,0.075,-0.25
01:16:15.300:1,0.07,-0.24
01:16:15.304:1,0.065,-0.235
01:16:15.308:1,0.06,-0.215
01:16:15.312:1,0.055,-0.21
01:16:15.316:1,0.065,-0.235
01:16:15.320:1,0.065,-0.23
01:16:15.324:1,0.045,-0.215
01:16:15.328:1,0.07,-0.195
01:16:15.332:1,0.05,-0.185
01:16:15.336:1,0.04,-0.2
01:16:15.340:1,0.03,-0.18
01:16:15.344:1,0.03,-0.185
01:16:15.348:1,0.015,-0.165
01:16:15.352:1,0.01,-0.155
01:16:15.356:1,-0.01,-0.16
01:16:15.360:1,0.0,-0.155
01:16:15.364:1,0.0,-0.155
01:16:15.368:1,-0.02,-0.155
01:16:15.372:1,-0.03,-0.155
01:16:15.376:1,-0.03,-0.165
01:16:15.380:1,-0.055,-0.16
01:16:15.384:1,-0.035,-0.135
01:16:15.388:1,-0.05,-0.1
01:16:15.392:1,-0.04,-0.1
01:16:15.396:1,-0.045,-0.11
01:16:15.400:1,-0.055,-0.125
01:16:15.404:1,-0.07,-0.115
01:16:15.408:1,-0.075,-0.125
01:16:15.412:1,-0.08,-0.13
01:16:15.416:1,-0.08,-0.155
01:16:15.420:1,-0.08,-0.16
01:16:15.424:1,-0.07,-0.16
01:16:15.428:1,-0.09,-0.14
01:16:15.432:1,-0.11,-0.125
01:16:15.436:1,-0.115,-0.13
01:16:15.440:1,-0.105,-0.14
01:16:15.444:1,-0.1,-0.16
01:16:15.448:1,-0.115,-0.155
01:16:15.452:1,-0.105,-0.07
01:16:15.456:1,-0.12,0.075
01:16:15.460:1,-0.095,0.29
01:16:15.464:1,-0.045,0.515
01:16:15.468:1,-0.015,0.715
01:16:15.472:1,0.045,0.725
01:16:15.476:1,0.145,0.645
01:16:15.480:1,0.175,0.385
01:16:15.484:1,0.15,-0.05
01:16:15.488:1,0.045,-0.41
01:16:15.492:1,-0.115,-0.59
01:16:15.496:1,-0.33,-0.555
01:16:15.500:1,-0.49,-0.47
01:16:15.504:1,-0.54,-0.39
01:16:15.508:1,-0.535,-0.255
01:16:15.512:1,-0.505,-0.14
01:16:15.516:1,-0.435,-0.065
01:16:15.520:1,-0.35,-0.04
01:16:15.524:1,-0.28,-0.035
01:16:15.528:1,-0.285,-0.07
01:16:15.532:1,-0.265,-0.08
01:16:15.536:1,-0.28,-0.08
01:16:15.540:1,-0.29,-0.08
01:16:15.544:1,-0.29,-0.08
01:16:15.548:1,-0.3,-0.09
01:16:15.552:1,-0.32,-0.08
01:16:15.556:1,-0.315,-0.09
01:16:15.560:1,-0.315,-0.085
01:16:15.564:1,-0.33,-0.085
01:16:15.568:1,-0.32,-0.08
01:16:15.572:1,-0.355,-0.08
01:16:15.576:1,-0.34,-0.05
01:16:15.580:1,-0.34,-0.035
01:16:15.584:1,-0.37,-0.055
01:16:15.588:1,-0.345,-0.015
01:16:15.592:1,-0.345,-0.01
01:16:15.596:1,-0.335,-0.01
01:16:15.600:1,-0.34,-0.015
01:16:15.604:1,-0.345,-0.025
01:16:15.608:1,-0.355,-0.055
01:16:15.612:1,-0.335,-0.055
01:16:15.616:1,-0.37,-0.055
01:16:15.620:1,-0.365,-0.04
01:16:15.624:1,-0.39,-0.045
01:16:15.628:1,-0.39,-0.025
01:16:15.632:1,-0.38,-0.03
01:16:15.636:1,-0.395,0.005
01:16:15.640:1,-0.395,-0.01
01:16:15.644:1,-0.39,-0.01
01:16:15.648:1,-0.4,-0.01
01:16:15.652:1,-0.405,0.02
01:16:15.656:1,-0.41,0.01
01:16:15.660:1,-0.395,0.055
01:16:15.664:1,-0.39,0.07
01:16:15.668:1,-0.38,0.14
01:16:15.672:1,-0.365,0.155
01:16:15.676:1,-0.365,0.185
01:16:15.680:1,-0.39,0.205
01:16:15.684:1,-0.395,0.205
01:16:15.688:1,-0.395,0.215
01:16:15.692:1,-0.425,0.235
01:16:15.696:1,-0.435,0.245
01:16:15.700:1,-0.45,0.255
01:16:15.704:1,-0.46,0.255
01:16:15.708:1,-0.46,0.265
01:16:15.712:1,-0.465,0.275
01:16:15.716:1,-0.475,0.3
01:16:15.720:1,-0.47,0.315
01:16:15.724:1,-0.485,0.31
01:16:15.728:1,-0.485,0.315
01:16:15.732:1,-0.485,0.345
01:16:15.736:1,-0.475,0.33
01:16:15.740:1,-0.465,0.33
01:16:15.744:1,-0.485,0.32
01:16:15.748:1,-0.49,0.335
01:16:15.752:1,-0.48,0.32
01:16:15.756:1,-0.505,0.325
01:16:15.760:1,-0.48,0.33
01:16:15.764:1,-0.51,0.34
01:16:15.768:1,-0.49,0.345
01:16:15.772:1,-0.505,0.38
01:16:15.776:1,-0.495,0.37
01:16:15.780:1,-0.475,0.37
01:16:15.784:1,-0.5,0.36
01:16:15.788:1,-0.505,0.37
01:16:15.792:1,-0.5,0.35
01:16:15.796:1,-0.515,0.355
01:16:15.800:1,-0.515,0.34
01:16:15.804:1,-0.5,0.32
01:16:15.808:1,-0.53,0.315
01:16:15.812:1,-0.54,0.335
01:16:15.816:1,-0.535,0.325
01:16:15.820:1,-0.545,0.315
01:16:15.824:1,-0.55,0.3
01:16:15.828:1,-0.555,0.31
01:16:15.832:1,-0.53,0.305
01:16:15.836:1,-0.535,0.345
01:16:15.840:1,-0.54,0.38
01:16:15.844:1,-0.54,0.425
01:16:15.848:1,-0.54,0.445
01:16:15.852:1,-0.545,0.455
01:16:15.856:1,-0.555,0.44
01:16:15.860:1,-0.57,0.44
01:16:15.864:1,-0.585,0.425
01:16:15.868:1,-0.605,0.435
01:16:15.872:1,-0.62,0.42
01:16:15.876:1,-0.63,0.435
01:16:15.880:1,-0.64,0.42
01:16:15.884:1,-0.65,0.43
01:16:15.888:1,-0.66,0.44
01:16:15.892:1,-0.66,0.455
01:16:15.896:1,-0.67,0.445
01:16:15.900:1,-0.67,0.435
01:16:15.904:1,-0.665,0.43
01:16:15.908:1,-0.665,0.445
01:16:15.912:1,-0.68,0.45
01:16:15.916:1,-0.69,0.46
01:16:15.920:1,-0.68,0.46
01:16:15.924:1,-0.695,0.46
01:16:15.928:1,-0.68,0.475
01:16:15.932:1,-0.71,0.495
01:16:15.936:1,-0.7,0.505
01:16:15.940:1,-0.705,0.49
01:16:15.944:1,-0.7,0.495
01:16:15.948:1,-0.715,0.505
01:16:15.952:1,-0.705,0.51
01:16:15.956:1,-0.71,0.5
01:16:15.960:1,-0.705,0.52
01:16:15.964:1,-0.7,0.52
01:16:15.968:1,-0.68,0.52
01:16:15.972:1,-0.695,0.49
01:16:15.976:1,-0.695,0.485
01:16:15.980:1,-0.73,0.48
01:16:15.984:1,-0.73,0.485
01:16:15.988:1,-0.73,0.475
01:16:15.992:1,-0.75,0.49
01:16:15.996:1,-0.755,0.5
01:16:16.000:1,-0.75,0.48
01:16:16.004:1,-0.765,0.48
01:16:16.008:1,-0.75,0.47
01:16:16.012:1,-0.76,0.46
01:16:16.016:1,-0.775,0.48
01:16:16.020:1,-0.75,0.525
01:16:16.024:1,-0.74,0.595
01:16:16.028:1,-0.735,0.63
01:16:16.032:1,-0.735,0.63
01:16:16.036:1,-0.76,0.635
01:16:16.040:1,-0.74,0.645
01:16:16.044:1,-0.76,0.635
01:16:16.048:1,-0.765,0.615
01:16:16.052:1,-0.77,0.61
01:16:16.056:1,-0.775,0.59
01:16:16.060:1,-0.8,0.575
01:16:16.064:1,-0.8,0.55
01:16:16.068:1,-0.815,0.615
01:16:16.072:1,-0.835,0.745
01:16:16.076:1,-0.815,0.955
01:16:16.080:1,-0.765,1.185
01:16:16.084:1,-0.735,1.365
01:16:16.088:1,-0.655,1.435
01:16:16.092:1,-0.58,1.395
01:16:16.096:1,-0.555,1.135
01:16:16.100:1,-0.605,0.69
01:16:16.104:1,-0.66,0.3
01:16:16.108:1,-0.825,0.105
01:16:16.112:1,-1.0,0.08
01:16:16.116:1,-1.14,0.15
01:16:16.120:1,-1.2,0.29
01:16:16.124:1,-1.175,0.43
01:16:16.128:1,-1.14,0.51
01:16:16.132:1,-1.06,0.565
01:16:16.136:1,-0.955,0.575
01:16:16.140:1,-0.905,0.565
01:16:16.144:1,-0.9,0.54
01:16:16.148:1,-0.885,0.535
01:16:16.152:1,-0.875,0.535
01:16:16.156:1,-0.885,0.545
01:16:16.160:1,-0.875,0.545
01:16:16.164:1,-0.88,0.535
01:16:16.168:1,-0.905,0.525
01:16:16.172:1,-0.9,0.515
01:16:16.176:1,-0.89,0.515
01:16:16.180:1,-0.895,0.51
01:16:16.184:1,-0.91,0.495
01:16:16.188:1,-0.9,0.48
01:16:16.192:1,-0.88,0.495
01:16:16.196:1,-0.89,0.545
01:16:16.200:1,-0.865,0.585
01:16:16.204:1,-0.865,0.61
01:16:16.208:1,-0.87,0.635
01:16:16.212:1,-0.88,0.635
01:16:16.216:1,-0.88,0.655
01:16:16.220:1,-0.895,0.67
01:16:16.224:1,-0.895,0.675
01:16:16.228:1,-0.905,0.675
01:16:16.232:1,-0.88,0.66
01:16:16.236:1,-0.895,0.675
01:16:16.240:1,-0.895,0.655
01:16:16.244:1,-0.885,0.675
01:16:16.248:1,-0.895,0.665
01:16:16.252:1,-0.915,0.66
01:16:16.256:1,-0.915,0.66
01:16:16.260:1,-0.91,0.655
01:16:16.264:1,-0.905,0.66
01:16:16.268:1,-0.92,0.625
01:16:16.272:1,-0.895,0.625
01:16:16.276:1,-0.905,0.645
01:16:16.280:1,-0.92,0.62
01:16:16.284:1,-0.915,0.625
01:16:16.288:1,-0.92,0.625
01:16:16.292:1,-0.9,0.645
01:16:16.296:1,-0.92,0.635
01:16:16.300:1,-0.91,0.625
01:16:16.304:1,-0.91,0.64
01:16:16.308:1,-0.915,0.655
01:16:16.312:1,-0.905,0.68
01:16:16.316:1,-0.885,0.72
01:16:16.320:1,-0.905,0.71
01:16:16.324:1,-0.88,0.725
01:16:16.328:1,-0.87,0.75
01:16:16.332:1,-0.875,0.77
01:16:16.336:1,-0.84,0.78
01:16:16.340:1,-0.85,0.795
01:16:16.344:1,-0.825,0.795
01:16:16.348:1,-0.82,0.8
01:16:16.352:1,-0.805,0.785
01:16:16.356:1,-0.795,0.785
01:16:16.360:1,-0.79,0.8
01:16:16.364:1,-0.78,0.845
01:16:16.368:1,-0.765,0.885
01:16:16.372:1,-0.78,0.91
01:16:16.376:1,-0.775,0.895
01:16:16.380:1,-0.755,0.905
01:16:16.384:1,-0.76,0.9
01:16:16.388:1,-0.78,0.915
01:16:16.392:1,-0.76,0.885
01:16:16.396:1,-0.77,0.865
01:16:16.400:1,-0.775,0.85
01:16:16.404:1,-0.78,0.835
01:16:16.408:1,-0.785,0.83
01:16:16.412:1,-0.79,0.82
01:16:16.416:1,-0.795,0.79
01:16:16.420:1,-0.795,0.78
01:16:16.424:1,-0.81,0.775
01:16:16.428:1,-0.82,0.78
01:16:16.432:1,-0.81,0.76
01:16:16.436:1,-0.79,0.75
01:16:16.440:1,-0.815,0.745
01:16:16.444:1,-0.795,0.75
01:16:16.448:1,-0.795,0.73
01:16:16.452:1,-0.825,0.715
01:16:16.456:1,-0.82,0.715
01:16:16.460:1,-0.82,0.705
01:16:16.464:1,-0.83,0.735
01:16:16.468:1,-0.84,0.725
01:16:16.472:1,-0.805,0.7
01:16:16.476:1,-0.82,0.695
01:16:16.480:1,-0.835,0.68
01:16:16.484:1,-0.815,0.705
01:16:16.488:1,-0.825,0.675
01:16:16.492:1,-0.825,0.685
01:16:16.496:1,-0.825,0.685
01:16:16.500:1,-0.81,0.68
01:16:16.504:1,-0.825,0.71
01:16:16.508:1,-0.81,0.69
01:16:16.512:1,-0.81,0.685
01:16:16.516:1,-0.79,0.67
01:16:16.520:1,-0.785,0.66
01:16:16.524:1,-0.785,0.64
01:16:16.528:1,-0.775,0.615
01:16:16.532:1,-0.78,0.63
01:16:16.536:1,-0.77,0.69
01:16:16.540:1,-0.755,0.715
01:16:16.544:1,-0.755,0.76
01:16:16.548:1,-0.775,0.76
01:16:16.552:1,-0.775,0.74
01:16:16.556:1,-0.76,0.725
01:16:16.560:1,-0.775,0.71
01:16:16.564:1,-0.775,0.69
01:16:16.568:1,-0.775,0.675
01:16:16.572:1,-0.775,0.67
01:16:16.576:1,-0.79,0.68
01:16:16.580:1,-0.79,0.69
01:16:16.584:1,-0.765,0.67
01:16:16.588:1,-0.77,0.645
01:16:16.592:1,-0.78,0.63
01:16:16.596:1,-0.765,0.645
01:16:16.600:1,-0.78,0.645
01:16:16.604:1,-0.775,0.61
01:16:16.608:1,-0.765,0.59
01:16:16.612:1,-0.755,0.6
01:16:16.616:1,-0.765,0.59
01:16:16.620:1,-0.76,0.585
01:16:16.624:1,-0.76,0.575
01:16:16.628:1,-0.77,0.59
01:16:16.632:1,-0.78,0.56
01:16:16.636:1,-0.77,0.57
01:16:16.640:1,-0.755,0.575
01:16:16.644:1,-0.76,0.59
01:16:16.648:1,-0.76,0.565
01:16:16.652:1,-0.73,0.59
01:16:16.656:1,-0.74,0.61
01:16:16.660:1,-0.745,0.6
01:16:16.664:1,-0.745,0.58
01:16:16.668:1,-0.725,0.57
01:16:16.672:1,-0.74,0.55
01:16:16.676:1,-0.735,0.55
01:16:16.680:1,-0.725,0.62
01:16:16.684:1,-0.68,0.745
01:16:16.688:1,-0.64,0.94
01:16:16.692:1,-0.615,1.17
01:16:16.696:1,-0.575,1.43
01:16:16.700:1,-0.48,1.615
01:16:16.704:1,-0.385,1.61
01:16:16.708:1,-0.295,1.485
01:16:16.712:1,-0.295,1.125
01:16:16.716:1,-0.35,0.66
01:16:16.720:1,-0.47,0.315
01:16:16.724:1,-0.655,0.17
01:16:16.728:1,-0.84,0.195
01:16:16.732:1,-0.96,0.275
01:16:16.736:1,-0.965,0.37
01:16:16.740:1,-0.95,0.5
01:16:16.744:1,-0.895,0.57
01:16:16.748:1,-0.805,0.595
01:16:16.752:1,-0.73,0.59
01:16:16.756:1,-0.69,0.575
01:16:16.760:1,-0.685,0.56
01:16:16.764:1,-0.67,0.545
01:16:16.768:1,-0.67,0.525
01:16:16.772:1,-0.67,0.53
01:16:16.776:1,-0.66,0.52
01:16:16.780:1,-0.675,0.52
01:16:16.784:1,-0.665,0.49
01:16:16.788:1,-0.655,0.485
01:16:16.792:1,-0.655,0.465
01:16:16.796:1,-0.68,0.46
01:16:16.800:1,-0.655,0.44
01:16:16.804:1,-0.655,0.43
01:16:16.808:1,-0.675,0.435
01:16:16.812:1,-0.635,0.435
01:16:16.816:1,-0.66,0.41
01:16:16.820:1,-0.675,0.39
01:16:16.824:1,-0.655,0.38
01:16:16.828:1,-0.64,0.39
01:16:16.832:1,-0.65,0.41
01:16:16.836:1,-0.635,0.41
01:16:16.840:1,-0.63,0.43
01:16:16.844:1,-0.615,0.44
01:16:16.848:1,-0.63,0.47
01:16:16.852:1,-0.615,0.485
01:16:16.856:1,-0.62,0.485
01:16:16.860:1,-0.6,0.475
01:16:16.864:1,-0.595,0.485
01:16:16.868:1,-0.575,0.505
01:16:16.872:1,-0.575,0.525
01:16:16.876:1,-0.575,0.535
01:16:16.880:1,-0.57,0.525
01:16:16.884:1,-0.545,0.515
01:16:16.888:1,-0.56,0.505
01:16:16.892:1,-0.55,0.495
01:16:16.896:1,-0.54,0.49
01:16:16.900:1,-0.53,0.49
01:16:16.904:1,-0.535,0.49
01:16:16.908:1,-0.53,0.495
01:16:16.912:1,-0.545,0.47
01:16:16.916:1,-0.525,0.475
01:16:16.920:1,-0.54,0.455
01:16:16.924:1,-0.535,0.445
01:16:16.928:1,-0.545,0.455
01:16:16.932:1,-0.54,0.455
01:16:16.936:1,-0.515,0.445
01:16:16.940:1,-0.51,0.44
01:16:16.944:1,-0.53,0.445
01:16:16.948:1,-0.52,0.445
01:16:16.952:1,-0.515,0.455
01:16:16.956:1,-0.495,0.445
01:16:16.960:1,-0.495,0.43
01:16:16.964:1,-0.485,0.46
01:16:16.968:1,-0.49,0.465
01:16:16.972:1,-0.475,0.505
01:16:16.976:1,-0.45,0.535
01:16:16.980:1,-0.435,0.57
01:16:16.984:1,-0.435,0.575
01:16:16.988:1,-0.435,0.585
01:16:16.992:1,-0.44,0.585
01:16:16.996:1,-0.44,0.605
01:16:17.000:1,-0.43,0.595
01:16:17.004:1,-0.42,0.585
01:16:17.008:1,-0.43,0.575
01:16:17.012:1,-0.435,0.57
01:16:17.016:1,-0.435,0.55
01:16:17.020:1,-0.43,0.555
01:16:17.024:1,-0.415,0.575
01:16:17.028:1,-0.415,0.575
01:16:17.032:1,-0.405,0.57
01:16:17.036:1,-0.4,0.58
01:16:17.040:1,-0.395,0.575
01:16:17.044:1,-0.375,0.55
01:16:17.048:1,-0.37,0.52
01:16:17.052:1,-0.385,0.515
01:16:17.056:1,-0.39,0.505
01:16:17.060:1,-0.385,0.52
01:16:17.064:1,-0.375,0.505
01:16:17.068:1,-0.39,0.48
01:16:17.072:1,-0.37,0.455
01:16:17.076:1,-0.365,0.465
01:16:17.080:1,-0.365,0.465
01:16:17.084:1,-0.365,0.45
01:16:17.088:1,-0.365,0.43
01:16:17.092:1,-0.36,0.44
01:16:17.096:1,-0.355,0.41
01:16:17.100:1,-0.345,0.385
01:16:17.104:1,-0.36,0.4
01:16:17.108:1,-0.355,0.38
01:16:17.112:1,-0.35,0.34
01:16:17.116:1,-0.36,0.35
01:16:17.120:1,-0.345,0.355
01:16:17.124:1,-0.335,0.325
01:16:17.128:1,-0.315,0.305
01:16:17.132:1,-0.325,0.3
01:16:17.136:1,-0.31,0.3
01:16:17.140:1,-0.32,0.305
01:16:17.144:1,-0.325,0.34
01:16:17.148:1,-0.31,0.36
01:16:17.152:1,-0.295,0.375
01:16:17.156:1,-0.3,0.41
01:16:17.160:1,-0.31,0.395
01:16:17.164:1,-0.31,0.41
01:16:17.168:1,-0.31,0.37
01:16:17.172:1,-0.325,0.365
01:16:17.176:1,-0.32,0.36
01:16:17.180:1,-0.32,0.37
01:16:17.184:1,-0.31,0.35
01:16:17.188:1,-0.315,0.335
01:16:17.192:1,-0.315,0.29
01:16:17.196:1,-0.31,0.28
01:16:17.200:1,-0.31,0.315
01:16:17.204:1,-0.315,0.435
01:16:17.208:1,-0.275,0.59
01:16:17.212:1,-0.26,0.815
01:16:17.216:1,-0.235,1.015
01:16:17.220:1,-0.16,1.075
01:16:17.224:1,-0.04,1.08
01:16:17.228:1,0.02,0.99
01:16:17.232:1,0.05,0.65
01:16:17.236:1,0.065,0.18
01:16:17.240:1,0.005,-0.13
01:16:17.244:1,-0.175,-0.225
01:16:17.248:1,-0.365,-0.255
01:16:17.252:1,-0.495,-0.21
01:16:17.256:1,-0.52,-0.115
01:16:17.260:1,-0.515,0.0
01:16:17.264:1,-0.495,0.065
01:16:17.268:1,-0.415,0.145
01:16:17.272:1,-0.36,0.175
01:16:17.276:1,-0.3,0.165
01:16:17.280:1,-0.25,0.155
01:16:17.284:1,-0.24,0.14
01:16:17.288:1,-0.245,0.11
01:16:17.292:1,-0.225,0.12
01:16:17.296:1,-0.25,0.115
01:16:17.300:1,-0.255,0.09
01:16:17.304:1,-0.225,0.09
01:16:17.308:1,-0.2,0.11
01:16:17.312:1,-0.23,0.145
01:16:17.316:1,-0.215,0.155
01:16:17.320:1,-0.205,0.175
01:16:17.324:1,-0.17,0.175
01:16:17.328:1,-0.165,0.185
01:16:17.332:1,-0.16,0.175
01:16:17.336:1,-0.18,0.17
01:16:17.340:1,-0.2,0.155
01:16:17.344:1,-0.2,0.15
01:16:17.348:1,-0.19,0.135
01:16:17.352:1,-0.205,0.125
01:16:17.356:1,-0.21,0.1
01:16:17.360:1,-0.19,0.085
01:16:17.364:1,-0.21,0.085
01:16:17.368:1,-0.205,0.085
01:16:17.372:1,-0.195,0.09
01:16:17.376:1,-0.2,0.1
01:16:17.380:1,-0.2,0.105
01:16:17.384:1,-0.18,0.085
01:16:17.388:1,-0.175,0.105
01:16:17.392:1,-0.18,0.105
01:16:17.396:1,-0.175,0.095
01:16:17.400:1,-0.175,0.085
01:16:17.404:1,-0.155,0.075
01:16:17.408:1,-0.16,0.065
01:16:17.412:1,-0.14,0.035
01:16:17.416:1,-0.13,0.025
01:16:17.420:1,-0.16,0.03
01:16:17.424:1,-0.135,0.015
01:16:17.428:1,-0.135,0.01
01:16:17.432:1,-0.135,0.015
01:16:17.436:1,-0.135,0.0
01:16:17.440:1,-0.12,0.0
01:16:17.444:1,-0.13,0.015
01:16:17.448:1,-0.115,0.02
01:16:17.452:1,-0.11,0.01
01:16:17.456:1,-0.105,0.015
01:16:17.460:1,-0.11,0.04
01:16:17.464:1,-0.1,0.045
01:16:17.468:1,-0.06,0.065
01:16:17.472:1,-0.09,0.13
01:16:17.476:1,-0.06,0.165
01:16:17.480:1,-0.04,0.18
01:16:17.484:1,-0.04,0.2
01:16:17.488:1,-0.02,0.205
01:16:17.492:1,-0.015,0.21
01:16:17.496:1,-0.04,0.2
01:16:17.500:1,-0.045,0.19
01:16:17.504:1,-0.035,0.18
01:16:17.508:1,-0.045,0.175
01:16:17.512:1,-0.025,0.175
01:16:17.516:1,-0.02,0.165
01:16:17.520:1,-0.01,0.135
01:16:17.524:1,-0.025,0.12
01:16:17.528:1,-0.015,0.1
01:16:17.532:1,-0.025,0.075
01:16:17.536:1,-0.04,0.07
01:16:17.540:1,-0.04,0.07
01:16:17.544:1,-0.035,0.07
01:16:17.548:1,-0.015,0.075
01:16:17.552:1,-0.01,0.075
01:16:17.556:1,0.0,0.095
01:16:17.560:1,0.0,0.115
01:16:17.564:1,0.015,0.125
01:16:17.568:1,0.025,0.125
01:16:17.572:1,0.02,0.095
01:16:17.576:1,0.04,0.065
01:16:17.580:1,0.025,0.055
01:16:17.584:1,0.015,0.06
01:16:17.588:1,0.03,0.055
01:16:17.592:1,0.04,0.035
01:16:17.596:1,0.045,0.025
01:16:17.600:1,0.03,0.025
01:16:17.604:1,0.03,0.015
01:16:17.608:1,0.04,0.01
01:16:17.612:1,0.04,0.005
01:16:17.616:1,0.055,-0.005
01:16:17.620:1,0.06,-0.005
01:16:17.624:1,0.065,-0.01
01:16:17.628:1,0.075,-0.03
01:16:17.632:1,0.095,0.0
01:16:17.636:1,0.085,0.05
01:16:17.640:1,0.085,0.095
01:16:17.644:1,0.09,0.095
01:16:17.648:1,0.1,0.1
01:16:17.652:1,0.09,0.08
01:16:17.656:1,0.09,0.05
01:16:17.660:1,0.1,0.02
01:16:17.664:1,0.09,0.02
01:16:17.668:1,0.07,0.085
01:16:17.672:1,0.085,0.23
01:16:17.676:1,0.12,0.415
01:16:17.680:1,0.13,0.62
01:16:17.684:1,0.21,0.745
01:16:17.688:1,0.31,0.76
01:16:17.692:1,0.38,0.675
01:16:17.696:1,0.41,0.385
01:16:17.700:1,0.36,-0.08
01:16:17.704:1,0.255,-0.395
01:16:17.708:1,0.08,-0.475
01:16:17.712:1,-0.11,-0.48
01:16:17.716:1,-0.19,-0.415
01:16:17.720:1,-0.215,-0.315
01:16:17.724:1,-0.205,-0.22
01:16:17.728:1,-0.14,-0.115
01:16:17.732:1,-0.08,-0.075
01:16:17.736:1,0.0,-0.065
01:16:17.740:1,0.055,-0.09
01:16:17.744:1,0.075,-0.09
01:16:17.748:1,0.085,-0.115
01:16:17.752:1,0.095,-0.105
01:16:17.756:1,0.085,-0.105
01:16:17.760:1,0.075,-0.09
01:16:17.764:1,0.09,-0.095
01:16:17.768:1,0.1,-0.095
01:16:17.772:1,0.125,-0.09
01:16:17.776:1,0.13,-0.065
01:16:17.780:1,0.14,-0.08
01:16:17.784:1,0.155,-0.1
01:16:17.788:1,0.155,-0.095
01:16:17.792:1,0.155,-0.1
01:16:17.796:1,0.165,-0.115
01:16:17.800:1,0.175,-0.11
01:16:17.804:1,0.175,-0.135
01:16:17.808:1,0.18,-0.125
01:16:17.812:1,0.18,-0.075
01:16:17.816:1,0.19,-0.045
01:16:17.820:1,0.195,-0.045
01:16:17.824:1,0.205,-0.05
01:16:17.828:1,0.19,-0.06
01:16:17.832:1,0.185,-0.04
01:16:17.836:1,0.18,-0.04
01:16:17.840:1,0.175,-0.045
01:16:17.844:1,0.18,-0.06
01:16:17.848:1,0.17,-0.06
01:16:17.852:1,0.175,-0.07
01:16:17.856:1,0.155,-0.08
01:16:17.860:1,0.18,-0.09
01:16:17.864:1,0.15,-0.07
01:16:17.868:1,0.17,-0.08
01:16:17.872:1,0.165,-0.09
01:16:17.876:1,0.175,-0.075
01:16:17.880:1,0.165,-0.075
01:16:17.884:1,0.165,-0.1
01:16:17.888:1,0.185,-0.095
01:16:17.892:1,0.19,-0.1
01:16:17.896:1,0.175,-0.095
01:16:17.900:1,0.16,-0.11
01:16:17.904:1,0.17,-0.1
01:16:17.908:1,0.18,-0.095
01:16:17.912:1,0.175,-0.08
01:16:17.916:1,0.205,-0.08
01:16:17.920:1,0.19,-0.07
01:16:17.924:1,0.2,-0.05
01:16:17.928:1,0.2,-0.045
01:16:17.932:1,0.215,-0.02
01:16:17.936:1,0.225,0.02
01:16:17.940:1,0.21,0.045
01:16:17.944:1,0.235,0.035
01:16:17.948:1,0.26,0.03
01:16:17.952:1,0.25,0.075
01:16:17.956:1,0.275,0.085
01:16:17.960:1,0.28,0.08
01:16:17.964:1,0.29,0.085
01:16:17.968:1,0.295,0.09
01:16:17.972:1,0.32,0.08
01:16:17.976:1,0.305,0.085
01:16:17.980:1,0.35,0.055
01:16:17.984:1,0.34,0.075
01:16:17.988:1,0.36,0.065
01:16:17.992:1,0.37,0.075
01:16:17.996:1,0.385,0.085
01:16:18.000:1,0.375,0.135
01:16:18.004:1,0.375,0.13
01:16:18.008:1,0.39,0.135
01:16:18.012:1,0.395,0.125
01:16:18.016:1,0.36,0.13
01:16:18.020:1,0.34,0.105
01:16:18.024:1,0.315,0.08
01:16:18.028:1,0.32,0.09
01:16:18.032:1,0.33,0.105
01:16:18.036:1,0.305,0.085
01:16:18.040:1,0.305,0.07
01:16:18.044:1,0.295,0.075
01:16:18.048:1,0.3,0.065
01:16:18.052:1,0.31,0.06
01:16:18.056:1,0.31,0.045
01:16:18.060:1,0.305,0.035
01:16:18.064:1,0.305,0.01
01:16:18.068:1,0.305,0.01
01:16:18.072:1,0.29,0.025
01:16:18.076:1,0.29,0.0
01:16:18.080:1,0.285,0.01
01:16:18.084:1,0.305,-0.005
01:16:18.088:1,0.285,0.0
01:16:18.092:1,0.3,-0.005
01:16:18.096:1,0.29,-0.005
01:16:18.100:1,0.285,-0.015
01:16:18.104:1,0.285,-0.005
01:16:18.108:1,0.285,-0.01
01:16:18.112:1,0.3,-0.01
01:16:18.116:1,0.285,-0.03
01:16:18.120:1,0.285,-0.04
01:16:18.124:1,0.275,-0.04
01:16:18.128:1,0.26,-0.03
01:16:18.132:1,0.285,-0.02
01:16:18.136:1,0.285,-0.02
01:16:18.140:1,0.315,-0.035
01:16:18.144:1,0.32,-0.045
01:16:18.148:1,0.305,-0.065
01:16:18.152:1,0.33,-0.045
01:16:18.156:1,0.32,-0.055
01:16:18.160:1,0.33,-0.055
01:16:18.164:1,0.35,-0.01
01:16:18.168:1,0.37,0.02
01:16:18.172:1,0.38,0.01
01:16:18.176:1,0.375,0.015
01:16:18.180:1,0.37,0.075
01:16:18.184:1,0.375,0.195
01:16:18.188:1,0.425,0.35
01:16:18.192:1,0.42,0.56
01:16:18.196:1,0.455,0.735
01:16:18.200:1,0.515,0.87
01:16:18.204:1,0.59,0.905
01:16:18.208:1,0.66,0.87
01:16:18.212:1,0.67,0.61
01:16:18.216:1,0.625,0.14
01:16:18.220:1,0.57,-0.24
01:16:18.224:1,0.39,-0.425
01:16:18.228:1,0.19,-0.46
01:16:18.232:1,0.055,-0.445
01:16:18.236:1,0.02,-0.36
01:16:18.240:1,0.015,-0.23
01:16:18.244:1,0.03,-0.135
01:16:18.248:1,0.115,-0.07
01:16:18.252:1,0.18,-0.07
01:16:18.256:1,0.24,-0.08
01:16:18.260:1,0.295,-0.08
01:16:18.264:1,0.3,-0.075
01:16:18.268:1,0.3,-0.09
01:16:18.272:1,0.295,-0.095
01:16:18.276:1,0.3,-0.08
01:16:18.280:1,0.295,-0.075
01:16:18.284:1,0.315,-0.075
01:16:18.288:1,0.32,-0.075
01:16:18.292:1,0.315,-0.09
01:16:18.296:1,0.31,-0.095
01:16:18.300:1,0.325,-0.11
01:16:18.304:1,0.325,-0.12
01:16:18.308:1,0.325,-0.155
01:16:18.312:1,0.325,-0.16
01:16:18.316:1,0.325,-0.17
01:16:18.320:1,0.325,-0.14
01:16:18.324:1,0.315,-0.095
01:16:18.328:1,0.345,-0.065
01:16:18.332:1,0.35,-0.035
01:16:18.336:1,0.365,-0.025
01:16:18.340:1,0.37,-0.015
01:16:18.344:1,0.345,-0.02
01:16:18.348:1,0.345,-0.03
01:16:18.352:1,0.355,-0.035
01:16:18.356:1,0.37,-0.035
01:16:18.360:1,0.345,-0.035
01:16:18.364:1,0.34,-0.045
01:16:18.368:1,0.35,-0.065
01:16:18.372:1,0.33,-0.07
01:16:18.376:1,0.31,-0.08
01:16:18.380:1,0.33,-0.07
01:16:18.384:1,0.325,-0.055
01:16:18.388:1,0.295,-0.07
01:16:18.392:1,0.325,-0.07
01:16:18.396:1,0.325,-0.08
01:16:18.400:1,0.325,-0.07
01:16:18.404:1,0.345,-0.08
01:16:18.408:1,0.35,-0.08
01:16:18.412:1,0.33,-0.08
01:16:18.416:1,0.335,-0.06
01:16:18.420:1,0.355,-0.065
01:16:18.424:1,0.34,-0.05
01:16:18.428:1,0.335,-0.05
01:16:18.432:1,0.335,-0.055
01:16:18.436:1,0.35,-0.025
01:16:18.440:1,0.36,-0.015
01:16:18.444:1,0.355,-0.02
01:16:18.448:1,0.35,-0.01
01:16:18.452:1,0.37,0.0
01:16:18.456:1,0.37,0.015
01:16:18.460:1,0.37,0.03
01:16:18.464:1,0.375,0.03
01:16:18.468:1,0.39,0.02
01:16:18.472:1,0.4,0.015
01:16:18.476:1,0.41,0.005
01:16:18.480:1,0.42,0.02
01:16:18.484:1,0.415,0.025
01:16:18.488:1,0.425,0.03
01:16:18.492:1,0.445,0.065
01:16:18.496:1,0.455,0.11
01:16:18.500:1,0.475,0.105
01:16:18.504:1,0.465,0.095
01:16:18.508:1,0.465,0.09
01:16:18.512:1,0.435,0.095
01:16:18.516:1,0.45,0.085
01:16:18.520:1,0.43,0.075
01:16:18.524:1,0.435,0.065
01:16:18.528:1,0.445,0.065
01:16:18.532:1,0.41,0.055
01:16:18.536:1,0.42,0.06
01:16:18.540:1,0.395,0.05
01:16:18.544:1,0.41,0.035
01:16:18.548:1,0.385,0.035
01:16:18.552:1,0.39,0.015
01:16:18.556:1,0.385,0.015
01:16:18.560:1,0.385,0.035
01:16:18.564:1,0.395,0.01
01:16:18.568:1,0.41,-0.005
01:16:18.572:1,0.415,0.0
01:16:18.576:1,0.395,-0.005
01:16:18.580:1,0.375,-0.02
01:16:18.584:1,0.39,-0.025
01:16:18.588:1,0.385,-0.02
01:16:18.592:1,0.395,-0.015
01:16:18.596:1,0.37,-0.03
01:16:18.600:1,0.4,-0.025
01:16:18.604:1,0.395,-0.03
01:16:18.608:1,0.38,-0.03
01:16:18.612:1,0.395,-0.02
01:16:18.616:1,0.395,-0.01
01:16:18.620:1,0.39,-0.045
01:16:18.624:1,0.39,-0.08
01:16:18.628:1,0.385,-0.09
01:16:18.632:1,0.38,-0.11
01:16:18.636:1,0.38,-0.145
01:16:18.640:1,0.405,-0.17
01:16:18.644:1,0.37,-0.16
01:16:18.648:1,0.39,-0.175
01:16:18.652:1,0.385,-0.195
01:16:18.656:1,0.385,-0.18
01:16:18.660:1,0.38,-0.14
01:16:18.664:1,0.415,-0.085
01:16:18.668:1,0.425,-0.06
01:16:18.672:1,0.425,-0.04
01:16:18.676:1,0.42,-0.025
01:16:18.680:1,0.41,-0.035
01:16:18.684:1,0.395,-0.04
01:16:18.688:1,0.41,-0.045
01:16:18.692:1,0.405,-0.095
01:16:18.696:1,0.4,-0.125
01:16:18.700:1,0.415,-0.07
01:16:18.704:1,0.42,0.035
01:16:18.708:1,0.45,0.215
01:16:18.712:1,0.455,0.415
01:16:18.716:1,0.485,0.61
01:16:18.720:1,0.57,0.705
01:16:18.724:1,0.65,0.75
01:16:18.728:1,0.675,0.635
01:16:18.732:1,0.705,0.295
01:16:18.736:1,0.635,-0.17
01:16:18.740:1,0.54,-0.475
01:16:18.744:1,0.36,-0.58
01:16:18.748:1,0.19,-0.595
01:16:18.752:1,0.085,-0.55
01:16:18.756:1,0.055,-0.455
01:16:18.760:1,0.065,-0.335
01:16:18.764:1,0.11,-0.23
01:16:18.768:1,0.205,-0.16
01:16:18.772:1,0.29,-0.175
01:16:18.776:1,0.36,-0.2
01:16:18.780:1,0.37,-0.21
01:16:18.784:1,0.365,-0.22
01:16:18.788:1,0.35,-0.21
01:16:18.792:1,0.39,-0.225
01:16:18.796:1,0.355,-0.235
01:16:18.800:1,0.39,-0.23
01:16:18.804:1,0.385,-0.225
01:16:18.808:1,0.375,-0.24
01:16:18.812:1,0.395,-0.255
01:16:18.816:1,0.405,-0.285
01:16:18.820:1,0.37,-0.3
01:16:18.824:1,0.405,-0.29
01:16:18.828:1,0.38,-0.265
01:16:18.832:1,0.415,-0.215
01:16:18.836:1,0.415,-0.185
01:16:18.840:1,0.42,-0.185
01:16:18.844:1,0.425,-0.155
01:16:18.848:1,0.415,-0.155
01:16:18.852:1,0.395,-0.16
01:16:18.856:1,0.405,-0.175
01:16:18.860:1,0.405,-0.185
01:16:18.864:1,0.39,-0.185
01:16:18.868:1,0.375,-0.19
01:16:18.872:1,0.375,-0.205
01:16:18.876:1,0.35,-0.225
01:16:18.880:1,0.36,-0.23
01:16:18.884:1,0.355,-0.235
01:16:18.888:1,0.365,-0.245
01:16:18.892:1,0.345,-0.26
01:16:18.896:1,0.355,-0.265
01:16:18.900:1,0.335,-0.27
01:16:18.904:1,0.345,-0.235
01:16:18.908:1,0.335,-0.28
01:16:18.912:1,0.345,-0.29
01:16:18.916:1,0.35,-0.295
01:16:18.920:1,0.345,-0.295
01:16:18.924:1,0.34,-0.295
01:16:18.928:1,0.355,-0.285
01:16:18.932:1,0.33,-0.29
01:16:18.936:1,0.37,-0.3
01:16:18.940:1,0.37,-0.295
01:16:18.944:1,0.355,-0.295
01:16:18.948:1,0.365,-0.305
01:16:18.952:1,0.37,-0.28
01:16:18.956:1,0.365,-0.26
01:16:18.960:1,0.375,-0.245
01:16:18.964:1,0.375,-0.2
01:16:18.968:1,0.39,-0.19
01:16:18.972:1,0.395,-0.17
01:16:18.976:1,0.435,-0.145
01:16:18.980:1,0.43,-0.125
01:16:18.984:1,0.42,-0.1
01:16:18.988:1,0.45,-0.105
01:16:18.992:1,0.455,-0.085
01:16:18.996:1,0.455,-0.08
01:16:19.000:1,0.48,-0.06
01:16:19.004:1,0.485,-0.035
01:16:19.008:1,0.515,0.01
01:16:19.012:1,0.51,0.025
01:16:19.016:1,0.53,0.03
01:16:19.020:1,0.525,0.01
01:16:19.024:1,0.5,0.015
01:16:19.028:1,0.495,-0.02
01:16:19.032:1,0.49,-0.02
01:16:19.036:1,0.48,-0.03
01:16:19.040:1,0.46,-0.05
01:16:19.044:1,0.44,-0.07
01:16:19.048:1,0.44,-0.065
01:16:19.052:1,0.42,-0.085
01:16:19.056:1,0.43,-0.085
01:16:19.060:1,0.44,-0.1
01:16:19.064:1,0.425,-0.095
01:16:19.068:1,0.425,-0.12
01:16:19.072:1,0.41,-0.12
01:16:19.076:1,0.425,-0.12
01:16:19.080:1,0.42,-0.12
01:16:19.084:1,0.41,-0.14
01:16:19.088:1,0.425,-0.145
01:16:19.092:1,0.405,-0.145
01:16:19.096:1,0.41,-0.14
01:16:19.100:1,0.4,-0.17
01:16:19.104:1,0.41,-0.18
01:16:19.108:1,0.41,-0.2
01:16:19.112:1,0.415,-0.215
01:16:19.116:1,0.4,-0.235
01:16:19.120:1,0.395,-0.235
01:16:19.124:1,0.39,-0.24
01:16:19.128:1,0.39,-0.25
01:16:19.132:1,0.395,-0.24
01:16:19.136:1,0.38,-0.225
01:16:19.140:1,0.395,-0.25
01:16:19.144:1,0.395,-0.255
01:16:19.148:1,0.405,-0.26
01:16:19.152:1,0.42,-0.255
01:16:19.156:1,0.41,-0.23
01:16:19.160:1,0.415,-0.215
01:16:19.164:1,0.42,-0.225
01:16:19.168:1,0.425,-0.23
01:16:19.172:1,0.435,-0.235
01:16:19.176:1,0.455,-0.235
01:16:19.180:1,0.45,-0.23
01:16:19.184:1,0.445,-0.195
01:16:19.188:1,0.45,-0.155
01:16:19.192:1,0.425,-0.125
01:16:19.196:1,0.41,-0.16
01:16:19.200:1,0.44,-0.185
01:16:19.204:1,0.425,-0.17
01:16:19.208:1,0.405,-0.185
01:16:19.212:1,0.4,-0.225
01:16:19.216:1,0.39,-0.225
01:16:19.220:1,0.38,-0.23
01:16:19.224:1,0.355,-0.24
01:16:19.228:1,0.38,-0.23
01:16:19.232:1,0.36,-0.225
01:16:19.236:1,0.37,-0.245
01:16:19.240:1,0.38,-0.245
01:16:19.244:1,0.37,-0.255
01:16:19.248:1,0.365,-0.255
01:16:19.252:1,0.37,-0.27
01:16:19.256:1,0.38,-0.29
01:16:19.260:1,0.37,-0.29
01:16:19.264:1,0.37,-0.275
01:16:19.268:1,0.36,-0.285
01:16:19.272:1,0.38,-0.285
01:16:19.276:1,0.38,-0.31
01:16:19.280:1,0.38,-0.305
01:16:19.284:1,0.37,-0.305
01:16:19.288:1,0.36,-0.31
01:16:19.292:1,0.37,-0.315
01:16:19.296:1,0.355,-0.32
01:16:19.300:1,0.34,-0.325
01:16:19.304:1,0.36,-0.33
01:16:19.308:1,0.36,-0.335
01:16:19.312:1,0.35,-0.34
01:16:19.316:1,0.36,-0.345
01:16:19.320:1,0.365,-0.355
01:16:19.324:1,0.36,-0.35
01:16:19.328:1,0.37,-0.33
01:16:19.332:1,0.355,-0.325
01:16:19.336:1,0.37,-0.315
01:16:19.340:1,0.385,-0.335
01:16:19.344:1,0.405,-0.335
01:16:19.348:1,0.405,-0.34
01:16:19.352:1,0.395,-0.365
01:16:19.356:1,0.4,-0.405
01:16:19.360:1,0.395,-0.4
01:16:19.364:1,0.415,-0.32
01:16:19.368:1,0.43,-0.105
01:16:19.372:1,0.475,0.12
01:16:19.376:1,0.515,0.365
01:16:19.380:1,0.515,0.625
01:16:19.384:1,0.59,0.76
01:16:19.388:1,0.675,0.785
01:16:19.392:1,0.75,0.69
01:16:19.396:1,0.77,0.33
01:16:19.400:1,0.77,-0.175
01:16:19.404:1,0.69,-0.6
01:16:19.408:1,0.54,-0.815
01:16:19.412:1,0.33,-0.83
01:16:19.416:1,0.155,-0.79
01:16:19.420:1,0.075,-0.71
01:16:19.424:1,0.075,-0.58
01:16:19.428:1,0.085,-0.46
01:16:19.432:1,0.14,-0.375
01:16:19.436:1,0.205,-0.385
01:16:19.440:1,0.3,-0.375
01:16:19.444:1,0.325,-0.375
01:16:19.448:1,0.34,-0.36
01:16:19.452:1,0.345,-0.385
01:16:19.456:1,0.34,-0.4
01:16:19.460:1,0.325,-0.41
01:16:19.464:1,0.33,-0.42
01:16:19.468:1,0.34,-0.41
01:16:19.472:1,0.32,-0.415
01:16:19.476:1,0.34,-0.425
01:16:19.480:1,0.325,-0.435
01:16:19.484:1,0.32,-0.425
01:16:19.488:1,0.325,-0.43
01:16:19.492:1,0.325,-0.455
01:16:19.496:1,0.3,-0.46
01:16:19.500:1,0.32,-0.45
01:16:19.504:1,0.295,-0.465
01:16:19.508:1,0.305,-0.46
01:16:19.512:1,0.325,-0.46
01:16:19.516:1,0.315,-0.46
01:16:19.520:1,0.32,-0.465
01:16:19.524:1,0.315,-0.48
01:16:19.528:1,0.315,-0.505
01:16:19.532:1,0.315,-0.535
01:16:19.536:1,0.315,-0.535
01:16:19.540:1,0.325,-0.53
01:16:19.544:1,0.33,-0.53
01:16:19.548:1,0.325,-0.545
01:16:19.552:1,0.33,-0.555
01:16:19.556:1,0.335,-0.545
01:16:19.560:1,0.325,-0.485
01:16:19.564:1,0.335,-0.445
01:16:19.568:1,0.35,-0.41
01:16:19.572:1,0.345,-0.43
01:16:19.576:1,0.355,-0.435
01:16:19.580:1,0.345,-0.435
01:16:19.584:1,0.33,-0.435
01:16:19.588:1,0.305,-0.445
01:16:19.592:1,0.315,-0.445
01:16:19.596:1,0.32,-0.425
01:16:19.600:1,0.3,-0.41
01:16:19.604:1,0.305,-0.42
01:16:19.608:1,0.295,-0.425
01:16:19.612:1,0.29,-0.415
01:16:19.616:1,0.28,-0.415
01:16:19.620:1,0.31,-0.385
01:16:19.624:1,0.295,-0.395
01:16:19.628:1,0.28,-0.4
01:16:19.632:1,0.3,-0.385
01:16:19.636:1,0.3,-0.365
01:16:19.640:1,0.295,-0.345
01:16:19.644:1,0.3,-0.335
01:16:19.648:1,0.31,-0.345
01:16:19.652:1,0.295,-0.315
01:16:19.656:1,0.3,-0.305
01:16:19.660:1,0.31,-0.31
01:16:19.664:1,0.305,-0.305
01:16:19.668:1,0.325,-0.3
01:16:19.672:1,0.315,-0.32
01:16:19.676:1,0.335,-0.315
01:16:19.680:1,0.315,-0.305
01:16:19.684:1,0.325,-0.32
01:16:19.688:1,0.34,-0.34
01:16:19.692:1,0.36,-0.32
01:16:19.696:1,0.345,-0.335
01:16:19.700:1,0.35,-0.355
01:16:19.704:1,0.375,-0.35
01:16:19.708:1,0.355,-0.345
01:16:19.712:1,0.37,-0.35
01:16:19.716:1,0.37,-0.375
01:16:19.720:1,0.38,-0.41
01:16:19.724:1,0.36,-0.44
01:16:19.728:1,0.36,-0.455
01:16:19.732:1,0.37,-0.455
01:16:19.736:1,0.35,-0.415
01:16:19.740:1,0.335,-0.37
01:16:19.744:1,0.39,-0.365
01:16:19.748:1,0.395,-0.34
01:16:19.752:1,0.385,-0.34
01:16:19.756:1,0.4,-0.36
01:16:19.760:1,0.375,-0.355
01:16:19.764:1,0.37,-0.36
01:16:19.768:1,0.345,-0.38
01:16:19.772:1,0.34,-0.37
01:16:19.776:1,0.34,-0.37
01:16:19.780:1,0.33,-0.395
01:16:19.784:1,0.34,-0.4
01:16:19.788:1,0.33,-0.415
01:16:19.792:1,0.315,-0.4
01:16:19.796:1,0.315,-0.415
01:16:19.800:1,0.305,-0.44
01:16:19.804:1,0.305,-0.44
01:16:19.808:1,0.31,-0.465
01:16:19.812:1,0.31,-0.465
01:16:19.816:1,0.305,-0.465
01:16:19.820:1,0.3,-0.475
01:16:19.824:1,0.305,-0.495
01:16:19.828:1,0.3,-0.48
01:16:19.832:1,0.285,-0.485
01:16:19.836:1,0.305,-0.49
01:16:19.840:1,0.3,-0.49
01:16:19.844:1,0.28,-0.495
01:16:19.848:1,0.285,-0.515
01:16:19.852:1,0.295,-0.525
01:16:19.856:1,0.275,-0.505
01:16:19.860:1,0.285,-0.505
01:16:19.864:1,0.275,-0.51
01:16:19.868:1,0.285,-0.505
01:16:19.872:1,0.29,-0.51
01:16:19.876:1,0.305,-0.51
01:16:19.880:1,0.285,-0.525
01:16:19.884:1,0.28,-0.525
01:16:19.888:1,0.28,-0.535
01:16:19.892:1,0.27,-0.52
01:16:19.896:1,0.265,-0.515
01:16:19.900:1,0.3,-0.55
01:16:19.904:1,0.325,-0.55
01:16:19.908:1,0.355,-0.49
01:16:19.912:1,0.335,-0.425
01:16:19.916:1,0.365,-0.28
01:16:19.920:1,0.37,-0.1
01:16:19.924:1,0.385,0.115
01:16:19.928:1,0.42,0.315
01:16:19.932:1,0.495,0.405
01:16:19.936:1,0.57,0.39
01:16:19.940:1,0.64,0.23
01:16:19.944:1,0.66,-0.22
01:16:19.948:1,0.62,-0.65
01:16:19.952:1,0.505,-0.905
01:16:19.956:1,0.32,-0.97
01:16:19.960:1,0.135,-0.98
01:16:19.964:1,0.015,-0.93
01:16:19.968:1,0.0,-0.83
01:16:19.972:1,0.0,-0.725
01:16:19.976:1,0.02,-0.645
01:16:19.980:1,0.1,-0.62
01:16:19.984:1,0.19,-0.615
01:16:19.988:1,0.235,-0.61
01:16:19.992:1,0.235,-0.65
01:16:19.996:1,0.24,-0.665
01:16:20.000:1,0.245,-0.66
01:16:20.004:1,0.235,-0.665
01:16:20.008:1,0.235,-0.69
01:16:20.012:1,0.235,-0.685
01:16:20.016:1,0.23,-0.68
01:16:20.020:1,0.225,-0.675
01:16:20.024:1,0.24,-0.695
01:16:20.028:1,0.23,-0.685
01:16:20.032:1,0.225,-0.695
01:16:20.036:1,0.235,-0.675
01:16:20.040:1,0.23,-0.685
01:16:20.044:1,0.22,-0.675
01:16:20.048:1,0.235,-0.67
01:16:20.052:1,0.245,-0.685
01:16:20.056:1,0.24,-0.68
01:16:20.060:1,0.24,-0.675
01:16:20.064:1,0.25,-0.625
01:16:20.068:1,0.26,-0.6
01:16:20.072:1,0.255,-0.6
01:16:20.076:1,0.28,-0.59
01:16:20.080:1,0.315,-0.58
01:16:20.084:1,0.285,-0.565
01:16:20.088:1,0.3,-0.57
01:16:20.092:1,0.275,-0.555
01:16:20.096:1,0.275,-0.555
01:16:20.100:1,0.26,-0.56
01:16:20.104:1,0.26,-0.575
01:16:20.108:1,0.27,-0.57
01:16:20.112:1,0.265,-0.595
01:16:20.116:1,0.26,-0.6
01:16:20.120:1,0.265,-0.615
01:16:20.124:1,0.26,-0.62
01:16:20.128:1,0.24,-0.63
01:16:20.132:1,0.245,-0.625
01:16:20.136:1,0.245,-0.64
01:16:20.140:1,0.25,-0.625
01:16:20.144:1,0.245,-0.64
01:16:20.148:1,0.23,-0.655
01:16:20.152:1,0.24,-0.655
01:16:20.156:1,0.22,-0.65
01:16:20.160:1,0.23,-0.65
01:16:20.164:1,0.23,-0.65
01:16:20.168:1,0.235,-0.64
01:16:20.172:1,0.215,-0.645
01:16:20.176:1,0.245,-0.645
01:16:20.180:1,0.225,-0.625
01:16:20.184:1,0.215,-0.61
01:16:20.188:1,0.22,-0.595
01:16:20.192:1,0.22,-0.61
01:16:20.196:1,0.22,-0.58
01:16:20.200:1,0.225,-0.58
01:16:20.204:1,0.235,-0.555
01:16:20.208:1,0.26,-0.545
01:16:20.212:1,0.25,-0.535
01:16:20.216:1,0.27,-0.51
01:16:20.220:1,0.295,-0.48
01:16:20.224:1,0.31,-0.47
01:16:20.228:1,0.305,-0.475
01:16:20.232:1,0.3,-0.49
01:16:20.236:1,0.31,-0.485
01:16:20.240:1,0.31,-0.5
01:16:20.244:1,0.305,-0.515
01:16:20.248:1,0.295,-0.51
01:16:20.252:1,0.285,-0.52
01:16:20.256:1,0.29,-0.515
01:16:20.260:1,0.295,-0.505
01:16:20.264:1,0.285,-0.505
01:16:20.268:1,0.265,-0.525
01:16:20.272:1,0.275,-0.54
01:16:20.276:1,0.275,-0.525
01:16:20.280:1,0.265,-0.515
01:16:20.284:1,0.27,-0.53
01:16:20.288:1,0.265,-0.54
01:16:20.292:1,0.27,-0.52
01:16:20.296:1,0.265,-0.535
01:16:20.300:1,0.29,-0.55
01:16:20.304:1,0.275,-0.575
01:16:20.308:1,0.255,-0.575
01:16:20.312:1,0.26,-0.605
01:16:20.316:1,0.255,-0.58
01:16:20.320:1,0.26,-0.6
01:16:20.324:1,0.24,-0.6
01:16:20.328:1,0.255,-0.625
01:16:20.332:1,0.25,-0.62
01:16:20.336:1,0.265,-0.635
01:16:20.340:1,0.26,-0.645
01:16:20.344:1,0.245,-0.665
01:16:20.348:1,0.24,-0.68
01:16:20.352:1,0.24,-0.67
01:16:20.356:1,0.23,-0.61
01:16:20.360:1,0.245,-0.615
01:16:20.364:1,0.24,-0.61
01:16:20.368:1,0.245,-0.615
01:16:20.372:1,0.235,-0.6
01:16:20.376:1,0.22,-0.58
01:16:20.380:1,0.215,-0.585
01:16:20.384:1,0.24,-0.58
01:16:20.388:1,0.225,-0.585
01:16:20.392:1,0.215,-0.585
01:16:20.396:1,0.22,-0.565
01:16:20.400:1,0.225,-0.54
01:16:20.404:1,0.23,-0.535
01:16:20.408:1,0.23,-0.52
01:16:20.412:1,0.225,-0.525
01:16:20.416:1,0.26,-0.52
01:16:20.420:1,0.275,-0.555
01:16:20.424:1,0.275,-0.56
01:16:20.428:1,0.255,-0.575
01:16:20.432:1,0.27,-0.59
01:16:20.436:1,0.27,-0.595
01:16:20.440:1,0.25,-0.605
01:16:20.444:1,0.23,-0.605
01:16:20.448:1,0.25,-0.63
01:16:20.452:1,0.235,-0.63
01:16:20.456:1,0.235,-0.63
01:16:20.460:1,0.235,-0.64
01:16:20.464:1,0.22,-0.645
01:16:20.468:1,0.205,-0.655
01:16:20.472:1,0.215,-0.665
01:16:20.476:1,0.21,-0.635
01:16:20.480:1,0.22,-0.565
01:16:20.484:1,0.255,-0.41
01:16:20.488:1,0.285,-0.175
01:16:20.492:1,0.325,0.07
01:16:20.496:1,0.355,0.25
01:16:20.500:1,0.445,0.3
01:16:20.504:1,0.525,0.25
01:16:20.508:1,0.56,-0.055
01:16:20.512:1,0.525,-0.575
01:16:20.516:1,0.455,-0.95
01:16:20.520:1,0.28,-1.12
01:16:20.524:1,0.065,-1.08
01:16:20.528:1,-0.06,-0.995
01:16:20.532:1,-0.1,-0.875
01:16:20.536:1,-0.095,-0.75
01:16:20.540:1,-0.06,-0.66
01:16:20.544:1,0.015,-0.615
01:16:20.548:1,0.105,-0.61
01:16:20.552:1,0.165,-0.62
01:16:20.556:1,0.175,-0.62
01:16:20.560:1,0.175,-0.64
01:16:20.564:1,0.18,-0.64
01:16:20.568:1,0.175,-0.605
01:16:20.572:1,0.18,-0.585
01:16:20.576:1,0.155,-0.58
01:16:20.580:1,0.17,-0.585
01:16:20.584:1,0.195,-0.59
01:16:20.588:1,0.185,-0.6
01:16:20.592:1,0.21,-0.62
01:16:20.596:1,0.215,-0.63
01:16:20.600:1,0.215,-0.645
01:16:20.604:1,0.19,-0.635
01:16:20.608:1,0.19,-0.655
01:16:20.612:1,0.19,-0.655
01:16:20.616:1,0.19,-0.68
01:16:20.620:1,0.185,-0.705
01:16:20.624:1,0.19,-0.71
01:16:20.628:1,0.18,-0.71
01:16:20.632:1,0.16,-0.705
01:16:20.636:1,0.155,-0.72
01:16:20.640:1,0.17,-0.735
01:16:20.644:1,0.16,-0.745
01:16:20.648:1,0.165,-0.75
01:16:20.652:1,0.15,-0.76
01:16:20.656:1,0.155,-0.77
01:16:20.660:1,0.14,-0.77
01:16:20.664:1,0.14,-0.78
01:16:20.668:1,0.15,-0.78
01:16:20.672:1,0.16,-0.78
01:16:20.676:1,0.16,-0.785
01:16:20.680:1,0.165,-0.785
01:16:20.684:1,0.18,-0.78
01:16:20.688:1,0.175,-0.75
01:16:20.692:1,0.18,-0.72
01:16:20.696:1,0.185,-0.7
01:16:20.700:1,0.17,-0.655
01:16:20.704:1,0.18,-0.635
01:16:20.708:1,0.195,-0.645
01:16:20.712:1,0.2,-0.635
01:16:20.716:1,0.18,-0.64
01:16:20.720:1,0.17,-0.64
01:16:20.724:1,0.17,-0.61
01:16:20.728:1,0.175,-0.595
01:16:20.732:1,0.19,-0.58
01:16:20.736:1,0.185,-0.555
01:16:20.740:1,0.195,-0.53
01:16:20.744:1,0.2,-0.5
01:16:20.748:1,0.22,-0.495
01:16:20.752:1,0.225,-0.445
01:16:20.756:1,0.225,-0.42
01:16:20.760:1,0.235,-0.4
01:16:20.764:1,0.27,-0.41
01:16:20.768:1,0.25,-0.41
01:16:20.772:1,0.27,-0.425
01:16:20.776:1,0.27,-0.455
01:16:20.780:1,0.27,-0.465
01:16:20.784:1,0.275,-0.485
01:16:20.788:1,0.275,-0.52
01:16:20.792:1,0.285,-0.54
01:16:20.796:1,0.27,-0.55
01:16:20.800:1,0.245,-0.55
01:16:20.804:1,0.255,-0.56
01:16:20.808:1,0.255,-0.57
01:16:20.812:1,0.245,-0.6
01:16:20.816:1,0.23,-0.605
01:16:20.820:1,0.23,-0.605
01:16:20.824:1,0.215,-0.605
01:16:20.828:1,0.23,-0.625
01:16:20.832:1,0.23,-0.63
01:16:20.836:1,0.23,-0.625
01:16:20.840:1,0.23,-0.62
01:16:20.844:1,0.24,-0.595
01:16:20.848:1,0.23,-0.57
01:16:20.852:1,0.235,-0.575
01:16:20.856:1,0.245,-0.565
01:16:20.860:1,0.26,-0.56
01:16:20.864:1,0.22,-0.56
01:16:20.868:1,0.21,-0.58
01:16:20.872:1,0.22,-0.58
01:16:20.876:1,0.215,-0.58
01:16:20.880:1,0.185,-0.59
01:16:20.884:1,0.21,-0.605
01:16:20.888:1,0.21,-0.595
01:16:20.892:1,0.17,-0.605
01:16:20.896:1,0.155,-0.61
01:16:20.900:1,0.16,-0.605
01:16:20.904:1,0.165,-0.605
01:16:20.908:1,0.16,-0.64
01:16:20.912:1,0.155,-0.635
01:16:20.916:1,0.155,-0.635
01:16:20.920:1,0.165,-0.62
01:16:20.924:1,0.155,-0.615
01:16:20.928:1,0.15,-0.635
01:16:20.932:1,0.16,-0.615
01:16:20.936:1,0.145,-0.59
01:16:20.940:1,0.175,-0.585
01:16:20.944:1,0.155,-0.58
01:16:20.948:1,0.185,-0.625
01:16:20.952:1,0.185,-0.615
01:16:20.956:1,0.205,-0.625
01:16:20.960:1,0.205,-0.63
01:16:20.964:1,0.21,-0.63
01:16:20.968:1,0.195,-0.64
01:16:20.972:1,0.205,-0.66
01:16:20.976:1,0.19,-0.66
01:16:20.980:1,0.185,-0.645
01:16:20.984:1,0.205,-0.65
01:16:20.988:1,0.215,-0.68
01:16:20.992:1,0.225,-0.695
01:16:20.996:1,0.2,-0.685
01:16:21.000:1,0.205,-0.71
01:16:21.004:1,0.22,-0.675
01:16:21.008:1,0.205,-0.665
01:16:21.012:1,0.21,-0.65
01:16:21.016:1,0.225,-0.64
01:16:21.020:1,0.235,-0.615
01:16:21.024:1,0.2,-0.615
01:16:21.028:1,0.215,-0.62
01:16:21.032:1,0.195,-0.615
01:16:21.036:1,0.195,-0.615
01:16:21.040:1,0.19,-0.61
01:16:21.044:1,0.185,-0.6
01:16:21.048:1,0.175,-0.615
01:16:21.052:1,0.19,-0.61
01:16:21.056:1,0.175,-0.62
01:16:21.060:1,0.195,-0.615
01:16:21.064:1,0.18,-0.61
01:16:21.068:1,0.16,-0.615
01:16:21.072:1,0.17,-0.62
01:16:21.076:1,0.16,-0.615
01:16:21.080:1,0.165,-0.63
01:16:21.084:1,0.175,-0.64
01:16:21.088:1,0.17,-0.63
01:16:21.092:1,0.17,-0.62
01:16:21.096:1,0.16,-0.625
01:16:21.100:1,0.165,-0.625
01:16:21.104:1,0.165,-0.64
01:16:21.108:1,0.16,-0.64
01:16:21.112:1,0.16,-0.655
01:16:21.116:1,0.16,-0.64
01:16:21.120:1,0.16,-0.655
01:16:21.124:1,0.15,-0.615
01:16:21.128:1,0.17,-0.515
01:16:21.132:1,0.2,-0.33
01:16:21.136:1,0.235,-0.09
01:16:21.140:1,0.305,0.095
01:16:21.144:1,0.375,0.25
01:16:21.148:1,0.465,0.35
01:16:21.152:1,0.525,0.28
01:16:21.156:1,0.565,-0.03
01:16:21.160:1,0.52,-0.53
01:16:21.164:1,0.415,-0.895
01:16:21.168:1,0.205,-1.045
01:16:21.172:1,0.025,-1.02
01:16:21.176:1,-0.11,-0.95
01:16:21.180:1,-0.115,-0.825
01:16:21.184:1,-0.11,-0.73
01:16:21.188:1,-0.06,-0.625
01:16:21.192:1,0.015,-0.595
01:16:21.196:1,0.11,-0.64
01:16:21.200:1,0.135,-0.66
01:16:21.204:1,0.17,-0.655
01:16:21.208:1,0.165,-0.685
01:16:21.212:1,0.16,-0.67
01:16:21.216:1,0.145,-0.685
01:16:21.220:1,0.14,-0.685
01:16:21.224:1,0.125,-0.685
01:16:21.228:1,0.165,-0.68
01:16:21.232:1,0.155,-0.69
01:16:21.236:1,0.15,-0.69
01:16:21.240:1,0.125,-0.715
01:16:21.244:1,0.155,-0.69
01:16:21.248:1,0.15,-0.695
01:16:21.252:1,0.13,-0.72
01:16:21.256:1,0.14,-0.71
01:16:21.260:1,0.13,-0.71
01:16:21.264:1,0.13,-0.71
01:16:21.268:1,0.145,-0.69
01:16:21.272:1,0.145,-0.695
01:16:21.276:1,0.135,-0.7
01:16:21.280:1,0.135,-0.7
01:16:21.284:1,0.145,-0.725
01:16:21.288:1,0.13,-0.715
01:16:21.292:1,0.14,-0.715
01:16:21.296:1,0.13,-0.715
01:16:21.300:1,0.145,-0.705
01:16:21.304:1,0.145,-0.695
01:16:21.308:1,0.17,-0.68
01:16:21.312:1,0.16,-0.62
01:16:21.316:1,0.15,-0.6
01:16:21.320:1,0.17,-0.595
01:16:21.324:1,0.17,-0.57
01:16:21.328:1,0.18,-0.57
01:16:21.332:1,0.19,-0.59
01:16:21.336:1,0.195,-0.605
01:16:21.340:1,0.185,-0.625
01:16:21.344:1,0.18,-0.62
01:16:21.348:1,0.195,-0.615
01:16:21.352:1,0.2,-0.625
01:16:21.356:1,0.18,-0.635
01:16:21.360:1,0.175,-0.64
01:16:21.364:1,0.175,-0.63
01:16:21.368:1,0.17,-0.615
01:16:21.372:1,0.16,-0.625
01:16:21.376:1,0.19,-0.625
01:16:21.380:1,0.15,-0.62
01:16:21.384:1,0.15,-0.625
01:16:21.388:1,0.175,-0.615
01:16:21.392:1,0.165,-0.6
01:16:21.396:1,0.175,-0.61
01:16:21.400:1,0.18,-0.59
01:16:21.404:1,0.165,-0.565
01:16:21.408:1,0.175,-0.56
01:16:21.412:1,0.17,-0.55
01:16:21.416:1,0.18,-0.56
01:16:21.420:1,0.19,-0.545
01:16:21.424:1,0.2,-0.535
01:16:21.428:1,0.19,-0.53
01:16:21.432:1,0.19,-0.515
01:16:21.436:1,0.21,-0.54
01:16:21.440:1,0.23,-0.545
01:16:21.444:1,0.2,-0.555
01:16:21.448:1,0.2,-0.57
01:16:21.452:1,0.19,-0.595
01:16:21.456:1,0.19,-0.585
01:16:21.460:1,0.19,-0.555
01:16:21.464:1,0.19,-0.535
01:16:21.468:1,0.195,-0.52
01:16:21.472:1,0.205,-0.525
01:16:21.476:1,0.19,-0.525
01:16:21.480:1,0.18,-0.52
01:16:21.484:1,0.185,-0.49
01:16:21.488:1,0.17,-0.5
01:16:21.492:1,0.17,-0.51
01:16:21.496:1,0.18,-0.505
01:16:21.500:1,0.16,-0.475
01:16:21.504:1,0.165,-0.495
01:16:21.508:1,0.165,-0.475
01:16:21.512:1,0.14,-0.47
01:16:21.516:1,0.17,-0.455
01:16:21.520:1,0.185,-0.455
01:16:21.524:1,0.185,-0.465
01:16:21.528:1,0.195,-0.49
01:16:21.532:1,0.195,-0.525
01:16:21.536:1,0.175,-0.52
01:16:21.540:1,0.2,-0.525
01:16:21.544:1,0.205,-0.565
01:16:21.548:1,0.19,-0.57
01:16:21.552:1,0.175,-0.57
01:16:21.556:1,0.175,-0.6
01:16:21.560:1,0.175,-0.61
01:16:21.564:1,0.175,-0.615
01:16:21.568:1,0.165,-0.635
01:16:21.572:1,0.145,-0.635
01:16:21.576:1,0.17,-0.64
01:16:21.580:1,0.145,-0.63
01:16:21.584:1,0.145,-0.635
01:16:21.588:1,0.13,-0.665
01:16:21.592:1,0.14,-0.66
01:16:21.596:1,0.14,-0.655
01:16:21.600:1,0.13,-0.665
01:16:21.604:1,0.125,-0.68
01:16:21.608:1,0.125,-0.675
01:16:21.612:1,0.12,-0.69
01:16:21.616:1,0.125,-0.695
01:16:21.620:1,0.13,-0.72
01:16:21.624:1,0.13,-0.71
01:16:21.628:1,0.125,-0.735
01:16:21.632:1,0.125,-0.725
01:16:21.636:1,0.13,-0.655
01:16:21.640:1,0.155,-0.595
01:16:21.644:1,0.145,-0.59
01:16:21.648:1,0.155,-0.56
01:16:21.652:1,0.14,-0.57
01:16:21.656:1,0.145,-0.565
01:16:21.660:1,0.135,-0.59
01:16:21.664:1,0.15,-0.585
01:16:21.668:1,0.13,-0.615
01:16:21.672:1,0.13,-0.615
01:16:21.676:1,0.11,-0.61
01:16:21.680:1,0.105,-0.61
01:16:21.684:1,0.095,-0.605
01:16:21.688:1,0.115,-0.585
01:16:21.692:1,0.105,-0.575
01:16:21.696:1,0.11,-0.56
01:16:21.700:1,0.115,-0.565
01:16:21.704:1,0.135,-0.575
01:16:21.708:1,0.115,-0.57
01:16:21.712:1,0.135,-0.575
01:16:21.716:1,0.165,-0.575
01:16:21.720:1,0.17,-0.565
01:16:21.724:1,0.165,-0.575
01:16:21.728:1,0.18,-0.595
01:16:21.732:1,0.175,-0.595
01:16:21.736:1,0.175,-0.51
01:16:21.740:1,0.19,-0.36
01:16:21.744:1,0.22,-0.16
01:16:21.748:1,0.255,0.095
01:16:21.752:1,0.275,0.305
01:16:21.756:1,0.37,0.42
01:16:21.760:1,0.475,0.41
01:16:21.764:1,0.53,0.23
01:16:21.768:1,0.54,-0.245
01:16:21.772:1,0.495,-0.73
01:16:21.776:1,0.365,-1.0
01:16:21.780:1,0.14,-1.08
01:16:21.784:1,-0.045,-1.08
01:16:21.788:1,-0.17,-1.015
01:16:21.792:1,-0.2,-0.895
01:16:21.796:1,-0.18,-0.815
01:16:21.800:1,-0.12,-0.75
01:16:21.804:1,-0.06,-0.71
01:16:21.808:1,0.025,-0.69
01:16:21.812:1,0.08,-0.655
01:16:21.816:1,0.1,-0.615
01:16:21.820:1,0.12,-0.605
01:16:21.824:1,0.13,-0.59
01:16:21.828:1,0.11,-0.595
01:16:21.832:1,0.11,-0.605
01:16:21.836:1,0.1,-0.625
01:16:21.840:1,0.11,-0.615
01:16:21.844:1,0.09,-0.625
01:16:21.848:1,0.085,-0.625
01:16:21.852:1,0.09,-0.625
01:16:21.856:1,0.075,-0.625
01:16:21.860:1,0.075,-0.65
01:16:21.864:1,0.09,-0.65
01:16:21.868:1,0.07,-0.665
01:16:21.872:1,0.075,-0.655
01:16:21.876:1,0.1,-0.655
01:16:21.880:1,0.08,-0.635
01:16:21.884:1,0.095,-0.64
01:16:21.888:1,0.1,-0.63
01:16:21.892:1,0.12,-0.63
01:16:21.896:1,0.12,-0.635
01:16:21.900:1,0.115,-0.635
01:16:21.904:1,0.13,-0.66
01:16:21.908:1,0.125,-0.68
01:16:21.912:1,0.135,-0.675
01:16:21.916:1,0.13,-0.685
01:16:21.920:1,0.13,-0.695
01:16:21.924:1,0.13,-0.71
01:16:21.928:1,0.125,-0.725
01:16:21.932:1,0.14,-0.715
01:16:21.936:1,0.115,-0.705
01:16:21.940:1,0.105,-0.71
01:16:21.944:1,0.11,-0.705
01:16:21.948:1,0.105,-0.72
01:16:21.952:1,0.1,-0.715
01:16:21.956:1,0.105,-0.72
01:16:21.960:1,0.105,-0.715
01:16:21.964:1,0.09,-0.71
01:16:21.968:1,0.115,-0.725
01:16:21.972:1,0.11,-0.715
01:16:21.976:1,0.125,-0.69
01:16:21.980:1,0.12,-0.655
01:16:21.984:1,0.135,-0.615
01:16:21.988:1,0.145,-0.575
01:16:21.992:1,0.13,-0.56
01:16:21.996:1,0.145,-0.56
01:16:22.000:1,0.16,-0.565
01:16:22.004:1,0.145,-0.54
01:16:22.008:1,0.13,-0.52
01:16:22.012:1,0.125,-0.485
01:16:22.016:1,0.125,-0.46
01:16:22.020:1,0.11,-0.465
01:16:22.024:1,0.11,-0.485
01:16:22.028:1,0.12,-0.48
01:16:22.032:1,0.11,-0.465
01:16:22.036:1,0.115,-0.475
01:16:22.040:1,0.105,-0.46
01:16:22.044:1,0.12,-0.455
01:16:22.048:1,0.145,-0.465
01:16:22.052:1,0.14,-0.455
01:16:22.056:1,0.155,-0.445
01:16:22.060:1,0.15,-0.45
01:16:22.064:1,0.145,-0.455
01:16:22.068:1,0.15,-0.48
01:16:22.072:1,0.16,-0.48
01:16:22.076:1,0.165,-0.49
01:16:22.080:1,0.17,-0.49
01:16:22.084:1,0.16,-0.5
01:16:22.088:1,0.17,-0.5
01:16:22.092:1,0.16,-0.52
01:16:22.096:1,0.145,-0.525
01:16:22.100:1,0.145,-0.54
01:16:22.104:1,0.16,-0.54
01:16:22.108:1,0.16,-0.535
01:16:22.112:1,0.15,-0.54
01:16:22.116:1,0.155,-0.555
01:16:22.120:1,0.145,-0.56
01:16:22.124:1,0.145,-0.56
01:16:22.128:1,0.135,-0.58
01:16:22.132:1,0.165,-0.595
01:16:22.136:1,0.165,-0.59
01:16:22.140:1,0.15,-0.55
01:16:22.144:1,0.16,-0.525
01:16:22.148:1,0.155,-0.5
01:16:22.152:1,0.17,-0.48
01:16:22.156:1,0.185,-0.47
01:16:22.160:1,0.175,-0.475
01:16:22.164:1,0.175,-0.465
01:16:22.168:1,0.165,-0.475
01:16:22.172:1,0.15,-0.48
01:16:22.176:1,0.15,-0.515
01:16:22.180:1,0.155,-0.52
01:16:22.184:1,0.135,-0.485
01:16:22.188:1,0.13,-0.435
01:16:22.192:1,0.15,-0.32
01:16:22.196:1,0.155,-0.14
01:16:22.200:1,0.18,0.07
01:16:22.204:1,0.22,0.155
01:16:22.208:1,0.31,0.155
01:16:22.212:1,0.375,0.045
01:16:22.216:1,0.42,-0.255
01:16:22.220:1,0.39,-0.65
01:16:22.224:1,0.315,-0.89
01:16:22.228:1,0.16,-0.92
01:16:22.232:1,-0.025,-0.905
01:16:22.236:1,-0.14,-0.9
01:16:22.240:1,-0.165,-0.82
01:16:22.244:1,-0.165,-0.715
01:16:22.248:1,-0.135,-0.635
01:16:22.252:1,-0.065,-0.575
01:16:22.256:1,0.0,-0.555
01:16:22.260:1,0.06,-0.585
01:16:22.264:1,0.105,-0.58
01:16:22.268:1,0.11,-0.605
01:16:22.272:1,0.115,-0.615
01:16:22.276:1,0.1,-0.605
01:16:22.280:1,0.085,-0.61
01:16:22.284:1,0.095,-0.625
01:16:22.288:1,0.11,-0.64
01:16:22.292:1,0.11,-0.65
01:16:22.296:1,0.075,-0.63
01:16:22.300:1,0.09,-0.665
01:16:22.304:1,0.105,-0.655
01:16:22.308:1,0.09,-0.675
01:16:22.312:1,0.09,-0.645
01:16:22.316:1,0.1,-0.62
01:16:22.320:1,0.105,-0.595
01:16:22.324:1,0.1,-0.575
01:16:22.328:1,0.135,-0.575
01:16:22.332:1,0.13,-0.57
01:16:22.336:1,0.11,-0.585
01:16:22.340:1,0.095,-0.595
01:16:22.344:1,0.085,-0.585
01:16:22.348:1,0.075,-0.605
01:16:22.352:1,0.07,-0.595
01:16:22.356:1,0.065,-0.6
01:16:22.360:1,0.07,-0.59
01:16:22.364:1,0.05,-0.595
01:16:22.368:1,0.06,-0.6
01:16:22.372:1,0.065,-0.605
01:16:22.376:1,0.045,-0.6
01:16:22.380:1,0.045,-0.62
01:16:22.384:1,0.035,-0.63
01:16:22.388:1,0.04,-0.6
01:16:22.392:1,0.035,-0.605
01:16:22.396:1,0.045,-0.585
01:16:22.400:1,0.055,-0.575
01:16:22.404:1,0.06,-0.58
01:16:22.408:1,0.065,-0.565
01:16:22.412:1,0.08,-0.57
01:16:22.416:1,0.07,-0.54
01:16:22.420:1,0.07,-0.53
01:16:22.424:1,0.07,-0.505
01:16:22.428:1,0.06,-0.5
01:16:22.432:1,0.08,-0.49
01:16:22.436:1,0.095,-0.495
01:16:22.440:1,0.095,-0.48
01:16:22.444:1,0.115,-0.48
01:16:22.448:1,0.125,-0.48
01:16:22.452:1,0.11,-0.48
01:16:22.456:1,0.115,-0.465
01:16:22.460:1,0.125,-0.485
01:16:22.464:1,0.135,-0.48
01:16:22.468:1,0.125,-0.48
01:16:22.472:1,0.135,-0.485
01:16:22.476:1,0.13,-0.45
01:16:22.480:1,0.125,-0.425
01:16:22.484:1,0.155,-0.42
01:16:22.488:1,0.16,-0.415
01:16:22.492:1,0.18,-0.42
01:16:22.496:1,0.175,-0.405
01:16:22.500:1,0.16,-0.44
01:16:22.504:1,0.16,-0.455
01:16:22.508:1,0.15,-0.44
01:16:22.512:1,0.135,-0.45
01:16:22.516:1,0.135,-0.43
01:16:22.520:1,0.13,-0.455
01:16:22.524:1,0.12,-0.48
01:16:22.528:1,0.115,-0.485
01:16:22.532:1,0.12,-0.495
01:16:22.536:1,0.12,-0.505
01:16:22.540:1,0.1,-0.525
01:16:22.544:1,0.1,-0.55
01:16:22.548:1,0.09,-0.55
01:16:22.552:1,0.075,-0.55
01:16:22.556:1,0.075,-0.555
01:16:22.560:1,0.085,-0.55
01:16:22.564:1,0.07,-0.545
01:16:22.568:1,0.075,-0.555
01:16:22.572:1,0.08,-0.54
01:16:22.576:1,0.075,-0.53
01:16:22.580:1,0.1,-0.55
01:16:22.584:1,0.1,-0.56
01:16:22.588:1,0.09,-0.54
01:16:22.592:1,0.085,-0.535
01:16:22.596:1,0.085,-0.53
01:16:22.600:1,0.095,-0.545
01:16:22.604:1,0.095,-0.53
01:16:22.608:1,0.1,-0.54
01:16:22.612:1,0.135,-0.55
01:16:22.616:1,0.1,-0.565
01:16:22.620:1,0.11,-0.575
01:16:22.624:1,0.115,-0.58
01:16:22.628:1,0.115,-0.6
01:16:22.632:1,0.12,-0.585
01:16:22.636:1,0.12,-0.56
01:16:22.640:1,0.125,-0.545
01:16:22.644:1,0.12,-0.525
01:16:22.648:1,0.14,-0.5
01:16:22.652:1,0.12,-0.515
01:16:22.656:1,0.115,-0.525
01:16:22.660:1,0.105,-0.515
01:16:22.664:1,0.105,-0.515
01:16:22.668:1,0.12,-0.51
01:16:22.672:1,0.105,-0.495
01:16:22.676:1,0.1,-0.52
01:16:22.680:1,0.105,-0.535
01:16:22.684:1,0.105,-0.54
01:16:22.688:1,0.095,-0.54
01:16:22.692:1,0.085,-0.575
01:16:22.696:1,0.09,-0.56
01:16:22.700:1,0.075,-0.48
01:16:22.704:1,0.105,-0.34
01:16:22.708:1,0.135,-0.125
01:16:22.712:1,0.155,0.115
01:16:22.716:1,0.225,0.26
01:16:22.720:1,0.3,0.31
01:16:22.724:1,0.405,0.285
01:16:22.728:1,0.435,0.01
01:16:22.732:1,0.4,-0.49
01:16:22.736:1,0.345,-0.87
01:16:22.740:1,0.215,-1.01
01:16:22.744:1,-0.02,-1.005
01:16:22.748:1,-0.155,-0.99
01:16:22.752:1,-0.215,-0.905
01:16:22.756:1,-0.225,-0.79
01:16:22.760:1,-0.2,-0.715
01:16:22.764:1,-0.15,-0.635
01:16:22.768:1,-0.07,-0.59
01:16:22.772:1,-0.01,-0.6
01:16:22.776:1,0.03,-0.61
01:16:22.780:1,0.07,-0.59
01:16:22.784:1,0.07,-0.605
01:16:22.788:1,0.07,-0.63
01:16:22.792:1,0.09,-0.635
01:16:22.796:1,0.105,-0.66
01:16:22.800:1,0.09,-0.64
01:16:22.804:1,0.08,-0.615
01:16:22.808:1,0.115,-0.58
01:16:22.812:1,0.095,-0.55
01:16:22.816:1,0.085,-0.575
01:16:22.820:1,0.105,-0.56
01:16:22.824:1,0.09,-0.56
01:16:22.828:1,0.1,-0.55
01:16:22.832:1,0.075,-0.58
01:16:22.836:1,0.06,-0.565
01:16:22.840:1,0.05,-0.57
01:16:22.844:1,0.05,-0.57
01:16:22.848:1,0.055,-0.58
01:16:22.852:1,0.07,-0.585
01:16:22.856:1,0.06,-0.6
01:16:22.860:1,0.06,-0.595
01:16:22.864:1,0.05,-0.585
01:16:22.868:1,0.045,-0.58
01:16:22.872:1,0.05,-0.6
01:16:22.876:1,0.025,-0.595
01:16:22.880:1,0.035,-0.6
01:16:22.884:1,0.04,-0.6
01:16:22.888:1,0.02,-0.595
01:16:22.892:1,0.01,-0.6
01:16:22.896:1,0.01,-0.615
01:16:22.900:1,0.025,-0.6
01:16:22.904:1,0.015,-0.59
01:16:22.908:1,0.01,-0.6
01:16:22.912:1,0.025,-0.6
01:16:22.916:1,0.025,-0.585
01:16:22.920:1,0.035,-0.585
01:16:22.924:1,0.04,-0.58
01:16:22.928:1,0.045,-0.59
01:16:22.932:1,0.035,-0.575
01:16:22.936:1,0.055,-0.565
01:16:22.940:1,0.045,-0.545
01:16:22.944:1,0.06,-0.53
01:16:22.948:1,0.07,-0.52
01:16:22.952:1,0.075,-0.535
01:16:22.956:1,0.06,-0.53
01:16:22.960:1,0.095,-0.535
01:16:22.964:1,0.06,-0.53
01:16:22.968:1,0.07,-0.51
01:16:22.972:1,0.07,-0.49
01:16:22.976:1,0.08,-0.44
01:16:22.980:1,0.11,-0.4
01:16:22.984:1,0.11,-0.37
01:16:22.988:1,0.095,-0.38
01:16:22.992:1,0.12,-0.375
01:16:22.996:1,0.115,-0.35
01:16:23.000:1,0.105,-0.375
01:16:23.004:1,0.105,-0.375
01:16:23.008:1,0.135,-0.385
01:16:23.012:1,0.105,-0.385
01:16:23.016:1,0.105,-0.375
01:16:23.020:1,0.105,-0.395
01:16:23.024:1,0.1,-0.405
01:16:23.028:1,0.095,-0.415
01:16:23.032:1,0.085,-0.435
01:16:23.036:1,0.065,-0.415
01:16:23.040:1,0.08,-0.43
01:16:23.044:1,0.085,-0.42
01:16:23.048:1,0.095,-0.42
01:16:23.052:1,0.055,-0.435
01:16:23.056:1,0.075,-0.42
01:16:23.060:1,0.075,-0.43
01:16:23.064:1,0.07,-0.425
01:16:23.068:1,0.065,-0.43
01:16:23.072:1,0.055,-0.42
01:16:23.076:1,0.065,-0.415
01:16:23.080:1,0.065,-0.41
01:16:23.084:1,0.07,-0.415
01:16:23.088:1,0.08,-0.415
01:16:23.092:1,0.075,-0.41
01:16:23.096:1,0.085,-0.41
01:16:23.100:1,0.08,-0.43
01:16:23.104:1,0.1,-0.41
01:16:23.108:1,0.065,-0.39
01:16:23.112:1,0.085,-0.375
01:16:23.116:1,0.1,-0.375
01:16:23.120:1,0.11,-0.385
01:16:23.124:1,0.11,-0.395
01:16:23.128:1,0.11,-0.405
01:16:23.132:1,0.09,-0.415
01:16:23.136:1,0.1,-0.42
01:16:23.140:1,0.1,-0.445
01:16:23.144:1,0.11,-0.5
01:16:23.148:1,0.1,-0.48
01:16:23.152:1,0.115,-0.38
01:16:23.156:1,0.115,-0.18
01:16:23.160:1,0.185,0.015
01:16:23.164:1,0.205,0.24
01:16:23.168:1,0.23,0.395
01:16:23.172:1,0.285,0.44
01:16:23.176:1,0.36,0.385
01:16:23.180:1,0.38,0.16
01:16:23.184:1,0.34,-0.28
01:16:23.188:1,0.245,-0.65
01:16:23.192:1,0.07,-0.77
01:16:23.196:1,-0.16,-0.795
01:16:23.200:1,-0.265,-0.76
01:16:23.204:1,-0.31,-0.7
01:16:23.208:1,-0.28,-0.595
01:16:23.212:1,-0.235,-0.5
01:16:23.216:1,-0.16,-0.435
01:16:23.220:1,-0.095,-0.425
01:16:23.224:1,-0.03,-0.45
01:16:23.228:1,-0.01,-0.455
01:16:23.232:1,-0.005,-0.45
01:16:23.236:1,-0.015,-0.465
01:16:23.240:1,0.0,-0.475
01:16:23.244:1,-0.005,-0.47
01:16:23.248:1,0.0,-0.46
01:16:23.252:1,-0.01,-0.475
01:16:23.256:1,-0.015,-0.475
01:16:23.260:1,-0.02,-0.465
01:16:23.264:1,-0.01,-0.475
01:16:23.268:1,-0.015,-0.465
01:16:23.272:1,0.005,-0.46
01:16:23.276:1,-0.005,-0.46
01:16:23.280:1,0.0,-0.46
01:16:23.284:1,-0.015,-0.435
01:16:23.288:1,0.0,-0.39
01:16:23.292:1,-0.005,-0.39
01:16:23.296:1,0.03,-0.395
01:16:23.300:1,0.035,-0.385
01:16:23.304:1,0.06,-0.43
01:16:23.308:1,0.05,-0.42
01:16:23.312:1,0.045,-0.42
01:16:23.316:1,0.04,-0.41
01:16:23.320:1,0.035,-0.44
01:16:23.324:1,0.02,-0.45
01:16:23.328:1,0.03,-0.435
01:16:23.332:1,0.02,-0.42
01:16:23.336:1,0.025,-0.425
01:16:23.340:1,0.02,-0.425
01:16:23.344:1,0.03,-0.43
01:16:23.348:1,0.045,-0.42
01:16:23.352:1,0.05,-0.415
01:16:23.356:1,0.045,-0.415
01:16:23.360:1,0.065,-0.405
01:16:23.364:1,0.065,-0.375
01:16:23.368:1,0.055,-0.33
01:16:23.372:1,0.06,-0.32
01:16:23.376:1,0.095,-0.32
01:16:23.380:1,0.075,-0.3
01:16:23.384:1,0.07,-0.315
01:16:23.388:1,0.045,-0.32
01:16:23.392:1,0.03,-0.305
01:16:23.396:1,-0.02,-0.31
01:16:23.400:1,-0.025,-0.295
01:16:23.404:1,-0.02,-0.295
01:16:23.408:1,-0.015,-0.265
01:16:23.412:1,0.0,-0.26
01:16:23.416:1,0.0,-0.255
01:16:23.420:1,-0.02,-0.21
01:16:23.424:1,-0.005,-0.2
01:16:23.428:1,-0.005,-0.215
01:16:23.432:1,0.015,-0.21
01:16:23.436:1,0.005,-0.2
01:16:23.440:1,0.01,-0.205
01:16:23.444:1,0.015,-0.2
01:16:23.448:1,0.025,-0.165
01:16:23.452:1,0.025,-0.175
01:16:23.456:1,0.02,-0.17
01:16:23.460:1,0.035,-0.155
01:16:23.464:1,0.04,-0.17
01:16:23.468:1,0.03,-0.17
01:16:23.472:1,0.065,-0.185
01:16:23.476:1,0.035,-0.195
01:16:23.480:1,0.055,-0.225
01:16:23.484:1,0.055,-0.215
01:16:23.488:1,0.05,-0.21
01:16:23.492:1,0.025,-0.24
01:16:23.496:1,0.035,-0.245
01:16:23.500:1,0.025,-0.255
01:16:23.504:1,0.035,-0.235
01:16:23.508:1,0.025,-0.225
01:16:23.512:1,0.03,-0.255
01:16:23.516:1,0.035,-0.25
01:16:23.520:1,0.02,-0.25
01:16:23.524:1,0.025,-0.24
01:16:23.528:1,0.01,-0.255
01:16:23.532:1,0.03,-0.26
01:16:23.536:1,0.045,-0.28
01:16:23.540:1,0.03,-0.26
01:16:23.544:1,0.03,-0.225
01:16:23.548:1,0.04,-0.23
01:16:23.552:1,0.05,-0.215
01:16:23.556:1,0.02,-0.19
01:16:23.560:1,0.03,-0.19
01:16:23.564:1,0.02,-0.19
01:16:23.568:1,0.015,-0.21
01:16:23.572:1,0.01,-0.23
01:16:23.576:1,-0.015,-0.225
01:16:23.580:1,-0.02,-0.255
01:16:23.584:1,-0.03,-0.285
01:16:23.588:1,-0.05,-0.29
01:16:23.592:1,-0.05,-0.215
01:16:23.596:1,-0.04,-0.075
01:16:23.600:1,-0.005,0.11
01:16:23.604:1,0.03,0.34
01:16:23.608:1,0.095,0.525
01:16:23.612:1,0.155,0.615
01:16:23.616:1,0.24,0.575
01:16:23.620:1,0.27,0.325
01:16:23.624:1,0.195,-0.125
01:16:23.628:1,0.115,-0.49
01:16:23.632:1,-0.065,-0.635
01:16:23.636:1,-0.22,-0.66
01:16:23.640:1,-0.32,-0.59
01:16:23.644:1,-0.365,-0.515
01:16:23.648:1,-0.335,-0.4
01:16:23.652:1,-0.28,-0.32
01:16:23.656:1,-0.19,-0.285
01:16:23.660:1,-0.1,-0.295
01:16:23.664:1,-0.07,-0.31
01:16:23.668:1,-0.06,-0.32
01:16:23.672:1,-0.06,-0.315
01:16:23.676:1,-0.05,-0.305
01:16:23.680:1,-0.035,-0.31
01:16:23.684:1,-0.055,-0.32
01:16:23.688:1,-0.06,-0.325
01:16:23.692:1,-0.03,-0.335
01:16:23.696:1,-0.05,-0.32
01:16:23.700:1,-0.035,-0.35
01:16:23.704:1,-0.04,-0.305
01:16:23.708:1,-0.035,-0.255
01:16:23.712:1,-0.035,-0.225
01:16:23.716:1,0.0,-0.215
01:16:23.720:1,-0.02,-0.2
01:16:23.724:1,-0.02,-0.19
01:16:23.728:1,-0.03,-0.21
01:16:23.732:1,-0.03,-0.185
01:16:23.736:1,-0.055,-0.195
01:16:23.740:1,-0.06,-0.2
01:16:23.744:1,-0.05,-0.215
01:16:23.748:1,-0.05,-0.19
01:16:23.752:1,-0.05,-0.21
01:16:23.756:1,-0.065,-0.215
01:16:23.760:1,-0.045,-0.22
01:16:23.764:1,-0.065,-0.245
01:16:23.768:1,-0.06,-0.235
01:16:23.772:1,-0.07,-0.255
01:16:23.776:1,-0.055,-0.235
01:16:23.780:1,-0.065,-0.22
01:16:23.784:1,-0.05,-0.22
01:16:23.788:1,-0.07,-0.205
01:16:23.792:1,-0.06,-0.18
01:16:23.796:1,-0.04,-0.19
01:16:23.800:1,-0.02,-0.195
01:16:23.804:1,-0.02,-0.205
01:16:23.808:1,-0.03,-0.205
01:16:23.812:1,-0.025,-0.185
01:16:23.816:1,-0.035,-0.18
01:16:23.820:1,-0.025,-0.175
01:16:23.824:1,-0.03,-0.17
01:16:23.828:1,-0.01,-0.17
01:16:23.832:1,-0.02,-0.16
01:16:23.836:1,-0.01,-0.155
01:16:23.840:1,0.01,-0.165
01:16:23.844:1,0.0,-0.145
01:16:23.848:1,-0.015,-0.12
01:16:23.852:1,0.0,-0.105
01:16:23.856:1,0.0,-0.09
01:16:23.860:1,0.0,-0.07
01:16:23.864:1,0.015,-0.06
01:16:23.868:1,0.025,-0.055
01:16:23.872:1,0.02,-0.04
01:16:23.876:1,0.04,-0.03
01:16:23.880:1,0.06,-0.02
01:16:23.884:1,0.05,0.025
01:16:23.888:1,0.07,0.035
01:16:23.892:1,0.085,0.05
01:16:23.896:1,0.08,0.065
01:16:23.900:1,0.07,0.055
01:16:23.904:1,0.08,0.015
01:16:23.908:1,0.07,0.025
01:16:23.912:1,0.045,0.01
01:16:23.916:1,0.02,0.0
01:16:23.920:1,0.025,-0.025
01:16:23.924:1,-0.01,-0.01
01:16:23.928:1,0.005,-0.03
01:16:23.932:1,0.0,-0.035
01:16:23.936:1,-0.015,-0.055
01:16:23.940:1,0.0,-0.065
01:16:23.944:1,-0.01,-0.08
01:16:23.948:1,-0.02,-0.065
01:16:23.952:1,-0.01,-0.075
01:16:23.956:1,-0.015,-0.075
01:16:23.960:1,0.0,-0.07
01:16:23.964:1,-0.01,-0.04
01:16:23.968:1,-0.015,-0.045
01:16:23.972:1,0.005,-0.045
01:16:23.976:1,-0.02,-0.035
01:16:23.980:1,-0.01,-0.055
01:16:23.984:1,0.0,-0.085
01:16:23.988:1,0.005,-0.085
01:16:23.992:1,0.005,-0.095
01:16:23.996:1,0.005,-0.115
01:16:24.000:1,0.015,-0.115
01:16:24.004:1,0.02,-0.1
01:16:24.008:1,0.0,-0.115
01:16:24.012:1,0.0,-0.12
01:16:24.016:1,0.015,-0.13
01:16:24.020:1,0.0,-0.12
01:16:24.024:1,0.0,-0.13
01:16:24.028:1,0.005,-0.13
01:16:24.032:1,0.01,-0.13
01:16:24.036:1,0.005,-0.13
01:16:24.040:1,0.0,-0.125
01:16:24.044:1,0.015,-0.085
01:16:24.048:1,0.03,-0.105
01:16:24.052:1,0.025,-0.075
01:16:24.056:1,0.03,-0.055
01:16:24.060:1,0.04,-0.02
01:16:24.064:1,0.045,0.005
01:16:24.068:1,0.035,0.015
01:16:24.072:1,0.035,0.0
01:16:24.076:1,0.03,0.0
01:16:24.080:1,0.015,0.0
01:16:24.084:1,0.025,0.005
01:16:24.088:1,0.02,0.0
01:16:24.092:1,0.01,-0.02
01:16:24.096:1,0.01,-0.01
01:16:24.100:1,0.0,-0.01
01:16:24.104:1,-0.01,-0.02
01:16:24.108:1,0.01,-0.045
01:16:24.112:1,0.0,-0.07
01:16:24.116:1,0.015,-0.085
01:16:24.120:1,0.0,-0.05
01:16:24.124:1,-0.01,0.05
01:16:24.128:1,0.005,0.27
01:16:24.132:1,0.035,0.51
01:16:24.136:1,0.1,0.76
01:16:24.140:1,0.19,0.9
01:16:24.144:1,0.295,0.9
01:16:24.148:1,0.36,0.735
01:16:24.152:1,0.395,0.3
01:16:24.156:1,0.335,-0.145
01:16:24.160:1,0.21,-0.41
01:16:24.164:1,0.025,-0.49
01:16:24.168:1,-0.18,-0.5
01:16:24.172:1,-0.28,-0.42
01:16:24.176:1,-0.29,-0.35
01:16:24.180:1,-0.265,-0.235
01:16:24.184:1,-0.235,-0.155
01:16:24.188:1,-0.155,-0.135
01:16:24.192:1,-0.065,-0.13
01:16:24.196:1,-0.03,-0.135
01:16:24.200:1,0.0,-0.16
01:16:24.204:1,-0.03,-0.165
01:16:24.208:1,-0.02,-0.16
01:16:24.212:1,0.0,-0.145
01:16:24.216:1,-0.01,-0.16
01:16:24.220:1,0.005,-0.165
01:16:24.224:1,0.01,-0.155
01:16:24.228:1,0.005,-0.12
01:16:24.232:1,0.01,-0.095
01:16:24.236:1,0.02,-0.07
01:16:24.240:1,0.025,-0.03
01:16:24.244:1,0.02,-0.03
01:16:24.248:1,0.03,-0.05
01:16:24.252:1,0.01,-0.045
01:16:24.256:1,0.01,-0.04
01:16:24.260:1,0.0,-0.045
01:16:24.264:1,0.0,-0.06
01:16:24.268:1,-0.03,-0.06
01:16:24.272:1,-0.04,-0.085
01:16:24.276:1,-0.04,-0.07
01:16:24.280:1,-0.02,-0.095
01:16:24.284:1,-0.045,-0.11
01:16:24.288:1,-0.045,-0.13
01:16:24.292:1,-0.045,-0.125
01:16:24.296:1,-0.06,-0.13
01:16:24.300:1,-0.065,-0.13
01:16:24.304:1,-0.045,-0.12
01:16:24.308:1,-0.05,-0.135
01:16:24.312:1,-0.055,-0.11
01:16:24.316:1,-0.03,-0.11
01:16:24.320:1,-0.03,-0.135
01:16:24.324:1,-0.04,-0.11
01:16:24.328:1,-0.06,-0.095
01:16:24.332:1,-0.04,-0.075
01:16:24.336:1,-0.04,-0.075
01:16:24.340:1,-0.025,-0.07
01:16:24.344:1,0.0,-0.08
01:16:24.348:1,0.0,-0.07
01:16:24.352:1,0.005,-0.08
01:16:24.356:1,0.005,-0.075
01:16:24.360:1,0.03,-0.1
01:16:24.364:1,0.03,-0.095
01:16:24.368:1,0.0,-0.07
01:16:24.372:1,0.015,-0.075
01:16:24.376:1,0.015,-0.045
01:16:24.380:1,0.015,-0.015
01:16:24.384:1,0.04,-0.005
01:16:24.388:1,0.025,0.03
01:16:24.392:1,0.05,0.05
01:16:24.396:1,0.055,0.1
01:16:24.400:1,0.055,0.105
01:16:24.404:1,0.07,0.115
01:16:24.408:1,0.06,0.15
01:16:24.412:1,0.065,0.175
01:16:24.416:1,0.065,0.165
01:16:24.420:1,0.065,0.145
01:16:24.424:1,0.07,0.13
01:16:24.428:1,0.06,0.135
01:16:24.432:1,0.045,0.135
01:16:24.436:1,0.045,0.145
01:16:24.440:1,0.04,0.13
01:16:24.444:1,0.045,0.11
01:16:24.448:1,0.02,0.07
01:16:24.452:1,0.035,0.065
01:16:24.456:1,0.02,0.055
01:16:24.460:1,0.015,0.02
01:16:24.464:1,0.035,0.005
01:16:24.468:1,-0.005,0.005
01:16:24.472:1,0.0,0.015
01:16:24.476:1,0.005,0.03
01:16:24.480:1,0.005,0.01
01:16:24.484:1,0.0,0.04
01:16:24.488:1,0.0,0.02
01:16:24.492:1,0.02,0.02
01:16:24.496:1,0.045,0.04
01:16:24.500:1,0.005,0.05
01:16:24.504:1,0.04,0.06
01:16:24.508:1,0.03,0.05
01:16:24.512:1,0.04,0.045
01:16:24.516:1,0.045,0.04
01:16:24.520:1,0.06,0.03
01:16:24.524:1,0.035,0.035
01:16:24.528:1,0.045,0.03
01:16:24.532:1,0.05,0.025
01:16:24.536:1,0.04,0.015
01:16:24.540:1,0.045,0.005
01:16:24.544:1,0.065,-0.025
01:16:24.548:1,0.055,-0.025
01:16:24.552:1,0.05,-0.03
01:16:24.556:1,0.055,-0.05
01:16:24.560:1,0.07,-0.045
01:16:24.564:1,0.05,-0.03
01:16:24.568:1,0.06,-0.03
01:16:24.572:1,0.065,0.02
01:16:24.576:1,0.07,0.05
01:16:24.580:1,0.07,0.075
01:16:24.584:1,0.095,0.065
01:16:24.588:1,0.07,0.075
01:16:24.592:1,0.065,0.055
01:16:24.596:1,0.04,0.025
01:16:24.600:1,0.035,0.02
01:16:24.604:1,0.035,0.05
01:16:24.608:1,0.035,0.02
01:16:24.612:1,0.01,-0.04
01:16:24.616:1,0.015,-0.05
01:16:24.620:1,-0.015,-0.045
01:16:24.624:1,-0.02,0.035
01:16:24.628:1,-0.005,0.205
01:16:24.632:1,0.02,0.405
01:16:24.636:1,0.055,0.595
01:16:24.640:1,0.105,0.685
01:16:24.644:1,0.2,0.72
01:16:24.648:1,0.285,0.64
01:16:24.652:1,0.315,0.3
01:16:24.656:1,0.32,-0.155
01:16:24.660:1,0.24,-0.43
01:16:24.664:1,0.035,-0.48
01:16:24.668:1,-0.16,-0.425
01:16:24.672:1,-0.285,-0.4
01:16:24.676:1,-0.33,-0.305
01:16:24.680:1,-0.305,-0.22
01:16:24.684:1,-0.26,-0.14
01:16:24.688:1,-0.185,-0.09
01:16:24.692:1,-0.095,-0.095
01:16:24.696:1,-0.04,-0.1
01:16:24.700:1,-0.01,-0.09
01:16:24.704:1,-0.015,-0.11
01:16:24.708:1,-0.04,-0.115
01:16:24.712:1,-0.02,-0.135
01:16:24.716:1,-0.04,-0.145
01:16:24.720:1,-0.01,-0.14
01:16:24.724:1,-0.04,-0.135
01:16:24.728:1,-0.03,-0.13
01:16:24.732:1,-0.035,-0.14
01:16:24.736:1,-0.04,-0.155
01:16:24.740:1,-0.04,-0.145
01:16:24.744:1,-0.035,-0.14
01:16:24.748:1,-0.035,-0.155
01:16:24.752:1,-0.025,-0.16
01:16:24.756:1,-0.02,-0.14
01:16:24.760:1,0.0,-0.16
01:16:24.764:1,0.005,-0.135
01:16:24.768:1,0.02,-0.12
01:16:24.772:1,0.01,-0.065
01:16:24.776:1,0.03,-0.06
01:16:24.780:1,0.025,-0.05
01:16:24.784:1,0.035,-0.03
01:16:24.788:1,0.03,-0.06
01:16:24.792:1,0.015,-0.085
01:16:24.796:1,0.01,-0.1
01:16:24.800:1,-0.01,-0.09
01:16:24.804:1,-0.025,-0.105
01:16:24.808:1,-0.03,-0.12
01:16:24.812:1,-0.055,-0.105
01:16:24.816:1,-0.055,-0.13
01:16:24.820:1,-0.04,-0.145
01:16:24.824:1,-0.06,-0.13
01:16:24.828:1,-0.065,-0.13
01:16:24.832:1,-0.055,-0.125
01:16:24.836:1,-0.04,-0.105
01:16:24.840:1,-0.065,-0.1
01:16:24.844:1,-0.06,-0.07
01:16:24.848:1,-0.045,-0.065
01:16:24.852:1,-0.04,-0.055
01:16:24.856:1,-0.025,-0.055
01:16:24.860:1,-0.02,-0.05
01:16:24.864:1,-0.03,-0.045
01:16:24.868:1,-0.02,-0.06
01:16:24.872:1,-0.015,-0.04
01:16:24.876:1,-0.02,-0.03
01:16:24.880:1,0.0,-0.01
01:16:24.884:1,0.005,-0.02
01:16:24.888:1,0.0,-0.02
01:16:24.892:1,0.0,0.005
01:16:24.896:1,0.005,0.02
01:16:24.900:1,0.01,0.035
01:16:24.904:1,0.025,0.045
01:16:24.908:1,0.03,0.055
01:16:24.912:1,0.03,0.065
01:16:24.916:1,0.035,0.065
01:16:24.920:1,0.045,0.095
01:16:24.924:1,0.065,0.065
01:16:24.928:1,0.07,0.055
01:16:24.932:1,0.06,0.055
01:16:24.936:1,0.065,0.055
01:16:24.940:1,0.11,0.065
01:16:24.944:1,0.08,0.075
01:16:24.948:1,0.075,0.135
01:16:24.952:1,0.075,0.15
01:16:24.956:1,0.09,0.17
01:16:24.960:1,0.1,0.18
01:16:24.964:1,0.075,0.17
01:16:24.968:1,0.08,0.135
01:16:24.972:1,0.075,0.135
01:16:24.976:1,0.065,0.105
01:16:24.980:1,0.075,0.07
01:16:24.984:1,0.02,0.07
01:16:24.988:1,0.0,0.045
01:16:24.992:1,0.005,0.045
01:16:24.996:1,-0.01,0.06
01:16:25.000:1,-0.005,0.045
01:16:25.004:1,0.0,0.045
01:16:25.008:1,0.0,0.05
01:16:25.012:1,0.0,0.06
01:16:25.016:1,-0.01,0.065
01:16:25.020:1,0.015,0.07
01:16:25.024:1,0.005,0.06
01:16:25.028:1,0.0,0.06
01:16:25.032:1,0.0,0.045
01:16:25.036:1,0.015,0.035
01:16:25.040:1,0.005,0.045
01:16:25.044:1,0.01,0.03
01:16:25.048:1,0.005,0.04
01:16:25.052:1,0.02,0.025
01:16:25.056:1,0.03,0.015
01:16:25.060:1,0.02,0.0
01:16:25.064:1,0.01,0.005
01:16:25.068:1,0.01,0.0
01:16:25.072:1,-0.005,0.01
01:16:25.076:1,-0.01,0.0
01:16:25.080:1,-0.015,0.005
01:16:25.084:1,-0.005,0.0
01:16:25.088:1,0.0,0.01
01:16:25.092:1,0.005,0.02
01:16:25.096:1,-0.015,0.0
01:16:25.100:1,-0.015,-0.005
01:16:25.104:1,0.0,0.02
01:16:25.108:1,0.005,0.025
01:16:25.112:1,0.0,0.02
01:16:25.116:1,0.015,-0.025
01:16:25.120:1,0.025,0.005
01:16:25.124:1,0.025,0.12
01:16:25.128:1,0.05,0.295
01:16:25.132:1,0.085,0.535
01:16:25.136:1,0.1,0.79
01:16:25.140:1,0.155,0.915
01:16:25.144:1,0.25,0.985
01:16:25.148:1,0.325,0.925
01:16:25.152:1,0.335,0.635
01:16:25.156:1,0.285,0.15
01:16:25.160:1,0.185,-0.175
01:16:25.164:1,0.02,-0.26
01:16:25.168:1,-0.195,-0.275
01:16:25.172:1,-0.315,-0.26
01:16:25.176:1,-0.34,-0.21
01:16:25.180:1,-0.335,-0.09
01:16:25.184:1,-0.31,0.0
01:16:25.188:1,-0.23,0.08
01:16:25.192:1,-0.165,0.075
01:16:25.196:1,-0.12,0.045
01:16:25.200:1,-0.08,0.02
01:16:25.204:1,-0.08,0.02
01:16:25.208:1,-0.075,0.03
01:16:25.212:1,-0.08,0.01
01:16:25.216:1,-0.07,0.015
01:16:25.220:1,-0.075,0.015
01:16:25.224:1,-0.085,0.01
01:16:25.228:1,-0.075,0.005
01:16:25.232:1,-0.085,0.005
01:16:25.236:1,-0.095,-0.015
01:16:25.240:1,-0.095,-0.015
01:16:25.244:1,-0.1,-0.01
01:16:25.248:1,-0.11,0.0
01:16:25.252:1,-0.115,-0.02
01:16:25.256:1,-0.115,-0.02
01:16:25.260:1,-0.13,-0.005
01:16:25.264:1,-0.115,-0.015
01:16:25.268:1,-0.1,-0.02
01:16:25.272:1,-0.11,-0.03
01:16:25.276:1,-0.125,-0.03
01:16:25.280:1,-0.115,-0.055
01:16:25.284:1,-0.095,-0.055
01:16:25.288:1,-0.13,-0.02
01:16:25.292:1,-0.135,0.03
01:16:25.296:1,-0.11,0.085
01:16:25.300:1,-0.095,0.095
01:16:25.304:1,-0.12,0.125
01:16:25.308:1,-0.11,0.16
01:16:25.312:1,-0.12,0.15
01:16:25.316:1,-0.125,0.15
01:16:25.320:1,-0.115,0.17
01:16:25.324:1,-0.115,0.16
01:16:25.328:1,-0.13,0.17
01:16:25.332:1,-0.125,0.15
01:16:25.336:1,-0.14,0.16
01:16:25.340:1,-0.135,0.175
01:16:25.344:1,-0.15,0.175
01:16:25.348:1,-0.145,0.175
01:16:25.352:1,-0.14,0.175
01:16:25.356:1,-0.135,0.175
01:16:25.360:1,-0.14,0.185
01:16:25.364:1,-0.145,0.23
01:16:25.368:1,-0.15,0.245
01:16:25.372:1,-0.155,0.245
01:16:25.376:1,-0.135,0.235
01:16:25.380:1,-0.135,0.26
01:16:25.384:1,-0.105,0.275
01:16:25.388:1,-0.12,0.265
01:16:25.392:1,-0.1,0.265
01:16:25.396:1,-0.115,0.265
01:16:25.400:1,-0.11,0.27
01:16:25.404:1,-0.1,0.275
01:16:25.408:1,-0.1,0.295
01:16:25.412:1,-0.105,0.28
01:16:25.416:1,-0.105,0.28
01:16:25.420:1,-0.09,0.28
01:16:25.424:1,-0.105,0.27
01:16:25.428:1,-0.105,0.25
01:16:25.432:1,-0.09,0.24
01:16:25.436:1,-0.09,0.25
01:16:25.440:1,-0.105,0.235
01:16:25.444:1,-0.11,0.255
01:16:25.448:1,-0.11,0.26
01:16:25.452:1,-0.13,0.28
01:16:25.456:1,-0.14,0.3
01:16:25.460:1,-0.14,0.31
01:16:25.464:1,-0.125,0.325
01:16:25.468:1,-0.14,0.33
01:16:25.472:1,-0.135,0.33
01:16:25.476:1,-0.14,0.355
01:16:25.480:1,-0.15,0.36
01:16:25.484:1,-0.14,0.355
01:16:25.488:1,-0.14,0.345
01:16:25.492:1,-0.135,0.35
01:16:25.496:1,-0.155,0.355
01:16:25.500:1,-0.14,0.355
01:16:25.504:1,-0.15,0.36
01:16:25.508:1,-0.155,0.355
01:16:25.512:1,-0.155,0.35
01:16:25.516:1,-0.16,0.35
01:16:25.520:1,-0.17,0.345
01:16:25.524:1,-0.16,0.335
01:16:25.528:1,-0.17,0.35
01:16:25.532:1,-0.185,0.365
01:16:25.536:1,-0.165,0.345
01:16:25.540:1,-0.175,0.35
01:16:25.544:1,-0.185,0.35
01:16:25.548:1,-0.175,0.34
01:16:25.552:1,-0.145,0.35
01:16:25.556:1,-0.18,0.335
01:16:25.560:1,-0.17,0.325
01:16:25.564:1,-0.16,0.315
01:16:25.568:1,-0.165,0.325
01:16:25.572:1,-0.16,0.335
01:16:25.576:1,-0.16,0.32
01:16:25.580:1,-0.155,0.315
01:16:25.584:1,-0.175,0.295
01:16:25.588:1,-0.175,0.28
01:16:25.592:1,-0.175,0.25
01:16:25.596:1,-0.19,0.245
01:16:25.600:1,-0.195,0.225
01:16:25.604:1,-0.205,0.225
01:16:25.608:1,-0.205,0.285
01:16:25.612:1,-0.19,0.315
01:16:25.616:1,-0.205,0.355
01:16:25.620:1,-0.18,0.365
01:16:25.624:1,-0.2,0.375
01:16:25.628:1,-0.21,0.365
01:16:25.632:1,-0.235,0.325
01:16:25.636:1,-0.23,0.295
01:16:25.640:1,-0.25,0.35
01:16:25.644:1,-0.24,0.475
01:16:25.648:1,-0.19,0.655
01:16:25.652:1,-0.185,0.87
01:16:25.656:1,-0.135,1.05
01:16:25.660:1,-0.07,1.11
01:16:25.664:1,0.005,1.095
01:16:25.668:1,0.035,0.93
01:16:25.672:1,0.01,0.495
01:16:25.676:1,-0.065,0.105
01:16:25.680:1,-0.24,-0.095
01:16:25.684:1,-0.445,-0.15
01:16:25.688:1,-0.55,-0.125
01:16:25.692:1,-0.575,-0.02
01:16:25.696:1,-0.59,0.085
01:16:25.700:1,-0.545,0.195
01:16:25.704:1,-0.465,0.275
01:16:25.708:1,-0.395,0.305
01:16:25.712:1,-0.345,0.28
01:16:25.716:1,-0.32,0.265
01:16:25.720:1,-0.305,0.26
01:16:25.724:1,-0.32,0.295
01:16:25.728:1,-0.295,0.275
01:16:25.732:1,-0.265,0.26
01:16:25.736:1,-0.27,0.27
01:16:25.740:1,-0.28,0.255
01:16:25.744:1,-0.28,0.255
01:16:25.748:1,-0.27,0.285
01:16:25.752:1,-0.27,0.28
01:16:25.756:1,-0.27,0.265
01:16:25.760:1,-0.275,0.255
01:16:25.764:1,-0.27,0.26
01:16:25.768:1,-0.27,0.255
01:16:25.772:1,-0.275,0.225
01:16:25.776:1,-0.28,0.2
01:16:25.780:1,-0.265,0.23
01:16:25.784:1,-0.275,0.295
01:16:25.788:1,-0.25,0.335
01:16:25.792:1,-0.24,0.365
01:16:25.796:1,-0.255,0.355
01:16:25.800:1,-0.24,0.36
01:16:25.804:1,-0.26,0.335
01:16:25.808:1,-0.265,0.35
01:16:25.812:1,-0.29,0.33
01:16:25.816:1,-0.3,0.33
01:16:25.820:1,-0.305,0.335
01:16:25.824:1,-0.305,0.325
01:16:25.828:1,-0.31,0.31
01:16:25.832:1,-0.315,0.3
01:16:25.836:1,-0.34,0.295
01:16:25.840:1,-0.34,0.28
01:16:25.844:1,-0.335,0.295
01:16:25.848:1,-0.32,0.295
01:16:25.852:1,-0.32,0.295
01:16:25.856:1,-0.325,0.285
01:16:25.860:1,-0.345,0.31
01:16:25.864:1,-0.305,0.31
01:16:25.868:1,-0.315,0.29
01:16:25.872:1,-0.33,0.31
01:16:25.876:1,-0.33,0.29
01:16:25.880:1,-0.315,0.305
01:16:25.884:1,-0.32,0.335
01:16:25.888:1,-0.315,0.35
01:16:25.892:1,-0.31,0.355
01:16:25.896:1,-0.295,0.37
01:16:25.900:1,-0.295,0.395
01:16:25.904:1,-0.275,0.43
01:16:25.908:1,-0.27,0.435
01:16:25.912:1,-0.27,0.46
01:16:25.916:1,-0.27,0.445
01:16:25.920:1,-0.245,0.45
01:16:25.924:1,-0.24,0.445
01:16:25.928:1,-0.225,0.455
01:16:25.932:1,-0.21,0.45
01:16:25.936:1,-0.205,0.435
01:16:25.940:1,-0.215,0.44
01:16:25.944:1,-0.23,0.44
01:16:25.948:1,-0.215,0.445
01:16:25.952:1,-0.22,0.49
01:16:25.956:1,-0.23,0.5
01:16:25.960:1,-0.23,0.49
01:16:25.964:1,-0.235,0.51
01:16:25.968:1,-0.24,0.5
01:16:25.972:1,-0.245,0.475
01:16:25.976:1,-0.235,0.475
01:16:25.980:1,-0.24,0.47
01:16:25.984:1,-0.265,0.45
01:16:25.988:1,-0.245,0.455
01:16:25.992:1,-0.25,0.435
01:16:25.996:1,-0.27,0.435
01:16:26.000:1,-0.255,0.435
01:16:26.004:1,-0.25,0.435
01:16:26.008:1,-0.275,0.425
01:16:26.012:1,-0.265,0.405
01:16:26.016:1,-0.26,0.39
01:16:26.020:1,-0.26,0.405
01:16:26.024:1,-0.255,0.385
01:16:26.028:1,-0.27,0.375
01:16:26.032:1,-0.275,0.37
01:16:26.036:1,-0.28,0.38
01:16:26.040:1,-0.275,0.375
01:16:26.044:1,-0.275,0.36
01:16:26.048:1,-0.285,0.345
01:16:26.052:1,-0.275,0.34
01:16:26.056:1,-0.26,0.35
01:16:26.060:1,-0.285,0.355
01:16:26.064:1,-0.26,0.335
01:16:26.068:1,-0.28,0.325
01:16:26.072:1,-0.285,0.33
01:16:26.076:1,-0.28,0.36
01:16:26.080:1,-0.285,0.37
01:16:26.084:1,-0.275,0.355
01:16:26.088:1,-0.28,0.335
01:16:26.092:1,-0.275,0.32
01:16:26.096:1,-0.265,0.3
01:16:26.100:1,-0.27,0.295
01:16:26.104:1,-0.26,0.315
01:16:26.108:1,-0.25,0.375
01:16:26.112:1,-0.235,0.4
01:16:26.116:1,-0.245,0.415
01:16:26.120:1,-0.25,0.41
01:16:26.124:1,-0.25,0.375
01:16:26.128:1,-0.245,0.39
01:16:26.132:1,-0.285,0.38
01:16:26.136:1,-0.265,0.38
01:16:26.140:1,-0.28,0.36
01:16:26.144:1,-0.305,0.365
01:16:26.148:1,-0.29,0.365
01:16:26.152:1,-0.29,0.37
01:16:26.156:1,-0.305,0.355
01:16:26.160:1,-0.3,0.365
01:16:26.164:1,-0.29,0.335
01:16:26.168:1,-0.295,0.355
01:16:26.172:1,-0.295,0.375
01:16:26.176:1,-0.3,0.375
01:16:26.180:1,-0.29,0.37
01:16:26.184:1,-0.295,0.365
01:16:26.188:1,-0.295,0.345
01:16:26.192:1,-0.28,0.335
01:16:26.196:1,-0.28,0.33
01:16:26.200:1,-0.29,0.335
01:16:26.204:1,-0.29,0.32
01:16:26.208:1,-0.29,0.34
01:16:26.212:1,-0.29,0.305
01:16:26.216:1,-0.29,0.29
01:16:26.220:1,-0.28,0.29
01:16:26.224:1,-0.28,0.29
01:16:26.228:1,-0.29,0.305
01:16:26.232:1,-0.285,0.295
01:16:26.236:1,-0.275,0.29
01:16:26.240:1,-0.285,0.3
01:16:26.244:1,-0.28,0.33
01:16:26.248:1,-0.27,0.335
01:16:26.252:1,-0.27,0.275
01:16:26.256:1,-0.275,0.29
01:16:26.260:1,-0.26,0.38
01:16:26.264:1,-0.23,0.54
01:16:26.268:1,-0.18,0.795
01:16:26.272:1,-0.125,1.095
01:16:26.276:1,-0.06,1.29
01:16:26.280:1,0.04,1.365
01:16:26.284:1,0.14,1.34
01:16:26.288:1,0.155,1.055
01:16:26.292:1,0.135,0.555
01:16:26.296:1,0.035,0.12
01:16:26.300:1,-0.14,-0.105
01:16:26.304:1,-0.345,-0.16
01:16:26.308:1,-0.5,-0.13
01:16:26.312:1,-0.575,-0.025
01:16:26.316:1,-0.575,0.085
01:16:26.320:1,-0.535,0.185
01:16:26.324:1,-0.47,0.275
01:16:26.328:1,-0.385,0.305
01:16:26.332:1,-0.335,0.285
01:16:26.336:1,-0.305,0.26
01:16:26.340:1,-0.295,0.24
01:16:26.344:1,-0.295,0.24
01:16:26.348:1,-0.295,0.22
01:16:26.352:1,-0.31,0.195
01:16:26.356:1,-0.3,0.185
01:16:26.360:1,-0.305,0.19
01:16:26.364:1,-0.31,0.19
01:16:26.368:1,-0.315,0.175
01:16:26.372:1,-0.295,0.165
01:16:26.376:1,-0.305,0.16
01:16:26.380:1,-0.305,0.155
01:16:26.384:1,-0.3,0.165
01:16:26.388:1,-0.29,0.155
01:16:26.392:1,-0.3,0.16
01:16:26.396:1,-0.305,0.135
01:16:26.400:1,-0.305,0.17
01:16:26.404:1,-0.285,0.17
01:16:26.408:1,-0.27,0.17
01:16:26.412:1,-0.265,0.17
01:16:26.416:1,-0.285,0.18
01:16:26.420:1,-0.26,0.205
01:16:26.424:1,-0.265,0.185
01:16:26.428:1,-0.245,0.145
01:16:26.432:1,-0.245,0.16
01:16:26.436:1,-0.26,0.12
01:16:26.440:1,-0.255,0.15
01:16:26.444:1,-0.24,0.165
01:16:26.448:1,-0.24,0.18
01:16:26.452:1,-0.215,0.21
01:16:26.456:1,-0.22,0.245
01:16:26.460:1,-0.215,0.25
01:16:26.464:1,-0.23,0.24
01:16:26.468:1,-0.225,0.24
01:16:26.472:1,-0.24,0.25
01:16:26.476:1,-0.245,0.21
01:16:26.480:1,-0.245,0.235
01:16:26.484:1,-0.24,0.235
01:16:26.488:1,-0.245,0.225
01:16:26.492:1,-0.255,0.245
01:16:26.496:1,-0.265,0.265
01:16:26.500:1,-0.255,0.265
01:16:26.504:1,-0.275,0.28
01:16:26.508:1,-0.25,0.27
01:16:26.512:1,-0.26,0.28
01:16:26.516:1,-0.245,0.28
01:16:26.520:1,-0.24,0.285
01:16:26.524:1,-0.245,0.275
01:16:26.528:1,-0.245,0.305
01:16:26.532:1,-0.23,0.31
01:16:26.536:1,-0.23,0.335
01:16:26.540:1,-0.225,0.355
01:16:26.544:1,-0.22,0.365
01:16:26.548:1,-0.195,0.36
01:16:26.552:1,-0.2,0.36
01:16:26.556:1,-0.21,0.36
01:16:26.560:1,-0.19,0.355
01:16:26.564:1,-0.2,0.35
01:16:26.568:1,-0.195,0.315
01:16:26.572:1,-0.17,0.28
01:16:26.576:1,-0.18,0.285
01:16:26.580:1,-0.185,0.275
01:16:26.584:1,-0.2,0.255
01:16:26.588:1,-0.18,0.225
01:16:26.592:1,-0.21,0.215
01:16:26.596:1,-0.16,0.205
01:16:26.600:1,-0.165,0.22
01:16:26.604:1,-0.185,0.225
01:16:26.608:1,-0.19,0.25
01:16:26.612:1,-0.19,0.3
01:16:26.616:1,-0.19,0.33
01:16:26.620:1,-0.175,0.355
01:16:26.624:1,-0.16,0.335
01:16:26.628:1,-0.15,0.335
01:16:26.632:1,-0.16,0.345
01:16:26.636:1,-0.185,0.325
01:16:26.640:1,-0.17,0.305
01:16:26.644:1,-0.185,0.295
01:16:26.648:1,-0.205,0.305
01:16:26.652:1,-0.18,0.29
01:16:26.656:1,-0.175,0.275
01:16:26.660:1,-0.195,0.215
01:16:26.664:1,-0.2,0.2
01:16:26.668:1,-0.165,0.195
01:16:26.672:1,-0.185,0.19
01:16:26.676:1,-0.205,0.185
01:16:26.680:1,-0.225,0.18
01:16:26.684:1,-0.195,0.16
01:16:26.688:1,-0.205,0.17
01:16:26.692:1,-0.215,0.165
01:16:26.696:1,-0.2,0.145
01:16:26.700:1,-0.205,0.135
01:16:26.704:1,-0.2,0.145
01:16:26.708:1,-0.21,0.125
01:16:26.712:1,-0.2,0.125
01:16:26.716:1,-0.195,0.115
01:16:26.720:1,-0.22,0.115
01:16:26.724:1,-0.185,0.105
01:16:26.728:1,-0.185,0.105
01:16:26.732:1,-0.21,0.115
01:16:26.736:1,-0.21,0.115
01:16:26.740:1,-0.18,0.09
01:16:26.744:1,-0.18,0.065
01:16:26.748:1,-0.17,0.025
01:16:26.752:1,-0.185,0.0
01:16:26.756:1,-0.185,0.0
01:16:26.760:1,-0.185,0.135
01:16:26.764:1,-0.17,0.315
01:16:26.768:1,-0.135,0.52
01:16:26.772:1,-0.105,0.74
01:16:26.776:1,-0.035,0.875
01:16:26.780:1,0.035,0.89
01:16:26.784:1,0.12,0.84
01:16:26.788:1,0.17,0.6
01:16:26.792:1,0.175,0.145
01:16:26.796:1,0.095,-0.18
01:16:26.800:1,-0.08,-0.305
01:16:26.804:1,-0.305,-0.3
01:16:26.808:1,-0.41,-0.295
01:16:26.812:1,-0.465,-0.235
01:16:26.816:1,-0.48,-0.11
01:16:26.820:1,-0.475,-0.025
01:16:26.824:1,-0.42,0.065
01:16:26.828:1,-0.335,0.085
01:16:26.832:1,-0.295,0.065
01:16:26.836:1,-0.245,0.02
01:16:26.840:1,-0.23,0.03
01:16:26.844:1,-0.24,0.01
01:16:26.848:1,-0.23,0.015
01:16:26.852:1,-0.225,-0.015
01:16:26.856:1,-0.24,-0.02
01:16:26.860:1,-0.235,-0.045
01:16:26.864:1,-0.22,-0.07
01:16:26.868:1,-0.235,-0.075
01:16:26.872:1,-0.24,-0.085
01:16:26.876:1,-0.23,-0.095
01:16:26.880:1,-0.23,-0.08
01:16:26.884:1,-0.235,-0.09
01:16:26.888:1,-0.235,-0.095
01:16:26.892:1,-0.235,-0.09
01:16:26.896:1,-0.26,-0.095
01:16:26.900:1,-0.23,-0.115
01:16:26.904:1,-0.23,-0.115
01:16:26.908:1,-0.225,-0.11
01:16:26.912:1,-0.255,-0.115
01:16:26.916:1,-0.225,-0.105
01:16:26.920:1,-0.23,-0.095
01:16:26.924:1,-0.235,-0.11
01:16:26.928:1,-0.235,-0.11
01:16:26.932:1,-0.24,-0.105
01:16:26.936:1,-0.23,-0.13
