Time,ECG1,ECG2
01:27:50.144:1,0.175,-0.255
01:27:50.148:1,0.175,-0.165
01:27:50.152:1,0.18,0.0
01:27:50.156:1,0.215,0.235
01:27:50.160:1,0.26,0.495
01:27:50.164:1,0.315,0.695
01:27:50.168:1,0.42,0.745
01:27:50.172:1,0.525,0.66
01:27:50.176:1,0.6,0.32
01:27:50.180:1,0.545,-0.18
01:27:50.184:1,0.46,-0.555
01:27:50.188:1,0.275,-0.7
01:27:50.192:1,0.055,-0.7
01:27:50.196:1,-0.11,-0.63
01:27:50.200:1,-0.125,-0.48
01:27:50.204:1,-0.11,-0.335
01:27:50.208:1,-0.045,-0.2
01:27:50.212:1,0.07,-0.17
01:27:50.216:1,0.155,-0.16
01:27:50.220:1,0.2,-0.17
01:27:50.224:1,0.195,-0.2
01:27:50.228:1,0.205,-0.19
01:27:50.232:1,0.195,-0.21
01:27:50.236:1,0.17,-0.21
01:27:50.240:1,0.175,-0.215
01:27:50.244:1,0.175,-0.23
01:27:50.248:1,0.15,-0.235
01:27:50.252:1,0.16,-0.245
01:27:50.256:1,0.155,-0.26
01:27:50.260:1,0.16,-0.25
01:27:50.264:1,0.155,-0.25
01:27:50.268:1,0.135,-0.265
01:27:50.272:1,0.145,-0.275
01:27:50.276:1,0.155,-0.26
01:27:50.280:1,0.14,-0.27
01:27:50.284:1,0.125,-0.28
01:27:50.288:1,0.14,-0.28
01:27:50.292:1,0.145,-0.295
01:27:50.296:1,0.14,-0.285
01:27:50.300:1,0.13,-0.295
01:27:50.304:1,0.125,-0.29
01:27:50.308:1,0.115,-0.295
01:27:50.312:1,0.13,-0.305
01:27:50.316:1,0.15,-0.295
01:27:50.320:1,0.135,-0.305
01:27:50.324:1,0.13,-0.305
01:27:50.328:1,0.125,-0.315
01:27:50.332:1,0.125,-0.33
01:27:50.336:1,0.12,-0.335
01:27:50.340:1,0.125,-0.34
01:27:50.344:1,0.115,-0.325
01:27:50.348:1,0.115,-0.31
01:27:50.352:1,0.12,-0.305
01:27:50.356:1,0.13,-0.24
01:27:50.360:1,0.145,-0.205
01:27:50.364:1,0.155,-0.17
01:27:50.368:1,0.18,-0.14
01:27:50.372:1,0.14,-0.145
01:27:50.376:1,0.14,-0.13
01:27:50.380:1,0.145,-0.105
01:27:50.384:1,0.145,-0.085
01:27:50.388:1,0.17,-0.085
01:27:50.392:1,0.19,-0.095
01:27:50.396:1,0.215,-0.105
01:27:50.400:1,0.19,-0.115
01:27:50.404:1,0.22,-0.12
01:27:50.408:1,0.21,-0.125
01:27:50.412:1,0.195,-0.125
01:27:50.416:1,0.18,-0.1
01:27:50.420:1,0.2,-0.105
01:27:50.424:1,0.195,-0.07
01:27:50.428:1,0.185,-0.095
01:27:50.432:1,0.205,-0.095
01:27:50.436:1,0.19,-0.09
01:27:50.440:1,0.215,-0.09
01:27:50.444:1,0.205,-0.085
01:27:50.448:1,0.215,-0.1
01:27:50.452:1,0.205,-0.115
01:27:50.456:1,0.215,-0.125
01:27:50.460:1,0.225,-0.145
01:27:50.464:1,0.215,-0.155
01:27:50.468:1,0.21,-0.165
01:27:50.472:1,0.2,-0.175
01:27:50.476:1,0.195,-0.165
01:27:50.480:1,0.195,-0.19
01:27:50.484:1,0.185,-0.195
01:27:50.488:1,0.18,-0.2
01:27:50.492:1,0.17,-0.2
01:27:50.496:1,0.175,-0.2
01:27:50.500:1,0.175,-0.205
01:27:50.504:1,0.155,-0.19
01:27:50.508:1,0.175,-0.205
01:27:50.512:1,0.175,-0.205
01:27:50.516:1,0.17,-0.21
01:27:50.520:1,0.16,-0.175
01:27:50.524:1,0.175,-0.2
01:27:50.528:1,0.175,-0.21
01:27:50.532:1,0.16,-0.2
01:27:50.536:1,0.17,-0.205
01:27:50.540:1,0.175,-0.2
01:27:50.544:1,0.155,-0.205
01:27:50.548:1,0.15,-0.215
01:27:50.552:1,0.165,-0.22
01:27:50.556:1,0.17,-0.215
01:27:50.560:1,0.155,-0.23
01:27:50.564:1,0.17,-0.245
01:27:50.568:1,0.19,-0.235
01:27:50.572:1,0.175,-0.19
01:27:50.576:1,0.19,-0.17
01:27:50.580:1,0.195,-0.125
01:27:50.584:1,0.16,-0.12
01:27:50.588:1,0.135,-0.15
01:27:50.592:1,0.115,-0.18
01:27:50.596:1,0.09,-0.14
01:27:50.600:1,0.09,-0.15
01:27:50.604:1,0.095,-0.16
01:27:50.608:1,0.1,-0.165
01:27:50.612:1,0.13,-0.175
01:27:50.616:1,0.15,-0.2
01:27:50.620:1,0.16,-0.22
01:27:50.624:1,0.14,-0.245
01:27:50.628:1,0.13,-0.265
01:27:50.632:1,0.125,-0.275
01:27:50.636:1,0.11,-0.285
01:27:50.640:1,0.12,-0.26
01:27:50.644:1,0.095,-0.255
01:27:50.648:1,0.09,-0.285
01:27:50.652:1,0.095,-0.315
01:27:50.656:1,0.095,-0.26
01:27:50.660:1,0.075,-0.12
01:27:50.664:1,0.13,0.065
01:27:50.668:1,0.165,0.29
01:27:50.672:1,0.205,0.495
01:27:50.676:1,0.305,0.56
01:27:50.680:1,0.38,0.54
01:27:50.684:1,0.44,0.425
01:27:50.688:1,0.475,0.04
01:27:50.692:1,0.43,-0.43
01:27:50.696:1,0.33,-0.715
01:27:50.700:1,0.095,-0.745
01:27:50.704:1,-0.135,-0.71
01:27:50.708:1,-0.28,-0.65
01:27:50.712:1,-0.295,-0.57
01:27:50.716:1,-0.3,-0.44
01:27:50.720:1,-0.245,-0.345
01:27:50.724:1,-0.155,-0.3
01:27:50.728:1,-0.05,-0.305
01:27:50.732:1,0.0,-0.325
01:27:50.736:1,0.005,-0.33
01:27:50.740:1,0.01,-0.32
01:27:50.744:1,0.02,-0.335
01:27:50.748:1,0.02,-0.335
01:27:50.752:1,0.03,-0.335
01:27:50.756:1,0.025,-0.325
01:27:50.760:1,0.04,-0.315
01:27:50.764:1,0.01,-0.32
01:27:50.768:1,0.03,-0.335
01:27:50.772:1,0.02,-0.325
01:27:50.776:1,0.045,-0.335
01:27:50.780:1,0.02,-0.325
01:27:50.784:1,0.03,-0.335
01:27:50.788:1,0.04,-0.335
01:27:50.792:1,0.035,-0.335
01:27:50.796:1,0.015,-0.34
01:27:50.800:1,0.02,-0.34
01:27:50.804:1,0.02,-0.355
01:27:50.808:1,0.02,-0.34
01:27:50.812:1,0.025,-0.33
01:27:50.816:1,0.045,-0.325
01:27:50.820:1,0.025,-0.295
01:27:50.824:1,0.03,-0.315
01:27:50.828:1,0.02,-0.32
01:27:50.832:1,0.025,-0.34
01:27:50.836:1,0.015,-0.33
01:27:50.840:1,0.02,-0.335
01:27:50.844:1,0.005,-0.35
01:27:50.848:1,0.01,-0.335
01:27:50.852:1,0.005,-0.315
01:27:50.856:1,0.005,-0.31
01:27:50.860:1,0.0,-0.305
01:27:50.864:1,0.005,-0.315
01:27:50.868:1,0.01,-0.315
01:27:50.872:1,0.015,-0.31
01:27:50.876:1,-0.005,-0.3
01:27:50.880:1,0.0,-0.29
01:27:50.884:1,0.01,-0.28
01:27:50.888:1,0.02,-0.29
01:27:50.892:1,0.0,-0.28
01:27:50.896:1,0.015,-0.265
01:27:50.900:1,0.0,-0.25
01:27:50.904:1,-0.005,-0.26
01:27:50.908:1,0.015,-0.25
01:27:50.912:1,0.015,-0.21
01:27:50.916:1,-0.005,-0.19
01:27:50.920:1,0.015,-0.205
01:27:50.924:1,0.02,-0.165
01:27:50.928:1,0.01,-0.16
01:27:50.932:1,0.03,-0.13
01:27:50.936:1,0.03,-0.125
01:27:50.940:1,0.035,-0.125
01:27:50.944:1,0.06,-0.12
01:27:50.948:1,0.045,-0.11
01:27:50.952:1,0.06,-0.1
01:27:50.956:1,0.055,-0.1
01:27:50.960:1,0.065,-0.115
01:27:50.964:1,0.07,-0.135
01:27:50.968:1,0.075,-0.135
01:27:50.972:1,0.065,-0.14
01:27:50.976:1,0.075,-0.15
01:27:50.980:1,0.08,-0.15
01:27:50.984:1,0.055,-0.17
01:27:50.988:1,0.06,-0.18
01:27:50.992:1,0.06,-0.18
01:27:50.996:1,0.065,-0.16
01:27:51.000:1,0.045,-0.175
01:27:51.004:1,0.055,-0.175
01:27:51.008:1,0.04,-0.18
01:27:51.012:1,0.055,-0.185
01:27:51.016:1,0.065,-0.185
01:27:51.020:1,0.045,-0.17
01:27:51.024:1,0.04,-0.175
01:27:51.028:1,0.05,-0.18
01:27:51.032:1,0.06,-0.175
01:27:51.036:1,0.04,-0.175
01:27:51.040:1,0.05,-0.19
01:27:51.044:1,0.055,-0.195
01:27:51.048:1,0.045,-0.175
01:27:51.052:1,0.04,-0.18
01:27:51.056:1,0.06,-0.185
01:27:51.060:1,0.04,-0.185
01:27:51.064:1,0.035,-0.185
01:27:51.068:1,0.025,-0.195
01:27:51.072:1,0.04,-0.19
01:27:51.076:1,0.04,-0.18
01:27:51.080:1,0.03,-0.195
01:27:51.084:1,0.03,-0.2
01:27:51.088:1,0.04,-0.2
01:27:51.092:1,0.02,-0.205
01:27:51.096:1,0.035,-0.205
01:27:51.100:1,0.03,-0.18
01:27:51.104:1,0.03,-0.2
01:27:51.108:1,0.04,-0.21
01:27:51.112:1,0.05,-0.215
01:27:51.116:1,0.03,-0.215
01:27:51.120:1,0.025,-0.215
01:27:51.124:1,0.03,-0.215
01:27:51.128:1,0.015,-0.21
01:27:51.132:1,0.005,-0.195
01:27:51.136:1,0.015,-0.21
01:27:51.140:1,0.005,-0.225
01:27:51.144:1,0.015,-0.22
01:27:51.148:1,0.005,-0.21
01:27:51.152:1,0.01,-0.225
01:27:51.156:1,0.005,-0.225
01:27:51.160:1,0.005,-0.21
01:27:51.164:1,0.0,-0.215
01:27:51.168:1,0.005,-0.235
01:27:51.172:1,0.0,-0.21
01:27:51.176:1,0.0,-0.225
01:27:51.180:1,-0.005,-0.23
01:27:51.184:1,0.0,-0.24
01:27:51.188:1,-0.005,-0.23
01:27:51.192:1,-0.005,-0.215
01:27:51.196:1,-0.01,-0.22
01:27:51.200:1,0.0,-0.22
01:27:51.204:1,0.005,-0.24
01:27:51.208:1,0.0,-0.225
01:27:51.212:1,-0.015,-0.225
01:27:51.216:1,-0.005,-0.225
01:27:51.220:1,-0.015,-0.23
01:27:51.224:1,-0.025,-0.24
01:27:51.228:1,-0.015,-0.24
01:27:51.232:1,-0.025,-0.23
01:27:51.236:1,-0.02,-0.235
01:27:51.240:1,-0.045,-0.235
01:27:51.244:1,-0.035,-0.235
01:27:51.248:1,-0.015,-0.24
01:27:51.252:1,-0.03,-0.215
01:27:51.256:1,-0.035,-0.23
01:27:51.260:1,-0.04,-0.24
01:27:51.264:1,-0.015,-0.24
01:27:51.268:1,-0.04,-0.23
01:27:51.272:1,-0.04,-0.235
01:27:51.276:1,-0.055,-0.24
01:27:51.280:1,-0.05,-0.245
01:27:51.284:1,-0.055,-0.23
01:27:51.288:1,-0.07,-0.24
01:27:51.292:1,-0.03,-0.23
01:27:51.296:1,-0.045,-0.24
01:27:51.300:1,-0.06,-0.255
01:27:51.304:1,-0.06,-0.23
01:27:51.308:1,-0.07,-0.235
01:27:51.312:1,-0.065,-0.245
01:27:51.316:1,-0.055,-0.24
01:27:51.320:1,-0.075,-0.245
01:27:51.324:1,-0.07,-0.255
01:27:51.328:1,-0.07,-0.235
01:27:51.332:1,-0.075,-0.235
01:27:51.336:1,-0.075,-0.24
01:27:51.340:1,-0.08,-0.26
01:27:51.344:1,-0.08,-0.25
01:27:51.348:1,-0.075,-0.24
01:27:51.352:1,-0.1,-0.235
01:27:51.356:1,-0.09,-0.26
01:27:51.360:1,-0.1,-0.26
01:27:51.364:1,-0.075,-0.255
01:27:51.368:1,-0.09,-0.255
01:27:51.372:1,-0.1,-0.25
01:27:51.376:1,-0.085,-0.26
01:27:51.380:1,-0.105,-0.26
01:27:51.384:1,-0.12,-0.27
01:27:51.388:1,-0.11,-0.255
01:27:51.392:1,-0.13,-0.25
01:27:51.396:1,-0.095,-0.255
01:27:51.400:1,-0.115,-0.265
01:27:51.404:1,-0.105,-0.265
01:27:51.408:1,-0.115,-0.27
01:27:51.412:1,-0.115,-0.26
01:27:51.416:1,-0.12,-0.27
01:27:51.420:1,-0.12,-0.275
01:27:51.424:1,-0.13,-0.28
01:27:51.428:1,-0.14,-0.26
01:27:51.432:1,-0.125,-0.265
01:27:51.436:1,-0.13,-0.275
01:27:51.440:1,-0.13,-0.28
01:27:51.444:1,-0.12,-0.28
01:27:51.448:1,-0.15,-0.255
01:27:51.452:1,-0.13,-0.26
01:27:51.456:1,-0.13,-0.27
01:27:51.460:1,-0.155,-0.27
01:27:51.464:1,-0.16,-0.285
01:27:51.468:1,-0.15,-0.28
01:27:51.472:1,-0.145,-0.275
01:27:51.476:1,-0.16,-0.28
01:27:51.480:1,-0.16,-0.305
01:27:51.484:1,-0.155,-0.28
01:27:51.488:1,-0.155,-0.29
01:27:51.492:1,-0.165,-0.29
01:27:51.496:1,-0.175,-0.3
01:27:51.500:1,-0.185,-0.295
01:27:51.504:1,-0.18,-0.29
01:27:51.508:1,-0.18,-0.295
01:27:51.512:1,-0.18,-0.29
01:27:51.516:1,-0.18,-0.31
01:27:51.520:1,-0.175,-0.3
01:27:51.524:1,-0.18,-0.29
01:27:51.528:1,-0.205,-0.29
01:27:51.532:1,-0.21,-0.29
01:27:51.536:1,-0.195,-0.29
01:27:51.540:1,-0.205,-0.3
01:27:51.544:1,-0.22,-0.295
01:27:51.548:1,-0.215,-0.3
01:27:51.552:1,-0.225,-0.29
01:27:51.556:1,-0.22,-0.3
01:27:51.560:1,-0.225,-0.305
01:27:51.564:1,-0.21,-0.305
01:27:51.568:1,-0.225,-0.295
01:27:51.572:1,-0.235,-0.3
01:27:51.576:1,-0.24,-0.325
01:27:51.580:1,-0.24,-0.315
01:27:51.584:1,-0.235,-0.31
01:27:51.588:1,-0.23,-0.305
01:27:51.592:1,-0.235,-0.295
01:27:51.596:1,-0.245,-0.295
01:27:51.600:1,-0.26,-0.285
01:27:51.604:1,-0.255,-0.275
01:27:51.608:1,-0.255,-0.24
01:27:51.612:1,-0.24,-0.265
01:27:51.616:1,-0.235,-0.27
01:27:51.620:1,-0.24,-0.23
01:27:51.624:1,-0.245,-0.215
01:27:51.628:1,-0.24,-0.255
01:27:51.632:1,-0.245,-0.285
01:27:51.636:1,-0.28,-0.3
01:27:51.640:1,-0.315,-0.315
01:27:51.644:1,-0.335,-0.335
01:27:51.648:1,-0.34,-0.335
01:27:51.652:1,-0.33,-0.335
01:27:51.656:1,-0.355,-0.34
01:27:51.660:1,-0.375,-0.32
01:27:51.664:1,-0.365,-0.32
01:27:51.668:1,-0.355,-0.325
01:27:51.672:1,-0.35,-0.36
01:27:51.676:1,-0.345,-0.36
01:27:51.680:1,-0.34,-0.365
01:27:51.684:1,-0.32,-0.375
01:27:51.688:1,-0.34,-0.4
01:27:51.692:1,-0.345,-0.405
01:27:51.696:1,-0.35,-0.42
01:27:51.700:1,-0.355,-0.43
01:27:51.704:1,-0.39,-0.415
01:27:51.708:1,-0.39,-0.42
01:27:51.712:1,-0.38,-0.44
01:27:51.716:1,-0.385,-0.43
01:27:51.720:1,-0.395,-0.42
01:27:51.724:1,-0.395,-0.415
01:27:51.728:1,-0.4,-0.42
01:27:51.732:1,-0.375,-0.41
01:27:51.736:1,-0.405,-0.425
01:27:51.740:1,-0.395,-0.435
01:27:51.744:1,-0.4,-0.44
01:27:51.748:1,-0.41,-0.425
01:27:51.752:1,-0.415,-0.355
01:27:51.756:1,-0.395,-0.205
01:27:51.760:1,-0.39,0.03
01:27:51.764:1,-0.35,0.255
01:27:51.768:1,-0.28,0.4
01:27:51.772:1,-0.185,0.48
01:27:51.776:1,-0.115,0.47
01:27:51.780:1,-0.08,0.325
01:27:51.784:1,-0.075,-0.115
01:27:51.788:1,-0.09,-0.535
01:27:51.792:1,-0.235,-0.76
01:27:51.796:1,-0.445,-0.84
01:27:51.800:1,-0.63,-0.825
01:27:51.804:1,-0.74,-0.755
01:27:51.808:1,-0.76,-0.66
01:27:51.812:1,-0.735,-0.59
01:27:51.816:1,-0.715,-0.505
01:27:51.820:1,-0.62,-0.455
01:27:51.824:1,-0.55,-0.435
01:27:51.828:1,-0.505,-0.445
01:27:51.832:1,-0.46,-0.455
01:27:51.836:1,-0.455,-0.44
01:27:51.840:1,-0.46,-0.44
01:27:51.844:1,-0.49,-0.43
01:27:51.848:1,-0.48,-0.44
01:27:51.852:1,-0.475,-0.44
01:27:51.856:1,-0.485,-0.435
01:27:51.860:1,-0.465,-0.435
01:27:51.864:1,-0.495,-0.43
01:27:51.868:1,-0.49,-0.425
01:27:51.872:1,-0.515,-0.435
01:27:51.876:1,-0.495,-0.435
01:27:51.880:1,-0.51,-0.425
01:27:51.884:1,-0.52,-0.41
01:27:51.888:1,-0.5,-0.44
01:27:51.892:1,-0.52,-0.425
01:27:51.896:1,-0.53,-0.425
01:27:51.900:1,-0.52,-0.42
01:27:51.904:1,-0.52,-0.425
01:27:51.908:1,-0.515,-0.41
01:27:51.912:1,-0.535,-0.42
01:27:51.916:1,-0.535,-0.42
01:27:51.920:1,-0.545,-0.41
01:27:51.924:1,-0.53,-0.41
01:27:51.928:1,-0.54,-0.425
01:27:51.932:1,-0.545,-0.42
01:27:51.936:1,-0.545,-0.405
01:27:51.940:1,-0.52,-0.405
01:27:51.944:1,-0.535,-0.4
01:27:51.948:1,-0.545,-0.385
01:27:51.952:1,-0.555,-0.395
01:27:51.956:1,-0.56,-0.4
01:27:51.960:1,-0.57,-0.39
01:27:51.964:1,-0.575,-0.38
01:27:51.968:1,-0.585,-0.405
01:27:51.972:1,-0.555,-0.4
01:27:51.976:1,-0.56,-0.385
01:27:51.980:1,-0.555,-0.375
01:27:51.984:1,-0.565,-0.385
01:27:51.988:1,-0.565,-0.36
01:27:51.992:1,-0.575,-0.365
01:27:51.996:1,-0.55,-0.385
01:27:52.000:1,-0.57,-0.365
01:27:52.004:1,-0.57,-0.375
01:27:52.008:1,-0.58,-0.36
01:27:52.012:1,-0.57,-0.37
01:27:52.016:1,-0.58,-0.32
01:27:52.020:1,-0.595,-0.34
01:27:52.024:1,-0.59,-0.345
01:27:52.028:1,-0.59,-0.325
01:27:52.032:1,-0.61,-0.33
01:27:52.036:1,-0.605,-0.315
01:27:52.040:1,-0.6,-0.305
01:27:52.044:1,-0.615,-0.285
01:27:52.048:1,-0.62,-0.29
01:27:52.052:1,-0.605,-0.27
01:27:52.056:1,-0.61,-0.25
01:27:52.060:1,-0.6,-0.22
01:27:52.064:1,-0.605,-0.235
01:27:52.068:1,-0.59,-0.235
01:27:52.072:1,-0.59,-0.215
01:27:52.076:1,-0.56,-0.205
01:27:52.080:1,-0.575,-0.2
01:27:52.084:1,-0.56,-0.19
01:27:52.088:1,-0.585,-0.2
01:27:52.092:1,-0.565,-0.205
01:27:52.096:1,-0.58,-0.195
01:27:52.100:1,-0.565,-0.21
01:27:52.104:1,-0.555,-0.225
01:27:52.108:1,-0.57,-0.23
01:27:52.112:1,-0.575,-0.235
01:27:52.116:1,-0.58,-0.23
01:27:52.120:1,-0.56,-0.225
01:27:52.124:1,-0.57,-0.235
01:27:52.128:1,-0.58,-0.235
01:27:52.132:1,-0.57,-0.24
01:27:52.136:1,-0.555,-0.23
01:27:52.140:1,-0.575,-0.235
01:27:52.144:1,-0.58,-0.24
01:27:52.148:1,-0.565,-0.24
01:27:52.152:1,-0.595,-0.23
01:27:52.156:1,-0.58,-0.22
01:27:52.160:1,-0.575,-0.215
01:27:52.164:1,-0.575,-0.215
01:27:52.168:1,-0.585,-0.22
01:27:52.172:1,-0.575,-0.225
01:27:52.176:1,-0.58,-0.205
01:27:52.180:1,-0.585,-0.21
01:27:52.184:1,-0.595,-0.22
01:27:52.188:1,-0.58,-0.215
01:27:52.192:1,-0.595,-0.215
01:27:52.196:1,-0.595,-0.215
01:27:52.200:1,-0.615,-0.23
01:27:52.204:1,-0.605,-0.22
01:27:52.208:1,-0.61,-0.215
01:27:52.212:1,-0.59,-0.22
01:27:52.216:1,-0.615,-0.23
01:27:52.220:1,-0.62,-0.215
01:27:52.224:1,-0.635,-0.245
01:27:52.228:1,-0.63,-0.24
01:27:52.232:1,-0.625,-0.245
01:27:52.236:1,-0.625,-0.225
01:27:52.240:1,-0.61,-0.24
01:27:52.244:1,-0.62,-0.235
01:27:52.248:1,-0.62,-0.245
01:27:52.252:1,-0.62,-0.25
01:27:52.256:1,-0.64,-0.25
01:27:52.260:1,-0.64,-0.255
01:27:52.264:1,-0.65,-0.255
01:27:52.268:1,-0.64,-0.25
01:27:52.272:1,-0.635,-0.245
01:27:52.276:1,-0.635,-0.245
01:27:52.280:1,-0.645,-0.255
01:27:52.284:1,-0.655,-0.275
01:27:52.288:1,-0.665,-0.25
01:27:52.292:1,-0.665,-0.25
01:27:52.296:1,-0.68,-0.255
01:27:52.300:1,-0.65,-0.255
01:27:52.304:1,-0.66,-0.255
01:27:52.308:1,-0.67,-0.255
01:27:52.312:1,-0.66,-0.255
01:27:52.316:1,-0.665,-0.27
01:27:52.320:1,-0.665,-0.255
01:27:52.324:1,-0.665,-0.265
01:27:52.328:1,-0.655,-0.25
01:27:52.332:1,-0.665,-0.26
01:27:52.336:1,-0.655,-0.255
01:27:52.340:1,-0.655,-0.255
01:27:52.344:1,-0.67,-0.245
01:27:52.348:1,-0.665,-0.24
01:27:52.352:1,-0.66,-0.24
01:27:52.356:1,-0.66,-0.225
01:27:52.360:1,-0.64,-0.22
01:27:52.364:1,-0.665,-0.205
01:27:52.368:1,-0.665,-0.175
01:27:52.372:1,-0.645,-0.14
01:27:52.376:1,-0.64,-0.145
01:27:52.380:1,-0.625,-0.15
01:27:52.384:1,-0.625,-0.13
01:27:52.388:1,-0.62,-0.1
01:27:52.392:1,-0.615,-0.09
01:27:52.396:1,-0.615,-0.1
01:27:52.400:1,-0.62,-0.11
01:27:52.404:1,-0.625,-0.135
01:27:52.408:1,-0.635,-0.15
01:27:52.412:1,-0.67,-0.185
01:27:52.416:1,-0.68,-0.215
01:27:52.420:1,-0.7,-0.23
01:27:52.424:1,-0.71,-0.23
01:27:52.428:1,-0.72,-0.21
01:27:52.432:1,-0.715,-0.225
01:27:52.436:1,-0.71,-0.21
01:27:52.440:1,-0.68,-0.23
01:27:52.444:1,-0.69,-0.255
01:27:52.448:1,-0.67,-0.27
01:27:52.452:1,-0.665,-0.25
01:27:52.456:1,-0.67,-0.28
01:27:52.460:1,-0.66,-0.295
01:27:52.464:1,-0.675,-0.315
01:27:52.468:1,-0.675,-0.305
01:27:52.472:1,-0.68,-0.32
01:27:52.476:1,-0.69,-0.305
01:27:52.480:1,-0.685,-0.32
01:27:52.484:1,-0.7,-0.32
01:27:52.488:1,-0.695,-0.305
01:27:52.492:1,-0.715,-0.31
01:27:52.496:1,-0.695,-0.31
01:27:52.500:1,-0.685,-0.325
01:27:52.504:1,-0.69,-0.305
01:27:52.508:1,-0.675,-0.295
01:27:52.512:1,-0.685,-0.305
01:27:52.516:1,-0.7,-0.3
01:27:52.520:1,-0.7,-0.295
01:27:52.524:1,-0.69,-0.31
01:27:52.528:1,-0.685,-0.32
01:27:52.532:1,-0.69,-0.285
01:27:52.536:1,-0.67,-0.165
01:27:52.540:1,-0.65,0.01
01:27:52.544:1,-0.625,0.255
01:27:52.548:1,-0.59,0.48
01:27:52.552:1,-0.505,0.57
01:27:52.556:1,-0.43,0.585
01:27:52.560:1,-0.4,0.515
01:27:52.564:1,-0.405,0.16
01:27:52.568:1,-0.42,-0.305
01:27:52.572:1,-0.51,-0.59
01:27:52.576:1,-0.71,-0.725
01:27:52.580:1,-0.895,-0.745
01:27:52.584:1,-0.995,-0.655
01:27:52.588:1,-1.03,-0.54
01:27:52.592:1,-1.02,-0.43
01:27:52.596:1,-0.945,-0.365
01:27:52.600:1,-0.87,-0.315
01:27:52.604:1,-0.795,-0.31
01:27:52.608:1,-0.72,-0.29
01:27:52.612:1,-0.72,-0.295
01:27:52.616:1,-0.705,-0.295
01:27:52.620:1,-0.69,-0.31
01:27:52.624:1,-0.705,-0.285
01:27:52.628:1,-0.71,-0.29
01:27:52.632:1,-0.71,-0.29
01:27:52.636:1,-0.72,-0.29
01:27:52.640:1,-0.705,-0.29
01:27:52.644:1,-0.705,-0.285
01:27:52.648:1,-0.69,-0.28
01:27:52.652:1,-0.7,-0.3
01:27:52.656:1,-0.705,-0.28
01:27:52.660:1,-0.705,-0.285
01:27:52.664:1,-0.705,-0.265
01:27:52.668:1,-0.705,-0.27
01:27:52.672:1,-0.715,-0.26
01:27:52.676:1,-0.705,-0.275
01:27:52.680:1,-0.71,-0.28
01:27:52.684:1,-0.715,-0.3
01:27:52.688:1,-0.7,-0.3
01:27:52.692:1,-0.715,-0.295
01:27:52.696:1,-0.725,-0.275
01:27:52.700:1,-0.71,-0.265
01:27:52.704:1,-0.7,-0.26
01:27:52.708:1,-0.695,-0.26
01:27:52.712:1,-0.69,-0.23
01:27:52.716:1,-0.675,-0.195
01:27:52.720:1,-0.645,-0.115
01:27:52.724:1,-0.64,-0.09
01:27:52.728:1,-0.63,-0.095
01:27:52.732:1,-0.63,-0.135
01:27:52.736:1,-0.62,-0.155
01:27:52.740:1,-0.64,-0.16
01:27:52.744:1,-0.635,-0.17
01:27:52.748:1,-0.64,-0.2
01:27:52.752:1,-0.675,-0.205
01:27:52.756:1,-0.685,-0.235
01:27:52.760:1,-0.695,-0.23
01:27:52.764:1,-0.715,-0.23
01:27:52.768:1,-0.73,-0.195
01:27:52.772:1,-0.695,-0.215
01:27:52.776:1,-0.705,-0.205
01:27:52.780:1,-0.7,-0.19
01:27:52.784:1,-0.695,-0.17
01:27:52.788:1,-0.69,-0.185
01:27:52.792:1,-0.71,-0.19
01:27:52.796:1,-0.695,-0.165
01:27:52.800:1,-0.7,-0.16
01:27:52.804:1,-0.68,-0.145
01:27:52.808:1,-0.685,-0.15
01:27:52.812:1,-0.68,-0.13
01:27:52.816:1,-0.665,-0.11
01:27:52.820:1,-0.67,-0.105
01:27:52.824:1,-0.67,-0.095
01:27:52.828:1,-0.66,-0.08
01:27:52.832:1,-0.64,-0.075
01:27:52.836:1,-0.65,-0.07
01:27:52.840:1,-0.65,-0.065
01:27:52.844:1,-0.645,-0.075
01:27:52.848:1,-0.64,-0.08
01:27:52.852:1,-0.635,-0.08
01:27:52.856:1,-0.63,-0.09
01:27:52.860:1,-0.645,-0.095
01:27:52.864:1,-0.64,-0.09
01:27:52.868:1,-0.615,-0.11
01:27:52.872:1,-0.625,-0.14
01:27:52.876:1,-0.61,-0.13
01:27:52.880:1,-0.625,-0.135
01:27:52.884:1,-0.615,-0.155
01:27:52.888:1,-0.635,-0.135
01:27:52.892:1,-0.635,-0.13
01:27:52.896:1,-0.64,-0.13
01:27:52.900:1,-0.59,-0.14
01:27:52.904:1,-0.61,-0.125
01:27:52.908:1,-0.605,-0.125
01:27:52.912:1,-0.61,-0.08
01:27:52.916:1,-0.585,-0.01
01:27:52.920:1,-0.555,0.02
01:27:52.924:1,-0.55,0.04
01:27:52.928:1,-0.545,0.065
01:27:52.932:1,-0.54,0.05
01:27:52.936:1,-0.535,0.035
01:27:52.940:1,-0.52,0.0
01:27:52.944:1,-0.54,0.03
01:27:52.948:1,-0.535,0.125
01:27:52.952:1,-0.515,0.335
01:27:52.956:1,-0.5,0.595
01:27:52.960:1,-0.475,0.83
01:27:52.964:1,-0.4,0.875
01:27:52.968:1,-0.315,0.73
01:27:52.972:1,-0.28,0.415
01:27:52.976:1,-0.385,0.0
01:27:52.980:1,-0.56,-0.315
01:27:52.984:1,-0.745,-0.545
01:27:52.988:1,-0.825,-0.545
01:27:52.992:1,-0.89,-0.42
01:27:52.996:1,-0.925,-0.31
01:27:53.000:1,-0.88,-0.195
01:27:53.004:1,-0.795,-0.13
01:27:53.008:1,-0.685,-0.115
01:27:53.012:1,-0.64,-0.125
01:27:53.016:1,-0.575,-0.14
01:27:53.020:1,-0.58,-0.14
01:27:53.024:1,-0.57,-0.16
01:27:53.028:1,-0.565,-0.175
01:27:53.032:1,-0.575,-0.185
01:27:53.036:1,-0.575,-0.175
01:27:53.040:1,-0.57,-0.16
01:27:53.044:1,-0.56,-0.18
01:27:53.048:1,-0.55,-0.18
01:27:53.052:1,-0.56,-0.18
01:27:53.056:1,-0.565,-0.175
01:27:53.060:1,-0.54,-0.17
01:27:53.064:1,-0.56,-0.175
01:27:53.068:1,-0.56,-0.19
01:27:53.072:1,-0.55,-0.18
01:27:53.076:1,-0.545,-0.18
01:27:53.080:1,-0.545,-0.16
01:27:53.084:1,-0.535,-0.18
01:27:53.088:1,-0.525,-0.125
01:27:53.092:1,-0.52,-0.04
01:27:53.096:1,-0.51,0.01
01:27:53.100:1,-0.46,0.025
01:27:53.104:1,-0.465,0.035
01:27:53.108:1,-0.445,0.035
01:27:53.112:1,-0.46,0.02
01:27:53.116:1,-0.45,0.005
01:27:53.120:1,-0.445,-0.01
01:27:53.124:1,-0.455,-0.015
01:27:53.128:1,-0.47,-0.03
01:27:53.132:1,-0.475,-0.03
01:27:53.136:1,-0.495,-0.03
01:27:53.140:1,-0.505,-0.04
01:27:53.144:1,-0.485,-0.025
01:27:53.148:1,-0.5,-0.035
01:27:53.152:1,-0.505,-0.035
01:27:53.156:1,-0.485,-0.02
01:27:53.160:1,-0.48,-0.01
01:27:53.164:1,-0.49,-0.01
01:27:53.168:1,-0.47,-0.01
01:27:53.172:1,-0.455,0.0
01:27:53.176:1,-0.475,0.015
01:27:53.180:1,-0.46,0.015
01:27:53.184:1,-0.47,0.02
01:27:53.188:1,-0.48,0.07
01:27:53.192:1,-0.46,0.085
01:27:53.196:1,-0.44,0.095
01:27:53.200:1,-0.46,0.11
01:27:53.204:1,-0.45,0.115
01:27:53.208:1,-0.455,0.11
01:27:53.212:1,-0.435,0.11
01:27:53.216:1,-0.445,0.11
01:27:53.220:1,-0.435,0.095
01:27:53.224:1,-0.43,0.095
01:27:53.228:1,-0.42,0.075
01:27:53.232:1,-0.42,0.07
01:27:53.236:1,-0.42,0.04
01:27:53.240:1,-0.415,0.03
01:27:53.244:1,-0.445,0.005
01:27:53.248:1,-0.42,-0.01
01:27:53.252:1,-0.4,-0.02
01:27:53.256:1,-0.405,-0.02
01:27:53.260:1,-0.4,-0.02
01:27:53.264:1,-0.425,-0.03
01:27:53.268:1,-0.42,-0.04
01:27:53.272:1,-0.395,-0.025
01:27:53.276:1,-0.405,0.055
01:27:53.280:1,-0.39,0.14
01:27:53.284:1,-0.35,0.19
01:27:53.288:1,-0.345,0.205
01:27:53.292:1,-0.33,0.195
01:27:53.296:1,-0.34,0.175
01:27:53.300:1,-0.335,0.14
01:27:53.304:1,-0.335,0.125
01:27:53.308:1,-0.325,0.12
01:27:53.312:1,-0.34,0.105
01:27:53.316:1,-0.35,0.08
01:27:53.320:1,-0.345,0.065
01:27:53.324:1,-0.385,0.05
01:27:53.328:1,-0.385,0.025
01:27:53.332:1,-0.385,0.0
01:27:53.336:1,-0.39,0.005
01:27:53.340:1,-0.395,0.0
01:27:53.344:1,-0.4,-0.01
01:27:53.348:1,-0.375,-0.015
01:27:53.352:1,-0.385,-0.02
01:27:53.356:1,-0.38,-0.025
01:27:53.360:1,-0.395,-0.025
01:27:53.364:1,-0.4,-0.015
01:27:53.368:1,-0.405,-0.015
01:27:53.372:1,-0.395,-0.05
01:27:53.376:1,-0.385,-0.07
01:27:53.380:1,-0.385,-0.055
01:27:53.384:1,-0.395,-0.05
01:27:53.388:1,-0.37,-0.03
01:27:53.392:1,-0.385,-0.04
01:27:53.396:1,-0.39,-0.06
01:27:53.400:1,-0.37,-0.07
01:27:53.404:1,-0.38,-0.075
01:27:53.408:1,-0.385,-0.07
01:27:53.412:1,-0.385,-0.08
01:27:53.416:1,-0.375,-0.075
01:27:53.420:1,-0.395,-0.075
01:27:53.424:1,-0.39,-0.07
01:27:53.428:1,-0.39,-0.08
01:27:53.432:1,-0.37,-0.085
01:27:53.436:1,-0.37,-0.095
01:27:53.440:1,-0.36,-0.105
01:27:53.444:1,-0.34,-0.035
01:27:53.448:1,-0.335,0.05
01:27:53.452:1,-0.33,0.095
01:27:53.456:1,-0.32,0.1
01:27:53.460:1,-0.32,0.12
01:27:53.464:1,-0.32,0.12
01:27:53.468:1,-0.295,0.145
01:27:53.472:1,-0.29,0.14
01:27:53.476:1,-0.29,0.095
01:27:53.480:1,-0.29,0.05
01:27:53.484:1,-0.28,0.075
01:27:53.488:1,-0.305,0.155
01:27:53.492:1,-0.28,0.305
01:27:53.496:1,-0.24,0.535
01:27:53.500:1,-0.225,0.785
01:27:53.504:1,-0.175,0.965
01:27:53.508:1,-0.095,1.04
01:27:53.512:1,0.005,1.005
01:27:53.516:1,0.08,0.83
01:27:53.520:1,0.095,0.34
01:27:53.524:1,0.065,-0.15
01:27:53.528:1,-0.015,-0.47
01:27:53.532:1,-0.26,-0.545
01:27:53.536:1,-0.46,-0.52
01:27:53.540:1,-0.605,-0.45
01:27:53.544:1,-0.625,-0.31
01:27:53.548:1,-0.62,-0.205
01:27:53.552:1,-0.57,-0.135
01:27:53.556:1,-0.475,-0.095
01:27:53.560:1,-0.42,-0.085
01:27:53.564:1,-0.365,-0.08
01:27:53.568:1,-0.355,-0.1
01:27:53.572:1,-0.335,-0.12
01:27:53.576:1,-0.33,-0.145
01:27:53.580:1,-0.33,-0.135
01:27:53.584:1,-0.345,-0.14
01:27:53.588:1,-0.34,-0.135
01:27:53.592:1,-0.34,-0.15
01:27:53.596:1,-0.33,-0.155
01:27:53.600:1,-0.32,-0.17
01:27:53.604:1,-0.315,-0.155
01:27:53.608:1,-0.305,-0.135
01:27:53.612:1,-0.3,-0.065
01:27:53.616:1,-0.265,-0.015
01:27:53.620:1,-0.255,0.025
01:27:53.624:1,-0.27,0.065
01:27:53.628:1,-0.28,0.065
01:27:53.632:1,-0.25,0.055
01:27:53.636:1,-0.255,0.05
01:27:53.640:1,-0.25,0.03
01:27:53.644:1,-0.235,0.045
01:27:53.648:1,-0.25,0.015
01:27:53.652:1,-0.27,0.0
01:27:53.656:1,-0.255,0.0
01:27:53.660:1,-0.25,-0.01
01:27:53.664:1,-0.255,-0.015
01:27:53.668:1,-0.255,-0.03
01:27:53.672:1,-0.245,-0.05
01:27:53.676:1,-0.275,-0.03
01:27:53.680:1,-0.275,-0.04
01:27:53.684:1,-0.26,-0.04
01:27:53.688:1,-0.275,-0.05
01:27:53.692:1,-0.275,-0.055
01:27:53.696:1,-0.255,-0.05
01:27:53.700:1,-0.26,-0.055
01:27:53.704:1,-0.27,-0.04
01:27:53.708:1,-0.255,-0.04
01:27:53.712:1,-0.25,-0.05
01:27:53.716:1,-0.245,-0.05
01:27:53.720:1,-0.255,-0.035
01:27:53.724:1,-0.25,-0.03
01:27:53.728:1,-0.245,-0.04
01:27:53.732:1,-0.225,-0.035
01:27:53.736:1,-0.22,-0.03
01:27:53.740:1,-0.21,-0.03
01:27:53.744:1,-0.24,-0.02
01:27:53.748:1,-0.23,0.0
01:27:53.752:1,-0.22,0.015
01:27:53.756:1,-0.205,0.045
01:27:53.760:1,-0.2,0.065
01:27:53.764:1,-0.175,0.075
01:27:53.768:1,-0.16,0.105
01:27:53.772:1,-0.15,0.17
01:27:53.776:1,-0.115,0.255
01:27:53.780:1,-0.105,0.305
01:27:53.784:1,-0.095,0.345
01:27:53.788:1,-0.075,0.325
01:27:53.792:1,-0.035,0.295
01:27:53.796:1,-0.045,0.265
01:27:53.800:1,-0.04,0.24
01:27:53.804:1,-0.055,0.215
01:27:53.808:1,-0.075,0.18
01:27:53.812:1,-0.08,0.145
01:27:53.816:1,-0.1,0.145
01:27:53.820:1,-0.1,0.13
01:27:53.824:1,-0.08,0.11
01:27:53.828:1,-0.1,0.1
01:27:53.832:1,-0.09,0.07
01:27:53.836:1,-0.095,0.045
01:27:53.840:1,-0.115,0.04
01:27:53.844:1,-0.095,0.03
01:27:53.848:1,-0.095,0.04
01:27:53.852:1,-0.1,0.04
01:27:53.856:1,-0.08,0.05
01:27:53.860:1,-0.08,0.035
01:27:53.864:1,-0.095,0.025
01:27:53.868:1,-0.105,0.025
01:27:53.872:1,-0.085,0.02
01:27:53.876:1,-0.085,0.015
01:27:53.880:1,-0.085,0.015
01:27:53.884:1,-0.09,0.015
01:27:53.888:1,-0.075,0.0
01:27:53.892:1,-0.085,-0.015
01:27:53.896:1,-0.09,-0.015
01:27:53.900:1,-0.095,-0.01
01:27:53.904:1,-0.09,-0.03
01:27:53.908:1,-0.08,-0.045
01:27:53.912:1,-0.1,-0.035
01:27:53.916:1,-0.085,-0.04
01:27:53.920:1,-0.08,-0.035
01:27:53.924:1,-0.075,-0.055
01:27:53.928:1,-0.045,-0.07
01:27:53.932:1,-0.045,-0.04
01:27:53.936:1,-0.04,0.025
01:27:53.940:1,-0.035,0.11
01:27:53.944:1,-0.03,0.14
01:27:53.948:1,-0.01,0.145
01:27:53.952:1,-0.015,0.135
01:27:53.956:1,0.01,0.13
01:27:53.960:1,0.03,0.225
01:27:53.964:1,0.045,0.39
01:27:53.968:1,0.09,0.56
01:27:53.972:1,0.11,0.73
01:27:53.976:1,0.195,0.83
01:27:53.980:1,0.285,0.82
01:27:53.984:1,0.345,0.72
01:27:53.988:1,0.335,0.385
01:27:53.992:1,0.295,-0.025
01:27:53.996:1,0.195,-0.305
01:27:54.000:1,0.02,-0.375
01:27:54.004:1,-0.18,-0.355
01:27:54.008:1,-0.27,-0.345
01:27:54.012:1,-0.295,-0.26
01:27:54.016:1,-0.28,-0.135
01:27:54.020:1,-0.27,-0.04
01:27:54.024:1,-0.17,0.005
01:27:54.028:1,-0.085,0.01
01:27:54.032:1,-0.025,0.01
01:27:54.036:1,-0.005,-0.015
01:27:54.040:1,-0.005,-0.015
01:27:54.044:1,0.005,-0.04
01:27:54.048:1,0.015,-0.045
01:27:54.052:1,0.0,-0.07
01:27:54.056:1,0.005,-0.075
01:27:54.060:1,0.0,-0.075
01:27:54.064:1,-0.01,-0.09
01:27:54.068:1,-0.015,-0.085
01:27:54.072:1,-0.005,-0.07
01:27:54.076:1,-0.01,-0.085
01:27:54.080:1,0.025,-0.095
01:27:54.084:1,0.02,-0.12
01:27:54.088:1,0.015,-0.125
01:27:54.092:1,0.015,-0.085
01:27:54.096:1,0.04,-0.035
01:27:54.100:1,0.04,-0.005
01:27:54.104:1,0.07,0.01
01:27:54.108:1,0.065,0.045
01:27:54.112:1,0.045,0.1
01:27:54.116:1,0.04,0.105
01:27:54.120:1,0.08,0.11
01:27:54.124:1,0.075,0.07
01:27:54.128:1,0.08,0.065
01:27:54.132:1,0.085,0.04
01:27:54.136:1,0.09,0.04
01:27:54.140:1,0.065,0.025
01:27:54.144:1,0.07,0.005
01:27:54.148:1,0.09,-0.01
01:27:54.152:1,0.06,-0.005
01:27:54.156:1,0.08,-0.03
01:27:54.160:1,0.07,-0.025
01:27:54.164:1,0.06,-0.055
01:27:54.168:1,0.06,-0.045
01:27:54.172:1,0.075,-0.035
01:27:54.176:1,0.075,-0.04
01:27:54.180:1,0.07,-0.035
01:27:54.184:1,0.085,-0.035
01:27:54.188:1,0.09,-0.05
01:27:54.192:1,0.095,-0.04
01:27:54.196:1,0.09,-0.04
01:27:54.200:1,0.09,-0.025
01:27:54.204:1,0.1,-0.03
01:27:54.208:1,0.095,-0.005
01:27:54.212:1,0.095,0.0
01:27:54.216:1,0.105,0.015
01:27:54.220:1,0.11,0.025
01:27:54.224:1,0.12,0.05
01:27:54.228:1,0.12,0.04
01:27:54.232:1,0.135,0.06
01:27:54.236:1,0.165,0.07
01:27:54.240:1,0.155,0.075
01:27:54.244:1,0.15,0.07
01:27:54.248:1,0.165,0.055
01:27:54.252:1,0.18,0.06
01:27:54.256:1,0.18,0.095
01:27:54.260:1,0.215,0.13
01:27:54.264:1,0.205,0.185
01:27:54.268:1,0.225,0.23
01:27:54.272:1,0.235,0.235
01:27:54.276:1,0.235,0.225
01:27:54.280:1,0.235,0.23
01:27:54.284:1,0.235,0.21
01:27:54.288:1,0.225,0.195
01:27:54.292:1,0.21,0.17
01:27:54.296:1,0.235,0.165
01:27:54.300:1,0.22,0.155
01:27:54.304:1,0.215,0.15
01:27:54.308:1,0.19,0.135
01:27:54.312:1,0.205,0.11
01:27:54.316:1,0.22,0.12
01:27:54.320:1,0.195,0.11
01:27:54.324:1,0.2,0.095
01:27:54.328:1,0.215,0.09
01:27:54.332:1,0.21,0.095
01:27:54.336:1,0.21,0.1
01:27:54.340:1,0.21,0.075
01:27:54.344:1,0.225,0.08
01:27:54.348:1,0.21,0.085
01:27:54.352:1,0.205,0.085
01:27:54.356:1,0.225,0.07
01:27:54.360:1,0.22,0.065
01:27:54.364:1,0.22,0.035
01:27:54.368:1,0.22,0.05
01:27:54.372:1,0.23,0.06
01:27:54.376:1,0.22,0.065
01:27:54.380:1,0.205,0.05
01:27:54.384:1,0.21,0.045
01:27:54.388:1,0.23,0.06
01:27:54.392:1,0.23,0.05
01:27:54.396:1,0.235,0.04
01:27:54.400:1,0.23,0.025
01:27:54.404:1,0.235,0.025
01:27:54.408:1,0.235,0.015
01:27:54.412:1,0.235,-0.005
01:27:54.416:1,0.225,-0.025
01:27:54.420:1,0.22,-0.01
01:27:54.424:1,0.25,0.09
01:27:54.428:1,0.295,0.275
01:27:54.432:1,0.33,0.485
01:27:54.436:1,0.38,0.705
01:27:54.440:1,0.465,0.84
01:27:54.444:1,0.555,0.895
01:27:54.448:1,0.595,0.81
01:27:54.452:1,0.59,0.5
01:27:54.456:1,0.51,0.025
01:27:54.460:1,0.375,-0.295
01:27:54.464:1,0.18,-0.38
01:27:54.468:1,-0.02,-0.37
01:27:54.472:1,-0.1,-0.305
01:27:54.476:1,-0.13,-0.205
01:27:54.480:1,-0.09,-0.125
01:27:54.484:1,-0.03,-0.025
01:27:54.488:1,0.065,0.01
01:27:54.492:1,0.17,-0.005
01:27:54.496:1,0.195,-0.02
01:27:54.500:1,0.21,-0.045
01:27:54.504:1,0.225,-0.05
01:27:54.508:1,0.22,-0.045
01:27:54.512:1,0.23,-0.05
01:27:54.516:1,0.23,-0.08
01:27:54.520:1,0.22,-0.085
01:27:54.524:1,0.215,-0.075
01:27:54.528:1,0.22,-0.085
01:27:54.532:1,0.22,-0.08
01:27:54.536:1,0.225,-0.085
01:27:54.540:1,0.215,-0.095
01:27:54.544:1,0.22,-0.085
01:27:54.548:1,0.225,-0.085
01:27:54.552:1,0.22,-0.08
01:27:54.556:1,0.215,-0.08
01:27:54.560:1,0.22,-0.09
01:27:54.564:1,0.22,-0.08
01:27:54.568:1,0.22,-0.095
01:27:54.572:1,0.24,-0.075
01:27:54.576:1,0.225,-0.095
01:27:54.580:1,0.235,-0.08
01:27:54.584:1,0.25,-0.07
01:27:54.588:1,0.24,-0.045
01:27:54.592:1,0.24,-0.04
01:27:54.596:1,0.255,-0.025
01:27:54.600:1,0.24,-0.01
01:27:54.604:1,0.25,0.045
01:27:54.608:1,0.255,0.065
01:27:54.612:1,0.31,0.055
01:27:54.616:1,0.33,0.05
01:27:54.620:1,0.36,0.07
01:27:54.624:1,0.375,0.095
01:27:54.628:1,0.38,0.12
01:27:54.632:1,0.37,0.135
01:27:54.636:1,0.38,0.11
01:27:54.640:1,0.375,0.12
01:27:54.644:1,0.345,0.125
01:27:54.648:1,0.325,0.105
01:27:54.652:1,0.335,0.095
01:27:54.656:1,0.305,0.08
01:27:54.660:1,0.31,0.06
01:27:54.664:1,0.295,0.04
01:27:54.668:1,0.29,0.04
01:27:54.672:1,0.285,0.065
01:27:54.676:1,0.275,0.06
01:27:54.680:1,0.275,0.09
01:27:54.684:1,0.275,0.1
01:27:54.688:1,0.295,0.11
01:27:54.692:1,0.285,0.115
01:27:54.696:1,0.3,0.12
01:27:54.700:1,0.3,0.125
01:27:54.704:1,0.305,0.135
01:27:54.708:1,0.31,0.125
01:27:54.712:1,0.32,0.12
01:27:54.716:1,0.32,0.115
01:27:54.720:1,0.315,0.105
01:27:54.724:1,0.295,0.105
01:27:54.728:1,0.31,0.1
01:27:54.732:1,0.315,0.075
01:27:54.736:1,0.335,0.055
01:27:54.740:1,0.315,0.055
01:27:54.744:1,0.33,0.05
01:27:54.748:1,0.33,0.05
01:27:54.752:1,0.32,0.03
01:27:54.756:1,0.305,0.035
01:27:54.760:1,0.31,0.035
01:27:54.764:1,0.335,0.04
01:27:54.768:1,0.325,0.025
01:27:54.772:1,0.315,0.02
01:27:54.776:1,0.345,0.015
01:27:54.780:1,0.34,0.035
01:27:54.784:1,0.32,0.04
01:27:54.788:1,0.325,0.04
01:27:54.792:1,0.335,0.04
01:27:54.796:1,0.345,0.03
01:27:54.800:1,0.35,0.03
01:27:54.804:1,0.35,0.03
01:27:54.808:1,0.37,0.045
01:27:54.812:1,0.34,0.035
01:27:54.816:1,0.35,0.02
01:27:54.820:1,0.35,0.035
01:27:54.824:1,0.35,0.025
01:27:54.828:1,0.345,0.015
01:27:54.832:1,0.36,0.005
01:27:54.836:1,0.355,0.005
01:27:54.840:1,0.355,0.04
01:27:54.844:1,0.345,0.03
01:27:54.848:1,0.365,0.025
01:27:54.852:1,0.36,0.015
01:27:54.856:1,0.35,0.02
01:27:54.860:1,0.37,0.01
01:27:54.864:1,0.37,0.02
01:27:54.868:1,0.37,0.025
01:27:54.872:1,0.375,0.01
01:27:54.876:1,0.37,0.01
01:27:54.880:1,0.37,0.01
01:27:54.884:1,0.375,0.0
01:27:54.888:1,0.37,-0.01
01:27:54.892:1,0.335,-0.01
01:27:54.896:1,0.35,0.0
01:27:54.900:1,0.35,0.015
01:27:54.904:1,0.375,0.01
01:27:54.908:1,0.39,-0.005
01:27:54.912:1,0.4,-0.035
01:27:54.916:1,0.41,-0.06
01:27:54.920:1,0.41,-0.045
01:27:54.924:1,0.42,-0.01
01:27:54.928:1,0.455,0.025
01:27:54.932:1,0.45,0.05
01:27:54.936:1,0.455,0.02
01:27:54.940:1,0.435,0.02
01:27:54.944:1,0.415,0.0
01:27:54.948:1,0.35,0.005
01:27:54.952:1,0.34,-0.015
01:27:54.956:1,0.34,-0.005
01:27:54.960:1,0.34,0.005
01:27:54.964:1,0.36,0.0
01:27:54.968:1,0.365,-0.005
01:27:54.972:1,0.365,-0.005
01:27:54.976:1,0.35,-0.01
01:27:54.980:1,0.355,-0.005
01:27:54.984:1,0.36,0.0
01:27:54.988:1,0.36,0.0
01:27:54.992:1,0.35,-0.005
01:27:54.996:1,0.345,-0.005
01:27:55.000:1,0.34,-0.005
01:27:55.004:1,0.345,0.005
01:27:55.008:1,0.365,0.005
01:27:55.012:1,0.365,0.01
01:27:55.016:1,0.365,0.005
01:27:55.020:1,0.355,0.005
01:27:55.024:1,0.35,-0.005
01:27:55.028:1,0.345,-0.03
01:27:55.032:1,0.345,-0.025
01:27:55.036:1,0.36,0.055
01:27:55.040:1,0.39,0.25
01:27:55.044:1,0.415,0.465
01:27:55.048:1,0.455,0.675
01:27:55.052:1,0.535,0.82
01:27:55.056:1,0.63,0.835
01:27:55.060:1,0.69,0.795
01:27:55.064:1,0.705,0.545
01:27:55.068:1,0.645,0.065
01:27:55.072:1,0.57,-0.32
01:27:55.076:1,0.38,-0.48
01:27:55.080:1,0.14,-0.505
01:27:55.084:1,0.005,-0.45
01:27:55.088:1,-0.005,-0.35
01:27:55.092:1,-0.005,-0.23
01:27:55.096:1,0.04,-0.13
01:27:55.100:1,0.14,-0.05
01:27:55.104:1,0.275,-0.055
01:27:55.108:1,0.335,-0.06
01:27:55.112:1,0.37,-0.085
01:27:55.116:1,0.375,-0.09
01:27:55.120:1,0.365,-0.08
01:27:55.124:1,0.36,-0.065
01:27:55.128:1,0.37,-0.085
01:27:55.132:1,0.36,-0.095
01:27:55.136:1,0.38,-0.12
01:27:55.140:1,0.37,-0.14
01:27:55.144:1,0.39,-0.13
01:27:55.148:1,0.395,-0.09
01:27:55.152:1,0.435,-0.035
01:27:55.156:1,0.455,0.01
01:27:55.160:1,0.455,-0.005
01:27:55.164:1,0.465,0.0
01:27:55.168:1,0.46,-0.02
01:27:55.172:1,0.415,-0.02
01:27:55.176:1,0.41,-0.035
01:27:55.180:1,0.38,-0.045
01:27:55.184:1,0.385,-0.045
01:27:55.188:1,0.36,-0.055
01:27:55.192:1,0.36,-0.05
01:27:55.196:1,0.375,-0.025
01:27:55.200:1,0.385,-0.02
01:27:55.204:1,0.375,-0.015
01:27:55.208:1,0.395,-0.035
01:27:55.212:1,0.39,-0.03
01:27:55.216:1,0.395,-0.04
01:27:55.220:1,0.39,-0.035
01:27:55.224:1,0.39,-0.04
01:27:55.228:1,0.395,-0.04
01:27:55.232:1,0.37,-0.05
01:27:55.236:1,0.405,-0.02
01:27:55.240:1,0.405,-0.025
01:27:55.244:1,0.38,-0.04
01:27:55.248:1,0.41,-0.045
01:27:55.252:1,0.415,-0.04
01:27:55.256:1,0.41,-0.045
01:27:55.260:1,0.415,-0.04
01:27:55.264:1,0.435,-0.045
01:27:55.268:1,0.44,-0.04
01:27:55.272:1,0.415,-0.02
01:27:55.276:1,0.42,-0.03
01:27:55.280:1,0.44,-0.025
01:27:55.284:1,0.43,-0.04
01:27:55.288:1,0.42,-0.04
01:27:55.292:1,0.425,-0.045
01:27:55.296:1,0.43,-0.025
01:27:55.300:1,0.45,0.0
01:27:55.304:1,0.44,-0.005
01:27:55.308:1,0.45,0.03
01:27:55.312:1,0.44,0.05
01:27:55.316:1,0.475,0.075
01:27:55.320:1,0.475,0.065
01:27:55.324:1,0.49,0.125
01:27:55.328:1,0.515,0.205
01:27:55.332:1,0.51,0.265
01:27:55.336:1,0.525,0.255
01:27:55.340:1,0.535,0.24
01:27:55.344:1,0.52,0.225
01:27:55.348:1,0.52,0.205
01:27:55.352:1,0.52,0.205
01:27:55.356:1,0.495,0.185
01:27:55.360:1,0.485,0.185
01:27:55.364:1,0.5,0.145
01:27:55.368:1,0.455,0.115
01:27:55.372:1,0.47,0.12
01:27:55.376:1,0.46,0.105
01:27:55.380:1,0.465,0.075
01:27:55.384:1,0.445,0.065
01:27:55.388:1,0.43,0.065
01:27:55.392:1,0.43,0.045
01:27:55.396:1,0.435,0.06
01:27:55.400:1,0.42,0.04
01:27:55.404:1,0.425,0.02
01:27:55.408:1,0.43,0.025
01:27:55.412:1,0.42,0.025
01:27:55.416:1,0.43,0.025
01:27:55.420:1,0.425,0.03
01:27:55.424:1,0.415,0.01
01:27:55.428:1,0.425,0.0
01:27:55.432:1,0.44,0.0
01:27:55.436:1,0.425,0.005
01:27:55.440:1,0.43,-0.02
01:27:55.444:1,0.435,-0.035
01:27:55.448:1,0.415,-0.04
01:27:55.452:1,0.415,-0.045
01:27:55.456:1,0.4,-0.06
01:27:55.460:1,0.415,-0.05
01:27:55.464:1,0.41,-0.08
01:27:55.468:1,0.395,-0.075
01:27:55.472:1,0.415,-0.075
01:27:55.476:1,0.41,-0.075
01:27:55.480:1,0.435,-0.09
01:27:55.484:1,0.43,-0.09
01:27:55.488:1,0.435,-0.055
01:27:55.492:1,0.445,0.03
01:27:55.496:1,0.435,0.095
01:27:55.500:1,0.45,0.12
01:27:55.504:1,0.43,0.12
01:27:55.508:1,0.445,0.11
01:27:55.512:1,0.435,0.105
01:27:55.516:1,0.445,0.105
01:27:55.520:1,0.44,0.085
01:27:55.524:1,0.455,0.07
01:27:55.528:1,0.45,0.04
01:27:55.532:1,0.445,0.0
01:27:55.536:1,0.425,0.055
01:27:55.540:1,0.445,0.175
01:27:55.544:1,0.455,0.35
01:27:55.548:1,0.485,0.56
01:27:55.552:1,0.525,0.75
01:27:55.556:1,0.61,0.83
01:27:55.560:1,0.7,0.8
01:27:55.564:1,0.745,0.59
01:27:55.568:1,0.735,0.145
01:27:55.572:1,0.675,-0.285
01:27:55.576:1,0.53,-0.48
01:27:55.580:1,0.32,-0.485
01:27:55.584:1,0.155,-0.45
01:27:55.588:1,0.1,-0.395
01:27:55.592:1,0.095,-0.285
01:27:55.596:1,0.09,-0.17
01:27:55.600:1,0.155,-0.115
01:27:55.604:1,0.26,-0.115
01:27:55.608:1,0.33,-0.13
01:27:55.612:1,0.345,-0.135
01:27:55.616:1,0.35,-0.17
01:27:55.620:1,0.365,-0.155
01:27:55.624:1,0.375,-0.16
01:27:55.628:1,0.36,-0.19
01:27:55.632:1,0.35,-0.225
01:27:55.636:1,0.355,-0.21
01:27:55.640:1,0.35,-0.19
01:27:55.644:1,0.34,-0.155
01:27:55.648:1,0.36,-0.1
01:27:55.652:1,0.385,-0.075
01:27:55.656:1,0.39,-0.07
01:27:55.660:1,0.37,-0.05
01:27:55.664:1,0.35,-0.025
01:27:55.668:1,0.37,-0.025
01:27:55.672:1,0.38,-0.04
01:27:55.676:1,0.39,-0.06
01:27:55.680:1,0.355,-0.07
01:27:55.684:1,0.38,-0.1
01:27:55.688:1,0.38,-0.12
01:27:55.692:1,0.36,-0.12
01:27:55.696:1,0.36,-0.145
01:27:55.700:1,0.355,-0.14
01:27:55.704:1,0.34,-0.15
01:27:55.708:1,0.32,-0.13
01:27:55.712:1,0.34,-0.14
01:27:55.716:1,0.35,-0.15
01:27:55.720:1,0.34,-0.15
01:27:55.724:1,0.335,-0.17
01:27:55.728:1,0.34,-0.155
01:27:55.732:1,0.35,-0.175
01:27:55.736:1,0.335,-0.16
01:27:55.740:1,0.325,-0.195
01:27:55.744:1,0.32,-0.185
01:27:55.748:1,0.335,-0.175
01:27:55.752:1,0.335,-0.185
01:27:55.756:1,0.365,-0.2
01:27:55.760:1,0.345,-0.205
01:27:55.764:1,0.34,-0.195
01:27:55.768:1,0.345,-0.195
01:27:55.772:1,0.33,-0.175
01:27:55.776:1,0.325,-0.16
01:27:55.780:1,0.33,-0.17
01:27:55.784:1,0.355,-0.16
01:27:55.788:1,0.335,-0.14
01:27:55.792:1,0.33,-0.14
01:27:55.796:1,0.335,-0.115
01:27:55.800:1,0.34,-0.105
01:27:55.804:1,0.35,-0.015
01:27:55.808:1,0.365,0.05
01:27:55.812:1,0.395,0.075
01:27:55.816:1,0.385,0.1
01:27:55.820:1,0.4,0.125
01:27:55.824:1,0.39,0.135
01:27:55.828:1,0.41,0.15
01:27:55.832:1,0.41,0.16
01:27:55.836:1,0.415,0.135
01:27:55.840:1,0.43,0.11
01:27:55.844:1,0.435,0.085
01:27:55.848:1,0.43,0.06
01:27:55.852:1,0.43,0.03
01:27:55.856:1,0.4,0.015
01:27:55.860:1,0.415,-0.01
01:27:55.864:1,0.4,-0.01
01:27:55.868:1,0.42,-0.015
01:27:55.872:1,0.39,-0.025
01:27:55.876:1,0.395,-0.06
01:27:55.880:1,0.395,-0.045
01:27:55.884:1,0.405,-0.045
01:27:55.888:1,0.385,-0.045
01:27:55.892:1,0.39,-0.065
01:27:55.896:1,0.39,-0.05
01:27:55.900:1,0.4,-0.075
01:27:55.904:1,0.395,-0.065
01:27:55.908:1,0.385,-0.07
01:27:55.912:1,0.385,-0.07
01:27:55.916:1,0.405,-0.09
01:27:55.920:1,0.385,-0.085
01:27:55.924:1,0.385,-0.1
01:27:55.928:1,0.395,-0.1
01:27:55.932:1,0.38,-0.12
01:27:55.936:1,0.375,-0.145
01:27:55.940:1,0.395,-0.155
01:27:55.944:1,0.37,-0.185
01:27:55.948:1,0.375,-0.18
01:27:55.952:1,0.365,-0.155
01:27:55.956:1,0.365,-0.155
01:27:55.960:1,0.365,-0.115
01:27:55.964:1,0.38,-0.105
01:27:55.968:1,0.385,-0.085
01:27:55.972:1,0.39,-0.085
01:27:55.976:1,0.395,-0.09
01:27:55.980:1,0.4,-0.06
01:27:55.984:1,0.375,-0.055
01:27:55.988:1,0.395,-0.03
01:27:55.992:1,0.38,-0.025
01:27:55.996:1,0.37,-0.015
01:27:56.000:1,0.365,-0.025
01:27:56.004:1,0.37,-0.04
01:27:56.008:1,0.345,-0.04
01:27:56.012:1,0.34,-0.035
01:27:56.016:1,0.345,-0.035
01:27:56.020:1,0.375,-0.045
01:27:56.024:1,0.37,-0.05
01:27:56.028:1,0.365,-0.07
01:27:56.032:1,0.37,-0.08
01:27:56.036:1,0.37,-0.105
01:27:56.040:1,0.36,-0.12
01:27:56.044:1,0.34,-0.135
01:27:56.048:1,0.34,-0.13
01:27:56.052:1,0.36,-0.125
01:27:56.056:1,0.35,-0.13
01:27:56.060:1,0.34,-0.14
01:27:56.064:1,0.35,-0.135
01:27:56.068:1,0.365,-0.125
01:27:56.072:1,0.35,-0.145
01:27:56.076:1,0.355,-0.155
01:27:56.080:1,0.355,-0.175
01:27:56.084:1,0.345,-0.16
01:27:56.088:1,0.355,-0.185
01:27:56.092:1,0.34,-0.195
01:27:56.096:1,0.33,-0.185
01:27:56.100:1,0.33,-0.17
01:27:56.104:1,0.33,-0.19
01:27:56.108:1,0.345,-0.195
01:27:56.112:1,0.33,-0.205
01:27:56.116:1,0.345,-0.19
01:27:56.120:1,0.335,-0.2
01:27:56.124:1,0.335,-0.23
01:27:56.128:1,0.345,-0.225
01:27:56.132:1,0.36,-0.24
01:27:56.136:1,0.355,-0.195
01:27:56.140:1,0.36,-0.115
01:27:56.144:1,0.355,-0.08
01:27:56.148:1,0.365,-0.07
01:27:56.152:1,0.385,-0.085
01:27:56.156:1,0.395,-0.09
01:27:56.160:1,0.355,-0.065
01:27:56.164:1,0.355,-0.04
01:27:56.168:1,0.34,-0.065
01:27:56.172:1,0.34,-0.07
01:27:56.176:1,0.34,-0.065
01:27:56.180:1,0.345,-0.065
01:27:56.184:1,0.33,-0.065
01:27:56.188:1,0.33,-0.08
01:27:56.192:1,0.345,-0.105
01:27:56.196:1,0.345,-0.12
01:27:56.200:1,0.34,-0.09
01:27:56.204:1,0.37,0.015
01:27:56.208:1,0.38,0.205
01:27:56.212:1,0.39,0.46
01:27:56.216:1,0.42,0.7
01:27:56.220:1,0.485,0.85
01:27:56.224:1,0.61,0.87
01:27:56.228:1,0.705,0.73
01:27:56.232:1,0.775,0.31
01:27:56.236:1,0.785,-0.21
01:27:56.240:1,0.69,-0.6
01:27:56.244:1,0.455,-0.715
01:27:56.248:1,0.195,-0.67
01:27:56.252:1,0.025,-0.605
01:27:56.256:1,-0.045,-0.535
01:27:56.260:1,-0.025,-0.405
01:27:56.264:1,0.0,-0.315
01:27:56.268:1,0.07,-0.255
01:27:56.272:1,0.15,-0.26
01:27:56.276:1,0.245,-0.24
01:27:56.280:1,0.265,-0.245
01:27:56.284:1,0.29,-0.255
01:27:56.288:1,0.285,-0.255
01:27:56.292:1,0.27,-0.27
01:27:56.296:1,0.27,-0.255
01:27:56.300:1,0.265,-0.21
01:27:56.304:1,0.27,-0.19
01:27:56.308:1,0.285,-0.17
01:27:56.312:1,0.295,-0.155
01:27:56.316:1,0.315,-0.13
01:27:56.320:1,0.29,-0.1
01:27:56.324:1,0.29,-0.105
01:27:56.328:1,0.27,-0.11
01:27:56.332:1,0.28,-0.125
01:27:56.336:1,0.26,-0.135
01:27:56.340:1,0.265,-0.155
01:27:56.344:1,0.265,-0.19
01:27:56.348:1,0.265,-0.21
01:27:56.352:1,0.245,-0.215
01:27:56.356:1,0.245,-0.235
01:27:56.360:1,0.24,-0.225
01:27:56.364:1,0.23,-0.24
01:27:56.368:1,0.23,-0.245
01:27:56.372:1,0.245,-0.26
01:27:56.376:1,0.225,-0.245
01:27:56.380:1,0.225,-0.265
01:27:56.384:1,0.225,-0.27
01:27:56.388:1,0.24,-0.26
01:27:56.392:1,0.21,-0.27
01:27:56.396:1,0.215,-0.275
01:27:56.400:1,0.215,-0.295
01:27:56.404:1,0.22,-0.28
01:27:56.408:1,0.23,-0.295
01:27:56.412:1,0.23,-0.295
01:27:56.416:1,0.215,-0.285
01:27:56.420:1,0.25,-0.275
01:27:56.424:1,0.225,-0.285
01:27:56.428:1,0.23,-0.3
01:27:56.432:1,0.22,-0.29
01:27:56.436:1,0.24,-0.285
01:27:56.440:1,0.21,-0.305
01:27:56.444:1,0.21,-0.31
01:27:56.448:1,0.215,-0.31
01:27:56.452:1,0.215,-0.27
01:27:56.456:1,0.21,-0.195
01:27:56.460:1,0.215,-0.13
01:27:56.464:1,0.22,-0.11
01:27:56.468:1,0.235,-0.09
01:27:56.472:1,0.235,-0.045
01:27:56.476:1,0.23,-0.03
01:27:56.480:1,0.25,-0.005
01:27:56.484:1,0.28,0.005
01:27:56.488:1,0.25,0.02
01:27:56.492:1,0.26,0.05
01:27:56.496:1,0.265,0.085
01:27:56.500:1,0.28,0.085
01:27:56.504:1,0.27,0.06
01:27:56.508:1,0.29,0.055
01:27:56.512:1,0.285,0.02
01:27:56.516:1,0.295,0.01
01:27:56.520:1,0.295,0.005
01:27:56.524:1,0.305,-0.02
01:27:56.528:1,0.285,-0.055
01:27:56.532:1,0.285,-0.08
01:27:56.536:1,0.3,-0.085
01:27:56.540:1,0.285,-0.085
01:27:56.544:1,0.27,-0.105
01:27:56.548:1,0.27,-0.125
01:27:56.552:1,0.255,-0.135
01:27:56.556:1,0.265,-0.135
01:27:56.560:1,0.265,-0.15
01:27:56.564:1,0.255,-0.16
01:27:56.568:1,0.26,-0.145
01:27:56.572:1,0.26,-0.145
01:27:56.576:1,0.26,-0.155
01:27:56.580:1,0.28,-0.14
01:27:56.584:1,0.245,-0.16
01:27:56.588:1,0.25,-0.165
01:27:56.592:1,0.24,-0.145
01:27:56.596:1,0.245,-0.155
01:27:56.600:1,0.255,-0.155
01:27:56.604:1,0.235,-0.165
01:27:56.608:1,0.22,-0.17
01:27:56.612:1,0.22,-0.205
01:27:56.616:1,0.22,-0.195
01:27:56.620:1,0.21,-0.215
01:27:56.624:1,0.205,-0.23
01:27:56.628:1,0.22,-0.235
01:27:56.632:1,0.21,-0.235
01:27:56.636:1,0.195,-0.25
01:27:56.640:1,0.2,-0.26
01:27:56.644:1,0.19,-0.275
01:27:56.648:1,0.175,-0.28
01:27:56.652:1,0.19,-0.295
01:27:56.656:1,0.195,-0.315
01:27:56.660:1,0.185,-0.26
01:27:56.664:1,0.205,-0.2
01:27:56.668:1,0.22,-0.125
01:27:56.672:1,0.205,-0.1
01:27:56.676:1,0.205,-0.11
01:27:56.680:1,0.21,-0.13
01:27:56.684:1,0.2,-0.165
01:27:56.688:1,0.185,-0.185
01:27:56.692:1,0.18,-0.225
01:27:56.696:1,0.165,-0.23
01:27:56.700:1,0.145,-0.235
01:27:56.704:1,0.145,-0.245
01:27:56.708:1,0.15,-0.265
01:27:56.712:1,0.125,-0.24
01:27:56.716:1,0.12,-0.245
01:27:56.720:1,0.125,-0.26
01:27:56.724:1,0.135,-0.26
01:27:56.728:1,0.135,-0.28
01:27:56.732:1,0.14,-0.285
01:27:56.736:1,0.14,-0.28
01:27:56.740:1,0.13,-0.295
01:27:56.744:1,0.13,-0.29
01:27:56.748:1,0.13,-0.3
01:27:56.752:1,0.125,-0.3
01:27:56.756:1,0.115,-0.3
01:27:56.760:1,0.12,-0.285
01:27:56.764:1,0.13,-0.305
01:27:56.768:1,0.125,-0.295
01:27:56.772:1,0.115,-0.315
01:27:56.776:1,0.115,-0.295
01:27:56.780:1,0.11,-0.31
01:27:56.784:1,0.1,-0.305
01:27:56.788:1,0.11,-0.32
01:27:56.792:1,0.12,-0.32
01:27:56.796:1,0.11,-0.305
01:27:56.800:1,0.1,-0.315
01:27:56.804:1,0.11,-0.35
01:27:56.808:1,0.09,-0.32
01:27:56.812:1,0.115,-0.33
01:27:56.816:1,0.1,-0.34
01:27:56.820:1,0.115,-0.36
01:27:56.824:1,0.105,-0.29
01:27:56.828:1,0.12,-0.135
01:27:56.832:1,0.165,0.08
01:27:56.836:1,0.195,0.325
01:27:56.840:1,0.245,0.555
01:27:56.844:1,0.355,0.655
01:27:56.848:1,0.485,0.67
01:27:56.852:1,0.525,0.565
01:27:56.856:1,0.54,0.13
01:27:56.860:1,0.47,-0.355
01:27:56.864:1,0.35,-0.655
01:27:56.868:1,0.13,-0.7
01:27:56.872:1,-0.08,-0.665
01:27:56.876:1,-0.19,-0.585
01:27:56.880:1,-0.205,-0.465
01:27:56.884:1,-0.195,-0.355
01:27:56.888:1,-0.125,-0.275
01:27:56.892:1,-0.035,-0.26
01:27:56.896:1,0.035,-0.275
01:27:56.900:1,0.075,-0.305
01:27:56.904:1,0.085,-0.32
01:27:56.908:1,0.08,-0.32
01:27:56.912:1,0.09,-0.325
01:27:56.916:1,0.075,-0.33
01:27:56.920:1,0.075,-0.335
01:27:56.924:1,0.075,-0.355
01:27:56.928:1,0.065,-0.34
01:27:56.932:1,0.08,-0.355
01:27:56.936:1,0.055,-0.345
01:27:56.940:1,0.05,-0.385
01:27:56.944:1,0.07,-0.35
01:27:56.948:1,0.075,-0.375
01:27:56.952:1,0.06,-0.36
01:27:56.956:1,0.07,-0.375
01:27:56.960:1,0.06,-0.37
01:27:56.964:1,0.08,-0.39
01:27:56.968:1,0.045,-0.395
01:27:56.972:1,0.055,-0.41
01:27:56.976:1,0.04,-0.405
01:27:56.980:1,0.04,-0.435
01:27:56.984:1,0.04,-0.415
01:27:56.988:1,0.045,-0.405
01:27:56.992:1,0.03,-0.395
01:27:56.996:1,0.03,-0.405
01:27:57.000:1,0.04,-0.41
01:27:57.004:1,0.055,-0.415
01:27:57.008:1,0.05,-0.395
01:27:57.012:1,0.065,-0.36
01:27:57.016:1,0.06,-0.29
01:27:57.020:1,0.1,-0.26
01:27:57.024:1,0.1,-0.25
01:27:57.028:1,0.08,-0.235
01:27:57.032:1,0.08,-0.26
01:27:57.036:1,0.095,-0.275
01:27:57.040:1,0.1,-0.285
01:27:57.044:1,0.09,-0.3
01:27:57.048:1,0.085,-0.295
01:27:57.052:1,0.08,-0.31
01:27:57.056:1,0.055,-0.295
01:27:57.060:1,0.055,-0.33
01:27:57.064:1,0.035,-0.33
01:27:57.068:1,0.065,-0.34
01:27:57.072:1,0.055,-0.34
01:27:57.076:1,0.055,-0.35
01:27:57.080:1,0.06,-0.37
01:27:57.084:1,0.05,-0.35
01:27:57.088:1,0.045,-0.33
01:27:57.092:1,0.06,-0.32
01:27:57.096:1,0.035,-0.315
01:27:57.100:1,0.04,-0.32
01:27:57.104:1,0.055,-0.295
01:27:57.108:1,0.06,-0.285
01:27:57.112:1,0.055,-0.25
01:27:57.116:1,0.07,-0.275
01:27:57.120:1,0.07,-0.26
01:27:57.124:1,0.07,-0.24
01:27:57.128:1,0.075,-0.24
01:27:57.132:1,0.09,-0.24
01:27:57.136:1,0.075,-0.23
01:27:57.140:1,0.095,-0.26
01:27:57.144:1,0.1,-0.28
01:27:57.148:1,0.09,-0.275
01:27:57.152:1,0.085,-0.295
01:27:57.156:1,0.08,-0.31
01:27:57.160:1,0.08,-0.31
01:27:57.164:1,0.06,-0.305
01:27:57.168:1,0.075,-0.3
01:27:57.172:1,0.095,-0.295
01:27:57.176:1,0.11,-0.27
01:27:57.180:1,0.105,-0.255
01:27:57.184:1,0.125,-0.175
01:27:57.188:1,0.14,-0.115
01:27:57.192:1,0.15,-0.09
01:27:57.196:1,0.15,-0.09
01:27:57.200:1,0.16,-0.1
01:27:57.204:1,0.15,-0.115
01:27:57.208:1,0.14,-0.11
01:27:57.212:1,0.145,-0.145
01:27:57.216:1,0.125,-0.14
01:27:57.220:1,0.125,-0.155
01:27:57.224:1,0.105,-0.14
01:27:57.228:1,0.105,-0.16
01:27:57.232:1,0.115,-0.155
01:27:57.236:1,0.12,-0.185
01:27:57.240:1,0.11,-0.215
01:27:57.244:1,0.11,-0.19
01:27:57.248:1,0.105,-0.09
01:27:57.252:1,0.115,0.1
01:27:57.256:1,0.165,0.375
01:27:57.260:1,0.225,0.68
01:27:57.264:1,0.305,0.885
01:27:57.268:1,0.415,0.885
01:27:57.272:1,0.505,0.74
01:27:57.276:1,0.52,0.34
01:27:57.280:1,0.425,-0.165
01:27:57.284:1,0.285,-0.595
01:27:57.288:1,0.065,-0.775
01:27:57.292:1,-0.125,-0.775
01:27:57.296:1,-0.285,-0.685
01:27:57.300:1,-0.34,-0.545
01:27:57.304:1,-0.3,-0.445
01:27:57.308:1,-0.23,-0.375
01:27:57.312:1,-0.12,-0.355
01:27:57.316:1,-0.055,-0.36
01:27:57.320:1,0.0,-0.39
01:27:57.324:1,0.025,-0.405
01:27:57.328:1,0.025,-0.415
01:27:57.332:1,0.03,-0.415
01:27:57.336:1,0.02,-0.44
01:27:57.340:1,0.01,-0.435
01:27:57.344:1,0.005,-0.415
01:27:57.348:1,0.035,-0.35
01:27:57.352:1,0.035,-0.31
01:27:57.356:1,0.04,-0.285
01:27:57.360:1,0.045,-0.27
01:27:57.364:1,0.02,-0.26
01:27:57.368:1,0.045,-0.26
01:27:57.372:1,0.02,-0.26
01:27:57.376:1,0.035,-0.29
01:27:57.380:1,0.05,-0.29
01:27:57.384:1,0.045,-0.28
01:27:57.388:1,0.025,-0.31
01:27:57.392:1,0.02,-0.31
01:27:57.396:1,0.015,-0.31
01:27:57.400:1,0.0,-0.315
01:27:57.404:1,0.02,-0.32
01:27:57.408:1,0.03,-0.315
01:27:57.412:1,0.025,-0.32
01:27:57.416:1,0.015,-0.32
01:27:57.420:1,0.03,-0.335
01:27:57.424:1,0.03,-0.325
01:27:57.428:1,0.015,-0.325
01:27:57.432:1,0.01,-0.35
01:27:57.436:1,0.025,-0.35
01:27:57.440:1,0.02,-0.325
01:27:57.444:1,0.02,-0.345
01:27:57.448:1,0.025,-0.33
01:27:57.452:1,0.005,-0.33
01:27:57.456:1,0.03,-0.325
01:27:57.460:1,0.025,-0.31
01:27:57.464:1,0.02,-0.31
01:27:57.468:1,0.025,-0.315
01:27:57.472:1,0.045,-0.31
01:27:57.476:1,0.025,-0.3
01:27:57.480:1,0.035,-0.315
01:27:57.484:1,0.035,-0.295
01:27:57.488:1,0.025,-0.295
01:27:57.492:1,0.035,-0.28
01:27:57.496:1,0.025,-0.29
01:27:57.500:1,0.035,-0.275
01:27:57.504:1,0.05,-0.235
01:27:57.508:1,0.05,-0.24
01:27:57.512:1,0.06,-0.25
01:27:57.516:1,0.08,-0.235
01:27:57.520:1,0.07,-0.21
01:27:57.524:1,0.08,-0.155
01:27:57.528:1,0.105,-0.085
01:27:57.532:1,0.12,-0.06
01:27:57.536:1,0.125,-0.05
01:27:57.540:1,0.12,-0.075
01:27:57.544:1,0.12,-0.085
01:27:57.548:1,0.14,-0.11
01:27:57.552:1,0.12,-0.15
01:27:57.556:1,0.11,-0.165
01:27:57.560:1,0.095,-0.175
01:27:57.564:1,0.095,-0.185
01:27:57.568:1,0.095,-0.195
01:27:57.572:1,0.075,-0.185
01:27:57.576:1,0.085,-0.205
01:27:57.580:1,0.095,-0.22
01:27:57.584:1,0.085,-0.22
01:27:57.588:1,0.06,-0.245
01:27:57.592:1,0.075,-0.255
01:27:57.596:1,0.07,-0.265
01:27:57.600:1,0.055,-0.28
01:27:57.604:1,0.05,-0.275
01:27:57.608:1,0.05,-0.275
01:27:57.612:1,0.04,-0.275
01:27:57.616:1,0.06,-0.29
01:27:57.620:1,0.05,-0.3
01:27:57.624:1,0.05,-0.28
01:27:57.628:1,0.045,-0.3
01:27:57.632:1,0.035,-0.3
01:27:57.636:1,0.035,-0.33
01:27:57.640:1,0.03,-0.325
01:27:57.644:1,0.01,-0.345
01:27:57.648:1,0.02,-0.345
01:27:57.652:1,0.01,-0.34
01:27:57.656:1,-0.01,-0.345
01:27:57.660:1,0.005,-0.36
01:27:57.664:1,0.015,-0.355
01:27:57.668:1,0.01,-0.375
01:27:57.672:1,0.01,-0.395
01:27:57.676:1,0.005,-0.405
01:27:57.680:1,0.015,-0.385
01:27:57.684:1,0.005,-0.345
01:27:57.688:1,0.015,-0.28
01:27:57.692:1,0.015,-0.28
01:27:57.696:1,0.04,-0.27
01:27:57.700:1,0.03,-0.245
01:27:57.704:1,0.03,-0.255
01:27:57.708:1,0.025,-0.25
01:27:57.712:1,0.025,-0.26
01:27:57.716:1,0.035,-0.25
01:27:57.720:1,0.05,-0.27
01:27:57.724:1,0.04,-0.285
01:27:57.728:1,0.025,-0.32
01:27:57.732:1,0.02,-0.355
01:27:57.736:1,0.005,-0.39
01:27:57.740:1,-0.01,-0.365
01:27:57.744:1,0.01,-0.25
01:27:57.748:1,0.035,-0.075
01:27:57.752:1,0.065,0.17
01:27:57.756:1,0.12,0.38
01:27:57.760:1,0.2,0.525
01:27:57.764:1,0.29,0.555
01:27:57.768:1,0.36,0.46
01:27:57.772:1,0.38,0.085
01:27:57.776:1,0.34,-0.4
01:27:57.780:1,0.255,-0.71
01:27:57.784:1,0.065,-0.81
01:27:57.788:1,-0.15,-0.8
01:27:57.792:1,-0.29,-0.755
01:27:57.796:1,-0.335,-0.63
01:27:57.800:1,-0.31,-0.535
01:27:57.804:1,-0.285,-0.44
01:27:57.808:1,-0.185,-0.42
01:27:57.812:1,-0.085,-0.435
01:27:57.816:1,-0.065,-0.435
01:27:57.820:1,-0.035,-0.46
01:27:57.824:1,-0.025,-0.455
01:27:57.828:1,-0.01,-0.455
01:27:57.832:1,-0.015,-0.43
01:27:57.836:1,-0.005,-0.435
01:27:57.840:1,0.005,-0.445
01:27:57.844:1,0.005,-0.46
01:27:57.848:1,0.02,-0.425
01:27:57.852:1,0.005,-0.36
01:27:57.856:1,0.025,-0.33
01:27:57.860:1,0.045,-0.29
01:27:57.864:1,0.045,-0.295
01:27:57.868:1,0.065,-0.3
01:27:57.872:1,0.065,-0.3
01:27:57.876:1,0.035,-0.3
01:27:57.880:1,0.045,-0.32
01:27:57.884:1,0.025,-0.335
01:27:57.888:1,0.035,-0.315
01:27:57.892:1,0.015,-0.34
01:27:57.896:1,0.025,-0.345
01:27:57.900:1,0.0,-0.35
01:27:57.904:1,0.005,-0.35
01:27:57.908:1,-0.01,-0.37
01:27:57.912:1,-0.01,-0.37
01:27:57.916:1,-0.015,-0.355
01:27:57.920:1,0.0,-0.365
01:27:57.924:1,0.0,-0.39
01:27:57.928:1,0.0,-0.365
01:27:57.932:1,0.0,-0.37
01:27:57.936:1,0.01,-0.37
01:27:57.940:1,0.0,-0.365
01:27:57.944:1,-0.005,-0.37
01:27:57.948:1,-0.005,-0.375
01:27:57.952:1,0.015,-0.395
01:27:57.956:1,0.02,-0.375
01:27:57.960:1,0.0,-0.37
01:27:57.964:1,0.0,-0.375
01:27:57.968:1,0.0,-0.375
01:27:57.972:1,-0.005,-0.38
01:27:57.976:1,0.005,-0.365
01:27:57.980:1,0.0,-0.35
01:27:57.984:1,0.0,-0.365
01:27:57.988:1,-0.01,-0.365
01:27:57.992:1,0.005,-0.335
01:27:57.996:1,0.0,-0.325
01:27:58.000:1,0.015,-0.305
01:27:58.004:1,0.025,-0.285
01:27:58.008:1,0.035,-0.24
01:27:58.012:1,0.045,-0.17
01:27:58.016:1,0.065,-0.1
01:27:58.020:1,0.095,-0.055
01:27:58.024:1,0.12,-0.05
01:27:58.028:1,0.12,-0.06
01:27:58.032:1,0.125,-0.04
01:27:58.036:1,0.105,-0.03
01:27:58.040:1,0.105,-0.04
01:27:58.044:1,0.125,-0.09
01:27:58.048:1,0.11,-0.12
01:27:58.052:1,0.115,-0.115
01:27:58.056:1,0.1,-0.145
01:27:58.060:1,0.085,-0.19
01:27:58.064:1,0.09,-0.19
01:27:58.068:1,0.055,-0.21
01:27:58.072:1,0.06,-0.21
01:27:58.076:1,0.07,-0.215
01:27:58.080:1,0.05,-0.23
01:27:58.084:1,0.06,-0.235
01:27:58.088:1,0.055,-0.235
01:27:58.092:1,0.05,-0.235
01:27:58.096:1,0.06,-0.245
01:27:58.100:1,0.055,-0.23
01:27:58.104:1,0.055,-0.25
01:27:58.108:1,0.055,-0.28
01:27:58.112:1,0.055,-0.275
01:27:58.116:1,0.06,-0.275
01:27:58.120:1,0.08,-0.285
01:27:58.124:1,0.085,-0.305
01:27:58.128:1,0.055,-0.31
01:27:58.132:1,0.05,-0.32
01:27:58.136:1,0.06,-0.32
01:27:58.140:1,0.055,-0.34
01:27:58.144:1,0.045,-0.345
01:27:58.148:1,0.055,-0.36
01:27:58.152:1,0.08,-0.35
01:27:58.156:1,0.075,-0.345
01:27:58.160:1,0.095,-0.34
01:27:58.164:1,0.095,-0.325
01:27:58.168:1,0.085,-0.28
01:27:58.172:1,0.075,-0.26
01:27:58.176:1,0.065,-0.23
01:27:58.180:1,0.06,-0.2
01:27:58.184:1,0.075,-0.165
01:27:58.188:1,0.08,-0.16
01:27:58.192:1,0.08,-0.16
01:27:58.196:1,0.08,-0.165
01:27:58.200:1,0.105,-0.175
01:27:58.204:1,0.115,-0.205
01:27:58.208:1,0.13,-0.2
01:27:58.212:1,0.13,-0.19
01:27:58.216:1,0.125,-0.215
01:27:58.220:1,0.125,-0.245
01:27:58.224:1,0.125,-0.265
01:27:58.228:1,0.1,-0.215
01:27:58.232:1,0.105,-0.085
01:27:58.236:1,0.14,0.11
01:27:58.240:1,0.165,0.335
01:27:58.244:1,0.225,0.475
01:27:58.248:1,0.3,0.51
01:27:58.252:1,0.385,0.435
01:27:58.256:1,0.445,0.075
01:27:58.260:1,0.41,-0.415
01:27:58.264:1,0.345,-0.71
01:27:58.268:1,0.165,-0.73
01:27:58.272:1,-0.03,-0.705
01:27:58.276:1,-0.155,-0.67
01:27:58.280:1,-0.2,-0.615
01:27:58.284:1,-0.205,-0.52
01:27:58.288:1,-0.2,-0.42
01:27:58.292:1,-0.11,-0.355
01:27:58.296:1,-0.04,-0.35
01:27:58.300:1,0.0,-0.39
01:27:58.304:1,0.025,-0.39
01:27:58.308:1,0.03,-0.4
01:27:58.312:1,0.025,-0.41
01:27:58.316:1,0.02,-0.43
01:27:58.320:1,0.03,-0.455
01:27:58.324:1,0.035,-0.45
01:27:58.328:1,0.035,-0.475
01:27:58.332:1,0.055,-0.45
01:27:58.336:1,0.04,-0.375
01:27:58.340:1,0.035,-0.32
01:27:58.344:1,0.045,-0.29
01:27:58.348:1,0.065,-0.295
01:27:58.352:1,0.07,-0.265
01:27:58.356:1,0.07,-0.295
01:27:58.360:1,0.065,-0.32
01:27:58.364:1,0.06,-0.32
01:27:58.368:1,0.055,-0.32
01:27:58.372:1,0.05,-0.32
01:27:58.376:1,0.04,-0.35
01:27:58.380:1,0.03,-0.355
01:27:58.384:1,0.01,-0.37
01:27:58.388:1,0.02,-0.36
01:27:58.392:1,0.0,-0.37
01:27:58.396:1,0.01,-0.38
01:27:58.400:1,0.015,-0.365
01:27:58.404:1,0.0,-0.365
01:27:58.408:1,0.0,-0.375
01:27:58.412:1,0.02,-0.365
01:27:58.416:1,0.0,-0.38
01:27:58.420:1,-0.005,-0.375
01:27:58.424:1,0.0,-0.365
01:27:58.428:1,0.01,-0.37
01:27:58.432:1,0.01,-0.35
01:27:58.436:1,0.01,-0.38
01:27:58.440:1,0.025,-0.395
01:27:58.444:1,0.035,-0.405
01:27:58.448:1,0.005,-0.395
01:27:58.452:1,0.005,-0.395
01:27:58.456:1,0.005,-0.41
01:27:58.460:1,0.0,-0.415
01:27:58.464:1,0.0,-0.405
01:27:58.468:1,0.02,-0.39
01:27:58.472:1,0.0,-0.36
01:27:58.476:1,0.005,-0.36
01:27:58.480:1,0.015,-0.355
01:27:58.484:1,0.015,-0.335
01:27:58.488:1,0.035,-0.29
01:27:58.492:1,0.03,-0.285
01:27:58.496:1,0.05,-0.255
01:27:58.500:1,0.045,-0.235
01:27:58.504:1,0.065,-0.21
01:27:58.508:1,0.1,-0.175
01:27:58.512:1,0.105,-0.1
01:27:58.516:1,0.105,-0.065
01:27:58.520:1,0.155,-0.065
01:27:58.524:1,0.155,-0.08
01:27:58.528:1,0.17,-0.055
01:27:58.532:1,0.17,-0.095
01:27:58.536:1,0.155,-0.125
01:27:58.540:1,0.15,-0.155
01:27:58.544:1,0.115,-0.145
01:27:58.548:1,0.13,-0.155
01:27:58.552:1,0.11,-0.16
01:27:58.556:1,0.085,-0.175
01:27:58.560:1,0.09,-0.22
01:27:58.564:1,0.065,-0.23
01:27:58.568:1,0.065,-0.23
01:27:58.572:1,0.06,-0.255
01:27:58.576:1,0.075,-0.27
01:27:58.580:1,0.06,-0.245
01:27:58.584:1,0.06,-0.245
01:27:58.588:1,0.075,-0.225
01:27:58.592:1,0.075,-0.225
01:27:58.596:1,0.07,-0.245
01:27:58.600:1,0.075,-0.26
01:27:58.604:1,0.07,-0.25
01:27:58.608:1,0.085,-0.255
01:27:58.612:1,0.075,-0.25
01:27:58.616:1,0.08,-0.27
01:27:58.620:1,0.055,-0.265
01:27:58.624:1,0.06,-0.295
01:27:58.628:1,0.055,-0.315
01:27:58.632:1,0.03,-0.33
01:27:58.636:1,0.02,-0.345
01:27:58.640:1,0.04,-0.385
01:27:58.644:1,0.03,-0.395
01:27:58.648:1,0.01,-0.37
01:27:58.652:1,0.03,-0.385
01:27:58.656:1,0.03,-0.375
01:27:58.660:1,0.045,-0.37
01:27:58.664:1,0.05,-0.37
01:27:58.668:1,0.07,-0.355
01:27:58.672:1,0.07,-0.29
01:27:58.676:1,0.08,-0.12
01:27:58.680:1,0.11,0.055
01:27:58.684:1,0.15,0.275
01:27:58.688:1,0.195,0.46
01:27:58.692:1,0.275,0.53
01:27:58.696:1,0.35,0.485
01:27:58.700:1,0.425,0.275
01:27:58.704:1,0.45,-0.14
01:27:58.708:1,0.435,-0.55
01:27:58.712:1,0.315,-0.76
01:27:58.716:1,0.09,-0.735
01:27:58.720:1,-0.14,-0.695
01:27:58.724:1,-0.255,-0.66
01:27:58.728:1,-0.275,-0.575
01:27:58.732:1,-0.265,-0.465
01:27:58.736:1,-0.22,-0.37
01:27:58.740:1,-0.15,-0.315
01:27:58.744:1,-0.085,-0.315
01:27:58.748:1,-0.025,-0.32
01:27:58.752:1,0.025,-0.345
01:27:58.756:1,0.015,-0.36
01:27:58.760:1,0.015,-0.37
01:27:58.764:1,0.01,-0.355
01:27:58.768:1,0.005,-0.365
01:27:58.772:1,0.015,-0.365
01:27:58.776:1,0.005,-0.395
01:27:58.780:1,0.03,-0.385
01:27:58.784:1,0.03,-0.38
01:27:58.788:1,0.015,-0.41
01:27:58.792:1,0.01,-0.41
01:27:58.796:1,0.02,-0.405
01:27:58.800:1,0.02,-0.43
01:27:58.804:1,0.015,-0.42
01:27:58.808:1,0.015,-0.425
01:27:58.812:1,0.01,-0.435
01:27:58.816:1,-0.005,-0.45
01:27:58.820:1,0.015,-0.46
01:27:58.824:1,0.025,-0.455
01:27:58.828:1,0.015,-0.43
01:27:58.832:1,0.005,-0.455
01:27:58.836:1,0.01,-0.445
01:27:58.840:1,0.01,-0.435
01:27:58.844:1,0.015,-0.43
01:27:58.848:1,0.02,-0.435
01:27:58.852:1,0.025,-0.405
01:27:58.856:1,0.02,-0.35
01:27:58.860:1,0.01,-0.295
01:27:58.864:1,0.01,-0.29
01:27:58.868:1,0.025,-0.305
01:27:58.872:1,0.025,-0.325
01:27:58.876:1,0.03,-0.345
01:27:58.880:1,0.035,-0.365
01:27:58.884:1,0.015,-0.36
01:27:58.888:1,0.01,-0.37
01:27:58.892:1,0.005,-0.37
01:27:58.896:1,0.0,-0.38
01:27:58.900:1,0.015,-0.37
01:27:58.904:1,0.025,-0.375
01:27:58.908:1,0.03,-0.34
01:27:58.912:1,0.035,-0.335
01:27:58.916:1,0.015,-0.325
01:27:58.920:1,0.04,-0.305
01:27:58.924:1,0.015,-0.27
01:27:58.928:1,0.035,-0.26
01:27:58.932:1,0.035,-0.25
01:27:58.936:1,0.045,-0.23
01:27:58.940:1,0.065,-0.21
01:27:58.944:1,0.075,-0.195
01:27:58.948:1,0.075,-0.185
01:27:58.952:1,0.075,-0.18
01:27:58.956:1,0.1,-0.16
01:27:58.960:1,0.11,-0.18
01:27:58.964:1,0.105,-0.17
01:27:58.968:1,0.12,-0.17
01:27:58.972:1,0.145,-0.195
01:27:58.976:1,0.145,-0.215
01:27:58.980:1,0.14,-0.225
01:27:58.984:1,0.14,-0.24
01:27:58.988:1,0.125,-0.235
01:27:58.992:1,0.13,-0.265
01:27:58.996:1,0.13,-0.28
01:27:59.000:1,0.13,-0.27
01:27:59.004:1,0.11,-0.28
01:27:59.008:1,0.115,-0.265
01:27:59.012:1,0.135,-0.26
01:27:59.016:1,0.12,-0.25
01:27:59.020:1,0.125,-0.26
01:27:59.024:1,0.165,-0.25
01:27:59.028:1,0.165,-0.19
01:27:59.032:1,0.175,-0.13
01:27:59.036:1,0.175,-0.115
01:27:59.040:1,0.195,-0.13
01:27:59.044:1,0.19,-0.095
01:27:59.048:1,0.17,-0.12
01:27:59.052:1,0.18,-0.145
01:27:59.056:1,0.17,-0.165
01:27:59.060:1,0.155,-0.2
01:27:59.064:1,0.145,-0.215
01:27:59.068:1,0.14,-0.23
01:27:59.072:1,0.11,-0.255
01:27:59.076:1,0.085,-0.28
01:27:59.080:1,0.09,-0.285
01:27:59.084:1,0.1,-0.295
01:27:59.088:1,0.07,-0.3
01:27:59.092:1,0.07,-0.315
01:27:59.096:1,0.06,-0.31
01:27:59.100:1,0.07,-0.31
01:27:59.104:1,0.07,-0.305
01:27:59.108:1,0.08,-0.315
01:27:59.112:1,0.075,-0.315
01:27:59.116:1,0.08,-0.315
01:27:59.120:1,0.08,-0.325
01:27:59.124:1,0.085,-0.305
01:27:59.128:1,0.095,-0.32
01:27:59.132:1,0.105,-0.33
01:27:59.136:1,0.1,-0.335
01:27:59.140:1,0.1,-0.315
01:27:59.144:1,0.105,-0.32
01:27:59.148:1,0.105,-0.305
01:27:59.152:1,0.095,-0.31
01:27:59.156:1,0.105,-0.325
01:27:59.160:1,0.095,-0.33
01:27:59.164:1,0.1,-0.31
01:27:59.168:1,0.11,-0.325
01:27:59.172:1,0.11,-0.33
01:27:59.176:1,0.115,-0.315
01:27:59.180:1,0.1,-0.305
01:27:59.184:1,0.11,-0.355
01:27:59.188:1,0.115,-0.375
01:27:59.192:1,0.11,-0.32
01:27:59.196:1,0.135,-0.17
01:27:59.200:1,0.185,0.045
01:27:59.204:1,0.215,0.29
01:27:59.208:1,0.275,0.47
01:27:59.212:1,0.4,0.525
01:27:59.216:1,0.515,0.535
01:27:59.220:1,0.565,0.435
01:27:59.224:1,0.555,0.005
01:27:59.228:1,0.49,-0.465
01:27:59.232:1,0.35,-0.69
01:27:59.236:1,0.125,-0.705
01:27:59.240:1,-0.095,-0.665
01:27:59.244:1,-0.2,-0.605
01:27:59.248:1,-0.19,-0.475
01:27:59.252:1,-0.195,-0.36
01:27:59.256:1,-0.11,-0.28
01:27:59.260:1,-0.02,-0.255
01:27:59.264:1,0.05,-0.3
01:27:59.268:1,0.08,-0.315
01:27:59.272:1,0.11,-0.345
01:27:59.276:1,0.09,-0.36
01:27:59.280:1,0.085,-0.345
01:27:59.284:1,0.09,-0.35
01:27:59.288:1,0.08,-0.365
01:27:59.292:1,0.07,-0.37
01:27:59.296:1,0.08,-0.365
01:27:59.300:1,0.085,-0.365
01:27:59.304:1,0.085,-0.36
01:27:59.308:1,0.08,-0.37
01:27:59.312:1,0.075,-0.365
01:27:59.316:1,0.095,-0.35
01:27:59.320:1,0.08,-0.35
01:27:59.324:1,0.095,-0.38
01:27:59.328:1,0.105,-0.38
01:27:59.332:1,0.09,-0.375
01:27:59.336:1,0.1,-0.385
01:27:59.340:1,0.075,-0.385
01:27:59.344:1,0.08,-0.38
01:27:59.348:1,0.075,-0.365
01:27:59.352:1,0.085,-0.35
01:27:59.356:1,0.09,-0.335
01:27:59.360:1,0.105,-0.32
01:27:59.364:1,0.095,-0.335
01:27:59.368:1,0.105,-0.355
01:27:59.372:1,0.125,-0.345
01:27:59.376:1,0.12,-0.37
01:27:59.380:1,0.11,-0.38
01:27:59.384:1,0.125,-0.39
01:27:59.388:1,0.14,-0.415
01:27:59.392:1,0.11,-0.42
01:27:59.396:1,0.115,-0.37
01:27:59.400:1,0.125,-0.32
01:27:59.404:1,0.15,-0.3
01:27:59.408:1,0.135,-0.26
01:27:59.412:1,0.12,-0.26
01:27:59.416:1,0.14,-0.255
01:27:59.420:1,0.14,-0.26
01:27:59.424:1,0.12,-0.245
01:27:59.428:1,0.085,-0.25
01:27:59.432:1,0.105,-0.245
01:27:59.436:1,0.115,-0.24
01:27:59.440:1,0.11,-0.245
01:27:59.444:1,0.08,-0.245
01:27:59.448:1,0.095,-0.235
01:27:59.452:1,0.095,-0.225
01:27:59.456:1,0.1,-0.215
01:27:59.460:1,0.085,-0.205
01:27:59.464:1,0.115,-0.2
01:27:59.468:1,0.095,-0.2
01:27:59.472:1,0.105,-0.19
01:27:59.476:1,0.125,-0.19
01:27:59.480:1,0.12,-0.18
01:27:59.484:1,0.115,-0.17
01:27:59.488:1,0.135,-0.155
01:27:59.492:1,0.135,-0.16
01:27:59.496:1,0.145,-0.16
01:27:59.500:1,0.165,-0.16
01:27:59.504:1,0.16,-0.21
01:27:59.508:1,0.155,-0.205
01:27:59.512:1,0.16,-0.215
01:27:59.516:1,0.145,-0.24
01:27:59.520:1,0.16,-0.215
01:27:59.524:1,0.16,-0.23
01:27:59.528:1,0.155,-0.23
01:27:59.532:1,0.165,-0.22
01:27:59.536:1,0.17,-0.195
01:27:59.540:1,0.17,-0.185
01:27:59.544:1,0.195,-0.23
01:27:59.548:1,0.195,-0.25
01:27:59.552:1,0.195,-0.255
01:27:59.556:1,0.215,-0.22
01:27:59.560:1,0.215,-0.155
01:27:59.564:1,0.215,-0.16
01:27:59.568:1,0.21,-0.155
01:27:59.572:1,0.185,-0.15
01:27:59.576:1,0.175,-0.13
01:27:59.580:1,0.19,-0.145
01:27:59.584:1,0.2,-0.15
01:27:59.588:1,0.195,-0.165
01:27:59.592:1,0.195,-0.165
01:27:59.596:1,0.205,-0.16
01:27:59.600:1,0.2,-0.17
01:27:59.604:1,0.185,-0.185
01:27:59.608:1,0.195,-0.205
01:27:59.612:1,0.19,-0.195
01:27:59.616:1,0.165,-0.2
01:27:59.620:1,0.165,-0.215
01:27:59.624:1,0.15,-0.23
01:27:59.628:1,0.155,-0.235
01:27:59.632:1,0.135,-0.25
01:27:59.636:1,0.145,-0.25
01:27:59.640:1,0.145,-0.24
01:27:59.644:1,0.14,-0.25
01:27:59.648:1,0.145,-0.26
01:27:59.652:1,0.14,-0.3
01:27:59.656:1,0.135,-0.32
01:27:59.660:1,0.14,-0.35
01:27:59.664:1,0.145,-0.25
01:27:59.668:1,0.14,-0.08
01:27:59.672:1,0.18,0.12
01:27:59.676:1,0.235,0.375
01:27:59.680:1,0.305,0.565
01:27:59.684:1,0.405,0.595
01:27:59.688:1,0.465,0.46
01:27:59.692:1,0.5,0.115
01:27:59.696:1,0.41,-0.36
01:27:59.700:1,0.265,-0.66
01:27:59.704:1,0.06,-0.76
01:27:59.708:1,-0.115,-0.71
01:27:59.712:1,-0.19,-0.595
01:27:59.716:1,-0.22,-0.495
01:27:59.720:1,-0.19,-0.4
01:27:59.724:1,-0.115,-0.33
01:27:59.728:1,-0.005,-0.305
01:27:59.732:1,0.085,-0.32
01:27:59.736:1,0.15,-0.335
01:27:59.740:1,0.17,-0.355
01:27:59.744:1,0.175,-0.36
01:27:59.748:1,0.185,-0.36
01:27:59.752:1,0.2,-0.335
01:27:59.756:1,0.2,-0.335
01:27:59.760:1,0.21,-0.305
01:27:59.764:1,0.18,-0.28
01:27:59.768:1,0.175,-0.275
01:27:59.772:1,0.16,-0.275
01:27:59.776:1,0.155,-0.29
01:27:59.780:1,0.15,-0.295
01:27:59.784:1,0.125,-0.305
01:27:59.788:1,0.11,-0.3
01:27:59.792:1,0.09,-0.305
01:27:59.796:1,0.07,-0.325
01:27:59.800:1,0.095,-0.345
01:27:59.804:1,0.085,-0.36
01:27:59.808:1,0.07,-0.35
01:27:59.812:1,0.08,-0.34
01:27:59.816:1,0.075,-0.35
01:27:59.820:1,0.085,-0.35
01:27:59.824:1,0.095,-0.37
01:27:59.828:1,0.095,-0.365
01:27:59.832:1,0.08,-0.365
01:27:59.836:1,0.095,-0.355
01:27:59.840:1,0.1,-0.375
01:27:59.844:1,0.085,-0.365
01:27:59.848:1,0.085,-0.35
01:27:59.852:1,0.1,-0.365
01:27:59.856:1,0.105,-0.36
01:27:59.860:1,0.12,-0.36
01:27:59.864:1,0.11,-0.35
01:27:59.868:1,0.115,-0.35
01:27:59.872:1,0.125,-0.35
01:27:59.876:1,0.13,-0.335
01:27:59.880:1,0.13,-0.32
01:27:59.884:1,0.16,-0.3
01:27:59.888:1,0.16,-0.27
01:27:59.892:1,0.165,-0.245
01:27:59.896:1,0.18,-0.225
01:27:59.900:1,0.21,-0.21
01:27:59.904:1,0.21,-0.19
01:27:59.908:1,0.225,-0.205
01:27:59.912:1,0.245,-0.205
01:27:59.916:1,0.25,-0.195
01:27:59.920:1,0.225,-0.2
01:27:59.924:1,0.265,-0.205
01:27:59.928:1,0.265,-0.19
01:27:59.932:1,0.275,-0.16
01:27:59.936:1,0.28,-0.15
01:27:59.940:1,0.295,-0.15
01:27:59.944:1,0.28,-0.12
01:27:59.948:1,0.305,-0.115
01:27:59.952:1,0.31,-0.095
01:27:59.956:1,0.29,-0.09
01:27:59.960:1,0.28,-0.11
01:27:59.964:1,0.265,-0.115
01:27:59.968:1,0.255,-0.14
01:27:59.972:1,0.235,-0.15
01:27:59.976:1,0.205,-0.155
01:27:59.980:1,0.22,-0.18
01:27:59.984:1,0.205,-0.2
01:27:59.988:1,0.205,-0.195
01:27:59.992:1,0.2,-0.19
01:27:59.996:1,0.21,-0.18
01:28:00.000:1,0.19,-0.2
01:28:00.004:1,0.185,-0.2
01:28:00.008:1,0.19,-0.215
01:28:00.012:1,0.175,-0.195
01:28:00.016:1,0.175,-0.21
01:28:00.020:1,0.195,-0.22
01:28:00.024:1,0.175,-0.22
01:28:00.028:1,0.19,-0.215
01:28:00.032:1,0.18,-0.21
01:28:00.036:1,0.195,-0.22
01:28:00.040:1,0.205,-0.225
01:28:00.044:1,0.195,-0.215
01:28:00.048:1,0.2,-0.23
01:28:00.052:1,0.19,-0.2
01:28:00.056:1,0.21,-0.2
01:28:00.060:1,0.225,-0.18
01:28:00.064:1,0.225,-0.18
01:28:00.068:1,0.22,-0.19
01:28:00.072:1,0.22,-0.195
01:28:00.076:1,0.255,-0.21
01:28:00.080:1,0.235,-0.215
01:28:00.084:1,0.24,-0.235
01:28:00.088:1,0.255,-0.24
01:28:00.092:1,0.235,-0.26
01:28:00.096:1,0.245,-0.275
01:28:00.100:1,0.25,-0.295
01:28:00.104:1,0.225,-0.3
01:28:00.108:1,0.25,-0.31
01:28:00.112:1,0.265,-0.315
01:28:00.116:1,0.27,-0.28
01:28:00.120:1,0.245,-0.175
01:28:00.124:1,0.28,-0.02
01:28:00.128:1,0.285,0.17
01:28:00.132:1,0.32,0.365
01:28:00.136:1,0.385,0.495
01:28:00.140:1,0.445,0.525
01:28:00.144:1,0.485,0.485
01:28:00.148:1,0.515,0.225
01:28:00.152:1,0.47,-0.255
01:28:00.156:1,0.395,-0.605
01:28:00.160:1,0.22,-0.73
01:28:00.164:1,0.01,-0.725
01:28:00.168:1,-0.13,-0.67
01:28:00.172:1,-0.14,-0.555
01:28:00.176:1,-0.135,-0.47
01:28:00.180:1,-0.11,-0.37
01:28:00.184:1,-0.025,-0.305
01:28:00.188:1,0.09,-0.295
01:28:00.192:1,0.14,-0.325
01:28:00.196:1,0.19,-0.345
01:28:00.200:1,0.175,-0.33
01:28:00.204:1,0.18,-0.33
01:28:00.208:1,0.175,-0.335
01:28:00.212:1,0.2,-0.32
01:28:00.216:1,0.18,-0.33
01:28:00.220:1,0.2,-0.31
01:28:00.224:1,0.205,-0.295
01:28:00.228:1,0.175,-0.265
01:28:00.232:1,0.205,-0.25
01:28:00.236:1,0.215,-0.24
01:28:00.240:1,0.245,-0.28
01:28:00.244:1,0.26,-0.28
01:28:00.248:1,0.27,-0.29
01:28:00.252:1,0.255,-0.285
01:28:00.256:1,0.25,-0.31
01:28:00.260:1,0.255,-0.32
01:28:00.264:1,0.25,-0.3
01:28:00.268:1,0.255,-0.31
01:28:00.272:1,0.25,-0.315
01:28:00.276:1,0.265,-0.305
01:28:00.280:1,0.24,-0.28
01:28:00.284:1,0.27,-0.285
01:28:00.288:1,0.275,-0.29
01:28:00.292:1,0.295,-0.275
01:28:00.296:1,0.305,-0.25
01:28:00.300:1,0.315,-0.23
01:28:00.304:1,0.315,-0.225
01:28:00.308:1,0.31,-0.22
01:28:00.312:1,0.29,-0.22
01:28:00.316:1,0.27,-0.245
01:28:00.320:1,0.255,-0.265
01:28:00.324:1,0.225,-0.27
01:28:00.328:1,0.21,-0.295
01:28:00.332:1,0.185,-0.31
01:28:00.336:1,0.17,-0.32
01:28:00.340:1,0.175,-0.31
01:28:00.344:1,0.165,-0.3
01:28:00.348:1,0.175,-0.275
01:28:00.352:1,0.175,-0.26
01:28:00.356:1,0.17,-0.265
01:28:00.360:1,0.17,-0.255
01:28:00.364:1,0.18,-0.23
01:28:00.368:1,0.175,-0.21
01:28:00.372:1,0.15,-0.215
01:28:00.376:1,0.175,-0.205
01:28:00.380:1,0.175,-0.16
01:28:00.384:1,0.195,-0.135
01:28:00.388:1,0.205,-0.095
01:28:00.392:1,0.22,-0.065
01:28:00.396:1,0.235,-0.05
01:28:00.400:1,0.25,-0.03
01:28:00.404:1,0.285,-0.035
01:28:00.408:1,0.29,-0.065
01:28:00.412:1,0.315,-0.105
01:28:00.416:1,0.295,-0.14
01:28:00.420:1,0.31,-0.15
01:28:00.424:1,0.31,-0.155
01:28:00.428:1,0.315,-0.165
01:28:00.432:1,0.305,-0.19
01:28:00.436:1,0.295,-0.185
01:28:00.440:1,0.3,-0.195
01:28:00.444:1,0.32,-0.195
01:28:00.448:1,0.3,-0.22
01:28:00.452:1,0.315,-0.22
01:28:00.456:1,0.32,-0.19
01:28:00.460:1,0.32,-0.15
01:28:00.464:1,0.32,-0.115
01:28:00.468:1,0.335,-0.105
01:28:00.472:1,0.345,-0.12
01:28:00.476:1,0.335,-0.13
01:28:00.480:1,0.325,-0.125
01:28:00.484:1,0.325,-0.135
01:28:00.488:1,0.285,-0.135
01:28:00.492:1,0.28,-0.145
01:28:00.496:1,0.27,-0.16
01:28:00.500:1,0.25,-0.16
01:28:00.504:1,0.26,-0.175
01:28:00.508:1,0.27,-0.19
01:28:00.512:1,0.245,-0.205
01:28:00.516:1,0.235,-0.2
01:28:00.520:1,0.235,-0.205
01:28:00.524:1,0.24,-0.225
01:28:00.528:1,0.22,-0.225
01:28:00.532:1,0.225,-0.235
01:28:00.536:1,0.225,-0.24
01:28:00.540:1,0.235,-0.24
01:28:00.544:1,0.225,-0.225
01:28:00.548:1,0.24,-0.22
01:28:00.552:1,0.24,-0.225
01:28:00.556:1,0.23,-0.23
01:28:00.560:1,0.225,-0.2
01:28:00.564:1,0.25,-0.19
01:28:00.568:1,0.25,-0.205
01:28:00.572:1,0.24,-0.24
01:28:00.576:1,0.235,-0.285
01:28:00.580:1,0.23,-0.315
01:28:00.584:1,0.255,-0.285
01:28:00.588:1,0.265,-0.195
01:28:00.592:1,0.31,-0.05
01:28:00.596:1,0.315,0.185
01:28:00.600:1,0.35,0.385
01:28:00.604:1,0.45,0.49
01:28:00.608:1,0.51,0.47
01:28:00.612:1,0.565,0.26
01:28:00.616:1,0.57,-0.16
01:28:00.620:1,0.51,-0.56
01:28:00.624:1,0.35,-0.655
01:28:00.628:1,0.12,-0.635
01:28:00.632:1,-0.04,-0.6
01:28:00.636:1,-0.085,-0.515
01:28:00.640:1,-0.09,-0.4
01:28:00.644:1,-0.07,-0.295
01:28:00.648:1,0.0,-0.23
01:28:00.652:1,0.095,-0.24
01:28:00.656:1,0.175,-0.245
01:28:00.660:1,0.195,-0.265
01:28:00.664:1,0.21,-0.26
01:28:00.668:1,0.205,-0.28
01:28:00.672:1,0.21,-0.27
01:28:00.676:1,0.205,-0.28
01:28:00.680:1,0.19,-0.295
01:28:00.684:1,0.185,-0.315
01:28:00.688:1,0.18,-0.32
01:28:00.692:1,0.17,-0.33
01:28:00.696:1,0.175,-0.325
01:28:00.700:1,0.18,-0.34
01:28:00.704:1,0.15,-0.33
01:28:00.708:1,0.165,-0.335
01:28:00.712:1,0.165,-0.34
01:28:00.716:1,0.165,-0.335
01:28:00.720:1,0.185,-0.325
01:28:00.724:1,0.175,-0.34
01:28:00.728:1,0.165,-0.325
01:28:00.732:1,0.165,-0.33
01:28:00.736:1,0.185,-0.325
01:28:00.740:1,0.2,-0.305
01:28:00.744:1,0.19,-0.29
01:28:00.748:1,0.22,-0.29
01:28:00.752:1,0.225,-0.295
01:28:00.756:1,0.245,-0.305
01:28:00.760:1,0.255,-0.315
01:28:00.764:1,0.23,-0.355
01:28:00.768:1,0.255,-0.36
01:28:00.772:1,0.235,-0.37
01:28:00.776:1,0.23,-0.36
01:28:00.780:1,0.235,-0.37
01:28:00.784:1,0.225,-0.37
01:28:00.788:1,0.22,-0.37
01:28:00.792:1,0.24,-0.36
01:28:00.796:1,0.235,-0.325
01:28:00.800:1,0.235,-0.285
01:28:00.804:1,0.255,-0.27
01:28:00.808:1,0.265,-0.27
01:28:00.812:1,0.25,-0.25
01:28:00.816:1,0.24,-0.23
01:28:00.820:1,0.23,-0.255
01:28:00.824:1,0.23,-0.25
01:28:00.828:1,0.2,-0.245
01:28:00.832:1,0.185,-0.245
01:28:00.836:1,0.19,-0.22
01:28:00.840:1,0.175,-0.215
01:28:00.844:1,0.175,-0.215
01:28:00.848:1,0.175,-0.21
01:28:00.852:1,0.165,-0.2
01:28:00.856:1,0.18,-0.155
01:28:00.860:1,0.19,-0.145
01:28:00.864:1,0.21,-0.15
01:28:00.868:1,0.2,-0.155
01:28:00.872:1,0.205,-0.16
01:28:00.876:1,0.22,-0.16
01:28:00.880:1,0.225,-0.16
01:28:00.884:1,0.225,-0.18
01:28:00.888:1,0.225,-0.195
01:28:00.892:1,0.24,-0.2
01:28:00.896:1,0.235,-0.185
01:28:00.900:1,0.225,-0.17
01:28:00.904:1,0.24,-0.165
01:28:00.908:1,0.25,-0.18
01:28:00.912:1,0.24,-0.145
01:28:00.916:1,0.245,-0.155
01:28:00.920:1,0.285,-0.125
01:28:00.924:1,0.3,-0.14
01:28:00.928:1,0.29,-0.185
01:28:00.932:1,0.28,-0.2
01:28:00.936:1,0.295,-0.205
01:28:00.940:1,0.275,-0.225
01:28:00.944:1,0.305,-0.24
01:28:00.948:1,0.27,-0.235
01:28:00.952:1,0.285,-0.21
01:28:00.956:1,0.295,-0.225
01:28:00.960:1,0.3,-0.205
01:28:00.964:1,0.31,-0.19
01:28:00.968:1,0.32,-0.19
01:28:00.972:1,0.33,-0.185
01:28:00.976:1,0.32,-0.165
01:28:00.980:1,0.31,-0.155
01:28:00.984:1,0.295,-0.165
01:28:00.988:1,0.305,-0.19
01:28:00.992:1,0.275,-0.195
01:28:00.996:1,0.27,-0.185
01:28:01.000:1,0.275,-0.215
01:28:01.004:1,0.27,-0.225
01:28:01.008:1,0.25,-0.21
01:28:01.012:1,0.23,-0.225
01:28:01.016:1,0.23,-0.235
01:28:01.020:1,0.23,-0.24
01:28:01.024:1,0.225,-0.245
01:28:01.028:1,0.215,-0.265
01:28:01.032:1,0.2,-0.26
01:28:01.036:1,0.225,-0.275
01:28:01.040:1,0.22,-0.26
01:28:01.044:1,0.205,-0.285
01:28:01.048:1,0.225,-0.285
01:28:01.052:1,0.21,-0.285
01:28:01.056:1,0.195,-0.285
01:28:01.060:1,0.205,-0.255
01:28:01.064:1,0.205,-0.265
01:28:01.068:1,0.215,-0.28
01:28:01.072:1,0.225,-0.275
01:28:01.076:1,0.215,-0.285
01:28:01.080:1,0.22,-0.29
01:28:01.084:1,0.215,-0.305
01:28:01.088:1,0.205,-0.28
01:28:01.092:1,0.22,-0.3
01:28:01.096:1,0.26,-0.29
01:28:01.100:1,0.265,-0.28
01:28:01.104:1,0.27,-0.3
01:28:01.108:1,0.255,-0.3
01:28:01.112:1,0.255,-0.3
01:28:01.116:1,0.26,-0.32
01:28:01.120:1,0.265,-0.305
01:28:01.124:1,0.26,-0.3
01:28:01.128:1,0.29,-0.295
01:28:01.132:1,0.295,-0.27
01:28:01.136:1,0.315,-0.23
01:28:01.140:1,0.32,-0.195
01:28:01.144:1,0.315,-0.19
01:28:01.148:1,0.325,-0.21
01:28:01.152:1,0.315,-0.19
01:28:01.156:1,0.3,-0.205
01:28:01.160:1,0.265,-0.185
01:28:01.164:1,0.275,-0.2
01:28:01.168:1,0.24,-0.2
01:28:01.172:1,0.23,-0.21
01:28:01.176:1,0.25,-0.145
01:28:01.180:1,0.26,0.01
01:28:01.184:1,0.285,0.22
01:28:01.188:1,0.325,0.465
01:28:01.192:1,0.355,0.71
01:28:01.196:1,0.46,0.8
01:28:01.200:1,0.565,0.78
01:28:01.204:1,0.655,0.55
01:28:01.208:1,0.685,0.085
01:28:01.212:1,0.685,-0.4
01:28:01.216:1,0.565,-0.72
01:28:01.220:1,0.345,-0.8
01:28:01.224:1,0.11,-0.765
01:28:01.228:1,-0.045,-0.7
01:28:01.232:1,-0.095,-0.555
01:28:01.236:1,-0.105,-0.435
01:28:01.240:1,-0.065,-0.34
01:28:01.244:1,0.02,-0.28
01:28:01.248:1,0.11,-0.255
01:28:01.252:1,0.19,-0.27
01:28:01.256:1,0.215,-0.27
01:28:01.260:1,0.24,-0.27
01:28:01.264:1,0.24,-0.295
01:28:01.268:1,0.245,-0.3
01:28:01.272:1,0.26,-0.29
01:28:01.276:1,0.25,-0.3
01:28:01.280:1,0.255,-0.315
01:28:01.284:1,0.25,-0.32
01:28:01.288:1,0.24,-0.325
01:28:01.292:1,0.24,-0.31
01:28:01.296:1,0.24,-0.33
01:28:01.300:1,0.265,-0.33
01:28:01.304:1,0.26,-0.28
01:28:01.308:1,0.285,-0.265
01:28:01.312:1,0.295,-0.24
01:28:01.316:1,0.315,-0.235
01:28:01.320:1,0.3,-0.265
01:28:01.324:1,0.295,-0.285
01:28:01.328:1,0.26,-0.28
01:28:01.332:1,0.245,-0.27
01:28:01.336:1,0.215,-0.29
01:28:01.340:1,0.215,-0.31
01:28:01.344:1,0.195,-0.32
01:28:01.348:1,0.195,-0.34
01:28:01.352:1,0.17,-0.345
01:28:01.356:1,0.185,-0.36
01:28:01.360:1,0.155,-0.365
01:28:01.364:1,0.175,-0.365
01:28:01.368:1,0.17,-0.355
01:28:01.372:1,0.16,-0.36
01:28:01.376:1,0.16,-0.36
01:28:01.380:1,0.16,-0.375
01:28:01.384:1,0.16,-0.375
01:28:01.388:1,0.155,-0.35
01:28:01.392:1,0.17,-0.335
01:28:01.396:1,0.16,-0.325
01:28:01.400:1,0.165,-0.29
01:28:01.404:1,0.175,-0.26
01:28:01.408:1,0.195,-0.235
01:28:01.412:1,0.2,-0.24
01:28:01.416:1,0.225,-0.22
01:28:01.420:1,0.235,-0.23
01:28:01.424:1,0.26,-0.21
01:28:01.428:1,0.26,-0.205
01:28:01.432:1,0.25,-0.2
01:28:01.436:1,0.265,-0.205
01:28:01.440:1,0.275,-0.195
01:28:01.444:1,0.27,-0.18
01:28:01.448:1,0.265,-0.155
01:28:01.452:1,0.275,-0.145
01:28:01.456:1,0.275,-0.135
01:28:01.460:1,0.285,-0.115
01:28:01.464:1,0.315,-0.12
01:28:01.468:1,0.315,-0.095
01:28:01.472:1,0.335,-0.075
01:28:01.476:1,0.35,-0.065
01:28:01.480:1,0.36,-0.07
01:28:01.484:1,0.385,-0.035
01:28:01.488:1,0.385,-0.01
01:28:01.492:1,0.39,-0.015
01:28:01.496:1,0.375,-0.025
01:28:01.500:1,0.36,-0.06
01:28:01.504:1,0.36,-0.075
01:28:01.508:1,0.315,-0.095
01:28:01.512:1,0.28,-0.095
01:28:01.516:1,0.28,-0.12
01:28:01.520:1,0.27,-0.13
01:28:01.524:1,0.26,-0.135
01:28:01.528:1,0.275,-0.145
01:28:01.532:1,0.25,-0.16
01:28:01.536:1,0.255,-0.16
01:28:01.540:1,0.25,-0.17
01:28:01.544:1,0.25,-0.18
01:28:01.548:1,0.255,-0.155
01:28:01.552:1,0.25,-0.14
01:28:01.556:1,0.26,-0.145
01:28:01.560:1,0.27,-0.15
01:28:01.564:1,0.265,-0.15
01:28:01.568:1,0.255,-0.14
01:28:01.572:1,0.275,-0.125
01:28:01.576:1,0.27,-0.145
01:28:01.580:1,0.29,-0.175
01:28:01.584:1,0.275,-0.17
01:28:01.588:1,0.29,-0.19
01:28:01.592:1,0.285,-0.175
01:28:01.596:1,0.295,-0.2
01:28:01.600:1,0.3,-0.22
01:28:01.604:1,0.27,-0.225
01:28:01.608:1,0.275,-0.255
01:28:01.612:1,0.285,-0.255
01:28:01.616:1,0.285,-0.285
01:28:01.620:1,0.275,-0.305
01:28:01.624:1,0.27,-0.23
01:28:01.628:1,0.275,-0.1
01:28:01.632:1,0.32,0.085
01:28:01.636:1,0.36,0.285
01:28:01.640:1,0.425,0.465
01:28:01.644:1,0.51,0.525
01:28:01.648:1,0.61,0.49
01:28:01.652:1,0.67,0.335
01:28:01.656:1,0.67,-0.05
01:28:01.660:1,0.57,-0.44
01:28:01.664:1,0.42,-0.655
01:28:01.668:1,0.185,-0.66
01:28:01.672:1,-0.01,-0.63
01:28:01.676:1,-0.105,-0.595
01:28:01.680:1,-0.105,-0.48
01:28:01.684:1,-0.11,-0.375
01:28:01.688:1,-0.05,-0.29
01:28:01.692:1,0.06,-0.27
01:28:01.696:1,0.145,-0.29
01:28:01.700:1,0.155,-0.32
01:28:01.704:1,0.19,-0.34
01:28:01.708:1,0.205,-0.335
01:28:01.712:1,0.18,-0.32
01:28:01.716:1,0.175,-0.31
01:28:01.720:1,0.175,-0.315
01:28:01.724:1,0.18,-0.295
01:28:01.728:1,0.185,-0.28
01:28:01.732:1,0.18,-0.29
01:28:01.736:1,0.19,-0.31
01:28:01.740:1,0.21,-0.33
01:28:01.744:1,0.21,-0.34
01:28:01.748:1,0.215,-0.34
01:28:01.752:1,0.205,-0.34
01:28:01.756:1,0.18,-0.355
01:28:01.760:1,0.19,-0.375
01:28:01.764:1,0.195,-0.355
01:28:01.768:1,0.195,-0.355
01:28:01.772:1,0.195,-0.37
01:28:01.776:1,0.2,-0.38
01:28:01.780:1,0.195,-0.38
01:28:01.784:1,0.19,-0.37
01:28:01.788:1,0.19,-0.39
01:28:01.792:1,0.195,-0.385
01:28:01.796:1,0.17,-0.395
01:28:01.800:1,0.19,-0.4
01:28:01.804:1,0.195,-0.39
01:28:01.808:1,0.195,-0.37
01:28:01.812:1,0.19,-0.39
01:28:01.816:1,0.21,-0.435
01:28:01.820:1,0.215,-0.43
01:28:01.824:1,0.2,-0.415
01:28:01.828:1,0.18,-0.405
01:28:01.832:1,0.205,-0.41
01:28:01.836:1,0.215,-0.415
01:28:01.840:1,0.21,-0.415
01:28:01.844:1,0.22,-0.39
01:28:01.848:1,0.23,-0.355
01:28:01.852:1,0.225,-0.295
01:28:01.856:1,0.23,-0.275
01:28:01.860:1,0.235,-0.265
01:28:01.864:1,0.24,-0.24
01:28:01.868:1,0.225,-0.225
01:28:01.872:1,0.21,-0.2
01:28:01.876:1,0.21,-0.195
01:28:01.880:1,0.195,-0.195
01:28:01.884:1,0.195,-0.175
01:28:01.888:1,0.175,-0.18
01:28:01.892:1,0.155,-0.16
01:28:01.896:1,0.185,-0.185
01:28:01.900:1,0.2,-0.19
01:28:01.904:1,0.2,-0.195
01:28:01.908:1,0.215,-0.19
01:28:01.912:1,0.205,-0.21
01:28:01.916:1,0.205,-0.23
01:28:01.920:1,0.205,-0.23
01:28:01.924:1,0.22,-0.225
01:28:01.928:1,0.235,-0.23
01:28:01.932:1,0.23,-0.255
01:28:01.936:1,0.215,-0.27
01:28:01.940:1,0.23,-0.27
01:28:01.944:1,0.205,-0.265
01:28:01.948:1,0.21,-0.265
01:28:01.952:1,0.2,-0.3
01:28:01.956:1,0.2,-0.29
01:28:01.960:1,0.21,-0.305
01:28:01.964:1,0.2,-0.3
01:28:01.968:1,0.205,-0.3
01:28:01.972:1,0.2,-0.305
01:28:01.976:1,0.21,-0.31
01:28:01.980:1,0.19,-0.315
01:28:01.984:1,0.205,-0.32
01:28:01.988:1,0.185,-0.33
01:28:01.992:1,0.205,-0.32
01:28:01.996:1,0.195,-0.34
01:28:02.000:1,0.19,-0.345
01:28:02.004:1,0.19,-0.335
01:28:02.008:1,0.195,-0.34
01:28:02.012:1,0.2,-0.355
01:28:02.016:1,0.215,-0.375
01:28:02.020:1,0.21,-0.37
01:28:02.024:1,0.22,-0.365
01:28:02.028:1,0.225,-0.345
01:28:02.032:1,0.225,-0.29
01:28:02.036:1,0.245,-0.235
01:28:02.040:1,0.24,-0.175
01:28:02.044:1,0.24,-0.145
01:28:02.048:1,0.265,-0.16
01:28:02.052:1,0.245,-0.175
01:28:02.056:1,0.23,-0.18
01:28:02.060:1,0.25,-0.185
01:28:02.064:1,0.255,-0.2
01:28:02.068:1,0.245,-0.2
01:28:02.072:1,0.23,-0.22
01:28:02.076:1,0.215,-0.26
01:28:02.080:1,0.22,-0.24
01:28:02.084:1,0.22,-0.265
01:28:02.088:1,0.245,-0.28
01:28:02.092:1,0.22,-0.28
01:28:02.096:1,0.205,-0.28
01:28:02.100:1,0.215,-0.3
01:28:02.104:1,0.225,-0.29
01:28:02.108:1,0.19,-0.29
01:28:02.112:1,0.195,-0.3
01:28:02.116:1,0.2,-0.32
01:28:02.120:1,0.19,-0.31
01:28:02.124:1,0.19,-0.315
01:28:02.128:1,0.205,-0.325
01:28:02.132:1,0.195,-0.355
01:28:02.136:1,0.185,-0.33
01:28:02.140:1,0.17,-0.36
01:28:02.144:1,0.175,-0.36
01:28:02.148:1,0.165,-0.355
01:28:02.152:1,0.17,-0.375
01:28:02.156:1,0.18,-0.365
01:28:02.160:1,0.18,-0.36
01:28:02.164:1,0.175,-0.355
01:28:02.168:1,0.18,-0.37
01:28:02.172:1,0.18,-0.385
01:28:02.176:1,0.17,-0.395
01:28:02.180:1,0.175,-0.42
01:28:02.184:1,0.2,-0.385
01:28:02.188:1,0.185,-0.335
01:28:02.192:1,0.195,-0.31
01:28:02.196:1,0.21,-0.29
01:28:02.200:1,0.205,-0.27
01:28:02.204:1,0.19,-0.25
01:28:02.208:1,0.195,-0.235
01:28:02.212:1,0.19,-0.21
01:28:02.216:1,0.19,-0.205
01:28:02.220:1,0.16,-0.21
01:28:02.224:1,0.21,-0.21
01:28:02.228:1,0.19,-0.2
01:28:02.232:1,0.215,-0.215
01:28:02.236:1,0.225,-0.255
01:28:02.240:1,0.22,-0.275
01:28:02.244:1,0.225,-0.25
01:28:02.248:1,0.205,-0.16
01:28:02.252:1,0.235,0.005
01:28:02.256:1,0.275,0.265
01:28:02.260:1,0.315,0.51
01:28:02.264:1,0.385,0.685
01:28:02.268:1,0.5,0.71
01:28:02.272:1,0.56,0.64
01:28:02.276:1,0.585,0.255
01:28:02.280:1,0.56,-0.28
01:28:02.284:1,0.455,-0.69
01:28:02.288:1,0.205,-0.86
01:28:02.292:1,-0.005,-0.855
01:28:02.296:1,-0.18,-0.745
01:28:02.300:1,-0.225,-0.605
01:28:02.304:1,-0.195,-0.505
01:28:02.308:1,-0.115,-0.43
01:28:02.312:1,0.0,-0.405
01:28:02.316:1,0.08,-0.4
01:28:02.320:1,0.13,-0.425
01:28:02.324:1,0.135,-0.435
01:28:02.328:1,0.14,-0.45
01:28:02.332:1,0.135,-0.455
01:28:02.336:1,0.14,-0.475
01:28:02.340:1,0.15,-0.475
01:28:02.344:1,0.145,-0.455
01:28:02.348:1,0.14,-0.4
01:28:02.352:1,0.155,-0.36
01:28:02.356:1,0.16,-0.325
01:28:02.360:1,0.175,-0.31
01:28:02.364:1,0.17,-0.305
01:28:02.368:1,0.165,-0.31
01:28:02.372:1,0.15,-0.305
01:28:02.376:1,0.14,-0.295
01:28:02.380:1,0.15,-0.29
01:28:02.384:1,0.14,-0.27
01:28:02.388:1,0.145,-0.27
01:28:02.392:1,0.145,-0.26
01:28:02.396:1,0.14,-0.25
01:28:02.400:1,0.155,-0.205
01:28:02.404:1,0.165,-0.225
01:28:02.408:1,0.17,-0.275
01:28:02.412:1,0.185,-0.3
01:28:02.416:1,0.185,-0.315
01:28:02.420:1,0.19,-0.335
01:28:02.424:1,0.17,-0.345
01:28:02.428:1,0.165,-0.365
01:28:02.432:1,0.175,-0.375
01:28:02.436:1,0.16,-0.38
01:28:02.440:1,0.14,-0.375
01:28:02.444:1,0.14,-0.395
01:28:02.448:1,0.14,-0.405
01:28:02.452:1,0.125,-0.405
01:28:02.456:1,0.135,-0.43
01:28:02.460:1,0.135,-0.41
01:28:02.464:1,0.14,-0.4
01:28:02.468:1,0.13,-0.4
01:28:02.472:1,0.13,-0.395
01:28:02.476:1,0.15,-0.375
01:28:02.480:1,0.15,-0.35
01:28:02.484:1,0.145,-0.35
01:28:02.488:1,0.155,-0.33
01:28:02.492:1,0.16,-0.315
01:28:02.496:1,0.175,-0.305
01:28:02.500:1,0.19,-0.27
01:28:02.504:1,0.205,-0.22
01:28:02.508:1,0.21,-0.19
01:28:02.512:1,0.22,-0.175
01:28:02.516:1,0.205,-0.155
01:28:02.520:1,0.19,-0.125
01:28:02.524:1,0.195,-0.11
01:28:02.528:1,0.215,-0.075
01:28:02.532:1,0.19,-0.07
01:28:02.536:1,0.19,-0.055
01:28:02.540:1,0.2,-0.055
01:28:02.544:1,0.185,-0.035
01:28:02.548:1,0.2,-0.045
01:28:02.552:1,0.205,-0.03
01:28:02.556:1,0.2,-0.04
01:28:02.560:1,0.22,-0.04
01:28:02.564:1,0.21,-0.045
01:28:02.568:1,0.22,-0.05
01:28:02.572:1,0.235,-0.08
01:28:02.576:1,0.24,-0.125
01:28:02.580:1,0.23,-0.16
01:28:02.584:1,0.235,-0.2
01:28:02.588:1,0.195,-0.21
01:28:02.592:1,0.22,-0.245
01:28:02.596:1,0.18,-0.26
01:28:02.600:1,0.18,-0.265
01:28:02.604:1,0.175,-0.27
01:28:02.608:1,0.165,-0.295
01:28:02.612:1,0.15,-0.285
01:28:02.616:1,0.17,-0.31
01:28:02.620:1,0.165,-0.32
01:28:02.624:1,0.165,-0.33
01:28:02.628:1,0.16,-0.345
01:28:02.632:1,0.175,-0.34
01:28:02.636:1,0.16,-0.32
01:28:02.640:1,0.16,-0.295
01:28:02.644:1,0.145,-0.31
01:28:02.648:1,0.155,-0.31
01:28:02.652:1,0.135,-0.29
01:28:02.656:1,0.125,-0.29
01:28:02.660:1,0.125,-0.29
01:28:02.664:1,0.145,-0.28
01:28:02.668:1,0.12,-0.285
01:28:02.672:1,0.125,-0.295
01:28:02.676:1,0.12,-0.285
01:28:02.680:1,0.1,-0.29
01:28:02.684:1,0.095,-0.3
01:28:02.688:1,0.09,-0.325
01:28:02.692:1,0.08,-0.32
01:28:02.696:1,0.08,-0.32
01:28:02.700:1,0.105,-0.33
01:28:02.704:1,0.08,-0.295
01:28:02.708:1,0.08,-0.3
01:28:02.712:1,0.09,-0.3
01:28:02.716:1,0.09,-0.285
01:28:02.720:1,0.085,-0.28
01:28:02.724:1,0.105,-0.295
01:28:02.728:1,0.09,-0.31
01:28:02.732:1,0.09,-0.305
01:28:02.736:1,0.105,-0.34
01:28:02.740:1,0.125,-0.405
01:28:02.744:1,0.11,-0.405
01:28:02.748:1,0.11,-0.33
01:28:02.752:1,0.12,-0.155
01:28:02.756:1,0.16,0.07
01:28:02.760:1,0.205,0.3
01:28:02.764:1,0.28,0.43
01:28:02.768:1,0.365,0.455
01:28:02.772:1,0.41,0.325
01:28:02.776:1,0.415,-0.05
01:28:02.780:1,0.32,-0.505
01:28:02.784:1,0.19,-0.785
01:28:02.788:1,-0.015,-0.865
01:28:02.792:1,-0.17,-0.845
01:28:02.796:1,-0.255,-0.755
01:28:02.800:1,-0.275,-0.64
01:28:02.804:1,-0.24,-0.52
01:28:02.808:1,-0.16,-0.39
01:28:02.812:1,-0.055,-0.33
01:28:02.816:1,0.04,-0.315
01:28:02.820:1,0.065,-0.34
01:28:02.824:1,0.075,-0.365
01:28:02.828:1,0.045,-0.375
01:28:02.832:1,0.015,-0.375
01:28:02.836:1,0.025,-0.385
01:28:02.840:1,0.02,-0.385
01:28:02.844:1,0.01,-0.38
01:28:02.848:1,0.01,-0.395
01:28:02.852:1,0.02,-0.38
01:28:02.856:1,0.005,-0.395
01:28:02.860:1,-0.005,-0.39
01:28:02.864:1,0.005,-0.42
01:28:02.868:1,0.01,-0.405
01:28:02.872:1,-0.01,-0.39
01:28:02.876:1,0.01,-0.375
01:28:02.880:1,0.025,-0.37
01:28:02.884:1,0.015,-0.37
01:28:02.888:1,0.035,-0.385
01:28:02.892:1,0.025,-0.37
01:28:02.896:1,0.03,-0.355
01:28:02.900:1,0.04,-0.385
01:28:02.904:1,0.04,-0.42
01:28:02.908:1,0.07,-0.43
01:28:02.912:1,0.05,-0.435
01:28:02.916:1,0.05,-0.435
01:28:02.920:1,0.065,-0.455
01:28:02.924:1,0.065,-0.46
01:28:02.928:1,0.04,-0.465
01:28:02.932:1,0.025,-0.46
01:28:02.936:1,0.04,-0.48
01:28:02.940:1,0.035,-0.48
01:28:02.944:1,0.05,-0.485
01:28:02.948:1,0.06,-0.475
01:28:02.952:1,0.045,-0.465
01:28:02.956:1,0.035,-0.46
01:28:02.960:1,0.04,-0.475
01:28:02.964:1,0.05,-0.47
01:28:02.968:1,0.055,-0.455
01:28:02.972:1,0.055,-0.43
01:28:02.976:1,0.07,-0.43
01:28:02.980:1,0.06,-0.405
01:28:02.984:1,0.06,-0.41
01:28:02.988:1,0.03,-0.395
01:28:02.992:1,0.025,-0.38
01:28:02.996:1,0.0,-0.345
01:28:03.000:1,-0.005,-0.35
01:28:03.004:1,0.005,-0.355
01:28:03.008:1,0.0,-0.345
01:28:03.012:1,0.0,-0.325
01:28:03.016:1,0.015,-0.32
01:28:03.020:1,0.01,-0.31
01:28:03.024:1,0.0,-0.3
01:28:03.028:1,0.03,-0.29
01:28:03.032:1,0.02,-0.26
01:28:03.036:1,0.04,-0.245
01:28:03.040:1,0.045,-0.24
01:28:03.044:1,0.06,-0.235
01:28:03.048:1,0.055,-0.225
01:28:03.052:1,0.08,-0.22
01:28:03.056:1,0.09,-0.24
01:28:03.060:1,0.095,-0.255
01:28:03.064:1,0.105,-0.27
01:28:03.068:1,0.095,-0.28
01:28:03.072:1,0.1,-0.315
01:28:03.076:1,0.11,-0.325
01:28:03.080:1,0.105,-0.35
01:28:03.084:1,0.1,-0.35
01:28:03.088:1,0.105,-0.365
01:28:03.092:1,0.1,-0.365
01:28:03.096:1,0.105,-0.355
01:28:03.100:1,0.1,-0.325
01:28:03.104:1,0.1,-0.33
01:28:03.108:1,0.11,-0.32
01:28:03.112:1,0.125,-0.295
01:28:03.116:1,0.115,-0.28
01:28:03.120:1,0.105,-0.28
01:28:03.124:1,0.105,-0.3
01:28:03.128:1,0.07,-0.295
01:28:03.132:1,0.07,-0.265
01:28:03.136:1,0.075,-0.295
01:28:03.140:1,0.055,-0.295
01:28:03.144:1,0.055,-0.325
01:28:03.148:1,0.025,-0.33
01:28:03.152:1,0.025,-0.335
01:28:03.156:1,0.005,-0.32
01:28:03.160:1,0.025,-0.34
01:28:03.164:1,0.02,-0.355
01:28:03.168:1,0.02,-0.345
01:28:03.172:1,0.02,-0.345
01:28:03.176:1,0.02,-0.345
01:28:03.180:1,0.015,-0.36
01:28:03.184:1,0.0,-0.36
01:28:03.188:1,0.015,-0.33
01:28:03.192:1,0.005,-0.355
01:28:03.196:1,0.0,-0.355
01:28:03.200:1,0.005,-0.35
01:28:03.204:1,0.025,-0.345
01:28:03.208:1,0.01,-0.345
01:28:03.212:1,0.005,-0.355
01:28:03.216:1,0.01,-0.38
01:28:03.220:1,0.02,-0.38
01:28:03.224:1,0.03,-0.385
01:28:03.228:1,0.04,-0.405
01:28:03.232:1,0.03,-0.395
01:28:03.236:1,0.045,-0.385
01:28:03.240:1,0.04,-0.4
01:28:03.244:1,0.035,-0.39
01:28:03.248:1,0.035,-0.39
01:28:03.252:1,0.035,-0.375
01:28:03.256:1,0.035,-0.355
01:28:03.260:1,0.07,-0.31
01:28:03.264:1,0.06,-0.29
01:28:03.268:1,0.06,-0.29
01:28:03.272:1,0.065,-0.285
01:28:03.276:1,0.065,-0.26
01:28:03.280:1,0.08,-0.27
01:28:03.284:1,0.045,-0.28
01:28:03.288:1,0.05,-0.29
01:28:03.292:1,0.045,-0.29
01:28:03.296:1,0.05,-0.3
01:28:03.300:1,0.015,-0.31
01:28:03.304:1,0.015,-0.305
01:28:03.308:1,0.01,-0.325
01:28:03.312:1,0.02,-0.345
01:28:03.316:1,0.015,-0.35
01:28:03.320:1,0.01,-0.355
01:28:03.324:1,0.0,-0.35
01:28:03.328:1,0.0,-0.34
01:28:03.332:1,-0.01,-0.345
01:28:03.336:1,-0.015,-0.34
01:28:03.340:1,-0.005,-0.355
01:28:03.344:1,-0.01,-0.34
01:28:03.348:1,-0.03,-0.345
01:28:03.352:1,-0.005,-0.36
01:28:03.356:1,-0.015,-0.38
01:28:03.360:1,0.0,-0.355
01:28:03.364:1,-0.015,-0.35
01:28:03.368:1,0.0,-0.355
01:28:03.372:1,0.005,-0.385
01:28:03.376:1,-0.005,-0.39
01:28:03.380:1,0.005,-0.4
01:28:03.384:1,0.015,-0.405
01:28:03.388:1,0.005,-0.405
01:28:03.392:1,0.0,-0.395
01:28:03.396:1,-0.005,-0.405
01:28:03.400:1,-0.015,-0.415
01:28:03.404:1,-0.025,-0.345
01:28:03.408:1,-0.005,-0.225
01:28:03.412:1,0.0,-0.015
01:28:03.416:1,0.04,0.255
01:28:03.420:1,0.065,0.505
01:28:03.424:1,0.14,0.67
01:28:03.428:1,0.235,0.71
01:28:03.432:1,0.335,0.655
01:28:03.436:1,0.37,0.305
01:28:03.440:1,0.39,-0.24
01:28:03.444:1,0.345,-0.65
01:28:03.448:1,0.17,-0.845
01:28:03.452:1,-0.1,-0.855
01:28:03.456:1,-0.3,-0.81
01:28:03.460:1,-0.41,-0.715
01:28:03.464:1,-0.395,-0.605
01:28:03.468:1,-0.39,-0.49
01:28:03.472:1,-0.335,-0.43
01:28:03.476:1,-0.24,-0.38
01:28:03.480:1,-0.19,-0.355
01:28:03.484:1,-0.14,-0.375
01:28:03.488:1,-0.105,-0.41
01:28:03.492:1,-0.1,-0.435
01:28:03.496:1,-0.11,-0.44
01:28:03.500:1,-0.14,-0.415
01:28:03.504:1,-0.135,-0.425
01:28:03.508:1,-0.13,-0.415
01:28:03.512:1,-0.11,-0.42
01:28:03.516:1,-0.11,-0.415
01:28:03.520:1,-0.12,-0.43
01:28:03.524:1,-0.13,-0.425
01:28:03.528:1,-0.12,-0.435
01:28:03.532:1,-0.11,-0.46
01:28:03.536:1,-0.095,-0.46
01:28:03.540:1,-0.1,-0.485
01:28:03.544:1,-0.1,-0.51
01:28:03.548:1,-0.105,-0.515
01:28:03.552:1,-0.1,-0.52
01:28:03.556:1,-0.13,-0.48
01:28:03.560:1,-0.13,-0.44
01:28:03.564:1,-0.14,-0.43
01:28:03.568:1,-0.135,-0.425
01:28:03.572:1,-0.115,-0.425
01:28:03.576:1,-0.14,-0.425
01:28:03.580:1,-0.15,-0.405
01:28:03.584:1,-0.175,-0.42
01:28:03.588:1,-0.175,-0.415
01:28:03.592:1,-0.18,-0.425
01:28:03.596:1,-0.2,-0.44
01:28:03.600:1,-0.185,-0.425
01:28:03.604:1,-0.195,-0.435
01:28:03.608:1,-0.215,-0.425
01:28:03.612:1,-0.23,-0.43
01:28:03.616:1,-0.21,-0.435
01:28:03.620:1,-0.235,-0.435
01:28:03.624:1,-0.245,-0.43
01:28:03.628:1,-0.23,-0.42
01:28:03.632:1,-0.24,-0.4
01:28:03.636:1,-0.23,-0.41
01:28:03.640:1,-0.235,-0.41
01:28:03.644:1,-0.235,-0.385
01:28:03.648:1,-0.24,-0.37
01:28:03.652:1,-0.235,-0.38
01:28:03.656:1,-0.24,-0.375
01:28:03.660:1,-0.24,-0.355
01:28:03.664:1,-0.23,-0.31
01:28:03.668:1,-0.23,-0.3
01:28:03.672:1,-0.23,-0.305
01:28:03.676:1,-0.225,-0.285
01:28:03.680:1,-0.2,-0.265
01:28:03.684:1,-0.21,-0.22
01:28:03.688:1,-0.215,-0.205
01:28:03.692:1,-0.2,-0.215
01:28:03.696:1,-0.185,-0.195
01:28:03.700:1,-0.18,-0.155
01:28:03.704:1,-0.155,-0.175
01:28:03.708:1,-0.125,-0.175
01:28:03.712:1,-0.13,-0.175
01:28:03.716:1,-0.13,-0.185
01:28:03.720:1,-0.105,-0.195
01:28:03.724:1,-0.075,-0.21
01:28:03.728:1,-0.09,-0.23
01:28:03.732:1,-0.085,-0.225
01:28:03.736:1,-0.09,-0.23
01:28:03.740:1,-0.115,-0.255
01:28:03.744:1,-0.135,-0.275
01:28:03.748:1,-0.165,-0.285
01:28:03.752:1,-0.18,-0.31
01:28:03.756:1,-0.185,-0.315
01:28:03.760:1,-0.205,-0.335
01:28:03.764:1,-0.21,-0.345
01:28:03.768:1,-0.205,-0.345
01:28:03.772:1,-0.21,-0.345
01:28:03.776:1,-0.205,-0.34
01:28:03.780:1,-0.21,-0.335
01:28:03.784:1,-0.225,-0.335
01:28:03.788:1,-0.215,-0.36
01:28:03.792:1,-0.215,-0.36
01:28:03.796:1,-0.235,-0.36
01:28:03.800:1,-0.235,-0.365
01:28:03.804:1,-0.235,-0.375
01:28:03.808:1,-0.235,-0.385
01:28:03.812:1,-0.24,-0.39
01:28:03.816:1,-0.255,-0.4
01:28:03.820:1,-0.24,-0.39
01:28:03.824:1,-0.255,-0.395
01:28:03.828:1,-0.265,-0.42
01:28:03.832:1,-0.23,-0.41
01:28:03.836:1,-0.225,-0.4
01:28:03.840:1,-0.265,-0.4
01:28:03.844:1,-0.265,-0.4
01:28:03.848:1,-0.255,-0.42
01:28:03.852:1,-0.265,-0.435
01:28:03.856:1,-0.25,-0.425
01:28:03.860:1,-0.235,-0.425
01:28:03.864:1,-0.255,-0.38
01:28:03.868:1,-0.24,-0.345
01:28:03.872:1,-0.24,-0.31
01:28:03.876:1,-0.235,-0.29
01:28:03.880:1,-0.24,-0.28
01:28:03.884:1,-0.26,-0.3
01:28:03.888:1,-0.27,-0.305
01:28:03.892:1,-0.28,-0.315
01:28:03.896:1,-0.27,-0.32
01:28:03.900:1,-0.26,-0.355
01:28:03.904:1,-0.255,-0.395
01:28:03.908:1,-0.265,-0.395
01:28:03.912:1,-0.29,-0.41
01:28:03.916:1,-0.295,-0.41
01:28:03.920:1,-0.3,-0.415
01:28:03.924:1,-0.3,-0.43
01:28:03.928:1,-0.32,-0.43
01:28:03.932:1,-0.33,-0.44
01:28:03.936:1,-0.325,-0.445
01:28:03.940:1,-0.325,-0.465
01:28:03.944:1,-0.33,-0.46
01:28:03.948:1,-0.325,-0.475
01:28:03.952:1,-0.36,-0.475
01:28:03.956:1,-0.34,-0.48
01:28:03.960:1,-0.355,-0.465
01:28:03.964:1,-0.36,-0.465
01:28:03.968:1,-0.36,-0.485
01:28:03.972:1,-0.355,-0.48
01:28:03.976:1,-0.365,-0.48
01:28:03.980:1,-0.37,-0.485
01:28:03.984:1,-0.37,-0.495
01:28:03.988:1,-0.355,-0.495
01:28:03.992:1,-0.38,-0.49
01:28:03.996:1,-0.365,-0.495
01:28:04.000:1,-0.38,-0.505
01:28:04.004:1,-0.38,-0.505
01:28:04.008:1,-0.38,-0.505
01:28:04.012:1,-0.375,-0.51
01:28:04.016:1,-0.375,-0.495
01:28:04.020:1,-0.385,-0.495
01:28:04.024:1,-0.37,-0.5
01:28:04.028:1,-0.395,-0.515
01:28:04.032:1,-0.385,-0.52
01:28:04.036:1,-0.375,-0.485
01:28:04.040:1,-0.39,-0.475
01:28:04.044:1,-0.375,-0.48
01:28:04.048:1,-0.385,-0.5
01:28:04.052:1,-0.37,-0.485
01:28:04.056:1,-0.38,-0.48
01:28:04.060:1,-0.365,-0.48
01:28:04.064:1,-0.335,-0.47
01:28:04.068:1,-0.335,-0.37
01:28:04.072:1,-0.31,-0.315
01:28:04.076:1,-0.3,-0.29
01:28:04.080:1,-0.305,-0.275
01:28:04.084:1,-0.3,-0.295
01:28:04.088:1,-0.32,-0.295
01:28:04.092:1,-0.31,-0.3
01:28:04.096:1,-0.325,-0.32
01:28:04.100:1,-0.335,-0.32
01:28:04.104:1,-0.33,-0.345
01:28:04.108:1,-0.355,-0.375
01:28:04.112:1,-0.37,-0.375
01:28:04.116:1,-0.38,-0.375
01:28:04.120:1,-0.385,-0.395
01:28:04.124:1,-0.38,-0.395
01:28:04.128:1,-0.42,-0.38
01:28:04.132:1,-0.4,-0.39
01:28:04.136:1,-0.4,-0.39
01:28:04.140:1,-0.385,-0.33
01:28:04.144:1,-0.385,-0.21
01:28:04.148:1,-0.345,0.015
01:28:04.152:1,-0.325,0.285
01:28:04.156:1,-0.265,0.535
01:28:04.160:1,-0.195,0.67
01:28:04.164:1,-0.095,0.67
01:28:04.168:1,0.0,0.51
01:28:04.172:1,0.02,0.04
01:28:04.176:1,-0.02,-0.505
01:28:04.180:1,-0.155,-0.845
01:28:04.184:1,-0.415,-0.95
01:28:04.188:1,-0.64,-0.885
01:28:04.192:1,-0.795,-0.77
01:28:04.196:1,-0.79,-0.66
01:28:04.200:1,-0.76,-0.555
01:28:04.204:1,-0.71,-0.46
01:28:04.208:1,-0.605,-0.435
01:28:04.212:1,-0.51,-0.44
01:28:04.216:1,-0.47,-0.42
01:28:04.220:1,-0.455,-0.445
01:28:04.224:1,-0.44,-0.475
01:28:04.228:1,-0.43,-0.47
01:28:04.232:1,-0.435,-0.475
01:28:04.236:1,-0.42,-0.5
01:28:04.240:1,-0.43,-0.5
01:28:04.244:1,-0.43,-0.505
01:28:04.248:1,-0.43,-0.49
01:28:04.252:1,-0.425,-0.44
01:28:04.256:1,-0.42,-0.4
01:28:04.260:1,-0.42,-0.395
01:28:04.264:1,-0.43,-0.39
01:28:04.268:1,-0.435,-0.375
01:28:04.272:1,-0.44,-0.37
01:28:04.276:1,-0.45,-0.375
01:28:04.280:1,-0.445,-0.39
01:28:04.284:1,-0.435,-0.38
01:28:04.288:1,-0.455,-0.405
01:28:04.292:1,-0.455,-0.4
01:28:04.296:1,-0.445,-0.425
01:28:04.300:1,-0.48,-0.415
01:28:04.304:1,-0.485,-0.435
01:28:04.308:1,-0.475,-0.425
01:28:04.312:1,-0.48,-0.435
01:28:04.316:1,-0.485,-0.43
01:28:04.320:1,-0.475,-0.46
01:28:04.324:1,-0.475,-0.455
01:28:04.328:1,-0.48,-0.46
01:28:04.332:1,-0.465,-0.465
01:28:04.336:1,-0.465,-0.465
01:28:04.340:1,-0.48,-0.465
01:28:04.344:1,-0.47,-0.47
01:28:04.348:1,-0.48,-0.485
01:28:04.352:1,-0.475,-0.47
01:28:04.356:1,-0.5,-0.47
01:28:04.360:1,-0.495,-0.48
01:28:04.364:1,-0.475,-0.47
01:28:04.368:1,-0.48,-0.43
01:28:04.372:1,-0.47,-0.445
01:28:04.376:1,-0.47,-0.405
01:28:04.380:1,-0.455,-0.4
01:28:04.384:1,-0.47,-0.41
01:28:04.388:1,-0.44,-0.41
01:28:04.392:1,-0.42,-0.42
01:28:04.396:1,-0.435,-0.41
01:28:04.400:1,-0.43,-0.425
01:28:04.404:1,-0.43,-0.425
01:28:04.408:1,-0.435,-0.435
01:28:04.412:1,-0.44,-0.38
01:28:04.416:1,-0.415,-0.325
01:28:04.420:1,-0.395,-0.25
01:28:04.424:1,-0.385,-0.23
01:28:04.428:1,-0.385,-0.2
01:28:04.432:1,-0.38,-0.18
01:28:04.436:1,-0.375,-0.175
01:28:04.440:1,-0.41,-0.16
01:28:04.444:1,-0.39,-0.175
01:28:04.448:1,-0.385,-0.16
01:28:04.452:1,-0.38,-0.16
01:28:04.456:1,-0.395,-0.165
01:28:04.460:1,-0.39,-0.19
01:28:04.464:1,-0.41,-0.205
01:28:04.468:1,-0.415,-0.2
01:28:04.472:1,-0.405,-0.22
01:28:04.476:1,-0.405,-0.235
01:28:04.480:1,-0.425,-0.235
01:28:04.484:1,-0.43,-0.24
01:28:04.488:1,-0.43,-0.25
01:28:04.492:1,-0.435,-0.24
01:28:04.496:1,-0.455,-0.26
01:28:04.500:1,-0.44,-0.28
01:28:04.504:1,-0.44,-0.27
01:28:04.508:1,-0.445,-0.265
01:28:04.512:1,-0.445,-0.265
01:28:04.516:1,-0.44,-0.265
01:28:04.520:1,-0.455,-0.26
01:28:04.524:1,-0.445,-0.245
01:28:04.528:1,-0.415,-0.245
01:28:04.532:1,-0.425,-0.21
01:28:04.536:1,-0.435,-0.19
01:28:04.540:1,-0.43,-0.225
01:28:04.544:1,-0.415,-0.25
01:28:04.548:1,-0.415,-0.24
01:28:04.552:1,-0.415,-0.26
01:28:04.556:1,-0.405,-0.265
01:28:04.560:1,-0.405,-0.28
01:28:04.564:1,-0.4,-0.285
01:28:04.568:1,-0.41,-0.29
01:28:04.572:1,-0.395,-0.29
01:28:04.576:1,-0.415,-0.3
01:28:04.580:1,-0.405,-0.32
01:28:04.584:1,-0.41,-0.335
01:28:04.588:1,-0.415,-0.32
01:28:04.592:1,-0.42,-0.33
01:28:04.596:1,-0.415,-0.32
01:28:04.600:1,-0.41,-0.34
01:28:04.604:1,-0.41,-0.345
01:28:04.608:1,-0.375,-0.345
01:28:04.612:1,-0.385,-0.36
01:28:04.616:1,-0.375,-0.325
01:28:04.620:1,-0.375,-0.26
01:28:04.624:1,-0.365,-0.215
01:28:04.628:1,-0.395,-0.185
01:28:04.632:1,-0.38,-0.21
01:28:04.636:1,-0.395,-0.215
01:28:04.640:1,-0.4,-0.24
01:28:04.644:1,-0.425,-0.235
01:28:04.648:1,-0.42,-0.25
01:28:04.652:1,-0.44,-0.27
01:28:04.656:1,-0.44,-0.27
01:28:04.660:1,-0.44,-0.295
01:28:04.664:1,-0.455,-0.29
01:28:04.668:1,-0.43,-0.28
01:28:04.672:1,-0.455,-0.28
01:28:04.676:1,-0.44,-0.285
01:28:04.680:1,-0.455,-0.275
01:28:04.684:1,-0.465,-0.3
01:28:04.688:1,-0.44,-0.305
01:28:04.692:1,-0.42,-0.235
01:28:04.696:1,-0.43,-0.055
01:28:04.700:1,-0.4,0.19
01:28:04.704:1,-0.35,0.46
01:28:04.708:1,-0.27,0.655
01:28:04.712:1,-0.175,0.72
01:28:04.716:1,-0.085,0.665
01:28:04.720:1,-0.04,0.385
01:28:04.724:1,-0.095,-0.11
01:28:04.728:1,-0.165,-0.545
01:28:04.732:1,-0.345,-0.77
01:28:04.736:1,-0.56,-0.785
01:28:04.740:1,-0.725,-0.71
01:28:04.744:1,-0.765,-0.58
01:28:04.748:1,-0.77,-0.47
01:28:04.752:1,-0.715,-0.375
01:28:04.756:1,-0.605,-0.33
01:28:04.760:1,-0.515,-0.325
01:28:04.764:1,-0.465,-0.32
01:28:04.768:1,-0.43,-0.36
01:28:04.772:1,-0.435,-0.365
01:28:04.776:1,-0.45,-0.38
01:28:04.780:1,-0.445,-0.39
01:28:04.784:1,-0.43,-0.39
01:28:04.788:1,-0.44,-0.385
01:28:04.792:1,-0.435,-0.4
01:28:04.796:1,-0.425,-0.405
01:28:04.800:1,-0.425,-0.39
01:28:04.804:1,-0.445,-0.395
01:28:04.808:1,-0.425,-0.38
01:28:04.812:1,-0.41,-0.335
01:28:04.816:1,-0.395,-0.27
01:28:04.820:1,-0.395,-0.235
01:28:04.824:1,-0.375,-0.25
01:28:04.828:1,-0.35,-0.23
01:28:04.832:1,-0.37,-0.22
01:28:04.836:1,-0.385,-0.21
01:28:04.840:1,-0.36,-0.19
01:28:04.844:1,-0.38,-0.2
01:28:04.848:1,-0.38,-0.21
01:28:04.852:1,-0.385,-0.24
01:28:04.856:1,-0.405,-0.235
01:28:04.860:1,-0.415,-0.21
01:28:04.864:1,-0.425,-0.21
01:28:04.868:1,-0.405,-0.225
01:28:04.872:1,-0.4,-0.255
01:28:04.876:1,-0.4,-0.26
01:28:04.880:1,-0.405,-0.265
01:28:04.884:1,-0.395,-0.285
01:28:04.888:1,-0.4,-0.28
01:28:04.892:1,-0.405,-0.28
01:28:04.896:1,-0.395,-0.3
01:28:04.900:1,-0.405,-0.29
01:28:04.904:1,-0.4,-0.285
01:28:04.908:1,-0.4,-0.31
01:28:04.912:1,-0.395,-0.3
01:28:04.916:1,-0.4,-0.275
01:28:04.920:1,-0.395,-0.28
01:28:04.924:1,-0.39,-0.285
01:28:04.928:1,-0.375,-0.285
01:28:04.932:1,-0.385,-0.295
01:28:04.936:1,-0.37,-0.27
01:28:04.940:1,-0.375,-0.275
01:28:04.944:1,-0.375,-0.26
01:28:04.948:1,-0.385,-0.28
01:28:04.952:1,-0.37,-0.275
01:28:04.956:1,-0.34,-0.24
01:28:04.960:1,-0.35,-0.225
01:28:04.964:1,-0.355,-0.23
01:28:04.968:1,-0.365,-0.22
01:28:04.972:1,-0.36,-0.195
01:28:04.976:1,-0.355,-0.175
01:28:04.980:1,-0.315,-0.13
01:28:04.984:1,-0.3,-0.085
01:28:04.988:1,-0.275,-0.075
01:28:04.992:1,-0.285,-0.07
01:28:04.996:1,-0.285,-0.055
01:28:05.000:1,-0.3,-0.03
01:28:05.004:1,-0.285,-0.04
01:28:05.008:1,-0.275,-0.045
01:28:05.012:1,-0.275,-0.05
01:28:05.016:1,-0.27,-0.035
01:28:05.020:1,-0.265,-0.035
01:28:05.024:1,-0.275,-0.03
01:28:05.028:1,-0.265,-0.07
01:28:05.032:1,-0.255,-0.09
01:28:05.036:1,-0.255,-0.08
01:28:05.040:1,-0.255,-0.08
01:28:05.044:1,-0.255,-0.12
01:28:05.048:1,-0.25,-0.13
01:28:05.052:1,-0.265,-0.115
01:28:05.056:1,-0.28,-0.12
01:28:05.060:1,-0.26,-0.135
01:28:05.064:1,-0.29,-0.125
01:28:05.068:1,-0.28,-0.14
01:28:05.072:1,-0.275,-0.165
01:28:05.076:1,-0.265,-0.16
01:28:05.080:1,-0.295,-0.145
01:28:05.084:1,-0.265,-0.165
01:28:05.088:1,-0.285,-0.16
01:28:05.092:1,-0.29,-0.19
01:28:05.096:1,-0.27,-0.19
01:28:05.100:1,-0.255,-0.185
01:28:05.104:1,-0.275,-0.215
01:28:05.108:1,-0.27,-0.225
01:28:05.112:1,-0.275,-0.235
01:28:05.116:1,-0.28,-0.26
01:28:05.120:1,-0.285,-0.28
01:28:05.124:1,-0.28,-0.255
01:28:05.128:1,-0.28,-0.075
01:28:05.132:1,-0.235,0.19
01:28:05.136:1,-0.185,0.455
01:28:05.140:1,-0.105,0.68
01:28:05.144:1,-0.03,0.77
01:28:05.148:1,0.04,0.75
01:28:05.152:1,0.095,0.575
01:28:05.156:1,0.075,0.15
01:28:05.160:1,0.02,-0.32
01:28:05.164:1,-0.11,-0.57
01:28:05.168:1,-0.32,-0.565
01:28:05.172:1,-0.535,-0.525
01:28:05.176:1,-0.6,-0.435
01:28:05.180:1,-0.575,-0.3
01:28:05.184:1,-0.55,-0.155
01:28:05.188:1,-0.475,-0.065
01:28:05.192:1,-0.36,-0.01
01:28:05.196:1,-0.29,-0.02
01:28:05.200:1,-0.25,-0.04
01:28:05.204:1,-0.22,-0.06
01:28:05.208:1,-0.205,-0.09
01:28:05.212:1,-0.205,-0.105
01:28:05.216:1,-0.19,-0.125
01:28:05.220:1,-0.195,-0.135
01:28:05.224:1,-0.205,-0.155
01:28:05.228:1,-0.21,-0.165
01:28:05.232:1,-0.185,-0.165
01:28:05.236:1,-0.215,-0.175
01:28:05.240:1,-0.235,-0.18
01:28:05.244:1,-0.23,-0.18
01:28:05.248:1,-0.22,-0.2
01:28:05.252:1,-0.235,-0.205
01:28:05.256:1,-0.24,-0.195
01:28:05.260:1,-0.225,-0.215
01:28:05.264:1,-0.225,-0.22
01:28:05.268:1,-0.235,-0.24
01:28:05.272:1,-0.215,-0.235
01:28:05.276:1,-0.215,-0.245
01:28:05.280:1,-0.22,-0.24
01:28:05.284:1,-0.225,-0.24
01:28:05.288:1,-0.23,-0.23
01:28:05.292:1,-0.225,-0.23
01:28:05.296:1,-0.235,-0.24
01:28:05.300:1,-0.24,-0.2
01:28:05.304:1,-0.225,-0.145
01:28:05.308:1,-0.23,-0.1
01:28:05.312:1,-0.225,-0.07
01:28:05.316:1,-0.23,-0.075
01:28:05.320:1,-0.22,-0.07
01:28:05.324:1,-0.21,-0.075
01:28:05.328:1,-0.21,-0.07
01:28:05.332:1,-0.19,-0.07
01:28:05.336:1,-0.195,-0.055
01:28:05.340:1,-0.185,-0.05
01:28:05.344:1,-0.19,-0.04
01:28:05.348:1,-0.185,-0.03
01:28:05.352:1,-0.175,0.01
01:28:05.356:1,-0.16,0.02
01:28:05.360:1,-0.15,0.04
01:28:05.364:1,-0.125,0.055
01:28:05.368:1,-0.14,0.09
01:28:05.372:1,-0.12,0.1
01:28:05.376:1,-0.085,0.11
01:28:05.380:1,-0.09,0.09
01:28:05.384:1,-0.085,0.075
01:28:05.388:1,-0.09,0.075
01:28:05.392:1,-0.095,0.095
01:28:05.396:1,-0.075,0.085
01:28:05.400:1,-0.09,0.07
01:28:05.404:1,-0.08,0.05
01:28:05.408:1,-0.08,0.05
01:28:05.412:1,-0.055,0.015
01:28:05.416:1,-0.075,0.0
01:28:05.420:1,-0.07,-0.035
01:28:05.424:1,-0.075,-0.055
01:28:05.428:1,-0.06,-0.07
01:28:05.432:1,-0.075,-0.08
01:28:05.436:1,-0.055,-0.09
01:28:05.440:1,-0.05,-0.105
01:28:05.444:1,-0.07,-0.105
01:28:05.448:1,-0.07,-0.105
01:28:05.452:1,-0.07,-0.13
01:28:05.456:1,-0.08,-0.11
01:28:05.460:1,-0.05,-0.115
01:28:05.464:1,-0.065,-0.145
01:28:05.468:1,-0.045,-0.145
01:28:05.472:1,-0.055,-0.16
01:28:05.476:1,-0.08,-0.15
01:28:05.480:1,-0.085,-0.095
01:28:05.484:1,-0.075,-0.035
01:28:05.488:1,-0.095,0.03
01:28:05.492:1,-0.075,0.04
01:28:05.496:1,-0.065,0.03
01:28:05.500:1,-0.06,0.01
01:28:05.504:1,-0.06,0.015
01:28:05.508:1,-0.06,0.03
01:28:05.512:1,-0.075,0.07
01:28:05.516:1,-0.065,0.06
01:28:05.520:1,-0.045,0.05
01:28:05.524:1,-0.035,0.06
01:28:05.528:1,-0.035,0.08
01:28:05.532:1,-0.035,0.05
01:28:05.536:1,-0.005,0.035
01:28:05.540:1,-0.02,0.03
01:28:05.544:1,-0.03,0.015
01:28:05.548:1,-0.015,0.02
01:28:05.552:1,-0.02,0.015
01:28:05.556:1,-0.005,-0.015
01:28:05.560:1,-0.01,0.0
01:28:05.564:1,-0.01,-0.015
01:28:05.568:1,-0.02,-0.01
01:28:05.572:1,-0.005,-0.02
01:28:05.576:1,0.0,-0.02
01:28:05.580:1,-0.01,-0.01
01:28:05.584:1,-0.02,-0.025
01:28:05.588:1,-0.015,-0.025
01:28:05.592:1,-0.01,-0.03
01:28:05.596:1,-0.025,-0.04
01:28:05.600:1,0.0,-0.06
01:28:05.604:1,-0.01,-0.075
01:28:05.608:1,-0.025,-0.07
01:28:05.612:1,-0.015,-0.08
01:28:05.616:1,-0.02,-0.095
01:28:05.620:1,-0.01,-0.095
01:28:05.624:1,-0.025,-0.11
01:28:05.628:1,-0.005,-0.13
01:28:05.632:1,-0.02,-0.135
01:28:05.636:1,-0.025,-0.135
01:28:05.640:1,-0.015,-0.12
01:28:05.644:1,0.005,-0.07
01:28:05.648:1,0.02,-0.06
01:28:05.652:1,0.025,-0.07
01:28:05.656:1,0.02,-0.04
01:28:05.660:1,0.02,-0.025
01:28:05.664:1,0.015,-0.005
01:28:05.668:1,0.02,-0.01
01:28:05.672:1,0.03,-0.005
01:28:05.676:1,0.005,-0.01
01:28:05.680:1,0.0,-0.015
01:28:05.684:1,0.0,-0.025
01:28:05.688:1,-0.02,-0.015
01:28:05.692:1,-0.01,-0.015
01:28:05.696:1,-0.02,-0.035
01:28:05.700:1,-0.005,-0.035
01:28:05.704:1,0.0,-0.02
01:28:05.708:1,0.01,-0.05
01:28:05.712:1,0.01,-0.075
01:28:05.716:1,0.0,-0.1
01:28:05.720:1,0.005,-0.1
01:28:05.724:1,0.0,-0.1
01:28:05.728:1,-0.01,-0.095
01:28:05.732:1,0.005,-0.115
01:28:05.736:1,0.005,-0.125
01:28:05.740:1,-0.01,-0.14
01:28:05.744:1,0.0,-0.11
01:28:05.748:1,-0.015,-0.11
01:28:05.752:1,0.0,-0.13
01:28:05.756:1,0.005,-0.125
01:28:05.760:1,0.0,-0.145
01:28:05.764:1,0.01,-0.16
01:28:05.768:1,0.01,-0.135
01:28:05.772:1,0.005,-0.14
01:28:05.776:1,0.005,-0.14
01:28:05.780:1,0.04,-0.14
01:28:05.784:1,0.035,-0.16
01:28:05.788:1,0.025,-0.18
01:28:05.792:1,0.035,-0.14
01:28:05.796:1,0.02,-0.045
01:28:05.800:1,0.06,0.195
01:28:05.804:1,0.11,0.5
01:28:05.808:1,0.17,0.785
01:28:05.812:1,0.22,0.94
01:28:05.816:1,0.31,0.97
01:28:05.820:1,0.41,0.915
01:28:05.824:1,0.49,0.67
01:28:05.828:1,0.52,0.18
01:28:05.832:1,0.5,-0.265
01:28:05.836:1,0.37,-0.495
01:28:05.840:1,0.13,-0.48
01:28:05.844:1,-0.12,-0.435
01:28:05.848:1,-0.22,-0.37
01:28:05.852:1,-0.225,-0.26
01:28:05.856:1,-0.195,-0.175
01:28:05.860:1,-0.145,-0.075
01:28:05.864:1,-0.055,-0.035
01:28:05.868:1,0.01,-0.03
01:28:05.872:1,0.05,-0.065
01:28:05.876:1,0.09,-0.095
01:28:05.880:1,0.075,-0.115
01:28:05.884:1,0.075,-0.135
01:28:05.888:1,0.065,-0.14
01:28:05.892:1,0.055,-0.17
01:28:05.896:1,0.055,-0.16
01:28:05.900:1,0.065,-0.175
01:28:05.904:1,0.07,-0.165
01:28:05.908:1,0.06,-0.155
01:28:05.912:1,0.065,-0.18
01:28:05.916:1,0.05,-0.185
01:28:05.920:1,0.06,-0.175
01:28:05.924:1,0.05,-0.175
01:28:05.928:1,0.075,-0.195
01:28:05.932:1,0.06,-0.215
01:28:05.936:1,0.05,-0.225
01:28:05.940:1,0.065,-0.225
01:28:05.944:1,0.065,-0.23
01:28:05.948:1,0.04,-0.22
01:28:05.952:1,0.045,-0.25
01:28:05.956:1,0.055,-0.24
01:28:05.960:1,0.055,-0.245
01:28:05.964:1,0.025,-0.23
01:28:05.968:1,0.03,-0.225
01:28:05.972:1,0.05,-0.185
01:28:05.976:1,0.04,-0.135
01:28:05.980:1,0.05,-0.08
01:28:05.984:1,0.065,-0.025
01:28:05.988:1,0.055,-0.025
01:28:05.992:1,0.085,-0.02
01:28:05.996:1,0.085,-0.01
01:28:06.000:1,0.125,-0.03
01:28:06.004:1,0.12,-0.02
01:28:06.008:1,0.135,-0.035
01:28:06.012:1,0.155,-0.05
01:28:06.016:1,0.155,-0.045
01:28:06.020:1,0.135,-0.04
01:28:06.024:1,0.135,-0.06
01:28:06.028:1,0.115,-0.06
01:28:06.032:1,0.13,-0.075
01:28:06.036:1,0.125,-0.075
01:28:06.040:1,0.13,-0.065
01:28:06.044:1,0.12,-0.04
01:28:06.048:1,0.125,-0.05
01:28:06.052:1,0.155,-0.05
01:28:06.056:1,0.135,-0.05
01:28:06.060:1,0.14,-0.02
01:28:06.064:1,0.135,-0.005
01:28:06.068:1,0.14,-0.005
01:28:06.072:1,0.14,0.015
01:28:06.076:1,0.15,0.02
01:28:06.080:1,0.175,0.045
01:28:06.084:1,0.175,0.055
01:28:06.088:1,0.18,0.045
01:28:06.092:1,0.185,0.045
01:28:06.096:1,0.195,0.02
01:28:06.100:1,0.205,0.025
01:28:06.104:1,0.205,0.02
01:28:06.108:1,0.205,0.0
01:28:06.112:1,0.205,-0.01
01:28:06.116:1,0.22,-0.01
01:28:06.120:1,0.22,-0.02
01:28:06.124:1,0.225,-0.015
01:28:06.128:1,0.24,-0.03
01:28:06.132:1,0.26,-0.02
01:28:06.136:1,0.25,-0.015
01:28:06.140:1,0.25,-0.005
01:28:06.144:1,0.26,0.01
01:28:06.148:1,0.285,0.0
01:28:06.152:1,0.3,0.015
01:28:06.156:1,0.29,0.075
01:28:06.160:1,0.31,0.12
01:28:06.164:1,0.33,0.135
01:28:06.168:1,0.345,0.13
01:28:06.172:1,0.35,0.105
01:28:06.176:1,0.33,0.105
01:28:06.180:1,0.335,0.075
01:28:06.184:1,0.315,0.05
01:28:06.188:1,0.29,0.035
01:28:06.192:1,0.265,0.05
01:28:06.196:1,0.27,0.035
01:28:06.200:1,0.255,0.03
01:28:06.204:1,0.24,0.02
01:28:06.208:1,0.25,0.0
01:28:06.212:1,0.26,0.0
01:28:06.216:1,0.275,-0.005
01:28:06.220:1,0.25,-0.005
01:28:06.224:1,0.25,0.0
01:28:06.228:1,0.25,-0.02
01:28:06.232:1,0.245,-0.015
01:28:06.236:1,0.24,-0.025
01:28:06.240:1,0.265,-0.02
01:28:06.244:1,0.26,-0.03
01:28:06.248:1,0.25,-0.045
01:28:06.252:1,0.24,-0.07
01:28:06.256:1,0.27,-0.055
01:28:06.260:1,0.245,-0.06
01:28:06.264:1,0.225,-0.08
01:28:06.268:1,0.245,-0.095
01:28:06.272:1,0.275,-0.115
01:28:06.276:1,0.255,-0.11
01:28:06.280:1,0.26,-0.1
01:28:06.284:1,0.245,-0.11
01:28:06.288:1,0.25,-0.115
01:28:06.292:1,0.245,-0.135
01:28:06.296:1,0.255,-0.14
01:28:06.300:1,0.255,-0.13
01:28:06.304:1,0.275,-0.145
01:28:06.308:1,0.3,-0.14
01:28:06.312:1,0.3,-0.1
01:28:06.316:1,0.3,-0.04
01:28:06.320:1,0.32,-0.005
01:28:06.324:1,0.34,0.01
01:28:06.328:1,0.365,-0.005
01:28:06.332:1,0.355,0.015
01:28:06.336:1,0.365,0.04
01:28:06.340:1,0.37,0.05
01:28:06.344:1,0.365,0.04
01:28:06.348:1,0.36,0.02
01:28:06.352:1,0.39,0.005
01:28:06.356:1,0.4,0.0
01:28:06.360:1,0.395,-0.005
01:28:06.364:1,0.39,-0.015
01:28:06.368:1,0.365,-0.025
01:28:06.372:1,0.355,-0.02
01:28:06.376:1,0.365,-0.045
01:28:06.380:1,0.335,-0.05
01:28:06.384:1,0.35,-0.045
01:28:06.388:1,0.335,-0.07
01:28:06.392:1,0.325,-0.085
01:28:06.396:1,0.33,-0.09
01:28:06.400:1,0.325,-0.095
01:28:06.404:1,0.335,-0.12
01:28:06.408:1,0.32,-0.07
01:28:06.412:1,0.32,0.045
01:28:06.416:1,0.365,0.285
01:28:06.420:1,0.42,0.54
01:28:06.424:1,0.47,0.765
01:28:06.428:1,0.55,0.9
01:28:06.432:1,0.655,0.89
01:28:06.436:1,0.755,0.77
01:28:06.440:1,0.775,0.355
01:28:06.444:1,0.725,-0.21
01:28:06.448:1,0.635,-0.585
01:28:06.452:1,0.385,-0.715
01:28:06.456:1,0.155,-0.685
01:28:06.460:1,0.015,-0.62
01:28:06.464:1,-0.015,-0.505
01:28:06.468:1,-0.02,-0.375
01:28:06.472:1,0.035,-0.305
01:28:06.476:1,0.12,-0.225
01:28:06.480:1,0.24,-0.21
01:28:06.484:1,0.28,-0.205
01:28:06.488:1,0.33,-0.135
01:28:06.492:1,0.37,-0.1
01:28:06.496:1,0.385,-0.055
01:28:06.500:1,0.365,-0.04
01:28:06.504:1,0.38,-0.035
01:28:06.508:1,0.355,-0.035
01:28:06.512:1,0.375,-0.03
01:28:06.516:1,0.375,-0.015
01:28:06.520:1,0.365,-0.015
01:28:06.524:1,0.37,-0.03
01:28:06.528:1,0.39,-0.05
01:28:06.532:1,0.39,-0.075
01:28:06.536:1,0.39,-0.065
01:28:06.540:1,0.38,-0.115
01:28:06.544:1,0.4,-0.145
01:28:06.548:1,0.395,-0.155
01:28:06.552:1,0.39,-0.155
01:28:06.556:1,0.38,-0.16
01:28:06.560:1,0.365,-0.17
01:28:06.564:1,0.35,-0.19
01:28:06.568:1,0.355,-0.195
01:28:06.572:1,0.34,-0.2
01:28:06.576:1,0.345,-0.195
01:28:06.580:1,0.34,-0.215
01:28:06.584:1,0.33,-0.225
01:28:06.588:1,0.335,-0.225
01:28:06.592:1,0.335,-0.235
01:28:06.596:1,0.325,-0.23
01:28:06.600:1,0.34,-0.225
01:28:06.604:1,0.335,-0.24
01:28:06.608:1,0.34,-0.25
01:28:06.612:1,0.325,-0.235
01:28:06.616:1,0.34,-0.25
01:28:06.620:1,0.335,-0.245
01:28:06.624:1,0.345,-0.245
01:28:06.628:1,0.34,-0.245
01:28:06.632:1,0.335,-0.255
01:28:06.636:1,0.355,-0.26
01:28:06.640:1,0.36,-0.225
01:28:06.644:1,0.37,-0.215
01:28:06.648:1,0.375,-0.185
01:28:06.652:1,0.38,-0.145
01:28:06.656:1,0.39,-0.12
01:28:06.660:1,0.4,-0.1
01:28:06.664:1,0.4,-0.08
01:28:06.668:1,0.385,-0.04
01:28:06.672:1,0.39,0.0
01:28:06.676:1,0.395,0.03
01:28:06.680:1,0.425,0.04
01:28:06.684:1,0.42,0.065
01:28:06.688:1,0.435,0.085
01:28:06.692:1,0.44,0.09
01:28:06.696:1,0.455,0.085
01:28:06.700:1,0.45,0.08
01:28:06.704:1,0.45,0.05
01:28:06.708:1,0.45,0.035
01:28:06.712:1,0.445,0.025
01:28:06.716:1,0.475,0.02
01:28:06.720:1,0.465,0.0
01:28:06.724:1,0.44,-0.035
01:28:06.728:1,0.445,-0.06
01:28:06.732:1,0.45,-0.07
01:28:06.736:1,0.435,-0.075
01:28:06.740:1,0.425,-0.08
01:28:06.744:1,0.435,-0.095
01:28:06.748:1,0.435,-0.1
01:28:06.752:1,0.43,-0.12
01:28:06.756:1,0.435,-0.13
01:28:06.760:1,0.425,-0.155
01:28:06.764:1,0.415,-0.15
01:28:06.768:1,0.405,-0.16
01:28:06.772:1,0.42,-0.16
01:28:06.776:1,0.41,-0.165
01:28:06.780:1,0.405,-0.185
01:28:06.784:1,0.405,-0.205
01:28:06.788:1,0.395,-0.235
01:28:06.792:1,0.405,-0.21
01:28:06.796:1,0.425,-0.215
01:28:06.800:1,0.44,-0.185
01:28:06.804:1,0.435,-0.12
01:28:06.808:1,0.45,-0.095
01:28:06.812:1,0.455,-0.08
01:28:06.816:1,0.43,-0.05
01:28:06.820:1,0.435,-0.05
01:28:06.824:1,0.42,-0.065
01:28:06.828:1,0.43,-0.075
01:28:06.832:1,0.42,-0.06
01:28:06.836:1,0.405,-0.04
01:28:06.840:1,0.405,-0.045
01:28:06.844:1,0.43,-0.025
01:28:06.848:1,0.41,-0.035
01:28:06.852:1,0.44,-0.035
01:28:06.856:1,0.445,-0.06
01:28:06.860:1,0.425,-0.06
01:28:06.864:1,0.45,-0.065
01:28:06.868:1,0.47,-0.1
01:28:06.872:1,0.445,-0.09
01:28:06.876:1,0.455,-0.095
01:28:06.880:1,0.45,-0.115
01:28:06.884:1,0.435,-0.135
01:28:06.888:1,0.435,-0.135
01:28:06.892:1,0.435,-0.135
01:28:06.896:1,0.455,-0.135
01:28:06.900:1,0.445,-0.14
01:28:06.904:1,0.45,-0.165
01:28:06.908:1,0.455,-0.175
01:28:06.912:1,0.47,-0.17
01:28:06.916:1,0.45,-0.175
01:28:06.920:1,0.455,-0.19
01:28:06.924:1,0.455,-0.195
01:28:06.928:1,0.45,-0.2
01:28:06.932:1,0.44,-0.205
01:28:06.936:1,0.455,-0.205
01:28:06.940:1,0.435,-0.215
01:28:06.944:1,0.435,-0.22
01:28:06.948:1,0.44,-0.23
01:28:06.952:1,0.455,-0.24
01:28:06.956:1,0.455,-0.245
01:28:06.960:1,0.45,-0.25
01:28:06.964:1,0.47,-0.235
01:28:06.968:1,0.465,-0.17
01:28:06.972:1,0.475,-0.125
01:28:06.976:1,0.475,-0.11
01:28:06.980:1,0.48,-0.115
01:28:06.984:1,0.47,-0.105
01:28:06.988:1,0.46,-0.085
01:28:06.992:1,0.46,-0.07
01:28:06.996:1,0.445,-0.075
01:28:07.000:1,0.44,-0.085
01:28:07.004:1,0.425,-0.09
01:28:07.008:1,0.455,-0.135
01:28:07.012:1,0.46,-0.115
01:28:07.016:1,0.445,-0.12
01:28:07.020:1,0.465,-0.11
01:28:07.024:1,0.46,-0.14
01:28:07.028:1,0.45,-0.165
01:28:07.032:1,0.46,-0.19
01:28:07.036:1,0.47,-0.165
01:28:07.040:1,0.44,-0.04
01:28:07.044:1,0.48,0.13
01:28:07.048:1,0.53,0.405
01:28:07.052:1,0.555,0.635
01:28:07.056:1,0.65,0.775
01:28:07.060:1,0.745,0.815
01:28:07.064:1,0.81,0.73
01:28:07.068:1,0.86,0.365
01:28:07.072:1,0.83,-0.18
01:28:07.076:1,0.74,-0.57
01:28:07.080:1,0.505,-0.755
01:28:07.084:1,0.28,-0.76
01:28:07.088:1,0.11,-0.68
01:28:07.092:1,0.065,-0.545
01:28:07.096:1,0.065,-0.44
01:28:07.100:1,0.135,-0.335
01:28:07.104:1,0.235,-0.295
01:28:07.108:1,0.35,-0.32
01:28:07.112:1,0.395,-0.335
01:28:07.116:1,0.44,-0.31
01:28:07.120:1,0.455,-0.28
01:28:07.124:1,0.47,-0.26
01:28:07.128:1,0.455,-0.235
01:28:07.132:1,0.47,-0.22
01:28:07.136:1,0.44,-0.205
01:28:07.140:1,0.46,-0.205
01:28:07.144:1,0.43,-0.17
01:28:07.148:1,0.43,-0.16
01:28:07.152:1,0.44,-0.16
01:28:07.156:1,0.465,-0.14
01:28:07.160:1,0.445,-0.145
01:28:07.164:1,0.465,-0.15
01:28:07.168:1,0.445,-0.13
01:28:07.172:1,0.455,-0.12
01:28:07.176:1,0.47,-0.145
01:28:07.180:1,0.495,-0.15
01:28:07.184:1,0.5,-0.185
01:28:07.188:1,0.49,-0.18
01:28:07.192:1,0.495,-0.195
01:28:07.196:1,0.49,-0.22
01:28:07.200:1,0.495,-0.23
01:28:07.204:1,0.48,-0.23
01:28:07.208:1,0.495,-0.255
01:28:07.212:1,0.475,-0.25
01:28:07.216:1,0.475,-0.265
01:28:07.220:1,0.48,-0.27
01:28:07.224:1,0.475,-0.275
01:28:07.228:1,0.46,-0.28
01:28:07.232:1,0.475,-0.29
01:28:07.236:1,0.475,-0.285
01:28:07.240:1,0.455,-0.305
01:28:07.244:1,0.445,-0.305
01:28:07.248:1,0.47,-0.315
01:28:07.252:1,0.46,-0.31
01:28:07.256:1,0.485,-0.315
01:28:07.260:1,0.48,-0.33
01:28:07.264:1,0.48,-0.335
01:28:07.268:1,0.47,-0.315
01:28:07.272:1,0.47,-0.285
01:28:07.276:1,0.485,-0.23
01:28:07.280:1,0.5,-0.19
01:28:07.284:1,0.51,-0.16
01:28:07.288:1,0.505,-0.125
01:28:07.292:1,0.5,-0.095
01:28:07.296:1,0.5,-0.1
01:28:07.300:1,0.5,-0.065
01:28:07.304:1,0.52,-0.05
01:28:07.308:1,0.52,-0.01
01:28:07.312:1,0.54,0.015
01:28:07.316:1,0.53,0.035
01:28:07.320:1,0.535,0.08
01:28:07.324:1,0.525,0.095
01:28:07.328:1,0.535,0.085
01:28:07.332:1,0.555,0.06
01:28:07.336:1,0.575,0.06
01:28:07.340:1,0.585,0.025
01:28:07.344:1,0.575,0.015
01:28:07.348:1,0.57,0.0
01:28:07.352:1,0.555,-0.02
01:28:07.356:1,0.57,-0.06
01:28:07.360:1,0.575,-0.08
01:28:07.364:1,0.56,-0.095
01:28:07.368:1,0.555,-0.125
01:28:07.372:1,0.54,-0.11
01:28:07.376:1,0.525,-0.125
01:28:07.380:1,0.52,-0.135
01:28:07.384:1,0.52,-0.145
01:28:07.388:1,0.52,-0.14
01:28:07.392:1,0.52,-0.15
01:28:07.396:1,0.52,-0.17
01:28:07.400:1,0.545,-0.19
01:28:07.404:1,0.52,-0.18
01:28:07.408:1,0.53,-0.195
01:28:07.412:1,0.52,-0.21
01:28:07.416:1,0.515,-0.21
01:28:07.420:1,0.48,-0.205
01:28:07.424:1,0.5,-0.215
01:28:07.428:1,0.505,-0.185
01:28:07.432:1,0.515,-0.205
01:28:07.436:1,0.51,-0.235
01:28:07.440:1,0.52,-0.265
01:28:07.444:1,0.515,-0.27
01:28:07.448:1,0.515,-0.275
01:28:07.452:1,0.525,-0.24
01:28:07.456:1,0.54,-0.155
01:28:07.460:1,0.545,-0.07
01:28:07.464:1,0.55,-0.04
01:28:07.468:1,0.545,-0.01
01:28:07.472:1,0.56,-0.025
01:28:07.476:1,0.53,-0.04
01:28:07.480:1,0.54,-0.065
01:28:07.484:1,0.53,-0.09
01:28:07.488:1,0.52,-0.1
01:28:07.492:1,0.51,-0.13
01:28:07.496:1,0.515,-0.155
01:28:07.500:1,0.505,-0.155
01:28:07.504:1,0.51,-0.15
01:28:07.508:1,0.5,-0.165
01:28:07.512:1,0.495,-0.2
01:28:07.516:1,0.48,-0.19
01:28:07.520:1,0.49,-0.2
01:28:07.524:1,0.475,-0.175
01:28:07.528:1,0.48,-0.195
01:28:07.532:1,0.48,-0.205
01:28:07.536:1,0.475,-0.24
01:28:07.540:1,0.48,-0.265
01:28:07.544:1,0.47,-0.245
01:28:07.548:1,0.46,-0.16
01:28:07.552:1,0.51,0.0
01:28:07.556:1,0.54,0.215
01:28:07.560:1,0.565,0.425
01:28:07.564:1,0.625,0.6
01:28:07.568:1,0.73,0.655
01:28:07.572:1,0.8,0.605
01:28:07.576:1,0.825,0.36
01:28:07.580:1,0.8,-0.095
01:28:07.584:1,0.715,-0.49
01:28:07.588:1,0.535,-0.695
01:28:07.592:1,0.295,-0.72
01:28:07.596:1,0.12,-0.675
01:28:07.600:1,0.05,-0.61
01:28:07.604:1,0.045,-0.47
01:28:07.608:1,0.105,-0.365
01:28:07.612:1,0.225,-0.335
01:28:07.616:1,0.33,-0.35
01:28:07.620:1,0.4,-0.335
01:28:07.624:1,0.43,-0.3
01:28:07.628:1,0.45,-0.26
01:28:07.632:1,0.465,-0.22
01:28:07.636:1,0.445,-0.21
01:28:07.640:1,0.46,-0.18
01:28:07.644:1,0.45,-0.17
01:28:07.648:1,0.455,-0.15
01:28:07.652:1,0.44,-0.165
01:28:07.656:1,0.455,-0.175
01:28:07.660:1,0.475,-0.19
01:28:07.664:1,0.475,-0.195
01:28:07.668:1,0.48,-0.2
01:28:07.672:1,0.485,-0.22
01:28:07.676:1,0.46,-0.235
01:28:07.680:1,0.435,-0.26
01:28:07.684:1,0.455,-0.245
01:28:07.688:1,0.455,-0.235
01:28:07.692:1,0.445,-0.245
01:28:07.696:1,0.435,-0.27
01:28:07.700:1,0.42,-0.285
01:28:07.704:1,0.43,-0.28
01:28:07.708:1,0.425,-0.295
01:28:07.712:1,0.45,-0.315
01:28:07.716:1,0.425,-0.295
01:28:07.720:1,0.43,-0.32
01:28:07.724:1,0.435,-0.31
01:28:07.728:1,0.425,-0.32
01:28:07.732:1,0.415,-0.35
01:28:07.736:1,0.415,-0.365
01:28:07.740:1,0.42,-0.35
01:28:07.744:1,0.415,-0.34
01:28:07.748:1,0.4,-0.355
01:28:07.752:1,0.415,-0.36
01:28:07.756:1,0.415,-0.375
01:28:07.760:1,0.42,-0.36
01:28:07.764:1,0.43,-0.325
01:28:07.768:1,0.43,-0.29
01:28:07.772:1,0.43,-0.27
01:28:07.776:1,0.44,-0.265
01:28:07.780:1,0.45,-0.245
01:28:07.784:1,0.43,-0.215
01:28:07.788:1,0.425,-0.2
01:28:07.792:1,0.415,-0.2
01:28:07.796:1,0.41,-0.165
01:28:07.800:1,0.42,-0.13
01:28:07.804:1,0.395,-0.11
01:28:07.808:1,0.425,-0.1
01:28:07.812:1,0.43,-0.1
01:28:07.816:1,0.43,-0.075
01:28:07.820:1,0.455,-0.075
01:28:07.824:1,0.455,-0.07
01:28:07.828:1,0.445,-0.075
01:28:07.832:1,0.445,-0.1
01:28:07.836:1,0.44,-0.125
01:28:07.840:1,0.44,-0.14
01:28:07.844:1,0.435,-0.14
01:28:07.848:1,0.46,-0.17
01:28:07.852:1,0.455,-0.17
01:28:07.856:1,0.45,-0.215
01:28:07.860:1,0.445,-0.24
01:28:07.864:1,0.44,-0.25
01:28:07.868:1,0.43,-0.27
01:28:07.872:1,0.44,-0.295
01:28:07.876:1,0.435,-0.295
01:28:07.880:1,0.44,-0.295
01:28:07.884:1,0.44,-0.32
