Time,ECG1,ECG2
01:29:27.976:1,0.72,-0.155
01:29:27.980:1,0.695,-0.155
01:29:27.984:1,0.68,-0.18
01:29:27.988:1,0.655,-0.2
01:29:27.992:1,0.655,-0.205
01:29:27.996:1,0.62,-0.195
01:29:28.000:1,0.62,-0.19
01:29:28.004:1,0.635,-0.2
01:29:28.008:1,0.63,-0.18
01:29:28.012:1,0.635,-0.17
01:29:28.016:1,0.63,-0.17
01:29:28.020:1,0.65,-0.17
01:29:28.024:1,0.625,-0.155
01:29:28.028:1,0.63,-0.15
01:29:28.032:1,0.65,-0.145
01:29:28.036:1,0.635,-0.125
01:29:28.040:1,0.645,-0.11
01:29:28.044:1,0.645,-0.11
01:29:28.048:1,0.64,-0.09
01:29:28.052:1,0.645,-0.08
01:29:28.056:1,0.63,-0.075
01:29:28.060:1,0.635,-0.075
01:29:28.064:1,0.645,-0.055
01:29:28.068:1,0.645,-0.065
01:29:28.072:1,0.665,-0.05
01:29:28.076:1,0.655,-0.045
01:29:28.080:1,0.665,-0.035
01:29:28.084:1,0.66,-0.07
01:29:28.088:1,0.68,-0.075
01:29:28.092:1,0.665,-0.085
01:29:28.096:1,0.66,-0.11
01:29:28.100:1,0.67,-0.12
01:29:28.104:1,0.665,-0.125
01:29:28.108:1,0.66,-0.14
01:29:28.112:1,0.63,-0.135
01:29:28.116:1,0.645,-0.15
01:29:28.120:1,0.63,-0.16
01:29:28.124:1,0.625,-0.17
01:29:28.128:1,0.64,-0.15
01:29:28.132:1,0.635,-0.145
01:29:28.136:1,0.635,-0.12
01:29:28.140:1,0.66,-0.125
01:29:28.144:1,0.66,-0.14
01:29:28.148:1,0.665,-0.17
01:29:28.152:1,0.67,-0.13
01:29:28.156:1,0.655,-0.02
01:29:28.160:1,0.685,0.165
01:29:28.164:1,0.735,0.34
01:29:28.168:1,0.765,0.545
01:29:28.172:1,0.77,0.67
01:29:28.176:1,0.83,0.705
01:29:28.180:1,0.925,0.675
01:29:28.184:1,0.995,0.44
01:29:28.188:1,1.09,0.15
01:29:28.192:1,1.185,-0.215
01:29:28.196:1,1.23,-0.455
01:29:28.200:1,1.175,-0.52
01:29:28.204:1,1.01,-0.61
01:29:28.208:1,0.82,-0.645
01:29:28.212:1,0.685,-0.63
01:29:28.216:1,0.6,-0.545
01:29:28.220:1,0.575,-0.42
01:29:28.224:1,0.53,-0.31
01:29:28.228:1,0.485,-0.245
01:29:28.232:1,0.495,-0.225
01:29:28.236:1,0.545,-0.215
01:29:28.240:1,0.555,-0.22
01:29:28.244:1,0.545,-0.245
01:29:28.248:1,0.55,-0.25
01:29:28.252:1,0.56,-0.25
01:29:28.256:1,0.54,-0.25
01:29:28.260:1,0.54,-0.26
01:29:28.264:1,0.52,-0.27
01:29:28.268:1,0.52,-0.29
01:29:28.272:1,0.515,-0.29
01:29:28.276:1,0.51,-0.31
01:29:28.280:1,0.5,-0.305
01:29:28.284:1,0.515,-0.315
01:29:28.288:1,0.52,-0.315
01:29:28.292:1,0.515,-0.34
01:29:28.296:1,0.515,-0.335
01:29:28.300:1,0.52,-0.34
01:29:28.304:1,0.505,-0.32
01:29:28.308:1,0.51,-0.285
01:29:28.312:1,0.525,-0.24
01:29:28.316:1,0.545,-0.205
01:29:28.320:1,0.535,-0.195
01:29:28.324:1,0.53,-0.18
01:29:28.328:1,0.51,-0.145
01:29:28.332:1,0.515,-0.15
01:29:28.336:1,0.54,-0.105
01:29:28.340:1,0.505,-0.075
01:29:28.344:1,0.52,-0.09
01:29:28.348:1,0.545,-0.11
01:29:28.352:1,0.525,-0.105
01:29:28.356:1,0.51,-0.11
01:29:28.360:1,0.54,-0.125
01:29:28.364:1,0.53,-0.155
01:29:28.368:1,0.535,-0.15
01:29:28.372:1,0.51,-0.165
01:29:28.376:1,0.51,-0.15
01:29:28.380:1,0.53,-0.155
01:29:28.384:1,0.52,-0.155
01:29:28.388:1,0.52,-0.165
01:29:28.392:1,0.515,-0.13
01:29:28.396:1,0.515,-0.145
01:29:28.400:1,0.515,-0.155
01:29:28.404:1,0.51,-0.15
01:29:28.408:1,0.495,-0.135
01:29:28.412:1,0.51,-0.14
01:29:28.416:1,0.505,-0.105
01:29:28.420:1,0.49,-0.105
01:29:28.424:1,0.515,-0.105
01:29:28.428:1,0.52,-0.11
01:29:28.432:1,0.5,-0.095
01:29:28.436:1,0.51,-0.105
01:29:28.440:1,0.515,-0.11
01:29:28.444:1,0.51,-0.155
01:29:28.448:1,0.51,-0.135
01:29:28.452:1,0.515,-0.125
01:29:28.456:1,0.525,-0.07
01:29:28.460:1,0.545,-0.06
01:29:28.464:1,0.565,-0.075
01:29:28.468:1,0.575,-0.065
01:29:28.472:1,0.565,-0.07
01:29:28.476:1,0.56,-0.085
01:29:28.480:1,0.565,-0.095
01:29:28.484:1,0.57,-0.125
01:29:28.488:1,0.545,-0.12
01:29:28.492:1,0.575,-0.125
01:29:28.496:1,0.555,-0.115
01:29:28.500:1,0.555,-0.115
01:29:28.504:1,0.55,-0.115
01:29:28.508:1,0.54,-0.11
01:29:28.512:1,0.55,-0.095
01:29:28.516:1,0.555,-0.11
01:29:28.520:1,0.555,-0.12
01:29:28.524:1,0.56,-0.13
01:29:28.528:1,0.56,-0.13
01:29:28.532:1,0.56,-0.15
01:29:28.536:1,0.575,-0.14
01:29:28.540:1,0.585,-0.17
01:29:28.544:1,0.585,-0.21
01:29:28.548:1,0.58,-0.22
01:29:28.552:1,0.565,-0.23
01:29:28.556:1,0.545,-0.225
01:29:28.560:1,0.55,-0.275
01:29:28.564:1,0.54,-0.28
01:29:28.568:1,0.52,-0.285
01:29:28.572:1,0.535,-0.3
01:29:28.576:1,0.515,-0.305
01:29:28.580:1,0.525,-0.32
01:29:28.584:1,0.515,-0.335
01:29:28.588:1,0.525,-0.35
01:29:28.592:1,0.51,-0.335
01:29:28.596:1,0.505,-0.35
01:29:28.600:1,0.515,-0.4
01:29:28.604:1,0.5,-0.4
01:29:28.608:1,0.475,-0.34
01:29:28.612:1,0.495,-0.325
01:29:28.616:1,0.505,-0.295
01:29:28.620:1,0.49,-0.265
01:29:28.624:1,0.465,-0.275
01:29:28.628:1,0.475,-0.275
01:29:28.632:1,0.465,-0.265
01:29:28.636:1,0.465,-0.26
01:29:28.640:1,0.44,-0.28
01:29:28.644:1,0.445,-0.28
01:29:28.648:1,0.445,-0.275
01:29:28.652:1,0.435,-0.27
01:29:28.656:1,0.435,-0.3
01:29:28.660:1,0.435,-0.3
01:29:28.664:1,0.425,-0.3
01:29:28.668:1,0.435,-0.32
01:29:28.672:1,0.445,-0.3
01:29:28.676:1,0.425,-0.295
01:29:28.680:1,0.425,-0.285
01:29:28.684:1,0.44,-0.295
01:29:28.688:1,0.435,-0.315
01:29:28.692:1,0.45,-0.32
01:29:28.696:1,0.42,-0.325
01:29:28.700:1,0.44,-0.31
01:29:28.704:1,0.435,-0.22
01:29:28.708:1,0.455,-0.065
01:29:28.712:1,0.49,0.15
01:29:28.716:1,0.53,0.39
01:29:28.720:1,0.58,0.635
01:29:28.724:1,0.675,0.705
01:29:28.728:1,0.785,0.695
01:29:28.732:1,0.845,0.575
01:29:28.736:1,0.81,0.19
01:29:28.740:1,0.765,-0.36
01:29:28.744:1,0.635,-0.73
01:29:28.748:1,0.38,-0.905
01:29:28.752:1,0.165,-0.88
01:29:28.756:1,0.05,-0.75
01:29:28.760:1,0.015,-0.59
01:29:28.764:1,0.05,-0.49
01:29:28.768:1,0.12,-0.375
01:29:28.772:1,0.26,-0.29
01:29:28.776:1,0.33,-0.29
01:29:28.780:1,0.385,-0.31
01:29:28.784:1,0.425,-0.315
01:29:28.788:1,0.425,-0.315
01:29:28.792:1,0.41,-0.315
01:29:28.796:1,0.415,-0.32
01:29:28.800:1,0.405,-0.33
01:29:28.804:1,0.4,-0.335
01:29:28.808:1,0.395,-0.35
01:29:28.812:1,0.37,-0.35
01:29:28.816:1,0.37,-0.36
01:29:28.820:1,0.365,-0.39
01:29:28.824:1,0.375,-0.38
01:29:28.828:1,0.36,-0.375
01:29:28.832:1,0.37,-0.385
01:29:28.836:1,0.365,-0.375
01:29:28.840:1,0.365,-0.36
01:29:28.844:1,0.385,-0.39
01:29:28.848:1,0.36,-0.395
01:29:28.852:1,0.39,-0.385
01:29:28.856:1,0.375,-0.385
01:29:28.860:1,0.365,-0.41
01:29:28.864:1,0.375,-0.4
01:29:28.868:1,0.36,-0.415
01:29:28.872:1,0.355,-0.375
01:29:28.876:1,0.375,-0.355
01:29:28.880:1,0.385,-0.35
01:29:28.884:1,0.385,-0.35
01:29:28.888:1,0.395,-0.355
01:29:28.892:1,0.41,-0.315
01:29:28.896:1,0.4,-0.31
01:29:28.900:1,0.42,-0.325
01:29:28.904:1,0.43,-0.355
01:29:28.908:1,0.44,-0.355
01:29:28.912:1,0.435,-0.38
01:29:28.916:1,0.425,-0.405
01:29:28.920:1,0.435,-0.415
01:29:28.924:1,0.43,-0.425
01:29:28.928:1,0.445,-0.42
01:29:28.932:1,0.43,-0.395
01:29:28.936:1,0.43,-0.37
01:29:28.940:1,0.43,-0.335
01:29:28.944:1,0.47,-0.3
01:29:28.948:1,0.455,-0.28
01:29:28.952:1,0.445,-0.265
01:29:28.956:1,0.445,-0.26
01:29:28.960:1,0.45,-0.26
01:29:28.964:1,0.425,-0.255
01:29:28.968:1,0.41,-0.25
01:29:28.972:1,0.37,-0.23
01:29:28.976:1,0.375,-0.225
01:29:28.980:1,0.37,-0.22
01:29:28.984:1,0.37,-0.21
01:29:28.988:1,0.375,-0.18
01:29:28.992:1,0.38,-0.165
01:29:28.996:1,0.365,-0.15
01:29:29.000:1,0.37,-0.15
01:29:29.004:1,0.36,-0.145
01:29:29.008:1,0.365,-0.135
01:29:29.012:1,0.37,-0.135
01:29:29.016:1,0.38,-0.12
01:29:29.020:1,0.395,-0.165
01:29:29.024:1,0.39,-0.18
01:29:29.028:1,0.395,-0.185
01:29:29.032:1,0.375,-0.205
01:29:29.036:1,0.365,-0.22
01:29:29.040:1,0.37,-0.2
01:29:29.044:1,0.385,-0.21
01:29:29.048:1,0.375,-0.22
01:29:29.052:1,0.38,-0.18
01:29:29.056:1,0.39,-0.165
01:29:29.060:1,0.395,-0.19
01:29:29.064:1,0.39,-0.215
01:29:29.068:1,0.4,-0.235
01:29:29.072:1,0.38,-0.24
01:29:29.076:1,0.38,-0.28
01:29:29.080:1,0.42,-0.285
01:29:29.084:1,0.4,-0.295
01:29:29.088:1,0.4,-0.315
01:29:29.092:1,0.385,-0.32
01:29:29.096:1,0.385,-0.315
01:29:29.100:1,0.385,-0.32
01:29:29.104:1,0.375,-0.315
01:29:29.108:1,0.395,-0.29
01:29:29.112:1,0.4,-0.265
01:29:29.116:1,0.415,-0.24
01:29:29.120:1,0.41,-0.25
01:29:29.124:1,0.405,-0.24
01:29:29.128:1,0.4,-0.245
01:29:29.132:1,0.365,-0.25
01:29:29.136:1,0.355,-0.26
01:29:29.140:1,0.355,-0.28
01:29:29.144:1,0.335,-0.29
01:29:29.148:1,0.31,-0.31
01:29:29.152:1,0.315,-0.33
01:29:29.156:1,0.305,-0.36
01:29:29.160:1,0.31,-0.32
01:29:29.164:1,0.295,-0.22
01:29:29.168:1,0.335,-0.025
01:29:29.172:1,0.36,0.205
01:29:29.176:1,0.415,0.4
01:29:29.180:1,0.49,0.485
01:29:29.184:1,0.575,0.45
01:29:29.188:1,0.635,0.305
01:29:29.192:1,0.61,-0.07
01:29:29.196:1,0.495,-0.51
01:29:29.200:1,0.34,-0.76
01:29:29.204:1,0.15,-0.82
01:29:29.208:1,0.0,-0.765
01:29:29.212:1,-0.075,-0.67
01:29:29.216:1,-0.095,-0.58
01:29:29.220:1,-0.045,-0.475
01:29:29.224:1,0.025,-0.385
01:29:29.228:1,0.13,-0.375
01:29:29.232:1,0.22,-0.37
01:29:29.236:1,0.27,-0.375
01:29:29.240:1,0.29,-0.395
01:29:29.244:1,0.295,-0.405
01:29:29.248:1,0.3,-0.4
01:29:29.252:1,0.29,-0.425
01:29:29.256:1,0.29,-0.45
01:29:29.260:1,0.285,-0.445
01:29:29.264:1,0.28,-0.45
01:29:29.268:1,0.285,-0.49
01:29:29.272:1,0.315,-0.475
01:29:29.276:1,0.305,-0.455
01:29:29.280:1,0.31,-0.43
01:29:29.284:1,0.315,-0.4
01:29:29.288:1,0.325,-0.37
01:29:29.292:1,0.355,-0.355
01:29:29.296:1,0.33,-0.355
01:29:29.300:1,0.305,-0.345
01:29:29.304:1,0.295,-0.345
01:29:29.308:1,0.265,-0.355
01:29:29.312:1,0.265,-0.37
01:29:29.316:1,0.25,-0.365
01:29:29.320:1,0.235,-0.365
01:29:29.324:1,0.225,-0.385
01:29:29.328:1,0.24,-0.375
01:29:29.332:1,0.205,-0.385
01:29:29.336:1,0.215,-0.395
01:29:29.340:1,0.21,-0.395
01:29:29.344:1,0.205,-0.39
01:29:29.348:1,0.21,-0.39
01:29:29.352:1,0.22,-0.395
01:29:29.356:1,0.225,-0.385
01:29:29.360:1,0.21,-0.375
01:29:29.364:1,0.215,-0.37
01:29:29.368:1,0.225,-0.37
01:29:29.372:1,0.225,-0.39
01:29:29.376:1,0.25,-0.375
01:29:29.380:1,0.205,-0.365
01:29:29.384:1,0.225,-0.35
01:29:29.388:1,0.23,-0.335
01:29:29.392:1,0.23,-0.305
01:29:29.396:1,0.245,-0.295
01:29:29.400:1,0.245,-0.265
01:29:29.404:1,0.25,-0.265
01:29:29.408:1,0.29,-0.255
01:29:29.412:1,0.28,-0.255
01:29:29.416:1,0.28,-0.27
01:29:29.420:1,0.28,-0.285
01:29:29.424:1,0.285,-0.3
01:29:29.428:1,0.29,-0.32
01:29:29.432:1,0.29,-0.325
01:29:29.436:1,0.28,-0.315
01:29:29.440:1,0.285,-0.285
01:29:29.444:1,0.27,-0.275
01:29:29.448:1,0.3,-0.27
01:29:29.452:1,0.305,-0.29
01:29:29.456:1,0.295,-0.245
01:29:29.460:1,0.295,-0.22
01:29:29.464:1,0.315,-0.195
01:29:29.468:1,0.33,-0.18
01:29:29.472:1,0.345,-0.2
01:29:29.476:1,0.315,-0.235
01:29:29.480:1,0.295,-0.25
01:29:29.484:1,0.3,-0.275
01:29:29.488:1,0.26,-0.265
01:29:29.492:1,0.225,-0.275
01:29:29.496:1,0.23,-0.275
01:29:29.500:1,0.205,-0.31
01:29:29.504:1,0.215,-0.3
01:29:29.508:1,0.195,-0.32
01:29:29.512:1,0.185,-0.34
01:29:29.516:1,0.2,-0.35
01:29:29.520:1,0.215,-0.335
01:29:29.524:1,0.2,-0.33
01:29:29.528:1,0.205,-0.33
01:29:29.532:1,0.195,-0.35
01:29:29.536:1,0.18,-0.36
01:29:29.540:1,0.185,-0.365
01:29:29.544:1,0.21,-0.35
01:29:29.548:1,0.185,-0.335
01:29:29.552:1,0.185,-0.33
01:29:29.556:1,0.2,-0.34
01:29:29.560:1,0.18,-0.32
01:29:29.564:1,0.22,-0.305
01:29:29.568:1,0.22,-0.3
01:29:29.572:1,0.21,-0.3
01:29:29.576:1,0.225,-0.3
01:29:29.580:1,0.22,-0.32
01:29:29.584:1,0.215,-0.33
01:29:29.588:1,0.23,-0.32
01:29:29.592:1,0.23,-0.335
01:29:29.596:1,0.245,-0.385
01:29:29.600:1,0.235,-0.385
01:29:29.604:1,0.235,-0.345
01:29:29.608:1,0.27,-0.23
01:29:29.612:1,0.305,-0.035
01:29:29.616:1,0.305,0.185
01:29:29.620:1,0.355,0.35
01:29:29.624:1,0.44,0.415
01:29:29.628:1,0.52,0.37
01:29:29.632:1,0.57,0.135
01:29:29.636:1,0.575,-0.33
01:29:29.640:1,0.525,-0.69
01:29:29.644:1,0.375,-0.84
01:29:29.648:1,0.1,-0.8
01:29:29.652:1,-0.105,-0.785
01:29:29.656:1,-0.195,-0.75
01:29:29.660:1,-0.19,-0.67
01:29:29.664:1,-0.16,-0.555
01:29:29.668:1,-0.135,-0.47
01:29:29.672:1,-0.06,-0.42
01:29:29.676:1,0.015,-0.45
01:29:29.680:1,0.07,-0.465
01:29:29.684:1,0.1,-0.47
01:29:29.688:1,0.085,-0.475
01:29:29.692:1,0.09,-0.495
01:29:29.696:1,0.07,-0.5
01:29:29.700:1,0.07,-0.505
01:29:29.704:1,0.075,-0.495
01:29:29.708:1,0.08,-0.5
01:29:29.712:1,0.07,-0.49
01:29:29.716:1,0.065,-0.49
01:29:29.720:1,0.065,-0.505
01:29:29.724:1,0.055,-0.52
01:29:29.728:1,0.055,-0.52
01:29:29.732:1,0.05,-0.505
01:29:29.736:1,0.06,-0.53
01:29:29.740:1,0.06,-0.515
01:29:29.744:1,0.06,-0.51
01:29:29.748:1,0.07,-0.49
01:29:29.752:1,0.07,-0.455
01:29:29.756:1,0.09,-0.455
01:29:29.760:1,0.115,-0.47
01:29:29.764:1,0.11,-0.435
01:29:29.768:1,0.11,-0.435
01:29:29.772:1,0.1,-0.49
01:29:29.776:1,0.105,-0.49
01:29:29.780:1,0.115,-0.48
01:29:29.784:1,0.125,-0.505
01:29:29.788:1,0.13,-0.525
01:29:29.792:1,0.14,-0.515
01:29:29.796:1,0.12,-0.455
01:29:29.800:1,0.125,-0.415
01:29:29.804:1,0.15,-0.38
01:29:29.808:1,0.115,-0.38
01:29:29.812:1,0.125,-0.41
01:29:29.816:1,0.115,-0.415
01:29:29.820:1,0.095,-0.41
01:29:29.824:1,0.07,-0.41
01:29:29.828:1,0.06,-0.39
01:29:29.832:1,0.05,-0.4
01:29:29.836:1,0.025,-0.385
01:29:29.840:1,0.045,-0.38
01:29:29.844:1,0.045,-0.37
01:29:29.848:1,0.04,-0.375
01:29:29.852:1,0.02,-0.39
01:29:29.856:1,0.025,-0.38
01:29:29.860:1,0.035,-0.355
01:29:29.864:1,0.035,-0.33
01:29:29.868:1,0.04,-0.32
01:29:29.872:1,0.025,-0.29
01:29:29.876:1,0.035,-0.28
01:29:29.880:1,0.035,-0.26
01:29:29.884:1,0.03,-0.25
01:29:29.888:1,0.055,-0.255
01:29:29.892:1,0.055,-0.24
01:29:29.896:1,0.065,-0.25
01:29:29.900:1,0.06,-0.26
01:29:29.904:1,0.075,-0.26
01:29:29.908:1,0.065,-0.285
01:29:29.912:1,0.09,-0.295
01:29:29.916:1,0.085,-0.325
01:29:29.920:1,0.08,-0.35
01:29:29.924:1,0.085,-0.375
01:29:29.928:1,0.045,-0.4
01:29:29.932:1,0.035,-0.42
01:29:29.936:1,0.04,-0.435
01:29:29.940:1,0.04,-0.405
01:29:29.944:1,0.035,-0.415
01:29:29.948:1,0.035,-0.41
01:29:29.952:1,0.06,-0.41
01:29:29.956:1,0.075,-0.4
01:29:29.960:1,0.075,-0.405
01:29:29.964:1,0.075,-0.4
01:29:29.968:1,0.095,-0.375
01:29:29.972:1,0.09,-0.315
01:29:29.976:1,0.11,-0.3
01:29:29.980:1,0.145,-0.27
01:29:29.984:1,0.135,-0.26
01:29:29.988:1,0.135,-0.26
01:29:29.992:1,0.135,-0.285
01:29:29.996:1,0.095,-0.28
01:29:30.000:1,0.075,-0.275
01:29:30.004:1,0.065,-0.235
01:29:30.008:1,0.06,-0.12
01:29:30.012:1,0.09,0.085
01:29:30.016:1,0.14,0.345
01:29:30.020:1,0.19,0.68
01:29:30.024:1,0.27,0.93
01:29:30.028:1,0.375,0.93
01:29:30.032:1,0.48,0.715
01:29:30.036:1,0.52,0.33
01:29:30.040:1,0.495,-0.23
01:29:30.044:1,0.37,-0.72
01:29:30.048:1,0.165,-0.98
01:29:30.052:1,-0.05,-0.925
01:29:30.056:1,-0.25,-0.835
01:29:30.060:1,-0.32,-0.745
01:29:30.064:1,-0.34,-0.64
01:29:30.068:1,-0.325,-0.54
01:29:30.072:1,-0.24,-0.47
01:29:30.076:1,-0.15,-0.445
01:29:30.080:1,-0.07,-0.46
01:29:30.084:1,-0.06,-0.475
01:29:30.088:1,-0.055,-0.5
01:29:30.092:1,-0.055,-0.49
01:29:30.096:1,-0.055,-0.485
01:29:30.100:1,-0.055,-0.485
01:29:30.104:1,-0.065,-0.49
01:29:30.108:1,-0.06,-0.51
01:29:30.112:1,-0.065,-0.505
01:29:30.116:1,-0.06,-0.5
01:29:30.120:1,-0.075,-0.505
01:29:30.124:1,-0.08,-0.5
01:29:30.128:1,-0.075,-0.525
01:29:30.132:1,-0.08,-0.52
01:29:30.136:1,-0.095,-0.515
01:29:30.140:1,-0.095,-0.525
01:29:30.144:1,-0.085,-0.52
01:29:30.148:1,-0.1,-0.53
01:29:30.152:1,-0.095,-0.52
01:29:30.156:1,-0.09,-0.51
01:29:30.160:1,-0.105,-0.52
01:29:30.164:1,-0.09,-0.51
01:29:30.168:1,-0.105,-0.515
01:29:30.172:1,-0.115,-0.515
01:29:30.176:1,-0.11,-0.52
01:29:30.180:1,-0.12,-0.51
01:29:30.184:1,-0.11,-0.525
01:29:30.188:1,-0.12,-0.52
01:29:30.192:1,-0.115,-0.525
01:29:30.196:1,-0.11,-0.535
01:29:30.200:1,-0.105,-0.55
01:29:30.204:1,-0.105,-0.54
01:29:30.208:1,-0.125,-0.555
01:29:30.212:1,-0.12,-0.535
01:29:30.216:1,-0.145,-0.525
01:29:30.220:1,-0.14,-0.49
01:29:30.224:1,-0.12,-0.5
01:29:30.228:1,-0.095,-0.5
01:29:30.232:1,-0.125,-0.495
01:29:30.236:1,-0.095,-0.49
01:29:30.240:1,-0.095,-0.505
01:29:30.244:1,-0.095,-0.53
01:29:30.248:1,-0.095,-0.545
01:29:30.252:1,-0.08,-0.5
01:29:30.256:1,-0.08,-0.47
01:29:30.260:1,-0.085,-0.425
01:29:30.264:1,-0.095,-0.415
01:29:30.268:1,-0.11,-0.415
01:29:30.272:1,-0.135,-0.405
01:29:30.276:1,-0.14,-0.4
01:29:30.280:1,-0.155,-0.375
01:29:30.284:1,-0.18,-0.375
01:29:30.288:1,-0.19,-0.385
01:29:30.292:1,-0.185,-0.365
01:29:30.296:1,-0.18,-0.355
01:29:30.300:1,-0.2,-0.36
01:29:30.304:1,-0.18,-0.37
01:29:30.308:1,-0.17,-0.385
01:29:30.312:1,-0.18,-0.395
01:29:30.316:1,-0.18,-0.405
01:29:30.320:1,-0.175,-0.385
01:29:30.324:1,-0.175,-0.39
01:29:30.328:1,-0.185,-0.415
01:29:30.332:1,-0.205,-0.43
01:29:30.336:1,-0.19,-0.425
01:29:30.340:1,-0.2,-0.4
01:29:30.344:1,-0.21,-0.41
01:29:30.348:1,-0.21,-0.41
01:29:30.352:1,-0.22,-0.415
01:29:30.356:1,-0.225,-0.4
01:29:30.360:1,-0.22,-0.41
01:29:30.364:1,-0.22,-0.4
01:29:30.368:1,-0.245,-0.4
01:29:30.372:1,-0.235,-0.41
01:29:30.376:1,-0.23,-0.39
01:29:30.380:1,-0.24,-0.395
01:29:30.384:1,-0.23,-0.415
01:29:30.388:1,-0.25,-0.435
01:29:30.392:1,-0.24,-0.38
01:29:30.396:1,-0.24,-0.24
01:29:30.400:1,-0.22,-0.07
01:29:30.404:1,-0.17,0.165
01:29:30.408:1,-0.13,0.37
01:29:30.412:1,-0.025,0.395
01:29:30.416:1,0.085,0.33
01:29:30.420:1,0.13,0.065
01:29:30.424:1,0.105,-0.435
01:29:30.428:1,0.005,-0.81
01:29:30.432:1,-0.155,-0.94
01:29:30.436:1,-0.39,-0.865
01:29:30.440:1,-0.555,-0.8
01:29:30.444:1,-0.59,-0.765
01:29:30.448:1,-0.62,-0.685
01:29:30.452:1,-0.585,-0.59
01:29:30.456:1,-0.51,-0.515
01:29:30.460:1,-0.405,-0.495
01:29:30.464:1,-0.325,-0.515
01:29:30.468:1,-0.265,-0.51
01:29:30.472:1,-0.255,-0.465
01:29:30.476:1,-0.25,-0.425
01:29:30.480:1,-0.275,-0.42
01:29:30.484:1,-0.3,-0.44
01:29:30.488:1,-0.32,-0.475
01:29:30.492:1,-0.35,-0.495
01:29:30.496:1,-0.36,-0.505
01:29:30.500:1,-0.375,-0.505
01:29:30.504:1,-0.405,-0.53
01:29:30.508:1,-0.395,-0.53
01:29:30.512:1,-0.41,-0.535
01:29:30.516:1,-0.415,-0.52
01:29:30.520:1,-0.4,-0.54
01:29:30.524:1,-0.405,-0.545
01:29:30.528:1,-0.415,-0.545
01:29:30.532:1,-0.405,-0.53
01:29:30.536:1,-0.41,-0.535
01:29:30.540:1,-0.43,-0.54
01:29:30.544:1,-0.43,-0.535
01:29:30.548:1,-0.44,-0.545
01:29:30.552:1,-0.425,-0.55
01:29:30.556:1,-0.445,-0.525
01:29:30.560:1,-0.45,-0.535
01:29:30.564:1,-0.445,-0.54
01:29:30.568:1,-0.45,-0.53
01:29:30.572:1,-0.46,-0.515
01:29:30.576:1,-0.43,-0.495
01:29:30.580:1,-0.455,-0.51
01:29:30.584:1,-0.47,-0.515
01:29:30.588:1,-0.44,-0.53
01:29:30.592:1,-0.455,-0.515
01:29:30.596:1,-0.455,-0.5
01:29:30.600:1,-0.465,-0.505
01:29:30.604:1,-0.465,-0.495
01:29:30.608:1,-0.46,-0.485
01:29:30.612:1,-0.47,-0.49
01:29:30.616:1,-0.465,-0.485
01:29:30.620:1,-0.485,-0.45
01:29:30.624:1,-0.465,-0.42
01:29:30.628:1,-0.455,-0.4
01:29:30.632:1,-0.435,-0.38
01:29:30.636:1,-0.43,-0.33
01:29:30.640:1,-0.415,-0.295
01:29:30.644:1,-0.4,-0.23
01:29:30.648:1,-0.36,-0.215
01:29:30.652:1,-0.375,-0.2
01:29:30.656:1,-0.405,-0.2
01:29:30.660:1,-0.415,-0.21
01:29:30.664:1,-0.42,-0.185
01:29:30.668:1,-0.405,-0.21
01:29:30.672:1,-0.41,-0.205
01:29:30.676:1,-0.425,-0.205
01:29:30.680:1,-0.425,-0.25
01:29:30.684:1,-0.45,-0.29
01:29:30.688:1,-0.455,-0.33
01:29:30.692:1,-0.5,-0.34
01:29:30.696:1,-0.485,-0.355
01:29:30.700:1,-0.48,-0.38
01:29:30.704:1,-0.5,-0.395
01:29:30.708:1,-0.495,-0.41
01:29:30.712:1,-0.505,-0.42
01:29:30.716:1,-0.495,-0.42
01:29:30.720:1,-0.525,-0.43
01:29:30.724:1,-0.515,-0.43
01:29:30.728:1,-0.5,-0.435
01:29:30.732:1,-0.525,-0.425
01:29:30.736:1,-0.52,-0.445
01:29:30.740:1,-0.525,-0.455
01:29:30.744:1,-0.515,-0.47
01:29:30.748:1,-0.53,-0.46
01:29:30.752:1,-0.55,-0.46
01:29:30.756:1,-0.545,-0.465
01:29:30.760:1,-0.54,-0.48
01:29:30.764:1,-0.55,-0.48
01:29:30.768:1,-0.55,-0.505
01:29:30.772:1,-0.555,-0.51
01:29:30.776:1,-0.555,-0.505
01:29:30.780:1,-0.575,-0.52
01:29:30.784:1,-0.565,-0.515
01:29:30.788:1,-0.58,-0.505
01:29:30.792:1,-0.575,-0.52
01:29:30.796:1,-0.54,-0.52
01:29:30.800:1,-0.56,-0.53
01:29:30.804:1,-0.57,-0.515
01:29:30.808:1,-0.565,-0.45
01:29:30.812:1,-0.54,-0.375
01:29:30.816:1,-0.515,-0.325
01:29:30.820:1,-0.52,-0.31
01:29:30.824:1,-0.5,-0.31
01:29:30.828:1,-0.54,-0.3
01:29:30.832:1,-0.54,-0.315
01:29:30.836:1,-0.53,-0.32
01:29:30.840:1,-0.525,-0.345
01:29:30.844:1,-0.53,-0.35
01:29:30.848:1,-0.525,-0.34
01:29:30.852:1,-0.53,-0.335
01:29:30.856:1,-0.55,-0.36
01:29:30.860:1,-0.55,-0.385
01:29:30.864:1,-0.565,-0.39
01:29:30.868:1,-0.56,-0.38
01:29:30.872:1,-0.565,-0.39
01:29:30.876:1,-0.555,-0.4
01:29:30.880:1,-0.57,-0.445
01:29:30.884:1,-0.57,-0.46
01:29:30.888:1,-0.585,-0.44
01:29:30.892:1,-0.57,-0.315
01:29:30.896:1,-0.545,-0.09
01:29:30.900:1,-0.5,0.17
01:29:30.904:1,-0.45,0.395
01:29:30.908:1,-0.36,0.495
01:29:30.912:1,-0.275,0.515
01:29:30.916:1,-0.19,0.35
01:29:30.920:1,-0.215,-0.045
01:29:30.924:1,-0.315,-0.525
01:29:30.928:1,-0.46,-0.85
01:29:30.932:1,-0.67,-0.96
01:29:30.936:1,-0.845,-0.92
01:29:30.940:1,-0.955,-0.83
01:29:30.944:1,-0.96,-0.735
01:29:30.948:1,-0.935,-0.635
01:29:30.952:1,-0.86,-0.575
01:29:30.956:1,-0.75,-0.56
01:29:30.960:1,-0.67,-0.565
01:29:30.964:1,-0.66,-0.535
01:29:30.968:1,-0.63,-0.535
01:29:30.972:1,-0.61,-0.53
01:29:30.976:1,-0.605,-0.52
01:29:30.980:1,-0.6,-0.52
01:29:30.984:1,-0.625,-0.505
01:29:30.988:1,-0.64,-0.48
01:29:30.992:1,-0.635,-0.445
01:29:30.996:1,-0.615,-0.425
01:29:31.000:1,-0.605,-0.405
01:29:31.004:1,-0.59,-0.405
01:29:31.008:1,-0.595,-0.375
01:29:31.012:1,-0.58,-0.38
01:29:31.016:1,-0.585,-0.37
01:29:31.020:1,-0.59,-0.415
01:29:31.024:1,-0.6,-0.435
01:29:31.028:1,-0.59,-0.46
01:29:31.032:1,-0.595,-0.45
01:29:31.036:1,-0.57,-0.475
01:29:31.040:1,-0.57,-0.49
01:29:31.044:1,-0.57,-0.475
01:29:31.048:1,-0.585,-0.48
01:29:31.052:1,-0.57,-0.5
01:29:31.056:1,-0.565,-0.495
01:29:31.060:1,-0.575,-0.515
01:29:31.064:1,-0.585,-0.515
01:29:31.068:1,-0.565,-0.515
01:29:31.072:1,-0.58,-0.525
01:29:31.076:1,-0.565,-0.525
01:29:31.080:1,-0.57,-0.54
01:29:31.084:1,-0.58,-0.55
01:29:31.088:1,-0.575,-0.56
01:29:31.092:1,-0.585,-0.565
01:29:31.096:1,-0.575,-0.595
01:29:31.100:1,-0.57,-0.585
01:29:31.104:1,-0.57,-0.605
01:29:31.108:1,-0.565,-0.585
01:29:31.112:1,-0.565,-0.585
01:29:31.116:1,-0.555,-0.585
01:29:31.120:1,-0.545,-0.515
01:29:31.124:1,-0.555,-0.47
01:29:31.128:1,-0.54,-0.46
01:29:31.132:1,-0.535,-0.435
01:29:31.136:1,-0.54,-0.405
01:29:31.140:1,-0.565,-0.395
01:29:31.144:1,-0.55,-0.365
01:29:31.148:1,-0.54,-0.34
01:29:31.152:1,-0.535,-0.3
01:29:31.156:1,-0.52,-0.285
01:29:31.160:1,-0.52,-0.275
01:29:31.164:1,-0.505,-0.26
01:29:31.168:1,-0.525,-0.23
01:29:31.172:1,-0.5,-0.21
01:29:31.176:1,-0.51,-0.19
01:29:31.180:1,-0.49,-0.16
01:29:31.184:1,-0.49,-0.14
01:29:31.188:1,-0.475,-0.145
01:29:31.192:1,-0.475,-0.13
01:29:31.196:1,-0.45,-0.145
01:29:31.200:1,-0.445,-0.16
01:29:31.204:1,-0.43,-0.195
01:29:31.208:1,-0.45,-0.205
01:29:31.212:1,-0.455,-0.225
01:29:31.216:1,-0.43,-0.27
01:29:31.220:1,-0.435,-0.295
01:29:31.224:1,-0.445,-0.305
01:29:31.228:1,-0.44,-0.315
01:29:31.232:1,-0.46,-0.32
01:29:31.236:1,-0.465,-0.335
01:29:31.240:1,-0.465,-0.355
01:29:31.244:1,-0.47,-0.36
01:29:31.248:1,-0.475,-0.375
01:29:31.252:1,-0.46,-0.37
01:29:31.256:1,-0.48,-0.39
01:29:31.260:1,-0.485,-0.385
01:29:31.264:1,-0.475,-0.39
01:29:31.268:1,-0.48,-0.385
01:29:31.272:1,-0.5,-0.395
01:29:31.276:1,-0.475,-0.415
01:29:31.280:1,-0.465,-0.43
01:29:31.284:1,-0.475,-0.415
01:29:31.288:1,-0.465,-0.36
01:29:31.292:1,-0.44,-0.305
01:29:31.296:1,-0.45,-0.18
01:29:31.300:1,-0.425,0.045
01:29:31.304:1,-0.395,0.335
01:29:31.308:1,-0.34,0.645
01:29:31.312:1,-0.25,0.825
01:29:31.316:1,-0.145,0.825
01:29:31.320:1,-0.05,0.64
01:29:31.324:1,-0.075,0.26
01:29:31.328:1,-0.205,-0.23
01:29:31.332:1,-0.4,-0.67
01:29:31.336:1,-0.635,-0.84
01:29:31.340:1,-0.79,-0.825
01:29:31.344:1,-0.865,-0.72
01:29:31.348:1,-0.87,-0.565
01:29:31.352:1,-0.845,-0.465
01:29:31.356:1,-0.775,-0.375
01:29:31.360:1,-0.675,-0.3
01:29:31.364:1,-0.575,-0.31
01:29:31.368:1,-0.535,-0.32
01:29:31.372:1,-0.51,-0.33
01:29:31.376:1,-0.5,-0.35
01:29:31.380:1,-0.47,-0.395
01:29:31.384:1,-0.465,-0.39
01:29:31.388:1,-0.46,-0.4
01:29:31.392:1,-0.48,-0.42
01:29:31.396:1,-0.47,-0.435
01:29:31.400:1,-0.48,-0.435
01:29:31.404:1,-0.46,-0.44
01:29:31.408:1,-0.47,-0.455
01:29:31.412:1,-0.475,-0.475
01:29:31.416:1,-0.485,-0.46
01:29:31.420:1,-0.505,-0.47
01:29:31.424:1,-0.495,-0.475
01:29:31.428:1,-0.495,-0.465
01:29:31.432:1,-0.5,-0.49
01:29:31.436:1,-0.49,-0.5
01:29:31.440:1,-0.495,-0.485
01:29:31.444:1,-0.485,-0.49
01:29:31.448:1,-0.485,-0.505
01:29:31.452:1,-0.465,-0.52
01:29:31.456:1,-0.48,-0.5
01:29:31.460:1,-0.47,-0.44
01:29:31.464:1,-0.46,-0.415
01:29:31.468:1,-0.445,-0.38
01:29:31.472:1,-0.435,-0.37
01:29:31.476:1,-0.445,-0.385
01:29:31.480:1,-0.45,-0.365
01:29:31.484:1,-0.46,-0.365
01:29:31.488:1,-0.47,-0.38
01:29:31.492:1,-0.455,-0.365
01:29:31.496:1,-0.455,-0.37
01:29:31.500:1,-0.475,-0.36
01:29:31.504:1,-0.47,-0.35
01:29:31.508:1,-0.46,-0.345
01:29:31.512:1,-0.46,-0.345
01:29:31.516:1,-0.46,-0.325
01:29:31.520:1,-0.465,-0.31
01:29:31.524:1,-0.44,-0.315
01:29:31.528:1,-0.46,-0.325
01:29:31.532:1,-0.44,-0.315
01:29:31.536:1,-0.45,-0.28
01:29:31.540:1,-0.43,-0.265
01:29:31.544:1,-0.445,-0.27
01:29:31.548:1,-0.43,-0.265
01:29:31.552:1,-0.425,-0.26
01:29:31.556:1,-0.42,-0.225
01:29:31.560:1,-0.425,-0.2
01:29:31.564:1,-0.385,-0.16
01:29:31.568:1,-0.385,-0.155
01:29:31.572:1,-0.37,-0.175
01:29:31.576:1,-0.365,-0.165
01:29:31.580:1,-0.325,-0.185
01:29:31.584:1,-0.325,-0.2
01:29:31.588:1,-0.32,-0.225
01:29:31.592:1,-0.3,-0.26
01:29:31.596:1,-0.3,-0.295
01:29:31.600:1,-0.285,-0.33
01:29:31.604:1,-0.315,-0.345
01:29:31.608:1,-0.315,-0.355
01:29:31.612:1,-0.31,-0.335
01:29:31.616:1,-0.31,-0.3
01:29:31.620:1,-0.29,-0.28
01:29:31.624:1,-0.29,-0.265
01:29:31.628:1,-0.3,-0.25
01:29:31.632:1,-0.3,-0.265
01:29:31.636:1,-0.29,-0.255
01:29:31.640:1,-0.3,-0.245
01:29:31.644:1,-0.31,-0.22
01:29:31.648:1,-0.315,-0.255
01:29:31.652:1,-0.305,-0.255
01:29:31.656:1,-0.325,-0.265
01:29:31.660:1,-0.32,-0.245
01:29:31.664:1,-0.325,-0.235
01:29:31.668:1,-0.345,-0.24
01:29:31.672:1,-0.335,-0.27
01:29:31.676:1,-0.32,-0.285
01:29:31.680:1,-0.305,-0.27
01:29:31.684:1,-0.305,-0.275
01:29:31.688:1,-0.34,-0.305
01:29:31.692:1,-0.315,-0.305
01:29:31.696:1,-0.32,-0.325
01:29:31.700:1,-0.3,-0.315
01:29:31.704:1,-0.32,-0.315
01:29:31.708:1,-0.315,-0.31
01:29:31.712:1,-0.33,-0.32
01:29:31.716:1,-0.325,-0.335
01:29:31.720:1,-0.33,-0.335
01:29:31.724:1,-0.315,-0.34
01:29:31.728:1,-0.33,-0.365
01:29:31.732:1,-0.33,-0.375
01:29:31.736:1,-0.305,-0.385
01:29:31.740:1,-0.31,-0.355
01:29:31.744:1,-0.33,-0.36
01:29:31.748:1,-0.305,-0.37
01:29:31.752:1,-0.32,-0.38
01:29:31.756:1,-0.31,-0.39
01:29:31.760:1,-0.305,-0.4
01:29:31.764:1,-0.29,-0.39
01:29:31.768:1,-0.295,-0.385
01:29:31.772:1,-0.27,-0.35
01:29:31.776:1,-0.26,-0.31
01:29:31.780:1,-0.245,-0.285
01:29:31.784:1,-0.23,-0.26
01:29:31.788:1,-0.22,-0.25
01:29:31.792:1,-0.225,-0.285
01:29:31.796:1,-0.22,-0.29
01:29:31.800:1,-0.235,-0.3
01:29:31.804:1,-0.245,-0.215
01:29:31.808:1,-0.24,-0.055
01:29:31.812:1,-0.205,0.175
01:29:31.816:1,-0.175,0.425
01:29:31.820:1,-0.1,0.6
01:29:31.824:1,-0.035,0.655
01:29:31.828:1,0.095,0.595
01:29:31.832:1,0.15,0.29
01:29:31.836:1,0.175,-0.225
01:29:31.840:1,0.135,-0.64
01:29:31.844:1,-0.04,-0.815
01:29:31.848:1,-0.295,-0.81
01:29:31.852:1,-0.49,-0.785
01:29:31.856:1,-0.575,-0.72
01:29:31.860:1,-0.59,-0.595
01:29:31.864:1,-0.595,-0.51
01:29:31.868:1,-0.525,-0.41
01:29:31.872:1,-0.42,-0.37
01:29:31.876:1,-0.375,-0.38
01:29:31.880:1,-0.31,-0.39
01:29:31.884:1,-0.29,-0.41
01:29:31.888:1,-0.29,-0.41
01:29:31.892:1,-0.3,-0.41
01:29:31.896:1,-0.3,-0.405
01:29:31.900:1,-0.285,-0.395
01:29:31.904:1,-0.3,-0.395
01:29:31.908:1,-0.285,-0.405
01:29:31.912:1,-0.27,-0.42
01:29:31.916:1,-0.275,-0.405
01:29:31.920:1,-0.27,-0.41
01:29:31.924:1,-0.26,-0.42
01:29:31.928:1,-0.24,-0.415
01:29:31.932:1,-0.23,-0.385
01:29:31.936:1,-0.25,-0.34
01:29:31.940:1,-0.2,-0.31
01:29:31.944:1,-0.215,-0.26
01:29:31.948:1,-0.205,-0.265
01:29:31.952:1,-0.19,-0.27
01:29:31.956:1,-0.21,-0.265
01:29:31.960:1,-0.21,-0.26
01:29:31.964:1,-0.205,-0.3
01:29:31.968:1,-0.19,-0.31
01:29:31.972:1,-0.2,-0.325
01:29:31.976:1,-0.19,-0.32
01:29:31.980:1,-0.2,-0.33
01:29:31.984:1,-0.23,-0.34
01:29:31.988:1,-0.22,-0.355
01:29:31.992:1,-0.22,-0.345
01:29:31.996:1,-0.21,-0.345
01:29:32.000:1,-0.23,-0.34
01:29:32.004:1,-0.25,-0.365
01:29:32.008:1,-0.225,-0.375
01:29:32.012:1,-0.235,-0.36
01:29:32.016:1,-0.225,-0.36
01:29:32.020:1,-0.23,-0.35
01:29:32.024:1,-0.23,-0.34
01:29:32.028:1,-0.225,-0.35
01:29:32.032:1,-0.23,-0.325
01:29:32.036:1,-0.225,-0.305
01:29:32.040:1,-0.22,-0.285
01:29:32.044:1,-0.205,-0.3
01:29:32.048:1,-0.195,-0.285
01:29:32.052:1,-0.2,-0.26
01:29:32.056:1,-0.19,-0.245
01:29:32.060:1,-0.175,-0.255
01:29:32.064:1,-0.18,-0.245
01:29:32.068:1,-0.19,-0.23
01:29:32.072:1,-0.19,-0.2
01:29:32.076:1,-0.17,-0.175
01:29:32.080:1,-0.16,-0.135
01:29:32.084:1,-0.16,-0.12
01:29:32.088:1,-0.135,-0.12
01:29:32.092:1,-0.13,-0.12
01:29:32.096:1,-0.1,-0.135
01:29:32.100:1,-0.09,-0.12
01:29:32.104:1,-0.075,-0.06
01:29:32.108:1,-0.07,-0.01
01:29:32.112:1,-0.02,0.025
01:29:32.116:1,-0.005,0.03
01:29:32.120:1,0.005,0.045
01:29:32.124:1,0.005,0.015
01:29:32.128:1,0.005,0.01
01:29:32.132:1,-0.005,0.03
01:29:32.136:1,-0.01,0.045
01:29:32.140:1,-0.03,0.015
01:29:32.144:1,-0.025,0.005
01:29:32.148:1,-0.03,-0.015
01:29:32.152:1,-0.035,-0.06
01:29:32.156:1,0.0,-0.075
01:29:32.160:1,-0.01,-0.06
01:29:32.164:1,-0.005,-0.1
01:29:32.168:1,0.005,-0.12
01:29:32.172:1,0.005,-0.125
01:29:32.176:1,-0.02,-0.12
01:29:32.180:1,-0.025,-0.15
01:29:32.184:1,-0.015,-0.15
01:29:32.188:1,-0.04,-0.15
01:29:32.192:1,-0.045,-0.15
01:29:32.196:1,-0.025,-0.17
01:29:32.200:1,-0.04,-0.18
01:29:32.204:1,-0.04,-0.205
01:29:32.208:1,-0.065,-0.235
01:29:32.212:1,-0.055,-0.23
01:29:32.216:1,-0.055,-0.22
01:29:32.220:1,-0.045,-0.26
01:29:32.224:1,-0.06,-0.27
01:29:32.228:1,-0.07,-0.265
01:29:32.232:1,-0.06,-0.27
01:29:32.236:1,-0.075,-0.29
01:29:32.240:1,-0.075,-0.27
01:29:32.244:1,-0.075,-0.285
01:29:32.248:1,-0.09,-0.295
01:29:32.252:1,-0.07,-0.295
01:29:32.256:1,-0.065,-0.29
01:29:32.260:1,-0.095,-0.305
01:29:32.264:1,-0.09,-0.32
01:29:32.268:1,-0.085,-0.33
01:29:32.272:1,-0.085,-0.315
01:29:32.276:1,-0.09,-0.285
01:29:32.280:1,-0.05,-0.24
01:29:32.284:1,-0.06,-0.22
01:29:32.288:1,-0.045,-0.18
01:29:32.292:1,-0.06,-0.17
01:29:32.296:1,-0.06,-0.16
01:29:32.300:1,-0.06,-0.14
01:29:32.304:1,-0.075,-0.155
01:29:32.308:1,-0.07,-0.14
01:29:32.312:1,-0.07,-0.105
01:29:32.316:1,-0.075,-0.11
01:29:32.320:1,-0.07,-0.125
01:29:32.324:1,-0.06,-0.13
01:29:32.328:1,-0.085,-0.145
01:29:32.332:1,-0.06,-0.16
01:29:32.336:1,-0.07,-0.16
01:29:32.340:1,-0.05,-0.135
01:29:32.344:1,-0.065,-0.13
01:29:32.348:1,-0.04,-0.155
01:29:32.352:1,-0.03,-0.15
01:29:32.356:1,-0.03,-0.135
01:29:32.360:1,-0.035,-0.14
01:29:32.364:1,-0.04,-0.16
01:29:32.368:1,-0.035,-0.17
01:29:32.372:1,-0.025,-0.185
01:29:32.376:1,-0.03,-0.18
01:29:32.380:1,-0.05,-0.215
01:29:32.384:1,-0.05,-0.2
01:29:32.388:1,-0.08,-0.225
01:29:32.392:1,-0.07,-0.245
01:29:32.396:1,-0.08,-0.23
01:29:32.400:1,-0.1,-0.23
01:29:32.404:1,-0.095,-0.25
01:29:32.408:1,-0.095,-0.255
01:29:32.412:1,-0.1,-0.265
01:29:32.416:1,-0.085,-0.265
01:29:32.420:1,-0.105,-0.27
01:29:32.424:1,-0.115,-0.285
01:29:32.428:1,-0.11,-0.3
01:29:32.432:1,-0.11,-0.295
01:29:32.436:1,-0.13,-0.275
01:29:32.440:1,-0.13,-0.245
01:29:32.444:1,-0.11,-0.24
01:29:32.448:1,-0.1,-0.215
01:29:32.452:1,-0.11,-0.145
01:29:32.456:1,-0.115,0.005
01:29:32.460:1,-0.105,0.24
01:29:32.464:1,-0.08,0.48
01:29:32.468:1,-0.035,0.68
01:29:32.472:1,0.05,0.765
01:29:32.476:1,0.145,0.74
01:29:32.480:1,0.215,0.55
01:29:32.484:1,0.24,0.075
01:29:32.488:1,0.215,-0.39
01:29:32.492:1,0.065,-0.64
01:29:32.496:1,-0.175,-0.66
01:29:32.500:1,-0.385,-0.635
01:29:32.504:1,-0.475,-0.58
01:29:32.508:1,-0.495,-0.465
01:29:32.512:1,-0.475,-0.34
01:29:32.516:1,-0.425,-0.255
01:29:32.520:1,-0.345,-0.195
01:29:32.524:1,-0.27,-0.195
01:29:32.528:1,-0.235,-0.2
01:29:32.532:1,-0.22,-0.225
01:29:32.536:1,-0.205,-0.225
01:29:32.540:1,-0.205,-0.265
01:29:32.544:1,-0.245,-0.25
01:29:32.548:1,-0.25,-0.25
01:29:32.552:1,-0.245,-0.26
01:29:32.556:1,-0.245,-0.26
01:29:32.560:1,-0.25,-0.295
01:29:32.564:1,-0.25,-0.3
01:29:32.568:1,-0.255,-0.29
01:29:32.572:1,-0.28,-0.285
01:29:32.576:1,-0.275,-0.295
01:29:32.580:1,-0.275,-0.32
01:29:32.584:1,-0.295,-0.32
01:29:32.588:1,-0.3,-0.335
01:29:32.592:1,-0.28,-0.3
01:29:32.596:1,-0.285,-0.275
01:29:32.600:1,-0.295,-0.26
01:29:32.604:1,-0.275,-0.24
01:29:32.608:1,-0.295,-0.205
01:29:32.612:1,-0.305,-0.19
01:29:32.616:1,-0.315,-0.195
01:29:32.620:1,-0.32,-0.2
01:29:32.624:1,-0.34,-0.195
01:29:32.628:1,-0.34,-0.195
01:29:32.632:1,-0.36,-0.165
01:29:32.636:1,-0.375,-0.175
01:29:32.640:1,-0.355,-0.175
01:29:32.644:1,-0.385,-0.17
01:29:32.648:1,-0.39,-0.175
01:29:32.652:1,-0.405,-0.145
01:29:32.656:1,-0.405,-0.145
01:29:32.660:1,-0.395,-0.155
01:29:32.664:1,-0.405,-0.16
01:29:32.668:1,-0.41,-0.155
01:29:32.672:1,-0.415,-0.15
01:29:32.676:1,-0.395,-0.155
01:29:32.680:1,-0.4,-0.17
01:29:32.684:1,-0.41,-0.175
01:29:32.688:1,-0.395,-0.16
01:29:32.692:1,-0.4,-0.14
01:29:32.696:1,-0.41,-0.145
01:29:32.700:1,-0.405,-0.115
01:29:32.704:1,-0.415,-0.11
01:29:32.708:1,-0.395,-0.105
01:29:32.712:1,-0.405,-0.08
01:29:32.716:1,-0.38,-0.085
01:29:32.720:1,-0.42,-0.085
01:29:32.724:1,-0.4,-0.07
01:29:32.728:1,-0.4,-0.065
01:29:32.732:1,-0.415,-0.03
01:29:32.736:1,-0.42,-0.015
01:29:32.740:1,-0.405,-0.03
01:29:32.744:1,-0.41,-0.02
01:29:32.748:1,-0.4,0.0
01:29:32.752:1,-0.395,0.01
01:29:32.756:1,-0.39,0.005
01:29:32.760:1,-0.38,0.01
01:29:32.764:1,-0.38,0.055
01:29:32.768:1,-0.39,0.095
01:29:32.772:1,-0.37,0.13
01:29:32.776:1,-0.365,0.15
01:29:32.780:1,-0.375,0.135
01:29:32.784:1,-0.385,0.14
01:29:32.788:1,-0.4,0.145
01:29:32.792:1,-0.425,0.135
01:29:32.796:1,-0.415,0.115
01:29:32.800:1,-0.425,0.11
01:29:32.804:1,-0.445,0.11
01:29:32.808:1,-0.455,0.11
01:29:32.812:1,-0.47,0.09
01:29:32.816:1,-0.475,0.095
01:29:32.820:1,-0.485,0.105
01:29:32.824:1,-0.495,0.105
01:29:32.828:1,-0.485,0.105
01:29:32.832:1,-0.505,0.12
01:29:32.836:1,-0.495,0.095
01:29:32.840:1,-0.515,0.105
01:29:32.844:1,-0.52,0.08
01:29:32.848:1,-0.51,0.08
01:29:32.852:1,-0.49,0.08
01:29:32.856:1,-0.51,0.075
01:29:32.860:1,-0.525,0.045
01:29:32.864:1,-0.51,0.03
01:29:32.868:1,-0.51,0.045
01:29:32.872:1,-0.53,0.04
01:29:32.876:1,-0.53,0.045
01:29:32.880:1,-0.54,0.035
01:29:32.884:1,-0.53,0.05
01:29:32.888:1,-0.53,0.05
01:29:32.892:1,-0.525,0.045
01:29:32.896:1,-0.52,0.025
01:29:32.900:1,-0.535,0.02
01:29:32.904:1,-0.54,-0.005
01:29:32.908:1,-0.525,0.0
01:29:32.912:1,-0.55,0.015
01:29:32.916:1,-0.56,0.0
01:29:32.920:1,-0.545,-0.025
01:29:32.924:1,-0.545,-0.01
01:29:32.928:1,-0.555,-0.005
01:29:32.932:1,-0.545,-0.005
01:29:32.936:1,-0.53,-0.01
01:29:32.940:1,-0.535,-0.005
01:29:32.944:1,-0.52,0.035
01:29:32.948:1,-0.525,0.075
01:29:32.952:1,-0.525,0.14
01:29:32.956:1,-0.53,0.165
01:29:32.960:1,-0.53,0.155
01:29:32.964:1,-0.56,0.155
01:29:32.968:1,-0.565,0.155
01:29:32.972:1,-0.58,0.135
01:29:32.976:1,-0.605,0.14
01:29:32.980:1,-0.62,0.13
01:29:32.984:1,-0.6,0.13
01:29:32.988:1,-0.605,0.145
01:29:32.992:1,-0.635,0.145
01:29:32.996:1,-0.61,0.12
01:29:33.000:1,-0.61,0.11
01:29:33.004:1,-0.61,0.115
01:29:33.008:1,-0.615,0.12
01:29:33.012:1,-0.62,0.08
01:29:33.016:1,-0.605,0.095
01:29:33.020:1,-0.615,0.2
01:29:33.024:1,-0.595,0.38
01:29:33.028:1,-0.545,0.605
01:29:33.032:1,-0.5,0.85
01:29:33.036:1,-0.425,1.035
01:29:33.040:1,-0.325,1.085
01:29:33.044:1,-0.255,1.06
01:29:33.048:1,-0.21,0.81
01:29:33.052:1,-0.285,0.345
01:29:33.056:1,-0.37,-0.105
01:29:33.060:1,-0.575,-0.335
01:29:33.064:1,-0.765,-0.365
01:29:33.068:1,-0.915,-0.265
01:29:33.072:1,-0.975,-0.12
01:29:33.076:1,-0.96,-0.015
01:29:33.080:1,-0.89,0.09
01:29:33.084:1,-0.795,0.14
01:29:33.088:1,-0.705,0.145
01:29:33.092:1,-0.68,0.115
01:29:33.096:1,-0.63,0.115
01:29:33.100:1,-0.625,0.11
01:29:33.104:1,-0.625,0.115
01:29:33.108:1,-0.62,0.13
01:29:33.112:1,-0.63,0.13
01:29:33.116:1,-0.62,0.115
01:29:33.120:1,-0.62,0.115
01:29:33.124:1,-0.61,0.12
01:29:33.128:1,-0.595,0.15
01:29:33.132:1,-0.595,0.19
01:29:33.136:1,-0.6,0.23
01:29:33.140:1,-0.595,0.27
01:29:33.144:1,-0.585,0.27
01:29:33.148:1,-0.57,0.28
01:29:33.152:1,-0.585,0.29
01:29:33.156:1,-0.6,0.285
01:29:33.160:1,-0.6,0.295
01:29:33.164:1,-0.63,0.31
01:29:33.168:1,-0.63,0.31
01:29:33.172:1,-0.65,0.29
01:29:33.176:1,-0.62,0.26
01:29:33.180:1,-0.64,0.245
01:29:33.184:1,-0.635,0.245
01:29:33.188:1,-0.645,0.245
01:29:33.192:1,-0.625,0.23
01:29:33.196:1,-0.615,0.22
01:29:33.200:1,-0.62,0.21
01:29:33.204:1,-0.63,0.21
01:29:33.208:1,-0.625,0.205
01:29:33.212:1,-0.64,0.205
01:29:33.216:1,-0.625,0.19
01:29:33.220:1,-0.625,0.18
01:29:33.224:1,-0.64,0.195
01:29:33.228:1,-0.635,0.2
01:29:33.232:1,-0.63,0.2
01:29:33.236:1,-0.645,0.2
01:29:33.240:1,-0.63,0.215
01:29:33.244:1,-0.63,0.215
01:29:33.248:1,-0.625,0.215
01:29:33.252:1,-0.62,0.24
01:29:33.256:1,-0.615,0.225
01:29:33.260:1,-0.61,0.255
01:29:33.264:1,-0.61,0.27
01:29:33.268:1,-0.6,0.24
01:29:33.272:1,-0.6,0.25
01:29:33.276:1,-0.615,0.235
01:29:33.280:1,-0.62,0.265
01:29:33.284:1,-0.625,0.29
01:29:33.288:1,-0.59,0.31
01:29:33.292:1,-0.595,0.33
01:29:33.296:1,-0.595,0.355
01:29:33.300:1,-0.6,0.38
01:29:33.304:1,-0.565,0.41
01:29:33.308:1,-0.595,0.435
01:29:33.312:1,-0.59,0.44
01:29:33.316:1,-0.56,0.455
01:29:33.320:1,-0.555,0.475
01:29:33.324:1,-0.54,0.49
01:29:33.328:1,-0.535,0.535
01:29:33.332:1,-0.535,0.595
01:29:33.336:1,-0.51,0.605
01:29:33.340:1,-0.52,0.615
01:29:33.344:1,-0.515,0.61
01:29:33.348:1,-0.515,0.59
01:29:33.352:1,-0.535,0.57
01:29:33.356:1,-0.545,0.555
01:29:33.360:1,-0.555,0.54
01:29:33.364:1,-0.56,0.54
01:29:33.368:1,-0.575,0.515
01:29:33.372:1,-0.575,0.5
01:29:33.376:1,-0.58,0.49
01:29:33.380:1,-0.57,0.495
01:29:33.384:1,-0.575,0.485
01:29:33.388:1,-0.58,0.5
01:29:33.392:1,-0.58,0.485
01:29:33.396:1,-0.575,0.48
01:29:33.400:1,-0.565,0.49
01:29:33.404:1,-0.575,0.48
01:29:33.408:1,-0.58,0.485
01:29:33.412:1,-0.575,0.48
01:29:33.416:1,-0.575,0.465
01:29:33.420:1,-0.58,0.45
01:29:33.424:1,-0.55,0.46
01:29:33.428:1,-0.585,0.45
01:29:33.432:1,-0.575,0.44
01:29:33.436:1,-0.585,0.42
01:29:33.440:1,-0.595,0.42
01:29:33.444:1,-0.59,0.42
01:29:33.448:1,-0.585,0.42
01:29:33.452:1,-0.6,0.42
01:29:33.456:1,-0.6,0.395
01:29:33.460:1,-0.595,0.38
01:29:33.464:1,-0.59,0.37
01:29:33.468:1,-0.59,0.37
01:29:33.472:1,-0.6,0.36
01:29:33.476:1,-0.605,0.36
01:29:33.480:1,-0.61,0.37
01:29:33.484:1,-0.615,0.39
01:29:33.488:1,-0.6,0.375
01:29:33.492:1,-0.61,0.38
01:29:33.496:1,-0.59,0.375
01:29:33.500:1,-0.595,0.37
01:29:33.504:1,-0.565,0.385
01:29:33.508:1,-0.58,0.45
01:29:33.512:1,-0.575,0.52
01:29:33.516:1,-0.57,0.535
01:29:33.520:1,-0.56,0.565
01:29:33.524:1,-0.56,0.57
01:29:33.528:1,-0.55,0.58
01:29:33.532:1,-0.535,0.57
01:29:33.536:1,-0.54,0.58
01:29:33.540:1,-0.54,0.55
01:29:33.544:1,-0.535,0.54
01:29:33.548:1,-0.555,0.525
01:29:33.552:1,-0.545,0.525
01:29:33.556:1,-0.565,0.505
01:29:33.560:1,-0.56,0.505
01:29:33.564:1,-0.575,0.485
01:29:33.568:1,-0.56,0.46
01:29:33.572:1,-0.58,0.455
01:29:33.576:1,-0.57,0.565
01:29:33.580:1,-0.53,0.7
01:29:33.584:1,-0.49,0.92
01:29:33.588:1,-0.445,1.145
01:29:33.592:1,-0.385,1.345
01:29:33.596:1,-0.29,1.4
01:29:33.600:1,-0.2,1.38
01:29:33.604:1,-0.19,1.135
01:29:33.608:1,-0.235,0.66
01:29:33.612:1,-0.31,0.235
01:29:33.616:1,-0.48,0.0
01:29:33.620:1,-0.7,-0.04
01:29:33.624:1,-0.825,0.02
01:29:33.628:1,-0.88,0.14
01:29:33.632:1,-0.885,0.245
01:29:33.636:1,-0.85,0.35
01:29:33.640:1,-0.765,0.42
01:29:33.644:1,-0.67,0.42
01:29:33.648:1,-0.615,0.395
01:29:33.652:1,-0.59,0.385
01:29:33.656:1,-0.585,0.395
01:29:33.660:1,-0.585,0.39
01:29:33.664:1,-0.595,0.385
01:29:33.668:1,-0.59,0.365
01:29:33.672:1,-0.59,0.38
01:29:33.676:1,-0.6,0.37
01:29:33.680:1,-0.585,0.375
01:29:33.684:1,-0.58,0.385
01:29:33.688:1,-0.57,0.385
01:29:33.692:1,-0.57,0.39
01:29:33.696:1,-0.54,0.415
01:29:33.700:1,-0.51,0.455
01:29:33.704:1,-0.49,0.51
01:29:33.708:1,-0.475,0.495
01:29:33.712:1,-0.48,0.51
01:29:33.716:1,-0.485,0.485
01:29:33.720:1,-0.49,0.5
01:29:33.724:1,-0.49,0.51
01:29:33.728:1,-0.51,0.49
01:29:33.732:1,-0.515,0.465
01:29:33.736:1,-0.505,0.465
01:29:33.740:1,-0.52,0.49
01:29:33.744:1,-0.52,0.475
01:29:33.748:1,-0.505,0.455
01:29:33.752:1,-0.505,0.46
01:29:33.756:1,-0.51,0.445
01:29:33.760:1,-0.52,0.445
01:29:33.764:1,-0.5,0.435
01:29:33.768:1,-0.495,0.445
01:29:33.772:1,-0.49,0.43
01:29:33.776:1,-0.49,0.44
01:29:33.780:1,-0.5,0.435
01:29:33.784:1,-0.5,0.425
01:29:33.788:1,-0.5,0.42
01:29:33.792:1,-0.495,0.42
01:29:33.796:1,-0.5,0.425
01:29:33.800:1,-0.49,0.43
01:29:33.804:1,-0.505,0.44
01:29:33.808:1,-0.47,0.435
01:29:33.812:1,-0.48,0.445
01:29:33.816:1,-0.45,0.47
01:29:33.820:1,-0.45,0.475
01:29:33.824:1,-0.455,0.475
01:29:33.828:1,-0.46,0.485
01:29:33.832:1,-0.44,0.485
01:29:33.836:1,-0.445,0.515
01:29:33.840:1,-0.425,0.51
01:29:33.844:1,-0.435,0.515
01:29:33.848:1,-0.425,0.535
01:29:33.852:1,-0.41,0.55
01:29:33.856:1,-0.415,0.565
01:29:33.860:1,-0.4,0.57
01:29:33.864:1,-0.395,0.6
01:29:33.868:1,-0.385,0.605
01:29:33.872:1,-0.375,0.655
01:29:33.876:1,-0.335,0.67
01:29:33.880:1,-0.355,0.68
01:29:33.884:1,-0.305,0.66
01:29:33.888:1,-0.27,0.665
01:29:33.892:1,-0.26,0.715
01:29:33.896:1,-0.255,0.74
01:29:33.900:1,-0.22,0.73
01:29:33.904:1,-0.22,0.715
01:29:33.908:1,-0.235,0.71
01:29:33.912:1,-0.22,0.7
01:29:33.916:1,-0.26,0.69
01:29:33.920:1,-0.255,0.69
01:29:33.924:1,-0.27,0.66
01:29:33.928:1,-0.26,0.645
01:29:33.932:1,-0.265,0.655
01:29:33.936:1,-0.28,0.625
01:29:33.940:1,-0.3,0.585
01:29:33.944:1,-0.27,0.585
01:29:33.948:1,-0.305,0.58
01:29:33.952:1,-0.29,0.56
01:29:33.956:1,-0.28,0.585
01:29:33.960:1,-0.3,0.575
01:29:33.964:1,-0.285,0.58
01:29:33.968:1,-0.29,0.565
01:29:33.972:1,-0.27,0.575
01:29:33.976:1,-0.28,0.565
01:29:33.980:1,-0.28,0.54
01:29:33.984:1,-0.275,0.535
01:29:33.988:1,-0.29,0.535
01:29:33.992:1,-0.285,0.525
01:29:33.996:1,-0.28,0.52
01:29:34.000:1,-0.27,0.53
01:29:34.004:1,-0.29,0.51
01:29:34.008:1,-0.26,0.5
01:29:34.012:1,-0.26,0.485
01:29:34.016:1,-0.265,0.49
01:29:34.020:1,-0.27,0.49
01:29:34.024:1,-0.26,0.46
01:29:34.028:1,-0.25,0.445
01:29:34.032:1,-0.255,0.43
01:29:34.036:1,-0.25,0.435
01:29:34.040:1,-0.25,0.47
01:29:34.044:1,-0.26,0.47
01:29:34.048:1,-0.225,0.455
01:29:34.052:1,-0.215,0.47
01:29:34.056:1,-0.205,0.51
01:29:34.060:1,-0.2,0.525
01:29:34.064:1,-0.185,0.525
01:29:34.068:1,-0.155,0.55
01:29:34.072:1,-0.16,0.58
01:29:34.076:1,-0.155,0.575
01:29:34.080:1,-0.16,0.605
01:29:34.084:1,-0.13,0.67
01:29:34.088:1,-0.09,0.805
01:29:34.092:1,-0.055,0.99
01:29:34.096:1,-0.005,1.2
01:29:34.100:1,0.045,1.32
01:29:34.104:1,0.15,1.35
01:29:34.108:1,0.235,1.29
01:29:34.112:1,0.275,1.04
01:29:34.116:1,0.28,0.585
01:29:34.120:1,0.2,0.205
01:29:34.124:1,0.005,0.025
01:29:34.128:1,-0.195,0.04
01:29:34.132:1,-0.34,0.05
01:29:34.136:1,-0.405,0.105
01:29:34.140:1,-0.415,0.235
01:29:34.144:1,-0.415,0.35
01:29:34.148:1,-0.335,0.445
01:29:34.152:1,-0.25,0.475
01:29:34.156:1,-0.17,0.465
01:29:34.160:1,-0.145,0.465
01:29:34.164:1,-0.135,0.425
01:29:34.168:1,-0.115,0.425
01:29:34.172:1,-0.125,0.42
01:29:34.176:1,-0.135,0.43
01:29:34.180:1,-0.115,0.425
01:29:34.184:1,-0.1,0.405
01:29:34.188:1,-0.12,0.38
01:29:34.192:1,-0.12,0.385
01:29:34.196:1,-0.115,0.385
01:29:34.200:1,-0.11,0.375
01:29:34.204:1,-0.11,0.38
01:29:34.208:1,-0.095,0.355
01:29:34.212:1,-0.1,0.35
01:29:34.216:1,-0.09,0.36
01:29:34.220:1,-0.08,0.36
01:29:34.224:1,-0.07,0.345
01:29:34.228:1,-0.075,0.355
01:29:34.232:1,-0.065,0.39
01:29:34.236:1,-0.05,0.45
01:29:34.240:1,-0.025,0.48
01:29:34.244:1,-0.015,0.495
01:29:34.248:1,-0.01,0.52
01:29:34.252:1,-0.005,0.52
01:29:34.256:1,0.005,0.505
01:29:34.260:1,0.025,0.51
01:29:34.264:1,0.01,0.5
01:29:34.268:1,0.01,0.5
01:29:34.272:1,0.0,0.495
01:29:34.276:1,0.0,0.47
01:29:34.280:1,0.0,0.435
01:29:34.284:1,0.0,0.435
01:29:34.288:1,-0.015,0.435
01:29:34.292:1,-0.005,0.42
01:29:34.296:1,-0.005,0.405
01:29:34.300:1,-0.01,0.39
01:29:34.304:1,-0.005,0.375
01:29:34.308:1,-0.01,0.385
01:29:34.312:1,0.0,0.38
01:29:34.316:1,-0.01,0.375
01:29:34.320:1,-0.005,0.37
01:29:34.324:1,-0.015,0.395
01:29:34.328:1,-0.005,0.4
01:29:34.332:1,-0.005,0.41
01:29:34.336:1,0.005,0.425
01:29:34.340:1,0.01,0.425
01:29:34.344:1,0.02,0.44
01:29:34.348:1,0.02,0.44
01:29:34.352:1,0.025,0.455
01:29:34.356:1,0.055,0.475
01:29:34.360:1,0.06,0.47
01:29:34.364:1,0.055,0.475
01:29:34.368:1,0.065,0.5
01:29:34.372:1,0.105,0.5
01:29:34.376:1,0.085,0.5
01:29:34.380:1,0.11,0.5
01:29:34.384:1,0.115,0.485
01:29:34.388:1,0.14,0.495
01:29:34.392:1,0.18,0.48
01:29:34.396:1,0.185,0.475
01:29:34.400:1,0.18,0.47
01:29:34.404:1,0.19,0.475
01:29:34.408:1,0.2,0.53
01:29:34.412:1,0.225,0.57
01:29:34.416:1,0.225,0.59
01:29:34.420:1,0.28,0.595
01:29:34.424:1,0.265,0.575
01:29:34.428:1,0.275,0.575
01:29:34.432:1,0.28,0.57
01:29:34.436:1,0.25,0.58
01:29:34.440:1,0.25,0.545
01:29:34.444:1,0.255,0.545
01:29:34.448:1,0.265,0.565
01:29:34.452:1,0.27,0.555
01:29:34.456:1,0.275,0.545
01:29:34.460:1,0.285,0.535
01:29:34.464:1,0.28,0.52
01:29:34.468:1,0.28,0.515
01:29:34.472:1,0.3,0.495
01:29:34.476:1,0.29,0.505
01:29:34.480:1,0.305,0.485
01:29:34.484:1,0.295,0.475
01:29:34.488:1,0.29,0.455
01:29:34.492:1,0.305,0.455
01:29:34.496:1,0.31,0.435
01:29:34.500:1,0.3,0.44
01:29:34.504:1,0.3,0.44
01:29:34.508:1,0.305,0.45
01:29:34.512:1,0.3,0.42
01:29:34.516:1,0.31,0.41
01:29:34.520:1,0.31,0.4
01:29:34.524:1,0.31,0.405
01:29:34.528:1,0.315,0.395
01:29:34.532:1,0.32,0.37
01:29:34.536:1,0.305,0.35
01:29:34.540:1,0.305,0.345
01:29:34.544:1,0.32,0.335
01:29:34.548:1,0.3,0.34
01:29:34.552:1,0.325,0.33
01:29:34.556:1,0.315,0.335
01:29:34.560:1,0.335,0.315
01:29:34.564:1,0.335,0.3
01:29:34.568:1,0.35,0.28
01:29:34.572:1,0.36,0.325
01:29:34.576:1,0.365,0.36
01:29:34.580:1,0.375,0.385
01:29:34.584:1,0.37,0.415
01:29:34.588:1,0.35,0.455
01:29:34.592:1,0.385,0.445
01:29:34.596:1,0.39,0.45
01:29:34.600:1,0.405,0.425
01:29:34.604:1,0.42,0.405
01:29:34.608:1,0.4,0.38
01:29:34.612:1,0.38,0.38
01:29:34.616:1,0.4,0.36
01:29:34.620:1,0.4,0.36
01:29:34.624:1,0.395,0.35
01:29:34.628:1,0.39,0.35
01:29:34.632:1,0.41,0.335
01:29:34.636:1,0.395,0.325
01:29:34.640:1,0.41,0.3
01:29:34.644:1,0.405,0.32
01:29:34.648:1,0.415,0.305
01:29:34.652:1,0.405,0.295
01:29:34.656:1,0.42,0.275
01:29:34.660:1,0.425,0.295
01:29:34.664:1,0.415,0.385
01:29:34.668:1,0.44,0.555
01:29:34.672:1,0.485,0.785
01:29:34.676:1,0.52,1.01
01:29:34.680:1,0.62,1.17
01:29:34.684:1,0.725,1.225
01:29:34.688:1,0.84,1.155
01:29:34.692:1,0.885,0.855
01:29:34.696:1,0.89,0.33
01:29:34.700:1,0.865,-0.11
01:29:34.704:1,0.68,-0.305
01:29:34.708:1,0.445,-0.315
01:29:34.712:1,0.245,-0.275
01:29:34.716:1,0.16,-0.195
01:29:34.720:1,0.145,-0.05
01:29:34.724:1,0.125,0.065
01:29:34.728:1,0.21,0.145
01:29:34.732:1,0.295,0.195
01:29:34.736:1,0.365,0.185
01:29:34.740:1,0.4,0.155
01:29:34.744:1,0.46,0.165
01:29:34.748:1,0.455,0.175
01:29:34.752:1,0.46,0.155
01:29:34.756:1,0.49,0.16
01:29:34.760:1,0.495,0.19
01:29:34.764:1,0.495,0.265
01:29:34.768:1,0.51,0.29
01:29:34.772:1,0.535,0.31
01:29:34.776:1,0.535,0.315
01:29:34.780:1,0.535,0.3
01:29:34.784:1,0.565,0.285
01:29:34.788:1,0.56,0.295
01:29:34.792:1,0.54,0.28
01:29:34.796:1,0.525,0.275
01:29:34.800:1,0.545,0.23
01:29:34.804:1,0.53,0.22
01:29:34.808:1,0.51,0.21
01:29:34.812:1,0.525,0.18
01:29:34.816:1,0.53,0.18
01:29:34.820:1,0.515,0.165
01:29:34.824:1,0.51,0.155
01:29:34.828:1,0.51,0.155
01:29:34.832:1,0.53,0.14
01:29:34.836:1,0.53,0.125
01:29:34.840:1,0.535,0.135
01:29:34.844:1,0.515,0.12
01:29:34.848:1,0.53,0.13
01:29:34.852:1,0.535,0.125
01:29:34.856:1,0.53,0.115
01:29:34.860:1,0.53,0.105
01:29:34.864:1,0.535,0.11
01:29:34.868:1,0.55,0.125
01:29:34.872:1,0.55,0.12
01:29:34.876:1,0.55,0.105
01:29:34.880:1,0.555,0.105
01:29:34.884:1,0.56,0.11
01:29:34.888:1,0.55,0.135
01:29:34.892:1,0.555,0.135
01:29:34.896:1,0.56,0.125
01:29:34.900:1,0.565,0.14
01:29:34.904:1,0.565,0.15
01:29:34.908:1,0.6,0.175
01:29:34.912:1,0.585,0.185
01:29:34.916:1,0.59,0.185
01:29:34.920:1,0.595,0.175
01:29:34.924:1,0.6,0.215
01:29:34.928:1,0.605,0.24
01:29:34.932:1,0.615,0.26
01:29:34.936:1,0.65,0.28
01:29:34.940:1,0.625,0.295
01:29:34.944:1,0.655,0.325
01:29:34.948:1,0.665,0.355
01:29:34.952:1,0.665,0.395
01:29:34.956:1,0.71,0.435
01:29:34.960:1,0.735,0.44
01:29:34.964:1,0.8,0.435
01:29:34.968:1,0.79,0.44
01:29:34.972:1,0.81,0.425
01:29:34.976:1,0.8,0.385
01:29:34.980:1,0.775,0.36
01:29:34.984:1,0.755,0.34
01:29:34.988:1,0.705,0.31
01:29:34.992:1,0.69,0.285
01:29:34.996:1,0.68,0.25
01:29:35.000:1,0.665,0.23
01:29:35.004:1,0.67,0.22
01:29:35.008:1,0.655,0.22
01:29:35.012:1,0.645,0.21
01:29:35.016:1,0.66,0.195
01:29:35.020:1,0.645,0.21
01:29:35.024:1,0.665,0.185
01:29:35.028:1,0.655,0.19
01:29:35.032:1,0.66,0.19
01:29:35.036:1,0.63,0.185
01:29:35.040:1,0.655,0.175
01:29:35.044:1,0.65,0.18
01:29:35.048:1,0.65,0.17
01:29:35.052:1,0.655,0.155
01:29:35.056:1,0.67,0.145
01:29:35.060:1,0.66,0.16
01:29:35.064:1,0.66,0.15
01:29:35.068:1,0.67,0.145
01:29:35.072:1,0.645,0.145
01:29:35.076:1,0.655,0.15
01:29:35.080:1,0.65,0.125
01:29:35.084:1,0.66,0.135
01:29:35.088:1,0.655,0.13
01:29:35.092:1,0.67,0.11
01:29:35.096:1,0.655,0.11
01:29:35.100:1,0.66,0.12
01:29:35.104:1,0.675,0.115
01:29:35.108:1,0.68,0.11
01:29:35.112:1,0.685,0.12
01:29:35.116:1,0.665,0.11
01:29:35.120:1,0.67,0.09
01:29:35.124:1,0.69,0.095
01:29:35.128:1,0.69,0.085
01:29:35.132:1,0.67,0.055
01:29:35.136:1,0.69,0.02
01:29:35.140:1,0.67,0.03
01:29:35.144:1,0.685,0.14
01:29:35.148:1,0.715,0.315
01:29:35.152:1,0.735,0.525
01:29:35.156:1,0.785,0.72
01:29:35.160:1,0.87,0.81
01:29:35.164:1,0.96,0.825
01:29:35.168:1,0.985,0.74
01:29:35.172:1,0.96,0.44
01:29:35.176:1,0.9,-0.03
01:29:35.180:1,0.79,-0.33
01:29:35.184:1,0.6,-0.4
01:29:35.188:1,0.41,-0.38
01:29:35.192:1,0.335,-0.315
01:29:35.196:1,0.335,-0.19
01:29:35.200:1,0.37,-0.075
01:29:35.204:1,0.435,0.03
01:29:35.208:1,0.54,0.055
01:29:35.212:1,0.635,0.045
01:29:35.216:1,0.665,0.015
01:29:35.220:1,0.7,0.005
01:29:35.224:1,0.68,0.005
01:29:35.228:1,0.66,0.0
01:29:35.232:1,0.655,-0.015
01:29:35.236:1,0.675,-0.015
01:29:35.240:1,0.685,0.0
01:29:35.244:1,0.71,-0.005
01:29:35.248:1,0.715,-0.005
01:29:35.252:1,0.73,-0.025
01:29:35.256:1,0.725,-0.04
01:29:35.260:1,0.755,-0.055
01:29:35.264:1,0.77,-0.055
01:29:35.268:1,0.78,-0.025
01:29:35.272:1,0.785,0.005
01:29:35.276:1,0.79,0.005
01:29:35.280:1,0.755,0.02
01:29:35.284:1,0.755,0.025
01:29:35.288:1,0.74,0.02
01:29:35.292:1,0.705,0.02
01:29:35.296:1,0.715,0.005
01:29:35.300:1,0.695,0.005
01:29:35.304:1,0.675,0.0
01:29:35.308:1,0.685,-0.005
01:29:35.312:1,0.67,0.0
01:29:35.316:1,0.705,-0.005
01:29:35.320:1,0.695,0.005
01:29:35.324:1,0.68,0.02
01:29:35.328:1,0.68,0.015
01:29:35.332:1,0.675,0.01
01:29:35.336:1,0.68,0.01
01:29:35.340:1,0.695,0.0
01:29:35.344:1,0.705,0.015
01:29:35.348:1,0.69,0.035
01:29:35.352:1,0.68,0.03
01:29:35.356:1,0.68,0.015
01:29:35.360:1,0.675,0.025
01:29:35.364:1,0.67,0.035
01:29:35.368:1,0.68,0.03
01:29:35.372:1,0.695,0.03
01:29:35.376:1,0.685,0.045
01:29:35.380:1,0.68,0.06
01:29:35.384:1,0.7,0.05
01:29:35.388:1,0.695,0.07
01:29:35.392:1,0.695,0.08
01:29:35.396:1,0.71,0.085
01:29:35.400:1,0.71,0.105
01:29:35.404:1,0.715,0.12
01:29:35.408:1,0.71,0.14
01:29:35.412:1,0.73,0.14
01:29:35.416:1,0.715,0.16
01:29:35.420:1,0.72,0.155
01:29:35.424:1,0.735,0.155
01:29:35.428:1,0.745,0.17
01:29:35.432:1,0.73,0.17
01:29:35.436:1,0.73,0.155
01:29:35.440:1,0.74,0.145
01:29:35.444:1,0.755,0.15
01:29:35.448:1,0.745,0.135
01:29:35.452:1,0.765,0.13
01:29:35.456:1,0.74,0.105
01:29:35.460:1,0.745,0.11
01:29:35.464:1,0.74,0.105
01:29:35.468:1,0.74,0.105
01:29:35.472:1,0.725,0.095
01:29:35.476:1,0.74,0.1
01:29:35.480:1,0.745,0.1
01:29:35.484:1,0.725,0.105
01:29:35.488:1,0.74,0.1
01:29:35.492:1,0.74,0.085
01:29:35.496:1,0.73,0.085
01:29:35.500:1,0.725,0.1
01:29:35.504:1,0.71,0.075
01:29:35.508:1,0.73,0.095
01:29:35.512:1,0.725,0.085
01:29:35.516:1,0.715,0.065
01:29:35.520:1,0.73,0.08
01:29:35.524:1,0.725,0.08
01:29:35.528:1,0.715,0.08
01:29:35.532:1,0.72,0.075
01:29:35.536:1,0.71,0.065
01:29:35.540:1,0.7,0.08
01:29:35.544:1,0.715,0.07
01:29:35.548:1,0.73,0.065
01:29:35.552:1,0.69,0.07
01:29:35.556:1,0.715,0.065
01:29:35.560:1,0.73,0.05
01:29:35.564:1,0.72,0.07
01:29:35.568:1,0.7,0.045
01:29:35.572:1,0.715,0.04
01:29:35.576:1,0.71,0.04
01:29:35.580:1,0.72,0.04
01:29:35.584:1,0.705,0.035
01:29:35.588:1,0.71,0.03
01:29:35.592:1,0.715,0.02
01:29:35.596:1,0.72,0.03
01:29:35.600:1,0.71,0.03
01:29:35.604:1,0.7,0.05
01:29:35.608:1,0.69,0.02
01:29:35.612:1,0.7,0.025
01:29:35.616:1,0.695,0.0
01:29:35.620:1,0.68,0.03
01:29:35.624:1,0.675,0.01
01:29:35.628:1,0.69,0.025
01:29:35.632:1,0.685,0.015
01:29:35.636:1,0.705,0.005
01:29:35.640:1,0.69,0.015
01:29:35.644:1,0.695,0.025
01:29:35.648:1,0.675,0.005
01:29:35.652:1,0.67,0.015
01:29:35.656:1,0.685,-0.005
01:29:35.660:1,0.685,0.015
01:29:35.664:1,0.67,0.015
01:29:35.668:1,0.695,0.035
01:29:35.672:1,0.68,0.025
01:29:35.676:1,0.68,0.01
01:29:35.680:1,0.685,0.01
01:29:35.684:1,0.69,0.005
01:29:35.688:1,0.675,0.015
01:29:35.692:1,0.665,0.01
01:29:35.696:1,0.69,0.005
01:29:35.700:1,0.685,0.005
01:29:35.704:1,0.695,0.0
01:29:35.708:1,0.7,-0.005
01:29:35.712:1,0.665,-0.005
01:29:35.716:1,0.67,0.01
01:29:35.720:1,0.68,0.0
01:29:35.724:1,0.685,0.015
01:29:35.728:1,0.655,0.01
01:29:35.732:1,0.675,0.0
01:29:35.736:1,0.66,0.0
01:29:35.740:1,0.675,-0.005
01:29:35.744:1,0.665,0.005
01:29:35.748:1,0.665,0.0
01:29:35.752:1,0.66,-0.005
01:29:35.756:1,0.67,0.0
01:29:35.760:1,0.655,-0.02
01:29:35.764:1,0.665,0.005
01:29:35.768:1,0.665,0.005
01:29:35.772:1,0.66,0.0
01:29:35.776:1,0.665,-0.02
01:29:35.780:1,0.655,-0.02
01:29:35.784:1,0.635,-0.005
01:29:35.788:1,0.655,-0.005
01:29:35.792:1,0.66,0.015
01:29:35.796:1,0.665,-0.01
01:29:35.800:1,0.65,0.0
01:29:35.804:1,0.66,-0.01
01:29:35.808:1,0.665,0.0
01:29:35.812:1,0.655,-0.005
01:29:35.816:1,0.65,-0.02
01:29:35.820:1,0.665,-0.015
01:29:35.824:1,0.655,0.01
01:29:35.828:1,0.65,0.01
01:29:35.832:1,0.645,-0.005
01:29:35.836:1,0.645,-0.02
01:29:35.840:1,0.635,-0.03
01:29:35.844:1,0.65,-0.005
01:29:35.848:1,0.645,0.005
01:29:35.852:1,0.65,0.0
01:29:35.856:1,0.635,-0.005
01:29:35.860:1,0.645,-0.015
01:29:35.864:1,0.655,-0.01
01:29:35.868:1,0.655,0.01
01:29:35.872:1,0.635,-0.015
01:29:35.876:1,0.635,-0.01
01:29:35.880:1,0.63,-0.02
01:29:35.884:1,0.635,-0.005
01:29:35.888:1,0.64,-0.015
01:29:35.892:1,0.63,-0.02
01:29:35.896:1,0.625,-0.01
01:29:35.900:1,0.625,-0.02
01:29:35.904:1,0.625,-0.01
01:29:35.908:1,0.64,-0.005
01:29:35.912:1,0.62,-0.015
01:29:35.916:1,0.625,-0.02
01:29:35.920:1,0.625,-0.01
01:29:35.924:1,0.625,-0.01
01:29:35.928:1,0.63,-0.015
01:29:35.932:1,0.645,-0.01
01:29:35.936:1,0.615,-0.01
01:29:35.940:1,0.625,-0.02
01:29:35.944:1,0.635,-0.005
01:29:35.948:1,0.635,0.0
01:29:35.952:1,0.635,-0.015
01:29:35.956:1,0.635,-0.015
01:29:35.960:1,0.63,-0.015
01:29:35.964:1,0.63,-0.005
01:29:35.968:1,0.63,-0.005
01:29:35.972:1,0.64,-0.005
01:29:35.976:1,0.63,0.005
01:29:35.980:1,0.62,-0.005
01:29:35.984:1,0.62,-0.01
01:29:35.988:1,0.62,-0.015
01:29:35.992:1,0.61,-0.015
01:29:35.996:1,0.615,-0.02
01:29:36.000:1,0.625,-0.01
01:29:36.004:1,0.615,-0.005
01:29:36.008:1,0.605,-0.02
01:29:36.012:1,0.615,-0.01
01:29:36.016:1,0.615,-0.02
01:29:36.020:1,0.615,-0.02
01:29:36.024:1,0.625,-0.01
01:29:36.028:1,0.615,-0.005
01:29:36.032:1,0.615,-0.02
01:29:36.036:1,0.625,-0.02
01:29:36.040:1,0.61,-0.02
01:29:36.044:1,0.6,-0.03
01:29:36.048:1,0.6,-0.035
01:29:36.052:1,0.6,-0.03
01:29:36.056:1,0.61,-0.035
01:29:36.060:1,0.615,-0.01
01:29:36.064:1,0.615,-0.015
01:29:36.068:1,0.6,-0.015
01:29:36.072:1,0.605,-0.035
01:29:36.076:1,0.62,-0.035
01:29:36.080:1,0.61,-0.015
01:29:36.084:1,0.59,-0.035
01:29:36.088:1,0.595,-0.035
01:29:36.092:1,0.595,-0.035
01:29:36.096:1,0.605,-0.02
01:29:36.100:1,0.6,-0.025
01:29:36.104:1,0.595,-0.02
01:29:36.108:1,0.595,-0.03
01:29:36.112:1,0.6,-0.05
01:29:36.116:1,0.59,-0.045
01:29:36.120:1,0.59,-0.02
01:29:36.124:1,0.59,-0.025
01:29:36.128:1,0.58,-0.02
01:29:36.132:1,0.59,-0.02
01:29:36.136:1,0.59,0.01
01:29:36.140:1,0.595,0.03
01:29:36.144:1,0.61,0.04
01:29:36.148:1,0.63,0.05
01:29:36.152:1,0.61,0.05
01:29:36.156:1,0.65,0.065
01:29:36.160:1,0.655,0.1
01:29:36.164:1,0.635,0.125
01:29:36.168:1,0.655,0.14
01:29:36.172:1,0.665,0.105
01:29:36.176:1,0.65,0.1
01:29:36.180:1,0.635,0.07
01:29:36.184:1,0.61,0.025
01:29:36.188:1,0.57,-0.02
01:29:36.192:1,0.56,-0.02
01:29:36.196:1,0.555,-0.03
01:29:36.200:1,0.55,-0.01
01:29:36.204:1,0.54,-0.01
01:29:36.208:1,0.55,-0.01
01:29:36.212:1,0.565,-0.02
01:29:36.216:1,0.575,-0.035
01:29:36.220:1,0.585,-0.05
01:29:36.224:1,0.585,-0.07
01:29:36.228:1,0.595,-0.095
01:29:36.232:1,0.58,-0.1
01:29:36.236:1,0.585,-0.135
01:29:36.240:1,0.575,-0.14
01:29:36.244:1,0.57,-0.145
01:29:36.248:1,0.545,-0.15
01:29:36.252:1,0.535,-0.155
01:29:36.256:1,0.56,-0.16
01:29:36.260:1,0.565,-0.15
01:29:36.264:1,0.555,-0.145
01:29:36.268:1,0.55,-0.155
01:29:36.272:1,0.575,-0.145
01:29:36.276:1,0.555,-0.15
01:29:36.280:1,0.56,-0.14
01:29:36.284:1,0.565,-0.13
01:29:36.288:1,0.555,-0.15
01:29:36.292:1,0.555,-0.19
01:29:36.296:1,0.56,-0.13
01:29:36.300:1,0.58,-0.02
01:29:36.304:1,0.605,0.17
01:29:36.308:1,0.62,0.385
01:29:36.312:1,0.675,0.59
01:29:36.316:1,0.745,0.695
01:29:36.320:1,0.83,0.725
01:29:36.324:1,0.88,0.69
01:29:36.328:1,0.875,0.49
01:29:36.332:1,0.84,0.03
01:29:36.336:1,0.775,-0.34
01:29:36.340:1,0.575,-0.55
01:29:36.344:1,0.35,-0.615
01:29:36.348:1,0.225,-0.58
01:29:36.352:1,0.175,-0.46
01:29:36.356:1,0.17,-0.355
01:29:36.360:1,0.235,-0.275
01:29:36.364:1,0.335,-0.2
01:29:36.368:1,0.425,-0.155
01:29:36.372:1,0.485,-0.165
01:29:36.376:1,0.515,-0.17
01:29:36.380:1,0.545,-0.175
01:29:36.384:1,0.545,-0.175
01:29:36.388:1,0.55,-0.175
01:29:36.392:1,0.545,-0.16
01:29:36.396:1,0.55,-0.17
01:29:36.400:1,0.55,-0.16
01:29:36.404:1,0.54,-0.175
01:29:36.408:1,0.555,-0.16
01:29:36.412:1,0.535,-0.17
01:29:36.416:1,0.555,-0.185
01:29:36.420:1,0.55,-0.185
01:29:36.424:1,0.545,-0.165
01:29:36.428:1,0.555,-0.16
01:29:36.432:1,0.54,-0.17
01:29:36.436:1,0.56,-0.165
01:29:36.440:1,0.55,-0.155
01:29:36.444:1,0.545,-0.155
01:29:36.448:1,0.53,-0.155
01:29:36.452:1,0.535,-0.18
01:29:36.456:1,0.555,-0.16
01:29:36.460:1,0.565,-0.145
01:29:36.464:1,0.555,-0.13
01:29:36.468:1,0.55,-0.16
01:29:36.472:1,0.54,-0.17
01:29:36.476:1,0.555,-0.17
01:29:36.480:1,0.545,-0.15
01:29:36.484:1,0.535,-0.16
01:29:36.488:1,0.535,-0.145
01:29:36.492:1,0.525,-0.12
01:29:36.496:1,0.53,-0.135
01:29:36.500:1,0.56,-0.135
01:29:36.504:1,0.555,-0.125
01:29:36.508:1,0.57,-0.14
01:29:36.512:1,0.57,-0.115
01:29:36.516:1,0.595,-0.065
01:29:36.520:1,0.615,-0.03
01:29:36.524:1,0.63,-0.03
01:29:36.528:1,0.645,-0.04
01:29:36.532:1,0.655,-0.07
01:29:36.536:1,0.64,-0.08
01:29:36.540:1,0.625,-0.09
01:29:36.544:1,0.58,-0.1
01:29:36.548:1,0.555,-0.11
01:29:36.552:1,0.55,-0.11
01:29:36.556:1,0.535,-0.11
01:29:36.560:1,0.52,-0.085
01:29:36.564:1,0.52,-0.095
01:29:36.568:1,0.525,-0.095
01:29:36.572:1,0.54,-0.075
01:29:36.576:1,0.535,-0.05
01:29:36.580:1,0.55,-0.055
01:29:36.584:1,0.53,-0.03
01:29:36.588:1,0.525,-0.02
01:29:36.592:1,0.525,-0.03
01:29:36.596:1,0.53,-0.035
01:29:36.600:1,0.535,0.015
01:29:36.604:1,0.545,0.025
01:29:36.608:1,0.56,0.035
01:29:36.612:1,0.545,0.045
01:29:36.616:1,0.565,0.07
01:29:36.620:1,0.565,0.08
01:29:36.624:1,0.575,0.075
01:29:36.628:1,0.57,0.075
01:29:36.632:1,0.575,0.055
01:29:36.636:1,0.58,0.05
01:29:36.640:1,0.57,0.065
01:29:36.644:1,0.57,0.045
01:29:36.648:1,0.58,0.02
01:29:36.652:1,0.56,0.015
01:29:36.656:1,0.565,0.005
01:29:36.660:1,0.56,-0.02
01:29:36.664:1,0.565,-0.035
01:29:36.668:1,0.565,-0.065
01:29:36.672:1,0.54,-0.07
01:29:36.676:1,0.53,-0.07
01:29:36.680:1,0.515,-0.065
01:29:36.684:1,0.535,-0.07
01:29:36.688:1,0.535,-0.075
01:29:36.692:1,0.515,-0.08
01:29:36.696:1,0.515,-0.06
01:29:36.700:1,0.51,-0.075
01:29:36.704:1,0.53,-0.06
01:29:36.708:1,0.53,-0.055
01:29:36.712:1,0.555,-0.075
01:29:36.716:1,0.565,-0.05
01:29:36.720:1,0.55,0.09
01:29:36.724:1,0.565,0.285
01:29:36.728:1,0.61,0.565
01:29:36.732:1,0.665,0.875
01:29:36.736:1,0.765,1.05
01:29:36.740:1,0.9,1.02
01:29:36.744:1,1.01,0.655
01:29:36.748:1,1.01,0.15
01:29:36.752:1,0.88,-0.215
01:29:36.756:1,0.625,-0.435
01:29:36.760:1,0.455,-0.44
01:29:36.764:1,0.35,-0.405
01:29:36.768:1,0.275,-0.33
01:29:36.772:1,0.285,-0.22
01:29:36.776:1,0.3,-0.11
01:29:36.780:1,0.365,-0.1
01:29:36.784:1,0.455,-0.12
01:29:36.788:1,0.49,-0.16
01:29:36.792:1,0.495,-0.17
01:29:36.796:1,0.505,-0.175
01:29:36.800:1,0.49,-0.18
01:29:36.804:1,0.485,-0.2
01:29:36.808:1,0.475,-0.205
01:29:36.812:1,0.475,-0.215
01:29:36.816:1,0.48,-0.21
01:29:36.820:1,0.465,-0.21
01:29:36.824:1,0.465,-0.22
01:29:36.828:1,0.48,-0.23
01:29:36.832:1,0.48,-0.235
01:29:36.836:1,0.48,-0.25
01:29:36.840:1,0.465,-0.275
01:29:36.844:1,0.46,-0.28
01:29:36.848:1,0.455,-0.295
01:29:36.852:1,0.455,-0.305
01:29:36.856:1,0.46,-0.28
01:29:36.860:1,0.45,-0.25
01:29:36.864:1,0.45,-0.275
01:29:36.868:1,0.465,-0.295
01:29:36.872:1,0.45,-0.305
01:29:36.876:1,0.46,-0.315
01:29:36.880:1,0.46,-0.295
01:29:36.884:1,0.465,-0.25
01:29:36.888:1,0.46,-0.215
01:29:36.892:1,0.485,-0.205
01:29:36.896:1,0.5,-0.165
01:29:36.900:1,0.5,-0.145
01:29:36.904:1,0.48,-0.125
01:29:36.908:1,0.495,-0.115
01:29:36.912:1,0.49,-0.115
01:29:36.916:1,0.49,-0.1
01:29:36.920:1,0.505,-0.105
01:29:36.924:1,0.525,-0.1
01:29:36.928:1,0.51,-0.095
01:29:36.932:1,0.51,-0.1
01:29:36.936:1,0.52,-0.085
01:29:36.940:1,0.525,-0.075
01:29:36.944:1,0.505,-0.08
01:29:36.948:1,0.505,-0.1
01:29:36.952:1,0.49,-0.095
01:29:36.956:1,0.49,-0.09
01:29:36.960:1,0.49,-0.1
01:29:36.964:1,0.5,-0.105
01:29:36.968:1,0.48,-0.1
01:29:36.972:1,0.5,-0.075
01:29:36.976:1,0.49,-0.055
01:29:36.980:1,0.5,-0.055
01:29:36.984:1,0.495,-0.055
01:29:36.988:1,0.475,-0.06
01:29:36.992:1,0.49,-0.065
01:29:36.996:1,0.5,-0.035
01:29:37.000:1,0.49,-0.05
01:29:37.004:1,0.5,-0.095
01:29:37.008:1,0.5,-0.12
01:29:37.012:1,0.485,-0.155
01:29:37.016:1,0.5,-0.165
01:29:37.020:1,0.505,-0.185
01:29:37.024:1,0.49,-0.21
01:29:37.028:1,0.48,-0.235
01:29:37.032:1,0.49,-0.25
01:29:37.036:1,0.5,-0.265
01:29:37.040:1,0.505,-0.25
01:29:37.044:1,0.51,-0.205
01:29:37.048:1,0.515,-0.17
01:29:37.052:1,0.51,-0.155
01:29:37.056:1,0.525,-0.13
01:29:37.060:1,0.515,-0.135
01:29:37.064:1,0.5,-0.115
01:29:37.068:1,0.51,-0.125
01:29:37.072:1,0.53,-0.105
01:29:37.076:1,0.525,-0.105
01:29:37.080:1,0.51,-0.09
01:29:37.084:1,0.505,-0.09
01:29:37.088:1,0.535,-0.1
01:29:37.092:1,0.53,-0.115
01:29:37.096:1,0.52,-0.09
01:29:37.100:1,0.54,-0.115
01:29:37.104:1,0.53,-0.12
01:29:37.108:1,0.565,-0.125
01:29:37.112:1,0.555,-0.135
01:29:37.116:1,0.55,-0.14
01:29:37.120:1,0.55,-0.155
01:29:37.124:1,0.555,-0.175
01:29:37.128:1,0.54,-0.18
01:29:37.132:1,0.53,-0.195
01:29:37.136:1,0.54,-0.21
01:29:37.140:1,0.54,-0.21
01:29:37.144:1,0.515,-0.215
01:29:37.148:1,0.52,-0.24
01:29:37.152:1,0.525,-0.23
01:29:37.156:1,0.51,-0.225
01:29:37.160:1,0.51,-0.245
01:29:37.164:1,0.52,-0.24
01:29:37.168:1,0.52,-0.27
01:29:37.172:1,0.525,-0.255
01:29:37.176:1,0.505,-0.27
01:29:37.180:1,0.495,-0.285
01:29:37.184:1,0.505,-0.295
01:29:37.188:1,0.495,-0.305
01:29:37.192:1,0.5,-0.31
01:29:37.196:1,0.49,-0.305
01:29:37.200:1,0.49,-0.32
01:29:37.204:1,0.48,-0.33
01:29:37.208:1,0.5,-0.33
01:29:37.212:1,0.485,-0.335
01:29:37.216:1,0.48,-0.36
01:29:37.220:1,0.485,-0.385
01:29:37.224:1,0.48,-0.385
01:29:37.228:1,0.47,-0.33
01:29:37.232:1,0.495,-0.28
01:29:37.236:1,0.52,-0.255
01:29:37.240:1,0.52,-0.23
01:29:37.244:1,0.51,-0.235
01:29:37.248:1,0.505,-0.23
01:29:37.252:1,0.5,-0.205
01:29:37.256:1,0.48,-0.205
01:29:37.260:1,0.495,-0.19
01:29:37.264:1,0.48,-0.2
01:29:37.268:1,0.49,-0.205
01:29:37.272:1,0.5,-0.17
01:29:37.276:1,0.51,-0.05
01:29:37.280:1,0.53,0.17
01:29:37.284:1,0.58,0.41
01:29:37.288:1,0.625,0.63
01:29:37.292:1,0.73,0.78
01:29:37.296:1,0.835,0.795
01:29:37.300:1,0.915,0.7
01:29:37.304:1,0.945,0.34
01:29:37.308:1,0.94,-0.2
01:29:37.312:1,0.875,-0.65
01:29:37.316:1,0.645,-0.845
01:29:37.320:1,0.405,-0.85
01:29:37.324:1,0.205,-0.8
01:29:37.328:1,0.145,-0.69
01:29:37.332:1,0.15,-0.565
01:29:37.336:1,0.165,-0.455
01:29:37.340:1,0.23,-0.365
01:29:37.344:1,0.33,-0.34
01:29:37.348:1,0.4,-0.36
01:29:37.352:1,0.435,-0.375
01:29:37.356:1,0.445,-0.395
01:29:37.360:1,0.46,-0.39
01:29:37.364:1,0.445,-0.395
01:29:37.368:1,0.455,-0.425
01:29:37.372:1,0.44,-0.425
01:29:37.376:1,0.435,-0.42
01:29:37.380:1,0.435,-0.435
01:29:37.384:1,0.435,-0.45
01:29:37.388:1,0.43,-0.455
01:29:37.392:1,0.44,-0.455
01:29:37.396:1,0.425,-0.47
01:29:37.400:1,0.44,-0.47
01:29:37.404:1,0.44,-0.43
01:29:37.408:1,0.445,-0.385
01:29:37.412:1,0.455,-0.355
01:29:37.416:1,0.47,-0.315
01:29:37.420:1,0.445,-0.295
01:29:37.424:1,0.45,-0.27
01:29:37.428:1,0.455,-0.255
01:29:37.432:1,0.455,-0.24
01:29:37.436:1,0.455,-0.22
01:29:37.440:1,0.47,-0.24
01:29:37.444:1,0.47,-0.255
01:29:37.448:1,0.455,-0.265
01:29:37.452:1,0.45,-0.27
01:29:37.456:1,0.465,-0.29
01:29:37.460:1,0.455,-0.31
01:29:37.464:1,0.435,-0.33
01:29:37.468:1,0.45,-0.335
01:29:37.472:1,0.44,-0.33
01:29:37.476:1,0.435,-0.35
01:29:37.480:1,0.44,-0.375
01:29:37.484:1,0.425,-0.385
01:29:37.488:1,0.43,-0.365
01:29:37.492:1,0.415,-0.375
01:29:37.496:1,0.445,-0.38
01:29:37.500:1,0.42,-0.365
01:29:37.504:1,0.435,-0.39
01:29:37.508:1,0.445,-0.38
01:29:37.512:1,0.435,-0.35
01:29:37.516:1,0.41,-0.345
01:29:37.520:1,0.445,-0.355
01:29:37.524:1,0.43,-0.355
01:29:37.528:1,0.445,-0.32
01:29:37.532:1,0.445,-0.32
01:29:37.536:1,0.435,-0.31
01:29:37.540:1,0.44,-0.305
01:29:37.544:1,0.445,-0.31
01:29:37.548:1,0.425,-0.3
01:29:37.552:1,0.435,-0.265
01:29:37.556:1,0.43,-0.255
01:29:37.560:1,0.465,-0.26
01:29:37.564:1,0.47,-0.26
01:29:37.568:1,0.465,-0.24
01:29:37.572:1,0.475,-0.2
01:29:37.576:1,0.49,-0.125
01:29:37.580:1,0.495,-0.11
01:29:37.584:1,0.51,-0.09
01:29:37.588:1,0.515,-0.1
01:29:37.592:1,0.51,-0.09
01:29:37.596:1,0.51,-0.07
01:29:37.600:1,0.495,-0.085
01:29:37.604:1,0.49,-0.115
01:29:37.608:1,0.495,-0.12
01:29:37.612:1,0.475,-0.15
01:29:37.616:1,0.49,-0.145
01:29:37.620:1,0.485,-0.17
01:29:37.624:1,0.5,-0.195
01:29:37.628:1,0.475,-0.215
01:29:37.632:1,0.47,-0.21
01:29:37.636:1,0.445,-0.23
01:29:37.640:1,0.46,-0.23
01:29:37.644:1,0.445,-0.255
01:29:37.648:1,0.45,-0.24
01:29:37.652:1,0.43,-0.255
01:29:37.656:1,0.45,-0.26
01:29:37.660:1,0.435,-0.255
01:29:37.664:1,0.435,-0.27
01:29:37.668:1,0.44,-0.3
01:29:37.672:1,0.435,-0.3
01:29:37.676:1,0.415,-0.275
01:29:37.680:1,0.41,-0.285
01:29:37.684:1,0.405,-0.295
01:29:37.688:1,0.385,-0.315
01:29:37.692:1,0.41,-0.32
01:29:37.696:1,0.4,-0.33
01:29:37.700:1,0.38,-0.335
01:29:37.704:1,0.4,-0.35
01:29:37.708:1,0.39,-0.365
01:29:37.712:1,0.375,-0.37
01:29:37.716:1,0.37,-0.39
01:29:37.720:1,0.37,-0.43
01:29:37.724:1,0.36,-0.38
01:29:37.728:1,0.375,-0.215
01:29:37.732:1,0.43,-0.01
01:29:37.736:1,0.47,0.21
01:29:37.740:1,0.525,0.405
01:29:37.744:1,0.615,0.49
01:29:37.748:1,0.67,0.47
01:29:37.752:1,0.71,0.26
01:29:37.756:1,0.66,-0.155
01:29:37.760:1,0.58,-0.56
01:29:37.764:1,0.36,-0.74
01:29:37.768:1,0.175,-0.76
01:29:37.772:1,0.015,-0.715
01:29:37.776:1,-0.03,-0.63
01:29:37.780:1,-0.04,-0.515
01:29:37.784:1,0.0,-0.4
01:29:37.788:1,0.09,-0.335
01:29:37.792:1,0.23,-0.33
01:29:37.796:1,0.305,-0.35
01:29:37.800:1,0.335,-0.365
01:29:37.804:1,0.34,-0.41
01:29:37.808:1,0.325,-0.41
01:29:37.812:1,0.315,-0.41
01:29:37.816:1,0.33,-0.43
01:29:37.820:1,0.325,-0.43
01:29:37.824:1,0.31,-0.45
01:29:37.828:1,0.31,-0.445
01:29:37.832:1,0.32,-0.46
01:29:37.836:1,0.305,-0.46
01:29:37.840:1,0.3,-0.45
01:29:37.844:1,0.31,-0.475
01:29:37.848:1,0.32,-0.475
01:29:37.852:1,0.3,-0.47
01:29:37.856:1,0.295,-0.46
01:29:37.860:1,0.295,-0.46
01:29:37.864:1,0.31,-0.475
01:29:37.868:1,0.295,-0.475
01:29:37.872:1,0.3,-0.48
01:29:37.876:1,0.295,-0.495
01:29:37.880:1,0.295,-0.49
01:29:37.884:1,0.275,-0.505
01:29:37.888:1,0.265,-0.515
01:29:37.892:1,0.27,-0.495
01:29:37.896:1,0.275,-0.475
01:29:37.900:1,0.3,-0.46
01:29:37.904:1,0.31,-0.415
01:29:37.908:1,0.32,-0.385
01:29:37.912:1,0.315,-0.37
01:29:37.916:1,0.33,-0.355
01:29:37.920:1,0.35,-0.33
01:29:37.924:1,0.325,-0.335
01:29:37.928:1,0.325,-0.345
01:29:37.932:1,0.32,-0.315
01:29:37.936:1,0.295,-0.28
01:29:37.940:1,0.3,-0.285
01:29:37.944:1,0.325,-0.28
01:29:37.948:1,0.285,-0.27
01:29:37.952:1,0.31,-0.28
01:29:37.956:1,0.3,-0.305
01:29:37.960:1,0.31,-0.31
01:29:37.964:1,0.305,-0.315
01:29:37.968:1,0.31,-0.31
01:29:37.972:1,0.305,-0.305
01:29:37.976:1,0.31,-0.285
01:29:37.980:1,0.315,-0.3
01:29:37.984:1,0.325,-0.305
01:29:37.988:1,0.315,-0.285
01:29:37.992:1,0.31,-0.295
01:29:37.996:1,0.305,-0.295
01:29:38.000:1,0.315,-0.295
01:29:38.004:1,0.295,-0.29
01:29:38.008:1,0.32,-0.3
01:29:38.012:1,0.325,-0.3
01:29:38.016:1,0.33,-0.3
01:29:38.020:1,0.33,-0.34
01:29:38.024:1,0.335,-0.35
01:29:38.028:1,0.33,-0.35
01:29:38.032:1,0.315,-0.36
01:29:38.036:1,0.31,-0.37
01:29:38.040:1,0.315,-0.385
01:29:38.044:1,0.31,-0.405
01:29:38.048:1,0.295,-0.425
01:29:38.052:1,0.31,-0.415
01:29:38.056:1,0.29,-0.43
01:29:38.060:1,0.275,-0.445
01:29:38.064:1,0.315,-0.445
01:29:38.068:1,0.34,-0.42
01:29:38.072:1,0.335,-0.38
01:29:38.076:1,0.335,-0.34
01:29:38.080:1,0.37,-0.315
01:29:38.084:1,0.345,-0.285
01:29:38.088:1,0.355,-0.27
01:29:38.092:1,0.355,-0.265
01:29:38.096:1,0.33,-0.27
01:29:38.100:1,0.305,-0.27
01:29:38.104:1,0.315,-0.24
01:29:38.108:1,0.285,-0.255
01:29:38.112:1,0.29,-0.27
01:29:38.116:1,0.295,-0.28
01:29:38.120:1,0.295,-0.29
01:29:38.124:1,0.295,-0.305
01:29:38.128:1,0.305,-0.31
01:29:38.132:1,0.295,-0.31
01:29:38.136:1,0.3,-0.32
01:29:38.140:1,0.275,-0.29
01:29:38.144:1,0.275,-0.18
01:29:38.148:1,0.305,0.01
01:29:38.152:1,0.35,0.25
01:29:38.156:1,0.395,0.485
01:29:38.160:1,0.49,0.655
01:29:38.164:1,0.555,0.71
01:29:38.168:1,0.61,0.625
01:29:38.172:1,0.65,0.35
01:29:38.176:1,0.62,-0.145
01:29:38.180:1,0.525,-0.635
01:29:38.184:1,0.345,-0.92
01:29:38.188:1,0.155,-0.93
01:29:38.192:1,-0.06,-0.855
01:29:38.196:1,-0.15,-0.745
01:29:38.200:1,-0.16,-0.63
01:29:38.204:1,-0.125,-0.52
01:29:38.208:1,-0.03,-0.45
01:29:38.212:1,0.07,-0.415
01:29:38.216:1,0.15,-0.435
01:29:38.220:1,0.18,-0.45
01:29:38.224:1,0.205,-0.485
01:29:38.228:1,0.2,-0.475
01:29:38.232:1,0.21,-0.495
01:29:38.236:1,0.205,-0.515
01:29:38.240:1,0.23,-0.52
01:29:38.244:1,0.195,-0.54
01:29:38.248:1,0.22,-0.54
01:29:38.252:1,0.23,-0.515
01:29:38.256:1,0.225,-0.44
01:29:38.260:1,0.245,-0.405
01:29:38.264:1,0.245,-0.41
01:29:38.268:1,0.24,-0.38
01:29:38.272:1,0.235,-0.375
01:29:38.276:1,0.22,-0.36
01:29:38.280:1,0.23,-0.4
01:29:38.284:1,0.245,-0.39
01:29:38.288:1,0.21,-0.375
01:29:38.292:1,0.205,-0.395
01:29:38.296:1,0.23,-0.405
01:29:38.300:1,0.205,-0.41
01:29:38.304:1,0.21,-0.43
01:29:38.308:1,0.205,-0.44
01:29:38.312:1,0.2,-0.44
01:29:38.316:1,0.18,-0.425
01:29:38.320:1,0.185,-0.44
01:29:38.324:1,0.185,-0.425
01:29:38.328:1,0.185,-0.43
01:29:38.332:1,0.195,-0.41
01:29:38.336:1,0.19,-0.405
01:29:38.340:1,0.195,-0.41
01:29:38.344:1,0.175,-0.42
01:29:38.348:1,0.2,-0.415
01:29:38.352:1,0.195,-0.4
01:29:38.356:1,0.2,-0.38
01:29:38.360:1,0.185,-0.395
01:29:38.364:1,0.195,-0.395
01:29:38.368:1,0.185,-0.38
01:29:38.372:1,0.205,-0.365
01:29:38.376:1,0.195,-0.365
01:29:38.380:1,0.185,-0.35
01:29:38.384:1,0.2,-0.355
01:29:38.388:1,0.205,-0.32
01:29:38.392:1,0.185,-0.31
01:29:38.396:1,0.21,-0.295
01:29:38.400:1,0.2,-0.28
01:29:38.404:1,0.2,-0.26
01:29:38.408:1,0.21,-0.245
01:29:38.412:1,0.215,-0.225
01:29:38.416:1,0.21,-0.21
01:29:38.420:1,0.215,-0.215
01:29:38.424:1,0.22,-0.21
01:29:38.428:1,0.22,-0.2
01:29:38.432:1,0.245,-0.22
01:29:38.436:1,0.24,-0.205
01:29:38.440:1,0.24,-0.225
01:29:38.444:1,0.255,-0.22
01:29:38.448:1,0.255,-0.22
01:29:38.452:1,0.275,-0.22
01:29:38.456:1,0.29,-0.215
01:29:38.460:1,0.29,-0.175
01:29:38.464:1,0.285,-0.175
01:29:38.468:1,0.31,-0.17
01:29:38.472:1,0.315,-0.21
01:29:38.476:1,0.305,-0.235
01:29:38.480:1,0.285,-0.26
01:29:38.484:1,0.265,-0.295
01:29:38.488:1,0.26,-0.32
01:29:38.492:1,0.205,-0.315
01:29:38.496:1,0.175,-0.335
01:29:38.500:1,0.155,-0.365
01:29:38.504:1,0.16,-0.365
01:29:38.508:1,0.135,-0.38
01:29:38.512:1,0.14,-0.38
01:29:38.516:1,0.145,-0.385
01:29:38.520:1,0.135,-0.385
01:29:38.524:1,0.12,-0.405
01:29:38.528:1,0.135,-0.41
01:29:38.532:1,0.13,-0.42
01:29:38.536:1,0.125,-0.405
01:29:38.540:1,0.115,-0.405
01:29:38.544:1,0.12,-0.42
01:29:38.548:1,0.11,-0.4
01:29:38.552:1,0.12,-0.41
01:29:38.556:1,0.12,-0.425
01:29:38.560:1,0.085,-0.425
01:29:38.564:1,0.095,-0.44
01:29:38.568:1,0.11,-0.435
01:29:38.572:1,0.1,-0.41
01:29:38.576:1,0.095,-0.45
01:29:38.580:1,0.09,-0.44
01:29:38.584:1,0.1,-0.44
01:29:38.588:1,0.09,-0.41
01:29:38.592:1,0.105,-0.43
01:29:38.596:1,0.1,-0.43
01:29:38.600:1,0.09,-0.445
01:29:38.604:1,0.08,-0.455
01:29:38.608:1,0.09,-0.495
01:29:38.612:1,0.075,-0.535
01:29:38.616:1,0.08,-0.505
01:29:38.620:1,0.075,-0.395
01:29:38.624:1,0.125,-0.21
01:29:38.628:1,0.13,0.005
01:29:38.632:1,0.205,0.205
01:29:38.636:1,0.275,0.31
01:29:38.640:1,0.325,0.355
01:29:38.644:1,0.35,0.255
01:29:38.648:1,0.37,-0.085
01:29:38.652:1,0.33,-0.52
01:29:38.656:1,0.245,-0.765
01:29:38.660:1,0.045,-0.795
01:29:38.664:1,-0.095,-0.755
01:29:38.668:1,-0.155,-0.675
01:29:38.672:1,-0.135,-0.545
01:29:38.676:1,-0.13,-0.415
01:29:38.680:1,-0.075,-0.335
01:29:38.684:1,0.01,-0.325
01:29:38.688:1,0.07,-0.37
01:29:38.692:1,0.095,-0.38
01:29:38.696:1,0.095,-0.41
01:29:38.700:1,0.08,-0.45
01:29:38.704:1,0.075,-0.455
01:29:38.708:1,0.065,-0.45
01:29:38.712:1,0.05,-0.465
01:29:38.716:1,0.04,-0.48
01:29:38.720:1,0.025,-0.495
01:29:38.724:1,0.015,-0.495
01:29:38.728:1,0.02,-0.49
01:29:38.732:1,0.02,-0.5
01:29:38.736:1,0.01,-0.5
01:29:38.740:1,0.005,-0.505
01:29:38.744:1,0.005,-0.505
01:29:38.748:1,0.02,-0.49
01:29:38.752:1,0.02,-0.495
01:29:38.756:1,0.0,-0.515
01:29:38.760:1,0.0,-0.53
01:29:38.764:1,0.0,-0.515
01:29:38.768:1,0.02,-0.54
01:29:38.772:1,0.015,-0.535
01:29:38.776:1,0.02,-0.52
01:29:38.780:1,0.0,-0.525
01:29:38.784:1,-0.015,-0.55
01:29:38.788:1,0.01,-0.53
01:29:38.792:1,0.005,-0.54
01:29:38.796:1,0.0,-0.54
01:29:38.800:1,0.015,-0.55
01:29:38.804:1,-0.01,-0.535
01:29:38.808:1,0.005,-0.525
01:29:38.812:1,-0.01,-0.53
01:29:38.816:1,0.0,-0.52
01:29:38.820:1,0.0,-0.53
01:29:38.824:1,0.0,-0.535
01:29:38.828:1,0.01,-0.535
01:29:38.832:1,-0.01,-0.535
01:29:38.836:1,-0.01,-0.5
01:29:38.840:1,0.0,-0.485
01:29:38.844:1,0.0,-0.435
01:29:38.848:1,0.0,-0.38
01:29:38.852:1,0.04,-0.365
01:29:38.856:1,0.06,-0.385
01:29:38.860:1,0.075,-0.38
01:29:38.864:1,0.1,-0.395
01:29:38.868:1,0.085,-0.41
01:29:38.872:1,0.095,-0.4
01:29:38.876:1,0.095,-0.41
01:29:38.880:1,0.095,-0.415
01:29:38.884:1,0.1,-0.395
01:29:38.888:1,0.105,-0.355
01:29:38.892:1,0.11,-0.34
01:29:38.896:1,0.105,-0.31
01:29:38.900:1,0.125,-0.255
01:29:38.904:1,0.14,-0.21
01:29:38.908:1,0.15,-0.205
01:29:38.912:1,0.16,-0.195
01:29:38.916:1,0.12,-0.205
01:29:38.920:1,0.145,-0.245
01:29:38.924:1,0.12,-0.265
01:29:38.928:1,0.085,-0.305
01:29:38.932:1,0.065,-0.3
01:29:38.936:1,0.06,-0.335
01:29:38.940:1,0.035,-0.345
01:29:38.944:1,0.025,-0.355
01:29:38.948:1,0.025,-0.35
01:29:38.952:1,0.035,-0.36
01:29:38.956:1,0.02,-0.37
01:29:38.960:1,0.015,-0.375
01:29:38.964:1,0.0,-0.38
01:29:38.968:1,-0.005,-0.37
01:29:38.972:1,-0.01,-0.345
01:29:38.976:1,0.0,-0.38
01:29:38.980:1,0.005,-0.38
01:29:38.984:1,0.005,-0.38
01:29:38.988:1,-0.005,-0.37
01:29:38.992:1,0.01,-0.365
01:29:38.996:1,0.02,-0.36
01:29:39.000:1,-0.01,-0.38
01:29:39.004:1,-0.02,-0.39
01:29:39.008:1,-0.005,-0.4
01:29:39.012:1,-0.015,-0.395
01:29:39.016:1,-0.02,-0.41
01:29:39.020:1,-0.015,-0.41
01:29:39.024:1,-0.025,-0.395
01:29:39.028:1,-0.035,-0.4
01:29:39.032:1,-0.025,-0.425
01:29:39.036:1,-0.02,-0.425
01:29:39.040:1,-0.01,-0.4
01:29:39.044:1,-0.02,-0.41
01:29:39.048:1,-0.01,-0.41
01:29:39.052:1,0.0,-0.4
01:29:39.056:1,0.005,-0.39
01:29:39.060:1,0.025,-0.395
01:29:39.064:1,0.035,-0.37
01:29:39.068:1,0.04,-0.365
01:29:39.072:1,0.055,-0.4
01:29:39.076:1,0.045,-0.425
01:29:39.080:1,0.045,-0.465
01:29:39.084:1,0.055,-0.465
01:29:39.088:1,0.055,-0.375
01:29:39.092:1,0.095,-0.2
01:29:39.096:1,0.13,0.0
01:29:39.100:1,0.15,0.25
01:29:39.104:1,0.205,0.44
01:29:39.108:1,0.305,0.475
01:29:39.112:1,0.405,0.39
01:29:39.116:1,0.415,0.11
01:29:39.120:1,0.415,-0.335
01:29:39.124:1,0.34,-0.675
01:29:39.128:1,0.18,-0.82
01:29:39.132:1,-0.055,-0.825
01:29:39.136:1,-0.225,-0.81
01:29:39.140:1,-0.285,-0.79
01:29:39.144:1,-0.31,-0.68
01:29:39.148:1,-0.33,-0.57
01:29:39.152:1,-0.285,-0.48
01:29:39.156:1,-0.18,-0.42
01:29:39.160:1,-0.11,-0.41
01:29:39.164:1,-0.07,-0.445
01:29:39.168:1,-0.065,-0.465
01:29:39.172:1,-0.06,-0.485
01:29:39.176:1,-0.07,-0.485
01:29:39.180:1,-0.065,-0.49
01:29:39.184:1,-0.06,-0.465
01:29:39.188:1,-0.075,-0.47
01:29:39.192:1,-0.06,-0.49
01:29:39.196:1,-0.06,-0.47
01:29:39.200:1,-0.085,-0.48
01:29:39.204:1,-0.09,-0.485
01:29:39.208:1,-0.09,-0.48
01:29:39.212:1,-0.09,-0.5
01:29:39.216:1,-0.09,-0.52
01:29:39.220:1,-0.075,-0.515
01:29:39.224:1,-0.07,-0.5
01:29:39.228:1,-0.085,-0.505
01:29:39.232:1,-0.075,-0.485
01:29:39.236:1,-0.065,-0.495
01:29:39.240:1,-0.055,-0.5
01:29:39.244:1,-0.05,-0.495
01:29:39.248:1,-0.06,-0.485
01:29:39.252:1,-0.075,-0.5
01:29:39.256:1,-0.08,-0.5
01:29:39.260:1,-0.06,-0.5
01:29:39.264:1,-0.055,-0.475
01:29:39.268:1,-0.025,-0.465
01:29:39.272:1,-0.025,-0.49
01:29:39.276:1,-0.03,-0.455
01:29:39.280:1,-0.02,-0.405
01:29:39.284:1,-0.025,-0.37
01:29:39.288:1,-0.015,-0.38
01:29:39.292:1,-0.01,-0.4
01:29:39.296:1,-0.025,-0.42
01:29:39.300:1,-0.025,-0.45
01:29:39.304:1,-0.04,-0.455
01:29:39.308:1,-0.075,-0.455
01:29:39.312:1,-0.105,-0.47
01:29:39.316:1,-0.12,-0.495
01:29:39.320:1,-0.14,-0.485
01:29:39.324:1,-0.14,-0.47
01:29:39.328:1,-0.13,-0.45
01:29:39.332:1,-0.12,-0.435
01:29:39.336:1,-0.14,-0.44
01:29:39.340:1,-0.135,-0.435
01:29:39.344:1,-0.13,-0.41
01:29:39.348:1,-0.135,-0.38
01:29:39.352:1,-0.145,-0.365
01:29:39.356:1,-0.12,-0.35
01:29:39.360:1,-0.115,-0.34
01:29:39.364:1,-0.115,-0.305
01:29:39.368:1,-0.12,-0.305
01:29:39.372:1,-0.1,-0.295
01:29:39.376:1,-0.08,-0.305
01:29:39.380:1,-0.085,-0.295
01:29:39.384:1,-0.095,-0.27
01:29:39.388:1,-0.075,-0.305
01:29:39.392:1,-0.06,-0.32
01:29:39.396:1,-0.075,-0.33
01:29:39.400:1,-0.07,-0.34
01:29:39.404:1,-0.065,-0.36
01:29:39.408:1,-0.09,-0.365
01:29:39.412:1,-0.07,-0.365
01:29:39.416:1,-0.06,-0.38
01:29:39.420:1,-0.05,-0.38
01:29:39.424:1,-0.04,-0.375
01:29:39.428:1,-0.04,-0.37
01:29:39.432:1,-0.06,-0.37
01:29:39.436:1,-0.04,-0.36
01:29:39.440:1,-0.035,-0.37
01:29:39.444:1,-0.025,-0.365
01:29:39.448:1,-0.035,-0.345
01:29:39.452:1,-0.035,-0.33
01:29:39.456:1,-0.02,-0.32
01:29:39.460:1,-0.03,-0.305
01:29:39.464:1,-0.02,-0.315
01:29:39.468:1,-0.02,-0.33
01:29:39.472:1,0.0,-0.365
01:29:39.476:1,-0.02,-0.375
01:29:39.480:1,-0.035,-0.41
01:29:39.484:1,-0.01,-0.395
01:29:39.488:1,0.0,-0.445
01:29:39.492:1,-0.02,-0.45
01:29:39.496:1,-0.01,-0.415
01:29:39.500:1,-0.02,-0.355
01:29:39.504:1,-0.025,-0.305
01:29:39.508:1,-0.03,-0.325
01:29:39.512:1,-0.04,-0.33
01:29:39.516:1,-0.085,-0.35
01:29:39.520:1,-0.075,-0.355
01:29:39.524:1,-0.1,-0.345
01:29:39.528:1,-0.11,-0.32
01:29:39.532:1,-0.12,-0.35
01:29:39.536:1,-0.12,-0.345
01:29:39.540:1,-0.12,-0.335
01:29:39.544:1,-0.12,-0.345
01:29:39.548:1,-0.125,-0.35
01:29:39.552:1,-0.135,-0.35
01:29:39.556:1,-0.145,-0.355
01:29:39.560:1,-0.155,-0.365
01:29:39.564:1,-0.13,-0.35
01:29:39.568:1,-0.15,-0.35
01:29:39.572:1,-0.135,-0.37
01:29:39.576:1,-0.14,-0.435
01:29:39.580:1,-0.16,-0.45
01:29:39.584:1,-0.16,-0.41
01:29:39.588:1,-0.16,-0.29
01:29:39.592:1,-0.13,-0.095
01:29:39.596:1,-0.11,0.145
01:29:39.600:1,-0.045,0.32
01:29:39.604:1,0.05,0.4
01:29:39.608:1,0.15,0.355
01:29:39.612:1,0.195,0.13
01:29:39.616:1,0.2,-0.32
01:29:39.620:1,0.115,-0.695
01:29:39.624:1,-0.1,-0.83
01:29:39.628:1,-0.36,-0.85
01:29:39.632:1,-0.515,-0.825
01:29:39.636:1,-0.55,-0.75
01:29:39.640:1,-0.565,-0.645
01:29:39.644:1,-0.51,-0.51
01:29:39.648:1,-0.43,-0.45
01:29:39.652:1,-0.32,-0.44
01:29:39.656:1,-0.26,-0.455
01:29:39.660:1,-0.24,-0.48
01:29:39.664:1,-0.235,-0.495
01:29:39.668:1,-0.24,-0.525
01:29:39.672:1,-0.235,-0.52
01:29:39.676:1,-0.235,-0.535
01:29:39.680:1,-0.23,-0.555
01:29:39.684:1,-0.23,-0.57
01:29:39.688:1,-0.255,-0.59
01:29:39.692:1,-0.265,-0.585
01:29:39.696:1,-0.26,-0.545
01:29:39.700:1,-0.265,-0.485
01:29:39.704:1,-0.29,-0.46
01:29:39.708:1,-0.305,-0.465
01:29:39.712:1,-0.32,-0.475
01:29:39.716:1,-0.315,-0.475
01:29:39.720:1,-0.335,-0.485
01:29:39.724:1,-0.325,-0.465
01:29:39.728:1,-0.345,-0.465
01:29:39.732:1,-0.34,-0.485
01:29:39.736:1,-0.35,-0.505
01:29:39.740:1,-0.34,-0.485
01:29:39.744:1,-0.35,-0.485
01:29:39.748:1,-0.35,-0.485
01:29:39.752:1,-0.34,-0.485
01:29:39.756:1,-0.36,-0.48
01:29:39.760:1,-0.375,-0.48
01:29:39.764:1,-0.37,-0.49
01:29:39.768:1,-0.36,-0.495
01:29:39.772:1,-0.39,-0.495
01:29:39.776:1,-0.39,-0.505
01:29:39.780:1,-0.385,-0.5
01:29:39.784:1,-0.385,-0.48
01:29:39.788:1,-0.41,-0.49
01:29:39.792:1,-0.395,-0.485
01:29:39.796:1,-0.4,-0.515
01:29:39.800:1,-0.415,-0.505
01:29:39.804:1,-0.41,-0.49
01:29:39.808:1,-0.42,-0.505
01:29:39.812:1,-0.395,-0.48
01:29:39.816:1,-0.415,-0.48
01:29:39.820:1,-0.4,-0.485
01:29:39.824:1,-0.425,-0.475
01:29:39.828:1,-0.43,-0.45
01:29:39.832:1,-0.43,-0.445
01:29:39.836:1,-0.415,-0.44
01:29:39.840:1,-0.42,-0.425
01:29:39.844:1,-0.425,-0.425
01:29:39.848:1,-0.42,-0.42
01:29:39.852:1,-0.415,-0.385
01:29:39.856:1,-0.415,-0.365
01:29:39.860:1,-0.41,-0.35
01:29:39.864:1,-0.405,-0.35
01:29:39.868:1,-0.39,-0.345
01:29:39.872:1,-0.395,-0.33
01:29:39.876:1,-0.385,-0.305
01:29:39.880:1,-0.37,-0.27
01:29:39.884:1,-0.365,-0.265
01:29:39.888:1,-0.345,-0.31
01:29:39.892:1,-0.32,-0.32
01:29:39.896:1,-0.33,-0.32
01:29:39.900:1,-0.32,-0.325
01:29:39.904:1,-0.32,-0.315
01:29:39.908:1,-0.305,-0.285
01:29:39.912:1,-0.32,-0.265
01:29:39.916:1,-0.32,-0.27
01:29:39.920:1,-0.34,-0.29
01:29:39.924:1,-0.36,-0.295
01:29:39.928:1,-0.375,-0.3
01:29:39.932:1,-0.39,-0.305
01:29:39.936:1,-0.42,-0.32
01:29:39.940:1,-0.43,-0.32
01:29:39.944:1,-0.455,-0.3
01:29:39.948:1,-0.445,-0.315
01:29:39.952:1,-0.48,-0.315
01:29:39.956:1,-0.46,-0.31
01:29:39.960:1,-0.475,-0.305
01:29:39.964:1,-0.47,-0.3
01:29:39.968:1,-0.48,-0.335
01:29:39.972:1,-0.47,-0.315
01:29:39.976:1,-0.495,-0.315
01:29:39.980:1,-0.475,-0.295
01:29:39.984:1,-0.51,-0.32
01:29:39.988:1,-0.485,-0.325
01:29:39.992:1,-0.515,-0.32
01:29:39.996:1,-0.52,-0.335
01:29:40.000:1,-0.515,-0.325
01:29:40.004:1,-0.525,-0.305
01:29:40.008:1,-0.525,-0.34
01:29:40.012:1,-0.525,-0.34
01:29:40.016:1,-0.535,-0.35
01:29:40.020:1,-0.54,-0.335
01:29:40.024:1,-0.545,-0.33
01:29:40.028:1,-0.55,-0.33
01:29:40.032:1,-0.535,-0.33
01:29:40.036:1,-0.565,-0.335
01:29:40.040:1,-0.55,-0.335
01:29:40.044:1,-0.54,-0.32
01:29:40.048:1,-0.565,-0.345
01:29:40.052:1,-0.555,-0.355
01:29:40.056:1,-0.575,-0.36
01:29:40.060:1,-0.585,-0.35
01:29:40.064:1,-0.585,-0.365
01:29:40.068:1,-0.565,-0.37
01:29:40.072:1,-0.595,-0.38
01:29:40.076:1,-0.6,-0.365
01:29:40.080:1,-0.6,-0.34
01:29:40.084:1,-0.605,-0.315
01:29:40.088:1,-0.615,-0.325
01:29:40.092:1,-0.605,-0.355
01:29:40.096:1,-0.61,-0.37
01:29:40.100:1,-0.61,-0.4
01:29:40.104:1,-0.615,-0.425
01:29:40.108:1,-0.615,-0.365
01:29:40.112:1,-0.625,-0.31
01:29:40.116:1,-0.62,-0.305
01:29:40.120:1,-0.625,-0.295
01:29:40.124:1,-0.64,-0.295
01:29:40.128:1,-0.66,-0.325
01:29:40.132:1,-0.65,-0.345
01:29:40.136:1,-0.65,-0.34
01:29:40.140:1,-0.675,-0.335
01:29:40.144:1,-0.67,-0.325
01:29:40.148:1,-0.67,-0.35
01:29:40.152:1,-0.695,-0.345
01:29:40.156:1,-0.71,-0.365
01:29:40.160:1,-0.725,-0.36
01:29:40.164:1,-0.71,-0.35
01:29:40.168:1,-0.72,-0.355
01:29:40.172:1,-0.73,-0.37
01:29:40.176:1,-0.73,-0.35
01:29:40.180:1,-0.75,-0.345
01:29:40.184:1,-0.75,-0.355
01:29:40.188:1,-0.73,-0.345
01:29:40.192:1,-0.745,-0.35
01:29:40.196:1,-0.765,-0.335
01:29:40.200:1,-0.755,-0.34
01:29:40.204:1,-0.745,-0.345
01:29:40.208:1,-0.75,-0.335
01:29:40.212:1,-0.76,-0.335
01:29:40.216:1,-0.75,-0.325
01:29:40.220:1,-0.775,-0.335
01:29:40.224:1,-0.765,-0.33
01:29:40.228:1,-0.765,-0.32
01:29:40.232:1,-0.765,-0.32
01:29:40.236:1,-0.775,-0.325
01:29:40.240:1,-0.78,-0.315
01:29:40.244:1,-0.77,-0.335
01:29:40.248:1,-0.78,-0.345
01:29:40.252:1,-0.755,-0.345
01:29:40.256:1,-0.765,-0.32
01:29:40.260:1,-0.77,-0.32
01:29:40.264:1,-0.765,-0.315
01:29:40.268:1,-0.76,-0.345
01:29:40.272:1,-0.76,-0.32
01:29:40.276:1,-0.78,-0.295
01:29:40.280:1,-0.77,-0.305
01:29:40.284:1,-0.745,-0.315
01:29:40.288:1,-0.745,-0.21
01:29:40.292:1,-0.73,0.025
01:29:40.296:1,-0.67,0.35
01:29:40.300:1,-0.63,0.615
01:29:40.304:1,-0.575,0.81
01:29:40.308:1,-0.455,0.855
01:29:40.312:1,-0.365,0.775
01:29:40.316:1,-0.315,0.54
01:29:40.320:1,-0.405,0.055
01:29:40.324:1,-0.505,-0.44
01:29:40.328:1,-0.69,-0.705
01:29:40.332:1,-0.945,-0.765
01:29:40.336:1,-1.115,-0.685
01:29:40.340:1,-1.17,-0.575
01:29:40.344:1,-1.15,-0.445
01:29:40.348:1,-1.13,-0.375
01:29:40.352:1,-1.04,-0.3
01:29:40.356:1,-0.955,-0.27
01:29:40.360:1,-0.905,-0.27
01:29:40.364:1,-0.86,-0.3
01:29:40.368:1,-0.85,-0.305
01:29:40.372:1,-0.865,-0.32
01:29:40.376:1,-0.87,-0.305
01:29:40.380:1,-0.87,-0.33
01:29:40.384:1,-0.87,-0.31
01:29:40.388:1,-0.87,-0.32
01:29:40.392:1,-0.87,-0.335
01:29:40.396:1,-0.87,-0.335
01:29:40.400:1,-0.88,-0.315
01:29:40.404:1,-0.88,-0.32
01:29:40.408:1,-0.895,-0.335
01:29:40.412:1,-0.88,-0.335
01:29:40.416:1,-0.9,-0.305
01:29:40.420:1,-0.885,-0.315
01:29:40.424:1,-0.875,-0.315
01:29:40.428:1,-0.9,-0.32
01:29:40.432:1,-0.89,-0.33
01:29:40.436:1,-0.885,-0.315
01:29:40.440:1,-0.895,-0.295
01:29:40.444:1,-0.91,-0.31
01:29:40.448:1,-0.905,-0.31
01:29:40.452:1,-0.905,-0.315
01:29:40.456:1,-0.915,-0.31
01:29:40.460:1,-0.905,-0.305
01:29:40.464:1,-0.9,-0.305
01:29:40.468:1,-0.915,-0.29
01:29:40.472:1,-0.915,-0.295
01:29:40.476:1,-0.91,-0.3
01:29:40.480:1,-0.895,-0.29
01:29:40.484:1,-0.92,-0.27
01:29:40.488:1,-0.92,-0.275
01:29:40.492:1,-0.91,-0.285
01:29:40.496:1,-0.915,-0.26
01:29:40.500:1,-0.92,-0.26
01:29:40.504:1,-0.905,-0.26
01:29:40.508:1,-0.905,-0.255
01:29:40.512:1,-0.91,-0.245
01:29:40.516:1,-0.94,-0.22
01:29:40.520:1,-0.915,-0.205
01:29:40.524:1,-0.92,-0.185
01:29:40.528:1,-0.92,-0.18
01:29:40.532:1,-0.915,-0.16
01:29:40.536:1,-0.9,-0.15
01:29:40.540:1,-0.915,-0.155
01:29:40.544:1,-0.91,-0.13
01:29:40.548:1,-0.91,-0.1
01:29:40.552:1,-0.91,-0.095
01:29:40.556:1,-0.915,-0.075
01:29:40.560:1,-0.88,-0.045
01:29:40.564:1,-0.895,-0.03
01:29:40.568:1,-0.89,-0.03
01:29:40.572:1,-0.875,-0.015
01:29:40.576:1,-0.88,0.025
01:29:40.580:1,-0.875,0.02
01:29:40.584:1,-0.845,0.025
01:29:40.588:1,-0.835,0.045
01:29:40.592:1,-0.845,0.055
01:29:40.596:1,-0.855,0.065
01:29:40.600:1,-0.85,0.07
01:29:40.604:1,-0.845,0.07
01:29:40.608:1,-0.825,0.045
01:29:40.612:1,-0.835,0.06
01:29:40.616:1,-0.815,0.055
01:29:40.620:1,-0.815,0.03
01:29:40.624:1,-0.825,0.015
01:29:40.628:1,-0.82,0.005
01:29:40.632:1,-0.825,0.0
01:29:40.636:1,-0.825,-0.005
01:29:40.640:1,-0.845,0.01
01:29:40.644:1,-0.845,-0.02
01:29:40.648:1,-0.87,-0.015
01:29:40.652:1,-0.845,-0.02
01:29:40.656:1,-0.845,-0.02
01:29:40.660:1,-0.865,-0.03
01:29:40.664:1,-0.87,-0.035
01:29:40.668:1,-0.88,-0.025
01:29:40.672:1,-0.88,-0.025
01:29:40.676:1,-0.87,-0.03
01:29:40.680:1,-0.865,-0.045
01:29:40.684:1,-0.88,-0.055
01:29:40.688:1,-0.885,-0.035
01:29:40.692:1,-0.88,-0.04
01:29:40.696:1,-0.875,-0.02
01:29:40.700:1,-0.885,-0.035
01:29:40.704:1,-0.855,-0.05
01:29:40.708:1,-0.855,-0.06
01:29:40.712:1,-0.875,-0.04
01:29:40.716:1,-0.885,-0.065
01:29:40.720:1,-0.875,-0.065
01:29:40.724:1,-0.88,-0.055
01:29:40.728:1,-0.895,-0.055
01:29:40.732:1,-0.875,-0.07
01:29:40.736:1,-0.87,-0.05
01:29:40.740:1,-0.88,-0.075
01:29:40.744:1,-0.895,-0.085
01:29:40.748:1,-0.875,-0.08
01:29:40.752:1,-0.89,-0.06
01:29:40.756:1,-0.885,-0.07
01:29:40.760:1,-0.875,-0.07
01:29:40.764:1,-0.89,-0.08
01:29:40.768:1,-0.885,-0.08
01:29:40.772:1,-0.88,-0.075
01:29:40.776:1,-0.87,-0.075
01:29:40.780:1,-0.875,-0.075
01:29:40.784:1,-0.875,-0.075
01:29:40.788:1,-0.855,-0.095
01:29:40.792:1,-0.875,-0.06
01:29:40.796:1,-0.86,-0.065
01:29:40.800:1,-0.845,-0.075
01:29:40.804:1,-0.855,-0.085
01:29:40.808:1,-0.86,-0.065
01:29:40.812:1,-0.86,-0.075
01:29:40.816:1,-0.855,-0.075
01:29:40.820:1,-0.85,-0.08
01:29:40.824:1,-0.85,-0.09
01:29:40.828:1,-0.83,-0.085
01:29:40.832:1,-0.845,-0.06
01:29:40.836:1,-0.83,-0.06
01:29:40.840:1,-0.845,-0.07
01:29:40.844:1,-0.84,-0.08
01:29:40.848:1,-0.845,-0.075
01:29:40.852:1,-0.825,-0.08
01:29:40.856:1,-0.825,-0.07
01:29:40.860:1,-0.815,-0.075
01:29:40.864:1,-0.81,-0.085
01:29:40.868:1,-0.815,-0.075
01:29:40.872:1,-0.81,-0.06
01:29:40.876:1,-0.81,-0.055
01:29:40.880:1,-0.805,-0.065
01:29:40.884:1,-0.785,-0.08
01:29:40.888:1,-0.8,-0.07
01:29:40.892:1,-0.79,-0.06
01:29:40.896:1,-0.785,-0.06
01:29:40.900:1,-0.775,-0.075
01:29:40.904:1,-0.77,-0.065
01:29:40.908:1,-0.77,-0.065
01:29:40.912:1,-0.745,-0.06
01:29:40.916:1,-0.74,-0.06
01:29:40.920:1,-0.77,-0.06
01:29:40.924:1,-0.765,-0.05
01:29:40.928:1,-0.76,-0.05
01:29:40.932:1,-0.75,-0.055
01:29:40.936:1,-0.755,-0.06
01:29:40.940:1,-0.75,-0.05
01:29:40.944:1,-0.755,-0.055
01:29:40.948:1,-0.74,-0.04
01:29:40.952:1,-0.7,-0.04
01:29:40.956:1,-0.745,-0.05
01:29:40.960:1,-0.735,-0.045
01:29:40.964:1,-0.725,-0.05
01:29:40.968:1,-0.715,-0.045
01:29:40.972:1,-0.71,-0.035
01:29:40.976:1,-0.715,-0.04
01:29:40.980:1,-0.705,-0.05
01:29:40.984:1,-0.725,-0.055
01:29:40.988:1,-0.73,-0.035
01:29:40.992:1,-0.71,-0.06
01:29:40.996:1,-0.7,-0.055
01:29:41.000:1,-0.705,-0.04
01:29:41.004:1,-0.7,-0.045
01:29:41.008:1,-0.695,-0.03
01:29:41.012:1,-0.695,-0.03
01:29:41.016:1,-0.685,-0.04
01:29:41.020:1,-0.68,-0.045
01:29:41.024:1,-0.685,-0.035
01:29:41.028:1,-0.685,-0.035
01:29:41.032:1,-0.7,-0.035
01:29:41.036:1,-0.675,-0.04
01:29:41.040:1,-0.685,-0.035
01:29:41.044:1,-0.68,-0.03
01:29:41.048:1,-0.665,-0.035
01:29:41.052:1,-0.66,-0.035
01:29:41.056:1,-0.665,-0.045
01:29:41.060:1,-0.67,-0.035
01:29:41.064:1,-0.67,-0.03
01:29:41.068:1,-0.67,-0.03
01:29:41.072:1,-0.64,-0.025
01:29:41.076:1,-0.64,-0.035
01:29:41.080:1,-0.65,-0.015
01:29:41.084:1,-0.66,0.0
01:29:41.088:1,-0.62,0.02
01:29:41.092:1,-0.62,0.045
01:29:41.096:1,-0.62,0.045
01:29:41.100:1,-0.595,0.035
01:29:41.104:1,-0.58,0.025
01:29:41.108:1,-0.57,0.045
01:29:41.112:1,-0.56,0.075
01:29:41.116:1,-0.54,0.105
01:29:41.120:1,-0.525,0.08
01:29:41.124:1,-0.54,0.045
01:29:41.128:1,-0.565,0.015
01:29:41.132:1,-0.6,0.03
01:29:41.136:1,-0.615,0.02
01:29:41.140:1,-0.61,-0.015
01:29:41.144:1,-0.605,-0.025
01:29:41.148:1,-0.605,-0.015
01:29:41.152:1,-0.63,0.0
01:29:41.156:1,-0.585,0.005
01:29:41.160:1,-0.605,0.015
01:29:41.164:1,-0.555,0.015
01:29:41.168:1,-0.53,-0.015
01:29:41.172:1,-0.52,-0.035
01:29:41.176:1,-0.515,-0.06
01:29:41.180:1,-0.535,-0.08
01:29:41.184:1,-0.505,-0.08
01:29:41.188:1,-0.525,-0.085
01:29:41.192:1,-0.52,-0.085
01:29:41.196:1,-0.525,-0.115
01:29:41.200:1,-0.54,-0.09
01:29:41.204:1,-0.545,-0.095
01:29:41.208:1,-0.51,-0.085
01:29:41.212:1,-0.52,-0.09
01:29:41.216:1,-0.51,-0.075
01:29:41.220:1,-0.5,-0.1
01:29:41.224:1,-0.505,-0.075
01:29:41.228:1,-0.495,-0.065
01:29:41.232:1,-0.495,-0.06
01:29:41.236:1,-0.48,-0.09
01:29:41.240:1,-0.475,-0.07
01:29:41.244:1,-0.465,-0.085
01:29:41.248:1,-0.48,-0.055
01:29:41.252:1,-0.45,0.08
01:29:41.256:1,-0.42,0.27
01:29:41.260:1,-0.41,0.485
01:29:41.264:1,-0.335,0.705
01:29:41.268:1,-0.24,0.795
01:29:41.272:1,-0.155,0.815
01:29:41.276:1,-0.125,0.745
01:29:41.280:1,-0.125,0.48
01:29:41.284:1,-0.13,0.025
01:29:41.288:1,-0.215,-0.305
01:29:41.292:1,-0.435,-0.49
01:29:41.296:1,-0.62,-0.535
01:29:41.300:1,-0.73,-0.485
01:29:41.304:1,-0.765,-0.365
01:29:41.308:1,-0.74,-0.26
01:29:41.312:1,-0.675,-0.17
01:29:41.316:1,-0.575,-0.1
01:29:41.320:1,-0.515,-0.07
01:29:41.324:1,-0.45,-0.06
01:29:41.328:1,-0.42,-0.075
01:29:41.332:1,-0.405,-0.07
01:29:41.336:1,-0.38,-0.09
01:29:41.340:1,-0.385,-0.085
01:29:41.344:1,-0.365,-0.085
01:29:41.348:1,-0.38,-0.075
01:29:41.352:1,-0.375,-0.09
01:29:41.356:1,-0.38,-0.065
01:29:41.360:1,-0.345,-0.085
01:29:41.364:1,-0.36,-0.06
01:29:41.368:1,-0.37,-0.055
01:29:41.372:1,-0.365,-0.055
01:29:41.376:1,-0.35,-0.05
01:29:41.380:1,-0.335,-0.06
01:29:41.384:1,-0.34,-0.065
01:29:41.388:1,-0.325,-0.055
01:29:41.392:1,-0.335,-0.055
01:29:41.396:1,-0.345,-0.08
01:29:41.400:1,-0.335,-0.065
01:29:41.404:1,-0.315,-0.055
01:29:41.408:1,-0.31,-0.045
01:29:41.412:1,-0.315,-0.065
01:29:41.416:1,-0.295,-0.085
01:29:41.420:1,-0.31,-0.07
01:29:41.424:1,-0.31,-0.06
01:29:41.428:1,-0.3,-0.055
01:29:41.432:1,-0.295,-0.05
01:29:41.436:1,-0.29,-0.045
01:29:41.440:1,-0.28,-0.045
01:29:41.444:1,-0.3,-0.04
01:29:41.448:1,-0.29,-0.03
01:29:41.452:1,-0.275,-0.045
01:29:41.456:1,-0.245,-0.055
01:29:41.460:1,-0.215,-0.015
01:29:41.464:1,-0.2,0.02
01:29:41.468:1,-0.16,0.03
01:29:41.472:1,-0.135,0.005
01:29:41.476:1,-0.135,-0.005
01:29:41.480:1,-0.155,0.01
01:29:41.484:1,-0.17,-0.005
01:29:41.488:1,-0.185,-0.02
01:29:41.492:1,-0.21,-0.035
01:29:41.496:1,-0.22,-0.03
01:29:41.500:1,-0.23,-0.03
01:29:41.504:1,-0.25,-0.01
01:29:41.508:1,-0.23,-0.025
01:29:41.512:1,-0.22,-0.035
01:29:41.516:1,-0.215,-0.045
01:29:41.520:1,-0.215,-0.035
01:29:41.524:1,-0.205,0.0
01:29:41.528:1,-0.225,0.02
01:29:41.532:1,-0.225,0.025
01:29:41.536:1,-0.2,0.035
01:29:41.540:1,-0.195,0.045
01:29:41.544:1,-0.205,0.075
01:29:41.548:1,-0.195,0.07
01:29:41.552:1,-0.175,0.085
01:29:41.556:1,-0.17,0.105
01:29:41.560:1,-0.155,0.115
01:29:41.564:1,-0.14,0.13
01:29:41.568:1,-0.14,0.13
01:29:41.572:1,-0.145,0.14
01:29:41.576:1,-0.12,0.12
01:29:41.580:1,-0.09,0.115
01:29:41.584:1,-0.11,0.125
01:29:41.588:1,-0.1,0.115
01:29:41.592:1,-0.095,0.105
01:29:41.596:1,-0.105,0.115
01:29:41.600:1,-0.115,0.11
01:29:41.604:1,-0.11,0.1
01:29:41.608:1,-0.115,0.095
01:29:41.612:1,-0.1,0.08
01:29:41.616:1,-0.08,0.075
01:29:41.620:1,-0.09,0.09
01:29:41.624:1,-0.09,0.115
01:29:41.628:1,-0.095,0.095
01:29:41.632:1,-0.06,0.09
01:29:41.636:1,-0.05,0.085
01:29:41.640:1,-0.07,0.07
01:29:41.644:1,-0.055,0.045
01:29:41.648:1,-0.05,0.0
01:29:41.652:1,-0.07,0.03
01:29:41.656:1,-0.075,0.135
01:29:41.660:1,-0.045,0.32
01:29:41.664:1,0.0,0.56
01:29:41.668:1,0.03,0.83
01:29:41.672:1,0.13,0.975
01:29:41.676:1,0.265,0.975
01:29:41.680:1,0.39,0.715
01:29:41.684:1,0.345,0.265
01:29:41.688:1,0.18,-0.035
01:29:41.692:1,-0.07,-0.22
01:29:41.696:1,-0.205,-0.29
01:29:41.700:1,-0.25,-0.23
01:29:41.704:1,-0.29,-0.15
01:29:41.708:1,-0.275,-0.07
01:29:41.712:1,-0.225,0.035
01:29:41.716:1,-0.16,0.075
01:29:41.720:1,-0.07,0.05
01:29:41.724:1,-0.045,0.015
01:29:41.728:1,-0.03,-0.005
01:29:41.732:1,-0.035,-0.01
01:29:41.736:1,-0.04,-0.025
01:29:41.740:1,-0.03,-0.01
01:29:41.744:1,-0.02,-0.045
01:29:41.748:1,-0.04,-0.05
01:29:41.752:1,-0.03,-0.06
01:29:41.756:1,-0.04,-0.07
01:29:41.760:1,-0.05,-0.06
01:29:41.764:1,-0.05,-0.06
01:29:41.768:1,-0.025,-0.065
01:29:41.772:1,-0.03,-0.08
01:29:41.776:1,-0.035,-0.09
01:29:41.780:1,-0.035,-0.09
01:29:41.784:1,-0.015,-0.08
01:29:41.788:1,-0.03,-0.08
01:29:41.792:1,-0.025,-0.1
01:29:41.796:1,-0.02,-0.095
01:29:41.800:1,-0.025,-0.08
01:29:41.804:1,-0.01,-0.095
01:29:41.808:1,-0.01,-0.08
01:29:41.812:1,-0.005,-0.115
01:29:41.816:1,0.0,-0.095
01:29:41.820:1,-0.01,-0.09
01:29:41.824:1,0.015,-0.075
01:29:41.828:1,0.01,-0.07
01:29:41.832:1,0.02,-0.09
01:29:41.836:1,0.015,-0.09
01:29:41.840:1,0.04,-0.095
01:29:41.844:1,0.02,-0.1
01:29:41.848:1,0.035,-0.09
01:29:41.852:1,0.035,-0.04
01:29:41.856:1,0.045,-0.005
01:29:41.860:1,0.06,0.005
01:29:41.864:1,0.095,0.045
01:29:41.868:1,0.1,0.065
01:29:41.872:1,0.11,0.065
01:29:41.876:1,0.125,0.1
01:29:41.880:1,0.14,0.16
01:29:41.884:1,0.18,0.185
01:29:41.888:1,0.195,0.195
01:29:41.892:1,0.215,0.185
01:29:41.896:1,0.21,0.2
01:29:41.900:1,0.205,0.2
01:29:41.904:1,0.185,0.185
01:29:41.908:1,0.17,0.18
01:29:41.912:1,0.165,0.19
01:29:41.916:1,0.13,0.19
01:29:41.920:1,0.145,0.205
01:29:41.924:1,0.135,0.205
01:29:41.928:1,0.135,0.21
01:29:41.932:1,0.125,0.185
01:29:41.936:1,0.145,0.175
01:29:41.940:1,0.13,0.175
01:29:41.944:1,0.15,0.175
01:29:41.948:1,0.16,0.135
01:29:41.952:1,0.165,0.145
01:29:41.956:1,0.16,0.105
01:29:41.960:1,0.15,0.1
01:29:41.964:1,0.15,0.065
01:29:41.968:1,0.155,0.055
01:29:41.972:1,0.165,0.04
01:29:41.976:1,0.17,0.035
01:29:41.980:1,0.17,0.045
01:29:41.984:1,0.165,0.035
01:29:41.988:1,0.155,-0.005
01:29:41.992:1,0.15,0.005
01:29:41.996:1,0.16,0.005
01:29:42.000:1,0.165,0.0
01:29:42.004:1,0.17,-0.02
01:29:42.008:1,0.17,-0.03
01:29:42.012:1,0.16,-0.04
01:29:42.016:1,0.17,-0.045
01:29:42.020:1,0.17,-0.045
01:29:42.024:1,0.165,-0.05
01:29:42.028:1,0.165,-0.055
01:29:42.032:1,0.17,-0.045
01:29:42.036:1,0.155,-0.04
01:29:42.040:1,0.16,-0.045
01:29:42.044:1,0.175,-0.035
01:29:42.048:1,0.19,0.0
01:29:42.052:1,0.215,-0.025
01:29:42.056:1,0.24,-0.035
01:29:42.060:1,0.23,0.005
01:29:42.064:1,0.245,0.065
01:29:42.068:1,0.275,0.105
01:29:42.072:1,0.275,0.14
01:29:42.076:1,0.3,0.15
01:29:42.080:1,0.31,0.105
01:29:42.084:1,0.305,0.095
01:29:42.088:1,0.285,0.085
01:29:42.092:1,0.275,0.07
01:29:42.096:1,0.285,0.065
01:29:42.100:1,0.265,0.04
01:29:42.104:1,0.255,0.02
01:29:42.108:1,0.26,0.005
01:29:42.112:1,0.265,0.0
01:29:42.116:1,0.255,0.005
01:29:42.120:1,0.27,-0.01
01:29:42.124:1,0.245,-0.04
01:29:42.128:1,0.24,-0.03
01:29:42.132:1,0.25,-0.025
01:29:42.136:1,0.255,-0.03
01:29:42.140:1,0.245,-0.03
01:29:42.144:1,0.25,-0.05
01:29:42.148:1,0.255,-0.055
01:29:42.152:1,0.255,-0.05
01:29:42.156:1,0.26,-0.055
01:29:42.160:1,0.25,-0.07
01:29:42.164:1,0.275,-0.06
01:29:42.168:1,0.275,-0.065
01:29:42.172:1,0.27,-0.05
01:29:42.176:1,0.28,-0.05
01:29:42.180:1,0.28,-0.06
01:29:42.184:1,0.26,-0.09
01:29:42.188:1,0.275,-0.09
01:29:42.192:1,0.27,-0.095
01:29:42.196:1,0.27,-0.085
01:29:42.200:1,0.275,-0.1
01:29:42.204:1,0.29,-0.11
01:29:42.208:1,0.285,-0.1
01:29:42.212:1,0.295,-0.085
01:29:42.216:1,0.31,-0.075
01:29:42.220:1,0.31,-0.08
01:29:42.224:1,0.305,-0.08
01:29:42.228:1,0.3,-0.11
01:29:42.232:1,0.33,-0.05
01:29:42.236:1,0.345,0.09
01:29:42.240:1,0.39,0.245
01:29:42.244:1,0.435,0.45
01:29:42.248:1,0.455,0.695
01:29:42.252:1,0.495,0.93
01:29:42.256:1,0.595,1.035
01:29:42.260:1,0.7,1.035
01:29:42.264:1,0.79,0.94
01:29:42.268:1,0.805,0.565
01:29:42.272:1,0.785,0.05
01:29:42.276:1,0.68,-0.32
01:29:42.280:1,0.46,-0.5
01:29:42.284:1,0.225,-0.505
01:29:42.288:1,0.04,-0.45
01:29:42.292:1,-0.015,-0.35
01:29:42.296:1,-0.01,-0.22
01:29:42.300:1,0.04,-0.145
01:29:42.304:1,0.105,-0.07
01:29:42.308:1,0.21,-0.05
01:29:42.312:1,0.27,-0.075
01:29:42.316:1,0.315,-0.085
01:29:42.320:1,0.315,-0.105
01:29:42.324:1,0.315,-0.135
01:29:42.328:1,0.32,-0.125
01:29:42.332:1,0.325,-0.11
01:29:42.336:1,0.315,-0.13
01:29:42.340:1,0.325,-0.13
01:29:42.344:1,0.31,-0.15
01:29:42.348:1,0.325,-0.135
01:29:42.352:1,0.325,-0.15
01:29:42.356:1,0.32,-0.145
01:29:42.360:1,0.31,-0.15
01:29:42.364:1,0.31,-0.145
01:29:42.368:1,0.32,-0.16
01:29:42.372:1,0.31,-0.16
01:29:42.376:1,0.32,-0.16
01:29:42.380:1,0.29,-0.165
01:29:42.384:1,0.305,-0.155
01:29:42.388:1,0.315,-0.15
01:29:42.392:1,0.3,-0.16
01:29:42.396:1,0.33,-0.145
01:29:42.400:1,0.33,-0.15
01:29:42.404:1,0.33,-0.14
01:29:42.408:1,0.335,-0.09
01:29:42.412:1,0.355,0.0
01:29:42.416:1,0.365,0.07
01:29:42.420:1,0.37,0.075
01:29:42.424:1,0.375,0.06
01:29:42.428:1,0.395,0.055
01:29:42.432:1,0.375,0.035
01:29:42.436:1,0.37,0.055
01:29:42.440:1,0.37,0.03
01:29:42.444:1,0.36,0.025
01:29:42.448:1,0.365,0.03
01:29:42.452:1,0.355,0.025
01:29:42.456:1,0.38,0.02
01:29:42.460:1,0.36,0.025
01:29:42.464:1,0.36,0.02
01:29:42.468:1,0.345,0.025
01:29:42.472:1,0.345,0.04
01:29:42.476:1,0.335,0.02
01:29:42.480:1,0.325,0.025
01:29:42.484:1,0.33,0.04
01:29:42.488:1,0.335,0.05
01:29:42.492:1,0.345,0.06
01:29:42.496:1,0.335,0.065
01:29:42.500:1,0.325,0.08
01:29:42.504:1,0.335,0.07
01:29:42.508:1,0.345,0.09
01:29:42.512:1,0.36,0.11
01:29:42.516:1,0.34,0.115
01:29:42.520:1,0.355,0.12
01:29:42.524:1,0.35,0.13
01:29:42.528:1,0.36,0.13
01:29:42.532:1,0.385,0.16
01:29:42.536:1,0.37,0.165
01:29:42.540:1,0.365,0.165
01:29:42.544:1,0.385,0.165
01:29:42.548:1,0.4,0.165
01:29:42.552:1,0.395,0.15
01:29:42.556:1,0.405,0.145
01:29:42.560:1,0.375,0.115
01:29:42.564:1,0.39,0.105
01:29:42.568:1,0.385,0.075
01:29:42.572:1,0.425,0.095
01:29:42.576:1,0.405,0.145
01:29:42.580:1,0.42,0.205
01:29:42.584:1,0.425,0.21
01:29:42.588:1,0.435,0.24
01:29:42.592:1,0.425,0.275
01:29:42.596:1,0.425,0.265
01:29:42.600:1,0.42,0.265
01:29:42.604:1,0.425,0.255
01:29:42.608:1,0.435,0.225
01:29:42.612:1,0.415,0.195
01:29:42.616:1,0.4,0.18
01:29:42.620:1,0.375,0.185
01:29:42.624:1,0.36,0.15
01:29:42.628:1,0.36,0.145
01:29:42.632:1,0.35,0.15
01:29:42.636:1,0.355,0.135
01:29:42.640:1,0.38,0.115
01:29:42.644:1,0.35,0.12
01:29:42.648:1,0.36,0.105
01:29:42.652:1,0.345,0.105
01:29:42.656:1,0.325,0.09
01:29:42.660:1,0.34,0.08
01:29:42.664:1,0.325,0.09
01:29:42.668:1,0.325,0.085
01:29:42.672:1,0.34,0.095
01:29:42.676:1,0.32,0.075
01:29:42.680:1,0.315,0.055
01:29:42.684:1,0.32,0.015
01:29:42.688:1,0.325,0.015
01:29:42.692:1,0.32,0.095
01:29:42.696:1,0.325,0.255
01:29:42.700:1,0.375,0.44
01:29:42.704:1,0.395,0.67
01:29:42.708:1,0.49,0.84
01:29:42.712:1,0.55,0.875
01:29:42.716:1,0.61,0.815
01:29:42.720:1,0.645,0.565
01:29:42.724:1,0.6,0.13
01:29:42.728:1,0.5,-0.275
01:29:42.732:1,0.295,-0.455
01:29:42.736:1,0.1,-0.5
01:29:42.740:1,-0.055,-0.455
01:29:42.744:1,-0.13,-0.35
01:29:42.748:1,-0.105,-0.175
01:29:42.752:1,-0.035,0.02
01:29:42.756:1,0.065,0.155
01:29:42.760:1,0.195,0.195
01:29:42.764:1,0.25,0.2
01:29:42.768:1,0.27,0.215
01:29:42.772:1,0.28,0.205
01:29:42.776:1,0.27,0.195
01:29:42.780:1,0.26,0.18
01:29:42.784:1,0.285,0.17
01:29:42.788:1,0.275,0.17
01:29:42.792:1,0.3,0.15
01:29:42.796:1,0.28,0.14
01:29:42.800:1,0.265,0.105
01:29:42.804:1,0.25,0.085
01:29:42.808:1,0.255,0.085
01:29:42.812:1,0.23,0.09
01:29:42.816:1,0.235,0.07
01:29:42.820:1,0.23,0.07
01:29:42.824:1,0.235,0.055
01:29:42.828:1,0.23,0.065
01:29:42.832:1,0.235,0.08
01:29:42.836:1,0.225,0.07
01:29:42.840:1,0.225,0.055
01:29:42.844:1,0.225,0.035
01:29:42.848:1,0.225,0.03
01:29:42.852:1,0.225,0.045
01:29:42.856:1,0.2,0.03
01:29:42.860:1,0.205,0.015
01:29:42.864:1,0.185,0.015
01:29:42.868:1,0.205,0.005
01:29:42.872:1,0.215,0.02
01:29:42.876:1,0.22,0.02
01:29:42.880:1,0.215,0.005
01:29:42.884:1,0.21,0.01
01:29:42.888:1,0.225,0.05
01:29:42.892:1,0.235,0.075
01:29:42.896:1,0.22,0.08
01:29:42.900:1,0.235,0.1
01:29:42.904:1,0.235,0.11
01:29:42.908:1,0.24,0.125
01:29:42.912:1,0.24,0.145
01:29:42.916:1,0.22,0.165
01:29:42.920:1,0.225,0.19
01:29:42.924:1,0.23,0.22
01:29:42.928:1,0.24,0.255
01:29:42.932:1,0.23,0.29
01:29:42.936:1,0.215,0.29
01:29:42.940:1,0.215,0.285
01:29:42.944:1,0.23,0.28
01:29:42.948:1,0.22,0.29
01:29:42.952:1,0.23,0.29
01:29:42.956:1,0.235,0.29
01:29:42.960:1,0.24,0.28
01:29:42.964:1,0.235,0.29
01:29:42.968:1,0.25,0.29
01:29:42.972:1,0.245,0.295
01:29:42.976:1,0.25,0.285
01:29:42.980:1,0.255,0.26
01:29:42.984:1,0.245,0.27
01:29:42.988:1,0.255,0.255
01:29:42.992:1,0.265,0.235
01:29:42.996:1,0.27,0.215
01:29:43.000:1,0.265,0.2
01:29:43.004:1,0.265,0.17
01:29:43.008:1,0.26,0.195
01:29:43.012:1,0.27,0.18
01:29:43.016:1,0.245,0.175
01:29:43.020:1,0.245,0.15
01:29:43.024:1,0.28,0.17
01:29:43.028:1,0.265,0.17
01:29:43.032:1,0.275,0.16
01:29:43.036:1,0.255,0.15
01:29:43.040:1,0.255,0.135
01:29:43.044:1,0.26,0.145
01:29:43.048:1,0.24,0.14
01:29:43.052:1,0.255,0.11
01:29:43.056:1,0.245,0.105
01:29:43.060:1,0.26,0.13
01:29:43.064:1,0.265,0.195
01:29:43.068:1,0.275,0.235
01:29:43.072:1,0.245,0.25
01:29:43.076:1,0.255,0.255
01:29:43.080:1,0.24,0.26
01:29:43.084:1,0.22,0.265
01:29:43.088:1,0.22,0.27
01:29:43.092:1,0.215,0.285
01:29:43.096:1,0.21,0.295
01:29:43.100:1,0.205,0.275
01:29:43.104:1,0.215,0.27
01:29:43.108:1,0.22,0.28
01:29:43.112:1,0.21,0.25
01:29:43.116:1,0.215,0.24
01:29:43.120:1,0.215,0.235
01:29:43.124:1,0.2,0.225
01:29:43.128:1,0.215,0.22
01:29:43.132:1,0.215,0.215
01:29:43.136:1,0.195,0.2
01:29:43.140:1,0.18,0.195
01:29:43.144:1,0.175,0.19
01:29:43.148:1,0.175,0.19
01:29:43.152:1,0.18,0.18
01:29:43.156:1,0.195,0.195
01:29:43.160:1,0.185,0.195
01:29:43.164:1,0.185,0.205
01:29:43.168:1,0.195,0.205
01:29:43.172:1,0.19,0.195
01:29:43.176:1,0.195,0.165
01:29:43.180:1,0.21,0.145
01:29:43.184:1,0.225,0.135
01:29:43.188:1,0.215,0.22
01:29:43.192:1,0.23,0.355
01:29:43.196:1,0.285,0.56
01:29:43.200:1,0.345,0.755
01:29:43.204:1,0.4,0.935
01:29:43.208:1,0.5,0.975
01:29:43.212:1,0.59,0.965
01:29:43.216:1,0.6,0.76
01:29:43.220:1,0.575,0.31
01:29:43.224:1,0.525,-0.085
01:29:43.228:1,0.32,-0.25
01:29:43.232:1,0.085,-0.28
01:29:43.236:1,-0.08,-0.215
01:29:43.240:1,-0.12,-0.08
01:29:43.244:1,-0.14,0.08
01:29:43.248:1,-0.115,0.185
01:29:43.252:1,-0.05,0.25
01:29:43.256:1,0.055,0.26
01:29:43.260:1,0.11,0.27
01:29:43.264:1,0.155,0.255
01:29:43.268:1,0.155,0.255
01:29:43.272:1,0.18,0.27
01:29:43.276:1,0.175,0.245
01:29:43.280:1,0.18,0.23
01:29:43.284:1,0.205,0.22
01:29:43.288:1,0.18,0.2
01:29:43.292:1,0.175,0.195
01:29:43.296:1,0.18,0.185
01:29:43.300:1,0.15,0.18
01:29:43.304:1,0.16,0.18
01:29:43.308:1,0.155,0.17
01:29:43.312:1,0.145,0.175
01:29:43.316:1,0.135,0.155
01:29:43.320:1,0.14,0.16
01:29:43.324:1,0.14,0.165
01:29:43.328:1,0.145,0.16
01:29:43.332:1,0.14,0.175
01:29:43.336:1,0.16,0.14
01:29:43.340:1,0.15,0.15
01:29:43.344:1,0.145,0.155
01:29:43.348:1,0.155,0.155
01:29:43.352:1,0.15,0.14
01:29:43.356:1,0.135,0.13
01:29:43.360:1,0.15,0.12
01:29:43.364:1,0.155,0.14
01:29:43.368:1,0.15,0.145
01:29:43.372:1,0.155,0.14
01:29:43.376:1,0.175,0.13
01:29:43.380:1,0.165,0.145
01:29:43.384:1,0.17,0.14
01:29:43.388:1,0.18,0.14
01:29:43.392:1,0.18,0.14
01:29:43.396:1,0.195,0.195
01:29:43.400:1,0.195,0.245
01:29:43.404:1,0.21,0.29
01:29:43.408:1,0.195,0.3
01:29:43.412:1,0.19,0.3
01:29:43.416:1,0.185,0.3
01:29:43.420:1,0.185,0.31
01:29:43.424:1,0.175,0.315
01:29:43.428:1,0.155,0.33
01:29:43.432:1,0.17,0.325
01:29:43.436:1,0.155,0.335
01:29:43.440:1,0.145,0.365
01:29:43.444:1,0.155,0.395
01:29:43.448:1,0.17,0.41
01:29:43.452:1,0.165,0.42
01:29:43.456:1,0.165,0.42
01:29:43.460:1,0.185,0.435
01:29:43.464:1,0.2,0.445
01:29:43.468:1,0.2,0.43
01:29:43.472:1,0.215,0.415
01:29:43.476:1,0.22,0.425
01:29:43.480:1,0.23,0.435
01:29:43.484:1,0.245,0.415
01:29:43.488:1,0.235,0.44
01:29:43.492:1,0.25,0.42
01:29:43.496:1,0.255,0.39
01:29:43.500:1,0.25,0.385
01:29:43.504:1,0.245,0.385
01:29:43.508:1,0.24,0.34
01:29:43.512:1,0.245,0.33
01:29:43.516:1,0.26,0.325
01:29:43.520:1,0.23,0.335
01:29:43.524:1,0.22,0.3
01:29:43.528:1,0.235,0.31
01:29:43.532:1,0.22,0.3
01:29:43.536:1,0.21,0.295
01:29:43.540:1,0.23,0.3
01:29:43.544:1,0.225,0.295
01:29:43.548:1,0.22,0.265
01:29:43.552:1,0.205,0.275
01:29:43.556:1,0.21,0.255
01:29:43.560:1,0.23,0.24
01:29:43.564:1,0.225,0.265
01:29:43.568:1,0.225,0.335
01:29:43.572:1,0.25,0.37
01:29:43.576:1,0.27,0.37
01:29:43.580:1,0.28,0.4
01:29:43.584:1,0.26,0.385
01:29:43.588:1,0.255,0.375
01:29:43.592:1,0.235,0.365
01:29:43.596:1,0.23,0.345
01:29:43.600:1,0.22,0.34
01:29:43.604:1,0.215,0.35
01:29:43.608:1,0.205,0.335
01:29:43.612:1,0.19,0.34
01:29:43.616:1,0.2,0.32
01:29:43.620:1,0.2,0.315
01:29:43.624:1,0.185,0.335
01:29:43.628:1,0.185,0.34
01:29:43.632:1,0.175,0.295
01:29:43.636:1,0.175,0.295
01:29:43.640:1,0.165,0.3
01:29:43.644:1,0.145,0.305
01:29:43.648:1,0.185,0.29
01:29:43.652:1,0.195,0.26
01:29:43.656:1,0.19,0.245
01:29:43.660:1,0.195,0.25
01:29:43.664:1,0.185,0.24
01:29:43.668:1,0.18,0.23
01:29:43.672:1,0.17,0.205
01:29:43.676:1,0.19,0.19
01:29:43.680:1,0.185,0.2
01:29:43.684:1,0.165,0.205
01:29:43.688:1,0.15,0.195
01:29:43.692:1,0.175,0.175
01:29:43.696:1,0.16,0.165
01:29:43.700:1,0.175,0.155
01:29:43.704:1,0.175,0.16
01:29:43.708:1,0.16,0.145
01:29:43.712:1,0.155,0.12
01:29:43.716:1,0.165,0.115
01:29:43.720:1,0.16,0.11
01:29:43.724:1,0.16,0.095
01:29:43.728:1,0.155,0.105
01:29:43.732:1,0.175,0.18
01:29:43.736:1,0.18,0.22
01:29:43.740:1,0.2,0.25
01:29:43.744:1,0.19,0.265
01:29:43.748:1,0.175,0.28
01:29:43.752:1,0.19,0.26
01:29:43.756:1,0.18,0.28
01:29:43.760:1,0.18,0.28
01:29:43.764:1,0.19,0.28
01:29:43.768:1,0.175,0.29
01:29:43.772:1,0.185,0.29
01:29:43.776:1,0.165,0.275
01:29:43.780:1,0.175,0.27
01:29:43.784:1,0.17,0.255
01:29:43.788:1,0.17,0.255
01:29:43.792:1,0.155,0.245
01:29:43.796:1,0.175,0.25
01:29:43.800:1,0.175,0.28
01:29:43.804:1,0.16,0.3
01:29:43.808:1,0.17,0.28
01:29:43.812:1,0.195,0.27
01:29:43.816:1,0.175,0.265
01:29:43.820:1,0.185,0.255
01:29:43.824:1,0.175,0.26
01:29:43.828:1,0.2,0.255
01:29:43.832:1,0.19,0.225
01:29:43.836:1,0.21,0.22
01:29:43.840:1,0.205,0.205
01:29:43.844:1,0.195,0.21
01:29:43.848:1,0.18,0.185
01:29:43.852:1,0.19,0.185
01:29:43.856:1,0.17,0.195
01:29:43.860:1,0.17,0.185
01:29:43.864:1,0.18,0.185
01:29:43.868:1,0.185,0.175
01:29:43.872:1,0.18,0.17
01:29:43.876:1,0.175,0.15
01:29:43.880:1,0.2,0.13
01:29:43.884:1,0.195,0.195
01:29:43.888:1,0.19,0.33
01:29:43.892:1,0.24,0.52
01:29:43.896:1,0.28,0.75
01:29:43.900:1,0.325,0.99
01:29:43.904:1,0.425,1.04
01:29:43.908:1,0.53,1.045
01:29:43.912:1,0.62,0.975
01:29:43.916:1,0.665,0.55
01:29:43.920:1,0.62,0.07
01:29:43.924:1,0.495,-0.23
01:29:43.928:1,0.22,-0.305
01:29:43.932:1,-0.04,-0.26
01:29:43.936:1,-0.145,-0.19
01:29:43.940:1,-0.175,-0.065
01:29:43.944:1,-0.16,0.055
01:29:43.948:1,-0.115,0.15
01:29:43.952:1,-0.03,0.185
01:29:43.956:1,0.06,0.19
01:29:43.960:1,0.08,0.18
01:29:43.964:1,0.14,0.185
01:29:43.968:1,0.14,0.2
01:29:43.972:1,0.145,0.19
01:29:43.976:1,0.155,0.19
01:29:43.980:1,0.155,0.195
01:29:43.984:1,0.165,0.18
01:29:43.988:1,0.175,0.145
01:29:43.992:1,0.17,0.145
01:29:43.996:1,0.165,0.145
01:29:44.000:1,0.175,0.14
01:29:44.004:1,0.175,0.135
01:29:44.008:1,0.165,0.125
01:29:44.012:1,0.175,0.115
01:29:44.016:1,0.175,0.09
01:29:44.020:1,0.185,0.1
01:29:44.024:1,0.165,0.08
01:29:44.028:1,0.175,0.08
01:29:44.032:1,0.165,0.07
01:29:44.036:1,0.155,0.085
01:29:44.040:1,0.165,0.075
01:29:44.044:1,0.175,0.065
01:29:44.048:1,0.17,0.055
01:29:44.052:1,0.155,0.03
01:29:44.056:1,0.15,0.015
01:29:44.060:1,0.155,0.01
01:29:44.064:1,0.14,-0.005
01:29:44.068:1,0.16,-0.01
01:29:44.072:1,0.16,0.005
01:29:44.076:1,0.175,0.06
01:29:44.080:1,0.165,0.09
01:29:44.084:1,0.18,0.13
01:29:44.088:1,0.19,0.15
01:29:44.092:1,0.165,0.14
01:29:44.096:1,0.175,0.155
01:29:44.100:1,0.17,0.165
01:29:44.104:1,0.16,0.155
01:29:44.108:1,0.18,0.135
01:29:44.112:1,0.165,0.14
01:29:44.116:1,0.165,0.145
01:29:44.120:1,0.165,0.165
01:29:44.124:1,0.175,0.165
01:29:44.128:1,0.165,0.19
01:29:44.132:1,0.155,0.2
01:29:44.136:1,0.175,0.23
01:29:44.140:1,0.185,0.225
01:29:44.144:1,0.195,0.23
01:29:44.148:1,0.205,0.22
01:29:44.152:1,0.22,0.225
01:29:44.156:1,0.215,0.255
01:29:44.160:1,0.235,0.27
01:29:44.164:1,0.25,0.275
01:29:44.168:1,0.23,0.285
01:29:44.172:1,0.24,0.3
01:29:44.176:1,0.25,0.3
01:29:44.180:1,0.25,0.315
01:29:44.184:1,0.265,0.315
01:29:44.188:1,0.28,0.325
01:29:44.192:1,0.28,0.315
01:29:44.196:1,0.29,0.32
01:29:44.200:1,0.305,0.315
01:29:44.204:1,0.31,0.275
01:29:44.208:1,0.3,0.27
01:29:44.212:1,0.3,0.26
01:29:44.216:1,0.305,0.255
01:29:44.220:1,0.295,0.245
01:29:44.224:1,0.265,0.24
01:29:44.228:1,0.28,0.21
01:29:44.232:1,0.27,0.18
01:29:44.236:1,0.28,0.185
01:29:44.240:1,0.275,0.215
01:29:44.244:1,0.28,0.225
01:29:44.248:1,0.275,0.235
01:29:44.252:1,0.26,0.24
01:29:44.256:1,0.26,0.23
01:29:44.260:1,0.27,0.23
01:29:44.264:1,0.255,0.225
01:29:44.268:1,0.275,0.205
01:29:44.272:1,0.26,0.2
01:29:44.276:1,0.27,0.2
01:29:44.280:1,0.245,0.2
01:29:44.284:1,0.245,0.19
01:29:44.288:1,0.25,0.19
01:29:44.292:1,0.25,0.205
01:29:44.296:1,0.255,0.195
01:29:44.300:1,0.255,0.205
01:29:44.304:1,0.245,0.195
01:29:44.308:1,0.265,0.165
01:29:44.312:1,0.27,0.145
01:29:44.316:1,0.27,0.155
01:29:44.320:1,0.26,0.155
01:29:44.324:1,0.28,0.13
01:29:44.328:1,0.285,0.135
01:29:44.332:1,0.29,0.115
01:29:44.336:1,0.275,0.105
01:29:44.340:1,0.285,0.105
01:29:44.344:1,0.275,0.085
01:29:44.348:1,0.255,0.075
01:29:44.352:1,0.265,0.05
01:29:44.356:1,0.28,0.06
01:29:44.360:1,0.27,0.06
01:29:44.364:1,0.285,0.055
01:29:44.368:1,0.245,0.035
01:29:44.372:1,0.25,0.035
01:29:44.376:1,0.23,0.055
01:29:44.380:1,0.255,0.065
01:29:44.384:1,0.26,0.06
01:29:44.388:1,0.26,0.055
01:29:44.392:1,0.26,0.015
01:29:44.396:1,0.26,0.045
01:29:44.400:1,0.27,0.12
01:29:44.404:1,0.29,0.25
01:29:44.408:1,0.34,0.435
01:29:44.412:1,0.36,0.645
01:29:44.416:1,0.44,0.79
01:29:44.420:1,0.55,0.825
01:29:44.424:1,0.63,0.76
01:29:44.428:1,0.67,0.475
01:29:44.432:1,0.67,0.045
01:29:44.436:1,0.575,-0.265
01:29:44.440:1,0.375,-0.33
01:29:44.444:1,0.12,-0.32
01:29:44.448:1,-0.015,-0.31
01:29:44.452:1,-0.06,-0.245
01:29:44.456:1,-0.065,-0.11
01:29:44.460:1,-0.065,0.0
01:29:44.464:1,0.0,0.085
01:29:44.468:1,0.095,0.09
01:29:44.472:1,0.15,0.085
01:29:44.476:1,0.19,0.075
01:29:44.480:1,0.215,0.025
01:29:44.484:1,0.2,0.01
01:29:44.488:1,0.22,0.015
01:29:44.492:1,0.215,-0.005
01:29:44.496:1,0.215,0.0
01:29:44.500:1,0.2,0.01
01:29:44.504:1,0.21,-0.005
01:29:44.508:1,0.21,-0.01
01:29:44.512:1,0.2,0.0
01:29:44.516:1,0.19,-0.015
01:29:44.520:1,0.2,-0.04
01:29:44.524:1,0.2,-0.03
01:29:44.528:1,0.195,-0.045
01:29:44.532:1,0.2,-0.05
01:29:44.536:1,0.2,-0.06
01:29:44.540:1,0.205,-0.055
01:29:44.544:1,0.205,-0.08
01:29:44.548:1,0.215,-0.08
01:29:44.552:1,0.19,-0.065
01:29:44.556:1,0.22,-0.08
01:29:44.560:1,0.2,-0.085
01:29:44.564:1,0.185,-0.1
01:29:44.568:1,0.185,-0.095
01:29:44.572:1,0.18,-0.08
01:29:44.576:1,0.195,-0.09
01:29:44.580:1,0.19,-0.105
01:29:44.584:1,0.175,-0.105
01:29:44.588:1,0.19,-0.115
01:29:44.592:1,0.185,-0.1
01:29:44.596:1,0.175,-0.1
01:29:44.600:1,0.18,-0.08
01:29:44.604:1,0.185,-0.085
01:29:44.608:1,0.155,-0.095
01:29:44.612:1,0.18,-0.135
01:29:44.616:1,0.19,-0.125
01:29:44.620:1,0.195,-0.11
01:29:44.624:1,0.19,-0.075
01:29:44.628:1,0.195,-0.01
01:29:44.632:1,0.21,0.06
01:29:44.636:1,0.195,0.08
01:29:44.640:1,0.195,0.09
01:29:44.644:1,0.195,0.075
01:29:44.648:1,0.17,0.085
01:29:44.652:1,0.15,0.085
01:29:44.656:1,0.17,0.105
01:29:44.660:1,0.185,0.11
01:29:44.664:1,0.21,0.11
01:29:44.668:1,0.2,0.115
01:29:44.672:1,0.23,0.13
01:29:44.676:1,0.2,0.14
01:29:44.680:1,0.225,0.14
01:29:44.684:1,0.225,0.13
01:29:44.688:1,0.235,0.145
01:29:44.692:1,0.225,0.15
01:29:44.696:1,0.245,0.135
01:29:44.700:1,0.24,0.15
01:29:44.704:1,0.275,0.135
01:29:44.708:1,0.285,0.105
01:29:44.712:1,0.265,0.1
01:29:44.716:1,0.26,0.105
01:29:44.720:1,0.265,0.105
01:29:44.724:1,0.265,0.085
01:29:44.728:1,0.265,0.08
01:29:44.732:1,0.26,0.085
01:29:44.736:1,0.28,0.095
01:29:44.740:1,0.26,0.085
01:29:44.744:1,0.245,0.075
01:29:44.748:1,0.265,0.07
01:29:44.752:1,0.255,0.06
01:29:44.756:1,0.245,0.065
01:29:44.760:1,0.245,0.075
01:29:44.764:1,0.235,0.065
01:29:44.768:1,0.225,0.06
01:29:44.772:1,0.24,0.06
01:29:44.776:1,0.25,0.05
01:29:44.780:1,0.245,0.035
01:29:44.784:1,0.235,0.02
01:29:44.788:1,0.22,0.005
01:29:44.792:1,0.23,-0.01
01:29:44.796:1,0.22,-0.01
01:29:44.800:1,0.22,0.0
01:29:44.804:1,0.22,-0.04
01:29:44.808:1,0.2,-0.045
01:29:44.812:1,0.19,-0.03
01:29:44.816:1,0.215,0.03
01:29:44.820:1,0.195,0.06
01:29:44.824:1,0.215,0.095
01:29:44.828:1,0.18,0.085
01:29:44.832:1,0.185,0.075
01:29:44.836:1,0.165,0.04
01:29:44.840:1,0.175,0.045
01:29:44.844:1,0.19,0.125
01:29:44.848:1,0.215,0.295
01:29:44.852:1,0.27,0.515
01:29:44.856:1,0.315,0.75
01:29:44.860:1,0.4,0.95
01:29:44.864:1,0.5,0.965
01:29:44.868:1,0.565,0.825
01:29:44.872:1,0.57,0.535
01:29:44.876:1,0.48,0.05
01:29:44.880:1,0.32,-0.38
01:29:44.884:1,0.115,-0.58
01:29:44.888:1,-0.065,-0.55
01:29:44.892:1,-0.2,-0.445
01:29:44.896:1,-0.24,-0.29
01:29:44.900:1,-0.22,-0.16
01:29:44.904:1,-0.15,-0.065
01:29:44.908:1,-0.025,-0.02
01:29:44.912:1,0.06,-0.015
01:29:44.916:1,0.095,-0.025
01:29:44.920:1,0.14,-0.025
01:29:44.924:1,0.135,-0.045
01:29:44.928:1,0.135,-0.045
01:29:44.932:1,0.15,-0.05
01:29:44.936:1,0.14,-0.04
01:29:44.940:1,0.135,-0.075
01:29:44.944:1,0.145,-0.06
01:29:44.948:1,0.13,-0.075
01:29:44.952:1,0.11,-0.06
01:29:44.956:1,0.125,-0.075
01:29:44.960:1,0.13,-0.075
01:29:44.964:1,0.115,-0.11
01:29:44.968:1,0.11,-0.11
01:29:44.972:1,0.12,-0.105
01:29:44.976:1,0.11,-0.09
01:29:44.980:1,0.14,-0.095
01:29:44.984:1,0.165,-0.09
01:29:44.988:1,0.185,-0.065
01:29:44.992:1,0.18,-0.005
01:29:44.996:1,0.185,0.025
01:29:45.000:1,0.185,0.05
01:29:45.004:1,0.185,0.03
01:29:45.008:1,0.18,0.035
01:29:45.012:1,0.17,0.02
01:29:45.016:1,0.14,-0.005
01:29:45.020:1,0.13,-0.025
01:29:45.024:1,0.125,-0.03
01:29:45.028:1,0.125,-0.04
01:29:45.032:1,0.115,-0.025
01:29:45.036:1,0.115,-0.035
01:29:45.040:1,0.11,-0.04
01:29:45.044:1,0.1,-0.04
01:29:45.048:1,0.1,-0.035
01:29:45.052:1,0.115,-0.025
01:29:45.056:1,0.12,-0.015
01:29:45.060:1,0.105,-0.02
01:29:45.064:1,0.125,-0.03
01:29:45.068:1,0.125,-0.02
01:29:45.072:1,0.12,-0.005
01:29:45.076:1,0.12,-0.005
01:29:45.080:1,0.135,-0.01
01:29:45.084:1,0.115,-0.005
01:29:45.088:1,0.11,0.0
01:29:45.092:1,0.13,0.02
01:29:45.096:1,0.12,0.035
01:29:45.100:1,0.14,0.045
01:29:45.104:1,0.14,0.055
01:29:45.108:1,0.145,0.07
01:29:45.112:1,0.16,0.085
01:29:45.116:1,0.155,0.095
01:29:45.120:1,0.165,0.1
01:29:45.124:1,0.175,0.09
01:29:45.128:1,0.17,0.09
01:29:45.132:1,0.19,0.1
01:29:45.136:1,0.185,0.105
01:29:45.140:1,0.2,0.09
01:29:45.144:1,0.185,0.065
01:29:45.148:1,0.2,0.055
01:29:45.152:1,0.18,0.04
01:29:45.156:1,0.2,0.02
01:29:45.160:1,0.185,0.005
01:29:45.164:1,0.21,-0.005
01:29:45.168:1,0.205,0.025
01:29:45.172:1,0.205,0.075
01:29:45.176:1,0.195,0.1
01:29:45.180:1,0.21,0.115
01:29:45.184:1,0.205,0.135
01:29:45.188:1,0.2,0.145
01:29:45.192:1,0.2,0.155
01:29:45.196:1,0.17,0.125
01:29:45.200:1,0.16,0.095
01:29:45.204:1,0.155,0.075
01:29:45.208:1,0.135,0.06
01:29:45.212:1,0.125,0.04
01:29:45.216:1,0.125,0.035
01:29:45.220:1,0.12,0.015
01:29:45.224:1,0.11,0.005
01:29:45.228:1,0.12,-0.02
01:29:45.232:1,0.105,0.015
01:29:45.236:1,0.11,0.0
01:29:45.240:1,0.105,-0.01
01:29:45.244:1,0.115,-0.035
01:29:45.248:1,0.12,-0.035
01:29:45.252:1,0.14,-0.03
01:29:45.256:1,0.12,-0.03
01:29:45.260:1,0.115,-0.035
01:29:45.264:1,0.11,-0.06
01:29:45.268:1,0.115,-0.065
01:29:45.272:1,0.1,-0.04
01:29:45.276:1,0.12,-0.055
01:29:45.280:1,0.11,-0.055
01:29:45.284:1,0.11,-0.07
01:29:45.288:1,0.105,-0.07
01:29:45.292:1,0.125,-0.07
01:29:45.296:1,0.115,-0.06
01:29:45.300:1,0.095,-0.08
01:29:45.304:1,0.085,-0.07
01:29:45.308:1,0.1,-0.085
01:29:45.312:1,0.105,-0.07
01:29:45.316:1,0.125,-0.085
01:29:45.320:1,0.12,-0.09
01:29:45.324:1,0.12,-0.13
01:29:45.328:1,0.115,-0.16
01:29:45.332:1,0.125,-0.165
01:29:45.336:1,0.125,-0.09
01:29:45.340:1,0.13,0.035
01:29:45.344:1,0.185,0.225
01:29:45.348:1,0.25,0.475
01:29:45.352:1,0.33,0.62
01:29:45.356:1,0.415,0.685
01:29:45.360:1,0.465,0.655
01:29:45.364:1,0.46,0.45
01:29:45.368:1,0.41,0.045
01:29:45.372:1,0.33,-0.29
01:29:45.376:1,0.11,-0.415
01:29:45.380:1,-0.085,-0.405
01:29:45.384:1,-0.19,-0.355
01:29:45.388:1,-0.235,-0.275
01:29:45.392:1,-0.215,-0.155
01:29:45.396:1,-0.185,-0.045
01:29:45.400:1,-0.095,-0.015
01:29:45.404:1,0.015,-0.01
01:29:45.408:1,0.09,-0.055
01:29:45.412:1,0.07,-0.075
01:29:45.416:1,0.085,-0.075
01:29:45.420:1,0.085,-0.09
01:29:45.424:1,0.08,-0.085
01:29:45.428:1,0.085,-0.1
01:29:45.432:1,0.09,-0.08
01:29:45.436:1,0.085,-0.08
01:29:45.440:1,0.07,-0.11
01:29:45.444:1,0.07,-0.125
01:29:45.448:1,0.06,-0.125
01:29:45.452:1,0.08,-0.11
01:29:45.456:1,0.085,-0.125
01:29:45.460:1,0.1,-0.14
01:29:45.464:1,0.06,-0.14
01:29:45.468:1,0.06,-0.13
01:29:45.472:1,0.07,-0.145
01:29:45.476:1,0.085,-0.14
01:29:45.480:1,0.075,-0.15
01:29:45.484:1,0.07,-0.15
01:29:45.488:1,0.07,-0.135
01:29:45.492:1,0.075,-0.125
01:29:45.496:1,0.06,-0.135
01:29:45.500:1,0.06,-0.15
01:29:45.504:1,0.07,-0.135
01:29:45.508:1,0.075,-0.115
01:29:45.512:1,0.07,-0.095
01:29:45.516:1,0.09,-0.095
01:29:45.520:1,0.085,-0.095
01:29:45.524:1,0.075,-0.08
01:29:45.528:1,0.105,-0.07
01:29:45.532:1,0.13,-0.085
01:29:45.536:1,0.135,-0.095
01:29:45.540:1,0.14,-0.11
01:29:45.544:1,0.19,-0.1
01:29:45.548:1,0.195,-0.065
01:29:45.552:1,0.205,-0.035
01:29:45.556:1,0.205,-0.03
01:29:45.560:1,0.21,-0.02
01:29:45.564:1,0.205,-0.015
01:29:45.568:1,0.185,-0.02
01:29:45.572:1,0.155,-0.015
01:29:45.576:1,0.135,-0.02
01:29:45.580:1,0.115,-0.03
01:29:45.584:1,0.1,-0.03
01:29:45.588:1,0.08,-0.025
01:29:45.592:1,0.1,-0.02
01:29:45.596:1,0.08,-0.025
01:29:45.600:1,0.09,-0.02
01:29:45.604:1,0.1,-0.005
01:29:45.608:1,0.09,0.03
01:29:45.612:1,0.1,0.045
01:29:45.616:1,0.115,0.04
01:29:45.620:1,0.13,0.03
01:29:45.624:1,0.12,0.025
01:29:45.628:1,0.115,0.035
01:29:45.632:1,0.14,0.02
01:29:45.636:1,0.12,0.005
01:29:45.640:1,0.105,0.02
01:29:45.644:1,0.115,-0.005
01:29:45.648:1,0.125,-0.01
01:29:45.652:1,0.115,-0.035
01:29:45.656:1,0.12,-0.05
01:29:45.660:1,0.085,-0.045
01:29:45.664:1,0.12,-0.065
01:29:45.668:1,0.115,-0.06
01:29:45.672:1,0.115,-0.05
01:29:45.676:1,0.09,-0.045
01:29:45.680:1,0.105,-0.03
01:29:45.684:1,0.115,-0.02
01:29:45.688:1,0.115,-0.01
01:29:45.692:1,0.12,0.005
01:29:45.696:1,0.145,-0.005
01:29:45.700:1,0.15,-0.04
01:29:45.704:1,0.175,-0.03
01:29:45.708:1,0.15,-0.03
01:29:45.712:1,0.155,-0.04
01:29:45.716:1,0.165,-0.06
01:29:45.720:1,0.15,-0.085
01:29:45.724:1,0.155,-0.08
01:29:45.728:1,0.175,-0.095
01:29:45.732:1,0.18,-0.095
01:29:45.736:1,0.175,-0.075
01:29:45.740:1,0.19,-0.05
01:29:45.744:1,0.2,-0.005
01:29:45.748:1,0.21,0.035
01:29:45.752:1,0.21,0.035
01:29:45.756:1,0.205,0.01
01:29:45.760:1,0.195,0.005
01:29:45.764:1,0.16,0.0
01:29:45.768:1,0.15,-0.015
01:29:45.772:1,0.13,-0.035
01:29:45.776:1,0.105,-0.04
01:29:45.780:1,0.12,-0.065
01:29:45.784:1,0.095,-0.07
01:29:45.788:1,0.09,-0.06
01:29:45.792:1,0.095,-0.06
01:29:45.796:1,0.095,-0.08
01:29:45.800:1,0.1,-0.09
01:29:45.804:1,0.085,-0.08
01:29:45.808:1,0.095,-0.095
