Time,ECG1,ECG2
01:34:41.636:1,0.015,-0.1
01:34:41.640:1,0.03,-0.085
01:34:41.644:1,0.02,-0.045
01:34:41.648:1,0.025,-0.055
01:34:41.652:1,0.055,-0.05
01:34:41.656:1,0.03,-0.05
01:34:41.660:1,0.03,-0.08
01:34:41.664:1,0.03,-0.07
01:34:41.668:1,0.02,-0.03
01:34:41.672:1,0.03,-0.01
01:34:41.676:1,0.05,0.005
01:34:41.680:1,0.08,-0.01
01:34:41.684:1,0.09,0.0
01:34:41.688:1,0.075,-0.01
01:34:41.692:1,0.125,-0.01
01:34:41.696:1,0.13,-0.005
01:34:41.700:1,0.125,0.025
01:34:41.704:1,0.14,0.055
01:34:41.708:1,0.14,0.06
01:34:41.712:1,0.115,0.045
01:34:41.716:1,0.095,0.035
01:34:41.720:1,0.065,0.04
01:34:41.724:1,0.025,0.02
01:34:41.728:1,0.005,0.02
01:34:41.732:1,0.01,0.025
01:34:41.736:1,0.02,0.0
01:34:41.740:1,0.035,-0.01
01:34:41.744:1,0.03,-0.05
01:34:41.748:1,0.015,-0.03
01:34:41.752:1,0.025,-0.05
01:34:41.756:1,0.02,-0.055
01:34:41.760:1,0.03,-0.07
01:34:41.764:1,0.03,-0.07
01:34:41.768:1,0.02,-0.065
01:34:41.772:1,0.02,-0.07
01:34:41.776:1,0.01,-0.085
01:34:41.780:1,0.02,-0.08
01:34:41.784:1,0.01,-0.085
01:34:41.788:1,0.015,-0.075
01:34:41.792:1,0.01,-0.055
01:34:41.796:1,0.0,-0.065
01:34:41.800:1,0.015,-0.06
01:34:41.804:1,0.025,-0.05
01:34:41.808:1,0.015,-0.065
01:34:41.812:1,0.02,-0.085
01:34:41.816:1,0.015,-0.08
01:34:41.820:1,0.005,-0.035
01:34:41.824:1,0.0,0.09
01:34:41.828:1,0.03,0.3
01:34:41.832:1,0.055,0.58
01:34:41.836:1,0.085,0.85
01:34:41.840:1,0.15,0.88
01:34:41.844:1,0.235,0.75
01:34:41.848:1,0.28,0.355
01:34:41.852:1,0.27,-0.27
01:34:41.856:1,0.18,-0.62
01:34:41.860:1,0.025,-0.705
01:34:41.864:1,-0.145,-0.655
01:34:41.868:1,-0.255,-0.555
01:34:41.872:1,-0.285,-0.48
01:34:41.876:1,-0.29,-0.35
01:34:41.880:1,-0.255,-0.215
01:34:41.884:1,-0.18,-0.13
01:34:41.888:1,-0.075,-0.12
01:34:41.892:1,-0.025,-0.125
01:34:41.896:1,0.035,-0.11
01:34:41.900:1,0.05,-0.125
01:34:41.904:1,0.025,-0.14
01:34:41.908:1,0.04,-0.16
01:34:41.912:1,0.045,-0.16
01:34:41.916:1,0.03,-0.19
01:34:41.920:1,0.055,-0.195
01:34:41.924:1,0.085,-0.19
01:34:41.928:1,0.075,-0.135
01:34:41.932:1,0.09,-0.1
01:34:41.936:1,0.075,-0.115
01:34:41.940:1,0.075,-0.145
01:34:41.944:1,0.05,-0.15
01:34:41.948:1,0.035,-0.16
01:34:41.952:1,0.025,-0.145
01:34:41.956:1,0.0,-0.155
01:34:41.960:1,0.0,-0.18
01:34:41.964:1,-0.03,-0.205
01:34:41.968:1,-0.035,-0.2
01:34:41.972:1,-0.035,-0.175
01:34:41.976:1,-0.02,-0.185
01:34:41.980:1,-0.03,-0.18
01:34:41.984:1,-0.02,-0.185
01:34:41.988:1,-0.015,-0.185
01:34:41.992:1,-0.015,-0.22
01:34:41.996:1,-0.025,-0.17
01:34:42.000:1,-0.005,-0.18
01:34:42.004:1,-0.025,-0.165
01:34:42.008:1,-0.01,-0.17
01:34:42.012:1,-0.015,-0.165
01:34:42.016:1,-0.01,-0.15
01:34:42.020:1,-0.01,-0.155
01:34:42.024:1,0.01,-0.135
01:34:42.028:1,0.0,-0.125
01:34:42.032:1,0.0,-0.125
01:34:42.036:1,0.0,-0.12
01:34:42.040:1,0.01,-0.115
01:34:42.044:1,0.01,-0.1
01:34:42.048:1,0.01,-0.08
01:34:42.052:1,0.005,-0.065
01:34:42.056:1,0.03,-0.065
01:34:42.060:1,0.015,-0.07
01:34:42.064:1,0.035,-0.055
01:34:42.068:1,0.045,-0.04
01:34:42.072:1,0.055,-0.005
01:34:42.076:1,0.065,0.04
01:34:42.080:1,0.07,0.07
01:34:42.084:1,0.095,0.065
01:34:42.088:1,0.125,0.08
01:34:42.092:1,0.13,0.07
01:34:42.096:1,0.15,0.065
01:34:42.100:1,0.13,0.09
01:34:42.104:1,0.135,0.115
01:34:42.108:1,0.155,0.1
01:34:42.112:1,0.155,0.095
01:34:42.116:1,0.145,0.085
01:34:42.120:1,0.125,0.075
01:34:42.124:1,0.1,0.04
01:34:42.128:1,0.105,0.03
01:34:42.132:1,0.085,0.01
01:34:42.136:1,0.07,0.005
01:34:42.140:1,0.07,-0.04
01:34:42.144:1,0.05,-0.065
01:34:42.148:1,0.035,-0.065
01:34:42.152:1,0.035,-0.09
01:34:42.156:1,0.025,-0.115
01:34:42.160:1,0.025,-0.12
01:34:42.164:1,0.02,-0.125
01:34:42.168:1,0.03,-0.14
01:34:42.172:1,0.02,-0.125
01:34:42.176:1,0.01,-0.13
01:34:42.180:1,0.02,-0.15
01:34:42.184:1,0.035,-0.15
01:34:42.188:1,0.035,-0.16
01:34:42.192:1,0.03,-0.17
01:34:42.196:1,0.03,-0.16
01:34:42.200:1,0.03,-0.165
01:34:42.204:1,0.015,-0.18
01:34:42.208:1,0.02,-0.18
01:34:42.212:1,0.04,-0.175
01:34:42.216:1,0.03,-0.17
01:34:42.220:1,0.03,-0.19
01:34:42.224:1,0.04,-0.195
01:34:42.228:1,0.025,-0.19
01:34:42.232:1,0.035,-0.185
01:34:42.236:1,0.035,-0.175
01:34:42.240:1,0.05,-0.155
01:34:42.244:1,0.075,-0.17
01:34:42.248:1,0.07,-0.185
01:34:42.252:1,0.08,-0.175
01:34:42.256:1,0.1,-0.125
01:34:42.260:1,0.105,-0.08
01:34:42.264:1,0.13,-0.05
01:34:42.268:1,0.13,-0.05
01:34:42.272:1,0.125,-0.035
01:34:42.276:1,0.14,-0.02
01:34:42.280:1,0.115,-0.02
01:34:42.284:1,0.11,-0.05
01:34:42.288:1,0.11,-0.035
01:34:42.292:1,0.105,-0.07
01:34:42.296:1,0.085,-0.06
01:34:42.300:1,0.09,-0.075
01:34:42.304:1,0.085,-0.08
01:34:42.308:1,0.085,-0.065
01:34:42.312:1,0.08,-0.09
01:34:42.316:1,0.09,-0.105
01:34:42.320:1,0.07,-0.08
01:34:42.324:1,0.09,0.04
01:34:42.328:1,0.12,0.26
01:34:42.332:1,0.17,0.555
01:34:42.336:1,0.195,0.83
01:34:42.340:1,0.29,0.95
01:34:42.344:1,0.4,0.94
01:34:42.348:1,0.485,0.81
01:34:42.352:1,0.495,0.45
01:34:42.356:1,0.415,-0.125
01:34:42.360:1,0.325,-0.61
01:34:42.364:1,0.135,-0.805
01:34:42.368:1,-0.07,-0.78
01:34:42.372:1,-0.215,-0.69
01:34:42.376:1,-0.27,-0.58
01:34:42.380:1,-0.27,-0.445
01:34:42.384:1,-0.24,-0.345
01:34:42.388:1,-0.155,-0.27
01:34:42.392:1,-0.065,-0.24
01:34:42.396:1,0.0,-0.27
01:34:42.400:1,0.05,-0.27
01:34:42.404:1,0.07,-0.235
01:34:42.408:1,0.06,-0.2
01:34:42.412:1,0.08,-0.18
01:34:42.416:1,0.085,-0.16
01:34:42.420:1,0.065,-0.16
01:34:42.424:1,0.07,-0.155
01:34:42.428:1,0.07,-0.145
01:34:42.432:1,0.05,-0.12
01:34:42.436:1,0.045,-0.125
01:34:42.440:1,0.045,-0.135
01:34:42.444:1,0.065,-0.14
01:34:42.448:1,0.06,-0.14
01:34:42.452:1,0.055,-0.16
01:34:42.456:1,0.045,-0.185
01:34:42.460:1,0.05,-0.195
01:34:42.464:1,0.04,-0.2
01:34:42.468:1,0.06,-0.2
01:34:42.472:1,0.025,-0.195
01:34:42.476:1,0.055,-0.21
01:34:42.480:1,0.04,-0.235
01:34:42.484:1,0.035,-0.235
01:34:42.488:1,0.015,-0.245
01:34:42.492:1,0.025,-0.245
01:34:42.496:1,0.035,-0.235
01:34:42.500:1,0.05,-0.255
01:34:42.504:1,0.035,-0.24
01:34:42.508:1,0.04,-0.275
01:34:42.512:1,0.04,-0.24
01:34:42.516:1,0.03,-0.255
01:34:42.520:1,0.05,-0.26
01:34:42.524:1,0.055,-0.265
01:34:42.528:1,0.075,-0.27
01:34:42.532:1,0.065,-0.26
01:34:42.536:1,0.075,-0.255
01:34:42.540:1,0.085,-0.27
01:34:42.544:1,0.07,-0.26
01:34:42.548:1,0.095,-0.23
01:34:42.552:1,0.085,-0.16
01:34:42.556:1,0.085,-0.145
01:34:42.560:1,0.115,-0.125
01:34:42.564:1,0.09,-0.125
01:34:42.568:1,0.085,-0.105
01:34:42.572:1,0.07,-0.085
01:34:42.576:1,0.065,-0.05
01:34:42.580:1,0.07,-0.035
01:34:42.584:1,0.055,-0.01
01:34:42.588:1,0.06,0.005
01:34:42.592:1,0.07,0.005
01:34:42.596:1,0.055,0.03
01:34:42.600:1,0.06,0.03
01:34:42.604:1,0.07,0.03
01:34:42.608:1,0.07,0.045
01:34:42.612:1,0.07,0.03
01:34:42.616:1,0.06,0.03
01:34:42.620:1,0.09,0.015
01:34:42.624:1,0.075,0.005
01:34:42.628:1,0.08,0.0
01:34:42.632:1,0.09,0.0
01:34:42.636:1,0.085,-0.025
01:34:42.640:1,0.095,-0.045
01:34:42.644:1,0.085,-0.08
01:34:42.648:1,0.07,-0.08
01:34:42.652:1,0.085,-0.095
01:34:42.656:1,0.06,-0.12
01:34:42.660:1,0.07,-0.14
01:34:42.664:1,0.055,-0.145
01:34:42.668:1,0.08,-0.16
01:34:42.672:1,0.07,-0.15
01:34:42.676:1,0.08,-0.15
01:34:42.680:1,0.055,-0.165
01:34:42.684:1,0.07,-0.175
01:34:42.688:1,0.085,-0.155
01:34:42.692:1,0.1,-0.17
01:34:42.696:1,0.065,-0.18
01:34:42.700:1,0.09,-0.2
01:34:42.704:1,0.085,-0.185
01:34:42.708:1,0.1,-0.125
01:34:42.712:1,0.11,-0.055
01:34:42.716:1,0.125,-0.055
01:34:42.720:1,0.12,-0.03
01:34:42.724:1,0.1,-0.025
01:34:42.728:1,0.11,-0.02
01:34:42.732:1,0.1,-0.02
01:34:42.736:1,0.095,-0.015
01:34:42.740:1,0.09,-0.005
01:34:42.744:1,0.07,0.0
01:34:42.748:1,0.055,-0.005
01:34:42.752:1,0.065,-0.035
01:34:42.756:1,0.07,-0.055
01:34:42.760:1,0.075,-0.05
01:34:42.764:1,0.06,-0.075
01:34:42.768:1,0.09,-0.075
01:34:42.772:1,0.085,-0.08
01:34:42.776:1,0.08,-0.095
01:34:42.780:1,0.08,-0.115
01:34:42.784:1,0.07,-0.125
01:34:42.788:1,0.07,-0.13
01:34:42.792:1,0.05,-0.135
01:34:42.796:1,0.055,-0.16
01:34:42.800:1,0.035,-0.155
01:34:42.804:1,0.025,-0.15
01:34:42.808:1,0.04,-0.155
01:34:42.812:1,0.04,-0.155
01:34:42.816:1,0.055,-0.155
01:34:42.820:1,0.04,-0.175
01:34:42.824:1,0.055,-0.2
01:34:42.828:1,0.035,-0.2
01:34:42.832:1,0.045,-0.195
01:34:42.836:1,0.05,-0.205
01:34:42.840:1,0.04,-0.215
01:34:42.844:1,0.035,-0.22
01:34:42.848:1,0.06,-0.23
01:34:42.852:1,0.05,-0.24
01:34:42.856:1,0.065,-0.235
01:34:42.860:1,0.065,-0.255
01:34:42.864:1,0.065,-0.28
01:34:42.868:1,0.06,-0.26
01:34:42.872:1,0.075,-0.235
01:34:42.876:1,0.07,-0.19
01:34:42.880:1,0.07,-0.165
01:34:42.884:1,0.06,-0.13
01:34:42.888:1,0.05,-0.105
01:34:42.892:1,0.045,-0.1
01:34:42.896:1,0.04,-0.1
01:34:42.900:1,0.035,-0.095
01:34:42.904:1,0.035,-0.105
01:34:42.908:1,0.05,-0.095
01:34:42.912:1,0.04,-0.105
01:34:42.916:1,0.03,-0.14
01:34:42.920:1,0.035,-0.13
01:34:42.924:1,0.02,-0.135
01:34:42.928:1,0.035,-0.145
01:34:42.932:1,0.06,-0.14
01:34:42.936:1,0.05,-0.15
01:34:42.940:1,0.055,-0.165
01:34:42.944:1,0.05,-0.175
01:34:42.948:1,0.045,-0.17
01:34:42.952:1,0.05,-0.16
01:34:42.956:1,0.04,-0.165
01:34:42.960:1,0.05,-0.19
01:34:42.964:1,0.04,-0.19
01:34:42.968:1,0.06,-0.185
01:34:42.972:1,0.035,-0.205
01:34:42.976:1,0.05,-0.2
01:34:42.980:1,0.025,-0.2
01:34:42.984:1,0.045,-0.165
01:34:42.988:1,0.075,-0.01
01:34:42.992:1,0.08,0.22
01:34:42.996:1,0.12,0.48
01:34:43.000:1,0.17,0.755
01:34:43.004:1,0.24,0.895
01:34:43.008:1,0.345,0.885
01:34:43.012:1,0.415,0.735
01:34:43.016:1,0.42,0.295
01:34:43.020:1,0.33,-0.34
01:34:43.024:1,0.175,-0.755
01:34:43.028:1,-0.04,-0.94
01:34:43.032:1,-0.215,-0.885
01:34:43.036:1,-0.35,-0.705
01:34:43.040:1,-0.335,-0.495
01:34:43.044:1,-0.26,-0.32
01:34:43.048:1,-0.195,-0.17
01:34:43.052:1,-0.105,-0.09
01:34:43.056:1,0.0,-0.095
01:34:43.060:1,0.045,-0.105
01:34:43.064:1,0.055,-0.11
01:34:43.068:1,0.05,-0.115
01:34:43.072:1,0.055,-0.115
01:34:43.076:1,0.04,-0.13
01:34:43.080:1,0.05,-0.145
01:34:43.084:1,0.05,-0.16
01:34:43.088:1,0.05,-0.16
01:34:43.092:1,0.045,-0.175
01:34:43.096:1,0.055,-0.18
01:34:43.100:1,0.025,-0.2
01:34:43.104:1,0.035,-0.205
01:34:43.108:1,0.04,-0.225
01:34:43.112:1,0.03,-0.2
01:34:43.116:1,0.015,-0.195
01:34:43.120:1,0.025,-0.225
01:34:43.124:1,0.03,-0.23
01:34:43.128:1,0.03,-0.225
01:34:43.132:1,0.035,-0.225
01:34:43.136:1,0.05,-0.215
01:34:43.140:1,0.045,-0.23
01:34:43.144:1,0.035,-0.24
01:34:43.148:1,0.04,-0.24
01:34:43.152:1,0.06,-0.235
01:34:43.156:1,0.04,-0.235
01:34:43.160:1,0.06,-0.255
01:34:43.164:1,0.03,-0.24
01:34:43.168:1,0.04,-0.23
01:34:43.172:1,0.045,-0.25
01:34:43.176:1,0.05,-0.265
01:34:43.180:1,0.035,-0.265
01:34:43.184:1,0.06,-0.25
01:34:43.188:1,0.025,-0.25
01:34:43.192:1,0.035,-0.26
01:34:43.196:1,0.06,-0.25
01:34:43.200:1,0.065,-0.265
01:34:43.204:1,0.085,-0.225
01:34:43.208:1,0.1,-0.18
01:34:43.212:1,0.08,-0.125
01:34:43.216:1,0.115,-0.075
01:34:43.220:1,0.115,-0.05
01:34:43.224:1,0.115,-0.05
01:34:43.228:1,0.105,-0.055
01:34:43.232:1,0.11,-0.055
01:34:43.236:1,0.11,-0.05
01:34:43.240:1,0.115,-0.055
01:34:43.244:1,0.1,-0.045
01:34:43.248:1,0.1,-0.05
01:34:43.252:1,0.065,-0.045
01:34:43.256:1,0.07,-0.04
01:34:43.260:1,0.07,-0.055
01:34:43.264:1,0.065,-0.045
01:34:43.268:1,0.07,-0.04
01:34:43.272:1,0.085,-0.03
01:34:43.276:1,0.075,-0.015
01:34:43.280:1,0.085,0.0
01:34:43.284:1,0.11,0.015
01:34:43.288:1,0.105,0.025
01:34:43.292:1,0.095,0.02
01:34:43.296:1,0.11,0.0
01:34:43.300:1,0.11,-0.025
01:34:43.304:1,0.12,-0.025
01:34:43.308:1,0.12,-0.035
01:34:43.312:1,0.125,-0.05
01:34:43.316:1,0.12,-0.04
01:34:43.320:1,0.12,-0.075
01:34:43.324:1,0.12,-0.08
01:34:43.328:1,0.11,-0.095
01:34:43.332:1,0.12,-0.09
01:34:43.336:1,0.125,-0.13
01:34:43.340:1,0.12,-0.145
01:34:43.344:1,0.12,-0.13
01:34:43.348:1,0.11,-0.12
01:34:43.352:1,0.11,-0.14
01:34:43.356:1,0.1,-0.145
01:34:43.360:1,0.11,-0.16
01:34:43.364:1,0.1,-0.16
01:34:43.368:1,0.125,-0.125
01:34:43.372:1,0.14,-0.09
01:34:43.376:1,0.155,-0.055
01:34:43.380:1,0.17,-0.035
01:34:43.384:1,0.18,-0.015
01:34:43.388:1,0.16,-0.01
01:34:43.392:1,0.175,-0.02
01:34:43.396:1,0.13,-0.025
01:34:43.400:1,0.125,-0.04
01:34:43.404:1,0.1,-0.04
01:34:43.408:1,0.085,-0.03
01:34:43.412:1,0.075,-0.02
01:34:43.416:1,0.06,-0.03
01:34:43.420:1,0.08,-0.05
01:34:43.424:1,0.11,-0.07
01:34:43.428:1,0.09,-0.055
01:34:43.432:1,0.105,-0.075
01:34:43.436:1,0.105,-0.09
01:34:43.440:1,0.105,-0.105
01:34:43.444:1,0.11,-0.1
01:34:43.448:1,0.105,-0.125
01:34:43.452:1,0.11,-0.14
01:34:43.456:1,0.095,-0.12
01:34:43.460:1,0.095,-0.135
01:34:43.464:1,0.095,-0.14
01:34:43.468:1,0.085,-0.145
01:34:43.472:1,0.095,-0.145
01:34:43.476:1,0.09,-0.165
01:34:43.480:1,0.095,-0.175
01:34:43.484:1,0.08,-0.15
01:34:43.488:1,0.09,-0.155
01:34:43.492:1,0.08,-0.165
01:34:43.496:1,0.09,-0.15
01:34:43.500:1,0.095,-0.17
01:34:43.504:1,0.095,-0.16
01:34:43.508:1,0.08,-0.175
01:34:43.512:1,0.095,-0.165
01:34:43.516:1,0.085,-0.185
01:34:43.520:1,0.095,-0.205
01:34:43.524:1,0.09,-0.19
01:34:43.528:1,0.09,-0.18
01:34:43.532:1,0.08,-0.19
01:34:43.536:1,0.09,-0.185
01:34:43.540:1,0.085,-0.195
01:34:43.544:1,0.095,-0.22
01:34:43.548:1,0.095,-0.215
01:34:43.552:1,0.13,-0.215
01:34:43.556:1,0.14,-0.185
01:34:43.560:1,0.14,-0.15
01:34:43.564:1,0.135,-0.105
01:34:43.568:1,0.11,-0.095
01:34:43.572:1,0.09,-0.08
01:34:43.576:1,0.105,-0.075
01:34:43.580:1,0.05,-0.08
01:34:43.584:1,0.065,-0.08
01:34:43.588:1,0.06,-0.115
01:34:43.592:1,0.065,-0.11
01:34:43.596:1,0.06,-0.105
01:34:43.600:1,0.05,-0.105
01:34:43.604:1,0.035,-0.09
01:34:43.608:1,0.05,-0.07
01:34:43.612:1,0.065,-0.07
01:34:43.616:1,0.085,-0.075
01:34:43.620:1,0.065,-0.08
01:34:43.624:1,0.075,-0.065
01:34:43.628:1,0.085,-0.09
01:34:43.632:1,0.1,-0.075
01:34:43.636:1,0.115,-0.04
01:34:43.640:1,0.14,0.1
01:34:43.644:1,0.19,0.345
01:34:43.648:1,0.225,0.625
01:34:43.652:1,0.255,0.865
01:34:43.656:1,0.345,0.97
01:34:43.660:1,0.43,0.935
01:34:43.664:1,0.505,0.675
01:34:43.668:1,0.47,0.115
01:34:43.672:1,0.355,-0.465
01:34:43.676:1,0.14,-0.78
01:34:43.680:1,-0.06,-0.83
01:34:43.684:1,-0.235,-0.72
01:34:43.688:1,-0.29,-0.565
01:34:43.692:1,-0.28,-0.455
01:34:43.696:1,-0.225,-0.345
01:34:43.700:1,-0.14,-0.265
01:34:43.704:1,-0.04,-0.255
01:34:43.708:1,0.05,-0.275
01:34:43.712:1,0.05,-0.295
01:34:43.716:1,0.07,-0.315
01:34:43.720:1,0.085,-0.275
01:34:43.724:1,0.095,-0.23
01:34:43.728:1,0.115,-0.185
01:34:43.732:1,0.105,-0.155
01:34:43.736:1,0.09,-0.145
01:34:43.740:1,0.075,-0.125
01:34:43.744:1,0.065,-0.115
01:34:43.748:1,0.07,-0.11
01:34:43.752:1,0.06,-0.125
01:34:43.756:1,0.07,-0.145
01:34:43.760:1,0.055,-0.165
01:34:43.764:1,0.035,-0.165
01:34:43.768:1,0.035,-0.17
01:34:43.772:1,0.03,-0.21
01:34:43.776:1,0.05,-0.195
01:34:43.780:1,0.035,-0.205
01:34:43.784:1,0.04,-0.205
01:34:43.788:1,0.03,-0.195
01:34:43.792:1,0.06,-0.185
01:34:43.796:1,0.045,-0.195
01:34:43.800:1,0.065,-0.185
01:34:43.804:1,0.065,-0.185
01:34:43.808:1,0.065,-0.16
01:34:43.812:1,0.055,-0.16
01:34:43.816:1,0.075,-0.185
01:34:43.820:1,0.08,-0.195
01:34:43.824:1,0.08,-0.22
01:34:43.828:1,0.1,-0.245
01:34:43.832:1,0.07,-0.25
01:34:43.836:1,0.06,-0.26
01:34:43.840:1,0.065,-0.28
01:34:43.844:1,0.08,-0.27
01:34:43.848:1,0.065,-0.26
01:34:43.852:1,0.075,-0.27
01:34:43.856:1,0.095,-0.26
01:34:43.860:1,0.09,-0.26
01:34:43.864:1,0.07,-0.255
01:34:43.868:1,0.075,-0.245
01:34:43.872:1,0.085,-0.245
01:34:43.876:1,0.06,-0.245
01:34:43.880:1,0.08,-0.265
01:34:43.884:1,0.1,-0.24
01:34:43.888:1,0.115,-0.175
01:34:43.892:1,0.115,-0.115
01:34:43.896:1,0.115,-0.1
01:34:43.900:1,0.115,-0.09
01:34:43.904:1,0.075,-0.065
01:34:43.908:1,0.07,-0.045
01:34:43.912:1,0.09,-0.02
01:34:43.916:1,0.07,-0.02
01:34:43.920:1,0.07,-0.02
01:34:43.924:1,0.075,0.005
01:34:43.928:1,0.06,0.01
01:34:43.932:1,0.055,0.025
01:34:43.936:1,0.065,0.005
01:34:43.940:1,0.075,0.0
01:34:43.944:1,0.08,0.015
01:34:43.948:1,0.09,0.0
01:34:43.952:1,0.09,-0.015
01:34:43.956:1,0.1,-0.035
01:34:43.960:1,0.08,-0.045
01:34:43.964:1,0.09,-0.065
01:34:43.968:1,0.07,-0.065
01:34:43.972:1,0.08,-0.055
01:34:43.976:1,0.085,-0.065
01:34:43.980:1,0.09,-0.08
01:34:43.984:1,0.095,-0.08
01:34:43.988:1,0.1,-0.04
01:34:43.992:1,0.095,-0.05
01:34:43.996:1,0.115,-0.06
01:34:44.000:1,0.105,-0.1
01:34:44.004:1,0.115,-0.125
01:34:44.008:1,0.1,-0.14
01:34:44.012:1,0.1,-0.155
01:34:44.016:1,0.095,-0.175
01:34:44.020:1,0.115,-0.2
01:34:44.024:1,0.12,-0.23
01:34:44.028:1,0.115,-0.23
01:34:44.032:1,0.115,-0.26
01:34:44.036:1,0.12,-0.245
01:34:44.040:1,0.1,-0.215
01:34:44.044:1,0.095,-0.205
01:34:44.048:1,0.105,-0.18
01:34:44.052:1,0.12,-0.175
01:34:44.056:1,0.1,-0.16
01:34:44.060:1,0.085,-0.14
01:34:44.064:1,0.09,-0.11
01:34:44.068:1,0.07,-0.09
01:34:44.072:1,0.06,-0.115
01:34:44.076:1,0.055,-0.12
01:34:44.080:1,0.055,-0.145
01:34:44.084:1,0.05,-0.125
01:34:44.088:1,0.035,-0.14
01:34:44.092:1,0.055,-0.13
01:34:44.096:1,0.04,-0.135
01:34:44.100:1,0.055,-0.14
01:34:44.104:1,0.045,-0.155
01:34:44.108:1,0.04,-0.14
01:34:44.112:1,0.03,-0.15
01:34:44.116:1,0.045,-0.2
01:34:44.120:1,0.025,-0.24
01:34:44.124:1,0.05,-0.195
01:34:44.128:1,0.06,-0.07
01:34:44.132:1,0.105,0.165
01:34:44.136:1,0.11,0.395
01:34:44.140:1,0.17,0.605
01:34:44.144:1,0.265,0.685
01:34:44.148:1,0.345,0.65
01:34:44.152:1,0.38,0.43
01:34:44.156:1,0.35,-0.025
01:34:44.160:1,0.23,-0.49
01:34:44.164:1,0.08,-0.65
01:34:44.168:1,-0.09,-0.655
01:34:44.172:1,-0.22,-0.605
01:34:44.176:1,-0.27,-0.545
01:34:44.180:1,-0.23,-0.425
01:34:44.184:1,-0.175,-0.325
01:34:44.188:1,-0.115,-0.225
01:34:44.192:1,-0.025,-0.205
01:34:44.196:1,0.055,-0.245
01:34:44.200:1,0.075,-0.255
01:34:44.204:1,0.095,-0.28
01:34:44.208:1,0.095,-0.31
01:34:44.212:1,0.09,-0.26
01:34:44.216:1,0.105,-0.2
01:34:44.220:1,0.12,-0.18
01:34:44.224:1,0.115,-0.175
01:34:44.228:1,0.085,-0.145
01:34:44.232:1,0.085,-0.16
01:34:44.236:1,0.075,-0.165
01:34:44.240:1,0.075,-0.17
01:34:44.244:1,0.055,-0.165
01:34:44.248:1,0.045,-0.18
01:34:44.252:1,0.05,-0.2
01:34:44.256:1,0.04,-0.215
01:34:44.260:1,0.02,-0.225
01:34:44.264:1,0.025,-0.225
01:34:44.268:1,0.045,-0.215
01:34:44.272:1,0.035,-0.24
01:34:44.276:1,0.035,-0.22
01:34:44.280:1,0.04,-0.235
01:34:44.284:1,0.025,-0.2
01:34:44.288:1,0.045,-0.23
01:34:44.292:1,0.05,-0.22
01:34:44.296:1,0.03,-0.23
01:34:44.300:1,0.04,-0.24
01:34:44.304:1,0.04,-0.24
01:34:44.308:1,0.05,-0.225
01:34:44.312:1,0.015,-0.22
01:34:44.316:1,0.03,-0.235
01:34:44.320:1,0.04,-0.235
01:34:44.324:1,0.06,-0.22
01:34:44.328:1,0.055,-0.19
01:34:44.332:1,0.045,-0.16
01:34:44.336:1,0.05,-0.13
01:34:44.340:1,0.08,-0.14
01:34:44.344:1,0.08,-0.135
01:34:44.348:1,0.08,-0.12
01:34:44.352:1,0.095,-0.12
01:34:44.356:1,0.11,-0.14
01:34:44.360:1,0.14,-0.14
01:34:44.364:1,0.115,-0.15
01:34:44.368:1,0.12,-0.14
01:34:44.372:1,0.12,-0.145
01:34:44.376:1,0.14,-0.135
01:34:44.380:1,0.125,-0.065
01:34:44.384:1,0.13,-0.025
01:34:44.388:1,0.165,0.0
01:34:44.392:1,0.165,0.015
01:34:44.396:1,0.135,0.025
01:34:44.400:1,0.165,0.02
01:34:44.404:1,0.145,0.015
01:34:44.408:1,0.11,0.01
01:34:44.412:1,0.105,0.025
01:34:44.416:1,0.105,-0.01
01:34:44.420:1,0.065,-0.02
01:34:44.424:1,0.08,-0.035
01:34:44.428:1,0.075,-0.055
01:34:44.432:1,0.1,-0.055
01:34:44.436:1,0.075,-0.075
01:34:44.440:1,0.095,-0.105
01:34:44.444:1,0.12,-0.1
01:34:44.448:1,0.085,-0.1
01:34:44.452:1,0.075,-0.11
01:34:44.456:1,0.085,-0.13
01:34:44.460:1,0.09,-0.145
01:34:44.464:1,0.07,-0.13
01:34:44.468:1,0.09,-0.125
01:34:44.472:1,0.07,-0.125
01:34:44.476:1,0.075,-0.135
01:34:44.480:1,0.065,-0.15
01:34:44.484:1,0.075,-0.145
01:34:44.488:1,0.085,-0.16
01:34:44.492:1,0.075,-0.15
01:34:44.496:1,0.07,-0.17
01:34:44.500:1,0.07,-0.16
01:34:44.504:1,0.07,-0.17
01:34:44.508:1,0.07,-0.18
01:34:44.512:1,0.055,-0.18
01:34:44.516:1,0.065,-0.175
01:34:44.520:1,0.055,-0.16
01:34:44.524:1,0.06,-0.145
01:34:44.528:1,0.06,-0.15
01:34:44.532:1,0.09,-0.125
01:34:44.536:1,0.095,-0.13
01:34:44.540:1,0.1,-0.11
01:34:44.544:1,0.105,-0.105
01:34:44.548:1,0.115,-0.11
01:34:44.552:1,0.145,-0.155
01:34:44.556:1,0.16,-0.175
01:34:44.560:1,0.15,-0.17
01:34:44.564:1,0.17,-0.09
01:34:44.568:1,0.19,-0.015
01:34:44.572:1,0.185,0.015
01:34:44.576:1,0.195,-0.015
01:34:44.580:1,0.175,-0.015
01:34:44.584:1,0.175,0.025
01:34:44.588:1,0.14,0.15
01:34:44.592:1,0.17,0.33
01:34:44.596:1,0.195,0.515
01:34:44.600:1,0.205,0.725
01:34:44.604:1,0.27,0.775
01:34:44.608:1,0.355,0.735
01:34:44.612:1,0.415,0.565
01:34:44.616:1,0.445,0.1
01:34:44.620:1,0.395,-0.415
01:34:44.624:1,0.295,-0.725
01:34:44.628:1,0.135,-0.745
01:34:44.632:1,-0.025,-0.68
01:34:44.636:1,-0.18,-0.65
01:34:44.640:1,-0.21,-0.555
01:34:44.644:1,-0.225,-0.42
01:34:44.648:1,-0.21,-0.3
01:34:44.652:1,-0.15,-0.215
01:34:44.656:1,-0.1,-0.21
01:34:44.660:1,-0.02,-0.215
01:34:44.664:1,0.01,-0.22
01:34:44.668:1,0.015,-0.23
01:34:44.672:1,0.01,-0.235
01:34:44.676:1,-0.005,-0.24
01:34:44.680:1,-0.005,-0.21
01:34:44.684:1,0.0,-0.23
01:34:44.688:1,0.015,-0.24
01:34:44.692:1,0.025,-0.245
01:34:44.696:1,0.0,-0.26
01:34:44.700:1,0.015,-0.26
01:34:44.704:1,0.0,-0.245
01:34:44.708:1,-0.02,-0.23
01:34:44.712:1,0.0,-0.245
01:34:44.716:1,0.0,-0.275
01:34:44.720:1,-0.005,-0.24
01:34:44.724:1,0.005,-0.225
01:34:44.728:1,0.025,-0.22
01:34:44.732:1,0.035,-0.24
01:34:44.736:1,0.055,-0.24
01:34:44.740:1,0.035,-0.24
01:34:44.744:1,0.07,-0.19
01:34:44.748:1,0.07,-0.135
01:34:44.752:1,0.115,-0.135
01:34:44.756:1,0.11,-0.15
01:34:44.760:1,0.115,-0.135
01:34:44.764:1,0.085,-0.13
01:34:44.768:1,0.09,-0.145
01:34:44.772:1,0.065,-0.135
01:34:44.776:1,0.045,-0.145
01:34:44.780:1,0.03,-0.16
01:34:44.784:1,0.035,-0.15
01:34:44.788:1,0.03,-0.135
01:34:44.792:1,0.005,-0.145
01:34:44.796:1,0.025,-0.15
01:34:44.800:1,0.02,-0.15
01:34:44.804:1,-0.005,-0.15
01:34:44.808:1,0.005,-0.16
01:34:44.812:1,-0.015,-0.16
01:34:44.816:1,-0.01,-0.145
01:34:44.820:1,0.0,-0.16
01:34:44.824:1,0.005,-0.155
01:34:44.828:1,-0.005,-0.15
01:34:44.832:1,0.0,-0.16
01:34:44.836:1,0.005,-0.14
01:34:44.840:1,0.005,-0.125
01:34:44.844:1,-0.01,-0.11
01:34:44.848:1,-0.005,-0.1
01:34:44.852:1,-0.015,-0.08
01:34:44.856:1,0.0,-0.095
01:34:44.860:1,0.005,-0.085
01:34:44.864:1,0.01,-0.08
01:34:44.868:1,-0.005,-0.055
01:34:44.872:1,-0.01,-0.075
01:34:44.876:1,-0.005,-0.07
01:34:44.880:1,0.005,-0.08
01:34:44.884:1,0.015,-0.085
01:34:44.888:1,0.035,-0.085
01:34:44.892:1,0.03,-0.11
01:34:44.896:1,0.045,-0.1
01:34:44.900:1,0.035,-0.085
01:34:44.904:1,0.085,-0.06
01:34:44.908:1,0.09,-0.02
01:34:44.912:1,0.08,0.01
01:34:44.916:1,0.09,-0.005
01:34:44.920:1,0.09,-0.015
01:34:44.924:1,0.09,0.0
01:34:44.928:1,0.095,0.02
01:34:44.932:1,0.1,0.0
01:34:44.936:1,0.1,-0.04
01:34:44.940:1,0.1,-0.015
01:34:44.944:1,0.1,-0.035
01:34:44.948:1,0.1,-0.04
01:34:44.952:1,0.075,-0.055
01:34:44.956:1,0.07,-0.065
01:34:44.960:1,0.085,-0.09
01:34:44.964:1,0.09,-0.075
01:34:44.968:1,0.07,-0.06
01:34:44.972:1,0.065,-0.08
01:34:44.976:1,0.055,-0.085
01:34:44.980:1,0.06,-0.085
01:34:44.984:1,0.06,-0.085
01:34:44.988:1,0.06,-0.115
01:34:44.992:1,0.055,-0.14
01:34:44.996:1,0.055,-0.14
01:34:45.000:1,0.055,-0.155
01:34:45.004:1,0.07,-0.155
01:34:45.008:1,0.065,-0.145
01:34:45.012:1,0.06,-0.16
01:34:45.016:1,0.08,-0.175
01:34:45.020:1,0.055,-0.18
01:34:45.024:1,0.045,-0.165
01:34:45.028:1,0.055,-0.185
01:34:45.032:1,0.055,-0.195
01:34:45.036:1,0.07,-0.2
01:34:45.040:1,0.065,-0.22
01:34:45.044:1,0.07,-0.215
01:34:45.048:1,0.06,-0.215
01:34:45.052:1,0.04,-0.225
01:34:45.056:1,0.07,-0.27
01:34:45.060:1,0.07,-0.265
01:34:45.064:1,0.065,-0.215
01:34:45.068:1,0.09,-0.15
01:34:45.072:1,0.095,-0.11
01:34:45.076:1,0.08,-0.08
01:34:45.080:1,0.07,-0.085
01:34:45.084:1,0.05,-0.08
01:34:45.088:1,0.045,-0.085
01:34:45.092:1,0.025,-0.085
01:34:45.096:1,0.02,-0.105
01:34:45.100:1,0.055,-0.1
01:34:45.104:1,0.055,-0.12
01:34:45.108:1,0.085,-0.115
01:34:45.112:1,0.08,-0.14
01:34:45.116:1,0.075,-0.145
01:34:45.120:1,0.055,-0.145
01:34:45.124:1,0.05,-0.16
01:34:45.128:1,0.065,-0.16
01:34:45.132:1,0.08,-0.17
01:34:45.136:1,0.065,-0.185
01:34:45.140:1,0.075,-0.185
01:34:45.144:1,0.07,-0.165
01:34:45.148:1,0.065,-0.18
01:34:45.152:1,0.065,-0.175
01:34:45.156:1,0.07,-0.2
01:34:45.160:1,0.065,-0.18
01:34:45.164:1,0.08,-0.19
01:34:45.168:1,0.085,-0.2
01:34:45.172:1,0.065,-0.21
01:34:45.176:1,0.05,-0.215
01:34:45.180:1,0.075,-0.215
01:34:45.184:1,0.055,-0.18
01:34:45.188:1,0.06,-0.215
01:34:45.192:1,0.06,-0.22
01:34:45.196:1,0.055,-0.21
01:34:45.200:1,0.045,-0.205
01:34:45.204:1,0.055,-0.21
01:34:45.208:1,0.055,-0.2
01:34:45.212:1,0.065,-0.2
01:34:45.216:1,0.045,-0.225
01:34:45.220:1,0.06,-0.225
01:34:45.224:1,0.055,-0.195
01:34:45.228:1,0.055,-0.215
01:34:45.232:1,0.055,-0.225
01:34:45.236:1,0.045,-0.22
01:34:45.240:1,0.04,-0.21
01:34:45.244:1,0.06,-0.205
01:34:45.248:1,0.075,-0.205
01:34:45.252:1,0.075,-0.2
01:34:45.256:1,0.075,-0.205
01:34:45.260:1,0.08,-0.215
01:34:45.264:1,0.07,-0.23
01:34:45.268:1,0.065,-0.22
01:34:45.272:1,0.07,-0.15
01:34:45.276:1,0.095,0.005
01:34:45.280:1,0.125,0.28
01:34:45.284:1,0.16,0.545
01:34:45.288:1,0.24,0.75
01:34:45.292:1,0.325,0.865
01:34:45.296:1,0.435,0.875
01:34:45.300:1,0.525,0.625
01:34:45.304:1,0.515,0.09
01:34:45.308:1,0.445,-0.43
01:34:45.312:1,0.295,-0.71
01:34:45.316:1,0.08,-0.735
01:34:45.320:1,-0.1,-0.67
01:34:45.324:1,-0.195,-0.58
01:34:45.328:1,-0.165,-0.47
01:34:45.332:1,-0.19,-0.355
01:34:45.336:1,-0.16,-0.27
01:34:45.340:1,-0.06,-0.19
01:34:45.344:1,-0.005,-0.175
01:34:45.348:1,0.045,-0.2
01:34:45.352:1,0.065,-0.21
01:34:45.356:1,0.055,-0.215
01:34:45.360:1,0.07,-0.21
01:34:45.364:1,0.065,-0.215
01:34:45.368:1,0.075,-0.225
01:34:45.372:1,0.05,-0.24
01:34:45.376:1,0.05,-0.22
01:34:45.380:1,0.055,-0.21
01:34:45.384:1,0.045,-0.22
01:34:45.388:1,0.04,-0.195
01:34:45.392:1,0.055,-0.22
01:34:45.396:1,0.055,-0.225
01:34:45.400:1,0.04,-0.2
01:34:45.404:1,0.045,-0.22
01:34:45.408:1,0.06,-0.24
01:34:45.412:1,0.045,-0.24
01:34:45.416:1,0.035,-0.23
01:34:45.420:1,0.035,-0.225
01:34:45.424:1,0.035,-0.235
01:34:45.428:1,0.04,-0.21
01:34:45.432:1,0.04,-0.235
01:34:45.436:1,0.06,-0.235
01:34:45.440:1,0.05,-0.23
01:34:45.444:1,0.055,-0.235
01:34:45.448:1,0.065,-0.24
01:34:45.452:1,0.075,-0.25
01:34:45.456:1,0.05,-0.255
01:34:45.460:1,0.05,-0.26
01:34:45.464:1,0.025,-0.24
01:34:45.468:1,0.04,-0.235
01:34:45.472:1,0.035,-0.265
01:34:45.476:1,0.05,-0.285
01:34:45.480:1,0.05,-0.28
01:34:45.484:1,0.06,-0.265
01:34:45.488:1,0.065,-0.265
01:34:45.492:1,0.075,-0.26
01:34:45.496:1,0.075,-0.275
01:34:45.500:1,0.075,-0.235
01:34:45.504:1,0.1,-0.205
01:34:45.508:1,0.095,-0.17
01:34:45.512:1,0.095,-0.145
01:34:45.516:1,0.095,-0.14
01:34:45.520:1,0.085,-0.13
01:34:45.524:1,0.065,-0.12
01:34:45.528:1,0.055,-0.125
01:34:45.532:1,0.06,-0.12
01:34:45.536:1,0.06,-0.115
01:34:45.540:1,0.045,-0.115
01:34:45.544:1,0.055,-0.095
01:34:45.548:1,0.065,-0.105
01:34:45.552:1,0.05,-0.095
01:34:45.556:1,0.07,-0.085
01:34:45.560:1,0.095,-0.06
01:34:45.564:1,0.085,-0.035
01:34:45.568:1,0.075,-0.025
01:34:45.572:1,0.075,-0.025
01:34:45.576:1,0.075,0.0
01:34:45.580:1,0.095,0.025
01:34:45.584:1,0.095,0.015
01:34:45.588:1,0.11,0.0
01:34:45.592:1,0.13,-0.015
01:34:45.596:1,0.12,-0.01
01:34:45.600:1,0.13,-0.03
01:34:45.604:1,0.125,-0.03
01:34:45.608:1,0.12,-0.035
01:34:45.612:1,0.13,-0.06
01:34:45.616:1,0.11,-0.06
01:34:45.620:1,0.12,-0.065
01:34:45.624:1,0.12,-0.06
01:34:45.628:1,0.135,-0.06
01:34:45.632:1,0.13,-0.08
01:34:45.636:1,0.12,-0.095
01:34:45.640:1,0.125,-0.085
01:34:45.644:1,0.12,-0.07
01:34:45.648:1,0.11,-0.055
01:34:45.652:1,0.12,-0.055
01:34:45.656:1,0.12,-0.05
01:34:45.660:1,0.11,-0.03
01:34:45.664:1,0.11,-0.03
01:34:45.668:1,0.135,-0.055
01:34:45.672:1,0.155,-0.095
01:34:45.676:1,0.145,-0.125
01:34:45.680:1,0.155,-0.17
01:34:45.684:1,0.17,-0.14
01:34:45.688:1,0.175,-0.105
01:34:45.692:1,0.18,-0.065
01:34:45.696:1,0.17,-0.06
01:34:45.700:1,0.155,-0.07
01:34:45.704:1,0.145,-0.085
01:34:45.708:1,0.135,-0.075
01:34:45.712:1,0.11,-0.105
01:34:45.716:1,0.095,-0.13
01:34:45.720:1,0.07,-0.135
01:34:45.724:1,0.06,-0.12
01:34:45.728:1,0.085,-0.145
01:34:45.732:1,0.075,-0.145
01:34:45.736:1,0.065,-0.16
01:34:45.740:1,0.06,-0.145
01:34:45.744:1,0.055,-0.155
01:34:45.748:1,0.065,-0.16
01:34:45.752:1,0.045,-0.155
01:34:45.756:1,0.05,-0.155
01:34:45.760:1,0.045,-0.16
01:34:45.764:1,0.065,-0.155
01:34:45.768:1,0.07,-0.16
01:34:45.772:1,0.075,-0.185
01:34:45.776:1,0.065,-0.17
01:34:45.780:1,0.06,-0.16
01:34:45.784:1,0.055,-0.15
01:34:45.788:1,0.065,-0.18
01:34:45.792:1,0.06,-0.165
01:34:45.796:1,0.055,-0.145
01:34:45.800:1,0.07,-0.17
01:34:45.804:1,0.075,-0.2
01:34:45.808:1,0.085,-0.225
01:34:45.812:1,0.07,-0.18
01:34:45.816:1,0.085,-0.045
01:34:45.820:1,0.1,0.235
01:34:45.824:1,0.125,0.52
01:34:45.828:1,0.195,0.765
01:34:45.832:1,0.31,0.825
01:34:45.836:1,0.41,0.76
01:34:45.840:1,0.425,0.49
01:34:45.844:1,0.38,-0.015
01:34:45.848:1,0.255,-0.55
01:34:45.852:1,0.065,-0.83
01:34:45.856:1,-0.135,-0.855
01:34:45.860:1,-0.28,-0.785
01:34:45.864:1,-0.28,-0.635
01:34:45.868:1,-0.265,-0.43
01:34:45.872:1,-0.18,-0.255
01:34:45.876:1,-0.115,-0.13
01:34:45.880:1,-0.02,-0.09
01:34:45.884:1,0.04,-0.105
01:34:45.888:1,0.07,-0.125
01:34:45.892:1,0.09,-0.135
01:34:45.896:1,0.09,-0.155
01:34:45.900:1,0.09,-0.155
01:34:45.904:1,0.06,-0.16
01:34:45.908:1,0.075,-0.2
01:34:45.912:1,0.07,-0.215
01:34:45.916:1,0.055,-0.235
01:34:45.920:1,0.035,-0.24
01:34:45.924:1,0.025,-0.27
01:34:45.928:1,0.025,-0.27
01:34:45.932:1,0.0,-0.265
01:34:45.936:1,0.005,-0.275
01:34:45.940:1,0.01,-0.27
01:34:45.944:1,0.025,-0.285
01:34:45.948:1,0.025,-0.28
01:34:45.952:1,0.01,-0.29
01:34:45.956:1,0.02,-0.275
01:34:45.960:1,0.03,-0.255
01:34:45.964:1,0.025,-0.27
01:34:45.968:1,0.04,-0.255
01:34:45.972:1,0.025,-0.295
01:34:45.976:1,0.035,-0.265
01:34:45.980:1,0.035,-0.265
01:34:45.984:1,0.045,-0.255
01:34:45.988:1,0.05,-0.27
01:34:45.992:1,0.04,-0.26
01:34:45.996:1,0.085,-0.27
01:34:46.000:1,0.07,-0.275
01:34:46.004:1,0.05,-0.25
01:34:46.008:1,0.055,-0.25
01:34:46.012:1,0.075,-0.24
01:34:46.016:1,0.075,-0.225
01:34:46.020:1,0.07,-0.21
01:34:46.024:1,0.09,-0.2
01:34:46.028:1,0.1,-0.235
01:34:46.032:1,0.12,-0.26
01:34:46.036:1,0.13,-0.275
01:34:46.040:1,0.12,-0.27
01:34:46.044:1,0.125,-0.265
01:34:46.048:1,0.14,-0.21
01:34:46.052:1,0.15,-0.165
01:34:46.056:1,0.14,-0.135
01:34:46.060:1,0.135,-0.13
01:34:46.064:1,0.13,-0.14
01:34:46.068:1,0.105,-0.14
01:34:46.072:1,0.115,-0.115
01:34:46.076:1,0.1,-0.125
01:34:46.080:1,0.1,-0.11
01:34:46.084:1,0.075,-0.095
01:34:46.088:1,0.07,-0.095
01:34:46.092:1,0.085,-0.085
01:34:46.096:1,0.085,-0.065
01:34:46.100:1,0.075,-0.07
01:34:46.104:1,0.085,-0.08
01:34:46.108:1,0.065,-0.085
01:34:46.112:1,0.065,-0.095
01:34:46.116:1,0.08,-0.1
01:34:46.120:1,0.08,-0.11
01:34:46.124:1,0.08,-0.1
01:34:46.128:1,0.085,-0.125
01:34:46.132:1,0.08,-0.155
01:34:46.136:1,0.075,-0.135
01:34:46.140:1,0.075,-0.145
01:34:46.144:1,0.075,-0.16
01:34:46.148:1,0.075,-0.175
01:34:46.152:1,0.085,-0.17
01:34:46.156:1,0.085,-0.175
01:34:46.160:1,0.08,-0.16
01:34:46.164:1,0.095,-0.175
01:34:46.168:1,0.095,-0.185
01:34:46.172:1,0.09,-0.215
01:34:46.176:1,0.09,-0.19
01:34:46.180:1,0.075,-0.19
01:34:46.184:1,0.095,-0.18
01:34:46.188:1,0.085,-0.155
01:34:46.192:1,0.1,-0.16
01:34:46.196:1,0.1,-0.16
01:34:46.200:1,0.12,-0.16
01:34:46.204:1,0.13,-0.17
01:34:46.208:1,0.125,-0.165
01:34:46.212:1,0.15,-0.145
01:34:46.216:1,0.165,-0.125
01:34:46.220:1,0.16,-0.09
01:34:46.224:1,0.13,-0.12
01:34:46.228:1,0.16,-0.085
01:34:46.232:1,0.14,-0.085
01:34:46.236:1,0.13,-0.085
01:34:46.240:1,0.12,-0.095
01:34:46.244:1,0.11,-0.095
01:34:46.248:1,0.105,-0.115
01:34:46.252:1,0.115,-0.125
01:34:46.256:1,0.105,-0.12
01:34:46.260:1,0.1,-0.105
01:34:46.264:1,0.095,-0.11
01:34:46.268:1,0.08,-0.135
01:34:46.272:1,0.095,-0.115
01:34:46.276:1,0.075,-0.145
01:34:46.280:1,0.08,-0.165
01:34:46.284:1,0.1,-0.18
01:34:46.288:1,0.085,-0.215
01:34:46.292:1,0.075,-0.26
01:34:46.296:1,0.075,-0.255
01:34:46.300:1,0.06,-0.205
01:34:46.304:1,0.09,-0.03
01:34:46.308:1,0.12,0.18
01:34:46.312:1,0.155,0.44
01:34:46.316:1,0.225,0.64
01:34:46.320:1,0.33,0.685
01:34:46.324:1,0.395,0.615
01:34:46.328:1,0.43,0.37
01:34:46.332:1,0.36,-0.14
01:34:46.336:1,0.245,-0.59
01:34:46.340:1,0.055,-0.785
01:34:46.344:1,-0.115,-0.8
01:34:46.348:1,-0.235,-0.75
01:34:46.352:1,-0.28,-0.63
01:34:46.356:1,-0.28,-0.515
01:34:46.360:1,-0.235,-0.43
01:34:46.364:1,-0.12,-0.365
01:34:46.368:1,-0.035,-0.275
01:34:46.372:1,0.035,-0.21
01:34:46.376:1,0.07,-0.165
01:34:46.380:1,0.085,-0.17
01:34:46.384:1,0.09,-0.165
01:34:46.388:1,0.09,-0.135
01:34:46.392:1,0.11,-0.125
01:34:46.396:1,0.085,-0.125
01:34:46.400:1,0.105,-0.145
01:34:46.404:1,0.11,-0.135
01:34:46.408:1,0.105,-0.145
01:34:46.412:1,0.095,-0.155
01:34:46.416:1,0.095,-0.16
01:34:46.420:1,0.095,-0.16
01:34:46.424:1,0.08,-0.17
01:34:46.428:1,0.065,-0.2
01:34:46.432:1,0.08,-0.2
01:34:46.436:1,0.08,-0.175
01:34:46.440:1,0.09,-0.185
01:34:46.444:1,0.105,-0.2
01:34:46.448:1,0.085,-0.205
01:34:46.452:1,0.08,-0.22
01:34:46.456:1,0.08,-0.23
01:34:46.460:1,0.085,-0.235
01:34:46.464:1,0.075,-0.23
01:34:46.468:1,0.075,-0.25
01:34:46.472:1,0.09,-0.26
01:34:46.476:1,0.07,-0.25
01:34:46.480:1,0.075,-0.25
01:34:46.484:1,0.085,-0.27
01:34:46.488:1,0.075,-0.25
01:34:46.492:1,0.06,-0.26
01:34:46.496:1,0.08,-0.255
01:34:46.500:1,0.085,-0.255
01:34:46.504:1,0.065,-0.26
01:34:46.508:1,0.085,-0.26
01:34:46.512:1,0.08,-0.265
01:34:46.516:1,0.1,-0.255
01:34:46.520:1,0.09,-0.24
01:34:46.524:1,0.095,-0.245
01:34:46.528:1,0.08,-0.24
01:34:46.532:1,0.085,-0.24
01:34:46.536:1,0.095,-0.205
01:34:46.540:1,0.1,-0.225
01:34:46.544:1,0.1,-0.22
01:34:46.548:1,0.115,-0.19
01:34:46.552:1,0.11,-0.18
01:34:46.556:1,0.16,-0.12
01:34:46.560:1,0.155,-0.03
01:34:46.564:1,0.18,0.025
01:34:46.568:1,0.18,0.07
01:34:46.572:1,0.195,0.07
01:34:46.576:1,0.19,0.09
01:34:46.580:1,0.19,0.065
01:34:46.584:1,0.175,0.045
01:34:46.588:1,0.16,0.025
01:34:46.592:1,0.15,0.015
01:34:46.596:1,0.14,-0.005
01:34:46.600:1,0.11,-0.025
01:34:46.604:1,0.115,-0.04
01:34:46.608:1,0.11,-0.06
01:34:46.612:1,0.11,-0.085
01:34:46.616:1,0.105,-0.07
01:34:46.620:1,0.125,-0.09
01:34:46.624:1,0.095,-0.1
01:34:46.628:1,0.095,-0.12
01:34:46.632:1,0.115,-0.125
01:34:46.636:1,0.1,-0.115
01:34:46.640:1,0.1,-0.105
01:34:46.644:1,0.11,-0.13
01:34:46.648:1,0.075,-0.145
01:34:46.652:1,0.095,-0.135
01:34:46.656:1,0.085,-0.125
01:34:46.660:1,0.075,-0.145
01:34:46.664:1,0.075,-0.15
01:34:46.668:1,0.09,-0.125
01:34:46.672:1,0.08,-0.135
01:34:46.676:1,0.095,-0.15
01:34:46.680:1,0.085,-0.17
01:34:46.684:1,0.07,-0.17
01:34:46.688:1,0.09,-0.165
01:34:46.692:1,0.1,-0.16
01:34:46.696:1,0.085,-0.17
01:34:46.700:1,0.09,-0.19
01:34:46.704:1,0.075,-0.2
01:34:46.708:1,0.075,-0.18
01:34:46.712:1,0.06,-0.185
01:34:46.716:1,0.07,-0.195
01:34:46.720:1,0.09,-0.195
01:34:46.724:1,0.095,-0.195
01:34:46.728:1,0.095,-0.215
01:34:46.732:1,0.11,-0.215
01:34:46.736:1,0.11,-0.185
01:34:46.740:1,0.155,-0.115
01:34:46.744:1,0.155,-0.085
01:34:46.748:1,0.14,-0.06
01:34:46.752:1,0.15,-0.04
01:34:46.756:1,0.15,-0.04
01:34:46.760:1,0.125,-0.03
01:34:46.764:1,0.14,-0.065
01:34:46.768:1,0.13,-0.09
01:34:46.772:1,0.145,-0.08
01:34:46.776:1,0.13,-0.08
01:34:46.780:1,0.125,-0.11
01:34:46.784:1,0.115,-0.14
01:34:46.788:1,0.105,-0.16
01:34:46.792:1,0.11,-0.18
01:34:46.796:1,0.09,-0.19
01:34:46.800:1,0.085,-0.19
01:34:46.804:1,0.085,-0.21
01:34:46.808:1,0.075,-0.21
01:34:46.812:1,0.085,-0.22
01:34:46.816:1,0.07,-0.21
01:34:46.820:1,0.065,-0.21
01:34:46.824:1,0.075,-0.23
01:34:46.828:1,0.055,-0.245
01:34:46.832:1,0.055,-0.245
01:34:46.836:1,0.06,-0.25
01:34:46.840:1,0.055,-0.25
01:34:46.844:1,0.035,-0.255
01:34:46.848:1,0.05,-0.25
01:34:46.852:1,0.055,-0.26
01:34:46.856:1,0.055,-0.255
01:34:46.860:1,0.06,-0.255
01:34:46.864:1,0.06,-0.26
01:34:46.868:1,0.055,-0.265
01:34:46.872:1,0.045,-0.29
01:34:46.876:1,0.03,-0.285
01:34:46.880:1,0.03,-0.285
01:34:46.884:1,0.04,-0.3
01:34:46.888:1,0.04,-0.295
01:34:46.892:1,0.045,-0.28
01:34:46.896:1,0.04,-0.285
01:34:46.900:1,0.05,-0.295
01:34:46.904:1,0.055,-0.305
01:34:46.908:1,0.075,-0.29
01:34:46.912:1,0.09,-0.235
01:34:46.916:1,0.115,-0.155
01:34:46.920:1,0.12,-0.145
01:34:46.924:1,0.115,-0.13
01:34:46.928:1,0.095,-0.12
01:34:46.932:1,0.09,-0.11
01:34:46.936:1,0.085,-0.115
01:34:46.940:1,0.115,-0.115
01:34:46.944:1,0.105,-0.135
01:34:46.948:1,0.1,-0.155
01:34:46.952:1,0.09,-0.15
01:34:46.956:1,0.085,-0.16
01:34:46.960:1,0.085,-0.155
01:34:46.964:1,0.07,-0.16
01:34:46.968:1,0.075,-0.17
01:34:46.972:1,0.09,-0.18
01:34:46.976:1,0.065,-0.17
01:34:46.980:1,0.06,-0.185
01:34:46.984:1,0.075,-0.19
01:34:46.988:1,0.06,-0.195
01:34:46.992:1,0.075,-0.19
01:34:46.996:1,0.055,-0.21
01:34:47.000:1,0.065,-0.22
01:34:47.004:1,0.065,-0.2
01:34:47.008:1,0.085,-0.075
01:34:47.012:1,0.1,0.145
01:34:47.016:1,0.145,0.415
01:34:47.020:1,0.175,0.69
01:34:47.024:1,0.25,0.855
01:34:47.028:1,0.365,0.88
01:34:47.032:1,0.455,0.78
01:34:47.036:1,0.455,0.365
01:34:47.040:1,0.405,-0.265
01:34:47.044:1,0.275,-0.725
01:34:47.048:1,0.05,-0.905
01:34:47.052:1,-0.16,-0.855
01:34:47.056:1,-0.28,-0.74
01:34:47.060:1,-0.31,-0.59
01:34:47.064:1,-0.26,-0.47
01:34:47.068:1,-0.235,-0.375
01:34:47.072:1,-0.1,-0.315
01:34:47.076:1,-0.025,-0.275
01:34:47.080:1,0.03,-0.2
01:34:47.084:1,0.065,-0.175
01:34:47.088:1,0.09,-0.185
01:34:47.092:1,0.095,-0.145
01:34:47.096:1,0.07,-0.14
01:34:47.100:1,0.085,-0.175
01:34:47.104:1,0.085,-0.175
01:34:47.108:1,0.075,-0.19
01:34:47.112:1,0.085,-0.195
01:34:47.116:1,0.09,-0.21
01:34:47.120:1,0.055,-0.225
01:34:47.124:1,0.045,-0.25
01:34:47.128:1,0.05,-0.24
01:34:47.132:1,0.045,-0.24
01:34:47.136:1,0.04,-0.265
01:34:47.140:1,0.04,-0.275
01:34:47.144:1,0.035,-0.29
01:34:47.148:1,0.035,-0.295
01:34:47.152:1,0.04,-0.32
01:34:47.156:1,0.02,-0.31
01:34:47.160:1,0.02,-0.295
01:34:47.164:1,0.03,-0.305
01:34:47.168:1,0.04,-0.29
01:34:47.172:1,0.035,-0.285
01:34:47.176:1,0.03,-0.305
01:34:47.180:1,0.055,-0.325
01:34:47.184:1,0.035,-0.34
01:34:47.188:1,0.03,-0.31
01:34:47.192:1,0.06,-0.315
01:34:47.196:1,0.045,-0.305
01:34:47.200:1,0.06,-0.305
01:34:47.204:1,0.055,-0.32
01:34:47.208:1,0.045,-0.3
01:34:47.212:1,0.07,-0.305
01:34:47.216:1,0.05,-0.315
01:34:47.220:1,0.05,-0.34
01:34:47.224:1,0.055,-0.33
01:34:47.228:1,0.045,-0.305
01:34:47.232:1,0.05,-0.305
01:34:47.236:1,0.07,-0.305
01:34:47.240:1,0.075,-0.275
01:34:47.244:1,0.09,-0.225
01:34:47.248:1,0.105,-0.15
01:34:47.252:1,0.115,-0.09
01:34:47.256:1,0.1,-0.08
01:34:47.260:1,0.1,-0.035
01:34:47.264:1,0.115,-0.015
01:34:47.268:1,0.11,-0.01
01:34:47.272:1,0.125,-0.025
01:34:47.276:1,0.125,-0.035
01:34:47.280:1,0.12,-0.015
01:34:47.284:1,0.11,-0.01
01:34:47.288:1,0.095,0.0
01:34:47.292:1,0.09,0.01
01:34:47.296:1,0.095,0.015
01:34:47.300:1,0.12,0.025
01:34:47.304:1,0.115,0.03
01:34:47.308:1,0.095,0.04
01:34:47.312:1,0.115,0.03
01:34:47.316:1,0.115,0.01
01:34:47.320:1,0.12,0.01
01:34:47.324:1,0.13,-0.02
01:34:47.328:1,0.125,-0.04
01:34:47.332:1,0.12,-0.055
01:34:47.336:1,0.11,-0.07
01:34:47.340:1,0.095,-0.115
01:34:47.344:1,0.09,-0.135
01:34:47.348:1,0.075,-0.13
01:34:47.352:1,0.095,-0.145
01:34:47.356:1,0.075,-0.16
01:34:47.360:1,0.085,-0.165
01:34:47.364:1,0.075,-0.16
01:34:47.368:1,0.11,-0.155
01:34:47.372:1,0.085,-0.18
01:34:47.376:1,0.085,-0.175
01:34:47.380:1,0.085,-0.2
01:34:47.384:1,0.09,-0.21
01:34:47.388:1,0.09,-0.21
01:34:47.392:1,0.09,-0.21
01:34:47.396:1,0.105,-0.21
01:34:47.400:1,0.1,-0.165
01:34:47.404:1,0.115,-0.12
01:34:47.408:1,0.125,-0.1
01:34:47.412:1,0.14,-0.1
01:34:47.416:1,0.14,-0.06
01:34:47.420:1,0.115,-0.04
01:34:47.424:1,0.115,-0.035
01:34:47.428:1,0.095,-0.02
01:34:47.432:1,0.12,-0.005
01:34:47.436:1,0.105,-0.02
01:34:47.440:1,0.095,-0.025
01:34:47.444:1,0.11,-0.02
01:34:47.448:1,0.135,-0.04
01:34:47.452:1,0.14,-0.075
01:34:47.456:1,0.135,-0.075
01:34:47.460:1,0.12,-0.085
01:34:47.464:1,0.11,-0.105
01:34:47.468:1,0.105,-0.135
01:34:47.472:1,0.11,-0.155
01:34:47.476:1,0.1,-0.17
01:34:47.480:1,0.1,-0.19
01:34:47.484:1,0.095,-0.19
01:34:47.488:1,0.095,-0.18
01:34:47.492:1,0.075,-0.175
01:34:47.496:1,0.1,-0.18
01:34:47.500:1,0.08,-0.19
01:34:47.504:1,0.095,-0.2
01:34:47.508:1,0.08,-0.235
01:34:47.512:1,0.08,-0.27
01:34:47.516:1,0.07,-0.245
01:34:47.520:1,0.08,-0.14
01:34:47.524:1,0.11,0.075
01:34:47.528:1,0.135,0.355
01:34:47.532:1,0.17,0.56
01:34:47.536:1,0.255,0.665
01:34:47.540:1,0.345,0.65
01:34:47.544:1,0.425,0.485
01:34:47.548:1,0.435,0.045
01:34:47.552:1,0.39,-0.55
01:34:47.556:1,0.255,-0.86
01:34:47.560:1,0.04,-0.92
01:34:47.564:1,-0.135,-0.855
01:34:47.568:1,-0.23,-0.715
01:34:47.572:1,-0.24,-0.53
01:34:47.576:1,-0.225,-0.36
01:34:47.580:1,-0.16,-0.265
01:34:47.584:1,-0.085,-0.2
01:34:47.588:1,-0.015,-0.185
01:34:47.592:1,0.025,-0.185
01:34:47.596:1,0.01,-0.2
01:34:47.600:1,0.02,-0.22
01:34:47.604:1,0.035,-0.2
01:34:47.608:1,0.025,-0.205
01:34:47.612:1,0.03,-0.21
01:34:47.616:1,0.045,-0.24
01:34:47.620:1,0.055,-0.24
01:34:47.624:1,0.02,-0.24
01:34:47.628:1,0.02,-0.225
01:34:47.632:1,0.04,-0.23
01:34:47.636:1,0.035,-0.225
01:34:47.640:1,0.035,-0.225
01:34:47.644:1,0.025,-0.265
01:34:47.648:1,0.03,-0.275
01:34:47.652:1,0.03,-0.27
01:34:47.656:1,0.01,-0.305
01:34:47.660:1,0.005,-0.3
01:34:47.664:1,0.02,-0.285
01:34:47.668:1,0.015,-0.28
01:34:47.672:1,0.045,-0.29
01:34:47.676:1,0.03,-0.295
01:34:47.680:1,0.02,-0.29
01:34:47.684:1,0.035,-0.3
01:34:47.688:1,0.045,-0.28
01:34:47.692:1,0.05,-0.295
01:34:47.696:1,0.04,-0.32
01:34:47.700:1,0.03,-0.335
01:34:47.704:1,0.02,-0.32
01:34:47.708:1,0.03,-0.345
01:34:47.712:1,0.02,-0.34
01:34:47.716:1,0.0,-0.32
01:34:47.720:1,0.0,-0.325
01:34:47.724:1,0.005,-0.315
01:34:47.728:1,0.02,-0.285
01:34:47.732:1,0.02,-0.28
01:34:47.736:1,0.035,-0.28
01:34:47.740:1,0.06,-0.275
01:34:47.744:1,0.05,-0.255
01:34:47.748:1,0.045,-0.21
01:34:47.752:1,0.07,-0.16
01:34:47.756:1,0.05,-0.15
01:34:47.760:1,0.04,-0.16
01:34:47.764:1,0.015,-0.16
01:34:47.768:1,0.0,-0.14
01:34:47.772:1,-0.025,-0.14
01:34:47.776:1,-0.01,-0.16
01:34:47.780:1,0.005,-0.145
01:34:47.784:1,0.015,-0.12
01:34:47.788:1,-0.015,-0.125
01:34:47.792:1,0.01,-0.12
01:34:47.796:1,0.005,-0.095
01:34:47.800:1,0.025,-0.095
01:34:47.804:1,0.015,-0.11
01:34:47.808:1,0.02,-0.085
01:34:47.812:1,0.02,-0.08
01:34:47.816:1,0.035,-0.135
01:34:47.820:1,0.025,-0.135
01:34:47.824:1,0.045,-0.12
01:34:47.828:1,0.05,-0.135
01:34:47.832:1,0.075,-0.15
01:34:47.836:1,0.055,-0.145
01:34:47.840:1,0.07,-0.155
01:34:47.844:1,0.065,-0.165
01:34:47.848:1,0.085,-0.18
01:34:47.852:1,0.06,-0.19
01:34:47.856:1,0.06,-0.18
01:34:47.860:1,0.065,-0.185
01:34:47.864:1,0.07,-0.17
01:34:47.868:1,0.055,-0.185
01:34:47.872:1,0.065,-0.2
01:34:47.876:1,0.055,-0.205
01:34:47.880:1,0.04,-0.215
01:34:47.884:1,0.035,-0.215
01:34:47.888:1,0.04,-0.205
01:34:47.892:1,0.04,-0.215
01:34:47.896:1,0.05,-0.22
01:34:47.900:1,0.04,-0.23
01:34:47.904:1,0.055,-0.225
01:34:47.908:1,0.065,-0.2
01:34:47.912:1,0.075,-0.14
01:34:47.916:1,0.105,-0.1
01:34:47.920:1,0.095,-0.05
01:34:47.924:1,0.075,-0.05
01:34:47.928:1,0.075,-0.045
01:34:47.932:1,0.075,-0.055
01:34:47.936:1,0.075,-0.05
01:34:47.940:1,0.05,-0.045
01:34:47.944:1,0.05,-0.045
01:34:47.948:1,0.055,-0.065
01:34:47.952:1,0.07,-0.09
01:34:47.956:1,0.05,-0.125
01:34:47.960:1,0.055,-0.185
01:34:47.964:1,0.035,-0.215
01:34:47.968:1,0.025,-0.17
01:34:47.972:1,0.015,-0.055
01:34:47.976:1,0.025,0.14
01:34:47.980:1,0.075,0.375
01:34:47.984:1,0.1,0.63
01:34:47.988:1,0.165,0.695
01:34:47.992:1,0.265,0.635
01:34:47.996:1,0.345,0.43
01:34:48.000:1,0.385,-0.025
01:34:48.004:1,0.355,-0.545
01:34:48.008:1,0.265,-0.83
01:34:48.012:1,0.09,-0.865
01:34:48.016:1,-0.12,-0.785
01:34:48.020:1,-0.265,-0.725
01:34:48.024:1,-0.275,-0.655
01:34:48.028:1,-0.27,-0.53
01:34:48.032:1,-0.25,-0.445
01:34:48.036:1,-0.185,-0.355
01:34:48.040:1,-0.095,-0.305
01:34:48.044:1,-0.055,-0.305
01:34:48.048:1,-0.025,-0.32
01:34:48.052:1,-0.01,-0.325
01:34:48.056:1,-0.015,-0.335
01:34:48.060:1,-0.025,-0.36
01:34:48.064:1,-0.035,-0.375
01:34:48.068:1,-0.02,-0.37
01:34:48.072:1,-0.03,-0.355
01:34:48.076:1,-0.025,-0.305
01:34:48.080:1,0.0,-0.285
01:34:48.084:1,0.0,-0.26
01:34:48.088:1,0.0,-0.25
01:34:48.092:1,0.0,-0.24
01:34:48.096:1,0.0,-0.24
01:34:48.100:1,-0.01,-0.24
01:34:48.104:1,0.0,-0.225
01:34:48.108:1,0.0,-0.23
01:34:48.112:1,-0.01,-0.215
01:34:48.116:1,-0.01,-0.21
01:34:48.120:1,-0.01,-0.215
01:34:48.124:1,0.0,-0.2
01:34:48.128:1,0.0,-0.22
01:34:48.132:1,-0.02,-0.245
01:34:48.136:1,0.0,-0.235
01:34:48.140:1,-0.01,-0.24
01:34:48.144:1,-0.025,-0.24
01:34:48.148:1,-0.01,-0.24
01:34:48.152:1,-0.01,-0.25
01:34:48.156:1,-0.03,-0.265
01:34:48.160:1,-0.015,-0.28
01:34:48.164:1,-0.015,-0.265
01:34:48.168:1,-0.03,-0.275
01:34:48.172:1,-0.015,-0.275
01:34:48.176:1,-0.015,-0.285
01:34:48.180:1,-0.02,-0.29
01:34:48.184:1,0.0,-0.3
01:34:48.188:1,0.0,-0.29
01:34:48.192:1,-0.005,-0.305
01:34:48.196:1,-0.01,-0.3
01:34:48.200:1,0.0,-0.305
01:34:48.204:1,0.0,-0.295
01:34:48.208:1,-0.01,-0.305
01:34:48.212:1,0.005,-0.295
01:34:48.216:1,0.0,-0.29
01:34:48.220:1,-0.01,-0.27
01:34:48.224:1,0.005,-0.27
01:34:48.228:1,0.015,-0.26
01:34:48.232:1,0.0,-0.215
01:34:48.236:1,0.02,-0.155
01:34:48.240:1,0.02,-0.13
01:34:48.244:1,0.045,-0.095
01:34:48.248:1,0.015,-0.08
01:34:48.252:1,0.01,-0.065
01:34:48.256:1,0.01,-0.03
01:34:48.260:1,0.01,-0.02
01:34:48.264:1,0.02,-0.02
01:34:48.268:1,0.04,-0.04
01:34:48.272:1,0.035,-0.04
01:34:48.276:1,0.045,-0.07
01:34:48.280:1,0.05,-0.09
01:34:48.284:1,0.055,-0.1
01:34:48.288:1,0.04,-0.115
01:34:48.292:1,0.04,-0.12
01:34:48.296:1,0.07,-0.13
01:34:48.300:1,0.05,-0.135
01:34:48.304:1,0.05,-0.16
01:34:48.308:1,0.055,-0.165
01:34:48.312:1,0.06,-0.19
01:34:48.316:1,0.05,-0.17
01:34:48.320:1,0.04,-0.19
01:34:48.324:1,0.05,-0.185
01:34:48.328:1,0.045,-0.205
01:34:48.332:1,0.045,-0.21
01:34:48.336:1,0.055,-0.225
01:34:48.340:1,0.06,-0.215
01:34:48.344:1,0.035,-0.23
01:34:48.348:1,0.045,-0.25
01:34:48.352:1,0.05,-0.26
01:34:48.356:1,0.06,-0.23
01:34:48.360:1,0.05,-0.235
01:34:48.364:1,0.08,-0.24
01:34:48.368:1,0.075,-0.225
01:34:48.372:1,0.095,-0.235
01:34:48.376:1,0.115,-0.24
01:34:48.380:1,0.13,-0.23
01:34:48.384:1,0.125,-0.235
01:34:48.388:1,0.13,-0.25
01:34:48.392:1,0.125,-0.25
01:34:48.396:1,0.125,-0.22
01:34:48.400:1,0.105,-0.21
01:34:48.404:1,0.095,-0.18
01:34:48.408:1,0.09,-0.185
01:34:48.412:1,0.085,-0.17
01:34:48.416:1,0.085,-0.18
01:34:48.420:1,0.085,-0.16
01:34:48.424:1,0.085,-0.16
01:34:48.428:1,0.055,-0.155
01:34:48.432:1,0.07,-0.165
01:34:48.436:1,0.075,-0.16
01:34:48.440:1,0.065,-0.185
01:34:48.444:1,0.07,-0.195
01:34:48.448:1,0.075,-0.21
01:34:48.452:1,0.06,-0.2
01:34:48.456:1,0.07,-0.205
01:34:48.460:1,0.065,-0.21
01:34:48.464:1,0.085,-0.225
01:34:48.468:1,0.07,-0.23
01:34:48.472:1,0.065,-0.24
01:34:48.476:1,0.07,-0.245
01:34:48.480:1,0.055,-0.225
01:34:48.484:1,0.06,-0.23
01:34:48.488:1,0.09,-0.26
01:34:48.492:1,0.075,-0.27
01:34:48.496:1,0.095,-0.3
01:34:48.500:1,0.085,-0.285
01:34:48.504:1,0.07,-0.285
01:34:48.508:1,0.06,-0.28
01:34:48.512:1,0.065,-0.29
01:34:48.516:1,0.07,-0.285
01:34:48.520:1,0.06,-0.29
01:34:48.524:1,0.075,-0.275
01:34:48.528:1,0.06,-0.265
01:34:48.532:1,0.07,-0.25
01:34:48.536:1,0.065,-0.24
01:34:48.540:1,0.06,-0.235
01:34:48.544:1,0.08,-0.24
01:34:48.548:1,0.09,-0.22
01:34:48.552:1,0.07,-0.215
01:34:48.556:1,0.075,-0.225
01:34:48.560:1,0.075,-0.215
01:34:48.564:1,0.065,-0.205
01:34:48.568:1,0.08,-0.195
01:34:48.572:1,0.095,-0.18
01:34:48.576:1,0.09,-0.165
01:34:48.580:1,0.06,-0.165
01:34:48.584:1,0.075,-0.155
01:34:48.588:1,0.075,-0.15
01:34:48.592:1,0.07,-0.155
01:34:48.596:1,0.06,-0.155
01:34:48.600:1,0.065,-0.16
01:34:48.604:1,0.1,-0.12
01:34:48.608:1,0.125,0.0
01:34:48.612:1,0.16,0.21
01:34:48.616:1,0.19,0.46
01:34:48.620:1,0.21,0.69
01:34:48.624:1,0.295,0.785
01:34:48.628:1,0.39,0.765
01:34:48.632:1,0.435,0.585
01:34:48.636:1,0.45,0.12
01:34:48.640:1,0.405,-0.44
01:34:48.644:1,0.27,-0.81
01:34:48.648:1,0.05,-0.93
01:34:48.652:1,-0.135,-0.855
01:34:48.656:1,-0.27,-0.765
01:34:48.660:1,-0.27,-0.635
01:34:48.664:1,-0.25,-0.545
01:34:48.668:1,-0.205,-0.41
01:34:48.672:1,-0.115,-0.315
01:34:48.676:1,-0.02,-0.305
01:34:48.680:1,0.01,-0.32
01:34:48.684:1,0.0,-0.325
01:34:48.688:1,0.02,-0.34
01:34:48.692:1,0.035,-0.32
01:34:48.696:1,0.0,-0.33
01:34:48.700:1,0.0,-0.295
01:34:48.704:1,0.0,-0.32
01:34:48.708:1,0.015,-0.305
01:34:48.712:1,-0.005,-0.28
01:34:48.716:1,0.025,-0.27
01:34:48.720:1,0.03,-0.28
01:34:48.724:1,0.025,-0.26
01:34:48.728:1,0.03,-0.27
01:34:48.732:1,0.02,-0.26
01:34:48.736:1,0.025,-0.26
01:34:48.740:1,0.015,-0.265
01:34:48.744:1,0.02,-0.25
01:34:48.748:1,0.05,-0.25
01:34:48.752:1,0.02,-0.23
01:34:48.756:1,0.03,-0.225
01:34:48.760:1,0.065,-0.24
01:34:48.764:1,0.08,-0.265
01:34:48.768:1,0.085,-0.27
01:34:48.772:1,0.085,-0.305
01:34:48.776:1,0.08,-0.28
01:34:48.780:1,0.055,-0.295
01:34:48.784:1,0.06,-0.31
01:34:48.788:1,0.085,-0.32
01:34:48.792:1,0.05,-0.305
01:34:48.796:1,0.04,-0.31
01:34:48.800:1,0.06,-0.33
01:34:48.804:1,0.055,-0.355
01:34:48.808:1,0.04,-0.35
01:34:48.812:1,0.055,-0.355
01:34:48.816:1,0.06,-0.365
01:34:48.820:1,0.045,-0.36
01:34:48.824:1,0.035,-0.355
01:34:48.828:1,0.055,-0.31
01:34:48.832:1,0.065,-0.27
01:34:48.836:1,0.075,-0.26
01:34:48.840:1,0.09,-0.25
01:34:48.844:1,0.05,-0.23
01:34:48.848:1,0.03,-0.23
01:34:48.852:1,0.025,-0.215
01:34:48.856:1,0.02,-0.185
01:34:48.860:1,-0.005,-0.185
01:34:48.864:1,0.0,-0.19
01:34:48.868:1,0.01,-0.175
01:34:48.872:1,0.0,-0.16
01:34:48.876:1,0.01,-0.155
01:34:48.880:1,0.02,-0.14
01:34:48.884:1,0.02,-0.115
01:34:48.888:1,0.015,-0.1
01:34:48.892:1,0.025,-0.09
01:34:48.896:1,0.03,-0.075
01:34:48.900:1,0.035,-0.07
01:34:48.904:1,0.05,-0.055
01:34:48.908:1,0.08,-0.035
01:34:48.912:1,0.08,-0.02
01:34:48.916:1,0.085,-0.035
01:34:48.920:1,0.115,-0.06
01:34:48.924:1,0.11,-0.08
01:34:48.928:1,0.115,-0.105
01:34:48.932:1,0.12,-0.13
01:34:48.936:1,0.11,-0.155
01:34:48.940:1,0.09,-0.17
01:34:48.944:1,0.09,-0.185
01:34:48.948:1,0.085,-0.215
01:34:48.952:1,0.1,-0.225
01:34:48.956:1,0.07,-0.215
01:34:48.960:1,0.075,-0.225
01:34:48.964:1,0.07,-0.23
01:34:48.968:1,0.075,-0.24
01:34:48.972:1,0.075,-0.235
01:34:48.976:1,0.075,-0.25
01:34:48.980:1,0.095,-0.255
01:34:48.984:1,0.09,-0.24
01:34:48.988:1,0.09,-0.205
01:34:48.992:1,0.105,-0.19
01:34:48.996:1,0.065,-0.175
01:34:49.000:1,0.055,-0.19
01:34:49.004:1,0.055,-0.185
01:34:49.008:1,0.07,-0.165
01:34:49.012:1,0.06,-0.15
01:34:49.016:1,0.045,-0.16
01:34:49.020:1,0.05,-0.17
01:34:49.024:1,0.055,-0.185
01:34:49.028:1,0.025,-0.175
01:34:49.032:1,0.035,-0.175
01:34:49.036:1,0.005,-0.18
01:34:49.040:1,0.0,-0.185
01:34:49.044:1,0.02,-0.2
01:34:49.048:1,0.005,-0.21
01:34:49.052:1,0.005,-0.21
01:34:49.056:1,0.015,-0.205
01:34:49.060:1,0.02,-0.22
01:34:49.064:1,0.03,-0.205
01:34:49.068:1,0.015,-0.2
01:34:49.072:1,0.015,-0.21
01:34:49.076:1,0.03,-0.195
01:34:49.080:1,0.03,-0.2
01:34:49.084:1,0.03,-0.235
01:34:49.088:1,0.04,-0.235
01:34:49.092:1,0.025,-0.235
01:34:49.096:1,0.025,-0.24
01:34:49.100:1,0.045,-0.27
01:34:49.104:1,0.065,-0.285
01:34:49.108:1,0.065,-0.295
01:34:49.112:1,0.075,-0.32
01:34:49.116:1,0.065,-0.305
01:34:49.120:1,0.055,-0.315
01:34:49.124:1,0.04,-0.32
01:34:49.128:1,0.045,-0.325
01:34:49.132:1,0.045,-0.335
01:34:49.136:1,0.035,-0.33
01:34:49.140:1,0.03,-0.31
01:34:49.144:1,0.04,-0.265
01:34:49.148:1,0.04,-0.25
01:34:49.152:1,0.025,-0.235
01:34:49.156:1,0.05,-0.255
01:34:49.160:1,0.035,-0.255
01:34:49.164:1,0.03,-0.16
01:34:49.168:1,0.06,0.025
01:34:49.172:1,0.095,0.3
01:34:49.176:1,0.115,0.575
01:34:49.180:1,0.19,0.765
01:34:49.184:1,0.29,0.785
01:34:49.188:1,0.39,0.69
01:34:49.192:1,0.385,0.365
01:34:49.196:1,0.3,-0.21
01:34:49.200:1,0.175,-0.65
01:34:49.204:1,-0.025,-0.865
01:34:49.208:1,-0.205,-0.845
01:34:49.212:1,-0.34,-0.75
01:34:49.216:1,-0.365,-0.61
01:34:49.220:1,-0.36,-0.48
01:34:49.224:1,-0.32,-0.37
01:34:49.228:1,-0.225,-0.28
01:34:49.232:1,-0.1,-0.285
01:34:49.236:1,-0.03,-0.3
01:34:49.240:1,-0.01,-0.315
01:34:49.244:1,0.0,-0.3
01:34:49.248:1,-0.01,-0.3
01:34:49.252:1,-0.005,-0.28
01:34:49.256:1,-0.01,-0.295
01:34:49.260:1,0.0,-0.3
01:34:49.264:1,0.0,-0.29
01:34:49.268:1,0.005,-0.295
01:34:49.272:1,0.005,-0.3
01:34:49.276:1,0.025,-0.32
01:34:49.280:1,0.04,-0.34
01:34:49.284:1,0.025,-0.32
01:34:49.288:1,0.03,-0.345
01:34:49.292:1,0.04,-0.37
01:34:49.296:1,0.02,-0.41
01:34:49.300:1,0.02,-0.425
01:34:49.304:1,0.025,-0.38
01:34:49.308:1,0.025,-0.32
01:34:49.312:1,0.03,-0.295
01:34:49.316:1,0.035,-0.32
01:34:49.320:1,0.015,-0.305
01:34:49.324:1,0.01,-0.295
01:34:49.328:1,0.0,-0.28
01:34:49.332:1,0.0,-0.285
01:34:49.336:1,-0.005,-0.285
01:34:49.340:1,-0.005,-0.3
01:34:49.344:1,-0.02,-0.305
01:34:49.348:1,-0.015,-0.3
01:34:49.352:1,-0.025,-0.295
01:34:49.356:1,-0.03,-0.315
01:34:49.360:1,-0.025,-0.32
01:34:49.364:1,-0.015,-0.305
01:34:49.368:1,-0.025,-0.31
01:34:49.372:1,-0.01,-0.31
01:34:49.376:1,0.0,-0.315
01:34:49.380:1,-0.01,-0.31
01:34:49.384:1,-0.015,-0.305
01:34:49.388:1,-0.005,-0.29
01:34:49.392:1,0.0,-0.295
01:34:49.396:1,0.01,-0.315
01:34:49.400:1,0.0,-0.3
01:34:49.404:1,0.01,-0.29
01:34:49.408:1,0.02,-0.28
01:34:49.412:1,0.035,-0.255
01:34:49.416:1,0.03,-0.245
01:34:49.420:1,0.04,-0.225
01:34:49.424:1,0.05,-0.205
01:34:49.428:1,0.065,-0.195
01:34:49.432:1,0.065,-0.17
01:34:49.436:1,0.075,-0.16
01:34:49.440:1,0.08,-0.155
01:34:49.444:1,0.085,-0.15
01:34:49.448:1,0.095,-0.155
01:34:49.452:1,0.105,-0.155
01:34:49.456:1,0.1,-0.155
01:34:49.460:1,0.1,-0.15
01:34:49.464:1,0.105,-0.17
01:34:49.468:1,0.13,-0.18
01:34:49.472:1,0.11,-0.19
01:34:49.476:1,0.135,-0.205
01:34:49.480:1,0.145,-0.205
01:34:49.484:1,0.145,-0.155
01:34:49.488:1,0.14,-0.12
01:34:49.492:1,0.125,-0.125
01:34:49.496:1,0.115,-0.115
01:34:49.500:1,0.115,-0.12
01:34:49.504:1,0.09,-0.145
01:34:49.508:1,0.095,-0.125
01:34:49.512:1,0.07,-0.145
01:34:49.516:1,0.04,-0.165
01:34:49.520:1,0.025,-0.17
01:34:49.524:1,0.03,-0.17
01:34:49.528:1,0.015,-0.18
01:34:49.532:1,0.025,-0.175
01:34:49.536:1,0.02,-0.18
01:34:49.540:1,0.025,-0.185
01:34:49.544:1,0.0,-0.2
01:34:49.548:1,0.015,-0.2
01:34:49.552:1,0.025,-0.19
01:34:49.556:1,0.01,-0.18
01:34:49.560:1,0.02,-0.205
01:34:49.564:1,0.025,-0.215
01:34:49.568:1,0.005,-0.2
01:34:49.572:1,0.025,-0.235
01:34:49.576:1,0.0,-0.245
01:34:49.580:1,0.02,-0.245
01:34:49.584:1,0.01,-0.235
01:34:49.588:1,0.03,-0.225
01:34:49.592:1,0.035,-0.225
01:34:49.596:1,0.025,-0.22
01:34:49.600:1,0.03,-0.24
01:34:49.604:1,0.035,-0.245
01:34:49.608:1,0.035,-0.235
01:34:49.612:1,0.035,-0.24
01:34:49.616:1,0.045,-0.265
01:34:49.620:1,0.045,-0.245
01:34:49.624:1,0.06,-0.255
01:34:49.628:1,0.065,-0.27
01:34:49.632:1,0.045,-0.27
01:34:49.636:1,0.075,-0.28
01:34:49.640:1,0.055,-0.285
01:34:49.644:1,0.05,-0.28
01:34:49.648:1,0.05,-0.295
01:34:49.652:1,0.035,-0.285
01:34:49.656:1,0.025,-0.3
01:34:49.660:1,0.05,-0.29
01:34:49.664:1,0.045,-0.295
01:34:49.668:1,0.035,-0.28
01:34:49.672:1,0.04,-0.28
01:34:49.676:1,0.045,-0.29
01:34:49.680:1,0.045,-0.285
01:34:49.684:1,0.05,-0.275
01:34:49.688:1,0.02,-0.285
01:34:49.692:1,0.04,-0.275
01:34:49.696:1,0.045,-0.3
01:34:49.700:1,0.055,-0.29
01:34:49.704:1,0.035,-0.285
01:34:49.708:1,0.05,-0.285
01:34:49.712:1,0.045,-0.29
01:34:49.716:1,0.02,-0.29
01:34:49.720:1,0.025,-0.28
01:34:49.724:1,0.02,-0.28
01:34:49.728:1,0.045,-0.28
01:34:49.732:1,0.025,-0.285
01:34:49.736:1,0.02,-0.315
01:34:49.740:1,0.045,-0.315
01:34:49.744:1,0.03,-0.305
01:34:49.748:1,0.03,-0.315
01:34:49.752:1,0.035,-0.34
01:34:49.756:1,0.04,-0.335
01:34:49.760:1,0.04,-0.325
01:34:49.764:1,0.035,-0.32
01:34:49.768:1,0.045,-0.32
01:34:49.772:1,0.035,-0.305
01:34:49.776:1,0.035,-0.305
01:34:49.780:1,0.03,-0.27
01:34:49.784:1,0.03,-0.28
01:34:49.788:1,0.06,-0.285
01:34:49.792:1,0.065,-0.33
01:34:49.796:1,0.065,-0.32
01:34:49.800:1,0.065,-0.29
01:34:49.804:1,0.065,-0.255
01:34:49.808:1,0.065,-0.24
01:34:49.812:1,0.05,-0.225
01:34:49.816:1,0.02,-0.235
01:34:49.820:1,0.03,-0.24
01:34:49.824:1,0.01,-0.23
01:34:49.828:1,0.01,-0.23
01:34:49.832:1,0.01,-0.235
01:34:49.836:1,0.02,-0.24
01:34:49.840:1,0.01,-0.22
01:34:49.844:1,0.015,-0.23
01:34:49.848:1,0.02,-0.225
01:34:49.852:1,0.0,-0.23
01:34:49.856:1,0.005,-0.235
01:34:49.860:1,0.02,-0.225
01:34:49.864:1,0.005,-0.215
01:34:49.868:1,0.0,-0.21
01:34:49.872:1,0.01,-0.23
01:34:49.876:1,0.015,-0.22
01:34:49.880:1,0.0,-0.245
01:34:49.884:1,0.015,-0.25
01:34:49.888:1,0.005,-0.215
01:34:49.892:1,0.03,-0.05
01:34:49.896:1,0.05,0.145
01:34:49.900:1,0.065,0.405
01:34:49.904:1,0.115,0.61
01:34:49.908:1,0.19,0.67
01:34:49.912:1,0.295,0.63
01:34:49.916:1,0.33,0.455
01:34:49.920:1,0.275,0.0
01:34:49.924:1,0.205,-0.525
01:34:49.928:1,0.045,-0.78
01:34:49.932:1,-0.19,-0.845
01:34:49.936:1,-0.375,-0.75
01:34:49.940:1,-0.455,-0.66
01:34:49.944:1,-0.4,-0.515
01:34:49.948:1,-0.345,-0.41
01:34:49.952:1,-0.285,-0.33
01:34:49.956:1,-0.18,-0.29
01:34:49.960:1,-0.085,-0.28
01:34:49.964:1,-0.03,-0.28
01:34:49.968:1,-0.015,-0.305
01:34:49.972:1,0.005,-0.32
01:34:49.976:1,0.015,-0.33
01:34:49.980:1,0.0,-0.33
01:34:49.984:1,0.015,-0.34
01:34:49.988:1,0.0,-0.345
01:34:49.992:1,-0.01,-0.345
01:34:49.996:1,-0.02,-0.34
01:34:50.000:1,-0.03,-0.35
01:34:50.004:1,-0.02,-0.36
01:34:50.008:1,-0.005,-0.385
01:34:50.012:1,-0.035,-0.375
01:34:50.016:1,-0.04,-0.37
01:34:50.020:1,-0.045,-0.345
01:34:50.024:1,-0.03,-0.335
01:34:50.028:1,-0.03,-0.335
01:34:50.032:1,-0.01,-0.315
01:34:50.036:1,-0.005,-0.31
01:34:50.040:1,0.015,-0.28
01:34:50.044:1,0.0,-0.29
01:34:50.048:1,-0.03,-0.285
01:34:50.052:1,-0.015,-0.285
01:34:50.056:1,-0.015,-0.27
01:34:50.060:1,-0.02,-0.24
01:34:50.064:1,-0.025,-0.25
01:34:50.068:1,0.005,-0.26
01:34:50.072:1,-0.005,-0.28
01:34:50.076:1,-0.015,-0.255
01:34:50.080:1,-0.015,-0.27
01:34:50.084:1,-0.01,-0.245
01:34:50.088:1,0.0,-0.245
01:34:50.092:1,-0.025,-0.265
01:34:50.096:1,0.0,-0.265
01:34:50.100:1,-0.01,-0.265
01:34:50.104:1,-0.01,-0.25
01:34:50.108:1,-0.01,-0.265
01:34:50.112:1,-0.005,-0.27
01:34:50.116:1,-0.025,-0.25
01:34:50.120:1,0.0,-0.245
01:34:50.124:1,-0.005,-0.24
01:34:50.128:1,0.01,-0.24
01:34:50.132:1,0.0,-0.26
01:34:50.136:1,0.005,-0.25
01:34:50.140:1,0.02,-0.24
01:34:50.144:1,0.005,-0.215
01:34:50.148:1,0.015,-0.23
01:34:50.152:1,0.03,-0.205
01:34:50.156:1,0.025,-0.195
01:34:50.160:1,0.015,-0.18
01:34:50.164:1,0.035,-0.17
01:34:50.168:1,0.025,-0.145
01:34:50.172:1,0.045,-0.135
01:34:50.176:1,0.07,-0.105
01:34:50.180:1,0.065,-0.09
01:34:50.184:1,0.06,-0.055
01:34:50.188:1,0.09,-0.08
01:34:50.192:1,0.105,-0.1
01:34:50.196:1,0.105,-0.13
01:34:50.200:1,0.105,-0.17
01:34:50.204:1,0.115,-0.205
01:34:50.208:1,0.1,-0.22
01:34:50.212:1,0.105,-0.2
01:34:50.216:1,0.115,-0.14
01:34:50.220:1,0.13,-0.115
01:34:50.224:1,0.125,-0.105
01:34:50.228:1,0.1,-0.125
01:34:50.232:1,0.065,-0.12
01:34:50.236:1,0.06,-0.13
01:34:50.240:1,0.025,-0.15
01:34:50.244:1,0.025,-0.155
01:34:50.248:1,0.0,-0.15
01:34:50.252:1,-0.015,-0.17
01:34:50.256:1,0.005,-0.17
01:34:50.260:1,0.01,-0.15
01:34:50.264:1,0.0,-0.16
01:34:50.268:1,0.0,-0.165
01:34:50.272:1,0.0,-0.16
01:34:50.276:1,-0.025,-0.175
01:34:50.280:1,0.0,-0.16
01:34:50.284:1,0.0,-0.17
01:34:50.288:1,-0.005,-0.18
01:34:50.292:1,-0.015,-0.185
01:34:50.296:1,-0.025,-0.195
01:34:50.300:1,-0.01,-0.185
01:34:50.304:1,-0.005,-0.19
01:34:50.308:1,-0.005,-0.2
01:34:50.312:1,0.0,-0.205
01:34:50.316:1,0.01,-0.19
01:34:50.320:1,-0.01,-0.175
01:34:50.324:1,-0.005,-0.17
01:34:50.328:1,0.0,-0.21
01:34:50.332:1,0.005,-0.21
01:34:50.336:1,0.02,-0.24
01:34:50.340:1,0.005,-0.26
01:34:50.344:1,-0.005,-0.16
01:34:50.348:1,0.015,-0.015
01:34:50.352:1,0.065,0.185
01:34:50.356:1,0.105,0.405
01:34:50.360:1,0.15,0.585
01:34:50.364:1,0.235,0.54
01:34:50.368:1,0.325,0.37
01:34:50.372:1,0.375,0.07
01:34:50.376:1,0.38,-0.425
01:34:50.380:1,0.31,-0.8
01:34:50.384:1,0.165,-0.865
01:34:50.388:1,-0.04,-0.745
01:34:50.392:1,-0.195,-0.635
01:34:50.396:1,-0.25,-0.565
01:34:50.400:1,-0.22,-0.45
01:34:50.404:1,-0.2,-0.33
01:34:50.408:1,-0.16,-0.245
01:34:50.412:1,-0.095,-0.185
01:34:50.416:1,-0.01,-0.195
01:34:50.420:1,0.03,-0.235
01:34:50.424:1,0.025,-0.23
01:34:50.428:1,0.025,-0.245
01:34:50.432:1,0.025,-0.24
01:34:50.436:1,0.005,-0.24
01:34:50.440:1,0.0,-0.235
01:34:50.444:1,-0.035,-0.26
01:34:50.448:1,-0.02,-0.255
01:34:50.452:1,-0.02,-0.27
01:34:50.456:1,-0.05,-0.275
01:34:50.460:1,-0.04,-0.285
01:34:50.464:1,-0.02,-0.285
01:34:50.468:1,-0.05,-0.3
01:34:50.472:1,-0.04,-0.28
01:34:50.476:1,-0.02,-0.29
01:34:50.480:1,-0.02,-0.295
01:34:50.484:1,-0.04,-0.305
01:34:50.488:1,-0.03,-0.305
01:34:50.492:1,-0.05,-0.305
01:34:50.496:1,-0.055,-0.29
01:34:50.500:1,-0.035,-0.3
01:34:50.504:1,-0.04,-0.315
01:34:50.508:1,-0.05,-0.32
01:34:50.512:1,-0.02,-0.32
01:34:50.516:1,-0.03,-0.315
01:34:50.520:1,-0.03,-0.275
01:34:50.524:1,-0.03,-0.255
01:34:50.528:1,-0.015,-0.255
01:34:50.532:1,-0.01,-0.26
01:34:50.536:1,-0.005,-0.235
01:34:50.540:1,0.0,-0.225
01:34:50.544:1,0.015,-0.16
01:34:50.548:1,0.025,-0.125
01:34:50.552:1,0.055,-0.13
01:34:50.556:1,0.06,-0.125
01:34:50.560:1,0.05,-0.12
01:34:50.564:1,0.03,-0.125
01:34:50.568:1,0.01,-0.145
01:34:50.572:1,0.025,-0.145
01:34:50.576:1,-0.005,-0.14
01:34:50.580:1,-0.015,-0.13
01:34:50.584:1,-0.015,-0.11
01:34:50.588:1,-0.015,-0.13
01:34:50.592:1,0.0,-0.125
01:34:50.596:1,-0.015,-0.12
01:34:50.600:1,-0.005,-0.125
01:34:50.604:1,-0.025,-0.125
01:34:50.608:1,-0.025,-0.115
01:34:50.612:1,-0.03,-0.105
01:34:50.616:1,-0.035,-0.105
01:34:50.620:1,-0.005,-0.125
01:34:50.624:1,-0.015,-0.145
01:34:50.628:1,-0.005,-0.15
01:34:50.632:1,-0.01,-0.13
01:34:50.636:1,-0.005,-0.15
01:34:50.640:1,0.0,-0.165
01:34:50.644:1,0.005,-0.205
01:34:50.648:1,0.005,-0.215
01:34:50.652:1,-0.01,-0.26
01:34:50.656:1,0.0,-0.245
01:34:50.660:1,0.0,-0.255
01:34:50.664:1,0.0,-0.235
01:34:50.668:1,0.005,-0.24
01:34:50.672:1,0.0,-0.2
01:34:50.676:1,0.0,-0.215
01:34:50.680:1,0.0,-0.22
01:34:50.684:1,0.01,-0.255
01:34:50.688:1,-0.005,-0.25
01:34:50.692:1,0.0,-0.255
01:34:50.696:1,0.03,-0.215
01:34:50.700:1,0.025,-0.21
01:34:50.704:1,0.055,-0.175
01:34:50.708:1,0.06,-0.145
01:34:50.712:1,0.085,-0.1
01:34:50.716:1,0.1,-0.09
01:34:50.720:1,0.105,-0.08
01:34:50.724:1,0.08,-0.105
01:34:50.728:1,0.045,-0.1
01:34:50.732:1,0.045,-0.115
01:34:50.736:1,0.035,-0.1
01:34:50.740:1,0.04,-0.11
01:34:50.744:1,0.01,-0.11
01:34:50.748:1,0.015,-0.13
01:34:50.752:1,0.02,-0.13
01:34:50.756:1,0.03,-0.125
01:34:50.760:1,0.015,-0.14
01:34:50.764:1,0.005,-0.155
01:34:50.768:1,0.005,-0.14
01:34:50.772:1,0.01,-0.14
01:34:50.776:1,0.015,-0.13
01:34:50.780:1,0.035,-0.1
01:34:50.784:1,0.03,-0.005
01:34:50.788:1,0.05,0.17
01:34:50.792:1,0.09,0.395
01:34:50.796:1,0.105,0.63
01:34:50.800:1,0.155,0.79
01:34:50.804:1,0.245,0.77
01:34:50.808:1,0.31,0.635
01:34:50.812:1,0.38,0.275
01:34:50.816:1,0.375,-0.26
01:34:50.820:1,0.295,-0.71
01:34:50.824:1,0.14,-0.915
01:34:50.828:1,-0.045,-0.89
01:34:50.832:1,-0.25,-0.8
01:34:50.836:1,-0.315,-0.695
01:34:50.840:1,-0.325,-0.6
01:34:50.844:1,-0.295,-0.495
01:34:50.848:1,-0.24,-0.37
01:34:50.852:1,-0.15,-0.31
01:34:50.856:1,-0.065,-0.285
01:34:50.860:1,-0.035,-0.27
01:34:50.864:1,0.0,-0.25
01:34:50.868:1,0.0,-0.23
01:34:50.872:1,0.0,-0.215
01:34:50.876:1,0.0,-0.22
01:34:50.880:1,-0.01,-0.22
01:34:50.884:1,0.005,-0.205
01:34:50.888:1,-0.015,-0.215
01:34:50.892:1,0.005,-0.23
01:34:50.896:1,0.015,-0.25
01:34:50.900:1,0.005,-0.25
01:34:50.904:1,-0.005,-0.255
01:34:50.908:1,-0.005,-0.255
01:34:50.912:1,0.005,-0.27
01:34:50.916:1,-0.015,-0.255
01:34:50.920:1,-0.03,-0.26
01:34:50.924:1,-0.02,-0.28
01:34:50.928:1,-0.025,-0.26
01:34:50.932:1,-0.04,-0.28
01:34:50.936:1,-0.035,-0.285
01:34:50.940:1,-0.03,-0.295
01:34:50.944:1,-0.045,-0.29
01:34:50.948:1,-0.03,-0.3
01:34:50.952:1,-0.035,-0.285
01:34:50.956:1,-0.02,-0.28
01:34:50.960:1,-0.025,-0.285
01:34:50.964:1,-0.03,-0.31
01:34:50.968:1,-0.02,-0.315
01:34:50.972:1,-0.035,-0.3
01:34:50.976:1,-0.055,-0.31
01:34:50.980:1,-0.04,-0.305
01:34:50.984:1,-0.04,-0.31
01:34:50.988:1,-0.03,-0.32
01:34:50.992:1,-0.03,-0.33
01:34:50.996:1,-0.025,-0.32
01:34:51.000:1,-0.03,-0.32
01:34:51.004:1,-0.025,-0.32
01:34:51.008:1,-0.025,-0.33
01:34:51.012:1,-0.02,-0.32
01:34:51.016:1,-0.02,-0.32
01:34:51.020:1,0.0,-0.305
01:34:51.024:1,-0.005,-0.28
01:34:51.028:1,-0.005,-0.24
01:34:51.032:1,-0.005,-0.2
01:34:51.036:1,0.0,-0.17
01:34:51.040:1,-0.01,-0.15
01:34:51.044:1,-0.015,-0.12
01:34:51.048:1,-0.01,-0.095
01:34:51.052:1,0.0,-0.065
01:34:51.056:1,-0.005,-0.05
01:34:51.060:1,-0.005,-0.045
01:34:51.064:1,-0.005,-0.04
01:34:51.068:1,0.005,-0.045
01:34:51.072:1,-0.005,-0.055
01:34:51.076:1,0.005,-0.06
01:34:51.080:1,-0.005,-0.1
01:34:51.084:1,-0.005,-0.12
01:34:51.088:1,0.0,-0.155
01:34:51.092:1,0.0,-0.165
01:34:51.096:1,-0.005,-0.17
01:34:51.100:1,0.005,-0.195
01:34:51.104:1,0.03,-0.22
01:34:51.108:1,0.005,-0.21
01:34:51.112:1,-0.015,-0.22
01:34:51.116:1,-0.005,-0.24
01:34:51.120:1,0.015,-0.245
01:34:51.124:1,0.005,-0.245
01:34:51.128:1,-0.005,-0.255
01:34:51.132:1,0.0,-0.26
01:34:51.136:1,-0.005,-0.24
01:34:51.140:1,0.0,-0.24
01:34:51.144:1,0.005,-0.245
01:34:51.148:1,0.01,-0.25
01:34:51.152:1,0.01,-0.255
01:34:51.156:1,0.015,-0.25
01:34:51.160:1,0.005,-0.245
01:34:51.164:1,0.01,-0.24
01:34:51.168:1,0.0,-0.24
01:34:51.172:1,0.015,-0.255
01:34:51.176:1,0.04,-0.245
01:34:51.180:1,0.04,-0.25
01:34:51.184:1,0.025,-0.26
01:34:51.188:1,0.035,-0.26
01:34:51.192:1,0.04,-0.15
01:34:51.196:1,0.07,0.015
01:34:51.200:1,0.105,0.245
01:34:51.204:1,0.155,0.52
01:34:51.208:1,0.195,0.785
01:34:51.212:1,0.28,0.935
01:34:51.216:1,0.365,0.86
01:34:51.220:1,0.44,0.605
01:34:51.224:1,0.435,0.115
01:34:51.228:1,0.31,-0.425
01:34:51.232:1,0.135,-0.72
01:34:51.236:1,-0.045,-0.755
01:34:51.240:1,-0.18,-0.7
01:34:51.244:1,-0.275,-0.605
01:34:51.248:1,-0.295,-0.485
01:34:51.252:1,-0.27,-0.355
01:34:51.256:1,-0.205,-0.25
01:34:51.260:1,-0.12,-0.235
01:34:51.264:1,-0.04,-0.27
01:34:51.268:1,-0.015,-0.27
01:34:51.272:1,0.015,-0.275
01:34:51.276:1,-0.005,-0.305
01:34:51.280:1,0.0,-0.32
01:34:51.284:1,-0.01,-0.335
01:34:51.288:1,-0.02,-0.345
01:34:51.292:1,-0.01,-0.35
01:34:51.296:1,-0.015,-0.36
01:34:51.300:1,-0.04,-0.36
01:34:51.304:1,-0.03,-0.375
01:34:51.308:1,-0.025,-0.37
01:34:51.312:1,-0.035,-0.365
01:34:51.316:1,-0.03,-0.365
01:34:51.320:1,-0.02,-0.38
01:34:51.324:1,-0.04,-0.385
01:34:51.328:1,-0.03,-0.37
01:34:51.332:1,0.0,-0.38
01:34:51.336:1,-0.02,-0.375
01:34:51.340:1,-0.005,-0.37
01:34:51.344:1,-0.02,-0.385
01:34:51.348:1,-0.015,-0.375
01:34:51.352:1,-0.02,-0.35
01:34:51.356:1,-0.005,-0.365
01:34:51.360:1,0.02,-0.355
01:34:51.364:1,0.03,-0.33
01:34:51.368:1,0.02,-0.265
01:34:51.372:1,0.04,-0.205
01:34:51.376:1,0.035,-0.2
01:34:51.380:1,0.025,-0.19
01:34:51.384:1,0.02,-0.215
01:34:51.388:1,0.025,-0.215
01:34:51.392:1,0.005,-0.2
01:34:51.396:1,0.005,-0.18
01:34:51.400:1,0.01,-0.175
01:34:51.404:1,0.005,-0.165
01:34:51.408:1,0.005,-0.175
01:34:51.412:1,0.005,-0.175
01:34:51.416:1,0.025,-0.21
01:34:51.420:1,0.02,-0.205
01:34:51.424:1,0.015,-0.225
01:34:51.428:1,0.015,-0.22
01:34:51.432:1,0.01,-0.2
01:34:51.436:1,0.02,-0.205
01:34:51.440:1,0.0,-0.215
01:34:51.444:1,0.0,-0.195
01:34:51.448:1,-0.025,-0.185
01:34:51.452:1,0.005,-0.17
01:34:51.456:1,0.03,-0.155
01:34:51.460:1,0.01,-0.145
01:34:51.464:1,0.01,-0.145
01:34:51.468:1,0.02,-0.145
01:34:51.472:1,0.02,-0.145
01:34:51.476:1,0.015,-0.145
01:34:51.480:1,0.025,-0.165
01:34:51.484:1,0.035,-0.175
01:34:51.488:1,0.035,-0.17
01:34:51.492:1,0.045,-0.19
01:34:51.496:1,0.055,-0.19
01:34:51.500:1,0.045,-0.21
01:34:51.504:1,0.035,-0.23
01:34:51.508:1,0.03,-0.22
01:34:51.512:1,0.04,-0.24
01:34:51.516:1,0.05,-0.24
01:34:51.520:1,0.055,-0.255
01:34:51.524:1,0.055,-0.275
01:34:51.528:1,0.05,-0.275
01:34:51.532:1,0.055,-0.27
01:34:51.536:1,0.05,-0.27
01:34:51.540:1,0.065,-0.25
01:34:51.544:1,0.085,-0.21
01:34:51.548:1,0.09,-0.18
01:34:51.552:1,0.085,-0.16
01:34:51.556:1,0.09,-0.14
01:34:51.560:1,0.08,-0.125
01:34:51.564:1,0.06,-0.11
01:34:51.568:1,0.065,-0.1
01:34:51.572:1,0.075,-0.065
01:34:51.576:1,0.055,-0.1
01:34:51.580:1,0.065,-0.12
01:34:51.584:1,0.045,-0.125
01:34:51.588:1,0.04,-0.135
01:34:51.592:1,0.045,-0.145
01:34:51.596:1,0.045,-0.16
01:34:51.600:1,0.035,-0.145
01:34:51.604:1,0.05,-0.175
01:34:51.608:1,0.045,-0.18
01:34:51.612:1,0.04,-0.155
01:34:51.616:1,0.04,-0.175
01:34:51.620:1,0.03,-0.2
01:34:51.624:1,0.035,-0.205
01:34:51.628:1,0.025,-0.215
01:34:51.632:1,0.02,-0.235
01:34:51.636:1,0.04,-0.245
01:34:51.640:1,0.045,-0.25
01:34:51.644:1,0.03,-0.26
01:34:51.648:1,0.03,-0.255
01:34:51.652:1,0.025,-0.26
01:34:51.656:1,0.02,-0.255
01:34:51.660:1,0.035,-0.26
01:34:51.664:1,0.04,-0.255
01:34:51.668:1,0.02,-0.265
01:34:51.672:1,0.01,-0.27
01:34:51.676:1,0.025,-0.31
01:34:51.680:1,0.025,-0.335
01:34:51.684:1,0.025,-0.315
01:34:51.688:1,0.045,-0.205
01:34:51.692:1,0.045,-0.01
01:34:51.696:1,0.08,0.225
01:34:51.700:1,0.115,0.445
01:34:51.704:1,0.195,0.555
01:34:51.708:1,0.295,0.595
01:34:51.712:1,0.375,0.54
01:34:51.716:1,0.39,0.245
01:34:51.720:1,0.29,-0.255
01:34:51.724:1,0.145,-0.625
01:34:51.728:1,-0.06,-0.775
01:34:51.732:1,-0.245,-0.74
01:34:51.736:1,-0.35,-0.645
01:34:51.740:1,-0.355,-0.535
01:34:51.744:1,-0.315,-0.41
01:34:51.748:1,-0.27,-0.27
01:34:51.752:1,-0.175,-0.23
01:34:51.756:1,-0.085,-0.21
01:34:51.760:1,-0.035,-0.24
01:34:51.764:1,-0.01,-0.25
01:34:51.768:1,0.01,-0.275
01:34:51.772:1,0.015,-0.265
01:34:51.776:1,0.025,-0.26
01:34:51.780:1,0.015,-0.29
01:34:51.784:1,0.015,-0.295
01:34:51.788:1,0.0,-0.285
01:34:51.792:1,0.0,-0.295
01:34:51.796:1,0.0,-0.295
01:34:51.800:1,0.0,-0.315
01:34:51.804:1,-0.01,-0.32
01:34:51.808:1,-0.015,-0.325
01:34:51.812:1,0.01,-0.305
01:34:51.816:1,0.0,-0.305
01:34:51.820:1,0.0,-0.32
01:34:51.824:1,0.0,-0.32
01:34:51.828:1,0.015,-0.33
01:34:51.832:1,-0.01,-0.34
01:34:51.836:1,0.0,-0.34
01:34:51.840:1,0.005,-0.34
01:34:51.844:1,0.0,-0.335
01:34:51.848:1,0.0,-0.34
01:34:51.852:1,0.0,-0.355
01:34:51.856:1,-0.01,-0.355
01:34:51.860:1,0.015,-0.365
01:34:51.864:1,0.005,-0.37
01:34:51.868:1,0.0,-0.37
01:34:51.872:1,0.015,-0.365
01:34:51.876:1,0.02,-0.37
01:34:51.880:1,0.02,-0.325
01:34:51.884:1,0.01,-0.29
01:34:51.888:1,0.02,-0.275
01:34:51.892:1,0.015,-0.27
01:34:51.896:1,0.0,-0.235
01:34:51.900:1,-0.01,-0.26
01:34:51.904:1,0.0,-0.25
01:34:51.908:1,0.005,-0.24
01:34:51.912:1,0.0,-0.23
01:34:51.916:1,0.0,-0.245
01:34:51.920:1,-0.02,-0.22
01:34:51.924:1,-0.04,-0.19
01:34:51.928:1,-0.02,-0.155
01:34:51.932:1,-0.02,-0.125
01:34:51.936:1,0.005,-0.11
01:34:51.940:1,0.01,-0.125
01:34:51.944:1,0.045,-0.145
01:34:51.948:1,0.02,-0.145
01:34:51.952:1,0.025,-0.1
01:34:51.956:1,0.005,-0.115
01:34:51.960:1,0.03,-0.115
01:34:51.964:1,0.035,-0.12
01:34:51.968:1,0.035,-0.095
01:34:51.972:1,0.07,-0.11
01:34:51.976:1,0.065,-0.105
01:34:51.980:1,0.05,-0.105
01:34:51.984:1,0.06,-0.135
01:34:51.988:1,0.05,-0.125
01:34:51.992:1,0.05,-0.135
01:34:51.996:1,0.055,-0.16
01:34:52.000:1,0.055,-0.185
01:34:52.004:1,0.055,-0.185
01:34:52.008:1,0.06,-0.215
01:34:52.012:1,0.045,-0.22
01:34:52.016:1,0.05,-0.225
01:34:52.020:1,0.05,-0.255
01:34:52.024:1,0.04,-0.275
01:34:52.028:1,0.035,-0.28
01:34:52.032:1,0.05,-0.255
01:34:52.036:1,0.045,-0.22
01:34:52.040:1,0.05,-0.18
01:34:52.044:1,0.06,-0.18
01:34:52.048:1,0.05,-0.15
01:34:52.052:1,0.04,-0.145
01:34:52.056:1,0.035,-0.145
01:34:52.060:1,0.035,-0.14
01:34:52.064:1,0.02,-0.155
01:34:52.068:1,0.02,-0.15
01:34:52.072:1,0.015,-0.15
01:34:52.076:1,0.01,-0.15
01:34:52.080:1,0.01,-0.155
01:34:52.084:1,0.005,-0.15
01:34:52.088:1,0.005,-0.155
01:34:52.092:1,0.0,-0.17
01:34:52.096:1,0.0,-0.15
01:34:52.100:1,0.0,-0.155
01:34:52.104:1,-0.01,-0.14
01:34:52.108:1,0.015,-0.16
01:34:52.112:1,0.055,-0.17
01:34:52.116:1,0.04,-0.215
01:34:52.120:1,0.03,-0.255
01:34:52.124:1,0.04,-0.19
01:34:52.128:1,0.05,-0.045
01:34:52.132:1,0.075,0.18
01:34:52.136:1,0.115,0.43
01:34:52.140:1,0.17,0.685
01:34:52.144:1,0.235,0.815
01:34:52.148:1,0.33,0.775
01:34:52.152:1,0.39,0.53
01:34:52.156:1,0.375,0.02
01:34:52.160:1,0.25,-0.535
01:34:52.164:1,0.08,-0.875
01:34:52.168:1,-0.1,-0.945
01:34:52.172:1,-0.285,-0.845
01:34:52.176:1,-0.36,-0.74
01:34:52.180:1,-0.345,-0.615
01:34:52.184:1,-0.345,-0.49
01:34:52.188:1,-0.24,-0.41
01:34:52.192:1,-0.14,-0.405
01:34:52.196:1,-0.055,-0.395
01:34:52.200:1,-0.03,-0.4
01:34:52.204:1,0.0,-0.36
01:34:52.208:1,0.04,-0.32
01:34:52.212:1,0.015,-0.305
01:34:52.216:1,-0.01,-0.3
01:34:52.220:1,-0.015,-0.295
01:34:52.224:1,-0.025,-0.29
01:34:52.228:1,-0.03,-0.275
01:34:52.232:1,-0.02,-0.29
01:34:52.236:1,-0.01,-0.305
01:34:52.240:1,-0.015,-0.31
01:34:52.244:1,-0.02,-0.31
01:34:52.248:1,-0.045,-0.3
01:34:52.252:1,-0.055,-0.28
01:34:52.256:1,-0.04,-0.305
01:34:52.260:1,-0.025,-0.315
01:34:52.264:1,-0.035,-0.305
01:34:52.268:1,-0.03,-0.295
01:34:52.272:1,-0.01,-0.3
01:34:52.276:1,-0.03,-0.3
01:34:52.280:1,-0.03,-0.295
01:34:52.284:1,-0.03,-0.3
01:34:52.288:1,-0.025,-0.31
01:34:52.292:1,-0.03,-0.295
01:34:52.296:1,-0.03,-0.3
01:34:52.300:1,-0.03,-0.285
01:34:52.304:1,0.0,-0.285
01:34:52.308:1,0.025,-0.29
01:34:52.312:1,0.03,-0.305
01:34:52.316:1,0.02,-0.32
01:34:52.320:1,0.005,-0.31
01:34:52.324:1,0.02,-0.335
01:34:52.328:1,0.025,-0.355
01:34:52.332:1,0.03,-0.365
01:34:52.336:1,0.035,-0.39
01:34:52.340:1,0.04,-0.395
01:34:52.344:1,0.04,-0.375
01:34:52.348:1,0.055,-0.385
01:34:52.352:1,0.045,-0.385
01:34:52.356:1,0.06,-0.345
01:34:52.360:1,0.04,-0.315
01:34:52.364:1,0.03,-0.29
01:34:52.368:1,0.04,-0.25
01:34:52.372:1,0.03,-0.21
01:34:52.376:1,0.0,-0.195
01:34:52.380:1,0.025,-0.185
01:34:52.384:1,0.015,-0.155
01:34:52.388:1,0.02,-0.14
01:34:52.392:1,0.0,-0.145
01:34:52.396:1,0.005,-0.115
01:34:52.400:1,0.01,-0.125
01:34:52.404:1,0.015,-0.12
01:34:52.408:1,-0.005,-0.115
01:34:52.412:1,0.015,-0.12
01:34:52.416:1,0.005,-0.135
01:34:52.420:1,0.03,-0.15
01:34:52.424:1,0.035,-0.165
01:34:52.428:1,0.05,-0.155
01:34:52.432:1,0.055,-0.18
01:34:52.436:1,0.05,-0.195
01:34:52.440:1,0.045,-0.185
01:34:52.444:1,0.035,-0.205
01:34:52.448:1,0.035,-0.21
01:34:52.452:1,0.035,-0.205
01:34:52.456:1,0.045,-0.21
01:34:52.460:1,0.065,-0.2
01:34:52.464:1,0.065,-0.21
01:34:52.468:1,0.05,-0.16
01:34:52.472:1,0.05,-0.195
01:34:52.476:1,0.075,-0.22
01:34:52.480:1,0.08,-0.22
01:34:52.484:1,0.06,-0.24
01:34:52.488:1,0.06,-0.25
01:34:52.492:1,0.06,-0.23
01:34:52.496:1,0.045,-0.22
01:34:52.500:1,0.045,-0.21
01:34:52.504:1,0.07,-0.22
01:34:52.508:1,0.07,-0.145
01:34:52.512:1,0.105,0.015
01:34:52.516:1,0.135,0.285
01:34:52.520:1,0.225,0.63
01:34:52.524:1,0.285,0.935
01:34:52.528:1,0.345,1.07
01:34:52.532:1,0.445,0.97
01:34:52.536:1,0.53,0.7
01:34:52.540:1,0.53,0.13
01:34:52.544:1,0.425,-0.48
01:34:52.548:1,0.23,-0.82
01:34:52.552:1,-0.02,-0.86
01:34:52.556:1,-0.235,-0.76
01:34:52.560:1,-0.355,-0.67
01:34:52.564:1,-0.355,-0.545
01:34:52.568:1,-0.325,-0.41
01:34:52.572:1,-0.265,-0.3
01:34:52.576:1,-0.17,-0.275
01:34:52.580:1,-0.08,-0.255
01:34:52.584:1,-0.02,-0.27
01:34:52.588:1,0.01,-0.285
01:34:52.592:1,-0.005,-0.305
01:34:52.596:1,0.01,-0.31
01:34:52.600:1,0.01,-0.34
01:34:52.604:1,-0.005,-0.34
01:34:52.608:1,-0.02,-0.32
01:34:52.612:1,0.0,-0.345
01:34:52.616:1,0.0,-0.345
01:34:52.620:1,0.0,-0.325
01:34:52.624:1,0.0,-0.335
01:34:52.628:1,0.0,-0.34
01:34:52.632:1,0.0,-0.33
01:34:52.636:1,-0.01,-0.335
01:34:52.640:1,0.0,-0.35
01:34:52.644:1,0.0,-0.36
01:34:52.648:1,0.0,-0.34
01:34:52.652:1,0.005,-0.345
01:34:52.656:1,0.0,-0.375
01:34:52.660:1,0.01,-0.375
01:34:52.664:1,0.005,-0.375
01:34:52.668:1,-0.005,-0.36
01:34:52.672:1,-0.01,-0.38
01:34:52.676:1,-0.005,-0.37
01:34:52.680:1,0.01,-0.38
01:34:52.684:1,0.0,-0.335
01:34:52.688:1,0.025,-0.3
01:34:52.692:1,0.035,-0.265
01:34:52.696:1,0.075,-0.21
01:34:52.700:1,0.07,-0.205
01:34:52.704:1,0.07,-0.175
01:34:52.708:1,0.045,-0.125
01:34:52.712:1,0.06,-0.14
01:34:52.716:1,0.055,-0.15
01:34:52.720:1,0.045,-0.16
01:34:52.724:1,0.04,-0.18
01:34:52.728:1,0.03,-0.175
01:34:52.732:1,0.01,-0.18
01:34:52.736:1,0.02,-0.18
01:34:52.740:1,0.01,-0.18
01:34:52.744:1,0.025,-0.18
01:34:52.748:1,0.0,-0.195
01:34:52.752:1,0.025,-0.175
01:34:52.756:1,0.015,-0.17
01:34:52.760:1,0.025,-0.165
01:34:52.764:1,0.02,-0.135
01:34:52.768:1,0.005,-0.13
01:34:52.772:1,0.015,-0.135
01:34:52.776:1,0.045,-0.14
01:34:52.780:1,0.02,-0.135
01:34:52.784:1,0.02,-0.135
01:34:52.788:1,0.025,-0.155
01:34:52.792:1,0.015,-0.155
01:34:52.796:1,0.04,-0.18
01:34:52.800:1,0.03,-0.195
01:34:52.804:1,0.04,-0.2
01:34:52.808:1,0.04,-0.19
01:34:52.812:1,0.055,-0.23
01:34:52.816:1,0.04,-0.26
01:34:52.820:1,0.025,-0.245
01:34:52.824:1,0.04,-0.25
01:34:52.828:1,0.03,-0.25
01:34:52.832:1,0.04,-0.25
01:34:52.836:1,0.035,-0.24
01:34:52.840:1,0.04,-0.255
01:34:52.844:1,0.025,-0.26
01:34:52.848:1,0.03,-0.27
01:34:52.852:1,0.02,-0.28
01:34:52.856:1,0.03,-0.285
01:34:52.860:1,0.055,-0.22
01:34:52.864:1,0.05,-0.14
01:34:52.868:1,0.08,-0.11
01:34:52.872:1,0.095,-0.1
01:34:52.876:1,0.08,-0.09
01:34:52.880:1,0.09,-0.075
01:34:52.884:1,0.07,-0.075
01:34:52.888:1,0.055,-0.06
01:34:52.892:1,0.045,-0.09
01:34:52.896:1,0.07,-0.11
01:34:52.900:1,0.035,-0.15
01:34:52.904:1,0.04,-0.16
01:34:52.908:1,0.035,-0.085
01:34:52.912:1,0.03,0.08
01:34:52.916:1,0.08,0.295
01:34:52.920:1,0.12,0.555
01:34:52.924:1,0.2,0.805
01:34:52.928:1,0.255,0.855
01:34:52.932:1,0.345,0.73
01:34:52.936:1,0.395,0.365
01:34:52.940:1,0.36,-0.19
01:34:52.944:1,0.19,-0.665
01:34:52.948:1,0.01,-0.905
01:34:52.952:1,-0.155,-0.905
01:34:52.956:1,-0.3,-0.8
01:34:52.960:1,-0.375,-0.67
01:34:52.964:1,-0.37,-0.545
01:34:52.968:1,-0.34,-0.42
01:34:52.972:1,-0.245,-0.335
01:34:52.976:1,-0.155,-0.335
01:34:52.980:1,-0.095,-0.34
01:34:52.984:1,-0.045,-0.35
01:34:52.988:1,-0.055,-0.36
01:34:52.992:1,-0.05,-0.37
01:34:52.996:1,-0.05,-0.37
01:34:53.000:1,-0.06,-0.37
01:34:53.004:1,-0.06,-0.37
01:34:53.008:1,-0.06,-0.36
01:34:53.012:1,-0.075,-0.4
01:34:53.016:1,-0.07,-0.415
01:34:53.020:1,-0.065,-0.4
01:34:53.024:1,-0.055,-0.415
01:34:53.028:1,-0.055,-0.405
01:34:53.032:1,-0.065,-0.41
01:34:53.036:1,-0.05,-0.415
01:34:53.040:1,-0.05,-0.35
01:34:53.044:1,-0.04,-0.285
01:34:53.048:1,0.0,-0.27
01:34:53.052:1,0.01,-0.245
01:34:53.056:1,-0.01,-0.23
01:34:53.060:1,0.005,-0.205
01:34:53.064:1,0.01,-0.22
01:34:53.068:1,0.0,-0.245
01:34:53.072:1,0.0,-0.26
01:34:53.076:1,-0.02,-0.285
01:34:53.080:1,-0.055,-0.315
01:34:53.084:1,-0.06,-0.31
01:34:53.088:1,-0.045,-0.31
01:34:53.092:1,-0.045,-0.32
01:34:53.096:1,-0.045,-0.325
01:34:53.100:1,-0.045,-0.335
01:34:53.104:1,-0.05,-0.34
01:34:53.108:1,-0.045,-0.355
01:34:53.112:1,-0.03,-0.34
01:34:53.116:1,-0.04,-0.36
01:34:53.120:1,-0.045,-0.36
01:34:53.124:1,-0.04,-0.345
01:34:53.128:1,-0.035,-0.34
01:34:53.132:1,-0.045,-0.345
01:34:53.136:1,-0.065,-0.345
01:34:53.140:1,-0.06,-0.315
01:34:53.144:1,-0.06,-0.325
01:34:53.148:1,-0.04,-0.3
01:34:53.152:1,-0.065,-0.27
01:34:53.156:1,-0.05,-0.27
01:34:53.160:1,-0.04,-0.26
01:34:53.164:1,-0.04,-0.24
01:34:53.168:1,-0.045,-0.22
01:34:53.172:1,-0.035,-0.23
01:34:53.176:1,-0.015,-0.22
01:34:53.180:1,-0.02,-0.2
01:34:53.184:1,-0.015,-0.21
01:34:53.188:1,0.0,-0.18
01:34:53.192:1,-0.01,-0.185
01:34:53.196:1,-0.015,-0.195
01:34:53.200:1,0.01,-0.2
01:34:53.204:1,0.025,-0.18
01:34:53.208:1,0.05,-0.12
01:34:53.212:1,0.075,-0.105
01:34:53.216:1,0.11,-0.09
01:34:53.220:1,0.09,-0.07
01:34:53.224:1,0.11,-0.06
01:34:53.228:1,0.105,-0.08
01:34:53.232:1,0.065,-0.105
01:34:53.236:1,0.035,-0.13
01:34:53.240:1,0.035,-0.12
01:34:53.244:1,0.015,-0.14
01:34:53.248:1,0.0,-0.15
01:34:53.252:1,0.01,-0.2
01:34:53.256:1,0.02,-0.215
01:34:53.260:1,-0.01,-0.22
01:34:53.264:1,0.0,-0.22
01:34:53.268:1,-0.01,-0.22
01:34:53.272:1,0.0,-0.22
01:34:53.276:1,0.0,-0.245
01:34:53.280:1,0.0,-0.25
01:34:53.284:1,-0.01,-0.24
01:34:53.288:1,-0.015,-0.235
01:34:53.292:1,0.005,-0.265
01:34:53.296:1,-0.005,-0.28
01:34:53.300:1,-0.025,-0.285
01:34:53.304:1,0.005,-0.285
01:34:53.308:1,-0.01,-0.29
01:34:53.312:1,-0.015,-0.3
01:34:53.316:1,-0.015,-0.305
01:34:53.320:1,-0.02,-0.31
01:34:53.324:1,-0.015,-0.305
01:34:53.328:1,-0.015,-0.29
01:34:53.332:1,-0.01,-0.3
01:34:53.336:1,-0.01,-0.33
01:34:53.340:1,-0.04,-0.32
01:34:53.344:1,-0.04,-0.31
01:34:53.348:1,-0.02,-0.315
01:34:53.352:1,-0.025,-0.315
01:34:53.356:1,-0.025,-0.33
01:34:53.360:1,-0.015,-0.335
01:34:53.364:1,-0.025,-0.335
01:34:53.368:1,-0.04,-0.36
01:34:53.372:1,-0.025,-0.39
01:34:53.376:1,-0.015,-0.395
01:34:53.380:1,-0.025,-0.37
01:34:53.384:1,-0.02,-0.335
01:34:53.388:1,-0.005,-0.295
01:34:53.392:1,-0.02,-0.24
01:34:53.396:1,-0.01,-0.21
01:34:53.400:1,-0.015,-0.165
01:34:53.404:1,0.015,-0.16
01:34:53.408:1,0.0,-0.14
01:34:53.412:1,-0.01,-0.18
01:34:53.416:1,0.02,-0.205
01:34:53.420:1,0.0,-0.17
01:34:53.424:1,0.015,-0.1
01:34:53.428:1,0.05,0.07
01:34:53.432:1,0.085,0.315
01:34:53.436:1,0.115,0.58
01:34:53.440:1,0.165,0.755
01:34:53.444:1,0.23,0.77
01:34:53.448:1,0.35,0.67
01:34:53.452:1,0.39,0.335
01:34:53.456:1,0.39,-0.24
01:34:53.460:1,0.315,-0.685
01:34:53.464:1,0.175,-0.88
01:34:53.468:1,-0.005,-0.89
01:34:53.472:1,-0.16,-0.835
01:34:53.476:1,-0.275,-0.745
01:34:53.480:1,-0.29,-0.615
01:34:53.484:1,-0.255,-0.475
01:34:53.488:1,-0.245,-0.39
01:34:53.492:1,-0.145,-0.345
01:34:53.496:1,-0.065,-0.35
01:34:53.500:1,-0.02,-0.355
01:34:53.504:1,-0.01,-0.35
01:34:53.508:1,-0.005,-0.365
01:34:53.512:1,0.0,-0.375
01:34:53.516:1,-0.02,-0.39
01:34:53.520:1,-0.01,-0.38
01:34:53.524:1,-0.005,-0.375
01:34:53.528:1,-0.02,-0.36
01:34:53.532:1,-0.035,-0.345
01:34:53.536:1,-0.02,-0.345
01:34:53.540:1,0.0,-0.34
01:34:53.544:1,-0.005,-0.35
01:34:53.548:1,0.0,-0.355
01:34:53.552:1,-0.005,-0.39
01:34:53.556:1,-0.005,-0.385
01:34:53.560:1,-0.03,-0.38
01:34:53.564:1,-0.01,-0.375
01:34:53.568:1,-0.015,-0.365
01:34:53.572:1,-0.015,-0.36
01:34:53.576:1,-0.05,-0.355
01:34:53.580:1,-0.015,-0.34
01:34:53.584:1,-0.015,-0.335
01:34:53.588:1,-0.01,-0.34
01:34:53.592:1,-0.005,-0.335
01:34:53.596:1,0.01,-0.32
01:34:53.600:1,0.005,-0.315
01:34:53.604:1,0.01,-0.335
01:34:53.608:1,0.01,-0.345
01:34:53.612:1,0.025,-0.34
01:34:53.616:1,0.02,-0.32
01:34:53.620:1,0.02,-0.275
01:34:53.624:1,0.055,-0.245
01:34:53.628:1,0.045,-0.26
01:34:53.632:1,0.05,-0.25
01:34:53.636:1,0.03,-0.255
01:34:53.640:1,0.02,-0.225
01:34:53.644:1,0.005,-0.225
01:34:53.648:1,-0.01,-0.24
01:34:53.652:1,0.0,-0.255
01:34:53.656:1,-0.03,-0.255
01:34:53.660:1,-0.05,-0.265
01:34:53.664:1,-0.05,-0.275
01:34:53.668:1,-0.055,-0.25
01:34:53.672:1,-0.06,-0.215
01:34:53.676:1,-0.06,-0.22
01:34:53.680:1,-0.055,-0.2
01:34:53.684:1,-0.055,-0.185
01:34:53.688:1,-0.05,-0.18
01:34:53.692:1,-0.06,-0.16
01:34:53.696:1,-0.075,-0.14
01:34:53.700:1,-0.06,-0.135
01:34:53.704:1,-0.05,-0.13
01:34:53.708:1,-0.055,-0.12
01:34:53.712:1,-0.02,-0.105
01:34:53.716:1,-0.025,-0.105
01:34:53.720:1,-0.035,-0.095
01:34:53.724:1,-0.015,-0.08
01:34:53.728:1,-0.015,-0.105
01:34:53.732:1,-0.005,-0.125
01:34:53.736:1,0.005,-0.14
01:34:53.740:1,0.01,-0.14
01:34:53.744:1,0.005,-0.18
01:34:53.748:1,0.015,-0.18
01:34:53.752:1,-0.005,-0.18
01:34:53.756:1,0.0,-0.165
01:34:53.760:1,0.015,-0.155
01:34:53.764:1,0.02,-0.16
01:34:53.768:1,0.03,-0.155
01:34:53.772:1,0.025,-0.155
01:34:53.776:1,0.03,-0.15
01:34:53.780:1,0.055,-0.17
01:34:53.784:1,0.07,-0.185
01:34:53.788:1,0.06,-0.175
01:34:53.792:1,0.05,-0.165
01:34:53.796:1,0.075,-0.145
01:34:53.800:1,0.095,-0.115
01:34:53.804:1,0.1,-0.105
01:34:53.808:1,0.08,-0.125
01:34:53.812:1,0.115,-0.105
01:34:53.816:1,0.09,-0.115
01:34:53.820:1,0.075,-0.12
01:34:53.824:1,0.08,-0.145
01:34:53.828:1,0.065,-0.14
01:34:53.832:1,0.035,-0.16
01:34:53.836:1,0.03,-0.16
01:34:53.840:1,0.03,-0.18
01:34:53.844:1,0.02,-0.17
01:34:53.848:1,0.02,-0.205
01:34:53.852:1,0.005,-0.215
01:34:53.856:1,-0.01,-0.21
01:34:53.860:1,0.01,-0.225
01:34:53.864:1,-0.015,-0.225
01:34:53.868:1,-0.03,-0.23
01:34:53.872:1,-0.045,-0.25
01:34:53.876:1,-0.025,-0.265
01:34:53.880:1,-0.04,-0.275
01:34:53.884:1,-0.035,-0.255
01:34:53.888:1,-0.035,-0.265
01:34:53.892:1,-0.03,-0.28
01:34:53.896:1,-0.04,-0.295
01:34:53.900:1,-0.035,-0.3
01:34:53.904:1,-0.05,-0.31
01:34:53.908:1,-0.035,-0.32
01:34:53.912:1,-0.04,-0.345
01:34:53.916:1,-0.045,-0.34
01:34:53.920:1,-0.05,-0.355
01:34:53.924:1,-0.045,-0.35
01:34:53.928:1,-0.04,-0.355
01:34:53.932:1,-0.04,-0.345
01:34:53.936:1,-0.035,-0.32
01:34:53.940:1,-0.015,-0.295
01:34:53.944:1,-0.005,-0.275
01:34:53.948:1,-0.01,-0.26
01:34:53.952:1,0.0,-0.255
01:34:53.956:1,0.015,-0.25
01:34:53.960:1,0.025,-0.25
01:34:53.964:1,0.04,-0.255
01:34:53.968:1,0.035,-0.265
01:34:53.972:1,0.025,-0.255
01:34:53.976:1,0.015,-0.25
01:34:53.980:1,0.005,-0.245
01:34:53.984:1,0.0,-0.245
01:34:53.988:1,0.015,-0.26
01:34:53.992:1,0.0,-0.26
01:34:53.996:1,0.0,-0.27
01:34:54.000:1,-0.005,-0.27
01:34:54.004:1,0.005,-0.275
01:34:54.008:1,-0.025,-0.25
01:34:54.012:1,-0.02,-0.28
01:34:54.016:1,-0.005,-0.28
01:34:54.020:1,-0.005,-0.235
01:34:54.024:1,-0.01,-0.115
01:34:54.028:1,0.04,0.08
01:34:54.032:1,0.045,0.345
01:34:54.036:1,0.055,0.635
01:34:54.040:1,0.135,0.77
01:34:54.044:1,0.26,0.765
01:34:54.048:1,0.365,0.645
01:34:54.052:1,0.39,0.245
01:34:54.056:1,0.365,-0.345
01:34:54.060:1,0.305,-0.8
01:34:54.064:1,0.095,-0.97
01:34:54.068:1,-0.095,-0.95
01:34:54.072:1,-0.265,-0.885
01:34:54.076:1,-0.335,-0.765
01:34:54.080:1,-0.335,-0.635
01:34:54.084:1,-0.32,-0.525
01:34:54.088:1,-0.26,-0.435
01:34:54.092:1,-0.17,-0.42
01:34:54.096:1,-0.125,-0.435
01:34:54.100:1,-0.09,-0.44
01:34:54.104:1,-0.065,-0.415
01:34:54.108:1,-0.06,-0.41
01:34:54.112:1,-0.025,-0.435
01:34:54.116:1,-0.04,-0.445
01:34:54.120:1,-0.05,-0.405
01:34:54.124:1,-0.065,-0.335
01:34:54.128:1,-0.04,-0.305
01:34:54.132:1,-0.025,-0.305
01:34:54.136:1,-0.03,-0.305
01:34:54.140:1,-0.015,-0.32
01:34:54.144:1,-0.02,-0.325
01:34:54.148:1,-0.035,-0.32
01:34:54.152:1,-0.03,-0.36
01:34:54.156:1,-0.04,-0.345
01:34:54.160:1,-0.045,-0.355
01:34:54.164:1,-0.055,-0.365
01:34:54.168:1,-0.045,-0.365
01:34:54.172:1,-0.06,-0.375
01:34:54.176:1,-0.045,-0.365
01:34:54.180:1,-0.05,-0.37
01:34:54.184:1,-0.055,-0.365
01:34:54.188:1,-0.06,-0.365
01:34:54.192:1,-0.055,-0.38
01:34:54.196:1,-0.05,-0.4
01:34:54.200:1,-0.07,-0.4
01:34:54.204:1,-0.03,-0.395
01:34:54.208:1,-0.04,-0.41
01:34:54.212:1,-0.06,-0.42
01:34:54.216:1,-0.065,-0.42
01:34:54.220:1,-0.055,-0.41
01:34:54.224:1,-0.055,-0.415
01:34:54.228:1,-0.055,-0.395
01:34:54.232:1,-0.055,-0.405
01:34:54.236:1,-0.04,-0.405
01:34:54.240:1,-0.045,-0.39
01:34:54.244:1,-0.025,-0.385
01:34:54.248:1,-0.025,-0.41
01:34:54.252:1,-0.02,-0.405
01:34:54.256:1,-0.04,-0.395
01:34:54.260:1,-0.045,-0.395
01:34:54.264:1,-0.045,-0.39
01:34:54.268:1,-0.035,-0.37
01:34:54.272:1,-0.02,-0.36
01:34:54.276:1,-0.01,-0.315
01:34:54.280:1,-0.015,-0.265
01:34:54.284:1,0.0,-0.235
01:34:54.288:1,0.025,-0.21
01:34:54.292:1,0.045,-0.21
01:34:54.296:1,0.045,-0.18
01:34:54.300:1,0.065,-0.185
01:34:54.304:1,0.075,-0.16
01:34:54.308:1,0.075,-0.145
01:34:54.312:1,0.085,-0.1
01:34:54.316:1,0.09,-0.105
01:34:54.320:1,0.095,-0.08
01:34:54.324:1,0.1,-0.07
01:34:54.328:1,0.07,-0.075
01:34:54.332:1,0.065,-0.12
01:34:54.336:1,0.06,-0.12
01:34:54.340:1,0.05,-0.135
01:34:54.344:1,0.035,-0.15
01:34:54.348:1,0.03,-0.175
01:34:54.352:1,0.01,-0.2
01:34:54.356:1,-0.005,-0.21
01:34:54.360:1,-0.01,-0.225
01:34:54.364:1,0.0,-0.25
01:34:54.368:1,0.005,-0.255
01:34:54.372:1,0.015,-0.25
01:34:54.376:1,-0.01,-0.25
01:34:54.380:1,-0.005,-0.27
01:34:54.384:1,0.0,-0.27
01:34:54.388:1,0.0,-0.26
01:34:54.392:1,-0.005,-0.275
01:34:54.396:1,-0.01,-0.27
01:34:54.400:1,0.005,-0.26
01:34:54.404:1,-0.02,-0.27
01:34:54.408:1,-0.005,-0.27
01:34:54.412:1,-0.02,-0.285
01:34:54.416:1,0.0,-0.28
01:34:54.420:1,-0.01,-0.28
01:34:54.424:1,-0.015,-0.29
01:34:54.428:1,-0.02,-0.31
01:34:54.432:1,-0.01,-0.335
01:34:54.436:1,-0.01,-0.34
01:34:54.440:1,-0.03,-0.32
01:34:54.444:1,-0.03,-0.32
01:34:54.448:1,-0.02,-0.34
01:34:54.452:1,0.005,-0.335
01:34:54.456:1,-0.005,-0.305
01:34:54.460:1,0.015,-0.305
01:34:54.464:1,0.025,-0.25
01:34:54.468:1,0.035,-0.21
01:34:54.472:1,0.035,-0.185
01:34:54.476:1,0.06,-0.185
01:34:54.480:1,0.07,-0.17
01:34:54.484:1,0.05,-0.165
01:34:54.488:1,0.075,-0.175
01:34:54.492:1,0.065,-0.18
01:34:54.496:1,0.075,-0.175
01:34:54.500:1,0.085,-0.185
01:34:54.504:1,0.07,-0.205
01:34:54.508:1,0.07,-0.21
01:34:54.512:1,0.06,-0.225
01:34:54.516:1,0.06,-0.215
01:34:54.520:1,0.075,-0.225
01:34:54.524:1,0.065,-0.24
01:34:54.528:1,0.035,-0.24
01:34:54.532:1,0.035,-0.24
01:34:54.536:1,0.03,-0.255
01:34:54.540:1,0.025,-0.25
01:34:54.544:1,0.01,-0.25
01:34:54.548:1,0.015,-0.265
01:34:54.552:1,0.01,-0.26
01:34:54.556:1,0.01,-0.28
01:34:54.560:1,0.02,-0.28
01:34:54.564:1,0.01,-0.29
01:34:54.568:1,-0.005,-0.295
01:34:54.572:1,0.01,-0.31
01:34:54.576:1,0.02,-0.31
01:34:54.580:1,-0.005,-0.3
01:34:54.584:1,0.0,-0.315
01:34:54.588:1,-0.015,-0.33
01:34:54.592:1,-0.005,-0.35
01:34:54.596:1,-0.02,-0.36
01:34:54.600:1,0.0,-0.34
01:34:54.604:1,-0.005,-0.37
01:34:54.608:1,0.005,-0.37
01:34:54.612:1,-0.01,-0.385
01:34:54.616:1,-0.015,-0.375
01:34:54.620:1,-0.005,-0.385
01:34:54.624:1,-0.015,-0.39
01:34:54.628:1,-0.01,-0.395
01:34:54.632:1,0.0,-0.365
01:34:54.636:1,-0.01,-0.365
01:34:54.640:1,0.0,-0.33
01:34:54.644:1,0.005,-0.335
01:34:54.648:1,0.03,-0.335
01:34:54.652:1,0.035,-0.325
01:34:54.656:1,0.05,-0.29
01:34:54.660:1,0.065,-0.21
01:34:54.664:1,0.09,-0.185
01:34:54.668:1,0.085,-0.18
01:34:54.672:1,0.085,-0.18
01:34:54.676:1,0.09,-0.185
01:34:54.680:1,0.065,-0.195
01:34:54.684:1,0.05,-0.21
01:34:54.688:1,0.05,-0.205
01:34:54.692:1,0.045,-0.205
01:34:54.696:1,0.05,-0.2
01:34:54.700:1,0.03,-0.22
01:34:54.704:1,0.035,-0.215
01:34:54.708:1,0.035,-0.235
01:34:54.712:1,0.02,-0.23
01:34:54.716:1,0.035,-0.235
01:34:54.720:1,0.035,-0.225
01:34:54.724:1,0.03,-0.24
01:34:54.728:1,0.035,-0.25
01:34:54.732:1,0.005,-0.245
01:34:54.736:1,0.02,-0.24
01:34:54.740:1,0.005,-0.24
01:34:54.744:1,0.02,-0.23
01:34:54.748:1,0.015,-0.25
01:34:54.752:1,0.025,-0.275
01:34:54.756:1,0.02,-0.255
01:34:54.760:1,0.015,-0.135
01:34:54.764:1,0.035,0.03
01:34:54.768:1,0.08,0.315
01:34:54.772:1,0.095,0.595
01:34:54.776:1,0.195,0.785
01:34:54.780:1,0.29,0.795
01:34:54.784:1,0.37,0.685
01:34:54.788:1,0.38,0.32
01:34:54.792:1,0.305,-0.29
01:34:54.796:1,0.175,-0.775
01:34:54.800:1,-0.04,-0.975
01:34:54.804:1,-0.27,-0.975
01:34:54.808:1,-0.4,-0.825
01:34:54.812:1,-0.44,-0.675
01:34:54.816:1,-0.395,-0.53
01:34:54.820:1,-0.32,-0.425
01:34:54.824:1,-0.215,-0.36
01:34:54.828:1,-0.1,-0.345
01:34:54.832:1,-0.02,-0.355
01:34:54.836:1,0.02,-0.36
01:34:54.840:1,0.035,-0.31
01:34:54.844:1,0.065,-0.315
01:34:54.848:1,0.055,-0.305
01:34:54.852:1,0.045,-0.29
01:34:54.856:1,0.045,-0.3
01:34:54.860:1,0.02,-0.295
01:34:54.864:1,0.0,-0.285
01:34:54.868:1,0.005,-0.3
01:34:54.872:1,-0.01,-0.305
01:34:54.876:1,-0.025,-0.3
01:34:54.880:1,-0.04,-0.295
01:34:54.884:1,-0.025,-0.31
01:34:54.888:1,-0.03,-0.315
01:34:54.892:1,-0.02,-0.32
01:34:54.896:1,-0.035,-0.32
01:34:54.900:1,-0.015,-0.32
01:34:54.904:1,-0.035,-0.32
01:34:54.908:1,-0.04,-0.335
01:34:54.912:1,-0.035,-0.335
01:34:54.916:1,-0.01,-0.33
01:34:54.920:1,-0.025,-0.325
01:34:54.924:1,-0.02,-0.355
01:34:54.928:1,-0.025,-0.355
01:34:54.932:1,-0.035,-0.35
01:34:54.936:1,-0.025,-0.35
01:34:54.940:1,-0.025,-0.345
01:34:54.944:1,-0.035,-0.34
01:34:54.948:1,-0.03,-0.365
01:34:54.952:1,-0.03,-0.355
01:34:54.956:1,-0.02,-0.345
01:34:54.960:1,-0.045,-0.36
01:34:54.964:1,-0.03,-0.345
01:34:54.968:1,-0.025,-0.375
01:34:54.972:1,-0.02,-0.365
01:34:54.976:1,-0.03,-0.36
01:34:54.980:1,-0.025,-0.36
01:34:54.984:1,0.0,-0.335
01:34:54.988:1,0.0,-0.33
01:34:54.992:1,0.015,-0.31
01:34:54.996:1,0.025,-0.29
01:34:55.000:1,0.035,-0.26
01:34:55.004:1,0.035,-0.265
01:34:55.008:1,0.05,-0.28
01:34:55.012:1,0.07,-0.3
01:34:55.016:1,0.06,-0.27
01:34:55.020:1,0.06,-0.19
01:34:55.024:1,0.07,-0.145
01:34:55.028:1,0.065,-0.125
01:34:55.032:1,0.065,-0.145
01:34:55.036:1,0.07,-0.145
01:34:55.040:1,0.06,-0.115
01:34:55.044:1,0.055,-0.105
01:34:55.048:1,0.05,-0.11
01:34:55.052:1,0.04,-0.12
01:34:55.056:1,0.02,-0.105
01:34:55.060:1,0.02,-0.085
01:34:55.064:1,0.015,-0.09
01:34:55.068:1,0.01,-0.105
01:34:55.072:1,0.015,-0.12
01:34:55.076:1,0.035,-0.13
01:34:55.080:1,0.04,-0.125
01:34:55.084:1,0.025,-0.135
01:34:55.088:1,0.02,-0.16
01:34:55.092:1,0.025,-0.175
01:34:55.096:1,0.005,-0.18
01:34:55.100:1,0.02,-0.19
01:34:55.104:1,0.015,-0.19
01:34:55.108:1,0.01,-0.22
01:34:55.112:1,0.02,-0.22
01:34:55.116:1,0.0,-0.22
01:34:55.120:1,0.005,-0.23
01:34:55.124:1,0.005,-0.235
01:34:55.128:1,0.01,-0.26
01:34:55.132:1,0.005,-0.26
01:34:55.136:1,0.02,-0.24
01:34:55.140:1,0.015,-0.24
01:34:55.144:1,0.01,-0.255
01:34:55.148:1,0.02,-0.285
01:34:55.152:1,-0.005,-0.285
01:34:55.156:1,-0.015,-0.27
01:34:55.160:1,0.0,-0.275
01:34:55.164:1,0.0,-0.26
01:34:55.168:1,-0.01,-0.24
01:34:55.172:1,0.01,-0.235
01:34:55.176:1,0.035,-0.24
01:34:55.180:1,0.03,-0.23
01:34:55.184:1,0.04,-0.24
01:34:55.188:1,0.035,-0.26
01:34:55.192:1,0.065,-0.25
01:34:55.196:1,0.095,-0.205
01:34:55.200:1,0.085,-0.18
01:34:55.204:1,0.095,-0.17
01:34:55.208:1,0.065,-0.15
01:34:55.212:1,0.06,-0.175
01:34:55.216:1,0.035,-0.155
01:34:55.220:1,0.07,-0.055
01:34:55.224:1,0.06,0.09
01:34:55.228:1,0.11,0.305
01:34:55.232:1,0.16,0.53
01:34:55.236:1,0.215,0.67
01:34:55.240:1,0.265,0.645
01:34:55.244:1,0.355,0.5
01:34:55.248:1,0.335,0.11
01:34:55.252:1,0.235,-0.44
01:34:55.256:1,0.08,-0.765
01:34:55.260:1,-0.11,-0.85
01:34:55.264:1,-0.295,-0.78
01:34:55.268:1,-0.38,-0.705
01:34:55.272:1,-0.37,-0.575
01:34:55.276:1,-0.335,-0.44
01:34:55.280:1,-0.28,-0.34
01:34:55.284:1,-0.175,-0.295
01:34:55.288:1,-0.105,-0.305
01:34:55.292:1,-0.05,-0.34
01:34:55.296:1,-0.03,-0.35
01:34:55.300:1,-0.025,-0.355
01:34:55.304:1,-0.025,-0.365
01:34:55.308:1,-0.03,-0.385
01:34:55.312:1,-0.045,-0.385
01:34:55.316:1,-0.04,-0.375
01:34:55.320:1,-0.045,-0.39
01:34:55.324:1,-0.035,-0.39
01:34:55.328:1,-0.045,-0.4
01:34:55.332:1,-0.045,-0.37
01:34:55.336:1,-0.04,-0.37
01:34:55.340:1,-0.03,-0.375
01:34:55.344:1,-0.035,-0.365
01:34:55.348:1,-0.025,-0.365
01:34:55.352:1,0.0,-0.36
01:34:55.356:1,-0.005,-0.335
01:34:55.360:1,-0.015,-0.32
01:34:55.364:1,0.015,-0.315
01:34:55.368:1,0.03,-0.325
01:34:55.372:1,0.045,-0.3
01:34:55.376:1,0.055,-0.275
01:34:55.380:1,0.06,-0.25
01:34:55.384:1,0.04,-0.23
01:34:55.388:1,0.03,-0.235
01:34:55.392:1,0.005,-0.24
01:34:55.396:1,0.025,-0.22
01:34:55.400:1,0.005,-0.235
01:34:55.404:1,0.0,-0.225
01:34:55.408:1,0.0,-0.225
01:34:55.412:1,-0.015,-0.235
01:34:55.416:1,-0.03,-0.245
01:34:55.420:1,-0.02,-0.25
01:34:55.424:1,-0.025,-0.26
01:34:55.428:1,0.0,-0.25
01:34:55.432:1,-0.01,-0.25
01:34:55.436:1,0.0,-0.24
01:34:55.440:1,-0.01,-0.23
01:34:55.444:1,-0.02,-0.26
01:34:55.448:1,-0.005,-0.255
01:34:55.452:1,-0.025,-0.25
01:34:55.456:1,-0.025,-0.24
01:34:55.460:1,0.0,-0.235
01:34:55.464:1,-0.035,-0.23
01:34:55.468:1,-0.02,-0.23
01:34:55.472:1,-0.015,-0.215
01:34:55.476:1,-0.01,-0.18
01:34:55.480:1,0.0,-0.175
01:34:55.484:1,0.0,-0.205
01:34:55.488:1,0.005,-0.195
01:34:55.492:1,-0.01,-0.195
01:34:55.496:1,-0.015,-0.195
01:34:55.500:1,0.01,-0.195
01:34:55.504:1,0.0,-0.21
01:34:55.508:1,-0.01,-0.22
01:34:55.512:1,0.0,-0.22
01:34:55.516:1,0.015,-0.2
01:34:55.520:1,0.015,-0.18
01:34:55.524:1,0.04,-0.185
01:34:55.528:1,0.075,-0.18
01:34:55.532:1,0.075,-0.165
01:34:55.536:1,0.09,-0.17
01:34:55.540:1,0.08,-0.2
01:34:55.544:1,0.11,-0.23
01:34:55.548:1,0.115,-0.23
01:34:55.552:1,0.14,-0.18
01:34:55.556:1,0.115,-0.155
01:34:55.560:1,0.12,-0.125
01:34:55.564:1,0.1,-0.15
01:34:55.568:1,0.095,-0.15
01:34:55.572:1,0.08,-0.155
01:34:55.576:1,0.08,-0.145
01:34:55.580:1,0.065,-0.185
01:34:55.584:1,0.055,-0.19
01:34:55.588:1,0.04,-0.185
01:34:55.592:1,0.035,-0.2
01:34:55.596:1,0.035,-0.21
01:34:55.600:1,0.04,-0.22
01:34:55.604:1,0.015,-0.225
01:34:55.608:1,0.025,-0.23
01:34:55.612:1,0.03,-0.22
01:34:55.616:1,0.03,-0.22
01:34:55.620:1,0.015,-0.225
01:34:55.624:1,0.045,-0.245
01:34:55.628:1,0.04,-0.265
01:34:55.632:1,0.0,-0.26
01:34:55.636:1,0.015,-0.28
01:34:55.640:1,0.025,-0.28
01:34:55.644:1,0.015,-0.28
01:34:55.648:1,0.03,-0.275
01:34:55.652:1,0.035,-0.28
01:34:55.656:1,0.025,-0.275
01:34:55.660:1,0.025,-0.285
01:34:55.664:1,0.03,-0.29
01:34:55.668:1,0.005,-0.29
01:34:55.672:1,0.01,-0.29
01:34:55.676:1,0.015,-0.3
01:34:55.680:1,0.01,-0.29
01:34:55.684:1,0.015,-0.315
01:34:55.688:1,0.005,-0.32
01:34:55.692:1,0.01,-0.3
01:34:55.696:1,0.025,-0.285
01:34:55.700:1,0.025,-0.265
01:34:55.704:1,0.035,-0.31
01:34:55.708:1,0.045,-0.33
01:34:55.712:1,0.05,-0.285
01:34:55.716:1,0.055,-0.215
01:34:55.720:1,0.07,-0.19
01:34:55.724:1,0.085,-0.16
01:34:55.728:1,0.065,-0.15
01:34:55.732:1,0.07,-0.135
01:34:55.736:1,0.075,-0.125
01:34:55.740:1,0.08,-0.12
01:34:55.744:1,0.07,-0.13
01:34:55.748:1,0.06,-0.16
01:34:55.752:1,0.06,-0.14
01:34:55.756:1,0.07,-0.15
01:34:55.760:1,0.075,-0.17
01:34:55.764:1,0.05,-0.185
01:34:55.768:1,0.035,-0.2
01:34:55.772:1,0.035,-0.215
01:34:55.776:1,0.055,-0.22
01:34:55.780:1,0.03,-0.215
01:34:55.784:1,0.035,-0.23
01:34:55.788:1,0.03,-0.235
01:34:55.792:1,0.02,-0.245
01:34:55.796:1,0.02,-0.25
01:34:55.800:1,0.025,-0.28
01:34:55.804:1,0.015,-0.285
01:34:55.808:1,0.01,-0.285
01:34:55.812:1,0.01,-0.29
01:34:55.816:1,0.01,-0.295
01:34:55.820:1,0.005,-0.305
01:34:55.824:1,-0.005,-0.315
01:34:55.828:1,0.005,-0.315
01:34:55.832:1,0.0,-0.305
01:34:55.836:1,0.0,-0.33
01:34:55.840:1,0.0,-0.32
01:34:55.844:1,0.0,-0.315
01:34:55.848:1,-0.01,-0.325
01:34:55.852:1,0.0,-0.32
01:34:55.856:1,0.015,-0.325
01:34:55.860:1,-0.01,-0.315
01:34:55.864:1,0.01,-0.34
01:34:55.868:1,0.005,-0.345
01:34:55.872:1,-0.005,-0.27
01:34:55.876:1,0.005,-0.14
01:34:55.880:1,0.04,0.095
01:34:55.884:1,0.075,0.375
01:34:55.888:1,0.095,0.63
01:34:55.892:1,0.19,0.765
01:34:55.896:1,0.315,0.74
01:34:55.900:1,0.41,0.63
01:34:55.904:1,0.43,0.255
01:34:55.908:1,0.39,-0.34
01:34:55.912:1,0.295,-0.73
01:34:55.916:1,0.095,-0.865
01:34:55.920:1,-0.105,-0.825
01:34:55.924:1,-0.25,-0.73
01:34:55.928:1,-0.295,-0.595
01:34:55.932:1,-0.29,-0.455
01:34:55.936:1,-0.25,-0.335
01:34:55.940:1,-0.2,-0.25
01:34:55.944:1,-0.115,-0.24
01:34:55.948:1,-0.05,-0.24
01:34:55.952:1,-0.02,-0.255
01:34:55.956:1,0.0,-0.28
01:34:55.960:1,-0.005,-0.285
01:34:55.964:1,-0.01,-0.295
01:34:55.968:1,0.0,-0.29
01:34:55.972:1,-0.02,-0.285
01:34:55.976:1,-0.025,-0.285
01:34:55.980:1,-0.01,-0.295
01:34:55.984:1,-0.035,-0.3
01:34:55.988:1,-0.02,-0.315
01:34:55.992:1,-0.02,-0.315
01:34:55.996:1,-0.035,-0.31
01:34:56.000:1,-0.035,-0.32
01:34:56.004:1,-0.01,-0.335
01:34:56.008:1,-0.015,-0.33
01:34:56.012:1,-0.03,-0.33
01:34:56.016:1,-0.03,-0.34
01:34:56.020:1,-0.02,-0.34
01:34:56.024:1,-0.025,-0.365
01:34:56.028:1,-0.01,-0.34
01:34:56.032:1,-0.02,-0.335
01:34:56.036:1,-0.025,-0.36
01:34:56.040:1,-0.025,-0.365
01:34:56.044:1,-0.025,-0.37
01:34:56.048:1,-0.035,-0.36
01:34:56.052:1,-0.03,-0.36
01:34:56.056:1,-0.025,-0.35
01:34:56.060:1,-0.01,-0.35
01:34:56.064:1,-0.01,-0.36
01:34:56.068:1,-0.02,-0.36
01:34:56.072:1,-0.025,-0.3
01:34:56.076:1,-0.02,-0.3
01:34:56.080:1,-0.015,-0.29
01:34:56.084:1,0.01,-0.295
01:34:56.088:1,0.02,-0.265
01:34:56.092:1,0.025,-0.22
01:34:56.096:1,0.035,-0.175
01:34:56.100:1,0.07,-0.175
01:34:56.104:1,0.085,-0.16
01:34:56.108:1,0.075,-0.15
01:34:56.112:1,0.065,-0.15
01:34:56.116:1,0.06,-0.16
01:34:56.120:1,0.035,-0.155
01:34:56.124:1,0.0,-0.165
01:34:56.128:1,0.01,-0.175
01:34:56.132:1,-0.035,-0.17
01:34:56.136:1,-0.035,-0.16
01:34:56.140:1,-0.055,-0.16
01:34:56.144:1,-0.03,-0.16
01:34:56.148:1,-0.02,-0.18
01:34:56.152:1,-0.025,-0.175
01:34:56.156:1,-0.015,-0.17
01:34:56.160:1,-0.025,-0.145
01:34:56.164:1,-0.025,-0.13
01:34:56.168:1,-0.015,-0.13
01:34:56.172:1,-0.01,-0.11
01:34:56.176:1,-0.01,-0.095
01:34:56.180:1,-0.015,-0.1
01:34:56.184:1,0.015,-0.1
01:34:56.188:1,0.0,-0.105
01:34:56.192:1,0.015,-0.125
01:34:56.196:1,0.02,-0.13
01:34:56.200:1,0.025,-0.155
01:34:56.204:1,0.025,-0.175
01:34:56.208:1,0.015,-0.19
01:34:56.212:1,0.025,-0.185
01:34:56.216:1,0.02,-0.2
01:34:56.220:1,0.05,-0.2
01:34:56.224:1,0.035,-0.235
01:34:56.228:1,0.025,-0.225
01:34:56.232:1,0.015,-0.205
01:34:56.236:1,0.03,-0.23
01:34:56.240:1,0.02,-0.24
01:34:56.244:1,0.005,-0.21
01:34:56.248:1,0.02,-0.215
01:34:56.252:1,0.035,-0.21
01:34:56.256:1,0.03,-0.195
01:34:56.260:1,0.05,-0.205
01:34:56.264:1,0.055,-0.205
01:34:56.268:1,0.05,-0.19
01:34:56.272:1,0.065,-0.195
01:34:56.276:1,0.08,-0.22
01:34:56.280:1,0.085,-0.25
01:34:56.284:1,0.08,-0.265
01:34:56.288:1,0.06,-0.265
01:34:56.292:1,0.1,-0.19
01:34:56.296:1,0.09,-0.125
01:34:56.300:1,0.1,-0.14
01:34:56.304:1,0.11,-0.12
01:34:56.308:1,0.1,-0.13
01:34:56.312:1,0.07,-0.15
01:34:56.316:1,0.06,-0.16
01:34:56.320:1,0.04,-0.155
01:34:56.324:1,0.03,-0.17
01:34:56.328:1,0.02,-0.185
01:34:56.332:1,0.025,-0.21
01:34:56.336:1,0.0,-0.17
01:34:56.340:1,0.0,-0.035
01:34:56.344:1,0.03,0.135
01:34:56.348:1,0.07,0.36
01:34:56.352:1,0.085,0.565
01:34:56.356:1,0.155,0.63
01:34:56.360:1,0.255,0.56
01:34:56.364:1,0.325,0.35
01:34:56.368:1,0.36,-0.085
01:34:56.372:1,0.35,-0.57
01:34:56.376:1,0.245,-0.805
01:34:56.380:1,0.045,-0.815
01:34:56.384:1,-0.135,-0.745
01:34:56.388:1,-0.25,-0.665
01:34:56.392:1,-0.29,-0.59
01:34:56.396:1,-0.285,-0.465
01:34:56.400:1,-0.25,-0.335
01:34:56.404:1,-0.165,-0.265
01:34:56.408:1,-0.105,-0.25
01:34:56.412:1,-0.045,-0.24
01:34:56.416:1,-0.04,-0.26
01:34:56.420:1,-0.025,-0.26
01:34:56.424:1,0.0,-0.27
01:34:56.428:1,0.0,-0.265
01:34:56.432:1,-0.01,-0.265
01:34:56.436:1,-0.01,-0.26
01:34:56.440:1,0.015,-0.285
01:34:56.444:1,0.015,-0.265
01:34:56.448:1,0.005,-0.265
01:34:56.452:1,0.0,-0.25
01:34:56.456:1,0.015,-0.26
01:34:56.460:1,0.02,-0.28
01:34:56.464:1,0.02,-0.305
01:34:56.468:1,0.035,-0.345
01:34:56.472:1,0.025,-0.35
01:34:56.476:1,0.01,-0.325
01:34:56.480:1,0.02,-0.28
01:34:56.484:1,0.04,-0.25
01:34:56.488:1,0.03,-0.255
01:34:56.492:1,0.025,-0.25
01:34:56.496:1,0.02,-0.25
01:34:56.500:1,0.0,-0.235
01:34:56.504:1,0.0,-0.275
01:34:56.508:1,0.01,-0.265
01:34:56.512:1,0.0,-0.28
01:34:56.516:1,-0.035,-0.285
01:34:56.520:1,-0.025,-0.32
01:34:56.524:1,-0.04,-0.315
01:34:56.528:1,-0.04,-0.315
01:34:56.532:1,-0.04,-0.31
01:34:56.536:1,-0.025,-0.3
01:34:56.540:1,-0.03,-0.285
01:34:56.544:1,-0.035,-0.295
01:34:56.548:1,-0.02,-0.295
01:34:56.552:1,-0.025,-0.27
01:34:56.556:1,0.0,-0.265
01:34:56.560:1,0.0,-0.285
01:34:56.564:1,-0.015,-0.28
01:34:56.568:1,-0.025,-0.285
01:34:56.572:1,-0.01,-0.265
01:34:56.576:1,-0.01,-0.265
01:34:56.580:1,-0.025,-0.255
01:34:56.584:1,-0.025,-0.24
01:34:56.588:1,-0.015,-0.23
01:34:56.592:1,0.0,-0.22
01:34:56.596:1,-0.015,-0.21
01:34:56.600:1,-0.01,-0.23
01:34:56.604:1,-0.01,-0.205
01:34:56.608:1,-0.005,-0.19
01:34:56.612:1,-0.02,-0.185
01:34:56.616:1,0.005,-0.21
01:34:56.620:1,0.01,-0.205
01:34:56.624:1,0.02,-0.22
01:34:56.628:1,0.015,-0.225
01:34:56.632:1,0.03,-0.21
01:34:56.636:1,0.045,-0.195
01:34:56.640:1,0.045,-0.19
01:34:56.644:1,0.055,-0.18
01:34:56.648:1,0.085,-0.1
01:34:56.652:1,0.11,-0.045
01:34:56.656:1,0.125,-0.04
01:34:56.660:1,0.15,-0.045
01:34:56.664:1,0.15,-0.06
01:34:56.668:1,0.135,-0.065
01:34:56.672:1,0.13,-0.095
01:34:56.676:1,0.125,-0.12
01:34:56.680:1,0.11,-0.125
01:34:56.684:1,0.095,-0.14
01:34:56.688:1,0.085,-0.15
01:34:56.692:1,0.065,-0.17
01:34:56.696:1,0.06,-0.2
01:34:56.700:1,0.07,-0.195
01:34:56.704:1,0.07,-0.185
01:34:56.708:1,0.055,-0.165
01:34:56.712:1,0.055,-0.18
01:34:56.716:1,0.075,-0.18
01:34:56.720:1,0.06,-0.2
01:34:56.724:1,0.055,-0.2
01:34:56.728:1,0.08,-0.215
01:34:56.732:1,0.065,-0.225
01:34:56.736:1,0.055,-0.24
01:34:56.740:1,0.05,-0.24
01:34:56.744:1,0.06,-0.245
01:34:56.748:1,0.055,-0.24
01:34:56.752:1,0.04,-0.245
01:34:56.756:1,0.055,-0.265
01:34:56.760:1,0.055,-0.29
01:34:56.764:1,0.04,-0.29
01:34:56.768:1,0.06,-0.3
01:34:56.772:1,0.035,-0.305
01:34:56.776:1,0.04,-0.32
01:34:56.780:1,0.03,-0.325
01:34:56.784:1,0.035,-0.315
01:34:56.788:1,0.035,-0.32
01:34:56.792:1,0.03,-0.34
01:34:56.796:1,0.04,-0.345
01:34:56.800:1,0.025,-0.35
01:34:56.804:1,0.035,-0.355
01:34:56.808:1,0.055,-0.355
01:34:56.812:1,0.05,-0.31
01:34:56.816:1,0.06,-0.245
01:34:56.820:1,0.075,-0.225
01:34:56.824:1,0.095,-0.185
01:34:56.828:1,0.07,-0.15
01:34:56.832:1,0.06,-0.12
01:34:56.836:1,0.065,-0.11
01:34:56.840:1,0.07,-0.095
01:34:56.844:1,0.09,-0.115
01:34:56.848:1,0.13,-0.13
01:34:56.852:1,0.1,-0.15
01:34:56.856:1,0.085,-0.145
01:34:56.860:1,0.1,-0.145
01:34:56.864:1,0.09,-0.135
01:34:56.868:1,0.07,-0.14
01:34:56.872:1,0.095,-0.175
01:34:56.876:1,0.1,-0.2
01:34:56.880:1,0.105,-0.205
01:34:56.884:1,0.065,-0.21
01:34:56.888:1,0.075,-0.22
01:34:56.892:1,0.065,-0.225
01:34:56.896:1,0.065,-0.235
01:34:56.900:1,0.055,-0.245
01:34:56.904:1,0.065,-0.235
01:34:56.908:1,0.035,-0.235
01:34:56.912:1,0.055,-0.27
01:34:56.916:1,0.06,-0.28
01:34:56.920:1,0.05,-0.285
01:34:56.924:1,0.045,-0.29
01:34:56.928:1,0.045,-0.31
01:34:56.932:1,0.03,-0.305
01:34:56.936:1,0.02,-0.325
01:34:56.940:1,0.015,-0.315
01:34:56.944:1,0.03,-0.25
01:34:56.948:1,0.04,-0.07
01:34:56.952:1,0.09,0.175
01:34:56.956:1,0.125,0.47
01:34:56.960:1,0.175,0.695
01:34:56.964:1,0.255,0.775
01:34:56.968:1,0.355,0.715
01:34:56.972:1,0.42,0.52
01:34:56.976:1,0.42,0.035
01:34:56.980:1,0.345,-0.535
01:34:56.984:1,0.235,-0.875
01:34:56.988:1,0.0,-0.965
01:34:56.992:1,-0.2,-0.86
01:34:56.996:1,-0.32,-0.715
01:34:57.000:1,-0.34,-0.535
01:34:57.004:1,-0.335,-0.375
01:34:57.008:1,-0.27,-0.26
01:34:57.012:1,-0.155,-0.185
01:34:57.016:1,-0.05,-0.185
01:34:57.020:1,0.005,-0.2
01:34:57.024:1,0.03,-0.22
01:34:57.028:1,0.05,-0.235
01:34:57.032:1,0.045,-0.23
01:34:57.036:1,0.03,-0.245
01:34:57.040:1,0.05,-0.26
01:34:57.044:1,0.045,-0.255
01:34:57.048:1,0.045,-0.25
01:34:57.052:1,0.05,-0.265
01:34:57.056:1,0.04,-0.28
01:34:57.060:1,0.02,-0.275
01:34:57.064:1,0.04,-0.28
01:34:57.068:1,0.03,-0.29
01:34:57.072:1,0.04,-0.285
01:34:57.076:1,0.05,-0.305
01:34:57.080:1,0.04,-0.33
01:34:57.084:1,0.025,-0.32
01:34:57.088:1,0.03,-0.33
01:34:57.092:1,0.02,-0.335
01:34:57.096:1,0.045,-0.34
01:34:57.100:1,0.035,-0.335
01:34:57.104:1,0.025,-0.32
01:34:57.108:1,0.045,-0.335
01:34:57.112:1,0.025,-0.33
01:34:57.116:1,0.015,-0.34
01:34:57.120:1,0.02,-0.355
01:34:57.124:1,0.04,-0.355
01:34:57.128:1,0.045,-0.365
01:34:57.132:1,0.035,-0.34
01:34:57.136:1,0.04,-0.33
01:34:57.140:1,0.06,-0.285
01:34:57.144:1,0.05,-0.295
01:34:57.148:1,0.04,-0.285
01:34:57.152:1,0.03,-0.28
01:34:57.156:1,0.025,-0.245
01:34:57.160:1,0.0,-0.22
01:34:57.164:1,0.025,-0.185
01:34:57.168:1,0.01,-0.18
01:34:57.172:1,0.03,-0.175
01:34:57.176:1,0.035,-0.185
01:34:57.180:1,0.03,-0.185
01:34:57.184:1,0.005,-0.185
01:34:57.188:1,0.04,-0.18
01:34:57.192:1,0.035,-0.195
01:34:57.196:1,0.04,-0.19
01:34:57.200:1,0.05,-0.195
01:34:57.204:1,0.055,-0.17
01:34:57.208:1,0.045,-0.14
01:34:57.212:1,0.055,-0.16
01:34:57.216:1,0.065,-0.16
01:34:57.220:1,0.07,-0.135
01:34:57.224:1,0.07,-0.115
01:34:57.228:1,0.09,-0.11
01:34:57.232:1,0.095,-0.1
01:34:57.236:1,0.08,-0.1
01:34:57.240:1,0.08,-0.09
01:34:57.244:1,0.1,-0.09
01:34:57.248:1,0.1,-0.09
01:34:57.252:1,0.085,-0.105
01:34:57.256:1,0.1,-0.135
01:34:57.260:1,0.11,-0.135
01:34:57.264:1,0.115,-0.145
01:34:57.268:1,0.11,-0.17
01:34:57.272:1,0.11,-0.18
01:34:57.276:1,0.115,-0.195
01:34:57.280:1,0.12,-0.185
01:34:57.284:1,0.105,-0.22
01:34:57.288:1,0.105,-0.235
01:34:57.292:1,0.095,-0.23
01:34:57.296:1,0.105,-0.215
01:34:57.300:1,0.12,-0.15
01:34:57.304:1,0.125,-0.11
01:34:57.308:1,0.125,-0.11
01:34:57.312:1,0.12,-0.105
01:34:57.316:1,0.11,-0.095
01:34:57.320:1,0.09,-0.095
01:34:57.324:1,0.095,-0.105
01:34:57.328:1,0.09,-0.095
01:34:57.332:1,0.065,-0.1
01:34:57.336:1,0.065,-0.13
01:34:57.340:1,0.085,-0.145
01:34:57.344:1,0.07,-0.155
01:34:57.348:1,0.05,-0.18
01:34:57.352:1,0.055,-0.19
01:34:57.356:1,0.06,-0.195
01:34:57.360:1,0.05,-0.185
01:34:57.364:1,0.055,-0.195
01:34:57.368:1,0.05,-0.21
01:34:57.372:1,0.04,-0.215
01:34:57.376:1,0.045,-0.215
01:34:57.380:1,0.055,-0.22
01:34:57.384:1,0.05,-0.225
01:34:57.388:1,0.05,-0.255
01:34:57.392:1,0.06,-0.25
01:34:57.396:1,0.06,-0.26
01:34:57.400:1,0.05,-0.265
01:34:57.404:1,0.055,-0.27
01:34:57.408:1,0.06,-0.28
01:34:57.412:1,0.055,-0.29
01:34:57.416:1,0.05,-0.3
01:34:57.420:1,0.055,-0.32
01:34:57.424:1,0.035,-0.295
01:34:57.428:1,0.06,-0.3
01:34:57.432:1,0.035,-0.31
01:34:57.436:1,0.045,-0.285
01:34:57.440:1,0.045,-0.29
01:34:57.444:1,0.06,-0.305
01:34:57.448:1,0.075,-0.32
01:34:57.452:1,0.08,-0.31
01:34:57.456:1,0.085,-0.285
01:34:57.460:1,0.115,-0.235
01:34:57.464:1,0.115,-0.205
01:34:57.468:1,0.12,-0.16
01:34:57.472:1,0.105,-0.14
01:34:57.476:1,0.11,-0.145
01:34:57.480:1,0.09,-0.12
01:34:57.484:1,0.085,-0.115
01:34:57.488:1,0.085,-0.12
01:34:57.492:1,0.09,-0.11
01:34:57.496:1,0.12,-0.12
01:34:57.500:1,0.115,-0.115
01:34:57.504:1,0.105,-0.125
01:34:57.508:1,0.085,-0.14
01:34:57.512:1,0.105,-0.17
01:34:57.516:1,0.095,-0.17
01:34:57.520:1,0.095,-0.17
01:34:57.524:1,0.085,-0.18
01:34:57.528:1,0.09,-0.2
01:34:57.532:1,0.085,-0.21
01:34:57.536:1,0.075,-0.21
01:34:57.540:1,0.085,-0.215
01:34:57.544:1,0.09,-0.22
01:34:57.548:1,0.085,-0.225
01:34:57.552:1,0.09,-0.24
01:34:57.556:1,0.085,-0.25
01:34:57.560:1,0.085,-0.245
01:34:57.564:1,0.075,-0.25
01:34:57.568:1,0.09,-0.21
01:34:57.572:1,0.105,-0.08
01:34:57.576:1,0.125,0.135
01:34:57.580:1,0.18,0.425
01:34:57.584:1,0.2,0.675
01:34:57.588:1,0.295,0.81
01:34:57.592:1,0.37,0.815
01:34:57.596:1,0.46,0.65
01:34:57.600:1,0.455,0.21
01:34:57.604:1,0.38,-0.375
01:34:57.608:1,0.205,-0.81
01:34:57.612:1,0.01,-0.97
01:34:57.616:1,-0.185,-0.93
01:34:57.620:1,-0.3,-0.775
01:34:57.624:1,-0.305,-0.6
01:34:57.628:1,-0.265,-0.42
01:34:57.632:1,-0.2,-0.27
01:34:57.636:1,-0.11,-0.21
01:34:57.640:1,-0.02,-0.22
01:34:57.644:1,0.035,-0.215
01:34:57.648:1,0.03,-0.215
01:34:57.652:1,0.035,-0.19
01:34:57.656:1,0.055,-0.175
01:34:57.660:1,0.065,-0.175
01:34:57.664:1,0.085,-0.18
01:34:57.668:1,0.085,-0.2
01:34:57.672:1,0.075,-0.205
01:34:57.676:1,0.055,-0.2
01:34:57.680:1,0.06,-0.215
01:34:57.684:1,0.075,-0.22
01:34:57.688:1,0.06,-0.215
01:34:57.692:1,0.08,-0.23
01:34:57.696:1,0.065,-0.25
01:34:57.700:1,0.05,-0.25
01:34:57.704:1,0.05,-0.265
01:34:57.708:1,0.065,-0.28
01:34:57.712:1,0.06,-0.28
01:34:57.716:1,0.045,-0.275
01:34:57.720:1,0.055,-0.28
01:34:57.724:1,0.065,-0.27
01:34:57.728:1,0.06,-0.255
01:34:57.732:1,0.065,-0.265
01:34:57.736:1,0.07,-0.265
01:34:57.740:1,0.09,-0.26
01:34:57.744:1,0.09,-0.28
01:34:57.748:1,0.075,-0.3
01:34:57.752:1,0.1,-0.305
01:34:57.756:1,0.075,-0.315
01:34:57.760:1,0.075,-0.32
01:34:57.764:1,0.08,-0.33
01:34:57.768:1,0.08,-0.33
01:34:57.772:1,0.09,-0.355
01:34:57.776:1,0.095,-0.35
01:34:57.780:1,0.085,-0.355
01:34:57.784:1,0.065,-0.35
01:34:57.788:1,0.075,-0.315
01:34:57.792:1,0.075,-0.26
01:34:57.796:1,0.07,-0.225
01:34:57.800:1,0.065,-0.225
01:34:57.804:1,0.04,-0.22
01:34:57.808:1,0.045,-0.215
01:34:57.812:1,0.055,-0.195
01:34:57.816:1,0.05,-0.175
01:34:57.820:1,0.06,-0.13
01:34:57.824:1,0.07,-0.14
01:34:57.828:1,0.075,-0.12
01:34:57.832:1,0.11,-0.14
01:34:57.836:1,0.09,-0.125
01:34:57.840:1,0.1,-0.12
01:34:57.844:1,0.095,-0.125
01:34:57.848:1,0.1,-0.1
01:34:57.852:1,0.11,-0.115
01:34:57.856:1,0.115,-0.105
01:34:57.860:1,0.105,-0.08
01:34:57.864:1,0.11,-0.09
01:34:57.868:1,0.12,-0.085
01:34:57.872:1,0.085,-0.1
01:34:57.876:1,0.115,-0.09
01:34:57.880:1,0.135,-0.105
01:34:57.884:1,0.14,-0.125
01:34:57.888:1,0.13,-0.125
01:34:57.892:1,0.14,-0.145
01:34:57.896:1,0.125,-0.16
01:34:57.900:1,0.125,-0.165
01:34:57.904:1,0.12,-0.185
01:34:57.908:1,0.11,-0.2
01:34:57.912:1,0.13,-0.2
01:34:57.916:1,0.12,-0.19
01:34:57.920:1,0.125,-0.195
01:34:57.924:1,0.12,-0.205
01:34:57.928:1,0.12,-0.205
01:34:57.932:1,0.12,-0.22
01:34:57.936:1,0.095,-0.21
01:34:57.940:1,0.1,-0.2
01:34:57.944:1,0.095,-0.21
01:34:57.948:1,0.105,-0.225
01:34:57.952:1,0.09,-0.205
01:34:57.956:1,0.105,-0.185
01:34:57.960:1,0.095,-0.205
01:34:57.964:1,0.105,-0.22
01:34:57.968:1,0.09,-0.225
01:34:57.972:1,0.1,-0.235
01:34:57.976:1,0.115,-0.23
01:34:57.980:1,0.105,-0.24
01:34:57.984:1,0.105,-0.225
01:34:57.988:1,0.115,-0.17
01:34:57.992:1,0.13,-0.115
01:34:57.996:1,0.145,-0.065
01:34:58.000:1,0.14,-0.07
01:34:58.004:1,0.135,-0.075
01:34:58.008:1,0.12,-0.1
01:34:58.012:1,0.105,-0.115
01:34:58.016:1,0.09,-0.145
01:34:58.020:1,0.1,-0.145
01:34:58.024:1,0.055,-0.15
01:34:58.028:1,0.04,-0.19
01:34:58.032:1,0.06,-0.195
01:34:58.036:1,0.05,-0.195
01:34:58.040:1,0.035,-0.215
01:34:58.044:1,0.03,-0.235
01:34:58.048:1,0.025,-0.23
01:34:58.052:1,0.025,-0.23
01:34:58.056:1,0.025,-0.225
01:34:58.060:1,0.03,-0.23
01:34:58.064:1,0.02,-0.255
01:34:58.068:1,0.02,-0.245
01:34:58.072:1,0.015,-0.26
01:34:58.076:1,0.025,-0.245
01:34:58.080:1,0.005,-0.255
01:34:58.084:1,0.02,-0.27
01:34:58.088:1,0.035,-0.275
01:34:58.092:1,0.035,-0.265
01:34:58.096:1,0.025,-0.255
01:34:58.100:1,0.015,-0.24
01:34:58.104:1,0.02,-0.27
01:34:58.108:1,0.025,-0.255
01:34:58.112:1,0.035,-0.26
01:34:58.116:1,0.065,-0.255
01:34:58.120:1,0.045,-0.265
01:34:58.124:1,0.03,-0.285
01:34:58.128:1,0.04,-0.28
01:34:58.132:1,0.04,-0.275
01:34:58.136:1,0.05,-0.28
01:34:58.140:1,0.035,-0.28
01:34:58.144:1,0.04,-0.3
01:34:58.148:1,0.045,-0.31
01:34:58.152:1,0.045,-0.29
01:34:58.156:1,0.035,-0.275
01:34:58.160:1,0.055,-0.255
01:34:58.164:1,0.055,-0.265
01:34:58.168:1,0.06,-0.27
01:34:58.172:1,0.09,-0.275
01:34:58.176:1,0.09,-0.28
01:34:58.180:1,0.095,-0.225
01:34:58.184:1,0.09,-0.14
01:34:58.188:1,0.1,0.035
01:34:58.192:1,0.13,0.275
01:34:58.196:1,0.2,0.545
01:34:58.200:1,0.225,0.785
01:34:58.204:1,0.29,0.915
01:34:58.208:1,0.4,0.89
01:34:58.212:1,0.465,0.72
01:34:58.216:1,0.455,0.235
01:34:58.220:1,0.4,-0.365
01:34:58.224:1,0.275,-0.77
01:34:58.228:1,0.095,-0.85
01:34:58.232:1,-0.125,-0.785
01:34:58.236:1,-0.255,-0.715
01:34:58.240:1,-0.265,-0.57
01:34:58.244:1,-0.24,-0.425
01:34:58.248:1,-0.245,-0.305
01:34:58.252:1,-0.14,-0.26
01:34:58.256:1,-0.045,-0.26
01:34:58.260:1,0.0,-0.275
01:34:58.264:1,0.01,-0.305
01:34:58.268:1,0.045,-0.3
01:34:58.272:1,0.04,-0.285
01:34:58.276:1,0.035,-0.285
01:34:58.280:1,0.035,-0.32
01:34:58.284:1,0.025,-0.295
01:34:58.288:1,0.02,-0.315
01:34:58.292:1,0.005,-0.31
01:34:58.296:1,0.025,-0.305
01:34:58.300:1,0.01,-0.315
01:34:58.304:1,0.0,-0.33
01:34:58.308:1,0.015,-0.305
01:34:58.312:1,0.015,-0.295
01:34:58.316:1,0.025,-0.295
01:34:58.320:1,0.025,-0.31
01:34:58.324:1,0.04,-0.3
01:34:58.328:1,0.04,-0.315
01:34:58.332:1,0.035,-0.31
01:34:58.336:1,0.04,-0.315
01:34:58.340:1,0.035,-0.32
01:34:58.344:1,0.05,-0.32
01:34:58.348:1,0.06,-0.285
01:34:58.352:1,0.06,-0.25
01:34:58.356:1,0.1,-0.21
01:34:58.360:1,0.075,-0.21
01:34:58.364:1,0.09,-0.225
01:34:58.368:1,0.07,-0.245
01:34:58.372:1,0.065,-0.245
01:34:58.376:1,0.055,-0.25
01:34:58.380:1,0.04,-0.26
01:34:58.384:1,0.035,-0.26
01:34:58.388:1,0.025,-0.25
01:34:58.392:1,-0.005,-0.25
01:34:58.396:1,-0.005,-0.265
01:34:58.400:1,0.0,-0.28
01:34:58.404:1,0.0,-0.29
01:34:58.408:1,0.0,-0.305
01:34:58.412:1,-0.01,-0.295
01:34:58.416:1,-0.01,-0.295
01:34:58.420:1,-0.02,-0.28
01:34:58.424:1,0.0,-0.29
01:34:58.428:1,-0.005,-0.285
01:34:58.432:1,-0.005,-0.265
01:34:58.436:1,0.0,-0.27
01:34:58.440:1,0.005,-0.265
01:34:58.444:1,0.005,-0.255
01:34:58.448:1,0.0,-0.22
01:34:58.452:1,0.02,-0.2
01:34:58.456:1,0.015,-0.215
01:34:58.460:1,0.03,-0.205
01:34:58.464:1,0.02,-0.185
01:34:58.468:1,0.035,-0.175
01:34:58.472:1,0.025,-0.135
01:34:58.476:1,0.03,-0.12
01:34:58.480:1,0.05,-0.12
01:34:58.484:1,0.07,-0.125
01:34:58.488:1,0.065,-0.11
01:34:58.492:1,0.07,-0.14
01:34:58.496:1,0.095,-0.145
01:34:58.500:1,0.085,-0.155
01:34:58.504:1,0.095,-0.155
01:34:58.508:1,0.08,-0.155
01:34:58.512:1,0.085,-0.17
01:34:58.516:1,0.085,-0.165
01:34:58.520:1,0.095,-0.17
01:34:58.524:1,0.095,-0.175
01:34:58.528:1,0.105,-0.16
01:34:58.532:1,0.11,-0.16
01:34:58.536:1,0.125,-0.17
01:34:58.540:1,0.135,-0.18
01:34:58.544:1,0.14,-0.165
01:34:58.548:1,0.125,-0.12
01:34:58.552:1,0.165,-0.07
01:34:58.556:1,0.18,-0.05
01:34:58.560:1,0.19,-0.055
01:34:58.564:1,0.19,-0.08
01:34:58.568:1,0.16,-0.08
01:34:58.572:1,0.13,-0.065
01:34:58.576:1,0.145,-0.08
01:34:58.580:1,0.125,-0.115
01:34:58.584:1,0.11,-0.12
01:34:58.588:1,0.095,-0.135
01:34:58.592:1,0.075,-0.14
01:34:58.596:1,0.08,-0.145
01:34:58.600:1,0.08,-0.13
01:34:58.604:1,0.08,-0.13
01:34:58.608:1,0.085,-0.135
01:34:58.612:1,0.075,-0.155
01:34:58.616:1,0.09,-0.18
01:34:58.620:1,0.095,-0.2
01:34:58.624:1,0.08,-0.22
01:34:58.628:1,0.065,-0.15
01:34:58.632:1,0.065,0.02
01:34:58.636:1,0.1,0.255
01:34:58.640:1,0.145,0.515
01:34:58.644:1,0.195,0.645
01:34:58.648:1,0.295,0.625
01:34:58.652:1,0.4,0.495
01:34:58.656:1,0.425,0.16
01:34:58.660:1,0.41,-0.385
01:34:58.664:1,0.345,-0.73
01:34:58.668:1,0.155,-0.765
01:34:58.672:1,-0.09,-0.73
01:34:58.676:1,-0.235,-0.68
01:34:58.680:1,-0.275,-0.57
01:34:58.684:1,-0.255,-0.45
01:34:58.688:1,-0.245,-0.325
01:34:58.692:1,-0.16,-0.225
01:34:58.696:1,-0.05,-0.2
01:34:58.700:1,0.01,-0.235
01:34:58.704:1,0.06,-0.275
01:34:58.708:1,0.05,-0.275
01:34:58.712:1,0.07,-0.27
01:34:58.716:1,0.065,-0.285
01:34:58.720:1,0.06,-0.305
01:34:58.724:1,0.04,-0.335
01:34:58.728:1,0.055,-0.34
01:34:58.732:1,0.055,-0.325
01:34:58.736:1,0.045,-0.275
01:34:58.740:1,0.075,-0.24
01:34:58.744:1,0.09,-0.235
01:34:58.748:1,0.085,-0.24
01:34:58.752:1,0.075,-0.24
01:34:58.756:1,0.065,-0.255
01:34:58.760:1,0.085,-0.26
01:34:58.764:1,0.045,-0.25
01:34:58.768:1,0.05,-0.255
01:34:58.772:1,0.045,-0.265
01:34:58.776:1,0.045,-0.27
01:34:58.780:1,0.03,-0.275
01:34:58.784:1,0.015,-0.28
01:34:58.788:1,0.01,-0.275
01:34:58.792:1,0.02,-0.27
01:34:58.796:1,0.025,-0.27
01:34:58.800:1,0.02,-0.26
01:34:58.804:1,0.0,-0.26
01:34:58.808:1,0.01,-0.275
01:34:58.812:1,0.03,-0.255
01:34:58.816:1,0.03,-0.255
01:34:58.820:1,0.025,-0.235
01:34:58.824:1,0.02,-0.24
01:34:58.828:1,0.04,-0.215
01:34:58.832:1,0.035,-0.215
01:34:58.836:1,0.03,-0.235
01:34:58.840:1,0.035,-0.23
01:34:58.844:1,0.025,-0.195
01:34:58.848:1,0.03,-0.205
01:34:58.852:1,0.04,-0.18
01:34:58.856:1,0.035,-0.16
01:34:58.860:1,0.05,-0.175
01:34:58.864:1,0.03,-0.18
01:34:58.868:1,0.05,-0.16
01:34:58.872:1,0.07,-0.145
01:34:58.876:1,0.08,-0.14
01:34:58.880:1,0.07,-0.135
01:34:58.884:1,0.075,-0.12
01:34:58.888:1,0.075,-0.125
01:34:58.892:1,0.075,-0.11
01:34:58.896:1,0.07,-0.1
01:34:58.900:1,0.07,-0.11
01:34:58.904:1,0.11,-0.11
01:34:58.908:1,0.12,-0.105
01:34:58.912:1,0.11,-0.1
01:34:58.916:1,0.125,-0.085
01:34:58.920:1,0.145,-0.04
01:34:58.924:1,0.17,-0.015
01:34:58.928:1,0.17,-0.005
01:34:58.932:1,0.155,0.005
01:34:58.936:1,0.145,-0.015
01:34:58.940:1,0.17,-0.04
01:34:58.944:1,0.18,-0.055
01:34:58.948:1,0.155,-0.09
01:34:58.952:1,0.145,-0.08
01:34:58.956:1,0.125,-0.135
01:34:58.960:1,0.105,-0.15
01:34:58.964:1,0.085,-0.18
01:34:58.968:1,0.085,-0.195
01:34:58.972:1,0.08,-0.205
01:34:58.976:1,0.05,-0.205
01:34:58.980:1,0.075,-0.215
01:34:58.984:1,0.08,-0.23
01:34:58.988:1,0.07,-0.235
01:34:58.992:1,0.075,-0.21
01:34:58.996:1,0.07,-0.22
01:34:59.000:1,0.06,-0.23
01:34:59.004:1,0.08,-0.23
01:34:59.008:1,0.075,-0.23
01:34:59.012:1,0.085,-0.22
01:34:59.016:1,0.09,-0.24
01:34:59.020:1,0.06,-0.24
01:34:59.024:1,0.07,-0.245
01:34:59.028:1,0.08,-0.26
01:34:59.032:1,0.065,-0.25
01:34:59.036:1,0.09,-0.26
01:34:59.040:1,0.08,-0.275
01:34:59.044:1,0.07,-0.28
01:34:59.048:1,0.065,-0.285
01:34:59.052:1,0.065,-0.305
01:34:59.056:1,0.06,-0.295
01:34:59.060:1,0.06,-0.305
01:34:59.064:1,0.06,-0.295
01:34:59.068:1,0.085,-0.305
01:34:59.072:1,0.095,-0.3
01:34:59.076:1,0.095,-0.3
01:34:59.080:1,0.075,-0.32
01:34:59.084:1,0.105,-0.315
01:34:59.088:1,0.1,-0.275
01:34:59.092:1,0.115,-0.225
01:34:59.096:1,0.12,-0.19
01:34:59.100:1,0.115,-0.145
01:34:59.104:1,0.095,-0.125
01:34:59.108:1,0.1,-0.115
01:34:59.112:1,0.12,-0.115
01:34:59.116:1,0.125,-0.12
01:34:59.120:1,0.125,-0.14
01:34:59.124:1,0.125,-0.18
01:34:59.128:1,0.11,-0.195
01:34:59.132:1,0.11,-0.125
01:34:59.136:1,0.13,0.025
01:34:59.140:1,0.145,0.27
01:34:59.144:1,0.18,0.555
01:34:59.148:1,0.26,0.74
01:34:59.152:1,0.35,0.8
01:34:59.156:1,0.475,0.725
01:34:59.160:1,0.49,0.405
01:34:59.164:1,0.445,-0.17
01:34:59.168:1,0.355,-0.62
01:34:59.172:1,0.185,-0.82
01:34:59.176:1,0.0,-0.81
01:34:59.180:1,-0.14,-0.77
01:34:59.184:1,-0.22,-0.655
01:34:59.188:1,-0.22,-0.52
01:34:59.192:1,-0.215,-0.4
01:34:59.196:1,-0.13,-0.335
01:34:59.200:1,-0.055,-0.315
01:34:59.204:1,-0.01,-0.335
01:34:59.208:1,0.03,-0.34
01:34:59.212:1,0.04,-0.35
01:34:59.216:1,0.04,-0.35
01:34:59.220:1,0.035,-0.345
01:34:59.224:1,0.045,-0.355
01:34:59.228:1,0.02,-0.345
01:34:59.232:1,0.035,-0.35
01:34:59.236:1,0.045,-0.34
01:34:59.240:1,0.03,-0.34
01:34:59.244:1,0.035,-0.355
01:34:59.248:1,0.055,-0.365
01:34:59.252:1,0.08,-0.35
01:34:59.256:1,0.065,-0.34
01:34:59.260:1,0.075,-0.32
01:34:59.264:1,0.095,-0.265
01:34:59.268:1,0.1,-0.2
01:34:59.272:1,0.085,-0.175
01:34:59.276:1,0.085,-0.16
01:34:59.280:1,0.09,-0.18
01:34:59.284:1,0.09,-0.185
01:34:59.288:1,0.095,-0.18
01:34:59.292:1,0.095,-0.2
01:34:59.296:1,0.07,-0.22
01:34:59.300:1,0.075,-0.245
01:34:59.304:1,0.06,-0.25
01:34:59.308:1,0.05,-0.26
01:34:59.312:1,0.035,-0.285
01:34:59.316:1,0.035,-0.29
01:34:59.320:1,0.04,-0.29
01:34:59.324:1,0.04,-0.32
01:34:59.328:1,0.06,-0.315
01:34:59.332:1,0.035,-0.325
01:34:59.336:1,0.025,-0.335
01:34:59.340:1,0.035,-0.355
01:34:59.344:1,0.02,-0.36
01:34:59.348:1,0.02,-0.34
01:34:59.352:1,0.04,-0.35
01:34:59.356:1,0.025,-0.345
01:34:59.360:1,0.035,-0.34
01:34:59.364:1,0.03,-0.34
01:34:59.368:1,0.035,-0.34
01:34:59.372:1,0.045,-0.33
01:34:59.376:1,0.06,-0.33
01:34:59.380:1,0.05,-0.32
01:34:59.384:1,0.065,-0.3
01:34:59.388:1,0.04,-0.28
01:34:59.392:1,0.055,-0.27
01:34:59.396:1,0.04,-0.245
01:34:59.400:1,0.065,-0.235
01:34:59.404:1,0.065,-0.215
01:34:59.408:1,0.075,-0.2
01:34:59.412:1,0.1,-0.195
01:34:59.416:1,0.095,-0.185
