Time,ECG1,ECG2
02:12:15.420:1,-0.13,-0.32
02:12:15.424:1,-0.17,-0.34
02:12:15.428:1,-0.165,-0.355
02:12:15.432:1,-0.16,-0.3
02:12:15.436:1,-0.155,-0.27
02:12:15.440:1,-0.135,-0.26
02:12:15.444:1,-0.12,-0.245
02:12:15.448:1,-0.14,-0.26
02:12:15.452:1,-0.135,-0.235
02:12:15.456:1,-0.155,-0.24
02:12:15.460:1,-0.165,-0.235
02:12:15.464:1,-0.155,-0.24
02:12:15.468:1,-0.14,-0.235
02:12:15.472:1,-0.155,-0.245
02:12:15.476:1,-0.175,-0.235
02:12:15.480:1,-0.175,-0.24
02:12:15.484:1,-0.165,-0.21
02:12:15.488:1,-0.17,-0.245
02:12:15.492:1,-0.175,-0.26
02:12:15.496:1,-0.165,-0.28
02:12:15.500:1,-0.18,-0.27
02:12:15.504:1,-0.185,-0.28
02:12:15.508:1,-0.175,-0.27
02:12:15.512:1,-0.185,-0.29
02:12:15.516:1,-0.205,-0.305
02:12:15.520:1,-0.21,-0.3
02:12:15.524:1,-0.235,-0.31
02:12:15.528:1,-0.22,-0.305
02:12:15.532:1,-0.21,-0.31
02:12:15.536:1,-0.24,-0.295
02:12:15.540:1,-0.23,-0.295
02:12:15.544:1,-0.24,-0.295
02:12:15.548:1,-0.235,-0.27
02:12:15.552:1,-0.245,-0.27
02:12:15.556:1,-0.24,-0.255
02:12:15.560:1,-0.23,-0.255
02:12:15.564:1,-0.24,-0.23
02:12:15.568:1,-0.235,-0.225
02:12:15.572:1,-0.225,-0.225
02:12:15.576:1,-0.215,-0.2
02:12:15.580:1,-0.215,-0.16
02:12:15.584:1,-0.185,-0.12
02:12:15.588:1,-0.18,-0.09
02:12:15.592:1,-0.18,-0.07
02:12:15.596:1,-0.19,-0.035
02:12:15.600:1,-0.19,-0.045
02:12:15.604:1,-0.185,-0.025
02:12:15.608:1,-0.16,-0.035
02:12:15.612:1,-0.165,-0.035
02:12:15.616:1,-0.15,-0.055
02:12:15.620:1,-0.14,-0.04
02:12:15.624:1,-0.14,-0.05
02:12:15.628:1,-0.125,-0.035
02:12:15.632:1,-0.125,-0.015
02:12:15.636:1,-0.12,-0.03
02:12:15.640:1,-0.095,-0.035
02:12:15.644:1,-0.08,-0.025
02:12:15.648:1,-0.06,-0.02
02:12:15.652:1,-0.06,-0.045
02:12:15.656:1,-0.04,-0.065
02:12:15.660:1,-0.03,-0.07
02:12:15.664:1,-0.005,-0.09
02:12:15.668:1,0.005,-0.08
02:12:15.672:1,-0.005,-0.1
02:12:15.676:1,0.01,-0.115
02:12:15.680:1,0.015,-0.115
02:12:15.684:1,0.015,-0.11
02:12:15.688:1,0.01,-0.145
02:12:15.692:1,0.005,-0.16
02:12:15.696:1,0.01,-0.17
02:12:15.700:1,0.0,-0.18
02:12:15.704:1,0.0,-0.2
02:12:15.708:1,0.01,-0.2
02:12:15.712:1,0.0,-0.22
02:12:15.716:1,-0.005,-0.245
02:12:15.720:1,0.005,-0.26
02:12:15.724:1,0.005,-0.22
02:12:15.728:1,0.0,-0.17
02:12:15.732:1,0.01,-0.165
02:12:15.736:1,-0.005,-0.17
02:12:15.740:1,-0.005,-0.14
02:12:15.744:1,-0.02,-0.135
02:12:15.748:1,-0.015,-0.13
02:12:15.752:1,-0.025,-0.11
02:12:15.756:1,-0.015,-0.13
02:12:15.760:1,-0.025,-0.14
02:12:15.764:1,-0.035,-0.14
02:12:15.768:1,-0.025,-0.15
02:12:15.772:1,-0.035,-0.155
02:12:15.776:1,-0.045,-0.16
02:12:15.780:1,-0.06,-0.16
02:12:15.784:1,-0.065,-0.18
02:12:15.788:1,-0.045,-0.185
02:12:15.792:1,-0.045,-0.175
02:12:15.796:1,-0.06,-0.195
02:12:15.800:1,-0.05,-0.175
02:12:15.804:1,-0.045,-0.155
02:12:15.808:1,-0.06,-0.14
02:12:15.812:1,-0.045,-0.175
02:12:15.816:1,-0.03,-0.18
02:12:15.820:1,-0.04,-0.175
02:12:15.824:1,-0.03,-0.185
02:12:15.828:1,-0.005,-0.195
02:12:15.832:1,-0.005,-0.195
02:12:15.836:1,0.0,-0.19
02:12:15.840:1,-0.015,-0.21
02:12:15.844:1,0.005,-0.195
02:12:15.848:1,-0.025,-0.2
02:12:15.852:1,-0.015,-0.215
02:12:15.856:1,-0.02,-0.21
02:12:15.860:1,-0.02,-0.17
02:12:15.864:1,-0.035,-0.095
02:12:15.868:1,-0.02,0.035
02:12:15.872:1,0.01,0.285
02:12:15.876:1,0.03,0.515
02:12:15.880:1,0.055,0.695
02:12:15.884:1,0.13,0.725
02:12:15.888:1,0.21,0.55
02:12:15.892:1,0.29,0.14
02:12:15.896:1,0.305,-0.44
02:12:15.900:1,0.275,-0.87
02:12:15.904:1,0.195,-1.045
02:12:15.908:1,0.065,-1.06
02:12:15.912:1,-0.115,-0.925
02:12:15.916:1,-0.24,-0.735
02:12:15.920:1,-0.295,-0.605
02:12:15.924:1,-0.3,-0.47
02:12:15.928:1,-0.315,-0.355
02:12:15.932:1,-0.285,-0.285
02:12:15.936:1,-0.24,-0.21
02:12:15.940:1,-0.175,-0.19
02:12:15.944:1,-0.14,-0.19
02:12:15.948:1,-0.095,-0.22
02:12:15.952:1,-0.085,-0.22
02:12:15.956:1,-0.07,-0.225
02:12:15.960:1,-0.09,-0.22
02:12:15.964:1,-0.09,-0.225
02:12:15.968:1,-0.08,-0.215
02:12:15.972:1,-0.09,-0.18
02:12:15.976:1,-0.08,-0.195
02:12:15.980:1,-0.07,-0.19
02:12:15.984:1,-0.05,-0.175
02:12:15.988:1,-0.04,-0.21
02:12:15.992:1,-0.035,-0.24
02:12:15.996:1,-0.04,-0.24
02:12:16.000:1,-0.045,-0.225
02:12:16.004:1,-0.05,-0.235
02:12:16.008:1,-0.04,-0.24
02:12:16.012:1,-0.045,-0.26
02:12:16.016:1,-0.05,-0.275
02:12:16.020:1,-0.055,-0.25
02:12:16.024:1,-0.045,-0.245
02:12:16.028:1,-0.045,-0.255
02:12:16.032:1,-0.05,-0.26
02:12:16.036:1,-0.035,-0.275
02:12:16.040:1,-0.045,-0.25
02:12:16.044:1,-0.035,-0.245
02:12:16.048:1,-0.035,-0.205
02:12:16.052:1,-0.015,-0.18
02:12:16.056:1,-0.04,-0.145
02:12:16.060:1,-0.045,-0.155
02:12:16.064:1,-0.05,-0.135
02:12:16.068:1,-0.045,-0.13
02:12:16.072:1,-0.07,-0.145
02:12:16.076:1,-0.055,-0.145
02:12:16.080:1,-0.085,-0.15
02:12:16.084:1,-0.075,-0.13
02:12:16.088:1,-0.09,-0.14
02:12:16.092:1,-0.1,-0.15
02:12:16.096:1,-0.115,-0.15
02:12:16.100:1,-0.08,-0.135
02:12:16.104:1,-0.07,-0.125
02:12:16.108:1,-0.09,-0.14
02:12:16.112:1,-0.075,-0.135
02:12:16.116:1,-0.065,-0.135
02:12:16.120:1,-0.075,-0.105
02:12:16.124:1,-0.035,-0.09
02:12:16.128:1,-0.055,-0.105
02:12:16.132:1,-0.04,-0.12
02:12:16.136:1,-0.06,-0.08
02:12:16.140:1,-0.02,-0.085
02:12:16.144:1,-0.04,-0.075
02:12:16.148:1,-0.045,-0.07
02:12:16.152:1,-0.02,-0.09
02:12:16.156:1,0.02,-0.1
02:12:16.160:1,-0.005,-0.11
02:12:16.164:1,0.01,-0.125
02:12:16.168:1,0.0,-0.135
02:12:16.172:1,0.0,-0.13
02:12:16.176:1,-0.005,-0.095
02:12:16.180:1,0.02,-0.06
02:12:16.184:1,0.035,-0.055
02:12:16.188:1,0.035,-0.04
02:12:16.192:1,0.025,-0.045
02:12:16.196:1,0.03,-0.03
02:12:16.200:1,0.015,-0.04
02:12:16.204:1,0.01,-0.035
02:12:16.208:1,0.035,-0.045
02:12:16.212:1,0.01,-0.055
02:12:16.216:1,0.005,-0.065
02:12:16.220:1,0.005,-0.05
02:12:16.224:1,0.0,-0.065
02:12:16.228:1,-0.005,-0.055
02:12:16.232:1,-0.015,-0.065
02:12:16.236:1,-0.005,-0.07
02:12:16.240:1,-0.025,-0.065
02:12:16.244:1,-0.015,-0.065
02:12:16.248:1,-0.03,-0.075
02:12:16.252:1,-0.01,-0.08
02:12:16.256:1,-0.015,-0.08
02:12:16.260:1,-0.03,-0.085
02:12:16.264:1,-0.005,-0.08
02:12:16.268:1,-0.015,-0.1
02:12:16.272:1,-0.015,-0.095
02:12:16.276:1,-0.015,-0.11
02:12:16.280:1,0.0,-0.105
02:12:16.284:1,-0.015,-0.09
02:12:16.288:1,0.0,-0.13
02:12:16.292:1,0.015,-0.115
02:12:16.296:1,0.005,-0.11
02:12:16.300:1,0.0,-0.095
02:12:16.304:1,0.0,-0.11
02:12:16.308:1,0.015,-0.115
02:12:16.312:1,0.015,-0.14
02:12:16.316:1,0.04,-0.16
02:12:16.320:1,0.025,-0.19
02:12:16.324:1,0.0,-0.195
02:12:16.328:1,0.015,-0.155
02:12:16.332:1,0.045,-0.115
02:12:16.336:1,0.045,-0.07
02:12:16.340:1,0.04,-0.085
02:12:16.344:1,0.045,-0.075
02:12:16.348:1,0.02,-0.08
02:12:16.352:1,0.01,-0.1
02:12:16.356:1,0.005,-0.105
02:12:16.360:1,0.01,-0.125
02:12:16.364:1,-0.005,-0.14
02:12:16.368:1,0.0,-0.155
02:12:16.372:1,0.01,-0.155
02:12:16.376:1,-0.015,-0.145
02:12:16.380:1,-0.02,-0.155
02:12:16.384:1,-0.02,-0.16
02:12:16.388:1,-0.025,-0.165
02:12:16.392:1,-0.015,-0.15
02:12:16.396:1,0.0,-0.15
02:12:16.400:1,0.0,-0.135
02:12:16.404:1,-0.01,-0.145
02:12:16.408:1,0.0,-0.155
02:12:16.412:1,0.0,-0.155
02:12:16.416:1,0.005,-0.155
02:12:16.420:1,0.005,-0.14
02:12:16.424:1,0.01,-0.135
02:12:16.428:1,0.005,-0.145
02:12:16.432:1,0.0,-0.145
02:12:16.436:1,0.005,-0.15
02:12:16.440:1,0.0,-0.17
02:12:16.444:1,0.0,-0.16
02:12:16.448:1,-0.01,-0.165
02:12:16.452:1,0.005,-0.175
02:12:16.456:1,0.005,-0.175
02:12:16.460:1,0.02,-0.155
02:12:16.464:1,0.01,-0.165
02:12:16.468:1,0.005,-0.155
02:12:16.472:1,0.01,-0.155
02:12:16.476:1,0.025,-0.135
02:12:16.480:1,0.025,-0.145
02:12:16.484:1,0.04,-0.15
02:12:16.488:1,0.035,-0.12
02:12:16.492:1,0.06,0.02
02:12:16.496:1,0.105,0.295
02:12:16.500:1,0.13,0.605
02:12:16.504:1,0.165,0.88
02:12:16.508:1,0.235,0.945
02:12:16.512:1,0.315,0.8
02:12:16.516:1,0.375,0.4
02:12:16.520:1,0.34,-0.235
02:12:16.524:1,0.28,-0.76
02:12:16.528:1,0.145,-1.015
02:12:16.532:1,-0.055,-1.04
02:12:16.536:1,-0.22,-0.915
02:12:16.540:1,-0.32,-0.72
02:12:16.544:1,-0.38,-0.54
02:12:16.548:1,-0.345,-0.435
02:12:16.552:1,-0.295,-0.33
02:12:16.556:1,-0.22,-0.245
02:12:16.560:1,-0.145,-0.195
02:12:16.564:1,-0.1,-0.205
02:12:16.568:1,-0.05,-0.225
02:12:16.572:1,-0.035,-0.215
02:12:16.576:1,-0.05,-0.21
02:12:16.580:1,-0.045,-0.195
02:12:16.584:1,-0.035,-0.205
02:12:16.588:1,-0.055,-0.22
02:12:16.592:1,-0.05,-0.225
02:12:16.596:1,-0.035,-0.21
02:12:16.600:1,-0.045,-0.21
02:12:16.604:1,-0.04,-0.195
02:12:16.608:1,-0.04,-0.19
02:12:16.612:1,-0.04,-0.185
02:12:16.616:1,-0.03,-0.19
02:12:16.620:1,-0.005,-0.17
02:12:16.624:1,0.0,-0.16
02:12:16.628:1,-0.015,-0.135
02:12:16.632:1,0.0,-0.16
02:12:16.636:1,0.025,-0.16
02:12:16.640:1,0.015,-0.18
02:12:16.644:1,0.03,-0.19
02:12:16.648:1,0.04,-0.18
02:12:16.652:1,0.04,-0.135
02:12:16.656:1,0.05,-0.105
02:12:16.660:1,0.045,-0.09
02:12:16.664:1,0.015,-0.08
02:12:16.668:1,0.01,-0.085
02:12:16.672:1,0.02,-0.09
02:12:16.676:1,0.02,-0.095
02:12:16.680:1,0.02,-0.1
02:12:16.684:1,0.005,-0.115
02:12:16.688:1,-0.01,-0.135
02:12:16.692:1,-0.02,-0.145
02:12:16.696:1,-0.015,-0.145
02:12:16.700:1,-0.01,-0.155
02:12:16.704:1,-0.04,-0.15
02:12:16.708:1,-0.045,-0.145
02:12:16.712:1,-0.045,-0.155
02:12:16.716:1,-0.06,-0.155
02:12:16.720:1,-0.045,-0.145
02:12:16.724:1,-0.05,-0.15
02:12:16.728:1,-0.05,-0.145
02:12:16.732:1,-0.06,-0.15
02:12:16.736:1,-0.045,-0.145
02:12:16.740:1,-0.045,-0.135
02:12:16.744:1,-0.05,-0.115
02:12:16.748:1,-0.04,-0.125
02:12:16.752:1,-0.035,-0.12
02:12:16.756:1,-0.035,-0.09
02:12:16.760:1,-0.025,-0.075
02:12:16.764:1,-0.015,-0.075
02:12:16.768:1,0.0,-0.05
02:12:16.772:1,-0.01,-0.04
02:12:16.776:1,0.015,-0.01
02:12:16.780:1,0.03,-0.01
02:12:16.784:1,0.03,0.015
02:12:16.788:1,0.045,0.055
02:12:16.792:1,0.065,0.07
02:12:16.796:1,0.105,0.07
02:12:16.800:1,0.1,0.095
02:12:16.804:1,0.09,0.095
02:12:16.808:1,0.09,0.085
02:12:16.812:1,0.075,0.06
02:12:16.816:1,0.07,0.06
02:12:16.820:1,0.065,0.06
02:12:16.824:1,0.06,0.025
02:12:16.828:1,0.045,0.01
02:12:16.832:1,0.025,0.0
02:12:16.836:1,0.03,0.0
02:12:16.840:1,0.025,0.01
02:12:16.844:1,0.025,-0.025
02:12:16.848:1,0.035,-0.04
02:12:16.852:1,0.02,-0.035
02:12:16.856:1,0.01,-0.05
02:12:16.860:1,0.0,-0.06
02:12:16.864:1,0.01,-0.07
02:12:16.868:1,-0.01,-0.09
02:12:16.872:1,0.0,-0.09
02:12:16.876:1,-0.005,-0.1
02:12:16.880:1,-0.005,-0.095
02:12:16.884:1,0.0,-0.105
02:12:16.888:1,0.0,-0.125
02:12:16.892:1,-0.015,-0.13
02:12:16.896:1,-0.02,-0.12
02:12:16.900:1,-0.01,-0.14
02:12:16.904:1,-0.025,-0.125
02:12:16.908:1,-0.02,-0.16
02:12:16.912:1,-0.025,-0.195
02:12:16.916:1,-0.005,-0.195
02:12:16.920:1,-0.025,-0.205
02:12:16.924:1,-0.055,-0.21
02:12:16.928:1,-0.05,-0.22
02:12:16.932:1,-0.065,-0.22
02:12:16.936:1,-0.04,-0.22
02:12:16.940:1,-0.025,-0.21
02:12:16.944:1,-0.015,-0.215
02:12:16.948:1,-0.015,-0.18
02:12:16.952:1,-0.015,-0.115
02:12:16.956:1,-0.015,-0.065
02:12:16.960:1,0.0,-0.035
02:12:16.964:1,0.02,-0.045
02:12:16.968:1,0.01,-0.075
02:12:16.972:1,0.035,-0.08
02:12:16.976:1,0.01,-0.07
02:12:16.980:1,0.02,-0.065
02:12:16.984:1,0.03,-0.08
02:12:16.988:1,0.005,-0.1
02:12:16.992:1,0.0,-0.1
02:12:16.996:1,0.0,-0.095
02:12:17.000:1,0.005,-0.1
02:12:17.004:1,-0.005,-0.095
02:12:17.008:1,-0.015,-0.105
02:12:17.012:1,0.0,-0.105
02:12:17.016:1,0.0,-0.09
02:12:17.020:1,0.01,-0.075
02:12:17.024:1,0.005,-0.06
02:12:17.028:1,0.015,0.01
02:12:17.032:1,0.05,0.205
02:12:17.036:1,0.065,0.435
02:12:17.040:1,0.08,0.68
02:12:17.044:1,0.14,0.835
02:12:17.048:1,0.2,0.785
02:12:17.052:1,0.305,0.485
02:12:17.056:1,0.335,-0.055
02:12:17.060:1,0.295,-0.625
02:12:17.064:1,0.185,-0.95
02:12:17.068:1,0.035,-1.045
02:12:17.072:1,-0.15,-0.94
02:12:17.076:1,-0.28,-0.76
02:12:17.080:1,-0.345,-0.58
02:12:17.084:1,-0.34,-0.45
02:12:17.088:1,-0.29,-0.32
02:12:17.092:1,-0.215,-0.245
02:12:17.096:1,-0.115,-0.235
02:12:17.100:1,-0.04,-0.25
02:12:17.104:1,-0.035,-0.28
02:12:17.108:1,-0.015,-0.24
02:12:17.112:1,0.0,-0.17
02:12:17.116:1,0.005,-0.11
02:12:17.120:1,0.0,-0.105
02:12:17.124:1,0.02,-0.13
02:12:17.128:1,0.01,-0.135
02:12:17.132:1,0.0,-0.16
02:12:17.136:1,-0.01,-0.175
02:12:17.140:1,-0.015,-0.18
02:12:17.144:1,-0.045,-0.195
02:12:17.148:1,-0.05,-0.22
02:12:17.152:1,-0.035,-0.22
02:12:17.156:1,-0.04,-0.22
02:12:17.160:1,-0.025,-0.225
02:12:17.164:1,-0.04,-0.245
02:12:17.168:1,-0.055,-0.225
02:12:17.172:1,-0.055,-0.24
02:12:17.176:1,-0.05,-0.24
02:12:17.180:1,-0.05,-0.26
02:12:17.184:1,-0.07,-0.255
02:12:17.188:1,-0.065,-0.26
02:12:17.192:1,-0.04,-0.255
02:12:17.196:1,-0.055,-0.235
02:12:17.200:1,-0.045,-0.235
02:12:17.204:1,-0.055,-0.245
02:12:17.208:1,-0.04,-0.23
02:12:17.212:1,-0.04,-0.23
02:12:17.216:1,-0.055,-0.225
02:12:17.220:1,-0.06,-0.215
02:12:17.224:1,-0.065,-0.22
02:12:17.228:1,-0.08,-0.235
02:12:17.232:1,-0.06,-0.19
02:12:17.236:1,-0.055,-0.19
02:12:17.240:1,-0.035,-0.2
02:12:17.244:1,-0.05,-0.2
02:12:17.248:1,-0.05,-0.2
02:12:17.252:1,-0.025,-0.195
02:12:17.256:1,-0.025,-0.19
02:12:17.260:1,-0.01,-0.19
02:12:17.264:1,-0.04,-0.18
02:12:17.268:1,-0.025,-0.175
02:12:17.272:1,-0.015,-0.17
02:12:17.276:1,0.0,-0.135
02:12:17.280:1,-0.005,-0.055
02:12:17.284:1,0.025,0.0
02:12:17.288:1,0.03,0.035
02:12:17.292:1,0.05,0.045
02:12:17.296:1,0.07,0.045
02:12:17.300:1,0.075,0.035
02:12:17.304:1,0.045,0.02
02:12:17.308:1,0.035,0.025
02:12:17.312:1,0.025,0.035
02:12:17.316:1,0.005,0.015
02:12:17.320:1,-0.01,0.005
02:12:17.324:1,0.0,-0.01
02:12:17.328:1,-0.025,-0.005
02:12:17.332:1,-0.01,-0.015
02:12:17.336:1,-0.01,-0.03
02:12:17.340:1,-0.005,-0.035
02:12:17.344:1,-0.025,-0.045
02:12:17.348:1,0.0,-0.06
02:12:17.352:1,0.0,-0.06
02:12:17.356:1,0.015,-0.065
02:12:17.360:1,0.015,-0.055
02:12:17.364:1,0.0,-0.07
02:12:17.368:1,-0.005,-0.085
02:12:17.372:1,-0.01,-0.095
02:12:17.376:1,-0.005,-0.085
02:12:17.380:1,0.0,-0.08
02:12:17.384:1,-0.005,-0.09
02:12:17.388:1,0.015,-0.09
02:12:17.392:1,0.015,-0.09
02:12:17.396:1,0.0,-0.085
02:12:17.400:1,0.0,-0.08
02:12:17.404:1,-0.01,-0.12
02:12:17.408:1,0.01,-0.105
02:12:17.412:1,0.0,-0.1
02:12:17.416:1,-0.02,-0.095
02:12:17.420:1,0.005,-0.125
02:12:17.424:1,0.005,-0.14
02:12:17.428:1,0.0,-0.15
02:12:17.432:1,-0.005,-0.155
02:12:17.436:1,0.025,-0.17
02:12:17.440:1,0.02,-0.155
02:12:17.444:1,0.025,-0.125
02:12:17.448:1,0.04,-0.07
02:12:17.452:1,0.06,-0.05
02:12:17.456:1,0.05,-0.05
02:12:17.460:1,0.055,-0.03
02:12:17.464:1,0.04,-0.06
02:12:17.468:1,0.03,-0.05
02:12:17.472:1,0.035,-0.045
02:12:17.476:1,0.06,-0.05
02:12:17.480:1,0.05,-0.03
02:12:17.484:1,0.04,-0.055
02:12:17.488:1,0.04,-0.085
02:12:17.492:1,0.035,-0.1
02:12:17.496:1,0.025,-0.1
02:12:17.500:1,0.0,-0.14
02:12:17.504:1,0.0,-0.14
02:12:17.508:1,-0.015,-0.085
02:12:17.512:1,-0.01,0.015
02:12:17.516:1,-0.015,0.205
02:12:17.520:1,0.015,0.44
02:12:17.524:1,0.025,0.615
02:12:17.528:1,0.09,0.57
02:12:17.532:1,0.175,0.335
02:12:17.536:1,0.23,-0.12
02:12:17.540:1,0.21,-0.625
02:12:17.544:1,0.175,-0.975
02:12:17.548:1,0.125,-1.09
02:12:17.552:1,0.015,-1.025
02:12:17.556:1,-0.12,-0.88
02:12:17.560:1,-0.23,-0.755
02:12:17.564:1,-0.275,-0.625
02:12:17.568:1,-0.29,-0.49
02:12:17.572:1,-0.29,-0.37
02:12:17.576:1,-0.23,-0.275
02:12:17.580:1,-0.185,-0.21
02:12:17.584:1,-0.11,-0.23
02:12:17.588:1,-0.07,-0.235
02:12:17.592:1,-0.045,-0.22
02:12:17.596:1,-0.045,-0.23
02:12:17.600:1,-0.06,-0.245
02:12:17.604:1,-0.05,-0.22
02:12:17.608:1,-0.04,-0.165
02:12:17.612:1,-0.03,-0.16
02:12:17.616:1,-0.015,-0.12
02:12:17.620:1,-0.03,-0.07
02:12:17.624:1,-0.03,-0.08
02:12:17.628:1,-0.015,-0.065
02:12:17.632:1,0.0,-0.055
02:12:17.636:1,-0.005,-0.085
02:12:17.640:1,0.0,-0.12
02:12:17.644:1,-0.02,-0.14
02:12:17.648:1,-0.02,-0.16
02:12:17.652:1,-0.035,-0.18
02:12:17.656:1,-0.045,-0.18
02:12:17.660:1,-0.075,-0.205
02:12:17.664:1,-0.06,-0.195
02:12:17.668:1,-0.07,-0.205
02:12:17.672:1,-0.065,-0.19
02:12:17.676:1,-0.08,-0.18
02:12:17.680:1,-0.075,-0.205
02:12:17.684:1,-0.075,-0.205
02:12:17.688:1,-0.09,-0.205
02:12:17.692:1,-0.085,-0.195
02:12:17.696:1,-0.065,-0.2
02:12:17.700:1,-0.075,-0.2
02:12:17.704:1,-0.08,-0.2
02:12:17.708:1,-0.065,-0.2
02:12:17.712:1,-0.08,-0.19
02:12:17.716:1,-0.075,-0.205
02:12:17.720:1,-0.075,-0.215
02:12:17.724:1,-0.085,-0.2
02:12:17.728:1,-0.085,-0.19
02:12:17.732:1,-0.07,-0.185
02:12:17.736:1,-0.07,-0.185
02:12:17.740:1,-0.055,-0.165
02:12:17.744:1,-0.055,-0.18
02:12:17.748:1,-0.045,-0.175
02:12:17.752:1,-0.055,-0.16
02:12:17.756:1,-0.025,-0.14
02:12:17.760:1,-0.02,-0.115
02:12:17.764:1,-0.015,-0.105
02:12:17.768:1,0.0,-0.075
02:12:17.772:1,-0.02,-0.045
02:12:17.776:1,-0.04,-0.045
02:12:17.780:1,-0.06,-0.02
02:12:17.784:1,-0.06,0.02
02:12:17.788:1,-0.05,0.03
02:12:17.792:1,-0.035,0.03
02:12:17.796:1,-0.02,0.015
02:12:17.800:1,-0.01,-0.005
02:12:17.804:1,0.0,-0.01
02:12:17.808:1,0.0,-0.025
02:12:17.812:1,-0.02,-0.05
02:12:17.816:1,-0.01,-0.065
02:12:17.820:1,-0.02,-0.075
02:12:17.824:1,-0.01,-0.08
02:12:17.828:1,-0.015,-0.105
02:12:17.832:1,-0.015,-0.105
02:12:17.836:1,-0.02,-0.11
02:12:17.840:1,-0.01,-0.14
02:12:17.844:1,-0.025,-0.135
02:12:17.848:1,-0.02,-0.135
02:12:17.852:1,-0.02,-0.145
02:12:17.856:1,-0.02,-0.14
02:12:17.860:1,-0.025,-0.14
02:12:17.864:1,-0.015,-0.165
02:12:17.868:1,-0.025,-0.16
02:12:17.872:1,-0.025,-0.15
02:12:17.876:1,-0.02,-0.155
02:12:17.880:1,-0.015,-0.175
02:12:17.884:1,-0.015,-0.175
02:12:17.888:1,-0.035,-0.175
02:12:17.892:1,-0.03,-0.175
02:12:17.896:1,-0.015,-0.195
02:12:17.900:1,-0.015,-0.195
02:12:17.904:1,-0.03,-0.215
02:12:17.908:1,-0.01,-0.22
02:12:17.912:1,-0.005,-0.19
02:12:17.916:1,-0.015,-0.14
02:12:17.920:1,0.0,-0.115
02:12:17.924:1,0.0,-0.115
02:12:17.928:1,0.0,-0.1
02:12:17.932:1,-0.015,-0.075
02:12:17.936:1,-0.03,-0.06
02:12:17.940:1,-0.03,-0.07
02:12:17.944:1,-0.035,-0.075
02:12:17.948:1,-0.04,-0.08
02:12:17.952:1,-0.03,-0.075
02:12:17.956:1,-0.045,-0.05
02:12:17.960:1,-0.04,-0.06
02:12:17.964:1,-0.04,-0.075
02:12:17.968:1,-0.025,-0.085
02:12:17.972:1,-0.02,-0.085
02:12:17.976:1,-0.005,-0.11
02:12:17.980:1,0.005,-0.12
02:12:17.984:1,-0.01,-0.115
02:12:17.988:1,-0.02,-0.115
02:12:17.992:1,-0.01,-0.125
02:12:17.996:1,-0.005,-0.135
02:12:18.000:1,-0.005,-0.135
02:12:18.004:1,-0.03,-0.16
02:12:18.008:1,-0.015,-0.145
02:12:18.012:1,-0.015,-0.14
02:12:18.016:1,-0.03,-0.14
02:12:18.020:1,-0.02,-0.155
02:12:18.024:1,-0.01,-0.155
02:12:18.028:1,-0.015,-0.155
02:12:18.032:1,-0.01,-0.14
02:12:18.036:1,0.0,-0.135
02:12:18.040:1,-0.01,-0.135
02:12:18.044:1,-0.015,-0.14
02:12:18.048:1,0.0,-0.15
02:12:18.052:1,-0.015,-0.15
02:12:18.056:1,-0.015,-0.16
02:12:18.060:1,0.0,-0.2
02:12:18.064:1,0.0,-0.205
02:12:18.068:1,-0.01,-0.145
02:12:18.072:1,0.0,-0.015
02:12:18.076:1,0.035,0.225
02:12:18.080:1,0.065,0.475
02:12:18.084:1,0.085,0.715
02:12:18.088:1,0.125,0.83
02:12:18.092:1,0.17,0.755
02:12:18.096:1,0.235,0.46
02:12:18.100:1,0.265,-0.125
02:12:18.104:1,0.25,-0.69
02:12:18.108:1,0.15,-0.985
02:12:18.112:1,0.025,-1.085
02:12:18.116:1,-0.13,-0.99
02:12:18.120:1,-0.265,-0.815
02:12:18.124:1,-0.33,-0.65
02:12:18.128:1,-0.33,-0.505
02:12:18.132:1,-0.295,-0.39
02:12:18.136:1,-0.265,-0.295
02:12:18.140:1,-0.19,-0.245
02:12:18.144:1,-0.105,-0.235
02:12:18.148:1,-0.065,-0.225
02:12:18.152:1,-0.035,-0.215
02:12:18.156:1,-0.03,-0.24
02:12:18.160:1,-0.02,-0.24
02:12:18.164:1,-0.035,-0.24
02:12:18.168:1,-0.025,-0.225
02:12:18.172:1,-0.015,-0.25
02:12:18.176:1,-0.03,-0.26
02:12:18.180:1,-0.03,-0.27
02:12:18.184:1,-0.03,-0.25
02:12:18.188:1,-0.035,-0.25
02:12:18.192:1,-0.035,-0.255
02:12:18.196:1,-0.025,-0.265
02:12:18.200:1,-0.035,-0.275
02:12:18.204:1,-0.04,-0.285
02:12:18.208:1,-0.04,-0.275
02:12:18.212:1,-0.04,-0.275
02:12:18.216:1,-0.04,-0.255
02:12:18.220:1,-0.055,-0.28
02:12:18.224:1,-0.025,-0.27
02:12:18.228:1,-0.04,-0.27
02:12:18.232:1,-0.03,-0.265
02:12:18.236:1,-0.05,-0.26
02:12:18.240:1,-0.035,-0.265
02:12:18.244:1,-0.03,-0.265
02:12:18.248:1,-0.04,-0.25
02:12:18.252:1,-0.025,-0.24
02:12:18.256:1,-0.035,-0.23
02:12:18.260:1,-0.035,-0.245
02:12:18.264:1,-0.02,-0.205
02:12:18.268:1,-0.035,-0.19
02:12:18.272:1,-0.03,-0.145
02:12:18.276:1,0.0,-0.115
02:12:18.280:1,0.01,-0.07
02:12:18.284:1,0.015,-0.015
02:12:18.288:1,0.035,0.015
02:12:18.292:1,0.065,0.045
02:12:18.296:1,0.075,0.055
02:12:18.300:1,0.075,0.045
02:12:18.304:1,0.085,0.02
02:12:18.308:1,0.065,0.015
02:12:18.312:1,0.055,0.015
02:12:18.316:1,0.015,-0.035
02:12:18.320:1,0.03,-0.06
02:12:18.324:1,-0.005,-0.095
02:12:18.328:1,0.0,-0.09
02:12:18.332:1,-0.045,-0.105
02:12:18.336:1,-0.035,-0.1
02:12:18.340:1,-0.03,-0.115
02:12:18.344:1,-0.05,-0.11
02:12:18.348:1,-0.04,-0.09
02:12:18.352:1,-0.04,-0.065
02:12:18.356:1,-0.025,-0.08
02:12:18.360:1,-0.025,-0.055
02:12:18.364:1,-0.05,-0.05
02:12:18.368:1,-0.03,-0.055
02:12:18.372:1,-0.02,-0.06
02:12:18.376:1,-0.02,-0.045
02:12:18.380:1,-0.025,-0.04
02:12:18.384:1,-0.01,-0.08
02:12:18.388:1,0.01,-0.07
02:12:18.392:1,0.0,-0.075
02:12:18.396:1,-0.005,-0.085
02:12:18.400:1,0.01,-0.1
02:12:18.404:1,0.005,-0.08
02:12:18.408:1,0.015,-0.095
02:12:18.412:1,0.0,-0.105
02:12:18.416:1,0.0,-0.1
02:12:18.420:1,-0.005,-0.125
02:12:18.424:1,0.0,-0.12
02:12:18.428:1,-0.005,-0.1
02:12:18.432:1,-0.005,-0.105
02:12:18.436:1,0.01,-0.105
02:12:18.440:1,0.025,-0.12
02:12:18.444:1,0.005,-0.12
02:12:18.448:1,-0.005,-0.095
02:12:18.452:1,0.02,-0.125
02:12:18.456:1,0.015,-0.125
02:12:18.460:1,0.01,-0.125
02:12:18.464:1,0.0,-0.115
02:12:18.468:1,-0.005,-0.105
02:12:18.472:1,0.0,-0.095
02:12:18.476:1,0.0,-0.08
02:12:18.480:1,-0.005,-0.08
02:12:18.484:1,0.015,-0.08
02:12:18.488:1,0.025,-0.06
02:12:18.492:1,0.02,-0.075
02:12:18.496:1,0.035,-0.09
02:12:18.500:1,0.035,-0.105
02:12:18.504:1,0.03,-0.115
02:12:18.508:1,0.055,-0.09
02:12:18.512:1,0.05,-0.085
02:12:18.516:1,0.06,-0.085
02:12:18.520:1,0.08,-0.12
02:12:18.524:1,0.095,-0.14
02:12:18.528:1,0.1,-0.14
02:12:18.532:1,0.105,-0.12
02:12:18.536:1,0.11,-0.08
02:12:18.540:1,0.125,-0.05
02:12:18.544:1,0.1,-0.04
02:12:18.548:1,0.1,-0.08
02:12:18.552:1,0.07,-0.11
02:12:18.556:1,0.04,-0.125
02:12:18.560:1,0.005,-0.13
02:12:18.564:1,-0.02,-0.145
02:12:18.568:1,-0.015,-0.135
02:12:18.572:1,-0.02,-0.145
02:12:18.576:1,-0.03,-0.15
02:12:18.580:1,-0.03,-0.16
02:12:18.584:1,-0.025,-0.155
02:12:18.588:1,-0.02,-0.14
02:12:18.592:1,-0.02,-0.15
02:12:18.596:1,-0.02,-0.16
02:12:18.600:1,-0.025,-0.165
02:12:18.604:1,-0.025,-0.15
02:12:18.608:1,-0.015,-0.15
02:12:18.612:1,-0.035,-0.135
02:12:18.616:1,-0.03,-0.16
02:12:18.620:1,-0.025,-0.16
02:12:18.624:1,-0.025,-0.15
02:12:18.628:1,-0.03,-0.145
02:12:18.632:1,-0.03,-0.15
02:12:18.636:1,-0.01,-0.155
02:12:18.640:1,-0.035,-0.135
02:12:18.644:1,-0.025,-0.06
02:12:18.648:1,0.0,0.085
02:12:18.652:1,0.005,0.325
02:12:18.656:1,0.045,0.595
02:12:18.660:1,0.1,0.81
02:12:18.664:1,0.165,0.855
02:12:18.668:1,0.26,0.695
02:12:18.672:1,0.3,0.245
02:12:18.676:1,0.295,-0.355
02:12:18.680:1,0.205,-0.86
02:12:18.684:1,0.06,-1.075
02:12:18.688:1,-0.12,-1.055
02:12:18.692:1,-0.305,-0.865
02:12:18.696:1,-0.395,-0.665
02:12:18.700:1,-0.39,-0.5
02:12:18.704:1,-0.35,-0.35
02:12:18.708:1,-0.26,-0.22
02:12:18.712:1,-0.18,-0.2
02:12:18.716:1,-0.07,-0.2
02:12:18.720:1,-0.03,-0.225
02:12:18.724:1,0.01,-0.26
02:12:18.728:1,0.025,-0.285
02:12:18.732:1,0.025,-0.245
02:12:18.736:1,0.025,-0.19
02:12:18.740:1,0.035,-0.16
02:12:18.744:1,0.005,-0.14
02:12:18.748:1,0.005,-0.14
02:12:18.752:1,-0.005,-0.16
02:12:18.756:1,0.01,-0.16
02:12:18.760:1,-0.02,-0.17
02:12:18.764:1,-0.05,-0.18
02:12:18.768:1,-0.035,-0.185
02:12:18.772:1,-0.06,-0.18
02:12:18.776:1,-0.065,-0.205
02:12:18.780:1,-0.055,-0.22
02:12:18.784:1,-0.06,-0.215
02:12:18.788:1,-0.07,-0.19
02:12:18.792:1,-0.075,-0.215
02:12:18.796:1,-0.05,-0.215
02:12:18.800:1,-0.06,-0.21
02:12:18.804:1,-0.055,-0.2
02:12:18.808:1,-0.065,-0.195
02:12:18.812:1,-0.065,-0.19
02:12:18.816:1,-0.075,-0.205
02:12:18.820:1,-0.07,-0.195
02:12:18.824:1,-0.06,-0.195
02:12:18.828:1,-0.065,-0.185
02:12:18.832:1,-0.07,-0.19
02:12:18.836:1,-0.07,-0.175
02:12:18.840:1,-0.06,-0.175
02:12:18.844:1,-0.06,-0.17
02:12:18.848:1,-0.045,-0.18
02:12:18.852:1,-0.065,-0.155
02:12:18.856:1,-0.055,-0.155
02:12:18.860:1,-0.055,-0.13
02:12:18.864:1,-0.04,-0.125
02:12:18.868:1,-0.025,-0.115
02:12:18.872:1,-0.015,-0.125
02:12:18.876:1,-0.025,-0.12
02:12:18.880:1,-0.025,-0.13
02:12:18.884:1,-0.015,-0.13
02:12:18.888:1,0.005,-0.105
02:12:18.892:1,-0.01,-0.08
02:12:18.896:1,-0.01,-0.065
02:12:18.900:1,0.025,-0.065
02:12:18.904:1,0.045,-0.03
02:12:18.908:1,0.055,0.01
02:12:18.912:1,0.06,0.075
02:12:18.916:1,0.085,0.13
02:12:18.920:1,0.115,0.11
02:12:18.924:1,0.105,0.11
02:12:18.928:1,0.115,0.08
02:12:18.932:1,0.095,0.065
02:12:18.936:1,0.07,0.045
02:12:18.940:1,0.05,0.02
02:12:18.944:1,0.055,-0.005
02:12:18.948:1,0.015,-0.005
02:12:18.952:1,0.0,-0.005
02:12:18.956:1,-0.015,-0.035
02:12:18.960:1,-0.01,-0.06
02:12:18.964:1,-0.015,-0.065
02:12:18.968:1,-0.015,-0.08
02:12:18.972:1,-0.015,-0.09
02:12:18.976:1,-0.02,-0.095
02:12:18.980:1,-0.03,-0.11
02:12:18.984:1,-0.02,-0.12
02:12:18.988:1,-0.02,-0.13
02:12:18.992:1,-0.035,-0.13
02:12:18.996:1,-0.03,-0.14
02:12:19.000:1,-0.025,-0.16
02:12:19.004:1,-0.02,-0.155
02:12:19.008:1,-0.045,-0.145
02:12:19.012:1,-0.02,-0.17
02:12:19.016:1,-0.025,-0.19
02:12:19.020:1,-0.055,-0.185
02:12:19.024:1,-0.04,-0.175
02:12:19.028:1,-0.035,-0.165
02:12:19.032:1,-0.03,-0.165
02:12:19.036:1,-0.025,-0.175
02:12:19.040:1,-0.02,-0.18
02:12:19.044:1,-0.025,-0.2
02:12:19.048:1,-0.02,-0.19
02:12:19.052:1,-0.005,-0.18
02:12:19.056:1,-0.005,-0.195
02:12:19.060:1,-0.01,-0.205
02:12:19.064:1,-0.02,-0.225
02:12:19.068:1,-0.01,-0.21
02:12:19.072:1,-0.01,-0.195
02:12:19.076:1,-0.02,-0.19
02:12:19.080:1,0.01,-0.2
02:12:19.084:1,0.03,-0.14
02:12:19.088:1,0.035,-0.05
02:12:19.092:1,0.045,0.0
02:12:19.096:1,0.035,-0.005
02:12:19.100:1,0.015,-0.015
02:12:19.104:1,0.01,-0.025
02:12:19.108:1,0.02,-0.035
02:12:19.112:1,0.02,-0.05
02:12:19.116:1,0.03,-0.05
02:12:19.120:1,0.04,-0.055
02:12:19.124:1,0.03,-0.08
02:12:19.128:1,0.01,-0.1
02:12:19.132:1,-0.005,-0.08
02:12:19.136:1,-0.01,-0.105
02:12:19.140:1,-0.01,-0.095
02:12:19.144:1,-0.02,-0.11
02:12:19.148:1,-0.02,-0.125
02:12:19.152:1,0.0,-0.14
02:12:19.156:1,-0.01,-0.15
02:12:19.160:1,-0.02,-0.145
02:12:19.164:1,-0.025,-0.155
02:12:19.168:1,-0.025,-0.17
02:12:19.172:1,-0.02,-0.17
02:12:19.176:1,-0.03,-0.17
02:12:19.180:1,-0.045,-0.16
02:12:19.184:1,-0.045,-0.17
02:12:19.188:1,-0.05,-0.165
02:12:19.192:1,-0.025,-0.165
02:12:19.196:1,-0.03,-0.16
02:12:19.200:1,-0.03,-0.15
02:12:19.204:1,-0.02,-0.165
02:12:19.208:1,-0.01,-0.16
02:12:19.212:1,0.0,-0.13
02:12:19.216:1,-0.01,-0.05
02:12:19.220:1,-0.015,0.15
02:12:19.224:1,0.015,0.41
02:12:19.228:1,0.04,0.68
02:12:19.232:1,0.115,0.825
02:12:19.236:1,0.165,0.76
02:12:19.240:1,0.27,0.4
02:12:19.244:1,0.31,-0.195
02:12:19.248:1,0.265,-0.795
02:12:19.252:1,0.16,-1.065
02:12:19.256:1,-0.015,-1.14
02:12:19.260:1,-0.18,-1.005
02:12:19.264:1,-0.315,-0.78
02:12:19.268:1,-0.355,-0.595
02:12:19.272:1,-0.325,-0.445
02:12:19.276:1,-0.305,-0.29
02:12:19.280:1,-0.225,-0.205
02:12:19.284:1,-0.16,-0.165
02:12:19.288:1,-0.085,-0.175
02:12:19.292:1,-0.04,-0.16
02:12:19.296:1,-0.045,-0.2
02:12:19.300:1,-0.03,-0.2
02:12:19.304:1,-0.04,-0.195
02:12:19.308:1,-0.025,-0.225
02:12:19.312:1,-0.04,-0.22
02:12:19.316:1,-0.045,-0.225
02:12:19.320:1,-0.055,-0.235
02:12:19.324:1,-0.05,-0.245
02:12:19.328:1,-0.055,-0.26
02:12:19.332:1,-0.07,-0.24
02:12:19.336:1,-0.07,-0.265
02:12:19.340:1,-0.07,-0.28
02:12:19.344:1,-0.05,-0.26
02:12:19.348:1,-0.075,-0.27
02:12:19.352:1,-0.05,-0.245
02:12:19.356:1,-0.05,-0.25
02:12:19.360:1,-0.05,-0.265
02:12:19.364:1,-0.06,-0.245
02:12:19.368:1,-0.04,-0.255
02:12:19.372:1,-0.05,-0.24
02:12:19.376:1,-0.055,-0.265
02:12:19.380:1,-0.045,-0.245
02:12:19.384:1,-0.035,-0.235
02:12:19.388:1,-0.02,-0.235
02:12:19.392:1,-0.04,-0.23
02:12:19.396:1,-0.04,-0.235
02:12:19.400:1,-0.035,-0.235
02:12:19.404:1,-0.02,-0.24
02:12:19.408:1,-0.02,-0.215
02:12:19.412:1,-0.025,-0.2
02:12:19.416:1,0.0,-0.185
02:12:19.420:1,0.02,-0.17
02:12:19.424:1,0.03,-0.115
02:12:19.428:1,0.03,-0.055
02:12:19.432:1,0.045,-0.025
02:12:19.436:1,0.075,-0.01
02:12:19.440:1,0.07,-0.005
02:12:19.444:1,0.045,-0.015
02:12:19.448:1,0.05,-0.03
02:12:19.452:1,0.055,-0.04
02:12:19.456:1,0.03,-0.04
02:12:19.460:1,0.045,-0.065
02:12:19.464:1,0.015,-0.05
02:12:19.468:1,0.005,-0.06
02:12:19.472:1,0.005,-0.075
02:12:19.476:1,0.0,-0.07
02:12:19.480:1,-0.01,-0.06
02:12:19.484:1,-0.01,-0.055
02:12:19.488:1,-0.01,-0.055
02:12:19.492:1,-0.005,-0.05
02:12:19.496:1,0.0,-0.055
02:12:19.500:1,0.0,-0.045
02:12:19.504:1,0.005,-0.045
02:12:19.508:1,0.01,-0.03
02:12:19.512:1,0.0,-0.035
02:12:19.516:1,0.02,-0.035
02:12:19.520:1,0.005,-0.045
02:12:19.524:1,0.0,-0.025
02:12:19.528:1,0.01,-0.02
02:12:19.532:1,0.02,-0.05
02:12:19.536:1,0.015,-0.055
02:12:19.540:1,0.015,-0.075
02:12:19.544:1,0.015,-0.085
02:12:19.548:1,0.02,-0.085
02:12:19.552:1,-0.005,-0.105
02:12:19.556:1,0.02,-0.125
02:12:19.560:1,0.02,-0.135
02:12:19.564:1,0.0,-0.12
02:12:19.568:1,0.005,-0.125
02:12:19.572:1,0.015,-0.105
02:12:19.576:1,0.02,-0.09
02:12:19.580:1,0.045,-0.085
02:12:19.584:1,0.06,-0.06
02:12:19.588:1,0.09,-0.04
02:12:19.592:1,0.075,-0.005
02:12:19.596:1,0.06,0.03
02:12:19.600:1,0.075,0.025
02:12:19.604:1,0.075,0.01
02:12:19.608:1,0.08,0.005
02:12:19.612:1,0.07,-0.015
02:12:19.616:1,0.065,-0.05
02:12:19.620:1,0.035,-0.075
02:12:19.624:1,0.03,-0.09
02:12:19.628:1,0.035,-0.105
02:12:19.632:1,0.015,-0.13
02:12:19.636:1,0.0,-0.14
02:12:19.640:1,-0.005,-0.145
02:12:19.644:1,0.01,-0.15
02:12:19.648:1,-0.015,-0.16
02:12:19.652:1,0.0,-0.16
02:12:19.656:1,0.0,-0.185
02:12:19.660:1,-0.005,-0.155
02:12:19.664:1,-0.015,-0.09
02:12:19.668:1,0.01,0.04
02:12:19.672:1,0.04,0.255
02:12:19.676:1,0.065,0.48
02:12:19.680:1,0.095,0.605
02:12:19.684:1,0.165,0.54
02:12:19.688:1,0.235,0.245
02:12:19.692:1,0.275,-0.305
02:12:19.696:1,0.275,-0.845
02:12:19.700:1,0.22,-1.11
02:12:19.704:1,0.11,-1.125
02:12:19.708:1,-0.025,-1.0
02:12:19.712:1,-0.2,-0.82
02:12:19.716:1,-0.295,-0.685
02:12:19.720:1,-0.28,-0.53
02:12:19.724:1,-0.28,-0.395
02:12:19.728:1,-0.225,-0.265
02:12:19.732:1,-0.165,-0.175
02:12:19.736:1,-0.09,-0.15
02:12:19.740:1,-0.045,-0.135
02:12:19.744:1,-0.015,-0.145
02:12:19.748:1,-0.015,-0.13
02:12:19.752:1,-0.02,-0.12
02:12:19.756:1,-0.02,-0.115
02:12:19.760:1,-0.01,-0.09
02:12:19.764:1,0.0,-0.08
02:12:19.768:1,0.005,-0.1
02:12:19.772:1,0.0,-0.105
02:12:19.776:1,-0.015,-0.12
02:12:19.780:1,-0.02,-0.155
02:12:19.784:1,-0.03,-0.17
02:12:19.788:1,-0.025,-0.18
02:12:19.792:1,-0.035,-0.22
02:12:19.796:1,-0.055,-0.225
02:12:19.800:1,-0.05,-0.25
02:12:19.804:1,-0.04,-0.245
02:12:19.808:1,-0.06,-0.25
02:12:19.812:1,-0.065,-0.26
02:12:19.816:1,-0.05,-0.265
02:12:19.820:1,-0.065,-0.265
02:12:19.824:1,-0.07,-0.255
02:12:19.828:1,-0.06,-0.265
02:12:19.832:1,-0.065,-0.265
02:12:19.836:1,-0.065,-0.29
02:12:19.840:1,-0.08,-0.31
02:12:19.844:1,-0.085,-0.315
02:12:19.848:1,-0.095,-0.305
02:12:19.852:1,-0.08,-0.295
02:12:19.856:1,-0.095,-0.27
02:12:19.860:1,-0.08,-0.25
02:12:19.864:1,-0.05,-0.235
02:12:19.868:1,-0.06,-0.22
02:12:19.872:1,-0.06,-0.215
02:12:19.876:1,-0.07,-0.19
02:12:19.880:1,-0.09,-0.195
02:12:19.884:1,-0.08,-0.17
02:12:19.888:1,-0.085,-0.14
02:12:19.892:1,-0.085,-0.14
02:12:19.896:1,-0.075,-0.15
02:12:19.900:1,-0.045,-0.115
02:12:19.904:1,-0.07,-0.135
02:12:19.908:1,-0.07,-0.125
02:12:19.912:1,-0.07,-0.125
02:12:19.916:1,-0.065,-0.115
02:12:19.920:1,-0.075,-0.09
02:12:19.924:1,-0.06,-0.08
02:12:19.928:1,-0.08,-0.07
02:12:19.932:1,-0.065,-0.075
02:12:19.936:1,-0.05,-0.055
02:12:19.940:1,-0.04,-0.04
02:12:19.944:1,-0.04,-0.025
02:12:19.948:1,-0.035,-0.015
02:12:19.952:1,-0.01,-0.005
02:12:19.956:1,-0.025,-0.01
02:12:19.960:1,-0.02,-0.055
02:12:19.964:1,0.0,-0.055
02:12:19.968:1,0.005,-0.065
02:12:19.972:1,0.005,-0.07
02:12:19.976:1,0.01,-0.11
02:12:19.980:1,0.025,-0.125
02:12:19.984:1,0.005,-0.12
02:12:19.988:1,0.015,-0.125
02:12:19.992:1,0.005,-0.155
02:12:19.996:1,0.02,-0.18
02:12:20.000:1,0.01,-0.17
02:12:20.004:1,0.005,-0.19
02:12:20.008:1,0.02,-0.215
02:12:20.012:1,0.0,-0.22
02:12:20.016:1,0.0,-0.17
02:12:20.020:1,-0.005,-0.135
02:12:20.024:1,-0.02,-0.155
02:12:20.028:1,0.0,-0.125
02:12:20.032:1,-0.02,-0.11
02:12:20.036:1,-0.015,-0.095
02:12:20.040:1,-0.025,-0.1
02:12:20.044:1,-0.005,-0.12
02:12:20.048:1,-0.015,-0.13
02:12:20.052:1,-0.025,-0.155
02:12:20.056:1,-0.04,-0.145
02:12:20.060:1,-0.04,-0.145
02:12:20.064:1,-0.025,-0.155
02:12:20.068:1,-0.045,-0.16
02:12:20.072:1,-0.035,-0.165
02:12:20.076:1,-0.03,-0.19
02:12:20.080:1,-0.03,-0.17
02:12:20.084:1,-0.025,-0.16
02:12:20.088:1,-0.025,-0.17
02:12:20.092:1,-0.01,-0.17
02:12:20.096:1,-0.02,-0.17
02:12:20.100:1,-0.015,-0.18
02:12:20.104:1,-0.01,-0.16
02:12:20.108:1,-0.01,-0.165
02:12:20.112:1,-0.02,-0.165
02:12:20.116:1,-0.01,-0.175
02:12:20.120:1,0.01,-0.175
02:12:20.124:1,0.0,-0.18
02:12:20.128:1,-0.005,-0.18
02:12:20.132:1,0.0,-0.18
02:12:20.136:1,0.0,-0.2
02:12:20.140:1,0.005,-0.205
02:12:20.144:1,-0.005,-0.22
02:12:20.148:1,0.005,-0.195
02:12:20.152:1,-0.005,-0.195
02:12:20.156:1,0.0,-0.22
02:12:20.160:1,0.0,-0.22
02:12:20.164:1,0.01,-0.19
02:12:20.168:1,0.0,-0.215
02:12:20.172:1,0.025,-0.225
02:12:20.176:1,0.02,-0.235
02:12:20.180:1,0.02,-0.23
02:12:20.184:1,0.015,-0.22
02:12:20.188:1,0.045,-0.215
02:12:20.192:1,0.025,-0.185
02:12:20.196:1,0.03,-0.16
02:12:20.200:1,0.015,-0.135
02:12:20.204:1,0.015,-0.115
02:12:20.208:1,0.0,-0.13
02:12:20.212:1,0.0,-0.11
02:12:20.216:1,-0.01,-0.13
02:12:20.220:1,-0.02,-0.13
02:12:20.224:1,-0.02,-0.14
02:12:20.228:1,-0.025,-0.16
02:12:20.232:1,-0.04,-0.165
02:12:20.236:1,-0.025,-0.185
02:12:20.240:1,-0.035,-0.15
02:12:20.244:1,-0.04,-0.06
02:12:20.248:1,-0.05,0.06
02:12:20.252:1,-0.005,0.26
02:12:20.256:1,0.025,0.495
02:12:20.260:1,0.025,0.695
02:12:20.264:1,0.095,0.685
02:12:20.268:1,0.155,0.49
02:12:20.272:1,0.22,0.045
02:12:20.276:1,0.235,-0.54
02:12:20.280:1,0.23,-0.945
02:12:20.284:1,0.17,-1.145
02:12:20.288:1,0.07,-1.15
02:12:20.292:1,-0.075,-1.02
02:12:20.296:1,-0.215,-0.84
02:12:20.300:1,-0.285,-0.69
02:12:20.304:1,-0.3,-0.565
02:12:20.308:1,-0.275,-0.465
02:12:20.312:1,-0.255,-0.36
02:12:20.316:1,-0.18,-0.28
02:12:20.320:1,-0.09,-0.255
02:12:20.324:1,-0.06,-0.26
02:12:20.328:1,-0.04,-0.26
02:12:20.332:1,-0.035,-0.275
02:12:20.336:1,-0.04,-0.27
02:12:20.340:1,-0.035,-0.28
02:12:20.344:1,-0.025,-0.27
02:12:20.348:1,-0.02,-0.25
02:12:20.352:1,-0.01,-0.21
02:12:20.356:1,0.0,-0.155
02:12:20.360:1,0.0,-0.14
02:12:20.364:1,0.025,-0.125
02:12:20.368:1,0.02,-0.135
02:12:20.372:1,0.045,-0.15
02:12:20.376:1,0.02,-0.155
02:12:20.380:1,0.0,-0.145
02:12:20.384:1,-0.005,-0.16
02:12:20.388:1,-0.015,-0.16
02:12:20.392:1,-0.035,-0.175
02:12:20.396:1,-0.035,-0.175
02:12:20.400:1,-0.065,-0.18
02:12:20.404:1,-0.07,-0.195
02:12:20.408:1,-0.06,-0.205
02:12:20.412:1,-0.05,-0.215
02:12:20.416:1,-0.045,-0.215
02:12:20.420:1,-0.03,-0.205
02:12:20.424:1,-0.04,-0.2
02:12:20.428:1,-0.03,-0.225
02:12:20.432:1,-0.055,-0.215
02:12:20.436:1,-0.055,-0.21
02:12:20.440:1,-0.02,-0.205
02:12:20.444:1,-0.035,-0.19
02:12:20.448:1,-0.04,-0.155
02:12:20.452:1,-0.035,-0.185
02:12:20.456:1,-0.025,-0.155
02:12:20.460:1,-0.02,-0.15
02:12:20.464:1,-0.02,-0.135
02:12:20.468:1,-0.02,-0.17
02:12:20.472:1,0.0,-0.175
02:12:20.476:1,0.015,-0.16
02:12:20.480:1,-0.005,-0.17
02:12:20.484:1,0.005,-0.18
02:12:20.488:1,-0.015,-0.15
02:12:20.492:1,-0.015,-0.16
02:12:20.496:1,0.005,-0.16
02:12:20.500:1,0.0,-0.15
02:12:20.504:1,0.0,-0.15
02:12:20.508:1,-0.015,-0.15
02:12:20.512:1,0.0,-0.16
02:12:20.516:1,0.02,-0.12
02:12:20.520:1,0.045,-0.06
02:12:20.524:1,0.035,-0.015
02:12:20.528:1,0.06,0.005
02:12:20.532:1,0.06,0.015
02:12:20.536:1,0.09,0.035
02:12:20.540:1,0.085,0.06
02:12:20.544:1,0.065,0.05
02:12:20.548:1,0.05,0.02
02:12:20.552:1,0.04,-0.005
02:12:20.556:1,0.04,0.005
02:12:20.560:1,0.02,-0.005
02:12:20.564:1,0.005,-0.02
02:12:20.568:1,0.025,-0.05
02:12:20.572:1,0.015,-0.06
02:12:20.576:1,0.03,-0.05
02:12:20.580:1,0.01,-0.07
02:12:20.584:1,0.01,-0.055
02:12:20.588:1,0.01,-0.065
02:12:20.592:1,0.01,-0.075
02:12:20.596:1,0.015,-0.07
02:12:20.600:1,0.01,-0.065
02:12:20.604:1,0.02,-0.075
02:12:20.608:1,0.03,-0.06
02:12:20.612:1,0.03,-0.05
02:12:20.616:1,0.025,-0.04
02:12:20.620:1,0.05,-0.03
02:12:20.624:1,0.055,-0.055
02:12:20.628:1,0.045,-0.055
02:12:20.632:1,0.06,-0.06
02:12:20.636:1,0.075,-0.08
02:12:20.640:1,0.065,-0.07
02:12:20.644:1,0.06,-0.115
02:12:20.648:1,0.05,-0.15
02:12:20.652:1,0.045,-0.155
02:12:20.656:1,0.02,-0.15
02:12:20.660:1,0.04,-0.165
02:12:20.664:1,0.03,-0.17
02:12:20.668:1,0.03,-0.175
02:12:20.672:1,0.04,-0.16
02:12:20.676:1,0.045,-0.155
02:12:20.680:1,0.06,-0.12
02:12:20.684:1,0.05,-0.095
02:12:20.688:1,0.065,-0.1
02:12:20.692:1,0.06,-0.1
02:12:20.696:1,0.08,-0.08
02:12:20.700:1,0.06,-0.09
02:12:20.704:1,0.05,-0.07
02:12:20.708:1,0.04,-0.09
02:12:20.712:1,0.03,-0.12
02:12:20.716:1,0.025,-0.125
02:12:20.720:1,0.015,-0.105
02:12:20.724:1,-0.005,-0.14
02:12:20.728:1,-0.02,-0.16
02:12:20.732:1,-0.02,-0.17
02:12:20.736:1,-0.02,-0.16
02:12:20.740:1,-0.03,-0.175
02:12:20.744:1,-0.005,-0.18
02:12:20.748:1,-0.015,-0.19
02:12:20.752:1,-0.015,-0.175
02:12:20.756:1,-0.02,-0.175
02:12:20.760:1,-0.025,-0.175
02:12:20.764:1,-0.01,-0.205
02:12:20.768:1,-0.02,-0.185
02:12:20.772:1,-0.025,-0.18
02:12:20.776:1,-0.02,-0.155
02:12:20.780:1,-0.005,-0.16
02:12:20.784:1,0.005,-0.155
02:12:20.788:1,0.0,-0.15
02:12:20.792:1,0.005,-0.155
02:12:20.796:1,0.01,-0.165
02:12:20.800:1,0.005,-0.17
02:12:20.804:1,0.0,-0.195
02:12:20.808:1,0.0,-0.195
02:12:20.812:1,0.005,-0.205
02:12:20.816:1,0.0,-0.195
02:12:20.820:1,0.005,-0.195
02:12:20.824:1,0.015,-0.2
02:12:20.828:1,0.0,-0.195
02:12:20.832:1,0.025,-0.2
02:12:20.836:1,0.035,-0.22
02:12:20.840:1,0.035,-0.17
02:12:20.844:1,0.03,-0.155
02:12:20.848:1,0.035,-0.14
02:12:20.852:1,0.045,-0.115
02:12:20.856:1,0.035,-0.075
02:12:20.860:1,0.035,-0.08
02:12:20.864:1,0.04,-0.065
02:12:20.868:1,0.005,-0.07
02:12:20.872:1,0.01,-0.08
02:12:20.876:1,0.01,-0.055
02:12:20.880:1,0.02,0.06
02:12:20.884:1,0.045,0.245
02:12:20.888:1,0.055,0.485
02:12:20.892:1,0.06,0.715
02:12:20.896:1,0.12,0.875
02:12:20.900:1,0.205,0.795
02:12:20.904:1,0.275,0.505
02:12:20.908:1,0.29,-0.07
02:12:20.912:1,0.24,-0.67
02:12:20.916:1,0.13,-1.015
02:12:20.920:1,-0.045,-1.11
02:12:20.924:1,-0.225,-1.015
02:12:20.928:1,-0.36,-0.815
02:12:20.932:1,-0.38,-0.645
02:12:20.936:1,-0.38,-0.485
02:12:20.940:1,-0.31,-0.375
02:12:20.944:1,-0.245,-0.275
02:12:20.948:1,-0.155,-0.265
02:12:20.952:1,-0.095,-0.235
02:12:20.956:1,-0.07,-0.23
02:12:20.960:1,-0.045,-0.215
02:12:20.964:1,-0.03,-0.22
02:12:20.968:1,-0.03,-0.24
02:12:20.972:1,-0.005,-0.24
02:12:20.976:1,-0.025,-0.245
02:12:20.980:1,-0.025,-0.265
02:12:20.984:1,-0.015,-0.29
02:12:20.988:1,-0.01,-0.32
02:12:20.992:1,-0.01,-0.31
02:12:20.996:1,-0.015,-0.3
02:12:21.000:1,-0.025,-0.27
02:12:21.004:1,0.0,-0.24
02:12:21.008:1,0.0,-0.22
02:12:21.012:1,0.005,-0.24
02:12:21.016:1,0.02,-0.2
02:12:21.020:1,0.015,-0.16
02:12:21.024:1,0.01,-0.185
02:12:21.028:1,0.025,-0.21
02:12:21.032:1,0.0,-0.225
02:12:21.036:1,-0.035,-0.21
02:12:21.040:1,-0.06,-0.22
02:12:21.044:1,-0.09,-0.225
02:12:21.048:1,-0.08,-0.22
02:12:21.052:1,-0.075,-0.23
02:12:21.056:1,-0.065,-0.22
02:12:21.060:1,-0.06,-0.23
02:12:21.064:1,-0.06,-0.225
02:12:21.068:1,-0.065,-0.23
02:12:21.072:1,-0.05,-0.22
02:12:21.076:1,-0.045,-0.205
02:12:21.080:1,-0.075,-0.2
02:12:21.084:1,-0.065,-0.205
02:12:21.088:1,-0.06,-0.185
02:12:21.092:1,-0.055,-0.205
02:12:21.096:1,-0.065,-0.19
02:12:21.100:1,-0.04,-0.185
02:12:21.104:1,-0.05,-0.16
02:12:21.108:1,-0.035,-0.175
02:12:21.112:1,-0.055,-0.16
02:12:21.116:1,-0.045,-0.13
02:12:21.120:1,-0.035,-0.1
02:12:21.124:1,-0.01,-0.105
02:12:21.128:1,-0.01,-0.105
02:12:21.132:1,0.005,-0.085
02:12:21.136:1,-0.01,-0.055
02:12:21.140:1,0.015,-0.065
02:12:21.144:1,0.025,-0.055
02:12:21.148:1,0.045,-0.06
02:12:21.152:1,0.05,-0.055
02:12:21.156:1,0.045,-0.04
02:12:21.160:1,0.045,0.005
02:12:21.164:1,0.07,0.045
02:12:21.168:1,0.075,0.075
02:12:21.172:1,0.1,0.085
02:12:21.176:1,0.105,0.105
02:12:21.180:1,0.12,0.1
02:12:21.184:1,0.09,0.065
02:12:21.188:1,0.08,0.045
02:12:21.192:1,0.045,0.02
02:12:21.196:1,0.045,0.005
02:12:21.200:1,0.025,-0.015
02:12:21.204:1,-0.01,-0.055
02:12:21.208:1,-0.01,-0.075
02:12:21.212:1,-0.035,-0.1
02:12:21.216:1,-0.01,-0.11
02:12:21.220:1,0.0,-0.125
02:12:21.224:1,-0.02,-0.16
02:12:21.228:1,-0.005,-0.155
02:12:21.232:1,-0.015,-0.155
02:12:21.236:1,-0.005,-0.16
02:12:21.240:1,-0.01,-0.155
02:12:21.244:1,-0.02,-0.175
02:12:21.248:1,-0.025,-0.17
02:12:21.252:1,-0.035,-0.17
02:12:21.256:1,-0.02,-0.16
02:12:21.260:1,-0.035,-0.19
02:12:21.264:1,-0.025,-0.2
02:12:21.268:1,-0.005,-0.215
02:12:21.272:1,-0.015,-0.185
02:12:21.276:1,-0.04,-0.175
02:12:21.280:1,-0.035,-0.175
02:12:21.284:1,-0.035,-0.19
02:12:21.288:1,-0.03,-0.18
02:12:21.292:1,-0.035,-0.15
02:12:21.296:1,-0.01,-0.17
02:12:21.300:1,-0.005,-0.165
02:12:21.304:1,-0.015,-0.17
02:12:21.308:1,-0.01,-0.19
02:12:21.312:1,0.015,-0.185
02:12:21.316:1,0.015,-0.165
02:12:21.320:1,0.01,-0.165
02:12:21.324:1,0.015,-0.165
02:12:21.328:1,0.03,-0.16
02:12:21.332:1,0.02,-0.14
02:12:21.336:1,0.035,-0.105
02:12:21.340:1,0.075,-0.085
02:12:21.344:1,0.06,-0.065
02:12:21.348:1,0.045,-0.07
02:12:21.352:1,0.035,-0.095
02:12:21.356:1,0.02,-0.115
02:12:21.360:1,0.005,-0.105
02:12:21.364:1,-0.01,-0.115
02:12:21.368:1,-0.025,-0.115
02:12:21.372:1,0.0,-0.095
02:12:21.376:1,0.0,-0.105
02:12:21.380:1,-0.015,-0.12
02:12:21.384:1,-0.01,-0.105
02:12:21.388:1,-0.02,-0.105
02:12:21.392:1,-0.02,-0.09
02:12:21.396:1,0.0,-0.08
02:12:21.400:1,-0.02,-0.08
02:12:21.404:1,-0.01,-0.11
02:12:21.408:1,0.01,-0.1
02:12:21.412:1,0.0,0.0
02:12:21.416:1,0.015,0.155
02:12:21.420:1,0.055,0.395
02:12:21.424:1,0.075,0.63
02:12:21.428:1,0.105,0.815
02:12:21.432:1,0.195,0.815
02:12:21.436:1,0.29,0.59
02:12:21.440:1,0.305,0.11
02:12:21.444:1,0.3,-0.495
02:12:21.448:1,0.195,-0.905
02:12:21.452:1,0.05,-1.085
02:12:21.456:1,-0.125,-1.06
02:12:21.460:1,-0.27,-0.9
02:12:21.464:1,-0.32,-0.76
02:12:21.468:1,-0.34,-0.605
02:12:21.472:1,-0.335,-0.465
02:12:21.476:1,-0.28,-0.32
02:12:21.480:1,-0.175,-0.28
02:12:21.484:1,-0.075,-0.275
02:12:21.488:1,-0.02,-0.28
02:12:21.492:1,-0.01,-0.305
02:12:21.496:1,0.005,-0.295
02:12:21.500:1,0.005,-0.305
02:12:21.504:1,0.005,-0.27
02:12:21.508:1,0.015,-0.21
02:12:21.512:1,0.025,-0.18
02:12:21.516:1,0.015,-0.15
02:12:21.520:1,0.015,-0.155
02:12:21.524:1,0.015,-0.13
02:12:21.528:1,0.01,-0.13
02:12:21.532:1,0.015,-0.125
02:12:21.536:1,0.0,-0.12
02:12:21.540:1,-0.005,-0.14
02:12:21.544:1,-0.015,-0.155
02:12:21.548:1,-0.01,-0.17
02:12:21.552:1,-0.03,-0.17
02:12:21.556:1,-0.035,-0.185
02:12:21.560:1,-0.015,-0.185
02:12:21.564:1,-0.04,-0.205
02:12:21.568:1,-0.04,-0.205
02:12:21.572:1,-0.05,-0.21
02:12:21.576:1,-0.055,-0.195
02:12:21.580:1,-0.035,-0.2
02:12:21.584:1,-0.045,-0.205
02:12:21.588:1,-0.045,-0.21
02:12:21.592:1,-0.055,-0.2
02:12:21.596:1,-0.05,-0.19
02:12:21.600:1,-0.05,-0.2
02:12:21.604:1,-0.05,-0.195
02:12:21.608:1,-0.04,-0.17
02:12:21.612:1,-0.055,-0.195
02:12:21.616:1,-0.045,-0.18
02:12:21.620:1,-0.05,-0.16
02:12:21.624:1,-0.03,-0.15
02:12:21.628:1,-0.02,-0.16
02:12:21.632:1,-0.015,-0.16
02:12:21.636:1,-0.015,-0.13
02:12:21.640:1,-0.005,-0.125
02:12:21.644:1,0.02,-0.125
02:12:21.648:1,-0.005,-0.145
02:12:21.652:1,0.02,-0.16
02:12:21.656:1,0.0,-0.155
02:12:21.660:1,-0.01,-0.16
02:12:21.664:1,-0.01,-0.15
02:12:21.668:1,0.0,-0.135
02:12:21.672:1,0.005,-0.105
02:12:21.676:1,0.0,-0.095
02:12:21.680:1,0.0,-0.085
02:12:21.684:1,0.0,-0.055
02:12:21.688:1,0.0,-0.02
02:12:21.692:1,0.0,0.005
02:12:21.696:1,0.03,0.005
02:12:21.700:1,0.025,0.025
02:12:21.704:1,0.035,0.015
02:12:21.708:1,0.015,0.02
02:12:21.712:1,0.05,0.025
02:12:21.716:1,0.015,0.01
02:12:21.720:1,0.035,0.005
02:12:21.724:1,0.035,-0.01
02:12:21.728:1,0.04,-0.02
02:12:21.732:1,0.055,-0.035
02:12:21.736:1,0.02,-0.04
02:12:21.740:1,0.045,-0.045
02:12:21.744:1,0.025,-0.075
02:12:21.748:1,0.02,-0.085
02:12:21.752:1,0.03,-0.08
02:12:21.756:1,0.02,-0.08
02:12:21.760:1,0.025,-0.11
02:12:21.764:1,0.03,-0.125
02:12:21.768:1,0.01,-0.12
02:12:21.772:1,0.005,-0.115
02:12:21.776:1,0.02,-0.125
02:12:21.780:1,0.02,-0.13
02:12:21.784:1,0.0,-0.13
02:12:21.788:1,0.01,-0.145
02:12:21.792:1,0.005,-0.155
02:12:21.796:1,0.01,-0.14
02:12:21.800:1,0.005,-0.135
02:12:21.804:1,0.005,-0.155
02:12:21.808:1,0.01,-0.15
02:12:21.812:1,0.015,-0.155
02:12:21.816:1,0.025,-0.165
02:12:21.820:1,0.0,-0.155
02:12:21.824:1,0.015,-0.155
02:12:21.828:1,0.01,-0.17
02:12:21.832:1,0.015,-0.15
02:12:21.836:1,0.015,-0.15
02:12:21.840:1,0.04,-0.18
02:12:21.844:1,0.03,-0.235
02:12:21.848:1,0.03,-0.26
02:12:21.852:1,0.02,-0.255
02:12:21.856:1,0.045,-0.145
02:12:21.860:1,0.055,0.06
02:12:21.864:1,0.095,0.28
02:12:21.868:1,0.11,0.5
02:12:21.872:1,0.125,0.695
02:12:21.876:1,0.175,0.705
02:12:21.880:1,0.24,0.49
02:12:21.884:1,0.295,0.055
02:12:21.888:1,0.255,-0.505
02:12:21.892:1,0.2,-0.955
02:12:21.896:1,0.115,-1.12
02:12:21.900:1,-0.015,-1.08
02:12:21.904:1,-0.165,-0.915
02:12:21.908:1,-0.29,-0.765
02:12:21.912:1,-0.32,-0.625
02:12:21.916:1,-0.315,-0.465
02:12:21.920:1,-0.3,-0.36
02:12:21.924:1,-0.245,-0.28
02:12:21.928:1,-0.165,-0.23
02:12:21.932:1,-0.1,-0.225
02:12:21.936:1,-0.055,-0.22
02:12:21.940:1,-0.065,-0.225
02:12:21.944:1,-0.08,-0.23
02:12:21.948:1,-0.09,-0.235
02:12:21.952:1,-0.065,-0.225
02:12:21.956:1,-0.095,-0.24
02:12:21.960:1,-0.075,-0.255
02:12:21.964:1,-0.08,-0.26
02:12:21.968:1,-0.08,-0.235
02:12:21.972:1,-0.09,-0.23
02:12:21.976:1,-0.08,-0.26
02:12:21.980:1,-0.08,-0.25
02:12:21.984:1,-0.09,-0.26
02:12:21.988:1,-0.1,-0.26
02:12:21.992:1,-0.085,-0.25
02:12:21.996:1,-0.085,-0.24
02:12:22.000:1,-0.095,-0.23
02:12:22.004:1,-0.085,-0.24
02:12:22.008:1,-0.07,-0.235
02:12:22.012:1,-0.07,-0.215
02:12:22.016:1,-0.05,-0.19
02:12:22.020:1,-0.06,-0.215
02:12:22.024:1,-0.035,-0.245
02:12:22.028:1,-0.04,-0.27
02:12:22.032:1,-0.035,-0.27
02:12:22.036:1,-0.06,-0.25
02:12:22.040:1,-0.035,-0.225
02:12:22.044:1,-0.04,-0.205
02:12:22.048:1,-0.035,-0.18
02:12:22.052:1,-0.03,-0.155
02:12:22.056:1,-0.045,-0.12
02:12:22.060:1,-0.04,-0.115
02:12:22.064:1,-0.045,-0.105
02:12:22.068:1,-0.05,-0.11
02:12:22.072:1,-0.045,-0.13
02:12:22.076:1,-0.05,-0.135
02:12:22.080:1,-0.045,-0.125
02:12:22.084:1,-0.08,-0.16
02:12:22.088:1,-0.075,-0.17
02:12:22.092:1,-0.08,-0.165
02:12:22.096:1,-0.1,-0.16
02:12:22.100:1,-0.085,-0.165
02:12:22.104:1,-0.085,-0.16
02:12:22.108:1,-0.075,-0.18
02:12:22.112:1,-0.09,-0.155
02:12:22.116:1,-0.1,-0.165
02:12:22.120:1,-0.09,-0.15
02:12:22.124:1,-0.095,-0.16
02:12:22.128:1,-0.1,-0.13
02:12:22.132:1,-0.09,-0.14
02:12:22.136:1,-0.07,-0.12
02:12:22.140:1,-0.065,-0.145
02:12:22.144:1,-0.075,-0.145
02:12:22.148:1,-0.07,-0.125
02:12:22.152:1,-0.035,-0.12
02:12:22.156:1,-0.03,-0.125
02:12:22.160:1,-0.025,-0.12
02:12:22.164:1,-0.015,-0.135
02:12:22.168:1,-0.02,-0.125
02:12:22.172:1,-0.01,-0.125
02:12:22.176:1,0.0,-0.11
02:12:22.180:1,0.0,-0.135
02:12:22.184:1,0.025,-0.16
02:12:22.188:1,0.04,-0.17
02:12:22.192:1,0.03,-0.13
02:12:22.196:1,0.035,-0.12
02:12:22.200:1,0.05,-0.13
02:12:22.204:1,0.015,-0.13
02:12:22.208:1,0.005,-0.09
02:12:22.212:1,0.0,-0.075
02:12:22.216:1,-0.015,-0.06
02:12:22.220:1,-0.01,-0.065
02:12:22.224:1,0.0,-0.08
02:12:22.228:1,0.0,-0.09
02:12:22.232:1,0.0,-0.085
02:12:22.236:1,-0.015,-0.105
02:12:22.240:1,-0.02,-0.09
02:12:22.244:1,-0.015,-0.09
02:12:22.248:1,-0.02,-0.115
02:12:22.252:1,0.0,-0.12
02:12:22.256:1,-0.015,-0.125
02:12:22.260:1,-0.025,-0.14
02:12:22.264:1,-0.035,-0.165
02:12:22.268:1,-0.015,-0.145
02:12:22.272:1,-0.015,-0.15
02:12:22.276:1,-0.02,-0.165
02:12:22.280:1,-0.015,-0.165
02:12:22.284:1,-0.04,-0.175
02:12:22.288:1,-0.025,-0.185
02:12:22.292:1,-0.015,-0.165
02:12:22.296:1,-0.015,-0.17
02:12:22.300:1,-0.025,-0.185
02:12:22.304:1,-0.02,-0.205
02:12:22.308:1,-0.02,-0.2
02:12:22.312:1,-0.045,-0.185
02:12:22.316:1,-0.05,-0.2
02:12:22.320:1,-0.03,-0.215
02:12:22.324:1,-0.02,-0.225
02:12:22.328:1,-0.05,-0.235
02:12:22.332:1,-0.035,-0.235
02:12:22.336:1,-0.03,-0.235
02:12:22.340:1,-0.02,-0.24
02:12:22.344:1,-0.025,-0.24
02:12:22.348:1,-0.01,-0.21
02:12:22.352:1,0.01,-0.165
02:12:22.356:1,0.0,-0.155
02:12:22.360:1,0.01,-0.14
02:12:22.364:1,0.02,-0.135
02:12:22.368:1,0.04,-0.135
02:12:22.372:1,0.04,-0.14
02:12:22.376:1,0.035,-0.12
02:12:22.380:1,0.02,-0.095
02:12:22.384:1,0.03,-0.09
02:12:22.388:1,0.02,-0.1
02:12:22.392:1,0.0,-0.095
02:12:22.396:1,0.0,-0.135
02:12:22.400:1,0.0,-0.14
02:12:22.404:1,-0.015,-0.16
02:12:22.408:1,-0.015,-0.15
02:12:22.412:1,-0.005,-0.15
02:12:22.416:1,-0.015,-0.175
02:12:22.420:1,-0.025,-0.18
02:12:22.424:1,-0.035,-0.19
02:12:22.428:1,-0.01,-0.18
02:12:22.432:1,0.0,-0.155
02:12:22.436:1,-0.01,-0.12
02:12:22.440:1,-0.005,-0.03
02:12:22.444:1,0.01,0.13
02:12:22.448:1,0.03,0.365
02:12:22.452:1,0.045,0.615
02:12:22.456:1,0.085,0.745
02:12:22.460:1,0.16,0.67
02:12:22.464:1,0.255,0.355
02:12:22.468:1,0.29,-0.18
02:12:22.472:1,0.295,-0.755
02:12:22.476:1,0.25,-1.09
02:12:22.480:1,0.175,-1.23
02:12:22.484:1,0.05,-1.165
02:12:22.488:1,-0.11,-0.98
02:12:22.492:1,-0.235,-0.81
02:12:22.496:1,-0.285,-0.69
02:12:22.500:1,-0.29,-0.585
02:12:22.504:1,-0.295,-0.465
02:12:22.508:1,-0.225,-0.355
02:12:22.512:1,-0.14,-0.26
02:12:22.516:1,-0.105,-0.235
02:12:22.520:1,-0.055,-0.235
02:12:22.524:1,-0.035,-0.225
02:12:22.528:1,-0.005,-0.235
02:12:22.532:1,0.0,-0.22
02:12:22.536:1,0.0,-0.225
02:12:22.540:1,0.01,-0.235
02:12:22.544:1,0.015,-0.245
02:12:22.548:1,0.005,-0.24
02:12:22.552:1,0.005,-0.255
02:12:22.556:1,0.015,-0.255
02:12:22.560:1,0.0,-0.24
02:12:22.564:1,0.015,-0.22
02:12:22.568:1,0.03,-0.2
02:12:22.572:1,0.05,-0.175
02:12:22.576:1,0.05,-0.14
02:12:22.580:1,0.05,-0.13
02:12:22.584:1,0.065,-0.115
02:12:22.588:1,0.075,-0.1
02:12:22.592:1,0.065,-0.09
02:12:22.596:1,0.065,-0.105
02:12:22.600:1,0.045,-0.145
02:12:22.604:1,0.03,-0.15
02:12:22.608:1,0.02,-0.2
02:12:22.612:1,-0.01,-0.19
02:12:22.616:1,-0.045,-0.2
02:12:22.620:1,-0.06,-0.26
02:12:22.624:1,-0.065,-0.255
02:12:22.628:1,-0.08,-0.24
02:12:22.632:1,-0.08,-0.255
02:12:22.636:1,-0.08,-0.225
02:12:22.640:1,-0.08,-0.23
02:12:22.644:1,-0.08,-0.24
02:12:22.648:1,-0.09,-0.235
02:12:22.652:1,-0.08,-0.22
02:12:22.656:1,-0.1,-0.215
02:12:22.660:1,-0.095,-0.22
02:12:22.664:1,-0.095,-0.205
02:12:22.668:1,-0.085,-0.19
02:12:22.672:1,-0.075,-0.19
02:12:22.676:1,-0.08,-0.18
02:12:22.680:1,-0.055,-0.17
02:12:22.684:1,-0.075,-0.145
02:12:22.688:1,-0.065,-0.145
02:12:22.692:1,-0.025,-0.12
02:12:22.696:1,-0.04,-0.08
02:12:22.700:1,-0.035,-0.07
02:12:22.704:1,-0.025,-0.065
02:12:22.708:1,-0.01,-0.03
02:12:22.712:1,0.005,-0.05
02:12:22.716:1,0.01,-0.07
02:12:22.720:1,0.015,-0.08
02:12:22.724:1,0.005,-0.07
02:12:22.728:1,0.02,-0.075
02:12:22.732:1,0.05,-0.03
02:12:22.736:1,0.045,-0.05
02:12:22.740:1,0.05,-0.04
02:12:22.744:1,0.04,-0.045
02:12:22.748:1,0.045,-0.02
02:12:22.752:1,0.05,-0.03
02:12:22.756:1,0.07,-0.01
02:12:22.760:1,0.09,-0.02
02:12:22.764:1,0.105,0.005
02:12:22.768:1,0.11,-0.02
02:12:22.772:1,0.12,-0.005
02:12:22.776:1,0.14,0.01
02:12:22.780:1,0.125,-0.01
02:12:22.784:1,0.1,-0.015
02:12:22.788:1,0.085,-0.01
02:12:22.792:1,0.075,-0.015
02:12:22.796:1,0.07,-0.03
02:12:22.800:1,0.03,-0.055
02:12:22.804:1,0.025,-0.06
02:12:22.808:1,0.015,-0.085
02:12:22.812:1,0.015,-0.085
02:12:22.816:1,0.0,-0.09
02:12:22.820:1,-0.005,-0.1
02:12:22.824:1,-0.01,-0.11
02:12:22.828:1,0.0,-0.105
02:12:22.832:1,0.0,-0.12
02:12:22.836:1,0.0,-0.115
02:12:22.840:1,-0.005,-0.13
02:12:22.844:1,-0.03,-0.105
02:12:22.848:1,-0.015,-0.125
02:12:22.852:1,0.005,-0.12
02:12:22.856:1,0.005,-0.095
02:12:22.860:1,0.0,-0.11
02:12:22.864:1,0.005,-0.135
02:12:22.868:1,0.01,-0.12
02:12:22.872:1,0.0,-0.12
02:12:22.876:1,-0.005,-0.125
02:12:22.880:1,0.01,-0.145
02:12:22.884:1,0.0,-0.155
02:12:22.888:1,0.01,-0.155
02:12:22.892:1,0.02,-0.17
02:12:22.896:1,0.01,-0.175
02:12:22.900:1,0.02,-0.185
02:12:22.904:1,0.02,-0.2
02:12:22.908:1,0.01,-0.2
02:12:22.912:1,0.025,-0.21
02:12:22.916:1,0.03,-0.195
02:12:22.920:1,0.045,-0.16
02:12:22.924:1,0.03,-0.14
02:12:22.928:1,0.045,-0.11
02:12:22.932:1,0.055,-0.1
02:12:22.936:1,0.045,-0.07
02:12:22.940:1,0.03,-0.105
02:12:22.944:1,0.02,-0.125
02:12:22.948:1,0.015,-0.12
02:12:22.952:1,0.025,-0.12
02:12:22.956:1,0.0,-0.105
02:12:22.960:1,0.01,-0.115
02:12:22.964:1,0.0,-0.11
02:12:22.968:1,0.01,-0.12
02:12:22.972:1,0.005,-0.12
02:12:22.976:1,0.01,-0.125
02:12:22.980:1,0.0,-0.13
02:12:22.984:1,0.005,-0.145
02:12:22.988:1,-0.005,-0.14
02:12:22.992:1,0.0,-0.145
02:12:22.996:1,0.0,-0.15
02:12:23.000:1,-0.015,-0.17
02:12:23.004:1,-0.01,-0.145
02:12:23.008:1,0.0,-0.095
02:12:23.012:1,0.01,0.03
02:12:23.016:1,0.025,0.245
02:12:23.020:1,0.045,0.49
02:12:23.024:1,0.07,0.705
02:12:23.028:1,0.145,0.775
02:12:23.032:1,0.235,0.645
02:12:23.036:1,0.275,0.265
02:12:23.040:1,0.275,-0.325
02:12:23.044:1,0.205,-0.82
02:12:23.048:1,0.07,-1.08
02:12:23.052:1,-0.095,-1.115
02:12:23.056:1,-0.245,-0.99
02:12:23.060:1,-0.34,-0.795
02:12:23.064:1,-0.36,-0.625
02:12:23.068:1,-0.325,-0.48
02:12:23.072:1,-0.265,-0.35
02:12:23.076:1,-0.18,-0.28
02:12:23.080:1,-0.075,-0.28
02:12:23.084:1,-0.01,-0.305
02:12:23.088:1,0.015,-0.305
02:12:23.092:1,0.035,-0.3
02:12:23.096:1,0.065,-0.29
02:12:23.100:1,0.04,-0.25
02:12:23.104:1,0.03,-0.21
02:12:23.108:1,0.025,-0.18
02:12:23.112:1,0.055,-0.165
02:12:23.116:1,0.025,-0.165
02:12:23.120:1,0.015,-0.19
02:12:23.124:1,-0.005,-0.185
02:12:23.128:1,-0.005,-0.19
02:12:23.132:1,-0.015,-0.175
02:12:23.136:1,-0.02,-0.2
02:12:23.140:1,-0.02,-0.2
02:12:23.144:1,-0.025,-0.195
02:12:23.148:1,-0.03,-0.19
02:12:23.152:1,-0.03,-0.215
02:12:23.156:1,-0.015,-0.215
02:12:23.160:1,-0.02,-0.22
02:12:23.164:1,-0.02,-0.22
02:12:23.168:1,-0.025,-0.215
02:12:23.172:1,-0.015,-0.195
02:12:23.176:1,-0.035,-0.22
02:12:23.180:1,-0.03,-0.215
02:12:23.184:1,-0.04,-0.205
02:12:23.188:1,-0.02,-0.19
02:12:23.192:1,0.0,-0.205
02:12:23.196:1,-0.03,-0.19
02:12:23.200:1,-0.015,-0.2
02:12:23.204:1,-0.005,-0.19
02:12:23.208:1,-0.01,-0.17
02:12:23.212:1,-0.005,-0.16
02:12:23.216:1,-0.01,-0.15
02:12:23.220:1,0.005,-0.165
02:12:23.224:1,0.005,-0.155
02:12:23.228:1,0.0,-0.135
02:12:23.232:1,0.0,-0.12
02:12:23.236:1,0.015,-0.105
02:12:23.240:1,0.02,-0.095
02:12:23.244:1,0.04,-0.08
02:12:23.248:1,0.055,-0.085
02:12:23.252:1,0.045,-0.045
02:12:23.256:1,0.055,-0.055
02:12:23.260:1,0.075,-0.09
02:12:23.264:1,0.09,-0.115
02:12:23.268:1,0.095,-0.12
02:12:23.272:1,0.07,-0.115
02:12:23.276:1,0.085,-0.125
02:12:23.280:1,0.1,-0.095
02:12:23.284:1,0.09,-0.06
02:12:23.288:1,0.105,0.0
02:12:23.292:1,0.115,0.035
02:12:23.296:1,0.14,0.055
02:12:23.300:1,0.13,0.04
02:12:23.304:1,0.135,0.035
02:12:23.308:1,0.105,0.035
02:12:23.312:1,0.095,0.02
02:12:23.316:1,0.075,-0.005
02:12:23.320:1,0.045,-0.02
02:12:23.324:1,0.04,-0.055
02:12:23.328:1,0.03,-0.1
02:12:23.332:1,0.015,-0.1
02:12:23.336:1,0.0,-0.12
02:12:23.340:1,0.005,-0.135
02:12:23.344:1,-0.005,-0.135
02:12:23.348:1,0.0,-0.12
02:12:23.352:1,0.0,-0.115
02:12:23.356:1,0.0,-0.135
02:12:23.360:1,-0.01,-0.135
02:12:23.364:1,-0.01,-0.145
02:12:23.368:1,0.0,-0.15
02:12:23.372:1,0.0,-0.14
02:12:23.376:1,-0.01,-0.15
02:12:23.380:1,-0.005,-0.16
02:12:23.384:1,-0.005,-0.175
02:12:23.388:1,0.0,-0.14
02:12:23.392:1,0.005,-0.15
02:12:23.396:1,0.0,-0.15
02:12:23.400:1,0.0,-0.145
02:12:23.404:1,-0.01,-0.16
02:12:23.408:1,0.0,-0.15
02:12:23.412:1,0.02,-0.13
02:12:23.416:1,0.015,-0.145
02:12:23.420:1,0.035,-0.135
02:12:23.424:1,0.035,-0.145
02:12:23.428:1,0.025,-0.12
02:12:23.432:1,0.045,-0.115
02:12:23.436:1,0.055,-0.125
02:12:23.440:1,0.055,-0.115
02:12:23.444:1,0.065,-0.14
02:12:23.448:1,0.055,-0.145
02:12:23.452:1,0.06,-0.175
02:12:23.456:1,0.06,-0.19
02:12:23.460:1,0.045,-0.205
02:12:23.464:1,0.055,-0.17
02:12:23.468:1,0.065,-0.11
02:12:23.472:1,0.125,-0.07
02:12:23.476:1,0.13,-0.06
02:12:23.480:1,0.115,-0.06
02:12:23.484:1,0.11,-0.02
02:12:23.488:1,0.095,0.045
02:12:23.492:1,0.12,0.205
02:12:23.496:1,0.13,0.42
02:12:23.500:1,0.165,0.635
02:12:23.504:1,0.205,0.765
02:12:23.508:1,0.245,0.695
02:12:23.512:1,0.305,0.43
02:12:23.516:1,0.33,-0.09
02:12:23.520:1,0.275,-0.64
02:12:23.524:1,0.165,-0.925
02:12:23.528:1,0.025,-0.985
02:12:23.532:1,-0.12,-0.875
02:12:23.536:1,-0.245,-0.72
02:12:23.540:1,-0.275,-0.57
02:12:23.544:1,-0.255,-0.44
02:12:23.548:1,-0.22,-0.32
02:12:23.552:1,-0.18,-0.23
02:12:23.556:1,-0.105,-0.205
02:12:23.560:1,-0.045,-0.21
02:12:23.564:1,-0.01,-0.235
02:12:23.568:1,0.0,-0.23
02:12:23.572:1,0.0,-0.225
02:12:23.576:1,-0.005,-0.235
02:12:23.580:1,-0.015,-0.23
02:12:23.584:1,-0.005,-0.225
02:12:23.588:1,0.005,-0.22
02:12:23.592:1,-0.02,-0.235
02:12:23.596:1,-0.015,-0.245
02:12:23.600:1,-0.01,-0.265
02:12:23.604:1,0.005,-0.275
02:12:23.608:1,-0.01,-0.27
02:12:23.612:1,0.0,-0.25
02:12:23.616:1,0.005,-0.23
02:12:23.620:1,0.02,-0.205
02:12:23.624:1,0.025,-0.18
02:12:23.628:1,0.045,-0.17
02:12:23.632:1,0.045,-0.165
02:12:23.636:1,0.03,-0.145
02:12:23.640:1,0.035,-0.155
02:12:23.644:1,0.04,-0.155
02:12:23.648:1,0.035,-0.13
02:12:23.652:1,0.035,-0.145
02:12:23.656:1,0.02,-0.185
02:12:23.660:1,0.03,-0.185
02:12:23.664:1,0.01,-0.175
02:12:23.668:1,0.0,-0.17
02:12:23.672:1,0.0,-0.16
02:12:23.676:1,-0.005,-0.18
02:12:23.680:1,-0.005,-0.17
02:12:23.684:1,-0.01,-0.155
02:12:23.688:1,-0.01,-0.145
02:12:23.692:1,0.0,-0.14
02:12:23.696:1,-0.01,-0.155
02:12:23.700:1,-0.005,-0.16
02:12:23.704:1,-0.01,-0.125
02:12:23.708:1,0.01,-0.13
02:12:23.712:1,0.005,-0.12
02:12:23.716:1,0.0,-0.12
02:12:23.720:1,0.0,-0.14
02:12:23.724:1,0.01,-0.145
02:12:23.728:1,0.0,-0.14
02:12:23.732:1,0.005,-0.125
02:12:23.736:1,-0.005,-0.13
02:12:23.740:1,0.015,-0.14
02:12:23.744:1,0.0,-0.13
02:12:23.748:1,0.0,-0.12
02:12:23.752:1,0.005,-0.12
02:12:23.756:1,0.01,-0.1
02:12:23.760:1,0.01,-0.08
02:12:23.764:1,0.04,-0.08
02:12:23.768:1,0.035,-0.065
02:12:23.772:1,0.045,-0.01
02:12:23.776:1,0.07,0.005
02:12:23.780:1,0.105,0.015
02:12:23.784:1,0.095,0.065
02:12:23.788:1,0.125,0.085
02:12:23.792:1,0.13,0.08
02:12:23.796:1,0.115,0.06
02:12:23.800:1,0.12,0.05
02:12:23.804:1,0.125,0.035
02:12:23.808:1,0.12,0.025
02:12:23.812:1,0.105,0.005
02:12:23.816:1,0.095,-0.02
02:12:23.820:1,0.105,-0.04
02:12:23.824:1,0.095,-0.055
02:12:23.828:1,0.07,-0.085
02:12:23.832:1,0.055,-0.09
02:12:23.836:1,0.04,-0.1
02:12:23.840:1,0.05,-0.125
02:12:23.844:1,0.055,-0.13
02:12:23.848:1,0.035,-0.13
02:12:23.852:1,0.035,-0.125
02:12:23.856:1,0.045,-0.155
02:12:23.860:1,0.045,-0.16
02:12:23.864:1,0.04,-0.145
02:12:23.868:1,0.035,-0.155
02:12:23.872:1,0.045,-0.16
02:12:23.876:1,0.05,-0.155
02:12:23.880:1,0.035,-0.17
02:12:23.884:1,0.045,-0.175
02:12:23.888:1,0.03,-0.2
02:12:23.892:1,0.04,-0.195
02:12:23.896:1,0.035,-0.205
02:12:23.900:1,0.025,-0.19
02:12:23.904:1,0.02,-0.18
02:12:23.908:1,0.02,-0.21
02:12:23.912:1,0.025,-0.22
02:12:23.916:1,0.02,-0.22
02:12:23.920:1,0.005,-0.22
02:12:23.924:1,0.015,-0.24
02:12:23.928:1,0.0,-0.22
02:12:23.932:1,0.0,-0.21
02:12:23.936:1,0.03,-0.25
02:12:23.940:1,0.02,-0.255
02:12:23.944:1,0.035,-0.26
02:12:23.948:1,0.03,-0.22
02:12:23.952:1,0.05,-0.18
02:12:23.956:1,0.065,-0.15
02:12:23.960:1,0.05,-0.08
02:12:23.964:1,0.04,-0.055
02:12:23.968:1,0.04,-0.04
02:12:23.972:1,0.055,-0.06
02:12:23.976:1,0.06,-0.08
02:12:23.980:1,0.05,-0.095
02:12:23.984:1,0.04,-0.1
02:12:23.988:1,0.025,-0.09
02:12:23.992:1,0.025,-0.135
02:12:23.996:1,0.03,-0.125
02:12:24.000:1,0.035,-0.135
02:12:24.004:1,0.035,-0.15
02:12:24.008:1,0.035,-0.135
02:12:24.012:1,0.035,-0.12
02:12:24.016:1,0.01,-0.14
02:12:24.020:1,0.015,-0.16
02:12:24.024:1,0.025,-0.145
02:12:24.028:1,0.03,-0.145
02:12:24.032:1,0.045,-0.145
02:12:24.036:1,0.045,-0.17
02:12:24.040:1,0.03,-0.175
02:12:24.044:1,0.03,-0.175
02:12:24.048:1,0.02,-0.17
02:12:24.052:1,0.04,-0.185
02:12:24.056:1,0.04,-0.175
02:12:24.060:1,0.03,-0.17
02:12:24.064:1,0.05,-0.1
02:12:24.068:1,0.06,0.05
02:12:24.072:1,0.075,0.265
02:12:24.076:1,0.1,0.52
02:12:24.080:1,0.135,0.725
02:12:24.084:1,0.205,0.765
02:12:24.088:1,0.27,0.595
02:12:24.092:1,0.35,0.125
02:12:24.096:1,0.32,-0.505
02:12:24.100:1,0.28,-0.96
02:12:24.104:1,0.16,-1.155
02:12:24.108:1,0.0,-1.14
02:12:24.112:1,-0.17,-0.975
02:12:24.116:1,-0.275,-0.78
02:12:24.120:1,-0.3,-0.64
02:12:24.124:1,-0.28,-0.48
02:12:24.128:1,-0.235,-0.335
02:12:24.132:1,-0.145,-0.23
02:12:24.136:1,-0.04,-0.18
02:12:24.140:1,0.035,-0.12
02:12:24.144:1,0.07,-0.115
02:12:24.148:1,0.085,-0.135
02:12:24.152:1,0.045,-0.155
02:12:24.156:1,0.015,-0.175
02:12:24.160:1,0.0,-0.19
02:12:24.164:1,-0.005,-0.215
02:12:24.168:1,-0.005,-0.215
02:12:24.172:1,0.0,-0.24
02:12:24.176:1,-0.01,-0.235
02:12:24.180:1,-0.015,-0.25
02:12:24.184:1,-0.025,-0.255
02:12:24.188:1,-0.005,-0.255
02:12:24.192:1,-0.02,-0.265
02:12:24.196:1,-0.005,-0.265
02:12:24.200:1,-0.005,-0.265
02:12:24.204:1,-0.015,-0.25
02:12:24.208:1,-0.015,-0.255
02:12:24.212:1,0.0,-0.265
02:12:24.216:1,0.01,-0.27
02:12:24.220:1,0.0,-0.265
02:12:24.224:1,0.0,-0.24
02:12:24.228:1,0.015,-0.23
02:12:24.232:1,-0.005,-0.265
02:12:24.236:1,-0.01,-0.255
02:12:24.240:1,-0.02,-0.255
02:12:24.244:1,-0.015,-0.245
02:12:24.248:1,-0.04,-0.235
02:12:24.252:1,-0.015,-0.245
02:12:24.256:1,0.0,-0.24
02:12:24.260:1,0.0,-0.22
02:12:24.264:1,-0.01,-0.215
02:12:24.268:1,0.01,-0.215
02:12:24.272:1,0.005,-0.205
02:12:24.276:1,-0.005,-0.185
02:12:24.280:1,-0.01,-0.205
02:12:24.284:1,0.0,-0.19
02:12:24.288:1,-0.005,-0.165
02:12:24.292:1,0.0,-0.17
02:12:24.296:1,0.01,-0.175
02:12:24.300:1,0.005,-0.155
02:12:24.304:1,0.005,-0.115
02:12:24.308:1,0.025,-0.09
02:12:24.312:1,0.02,-0.07
02:12:24.316:1,0.055,-0.03
02:12:24.320:1,0.07,0.0
02:12:24.324:1,0.085,0.055
02:12:24.328:1,0.105,0.1
02:12:24.332:1,0.12,0.1
02:12:24.336:1,0.105,0.105
02:12:24.340:1,0.13,0.125
02:12:24.344:1,0.14,0.115
02:12:24.348:1,0.14,0.07
02:12:24.352:1,0.125,0.055
02:12:24.356:1,0.115,0.03
02:12:24.360:1,0.09,0.015
02:12:24.364:1,0.065,0.005
02:12:24.368:1,0.06,0.01
02:12:24.372:1,0.05,0.0
02:12:24.376:1,0.055,-0.025
02:12:24.380:1,0.05,-0.05
02:12:24.384:1,0.065,-0.055
02:12:24.388:1,0.07,-0.055
02:12:24.392:1,0.045,-0.085
02:12:24.396:1,0.04,-0.105
02:12:24.400:1,0.035,-0.11
02:12:24.404:1,0.035,-0.1
02:12:24.408:1,0.035,-0.105
02:12:24.412:1,0.045,-0.12
02:12:24.416:1,0.06,-0.11
02:12:24.420:1,0.035,-0.115
02:12:24.424:1,0.025,-0.12
02:12:24.428:1,0.045,-0.12
02:12:24.432:1,0.045,-0.13
02:12:24.436:1,0.035,-0.135
02:12:24.440:1,0.045,-0.15
02:12:24.444:1,0.04,-0.145
02:12:24.448:1,0.035,-0.13
02:12:24.452:1,0.045,-0.14
02:12:24.456:1,0.045,-0.155
02:12:24.460:1,0.045,-0.17
02:12:24.464:1,0.05,-0.17
02:12:24.468:1,0.04,-0.16
02:12:24.472:1,0.045,-0.175
02:12:24.476:1,0.045,-0.17
02:12:24.480:1,0.05,-0.175
02:12:24.484:1,0.055,-0.2
02:12:24.488:1,0.075,-0.18
02:12:24.492:1,0.07,-0.16
02:12:24.496:1,0.07,-0.16
02:12:24.500:1,0.08,-0.14
02:12:24.504:1,0.07,-0.125
02:12:24.508:1,0.065,-0.125
02:12:24.512:1,0.07,-0.12
02:12:24.516:1,0.08,-0.09
02:12:24.520:1,0.095,-0.075
02:12:24.524:1,0.1,-0.08
02:12:24.528:1,0.085,-0.095
02:12:24.532:1,0.085,-0.11
02:12:24.536:1,0.095,-0.125
02:12:24.540:1,0.085,-0.125
02:12:24.544:1,0.075,-0.12
02:12:24.548:1,0.07,-0.14
02:12:24.552:1,0.055,-0.16
02:12:24.556:1,0.055,-0.16
02:12:24.560:1,0.025,-0.15
02:12:24.564:1,0.04,-0.135
02:12:24.568:1,0.04,-0.145
02:12:24.572:1,0.035,-0.16
02:12:24.576:1,0.035,-0.15
02:12:24.580:1,0.02,-0.11
02:12:24.584:1,0.03,-0.01
02:12:24.588:1,0.05,0.19
02:12:24.592:1,0.065,0.415
02:12:24.596:1,0.095,0.625
02:12:24.600:1,0.155,0.65
02:12:24.604:1,0.22,0.48
02:12:24.608:1,0.29,0.055
02:12:24.612:1,0.315,-0.53
02:12:24.616:1,0.275,-0.96
02:12:24.620:1,0.21,-1.17
02:12:24.624:1,0.09,-1.175
02:12:24.628:1,-0.07,-1.045
02:12:24.632:1,-0.195,-0.88
02:12:24.636:1,-0.27,-0.745
02:12:24.640:1,-0.255,-0.62
02:12:24.644:1,-0.25,-0.47
02:12:24.648:1,-0.195,-0.335
02:12:24.652:1,-0.095,-0.23
02:12:24.656:1,-0.03,-0.18
02:12:24.660:1,0.015,-0.175
02:12:24.664:1,0.045,-0.17
02:12:24.668:1,0.03,-0.17
02:12:24.672:1,0.04,-0.17
02:12:24.676:1,0.035,-0.17
02:12:24.680:1,0.04,-0.175
02:12:24.684:1,0.045,-0.17
02:12:24.688:1,0.045,-0.18
02:12:24.692:1,0.06,-0.2
02:12:24.696:1,0.05,-0.185
02:12:24.700:1,0.02,-0.18
02:12:24.704:1,0.015,-0.19
02:12:24.708:1,0.015,-0.21
02:12:24.712:1,0.0,-0.205
02:12:24.716:1,0.005,-0.22
02:12:24.720:1,0.0,-0.22
02:12:24.724:1,0.0,-0.23
02:12:24.728:1,0.0,-0.24
02:12:24.732:1,0.01,-0.26
02:12:24.736:1,-0.01,-0.28
02:12:24.740:1,-0.005,-0.27
02:12:24.744:1,0.0,-0.27
02:12:24.748:1,-0.025,-0.29
02:12:24.752:1,-0.02,-0.285
02:12:24.756:1,-0.02,-0.295
02:12:24.760:1,-0.01,-0.295
02:12:24.764:1,-0.01,-0.3
02:12:24.768:1,-0.015,-0.295
02:12:24.772:1,-0.02,-0.31
02:12:24.776:1,-0.02,-0.315
02:12:24.780:1,-0.02,-0.315
02:12:24.784:1,-0.03,-0.31
02:12:24.788:1,-0.01,-0.32
02:12:24.792:1,-0.015,-0.31
02:12:24.796:1,-0.035,-0.32
02:12:24.800:1,-0.035,-0.295
02:12:24.804:1,-0.025,-0.265
02:12:24.808:1,-0.02,-0.235
02:12:24.812:1,0.0,-0.215
02:12:24.816:1,0.005,-0.215
02:12:24.820:1,0.01,-0.2
02:12:24.824:1,0.005,-0.18
02:12:24.828:1,0.01,-0.17
02:12:24.832:1,0.0,-0.16
02:12:24.836:1,0.005,-0.145
02:12:24.840:1,0.01,-0.135
02:12:24.844:1,0.02,-0.13
02:12:24.848:1,0.025,-0.145
02:12:24.852:1,0.025,-0.16
02:12:24.856:1,0.0,-0.145
02:12:24.860:1,-0.005,-0.125
02:12:24.864:1,0.0,-0.11
02:12:24.868:1,0.01,-0.11
02:12:24.872:1,0.0,-0.1
02:12:24.876:1,-0.005,-0.095
02:12:24.880:1,0.02,-0.095
02:12:24.884:1,0.035,-0.07
02:12:24.888:1,0.02,-0.095
02:12:24.892:1,0.045,-0.115
02:12:24.896:1,0.03,-0.115
02:12:24.900:1,0.04,-0.135
02:12:24.904:1,0.05,-0.125
02:12:24.908:1,0.045,-0.135
02:12:24.912:1,0.035,-0.125
02:12:24.916:1,0.05,-0.14
02:12:24.920:1,0.05,-0.14
02:12:24.924:1,0.055,-0.16
02:12:24.928:1,0.045,-0.16
02:12:24.932:1,0.065,-0.17
02:12:24.936:1,0.04,-0.185
02:12:24.940:1,0.045,-0.17
02:12:24.944:1,0.05,-0.185
02:12:24.948:1,0.045,-0.215
02:12:24.952:1,0.04,-0.24
02:12:24.956:1,0.035,-0.24
02:12:24.960:1,0.05,-0.21
02:12:24.964:1,0.06,-0.175
02:12:24.968:1,0.065,-0.155
02:12:24.972:1,0.06,-0.165
02:12:24.976:1,0.065,-0.155
02:12:24.980:1,0.03,-0.12
02:12:24.984:1,0.05,-0.12
02:12:24.988:1,0.045,-0.115
02:12:24.992:1,0.035,-0.13
02:12:24.996:1,0.03,-0.14
02:12:25.000:1,0.01,-0.15
02:12:25.004:1,0.025,-0.135
02:12:25.008:1,0.0,-0.15
02:12:25.012:1,0.01,-0.185
02:12:25.016:1,0.03,-0.185
02:12:25.020:1,0.025,-0.195
02:12:25.024:1,0.01,-0.175
02:12:25.028:1,0.005,-0.185
02:12:25.032:1,0.005,-0.18
02:12:25.036:1,0.01,-0.2
02:12:25.040:1,0.005,-0.205
02:12:25.044:1,0.01,-0.215
02:12:25.048:1,0.015,-0.19
02:12:25.052:1,0.0,-0.2
02:12:25.056:1,0.005,-0.205
02:12:25.060:1,0.01,-0.205
02:12:25.064:1,0.0,-0.2
02:12:25.068:1,0.0,-0.22
02:12:25.072:1,0.02,-0.21
02:12:25.076:1,0.015,-0.195
02:12:25.080:1,0.02,-0.2
02:12:25.084:1,0.03,-0.205
02:12:25.088:1,0.055,-0.215
02:12:25.092:1,0.03,-0.235
02:12:25.096:1,0.03,-0.255
02:12:25.100:1,0.04,-0.25
02:12:25.104:1,0.015,-0.225
02:12:25.108:1,0.015,-0.24
02:12:25.112:1,0.015,-0.26
02:12:25.116:1,0.03,-0.26
02:12:25.120:1,0.01,-0.25
02:12:25.124:1,0.02,-0.29
02:12:25.128:1,0.01,-0.3
02:12:25.132:1,0.035,-0.27
02:12:25.136:1,0.03,-0.225
02:12:25.140:1,0.045,-0.2
02:12:25.144:1,0.06,-0.18
02:12:25.148:1,0.05,-0.145
02:12:25.152:1,0.045,-0.145
02:12:25.156:1,0.04,-0.135
02:12:25.160:1,0.03,-0.115
02:12:25.164:1,0.045,-0.13
02:12:25.168:1,0.05,-0.135
02:12:25.172:1,0.03,-0.155
02:12:25.176:1,0.02,-0.155
02:12:25.180:1,0.015,-0.175
02:12:25.184:1,0.025,-0.16
02:12:25.188:1,0.03,-0.18
02:12:25.192:1,0.025,-0.21
02:12:25.196:1,0.035,-0.22
02:12:25.200:1,0.015,-0.22
02:12:25.204:1,0.025,-0.22
02:12:25.208:1,0.01,-0.23
02:12:25.212:1,0.015,-0.23
02:12:25.216:1,0.01,-0.22
02:12:25.220:1,0.02,-0.215
02:12:25.224:1,0.025,-0.22
02:12:25.228:1,0.025,-0.215
02:12:25.232:1,0.025,-0.225
02:12:25.236:1,0.03,-0.22
02:12:25.240:1,0.02,-0.21
02:12:25.244:1,0.025,-0.225
02:12:25.248:1,0.015,-0.235
02:12:25.252:1,0.01,-0.23
02:12:25.256:1,0.0,-0.23
02:12:25.260:1,0.01,-0.235
02:12:25.264:1,0.025,-0.24
02:12:25.268:1,0.005,-0.245
02:12:25.272:1,0.02,-0.25
02:12:25.276:1,0.015,-0.26
02:12:25.280:1,0.01,-0.24
02:12:25.284:1,0.015,-0.255
02:12:25.288:1,0.02,-0.245
02:12:25.292:1,0.03,-0.235
02:12:25.296:1,0.04,-0.23
02:12:25.300:1,0.045,-0.225
02:12:25.304:1,0.04,-0.2
02:12:25.308:1,0.035,-0.185
02:12:25.312:1,0.01,-0.195
02:12:25.316:1,0.02,-0.18
02:12:25.320:1,0.01,-0.16
02:12:25.324:1,0.0,-0.165
02:12:25.328:1,0.0,-0.165
02:12:25.332:1,0.035,-0.17
02:12:25.336:1,0.02,-0.145
02:12:25.340:1,0.01,-0.16
02:12:25.344:1,0.005,-0.18
02:12:25.348:1,0.025,-0.195
02:12:25.352:1,0.025,-0.18
02:12:25.356:1,0.005,-0.18
02:12:25.360:1,0.035,-0.155
02:12:25.364:1,0.05,-0.18
02:12:25.368:1,0.045,-0.195
02:12:25.372:1,0.04,-0.205
02:12:25.376:1,0.035,-0.19
02:12:25.380:1,0.05,-0.205
02:12:25.384:1,0.035,-0.21
02:12:25.388:1,0.02,-0.215
02:12:25.392:1,0.03,-0.23
02:12:25.396:1,0.045,-0.225
02:12:25.400:1,0.05,-0.24
02:12:25.404:1,0.05,-0.235
02:12:25.408:1,0.025,-0.24
02:12:25.412:1,0.035,-0.245
02:12:25.416:1,0.015,-0.235
02:12:25.420:1,0.025,-0.215
02:12:25.424:1,0.045,-0.19
02:12:25.428:1,0.04,-0.13
02:12:25.432:1,0.055,-0.02
02:12:25.436:1,0.085,0.2
02:12:25.440:1,0.09,0.475
02:12:25.444:1,0.14,0.735
02:12:25.448:1,0.205,0.745
02:12:25.452:1,0.315,0.545
02:12:25.456:1,0.35,0.135
02:12:25.460:1,0.355,-0.44
02:12:25.464:1,0.3,-0.86
02:12:25.468:1,0.21,-1.05
02:12:25.472:1,0.065,-1.09
02:12:25.476:1,-0.075,-0.94
02:12:25.480:1,-0.185,-0.755
02:12:25.484:1,-0.26,-0.585
02:12:25.488:1,-0.255,-0.46
02:12:25.492:1,-0.23,-0.365
02:12:25.496:1,-0.19,-0.25
02:12:25.500:1,-0.105,-0.18
02:12:25.504:1,-0.06,-0.155
02:12:25.508:1,0.0,-0.17
02:12:25.512:1,0.03,-0.195
02:12:25.516:1,0.025,-0.185
02:12:25.520:1,0.045,-0.185
02:12:25.524:1,0.04,-0.2
02:12:25.528:1,0.045,-0.225
02:12:25.532:1,0.045,-0.21
02:12:25.536:1,0.05,-0.22
02:12:25.540:1,0.05,-0.235
02:12:25.544:1,0.055,-0.245
02:12:25.548:1,0.045,-0.24
02:12:25.552:1,0.04,-0.24
02:12:25.556:1,0.035,-0.255
02:12:25.560:1,0.045,-0.27
02:12:25.564:1,0.05,-0.26
02:12:25.568:1,0.045,-0.265
02:12:25.572:1,0.025,-0.27
02:12:25.576:1,0.025,-0.27
02:12:25.580:1,0.03,-0.265
02:12:25.584:1,0.01,-0.26
02:12:25.588:1,0.01,-0.285
02:12:25.592:1,0.03,-0.3
02:12:25.596:1,0.015,-0.28
02:12:25.600:1,0.02,-0.29
02:12:25.604:1,0.025,-0.28
02:12:25.608:1,0.02,-0.305
02:12:25.612:1,0.015,-0.295
02:12:25.616:1,0.03,-0.3
02:12:25.620:1,0.025,-0.27
02:12:25.624:1,0.025,-0.205
02:12:25.628:1,0.045,-0.205
02:12:25.632:1,0.065,-0.19
02:12:25.636:1,0.035,-0.165
02:12:25.640:1,0.015,-0.16
02:12:25.644:1,0.005,-0.17
02:12:25.648:1,0.01,-0.165
02:12:25.652:1,-0.005,-0.16
02:12:25.656:1,0.0,-0.16
02:12:25.660:1,-0.01,-0.16
02:12:25.664:1,0.005,-0.155
02:12:25.668:1,-0.03,-0.115
02:12:25.672:1,-0.005,-0.13
02:12:25.676:1,-0.01,-0.105
02:12:25.680:1,-0.005,-0.095
02:12:25.684:1,-0.005,-0.075
02:12:25.688:1,0.02,-0.075
02:12:25.692:1,0.05,-0.095
02:12:25.696:1,0.05,-0.105
02:12:25.700:1,0.04,-0.11
02:12:25.704:1,0.055,-0.105
02:12:25.708:1,0.035,-0.115
02:12:25.712:1,0.025,-0.105
02:12:25.716:1,0.055,-0.1
02:12:25.720:1,0.045,-0.095
02:12:25.724:1,0.03,-0.09
02:12:25.728:1,0.02,-0.105
02:12:25.732:1,0.035,-0.095
02:12:25.736:1,0.03,-0.085
02:12:25.740:1,0.05,-0.105
02:12:25.744:1,0.035,-0.095
02:12:25.748:1,0.035,-0.1
02:12:25.752:1,0.04,-0.115
02:12:25.756:1,0.035,-0.11
02:12:25.760:1,0.035,-0.115
02:12:25.764:1,0.035,-0.12
02:12:25.768:1,0.055,-0.13
02:12:25.772:1,0.045,-0.14
02:12:25.776:1,0.05,-0.135
02:12:25.780:1,0.055,-0.15
02:12:25.784:1,0.055,-0.16
02:12:25.788:1,0.04,-0.145
02:12:25.792:1,0.06,-0.105
02:12:25.796:1,0.075,-0.055
02:12:25.800:1,0.1,-0.02
02:12:25.804:1,0.095,-0.035
02:12:25.808:1,0.105,0.0
02:12:25.812:1,0.09,-0.01
02:12:25.816:1,0.09,-0.01
02:12:25.820:1,0.09,-0.015
02:12:25.824:1,0.07,-0.015
02:12:25.828:1,0.06,-0.015
02:12:25.832:1,0.06,-0.045
02:12:25.836:1,0.055,-0.045
02:12:25.840:1,0.035,-0.02
02:12:25.844:1,0.025,-0.03
02:12:25.848:1,0.03,-0.035
02:12:25.852:1,0.035,-0.015
02:12:25.856:1,0.055,-0.025
02:12:25.860:1,0.07,-0.025
02:12:25.864:1,0.07,-0.05
02:12:25.868:1,0.075,-0.09
02:12:25.872:1,0.07,-0.1
02:12:25.876:1,0.08,-0.09
02:12:25.880:1,0.06,-0.09
02:12:25.884:1,0.07,-0.12
02:12:25.888:1,0.07,-0.12
02:12:25.892:1,0.065,-0.115
02:12:25.896:1,0.055,-0.12
02:12:25.900:1,0.06,-0.145
02:12:25.904:1,0.055,-0.145
02:12:25.908:1,0.045,-0.16
02:12:25.912:1,0.05,-0.18
02:12:25.916:1,0.045,-0.19
02:12:25.920:1,0.045,-0.21
02:12:25.924:1,0.025,-0.22
02:12:25.928:1,0.04,-0.235
02:12:25.932:1,0.035,-0.25
02:12:25.936:1,0.03,-0.265
02:12:25.940:1,0.02,-0.275
02:12:25.944:1,0.02,-0.265
02:12:25.948:1,0.02,-0.265
02:12:25.952:1,0.02,-0.27
02:12:25.956:1,0.02,-0.24
02:12:25.960:1,0.0,-0.22
02:12:25.964:1,-0.005,-0.21
02:12:25.968:1,-0.01,-0.205
02:12:25.972:1,-0.005,-0.195
02:12:25.976:1,-0.02,-0.195
02:12:25.980:1,-0.015,-0.205
02:12:25.984:1,0.0,-0.21
02:12:25.988:1,-0.03,-0.21
02:12:25.992:1,-0.025,-0.2
02:12:25.996:1,-0.025,-0.21
02:12:26.000:1,-0.015,-0.21
02:12:26.004:1,-0.025,-0.205
02:12:26.008:1,0.0,-0.2
02:12:26.012:1,-0.01,-0.2
02:12:26.016:1,-0.015,-0.175
02:12:26.020:1,-0.015,-0.17
02:12:26.024:1,0.0,-0.175
02:12:26.028:1,-0.01,-0.16
02:12:26.032:1,-0.015,-0.155
02:12:26.036:1,0.01,-0.16
02:12:26.040:1,0.02,-0.13
02:12:26.044:1,0.03,-0.075
02:12:26.048:1,0.075,0.045
02:12:26.052:1,0.085,0.27
02:12:26.056:1,0.115,0.54
02:12:26.060:1,0.14,0.735
02:12:26.064:1,0.21,0.79
02:12:26.068:1,0.295,0.575
02:12:26.072:1,0.36,0.145
02:12:26.076:1,0.345,-0.47
02:12:26.080:1,0.24,-0.965
02:12:26.084:1,0.095,-1.155
02:12:26.088:1,-0.1,-1.12
02:12:26.092:1,-0.24,-0.945
02:12:26.096:1,-0.31,-0.755
02:12:26.100:1,-0.3,-0.59
02:12:26.104:1,-0.265,-0.435
02:12:26.108:1,-0.19,-0.325
02:12:26.112:1,-0.11,-0.27
02:12:26.116:1,-0.045,-0.28
02:12:26.120:1,-0.015,-0.245
02:12:26.124:1,0.0,-0.245
02:12:26.128:1,0.0,-0.24
02:12:26.132:1,-0.005,-0.26
02:12:26.136:1,0.01,-0.23
02:12:26.140:1,-0.025,-0.235
02:12:26.144:1,-0.025,-0.26
02:12:26.148:1,-0.045,-0.275
02:12:26.152:1,-0.025,-0.265
02:12:26.156:1,-0.04,-0.25
02:12:26.160:1,-0.035,-0.24
02:12:26.164:1,-0.03,-0.265
02:12:26.168:1,-0.03,-0.265
02:12:26.172:1,-0.03,-0.28
02:12:26.176:1,-0.015,-0.265
02:12:26.180:1,-0.025,-0.26
02:12:26.184:1,-0.02,-0.255
02:12:26.188:1,-0.01,-0.28
02:12:26.192:1,-0.02,-0.255
02:12:26.196:1,-0.025,-0.255
02:12:26.200:1,-0.01,-0.23
02:12:26.204:1,-0.015,-0.24
02:12:26.208:1,0.01,-0.24
02:12:26.212:1,0.015,-0.265
02:12:26.216:1,0.035,-0.29
02:12:26.220:1,0.02,-0.28
02:12:26.224:1,0.0,-0.28
02:12:26.228:1,0.0,-0.315
02:12:26.232:1,0.015,-0.285
02:12:26.236:1,0.0,-0.27
02:12:26.240:1,-0.01,-0.265
02:12:26.244:1,0.005,-0.27
02:12:26.248:1,0.02,-0.245
02:12:26.252:1,0.005,-0.255
02:12:26.256:1,0.02,-0.26
02:12:26.260:1,0.02,-0.25
02:12:26.264:1,0.035,-0.235
02:12:26.268:1,0.05,-0.23
02:12:26.272:1,0.07,-0.21
02:12:26.276:1,0.095,-0.18
02:12:26.280:1,0.1,-0.16
02:12:26.284:1,0.1,-0.165
02:12:26.288:1,0.075,-0.155
02:12:26.292:1,0.055,-0.16
02:12:26.296:1,0.035,-0.175
02:12:26.300:1,0.02,-0.165
02:12:26.304:1,-0.01,-0.16
02:12:26.308:1,-0.015,-0.16
02:12:26.312:1,0.0,-0.165
02:12:26.316:1,0.0,-0.15
02:12:26.320:1,-0.015,-0.145
02:12:26.324:1,0.005,-0.13
02:12:26.328:1,0.0,-0.13
02:12:26.332:1,0.0,-0.145
02:12:26.336:1,0.0,-0.14
02:12:26.340:1,0.015,-0.135
02:12:26.344:1,0.0,-0.135
02:12:26.348:1,0.0,-0.14
02:12:26.352:1,-0.005,-0.125
02:12:26.356:1,0.0,-0.115
02:12:26.360:1,0.015,-0.12
02:12:26.364:1,0.04,-0.12
02:12:26.368:1,0.035,-0.1
02:12:26.372:1,0.03,-0.115
02:12:26.376:1,0.05,-0.12
02:12:26.380:1,0.065,-0.125
02:12:26.384:1,0.065,-0.16
02:12:26.388:1,0.07,-0.185
02:12:26.392:1,0.07,-0.18
02:12:26.396:1,0.08,-0.185
02:12:26.400:1,0.065,-0.195
02:12:26.404:1,0.075,-0.2
02:12:26.408:1,0.055,-0.215
02:12:26.412:1,0.055,-0.205
02:12:26.416:1,0.065,-0.205
02:12:26.420:1,0.06,-0.205
02:12:26.424:1,0.06,-0.205
02:12:26.428:1,0.045,-0.23
02:12:26.432:1,0.065,-0.215
02:12:26.436:1,0.06,-0.21
02:12:26.440:1,0.06,-0.22
02:12:26.444:1,0.075,-0.225
02:12:26.448:1,0.065,-0.24
02:12:26.452:1,0.07,-0.245
02:12:26.456:1,0.075,-0.245
02:12:26.460:1,0.09,-0.235
02:12:26.464:1,0.1,-0.16
02:12:26.468:1,0.09,-0.125
02:12:26.472:1,0.1,-0.1
02:12:26.476:1,0.11,-0.085
02:12:26.480:1,0.095,-0.095
02:12:26.484:1,0.085,-0.145
02:12:26.488:1,0.06,-0.145
02:12:26.492:1,0.05,-0.155
02:12:26.496:1,0.04,-0.155
02:12:26.500:1,0.035,-0.18
02:12:26.504:1,0.025,-0.195
02:12:26.508:1,0.015,-0.2
02:12:26.512:1,0.015,-0.2
02:12:26.516:1,0.02,-0.195
02:12:26.520:1,0.025,-0.19
02:12:26.524:1,0.0,-0.195
02:12:26.528:1,0.01,-0.23
02:12:26.532:1,0.01,-0.225
02:12:26.536:1,0.005,-0.235
02:12:26.540:1,0.01,-0.235
02:12:26.544:1,0.0,-0.25
02:12:26.548:1,0.0,-0.255
02:12:26.552:1,-0.01,-0.255
02:12:26.556:1,-0.005,-0.25
02:12:26.560:1,-0.01,-0.245
02:12:26.564:1,-0.01,-0.22
02:12:26.568:1,-0.02,-0.21
02:12:26.572:1,0.0,-0.195
02:12:26.576:1,0.02,-0.21
02:12:26.580:1,0.025,-0.205
02:12:26.584:1,0.025,-0.22
02:12:26.588:1,0.03,-0.23
02:12:26.592:1,0.035,-0.24
02:12:26.596:1,0.01,-0.235
02:12:26.600:1,0.03,-0.25
02:12:26.604:1,0.025,-0.26
02:12:26.608:1,0.03,-0.255
02:12:26.612:1,0.05,-0.25
02:12:26.616:1,0.05,-0.255
02:12:26.620:1,0.045,-0.275
02:12:26.624:1,0.05,-0.285
02:12:26.628:1,0.055,-0.3
02:12:26.632:1,0.035,-0.3
02:12:26.636:1,0.04,-0.29
02:12:26.640:1,0.045,-0.315
02:12:26.644:1,0.06,-0.315
02:12:26.648:1,0.045,-0.27
02:12:26.652:1,0.06,-0.185
02:12:26.656:1,0.055,-0.135
02:12:26.660:1,0.06,-0.105
02:12:26.664:1,0.065,-0.135
02:12:26.668:1,0.055,-0.15
02:12:26.672:1,0.045,-0.125
02:12:26.676:1,0.045,-0.12
02:12:26.680:1,0.03,-0.125
02:12:26.684:1,0.045,-0.155
02:12:26.688:1,0.025,-0.17
02:12:26.692:1,0.02,-0.18
02:12:26.696:1,0.015,-0.195
02:12:26.700:1,0.0,-0.21
02:12:26.704:1,0.005,-0.215
02:12:26.708:1,0.005,-0.21
02:12:26.712:1,-0.01,-0.215
02:12:26.716:1,0.0,-0.23
02:12:26.720:1,0.0,-0.24
02:12:26.724:1,0.0,-0.23
02:12:26.728:1,-0.02,-0.22
02:12:26.732:1,0.0,-0.24
02:12:26.736:1,-0.01,-0.235
02:12:26.740:1,0.0,-0.235
02:12:26.744:1,0.0,-0.24
02:12:26.748:1,0.005,-0.225
02:12:26.752:1,-0.005,-0.23
02:12:26.756:1,-0.015,-0.25
02:12:26.760:1,0.0,-0.295
02:12:26.764:1,-0.035,-0.285
02:12:26.768:1,-0.03,-0.28
02:12:26.772:1,-0.03,-0.265
02:12:26.776:1,-0.035,-0.3
02:12:26.780:1,-0.045,-0.315
02:12:26.784:1,-0.03,-0.31
02:12:26.788:1,-0.025,-0.295
02:12:26.792:1,-0.045,-0.265
02:12:26.796:1,-0.05,-0.28
02:12:26.800:1,-0.03,-0.325
02:12:26.804:1,-0.05,-0.34
02:12:26.808:1,-0.06,-0.335
02:12:26.812:1,-0.045,-0.32
02:12:26.816:1,-0.035,-0.31
02:12:26.820:1,-0.035,-0.285
02:12:26.824:1,-0.005,-0.275
02:12:26.828:1,0.03,-0.18
02:12:26.832:1,0.05,-0.11
02:12:26.836:1,0.08,-0.08
02:12:26.840:1,0.12,-0.045
02:12:26.844:1,0.11,0.02
02:12:26.848:1,0.12,0.18
02:12:26.852:1,0.14,0.43
02:12:26.856:1,0.15,0.65
02:12:26.860:1,0.185,0.815
02:12:26.864:1,0.24,0.765
02:12:26.868:1,0.33,0.53
02:12:26.872:1,0.345,0.05
02:12:26.876:1,0.305,-0.545
02:12:26.880:1,0.22,-0.97
02:12:26.884:1,0.08,-1.135
02:12:26.888:1,-0.11,-1.115
02:12:26.892:1,-0.26,-0.955
02:12:26.896:1,-0.32,-0.78
02:12:26.900:1,-0.32,-0.63
02:12:26.904:1,-0.285,-0.52
02:12:26.908:1,-0.24,-0.4
02:12:26.912:1,-0.16,-0.32
02:12:26.916:1,-0.085,-0.295
02:12:26.920:1,-0.02,-0.315
02:12:26.924:1,0.01,-0.305
02:12:26.928:1,0.0,-0.3
02:12:26.932:1,-0.01,-0.305
02:12:26.936:1,0.0,-0.3
02:12:26.940:1,-0.01,-0.3
02:12:26.944:1,0.0,-0.315
02:12:26.948:1,0.0,-0.3
02:12:26.952:1,0.0,-0.31
02:12:26.956:1,-0.015,-0.305
02:12:26.960:1,-0.025,-0.325
02:12:26.964:1,-0.025,-0.33
02:12:26.968:1,-0.025,-0.3
02:12:26.972:1,-0.015,-0.305
02:12:26.976:1,-0.01,-0.305
02:12:26.980:1,0.0,-0.32
02:12:26.984:1,0.0,-0.32
02:12:26.988:1,-0.005,-0.32
02:12:26.992:1,-0.01,-0.315
02:12:26.996:1,-0.015,-0.3
02:12:27.000:1,-0.025,-0.31
02:12:27.004:1,-0.025,-0.285
02:12:27.008:1,-0.03,-0.29
02:12:27.012:1,-0.015,-0.29
02:12:27.016:1,0.0,-0.305
02:12:27.020:1,-0.01,-0.29
02:12:27.024:1,-0.035,-0.295
02:12:27.028:1,-0.02,-0.29
02:12:27.032:1,-0.015,-0.28
02:12:27.036:1,-0.025,-0.26
02:12:27.040:1,-0.02,-0.275
02:12:27.044:1,-0.025,-0.27
02:12:27.048:1,-0.03,-0.26
02:12:27.052:1,-0.035,-0.24
02:12:27.056:1,-0.025,-0.24
02:12:27.060:1,-0.005,-0.23
02:12:27.064:1,-0.015,-0.23
02:12:27.068:1,0.0,-0.2
02:12:27.072:1,0.0,-0.18
02:12:27.076:1,0.005,-0.165
02:12:27.080:1,0.0,-0.185
02:12:27.084:1,0.015,-0.19
02:12:27.088:1,0.015,-0.18
02:12:27.092:1,0.01,-0.18
02:12:27.096:1,0.005,-0.17
02:12:27.100:1,0.005,-0.165
02:12:27.104:1,0.01,-0.145
02:12:27.108:1,0.015,-0.115
02:12:27.112:1,0.035,-0.095
02:12:27.116:1,0.065,-0.055
02:12:27.120:1,0.06,-0.06
02:12:27.124:1,0.075,-0.075
02:12:27.128:1,0.095,-0.08
02:12:27.132:1,0.105,-0.045
02:12:27.136:1,0.085,-0.015
02:12:27.140:1,0.105,-0.03
02:12:27.144:1,0.105,-0.06
02:12:27.148:1,0.09,-0.06
02:12:27.152:1,0.055,-0.095
02:12:27.156:1,0.045,-0.13
02:12:27.160:1,0.005,-0.125
02:12:27.164:1,-0.015,-0.135
02:12:27.168:1,-0.02,-0.16
02:12:27.172:1,-0.015,-0.17
02:12:27.176:1,-0.015,-0.185
02:12:27.180:1,-0.01,-0.185
02:12:27.184:1,-0.005,-0.21
02:12:27.188:1,-0.01,-0.215
02:12:27.192:1,-0.02,-0.225
02:12:27.196:1,-0.02,-0.24
02:12:27.200:1,-0.035,-0.235
02:12:27.204:1,-0.045,-0.23
02:12:27.208:1,-0.035,-0.235
02:12:27.212:1,-0.02,-0.235
02:12:27.216:1,-0.03,-0.22
02:12:27.220:1,-0.03,-0.245
02:12:27.224:1,-0.03,-0.24
02:12:27.228:1,-0.04,-0.235
02:12:27.232:1,-0.03,-0.215
02:12:27.236:1,-0.045,-0.22
02:12:27.240:1,-0.025,-0.24
02:12:27.244:1,-0.025,-0.23
02:12:27.248:1,-0.02,-0.225
02:12:27.252:1,-0.015,-0.21
02:12:27.256:1,-0.01,-0.22
02:12:27.260:1,0.0,-0.23
02:12:27.264:1,-0.005,-0.23
02:12:27.268:1,-0.015,-0.15
02:12:27.272:1,-0.035,-0.035
02:12:27.276:1,-0.005,0.125
02:12:27.280:1,0.03,0.35
02:12:27.284:1,0.065,0.495
02:12:27.288:1,0.145,0.38
02:12:27.292:1,0.23,0.12
02:12:27.296:1,0.255,-0.39
02:12:27.300:1,0.24,-0.935
02:12:27.304:1,0.17,-1.22
02:12:27.308:1,0.075,-1.24
02:12:27.312:1,-0.07,-1.115
02:12:27.316:1,-0.21,-0.915
02:12:27.320:1,-0.275,-0.765
02:12:27.324:1,-0.265,-0.61
02:12:27.328:1,-0.225,-0.475
02:12:27.332:1,-0.205,-0.365
02:12:27.336:1,-0.145,-0.295
02:12:27.340:1,-0.09,-0.295
02:12:27.344:1,-0.03,-0.32
02:12:27.348:1,-0.01,-0.325
02:12:27.352:1,0.01,-0.32
02:12:27.356:1,0.015,-0.275
02:12:27.360:1,0.01,-0.23
02:12:27.364:1,-0.005,-0.23
02:12:27.368:1,0.025,-0.22
02:12:27.372:1,0.02,-0.245
02:12:27.376:1,-0.005,-0.28
02:12:27.380:1,-0.035,-0.31
02:12:27.384:1,-0.04,-0.33
02:12:27.388:1,-0.08,-0.32
02:12:27.392:1,-0.1,-0.315
02:12:27.396:1,-0.095,-0.33
02:12:27.400:1,-0.085,-0.335
02:12:27.404:1,-0.07,-0.33
02:12:27.408:1,-0.085,-0.325
02:12:27.412:1,-0.08,-0.335
02:12:27.416:1,-0.07,-0.34
02:12:27.420:1,-0.07,-0.345
02:12:27.424:1,-0.075,-0.335
02:12:27.428:1,-0.065,-0.315
02:12:27.432:1,-0.08,-0.305
02:12:27.436:1,-0.055,-0.31
02:12:27.440:1,-0.05,-0.305
02:12:27.444:1,-0.065,-0.295
02:12:27.448:1,-0.065,-0.3
02:12:27.452:1,-0.045,-0.29
02:12:27.456:1,-0.065,-0.285
02:12:27.460:1,-0.055,-0.26
02:12:27.464:1,-0.06,-0.25
02:12:27.468:1,-0.05,-0.24
02:12:27.472:1,-0.045,-0.23
02:12:27.476:1,-0.04,-0.225
02:12:27.480:1,-0.04,-0.21
02:12:27.484:1,-0.045,-0.195
02:12:27.488:1,-0.04,-0.185
02:12:27.492:1,-0.03,-0.19
02:12:27.496:1,-0.04,-0.155
02:12:27.500:1,-0.02,-0.14
02:12:27.504:1,-0.035,-0.145
02:12:27.508:1,-0.015,-0.12
02:12:27.512:1,0.0,-0.1
02:12:27.516:1,0.02,-0.115
02:12:27.520:1,0.015,-0.155
02:12:27.524:1,0.025,-0.15
02:12:27.528:1,0.01,-0.135
02:12:27.532:1,0.03,-0.115
02:12:27.536:1,0.04,-0.105
02:12:27.540:1,0.035,-0.09
02:12:27.544:1,0.03,-0.06
02:12:27.548:1,0.05,-0.055
02:12:27.552:1,0.02,-0.06
02:12:27.556:1,0.035,-0.09
02:12:27.560:1,0.02,-0.11
02:12:27.564:1,0.025,-0.13
02:12:27.568:1,0.01,-0.135
02:12:27.572:1,0.01,-0.155
02:12:27.576:1,0.005,-0.16
02:12:27.580:1,-0.015,-0.21
02:12:27.584:1,-0.02,-0.23
02:12:27.588:1,-0.025,-0.22
02:12:27.592:1,-0.015,-0.23
02:12:27.596:1,-0.03,-0.245
02:12:27.600:1,-0.01,-0.245
02:12:27.604:1,-0.01,-0.245
02:12:27.608:1,-0.015,-0.245
02:12:27.612:1,-0.01,-0.245
02:12:27.616:1,-0.02,-0.265
02:12:27.620:1,-0.01,-0.27
02:12:27.624:1,-0.02,-0.26
02:12:27.628:1,-0.035,-0.27
02:12:27.632:1,-0.02,-0.285
02:12:27.636:1,-0.03,-0.28
02:12:27.640:1,-0.025,-0.285
02:12:27.644:1,-0.035,-0.285
02:12:27.648:1,-0.025,-0.29
02:12:27.652:1,-0.025,-0.265
02:12:27.656:1,-0.015,-0.275
02:12:27.660:1,0.0,-0.26
02:12:27.664:1,-0.005,-0.255
02:12:27.668:1,0.0,-0.245
02:12:27.672:1,-0.005,-0.25
02:12:27.676:1,0.005,-0.28
02:12:27.680:1,0.005,-0.3
02:12:27.684:1,0.01,-0.32
02:12:27.688:1,0.03,-0.305
02:12:27.692:1,0.02,-0.25
02:12:27.696:1,0.03,-0.24
02:12:27.700:1,0.06,-0.23
02:12:27.704:1,0.06,-0.17
02:12:27.708:1,0.03,-0.175
02:12:27.712:1,0.02,-0.185
02:12:27.716:1,0.025,-0.18
02:12:27.720:1,0.04,-0.175
02:12:27.724:1,0.04,-0.195
02:12:27.728:1,0.03,-0.185
02:12:27.732:1,0.035,-0.185
02:12:27.736:1,0.01,-0.165
02:12:27.740:1,0.025,-0.185
02:12:27.744:1,0.005,-0.195
02:12:27.748:1,0.005,-0.18
02:12:27.752:1,0.0,-0.21
02:12:27.756:1,0.0,-0.24
02:12:27.760:1,0.005,-0.22
02:12:27.764:1,0.0,-0.24
02:12:27.768:1,-0.005,-0.255
02:12:27.772:1,0.0,-0.255
02:12:27.776:1,-0.02,-0.265
02:12:27.780:1,0.0,-0.27
02:12:27.784:1,-0.01,-0.255
02:12:27.788:1,-0.02,-0.28
02:12:27.792:1,-0.02,-0.31
02:12:27.796:1,-0.025,-0.305
02:12:27.800:1,-0.02,-0.275
02:12:27.804:1,-0.02,-0.28
02:12:27.808:1,-0.03,-0.28
02:12:27.812:1,-0.025,-0.28
02:12:27.816:1,-0.01,-0.295
02:12:27.820:1,-0.015,-0.29
02:12:27.824:1,-0.025,-0.275
02:12:27.828:1,-0.01,-0.265
02:12:27.832:1,-0.01,-0.25
02:12:27.836:1,0.0,-0.25
02:12:27.840:1,-0.005,-0.24
02:12:27.844:1,0.005,-0.235
02:12:27.848:1,0.02,-0.255
02:12:27.852:1,0.025,-0.28
02:12:27.856:1,0.01,-0.32
02:12:27.860:1,0.015,-0.315
02:12:27.864:1,0.025,-0.265
02:12:27.868:1,0.025,-0.215
02:12:27.872:1,0.045,-0.225
02:12:27.876:1,0.045,-0.205
02:12:27.880:1,0.005,-0.2
02:12:27.884:1,0.02,-0.18
02:12:27.888:1,0.015,-0.185
02:12:27.892:1,0.03,-0.18
02:12:27.896:1,0.0,-0.19
02:12:27.900:1,0.0,-0.215
02:12:27.904:1,-0.01,-0.21
02:12:27.908:1,0.0,-0.22
02:12:27.912:1,-0.01,-0.235
02:12:27.916:1,-0.025,-0.24
02:12:27.920:1,-0.035,-0.24
02:12:27.924:1,-0.03,-0.25
02:12:27.928:1,-0.04,-0.265
02:12:27.932:1,-0.04,-0.28
02:12:27.936:1,-0.045,-0.29
02:12:27.940:1,-0.06,-0.295
02:12:27.944:1,-0.045,-0.295
02:12:27.948:1,-0.065,-0.28
02:12:27.952:1,-0.05,-0.305
02:12:27.956:1,-0.05,-0.32
02:12:27.960:1,-0.07,-0.31
02:12:27.964:1,-0.07,-0.32
02:12:27.968:1,-0.06,-0.335
02:12:27.972:1,-0.07,-0.345
02:12:27.976:1,-0.07,-0.35
02:12:27.980:1,-0.075,-0.37
02:12:27.984:1,-0.08,-0.35
02:12:27.988:1,-0.085,-0.335
02:12:27.992:1,-0.09,-0.335
02:12:27.996:1,-0.07,-0.355
02:12:28.000:1,-0.07,-0.335
02:12:28.004:1,-0.09,-0.32
02:12:28.008:1,-0.06,-0.34
02:12:28.012:1,-0.035,-0.36
02:12:28.016:1,-0.04,-0.35
02:12:28.020:1,-0.03,-0.375
02:12:28.024:1,-0.04,-0.355
02:12:28.028:1,-0.015,-0.295
02:12:28.032:1,-0.03,-0.24
02:12:28.036:1,-0.035,-0.205
02:12:28.040:1,-0.015,-0.21
02:12:28.044:1,-0.005,-0.185
02:12:28.048:1,-0.005,-0.17
02:12:28.052:1,0.0,-0.2
02:12:28.056:1,-0.015,-0.195
02:12:28.060:1,-0.01,-0.195
02:12:28.064:1,-0.025,-0.205
02:12:28.068:1,-0.02,-0.215
02:12:28.072:1,-0.025,-0.215
02:12:28.076:1,-0.04,-0.21
02:12:28.080:1,-0.03,-0.21
02:12:28.084:1,-0.035,-0.205
02:12:28.088:1,-0.02,-0.22
02:12:28.092:1,-0.03,-0.225
02:12:28.096:1,-0.03,-0.2
02:12:28.100:1,-0.02,-0.13
02:12:28.104:1,-0.035,-0.015
02:12:28.108:1,0.0,0.19
02:12:28.112:1,0.015,0.42
02:12:28.116:1,0.06,0.65
02:12:28.120:1,0.095,0.665
02:12:28.124:1,0.175,0.505
02:12:28.128:1,0.24,0.15
02:12:28.132:1,0.24,-0.41
02:12:28.136:1,0.2,-0.92
02:12:28.140:1,0.11,-1.145
02:12:28.144:1,-0.035,-1.205
02:12:28.148:1,-0.21,-1.1
02:12:28.152:1,-0.335,-0.935
02:12:28.156:1,-0.365,-0.795
02:12:28.160:1,-0.355,-0.66
02:12:28.164:1,-0.335,-0.54
02:12:28.168:1,-0.26,-0.415
02:12:28.172:1,-0.195,-0.36
02:12:28.176:1,-0.11,-0.35
02:12:28.180:1,-0.055,-0.335
02:12:28.184:1,-0.06,-0.32
02:12:28.188:1,-0.075,-0.325
02:12:28.192:1,-0.05,-0.31
02:12:28.196:1,-0.08,-0.275
02:12:28.200:1,-0.08,-0.28
02:12:28.204:1,-0.055,-0.27
02:12:28.208:1,-0.05,-0.25
02:12:28.212:1,-0.05,-0.235
02:12:28.216:1,-0.04,-0.25
02:12:28.220:1,-0.015,-0.25
02:12:28.224:1,-0.025,-0.255
02:12:28.228:1,-0.02,-0.29
02:12:28.232:1,-0.01,-0.285
02:12:28.236:1,-0.025,-0.295
02:12:28.240:1,-0.035,-0.31
02:12:28.244:1,-0.03,-0.295
02:12:28.248:1,-0.035,-0.32
02:12:28.252:1,-0.03,-0.32
02:12:28.256:1,-0.045,-0.325
02:12:28.260:1,-0.05,-0.31
02:12:28.264:1,-0.045,-0.31
02:12:28.268:1,-0.04,-0.34
02:12:28.272:1,-0.035,-0.36
02:12:28.276:1,-0.055,-0.355
02:12:28.280:1,-0.07,-0.35
02:12:28.284:1,-0.08,-0.36
02:12:28.288:1,-0.07,-0.375
02:12:28.292:1,-0.055,-0.365
02:12:28.296:1,-0.045,-0.36
02:12:28.300:1,-0.04,-0.35
02:12:28.304:1,-0.055,-0.35
02:12:28.308:1,-0.045,-0.36
02:12:28.312:1,-0.04,-0.36
02:12:28.316:1,-0.04,-0.325
02:12:28.320:1,-0.035,-0.275
02:12:28.324:1,-0.015,-0.275
02:12:28.328:1,-0.01,-0.26
02:12:28.332:1,-0.04,-0.245
02:12:28.336:1,-0.04,-0.24
02:12:28.340:1,-0.055,-0.23
02:12:28.344:1,-0.05,-0.22
02:12:28.348:1,-0.06,-0.23
02:12:28.352:1,-0.04,-0.23
02:12:28.356:1,-0.06,-0.22
02:12:28.360:1,-0.075,-0.195
02:12:28.364:1,-0.05,-0.205
02:12:28.368:1,-0.035,-0.195
02:12:28.372:1,-0.05,-0.185
02:12:28.376:1,-0.025,-0.175
02:12:28.380:1,-0.02,-0.18
02:12:28.384:1,-0.025,-0.16
02:12:28.388:1,-0.005,-0.185
02:12:28.392:1,-0.025,-0.16
02:12:28.396:1,-0.005,-0.18
02:12:28.400:1,-0.015,-0.16
02:12:28.404:1,-0.02,-0.175
02:12:28.408:1,-0.01,-0.17
02:12:28.412:1,-0.025,-0.17
02:12:28.416:1,0.0,-0.15
02:12:28.420:1,0.005,-0.145
02:12:28.424:1,0.0,-0.145
02:12:28.428:1,-0.005,-0.165
02:12:28.432:1,-0.01,-0.18
02:12:28.436:1,0.0,-0.175
02:12:28.440:1,-0.01,-0.165
02:12:28.444:1,-0.015,-0.19
02:12:28.448:1,0.0,-0.215
02:12:28.452:1,-0.02,-0.215
02:12:28.456:1,-0.01,-0.25
02:12:28.460:1,0.0,-0.25
02:12:28.464:1,0.0,-0.255
02:12:28.468:1,-0.03,-0.23
02:12:28.472:1,-0.015,-0.2
02:12:28.476:1,0.02,-0.17
02:12:28.480:1,0.015,-0.17
02:12:28.484:1,0.01,-0.15
02:12:28.488:1,0.01,-0.12
02:12:28.492:1,0.0,-0.095
02:12:28.496:1,0.01,-0.09
02:12:28.500:1,0.02,-0.085
02:12:28.504:1,0.02,-0.09
02:12:28.508:1,-0.01,-0.1
02:12:28.512:1,-0.02,-0.13
02:12:28.516:1,-0.015,-0.11
02:12:28.520:1,-0.02,-0.095
02:12:28.524:1,-0.02,-0.125
02:12:28.528:1,0.0,-0.125
02:12:28.532:1,-0.015,-0.115
02:12:28.536:1,-0.03,-0.115
02:12:28.540:1,-0.03,-0.115
02:12:28.544:1,-0.015,-0.115
02:12:28.548:1,-0.015,-0.115
02:12:28.552:1,-0.015,-0.125
02:12:28.556:1,-0.02,-0.11
02:12:28.560:1,-0.005,-0.125
02:12:28.564:1,-0.005,-0.125
02:12:28.568:1,-0.01,-0.17
02:12:28.572:1,0.015,-0.205
02:12:28.576:1,0.035,-0.2
02:12:28.580:1,0.015,-0.225
02:12:28.584:1,0.0,-0.225
02:12:28.588:1,0.0,-0.25
02:12:28.592:1,-0.015,-0.265
02:12:28.596:1,-0.01,-0.285
02:12:28.600:1,-0.01,-0.27
02:12:28.604:1,-0.025,-0.25
02:12:28.608:1,-0.04,-0.285
02:12:28.612:1,-0.035,-0.325
02:12:28.616:1,-0.03,-0.33
02:12:28.620:1,-0.05,-0.345
02:12:28.624:1,-0.05,-0.315
02:12:28.628:1,-0.05,-0.29
02:12:28.632:1,-0.04,-0.25
02:12:28.636:1,-0.04,-0.25
02:12:28.640:1,-0.02,-0.26
02:12:28.644:1,-0.045,-0.24
02:12:28.648:1,-0.065,-0.235
02:12:28.652:1,-0.07,-0.225
02:12:28.656:1,-0.065,-0.225
02:12:28.660:1,-0.06,-0.215
02:12:28.664:1,-0.05,-0.22
02:12:28.668:1,-0.055,-0.23
02:12:28.672:1,-0.05,-0.24
02:12:28.676:1,-0.06,-0.235
02:12:28.680:1,-0.05,-0.23
02:12:28.684:1,-0.045,-0.25
02:12:28.688:1,-0.04,-0.245
02:12:28.692:1,-0.045,-0.245
02:12:28.696:1,-0.05,-0.23
02:12:28.700:1,-0.045,-0.225
02:12:28.704:1,-0.055,-0.235
02:12:28.708:1,-0.04,-0.235
02:12:28.712:1,-0.045,-0.225
02:12:28.716:1,-0.05,-0.215
02:12:28.720:1,-0.045,-0.225
02:12:28.724:1,-0.04,-0.25
02:12:28.728:1,-0.045,-0.24
02:12:28.732:1,-0.04,-0.23
02:12:28.736:1,-0.035,-0.24
02:12:28.740:1,-0.035,-0.245
02:12:28.744:1,-0.035,-0.245
02:12:28.748:1,-0.045,-0.27
02:12:28.752:1,-0.03,-0.27
02:12:28.756:1,-0.035,-0.29
02:12:28.760:1,-0.02,-0.29
02:12:28.764:1,-0.01,-0.3
02:12:28.768:1,-0.04,-0.28
02:12:28.772:1,-0.025,-0.265
02:12:28.776:1,0.0,-0.24
02:12:28.780:1,0.0,-0.225
02:12:28.784:1,0.0,-0.215
02:12:28.788:1,0.005,-0.145
02:12:28.792:1,0.01,0.035
02:12:28.796:1,0.025,0.285
02:12:28.800:1,0.06,0.585
02:12:28.804:1,0.1,0.815
02:12:28.808:1,0.15,0.885
02:12:28.812:1,0.22,0.75
02:12:28.816:1,0.27,0.375
02:12:28.820:1,0.27,-0.23
02:12:28.824:1,0.18,-0.785
02:12:28.828:1,0.065,-1.085
02:12:28.832:1,-0.14,-1.17
02:12:28.836:1,-0.305,-1.075
02:12:28.840:1,-0.41,-0.9
02:12:28.844:1,-0.445,-0.73
02:12:28.848:1,-0.41,-0.595
02:12:28.852:1,-0.365,-0.485
02:12:28.856:1,-0.285,-0.385
02:12:28.860:1,-0.215,-0.34
02:12:28.864:1,-0.14,-0.33
02:12:28.868:1,-0.105,-0.355
02:12:28.872:1,-0.085,-0.365
02:12:28.876:1,-0.095,-0.34
02:12:28.880:1,-0.095,-0.325
02:12:28.884:1,-0.075,-0.34
02:12:28.888:1,-0.085,-0.33
02:12:28.892:1,-0.09,-0.34
02:12:28.896:1,-0.095,-0.34
02:12:28.900:1,-0.09,-0.34
02:12:28.904:1,-0.09,-0.32
02:12:28.908:1,-0.095,-0.315
02:12:28.912:1,-0.075,-0.3
02:12:28.916:1,-0.075,-0.28
02:12:28.920:1,-0.07,-0.275
02:12:28.924:1,-0.04,-0.26
02:12:28.928:1,-0.055,-0.265
02:12:28.932:1,-0.06,-0.275
02:12:28.936:1,-0.045,-0.285
02:12:28.940:1,-0.055,-0.29
02:12:28.944:1,-0.055,-0.29
02:12:28.948:1,-0.045,-0.325
02:12:28.952:1,-0.04,-0.335
02:12:28.956:1,-0.03,-0.355
02:12:28.960:1,-0.01,-0.35
02:12:28.964:1,-0.015,-0.31
02:12:28.968:1,-0.025,-0.26
02:12:28.972:1,-0.015,-0.25
02:12:28.976:1,-0.04,-0.225
02:12:28.980:1,-0.005,-0.23
02:12:28.984:1,-0.055,-0.24
02:12:28.988:1,-0.055,-0.25
02:12:28.992:1,-0.06,-0.265
02:12:28.996:1,-0.07,-0.245
02:12:29.000:1,-0.07,-0.265
02:12:29.004:1,-0.075,-0.275
02:12:29.008:1,-0.11,-0.275
02:12:29.012:1,-0.1,-0.26
02:12:29.016:1,-0.12,-0.27
02:12:29.020:1,-0.105,-0.255
02:12:29.024:1,-0.105,-0.25
02:12:29.028:1,-0.13,-0.26
02:12:29.032:1,-0.1,-0.255
02:12:29.036:1,-0.11,-0.26
02:12:29.040:1,-0.12,-0.25
02:12:29.044:1,-0.12,-0.235
02:12:29.048:1,-0.085,-0.23
02:12:29.052:1,-0.11,-0.235
02:12:29.056:1,-0.1,-0.215
02:12:29.060:1,-0.095,-0.21
02:12:29.064:1,-0.105,-0.195
02:12:29.068:1,-0.1,-0.19
02:12:29.072:1,-0.09,-0.2
02:12:29.076:1,-0.07,-0.185
02:12:29.080:1,-0.08,-0.17
02:12:29.084:1,-0.075,-0.17
02:12:29.088:1,-0.06,-0.155
02:12:29.092:1,-0.05,-0.155
02:12:29.096:1,-0.055,-0.14
02:12:29.100:1,-0.03,-0.155
02:12:29.104:1,-0.02,-0.135
02:12:29.108:1,-0.025,-0.135
02:12:29.112:1,-0.01,-0.135
02:12:29.116:1,0.005,-0.15
02:12:29.120:1,0.035,-0.155
02:12:29.124:1,0.04,-0.175
02:12:29.128:1,0.015,-0.185
02:12:29.132:1,0.035,-0.21
02:12:29.136:1,0.02,-0.19
02:12:29.140:1,0.005,-0.15
02:12:29.144:1,0.025,-0.165
02:12:29.148:1,0.05,-0.145
02:12:29.152:1,0.03,-0.13
02:12:29.156:1,0.025,-0.13
02:12:29.160:1,0.015,-0.15
02:12:29.164:1,0.0,-0.185
02:12:29.168:1,-0.015,-0.185
02:12:29.172:1,-0.04,-0.185
02:12:29.176:1,-0.05,-0.185
02:12:29.180:1,-0.05,-0.21
02:12:29.184:1,-0.06,-0.225
02:12:29.188:1,-0.055,-0.23
02:12:29.192:1,-0.06,-0.235
02:12:29.196:1,-0.07,-0.23
02:12:29.200:1,-0.05,-0.23
02:12:29.204:1,-0.07,-0.22
02:12:29.208:1,-0.055,-0.235
02:12:29.212:1,-0.05,-0.24
02:12:29.216:1,-0.055,-0.24
02:12:29.220:1,-0.065,-0.24
02:12:29.224:1,-0.08,-0.255
02:12:29.228:1,-0.07,-0.245
02:12:29.232:1,-0.075,-0.24
02:12:29.236:1,-0.06,-0.235
02:12:29.240:1,-0.055,-0.245
02:12:29.244:1,-0.05,-0.265
02:12:29.248:1,-0.055,-0.255
02:12:29.252:1,-0.06,-0.28
02:12:29.256:1,-0.055,-0.305
02:12:29.260:1,-0.08,-0.3
02:12:29.264:1,-0.06,-0.215
02:12:29.268:1,-0.035,-0.03
02:12:29.272:1,-0.005,0.245
02:12:29.276:1,0.05,0.495
02:12:29.280:1,0.12,0.645
02:12:29.284:1,0.18,0.56
02:12:29.288:1,0.265,0.22
02:12:29.292:1,0.285,-0.28
02:12:29.296:1,0.22,-0.74
02:12:29.300:1,0.085,-1.02
02:12:29.304:1,-0.055,-1.09
02:12:29.308:1,-0.22,-0.98
02:12:29.312:1,-0.33,-0.77
02:12:29.316:1,-0.365,-0.595
02:12:29.320:1,-0.315,-0.48
02:12:29.324:1,-0.29,-0.365
02:12:29.328:1,-0.23,-0.285
02:12:29.332:1,-0.15,-0.25
02:12:29.336:1,-0.095,-0.23
02:12:29.340:1,-0.065,-0.26
02:12:29.344:1,-0.05,-0.28
02:12:29.348:1,-0.04,-0.3
02:12:29.352:1,-0.065,-0.29
02:12:29.356:1,-0.055,-0.29
02:12:29.360:1,-0.05,-0.305
02:12:29.364:1,-0.065,-0.305
02:12:29.368:1,-0.075,-0.31
02:12:29.372:1,-0.07,-0.305
02:12:29.376:1,-0.065,-0.33
02:12:29.380:1,-0.09,-0.305
02:12:29.384:1,-0.095,-0.31
02:12:29.388:1,-0.095,-0.32
02:12:29.392:1,-0.08,-0.33
02:12:29.396:1,-0.07,-0.34
02:12:29.400:1,-0.085,-0.34
02:12:29.404:1,-0.085,-0.34
02:12:29.408:1,-0.07,-0.34
02:12:29.412:1,-0.085,-0.35
02:12:29.416:1,-0.07,-0.34
02:12:29.420:1,-0.09,-0.345
02:12:29.424:1,-0.065,-0.36
02:12:29.428:1,-0.075,-0.36
02:12:29.432:1,-0.07,-0.35
02:12:29.436:1,-0.085,-0.32
02:12:29.440:1,-0.08,-0.33
02:12:29.444:1,-0.055,-0.34
02:12:29.448:1,-0.065,-0.32
02:12:29.452:1,-0.07,-0.325
02:12:29.456:1,-0.05,-0.295
02:12:29.460:1,-0.055,-0.28
02:12:29.464:1,-0.03,-0.29
02:12:29.468:1,0.0,-0.245
02:12:29.472:1,0.025,-0.185
02:12:29.476:1,0.02,-0.17
02:12:29.480:1,0.035,-0.145
02:12:29.484:1,0.005,-0.14
02:12:29.488:1,0.0,-0.125
02:12:29.492:1,0.0,-0.145
02:12:29.496:1,0.0,-0.145
02:12:29.500:1,-0.015,-0.125
02:12:29.504:1,-0.01,-0.135
02:12:29.508:1,-0.025,-0.145
02:12:29.512:1,-0.01,-0.14
02:12:29.516:1,-0.03,-0.13
02:12:29.520:1,-0.04,-0.135
02:12:29.524:1,-0.005,-0.14
02:12:29.528:1,-0.045,-0.11
02:12:29.532:1,-0.045,-0.1
02:12:29.536:1,-0.015,-0.105
02:12:29.540:1,-0.02,-0.105
02:12:29.544:1,-0.01,-0.11
02:12:29.548:1,-0.035,-0.095
02:12:29.552:1,-0.025,-0.08
02:12:29.556:1,-0.01,-0.09
02:12:29.560:1,-0.015,-0.1
02:12:29.564:1,-0.005,-0.13
02:12:29.568:1,0.0,-0.145
02:12:29.572:1,0.005,-0.15
02:12:29.576:1,0.005,-0.175
02:12:29.580:1,0.005,-0.175
02:12:29.584:1,0.0,-0.18
02:12:29.588:1,-0.01,-0.195
02:12:29.592:1,-0.01,-0.195
02:12:29.596:1,0.0,-0.185
02:12:29.600:1,0.0,-0.2
02:12:29.604:1,0.005,-0.24
02:12:29.608:1,0.0,-0.225
02:12:29.612:1,0.0,-0.23
02:12:29.616:1,0.015,-0.23
02:12:29.620:1,0.02,-0.235
02:12:29.624:1,0.015,-0.235
02:12:29.628:1,0.005,-0.21
02:12:29.632:1,0.0,-0.18
02:12:29.636:1,0.005,-0.175
02:12:29.640:1,0.0,-0.175
02:12:29.644:1,-0.015,-0.17
02:12:29.648:1,0.03,-0.15
02:12:29.652:1,-0.005,-0.145
02:12:29.656:1,0.0,-0.14
02:12:29.660:1,-0.005,-0.155
02:12:29.664:1,0.0,-0.165
02:12:29.668:1,-0.03,-0.155
02:12:29.672:1,-0.02,-0.175
02:12:29.676:1,-0.02,-0.195
02:12:29.680:1,-0.025,-0.215
02:12:29.684:1,-0.02,-0.235
02:12:29.688:1,-0.03,-0.255
02:12:29.692:1,-0.02,-0.24
02:12:29.696:1,-0.035,-0.245
02:12:29.700:1,-0.045,-0.26
02:12:29.704:1,-0.03,-0.26
02:12:29.708:1,-0.055,-0.255
02:12:29.712:1,-0.025,-0.27
02:12:29.716:1,-0.045,-0.28
02:12:29.720:1,-0.04,-0.28
02:12:29.724:1,-0.055,-0.28
02:12:29.728:1,-0.06,-0.285
02:12:29.732:1,-0.05,-0.28
02:12:29.736:1,-0.04,-0.28
02:12:29.740:1,-0.045,-0.295
02:12:29.744:1,-0.045,-0.305
02:12:29.748:1,-0.055,-0.295
02:12:29.752:1,-0.06,-0.305
02:12:29.756:1,-0.045,-0.295
02:12:29.760:1,-0.04,-0.28
02:12:29.764:1,-0.04,-0.29
02:12:29.768:1,-0.035,-0.28
02:12:29.772:1,-0.035,-0.29
02:12:29.776:1,-0.015,-0.265
02:12:29.780:1,-0.03,-0.265
02:12:29.784:1,-0.015,-0.27
02:12:29.788:1,-0.01,-0.245
02:12:29.792:1,0.0,-0.195
02:12:29.796:1,-0.015,-0.2
02:12:29.800:1,-0.005,-0.2
02:12:29.804:1,-0.045,-0.185
02:12:29.808:1,-0.02,-0.145
02:12:29.812:1,-0.02,-0.16
02:12:29.816:1,-0.015,-0.185
02:12:29.820:1,-0.02,-0.18
02:12:29.824:1,-0.025,-0.19
02:12:29.828:1,-0.02,-0.195
02:12:29.832:1,-0.01,-0.2
02:12:29.836:1,-0.005,-0.225
02:12:29.840:1,0.005,-0.22
02:12:29.844:1,-0.03,-0.22
02:12:29.848:1,-0.015,-0.23
02:12:29.852:1,-0.015,-0.245
02:12:29.856:1,-0.03,-0.24
02:12:29.860:1,-0.035,-0.24
02:12:29.864:1,-0.035,-0.265
02:12:29.868:1,-0.035,-0.27
02:12:29.872:1,-0.03,-0.275
02:12:29.876:1,-0.045,-0.295
02:12:29.880:1,-0.03,-0.315
02:12:29.884:1,-0.03,-0.32
02:12:29.888:1,-0.05,-0.32
02:12:29.892:1,-0.035,-0.32
02:12:29.896:1,-0.055,-0.32
02:12:29.900:1,-0.065,-0.35
02:12:29.904:1,-0.06,-0.35
02:12:29.908:1,-0.04,-0.32
02:12:29.912:1,-0.06,-0.275
02:12:29.916:1,-0.02,-0.27
02:12:29.920:1,-0.01,-0.27
02:12:29.924:1,-0.025,-0.265
02:12:29.928:1,-0.025,-0.24
02:12:29.932:1,-0.025,-0.175
02:12:29.936:1,-0.025,-0.065
02:12:29.940:1,-0.025,0.1
02:12:29.944:1,0.015,0.315
02:12:29.948:1,0.03,0.55
02:12:29.952:1,0.065,0.665
02:12:29.956:1,0.135,0.575
02:12:29.960:1,0.205,0.3
02:12:29.964:1,0.225,-0.195
02:12:29.968:1,0.195,-0.72
02:12:29.972:1,0.155,-1.085
02:12:29.976:1,0.085,-1.17
02:12:29.980:1,-0.045,-1.07
02:12:29.984:1,-0.19,-0.89
02:12:29.988:1,-0.275,-0.745
02:12:29.992:1,-0.295,-0.6
02:12:29.996:1,-0.265,-0.495
02:12:30.000:1,-0.25,-0.42
02:12:30.004:1,-0.205,-0.335
02:12:30.008:1,-0.14,-0.28
02:12:30.012:1,-0.09,-0.275
02:12:30.016:1,-0.05,-0.285
02:12:30.020:1,-0.04,-0.3
02:12:30.024:1,-0.04,-0.315
02:12:30.028:1,-0.06,-0.325
02:12:30.032:1,-0.07,-0.325
02:12:30.036:1,-0.06,-0.34
02:12:30.040:1,-0.065,-0.34
02:12:30.044:1,-0.08,-0.37
02:12:30.048:1,-0.07,-0.37
02:12:30.052:1,-0.075,-0.38
02:12:30.056:1,-0.075,-0.37
02:12:30.060:1,-0.075,-0.39
02:12:30.064:1,-0.08,-0.44
02:12:30.068:1,-0.09,-0.45
02:12:30.072:1,-0.125,-0.41
02:12:30.076:1,-0.125,-0.385
02:12:30.080:1,-0.12,-0.39
02:12:30.084:1,-0.105,-0.39
02:12:30.088:1,-0.095,-0.34
02:12:30.092:1,-0.12,-0.33
02:12:30.096:1,-0.08,-0.32
02:12:30.100:1,-0.1,-0.31
02:12:30.104:1,-0.085,-0.295
02:12:30.108:1,-0.095,-0.335
02:12:30.112:1,-0.07,-0.3
02:12:30.116:1,-0.085,-0.295
02:12:30.120:1,-0.09,-0.295
02:12:30.124:1,-0.075,-0.31
02:12:30.128:1,-0.075,-0.28
02:12:30.132:1,-0.085,-0.29
02:12:30.136:1,-0.085,-0.29
02:12:30.140:1,-0.095,-0.285
02:12:30.144:1,-0.08,-0.27
02:12:30.148:1,-0.08,-0.265
02:12:30.152:1,-0.095,-0.24
02:12:30.156:1,-0.07,-0.21
02:12:30.160:1,-0.08,-0.19
02:12:30.164:1,-0.06,-0.235
02:12:30.168:1,-0.03,-0.235
02:12:30.172:1,-0.05,-0.22
02:12:30.176:1,-0.04,-0.23
02:12:30.180:1,-0.03,-0.255
02:12:30.184:1,-0.05,-0.225
02:12:30.188:1,-0.04,-0.22
02:12:30.192:1,-0.04,-0.22
02:12:30.196:1,-0.03,-0.21
02:12:30.200:1,-0.05,-0.205
02:12:30.204:1,-0.045,-0.205
02:12:30.208:1,-0.04,-0.2
02:12:30.212:1,-0.03,-0.175
02:12:30.216:1,-0.045,-0.155
02:12:30.220:1,-0.025,-0.155
02:12:30.224:1,-0.01,-0.14
02:12:30.228:1,0.0,-0.15
02:12:30.232:1,0.005,-0.165
02:12:30.236:1,0.0,-0.165
02:12:30.240:1,-0.01,-0.135
02:12:30.244:1,-0.045,-0.13
02:12:30.248:1,-0.04,-0.115
02:12:30.252:1,-0.04,-0.11
02:12:30.256:1,-0.025,-0.125
02:12:30.260:1,-0.015,-0.155
02:12:30.264:1,-0.015,-0.16
02:12:30.268:1,-0.035,-0.17
02:12:30.272:1,-0.045,-0.165
02:12:30.276:1,-0.035,-0.19
02:12:30.280:1,-0.05,-0.195
02:12:30.284:1,-0.045,-0.195
02:12:30.288:1,-0.035,-0.205
02:12:30.292:1,-0.05,-0.205
02:12:30.296:1,-0.07,-0.19
02:12:30.300:1,-0.055,-0.205
02:12:30.304:1,-0.05,-0.195
02:12:30.308:1,-0.065,-0.195
02:12:30.312:1,-0.04,-0.215
02:12:30.316:1,-0.035,-0.205
02:12:30.320:1,-0.045,-0.185
02:12:30.324:1,-0.05,-0.185
02:12:30.328:1,-0.04,-0.16
02:12:30.332:1,-0.035,-0.15
02:12:30.336:1,-0.035,-0.14
02:12:30.340:1,-0.025,-0.17
02:12:30.344:1,0.0,-0.205
02:12:30.348:1,-0.005,-0.185
02:12:30.352:1,0.005,-0.19
02:12:30.356:1,-0.005,-0.2
02:12:30.360:1,-0.005,-0.2
02:12:30.364:1,0.0,-0.195
02:12:30.368:1,0.02,-0.19
02:12:30.372:1,0.01,-0.19
02:12:30.376:1,0.015,-0.195
02:12:30.380:1,0.015,-0.205
02:12:30.384:1,0.02,-0.2
02:12:30.388:1,0.025,-0.19
02:12:30.392:1,0.02,-0.205
02:12:30.396:1,0.04,-0.18
02:12:30.400:1,0.015,-0.17
02:12:30.404:1,0.02,-0.185
02:12:30.408:1,0.01,-0.18
02:12:30.412:1,0.005,-0.185
02:12:30.416:1,-0.025,-0.18
02:12:30.420:1,-0.04,-0.185
02:12:30.424:1,-0.02,-0.195
02:12:30.428:1,-0.04,-0.21
02:12:30.432:1,-0.035,-0.22
02:12:30.436:1,-0.04,-0.24
02:12:30.440:1,-0.06,-0.215
02:12:30.444:1,-0.06,-0.25
02:12:30.448:1,-0.075,-0.28
02:12:30.452:1,-0.065,-0.265
02:12:30.456:1,-0.065,-0.28
02:12:30.460:1,-0.06,-0.295
02:12:30.464:1,-0.06,-0.3
02:12:30.468:1,-0.055,-0.28
02:12:30.472:1,-0.06,-0.29
02:12:30.476:1,-0.065,-0.255
02:12:30.480:1,-0.04,-0.16
02:12:30.484:1,-0.035,0.02
02:12:30.488:1,-0.03,0.275
02:12:30.492:1,-0.005,0.515
02:12:30.496:1,0.035,0.62
02:12:30.500:1,0.125,0.535
02:12:30.504:1,0.2,0.18
02:12:30.508:1,0.24,-0.35
02:12:30.512:1,0.2,-0.85
02:12:30.516:1,0.115,-1.09
02:12:30.520:1,-0.015,-1.155
02:12:30.524:1,-0.145,-1.035
02:12:30.528:1,-0.245,-0.885
02:12:30.532:1,-0.29,-0.695
02:12:30.536:1,-0.27,-0.55
02:12:30.540:1,-0.265,-0.455
02:12:30.544:1,-0.185,-0.345
02:12:30.548:1,-0.12,-0.285
02:12:30.552:1,-0.05,-0.26
02:12:30.556:1,-0.005,-0.26
02:12:30.560:1,0.0,-0.255
02:12:30.564:1,0.0,-0.26
02:12:30.568:1,-0.005,-0.255
02:12:30.572:1,0.01,-0.245
02:12:30.576:1,0.0,-0.255
02:12:30.580:1,-0.01,-0.24
02:12:30.584:1,-0.02,-0.265
02:12:30.588:1,-0.025,-0.26
02:12:30.592:1,-0.03,-0.26
02:12:30.596:1,-0.035,-0.27
02:12:30.600:1,-0.04,-0.285
02:12:30.604:1,-0.065,-0.295
02:12:30.608:1,-0.045,-0.295
02:12:30.612:1,-0.055,-0.3
02:12:30.616:1,-0.055,-0.295
02:12:30.620:1,-0.065,-0.28
02:12:30.624:1,-0.07,-0.3
02:12:30.628:1,-0.05,-0.29
02:12:30.632:1,-0.06,-0.295
02:12:30.636:1,-0.06,-0.3
02:12:30.640:1,-0.065,-0.33
02:12:30.644:1,-0.055,-0.32
02:12:30.648:1,-0.075,-0.325
02:12:30.652:1,-0.05,-0.3
02:12:30.656:1,-0.06,-0.325
02:12:30.660:1,-0.07,-0.34
02:12:30.664:1,-0.075,-0.345
02:12:30.668:1,-0.07,-0.335
02:12:30.672:1,-0.06,-0.27
02:12:30.676:1,-0.05,-0.23
02:12:30.680:1,-0.015,-0.225
02:12:30.684:1,0.0,-0.235
02:12:30.688:1,0.0,-0.24
02:12:30.692:1,0.0,-0.225
02:12:30.696:1,-0.01,-0.215
02:12:30.700:1,-0.02,-0.22
02:12:30.704:1,-0.03,-0.215
02:12:30.708:1,-0.03,-0.2
02:12:30.712:1,-0.03,-0.185
02:12:30.716:1,-0.03,-0.165
02:12:30.720:1,-0.025,-0.17
02:12:30.724:1,-0.03,-0.155
02:12:30.728:1,-0.025,-0.17
02:12:30.732:1,0.0,-0.165
02:12:30.736:1,-0.02,-0.16
02:12:30.740:1,-0.04,-0.145
02:12:30.744:1,-0.04,-0.14
02:12:30.748:1,-0.03,-0.15
02:12:30.752:1,-0.01,-0.135
02:12:30.756:1,-0.02,-0.12
02:12:30.760:1,-0.035,-0.13
02:12:30.764:1,-0.02,-0.115
02:12:30.768:1,-0.01,-0.12
02:12:30.772:1,-0.04,-0.105
02:12:30.776:1,-0.025,-0.11
02:12:30.780:1,-0.01,-0.13
02:12:30.784:1,-0.02,-0.16
02:12:30.788:1,-0.025,-0.145
02:12:30.792:1,-0.005,-0.16
02:12:30.796:1,-0.015,-0.15
02:12:30.800:1,-0.02,-0.175
02:12:30.804:1,0.0,-0.19
02:12:30.808:1,0.0,-0.175
02:12:30.812:1,-0.01,-0.155
02:12:30.816:1,0.0,-0.175
02:12:30.820:1,0.0,-0.21
02:12:30.824:1,0.0,-0.215
02:12:30.828:1,0.0,-0.22
02:12:30.832:1,0.01,-0.225
02:12:30.836:1,0.015,-0.215
02:12:30.840:1,0.04,-0.22
02:12:30.844:1,0.035,-0.19
02:12:30.848:1,0.025,-0.165
02:12:30.852:1,0.02,-0.135
02:12:30.856:1,0.065,-0.12
02:12:30.860:1,0.045,-0.12
02:12:30.864:1,0.04,-0.145
02:12:30.868:1,0.045,-0.155
02:12:30.872:1,0.025,-0.16
02:12:30.876:1,0.005,-0.15
02:12:30.880:1,-0.005,-0.175
02:12:30.884:1,-0.02,-0.195
02:12:30.888:1,0.0,-0.18
02:12:30.892:1,-0.01,-0.185
02:12:30.896:1,-0.025,-0.21
02:12:30.900:1,-0.005,-0.2
02:12:30.904:1,-0.04,-0.215
02:12:30.908:1,-0.03,-0.215
02:12:30.912:1,-0.03,-0.215
02:12:30.916:1,-0.04,-0.21
02:12:30.920:1,-0.02,-0.22
02:12:30.924:1,-0.03,-0.235
02:12:30.928:1,-0.02,-0.25
02:12:30.932:1,-0.035,-0.24
02:12:30.936:1,-0.03,-0.245
02:12:30.940:1,-0.045,-0.25
02:12:30.944:1,-0.04,-0.24
02:12:30.948:1,-0.045,-0.25
02:12:30.952:1,-0.04,-0.25
02:12:30.956:1,-0.035,-0.25
02:12:30.960:1,-0.05,-0.25
02:12:30.964:1,-0.035,-0.275
02:12:30.968:1,-0.035,-0.285
02:12:30.972:1,-0.055,-0.275
02:12:30.976:1,-0.06,-0.205
02:12:30.980:1,-0.04,-0.04
02:12:30.984:1,-0.015,0.195
02:12:30.988:1,0.0,0.425
02:12:30.992:1,0.075,0.615
02:12:30.996:1,0.13,0.56
02:12:31.000:1,0.22,0.315
02:12:31.004:1,0.235,-0.155
02:12:31.008:1,0.215,-0.67
02:12:31.012:1,0.085,-1.035
02:12:31.016:1,-0.05,-1.17
02:12:31.020:1,-0.215,-1.095
02:12:31.024:1,-0.35,-0.94
02:12:31.028:1,-0.4,-0.785
02:12:31.032:1,-0.37,-0.655
02:12:31.036:1,-0.305,-0.525
02:12:31.040:1,-0.235,-0.325
02:12:31.044:1,-0.165,-0.205
02:12:31.048:1,-0.06,-0.195
02:12:31.052:1,-0.03,-0.15
02:12:31.056:1,-0.025,-0.135
02:12:31.060:1,-0.035,-0.15
02:12:31.064:1,-0.005,-0.2
02:12:31.068:1,-0.01,-0.215
02:12:31.072:1,-0.02,-0.22
02:12:31.076:1,-0.035,-0.225
02:12:31.080:1,-0.04,-0.25
02:12:31.084:1,-0.04,-0.26
02:12:31.088:1,-0.07,-0.27
02:12:31.092:1,-0.08,-0.28
02:12:31.096:1,-0.08,-0.28
02:12:31.100:1,-0.095,-0.3
02:12:31.104:1,-0.075,-0.32
02:12:31.108:1,-0.095,-0.32
02:12:31.112:1,-0.1,-0.315
02:12:31.116:1,-0.08,-0.3
02:12:31.120:1,-0.07,-0.315
02:12:31.124:1,-0.095,-0.32
02:12:31.128:1,-0.095,-0.32
02:12:31.132:1,-0.09,-0.315
02:12:31.136:1,-0.1,-0.3
02:12:31.140:1,-0.11,-0.315
02:12:31.144:1,-0.09,-0.32
02:12:31.148:1,-0.075,-0.325
02:12:31.152:1,-0.075,-0.31
02:12:31.156:1,-0.11,-0.29
02:12:31.160:1,-0.09,-0.305
02:12:31.164:1,-0.095,-0.29
02:12:31.168:1,-0.09,-0.28
02:12:31.172:1,-0.09,-0.26
02:12:31.176:1,-0.08,-0.25
02:12:31.180:1,-0.07,-0.25
02:12:31.184:1,-0.07,-0.25
02:12:31.188:1,-0.06,-0.235
02:12:31.192:1,-0.05,-0.23
02:12:31.196:1,-0.055,-0.23
02:12:31.200:1,-0.05,-0.21
02:12:31.204:1,-0.07,-0.2
02:12:31.208:1,-0.065,-0.19
02:12:31.212:1,-0.055,-0.2
02:12:31.216:1,-0.04,-0.175
02:12:31.220:1,-0.04,-0.155
02:12:31.224:1,-0.04,-0.155
02:12:31.228:1,-0.03,-0.145
02:12:31.232:1,-0.015,-0.145
02:12:31.236:1,-0.02,-0.12
02:12:31.240:1,-0.005,-0.145
02:12:31.244:1,0.0,-0.17
02:12:31.248:1,0.01,-0.13
02:12:31.252:1,0.0,-0.11
02:12:31.256:1,0.02,-0.105
02:12:31.260:1,0.025,-0.13
02:12:31.264:1,0.035,-0.12
02:12:31.268:1,0.04,-0.11
02:12:31.272:1,0.035,-0.09
02:12:31.276:1,0.055,-0.04
02:12:31.280:1,0.07,-0.04
02:12:31.284:1,0.08,-0.045
02:12:31.288:1,0.085,-0.045
02:12:31.292:1,0.06,-0.065
02:12:31.296:1,0.055,-0.105
02:12:31.300:1,0.02,-0.13
02:12:31.304:1,-0.015,-0.17
02:12:31.308:1,-0.025,-0.185
02:12:31.312:1,-0.04,-0.185
02:12:31.316:1,-0.045,-0.19
02:12:31.320:1,-0.05,-0.18
02:12:31.324:1,-0.06,-0.19
02:12:31.328:1,-0.06,-0.18
02:12:31.332:1,-0.04,-0.175
02:12:31.336:1,-0.04,-0.195
02:12:31.340:1,-0.04,-0.205
02:12:31.344:1,-0.05,-0.205
02:12:31.348:1,-0.06,-0.225
02:12:31.352:1,-0.04,-0.225
02:12:31.356:1,-0.065,-0.23
02:12:31.360:1,-0.06,-0.225
02:12:31.364:1,-0.07,-0.23
02:12:31.368:1,-0.08,-0.225
02:12:31.372:1,-0.06,-0.215
02:12:31.376:1,-0.06,-0.23
02:12:31.380:1,-0.065,-0.23
02:12:31.384:1,-0.08,-0.235
02:12:31.388:1,-0.07,-0.235
02:12:31.392:1,-0.085,-0.225
02:12:31.396:1,-0.08,-0.235
02:12:31.400:1,-0.085,-0.24
02:12:31.404:1,-0.065,-0.235
02:12:31.408:1,-0.06,-0.24
02:12:31.412:1,-0.065,-0.25
02:12:31.416:1,-0.065,-0.245
02:12:31.420:1,-0.055,-0.26
02:12:31.424:1,-0.04,-0.285
02:12:31.428:1,-0.04,-0.265
02:12:31.432:1,-0.035,-0.28
02:12:31.436:1,-0.045,-0.28
02:12:31.440:1,-0.055,-0.3
02:12:31.444:1,-0.05,-0.305
02:12:31.448:1,-0.05,-0.28
02:12:31.452:1,-0.045,-0.285
02:12:31.456:1,-0.045,-0.29
02:12:31.460:1,-0.015,-0.3
02:12:31.464:1,-0.005,-0.265
02:12:31.468:1,0.01,-0.22
02:12:31.472:1,0.015,-0.195
02:12:31.476:1,0.02,-0.175
02:12:31.480:1,0.0,-0.155
02:12:31.484:1,0.0,-0.175
02:12:31.488:1,-0.005,-0.185
02:12:31.492:1,-0.025,-0.215
02:12:31.496:1,-0.04,-0.22
02:12:31.500:1,-0.03,-0.24
02:12:31.504:1,-0.065,-0.245
02:12:31.508:1,-0.06,-0.25
02:12:31.512:1,-0.07,-0.25
02:12:31.516:1,-0.06,-0.22
02:12:31.520:1,-0.06,-0.245
02:12:31.524:1,-0.06,-0.24
02:12:31.528:1,-0.075,-0.225
02:12:31.532:1,-0.065,-0.225
02:12:31.536:1,-0.065,-0.24
02:12:31.540:1,-0.045,-0.255
02:12:31.544:1,-0.05,-0.25
02:12:31.548:1,-0.05,-0.255
02:12:31.552:1,-0.045,-0.24
02:12:31.556:1,-0.04,-0.24
02:12:31.560:1,-0.04,-0.245
02:12:31.564:1,-0.03,-0.25
02:12:31.568:1,-0.015,-0.255
02:12:31.572:1,-0.035,-0.225
02:12:31.576:1,-0.03,-0.22
02:12:31.580:1,-0.035,-0.235
02:12:31.584:1,-0.05,-0.155
02:12:31.588:1,-0.035,0.005
02:12:31.592:1,-0.01,0.275
02:12:31.596:1,0.015,0.555
02:12:31.600:1,0.065,0.755
02:12:31.604:1,0.165,0.71
02:12:31.608:1,0.245,0.485
02:12:31.612:1,0.275,0.005
02:12:31.616:1,0.225,-0.625
02:12:31.620:1,0.155,-1.075
02:12:31.624:1,0.015,-1.275
02:12:31.628:1,-0.14,-1.27
02:12:31.632:1,-0.26,-1.065
02:12:31.636:1,-0.335,-0.825
02:12:31.640:1,-0.33,-0.615
02:12:31.644:1,-0.29,-0.445
02:12:31.648:1,-0.265,-0.305
02:12:31.652:1,-0.17,-0.215
02:12:31.656:1,-0.11,-0.18
02:12:31.660:1,-0.05,-0.2
02:12:31.664:1,-0.03,-0.22
02:12:31.668:1,-0.035,-0.215
02:12:31.672:1,-0.05,-0.235
02:12:31.676:1,-0.04,-0.23
02:12:31.680:1,-0.055,-0.275
02:12:31.684:1,-0.08,-0.295
02:12:31.688:1,-0.08,-0.29
02:12:31.692:1,-0.09,-0.305
02:12:31.696:1,-0.115,-0.32
02:12:31.700:1,-0.105,-0.35
02:12:31.704:1,-0.11,-0.35
02:12:31.708:1,-0.1,-0.34
02:12:31.712:1,-0.115,-0.32
02:12:31.716:1,-0.1,-0.34
02:12:31.720:1,-0.09,-0.355
02:12:31.724:1,-0.075,-0.33
02:12:31.728:1,-0.1,-0.355
02:12:31.732:1,-0.08,-0.34
02:12:31.736:1,-0.105,-0.35
02:12:31.740:1,-0.105,-0.345
02:12:31.744:1,-0.095,-0.365
02:12:31.748:1,-0.08,-0.35
02:12:31.752:1,-0.09,-0.335
02:12:31.756:1,-0.085,-0.32
02:12:31.760:1,-0.095,-0.335
02:12:31.764:1,-0.07,-0.325
02:12:31.768:1,-0.06,-0.3
02:12:31.772:1,-0.06,-0.3
02:12:31.776:1,-0.055,-0.295
02:12:31.780:1,-0.04,-0.265
02:12:31.784:1,-0.045,-0.24
02:12:31.788:1,0.0,-0.21
02:12:31.792:1,0.0,-0.185
02:12:31.796:1,0.01,-0.185
02:12:31.800:1,0.005,-0.185
02:12:31.804:1,0.0,-0.145
02:12:31.808:1,-0.03,-0.145
02:12:31.812:1,-0.025,-0.16
02:12:31.816:1,-0.035,-0.15
02:12:31.820:1,-0.03,-0.14
02:12:31.824:1,-0.04,-0.15
02:12:31.828:1,-0.03,-0.115
02:12:31.832:1,-0.045,-0.11
02:12:31.836:1,-0.04,-0.125
02:12:31.840:1,-0.035,-0.115
02:12:31.844:1,-0.04,-0.11
02:12:31.848:1,-0.05,-0.11
02:12:31.852:1,-0.065,-0.095
02:12:31.856:1,-0.07,-0.1
02:12:31.860:1,-0.06,-0.085
02:12:31.864:1,-0.065,-0.09
02:12:31.868:1,-0.04,-0.07
02:12:31.872:1,-0.05,-0.065
02:12:31.876:1,-0.05,-0.05
02:12:31.880:1,-0.025,-0.07
02:12:31.884:1,-0.035,-0.075
02:12:31.888:1,-0.05,-0.065
02:12:31.892:1,-0.05,-0.085
02:12:31.896:1,-0.025,-0.095
02:12:31.900:1,-0.03,-0.11
02:12:31.904:1,-0.03,-0.145
02:12:31.908:1,-0.02,-0.17
02:12:31.912:1,-0.025,-0.18
02:12:31.916:1,-0.035,-0.19
02:12:31.920:1,-0.025,-0.21
02:12:31.924:1,-0.025,-0.215
02:12:31.928:1,-0.045,-0.185
02:12:31.932:1,-0.04,-0.17
02:12:31.936:1,-0.01,-0.175
02:12:31.940:1,0.0,-0.15
02:12:31.944:1,0.0,-0.15
02:12:31.948:1,0.005,-0.135
02:12:31.952:1,0.0,-0.135
02:12:31.956:1,0.0,-0.125
02:12:31.960:1,-0.02,-0.135
02:12:31.964:1,-0.03,-0.125
02:12:31.968:1,-0.025,-0.135
02:12:31.972:1,-0.015,-0.155
02:12:31.976:1,-0.025,-0.155
02:12:31.980:1,-0.035,-0.16
02:12:31.984:1,-0.04,-0.175
02:12:31.988:1,-0.035,-0.18
02:12:31.992:1,-0.05,-0.155
02:12:31.996:1,-0.05,-0.16
02:12:32.000:1,-0.055,-0.21
02:12:32.004:1,-0.055,-0.215
02:12:32.008:1,-0.08,-0.22
02:12:32.012:1,-0.075,-0.25
02:12:32.016:1,-0.08,-0.245
02:12:32.020:1,-0.065,-0.255
02:12:32.024:1,-0.09,-0.26
02:12:32.028:1,-0.08,-0.285
02:12:32.032:1,-0.085,-0.29
02:12:32.036:1,-0.1,-0.29
02:12:32.040:1,-0.115,-0.305
02:12:32.044:1,-0.105,-0.325
02:12:32.048:1,-0.12,-0.32
02:12:32.052:1,-0.11,-0.335
02:12:32.056:1,-0.13,-0.32
02:12:32.060:1,-0.125,-0.33
02:12:32.064:1,-0.11,-0.33
02:12:32.068:1,-0.105,-0.355
02:12:32.072:1,-0.125,-0.345
02:12:32.076:1,-0.11,-0.34
02:12:32.080:1,-0.11,-0.365
02:12:32.084:1,-0.105,-0.375
02:12:32.088:1,-0.105,-0.36
02:12:32.092:1,-0.08,-0.32
02:12:32.096:1,-0.095,-0.29
02:12:32.100:1,-0.075,-0.225
02:12:32.104:1,-0.08,-0.175
02:12:32.108:1,-0.065,-0.15
02:12:32.112:1,-0.045,-0.15
02:12:32.116:1,-0.055,-0.16
02:12:32.120:1,-0.08,-0.165
02:12:32.124:1,-0.085,-0.185
02:12:32.128:1,-0.075,-0.195
02:12:32.132:1,-0.08,-0.2
02:12:32.136:1,-0.075,-0.215
02:12:32.140:1,-0.08,-0.215
02:12:32.144:1,-0.085,-0.215
02:12:32.148:1,-0.085,-0.21
02:12:32.152:1,-0.1,-0.205
02:12:32.156:1,-0.08,-0.21
02:12:32.160:1,-0.1,-0.24
02:12:32.164:1,-0.1,-0.225
02:12:32.168:1,-0.08,-0.23
02:12:32.172:1,-0.08,-0.215
02:12:32.176:1,-0.085,-0.235
02:12:32.180:1,-0.08,-0.265
02:12:32.184:1,-0.08,-0.26
02:12:32.188:1,-0.095,-0.27
02:12:32.192:1,-0.1,-0.27
02:12:32.196:1,-0.085,-0.28
02:12:32.200:1,-0.1,-0.27
02:12:32.204:1,-0.11,-0.28
02:12:32.208:1,-0.1,-0.29
02:12:32.212:1,-0.115,-0.3
02:12:32.216:1,-0.1,-0.305
02:12:32.220:1,-0.125,-0.315
02:12:32.224:1,-0.12,-0.345
02:12:32.228:1,-0.12,-0.365
02:12:32.232:1,-0.13,-0.345
02:12:32.236:1,-0.125,-0.335
02:12:32.240:1,-0.115,-0.305
02:12:32.244:1,-0.115,-0.29
02:12:32.248:1,-0.105,-0.3
02:12:32.252:1,-0.08,-0.29
02:12:32.256:1,-0.085,-0.295
02:12:32.260:1,-0.105,-0.295
02:12:32.264:1,-0.09,-0.275
02:12:32.268:1,-0.085,-0.22
02:12:32.272:1,-0.105,-0.195
02:12:32.276:1,-0.085,-0.19
02:12:32.280:1,-0.065,-0.195
02:12:32.284:1,-0.07,-0.18
02:12:32.288:1,-0.08,-0.195
02:12:32.292:1,-0.09,-0.215
02:12:32.296:1,-0.075,-0.2
02:12:32.300:1,-0.1,-0.205
02:12:32.304:1,-0.095,-0.205
02:12:32.308:1,-0.095,-0.16
02:12:32.312:1,-0.08,-0.07
02:12:32.316:1,-0.06,0.065
02:12:32.320:1,-0.035,0.3
02:12:32.324:1,-0.015,0.535
02:12:32.328:1,0.02,0.675
02:12:32.332:1,0.095,0.615
02:12:32.336:1,0.175,0.345
02:12:32.340:1,0.195,-0.165
02:12:32.344:1,0.225,-0.74
02:12:32.348:1,0.14,-1.11
02:12:32.352:1,0.06,-1.25
02:12:32.356:1,-0.075,-1.22
02:12:32.360:1,-0.23,-1.05
02:12:32.364:1,-0.35,-0.895
02:12:32.368:1,-0.395,-0.765
02:12:32.372:1,-0.37,-0.64
02:12:32.376:1,-0.36,-0.56
02:12:32.380:1,-0.305,-0.49
02:12:32.384:1,-0.23,-0.43
02:12:32.388:1,-0.18,-0.42
02:12:32.392:1,-0.14,-0.39
02:12:32.396:1,-0.12,-0.35
02:12:32.400:1,-0.115,-0.35
02:12:32.404:1,-0.125,-0.35
02:12:32.408:1,-0.13,-0.335
02:12:32.412:1,-0.14,-0.34
02:12:32.416:1,-0.135,-0.315
02:12:32.420:1,-0.135,-0.35
02:12:32.424:1,-0.13,-0.32
02:12:32.428:1,-0.155,-0.32
02:12:32.432:1,-0.165,-0.285
02:12:32.436:1,-0.165,-0.29
02:12:32.440:1,-0.13,-0.285
02:12:32.444:1,-0.14,-0.27
02:12:32.448:1,-0.125,-0.265
02:12:32.452:1,-0.12,-0.27
02:12:32.456:1,-0.145,-0.26
02:12:32.460:1,-0.12,-0.305
02:12:32.464:1,-0.12,-0.33
02:12:32.468:1,-0.125,-0.34
02:12:32.472:1,-0.14,-0.33
02:12:32.476:1,-0.12,-0.345
02:12:32.480:1,-0.13,-0.33
02:12:32.484:1,-0.14,-0.335
02:12:32.488:1,-0.14,-0.34
02:12:32.492:1,-0.135,-0.34
02:12:32.496:1,-0.13,-0.32
02:12:32.500:1,-0.155,-0.32
02:12:32.504:1,-0.145,-0.345
02:12:32.508:1,-0.15,-0.345
02:12:32.512:1,-0.155,-0.335
02:12:32.516:1,-0.15,-0.325
02:12:32.520:1,-0.13,-0.33
02:12:32.524:1,-0.11,-0.345
02:12:32.528:1,-0.115,-0.34
02:12:32.532:1,-0.1,-0.33
02:12:32.536:1,-0.125,-0.32
02:12:32.540:1,-0.11,-0.315
02:12:32.544:1,-0.12,-0.305
02:12:32.548:1,-0.12,-0.3
02:12:32.552:1,-0.125,-0.26
02:12:32.556:1,-0.1,-0.245
02:12:32.560:1,-0.07,-0.225
02:12:32.564:1,-0.09,-0.225
02:12:32.568:1,-0.09,-0.2
02:12:32.572:1,-0.075,-0.205
02:12:32.576:1,-0.09,-0.19
02:12:32.580:1,-0.12,-0.195
02:12:32.584:1,-0.14,-0.205
02:12:32.588:1,-0.13,-0.2
02:12:32.592:1,-0.135,-0.185
02:12:32.596:1,-0.12,-0.185
02:12:32.600:1,-0.135,-0.18
02:12:32.604:1,-0.11,-0.16
02:12:32.608:1,-0.115,-0.125
02:12:32.612:1,-0.1,-0.115
02:12:32.616:1,-0.105,-0.095
02:12:32.620:1,-0.075,-0.125
02:12:32.624:1,-0.09,-0.115
02:12:32.628:1,-0.07,-0.11
02:12:32.632:1,-0.065,-0.12
02:12:32.636:1,-0.04,-0.145
02:12:32.640:1,-0.045,-0.175
02:12:32.644:1,-0.06,-0.19
02:12:32.648:1,-0.055,-0.195
02:12:32.652:1,-0.06,-0.215
02:12:32.656:1,-0.06,-0.23
02:12:32.660:1,-0.07,-0.23
02:12:32.664:1,-0.07,-0.225
02:12:32.668:1,-0.06,-0.25
02:12:32.672:1,-0.05,-0.24
02:12:32.676:1,-0.07,-0.245
02:12:32.680:1,-0.08,-0.255
02:12:32.684:1,-0.05,-0.275
02:12:32.688:1,-0.055,-0.27
02:12:32.692:1,-0.07,-0.275
02:12:32.696:1,-0.06,-0.25
02:12:32.700:1,-0.035,-0.225
02:12:32.704:1,-0.035,-0.2
02:12:32.708:1,-0.025,-0.2
02:12:32.712:1,-0.01,-0.2
02:12:32.716:1,-0.035,-0.19
02:12:32.720:1,-0.04,-0.17
02:12:32.724:1,-0.05,-0.185
02:12:32.728:1,-0.055,-0.175
02:12:32.732:1,-0.085,-0.18
02:12:32.736:1,-0.08,-0.195
02:12:32.740:1,-0.08,-0.22
02:12:32.744:1,-0.1,-0.2
02:12:32.748:1,-0.115,-0.2
02:12:32.752:1,-0.1,-0.215
02:12:32.756:1,-0.09,-0.21
02:12:32.760:1,-0.085,-0.21
02:12:32.764:1,-0.085,-0.205
02:12:32.768:1,-0.08,-0.2
02:12:32.772:1,-0.09,-0.175
02:12:32.776:1,-0.09,-0.185
02:12:32.780:1,-0.085,-0.205
02:12:32.784:1,-0.06,-0.19
02:12:32.788:1,-0.07,-0.145
02:12:32.792:1,-0.06,-0.025
02:12:32.796:1,-0.03,0.135
02:12:32.800:1,-0.025,0.325
02:12:32.804:1,0.015,0.465
02:12:32.808:1,0.075,0.415
02:12:32.812:1,0.165,0.155
02:12:32.816:1,0.2,-0.27
02:12:32.820:1,0.215,-0.745
02:12:32.824:1,0.165,-1.105
02:12:32.828:1,0.095,-1.19
02:12:32.832:1,-0.04,-1.115
02:12:32.836:1,-0.19,-0.99
02:12:32.840:1,-0.32,-0.845
02:12:32.844:1,-0.35,-0.74
02:12:32.848:1,-0.35,-0.615
02:12:32.852:1,-0.345,-0.485
02:12:32.856:1,-0.27,-0.37
02:12:32.860:1,-0.185,-0.35
02:12:32.864:1,-0.13,-0.35
02:12:32.868:1,-0.08,-0.34
02:12:32.872:1,-0.085,-0.32
02:12:32.876:1,-0.08,-0.315
02:12:32.880:1,-0.095,-0.315
02:12:32.884:1,-0.09,-0.315
02:12:32.888:1,-0.09,-0.32
02:12:32.892:1,-0.1,-0.32
02:12:32.896:1,-0.12,-0.315
02:12:32.900:1,-0.145,-0.345
02:12:32.904:1,-0.135,-0.35
02:12:32.908:1,-0.16,-0.335
02:12:32.912:1,-0.16,-0.35
02:12:32.916:1,-0.155,-0.32
02:12:32.920:1,-0.15,-0.34
02:12:32.924:1,-0.165,-0.345
02:12:32.928:1,-0.14,-0.34
02:12:32.932:1,-0.155,-0.35
02:12:32.936:1,-0.145,-0.345
02:12:32.940:1,-0.16,-0.335
02:12:32.944:1,-0.15,-0.335
02:12:32.948:1,-0.155,-0.335
02:12:32.952:1,-0.135,-0.32
02:12:32.956:1,-0.13,-0.31
02:12:32.960:1,-0.15,-0.31
02:12:32.964:1,-0.14,-0.31
02:12:32.968:1,-0.13,-0.31
02:12:32.972:1,-0.145,-0.32
02:12:32.976:1,-0.12,-0.29
02:12:32.980:1,-0.145,-0.28
02:12:32.984:1,-0.12,-0.27
