Time,ECG1,ECG2
02:13:15.420:1,0.15,-0.18
02:13:15.424:1,0.14,-0.16
02:13:15.428:1,0.155,-0.16
02:13:15.432:1,0.17,-0.18
02:13:15.436:1,0.18,-0.18
02:13:15.440:1,0.195,-0.185
02:13:15.444:1,0.195,-0.195
02:13:15.448:1,0.195,-0.215
02:13:15.452:1,0.175,-0.23
02:13:15.456:1,0.185,-0.255
02:13:15.460:1,0.18,-0.265
02:13:15.464:1,0.17,-0.285
02:13:15.468:1,0.15,-0.265
02:13:15.472:1,0.15,-0.285
02:13:15.476:1,0.145,-0.275
02:13:15.480:1,0.15,-0.255
02:13:15.484:1,0.155,-0.28
02:13:15.488:1,0.16,-0.275
02:13:15.492:1,0.15,-0.29
02:13:15.496:1,0.15,-0.265
02:13:15.500:1,0.15,-0.27
02:13:15.504:1,0.155,-0.27
02:13:15.508:1,0.155,-0.275
02:13:15.512:1,0.155,-0.265
02:13:15.516:1,0.15,-0.25
02:13:15.520:1,0.145,-0.265
02:13:15.524:1,0.15,-0.26
02:13:15.528:1,0.155,-0.2
02:13:15.532:1,0.185,-0.06
02:13:15.536:1,0.185,0.16
02:13:15.540:1,0.21,0.4
02:13:15.544:1,0.255,0.605
02:13:15.548:1,0.315,0.635
02:13:15.552:1,0.41,0.485
02:13:15.556:1,0.44,0.145
02:13:15.560:1,0.425,-0.345
02:13:15.564:1,0.34,-0.835
02:13:15.568:1,0.245,-1.1
02:13:15.572:1,0.1,-1.205
02:13:15.576:1,-0.055,-1.1
02:13:15.580:1,-0.135,-0.915
02:13:15.584:1,-0.175,-0.765
02:13:15.588:1,-0.12,-0.65
02:13:15.592:1,-0.11,-0.52
02:13:15.596:1,-0.05,-0.42
02:13:15.600:1,0.015,-0.33
02:13:15.604:1,0.085,-0.31
02:13:15.608:1,0.135,-0.305
02:13:15.612:1,0.155,-0.3
02:13:15.616:1,0.17,-0.275
02:13:15.620:1,0.145,-0.275
02:13:15.624:1,0.145,-0.285
02:13:15.628:1,0.17,-0.27
02:13:15.632:1,0.18,-0.255
02:13:15.636:1,0.18,-0.27
02:13:15.640:1,0.175,-0.275
02:13:15.644:1,0.165,-0.285
02:13:15.648:1,0.16,-0.265
02:13:15.652:1,0.15,-0.29
02:13:15.656:1,0.16,-0.265
02:13:15.660:1,0.165,-0.255
02:13:15.664:1,0.165,-0.25
02:13:15.668:1,0.165,-0.27
02:13:15.672:1,0.155,-0.255
02:13:15.676:1,0.155,-0.25
02:13:15.680:1,0.155,-0.255
02:13:15.684:1,0.155,-0.255
02:13:15.688:1,0.165,-0.245
02:13:15.692:1,0.15,-0.25
02:13:15.696:1,0.17,-0.225
02:13:15.700:1,0.17,-0.23
02:13:15.704:1,0.16,-0.245
02:13:15.708:1,0.17,-0.24
02:13:15.712:1,0.155,-0.225
02:13:15.716:1,0.155,-0.215
02:13:15.720:1,0.16,-0.205
02:13:15.724:1,0.18,-0.2
02:13:15.728:1,0.165,-0.185
02:13:15.732:1,0.15,-0.175
02:13:15.736:1,0.175,-0.17
02:13:15.740:1,0.185,-0.16
02:13:15.744:1,0.18,-0.14
02:13:15.748:1,0.175,-0.155
02:13:15.752:1,0.17,-0.14
02:13:15.756:1,0.165,-0.13
02:13:15.760:1,0.17,-0.125
02:13:15.764:1,0.175,-0.12
02:13:15.768:1,0.185,-0.12
02:13:15.772:1,0.175,-0.125
02:13:15.776:1,0.195,-0.11
02:13:15.780:1,0.17,-0.125
02:13:15.784:1,0.175,-0.12
02:13:15.788:1,0.18,-0.13
02:13:15.792:1,0.185,-0.115
02:13:15.796:1,0.185,-0.105
02:13:15.800:1,0.19,-0.11
02:13:15.804:1,0.18,-0.11
02:13:15.808:1,0.17,-0.085
02:13:15.812:1,0.18,-0.09
02:13:15.816:1,0.18,-0.09
02:13:15.820:1,0.175,-0.095
02:13:15.824:1,0.185,-0.08
02:13:15.828:1,0.185,-0.09
02:13:15.832:1,0.205,-0.095
02:13:15.836:1,0.19,-0.09
02:13:15.840:1,0.205,-0.1
02:13:15.844:1,0.205,-0.09
02:13:15.848:1,0.215,-0.105
02:13:15.852:1,0.205,-0.105
02:13:15.856:1,0.205,-0.125
02:13:15.860:1,0.21,-0.145
02:13:15.864:1,0.21,-0.155
02:13:15.868:1,0.225,-0.165
02:13:15.872:1,0.205,-0.155
02:13:15.876:1,0.215,-0.135
02:13:15.880:1,0.215,-0.145
02:13:15.884:1,0.235,-0.15
02:13:15.888:1,0.225,-0.15
02:13:15.892:1,0.225,-0.145
02:13:15.896:1,0.21,-0.14
02:13:15.900:1,0.21,-0.155
02:13:15.904:1,0.215,-0.14
02:13:15.908:1,0.21,-0.15
02:13:15.912:1,0.215,-0.16
02:13:15.916:1,0.205,-0.115
02:13:15.920:1,0.22,-0.125
02:13:15.924:1,0.23,-0.125
02:13:15.928:1,0.21,-0.13
02:13:15.932:1,0.22,-0.14
02:13:15.936:1,0.23,-0.135
02:13:15.940:1,0.22,-0.13
02:13:15.944:1,0.22,-0.125
02:13:15.948:1,0.23,-0.12
02:13:15.952:1,0.23,-0.11
02:13:15.956:1,0.23,-0.11
02:13:15.960:1,0.245,-0.115
02:13:15.964:1,0.25,-0.13
02:13:15.968:1,0.225,-0.13
02:13:15.972:1,0.23,-0.13
02:13:15.976:1,0.22,-0.11
02:13:15.980:1,0.245,-0.135
02:13:15.984:1,0.24,-0.12
02:13:15.988:1,0.23,-0.13
02:13:15.992:1,0.23,-0.12
02:13:15.996:1,0.23,-0.115
02:13:16.000:1,0.225,-0.12
02:13:16.004:1,0.24,-0.145
02:13:16.008:1,0.245,-0.14
02:13:16.012:1,0.235,-0.14
02:13:16.016:1,0.225,-0.135
02:13:16.020:1,0.24,-0.135
02:13:16.024:1,0.235,-0.12
02:13:16.028:1,0.215,-0.145
02:13:16.032:1,0.215,-0.145
02:13:16.036:1,0.24,-0.14
02:13:16.040:1,0.215,-0.135
02:13:16.044:1,0.225,-0.145
02:13:16.048:1,0.225,-0.14
02:13:16.052:1,0.225,-0.11
02:13:16.056:1,0.22,-0.07
02:13:16.060:1,0.23,-0.065
02:13:16.064:1,0.26,-0.025
02:13:16.068:1,0.275,0.0
02:13:16.072:1,0.28,0.0
02:13:16.076:1,0.31,0.005
02:13:16.080:1,0.3,0.045
02:13:16.084:1,0.295,0.025
02:13:16.088:1,0.285,0.015
02:13:16.092:1,0.28,-0.005
02:13:16.096:1,0.27,-0.02
02:13:16.100:1,0.245,-0.09
02:13:16.104:1,0.23,-0.14
02:13:16.108:1,0.22,-0.16
02:13:16.112:1,0.17,-0.175
02:13:16.116:1,0.165,-0.185
02:13:16.120:1,0.16,-0.16
02:13:16.124:1,0.14,-0.15
02:13:16.128:1,0.17,-0.145
02:13:16.132:1,0.2,-0.15
02:13:16.136:1,0.195,-0.15
02:13:16.140:1,0.21,-0.185
02:13:16.144:1,0.195,-0.195
02:13:16.148:1,0.205,-0.205
02:13:16.152:1,0.195,-0.21
02:13:16.156:1,0.205,-0.22
02:13:16.160:1,0.185,-0.24
02:13:16.164:1,0.2,-0.25
02:13:16.168:1,0.165,-0.255
02:13:16.172:1,0.16,-0.26
02:13:16.176:1,0.17,-0.245
02:13:16.180:1,0.155,-0.24
02:13:16.184:1,0.175,-0.25
02:13:16.188:1,0.17,-0.255
02:13:16.192:1,0.185,-0.245
02:13:16.196:1,0.185,-0.25
02:13:16.200:1,0.175,-0.245
02:13:16.204:1,0.17,-0.24
02:13:16.208:1,0.185,-0.235
02:13:16.212:1,0.175,-0.25
02:13:16.216:1,0.185,-0.255
02:13:16.220:1,0.18,-0.22
02:13:16.224:1,0.185,-0.15
02:13:16.228:1,0.215,-0.025
02:13:16.232:1,0.24,0.19
02:13:16.236:1,0.25,0.445
02:13:16.240:1,0.33,0.655
02:13:16.244:1,0.375,0.665
02:13:16.248:1,0.455,0.445
02:13:16.252:1,0.46,0.06
02:13:16.256:1,0.39,-0.465
02:13:16.260:1,0.295,-0.93
02:13:16.264:1,0.15,-1.12
02:13:16.268:1,-0.03,-1.15
02:13:16.272:1,-0.18,-0.99
02:13:16.276:1,-0.215,-0.8
02:13:16.280:1,-0.17,-0.64
02:13:16.284:1,-0.115,-0.52
02:13:16.288:1,-0.065,-0.38
02:13:16.292:1,0.02,-0.315
02:13:16.296:1,0.105,-0.275
02:13:16.300:1,0.135,-0.27
02:13:16.304:1,0.15,-0.25
02:13:16.308:1,0.17,-0.285
02:13:16.312:1,0.175,-0.275
02:13:16.316:1,0.16,-0.27
02:13:16.320:1,0.18,-0.25
02:13:16.324:1,0.18,-0.25
02:13:16.328:1,0.175,-0.26
02:13:16.332:1,0.17,-0.255
02:13:16.336:1,0.18,-0.245
02:13:16.340:1,0.155,-0.24
02:13:16.344:1,0.17,-0.255
02:13:16.348:1,0.185,-0.255
02:13:16.352:1,0.165,-0.25
02:13:16.356:1,0.16,-0.235
02:13:16.360:1,0.175,-0.24
02:13:16.364:1,0.165,-0.225
02:13:16.368:1,0.165,-0.23
02:13:16.372:1,0.165,-0.23
02:13:16.376:1,0.185,-0.23
02:13:16.380:1,0.19,-0.205
02:13:16.384:1,0.185,-0.23
02:13:16.388:1,0.185,-0.225
02:13:16.392:1,0.17,-0.205
02:13:16.396:1,0.17,-0.22
02:13:16.400:1,0.17,-0.2
02:13:16.404:1,0.185,-0.195
02:13:16.408:1,0.185,-0.195
02:13:16.412:1,0.18,-0.205
02:13:16.416:1,0.19,-0.175
02:13:16.420:1,0.175,-0.16
02:13:16.424:1,0.16,-0.16
02:13:16.428:1,0.175,-0.15
02:13:16.432:1,0.18,-0.145
02:13:16.436:1,0.19,-0.135
02:13:16.440:1,0.185,-0.13
02:13:16.444:1,0.195,-0.12
02:13:16.448:1,0.175,-0.11
02:13:16.452:1,0.17,-0.115
02:13:16.456:1,0.17,-0.085
02:13:16.460:1,0.165,-0.08
02:13:16.464:1,0.175,-0.08
02:13:16.468:1,0.19,-0.085
02:13:16.472:1,0.19,-0.085
02:13:16.476:1,0.16,-0.085
02:13:16.480:1,0.185,-0.07
02:13:16.484:1,0.175,-0.07
02:13:16.488:1,0.18,-0.08
02:13:16.492:1,0.18,-0.075
02:13:16.496:1,0.19,-0.055
02:13:16.500:1,0.19,-0.03
02:13:16.504:1,0.185,-0.035
02:13:16.508:1,0.18,-0.045
02:13:16.512:1,0.205,-0.045
02:13:16.516:1,0.17,-0.03
02:13:16.520:1,0.18,-0.02
02:13:16.524:1,0.2,-0.045
02:13:16.528:1,0.185,-0.04
02:13:16.532:1,0.185,-0.05
02:13:16.536:1,0.2,-0.07
02:13:16.540:1,0.21,-0.075
02:13:16.544:1,0.19,-0.095
02:13:16.548:1,0.19,-0.1
02:13:16.552:1,0.205,-0.125
02:13:16.556:1,0.185,-0.1
02:13:16.560:1,0.19,-0.13
02:13:16.564:1,0.195,-0.14
02:13:16.568:1,0.185,-0.145
02:13:16.572:1,0.175,-0.145
02:13:16.576:1,0.175,-0.155
02:13:16.580:1,0.185,-0.155
02:13:16.584:1,0.185,-0.145
02:13:16.588:1,0.175,-0.155
02:13:16.592:1,0.18,-0.17
02:13:16.596:1,0.19,-0.15
02:13:16.600:1,0.2,-0.145
02:13:16.604:1,0.18,-0.13
02:13:16.608:1,0.195,-0.17
02:13:16.612:1,0.19,-0.16
02:13:16.616:1,0.195,-0.14
02:13:16.620:1,0.2,-0.135
02:13:16.624:1,0.175,-0.145
02:13:16.628:1,0.18,-0.155
02:13:16.632:1,0.19,-0.15
02:13:16.636:1,0.195,-0.14
02:13:16.640:1,0.185,-0.135
02:13:16.644:1,0.195,-0.135
02:13:16.648:1,0.19,-0.145
02:13:16.652:1,0.185,-0.145
02:13:16.656:1,0.2,-0.155
02:13:16.660:1,0.19,-0.16
02:13:16.664:1,0.21,-0.145
02:13:16.668:1,0.19,-0.14
02:13:16.672:1,0.195,-0.16
02:13:16.676:1,0.195,-0.175
02:13:16.680:1,0.2,-0.16
02:13:16.684:1,0.17,-0.155
02:13:16.688:1,0.18,-0.175
02:13:16.692:1,0.2,-0.185
02:13:16.696:1,0.19,-0.165
02:13:16.700:1,0.2,-0.17
02:13:16.704:1,0.2,-0.17
02:13:16.708:1,0.205,-0.17
02:13:16.712:1,0.18,-0.16
02:13:16.716:1,0.185,-0.16
02:13:16.720:1,0.21,-0.185
02:13:16.724:1,0.2,-0.17
02:13:16.728:1,0.18,-0.205
02:13:16.732:1,0.185,-0.19
02:13:16.736:1,0.18,-0.195
02:13:16.740:1,0.185,-0.175
02:13:16.744:1,0.205,-0.18
02:13:16.748:1,0.175,-0.16
02:13:16.752:1,0.18,-0.125
02:13:16.756:1,0.19,-0.095
02:13:16.760:1,0.215,-0.065
02:13:16.764:1,0.21,-0.025
02:13:16.768:1,0.245,-0.055
02:13:16.772:1,0.275,-0.035
02:13:16.776:1,0.25,-0.01
02:13:16.780:1,0.245,-0.015
02:13:16.784:1,0.24,-0.02
02:13:16.788:1,0.25,-0.04
02:13:16.792:1,0.21,-0.08
02:13:16.796:1,0.19,-0.13
02:13:16.800:1,0.195,-0.2
02:13:16.804:1,0.155,-0.24
02:13:16.808:1,0.135,-0.23
02:13:16.812:1,0.135,-0.23
02:13:16.816:1,0.125,-0.185
02:13:16.820:1,0.14,-0.2
02:13:16.824:1,0.18,-0.205
02:13:16.828:1,0.165,-0.195
02:13:16.832:1,0.18,-0.22
02:13:16.836:1,0.18,-0.24
02:13:16.840:1,0.2,-0.245
02:13:16.844:1,0.19,-0.25
02:13:16.848:1,0.2,-0.28
02:13:16.852:1,0.195,-0.29
02:13:16.856:1,0.175,-0.295
02:13:16.860:1,0.145,-0.295
02:13:16.864:1,0.165,-0.3
02:13:16.868:1,0.14,-0.31
02:13:16.872:1,0.13,-0.3
02:13:16.876:1,0.14,-0.3
02:13:16.880:1,0.15,-0.3
02:13:16.884:1,0.15,-0.295
02:13:16.888:1,0.15,-0.29
02:13:16.892:1,0.17,-0.285
02:13:16.896:1,0.165,-0.295
02:13:16.900:1,0.18,-0.275
02:13:16.904:1,0.185,-0.28
02:13:16.908:1,0.17,-0.29
02:13:16.912:1,0.18,-0.26
02:13:16.916:1,0.18,-0.22
02:13:16.920:1,0.2,-0.125
02:13:16.924:1,0.205,0.075
02:13:16.928:1,0.23,0.295
02:13:16.932:1,0.28,0.52
02:13:16.936:1,0.345,0.585
02:13:16.940:1,0.395,0.485
02:13:16.944:1,0.435,0.195
02:13:16.948:1,0.435,-0.26
02:13:16.952:1,0.395,-0.78
02:13:16.956:1,0.3,-1.09
02:13:16.960:1,0.15,-1.19
02:13:16.964:1,0.0,-1.18
02:13:16.968:1,-0.105,-1.025
02:13:16.972:1,-0.17,-0.845
02:13:16.976:1,-0.145,-0.685
02:13:16.980:1,-0.12,-0.565
02:13:16.984:1,-0.075,-0.46
02:13:16.988:1,0.005,-0.355
02:13:16.992:1,0.075,-0.3
02:13:16.996:1,0.125,-0.28
02:13:17.000:1,0.165,-0.295
02:13:17.004:1,0.16,-0.295
02:13:17.008:1,0.16,-0.295
02:13:17.012:1,0.165,-0.295
02:13:17.016:1,0.155,-0.3
02:13:17.020:1,0.17,-0.285
02:13:17.024:1,0.16,-0.285
02:13:17.028:1,0.145,-0.28
02:13:17.032:1,0.15,-0.28
02:13:17.036:1,0.155,-0.285
02:13:17.040:1,0.17,-0.26
02:13:17.044:1,0.165,-0.285
02:13:17.048:1,0.17,-0.29
02:13:17.052:1,0.155,-0.28
02:13:17.056:1,0.175,-0.27
02:13:17.060:1,0.16,-0.255
02:13:17.064:1,0.175,-0.26
02:13:17.068:1,0.175,-0.285
02:13:17.072:1,0.17,-0.285
02:13:17.076:1,0.155,-0.25
02:13:17.080:1,0.155,-0.26
02:13:17.084:1,0.145,-0.26
02:13:17.088:1,0.165,-0.25
02:13:17.092:1,0.16,-0.26
02:13:17.096:1,0.18,-0.26
02:13:17.100:1,0.165,-0.245
02:13:17.104:1,0.155,-0.235
02:13:17.108:1,0.15,-0.21
02:13:17.112:1,0.17,-0.22
02:13:17.116:1,0.16,-0.21
02:13:17.120:1,0.175,-0.185
02:13:17.124:1,0.16,-0.195
02:13:17.128:1,0.16,-0.195
02:13:17.132:1,0.145,-0.185
02:13:17.136:1,0.15,-0.19
02:13:17.140:1,0.17,-0.16
02:13:17.144:1,0.16,-0.155
02:13:17.148:1,0.155,-0.15
02:13:17.152:1,0.175,-0.14
02:13:17.156:1,0.14,-0.13
02:13:17.160:1,0.14,-0.115
02:13:17.164:1,0.14,-0.13
02:13:17.168:1,0.17,-0.125
02:13:17.172:1,0.15,-0.135
02:13:17.176:1,0.145,-0.11
02:13:17.180:1,0.175,-0.11
02:13:17.184:1,0.155,-0.1
02:13:17.188:1,0.15,-0.115
02:13:17.192:1,0.165,-0.105
02:13:17.196:1,0.17,-0.085
02:13:17.200:1,0.16,-0.075
02:13:17.204:1,0.165,-0.09
02:13:17.208:1,0.17,-0.085
02:13:17.212:1,0.165,-0.055
02:13:17.216:1,0.185,-0.045
02:13:17.220:1,0.21,-0.055
02:13:17.224:1,0.195,-0.03
02:13:17.228:1,0.19,-0.05
02:13:17.232:1,0.21,-0.09
02:13:17.236:1,0.22,-0.105
02:13:17.240:1,0.21,-0.095
02:13:17.244:1,0.2,-0.12
02:13:17.248:1,0.205,-0.125
02:13:17.252:1,0.195,-0.135
02:13:17.256:1,0.195,-0.13
02:13:17.260:1,0.215,-0.145
02:13:17.264:1,0.245,-0.12
02:13:17.268:1,0.245,-0.12
02:13:17.272:1,0.25,-0.13
02:13:17.276:1,0.27,-0.125
02:13:17.280:1,0.275,-0.13
02:13:17.284:1,0.28,-0.165
02:13:17.288:1,0.285,-0.14
02:13:17.292:1,0.27,-0.12
02:13:17.296:1,0.265,-0.14
02:13:17.300:1,0.27,-0.165
02:13:17.304:1,0.24,-0.2
02:13:17.308:1,0.185,-0.235
02:13:17.312:1,0.165,-0.225
02:13:17.316:1,0.155,-0.225
02:13:17.320:1,0.155,-0.225
02:13:17.324:1,0.15,-0.225
02:13:17.328:1,0.145,-0.235
02:13:17.332:1,0.15,-0.24
02:13:17.336:1,0.145,-0.22
02:13:17.340:1,0.155,-0.225
02:13:17.344:1,0.185,-0.23
02:13:17.348:1,0.15,-0.235
02:13:17.352:1,0.145,-0.25
02:13:17.356:1,0.15,-0.23
02:13:17.360:1,0.165,-0.23
02:13:17.364:1,0.14,-0.24
02:13:17.368:1,0.14,-0.24
02:13:17.372:1,0.155,-0.25
02:13:17.376:1,0.155,-0.265
02:13:17.380:1,0.155,-0.275
02:13:17.384:1,0.145,-0.255
02:13:17.388:1,0.15,-0.195
02:13:17.392:1,0.16,-0.05
02:13:17.396:1,0.175,0.155
02:13:17.400:1,0.19,0.38
02:13:17.404:1,0.24,0.405
02:13:17.408:1,0.325,0.19
02:13:17.412:1,0.38,-0.135
02:13:17.416:1,0.36,-0.535
02:13:17.420:1,0.34,-0.945
02:13:17.424:1,0.31,-1.145
02:13:17.428:1,0.195,-1.15
02:13:17.432:1,0.035,-1.02
02:13:17.436:1,-0.075,-0.87
02:13:17.440:1,-0.125,-0.74
02:13:17.444:1,-0.11,-0.595
02:13:17.448:1,-0.1,-0.485
02:13:17.452:1,-0.06,-0.395
02:13:17.456:1,-0.005,-0.3
02:13:17.460:1,0.05,-0.285
02:13:17.464:1,0.1,-0.295
02:13:17.468:1,0.1,-0.3
02:13:17.472:1,0.095,-0.31
02:13:17.476:1,0.115,-0.31
02:13:17.480:1,0.105,-0.295
02:13:17.484:1,0.1,-0.285
02:13:17.488:1,0.105,-0.31
02:13:17.492:1,0.09,-0.305
02:13:17.496:1,0.08,-0.3
02:13:17.500:1,0.095,-0.315
02:13:17.504:1,0.105,-0.305
02:13:17.508:1,0.1,-0.305
02:13:17.512:1,0.11,-0.315
02:13:17.516:1,0.105,-0.31
02:13:17.520:1,0.11,-0.3
02:13:17.524:1,0.11,-0.3
02:13:17.528:1,0.1,-0.33
02:13:17.532:1,0.095,-0.315
02:13:17.536:1,0.09,-0.295
02:13:17.540:1,0.1,-0.305
02:13:17.544:1,0.105,-0.3
02:13:17.548:1,0.105,-0.31
02:13:17.552:1,0.105,-0.305
02:13:17.556:1,0.105,-0.29
02:13:17.560:1,0.105,-0.28
02:13:17.564:1,0.115,-0.27
02:13:17.568:1,0.095,-0.27
02:13:17.572:1,0.095,-0.27
02:13:17.576:1,0.095,-0.265
02:13:17.580:1,0.115,-0.26
02:13:17.584:1,0.09,-0.265
02:13:17.588:1,0.095,-0.255
02:13:17.592:1,0.08,-0.24
02:13:17.596:1,0.1,-0.24
02:13:17.600:1,0.115,-0.24
02:13:17.604:1,0.1,-0.215
02:13:17.608:1,0.095,-0.22
02:13:17.612:1,0.085,-0.205
02:13:17.616:1,0.11,-0.2
02:13:17.620:1,0.11,-0.195
02:13:17.624:1,0.095,-0.21
02:13:17.628:1,0.13,-0.2
02:13:17.632:1,0.11,-0.19
02:13:17.636:1,0.105,-0.17
02:13:17.640:1,0.11,-0.17
02:13:17.644:1,0.12,-0.165
02:13:17.648:1,0.125,-0.165
02:13:17.652:1,0.115,-0.16
02:13:17.656:1,0.13,-0.145
02:13:17.660:1,0.125,-0.135
02:13:17.664:1,0.13,-0.135
02:13:17.668:1,0.135,-0.15
02:13:17.672:1,0.14,-0.165
02:13:17.676:1,0.135,-0.145
02:13:17.680:1,0.14,-0.16
02:13:17.684:1,0.18,-0.16
02:13:17.688:1,0.175,-0.17
02:13:17.692:1,0.165,-0.17
02:13:17.696:1,0.16,-0.19
02:13:17.700:1,0.175,-0.175
02:13:17.704:1,0.185,-0.17
02:13:17.708:1,0.17,-0.19
02:13:17.712:1,0.185,-0.2
02:13:17.716:1,0.18,-0.19
02:13:17.720:1,0.17,-0.185
02:13:17.724:1,0.19,-0.205
02:13:17.728:1,0.185,-0.21
02:13:17.732:1,0.175,-0.205
02:13:17.736:1,0.175,-0.23
02:13:17.740:1,0.185,-0.2
02:13:17.744:1,0.155,-0.19
02:13:17.748:1,0.15,-0.19
02:13:17.752:1,0.165,-0.2
02:13:17.756:1,0.165,-0.185
02:13:17.760:1,0.18,-0.2
02:13:17.764:1,0.19,-0.17
02:13:17.768:1,0.19,-0.195
02:13:17.772:1,0.18,-0.19
02:13:17.776:1,0.18,-0.195
02:13:17.780:1,0.19,-0.19
02:13:17.784:1,0.175,-0.185
02:13:17.788:1,0.175,-0.205
02:13:17.792:1,0.18,-0.195
02:13:17.796:1,0.175,-0.17
02:13:17.800:1,0.185,-0.175
02:13:17.804:1,0.19,-0.195
02:13:17.808:1,0.18,-0.2
02:13:17.812:1,0.175,-0.18
02:13:17.816:1,0.18,-0.2
02:13:17.820:1,0.175,-0.19
02:13:17.824:1,0.17,-0.19
02:13:17.828:1,0.175,-0.195
02:13:17.832:1,0.185,-0.205
02:13:17.836:1,0.175,-0.21
02:13:17.840:1,0.17,-0.205
02:13:17.844:1,0.18,-0.2
02:13:17.848:1,0.165,-0.215
02:13:17.852:1,0.175,-0.225
02:13:17.856:1,0.165,-0.215
02:13:17.860:1,0.175,-0.21
02:13:17.864:1,0.17,-0.205
02:13:17.868:1,0.18,-0.215
02:13:17.872:1,0.18,-0.235
02:13:17.876:1,0.155,-0.205
02:13:17.880:1,0.165,-0.215
02:13:17.884:1,0.16,-0.23
02:13:17.888:1,0.175,-0.23
02:13:17.892:1,0.15,-0.215
02:13:17.896:1,0.165,-0.23
02:13:17.900:1,0.175,-0.23
02:13:17.904:1,0.165,-0.24
02:13:17.908:1,0.165,-0.245
02:13:17.912:1,0.175,-0.23
02:13:17.916:1,0.17,-0.225
02:13:17.920:1,0.195,-0.24
02:13:17.924:1,0.17,-0.215
02:13:17.928:1,0.185,-0.225
02:13:17.932:1,0.185,-0.225
02:13:17.936:1,0.185,-0.21
02:13:17.940:1,0.175,-0.215
02:13:17.944:1,0.185,-0.225
02:13:17.948:1,0.19,-0.22
02:13:17.952:1,0.185,-0.24
02:13:17.956:1,0.17,-0.215
02:13:17.960:1,0.185,-0.21
02:13:17.964:1,0.18,-0.225
02:13:17.968:1,0.195,-0.24
02:13:17.972:1,0.17,-0.235
02:13:17.976:1,0.19,-0.225
02:13:17.980:1,0.19,-0.205
02:13:17.984:1,0.205,-0.22
02:13:17.988:1,0.185,-0.23
02:13:17.992:1,0.195,-0.24
02:13:17.996:1,0.205,-0.22
02:13:18.000:1,0.195,-0.22
02:13:18.004:1,0.195,-0.225
02:13:18.008:1,0.185,-0.235
02:13:18.012:1,0.19,-0.22
02:13:18.016:1,0.205,-0.215
02:13:18.020:1,0.19,-0.21
02:13:18.024:1,0.2,-0.21
02:13:18.028:1,0.185,-0.2
02:13:18.032:1,0.195,-0.225
02:13:18.036:1,0.18,-0.21
02:13:18.040:1,0.185,-0.2
02:13:18.044:1,0.185,-0.18
02:13:18.048:1,0.21,-0.195
02:13:18.052:1,0.195,-0.195
02:13:18.056:1,0.2,-0.2
02:13:18.060:1,0.195,-0.19
02:13:18.064:1,0.205,-0.175
02:13:18.068:1,0.195,-0.125
02:13:18.072:1,0.195,-0.12
02:13:18.076:1,0.225,-0.085
02:13:18.080:1,0.24,-0.06
02:13:18.084:1,0.24,-0.04
02:13:18.088:1,0.255,-0.065
02:13:18.092:1,0.265,-0.035
02:13:18.096:1,0.285,-0.035
02:13:18.100:1,0.255,-0.04
02:13:18.104:1,0.24,-0.065
02:13:18.108:1,0.24,-0.115
02:13:18.112:1,0.2,-0.165
02:13:18.116:1,0.185,-0.21
02:13:18.120:1,0.18,-0.24
02:13:18.124:1,0.13,-0.235
02:13:18.128:1,0.12,-0.235
02:13:18.132:1,0.14,-0.225
02:13:18.136:1,0.14,-0.185
02:13:18.140:1,0.135,-0.19
02:13:18.144:1,0.165,-0.2
02:13:18.148:1,0.17,-0.215
02:13:18.152:1,0.175,-0.255
02:13:18.156:1,0.18,-0.26
02:13:18.160:1,0.18,-0.25
02:13:18.164:1,0.165,-0.25
02:13:18.168:1,0.175,-0.295
02:13:18.172:1,0.17,-0.31
02:13:18.176:1,0.155,-0.31
02:13:18.180:1,0.125,-0.3
02:13:18.184:1,0.125,-0.315
02:13:18.188:1,0.145,-0.305
02:13:18.192:1,0.125,-0.295
02:13:18.196:1,0.135,-0.29
02:13:18.200:1,0.15,-0.315
02:13:18.204:1,0.145,-0.29
02:13:18.208:1,0.15,-0.285
02:13:18.212:1,0.145,-0.295
02:13:18.216:1,0.155,-0.305
02:13:18.220:1,0.155,-0.285
02:13:18.224:1,0.155,-0.29
02:13:18.228:1,0.185,-0.255
02:13:18.232:1,0.175,-0.14
02:13:18.236:1,0.2,0.06
02:13:18.240:1,0.215,0.3
02:13:18.244:1,0.265,0.54
02:13:18.248:1,0.315,0.625
02:13:18.252:1,0.375,0.495
02:13:18.256:1,0.44,0.215
02:13:18.260:1,0.405,-0.21
02:13:18.264:1,0.315,-0.72
02:13:18.268:1,0.215,-1.06
02:13:18.272:1,0.035,-1.16
02:13:18.276:1,-0.135,-1.105
02:13:18.280:1,-0.22,-0.94
02:13:18.284:1,-0.235,-0.76
02:13:18.288:1,-0.205,-0.64
02:13:18.292:1,-0.14,-0.54
02:13:18.296:1,-0.065,-0.425
02:13:18.300:1,0.03,-0.35
02:13:18.304:1,0.085,-0.335
02:13:18.308:1,0.15,-0.33
02:13:18.312:1,0.16,-0.335
02:13:18.316:1,0.165,-0.32
02:13:18.320:1,0.155,-0.32
02:13:18.324:1,0.145,-0.33
02:13:18.328:1,0.14,-0.315
02:13:18.332:1,0.155,-0.325
02:13:18.336:1,0.16,-0.31
02:13:18.340:1,0.155,-0.3
02:13:18.344:1,0.155,-0.305
02:13:18.348:1,0.145,-0.295
02:13:18.352:1,0.15,-0.295
02:13:18.356:1,0.155,-0.295
02:13:18.360:1,0.165,-0.295
02:13:18.364:1,0.14,-0.3
02:13:18.368:1,0.155,-0.295
02:13:18.372:1,0.14,-0.29
02:13:18.376:1,0.17,-0.28
02:13:18.380:1,0.15,-0.285
02:13:18.384:1,0.13,-0.29
02:13:18.388:1,0.15,-0.27
02:13:18.392:1,0.165,-0.27
02:13:18.396:1,0.145,-0.26
02:13:18.400:1,0.16,-0.255
02:13:18.404:1,0.155,-0.245
02:13:18.408:1,0.155,-0.25
02:13:18.412:1,0.175,-0.24
02:13:18.416:1,0.165,-0.21
02:13:18.420:1,0.15,-0.2
02:13:18.424:1,0.155,-0.215
02:13:18.428:1,0.165,-0.215
02:13:18.432:1,0.15,-0.195
02:13:18.436:1,0.145,-0.175
02:13:18.440:1,0.155,-0.165
02:13:18.444:1,0.17,-0.17
02:13:18.448:1,0.17,-0.175
02:13:18.452:1,0.165,-0.15
02:13:18.456:1,0.17,-0.125
02:13:18.460:1,0.17,-0.13
02:13:18.464:1,0.17,-0.12
02:13:18.468:1,0.17,-0.115
02:13:18.472:1,0.175,-0.125
02:13:18.476:1,0.18,-0.095
02:13:18.480:1,0.165,-0.1
02:13:18.484:1,0.18,-0.09
02:13:18.488:1,0.175,-0.08
02:13:18.492:1,0.175,-0.09
02:13:18.496:1,0.19,-0.095
02:13:18.500:1,0.185,-0.08
02:13:18.504:1,0.18,-0.07
02:13:18.508:1,0.185,-0.075
02:13:18.512:1,0.185,-0.065
02:13:18.516:1,0.185,-0.05
02:13:18.520:1,0.185,-0.06
02:13:18.524:1,0.18,-0.05
02:13:18.528:1,0.175,-0.045
02:13:18.532:1,0.175,-0.05
02:13:18.536:1,0.175,-0.04
02:13:18.540:1,0.195,-0.06
02:13:18.544:1,0.205,-0.05
02:13:18.548:1,0.185,-0.085
02:13:18.552:1,0.175,-0.08
02:13:18.556:1,0.18,-0.08
02:13:18.560:1,0.175,-0.09
02:13:18.564:1,0.18,-0.12
02:13:18.568:1,0.17,-0.15
02:13:18.572:1,0.17,-0.155
02:13:18.576:1,0.17,-0.165
02:13:18.580:1,0.18,-0.17
02:13:18.584:1,0.17,-0.16
02:13:18.588:1,0.165,-0.18
02:13:18.592:1,0.16,-0.19
02:13:18.596:1,0.165,-0.195
02:13:18.600:1,0.14,-0.18
02:13:18.604:1,0.16,-0.18
02:13:18.608:1,0.165,-0.18
02:13:18.612:1,0.165,-0.195
02:13:18.616:1,0.16,-0.165
02:13:18.620:1,0.175,-0.175
02:13:18.624:1,0.16,-0.19
02:13:18.628:1,0.155,-0.18
02:13:18.632:1,0.165,-0.18
02:13:18.636:1,0.18,-0.18
02:13:18.640:1,0.18,-0.155
02:13:18.644:1,0.185,-0.185
02:13:18.648:1,0.145,-0.16
02:13:18.652:1,0.175,-0.175
02:13:18.656:1,0.185,-0.18
02:13:18.660:1,0.185,-0.175
02:13:18.664:1,0.165,-0.17
02:13:18.668:1,0.17,-0.17
02:13:18.672:1,0.16,-0.175
02:13:18.676:1,0.18,-0.17
02:13:18.680:1,0.175,-0.18
02:13:18.684:1,0.175,-0.185
02:13:18.688:1,0.17,-0.2
02:13:18.692:1,0.175,-0.2
02:13:18.696:1,0.16,-0.185
02:13:18.700:1,0.165,-0.195
02:13:18.704:1,0.18,-0.19
02:13:18.708:1,0.175,-0.205
02:13:18.712:1,0.155,-0.19
02:13:18.716:1,0.165,-0.19
02:13:18.720:1,0.17,-0.2
02:13:18.724:1,0.16,-0.2
02:13:18.728:1,0.155,-0.225
02:13:18.732:1,0.165,-0.205
02:13:18.736:1,0.145,-0.205
02:13:18.740:1,0.155,-0.2
02:13:18.744:1,0.155,-0.215
02:13:18.748:1,0.16,-0.225
02:13:18.752:1,0.15,-0.205
02:13:18.756:1,0.14,-0.21
02:13:18.760:1,0.155,-0.175
02:13:18.764:1,0.16,-0.14
02:13:18.768:1,0.17,-0.14
02:13:18.772:1,0.185,-0.105
02:13:18.776:1,0.21,-0.055
02:13:18.780:1,0.225,-0.055
02:13:18.784:1,0.225,-0.05
02:13:18.788:1,0.26,-0.05
02:13:18.792:1,0.235,-0.04
02:13:18.796:1,0.225,-0.055
02:13:18.800:1,0.205,-0.085
02:13:18.804:1,0.2,-0.125
02:13:18.808:1,0.165,-0.19
02:13:18.812:1,0.15,-0.25
02:13:18.816:1,0.13,-0.27
02:13:18.820:1,0.11,-0.28
02:13:18.824:1,0.115,-0.27
02:13:18.828:1,0.095,-0.26
02:13:18.832:1,0.1,-0.225
02:13:18.836:1,0.115,-0.25
02:13:18.840:1,0.145,-0.25
02:13:18.844:1,0.155,-0.26
02:13:18.848:1,0.15,-0.28
02:13:18.852:1,0.19,-0.3
02:13:18.856:1,0.15,-0.295
02:13:18.860:1,0.155,-0.3
02:13:18.864:1,0.15,-0.345
02:13:18.868:1,0.15,-0.35
02:13:18.872:1,0.12,-0.34
02:13:18.876:1,0.13,-0.32
02:13:18.880:1,0.135,-0.335
02:13:18.884:1,0.135,-0.33
02:13:18.888:1,0.115,-0.355
02:13:18.892:1,0.13,-0.34
02:13:18.896:1,0.125,-0.33
02:13:18.900:1,0.13,-0.325
02:13:18.904:1,0.135,-0.345
02:13:18.908:1,0.125,-0.34
02:13:18.912:1,0.125,-0.33
02:13:18.916:1,0.13,-0.32
02:13:18.920:1,0.14,-0.33
02:13:18.924:1,0.14,-0.31
02:13:18.928:1,0.13,-0.28
02:13:18.932:1,0.165,-0.175
02:13:18.936:1,0.195,0.03
02:13:18.940:1,0.18,0.265
02:13:18.944:1,0.215,0.495
02:13:18.948:1,0.32,0.57
02:13:18.952:1,0.36,0.455
02:13:18.956:1,0.415,0.15
02:13:18.960:1,0.39,-0.32
02:13:18.964:1,0.315,-0.84
02:13:18.968:1,0.235,-1.165
02:13:18.972:1,0.07,-1.25
02:13:18.976:1,-0.09,-1.18
02:13:18.980:1,-0.17,-1.005
02:13:18.984:1,-0.205,-0.845
02:13:18.988:1,-0.18,-0.68
02:13:18.992:1,-0.155,-0.575
02:13:18.996:1,-0.08,-0.45
02:13:19.000:1,0.015,-0.38
02:13:19.004:1,0.085,-0.345
02:13:19.008:1,0.095,-0.35
02:13:19.012:1,0.135,-0.345
02:13:19.016:1,0.155,-0.33
02:13:19.020:1,0.13,-0.325
02:13:19.024:1,0.13,-0.34
02:13:19.028:1,0.135,-0.335
02:13:19.032:1,0.13,-0.335
02:13:19.036:1,0.145,-0.335
02:13:19.040:1,0.145,-0.32
02:13:19.044:1,0.14,-0.33
02:13:19.048:1,0.12,-0.33
02:13:19.052:1,0.15,-0.315
02:13:19.056:1,0.155,-0.32
02:13:19.060:1,0.14,-0.305
02:13:19.064:1,0.135,-0.31
02:13:19.068:1,0.145,-0.31
02:13:19.072:1,0.145,-0.32
02:13:19.076:1,0.145,-0.29
02:13:19.080:1,0.15,-0.29
02:13:19.084:1,0.155,-0.305
02:13:19.088:1,0.135,-0.3
02:13:19.092:1,0.145,-0.3
02:13:19.096:1,0.15,-0.29
02:13:19.100:1,0.14,-0.3
02:13:19.104:1,0.14,-0.275
02:13:19.108:1,0.14,-0.275
02:13:19.112:1,0.14,-0.26
02:13:19.116:1,0.15,-0.25
02:13:19.120:1,0.15,-0.26
02:13:19.124:1,0.135,-0.26
02:13:19.128:1,0.135,-0.245
02:13:19.132:1,0.135,-0.235
02:13:19.136:1,0.14,-0.23
02:13:19.140:1,0.155,-0.215
02:13:19.144:1,0.14,-0.215
02:13:19.148:1,0.12,-0.2
02:13:19.152:1,0.125,-0.19
02:13:19.156:1,0.13,-0.18
02:13:19.160:1,0.125,-0.19
02:13:19.164:1,0.125,-0.195
02:13:19.168:1,0.14,-0.19
02:13:19.172:1,0.14,-0.165
02:13:19.176:1,0.125,-0.16
02:13:19.180:1,0.14,-0.17
02:13:19.184:1,0.13,-0.165
02:13:19.188:1,0.12,-0.16
02:13:19.192:1,0.11,-0.17
02:13:19.196:1,0.13,-0.145
02:13:19.200:1,0.13,-0.135
02:13:19.204:1,0.125,-0.14
02:13:19.208:1,0.13,-0.145
02:13:19.212:1,0.145,-0.12
02:13:19.216:1,0.15,-0.11
02:13:19.220:1,0.14,-0.09
02:13:19.224:1,0.145,-0.11
02:13:19.228:1,0.16,-0.105
02:13:19.232:1,0.155,-0.105
02:13:19.236:1,0.165,-0.1
02:13:19.240:1,0.155,-0.115
02:13:19.244:1,0.165,-0.12
02:13:19.248:1,0.175,-0.14
02:13:19.252:1,0.17,-0.15
02:13:19.256:1,0.185,-0.16
02:13:19.260:1,0.175,-0.185
02:13:19.264:1,0.175,-0.19
02:13:19.268:1,0.165,-0.185
02:13:19.272:1,0.15,-0.185
02:13:19.276:1,0.18,-0.205
02:13:19.280:1,0.175,-0.195
02:13:19.284:1,0.165,-0.195
02:13:19.288:1,0.155,-0.215
02:13:19.292:1,0.175,-0.205
02:13:19.296:1,0.17,-0.19
02:13:19.300:1,0.17,-0.215
02:13:19.304:1,0.16,-0.21
02:13:19.308:1,0.165,-0.2
02:13:19.312:1,0.17,-0.195
02:13:19.316:1,0.175,-0.205
02:13:19.320:1,0.195,-0.18
02:13:19.324:1,0.17,-0.205
02:13:19.328:1,0.16,-0.21
02:13:19.332:1,0.17,-0.195
02:13:19.336:1,0.165,-0.19
02:13:19.340:1,0.16,-0.205
02:13:19.344:1,0.17,-0.21
02:13:19.348:1,0.175,-0.185
02:13:19.352:1,0.165,-0.18
02:13:19.356:1,0.165,-0.185
02:13:19.360:1,0.17,-0.185
02:13:19.364:1,0.17,-0.195
02:13:19.368:1,0.18,-0.195
02:13:19.372:1,0.18,-0.2
02:13:19.376:1,0.185,-0.205
02:13:19.380:1,0.155,-0.19
02:13:19.384:1,0.16,-0.195
02:13:19.388:1,0.165,-0.2
02:13:19.392:1,0.175,-0.215
02:13:19.396:1,0.165,-0.22
02:13:19.400:1,0.155,-0.21
02:13:19.404:1,0.155,-0.22
02:13:19.408:1,0.155,-0.225
02:13:19.412:1,0.17,-0.23
02:13:19.416:1,0.145,-0.205
02:13:19.420:1,0.15,-0.22
02:13:19.424:1,0.15,-0.22
02:13:19.428:1,0.14,-0.22
02:13:19.432:1,0.135,-0.23
02:13:19.436:1,0.175,-0.23
02:13:19.440:1,0.155,-0.225
02:13:19.444:1,0.155,-0.22
02:13:19.448:1,0.145,-0.2
02:13:19.452:1,0.17,-0.17
02:13:19.456:1,0.145,-0.13
02:13:19.460:1,0.185,-0.11
02:13:19.464:1,0.205,-0.08
02:13:19.468:1,0.2,-0.06
02:13:19.472:1,0.225,-0.07
02:13:19.476:1,0.24,-0.045
02:13:19.480:1,0.235,-0.04
02:13:19.484:1,0.25,-0.055
02:13:19.488:1,0.235,-0.07
02:13:19.492:1,0.205,-0.11
02:13:19.496:1,0.19,-0.145
02:13:19.500:1,0.17,-0.215
02:13:19.504:1,0.16,-0.26
02:13:19.508:1,0.125,-0.29
02:13:19.512:1,0.095,-0.295
02:13:19.516:1,0.095,-0.275
02:13:19.520:1,0.115,-0.235
02:13:19.524:1,0.11,-0.23
02:13:19.528:1,0.125,-0.25
02:13:19.532:1,0.135,-0.26
02:13:19.536:1,0.14,-0.275
02:13:19.540:1,0.12,-0.275
02:13:19.544:1,0.125,-0.32
02:13:19.548:1,0.15,-0.335
02:13:19.552:1,0.125,-0.315
02:13:19.556:1,0.12,-0.35
02:13:19.560:1,0.125,-0.34
02:13:19.564:1,0.105,-0.355
02:13:19.568:1,0.095,-0.36
02:13:19.572:1,0.1,-0.36
02:13:19.576:1,0.105,-0.345
02:13:19.580:1,0.1,-0.335
02:13:19.584:1,0.11,-0.335
02:13:19.588:1,0.12,-0.35
02:13:19.592:1,0.115,-0.35
02:13:19.596:1,0.12,-0.35
02:13:19.600:1,0.125,-0.335
02:13:19.604:1,0.115,-0.345
02:13:19.608:1,0.115,-0.35
02:13:19.612:1,0.11,-0.335
02:13:19.616:1,0.11,-0.325
02:13:19.620:1,0.105,-0.305
02:13:19.624:1,0.125,-0.26
02:13:19.628:1,0.125,-0.14
02:13:19.632:1,0.145,0.085
02:13:19.636:1,0.165,0.32
02:13:19.640:1,0.215,0.465
02:13:19.644:1,0.29,0.4
02:13:19.648:1,0.35,0.215
02:13:19.652:1,0.365,-0.185
02:13:19.656:1,0.37,-0.67
02:13:19.660:1,0.325,-1.09
02:13:19.664:1,0.255,-1.225
02:13:19.668:1,0.09,-1.245
02:13:19.672:1,-0.015,-1.105
02:13:19.676:1,-0.11,-0.945
02:13:19.680:1,-0.145,-0.78
02:13:19.684:1,-0.125,-0.66
02:13:19.688:1,-0.11,-0.56
02:13:19.692:1,-0.075,-0.445
02:13:19.696:1,0.005,-0.365
02:13:19.700:1,0.06,-0.35
02:13:19.704:1,0.1,-0.34
02:13:19.708:1,0.11,-0.36
02:13:19.712:1,0.12,-0.35
02:13:19.716:1,0.12,-0.345
02:13:19.720:1,0.115,-0.32
02:13:19.724:1,0.115,-0.335
02:13:19.728:1,0.125,-0.335
02:13:19.732:1,0.095,-0.32
02:13:19.736:1,0.12,-0.33
02:13:19.740:1,0.13,-0.33
02:13:19.744:1,0.12,-0.32
02:13:19.748:1,0.115,-0.33
02:13:19.752:1,0.135,-0.335
02:13:19.756:1,0.11,-0.325
02:13:19.760:1,0.095,-0.305
02:13:19.764:1,0.105,-0.32
02:13:19.768:1,0.135,-0.33
02:13:19.772:1,0.125,-0.31
02:13:19.776:1,0.105,-0.32
02:13:19.780:1,0.12,-0.3
02:13:19.784:1,0.11,-0.315
02:13:19.788:1,0.11,-0.32
02:13:19.792:1,0.115,-0.3
02:13:19.796:1,0.115,-0.285
02:13:19.800:1,0.11,-0.295
02:13:19.804:1,0.125,-0.285
02:13:19.808:1,0.13,-0.28
02:13:19.812:1,0.12,-0.285
02:13:19.816:1,0.12,-0.26
02:13:19.820:1,0.125,-0.265
02:13:19.824:1,0.12,-0.235
02:13:19.828:1,0.11,-0.25
02:13:19.832:1,0.11,-0.255
02:13:19.836:1,0.13,-0.22
02:13:19.840:1,0.12,-0.215
02:13:19.844:1,0.1,-0.225
02:13:19.848:1,0.115,-0.21
02:13:19.852:1,0.125,-0.21
02:13:19.856:1,0.125,-0.19
02:13:19.860:1,0.135,-0.2
02:13:19.864:1,0.115,-0.165
02:13:19.868:1,0.115,-0.195
02:13:19.872:1,0.135,-0.175
02:13:19.876:1,0.14,-0.17
02:13:19.880:1,0.105,-0.175
02:13:19.884:1,0.13,-0.19
02:13:19.888:1,0.13,-0.17
02:13:19.892:1,0.125,-0.165
02:13:19.896:1,0.135,-0.16
02:13:19.900:1,0.14,-0.155
02:13:19.904:1,0.135,-0.155
02:13:19.908:1,0.13,-0.16
02:13:19.912:1,0.145,-0.15
02:13:19.916:1,0.135,-0.145
02:13:19.920:1,0.14,-0.14
02:13:19.924:1,0.15,-0.15
02:13:19.928:1,0.16,-0.145
02:13:19.932:1,0.17,-0.145
02:13:19.936:1,0.155,-0.145
02:13:19.940:1,0.18,-0.165
02:13:19.944:1,0.165,-0.18
02:13:19.948:1,0.18,-0.195
02:13:19.952:1,0.185,-0.19
02:13:19.956:1,0.19,-0.2
02:13:19.960:1,0.19,-0.17
02:13:19.964:1,0.175,-0.2
02:13:19.968:1,0.185,-0.2
02:13:19.972:1,0.175,-0.215
02:13:19.976:1,0.17,-0.19
02:13:19.980:1,0.19,-0.195
02:13:19.984:1,0.17,-0.2
02:13:19.988:1,0.175,-0.2
02:13:19.992:1,0.195,-0.205
02:13:19.996:1,0.185,-0.21
02:13:20.000:1,0.155,-0.195
02:13:20.004:1,0.18,-0.2
02:13:20.008:1,0.185,-0.185
02:13:20.012:1,0.185,-0.175
02:13:20.016:1,0.19,-0.19
02:13:20.020:1,0.195,-0.205
02:13:20.024:1,0.185,-0.18
02:13:20.028:1,0.19,-0.18
02:13:20.032:1,0.2,-0.18
02:13:20.036:1,0.205,-0.17
02:13:20.040:1,0.21,-0.175
02:13:20.044:1,0.205,-0.18
02:13:20.048:1,0.195,-0.175
02:13:20.052:1,0.175,-0.17
02:13:20.056:1,0.175,-0.155
02:13:20.060:1,0.185,-0.14
02:13:20.064:1,0.175,-0.18
02:13:20.068:1,0.2,-0.185
02:13:20.072:1,0.185,-0.185
02:13:20.076:1,0.2,-0.15
02:13:20.080:1,0.18,-0.16
02:13:20.084:1,0.18,-0.17
02:13:20.088:1,0.15,-0.18
02:13:20.092:1,0.175,-0.195
02:13:20.096:1,0.18,-0.185
02:13:20.100:1,0.195,-0.18
02:13:20.104:1,0.19,-0.185
02:13:20.108:1,0.185,-0.215
02:13:20.112:1,0.175,-0.21
02:13:20.116:1,0.175,-0.215
02:13:20.120:1,0.17,-0.2
02:13:20.124:1,0.185,-0.2
02:13:20.128:1,0.175,-0.19
02:13:20.132:1,0.195,-0.18
02:13:20.136:1,0.18,-0.155
02:13:20.140:1,0.175,-0.115
02:13:20.144:1,0.18,-0.095
02:13:20.148:1,0.22,-0.055
02:13:20.152:1,0.21,-0.04
02:13:20.156:1,0.235,-0.02
02:13:20.160:1,0.25,-0.02
02:13:20.164:1,0.255,-0.025
02:13:20.168:1,0.255,-0.01
02:13:20.172:1,0.245,-0.02
02:13:20.176:1,0.24,-0.05
02:13:20.180:1,0.215,-0.09
02:13:20.184:1,0.18,-0.16
02:13:20.188:1,0.17,-0.22
02:13:20.192:1,0.14,-0.225
02:13:20.196:1,0.115,-0.22
02:13:20.200:1,0.11,-0.225
02:13:20.204:1,0.12,-0.21
02:13:20.208:1,0.105,-0.185
02:13:20.212:1,0.125,-0.195
02:13:20.216:1,0.16,-0.19
02:13:20.220:1,0.155,-0.225
02:13:20.224:1,0.185,-0.235
02:13:20.228:1,0.16,-0.27
02:13:20.232:1,0.165,-0.265
02:13:20.236:1,0.165,-0.265
02:13:20.240:1,0.155,-0.28
02:13:20.244:1,0.155,-0.295
02:13:20.248:1,0.135,-0.305
02:13:20.252:1,0.125,-0.3
02:13:20.256:1,0.12,-0.285
02:13:20.260:1,0.14,-0.28
02:13:20.264:1,0.13,-0.295
02:13:20.268:1,0.13,-0.315
02:13:20.272:1,0.15,-0.31
02:13:20.276:1,0.135,-0.285
02:13:20.280:1,0.145,-0.29
02:13:20.284:1,0.12,-0.295
02:13:20.288:1,0.135,-0.28
02:13:20.292:1,0.13,-0.29
02:13:20.296:1,0.14,-0.28
02:13:20.300:1,0.13,-0.27
02:13:20.304:1,0.14,-0.22
02:13:20.308:1,0.15,-0.155
02:13:20.312:1,0.195,0.045
02:13:20.316:1,0.18,0.295
02:13:20.320:1,0.21,0.51
02:13:20.324:1,0.305,0.615
02:13:20.328:1,0.365,0.51
02:13:20.332:1,0.4,0.205
02:13:20.336:1,0.395,-0.26
02:13:20.340:1,0.31,-0.8
02:13:20.344:1,0.2,-1.095
02:13:20.348:1,0.025,-1.19
02:13:20.352:1,-0.13,-1.11
02:13:20.356:1,-0.225,-0.92
02:13:20.360:1,-0.22,-0.765
02:13:20.364:1,-0.2,-0.635
02:13:20.368:1,-0.155,-0.5
02:13:20.372:1,-0.085,-0.395
02:13:20.376:1,0.0,-0.32
02:13:20.380:1,0.075,-0.315
02:13:20.384:1,0.115,-0.295
02:13:20.388:1,0.115,-0.3
02:13:20.392:1,0.135,-0.31
02:13:20.396:1,0.135,-0.29
02:13:20.400:1,0.125,-0.3
02:13:20.404:1,0.12,-0.3
02:13:20.408:1,0.115,-0.31
02:13:20.412:1,0.125,-0.28
02:13:20.416:1,0.145,-0.29
02:13:20.420:1,0.125,-0.28
02:13:20.424:1,0.11,-0.3
02:13:20.428:1,0.125,-0.305
02:13:20.432:1,0.12,-0.285
02:13:20.436:1,0.13,-0.27
02:13:20.440:1,0.12,-0.29
02:13:20.444:1,0.125,-0.27
02:13:20.448:1,0.125,-0.28
02:13:20.452:1,0.095,-0.275
02:13:20.456:1,0.125,-0.28
02:13:20.460:1,0.125,-0.28
02:13:20.464:1,0.12,-0.275
02:13:20.468:1,0.115,-0.27
02:13:20.472:1,0.14,-0.275
02:13:20.476:1,0.105,-0.255
02:13:20.480:1,0.12,-0.24
02:13:20.484:1,0.125,-0.265
02:13:20.488:1,0.12,-0.245
02:13:20.492:1,0.12,-0.23
02:13:20.496:1,0.13,-0.22
02:13:20.500:1,0.12,-0.225
02:13:20.504:1,0.115,-0.235
02:13:20.508:1,0.13,-0.2
02:13:20.512:1,0.135,-0.19
02:13:20.516:1,0.115,-0.18
02:13:20.520:1,0.12,-0.185
02:13:20.524:1,0.12,-0.17
02:13:20.528:1,0.125,-0.16
02:13:20.532:1,0.11,-0.145
02:13:20.536:1,0.12,-0.15
02:13:20.540:1,0.12,-0.15
02:13:20.544:1,0.13,-0.15
02:13:20.548:1,0.11,-0.15
02:13:20.552:1,0.13,-0.125
02:13:20.556:1,0.13,-0.125
02:13:20.560:1,0.12,-0.13
02:13:20.564:1,0.12,-0.14
02:13:20.568:1,0.125,-0.135
02:13:20.572:1,0.13,-0.12
02:13:20.576:1,0.125,-0.1
02:13:20.580:1,0.135,-0.1
02:13:20.584:1,0.145,-0.1
02:13:20.588:1,0.13,-0.09
02:13:20.592:1,0.135,-0.1
02:13:20.596:1,0.145,-0.08
02:13:20.600:1,0.14,-0.08
02:13:20.604:1,0.155,-0.095
02:13:20.608:1,0.165,-0.09
02:13:20.612:1,0.15,-0.105
02:13:20.616:1,0.14,-0.1
02:13:20.620:1,0.15,-0.13
02:13:20.624:1,0.14,-0.155
02:13:20.628:1,0.145,-0.13
02:13:20.632:1,0.155,-0.155
02:13:20.636:1,0.155,-0.16
02:13:20.640:1,0.165,-0.17
02:13:20.644:1,0.145,-0.175
02:13:20.648:1,0.15,-0.175
02:13:20.652:1,0.16,-0.195
02:13:20.656:1,0.165,-0.18
02:13:20.660:1,0.15,-0.185
02:13:20.664:1,0.16,-0.185
02:13:20.668:1,0.145,-0.19
02:13:20.672:1,0.155,-0.175
02:13:20.676:1,0.15,-0.19
02:13:20.680:1,0.155,-0.175
02:13:20.684:1,0.165,-0.18
02:13:20.688:1,0.145,-0.185
02:13:20.692:1,0.165,-0.17
02:13:20.696:1,0.17,-0.16
02:13:20.700:1,0.155,-0.17
02:13:20.704:1,0.165,-0.185
02:13:20.708:1,0.155,-0.19
02:13:20.712:1,0.155,-0.15
02:13:20.716:1,0.17,-0.155
02:13:20.720:1,0.16,-0.17
02:13:20.724:1,0.155,-0.165
02:13:20.728:1,0.17,-0.16
02:13:20.732:1,0.17,-0.18
02:13:20.736:1,0.16,-0.17
02:13:20.740:1,0.15,-0.17
02:13:20.744:1,0.15,-0.175
02:13:20.748:1,0.17,-0.19
02:13:20.752:1,0.16,-0.16
02:13:20.756:1,0.155,-0.175
02:13:20.760:1,0.165,-0.175
02:13:20.764:1,0.145,-0.175
02:13:20.768:1,0.16,-0.17
02:13:20.772:1,0.155,-0.165
02:13:20.776:1,0.165,-0.195
02:13:20.780:1,0.14,-0.195
02:13:20.784:1,0.145,-0.195
02:13:20.788:1,0.14,-0.185
02:13:20.792:1,0.13,-0.175
02:13:20.796:1,0.14,-0.185
02:13:20.800:1,0.145,-0.195
02:13:20.804:1,0.145,-0.185
02:13:20.808:1,0.15,-0.175
02:13:20.812:1,0.13,-0.165
02:13:20.816:1,0.135,-0.16
02:13:20.820:1,0.13,-0.125
02:13:20.824:1,0.16,-0.09
02:13:20.828:1,0.155,-0.06
02:13:20.832:1,0.205,-0.04
02:13:20.836:1,0.195,-0.04
02:13:20.840:1,0.22,-0.04
02:13:20.844:1,0.21,-0.025
02:13:20.848:1,0.225,-0.025
02:13:20.852:1,0.21,-0.035
02:13:20.856:1,0.215,-0.04
02:13:20.860:1,0.19,-0.085
02:13:20.864:1,0.18,-0.16
02:13:20.868:1,0.145,-0.21
02:13:20.872:1,0.11,-0.21
02:13:20.876:1,0.11,-0.24
02:13:20.880:1,0.1,-0.235
02:13:20.884:1,0.095,-0.215
02:13:20.888:1,0.1,-0.185
02:13:20.892:1,0.1,-0.185
02:13:20.896:1,0.115,-0.2
02:13:20.900:1,0.12,-0.21
02:13:20.904:1,0.145,-0.23
02:13:20.908:1,0.14,-0.25
02:13:20.912:1,0.14,-0.24
02:13:20.916:1,0.155,-0.27
02:13:20.920:1,0.155,-0.29
02:13:20.924:1,0.14,-0.29
02:13:20.928:1,0.125,-0.275
02:13:20.932:1,0.125,-0.28
02:13:20.936:1,0.135,-0.295
02:13:20.940:1,0.12,-0.29
02:13:20.944:1,0.14,-0.3
02:13:20.948:1,0.155,-0.28
02:13:20.952:1,0.115,-0.265
02:13:20.956:1,0.115,-0.265
02:13:20.960:1,0.135,-0.285
02:13:20.964:1,0.14,-0.28
02:13:20.968:1,0.145,-0.255
02:13:20.972:1,0.12,-0.265
02:13:20.976:1,0.15,-0.27
02:13:20.980:1,0.13,-0.285
02:13:20.984:1,0.15,-0.26
02:13:20.988:1,0.145,-0.185
02:13:20.992:1,0.165,-0.015
02:13:20.996:1,0.19,0.195
02:13:21.000:1,0.225,0.405
02:13:21.004:1,0.265,0.585
02:13:21.008:1,0.335,0.615
02:13:21.012:1,0.4,0.44
02:13:21.016:1,0.415,0.09
02:13:21.020:1,0.36,-0.415
02:13:21.024:1,0.275,-0.905
02:13:21.028:1,0.165,-1.15
02:13:21.032:1,-0.025,-1.19
02:13:21.036:1,-0.175,-1.07
02:13:21.040:1,-0.245,-0.875
02:13:21.044:1,-0.23,-0.71
02:13:21.048:1,-0.16,-0.56
02:13:21.052:1,-0.125,-0.445
02:13:21.056:1,-0.035,-0.35
02:13:21.060:1,0.04,-0.305
02:13:21.064:1,0.1,-0.29
02:13:21.068:1,0.12,-0.275
02:13:21.072:1,0.15,-0.28
02:13:21.076:1,0.14,-0.28
02:13:21.080:1,0.145,-0.275
02:13:21.084:1,0.14,-0.28
02:13:21.088:1,0.135,-0.285
02:13:21.092:1,0.13,-0.26
02:13:21.096:1,0.135,-0.285
02:13:21.100:1,0.15,-0.275
02:13:21.104:1,0.135,-0.275
02:13:21.108:1,0.14,-0.265
02:13:21.112:1,0.15,-0.27
02:13:21.116:1,0.14,-0.285
02:13:21.120:1,0.145,-0.275
02:13:21.124:1,0.13,-0.27
02:13:21.128:1,0.15,-0.255
02:13:21.132:1,0.13,-0.26
02:13:21.136:1,0.14,-0.26
02:13:21.140:1,0.135,-0.27
02:13:21.144:1,0.135,-0.26
02:13:21.148:1,0.12,-0.245
02:13:21.152:1,0.14,-0.24
02:13:21.156:1,0.14,-0.235
02:13:21.160:1,0.14,-0.235
02:13:21.164:1,0.145,-0.22
02:13:21.168:1,0.16,-0.21
02:13:21.172:1,0.13,-0.195
02:13:21.176:1,0.15,-0.21
02:13:21.180:1,0.14,-0.21
02:13:21.184:1,0.145,-0.19
02:13:21.188:1,0.135,-0.18
02:13:21.192:1,0.145,-0.16
02:13:21.196:1,0.15,-0.16
02:13:21.200:1,0.14,-0.13
02:13:21.204:1,0.15,-0.13
02:13:21.208:1,0.155,-0.125
02:13:21.212:1,0.155,-0.115
02:13:21.216:1,0.165,-0.115
02:13:21.220:1,0.13,-0.115
02:13:21.224:1,0.165,-0.1
02:13:21.228:1,0.155,-0.09
02:13:21.232:1,0.145,-0.075
02:13:21.236:1,0.17,-0.08
02:13:21.240:1,0.16,-0.085
02:13:21.244:1,0.155,-0.08
02:13:21.248:1,0.16,-0.08
02:13:21.252:1,0.155,-0.07
02:13:21.256:1,0.15,-0.085
02:13:21.260:1,0.16,-0.085
02:13:21.264:1,0.165,-0.06
02:13:21.268:1,0.155,-0.055
02:13:21.272:1,0.17,-0.055
02:13:21.276:1,0.175,-0.055
02:13:21.280:1,0.17,-0.05
02:13:21.284:1,0.18,-0.05
02:13:21.288:1,0.185,-0.05
02:13:21.292:1,0.185,-0.055
02:13:21.296:1,0.18,-0.075
02:13:21.300:1,0.185,-0.1
02:13:21.304:1,0.185,-0.115
02:13:21.308:1,0.19,-0.105
02:13:21.312:1,0.195,-0.105
02:13:21.316:1,0.185,-0.105
02:13:21.320:1,0.19,-0.135
02:13:21.324:1,0.18,-0.13
02:13:21.328:1,0.17,-0.14
02:13:21.332:1,0.19,-0.155
02:13:21.336:1,0.18,-0.15
02:13:21.340:1,0.195,-0.14
02:13:21.344:1,0.185,-0.17
02:13:21.348:1,0.18,-0.155
02:13:21.352:1,0.17,-0.155
02:13:21.356:1,0.19,-0.155
02:13:21.360:1,0.18,-0.16
02:13:21.364:1,0.18,-0.145
02:13:21.368:1,0.19,-0.15
02:13:21.372:1,0.175,-0.14
02:13:21.376:1,0.185,-0.155
02:13:21.380:1,0.18,-0.145
02:13:21.384:1,0.2,-0.16
02:13:21.388:1,0.185,-0.14
02:13:21.392:1,0.18,-0.16
02:13:21.396:1,0.17,-0.155
02:13:21.400:1,0.16,-0.14
02:13:21.404:1,0.165,-0.135
02:13:21.408:1,0.17,-0.14
02:13:21.412:1,0.175,-0.145
02:13:21.416:1,0.185,-0.155
02:13:21.420:1,0.18,-0.155
02:13:21.424:1,0.175,-0.155
02:13:21.428:1,0.16,-0.155
02:13:21.432:1,0.16,-0.145
02:13:21.436:1,0.165,-0.165
02:13:21.440:1,0.175,-0.17
02:13:21.444:1,0.16,-0.135
02:13:21.448:1,0.15,-0.155
02:13:21.452:1,0.175,-0.155
02:13:21.456:1,0.155,-0.175
02:13:21.460:1,0.155,-0.16
02:13:21.464:1,0.155,-0.17
02:13:21.468:1,0.15,-0.17
02:13:21.472:1,0.14,-0.155
02:13:21.476:1,0.145,-0.15
02:13:21.480:1,0.15,-0.18
02:13:21.484:1,0.14,-0.175
02:13:21.488:1,0.15,-0.165
02:13:21.492:1,0.15,-0.17
02:13:21.496:1,0.145,-0.16
02:13:21.500:1,0.13,-0.13
02:13:21.504:1,0.15,-0.105
02:13:21.508:1,0.145,-0.06
02:13:21.512:1,0.16,-0.03
02:13:21.516:1,0.175,-0.04
02:13:21.520:1,0.2,-0.03
02:13:21.524:1,0.195,0.0
02:13:21.528:1,0.215,0.005
02:13:21.532:1,0.22,0.005
02:13:21.536:1,0.22,-0.02
02:13:21.540:1,0.19,-0.04
02:13:21.544:1,0.175,-0.09
02:13:21.548:1,0.14,-0.16
02:13:21.552:1,0.125,-0.22
02:13:21.556:1,0.095,-0.225
02:13:21.560:1,0.095,-0.235
02:13:21.564:1,0.07,-0.21
02:13:21.568:1,0.075,-0.195
02:13:21.572:1,0.075,-0.19
02:13:21.576:1,0.085,-0.205
02:13:21.580:1,0.105,-0.205
02:13:21.584:1,0.13,-0.235
02:13:21.588:1,0.135,-0.23
02:13:21.592:1,0.125,-0.245
02:13:21.596:1,0.125,-0.24
02:13:21.600:1,0.125,-0.265
02:13:21.604:1,0.125,-0.305
02:13:21.608:1,0.095,-0.29
02:13:21.612:1,0.1,-0.285
02:13:21.616:1,0.105,-0.305
02:13:21.620:1,0.095,-0.29
02:13:21.624:1,0.11,-0.295
02:13:21.628:1,0.1,-0.29
02:13:21.632:1,0.115,-0.28
02:13:21.636:1,0.085,-0.29
02:13:21.640:1,0.105,-0.295
02:13:21.644:1,0.105,-0.285
02:13:21.648:1,0.105,-0.285
02:13:21.652:1,0.105,-0.28
02:13:21.656:1,0.1,-0.285
02:13:21.660:1,0.105,-0.275
02:13:21.664:1,0.095,-0.28
02:13:21.668:1,0.105,-0.255
02:13:21.672:1,0.11,-0.2
02:13:21.676:1,0.14,-0.045
02:13:21.680:1,0.155,0.18
02:13:21.684:1,0.17,0.375
02:13:21.688:1,0.24,0.52
02:13:21.692:1,0.315,0.475
02:13:21.696:1,0.355,0.245
02:13:21.700:1,0.365,-0.195
02:13:21.704:1,0.345,-0.715
02:13:21.708:1,0.295,-1.045
02:13:21.712:1,0.21,-1.19
02:13:21.716:1,0.03,-1.15
02:13:21.720:1,-0.09,-0.99
02:13:21.724:1,-0.18,-0.825
02:13:21.728:1,-0.17,-0.67
02:13:21.732:1,-0.15,-0.55
02:13:21.736:1,-0.105,-0.435
02:13:21.740:1,-0.02,-0.345
02:13:21.744:1,0.04,-0.305
02:13:21.748:1,0.085,-0.29
02:13:21.752:1,0.105,-0.3
02:13:21.756:1,0.105,-0.3
02:13:21.760:1,0.1,-0.305
02:13:21.764:1,0.095,-0.295
02:13:21.768:1,0.105,-0.31
02:13:21.772:1,0.1,-0.28
02:13:21.776:1,0.105,-0.305
02:13:21.780:1,0.115,-0.3
02:13:21.784:1,0.12,-0.295
02:13:21.788:1,0.1,-0.265
02:13:21.792:1,0.105,-0.285
02:13:21.796:1,0.11,-0.29
02:13:21.800:1,0.105,-0.29
02:13:21.804:1,0.105,-0.28
02:13:21.808:1,0.11,-0.28
02:13:21.812:1,0.105,-0.28
02:13:21.816:1,0.09,-0.29
02:13:21.820:1,0.1,-0.27
02:13:21.824:1,0.105,-0.275
02:13:21.828:1,0.095,-0.27
02:13:21.832:1,0.09,-0.275
02:13:21.836:1,0.095,-0.27
02:13:21.840:1,0.11,-0.275
02:13:21.844:1,0.1,-0.275
02:13:21.848:1,0.11,-0.25
02:13:21.852:1,0.11,-0.235
02:13:21.856:1,0.09,-0.245
02:13:21.860:1,0.09,-0.235
02:13:21.864:1,0.105,-0.215
02:13:21.868:1,0.095,-0.2
02:13:21.872:1,0.095,-0.22
02:13:21.876:1,0.11,-0.215
02:13:21.880:1,0.125,-0.2
02:13:21.884:1,0.1,-0.175
02:13:21.888:1,0.11,-0.18
02:13:21.892:1,0.105,-0.18
02:13:21.896:1,0.105,-0.18
02:13:21.900:1,0.115,-0.15
02:13:21.904:1,0.105,-0.165
02:13:21.908:1,0.095,-0.145
02:13:21.912:1,0.115,-0.16
02:13:21.916:1,0.105,-0.145
02:13:21.920:1,0.125,-0.14
02:13:21.924:1,0.12,-0.12
02:13:21.928:1,0.11,-0.13
02:13:21.932:1,0.105,-0.13
02:13:21.936:1,0.11,-0.12
02:13:21.940:1,0.11,-0.13
02:13:21.944:1,0.105,-0.125
02:13:21.948:1,0.12,-0.115
02:13:21.952:1,0.12,-0.12
02:13:21.956:1,0.11,-0.125
02:13:21.960:1,0.12,-0.09
02:13:21.964:1,0.13,-0.09
02:13:21.968:1,0.145,-0.08
02:13:21.972:1,0.145,-0.095
02:13:21.976:1,0.16,-0.095
02:13:21.980:1,0.155,-0.095
02:13:21.984:1,0.155,-0.1
02:13:21.988:1,0.15,-0.1
02:13:21.992:1,0.16,-0.135
02:13:21.996:1,0.15,-0.145
02:13:22.000:1,0.175,-0.135
02:13:22.004:1,0.15,-0.125
02:13:22.008:1,0.18,-0.135
02:13:22.012:1,0.185,-0.15
02:13:22.016:1,0.185,-0.16
02:13:22.020:1,0.15,-0.16
02:13:22.024:1,0.19,-0.17
02:13:22.028:1,0.175,-0.15
02:13:22.032:1,0.175,-0.155
02:13:22.036:1,0.17,-0.16
02:13:22.040:1,0.155,-0.16
02:13:22.044:1,0.18,-0.14
02:13:22.048:1,0.17,-0.15
02:13:22.052:1,0.165,-0.155
02:13:22.056:1,0.165,-0.14
02:13:22.060:1,0.175,-0.15
02:13:22.064:1,0.175,-0.14
02:13:22.068:1,0.155,-0.135
02:13:22.072:1,0.17,-0.135
02:13:22.076:1,0.18,-0.145
02:13:22.080:1,0.175,-0.14
02:13:22.084:1,0.145,-0.13
02:13:22.088:1,0.155,-0.145
02:13:22.092:1,0.17,-0.12
02:13:22.096:1,0.165,-0.125
02:13:22.100:1,0.14,-0.12
02:13:22.104:1,0.17,-0.125
02:13:22.108:1,0.195,-0.135
02:13:22.112:1,0.165,-0.13
02:13:22.116:1,0.155,-0.145
02:13:22.120:1,0.165,-0.14
02:13:22.124:1,0.16,-0.135
02:13:22.128:1,0.175,-0.13
02:13:22.132:1,0.155,-0.145
02:13:22.136:1,0.155,-0.16
02:13:22.140:1,0.14,-0.145
02:13:22.144:1,0.155,-0.145
02:13:22.148:1,0.145,-0.14
02:13:22.152:1,0.15,-0.15
02:13:22.156:1,0.135,-0.16
02:13:22.160:1,0.15,-0.165
02:13:22.164:1,0.145,-0.16
02:13:22.168:1,0.145,-0.15
02:13:22.172:1,0.13,-0.15
02:13:22.176:1,0.155,-0.125
02:13:22.180:1,0.155,-0.08
02:13:22.184:1,0.15,-0.04
02:13:22.188:1,0.175,-0.03
02:13:22.192:1,0.185,-0.015
02:13:22.196:1,0.205,0.005
02:13:22.200:1,0.205,-0.005
02:13:22.204:1,0.22,0.02
02:13:22.208:1,0.23,0.03
02:13:22.212:1,0.245,0.025
02:13:22.216:1,0.235,0.02
02:13:22.220:1,0.21,-0.025
02:13:22.224:1,0.19,-0.075
02:13:22.228:1,0.16,-0.155
02:13:22.232:1,0.125,-0.18
02:13:22.236:1,0.105,-0.195
02:13:22.240:1,0.105,-0.21
02:13:22.244:1,0.095,-0.18
02:13:22.248:1,0.08,-0.15
02:13:22.252:1,0.085,-0.17
02:13:22.256:1,0.115,-0.175
02:13:22.260:1,0.13,-0.185
02:13:22.264:1,0.13,-0.195
02:13:22.268:1,0.155,-0.205
02:13:22.272:1,0.16,-0.235
02:13:22.276:1,0.13,-0.235
02:13:22.280:1,0.115,-0.255
02:13:22.284:1,0.12,-0.26
02:13:22.288:1,0.13,-0.255
02:13:22.292:1,0.09,-0.27
02:13:22.296:1,0.105,-0.27
02:13:22.300:1,0.11,-0.255
02:13:22.304:1,0.105,-0.255
02:13:22.308:1,0.1,-0.25
02:13:22.312:1,0.11,-0.275
02:13:22.316:1,0.11,-0.255
02:13:22.320:1,0.11,-0.27
02:13:22.324:1,0.115,-0.265
02:13:22.328:1,0.11,-0.25
02:13:22.332:1,0.12,-0.25
02:13:22.336:1,0.13,-0.265
02:13:22.340:1,0.125,-0.27
02:13:22.344:1,0.115,-0.25
02:13:22.348:1,0.12,-0.21
02:13:22.352:1,0.13,-0.14
02:13:22.356:1,0.14,0.015
02:13:22.360:1,0.16,0.235
02:13:22.364:1,0.165,0.47
02:13:22.368:1,0.22,0.605
02:13:22.372:1,0.315,0.535
02:13:22.376:1,0.375,0.32
02:13:22.380:1,0.38,-0.135
02:13:22.384:1,0.335,-0.655
02:13:22.388:1,0.275,-1.01
02:13:22.392:1,0.18,-1.135
02:13:22.396:1,0.025,-1.125
02:13:22.400:1,-0.09,-0.975
02:13:22.404:1,-0.17,-0.84
02:13:22.408:1,-0.17,-0.695
02:13:22.412:1,-0.17,-0.57
02:13:22.416:1,-0.145,-0.49
02:13:22.420:1,-0.085,-0.385
02:13:22.424:1,-0.02,-0.28
02:13:22.428:1,0.035,-0.26
02:13:22.432:1,0.08,-0.265
02:13:22.436:1,0.115,-0.28
02:13:22.440:1,0.11,-0.265
02:13:22.444:1,0.12,-0.26
02:13:22.448:1,0.105,-0.26
02:13:22.452:1,0.1,-0.255
02:13:22.456:1,0.105,-0.265
02:13:22.460:1,0.1,-0.27
02:13:22.464:1,0.095,-0.245
02:13:22.468:1,0.085,-0.255
02:13:22.472:1,0.11,-0.245
02:13:22.476:1,0.1,-0.26
02:13:22.480:1,0.095,-0.26
02:13:22.484:1,0.09,-0.255
02:13:22.488:1,0.11,-0.255
02:13:22.492:1,0.09,-0.245
02:13:22.496:1,0.095,-0.24
02:13:22.500:1,0.1,-0.25
02:13:22.504:1,0.085,-0.23
02:13:22.508:1,0.085,-0.235
02:13:22.512:1,0.095,-0.23
02:13:22.516:1,0.1,-0.25
02:13:22.520:1,0.095,-0.245
02:13:22.524:1,0.095,-0.235
02:13:22.528:1,0.095,-0.215
02:13:22.532:1,0.095,-0.225
02:13:22.536:1,0.085,-0.21
02:13:22.540:1,0.095,-0.195
02:13:22.544:1,0.095,-0.185
02:13:22.548:1,0.095,-0.18
02:13:22.552:1,0.09,-0.18
02:13:22.556:1,0.09,-0.18
02:13:22.560:1,0.08,-0.165
02:13:22.564:1,0.08,-0.155
02:13:22.568:1,0.105,-0.14
02:13:22.572:1,0.095,-0.145
02:13:22.576:1,0.07,-0.14
02:13:22.580:1,0.095,-0.15
02:13:22.584:1,0.1,-0.135
02:13:22.588:1,0.11,-0.11
02:13:22.592:1,0.095,-0.12
02:13:22.596:1,0.1,-0.12
02:13:22.600:1,0.09,-0.125
02:13:22.604:1,0.1,-0.115
02:13:22.608:1,0.1,-0.09
02:13:22.612:1,0.115,-0.125
02:13:22.616:1,0.085,-0.115
02:13:22.620:1,0.1,-0.1
02:13:22.624:1,0.105,-0.085
02:13:22.628:1,0.105,-0.085
02:13:22.632:1,0.115,-0.09
02:13:22.636:1,0.11,-0.1
02:13:22.640:1,0.1,-0.085
02:13:22.644:1,0.11,-0.04
02:13:22.648:1,0.12,-0.06
02:13:22.652:1,0.13,-0.07
02:13:22.656:1,0.11,-0.06
02:13:22.660:1,0.13,-0.065
02:13:22.664:1,0.125,-0.07
02:13:22.668:1,0.135,-0.085
02:13:22.672:1,0.13,-0.095
02:13:22.676:1,0.135,-0.125
02:13:22.680:1,0.145,-0.13
02:13:22.684:1,0.15,-0.11
02:13:22.688:1,0.14,-0.115
02:13:22.692:1,0.16,-0.13
02:13:22.696:1,0.15,-0.145
02:13:22.700:1,0.14,-0.135
02:13:22.704:1,0.135,-0.125
02:13:22.708:1,0.135,-0.13
02:13:22.712:1,0.135,-0.135
02:13:22.716:1,0.145,-0.14
02:13:22.720:1,0.145,-0.12
02:13:22.724:1,0.155,-0.125
02:13:22.728:1,0.15,-0.135
02:13:22.732:1,0.155,-0.14
02:13:22.736:1,0.135,-0.135
02:13:22.740:1,0.145,-0.12
02:13:22.744:1,0.135,-0.115
02:13:22.748:1,0.16,-0.115
02:13:22.752:1,0.125,-0.12
02:13:22.756:1,0.14,-0.115
02:13:22.760:1,0.14,-0.115
02:13:22.764:1,0.145,-0.12
02:13:22.768:1,0.145,-0.11
02:13:22.772:1,0.155,-0.115
02:13:22.776:1,0.13,-0.115
02:13:22.780:1,0.15,-0.1
02:13:22.784:1,0.145,-0.12
02:13:22.788:1,0.17,-0.095
02:13:22.792:1,0.15,-0.1
02:13:22.796:1,0.145,-0.11
02:13:22.800:1,0.135,-0.12
02:13:22.804:1,0.13,-0.11
02:13:22.808:1,0.12,-0.105
02:13:22.812:1,0.12,-0.12
02:13:22.816:1,0.135,-0.135
02:13:22.820:1,0.13,-0.12
02:13:22.824:1,0.135,-0.115
02:13:22.828:1,0.135,-0.13
02:13:22.832:1,0.13,-0.135
02:13:22.836:1,0.145,-0.12
02:13:22.840:1,0.145,-0.15
02:13:22.844:1,0.155,-0.135
02:13:22.848:1,0.13,-0.125
02:13:22.852:1,0.125,-0.11
02:13:22.856:1,0.155,-0.095
02:13:22.860:1,0.155,-0.055
02:13:22.864:1,0.145,-0.035
02:13:22.868:1,0.165,-0.005
02:13:22.872:1,0.175,0.01
02:13:22.876:1,0.22,0.015
02:13:22.880:1,0.22,0.015
02:13:22.884:1,0.225,0.045
02:13:22.888:1,0.2,0.05
02:13:22.892:1,0.205,0.02
02:13:22.896:1,0.195,-0.02
02:13:22.900:1,0.19,-0.06
02:13:22.904:1,0.15,-0.12
02:13:22.908:1,0.135,-0.17
02:13:22.912:1,0.12,-0.18
02:13:22.916:1,0.1,-0.175
02:13:22.920:1,0.085,-0.15
02:13:22.924:1,0.09,-0.135
02:13:22.928:1,0.065,-0.13
02:13:22.932:1,0.12,-0.135
02:13:22.936:1,0.14,-0.15
02:13:22.940:1,0.13,-0.17
02:13:22.944:1,0.12,-0.18
02:13:22.948:1,0.14,-0.175
02:13:22.952:1,0.14,-0.21
02:13:22.956:1,0.13,-0.21
02:13:22.960:1,0.12,-0.25
02:13:22.964:1,0.13,-0.24
02:13:22.968:1,0.12,-0.235
02:13:22.972:1,0.11,-0.235
02:13:22.976:1,0.13,-0.245
02:13:22.980:1,0.12,-0.245
02:13:22.984:1,0.095,-0.24
02:13:22.988:1,0.105,-0.235
02:13:22.992:1,0.115,-0.24
02:13:22.996:1,0.125,-0.25
02:13:23.000:1,0.13,-0.255
02:13:23.004:1,0.135,-0.225
02:13:23.008:1,0.135,-0.22
02:13:23.012:1,0.14,-0.23
02:13:23.016:1,0.135,-0.225
02:13:23.020:1,0.12,-0.22
02:13:23.024:1,0.12,-0.18
02:13:23.028:1,0.15,-0.12
02:13:23.032:1,0.17,0.05
02:13:23.036:1,0.18,0.285
02:13:23.040:1,0.215,0.525
02:13:23.044:1,0.28,0.695
02:13:23.048:1,0.36,0.625
02:13:23.052:1,0.41,0.43
02:13:23.056:1,0.42,0.015
02:13:23.060:1,0.35,-0.52
02:13:23.064:1,0.245,-0.93
02:13:23.068:1,0.11,-1.11
02:13:23.072:1,-0.06,-1.14
02:13:23.076:1,-0.19,-1.005
02:13:23.080:1,-0.235,-0.825
02:13:23.084:1,-0.23,-0.65
02:13:23.088:1,-0.165,-0.5
02:13:23.092:1,-0.105,-0.41
02:13:23.096:1,-0.03,-0.31
02:13:23.100:1,0.055,-0.255
02:13:23.104:1,0.08,-0.23
02:13:23.108:1,0.13,-0.225
02:13:23.112:1,0.135,-0.23
02:13:23.116:1,0.145,-0.225
02:13:23.120:1,0.135,-0.225
02:13:23.124:1,0.14,-0.245
02:13:23.128:1,0.12,-0.23
02:13:23.132:1,0.13,-0.225
02:13:23.136:1,0.13,-0.235
02:13:23.140:1,0.13,-0.22
02:13:23.144:1,0.13,-0.21
02:13:23.148:1,0.13,-0.22
02:13:23.152:1,0.125,-0.23
02:13:23.156:1,0.135,-0.23
02:13:23.160:1,0.13,-0.205
02:13:23.164:1,0.14,-0.2
02:13:23.168:1,0.14,-0.21
02:13:23.172:1,0.135,-0.21
02:13:23.176:1,0.135,-0.2
02:13:23.180:1,0.12,-0.195
02:13:23.184:1,0.135,-0.19
02:13:23.188:1,0.125,-0.18
02:13:23.192:1,0.12,-0.19
02:13:23.196:1,0.125,-0.19
02:13:23.200:1,0.125,-0.18
02:13:23.204:1,0.135,-0.16
02:13:23.208:1,0.13,-0.155
02:13:23.212:1,0.135,-0.155
02:13:23.216:1,0.135,-0.145
02:13:23.220:1,0.12,-0.135
02:13:23.224:1,0.125,-0.135
02:13:23.228:1,0.125,-0.12
02:13:23.232:1,0.105,-0.115
02:13:23.236:1,0.14,-0.12
02:13:23.240:1,0.14,-0.1
02:13:23.244:1,0.13,-0.065
02:13:23.248:1,0.12,-0.075
02:13:23.252:1,0.155,-0.06
02:13:23.256:1,0.12,-0.05
02:13:23.260:1,0.135,-0.045
02:13:23.264:1,0.145,-0.035
02:13:23.268:1,0.145,-0.03
02:13:23.272:1,0.14,-0.015
02:13:23.276:1,0.15,-0.025
02:13:23.280:1,0.16,-0.015
02:13:23.284:1,0.155,-0.01
02:13:23.288:1,0.135,-0.01
02:13:23.292:1,0.155,-0.015
02:13:23.296:1,0.16,0.0
02:13:23.300:1,0.155,0.0
02:13:23.304:1,0.145,0.005
02:13:23.308:1,0.135,0.0
02:13:23.312:1,0.135,0.01
02:13:23.316:1,0.145,0.015
02:13:23.320:1,0.155,0.02
02:13:23.324:1,0.155,0.03
02:13:23.328:1,0.145,0.02
02:13:23.332:1,0.18,0.0
02:13:23.336:1,0.155,0.0
02:13:23.340:1,0.165,-0.005
02:13:23.344:1,0.175,-0.025
02:13:23.348:1,0.17,-0.045
02:13:23.352:1,0.16,-0.065
02:13:23.356:1,0.155,-0.065
02:13:23.360:1,0.16,-0.06
02:13:23.364:1,0.16,-0.065
02:13:23.368:1,0.17,-0.08
02:13:23.372:1,0.18,-0.095
02:13:23.376:1,0.165,-0.085
02:13:23.380:1,0.17,-0.08
02:13:23.384:1,0.165,-0.075
02:13:23.388:1,0.155,-0.075
02:13:23.392:1,0.16,-0.095
02:13:23.396:1,0.165,-0.08
02:13:23.400:1,0.18,-0.075
02:13:23.404:1,0.165,-0.08
02:13:23.408:1,0.17,-0.07
02:13:23.412:1,0.18,-0.08
02:13:23.416:1,0.185,-0.075
02:13:23.420:1,0.175,-0.06
02:13:23.424:1,0.16,-0.06
02:13:23.428:1,0.17,-0.075
02:13:23.432:1,0.17,-0.075
02:13:23.436:1,0.185,-0.075
02:13:23.440:1,0.185,-0.065
02:13:23.444:1,0.175,-0.085
02:13:23.448:1,0.17,-0.085
02:13:23.452:1,0.17,-0.07
02:13:23.456:1,0.17,-0.08
02:13:23.460:1,0.175,-0.07
02:13:23.464:1,0.17,-0.075
02:13:23.468:1,0.185,-0.095
02:13:23.472:1,0.18,-0.085
02:13:23.476:1,0.16,-0.085
02:13:23.480:1,0.175,-0.075
02:13:23.484:1,0.165,-0.08
02:13:23.488:1,0.16,-0.085
02:13:23.492:1,0.16,-0.095
02:13:23.496:1,0.15,-0.11
02:13:23.500:1,0.15,-0.08
02:13:23.504:1,0.15,-0.1
02:13:23.508:1,0.15,-0.11
02:13:23.512:1,0.155,-0.12
02:13:23.516:1,0.16,-0.12
02:13:23.520:1,0.16,-0.1
02:13:23.524:1,0.15,-0.1
02:13:23.528:1,0.135,-0.1
02:13:23.532:1,0.135,-0.08
02:13:23.536:1,0.155,-0.075
02:13:23.540:1,0.15,-0.03
02:13:23.544:1,0.165,0.005
02:13:23.548:1,0.185,0.01
02:13:23.552:1,0.2,0.05
02:13:23.556:1,0.215,0.03
02:13:23.560:1,0.215,0.045
02:13:23.564:1,0.2,0.06
02:13:23.568:1,0.21,0.065
02:13:23.572:1,0.215,0.025
02:13:23.576:1,0.2,0.0
02:13:23.580:1,0.165,-0.025
02:13:23.584:1,0.15,-0.085
02:13:23.588:1,0.135,-0.145
02:13:23.592:1,0.105,-0.16
02:13:23.596:1,0.075,-0.15
02:13:23.600:1,0.085,-0.15
02:13:23.604:1,0.08,-0.13
02:13:23.608:1,0.075,-0.12
02:13:23.612:1,0.095,-0.115
02:13:23.616:1,0.12,-0.115
02:13:23.620:1,0.125,-0.15
02:13:23.624:1,0.135,-0.145
02:13:23.628:1,0.12,-0.17
02:13:23.632:1,0.135,-0.19
02:13:23.636:1,0.14,-0.195
02:13:23.640:1,0.15,-0.2
02:13:23.644:1,0.145,-0.225
02:13:23.648:1,0.13,-0.235
02:13:23.652:1,0.105,-0.22
02:13:23.656:1,0.105,-0.21
02:13:23.660:1,0.125,-0.21
02:13:23.664:1,0.12,-0.22
02:13:23.668:1,0.12,-0.22
02:13:23.672:1,0.13,-0.21
02:13:23.676:1,0.105,-0.195
02:13:23.680:1,0.125,-0.205
02:13:23.684:1,0.115,-0.22
02:13:23.688:1,0.12,-0.21
02:13:23.692:1,0.13,-0.21
02:13:23.696:1,0.125,-0.21
02:13:23.700:1,0.14,-0.22
02:13:23.704:1,0.135,-0.15
02:13:23.708:1,0.155,-0.045
02:13:23.712:1,0.165,0.13
02:13:23.716:1,0.215,0.355
02:13:23.720:1,0.225,0.6
02:13:23.724:1,0.295,0.685
02:13:23.728:1,0.38,0.585
02:13:23.732:1,0.425,0.3
02:13:23.736:1,0.395,-0.175
02:13:23.740:1,0.31,-0.725
02:13:23.744:1,0.215,-1.035
02:13:23.748:1,0.02,-1.15
02:13:23.752:1,-0.14,-1.07
02:13:23.756:1,-0.215,-0.865
02:13:23.760:1,-0.24,-0.7
02:13:23.764:1,-0.205,-0.55
02:13:23.768:1,-0.14,-0.43
02:13:23.772:1,-0.06,-0.32
02:13:23.776:1,0.005,-0.24
02:13:23.780:1,0.075,-0.24
02:13:23.784:1,0.11,-0.24
02:13:23.788:1,0.125,-0.235
02:13:23.792:1,0.14,-0.23
02:13:23.796:1,0.125,-0.23
02:13:23.800:1,0.13,-0.22
02:13:23.804:1,0.135,-0.205
02:13:23.808:1,0.125,-0.225
02:13:23.812:1,0.135,-0.23
02:13:23.816:1,0.115,-0.225
02:13:23.820:1,0.14,-0.225
02:13:23.824:1,0.145,-0.215
02:13:23.828:1,0.14,-0.215
02:13:23.832:1,0.14,-0.22
02:13:23.836:1,0.14,-0.215
02:13:23.840:1,0.14,-0.205
02:13:23.844:1,0.15,-0.21
02:13:23.848:1,0.125,-0.205
02:13:23.852:1,0.14,-0.215
02:13:23.856:1,0.135,-0.2
02:13:23.860:1,0.13,-0.215
02:13:23.864:1,0.145,-0.195
02:13:23.868:1,0.13,-0.18
02:13:23.872:1,0.13,-0.19
02:13:23.876:1,0.135,-0.18
02:13:23.880:1,0.14,-0.17
02:13:23.884:1,0.125,-0.165
02:13:23.888:1,0.125,-0.16
02:13:23.892:1,0.135,-0.16
02:13:23.896:1,0.12,-0.14
02:13:23.900:1,0.135,-0.13
02:13:23.904:1,0.15,-0.125
02:13:23.908:1,0.13,-0.12
02:13:23.912:1,0.13,-0.115
02:13:23.916:1,0.145,-0.105
02:13:23.920:1,0.135,-0.08
02:13:23.924:1,0.14,-0.07
02:13:23.928:1,0.14,-0.075
02:13:23.932:1,0.135,-0.06
02:13:23.936:1,0.135,-0.04
02:13:23.940:1,0.14,-0.045
02:13:23.944:1,0.14,-0.04
02:13:23.948:1,0.15,-0.05
02:13:23.952:1,0.14,-0.03
02:13:23.956:1,0.155,-0.02
02:13:23.960:1,0.16,-0.005
02:13:23.964:1,0.16,-0.015
02:13:23.968:1,0.16,-0.025
02:13:23.972:1,0.17,-0.025
02:13:23.976:1,0.16,0.0
02:13:23.980:1,0.16,0.02
02:13:23.984:1,0.16,0.015
02:13:23.988:1,0.155,0.005
02:13:23.992:1,0.17,0.015
02:13:23.996:1,0.165,0.025
02:13:24.000:1,0.18,0.035
02:13:24.004:1,0.175,0.025
02:13:24.008:1,0.18,0.015
02:13:24.012:1,0.185,0.01
02:13:24.016:1,0.175,0.005
02:13:24.020:1,0.175,-0.01
02:13:24.024:1,0.18,-0.02
02:13:24.028:1,0.2,-0.03
02:13:24.032:1,0.18,-0.025
02:13:24.036:1,0.175,-0.04
02:13:24.040:1,0.185,-0.055
02:13:24.044:1,0.185,-0.065
02:13:24.048:1,0.185,-0.075
02:13:24.052:1,0.195,-0.085
02:13:24.056:1,0.195,-0.05
02:13:24.060:1,0.175,-0.08
02:13:24.064:1,0.205,-0.075
02:13:24.068:1,0.19,-0.075
02:13:24.072:1,0.18,-0.055
02:13:24.076:1,0.18,-0.05
02:13:24.080:1,0.17,-0.075
02:13:24.084:1,0.2,-0.08
02:13:24.088:1,0.19,-0.07
02:13:24.092:1,0.185,-0.07
02:13:24.096:1,0.195,-0.06
02:13:24.100:1,0.195,-0.055
02:13:24.104:1,0.185,-0.065
02:13:24.108:1,0.225,-0.08
02:13:24.112:1,0.185,-0.06
02:13:24.116:1,0.185,-0.055
02:13:24.120:1,0.195,-0.04
02:13:24.124:1,0.19,-0.06
02:13:24.128:1,0.175,-0.06
02:13:24.132:1,0.185,-0.07
02:13:24.136:1,0.19,-0.065
02:13:24.140:1,0.19,-0.065
02:13:24.144:1,0.185,-0.06
02:13:24.148:1,0.19,-0.07
02:13:24.152:1,0.18,-0.08
02:13:24.156:1,0.19,-0.07
02:13:24.160:1,0.18,-0.08
02:13:24.164:1,0.18,-0.075
02:13:24.168:1,0.175,-0.075
02:13:24.172:1,0.155,-0.085
02:13:24.176:1,0.18,-0.1
02:13:24.180:1,0.175,-0.095
02:13:24.184:1,0.17,-0.095
02:13:24.188:1,0.17,-0.095
02:13:24.192:1,0.15,-0.095
02:13:24.196:1,0.165,-0.08
02:13:24.200:1,0.16,-0.085
02:13:24.204:1,0.18,-0.08
02:13:24.208:1,0.17,-0.075
02:13:24.212:1,0.175,-0.045
02:13:24.216:1,0.18,-0.015
02:13:24.220:1,0.175,0.005
02:13:24.224:1,0.185,0.015
02:13:24.228:1,0.225,0.06
02:13:24.232:1,0.225,0.07
02:13:24.236:1,0.24,0.06
02:13:24.240:1,0.245,0.08
02:13:24.244:1,0.265,0.085
02:13:24.248:1,0.24,0.07
02:13:24.252:1,0.24,0.05
02:13:24.256:1,0.215,0.02
02:13:24.260:1,0.195,-0.015
02:13:24.264:1,0.155,-0.085
02:13:24.268:1,0.14,-0.14
02:13:24.272:1,0.13,-0.15
02:13:24.276:1,0.12,-0.125
02:13:24.280:1,0.11,-0.1
02:13:24.284:1,0.1,-0.105
02:13:24.288:1,0.13,-0.11
02:13:24.292:1,0.14,-0.115
02:13:24.296:1,0.145,-0.11
02:13:24.300:1,0.155,-0.15
02:13:24.304:1,0.155,-0.135
02:13:24.308:1,0.165,-0.165
02:13:24.312:1,0.165,-0.17
02:13:24.316:1,0.155,-0.19
02:13:24.320:1,0.15,-0.21
02:13:24.324:1,0.125,-0.205
02:13:24.328:1,0.145,-0.2
02:13:24.332:1,0.125,-0.2
02:13:24.336:1,0.14,-0.205
02:13:24.340:1,0.13,-0.2
02:13:24.344:1,0.13,-0.2
02:13:24.348:1,0.125,-0.215
02:13:24.352:1,0.13,-0.21
02:13:24.356:1,0.13,-0.195
02:13:24.360:1,0.135,-0.195
02:13:24.364:1,0.13,-0.23
02:13:24.368:1,0.14,-0.195
02:13:24.372:1,0.14,-0.19
02:13:24.376:1,0.135,-0.185
02:13:24.380:1,0.14,-0.175
02:13:24.384:1,0.145,-0.13
02:13:24.388:1,0.165,-0.015
02:13:24.392:1,0.17,0.195
02:13:24.396:1,0.185,0.425
02:13:24.400:1,0.215,0.575
02:13:24.404:1,0.28,0.525
02:13:24.408:1,0.365,0.325
02:13:24.412:1,0.395,-0.09
02:13:24.416:1,0.37,-0.595
02:13:24.420:1,0.325,-0.975
02:13:24.424:1,0.26,-1.125
02:13:24.428:1,0.11,-1.095
02:13:24.432:1,-0.01,-0.945
02:13:24.436:1,-0.105,-0.79
02:13:24.440:1,-0.155,-0.66
02:13:24.444:1,-0.145,-0.535
02:13:24.448:1,-0.1,-0.435
02:13:24.452:1,-0.05,-0.32
02:13:24.456:1,0.025,-0.24
02:13:24.460:1,0.065,-0.235
02:13:24.464:1,0.105,-0.22
02:13:24.468:1,0.11,-0.215
02:13:24.472:1,0.115,-0.22
02:13:24.476:1,0.11,-0.21
02:13:24.480:1,0.12,-0.22
02:13:24.484:1,0.12,-0.215
02:13:24.488:1,0.12,-0.215
02:13:24.492:1,0.115,-0.21
02:13:24.496:1,0.125,-0.21
02:13:24.500:1,0.13,-0.22
02:13:24.504:1,0.105,-0.22
02:13:24.508:1,0.105,-0.22
02:13:24.512:1,0.12,-0.21
02:13:24.516:1,0.115,-0.215
02:13:24.520:1,0.11,-0.2
02:13:24.524:1,0.12,-0.215
02:13:24.528:1,0.105,-0.22
02:13:24.532:1,0.105,-0.205
02:13:24.536:1,0.115,-0.205
02:13:24.540:1,0.11,-0.215
02:13:24.544:1,0.115,-0.215
02:13:24.548:1,0.095,-0.2
02:13:24.552:1,0.11,-0.195
02:13:24.556:1,0.125,-0.175
02:13:24.560:1,0.115,-0.18
02:13:24.564:1,0.125,-0.195
02:13:24.568:1,0.115,-0.175
02:13:24.572:1,0.105,-0.165
02:13:24.576:1,0.105,-0.165
02:13:24.580:1,0.105,-0.17
02:13:24.584:1,0.11,-0.16
02:13:24.588:1,0.09,-0.145
02:13:24.592:1,0.095,-0.13
02:13:24.596:1,0.105,-0.145
02:13:24.600:1,0.105,-0.12
02:13:24.604:1,0.1,-0.12
02:13:24.608:1,0.1,-0.115
02:13:24.612:1,0.1,-0.11
02:13:24.616:1,0.11,-0.105
02:13:24.620:1,0.09,-0.105
02:13:24.624:1,0.11,-0.105
02:13:24.628:1,0.11,-0.08
02:13:24.632:1,0.12,-0.07
02:13:24.636:1,0.13,-0.085
02:13:24.640:1,0.115,-0.075
02:13:24.644:1,0.105,-0.09
02:13:24.648:1,0.12,-0.065
02:13:24.652:1,0.12,-0.06
02:13:24.656:1,0.12,-0.045
02:13:24.660:1,0.135,-0.05
02:13:24.664:1,0.13,-0.055
02:13:24.668:1,0.125,-0.045
02:13:24.672:1,0.12,-0.03
02:13:24.676:1,0.14,-0.045
02:13:24.680:1,0.155,-0.04
02:13:24.684:1,0.15,-0.05
02:13:24.688:1,0.145,-0.04
02:13:24.692:1,0.165,-0.045
02:13:24.696:1,0.16,-0.035
02:13:24.700:1,0.13,-0.045
02:13:24.704:1,0.17,-0.07
02:13:24.708:1,0.145,-0.08
02:13:24.712:1,0.16,-0.075
02:13:24.716:1,0.155,-0.075
02:13:24.720:1,0.165,-0.1
02:13:24.724:1,0.18,-0.105
02:13:24.728:1,0.175,-0.105
02:13:24.732:1,0.175,-0.105
02:13:24.736:1,0.175,-0.09
02:13:24.740:1,0.165,-0.07
02:13:24.744:1,0.18,-0.1
02:13:24.748:1,0.16,-0.1
02:13:24.752:1,0.175,-0.095
02:13:24.756:1,0.14,-0.1
02:13:24.760:1,0.185,-0.105
02:13:24.764:1,0.155,-0.105
02:13:24.768:1,0.18,-0.09
02:13:24.772:1,0.16,-0.08
02:13:24.776:1,0.195,-0.09
02:13:24.780:1,0.18,-0.075
02:13:24.784:1,0.15,-0.075
02:13:24.788:1,0.155,-0.09
02:13:24.792:1,0.175,-0.08
02:13:24.796:1,0.17,-0.075
02:13:24.800:1,0.16,-0.09
02:13:24.804:1,0.165,-0.08
02:13:24.808:1,0.15,-0.075
02:13:24.812:1,0.16,-0.07
02:13:24.816:1,0.185,-0.065
02:13:24.820:1,0.155,-0.09
02:13:24.824:1,0.165,-0.09
02:13:24.828:1,0.155,-0.075
02:13:24.832:1,0.165,-0.06
02:13:24.836:1,0.15,-0.085
02:13:24.840:1,0.155,-0.095
02:13:24.844:1,0.165,-0.095
02:13:24.848:1,0.145,-0.09
02:13:24.852:1,0.175,-0.09
02:13:24.856:1,0.17,-0.095
02:13:24.860:1,0.185,-0.1
02:13:24.864:1,0.165,-0.11
02:13:24.868:1,0.17,-0.1
02:13:24.872:1,0.185,-0.115
02:13:24.876:1,0.155,-0.095
02:13:24.880:1,0.16,-0.095
02:13:24.884:1,0.165,-0.08
02:13:24.888:1,0.16,-0.055
02:13:24.892:1,0.165,-0.025
02:13:24.896:1,0.18,0.0
02:13:24.900:1,0.22,0.025
02:13:24.904:1,0.215,0.045
02:13:24.908:1,0.22,0.04
02:13:24.912:1,0.24,0.045
02:13:24.916:1,0.245,0.065
02:13:24.920:1,0.24,0.075
02:13:24.924:1,0.26,0.06
02:13:24.928:1,0.24,0.05
02:13:24.932:1,0.21,-0.01
02:13:24.936:1,0.2,-0.09
02:13:24.940:1,0.155,-0.14
02:13:24.944:1,0.12,-0.145
02:13:24.948:1,0.1,-0.17
02:13:24.952:1,0.12,-0.145
02:13:24.956:1,0.11,-0.12
02:13:24.960:1,0.115,-0.125
02:13:24.964:1,0.145,-0.115
02:13:24.968:1,0.14,-0.12
02:13:24.972:1,0.155,-0.145
02:13:24.976:1,0.165,-0.155
02:13:24.980:1,0.165,-0.16
02:13:24.984:1,0.165,-0.175
02:13:24.988:1,0.155,-0.19
02:13:24.992:1,0.16,-0.205
02:13:24.996:1,0.155,-0.205
02:13:25.000:1,0.14,-0.205
02:13:25.004:1,0.14,-0.23
02:13:25.008:1,0.135,-0.22
02:13:25.012:1,0.135,-0.215
02:13:25.016:1,0.125,-0.18
02:13:25.020:1,0.155,-0.21
02:13:25.024:1,0.135,-0.205
02:13:25.028:1,0.12,-0.22
02:13:25.032:1,0.155,-0.2
02:13:25.036:1,0.14,-0.2
02:13:25.040:1,0.14,-0.19
02:13:25.044:1,0.155,-0.195
02:13:25.048:1,0.165,-0.195
02:13:25.052:1,0.15,-0.185
02:13:25.056:1,0.155,-0.18
02:13:25.060:1,0.16,-0.125
02:13:25.064:1,0.17,-0.005
02:13:25.068:1,0.195,0.205
02:13:25.072:1,0.21,0.44
02:13:25.076:1,0.245,0.64
02:13:25.080:1,0.32,0.67
02:13:25.084:1,0.395,0.51
02:13:25.088:1,0.43,0.16
02:13:25.092:1,0.395,-0.335
02:13:25.096:1,0.33,-0.83
02:13:25.100:1,0.235,-1.065
02:13:25.104:1,0.055,-1.1
02:13:25.108:1,-0.07,-1.025
02:13:25.112:1,-0.155,-0.84
02:13:25.116:1,-0.16,-0.685
02:13:25.120:1,-0.13,-0.555
02:13:25.124:1,-0.12,-0.455
02:13:25.128:1,-0.05,-0.32
02:13:25.132:1,0.01,-0.215
02:13:25.136:1,0.075,-0.2
02:13:25.140:1,0.125,-0.205
02:13:25.144:1,0.14,-0.23
02:13:25.148:1,0.15,-0.2
02:13:25.152:1,0.14,-0.2
02:13:25.156:1,0.14,-0.195
02:13:25.160:1,0.155,-0.2
02:13:25.164:1,0.16,-0.205
02:13:25.168:1,0.155,-0.215
02:13:25.172:1,0.16,-0.205
02:13:25.176:1,0.14,-0.19
02:13:25.180:1,0.14,-0.19
02:13:25.184:1,0.16,-0.205
02:13:25.188:1,0.155,-0.19
02:13:25.192:1,0.145,-0.19
02:13:25.196:1,0.145,-0.195
02:13:25.200:1,0.125,-0.195
02:13:25.204:1,0.135,-0.185
02:13:25.208:1,0.14,-0.185
02:13:25.212:1,0.155,-0.19
02:13:25.216:1,0.15,-0.19
02:13:25.220:1,0.135,-0.19
02:13:25.224:1,0.135,-0.18
02:13:25.228:1,0.135,-0.17
02:13:25.232:1,0.13,-0.16
02:13:25.236:1,0.135,-0.165
02:13:25.240:1,0.13,-0.18
02:13:25.244:1,0.135,-0.14
02:13:25.248:1,0.14,-0.155
02:13:25.252:1,0.155,-0.13
02:13:25.256:1,0.125,-0.12
02:13:25.260:1,0.135,-0.115
02:13:25.264:1,0.115,-0.12
02:13:25.268:1,0.13,-0.11
02:13:25.272:1,0.155,-0.075
02:13:25.276:1,0.15,-0.085
02:13:25.280:1,0.145,-0.09
02:13:25.284:1,0.155,-0.075
02:13:25.288:1,0.14,-0.055
02:13:25.292:1,0.145,-0.05
02:13:25.296:1,0.155,-0.05
02:13:25.300:1,0.14,-0.045
02:13:25.304:1,0.155,-0.04
02:13:25.308:1,0.17,-0.035
02:13:25.312:1,0.165,-0.03
02:13:25.316:1,0.155,-0.03
02:13:25.320:1,0.165,-0.04
02:13:25.324:1,0.165,-0.035
02:13:25.328:1,0.155,0.0
02:13:25.332:1,0.135,-0.005
02:13:25.336:1,0.16,0.0
02:13:25.340:1,0.135,0.0
02:13:25.344:1,0.145,-0.01
02:13:25.348:1,0.17,-0.005
02:13:25.352:1,0.155,0.0
02:13:25.356:1,0.145,0.005
02:13:25.360:1,0.155,-0.005
02:13:25.364:1,0.165,-0.005
02:13:25.368:1,0.17,-0.005
02:13:25.372:1,0.185,-0.015
02:13:25.376:1,0.17,-0.05
02:13:25.380:1,0.175,-0.055
02:13:25.384:1,0.155,-0.055
02:13:25.388:1,0.17,-0.055
02:13:25.392:1,0.165,-0.07
02:13:25.396:1,0.17,-0.065
02:13:25.400:1,0.17,-0.08
02:13:25.404:1,0.155,-0.08
02:13:25.408:1,0.165,-0.07
02:13:25.412:1,0.165,-0.06
02:13:25.416:1,0.175,-0.07
02:13:25.420:1,0.175,-0.08
02:13:25.424:1,0.17,-0.095
02:13:25.428:1,0.19,-0.065
02:13:25.432:1,0.175,-0.055
02:13:25.436:1,0.18,-0.07
02:13:25.440:1,0.175,-0.09
02:13:25.444:1,0.165,-0.075
02:13:25.448:1,0.175,-0.075
02:13:25.452:1,0.16,-0.06
02:13:25.456:1,0.17,-0.065
02:13:25.460:1,0.185,-0.07
02:13:25.464:1,0.195,-0.085
02:13:25.468:1,0.16,-0.07
02:13:25.472:1,0.165,-0.055
02:13:25.476:1,0.175,-0.06
02:13:25.480:1,0.18,-0.06
02:13:25.484:1,0.18,-0.08
02:13:25.488:1,0.175,-0.05
02:13:25.492:1,0.165,-0.07
02:13:25.496:1,0.17,-0.06
02:13:25.500:1,0.165,-0.06
02:13:25.504:1,0.17,-0.08
02:13:25.508:1,0.175,-0.075
02:13:25.512:1,0.17,-0.085
02:13:25.516:1,0.185,-0.075
02:13:25.520:1,0.175,-0.08
02:13:25.524:1,0.155,-0.085
02:13:25.528:1,0.17,-0.075
02:13:25.532:1,0.155,-0.095
02:13:25.536:1,0.16,-0.09
02:13:25.540:1,0.14,-0.095
02:13:25.544:1,0.145,-0.095
02:13:25.548:1,0.155,-0.105
02:13:25.552:1,0.145,-0.09
02:13:25.556:1,0.145,-0.11
02:13:25.560:1,0.15,-0.1
02:13:25.564:1,0.14,-0.05
02:13:25.568:1,0.145,-0.005
02:13:25.572:1,0.17,0.02
02:13:25.576:1,0.185,0.035
02:13:25.580:1,0.235,0.04
02:13:25.584:1,0.21,0.04
02:13:25.588:1,0.22,0.05
02:13:25.592:1,0.23,0.06
02:13:25.596:1,0.215,0.065
02:13:25.600:1,0.215,0.03
02:13:25.604:1,0.21,-0.005
02:13:25.608:1,0.18,-0.07
02:13:25.612:1,0.13,-0.115
02:13:25.616:1,0.12,-0.15
02:13:25.620:1,0.1,-0.16
02:13:25.624:1,0.08,-0.15
02:13:25.628:1,0.085,-0.14
02:13:25.632:1,0.08,-0.11
02:13:25.636:1,0.08,-0.105
02:13:25.640:1,0.11,-0.135
02:13:25.644:1,0.13,-0.135
02:13:25.648:1,0.135,-0.165
02:13:25.652:1,0.14,-0.155
02:13:25.656:1,0.125,-0.185
02:13:25.660:1,0.145,-0.195
02:13:25.664:1,0.135,-0.205
02:13:25.668:1,0.135,-0.215
02:13:25.672:1,0.13,-0.22
02:13:25.676:1,0.11,-0.23
02:13:25.680:1,0.095,-0.235
02:13:25.684:1,0.1,-0.22
02:13:25.688:1,0.12,-0.22
02:13:25.692:1,0.12,-0.21
02:13:25.696:1,0.11,-0.22
02:13:25.700:1,0.105,-0.225
02:13:25.704:1,0.105,-0.215
02:13:25.708:1,0.105,-0.22
02:13:25.712:1,0.125,-0.215
02:13:25.716:1,0.105,-0.22
02:13:25.720:1,0.11,-0.205
02:13:25.724:1,0.115,-0.215
02:13:25.728:1,0.135,-0.185
02:13:25.732:1,0.125,-0.1
02:13:25.736:1,0.155,0.055
02:13:25.740:1,0.165,0.285
02:13:25.744:1,0.21,0.5
02:13:25.748:1,0.27,0.69
02:13:25.752:1,0.34,0.64
02:13:25.756:1,0.405,0.435
02:13:25.760:1,0.41,0.025
02:13:25.764:1,0.325,-0.515
02:13:25.768:1,0.25,-0.935
02:13:25.772:1,0.105,-1.11
02:13:25.776:1,-0.1,-1.11
02:13:25.780:1,-0.235,-0.94
02:13:25.784:1,-0.24,-0.76
02:13:25.788:1,-0.225,-0.59
02:13:25.792:1,-0.2,-0.465
02:13:25.796:1,-0.125,-0.355
02:13:25.800:1,-0.035,-0.27
02:13:25.804:1,0.04,-0.23
02:13:25.808:1,0.09,-0.23
02:13:25.812:1,0.125,-0.23
02:13:25.816:1,0.12,-0.235
02:13:25.820:1,0.115,-0.25
02:13:25.824:1,0.115,-0.23
02:13:25.828:1,0.11,-0.23
02:13:25.832:1,0.115,-0.225
02:13:25.836:1,0.105,-0.22
02:13:25.840:1,0.105,-0.23
02:13:25.844:1,0.105,-0.21
02:13:25.848:1,0.115,-0.21
02:13:25.852:1,0.12,-0.225
02:13:25.856:1,0.11,-0.22
02:13:25.860:1,0.1,-0.215
02:13:25.864:1,0.13,-0.215
02:13:25.868:1,0.105,-0.195
02:13:25.872:1,0.105,-0.21
02:13:25.876:1,0.135,-0.215
02:13:25.880:1,0.125,-0.22
02:13:25.884:1,0.11,-0.195
02:13:25.888:1,0.125,-0.205
02:13:25.892:1,0.125,-0.195
02:13:25.896:1,0.13,-0.195
02:13:25.900:1,0.11,-0.22
02:13:25.904:1,0.13,-0.2
02:13:25.908:1,0.105,-0.175
02:13:25.912:1,0.11,-0.165
02:13:25.916:1,0.115,-0.175
02:13:25.920:1,0.135,-0.18
02:13:25.924:1,0.12,-0.14
02:13:25.928:1,0.11,-0.14
02:13:25.932:1,0.115,-0.12
02:13:25.936:1,0.115,-0.11
02:13:25.940:1,0.12,-0.115
02:13:25.944:1,0.125,-0.095
02:13:25.948:1,0.145,-0.09
02:13:25.952:1,0.125,-0.07
02:13:25.956:1,0.125,-0.06
02:13:25.960:1,0.14,-0.06
02:13:25.964:1,0.115,-0.04
02:13:25.968:1,0.135,-0.035
02:13:25.972:1,0.15,-0.03
02:13:25.976:1,0.16,-0.015
02:13:25.980:1,0.155,-0.005
02:13:25.984:1,0.17,0.0
02:13:25.988:1,0.18,0.015
02:13:25.992:1,0.17,0.005
02:13:25.996:1,0.18,0.0
02:13:26.000:1,0.175,-0.015
02:13:26.004:1,0.15,0.0
02:13:26.008:1,0.15,0.0
02:13:26.012:1,0.16,0.0
02:13:26.016:1,0.18,0.02
02:13:26.020:1,0.185,0.05
02:13:26.024:1,0.225,0.065
02:13:26.028:1,0.235,0.07
02:13:26.032:1,0.25,0.06
02:13:26.036:1,0.25,0.025
02:13:26.040:1,0.28,0.005
02:13:26.044:1,0.29,0.02
02:13:26.048:1,0.29,0.02
02:13:26.052:1,0.3,0.0
02:13:26.056:1,0.27,-0.035
02:13:26.060:1,0.25,-0.08
02:13:26.064:1,0.2,-0.135
02:13:26.068:1,0.185,-0.14
02:13:26.072:1,0.145,-0.12
02:13:26.076:1,0.12,-0.155
02:13:26.080:1,0.13,-0.15
02:13:26.084:1,0.135,-0.155
02:13:26.088:1,0.15,-0.14
02:13:26.092:1,0.125,-0.13
02:13:26.096:1,0.14,-0.13
02:13:26.100:1,0.145,-0.135
02:13:26.104:1,0.135,-0.12
02:13:26.108:1,0.14,-0.135
02:13:26.112:1,0.125,-0.125
02:13:26.116:1,0.14,-0.13
02:13:26.120:1,0.14,-0.14
02:13:26.124:1,0.145,-0.105
02:13:26.128:1,0.15,-0.13
02:13:26.132:1,0.155,-0.12
02:13:26.136:1,0.155,-0.12
02:13:26.140:1,0.165,-0.13
02:13:26.144:1,0.165,-0.15
02:13:26.148:1,0.16,-0.145
02:13:26.152:1,0.145,-0.105
02:13:26.156:1,0.135,0.035
02:13:26.160:1,0.16,0.27
02:13:26.164:1,0.21,0.545
02:13:26.168:1,0.255,0.74
02:13:26.172:1,0.305,0.63
02:13:26.176:1,0.405,0.305
02:13:26.180:1,0.4,-0.225
02:13:26.184:1,0.325,-0.77
02:13:26.188:1,0.195,-1.07
02:13:26.192:1,0.025,-1.125
02:13:26.196:1,-0.125,-0.965
02:13:26.200:1,-0.21,-0.775
02:13:26.204:1,-0.19,-0.62
02:13:26.208:1,-0.17,-0.46
02:13:26.212:1,-0.135,-0.33
02:13:26.216:1,-0.07,-0.23
02:13:26.220:1,0.02,-0.175
02:13:26.224:1,0.07,-0.175
02:13:26.228:1,0.1,-0.18
02:13:26.232:1,0.12,-0.175
02:13:26.236:1,0.12,-0.19
02:13:26.240:1,0.09,-0.17
02:13:26.244:1,0.095,-0.2
02:13:26.248:1,0.095,-0.19
02:13:26.252:1,0.105,-0.185
02:13:26.256:1,0.095,-0.2
02:13:26.260:1,0.095,-0.2
02:13:26.264:1,0.085,-0.2
02:13:26.268:1,0.1,-0.19
02:13:26.272:1,0.095,-0.215
02:13:26.276:1,0.11,-0.205
02:13:26.280:1,0.1,-0.195
02:13:26.284:1,0.095,-0.19
02:13:26.288:1,0.12,-0.205
02:13:26.292:1,0.1,-0.185
02:13:26.296:1,0.115,-0.2
02:13:26.300:1,0.115,-0.2
02:13:26.304:1,0.105,-0.195
02:13:26.308:1,0.115,-0.175
02:13:26.312:1,0.105,-0.18
02:13:26.316:1,0.115,-0.185
02:13:26.320:1,0.105,-0.185
02:13:26.324:1,0.115,-0.17
02:13:26.328:1,0.12,-0.155
02:13:26.332:1,0.1,-0.15
02:13:26.336:1,0.115,-0.15
02:13:26.340:1,0.115,-0.14
02:13:26.344:1,0.115,-0.125
02:13:26.348:1,0.11,-0.12
02:13:26.352:1,0.11,-0.1
02:13:26.356:1,0.125,-0.1
02:13:26.360:1,0.1,-0.09
02:13:26.364:1,0.12,-0.075
02:13:26.368:1,0.12,-0.075
02:13:26.372:1,0.13,-0.055
02:13:26.376:1,0.11,-0.06
02:13:26.380:1,0.13,-0.065
02:13:26.384:1,0.13,-0.045
02:13:26.388:1,0.13,-0.01
02:13:26.392:1,0.125,-0.04
02:13:26.396:1,0.125,-0.025
02:13:26.400:1,0.14,-0.015
02:13:26.404:1,0.13,0.0
02:13:26.408:1,0.12,-0.005
02:13:26.412:1,0.135,-0.005
02:13:26.416:1,0.135,-0.005
02:13:26.420:1,0.135,0.0
02:13:26.424:1,0.13,0.0
02:13:26.428:1,0.135,0.005
02:13:26.432:1,0.145,-0.015
02:13:26.436:1,0.145,-0.015
02:13:26.440:1,0.145,-0.015
02:13:26.444:1,0.16,-0.04
02:13:26.448:1,0.155,-0.035
02:13:26.452:1,0.165,-0.05
02:13:26.456:1,0.15,-0.06
02:13:26.460:1,0.17,-0.08
02:13:26.464:1,0.16,-0.08
02:13:26.468:1,0.15,-0.085
02:13:26.472:1,0.145,-0.08
02:13:26.476:1,0.17,-0.095
02:13:26.480:1,0.165,-0.095
02:13:26.484:1,0.15,-0.085
02:13:26.488:1,0.17,-0.085
02:13:26.492:1,0.155,-0.1
02:13:26.496:1,0.165,-0.11
02:13:26.500:1,0.16,-0.115
02:13:26.504:1,0.165,-0.105
02:13:26.508:1,0.155,-0.095
02:13:26.512:1,0.165,-0.11
02:13:26.516:1,0.16,-0.12
02:13:26.520:1,0.155,-0.105
02:13:26.524:1,0.155,-0.105
02:13:26.528:1,0.165,-0.095
02:13:26.532:1,0.135,-0.095
02:13:26.536:1,0.15,-0.12
02:13:26.540:1,0.16,-0.115
02:13:26.544:1,0.15,-0.12
02:13:26.548:1,0.15,-0.095
02:13:26.552:1,0.145,-0.12
02:13:26.556:1,0.15,-0.125
02:13:26.560:1,0.13,-0.12
02:13:26.564:1,0.15,-0.11
02:13:26.568:1,0.15,-0.13
02:13:26.572:1,0.145,-0.14
02:13:26.576:1,0.13,-0.14
02:13:26.580:1,0.13,-0.13
02:13:26.584:1,0.13,-0.13
02:13:26.588:1,0.13,-0.125
02:13:26.592:1,0.13,-0.13
02:13:26.596:1,0.13,-0.155
02:13:26.600:1,0.12,-0.145
02:13:26.604:1,0.125,-0.14
02:13:26.608:1,0.1,-0.155
02:13:26.612:1,0.13,-0.155
02:13:26.616:1,0.1,-0.145
02:13:26.620:1,0.12,-0.16
02:13:26.624:1,0.11,-0.165
02:13:26.628:1,0.12,-0.145
02:13:26.632:1,0.115,-0.155
02:13:26.636:1,0.105,-0.18
02:13:26.640:1,0.11,-0.18
02:13:26.644:1,0.12,-0.16
02:13:26.648:1,0.115,-0.16
02:13:26.652:1,0.125,-0.17
02:13:26.656:1,0.13,-0.165
02:13:26.660:1,0.13,-0.165
02:13:26.664:1,0.105,-0.165
02:13:26.668:1,0.12,-0.165
02:13:26.672:1,0.125,-0.175
02:13:26.676:1,0.115,-0.165
02:13:26.680:1,0.12,-0.17
02:13:26.684:1,0.125,-0.16
02:13:26.688:1,0.12,-0.16
02:13:26.692:1,0.11,-0.165
02:13:26.696:1,0.105,-0.18
02:13:26.700:1,0.13,-0.17
02:13:26.704:1,0.13,-0.16
02:13:26.708:1,0.13,-0.175
02:13:26.712:1,0.115,-0.19
02:13:26.716:1,0.12,-0.18
02:13:26.720:1,0.1,-0.18
02:13:26.724:1,0.105,-0.16
02:13:26.728:1,0.1,-0.175
02:13:26.732:1,0.105,-0.16
02:13:26.736:1,0.115,-0.165
02:13:26.740:1,0.115,-0.16
02:13:26.744:1,0.105,-0.165
02:13:26.748:1,0.12,-0.155
02:13:26.752:1,0.14,-0.18
02:13:26.756:1,0.105,-0.16
02:13:26.760:1,0.11,-0.175
02:13:26.764:1,0.115,-0.155
02:13:26.768:1,0.115,-0.15
02:13:26.772:1,0.125,-0.175
02:13:26.776:1,0.125,-0.18
02:13:26.780:1,0.11,-0.165
02:13:26.784:1,0.11,-0.17
02:13:26.788:1,0.1,-0.175
02:13:26.792:1,0.12,-0.175
02:13:26.796:1,0.105,-0.18
02:13:26.800:1,0.115,-0.18
02:13:26.804:1,0.135,-0.175
02:13:26.808:1,0.125,-0.165
02:13:26.812:1,0.105,-0.16
02:13:26.816:1,0.1,-0.18
02:13:26.820:1,0.12,-0.18
02:13:26.824:1,0.1,-0.165
02:13:26.828:1,0.13,-0.13
02:13:26.832:1,0.11,-0.125
02:13:26.836:1,0.125,-0.08
02:13:26.840:1,0.14,-0.065
02:13:26.844:1,0.165,-0.035
02:13:26.848:1,0.175,0.005
02:13:26.852:1,0.185,-0.01
02:13:26.856:1,0.185,-0.01
02:13:26.860:1,0.215,0.03
02:13:26.864:1,0.205,0.015
02:13:26.868:1,0.205,0.005
02:13:26.872:1,0.2,-0.05
02:13:26.876:1,0.16,-0.08
02:13:26.880:1,0.12,-0.145
02:13:26.884:1,0.09,-0.165
02:13:26.888:1,0.09,-0.215
02:13:26.892:1,0.075,-0.195
02:13:26.896:1,0.045,-0.185
02:13:26.900:1,0.065,-0.15
02:13:26.904:1,0.09,-0.145
02:13:26.908:1,0.1,-0.15
02:13:26.912:1,0.095,-0.21
02:13:26.916:1,0.125,-0.215
02:13:26.920:1,0.13,-0.215
02:13:26.924:1,0.115,-0.215
02:13:26.928:1,0.12,-0.235
02:13:26.932:1,0.105,-0.24
02:13:26.936:1,0.1,-0.265
02:13:26.940:1,0.1,-0.265
02:13:26.944:1,0.075,-0.24
02:13:26.948:1,0.085,-0.24
02:13:26.952:1,0.065,-0.255
02:13:26.956:1,0.075,-0.275
02:13:26.960:1,0.06,-0.275
02:13:26.964:1,0.09,-0.27
02:13:26.968:1,0.065,-0.26
02:13:26.972:1,0.085,-0.255
02:13:26.976:1,0.08,-0.26
02:13:26.980:1,0.08,-0.26
02:13:26.984:1,0.075,-0.255
02:13:26.988:1,0.095,-0.24
02:13:26.992:1,0.095,-0.245
02:13:26.996:1,0.095,-0.215
02:13:27.000:1,0.1,-0.16
02:13:27.004:1,0.12,-0.05
02:13:27.008:1,0.115,0.175
02:13:27.012:1,0.13,0.405
02:13:27.016:1,0.18,0.545
02:13:27.020:1,0.26,0.525
02:13:27.024:1,0.335,0.325
02:13:27.028:1,0.38,-0.04
02:13:27.032:1,0.335,-0.445
02:13:27.036:1,0.295,-0.88
02:13:27.040:1,0.255,-1.13
02:13:27.044:1,0.145,-1.155
02:13:27.048:1,-0.02,-1.1
02:13:27.052:1,-0.115,-0.945
02:13:27.056:1,-0.19,-0.8
02:13:27.060:1,-0.185,-0.68
02:13:27.064:1,-0.18,-0.545
02:13:27.068:1,-0.14,-0.445
02:13:27.072:1,-0.08,-0.34
02:13:27.076:1,-0.01,-0.28
02:13:27.080:1,0.025,-0.265
02:13:27.084:1,0.07,-0.275
02:13:27.088:1,0.09,-0.265
02:13:27.092:1,0.115,-0.255
02:13:27.096:1,0.09,-0.255
02:13:27.100:1,0.11,-0.26
02:13:27.104:1,0.09,-0.25
02:13:27.108:1,0.09,-0.23
02:13:27.112:1,0.11,-0.24
02:13:27.116:1,0.095,-0.25
02:13:27.120:1,0.075,-0.24
02:13:27.124:1,0.1,-0.26
02:13:27.128:1,0.105,-0.24
02:13:27.132:1,0.105,-0.23
02:13:27.136:1,0.11,-0.24
02:13:27.140:1,0.1,-0.23
02:13:27.144:1,0.1,-0.23
02:13:27.148:1,0.1,-0.23
02:13:27.152:1,0.09,-0.23
02:13:27.156:1,0.1,-0.23
02:13:27.160:1,0.095,-0.235
02:13:27.164:1,0.09,-0.215
02:13:27.168:1,0.08,-0.215
02:13:27.172:1,0.105,-0.215
02:13:27.176:1,0.1,-0.21
02:13:27.180:1,0.09,-0.205
02:13:27.184:1,0.105,-0.2
02:13:27.188:1,0.1,-0.18
02:13:27.192:1,0.095,-0.185
02:13:27.196:1,0.095,-0.185
02:13:27.200:1,0.11,-0.18
02:13:27.204:1,0.11,-0.165
02:13:27.208:1,0.1,-0.145
02:13:27.212:1,0.095,-0.155
02:13:27.216:1,0.095,-0.165
02:13:27.220:1,0.105,-0.15
02:13:27.224:1,0.08,-0.16
02:13:27.228:1,0.11,-0.12
02:13:27.232:1,0.09,-0.1
02:13:27.236:1,0.11,-0.125
02:13:27.240:1,0.11,-0.13
02:13:27.244:1,0.105,-0.11
02:13:27.248:1,0.115,-0.095
02:13:27.252:1,0.12,-0.1
02:13:27.256:1,0.105,-0.1
02:13:27.260:1,0.1,-0.09
02:13:27.264:1,0.11,-0.12
02:13:27.268:1,0.11,-0.11
02:13:27.272:1,0.09,-0.1
02:13:27.276:1,0.105,-0.1
02:13:27.280:1,0.1,-0.105
02:13:27.284:1,0.09,-0.11
02:13:27.288:1,0.105,-0.09
02:13:27.292:1,0.12,-0.09
02:13:27.296:1,0.105,-0.09
02:13:27.300:1,0.11,-0.075
02:13:27.304:1,0.115,-0.07
02:13:27.308:1,0.12,-0.06
02:13:27.312:1,0.115,-0.07
02:13:27.316:1,0.125,-0.055
02:13:27.320:1,0.115,-0.055
02:13:27.324:1,0.115,-0.05
02:13:27.328:1,0.135,-0.045
02:13:27.332:1,0.13,-0.07
02:13:27.336:1,0.145,-0.065
02:13:27.340:1,0.135,-0.06
02:13:27.344:1,0.135,-0.065
02:13:27.348:1,0.13,-0.065
02:13:27.352:1,0.15,-0.08
02:13:27.356:1,0.13,-0.095
02:13:27.360:1,0.125,-0.11
02:13:27.364:1,0.135,-0.09
02:13:27.368:1,0.13,-0.09
02:13:27.372:1,0.13,-0.1
02:13:27.376:1,0.155,-0.1
02:13:27.380:1,0.15,-0.08
02:13:27.384:1,0.13,-0.095
02:13:27.388:1,0.12,-0.09
02:13:27.392:1,0.135,-0.085
02:13:27.396:1,0.145,-0.095
02:13:27.400:1,0.135,-0.095
02:13:27.404:1,0.145,-0.085
02:13:27.408:1,0.13,-0.065
02:13:27.412:1,0.135,-0.08
02:13:27.416:1,0.14,-0.09
02:13:27.420:1,0.145,-0.065
02:13:27.424:1,0.125,-0.065
02:13:27.428:1,0.13,-0.07
02:13:27.432:1,0.135,-0.08
02:13:27.436:1,0.13,-0.085
02:13:27.440:1,0.13,-0.08
02:13:27.444:1,0.125,-0.08
02:13:27.448:1,0.14,-0.07
02:13:27.452:1,0.135,-0.085
02:13:27.456:1,0.12,-0.075
02:13:27.460:1,0.12,-0.08
02:13:27.464:1,0.13,-0.09
02:13:27.468:1,0.125,-0.1
02:13:27.472:1,0.13,-0.105
02:13:27.476:1,0.125,-0.09
02:13:27.480:1,0.12,-0.115
02:13:27.484:1,0.125,-0.115
02:13:27.488:1,0.145,-0.11
02:13:27.492:1,0.115,-0.125
02:13:27.496:1,0.135,-0.13
02:13:27.500:1,0.12,-0.13
02:13:27.504:1,0.1,-0.115
02:13:27.508:1,0.115,-0.115
02:13:27.512:1,0.125,-0.11
02:13:27.516:1,0.09,-0.11
02:13:27.520:1,0.115,-0.085
02:13:27.524:1,0.11,-0.055
02:13:27.528:1,0.135,-0.02
02:13:27.532:1,0.16,0.0
02:13:27.536:1,0.19,0.01
02:13:27.540:1,0.17,0.025
02:13:27.544:1,0.195,0.045
02:13:27.548:1,0.205,0.02
02:13:27.552:1,0.2,0.045
02:13:27.556:1,0.175,0.025
02:13:27.560:1,0.185,-0.005
02:13:27.564:1,0.175,-0.055
02:13:27.568:1,0.135,-0.11
02:13:27.572:1,0.1,-0.16
02:13:27.576:1,0.1,-0.17
02:13:27.580:1,0.08,-0.175
02:13:27.584:1,0.06,-0.16
02:13:27.588:1,0.045,-0.15
02:13:27.592:1,0.06,-0.135
02:13:27.596:1,0.075,-0.16
02:13:27.600:1,0.08,-0.15
02:13:27.604:1,0.095,-0.165
02:13:27.608:1,0.11,-0.19
02:13:27.612:1,0.12,-0.215
02:13:27.616:1,0.1,-0.225
02:13:27.620:1,0.12,-0.235
02:13:27.624:1,0.105,-0.225
02:13:27.628:1,0.09,-0.265
02:13:27.632:1,0.08,-0.235
02:13:27.636:1,0.075,-0.25
02:13:27.640:1,0.08,-0.255
02:13:27.644:1,0.07,-0.275
02:13:27.648:1,0.07,-0.245
02:13:27.652:1,0.065,-0.27
02:13:27.656:1,0.06,-0.26
02:13:27.660:1,0.07,-0.265
02:13:27.664:1,0.065,-0.24
02:13:27.668:1,0.065,-0.24
02:13:27.672:1,0.07,-0.25
02:13:27.676:1,0.08,-0.26
02:13:27.680:1,0.075,-0.255
02:13:27.684:1,0.08,-0.255
02:13:27.688:1,0.085,-0.22
02:13:27.692:1,0.09,-0.165
02:13:27.696:1,0.115,-0.03
02:13:27.700:1,0.13,0.19
02:13:27.704:1,0.14,0.43
02:13:27.708:1,0.19,0.625
02:13:27.712:1,0.265,0.6
02:13:27.716:1,0.345,0.435
02:13:27.720:1,0.355,0.085
02:13:27.724:1,0.325,-0.435
02:13:27.728:1,0.23,-0.885
02:13:27.732:1,0.13,-1.12
02:13:27.736:1,-0.08,-1.14
02:13:27.740:1,-0.225,-0.995
02:13:27.744:1,-0.28,-0.81
02:13:27.748:1,-0.24,-0.64
02:13:27.752:1,-0.235,-0.52
02:13:27.756:1,-0.18,-0.415
02:13:27.760:1,-0.08,-0.31
02:13:27.764:1,0.0,-0.27
02:13:27.768:1,0.045,-0.255
02:13:27.772:1,0.09,-0.255
02:13:27.776:1,0.09,-0.275
02:13:27.780:1,0.085,-0.26
02:13:27.784:1,0.08,-0.24
02:13:27.788:1,0.075,-0.25
02:13:27.792:1,0.08,-0.26
02:13:27.796:1,0.075,-0.275
02:13:27.800:1,0.075,-0.27
02:13:27.804:1,0.085,-0.26
02:13:27.808:1,0.09,-0.25
02:13:27.812:1,0.075,-0.26
02:13:27.816:1,0.085,-0.255
02:13:27.820:1,0.075,-0.255
02:13:27.824:1,0.085,-0.245
02:13:27.828:1,0.085,-0.245
02:13:27.832:1,0.08,-0.225
02:13:27.836:1,0.08,-0.24
02:13:27.840:1,0.085,-0.225
02:13:27.844:1,0.09,-0.23
02:13:27.848:1,0.085,-0.215
02:13:27.852:1,0.1,-0.22
02:13:27.856:1,0.07,-0.22
02:13:27.860:1,0.09,-0.215
02:13:27.864:1,0.085,-0.205
02:13:27.868:1,0.09,-0.19
02:13:27.872:1,0.065,-0.205
02:13:27.876:1,0.08,-0.19
02:13:27.880:1,0.09,-0.19
02:13:27.884:1,0.085,-0.18
02:13:27.888:1,0.095,-0.18
02:13:27.892:1,0.095,-0.175
02:13:27.896:1,0.09,-0.155
02:13:27.900:1,0.095,-0.15
02:13:27.904:1,0.1,-0.145
02:13:27.908:1,0.105,-0.15
02:13:27.912:1,0.08,-0.11
02:13:27.916:1,0.095,-0.13
02:13:27.920:1,0.095,-0.11
02:13:27.924:1,0.105,-0.1
02:13:27.928:1,0.105,-0.09
02:13:27.932:1,0.125,-0.11
02:13:27.936:1,0.105,-0.09
02:13:27.940:1,0.1,-0.07
02:13:27.944:1,0.09,-0.07
02:13:27.948:1,0.1,-0.09
02:13:27.952:1,0.09,-0.085
02:13:27.956:1,0.095,-0.09
02:13:27.960:1,0.11,-0.075
02:13:27.964:1,0.11,-0.05
02:13:27.968:1,0.09,-0.065
02:13:27.972:1,0.11,-0.08
02:13:27.976:1,0.105,-0.08
02:13:27.980:1,0.11,-0.065
02:13:27.984:1,0.105,-0.06
02:13:27.988:1,0.125,-0.045
02:13:27.992:1,0.115,-0.04
02:13:27.996:1,0.115,-0.05
02:13:28.000:1,0.125,-0.05
02:13:28.004:1,0.135,-0.05
02:13:28.008:1,0.14,-0.06
02:13:28.012:1,0.14,-0.075
02:13:28.016:1,0.13,-0.08
02:13:28.020:1,0.135,-0.1
02:13:28.024:1,0.14,-0.11
02:13:28.028:1,0.145,-0.11
02:13:28.032:1,0.145,-0.1
02:13:28.036:1,0.13,-0.11
02:13:28.040:1,0.135,-0.12
02:13:28.044:1,0.12,-0.115
02:13:28.048:1,0.12,-0.105
02:13:28.052:1,0.135,-0.13
02:13:28.056:1,0.13,-0.12
02:13:28.060:1,0.13,-0.11
02:13:28.064:1,0.12,-0.105
02:13:28.068:1,0.145,-0.1
02:13:28.072:1,0.145,-0.115
02:13:28.076:1,0.135,-0.105
02:13:28.080:1,0.145,-0.105
02:13:28.084:1,0.15,-0.105
02:13:28.088:1,0.15,-0.095
02:13:28.092:1,0.155,-0.1
02:13:28.096:1,0.15,-0.115
02:13:28.100:1,0.155,-0.115
02:13:28.104:1,0.15,-0.105
02:13:28.108:1,0.16,-0.1
02:13:28.112:1,0.155,-0.1
02:13:28.116:1,0.17,-0.1
02:13:28.120:1,0.145,-0.1
02:13:28.124:1,0.155,-0.1
02:13:28.128:1,0.13,-0.085
02:13:28.132:1,0.15,-0.09
02:13:28.136:1,0.15,-0.11
02:13:28.140:1,0.15,-0.09
02:13:28.144:1,0.155,-0.1
02:13:28.148:1,0.15,-0.115
02:13:28.152:1,0.15,-0.12
02:13:28.156:1,0.14,-0.13
02:13:28.160:1,0.14,-0.13
02:13:28.164:1,0.145,-0.11
02:13:28.168:1,0.14,-0.1
02:13:28.172:1,0.14,-0.12
02:13:28.176:1,0.14,-0.12
02:13:28.180:1,0.145,-0.13
02:13:28.184:1,0.12,-0.125
02:13:28.188:1,0.145,-0.115
02:13:28.192:1,0.14,-0.125
02:13:28.196:1,0.145,-0.12
02:13:28.200:1,0.14,-0.09
02:13:28.204:1,0.15,-0.065
02:13:28.208:1,0.145,-0.03
02:13:28.212:1,0.16,-0.01
02:13:28.216:1,0.175,0.01
02:13:28.220:1,0.205,0.03
02:13:28.224:1,0.2,0.05
02:13:28.228:1,0.215,0.03
02:13:28.232:1,0.215,0.025
02:13:28.236:1,0.205,0.015
02:13:28.240:1,0.195,0.025
02:13:28.244:1,0.18,-0.01
02:13:28.248:1,0.13,-0.095
02:13:28.252:1,0.12,-0.15
02:13:28.256:1,0.1,-0.165
02:13:28.260:1,0.08,-0.17
02:13:28.264:1,0.085,-0.185
02:13:28.268:1,0.07,-0.16
02:13:28.272:1,0.045,-0.155
02:13:28.276:1,0.07,-0.15
02:13:28.280:1,0.08,-0.15
02:13:28.284:1,0.09,-0.165
02:13:28.288:1,0.125,-0.16
02:13:28.292:1,0.125,-0.18
02:13:28.296:1,0.12,-0.2
02:13:28.300:1,0.135,-0.22
02:13:28.304:1,0.135,-0.215
02:13:28.308:1,0.1,-0.235
02:13:28.312:1,0.09,-0.235
02:13:28.316:1,0.095,-0.23
02:13:28.320:1,0.09,-0.235
02:13:28.324:1,0.085,-0.23
02:13:28.328:1,0.09,-0.235
02:13:28.332:1,0.095,-0.245
02:13:28.336:1,0.09,-0.22
02:13:28.340:1,0.095,-0.23
02:13:28.344:1,0.105,-0.235
02:13:28.348:1,0.1,-0.23
02:13:28.352:1,0.085,-0.24
02:13:28.356:1,0.095,-0.23
02:13:28.360:1,0.115,-0.225
02:13:28.364:1,0.095,-0.2
02:13:28.368:1,0.11,-0.215
02:13:28.372:1,0.105,-0.14
02:13:28.376:1,0.11,-0.015
02:13:28.380:1,0.12,0.205
02:13:28.384:1,0.16,0.425
02:13:28.388:1,0.195,0.615
02:13:28.392:1,0.275,0.575
02:13:28.396:1,0.335,0.365
02:13:28.400:1,0.36,-0.02
02:13:28.404:1,0.315,-0.545
02:13:28.408:1,0.275,-0.97
02:13:28.412:1,0.165,-1.145
02:13:28.416:1,-0.01,-1.145
02:13:28.420:1,-0.135,-1.005
02:13:28.424:1,-0.215,-0.835
02:13:28.428:1,-0.235,-0.685
02:13:28.432:1,-0.215,-0.57
02:13:28.436:1,-0.185,-0.455
02:13:28.440:1,-0.1,-0.32
02:13:28.444:1,-0.04,-0.265
02:13:28.448:1,0.025,-0.25
02:13:28.452:1,0.055,-0.24
02:13:28.456:1,0.07,-0.24
02:13:28.460:1,0.065,-0.25
02:13:28.464:1,0.095,-0.25
02:13:28.468:1,0.07,-0.235
02:13:28.472:1,0.095,-0.25
02:13:28.476:1,0.09,-0.245
02:13:28.480:1,0.08,-0.25
02:13:28.484:1,0.08,-0.23
02:13:28.488:1,0.07,-0.24
02:13:28.492:1,0.065,-0.24
02:13:28.496:1,0.065,-0.245
02:13:28.500:1,0.07,-0.22
02:13:28.504:1,0.09,-0.225
02:13:28.508:1,0.085,-0.22
02:13:28.512:1,0.075,-0.235
02:13:28.516:1,0.08,-0.235
02:13:28.520:1,0.08,-0.215
02:13:28.524:1,0.07,-0.225
02:13:28.528:1,0.09,-0.24
02:13:28.532:1,0.06,-0.23
02:13:28.536:1,0.075,-0.235
02:13:28.540:1,0.085,-0.21
02:13:28.544:1,0.075,-0.205
02:13:28.548:1,0.065,-0.195
02:13:28.552:1,0.08,-0.195
02:13:28.556:1,0.08,-0.195
02:13:28.560:1,0.08,-0.175
02:13:28.564:1,0.06,-0.165
02:13:28.568:1,0.065,-0.165
02:13:28.572:1,0.085,-0.175
02:13:28.576:1,0.085,-0.17
02:13:28.580:1,0.065,-0.155
02:13:28.584:1,0.085,-0.145
02:13:28.588:1,0.065,-0.135
02:13:28.592:1,0.065,-0.135
02:13:28.596:1,0.07,-0.13
02:13:28.600:1,0.075,-0.1
02:13:28.604:1,0.075,-0.1
02:13:28.608:1,0.085,-0.115
02:13:28.612:1,0.075,-0.11
02:13:28.616:1,0.075,-0.1
02:13:28.620:1,0.09,-0.1
02:13:28.624:1,0.08,-0.085
02:13:28.628:1,0.065,-0.11
02:13:28.632:1,0.07,-0.085
02:13:28.636:1,0.08,-0.075
02:13:28.640:1,0.075,-0.065
02:13:28.644:1,0.09,-0.055
02:13:28.648:1,0.085,-0.07
02:13:28.652:1,0.07,-0.065
02:13:28.656:1,0.075,-0.055
02:13:28.660:1,0.09,-0.045
02:13:28.664:1,0.11,-0.035
02:13:28.668:1,0.1,-0.045
02:13:28.672:1,0.09,-0.03
02:13:28.676:1,0.085,-0.04
02:13:28.680:1,0.09,-0.03
02:13:28.684:1,0.095,-0.05
02:13:28.688:1,0.1,-0.05
02:13:28.692:1,0.105,-0.09
02:13:28.696:1,0.12,-0.08
02:13:28.700:1,0.1,-0.08
02:13:28.704:1,0.1,-0.08
02:13:28.708:1,0.095,-0.1
02:13:28.712:1,0.12,-0.13
02:13:28.716:1,0.1,-0.12
02:13:28.720:1,0.105,-0.12
02:13:28.724:1,0.105,-0.12
02:13:28.728:1,0.105,-0.12
02:13:28.732:1,0.09,-0.12
02:13:28.736:1,0.125,-0.145
02:13:28.740:1,0.125,-0.135
02:13:28.744:1,0.105,-0.125
02:13:28.748:1,0.095,-0.135
02:13:28.752:1,0.115,-0.125
02:13:28.756:1,0.12,-0.13
02:13:28.760:1,0.125,-0.13
02:13:28.764:1,0.14,-0.115
02:13:28.768:1,0.115,-0.12
02:13:28.772:1,0.12,-0.1
02:13:28.776:1,0.13,-0.11
02:13:28.780:1,0.125,-0.11
02:13:28.784:1,0.135,-0.115
02:13:28.788:1,0.12,-0.12
02:13:28.792:1,0.125,-0.12
02:13:28.796:1,0.125,-0.1
02:13:28.800:1,0.11,-0.105
02:13:28.804:1,0.105,-0.11
02:13:28.808:1,0.12,-0.125
02:13:28.812:1,0.12,-0.12
02:13:28.816:1,0.11,-0.12
02:13:28.820:1,0.12,-0.115
02:13:28.824:1,0.135,-0.125
02:13:28.828:1,0.11,-0.135
02:13:28.832:1,0.12,-0.135
02:13:28.836:1,0.12,-0.145
02:13:28.840:1,0.11,-0.125
02:13:28.844:1,0.1,-0.135
02:13:28.848:1,0.12,-0.155
02:13:28.852:1,0.115,-0.14
02:13:28.856:1,0.11,-0.145
02:13:28.860:1,0.1,-0.135
02:13:28.864:1,0.11,-0.12
02:13:28.868:1,0.12,-0.145
02:13:28.872:1,0.12,-0.14
02:13:28.876:1,0.1,-0.12
02:13:28.880:1,0.09,-0.075
02:13:28.884:1,0.115,-0.04
02:13:28.888:1,0.135,-0.015
02:13:28.892:1,0.16,0.015
02:13:28.896:1,0.185,0.03
02:13:28.900:1,0.185,0.025
02:13:28.904:1,0.19,0.035
02:13:28.908:1,0.2,0.04
02:13:28.912:1,0.205,0.035
02:13:28.916:1,0.205,0.0
02:13:28.920:1,0.18,-0.01
02:13:28.924:1,0.14,-0.07
02:13:28.928:1,0.135,-0.14
02:13:28.932:1,0.095,-0.185
02:13:28.936:1,0.07,-0.185
02:13:28.940:1,0.07,-0.18
02:13:28.944:1,0.065,-0.175
02:13:28.948:1,0.05,-0.16
02:13:28.952:1,0.05,-0.155
02:13:28.956:1,0.085,-0.155
02:13:28.960:1,0.085,-0.15
02:13:28.964:1,0.09,-0.185
02:13:28.968:1,0.105,-0.19
02:13:28.972:1,0.1,-0.205
02:13:28.976:1,0.105,-0.22
02:13:28.980:1,0.105,-0.22
02:13:28.984:1,0.105,-0.235
02:13:28.988:1,0.075,-0.26
02:13:28.992:1,0.09,-0.26
02:13:28.996:1,0.075,-0.24
02:13:29.000:1,0.06,-0.255
02:13:29.004:1,0.06,-0.245
02:13:29.008:1,0.08,-0.25
02:13:29.012:1,0.075,-0.265
02:13:29.016:1,0.075,-0.25
02:13:29.020:1,0.09,-0.25
02:13:29.024:1,0.085,-0.24
02:13:29.028:1,0.075,-0.25
02:13:29.032:1,0.08,-0.26
02:13:29.036:1,0.105,-0.24
02:13:29.040:1,0.085,-0.245
02:13:29.044:1,0.085,-0.25
02:13:29.048:1,0.09,-0.225
02:13:29.052:1,0.105,-0.16
02:13:29.056:1,0.12,-0.05
02:13:29.060:1,0.13,0.165
02:13:29.064:1,0.145,0.38
02:13:29.068:1,0.185,0.575
02:13:29.072:1,0.235,0.57
02:13:29.076:1,0.325,0.43
02:13:29.080:1,0.36,0.115
02:13:29.084:1,0.35,-0.395
02:13:29.088:1,0.3,-0.86
02:13:29.092:1,0.245,-1.1
02:13:29.096:1,0.105,-1.135
02:13:29.100:1,-0.04,-1.04
02:13:29.104:1,-0.12,-0.9
02:13:29.108:1,-0.19,-0.75
02:13:29.112:1,-0.185,-0.615
02:13:29.116:1,-0.165,-0.485
02:13:29.120:1,-0.12,-0.385
02:13:29.124:1,-0.075,-0.3
02:13:29.128:1,0.0,-0.265
02:13:29.132:1,0.065,-0.25
02:13:29.136:1,0.06,-0.235
02:13:29.140:1,0.085,-0.235
02:13:29.144:1,0.1,-0.24
02:13:29.148:1,0.08,-0.23
02:13:29.152:1,0.1,-0.245
02:13:29.156:1,0.095,-0.24
02:13:29.160:1,0.09,-0.24
02:13:29.164:1,0.08,-0.21
02:13:29.168:1,0.095,-0.245
02:13:29.172:1,0.1,-0.23
02:13:29.176:1,0.1,-0.225
02:13:29.180:1,0.11,-0.235
02:13:29.184:1,0.105,-0.225
02:13:29.188:1,0.085,-0.225
02:13:29.192:1,0.095,-0.225
02:13:29.196:1,0.09,-0.21
02:13:29.200:1,0.095,-0.205
02:13:29.204:1,0.11,-0.21
02:13:29.208:1,0.105,-0.205
02:13:29.212:1,0.09,-0.21
02:13:29.216:1,0.1,-0.21
02:13:29.220:1,0.095,-0.2
02:13:29.224:1,0.085,-0.205
02:13:29.228:1,0.08,-0.18
02:13:29.232:1,0.11,-0.17
02:13:29.236:1,0.105,-0.175
02:13:29.240:1,0.09,-0.16
02:13:29.244:1,0.09,-0.16
02:13:29.248:1,0.095,-0.16
02:13:29.252:1,0.1,-0.155
02:13:29.256:1,0.1,-0.13
02:13:29.260:1,0.085,-0.115
02:13:29.264:1,0.095,-0.13
02:13:29.268:1,0.1,-0.115
02:13:29.272:1,0.095,-0.105
02:13:29.276:1,0.1,-0.1
02:13:29.280:1,0.09,-0.085
02:13:29.284:1,0.11,-0.09
02:13:29.288:1,0.1,-0.105
02:13:29.292:1,0.095,-0.085
02:13:29.296:1,0.09,-0.095
02:13:29.300:1,0.11,-0.07
02:13:29.304:1,0.105,-0.095
02:13:29.308:1,0.11,-0.09
02:13:29.312:1,0.11,-0.085
02:13:29.316:1,0.105,-0.055
02:13:29.320:1,0.1,-0.065
02:13:29.324:1,0.125,-0.065
02:13:29.328:1,0.115,-0.055
02:13:29.332:1,0.095,-0.06
02:13:29.336:1,0.115,-0.05
02:13:29.340:1,0.115,-0.045
02:13:29.344:1,0.105,-0.045
02:13:29.348:1,0.115,-0.045
02:13:29.352:1,0.12,-0.035
02:13:29.356:1,0.135,-0.015
02:13:29.360:1,0.14,-0.035
02:13:29.364:1,0.14,-0.045
02:13:29.368:1,0.13,-0.05
02:13:29.372:1,0.13,-0.055
02:13:29.376:1,0.135,-0.075
02:13:29.380:1,0.15,-0.08
02:13:29.384:1,0.135,-0.105
02:13:29.388:1,0.115,-0.09
02:13:29.392:1,0.135,-0.095
02:13:29.396:1,0.145,-0.09
02:13:29.400:1,0.13,-0.1
02:13:29.404:1,0.15,-0.12
02:13:29.408:1,0.14,-0.11
02:13:29.412:1,0.14,-0.105
02:13:29.416:1,0.145,-0.1
02:13:29.420:1,0.125,-0.095
02:13:29.424:1,0.155,-0.095
02:13:29.428:1,0.145,-0.1
02:13:29.432:1,0.145,-0.09
02:13:29.436:1,0.14,-0.07
02:13:29.440:1,0.13,-0.08
02:13:29.444:1,0.15,-0.095
02:13:29.448:1,0.13,-0.1
02:13:29.452:1,0.145,-0.085
02:13:29.456:1,0.15,-0.085
02:13:29.460:1,0.14,-0.075
02:13:29.464:1,0.135,-0.075
02:13:29.468:1,0.145,-0.08
02:13:29.472:1,0.155,-0.07
02:13:29.476:1,0.17,-0.065
02:13:29.480:1,0.135,-0.085
02:13:29.484:1,0.14,-0.08
02:13:29.488:1,0.135,-0.085
02:13:29.492:1,0.155,-0.09
02:13:29.496:1,0.145,-0.1
02:13:29.500:1,0.12,-0.095
02:13:29.504:1,0.135,-0.095
02:13:29.508:1,0.135,-0.11
02:13:29.512:1,0.14,-0.1
02:13:29.516:1,0.14,-0.105
02:13:29.520:1,0.14,-0.105
02:13:29.524:1,0.135,-0.115
02:13:29.528:1,0.13,-0.12
02:13:29.532:1,0.13,-0.115
02:13:29.536:1,0.125,-0.105
02:13:29.540:1,0.135,-0.125
02:13:29.544:1,0.125,-0.125
02:13:29.548:1,0.13,-0.125
02:13:29.552:1,0.14,-0.105
02:13:29.556:1,0.11,-0.06
02:13:29.560:1,0.13,-0.035
02:13:29.564:1,0.145,-0.015
02:13:29.568:1,0.16,-0.02
02:13:29.572:1,0.195,0.025
02:13:29.576:1,0.205,0.03
02:13:29.580:1,0.205,0.035
02:13:29.584:1,0.2,0.045
02:13:29.588:1,0.23,0.035
02:13:29.592:1,0.2,0.01
02:13:29.596:1,0.18,0.0
02:13:29.600:1,0.165,-0.05
02:13:29.604:1,0.125,-0.1
02:13:29.608:1,0.13,-0.165
02:13:29.612:1,0.09,-0.18
02:13:29.616:1,0.095,-0.17
02:13:29.620:1,0.08,-0.16
02:13:29.624:1,0.065,-0.14
02:13:29.628:1,0.055,-0.135
02:13:29.632:1,0.085,-0.13
02:13:29.636:1,0.085,-0.13
02:13:29.640:1,0.1,-0.17
02:13:29.644:1,0.095,-0.195
02:13:29.648:1,0.115,-0.21
02:13:29.652:1,0.115,-0.195
02:13:29.656:1,0.115,-0.205
02:13:29.660:1,0.125,-0.23
02:13:29.664:1,0.1,-0.24
02:13:29.668:1,0.08,-0.235
02:13:29.672:1,0.085,-0.245
02:13:29.676:1,0.095,-0.23
02:13:29.680:1,0.09,-0.235
02:13:29.684:1,0.075,-0.235
02:13:29.688:1,0.1,-0.235
02:13:29.692:1,0.08,-0.245
02:13:29.696:1,0.095,-0.225
02:13:29.700:1,0.09,-0.235
02:13:29.704:1,0.1,-0.25
02:13:29.708:1,0.1,-0.225
02:13:29.712:1,0.095,-0.225
02:13:29.716:1,0.1,-0.22
02:13:29.720:1,0.11,-0.225
02:13:29.724:1,0.105,-0.185
02:13:29.728:1,0.105,-0.115
02:13:29.732:1,0.15,0.075
02:13:29.736:1,0.15,0.31
02:13:29.740:1,0.165,0.545
02:13:29.744:1,0.245,0.655
02:13:29.748:1,0.32,0.59
02:13:29.752:1,0.36,0.355
02:13:29.756:1,0.37,-0.09
02:13:29.760:1,0.325,-0.64
02:13:29.764:1,0.205,-1.01
02:13:29.768:1,0.055,-1.145
02:13:29.772:1,-0.12,-1.06
02:13:29.776:1,-0.235,-0.895
02:13:29.780:1,-0.26,-0.705
02:13:29.784:1,-0.23,-0.585
02:13:29.788:1,-0.175,-0.455
02:13:29.792:1,-0.105,-0.32
02:13:29.796:1,-0.04,-0.255
02:13:29.800:1,0.05,-0.245
02:13:29.804:1,0.065,-0.23
02:13:29.808:1,0.075,-0.245
02:13:29.812:1,0.1,-0.23
02:13:29.816:1,0.1,-0.245
02:13:29.820:1,0.09,-0.235
02:13:29.824:1,0.1,-0.245
02:13:29.828:1,0.105,-0.22
02:13:29.832:1,0.1,-0.23
02:13:29.836:1,0.11,-0.22
02:13:29.840:1,0.1,-0.22
02:13:29.844:1,0.1,-0.23
02:13:29.848:1,0.08,-0.21
02:13:29.852:1,0.095,-0.22
02:13:29.856:1,0.105,-0.22
02:13:29.860:1,0.095,-0.205
02:13:29.864:1,0.1,-0.225
02:13:29.868:1,0.105,-0.22
02:13:29.872:1,0.11,-0.2
02:13:29.876:1,0.105,-0.18
02:13:29.880:1,0.115,-0.2
02:13:29.884:1,0.1,-0.205
02:13:29.888:1,0.11,-0.185
02:13:29.892:1,0.1,-0.195
02:13:29.896:1,0.11,-0.18
02:13:29.900:1,0.1,-0.175
02:13:29.904:1,0.11,-0.185
02:13:29.908:1,0.12,-0.16
02:13:29.912:1,0.105,-0.13
02:13:29.916:1,0.105,-0.135
02:13:29.920:1,0.105,-0.12
02:13:29.924:1,0.11,-0.11
02:13:29.928:1,0.11,-0.1
02:13:29.932:1,0.125,-0.09
02:13:29.936:1,0.125,-0.08
02:13:29.940:1,0.14,-0.05
02:13:29.944:1,0.12,-0.04
02:13:29.948:1,0.145,-0.045
02:13:29.952:1,0.16,-0.06
02:13:29.956:1,0.13,-0.04
02:13:29.960:1,0.12,-0.04
02:13:29.964:1,0.125,-0.04
02:13:29.968:1,0.115,-0.015
02:13:29.972:1,0.145,-0.005
02:13:29.976:1,0.17,0.0
02:13:29.980:1,0.18,0.01
02:13:29.984:1,0.19,0.015
02:13:29.988:1,0.21,0.01
02:13:29.992:1,0.23,0.005
02:13:29.996:1,0.225,0.005
02:13:30.000:1,0.255,0.005
02:13:30.004:1,0.255,0.015
02:13:30.008:1,0.215,0.01
02:13:30.012:1,0.195,0.0
02:13:30.016:1,0.165,-0.025
02:13:30.020:1,0.14,-0.03
02:13:30.024:1,0.125,-0.04
02:13:30.028:1,0.1,-0.045
02:13:30.032:1,0.115,-0.045
02:13:30.036:1,0.105,-0.055
02:13:30.040:1,0.13,-0.075
02:13:30.044:1,0.115,-0.095
02:13:30.048:1,0.105,-0.095
02:13:30.052:1,0.115,-0.1
02:13:30.056:1,0.13,-0.105
02:13:30.060:1,0.105,-0.1
02:13:30.064:1,0.11,-0.12
02:13:30.068:1,0.11,-0.125
02:13:30.072:1,0.125,-0.11
02:13:30.076:1,0.12,-0.11
02:13:30.080:1,0.13,-0.125
02:13:30.084:1,0.115,-0.13
02:13:30.088:1,0.115,-0.13
02:13:30.092:1,0.11,-0.12
02:13:30.096:1,0.12,-0.125
02:13:30.100:1,0.105,-0.115
02:13:30.104:1,0.125,-0.115
02:13:30.108:1,0.115,-0.11
02:13:30.112:1,0.13,-0.09
02:13:30.116:1,0.125,-0.135
02:13:30.120:1,0.14,-0.145
02:13:30.124:1,0.115,-0.075
02:13:30.128:1,0.11,0.08
02:13:30.132:1,0.145,0.31
02:13:30.136:1,0.17,0.59
02:13:30.140:1,0.19,0.71
02:13:30.144:1,0.255,0.555
02:13:30.148:1,0.325,0.155
02:13:30.152:1,0.345,-0.495
02:13:30.156:1,0.27,-0.99
02:13:30.160:1,0.145,-1.18
02:13:30.164:1,-0.01,-1.135
02:13:30.168:1,-0.125,-0.89
02:13:30.172:1,-0.2,-0.68
02:13:30.176:1,-0.175,-0.525
02:13:30.180:1,-0.145,-0.38
02:13:30.184:1,-0.085,-0.255
02:13:30.188:1,-0.025,-0.165
02:13:30.192:1,0.065,-0.14
02:13:30.196:1,0.095,-0.135
02:13:30.200:1,0.12,-0.155
02:13:30.204:1,0.125,-0.16
02:13:30.208:1,0.115,-0.155
02:13:30.212:1,0.125,-0.16
02:13:30.216:1,0.115,-0.17
02:13:30.220:1,0.115,-0.175
02:13:30.224:1,0.095,-0.15
02:13:30.228:1,0.1,-0.16
02:13:30.232:1,0.09,-0.175
02:13:30.236:1,0.095,-0.185
02:13:30.240:1,0.1,-0.18
02:13:30.244:1,0.105,-0.18
02:13:30.248:1,0.105,-0.2
02:13:30.252:1,0.11,-0.185
02:13:30.256:1,0.095,-0.185
02:13:30.260:1,0.1,-0.18
02:13:30.264:1,0.1,-0.19
02:13:30.268:1,0.11,-0.19
02:13:30.272:1,0.12,-0.165
02:13:30.276:1,0.1,-0.17
02:13:30.280:1,0.1,-0.18
02:13:30.284:1,0.12,-0.185
02:13:30.288:1,0.105,-0.17
02:13:30.292:1,0.13,-0.155
02:13:30.296:1,0.09,-0.135
02:13:30.300:1,0.12,-0.16
02:13:30.304:1,0.12,-0.14
02:13:30.308:1,0.115,-0.11
02:13:30.312:1,0.115,-0.11
02:13:30.316:1,0.12,-0.11
02:13:30.320:1,0.12,-0.105
02:13:30.324:1,0.13,-0.09
02:13:30.328:1,0.14,-0.095
02:13:30.332:1,0.135,-0.075
02:13:30.336:1,0.14,-0.05
02:13:30.340:1,0.125,-0.055
02:13:30.344:1,0.135,-0.06
02:13:30.348:1,0.145,-0.05
02:13:30.352:1,0.15,-0.035
02:13:30.356:1,0.135,0.0
02:13:30.360:1,0.145,0.0
02:13:30.364:1,0.13,0.005
02:13:30.368:1,0.125,0.0
02:13:30.372:1,0.15,0.005
02:13:30.376:1,0.145,0.03
02:13:30.380:1,0.13,0.03
02:13:30.384:1,0.15,0.04
02:13:30.388:1,0.165,0.055
02:13:30.392:1,0.155,0.045
02:13:30.396:1,0.165,0.055
02:13:30.400:1,0.16,0.04
02:13:30.404:1,0.16,0.05
02:13:30.408:1,0.16,0.045
02:13:30.412:1,0.18,0.015
02:13:30.416:1,0.18,0.01
02:13:30.420:1,0.16,0.0
02:13:30.424:1,0.17,-0.025
02:13:30.428:1,0.185,-0.025
02:13:30.432:1,0.165,-0.025
02:13:30.436:1,0.18,-0.035
02:13:30.440:1,0.16,-0.04
02:13:30.444:1,0.165,-0.07
02:13:30.448:1,0.145,-0.06
02:13:30.452:1,0.155,-0.06
02:13:30.456:1,0.155,-0.055
02:13:30.460:1,0.15,-0.065
02:13:30.464:1,0.155,-0.085
02:13:30.468:1,0.145,-0.075
02:13:30.472:1,0.15,-0.07
02:13:30.476:1,0.165,-0.085
02:13:30.480:1,0.155,-0.075
02:13:30.484:1,0.165,-0.075
02:13:30.488:1,0.155,-0.07
02:13:30.492:1,0.15,-0.07
02:13:30.496:1,0.145,-0.08
02:13:30.500:1,0.16,-0.065
02:13:30.504:1,0.15,-0.09
02:13:30.508:1,0.15,-0.095
02:13:30.512:1,0.135,-0.08
02:13:30.516:1,0.13,-0.085
02:13:30.520:1,0.135,-0.085
02:13:30.524:1,0.14,-0.09
02:13:30.528:1,0.155,-0.095
02:13:30.532:1,0.155,-0.11
02:13:30.536:1,0.145,-0.11
02:13:30.540:1,0.15,-0.12
02:13:30.544:1,0.13,-0.115
02:13:30.548:1,0.125,-0.11
02:13:30.552:1,0.135,-0.12
02:13:30.556:1,0.125,-0.12
02:13:30.560:1,0.115,-0.13
02:13:30.564:1,0.115,-0.125
02:13:30.568:1,0.115,-0.12
02:13:30.572:1,0.13,-0.115
02:13:30.576:1,0.135,-0.13
02:13:30.580:1,0.125,-0.15
02:13:30.584:1,0.11,-0.15
02:13:30.588:1,0.115,-0.145
02:13:30.592:1,0.105,-0.135
02:13:30.596:1,0.11,-0.135
02:13:30.600:1,0.11,-0.14
02:13:30.604:1,0.115,-0.145
02:13:30.608:1,0.1,-0.125
02:13:30.612:1,0.115,-0.125
02:13:30.616:1,0.105,-0.14
02:13:30.620:1,0.11,-0.135
02:13:30.624:1,0.1,-0.15
02:13:30.628:1,0.105,-0.15
02:13:30.632:1,0.105,-0.145
02:13:30.636:1,0.12,-0.135
02:13:30.640:1,0.105,-0.135
02:13:30.644:1,0.12,-0.135
02:13:30.648:1,0.12,-0.145
02:13:30.652:1,0.115,-0.14
02:13:30.656:1,0.105,-0.135
02:13:30.660:1,0.11,-0.135
02:13:30.664:1,0.09,-0.14
02:13:30.668:1,0.115,-0.14
02:13:30.672:1,0.085,-0.13
02:13:30.676:1,0.105,-0.13
02:13:30.680:1,0.09,-0.155
02:13:30.684:1,0.11,-0.15
02:13:30.688:1,0.1,-0.145
02:13:30.692:1,0.095,-0.15
02:13:30.696:1,0.095,-0.15
02:13:30.700:1,0.11,-0.135
02:13:30.704:1,0.095,-0.17
02:13:30.708:1,0.1,-0.155
02:13:30.712:1,0.1,-0.145
02:13:30.716:1,0.105,-0.155
02:13:30.720:1,0.105,-0.16
02:13:30.724:1,0.1,-0.17
02:13:30.728:1,0.1,-0.155
02:13:30.732:1,0.09,-0.15
02:13:30.736:1,0.08,-0.155
02:13:30.740:1,0.1,-0.16
02:13:30.744:1,0.11,-0.155
02:13:30.748:1,0.11,-0.15
02:13:30.752:1,0.1,-0.15
02:13:30.756:1,0.08,-0.15
02:13:30.760:1,0.105,-0.165
02:13:30.764:1,0.1,-0.16
02:13:30.768:1,0.105,-0.15
02:13:30.772:1,0.1,-0.14
02:13:30.776:1,0.115,-0.15
02:13:30.780:1,0.12,-0.145
02:13:30.784:1,0.105,-0.14
02:13:30.788:1,0.115,-0.13
02:13:30.792:1,0.1,-0.105
02:13:30.796:1,0.115,-0.055
02:13:30.800:1,0.135,-0.035
02:13:30.804:1,0.155,-0.005
02:13:30.808:1,0.165,-0.005
02:13:30.812:1,0.175,0.01
02:13:30.816:1,0.185,0.025
02:13:30.820:1,0.2,0.045
02:13:30.824:1,0.19,0.045
02:13:30.828:1,0.205,0.02
02:13:30.832:1,0.195,-0.035
02:13:30.836:1,0.16,-0.075
02:13:30.840:1,0.125,-0.12
02:13:30.844:1,0.09,-0.155
02:13:30.848:1,0.09,-0.17
02:13:30.852:1,0.075,-0.16
02:13:30.856:1,0.07,-0.13
02:13:30.860:1,0.075,-0.135
02:13:30.864:1,0.085,-0.12
02:13:30.868:1,0.1,-0.15
02:13:30.872:1,0.105,-0.18
02:13:30.876:1,0.13,-0.195
02:13:30.880:1,0.11,-0.21
02:13:30.884:1,0.105,-0.2
02:13:30.888:1,0.115,-0.21
02:13:30.892:1,0.12,-0.22
02:13:30.896:1,0.08,-0.235
02:13:30.900:1,0.095,-0.26
02:13:30.904:1,0.085,-0.235
02:13:30.908:1,0.075,-0.23
02:13:30.912:1,0.065,-0.23
02:13:30.916:1,0.075,-0.23
02:13:30.920:1,0.07,-0.25
02:13:30.924:1,0.075,-0.24
02:13:30.928:1,0.07,-0.23
02:13:30.932:1,0.09,-0.23
02:13:30.936:1,0.08,-0.235
02:13:30.940:1,0.08,-0.235
02:13:30.944:1,0.085,-0.22
02:13:30.948:1,0.08,-0.21
02:13:30.952:1,0.09,-0.2
02:13:30.956:1,0.1,-0.16
02:13:30.960:1,0.1,-0.035
02:13:30.964:1,0.12,0.155
02:13:30.968:1,0.135,0.375
02:13:30.972:1,0.19,0.575
02:13:30.976:1,0.245,0.565
02:13:30.980:1,0.32,0.395
02:13:30.984:1,0.38,0.065
02:13:30.988:1,0.355,-0.325
02:13:30.992:1,0.305,-0.78
02:13:30.996:1,0.28,-1.08
02:13:31.000:1,0.165,-1.14
02:13:31.004:1,0.0,-1.1
02:13:31.008:1,-0.1,-0.94
02:13:31.012:1,-0.2,-0.79
02:13:31.016:1,-0.2,-0.66
02:13:31.020:1,-0.175,-0.555
02:13:31.024:1,-0.16,-0.45
02:13:31.028:1,-0.1,-0.335
02:13:31.032:1,-0.055,-0.245
02:13:31.036:1,0.03,-0.255
02:13:31.040:1,0.07,-0.245
02:13:31.044:1,0.095,-0.25
02:13:31.048:1,0.08,-0.24
02:13:31.052:1,0.095,-0.24
02:13:31.056:1,0.085,-0.215
02:13:31.060:1,0.08,-0.245
02:13:31.064:1,0.105,-0.235
02:13:31.068:1,0.08,-0.23
02:13:31.072:1,0.09,-0.215
02:13:31.076:1,0.09,-0.215
02:13:31.080:1,0.085,-0.225
02:13:31.084:1,0.105,-0.225
02:13:31.088:1,0.1,-0.21
02:13:31.092:1,0.09,-0.205
02:13:31.096:1,0.085,-0.21
02:13:31.100:1,0.09,-0.225
02:13:31.104:1,0.11,-0.22
02:13:31.108:1,0.105,-0.205
02:13:31.112:1,0.115,-0.185
02:13:31.116:1,0.105,-0.2
02:13:31.120:1,0.095,-0.19
02:13:31.124:1,0.085,-0.18
02:13:31.128:1,0.11,-0.19
02:13:31.132:1,0.11,-0.185
02:13:31.136:1,0.11,-0.17
02:13:31.140:1,0.105,-0.165
02:13:31.144:1,0.1,-0.16
02:13:31.148:1,0.105,-0.145
02:13:31.152:1,0.11,-0.13
02:13:31.156:1,0.11,-0.15
02:13:31.160:1,0.1,-0.14
02:13:31.164:1,0.105,-0.125
02:13:31.168:1,0.12,-0.13
02:13:31.172:1,0.135,-0.125
02:13:31.176:1,0.115,-0.115
02:13:31.180:1,0.12,-0.125
02:13:31.184:1,0.115,-0.11
02:13:31.188:1,0.13,-0.09
02:13:31.192:1,0.11,-0.07
02:13:31.196:1,0.13,-0.1
02:13:31.200:1,0.145,-0.095
02:13:31.204:1,0.14,-0.09
02:13:31.208:1,0.135,-0.075
02:13:31.212:1,0.13,-0.09
02:13:31.216:1,0.14,-0.095
02:13:31.220:1,0.13,-0.09
02:13:31.224:1,0.12,-0.07
02:13:31.228:1,0.14,-0.06
02:13:31.232:1,0.135,-0.07
02:13:31.236:1,0.145,-0.07
02:13:31.240:1,0.125,-0.075
02:13:31.244:1,0.16,-0.075
02:13:31.248:1,0.145,-0.07
02:13:31.252:1,0.135,-0.065
02:13:31.256:1,0.13,-0.05
02:13:31.260:1,0.14,-0.04
02:13:31.264:1,0.13,-0.045
02:13:31.268:1,0.14,-0.04
02:13:31.272:1,0.155,-0.03
02:13:31.276:1,0.145,-0.015
02:13:31.280:1,0.145,-0.02
02:13:31.284:1,0.145,-0.03
02:13:31.288:1,0.15,0.0
02:13:31.292:1,0.155,-0.02
02:13:31.296:1,0.17,-0.025
02:13:31.300:1,0.155,-0.03
02:13:31.304:1,0.165,-0.025
02:13:31.308:1,0.165,-0.02
02:13:31.312:1,0.165,-0.05
02:13:31.316:1,0.155,-0.06
02:13:31.320:1,0.14,-0.045
02:13:31.324:1,0.15,-0.05
02:13:31.328:1,0.14,-0.04
02:13:31.332:1,0.15,-0.06
02:13:31.336:1,0.155,-0.05
02:13:31.340:1,0.165,-0.045
02:13:31.344:1,0.145,-0.055
02:13:31.348:1,0.16,-0.035
02:13:31.352:1,0.165,-0.04
02:13:31.356:1,0.165,-0.055
02:13:31.360:1,0.165,-0.045
02:13:31.364:1,0.15,-0.04
02:13:31.368:1,0.16,-0.035
02:13:31.372:1,0.16,-0.025
02:13:31.376:1,0.155,-0.025
02:13:31.380:1,0.16,-0.045
02:13:31.384:1,0.16,-0.02
02:13:31.388:1,0.175,-0.025
02:13:31.392:1,0.18,-0.045
02:13:31.396:1,0.175,-0.04
02:13:31.400:1,0.16,-0.04
02:13:31.404:1,0.15,-0.025
02:13:31.408:1,0.175,-0.04
02:13:31.412:1,0.155,-0.045
02:13:31.416:1,0.165,-0.04
02:13:31.420:1,0.155,-0.045
02:13:31.424:1,0.15,-0.055
02:13:31.428:1,0.165,-0.05
02:13:31.432:1,0.135,-0.06
02:13:31.436:1,0.135,-0.07
02:13:31.440:1,0.145,-0.06
02:13:31.444:1,0.165,-0.055
02:13:31.448:1,0.155,-0.07
02:13:31.452:1,0.14,-0.075
02:13:31.456:1,0.145,-0.09
02:13:31.460:1,0.155,-0.08
02:13:31.464:1,0.14,-0.08
02:13:31.468:1,0.15,-0.07
02:13:31.472:1,0.145,-0.05
02:13:31.476:1,0.16,-0.045
02:13:31.480:1,0.155,0.0
02:13:31.484:1,0.16,0.035
02:13:31.488:1,0.18,0.05
02:13:31.492:1,0.19,0.06
02:13:31.496:1,0.2,0.06
02:13:31.500:1,0.24,0.085
02:13:31.504:1,0.23,0.1
02:13:31.508:1,0.23,0.08
02:13:31.512:1,0.225,0.065
02:13:31.516:1,0.19,0.03
02:13:31.520:1,0.195,-0.02
02:13:31.524:1,0.155,-0.09
02:13:31.528:1,0.115,-0.125
02:13:31.532:1,0.105,-0.13
02:13:31.536:1,0.09,-0.125
02:13:31.540:1,0.085,-0.13
02:13:31.544:1,0.075,-0.075
02:13:31.548:1,0.085,-0.075
02:13:31.552:1,0.1,-0.085
02:13:31.556:1,0.13,-0.115
02:13:31.560:1,0.125,-0.14
02:13:31.564:1,0.135,-0.15
02:13:31.568:1,0.125,-0.15
02:13:31.572:1,0.13,-0.165
02:13:31.576:1,0.13,-0.185
02:13:31.580:1,0.14,-0.205
02:13:31.584:1,0.12,-0.195
02:13:31.588:1,0.1,-0.205
02:13:31.592:1,0.105,-0.215
02:13:31.596:1,0.115,-0.215
02:13:31.600:1,0.095,-0.2
02:13:31.604:1,0.09,-0.21
02:13:31.608:1,0.095,-0.21
02:13:31.612:1,0.1,-0.215
02:13:31.616:1,0.095,-0.21
02:13:31.620:1,0.095,-0.22
02:13:31.624:1,0.1,-0.2
02:13:31.628:1,0.095,-0.19
02:13:31.632:1,0.105,-0.2
02:13:31.636:1,0.105,-0.23
02:13:31.640:1,0.095,-0.21
02:13:31.644:1,0.115,-0.175
02:13:31.648:1,0.13,-0.08
02:13:31.652:1,0.145,0.08
02:13:31.656:1,0.145,0.28
02:13:31.660:1,0.18,0.51
02:13:31.664:1,0.24,0.675
02:13:31.668:1,0.28,0.66
02:13:31.672:1,0.35,0.475
02:13:31.676:1,0.37,0.135
02:13:31.680:1,0.32,-0.375
02:13:31.684:1,0.26,-0.855
02:13:31.688:1,0.145,-1.07
02:13:31.692:1,-0.04,-1.12
02:13:31.696:1,-0.215,-1.005
02:13:31.700:1,-0.275,-0.815
02:13:31.704:1,-0.255,-0.64
02:13:31.708:1,-0.2,-0.505
02:13:31.712:1,-0.16,-0.39
02:13:31.716:1,-0.105,-0.295
02:13:31.720:1,-0.02,-0.25
02:13:31.724:1,0.045,-0.225
02:13:31.728:1,0.075,-0.225
02:13:31.732:1,0.085,-0.23
02:13:31.736:1,0.095,-0.225
02:13:31.740:1,0.085,-0.24
02:13:31.744:1,0.09,-0.22
02:13:31.748:1,0.095,-0.23
02:13:31.752:1,0.08,-0.22
02:13:31.756:1,0.085,-0.235
02:13:31.760:1,0.095,-0.23
02:13:31.764:1,0.1,-0.215
02:13:31.768:1,0.09,-0.205
02:13:31.772:1,0.11,-0.225
02:13:31.776:1,0.11,-0.23
02:13:31.780:1,0.11,-0.21
02:13:31.784:1,0.11,-0.19
02:13:31.788:1,0.115,-0.2
02:13:31.792:1,0.105,-0.2
02:13:31.796:1,0.115,-0.21
02:13:31.800:1,0.13,-0.21
02:13:31.804:1,0.12,-0.2
02:13:31.808:1,0.12,-0.185
02:13:31.812:1,0.115,-0.195
02:13:31.816:1,0.11,-0.2
02:13:31.820:1,0.11,-0.19
02:13:31.824:1,0.12,-0.175
02:13:31.828:1,0.125,-0.165
02:13:31.832:1,0.115,-0.165
02:13:31.836:1,0.125,-0.17
02:13:31.840:1,0.115,-0.155
02:13:31.844:1,0.125,-0.145
02:13:31.848:1,0.125,-0.135
02:13:31.852:1,0.11,-0.145
02:13:31.856:1,0.115,-0.12
02:13:31.860:1,0.13,-0.11
02:13:31.864:1,0.11,-0.1
02:13:31.868:1,0.125,-0.09
02:13:31.872:1,0.13,-0.095
02:13:31.876:1,0.125,-0.075
02:13:31.880:1,0.105,-0.065
02:13:31.884:1,0.125,-0.07
02:13:31.888:1,0.135,-0.06
02:13:31.892:1,0.12,-0.065
02:13:31.896:1,0.13,-0.065
02:13:31.900:1,0.135,-0.055
02:13:31.904:1,0.12,-0.035
02:13:31.908:1,0.125,-0.05
02:13:31.912:1,0.12,-0.05
02:13:31.916:1,0.13,-0.045
02:13:31.920:1,0.12,-0.04
02:13:31.924:1,0.13,-0.04
02:13:31.928:1,0.14,-0.015
02:13:31.932:1,0.15,-0.035
02:13:31.936:1,0.14,-0.025
02:13:31.940:1,0.145,-0.005
02:13:31.944:1,0.12,0.005
02:13:31.948:1,0.14,0.0
02:13:31.952:1,0.135,-0.005
02:13:31.956:1,0.15,-0.025
02:13:31.960:1,0.135,-0.01
02:13:31.964:1,0.155,-0.03
02:13:31.968:1,0.145,-0.045
02:13:31.972:1,0.145,-0.055
02:13:31.976:1,0.175,-0.065
02:13:31.980:1,0.145,-0.075
02:13:31.984:1,0.15,-0.075
02:13:31.988:1,0.155,-0.085
02:13:31.992:1,0.14,-0.09
02:13:31.996:1,0.16,-0.07
02:13:32.000:1,0.14,-0.085
02:13:32.004:1,0.145,-0.095
02:13:32.008:1,0.13,-0.07
02:13:32.012:1,0.135,-0.08
02:13:32.016:1,0.165,-0.085
02:13:32.020:1,0.155,-0.07
02:13:32.024:1,0.15,-0.06
02:13:32.028:1,0.155,-0.08
02:13:32.032:1,0.165,-0.08
02:13:32.036:1,0.135,-0.07
02:13:32.040:1,0.145,-0.07
02:13:32.044:1,0.15,-0.06
02:13:32.048:1,0.16,-0.075
02:13:32.052:1,0.15,-0.065
02:13:32.056:1,0.15,-0.08
02:13:32.060:1,0.16,-0.07
02:13:32.064:1,0.15,-0.065
02:13:32.068:1,0.175,-0.07
02:13:32.072:1,0.175,-0.08
02:13:32.076:1,0.17,-0.065
02:13:32.080:1,0.155,-0.075
02:13:32.084:1,0.175,-0.065
02:13:32.088:1,0.17,-0.065
02:13:32.092:1,0.145,-0.075
02:13:32.096:1,0.18,-0.095
02:13:32.100:1,0.17,-0.095
02:13:32.104:1,0.145,-0.075
02:13:32.108:1,0.15,-0.09
02:13:32.112:1,0.155,-0.08
02:13:32.116:1,0.155,-0.08
02:13:32.120:1,0.155,-0.09
02:13:32.124:1,0.15,-0.08
02:13:32.128:1,0.16,-0.08
02:13:32.132:1,0.16,-0.095
02:13:32.136:1,0.155,-0.095
02:13:32.140:1,0.165,-0.095
02:13:32.144:1,0.15,-0.08
02:13:32.148:1,0.135,-0.085
02:13:32.152:1,0.165,-0.07
02:13:32.156:1,0.155,-0.035
02:13:32.160:1,0.17,0.0
02:13:32.164:1,0.185,0.01
02:13:32.168:1,0.195,0.03
02:13:32.172:1,0.195,0.065
02:13:32.176:1,0.205,0.055
02:13:32.180:1,0.215,0.075
02:13:32.184:1,0.23,0.095
02:13:32.188:1,0.235,0.08
02:13:32.192:1,0.24,0.045
02:13:32.196:1,0.21,0.025
02:13:32.200:1,0.175,-0.02
02:13:32.204:1,0.18,-0.08
02:13:32.208:1,0.15,-0.14
02:13:32.212:1,0.12,-0.145
02:13:32.216:1,0.105,-0.14
02:13:32.220:1,0.11,-0.13
02:13:32.224:1,0.1,-0.1
02:13:32.228:1,0.095,-0.1
02:13:32.232:1,0.125,-0.11
02:13:32.236:1,0.135,-0.115
02:13:32.240:1,0.15,-0.135
02:13:32.244:1,0.155,-0.13
02:13:32.248:1,0.145,-0.15
02:13:32.252:1,0.15,-0.18
02:13:32.256:1,0.16,-0.175
02:13:32.260:1,0.125,-0.185
02:13:32.264:1,0.14,-0.195
02:13:32.268:1,0.12,-0.185
02:13:32.272:1,0.105,-0.21
02:13:32.276:1,0.135,-0.2
02:13:32.280:1,0.135,-0.2
02:13:32.284:1,0.115,-0.19
02:13:32.288:1,0.12,-0.19
02:13:32.292:1,0.125,-0.195
02:13:32.296:1,0.115,-0.185
02:13:32.300:1,0.12,-0.18
02:13:32.304:1,0.145,-0.175
02:13:32.308:1,0.125,-0.19
02:13:32.312:1,0.11,-0.2
02:13:32.316:1,0.11,-0.19
02:13:32.320:1,0.13,-0.155
02:13:32.324:1,0.13,-0.08
02:13:32.328:1,0.16,0.075
02:13:32.332:1,0.18,0.31
02:13:32.336:1,0.21,0.54
02:13:32.340:1,0.245,0.7
02:13:32.344:1,0.31,0.635
02:13:32.348:1,0.38,0.4
02:13:32.352:1,0.38,-0.05
02:13:32.356:1,0.315,-0.62
02:13:32.360:1,0.25,-0.955
02:13:32.364:1,0.04,-1.085
02:13:32.368:1,-0.125,-1.04
02:13:32.372:1,-0.235,-0.855
02:13:32.376:1,-0.25,-0.665
02:13:32.380:1,-0.215,-0.51
02:13:32.384:1,-0.175,-0.41
02:13:32.388:1,-0.085,-0.31
02:13:32.392:1,-0.02,-0.24
02:13:32.396:1,0.065,-0.2
02:13:32.400:1,0.105,-0.185
02:13:32.404:1,0.11,-0.2
02:13:32.408:1,0.125,-0.2
02:13:32.412:1,0.12,-0.21
02:13:32.416:1,0.13,-0.2
02:13:32.420:1,0.1,-0.195
02:13:32.424:1,0.115,-0.19
02:13:32.428:1,0.12,-0.185
02:13:32.432:1,0.125,-0.18
02:13:32.436:1,0.13,-0.195
02:13:32.440:1,0.135,-0.185
02:13:32.444:1,0.12,-0.17
02:13:32.448:1,0.115,-0.18
02:13:32.452:1,0.115,-0.17
02:13:32.456:1,0.13,-0.185
02:13:32.460:1,0.13,-0.175
02:13:32.464:1,0.135,-0.165
02:13:32.468:1,0.125,-0.18
02:13:32.472:1,0.125,-0.17
02:13:32.476:1,0.12,-0.165
02:13:32.480:1,0.125,-0.155
02:13:32.484:1,0.14,-0.16
02:13:32.488:1,0.13,-0.165
02:13:32.492:1,0.12,-0.16
02:13:32.496:1,0.125,-0.145
02:13:32.500:1,0.13,-0.125
02:13:32.504:1,0.125,-0.13
02:13:32.508:1,0.14,-0.14
02:13:32.512:1,0.14,-0.125
02:13:32.516:1,0.125,-0.1
02:13:32.520:1,0.15,-0.1
02:13:32.524:1,0.13,-0.095
02:13:32.528:1,0.135,-0.085
02:13:32.532:1,0.14,-0.1
02:13:32.536:1,0.145,-0.065
02:13:32.540:1,0.135,-0.06
02:13:32.544:1,0.15,-0.05
02:13:32.548:1,0.14,-0.045
02:13:32.552:1,0.14,-0.04
02:13:32.556:1,0.14,-0.04
02:13:32.560:1,0.155,-0.035
02:13:32.564:1,0.145,-0.025
02:13:32.568:1,0.155,-0.015
02:13:32.572:1,0.145,-0.03
02:13:32.576:1,0.16,-0.03
02:13:32.580:1,0.14,0.0
02:13:32.584:1,0.145,-0.015
02:13:32.588:1,0.135,-0.025
02:13:32.592:1,0.14,0.0
02:13:32.596:1,0.15,0.01
02:13:32.600:1,0.145,0.015
02:13:32.604:1,0.165,0.01
02:13:32.608:1,0.155,0.005
02:13:32.612:1,0.155,0.015
02:13:32.616:1,0.175,0.025
02:13:32.620:1,0.165,0.035
02:13:32.624:1,0.16,0.04
02:13:32.628:1,0.175,0.03
02:13:32.632:1,0.175,0.025
02:13:32.636:1,0.16,0.025
02:13:32.640:1,0.18,0.01
02:13:32.644:1,0.17,-0.01
02:13:32.648:1,0.165,-0.025
02:13:32.652:1,0.145,-0.04
02:13:32.656:1,0.165,-0.045
02:13:32.660:1,0.165,-0.03
02:13:32.664:1,0.155,-0.04
02:13:32.668:1,0.15,-0.06
02:13:32.672:1,0.16,-0.085
02:13:32.676:1,0.14,-0.065
02:13:32.680:1,0.15,-0.065
02:13:32.684:1,0.16,-0.07
02:13:32.688:1,0.145,-0.08
02:13:32.692:1,0.145,-0.085
02:13:32.696:1,0.15,-0.08
02:13:32.700:1,0.14,-0.06
02:13:32.704:1,0.16,-0.06
02:13:32.708:1,0.15,-0.065
02:13:32.712:1,0.16,-0.075
02:13:32.716:1,0.145,-0.05
02:13:32.720:1,0.16,-0.075
02:13:32.724:1,0.155,-0.06
02:13:32.728:1,0.145,-0.065
02:13:32.732:1,0.15,-0.07
02:13:32.736:1,0.17,-0.085
02:13:32.740:1,0.16,-0.075
02:13:32.744:1,0.14,-0.07
02:13:32.748:1,0.145,-0.075
02:13:32.752:1,0.16,-0.075
02:13:32.756:1,0.14,-0.08
02:13:32.760:1,0.145,-0.08
02:13:32.764:1,0.135,-0.09
02:13:32.768:1,0.135,-0.085
02:13:32.772:1,0.145,-0.085
02:13:32.776:1,0.155,-0.075
02:13:32.780:1,0.14,-0.085
02:13:32.784:1,0.15,-0.1
02:13:32.788:1,0.135,-0.1
02:13:32.792:1,0.125,-0.09
02:13:32.796:1,0.135,-0.1
02:13:32.800:1,0.125,-0.07
02:13:32.804:1,0.13,-0.095
02:13:32.808:1,0.145,-0.12
02:13:32.812:1,0.14,-0.115
02:13:32.816:1,0.13,-0.1
02:13:32.820:1,0.13,-0.09
02:13:32.824:1,0.145,-0.085
02:13:32.828:1,0.14,-0.075
02:13:32.832:1,0.145,-0.05
02:13:32.836:1,0.155,-0.01
02:13:32.840:1,0.15,0.02
02:13:32.844:1,0.175,0.04
02:13:32.848:1,0.2,0.03
02:13:32.852:1,0.215,0.05
02:13:32.856:1,0.205,0.055
02:13:32.860:1,0.215,0.075
02:13:32.864:1,0.225,0.06
02:13:32.868:1,0.22,0.04
02:13:32.872:1,0.2,-0.01
02:13:32.876:1,0.16,-0.075
02:13:32.880:1,0.13,-0.12
02:13:32.884:1,0.1,-0.14
02:13:32.888:1,0.09,-0.155
02:13:32.892:1,0.085,-0.15
02:13:32.896:1,0.085,-0.125
02:13:32.900:1,0.07,-0.12
02:13:32.904:1,0.115,-0.12
02:13:32.908:1,0.115,-0.13
02:13:32.912:1,0.13,-0.14
02:13:32.916:1,0.135,-0.16
02:13:32.920:1,0.125,-0.17
02:13:32.924:1,0.12,-0.19
02:13:32.928:1,0.135,-0.21
02:13:32.932:1,0.13,-0.21
02:13:32.936:1,0.1,-0.205
02:13:32.940:1,0.105,-0.22
02:13:32.944:1,0.11,-0.24
02:13:32.948:1,0.1,-0.215
02:13:32.952:1,0.09,-0.215
02:13:32.956:1,0.095,-0.225
02:13:32.960:1,0.115,-0.22
02:13:32.964:1,0.1,-0.225
02:13:32.968:1,0.095,-0.23
02:13:32.972:1,0.09,-0.22
02:13:32.976:1,0.1,-0.205
02:13:32.980:1,0.1,-0.22
02:13:32.984:1,0.12,-0.215
02:13:32.988:1,0.115,-0.22
02:13:32.992:1,0.115,-0.21
02:13:32.996:1,0.11,-0.18
02:13:33.000:1,0.115,-0.12
02:13:33.004:1,0.12,-0.005
02:13:33.008:1,0.155,0.18
02:13:33.012:1,0.17,0.405
02:13:33.016:1,0.225,0.57
02:13:33.020:1,0.265,0.525
02:13:33.024:1,0.335,0.335
02:13:33.028:1,0.35,-0.02
02:13:33.032:1,0.34,-0.52
02:13:33.036:1,0.305,-0.935
02:13:33.040:1,0.245,-1.12
02:13:33.044:1,0.105,-1.16
02:13:33.048:1,-0.03,-1.04
02:13:33.052:1,-0.12,-0.875
02:13:33.056:1,-0.18,-0.715
02:13:33.060:1,-0.175,-0.61
02:13:33.064:1,-0.14,-0.49
02:13:33.068:1,-0.09,-0.37
02:13:33.072:1,-0.035,-0.265
02:13:33.076:1,0.025,-0.24
02:13:33.080:1,0.08,-0.235
02:13:33.084:1,0.1,-0.24
02:13:33.088:1,0.11,-0.24
02:13:33.092:1,0.12,-0.23
02:13:33.096:1,0.115,-0.205
02:13:33.100:1,0.115,-0.23
02:13:33.104:1,0.125,-0.235
02:13:33.108:1,0.13,-0.23
02:13:33.112:1,0.105,-0.21
02:13:33.116:1,0.1,-0.215
02:13:33.120:1,0.125,-0.2
02:13:33.124:1,0.135,-0.205
02:13:33.128:1,0.13,-0.23
02:13:33.132:1,0.14,-0.225
02:13:33.136:1,0.115,-0.195
02:13:33.140:1,0.135,-0.205
02:13:33.144:1,0.125,-0.225
02:13:33.148:1,0.115,-0.21
02:13:33.152:1,0.12,-0.205
02:13:33.156:1,0.13,-0.205
02:13:33.160:1,0.115,-0.195
02:13:33.164:1,0.115,-0.175
02:13:33.168:1,0.12,-0.2
02:13:33.172:1,0.115,-0.19
02:13:33.176:1,0.13,-0.175
02:13:33.180:1,0.11,-0.16
02:13:33.184:1,0.115,-0.18
02:13:33.188:1,0.12,-0.16
02:13:33.192:1,0.12,-0.145
02:13:33.196:1,0.14,-0.155
02:13:33.200:1,0.12,-0.14
02:13:33.204:1,0.12,-0.15
02:13:33.208:1,0.115,-0.14
02:13:33.212:1,0.115,-0.14
02:13:33.216:1,0.115,-0.11
02:13:33.220:1,0.115,-0.115
02:13:33.224:1,0.135,-0.11
02:13:33.228:1,0.125,-0.095
02:13:33.232:1,0.125,-0.1
02:13:33.236:1,0.11,-0.08
02:13:33.240:1,0.11,-0.105
02:13:33.244:1,0.125,-0.1
02:13:33.248:1,0.12,-0.085
02:13:33.252:1,0.12,-0.09
02:13:33.256:1,0.145,-0.07
02:13:33.260:1,0.135,-0.08
02:13:33.264:1,0.135,-0.075
02:13:33.268:1,0.13,-0.08
02:13:33.272:1,0.14,-0.07
02:13:33.276:1,0.155,-0.04
02:13:33.280:1,0.15,-0.05
02:13:33.284:1,0.15,-0.06
02:13:33.288:1,0.14,-0.06
02:13:33.292:1,0.155,-0.03
02:13:33.296:1,0.13,-0.035
02:13:33.300:1,0.15,-0.02
02:13:33.304:1,0.14,-0.03
02:13:33.308:1,0.155,-0.04
02:13:33.312:1,0.155,-0.04
