Time,ECG1,ECG2
02:20:01.288:1,-0.115,-0.18
02:20:01.292:1,-0.095,-0.175
02:20:01.296:1,-0.115,-0.195
02:20:01.300:1,-0.095,-0.18
02:20:01.304:1,-0.105,-0.195
02:20:01.308:1,-0.115,-0.17
02:20:01.312:1,-0.125,-0.19
02:20:01.316:1,-0.11,-0.195
02:20:01.320:1,-0.1,-0.18
02:20:01.324:1,-0.105,-0.185
02:20:01.328:1,-0.1,-0.18
02:20:01.332:1,-0.105,-0.195
02:20:01.336:1,-0.12,-0.19
02:20:01.340:1,-0.11,-0.175
02:20:01.344:1,-0.1,-0.175
02:20:01.348:1,-0.095,-0.185
02:20:01.352:1,-0.105,-0.195
02:20:01.356:1,-0.1,-0.185
02:20:01.360:1,-0.095,-0.18
02:20:01.364:1,-0.1,-0.165
02:20:01.368:1,-0.12,-0.185
02:20:01.372:1,-0.095,-0.155
02:20:01.376:1,-0.11,-0.115
02:20:01.380:1,-0.085,-0.09
02:20:01.384:1,-0.075,-0.065
02:20:01.388:1,-0.05,-0.04
02:20:01.392:1,-0.055,-0.045
02:20:01.396:1,-0.04,-0.03
02:20:01.400:1,-0.02,0.0
02:20:01.404:1,-0.02,0.01
02:20:01.408:1,-0.03,-0.015
02:20:01.412:1,-0.005,-0.04
02:20:01.416:1,-0.025,-0.09
02:20:01.420:1,-0.085,-0.135
02:20:01.424:1,-0.11,-0.185
02:20:01.428:1,-0.13,-0.225
02:20:01.432:1,-0.145,-0.215
02:20:01.436:1,-0.175,-0.2
02:20:01.440:1,-0.15,-0.195
02:20:01.444:1,-0.14,-0.165
02:20:01.448:1,-0.14,-0.185
02:20:01.452:1,-0.13,-0.2
02:20:01.456:1,-0.11,-0.215
02:20:01.460:1,-0.115,-0.23
02:20:01.464:1,-0.115,-0.24
02:20:01.468:1,-0.12,-0.235
02:20:01.472:1,-0.13,-0.255
02:20:01.476:1,-0.12,-0.27
02:20:01.480:1,-0.135,-0.285
02:20:01.484:1,-0.145,-0.29
02:20:01.488:1,-0.155,-0.29
02:20:01.492:1,-0.14,-0.295
02:20:01.496:1,-0.15,-0.28
02:20:01.500:1,-0.14,-0.285
02:20:01.504:1,-0.145,-0.28
02:20:01.508:1,-0.135,-0.295
02:20:01.512:1,-0.155,-0.29
02:20:01.516:1,-0.155,-0.29
02:20:01.520:1,-0.15,-0.28
02:20:01.524:1,-0.14,-0.27
02:20:01.528:1,-0.145,-0.27
02:20:01.532:1,-0.145,-0.265
02:20:01.536:1,-0.135,-0.24
02:20:01.540:1,-0.16,-0.21
02:20:01.544:1,-0.13,-0.105
02:20:01.548:1,-0.1,0.08
02:20:01.552:1,-0.1,0.33
02:20:01.556:1,-0.06,0.51
02:20:01.560:1,0.0,0.5
02:20:01.564:1,0.085,0.32
02:20:01.568:1,0.12,-0.015
02:20:01.572:1,0.1,-0.435
02:20:01.576:1,0.08,-0.875
02:20:01.580:1,0.01,-1.105
02:20:01.584:1,-0.11,-1.165
02:20:01.588:1,-0.28,-1.05
02:20:01.592:1,-0.385,-0.91
02:20:01.596:1,-0.455,-0.76
02:20:01.600:1,-0.44,-0.635
02:20:01.604:1,-0.42,-0.54
02:20:01.608:1,-0.38,-0.44
02:20:01.612:1,-0.325,-0.345
02:20:01.616:1,-0.265,-0.32
02:20:01.620:1,-0.2,-0.3
02:20:01.624:1,-0.165,-0.295
02:20:01.628:1,-0.14,-0.295
02:20:01.632:1,-0.155,-0.3
02:20:01.636:1,-0.16,-0.295
02:20:01.640:1,-0.16,-0.305
02:20:01.644:1,-0.15,-0.295
02:20:01.648:1,-0.16,-0.28
02:20:01.652:1,-0.145,-0.29
02:20:01.656:1,-0.135,-0.295
02:20:01.660:1,-0.155,-0.285
02:20:01.664:1,-0.155,-0.28
02:20:01.668:1,-0.16,-0.295
02:20:01.672:1,-0.125,-0.295
02:20:01.676:1,-0.165,-0.295
02:20:01.680:1,-0.16,-0.275
02:20:01.684:1,-0.14,-0.28
02:20:01.688:1,-0.145,-0.275
02:20:01.692:1,-0.15,-0.285
02:20:01.696:1,-0.145,-0.27
02:20:01.700:1,-0.155,-0.275
02:20:01.704:1,-0.155,-0.24
02:20:01.708:1,-0.16,-0.265
02:20:01.712:1,-0.15,-0.26
02:20:01.716:1,-0.165,-0.25
02:20:01.720:1,-0.155,-0.24
02:20:01.724:1,-0.155,-0.23
02:20:01.728:1,-0.155,-0.23
02:20:01.732:1,-0.14,-0.23
02:20:01.736:1,-0.145,-0.23
02:20:01.740:1,-0.145,-0.21
02:20:01.744:1,-0.14,-0.19
02:20:01.748:1,-0.145,-0.2
02:20:01.752:1,-0.135,-0.205
02:20:01.756:1,-0.14,-0.195
02:20:01.760:1,-0.14,-0.19
02:20:01.764:1,-0.14,-0.175
02:20:01.768:1,-0.12,-0.18
02:20:01.772:1,-0.14,-0.17
02:20:01.776:1,-0.13,-0.165
02:20:01.780:1,-0.11,-0.16
02:20:01.784:1,-0.125,-0.135
02:20:01.788:1,-0.115,-0.145
02:20:01.792:1,-0.115,-0.15
02:20:01.796:1,-0.095,-0.165
02:20:01.800:1,-0.12,-0.14
02:20:01.804:1,-0.1,-0.145
02:20:01.808:1,-0.105,-0.135
02:20:01.812:1,-0.1,-0.14
02:20:01.816:1,-0.1,-0.145
02:20:01.820:1,-0.105,-0.13
02:20:01.824:1,-0.1,-0.13
02:20:01.828:1,-0.11,-0.115
02:20:01.832:1,-0.095,-0.135
02:20:01.836:1,-0.1,-0.135
02:20:01.840:1,-0.095,-0.115
02:20:01.844:1,-0.105,-0.12
02:20:01.848:1,-0.095,-0.11
02:20:01.852:1,-0.11,-0.105
02:20:01.856:1,-0.1,-0.12
02:20:01.860:1,-0.1,-0.105
02:20:01.864:1,-0.1,-0.095
02:20:01.868:1,-0.095,-0.095
02:20:01.872:1,-0.08,-0.11
02:20:01.876:1,-0.095,-0.115
02:20:01.880:1,-0.085,-0.09
02:20:01.884:1,-0.095,-0.115
02:20:01.888:1,-0.075,-0.11
02:20:01.892:1,-0.09,-0.14
02:20:01.896:1,-0.095,-0.14
02:20:01.900:1,-0.07,-0.155
02:20:01.904:1,-0.09,-0.135
02:20:01.908:1,-0.09,-0.13
02:20:01.912:1,-0.085,-0.145
02:20:01.916:1,-0.085,-0.14
02:20:01.920:1,-0.09,-0.125
02:20:01.924:1,-0.085,-0.15
02:20:01.928:1,-0.105,-0.14
02:20:01.932:1,-0.09,-0.14
02:20:01.936:1,-0.11,-0.145
02:20:01.940:1,-0.11,-0.135
02:20:01.944:1,-0.1,-0.12
02:20:01.948:1,-0.09,-0.125
02:20:01.952:1,-0.085,-0.135
02:20:01.956:1,-0.07,-0.12
02:20:01.960:1,-0.08,-0.105
02:20:01.964:1,-0.075,-0.1
02:20:01.968:1,-0.09,-0.115
02:20:01.972:1,-0.085,-0.12
02:20:01.976:1,-0.08,-0.125
02:20:01.980:1,-0.09,-0.13
02:20:01.984:1,-0.1,-0.12
02:20:01.988:1,-0.09,-0.12
02:20:01.992:1,-0.105,-0.13
02:20:01.996:1,-0.1,-0.135
02:20:02.000:1,-0.095,-0.125
02:20:02.004:1,-0.1,-0.13
02:20:02.008:1,-0.11,-0.14
02:20:02.012:1,-0.11,-0.135
02:20:02.016:1,-0.1,-0.13
02:20:02.020:1,-0.115,-0.14
02:20:02.024:1,-0.09,-0.15
02:20:02.028:1,-0.09,-0.13
02:20:02.032:1,-0.1,-0.14
02:20:02.036:1,-0.09,-0.155
02:20:02.040:1,-0.105,-0.15
02:20:02.044:1,-0.1,-0.16
02:20:02.048:1,-0.11,-0.16
02:20:02.052:1,-0.095,-0.175
02:20:02.056:1,-0.1,-0.175
02:20:02.060:1,-0.1,-0.18
02:20:02.064:1,-0.11,-0.155
02:20:02.068:1,-0.095,-0.135
02:20:02.072:1,-0.085,-0.115
02:20:02.076:1,-0.085,-0.095
02:20:02.080:1,-0.095,-0.065
02:20:02.084:1,-0.08,-0.045
02:20:02.088:1,-0.06,-0.005
02:20:02.092:1,-0.04,-0.025
02:20:02.096:1,-0.025,0.0
02:20:02.100:1,-0.015,0.0
02:20:02.104:1,-0.005,0.005
02:20:02.108:1,-0.005,0.0
02:20:02.112:1,-0.02,-0.015
02:20:02.116:1,-0.035,-0.065
02:20:02.120:1,-0.07,-0.135
02:20:02.124:1,-0.095,-0.18
02:20:02.128:1,-0.11,-0.19
02:20:02.132:1,-0.13,-0.21
02:20:02.136:1,-0.125,-0.195
02:20:02.140:1,-0.14,-0.175
02:20:02.144:1,-0.125,-0.175
02:20:02.148:1,-0.11,-0.16
02:20:02.152:1,-0.105,-0.185
02:20:02.156:1,-0.09,-0.21
02:20:02.160:1,-0.085,-0.215
02:20:02.164:1,-0.08,-0.22
02:20:02.168:1,-0.095,-0.25
02:20:02.172:1,-0.075,-0.245
02:20:02.176:1,-0.085,-0.27
02:20:02.180:1,-0.1,-0.28
02:20:02.184:1,-0.125,-0.275
02:20:02.188:1,-0.1,-0.26
02:20:02.192:1,-0.115,-0.26
02:20:02.196:1,-0.115,-0.275
02:20:02.200:1,-0.12,-0.265
02:20:02.204:1,-0.1,-0.26
02:20:02.208:1,-0.12,-0.265
02:20:02.212:1,-0.11,-0.275
02:20:02.216:1,-0.095,-0.255
02:20:02.220:1,-0.095,-0.25
02:20:02.224:1,-0.1,-0.255
02:20:02.228:1,-0.11,-0.25
02:20:02.232:1,-0.11,-0.24
02:20:02.236:1,-0.12,-0.245
02:20:02.240:1,-0.125,-0.18
02:20:02.244:1,-0.085,-0.05
02:20:02.248:1,-0.08,0.175
02:20:02.252:1,-0.065,0.405
02:20:02.256:1,-0.025,0.6
02:20:02.260:1,0.045,0.58
02:20:02.264:1,0.105,0.41
02:20:02.268:1,0.165,0.04
02:20:02.272:1,0.135,-0.46
02:20:02.276:1,0.03,-0.915
02:20:02.280:1,-0.06,-1.12
02:20:02.284:1,-0.23,-1.155
02:20:02.288:1,-0.405,-1.0
02:20:02.292:1,-0.475,-0.845
02:20:02.296:1,-0.48,-0.675
02:20:02.300:1,-0.445,-0.565
02:20:02.304:1,-0.4,-0.435
02:20:02.308:1,-0.32,-0.34
02:20:02.312:1,-0.245,-0.29
02:20:02.316:1,-0.175,-0.27
02:20:02.320:1,-0.14,-0.275
02:20:02.324:1,-0.12,-0.26
02:20:02.328:1,-0.12,-0.26
02:20:02.332:1,-0.125,-0.25
02:20:02.336:1,-0.12,-0.28
02:20:02.340:1,-0.115,-0.265
02:20:02.344:1,-0.13,-0.26
02:20:02.348:1,-0.125,-0.26
02:20:02.352:1,-0.12,-0.255
02:20:02.356:1,-0.125,-0.26
02:20:02.360:1,-0.12,-0.26
02:20:02.364:1,-0.13,-0.265
02:20:02.368:1,-0.11,-0.26
02:20:02.372:1,-0.115,-0.245
02:20:02.376:1,-0.12,-0.25
02:20:02.380:1,-0.125,-0.24
02:20:02.384:1,-0.125,-0.23
02:20:02.388:1,-0.135,-0.235
02:20:02.392:1,-0.12,-0.235
02:20:02.396:1,-0.13,-0.25
02:20:02.400:1,-0.13,-0.215
02:20:02.404:1,-0.125,-0.22
02:20:02.408:1,-0.115,-0.21
02:20:02.412:1,-0.125,-0.2
02:20:02.416:1,-0.125,-0.205
02:20:02.420:1,-0.135,-0.19
02:20:02.424:1,-0.135,-0.185
02:20:02.428:1,-0.115,-0.185
02:20:02.432:1,-0.115,-0.185
02:20:02.436:1,-0.12,-0.18
02:20:02.440:1,-0.13,-0.16
02:20:02.444:1,-0.12,-0.15
02:20:02.448:1,-0.125,-0.155
02:20:02.452:1,-0.135,-0.125
02:20:02.456:1,-0.125,-0.135
02:20:02.460:1,-0.125,-0.12
02:20:02.464:1,-0.13,-0.105
02:20:02.468:1,-0.115,-0.095
02:20:02.472:1,-0.125,-0.08
02:20:02.476:1,-0.11,-0.09
02:20:02.480:1,-0.105,-0.07
02:20:02.484:1,-0.1,-0.08
02:20:02.488:1,-0.11,-0.055
02:20:02.492:1,-0.11,-0.04
02:20:02.496:1,-0.095,-0.065
02:20:02.500:1,-0.085,-0.06
02:20:02.504:1,-0.095,-0.05
02:20:02.508:1,-0.105,-0.065
02:20:02.512:1,-0.09,-0.07
02:20:02.516:1,-0.12,-0.075
02:20:02.520:1,-0.11,-0.04
02:20:02.524:1,-0.09,-0.035
02:20:02.528:1,-0.06,0.0
02:20:02.532:1,-0.05,0.005
02:20:02.536:1,-0.03,0.0
02:20:02.540:1,-0.02,-0.015
02:20:02.544:1,-0.03,-0.03
02:20:02.548:1,-0.005,-0.03
02:20:02.552:1,0.005,-0.035
02:20:02.556:1,0.0,-0.045
02:20:02.560:1,0.0,-0.055
02:20:02.564:1,-0.02,-0.1
02:20:02.568:1,-0.04,-0.135
02:20:02.572:1,-0.09,-0.155
02:20:02.576:1,-0.115,-0.175
02:20:02.580:1,-0.13,-0.19
02:20:02.584:1,-0.15,-0.175
02:20:02.588:1,-0.15,-0.185
02:20:02.592:1,-0.145,-0.18
02:20:02.596:1,-0.14,-0.19
02:20:02.600:1,-0.135,-0.195
02:20:02.604:1,-0.16,-0.185
02:20:02.608:1,-0.145,-0.19
02:20:02.612:1,-0.155,-0.17
02:20:02.616:1,-0.17,-0.2
02:20:02.620:1,-0.14,-0.19
02:20:02.624:1,-0.145,-0.18
02:20:02.628:1,-0.135,-0.185
02:20:02.632:1,-0.145,-0.18
02:20:02.636:1,-0.15,-0.17
02:20:02.640:1,-0.145,-0.195
02:20:02.644:1,-0.15,-0.18
02:20:02.648:1,-0.155,-0.185
02:20:02.652:1,-0.14,-0.18
02:20:02.656:1,-0.15,-0.205
02:20:02.660:1,-0.12,-0.22
02:20:02.664:1,-0.125,-0.12
02:20:02.668:1,-0.155,0.07
02:20:02.672:1,-0.12,0.33
02:20:02.676:1,-0.09,0.575
02:20:02.680:1,-0.04,0.62
02:20:02.684:1,0.015,0.375
02:20:02.688:1,0.08,-0.05
02:20:02.692:1,0.05,-0.66
02:20:02.696:1,-0.02,-1.07
02:20:02.700:1,-0.17,-1.195
02:20:02.704:1,-0.31,-1.11
02:20:02.708:1,-0.46,-0.91
02:20:02.712:1,-0.515,-0.715
02:20:02.716:1,-0.495,-0.57
02:20:02.720:1,-0.45,-0.435
02:20:02.724:1,-0.395,-0.31
02:20:02.728:1,-0.3,-0.235
02:20:02.732:1,-0.215,-0.205
02:20:02.736:1,-0.16,-0.2
02:20:02.740:1,-0.14,-0.235
02:20:02.744:1,-0.135,-0.22
02:20:02.748:1,-0.15,-0.225
02:20:02.752:1,-0.16,-0.23
02:20:02.756:1,-0.16,-0.24
02:20:02.760:1,-0.14,-0.24
02:20:02.764:1,-0.15,-0.23
02:20:02.768:1,-0.16,-0.23
02:20:02.772:1,-0.14,-0.225
02:20:02.776:1,-0.145,-0.245
02:20:02.780:1,-0.145,-0.255
02:20:02.784:1,-0.14,-0.23
02:20:02.788:1,-0.155,-0.23
02:20:02.792:1,-0.145,-0.23
02:20:02.796:1,-0.16,-0.235
02:20:02.800:1,-0.155,-0.23
02:20:02.804:1,-0.16,-0.235
02:20:02.808:1,-0.155,-0.23
02:20:02.812:1,-0.155,-0.21
02:20:02.816:1,-0.15,-0.225
02:20:02.820:1,-0.15,-0.21
02:20:02.824:1,-0.13,-0.2
02:20:02.828:1,-0.14,-0.195
02:20:02.832:1,-0.14,-0.175
02:20:02.836:1,-0.16,-0.185
02:20:02.840:1,-0.135,-0.19
02:20:02.844:1,-0.15,-0.17
02:20:02.848:1,-0.135,-0.17
02:20:02.852:1,-0.14,-0.16
02:20:02.856:1,-0.115,-0.14
02:20:02.860:1,-0.13,-0.13
02:20:02.864:1,-0.14,-0.13
02:20:02.868:1,-0.13,-0.12
02:20:02.872:1,-0.135,-0.12
02:20:02.876:1,-0.13,-0.1
02:20:02.880:1,-0.115,-0.11
02:20:02.884:1,-0.12,-0.085
02:20:02.888:1,-0.115,-0.07
02:20:02.892:1,-0.145,-0.075
02:20:02.896:1,-0.12,-0.055
02:20:02.900:1,-0.105,-0.04
02:20:02.904:1,-0.12,-0.055
02:20:02.908:1,-0.1,-0.05
02:20:02.912:1,-0.13,-0.045
02:20:02.916:1,-0.12,-0.065
02:20:02.920:1,-0.11,-0.045
02:20:02.924:1,-0.115,-0.03
02:20:02.928:1,-0.115,-0.015
02:20:02.932:1,-0.105,-0.04
02:20:02.936:1,-0.11,-0.05
02:20:02.940:1,-0.105,-0.055
02:20:02.944:1,-0.065,-0.06
02:20:02.948:1,-0.08,-0.075
02:20:02.952:1,-0.08,-0.095
02:20:02.956:1,-0.1,-0.11
02:20:02.960:1,-0.1,-0.115
02:20:02.964:1,-0.08,-0.115
02:20:02.968:1,-0.095,-0.12
02:20:02.972:1,-0.105,-0.135
02:20:02.976:1,-0.08,-0.145
02:20:02.980:1,-0.095,-0.155
02:20:02.984:1,-0.095,-0.155
02:20:02.988:1,-0.085,-0.155
02:20:02.992:1,-0.095,-0.155
02:20:02.996:1,-0.09,-0.165
02:20:03.000:1,-0.105,-0.15
02:20:03.004:1,-0.1,-0.165
02:20:03.008:1,-0.115,-0.155
02:20:03.012:1,-0.1,-0.16
02:20:03.016:1,-0.09,-0.16
02:20:03.020:1,-0.1,-0.16
02:20:03.024:1,-0.09,-0.145
02:20:03.028:1,-0.09,-0.16
02:20:03.032:1,-0.095,-0.15
02:20:03.036:1,-0.115,-0.16
02:20:03.040:1,-0.1,-0.155
02:20:03.044:1,-0.09,-0.16
02:20:03.048:1,-0.105,-0.155
02:20:03.052:1,-0.1,-0.16
02:20:03.056:1,-0.075,-0.17
02:20:03.060:1,-0.105,-0.15
02:20:03.064:1,-0.08,-0.16
02:20:03.068:1,-0.08,-0.15
02:20:03.072:1,-0.09,-0.15
02:20:03.076:1,-0.085,-0.17
02:20:03.080:1,-0.095,-0.17
02:20:03.084:1,-0.09,-0.175
02:20:03.088:1,-0.095,-0.145
02:20:03.092:1,-0.095,-0.175
02:20:03.096:1,-0.085,-0.175
02:20:03.100:1,-0.08,-0.16
02:20:03.104:1,-0.095,-0.16
02:20:03.108:1,-0.09,-0.16
02:20:03.112:1,-0.1,-0.175
02:20:03.116:1,-0.1,-0.18
02:20:03.120:1,-0.08,-0.18
02:20:03.124:1,-0.09,-0.16
02:20:03.128:1,-0.085,-0.175
02:20:03.132:1,-0.1,-0.17
02:20:03.136:1,-0.095,-0.18
02:20:03.140:1,-0.095,-0.175
02:20:03.144:1,-0.085,-0.17
02:20:03.148:1,-0.095,-0.165
02:20:03.152:1,-0.095,-0.175
02:20:03.156:1,-0.1,-0.185
02:20:03.160:1,-0.095,-0.175
02:20:03.164:1,-0.09,-0.18
02:20:03.168:1,-0.085,-0.17
02:20:03.172:1,-0.1,-0.17
02:20:03.176:1,-0.09,-0.17
02:20:03.180:1,-0.09,-0.185
02:20:03.184:1,-0.095,-0.175
02:20:03.188:1,-0.085,-0.175
02:20:03.192:1,-0.075,-0.185
02:20:03.196:1,-0.105,-0.19
02:20:03.200:1,-0.095,-0.17
02:20:03.204:1,-0.1,-0.185
02:20:03.208:1,-0.095,-0.19
02:20:03.212:1,-0.095,-0.2
02:20:03.216:1,-0.1,-0.18
02:20:03.220:1,-0.1,-0.195
02:20:03.224:1,-0.09,-0.175
02:20:03.228:1,-0.09,-0.175
02:20:03.232:1,-0.08,-0.195
02:20:03.236:1,-0.095,-0.195
02:20:03.240:1,-0.1,-0.18
02:20:03.244:1,-0.1,-0.18
02:20:03.248:1,-0.1,-0.19
02:20:03.252:1,-0.11,-0.185
02:20:03.256:1,-0.09,-0.195
02:20:03.260:1,-0.08,-0.22
02:20:03.264:1,-0.1,-0.185
02:20:03.268:1,-0.105,-0.18
02:20:03.272:1,-0.1,-0.185
02:20:03.276:1,-0.09,-0.18
02:20:03.280:1,-0.1,-0.175
02:20:03.284:1,-0.11,-0.175
02:20:03.288:1,-0.1,-0.17
02:20:03.292:1,-0.105,-0.205
02:20:03.296:1,-0.12,-0.19
02:20:03.300:1,-0.12,-0.2
02:20:03.304:1,-0.09,-0.17
02:20:03.308:1,-0.09,-0.185
02:20:03.312:1,-0.1,-0.185
02:20:03.316:1,-0.1,-0.195
02:20:03.320:1,-0.1,-0.19
02:20:03.324:1,-0.1,-0.19
02:20:03.328:1,-0.09,-0.185
02:20:03.332:1,-0.105,-0.19
02:20:03.336:1,-0.09,-0.17
02:20:03.340:1,-0.095,-0.165
02:20:03.344:1,-0.085,-0.18
02:20:03.348:1,-0.115,-0.18
02:20:03.352:1,-0.1,-0.175
02:20:03.356:1,-0.11,-0.175
02:20:03.360:1,-0.095,-0.155
02:20:03.364:1,-0.105,-0.115
02:20:03.368:1,-0.1,-0.09
02:20:03.372:1,-0.085,-0.065
02:20:03.376:1,-0.06,-0.04
02:20:03.380:1,-0.055,-0.03
02:20:03.384:1,-0.04,-0.025
02:20:03.388:1,-0.025,-0.015
02:20:03.392:1,-0.025,0.0
02:20:03.396:1,-0.015,-0.02
02:20:03.400:1,-0.01,-0.02
02:20:03.404:1,-0.025,-0.07
02:20:03.408:1,-0.07,-0.105
02:20:03.412:1,-0.08,-0.165
02:20:03.416:1,-0.105,-0.2
02:20:03.420:1,-0.135,-0.21
02:20:03.424:1,-0.15,-0.195
02:20:03.428:1,-0.15,-0.185
02:20:03.432:1,-0.15,-0.16
02:20:03.436:1,-0.13,-0.19
02:20:03.440:1,-0.115,-0.2
02:20:03.444:1,-0.115,-0.2
02:20:03.448:1,-0.085,-0.205
02:20:03.452:1,-0.105,-0.225
02:20:03.456:1,-0.125,-0.235
02:20:03.460:1,-0.11,-0.26
02:20:03.464:1,-0.115,-0.25
02:20:03.468:1,-0.135,-0.275
02:20:03.472:1,-0.13,-0.27
02:20:03.476:1,-0.135,-0.295
02:20:03.480:1,-0.145,-0.29
02:20:03.484:1,-0.14,-0.29
02:20:03.488:1,-0.12,-0.285
02:20:03.492:1,-0.125,-0.27
02:20:03.496:1,-0.135,-0.29
02:20:03.500:1,-0.125,-0.29
02:20:03.504:1,-0.135,-0.3
02:20:03.508:1,-0.125,-0.27
02:20:03.512:1,-0.16,-0.275
02:20:03.516:1,-0.12,-0.3
02:20:03.520:1,-0.12,-0.28
02:20:03.524:1,-0.115,-0.255
02:20:03.528:1,-0.13,-0.205
02:20:03.532:1,-0.1,-0.095
02:20:03.536:1,-0.09,0.095
02:20:03.540:1,-0.09,0.335
02:20:03.544:1,-0.065,0.515
02:20:03.548:1,-0.005,0.485
02:20:03.552:1,0.07,0.275
02:20:03.556:1,0.13,-0.09
02:20:03.560:1,0.115,-0.49
02:20:03.564:1,0.09,-0.905
02:20:03.568:1,0.045,-1.125
02:20:03.572:1,-0.075,-1.16
02:20:03.576:1,-0.255,-1.075
02:20:03.580:1,-0.36,-0.925
02:20:03.584:1,-0.425,-0.775
02:20:03.588:1,-0.415,-0.645
02:20:03.592:1,-0.415,-0.535
02:20:03.596:1,-0.375,-0.445
02:20:03.600:1,-0.3,-0.355
02:20:03.604:1,-0.245,-0.305
02:20:03.608:1,-0.18,-0.295
02:20:03.612:1,-0.14,-0.315
02:20:03.616:1,-0.14,-0.305
02:20:03.620:1,-0.14,-0.31
02:20:03.624:1,-0.125,-0.305
02:20:03.628:1,-0.15,-0.29
02:20:03.632:1,-0.16,-0.3
02:20:03.636:1,-0.145,-0.295
02:20:03.640:1,-0.135,-0.285
02:20:03.644:1,-0.15,-0.285
02:20:03.648:1,-0.15,-0.285
02:20:03.652:1,-0.145,-0.305
02:20:03.656:1,-0.14,-0.305
02:20:03.660:1,-0.155,-0.3
02:20:03.664:1,-0.16,-0.28
02:20:03.668:1,-0.145,-0.29
02:20:03.672:1,-0.15,-0.28
02:20:03.676:1,-0.15,-0.285
02:20:03.680:1,-0.145,-0.28
02:20:03.684:1,-0.15,-0.26
02:20:03.688:1,-0.145,-0.265
02:20:03.692:1,-0.145,-0.275
02:20:03.696:1,-0.125,-0.275
02:20:03.700:1,-0.145,-0.245
02:20:03.704:1,-0.135,-0.24
02:20:03.708:1,-0.14,-0.235
02:20:03.712:1,-0.14,-0.245
02:20:03.716:1,-0.145,-0.245
02:20:03.720:1,-0.15,-0.24
02:20:03.724:1,-0.125,-0.225
02:20:03.728:1,-0.145,-0.215
02:20:03.732:1,-0.145,-0.205
02:20:03.736:1,-0.135,-0.21
02:20:03.740:1,-0.135,-0.2
02:20:03.744:1,-0.14,-0.195
02:20:03.748:1,-0.125,-0.185
02:20:03.752:1,-0.14,-0.19
02:20:03.756:1,-0.135,-0.18
02:20:03.760:1,-0.135,-0.17
02:20:03.764:1,-0.105,-0.16
02:20:03.768:1,-0.135,-0.155
02:20:03.772:1,-0.13,-0.17
02:20:03.776:1,-0.12,-0.17
02:20:03.780:1,-0.12,-0.16
02:20:03.784:1,-0.125,-0.145
02:20:03.788:1,-0.11,-0.155
02:20:03.792:1,-0.105,-0.175
02:20:03.796:1,-0.1,-0.16
02:20:03.800:1,-0.105,-0.165
02:20:03.804:1,-0.11,-0.15
02:20:03.808:1,-0.1,-0.15
02:20:03.812:1,-0.095,-0.155
02:20:03.816:1,-0.1,-0.145
02:20:03.820:1,-0.1,-0.135
02:20:03.824:1,-0.1,-0.12
02:20:03.828:1,-0.095,-0.125
02:20:03.832:1,-0.095,-0.12
02:20:03.836:1,-0.11,-0.12
02:20:03.840:1,-0.1,-0.115
02:20:03.844:1,-0.11,-0.105
02:20:03.848:1,-0.105,-0.11
02:20:03.852:1,-0.105,-0.115
02:20:03.856:1,-0.095,-0.11
02:20:03.860:1,-0.085,-0.13
02:20:03.864:1,-0.08,-0.125
02:20:03.868:1,-0.07,-0.13
02:20:03.872:1,-0.09,-0.14
02:20:03.876:1,-0.07,-0.145
02:20:03.880:1,-0.085,-0.135
02:20:03.884:1,-0.09,-0.13
02:20:03.888:1,-0.075,-0.145
02:20:03.892:1,-0.08,-0.14
02:20:03.896:1,-0.09,-0.15
02:20:03.900:1,-0.075,-0.16
02:20:03.904:1,-0.085,-0.15
02:20:03.908:1,-0.095,-0.135
02:20:03.912:1,-0.075,-0.17
02:20:03.916:1,-0.075,-0.135
02:20:03.920:1,-0.07,-0.145
02:20:03.924:1,-0.075,-0.145
02:20:03.928:1,-0.07,-0.125
02:20:03.932:1,-0.06,-0.12
02:20:03.936:1,-0.06,-0.13
02:20:03.940:1,-0.07,-0.125
02:20:03.944:1,-0.06,-0.12
02:20:03.948:1,-0.07,-0.12
02:20:03.952:1,-0.08,-0.135
02:20:03.956:1,-0.065,-0.12
02:20:03.960:1,-0.065,-0.125
02:20:03.964:1,-0.075,-0.13
02:20:03.968:1,-0.075,-0.115
02:20:03.972:1,-0.08,-0.115
02:20:03.976:1,-0.08,-0.125
02:20:03.980:1,-0.075,-0.12
02:20:03.984:1,-0.065,-0.12
02:20:03.988:1,-0.08,-0.11
02:20:03.992:1,-0.095,-0.14
02:20:03.996:1,-0.075,-0.14
02:20:04.000:1,-0.065,-0.145
02:20:04.004:1,-0.085,-0.145
02:20:04.008:1,-0.065,-0.145
02:20:04.012:1,-0.085,-0.135
02:20:04.016:1,-0.075,-0.15
02:20:04.020:1,-0.08,-0.155
02:20:04.024:1,-0.07,-0.16
02:20:04.028:1,-0.08,-0.145
02:20:04.032:1,-0.09,-0.16
02:20:04.036:1,-0.065,-0.16
02:20:04.040:1,-0.075,-0.165
02:20:04.044:1,-0.08,-0.15
02:20:04.048:1,-0.085,-0.16
02:20:04.052:1,-0.09,-0.145
02:20:04.056:1,-0.08,-0.115
02:20:04.060:1,-0.085,-0.1
02:20:04.064:1,-0.06,-0.08
02:20:04.068:1,-0.055,-0.04
02:20:04.072:1,-0.04,-0.015
02:20:04.076:1,-0.04,-0.01
02:20:04.080:1,-0.005,0.005
02:20:04.084:1,0.0,0.02
02:20:04.088:1,0.035,0.02
02:20:04.092:1,0.005,0.015
02:20:04.096:1,-0.005,-0.015
02:20:04.100:1,-0.02,-0.07
02:20:04.104:1,-0.02,-0.105
02:20:04.108:1,-0.075,-0.15
02:20:04.112:1,-0.09,-0.185
02:20:04.116:1,-0.115,-0.185
02:20:04.120:1,-0.115,-0.175
02:20:04.124:1,-0.125,-0.15
02:20:04.128:1,-0.105,-0.155
02:20:04.132:1,-0.11,-0.15
02:20:04.136:1,-0.085,-0.165
02:20:04.140:1,-0.09,-0.18
02:20:04.144:1,-0.075,-0.2
02:20:04.148:1,-0.075,-0.195
02:20:04.152:1,-0.08,-0.21
02:20:04.156:1,-0.075,-0.235
02:20:04.160:1,-0.075,-0.24
02:20:04.164:1,-0.085,-0.24
02:20:04.168:1,-0.08,-0.24
02:20:04.172:1,-0.09,-0.235
02:20:04.176:1,-0.095,-0.24
02:20:04.180:1,-0.09,-0.24
02:20:04.184:1,-0.08,-0.23
02:20:04.188:1,-0.085,-0.24
02:20:04.192:1,-0.085,-0.24
02:20:04.196:1,-0.08,-0.245
02:20:04.200:1,-0.065,-0.255
02:20:04.204:1,-0.075,-0.225
02:20:04.208:1,-0.085,-0.235
02:20:04.212:1,-0.08,-0.22
02:20:04.216:1,-0.085,-0.25
02:20:04.220:1,-0.08,-0.225
02:20:04.224:1,-0.085,-0.185
02:20:04.228:1,-0.075,-0.08
02:20:04.232:1,-0.06,0.095
02:20:04.236:1,-0.02,0.33
02:20:04.240:1,-0.01,0.535
02:20:04.244:1,0.035,0.635
02:20:04.248:1,0.105,0.525
02:20:04.252:1,0.18,0.245
02:20:04.256:1,0.195,-0.22
02:20:04.260:1,0.105,-0.725
02:20:04.264:1,0.03,-1.015
02:20:04.268:1,-0.12,-1.085
02:20:04.272:1,-0.315,-1.0
02:20:04.276:1,-0.43,-0.82
02:20:04.280:1,-0.45,-0.66
02:20:04.284:1,-0.42,-0.51
02:20:04.288:1,-0.38,-0.415
02:20:04.292:1,-0.315,-0.32
02:20:04.296:1,-0.205,-0.285
02:20:04.300:1,-0.155,-0.245
02:20:04.304:1,-0.11,-0.24
02:20:04.308:1,-0.09,-0.235
02:20:04.312:1,-0.085,-0.26
02:20:04.316:1,-0.11,-0.235
02:20:04.320:1,-0.11,-0.24
02:20:04.324:1,-0.09,-0.235
02:20:04.328:1,-0.1,-0.24
02:20:04.332:1,-0.115,-0.245
02:20:04.336:1,-0.1,-0.25
02:20:04.340:1,-0.105,-0.23
02:20:04.344:1,-0.095,-0.21
02:20:04.348:1,-0.095,-0.22
02:20:04.352:1,-0.085,-0.225
02:20:04.356:1,-0.095,-0.21
02:20:04.360:1,-0.11,-0.23
02:20:04.364:1,-0.1,-0.225
02:20:04.368:1,-0.095,-0.21
02:20:04.372:1,-0.095,-0.21
02:20:04.376:1,-0.09,-0.225
02:20:04.380:1,-0.09,-0.215
02:20:04.384:1,-0.11,-0.205
02:20:04.388:1,-0.105,-0.2
02:20:04.392:1,-0.09,-0.195
02:20:04.396:1,-0.11,-0.19
02:20:04.400:1,-0.1,-0.19
02:20:04.404:1,-0.095,-0.175
02:20:04.408:1,-0.11,-0.165
02:20:04.412:1,-0.11,-0.155
02:20:04.416:1,-0.105,-0.18
02:20:04.420:1,-0.1,-0.15
02:20:04.424:1,-0.115,-0.13
02:20:04.428:1,-0.11,-0.14
02:20:04.432:1,-0.1,-0.135
02:20:04.436:1,-0.1,-0.125
02:20:04.440:1,-0.095,-0.12
02:20:04.444:1,-0.085,-0.11
02:20:04.448:1,-0.095,-0.09
02:20:04.452:1,-0.11,-0.1
02:20:04.456:1,-0.09,-0.095
02:20:04.460:1,-0.09,-0.09
02:20:04.464:1,-0.1,-0.08
02:20:04.468:1,-0.11,-0.08
02:20:04.472:1,-0.085,-0.09
02:20:04.476:1,-0.09,-0.08
02:20:04.480:1,-0.1,-0.07
02:20:04.484:1,-0.095,-0.065
02:20:04.488:1,-0.085,-0.075
02:20:04.492:1,-0.095,-0.06
02:20:04.496:1,-0.105,-0.065
02:20:04.500:1,-0.08,-0.06
02:20:04.504:1,-0.12,-0.04
02:20:04.508:1,-0.08,-0.025
02:20:04.512:1,-0.08,-0.035
02:20:04.516:1,-0.08,-0.035
02:20:04.520:1,-0.09,-0.03
02:20:04.524:1,-0.075,-0.025
02:20:04.528:1,-0.085,-0.025
02:20:04.532:1,-0.09,-0.035
02:20:04.536:1,-0.085,-0.055
02:20:04.540:1,-0.08,-0.06
02:20:04.544:1,-0.075,-0.06
02:20:04.548:1,-0.065,-0.075
02:20:04.552:1,-0.07,-0.09
02:20:04.556:1,-0.06,-0.1
02:20:04.560:1,-0.08,-0.105
02:20:04.564:1,-0.075,-0.11
02:20:04.568:1,-0.085,-0.12
02:20:04.572:1,-0.08,-0.12
02:20:04.576:1,-0.075,-0.115
02:20:04.580:1,-0.07,-0.105
02:20:04.584:1,-0.075,-0.1
02:20:04.588:1,-0.08,-0.125
02:20:04.592:1,-0.085,-0.13
02:20:04.596:1,-0.075,-0.115
02:20:04.600:1,-0.085,-0.115
02:20:04.604:1,-0.07,-0.11
02:20:04.608:1,-0.09,-0.12
02:20:04.612:1,-0.09,-0.12
02:20:04.616:1,-0.085,-0.12
02:20:04.620:1,-0.075,-0.115
02:20:04.624:1,-0.095,-0.105
02:20:04.628:1,-0.085,-0.115
02:20:04.632:1,-0.08,-0.125
02:20:04.636:1,-0.075,-0.11
02:20:04.640:1,-0.085,-0.125
02:20:04.644:1,-0.07,-0.105
02:20:04.648:1,-0.085,-0.11
02:20:04.652:1,-0.085,-0.11
02:20:04.656:1,-0.1,-0.13
02:20:04.660:1,-0.085,-0.13
02:20:04.664:1,-0.085,-0.13
02:20:04.668:1,-0.075,-0.13
02:20:04.672:1,-0.09,-0.14
02:20:04.676:1,-0.09,-0.135
02:20:04.680:1,-0.115,-0.125
02:20:04.684:1,-0.09,-0.14
02:20:04.688:1,-0.095,-0.12
02:20:04.692:1,-0.095,-0.14
02:20:04.696:1,-0.105,-0.14
02:20:04.700:1,-0.105,-0.15
02:20:04.704:1,-0.095,-0.145
02:20:04.708:1,-0.12,-0.13
02:20:04.712:1,-0.125,-0.15
02:20:04.716:1,-0.1,-0.15
02:20:04.720:1,-0.09,-0.14
02:20:04.724:1,-0.095,-0.16
02:20:04.728:1,-0.105,-0.145
02:20:04.732:1,-0.105,-0.145
02:20:04.736:1,-0.11,-0.155
02:20:04.740:1,-0.105,-0.15
02:20:04.744:1,-0.09,-0.12
02:20:04.748:1,-0.1,-0.075
02:20:04.752:1,-0.1,-0.065
02:20:04.756:1,-0.07,-0.05
02:20:04.760:1,-0.08,-0.02
02:20:04.764:1,-0.055,0.0
02:20:04.768:1,-0.055,0.0
02:20:04.772:1,-0.025,0.005
02:20:04.776:1,-0.035,0.015
02:20:04.780:1,-0.04,-0.01
02:20:04.784:1,-0.035,-0.005
02:20:04.788:1,-0.04,-0.04
02:20:04.792:1,-0.07,-0.085
02:20:04.796:1,-0.095,-0.17
02:20:04.800:1,-0.125,-0.205
02:20:04.804:1,-0.11,-0.195
02:20:04.808:1,-0.145,-0.17
02:20:04.812:1,-0.145,-0.17
02:20:04.816:1,-0.155,-0.14
02:20:04.820:1,-0.15,-0.145
02:20:04.824:1,-0.11,-0.155
02:20:04.828:1,-0.095,-0.16
02:20:04.832:1,-0.085,-0.185
02:20:04.836:1,-0.085,-0.195
02:20:04.840:1,-0.095,-0.205
02:20:04.844:1,-0.1,-0.21
02:20:04.848:1,-0.1,-0.225
02:20:04.852:1,-0.095,-0.255
02:20:04.856:1,-0.115,-0.245
02:20:04.860:1,-0.12,-0.235
02:20:04.864:1,-0.13,-0.225
02:20:04.868:1,-0.12,-0.235
02:20:04.872:1,-0.135,-0.235
02:20:04.876:1,-0.11,-0.245
02:20:04.880:1,-0.125,-0.235
02:20:04.884:1,-0.12,-0.235
02:20:04.888:1,-0.125,-0.225
02:20:04.892:1,-0.11,-0.235
02:20:04.896:1,-0.1,-0.25
02:20:04.900:1,-0.105,-0.235
02:20:04.904:1,-0.11,-0.22
02:20:04.908:1,-0.1,-0.215
02:20:04.912:1,-0.105,-0.17
02:20:04.916:1,-0.09,-0.06
02:20:04.920:1,-0.07,0.15
02:20:04.924:1,-0.04,0.395
02:20:04.928:1,-0.02,0.58
02:20:04.932:1,0.03,0.61
02:20:04.936:1,0.11,0.445
02:20:04.940:1,0.15,0.11
02:20:04.944:1,0.135,-0.395
02:20:04.948:1,0.085,-0.875
02:20:04.952:1,-0.02,-1.1
02:20:04.956:1,-0.19,-1.155
02:20:04.960:1,-0.36,-1.04
02:20:04.964:1,-0.44,-0.84
02:20:04.968:1,-0.48,-0.675
02:20:04.972:1,-0.445,-0.55
02:20:04.976:1,-0.375,-0.46
02:20:04.980:1,-0.31,-0.345
02:20:04.984:1,-0.23,-0.265
02:20:04.988:1,-0.18,-0.26
02:20:04.992:1,-0.13,-0.24
02:20:04.996:1,-0.105,-0.26
02:20:05.000:1,-0.1,-0.275
02:20:05.004:1,-0.105,-0.255
02:20:05.008:1,-0.11,-0.26
02:20:05.012:1,-0.105,-0.27
02:20:05.016:1,-0.105,-0.27
02:20:05.020:1,-0.095,-0.26
02:20:05.024:1,-0.11,-0.255
02:20:05.028:1,-0.095,-0.24
02:20:05.032:1,-0.1,-0.25
02:20:05.036:1,-0.1,-0.255
02:20:05.040:1,-0.11,-0.255
02:20:05.044:1,-0.105,-0.245
02:20:05.048:1,-0.11,-0.26
02:20:05.052:1,-0.105,-0.255
02:20:05.056:1,-0.1,-0.235
02:20:05.060:1,-0.095,-0.23
02:20:05.064:1,-0.095,-0.215
02:20:05.068:1,-0.1,-0.225
02:20:05.072:1,-0.105,-0.225
02:20:05.076:1,-0.09,-0.23
02:20:05.080:1,-0.095,-0.215
02:20:05.084:1,-0.09,-0.195
02:20:05.088:1,-0.11,-0.195
02:20:05.092:1,-0.095,-0.205
02:20:05.096:1,-0.095,-0.195
02:20:05.100:1,-0.085,-0.175
02:20:05.104:1,-0.1,-0.165
02:20:05.108:1,-0.1,-0.155
02:20:05.112:1,-0.09,-0.165
02:20:05.116:1,-0.1,-0.145
02:20:05.120:1,-0.1,-0.135
02:20:05.124:1,-0.075,-0.13
02:20:05.128:1,-0.11,-0.12
02:20:05.132:1,-0.095,-0.12
02:20:05.136:1,-0.12,-0.115
02:20:05.140:1,-0.09,-0.1
02:20:05.144:1,-0.08,-0.085
02:20:05.148:1,-0.075,-0.07
02:20:05.152:1,-0.095,-0.065
02:20:05.156:1,-0.085,-0.06
02:20:05.160:1,-0.1,-0.065
02:20:05.164:1,-0.09,-0.05
02:20:05.168:1,-0.08,-0.045
02:20:05.172:1,-0.09,-0.05
02:20:05.176:1,-0.07,-0.06
02:20:05.180:1,-0.08,-0.05
02:20:05.184:1,-0.075,-0.025
02:20:05.188:1,-0.075,-0.035
02:20:05.192:1,-0.085,-0.03
02:20:05.196:1,-0.065,-0.005
02:20:05.200:1,-0.08,0.0
02:20:05.204:1,-0.08,-0.01
02:20:05.208:1,-0.08,-0.005
02:20:05.212:1,-0.06,0.0
02:20:05.216:1,-0.075,-0.01
02:20:05.220:1,-0.035,-0.02
02:20:05.224:1,-0.06,-0.035
02:20:05.228:1,-0.06,-0.05
02:20:05.232:1,-0.05,-0.065
02:20:05.236:1,-0.055,-0.075
02:20:05.240:1,-0.07,-0.08
02:20:05.244:1,-0.055,-0.105
02:20:05.248:1,-0.05,-0.095
02:20:05.252:1,-0.065,-0.1
02:20:05.256:1,-0.07,-0.1
02:20:05.260:1,-0.085,-0.11
02:20:05.264:1,-0.06,-0.11
02:20:05.268:1,-0.075,-0.12
02:20:05.272:1,-0.08,-0.12
02:20:05.276:1,-0.065,-0.125
02:20:05.280:1,-0.075,-0.115
02:20:05.284:1,-0.07,-0.105
02:20:05.288:1,-0.065,-0.115
02:20:05.292:1,-0.06,-0.12
02:20:05.296:1,-0.085,-0.115
02:20:05.300:1,-0.055,-0.105
02:20:05.304:1,-0.075,-0.105
02:20:05.308:1,-0.075,-0.105
02:20:05.312:1,-0.07,-0.115
02:20:05.316:1,-0.07,-0.1
02:20:05.320:1,-0.04,-0.105
02:20:05.324:1,-0.055,-0.1
02:20:05.328:1,-0.075,-0.115
02:20:05.332:1,-0.06,-0.115
02:20:05.336:1,-0.075,-0.115
02:20:05.340:1,-0.07,-0.1
02:20:05.344:1,-0.065,-0.095
02:20:05.348:1,-0.06,-0.13
02:20:05.352:1,-0.07,-0.12
02:20:05.356:1,-0.065,-0.125
02:20:05.360:1,-0.075,-0.12
02:20:05.364:1,-0.09,-0.125
02:20:05.368:1,-0.075,-0.14
02:20:05.372:1,-0.06,-0.13
02:20:05.376:1,-0.09,-0.12
02:20:05.380:1,-0.08,-0.13
02:20:05.384:1,-0.075,-0.135
02:20:05.388:1,-0.075,-0.13
02:20:05.392:1,-0.08,-0.14
02:20:05.396:1,-0.075,-0.145
02:20:05.400:1,-0.08,-0.125
02:20:05.404:1,-0.08,-0.13
02:20:05.408:1,-0.08,-0.135
02:20:05.412:1,-0.075,-0.155
02:20:05.416:1,-0.065,-0.145
02:20:05.420:1,-0.085,-0.145
02:20:05.424:1,-0.08,-0.115
02:20:05.428:1,-0.06,-0.085
02:20:05.432:1,-0.075,-0.07
02:20:05.436:1,-0.055,-0.065
02:20:05.440:1,-0.035,0.0
02:20:05.444:1,-0.04,0.005
02:20:05.448:1,-0.03,0.01
02:20:05.452:1,-0.01,0.0
02:20:05.456:1,-0.02,0.02
02:20:05.460:1,0.0,0.04
02:20:05.464:1,-0.015,0.025
02:20:05.468:1,-0.02,0.005
02:20:05.472:1,-0.035,-0.035
02:20:05.476:1,-0.05,-0.09
02:20:05.480:1,-0.075,-0.14
02:20:05.484:1,-0.105,-0.18
02:20:05.488:1,-0.115,-0.195
02:20:05.492:1,-0.135,-0.185
02:20:05.496:1,-0.14,-0.165
02:20:05.500:1,-0.13,-0.135
02:20:05.504:1,-0.115,-0.16
02:20:05.508:1,-0.115,-0.17
02:20:05.512:1,-0.1,-0.18
02:20:05.516:1,-0.1,-0.22
02:20:05.520:1,-0.085,-0.215
02:20:05.524:1,-0.11,-0.205
02:20:05.528:1,-0.11,-0.225
02:20:05.532:1,-0.09,-0.235
02:20:05.536:1,-0.1,-0.24
02:20:05.540:1,-0.115,-0.25
02:20:05.544:1,-0.11,-0.25
02:20:05.548:1,-0.12,-0.24
02:20:05.552:1,-0.13,-0.265
02:20:05.556:1,-0.1,-0.275
02:20:05.560:1,-0.12,-0.265
02:20:05.564:1,-0.115,-0.26
02:20:05.568:1,-0.105,-0.25
02:20:05.572:1,-0.115,-0.25
02:20:05.576:1,-0.115,-0.25
02:20:05.580:1,-0.105,-0.255
02:20:05.584:1,-0.1,-0.24
02:20:05.588:1,-0.11,-0.25
02:20:05.592:1,-0.095,-0.25
02:20:05.596:1,-0.1,-0.245
02:20:05.600:1,-0.105,-0.185
02:20:05.604:1,-0.105,-0.085
02:20:05.608:1,-0.095,0.1
02:20:05.612:1,-0.085,0.315
02:20:05.616:1,-0.045,0.49
02:20:05.620:1,0.0,0.47
02:20:05.624:1,0.075,0.285
02:20:05.628:1,0.125,-0.075
02:20:05.632:1,0.11,-0.55
02:20:05.636:1,0.085,-0.955
02:20:05.640:1,0.025,-1.145
02:20:05.644:1,-0.06,-1.155
02:20:05.648:1,-0.21,-1.035
02:20:05.652:1,-0.32,-0.88
02:20:05.656:1,-0.375,-0.74
02:20:05.660:1,-0.395,-0.615
02:20:05.664:1,-0.38,-0.505
02:20:05.668:1,-0.365,-0.39
02:20:05.672:1,-0.285,-0.31
02:20:05.676:1,-0.22,-0.275
02:20:05.680:1,-0.16,-0.26
02:20:05.684:1,-0.14,-0.27
02:20:05.688:1,-0.145,-0.27
02:20:05.692:1,-0.135,-0.28
02:20:05.696:1,-0.12,-0.285
02:20:05.700:1,-0.13,-0.265
02:20:05.704:1,-0.13,-0.26
02:20:05.708:1,-0.115,-0.28
02:20:05.712:1,-0.13,-0.26
02:20:05.716:1,-0.12,-0.265
02:20:05.720:1,-0.115,-0.26
02:20:05.724:1,-0.12,-0.25
02:20:05.728:1,-0.13,-0.27
02:20:05.732:1,-0.11,-0.27
02:20:05.736:1,-0.135,-0.26
02:20:05.740:1,-0.125,-0.26
02:20:05.744:1,-0.135,-0.25
02:20:05.748:1,-0.13,-0.255
02:20:05.752:1,-0.14,-0.25
02:20:05.756:1,-0.14,-0.245
02:20:05.760:1,-0.145,-0.24
02:20:05.764:1,-0.125,-0.24
02:20:05.768:1,-0.14,-0.225
02:20:05.772:1,-0.145,-0.225
02:20:05.776:1,-0.135,-0.225
02:20:05.780:1,-0.135,-0.205
02:20:05.784:1,-0.15,-0.19
02:20:05.788:1,-0.14,-0.205
02:20:05.792:1,-0.12,-0.2
02:20:05.796:1,-0.125,-0.2
02:20:05.800:1,-0.12,-0.18
02:20:05.804:1,-0.12,-0.185
02:20:05.808:1,-0.12,-0.16
02:20:05.812:1,-0.14,-0.16
02:20:05.816:1,-0.12,-0.165
02:20:05.820:1,-0.105,-0.145
02:20:05.824:1,-0.11,-0.14
02:20:05.828:1,-0.09,-0.135
02:20:05.832:1,-0.115,-0.135
02:20:05.836:1,-0.115,-0.13
02:20:05.840:1,-0.11,-0.115
02:20:05.844:1,-0.1,-0.135
02:20:05.848:1,-0.09,-0.11
02:20:05.852:1,-0.105,-0.115
02:20:05.856:1,-0.1,-0.11
02:20:05.860:1,-0.11,-0.11
02:20:05.864:1,-0.13,-0.1
02:20:05.868:1,-0.125,-0.11
02:20:05.872:1,-0.105,-0.12
02:20:05.876:1,-0.11,-0.105
02:20:05.880:1,-0.115,-0.085
02:20:05.884:1,-0.115,-0.085
02:20:05.888:1,-0.095,-0.08
02:20:05.892:1,-0.085,-0.09
02:20:05.896:1,-0.07,-0.075
02:20:05.900:1,-0.09,-0.085
02:20:05.904:1,-0.08,-0.075
02:20:05.908:1,-0.08,-0.08
02:20:05.912:1,-0.07,-0.095
02:20:05.916:1,-0.065,-0.105
02:20:05.920:1,-0.09,-0.095
02:20:05.924:1,-0.06,-0.105
02:20:05.928:1,-0.06,-0.115
02:20:05.932:1,-0.05,-0.14
02:20:05.936:1,-0.06,-0.125
02:20:05.940:1,-0.05,-0.14
02:20:05.944:1,-0.055,-0.13
02:20:05.948:1,-0.06,-0.13
02:20:05.952:1,-0.08,-0.14
02:20:05.956:1,-0.055,-0.15
02:20:05.960:1,-0.085,-0.13
02:20:05.964:1,-0.085,-0.125
02:20:05.968:1,-0.045,-0.14
02:20:05.972:1,-0.06,-0.14
02:20:05.976:1,-0.04,-0.14
02:20:05.980:1,-0.055,-0.13
02:20:05.984:1,-0.055,-0.115
02:20:05.988:1,-0.06,-0.125
02:20:05.992:1,-0.05,-0.125
02:20:05.996:1,-0.055,-0.135
02:20:06.000:1,-0.08,-0.1
02:20:06.004:1,-0.055,-0.1
02:20:06.008:1,-0.06,-0.12
02:20:06.012:1,-0.055,-0.105
02:20:06.016:1,-0.065,-0.115
02:20:06.020:1,-0.065,-0.115
02:20:06.024:1,-0.06,-0.115
02:20:06.028:1,-0.06,-0.1
02:20:06.032:1,-0.075,-0.11
02:20:06.036:1,-0.06,-0.115
02:20:06.040:1,-0.055,-0.1
02:20:06.044:1,-0.055,-0.12
02:20:06.048:1,-0.07,-0.105
02:20:06.052:1,-0.075,-0.1
02:20:06.056:1,-0.065,-0.115
02:20:06.060:1,-0.075,-0.12
02:20:06.064:1,-0.05,-0.11
02:20:06.068:1,-0.075,-0.11
02:20:06.072:1,-0.07,-0.125
02:20:06.076:1,-0.06,-0.125
02:20:06.080:1,-0.065,-0.12
02:20:06.084:1,-0.065,-0.125
02:20:06.088:1,-0.05,-0.13
02:20:06.092:1,-0.08,-0.13
02:20:06.096:1,-0.08,-0.12
02:20:06.100:1,-0.06,-0.11
02:20:06.104:1,-0.065,-0.1
02:20:06.108:1,-0.06,-0.085
02:20:06.112:1,-0.065,-0.06
02:20:06.116:1,-0.035,-0.035
02:20:06.120:1,-0.025,-0.005
02:20:06.124:1,-0.01,0.02
02:20:06.128:1,-0.02,0.015
02:20:06.132:1,-0.005,0.025
02:20:06.136:1,0.0,0.04
02:20:06.140:1,0.025,0.05
02:20:06.144:1,0.02,0.05
02:20:06.148:1,0.02,0.025
02:20:06.152:1,-0.005,-0.02
02:20:06.156:1,-0.02,-0.075
02:20:06.160:1,-0.04,-0.12
02:20:06.164:1,-0.075,-0.15
02:20:06.168:1,-0.1,-0.15
02:20:06.172:1,-0.12,-0.16
02:20:06.176:1,-0.125,-0.135
02:20:06.180:1,-0.12,-0.115
02:20:06.184:1,-0.1,-0.115
02:20:06.188:1,-0.09,-0.125
02:20:06.192:1,-0.085,-0.15
02:20:06.196:1,-0.05,-0.18
02:20:06.200:1,-0.04,-0.16
02:20:06.204:1,-0.055,-0.185
02:20:06.208:1,-0.055,-0.205
02:20:06.212:1,-0.05,-0.215
02:20:06.216:1,-0.06,-0.235
02:20:06.220:1,-0.085,-0.225
02:20:06.224:1,-0.08,-0.21
02:20:06.228:1,-0.085,-0.225
02:20:06.232:1,-0.08,-0.22
02:20:06.236:1,-0.065,-0.23
02:20:06.240:1,-0.07,-0.21
02:20:06.244:1,-0.085,-0.2
02:20:06.248:1,-0.085,-0.22
02:20:06.252:1,-0.08,-0.22
02:20:06.256:1,-0.07,-0.21
02:20:06.260:1,-0.08,-0.19
02:20:06.264:1,-0.08,-0.205
02:20:06.268:1,-0.085,-0.205
02:20:06.272:1,-0.07,-0.205
02:20:06.276:1,-0.075,-0.14
02:20:06.280:1,-0.06,-0.055
02:20:06.284:1,-0.025,0.145
02:20:06.288:1,-0.035,0.365
02:20:06.292:1,-0.005,0.58
02:20:06.296:1,0.07,0.64
02:20:06.300:1,0.13,0.515
02:20:06.304:1,0.18,0.2
02:20:06.308:1,0.17,-0.305
02:20:06.312:1,0.11,-0.785
02:20:06.316:1,0.04,-1.035
02:20:06.320:1,-0.135,-1.105
02:20:06.324:1,-0.3,-1.0
02:20:06.328:1,-0.415,-0.805
02:20:06.332:1,-0.435,-0.665
02:20:06.336:1,-0.395,-0.51
02:20:06.340:1,-0.37,-0.41
02:20:06.344:1,-0.285,-0.295
02:20:06.348:1,-0.23,-0.22
02:20:06.352:1,-0.155,-0.22
02:20:06.356:1,-0.115,-0.2
02:20:06.360:1,-0.08,-0.21
02:20:06.364:1,-0.09,-0.205
02:20:06.368:1,-0.095,-0.22
02:20:06.372:1,-0.08,-0.21
02:20:06.376:1,-0.085,-0.215
02:20:06.380:1,-0.095,-0.205
02:20:06.384:1,-0.085,-0.21
02:20:06.388:1,-0.09,-0.22
02:20:06.392:1,-0.08,-0.215
02:20:06.396:1,-0.07,-0.21
02:20:06.400:1,-0.1,-0.205
02:20:06.404:1,-0.08,-0.2
02:20:06.408:1,-0.08,-0.205
02:20:06.412:1,-0.08,-0.2
02:20:06.416:1,-0.07,-0.2
02:20:06.420:1,-0.065,-0.195
02:20:06.424:1,-0.075,-0.195
02:20:06.428:1,-0.085,-0.22
02:20:06.432:1,-0.065,-0.185
02:20:06.436:1,-0.065,-0.185
02:20:06.440:1,-0.09,-0.175
02:20:06.444:1,-0.08,-0.185
02:20:06.448:1,-0.085,-0.175
02:20:06.452:1,-0.105,-0.175
02:20:06.456:1,-0.09,-0.155
02:20:06.460:1,-0.095,-0.13
02:20:06.464:1,-0.1,-0.125
02:20:06.468:1,-0.09,-0.145
02:20:06.472:1,-0.08,-0.135
02:20:06.476:1,-0.1,-0.125
02:20:06.480:1,-0.1,-0.12
02:20:06.484:1,-0.08,-0.105
02:20:06.488:1,-0.085,-0.11
02:20:06.492:1,-0.09,-0.115
02:20:06.496:1,-0.085,-0.095
02:20:06.500:1,-0.08,-0.075
02:20:06.504:1,-0.08,-0.065
02:20:06.508:1,-0.095,-0.07
02:20:06.512:1,-0.07,-0.07
02:20:06.516:1,-0.09,-0.065
02:20:06.520:1,-0.08,-0.045
02:20:06.524:1,-0.08,-0.055
02:20:06.528:1,-0.08,-0.065
02:20:06.532:1,-0.095,-0.055
02:20:06.536:1,-0.085,-0.055
02:20:06.540:1,-0.1,-0.04
02:20:06.544:1,-0.09,-0.035
02:20:06.548:1,-0.085,-0.04
02:20:06.552:1,-0.075,-0.05
02:20:06.556:1,-0.09,-0.025
02:20:06.560:1,-0.08,-0.005
02:20:06.564:1,-0.09,-0.005
02:20:06.568:1,-0.08,-0.005
02:20:06.572:1,-0.085,-0.005
02:20:06.576:1,-0.075,0.0
02:20:06.580:1,-0.09,0.0
02:20:06.584:1,-0.07,0.0
02:20:06.588:1,-0.06,0.0
02:20:06.592:1,-0.04,-0.015
02:20:06.596:1,-0.035,-0.02
02:20:06.600:1,-0.02,-0.035
02:20:06.604:1,-0.01,-0.055
02:20:06.608:1,-0.015,-0.08
02:20:06.612:1,-0.055,-0.095
02:20:06.616:1,-0.055,-0.095
02:20:06.620:1,-0.06,-0.1
02:20:06.624:1,-0.06,-0.085
02:20:06.628:1,-0.05,-0.09
02:20:06.632:1,-0.015,-0.09
02:20:06.636:1,0.0,-0.075
02:20:06.640:1,0.015,-0.08
02:20:06.644:1,0.015,-0.08
02:20:06.648:1,0.015,-0.095
02:20:06.652:1,0.015,-0.105
02:20:06.656:1,0.035,-0.095
02:20:06.660:1,0.025,-0.08
02:20:06.664:1,0.035,-0.095
02:20:06.668:1,0.005,-0.13
02:20:06.672:1,-0.02,-0.16
02:20:06.676:1,-0.065,-0.18
02:20:06.680:1,-0.105,-0.185
02:20:06.684:1,-0.105,-0.18
02:20:06.688:1,-0.08,-0.17
02:20:06.692:1,-0.085,-0.17
02:20:06.696:1,-0.1,-0.18
02:20:06.700:1,-0.075,-0.17
02:20:06.704:1,-0.09,-0.175
02:20:06.708:1,-0.09,-0.19
02:20:06.712:1,-0.1,-0.19
02:20:06.716:1,-0.09,-0.195
02:20:06.720:1,-0.1,-0.185
02:20:06.724:1,-0.115,-0.185
02:20:06.728:1,-0.1,-0.195
02:20:06.732:1,-0.125,-0.19
02:20:06.736:1,-0.105,-0.2
02:20:06.740:1,-0.105,-0.22
02:20:06.744:1,-0.1,-0.25
02:20:06.748:1,-0.115,-0.19
02:20:06.752:1,-0.115,-0.06
02:20:06.756:1,-0.09,0.175
02:20:06.760:1,-0.06,0.42
02:20:06.764:1,-0.01,0.55
02:20:06.768:1,0.055,0.44
02:20:06.772:1,0.145,0.165
02:20:06.776:1,0.16,-0.24
02:20:06.780:1,0.115,-0.745
02:20:06.784:1,0.04,-1.085
02:20:06.788:1,-0.05,-1.165
02:20:06.792:1,-0.22,-1.075
02:20:06.796:1,-0.385,-0.895
02:20:06.800:1,-0.455,-0.725
02:20:06.804:1,-0.42,-0.57
02:20:06.808:1,-0.4,-0.455
02:20:06.812:1,-0.32,-0.335
02:20:06.816:1,-0.26,-0.26
02:20:06.820:1,-0.21,-0.22
02:20:06.824:1,-0.145,-0.22
02:20:06.828:1,-0.12,-0.235
02:20:06.832:1,-0.125,-0.225
02:20:06.836:1,-0.115,-0.245
02:20:06.840:1,-0.105,-0.235
02:20:06.844:1,-0.115,-0.23
02:20:06.848:1,-0.11,-0.24
02:20:06.852:1,-0.11,-0.255
02:20:06.856:1,-0.13,-0.225
02:20:06.860:1,-0.115,-0.22
02:20:06.864:1,-0.125,-0.235
02:20:06.868:1,-0.11,-0.23
02:20:06.872:1,-0.115,-0.25
02:20:06.876:1,-0.125,-0.25
02:20:06.880:1,-0.11,-0.24
02:20:06.884:1,-0.105,-0.23
02:20:06.888:1,-0.105,-0.24
02:20:06.892:1,-0.125,-0.245
02:20:06.896:1,-0.11,-0.22
02:20:06.900:1,-0.125,-0.23
02:20:06.904:1,-0.1,-0.23
02:20:06.908:1,-0.115,-0.23
02:20:06.912:1,-0.105,-0.22
02:20:06.916:1,-0.125,-0.215
02:20:06.920:1,-0.105,-0.205
02:20:06.924:1,-0.12,-0.21
02:20:06.928:1,-0.12,-0.21
02:20:06.932:1,-0.13,-0.21
02:20:06.936:1,-0.11,-0.19
02:20:06.940:1,-0.13,-0.175
02:20:06.944:1,-0.12,-0.185
02:20:06.948:1,-0.11,-0.175
02:20:06.952:1,-0.12,-0.175
02:20:06.956:1,-0.12,-0.155
02:20:06.960:1,-0.1,-0.14
02:20:06.964:1,-0.115,-0.13
02:20:06.968:1,-0.11,-0.125
02:20:06.972:1,-0.105,-0.14
02:20:06.976:1,-0.095,-0.12
02:20:06.980:1,-0.12,-0.105
02:20:06.984:1,-0.115,-0.115
02:20:06.988:1,-0.105,-0.115
02:20:06.992:1,-0.115,-0.12
02:20:06.996:1,-0.1,-0.11
02:20:07.000:1,-0.11,-0.095
02:20:07.004:1,-0.1,-0.085
02:20:07.008:1,-0.085,-0.085
02:20:07.012:1,-0.105,-0.095
02:20:07.016:1,-0.1,-0.075
02:20:07.020:1,-0.1,-0.07
02:20:07.024:1,-0.1,-0.065
02:20:07.028:1,-0.095,-0.07
02:20:07.032:1,-0.095,-0.07
02:20:07.036:1,-0.1,-0.08
02:20:07.040:1,-0.08,-0.085
02:20:07.044:1,-0.08,-0.075
02:20:07.048:1,-0.08,-0.095
02:20:07.052:1,-0.08,-0.11
02:20:07.056:1,-0.06,-0.12
02:20:07.060:1,-0.07,-0.13
02:20:07.064:1,-0.075,-0.14
02:20:07.068:1,-0.05,-0.16
02:20:07.072:1,-0.06,-0.145
02:20:07.076:1,-0.075,-0.145
02:20:07.080:1,-0.04,-0.145
02:20:07.084:1,-0.055,-0.15
02:20:07.088:1,-0.06,-0.16
02:20:07.092:1,-0.065,-0.175
02:20:07.096:1,-0.065,-0.17
02:20:07.100:1,-0.06,-0.155
02:20:07.104:1,-0.065,-0.145
02:20:07.108:1,-0.07,-0.17
02:20:07.112:1,-0.075,-0.14
02:20:07.116:1,-0.08,-0.145
02:20:07.120:1,-0.065,-0.15
02:20:07.124:1,-0.065,-0.16
02:20:07.128:1,-0.075,-0.145
02:20:07.132:1,-0.075,-0.17
02:20:07.136:1,-0.08,-0.14
02:20:07.140:1,-0.07,-0.15
02:20:07.144:1,-0.065,-0.145
02:20:07.148:1,-0.055,-0.155
02:20:07.152:1,-0.08,-0.15
02:20:07.156:1,-0.075,-0.14
02:20:07.160:1,-0.06,-0.135
02:20:07.164:1,-0.065,-0.135
02:20:07.168:1,-0.08,-0.155
02:20:07.172:1,-0.055,-0.155
02:20:07.176:1,-0.05,-0.165
02:20:07.180:1,-0.07,-0.16
02:20:07.184:1,-0.07,-0.17
02:20:07.188:1,-0.065,-0.17
02:20:07.192:1,-0.085,-0.17
02:20:07.196:1,-0.105,-0.145
02:20:07.200:1,-0.065,-0.155
02:20:07.204:1,-0.055,-0.16
02:20:07.208:1,-0.06,-0.15
02:20:07.212:1,-0.065,-0.16
02:20:07.216:1,-0.075,-0.175
02:20:07.220:1,-0.085,-0.17
02:20:07.224:1,-0.075,-0.155
02:20:07.228:1,-0.08,-0.165
02:20:07.232:1,-0.08,-0.175
02:20:07.236:1,-0.075,-0.18
02:20:07.240:1,-0.08,-0.165
02:20:07.244:1,-0.085,-0.175
02:20:07.248:1,-0.08,-0.185
02:20:07.252:1,-0.09,-0.17
02:20:07.256:1,-0.09,-0.18
02:20:07.260:1,-0.08,-0.18
02:20:07.264:1,-0.075,-0.165
02:20:07.268:1,-0.065,-0.19
02:20:07.272:1,-0.07,-0.16
02:20:07.276:1,-0.085,-0.18
02:20:07.280:1,-0.075,-0.17
02:20:07.284:1,-0.065,-0.18
02:20:07.288:1,-0.085,-0.185
02:20:07.292:1,-0.08,-0.18
02:20:07.296:1,-0.075,-0.205
02:20:07.300:1,-0.07,-0.18
02:20:07.304:1,-0.075,-0.175
02:20:07.308:1,-0.07,-0.185
02:20:07.312:1,-0.09,-0.205
02:20:07.316:1,-0.085,-0.195
02:20:07.320:1,-0.06,-0.18
02:20:07.324:1,-0.07,-0.19
02:20:07.328:1,-0.065,-0.2
02:20:07.332:1,-0.07,-0.185
02:20:07.336:1,-0.08,-0.185
02:20:07.340:1,-0.075,-0.18
02:20:07.344:1,-0.085,-0.18
02:20:07.348:1,-0.08,-0.195
02:20:07.352:1,-0.09,-0.195
02:20:07.356:1,-0.075,-0.19
02:20:07.360:1,-0.095,-0.195
02:20:07.364:1,-0.1,-0.185
02:20:07.368:1,-0.085,-0.175
02:20:07.372:1,-0.09,-0.19
02:20:07.376:1,-0.105,-0.185
02:20:07.380:1,-0.07,-0.18
02:20:07.384:1,-0.05,-0.175
02:20:07.388:1,-0.075,-0.18
02:20:07.392:1,-0.075,-0.2
02:20:07.396:1,-0.09,-0.2
02:20:07.400:1,-0.08,-0.19
02:20:07.404:1,-0.065,-0.17
02:20:07.408:1,-0.065,-0.17
02:20:07.412:1,-0.07,-0.155
02:20:07.416:1,-0.085,-0.12
02:20:07.420:1,-0.08,-0.09
02:20:07.424:1,-0.05,-0.075
02:20:07.428:1,-0.05,-0.04
02:20:07.432:1,-0.03,-0.045
02:20:07.436:1,-0.015,-0.025
02:20:07.440:1,0.0,-0.015
02:20:07.444:1,-0.01,0.0
02:20:07.448:1,0.015,-0.01
02:20:07.452:1,0.02,-0.03
02:20:07.456:1,0.0,-0.045
02:20:07.460:1,-0.01,-0.09
02:20:07.464:1,-0.035,-0.125
02:20:07.468:1,-0.07,-0.175
02:20:07.472:1,-0.105,-0.205
02:20:07.476:1,-0.11,-0.23
02:20:07.480:1,-0.11,-0.195
02:20:07.484:1,-0.115,-0.16
02:20:07.488:1,-0.125,-0.175
02:20:07.492:1,-0.11,-0.175
02:20:07.496:1,-0.105,-0.19
02:20:07.500:1,-0.075,-0.205
02:20:07.504:1,-0.065,-0.22
02:20:07.508:1,-0.095,-0.22
02:20:07.512:1,-0.08,-0.255
02:20:07.516:1,-0.09,-0.27
02:20:07.520:1,-0.095,-0.265
02:20:07.524:1,-0.09,-0.255
02:20:07.528:1,-0.13,-0.29
02:20:07.532:1,-0.115,-0.28
02:20:07.536:1,-0.125,-0.285
02:20:07.540:1,-0.145,-0.28
02:20:07.544:1,-0.105,-0.285
02:20:07.548:1,-0.13,-0.285
02:20:07.552:1,-0.12,-0.295
02:20:07.556:1,-0.13,-0.285
02:20:07.560:1,-0.115,-0.275
02:20:07.564:1,-0.115,-0.26
02:20:07.568:1,-0.115,-0.28
02:20:07.572:1,-0.12,-0.265
02:20:07.576:1,-0.12,-0.26
02:20:07.580:1,-0.115,-0.235
02:20:07.584:1,-0.1,-0.15
02:20:07.588:1,-0.095,0.01
02:20:07.592:1,-0.085,0.24
02:20:07.596:1,-0.065,0.445
02:20:07.600:1,-0.01,0.57
02:20:07.604:1,0.055,0.47
02:20:07.608:1,0.13,0.215
02:20:07.612:1,0.14,-0.21
02:20:07.616:1,0.135,-0.68
02:20:07.620:1,0.075,-1.0
02:20:07.624:1,0.005,-1.125
02:20:07.628:1,-0.17,-1.115
02:20:07.632:1,-0.32,-0.945
02:20:07.636:1,-0.405,-0.81
02:20:07.640:1,-0.43,-0.68
02:20:07.644:1,-0.41,-0.57
02:20:07.648:1,-0.375,-0.485
02:20:07.652:1,-0.315,-0.385
02:20:07.656:1,-0.26,-0.305
02:20:07.660:1,-0.205,-0.285
02:20:07.664:1,-0.145,-0.29
02:20:07.668:1,-0.14,-0.28
02:20:07.672:1,-0.135,-0.285
02:20:07.676:1,-0.13,-0.31
02:20:07.680:1,-0.135,-0.29
02:20:07.684:1,-0.11,-0.28
02:20:07.688:1,-0.14,-0.305
02:20:07.692:1,-0.12,-0.29
02:20:07.696:1,-0.13,-0.285
02:20:07.700:1,-0.13,-0.265
02:20:07.704:1,-0.135,-0.28
02:20:07.708:1,-0.115,-0.285
02:20:07.712:1,-0.13,-0.28
02:20:07.716:1,-0.13,-0.275
02:20:07.720:1,-0.125,-0.265
02:20:07.724:1,-0.14,-0.275
02:20:07.728:1,-0.16,-0.26
02:20:07.732:1,-0.145,-0.275
02:20:07.736:1,-0.15,-0.27
02:20:07.740:1,-0.125,-0.26
02:20:07.744:1,-0.13,-0.255
02:20:07.748:1,-0.13,-0.255
02:20:07.752:1,-0.12,-0.255
02:20:07.756:1,-0.135,-0.235
02:20:07.760:1,-0.145,-0.24
02:20:07.764:1,-0.125,-0.21
02:20:07.768:1,-0.135,-0.22
02:20:07.772:1,-0.13,-0.215
02:20:07.776:1,-0.12,-0.205
02:20:07.780:1,-0.12,-0.18
02:20:07.784:1,-0.125,-0.185
02:20:07.788:1,-0.12,-0.2
02:20:07.792:1,-0.11,-0.19
02:20:07.796:1,-0.115,-0.155
02:20:07.800:1,-0.115,-0.15
02:20:07.804:1,-0.09,-0.145
02:20:07.808:1,-0.1,-0.14
02:20:07.812:1,-0.11,-0.14
02:20:07.816:1,-0.11,-0.125
02:20:07.820:1,-0.105,-0.115
02:20:07.824:1,-0.11,-0.12
02:20:07.828:1,-0.1,-0.13
02:20:07.832:1,-0.085,-0.12
02:20:07.836:1,-0.09,-0.09
02:20:07.840:1,-0.09,-0.105
02:20:07.844:1,-0.08,-0.105
02:20:07.848:1,-0.085,-0.11
02:20:07.852:1,-0.105,-0.105
02:20:07.856:1,-0.09,-0.1
02:20:07.860:1,-0.08,-0.085
02:20:07.864:1,-0.075,-0.08
02:20:07.868:1,-0.09,-0.085
02:20:07.872:1,-0.08,-0.085
02:20:07.876:1,-0.105,-0.075
02:20:07.880:1,-0.1,-0.07
02:20:07.884:1,-0.085,-0.065
02:20:07.888:1,-0.1,-0.07
02:20:07.892:1,-0.1,-0.075
02:20:07.896:1,-0.09,-0.075
02:20:07.900:1,-0.06,-0.08
02:20:07.904:1,-0.075,-0.095
02:20:07.908:1,-0.08,-0.1
02:20:07.912:1,-0.075,-0.135
02:20:07.916:1,-0.07,-0.125
02:20:07.920:1,-0.095,-0.12
02:20:07.924:1,-0.085,-0.125
02:20:07.928:1,-0.08,-0.135
02:20:07.932:1,-0.085,-0.135
02:20:07.936:1,-0.08,-0.16
02:20:07.940:1,-0.075,-0.155
02:20:07.944:1,-0.075,-0.16
02:20:07.948:1,-0.09,-0.145
02:20:07.952:1,-0.08,-0.16
02:20:07.956:1,-0.075,-0.145
02:20:07.960:1,-0.095,-0.145
02:20:07.964:1,-0.06,-0.145
02:20:07.968:1,-0.055,-0.145
02:20:07.972:1,-0.08,-0.145
02:20:07.976:1,-0.09,-0.15
02:20:07.980:1,-0.07,-0.13
02:20:07.984:1,-0.08,-0.135
02:20:07.988:1,-0.08,-0.14
02:20:07.992:1,-0.08,-0.14
02:20:07.996:1,-0.08,-0.125
02:20:08.000:1,-0.065,-0.12
02:20:08.004:1,-0.08,-0.115
02:20:08.008:1,-0.075,-0.125
02:20:08.012:1,-0.06,-0.13
02:20:08.016:1,-0.065,-0.12
02:20:08.020:1,-0.065,-0.115
02:20:08.024:1,-0.06,-0.13
02:20:08.028:1,-0.065,-0.13
02:20:08.032:1,-0.085,-0.13
02:20:08.036:1,-0.085,-0.14
02:20:08.040:1,-0.09,-0.13
02:20:08.044:1,-0.08,-0.13
02:20:08.048:1,-0.07,-0.13
02:20:08.052:1,-0.065,-0.135
02:20:08.056:1,-0.075,-0.15
02:20:08.060:1,-0.08,-0.135
02:20:08.064:1,-0.07,-0.14
02:20:08.068:1,-0.075,-0.155
02:20:08.072:1,-0.09,-0.155
02:20:08.076:1,-0.08,-0.135
02:20:08.080:1,-0.095,-0.16
02:20:08.084:1,-0.095,-0.15
02:20:08.088:1,-0.07,-0.16
02:20:08.092:1,-0.07,-0.14
02:20:08.096:1,-0.085,-0.13
02:20:08.100:1,-0.085,-0.12
02:20:08.104:1,-0.065,-0.095
02:20:08.108:1,-0.085,-0.07
02:20:08.112:1,-0.06,-0.055
02:20:08.116:1,-0.05,-0.02
02:20:08.120:1,-0.03,-0.015
02:20:08.124:1,-0.01,-0.005
02:20:08.128:1,-0.005,-0.005
02:20:08.132:1,0.0,0.0
02:20:08.136:1,-0.005,0.005
02:20:08.140:1,-0.01,0.0
02:20:08.144:1,-0.02,-0.055
02:20:08.148:1,-0.05,-0.135
02:20:08.152:1,-0.065,-0.19
02:20:08.156:1,-0.11,-0.205
02:20:08.160:1,-0.12,-0.2
02:20:08.164:1,-0.13,-0.185
02:20:08.168:1,-0.12,-0.18
02:20:08.172:1,-0.145,-0.17
02:20:08.176:1,-0.13,-0.16
02:20:08.180:1,-0.1,-0.165
02:20:08.184:1,-0.095,-0.18
02:20:08.188:1,-0.09,-0.215
02:20:08.192:1,-0.085,-0.205
02:20:08.196:1,-0.075,-0.23
02:20:08.200:1,-0.07,-0.235
02:20:08.204:1,-0.095,-0.245
02:20:08.208:1,-0.08,-0.27
02:20:08.212:1,-0.1,-0.265
02:20:08.216:1,-0.105,-0.26
02:20:08.220:1,-0.12,-0.26
02:20:08.224:1,-0.09,-0.245
02:20:08.228:1,-0.105,-0.245
02:20:08.232:1,-0.1,-0.25
02:20:08.236:1,-0.115,-0.255
02:20:08.240:1,-0.095,-0.25
02:20:08.244:1,-0.11,-0.26
02:20:08.248:1,-0.125,-0.275
02:20:08.252:1,-0.09,-0.265
02:20:08.256:1,-0.09,-0.235
02:20:08.260:1,-0.11,-0.24
02:20:08.264:1,-0.1,-0.23
02:20:08.268:1,-0.1,-0.19
02:20:08.272:1,-0.09,-0.07
02:20:08.276:1,-0.05,0.135
02:20:08.280:1,-0.04,0.375
02:20:08.284:1,-0.01,0.58
02:20:08.288:1,0.035,0.635
02:20:08.292:1,0.115,0.495
02:20:08.296:1,0.18,0.17
02:20:08.300:1,0.16,-0.285
02:20:08.304:1,0.09,-0.795
02:20:08.308:1,-0.015,-1.09
02:20:08.312:1,-0.19,-1.155
02:20:08.316:1,-0.36,-1.065
02:20:08.320:1,-0.455,-0.865
02:20:08.324:1,-0.46,-0.7
02:20:08.328:1,-0.46,-0.56
02:20:08.332:1,-0.4,-0.43
02:20:08.336:1,-0.32,-0.345
02:20:08.340:1,-0.25,-0.285
02:20:08.344:1,-0.175,-0.285
02:20:08.348:1,-0.12,-0.28
02:20:08.352:1,-0.1,-0.265
02:20:08.356:1,-0.11,-0.265
02:20:08.360:1,-0.12,-0.265
02:20:08.364:1,-0.11,-0.255
02:20:08.368:1,-0.105,-0.25
02:20:08.372:1,-0.095,-0.26
02:20:08.376:1,-0.1,-0.25
02:20:08.380:1,-0.085,-0.255
02:20:08.384:1,-0.105,-0.255
02:20:08.388:1,-0.105,-0.26
02:20:08.392:1,-0.095,-0.265
02:20:08.396:1,-0.105,-0.24
02:20:08.400:1,-0.11,-0.25
02:20:08.404:1,-0.11,-0.25
02:20:08.408:1,-0.08,-0.235
02:20:08.412:1,-0.115,-0.255
02:20:08.416:1,-0.115,-0.24
02:20:08.420:1,-0.105,-0.23
02:20:08.424:1,-0.105,-0.23
02:20:08.428:1,-0.095,-0.235
02:20:08.432:1,-0.095,-0.225
02:20:08.436:1,-0.115,-0.205
02:20:08.440:1,-0.115,-0.2
02:20:08.444:1,-0.08,-0.215
02:20:08.448:1,-0.085,-0.21
02:20:08.452:1,-0.115,-0.21
02:20:08.456:1,-0.11,-0.19
02:20:08.460:1,-0.09,-0.175
02:20:08.464:1,-0.115,-0.17
02:20:08.468:1,-0.11,-0.17
02:20:08.472:1,-0.105,-0.185
02:20:08.476:1,-0.095,-0.135
02:20:08.480:1,-0.085,-0.125
02:20:08.484:1,-0.09,-0.13
02:20:08.488:1,-0.08,-0.12
02:20:08.492:1,-0.11,-0.12
02:20:08.496:1,-0.11,-0.095
02:20:08.500:1,-0.095,-0.1
02:20:08.504:1,-0.1,-0.08
02:20:08.508:1,-0.075,-0.07
02:20:08.512:1,-0.075,-0.065
02:20:08.516:1,-0.06,-0.04
02:20:08.520:1,-0.075,-0.035
02:20:08.524:1,-0.06,-0.045
02:20:08.528:1,-0.05,-0.05
02:20:08.532:1,-0.055,-0.06
02:20:08.536:1,-0.065,-0.075
02:20:08.540:1,-0.08,-0.05
02:20:08.544:1,-0.085,-0.055
02:20:08.548:1,-0.075,-0.035
02:20:08.552:1,-0.08,-0.025
02:20:08.556:1,-0.04,0.0
02:20:08.560:1,-0.02,0.0
02:20:08.564:1,-0.01,0.0
02:20:08.568:1,0.005,-0.005
02:20:08.572:1,0.02,-0.03
02:20:08.576:1,0.005,-0.055
02:20:08.580:1,0.035,-0.07
02:20:08.584:1,0.03,-0.05
02:20:08.588:1,0.045,-0.07
02:20:08.592:1,0.025,-0.1
02:20:08.596:1,-0.015,-0.135
02:20:08.600:1,-0.035,-0.16
02:20:08.604:1,-0.05,-0.18
02:20:08.608:1,-0.11,-0.195
02:20:08.612:1,-0.11,-0.19
02:20:08.616:1,-0.12,-0.185
02:20:08.620:1,-0.095,-0.195
02:20:08.624:1,-0.1,-0.19
02:20:08.628:1,-0.12,-0.2
02:20:08.632:1,-0.1,-0.2
02:20:08.636:1,-0.11,-0.195
02:20:08.640:1,-0.115,-0.2
02:20:08.644:1,-0.115,-0.19
02:20:08.648:1,-0.105,-0.215
02:20:08.652:1,-0.135,-0.2
02:20:08.656:1,-0.125,-0.2
02:20:08.660:1,-0.12,-0.205
02:20:08.664:1,-0.11,-0.19
02:20:08.668:1,-0.11,-0.205
02:20:08.672:1,-0.125,-0.215
02:20:08.676:1,-0.12,-0.2
02:20:08.680:1,-0.125,-0.23
02:20:08.684:1,-0.11,-0.205
02:20:08.688:1,-0.12,-0.145
02:20:08.692:1,-0.12,0.045
02:20:08.696:1,-0.115,0.31
02:20:08.700:1,-0.065,0.575
02:20:08.704:1,-0.03,0.625
02:20:08.708:1,0.065,0.395
02:20:08.712:1,0.125,-0.055
02:20:08.716:1,0.095,-0.635
02:20:08.720:1,0.035,-1.085
02:20:08.724:1,-0.09,-1.26
02:20:08.728:1,-0.245,-1.195
02:20:08.732:1,-0.385,-0.97
02:20:08.736:1,-0.485,-0.775
02:20:08.740:1,-0.465,-0.625
02:20:08.744:1,-0.42,-0.485
02:20:08.748:1,-0.38,-0.36
02:20:08.752:1,-0.31,-0.28
02:20:08.756:1,-0.22,-0.24
02:20:08.760:1,-0.16,-0.245
02:20:08.764:1,-0.115,-0.245
02:20:08.768:1,-0.12,-0.265
02:20:08.772:1,-0.125,-0.255
02:20:08.776:1,-0.14,-0.25
02:20:08.780:1,-0.13,-0.26
02:20:08.784:1,-0.125,-0.25
02:20:08.788:1,-0.115,-0.24
02:20:08.792:1,-0.13,-0.26
02:20:08.796:1,-0.11,-0.255
02:20:08.800:1,-0.125,-0.255
02:20:08.804:1,-0.12,-0.265
02:20:08.808:1,-0.13,-0.27
02:20:08.812:1,-0.12,-0.27
02:20:08.816:1,-0.12,-0.265
02:20:08.820:1,-0.12,-0.265
02:20:08.824:1,-0.11,-0.26
02:20:08.828:1,-0.12,-0.265
02:20:08.832:1,-0.12,-0.26
02:20:08.836:1,-0.12,-0.26
02:20:08.840:1,-0.12,-0.255
02:20:08.844:1,-0.11,-0.255
02:20:08.848:1,-0.135,-0.26
02:20:08.852:1,-0.1,-0.25
02:20:08.856:1,-0.095,-0.245
02:20:08.860:1,-0.125,-0.23
02:20:08.864:1,-0.11,-0.22
02:20:08.868:1,-0.1,-0.22
02:20:08.872:1,-0.115,-0.195
02:20:08.876:1,-0.11,-0.185
02:20:08.880:1,-0.095,-0.185
02:20:08.884:1,-0.085,-0.16
02:20:08.888:1,-0.095,-0.175
02:20:08.892:1,-0.105,-0.155
02:20:08.896:1,-0.1,-0.15
02:20:08.900:1,-0.105,-0.14
02:20:08.904:1,-0.12,-0.145
02:20:08.908:1,-0.105,-0.13
02:20:08.912:1,-0.11,-0.115
02:20:08.916:1,-0.1,-0.1
02:20:08.920:1,-0.095,-0.095
02:20:08.924:1,-0.085,-0.1
02:20:08.928:1,-0.105,-0.1
02:20:08.932:1,-0.09,-0.075
02:20:08.936:1,-0.1,-0.095
02:20:08.940:1,-0.075,-0.07
02:20:08.944:1,-0.09,-0.07
02:20:08.948:1,-0.085,-0.07
02:20:08.952:1,-0.085,-0.055
02:20:08.956:1,-0.07,-0.07
02:20:08.960:1,-0.09,-0.07
02:20:08.964:1,-0.08,-0.05
02:20:08.968:1,-0.09,-0.075
02:20:08.972:1,-0.085,-0.095
02:20:08.976:1,-0.07,-0.11
02:20:08.980:1,-0.08,-0.11
02:20:08.984:1,-0.065,-0.135
02:20:08.988:1,-0.06,-0.14
02:20:08.992:1,-0.06,-0.145
02:20:08.996:1,-0.065,-0.16
02:20:09.000:1,-0.06,-0.165
02:20:09.004:1,-0.06,-0.17
02:20:09.008:1,-0.065,-0.18
02:20:09.012:1,-0.065,-0.18
02:20:09.016:1,-0.07,-0.17
02:20:09.020:1,-0.09,-0.16
02:20:09.024:1,-0.06,-0.17
02:20:09.028:1,-0.055,-0.18
02:20:09.032:1,-0.07,-0.18
02:20:09.036:1,-0.075,-0.2
02:20:09.040:1,-0.07,-0.185
02:20:09.044:1,-0.08,-0.18
02:20:09.048:1,-0.095,-0.185
02:20:09.052:1,-0.065,-0.19
02:20:09.056:1,-0.065,-0.195
02:20:09.060:1,-0.08,-0.185
02:20:09.064:1,-0.075,-0.195
02:20:09.068:1,-0.07,-0.185
02:20:09.072:1,-0.065,-0.19
02:20:09.076:1,-0.05,-0.175
02:20:09.080:1,-0.065,-0.185
02:20:09.084:1,-0.055,-0.19
02:20:09.088:1,-0.06,-0.185
02:20:09.092:1,-0.065,-0.2
02:20:09.096:1,-0.075,-0.2
02:20:09.100:1,-0.07,-0.185
02:20:09.104:1,-0.08,-0.2
02:20:09.108:1,-0.07,-0.19
02:20:09.112:1,-0.08,-0.205
02:20:09.116:1,-0.075,-0.21
02:20:09.120:1,-0.06,-0.195
02:20:09.124:1,-0.07,-0.2
02:20:09.128:1,-0.065,-0.21
02:20:09.132:1,-0.065,-0.2
02:20:09.136:1,-0.07,-0.225
02:20:09.140:1,-0.06,-0.195
02:20:09.144:1,-0.065,-0.2
02:20:09.148:1,-0.05,-0.22
02:20:09.152:1,-0.07,-0.215
02:20:09.156:1,-0.08,-0.22
02:20:09.160:1,-0.075,-0.225
02:20:09.164:1,-0.07,-0.22
02:20:09.168:1,-0.075,-0.21
02:20:09.172:1,-0.075,-0.22
02:20:09.176:1,-0.07,-0.21
02:20:09.180:1,-0.075,-0.215
02:20:09.184:1,-0.075,-0.215
02:20:09.188:1,-0.065,-0.215
02:20:09.192:1,-0.06,-0.215
02:20:09.196:1,-0.065,-0.215
02:20:09.200:1,-0.075,-0.205
02:20:09.204:1,-0.06,-0.205
02:20:09.208:1,-0.065,-0.225
02:20:09.212:1,-0.06,-0.2
02:20:09.216:1,-0.065,-0.225
02:20:09.220:1,-0.06,-0.21
02:20:09.224:1,-0.06,-0.21
02:20:09.228:1,-0.06,-0.215
02:20:09.232:1,-0.06,-0.23
02:20:09.236:1,-0.04,-0.215
02:20:09.240:1,-0.05,-0.21
02:20:09.244:1,-0.055,-0.23
02:20:09.248:1,-0.055,-0.225
02:20:09.252:1,-0.05,-0.225
02:20:09.256:1,-0.07,-0.22
02:20:09.260:1,-0.06,-0.215
02:20:09.264:1,-0.045,-0.2
02:20:09.268:1,-0.06,-0.205
02:20:09.272:1,-0.06,-0.225
02:20:09.276:1,-0.065,-0.215
02:20:09.280:1,-0.055,-0.21
02:20:09.284:1,-0.05,-0.205
02:20:09.288:1,-0.065,-0.225
02:20:09.292:1,-0.055,-0.235
02:20:09.296:1,-0.05,-0.23
02:20:09.300:1,-0.06,-0.225
02:20:09.304:1,-0.055,-0.215
02:20:09.308:1,-0.06,-0.215
02:20:09.312:1,-0.08,-0.225
02:20:09.316:1,-0.06,-0.21
02:20:09.320:1,-0.065,-0.21
02:20:09.324:1,-0.06,-0.21
02:20:09.328:1,-0.07,-0.225
02:20:09.332:1,-0.05,-0.235
02:20:09.336:1,-0.07,-0.22
02:20:09.340:1,-0.085,-0.215
02:20:09.344:1,-0.05,-0.23
02:20:09.348:1,-0.075,-0.225
02:20:09.352:1,-0.07,-0.235
02:20:09.356:1,-0.055,-0.24
02:20:09.360:1,-0.065,-0.225
02:20:09.364:1,-0.08,-0.21
02:20:09.368:1,-0.075,-0.21
02:20:09.372:1,-0.08,-0.19
02:20:09.376:1,-0.075,-0.155
02:20:09.380:1,-0.075,-0.13
02:20:09.384:1,-0.045,-0.105
02:20:09.388:1,-0.03,-0.08
02:20:09.392:1,-0.02,-0.07
02:20:09.396:1,0.0,-0.075
02:20:09.400:1,0.0,-0.055
02:20:09.404:1,0.01,-0.025
02:20:09.408:1,0.015,-0.05
02:20:09.412:1,0.03,-0.075
02:20:09.416:1,0.01,-0.115
02:20:09.420:1,-0.02,-0.17
02:20:09.424:1,-0.055,-0.22
02:20:09.428:1,-0.07,-0.255
02:20:09.432:1,-0.11,-0.26
02:20:09.436:1,-0.125,-0.255
02:20:09.440:1,-0.115,-0.22
02:20:09.444:1,-0.13,-0.215
02:20:09.448:1,-0.1,-0.225
02:20:09.452:1,-0.08,-0.22
02:20:09.456:1,-0.085,-0.25
02:20:09.460:1,-0.08,-0.275
02:20:09.464:1,-0.06,-0.28
02:20:09.468:1,-0.075,-0.275
02:20:09.472:1,-0.07,-0.3
02:20:09.476:1,-0.09,-0.325
02:20:09.480:1,-0.075,-0.32
02:20:09.484:1,-0.095,-0.31
02:20:09.488:1,-0.1,-0.325
02:20:09.492:1,-0.11,-0.32
02:20:09.496:1,-0.11,-0.31
02:20:09.500:1,-0.1,-0.31
02:20:09.504:1,-0.095,-0.315
02:20:09.508:1,-0.095,-0.33
02:20:09.512:1,-0.1,-0.335
02:20:09.516:1,-0.11,-0.325
02:20:09.520:1,-0.105,-0.34
02:20:09.524:1,-0.105,-0.31
02:20:09.528:1,-0.1,-0.305
02:20:09.532:1,-0.11,-0.325
02:20:09.536:1,-0.1,-0.295
02:20:09.540:1,-0.085,-0.265
02:20:09.544:1,-0.08,-0.145
02:20:09.548:1,-0.07,0.05
02:20:09.552:1,-0.06,0.28
02:20:09.556:1,-0.05,0.46
02:20:09.560:1,0.015,0.46
02:20:09.564:1,0.08,0.27
02:20:09.568:1,0.155,-0.05
02:20:09.572:1,0.14,-0.45
02:20:09.576:1,0.1,-0.885
02:20:09.580:1,0.08,-1.14
02:20:09.584:1,-0.005,-1.185
02:20:09.588:1,-0.18,-1.125
02:20:09.592:1,-0.31,-0.975
02:20:09.596:1,-0.395,-0.835
02:20:09.600:1,-0.385,-0.695
02:20:09.604:1,-0.385,-0.575
02:20:09.608:1,-0.35,-0.48
02:20:09.612:1,-0.29,-0.385
02:20:09.616:1,-0.235,-0.32
02:20:09.620:1,-0.16,-0.33
02:20:09.624:1,-0.115,-0.325
02:20:09.628:1,-0.095,-0.34
02:20:09.632:1,-0.11,-0.325
02:20:09.636:1,-0.115,-0.32
02:20:09.640:1,-0.11,-0.32
02:20:09.644:1,-0.105,-0.315
02:20:09.648:1,-0.11,-0.315
02:20:09.652:1,-0.095,-0.32
02:20:09.656:1,-0.1,-0.315
02:20:09.660:1,-0.095,-0.32
02:20:09.664:1,-0.115,-0.32
02:20:09.668:1,-0.105,-0.315
02:20:09.672:1,-0.125,-0.3
02:20:09.676:1,-0.115,-0.315
02:20:09.680:1,-0.11,-0.31
02:20:09.684:1,-0.11,-0.3
02:20:09.688:1,-0.115,-0.305
02:20:09.692:1,-0.1,-0.3
02:20:09.696:1,-0.14,-0.3
02:20:09.700:1,-0.14,-0.3
02:20:09.704:1,-0.125,-0.305
02:20:09.708:1,-0.13,-0.3
02:20:09.712:1,-0.12,-0.29
02:20:09.716:1,-0.12,-0.29
02:20:09.720:1,-0.11,-0.29
02:20:09.724:1,-0.11,-0.265
02:20:09.728:1,-0.12,-0.25
02:20:09.732:1,-0.12,-0.27
02:20:09.736:1,-0.11,-0.255
02:20:09.740:1,-0.125,-0.24
02:20:09.744:1,-0.105,-0.225
02:20:09.748:1,-0.1,-0.235
02:20:09.752:1,-0.11,-0.23
02:20:09.756:1,-0.085,-0.225
02:20:09.760:1,-0.1,-0.2
02:20:09.764:1,-0.12,-0.19
02:20:09.768:1,-0.12,-0.205
02:20:09.772:1,-0.115,-0.195
02:20:09.776:1,-0.095,-0.19
02:20:09.780:1,-0.1,-0.17
02:20:09.784:1,-0.11,-0.17
02:20:09.788:1,-0.09,-0.18
02:20:09.792:1,-0.08,-0.18
02:20:09.796:1,-0.095,-0.18
02:20:09.800:1,-0.09,-0.17
02:20:09.804:1,-0.085,-0.17
02:20:09.808:1,-0.08,-0.16
02:20:09.812:1,-0.075,-0.175
02:20:09.816:1,-0.085,-0.18
02:20:09.820:1,-0.075,-0.18
02:20:09.824:1,-0.075,-0.16
02:20:09.828:1,-0.08,-0.17
02:20:09.832:1,-0.075,-0.175
02:20:09.836:1,-0.08,-0.155
02:20:09.840:1,-0.09,-0.16
02:20:09.844:1,-0.085,-0.14
02:20:09.848:1,-0.075,-0.135
02:20:09.852:1,-0.065,-0.135
02:20:09.856:1,-0.08,-0.135
02:20:09.860:1,-0.06,-0.135
02:20:09.864:1,-0.09,-0.135
02:20:09.868:1,-0.055,-0.145
02:20:09.872:1,-0.065,-0.15
02:20:09.876:1,-0.07,-0.15
02:20:09.880:1,-0.07,-0.145
02:20:09.884:1,-0.035,-0.175
02:20:09.888:1,-0.04,-0.165
02:20:09.892:1,-0.06,-0.16
02:20:09.896:1,-0.07,-0.17
02:20:09.900:1,-0.06,-0.18
02:20:09.904:1,-0.07,-0.185
02:20:09.908:1,-0.07,-0.165
02:20:09.912:1,-0.07,-0.19
02:20:09.916:1,-0.05,-0.185
02:20:09.920:1,-0.035,-0.165
02:20:09.924:1,-0.045,-0.165
02:20:09.928:1,-0.045,-0.16
02:20:09.932:1,-0.055,-0.165
02:20:09.936:1,-0.055,-0.16
02:20:09.940:1,-0.065,-0.17
02:20:09.944:1,-0.07,-0.165
02:20:09.948:1,-0.065,-0.16
02:20:09.952:1,-0.055,-0.175
02:20:09.956:1,-0.04,-0.15
02:20:09.960:1,-0.05,-0.135
02:20:09.964:1,-0.045,-0.155
02:20:09.968:1,-0.06,-0.14
02:20:09.972:1,-0.07,-0.15
02:20:09.976:1,-0.065,-0.135
02:20:09.980:1,-0.07,-0.155
02:20:09.984:1,-0.055,-0.14
02:20:09.988:1,-0.085,-0.16
02:20:09.992:1,-0.06,-0.16
02:20:09.996:1,-0.055,-0.16
02:20:10.000:1,-0.065,-0.145
02:20:10.004:1,-0.06,-0.14
02:20:10.008:1,-0.05,-0.16
02:20:10.012:1,-0.04,-0.155
02:20:10.016:1,-0.07,-0.165
02:20:10.020:1,-0.055,-0.175
02:20:10.024:1,-0.055,-0.17
02:20:10.028:1,-0.06,-0.165
02:20:10.032:1,-0.055,-0.185
02:20:10.036:1,-0.055,-0.19
02:20:10.040:1,-0.07,-0.16
02:20:10.044:1,-0.065,-0.17
02:20:10.048:1,-0.06,-0.175
02:20:10.052:1,-0.08,-0.19
02:20:10.056:1,-0.06,-0.17
02:20:10.060:1,-0.075,-0.155
02:20:10.064:1,-0.075,-0.125
02:20:10.068:1,-0.065,-0.09
02:20:10.072:1,-0.035,-0.085
02:20:10.076:1,-0.02,-0.055
02:20:10.080:1,-0.005,-0.045
02:20:10.084:1,0.0,-0.025
02:20:10.088:1,0.0,-0.035
02:20:10.092:1,0.005,-0.025
02:20:10.096:1,0.015,-0.02
02:20:10.100:1,0.015,-0.04
02:20:10.104:1,-0.005,-0.07
02:20:10.108:1,-0.02,-0.145
02:20:10.112:1,-0.065,-0.19
02:20:10.116:1,-0.085,-0.25
02:20:10.120:1,-0.11,-0.23
02:20:10.124:1,-0.12,-0.22
02:20:10.128:1,-0.12,-0.2
02:20:10.132:1,-0.13,-0.19
02:20:10.136:1,-0.12,-0.19
02:20:10.140:1,-0.105,-0.2
02:20:10.144:1,-0.085,-0.205
02:20:10.148:1,-0.08,-0.225
02:20:10.152:1,-0.07,-0.26
02:20:10.156:1,-0.065,-0.265
02:20:10.160:1,-0.065,-0.275
02:20:10.164:1,-0.08,-0.275
02:20:10.168:1,-0.07,-0.305
02:20:10.172:1,-0.08,-0.28
02:20:10.176:1,-0.09,-0.295
02:20:10.180:1,-0.095,-0.285
02:20:10.184:1,-0.09,-0.29
02:20:10.188:1,-0.095,-0.28
02:20:10.192:1,-0.105,-0.29
02:20:10.196:1,-0.1,-0.29
02:20:10.200:1,-0.105,-0.27
02:20:10.204:1,-0.1,-0.27
02:20:10.208:1,-0.085,-0.28
02:20:10.212:1,-0.08,-0.285
02:20:10.216:1,-0.085,-0.29
02:20:10.220:1,-0.09,-0.28
02:20:10.224:1,-0.085,-0.265
02:20:10.228:1,-0.085,-0.255
02:20:10.232:1,-0.08,-0.18
02:20:10.236:1,-0.04,-0.065
02:20:10.240:1,-0.04,0.145
02:20:10.244:1,-0.02,0.39
02:20:10.248:1,0.01,0.575
02:20:10.252:1,0.085,0.565
02:20:10.256:1,0.155,0.375
02:20:10.260:1,0.205,0.02
02:20:10.264:1,0.165,-0.495
02:20:10.268:1,0.11,-0.94
02:20:10.272:1,0.0,-1.135
02:20:10.276:1,-0.19,-1.15
02:20:10.280:1,-0.36,-0.985
02:20:10.284:1,-0.44,-0.79
02:20:10.288:1,-0.435,-0.635
02:20:10.292:1,-0.4,-0.535
02:20:10.296:1,-0.34,-0.43
02:20:10.300:1,-0.275,-0.325
02:20:10.304:1,-0.205,-0.29
02:20:10.308:1,-0.11,-0.275
02:20:10.312:1,-0.095,-0.275
02:20:10.316:1,-0.075,-0.285
02:20:10.320:1,-0.06,-0.27
02:20:10.324:1,-0.065,-0.26
02:20:10.328:1,-0.07,-0.265
02:20:10.332:1,-0.075,-0.29
02:20:10.336:1,-0.075,-0.275
02:20:10.340:1,-0.08,-0.275
02:20:10.344:1,-0.095,-0.275
02:20:10.348:1,-0.08,-0.27
02:20:10.352:1,-0.08,-0.275
02:20:10.356:1,-0.09,-0.26
02:20:10.360:1,-0.07,-0.275
02:20:10.364:1,-0.07,-0.275
02:20:10.368:1,-0.07,-0.255
02:20:10.372:1,-0.085,-0.255
02:20:10.376:1,-0.065,-0.26
02:20:10.380:1,-0.095,-0.26
02:20:10.384:1,-0.075,-0.235
02:20:10.388:1,-0.07,-0.24
02:20:10.392:1,-0.075,-0.255
02:20:10.396:1,-0.08,-0.22
02:20:10.400:1,-0.075,-0.23
02:20:10.404:1,-0.085,-0.225
02:20:10.408:1,-0.085,-0.225
02:20:10.412:1,-0.075,-0.23
02:20:10.416:1,-0.08,-0.215
02:20:10.420:1,-0.075,-0.2
02:20:10.424:1,-0.085,-0.185
02:20:10.428:1,-0.065,-0.175
02:20:10.432:1,-0.06,-0.195
02:20:10.436:1,-0.08,-0.175
02:20:10.440:1,-0.065,-0.17
02:20:10.444:1,-0.07,-0.155
02:20:10.448:1,-0.065,-0.155
02:20:10.452:1,-0.065,-0.145
02:20:10.456:1,-0.08,-0.145
02:20:10.460:1,-0.06,-0.13
02:20:10.464:1,-0.075,-0.11
02:20:10.468:1,-0.075,-0.11
02:20:10.472:1,-0.055,-0.12
02:20:10.476:1,-0.075,-0.11
02:20:10.480:1,-0.065,-0.12
02:20:10.484:1,-0.065,-0.11
02:20:10.488:1,-0.055,-0.095
02:20:10.492:1,-0.07,-0.115
02:20:10.496:1,-0.065,-0.105
02:20:10.500:1,-0.06,-0.1
02:20:10.504:1,-0.07,-0.08
02:20:10.508:1,-0.065,-0.075
02:20:10.512:1,-0.06,-0.08
02:20:10.516:1,-0.065,-0.065
02:20:10.520:1,-0.075,-0.065
02:20:10.524:1,-0.05,-0.065
02:20:10.528:1,-0.05,-0.065
02:20:10.532:1,-0.06,-0.08
02:20:10.536:1,-0.05,-0.085
02:20:10.540:1,-0.05,-0.085
02:20:10.544:1,-0.055,-0.08
02:20:10.548:1,-0.055,-0.09
02:20:10.552:1,-0.035,-0.125
02:20:10.556:1,-0.06,-0.13
02:20:10.560:1,-0.035,-0.125
02:20:10.564:1,-0.04,-0.145
02:20:10.568:1,-0.04,-0.135
02:20:10.572:1,-0.05,-0.155
02:20:10.576:1,-0.04,-0.155
02:20:10.580:1,-0.045,-0.155
02:20:10.584:1,-0.035,-0.155
02:20:10.588:1,-0.045,-0.16
02:20:10.592:1,-0.04,-0.175
02:20:10.596:1,-0.055,-0.16
02:20:10.600:1,-0.045,-0.165
02:20:10.604:1,-0.06,-0.155
02:20:10.608:1,-0.05,-0.165
02:20:10.612:1,-0.065,-0.165
02:20:10.616:1,-0.045,-0.175
02:20:10.620:1,-0.055,-0.175
02:20:10.624:1,-0.035,-0.155
02:20:10.628:1,-0.04,-0.15
02:20:10.632:1,-0.035,-0.15
02:20:10.636:1,-0.04,-0.15
02:20:10.640:1,-0.05,-0.165
02:20:10.644:1,-0.05,-0.16
02:20:10.648:1,-0.04,-0.15
02:20:10.652:1,-0.04,-0.16
02:20:10.656:1,-0.05,-0.175
02:20:10.660:1,-0.05,-0.16
02:20:10.664:1,-0.045,-0.155
02:20:10.668:1,-0.055,-0.16
02:20:10.672:1,-0.05,-0.165
02:20:10.676:1,-0.065,-0.185
02:20:10.680:1,-0.05,-0.18
02:20:10.684:1,-0.05,-0.16
02:20:10.688:1,-0.06,-0.17
02:20:10.692:1,-0.07,-0.17
02:20:10.696:1,-0.055,-0.17
02:20:10.700:1,-0.06,-0.18
02:20:10.704:1,-0.06,-0.175
02:20:10.708:1,-0.075,-0.18
02:20:10.712:1,-0.05,-0.19
02:20:10.716:1,-0.07,-0.195
02:20:10.720:1,-0.055,-0.2
02:20:10.724:1,-0.065,-0.195
02:20:10.728:1,-0.06,-0.195
02:20:10.732:1,-0.055,-0.2
02:20:10.736:1,-0.065,-0.17
02:20:10.740:1,-0.08,-0.16
02:20:10.744:1,-0.065,-0.14
02:20:10.748:1,-0.065,-0.105
02:20:10.752:1,-0.05,-0.1
02:20:10.756:1,-0.04,-0.08
02:20:10.760:1,-0.03,-0.04
02:20:10.764:1,-0.02,-0.025
02:20:10.768:1,-0.005,-0.035
02:20:10.772:1,-0.015,-0.025
02:20:10.776:1,-0.015,-0.04
02:20:10.780:1,-0.015,-0.055
02:20:10.784:1,0.0,-0.05
02:20:10.788:1,-0.04,-0.11
02:20:10.792:1,-0.055,-0.18
02:20:10.796:1,-0.07,-0.235
02:20:10.800:1,-0.09,-0.24
02:20:10.804:1,-0.135,-0.235
02:20:10.808:1,-0.125,-0.215
02:20:10.812:1,-0.12,-0.215
02:20:10.816:1,-0.125,-0.185
02:20:10.820:1,-0.12,-0.2
02:20:10.824:1,-0.09,-0.205
02:20:10.828:1,-0.09,-0.225
02:20:10.832:1,-0.09,-0.23
02:20:10.836:1,-0.08,-0.255
02:20:10.840:1,-0.08,-0.27
02:20:10.844:1,-0.055,-0.265
02:20:10.848:1,-0.06,-0.285
02:20:10.852:1,-0.065,-0.3
02:20:10.856:1,-0.075,-0.295
02:20:10.860:1,-0.095,-0.29
02:20:10.864:1,-0.09,-0.29
02:20:10.868:1,-0.095,-0.295
02:20:10.872:1,-0.1,-0.29
02:20:10.876:1,-0.095,-0.29
02:20:10.880:1,-0.085,-0.275
02:20:10.884:1,-0.095,-0.265
02:20:10.888:1,-0.085,-0.28
02:20:10.892:1,-0.075,-0.285
02:20:10.896:1,-0.075,-0.29
02:20:10.900:1,-0.08,-0.29
02:20:10.904:1,-0.07,-0.295
02:20:10.908:1,-0.075,-0.29
02:20:10.912:1,-0.085,-0.235
02:20:10.916:1,-0.085,-0.135
02:20:10.920:1,-0.045,0.065
02:20:10.924:1,-0.015,0.295
02:20:10.928:1,-0.005,0.515
02:20:10.932:1,0.04,0.56
02:20:10.936:1,0.11,0.44
02:20:10.940:1,0.175,0.15
02:20:10.944:1,0.175,-0.295
02:20:10.948:1,0.105,-0.81
02:20:10.952:1,0.02,-1.085
02:20:10.956:1,-0.145,-1.185
02:20:10.960:1,-0.31,-1.1
02:20:10.964:1,-0.44,-0.945
02:20:10.968:1,-0.45,-0.76
02:20:10.972:1,-0.435,-0.62
02:20:10.976:1,-0.38,-0.51
02:20:10.980:1,-0.325,-0.375
02:20:10.984:1,-0.24,-0.31
02:20:10.988:1,-0.16,-0.295
02:20:10.992:1,-0.095,-0.29
02:20:10.996:1,-0.075,-0.29
02:20:11.000:1,-0.06,-0.3
02:20:11.004:1,-0.065,-0.305
02:20:11.008:1,-0.065,-0.27
02:20:11.012:1,-0.08,-0.305
02:20:11.016:1,-0.075,-0.29
02:20:11.020:1,-0.075,-0.295
02:20:11.024:1,-0.085,-0.3
02:20:11.028:1,-0.075,-0.285
02:20:11.032:1,-0.07,-0.265
02:20:11.036:1,-0.07,-0.28
02:20:11.040:1,-0.05,-0.285
02:20:11.044:1,-0.075,-0.27
02:20:11.048:1,-0.085,-0.275
02:20:11.052:1,-0.075,-0.285
02:20:11.056:1,-0.065,-0.255
02:20:11.060:1,-0.08,-0.26
02:20:11.064:1,-0.085,-0.255
02:20:11.068:1,-0.075,-0.255
02:20:11.072:1,-0.08,-0.255
02:20:11.076:1,-0.095,-0.265
02:20:11.080:1,-0.08,-0.25
02:20:11.084:1,-0.07,-0.24
02:20:11.088:1,-0.075,-0.23
02:20:11.092:1,-0.09,-0.215
02:20:11.096:1,-0.07,-0.22
02:20:11.100:1,-0.07,-0.21
02:20:11.104:1,-0.06,-0.205
02:20:11.108:1,-0.06,-0.195
02:20:11.112:1,-0.06,-0.18
02:20:11.116:1,-0.085,-0.195
02:20:11.120:1,-0.075,-0.195
02:20:11.124:1,-0.06,-0.16
02:20:11.128:1,-0.07,-0.145
02:20:11.132:1,-0.08,-0.15
02:20:11.136:1,-0.06,-0.145
02:20:11.140:1,-0.07,-0.135
02:20:11.144:1,-0.065,-0.125
02:20:11.148:1,-0.055,-0.1
02:20:11.152:1,-0.04,-0.095
02:20:11.156:1,-0.05,-0.095
02:20:11.160:1,-0.05,-0.1
02:20:11.164:1,-0.05,-0.1
02:20:11.168:1,-0.06,-0.07
02:20:11.172:1,-0.03,-0.08
02:20:11.176:1,-0.04,-0.08
02:20:11.180:1,-0.035,-0.075
02:20:11.184:1,-0.03,-0.065
02:20:11.188:1,-0.025,-0.055
02:20:11.192:1,-0.025,-0.04
02:20:11.196:1,-0.03,-0.045
02:20:11.200:1,-0.03,-0.05
02:20:11.204:1,-0.025,-0.04
02:20:11.208:1,-0.035,-0.035
02:20:11.212:1,-0.03,-0.045
02:20:11.216:1,-0.01,-0.05
02:20:11.220:1,-0.01,-0.06
02:20:11.224:1,-0.015,-0.07
02:20:11.228:1,-0.02,-0.08
02:20:11.232:1,-0.005,-0.095
02:20:11.236:1,-0.01,-0.115
02:20:11.240:1,0.0,-0.115
02:20:11.244:1,0.0,-0.125
02:20:11.248:1,-0.01,-0.125
02:20:11.252:1,-0.015,-0.15
02:20:11.256:1,-0.01,-0.155
02:20:11.260:1,-0.02,-0.16
02:20:11.264:1,-0.02,-0.16
02:20:11.268:1,-0.015,-0.155
02:20:11.272:1,0.005,-0.145
02:20:11.276:1,-0.005,-0.15
02:20:11.280:1,-0.005,-0.17
02:20:11.284:1,-0.01,-0.155
02:20:11.288:1,-0.005,-0.15
02:20:11.292:1,-0.01,-0.15
02:20:11.296:1,-0.02,-0.17
02:20:11.300:1,0.0,-0.155
02:20:11.304:1,0.0,-0.155
02:20:11.308:1,0.0,-0.15
02:20:11.312:1,0.0,-0.16
02:20:11.316:1,-0.005,-0.17
02:20:11.320:1,-0.01,-0.155
02:20:11.324:1,0.0,-0.145
02:20:11.328:1,0.0,-0.15
02:20:11.332:1,-0.01,-0.145
02:20:11.336:1,-0.015,-0.155
02:20:11.340:1,-0.01,-0.155
02:20:11.344:1,-0.01,-0.145
02:20:11.348:1,-0.005,-0.16
02:20:11.352:1,-0.015,-0.16
02:20:11.356:1,-0.005,-0.16
02:20:11.360:1,-0.01,-0.165
02:20:11.364:1,0.0,-0.15
02:20:11.368:1,-0.03,-0.165
02:20:11.372:1,-0.03,-0.16
02:20:11.376:1,-0.035,-0.18
02:20:11.380:1,-0.025,-0.175
02:20:11.384:1,-0.04,-0.17
02:20:11.388:1,-0.04,-0.16
02:20:11.392:1,-0.015,-0.18
02:20:11.396:1,-0.02,-0.195
02:20:11.400:1,-0.045,-0.195
02:20:11.404:1,-0.06,-0.18
02:20:11.408:1,-0.04,-0.18
02:20:11.412:1,-0.03,-0.17
02:20:11.416:1,-0.03,-0.17
02:20:11.420:1,-0.04,-0.17
02:20:11.424:1,-0.035,-0.145
02:20:11.428:1,-0.035,-0.1
02:20:11.432:1,-0.025,-0.055
02:20:11.436:1,-0.01,-0.055
02:20:11.440:1,0.005,-0.045
02:20:11.444:1,0.015,-0.015
02:20:11.448:1,0.015,-0.005
02:20:11.452:1,0.035,0.0
02:20:11.456:1,0.055,0.0
02:20:11.460:1,0.07,0.01
02:20:11.464:1,0.04,-0.02
02:20:11.468:1,0.03,-0.03
02:20:11.472:1,0.005,-0.1
02:20:11.476:1,-0.025,-0.19
02:20:11.480:1,-0.035,-0.21
02:20:11.484:1,-0.065,-0.215
02:20:11.488:1,-0.085,-0.21
02:20:11.492:1,-0.08,-0.22
02:20:11.496:1,-0.06,-0.22
02:20:11.500:1,-0.08,-0.23
02:20:11.504:1,-0.075,-0.23
02:20:11.508:1,-0.065,-0.235
02:20:11.512:1,-0.075,-0.265
02:20:11.516:1,-0.09,-0.29
02:20:11.520:1,-0.07,-0.29
02:20:11.524:1,-0.075,-0.275
02:20:11.528:1,-0.06,-0.275
02:20:11.532:1,-0.055,-0.28
02:20:11.536:1,-0.075,-0.275
02:20:11.540:1,-0.06,-0.27
02:20:11.544:1,-0.065,-0.28
02:20:11.548:1,-0.07,-0.27
02:20:11.552:1,-0.08,-0.275
02:20:11.556:1,-0.08,-0.27
02:20:11.560:1,-0.08,-0.285
02:20:11.564:1,-0.07,-0.26
02:20:11.568:1,-0.07,-0.27
02:20:11.572:1,-0.065,-0.265
02:20:11.576:1,-0.075,-0.28
02:20:11.580:1,-0.06,-0.29
02:20:11.584:1,-0.075,-0.28
02:20:11.588:1,-0.06,-0.27
02:20:11.592:1,-0.055,-0.25
02:20:11.596:1,-0.07,-0.225
02:20:11.600:1,-0.055,-0.155
02:20:11.604:1,-0.035,0.04
02:20:11.608:1,-0.03,0.255
02:20:11.612:1,-0.015,0.47
02:20:11.616:1,0.03,0.54
02:20:11.620:1,0.11,0.45
02:20:11.624:1,0.175,0.175
02:20:11.628:1,0.185,-0.26
02:20:11.632:1,0.155,-0.77
02:20:11.636:1,0.125,-1.07
02:20:11.640:1,0.045,-1.18
02:20:11.644:1,-0.11,-1.12
02:20:11.648:1,-0.24,-0.98
02:20:11.652:1,-0.31,-0.82
02:20:11.656:1,-0.365,-0.69
02:20:11.660:1,-0.37,-0.575
02:20:11.664:1,-0.345,-0.47
02:20:11.668:1,-0.28,-0.35
02:20:11.672:1,-0.205,-0.29
02:20:11.676:1,-0.15,-0.28
02:20:11.680:1,-0.09,-0.3
02:20:11.684:1,-0.095,-0.295
02:20:11.688:1,-0.08,-0.29
02:20:11.692:1,-0.095,-0.26
02:20:11.696:1,-0.08,-0.28
02:20:11.700:1,-0.085,-0.285
02:20:11.704:1,-0.105,-0.29
02:20:11.708:1,-0.095,-0.285
02:20:11.712:1,-0.105,-0.29
02:20:11.716:1,-0.1,-0.275
02:20:11.720:1,-0.09,-0.275
02:20:11.724:1,-0.095,-0.25
02:20:11.728:1,-0.095,-0.26
02:20:11.732:1,-0.08,-0.255
02:20:11.736:1,-0.075,-0.25
02:20:11.740:1,-0.08,-0.245
02:20:11.744:1,-0.08,-0.235
02:20:11.748:1,-0.075,-0.23
02:20:11.752:1,-0.075,-0.235
02:20:11.756:1,-0.08,-0.23
02:20:11.760:1,-0.085,-0.25
02:20:11.764:1,-0.075,-0.245
02:20:11.768:1,-0.06,-0.22
02:20:11.772:1,-0.06,-0.215
02:20:11.776:1,-0.06,-0.21
02:20:11.780:1,-0.045,-0.22
02:20:11.784:1,-0.04,-0.22
02:20:11.788:1,-0.035,-0.225
02:20:11.792:1,-0.015,-0.205
02:20:11.796:1,0.0,-0.17
02:20:11.800:1,0.0,-0.165
02:20:11.804:1,0.015,-0.16
02:20:11.808:1,0.0,-0.175
02:20:11.812:1,0.0,-0.18
02:20:11.816:1,-0.015,-0.195
02:20:11.820:1,-0.06,-0.21
02:20:11.824:1,-0.08,-0.215
02:20:11.828:1,-0.105,-0.23
02:20:11.832:1,-0.12,-0.235
02:20:11.836:1,-0.125,-0.235
02:20:11.840:1,-0.14,-0.235
02:20:11.844:1,-0.125,-0.22
02:20:11.848:1,-0.115,-0.22
02:20:11.852:1,-0.11,-0.225
02:20:11.856:1,-0.14,-0.22
02:20:11.860:1,-0.14,-0.22
02:20:11.864:1,-0.135,-0.195
02:20:11.868:1,-0.13,-0.205
02:20:11.872:1,-0.105,-0.195
02:20:11.876:1,-0.125,-0.185
02:20:11.880:1,-0.12,-0.175
02:20:11.884:1,-0.135,-0.19
02:20:11.888:1,-0.11,-0.17
02:20:11.892:1,-0.105,-0.145
02:20:11.896:1,-0.11,-0.165
02:20:11.900:1,-0.1,-0.16
02:20:11.904:1,-0.105,-0.17
02:20:11.908:1,-0.11,-0.16
02:20:11.912:1,-0.08,-0.175
02:20:11.916:1,-0.09,-0.185
02:20:11.920:1,-0.09,-0.19
02:20:11.924:1,-0.09,-0.215
02:20:11.928:1,-0.075,-0.215
02:20:11.932:1,-0.09,-0.215
02:20:11.936:1,-0.095,-0.215
02:20:11.940:1,-0.09,-0.23
02:20:11.944:1,-0.085,-0.235
02:20:11.948:1,-0.085,-0.215
02:20:11.952:1,-0.085,-0.215
02:20:11.956:1,-0.075,-0.22
02:20:11.960:1,-0.07,-0.23
02:20:11.964:1,-0.095,-0.215
02:20:11.968:1,-0.075,-0.235
02:20:11.972:1,-0.085,-0.215
02:20:11.976:1,-0.09,-0.25
02:20:11.980:1,-0.09,-0.24
02:20:11.984:1,-0.09,-0.19
02:20:11.988:1,-0.08,-0.07
02:20:11.992:1,-0.08,0.125
02:20:11.996:1,-0.06,0.34
02:20:12.000:1,-0.02,0.365
02:20:12.004:1,0.01,0.11
02:20:12.008:1,0.115,-0.37
02:20:12.012:1,0.145,-1.04
02:20:12.016:1,0.1,-1.345
02:20:12.020:1,-0.03,-1.31
02:20:12.024:1,-0.165,-1.13
02:20:12.028:1,-0.27,-0.905
02:20:12.032:1,-0.32,-0.725
02:20:12.036:1,-0.34,-0.535
02:20:12.040:1,-0.325,-0.375
02:20:12.044:1,-0.27,-0.25
02:20:12.048:1,-0.19,-0.225
02:20:12.052:1,-0.11,-0.225
02:20:12.056:1,-0.1,-0.245
02:20:12.060:1,-0.085,-0.255
02:20:12.064:1,-0.09,-0.25
02:20:12.068:1,-0.115,-0.26
02:20:12.072:1,-0.11,-0.26
02:20:12.076:1,-0.1,-0.26
02:20:12.080:1,-0.105,-0.26
02:20:12.084:1,-0.095,-0.27
02:20:12.088:1,-0.1,-0.285
02:20:12.092:1,-0.1,-0.265
02:20:12.096:1,-0.095,-0.26
02:20:12.100:1,-0.105,-0.275
02:20:12.104:1,-0.12,-0.295
02:20:12.108:1,-0.11,-0.28
02:20:12.112:1,-0.1,-0.26
02:20:12.116:1,-0.095,-0.275
02:20:12.120:1,-0.08,-0.295
02:20:12.124:1,-0.095,-0.29
02:20:12.128:1,-0.095,-0.29
02:20:12.132:1,-0.1,-0.28
02:20:12.136:1,-0.095,-0.29
02:20:12.140:1,-0.105,-0.285
02:20:12.144:1,-0.105,-0.28
02:20:12.148:1,-0.095,-0.27
02:20:12.152:1,-0.1,-0.245
02:20:12.156:1,-0.09,-0.255
02:20:12.160:1,-0.105,-0.245
02:20:12.164:1,-0.105,-0.24
02:20:12.168:1,-0.1,-0.245
02:20:12.172:1,-0.085,-0.235
02:20:12.176:1,-0.11,-0.21
02:20:12.180:1,-0.095,-0.22
02:20:12.184:1,-0.08,-0.21
02:20:12.188:1,-0.085,-0.2
02:20:12.192:1,-0.085,-0.17
02:20:12.196:1,-0.075,-0.16
02:20:12.200:1,-0.08,-0.145
02:20:12.204:1,-0.07,-0.145
02:20:12.208:1,-0.075,-0.13
02:20:12.212:1,-0.065,-0.115
02:20:12.216:1,-0.06,-0.105
02:20:12.220:1,-0.075,-0.095
02:20:12.224:1,-0.055,-0.08
02:20:12.228:1,-0.06,-0.07
02:20:12.232:1,-0.07,-0.06
02:20:12.236:1,-0.055,-0.045
02:20:12.240:1,-0.045,-0.055
02:20:12.244:1,-0.045,-0.03
02:20:12.248:1,-0.03,-0.045
02:20:12.252:1,-0.02,-0.015
02:20:12.256:1,-0.02,-0.005
02:20:12.260:1,-0.02,-0.005
02:20:12.264:1,-0.02,-0.015
02:20:12.268:1,-0.02,-0.02
02:20:12.272:1,-0.025,-0.035
02:20:12.276:1,-0.005,-0.035
02:20:12.280:1,0.005,-0.065
02:20:12.284:1,-0.005,-0.08
02:20:12.288:1,0.0,-0.095
02:20:12.292:1,-0.005,-0.105
02:20:12.296:1,0.0,-0.115
02:20:12.300:1,-0.025,-0.125
02:20:12.304:1,-0.02,-0.13
02:20:12.308:1,-0.01,-0.14
02:20:12.312:1,0.0,-0.115
02:20:12.316:1,-0.01,-0.125
02:20:12.320:1,-0.005,-0.15
02:20:12.324:1,-0.015,-0.145
02:20:12.328:1,-0.025,-0.14
02:20:12.332:1,-0.02,-0.16
02:20:12.336:1,-0.02,-0.15
02:20:12.340:1,-0.03,-0.14
02:20:12.344:1,-0.025,-0.15
02:20:12.348:1,0.0,-0.15
02:20:12.352:1,-0.015,-0.16
02:20:12.356:1,-0.03,-0.145
02:20:12.360:1,-0.035,-0.16
02:20:12.364:1,-0.02,-0.16
02:20:12.368:1,-0.025,-0.165
02:20:12.372:1,-0.015,-0.16
02:20:12.376:1,-0.025,-0.16
02:20:12.380:1,-0.03,-0.155
02:20:12.384:1,-0.03,-0.175
02:20:12.388:1,-0.05,-0.175
02:20:12.392:1,-0.05,-0.185
02:20:12.396:1,-0.03,-0.18
02:20:12.400:1,-0.025,-0.185
02:20:12.404:1,-0.025,-0.185
02:20:12.408:1,-0.025,-0.175
02:20:12.412:1,-0.03,-0.18
02:20:12.416:1,-0.03,-0.185
02:20:12.420:1,-0.025,-0.19
02:20:12.424:1,-0.04,-0.18
02:20:12.428:1,-0.04,-0.2
02:20:12.432:1,-0.03,-0.18
02:20:12.436:1,-0.04,-0.175
02:20:12.440:1,-0.035,-0.18
02:20:12.444:1,-0.025,-0.2
02:20:12.448:1,-0.04,-0.185
02:20:12.452:1,-0.055,-0.17
02:20:12.456:1,-0.06,-0.17
02:20:12.460:1,-0.04,-0.195
02:20:12.464:1,-0.055,-0.195
02:20:12.468:1,-0.03,-0.195
02:20:12.472:1,-0.05,-0.195
02:20:12.476:1,-0.05,-0.165
02:20:12.480:1,-0.055,-0.185
02:20:12.484:1,-0.03,-0.185
02:20:12.488:1,-0.05,-0.19
02:20:12.492:1,-0.03,-0.18
02:20:12.496:1,-0.04,-0.185
02:20:12.500:1,-0.04,-0.18
02:20:12.504:1,-0.045,-0.18
02:20:12.508:1,-0.035,-0.18
02:20:12.512:1,-0.02,-0.19
02:20:12.516:1,-0.03,-0.18
02:20:12.520:1,-0.045,-0.18
02:20:12.524:1,-0.03,-0.19
02:20:12.528:1,-0.03,-0.2
02:20:12.532:1,-0.03,-0.195
02:20:12.536:1,-0.04,-0.19
02:20:12.540:1,-0.035,-0.19
02:20:12.544:1,-0.05,-0.19
02:20:12.548:1,-0.04,-0.21
02:20:12.552:1,-0.025,-0.18
02:20:12.556:1,-0.025,-0.175
02:20:12.560:1,-0.035,-0.19
02:20:12.564:1,-0.035,-0.21
02:20:12.568:1,-0.03,-0.195
02:20:12.572:1,-0.015,-0.175
02:20:12.576:1,-0.025,-0.19
02:20:12.580:1,-0.025,-0.175
02:20:12.584:1,-0.03,-0.18
02:20:12.588:1,-0.025,-0.195
02:20:12.592:1,-0.02,-0.19
02:20:12.596:1,-0.05,-0.18
02:20:12.600:1,-0.04,-0.18
02:20:12.604:1,-0.025,-0.2
02:20:12.608:1,-0.025,-0.2
02:20:12.612:1,-0.045,-0.175
02:20:12.616:1,-0.03,-0.135
02:20:12.620:1,-0.04,-0.115
02:20:12.624:1,-0.04,-0.1
02:20:12.628:1,-0.005,-0.085
02:20:12.632:1,0.005,-0.05
02:20:12.636:1,0.01,-0.02
02:20:12.640:1,0.03,-0.015
02:20:12.644:1,0.04,-0.01
02:20:12.648:1,0.04,-0.025
02:20:12.652:1,0.015,-0.025
02:20:12.656:1,0.005,-0.065
02:20:12.660:1,0.0,-0.12
02:20:12.664:1,-0.02,-0.17
02:20:12.668:1,-0.06,-0.22
02:20:12.672:1,-0.085,-0.235
02:20:12.676:1,-0.07,-0.225
02:20:12.680:1,-0.1,-0.195
02:20:12.684:1,-0.105,-0.2
02:20:12.688:1,-0.11,-0.185
02:20:12.692:1,-0.075,-0.18
02:20:12.696:1,-0.06,-0.2
02:20:12.700:1,-0.045,-0.22
02:20:12.704:1,-0.04,-0.235
02:20:12.708:1,-0.04,-0.25
02:20:12.712:1,-0.06,-0.255
02:20:12.716:1,-0.04,-0.285
02:20:12.720:1,-0.055,-0.29
02:20:12.724:1,-0.085,-0.31
02:20:12.728:1,-0.08,-0.3
02:20:12.732:1,-0.085,-0.29
02:20:12.736:1,-0.09,-0.295
02:20:12.740:1,-0.07,-0.29
02:20:12.744:1,-0.09,-0.3
02:20:12.748:1,-0.08,-0.29
02:20:12.752:1,-0.08,-0.29
02:20:12.756:1,-0.08,-0.28
02:20:12.760:1,-0.085,-0.275
02:20:12.764:1,-0.075,-0.28
02:20:12.768:1,-0.08,-0.29
02:20:12.772:1,-0.085,-0.29
02:20:12.776:1,-0.08,-0.265
02:20:12.780:1,-0.08,-0.205
02:20:12.784:1,-0.06,-0.11
02:20:12.788:1,-0.04,0.095
02:20:12.792:1,-0.03,0.33
02:20:12.796:1,0.01,0.54
02:20:12.800:1,0.065,0.57
02:20:12.804:1,0.15,0.415
02:20:12.808:1,0.18,0.12
02:20:12.812:1,0.18,-0.29
02:20:12.816:1,0.095,-0.775
02:20:12.820:1,0.015,-1.045
02:20:12.824:1,-0.15,-1.14
02:20:12.828:1,-0.32,-1.055
02:20:12.832:1,-0.43,-0.89
02:20:12.836:1,-0.445,-0.725
02:20:12.840:1,-0.41,-0.61
02:20:12.844:1,-0.395,-0.5
02:20:12.848:1,-0.33,-0.38
02:20:12.852:1,-0.23,-0.335
02:20:12.856:1,-0.16,-0.31
02:20:12.860:1,-0.11,-0.31
02:20:12.864:1,-0.095,-0.33
02:20:12.868:1,-0.085,-0.31
02:20:12.872:1,-0.085,-0.29
02:20:12.876:1,-0.09,-0.31
02:20:12.880:1,-0.095,-0.3
02:20:12.884:1,-0.07,-0.285
02:20:12.888:1,-0.09,-0.295
02:20:12.892:1,-0.1,-0.275
02:20:12.896:1,-0.095,-0.28
02:20:12.900:1,-0.085,-0.29
02:20:12.904:1,-0.09,-0.28
02:20:12.908:1,-0.075,-0.285
02:20:12.912:1,-0.095,-0.26
02:20:12.916:1,-0.1,-0.26
02:20:12.920:1,-0.09,-0.265
02:20:12.924:1,-0.08,-0.285
02:20:12.928:1,-0.09,-0.26
02:20:12.932:1,-0.075,-0.255
02:20:12.936:1,-0.08,-0.265
02:20:12.940:1,-0.095,-0.25
02:20:12.944:1,-0.085,-0.26
02:20:12.948:1,-0.08,-0.235
02:20:12.952:1,-0.08,-0.235
02:20:12.956:1,-0.095,-0.205
02:20:12.960:1,-0.08,-0.22
02:20:12.964:1,-0.075,-0.22
02:20:12.968:1,-0.085,-0.215
02:20:12.972:1,-0.095,-0.215
02:20:12.976:1,-0.065,-0.2
02:20:12.980:1,-0.065,-0.17
02:20:12.984:1,-0.08,-0.18
02:20:12.988:1,-0.075,-0.18
02:20:12.992:1,-0.075,-0.16
02:20:12.996:1,-0.07,-0.145
02:20:13.000:1,-0.07,-0.14
02:20:13.004:1,-0.065,-0.145
02:20:13.008:1,-0.075,-0.125
02:20:13.012:1,-0.06,-0.12
02:20:13.016:1,-0.05,-0.12
02:20:13.020:1,-0.05,-0.1
02:20:13.024:1,-0.06,-0.1
02:20:13.028:1,-0.045,-0.095
02:20:13.032:1,-0.03,-0.085
02:20:13.036:1,-0.04,-0.085
02:20:13.040:1,-0.05,-0.09
02:20:13.044:1,-0.04,-0.075
02:20:13.048:1,-0.045,-0.075
02:20:13.052:1,-0.025,-0.075
02:20:13.056:1,-0.025,-0.055
02:20:13.060:1,-0.035,-0.04
02:20:13.064:1,-0.025,-0.07
02:20:13.068:1,-0.02,-0.06
02:20:13.072:1,-0.04,-0.055
02:20:13.076:1,-0.025,-0.035
02:20:13.080:1,-0.04,-0.04
02:20:13.084:1,-0.025,-0.045
02:20:13.088:1,-0.035,-0.04
02:20:13.092:1,-0.025,-0.02
02:20:13.096:1,-0.015,-0.015
02:20:13.100:1,-0.03,-0.015
02:20:13.104:1,-0.03,-0.03
02:20:13.108:1,-0.025,-0.055
02:20:13.112:1,-0.02,-0.06
02:20:13.116:1,-0.04,-0.06
02:20:13.120:1,-0.03,-0.1
02:20:13.124:1,-0.035,-0.1
02:20:13.128:1,-0.03,-0.11
02:20:13.132:1,-0.035,-0.115
02:20:13.136:1,-0.025,-0.12
02:20:13.140:1,-0.025,-0.12
02:20:13.144:1,-0.03,-0.11
02:20:13.148:1,-0.02,-0.15
02:20:13.152:1,-0.04,-0.135
02:20:13.156:1,-0.035,-0.13
02:20:13.160:1,-0.03,-0.135
02:20:13.164:1,-0.025,-0.13
02:20:13.168:1,-0.015,-0.115
02:20:13.172:1,-0.025,-0.14
02:20:13.176:1,-0.005,-0.145
02:20:13.180:1,-0.02,-0.125
02:20:13.184:1,-0.025,-0.145
02:20:13.188:1,-0.025,-0.14
02:20:13.192:1,-0.015,-0.12
02:20:13.196:1,-0.03,-0.125
02:20:13.200:1,-0.02,-0.14
02:20:13.204:1,-0.01,-0.13
02:20:13.208:1,-0.02,-0.14
02:20:13.212:1,-0.015,-0.135
02:20:13.216:1,-0.015,-0.12
02:20:13.220:1,-0.02,-0.135
02:20:13.224:1,-0.005,-0.13
02:20:13.228:1,-0.03,-0.13
02:20:13.232:1,-0.025,-0.145
02:20:13.236:1,-0.025,-0.145
02:20:13.240:1,-0.03,-0.14
02:20:13.244:1,-0.03,-0.155
02:20:13.248:1,-0.01,-0.16
02:20:13.252:1,-0.015,-0.155
02:20:13.256:1,-0.02,-0.16
02:20:13.260:1,-0.02,-0.155
02:20:13.264:1,-0.04,-0.16
02:20:13.268:1,-0.025,-0.17
02:20:13.272:1,-0.03,-0.165
02:20:13.276:1,-0.025,-0.16
02:20:13.280:1,-0.025,-0.16
02:20:13.284:1,-0.025,-0.18
02:20:13.288:1,-0.03,-0.18
02:20:13.292:1,-0.04,-0.17
02:20:13.296:1,-0.025,-0.16
02:20:13.300:1,-0.02,-0.14
02:20:13.304:1,-0.025,-0.105
02:20:13.308:1,-0.005,-0.08
02:20:13.312:1,0.015,-0.055
02:20:13.316:1,0.015,-0.02
02:20:13.320:1,0.015,-0.015
02:20:13.324:1,0.05,-0.02
02:20:13.328:1,0.055,-0.01
02:20:13.332:1,0.07,0.005
02:20:13.336:1,0.05,-0.01
02:20:13.340:1,0.04,-0.03
02:20:13.344:1,0.035,-0.08
02:20:13.348:1,-0.01,-0.14
02:20:13.352:1,-0.015,-0.195
02:20:13.356:1,-0.045,-0.205
02:20:13.360:1,-0.065,-0.215
02:20:13.364:1,-0.07,-0.215
02:20:13.368:1,-0.08,-0.185
02:20:13.372:1,-0.095,-0.18
02:20:13.376:1,-0.085,-0.175
02:20:13.380:1,-0.075,-0.185
02:20:13.384:1,-0.04,-0.215
02:20:13.388:1,-0.04,-0.22
02:20:13.392:1,-0.04,-0.23
02:20:13.396:1,-0.03,-0.245
02:20:13.400:1,-0.03,-0.255
02:20:13.404:1,-0.035,-0.27
02:20:13.408:1,-0.05,-0.27
02:20:13.412:1,-0.06,-0.275
02:20:13.416:1,-0.05,-0.255
02:20:13.420:1,-0.06,-0.265
02:20:13.424:1,-0.045,-0.285
02:20:13.428:1,-0.06,-0.28
02:20:13.432:1,-0.08,-0.27
02:20:13.436:1,-0.065,-0.275
02:20:13.440:1,-0.07,-0.27
02:20:13.444:1,-0.075,-0.28
02:20:13.448:1,-0.06,-0.275
02:20:13.452:1,-0.055,-0.28
02:20:13.456:1,-0.06,-0.26
02:20:13.460:1,-0.055,-0.25
02:20:13.464:1,-0.045,-0.255
02:20:13.468:1,-0.05,-0.235
02:20:13.472:1,-0.065,-0.16
02:20:13.476:1,-0.045,-0.02
02:20:13.480:1,-0.015,0.18
02:20:13.484:1,-0.01,0.385
02:20:13.488:1,0.04,0.525
02:20:13.492:1,0.095,0.475
02:20:13.496:1,0.16,0.285
02:20:13.500:1,0.185,-0.13
02:20:13.504:1,0.16,-0.665
02:20:13.508:1,0.105,-1.025
02:20:13.512:1,0.045,-1.12
02:20:13.516:1,-0.105,-1.09
02:20:13.520:1,-0.255,-0.945
02:20:13.524:1,-0.33,-0.805
02:20:13.528:1,-0.35,-0.665
02:20:13.532:1,-0.335,-0.54
02:20:13.536:1,-0.32,-0.44
02:20:13.540:1,-0.25,-0.32
02:20:13.544:1,-0.2,-0.28
02:20:13.548:1,-0.125,-0.295
02:20:13.552:1,-0.09,-0.27
02:20:13.556:1,-0.06,-0.275
02:20:13.560:1,-0.06,-0.255
02:20:13.564:1,-0.075,-0.265
02:20:13.568:1,-0.08,-0.265
02:20:13.572:1,-0.065,-0.265
02:20:13.576:1,-0.085,-0.26
02:20:13.580:1,-0.09,-0.27
02:20:13.584:1,-0.075,-0.26
02:20:13.588:1,-0.09,-0.28
02:20:13.592:1,-0.09,-0.26
02:20:13.596:1,-0.085,-0.27
02:20:13.600:1,-0.06,-0.26
02:20:13.604:1,-0.055,-0.265
02:20:13.608:1,-0.06,-0.27
02:20:13.612:1,-0.065,-0.27
02:20:13.616:1,-0.07,-0.255
02:20:13.620:1,-0.06,-0.255
02:20:13.624:1,-0.075,-0.25
02:20:13.628:1,-0.08,-0.265
02:20:13.632:1,-0.075,-0.235
02:20:13.636:1,-0.075,-0.25
02:20:13.640:1,-0.075,-0.24
02:20:13.644:1,-0.08,-0.235
02:20:13.648:1,-0.09,-0.245
02:20:13.652:1,-0.075,-0.24
02:20:13.656:1,-0.08,-0.23
02:20:13.660:1,-0.08,-0.23
02:20:13.664:1,-0.085,-0.235
02:20:13.668:1,-0.09,-0.235
02:20:13.672:1,-0.08,-0.22
02:20:13.676:1,-0.055,-0.23
02:20:13.680:1,-0.065,-0.205
02:20:13.684:1,-0.085,-0.205
02:20:13.688:1,-0.08,-0.205
02:20:13.692:1,-0.08,-0.195
02:20:13.696:1,-0.08,-0.185
02:20:13.700:1,-0.08,-0.185
02:20:13.704:1,-0.09,-0.195
02:20:13.708:1,-0.07,-0.2
02:20:13.712:1,-0.08,-0.18
02:20:13.716:1,-0.08,-0.17
02:20:13.720:1,-0.095,-0.175
02:20:13.724:1,-0.1,-0.155
02:20:13.728:1,-0.085,-0.165
02:20:13.732:1,-0.08,-0.165
02:20:13.736:1,-0.08,-0.15
02:20:13.740:1,-0.105,-0.16
02:20:13.744:1,-0.08,-0.16
02:20:13.748:1,-0.09,-0.16
02:20:13.752:1,-0.1,-0.135
02:20:13.756:1,-0.09,-0.11
02:20:13.760:1,-0.085,-0.115
02:20:13.764:1,-0.095,-0.12
02:20:13.768:1,-0.09,-0.105
02:20:13.772:1,-0.1,-0.11
02:20:13.776:1,-0.08,-0.105
02:20:13.780:1,-0.06,-0.115
02:20:13.784:1,-0.065,-0.125
02:20:13.788:1,-0.065,-0.14
02:20:13.792:1,-0.075,-0.14
02:20:13.796:1,-0.07,-0.135
02:20:13.800:1,-0.055,-0.155
02:20:13.804:1,-0.05,-0.16
02:20:13.808:1,-0.04,-0.16
02:20:13.812:1,-0.055,-0.17
02:20:13.816:1,-0.06,-0.165
02:20:13.820:1,-0.06,-0.16
02:20:13.824:1,-0.05,-0.17
02:20:13.828:1,-0.065,-0.185
02:20:13.832:1,-0.075,-0.17
02:20:13.836:1,-0.055,-0.165
02:20:13.840:1,-0.055,-0.16
02:20:13.844:1,-0.05,-0.175
02:20:13.848:1,-0.06,-0.17
02:20:13.852:1,-0.04,-0.16
02:20:13.856:1,-0.06,-0.165
02:20:13.860:1,-0.04,-0.17
02:20:13.864:1,-0.06,-0.175
02:20:13.868:1,-0.06,-0.185
02:20:13.872:1,-0.05,-0.145
02:20:13.876:1,-0.045,-0.155
02:20:13.880:1,-0.06,-0.145
02:20:13.884:1,-0.045,-0.18
02:20:13.888:1,-0.055,-0.185
02:20:13.892:1,-0.04,-0.155
02:20:13.896:1,-0.055,-0.155
02:20:13.900:1,-0.04,-0.165
02:20:13.904:1,-0.055,-0.17
02:20:13.908:1,-0.05,-0.16
02:20:13.912:1,-0.055,-0.18
02:20:13.916:1,-0.05,-0.195
02:20:13.920:1,-0.07,-0.18
02:20:13.924:1,-0.04,-0.18
02:20:13.928:1,-0.055,-0.18
02:20:13.932:1,-0.04,-0.18
02:20:13.936:1,-0.05,-0.185
02:20:13.940:1,-0.055,-0.185
02:20:13.944:1,-0.04,-0.195
02:20:13.948:1,-0.075,-0.2
02:20:13.952:1,-0.055,-0.19
02:20:13.956:1,-0.045,-0.2
02:20:13.960:1,-0.06,-0.18
02:20:13.964:1,-0.06,-0.2
02:20:13.968:1,-0.065,-0.205
02:20:13.972:1,-0.065,-0.19
02:20:13.976:1,-0.07,-0.16
02:20:13.980:1,-0.065,-0.155
02:20:13.984:1,-0.06,-0.115
02:20:13.988:1,-0.035,-0.08
02:20:13.992:1,-0.04,-0.06
02:20:13.996:1,-0.015,-0.025
02:20:14.000:1,-0.01,-0.015
02:20:14.004:1,0.015,-0.025
02:20:14.008:1,0.015,-0.03
02:20:14.012:1,0.015,-0.02
02:20:14.016:1,0.015,-0.005
02:20:14.020:1,0.02,-0.035
02:20:14.024:1,0.0,-0.09
02:20:14.028:1,-0.04,-0.14
02:20:14.032:1,-0.035,-0.2
02:20:14.036:1,-0.06,-0.245
02:20:14.040:1,-0.075,-0.215
02:20:14.044:1,-0.095,-0.225
02:20:14.048:1,-0.11,-0.215
02:20:14.052:1,-0.115,-0.205
02:20:14.056:1,-0.11,-0.18
02:20:14.060:1,-0.085,-0.205
02:20:14.064:1,-0.05,-0.215
02:20:14.068:1,-0.065,-0.225
02:20:14.072:1,-0.06,-0.26
02:20:14.076:1,-0.055,-0.25
02:20:14.080:1,-0.06,-0.26
02:20:14.084:1,-0.065,-0.275
02:20:14.088:1,-0.06,-0.295
02:20:14.092:1,-0.08,-0.29
02:20:14.096:1,-0.1,-0.28
02:20:14.100:1,-0.09,-0.28
02:20:14.104:1,-0.07,-0.29
02:20:14.108:1,-0.08,-0.295
02:20:14.112:1,-0.08,-0.275
02:20:14.116:1,-0.08,-0.275
02:20:14.120:1,-0.09,-0.28
02:20:14.124:1,-0.09,-0.295
02:20:14.128:1,-0.09,-0.3
02:20:14.132:1,-0.08,-0.285
02:20:14.136:1,-0.085,-0.275
02:20:14.140:1,-0.08,-0.275
02:20:14.144:1,-0.08,-0.26
02:20:14.148:1,-0.075,-0.27
02:20:14.152:1,-0.09,-0.225
02:20:14.156:1,-0.07,-0.105
02:20:14.160:1,-0.065,0.065
02:20:14.164:1,-0.03,0.275
02:20:14.168:1,-0.01,0.45
02:20:14.172:1,0.045,0.48
02:20:14.176:1,0.115,0.37
02:20:14.180:1,0.17,0.055
02:20:14.184:1,0.17,-0.41
02:20:14.188:1,0.145,-0.84
02:20:14.192:1,0.095,-1.085
02:20:14.196:1,0.015,-1.145
02:20:14.200:1,-0.12,-1.06
02:20:14.204:1,-0.24,-0.91
02:20:14.208:1,-0.315,-0.79
02:20:14.212:1,-0.32,-0.665
02:20:14.216:1,-0.32,-0.52
02:20:14.220:1,-0.295,-0.43
02:20:14.224:1,-0.245,-0.33
02:20:14.228:1,-0.175,-0.265
02:20:14.232:1,-0.13,-0.26
02:20:14.236:1,-0.08,-0.27
02:20:14.240:1,-0.065,-0.255
02:20:14.244:1,-0.075,-0.265
02:20:14.248:1,-0.08,-0.275
02:20:14.252:1,-0.07,-0.25
02:20:14.256:1,-0.055,-0.25
02:20:14.260:1,-0.05,-0.23
02:20:14.264:1,-0.07,-0.265
02:20:14.268:1,-0.065,-0.255
02:20:14.272:1,-0.065,-0.24
02:20:14.276:1,-0.065,-0.24
02:20:14.280:1,-0.06,-0.235
02:20:14.284:1,-0.06,-0.24
02:20:14.288:1,-0.06,-0.245
02:20:14.292:1,-0.065,-0.24
02:20:14.296:1,-0.06,-0.235
02:20:14.300:1,-0.08,-0.23
02:20:14.304:1,-0.06,-0.235
02:20:14.308:1,-0.075,-0.225
02:20:14.312:1,-0.055,-0.225
02:20:14.316:1,-0.05,-0.225
02:20:14.320:1,-0.055,-0.22
02:20:14.324:1,-0.065,-0.205
02:20:14.328:1,-0.07,-0.205
02:20:14.332:1,-0.07,-0.21
02:20:14.336:1,-0.06,-0.21
02:20:14.340:1,-0.075,-0.18
02:20:14.344:1,-0.06,-0.185
02:20:14.348:1,-0.07,-0.19
02:20:14.352:1,-0.045,-0.18
02:20:14.356:1,-0.06,-0.155
02:20:14.360:1,-0.06,-0.155
02:20:14.364:1,-0.05,-0.14
02:20:14.368:1,-0.05,-0.15
02:20:14.372:1,-0.065,-0.145
02:20:14.376:1,-0.04,-0.145
02:20:14.380:1,-0.055,-0.125
02:20:14.384:1,-0.05,-0.125
02:20:14.388:1,-0.06,-0.125
02:20:14.392:1,-0.03,-0.125
02:20:14.396:1,-0.035,-0.115
02:20:14.400:1,-0.04,-0.11
02:20:14.404:1,-0.025,-0.115
02:20:14.408:1,-0.05,-0.12
02:20:14.412:1,-0.045,-0.1
02:20:14.416:1,-0.045,-0.095
02:20:14.420:1,-0.06,-0.085
02:20:14.424:1,-0.06,-0.09
02:20:14.428:1,-0.045,-0.08
02:20:14.432:1,-0.02,-0.05
02:20:14.436:1,-0.035,-0.035
02:20:14.440:1,-0.025,-0.035
02:20:14.444:1,-0.005,-0.03
02:20:14.448:1,0.0,-0.015
02:20:14.452:1,-0.025,-0.02
02:20:14.456:1,0.0,-0.01
02:20:14.460:1,-0.005,-0.045
02:20:14.464:1,-0.03,-0.05
02:20:14.468:1,-0.01,-0.07
02:20:14.472:1,-0.015,-0.05
02:20:14.476:1,0.0,-0.05
02:20:14.480:1,0.01,-0.055
02:20:14.484:1,0.025,-0.05
02:20:14.488:1,0.04,-0.06
02:20:14.492:1,0.04,-0.06
02:20:14.496:1,0.065,-0.075
02:20:14.500:1,0.075,-0.075
02:20:14.504:1,0.075,-0.07
02:20:14.508:1,0.085,-0.085
02:20:14.512:1,0.065,-0.095
02:20:14.516:1,0.045,-0.12
02:20:14.520:1,0.005,-0.135
02:20:14.524:1,-0.035,-0.165
02:20:14.528:1,-0.035,-0.16
02:20:14.532:1,-0.055,-0.165
02:20:14.536:1,-0.06,-0.16
02:20:14.540:1,-0.05,-0.16
02:20:14.544:1,-0.055,-0.145
02:20:14.548:1,-0.065,-0.14
02:20:14.552:1,-0.05,-0.155
02:20:14.556:1,-0.05,-0.155
02:20:14.560:1,-0.05,-0.145
02:20:14.564:1,-0.06,-0.15
02:20:14.568:1,-0.06,-0.145
02:20:14.572:1,-0.055,-0.14
02:20:14.576:1,-0.05,-0.13
02:20:14.580:1,-0.065,-0.14
02:20:14.584:1,-0.065,-0.14
02:20:14.588:1,-0.075,-0.155
02:20:14.592:1,-0.05,-0.155
02:20:14.596:1,-0.065,-0.175
02:20:14.600:1,-0.075,-0.18
02:20:14.604:1,-0.065,-0.155
02:20:14.608:1,-0.05,-0.015
02:20:14.612:1,-0.035,0.175
02:20:14.616:1,0.0,0.38
02:20:14.620:1,0.03,0.5
02:20:14.624:1,0.105,0.36
02:20:14.628:1,0.155,0.075
02:20:14.632:1,0.155,-0.29
02:20:14.636:1,0.1,-0.7
02:20:14.640:1,0.025,-0.97
02:20:14.644:1,-0.07,-1.045
02:20:14.648:1,-0.24,-0.985
02:20:14.652:1,-0.39,-0.84
02:20:14.656:1,-0.415,-0.65
02:20:14.660:1,-0.43,-0.48
02:20:14.664:1,-0.385,-0.33
02:20:14.668:1,-0.29,-0.23
02:20:14.672:1,-0.21,-0.205
02:20:14.676:1,-0.135,-0.2
02:20:14.680:1,-0.095,-0.175
02:20:14.684:1,-0.09,-0.19
02:20:14.688:1,-0.06,-0.2
02:20:14.692:1,-0.06,-0.2
02:20:14.696:1,-0.07,-0.2
02:20:14.700:1,-0.07,-0.205
02:20:14.704:1,-0.085,-0.205
02:20:14.708:1,-0.09,-0.21
02:20:14.712:1,-0.095,-0.22
02:20:14.716:1,-0.09,-0.2
02:20:14.720:1,-0.06,-0.2
02:20:14.724:1,-0.09,-0.2
02:20:14.728:1,-0.07,-0.205
02:20:14.732:1,-0.095,-0.2
02:20:14.736:1,-0.075,-0.195
02:20:14.740:1,-0.08,-0.215
02:20:14.744:1,-0.09,-0.2
02:20:14.748:1,-0.08,-0.2
02:20:14.752:1,-0.075,-0.215
02:20:14.756:1,-0.09,-0.2
02:20:14.760:1,-0.075,-0.195
02:20:14.764:1,-0.07,-0.195
02:20:14.768:1,-0.065,-0.205
02:20:14.772:1,-0.085,-0.19
02:20:14.776:1,-0.08,-0.185
02:20:14.780:1,-0.075,-0.165
02:20:14.784:1,-0.075,-0.175
02:20:14.788:1,-0.08,-0.185
02:20:14.792:1,-0.075,-0.16
02:20:14.796:1,-0.075,-0.16
02:20:14.800:1,-0.075,-0.14
02:20:14.804:1,-0.08,-0.14
02:20:14.808:1,-0.08,-0.14
02:20:14.812:1,-0.075,-0.13
02:20:14.816:1,-0.085,-0.105
02:20:14.820:1,-0.075,-0.115
02:20:14.824:1,-0.065,-0.105
02:20:14.828:1,-0.075,-0.1
02:20:14.832:1,-0.065,-0.095
02:20:14.836:1,-0.07,-0.095
02:20:14.840:1,-0.055,-0.08
02:20:14.844:1,-0.065,-0.085
02:20:14.848:1,-0.06,-0.09
02:20:14.852:1,-0.05,-0.085
02:20:14.856:1,-0.05,-0.065
02:20:14.860:1,-0.07,-0.055
02:20:14.864:1,-0.05,-0.04
02:20:14.868:1,-0.05,-0.05
02:20:14.872:1,-0.06,-0.045
02:20:14.876:1,-0.06,-0.035
02:20:14.880:1,-0.04,-0.03
02:20:14.884:1,-0.04,-0.03
02:20:14.888:1,-0.065,-0.045
02:20:14.892:1,-0.035,-0.05
02:20:14.896:1,-0.035,-0.055
02:20:14.900:1,-0.03,-0.06
02:20:14.904:1,-0.04,-0.075
02:20:14.908:1,-0.02,-0.09
02:20:14.912:1,-0.03,-0.075
02:20:14.916:1,-0.035,-0.095
02:20:14.920:1,-0.02,-0.095
02:20:14.924:1,-0.015,-0.115
02:20:14.928:1,-0.02,-0.12
02:20:14.932:1,-0.035,-0.12
02:20:14.936:1,-0.005,-0.1
02:20:14.940:1,-0.02,-0.1
02:20:14.944:1,-0.03,-0.115
02:20:14.948:1,-0.025,-0.12
02:20:14.952:1,-0.03,-0.115
02:20:14.956:1,-0.045,-0.105
02:20:14.960:1,-0.025,-0.115
02:20:14.964:1,-0.02,-0.11
02:20:14.968:1,-0.035,-0.125
02:20:14.972:1,-0.02,-0.12
02:20:14.976:1,-0.02,-0.115
02:20:14.980:1,-0.035,-0.1
02:20:14.984:1,-0.03,-0.1
02:20:14.988:1,-0.03,-0.12
02:20:14.992:1,-0.02,-0.115
02:20:14.996:1,-0.03,-0.11
02:20:15.000:1,-0.005,-0.105
02:20:15.004:1,-0.025,-0.115
02:20:15.008:1,-0.035,-0.11
02:20:15.012:1,-0.01,-0.11
02:20:15.016:1,-0.015,-0.11
02:20:15.020:1,-0.02,-0.115
02:20:15.024:1,-0.02,-0.115
02:20:15.028:1,-0.025,-0.135
02:20:15.032:1,-0.03,-0.135
02:20:15.036:1,-0.03,-0.115
02:20:15.040:1,-0.015,-0.12
02:20:15.044:1,-0.02,-0.135
02:20:15.048:1,-0.03,-0.13
02:20:15.052:1,-0.02,-0.145
02:20:15.056:1,-0.02,-0.155
02:20:15.060:1,-0.03,-0.14
02:20:15.064:1,-0.04,-0.12
02:20:15.068:1,-0.025,-0.155
02:20:15.072:1,-0.03,-0.155
02:20:15.076:1,-0.05,-0.14
02:20:15.080:1,-0.04,-0.145
02:20:15.084:1,-0.035,-0.16
02:20:15.088:1,-0.035,-0.16
02:20:15.092:1,-0.035,-0.16
02:20:15.096:1,-0.02,-0.145
02:20:15.100:1,-0.02,-0.15
02:20:15.104:1,-0.04,-0.13
02:20:15.108:1,-0.035,-0.155
02:20:15.112:1,-0.03,-0.16
02:20:15.116:1,-0.035,-0.14
02:20:15.120:1,-0.03,-0.14
02:20:15.124:1,-0.035,-0.14
02:20:15.128:1,-0.045,-0.145
02:20:15.132:1,-0.045,-0.145
02:20:15.136:1,-0.03,-0.145
02:20:15.140:1,-0.02,-0.15
02:20:15.144:1,-0.025,-0.13
02:20:15.148:1,-0.035,-0.14
02:20:15.152:1,-0.04,-0.16
02:20:15.156:1,-0.035,-0.145
02:20:15.160:1,-0.015,-0.155
02:20:15.164:1,-0.03,-0.14
02:20:15.168:1,-0.025,-0.135
02:20:15.172:1,-0.045,-0.135
02:20:15.176:1,-0.015,-0.145
02:20:15.180:1,-0.02,-0.145
02:20:15.184:1,-0.035,-0.15
02:20:15.188:1,-0.045,-0.155
02:20:15.192:1,-0.025,-0.145
02:20:15.196:1,-0.025,-0.14
02:20:15.200:1,-0.02,-0.13
02:20:15.204:1,-0.015,-0.14
02:20:15.208:1,-0.02,-0.145
02:20:15.212:1,-0.03,-0.13
02:20:15.216:1,-0.025,-0.135
02:20:15.220:1,-0.03,-0.13
02:20:15.224:1,-0.02,-0.13
02:20:15.228:1,-0.035,-0.14
02:20:15.232:1,-0.025,-0.14
02:20:15.236:1,-0.045,-0.12
02:20:15.240:1,-0.025,-0.12
02:20:15.244:1,-0.01,-0.135
02:20:15.248:1,-0.02,-0.14
02:20:15.252:1,-0.03,-0.12
02:20:15.256:1,-0.025,-0.125
02:20:15.260:1,-0.025,-0.125
02:20:15.264:1,-0.03,-0.095
02:20:15.268:1,-0.03,-0.07
02:20:15.272:1,0.0,-0.04
02:20:15.276:1,0.0,-0.015
02:20:15.280:1,0.015,0.02
02:20:15.284:1,0.03,0.03
02:20:15.288:1,0.04,0.04
02:20:15.292:1,0.04,0.045
02:20:15.296:1,0.06,0.05
02:20:15.300:1,0.06,0.045
02:20:15.304:1,0.03,0.02
02:20:15.308:1,0.015,-0.04
02:20:15.312:1,0.0,-0.11
02:20:15.316:1,-0.025,-0.15
02:20:15.320:1,-0.045,-0.155
02:20:15.324:1,-0.06,-0.17
02:20:15.328:1,-0.075,-0.13
02:20:15.332:1,-0.07,-0.105
02:20:15.336:1,-0.07,-0.11
02:20:15.340:1,-0.065,-0.105
02:20:15.344:1,-0.04,-0.125
02:20:15.348:1,-0.04,-0.145
02:20:15.352:1,-0.005,-0.15
02:20:15.356:1,-0.015,-0.155
02:20:15.360:1,0.0,-0.165
02:20:15.364:1,-0.025,-0.18
02:20:15.368:1,-0.03,-0.21
02:20:15.372:1,-0.05,-0.225
02:20:15.376:1,-0.045,-0.21
02:20:15.380:1,-0.055,-0.205
02:20:15.384:1,-0.05,-0.205
02:20:15.388:1,-0.06,-0.2
02:20:15.392:1,-0.055,-0.205
02:20:15.396:1,-0.05,-0.205
02:20:15.400:1,-0.04,-0.21
02:20:15.404:1,-0.065,-0.205
02:20:15.408:1,-0.05,-0.21
02:20:15.412:1,-0.045,-0.215
02:20:15.416:1,-0.04,-0.205
02:20:15.420:1,-0.035,-0.2
02:20:15.424:1,-0.045,-0.18
02:20:15.428:1,-0.04,-0.14
02:20:15.432:1,-0.04,0.0
02:20:15.436:1,0.005,0.23
02:20:15.440:1,0.02,0.465
02:20:15.444:1,0.055,0.655
02:20:15.448:1,0.11,0.615
02:20:15.452:1,0.19,0.405
02:20:15.456:1,0.2,0.065
02:20:15.460:1,0.165,-0.38
02:20:15.464:1,0.085,-0.835
02:20:15.468:1,-0.025,-1.03
02:20:15.472:1,-0.225,-1.07
02:20:15.476:1,-0.36,-0.95
02:20:15.480:1,-0.43,-0.765
02:20:15.484:1,-0.425,-0.595
02:20:15.488:1,-0.4,-0.475
02:20:15.492:1,-0.32,-0.38
02:20:15.496:1,-0.235,-0.28
02:20:15.500:1,-0.16,-0.23
02:20:15.504:1,-0.105,-0.22
02:20:15.508:1,-0.05,-0.215
02:20:15.512:1,-0.04,-0.225
02:20:15.516:1,-0.045,-0.21
02:20:15.520:1,-0.04,-0.21
02:20:15.524:1,-0.03,-0.195
02:20:15.528:1,-0.045,-0.21
02:20:15.532:1,-0.045,-0.225
02:20:15.536:1,-0.025,-0.2
02:20:15.540:1,-0.055,-0.195
02:20:15.544:1,-0.04,-0.19
02:20:15.548:1,-0.02,-0.185
02:20:15.552:1,-0.04,-0.2
02:20:15.556:1,-0.04,-0.195
02:20:15.560:1,-0.02,-0.19
02:20:15.564:1,-0.05,-0.195
02:20:15.568:1,-0.035,-0.2
02:20:15.572:1,-0.04,-0.195
02:20:15.576:1,-0.03,-0.195
02:20:15.580:1,-0.035,-0.17
02:20:15.584:1,-0.02,-0.165
02:20:15.588:1,-0.03,-0.16
02:20:15.592:1,-0.04,-0.17
02:20:15.596:1,-0.04,-0.16
02:20:15.600:1,-0.03,-0.15
02:20:15.604:1,-0.025,-0.14
02:20:15.608:1,-0.04,-0.155
02:20:15.612:1,-0.045,-0.15
02:20:15.616:1,-0.03,-0.135
02:20:15.620:1,-0.05,-0.105
02:20:15.624:1,-0.025,-0.105
02:20:15.628:1,-0.025,-0.11
02:20:15.632:1,-0.02,-0.09
02:20:15.636:1,-0.015,-0.08
02:20:15.640:1,-0.015,-0.085
02:20:15.644:1,-0.015,-0.06
02:20:15.648:1,-0.005,-0.055
02:20:15.652:1,-0.025,-0.055
02:20:15.656:1,-0.025,-0.045
02:20:15.660:1,-0.025,-0.03
02:20:15.664:1,0.0,-0.035
02:20:15.668:1,-0.01,-0.03
02:20:15.672:1,0.0,-0.025
02:20:15.676:1,-0.005,0.0
02:20:15.680:1,-0.01,0.005
02:20:15.684:1,0.005,0.02
02:20:15.688:1,-0.01,0.01
02:20:15.692:1,0.01,0.025
02:20:15.696:1,0.0,0.02
02:20:15.700:1,-0.01,0.045
02:20:15.704:1,-0.005,0.025
02:20:15.708:1,0.01,0.03
02:20:15.712:1,0.0,0.045
02:20:15.716:1,0.0,0.04
02:20:15.720:1,0.025,0.045
02:20:15.724:1,0.025,0.055
02:20:15.728:1,0.0,0.045
02:20:15.732:1,0.0,0.06
02:20:15.736:1,-0.005,0.05
02:20:15.740:1,-0.01,0.07
02:20:15.744:1,0.01,0.07
02:20:15.748:1,0.0,0.05
02:20:15.752:1,0.0,0.03
02:20:15.756:1,0.0,0.015
02:20:15.760:1,0.0,0.01
02:20:15.764:1,-0.01,-0.01
02:20:15.768:1,-0.005,-0.045
02:20:15.772:1,-0.025,-0.045
02:20:15.776:1,-0.035,-0.05
02:20:15.780:1,-0.03,-0.045
02:20:15.784:1,-0.015,-0.06
02:20:15.788:1,-0.03,-0.08
02:20:15.792:1,-0.015,-0.08
02:20:15.796:1,-0.03,-0.07
02:20:15.800:1,-0.035,-0.07
02:20:15.804:1,-0.015,-0.085
02:20:15.808:1,-0.025,-0.09
02:20:15.812:1,-0.03,-0.095
02:20:15.816:1,-0.01,-0.095
02:20:15.820:1,-0.01,-0.075
02:20:15.824:1,-0.025,-0.08
02:20:15.828:1,-0.03,-0.09
02:20:15.832:1,-0.01,-0.09
02:20:15.836:1,-0.04,-0.08
02:20:15.840:1,-0.03,-0.075
02:20:15.844:1,-0.03,-0.08
02:20:15.848:1,-0.025,-0.09
02:20:15.852:1,-0.035,-0.085
02:20:15.856:1,-0.03,-0.075
02:20:15.860:1,-0.03,-0.075
02:20:15.864:1,-0.04,-0.095
02:20:15.868:1,-0.04,-0.09
02:20:15.872:1,-0.035,-0.1
02:20:15.876:1,-0.035,-0.085
02:20:15.880:1,-0.03,-0.095
02:20:15.884:1,-0.04,-0.1
02:20:15.888:1,-0.035,-0.115
02:20:15.892:1,-0.035,-0.09
02:20:15.896:1,-0.04,-0.1
02:20:15.900:1,-0.035,-0.095
02:20:15.904:1,-0.03,-0.105
02:20:15.908:1,-0.04,-0.12
02:20:15.912:1,-0.04,-0.13
02:20:15.916:1,-0.035,-0.12
02:20:15.920:1,-0.04,-0.095
02:20:15.924:1,-0.05,-0.115
02:20:15.928:1,-0.04,-0.12
02:20:15.932:1,-0.045,-0.14
02:20:15.936:1,-0.04,-0.125
02:20:15.940:1,-0.05,-0.115
02:20:15.944:1,-0.04,-0.1
02:20:15.948:1,-0.025,-0.08
02:20:15.952:1,-0.02,-0.045
02:20:15.956:1,-0.02,-0.02
02:20:15.960:1,0.0,0.01
02:20:15.964:1,0.0,0.02
02:20:15.968:1,0.03,-0.005
02:20:15.972:1,0.03,0.0
02:20:15.976:1,0.015,0.025
02:20:15.980:1,0.03,0.025
02:20:15.984:1,0.035,0.0
02:20:15.988:1,0.005,-0.025
02:20:15.992:1,-0.01,-0.08
02:20:15.996:1,-0.035,-0.135
02:20:16.000:1,-0.065,-0.175
02:20:16.004:1,-0.085,-0.18
02:20:16.008:1,-0.08,-0.205
02:20:16.012:1,-0.1,-0.165
02:20:16.016:1,-0.1,-0.14
02:20:16.020:1,-0.095,-0.13
02:20:16.024:1,-0.045,-0.145
02:20:16.028:1,-0.075,-0.155
02:20:16.032:1,-0.06,-0.175
02:20:16.036:1,-0.05,-0.185
02:20:16.040:1,-0.05,-0.19
02:20:16.044:1,-0.06,-0.2
02:20:16.048:1,-0.06,-0.23
02:20:16.052:1,-0.06,-0.24
02:20:16.056:1,-0.065,-0.22
02:20:16.060:1,-0.085,-0.225
02:20:16.064:1,-0.085,-0.225
02:20:16.068:1,-0.08,-0.225
02:20:16.072:1,-0.08,-0.245
02:20:16.076:1,-0.075,-0.25
02:20:16.080:1,-0.065,-0.23
02:20:16.084:1,-0.095,-0.24
02:20:16.088:1,-0.09,-0.27
02:20:16.092:1,-0.065,-0.25
02:20:16.096:1,-0.08,-0.23
02:20:16.100:1,-0.09,-0.23
02:20:16.104:1,-0.065,-0.225
02:20:16.108:1,-0.07,-0.235
02:20:16.112:1,-0.065,-0.225
02:20:16.116:1,-0.07,-0.165
02:20:16.120:1,-0.05,-0.06
02:20:16.124:1,-0.035,0.095
02:20:16.128:1,-0.035,0.285
02:20:16.132:1,0.0,0.47
02:20:16.136:1,0.04,0.53
02:20:16.140:1,0.115,0.38
02:20:16.144:1,0.17,0.08
02:20:16.148:1,0.15,-0.385
02:20:16.152:1,0.125,-0.85
02:20:16.156:1,0.095,-1.075
02:20:16.160:1,-0.005,-1.11
02:20:16.164:1,-0.15,-1.035
02:20:16.168:1,-0.27,-0.88
02:20:16.172:1,-0.32,-0.73
02:20:16.176:1,-0.345,-0.59
02:20:16.180:1,-0.33,-0.48
02:20:16.184:1,-0.28,-0.37
02:20:16.188:1,-0.21,-0.29
02:20:16.192:1,-0.17,-0.25
02:20:16.196:1,-0.1,-0.245
02:20:16.200:1,-0.08,-0.24
02:20:16.204:1,-0.07,-0.25
02:20:16.208:1,-0.05,-0.245
02:20:16.212:1,-0.065,-0.235
02:20:16.216:1,-0.075,-0.24
02:20:16.220:1,-0.07,-0.235
02:20:16.224:1,-0.06,-0.225
02:20:16.228:1,-0.05,-0.23
02:20:16.232:1,-0.06,-0.22
02:20:16.236:1,-0.06,-0.225
02:20:16.240:1,-0.055,-0.225
02:20:16.244:1,-0.07,-0.225
02:20:16.248:1,-0.075,-0.225
02:20:16.252:1,-0.065,-0.23
02:20:16.256:1,-0.06,-0.21
02:20:16.260:1,-0.055,-0.215
02:20:16.264:1,-0.06,-0.225
02:20:16.268:1,-0.07,-0.225
02:20:16.272:1,-0.085,-0.205
02:20:16.276:1,-0.08,-0.225
02:20:16.280:1,-0.065,-0.2
02:20:16.284:1,-0.06,-0.195
02:20:16.288:1,-0.075,-0.21
02:20:16.292:1,-0.085,-0.205
02:20:16.296:1,-0.08,-0.185
02:20:16.300:1,-0.075,-0.165
02:20:16.304:1,-0.075,-0.175
02:20:16.308:1,-0.055,-0.17
02:20:16.312:1,-0.07,-0.15
02:20:16.316:1,-0.06,-0.155
02:20:16.320:1,-0.07,-0.15
02:20:16.324:1,-0.075,-0.145
02:20:16.328:1,-0.065,-0.14
02:20:16.332:1,-0.05,-0.135
02:20:16.336:1,-0.075,-0.125
02:20:16.340:1,-0.055,-0.12
02:20:16.344:1,-0.065,-0.13
02:20:16.348:1,-0.06,-0.125
02:20:16.352:1,-0.08,-0.11
02:20:16.356:1,-0.06,-0.105
02:20:16.360:1,-0.07,-0.11
02:20:16.364:1,-0.07,-0.12
02:20:16.368:1,-0.075,-0.115
02:20:16.372:1,-0.055,-0.11
02:20:16.376:1,-0.055,-0.105
02:20:16.380:1,-0.075,-0.1
02:20:16.384:1,-0.07,-0.09
02:20:16.388:1,-0.08,-0.115
02:20:16.392:1,-0.05,-0.1
02:20:16.396:1,-0.05,-0.075
02:20:16.400:1,-0.07,-0.06
02:20:16.404:1,-0.06,-0.07
02:20:16.408:1,-0.06,-0.065
02:20:16.412:1,-0.06,-0.06
02:20:16.416:1,-0.075,-0.06
02:20:16.420:1,-0.06,-0.06
02:20:16.424:1,-0.045,-0.065
02:20:16.428:1,-0.04,-0.085
02:20:16.432:1,-0.05,-0.09
02:20:16.436:1,-0.02,-0.09
02:20:16.440:1,-0.04,-0.1
02:20:16.444:1,-0.035,-0.11
02:20:16.448:1,-0.035,-0.12
02:20:16.452:1,-0.03,-0.115
02:20:16.456:1,-0.03,-0.12
02:20:16.460:1,-0.03,-0.13
02:20:16.464:1,-0.035,-0.125
02:20:16.468:1,-0.045,-0.125
02:20:16.472:1,-0.04,-0.14
02:20:16.476:1,-0.015,-0.125
02:20:16.480:1,-0.04,-0.105
02:20:16.484:1,-0.025,-0.115
02:20:16.488:1,-0.03,-0.135
02:20:16.492:1,-0.025,-0.12
02:20:16.496:1,-0.05,-0.11
02:20:16.500:1,-0.01,-0.1
02:20:16.504:1,-0.035,-0.12
02:20:16.508:1,-0.035,-0.125
02:20:16.512:1,-0.025,-0.12
02:20:16.516:1,-0.04,-0.1
02:20:16.520:1,-0.03,-0.11
02:20:16.524:1,-0.025,-0.105
02:20:16.528:1,-0.02,-0.105
02:20:16.532:1,-0.03,-0.105
02:20:16.536:1,-0.035,-0.09
02:20:16.540:1,-0.04,-0.09
02:20:16.544:1,-0.03,-0.085
02:20:16.548:1,-0.025,-0.105
02:20:16.552:1,-0.03,-0.09
02:20:16.556:1,-0.035,-0.095
02:20:16.560:1,-0.04,-0.085
02:20:16.564:1,-0.035,-0.11
02:20:16.568:1,-0.02,-0.105
02:20:16.572:1,-0.035,-0.11
02:20:16.576:1,-0.045,-0.11
02:20:16.580:1,-0.035,-0.105
02:20:16.584:1,-0.035,-0.115
02:20:16.588:1,-0.045,-0.135
02:20:16.592:1,-0.045,-0.125
02:20:16.596:1,-0.035,-0.1
02:20:16.600:1,-0.06,-0.12
02:20:16.604:1,-0.04,-0.12
02:20:16.608:1,-0.035,-0.13
02:20:16.612:1,-0.04,-0.105
02:20:16.616:1,-0.075,-0.085
02:20:16.620:1,-0.04,-0.08
02:20:16.624:1,-0.035,-0.05
02:20:16.628:1,-0.025,-0.02
02:20:16.632:1,-0.01,-0.005
02:20:16.636:1,0.005,0.02
02:20:16.640:1,0.0,0.05
02:20:16.644:1,0.02,0.045
02:20:16.648:1,0.03,0.05
02:20:16.652:1,0.045,0.06
02:20:16.656:1,0.025,0.06
02:20:16.660:1,0.05,0.045
02:20:16.664:1,0.015,-0.015
02:20:16.668:1,-0.025,-0.075
02:20:16.672:1,-0.045,-0.145
02:20:16.676:1,-0.05,-0.17
02:20:16.680:1,-0.075,-0.165
02:20:16.684:1,-0.09,-0.16
02:20:16.688:1,-0.105,-0.145
02:20:16.692:1,-0.105,-0.12
02:20:16.696:1,-0.11,-0.125
02:20:16.700:1,-0.07,-0.12
02:20:16.704:1,-0.06,-0.145
02:20:16.708:1,-0.045,-0.17
02:20:16.712:1,-0.05,-0.175
02:20:16.716:1,-0.04,-0.195
02:20:16.720:1,-0.04,-0.21
02:20:16.724:1,-0.06,-0.215
02:20:16.728:1,-0.05,-0.225
02:20:16.732:1,-0.075,-0.225
02:20:16.736:1,-0.095,-0.24
02:20:16.740:1,-0.08,-0.24
02:20:16.744:1,-0.09,-0.255
02:20:16.748:1,-0.095,-0.25
02:20:16.752:1,-0.08,-0.24
02:20:16.756:1,-0.055,-0.215
02:20:16.760:1,-0.095,-0.23
02:20:16.764:1,-0.075,-0.225
02:20:16.768:1,-0.075,-0.225
02:20:16.772:1,-0.075,-0.22
02:20:16.776:1,-0.08,-0.225
02:20:16.780:1,-0.07,-0.23
02:20:16.784:1,-0.08,-0.23
02:20:16.788:1,-0.075,-0.19
02:20:16.792:1,-0.06,-0.11
02:20:16.796:1,-0.04,0.045
02:20:16.800:1,-0.025,0.275
02:20:16.804:1,-0.025,0.49
02:20:16.808:1,0.025,0.61
02:20:16.812:1,0.08,0.525
02:20:16.816:1,0.17,0.28
02:20:16.820:1,0.165,-0.18
02:20:16.824:1,0.135,-0.69
02:20:16.828:1,0.09,-0.995
02:20:16.832:1,-0.02,-1.065
02:20:16.836:1,-0.175,-1.0
02:20:16.840:1,-0.275,-0.865
02:20:16.844:1,-0.35,-0.725
02:20:16.848:1,-0.355,-0.585
02:20:16.852:1,-0.32,-0.465
02:20:16.856:1,-0.305,-0.37
02:20:16.860:1,-0.25,-0.275
02:20:16.864:1,-0.185,-0.24
02:20:16.868:1,-0.13,-0.245
02:20:16.872:1,-0.09,-0.225
02:20:16.876:1,-0.075,-0.225
02:20:16.880:1,-0.08,-0.225
02:20:16.884:1,-0.08,-0.225
02:20:16.888:1,-0.09,-0.215
02:20:16.892:1,-0.075,-0.22
02:20:16.896:1,-0.075,-0.225
02:20:16.900:1,-0.08,-0.205
02:20:16.904:1,-0.095,-0.225
02:20:16.908:1,-0.09,-0.22
02:20:16.912:1,-0.1,-0.21
02:20:16.916:1,-0.09,-0.21
02:20:16.920:1,-0.09,-0.21
02:20:16.924:1,-0.075,-0.22
02:20:16.928:1,-0.085,-0.215
02:20:16.932:1,-0.075,-0.19
02:20:16.936:1,-0.065,-0.19
02:20:16.940:1,-0.08,-0.19
02:20:16.944:1,-0.08,-0.195
02:20:16.948:1,-0.075,-0.195
02:20:16.952:1,-0.06,-0.195
02:20:16.956:1,-0.08,-0.18
02:20:16.960:1,-0.08,-0.175
02:20:16.964:1,-0.085,-0.175
02:20:16.968:1,-0.095,-0.17
02:20:16.972:1,-0.085,-0.175
02:20:16.976:1,-0.08,-0.16
02:20:16.980:1,-0.09,-0.15
02:20:16.984:1,-0.095,-0.145
02:20:16.988:1,-0.08,-0.16
02:20:16.992:1,-0.08,-0.135
02:20:16.996:1,-0.08,-0.11
02:20:17.000:1,-0.08,-0.11
02:20:17.004:1,-0.075,-0.105
02:20:17.008:1,-0.075,-0.12
02:20:17.012:1,-0.085,-0.095
02:20:17.016:1,-0.075,-0.095
02:20:17.020:1,-0.06,-0.08
02:20:17.024:1,-0.09,-0.085
02:20:17.028:1,-0.07,-0.09
02:20:17.032:1,-0.06,-0.085
02:20:17.036:1,-0.07,-0.06
02:20:17.040:1,-0.055,-0.07
02:20:17.044:1,-0.055,-0.075
02:20:17.048:1,-0.065,-0.07
02:20:17.052:1,-0.065,-0.06
02:20:17.056:1,-0.04,-0.06
02:20:17.060:1,-0.07,-0.07
02:20:17.064:1,-0.08,-0.06
02:20:17.068:1,-0.065,-0.045
02:20:17.072:1,-0.05,-0.04
02:20:17.076:1,-0.045,-0.04
02:20:17.080:1,-0.065,-0.025
02:20:17.084:1,-0.05,-0.05
02:20:17.088:1,-0.06,-0.05
02:20:17.092:1,-0.05,-0.025
02:20:17.096:1,-0.055,-0.04
02:20:17.100:1,-0.035,-0.045
02:20:17.104:1,-0.065,-0.07
02:20:17.108:1,-0.03,-0.08
02:20:17.112:1,-0.05,-0.075
02:20:17.116:1,-0.05,-0.075
02:20:17.120:1,-0.05,-0.085
02:20:17.124:1,-0.04,-0.1
02:20:17.128:1,-0.045,-0.115
02:20:17.132:1,-0.055,-0.11
02:20:17.136:1,-0.045,-0.105
02:20:17.140:1,-0.045,-0.11
02:20:17.144:1,-0.05,-0.11
02:20:17.148:1,-0.03,-0.12
02:20:17.152:1,-0.04,-0.11
02:20:17.156:1,-0.06,-0.105
02:20:17.160:1,-0.055,-0.105
02:20:17.164:1,-0.055,-0.12
02:20:17.168:1,-0.05,-0.11
02:20:17.172:1,-0.055,-0.1
02:20:17.176:1,-0.065,-0.105
02:20:17.180:1,-0.07,-0.11
02:20:17.184:1,-0.05,-0.105
02:20:17.188:1,-0.055,-0.1
02:20:17.192:1,-0.045,-0.09
02:20:17.196:1,-0.04,-0.08
02:20:17.200:1,-0.045,-0.08
02:20:17.204:1,-0.045,-0.1
02:20:17.208:1,-0.055,-0.095
02:20:17.212:1,-0.06,-0.08
02:20:17.216:1,-0.04,-0.085
02:20:17.220:1,-0.045,-0.095
02:20:17.224:1,-0.04,-0.095
02:20:17.228:1,-0.05,-0.1
02:20:17.232:1,-0.06,-0.095
02:20:17.236:1,-0.055,-0.095
02:20:17.240:1,-0.065,-0.09
02:20:17.244:1,-0.045,-0.11
02:20:17.248:1,-0.045,-0.115
02:20:17.252:1,-0.055,-0.1
02:20:17.256:1,-0.05,-0.105
02:20:17.260:1,-0.05,-0.105
02:20:17.264:1,-0.055,-0.1
02:20:17.268:1,-0.06,-0.11
02:20:17.272:1,-0.05,-0.105
02:20:17.276:1,-0.05,-0.095
02:20:17.280:1,-0.06,-0.095
02:20:17.284:1,-0.055,-0.1
02:20:17.288:1,-0.07,-0.06
02:20:17.292:1,-0.065,-0.02
02:20:17.296:1,-0.04,-0.005
02:20:17.300:1,-0.01,0.0
02:20:17.304:1,-0.015,0.04
02:20:17.308:1,0.005,0.04
02:20:17.312:1,0.025,0.05
02:20:17.316:1,0.015,0.045
02:20:17.320:1,0.025,0.05
02:20:17.324:1,0.02,0.045
02:20:17.328:1,0.005,0.02
02:20:17.332:1,-0.005,-0.04
02:20:17.336:1,-0.05,-0.095
02:20:17.340:1,-0.07,-0.15
02:20:17.344:1,-0.085,-0.16
02:20:17.348:1,-0.1,-0.15
02:20:17.352:1,-0.105,-0.135
02:20:17.356:1,-0.12,-0.11
02:20:17.360:1,-0.12,-0.1
02:20:17.364:1,-0.115,-0.12
02:20:17.368:1,-0.07,-0.125
02:20:17.372:1,-0.065,-0.155
02:20:17.376:1,-0.07,-0.155
02:20:17.380:1,-0.07,-0.185
02:20:17.384:1,-0.06,-0.19
02:20:17.388:1,-0.05,-0.195
02:20:17.392:1,-0.06,-0.2
02:20:17.396:1,-0.09,-0.21
02:20:17.400:1,-0.08,-0.225
02:20:17.404:1,-0.09,-0.195
02:20:17.408:1,-0.1,-0.22
02:20:17.412:1,-0.08,-0.205
02:20:17.416:1,-0.095,-0.205
02:20:17.420:1,-0.09,-0.225
02:20:17.424:1,-0.095,-0.225
02:20:17.428:1,-0.09,-0.215
02:20:17.432:1,-0.09,-0.195
02:20:17.436:1,-0.08,-0.2
02:20:17.440:1,-0.07,-0.21
02:20:17.444:1,-0.07,-0.195
02:20:17.448:1,-0.075,-0.21
02:20:17.452:1,-0.08,-0.195
02:20:17.456:1,-0.085,-0.135
02:20:17.460:1,-0.07,-0.01
02:20:17.464:1,-0.05,0.185
02:20:17.468:1,-0.01,0.42
02:20:17.472:1,0.0,0.625
02:20:17.476:1,0.065,0.64
02:20:17.480:1,0.155,0.46
02:20:17.484:1,0.195,0.11
02:20:17.488:1,0.165,-0.385
02:20:17.492:1,0.08,-0.85
02:20:17.496:1,-0.015,-1.055
02:20:17.500:1,-0.185,-1.095
02:20:17.504:1,-0.345,-0.985
02:20:17.508:1,-0.42,-0.81
02:20:17.512:1,-0.43,-0.625
02:20:17.516:1,-0.385,-0.505
02:20:17.520:1,-0.34,-0.385
02:20:17.524:1,-0.28,-0.29
02:20:17.528:1,-0.215,-0.215
02:20:17.532:1,-0.16,-0.23
02:20:17.536:1,-0.1,-0.205
02:20:17.540:1,-0.085,-0.21
02:20:17.544:1,-0.08,-0.22
02:20:17.548:1,-0.07,-0.215
02:20:17.552:1,-0.09,-0.2
02:20:17.556:1,-0.1,-0.205
02:20:17.560:1,-0.09,-0.22
02:20:17.564:1,-0.08,-0.225
02:20:17.568:1,-0.08,-0.19
02:20:17.572:1,-0.095,-0.195
02:20:17.576:1,-0.08,-0.18
02:20:17.580:1,-0.1,-0.2
02:20:17.584:1,-0.085,-0.195
02:20:17.588:1,-0.06,-0.21
02:20:17.592:1,-0.07,-0.2
02:20:17.596:1,-0.075,-0.2
02:20:17.600:1,-0.085,-0.2
02:20:17.604:1,-0.095,-0.2
02:20:17.608:1,-0.095,-0.2
02:20:17.612:1,-0.08,-0.185
02:20:17.616:1,-0.1,-0.175
02:20:17.620:1,-0.07,-0.175
02:20:17.624:1,-0.08,-0.16
02:20:17.628:1,-0.07,-0.185
02:20:17.632:1,-0.07,-0.16
02:20:17.636:1,-0.08,-0.16
02:20:17.640:1,-0.065,-0.165
02:20:17.644:1,-0.075,-0.16
02:20:17.648:1,-0.08,-0.14
02:20:17.652:1,-0.075,-0.135
02:20:17.656:1,-0.08,-0.105
02:20:17.660:1,-0.08,-0.1
02:20:17.664:1,-0.08,-0.09
02:20:17.668:1,-0.06,-0.085
02:20:17.672:1,-0.06,-0.06
02:20:17.676:1,-0.065,-0.04
02:20:17.680:1,-0.05,-0.03
02:20:17.684:1,-0.06,-0.035
02:20:17.688:1,-0.03,-0.025
02:20:17.692:1,-0.025,-0.025
02:20:17.696:1,-0.04,-0.01
02:20:17.700:1,-0.07,-0.04
02:20:17.704:1,-0.065,-0.045
02:20:17.708:1,-0.075,-0.03
02:20:17.712:1,-0.05,0.0
02:20:17.716:1,-0.03,0.015
02:20:17.720:1,-0.005,0.015
02:20:17.724:1,0.0,0.0
02:20:17.728:1,0.005,0.01
02:20:17.732:1,0.005,0.015
02:20:17.736:1,0.025,0.035
02:20:17.740:1,0.035,0.04
02:20:17.744:1,0.03,0.02
02:20:17.748:1,0.02,0.01
02:20:17.752:1,-0.015,-0.01
02:20:17.756:1,-0.035,-0.04
02:20:17.760:1,-0.06,-0.055
02:20:17.764:1,-0.09,-0.08
02:20:17.768:1,-0.105,-0.085
02:20:17.772:1,-0.09,-0.095
02:20:17.776:1,-0.095,-0.1
02:20:17.780:1,-0.095,-0.105
02:20:17.784:1,-0.095,-0.135
02:20:17.788:1,-0.1,-0.15
02:20:17.792:1,-0.095,-0.135
02:20:17.796:1,-0.105,-0.14
02:20:17.800:1,-0.105,-0.16
02:20:17.804:1,-0.1,-0.145
02:20:17.808:1,-0.105,-0.15
02:20:17.812:1,-0.115,-0.145
02:20:17.816:1,-0.1,-0.15
02:20:17.820:1,-0.095,-0.15
02:20:17.824:1,-0.105,-0.16
02:20:17.828:1,-0.105,-0.145
02:20:17.832:1,-0.11,-0.14
02:20:17.836:1,-0.1,-0.13
02:20:17.840:1,-0.105,-0.145
02:20:17.844:1,-0.09,-0.155
02:20:17.848:1,-0.085,-0.165
02:20:17.852:1,-0.095,-0.17
02:20:17.856:1,-0.11,-0.13
02:20:17.860:1,-0.095,-0.015
02:20:17.864:1,-0.1,0.2
02:20:17.868:1,-0.085,0.445
02:20:17.872:1,-0.06,0.65
02:20:17.876:1,-0.005,0.58
02:20:17.880:1,0.05,0.29
02:20:17.884:1,0.1,-0.285
02:20:17.888:1,0.075,-0.885
02:20:17.892:1,0.0,-1.145
02:20:17.896:1,-0.165,-1.145
02:20:17.900:1,-0.315,-0.965
02:20:17.904:1,-0.4,-0.755
02:20:17.908:1,-0.425,-0.58
02:20:17.912:1,-0.39,-0.425
02:20:17.916:1,-0.32,-0.295
02:20:17.920:1,-0.265,-0.205
02:20:17.924:1,-0.195,-0.185
02:20:17.928:1,-0.125,-0.185
02:20:17.932:1,-0.095,-0.175
02:20:17.936:1,-0.1,-0.18
02:20:17.940:1,-0.115,-0.2
02:20:17.944:1,-0.11,-0.185
02:20:17.948:1,-0.095,-0.19
02:20:17.952:1,-0.11,-0.19
02:20:17.956:1,-0.09,-0.185
02:20:17.960:1,-0.11,-0.195
02:20:17.964:1,-0.115,-0.195
02:20:17.968:1,-0.125,-0.205
02:20:17.972:1,-0.1,-0.205
02:20:17.976:1,-0.115,-0.205
02:20:17.980:1,-0.12,-0.2
02:20:17.984:1,-0.11,-0.215
02:20:17.988:1,-0.115,-0.22
02:20:17.992:1,-0.105,-0.22
02:20:17.996:1,-0.105,-0.215
02:20:18.000:1,-0.11,-0.225
02:20:18.004:1,-0.11,-0.215
02:20:18.008:1,-0.085,-0.195
02:20:18.012:1,-0.095,-0.195
02:20:18.016:1,-0.1,-0.185
02:20:18.020:1,-0.085,-0.21
02:20:18.024:1,-0.09,-0.19
02:20:18.028:1,-0.095,-0.195
02:20:18.032:1,-0.1,-0.19
02:20:18.036:1,-0.105,-0.175
02:20:18.040:1,-0.09,-0.16
02:20:18.044:1,-0.095,-0.16
02:20:18.048:1,-0.095,-0.155
02:20:18.052:1,-0.1,-0.145
02:20:18.056:1,-0.095,-0.11
02:20:18.060:1,-0.1,-0.115
02:20:18.064:1,-0.08,-0.12
02:20:18.068:1,-0.08,-0.12
02:20:18.072:1,-0.075,-0.095
02:20:18.076:1,-0.09,-0.085
02:20:18.080:1,-0.07,-0.085
02:20:18.084:1,-0.08,-0.095
02:20:18.088:1,-0.07,-0.085
02:20:18.092:1,-0.06,-0.055
02:20:18.096:1,-0.07,-0.04
02:20:18.100:1,-0.08,-0.045
02:20:18.104:1,-0.065,-0.04
02:20:18.108:1,-0.06,-0.035
02:20:18.112:1,-0.07,-0.01
02:20:18.116:1,-0.07,-0.025
02:20:18.120:1,-0.065,-0.005
02:20:18.124:1,-0.065,0.0
02:20:18.128:1,-0.065,0.0
02:20:18.132:1,-0.045,-0.005
02:20:18.136:1,-0.05,0.01
02:20:18.140:1,-0.05,-0.025
02:20:18.144:1,-0.045,-0.035
02:20:18.148:1,-0.04,-0.04
02:20:18.152:1,-0.045,-0.05
02:20:18.156:1,-0.045,-0.08
02:20:18.160:1,-0.06,-0.09
02:20:18.164:1,-0.06,-0.095
02:20:18.168:1,-0.05,-0.115
02:20:18.172:1,-0.035,-0.105
02:20:18.176:1,-0.055,-0.105
02:20:18.180:1,-0.06,-0.12
02:20:18.184:1,-0.06,-0.13
02:20:18.188:1,-0.05,-0.14
02:20:18.192:1,-0.055,-0.115
02:20:18.196:1,-0.06,-0.13
02:20:18.200:1,-0.05,-0.13
02:20:18.204:1,-0.06,-0.13
02:20:18.208:1,-0.07,-0.145
02:20:18.212:1,-0.05,-0.14
02:20:18.216:1,-0.06,-0.125
02:20:18.220:1,-0.07,-0.13
02:20:18.224:1,-0.065,-0.14
02:20:18.228:1,-0.065,-0.13
02:20:18.232:1,-0.065,-0.135
02:20:18.236:1,-0.06,-0.13
02:20:18.240:1,-0.06,-0.15
02:20:18.244:1,-0.06,-0.13
02:20:18.248:1,-0.065,-0.155
02:20:18.252:1,-0.06,-0.135
02:20:18.256:1,-0.065,-0.135
02:20:18.260:1,-0.06,-0.14
02:20:18.264:1,-0.07,-0.15
02:20:18.268:1,-0.07,-0.155
02:20:18.272:1,-0.06,-0.135
02:20:18.276:1,-0.06,-0.145
02:20:18.280:1,-0.06,-0.15
02:20:18.284:1,-0.07,-0.13
02:20:18.288:1,-0.065,-0.16
02:20:18.292:1,-0.07,-0.155
02:20:18.296:1,-0.06,-0.155
02:20:18.300:1,-0.06,-0.155
02:20:18.304:1,-0.06,-0.155
02:20:18.308:1,-0.07,-0.155
02:20:18.312:1,-0.07,-0.155
02:20:18.316:1,-0.06,-0.155
02:20:18.320:1,-0.055,-0.16
02:20:18.324:1,-0.06,-0.175
02:20:18.328:1,-0.05,-0.16
02:20:18.332:1,-0.06,-0.17
02:20:18.336:1,-0.075,-0.175
02:20:18.340:1,-0.08,-0.155
02:20:18.344:1,-0.06,-0.175
02:20:18.348:1,-0.055,-0.175
02:20:18.352:1,-0.065,-0.17
02:20:18.356:1,-0.05,-0.145
02:20:18.360:1,-0.055,-0.165
02:20:18.364:1,-0.065,-0.19
02:20:18.368:1,-0.07,-0.175
02:20:18.372:1,-0.08,-0.17
02:20:18.376:1,-0.06,-0.165
02:20:18.380:1,-0.055,-0.165
02:20:18.384:1,-0.085,-0.16
02:20:18.388:1,-0.095,-0.185
02:20:18.392:1,-0.045,-0.165
02:20:18.396:1,-0.08,-0.18
02:20:18.400:1,-0.075,-0.17
02:20:18.404:1,-0.075,-0.18
02:20:18.408:1,-0.055,-0.175
02:20:18.412:1,-0.08,-0.16
02:20:18.416:1,-0.075,-0.175
02:20:18.420:1,-0.075,-0.155
02:20:18.424:1,-0.075,-0.165
02:20:18.428:1,-0.08,-0.175
02:20:18.432:1,-0.06,-0.17
02:20:18.436:1,-0.065,-0.175
02:20:18.440:1,-0.065,-0.18
02:20:18.444:1,-0.075,-0.205
02:20:18.448:1,-0.065,-0.18
02:20:18.452:1,-0.08,-0.16
02:20:18.456:1,-0.065,-0.16
02:20:18.460:1,-0.055,-0.165
02:20:18.464:1,-0.065,-0.195
02:20:18.468:1,-0.065,-0.15
02:20:18.472:1,-0.07,-0.16
02:20:18.476:1,-0.08,-0.16
02:20:18.480:1,-0.08,-0.175
02:20:18.484:1,-0.075,-0.185
02:20:18.488:1,-0.055,-0.19
02:20:18.492:1,-0.065,-0.185
02:20:18.496:1,-0.075,-0.18
02:20:18.500:1,-0.075,-0.185
02:20:18.504:1,-0.08,-0.19
02:20:18.508:1,-0.075,-0.185
02:20:18.512:1,-0.065,-0.18
02:20:18.516:1,-0.065,-0.155
02:20:18.520:1,-0.08,-0.125
02:20:18.524:1,-0.075,-0.125
02:20:18.528:1,-0.075,-0.1
02:20:18.532:1,-0.055,-0.07
02:20:18.536:1,-0.03,-0.02
02:20:18.540:1,-0.015,-0.015
02:20:18.544:1,0.0,-0.02
02:20:18.548:1,-0.02,-0.005
02:20:18.552:1,0.0,0.015
02:20:18.556:1,0.01,0.005
02:20:18.560:1,0.02,-0.015
02:20:18.564:1,-0.015,-0.065
02:20:18.568:1,-0.045,-0.12
02:20:18.572:1,-0.06,-0.165
02:20:18.576:1,-0.075,-0.2
02:20:18.580:1,-0.105,-0.21
02:20:18.584:1,-0.12,-0.185
02:20:18.588:1,-0.13,-0.165
02:20:18.592:1,-0.115,-0.16
02:20:18.596:1,-0.1,-0.165
02:20:18.600:1,-0.09,-0.16
02:20:18.604:1,-0.09,-0.205
02:20:18.608:1,-0.08,-0.22
02:20:18.612:1,-0.08,-0.215
02:20:18.616:1,-0.075,-0.215
