Time,ECG1,ECG2
02:25:57.888:1,0.08,-0.045
02:25:57.892:1,0.08,-0.075
02:25:57.896:1,0.06,-0.095
02:25:57.900:1,0.045,-0.1
02:25:57.904:1,0.005,-0.11
02:25:57.908:1,-0.01,-0.08
02:25:57.912:1,0.005,-0.075
02:25:57.916:1,0.015,-0.085
02:25:57.920:1,0.02,-0.075
02:25:57.924:1,0.035,-0.055
02:25:57.928:1,0.035,-0.045
02:25:57.932:1,0.015,-0.05
02:25:57.936:1,0.025,-0.08
02:25:57.940:1,0.04,-0.1
02:25:57.944:1,0.035,-0.085
02:25:57.948:1,0.03,-0.08
02:25:57.952:1,0.055,-0.09
02:25:57.956:1,0.055,-0.1
02:25:57.960:1,0.065,-0.115
02:25:57.964:1,0.065,-0.105
02:25:57.968:1,0.075,-0.115
02:25:57.972:1,0.075,-0.12
02:25:57.976:1,0.085,-0.11
02:25:57.980:1,0.08,-0.115
02:25:57.984:1,0.08,-0.095
02:25:57.988:1,0.11,-0.09
02:25:57.992:1,0.1,-0.085
02:25:57.996:1,0.125,-0.075
02:25:58.000:1,0.105,-0.05
02:25:58.004:1,0.14,-0.08
02:25:58.008:1,0.14,-0.105
02:25:58.012:1,0.115,-0.11
02:25:58.016:1,0.11,-0.12
02:25:58.020:1,0.1,-0.13
02:25:58.024:1,0.11,-0.125
02:25:58.028:1,0.115,-0.125
02:25:58.032:1,0.125,-0.09
02:25:58.036:1,0.13,-0.095
02:25:58.040:1,0.14,-0.08
02:25:58.044:1,0.14,-0.03
02:25:58.048:1,0.15,0.0
02:25:58.052:1,0.155,-0.01
02:25:58.056:1,0.165,-0.015
02:25:58.060:1,0.15,-0.015
02:25:58.064:1,0.14,-0.015
02:25:58.068:1,0.135,-0.04
02:25:58.072:1,0.11,-0.075
02:25:58.076:1,0.125,-0.095
02:25:58.080:1,0.085,-0.085
02:25:58.084:1,0.045,-0.105
02:25:58.088:1,0.04,-0.12
02:25:58.092:1,0.025,-0.12
02:25:58.096:1,0.015,-0.13
02:25:58.100:1,0.03,-0.15
02:25:58.104:1,0.055,-0.155
02:25:58.108:1,0.035,-0.13
02:25:58.112:1,0.035,-0.145
02:25:58.116:1,0.025,-0.155
02:25:58.120:1,0.035,-0.15
02:25:58.124:1,0.025,-0.14
02:25:58.128:1,0.04,-0.145
02:25:58.132:1,0.035,-0.14
02:25:58.136:1,0.05,-0.155
02:25:58.140:1,0.035,-0.135
02:25:58.144:1,0.045,-0.145
02:25:58.148:1,0.055,-0.145
02:25:58.152:1,0.055,-0.155
02:25:58.156:1,0.045,-0.155
02:25:58.160:1,0.035,-0.15
02:25:58.164:1,0.045,-0.16
02:25:58.168:1,0.06,-0.16
02:25:58.172:1,0.05,-0.17
02:25:58.176:1,0.055,-0.175
02:25:58.180:1,0.06,-0.16
02:25:58.184:1,0.055,-0.16
02:25:58.188:1,0.07,-0.16
02:25:58.192:1,0.065,-0.18
02:25:58.196:1,0.065,-0.195
02:25:58.200:1,0.075,-0.185
02:25:58.204:1,0.095,-0.145
02:25:58.208:1,0.08,-0.14
02:25:58.212:1,0.1,-0.14
02:25:58.216:1,0.105,-0.13
02:25:58.220:1,0.095,-0.12
02:25:58.224:1,0.095,-0.1
02:25:58.228:1,0.095,-0.08
02:25:58.232:1,0.075,-0.09
02:25:58.236:1,0.07,-0.1
02:25:58.240:1,0.07,-0.105
02:25:58.244:1,0.065,-0.115
02:25:58.248:1,0.035,-0.115
02:25:58.252:1,0.06,-0.135
02:25:58.256:1,0.03,-0.12
02:25:58.260:1,0.04,-0.15
02:25:58.264:1,0.05,-0.145
02:25:58.268:1,0.03,-0.165
02:25:58.272:1,0.025,-0.155
02:25:58.276:1,0.02,-0.185
02:25:58.280:1,0.035,-0.195
02:25:58.284:1,0.01,-0.195
02:25:58.288:1,0.0,-0.185
02:25:58.292:1,0.005,-0.185
02:25:58.296:1,0.025,-0.18
02:25:58.300:1,0.005,-0.185
02:25:58.304:1,0.005,-0.175
02:25:58.308:1,0.025,-0.175
02:25:58.312:1,0.015,-0.15
02:25:58.316:1,0.025,-0.175
02:25:58.320:1,0.05,-0.16
02:25:58.324:1,0.035,-0.155
02:25:58.328:1,0.04,-0.16
02:25:58.332:1,0.055,-0.18
02:25:58.336:1,0.05,-0.19
02:25:58.340:1,0.045,-0.195
02:25:58.344:1,0.065,-0.2
02:25:58.348:1,0.08,-0.21
02:25:58.352:1,0.065,-0.195
02:25:58.356:1,0.085,-0.135
02:25:58.360:1,0.075,0.0
02:25:58.364:1,0.12,0.18
02:25:58.368:1,0.155,0.46
02:25:58.372:1,0.18,0.695
02:25:58.376:1,0.24,0.785
02:25:58.380:1,0.33,0.67
02:25:58.384:1,0.385,0.36
02:25:58.388:1,0.36,-0.21
02:25:58.392:1,0.325,-0.695
02:25:58.396:1,0.24,-0.97
02:25:58.400:1,0.11,-1.045
02:25:58.404:1,-0.04,-0.94
02:25:58.408:1,-0.16,-0.755
02:25:58.412:1,-0.225,-0.63
02:25:58.416:1,-0.225,-0.515
02:25:58.420:1,-0.205,-0.425
02:25:58.424:1,-0.2,-0.31
02:25:58.428:1,-0.13,-0.235
02:25:58.432:1,-0.065,-0.175
02:25:58.436:1,-0.03,-0.17
02:25:58.440:1,0.0,-0.2
02:25:58.444:1,0.01,-0.22
02:25:58.448:1,0.015,-0.22
02:25:58.452:1,0.0,-0.21
02:25:58.456:1,0.0,-0.195
02:25:58.460:1,0.0,-0.205
02:25:58.464:1,0.0,-0.185
02:25:58.468:1,0.01,-0.175
02:25:58.472:1,0.01,-0.175
02:25:58.476:1,0.02,-0.19
02:25:58.480:1,0.04,-0.17
02:25:58.484:1,0.03,-0.16
02:25:58.488:1,0.035,-0.16
02:25:58.492:1,0.06,-0.185
02:25:58.496:1,0.055,-0.195
02:25:58.500:1,0.06,-0.22
02:25:58.504:1,0.04,-0.22
02:25:58.508:1,0.03,-0.225
02:25:58.512:1,0.065,-0.235
02:25:58.516:1,0.035,-0.25
02:25:58.520:1,0.04,-0.23
02:25:58.524:1,0.06,-0.23
02:25:58.528:1,0.06,-0.24
02:25:58.532:1,0.075,-0.22
02:25:58.536:1,0.1,-0.2
02:25:58.540:1,0.095,-0.175
02:25:58.544:1,0.1,-0.13
02:25:58.548:1,0.085,-0.115
02:25:58.552:1,0.095,-0.13
02:25:58.556:1,0.09,-0.145
02:25:58.560:1,0.065,-0.15
02:25:58.564:1,0.055,-0.145
02:25:58.568:1,0.045,-0.155
02:25:58.572:1,0.03,-0.16
02:25:58.576:1,0.01,-0.19
02:25:58.580:1,0.03,-0.19
02:25:58.584:1,0.01,-0.18
02:25:58.588:1,0.005,-0.18
02:25:58.592:1,0.005,-0.19
02:25:58.596:1,-0.02,-0.195
02:25:58.600:1,-0.005,-0.155
02:25:58.604:1,0.01,-0.175
02:25:58.608:1,0.02,-0.16
02:25:58.612:1,0.02,-0.15
02:25:58.616:1,0.015,-0.16
02:25:58.620:1,0.005,-0.14
02:25:58.624:1,0.02,-0.125
02:25:58.628:1,0.02,-0.12
02:25:58.632:1,0.01,-0.095
02:25:58.636:1,0.03,-0.085
02:25:58.640:1,0.03,-0.06
02:25:58.644:1,0.04,-0.035
02:25:58.648:1,0.07,-0.005
02:25:58.652:1,0.075,-0.01
02:25:58.656:1,0.115,-0.03
02:25:58.660:1,0.12,-0.045
02:25:58.664:1,0.125,-0.035
02:25:58.668:1,0.1,-0.06
02:25:58.672:1,0.115,-0.08
02:25:58.676:1,0.1,-0.11
02:25:58.680:1,0.1,-0.09
02:25:58.684:1,0.13,-0.075
02:25:58.688:1,0.11,-0.085
02:25:58.692:1,0.13,-0.075
02:25:58.696:1,0.125,-0.07
02:25:58.700:1,0.155,-0.045
02:25:58.704:1,0.145,-0.02
02:25:58.708:1,0.155,-0.005
02:25:58.712:1,0.145,-0.005
02:25:58.716:1,0.13,-0.005
02:25:58.720:1,0.115,-0.035
02:25:58.724:1,0.12,-0.045
02:25:58.728:1,0.075,-0.05
02:25:58.732:1,0.075,-0.045
02:25:58.736:1,0.055,-0.07
02:25:58.740:1,0.07,-0.095
02:25:58.744:1,0.07,-0.095
02:25:58.748:1,0.045,-0.09
02:25:58.752:1,0.06,-0.105
02:25:58.756:1,0.06,-0.095
02:25:58.760:1,0.065,-0.08
02:25:58.764:1,0.065,-0.105
02:25:58.768:1,0.08,-0.09
02:25:58.772:1,0.065,-0.1
02:25:58.776:1,0.05,-0.09
02:25:58.780:1,0.075,-0.105
02:25:58.784:1,0.07,-0.1
02:25:58.788:1,0.08,-0.09
02:25:58.792:1,0.08,-0.085
02:25:58.796:1,0.075,-0.08
02:25:58.800:1,0.07,-0.07
02:25:58.804:1,0.065,-0.05
02:25:58.808:1,0.065,-0.07
02:25:58.812:1,0.085,-0.08
02:25:58.816:1,0.08,-0.07
02:25:58.820:1,0.09,-0.065
02:25:58.824:1,0.1,-0.09
02:25:58.828:1,0.11,-0.085
02:25:58.832:1,0.115,-0.08
02:25:58.836:1,0.115,-0.12
02:25:58.840:1,0.13,-0.15
02:25:58.844:1,0.14,-0.16
02:25:58.848:1,0.15,-0.1
02:25:58.852:1,0.16,0.04
02:25:58.856:1,0.195,0.29
02:25:58.860:1,0.215,0.56
02:25:58.864:1,0.26,0.76
02:25:58.868:1,0.335,0.705
02:25:58.872:1,0.39,0.485
02:25:58.876:1,0.37,0.055
02:25:58.880:1,0.28,-0.47
02:25:58.884:1,0.18,-0.83
02:25:58.888:1,0.01,-0.94
02:25:58.892:1,-0.16,-0.905
02:25:58.896:1,-0.275,-0.74
02:25:58.900:1,-0.295,-0.575
02:25:58.904:1,-0.27,-0.45
02:25:58.908:1,-0.245,-0.315
02:25:58.912:1,-0.18,-0.2
02:25:58.916:1,-0.11,-0.185
02:25:58.920:1,-0.03,-0.215
02:25:58.924:1,0.0,-0.21
02:25:58.928:1,0.01,-0.215
02:25:58.932:1,0.015,-0.22
02:25:58.936:1,0.01,-0.22
02:25:58.940:1,0.01,-0.245
02:25:58.944:1,0.01,-0.22
02:25:58.948:1,0.01,-0.22
02:25:58.952:1,-0.005,-0.245
02:25:58.956:1,0.01,-0.22
02:25:58.960:1,0.005,-0.225
02:25:58.964:1,0.015,-0.215
02:25:58.968:1,0.01,-0.19
02:25:58.972:1,0.02,-0.195
02:25:58.976:1,0.045,-0.195
02:25:58.980:1,0.015,-0.185
02:25:58.984:1,0.04,-0.175
02:25:58.988:1,0.045,-0.18
02:25:58.992:1,0.065,-0.18
02:25:58.996:1,0.04,-0.205
02:25:59.000:1,0.035,-0.225
02:25:59.004:1,0.06,-0.23
02:25:59.008:1,0.04,-0.225
02:25:59.012:1,0.05,-0.205
02:25:59.016:1,0.065,-0.225
02:25:59.020:1,0.05,-0.215
02:25:59.024:1,0.04,-0.205
02:25:59.028:1,0.045,-0.18
02:25:59.032:1,0.075,-0.16
02:25:59.036:1,0.05,-0.14
02:25:59.040:1,0.075,-0.15
02:25:59.044:1,0.1,-0.135
02:25:59.048:1,0.09,-0.11
02:25:59.052:1,0.1,-0.075
02:25:59.056:1,0.075,-0.055
02:25:59.060:1,0.08,-0.04
02:25:59.064:1,0.09,-0.045
02:25:59.068:1,0.085,-0.04
02:25:59.072:1,0.065,-0.035
02:25:59.076:1,0.035,-0.025
02:25:59.080:1,0.025,-0.03
02:25:59.084:1,0.04,-0.04
02:25:59.088:1,0.035,-0.02
02:25:59.092:1,0.045,-0.015
02:25:59.096:1,0.05,-0.025
02:25:59.100:1,0.05,-0.01
02:25:59.104:1,0.045,-0.005
02:25:59.108:1,0.035,0.0
02:25:59.112:1,0.05,0.0
02:25:59.116:1,0.04,0.0
02:25:59.120:1,0.045,-0.005
02:25:59.124:1,0.055,0.0
02:25:59.128:1,0.045,0.02
02:25:59.132:1,0.04,0.015
02:25:59.136:1,0.065,-0.005
02:25:59.140:1,0.07,-0.015
02:25:59.144:1,0.055,-0.01
02:25:59.148:1,0.07,-0.02
02:25:59.152:1,0.08,0.0
02:25:59.156:1,0.095,-0.015
02:25:59.160:1,0.09,-0.045
02:25:59.164:1,0.1,-0.055
02:25:59.168:1,0.115,-0.04
02:25:59.172:1,0.105,-0.05
02:25:59.176:1,0.105,-0.085
02:25:59.180:1,0.1,-0.095
02:25:59.184:1,0.1,-0.105
02:25:59.188:1,0.085,-0.105
02:25:59.192:1,0.09,-0.09
02:25:59.196:1,0.06,-0.09
02:25:59.200:1,0.06,-0.125
02:25:59.204:1,0.085,-0.125
02:25:59.208:1,0.08,-0.11
02:25:59.212:1,0.055,-0.135
02:25:59.216:1,0.06,-0.17
02:25:59.220:1,0.085,-0.19
02:25:59.224:1,0.08,-0.195
02:25:59.228:1,0.08,-0.165
02:25:59.232:1,0.085,-0.115
02:25:59.236:1,0.09,-0.07
02:25:59.240:1,0.085,-0.08
02:25:59.244:1,0.09,-0.085
02:25:59.248:1,0.09,-0.08
02:25:59.252:1,0.06,-0.08
02:25:59.256:1,0.05,-0.08
02:25:59.260:1,0.02,-0.085
02:25:59.264:1,0.025,-0.1
02:25:59.268:1,0.03,-0.085
02:25:59.272:1,0.0,-0.095
02:25:59.276:1,0.025,-0.09
02:25:59.280:1,0.01,-0.12
02:25:59.284:1,0.005,-0.115
02:25:59.288:1,0.015,-0.105
02:25:59.292:1,-0.005,-0.105
02:25:59.296:1,0.0,-0.115
02:25:59.300:1,-0.005,-0.13
02:25:59.304:1,0.005,-0.13
02:25:59.308:1,0.0,-0.115
02:25:59.312:1,0.01,-0.13
02:25:59.316:1,0.0,-0.135
02:25:59.320:1,-0.01,-0.15
02:25:59.324:1,-0.03,-0.17
02:25:59.328:1,0.0,-0.165
02:25:59.332:1,-0.01,-0.13
02:25:59.336:1,-0.025,-0.13
02:25:59.340:1,-0.005,-0.155
02:25:59.344:1,0.035,-0.145
02:25:59.348:1,0.035,-0.155
02:25:59.352:1,0.055,-0.155
02:25:59.356:1,0.015,-0.145
02:25:59.360:1,0.02,-0.16
02:25:59.364:1,0.015,-0.175
02:25:59.368:1,0.01,-0.18
02:25:59.372:1,0.01,-0.17
02:25:59.376:1,0.0,-0.175
02:25:59.380:1,0.035,-0.215
02:25:59.384:1,0.02,-0.245
02:25:59.388:1,0.015,-0.23
02:25:59.392:1,0.035,-0.195
02:25:59.396:1,0.045,-0.145
02:25:59.400:1,0.045,-0.135
02:25:59.404:1,0.03,-0.1
02:25:59.408:1,0.02,-0.095
02:25:59.412:1,0.02,-0.095
02:25:59.416:1,0.025,-0.06
02:25:59.420:1,0.015,-0.055
02:25:59.424:1,0.035,-0.085
02:25:59.428:1,0.04,-0.07
02:25:59.432:1,0.04,-0.07
02:25:59.436:1,0.015,-0.09
02:25:59.440:1,0.02,-0.095
02:25:59.444:1,0.01,-0.115
02:25:59.448:1,0.025,-0.125
02:25:59.452:1,0.01,-0.125
02:25:59.456:1,-0.005,-0.135
02:25:59.460:1,0.005,-0.13
02:25:59.464:1,0.01,-0.16
02:25:59.468:1,0.005,-0.15
02:25:59.472:1,-0.01,-0.14
02:25:59.476:1,-0.015,-0.145
02:25:59.480:1,0.0,-0.15
02:25:59.484:1,0.0,-0.135
02:25:59.488:1,-0.025,-0.125
02:25:59.492:1,-0.005,-0.15
02:25:59.496:1,-0.005,-0.155
02:25:59.500:1,-0.015,-0.16
02:25:59.504:1,-0.01,-0.155
02:25:59.508:1,-0.005,-0.18
02:25:59.512:1,0.02,-0.155
02:25:59.516:1,0.04,-0.16
02:25:59.520:1,0.065,-0.165
02:25:59.524:1,0.035,-0.17
02:25:59.528:1,0.04,-0.185
02:25:59.532:1,0.035,-0.215
02:25:59.536:1,0.035,-0.23
02:25:59.540:1,0.015,-0.23
02:25:59.544:1,0.01,-0.22
02:25:59.548:1,0.035,-0.21
02:25:59.552:1,0.03,-0.15
02:25:59.556:1,0.04,-0.115
02:25:59.560:1,0.05,-0.05
02:25:59.564:1,0.06,0.115
02:25:59.568:1,0.065,0.39
02:25:59.572:1,0.095,0.66
02:25:59.576:1,0.14,0.88
02:25:59.580:1,0.215,0.9
02:25:59.584:1,0.295,0.72
02:25:59.588:1,0.33,0.275
02:25:59.592:1,0.31,-0.32
02:25:59.596:1,0.225,-0.805
02:25:59.600:1,0.065,-1.025
02:25:59.604:1,-0.1,-1.035
02:25:59.608:1,-0.245,-0.865
02:25:59.612:1,-0.33,-0.675
02:25:59.616:1,-0.335,-0.515
02:25:59.620:1,-0.3,-0.39
02:25:59.624:1,-0.235,-0.285
02:25:59.628:1,-0.16,-0.22
02:25:59.632:1,-0.075,-0.155
02:25:59.636:1,-0.04,-0.155
02:25:59.640:1,0.005,-0.16
02:25:59.644:1,0.015,-0.16
02:25:59.648:1,0.015,-0.155
02:25:59.652:1,0.005,-0.135
02:25:59.656:1,0.025,-0.145
02:25:59.660:1,-0.01,-0.15
02:25:59.664:1,0.025,-0.145
02:25:59.668:1,0.035,-0.17
02:25:59.672:1,0.035,-0.16
02:25:59.676:1,0.045,-0.17
02:25:59.680:1,0.075,-0.2
02:25:59.684:1,0.08,-0.21
02:25:59.688:1,0.07,-0.18
02:25:59.692:1,0.065,-0.19
02:25:59.696:1,0.065,-0.175
02:25:59.700:1,0.035,-0.155
02:25:59.704:1,0.04,-0.155
02:25:59.708:1,0.05,-0.15
02:25:59.712:1,0.045,-0.135
02:25:59.716:1,0.035,-0.135
02:25:59.720:1,0.025,-0.135
02:25:59.724:1,0.04,-0.14
02:25:59.728:1,0.035,-0.125
02:25:59.732:1,0.035,-0.145
02:25:59.736:1,0.035,-0.155
02:25:59.740:1,0.01,-0.155
02:25:59.744:1,0.01,-0.165
02:25:59.748:1,0.005,-0.17
02:25:59.752:1,-0.01,-0.155
02:25:59.756:1,-0.015,-0.135
02:25:59.760:1,0.0,-0.145
02:25:59.764:1,0.01,-0.145
02:25:59.768:1,0.01,-0.13
02:25:59.772:1,0.015,-0.12
02:25:59.776:1,0.02,-0.13
02:25:59.780:1,0.015,-0.125
02:25:59.784:1,0.02,-0.1
02:25:59.788:1,0.02,-0.105
02:25:59.792:1,0.03,-0.085
02:25:59.796:1,0.035,-0.055
02:25:59.800:1,0.035,-0.05
02:25:59.804:1,0.04,-0.055
02:25:59.808:1,0.05,-0.035
02:25:59.812:1,0.04,-0.015
02:25:59.816:1,0.05,0.0
02:25:59.820:1,0.085,0.025
02:25:59.824:1,0.1,0.015
02:25:59.828:1,0.08,0.005
02:25:59.832:1,0.115,0.005
02:25:59.836:1,0.125,0.04
02:25:59.840:1,0.145,0.07
02:25:59.844:1,0.14,0.09
02:25:59.848:1,0.145,0.11
02:25:59.852:1,0.13,0.125
02:25:59.856:1,0.13,0.13
02:25:59.860:1,0.14,0.135
02:25:59.864:1,0.11,0.135
02:25:59.868:1,0.095,0.12
02:25:59.872:1,0.125,0.105
02:25:59.876:1,0.095,0.09
02:25:59.880:1,0.065,0.075
02:25:59.884:1,0.07,0.045
02:25:59.888:1,0.07,0.04
02:25:59.892:1,0.045,0.025
02:25:59.896:1,0.05,0.01
02:25:59.900:1,0.04,-0.02
02:25:59.904:1,0.045,-0.04
02:25:59.908:1,0.05,-0.03
02:25:59.912:1,0.03,-0.035
02:25:59.916:1,0.04,-0.025
02:25:59.920:1,0.045,-0.055
02:25:59.924:1,0.03,-0.075
02:25:59.928:1,0.035,-0.08
02:25:59.932:1,0.045,-0.075
02:25:59.936:1,0.03,-0.075
02:25:59.940:1,0.025,-0.08
02:25:59.944:1,0.03,-0.105
02:25:59.948:1,0.045,-0.085
02:25:59.952:1,0.04,-0.085
02:25:59.956:1,0.055,-0.105
02:25:59.960:1,0.045,-0.085
02:25:59.964:1,0.025,-0.1
02:25:59.968:1,0.045,-0.1
02:25:59.972:1,0.06,-0.075
02:25:59.976:1,0.06,-0.085
02:25:59.980:1,0.08,-0.1
02:25:59.984:1,0.09,-0.115
02:25:59.988:1,0.1,-0.135
02:25:59.992:1,0.105,-0.12
02:25:59.996:1,0.095,-0.1
02:26:00.000:1,0.1,-0.105
02:26:00.004:1,0.105,-0.085
02:26:00.008:1,0.09,-0.06
02:26:00.012:1,0.095,-0.035
02:26:00.016:1,0.095,-0.025
02:26:00.020:1,0.09,-0.035
02:26:00.024:1,0.07,-0.07
02:26:00.028:1,0.07,-0.065
02:26:00.032:1,0.055,-0.08
02:26:00.036:1,0.055,-0.095
02:26:00.040:1,0.035,-0.1
02:26:00.044:1,0.015,-0.105
02:26:00.048:1,0.02,-0.115
02:26:00.052:1,0.015,-0.1
02:26:00.056:1,0.01,-0.105
02:26:00.060:1,0.015,-0.115
02:26:00.064:1,0.03,-0.14
02:26:00.068:1,0.02,-0.13
02:26:00.072:1,0.005,-0.13
02:26:00.076:1,0.005,-0.12
02:26:00.080:1,0.01,-0.135
02:26:00.084:1,0.01,-0.135
02:26:00.088:1,0.0,-0.12
02:26:00.092:1,0.015,-0.12
02:26:00.096:1,0.02,-0.105
02:26:00.100:1,0.015,-0.13
02:26:00.104:1,0.025,-0.14
02:26:00.108:1,0.02,-0.16
02:26:00.112:1,0.01,-0.145
02:26:00.116:1,0.0,-0.14
02:26:00.120:1,0.015,-0.12
02:26:00.124:1,0.0,-0.105
02:26:00.128:1,0.03,-0.105
02:26:00.132:1,0.015,-0.03
02:26:00.136:1,0.04,0.09
02:26:00.140:1,0.04,0.295
02:26:00.144:1,0.085,0.5
02:26:00.148:1,0.165,0.655
02:26:00.152:1,0.245,0.605
02:26:00.156:1,0.35,0.38
02:26:00.160:1,0.385,-0.07
02:26:00.164:1,0.355,-0.555
02:26:00.168:1,0.325,-0.89
02:26:00.172:1,0.26,-0.995
02:26:00.176:1,0.095,-0.92
02:26:00.180:1,-0.065,-0.765
02:26:00.184:1,-0.18,-0.625
02:26:00.188:1,-0.215,-0.49
02:26:00.192:1,-0.225,-0.365
02:26:00.196:1,-0.215,-0.27
02:26:00.200:1,-0.16,-0.175
02:26:00.204:1,-0.11,-0.14
02:26:00.208:1,-0.06,-0.14
02:26:00.212:1,-0.035,-0.145
02:26:00.216:1,-0.02,-0.16
02:26:00.220:1,-0.01,-0.18
02:26:00.224:1,-0.035,-0.21
02:26:00.228:1,-0.025,-0.22
02:26:00.232:1,-0.03,-0.22
02:26:00.236:1,-0.055,-0.235
02:26:00.240:1,-0.05,-0.24
02:26:00.244:1,-0.04,-0.245
02:26:00.248:1,-0.065,-0.26
02:26:00.252:1,-0.06,-0.25
02:26:00.256:1,-0.055,-0.245
02:26:00.260:1,-0.065,-0.255
02:26:00.264:1,-0.07,-0.255
02:26:00.268:1,-0.055,-0.26
02:26:00.272:1,-0.065,-0.255
02:26:00.276:1,-0.065,-0.26
02:26:00.280:1,-0.055,-0.255
02:26:00.284:1,-0.06,-0.26
02:26:00.288:1,-0.06,-0.27
02:26:00.292:1,-0.065,-0.255
02:26:00.296:1,-0.06,-0.255
02:26:00.300:1,-0.055,-0.22
02:26:00.304:1,-0.05,-0.225
02:26:00.308:1,-0.045,-0.21
02:26:00.312:1,-0.05,-0.19
02:26:00.316:1,-0.015,-0.185
02:26:00.320:1,-0.02,-0.175
02:26:00.324:1,0.01,-0.185
02:26:00.328:1,-0.01,-0.185
02:26:00.332:1,0.0,-0.135
02:26:00.336:1,0.015,-0.12
02:26:00.340:1,0.015,-0.09
02:26:00.344:1,0.02,-0.08
02:26:00.348:1,0.05,-0.07
02:26:00.352:1,0.045,-0.08
02:26:00.356:1,0.04,-0.075
02:26:00.360:1,0.055,-0.09
02:26:00.364:1,0.035,-0.105
02:26:00.368:1,0.02,-0.11
02:26:00.372:1,-0.02,-0.1
02:26:00.376:1,-0.015,-0.105
02:26:00.380:1,0.0,-0.115
02:26:00.384:1,-0.015,-0.125
02:26:00.388:1,-0.02,-0.125
02:26:00.392:1,-0.025,-0.125
02:26:00.396:1,-0.02,-0.11
02:26:00.400:1,-0.02,-0.12
02:26:00.404:1,-0.035,-0.125
02:26:00.408:1,-0.02,-0.12
02:26:00.412:1,-0.035,-0.11
02:26:00.416:1,-0.02,-0.11
02:26:00.420:1,-0.03,-0.085
02:26:00.424:1,-0.005,-0.105
02:26:00.428:1,-0.005,-0.11
02:26:00.432:1,-0.015,-0.12
02:26:00.436:1,0.015,-0.12
02:26:00.440:1,0.01,-0.105
02:26:00.444:1,0.005,-0.115
02:26:00.448:1,0.02,-0.145
02:26:00.452:1,0.02,-0.125
02:26:00.456:1,0.005,-0.115
02:26:00.460:1,0.02,-0.12
02:26:00.464:1,0.015,-0.135
02:26:00.468:1,0.0,-0.11
02:26:00.472:1,0.01,-0.125
02:26:00.476:1,0.025,-0.12
02:26:00.480:1,0.02,-0.105
02:26:00.484:1,0.0,-0.095
02:26:00.488:1,0.03,-0.11
02:26:00.492:1,0.01,-0.08
02:26:00.496:1,-0.005,-0.07
02:26:00.500:1,0.04,-0.045
02:26:00.504:1,0.04,-0.045
02:26:00.508:1,0.035,-0.055
02:26:00.512:1,0.06,-0.04
02:26:00.516:1,0.08,-0.025
02:26:00.520:1,0.08,-0.025
02:26:00.524:1,0.105,0.0
02:26:00.528:1,0.1,-0.03
02:26:00.532:1,0.085,-0.04
02:26:00.536:1,0.08,-0.045
02:26:00.540:1,0.075,-0.06
02:26:00.544:1,0.075,-0.09
02:26:00.548:1,0.065,-0.09
02:26:00.552:1,0.05,-0.11
02:26:00.556:1,0.045,-0.095
02:26:00.560:1,0.05,-0.11
02:26:00.564:1,0.045,-0.135
02:26:00.568:1,0.03,-0.14
02:26:00.572:1,0.025,-0.155
02:26:00.576:1,0.04,-0.16
02:26:00.580:1,0.03,-0.16
02:26:00.584:1,0.03,-0.19
02:26:00.588:1,0.03,-0.18
02:26:00.592:1,0.025,-0.215
02:26:00.596:1,0.01,-0.215
02:26:00.600:1,0.025,-0.205
02:26:00.604:1,0.005,-0.23
02:26:00.608:1,0.0,-0.25
02:26:00.612:1,0.005,-0.26
02:26:00.616:1,0.005,-0.24
02:26:00.620:1,-0.02,-0.255
02:26:00.624:1,-0.005,-0.24
02:26:00.628:1,0.0,-0.255
02:26:00.632:1,-0.02,-0.255
02:26:00.636:1,-0.005,-0.24
02:26:00.640:1,-0.015,-0.24
02:26:00.644:1,-0.02,-0.22
02:26:00.648:1,-0.005,-0.2
02:26:00.652:1,-0.025,-0.17
02:26:00.656:1,-0.02,-0.135
02:26:00.660:1,0.0,-0.115
02:26:00.664:1,0.015,-0.12
02:26:00.668:1,0.01,-0.1
02:26:00.672:1,0.045,-0.09
02:26:00.676:1,0.07,-0.08
02:26:00.680:1,0.08,-0.075
02:26:00.684:1,0.08,-0.065
02:26:00.688:1,0.085,-0.065
02:26:00.692:1,0.065,-0.05
02:26:00.696:1,0.06,-0.045
02:26:00.700:1,0.07,-0.05
02:26:00.704:1,0.075,-0.06
02:26:00.708:1,0.075,-0.065
02:26:00.712:1,0.07,-0.015
02:26:00.716:1,0.075,0.08
02:26:00.720:1,0.085,0.245
02:26:00.724:1,0.115,0.465
02:26:00.728:1,0.135,0.675
02:26:00.732:1,0.18,0.865
02:26:00.736:1,0.255,0.84
02:26:00.740:1,0.32,0.585
02:26:00.744:1,0.37,0.065
02:26:00.748:1,0.315,-0.545
02:26:00.752:1,0.245,-0.905
02:26:00.756:1,0.11,-1.035
02:26:00.760:1,-0.06,-0.98
02:26:00.764:1,-0.15,-0.825
02:26:00.768:1,-0.23,-0.675
02:26:00.772:1,-0.215,-0.565
02:26:00.776:1,-0.22,-0.44
02:26:00.780:1,-0.215,-0.355
02:26:00.784:1,-0.145,-0.27
02:26:00.788:1,-0.085,-0.2
02:26:00.792:1,-0.05,-0.21
02:26:00.796:1,-0.005,-0.225
02:26:00.800:1,0.0,-0.215
02:26:00.804:1,-0.015,-0.255
02:26:00.808:1,0.005,-0.265
02:26:00.812:1,0.0,-0.26
02:26:00.816:1,-0.01,-0.24
02:26:00.820:1,-0.02,-0.24
02:26:00.824:1,0.005,-0.22
02:26:00.828:1,-0.005,-0.22
02:26:00.832:1,0.015,-0.185
02:26:00.836:1,0.015,-0.16
02:26:00.840:1,0.02,-0.145
02:26:00.844:1,0.025,-0.13
02:26:00.848:1,0.025,-0.135
02:26:00.852:1,0.015,-0.145
02:26:00.856:1,0.03,-0.15
02:26:00.860:1,0.035,-0.15
02:26:00.864:1,0.03,-0.16
02:26:00.868:1,0.04,-0.15
02:26:00.872:1,0.02,-0.145
02:26:00.876:1,0.03,-0.15
02:26:00.880:1,0.04,-0.14
02:26:00.884:1,0.025,-0.14
02:26:00.888:1,0.02,-0.155
02:26:00.892:1,0.04,-0.155
02:26:00.896:1,0.01,-0.145
02:26:00.900:1,0.03,-0.15
02:26:00.904:1,0.03,-0.15
02:26:00.908:1,0.035,-0.16
02:26:00.912:1,0.03,-0.165
02:26:00.916:1,0.005,-0.15
02:26:00.920:1,0.005,-0.15
02:26:00.924:1,0.02,-0.145
02:26:00.928:1,0.005,-0.14
02:26:00.932:1,0.005,-0.125
02:26:00.936:1,0.005,-0.14
02:26:00.940:1,0.015,-0.125
02:26:00.944:1,0.005,-0.125
02:26:00.948:1,0.005,-0.13
02:26:00.952:1,0.025,-0.135
02:26:00.956:1,0.015,-0.14
02:26:00.960:1,0.03,-0.145
02:26:00.964:1,0.04,-0.15
02:26:00.968:1,0.015,-0.12
02:26:00.972:1,0.03,-0.1
02:26:00.976:1,0.03,-0.055
02:26:00.980:1,0.035,-0.06
02:26:00.984:1,0.03,-0.04
02:26:00.988:1,0.02,-0.035
02:26:00.992:1,0.035,-0.025
02:26:00.996:1,0.03,0.0
02:26:01.000:1,0.02,-0.005
02:26:01.004:1,0.035,-0.01
02:26:01.008:1,0.025,0.0
02:26:01.012:1,0.005,-0.02
02:26:01.016:1,0.01,-0.03
02:26:01.020:1,0.015,-0.035
02:26:01.024:1,0.03,-0.03
02:26:01.028:1,0.06,-0.06
02:26:01.032:1,0.045,-0.07
02:26:01.036:1,0.05,-0.085
02:26:01.040:1,0.035,-0.09
02:26:01.044:1,0.03,-0.1
02:26:01.048:1,0.05,-0.1
02:26:01.052:1,0.04,-0.115
02:26:01.056:1,0.04,-0.125
02:26:01.060:1,0.045,-0.105
02:26:01.064:1,0.04,-0.105
02:26:01.068:1,0.035,-0.12
02:26:01.072:1,0.025,-0.12
02:26:01.076:1,0.04,-0.13
02:26:01.080:1,0.035,-0.125
02:26:01.084:1,0.03,-0.115
02:26:01.088:1,0.03,-0.12
02:26:01.092:1,0.025,-0.105
02:26:01.096:1,0.01,-0.11
02:26:01.100:1,0.035,-0.115
02:26:01.104:1,0.025,-0.095
02:26:01.108:1,0.04,-0.09
02:26:01.112:1,0.05,-0.095
02:26:01.116:1,0.045,-0.105
02:26:01.120:1,0.05,-0.11
02:26:01.124:1,0.04,-0.095
02:26:01.128:1,0.035,-0.105
02:26:01.132:1,0.06,-0.135
02:26:01.136:1,0.035,-0.14
02:26:01.140:1,0.06,-0.155
02:26:01.144:1,0.035,-0.16
02:26:01.148:1,0.045,-0.17
02:26:01.152:1,0.065,-0.185
02:26:01.156:1,0.06,-0.165
02:26:01.160:1,0.06,-0.15
02:26:01.164:1,0.085,-0.165
02:26:01.168:1,0.085,-0.135
02:26:01.172:1,0.075,-0.08
02:26:01.176:1,0.085,-0.055
02:26:01.180:1,0.095,-0.05
02:26:01.184:1,0.085,-0.05
02:26:01.188:1,0.06,-0.085
02:26:01.192:1,0.05,-0.115
02:26:01.196:1,0.025,-0.12
02:26:01.200:1,0.0,-0.125
02:26:01.204:1,0.015,-0.145
02:26:01.208:1,0.02,-0.155
02:26:01.212:1,-0.01,-0.16
02:26:01.216:1,0.0,-0.18
02:26:01.220:1,-0.015,-0.19
02:26:01.224:1,-0.03,-0.175
02:26:01.228:1,-0.035,-0.185
02:26:01.232:1,-0.025,-0.215
02:26:01.236:1,-0.02,-0.205
02:26:01.240:1,-0.04,-0.2
02:26:01.244:1,-0.035,-0.195
02:26:01.248:1,-0.04,-0.2
02:26:01.252:1,-0.035,-0.205
02:26:01.256:1,-0.04,-0.205
02:26:01.260:1,-0.035,-0.195
02:26:01.264:1,-0.025,-0.185
02:26:01.268:1,-0.025,-0.185
02:26:01.272:1,-0.04,-0.2
02:26:01.276:1,-0.025,-0.195
02:26:01.280:1,-0.025,-0.195
02:26:01.284:1,-0.015,-0.215
02:26:01.288:1,-0.035,-0.22
02:26:01.292:1,-0.005,-0.22
02:26:01.296:1,-0.025,-0.235
02:26:01.300:1,-0.015,-0.235
02:26:01.304:1,-0.02,-0.245
02:26:01.308:1,-0.025,-0.24
02:26:01.312:1,-0.01,-0.235
02:26:01.316:1,-0.02,-0.235
02:26:01.320:1,-0.02,-0.22
02:26:01.324:1,-0.02,-0.205
02:26:01.328:1,-0.015,-0.21
02:26:01.332:1,0.0,-0.23
02:26:01.336:1,0.005,-0.225
02:26:01.340:1,0.025,-0.225
02:26:01.344:1,0.03,-0.2
02:26:01.348:1,0.035,-0.155
02:26:01.352:1,0.035,-0.145
02:26:01.356:1,0.04,-0.105
02:26:01.360:1,0.045,-0.08
02:26:01.364:1,0.035,-0.065
02:26:01.368:1,0.04,0.01
02:26:01.372:1,0.055,0.145
02:26:01.376:1,0.04,0.37
02:26:01.380:1,0.075,0.595
02:26:01.384:1,0.12,0.78
02:26:01.388:1,0.18,0.8
02:26:01.392:1,0.23,0.6
02:26:01.396:1,0.27,0.185
02:26:01.400:1,0.255,-0.4
02:26:01.404:1,0.145,-0.83
02:26:01.408:1,0.02,-1.05
02:26:01.412:1,-0.16,-1.06
02:26:01.416:1,-0.305,-0.94
02:26:01.420:1,-0.365,-0.75
02:26:01.424:1,-0.36,-0.59
02:26:01.428:1,-0.33,-0.45
02:26:01.432:1,-0.29,-0.345
02:26:01.436:1,-0.195,-0.24
02:26:01.440:1,-0.12,-0.225
02:26:01.444:1,-0.045,-0.215
02:26:01.448:1,-0.02,-0.23
02:26:01.452:1,-0.005,-0.24
02:26:01.456:1,0.005,-0.245
02:26:01.460:1,0.0,-0.245
02:26:01.464:1,-0.005,-0.26
02:26:01.468:1,-0.025,-0.265
02:26:01.472:1,-0.02,-0.27
02:26:01.476:1,-0.03,-0.285
02:26:01.480:1,-0.025,-0.295
02:26:01.484:1,-0.02,-0.28
02:26:01.488:1,-0.045,-0.285
02:26:01.492:1,-0.03,-0.295
02:26:01.496:1,-0.02,-0.305
02:26:01.500:1,-0.025,-0.27
02:26:01.504:1,0.0,-0.26
02:26:01.508:1,-0.005,-0.22
02:26:01.512:1,0.005,-0.175
02:26:01.516:1,0.035,-0.165
02:26:01.520:1,0.035,-0.16
02:26:01.524:1,0.03,-0.155
02:26:01.528:1,0.02,-0.14
02:26:01.532:1,-0.005,-0.165
02:26:01.536:1,-0.01,-0.16
02:26:01.540:1,-0.025,-0.16
02:26:01.544:1,-0.04,-0.185
02:26:01.548:1,-0.035,-0.185
02:26:01.552:1,-0.055,-0.19
02:26:01.556:1,-0.045,-0.2
02:26:01.560:1,-0.05,-0.235
02:26:01.564:1,-0.065,-0.225
02:26:01.568:1,-0.075,-0.2
02:26:01.572:1,-0.07,-0.205
02:26:01.576:1,-0.07,-0.21
02:26:01.580:1,-0.07,-0.2
02:26:01.584:1,-0.065,-0.17
02:26:01.588:1,-0.055,-0.155
02:26:01.592:1,-0.045,-0.15
02:26:01.596:1,-0.04,-0.125
02:26:01.600:1,-0.02,-0.135
02:26:01.604:1,-0.01,-0.125
02:26:01.608:1,0.0,-0.12
02:26:01.612:1,-0.01,-0.14
02:26:01.616:1,-0.005,-0.17
02:26:01.620:1,-0.01,-0.145
02:26:01.624:1,0.015,-0.16
02:26:01.628:1,0.005,-0.145
02:26:01.632:1,0.005,-0.145
02:26:01.636:1,0.01,-0.135
02:26:01.640:1,0.01,-0.145
02:26:01.644:1,0.025,-0.125
02:26:01.648:1,0.015,-0.125
02:26:01.652:1,0.035,-0.12
02:26:01.656:1,0.03,-0.115
02:26:01.660:1,0.045,-0.1
02:26:01.664:1,0.035,-0.06
02:26:01.668:1,0.05,-0.03
02:26:01.672:1,0.065,-0.035
02:26:01.676:1,0.055,-0.02
02:26:01.680:1,0.045,-0.035
02:26:01.684:1,0.03,-0.04
02:26:01.688:1,0.035,-0.03
02:26:01.692:1,0.025,-0.06
02:26:01.696:1,0.035,-0.115
02:26:01.700:1,0.005,-0.095
02:26:01.704:1,0.005,-0.115
02:26:01.708:1,0.01,-0.125
02:26:01.712:1,0.0,-0.14
02:26:01.716:1,-0.015,-0.135
02:26:01.720:1,-0.02,-0.135
02:26:01.724:1,-0.02,-0.14
02:26:01.728:1,-0.025,-0.13
02:26:01.732:1,-0.005,-0.12
02:26:01.736:1,0.005,-0.14
02:26:01.740:1,-0.015,-0.135
02:26:01.744:1,-0.015,-0.135
02:26:01.748:1,-0.025,-0.12
02:26:01.752:1,0.01,-0.12
02:26:01.756:1,0.0,-0.13
02:26:01.760:1,0.005,-0.16
02:26:01.764:1,0.025,-0.16
02:26:01.768:1,0.03,-0.155
02:26:01.772:1,0.005,-0.18
02:26:01.776:1,0.035,-0.185
02:26:01.780:1,0.015,-0.205
02:26:01.784:1,0.025,-0.205
02:26:01.788:1,0.025,-0.205
02:26:01.792:1,0.045,-0.215
02:26:01.796:1,0.05,-0.21
02:26:01.800:1,0.035,-0.205
02:26:01.804:1,0.035,-0.185
02:26:01.808:1,0.04,-0.165
02:26:01.812:1,0.04,-0.16
02:26:01.816:1,0.05,-0.145
02:26:01.820:1,0.05,-0.125
02:26:01.824:1,0.025,-0.115
02:26:01.828:1,0.015,-0.1
02:26:01.832:1,0.005,-0.11
02:26:01.836:1,0.02,-0.12
02:26:01.840:1,0.0,-0.14
02:26:01.844:1,-0.01,-0.15
02:26:01.848:1,0.015,-0.145
02:26:01.852:1,0.0,-0.14
02:26:01.856:1,0.0,-0.14
02:26:01.860:1,0.01,-0.145
02:26:01.864:1,0.005,-0.15
02:26:01.868:1,0.01,-0.13
02:26:01.872:1,0.0,-0.145
02:26:01.876:1,0.01,-0.14
02:26:01.880:1,0.005,-0.155
02:26:01.884:1,0.01,-0.145
02:26:01.888:1,0.0,-0.145
02:26:01.892:1,-0.01,-0.14
02:26:01.896:1,-0.005,-0.16
02:26:01.900:1,0.015,-0.155
02:26:01.904:1,-0.01,-0.16
02:26:01.908:1,0.0,-0.165
02:26:01.912:1,0.0,-0.17
02:26:01.916:1,0.005,-0.155
02:26:01.920:1,0.005,-0.06
02:26:01.924:1,0.045,0.095
02:26:01.928:1,0.07,0.32
02:26:01.932:1,0.105,0.57
02:26:01.936:1,0.155,0.71
02:26:01.940:1,0.235,0.625
02:26:01.944:1,0.31,0.355
02:26:01.948:1,0.3,-0.17
02:26:01.952:1,0.265,-0.72
02:26:01.956:1,0.18,-1.04
02:26:01.960:1,0.035,-1.155
02:26:01.964:1,-0.14,-1.07
02:26:01.968:1,-0.26,-0.905
02:26:01.972:1,-0.295,-0.745
02:26:01.976:1,-0.26,-0.61
02:26:01.980:1,-0.265,-0.45
02:26:01.984:1,-0.205,-0.26
02:26:01.988:1,-0.105,-0.17
02:26:01.992:1,-0.055,-0.14
02:26:01.996:1,0.0,-0.14
02:26:02.000:1,0.01,-0.165
02:26:02.004:1,-0.01,-0.155
02:26:02.008:1,-0.005,-0.16
02:26:02.012:1,-0.005,-0.18
02:26:02.016:1,-0.02,-0.195
02:26:02.020:1,-0.055,-0.21
02:26:02.024:1,-0.055,-0.205
02:26:02.028:1,-0.06,-0.2
02:26:02.032:1,-0.07,-0.205
02:26:02.036:1,-0.075,-0.205
02:26:02.040:1,-0.055,-0.195
02:26:02.044:1,-0.05,-0.195
02:26:02.048:1,-0.055,-0.195
02:26:02.052:1,-0.05,-0.2
02:26:02.056:1,-0.06,-0.19
02:26:02.060:1,-0.06,-0.17
02:26:02.064:1,-0.06,-0.18
02:26:02.068:1,-0.05,-0.175
02:26:02.072:1,-0.045,-0.185
02:26:02.076:1,-0.035,-0.215
02:26:02.080:1,-0.035,-0.205
02:26:02.084:1,-0.025,-0.2
02:26:02.088:1,-0.04,-0.215
02:26:02.092:1,-0.04,-0.21
02:26:02.096:1,-0.035,-0.21
02:26:02.100:1,-0.04,-0.205
02:26:02.104:1,-0.045,-0.225
02:26:02.108:1,-0.03,-0.23
02:26:02.112:1,-0.01,-0.215
02:26:02.116:1,-0.035,-0.21
02:26:02.120:1,-0.03,-0.21
02:26:02.124:1,-0.035,-0.215
02:26:02.128:1,-0.035,-0.22
02:26:02.132:1,-0.025,-0.2
02:26:02.136:1,-0.005,-0.2
02:26:02.140:1,-0.01,-0.2
02:26:02.144:1,-0.02,-0.18
02:26:02.148:1,-0.02,-0.135
02:26:02.152:1,-0.03,-0.095
02:26:02.156:1,-0.02,-0.1
02:26:02.160:1,-0.035,-0.085
02:26:02.164:1,-0.025,-0.085
02:26:02.168:1,-0.03,-0.065
02:26:02.172:1,-0.02,-0.065
02:26:02.176:1,-0.03,-0.055
02:26:02.180:1,-0.04,-0.05
02:26:02.184:1,-0.03,-0.06
02:26:02.188:1,-0.025,-0.06
02:26:02.192:1,-0.015,-0.035
02:26:02.196:1,-0.03,-0.025
02:26:02.200:1,-0.01,-0.03
02:26:02.204:1,-0.015,-0.03
02:26:02.208:1,-0.02,-0.025
02:26:02.212:1,-0.02,-0.015
02:26:02.216:1,-0.03,-0.025
02:26:02.220:1,-0.01,-0.04
02:26:02.224:1,-0.005,-0.08
02:26:02.228:1,0.0,-0.11
02:26:02.232:1,-0.005,-0.115
02:26:02.236:1,0.01,-0.135
02:26:02.240:1,0.01,-0.155
02:26:02.244:1,0.0,-0.16
02:26:02.248:1,0.0,-0.165
02:26:02.252:1,0.0,-0.165
02:26:02.256:1,0.0,-0.17
02:26:02.260:1,0.0,-0.185
02:26:02.264:1,0.0,-0.195
02:26:02.268:1,0.0,-0.205
02:26:02.272:1,0.0,-0.185
02:26:02.276:1,0.0,-0.155
02:26:02.280:1,0.015,-0.14
02:26:02.284:1,0.025,-0.125
02:26:02.288:1,0.015,-0.12
02:26:02.292:1,0.01,-0.12
02:26:02.296:1,0.005,-0.09
02:26:02.300:1,0.01,-0.075
02:26:02.304:1,0.0,-0.085
02:26:02.308:1,0.02,-0.07
02:26:02.312:1,0.0,-0.045
02:26:02.316:1,0.0,-0.05
02:26:02.320:1,-0.01,-0.08
02:26:02.324:1,-0.005,-0.085
02:26:02.328:1,-0.01,-0.075
02:26:02.332:1,-0.01,-0.08
02:26:02.336:1,0.005,-0.075
02:26:02.340:1,-0.02,-0.09
02:26:02.344:1,-0.02,-0.1
02:26:02.348:1,-0.015,-0.12
02:26:02.352:1,-0.01,-0.11
02:26:02.356:1,-0.025,-0.11
02:26:02.360:1,-0.02,-0.11
02:26:02.364:1,-0.03,-0.135
02:26:02.368:1,-0.02,-0.165
02:26:02.372:1,0.0,-0.17
02:26:02.376:1,-0.03,-0.175
02:26:02.380:1,-0.03,-0.185
02:26:02.384:1,-0.005,-0.195
02:26:02.388:1,-0.04,-0.215
02:26:02.392:1,-0.005,-0.22
02:26:02.396:1,-0.02,-0.215
02:26:02.400:1,-0.015,-0.23
02:26:02.404:1,-0.015,-0.24
02:26:02.408:1,-0.02,-0.27
02:26:02.412:1,-0.005,-0.265
02:26:02.416:1,-0.025,-0.27
02:26:02.420:1,0.0,-0.285
02:26:02.424:1,-0.005,-0.275
02:26:02.428:1,-0.02,-0.255
02:26:02.432:1,0.0,-0.225
02:26:02.436:1,0.01,-0.225
02:26:02.440:1,-0.01,-0.205
02:26:02.444:1,0.0,-0.205
02:26:02.448:1,-0.015,-0.185
02:26:02.452:1,-0.015,-0.175
02:26:02.456:1,-0.02,-0.16
02:26:02.460:1,-0.02,-0.16
02:26:02.464:1,-0.025,-0.155
02:26:02.468:1,-0.02,-0.17
02:26:02.472:1,-0.015,-0.16
02:26:02.476:1,-0.015,-0.16
02:26:02.480:1,-0.035,-0.16
02:26:02.484:1,-0.04,-0.18
02:26:02.488:1,-0.055,-0.185
02:26:02.492:1,-0.035,-0.165
02:26:02.496:1,-0.04,-0.17
02:26:02.500:1,-0.03,-0.185
02:26:02.504:1,-0.04,-0.175
02:26:02.508:1,-0.045,-0.16
02:26:02.512:1,-0.05,-0.15
02:26:02.516:1,-0.025,-0.15
02:26:02.520:1,-0.03,-0.14
02:26:02.524:1,-0.02,-0.105
02:26:02.528:1,-0.015,-0.13
02:26:02.532:1,-0.01,-0.13
02:26:02.536:1,-0.025,-0.13
02:26:02.540:1,0.0,-0.12
02:26:02.544:1,0.0,-0.125
02:26:02.548:1,-0.01,-0.095
02:26:02.552:1,0.01,-0.01
02:26:02.556:1,0.045,0.145
02:26:02.560:1,0.045,0.36
02:26:02.564:1,0.07,0.54
02:26:02.568:1,0.125,0.58
02:26:02.572:1,0.205,0.435
02:26:02.576:1,0.26,0.15
02:26:02.580:1,0.26,-0.345
02:26:02.584:1,0.255,-0.8
02:26:02.588:1,0.22,-1.06
02:26:02.592:1,0.125,-1.105
02:26:02.596:1,0.0,-0.97
02:26:02.600:1,-0.13,-0.78
02:26:02.604:1,-0.23,-0.645
02:26:02.608:1,-0.275,-0.505
02:26:02.612:1,-0.25,-0.4
02:26:02.616:1,-0.235,-0.28
02:26:02.620:1,-0.165,-0.2
02:26:02.624:1,-0.14,-0.16
02:26:02.628:1,-0.095,-0.165
02:26:02.632:1,-0.075,-0.17
02:26:02.636:1,-0.05,-0.16
02:26:02.640:1,-0.05,-0.16
02:26:02.644:1,-0.04,-0.175
02:26:02.648:1,-0.05,-0.185
02:26:02.652:1,-0.04,-0.185
02:26:02.656:1,-0.05,-0.165
02:26:02.660:1,-0.04,-0.18
02:26:02.664:1,-0.045,-0.19
02:26:02.668:1,-0.04,-0.195
02:26:02.672:1,-0.05,-0.215
02:26:02.676:1,-0.04,-0.2
02:26:02.680:1,-0.045,-0.205
02:26:02.684:1,-0.045,-0.205
02:26:02.688:1,-0.045,-0.215
02:26:02.692:1,-0.05,-0.205
02:26:02.696:1,-0.04,-0.185
02:26:02.700:1,-0.02,-0.17
02:26:02.704:1,-0.015,-0.17
02:26:02.708:1,0.0,-0.17
02:26:02.712:1,0.0,-0.175
02:26:02.716:1,0.015,-0.185
02:26:02.720:1,0.005,-0.195
02:26:02.724:1,0.015,-0.235
02:26:02.728:1,0.005,-0.26
02:26:02.732:1,0.01,-0.28
02:26:02.736:1,0.005,-0.27
02:26:02.740:1,0.0,-0.225
02:26:02.744:1,-0.005,-0.215
02:26:02.748:1,0.005,-0.21
02:26:02.752:1,-0.02,-0.185
02:26:02.756:1,0.0,-0.17
02:26:02.760:1,-0.02,-0.145
02:26:02.764:1,-0.035,-0.13
02:26:02.768:1,-0.03,-0.15
02:26:02.772:1,-0.04,-0.125
02:26:02.776:1,-0.04,-0.14
02:26:02.780:1,-0.045,-0.14
02:26:02.784:1,-0.04,-0.12
02:26:02.788:1,-0.055,-0.125
02:26:02.792:1,-0.055,-0.12
02:26:02.796:1,-0.06,-0.12
02:26:02.800:1,-0.04,-0.12
02:26:02.804:1,-0.045,-0.11
02:26:02.808:1,-0.045,-0.11
02:26:02.812:1,-0.03,-0.105
02:26:02.816:1,-0.025,-0.095
02:26:02.820:1,-0.025,-0.06
02:26:02.824:1,-0.03,-0.06
02:26:02.828:1,-0.025,-0.065
02:26:02.832:1,-0.015,-0.04
02:26:02.836:1,-0.01,-0.04
02:26:02.840:1,0.005,-0.025
02:26:02.844:1,0.005,-0.02
02:26:02.848:1,0.01,-0.02
02:26:02.852:1,0.015,-0.04
02:26:02.856:1,0.02,-0.045
02:26:02.860:1,0.03,-0.01
02:26:02.864:1,0.01,-0.025
02:26:02.868:1,0.035,-0.035
02:26:02.872:1,0.045,-0.03
02:26:02.876:1,0.035,-0.01
02:26:02.880:1,0.055,-0.01
02:26:02.884:1,0.065,-0.015
02:26:02.888:1,0.07,0.005
02:26:02.892:1,0.075,-0.01
02:26:02.896:1,0.095,-0.025
02:26:02.900:1,0.085,-0.03
02:26:02.904:1,0.075,-0.03
02:26:02.908:1,0.085,-0.065
02:26:02.912:1,0.1,-0.065
02:26:02.916:1,0.095,-0.08
02:26:02.920:1,0.1,-0.07
02:26:02.924:1,0.095,-0.07
02:26:02.928:1,0.11,-0.075
02:26:02.932:1,0.095,-0.06
02:26:02.936:1,0.09,-0.01
02:26:02.940:1,0.105,-0.01
02:26:02.944:1,0.095,-0.01
02:26:02.948:1,0.07,0.0
02:26:02.952:1,0.055,-0.02
02:26:02.956:1,0.03,-0.025
02:26:02.960:1,0.03,-0.04
02:26:02.964:1,0.015,-0.05
02:26:02.968:1,0.0,-0.05
02:26:02.972:1,-0.005,-0.05
02:26:02.976:1,-0.005,-0.06
02:26:02.980:1,0.01,-0.06
02:26:02.984:1,-0.005,-0.06
02:26:02.988:1,-0.005,-0.06
02:26:02.992:1,0.0,-0.09
02:26:02.996:1,0.0,-0.075
02:26:03.000:1,0.005,-0.07
02:26:03.004:1,0.0,-0.085
02:26:03.008:1,0.005,-0.085
02:26:03.012:1,-0.025,-0.075
02:26:03.016:1,-0.01,-0.07
02:26:03.020:1,0.005,-0.085
02:26:03.024:1,0.01,-0.085
02:26:03.028:1,-0.02,-0.105
02:26:03.032:1,-0.01,-0.09
02:26:03.036:1,0.005,-0.07
02:26:03.040:1,0.0,-0.07
02:26:03.044:1,0.005,-0.08
02:26:03.048:1,0.005,-0.095
02:26:03.052:1,-0.005,-0.055
02:26:03.056:1,0.015,0.01
02:26:03.060:1,0.045,0.16
02:26:03.064:1,0.07,0.405
02:26:03.068:1,0.12,0.635
02:26:03.072:1,0.185,0.715
02:26:03.076:1,0.265,0.59
02:26:03.080:1,0.29,0.295
02:26:03.084:1,0.275,-0.17
02:26:03.088:1,0.195,-0.65
02:26:03.092:1,0.085,-0.9
02:26:03.096:1,-0.05,-0.93
02:26:03.100:1,-0.19,-0.805
02:26:03.104:1,-0.27,-0.605
02:26:03.108:1,-0.26,-0.43
02:26:03.112:1,-0.235,-0.3
02:26:03.116:1,-0.175,-0.135
02:26:03.120:1,-0.12,-0.06
02:26:03.124:1,-0.045,-0.065
02:26:03.128:1,-0.015,-0.07
02:26:03.132:1,0.0,-0.09
02:26:03.136:1,-0.015,-0.095
02:26:03.140:1,-0.05,-0.1
02:26:03.144:1,-0.025,-0.11
02:26:03.148:1,-0.03,-0.11
02:26:03.152:1,-0.04,-0.125
02:26:03.156:1,-0.04,-0.13
02:26:03.160:1,-0.05,-0.125
02:26:03.164:1,-0.06,-0.125
02:26:03.168:1,-0.05,-0.14
02:26:03.172:1,-0.045,-0.14
02:26:03.176:1,-0.055,-0.14
02:26:03.180:1,-0.055,-0.135
02:26:03.184:1,-0.05,-0.13
02:26:03.188:1,-0.055,-0.145
02:26:03.192:1,-0.04,-0.155
02:26:03.196:1,-0.045,-0.115
02:26:03.200:1,-0.03,-0.125
02:26:03.204:1,-0.035,-0.13
02:26:03.208:1,-0.025,-0.11
02:26:03.212:1,-0.04,-0.1
02:26:03.216:1,-0.015,-0.09
02:26:03.220:1,-0.02,-0.1
02:26:03.224:1,-0.005,-0.13
02:26:03.228:1,-0.02,-0.12
02:26:03.232:1,-0.005,-0.14
02:26:03.236:1,-0.01,-0.14
02:26:03.240:1,0.0,-0.16
02:26:03.244:1,0.0,-0.155
02:26:03.248:1,0.0,-0.145
02:26:03.252:1,0.0,-0.125
02:26:03.256:1,0.005,-0.09
02:26:03.260:1,0.01,-0.05
02:26:03.264:1,0.015,-0.055
02:26:03.268:1,0.015,-0.02
02:26:03.272:1,0.01,0.0
02:26:03.276:1,-0.005,0.015
02:26:03.280:1,0.025,0.035
02:26:03.284:1,0.015,0.015
02:26:03.288:1,0.03,0.025
02:26:03.292:1,0.01,0.02
02:26:03.296:1,0.005,0.015
02:26:03.300:1,-0.015,0.02
02:26:03.304:1,-0.015,0.02
02:26:03.308:1,-0.01,0.015
02:26:03.312:1,-0.015,0.0
02:26:03.316:1,-0.035,-0.01
02:26:03.320:1,-0.035,0.0
02:26:03.324:1,-0.04,0.0
02:26:03.328:1,-0.035,0.0
02:26:03.332:1,-0.025,-0.005
02:26:03.336:1,-0.03,0.005
02:26:03.340:1,-0.01,0.025
02:26:03.344:1,-0.02,0.025
02:26:03.348:1,-0.015,0.03
02:26:03.352:1,0.0,0.02
02:26:03.356:1,0.0,-0.005
02:26:03.360:1,0.005,-0.005
02:26:03.364:1,0.02,0.01
02:26:03.368:1,0.025,0.0
02:26:03.372:1,0.03,-0.04
02:26:03.376:1,0.065,-0.06
02:26:03.380:1,0.04,-0.075
02:26:03.384:1,0.025,-0.075
02:26:03.388:1,0.035,-0.105
02:26:03.392:1,0.025,-0.09
02:26:03.396:1,0.025,-0.1
02:26:03.400:1,0.04,-0.09
02:26:03.404:1,0.055,-0.115
02:26:03.408:1,0.03,-0.125
02:26:03.412:1,0.02,-0.14
02:26:03.416:1,0.03,-0.135
02:26:03.420:1,0.025,-0.075
02:26:03.424:1,0.03,-0.05
02:26:03.428:1,0.055,-0.05
02:26:03.432:1,0.06,-0.035
02:26:03.436:1,0.03,-0.02
02:26:03.440:1,0.03,-0.02
02:26:03.444:1,0.025,0.01
02:26:03.448:1,0.015,-0.005
02:26:03.452:1,0.015,-0.035
02:26:03.456:1,0.02,-0.03
02:26:03.460:1,0.015,-0.025
02:26:03.464:1,0.01,-0.015
02:26:03.468:1,0.015,-0.01
02:26:03.472:1,0.015,-0.035
02:26:03.476:1,0.0,-0.035
02:26:03.480:1,0.015,-0.04
02:26:03.484:1,0.005,-0.04
02:26:03.488:1,0.0,-0.045
02:26:03.492:1,-0.02,-0.055
02:26:03.496:1,-0.01,-0.065
02:26:03.500:1,-0.015,-0.05
02:26:03.504:1,0.0,-0.04
02:26:03.508:1,-0.015,-0.035
02:26:03.512:1,0.01,-0.03
02:26:03.516:1,-0.01,-0.055
02:26:03.520:1,0.0,-0.075
02:26:03.524:1,0.0,-0.09
02:26:03.528:1,-0.01,-0.08
02:26:03.532:1,0.01,-0.065
02:26:03.536:1,0.015,0.065
02:26:03.540:1,0.045,0.3
02:26:03.544:1,0.09,0.55
02:26:03.548:1,0.13,0.71
02:26:03.552:1,0.215,0.645
02:26:03.556:1,0.275,0.395
02:26:03.560:1,0.3,-0.025
02:26:03.564:1,0.235,-0.54
02:26:03.568:1,0.11,-0.86
02:26:03.572:1,-0.055,-0.98
02:26:03.576:1,-0.22,-0.915
02:26:03.580:1,-0.32,-0.76
02:26:03.584:1,-0.35,-0.585
02:26:03.588:1,-0.32,-0.45
02:26:03.592:1,-0.265,-0.34
02:26:03.596:1,-0.2,-0.18
02:26:03.600:1,-0.105,-0.065
02:26:03.604:1,-0.035,-0.02
02:26:03.608:1,0.01,0.005
02:26:03.612:1,0.015,0.015
02:26:03.616:1,0.025,-0.02
02:26:03.620:1,0.01,-0.025
02:26:03.624:1,0.0,-0.005
02:26:03.628:1,-0.015,-0.02
02:26:03.632:1,0.0,-0.06
02:26:03.636:1,-0.015,-0.055
02:26:03.640:1,-0.02,-0.065
02:26:03.644:1,-0.015,-0.08
02:26:03.648:1,-0.035,-0.08
02:26:03.652:1,-0.04,-0.09
02:26:03.656:1,-0.035,-0.1
02:26:03.660:1,-0.015,-0.08
02:26:03.664:1,-0.05,-0.055
02:26:03.668:1,-0.015,-0.07
02:26:03.672:1,-0.01,-0.065
02:26:03.676:1,-0.03,-0.07
02:26:03.680:1,-0.005,-0.055
02:26:03.684:1,-0.02,-0.06
02:26:03.688:1,-0.01,-0.075
02:26:03.692:1,0.0,-0.09
02:26:03.696:1,-0.005,-0.1
02:26:03.700:1,0.005,-0.1
02:26:03.704:1,0.0,-0.095
02:26:03.708:1,0.005,-0.095
02:26:03.712:1,0.0,-0.105
02:26:03.716:1,-0.005,-0.095
02:26:03.720:1,-0.01,-0.08
02:26:03.724:1,-0.01,-0.08
02:26:03.728:1,-0.01,-0.065
02:26:03.732:1,0.0,-0.07
02:26:03.736:1,0.005,-0.04
02:26:03.740:1,0.015,-0.045
02:26:03.744:1,0.01,-0.03
02:26:03.748:1,0.01,-0.06
02:26:03.752:1,0.015,-0.06
02:26:03.756:1,0.01,-0.045
02:26:03.760:1,0.02,-0.035
02:26:03.764:1,0.025,-0.02
02:26:03.768:1,0.035,-0.01
02:26:03.772:1,0.03,0.025
02:26:03.776:1,0.055,0.06
02:26:03.780:1,0.065,0.115
02:26:03.784:1,0.08,0.14
02:26:03.788:1,0.075,0.145
02:26:03.792:1,0.075,0.125
02:26:03.796:1,0.065,0.145
02:26:03.800:1,0.055,0.14
02:26:03.804:1,0.05,0.13
02:26:03.808:1,0.03,0.135
02:26:03.812:1,0.03,0.13
02:26:03.816:1,0.035,0.105
02:26:03.820:1,0.02,0.1
02:26:03.824:1,0.025,0.105
02:26:03.828:1,0.025,0.09
02:26:03.832:1,0.045,0.09
02:26:03.836:1,0.06,0.075
02:26:03.840:1,0.05,0.065
02:26:03.844:1,0.065,0.05
02:26:03.848:1,0.06,0.035
02:26:03.852:1,0.06,0.06
02:26:03.856:1,0.065,0.03
02:26:03.860:1,0.055,0.03
02:26:03.864:1,0.08,0.005
02:26:03.868:1,0.055,0.015
02:26:03.872:1,0.055,0.0
02:26:03.876:1,0.05,-0.005
02:26:03.880:1,0.035,0.005
02:26:03.884:1,0.035,0.01
02:26:03.888:1,0.03,0.005
02:26:03.892:1,0.055,-0.015
02:26:03.896:1,0.03,-0.02
02:26:03.900:1,0.03,-0.025
02:26:03.904:1,0.045,-0.015
02:26:03.908:1,0.03,-0.045
02:26:03.912:1,0.04,-0.04
02:26:03.916:1,0.01,-0.04
02:26:03.920:1,0.02,-0.035
02:26:03.924:1,0.01,-0.025
02:26:03.928:1,0.02,-0.035
02:26:03.932:1,0.04,-0.04
02:26:03.936:1,0.02,-0.055
02:26:03.940:1,0.025,-0.065
02:26:03.944:1,0.035,-0.04
02:26:03.948:1,0.055,0.025
02:26:03.952:1,0.06,0.075
02:26:03.956:1,0.075,0.11
02:26:03.960:1,0.09,0.125
02:26:03.964:1,0.09,0.125
02:26:03.968:1,0.075,0.105
02:26:03.972:1,0.075,0.135
02:26:03.976:1,0.07,0.235
02:26:03.980:1,0.105,0.425
02:26:03.984:1,0.135,0.635
02:26:03.988:1,0.175,0.83
02:26:03.992:1,0.22,0.855
02:26:03.996:1,0.285,0.675
02:26:04.000:1,0.34,0.28
02:26:04.004:1,0.305,-0.26
02:26:04.008:1,0.22,-0.715
02:26:04.012:1,0.045,-0.95
02:26:04.016:1,-0.07,-0.91
02:26:04.020:1,-0.215,-0.725
02:26:04.024:1,-0.3,-0.57
02:26:04.028:1,-0.265,-0.45
02:26:04.032:1,-0.245,-0.3
02:26:04.036:1,-0.22,-0.2
02:26:04.040:1,-0.145,-0.1
02:26:04.044:1,-0.06,-0.045
02:26:04.048:1,-0.02,-0.04
02:26:04.052:1,0.005,-0.05
02:26:04.056:1,0.015,-0.08
02:26:04.060:1,0.01,-0.065
02:26:04.064:1,0.015,-0.07
02:26:04.068:1,0.035,-0.085
02:26:04.072:1,0.02,-0.105
02:26:04.076:1,0.0,-0.09
02:26:04.080:1,0.0,-0.085
02:26:04.084:1,0.01,-0.095
02:26:04.088:1,0.005,-0.12
02:26:04.092:1,0.015,-0.13
02:26:04.096:1,0.01,-0.14
02:26:04.100:1,0.005,-0.14
02:26:04.104:1,0.01,-0.15
02:26:04.108:1,0.005,-0.14
02:26:04.112:1,0.02,-0.115
02:26:04.116:1,0.01,-0.075
02:26:04.120:1,0.03,-0.07
02:26:04.124:1,0.035,-0.055
02:26:04.128:1,0.005,-0.045
02:26:04.132:1,0.02,-0.01
02:26:04.136:1,0.015,-0.015
02:26:04.140:1,0.005,-0.005
02:26:04.144:1,0.0,0.02
02:26:04.148:1,0.01,0.015
02:26:04.152:1,-0.005,0.025
02:26:04.156:1,0.0,0.025
02:26:04.160:1,0.0,0.015
02:26:04.164:1,-0.005,0.045
02:26:04.168:1,0.0,0.04
02:26:04.172:1,0.005,0.045
02:26:04.176:1,0.005,0.055
02:26:04.180:1,0.005,0.075
02:26:04.184:1,-0.005,0.07
02:26:04.188:1,0.01,0.075
02:26:04.192:1,0.005,0.055
02:26:04.196:1,0.025,0.06
02:26:04.200:1,0.025,0.03
02:26:04.204:1,0.025,0.025
02:26:04.208:1,0.005,0.035
02:26:04.212:1,0.01,0.025
02:26:04.216:1,0.0,0.04
02:26:04.220:1,0.005,0.045
02:26:04.224:1,0.01,0.06
02:26:04.228:1,0.005,0.05
02:26:04.232:1,0.0,0.055
02:26:04.236:1,0.005,0.065
02:26:04.240:1,0.005,0.055
02:26:04.244:1,0.0,0.07
02:26:04.248:1,0.0,0.08
02:26:04.252:1,-0.015,0.07
02:26:04.256:1,0.03,0.06
02:26:04.260:1,0.005,0.075
02:26:04.264:1,0.035,0.06
02:26:04.268:1,0.035,0.06
02:26:04.272:1,0.04,0.065
02:26:04.276:1,0.05,0.075
02:26:04.280:1,0.06,0.07
02:26:04.284:1,0.075,0.095
02:26:04.288:1,0.07,0.11
02:26:04.292:1,0.075,0.11
02:26:04.296:1,0.065,0.09
02:26:04.300:1,0.05,0.095
02:26:04.304:1,0.055,0.075
02:26:04.308:1,0.025,0.08
02:26:04.312:1,0.035,0.055
02:26:04.316:1,0.0,0.06
02:26:04.320:1,0.015,0.06
02:26:04.324:1,0.015,0.06
02:26:04.328:1,-0.005,0.065
02:26:04.332:1,0.0,0.045
02:26:04.336:1,0.01,0.05
02:26:04.340:1,0.015,0.04
02:26:04.344:1,0.0,0.045
02:26:04.348:1,0.025,0.035
02:26:04.352:1,0.035,0.02
02:26:04.356:1,0.015,0.03
02:26:04.360:1,0.035,0.005
02:26:04.364:1,0.02,-0.005
02:26:04.368:1,0.015,-0.04
02:26:04.372:1,0.005,-0.035
02:26:04.376:1,0.0,-0.04
02:26:04.380:1,0.01,-0.02
02:26:04.384:1,0.0,-0.025
02:26:04.388:1,0.005,-0.04
02:26:04.392:1,0.005,-0.06
02:26:04.396:1,0.01,-0.07
02:26:04.400:1,0.015,-0.07
02:26:04.404:1,0.005,-0.065
02:26:04.408:1,0.015,-0.06
02:26:04.412:1,0.0,-0.09
02:26:04.416:1,0.01,-0.115
02:26:04.420:1,0.015,-0.11
02:26:04.424:1,0.015,-0.07
02:26:04.428:1,0.01,-0.04
02:26:04.432:1,0.025,-0.05
02:26:04.436:1,0.04,-0.065
02:26:04.440:1,0.04,-0.02
02:26:04.444:1,0.025,0.0
02:26:04.448:1,0.025,0.03
02:26:04.452:1,0.02,0.025
02:26:04.456:1,0.02,0.01
02:26:04.460:1,0.005,0.0
02:26:04.464:1,0.035,-0.005
02:26:04.468:1,0.005,0.0
02:26:04.472:1,0.0,0.0
02:26:04.476:1,-0.015,0.01
02:26:04.480:1,-0.025,0.0
02:26:04.484:1,-0.015,0.0
02:26:04.488:1,-0.025,-0.025
02:26:04.492:1,-0.02,-0.015
02:26:04.496:1,0.005,0.0
02:26:04.500:1,-0.01,0.0
02:26:04.504:1,0.0,0.005
02:26:04.508:1,-0.015,0.0
02:26:04.512:1,0.005,0.0
02:26:04.516:1,-0.005,0.005
02:26:04.520:1,0.005,0.005
02:26:04.524:1,0.0,0.01
02:26:04.528:1,0.005,-0.015
02:26:04.532:1,0.01,-0.02
02:26:04.536:1,0.01,-0.025
02:26:04.540:1,0.02,-0.035
02:26:04.544:1,0.035,-0.02
02:26:04.548:1,0.015,-0.045
02:26:04.552:1,0.015,-0.055
02:26:04.556:1,0.0,-0.08
02:26:04.560:1,0.005,-0.08
02:26:04.564:1,0.005,-0.075
02:26:04.568:1,0.015,-0.06
02:26:04.572:1,0.0,-0.07
02:26:04.576:1,0.015,-0.075
02:26:04.580:1,0.015,-0.085
02:26:04.584:1,0.0,-0.04
02:26:04.588:1,0.01,0.025
02:26:04.592:1,0.015,0.125
02:26:04.596:1,0.025,0.27
02:26:04.600:1,0.08,0.51
02:26:04.604:1,0.085,0.765
02:26:04.608:1,0.165,0.81
02:26:04.612:1,0.265,0.63
02:26:04.616:1,0.325,0.22
02:26:04.620:1,0.335,-0.33
02:26:04.624:1,0.31,-0.74
02:26:04.628:1,0.235,-0.93
02:26:04.632:1,0.09,-0.94
02:26:04.636:1,-0.075,-0.78
02:26:04.640:1,-0.19,-0.63
02:26:04.644:1,-0.26,-0.49
02:26:04.648:1,-0.27,-0.385
02:26:04.652:1,-0.27,-0.285
02:26:04.656:1,-0.23,-0.165
02:26:04.660:1,-0.18,-0.085
02:26:04.664:1,-0.11,-0.06
02:26:04.668:1,-0.075,-0.05
02:26:04.672:1,-0.045,-0.06
02:26:04.676:1,-0.05,-0.04
02:26:04.680:1,-0.04,-0.06
02:26:04.684:1,-0.035,-0.06
02:26:04.688:1,-0.02,-0.06
02:26:04.692:1,-0.02,-0.085
02:26:04.696:1,-0.025,-0.08
02:26:04.700:1,-0.035,-0.1
02:26:04.704:1,-0.03,-0.1
02:26:04.708:1,-0.02,-0.105
02:26:04.712:1,-0.03,-0.11
02:26:04.716:1,-0.02,-0.1
02:26:04.720:1,-0.01,-0.1
02:26:04.724:1,-0.02,-0.095
02:26:04.728:1,-0.03,-0.08
02:26:04.732:1,-0.015,-0.09
02:26:04.736:1,-0.015,-0.1
02:26:04.740:1,-0.015,-0.095
02:26:04.744:1,-0.005,-0.105
02:26:04.748:1,-0.015,-0.1
02:26:04.752:1,-0.015,-0.095
02:26:04.756:1,-0.01,-0.105
02:26:04.760:1,0.0,-0.1
02:26:04.764:1,-0.025,-0.065
02:26:04.768:1,0.005,-0.055
02:26:04.772:1,0.005,-0.075
02:26:04.776:1,0.01,-0.08
02:26:04.780:1,0.015,-0.04
02:26:04.784:1,0.025,0.005
02:26:04.788:1,0.035,0.025
02:26:04.792:1,0.04,0.05
02:26:04.796:1,0.05,0.055
02:26:04.800:1,0.05,0.05
02:26:04.804:1,0.04,0.055
02:26:04.808:1,0.025,0.035
02:26:04.812:1,0.0,0.035
02:26:04.816:1,-0.01,0.025
02:26:04.820:1,-0.02,0.03
02:26:04.824:1,-0.03,0.01
02:26:04.828:1,-0.015,-0.005
02:26:04.832:1,-0.04,0.0
02:26:04.836:1,-0.055,-0.015
02:26:04.840:1,-0.07,-0.01
02:26:04.844:1,-0.05,-0.005
02:26:04.848:1,-0.045,0.015
02:26:04.852:1,-0.045,0.01
02:26:04.856:1,-0.05,0.02
02:26:04.860:1,-0.05,0.045
02:26:04.864:1,-0.02,0.05
02:26:04.868:1,-0.015,0.07
02:26:04.872:1,-0.005,0.065
02:26:04.876:1,0.0,0.1
02:26:04.880:1,0.0,0.115
02:26:04.884:1,0.015,0.13
02:26:04.888:1,0.03,0.16
02:26:04.892:1,0.035,0.15
02:26:04.896:1,0.045,0.125
02:26:04.900:1,0.06,0.105
02:26:04.904:1,0.055,0.08
02:26:04.908:1,0.07,0.07
02:26:04.912:1,0.055,0.055
02:26:04.916:1,0.06,0.05
02:26:04.920:1,0.06,0.03
02:26:04.924:1,0.05,0.025
02:26:04.928:1,0.055,0.025
02:26:04.932:1,0.045,0.03
02:26:04.936:1,0.035,0.02
02:26:04.940:1,0.065,0.005
02:26:04.944:1,0.06,0.02
02:26:04.948:1,0.055,0.015
02:26:04.952:1,0.07,0.035
02:26:04.956:1,0.085,0.065
02:26:04.960:1,0.08,0.1
02:26:04.964:1,0.09,0.125
02:26:04.968:1,0.08,0.125
02:26:04.972:1,0.09,0.145
02:26:04.976:1,0.08,0.135
02:26:04.980:1,0.07,0.12
02:26:04.984:1,0.055,0.125
02:26:04.988:1,0.04,0.13
02:26:04.992:1,0.025,0.11
02:26:04.996:1,0.03,0.11
02:26:05.000:1,0.025,0.1
02:26:05.004:1,0.02,0.085
02:26:05.008:1,0.01,0.08
02:26:05.012:1,0.015,0.065
02:26:05.016:1,0.015,0.06
02:26:05.020:1,0.005,0.045
02:26:05.024:1,-0.005,0.04
02:26:05.028:1,0.005,0.05
02:26:05.032:1,0.0,0.03
02:26:05.036:1,-0.005,0.035
02:26:05.040:1,0.005,0.015
02:26:05.044:1,0.005,0.02
02:26:05.048:1,0.0,0.015
02:26:05.052:1,0.005,0.01
02:26:05.056:1,-0.005,-0.01
02:26:05.060:1,0.005,-0.025
02:26:05.064:1,0.015,-0.005
02:26:05.068:1,0.005,0.0
02:26:05.072:1,-0.01,-0.02
02:26:05.076:1,-0.005,-0.01
02:26:05.080:1,0.0,-0.005
02:26:05.084:1,-0.005,0.005
02:26:05.088:1,0.015,0.01
02:26:05.092:1,0.035,0.0
02:26:05.096:1,0.02,0.005
02:26:05.100:1,0.045,-0.04
02:26:05.104:1,0.035,-0.03
02:26:05.108:1,0.04,-0.04
02:26:05.112:1,0.04,-0.05
02:26:05.116:1,0.05,-0.055
02:26:05.120:1,0.045,-0.04
02:26:05.124:1,0.06,0.0
02:26:05.128:1,0.075,0.04
02:26:05.132:1,0.065,0.065
02:26:05.136:1,0.045,0.09
02:26:05.140:1,0.04,0.06
02:26:05.144:1,0.05,0.05
02:26:05.148:1,0.035,0.05
02:26:05.152:1,0.045,0.025
02:26:05.156:1,0.015,0.015
02:26:05.160:1,0.01,0.015
02:26:05.164:1,0.03,0.035
02:26:05.168:1,0.01,0.035
02:26:05.172:1,0.01,0.095
02:26:05.176:1,0.03,0.225
02:26:05.180:1,0.065,0.43
02:26:05.184:1,0.07,0.665
02:26:05.188:1,0.115,0.845
02:26:05.192:1,0.17,0.825
02:26:05.196:1,0.25,0.63
02:26:05.200:1,0.275,0.205
02:26:05.204:1,0.25,-0.37
02:26:05.208:1,0.17,-0.75
02:26:05.212:1,0.04,-0.89
02:26:05.216:1,-0.13,-0.87
02:26:05.220:1,-0.245,-0.72
02:26:05.224:1,-0.325,-0.57
02:26:05.228:1,-0.325,-0.425
02:26:05.232:1,-0.3,-0.31
02:26:05.236:1,-0.265,-0.21
02:26:05.240:1,-0.21,-0.14
02:26:05.244:1,-0.13,-0.115
02:26:05.248:1,-0.095,-0.12
02:26:05.252:1,-0.065,-0.12
02:26:05.256:1,-0.06,-0.105
02:26:05.260:1,-0.055,-0.13
02:26:05.264:1,-0.055,-0.15
02:26:05.268:1,-0.05,-0.135
02:26:05.272:1,-0.04,-0.13
02:26:05.276:1,-0.015,-0.085
02:26:05.280:1,-0.015,-0.065
02:26:05.284:1,0.01,-0.065
02:26:05.288:1,0.01,-0.055
02:26:05.292:1,0.025,-0.05
02:26:05.296:1,0.0,-0.05
02:26:05.300:1,0.01,-0.04
02:26:05.304:1,0.005,-0.02
02:26:05.308:1,0.025,0.01
02:26:05.312:1,0.005,0.0
02:26:05.316:1,0.035,-0.01
02:26:05.320:1,0.005,-0.035
02:26:05.324:1,0.005,-0.025
02:26:05.328:1,-0.015,-0.02
02:26:05.332:1,0.0,-0.015
02:26:05.336:1,-0.015,-0.03
02:26:05.340:1,-0.025,-0.055
02:26:05.344:1,-0.02,-0.065
02:26:05.348:1,-0.01,-0.04
02:26:05.352:1,-0.03,-0.05
02:26:05.356:1,-0.01,-0.06
02:26:05.360:1,-0.03,-0.07
02:26:05.364:1,-0.04,-0.065
02:26:05.368:1,-0.06,-0.055
02:26:05.372:1,-0.045,-0.065
02:26:05.376:1,-0.03,-0.055
02:26:05.380:1,-0.03,-0.07
02:26:05.384:1,-0.03,-0.075
02:26:05.388:1,-0.045,-0.05
02:26:05.392:1,-0.04,-0.04
02:26:05.396:1,-0.03,-0.05
02:26:05.400:1,-0.03,-0.06
02:26:05.404:1,-0.03,-0.045
02:26:05.408:1,-0.04,-0.04
02:26:05.412:1,0.0,-0.015
02:26:05.416:1,-0.02,-0.025
02:26:05.420:1,-0.015,-0.015
02:26:05.424:1,-0.01,-0.045
02:26:05.428:1,0.0,-0.045
02:26:05.432:1,-0.015,-0.03
02:26:05.436:1,-0.01,0.03
02:26:05.440:1,0.005,0.055
02:26:05.444:1,0.02,0.105
02:26:05.448:1,0.005,0.115
02:26:05.452:1,0.0,0.16
02:26:05.456:1,0.02,0.15
02:26:05.460:1,0.045,0.135
02:26:05.464:1,0.02,0.16
02:26:05.468:1,0.035,0.145
02:26:05.472:1,0.03,0.13
02:26:05.476:1,0.05,0.1
02:26:05.480:1,0.045,0.055
02:26:05.484:1,0.04,0.045
02:26:05.488:1,0.055,0.04
02:26:05.492:1,0.055,0.04
02:26:05.496:1,0.04,0.005
02:26:05.500:1,0.045,0.005
02:26:05.504:1,0.035,-0.015
02:26:05.508:1,0.03,-0.025
02:26:05.512:1,0.035,-0.02
02:26:05.516:1,0.03,-0.03
02:26:05.520:1,0.02,-0.02
02:26:05.524:1,0.025,-0.03
02:26:05.528:1,0.01,-0.045
02:26:05.532:1,0.03,-0.005
02:26:05.536:1,0.02,-0.02
02:26:05.540:1,0.015,-0.045
02:26:05.544:1,0.03,-0.045
02:26:05.548:1,0.04,-0.04
02:26:05.552:1,0.025,-0.045
02:26:05.556:1,0.015,-0.04
02:26:05.560:1,0.015,-0.05
02:26:05.564:1,0.01,-0.045
02:26:05.568:1,0.02,-0.045
02:26:05.572:1,0.01,-0.05
02:26:05.576:1,0.025,-0.07
02:26:05.580:1,0.035,-0.075
02:26:05.584:1,0.03,-0.05
02:26:05.588:1,0.025,-0.035
02:26:05.592:1,0.025,-0.035
02:26:05.596:1,0.035,-0.035
02:26:05.600:1,0.025,-0.025
02:26:05.604:1,0.005,-0.005
02:26:05.608:1,0.01,0.005
02:26:05.612:1,0.01,0.03
02:26:05.616:1,0.01,0.015
02:26:05.620:1,0.01,0.015
02:26:05.624:1,-0.01,0.025
02:26:05.628:1,0.0,0.025
02:26:05.632:1,0.0,0.01
02:26:05.636:1,-0.005,0.015
02:26:05.640:1,-0.015,0.01
02:26:05.644:1,-0.01,0.0
02:26:05.648:1,0.005,-0.01
02:26:05.652:1,0.015,0.0
02:26:05.656:1,0.015,-0.03
02:26:05.660:1,0.025,-0.04
02:26:05.664:1,0.015,-0.04
02:26:05.668:1,0.03,-0.035
02:26:05.672:1,0.02,-0.055
02:26:05.676:1,0.025,-0.065
02:26:05.680:1,0.01,-0.085
02:26:05.684:1,0.0,-0.1
02:26:05.688:1,0.01,-0.07
02:26:05.692:1,0.02,-0.07
02:26:05.696:1,0.01,-0.07
02:26:05.700:1,0.02,-0.075
02:26:05.704:1,0.01,-0.08
02:26:05.708:1,0.0,-0.1
02:26:05.712:1,0.0,-0.11
02:26:05.716:1,0.01,-0.115
02:26:05.720:1,0.0,-0.11
02:26:05.724:1,0.015,-0.115
02:26:05.728:1,0.005,-0.12
02:26:05.732:1,0.025,-0.08
02:26:05.736:1,0.035,-0.07
02:26:05.740:1,0.015,-0.085
02:26:05.744:1,0.0,-0.1
02:26:05.748:1,0.005,-0.08
02:26:05.752:1,0.0,-0.06
02:26:05.756:1,0.0,-0.05
02:26:05.760:1,0.0,-0.02
02:26:05.764:1,-0.005,-0.015
02:26:05.768:1,0.015,-0.005
02:26:05.772:1,0.0,-0.015
02:26:05.776:1,0.025,-0.015
02:26:05.780:1,0.03,-0.01
02:26:05.784:1,0.03,-0.005
02:26:05.788:1,0.015,-0.01
02:26:05.792:1,0.015,-0.02
02:26:05.796:1,0.02,-0.015
02:26:05.800:1,0.005,-0.03
02:26:05.804:1,0.005,-0.035
02:26:05.808:1,0.0,-0.04
02:26:05.812:1,0.015,-0.02
02:26:05.816:1,0.01,-0.035
02:26:05.820:1,0.0,-0.035
02:26:05.824:1,0.015,-0.025
02:26:05.828:1,0.0,-0.01
02:26:05.832:1,0.015,0.0
02:26:05.836:1,0.01,0.015
02:26:05.840:1,0.015,0.07
02:26:05.844:1,0.065,0.19
02:26:05.848:1,0.1,0.41
02:26:05.852:1,0.145,0.67
02:26:05.856:1,0.19,0.89
02:26:05.860:1,0.26,0.94
02:26:05.864:1,0.35,0.775
02:26:05.868:1,0.415,0.37
02:26:05.872:1,0.39,-0.22
02:26:05.876:1,0.315,-0.72
02:26:05.880:1,0.185,-0.95
02:26:05.884:1,0.005,-0.965
02:26:05.888:1,-0.18,-0.8
02:26:05.892:1,-0.26,-0.625
02:26:05.896:1,-0.305,-0.465
02:26:05.900:1,-0.275,-0.35
02:26:05.904:1,-0.245,-0.23
02:26:05.908:1,-0.16,-0.135
02:26:05.912:1,-0.09,-0.11
02:26:05.916:1,-0.025,-0.095
02:26:05.920:1,-0.015,-0.115
02:26:05.924:1,-0.005,-0.115
02:26:05.928:1,0.005,-0.115
02:26:05.932:1,0.01,-0.12
02:26:05.936:1,0.0,-0.12
02:26:05.940:1,0.0,-0.12
02:26:05.944:1,-0.01,-0.135
02:26:05.948:1,0.0,-0.12
02:26:05.952:1,-0.005,-0.105
02:26:05.956:1,0.01,-0.125
02:26:05.960:1,0.01,-0.12
02:26:05.964:1,0.0,-0.13
02:26:05.968:1,0.01,-0.115
02:26:05.972:1,0.005,-0.135
02:26:05.976:1,0.015,-0.115
02:26:05.980:1,0.0,-0.11
02:26:05.984:1,0.015,-0.115
02:26:05.988:1,0.03,-0.145
02:26:05.992:1,-0.01,-0.135
02:26:05.996:1,-0.01,-0.13
02:26:06.000:1,-0.02,-0.13
02:26:06.004:1,-0.005,-0.115
02:26:06.008:1,0.01,-0.085
02:26:06.012:1,0.01,-0.075
02:26:06.016:1,0.03,-0.045
02:26:06.020:1,0.005,-0.04
02:26:06.024:1,0.015,-0.04
02:26:06.028:1,0.0,-0.035
02:26:06.032:1,0.02,-0.02
02:26:06.036:1,0.0,-0.01
02:26:06.040:1,0.025,0.0
02:26:06.044:1,0.025,-0.005
02:26:06.048:1,0.03,0.0
02:26:06.052:1,0.025,-0.005
02:26:06.056:1,0.045,-0.005
02:26:06.060:1,0.035,-0.01
02:26:06.064:1,0.02,-0.01
02:26:06.068:1,0.03,-0.025
02:26:06.072:1,0.04,-0.02
02:26:06.076:1,0.015,-0.02
02:26:06.080:1,0.02,-0.005
02:26:06.084:1,0.03,-0.03
02:26:06.088:1,0.03,-0.005
02:26:06.092:1,0.025,-0.005
02:26:06.096:1,0.03,0.01
02:26:06.100:1,0.045,0.0
02:26:06.104:1,0.02,0.005
02:26:06.108:1,0.045,0.02
02:26:06.112:1,0.035,0.035
02:26:06.116:1,0.05,0.035
02:26:06.120:1,0.055,0.05
02:26:06.124:1,0.06,0.075
02:26:06.128:1,0.05,0.095
02:26:06.132:1,0.07,0.075
02:26:06.136:1,0.06,0.075
02:26:06.140:1,0.07,0.055
02:26:06.144:1,0.075,0.065
02:26:06.148:1,0.06,0.035
02:26:06.152:1,0.075,0.03
02:26:06.156:1,0.08,0.045
02:26:06.160:1,0.065,0.055
02:26:06.164:1,0.08,0.025
02:26:06.168:1,0.08,0.04
02:26:06.172:1,0.075,0.055
02:26:06.176:1,0.09,0.065
02:26:06.180:1,0.095,0.055
02:26:06.184:1,0.09,0.08
02:26:06.188:1,0.085,0.07
02:26:06.192:1,0.075,0.105
02:26:06.196:1,0.075,0.115
02:26:06.200:1,0.09,0.11
02:26:06.204:1,0.115,0.1
02:26:06.208:1,0.125,0.095
02:26:06.212:1,0.14,0.075
02:26:06.216:1,0.11,0.055
02:26:06.220:1,0.11,0.035
02:26:06.224:1,0.085,0.02
02:26:06.228:1,0.085,0.0
02:26:06.232:1,0.095,-0.01
02:26:06.236:1,0.075,-0.005
02:26:06.240:1,0.075,-0.005
02:26:06.244:1,0.08,-0.04
02:26:06.248:1,0.055,-0.03
02:26:06.252:1,0.05,-0.045
02:26:06.256:1,0.04,-0.045
02:26:06.260:1,0.04,-0.075
02:26:06.264:1,0.03,-0.075
02:26:06.268:1,0.045,-0.095
02:26:06.272:1,0.025,-0.065
02:26:06.276:1,0.03,-0.055
02:26:06.280:1,0.01,-0.08
02:26:06.284:1,0.02,-0.085
02:26:06.288:1,0.015,-0.075
02:26:06.292:1,0.005,-0.05
02:26:06.296:1,0.03,-0.06
02:26:06.300:1,0.025,-0.075
02:26:06.304:1,0.035,-0.055
02:26:06.308:1,0.015,-0.065
02:26:06.312:1,0.03,-0.05
02:26:06.316:1,0.035,-0.06
02:26:06.320:1,0.015,-0.04
02:26:06.324:1,0.025,-0.075
02:26:06.328:1,0.02,-0.055
02:26:06.332:1,0.015,0.01
02:26:06.336:1,0.04,0.14
02:26:06.340:1,0.07,0.335
02:26:06.344:1,0.09,0.53
02:26:06.348:1,0.145,0.675
02:26:06.352:1,0.195,0.66
02:26:06.356:1,0.255,0.44
02:26:06.360:1,0.275,0.05
02:26:06.364:1,0.25,-0.435
02:26:06.368:1,0.19,-0.78
02:26:06.372:1,0.1,-0.915
02:26:06.376:1,-0.015,-0.89
02:26:06.380:1,-0.13,-0.75
02:26:06.384:1,-0.22,-0.625
02:26:06.388:1,-0.235,-0.51
02:26:06.392:1,-0.24,-0.375
02:26:06.396:1,-0.215,-0.285
02:26:06.400:1,-0.155,-0.17
02:26:06.404:1,-0.105,-0.165
02:26:06.408:1,-0.04,-0.175
02:26:06.412:1,-0.01,-0.175
02:26:06.416:1,-0.01,-0.18
02:26:06.420:1,0.0,-0.2
02:26:06.424:1,-0.02,-0.205
02:26:06.428:1,-0.015,-0.195
02:26:06.432:1,-0.03,-0.18
02:26:06.436:1,-0.005,-0.165
02:26:06.440:1,-0.005,-0.175
02:26:06.444:1,0.0,-0.18
02:26:06.448:1,-0.01,-0.18
02:26:06.452:1,-0.02,-0.175
02:26:06.456:1,-0.03,-0.155
02:26:06.460:1,0.0,-0.145
02:26:06.464:1,0.0,-0.155
02:26:06.468:1,0.0,-0.135
02:26:06.472:1,-0.005,-0.105
02:26:06.476:1,0.0,-0.095
02:26:06.480:1,0.015,-0.07
02:26:06.484:1,0.01,-0.065
02:26:06.488:1,0.0,-0.07
02:26:06.492:1,0.015,-0.075
02:26:06.496:1,0.01,-0.07
02:26:06.500:1,-0.005,-0.06
02:26:06.504:1,-0.03,-0.055
02:26:06.508:1,-0.01,-0.07
02:26:06.512:1,-0.02,-0.08
02:26:06.516:1,-0.025,-0.07
02:26:06.520:1,-0.05,-0.085
02:26:06.524:1,-0.065,-0.065
02:26:06.528:1,-0.065,-0.07
02:26:06.532:1,-0.05,-0.075
02:26:06.536:1,-0.05,-0.06
02:26:06.540:1,-0.035,-0.045
02:26:06.544:1,-0.04,-0.075
02:26:06.548:1,-0.03,-0.1
02:26:06.552:1,-0.02,-0.095
02:26:06.556:1,-0.01,-0.1
02:26:06.560:1,-0.025,-0.1
02:26:06.564:1,-0.02,-0.1
02:26:06.568:1,-0.025,-0.085
02:26:06.572:1,-0.005,-0.105
02:26:06.576:1,-0.01,-0.09
02:26:06.580:1,-0.02,-0.08
02:26:06.584:1,-0.005,-0.08
02:26:06.588:1,-0.01,-0.09
02:26:06.592:1,-0.005,-0.07
02:26:06.596:1,-0.01,-0.055
02:26:06.600:1,-0.005,-0.055
02:26:06.604:1,0.015,-0.04
02:26:06.608:1,0.0,-0.01
02:26:06.612:1,0.015,-0.015
02:26:06.616:1,0.025,-0.005
02:26:06.620:1,0.005,0.0
02:26:06.624:1,0.015,-0.01
02:26:06.628:1,0.04,0.0
02:26:06.632:1,0.02,-0.01
02:26:06.636:1,0.015,0.0
02:26:06.640:1,0.015,-0.015
02:26:06.644:1,0.015,-0.02
02:26:06.648:1,0.01,-0.04
02:26:06.652:1,0.005,-0.05
02:26:06.656:1,0.0,-0.075
02:26:06.660:1,-0.005,-0.065
02:26:06.664:1,-0.005,-0.075
02:26:06.668:1,-0.005,-0.055
02:26:06.672:1,0.01,-0.06
02:26:06.676:1,0.005,-0.045
02:26:06.680:1,0.015,-0.04
02:26:06.684:1,0.03,-0.045
02:26:06.688:1,0.035,-0.035
02:26:06.692:1,0.03,-0.05
02:26:06.696:1,0.045,-0.035
02:26:06.700:1,0.06,-0.025
02:26:06.704:1,0.07,-0.065
02:26:06.708:1,0.07,-0.065
02:26:06.712:1,0.06,-0.07
02:26:06.716:1,0.055,-0.07
02:26:06.720:1,0.05,-0.08
02:26:06.724:1,0.05,-0.085
02:26:06.728:1,0.055,-0.075
02:26:06.732:1,0.055,-0.09
02:26:06.736:1,0.07,-0.085
02:26:06.740:1,0.075,-0.08
02:26:06.744:1,0.045,-0.075
02:26:06.748:1,0.05,-0.08
02:26:06.752:1,0.045,-0.06
02:26:06.756:1,0.045,-0.055
02:26:06.760:1,0.045,-0.06
02:26:06.764:1,0.05,-0.055
02:26:06.768:1,0.03,-0.05
02:26:06.772:1,0.02,-0.055
02:26:06.776:1,0.045,-0.03
02:26:06.780:1,0.035,-0.015
02:26:06.784:1,0.015,-0.05
02:26:06.788:1,0.03,-0.07
02:26:06.792:1,0.02,-0.04
02:26:06.796:1,0.015,-0.06
02:26:06.800:1,0.015,-0.05
02:26:06.804:1,0.015,-0.07
02:26:06.808:1,0.025,-0.075
02:26:06.812:1,0.02,-0.07
02:26:06.816:1,0.015,-0.08
02:26:06.820:1,0.01,-0.07
02:26:06.824:1,0.01,-0.085
02:26:06.828:1,0.01,-0.1
02:26:06.832:1,0.0,-0.1
02:26:06.836:1,0.015,-0.085
02:26:06.840:1,0.015,-0.08
02:26:06.844:1,0.035,-0.09
02:26:06.848:1,0.035,-0.085
02:26:06.852:1,0.04,-0.075
02:26:06.856:1,0.06,-0.055
02:26:06.860:1,0.045,-0.055
02:26:06.864:1,0.045,-0.07
02:26:06.868:1,0.055,-0.09
02:26:06.872:1,0.06,-0.105
02:26:06.876:1,0.06,-0.11
02:26:06.880:1,0.07,-0.115
02:26:06.884:1,0.075,-0.145
02:26:06.888:1,0.085,-0.165
02:26:06.892:1,0.065,-0.155
02:26:06.896:1,0.075,-0.12
02:26:06.900:1,0.1,-0.105
02:26:06.904:1,0.1,-0.1
02:26:06.908:1,0.065,-0.1
02:26:06.912:1,0.065,-0.095
02:26:06.916:1,0.065,-0.06
02:26:06.920:1,0.055,-0.06
02:26:06.924:1,0.04,-0.095
02:26:06.928:1,0.04,-0.095
02:26:06.932:1,0.015,-0.09
02:26:06.936:1,0.03,-0.1
02:26:06.940:1,0.02,-0.105
02:26:06.944:1,0.03,-0.11
02:26:06.948:1,0.01,-0.125
02:26:06.952:1,0.02,-0.11
02:26:06.956:1,0.005,-0.125
02:26:06.960:1,0.0,-0.105
02:26:06.964:1,0.0,-0.11
02:26:06.968:1,0.02,-0.105
02:26:06.972:1,0.0,-0.125
02:26:06.976:1,0.01,-0.12
02:26:06.980:1,0.015,-0.13
02:26:06.984:1,0.035,-0.13
02:26:06.988:1,0.015,-0.12
02:26:06.992:1,0.025,-0.14
02:26:06.996:1,0.03,-0.115
02:26:07.000:1,0.01,-0.12
02:26:07.004:1,0.01,-0.115
02:26:07.008:1,0.025,-0.12
02:26:07.012:1,0.02,-0.11
02:26:07.016:1,0.025,-0.035
02:26:07.020:1,0.05,0.09
02:26:07.024:1,0.07,0.285
02:26:07.028:1,0.085,0.52
02:26:07.032:1,0.145,0.7
02:26:07.036:1,0.2,0.69
02:26:07.040:1,0.29,0.51
02:26:07.044:1,0.345,0.14
02:26:07.048:1,0.345,-0.42
02:26:07.052:1,0.305,-0.845
02:26:07.056:1,0.265,-0.96
02:26:07.060:1,0.145,-0.95
02:26:07.064:1,0.0,-0.78
02:26:07.068:1,-0.135,-0.615
02:26:07.072:1,-0.19,-0.465
02:26:07.076:1,-0.2,-0.345
02:26:07.080:1,-0.205,-0.22
02:26:07.084:1,-0.175,-0.145
02:26:07.088:1,-0.095,-0.09
02:26:07.092:1,-0.035,-0.07
02:26:07.096:1,0.01,-0.07
02:26:07.100:1,-0.005,-0.07
02:26:07.104:1,0.0,-0.1
02:26:07.108:1,0.005,-0.075
02:26:07.112:1,0.0,-0.095
02:26:07.116:1,-0.015,-0.1
02:26:07.120:1,-0.01,-0.105
02:26:07.124:1,-0.01,-0.095
02:26:07.128:1,-0.01,-0.115
02:26:07.132:1,-0.01,-0.135
02:26:07.136:1,-0.02,-0.13
02:26:07.140:1,-0.01,-0.12
02:26:07.144:1,0.0,-0.12
02:26:07.148:1,0.005,-0.13
02:26:07.152:1,-0.015,-0.14
02:26:07.156:1,0.0,-0.14
02:26:07.160:1,0.0,-0.13
02:26:07.164:1,0.0,-0.12
02:26:07.168:1,0.025,-0.13
02:26:07.172:1,0.01,-0.135
02:26:07.176:1,0.0,-0.11
02:26:07.180:1,0.0,-0.11
02:26:07.184:1,0.025,-0.1
02:26:07.188:1,0.04,-0.11
02:26:07.192:1,0.055,-0.105
02:26:07.196:1,0.06,-0.135
02:26:07.200:1,0.08,-0.115
02:26:07.204:1,0.05,-0.125
02:26:07.208:1,0.035,-0.12
02:26:07.212:1,0.03,-0.12
02:26:07.216:1,0.015,-0.1
02:26:07.220:1,0.01,-0.11
02:26:07.224:1,0.005,-0.11
02:26:07.228:1,0.0,-0.12
02:26:07.232:1,0.005,-0.115
02:26:07.236:1,-0.01,-0.12
02:26:07.240:1,0.0,-0.11
02:26:07.244:1,-0.02,-0.11
02:26:07.248:1,0.0,-0.12
02:26:07.252:1,0.0,-0.115
02:26:07.256:1,-0.005,-0.11
02:26:07.260:1,-0.005,-0.095
02:26:07.264:1,-0.02,-0.09
02:26:07.268:1,0.0,-0.095
02:26:07.272:1,-0.01,-0.095
02:26:07.276:1,-0.015,-0.08
02:26:07.280:1,-0.005,-0.07
02:26:07.284:1,-0.01,-0.07
02:26:07.288:1,-0.005,-0.065
02:26:07.292:1,0.0,-0.065
02:26:07.296:1,-0.005,-0.045
02:26:07.300:1,-0.005,-0.03
02:26:07.304:1,0.01,-0.04
02:26:07.308:1,0.0,-0.045
02:26:07.312:1,0.005,-0.04
02:26:07.316:1,0.005,-0.06
02:26:07.320:1,0.025,-0.04
02:26:07.324:1,0.015,-0.03
02:26:07.328:1,0.03,-0.02
02:26:07.332:1,0.035,-0.025
02:26:07.336:1,0.045,-0.005
02:26:07.340:1,0.055,0.03
02:26:07.344:1,0.055,0.04
02:26:07.348:1,0.055,0.035
02:26:07.352:1,0.08,0.04
02:26:07.356:1,0.075,0.04
02:26:07.360:1,0.1,0.02
02:26:07.364:1,0.09,0.0
02:26:07.368:1,0.075,0.0
02:26:07.372:1,0.085,0.0
02:26:07.376:1,0.085,-0.005
02:26:07.380:1,0.075,-0.015
02:26:07.384:1,0.075,-0.015
02:26:07.388:1,0.06,-0.045
02:26:07.392:1,0.04,-0.055
02:26:07.396:1,0.03,-0.07
02:26:07.400:1,0.035,-0.09
02:26:07.404:1,0.035,-0.095
02:26:07.408:1,0.005,-0.08
02:26:07.412:1,0.01,-0.09
02:26:07.416:1,0.015,-0.095
02:26:07.420:1,0.005,-0.085
02:26:07.424:1,0.005,-0.085
02:26:07.428:1,0.0,-0.105
02:26:07.432:1,0.025,-0.125
02:26:07.436:1,0.015,-0.12
02:26:07.440:1,0.015,-0.095
02:26:07.444:1,0.02,-0.105
02:26:07.448:1,0.01,-0.105
02:26:07.452:1,0.015,-0.12
02:26:07.456:1,0.02,-0.09
02:26:07.460:1,0.02,-0.105
02:26:07.464:1,0.005,-0.08
02:26:07.468:1,0.015,-0.085
02:26:07.472:1,0.025,-0.11
02:26:07.476:1,0.035,-0.135
02:26:07.480:1,0.035,-0.15
02:26:07.484:1,0.04,-0.12
02:26:07.488:1,0.045,-0.065
02:26:07.492:1,0.055,-0.04
02:26:07.496:1,0.055,-0.03
02:26:07.500:1,0.04,-0.04
02:26:07.504:1,0.04,-0.015
02:26:07.508:1,0.01,0.005
02:26:07.512:1,0.03,0.01
02:26:07.516:1,0.015,0.075
02:26:07.520:1,0.065,0.23
02:26:07.524:1,0.11,0.425
02:26:07.528:1,0.14,0.62
02:26:07.532:1,0.19,0.73
02:26:07.536:1,0.25,0.645
02:26:07.540:1,0.3,0.37
02:26:07.544:1,0.305,-0.07
02:26:07.548:1,0.23,-0.595
02:26:07.552:1,0.115,-0.89
02:26:07.556:1,-0.045,-0.98
02:26:07.560:1,-0.2,-0.91
02:26:07.564:1,-0.3,-0.735
02:26:07.568:1,-0.32,-0.57
02:26:07.572:1,-0.3,-0.44
02:26:07.576:1,-0.245,-0.32
02:26:07.580:1,-0.195,-0.225
02:26:07.584:1,-0.115,-0.195
02:26:07.588:1,-0.055,-0.195
02:26:07.592:1,-0.015,-0.21
02:26:07.596:1,0.0,-0.225
02:26:07.600:1,-0.015,-0.235
02:26:07.604:1,0.0,-0.22
02:26:07.608:1,-0.02,-0.215
02:26:07.612:1,-0.025,-0.235
02:26:07.616:1,-0.01,-0.24
02:26:07.620:1,-0.01,-0.25
02:26:07.624:1,-0.005,-0.255
02:26:07.628:1,-0.015,-0.245
02:26:07.632:1,-0.015,-0.275
02:26:07.636:1,0.0,-0.26
02:26:07.640:1,0.0,-0.25
02:26:07.644:1,0.0,-0.215
02:26:07.648:1,0.015,-0.175
02:26:07.652:1,0.025,-0.16
02:26:07.656:1,0.02,-0.155
02:26:07.660:1,0.025,-0.145
02:26:07.664:1,0.035,-0.11
02:26:07.668:1,0.015,-0.095
02:26:07.672:1,0.01,-0.09
02:26:07.676:1,0.015,-0.085
02:26:07.680:1,-0.015,-0.055
02:26:07.684:1,-0.015,-0.045
02:26:07.688:1,-0.015,-0.06
02:26:07.692:1,-0.005,-0.09
02:26:07.696:1,0.0,-0.075
02:26:07.700:1,-0.005,-0.085
02:26:07.704:1,0.005,-0.09
02:26:07.708:1,0.005,-0.09
02:26:07.712:1,0.02,-0.08
02:26:07.716:1,0.005,-0.09
02:26:07.720:1,0.01,-0.08
02:26:07.724:1,0.015,-0.08
02:26:07.728:1,0.04,-0.085
02:26:07.732:1,0.015,-0.08
02:26:07.736:1,0.005,-0.09
02:26:07.740:1,0.015,-0.08
02:26:07.744:1,0.005,-0.065
02:26:07.748:1,0.015,-0.07
02:26:07.752:1,0.01,-0.085
02:26:07.756:1,0.02,-0.09
02:26:07.760:1,0.005,-0.075
02:26:07.764:1,0.02,-0.06
02:26:07.768:1,0.04,-0.055
02:26:07.772:1,0.035,-0.05
02:26:07.776:1,0.025,-0.08
02:26:07.780:1,0.025,-0.08
02:26:07.784:1,0.035,-0.07
02:26:07.788:1,0.035,-0.08
02:26:07.792:1,0.035,-0.075
02:26:07.796:1,0.04,-0.035
02:26:07.800:1,0.05,-0.02
02:26:07.804:1,0.045,-0.01
02:26:07.808:1,0.04,-0.01
02:26:07.812:1,0.045,-0.005
02:26:07.816:1,0.065,-0.015
02:26:07.820:1,0.055,-0.03
02:26:07.824:1,0.055,-0.03
02:26:07.828:1,0.06,-0.025
02:26:07.832:1,0.05,-0.02
02:26:07.836:1,0.07,-0.01
02:26:07.840:1,0.08,-0.015
02:26:07.844:1,0.085,-0.005
02:26:07.848:1,0.085,-0.005
02:26:07.852:1,0.08,-0.01
02:26:07.856:1,0.045,-0.03
02:26:07.860:1,0.065,-0.025
02:26:07.864:1,0.075,-0.035
02:26:07.868:1,0.085,-0.03
02:26:07.872:1,0.07,-0.075
02:26:07.876:1,0.075,-0.06
02:26:07.880:1,0.075,-0.075
02:26:07.884:1,0.065,-0.085
02:26:07.888:1,0.07,-0.115
02:26:07.892:1,0.06,-0.13
02:26:07.896:1,0.07,-0.11
02:26:07.900:1,0.05,-0.11
02:26:07.904:1,0.065,-0.125
02:26:07.908:1,0.045,-0.11
02:26:07.912:1,0.05,-0.105
02:26:07.916:1,0.055,-0.135
02:26:07.920:1,0.085,-0.115
02:26:07.924:1,0.07,-0.09
02:26:07.928:1,0.07,-0.105
02:26:07.932:1,0.095,-0.105
02:26:07.936:1,0.095,-0.13
02:26:07.940:1,0.085,-0.13
02:26:07.944:1,0.075,-0.13
02:26:07.948:1,0.1,-0.105
02:26:07.952:1,0.105,-0.1
02:26:07.956:1,0.09,-0.1
02:26:07.960:1,0.1,-0.075
02:26:07.964:1,0.07,-0.045
02:26:07.968:1,0.055,-0.045
02:26:07.972:1,0.055,-0.035
02:26:07.976:1,0.025,-0.045
02:26:07.980:1,0.015,-0.075
02:26:07.984:1,0.02,-0.09
02:26:07.988:1,0.025,-0.08
02:26:07.992:1,0.015,-0.1
02:26:07.996:1,0.0,-0.11
02:26:08.000:1,-0.005,-0.125
02:26:08.004:1,0.0,-0.115
02:26:08.008:1,-0.015,-0.11
02:26:08.012:1,0.0,-0.13
02:26:08.016:1,-0.01,-0.14
02:26:08.020:1,-0.02,-0.105
02:26:08.024:1,-0.005,-0.08
02:26:08.028:1,0.0,-0.12
02:26:08.032:1,0.005,-0.13
02:26:08.036:1,-0.005,-0.125
02:26:08.040:1,-0.01,-0.12
02:26:08.044:1,-0.01,-0.12
02:26:08.048:1,-0.01,-0.13
02:26:08.052:1,-0.01,-0.15
02:26:08.056:1,0.0,-0.155
02:26:08.060:1,0.01,-0.155
02:26:08.064:1,0.0,-0.15
02:26:08.068:1,0.015,-0.16
02:26:08.072:1,0.035,-0.185
02:26:08.076:1,0.01,-0.2
02:26:08.080:1,0.0,-0.205
02:26:08.084:1,0.01,-0.195
02:26:08.088:1,0.015,-0.17
02:26:08.092:1,0.015,-0.14
02:26:08.096:1,0.03,-0.12
02:26:08.100:1,0.045,-0.1
02:26:08.104:1,0.045,-0.08
02:26:08.108:1,0.055,-0.075
02:26:08.112:1,0.05,-0.08
02:26:08.116:1,0.06,-0.06
02:26:08.120:1,0.065,-0.06
02:26:08.124:1,0.065,-0.05
02:26:08.128:1,0.045,-0.055
02:26:08.132:1,0.05,-0.055
02:26:08.136:1,0.045,-0.08
02:26:08.140:1,0.035,-0.09
02:26:08.144:1,0.025,-0.06
02:26:08.148:1,0.02,-0.07
02:26:08.152:1,0.025,-0.07
02:26:08.156:1,0.015,-0.07
02:26:08.160:1,0.01,-0.065
02:26:08.164:1,0.03,-0.08
02:26:08.168:1,0.03,-0.065
02:26:08.172:1,0.01,-0.065
02:26:08.176:1,0.01,-0.05
02:26:08.180:1,0.03,-0.06
02:26:08.184:1,0.0,-0.06
02:26:08.188:1,0.005,-0.065
02:26:08.192:1,0.025,-0.025
02:26:08.196:1,0.025,0.085
02:26:08.200:1,0.07,0.255
02:26:08.204:1,0.095,0.495
02:26:08.208:1,0.1,0.73
02:26:08.212:1,0.17,0.83
02:26:08.216:1,0.255,0.68
02:26:08.220:1,0.305,0.3
02:26:08.224:1,0.285,-0.265
02:26:08.228:1,0.24,-0.79
02:26:08.232:1,0.15,-1.05
02:26:08.236:1,-0.035,-1.08
02:26:08.240:1,-0.185,-0.965
02:26:08.244:1,-0.295,-0.77
02:26:08.248:1,-0.3,-0.595
02:26:08.252:1,-0.245,-0.43
02:26:08.256:1,-0.215,-0.3
02:26:08.260:1,-0.14,-0.19
02:26:08.264:1,-0.045,-0.14
02:26:08.268:1,-0.015,-0.105
02:26:08.272:1,0.01,-0.125
02:26:08.276:1,0.02,-0.13
02:26:08.280:1,0.01,-0.16
02:26:08.284:1,-0.005,-0.165
02:26:08.288:1,-0.015,-0.165
02:26:08.292:1,-0.025,-0.155
02:26:08.296:1,0.0,-0.175
02:26:08.300:1,-0.025,-0.185
02:26:08.304:1,-0.01,-0.18
02:26:08.308:1,-0.02,-0.16
02:26:08.312:1,-0.02,-0.165
02:26:08.316:1,-0.015,-0.155
02:26:08.320:1,-0.05,-0.18
02:26:08.324:1,-0.03,-0.17
02:26:08.328:1,0.0,-0.165
02:26:08.332:1,-0.015,-0.165
02:26:08.336:1,-0.03,-0.175
02:26:08.340:1,-0.04,-0.165
02:26:08.344:1,-0.02,-0.155
02:26:08.348:1,-0.03,-0.165
02:26:08.352:1,0.0,-0.15
02:26:08.356:1,-0.025,-0.1
02:26:08.360:1,-0.015,-0.12
02:26:08.364:1,-0.01,-0.095
02:26:08.368:1,0.0,-0.1
02:26:08.372:1,-0.005,-0.08
02:26:08.376:1,0.0,-0.09
02:26:08.380:1,0.035,-0.115
02:26:08.384:1,0.02,-0.145
02:26:08.388:1,0.0,-0.165
02:26:08.392:1,-0.015,-0.165
02:26:08.396:1,0.0,-0.155
02:26:08.400:1,0.0,-0.145
02:26:08.404:1,0.005,-0.11
02:26:08.408:1,0.02,-0.075
02:26:08.412:1,0.03,-0.075
02:26:08.416:1,0.045,-0.08
02:26:08.420:1,0.055,-0.09
02:26:08.424:1,0.055,-0.08
02:26:08.428:1,0.03,-0.08
02:26:08.432:1,0.02,-0.06
02:26:08.436:1,-0.015,-0.075
02:26:08.440:1,-0.015,-0.065
02:26:08.444:1,-0.035,-0.08
02:26:08.448:1,-0.005,-0.065
02:26:08.452:1,-0.01,-0.05
02:26:08.456:1,-0.01,-0.035
02:26:08.460:1,-0.01,-0.035
02:26:08.464:1,-0.005,-0.035
02:26:08.468:1,-0.01,-0.015
02:26:08.472:1,0.0,-0.005
02:26:08.476:1,-0.005,-0.005
02:26:08.480:1,0.01,0.005
02:26:08.484:1,-0.005,0.03
02:26:08.488:1,0.005,0.025
02:26:08.492:1,0.02,0.02
02:26:08.496:1,0.01,0.025
02:26:08.500:1,0.02,0.025
02:26:08.504:1,0.03,0.03
02:26:08.508:1,0.035,0.035
02:26:08.512:1,0.04,0.035
02:26:08.516:1,0.045,0.02
02:26:08.520:1,0.065,0.03
02:26:08.524:1,0.045,0.015
02:26:08.528:1,0.065,0.02
02:26:08.532:1,0.075,0.03
02:26:08.536:1,0.075,0.0
02:26:08.540:1,0.07,-0.02
02:26:08.544:1,0.075,-0.06
02:26:08.548:1,0.06,-0.055
02:26:08.552:1,0.045,-0.045
02:26:08.556:1,0.04,-0.075
02:26:08.560:1,0.07,-0.1
02:26:08.564:1,0.07,-0.095
02:26:08.568:1,0.055,-0.1
02:26:08.572:1,0.055,-0.115
02:26:08.576:1,0.05,-0.135
02:26:08.580:1,0.03,-0.16
02:26:08.584:1,0.04,-0.175
02:26:08.588:1,0.035,-0.155
02:26:08.592:1,0.035,-0.135
02:26:08.596:1,0.015,-0.085
02:26:08.600:1,0.025,-0.06
02:26:08.604:1,0.03,-0.055
02:26:08.608:1,0.04,-0.065
02:26:08.612:1,0.03,-0.065
02:26:08.616:1,0.02,-0.06
02:26:08.620:1,0.0,-0.075
02:26:08.624:1,0.0,-0.095
02:26:08.628:1,0.015,-0.08
02:26:08.632:1,0.01,-0.08
02:26:08.636:1,0.0,-0.085
02:26:08.640:1,0.01,-0.095
02:26:08.644:1,0.0,-0.075
02:26:08.648:1,-0.005,-0.095
02:26:08.652:1,-0.005,-0.095
02:26:08.656:1,0.005,-0.11
02:26:08.660:1,0.0,-0.105
02:26:08.664:1,0.0,-0.1
02:26:08.668:1,0.005,-0.08
02:26:08.672:1,0.0,-0.065
02:26:08.676:1,0.005,-0.065
02:26:08.680:1,0.02,-0.08
02:26:08.684:1,0.0,-0.08
02:26:08.688:1,0.015,-0.05
02:26:08.692:1,0.025,0.05
02:26:08.696:1,0.04,0.22
02:26:08.700:1,0.08,0.415
02:26:08.704:1,0.125,0.58
02:26:08.708:1,0.185,0.57
02:26:08.712:1,0.25,0.355
02:26:08.716:1,0.32,-0.07
02:26:08.720:1,0.3,-0.565
02:26:08.724:1,0.255,-0.91
02:26:08.728:1,0.165,-0.995
02:26:08.732:1,0.03,-0.975
02:26:08.736:1,-0.125,-0.83
02:26:08.740:1,-0.225,-0.7
02:26:08.744:1,-0.255,-0.575
02:26:08.748:1,-0.25,-0.46
02:26:08.752:1,-0.225,-0.335
02:26:08.756:1,-0.18,-0.26
02:26:08.760:1,-0.09,-0.245
02:26:08.764:1,-0.055,-0.215
02:26:08.768:1,-0.02,-0.2
02:26:08.772:1,0.005,-0.185
02:26:08.776:1,0.015,-0.175
02:26:08.780:1,0.02,-0.15
02:26:08.784:1,0.025,-0.14
02:26:08.788:1,0.03,-0.135
02:26:08.792:1,0.02,-0.1
02:26:08.796:1,0.015,-0.105
02:26:08.800:1,0.03,-0.12
02:26:08.804:1,0.005,-0.125
02:26:08.808:1,0.0,-0.125
02:26:08.812:1,-0.005,-0.125
02:26:08.816:1,-0.03,-0.13
02:26:08.820:1,-0.03,-0.13
02:26:08.824:1,-0.05,-0.155
02:26:08.828:1,-0.025,-0.18
02:26:08.832:1,-0.025,-0.175
02:26:08.836:1,-0.03,-0.18
02:26:08.840:1,-0.035,-0.175
02:26:08.844:1,-0.01,-0.165
02:26:08.848:1,-0.015,-0.145
02:26:08.852:1,-0.01,-0.13
02:26:08.856:1,0.0,-0.105
02:26:08.860:1,-0.005,-0.11
02:26:08.864:1,0.01,-0.12
02:26:08.868:1,0.005,-0.11
02:26:08.872:1,0.01,-0.13
02:26:08.876:1,0.02,-0.13
02:26:08.880:1,0.01,-0.135
02:26:08.884:1,0.02,-0.15
02:26:08.888:1,0.0,-0.14
02:26:08.892:1,0.0,-0.145
02:26:08.896:1,0.015,-0.15
02:26:08.900:1,-0.01,-0.14
02:26:08.904:1,-0.005,-0.16
02:26:08.908:1,0.0,-0.17
02:26:08.912:1,-0.005,-0.15
02:26:08.916:1,0.01,-0.135
02:26:08.920:1,0.0,-0.12
02:26:08.924:1,-0.015,-0.14
02:26:08.928:1,0.0,-0.13
02:26:08.932:1,0.005,-0.12
02:26:08.936:1,-0.01,-0.115
02:26:08.940:1,0.005,-0.095
02:26:08.944:1,0.005,-0.04
02:26:08.948:1,0.02,-0.01
02:26:08.952:1,0.035,0.0
02:26:08.956:1,0.06,0.005
02:26:08.960:1,0.03,0.01
02:26:08.964:1,0.01,-0.005
02:26:08.968:1,0.02,0.0
02:26:08.972:1,0.005,0.005
02:26:08.976:1,0.005,-0.005
02:26:08.980:1,0.0,-0.01
02:26:08.984:1,0.005,-0.025
02:26:08.988:1,0.0,-0.025
02:26:08.992:1,0.0,-0.045
02:26:08.996:1,0.025,-0.065
02:26:09.000:1,0.01,-0.035
02:26:09.004:1,0.02,-0.05
02:26:09.008:1,0.035,-0.04
02:26:09.012:1,0.04,-0.06
02:26:09.016:1,0.03,-0.035
02:26:09.020:1,0.035,-0.045
02:26:09.024:1,0.035,-0.04
02:26:09.028:1,0.035,-0.04
02:26:09.032:1,0.035,-0.075
02:26:09.036:1,0.07,-0.09
02:26:09.040:1,0.05,-0.085
02:26:09.044:1,0.045,-0.125
02:26:09.048:1,0.045,-0.12
02:26:09.052:1,0.035,-0.13
02:26:09.056:1,0.035,-0.105
02:26:09.060:1,0.04,-0.11
02:26:09.064:1,0.025,-0.12
02:26:09.068:1,0.035,-0.115
02:26:09.072:1,0.035,-0.14
02:26:09.076:1,0.04,-0.145
02:26:09.080:1,0.04,-0.115
02:26:09.084:1,0.025,-0.13
02:26:09.088:1,0.035,-0.145
02:26:09.092:1,0.045,-0.16
02:26:09.096:1,0.02,-0.125
02:26:09.100:1,0.04,-0.115
02:26:09.104:1,0.055,-0.07
02:26:09.108:1,0.08,-0.04
02:26:09.112:1,0.08,-0.03
02:26:09.116:1,0.085,0.0
02:26:09.120:1,0.11,0.02
02:26:09.124:1,0.095,0.025
02:26:09.128:1,0.075,0.005
02:26:09.132:1,0.06,0.01
02:26:09.136:1,0.04,0.0
02:26:09.140:1,0.07,-0.005
02:26:09.144:1,0.04,-0.02
02:26:09.148:1,0.03,-0.035
02:26:09.152:1,0.025,-0.03
02:26:09.156:1,0.015,-0.035
02:26:09.160:1,0.015,-0.035
02:26:09.164:1,0.015,-0.015
02:26:09.168:1,-0.005,-0.04
02:26:09.172:1,0.03,-0.035
02:26:09.176:1,0.015,-0.04
02:26:09.180:1,0.02,-0.045
02:26:09.184:1,0.03,-0.065
02:26:09.188:1,0.02,-0.065
02:26:09.192:1,0.005,-0.07
02:26:09.196:1,0.02,-0.06
02:26:09.200:1,0.035,-0.09
02:26:09.204:1,0.045,-0.12
02:26:09.208:1,0.03,-0.135
02:26:09.212:1,0.025,-0.14
02:26:09.216:1,0.025,-0.13
02:26:09.220:1,0.025,-0.145
02:26:09.224:1,0.02,-0.165
02:26:09.228:1,0.015,-0.17
02:26:09.232:1,0.0,-0.2
02:26:09.236:1,0.0,-0.185
02:26:09.240:1,0.005,-0.19
02:26:09.244:1,0.01,-0.185
02:26:09.248:1,0.0,-0.205
02:26:09.252:1,0.02,-0.185
02:26:09.256:1,0.015,-0.165
02:26:09.260:1,0.02,-0.145
02:26:09.264:1,0.02,-0.15
02:26:09.268:1,0.035,-0.14
02:26:09.272:1,0.015,-0.135
02:26:09.276:1,0.03,-0.105
02:26:09.280:1,0.03,-0.11
02:26:09.284:1,0.015,-0.1
02:26:09.288:1,0.02,-0.095
02:26:09.292:1,0.03,-0.08
02:26:09.296:1,0.025,-0.075
02:26:09.300:1,0.03,-0.06
02:26:09.304:1,0.02,-0.09
02:26:09.308:1,0.015,-0.06
02:26:09.312:1,0.005,-0.07
02:26:09.316:1,0.02,-0.035
02:26:09.320:1,0.025,0.015
02:26:09.324:1,0.01,0.145
02:26:09.328:1,0.04,0.32
02:26:09.332:1,0.085,0.565
02:26:09.336:1,0.11,0.75
02:26:09.340:1,0.15,0.76
02:26:09.344:1,0.255,0.555
02:26:09.348:1,0.305,0.135
02:26:09.352:1,0.285,-0.395
02:26:09.356:1,0.245,-0.795
02:26:09.360:1,0.165,-0.99
02:26:09.364:1,0.035,-1.005
02:26:09.368:1,-0.1,-0.87
02:26:09.372:1,-0.175,-0.725
02:26:09.376:1,-0.24,-0.57
02:26:09.380:1,-0.22,-0.475
02:26:09.384:1,-0.21,-0.375
02:26:09.388:1,-0.18,-0.29
02:26:09.392:1,-0.12,-0.215
02:26:09.396:1,-0.07,-0.18
02:26:09.400:1,-0.015,-0.195
02:26:09.404:1,0.0,-0.195
02:26:09.408:1,0.005,-0.23
02:26:09.412:1,0.02,-0.23
02:26:09.416:1,0.01,-0.185
02:26:09.420:1,0.015,-0.115
02:26:09.424:1,0.015,-0.095
02:26:09.428:1,0.035,-0.09
02:26:09.432:1,0.02,-0.095
02:26:09.436:1,0.015,-0.1
02:26:09.440:1,0.02,-0.075
02:26:09.444:1,0.0,-0.095
02:26:09.448:1,-0.01,-0.085
02:26:09.452:1,-0.015,-0.095
02:26:09.456:1,0.0,-0.11
02:26:09.460:1,-0.02,-0.1
02:26:09.464:1,-0.02,-0.13
02:26:09.468:1,-0.045,-0.14
02:26:09.472:1,-0.055,-0.16
02:26:09.476:1,-0.04,-0.145
02:26:09.480:1,-0.035,-0.135
02:26:09.484:1,-0.035,-0.145
02:26:09.488:1,-0.035,-0.15
02:26:09.492:1,-0.035,-0.15
02:26:09.496:1,-0.035,-0.155
02:26:09.500:1,-0.03,-0.12
02:26:09.504:1,-0.055,-0.12
02:26:09.508:1,-0.05,-0.12
02:26:09.512:1,-0.025,-0.11
02:26:09.516:1,-0.025,-0.1
02:26:09.520:1,-0.005,-0.09
02:26:09.524:1,-0.005,-0.075
02:26:09.528:1,-0.005,-0.08
02:26:09.532:1,0.015,-0.09
02:26:09.536:1,0.0,-0.1
02:26:09.540:1,0.01,-0.115
02:26:09.544:1,0.02,-0.1
02:26:09.548:1,0.025,-0.13
02:26:09.552:1,0.02,-0.125
02:26:09.556:1,0.015,-0.115
02:26:09.560:1,0.015,-0.105
02:26:09.564:1,0.04,-0.115
02:26:09.568:1,0.03,-0.095
02:26:09.572:1,0.015,-0.11
02:26:09.576:1,0.03,-0.11
02:26:09.580:1,0.055,-0.09
02:26:09.584:1,0.04,-0.045
02:26:09.588:1,0.055,-0.04
02:26:09.592:1,0.06,-0.005
02:26:09.596:1,0.06,0.015
02:26:09.600:1,0.055,0.02
02:26:09.604:1,0.055,0.03
02:26:09.608:1,0.04,0.025
02:26:09.612:1,0.035,0.03
02:26:09.616:1,0.025,0.04
02:26:09.620:1,0.025,0.04
02:26:09.624:1,0.025,0.045
02:26:09.628:1,0.015,0.025
02:26:09.632:1,0.01,0.005
02:26:09.636:1,0.0,-0.005
02:26:09.640:1,-0.01,-0.035
02:26:09.644:1,0.01,-0.035
02:26:09.648:1,0.015,-0.045
02:26:09.652:1,0.02,-0.05
02:26:09.656:1,0.0,-0.065
02:26:09.660:1,0.01,-0.06
02:26:09.664:1,0.02,-0.055
02:26:09.668:1,0.02,-0.065
02:26:09.672:1,0.025,-0.055
02:26:09.676:1,0.015,-0.035
02:26:09.680:1,0.025,-0.035
02:26:09.684:1,0.03,-0.005
02:26:09.688:1,0.045,-0.005
02:26:09.692:1,0.055,-0.005
02:26:09.696:1,0.06,-0.035
02:26:09.700:1,0.09,-0.035
02:26:09.704:1,0.09,-0.03
02:26:09.708:1,0.09,-0.075
02:26:09.712:1,0.085,-0.075
02:26:09.716:1,0.09,-0.07
02:26:09.720:1,0.08,-0.045
02:26:09.724:1,0.085,-0.045
02:26:09.728:1,0.085,-0.02
02:26:09.732:1,0.09,-0.02
02:26:09.736:1,0.09,-0.02
02:26:09.740:1,0.095,-0.005
02:26:09.744:1,0.08,0.025
02:26:09.748:1,0.07,-0.005
02:26:09.752:1,0.05,-0.005
02:26:09.756:1,0.055,-0.015
02:26:09.760:1,0.045,-0.01
02:26:09.764:1,0.035,-0.04
02:26:09.768:1,0.025,-0.035
02:26:09.772:1,0.02,-0.06
02:26:09.776:1,0.02,-0.065
02:26:09.780:1,0.03,-0.08
02:26:09.784:1,0.02,-0.08
02:26:09.788:1,0.015,-0.095
02:26:09.792:1,0.015,-0.08
02:26:09.796:1,0.02,-0.1
02:26:09.800:1,0.025,-0.09
02:26:09.804:1,0.015,-0.1
02:26:09.808:1,0.03,-0.115
02:26:09.812:1,0.03,-0.105
02:26:09.816:1,0.01,-0.125
02:26:09.820:1,0.015,-0.12
02:26:09.824:1,0.015,-0.12
02:26:09.828:1,0.01,-0.135
02:26:09.832:1,0.015,-0.145
02:26:09.836:1,0.01,-0.155
02:26:09.840:1,0.0,-0.145
02:26:09.844:1,0.005,-0.13
02:26:09.848:1,0.005,-0.13
02:26:09.852:1,0.005,-0.12
02:26:09.856:1,0.015,-0.145
02:26:09.860:1,0.02,-0.15
02:26:09.864:1,0.04,-0.14
02:26:09.868:1,0.045,-0.15
02:26:09.872:1,0.08,-0.16
02:26:09.876:1,0.095,-0.11
02:26:09.880:1,0.085,-0.055
02:26:09.884:1,0.085,-0.035
02:26:09.888:1,0.1,-0.02
02:26:09.892:1,0.08,-0.025
02:26:09.896:1,0.08,-0.03
02:26:09.900:1,0.07,-0.055
02:26:09.904:1,0.05,-0.035
02:26:09.908:1,0.035,-0.055
02:26:09.912:1,0.04,-0.07
02:26:09.916:1,0.03,-0.06
02:26:09.920:1,0.02,-0.06
02:26:09.924:1,0.025,-0.065
02:26:09.928:1,0.035,-0.05
02:26:09.932:1,0.01,-0.065
02:26:09.936:1,0.03,-0.05
02:26:09.940:1,0.025,-0.04
02:26:09.944:1,0.06,-0.035
02:26:09.948:1,0.045,-0.045
02:26:09.952:1,0.04,-0.06
02:26:09.956:1,0.04,-0.055
02:26:09.960:1,0.055,-0.04
02:26:09.964:1,0.05,-0.04
02:26:09.968:1,0.045,-0.025
02:26:09.972:1,0.055,-0.05
02:26:09.976:1,0.045,-0.06
02:26:09.980:1,0.035,-0.04
02:26:09.984:1,0.045,0.005
02:26:09.988:1,0.07,0.125
02:26:09.992:1,0.1,0.38
02:26:09.996:1,0.115,0.625
02:26:10.000:1,0.16,0.86
02:26:10.004:1,0.215,0.885
02:26:10.008:1,0.31,0.695
02:26:10.012:1,0.36,0.255
02:26:10.016:1,0.335,-0.315
02:26:10.020:1,0.24,-0.79
02:26:10.024:1,0.09,-1.005
02:26:10.028:1,-0.075,-1.04
02:26:10.032:1,-0.21,-0.89
02:26:10.036:1,-0.275,-0.695
02:26:10.040:1,-0.28,-0.495
02:26:10.044:1,-0.255,-0.33
02:26:10.048:1,-0.22,-0.185
02:26:10.052:1,-0.13,-0.095
02:26:10.056:1,-0.06,-0.075
02:26:10.060:1,0.01,-0.085
02:26:10.064:1,0.045,-0.09
02:26:10.068:1,0.025,-0.105
02:26:10.072:1,0.035,-0.115
02:26:10.076:1,0.015,-0.125
02:26:10.080:1,0.0,-0.145
02:26:10.084:1,0.02,-0.14
02:26:10.088:1,0.025,-0.14
02:26:10.092:1,0.015,-0.15
02:26:10.096:1,0.005,-0.155
02:26:10.100:1,0.005,-0.145
02:26:10.104:1,0.0,-0.145
02:26:10.108:1,-0.005,-0.145
02:26:10.112:1,0.0,-0.16
02:26:10.116:1,0.005,-0.155
02:26:10.120:1,0.0,-0.15
02:26:10.124:1,0.02,-0.155
02:26:10.128:1,0.01,-0.145
02:26:10.132:1,0.02,-0.16
02:26:10.136:1,0.02,-0.155
02:26:10.140:1,0.015,-0.155
02:26:10.144:1,0.02,-0.14
02:26:10.148:1,0.025,-0.145
02:26:10.152:1,0.015,-0.15
02:26:10.156:1,0.015,-0.11
02:26:10.160:1,0.015,-0.065
02:26:10.164:1,0.04,-0.08
02:26:10.168:1,0.05,-0.085
02:26:10.172:1,0.05,-0.125
02:26:10.176:1,0.06,-0.145
02:26:10.180:1,0.065,-0.13
02:26:10.184:1,0.055,-0.075
02:26:10.188:1,0.075,-0.065
02:26:10.192:1,0.1,-0.07
02:26:10.196:1,0.095,-0.08
02:26:10.200:1,0.08,-0.05
02:26:10.204:1,0.08,-0.03
02:26:10.208:1,0.05,-0.025
02:26:10.212:1,0.05,-0.03
02:26:10.216:1,0.05,-0.055
02:26:10.220:1,0.06,-0.065
02:26:10.224:1,0.04,-0.065
02:26:10.228:1,0.045,-0.055
02:26:10.232:1,0.03,-0.05
02:26:10.236:1,0.03,-0.05
02:26:10.240:1,0.025,-0.04
02:26:10.244:1,0.02,-0.035
02:26:10.248:1,0.025,-0.035
02:26:10.252:1,0.035,-0.03
02:26:10.256:1,0.035,-0.005
02:26:10.260:1,0.03,-0.02
02:26:10.264:1,0.03,-0.005
02:26:10.268:1,0.045,-0.005
02:26:10.272:1,0.035,0.01
02:26:10.276:1,0.04,0.01
02:26:10.280:1,0.035,-0.005
02:26:10.284:1,0.035,0.005
02:26:10.288:1,0.05,0.0
02:26:10.292:1,0.045,-0.02
02:26:10.296:1,0.065,-0.045
02:26:10.300:1,0.065,-0.055
02:26:10.304:1,0.05,-0.05
02:26:10.308:1,0.04,-0.065
02:26:10.312:1,0.055,-0.09
02:26:10.316:1,0.055,-0.09
02:26:10.320:1,0.045,-0.09
02:26:10.324:1,0.07,-0.08
02:26:10.328:1,0.065,-0.065
02:26:10.332:1,0.06,-0.02
02:26:10.336:1,0.07,0.005
02:26:10.340:1,0.095,0.035
02:26:10.344:1,0.075,0.03
02:26:10.348:1,0.065,0.035
02:26:10.352:1,0.085,0.035
02:26:10.356:1,0.085,0.045
02:26:10.360:1,0.085,0.035
02:26:10.364:1,0.105,0.025
02:26:10.368:1,0.065,0.03
02:26:10.372:1,0.07,0.0
02:26:10.376:1,0.07,-0.01
02:26:10.380:1,0.065,-0.02
02:26:10.384:1,0.055,-0.025
02:26:10.388:1,0.045,-0.045
02:26:10.392:1,0.045,-0.045
02:26:10.396:1,0.05,-0.045
02:26:10.400:1,0.025,-0.045
02:26:10.404:1,0.05,-0.08
02:26:10.408:1,0.055,-0.075
02:26:10.412:1,0.04,-0.07
02:26:10.416:1,0.02,-0.08
02:26:10.420:1,0.015,-0.09
02:26:10.424:1,0.015,-0.075
02:26:10.428:1,0.03,-0.095
02:26:10.432:1,0.035,-0.115
02:26:10.436:1,0.025,-0.125
02:26:10.440:1,0.005,-0.15
02:26:10.444:1,0.015,-0.17
02:26:10.448:1,0.005,-0.175
02:26:10.452:1,0.025,-0.185
02:26:10.456:1,0.0,-0.2
02:26:10.460:1,0.0,-0.2
02:26:10.464:1,0.015,-0.195
02:26:10.468:1,0.01,-0.18
02:26:10.472:1,0.005,-0.175
02:26:10.476:1,0.03,-0.17
02:26:10.480:1,0.025,-0.165
02:26:10.484:1,0.025,-0.18
02:26:10.488:1,0.03,-0.145
02:26:10.492:1,0.03,-0.135
02:26:10.496:1,0.025,-0.15
02:26:10.500:1,0.045,-0.135
02:26:10.504:1,0.055,-0.125
02:26:10.508:1,0.055,-0.075
02:26:10.512:1,0.055,-0.025
02:26:10.516:1,0.08,0.07
02:26:10.520:1,0.095,0.265
02:26:10.524:1,0.105,0.475
02:26:10.528:1,0.14,0.695
02:26:10.532:1,0.205,0.77
02:26:10.536:1,0.285,0.635
02:26:10.540:1,0.35,0.225
02:26:10.544:1,0.365,-0.325
02:26:10.548:1,0.29,-0.775
02:26:10.552:1,0.16,-0.985
02:26:10.556:1,0.0,-1.01
02:26:10.560:1,-0.16,-0.855
02:26:10.564:1,-0.27,-0.695
02:26:10.568:1,-0.28,-0.52
02:26:10.572:1,-0.245,-0.41
02:26:10.576:1,-0.21,-0.28
02:26:10.580:1,-0.14,-0.2
02:26:10.584:1,-0.065,-0.17
02:26:10.588:1,-0.01,-0.18
02:26:10.592:1,0.015,-0.2
02:26:10.596:1,0.015,-0.2
02:26:10.600:1,0.02,-0.205
02:26:10.604:1,0.02,-0.185
02:26:10.608:1,0.035,-0.16
02:26:10.612:1,0.025,-0.19
02:26:10.616:1,0.025,-0.185
02:26:10.620:1,0.0,-0.19
02:26:10.624:1,0.01,-0.19
02:26:10.628:1,0.005,-0.18
02:26:10.632:1,0.005,-0.175
02:26:10.636:1,0.005,-0.15
02:26:10.640:1,0.02,-0.145
02:26:10.644:1,0.035,-0.125
02:26:10.648:1,0.07,-0.105
02:26:10.652:1,0.07,-0.085
02:26:10.656:1,0.07,-0.09
02:26:10.660:1,0.06,-0.12
02:26:10.664:1,0.055,-0.125
02:26:10.668:1,0.035,-0.13
02:26:10.672:1,0.01,-0.135
02:26:10.676:1,-0.015,-0.14
02:26:10.680:1,-0.01,-0.145
02:26:10.684:1,-0.04,-0.13
02:26:10.688:1,-0.03,-0.115
02:26:10.692:1,-0.025,-0.11
02:26:10.696:1,-0.025,-0.115
02:26:10.700:1,-0.015,-0.1
02:26:10.704:1,-0.02,-0.09
02:26:10.708:1,-0.015,-0.085
02:26:10.712:1,0.0,-0.065
02:26:10.716:1,0.015,-0.105
02:26:10.720:1,0.01,-0.12
02:26:10.724:1,0.02,-0.115
02:26:10.728:1,0.025,-0.12
02:26:10.732:1,0.02,-0.145
02:26:10.736:1,0.0,-0.145
02:26:10.740:1,0.0,-0.145
02:26:10.744:1,-0.015,-0.155
02:26:10.748:1,0.0,-0.135
02:26:10.752:1,-0.02,-0.13
02:26:10.756:1,0.0,-0.13
02:26:10.760:1,0.005,-0.12
02:26:10.764:1,0.0,-0.105
02:26:10.768:1,0.005,-0.11
02:26:10.772:1,0.015,-0.1
02:26:10.776:1,0.01,-0.095
02:26:10.780:1,0.005,-0.075
02:26:10.784:1,0.015,-0.065
02:26:10.788:1,0.025,-0.045
02:26:10.792:1,0.03,-0.03
02:26:10.796:1,0.04,-0.005
02:26:10.800:1,0.065,-0.005
02:26:10.804:1,0.065,0.025
02:26:10.808:1,0.07,0.02
02:26:10.812:1,0.075,0.005
02:26:10.816:1,0.085,-0.015
02:26:10.820:1,0.065,-0.01
02:26:10.824:1,0.105,-0.015
02:26:10.828:1,0.105,0.005
02:26:10.832:1,0.095,-0.005
02:26:10.836:1,0.07,-0.01
02:26:10.840:1,0.085,-0.035
02:26:10.844:1,0.06,-0.03
02:26:10.848:1,0.04,-0.025
02:26:10.852:1,0.045,-0.015
02:26:10.856:1,0.045,-0.03
02:26:10.860:1,0.04,-0.015
02:26:10.864:1,0.06,-0.02
02:26:10.868:1,0.075,0.0
02:26:10.872:1,0.085,0.0
02:26:10.876:1,0.075,0.005
02:26:10.880:1,0.09,0.0
02:26:10.884:1,0.09,0.04
02:26:10.888:1,0.115,0.03
02:26:10.892:1,0.1,0.005
02:26:10.896:1,0.11,0.01
02:26:10.900:1,0.115,0.015
02:26:10.904:1,0.11,-0.02
02:26:10.908:1,0.12,-0.045
02:26:10.912:1,0.11,-0.04
02:26:10.916:1,0.1,-0.045
02:26:10.920:1,0.1,-0.055
02:26:10.924:1,0.105,-0.04
02:26:10.928:1,0.1,-0.045
02:26:10.932:1,0.09,-0.06
02:26:10.936:1,0.105,-0.08
02:26:10.940:1,0.09,-0.125
02:26:10.944:1,0.07,-0.11
02:26:10.948:1,0.055,-0.11
02:26:10.952:1,0.08,-0.11
02:26:10.956:1,0.07,-0.135
02:26:10.960:1,0.08,-0.14
02:26:10.964:1,0.065,-0.145
02:26:10.968:1,0.075,-0.12
02:26:10.972:1,0.07,-0.14
02:26:10.976:1,0.07,-0.155
02:26:10.980:1,0.09,-0.165
02:26:10.984:1,0.1,-0.13
02:26:10.988:1,0.11,-0.08
02:26:10.992:1,0.105,-0.055
02:26:10.996:1,0.1,-0.015
02:26:11.000:1,0.095,-0.035
02:26:11.004:1,0.08,-0.06
02:26:11.008:1,0.085,-0.075
02:26:11.012:1,0.075,-0.1
02:26:11.016:1,0.07,-0.105
02:26:11.020:1,0.035,-0.14
02:26:11.024:1,0.03,-0.15
02:26:11.028:1,0.005,-0.155
02:26:11.032:1,0.015,-0.135
02:26:11.036:1,-0.005,-0.145
02:26:11.040:1,0.005,-0.105
02:26:11.044:1,0.0,-0.035
02:26:11.048:1,0.045,0.115
02:26:11.052:1,0.06,0.365
02:26:11.056:1,0.085,0.6
02:26:11.060:1,0.155,0.715
02:26:11.064:1,0.235,0.62
02:26:11.068:1,0.325,0.34
02:26:11.072:1,0.355,-0.15
02:26:11.076:1,0.345,-0.665
02:26:11.080:1,0.29,-0.975
02:26:11.084:1,0.2,-1.045
02:26:11.088:1,0.055,-0.975
02:26:11.092:1,-0.08,-0.805
02:26:11.096:1,-0.17,-0.66
02:26:11.100:1,-0.2,-0.55
02:26:11.104:1,-0.215,-0.42
02:26:11.108:1,-0.185,-0.32
02:26:11.112:1,-0.105,-0.21
02:26:11.116:1,-0.06,-0.17
02:26:11.120:1,-0.01,-0.185
02:26:11.124:1,0.01,-0.185
02:26:11.128:1,0.035,-0.185
02:26:11.132:1,0.03,-0.185
02:26:11.136:1,0.03,-0.2
02:26:11.140:1,0.035,-0.22
02:26:11.144:1,0.035,-0.22
02:26:11.148:1,0.025,-0.21
02:26:11.152:1,0.05,-0.17
02:26:11.156:1,0.035,-0.125
02:26:11.160:1,0.055,-0.12
02:26:11.164:1,0.07,-0.115
02:26:11.168:1,0.06,-0.11
02:26:11.172:1,0.055,-0.09
02:26:11.176:1,0.035,-0.085
02:26:11.180:1,0.035,-0.1
02:26:11.184:1,0.05,-0.1
02:26:11.188:1,0.045,-0.115
02:26:11.192:1,0.025,-0.105
02:26:11.196:1,0.035,-0.1
02:26:11.200:1,0.015,-0.105
02:26:11.204:1,0.005,-0.11
02:26:11.208:1,0.01,-0.115
02:26:11.212:1,0.005,-0.13
02:26:11.216:1,0.015,-0.12
02:26:11.220:1,-0.01,-0.105
02:26:11.224:1,0.025,-0.08
02:26:11.228:1,0.03,-0.08
02:26:11.232:1,0.035,-0.09
02:26:11.236:1,0.045,-0.11
02:26:11.240:1,0.055,-0.12
02:26:11.244:1,0.03,-0.12
02:26:11.248:1,0.035,-0.125
02:26:11.252:1,0.035,-0.125
02:26:11.256:1,0.025,-0.12
02:26:11.260:1,0.035,-0.14
02:26:11.264:1,0.035,-0.14
02:26:11.268:1,0.03,-0.125
02:26:11.272:1,0.03,-0.115
02:26:11.276:1,0.03,-0.135
02:26:11.280:1,0.045,-0.14
02:26:11.284:1,0.04,-0.135
02:26:11.288:1,0.035,-0.12
02:26:11.292:1,0.035,-0.125
02:26:11.296:1,0.035,-0.11
02:26:11.300:1,0.035,-0.125
02:26:11.304:1,0.05,-0.125
02:26:11.308:1,0.045,-0.105
02:26:11.312:1,0.04,-0.085
02:26:11.316:1,0.05,-0.08
02:26:11.320:1,0.05,-0.025
02:26:11.324:1,0.06,-0.01
02:26:11.328:1,0.065,-0.01
02:26:11.332:1,0.07,0.015
02:26:11.336:1,0.075,0.015
02:26:11.340:1,0.06,0.01
02:26:11.344:1,0.065,0.01
02:26:11.348:1,0.06,-0.005
02:26:11.352:1,0.07,-0.01
02:26:11.356:1,0.07,-0.03
02:26:11.360:1,0.07,-0.035
02:26:11.364:1,0.05,-0.045
02:26:11.368:1,0.06,-0.075
02:26:11.372:1,0.05,-0.06
02:26:11.376:1,0.035,-0.055
02:26:11.380:1,0.03,-0.06
02:26:11.384:1,0.025,-0.04
02:26:11.388:1,0.035,-0.015
02:26:11.392:1,0.05,-0.03
02:26:11.396:1,0.065,-0.06
02:26:11.400:1,0.1,-0.075
02:26:11.404:1,0.08,-0.08
02:26:11.408:1,0.06,-0.095
02:26:11.412:1,0.075,-0.085
02:26:11.416:1,0.06,-0.1
02:26:11.420:1,0.065,-0.1
02:26:11.424:1,0.055,-0.095
02:26:11.428:1,0.06,-0.105
02:26:11.432:1,0.05,-0.12
02:26:11.436:1,0.05,-0.12
02:26:11.440:1,0.075,-0.13
02:26:11.444:1,0.035,-0.15
02:26:11.448:1,0.05,-0.155
02:26:11.452:1,0.03,-0.145
02:26:11.456:1,0.045,-0.15
02:26:11.460:1,0.025,-0.165
02:26:11.464:1,0.045,-0.175
02:26:11.468:1,0.05,-0.195
02:26:11.472:1,0.045,-0.185
02:26:11.476:1,0.045,-0.21
02:26:11.480:1,0.035,-0.21
02:26:11.484:1,0.06,-0.18
02:26:11.488:1,0.055,-0.15
02:26:11.492:1,0.075,-0.145
02:26:11.496:1,0.06,-0.115
02:26:11.500:1,0.055,-0.08
02:26:11.504:1,0.06,-0.08
02:26:11.508:1,0.06,-0.09
02:26:11.512:1,0.07,-0.085
02:26:11.516:1,0.055,-0.085
02:26:11.520:1,0.05,-0.1
02:26:11.524:1,0.045,-0.095
02:26:11.528:1,0.05,-0.085
02:26:11.532:1,0.035,-0.095
02:26:11.536:1,0.04,-0.1
02:26:11.540:1,0.03,-0.095
02:26:11.544:1,0.015,-0.12
02:26:11.548:1,0.03,-0.125
02:26:11.552:1,0.025,-0.1
02:26:11.556:1,0.03,-0.1
02:26:11.560:1,0.04,-0.12
02:26:11.564:1,0.045,-0.125
02:26:11.568:1,0.045,-0.135
02:26:11.572:1,0.04,-0.13
02:26:11.576:1,0.065,-0.14
02:26:11.580:1,0.07,-0.14
02:26:11.584:1,0.08,-0.14
02:26:11.588:1,0.055,-0.16
02:26:11.592:1,0.055,-0.155
02:26:11.596:1,0.07,-0.16
02:26:11.600:1,0.05,-0.16
02:26:11.604:1,0.055,-0.185
02:26:11.608:1,0.05,-0.195
02:26:11.612:1,0.04,-0.2
02:26:11.616:1,0.03,-0.2
02:26:11.620:1,0.04,-0.195
02:26:11.624:1,0.03,-0.2
02:26:11.628:1,0.04,-0.215
02:26:11.632:1,0.055,-0.205
02:26:11.636:1,0.035,-0.205
02:26:11.640:1,0.04,-0.22
02:26:11.644:1,0.045,-0.255
02:26:11.648:1,0.055,-0.26
02:26:11.652:1,0.05,-0.195
02:26:11.656:1,0.035,-0.16
02:26:11.660:1,0.08,-0.15
02:26:11.664:1,0.06,-0.13
02:26:11.668:1,0.055,-0.13
02:26:11.672:1,0.055,-0.13
02:26:11.676:1,0.03,-0.115
02:26:11.680:1,0.01,-0.11
02:26:11.684:1,0.035,-0.125
02:26:11.688:1,0.035,-0.14
02:26:11.692:1,0.045,-0.14
02:26:11.696:1,0.035,-0.14
02:26:11.700:1,0.025,-0.145
02:26:11.704:1,0.01,-0.145
02:26:11.708:1,0.01,-0.16
02:26:11.712:1,0.02,-0.16
02:26:11.716:1,0.035,-0.14
02:26:11.720:1,0.015,-0.09
02:26:11.724:1,0.015,0.0
02:26:11.728:1,0.08,0.185
02:26:11.732:1,0.095,0.44
02:26:11.736:1,0.145,0.66
02:26:11.740:1,0.205,0.745
02:26:11.744:1,0.27,0.63
02:26:11.748:1,0.34,0.3
02:26:11.752:1,0.355,-0.23
02:26:11.756:1,0.29,-0.735
02:26:11.760:1,0.205,-1.025
02:26:11.764:1,0.04,-1.14
02:26:11.768:1,-0.13,-1.035
02:26:11.772:1,-0.25,-0.825
02:26:11.776:1,-0.3,-0.69
02:26:11.780:1,-0.26,-0.545
02:26:11.784:1,-0.24,-0.46
02:26:11.788:1,-0.18,-0.345
02:26:11.792:1,-0.085,-0.305
02:26:11.796:1,-0.03,-0.275
02:26:11.800:1,-0.005,-0.285
02:26:11.804:1,0.01,-0.285
02:26:11.808:1,0.03,-0.25
02:26:11.812:1,0.03,-0.24
02:26:11.816:1,0.06,-0.235
02:26:11.820:1,0.06,-0.21
02:26:11.824:1,0.035,-0.195
02:26:11.828:1,0.05,-0.175
02:26:11.832:1,0.065,-0.16
02:26:11.836:1,0.05,-0.15
02:26:11.840:1,0.035,-0.155
02:26:11.844:1,0.025,-0.17
02:26:11.848:1,0.03,-0.18
02:26:11.852:1,0.02,-0.185
02:26:11.856:1,0.015,-0.2
02:26:11.860:1,0.03,-0.2
02:26:11.864:1,0.005,-0.19
02:26:11.868:1,0.0,-0.2
02:26:11.872:1,0.0,-0.2
02:26:11.876:1,0.0,-0.185
02:26:11.880:1,0.01,-0.19
02:26:11.884:1,0.02,-0.185
02:26:11.888:1,0.025,-0.185
02:26:11.892:1,0.06,-0.19
02:26:11.896:1,0.03,-0.205
02:26:11.900:1,0.045,-0.205
02:26:11.904:1,0.035,-0.21
02:26:11.908:1,0.035,-0.215
02:26:11.912:1,0.035,-0.215
02:26:11.916:1,0.04,-0.21
02:26:11.920:1,0.04,-0.22
02:26:11.924:1,0.05,-0.24
02:26:11.928:1,0.03,-0.255
02:26:11.932:1,0.025,-0.24
02:26:11.936:1,0.015,-0.215
02:26:11.940:1,0.03,-0.22
02:26:11.944:1,0.045,-0.22
02:26:11.948:1,0.055,-0.205
02:26:11.952:1,0.06,-0.2
02:26:11.956:1,0.055,-0.205
02:26:11.960:1,0.035,-0.205
02:26:11.964:1,0.015,-0.175
02:26:11.968:1,0.03,-0.19
02:26:11.972:1,0.035,-0.175
02:26:11.976:1,0.025,-0.15
02:26:11.980:1,0.035,-0.14
02:26:11.984:1,0.025,-0.12
02:26:11.988:1,0.035,-0.11
02:26:11.992:1,0.045,-0.105
02:26:11.996:1,0.05,-0.095
02:26:12.000:1,0.045,-0.085
02:26:12.004:1,0.055,-0.075
02:26:12.008:1,0.045,-0.065
02:26:12.012:1,0.03,-0.06
02:26:12.016:1,0.04,-0.065
02:26:12.020:1,0.05,-0.07
02:26:12.024:1,0.04,-0.065
02:26:12.028:1,0.04,-0.045
02:26:12.032:1,0.055,-0.015
02:26:12.036:1,0.08,-0.035
02:26:12.040:1,0.1,-0.06
02:26:12.044:1,0.105,-0.08
02:26:12.048:1,0.095,-0.125
02:26:12.052:1,0.085,-0.12
02:26:12.056:1,0.1,-0.14
02:26:12.060:1,0.105,-0.15
02:26:12.064:1,0.09,-0.175
02:26:12.068:1,0.09,-0.165
02:26:12.072:1,0.085,-0.175
02:26:12.076:1,0.09,-0.165
02:26:12.080:1,0.09,-0.145
02:26:12.084:1,0.09,-0.155
02:26:12.088:1,0.095,-0.15
02:26:12.092:1,0.095,-0.145
02:26:12.096:1,0.095,-0.13
02:26:12.100:1,0.075,-0.14
02:26:12.104:1,0.095,-0.14
02:26:12.108:1,0.06,-0.135
02:26:12.112:1,0.075,-0.135
02:26:12.116:1,0.08,-0.14
02:26:12.120:1,0.07,-0.145
02:26:12.124:1,0.035,-0.125
02:26:12.128:1,0.05,-0.14
02:26:12.132:1,0.04,-0.13
02:26:12.136:1,0.04,-0.14
02:26:12.140:1,0.035,-0.135
02:26:12.144:1,0.04,-0.14
02:26:12.148:1,0.015,-0.14
02:26:12.152:1,0.03,-0.14
02:26:12.156:1,0.015,-0.155
02:26:12.160:1,0.04,-0.16
02:26:12.164:1,0.04,-0.185
02:26:12.168:1,0.015,-0.19
02:26:12.172:1,0.02,-0.19
02:26:12.176:1,0.035,-0.2
02:26:12.180:1,0.025,-0.18
02:26:12.184:1,0.01,-0.195
02:26:12.188:1,0.025,-0.205
02:26:12.192:1,0.025,-0.18
02:26:12.196:1,0.005,-0.18
02:26:12.200:1,0.045,-0.205
02:26:12.204:1,0.055,-0.215
02:26:12.208:1,0.035,-0.225
02:26:12.212:1,0.06,-0.235
02:26:12.216:1,0.05,-0.23
02:26:12.220:1,0.05,-0.22
02:26:12.224:1,0.045,-0.23
02:26:12.228:1,0.045,-0.23
02:26:12.232:1,0.05,-0.22
02:26:12.236:1,0.035,-0.21
02:26:12.240:1,0.045,-0.22
02:26:12.244:1,0.045,-0.225
02:26:12.248:1,0.06,-0.225
02:26:12.252:1,0.03,-0.21
02:26:12.256:1,0.045,-0.215
02:26:12.260:1,0.025,-0.21
02:26:12.264:1,0.015,-0.225
02:26:12.268:1,0.025,-0.24
02:26:12.272:1,0.02,-0.24
02:26:12.276:1,0.0,-0.22
02:26:12.280:1,0.01,-0.225
02:26:12.284:1,0.005,-0.225
02:26:12.288:1,0.005,-0.23
02:26:12.292:1,0.0,-0.225
02:26:12.296:1,0.01,-0.22
02:26:12.300:1,0.02,-0.22
02:26:12.304:1,0.0,-0.24
02:26:12.308:1,0.01,-0.24
02:26:12.312:1,0.0,-0.255
02:26:12.316:1,0.0,-0.235
02:26:12.320:1,0.0,-0.245
02:26:12.324:1,0.0,-0.245
02:26:12.328:1,0.0,-0.23
02:26:12.332:1,0.005,-0.245
02:26:12.336:1,0.03,-0.25
02:26:12.340:1,0.025,-0.235
02:26:12.344:1,0.0,-0.245
02:26:12.348:1,0.015,-0.265
02:26:12.352:1,0.0,-0.26
02:26:12.356:1,-0.005,-0.245
02:26:12.360:1,0.0,-0.235
02:26:12.364:1,0.02,-0.275
02:26:12.368:1,0.015,-0.28
02:26:12.372:1,0.025,-0.3
02:26:12.376:1,0.035,-0.315
02:26:12.380:1,0.03,-0.295
02:26:12.384:1,0.035,-0.27
02:26:12.388:1,0.01,-0.275
02:26:12.392:1,0.04,-0.255
02:26:12.396:1,0.045,-0.215
02:26:12.400:1,0.035,-0.19
02:26:12.404:1,0.015,-0.17
02:26:12.408:1,0.02,-0.14
02:26:12.412:1,0.0,-0.085
02:26:12.416:1,0.015,0.075
02:26:12.420:1,0.045,0.305
02:26:12.424:1,0.065,0.57
02:26:12.428:1,0.095,0.735
02:26:12.432:1,0.16,0.695
02:26:12.436:1,0.26,0.46
02:26:12.440:1,0.285,-0.02
02:26:12.444:1,0.255,-0.625
02:26:12.448:1,0.19,-1.035
02:26:12.452:1,0.06,-1.17
02:26:12.456:1,-0.09,-1.115
02:26:12.460:1,-0.23,-0.92
02:26:12.464:1,-0.295,-0.76
02:26:12.468:1,-0.32,-0.61
02:26:12.472:1,-0.315,-0.52
02:26:12.476:1,-0.29,-0.43
02:26:12.480:1,-0.205,-0.325
02:26:12.484:1,-0.135,-0.29
02:26:12.488:1,-0.075,-0.285
02:26:12.492:1,-0.04,-0.285
02:26:12.496:1,-0.025,-0.28
02:26:12.500:1,-0.03,-0.29
02:26:12.504:1,-0.025,-0.285
02:26:12.508:1,-0.045,-0.27
02:26:12.512:1,-0.03,-0.275
02:26:12.516:1,-0.025,-0.285
02:26:12.520:1,-0.02,-0.26
02:26:12.524:1,0.0,-0.28
02:26:12.528:1,0.015,-0.3
02:26:12.532:1,0.02,-0.31
02:26:12.536:1,0.0,-0.275
02:26:12.540:1,0.005,-0.3
02:26:12.544:1,0.0,-0.28
02:26:12.548:1,-0.01,-0.275
02:26:12.552:1,-0.025,-0.275
02:26:12.556:1,-0.02,-0.29
02:26:12.560:1,-0.03,-0.285
02:26:12.564:1,-0.06,-0.3
02:26:12.568:1,-0.06,-0.315
02:26:12.572:1,-0.075,-0.325
02:26:12.576:1,-0.075,-0.315
02:26:12.580:1,-0.075,-0.325
02:26:12.584:1,-0.075,-0.32
02:26:12.588:1,-0.055,-0.335
02:26:12.592:1,-0.075,-0.335
02:26:12.596:1,-0.06,-0.335
02:26:12.600:1,-0.07,-0.315
02:26:12.604:1,-0.08,-0.335
02:26:12.608:1,-0.075,-0.335
02:26:12.612:1,-0.08,-0.32
02:26:12.616:1,-0.08,-0.32
02:26:12.620:1,-0.06,-0.31
02:26:12.624:1,-0.065,-0.315
02:26:12.628:1,-0.06,-0.34
02:26:12.632:1,-0.05,-0.305
02:26:12.636:1,-0.045,-0.305
02:26:12.640:1,-0.035,-0.31
02:26:12.644:1,-0.055,-0.295
02:26:12.648:1,-0.065,-0.305
02:26:12.652:1,-0.02,-0.31
02:26:12.656:1,-0.055,-0.295
02:26:12.660:1,-0.055,-0.275
02:26:12.664:1,-0.03,-0.295
02:26:12.668:1,-0.005,-0.26
02:26:12.672:1,-0.02,-0.22
02:26:12.676:1,-0.01,-0.215
02:26:12.680:1,0.005,-0.185
02:26:12.684:1,0.02,-0.14
02:26:12.688:1,0.0,-0.135
02:26:12.692:1,0.01,-0.14
02:26:12.696:1,0.0,-0.12
02:26:12.700:1,0.0,-0.095
02:26:12.704:1,-0.005,-0.11
02:26:12.708:1,0.005,-0.14
02:26:12.712:1,-0.005,-0.14
02:26:12.716:1,-0.005,-0.135
02:26:12.720:1,-0.035,-0.12
02:26:12.724:1,-0.025,-0.15
02:26:12.728:1,-0.005,-0.165
02:26:12.732:1,0.0,-0.18
02:26:12.736:1,-0.01,-0.195
02:26:12.740:1,-0.015,-0.2
02:26:12.744:1,-0.02,-0.195
02:26:12.748:1,0.0,-0.21
02:26:12.752:1,-0.015,-0.21
02:26:12.756:1,0.0,-0.195
02:26:12.760:1,-0.01,-0.2
02:26:12.764:1,0.0,-0.185
02:26:12.768:1,-0.01,-0.19
02:26:12.772:1,0.015,-0.19
02:26:12.776:1,0.02,-0.2
02:26:12.780:1,0.005,-0.21
02:26:12.784:1,0.005,-0.225
02:26:12.788:1,0.02,-0.225
02:26:12.792:1,0.0,-0.225
02:26:12.796:1,0.0,-0.23
02:26:12.800:1,0.01,-0.245
02:26:12.804:1,0.02,-0.24
02:26:12.808:1,0.015,-0.245
02:26:12.812:1,0.01,-0.23
02:26:12.816:1,0.0,-0.21
02:26:12.820:1,0.01,-0.225
02:26:12.824:1,0.005,-0.21
02:26:12.828:1,0.02,-0.22
02:26:12.832:1,-0.01,-0.195
02:26:12.836:1,-0.005,-0.2
02:26:12.840:1,0.015,-0.215
02:26:12.844:1,0.02,-0.19
02:26:12.848:1,0.005,-0.205
02:26:12.852:1,0.01,-0.22
02:26:12.856:1,0.0,-0.215
02:26:12.860:1,0.0,-0.23
02:26:12.864:1,-0.015,-0.25
02:26:12.868:1,-0.005,-0.255
02:26:12.872:1,-0.02,-0.255
02:26:12.876:1,-0.015,-0.265
02:26:12.880:1,-0.01,-0.255
02:26:12.884:1,-0.02,-0.25
02:26:12.888:1,-0.025,-0.245
02:26:12.892:1,-0.015,-0.26
02:26:12.896:1,-0.01,-0.255
02:26:12.900:1,-0.02,-0.23
02:26:12.904:1,-0.015,-0.245
02:26:12.908:1,0.0,-0.255
02:26:12.912:1,-0.025,-0.235
02:26:12.916:1,-0.015,-0.255
02:26:12.920:1,0.0,-0.25
02:26:12.924:1,0.0,-0.225
02:26:12.928:1,-0.015,-0.21
02:26:12.932:1,0.005,-0.21
02:26:12.936:1,0.01,-0.22
02:26:12.940:1,0.015,-0.24
02:26:12.944:1,0.015,-0.23
02:26:12.948:1,0.02,-0.235
02:26:12.952:1,0.02,-0.245
02:26:12.956:1,0.015,-0.22
02:26:12.960:1,0.0,-0.23
02:26:12.964:1,0.005,-0.225
02:26:12.968:1,0.005,-0.215
02:26:12.972:1,0.01,-0.23
02:26:12.976:1,0.005,-0.225
02:26:12.980:1,0.005,-0.2
02:26:12.984:1,-0.015,-0.205
02:26:12.988:1,-0.01,-0.205
02:26:12.992:1,-0.015,-0.22
02:26:12.996:1,-0.005,-0.21
02:26:13.000:1,0.0,-0.195
02:26:13.004:1,0.0,-0.225
02:26:13.008:1,0.01,-0.23
02:26:13.012:1,0.0,-0.25
02:26:13.016:1,-0.02,-0.235
02:26:13.020:1,-0.02,-0.22
02:26:13.024:1,-0.02,-0.245
02:26:13.028:1,-0.005,-0.25
02:26:13.032:1,-0.01,-0.265
02:26:13.036:1,-0.01,-0.28
02:26:13.040:1,-0.03,-0.29
02:26:13.044:1,-0.015,-0.29
02:26:13.048:1,-0.015,-0.27
02:26:13.052:1,-0.035,-0.285
02:26:13.056:1,-0.04,-0.28
02:26:13.060:1,-0.025,-0.285
02:26:13.064:1,-0.045,-0.27
02:26:13.068:1,-0.04,-0.265
02:26:13.072:1,-0.045,-0.275
02:26:13.076:1,-0.03,-0.275
02:26:13.080:1,-0.03,-0.28
02:26:13.084:1,-0.035,-0.275
02:26:13.088:1,-0.035,-0.295
02:26:13.092:1,-0.035,-0.265
02:26:13.096:1,-0.01,-0.245
02:26:13.100:1,-0.025,-0.255
02:26:13.104:1,-0.005,-0.26
02:26:13.108:1,-0.015,-0.25
02:26:13.112:1,-0.025,-0.26
02:26:13.116:1,-0.025,-0.255
02:26:13.120:1,-0.035,-0.225
02:26:13.124:1,-0.025,-0.2
02:26:13.128:1,-0.03,-0.19
02:26:13.132:1,-0.015,-0.17
02:26:13.136:1,-0.01,-0.185
02:26:13.140:1,-0.015,-0.17
02:26:13.144:1,-0.02,-0.145
02:26:13.148:1,0.0,-0.15
02:26:13.152:1,0.005,-0.155
02:26:13.156:1,0.015,-0.155
02:26:13.160:1,0.005,-0.16
02:26:13.164:1,0.005,-0.14
02:26:13.168:1,0.0,-0.145
02:26:13.172:1,0.01,-0.055
02:26:13.176:1,0.03,0.12
02:26:13.180:1,0.055,0.365
02:26:13.184:1,0.07,0.6
02:26:13.188:1,0.12,0.735
02:26:13.192:1,0.21,0.61
02:26:13.196:1,0.285,0.28
02:26:13.200:1,0.28,-0.28
02:26:13.204:1,0.225,-0.805
02:26:13.208:1,0.14,-1.075
02:26:13.212:1,0.015,-1.165
02:26:13.216:1,-0.145,-1.045
02:26:13.220:1,-0.27,-0.86
02:26:13.224:1,-0.33,-0.7
02:26:13.228:1,-0.305,-0.575
02:26:13.232:1,-0.285,-0.485
02:26:13.236:1,-0.235,-0.395
02:26:13.240:1,-0.18,-0.31
02:26:13.244:1,-0.13,-0.28
02:26:13.248:1,-0.075,-0.305
02:26:13.252:1,-0.05,-0.305
02:26:13.256:1,-0.065,-0.29
02:26:13.260:1,-0.045,-0.3
02:26:13.264:1,-0.05,-0.3
02:26:13.268:1,-0.065,-0.3
02:26:13.272:1,-0.05,-0.33
02:26:13.276:1,-0.035,-0.315
02:26:13.280:1,-0.035,-0.325
02:26:13.284:1,-0.04,-0.35
02:26:13.288:1,-0.035,-0.345
02:26:13.292:1,-0.035,-0.28
02:26:13.296:1,-0.04,-0.245
02:26:13.300:1,-0.015,-0.22
02:26:13.304:1,-0.005,-0.2
02:26:13.308:1,-0.005,-0.175
02:26:13.312:1,-0.03,-0.175
02:26:13.316:1,-0.04,-0.165
02:26:13.320:1,-0.03,-0.17
02:26:13.324:1,-0.03,-0.18
02:26:13.328:1,-0.03,-0.215
02:26:13.332:1,-0.045,-0.24
02:26:13.336:1,-0.055,-0.23
02:26:13.340:1,-0.065,-0.21
02:26:13.344:1,-0.065,-0.21
02:26:13.348:1,-0.065,-0.22
02:26:13.352:1,-0.055,-0.235
02:26:13.356:1,-0.03,-0.235
02:26:13.360:1,-0.07,-0.23
02:26:13.364:1,-0.085,-0.22
02:26:13.368:1,-0.075,-0.25
02:26:13.372:1,-0.08,-0.23
02:26:13.376:1,-0.085,-0.235
02:26:13.380:1,-0.07,-0.23
02:26:13.384:1,-0.09,-0.24
02:26:13.388:1,-0.075,-0.25
02:26:13.392:1,-0.08,-0.245
02:26:13.396:1,-0.075,-0.235
02:26:13.400:1,-0.06,-0.24
02:26:13.404:1,-0.08,-0.245
02:26:13.408:1,-0.08,-0.25
02:26:13.412:1,-0.075,-0.26
02:26:13.416:1,-0.085,-0.235
02:26:13.420:1,-0.07,-0.24
02:26:13.424:1,-0.05,-0.23
02:26:13.428:1,-0.065,-0.23
02:26:13.432:1,-0.065,-0.23
02:26:13.436:1,-0.06,-0.235
02:26:13.440:1,-0.055,-0.225
02:26:13.444:1,-0.065,-0.21
02:26:13.448:1,-0.07,-0.225
02:26:13.452:1,-0.065,-0.235
02:26:13.456:1,-0.06,-0.205
02:26:13.460:1,-0.06,-0.17
02:26:13.464:1,-0.04,-0.16
02:26:13.468:1,-0.05,-0.135
02:26:13.472:1,-0.05,-0.085
02:26:13.476:1,-0.03,-0.045
02:26:13.480:1,0.005,-0.07
02:26:13.484:1,0.02,-0.06
02:26:13.488:1,0.015,-0.08
02:26:13.492:1,0.025,-0.11
02:26:13.496:1,0.025,-0.125
02:26:13.500:1,0.015,-0.125
02:26:13.504:1,-0.015,-0.12
02:26:13.508:1,0.005,-0.14
02:26:13.512:1,0.0,-0.13
02:26:13.516:1,-0.01,-0.145
02:26:13.520:1,-0.005,-0.15
02:26:13.524:1,-0.005,-0.16
02:26:13.528:1,0.0,-0.165
02:26:13.532:1,-0.01,-0.17
02:26:13.536:1,0.0,-0.19
02:26:13.540:1,0.0,-0.16
02:26:13.544:1,0.015,-0.155
02:26:13.548:1,0.01,-0.16
02:26:13.552:1,0.005,-0.18
02:26:13.556:1,-0.005,-0.175
02:26:13.560:1,0.01,-0.2
02:26:13.564:1,0.0,-0.19
02:26:13.568:1,0.0,-0.205
02:26:13.572:1,-0.02,-0.21
02:26:13.576:1,-0.03,-0.21
02:26:13.580:1,-0.01,-0.195
02:26:13.584:1,-0.03,-0.205
02:26:13.588:1,-0.04,-0.205
02:26:13.592:1,-0.04,-0.215
02:26:13.596:1,-0.05,-0.22
02:26:13.600:1,-0.05,-0.205
02:26:13.604:1,-0.03,-0.18
02:26:13.608:1,-0.005,-0.165
02:26:13.612:1,-0.03,-0.13
02:26:13.616:1,-0.045,-0.13
02:26:13.620:1,-0.03,-0.125
02:26:13.624:1,-0.005,-0.1
02:26:13.628:1,-0.005,-0.12
02:26:13.632:1,-0.005,-0.135
02:26:13.636:1,0.005,-0.13
02:26:13.640:1,-0.015,-0.14
02:26:13.644:1,-0.015,-0.14
02:26:13.648:1,0.0,-0.16
02:26:13.652:1,0.0,-0.175
02:26:13.656:1,0.0,-0.19
02:26:13.660:1,-0.01,-0.21
02:26:13.664:1,-0.015,-0.185
02:26:13.668:1,-0.025,-0.21
02:26:13.672:1,-0.025,-0.235
02:26:13.676:1,-0.025,-0.265
02:26:13.680:1,-0.035,-0.26
02:26:13.684:1,-0.055,-0.26
02:26:13.688:1,-0.045,-0.245
02:26:13.692:1,-0.065,-0.265
02:26:13.696:1,-0.045,-0.27
02:26:13.700:1,-0.05,-0.29
02:26:13.704:1,-0.05,-0.275
02:26:13.708:1,-0.045,-0.3
02:26:13.712:1,-0.03,-0.305
02:26:13.716:1,-0.045,-0.28
02:26:13.720:1,-0.03,-0.275
02:26:13.724:1,-0.025,-0.28
02:26:13.728:1,-0.015,-0.24
02:26:13.732:1,-0.035,-0.245
02:26:13.736:1,-0.035,-0.235
02:26:13.740:1,-0.035,-0.21
02:26:13.744:1,-0.035,-0.19
02:26:13.748:1,-0.035,-0.17
02:26:13.752:1,-0.03,-0.165
02:26:13.756:1,-0.03,-0.16
02:26:13.760:1,-0.03,-0.145
02:26:13.764:1,-0.03,-0.145
02:26:13.768:1,-0.035,-0.125
02:26:13.772:1,-0.05,-0.125
02:26:13.776:1,-0.025,-0.135
02:26:13.780:1,0.005,-0.14
02:26:13.784:1,0.0,-0.13
02:26:13.788:1,0.0,-0.13
02:26:13.792:1,0.0,-0.15
02:26:13.796:1,0.0,-0.175
02:26:13.800:1,-0.005,-0.175
02:26:13.804:1,-0.01,-0.175
02:26:13.808:1,-0.005,-0.18
02:26:13.812:1,0.0,-0.19
02:26:13.816:1,0.02,-0.205
02:26:13.820:1,0.025,-0.2
02:26:13.824:1,0.0,-0.21
02:26:13.828:1,0.005,-0.225
02:26:13.832:1,-0.01,-0.22
02:26:13.836:1,0.0,-0.255
02:26:13.840:1,0.0,-0.24
02:26:13.844:1,-0.005,-0.25
02:26:13.848:1,0.0,-0.24
02:26:13.852:1,0.005,-0.25
02:26:13.856:1,0.0,-0.21
02:26:13.860:1,0.005,-0.14
02:26:13.864:1,0.005,0.02
02:26:13.868:1,0.06,0.27
02:26:13.872:1,0.08,0.52
02:26:13.876:1,0.125,0.72
02:26:13.880:1,0.19,0.76
02:26:13.884:1,0.28,0.605
02:26:13.888:1,0.3,0.245
02:26:13.892:1,0.28,-0.335
02:26:13.896:1,0.185,-0.77
02:26:13.900:1,0.065,-0.97
02:26:13.904:1,-0.105,-0.995
02:26:13.908:1,-0.235,-0.89
02:26:13.912:1,-0.33,-0.71
02:26:13.916:1,-0.335,-0.57
02:26:13.920:1,-0.305,-0.425
02:26:13.924:1,-0.27,-0.31
02:26:13.928:1,-0.175,-0.2
02:26:13.932:1,-0.085,-0.185
02:26:13.936:1,-0.035,-0.185
02:26:13.940:1,0.005,-0.19
02:26:13.944:1,0.015,-0.175
02:26:13.948:1,0.03,-0.185
02:26:13.952:1,0.035,-0.2
02:26:13.956:1,0.02,-0.23
02:26:13.960:1,0.0,-0.25
02:26:13.964:1,0.0,-0.24
02:26:13.968:1,-0.01,-0.25
02:26:13.972:1,-0.015,-0.25
02:26:13.976:1,0.0,-0.25
02:26:13.980:1,-0.005,-0.26
02:26:13.984:1,-0.01,-0.24
02:26:13.988:1,-0.03,-0.255
02:26:13.992:1,-0.025,-0.265
02:26:13.996:1,-0.03,-0.275
02:26:14.000:1,-0.01,-0.255
02:26:14.004:1,-0.03,-0.245
02:26:14.008:1,-0.03,-0.24
02:26:14.012:1,-0.04,-0.25
02:26:14.016:1,-0.035,-0.245
02:26:14.020:1,-0.05,-0.245
02:26:14.024:1,-0.03,-0.245
02:26:14.028:1,-0.04,-0.23
02:26:14.032:1,-0.045,-0.205
02:26:14.036:1,-0.055,-0.22
02:26:14.040:1,-0.03,-0.215
02:26:14.044:1,-0.03,-0.215
02:26:14.048:1,-0.04,-0.19
02:26:14.052:1,-0.045,-0.2
02:26:14.056:1,-0.04,-0.205
02:26:14.060:1,-0.025,-0.19
02:26:14.064:1,-0.035,-0.17
02:26:14.068:1,-0.005,-0.17
02:26:14.072:1,0.0,-0.145
02:26:14.076:1,-0.005,-0.145
02:26:14.080:1,0.0,-0.13
02:26:14.084:1,0.005,-0.12
02:26:14.088:1,-0.005,-0.1
02:26:14.092:1,0.01,-0.115
02:26:14.096:1,0.015,-0.115
02:26:14.100:1,0.04,-0.11
02:26:14.104:1,0.03,-0.115
02:26:14.108:1,0.055,-0.115
02:26:14.112:1,0.04,-0.105
02:26:14.116:1,0.04,-0.135
02:26:14.120:1,0.035,-0.13
02:26:14.124:1,0.05,-0.145
02:26:14.128:1,0.05,-0.135
02:26:14.132:1,0.025,-0.145
02:26:14.136:1,0.005,-0.14
02:26:14.140:1,0.0,-0.115
02:26:14.144:1,0.0,-0.055
02:26:14.148:1,-0.01,-0.03
02:26:14.152:1,-0.015,-0.035
02:26:14.156:1,-0.01,-0.03
02:26:14.160:1,-0.03,-0.035
02:26:14.164:1,-0.01,-0.02
02:26:14.168:1,-0.02,-0.02
02:26:14.172:1,-0.035,-0.055
02:26:14.176:1,-0.03,-0.06
02:26:14.180:1,-0.01,-0.055
02:26:14.184:1,-0.035,-0.075
02:26:14.188:1,-0.04,-0.09
02:26:14.192:1,-0.02,-0.1
02:26:14.196:1,-0.05,-0.08
02:26:14.200:1,-0.045,-0.11
02:26:14.204:1,-0.02,-0.11
02:26:14.208:1,-0.02,-0.095
02:26:14.212:1,-0.01,-0.115
02:26:14.216:1,-0.015,-0.11
02:26:14.220:1,-0.01,-0.105
02:26:14.224:1,-0.04,-0.105
02:26:14.228:1,-0.015,-0.12
02:26:14.232:1,-0.02,-0.135
02:26:14.236:1,-0.02,-0.12
02:26:14.240:1,0.0,-0.11
02:26:14.244:1,0.005,-0.095
02:26:14.248:1,0.0,-0.095
02:26:14.252:1,0.025,-0.125
02:26:14.256:1,0.045,-0.135
02:26:14.260:1,0.035,-0.155
02:26:14.264:1,0.03,-0.14
02:26:14.268:1,0.035,-0.16
02:26:14.272:1,0.02,-0.16
02:26:14.276:1,0.015,-0.135
02:26:14.280:1,0.005,-0.12
02:26:14.284:1,0.02,-0.105
02:26:14.288:1,0.0,-0.1
02:26:14.292:1,0.0,-0.1
02:26:14.296:1,0.01,-0.115
02:26:14.300:1,0.0,-0.115
02:26:14.304:1,-0.01,-0.135
02:26:14.308:1,-0.02,-0.14
02:26:14.312:1,-0.04,-0.14
02:26:14.316:1,-0.05,-0.135
02:26:14.320:1,-0.07,-0.12
02:26:14.324:1,-0.065,-0.125
02:26:14.328:1,-0.085,-0.11
02:26:14.332:1,-0.08,-0.145
02:26:14.336:1,-0.075,-0.155
02:26:14.340:1,-0.085,-0.145
02:26:14.344:1,-0.085,-0.145
02:26:14.348:1,-0.09,-0.16
02:26:14.352:1,-0.105,-0.16
02:26:14.356:1,-0.105,-0.18
02:26:14.360:1,-0.125,-0.175
02:26:14.364:1,-0.11,-0.19
02:26:14.368:1,-0.125,-0.195
02:26:14.372:1,-0.145,-0.19
02:26:14.376:1,-0.12,-0.205
02:26:14.380:1,-0.12,-0.22
02:26:14.384:1,-0.11,-0.215
02:26:14.388:1,-0.115,-0.225
02:26:14.392:1,-0.12,-0.215
02:26:14.396:1,-0.125,-0.22
02:26:14.400:1,-0.105,-0.22
02:26:14.404:1,-0.105,-0.205
02:26:14.408:1,-0.095,-0.18
02:26:14.412:1,-0.095,-0.185
02:26:14.416:1,-0.075,-0.19
02:26:14.420:1,-0.09,-0.185
02:26:14.424:1,-0.09,-0.145
02:26:14.428:1,-0.08,-0.165
02:26:14.432:1,-0.07,-0.18
02:26:14.436:1,-0.085,-0.185
02:26:14.440:1,-0.095,-0.165
02:26:14.444:1,-0.08,-0.17
02:26:14.448:1,-0.09,-0.155
02:26:14.452:1,-0.095,-0.16
02:26:14.456:1,-0.11,-0.165
02:26:14.460:1,-0.09,-0.165
02:26:14.464:1,-0.1,-0.175
02:26:14.468:1,-0.105,-0.16
02:26:14.472:1,-0.1,-0.165
02:26:14.476:1,-0.12,-0.16
02:26:14.480:1,-0.125,-0.19
02:26:14.484:1,-0.115,-0.18
02:26:14.488:1,-0.125,-0.19
02:26:14.492:1,-0.145,-0.2
02:26:14.496:1,-0.14,-0.205
02:26:14.500:1,-0.145,-0.21
02:26:14.504:1,-0.125,-0.205
02:26:14.508:1,-0.14,-0.19
02:26:14.512:1,-0.14,-0.19
02:26:14.516:1,-0.125,-0.17
02:26:14.520:1,-0.125,-0.18
02:26:14.524:1,-0.14,-0.16
02:26:14.528:1,-0.115,-0.19
02:26:14.532:1,-0.105,-0.19
02:26:14.536:1,-0.125,-0.195
02:26:14.540:1,-0.125,-0.2
02:26:14.544:1,-0.13,-0.18
02:26:14.548:1,-0.12,-0.16
02:26:14.552:1,-0.12,-0.175
02:26:14.556:1,-0.12,-0.185
02:26:14.560:1,-0.105,-0.17
02:26:14.564:1,-0.125,-0.155
02:26:14.568:1,-0.13,-0.155
02:26:14.572:1,-0.125,-0.13
02:26:14.576:1,-0.13,-0.12
02:26:14.580:1,-0.145,-0.055
02:26:14.584:1,-0.14,0.03
02:26:14.588:1,-0.145,0.205
02:26:14.592:1,-0.1,0.435
02:26:14.596:1,-0.08,0.66
02:26:14.600:1,-0.01,0.785
02:26:14.604:1,0.06,0.675
02:26:14.608:1,0.135,0.35
02:26:14.612:1,0.155,-0.185
02:26:14.616:1,0.12,-0.7
02:26:14.620:1,0.065,-0.98
02:26:14.624:1,-0.035,-1.055
02:26:14.628:1,-0.19,-0.93
02:26:14.632:1,-0.29,-0.78
02:26:14.636:1,-0.39,-0.645
02:26:14.640:1,-0.385,-0.545
02:26:14.644:1,-0.38,-0.435
02:26:14.648:1,-0.32,-0.345
02:26:14.652:1,-0.28,-0.29
02:26:14.656:1,-0.25,-0.25
02:26:14.660:1,-0.2,-0.26
02:26:14.664:1,-0.17,-0.265
02:26:14.668:1,-0.16,-0.25
02:26:14.672:1,-0.17,-0.245
02:26:14.676:1,-0.17,-0.26
02:26:14.680:1,-0.175,-0.245
02:26:14.684:1,-0.18,-0.245
02:26:14.688:1,-0.18,-0.26
02:26:14.692:1,-0.155,-0.265
02:26:14.696:1,-0.165,-0.275
02:26:14.700:1,-0.19,-0.265
02:26:14.704:1,-0.19,-0.28
02:26:14.708:1,-0.195,-0.265
02:26:14.712:1,-0.21,-0.26
02:26:14.716:1,-0.215,-0.24
02:26:14.720:1,-0.205,-0.215
02:26:14.724:1,-0.195,-0.21
02:26:14.728:1,-0.19,-0.2
02:26:14.732:1,-0.205,-0.185
02:26:14.736:1,-0.19,-0.17
02:26:14.740:1,-0.195,-0.17
02:26:14.744:1,-0.18,-0.17
02:26:14.748:1,-0.185,-0.165
02:26:14.752:1,-0.195,-0.17
02:26:14.756:1,-0.195,-0.175
02:26:14.760:1,-0.17,-0.175
02:26:14.764:1,-0.195,-0.16
02:26:14.768:1,-0.185,-0.15
02:26:14.772:1,-0.19,-0.12
02:26:14.776:1,-0.16,-0.14
02:26:14.780:1,-0.17,-0.15
02:26:14.784:1,-0.16,-0.155
02:26:14.788:1,-0.15,-0.175
02:26:14.792:1,-0.155,-0.175
02:26:14.796:1,-0.18,-0.18
02:26:14.800:1,-0.16,-0.18
02:26:14.804:1,-0.16,-0.175
02:26:14.808:1,-0.175,-0.16
02:26:14.812:1,-0.185,-0.16
02:26:14.816:1,-0.16,-0.145
02:26:14.820:1,-0.18,-0.16
02:26:14.824:1,-0.175,-0.17
02:26:14.828:1,-0.195,-0.18
02:26:14.832:1,-0.195,-0.19
02:26:14.836:1,-0.195,-0.19
02:26:14.840:1,-0.19,-0.18
02:26:14.844:1,-0.2,-0.16
02:26:14.848:1,-0.19,-0.16
02:26:14.852:1,-0.195,-0.16
02:26:14.856:1,-0.18,-0.15
02:26:14.860:1,-0.2,-0.1
02:26:14.864:1,-0.19,-0.085
02:26:14.868:1,-0.165,-0.075
02:26:14.872:1,-0.155,-0.08
02:26:14.876:1,-0.155,-0.07
02:26:14.880:1,-0.16,-0.05
02:26:14.884:1,-0.13,-0.035
02:26:14.888:1,-0.135,-0.04
02:26:14.892:1,-0.135,-0.05
02:26:14.896:1,-0.12,-0.065
02:26:14.900:1,-0.105,-0.06
02:26:14.904:1,-0.09,-0.08
02:26:14.908:1,-0.09,-0.08
02:26:14.912:1,-0.105,-0.08
02:26:14.916:1,-0.12,-0.11
02:26:14.920:1,-0.125,-0.12
02:26:14.924:1,-0.13,-0.095
02:26:14.928:1,-0.13,-0.09
02:26:14.932:1,-0.13,-0.08
02:26:14.936:1,-0.12,-0.07
02:26:14.940:1,-0.12,-0.04
02:26:14.944:1,-0.125,-0.05
02:26:14.948:1,-0.095,-0.045
02:26:14.952:1,-0.11,-0.065
02:26:14.956:1,-0.125,-0.09
02:26:14.960:1,-0.12,-0.11
02:26:14.964:1,-0.11,-0.1
02:26:14.968:1,-0.125,-0.095
02:26:14.972:1,-0.125,-0.105
02:26:14.976:1,-0.115,-0.095
02:26:14.980:1,-0.125,-0.105
02:26:14.984:1,-0.125,-0.1
02:26:14.988:1,-0.145,-0.12
02:26:14.992:1,-0.135,-0.105
02:26:14.996:1,-0.135,-0.09
02:26:15.000:1,-0.14,-0.09
02:26:15.004:1,-0.125,-0.09
02:26:15.008:1,-0.13,-0.08
02:26:15.012:1,-0.125,-0.09
02:26:15.016:1,-0.145,-0.105
02:26:15.020:1,-0.125,-0.1
02:26:15.024:1,-0.11,-0.085
02:26:15.028:1,-0.115,-0.105
02:26:15.032:1,-0.105,-0.12
02:26:15.036:1,-0.12,-0.14
02:26:15.040:1,-0.12,-0.15
02:26:15.044:1,-0.135,-0.14
02:26:15.048:1,-0.14,-0.12
02:26:15.052:1,-0.15,-0.12
02:26:15.056:1,-0.12,-0.12
02:26:15.060:1,-0.14,-0.115
02:26:15.064:1,-0.135,-0.11
02:26:15.068:1,-0.155,-0.12
02:26:15.072:1,-0.155,-0.11
02:26:15.076:1,-0.165,-0.125
02:26:15.080:1,-0.155,-0.145
02:26:15.084:1,-0.16,-0.155
02:26:15.088:1,-0.14,-0.12
02:26:15.092:1,-0.16,-0.02
02:26:15.096:1,-0.135,0.155
02:26:15.100:1,-0.13,0.39
02:26:15.104:1,-0.095,0.61
02:26:15.108:1,-0.035,0.67
02:26:15.112:1,0.04,0.515
02:26:15.116:1,0.12,0.17
02:26:15.120:1,0.125,-0.315
02:26:15.124:1,0.09,-0.72
02:26:15.128:1,0.015,-0.88
02:26:15.132:1,-0.09,-0.86
02:26:15.136:1,-0.225,-0.76
02:26:15.140:1,-0.32,-0.63
02:26:15.144:1,-0.345,-0.495
02:26:15.148:1,-0.37,-0.365
02:26:15.152:1,-0.34,-0.275
02:26:15.156:1,-0.3,-0.17
02:26:15.160:1,-0.245,-0.125
02:26:15.164:1,-0.2,-0.12
02:26:15.168:1,-0.14,-0.11
02:26:15.172:1,-0.13,-0.12
02:26:15.176:1,-0.13,-0.11
02:26:15.180:1,-0.15,-0.125
02:26:15.184:1,-0.11,-0.12
02:26:15.188:1,-0.13,-0.13
02:26:15.192:1,-0.13,-0.135
02:26:15.196:1,-0.135,-0.14
02:26:15.200:1,-0.155,-0.14
02:26:15.204:1,-0.155,-0.125
02:26:15.208:1,-0.155,-0.12
02:26:15.212:1,-0.155,-0.135
02:26:15.216:1,-0.16,-0.13
02:26:15.220:1,-0.145,-0.155
02:26:15.224:1,-0.155,-0.145
02:26:15.228:1,-0.16,-0.14
02:26:15.232:1,-0.16,-0.155
02:26:15.236:1,-0.155,-0.16
02:26:15.240:1,-0.18,-0.145
02:26:15.244:1,-0.175,-0.14
02:26:15.248:1,-0.185,-0.145
02:26:15.252:1,-0.18,-0.155
02:26:15.256:1,-0.195,-0.15
02:26:15.260:1,-0.185,-0.15
02:26:15.264:1,-0.175,-0.115
02:26:15.268:1,-0.17,-0.095
02:26:15.272:1,-0.195,-0.1
02:26:15.276:1,-0.165,-0.115
02:26:15.280:1,-0.175,-0.1
02:26:15.284:1,-0.185,-0.115
02:26:15.288:1,-0.165,-0.11
02:26:15.292:1,-0.19,-0.09
02:26:15.296:1,-0.17,-0.09
02:26:15.300:1,-0.175,-0.1
02:26:15.304:1,-0.17,-0.1
02:26:15.308:1,-0.16,-0.055
02:26:15.312:1,-0.14,-0.055
02:26:15.316:1,-0.14,-0.06
02:26:15.320:1,-0.13,-0.055
02:26:15.324:1,-0.155,-0.04
02:26:15.328:1,-0.16,-0.04
02:26:15.332:1,-0.155,-0.035
02:26:15.336:1,-0.175,-0.045
02:26:15.340:1,-0.175,-0.035
02:26:15.344:1,-0.18,-0.02
02:26:15.348:1,-0.18,-0.01
02:26:15.352:1,-0.17,-0.005
02:26:15.356:1,-0.165,-0.025
02:26:15.360:1,-0.16,-0.02
02:26:15.364:1,-0.185,0.005
02:26:15.368:1,-0.18,0.0
02:26:15.372:1,-0.195,0.01
02:26:15.376:1,-0.16,-0.005
02:26:15.380:1,-0.155,-0.035
02:26:15.384:1,-0.16,-0.01
02:26:15.388:1,-0.15,-0.015
02:26:15.392:1,-0.155,-0.005
02:26:15.396:1,-0.145,-0.04
02:26:15.400:1,-0.14,-0.05
02:26:15.404:1,-0.145,-0.055
02:26:15.408:1,-0.155,-0.065
02:26:15.412:1,-0.145,-0.06
02:26:15.416:1,-0.14,-0.065
02:26:15.420:1,-0.145,-0.055
02:26:15.424:1,-0.14,-0.05
02:26:15.428:1,-0.155,-0.04
02:26:15.432:1,-0.16,-0.03
02:26:15.436:1,-0.125,-0.04
02:26:15.440:1,-0.115,-0.04
02:26:15.444:1,-0.125,-0.065
02:26:15.448:1,-0.135,-0.05
02:26:15.452:1,-0.12,-0.06
02:26:15.456:1,-0.14,-0.04
02:26:15.460:1,-0.135,-0.045
02:26:15.464:1,-0.135,-0.045
02:26:15.468:1,-0.115,-0.05
02:26:15.472:1,-0.145,-0.055
02:26:15.476:1,-0.14,-0.07
02:26:15.480:1,-0.155,-0.065
02:26:15.484:1,-0.155,-0.055
02:26:15.488:1,-0.16,-0.05
02:26:15.492:1,-0.16,-0.075
02:26:15.496:1,-0.155,-0.08
02:26:15.500:1,-0.14,-0.075
02:26:15.504:1,-0.135,-0.08
02:26:15.508:1,-0.14,-0.06
02:26:15.512:1,-0.165,-0.055
02:26:15.516:1,-0.175,-0.08
02:26:15.520:1,-0.15,-0.095
02:26:15.524:1,-0.165,-0.08
02:26:15.528:1,-0.175,-0.1
02:26:15.532:1,-0.17,-0.09
02:26:15.536:1,-0.17,-0.09
02:26:15.540:1,-0.18,-0.09
02:26:15.544:1,-0.155,-0.1
02:26:15.548:1,-0.15,-0.115
02:26:15.552:1,-0.15,-0.11
02:26:15.556:1,-0.16,-0.11
02:26:15.560:1,-0.175,-0.125
02:26:15.564:1,-0.175,-0.145
02:26:15.568:1,-0.14,-0.15
02:26:15.572:1,-0.16,-0.16
02:26:15.576:1,-0.14,-0.165
02:26:15.580:1,-0.125,-0.13
02:26:15.584:1,-0.135,-0.105
02:26:15.588:1,-0.14,-0.075
02:26:15.592:1,-0.16,-0.06
02:26:15.596:1,-0.195,-0.03
02:26:15.600:1,-0.185,-0.005
02:26:15.604:1,-0.185,-0.015
02:26:15.608:1,-0.16,-0.015
02:26:15.612:1,-0.16,-0.03
02:26:15.616:1,-0.16,-0.055
02:26:15.620:1,-0.155,-0.055
02:26:15.624:1,-0.145,-0.035
02:26:15.628:1,-0.155,-0.05
02:26:15.632:1,-0.14,-0.065
02:26:15.636:1,-0.14,-0.065
02:26:15.640:1,-0.135,-0.07
