Time,ECG1,ECG2
5:33:00.000,-0.175,-0.510
5:33:00.004,-0.165,-0.550
5:33:00.008,-0.180,-0.565
5:33:00.012,-0.155,-0.545
5:33:00.016,-0.145,-0.540
5:33:00.020,-0.170,-0.555
5:33:00.024,-0.155,-0.520
5:33:00.028,-0.120,-0.470
5:33:00.032,-0.105,-0.435
5:33:00.036,-0.125,-0.425
5:33:00.040,-0.120,-0.420
5:33:00.044,-0.110,-0.365
5:33:00.048,-0.075,-0.400
5:33:00.052,-0.020,-0.385
5:33:00.056,0.000,-0.385
5:33:00.060,-0.020,-0.425
5:33:00.064,-0.020,-0.475
5:33:00.068,0.015,-0.495
5:33:00.072,0.010,-0.460
5:33:00.076,0.020,-0.470
5:33:00.080,-0.015,-0.455
5:33:00.084,-0.035,-0.485
5:33:00.088,-0.100,-0.470
5:33:00.092,-0.140,-0.495
5:33:00.096,-0.140,-0.535
5:33:00.100,-0.175,-0.585
5:33:00.104,-0.210,-0.575
5:33:00.108,-0.190,-0.565
5:33:00.112,-0.225,-0.535
5:33:00.116,-0.230,-0.610
5:33:00.120,-0.240,-0.605
5:33:00.124,-0.280,-0.590
5:33:00.128,-0.265,-0.605
5:33:00.132,-0.275,-0.605
5:33:00.136,-0.250,-0.580
5:33:00.140,-0.255,-0.615
5:33:00.144,-0.265,-0.665
5:33:00.148,-0.250,-0.625
5:33:00.152,-0.280,-0.640
5:33:00.156,-0.265,-0.600
5:33:00.160,-0.250,-0.625
5:33:00.164,-0.260,-0.610
5:33:00.168,-0.260,-0.620
5:33:00.172,-0.255,-0.620
5:33:00.176,-0.260,-0.630
5:33:00.180,-0.250,-0.595
5:33:00.184,-0.255,-0.635
5:33:00.188,-0.290,-0.580
5:33:00.192,-0.335,-0.575
5:33:00.196,-0.415,-0.610
5:33:00.200,-0.595,-0.605
5:33:00.204,-0.705,-0.635
5:33:00.208,-0.725,-0.670
5:33:00.212,-0.605,-0.675
5:33:00.216,-0.350,-0.775
5:33:00.220,0.070,-0.900
5:33:00.224,0.375,-1.035
5:33:00.228,0.550,-1.015
5:33:00.232,0.950,-0.920
5:33:00.236,1.370,-0.855
5:33:00.240,1.195,-0.600
5:33:00.244,0.530,-0.105
5:33:00.248,-0.270,0.210
5:33:00.252,-0.980,-0.110
5:33:00.256,-1.390,-1.135
5:33:00.260,-1.695,-2.085
5:33:00.264,-2.065,-2.505
5:33:00.268,-2.250,-2.570
5:33:00.272,-2.245,-2.465
5:33:00.276,-2.335,-2.280
5:33:00.280,-2.300,-2.050
5:33:00.284,-2.165,-1.865
5:33:00.288,-1.950,-1.675
5:33:00.292,-1.555,-1.525
5:33:00.296,-1.135,-1.325
5:33:00.300,-0.870,-1.155
5:33:00.304,-0.700,-0.885
5:33:00.308,-0.590,-0.715
5:33:00.312,-0.510,-0.655
5:33:00.316,-0.490,-0.605
5:33:00.320,-0.475,-0.550
5:33:00.324,-0.475,-0.515
5:33:00.328,-0.470,-0.535
5:33:00.332,-0.470,-0.570
5:33:00.336,-0.455,-0.555
5:33:00.340,-0.455,-0.520
5:33:00.344,-0.440,-0.510
5:33:00.348,-0.445,-0.510
5:33:00.352,-0.450,-0.535
5:33:00.356,-0.430,-0.540
5:33:00.360,-0.430,-0.540
5:33:00.364,-0.435,-0.535
5:33:00.368,-0.435,-0.525
5:33:00.372,-0.405,-0.550
5:33:00.376,-0.390,-0.560
5:33:00.380,-0.375,-0.550
5:33:00.384,-0.375,-0.550
5:33:00.388,-0.390,-0.535
5:33:00.392,-0.370,-0.540
5:33:00.396,-0.345,-0.530
5:33:00.400,-0.320,-0.545
5:33:00.404,-0.325,-0.525
5:33:00.408,-0.285,-0.480
5:33:00.412,-0.245,-0.490
5:33:00.416,-0.195,-0.510
5:33:00.420,-0.150,-0.475
5:33:00.424,-0.140,-0.480
5:33:00.428,-0.090,-0.455
5:33:00.432,0.025,-0.425
5:33:00.436,0.055,-0.385
5:33:00.440,0.155,-0.345
5:33:00.444,0.215,-0.315
5:33:00.448,0.275,-0.255
5:33:00.452,0.330,-0.195
5:33:00.456,0.395,-0.120
5:33:00.460,0.420,-0.095
5:33:00.464,0.470,-0.055
5:33:00.468,0.495,-0.025
5:33:00.472,0.515,-0.040
5:33:00.476,0.540,0.005
5:33:00.480,0.605,0.030
5:33:00.484,0.650,0.010
5:33:00.488,0.665,0.010
5:33:00.492,0.685,0.060
5:33:00.496,0.710,0.045
5:33:00.500,0.710,-0.005
5:33:00.504,0.715,0.005
5:33:00.508,0.735,-0.005
5:33:00.512,0.700,-0.020
5:33:00.516,0.680,-0.050
5:33:00.520,0.675,-0.050
5:33:00.524,0.655,-0.035
5:33:00.528,0.635,-0.085
5:33:00.532,0.585,-0.050
5:33:00.536,0.535,-0.115
5:33:00.540,0.495,-0.065
5:33:00.544,0.445,-0.115
5:33:00.548,0.400,-0.140
5:33:00.552,0.310,-0.105
5:33:00.556,0.260,-0.140
5:33:00.560,0.175,-0.145
5:33:00.564,0.170,-0.145
5:33:00.568,0.120,-0.150
5:33:00.572,0.050,-0.175
5:33:00.576,0.000,-0.205
5:33:00.580,-0.025,-0.165
5:33:00.584,-0.035,-0.190
5:33:00.588,-0.065,-0.195
5:33:00.592,-0.115,-0.195
5:33:00.596,-0.160,-0.220
5:33:00.600,-0.180,-0.230
5:33:00.604,-0.160,-0.235
5:33:00.608,-0.190,-0.270
5:33:00.612,-0.180,-0.250
5:33:00.616,-0.195,-0.300
5:33:00.620,-0.195,-0.295
5:33:00.624,-0.210,-0.300
5:33:00.628,-0.225,-0.320
5:33:00.632,-0.225,-0.355
5:33:00.636,-0.235,-0.320
5:33:00.640,-0.235,-0.335
5:33:00.644,-0.250,-0.380
5:33:00.648,-0.230,-0.365
5:33:00.652,-0.265,-0.355
5:33:00.656,-0.240,-0.365
5:33:00.660,-0.245,-0.370
5:33:00.664,-0.220,-0.375
5:33:00.668,-0.250,-0.380
5:33:00.672,-0.230,-0.405
5:33:00.676,-0.260,-0.410
5:33:00.680,-0.235,-0.430
5:33:00.684,-0.195,-0.440
5:33:00.688,-0.195,-0.435
5:33:00.692,-0.200,-0.415
5:33:00.696,-0.245,-0.430
5:33:00.700,-0.265,-0.460
5:33:00.704,-0.295,-0.445
5:33:00.708,-0.445,-0.420
5:33:00.712,-0.620,-0.435
5:33:00.716,-0.685,-0.475
5:33:00.720,-0.575,-0.555
5:33:00.724,-0.335,-0.600
5:33:00.728,0.055,-0.775
5:33:00.732,0.280,-0.990
5:33:00.736,0.320,-1.045
5:33:00.740,0.550,-0.935
5:33:00.744,0.965,-0.920
5:33:00.748,1.040,-0.685
5:33:00.752,0.505,-0.260
5:33:00.756,-0.315,0.180
5:33:00.760,-1.110,0.160
5:33:00.764,-1.550,-0.705
5:33:00.768,-1.895,-1.705
5:33:00.772,-2.245,-2.200
5:33:00.776,-2.360,-2.335
5:33:00.780,-2.380,-2.180
5:33:00.784,-2.415,-1.985
5:33:00.788,-2.410,-1.815
5:33:00.792,-2.295,-1.520
5:33:00.796,-2.020,-1.285
5:33:00.800,-1.565,-1.185
5:33:00.804,-1.145,-1.060
5:33:00.808,-0.855,-0.945
5:33:00.812,-0.675,-0.755
5:33:00.816,-0.540,-0.680
5:33:00.820,-0.450,-0.615
5:33:00.824,-0.400,-0.585
5:33:00.828,-0.390,-0.545
5:33:00.832,-0.335,-0.555
5:33:00.836,-0.355,-0.570
5:33:00.840,-0.365,-0.555
5:33:00.844,-0.370,-0.610
5:33:00.848,-0.360,-0.600
5:33:00.852,-0.385,-0.600
5:33:00.856,-0.400,-0.590
5:33:00.860,-0.400,-0.645
5:33:00.864,-0.430,-0.600
5:33:00.868,-0.390,-0.600
5:33:00.872,-0.375,-0.615
5:33:00.876,-0.390,-0.630
5:33:00.880,-0.410,-0.605
5:33:00.884,-0.410,-0.610
5:33:00.888,-0.375,-0.630
5:33:00.892,-0.355,-0.590
5:33:00.896,-0.375,-0.625
5:33:00.900,-0.355,-0.610
5:33:00.904,-0.330,-0.590
5:33:00.908,-0.255,-0.545
5:33:00.912,-0.235,-0.525
5:33:00.916,-0.230,-0.550
5:33:00.920,-0.190,-0.495
5:33:00.924,-0.155,-0.480
5:33:00.928,-0.115,-0.420
5:33:00.932,-0.050,-0.410
5:33:00.936,0.005,-0.385
5:33:00.940,0.050,-0.395
5:33:00.944,0.105,-0.345
5:33:00.948,0.175,-0.280
5:33:00.952,0.240,-0.240
5:33:00.956,0.315,-0.210
5:33:00.960,0.310,-0.180
5:33:00.964,0.390,-0.125
5:33:00.968,0.450,-0.085
5:33:00.972,0.495,-0.060
5:33:00.976,0.505,-0.060
5:33:00.980,0.535,-0.075
5:33:00.984,0.555,-0.030
5:33:00.988,0.575,0.000
5:33:00.992,0.630,0.010
5:33:00.996,0.640,0.015
5:33:01.000,0.650,0.040
5:33:01.004,0.645,0.060
5:33:01.008,0.695,0.105
5:33:01.012,0.680,0.155
5:33:01.016,0.635,0.125
5:33:01.020,0.640,0.110
5:33:01.024,0.595,0.055
5:33:01.028,0.570,0.090
5:33:01.032,0.515,0.090
5:33:01.036,0.460,0.070
5:33:01.040,0.385,0.055
5:33:01.044,0.345,0.045
5:33:01.048,0.320,0.045
5:33:01.052,0.285,0.030
5:33:01.056,0.240,0.035
5:33:01.060,0.190,0.050
5:33:01.064,0.105,0.045
5:33:01.068,0.090,0.030
5:33:01.072,0.050,0.000
5:33:01.076,0.000,-0.015
5:33:01.080,-0.015,-0.020
5:33:01.084,-0.045,-0.025
5:33:01.088,-0.050,-0.075
5:33:01.092,-0.065,-0.115
5:33:01.096,-0.045,-0.135
5:33:01.100,-0.045,-0.125
5:33:01.104,-0.095,-0.170
5:33:01.108,-0.090,-0.225
5:33:01.112,-0.075,-0.235
5:33:01.116,-0.075,-0.270
5:33:01.120,-0.080,-0.280
5:33:01.124,-0.100,-0.330
5:33:01.128,-0.075,-0.355
5:33:01.132,-0.045,-0.390
5:33:01.136,-0.065,-0.390
5:33:01.140,-0.075,-0.380
5:33:01.144,-0.115,-0.380
5:33:01.148,-0.125,-0.420
5:33:01.152,-0.150,-0.415
5:33:01.156,-0.135,-0.470
5:33:01.160,-0.165,-0.480
5:33:01.164,-0.175,-0.450
5:33:01.168,-0.190,-0.485
5:33:01.172,-0.200,-0.500
5:33:01.176,-0.200,-0.515
5:33:01.180,-0.180,-0.525
5:33:01.184,-0.200,-0.515
5:33:01.188,-0.245,-0.555
5:33:01.192,-0.245,-0.540
5:33:01.196,-0.235,-0.555
5:33:01.200,-0.230,-0.545
5:33:01.204,-0.250,-0.575
5:33:01.208,-0.240,-0.575
5:33:01.212,-0.255,-0.550
5:33:01.216,-0.240,-0.590
5:33:01.220,-0.265,-0.555
5:33:01.224,-0.255,-0.610
5:33:01.228,-0.265,-0.590
5:33:01.232,-0.265,-0.605
5:33:01.236,-0.225,-0.585
5:33:01.240,-0.265,-0.610
5:33:01.244,-0.265,-0.640
5:33:01.248,-0.270,-0.625
5:33:01.252,-0.290,-0.600
5:33:01.256,-0.275,-0.600
5:33:01.260,-0.255,-0.620
5:33:01.264,-0.265,-0.570
5:33:01.268,-0.260,-0.595
5:33:01.272,-0.270,-0.570
5:33:01.276,-0.275,-0.595
5:33:01.280,-0.245,-0.585
5:33:01.284,-0.285,-0.635
5:33:01.288,-0.275,-0.620
5:33:01.292,-0.265,-0.615
5:33:01.296,-0.285,-0.625
5:33:01.300,-0.260,-0.610
5:33:01.304,-0.270,-0.610
5:33:01.308,-0.280,-0.615
5:33:01.312,-0.260,-0.605
5:33:01.316,-0.230,-0.585
5:33:01.320,-0.205,-0.615
5:33:01.324,-0.220,-0.615
5:33:01.328,-0.220,-0.595
5:33:01.332,-0.200,-0.570
5:33:01.336,-0.210,-0.540
5:33:01.340,-0.190,-0.545
5:33:01.344,-0.205,-0.500
5:33:01.348,-0.200,-0.520
5:33:01.352,-0.220,-0.520
5:33:01.356,-0.220,-0.500
5:33:01.360,-0.240,-0.470
5:33:01.364,-0.215,-0.495
5:33:01.368,-0.210,-0.505
5:33:01.372,-0.190,-0.500
5:33:01.376,-0.145,-0.480
5:33:01.380,-0.145,-0.495
5:33:01.384,-0.125,-0.520
5:33:01.388,-0.185,-0.560
5:33:01.392,-0.300,-0.585
5:33:01.396,-0.435,-0.600
5:33:01.400,-0.590,-0.620
5:33:01.404,-0.650,-0.620
5:33:01.408,-0.570,-0.700
5:33:01.412,-0.365,-0.745
5:33:01.416,0.025,-0.840
5:33:01.420,0.420,-0.980
5:33:01.424,0.560,-1.000
5:33:01.428,0.845,-0.895
5:33:01.432,1.445,-0.870
5:33:01.436,1.725,-0.770
5:33:01.440,1.440,-0.425
5:33:01.444,0.630,0.005
5:33:01.448,-0.510,0.075
5:33:01.452,-1.350,-0.660
5:33:01.456,-1.765,-1.670
5:33:01.460,-2.145,-2.385
5:33:01.464,-2.370,-2.595
5:33:01.468,-2.450,-2.570
5:33:01.472,-2.490,-2.475
5:33:01.476,-2.530,-2.360
5:33:01.480,-2.445,-2.200
5:33:01.484,-2.320,-1.990
5:33:01.488,-2.095,-1.830
5:33:01.492,-1.755,-1.730
5:33:01.496,-1.405,-1.535
5:33:01.500,-1.075,-1.300
5:33:01.504,-0.880,-1.055
5:33:01.508,-0.770,-0.870
5:33:01.512,-0.700,-0.790
5:33:01.516,-0.645,-0.755
5:33:01.520,-0.615,-0.705
5:33:01.524,-0.620,-0.715
5:33:01.528,-0.630,-0.675
5:33:01.532,-0.630,-0.710
5:33:01.536,-0.615,-0.700
5:33:01.540,-0.600,-0.725
5:33:01.544,-0.600,-0.705
5:33:01.548,-0.600,-0.710
5:33:01.552,-0.595,-0.675
5:33:01.556,-0.595,-0.720
5:33:01.560,-0.585,-0.705
5:33:01.564,-0.565,-0.705
5:33:01.568,-0.565,-0.695
5:33:01.572,-0.555,-0.690
5:33:01.576,-0.595,-0.700
5:33:01.580,-0.525,-0.680
5:33:01.584,-0.490,-0.680
5:33:01.588,-0.490,-0.655
5:33:01.592,-0.490,-0.635
5:33:01.596,-0.455,-0.675
5:33:01.600,-0.425,-0.675
5:33:01.604,-0.365,-0.630
5:33:01.608,-0.315,-0.630
5:33:01.612,-0.285,-0.600
5:33:01.616,-0.220,-0.570
5:33:01.620,-0.165,-0.495
5:33:01.624,-0.135,-0.485
5:33:01.628,-0.080,-0.465
5:33:01.632,-0.040,-0.470
5:33:01.636,-0.010,-0.400
5:33:01.640,0.035,-0.425
5:33:01.644,0.125,-0.365
5:33:01.648,0.175,-0.370
5:33:01.652,0.240,-0.330
5:33:01.656,0.300,-0.295
5:33:01.660,0.350,-0.330
5:33:01.664,0.415,-0.340
5:33:01.668,0.460,-0.340
5:33:01.672,0.440,-0.335
5:33:01.676,0.480,-0.345
5:33:01.680,0.510,-0.310
5:33:01.684,0.510,-0.310
5:33:01.688,0.560,-0.370
5:33:01.692,0.545,-0.335
5:33:01.696,0.580,-0.340
5:33:01.700,0.575,-0.315
5:33:01.704,0.580,-0.285
5:33:01.708,0.565,-0.275
5:33:01.712,0.530,-0.275
5:33:01.716,0.535,-0.260
5:33:01.720,0.485,-0.240
5:33:01.724,0.480,-0.200
5:33:01.728,0.425,-0.195
5:33:01.732,0.315,-0.200
5:33:01.736,0.270,-0.205
5:33:01.740,0.215,-0.195
5:33:01.744,0.160,-0.185
5:33:01.748,0.075,-0.235
5:33:01.752,0.015,-0.195
5:33:01.756,-0.040,-0.215
5:33:01.760,-0.080,-0.240
5:33:01.764,-0.125,-0.210
5:33:01.768,-0.195,-0.230
5:33:01.772,-0.205,-0.260
5:33:01.776,-0.270,-0.235
5:33:01.780,-0.295,-0.270
5:33:01.784,-0.310,-0.295
5:33:01.788,-0.330,-0.320
5:33:01.792,-0.380,-0.330
5:33:01.796,-0.380,-0.345
5:33:01.800,-0.395,-0.375
5:33:01.804,-0.390,-0.365
5:33:01.808,-0.390,-0.355
5:33:01.812,-0.405,-0.425
5:33:01.816,-0.415,-0.440
5:33:01.820,-0.395,-0.425
5:33:01.824,-0.380,-0.445
5:33:01.828,-0.395,-0.445
5:33:01.832,-0.410,-0.465
5:33:01.836,-0.410,-0.460
5:33:01.840,-0.395,-0.445
5:33:01.844,-0.380,-0.450
5:33:01.848,-0.385,-0.450
5:33:01.852,-0.410,-0.485
5:33:01.856,-0.385,-0.475
5:33:01.860,-0.375,-0.460
5:33:01.864,-0.365,-0.470
5:33:01.868,-0.340,-0.480
5:33:01.872,-0.365,-0.475
5:33:01.876,-0.350,-0.475
5:33:01.880,-0.345,-0.445
5:33:01.884,-0.355,-0.445
5:33:01.888,-0.345,-0.435
5:33:01.892,-0.385,-0.475
5:33:01.896,-0.360,-0.500
5:33:01.900,-0.335,-0.460
5:33:01.904,-0.295,-0.475
5:33:01.908,-0.265,-0.455
5:33:01.912,-0.255,-0.465
5:33:01.916,-0.240,-0.480
5:33:01.920,-0.265,-0.495
5:33:01.924,-0.230,-0.525
5:33:01.928,-0.265,-0.525
5:33:01.932,-0.265,-0.525
5:33:01.936,-0.280,-0.550
5:33:01.940,-0.285,-0.545
5:33:01.944,-0.245,-0.555
5:33:01.948,-0.280,-0.585
5:33:01.952,-0.275,-0.600
5:33:01.956,-0.315,-0.615
5:33:01.960,-0.310,-0.615
5:33:01.964,-0.290,-0.580
5:33:01.968,-0.305,-0.620
5:33:01.972,-0.320,-0.625
5:33:01.976,-0.330,-0.625
5:33:01.980,-0.320,-0.620
5:33:01.984,-0.315,-0.605
5:33:01.988,-0.345,-0.620
5:33:01.992,-0.360,-0.640
5:33:01.996,-0.360,-0.650
5:33:02.000,-0.375,-0.660
5:33:02.004,-0.355,-0.655
5:33:02.008,-0.375,-0.655
5:33:02.012,-0.405,-0.655
5:33:02.016,-0.395,-0.660
5:33:02.020,-0.395,-0.645
5:33:02.024,-0.410,-0.640
5:33:02.028,-0.385,-0.640
5:33:02.032,-0.385,-0.640
5:33:02.036,-0.410,-0.665
5:33:02.040,-0.435,-0.690
5:33:02.044,-0.420,-0.655
5:33:02.048,-0.440,-0.645
5:33:02.052,-0.430,-0.670
5:33:02.056,-0.435,-0.665
5:33:02.060,-0.470,-0.675
5:33:02.064,-0.440,-0.685
5:33:02.068,-0.425,-0.695
5:33:02.072,-0.445,-0.670
5:33:02.076,-0.430,-0.695
5:33:02.080,-0.455,-0.660
5:33:02.084,-0.420,-0.670
5:33:02.088,-0.425,-0.645
5:33:02.092,-0.470,-0.705
5:33:02.096,-0.565,-0.685
5:33:02.100,-0.760,-0.665
5:33:02.104,-0.805,-0.675
5:33:02.108,-0.845,-0.695
5:33:02.112,-0.705,-0.750
5:33:02.116,-0.475,-0.835
5:33:02.120,-0.095,-0.940
5:33:02.124,0.150,-1.095
5:33:02.128,0.170,-1.040
5:33:02.132,0.425,-0.940
5:33:02.136,0.855,-0.900
5:33:02.140,0.820,-0.700
5:33:02.144,0.315,-0.215
5:33:02.148,-0.430,0.205
5:33:02.152,-1.090,0.025
5:33:02.156,-1.540,-0.875
5:33:02.160,-1.905,-1.840
5:33:02.164,-2.225,-2.410
5:33:02.168,-2.370,-2.480
5:33:02.172,-2.400,-2.300
5:33:02.176,-2.475,-2.180
5:33:02.180,-2.480,-2.020
5:33:02.184,-2.325,-1.845
5:33:02.188,-2.080,-1.685
5:33:02.192,-1.725,-1.565
5:33:02.196,-1.350,-1.505
5:33:02.200,-1.025,-1.315
5:33:02.204,-0.835,-1.090
5:33:02.208,-0.705,-0.900
5:33:02.212,-0.600,-0.820
5:33:02.216,-0.595,-0.775
5:33:02.220,-0.590,-0.715
5:33:02.224,-0.570,-0.720
5:33:02.228,-0.555,-0.710
5:33:02.232,-0.525,-0.740
5:33:02.236,-0.545,-0.730
5:33:02.240,-0.555,-0.745
5:33:02.244,-0.515,-0.725
5:33:02.248,-0.520,-0.775
5:33:02.252,-0.525,-0.745
5:33:02.256,-0.520,-0.730
5:33:02.260,-0.510,-0.755
5:33:02.264,-0.510,-0.745
5:33:02.268,-0.505,-0.735
5:33:02.272,-0.500,-0.725
5:33:02.276,-0.500,-0.755
5:33:02.280,-0.500,-0.740
5:33:02.284,-0.490,-0.745
5:33:02.288,-0.460,-0.735
5:33:02.292,-0.435,-0.720
5:33:02.296,-0.415,-0.710
5:33:02.300,-0.405,-0.725
5:33:02.304,-0.375,-0.715
5:33:02.308,-0.320,-0.700
5:33:02.312,-0.275,-0.665
5:33:02.316,-0.260,-0.645
5:33:02.320,-0.240,-0.665
5:33:02.324,-0.230,-0.635
5:33:02.328,-0.130,-0.625
5:33:02.332,-0.070,-0.600
5:33:02.336,-0.040,-0.560
5:33:02.340,-0.020,-0.505
5:33:02.344,0.025,-0.500
5:33:02.348,0.080,-0.450
5:33:02.352,0.125,-0.425
5:33:02.356,0.155,-0.400
5:33:02.360,0.170,-0.390
5:33:02.364,0.235,-0.350
5:33:02.368,0.255,-0.355
5:33:02.372,0.270,-0.345
5:33:02.376,0.305,-0.340
5:33:02.380,0.315,-0.315
5:33:02.384,0.330,-0.275
5:33:02.388,0.375,-0.235
5:33:02.392,0.395,-0.215
5:33:02.396,0.395,-0.165
5:33:02.400,0.380,-0.140
5:33:02.404,0.395,-0.105
5:33:02.408,0.420,-0.115
5:33:02.412,0.440,-0.125
5:33:02.416,0.420,-0.030
5:33:02.420,0.405,-0.020
5:33:02.424,0.415,-0.070
5:33:02.428,0.400,-0.060
5:33:02.432,0.370,-0.070
5:33:02.436,0.325,-0.090
5:33:02.440,0.305,-0.115
5:33:02.444,0.265,-0.120
5:33:02.448,0.225,-0.155
5:33:02.452,0.170,-0.165
5:33:02.456,0.125,-0.170
5:33:02.460,0.070,-0.195
5:33:02.464,0.035,-0.215
5:33:02.468,-0.015,-0.220
5:33:02.472,-0.015,-0.220
5:33:02.476,-0.035,-0.260
5:33:02.480,-0.085,-0.255
5:33:02.484,-0.140,-0.300
5:33:02.488,-0.160,-0.310
5:33:02.492,-0.200,-0.310
5:33:02.496,-0.205,-0.310
5:33:02.500,-0.255,-0.385
5:33:02.504,-0.265,-0.420
5:33:02.508,-0.275,-0.420
5:33:02.512,-0.280,-0.415
5:33:02.516,-0.280,-0.420
5:33:02.520,-0.320,-0.440
5:33:02.524,-0.315,-0.475
5:33:02.528,-0.305,-0.480
5:33:02.532,-0.290,-0.495
5:33:02.536,-0.310,-0.495
5:33:02.540,-0.345,-0.540
5:33:02.544,-0.320,-0.515
5:33:02.548,-0.325,-0.530
5:33:02.552,-0.320,-0.535
5:33:02.556,-0.330,-0.590
5:33:02.560,-0.325,-0.585
5:33:02.564,-0.350,-0.610
5:33:02.568,-0.350,-0.590
5:33:02.572,-0.345,-0.605
5:33:02.576,-0.360,-0.600
5:33:02.580,-0.345,-0.600
5:33:02.584,-0.350,-0.580
5:33:02.588,-0.330,-0.615
5:33:02.592,-0.345,-0.625
5:33:02.596,-0.345,-0.640
5:33:02.600,-0.335,-0.615
5:33:02.604,-0.360,-0.625
5:33:02.608,-0.350,-0.640
5:33:02.612,-0.350,-0.625
5:33:02.616,-0.340,-0.640
5:33:02.620,-0.350,-0.600
5:33:02.624,-0.365,-0.650
5:33:02.628,-0.340,-0.665
5:33:02.632,-0.335,-0.665
5:33:02.636,-0.355,-0.645
5:33:02.640,-0.355,-0.655
5:33:02.644,-0.385,-0.660
5:33:02.648,-0.380,-0.640
5:33:02.652,-0.320,-0.635
5:33:02.656,-0.340,-0.625
5:33:02.660,-0.370,-0.600
5:33:02.664,-0.380,-0.630
5:33:02.668,-0.415,-0.590
5:33:02.672,-0.410,-0.605
5:33:02.676,-0.370,-0.610
5:33:02.680,-0.425,-0.635
5:33:02.684,-0.400,-0.635
5:33:02.688,-0.350,-0.655
5:33:02.692,-0.335,-0.630
5:33:02.696,-0.320,-0.640
5:33:02.700,-0.315,-0.675
5:33:02.704,-0.320,-0.670
5:33:02.708,-0.335,-0.670
5:33:02.712,-0.345,-0.680
5:33:02.716,-0.335,-0.695
5:33:02.720,-0.345,-0.735
5:33:02.724,-0.360,-0.745
5:33:02.728,-0.345,-0.730
5:33:02.732,-0.335,-0.735
5:33:02.736,-0.320,-0.710
5:33:02.740,-0.350,-0.755
5:33:02.744,-0.385,-0.750
5:33:02.748,-0.395,-0.750
5:33:02.752,-0.385,-0.700
5:33:02.756,-0.385,-0.705
5:33:02.760,-0.400,-0.725
5:33:02.764,-0.415,-0.750
5:33:02.768,-0.410,-0.745
5:33:02.772,-0.405,-0.750
5:33:02.776,-0.415,-0.765
5:33:02.780,-0.415,-0.770
5:33:02.784,-0.460,-0.760
5:33:02.788,-0.465,-0.790
5:33:02.792,-0.460,-0.775
5:33:02.796,-0.440,-0.755
5:33:02.800,-0.450,-0.775
5:33:02.804,-0.445,-0.765
5:33:02.808,-0.450,-0.785
5:33:02.812,-0.450,-0.775
5:33:02.816,-0.480,-0.775
5:33:02.820,-0.455,-0.750
5:33:02.824,-0.485,-0.790
5:33:02.828,-0.480,-0.795
5:33:02.832,-0.465,-0.785
5:33:02.836,-0.460,-0.780
5:33:02.840,-0.465,-0.785
5:33:02.844,-0.480,-0.760
5:33:02.848,-0.470,-0.750
5:33:02.852,-0.430,-0.735
5:33:02.856,-0.415,-0.750
5:33:02.860,-0.420,-0.730
5:33:02.864,-0.445,-0.760
5:33:02.868,-0.415,-0.800
5:33:02.872,-0.430,-0.785
5:33:02.876,-0.400,-0.760
5:33:02.880,-0.420,-0.775
5:33:02.884,-0.435,-0.790
5:33:02.888,-0.420,-0.775
5:33:02.892,-0.450,-0.755
5:33:02.896,-0.410,-0.750
5:33:02.900,-0.420,-0.725
5:33:02.904,-0.445,-0.735
5:33:02.908,-0.425,-0.715
5:33:02.912,-0.370,-0.715
5:33:02.916,-0.360,-0.750
5:33:02.920,-0.350,-0.710
5:33:02.924,-0.405,-0.660
5:33:02.928,-0.395,-0.640
5:33:02.932,-0.360,-0.670
5:33:02.936,-0.345,-0.620
5:33:02.940,-0.365,-0.630
5:33:02.944,-0.340,-0.615
5:33:02.948,-0.305,-0.615
5:33:02.952,-0.275,-0.585
5:33:02.956,-0.265,-0.615
5:33:02.960,-0.310,-0.620
5:33:02.964,-0.375,-0.640
5:33:02.968,-0.525,-0.635
5:33:02.972,-0.670,-0.680
5:33:02.976,-0.685,-0.720
5:33:02.980,-0.605,-0.770
5:33:02.984,-0.435,-0.840
5:33:02.988,-0.080,-0.940
5:33:02.992,0.250,-1.060
5:33:02.996,0.370,-1.110
5:33:03.000,0.535,-1.025
5:33:03.004,0.970,-0.975
5:33:03.008,1.130,-0.880
5:33:03.012,0.770,-0.465
5:33:03.016,0.090,-0.055
5:33:03.020,-0.665,0.050
5:33:03.024,-1.190,-0.680
5:33:03.028,-1.555,-1.670
5:33:03.032,-1.905,-2.450
5:33:03.036,-2.160,-2.630
5:33:03.040,-2.260,-2.515
5:33:03.044,-2.340,-2.460
5:33:03.048,-2.460,-2.330
5:33:03.052,-2.395,-2.195
5:33:03.056,-2.200,-2.010
5:33:03.060,-1.930,-1.820
5:33:03.064,-1.575,-1.695
5:33:03.068,-1.250,-1.465
5:33:03.072,-0.965,-1.205
5:33:03.076,-0.825,-0.990
5:33:03.080,-0.705,-0.875
5:33:03.084,-0.645,-0.840
5:33:03.088,-0.660,-0.765
5:33:03.092,-0.660,-0.735
5:33:03.096,-0.615,-0.735
5:33:03.100,-0.615,-0.730
5:33:03.104,-0.565,-0.705
5:33:03.108,-0.615,-0.730
5:33:03.112,-0.585,-0.710
5:33:03.116,-0.565,-0.715
5:33:03.120,-0.575,-0.705
5:33:03.124,-0.595,-0.715
5:33:03.128,-0.560,-0.715
5:33:03.132,-0.575,-0.715
5:33:03.136,-0.585,-0.715
5:33:03.140,-0.555,-0.735
5:33:03.144,-0.520,-0.725
5:33:03.148,-0.545,-0.740
5:33:03.152,-0.525,-0.725
5:33:03.156,-0.505,-0.675
5:33:03.160,-0.465,-0.690
5:33:03.164,-0.430,-0.705
5:33:03.168,-0.400,-0.690
5:33:03.172,-0.405,-0.695
5:33:03.176,-0.335,-0.670
5:33:03.180,-0.300,-0.630
5:33:03.184,-0.245,-0.615
5:33:03.188,-0.235,-0.560
5:33:03.192,-0.210,-0.520
5:33:03.196,-0.145,-0.495
5:33:03.200,-0.110,-0.455
5:33:03.204,-0.040,-0.440
5:33:03.208,0.025,-0.470
5:33:03.212,0.105,-0.415
5:33:03.216,0.120,-0.385
5:33:03.220,0.210,-0.375
5:33:03.224,0.260,-0.410
5:33:03.228,0.320,-0.385
5:33:03.232,0.315,-0.395
5:33:03.236,0.385,-0.390
5:33:03.240,0.390,-0.365
5:33:03.244,0.440,-0.370
5:33:03.248,0.425,-0.390
5:33:03.252,0.445,-0.395
5:33:03.256,0.480,-0.370
5:33:03.260,0.535,-0.360
5:33:03.264,0.575,-0.360
5:33:03.268,0.535,-0.300
5:33:03.272,0.520,-0.305
5:33:03.276,0.540,-0.280
5:33:03.280,0.580,-0.270
5:33:03.284,0.560,-0.250
5:33:03.288,0.570,-0.235
5:33:03.292,0.525,-0.220
5:33:03.296,0.520,-0.210
5:33:03.300,0.495,-0.200
5:33:03.304,0.480,-0.145
5:33:03.308,0.425,-0.185
5:33:03.312,0.390,-0.140
5:33:03.316,0.330,-0.150
5:33:03.320,0.305,-0.180
5:33:03.324,0.280,-0.175
5:33:03.328,0.220,-0.135
5:33:03.332,0.150,-0.165
5:33:03.336,0.125,-0.155
5:33:03.340,0.075,-0.125
5:33:03.344,0.030,-0.170
5:33:03.348,0.000,-0.165
5:33:03.352,-0.055,-0.160
5:33:03.356,-0.060,-0.170
5:33:03.360,-0.075,-0.200
5:33:03.364,-0.090,-0.200
5:33:03.368,-0.105,-0.210
5:33:03.372,-0.150,-0.275
5:33:03.376,-0.160,-0.250
5:33:03.380,-0.155,-0.285
5:33:03.384,-0.150,-0.290
5:33:03.388,-0.160,-0.305
5:33:03.392,-0.185,-0.335
5:33:03.396,-0.195,-0.350
5:33:03.400,-0.170,-0.340
5:33:03.404,-0.155,-0.365
5:33:03.408,-0.175,-0.390
5:33:03.412,-0.215,-0.405
5:33:03.416,-0.220,-0.455
5:33:03.420,-0.210,-0.445
5:33:03.424,-0.205,-0.450
5:33:03.428,-0.210,-0.465
5:33:03.432,-0.245,-0.485
5:33:03.436,-0.210,-0.475
5:33:03.440,-0.245,-0.450
5:33:03.444,-0.240,-0.475
5:33:03.448,-0.260,-0.480
5:33:03.452,-0.265,-0.460
5:33:03.456,-0.275,-0.460
5:33:03.460,-0.220,-0.460
5:33:03.464,-0.195,-0.495
5:33:03.468,-0.160,-0.505
5:33:03.472,-0.160,-0.535
5:33:03.476,-0.185,-0.525
5:33:03.480,-0.160,-0.575
5:33:03.484,-0.165,-0.585
5:33:03.488,-0.175,-0.620
5:33:03.492,-0.210,-0.640
5:33:03.496,-0.210,-0.670
5:33:03.500,-0.225,-0.665
5:33:03.504,-0.200,-0.680
5:33:03.508,-0.200,-0.680
5:33:03.512,-0.175,-0.710
5:33:03.516,-0.245,-0.745
5:33:03.520,-0.230,-0.715
5:33:03.524,-0.245,-0.705
5:33:03.528,-0.245,-0.700
5:33:03.532,-0.235,-0.730
5:33:03.536,-0.270,-0.715
5:33:03.540,-0.275,-0.690
5:33:03.544,-0.275,-0.705
5:33:03.548,-0.265,-0.735
5:33:03.552,-0.240,-0.715
5:33:03.556,-0.300,-0.730
5:33:03.560,-0.290,-0.725
5:33:03.564,-0.265,-0.690
5:33:03.568,-0.245,-0.685
5:33:03.572,-0.225,-0.725
5:33:03.576,-0.235,-0.710
5:33:03.580,-0.240,-0.715
5:33:03.584,-0.260,-0.715
5:33:03.588,-0.210,-0.725
5:33:03.592,-0.220,-0.705
5:33:03.596,-0.285,-0.715
5:33:03.600,-0.270,-0.690
5:33:03.604,-0.270,-0.725
5:33:03.608,-0.255,-0.725
5:33:03.612,-0.230,-0.710
5:33:03.616,-0.250,-0.685
5:33:03.620,-0.275,-0.695
5:33:03.624,-0.280,-0.730
5:33:03.628,-0.275,-0.735
5:33:03.632,-0.280,-0.690
5:33:03.636,-0.270,-0.710
5:33:03.640,-0.275,-0.690
5:33:03.644,-0.290,-0.680
5:33:03.648,-0.305,-0.705
5:33:03.652,-0.265,-0.690
5:33:03.656,-0.280,-0.705
5:33:03.660,-0.295,-0.710
5:33:03.664,-0.285,-0.700
5:33:03.668,-0.270,-0.725
5:33:03.672,-0.265,-0.735
5:33:03.676,-0.280,-0.715
5:33:03.680,-0.285,-0.710
5:33:03.684,-0.260,-0.705
5:33:03.688,-0.255,-0.685
5:33:03.692,-0.295,-0.705
5:33:03.696,-0.285,-0.710
5:33:03.700,-0.280,-0.685
5:33:03.704,-0.250,-0.730
5:33:03.708,-0.250,-0.740
5:33:03.712,-0.235,-0.710
5:33:03.716,-0.240,-0.730
5:33:03.720,-0.275,-0.670
5:33:03.724,-0.265,-0.650
5:33:03.728,-0.295,-0.640
5:33:03.732,-0.435,-0.660
5:33:03.736,-0.585,-0.640
5:33:03.740,-0.720,-0.620
5:33:03.744,-0.660,-0.640
5:33:03.748,-0.515,-0.730
5:33:03.752,-0.185,-0.780
5:33:03.756,0.220,-0.970
5:33:03.760,0.470,-1.045
5:33:03.764,0.610,-1.000
5:33:03.768,1.040,-0.935
5:33:03.772,1.575,-0.935
5:33:03.776,1.520,-0.730
5:33:03.780,0.915,-0.335
5:33:03.784,-0.130,-0.025
5:33:03.788,-1.030,-0.360
5:33:03.792,-1.570,-1.355
5:33:03.796,-1.960,-2.215
5:33:03.800,-2.315,-2.570
5:33:03.804,-2.455,-2.505
5:33:03.808,-2.460,-2.375
5:33:03.812,-2.515,-2.225
5:33:03.816,-2.445,-2.105
5:33:03.820,-2.280,-1.860
5:33:03.824,-1.970,-1.755
5:33:03.828,-1.585,-1.640
5:33:03.832,-1.200,-1.485
5:33:03.836,-0.920,-1.285
5:33:03.840,-0.755,-1.020
5:33:03.844,-0.635,-0.930
5:33:03.848,-0.540,-0.870
5:33:03.852,-0.535,-0.840
5:33:03.856,-0.515,-0.770
5:33:03.860,-0.480,-0.755
5:33:03.864,-0.470,-0.735
5:33:03.868,-0.440,-0.720
5:33:03.872,-0.430,-0.780
5:33:03.876,-0.420,-0.775
5:33:03.880,-0.450,-0.770
5:33:03.884,-0.465,-0.745
5:33:03.888,-0.440,-0.760
5:33:03.892,-0.430,-0.745
5:33:03.896,-0.420,-0.770
5:33:03.900,-0.410,-0.750
5:33:03.904,-0.415,-0.750
5:33:03.908,-0.405,-0.760
5:33:03.912,-0.365,-0.790
5:33:03.916,-0.370,-0.740
5:33:03.920,-0.340,-0.750
5:33:03.924,-0.360,-0.745
5:33:03.928,-0.325,-0.690
5:33:03.932,-0.295,-0.690
5:33:03.936,-0.265,-0.700
5:33:03.940,-0.255,-0.700
5:33:03.944,-0.265,-0.700
5:33:03.948,-0.185,-0.660
5:33:03.952,-0.135,-0.660
5:33:03.956,-0.065,-0.650
5:33:03.960,-0.015,-0.625
5:33:03.964,0.000,-0.610
5:33:03.968,0.060,-0.595
5:33:03.972,0.135,-0.550
5:33:03.976,0.185,-0.525
5:33:03.980,0.245,-0.490
5:33:03.984,0.275,-0.515
5:33:03.988,0.335,-0.490
5:33:03.992,0.375,-0.415
5:33:03.996,0.430,-0.415
5:33:04.000,0.480,-0.385
5:33:04.004,0.505,-0.385
5:33:04.008,0.520,-0.360
5:33:04.012,0.590,-0.375
5:33:04.016,0.640,-0.325
5:33:04.020,0.650,-0.310
5:33:04.024,0.685,-0.275
5:33:04.028,0.680,-0.235
5:33:04.032,0.705,-0.240
5:33:04.036,0.730,-0.215
5:33:04.040,0.700,-0.165
5:33:04.044,0.740,-0.170
5:33:04.048,0.760,-0.175
5:33:04.052,0.755,-0.135
5:33:04.056,0.740,-0.090
5:33:04.060,0.705,-0.055
5:33:04.064,0.675,-0.105
5:33:04.068,0.660,-0.130
5:33:04.072,0.605,-0.120
5:33:04.076,0.600,-0.130
5:33:04.080,0.540,-0.175
5:33:04.084,0.495,-0.185
5:33:04.088,0.430,-0.245
5:33:04.092,0.360,-0.215
5:33:04.096,0.340,-0.240
5:33:04.100,0.290,-0.220
5:33:04.104,0.230,-0.230
5:33:04.108,0.190,-0.215
5:33:04.112,0.125,-0.210
5:33:04.116,0.080,-0.245
5:33:04.120,0.050,-0.265
5:33:04.124,0.010,-0.280
5:33:04.128,-0.005,-0.275
5:33:04.132,-0.035,-0.345
5:33:04.136,-0.020,-0.330
5:33:04.140,-0.050,-0.365
5:33:04.144,-0.070,-0.370
5:33:04.148,-0.105,-0.365
5:33:04.152,-0.100,-0.365
5:33:04.156,-0.095,-0.375
5:33:04.160,-0.100,-0.420
5:33:04.164,-0.115,-0.405
5:33:04.168,-0.090,-0.405
5:33:04.172,-0.125,-0.405
5:33:04.176,-0.115,-0.470
5:33:04.180,-0.085,-0.445
5:33:04.184,-0.100,-0.460
5:33:04.188,-0.110,-0.495
5:33:04.192,-0.115,-0.465
5:33:04.196,-0.120,-0.500
5:33:04.200,-0.090,-0.490
5:33:04.204,-0.105,-0.505
5:33:04.208,-0.110,-0.495
5:33:04.212,-0.095,-0.540
5:33:04.216,-0.110,-0.575
5:33:04.220,-0.080,-0.550
5:33:04.224,-0.095,-0.560
5:33:04.228,-0.125,-0.575
5:33:04.232,-0.135,-0.605
5:33:04.236,-0.125,-0.590
5:33:04.240,-0.135,-0.600
5:33:04.244,-0.160,-0.615
5:33:04.248,-0.120,-0.590
5:33:04.252,-0.145,-0.595
5:33:04.256,-0.150,-0.595
5:33:04.260,-0.100,-0.630
5:33:04.264,-0.145,-0.630
5:33:04.268,-0.160,-0.625
5:33:04.272,-0.155,-0.640
5:33:04.276,-0.155,-0.635
5:33:04.280,-0.140,-0.635
5:33:04.284,-0.155,-0.630
5:33:04.288,-0.155,-0.635
5:33:04.292,-0.190,-0.640
5:33:04.296,-0.175,-0.675
5:33:04.300,-0.175,-0.675
5:33:04.304,-0.170,-0.665
5:33:04.308,-0.170,-0.660
5:33:04.312,-0.150,-0.690
5:33:04.316,-0.170,-0.660
5:33:04.320,-0.160,-0.680
5:33:04.324,-0.140,-0.685
5:33:04.328,-0.135,-0.680
5:33:04.332,-0.140,-0.670
5:33:04.336,-0.120,-0.645
5:33:04.340,-0.115,-0.640
5:33:04.344,-0.135,-0.615
5:33:04.348,-0.160,-0.610
5:33:04.352,-0.155,-0.610
5:33:04.356,-0.150,-0.615
5:33:04.360,-0.165,-0.620
5:33:04.364,-0.185,-0.620
5:33:04.368,-0.165,-0.595
5:33:04.372,-0.195,-0.600
5:33:04.376,-0.145,-0.625
5:33:04.380,-0.105,-0.605
5:33:04.384,-0.100,-0.635
5:33:04.388,-0.075,-0.640
5:33:04.392,-0.115,-0.675
5:33:04.396,-0.125,-0.680
5:33:04.400,-0.095,-0.690
5:33:04.404,-0.090,-0.725
5:33:04.408,-0.090,-0.710
5:33:04.412,-0.070,-0.745
5:33:04.416,-0.090,-0.750
5:33:04.420,-0.075,-0.735
5:33:04.424,-0.075,-0.715
5:33:04.428,-0.095,-0.735
5:33:04.432,-0.130,-0.790
5:33:04.436,-0.165,-0.790
5:33:04.440,-0.160,-0.770
5:33:04.444,-0.175,-0.760
5:33:04.448,-0.180,-0.775
5:33:04.452,-0.185,-0.765
5:33:04.456,-0.190,-0.755
5:33:04.460,-0.185,-0.770
5:33:04.464,-0.195,-0.755
5:33:04.468,-0.180,-0.765
5:33:04.472,-0.205,-0.755
5:33:04.476,-0.185,-0.780
5:33:04.480,-0.185,-0.800
5:33:04.484,-0.210,-0.775
5:33:04.488,-0.210,-0.775
5:33:04.492,-0.235,-0.775
5:33:04.496,-0.255,-0.770
5:33:04.500,-0.410,-0.790
5:33:04.504,-0.535,-0.775
5:33:04.508,-0.665,-0.755
5:33:04.512,-0.710,-0.785
5:33:04.516,-0.620,-0.855
5:33:04.520,-0.360,-0.895
5:33:04.524,0.085,-1.005
5:33:04.528,0.410,-1.135
5:33:04.532,0.540,-1.085
5:33:04.536,0.905,-1.000
5:33:04.540,1.440,-1.030
5:33:04.544,1.625,-0.925
5:33:04.548,1.190,-0.575
5:33:04.552,0.240,-0.130
5:33:04.556,-0.895,-0.110
5:33:04.560,-1.480,-0.980
5:33:04.564,-1.860,-1.975
5:33:04.568,-2.165,-2.490
5:33:04.572,-2.345,-2.625
5:33:04.576,-2.355,-2.560
5:33:04.580,-2.385,-2.335
5:33:04.584,-2.360,-2.185
5:33:04.588,-2.245,-2.055
5:33:04.592,-2.090,-1.865
5:33:04.596,-1.775,-1.765
5:33:04.600,-1.355,-1.655
5:33:04.604,-0.980,-1.470
5:33:04.608,-0.740,-1.215
5:33:04.612,-0.595,-1.005
5:33:04.616,-0.515,-0.890
5:33:04.620,-0.450,-0.840
5:33:04.624,-0.395,-0.760
5:33:04.628,-0.375,-0.740
5:33:04.632,-0.335,-0.730
5:33:04.636,-0.350,-0.690
5:33:04.640,-0.375,-0.705
5:33:04.644,-0.335,-0.685
5:33:04.648,-0.335,-0.675
5:33:04.652,-0.345,-0.680
5:33:04.656,-0.335,-0.655
5:33:04.660,-0.305,-0.655
5:33:04.664,-0.320,-0.670
5:33:04.668,-0.270,-0.690
5:33:04.672,-0.240,-0.670
5:33:04.676,-0.280,-0.700
5:33:04.680,-0.265,-0.730
5:33:04.684,-0.245,-0.755
5:33:04.688,-0.205,-0.770
5:33:04.692,-0.200,-0.775
5:33:04.696,-0.190,-0.780
5:33:04.700,-0.215,-0.805
5:33:04.704,-0.140,-0.775
5:33:04.708,-0.115,-0.735
5:33:04.712,-0.105,-0.745
5:33:04.716,-0.110,-0.755
5:33:04.720,-0.065,-0.745
5:33:04.724,-0.025,-0.740
5:33:04.728,0.015,-0.740
5:33:04.732,0.065,-0.710
5:33:04.736,0.030,-0.650
5:33:04.740,0.105,-0.655
5:33:04.744,0.160,-0.615
5:33:04.748,0.240,-0.635
5:33:04.752,0.290,-0.585
5:33:04.756,0.315,-0.565
5:33:04.760,0.355,-0.495
5:33:04.764,0.390,-0.495
5:33:04.768,0.435,-0.525
5:33:04.772,0.455,-0.515
5:33:04.776,0.480,-0.460
5:33:04.780,0.490,-0.465
5:33:04.784,0.545,-0.465
5:33:04.788,0.555,-0.450
5:33:04.792,0.575,-0.440
5:33:04.796,0.570,-0.435
5:33:04.800,0.580,-0.380
5:33:04.804,0.600,-0.360
5:33:04.808,0.600,-0.375
5:33:04.812,0.610,-0.405
5:33:04.816,0.600,-0.370
5:33:04.820,0.580,-0.330
5:33:04.824,0.570,-0.280
5:33:04.828,0.555,-0.290
5:33:04.832,0.495,-0.225
5:33:04.836,0.485,-0.265
5:33:04.840,0.395,-0.275
5:33:04.844,0.325,-0.315
5:33:04.848,0.310,-0.290
5:33:04.852,0.255,-0.265
5:33:04.856,0.185,-0.275
5:33:04.860,0.100,-0.280
5:33:04.864,0.030,-0.265
5:33:04.868,0.000,-0.255
5:33:04.872,-0.015,-0.280
5:33:04.876,-0.065,-0.300
5:33:04.880,-0.065,-0.275
5:33:04.884,-0.070,-0.260
5:33:04.888,-0.040,-0.290
5:33:04.892,-0.010,-0.330
5:33:04.896,-0.060,-0.330
5:33:04.900,-0.105,-0.280
5:33:04.904,-0.095,-0.305
5:33:04.908,-0.110,-0.280
5:33:04.912,-0.110,-0.270
5:33:04.916,-0.100,-0.265
5:33:04.920,-0.085,-0.315
5:33:04.924,-0.095,-0.300
5:33:04.928,-0.055,-0.295
5:33:04.932,0.000,-0.230
5:33:04.936,0.020,-0.250
5:33:04.940,0.020,-0.235
5:33:04.944,0.035,-0.295
5:33:04.948,0.030,-0.315
5:33:04.952,0.030,-0.310
5:33:04.956,0.000,-0.325
5:33:04.960,0.005,-0.320
5:33:04.964,-0.025,-0.370
5:33:04.968,-0.030,-0.400
5:33:04.972,-0.050,-0.410
5:33:04.976,-0.030,-0.435
5:33:04.980,-0.060,-0.465
5:33:04.984,-0.055,-0.440
5:33:04.988,-0.070,-0.475
5:33:04.992,-0.070,-0.510
5:33:04.996,-0.075,-0.490
5:33:05.000,-0.090,-0.505
5:33:05.004,-0.110,-0.555
5:33:05.008,-0.105,-0.515
5:33:05.012,-0.105,-0.525
5:33:05.016,-0.130,-0.550
5:33:05.020,-0.160,-0.590
5:33:05.024,-0.210,-0.535
5:33:05.028,-0.215,-0.555
5:33:05.032,-0.190,-0.540
5:33:05.036,-0.195,-0.565
5:33:05.040,-0.210,-0.565
5:33:05.044,-0.235,-0.560
5:33:05.048,-0.210,-0.570
5:33:05.052,-0.235,-0.590
5:33:05.056,-0.260,-0.620
5:33:05.060,-0.245,-0.590
5:33:05.064,-0.285,-0.595
5:33:05.068,-0.270,-0.600
5:33:05.072,-0.275,-0.625
5:33:05.076,-0.280,-0.610
5:33:05.080,-0.290,-0.610
5:33:05.084,-0.335,-0.645
5:33:05.088,-0.355,-0.655
5:33:05.092,-0.345,-0.655
5:33:05.096,-0.305,-0.640
5:33:05.100,-0.280,-0.625
5:33:05.104,-0.315,-0.665
5:33:05.108,-0.325,-0.680
5:33:05.112,-0.310,-0.625
5:33:05.116,-0.320,-0.675
5:33:05.120,-0.310,-0.675
5:33:05.124,-0.335,-0.630
5:33:05.128,-0.330,-0.660
5:33:05.132,-0.345,-0.670
5:33:05.136,-0.295,-0.670
5:33:05.140,-0.290,-0.685
5:33:05.144,-0.305,-0.690
5:33:05.148,-0.325,-0.675
5:33:05.152,-0.310,-0.655
5:33:05.156,-0.265,-0.675
5:33:05.160,-0.260,-0.650
5:33:05.164,-0.305,-0.675
5:33:05.168,-0.290,-0.665
5:33:05.172,-0.300,-0.645
5:33:05.176,-0.280,-0.635
5:33:05.180,-0.300,-0.660
5:33:05.184,-0.290,-0.635
5:33:05.188,-0.310,-0.640
5:33:05.192,-0.255,-0.635
5:33:05.196,-0.235,-0.635
5:33:05.200,-0.210,-0.600
5:33:05.204,-0.210,-0.585
5:33:05.208,-0.270,-0.555
5:33:05.212,-0.270,-0.560
5:33:05.216,-0.285,-0.545
5:33:05.220,-0.290,-0.560
5:33:05.224,-0.265,-0.535
5:33:05.228,-0.255,-0.565
5:33:05.232,-0.235,-0.575
5:33:05.236,-0.200,-0.565
5:33:05.240,-0.170,-0.540
5:33:05.244,-0.175,-0.565
5:33:05.248,-0.205,-0.595
5:33:05.252,-0.185,-0.615
5:33:05.256,-0.185,-0.625
5:33:05.260,-0.205,-0.630
5:33:05.264,-0.245,-0.685
5:33:05.268,-0.225,-0.665
5:33:05.272,-0.210,-0.660
5:33:05.276,-0.190,-0.640
5:33:05.280,-0.210,-0.660
5:33:05.284,-0.240,-0.655
5:33:05.288,-0.280,-0.660
5:33:05.292,-0.275,-0.685
5:33:05.296,-0.260,-0.680
5:33:05.300,-0.265,-0.680
5:33:05.304,-0.290,-0.675
5:33:05.308,-0.295,-0.670
5:33:05.312,-0.260,-0.670
5:33:05.316,-0.265,-0.675
5:33:05.320,-0.255,-0.720
5:33:05.324,-0.270,-0.695
5:33:05.328,-0.305,-0.705
5:33:05.332,-0.285,-0.685
5:33:05.336,-0.280,-0.695
5:33:05.340,-0.280,-0.700
5:33:05.344,-0.300,-0.740
5:33:05.348,-0.300,-0.725
5:33:05.352,-0.305,-0.725
5:33:05.356,-0.285,-0.740
5:33:05.360,-0.270,-0.730
5:33:05.364,-0.315,-0.770
5:33:05.368,-0.305,-0.755
5:33:05.372,-0.340,-0.750
5:33:05.376,-0.335,-0.755
5:33:05.380,-0.415,-0.755
5:33:05.384,-0.620,-0.755
5:33:05.388,-0.765,-0.750
5:33:05.392,-0.795,-0.790
5:33:05.396,-0.665,-0.820
5:33:05.400,-0.475,-0.875
5:33:05.404,-0.040,-0.930
5:33:05.408,0.315,-1.110
5:33:05.412,0.385,-1.145
5:33:05.416,0.625,-1.015
5:33:05.420,1.175,-1.020
5:33:05.424,1.365,-0.965
5:33:05.428,0.975,-0.545
5:33:05.432,0.160,-0.165
5:33:05.436,-0.805,-0.145
5:33:05.440,-1.410,-0.895
5:33:05.444,-1.790,-1.860
5:33:05.448,-2.170,-2.510
5:33:05.452,-2.350,-2.665
5:33:05.456,-2.380,-2.530
5:33:05.460,-2.380,-2.385
5:33:05.464,-2.455,-2.265
5:33:05.468,-2.365,-2.040
5:33:05.472,-2.155,-1.850
5:33:05.476,-1.860,-1.710
5:33:05.480,-1.480,-1.590
5:33:05.484,-1.135,-1.405
5:33:05.488,-0.920,-1.180
5:33:05.492,-0.755,-0.935
5:33:05.496,-0.670,-0.810
5:33:05.500,-0.580,-0.735
5:33:05.504,-0.535,-0.700
5:33:05.508,-0.510,-0.670
5:33:05.512,-0.470,-0.660
5:33:05.516,-0.460,-0.710
5:33:05.520,-0.415,-0.705
5:33:05.524,-0.430,-0.705
5:33:05.528,-0.475,-0.750
5:33:05.532,-0.475,-0.750
5:33:05.536,-0.455,-0.775
5:33:05.540,-0.440,-0.770
5:33:05.544,-0.455,-0.805
5:33:05.548,-0.455,-0.770
5:33:05.552,-0.460,-0.785
5:33:05.556,-0.420,-0.820
5:33:05.560,-0.420,-0.785
5:33:05.564,-0.450,-0.810
5:33:05.568,-0.475,-0.800
5:33:05.572,-0.455,-0.795
5:33:05.576,-0.440,-0.795
5:33:05.580,-0.395,-0.810
5:33:05.584,-0.395,-0.795
5:33:05.588,-0.375,-0.760
5:33:05.592,-0.380,-0.765
5:33:05.596,-0.355,-0.740
5:33:05.600,-0.310,-0.745
5:33:05.604,-0.260,-0.725
5:33:05.608,-0.235,-0.700
5:33:05.612,-0.245,-0.685
5:33:05.616,-0.160,-0.665
5:33:05.620,-0.125,-0.640
5:33:05.624,-0.080,-0.620
5:33:05.628,-0.015,-0.590
5:33:05.632,0.025,-0.560
5:33:05.636,0.060,-0.515
5:33:05.640,0.090,-0.465
5:33:05.644,0.150,-0.460
5:33:05.648,0.175,-0.390
5:33:05.652,0.225,-0.420
5:33:05.656,0.260,-0.415
5:33:05.660,0.265,-0.400
5:33:05.664,0.300,-0.380
5:33:05.668,0.325,-0.375
5:33:05.672,0.285,-0.380
5:33:05.676,0.310,-0.340
5:33:05.680,0.350,-0.320
5:33:05.684,0.385,-0.315
5:33:05.688,0.375,-0.305
5:33:05.692,0.370,-0.285
5:33:05.696,0.315,-0.265
5:33:05.700,0.380,-0.250
5:33:05.704,0.360,-0.245
5:33:05.708,0.420,-0.250
5:33:05.712,0.435,-0.220
5:33:05.716,0.410,-0.205
5:33:05.720,0.365,-0.205
5:33:05.724,0.310,-0.170
5:33:05.728,0.280,-0.160
5:33:05.732,0.240,-0.130
5:33:05.736,0.195,-0.115
5:33:05.740,0.135,-0.085
5:33:05.744,0.095,-0.065
5:33:05.748,0.125,-0.035
5:33:05.752,0.055,-0.060
5:33:05.756,-0.025,-0.065
5:33:05.760,-0.045,-0.050
5:33:05.764,-0.060,-0.070
5:33:05.768,-0.050,-0.075
5:33:05.772,-0.060,-0.085
5:33:05.776,-0.080,-0.105
5:33:05.780,-0.090,-0.160
5:33:05.784,-0.070,-0.155
5:33:05.788,-0.060,-0.240
5:33:05.792,-0.100,-0.225
5:33:05.796,-0.130,-0.280
5:33:05.800,-0.120,-0.325
5:33:05.804,-0.150,-0.320
5:33:05.808,-0.195,-0.360
5:33:05.812,-0.120,-0.415
5:33:05.816,-0.160,-0.430
5:33:05.820,-0.135,-0.460
5:33:05.824,-0.130,-0.450
5:33:05.828,-0.170,-0.460
5:33:05.832,-0.180,-0.480
5:33:05.836,-0.195,-0.500
5:33:05.840,-0.175,-0.495
5:33:05.844,-0.180,-0.520
5:33:05.848,-0.230,-0.530
5:33:05.852,-0.250,-0.540
5:33:05.856,-0.245,-0.565
5:33:05.860,-0.255,-0.570
5:33:05.864,-0.230,-0.555
5:33:05.868,-0.270,-0.565
5:33:05.872,-0.280,-0.565
5:33:05.876,-0.260,-0.590
5:33:05.880,-0.280,-0.635
5:33:05.884,-0.265,-0.665
5:33:05.888,-0.290,-0.655
5:33:05.892,-0.325,-0.635
5:33:05.896,-0.310,-0.630
5:33:05.900,-0.285,-0.670
5:33:05.904,-0.300,-0.675
5:33:05.908,-0.310,-0.710
5:33:05.912,-0.340,-0.685
5:33:05.916,-0.305,-0.670
5:33:05.920,-0.300,-0.675
5:33:05.924,-0.285,-0.675
5:33:05.928,-0.315,-0.700
5:33:05.932,-0.315,-0.710
5:33:05.936,-0.290,-0.700
5:33:05.940,-0.305,-0.700
5:33:05.944,-0.270,-0.690
5:33:05.948,-0.290,-0.705
5:33:05.952,-0.285,-0.715
5:33:05.956,-0.320,-0.705
5:33:05.960,-0.285,-0.700
5:33:05.964,-0.255,-0.710
5:33:05.968,-0.305,-0.700
5:33:05.972,-0.305,-0.690
5:33:05.976,-0.310,-0.700
5:33:05.980,-0.290,-0.715
5:33:05.984,-0.290,-0.700
5:33:05.988,-0.325,-0.690
5:33:05.992,-0.320,-0.670
5:33:05.996,-0.295,-0.670
5:33:06.000,-0.285,-0.675
5:33:06.004,-0.290,-0.630
5:33:06.008,-0.260,-0.610
5:33:06.012,-0.290,-0.640
5:33:06.016,-0.310,-0.610
5:33:06.020,-0.310,-0.640
5:33:06.024,-0.295,-0.615
5:33:06.028,-0.235,-0.640
5:33:06.032,-0.240,-0.630
5:33:06.036,-0.210,-0.625
5:33:06.040,-0.195,-0.615
5:33:06.044,-0.150,-0.660
5:33:06.048,-0.165,-0.640
5:33:06.052,-0.210,-0.665
5:33:06.056,-0.240,-0.665
5:33:06.060,-0.230,-0.730
5:33:06.064,-0.235,-0.710
5:33:06.068,-0.205,-0.695
5:33:06.072,-0.240,-0.690
5:33:06.076,-0.280,-0.750
5:33:06.080,-0.260,-0.755
5:33:06.084,-0.310,-0.745
5:33:06.088,-0.250,-0.720
5:33:06.092,-0.285,-0.740
5:33:06.096,-0.310,-0.725
5:33:06.100,-0.295,-0.750
5:33:06.104,-0.320,-0.740
5:33:06.108,-0.295,-0.740
5:33:06.112,-0.355,-0.725
5:33:06.116,-0.290,-0.745
5:33:06.120,-0.270,-0.725
5:33:06.124,-0.300,-0.760
5:33:06.128,-0.310,-0.755
5:33:06.132,-0.345,-0.735
5:33:06.136,-0.345,-0.725
5:33:06.140,-0.320,-0.740
5:33:06.144,-0.300,-0.765
5:33:06.148,-0.345,-0.770
5:33:06.152,-0.350,-0.785
5:33:06.156,-0.310,-0.765
5:33:06.160,-0.320,-0.745
5:33:06.164,-0.335,-0.730
5:33:06.168,-0.325,-0.705
5:33:06.172,-0.310,-0.740
5:33:06.176,-0.355,-0.760
5:33:06.180,-0.340,-0.760
5:33:06.184,-0.335,-0.750
5:33:06.188,-0.320,-0.720
5:33:06.192,-0.315,-0.735
5:33:06.196,-0.330,-0.720
5:33:06.200,-0.345,-0.750
5:33:06.204,-0.315,-0.750
5:33:06.208,-0.320,-0.750
5:33:06.212,-0.320,-0.735
5:33:06.216,-0.310,-0.765
5:33:06.220,-0.345,-0.725
5:33:06.224,-0.355,-0.725
5:33:06.228,-0.320,-0.735
5:33:06.232,-0.320,-0.730
5:33:06.236,-0.335,-0.735
5:33:06.240,-0.310,-0.765
5:33:06.244,-0.270,-0.780
5:33:06.248,-0.270,-0.740
5:33:06.252,-0.275,-0.735
5:33:06.256,-0.305,-0.710
5:33:06.260,-0.320,-0.740
5:33:06.264,-0.285,-0.710
5:33:06.268,-0.275,-0.680
5:33:06.272,-0.300,-0.695
5:33:06.276,-0.320,-0.675
5:33:06.280,-0.335,-0.655
5:33:06.284,-0.305,-0.650
5:33:06.288,-0.315,-0.640
5:33:06.292,-0.260,-0.615
5:33:06.296,-0.260,-0.650
5:33:06.300,-0.225,-0.630
5:33:06.304,-0.225,-0.605
5:33:06.308,-0.190,-0.675
5:33:06.312,-0.210,-0.660
5:33:06.316,-0.185,-0.685
5:33:06.320,-0.230,-0.705
5:33:06.324,-0.190,-0.740
5:33:06.328,-0.210,-0.775
5:33:06.332,-0.225,-0.765
5:33:06.336,-0.310,-0.740
5:33:06.340,-0.465,-0.785
5:33:06.344,-0.615,-0.800
5:33:06.348,-0.655,-0.810
5:33:06.352,-0.555,-0.825
5:33:06.356,-0.350,-0.865
5:33:06.360,0.085,-1.020
5:33:06.364,0.415,-1.130
5:33:06.368,0.530,-1.135
5:33:06.372,0.915,-1.100
5:33:06.376,1.440,-1.110
5:33:06.380,1.520,-0.980
5:33:06.384,1.000,-0.580
5:33:06.388,0.035,-0.220
5:33:06.392,-0.930,-0.400
5:33:06.396,-1.475,-1.330
5:33:06.400,-1.790,-2.275
5:33:06.404,-2.150,-2.690
5:33:06.408,-2.295,-2.755
5:33:06.412,-2.380,-2.615
5:33:06.416,-2.440,-2.535
5:33:06.420,-2.510,-2.430
5:33:06.424,-2.390,-2.275
5:33:06.428,-2.185,-2.005
5:33:06.432,-1.805,-1.855
5:33:06.436,-1.430,-1.675
5:33:06.440,-1.105,-1.460
5:33:06.444,-0.860,-1.180
5:33:06.448,-0.700,-0.995
5:33:06.452,-0.630,-0.870
5:33:06.456,-0.640,-0.850
5:33:06.460,-0.620,-0.805
5:33:06.464,-0.555,-0.790
5:33:06.468,-0.550,-0.795
5:33:06.472,-0.550,-0.765
5:33:06.476,-0.575,-0.775
5:33:06.480,-0.525,-0.815
5:33:06.484,-0.515,-0.810
5:33:06.488,-0.505,-0.800
5:33:06.492,-0.455,-0.770
5:33:06.496,-0.465,-0.785
5:33:06.500,-0.520,-0.760
5:33:06.504,-0.510,-0.765
5:33:06.508,-0.505,-0.760
5:33:06.512,-0.495,-0.775
5:33:06.516,-0.440,-0.780
5:33:06.520,-0.455,-0.765
5:33:06.524,-0.470,-0.750
5:33:06.528,-0.425,-0.750
5:33:06.532,-0.375,-0.730
5:33:06.536,-0.320,-0.745
5:33:06.540,-0.350,-0.695
5:33:06.544,-0.295,-0.705
5:33:06.548,-0.250,-0.670
5:33:06.552,-0.195,-0.660
5:33:06.556,-0.280,-0.615
5:33:06.560,-0.275,-0.620
5:33:06.564,-0.115,-0.590
5:33:06.568,0.035,-0.540
5:33:06.572,-0.010,-0.540
5:33:06.576,0.055,-0.545
5:33:06.580,0.195,-0.545
5:33:06.584,0.155,-0.540
5:33:06.588,0.195,-0.595
5:33:06.592,0.310,-0.565
5:33:06.596,0.370,-0.545
5:33:06.600,0.395,-0.515
5:33:06.604,0.380,-0.525
5:33:06.608,0.430,-0.520
5:33:06.612,0.460,-0.495
5:33:06.616,0.460,-0.505
5:33:06.620,0.470,-0.500
5:33:06.624,0.500,-0.490
5:33:06.628,0.530,-0.480
5:33:06.632,0.660,-0.465
5:33:06.636,0.595,-0.450
5:33:06.640,0.635,-0.450
5:33:06.644,0.650,-0.415
5:33:06.648,0.665,-0.415
5:33:06.652,0.660,-0.400
5:33:06.656,0.650,-0.425
5:33:06.660,0.625,-0.395
5:33:06.664,0.555,-0.365
5:33:06.668,0.640,-0.365
5:33:06.672,0.615,-0.345
5:33:06.676,0.595,-0.380
5:33:06.680,0.500,-0.340
5:33:06.684,0.465,-0.335
5:33:06.688,0.445,-0.315
5:33:06.692,0.325,-0.315
5:33:06.696,0.280,-0.300
5:33:06.700,0.265,-0.300
5:33:06.704,0.210,-0.280
5:33:06.708,0.150,-0.290
5:33:06.712,0.125,-0.335
5:33:06.716,0.090,-0.305
5:33:06.720,-0.010,-0.275
5:33:06.724,-0.060,-0.275
5:33:06.728,-0.040,-0.330
5:33:06.732,-0.025,-0.355
5:33:06.736,-0.115,-0.360
5:33:06.740,-0.135,-0.395
5:33:06.744,-0.165,-0.375
5:33:06.748,-0.190,-0.390
5:33:06.752,-0.200,-0.410
5:33:06.756,-0.190,-0.395
5:33:06.760,-0.170,-0.445
5:33:06.764,-0.195,-0.450
5:33:06.768,-0.220,-0.465
5:33:06.772,-0.205,-0.425
5:33:06.776,-0.180,-0.460
5:33:06.780,-0.235,-0.440
5:33:06.784,-0.255,-0.470
5:33:06.788,-0.190,-0.485
5:33:06.792,-0.175,-0.440
5:33:06.796,-0.190,-0.475
5:33:06.800,-0.200,-0.455
5:33:06.804,-0.220,-0.460
5:33:06.808,-0.220,-0.450
5:33:06.812,-0.235,-0.495
5:33:06.816,-0.210,-0.495
5:33:06.820,-0.250,-0.500
5:33:06.824,-0.200,-0.490
5:33:06.828,-0.205,-0.495
5:33:06.832,-0.160,-0.475
5:33:06.836,-0.175,-0.520
5:33:06.840,-0.175,-0.540
5:33:06.844,-0.170,-0.570
5:33:06.848,-0.175,-0.575
5:33:06.852,-0.165,-0.605
5:33:06.856,-0.160,-0.620
5:33:06.860,-0.205,-0.655
5:33:06.864,-0.205,-0.665
5:33:06.868,-0.210,-0.660
5:33:06.872,-0.170,-0.645
5:33:06.876,-0.175,-0.680
5:33:06.880,-0.195,-0.700
5:33:06.884,-0.230,-0.720
5:33:06.888,-0.230,-0.725
5:33:06.892,-0.230,-0.710
5:33:06.896,-0.260,-0.720
5:33:06.900,-0.230,-0.680
5:33:06.904,-0.250,-0.715
5:33:06.908,-0.255,-0.720
5:33:06.912,-0.275,-0.680
5:33:06.916,-0.270,-0.655
5:33:06.920,-0.285,-0.690
5:33:06.924,-0.280,-0.730
5:33:06.928,-0.330,-0.735
5:33:06.932,-0.325,-0.740
5:33:06.936,-0.310,-0.725
5:33:06.940,-0.315,-0.740
5:33:06.944,-0.350,-0.745
5:33:06.948,-0.340,-0.770
5:33:06.952,-0.330,-0.735
5:33:06.956,-0.305,-0.740
5:33:06.960,-0.350,-0.740
5:33:06.964,-0.385,-0.755
5:33:06.968,-0.320,-0.760
5:33:06.972,-0.360,-0.760
5:33:06.976,-0.355,-0.745
5:33:06.980,-0.360,-0.730
5:33:06.984,-0.355,-0.735
5:33:06.988,-0.360,-0.710
5:33:06.992,-0.360,-0.750
5:33:06.996,-0.345,-0.730
5:33:07.000,-0.330,-0.720
5:33:07.004,-0.320,-0.745
5:33:07.008,-0.355,-0.705
5:33:07.012,-0.345,-0.730
5:33:07.016,-0.315,-0.700
5:33:07.020,-0.310,-0.695
5:33:07.024,-0.320,-0.715
5:33:07.028,-0.355,-0.755
5:33:07.032,-0.345,-0.730
5:33:07.036,-0.300,-0.715
5:33:07.040,-0.335,-0.745
5:33:07.044,-0.350,-0.740
5:33:07.048,-0.315,-0.720
5:33:07.052,-0.335,-0.745
5:33:07.056,-0.335,-0.740
5:33:07.060,-0.320,-0.740
5:33:07.064,-0.360,-0.695
5:33:07.068,-0.350,-0.725
5:33:07.072,-0.370,-0.705
5:33:07.076,-0.365,-0.700
5:33:07.080,-0.400,-0.720
5:33:07.084,-0.400,-0.695
5:33:07.088,-0.355,-0.705
5:33:07.092,-0.340,-0.715
5:33:07.096,-0.300,-0.685
5:33:07.100,-0.285,-0.660
5:33:07.104,-0.240,-0.655
5:33:07.108,-0.255,-0.670
5:33:07.112,-0.265,-0.720
5:33:07.116,-0.265,-0.730
5:33:07.120,-0.310,-0.700
5:33:07.124,-0.360,-0.745
5:33:07.128,-0.550,-0.725
5:33:07.132,-0.700,-0.730
5:33:07.136,-0.780,-0.760
5:33:07.140,-0.665,-0.840
5:33:07.144,-0.520,-0.905
5:33:07.148,-0.160,-1.005
5:33:07.152,0.155,-1.140
5:33:07.156,0.345,-1.150
5:33:07.160,0.565,-1.050
5:33:07.164,1.030,-1.005
5:33:07.168,1.430,-0.940
5:33:07.172,1.150,-0.530
5:33:07.176,0.410,-0.040
5:33:07.180,-0.525,0.105
5:33:07.184,-1.190,-0.530
5:33:07.188,-1.595,-1.540
5:33:07.192,-1.970,-2.460
5:33:07.196,-2.220,-2.745
5:33:07.200,-2.300,-2.695
5:33:07.204,-2.360,-2.585
5:33:07.208,-2.505,-2.545
5:33:07.212,-2.455,-2.440
5:33:07.216,-2.300,-2.220
5:33:07.220,-2.000,-2.025
5:33:07.224,-1.600,-1.895
5:33:07.228,-1.280,-1.610
5:33:07.232,-0.995,-1.285
5:33:07.236,-0.800,-1.045
5:33:07.240,-0.670,-0.945
5:33:07.244,-0.640,-0.875
5:33:07.248,-0.640,-0.805
5:33:07.252,-0.615,-0.800
5:33:07.256,-0.580,-0.780
5:33:07.260,-0.580,-0.785
5:33:07.264,-0.580,-0.785
5:33:07.268,-0.585,-0.775
5:33:07.272,-0.560,-0.740
5:33:07.276,-0.535,-0.775
5:33:07.280,-0.525,-0.760
5:33:07.284,-0.505,-0.735
5:33:07.288,-0.525,-0.720
5:33:07.292,-0.565,-0.735
5:33:07.296,-0.515,-0.725
5:33:07.300,-0.475,-0.705
5:33:07.304,-0.445,-0.710
5:33:07.308,-0.470,-0.695
5:33:07.312,-0.490,-0.665
5:33:07.316,-0.440,-0.670
5:33:07.320,-0.455,-0.635
5:33:07.324,-0.425,-0.635
5:33:07.328,-0.390,-0.605
5:33:07.332,-0.345,-0.600
5:33:07.336,-0.330,-0.595
5:33:07.340,-0.300,-0.605
5:33:07.344,-0.260,-0.600
5:33:07.348,-0.205,-0.535
5:33:07.352,-0.180,-0.510
5:33:07.356,-0.140,-0.470
5:33:07.360,-0.085,-0.455
5:33:07.364,-0.045,-0.495
5:33:07.368,0.000,-0.495
5:33:07.372,0.045,-0.465
5:33:07.376,0.075,-0.455
5:33:07.380,0.130,-0.425
5:33:07.384,0.180,-0.430
5:33:07.388,0.240,-0.405
5:33:07.392,0.260,-0.440
5:33:07.396,0.275,-0.400
5:33:07.400,0.325,-0.390
5:33:07.404,0.350,-0.360
5:33:07.408,0.335,-0.355
5:33:07.412,0.340,-0.340
5:33:07.416,0.395,-0.295
5:33:07.420,0.380,-0.315
5:33:07.424,0.390,-0.270
5:33:07.428,0.390,-0.275
5:33:07.432,0.430,-0.285
5:33:07.436,0.385,-0.260
5:33:07.440,0.415,-0.245
5:33:07.444,0.405,-0.230
5:33:07.448,0.400,-0.220
5:33:07.452,0.345,-0.200
5:33:07.456,0.320,-0.195
5:33:07.460,0.280,-0.215
5:33:07.464,0.235,-0.225
5:33:07.468,0.145,-0.210
5:33:07.472,0.115,-0.220
5:33:07.476,0.075,-0.190
5:33:07.480,0.020,-0.210
5:33:07.484,0.005,-0.210
5:33:07.488,-0.095,-0.230
5:33:07.492,-0.140,-0.260
5:33:07.496,-0.150,-0.250
5:33:07.500,-0.165,-0.260
5:33:07.504,-0.225,-0.275
5:33:07.508,-0.240,-0.295
5:33:07.512,-0.270,-0.330
5:33:07.516,-0.315,-0.330
5:33:07.520,-0.320,-0.345
5:33:07.524,-0.280,-0.345
5:33:07.528,-0.320,-0.395
5:33:07.532,-0.320,-0.360
5:33:07.536,-0.350,-0.400
5:33:07.540,-0.365,-0.430
5:33:07.544,-0.335,-0.425
5:33:07.548,-0.340,-0.460
5:33:07.552,-0.350,-0.445
5:33:07.556,-0.360,-0.455
5:33:07.560,-0.340,-0.505
5:33:07.564,-0.330,-0.530
5:33:07.568,-0.340,-0.500
5:33:07.572,-0.335,-0.495
5:33:07.576,-0.345,-0.515
5:33:07.580,-0.340,-0.510
5:33:07.584,-0.320,-0.550
5:33:07.588,-0.310,-0.530
5:33:07.592,-0.340,-0.545
5:33:07.596,-0.405,-0.540
5:33:07.600,-0.405,-0.550
5:33:07.604,-0.370,-0.560
5:33:07.608,-0.330,-0.560
5:33:07.612,-0.270,-0.525
5:33:07.616,-0.305,-0.530
5:33:07.620,-0.265,-0.565
5:33:07.624,-0.240,-0.580
5:33:07.628,-0.250,-0.605
5:33:07.632,-0.240,-0.620
5:33:07.636,-0.275,-0.660
5:33:07.640,-0.285,-0.665
5:33:07.644,-0.245,-0.650
5:33:07.648,-0.260,-0.705
5:33:07.652,-0.290,-0.690
5:33:07.656,-0.335,-0.715
5:33:07.660,-0.315,-0.710
5:33:07.664,-0.285,-0.725
5:33:07.668,-0.280,-0.725
5:33:07.672,-0.295,-0.725
5:33:07.676,-0.280,-0.745
5:33:07.680,-0.320,-0.755
5:33:07.684,-0.315,-0.720
5:33:07.688,-0.300,-0.725
5:33:07.692,-0.295,-0.755
5:33:07.696,-0.325,-0.780
5:33:07.700,-0.330,-0.795
5:33:07.704,-0.325,-0.775
5:33:07.708,-0.325,-0.780
5:33:07.712,-0.330,-0.780
5:33:07.716,-0.370,-0.785
5:33:07.720,-0.385,-0.780
5:33:07.724,-0.380,-0.795
5:33:07.728,-0.390,-0.800
5:33:07.732,-0.390,-0.810
5:33:07.736,-0.400,-0.825
5:33:07.740,-0.430,-0.795
5:33:07.744,-0.455,-0.800
5:33:07.748,-0.415,-0.825
5:33:07.752,-0.440,-0.825
5:33:07.756,-0.440,-0.820
5:33:07.760,-0.460,-0.830
5:33:07.764,-0.430,-0.820
5:33:07.768,-0.420,-0.835
5:33:07.772,-0.420,-0.840
5:33:07.776,-0.435,-0.850
5:33:07.780,-0.480,-0.865
5:33:07.784,-0.430,-0.840
5:33:07.788,-0.425,-0.820
5:33:07.792,-0.420,-0.840
5:33:07.796,-0.440,-0.830
5:33:07.800,-0.445,-0.860
5:33:07.804,-0.430,-0.830
5:33:07.808,-0.410,-0.850
5:33:07.812,-0.410,-0.845
5:33:07.816,-0.440,-0.810
5:33:07.820,-0.445,-0.815
5:33:07.824,-0.420,-0.840
5:33:07.828,-0.410,-0.825
5:33:07.832,-0.405,-0.810
5:33:07.836,-0.405,-0.795
5:33:07.840,-0.410,-0.765
5:33:07.844,-0.440,-0.805
5:33:07.848,-0.380,-0.780
5:33:07.852,-0.380,-0.720
5:33:07.856,-0.385,-0.720
5:33:07.860,-0.415,-0.720
5:33:07.864,-0.445,-0.735
5:33:07.868,-0.500,-0.705
5:33:07.872,-0.590,-0.745
5:33:07.876,-0.695,-0.720
5:33:07.880,-0.740,-0.720
5:33:07.884,-0.640,-0.760
5:33:07.888,-0.455,-0.865
5:33:07.892,-0.145,-0.995
5:33:07.896,0.215,-1.175
5:33:07.900,0.315,-1.210
5:33:07.904,0.440,-1.065
5:33:07.908,0.870,-1.045
5:33:07.912,1.155,-0.870
5:33:07.916,0.865,-0.435
5:33:07.920,0.205,0.150
5:33:07.924,-0.455,0.375
5:33:07.928,-0.975,-0.210
5:33:07.932,-1.275,-1.220
5:33:07.936,-1.550,-2.160
5:33:07.940,-1.895,-2.505
5:33:07.944,-2.070,-2.530
5:33:07.948,-2.105,-2.505
5:33:07.952,-2.220,-2.385
5:33:07.956,-2.270,-2.260
5:33:07.960,-2.160,-2.090
5:33:07.964,-1.860,-1.990
5:33:07.968,-1.510,-1.810
5:33:07.972,-1.135,-1.570
5:33:07.976,-0.920,-1.280
5:33:07.980,-0.780,-1.045
5:33:07.984,-0.680,-0.930
5:33:07.988,-0.630,-0.885
5:33:07.992,-0.585,-0.840
5:33:07.996,-0.580,-0.765
5:33:08.000,-0.560,-0.745
5:33:08.004,-0.595,-0.760
5:33:08.008,-0.570,-0.775
5:33:08.012,-0.520,-0.730
5:33:08.016,-0.520,-0.780
5:33:08.020,-0.560,-0.800
5:33:08.024,-0.545,-0.835
5:33:08.028,-0.530,-0.800
5:33:08.032,-0.530,-0.790
5:33:08.036,-0.525,-0.770
5:33:08.040,-0.535,-0.755
5:33:08.044,-0.525,-0.785
5:33:08.048,-0.490,-0.755
5:33:08.052,-0.520,-0.785
5:33:08.056,-0.490,-0.740
5:33:08.060,-0.490,-0.775
5:33:08.064,-0.475,-0.750
5:33:08.068,-0.470,-0.750
5:33:08.072,-0.420,-0.720
5:33:08.076,-0.420,-0.730
5:33:08.080,-0.410,-0.690
5:33:08.084,-0.360,-0.700
5:33:08.088,-0.330,-0.690
5:33:08.092,-0.315,-0.670
5:33:08.096,-0.265,-0.640
5:33:08.100,-0.210,-0.590
5:33:08.104,-0.205,-0.585
5:33:08.108,-0.185,-0.515
5:33:08.112,-0.120,-0.500
5:33:08.116,-0.060,-0.410
5:33:08.120,-0.010,-0.390
5:33:08.124,0.005,-0.345
5:33:08.128,0.040,-0.305
5:33:08.132,0.130,-0.265
5:33:08.136,0.200,-0.270
5:33:08.140,0.265,-0.210
5:33:08.144,0.270,-0.180
5:33:08.148,0.330,-0.160
5:33:08.152,0.370,-0.155
5:33:08.156,0.380,-0.160
5:33:08.160,0.400,-0.160
5:33:08.164,0.400,-0.140
5:33:08.168,0.430,-0.150
5:33:08.172,0.425,-0.160
5:33:08.176,0.440,-0.130
5:33:08.180,0.460,-0.155
5:33:08.184,0.480,-0.165
5:33:08.188,0.470,-0.130
5:33:08.192,0.490,-0.100
5:33:08.196,0.465,-0.105
5:33:08.200,0.490,-0.105
5:33:08.204,0.470,-0.075
5:33:08.208,0.415,-0.060
5:33:08.212,0.390,-0.060
5:33:08.216,0.360,-0.075
5:33:08.220,0.300,-0.075
5:33:08.224,0.235,-0.075
5:33:08.228,0.160,-0.100
5:33:08.232,0.135,-0.080
5:33:08.236,0.115,-0.110
5:33:08.240,0.090,-0.120
5:33:08.244,0.020,-0.120
5:33:08.248,-0.015,-0.170
5:33:08.252,-0.060,-0.165
5:33:08.256,-0.095,-0.155
5:33:08.260,-0.120,-0.235
5:33:08.264,-0.150,-0.240
5:33:08.268,-0.160,-0.300
5:33:08.272,-0.200,-0.325
5:33:08.276,-0.215,-0.320
5:33:08.280,-0.235,-0.370
5:33:08.284,-0.260,-0.385
5:33:08.288,-0.300,-0.430
5:33:08.292,-0.310,-0.400
5:33:08.296,-0.290,-0.425
5:33:08.300,-0.250,-0.470
5:33:08.304,-0.285,-0.480
5:33:08.308,-0.295,-0.510
5:33:08.312,-0.295,-0.525
5:33:08.316,-0.320,-0.500
5:33:08.320,-0.290,-0.505
5:33:08.324,-0.295,-0.595
5:33:08.328,-0.280,-0.530
5:33:08.332,-0.295,-0.540
5:33:08.336,-0.295,-0.600
5:33:08.340,-0.275,-0.625
5:33:08.344,-0.270,-0.605
5:33:08.348,-0.265,-0.620
5:33:08.352,-0.270,-0.630
5:33:08.356,-0.245,-0.610
5:33:08.360,-0.265,-0.590
5:33:08.364,-0.240,-0.625
5:33:08.368,-0.270,-0.625
5:33:08.372,-0.265,-0.670
5:33:08.376,-0.280,-0.675
5:33:08.380,-0.260,-0.675
5:33:08.384,-0.250,-0.670
5:33:08.388,-0.260,-0.640
5:33:08.392,-0.280,-0.650
5:33:08.396,-0.265,-0.625
5:33:08.400,-0.235,-0.620
5:33:08.404,-0.285,-0.630
5:33:08.408,-0.260,-0.610
5:33:08.412,-0.265,-0.630
5:33:08.416,-0.245,-0.605
5:33:08.420,-0.200,-0.615
5:33:08.424,-0.185,-0.615
5:33:08.428,-0.215,-0.610
5:33:08.432,-0.235,-0.690
5:33:08.436,-0.230,-0.720
5:33:08.440,-0.230,-0.725
5:33:08.444,-0.250,-0.735
5:33:08.448,-0.260,-0.765
5:33:08.452,-0.290,-0.785
5:33:08.456,-0.300,-0.800
5:33:08.460,-0.310,-0.835
5:33:08.464,-0.270,-0.840
5:33:08.468,-0.265,-0.825
5:33:08.472,-0.300,-0.820
5:33:08.476,-0.305,-0.845
5:33:08.480,-0.300,-0.815
5:33:08.484,-0.315,-0.870
5:33:08.488,-0.320,-0.880
5:33:08.492,-0.375,-0.870
5:33:08.496,-0.365,-0.865
5:33:08.500,-0.370,-0.865
5:33:08.504,-0.365,-0.895
5:33:08.508,-0.340,-0.860
5:33:08.512,-0.395,-0.840
5:33:08.516,-0.385,-0.875
5:33:08.520,-0.385,-0.875
5:33:08.524,-0.355,-0.865
5:33:08.528,-0.370,-0.835
5:33:08.532,-0.370,-0.865
5:33:08.536,-0.350,-0.845
5:33:08.540,-0.375,-0.860
5:33:08.544,-0.380,-0.835
5:33:08.548,-0.385,-0.850
5:33:08.552,-0.375,-0.840
5:33:08.556,-0.400,-0.845
5:33:08.560,-0.385,-0.855
5:33:08.564,-0.410,-0.830
5:33:08.568,-0.420,-0.835
5:33:08.572,-0.430,-0.865
5:33:08.576,-0.515,-0.845
5:33:08.580,-0.660,-0.795
5:33:08.584,-0.760,-0.840
5:33:08.588,-0.740,-0.890
5:33:08.592,-0.610,-0.965
5:33:08.596,-0.365,-1.065
5:33:08.600,0.000,-1.225
5:33:08.604,0.175,-1.325
5:33:08.608,0.195,-1.240
5:33:08.612,0.490,-1.130
5:33:08.616,0.730,-1.040
5:33:08.620,0.495,-0.670
5:33:08.624,-0.005,-0.135
5:33:08.628,-0.530,0.185
5:33:08.632,-0.980,-0.160
5:33:08.636,-1.330,-1.200
5:33:08.640,-1.555,-2.240
5:33:08.644,-1.825,-2.665
5:33:08.648,-1.975,-2.620
5:33:08.652,-2.085,-2.455
5:33:08.656,-2.250,-2.320
5:33:08.660,-2.315,-2.130
5:33:08.664,-2.200,-1.995
5:33:08.668,-2.000,-1.800
5:33:08.672,-1.630,-1.690
5:33:08.676,-1.250,-1.480
5:33:08.680,-0.960,-1.230
5:33:08.684,-0.770,-0.980
5:33:08.688,-0.630,-0.845
5:33:08.692,-0.525,-0.790
5:33:08.696,-0.465,-0.725
5:33:08.700,-0.480,-0.700
5:33:08.704,-0.485,-0.700
5:33:08.708,-0.430,-0.680
5:33:08.712,-0.425,-0.715
5:33:08.716,-0.470,-0.730
5:33:08.720,-0.495,-0.745
5:33:08.724,-0.430,-0.765
5:33:08.728,-0.390,-0.770
5:33:08.732,-0.440,-0.775
5:33:08.736,-0.445,-0.765
5:33:08.740,-0.430,-0.795
5:33:08.744,-0.430,-0.770
5:33:08.748,-0.420,-0.815
5:33:08.752,-0.425,-0.775
5:33:08.756,-0.425,-0.770
5:33:08.760,-0.450,-0.795
5:33:08.764,-0.440,-0.770
5:33:08.768,-0.430,-0.770
5:33:08.772,-0.400,-0.785
5:33:08.776,-0.400,-0.795
5:33:08.780,-0.380,-0.755
5:33:08.784,-0.330,-0.765
5:33:08.788,-0.345,-0.750
5:33:08.792,-0.330,-0.710
5:33:08.796,-0.320,-0.715
5:33:08.800,-0.305,-0.715
5:33:08.804,-0.280,-0.690
5:33:08.808,-0.220,-0.695
5:33:08.812,-0.150,-0.600
5:33:08.816,-0.130,-0.610
5:33:08.820,-0.060,-0.550
5:33:08.824,-0.020,-0.550
5:33:08.828,0.015,-0.515
5:33:08.832,0.035,-0.485
5:33:08.836,0.135,-0.435
5:33:08.840,0.175,-0.410
5:33:08.844,0.170,-0.365
5:33:08.848,0.225,-0.350
5:33:08.852,0.260,-0.310
5:33:08.856,0.250,-0.275
5:33:08.860,0.305,-0.260
5:33:08.864,0.330,-0.230
5:33:08.868,0.350,-0.230
5:33:08.872,0.425,-0.195
5:33:08.876,0.430,-0.175
5:33:08.880,0.425,-0.150
5:33:08.884,0.360,-0.105
5:33:08.888,0.375,-0.105
5:33:08.892,0.405,-0.080
5:33:08.896,0.430,-0.080
5:33:08.900,0.445,-0.040
5:33:08.904,0.400,-0.010
5:33:08.908,0.405,-0.005
5:33:08.912,0.420,0.020
5:33:08.916,0.350,0.020
5:33:08.920,0.300,0.005
5:33:08.924,0.230,0.040
5:33:08.928,0.145,0.020
5:33:08.932,0.160,-0.020
5:33:08.936,0.125,0.005
5:33:08.940,0.110,0.005
5:33:08.944,0.115,-0.010
5:33:08.948,0.070,-0.040
5:33:08.952,0.085,-0.005
5:33:08.956,0.060,-0.085
5:33:08.960,0.020,-0.100
5:33:08.964,0.010,-0.150
5:33:08.968,-0.010,-0.205
5:33:08.972,0.010,-0.220
5:33:08.976,-0.030,-0.235
5:33:08.980,-0.085,-0.280
5:33:08.984,-0.125,-0.360
5:33:08.988,-0.140,-0.390
5:33:08.992,-0.150,-0.390
5:33:08.996,-0.140,-0.435
5:33:09.000,-0.145,-0.460
5:33:09.004,-0.160,-0.460
5:33:09.008,-0.170,-0.490
5:33:09.012,-0.130,-0.470
5:33:09.016,-0.110,-0.480
5:33:09.020,-0.140,-0.495
5:33:09.024,-0.150,-0.515
5:33:09.028,-0.160,-0.515
5:33:09.032,-0.155,-0.550
5:33:09.036,-0.145,-0.575
5:33:09.040,-0.145,-0.565
5:33:09.044,-0.150,-0.575
5:33:09.048,-0.170,-0.570
5:33:09.052,-0.190,-0.600
5:33:09.056,-0.155,-0.575
5:33:09.060,-0.170,-0.615
5:33:09.064,-0.185,-0.620
5:33:09.068,-0.210,-0.620
5:33:09.072,-0.215,-0.620
5:33:09.076,-0.205,-0.645
5:33:09.080,-0.215,-0.650
5:33:09.084,-0.225,-0.650
5:33:09.088,-0.240,-0.685
5:33:09.092,-0.245,-0.720
5:33:09.096,-0.235,-0.715
5:33:09.100,-0.250,-0.710
5:33:09.104,-0.245,-0.725
5:33:09.108,-0.285,-0.735
5:33:09.112,-0.300,-0.735
5:33:09.116,-0.280,-0.745
5:33:09.120,-0.280,-0.730
5:33:09.124,-0.280,-0.750
5:33:09.128,-0.310,-0.765
5:33:09.132,-0.295,-0.760
5:33:09.136,-0.295,-0.750
5:33:09.140,-0.280,-0.785
5:33:09.144,-0.280,-0.760
5:33:09.148,-0.335,-0.800
5:33:09.152,-0.300,-0.785
5:33:09.156,-0.255,-0.785
5:33:09.160,-0.270,-0.795
5:33:09.164,-0.275,-0.800
5:33:09.168,-0.330,-0.770
5:33:09.172,-0.325,-0.755
5:33:09.176,-0.275,-0.745
5:33:09.180,-0.275,-0.755
5:33:09.184,-0.310,-0.755
5:33:09.188,-0.355,-0.745
5:33:09.192,-0.340,-0.755
5:33:09.196,-0.290,-0.750
5:33:09.200,-0.250,-0.720
5:33:09.204,-0.190,-0.695
5:33:09.208,-0.195,-0.650
5:33:09.212,-0.165,-0.640
5:33:09.216,-0.195,-0.680
5:33:09.220,-0.175,-0.705
5:33:09.224,-0.130,-0.725
5:33:09.228,-0.180,-0.695
5:33:09.232,-0.200,-0.740
5:33:09.236,-0.200,-0.720
5:33:09.240,-0.190,-0.760
5:33:09.244,-0.210,-0.790
5:33:09.248,-0.245,-0.785
5:33:09.252,-0.260,-0.800
5:33:09.256,-0.225,-0.745
5:33:09.260,-0.250,-0.760
5:33:09.264,-0.345,-0.735
5:33:09.268,-0.485,-0.780
5:33:09.272,-0.615,-0.780
5:33:09.276,-0.610,-0.790
5:33:09.280,-0.465,-0.860
5:33:09.284,-0.200,-0.940
5:33:09.288,0.150,-1.105
5:33:09.292,0.300,-1.275
5:33:09.296,0.260,-1.220
5:33:09.300,0.470,-1.145
5:33:09.304,0.820,-1.110
5:33:09.308,0.695,-0.910
5:33:09.312,0.145,-0.455
5:33:09.316,-0.530,-0.205
5:33:09.320,-1.095,-0.455
5:33:09.324,-1.465,-1.360
5:33:09.328,-1.775,-2.345
5:33:09.332,-2.035,-2.770
5:33:09.336,-2.250,-2.790
5:33:09.340,-2.295,-2.685
5:33:09.344,-2.365,-2.535
5:33:09.348,-2.400,-2.415
5:33:09.352,-2.285,-2.215
5:33:09.356,-2.050,-2.000
5:33:09.360,-1.710,-1.785
5:33:09.364,-1.270,-1.540
5:33:09.368,-0.870,-1.305
5:33:09.372,-0.700,-1.055
5:33:09.376,-0.585,-0.865
5:33:09.380,-0.445,-0.760
5:33:09.384,-0.400,-0.680
5:33:09.388,-0.420,-0.675
5:33:09.392,-0.450,-0.640
5:33:09.396,-0.425,-0.640
5:33:09.400,-0.345,-0.660
5:33:09.404,-0.290,-0.665
5:33:09.408,-0.330,-0.675
5:33:09.412,-0.365,-0.685
5:33:09.416,-0.345,-0.645
5:33:09.420,-0.360,-0.670
5:33:09.424,-0.345,-0.665
5:33:09.428,-0.335,-0.655
5:33:09.432,-0.270,-0.685
5:33:09.436,-0.255,-0.665
5:33:09.440,-0.235,-0.665
5:33:09.444,-0.280,-0.680
5:33:09.448,-0.295,-0.670
5:33:09.452,-0.285,-0.640
5:33:09.456,-0.235,-0.630
5:33:09.460,-0.150,-0.640
5:33:09.464,-0.170,-0.595
5:33:09.468,-0.205,-0.610
5:33:09.472,-0.185,-0.640
5:33:09.476,-0.185,-0.600
5:33:09.480,-0.125,-0.595
5:33:09.484,0.010,-0.530
5:33:09.488,0.015,-0.560
5:33:09.492,0.050,-0.550
5:33:09.496,0.125,-0.575
5:33:09.500,0.175,-0.560
5:33:09.504,0.235,-0.590
5:33:09.508,0.245,-0.565
5:33:09.512,0.295,-0.545
5:33:09.516,0.370,-0.570
5:33:09.520,0.445,-0.570
5:33:09.524,0.470,-0.545
5:33:09.528,0.495,-0.550
5:33:09.532,0.560,-0.525
5:33:09.536,0.565,-0.495
5:33:09.540,0.585,-0.475
5:33:09.544,0.625,-0.495
5:33:09.548,0.675,-0.410
5:33:09.552,0.635,-0.410
5:33:09.556,0.675,-0.445
5:33:09.560,0.680,-0.385
5:33:09.564,0.690,-0.370
5:33:09.568,0.715,-0.365
5:33:09.572,0.740,-0.350
5:33:09.576,0.750,-0.300
5:33:09.580,0.740,-0.290
5:33:09.584,0.710,-0.295
5:33:09.588,0.710,-0.290
5:33:09.592,0.645,-0.250
5:33:09.596,0.635,-0.280
5:33:09.600,0.585,-0.255
5:33:09.604,0.500,-0.255
5:33:09.608,0.470,-0.275
5:33:09.612,0.420,-0.270
5:33:09.616,0.325,-0.245
5:33:09.620,0.285,-0.275
5:33:09.624,0.235,-0.280
5:33:09.628,0.190,-0.255
5:33:09.632,0.145,-0.245
5:33:09.636,0.100,-0.255
5:33:09.640,0.050,-0.270
5:33:09.644,0.010,-0.305
5:33:09.648,0.000,-0.325
5:33:09.652,0.005,-0.330
5:33:09.656,-0.040,-0.345
5:33:09.660,-0.070,-0.375
5:33:09.664,-0.060,-0.385
5:33:09.668,-0.090,-0.395
5:33:09.672,-0.105,-0.430
5:33:09.676,-0.095,-0.455
5:33:09.680,-0.120,-0.470
5:33:09.684,-0.080,-0.460
5:33:09.688,-0.115,-0.465
5:33:09.692,-0.100,-0.485
5:33:09.696,-0.090,-0.485
5:33:09.700,-0.120,-0.495
5:33:09.704,-0.105,-0.525
5:33:09.708,-0.115,-0.525
5:33:09.712,-0.105,-0.545
5:33:09.716,-0.120,-0.530
5:33:09.720,-0.095,-0.540
5:33:09.724,-0.115,-0.565
5:33:09.728,-0.115,-0.560
5:33:09.732,-0.045,-0.560
5:33:09.736,-0.030,-0.565
5:33:09.740,-0.120,-0.550
5:33:09.744,-0.020,-0.555
5:33:09.748,-0.025,-0.565
5:33:09.752,-0.110,-0.560
5:33:09.756,-0.130,-0.590
5:33:09.760,-0.120,-0.565
5:33:09.764,-0.105,-0.600
5:33:09.768,-0.090,-0.580
5:33:09.772,-0.025,-0.540
5:33:09.776,-0.025,-0.575
5:33:09.780,-0.020,-0.595
5:33:09.784,-0.060,-0.675
5:33:09.788,-0.040,-0.650
5:33:09.792,-0.010,-0.635
5:33:09.796,-0.025,-0.635
5:33:09.800,-0.080,-0.675
5:33:09.804,-0.085,-0.680
5:33:09.808,-0.070,-0.695
5:33:09.812,-0.075,-0.680
5:33:09.816,-0.090,-0.720
5:33:09.820,-0.095,-0.730
5:33:09.824,-0.120,-0.715
5:33:09.828,-0.110,-0.710
5:33:09.832,-0.095,-0.710
5:33:09.836,-0.125,-0.720
5:33:09.840,-0.140,-0.725
5:33:09.844,-0.165,-0.740
5:33:09.848,-0.170,-0.745
5:33:09.852,-0.150,-0.715
5:33:09.856,-0.160,-0.755
5:33:09.860,-0.200,-0.780
5:33:09.864,-0.200,-0.735
5:33:09.868,-0.165,-0.780
5:33:09.872,-0.150,-0.760
5:33:09.876,-0.180,-0.755
5:33:09.880,-0.170,-0.745
5:33:09.884,-0.180,-0.770
5:33:09.888,-0.155,-0.775
5:33:09.892,-0.155,-0.750
5:33:09.896,-0.130,-0.755
5:33:09.900,-0.175,-0.740
5:33:09.904,-0.155,-0.775
5:33:09.908,-0.160,-0.725
5:33:09.912,-0.130,-0.735
5:33:09.916,-0.150,-0.735
5:33:09.920,-0.145,-0.745
5:33:09.924,-0.145,-0.715
5:33:09.928,-0.155,-0.705
5:33:09.932,-0.135,-0.720
5:33:09.936,-0.155,-0.730
5:33:09.940,-0.145,-0.700
5:33:09.944,-0.125,-0.710
5:33:09.948,-0.100,-0.715
5:33:09.952,-0.090,-0.700
5:33:09.956,-0.105,-0.710
5:33:09.960,-0.120,-0.695
5:33:09.964,-0.125,-0.710
5:33:09.968,-0.145,-0.715
5:33:09.972,-0.110,-0.715
5:33:09.976,-0.125,-0.680
5:33:09.980,-0.105,-0.710
5:33:09.984,-0.115,-0.695
5:33:09.988,-0.130,-0.695
5:33:09.992,-0.080,-0.695
5:33:09.996,-0.070,-0.660
5:33:10.000,-0.080,-0.670
5:33:10.004,-0.070,-0.665
5:33:10.008,-0.055,-0.670
5:33:10.012,-0.030,-0.630
5:33:10.016,-0.050,-0.640
5:33:10.020,-0.120,-0.640
5:33:10.024,-0.240,-0.600
5:33:10.028,-0.385,-0.610
5:33:10.032,-0.530,-0.625
5:33:10.036,-0.585,-0.615
5:33:10.040,-0.445,-0.635
5:33:10.044,-0.205,-0.725
5:33:10.048,0.215,-0.815
5:33:10.052,0.595,-0.900
5:33:10.056,0.730,-0.950
5:33:10.060,0.955,-0.890
5:33:10.064,1.535,-0.950
5:33:10.068,1.920,-0.915
5:33:10.072,1.770,-0.605
5:33:10.076,0.995,-0.185
5:33:10.080,-0.155,-0.015
5:33:10.084,-1.050,-0.585
5:33:10.088,-1.455,-1.550
5:33:10.092,-1.815,-2.275
5:33:10.096,-2.055,-2.475
5:33:10.100,-2.160,-2.345
5:33:10.104,-2.160,-2.185
5:33:10.108,-2.215,-2.090
5:33:10.112,-2.145,-1.930
5:33:10.116,-1.990,-1.730
5:33:10.120,-1.685,-1.590
5:33:10.124,-1.340,-1.500
5:33:10.128,-0.970,-1.405
5:33:10.132,-0.725,-1.215
5:33:10.136,-0.540,-1.020
5:33:10.140,-0.395,-0.870
5:33:10.144,-0.350,-0.830
5:33:10.148,-0.330,-0.785
5:33:10.152,-0.350,-0.700
5:33:10.156,-0.320,-0.715
5:33:10.160,-0.315,-0.730
5:33:10.164,-0.315,-0.760
5:33:10.168,-0.340,-0.710
5:33:10.172,-0.320,-0.730
5:33:10.176,-0.300,-0.745
5:33:10.180,-0.295,-0.760
5:33:10.184,-0.310,-0.750
5:33:10.188,-0.335,-0.755
5:33:10.192,-0.270,-0.730
5:33:10.196,-0.260,-0.720
5:33:10.200,-0.270,-0.735
5:33:10.204,-0.265,-0.720
5:33:10.208,-0.265,-0.745
5:33:10.212,-0.240,-0.705
5:33:10.216,-0.220,-0.745
5:33:10.220,-0.200,-0.740
5:33:10.224,-0.190,-0.750
5:33:10.228,-0.155,-0.765
5:33:10.232,-0.120,-0.705
5:33:10.236,-0.055,-0.720
5:33:10.240,-0.030,-0.695
5:33:10.244,-0.005,-0.675
5:33:10.248,0.055,-0.650
5:33:10.252,0.075,-0.635
5:33:10.256,0.145,-0.655
5:33:10.260,0.195,-0.590
5:33:10.264,0.215,-0.585
5:33:10.268,0.275,-0.565
5:33:10.272,0.310,-0.575
5:33:10.276,0.390,-0.545
5:33:10.280,0.455,-0.500
5:33:10.284,0.510,-0.465
5:33:10.288,0.535,-0.475
5:33:10.292,0.605,-0.435
5:33:10.296,0.650,-0.415
5:33:10.300,0.695,-0.350
5:33:10.304,0.755,-0.365
5:33:10.308,0.745,-0.330
5:33:10.312,0.785,-0.290
5:33:10.316,0.845,-0.280
5:33:10.320,0.865,-0.250
5:33:10.324,0.865,-0.245
5:33:10.328,0.905,-0.230
5:33:10.332,0.910,-0.185
5:33:10.336,0.960,-0.160
5:33:10.340,0.970,-0.140
5:33:10.344,0.965,-0.095
5:33:10.348,0.925,-0.090
5:33:10.352,0.905,-0.090
5:33:10.356,0.895,-0.130
5:33:10.360,0.855,-0.135
5:33:10.364,0.810,-0.145
5:33:10.368,0.745,-0.165
5:33:10.372,0.695,-0.170
5:33:10.376,0.620,-0.160
5:33:10.380,0.580,-0.200
5:33:10.384,0.510,-0.210
5:33:10.388,0.460,-0.240
5:33:10.392,0.420,-0.215
5:33:10.396,0.360,-0.210
5:33:10.400,0.350,-0.225
5:33:10.404,0.325,-0.205
5:33:10.408,0.255,-0.195
5:33:10.412,0.230,-0.195
5:33:10.416,0.190,-0.225
5:33:10.420,0.185,-0.250
5:33:10.424,0.130,-0.260
5:33:10.428,0.095,-0.295
5:33:10.432,0.070,-0.305
5:33:10.436,0.060,-0.335
5:33:10.440,0.065,-0.345
5:33:10.444,0.025,-0.310
5:33:10.448,0.015,-0.345
5:33:10.452,0.000,-0.350
5:33:10.456,0.050,-0.390
5:33:10.460,0.005,-0.415
5:33:10.464,0.035,-0.400
5:33:10.468,-0.010,-0.400
5:33:10.472,-0.005,-0.420
5:33:10.476,-0.020,-0.420
5:33:10.480,0.010,-0.440
5:33:10.484,0.000,-0.450
5:33:10.488,-0.035,-0.490
5:33:10.492,-0.060,-0.500
5:33:10.496,-0.020,-0.500
5:33:10.500,-0.035,-0.540
5:33:10.504,-0.060,-0.530
5:33:10.508,-0.080,-0.550
5:33:10.512,-0.085,-0.570
5:33:10.516,-0.085,-0.565
5:33:10.520,-0.060,-0.595
5:33:10.524,-0.110,-0.615
5:33:10.528,-0.105,-0.585
5:33:10.532,-0.115,-0.625
5:33:10.536,-0.120,-0.640
5:33:10.540,-0.115,-0.630
5:33:10.544,-0.125,-0.620
5:33:10.548,-0.145,-0.625
5:33:10.552,-0.155,-0.665
5:33:10.556,-0.175,-0.680
5:33:10.560,-0.165,-0.645
5:33:10.564,-0.145,-0.675
5:33:10.568,-0.135,-0.685
5:33:10.572,-0.150,-0.670
5:33:10.576,-0.150,-0.675
5:33:10.580,-0.145,-0.695
5:33:10.584,-0.145,-0.670
5:33:10.588,-0.140,-0.695
5:33:10.592,-0.150,-0.695
5:33:10.596,-0.185,-0.670
5:33:10.600,-0.130,-0.680
5:33:10.604,-0.135,-0.640
5:33:10.608,-0.145,-0.655
5:33:10.612,-0.180,-0.610
5:33:10.616,-0.200,-0.625
5:33:10.620,-0.190,-0.640
5:33:10.624,-0.185,-0.665
5:33:10.628,-0.175,-0.625
5:33:10.632,-0.195,-0.620
5:33:10.636,-0.185,-0.645
5:33:10.640,-0.180,-0.625
5:33:10.644,-0.135,-0.620
5:33:10.648,-0.135,-0.605
5:33:10.652,-0.105,-0.600
5:33:10.656,-0.095,-0.630
5:33:10.660,-0.100,-0.660
5:33:10.664,-0.060,-0.690
5:33:10.668,-0.090,-0.690
5:33:10.672,-0.100,-0.730
5:33:10.676,-0.120,-0.740
5:33:10.680,-0.090,-0.760
5:33:10.684,-0.075,-0.715
5:33:10.688,-0.100,-0.710
5:33:10.692,-0.125,-0.730
5:33:10.696,-0.155,-0.705
5:33:10.700,-0.130,-0.720
5:33:10.704,-0.130,-0.735
5:33:10.708,-0.145,-0.735
5:33:10.712,-0.165,-0.715
5:33:10.716,-0.160,-0.705
5:33:10.720,-0.165,-0.680
5:33:10.724,-0.190,-0.685
5:33:10.728,-0.155,-0.705
5:33:10.732,-0.210,-0.715
5:33:10.736,-0.220,-0.720
5:33:10.740,-0.195,-0.690
5:33:10.744,-0.195,-0.700
5:33:10.748,-0.180,-0.745
5:33:10.752,-0.190,-0.705
5:33:10.756,-0.200,-0.715
5:33:10.760,-0.230,-0.690
5:33:10.764,-0.205,-0.700
5:33:10.768,-0.220,-0.695
5:33:10.772,-0.280,-0.715
5:33:10.776,-0.405,-0.740
5:33:10.780,-0.560,-0.740
5:33:10.784,-0.650,-0.715
5:33:10.788,-0.640,-0.755
5:33:10.792,-0.525,-0.790
5:33:10.796,-0.225,-0.855
5:33:10.800,0.210,-0.950
5:33:10.804,0.430,-1.075
5:33:10.808,0.520,-1.005
5:33:10.812,0.905,-0.910
5:33:10.816,1.365,-0.960
5:33:10.820,1.365,-0.795
5:33:10.824,0.775,-0.410
5:33:10.828,-0.200,-0.070
5:33:10.832,-1.085,-0.235
5:33:10.836,-1.520,-1.205
5:33:10.840,-1.845,-2.105
5:33:10.844,-2.135,-2.540
5:33:10.848,-2.275,-2.545
5:33:10.852,-2.350,-2.445
5:33:10.856,-2.415,-2.290
5:33:10.860,-2.385,-2.105
5:33:10.864,-2.260,-1.975
5:33:10.868,-2.040,-1.735
5:33:10.872,-1.705,-1.665
5:33:10.876,-1.285,-1.470
5:33:10.880,-0.940,-1.340
5:33:10.884,-0.745,-1.080
5:33:10.888,-0.595,-0.890
5:33:10.892,-0.510,-0.785
5:33:10.896,-0.490,-0.705
5:33:10.900,-0.475,-0.680
5:33:10.904,-0.460,-0.645
5:33:10.908,-0.430,-0.630
5:33:10.912,-0.445,-0.630
5:33:10.916,-0.460,-0.635
5:33:10.920,-0.455,-0.610
5:33:10.924,-0.385,-0.595
5:33:10.928,-0.370,-0.580
5:33:10.932,-0.385,-0.615
5:33:10.936,-0.370,-0.605
5:33:10.940,-0.320,-0.620
5:33:10.944,-0.320,-0.670
5:33:10.948,-0.335,-0.665
5:33:10.952,-0.305,-0.680
5:33:10.956,-0.290,-0.640
5:33:10.960,-0.290,-0.665
5:33:10.964,-0.260,-0.710
5:33:10.968,-0.240,-0.670
5:33:10.972,-0.225,-0.725
5:33:10.976,-0.250,-0.685
5:33:10.980,-0.200,-0.690
5:33:10.984,-0.205,-0.695
5:33:10.988,-0.160,-0.705
5:33:10.992,-0.160,-0.640
5:33:10.996,-0.120,-0.670
5:33:11.000,-0.100,-0.650
5:33:11.004,-0.055,-0.630
5:33:11.008,-0.010,-0.605
5:33:11.012,0.040,-0.605
5:33:11.016,0.055,-0.575
5:33:11.020,0.095,-0.545
5:33:11.024,0.150,-0.535
5:33:11.028,0.210,-0.485
5:33:11.032,0.225,-0.460
5:33:11.036,0.285,-0.445
5:33:11.040,0.325,-0.400
5:33:11.044,0.360,-0.405
5:33:11.048,0.400,-0.360
5:33:11.052,0.420,-0.340
5:33:11.056,0.455,-0.345
5:33:11.060,0.470,-0.330
5:33:11.064,0.495,-0.310
5:33:11.068,0.520,-0.295
5:33:11.072,0.520,-0.285
5:33:11.076,0.540,-0.260
5:33:11.080,0.550,-0.225
5:33:11.084,0.535,-0.230
5:33:11.088,0.560,-0.255
5:33:11.092,0.565,-0.195
5:33:11.096,0.540,-0.165
5:33:11.100,0.510,-0.150
5:33:11.104,0.500,-0.130
5:33:11.108,0.450,-0.155
5:33:11.112,0.410,-0.135
5:33:11.116,0.375,-0.135
5:33:11.120,0.310,-0.130
5:33:11.124,0.265,-0.150
5:33:11.128,0.210,-0.130
5:33:11.132,0.170,-0.135
5:33:11.136,0.115,-0.130
5:33:11.140,0.070,-0.155
5:33:11.144,0.035,-0.140
5:33:11.148,0.000,-0.175
5:33:11.152,-0.010,-0.175
5:33:11.156,-0.050,-0.165
5:33:11.160,-0.065,-0.160
5:33:11.164,-0.070,-0.185
5:33:11.168,-0.085,-0.175
5:33:11.172,-0.060,-0.220
5:33:11.176,-0.080,-0.235
5:33:11.180,-0.080,-0.270
5:33:11.184,-0.110,-0.250
5:33:11.188,-0.080,-0.265
5:33:11.192,-0.065,-0.240
5:33:11.196,-0.040,-0.235
5:33:11.200,-0.095,-0.225
5:33:11.204,-0.070,-0.240
5:33:11.208,-0.065,-0.250
5:33:11.212,-0.060,-0.250
5:33:11.216,-0.050,-0.230
5:33:11.220,-0.080,-0.240
5:33:11.224,-0.065,-0.235
5:33:11.228,-0.070,-0.270
5:33:11.232,-0.055,-0.255
5:33:11.236,-0.050,-0.290
5:33:11.240,-0.065,-0.320
5:33:11.244,-0.035,-0.365
5:33:11.248,-0.055,-0.385
5:33:11.252,-0.055,-0.425
5:33:11.256,-0.070,-0.435
5:33:11.260,-0.090,-0.465
5:33:11.264,-0.105,-0.525
5:33:11.268,-0.115,-0.525
5:33:11.272,-0.080,-0.540
5:33:11.276,-0.070,-0.565
5:33:11.280,-0.115,-0.570
5:33:11.284,-0.125,-0.560
5:33:11.288,-0.115,-0.580
5:33:11.292,-0.125,-0.625
5:33:11.296,-0.180,-0.615
5:33:11.300,-0.180,-0.615
5:33:11.304,-0.180,-0.605
5:33:11.308,-0.190,-0.625
5:33:11.312,-0.225,-0.630
5:33:11.316,-0.180,-0.635
5:33:11.320,-0.220,-0.655
5:33:11.324,-0.235,-0.680
5:33:11.328,-0.230,-0.655
5:33:11.332,-0.235,-0.680
5:33:11.336,-0.220,-0.670
5:33:11.340,-0.245,-0.675
5:33:11.344,-0.270,-0.705
5:33:11.348,-0.295,-0.680
5:33:11.352,-0.260,-0.675
5:33:11.356,-0.290,-0.705
5:33:11.360,-0.280,-0.700
5:33:11.364,-0.310,-0.705
5:33:11.368,-0.290,-0.700
5:33:11.372,-0.305,-0.700
5:33:11.376,-0.305,-0.715
5:33:11.380,-0.290,-0.735
5:33:11.384,-0.295,-0.710
5:33:11.388,-0.275,-0.710
5:33:11.392,-0.280,-0.705
5:33:11.396,-0.280,-0.720
5:33:11.400,-0.275,-0.715
5:33:11.404,-0.305,-0.735
5:33:11.408,-0.315,-0.720
5:33:11.412,-0.310,-0.710
5:33:11.416,-0.270,-0.715
5:33:11.420,-0.305,-0.700
5:33:11.424,-0.310,-0.695
5:33:11.428,-0.330,-0.710
5:33:11.432,-0.310,-0.695
5:33:11.436,-0.280,-0.685
5:33:11.440,-0.300,-0.680
5:33:11.444,-0.320,-0.700
5:33:11.448,-0.315,-0.705
5:33:11.452,-0.270,-0.720
5:33:11.456,-0.290,-0.700
5:33:11.460,-0.280,-0.715
5:33:11.464,-0.275,-0.730
5:33:11.468,-0.275,-0.700
5:33:11.472,-0.245,-0.675
5:33:11.476,-0.225,-0.685
5:33:11.480,-0.215,-0.660
5:33:11.484,-0.225,-0.640
5:33:11.488,-0.235,-0.645
5:33:11.492,-0.260,-0.635
5:33:11.496,-0.225,-0.620
5:33:11.500,-0.230,-0.600
5:33:11.504,-0.290,-0.635
5:33:11.508,-0.270,-0.595
5:33:11.512,-0.285,-0.605
5:33:11.516,-0.245,-0.620
5:33:11.520,-0.215,-0.660
5:33:11.524,-0.215,-0.620
5:33:11.528,-0.210,-0.625
5:33:11.532,-0.195,-0.630
5:33:11.536,-0.195,-0.655
5:33:11.540,-0.230,-0.650
5:33:11.544,-0.260,-0.655
5:33:11.548,-0.435,-0.720
5:33:11.552,-0.595,-0.705
5:33:11.556,-0.620,-0.735
5:33:11.560,-0.565,-0.775
5:33:11.564,-0.415,-0.815
5:33:11.568,-0.110,-0.915
5:33:11.572,0.290,-1.050
5:33:11.576,0.405,-1.140
5:33:11.580,0.485,-1.070
5:33:11.584,0.915,-1.025
5:33:11.588,1.250,-0.985
5:33:11.592,1.005,-0.710
5:33:11.596,0.345,-0.225
5:33:11.600,-0.465,-0.010
5:33:11.604,-1.085,-0.570
5:33:11.608,-1.460,-1.530
5:33:11.612,-1.810,-2.350
5:33:11.616,-2.050,-2.735
5:33:11.620,-2.215,-2.650
5:33:11.624,-2.260,-2.560
5:33:11.628,-2.350,-2.470
5:33:11.632,-2.385,-2.340
5:33:11.636,-2.250,-2.150
5:33:11.640,-2.030,-1.960
5:33:11.644,-1.680,-1.810
5:33:11.648,-1.315,-1.590
5:33:11.652,-1.035,-1.385
5:33:11.656,-0.815,-1.105
5:33:11.660,-0.675,-0.910
5:33:11.664,-0.615,-0.825
5:33:11.668,-0.565,-0.785
5:33:11.672,-0.575,-0.770
5:33:11.676,-0.590,-0.730
5:33:11.680,-0.530,-0.715
5:33:11.684,-0.520,-0.710
5:33:11.688,-0.490,-0.730
5:33:11.692,-0.515,-0.725
5:33:11.696,-0.505,-0.735
5:33:11.700,-0.480,-0.710
5:33:11.704,-0.510,-0.730
5:33:11.708,-0.500,-0.710
5:33:11.712,-0.530,-0.710
5:33:11.716,-0.525,-0.710
5:33:11.720,-0.485,-0.725
5:33:11.724,-0.470,-0.720
5:33:11.728,-0.435,-0.720
5:33:11.732,-0.445,-0.725
5:33:11.736,-0.420,-0.700
5:33:11.740,-0.400,-0.690
5:33:11.744,-0.355,-0.660
5:33:11.748,-0.335,-0.655
5:33:11.752,-0.315,-0.620
5:33:11.756,-0.280,-0.600
5:33:11.760,-0.225,-0.565
5:33:11.764,-0.175,-0.555
5:33:11.768,-0.160,-0.555
5:33:11.772,-0.150,-0.545
5:33:11.776,-0.090,-0.495
5:33:11.780,-0.070,-0.475
5:33:11.784,0.015,-0.410
5:33:11.788,0.075,-0.420
5:33:11.792,0.090,-0.380
5:33:11.796,0.170,-0.345
5:33:11.800,0.210,-0.315
5:33:11.804,0.290,-0.290
5:33:11.808,0.335,-0.230
5:33:11.812,0.375,-0.235
5:33:11.816,0.425,-0.280
5:33:11.820,0.455,-0.290
5:33:11.824,0.525,-0.275
5:33:11.828,0.515,-0.245
5:33:11.832,0.535,-0.245
5:33:11.836,0.520,-0.250
5:33:11.840,0.570,-0.265
5:33:11.844,0.585,-0.245
5:33:11.848,0.635,-0.205
5:33:11.852,0.630,-0.200
5:33:11.856,0.620,-0.215
5:33:11.860,0.615,-0.170
5:33:11.864,0.630,-0.165
5:33:11.868,0.635,-0.145
5:33:11.872,0.600,-0.170
5:33:11.876,0.545,-0.130
5:33:11.880,0.530,-0.150
5:33:11.884,0.480,-0.140
5:33:11.888,0.435,-0.150
5:33:11.892,0.360,-0.135
5:33:11.896,0.290,-0.135
5:33:11.900,0.230,-0.145
5:33:11.904,0.180,-0.165
5:33:11.908,0.135,-0.180
5:33:11.912,0.075,-0.155
5:33:11.916,0.010,-0.185
5:33:11.920,-0.030,-0.195
5:33:11.924,-0.030,-0.210
5:33:11.928,-0.065,-0.180
5:33:11.932,-0.075,-0.185
5:33:11.936,-0.110,-0.250
5:33:11.940,-0.130,-0.250
5:33:11.944,-0.155,-0.265
5:33:11.948,-0.160,-0.290
5:33:11.952,-0.180,-0.265
5:33:11.956,-0.200,-0.310
5:33:11.960,-0.205,-0.340
5:33:11.964,-0.210,-0.315
5:33:11.968,-0.195,-0.340
5:33:11.972,-0.200,-0.370
5:33:11.976,-0.225,-0.340
5:33:11.980,-0.225,-0.410
5:33:11.984,-0.220,-0.410
5:33:11.988,-0.225,-0.450
5:33:11.992,-0.215,-0.390
5:33:11.996,-0.245,-0.415
5:33:12.000,-0.265,-0.430
5:33:12.004,-0.240,-0.440
5:33:12.008,-0.235,-0.435
5:33:12.012,-0.210,-0.440
5:33:12.016,-0.230,-0.420
5:33:12.020,-0.250,-0.465
5:33:12.024,-0.225,-0.465
5:33:12.028,-0.200,-0.480
5:33:12.032,-0.210,-0.490
5:33:12.036,-0.220,-0.515
5:33:12.040,-0.225,-0.520
5:33:12.044,-0.205,-0.515
5:33:12.048,-0.175,-0.520
5:33:12.052,-0.165,-0.475
5:33:12.056,-0.220,-0.510
5:33:12.060,-0.210,-0.485
5:33:12.064,-0.240,-0.475
5:33:12.068,-0.245,-0.490
5:33:12.072,-0.245,-0.485
5:33:12.076,-0.265,-0.500
5:33:12.080,-0.280,-0.495
5:33:12.084,-0.250,-0.515
5:33:12.088,-0.200,-0.535
5:33:12.092,-0.160,-0.490
5:33:12.096,-0.170,-0.510
5:33:12.100,-0.175,-0.545
5:33:12.104,-0.160,-0.575
5:33:12.108,-0.140,-0.565
5:33:12.112,-0.160,-0.585
5:33:12.116,-0.195,-0.580
5:33:12.120,-0.210,-0.610
5:33:12.124,-0.200,-0.625
5:33:12.128,-0.200,-0.645
5:33:12.132,-0.200,-0.640
5:33:12.136,-0.215,-0.625
5:33:12.140,-0.210,-0.665
5:33:12.144,-0.210,-0.660
5:33:12.148,-0.205,-0.690
5:33:12.152,-0.210,-0.675
5:33:12.156,-0.255,-0.680
5:33:12.160,-0.235,-0.665
5:33:12.164,-0.275,-0.680
5:33:12.168,-0.250,-0.705
5:33:12.172,-0.240,-0.675
5:33:12.176,-0.260,-0.695
5:33:12.180,-0.295,-0.695
5:33:12.184,-0.290,-0.695
5:33:12.188,-0.270,-0.715
5:33:12.192,-0.260,-0.680
5:33:12.196,-0.250,-0.675
5:33:12.200,-0.290,-0.685
5:33:12.204,-0.305,-0.680
5:33:12.208,-0.285,-0.665
5:33:12.212,-0.245,-0.660
5:33:12.216,-0.285,-0.660
5:33:12.220,-0.300,-0.685
5:33:12.224,-0.305,-0.690
5:33:12.228,-0.300,-0.665
5:33:12.232,-0.315,-0.640
5:33:12.236,-0.340,-0.670
5:33:12.240,-0.475,-0.655
5:33:12.244,-0.620,-0.665
5:33:12.248,-0.690,-0.700
5:33:12.252,-0.600,-0.685
5:33:12.256,-0.425,-0.750
5:33:12.260,-0.090,-0.840
5:33:12.264,0.240,-1.005
5:33:12.268,0.250,-1.095
5:33:12.272,0.315,-0.965
5:33:12.276,0.760,-0.950
5:33:12.280,0.925,-0.895
5:33:12.284,0.565,-0.555
5:33:12.288,-0.080,-0.155
5:33:12.292,-0.800,-0.020
5:33:12.296,-1.210,-0.700
5:33:12.300,-1.510,-1.635
5:33:12.304,-1.815,-2.320
5:33:12.308,-2.065,-2.530
5:33:12.312,-2.140,-2.445
5:33:12.316,-2.195,-2.290
5:33:12.320,-2.270,-2.120
5:33:12.324,-2.265,-1.930
5:33:12.328,-2.130,-1.750
5:33:12.332,-1.865,-1.565
5:33:12.336,-1.425,-1.440
5:33:12.340,-1.065,-1.335
5:33:12.344,-0.840,-1.130
5:33:12.348,-0.695,-0.880
5:33:12.352,-0.560,-0.700
5:33:12.356,-0.495,-0.615
5:33:12.360,-0.460,-0.580
5:33:12.364,-0.450,-0.565
5:33:12.368,-0.380,-0.525
5:33:12.372,-0.375,-0.540
5:33:12.376,-0.345,-0.575
5:33:12.380,-0.355,-0.620
5:33:12.384,-0.340,-0.635
5:33:12.388,-0.330,-0.635
5:33:12.392,-0.345,-0.670
5:33:12.396,-0.350,-0.675
5:33:12.400,-0.350,-0.665
5:33:12.404,-0.355,-0.700
5:33:12.408,-0.350,-0.710
5:33:12.412,-0.335,-0.690
5:33:12.416,-0.320,-0.700
5:33:12.420,-0.290,-0.695
5:33:12.424,-0.310,-0.680
5:33:12.428,-0.320,-0.670
5:33:12.432,-0.290,-0.685
5:33:12.436,-0.270,-0.690
5:33:12.440,-0.230,-0.640
5:33:12.444,-0.245,-0.660
5:33:12.448,-0.235,-0.665
5:33:12.452,-0.185,-0.635
5:33:12.456,-0.145,-0.615
5:33:12.460,-0.120,-0.625
5:33:12.464,-0.105,-0.590
5:33:12.468,-0.070,-0.545
5:33:12.472,-0.015,-0.525
5:33:12.476,0.015,-0.530
5:33:12.480,0.075,-0.480
5:33:12.484,0.150,-0.445
5:33:12.488,0.155,-0.420
5:33:12.492,0.195,-0.435
5:33:12.496,0.270,-0.365
5:33:12.500,0.335,-0.345
5:33:12.504,0.370,-0.355
5:33:12.508,0.390,-0.290
5:33:12.512,0.435,-0.300
5:33:12.516,0.430,-0.255
5:33:12.520,0.475,-0.235
5:33:12.524,0.495,-0.235
5:33:12.528,0.510,-0.225
5:33:12.532,0.525,-0.235
5:33:12.536,0.555,-0.230
5:33:12.540,0.570,-0.180
5:33:12.544,0.565,-0.205
5:33:12.548,0.580,-0.150
5:33:12.552,0.580,-0.150
5:33:12.556,0.575,-0.125
5:33:12.560,0.585,-0.130
5:33:12.564,0.560,-0.095
5:33:12.568,0.510,-0.105
5:33:12.572,0.450,-0.100
5:33:12.576,0.425,-0.090
5:33:12.580,0.360,-0.125
5:33:12.584,0.325,-0.110
5:33:12.588,0.270,-0.140
5:33:12.592,0.200,-0.135
5:33:12.596,0.165,-0.095
5:33:12.600,0.105,-0.115
5:33:12.604,0.050,-0.125
5:33:12.608,0.030,-0.120
5:33:12.612,0.005,-0.120
5:33:12.616,0.010,-0.170
5:33:12.620,0.020,-0.150
5:33:12.624,0.015,-0.130
5:33:12.628,-0.015,-0.160
5:33:12.632,-0.005,-0.220
5:33:12.636,-0.040,-0.275
5:33:12.640,-0.045,-0.265
5:33:12.644,-0.050,-0.280
5:33:12.648,-0.090,-0.300
5:33:12.652,-0.105,-0.305
5:33:12.656,-0.135,-0.350
5:33:12.660,-0.125,-0.360
5:33:12.664,-0.110,-0.395
5:33:12.668,-0.130,-0.405
5:33:12.672,-0.160,-0.435
5:33:12.676,-0.145,-0.465
5:33:12.680,-0.135,-0.470
5:33:12.684,-0.145,-0.495
5:33:12.688,-0.150,-0.485
5:33:12.692,-0.165,-0.500
5:33:12.696,-0.190,-0.495
5:33:12.700,-0.175,-0.505
5:33:12.704,-0.190,-0.530
5:33:12.708,-0.210,-0.560
5:33:12.712,-0.200,-0.590
5:33:12.716,-0.210,-0.580
5:33:12.720,-0.215,-0.625
5:33:12.724,-0.190,-0.610
5:33:12.728,-0.205,-0.610
5:33:12.732,-0.225,-0.590
5:33:12.736,-0.245,-0.640
5:33:12.740,-0.220,-0.655
5:33:12.744,-0.255,-0.645
5:33:12.748,-0.255,-0.630
5:33:12.752,-0.275,-0.645
5:33:12.756,-0.275,-0.645
5:33:12.760,-0.285,-0.655
5:33:12.764,-0.270,-0.660
5:33:12.768,-0.235,-0.640
5:33:12.772,-0.280,-0.660
5:33:12.776,-0.265,-0.680
5:33:12.780,-0.285,-0.685
5:33:12.784,-0.250,-0.695
5:33:12.788,-0.255,-0.685
5:33:12.792,-0.290,-0.675
5:33:12.796,-0.285,-0.660
5:33:12.800,-0.265,-0.640
5:33:12.804,-0.270,-0.640
5:33:12.808,-0.255,-0.675
5:33:12.812,-0.255,-0.635
5:33:12.816,-0.250,-0.620
5:33:12.820,-0.250,-0.605
5:33:12.824,-0.230,-0.545
5:33:12.828,-0.235,-0.615
5:33:12.832,-0.275,-0.585
5:33:12.836,-0.260,-0.590
5:33:12.840,-0.245,-0.585
5:33:12.844,-0.245,-0.565
5:33:12.848,-0.255,-0.600
5:33:12.852,-0.260,-0.600
5:33:12.856,-0.265,-0.560
5:33:12.860,-0.255,-0.570
5:33:12.864,-0.210,-0.595
5:33:12.868,-0.205,-0.545
5:33:12.872,-0.205,-0.565
5:33:12.876,-0.215,-0.520
5:33:12.880,-0.240,-0.525
5:33:12.884,-0.275,-0.525
5:33:12.888,-0.310,-0.555
5:33:12.892,-0.295,-0.565
5:33:12.896,-0.320,-0.560
5:33:12.900,-0.305,-0.570
5:33:12.904,-0.275,-0.590
5:33:12.908,-0.225,-0.585
5:33:12.912,-0.200,-0.575
5:33:12.916,-0.220,-0.590
5:33:12.920,-0.205,-0.600
5:33:12.924,-0.170,-0.620
5:33:12.928,-0.180,-0.645
5:33:12.932,-0.205,-0.690
5:33:12.936,-0.235,-0.680
5:33:12.940,-0.240,-0.675
5:33:12.944,-0.215,-0.715
5:33:12.948,-0.230,-0.735
5:33:12.952,-0.225,-0.710
5:33:12.956,-0.240,-0.735
5:33:12.960,-0.235,-0.750
5:33:12.964,-0.225,-0.730
5:33:12.968,-0.205,-0.720
5:33:12.972,-0.220,-0.730
5:33:12.976,-0.240,-0.740
5:33:12.980,-0.250,-0.765
5:33:12.984,-0.230,-0.740
5:33:12.988,-0.255,-0.740
5:33:12.992,-0.255,-0.740
5:33:12.996,-0.260,-0.770
5:33:13.000,-0.280,-0.780
5:33:13.004,-0.275,-0.755
5:33:13.008,-0.260,-0.755
5:33:13.012,-0.240,-0.730
5:33:13.016,-0.245,-0.750
5:33:13.020,-0.265,-0.785
5:33:13.024,-0.260,-0.765
5:33:13.028,-0.235,-0.770
5:33:13.032,-0.260,-0.750
5:33:13.036,-0.260,-0.770
5:33:13.040,-0.295,-0.745
5:33:13.044,-0.285,-0.760
5:33:13.048,-0.300,-0.770
5:33:13.052,-0.325,-0.750
5:33:13.056,-0.415,-0.775
5:33:13.060,-0.560,-0.750
5:33:13.064,-0.690,-0.740
5:33:13.068,-0.700,-0.740
5:33:13.072,-0.590,-0.765
5:33:13.076,-0.405,-0.780
5:33:13.080,0.000,-0.900
5:33:13.084,0.350,-1.050
5:33:13.088,0.460,-1.040
5:33:13.092,0.695,-0.960
5:33:13.096,1.270,-0.980
5:33:13.100,1.660,-0.980
5:33:13.104,1.465,-0.650
5:33:13.108,0.745,-0.225
5:33:13.112,-0.335,0.000
5:33:13.116,-1.155,-0.620
5:33:13.120,-1.600,-1.575
5:33:13.124,-1.955,-2.275
5:33:13.128,-2.155,-2.470
5:33:13.132,-2.245,-2.380
5:33:13.136,-2.265,-2.170
5:33:13.140,-2.330,-1.995
5:33:13.144,-2.185,-1.845
5:33:13.148,-1.990,-1.660
5:33:13.152,-1.680,-1.515
5:33:13.156,-1.310,-1.365
5:33:13.160,-0.965,-1.285
5:33:13.164,-0.740,-1.090
5:33:13.168,-0.595,-0.825
5:33:13.172,-0.465,-0.665
5:33:13.176,-0.430,-0.585
5:33:13.180,-0.400,-0.585
5:33:13.184,-0.385,-0.555
5:33:13.188,-0.335,-0.520
5:33:13.192,-0.280,-0.520
5:33:13.196,-0.295,-0.535
5:33:13.200,-0.290,-0.585
5:33:13.204,-0.310,-0.610
5:33:13.208,-0.310,-0.635
5:33:13.212,-0.285,-0.635
5:33:13.216,-0.315,-0.620
5:33:13.220,-0.290,-0.680
5:33:13.224,-0.305,-0.695
5:33:13.228,-0.290,-0.720
5:33:13.232,-0.280,-0.675
5:33:13.236,-0.265,-0.730
5:33:13.240,-0.245,-0.725
5:33:13.244,-0.275,-0.730
5:33:13.248,-0.265,-0.700
5:33:13.252,-0.235,-0.740
5:33:13.256,-0.240,-0.740
5:33:13.260,-0.245,-0.730
5:33:13.264,-0.250,-0.685
5:33:13.268,-0.225,-0.705
5:33:13.272,-0.180,-0.710
5:33:13.276,-0.150,-0.700
5:33:13.280,-0.125,-0.690
5:33:13.284,-0.100,-0.675
5:33:13.288,-0.055,-0.665
5:33:13.292,0.025,-0.630
5:33:13.296,0.035,-0.615
5:33:13.300,0.075,-0.605
5:33:13.304,0.135,-0.570
5:33:13.308,0.195,-0.545
5:33:13.312,0.230,-0.535
5:33:13.316,0.280,-0.510
5:33:13.320,0.355,-0.505
5:33:13.324,0.390,-0.485
5:33:13.328,0.415,-0.490
5:33:13.332,0.470,-0.430
5:33:13.336,0.520,-0.440
5:33:13.340,0.505,-0.405
5:33:13.344,0.510,-0.415
5:33:13.348,0.555,-0.380
5:33:13.352,0.575,-0.360
5:33:13.356,0.615,-0.330
5:33:13.360,0.630,-0.330
5:33:13.364,0.635,-0.320
5:33:13.368,0.675,-0.295
5:33:13.372,0.695,-0.260
5:33:13.376,0.690,-0.250
5:33:13.380,0.650,-0.235
5:33:13.384,0.655,-0.185
5:33:13.388,0.615,-0.190
5:33:13.392,0.575,-0.205
5:33:13.396,0.515,-0.205
5:33:13.400,0.470,-0.185
5:33:13.404,0.425,-0.175
5:33:13.408,0.365,-0.195
5:33:13.412,0.310,-0.160
5:33:13.416,0.270,-0.125
5:33:13.420,0.250,-0.125
5:33:13.424,0.210,-0.095
5:33:13.428,0.155,-0.080
5:33:13.432,0.135,-0.110
5:33:13.436,0.100,-0.115
5:33:13.440,0.040,-0.135
5:33:13.444,0.030,-0.120
5:33:13.448,0.030,-0.140
5:33:13.452,0.040,-0.145
5:33:13.456,0.045,-0.135
5:33:13.460,0.015,-0.185
5:33:13.464,0.025,-0.230
5:33:13.468,0.025,-0.255
5:33:13.472,0.055,-0.265
5:33:13.476,0.035,-0.255
5:33:13.480,0.025,-0.265
5:33:13.484,0.000,-0.305
5:33:13.488,-0.030,-0.350
5:33:13.492,-0.010,-0.345
5:33:13.496,0.010,-0.390
5:33:13.500,0.005,-0.395
5:33:13.504,-0.020,-0.420
5:33:13.508,-0.015,-0.425
5:33:13.512,-0.030,-0.445
5:33:13.516,-0.035,-0.450
5:33:13.520,-0.055,-0.465
5:33:13.524,-0.060,-0.480
5:33:13.528,-0.080,-0.495
5:33:13.532,-0.080,-0.500
5:33:13.536,-0.100,-0.525
5:33:13.540,-0.125,-0.525
5:33:13.544,-0.125,-0.580
5:33:13.548,-0.140,-0.525
5:33:13.552,-0.145,-0.545
5:33:13.556,-0.135,-0.590
5:33:13.560,-0.130,-0.610
5:33:13.564,-0.150,-0.615
5:33:13.568,-0.170,-0.600
5:33:13.572,-0.155,-0.635
5:33:13.576,-0.200,-0.630
5:33:13.580,-0.205,-0.655
5:33:13.584,-0.205,-0.650
5:33:13.588,-0.240,-0.685
5:33:13.592,-0.210,-0.665
5:33:13.596,-0.205,-0.705
5:33:13.600,-0.210,-0.710
5:33:13.604,-0.250,-0.710
5:33:13.608,-0.260,-0.695
5:33:13.612,-0.280,-0.740
5:33:13.616,-0.265,-0.710
5:33:13.620,-0.280,-0.735
5:33:13.624,-0.290,-0.745
5:33:13.628,-0.305,-0.740
5:33:13.632,-0.255,-0.695
5:33:13.636,-0.245,-0.720
5:33:13.640,-0.265,-0.745
5:33:13.644,-0.285,-0.765
5:33:13.648,-0.305,-0.745
5:33:13.652,-0.300,-0.720
5:33:13.656,-0.290,-0.750
5:33:13.660,-0.275,-0.745
5:33:13.664,-0.305,-0.730
5:33:13.668,-0.300,-0.745
5:33:13.672,-0.280,-0.740
5:33:13.676,-0.255,-0.725
5:33:13.680,-0.230,-0.720
5:33:13.684,-0.245,-0.690
5:33:13.688,-0.225,-0.650
5:33:13.692,-0.200,-0.645
5:33:13.696,-0.170,-0.665
5:33:13.700,-0.180,-0.635
5:33:13.704,-0.225,-0.630
5:33:13.708,-0.220,-0.615
5:33:13.712,-0.200,-0.595
5:33:13.716,-0.225,-0.615
5:33:13.720,-0.230,-0.595
5:33:13.724,-0.245,-0.585
5:33:13.728,-0.240,-0.600
5:33:13.732,-0.205,-0.625
5:33:13.736,-0.160,-0.570
5:33:13.740,-0.140,-0.590
5:33:13.744,-0.130,-0.610
5:33:13.748,-0.170,-0.635
5:33:13.752,-0.145,-0.655
5:33:13.756,-0.160,-0.660
5:33:13.760,-0.180,-0.650
5:33:13.764,-0.210,-0.710
5:33:13.768,-0.230,-0.690
5:33:13.772,-0.225,-0.720
5:33:13.776,-0.225,-0.715
5:33:13.780,-0.210,-0.735
5:33:13.784,-0.260,-0.695
5:33:13.788,-0.230,-0.735
5:33:13.792,-0.215,-0.715
5:33:13.796,-0.225,-0.685
5:33:13.800,-0.245,-0.750
5:33:13.804,-0.270,-0.785
5:33:13.808,-0.260,-0.755
5:33:13.812,-0.265,-0.745
5:33:13.816,-0.270,-0.745
5:33:13.820,-0.265,-0.765
5:33:13.824,-0.305,-0.745
5:33:13.828,-0.300,-0.745
5:33:13.832,-0.330,-0.735
5:33:13.836,-0.300,-0.735
5:33:13.840,-0.280,-0.735
5:33:13.844,-0.280,-0.710
5:33:13.848,-0.285,-0.725
5:33:13.852,-0.320,-0.760
5:33:13.856,-0.320,-0.745
5:33:13.860,-0.315,-0.770
5:33:13.864,-0.340,-0.745
5:33:13.868,-0.385,-0.775
5:33:13.872,-0.490,-0.730
5:33:13.876,-0.665,-0.740
5:33:13.880,-0.765,-0.750
5:33:13.884,-0.720,-0.750
5:33:13.888,-0.610,-0.785
5:33:13.892,-0.280,-0.855
5:33:13.896,0.165,-0.965
5:33:13.900,0.390,-1.065
5:33:13.904,0.500,-0.985
5:33:13.908,0.965,-0.945
5:33:13.912,1.455,-0.970
5:33:13.916,1.435,-0.745
5:33:13.920,0.835,-0.320
5:33:13.924,-0.220,-0.020
5:33:13.928,-1.180,-0.390
5:33:13.932,-1.615,-1.385
5:33:13.936,-1.990,-2.240
5:33:13.940,-2.260,-2.570
5:33:13.944,-2.390,-2.570
5:33:13.948,-2.390,-2.450
5:33:13.952,-2.450,-2.280
5:33:13.956,-2.385,-2.120
5:33:13.960,-2.240,-1.930
5:33:13.964,-2.020,-1.740
5:33:13.968,-1.620,-1.660
5:33:13.972,-1.175,-1.455
5:33:13.976,-0.895,-1.225
5:33:13.980,-0.700,-0.990
5:33:13.984,-0.620,-0.795
5:33:13.988,-0.600,-0.710
5:33:13.992,-0.565,-0.685
5:33:13.996,-0.575,-0.615
5:33:14.000,-0.525,-0.620
5:33:14.004,-0.500,-0.585
5:33:14.008,-0.470,-0.600
5:33:14.012,-0.450,-0.640
5:33:14.016,-0.445,-0.640
5:33:14.020,-0.395,-0.645
5:33:14.024,-0.390,-0.675
5:33:14.028,-0.455,-0.720
5:33:14.032,-0.435,-0.745
5:33:14.036,-0.430,-0.695
5:33:14.040,-0.420,-0.720
5:33:14.044,-0.405,-0.725
5:33:14.048,-0.440,-0.745
5:33:14.052,-0.460,-0.765
5:33:14.056,-0.400,-0.740
5:33:14.060,-0.390,-0.760
5:33:14.064,-0.390,-0.740
5:33:14.068,-0.410,-0.765
5:33:14.072,-0.410,-0.780
5:33:14.076,-0.360,-0.755
5:33:14.080,-0.320,-0.780
5:33:14.084,-0.320,-0.735
5:33:14.088,-0.330,-0.735
5:33:14.092,-0.310,-0.700
5:33:14.096,-0.260,-0.675
5:33:14.100,-0.220,-0.675
5:33:14.104,-0.185,-0.655
5:33:14.108,-0.140,-0.630
5:33:14.112,-0.140,-0.590
5:33:14.116,-0.050,-0.585
5:33:14.120,0.005,-0.560
5:33:14.124,0.030,-0.540
5:33:14.128,0.040,-0.530
5:33:14.132,0.105,-0.515
5:33:14.136,0.170,-0.450
5:33:14.140,0.200,-0.420
5:33:14.144,0.250,-0.400
5:33:14.148,0.270,-0.380
5:33:14.152,0.285,-0.375
5:33:14.156,0.330,-0.355
5:33:14.160,0.350,-0.355
5:33:14.164,0.380,-0.315
5:33:14.168,0.370,-0.330
5:33:14.172,0.375,-0.295
5:33:14.176,0.385,-0.285
5:33:14.180,0.415,-0.225
5:33:14.184,0.445,-0.210
5:33:14.188,0.410,-0.250
5:33:14.192,0.420,-0.225
5:33:14.196,0.400,-0.200
5:33:14.200,0.370,-0.150
5:33:14.204,0.355,-0.170
5:33:14.208,0.300,-0.170
5:33:14.212,0.235,-0.150
5:33:14.216,0.185,-0.165
5:33:14.220,0.155,-0.190
5:33:14.224,0.110,-0.155
5:33:14.228,0.050,-0.190
5:33:14.232,0.020,-0.165
5:33:14.236,-0.010,-0.195
5:33:14.240,-0.030,-0.110
5:33:14.244,-0.030,-0.115
5:33:14.248,-0.040,-0.075
5:33:14.252,-0.080,-0.115
5:33:14.256,-0.115,-0.095
5:33:14.260,-0.115,-0.040
5:33:14.264,-0.155,-0.050
5:33:14.268,-0.180,-0.110
5:33:14.272,-0.165,-0.125
5:33:14.276,-0.150,-0.155
5:33:14.280,-0.145,-0.175
5:33:14.284,-0.115,-0.195
5:33:14.288,-0.135,-0.200
5:33:14.292,-0.150,-0.220
5:33:14.296,-0.110,-0.275
5:33:14.300,-0.115,-0.275
5:33:14.304,-0.125,-0.280
5:33:14.308,-0.125,-0.300
5:33:14.312,-0.175,-0.320
5:33:14.316,-0.150,-0.345
5:33:14.320,-0.140,-0.365
5:33:14.324,-0.120,-0.360
5:33:14.328,-0.150,-0.410
5:33:14.332,-0.140,-0.405
5:33:14.336,-0.175,-0.420
5:33:14.340,-0.140,-0.430
5:33:14.344,-0.155,-0.455
5:33:14.348,-0.200,-0.470
5:33:14.352,-0.185,-0.485
5:33:14.356,-0.215,-0.495
5:33:14.360,-0.160,-0.530
5:33:14.364,-0.210,-0.545
5:33:14.368,-0.250,-0.535
5:33:14.372,-0.280,-0.545
5:33:14.376,-0.250,-0.550
5:33:14.380,-0.250,-0.575
5:33:14.384,-0.265,-0.580
5:33:14.388,-0.285,-0.585
5:33:14.392,-0.300,-0.585
5:33:14.396,-0.305,-0.640
5:33:14.400,-0.285,-0.625
5:33:14.404,-0.300,-0.655
5:33:14.408,-0.290,-0.670
5:33:14.412,-0.315,-0.625
5:33:14.416,-0.320,-0.660
5:33:14.420,-0.300,-0.665
5:33:14.424,-0.300,-0.670
5:33:14.428,-0.340,-0.670
5:33:14.432,-0.320,-0.685
5:33:14.436,-0.355,-0.645
5:33:14.440,-0.330,-0.685
5:33:14.444,-0.340,-0.680
5:33:14.448,-0.340,-0.665
5:33:14.452,-0.345,-0.660
5:33:14.456,-0.330,-0.680
5:33:14.460,-0.325,-0.695
5:33:14.464,-0.345,-0.660
5:33:14.468,-0.355,-0.650
5:33:14.472,-0.375,-0.630
5:33:14.476,-0.380,-0.675
5:33:14.480,-0.355,-0.650
5:33:14.484,-0.340,-0.660
5:33:14.488,-0.340,-0.660
5:33:14.492,-0.340,-0.645
5:33:14.496,-0.360,-0.630
5:33:14.500,-0.350,-0.635
5:33:14.504,-0.315,-0.630
5:33:14.508,-0.295,-0.615
5:33:14.512,-0.325,-0.605
5:33:14.516,-0.280,-0.595
5:33:14.520,-0.305,-0.550
5:33:14.524,-0.290,-0.545
5:33:14.528,-0.315,-0.540
5:33:14.532,-0.305,-0.510
5:33:14.536,-0.340,-0.550
5:33:14.540,-0.290,-0.555
5:33:14.544,-0.240,-0.555
5:33:14.548,-0.265,-0.545
5:33:14.552,-0.280,-0.575
5:33:14.556,-0.290,-0.565
5:33:14.560,-0.275,-0.610
5:33:14.564,-0.265,-0.620
5:33:14.568,-0.255,-0.635
5:33:14.572,-0.305,-0.640
5:33:14.576,-0.330,-0.675
5:33:14.580,-0.320,-0.645
5:33:14.584,-0.300,-0.690
5:33:14.588,-0.325,-0.695
5:33:14.592,-0.315,-0.710
5:33:14.596,-0.325,-0.720
5:33:14.600,-0.330,-0.695
5:33:14.604,-0.325,-0.675
5:33:14.608,-0.370,-0.670
5:33:14.612,-0.370,-0.690
5:33:14.616,-0.390,-0.690
5:33:14.620,-0.400,-0.680
5:33:14.624,-0.400,-0.705
5:33:14.628,-0.365,-0.695
5:33:14.632,-0.400,-0.705
5:33:14.636,-0.455,-0.680
5:33:14.640,-0.560,-0.690
5:33:14.644,-0.720,-0.735
5:33:14.648,-0.780,-0.730
5:33:14.652,-0.760,-0.735
5:33:14.656,-0.595,-0.800
5:33:14.660,-0.340,-0.900
5:33:14.664,0.100,-1.025
5:33:14.668,0.310,-1.095
5:33:14.672,0.395,-0.965
5:33:14.676,0.860,-0.910
5:33:14.680,1.235,-0.880
5:33:14.684,1.120,-0.625
5:33:14.688,0.515,-0.165
5:33:14.692,-0.395,0.105
5:33:14.696,-1.125,-0.255
5:33:14.700,-1.545,-1.280
5:33:14.704,-1.835,-2.200
5:33:14.708,-2.170,-2.595
5:33:14.712,-2.375,-2.595
5:33:14.716,-2.430,-2.500
5:33:14.720,-2.540,-2.375
5:33:14.724,-2.500,-2.155
5:33:14.728,-2.335,-1.975
5:33:14.732,-2.085,-1.720
5:33:14.736,-1.680,-1.625
5:33:14.740,-1.290,-1.455
5:33:14.744,-1.000,-1.200
5:33:14.748,-0.810,-0.945
5:33:14.752,-0.670,-0.805
5:33:14.756,-0.635,-0.735
5:33:14.760,-0.600,-0.660
5:33:14.764,-0.570,-0.610
5:33:14.768,-0.545,-0.615
5:33:14.772,-0.535,-0.620
5:33:14.776,-0.515,-0.605
5:33:14.780,-0.515,-0.565
5:33:14.784,-0.495,-0.505
5:33:14.788,-0.490,-0.520
5:33:14.792,-0.460,-0.485
5:33:14.796,-0.460,-0.450
5:33:14.800,-0.440,-0.460
5:33:14.804,-0.400,-0.485
5:33:14.808,-0.405,-0.500
5:33:14.812,-0.390,-0.485
5:33:14.816,-0.395,-0.485
5:33:14.820,-0.425,-0.530
5:33:14.824,-0.400,-0.575
5:33:14.828,-0.375,-0.545
5:33:14.832,-0.350,-0.570
5:33:14.836,-0.360,-0.565
5:33:14.840,-0.320,-0.605
5:33:14.844,-0.300,-0.615
5:33:14.848,-0.290,-0.605
5:33:14.852,-0.245,-0.625
5:33:14.856,-0.245,-0.585
5:33:14.860,-0.240,-0.590
5:33:14.864,-0.145,-0.545
5:33:14.868,-0.070,-0.580
5:33:14.872,-0.055,-0.540
5:33:14.876,-0.025,-0.565
5:33:14.880,0.030,-0.485
5:33:14.884,0.075,-0.480
5:33:14.888,0.165,-0.440
5:33:14.892,0.190,-0.420
5:33:14.896,0.225,-0.365
5:33:14.900,0.270,-0.395
5:33:14.904,0.360,-0.315
5:33:14.908,0.370,-0.330
5:33:14.912,0.370,-0.290
5:33:14.916,0.370,-0.270
5:33:14.920,0.415,-0.260
5:33:14.924,0.445,-0.305
5:33:14.928,0.455,-0.265
5:33:14.932,0.520,-0.240
5:33:14.936,0.530,-0.235
5:33:14.940,0.545,-0.210
5:33:14.944,0.560,-0.180
5:33:14.948,0.550,-0.175
5:33:14.952,0.560,-0.160
5:33:14.956,0.545,-0.120
5:33:14.960,0.505,-0.115
5:33:14.964,0.495,-0.140
5:33:14.968,0.460,-0.130
5:33:14.972,0.415,-0.095
5:33:14.976,0.350,-0.140
5:33:14.980,0.275,-0.130
5:33:14.984,0.200,-0.145
5:33:14.988,0.165,-0.125
5:33:14.992,0.140,-0.110
5:33:14.996,0.055,-0.155
5:33:15.000,0.030,-0.195
5:33:15.004,-0.050,-0.175
5:33:15.008,-0.055,-0.160
5:33:15.012,-0.100,-0.175
5:33:15.016,-0.120,-0.175
5:33:15.020,-0.145,-0.170
5:33:15.024,-0.160,-0.160
5:33:15.028,-0.155,-0.200
5:33:15.032,-0.145,-0.210
5:33:15.036,-0.160,-0.220
5:33:15.040,-0.180,-0.220
5:33:15.044,-0.215,-0.230
5:33:15.048,-0.195,-0.270
5:33:15.052,-0.175,-0.255
5:33:15.056,-0.225,-0.235
5:33:15.060,-0.210,-0.240
5:33:15.064,-0.180,-0.255
5:33:15.068,-0.170,-0.275
5:33:15.072,-0.170,-0.230
5:33:15.076,-0.120,-0.200
5:33:15.080,-0.135,-0.175
5:33:15.084,-0.140,-0.215
5:33:15.088,-0.125,-0.210
5:33:15.092,-0.090,-0.200
5:33:15.096,-0.090,-0.195
5:33:15.100,-0.070,-0.195
5:33:15.104,-0.105,-0.245
5:33:15.108,-0.080,-0.305
5:33:15.112,-0.085,-0.350
5:33:15.116,-0.065,-0.345
5:33:15.120,-0.120,-0.360
5:33:15.124,-0.125,-0.370
5:33:15.128,-0.130,-0.380
5:33:15.132,-0.115,-0.375
5:33:15.136,-0.120,-0.425
5:33:15.140,-0.140,-0.475
5:33:15.144,-0.170,-0.500
5:33:15.148,-0.160,-0.530
5:33:15.152,-0.150,-0.540
5:33:15.156,-0.170,-0.545
5:33:15.160,-0.190,-0.535
5:33:15.164,-0.185,-0.555
5:33:15.168,-0.230,-0.560
5:33:15.172,-0.230,-0.540
5:33:15.176,-0.215,-0.580
5:33:15.180,-0.215,-0.580
5:33:15.184,-0.275,-0.605
5:33:15.188,-0.285,-0.590
5:33:15.192,-0.245,-0.590
5:33:15.196,-0.265,-0.560
5:33:15.200,-0.285,-0.610
5:33:15.204,-0.305,-0.600
5:33:15.208,-0.275,-0.600
5:33:15.212,-0.260,-0.605
5:33:15.216,-0.285,-0.630
5:33:15.220,-0.285,-0.610
5:33:15.224,-0.275,-0.610
5:33:15.228,-0.315,-0.615
5:33:15.232,-0.300,-0.600
5:33:15.236,-0.305,-0.635
5:33:15.240,-0.290,-0.610
5:33:15.244,-0.325,-0.595
5:33:15.248,-0.320,-0.625
5:33:15.252,-0.320,-0.615
5:33:15.256,-0.275,-0.625
5:33:15.260,-0.275,-0.585
5:33:15.264,-0.275,-0.600
5:33:15.268,-0.290,-0.635
5:33:15.272,-0.300,-0.615
5:33:15.276,-0.300,-0.600
5:33:15.280,-0.310,-0.580
5:33:15.284,-0.335,-0.600
5:33:15.288,-0.305,-0.595
5:33:15.292,-0.310,-0.605
5:33:15.296,-0.300,-0.565
5:33:15.300,-0.290,-0.630
5:33:15.304,-0.310,-0.575
5:33:15.308,-0.330,-0.575
5:33:15.312,-0.320,-0.590
5:33:15.316,-0.305,-0.580
5:33:15.320,-0.310,-0.595
5:33:15.324,-0.305,-0.585
5:33:15.328,-0.280,-0.600
5:33:15.332,-0.240,-0.565
5:33:15.336,-0.250,-0.575
5:33:15.340,-0.230,-0.570
5:33:15.344,-0.295,-0.560
5:33:15.348,-0.345,-0.545
5:33:15.352,-0.460,-0.505
5:33:15.356,-0.615,-0.510
5:33:15.360,-0.695,-0.520
5:33:15.364,-0.630,-0.530
5:33:15.368,-0.440,-0.590
5:33:15.372,-0.015,-0.670
5:33:15.376,0.460,-0.795
5:33:15.380,0.615,-0.800
5:33:15.384,0.880,-0.735
5:33:15.388,1.475,-0.735
5:33:15.392,1.915,-0.700
5:33:15.396,1.740,-0.330
5:33:15.400,1.000,0.135
5:33:15.404,-0.185,0.245
5:33:15.408,-1.130,-0.480
5:33:15.412,-1.605,-1.450
5:33:15.416,-2.000,-2.190
5:33:15.420,-2.255,-2.360
5:33:15.424,-2.315,-2.335
5:33:15.428,-2.315,-2.210
5:33:15.432,-2.345,-2.080
5:33:15.436,-2.285,-1.915
5:33:15.440,-2.095,-1.725
5:33:15.444,-1.875,-1.655
5:33:15.448,-1.495,-1.520
5:33:15.452,-1.135,-1.380
5:33:15.456,-0.860,-1.190
5:33:15.460,-0.740,-0.965
5:33:15.464,-0.640,-0.840
5:33:15.468,-0.575,-0.755
5:33:15.472,-0.545,-0.695
5:33:15.476,-0.530,-0.690
5:33:15.480,-0.515,-0.655
5:33:15.484,-0.510,-0.680
5:33:15.488,-0.530,-0.690
5:33:15.492,-0.495,-0.700
5:33:15.496,-0.520,-0.670
5:33:15.500,-0.520,-0.690
5:33:15.504,-0.560,-0.655
5:33:15.508,-0.555,-0.670
5:33:15.512,-0.520,-0.685
5:33:15.516,-0.505,-0.695
5:33:15.520,-0.505,-0.680
5:33:15.524,-0.520,-0.705
5:33:15.528,-0.530,-0.700
5:33:15.532,-0.515,-0.690
5:33:15.536,-0.490,-0.715
5:33:15.540,-0.480,-0.695
5:33:15.544,-0.480,-0.685
5:33:15.548,-0.480,-0.680
5:33:15.552,-0.450,-0.650
5:33:15.556,-0.400,-0.645
5:33:15.560,-0.400,-0.680
5:33:15.564,-0.360,-0.660
5:33:15.568,-0.370,-0.640
5:33:15.572,-0.310,-0.620
5:33:15.576,-0.270,-0.600
5:33:15.580,-0.210,-0.575
5:33:15.584,-0.160,-0.550
5:33:15.588,-0.135,-0.530
5:33:15.592,-0.070,-0.520
5:33:15.596,-0.040,-0.495
5:33:15.600,0.025,-0.450
5:33:15.604,0.080,-0.445
5:33:15.608,0.105,-0.410
5:33:15.612,0.165,-0.385
5:33:15.616,0.205,-0.330
5:33:15.620,0.260,-0.320
5:33:15.624,0.325,-0.275
5:33:15.628,0.365,-0.240
5:33:15.632,0.415,-0.240
5:33:15.636,0.440,-0.225
5:33:15.640,0.460,-0.235
5:33:15.644,0.465,-0.250
5:33:15.648,0.495,-0.265
5:33:15.652,0.515,-0.255
5:33:15.656,0.530,-0.255
5:33:15.660,0.515,-0.240
5:33:15.664,0.525,-0.235
5:33:15.668,0.510,-0.225
5:33:15.672,0.465,-0.255
5:33:15.676,0.475,-0.220
5:33:15.680,0.440,-0.230
5:33:15.684,0.390,-0.225
5:33:15.688,0.290,-0.220
5:33:15.692,0.245,-0.220
5:33:15.696,0.180,-0.180
5:33:15.700,0.120,-0.190
5:33:15.704,0.065,-0.200
5:33:15.708,-0.030,-0.220
5:33:15.712,-0.050,-0.230
5:33:15.716,-0.095,-0.245
5:33:15.720,-0.120,-0.215
5:33:15.724,-0.160,-0.225
5:33:15.728,-0.200,-0.235
5:33:15.732,-0.245,-0.220
5:33:15.736,-0.275,-0.245
5:33:15.740,-0.290,-0.245
5:33:15.744,-0.315,-0.270
5:33:15.748,-0.330,-0.280
5:33:15.752,-0.345,-0.310
5:33:15.756,-0.375,-0.305
5:33:15.760,-0.365,-0.310
5:33:15.764,-0.360,-0.310
5:33:15.768,-0.395,-0.340
5:33:15.772,-0.405,-0.340
5:33:15.776,-0.405,-0.325
5:33:15.780,-0.390,-0.355
5:33:15.784,-0.395,-0.370
5:33:15.788,-0.390,-0.370
5:33:15.792,-0.420,-0.375
5:33:15.796,-0.390,-0.380
5:33:15.800,-0.400,-0.390
5:33:15.804,-0.400,-0.410
5:33:15.808,-0.420,-0.410
5:33:15.812,-0.410,-0.390
5:33:15.816,-0.430,-0.450
5:33:15.820,-0.405,-0.425
5:33:15.824,-0.415,-0.420
5:33:15.828,-0.435,-0.445
5:33:15.832,-0.455,-0.460
5:33:15.836,-0.430,-0.495
5:33:15.840,-0.430,-0.475
5:33:15.844,-0.450,-0.495
5:33:15.848,-0.465,-0.535
5:33:15.852,-0.475,-0.495
5:33:15.856,-0.455,-0.505
5:33:15.860,-0.440,-0.500
5:33:15.864,-0.445,-0.505
5:33:15.868,-0.440,-0.505
5:33:15.872,-0.455,-0.520
5:33:15.876,-0.465,-0.530
5:33:15.880,-0.430,-0.540
5:33:15.884,-0.460,-0.535
5:33:15.888,-0.450,-0.535
5:33:15.892,-0.445,-0.535
5:33:15.896,-0.440,-0.540
5:33:15.900,-0.415,-0.525
5:33:15.904,-0.425,-0.515
5:33:15.908,-0.435,-0.515
5:33:15.912,-0.445,-0.475
5:33:15.916,-0.435,-0.470
5:33:15.920,-0.415,-0.455
5:33:15.924,-0.420,-0.465
5:33:15.928,-0.405,-0.470
5:33:15.932,-0.395,-0.535
5:33:15.936,-0.390,-0.495
5:33:15.940,-0.375,-0.510
5:33:15.944,-0.375,-0.530
5:33:15.948,-0.385,-0.540
5:33:15.952,-0.395,-0.550
5:33:15.956,-0.405,-0.555
5:33:15.960,-0.400,-0.570
5:33:15.964,-0.380,-0.585
5:33:15.968,-0.405,-0.625
5:33:15.972,-0.375,-0.620
5:33:15.976,-0.420,-0.635
5:33:15.980,-0.390,-0.610
5:33:15.984,-0.405,-0.625
5:33:15.988,-0.410,-0.620
5:33:15.992,-0.435,-0.650
5:33:15.996,-0.440,-0.650
5:33:16.000,-0.410,-0.675
5:33:16.004,-0.445,-0.605
5:33:16.008,-0.440,-0.645
5:33:16.012,-0.420,-0.640
5:33:16.016,-0.450,-0.645
5:33:16.020,-0.430,-0.635
5:33:16.024,-0.415,-0.640
5:33:16.028,-0.435,-0.645
5:33:16.032,-0.440,-0.645
5:33:16.036,-0.455,-0.635
5:33:16.040,-0.430,-0.630
5:33:16.044,-0.420,-0.610
5:33:16.048,-0.420,-0.610
5:33:16.052,-0.440,-0.640
5:33:16.056,-0.470,-0.660
5:33:16.060,-0.445,-0.655
5:33:16.064,-0.405,-0.640
5:33:16.068,-0.455,-0.635
5:33:16.072,-0.440,-0.640
5:33:16.076,-0.440,-0.610
5:33:16.080,-0.435,-0.625
5:33:16.084,-0.455,-0.615
5:33:16.088,-0.470,-0.630
5:33:16.092,-0.560,-0.650
5:33:16.096,-0.720,-0.625
5:33:16.100,-0.870,-0.640
5:33:16.104,-0.890,-0.650
5:33:16.108,-0.780,-0.680
5:33:16.112,-0.585,-0.750
5:33:16.116,-0.245,-0.815
5:33:16.120,0.075,-0.945
5:33:16.124,0.150,-0.910
5:33:16.128,0.355,-0.790
5:33:16.132,0.930,-0.780
5:33:16.136,1.285,-0.640
5:33:16.140,1.080,-0.265
5:33:16.144,0.340,0.170
5:33:16.148,-0.655,0.280
5:33:16.152,-1.335,-0.445
5:33:16.156,-1.690,-1.450
5:33:16.160,-2.075,-2.160
5:33:16.164,-2.285,-2.365
5:33:16.168,-2.375,-2.305
5:33:16.172,-2.435,-2.225
5:33:16.176,-2.510,-2.045
5:33:16.180,-2.450,-1.855
5:33:16.184,-2.220,-1.610
5:33:16.188,-1.875,-1.480
5:33:16.192,-1.490,-1.340
5:33:16.196,-1.205,-1.175
5:33:16.200,-0.990,-0.970
5:33:16.204,-0.830,-0.725
5:33:16.208,-0.720,-0.615
5:33:16.212,-0.620,-0.585
5:33:16.216,-0.575,-0.545
5:33:16.220,-0.590,-0.515
5:33:16.224,-0.575,-0.530
5:33:16.228,-0.545,-0.505
5:33:16.232,-0.545,-0.555
5:33:16.236,-0.555,-0.555
5:33:16.240,-0.555,-0.580
5:33:16.244,-0.560,-0.630
5:33:16.248,-0.555,-0.620
5:33:16.252,-0.560,-0.610
5:33:16.256,-0.535,-0.605
5:33:16.260,-0.595,-0.630
5:33:16.264,-0.560,-0.635
5:33:16.268,-0.550,-0.650
5:33:16.272,-0.520,-0.630
5:33:16.276,-0.535,-0.635
5:33:16.280,-0.545,-0.630
5:33:16.284,-0.515,-0.650
5:33:16.288,-0.510,-0.665
5:33:16.292,-0.505,-0.655
5:33:16.296,-0.510,-0.635
5:33:16.300,-0.485,-0.640
5:33:16.304,-0.475,-0.640
5:33:16.308,-0.430,-0.595
5:33:16.312,-0.400,-0.620
5:33:16.316,-0.405,-0.570
5:33:16.320,-0.355,-0.580
5:33:16.324,-0.290,-0.565
5:33:16.328,-0.270,-0.545
5:33:16.332,-0.230,-0.510
5:33:16.336,-0.175,-0.500
5:33:16.340,-0.145,-0.465
5:33:16.344,-0.110,-0.435
5:33:16.348,-0.040,-0.415
5:33:16.352,0.010,-0.395
5:33:16.356,0.040,-0.315
5:33:16.360,0.055,-0.300
5:33:16.364,0.120,-0.260
5:33:16.368,0.130,-0.240
5:33:16.372,0.185,-0.245
5:33:16.376,0.195,-0.225
5:33:16.380,0.165,-0.205
5:33:16.384,0.215,-0.225
5:33:16.388,0.250,-0.200
5:33:16.392,0.260,-0.180
5:33:16.396,0.275,-0.145
5:33:16.400,0.285,-0.155
5:33:16.404,0.280,-0.120
5:33:16.408,0.290,-0.095
5:33:16.412,0.295,-0.040
5:33:16.416,0.285,-0.080
5:33:16.420,0.245,-0.025
5:33:16.424,0.215,-0.040
5:33:16.428,0.210,-0.020
5:33:16.432,0.125,-0.045
5:33:16.436,0.090,-0.035
5:33:16.440,0.035,-0.040
5:33:16.444,-0.020,-0.020
5:33:16.448,-0.010,-0.010
5:33:16.452,-0.040,-0.040
5:33:16.456,-0.080,-0.050
5:33:16.460,-0.145,-0.010
5:33:16.464,-0.170,0.005
5:33:16.468,-0.160,0.000
5:33:16.472,-0.145,0.035
5:33:16.476,-0.180,0.025
5:33:16.480,-0.170,0.030
5:33:16.484,-0.210,0.015
5:33:16.488,-0.205,0.010
5:33:16.492,-0.230,-0.070
5:33:16.496,-0.225,-0.105
5:33:16.500,-0.245,-0.180
5:33:16.504,-0.255,-0.180
5:33:16.508,-0.260,-0.225
5:33:16.512,-0.260,-0.240
5:33:16.516,-0.290,-0.250
5:33:16.520,-0.310,-0.250
5:33:16.524,-0.335,-0.305
5:33:16.528,-0.305,-0.330
5:33:16.532,-0.280,-0.395
5:33:16.536,-0.280,-0.380
5:33:16.540,-0.315,-0.435
5:33:16.544,-0.320,-0.420
5:33:16.548,-0.320,-0.430
5:33:16.552,-0.325,-0.435
5:33:16.556,-0.315,-0.430
5:33:16.560,-0.340,-0.475
5:33:16.564,-0.390,-0.465
5:33:16.568,-0.375,-0.490
5:33:16.572,-0.385,-0.485
5:33:16.576,-0.395,-0.505
5:33:16.580,-0.400,-0.505
5:33:16.584,-0.410,-0.555
5:33:16.588,-0.400,-0.585
5:33:16.592,-0.425,-0.595
5:33:16.596,-0.420,-0.600
5:33:16.600,-0.425,-0.605
5:33:16.604,-0.435,-0.600
5:33:16.608,-0.440,-0.615
5:33:16.612,-0.450,-0.585
5:33:16.616,-0.430,-0.605
5:33:16.620,-0.450,-0.600
5:33:16.624,-0.445,-0.630
5:33:16.628,-0.455,-0.620
5:33:16.632,-0.465,-0.625
5:33:16.636,-0.460,-0.615
5:33:16.640,-0.465,-0.620
5:33:16.644,-0.480,-0.645
5:33:16.648,-0.500,-0.670
5:33:16.652,-0.485,-0.640
5:33:16.656,-0.490,-0.635
5:33:16.660,-0.490,-0.635
5:33:16.664,-0.500,-0.625
5:33:16.668,-0.520,-0.610
5:33:16.672,-0.505,-0.645
5:33:16.676,-0.495,-0.675
5:33:16.680,-0.460,-0.635
5:33:16.684,-0.495,-0.630
5:33:16.688,-0.495,-0.665
5:33:16.692,-0.515,-0.690
5:33:16.696,-0.465,-0.675
5:33:16.700,-0.490,-0.670
5:33:16.704,-0.530,-0.670
5:33:16.708,-0.535,-0.675
5:33:16.712,-0.505,-0.640
5:33:16.716,-0.490,-0.660
5:33:16.720,-0.505,-0.660
5:33:16.724,-0.495,-0.655
5:33:16.728,-0.525,-0.630
5:33:16.732,-0.515,-0.655
5:33:16.736,-0.495,-0.680
5:33:16.740,-0.475,-0.680
5:33:16.744,-0.495,-0.660
5:33:16.748,-0.475,-0.680
5:33:16.752,-0.430,-0.655
5:33:16.756,-0.430,-0.625
5:33:16.760,-0.435,-0.640
5:33:16.764,-0.415,-0.590
5:33:16.768,-0.445,-0.575
5:33:16.772,-0.440,-0.600
5:33:16.776,-0.440,-0.585
5:33:16.780,-0.455,-0.550
5:33:16.784,-0.465,-0.590
5:33:16.788,-0.480,-0.580
5:33:16.792,-0.460,-0.560
5:33:16.796,-0.420,-0.580
5:33:16.800,-0.450,-0.585
5:33:16.804,-0.400,-0.595
5:33:16.808,-0.415,-0.605
5:33:16.812,-0.385,-0.630
5:33:16.816,-0.390,-0.605
5:33:16.820,-0.410,-0.640
5:33:16.824,-0.415,-0.670
5:33:16.828,-0.425,-0.690
5:33:16.832,-0.450,-0.680
5:33:16.836,-0.440,-0.700
5:33:16.840,-0.445,-0.740
5:33:16.844,-0.440,-0.740
5:33:16.848,-0.455,-0.750
5:33:16.852,-0.480,-0.750
5:33:16.856,-0.460,-0.730
5:33:16.860,-0.465,-0.730
5:33:16.864,-0.455,-0.710
5:33:16.868,-0.500,-0.735
5:33:16.872,-0.510,-0.730
5:33:16.876,-0.575,-0.735
5:33:16.880,-0.705,-0.745
5:33:16.884,-0.880,-0.745
5:33:16.888,-0.935,-0.750
5:33:16.892,-0.865,-0.790
5:33:16.896,-0.690,-0.855
5:33:16.900,-0.370,-0.925
5:33:16.904,0.015,-1.045
5:33:16.908,0.090,-1.115
5:33:16.912,0.270,-0.995
5:33:16.916,0.760,-1.005
5:33:16.920,1.020,-0.935
5:33:16.924,0.735,-0.620
5:33:16.928,0.010,-0.210
5:33:16.932,-0.845,-0.055
5:33:16.936,-1.405,-0.690
5:33:16.940,-1.730,-1.670
5:33:16.944,-2.095,-2.405
5:33:16.948,-2.400,-2.705
5:33:16.952,-2.510,-2.670
5:33:16.956,-2.500,-2.540
5:33:16.960,-2.610,-2.415
5:33:16.964,-2.640,-2.250
5:33:16.968,-2.520,-2.045
5:33:16.972,-2.290,-1.860
5:33:16.976,-1.885,-1.710
5:33:16.980,-1.490,-1.515
5:33:16.984,-1.190,-1.310
5:33:16.988,-0.975,-1.035
5:33:16.992,-0.850,-0.860
5:33:16.996,-0.770,-0.810
5:33:17.000,-0.745,-0.725
5:33:17.004,-0.725,-0.700
5:33:17.008,-0.720,-0.680
5:33:17.012,-0.730,-0.685
5:33:17.016,-0.715,-0.670
5:33:17.020,-0.700,-0.660
5:33:17.024,-0.680,-0.700
5:33:17.028,-0.675,-0.660
5:33:17.032,-0.650,-0.670
5:33:17.036,-0.635,-0.670
5:33:17.040,-0.600,-0.680
5:33:17.044,-0.550,-0.620
5:33:17.048,-0.570,-0.640
5:33:17.052,-0.580,-0.600
5:33:17.056,-0.555,-0.590
5:33:17.060,-0.565,-0.570
5:33:17.064,-0.540,-0.575
5:33:17.068,-0.540,-0.580
5:33:17.072,-0.525,-0.540
5:33:17.076,-0.520,-0.520
5:33:17.080,-0.465,-0.495
5:33:17.084,-0.430,-0.525
5:33:17.088,-0.380,-0.525
5:33:17.092,-0.395,-0.490
5:33:17.096,-0.365,-0.535
5:33:17.100,-0.290,-0.540
5:33:17.104,-0.270,-0.570
5:33:17.108,-0.250,-0.565
5:33:17.112,-0.240,-0.570
5:33:17.116,-0.200,-0.530
5:33:17.120,-0.110,-0.510
5:33:17.124,-0.065,-0.515
5:33:17.128,-0.025,-0.480
5:33:17.132,0.010,-0.470
5:33:17.136,0.040,-0.460
5:33:17.140,0.105,-0.455
5:33:17.144,0.140,-0.445
5:33:17.148,0.185,-0.425
5:33:17.152,0.205,-0.430
5:33:17.156,0.210,-0.365
5:33:17.160,0.245,-0.375
5:33:17.164,0.260,-0.355
5:33:17.168,0.285,-0.335
5:33:17.172,0.275,-0.330
5:33:17.176,0.285,-0.335
5:33:17.180,0.280,-0.320
5:33:17.184,0.305,-0.310
5:33:17.188,0.325,-0.265
5:33:17.192,0.320,-0.275
5:33:17.196,0.310,-0.240
5:33:17.200,0.315,-0.215
5:33:17.204,0.310,-0.200
5:33:17.208,0.265,-0.180
5:33:17.212,0.230,-0.190
5:33:17.216,0.155,-0.175
5:33:17.220,0.145,-0.190
5:33:17.224,0.140,-0.200
5:33:17.228,0.040,-0.215
5:33:17.232,0.000,-0.185
5:33:17.236,-0.090,-0.180
5:33:17.240,-0.095,-0.210
5:33:17.244,-0.130,-0.225
5:33:17.248,-0.160,-0.215
5:33:17.252,-0.215,-0.195
5:33:17.256,-0.255,-0.225
5:33:17.260,-0.290,-0.205
5:33:17.264,-0.295,-0.200
5:33:17.268,-0.290,-0.220
5:33:17.272,-0.320,-0.235
5:33:17.276,-0.320,-0.210
5:33:17.280,-0.345,-0.250
5:33:17.284,-0.325,-0.235
5:33:17.288,-0.320,-0.230
5:33:17.292,-0.330,-0.280
5:33:17.296,-0.340,-0.300
5:33:17.300,-0.340,-0.300
5:33:17.304,-0.330,-0.305
5:33:17.308,-0.310,-0.315
5:33:17.312,-0.320,-0.315
5:33:17.316,-0.320,-0.295
5:33:17.320,-0.310,-0.270
5:33:17.324,-0.260,-0.280
5:33:17.328,-0.280,-0.255
5:33:17.332,-0.295,-0.285
5:33:17.336,-0.285,-0.270
5:33:17.340,-0.285,-0.290
5:33:17.344,-0.315,-0.275
5:33:17.348,-0.280,-0.275
5:33:17.352,-0.280,-0.300
5:33:17.356,-0.285,-0.350
5:33:17.360,-0.265,-0.365
5:33:17.364,-0.235,-0.365
5:33:17.368,-0.225,-0.380
5:33:17.372,-0.230,-0.430
5:33:17.376,-0.265,-0.420
5:33:17.380,-0.270,-0.455
5:33:17.384,-0.290,-0.480
5:33:17.388,-0.280,-0.545
5:33:17.392,-0.305,-0.570
5:33:17.396,-0.295,-0.560
5:33:17.400,-0.320,-0.565
5:33:17.404,-0.315,-0.570
5:33:17.408,-0.315,-0.590
5:33:17.412,-0.315,-0.600
5:33:17.416,-0.350,-0.615
5:33:17.420,-0.360,-0.615
5:33:17.424,-0.370,-0.660
5:33:17.428,-0.375,-0.670
5:33:17.432,-0.395,-0.660
5:33:17.436,-0.415,-0.655
5:33:17.440,-0.415,-0.650
5:33:17.444,-0.420,-0.640
5:33:17.448,-0.405,-0.700
5:33:17.452,-0.435,-0.695
5:33:17.456,-0.445,-0.690
5:33:17.460,-0.440,-0.645
5:33:17.464,-0.430,-0.680
5:33:17.468,-0.425,-0.680
5:33:17.472,-0.435,-0.695
5:33:17.476,-0.430,-0.690
5:33:17.480,-0.450,-0.695
5:33:17.484,-0.440,-0.700
5:33:17.488,-0.440,-0.675
5:33:17.492,-0.455,-0.690
5:33:17.496,-0.450,-0.660
5:33:17.500,-0.470,-0.695
5:33:17.504,-0.455,-0.700
5:33:17.508,-0.470,-0.700
5:33:17.512,-0.455,-0.690
5:33:17.516,-0.460,-0.705
5:33:17.520,-0.465,-0.710
5:33:17.524,-0.465,-0.710
5:33:17.528,-0.435,-0.695
5:33:17.532,-0.430,-0.695
5:33:17.536,-0.460,-0.705
5:33:17.540,-0.470,-0.690
5:33:17.544,-0.480,-0.675
5:33:17.548,-0.450,-0.675
5:33:17.552,-0.455,-0.695
5:33:17.556,-0.480,-0.715
5:33:17.560,-0.485,-0.675
5:33:17.564,-0.465,-0.670
5:33:17.568,-0.455,-0.665
5:33:17.572,-0.440,-0.650
5:33:17.576,-0.430,-0.660
5:33:17.580,-0.435,-0.635
5:33:17.584,-0.420,-0.620
5:33:17.588,-0.410,-0.600
5:33:17.592,-0.430,-0.570
5:33:17.596,-0.435,-0.570
5:33:17.600,-0.440,-0.595
5:33:17.604,-0.465,-0.605
5:33:17.608,-0.485,-0.605
5:33:17.612,-0.460,-0.575
5:33:17.616,-0.425,-0.580
5:33:17.620,-0.395,-0.605
5:33:17.624,-0.365,-0.595
5:33:17.628,-0.345,-0.570
5:33:17.632,-0.330,-0.605
5:33:17.636,-0.325,-0.625
5:33:17.640,-0.320,-0.690
5:33:17.644,-0.375,-0.675
5:33:17.648,-0.380,-0.690
5:33:17.652,-0.375,-0.695
5:33:17.656,-0.370,-0.685
5:33:17.660,-0.380,-0.685
5:33:17.664,-0.410,-0.710
5:33:17.668,-0.415,-0.695
5:33:17.672,-0.400,-0.730
5:33:17.676,-0.410,-0.720
5:33:17.680,-0.420,-0.735
5:33:17.684,-0.430,-0.720
5:33:17.688,-0.420,-0.720
5:33:17.692,-0.435,-0.710
5:33:17.696,-0.420,-0.745
5:33:17.700,-0.450,-0.760
5:33:17.704,-0.465,-0.755
5:33:17.708,-0.445,-0.725
5:33:17.712,-0.450,-0.720
5:33:17.716,-0.460,-0.720
5:33:17.720,-0.485,-0.755
5:33:17.724,-0.515,-0.735
5:33:17.728,-0.480,-0.735
5:33:17.732,-0.460,-0.755
5:33:17.736,-0.470,-0.740
5:33:17.740,-0.485,-0.735
5:33:17.744,-0.475,-0.720
5:33:17.748,-0.450,-0.720
5:33:17.752,-0.500,-0.710
5:33:17.756,-0.490,-0.720
5:33:17.760,-0.520,-0.700
5:33:17.764,-0.505,-0.720
5:33:17.768,-0.490,-0.715
5:33:17.772,-0.490,-0.720
5:33:17.776,-0.505,-0.725
5:33:17.780,-0.480,-0.735
5:33:17.784,-0.470,-0.710
5:33:17.788,-0.490,-0.715
5:33:17.792,-0.485,-0.660
5:33:17.796,-0.470,-0.685
5:33:17.800,-0.480,-0.720
5:33:17.804,-0.490,-0.705
5:33:17.808,-0.445,-0.690
5:33:17.812,-0.460,-0.690
5:33:17.816,-0.465,-0.680
5:33:17.820,-0.460,-0.705
5:33:17.824,-0.510,-0.700
5:33:17.828,-0.440,-0.705
5:33:17.832,-0.430,-0.690
5:33:17.836,-0.455,-0.700
5:33:17.840,-0.415,-0.685
5:33:17.844,-0.400,-0.670
5:33:17.848,-0.380,-0.630
5:33:17.852,-0.390,-0.590
5:33:17.856,-0.385,-0.615
5:33:17.860,-0.420,-0.575
5:33:17.864,-0.415,-0.550
5:33:17.868,-0.410,-0.540
5:33:17.872,-0.390,-0.550
5:33:17.876,-0.385,-0.570
5:33:17.880,-0.375,-0.555
5:33:17.884,-0.355,-0.575
5:33:17.888,-0.340,-0.560
5:33:17.892,-0.300,-0.560
5:33:17.896,-0.290,-0.575
5:33:17.900,-0.305,-0.590
5:33:17.904,-0.340,-0.600
5:33:17.908,-0.330,-0.665
5:33:17.912,-0.335,-0.635
5:33:17.916,-0.350,-0.660
5:33:17.920,-0.350,-0.655
5:33:17.924,-0.360,-0.690
5:33:17.928,-0.360,-0.685
5:33:17.932,-0.355,-0.685
5:33:17.936,-0.395,-0.690
5:33:17.940,-0.365,-0.690
5:33:17.944,-0.390,-0.690
5:33:17.948,-0.400,-0.680
5:33:17.952,-0.370,-0.680
5:33:17.956,-0.355,-0.685
5:33:17.960,-0.370,-0.660
5:33:17.964,-0.410,-0.680
5:33:17.968,-0.400,-0.660
5:33:17.972,-0.375,-0.655
5:33:17.976,-0.365,-0.710
5:33:17.980,-0.410,-0.765
5:33:17.984,-0.420,-0.730
5:33:17.988,-0.410,-0.680
5:33:17.992,-0.390,-0.725
5:33:17.996,-0.375,-0.705
5:33:18.000,-0.420,-0.690
5:33:18.004,-0.410,-0.670
5:33:18.008,-0.405,-0.705
5:33:18.012,-0.400,-0.670
5:33:18.016,-0.430,-0.680
5:33:18.020,-0.390,-0.700
5:33:18.024,-0.445,-0.705
5:33:18.028,-0.400,-0.700
5:33:18.032,-0.370,-0.690
5:33:18.036,-0.385,-0.680
5:33:18.040,-0.415,-0.685
5:33:18.044,-0.410,-0.690
5:33:18.048,-0.395,-0.680
5:33:18.052,-0.405,-0.660
5:33:18.056,-0.390,-0.685
5:33:18.060,-0.400,-0.640
5:33:18.064,-0.425,-0.665
5:33:18.068,-0.405,-0.640
5:33:18.072,-0.415,-0.615
5:33:18.076,-0.460,-0.645
5:33:18.080,-0.605,-0.670
5:33:18.084,-0.770,-0.630
5:33:18.088,-0.795,-0.665
5:33:18.092,-0.665,-0.715
5:33:18.096,-0.450,-0.730
5:33:18.100,0.010,-0.820
5:33:18.104,0.350,-0.980
5:33:18.108,0.495,-0.925
5:33:18.112,0.895,-0.825
5:33:18.116,1.510,-0.830
5:33:18.120,1.730,-0.660
5:33:18.124,1.270,-0.250
5:33:18.128,0.360,0.155
5:33:18.132,-0.700,0.090
5:33:18.136,-1.355,-0.810
5:33:18.140,-1.700,-1.835
5:33:18.144,-2.125,-2.275
5:33:18.148,-2.305,-2.380
5:33:18.152,-2.310,-2.180
5:33:18.156,-2.330,-2.020
5:33:18.160,-2.380,-1.855
5:33:18.164,-2.255,-1.630
5:33:18.168,-1.980,-1.450
5:33:18.172,-1.595,-1.350
5:33:18.176,-1.205,-1.270
5:33:18.180,-0.935,-1.150
5:33:18.184,-0.785,-0.915
5:33:18.188,-0.660,-0.780
5:33:18.192,-0.570,-0.715
5:33:18.196,-0.565,-0.670
5:33:18.200,-0.550,-0.630
5:33:18.204,-0.565,-0.610
5:33:18.208,-0.555,-0.610
5:33:18.212,-0.560,-0.630
5:33:18.216,-0.525,-0.610
5:33:18.220,-0.510,-0.610
5:33:18.224,-0.545,-0.605
5:33:18.228,-0.530,-0.625
5:33:18.232,-0.515,-0.665
5:33:18.236,-0.530,-0.650
5:33:18.240,-0.535,-0.650
5:33:18.244,-0.540,-0.665
5:33:18.248,-0.535,-0.705
5:33:18.252,-0.535,-0.665
5:33:18.256,-0.515,-0.670
5:33:18.260,-0.535,-0.670
5:33:18.264,-0.530,-0.690
5:33:18.268,-0.520,-0.690
5:33:18.272,-0.505,-0.700
5:33:18.276,-0.470,-0.710
5:33:18.280,-0.455,-0.715
5:33:18.284,-0.440,-0.710
5:33:18.288,-0.430,-0.705
5:33:18.292,-0.395,-0.685
5:33:18.296,-0.335,-0.675
5:33:18.300,-0.320,-0.660
5:33:18.304,-0.300,-0.640
5:33:18.308,-0.285,-0.610
5:33:18.312,-0.215,-0.570
5:33:18.316,-0.150,-0.585
5:33:18.320,-0.075,-0.540
5:33:18.324,-0.065,-0.540
5:33:18.328,-0.025,-0.520
5:33:18.332,0.030,-0.515
5:33:18.336,0.100,-0.490
5:33:18.340,0.120,-0.435
5:33:18.344,0.180,-0.430
5:33:18.348,0.235,-0.405
5:33:18.352,0.290,-0.375
5:33:18.356,0.375,-0.360
5:33:18.360,0.420,-0.340
5:33:18.364,0.445,-0.300
5:33:18.368,0.475,-0.260
5:33:18.372,0.500,-0.260
5:33:18.376,0.545,-0.260
5:33:18.380,0.570,-0.240
5:33:18.384,0.610,-0.225
5:33:18.388,0.620,-0.170
5:33:18.392,0.645,-0.165
5:33:18.396,0.705,-0.120
5:33:18.400,0.730,-0.065
5:33:18.404,0.765,-0.050
5:33:18.408,0.745,-0.010
5:33:18.412,0.755,0.020
5:33:18.416,0.730,0.055
5:33:18.420,0.710,0.060
5:33:18.424,0.610,0.030
5:33:18.428,0.605,0.120
5:33:18.432,0.570,0.115
5:33:18.436,0.550,0.075
5:33:18.440,0.515,0.095
5:33:18.444,0.460,0.095
5:33:18.448,0.415,0.065
5:33:18.452,0.345,0.055
5:33:18.456,0.345,0.035
5:33:18.460,0.290,0.010
5:33:18.464,0.270,0.015
5:33:18.468,0.210,-0.040
5:33:18.472,0.140,-0.030
5:33:18.476,0.100,-0.045
5:33:18.480,0.085,-0.120
5:33:18.484,0.060,-0.115
5:33:18.488,0.000,-0.170
5:33:18.492,0.025,-0.185
5:33:18.496,0.005,-0.185
5:33:18.500,0.005,-0.205
5:33:18.504,-0.030,-0.235
5:33:18.508,-0.055,-0.250
5:33:18.512,-0.060,-0.260
5:33:18.516,-0.100,-0.260
5:33:18.520,-0.095,-0.310
5:33:18.524,-0.100,-0.320
5:33:18.528,-0.110,-0.345
5:33:18.532,-0.160,-0.345
5:33:18.536,-0.140,-0.345
5:33:18.540,-0.160,-0.360
5:33:18.544,-0.135,-0.375
5:33:18.548,-0.145,-0.395
5:33:18.552,-0.170,-0.420
5:33:18.556,-0.175,-0.425
5:33:18.560,-0.180,-0.465
5:33:18.564,-0.190,-0.450
5:33:18.568,-0.210,-0.460
5:33:18.572,-0.200,-0.500
5:33:18.576,-0.230,-0.465
5:33:18.580,-0.215,-0.520
5:33:18.584,-0.240,-0.520
5:33:18.588,-0.275,-0.520
5:33:18.592,-0.280,-0.515
5:33:18.596,-0.255,-0.545
5:33:18.600,-0.240,-0.565
5:33:18.604,-0.260,-0.580
5:33:18.608,-0.270,-0.580
5:33:18.612,-0.300,-0.570
5:33:18.616,-0.300,-0.585
5:33:18.620,-0.305,-0.595
5:33:18.624,-0.320,-0.590
