Time,ECG1,ECG2
15:19:20.000,-0.255,0.035
15:19:20.004,-0.210,0.015
15:19:20.008,-0.205,0.020
15:19:20.012,-0.200,0.010
15:19:20.016,-0.235,0.010
15:19:20.020,-0.240,0.020
15:19:20.024,-0.215,0.020
15:19:20.028,-0.200,0.005
15:19:20.032,-0.170,-0.005
15:19:20.036,-0.110,-0.005
15:19:20.040,-0.030,-0.010
15:19:20.044,0.035,-0.025
15:19:20.048,0.060,-0.085
15:19:20.052,0.025,-0.130
15:19:20.056,0.030,-0.205
15:19:20.060,0.015,-0.225
15:19:20.064,-0.025,-0.260
15:19:20.068,-0.085,-0.345
15:19:20.072,-0.105,-0.465
15:19:20.076,-0.035,-0.625
15:19:20.080,0.205,-0.875
15:19:20.084,0.525,-1.105
15:19:20.088,0.780,-1.345
15:19:20.092,0.835,-1.475
15:19:20.096,0.660,-1.400
15:19:20.100,0.325,-1.060
15:19:20.104,0.015,-0.600
15:19:20.108,-0.205,-0.325
15:19:20.112,-0.290,-0.205
15:19:20.116,-0.350,-0.100
15:19:20.120,-0.360,-0.015
15:19:20.124,-0.360,0.025
15:19:20.128,-0.370,0.080
15:19:20.132,-0.395,0.110
15:19:20.136,-0.370,0.120
15:19:20.140,-0.360,0.100
15:19:20.144,-0.390,0.115
15:19:20.148,-0.395,0.115
15:19:20.152,-0.400,0.110
15:19:20.156,-0.400,0.105
15:19:20.160,-0.380,0.095
15:19:20.164,-0.385,0.120
15:19:20.168,-0.400,0.145
15:19:20.172,-0.385,0.160
15:19:20.176,-0.365,0.170
15:19:20.180,-0.360,0.170
15:19:20.184,-0.350,0.160
15:19:20.188,-0.350,0.160
15:19:20.192,-0.335,0.165
15:19:20.196,-0.300,0.190
15:19:20.200,-0.285,0.175
15:19:20.204,-0.300,0.170
15:19:20.208,-0.300,0.170
15:19:20.212,-0.290,0.180
15:19:20.216,-0.270,0.195
15:19:20.220,-0.245,0.200
15:19:20.224,-0.240,0.210
15:19:20.228,-0.260,0.225
15:19:20.232,-0.245,0.230
15:19:20.236,-0.255,0.240
15:19:20.240,-0.240,0.250
15:19:20.244,-0.265,0.230
15:19:20.248,-0.240,0.230
15:19:20.252,-0.205,0.215
15:19:20.256,-0.200,0.240
15:19:20.260,-0.230,0.225
15:19:20.264,-0.245,0.210
15:19:20.268,-0.245,0.205
15:19:20.272,-0.225,0.205
15:19:20.276,-0.210,0.205
15:19:20.280,-0.215,0.195
15:19:20.284,-0.225,0.170
15:19:20.288,-0.210,0.195
15:19:20.292,-0.215,0.195
15:19:20.296,-0.215,0.165
15:19:20.300,-0.200,0.155
15:19:20.304,-0.170,0.130
15:19:20.308,-0.180,0.110
15:19:20.312,-0.200,0.115
15:19:20.316,-0.220,0.100
15:19:20.320,-0.215,0.060
15:19:20.324,-0.220,0.055
15:19:20.328,-0.245,0.045
15:19:20.332,-0.245,0.035
15:19:20.336,-0.270,0.045
15:19:20.340,-0.265,0.015
15:19:20.344,-0.265,0.000
15:19:20.348,-0.285,-0.010
15:19:20.352,-0.285,-0.005
15:19:20.356,-0.245,0.005
15:19:20.360,-0.225,0.000
15:19:20.364,-0.220,-0.020
15:19:20.368,-0.230,-0.030
15:19:20.372,-0.220,-0.020
15:19:20.376,-0.190,-0.030
15:19:20.380,-0.185,-0.045
15:19:20.384,-0.170,-0.035
15:19:20.388,-0.205,-0.015
15:19:20.392,-0.190,-0.030
15:19:20.396,-0.165,-0.015
15:19:20.400,-0.180,-0.015
15:19:20.404,-0.190,0.000
15:19:20.408,-0.195,-0.005
15:19:20.412,-0.200,0.040
15:19:20.416,-0.190,0.030
15:19:20.420,-0.215,0.005
15:19:20.424,-0.195,0.030
15:19:20.428,-0.160,0.065
15:19:20.432,-0.165,0.085
15:19:20.436,-0.195,0.060
15:19:20.440,-0.185,0.055
15:19:20.444,-0.180,0.075
15:19:20.448,-0.150,0.055
15:19:20.452,-0.160,0.085
15:19:20.456,-0.170,0.090
15:19:20.460,-0.165,0.090
15:19:20.464,-0.180,0.095
15:19:20.468,-0.205,0.105
15:19:20.472,-0.205,0.085
15:19:20.476,-0.200,0.105
15:19:20.480,-0.175,0.085
15:19:20.484,-0.205,0.075
15:19:20.488,-0.210,0.105
15:19:20.492,-0.240,0.080
15:19:20.496,-0.240,0.085
15:19:20.500,-0.245,0.060
15:19:20.504,-0.235,0.055
15:19:20.508,-0.235,0.045
15:19:20.512,-0.200,0.020
15:19:20.516,-0.220,0.030
15:19:20.520,-0.230,0.000
15:19:20.524,-0.210,0.015
15:19:20.528,-0.205,0.015
15:19:20.532,-0.195,0.015
15:19:20.536,-0.185,0.000
15:19:20.540,-0.155,0.015
15:19:20.544,-0.145,-0.010
15:19:20.548,-0.080,0.000
15:19:20.552,-0.015,0.000
15:19:20.556,0.050,-0.020
15:19:20.560,0.060,-0.055
15:19:20.564,0.040,-0.100
15:19:20.568,0.045,-0.145
15:19:20.572,0.030,-0.190
15:19:20.576,0.015,-0.240
15:19:20.580,-0.010,-0.330
15:19:20.584,-0.025,-0.440
15:19:20.588,0.050,-0.620
15:19:20.592,0.260,-0.800
15:19:20.596,0.580,-1.080
15:19:20.600,0.880,-1.280
15:19:20.604,0.980,-1.415
15:19:20.608,0.795,-1.395
15:19:20.612,0.465,-1.080
15:19:20.616,0.085,-0.595
15:19:20.620,-0.165,-0.255
15:19:20.624,-0.300,-0.115
15:19:20.628,-0.375,-0.025
15:19:20.632,-0.400,0.125
15:19:20.636,-0.390,0.180
15:19:20.640,-0.375,0.220
15:19:20.644,-0.410,0.240
15:19:20.648,-0.400,0.255
15:19:20.652,-0.390,0.260
15:19:20.656,-0.370,0.235
15:19:20.660,-0.385,0.230
15:19:20.664,-0.405,0.235
15:19:20.668,-0.380,0.210
15:19:20.672,-0.355,0.195
15:19:20.676,-0.335,0.165
15:19:20.680,-0.305,0.160
15:19:20.684,-0.295,0.140
15:19:20.688,-0.280,0.150
15:19:20.692,-0.275,0.140
15:19:20.696,-0.280,0.155
15:19:20.700,-0.285,0.160
15:19:20.704,-0.300,0.180
15:19:20.708,-0.305,0.175
15:19:20.712,-0.320,0.165
15:19:20.716,-0.315,0.155
15:19:20.720,-0.320,0.170
15:19:20.724,-0.290,0.190
15:19:20.728,-0.275,0.175
15:19:20.732,-0.270,0.180
15:19:20.736,-0.300,0.165
15:19:20.740,-0.300,0.200
15:19:20.744,-0.300,0.185
15:19:20.748,-0.315,0.190
15:19:20.752,-0.310,0.185
15:19:20.756,-0.260,0.195
15:19:20.760,-0.230,0.195
15:19:20.764,-0.235,0.195
15:19:20.768,-0.260,0.195
15:19:20.772,-0.255,0.210
15:19:20.776,-0.255,0.190
15:19:20.780,-0.255,0.170
15:19:20.784,-0.235,0.185
15:19:20.788,-0.230,0.150
15:19:20.792,-0.230,0.135
15:19:20.796,-0.260,0.125
15:19:20.800,-0.285,0.125
15:19:20.804,-0.270,0.090
15:19:20.808,-0.260,0.100
15:19:20.812,-0.275,0.095
15:19:20.816,-0.280,0.090
15:19:20.820,-0.285,0.070
15:19:20.824,-0.300,0.075
15:19:20.828,-0.310,0.065
15:19:20.832,-0.300,0.025
15:19:20.836,-0.300,0.040
15:19:20.840,-0.315,0.040
15:19:20.844,-0.295,0.035
15:19:20.848,-0.285,0.015
15:19:20.852,-0.265,0.020
15:19:20.856,-0.195,0.005
15:19:20.860,-0.165,0.030
15:19:20.864,-0.140,0.020
15:19:20.868,-0.160,0.025
15:19:20.872,-0.155,0.010
15:19:20.876,-0.145,0.035
15:19:20.880,-0.165,0.060
15:19:20.884,-0.165,0.045
15:19:20.888,-0.170,0.085
15:19:20.892,-0.155,0.085
15:19:20.896,-0.150,0.065
15:19:20.900,-0.135,0.075
15:19:20.904,-0.140,0.070
15:19:20.908,-0.145,0.095
15:19:20.912,-0.130,0.085
15:19:20.916,-0.110,0.070
15:19:20.920,-0.110,0.060
15:19:20.924,-0.120,0.070
15:19:20.928,-0.150,0.075
15:19:20.932,-0.140,0.045
15:19:20.936,-0.130,0.075
15:19:20.940,-0.125,0.085
15:19:20.944,-0.075,0.055
15:19:20.948,-0.010,0.035
15:19:20.952,0.030,0.040
15:19:20.956,0.105,-0.010
15:19:20.960,0.110,-0.060
15:19:20.964,0.075,-0.130
15:19:20.968,0.050,-0.150
15:19:20.972,0.000,-0.205
15:19:20.976,-0.065,-0.240
15:19:20.980,-0.140,-0.345
15:19:20.984,-0.100,-0.465
15:19:20.988,0.050,-0.655
15:19:20.992,0.300,-0.900
15:19:20.996,0.620,-1.205
15:19:21.000,0.865,-1.440
15:19:21.004,0.915,-1.545
15:19:21.008,0.745,-1.435
15:19:21.012,0.425,-1.110
15:19:21.016,0.100,-0.665
15:19:21.020,-0.120,-0.345
15:19:21.024,-0.250,-0.170
15:19:21.028,-0.290,-0.070
15:19:21.032,-0.305,0.010
15:19:21.036,-0.340,0.075
15:19:21.040,-0.375,0.085
15:19:21.044,-0.405,0.095
15:19:21.048,-0.405,0.135
15:19:21.052,-0.400,0.145
15:19:21.056,-0.395,0.145
15:19:21.060,-0.430,0.130
15:19:21.064,-0.470,0.125
15:19:21.068,-0.485,0.120
15:19:21.072,-0.490,0.140
15:19:21.076,-0.470,0.140
15:19:21.080,-0.455,0.140
15:19:21.084,-0.435,0.140
15:19:21.088,-0.400,0.160
15:19:21.092,-0.390,0.185
15:19:21.096,-0.365,0.210
15:19:21.100,-0.320,0.220
15:19:21.104,-0.340,0.235
15:19:21.108,-0.360,0.255
15:19:21.112,-0.350,0.255
15:19:21.116,-0.360,0.230
15:19:21.120,-0.355,0.220
15:19:21.124,-0.340,0.245
15:19:21.128,-0.305,0.235
15:19:21.132,-0.300,0.240
15:19:21.136,-0.330,0.250
15:19:21.140,-0.335,0.260
15:19:21.144,-0.360,0.300
15:19:21.148,-0.345,0.285
15:19:21.152,-0.345,0.270
15:19:21.156,-0.345,0.280
15:19:21.160,-0.360,0.265
15:19:21.164,-0.330,0.245
15:19:21.168,-0.310,0.240
15:19:21.172,-0.330,0.235
15:19:21.176,-0.355,0.230
15:19:21.180,-0.315,0.210
15:19:21.184,-0.290,0.250
15:19:21.188,-0.290,0.220
15:19:21.192,-0.280,0.165
15:19:21.196,-0.280,0.160
15:19:21.200,-0.300,0.135
15:19:21.204,-0.270,0.095
15:19:21.208,-0.235,0.075
15:19:21.212,-0.210,0.055
15:19:21.216,-0.225,0.035
15:19:21.220,-0.240,0.005
15:19:21.224,-0.230,-0.020
15:19:21.228,-0.210,-0.025
15:19:21.232,-0.235,-0.025
15:19:21.236,-0.230,-0.045
15:19:21.240,-0.220,-0.050
15:19:21.244,-0.175,-0.070
15:19:21.248,-0.195,-0.080
15:19:21.252,-0.200,-0.035
15:19:21.256,-0.220,-0.055
15:19:21.260,-0.190,-0.070
15:19:21.264,-0.185,-0.070
15:19:21.268,-0.175,-0.055
15:19:21.272,-0.160,-0.055
15:19:21.276,-0.155,-0.040
15:19:21.280,-0.195,-0.050
15:19:21.284,-0.195,-0.030
15:19:21.288,-0.190,-0.030
15:19:21.292,-0.160,-0.040
15:19:21.296,-0.155,-0.025
15:19:21.300,-0.175,-0.030
15:19:21.304,-0.170,-0.020
15:19:21.308,-0.160,-0.020
15:19:21.312,-0.130,-0.010
15:19:21.316,-0.050,-0.005
15:19:21.320,0.000,0.020
15:19:21.324,-0.010,-0.015
15:19:21.328,-0.035,-0.040
15:19:21.332,-0.070,-0.060
15:19:21.336,-0.115,-0.095
15:19:21.340,-0.165,-0.140
15:19:21.344,-0.220,-0.200
15:19:21.348,-0.250,-0.255
15:19:21.352,-0.175,-0.365
15:19:21.356,0.005,-0.585
15:19:21.360,0.295,-0.820
15:19:21.364,0.580,-1.095
15:19:21.368,0.750,-1.325
15:19:21.372,0.715,-1.395
15:19:21.376,0.500,-1.225
15:19:21.380,0.210,-0.875
15:19:21.384,-0.070,-0.420
15:19:21.388,-0.240,-0.170
15:19:21.392,-0.330,-0.030
15:19:21.396,-0.345,0.080
15:19:21.400,-0.375,0.155
15:19:21.404,-0.395,0.220
15:19:21.408,-0.400,0.215
15:19:21.412,-0.425,0.235
15:19:21.416,-0.420,0.255
15:19:21.420,-0.380,0.265
15:19:21.424,-0.395,0.260
15:19:21.428,-0.370,0.250
15:19:21.432,-0.365,0.240
15:19:21.436,-0.380,0.225
15:19:21.440,-0.390,0.240
15:19:21.444,-0.385,0.225
15:19:21.448,-0.365,0.220
15:19:21.452,-0.330,0.205
15:19:21.456,-0.305,0.195
15:19:21.460,-0.290,0.185
15:19:21.464,-0.275,0.165
15:19:21.468,-0.245,0.180
15:19:21.472,-0.245,0.170
15:19:21.476,-0.245,0.160
15:19:21.480,-0.270,0.175
15:19:21.484,-0.270,0.155
15:19:21.488,-0.260,0.150
15:19:21.492,-0.265,0.155
15:19:21.496,-0.265,0.155
15:19:21.500,-0.290,0.170
15:19:21.504,-0.315,0.170
15:19:21.508,-0.335,0.185
15:19:21.512,-0.295,0.180
15:19:21.516,-0.265,0.195
15:19:21.520,-0.245,0.195
15:19:21.524,-0.215,0.160
15:19:21.528,-0.210,0.165
15:19:21.532,-0.195,0.190
15:19:21.536,-0.200,0.195
15:19:21.540,-0.190,0.205
15:19:21.544,-0.195,0.195
15:19:21.548,-0.195,0.220
15:19:21.552,-0.210,0.220
15:19:21.556,-0.215,0.215
15:19:21.560,-0.190,0.195
15:19:21.564,-0.210,0.215
15:19:21.568,-0.225,0.200
15:19:21.572,-0.195,0.210
15:19:21.576,-0.190,0.185
15:19:21.580,-0.200,0.200
15:19:21.584,-0.185,0.180
15:19:21.588,-0.155,0.210
15:19:21.592,-0.145,0.175
15:19:21.596,-0.140,0.160
15:19:21.600,-0.120,0.150
15:19:21.604,-0.095,0.150
15:19:21.608,-0.060,0.115
15:19:21.612,-0.070,0.095
15:19:21.616,-0.040,0.080
15:19:21.620,-0.040,0.090
15:19:21.624,-0.065,0.090
15:19:21.628,-0.055,0.090
15:19:21.632,-0.085,0.060
15:19:21.636,-0.065,0.060
15:19:21.640,-0.055,0.065
15:19:21.644,-0.040,0.080
15:19:21.648,-0.055,0.095
15:19:21.652,-0.055,0.100
15:19:21.656,-0.080,0.085
15:19:21.660,-0.080,0.100
15:19:21.664,-0.080,0.090
15:19:21.668,-0.085,0.110
15:19:21.672,-0.035,0.105
15:19:21.676,0.010,0.100
15:19:21.680,0.035,0.100
15:19:21.684,0.010,0.085
15:19:21.688,0.025,0.040
15:19:21.692,-0.010,0.015
15:19:21.696,-0.075,-0.005
15:19:21.700,-0.170,-0.065
15:19:21.704,-0.245,-0.130
15:19:21.708,-0.310,-0.210
15:19:21.712,-0.320,-0.330
15:19:21.716,-0.175,-0.530
15:19:21.720,0.115,-0.765
15:19:21.724,0.440,-1.070
15:19:21.728,0.680,-1.365
15:19:21.732,0.750,-1.450
15:19:21.736,0.660,-1.405
15:19:21.740,0.415,-1.105
15:19:21.744,0.125,-0.650
15:19:21.748,-0.040,-0.280
15:19:21.752,-0.120,-0.125
15:19:21.756,-0.180,-0.035
15:19:21.760,-0.190,0.035
15:19:21.764,-0.205,0.110
15:19:21.768,-0.205,0.150
15:19:21.772,-0.205,0.170
15:19:21.776,-0.230,0.170
15:19:21.780,-0.215,0.185
15:19:21.784,-0.195,0.200
15:19:21.788,-0.195,0.220
15:19:21.792,-0.235,0.185
15:19:21.796,-0.270,0.210
15:19:21.800,-0.305,0.240
15:19:21.804,-0.315,0.230
15:19:21.808,-0.300,0.265
15:19:21.812,-0.335,0.255
15:19:21.816,-0.325,0.270
15:19:21.820,-0.280,0.250
15:19:21.824,-0.265,0.255
15:19:21.828,-0.270,0.265
15:19:21.832,-0.285,0.245
15:19:21.836,-0.275,0.240
15:19:21.840,-0.265,0.235
15:19:21.844,-0.300,0.240
15:19:21.848,-0.300,0.265
15:19:21.852,-0.295,0.270
15:19:21.856,-0.290,0.285
15:19:21.860,-0.270,0.275
15:19:21.864,-0.270,0.260
15:19:21.868,-0.260,0.255
15:19:21.872,-0.255,0.275
15:19:21.876,-0.230,0.275
15:19:21.880,-0.215,0.270
15:19:21.884,-0.205,0.265
15:19:21.888,-0.205,0.260
15:19:21.892,-0.215,0.275
15:19:21.896,-0.210,0.250
15:19:21.900,-0.200,0.280
15:19:21.904,-0.205,0.260
15:19:21.908,-0.210,0.260
15:19:21.912,-0.200,0.265
15:19:21.916,-0.230,0.255
15:19:21.920,-0.200,0.225
15:19:21.924,-0.200,0.210
15:19:21.928,-0.195,0.205
15:19:21.932,-0.210,0.195
15:19:21.936,-0.175,0.185
15:19:21.940,-0.210,0.170
15:19:21.944,-0.220,0.180
15:19:21.948,-0.225,0.115
15:19:21.952,-0.220,0.110
15:19:21.956,-0.225,0.075
15:19:21.960,-0.205,0.065
15:19:21.964,-0.225,0.060
15:19:21.968,-0.265,0.035
15:19:21.972,-0.245,0.045
15:19:21.976,-0.230,0.060
15:19:21.980,-0.185,0.025
15:19:21.984,-0.150,0.025
15:19:21.988,-0.170,0.035
15:19:21.992,-0.170,0.050
15:19:21.996,-0.130,0.045
15:19:22.000,-0.120,0.045
15:19:22.004,-0.110,0.075
15:19:22.008,-0.090,0.085
15:19:22.012,-0.085,0.100
15:19:22.016,-0.090,0.105
15:19:22.020,-0.100,0.110
15:19:22.024,-0.085,0.130
15:19:22.028,-0.105,0.135
15:19:22.032,-0.185,0.130
15:19:22.036,-0.200,0.110
15:19:22.040,-0.195,0.085
15:19:22.044,-0.185,0.085
15:19:22.048,-0.120,0.060
15:19:22.052,-0.075,0.025
15:19:22.056,-0.065,-0.025
15:19:22.060,-0.070,-0.080
15:19:22.064,-0.060,-0.115
15:19:22.068,-0.095,-0.195
15:19:22.072,-0.125,-0.250
15:19:22.076,-0.160,-0.270
15:19:22.080,-0.185,-0.375
15:19:22.084,-0.190,-0.470
15:19:22.088,-0.085,-0.625
15:19:22.092,0.200,-0.840
15:19:22.096,0.595,-1.105
15:19:22.100,0.890,-1.330
15:19:22.104,0.970,-1.435
15:19:22.108,0.805,-1.320
15:19:22.112,0.460,-0.945
15:19:22.116,0.095,-0.505
15:19:22.120,-0.150,-0.215
15:19:22.124,-0.250,-0.075
15:19:22.128,-0.315,0.010
15:19:22.132,-0.365,0.085
15:19:22.136,-0.390,0.145
15:19:22.140,-0.425,0.170
15:19:22.144,-0.450,0.175
15:19:22.148,-0.430,0.200
15:19:22.152,-0.430,0.190
15:19:22.156,-0.465,0.180
15:19:22.160,-0.455,0.150
15:19:22.164,-0.465,0.135
15:19:22.168,-0.440,0.145
15:19:22.172,-0.445,0.165
15:19:22.176,-0.460,0.120
15:19:22.180,-0.480,0.130
15:19:22.184,-0.495,0.140
15:19:22.188,-0.500,0.145
15:19:22.192,-0.485,0.145
15:19:22.196,-0.485,0.140
15:19:22.200,-0.460,0.160
15:19:22.204,-0.470,0.145
15:19:22.208,-0.445,0.165
15:19:22.212,-0.440,0.165
15:19:22.216,-0.440,0.180
15:19:22.220,-0.455,0.160
15:19:22.224,-0.475,0.195
15:19:22.228,-0.445,0.195
15:19:22.232,-0.425,0.170
15:19:22.236,-0.415,0.185
15:19:22.240,-0.425,0.205
15:19:22.244,-0.395,0.210
15:19:22.248,-0.385,0.200
15:19:22.252,-0.385,0.220
15:19:22.256,-0.395,0.220
15:19:22.260,-0.430,0.235
15:19:22.264,-0.465,0.250
15:19:22.268,-0.450,0.260
15:19:22.272,-0.455,0.250
15:19:22.276,-0.445,0.305
15:19:22.280,-0.425,0.255
15:19:22.284,-0.420,0.265
15:19:22.288,-0.390,0.240
15:19:22.292,-0.385,0.205
15:19:22.296,-0.385,0.185
15:19:22.300,-0.380,0.165
15:19:22.304,-0.380,0.125
15:19:22.308,-0.360,0.100
15:19:22.312,-0.380,0.065
15:19:22.316,-0.395,0.015
15:19:22.320,-0.370,0.005
15:19:22.324,-0.350,-0.015
15:19:22.328,-0.340,-0.025
15:19:22.332,-0.315,-0.055
15:19:22.336,-0.335,-0.055
15:19:22.340,-0.320,-0.080
15:19:22.344,-0.285,-0.075
15:19:22.348,-0.255,-0.070
15:19:22.352,-0.275,-0.075
15:19:22.356,-0.290,-0.095
15:19:22.360,-0.285,-0.070
15:19:22.364,-0.250,-0.060
15:19:22.368,-0.245,-0.065
15:19:22.372,-0.230,-0.065
15:19:22.376,-0.245,-0.070
15:19:22.380,-0.235,-0.045
15:19:22.384,-0.240,-0.025
15:19:22.388,-0.230,-0.010
15:19:22.392,-0.215,0.000
15:19:22.396,-0.215,0.000
15:19:22.400,-0.220,0.005
15:19:22.404,-0.210,0.015
15:19:22.408,-0.215,0.025
15:19:22.412,-0.205,0.020
15:19:22.416,-0.180,0.025
15:19:22.420,-0.135,0.015
15:19:22.424,-0.070,0.005
15:19:22.428,-0.055,-0.030
15:19:22.432,-0.040,-0.070
15:19:22.436,-0.020,-0.095
15:19:22.440,-0.040,-0.110
15:19:22.444,-0.060,-0.170
15:19:22.448,-0.080,-0.260
15:19:22.452,-0.085,-0.335
15:19:22.456,0.025,-0.475
15:19:22.460,0.265,-0.670
15:19:22.464,0.630,-0.920
15:19:22.468,0.965,-1.140
15:19:22.472,1.080,-1.280
15:19:22.476,0.930,-1.220
15:19:22.480,0.590,-0.920
15:19:22.484,0.155,-0.510
15:19:22.488,-0.160,-0.195
15:19:22.492,-0.345,-0.020
15:19:22.496,-0.415,0.070
15:19:22.500,-0.435,0.155
15:19:22.504,-0.475,0.195
15:19:22.508,-0.515,0.235
15:19:22.512,-0.565,0.225
15:19:22.516,-0.575,0.265
15:19:22.520,-0.585,0.260
15:19:22.524,-0.555,0.235
15:19:22.528,-0.575,0.220
15:19:22.532,-0.570,0.205
15:19:22.536,-0.595,0.205
15:19:22.540,-0.565,0.225
15:19:22.544,-0.555,0.220
15:19:22.548,-0.545,0.210
15:19:22.552,-0.560,0.205
15:19:22.556,-0.545,0.205
15:19:22.560,-0.530,0.220
15:19:22.564,-0.515,0.230
15:19:22.568,-0.475,0.215
15:19:22.572,-0.445,0.205
15:19:22.576,-0.405,0.190
15:19:22.580,-0.390,0.175
15:19:22.584,-0.390,0.150
15:19:22.588,-0.375,0.190
15:19:22.592,-0.400,0.155
15:19:22.596,-0.420,0.145
15:19:22.600,-0.390,0.140
15:19:22.604,-0.390,0.135
15:19:22.608,-0.390,0.135
15:19:22.612,-0.380,0.155
15:19:22.616,-0.340,0.155
15:19:22.620,-0.365,0.170
15:19:22.624,-0.385,0.195
15:19:22.628,-0.380,0.175
15:19:22.632,-0.365,0.185
15:19:22.636,-0.360,0.190
15:19:22.640,-0.385,0.185
15:19:22.644,-0.400,0.180
15:19:22.648,-0.400,0.180
15:19:22.652,-0.380,0.180
15:19:22.656,-0.350,0.170
15:19:22.660,-0.360,0.145
15:19:22.664,-0.345,0.125
15:19:22.668,-0.360,0.120
15:19:22.672,-0.355,0.125
15:19:22.676,-0.350,0.095
15:19:22.680,-0.330,0.100
15:19:22.684,-0.350,0.095
15:19:22.688,-0.300,0.065
15:19:22.692,-0.265,0.085
15:19:22.696,-0.300,0.105
15:19:22.700,-0.315,0.085
15:19:22.704,-0.305,0.110
15:19:22.708,-0.290,0.100
15:19:22.712,-0.265,0.110
15:19:22.716,-0.240,0.120
15:19:22.720,-0.270,0.110
15:19:22.724,-0.305,0.100
15:19:22.728,-0.305,0.105
15:19:22.732,-0.300,0.110
15:19:22.736,-0.295,0.105
15:19:22.740,-0.300,0.095
15:19:22.744,-0.310,0.065
15:19:22.748,-0.320,0.070
15:19:22.752,-0.320,0.070
15:19:22.756,-0.315,0.095
15:19:22.760,-0.310,0.085
15:19:22.764,-0.315,0.080
15:19:22.768,-0.310,0.080
15:19:22.772,-0.315,0.060
15:19:22.776,-0.330,0.065
15:19:22.780,-0.315,0.055
15:19:22.784,-0.300,0.070
15:19:22.788,-0.315,0.095
15:19:22.792,-0.305,0.070
15:19:22.796,-0.350,0.080
15:19:22.800,-0.330,0.080
15:19:22.804,-0.340,0.090
15:19:22.808,-0.320,0.075
15:19:22.812,-0.325,0.080
15:19:22.816,-0.315,0.075
15:19:22.820,-0.295,0.065
15:19:22.824,-0.300,0.090
15:19:22.828,-0.280,0.105
15:19:22.832,-0.275,0.080
15:19:22.836,-0.250,0.085
15:19:22.840,-0.245,0.055
15:19:22.844,-0.235,0.035
15:19:22.848,-0.240,0.035
15:19:22.852,-0.225,0.045
15:19:22.856,-0.205,0.035
15:19:22.860,-0.195,0.050
15:19:22.864,-0.205,0.075
15:19:22.868,-0.205,0.055
15:19:22.872,-0.260,0.065
15:19:22.876,-0.275,0.080
15:19:22.880,-0.280,0.065
15:19:22.884,-0.290,0.070
15:19:22.888,-0.285,0.080
15:19:22.892,-0.270,0.075
15:19:22.896,-0.250,0.090
15:19:22.900,-0.235,0.090
15:19:22.904,-0.245,0.070
15:19:22.908,-0.235,0.080
15:19:22.912,-0.250,0.090
15:19:22.916,-0.255,0.085
15:19:22.920,-0.235,0.080
15:19:22.924,-0.255,0.115
15:19:22.928,-0.250,0.120
15:19:22.932,-0.235,0.145
15:19:22.936,-0.240,0.145
15:19:22.940,-0.255,0.125
15:19:22.944,-0.275,0.110
15:19:22.948,-0.285,0.130
15:19:22.952,-0.305,0.110
15:19:22.956,-0.310,0.115
15:19:22.960,-0.345,0.080
15:19:22.964,-0.355,0.075
15:19:22.968,-0.385,0.055
15:19:22.972,-0.425,0.065
15:19:22.976,-0.435,0.065
15:19:22.980,-0.420,0.055
15:19:22.984,-0.445,0.045
15:19:22.988,-0.420,0.055
15:19:22.992,-0.405,0.025
15:19:22.996,-0.410,0.035
15:19:23.000,-0.415,0.045
15:19:23.004,-0.425,0.050
15:19:23.008,-0.400,0.055
15:19:23.012,-0.375,0.080
15:19:23.016,-0.370,0.060
15:19:23.020,-0.380,0.055
15:19:23.024,-0.375,0.075
15:19:23.028,-0.370,0.085
15:19:23.032,-0.385,0.080
15:19:23.036,-0.420,0.060
15:19:23.040,-0.395,0.065
15:19:23.044,-0.400,0.065
15:19:23.048,-0.400,0.070
15:19:23.052,-0.375,0.090
15:19:23.056,-0.310,0.065
15:19:23.060,-0.280,0.065
15:19:23.064,-0.295,0.070
15:19:23.068,-0.320,0.090
15:19:23.072,-0.310,0.090
15:19:23.076,-0.315,0.085
15:19:23.080,-0.305,0.095
15:19:23.084,-0.290,0.115
15:19:23.088,-0.275,0.100
15:19:23.092,-0.265,0.115
15:19:23.096,-0.265,0.115
15:19:23.100,-0.265,0.120
15:19:23.104,-0.260,0.135
15:19:23.108,-0.230,0.155
15:19:23.112,-0.220,0.110
15:19:23.116,-0.230,0.070
15:19:23.120,-0.245,0.060
15:19:23.124,-0.250,0.065
15:19:23.128,-0.260,0.045
15:19:23.132,-0.255,0.060
15:19:23.136,-0.245,0.085
15:19:23.140,-0.240,0.055
15:19:23.144,-0.305,0.070
15:19:23.148,-0.285,0.085
15:19:23.152,-0.300,0.085
15:19:23.156,-0.285,0.085
15:19:23.160,-0.265,0.055
15:19:23.164,-0.190,0.035
15:19:23.168,-0.085,0.040
15:19:23.172,0.010,0.030
15:19:23.176,0.030,0.000
15:19:23.180,0.025,-0.080
15:19:23.184,0.005,-0.095
15:19:23.188,-0.025,-0.130
15:19:23.192,-0.065,-0.190
15:19:23.196,-0.090,-0.270
15:19:23.200,-0.160,-0.410
15:19:23.204,-0.080,-0.590
15:19:23.208,0.065,-0.790
15:19:23.212,0.375,-1.025
15:19:23.216,0.660,-1.255
15:19:23.220,0.815,-1.400
15:19:23.224,0.740,-1.400
15:19:23.228,0.430,-1.150
15:19:23.232,0.035,-0.735
15:19:23.236,-0.270,-0.325
15:19:23.240,-0.430,-0.115
15:19:23.244,-0.515,-0.005
15:19:23.248,-0.530,0.075
15:19:23.252,-0.545,0.135
15:19:23.256,-0.505,0.185
15:19:23.260,-0.510,0.225
15:19:23.264,-0.495,0.250
15:19:23.268,-0.490,0.265
15:19:23.272,-0.490,0.235
15:19:23.276,-0.520,0.240
15:19:23.280,-0.500,0.215
15:19:23.284,-0.495,0.220
15:19:23.288,-0.470,0.225
15:19:23.292,-0.455,0.210
15:19:23.296,-0.475,0.185
15:19:23.300,-0.435,0.240
15:19:23.304,-0.440,0.245
15:19:23.308,-0.435,0.225
15:19:23.312,-0.435,0.255
15:19:23.316,-0.425,0.265
15:19:23.320,-0.425,0.270
15:19:23.324,-0.430,0.280
15:19:23.328,-0.440,0.255
15:19:23.332,-0.425,0.315
15:19:23.336,-0.425,0.305
15:19:23.340,-0.410,0.335
15:19:23.344,-0.380,0.290
15:19:23.348,-0.340,0.290
15:19:23.352,-0.305,0.290
15:19:23.356,-0.320,0.275
15:19:23.360,-0.340,0.290
15:19:23.364,-0.370,0.280
15:19:23.368,-0.325,0.270
15:19:23.372,-0.290,0.260
15:19:23.376,-0.300,0.230
15:19:23.380,-0.310,0.220
15:19:23.384,-0.300,0.210
15:19:23.388,-0.300,0.215
15:19:23.392,-0.315,0.235
15:19:23.396,-0.310,0.240
15:19:23.400,-0.275,0.215
15:19:23.404,-0.270,0.240
15:19:23.408,-0.265,0.230
15:19:23.412,-0.265,0.260
15:19:23.416,-0.250,0.245
15:19:23.420,-0.265,0.235
15:19:23.424,-0.280,0.210
15:19:23.428,-0.300,0.235
15:19:23.432,-0.315,0.200
15:19:23.436,-0.320,0.215
15:19:23.440,-0.315,0.165
15:19:23.444,-0.315,0.160
15:19:23.448,-0.270,0.190
15:19:23.452,-0.260,0.170
15:19:23.456,-0.275,0.145
15:19:23.460,-0.255,0.120
15:19:23.464,-0.260,0.125
15:19:23.468,-0.250,0.100
15:19:23.472,-0.225,0.090
15:19:23.476,-0.245,0.065
15:19:23.480,-0.260,0.055
15:19:23.484,-0.220,0.060
15:19:23.488,-0.205,0.055
15:19:23.492,-0.200,0.055
15:19:23.496,-0.200,0.065
15:19:23.500,-0.185,0.050
15:19:23.504,-0.205,0.030
15:19:23.508,-0.220,0.035
15:19:23.512,-0.180,0.045
15:19:23.516,-0.185,0.055
15:19:23.520,-0.180,0.055
15:19:23.524,-0.185,0.060
15:19:23.528,-0.190,0.075
15:19:23.532,-0.200,0.110
15:19:23.536,-0.210,0.115
15:19:23.540,-0.185,0.165
15:19:23.544,-0.180,0.165
15:19:23.548,-0.200,0.185
15:19:23.552,-0.190,0.185
15:19:23.556,-0.165,0.195
15:19:23.560,-0.180,0.210
15:19:23.564,-0.200,0.210
15:19:23.568,-0.235,0.205
15:19:23.572,-0.230,0.240
15:19:23.576,-0.235,0.235
15:19:23.580,-0.230,0.245
15:19:23.584,-0.160,0.240
15:19:23.588,-0.125,0.225
15:19:23.592,-0.075,0.220
15:19:23.596,-0.030,0.210
15:19:23.600,0.000,0.175
15:19:23.604,-0.005,0.115
15:19:23.608,-0.035,0.070
15:19:23.612,-0.060,0.000
15:19:23.616,-0.100,-0.035
15:19:23.620,-0.155,-0.085
15:19:23.624,-0.215,-0.190
15:19:23.628,-0.245,-0.300
15:19:23.632,-0.145,-0.440
15:19:23.636,0.075,-0.640
15:19:23.640,0.370,-0.905
15:19:23.644,0.670,-1.190
15:19:23.648,0.830,-1.390
15:19:23.652,0.805,-1.395
15:19:23.656,0.620,-1.175
15:19:23.660,0.280,-0.795
15:19:23.664,-0.070,-0.395
15:19:23.668,-0.265,-0.125
15:19:23.672,-0.390,0.000
15:19:23.676,-0.430,0.110
15:19:23.680,-0.460,0.180
15:19:23.684,-0.460,0.270
15:19:23.688,-0.490,0.275
15:19:23.692,-0.530,0.310
15:19:23.696,-0.525,0.305
15:19:23.700,-0.480,0.305
15:19:23.704,-0.460,0.280
15:19:23.708,-0.440,0.270
15:19:23.712,-0.415,0.255
15:19:23.716,-0.360,0.270
15:19:23.720,-0.365,0.260
15:19:23.724,-0.355,0.275
15:19:23.728,-0.340,0.305
15:19:23.732,-0.360,0.310
15:19:23.736,-0.370,0.310
15:19:23.740,-0.380,0.300
15:19:23.744,-0.380,0.360
15:19:23.748,-0.360,0.345
15:19:23.752,-0.340,0.325
15:19:23.756,-0.350,0.325
15:19:23.760,-0.355,0.345
15:19:23.764,-0.335,0.335
15:19:23.768,-0.340,0.320
15:19:23.772,-0.325,0.325
15:19:23.776,-0.340,0.305
15:19:23.780,-0.340,0.315
15:19:23.784,-0.330,0.330
15:19:23.788,-0.340,0.355
15:19:23.792,-0.365,0.345
15:19:23.796,-0.340,0.350
15:19:23.800,-0.335,0.355
15:19:23.804,-0.345,0.380
15:19:23.808,-0.340,0.400
15:19:23.812,-0.335,0.390
15:19:23.816,-0.305,0.395
15:19:23.820,-0.290,0.400
15:19:23.824,-0.270,0.385
15:19:23.828,-0.250,0.380
15:19:23.832,-0.265,0.350
15:19:23.836,-0.265,0.340
15:19:23.840,-0.300,0.305
15:19:23.844,-0.280,0.275
15:19:23.848,-0.270,0.265
15:19:23.852,-0.270,0.245
15:19:23.856,-0.265,0.195
15:19:23.860,-0.235,0.215
15:19:23.864,-0.240,0.200
15:19:23.868,-0.230,0.150
15:19:23.872,-0.210,0.125
15:19:23.876,-0.195,0.110
15:19:23.880,-0.180,0.085
15:19:23.884,-0.160,0.060
15:19:23.888,-0.165,0.050
15:19:23.892,-0.180,0.050
15:19:23.896,-0.180,0.055
15:19:23.900,-0.180,0.070
15:19:23.904,-0.215,0.055
15:19:23.908,-0.215,0.065
15:19:23.912,-0.245,0.050
15:19:23.916,-0.235,0.050
15:19:23.920,-0.240,0.060
15:19:23.924,-0.230,0.060
15:19:23.928,-0.255,0.080
15:19:23.932,-0.250,0.050
15:19:23.936,-0.250,0.035
15:19:23.940,-0.265,0.065
15:19:23.944,-0.250,0.090
15:19:23.948,-0.265,0.085
15:19:23.952,-0.255,0.100
15:19:23.956,-0.235,0.095
15:19:23.960,-0.250,0.120
15:19:23.964,-0.270,0.145
15:19:23.968,-0.315,0.115
15:19:23.972,-0.280,0.120
15:19:23.976,-0.275,0.105
15:19:23.980,-0.275,0.095
15:19:23.984,-0.275,0.110
15:19:23.988,-0.265,0.115
15:19:23.992,-0.270,0.095
15:19:23.996,-0.305,0.090
15:19:24.000,-0.300,0.110
15:19:24.004,-0.310,0.110
15:19:24.008,-0.300,0.090
15:19:24.012,-0.295,0.095
15:19:24.016,-0.270,0.105
15:19:24.020,-0.275,0.100
15:19:24.024,-0.255,0.120
15:19:24.028,-0.240,0.120
15:19:24.032,-0.240,0.115
15:19:24.036,-0.230,0.125
15:19:24.040,-0.245,0.120
15:19:24.044,-0.255,0.150
15:19:24.048,-0.270,0.190
15:19:24.052,-0.285,0.185
15:19:24.056,-0.315,0.185
15:19:24.060,-0.300,0.180
15:19:24.064,-0.250,0.210
15:19:24.068,-0.230,0.180
15:19:24.072,-0.250,0.175
15:19:24.076,-0.255,0.175
15:19:24.080,-0.275,0.175
15:19:24.084,-0.275,0.165
15:19:24.088,-0.245,0.110
15:19:24.092,-0.260,0.095
15:19:24.096,-0.270,0.055
15:19:24.100,-0.275,0.050
15:19:24.104,-0.315,0.050
15:19:24.108,-0.320,0.025
15:19:24.112,-0.345,0.015
15:19:24.116,-0.345,0.015
15:19:24.120,-0.335,0.005
15:19:24.124,-0.345,-0.005
15:19:24.128,-0.350,-0.005
15:19:24.132,-0.350,0.000
15:19:24.136,-0.340,0.000
15:19:24.140,-0.365,0.000
15:19:24.144,-0.355,0.005
15:19:24.148,-0.375,-0.015
15:19:24.152,-0.410,-0.040
15:19:24.156,-0.385,-0.025
15:19:24.160,-0.365,-0.030
15:19:24.164,-0.345,-0.030
15:19:24.168,-0.330,-0.015
15:19:24.172,-0.320,-0.025
15:19:24.176,-0.320,-0.025
15:19:24.180,-0.315,-0.020
15:19:24.184,-0.320,-0.020
15:19:24.188,-0.325,-0.020
15:19:24.192,-0.350,0.005
15:19:24.196,-0.330,0.010
15:19:24.200,-0.325,0.035
15:19:24.204,-0.310,0.040
15:19:24.208,-0.310,0.030
15:19:24.212,-0.275,0.055
15:19:24.216,-0.225,0.065
15:19:24.220,-0.185,0.040
15:19:24.224,-0.110,0.040
15:19:24.228,-0.045,0.035
15:19:24.232,0.035,-0.010
15:19:24.236,0.085,-0.060
15:19:24.240,0.115,-0.110
15:19:24.244,0.145,-0.170
15:19:24.248,0.125,-0.210
15:19:24.252,0.045,-0.290
15:19:24.256,-0.005,-0.380
15:19:24.260,0.035,-0.495
15:19:24.264,0.165,-0.655
15:19:24.268,0.450,-0.870
15:19:24.272,0.810,-1.105
15:19:24.276,1.030,-1.280
15:19:24.280,0.995,-1.340
15:19:24.284,0.680,-1.115
15:19:24.288,0.225,-0.685
15:19:24.292,-0.100,-0.270
15:19:24.296,-0.265,-0.055
15:19:24.300,-0.350,0.025
15:19:24.304,-0.450,0.130
15:19:24.308,-0.515,0.195
15:19:24.312,-0.525,0.265
15:19:24.316,-0.525,0.290
15:19:24.320,-0.540,0.290
15:19:24.324,-0.550,0.310
15:19:24.328,-0.520,0.275
15:19:24.332,-0.500,0.280
15:19:24.336,-0.480,0.255
15:19:24.340,-0.480,0.240
15:19:24.344,-0.500,0.240
15:19:24.348,-0.510,0.240
15:19:24.352,-0.525,0.235
15:19:24.356,-0.485,0.190
15:19:24.360,-0.425,0.170
15:19:24.364,-0.410,0.170
15:19:24.368,-0.400,0.170
15:19:24.372,-0.440,0.140
15:19:24.376,-0.465,0.145
15:19:24.380,-0.500,0.120
15:19:24.384,-0.490,0.100
15:19:24.388,-0.490,0.090
15:19:24.392,-0.480,0.100
15:19:24.396,-0.505,0.090
15:19:24.400,-0.510,0.100
15:19:24.404,-0.525,0.075
15:19:24.408,-0.530,0.090
15:19:24.412,-0.535,0.090
15:19:24.416,-0.520,0.105
15:19:24.420,-0.495,0.125
15:19:24.424,-0.460,0.110
15:19:24.428,-0.460,0.110
15:19:24.432,-0.480,0.090
15:19:24.436,-0.490,0.075
15:19:24.440,-0.440,0.080
15:19:24.444,-0.445,0.095
15:19:24.448,-0.485,0.095
15:19:24.452,-0.480,0.120
15:19:24.456,-0.460,0.135
15:19:24.460,-0.435,0.145
15:19:24.464,-0.395,0.170
15:19:24.468,-0.360,0.165
15:19:24.472,-0.340,0.130
15:19:24.476,-0.360,0.135
15:19:24.480,-0.385,0.110
15:19:24.484,-0.345,0.130
15:19:24.488,-0.350,0.120
15:19:24.492,-0.330,0.095
15:19:24.496,-0.345,0.110
15:19:24.500,-0.335,0.105
15:19:24.504,-0.345,0.090
15:19:24.508,-0.355,0.065
15:19:24.512,-0.385,0.070
15:19:24.516,-0.370,0.080
15:19:24.520,-0.355,0.070
15:19:24.524,-0.335,0.090
15:19:24.528,-0.310,0.065
15:19:24.532,-0.340,0.070
15:19:24.536,-0.330,0.050
15:19:24.540,-0.295,0.060
15:19:24.544,-0.325,0.045
15:19:24.548,-0.320,0.075
15:19:24.552,-0.310,0.070
15:19:24.556,-0.290,0.055
15:19:24.560,-0.310,0.080
15:19:24.564,-0.300,0.095
15:19:24.568,-0.315,0.095
15:19:24.572,-0.330,0.095
15:19:24.576,-0.290,0.100
15:19:24.580,-0.280,0.070
15:19:24.584,-0.290,0.075
15:19:24.588,-0.290,0.100
15:19:24.592,-0.350,0.100
15:19:24.596,-0.340,0.100
15:19:24.600,-0.315,0.110
15:19:24.604,-0.300,0.095
15:19:24.608,-0.320,0.110
15:19:24.612,-0.330,0.110
15:19:24.616,-0.310,0.100
15:19:24.620,-0.270,0.120
15:19:24.624,-0.250,0.090
15:19:24.628,-0.275,0.095
15:19:24.632,-0.275,0.040
15:19:24.636,-0.315,0.020
15:19:24.640,-0.310,-0.005
15:19:24.644,-0.275,-0.015
15:19:24.648,-0.265,-0.035
15:19:24.652,-0.230,-0.050
15:19:24.656,-0.200,-0.040
15:19:24.660,-0.145,-0.025
15:19:24.664,-0.080,-0.035
15:19:24.668,-0.025,-0.055
15:19:24.672,0.010,-0.100
15:19:24.676,0.050,-0.155
15:19:24.680,0.075,-0.200
15:19:24.684,0.065,-0.220
15:19:24.688,0.010,-0.285
15:19:24.692,-0.020,-0.320
15:19:24.696,0.050,-0.445
15:19:24.700,0.230,-0.565
15:19:24.704,0.510,-0.800
15:19:24.708,0.885,-1.035
15:19:24.712,1.100,-1.225
15:19:24.716,1.130,-1.300
15:19:24.720,0.840,-1.140
15:19:24.724,0.365,-0.765
15:19:24.728,0.010,-0.405
15:19:24.732,-0.205,-0.195
15:19:24.736,-0.345,-0.060
15:19:24.740,-0.405,0.020
15:19:24.744,-0.425,0.090
15:19:24.748,-0.470,0.130
15:19:24.752,-0.500,0.160
15:19:24.756,-0.500,0.175
15:19:24.760,-0.510,0.185
15:19:24.764,-0.490,0.170
15:19:24.768,-0.520,0.165
15:19:24.772,-0.525,0.175
15:19:24.776,-0.520,0.190
15:19:24.780,-0.540,0.190
15:19:24.784,-0.530,0.170
15:19:24.788,-0.540,0.200
15:19:24.792,-0.540,0.210
15:19:24.796,-0.570,0.205
15:19:24.800,-0.575,0.235
15:19:24.804,-0.555,0.220
15:19:24.808,-0.555,0.240
15:19:24.812,-0.585,0.220
15:19:24.816,-0.565,0.225
15:19:24.820,-0.535,0.255
15:19:24.824,-0.520,0.255
15:19:24.828,-0.530,0.250
15:19:24.832,-0.550,0.265
15:19:24.836,-0.530,0.280
15:19:24.840,-0.520,0.275
15:19:24.844,-0.515,0.275
15:19:24.848,-0.500,0.275
15:19:24.852,-0.485,0.270
15:19:24.856,-0.500,0.250
15:19:24.860,-0.485,0.230
15:19:24.864,-0.460,0.240
15:19:24.868,-0.455,0.230
15:19:24.872,-0.430,0.235
15:19:24.876,-0.425,0.220
15:19:24.880,-0.425,0.200
15:19:24.884,-0.405,0.200
15:19:24.888,-0.395,0.165
15:19:24.892,-0.395,0.130
15:19:24.896,-0.395,0.105
15:19:24.900,-0.410,0.095
15:19:24.904,-0.400,0.065
15:19:24.908,-0.385,0.045
15:19:24.912,-0.360,0.070
15:19:24.916,-0.370,0.020
15:19:24.920,-0.365,0.035
15:19:24.924,-0.320,0.030
15:19:24.928,-0.315,0.040
15:19:24.932,-0.340,0.005
15:19:24.936,-0.320,0.020
15:19:24.940,-0.305,0.015
15:19:24.944,-0.300,0.010
15:19:24.948,-0.295,0.000
15:19:24.952,-0.300,0.010
15:19:24.956,-0.295,0.000
15:19:24.960,-0.275,0.000
15:19:24.964,-0.270,-0.015
15:19:24.968,-0.275,-0.005
15:19:24.972,-0.275,-0.015
15:19:24.976,-0.255,0.000
15:19:24.980,-0.290,-0.005
15:19:24.984,-0.290,-0.010
15:19:24.988,-0.295,-0.015
15:19:24.992,-0.305,-0.015
15:19:24.996,-0.310,0.005
15:19:25.000,-0.330,0.000
15:19:25.004,-0.345,0.020
15:19:25.008,-0.315,0.045
15:19:25.012,-0.315,0.035
15:19:25.016,-0.305,0.045
15:19:25.020,-0.285,0.050
15:19:25.024,-0.305,0.070
15:19:25.028,-0.305,0.095
15:19:25.032,-0.330,0.100
15:19:25.036,-0.345,0.125
15:19:25.040,-0.360,0.110
15:19:25.044,-0.385,0.130
15:19:25.048,-0.395,0.130
15:19:25.052,-0.365,0.145
15:19:25.056,-0.360,0.145
15:19:25.060,-0.375,0.155
15:19:25.064,-0.360,0.135
15:19:25.068,-0.370,0.150
15:19:25.072,-0.395,0.135
15:19:25.076,-0.400,0.160
15:19:25.080,-0.390,0.135
15:19:25.084,-0.390,0.150
15:19:25.088,-0.395,0.150
15:19:25.092,-0.370,0.135
15:19:25.096,-0.385,0.160
15:19:25.100,-0.355,0.135
15:19:25.104,-0.340,0.140
15:19:25.108,-0.320,0.115
15:19:25.112,-0.320,0.095
15:19:25.116,-0.305,0.085
15:19:25.120,-0.325,0.040
15:19:25.124,-0.295,0.055
15:19:25.128,-0.275,0.040
15:19:25.132,-0.250,0.015
15:19:25.136,-0.240,0.010
15:19:25.140,-0.240,0.000
15:19:25.144,-0.255,-0.015
15:19:25.148,-0.235,0.000
15:19:25.152,-0.235,0.025
15:19:25.156,-0.245,0.005
15:19:25.160,-0.250,0.030
15:19:25.164,-0.270,0.040
15:19:25.168,-0.230,0.040
15:19:25.172,-0.245,0.060
15:19:25.176,-0.240,0.035
15:19:25.180,-0.245,0.025
15:19:25.184,-0.235,0.040
15:19:25.188,-0.230,0.020
15:19:25.192,-0.235,0.015
15:19:25.196,-0.215,0.020
15:19:25.200,-0.200,0.035
15:19:25.204,-0.150,0.025
15:19:25.208,-0.090,0.010
15:19:25.212,-0.015,0.010
15:19:25.216,0.025,-0.010
15:19:25.220,0.025,-0.045
15:19:25.224,0.030,-0.110
15:19:25.228,0.030,-0.140
15:19:25.232,0.025,-0.195
15:19:25.236,0.020,-0.225
15:19:25.240,-0.010,-0.315
15:19:25.244,-0.045,-0.430
15:19:25.248,0.030,-0.590
15:19:25.252,0.240,-0.800
15:19:25.256,0.535,-1.035
15:19:25.260,0.725,-1.265
15:19:25.264,0.800,-1.340
15:19:25.268,0.590,-1.285
15:19:25.272,0.220,-0.915
15:19:25.276,-0.155,-0.475
15:19:25.280,-0.410,-0.205
15:19:25.284,-0.535,-0.030
15:19:25.288,-0.565,0.050
15:19:25.292,-0.590,0.155
15:19:25.296,-0.570,0.235
15:19:25.300,-0.545,0.270
15:19:25.304,-0.560,0.280
15:19:25.308,-0.570,0.300
15:19:25.312,-0.565,0.290
15:19:25.316,-0.545,0.305
15:19:25.320,-0.555,0.275
15:19:25.324,-0.545,0.270
15:19:25.328,-0.525,0.300
15:19:25.332,-0.510,0.295
15:19:25.336,-0.470,0.315
15:19:25.340,-0.465,0.305
15:19:25.344,-0.445,0.300
15:19:25.348,-0.425,0.300
15:19:25.352,-0.425,0.285
15:19:25.356,-0.405,0.255
15:19:25.360,-0.395,0.290
15:19:25.364,-0.405,0.265
15:19:25.368,-0.390,0.240
15:19:25.372,-0.340,0.240
15:19:25.376,-0.320,0.235
15:19:25.380,-0.330,0.225
15:19:25.384,-0.335,0.215
15:19:25.388,-0.305,0.220
15:19:25.392,-0.290,0.225
15:19:25.396,-0.290,0.200
15:19:25.400,-0.320,0.205
15:19:25.404,-0.335,0.195
15:19:25.408,-0.315,0.190
15:19:25.412,-0.305,0.205
15:19:25.416,-0.320,0.175
15:19:25.420,-0.335,0.190
15:19:25.424,-0.330,0.180
15:19:25.428,-0.305,0.165
15:19:25.432,-0.305,0.180
15:19:25.436,-0.310,0.175
15:19:25.440,-0.315,0.180
15:19:25.444,-0.295,0.165
15:19:25.448,-0.280,0.160
15:19:25.452,-0.285,0.145
15:19:25.456,-0.320,0.120
15:19:25.460,-0.320,0.135
15:19:25.464,-0.310,0.135
15:19:25.468,-0.280,0.115
15:19:25.472,-0.280,0.145
15:19:25.476,-0.250,0.125
15:19:25.480,-0.270,0.130
15:19:25.484,-0.260,0.105
15:19:25.488,-0.265,0.095
15:19:25.492,-0.275,0.095
15:19:25.496,-0.290,0.090
15:19:25.500,-0.285,0.090
15:19:25.504,-0.285,0.085
15:19:25.508,-0.255,0.080
15:19:25.512,-0.245,0.080
15:19:25.516,-0.235,0.095
15:19:25.520,-0.260,0.085
15:19:25.524,-0.290,0.100
15:19:25.528,-0.310,0.130
15:19:25.532,-0.325,0.130
15:19:25.536,-0.300,0.155
15:19:25.540,-0.265,0.145
15:19:25.544,-0.255,0.140
15:19:25.548,-0.265,0.135
15:19:25.552,-0.270,0.155
15:19:25.556,-0.300,0.155
15:19:25.560,-0.305,0.165
15:19:25.564,-0.310,0.170
15:19:25.568,-0.305,0.165
15:19:25.572,-0.320,0.165
15:19:25.576,-0.315,0.170
15:19:25.580,-0.300,0.170
15:19:25.584,-0.255,0.155
15:19:25.588,-0.240,0.155
15:19:25.592,-0.215,0.190
15:19:25.596,-0.210,0.195
15:19:25.600,-0.205,0.200
15:19:25.604,-0.190,0.220
15:19:25.608,-0.185,0.200
15:19:25.612,-0.180,0.185
15:19:25.616,-0.160,0.185
15:19:25.620,-0.150,0.135
15:19:25.624,-0.160,0.135
15:19:25.628,-0.175,0.125
15:19:25.632,-0.180,0.120
15:19:25.636,-0.165,0.105
15:19:25.640,-0.155,0.100
15:19:25.644,-0.170,0.070
15:19:25.648,-0.145,0.065
15:19:25.652,-0.140,0.080
15:19:25.656,-0.125,0.050
15:19:25.660,-0.070,0.055
15:19:25.664,0.000,0.045
15:19:25.668,0.070,0.055
15:19:25.672,0.120,0.035
15:19:25.676,0.105,-0.005
15:19:25.680,0.110,-0.050
15:19:25.684,0.075,-0.100
15:19:25.688,0.065,-0.140
15:19:25.692,-0.005,-0.180
15:19:25.696,-0.065,-0.230
15:19:25.700,-0.080,-0.350
15:19:25.704,0.050,-0.520
15:19:25.708,0.285,-0.720
15:19:25.712,0.575,-0.980
15:19:25.716,0.815,-1.240
15:19:25.720,0.885,-1.360
15:19:25.724,0.730,-1.300
15:19:25.728,0.390,-0.970
15:19:25.732,0.020,-0.515
15:19:25.736,-0.195,-0.215
15:19:25.740,-0.320,-0.050
15:19:25.744,-0.370,0.035
15:19:25.748,-0.400,0.125
15:19:25.752,-0.410,0.180
15:19:25.756,-0.400,0.230
15:19:25.760,-0.415,0.250
15:19:25.764,-0.420,0.275
15:19:25.768,-0.420,0.265
15:19:25.772,-0.425,0.290
15:19:25.776,-0.470,0.280
15:19:25.780,-0.450,0.285
15:19:25.784,-0.440,0.305
15:19:25.788,-0.470,0.325
15:19:25.792,-0.490,0.330
15:19:25.796,-0.450,0.365
15:19:25.800,-0.440,0.370
15:19:25.804,-0.425,0.375
15:19:25.808,-0.415,0.405
15:19:25.812,-0.400,0.385
15:19:25.816,-0.400,0.375
15:19:25.820,-0.405,0.360
15:19:25.824,-0.365,0.370
15:19:25.828,-0.330,0.385
15:19:25.832,-0.305,0.380
15:19:25.836,-0.290,0.400
15:19:25.840,-0.285,0.405
15:19:25.844,-0.265,0.385
15:19:25.848,-0.250,0.365
15:19:25.852,-0.220,0.365
15:19:25.856,-0.230,0.340
15:19:25.860,-0.220,0.330
15:19:25.864,-0.230,0.325
15:19:25.868,-0.240,0.330
15:19:25.872,-0.225,0.290
15:19:25.876,-0.210,0.295
15:19:25.880,-0.205,0.275
15:19:25.884,-0.195,0.260
15:19:25.888,-0.175,0.255
15:19:25.892,-0.180,0.250
15:19:25.896,-0.170,0.240
15:19:25.900,-0.165,0.200
15:19:25.904,-0.135,0.200
15:19:25.908,-0.155,0.190
15:19:25.912,-0.170,0.170
15:19:25.916,-0.180,0.150
15:19:25.920,-0.185,0.130
15:19:25.924,-0.175,0.140
15:19:25.928,-0.160,0.120
15:19:25.932,-0.140,0.100
15:19:25.936,-0.195,0.075
15:19:25.940,-0.195,0.085
15:19:25.944,-0.205,0.060
15:19:25.948,-0.180,0.030
15:19:25.952,-0.170,0.015
15:19:25.956,-0.165,0.040
15:19:25.960,-0.160,0.025
15:19:25.964,-0.195,0.030
15:19:25.968,-0.170,0.025
15:19:25.972,-0.160,0.035
15:19:25.976,-0.165,0.025
15:19:25.980,-0.195,0.025
15:19:25.984,-0.185,0.055
15:19:25.988,-0.165,0.035
15:19:25.992,-0.160,0.020
15:19:25.996,-0.145,0.040
15:19:26.000,-0.140,0.075
15:19:26.004,-0.165,0.065
15:19:26.008,-0.160,0.105
15:19:26.012,-0.155,0.120
15:19:26.016,-0.155,0.125
15:19:26.020,-0.175,0.165
15:19:26.024,-0.160,0.145
15:19:26.028,-0.125,0.170
15:19:26.032,-0.080,0.175
15:19:26.036,-0.035,0.165
15:19:26.040,0.010,0.155
15:19:26.044,-0.010,0.115
15:19:26.048,-0.045,0.080
15:19:26.052,-0.100,0.055
15:19:26.056,-0.155,0.045
15:19:26.060,-0.225,-0.075
15:19:26.064,-0.275,-0.160
15:19:26.068,-0.205,-0.350
15:19:26.072,0.005,-0.550
15:19:26.076,0.335,-0.845
15:19:26.080,0.715,-1.160
15:19:26.084,0.965,-1.405
15:19:26.088,1.000,-1.470
15:19:26.092,0.805,-1.330
15:19:26.096,0.450,-0.935
15:19:26.100,0.100,-0.475
15:19:26.104,-0.130,-0.175
15:19:26.108,-0.250,-0.050
15:19:26.112,-0.325,0.035
15:19:26.116,-0.360,0.105
15:19:26.120,-0.410,0.175
15:19:26.124,-0.400,0.195
15:19:26.128,-0.395,0.200
15:19:26.132,-0.405,0.165
15:19:26.136,-0.420,0.140
15:19:26.140,-0.400,0.165
15:19:26.144,-0.410,0.145
15:19:26.148,-0.400,0.150
15:19:26.152,-0.450,0.145
15:19:26.156,-0.435,0.175
15:19:26.160,-0.420,0.160
15:19:26.164,-0.435,0.145
15:19:26.168,-0.445,0.150
15:19:26.172,-0.450,0.145
15:19:26.176,-0.435,0.155
15:19:26.180,-0.425,0.160
15:19:26.184,-0.420,0.185
15:19:26.188,-0.445,0.185
15:19:26.192,-0.435,0.195
15:19:26.196,-0.440,0.180
15:19:26.200,-0.445,0.175
15:19:26.204,-0.475,0.230
15:19:26.208,-0.475,0.195
15:19:26.212,-0.475,0.215
15:19:26.216,-0.465,0.205
15:19:26.220,-0.455,0.225
15:19:26.224,-0.475,0.240
15:19:26.228,-0.490,0.230
15:19:26.232,-0.490,0.220
15:19:26.236,-0.445,0.200
15:19:26.240,-0.440,0.235
15:19:26.244,-0.465,0.205
15:19:26.248,-0.460,0.205
15:19:26.252,-0.445,0.230
15:19:26.256,-0.455,0.245
15:19:26.260,-0.450,0.240
15:19:26.264,-0.425,0.250
15:19:26.268,-0.400,0.250
15:19:26.272,-0.395,0.250
15:19:26.276,-0.430,0.240
15:19:26.280,-0.425,0.205
15:19:26.284,-0.445,0.205
15:19:26.288,-0.425,0.170
15:19:26.292,-0.380,0.150
15:19:26.296,-0.350,0.120
15:19:26.300,-0.350,0.110
15:19:26.304,-0.360,0.100
15:19:26.308,-0.345,0.055
15:19:26.312,-0.370,0.040
15:19:26.316,-0.330,0.045
15:19:26.320,-0.285,0.070
15:19:26.324,-0.265,0.035
15:19:26.328,-0.255,0.035
15:19:26.332,-0.245,0.035
15:19:26.336,-0.220,0.025
15:19:26.340,-0.230,0.040
15:19:26.344,-0.220,0.050
15:19:26.348,-0.225,0.025
15:19:26.352,-0.205,0.050
15:19:26.356,-0.220,0.060
15:19:26.360,-0.225,0.060
15:19:26.364,-0.195,0.090
15:19:26.368,-0.180,0.095
15:19:26.372,-0.160,0.095
15:19:26.376,-0.190,0.075
15:19:26.380,-0.180,0.060
15:19:26.384,-0.155,0.040
15:19:26.388,-0.105,0.040
15:19:26.392,-0.075,0.020
15:19:26.396,-0.025,0.005
15:19:26.400,0.030,-0.020
15:19:26.404,0.050,-0.070
15:19:26.408,0.000,-0.110
15:19:26.412,-0.010,-0.140
15:19:26.416,-0.030,-0.160
15:19:26.420,-0.050,-0.225
15:19:26.424,-0.060,-0.280
15:19:26.428,-0.090,-0.385
15:19:26.432,-0.020,-0.500
15:19:26.436,0.135,-0.675
15:19:26.440,0.455,-0.880
15:19:26.444,0.780,-1.130
15:19:26.448,0.995,-1.310
15:19:26.452,0.990,-1.355
15:19:26.456,0.690,-1.150
15:19:26.460,0.280,-0.765
15:19:26.464,-0.055,-0.365
15:19:26.468,-0.240,-0.150
15:19:26.472,-0.360,-0.040
15:19:26.476,-0.390,0.015
15:19:26.480,-0.445,0.115
15:19:26.484,-0.465,0.165
15:19:26.488,-0.490,0.190
15:19:26.492,-0.505,0.215
15:19:26.496,-0.460,0.230
15:19:26.500,-0.425,0.225
15:19:26.504,-0.440,0.235
15:19:26.508,-0.460,0.220
15:19:26.512,-0.450,0.200
15:19:26.516,-0.445,0.220
15:19:26.520,-0.450,0.225
15:19:26.524,-0.460,0.215
15:19:26.528,-0.475,0.235
15:19:26.532,-0.485,0.220
15:19:26.536,-0.480,0.220
15:19:26.540,-0.425,0.230
15:19:26.544,-0.435,0.245
15:19:26.548,-0.430,0.230
15:19:26.552,-0.430,0.225
15:19:26.556,-0.430,0.240
15:19:26.560,-0.450,0.205
15:19:26.564,-0.450,0.210
15:19:26.568,-0.465,0.230
15:19:26.572,-0.470,0.240
15:19:26.576,-0.455,0.220
15:19:26.580,-0.435,0.245
15:19:26.584,-0.430,0.215
15:19:26.588,-0.415,0.235
15:19:26.592,-0.410,0.240
15:19:26.596,-0.410,0.225
15:19:26.600,-0.415,0.225
15:19:26.604,-0.410,0.215
15:19:26.608,-0.395,0.230
15:19:26.612,-0.370,0.210
15:19:26.616,-0.370,0.225
15:19:26.620,-0.370,0.220
15:19:26.624,-0.320,0.200
15:19:26.628,-0.295,0.220
15:19:26.632,-0.290,0.215
15:19:26.636,-0.270,0.195
15:19:26.640,-0.260,0.190
15:19:26.644,-0.270,0.195
15:19:26.648,-0.260,0.170
15:19:26.652,-0.255,0.135
15:19:26.656,-0.240,0.115
15:19:26.660,-0.230,0.085
15:19:26.664,-0.250,0.055
15:19:26.668,-0.230,0.025
15:19:26.672,-0.220,0.025
15:19:26.676,-0.210,0.030
15:19:26.680,-0.205,0.020
15:19:26.684,-0.180,0.020
15:19:26.688,-0.190,0.005
15:19:26.692,-0.200,0.005
15:19:26.696,-0.185,-0.005
15:19:26.700,-0.185,0.005
15:19:26.704,-0.180,0.025
15:19:26.708,-0.165,0.020
15:19:26.712,-0.200,0.035
15:19:26.716,-0.225,0.040
15:19:26.720,-0.225,0.045
15:19:26.724,-0.225,0.065
15:19:26.728,-0.235,0.085
15:19:26.732,-0.240,0.095
15:19:26.736,-0.260,0.100
15:19:26.740,-0.260,0.075
15:19:26.744,-0.285,0.075
15:19:26.748,-0.250,0.065
15:19:26.752,-0.240,0.075
15:19:26.756,-0.235,0.075
15:19:26.760,-0.235,0.095
15:19:26.764,-0.265,0.090
15:19:26.768,-0.265,0.080
15:19:26.772,-0.260,0.090
15:19:26.776,-0.260,0.095
15:19:26.780,-0.285,0.120
15:19:26.784,-0.285,0.145
15:19:26.788,-0.290,0.140
15:19:26.792,-0.280,0.115
15:19:26.796,-0.270,0.120
15:19:26.800,-0.275,0.120
15:19:26.804,-0.280,0.120
15:19:26.808,-0.290,0.115
15:19:26.812,-0.275,0.125
15:19:26.816,-0.285,0.125
15:19:26.820,-0.245,0.110
15:19:26.824,-0.230,0.130
15:19:26.828,-0.255,0.130
15:19:26.832,-0.255,0.110
15:19:26.836,-0.245,0.115
15:19:26.840,-0.240,0.135
15:19:26.844,-0.260,0.125
15:19:26.848,-0.280,0.140
15:19:26.852,-0.280,0.125
15:19:26.856,-0.240,0.130
15:19:26.860,-0.240,0.130
15:19:26.864,-0.230,0.110
15:19:26.868,-0.230,0.120
15:19:26.872,-0.210,0.120
15:19:26.876,-0.200,0.140
15:19:26.880,-0.200,0.140
15:19:26.884,-0.195,0.140
15:19:26.888,-0.200,0.155
15:19:26.892,-0.180,0.135
15:19:26.896,-0.200,0.130
15:19:26.900,-0.190,0.110
15:19:26.904,-0.175,0.115
15:19:26.908,-0.165,0.075
15:19:26.912,-0.190,0.065
15:19:26.916,-0.190,0.040
15:19:26.920,-0.190,0.045
15:19:26.924,-0.180,0.020
15:19:26.928,-0.185,0.000
15:19:26.932,-0.185,0.005
15:19:26.936,-0.185,0.005
15:19:26.940,-0.165,0.035
15:19:26.944,-0.120,0.040
15:19:26.948,-0.085,0.025
15:19:26.952,-0.010,0.015
15:19:26.956,0.045,-0.015
15:19:26.960,0.050,-0.030
15:19:26.964,0.055,-0.090
15:19:26.968,0.055,-0.145
15:19:26.972,0.080,-0.195
15:19:26.976,0.070,-0.265
15:19:26.980,0.060,-0.360
15:19:26.984,0.065,-0.490
15:19:26.988,0.170,-0.655
15:19:26.992,0.415,-0.875
15:19:26.996,0.735,-1.115
15:19:27.000,0.985,-1.315
15:19:27.004,1.020,-1.400
15:19:27.008,0.795,-1.305
15:19:27.012,0.405,-0.955
15:19:27.016,0.010,-0.525
15:19:27.020,-0.200,-0.225
15:19:27.024,-0.290,-0.090
15:19:27.028,-0.360,0.035
15:19:27.032,-0.385,0.125
15:19:27.036,-0.395,0.210
15:19:27.040,-0.415,0.230
15:19:27.044,-0.390,0.270
15:19:27.048,-0.370,0.275
15:19:27.052,-0.370,0.270
15:19:27.056,-0.380,0.265
15:19:27.060,-0.420,0.275
15:19:27.064,-0.390,0.245
15:19:27.068,-0.410,0.245
15:19:27.072,-0.445,0.270
15:19:27.076,-0.420,0.240
15:19:27.080,-0.415,0.255
15:19:27.084,-0.390,0.250
15:19:27.088,-0.380,0.240
15:19:27.092,-0.365,0.230
15:19:27.096,-0.350,0.235
15:19:27.100,-0.340,0.255
15:19:27.104,-0.345,0.265
15:19:27.108,-0.340,0.280
15:19:27.112,-0.350,0.280
15:19:27.116,-0.310,0.270
15:19:27.120,-0.290,0.265
15:19:27.124,-0.270,0.285
15:19:27.128,-0.275,0.255
15:19:27.132,-0.240,0.240
15:19:27.136,-0.240,0.230
15:19:27.140,-0.245,0.230
15:19:27.144,-0.260,0.250
15:19:27.148,-0.270,0.240
15:19:27.152,-0.230,0.235
15:19:27.156,-0.210,0.200
15:19:27.160,-0.200,0.220
15:19:27.164,-0.180,0.225
15:19:27.168,-0.190,0.215
15:19:27.172,-0.225,0.240
15:19:27.176,-0.265,0.215
15:19:27.180,-0.250,0.225
15:19:27.184,-0.245,0.220
15:19:27.188,-0.265,0.250
15:19:27.192,-0.280,0.225
15:19:27.196,-0.290,0.200
15:19:27.200,-0.280,0.180
15:19:27.204,-0.285,0.155
15:19:27.208,-0.290,0.125
15:19:27.212,-0.290,0.115
15:19:27.216,-0.315,0.090
15:19:27.220,-0.310,0.110
15:19:27.224,-0.340,0.100
15:19:27.228,-0.330,0.080
15:19:27.232,-0.310,0.055
15:19:27.236,-0.305,0.055
15:19:27.240,-0.285,0.035
15:19:27.244,-0.265,0.045
15:19:27.248,-0.250,0.030
15:19:27.252,-0.250,0.040
15:19:27.256,-0.230,0.015
15:19:27.260,-0.205,0.030
15:19:27.264,-0.195,0.025
15:19:27.268,-0.205,0.045
15:19:27.272,-0.170,0.035
15:19:27.276,-0.170,0.035
15:19:27.280,-0.155,0.050
15:19:27.284,-0.175,0.045
15:19:27.288,-0.160,0.075
15:19:27.292,-0.135,0.075
15:19:27.296,-0.140,0.090
15:19:27.300,-0.140,0.075
15:19:27.304,-0.125,0.095
15:19:27.308,-0.105,0.090
15:19:27.312,-0.100,0.105
15:19:27.316,-0.100,0.140
15:19:27.320,-0.090,0.105
15:19:27.324,-0.085,0.115
15:19:27.328,-0.065,0.135
15:19:27.332,-0.080,0.110
15:19:27.336,-0.090,0.130
15:19:27.340,-0.090,0.105
15:19:27.344,-0.090,0.070
15:19:27.348,-0.090,0.065
15:19:27.352,-0.080,0.070
15:19:27.356,-0.090,0.065
15:19:27.360,-0.105,0.065
15:19:27.364,-0.125,0.070
15:19:27.368,-0.130,0.050
15:19:27.372,-0.130,0.050
15:19:27.376,-0.120,0.070
15:19:27.380,-0.085,0.075
15:19:27.384,-0.085,0.075
15:19:27.388,-0.100,0.075
15:19:27.392,-0.105,0.055
15:19:27.396,-0.105,0.075
15:19:27.400,-0.075,0.095
15:19:27.404,-0.015,0.075
15:19:27.408,0.030,0.075
15:19:27.412,0.065,0.060
15:19:27.416,0.070,0.000
15:19:27.420,0.035,-0.050
15:19:27.424,-0.010,-0.110
15:19:27.428,-0.075,-0.130
15:19:27.432,-0.135,-0.230
15:19:27.436,-0.160,-0.310
15:19:27.440,-0.130,-0.480
15:19:27.444,0.075,-0.670
15:19:27.448,0.355,-0.895
15:19:27.452,0.670,-1.185
15:19:27.456,0.815,-1.365
15:19:27.460,0.755,-1.440
15:19:27.464,0.490,-1.205
15:19:27.468,0.130,-0.800
15:19:27.472,-0.170,-0.410
15:19:27.476,-0.335,-0.190
15:19:27.480,-0.370,-0.060
15:19:27.484,-0.420,0.025
15:19:27.488,-0.425,0.115
15:19:27.492,-0.420,0.190
15:19:27.496,-0.435,0.200
15:19:27.500,-0.425,0.210
15:19:27.504,-0.395,0.265
15:19:27.508,-0.380,0.260
15:19:27.512,-0.350,0.245
15:19:27.516,-0.345,0.245
15:19:27.520,-0.340,0.245
15:19:27.524,-0.330,0.265
15:19:27.528,-0.295,0.280
15:19:27.532,-0.295,0.280
15:19:27.536,-0.275,0.275
15:19:27.540,-0.260,0.265
15:19:27.544,-0.265,0.285
15:19:27.548,-0.265,0.245
15:19:27.552,-0.240,0.260
15:19:27.556,-0.240,0.255
15:19:27.560,-0.260,0.265
15:19:27.564,-0.230,0.230
15:19:27.568,-0.230,0.230
15:19:27.572,-0.205,0.190
15:19:27.576,-0.150,0.200
15:19:27.580,-0.130,0.190
15:19:27.584,-0.150,0.220
15:19:27.588,-0.140,0.215
15:19:27.592,-0.140,0.250
15:19:27.596,-0.140,0.235
15:19:27.600,-0.155,0.240
15:19:27.604,-0.175,0.230
15:19:27.608,-0.150,0.240
15:19:27.612,-0.150,0.270
15:19:27.616,-0.195,0.275
15:19:27.620,-0.240,0.275
15:19:27.624,-0.245,0.270
15:19:27.628,-0.220,0.270
15:19:27.632,-0.210,0.300
15:19:27.636,-0.175,0.260
15:19:27.640,-0.210,0.240
15:19:27.644,-0.205,0.245
15:19:27.648,-0.200,0.225
15:19:27.652,-0.180,0.240
15:19:27.656,-0.180,0.215
15:19:27.660,-0.175,0.200
15:19:27.664,-0.180,0.170
15:19:27.668,-0.175,0.170
15:19:27.672,-0.170,0.160
15:19:27.676,-0.190,0.135
15:19:27.680,-0.190,0.130
15:19:27.684,-0.210,0.125
15:19:27.688,-0.205,0.105
15:19:27.692,-0.210,0.080
15:19:27.696,-0.210,0.075
15:19:27.700,-0.215,0.065
15:19:27.704,-0.215,0.045
15:19:27.708,-0.205,0.030
15:19:27.712,-0.200,0.050
15:19:27.716,-0.205,0.055
15:19:27.720,-0.195,0.045
15:19:27.724,-0.170,0.035
15:19:27.728,-0.150,0.050
15:19:27.732,-0.095,0.040
15:19:27.736,-0.100,0.065
15:19:27.740,-0.125,0.070
15:19:27.744,-0.120,0.070
15:19:27.748,-0.135,0.095
15:19:27.752,-0.120,0.090
15:19:27.756,-0.110,0.060
15:19:27.760,-0.110,0.055
15:19:27.764,-0.140,0.030
15:19:27.768,-0.125,0.030
15:19:27.772,-0.125,0.030
15:19:27.776,-0.105,0.030
15:19:27.780,-0.145,0.020
15:19:27.784,-0.145,0.035
15:19:27.788,-0.140,0.035
15:19:27.792,-0.150,0.025
15:19:27.796,-0.175,0.055
15:19:27.800,-0.140,0.040
15:19:27.804,-0.160,0.050
15:19:27.808,-0.140,0.030
15:19:27.812,-0.120,0.030
15:19:27.816,-0.080,0.075
15:19:27.820,-0.065,0.060
15:19:27.824,-0.065,0.045
15:19:27.828,-0.100,0.060
15:19:27.832,-0.100,0.060
15:19:27.836,-0.110,0.075
15:19:27.840,-0.130,0.105
15:19:27.844,-0.145,0.100
15:19:27.848,-0.155,0.100
15:19:27.852,-0.170,0.090
15:19:27.856,-0.160,0.075
15:19:27.860,-0.155,0.065
15:19:27.864,-0.170,0.045
15:19:27.868,-0.185,0.045
15:19:27.872,-0.190,0.050
15:19:27.876,-0.195,0.045
15:19:27.880,-0.185,0.025
15:19:27.884,-0.200,0.025
15:19:27.888,-0.230,0.045
15:19:27.892,-0.235,0.030
15:19:27.896,-0.260,0.040
15:19:27.900,-0.260,0.030
15:19:27.904,-0.270,0.045
15:19:27.908,-0.285,0.050
15:19:27.912,-0.270,0.045
15:19:27.916,-0.290,0.030
15:19:27.920,-0.290,0.030
15:19:27.924,-0.315,0.030
15:19:27.928,-0.315,0.040
15:19:27.932,-0.305,0.030
15:19:27.936,-0.290,0.015
15:19:27.940,-0.290,0.030
15:19:27.944,-0.280,0.005
15:19:27.948,-0.280,0.020
15:19:27.952,-0.270,0.060
15:19:27.956,-0.305,0.030
15:19:27.960,-0.290,0.025
15:19:27.964,-0.280,0.045
15:19:27.968,-0.270,0.035
15:19:27.972,-0.250,0.015
15:19:27.976,-0.235,-0.020
15:19:27.980,-0.205,-0.010
15:19:27.984,-0.160,-0.030
15:19:27.988,-0.070,-0.040
15:19:27.992,0.000,-0.040
15:19:27.996,0.055,-0.045
15:19:28.000,0.080,-0.095
15:19:28.004,0.095,-0.180
15:19:28.008,0.105,-0.215
15:19:28.012,0.100,-0.255
15:19:28.016,0.105,-0.295
15:19:28.020,0.105,-0.395
15:19:28.024,0.080,-0.520
15:19:28.028,0.200,-0.665
15:19:28.032,0.450,-0.890
15:19:28.036,0.840,-1.145
15:19:28.040,1.125,-1.340
15:19:28.044,1.155,-1.475
15:19:28.048,0.915,-1.370
15:19:28.052,0.510,-0.955
15:19:28.056,0.155,-0.505
15:19:28.060,-0.085,-0.210
15:19:28.064,-0.220,-0.080
15:19:28.068,-0.290,0.020
15:19:28.072,-0.355,0.095
15:19:28.076,-0.355,0.145
15:19:28.080,-0.400,0.170
15:19:28.084,-0.415,0.165
15:19:28.088,-0.430,0.160
15:19:28.092,-0.380,0.135
15:19:28.096,-0.385,0.095
15:19:28.100,-0.370,0.085
15:19:28.104,-0.355,0.075
15:19:28.108,-0.360,0.075
15:19:28.112,-0.390,0.055
15:19:28.116,-0.395,0.070
15:19:28.120,-0.400,0.065
15:19:28.124,-0.390,0.070
15:19:28.128,-0.385,0.065
15:19:28.132,-0.405,0.080
15:19:28.136,-0.425,0.080
15:19:28.140,-0.415,0.085
15:19:28.144,-0.390,0.100
15:19:28.148,-0.370,0.105
15:19:28.152,-0.370,0.110
15:19:28.156,-0.400,0.110
15:19:28.160,-0.415,0.125
15:19:28.164,-0.385,0.135
15:19:28.168,-0.365,0.140
15:19:28.172,-0.370,0.125
15:19:28.176,-0.400,0.115
15:19:28.180,-0.425,0.100
15:19:28.184,-0.410,0.100
15:19:28.188,-0.410,0.085
15:19:28.192,-0.430,0.060
15:19:28.196,-0.410,0.080
15:19:28.200,-0.405,0.070
15:19:28.204,-0.415,0.085
15:19:28.208,-0.375,0.105
15:19:28.212,-0.345,0.075
15:19:28.216,-0.325,0.065
15:19:28.220,-0.345,0.060
15:19:28.224,-0.320,0.070
15:19:28.228,-0.300,0.055
15:19:28.232,-0.295,0.065
15:19:28.236,-0.290,0.045
15:19:28.240,-0.280,0.040
15:19:28.244,-0.285,0.025
15:19:28.248,-0.280,0.005
15:19:28.252,-0.280,0.000
15:19:28.256,-0.305,-0.010
15:19:28.260,-0.290,-0.005
15:19:28.264,-0.270,-0.015
15:19:28.268,-0.240,-0.020
15:19:28.272,-0.245,-0.020
15:19:28.276,-0.270,-0.015
15:19:28.280,-0.285,-0.020
15:19:28.284,-0.260,-0.040
15:19:28.288,-0.240,-0.035
15:19:28.292,-0.235,-0.045
15:19:28.296,-0.235,-0.040
15:19:28.300,-0.230,-0.040
15:19:28.304,-0.250,-0.080
15:19:28.308,-0.260,-0.070
15:19:28.312,-0.270,-0.075
15:19:28.316,-0.265,-0.065
15:19:28.320,-0.245,-0.075
15:19:28.324,-0.230,-0.065
15:19:28.328,-0.230,-0.050
15:19:28.332,-0.250,-0.065
15:19:28.336,-0.235,-0.065
15:19:28.340,-0.230,-0.055
15:19:28.344,-0.210,-0.045
15:19:28.348,-0.190,-0.045
15:19:28.352,-0.205,-0.065
15:19:28.356,-0.235,-0.045
15:19:28.360,-0.220,-0.040
15:19:28.364,-0.230,-0.045
15:19:28.368,-0.220,-0.025
15:19:28.372,-0.220,-0.020
15:19:28.376,-0.250,-0.045
15:19:28.380,-0.260,-0.045
15:19:28.384,-0.275,-0.040
15:19:28.388,-0.270,-0.020
15:19:28.392,-0.250,-0.020
15:19:28.396,-0.290,-0.010
15:19:28.400,-0.300,-0.015
15:19:28.404,-0.260,-0.010
15:19:28.408,-0.260,0.000
15:19:28.412,-0.260,-0.025
15:19:28.416,-0.290,-0.060
15:19:28.420,-0.310,-0.085
15:19:28.424,-0.315,-0.090
15:19:28.428,-0.355,-0.090
15:19:28.432,-0.360,-0.080
15:19:28.436,-0.345,-0.090
15:19:28.440,-0.310,-0.110
15:19:28.444,-0.315,-0.075
15:19:28.448,-0.330,-0.070
15:19:28.452,-0.310,-0.080
15:19:28.456,-0.290,-0.090
15:19:28.460,-0.255,-0.095
15:19:28.464,-0.225,-0.070
15:19:28.468,-0.130,-0.065
15:19:28.472,-0.035,-0.075
15:19:28.476,0.055,-0.095
15:19:28.480,0.120,-0.135
15:19:28.484,0.150,-0.190
15:19:28.488,0.185,-0.235
15:19:28.492,0.225,-0.240
15:19:28.496,0.215,-0.300
15:19:28.500,0.185,-0.370
15:19:28.504,0.165,-0.455
15:19:28.508,0.210,-0.565
15:19:28.512,0.380,-0.750
15:19:28.516,0.705,-0.960
15:19:28.520,1.025,-1.150
15:19:28.524,1.135,-1.300
15:19:28.528,0.940,-1.290
15:19:28.532,0.530,-1.025
15:19:28.536,0.150,-0.620
15:19:28.540,-0.080,-0.310
15:19:28.544,-0.200,-0.130
15:19:28.548,-0.265,-0.050
15:19:28.552,-0.325,0.055
15:19:28.556,-0.350,0.105
15:19:28.560,-0.360,0.125
15:19:28.564,-0.380,0.160
15:19:28.568,-0.390,0.160
15:19:28.572,-0.410,0.145
15:19:28.576,-0.390,0.110
15:19:28.580,-0.380,0.110
15:19:28.584,-0.380,0.075
15:19:28.588,-0.365,0.090
15:19:28.592,-0.385,0.090
15:19:28.596,-0.400,0.100
15:19:28.600,-0.410,0.090
15:19:28.604,-0.415,0.090
15:19:28.608,-0.385,0.095
15:19:28.612,-0.400,0.105
15:19:28.616,-0.400,0.100
15:19:28.620,-0.390,0.105
15:19:28.624,-0.425,0.110
15:19:28.628,-0.405,0.105
15:19:28.632,-0.375,0.115
15:19:28.636,-0.375,0.155
15:19:28.640,-0.360,0.130
15:19:28.644,-0.375,0.155
15:19:28.648,-0.380,0.105
15:19:28.652,-0.385,0.105
15:19:28.656,-0.375,0.085
15:19:28.660,-0.385,0.100
15:19:28.664,-0.380,0.110
15:19:28.668,-0.410,0.120
15:19:28.672,-0.405,0.100
15:19:28.676,-0.400,0.105
15:19:28.680,-0.380,0.130
15:19:28.684,-0.375,0.120
15:19:28.688,-0.375,0.140
15:19:28.692,-0.375,0.120
15:19:28.696,-0.365,0.145
15:19:28.700,-0.370,0.140
15:19:28.704,-0.385,0.135
15:19:28.708,-0.335,0.120
15:19:28.712,-0.295,0.110
15:19:28.716,-0.260,0.115
15:19:28.720,-0.270,0.090
15:19:28.724,-0.280,0.095
15:19:28.728,-0.275,0.090
15:19:28.732,-0.275,0.100
15:19:28.736,-0.245,0.075
15:19:28.740,-0.235,0.065
15:19:28.744,-0.225,0.060
15:19:28.748,-0.205,0.015
15:19:28.752,-0.190,0.045
15:19:28.756,-0.170,0.050
15:19:28.760,-0.155,0.015
15:19:28.764,-0.165,0.005
15:19:28.768,-0.165,-0.005
15:19:28.772,-0.135,0.005
15:19:28.776,-0.140,0.000
15:19:28.780,-0.170,-0.010
15:19:28.784,-0.165,-0.015
15:19:28.788,-0.170,-0.015
15:19:28.792,-0.140,-0.005
15:19:28.796,-0.120,-0.020
15:19:28.800,-0.125,0.000
15:19:28.804,-0.130,0.005
15:19:28.808,-0.110,0.010
15:19:28.812,-0.100,0.025
15:19:28.816,-0.080,0.040
15:19:28.820,-0.105,0.050
15:19:28.824,-0.120,0.035
15:19:28.828,-0.125,0.025
15:19:28.832,-0.115,0.035
15:19:28.836,-0.115,0.040
15:19:28.840,-0.110,0.025
15:19:28.844,-0.115,0.045
15:19:28.848,-0.115,0.035
15:19:28.852,-0.140,0.020
15:19:28.856,-0.150,0.045
15:19:28.860,-0.160,0.030
15:19:28.864,-0.160,0.005
15:19:28.868,-0.155,0.015
15:19:28.872,-0.155,0.020
15:19:28.876,-0.165,0.030
15:19:28.880,-0.160,0.050
15:19:28.884,-0.175,0.050
15:19:28.888,-0.230,0.015
15:19:28.892,-0.255,0.060
15:19:28.896,-0.265,0.060
15:19:28.900,-0.290,0.060
15:19:28.904,-0.315,0.045
15:19:28.908,-0.320,0.015
15:19:28.912,-0.320,0.035
15:19:28.916,-0.300,0.025
15:19:28.920,-0.320,0.025
15:19:28.924,-0.315,0.035
15:19:28.928,-0.320,0.055
15:19:28.932,-0.290,0.035
15:19:28.936,-0.270,0.020
15:19:28.940,-0.240,0.025
15:19:28.944,-0.255,0.040
15:19:28.948,-0.240,0.030
15:19:28.952,-0.230,0.030
15:19:28.956,-0.245,0.045
15:19:28.960,-0.230,0.060
15:19:28.964,-0.240,0.030
15:19:28.968,-0.240,0.045
15:19:28.972,-0.240,0.015
15:19:28.976,-0.225,0.025
15:19:28.980,-0.215,0.040
15:19:28.984,-0.205,0.045
15:19:28.988,-0.185,0.010
15:19:28.992,-0.155,0.015
15:19:28.996,-0.130,0.015
15:19:29.000,-0.125,0.025
15:19:29.004,-0.140,0.015
15:19:29.008,-0.135,0.025
15:19:29.012,-0.145,0.055
15:19:29.016,-0.140,0.040
15:19:29.020,-0.140,0.045
15:19:29.024,-0.140,0.025
15:19:29.028,-0.165,0.025
15:19:29.032,-0.160,0.040
15:19:29.036,-0.165,0.015
15:19:29.040,-0.160,0.035
15:19:29.044,-0.150,0.040
15:19:29.048,-0.145,0.020
15:19:29.052,-0.150,0.010
15:19:29.056,-0.135,0.015
15:19:29.060,-0.140,0.010
15:19:29.064,-0.120,-0.005
15:19:29.068,-0.140,-0.020
15:19:29.072,-0.120,-0.010
15:19:29.076,-0.130,-0.015
15:19:29.080,-0.130,0.000
15:19:29.084,-0.140,0.000
15:19:29.088,-0.130,-0.010
15:19:29.092,-0.130,0.000
15:19:29.096,-0.145,0.000
15:19:29.100,-0.135,0.015
15:19:29.104,-0.150,-0.005
15:19:29.108,-0.155,-0.020
15:19:29.112,-0.155,0.005
15:19:29.116,-0.150,-0.010
15:19:29.120,-0.175,0.005
15:19:29.124,-0.170,0.010
15:19:29.128,-0.195,-0.005
15:19:29.132,-0.210,0.015
15:19:29.136,-0.195,0.015
15:19:29.140,-0.190,0.000
15:19:29.144,-0.195,0.000
15:19:29.148,-0.195,0.005
15:19:29.152,-0.200,0.005
15:19:29.156,-0.205,0.000
15:19:29.160,-0.230,-0.030
15:19:29.164,-0.210,-0.020
15:19:29.168,-0.205,0.010
15:19:29.172,-0.190,-0.005
15:19:29.176,-0.200,0.010
15:19:29.180,-0.210,0.000
15:19:29.184,-0.210,-0.015
15:19:29.188,-0.250,0.015
15:19:29.192,-0.255,0.010
15:19:29.196,-0.245,0.010
15:19:29.200,-0.235,0.045
15:19:29.204,-0.215,0.005
15:19:29.208,-0.180,0.010
15:19:29.212,-0.195,0.020
15:19:29.216,-0.210,0.030
15:19:29.220,-0.180,0.010
15:19:29.224,-0.185,0.015
15:19:29.228,-0.170,0.005
15:19:29.232,-0.190,0.005
15:19:29.236,-0.160,-0.010
15:19:29.240,-0.150,0.040
15:19:29.244,-0.185,0.035
15:19:29.248,-0.195,0.020
15:19:29.252,-0.200,0.015
15:19:29.256,-0.195,0.020
15:19:29.260,-0.220,0.020
15:19:29.264,-0.200,0.050
15:19:29.268,-0.175,0.055
15:19:29.272,-0.160,0.055
15:19:29.276,-0.120,0.060
15:19:29.280,-0.130,0.070
15:19:29.284,-0.125,0.045
15:19:29.288,-0.115,0.030
15:19:29.292,-0.105,0.055
15:19:29.296,-0.100,0.065
15:19:29.300,-0.105,0.050
15:19:29.304,-0.115,0.040
15:19:29.308,-0.125,0.010
15:19:29.312,-0.130,0.000
15:19:29.316,-0.140,0.000
15:19:29.320,-0.145,-0.015
15:19:29.324,-0.120,-0.035
15:19:29.328,-0.105,0.000
15:19:29.332,-0.045,-0.005
15:19:29.336,0.000,0.005
15:19:29.340,0.090,0.000
15:19:29.344,0.155,-0.005
15:19:29.348,0.180,-0.010
15:19:29.352,0.130,-0.070
15:19:29.356,0.080,-0.090
15:19:29.360,0.070,-0.150
15:19:29.364,0.030,-0.185
15:19:29.368,-0.080,-0.280
15:19:29.372,-0.095,-0.360
15:19:29.376,-0.060,-0.515
15:19:29.380,0.100,-0.710
15:19:29.384,0.380,-0.935
15:19:29.388,0.640,-1.200
15:19:29.392,0.835,-1.385
15:19:29.396,0.850,-1.440
15:19:29.400,0.650,-1.335
15:19:29.404,0.325,-0.970
15:19:29.408,0.000,-0.525
15:19:29.412,-0.215,-0.225
15:19:29.416,-0.295,-0.075
15:19:29.420,-0.325,-0.010
15:19:29.424,-0.340,0.075
15:19:29.428,-0.340,0.110
15:19:29.432,-0.330,0.165
15:19:29.436,-0.320,0.170
15:19:29.440,-0.300,0.185
15:19:29.444,-0.315,0.205
15:19:29.448,-0.320,0.180
15:19:29.452,-0.330,0.185
15:19:29.456,-0.330,0.160
15:19:29.460,-0.305,0.160
15:19:29.464,-0.285,0.200
15:19:29.468,-0.275,0.210
15:19:29.472,-0.290,0.215
15:19:29.476,-0.320,0.220
15:19:29.480,-0.300,0.230
15:19:29.484,-0.305,0.255
15:19:29.488,-0.315,0.250
15:19:29.492,-0.290,0.250
15:19:29.496,-0.280,0.235
15:19:29.500,-0.260,0.210
15:19:29.504,-0.220,0.215
15:19:29.508,-0.225,0.180
15:19:29.512,-0.235,0.170
15:19:29.516,-0.260,0.160
15:19:29.520,-0.230,0.165
15:19:29.524,-0.235,0.145
15:19:29.528,-0.225,0.140
15:19:29.532,-0.205,0.170
15:19:29.536,-0.210,0.165
15:19:29.540,-0.190,0.185
15:19:29.544,-0.185,0.185
15:19:29.548,-0.185,0.180
15:19:29.552,-0.160,0.195
15:19:29.556,-0.180,0.195
15:19:29.560,-0.185,0.210
15:19:29.564,-0.190,0.230
15:19:29.568,-0.180,0.225
15:19:29.572,-0.155,0.200
15:19:29.576,-0.145,0.210
15:19:29.580,-0.145,0.195
15:19:29.584,-0.130,0.210
15:19:29.588,-0.145,0.190
15:19:29.592,-0.140,0.200
15:19:29.596,-0.115,0.175
15:19:29.600,-0.145,0.175
15:19:29.604,-0.150,0.180
15:19:29.608,-0.145,0.170
15:19:29.612,-0.105,0.180
15:19:29.616,-0.130,0.160
15:19:29.620,-0.155,0.175
15:19:29.624,-0.135,0.140
15:19:29.628,-0.170,0.155
15:19:29.632,-0.180,0.140
15:19:29.636,-0.180,0.130
15:19:29.640,-0.190,0.115
15:19:29.644,-0.175,0.100
15:19:29.648,-0.160,0.090
15:19:29.652,-0.155,0.075
15:19:29.656,-0.135,0.060
15:19:29.660,-0.160,0.030
15:19:29.664,-0.150,0.045
15:19:29.668,-0.110,0.030
15:19:29.672,-0.105,0.005
15:19:29.676,-0.095,0.015
15:19:29.680,-0.085,0.025
15:19:29.684,-0.055,0.035
15:19:29.688,-0.045,0.055
15:19:29.692,-0.005,0.035
15:19:29.696,-0.005,0.035
15:19:29.700,-0.015,0.055
15:19:29.704,-0.020,0.070
15:19:29.708,-0.040,0.050
15:19:29.712,-0.055,0.085
15:19:29.716,-0.060,0.100
15:19:29.720,-0.035,0.090
15:19:29.724,-0.055,0.090
15:19:29.728,-0.075,0.075
15:19:29.732,-0.090,0.060
15:19:29.736,-0.090,0.070
15:19:29.740,-0.100,0.055
15:19:29.744,-0.120,0.045
15:19:29.748,-0.160,0.040
15:19:29.752,-0.160,0.050
15:19:29.756,-0.150,0.055
15:19:29.760,-0.155,0.045
15:19:29.764,-0.185,0.050
15:19:29.768,-0.210,0.045
15:19:29.772,-0.230,0.045
15:19:29.776,-0.220,0.060
15:19:29.780,-0.200,0.025
15:19:29.784,-0.190,0.000
15:19:29.788,-0.160,0.030
15:19:29.792,-0.185,0.045
15:19:29.796,-0.205,0.020
15:19:29.800,-0.215,0.035
15:19:29.804,-0.220,0.060
15:19:29.808,-0.220,0.030
15:19:29.812,-0.215,0.035
15:19:29.816,-0.185,0.040
15:19:29.820,-0.180,0.045
15:19:29.824,-0.180,0.065
15:19:29.828,-0.185,0.055
15:19:29.832,-0.190,0.055
15:19:29.836,-0.205,0.065
15:19:29.840,-0.205,0.055
15:19:29.844,-0.210,0.070
15:19:29.848,-0.200,0.065
15:19:29.852,-0.185,0.045
15:19:29.856,-0.165,0.060
15:19:29.860,-0.165,0.035
15:19:29.864,-0.185,0.025
15:19:29.868,-0.200,0.035
15:19:29.872,-0.210,0.040
15:19:29.876,-0.210,0.045
15:19:29.880,-0.215,0.040
15:19:29.884,-0.200,0.040
15:19:29.888,-0.225,0.030
15:19:29.892,-0.210,0.030
15:19:29.896,-0.220,0.005
15:19:29.900,-0.225,0.005
15:19:29.904,-0.230,-0.020
15:19:29.908,-0.185,-0.010
15:19:29.912,-0.175,-0.020
15:19:29.916,-0.175,-0.020
15:19:29.920,-0.155,-0.040
15:19:29.924,-0.150,-0.060
15:19:29.928,-0.130,-0.045
15:19:29.932,-0.115,-0.045
15:19:29.936,-0.090,-0.050
15:19:29.940,-0.035,-0.045
15:19:29.944,0.050,-0.065
15:19:29.948,0.095,-0.065
15:19:29.952,0.140,-0.100
15:19:29.956,0.150,-0.160
15:19:29.960,0.180,-0.230
15:19:29.964,0.190,-0.235
15:19:29.968,0.185,-0.295
15:19:29.972,0.140,-0.380
15:19:29.976,0.125,-0.495
15:19:29.980,0.215,-0.635
15:19:29.984,0.450,-0.825
15:19:29.988,0.780,-1.050
15:19:29.992,1.090,-1.255
15:19:29.996,1.155,-1.370
15:19:30.000,0.940,-1.310
15:19:30.004,0.520,-0.965
15:19:30.008,0.105,-0.490
15:19:30.012,-0.145,-0.205
15:19:30.016,-0.265,-0.100
15:19:30.020,-0.345,-0.025
15:19:30.024,-0.355,0.045
15:19:30.028,-0.385,0.080
15:19:30.032,-0.390,0.130
15:19:30.036,-0.420,0.150
15:19:30.040,-0.380,0.130
15:19:30.044,-0.350,0.105
15:19:30.048,-0.345,0.110
15:19:30.052,-0.355,0.080
15:19:30.056,-0.395,0.075
15:19:30.060,-0.415,0.050
15:19:30.064,-0.440,0.045
15:19:30.068,-0.460,0.100
15:19:30.072,-0.425,0.115
15:19:30.076,-0.415,0.095
15:19:30.080,-0.410,0.085
15:19:30.084,-0.445,0.095
15:19:30.088,-0.435,0.075
15:19:30.092,-0.435,0.070
15:19:30.096,-0.405,0.085
15:19:30.100,-0.385,0.070
15:19:30.104,-0.380,0.070
15:19:30.108,-0.380,0.085
15:19:30.112,-0.380,0.105
15:19:30.116,-0.405,0.090
15:19:30.120,-0.410,0.110
15:19:30.124,-0.400,0.105
15:19:30.128,-0.415,0.095
15:19:30.132,-0.395,0.100
15:19:30.136,-0.370,0.100
15:19:30.140,-0.395,0.125
15:19:30.144,-0.370,0.120
15:19:30.148,-0.375,0.090
15:19:30.152,-0.390,0.080
15:19:30.156,-0.395,0.080
15:19:30.160,-0.400,0.075
15:19:30.164,-0.410,0.105
15:19:30.168,-0.425,0.105
15:19:30.172,-0.435,0.140
15:19:30.176,-0.425,0.125
15:19:30.180,-0.420,0.115
15:19:30.184,-0.455,0.120
15:19:30.188,-0.430,0.100
15:19:30.192,-0.405,0.070
15:19:30.196,-0.390,0.045
15:19:30.200,-0.370,0.035
15:19:30.204,-0.375,0.010
15:19:30.208,-0.365,-0.035
15:19:30.212,-0.365,-0.055
15:19:30.216,-0.345,-0.040
15:19:30.220,-0.335,-0.065
15:19:30.224,-0.320,-0.090
15:19:30.228,-0.295,-0.080
15:19:30.232,-0.270,-0.105
15:19:30.236,-0.230,-0.115
15:19:30.240,-0.225,-0.120
15:19:30.244,-0.210,-0.130
15:19:30.248,-0.230,-0.150
15:19:30.252,-0.205,-0.175
15:19:30.256,-0.180,-0.130
15:19:30.260,-0.170,-0.120
15:19:30.264,-0.190,-0.130
15:19:30.268,-0.210,-0.160
15:19:30.272,-0.200,-0.170
15:19:30.276,-0.175,-0.165
15:19:30.280,-0.160,-0.180
15:19:30.284,-0.165,-0.155
15:19:30.288,-0.200,-0.155
15:19:30.292,-0.225,-0.145
15:19:30.296,-0.235,-0.120
15:19:30.300,-0.230,-0.105
15:19:30.304,-0.260,-0.085
15:19:30.308,-0.285,-0.110
15:19:30.312,-0.275,-0.090
15:19:30.316,-0.250,-0.090
15:19:30.320,-0.230,-0.090
15:19:30.324,-0.240,-0.045
15:19:30.328,-0.245,-0.030
15:19:30.332,-0.260,-0.045
15:19:30.336,-0.275,-0.035
15:19:30.340,-0.280,-0.055
15:19:30.344,-0.240,-0.030
15:19:30.348,-0.250,-0.030
15:19:30.352,-0.290,-0.010
15:19:30.356,-0.300,-0.005
15:19:30.360,-0.290,-0.005
15:19:30.364,-0.280,0.000
15:19:30.368,-0.265,-0.020
15:19:30.372,-0.260,-0.010
15:19:30.376,-0.265,-0.015
15:19:30.380,-0.330,-0.015
15:19:30.384,-0.340,0.000
15:19:30.388,-0.350,-0.005
15:19:30.392,-0.360,0.000
15:19:30.396,-0.385,0.005
15:19:30.400,-0.390,-0.005
15:19:30.404,-0.390,-0.010
15:19:30.408,-0.380,-0.010
15:19:30.412,-0.355,-0.025
15:19:30.416,-0.350,-0.040
15:19:30.420,-0.370,-0.065
15:19:30.424,-0.360,-0.075
15:19:30.428,-0.340,-0.075
15:19:30.432,-0.355,-0.055
15:19:30.436,-0.380,-0.070
15:19:30.440,-0.370,-0.075
15:19:30.444,-0.370,-0.075
15:19:30.448,-0.345,-0.080
15:19:30.452,-0.350,-0.055
15:19:30.456,-0.330,-0.070
15:19:30.460,-0.310,-0.075
15:19:30.464,-0.280,-0.060
15:19:30.468,-0.275,-0.065
15:19:30.472,-0.255,-0.080
15:19:30.476,-0.230,-0.075
15:19:30.480,-0.240,-0.060
15:19:30.484,-0.205,-0.090
15:19:30.488,-0.185,-0.115
15:19:30.492,-0.175,-0.115
15:19:30.496,-0.170,-0.110
15:19:30.500,-0.155,-0.110
15:19:30.504,-0.065,-0.115
15:19:30.508,0.015,-0.130
15:19:30.512,0.120,-0.155
15:19:30.516,0.170,-0.215
15:19:30.520,0.165,-0.245
15:19:30.524,0.200,-0.280
15:19:30.528,0.205,-0.335
15:19:30.532,0.220,-0.350
15:19:30.536,0.225,-0.425
15:19:30.540,0.220,-0.525
15:19:30.544,0.230,-0.645
15:19:30.548,0.360,-0.830
15:19:30.552,0.670,-1.040
15:19:30.556,1.005,-1.245
15:19:30.560,1.150,-1.405
15:19:30.564,1.015,-1.465
15:19:30.568,0.645,-1.225
15:19:30.572,0.180,-0.810
15:19:30.576,-0.140,-0.440
15:19:30.580,-0.280,-0.265
15:19:30.584,-0.355,-0.150
15:19:30.588,-0.390,-0.045
15:19:30.592,-0.415,0.055
15:19:30.596,-0.475,0.135
15:19:30.600,-0.500,0.150
15:19:30.604,-0.515,0.180
15:19:30.608,-0.500,0.185
15:19:30.612,-0.525,0.155
15:19:30.616,-0.535,0.135
15:19:30.620,-0.545,0.120
15:19:30.624,-0.540,0.115
15:19:30.628,-0.555,0.120
15:19:30.632,-0.555,0.090
15:19:30.636,-0.560,0.110
15:19:30.640,-0.540,0.090
15:19:30.644,-0.550,0.085
15:19:30.648,-0.530,0.120
15:19:30.652,-0.525,0.115
15:19:30.656,-0.500,0.115
15:19:30.660,-0.505,0.110
15:19:30.664,-0.500,0.110
15:19:30.668,-0.510,0.095
15:19:30.672,-0.500,0.110
15:19:30.676,-0.515,0.140
15:19:30.680,-0.490,0.140
15:19:30.684,-0.460,0.120
15:19:30.688,-0.455,0.135
15:19:30.692,-0.420,0.140
15:19:30.696,-0.420,0.155
15:19:30.700,-0.430,0.175
15:19:30.704,-0.420,0.175
15:19:30.708,-0.400,0.175
15:19:30.712,-0.400,0.155
15:19:30.716,-0.370,0.175
15:19:30.720,-0.380,0.180
15:19:30.724,-0.395,0.205
15:19:30.728,-0.370,0.195
15:19:30.732,-0.360,0.190
15:19:30.736,-0.300,0.205
15:19:30.740,-0.295,0.175
15:19:30.744,-0.300,0.160
15:19:30.748,-0.255,0.160
15:19:30.752,-0.250,0.095
15:19:30.756,-0.250,0.055
15:19:30.760,-0.270,0.030
15:19:30.764,-0.285,0.000
15:19:30.768,-0.265,0.005
15:19:30.772,-0.235,-0.015
15:19:30.776,-0.240,0.000
15:19:30.780,-0.225,-0.020
15:19:30.784,-0.220,-0.030
15:19:30.788,-0.210,-0.035
15:19:30.792,-0.230,-0.035
15:19:30.796,-0.235,-0.035
15:19:30.800,-0.215,-0.035
15:19:30.804,-0.220,-0.035
15:19:30.808,-0.235,-0.015
15:19:30.812,-0.255,-0.030
15:19:30.816,-0.250,-0.035
15:19:30.820,-0.265,-0.015
15:19:30.824,-0.270,-0.020
15:19:30.828,-0.265,-0.015
15:19:30.832,-0.240,-0.010
15:19:30.836,-0.260,-0.040
15:19:30.840,-0.260,-0.030
15:19:30.844,-0.305,-0.020
15:19:30.848,-0.300,-0.030
15:19:30.852,-0.305,-0.015
15:19:30.856,-0.300,-0.020
15:19:30.860,-0.275,-0.015
15:19:30.864,-0.265,-0.030
15:19:30.868,-0.265,-0.035
15:19:30.872,-0.295,-0.030
15:19:30.876,-0.290,-0.025
15:19:30.880,-0.320,0.000
15:19:30.884,-0.320,0.000
15:19:30.888,-0.310,0.010
15:19:30.892,-0.315,-0.005
15:19:30.896,-0.330,-0.010
15:19:30.900,-0.330,-0.025
15:19:30.904,-0.345,0.000
15:19:30.908,-0.360,0.010
15:19:30.912,-0.355,-0.010
15:19:30.916,-0.350,-0.005
15:19:30.920,-0.340,0.010
15:19:30.924,-0.350,0.020
15:19:30.928,-0.335,-0.005
15:19:30.932,-0.310,-0.020
15:19:30.936,-0.285,-0.010
15:19:30.940,-0.265,0.000
15:19:30.944,-0.240,0.015
15:19:30.948,-0.260,0.010
15:19:30.952,-0.235,0.005
15:19:30.956,-0.200,0.020
15:19:30.960,-0.170,0.035
15:19:30.964,-0.145,0.025
15:19:30.968,-0.115,0.010
15:19:30.972,-0.090,0.030
15:19:30.976,-0.080,0.015
15:19:30.980,-0.100,0.020
15:19:30.984,-0.085,0.000
15:19:30.988,-0.090,-0.020
15:19:30.992,-0.090,-0.035
15:19:30.996,-0.100,-0.045
15:19:31.000,-0.090,-0.055
15:19:31.004,-0.070,-0.040
15:19:31.008,-0.100,-0.050
15:19:31.012,-0.105,-0.060
15:19:31.016,-0.140,-0.055
15:19:31.020,-0.145,-0.045
15:19:31.024,-0.165,-0.025
15:19:31.028,-0.165,-0.030
15:19:31.032,-0.210,-0.010
15:19:31.036,-0.240,-0.010
15:19:31.040,-0.250,-0.010
15:19:31.044,-0.255,-0.010
15:19:31.048,-0.215,-0.035
15:19:31.052,-0.210,-0.010
15:19:31.056,-0.270,-0.030
15:19:31.060,-0.270,-0.030
15:19:31.064,-0.270,-0.035
15:19:31.068,-0.295,-0.050
15:19:31.072,-0.300,-0.030
15:19:31.076,-0.300,-0.030
15:19:31.080,-0.285,-0.040
15:19:31.084,-0.305,-0.040
15:19:31.088,-0.330,-0.010
15:19:31.092,-0.345,-0.035
15:19:31.096,-0.340,-0.035
15:19:31.100,-0.340,-0.035
15:19:31.104,-0.300,-0.040
15:19:31.108,-0.330,-0.035
15:19:31.112,-0.345,-0.015
15:19:31.116,-0.355,-0.020
15:19:31.120,-0.350,0.000
15:19:31.124,-0.370,-0.015
15:19:31.128,-0.340,-0.010
15:19:31.132,-0.325,-0.010
15:19:31.136,-0.385,-0.020
15:19:31.140,-0.335,-0.005
15:19:31.144,-0.320,0.000
15:19:31.148,-0.320,0.000
15:19:31.152,-0.290,-0.005
15:19:31.156,-0.280,-0.025
15:19:31.160,-0.255,-0.025
15:19:31.164,-0.250,-0.015
15:19:31.168,-0.180,-0.025
15:19:31.172,-0.120,-0.005
15:19:31.176,-0.040,-0.005
15:19:31.180,0.025,-0.035
15:19:31.184,0.045,-0.055
15:19:31.188,0.105,-0.105
15:19:31.192,0.145,-0.150
15:19:31.196,0.145,-0.225
15:19:31.200,0.135,-0.300
15:19:31.204,0.115,-0.390
15:19:31.208,0.095,-0.505
15:19:31.212,0.165,-0.630
15:19:31.216,0.375,-0.820
15:19:31.220,0.695,-1.055
15:19:31.224,0.950,-1.265
15:19:31.228,1.025,-1.395
15:19:31.232,0.865,-1.405
15:19:31.236,0.525,-1.140
15:19:31.240,0.165,-0.755
15:19:31.244,-0.080,-0.430
15:19:31.248,-0.220,-0.225
15:19:31.252,-0.290,-0.110
15:19:31.256,-0.305,-0.010
15:19:31.260,-0.305,0.055
15:19:31.264,-0.320,0.110
15:19:31.268,-0.340,0.135
15:19:31.272,-0.320,0.160
15:19:31.276,-0.325,0.140
15:19:31.280,-0.340,0.145
15:19:31.284,-0.350,0.115
15:19:31.288,-0.340,0.105
15:19:31.292,-0.335,0.120
15:19:31.296,-0.315,0.095
15:19:31.300,-0.330,0.100
15:19:31.304,-0.320,0.085
15:19:31.308,-0.335,0.085
15:19:31.312,-0.340,0.110
15:19:31.316,-0.335,0.120
15:19:31.320,-0.320,0.120
15:19:31.324,-0.340,0.125
15:19:31.328,-0.325,0.135
15:19:31.332,-0.345,0.125
15:19:31.336,-0.335,0.155
15:19:31.340,-0.345,0.165
15:19:31.344,-0.380,0.175
15:19:31.348,-0.385,0.175
15:19:31.352,-0.375,0.175
15:19:31.356,-0.365,0.205
15:19:31.360,-0.375,0.185
15:19:31.364,-0.355,0.180
15:19:31.368,-0.350,0.180
15:19:31.372,-0.340,0.175
15:19:31.376,-0.330,0.175
15:19:31.380,-0.345,0.200
15:19:31.384,-0.335,0.205
15:19:31.388,-0.285,0.205
15:19:31.392,-0.260,0.195
15:19:31.396,-0.255,0.205
15:19:31.400,-0.250,0.200
15:19:31.404,-0.260,0.220
15:19:31.408,-0.255,0.200
15:19:31.412,-0.225,0.195
15:19:31.416,-0.215,0.200
15:19:31.420,-0.190,0.195
15:19:31.424,-0.175,0.190
15:19:31.428,-0.140,0.165
15:19:31.432,-0.090,0.175
15:19:31.436,-0.055,0.160
15:19:31.440,-0.040,0.155
15:19:31.444,-0.015,0.120
15:19:31.448,0.000,0.085
15:19:31.452,-0.020,0.080
15:19:31.456,-0.015,0.035
15:19:31.460,-0.050,0.010
15:19:31.464,-0.050,-0.030
15:19:31.468,-0.055,-0.045
15:19:31.472,-0.045,-0.015
15:19:31.476,-0.065,-0.040
15:19:31.480,-0.065,-0.025
15:19:31.484,-0.065,-0.055
15:19:31.488,-0.110,-0.045
15:19:31.492,-0.145,-0.060
15:19:31.496,-0.170,-0.055
15:19:31.500,-0.140,-0.055
15:19:31.504,-0.125,-0.040
15:19:31.508,-0.115,-0.055
15:19:31.512,-0.115,-0.055
15:19:31.516,-0.140,-0.060
15:19:31.520,-0.135,-0.055
15:19:31.524,-0.140,-0.065
15:19:31.528,-0.135,-0.070
15:19:31.532,-0.160,-0.050
15:19:31.536,-0.175,-0.045
15:19:31.540,-0.165,-0.025
15:19:31.544,-0.175,-0.020
15:19:31.548,-0.170,-0.005
15:19:31.552,-0.210,0.000
15:19:31.556,-0.230,-0.025
15:19:31.560,-0.235,-0.015
15:19:31.564,-0.245,0.005
15:19:31.568,-0.245,0.015
15:19:31.572,-0.270,0.000
15:19:31.576,-0.285,0.000
15:19:31.580,-0.295,0.000
15:19:31.584,-0.310,0.015
15:19:31.588,-0.280,0.005
15:19:31.592,-0.285,0.000
15:19:31.596,-0.290,0.020
15:19:31.600,-0.305,0.025
15:19:31.604,-0.300,0.050
15:19:31.608,-0.305,0.045
15:19:31.612,-0.270,0.055
15:19:31.616,-0.240,0.045
15:19:31.620,-0.235,0.040
15:19:31.624,-0.220,0.045
15:19:31.628,-0.225,0.045
15:19:31.632,-0.215,0.050
15:19:31.636,-0.180,0.045
15:19:31.640,-0.175,0.060
15:19:31.644,-0.155,0.070
15:19:31.648,-0.130,0.060
15:19:31.652,-0.115,0.035
15:19:31.656,-0.095,0.070
15:19:31.660,-0.085,0.080
15:19:31.664,-0.095,0.105
15:19:31.668,-0.090,0.085
15:19:31.672,-0.085,0.090
15:19:31.676,-0.050,0.065
15:19:31.680,-0.030,0.050
15:19:31.684,-0.040,0.055
15:19:31.688,-0.035,0.055
15:19:31.692,-0.020,0.040
15:19:31.696,-0.015,-0.005
15:19:31.700,0.010,0.000
15:19:31.704,0.050,-0.020
15:19:31.708,0.100,-0.050
15:19:31.712,0.160,-0.075
15:19:31.716,0.125,-0.120
15:19:31.720,0.110,-0.175
15:19:31.724,0.080,-0.235
15:19:31.728,0.070,-0.240
15:19:31.732,0.040,-0.290
15:19:31.736,0.020,-0.355
15:19:31.740,0.040,-0.480
15:19:31.744,0.125,-0.635
15:19:31.748,0.325,-0.845
15:19:31.752,0.575,-1.050
15:19:31.756,0.835,-1.320
15:19:31.760,0.865,-1.465
15:19:31.764,0.715,-1.455
15:19:31.768,0.390,-1.185
15:19:31.772,0.090,-0.725
15:19:31.776,-0.125,-0.355
15:19:31.780,-0.280,-0.185
15:19:31.784,-0.340,-0.090
15:19:31.788,-0.385,0.015
15:19:31.792,-0.415,0.050
15:19:31.796,-0.450,0.090
15:19:31.800,-0.480,0.110
15:19:31.804,-0.485,0.130
15:19:31.808,-0.485,0.145
15:19:31.812,-0.500,0.135
15:19:31.816,-0.520,0.100
15:19:31.820,-0.525,0.090
15:19:31.824,-0.500,0.070
15:19:31.828,-0.475,0.085
15:19:31.832,-0.485,0.075
15:19:31.836,-0.470,0.085
15:19:31.840,-0.440,0.100
15:19:31.844,-0.425,0.110
15:19:31.848,-0.415,0.100
15:19:31.852,-0.430,0.140
15:19:31.856,-0.405,0.140
15:19:31.860,-0.385,0.170
15:19:31.864,-0.395,0.180
15:19:31.868,-0.355,0.185
15:19:31.872,-0.365,0.185
15:19:31.876,-0.335,0.190
15:19:31.880,-0.305,0.200
15:19:31.884,-0.310,0.225
15:19:31.888,-0.305,0.235
15:19:31.892,-0.285,0.235
15:19:31.896,-0.300,0.215
15:19:31.900,-0.300,0.205
15:19:31.904,-0.295,0.210
15:19:31.908,-0.320,0.205
15:19:31.912,-0.305,0.180
15:19:31.916,-0.265,0.170
15:19:31.920,-0.265,0.160
15:19:31.924,-0.250,0.140
15:19:31.928,-0.250,0.135
15:19:31.932,-0.250,0.160
15:19:31.936,-0.265,0.135
15:19:31.940,-0.260,0.135
15:19:31.944,-0.265,0.145
15:19:31.948,-0.280,0.125
15:19:31.952,-0.295,0.115
15:19:31.956,-0.295,0.090
15:19:31.960,-0.315,0.075
15:19:31.964,-0.315,0.050
15:19:31.968,-0.290,0.000
15:19:31.972,-0.275,-0.035
15:19:31.976,-0.285,-0.045
15:19:31.980,-0.290,-0.050
15:19:31.984,-0.280,-0.070
15:19:31.988,-0.285,-0.070
15:19:31.992,-0.270,-0.090
15:19:31.996,-0.250,-0.095
15:19:32.000,-0.230,-0.125
15:19:32.004,-0.225,-0.130
15:19:32.008,-0.230,-0.130
15:19:32.012,-0.255,-0.165
15:19:32.016,-0.270,-0.170
15:19:32.020,-0.280,-0.155
15:19:32.024,-0.295,-0.145
15:19:32.028,-0.315,-0.140
15:19:32.032,-0.300,-0.155
15:19:32.036,-0.315,-0.165
15:19:32.040,-0.335,-0.170
15:19:32.044,-0.365,-0.155
15:19:32.048,-0.375,-0.145
15:19:32.052,-0.360,-0.145
15:19:32.056,-0.360,-0.130
15:19:32.060,-0.335,-0.115
15:19:32.064,-0.310,-0.115
15:19:32.068,-0.305,-0.105
15:19:32.072,-0.280,-0.110
15:19:32.076,-0.245,-0.110
15:19:32.080,-0.260,-0.105
15:19:32.084,-0.250,-0.080
15:19:32.088,-0.230,-0.065
15:19:32.092,-0.195,-0.060
15:19:32.096,-0.210,-0.060
15:19:32.100,-0.225,-0.015
15:19:32.104,-0.200,-0.005
15:19:32.108,-0.150,0.000
15:19:32.112,-0.115,0.025
15:19:32.116,-0.075,0.015
15:19:32.120,-0.040,0.025
15:19:32.124,0.050,0.005
15:19:32.128,0.085,-0.015
15:19:32.132,0.115,-0.050
15:19:32.136,0.130,-0.080
15:19:32.140,0.140,-0.140
15:19:32.144,0.130,-0.235
15:19:32.148,0.100,-0.240
15:19:32.152,0.055,-0.310
15:19:32.156,0.035,-0.400
15:19:32.160,0.090,-0.470
15:19:32.164,0.320,-0.630
15:19:32.168,0.685,-0.870
15:19:32.172,0.990,-1.105
15:19:32.176,1.110,-1.260
15:19:32.180,0.915,-1.265
15:19:32.184,0.505,-0.990
15:19:32.188,0.075,-0.610
15:19:32.192,-0.170,-0.305
15:19:32.196,-0.320,-0.145
15:19:32.200,-0.370,-0.080
15:19:32.204,-0.400,0.000
15:19:32.208,-0.425,0.015
15:19:32.212,-0.440,0.035
15:19:32.216,-0.480,0.010
15:19:32.220,-0.490,0.015
15:19:32.224,-0.490,-0.015
15:19:32.228,-0.470,-0.025
15:19:32.232,-0.430,-0.045
15:19:32.236,-0.430,-0.050
15:19:32.240,-0.480,-0.050
15:19:32.244,-0.500,-0.080
15:19:32.248,-0.490,-0.080
15:19:32.252,-0.525,-0.085
15:19:32.256,-0.530,-0.090
15:19:32.260,-0.535,-0.075
15:19:32.264,-0.520,-0.070
15:19:32.268,-0.530,-0.085
15:19:32.272,-0.550,-0.065
15:19:32.276,-0.565,-0.060
15:19:32.280,-0.560,-0.035
15:19:32.284,-0.555,-0.040
15:19:32.288,-0.570,-0.025
15:19:32.292,-0.570,-0.025
15:19:32.296,-0.560,-0.025
15:19:32.300,-0.530,0.020
15:19:32.304,-0.510,0.020
15:19:32.308,-0.505,0.040
15:19:32.312,-0.475,0.040
15:19:32.316,-0.470,0.070
15:19:32.320,-0.440,0.095
15:19:32.324,-0.425,0.090
15:19:32.328,-0.400,0.095
15:19:32.332,-0.370,0.105
15:19:32.336,-0.370,0.140
15:19:32.340,-0.365,0.135
15:19:32.344,-0.310,0.130
15:19:32.348,-0.320,0.120
15:19:32.352,-0.325,0.140
15:19:32.356,-0.365,0.110
15:19:32.360,-0.350,0.095
15:19:32.364,-0.330,0.105
15:19:32.368,-0.330,0.110
15:19:32.372,-0.330,0.125
15:19:32.376,-0.300,0.080
15:19:32.380,-0.255,0.080
15:19:32.384,-0.240,0.065
15:19:32.388,-0.250,0.040
15:19:32.392,-0.240,0.020
15:19:32.396,-0.250,0.030
15:19:32.400,-0.245,0.005
15:19:32.404,-0.245,-0.015
15:19:32.408,-0.245,-0.030
15:19:32.412,-0.230,-0.030
15:19:32.416,-0.220,-0.050
15:19:32.420,-0.220,-0.055
15:19:32.424,-0.185,-0.045
15:19:32.428,-0.210,-0.050
15:19:32.432,-0.210,-0.080
15:19:32.436,-0.205,-0.075
15:19:32.440,-0.190,-0.115
15:19:32.444,-0.200,-0.155
15:19:32.448,-0.190,-0.150
15:19:32.452,-0.205,-0.195
15:19:32.456,-0.200,-0.195
15:19:32.460,-0.215,-0.185
15:19:32.464,-0.200,-0.200
15:19:32.468,-0.220,-0.195
15:19:32.472,-0.250,-0.195
15:19:32.476,-0.260,-0.200
15:19:32.480,-0.245,-0.210
15:19:32.484,-0.265,-0.185
15:19:32.488,-0.295,-0.195
15:19:32.492,-0.315,-0.190
15:19:32.496,-0.320,-0.190
15:19:32.500,-0.315,-0.180
15:19:32.504,-0.335,-0.195
15:19:32.508,-0.350,-0.155
15:19:32.512,-0.360,-0.155
15:19:32.516,-0.340,-0.165
15:19:32.520,-0.340,-0.160
15:19:32.524,-0.340,-0.155
15:19:32.528,-0.340,-0.160
15:19:32.532,-0.330,-0.160
15:19:32.536,-0.300,-0.110
15:19:32.540,-0.290,-0.100
15:19:32.544,-0.270,-0.110
15:19:32.548,-0.280,-0.080
15:19:32.552,-0.245,-0.075
15:19:32.556,-0.235,-0.075
15:19:32.560,-0.225,-0.040
15:19:32.564,-0.215,-0.050
15:19:32.568,-0.210,-0.025
15:19:32.572,-0.215,-0.010
15:19:32.576,-0.195,0.000
15:19:32.580,-0.205,0.025
15:19:32.584,-0.235,0.010
15:19:32.588,-0.230,0.010
15:19:32.592,-0.220,-0.005
15:19:32.596,-0.220,0.000
15:19:32.600,-0.200,-0.025
15:19:32.604,-0.210,-0.030
15:19:32.608,-0.220,-0.035
15:19:32.612,-0.205,-0.025
15:19:32.616,-0.175,-0.025
15:19:32.620,-0.195,-0.015
15:19:32.624,-0.180,-0.050
15:19:32.628,-0.160,-0.050
15:19:32.632,-0.180,-0.035
15:19:32.636,-0.150,-0.035
15:19:32.640,-0.145,-0.010
15:19:32.644,-0.140,-0.015
15:19:32.648,-0.160,-0.020
15:19:32.652,-0.180,-0.010
15:19:32.656,-0.180,-0.035
15:19:32.660,-0.180,-0.030
15:19:32.664,-0.210,-0.075
15:19:32.668,-0.220,-0.080
15:19:32.672,-0.230,-0.090
15:19:32.676,-0.220,-0.100
15:19:32.680,-0.240,-0.105
15:19:32.684,-0.240,-0.145
15:19:32.688,-0.250,-0.155
15:19:32.692,-0.260,-0.135
15:19:32.696,-0.220,-0.165
15:19:32.700,-0.200,-0.180
15:19:32.704,-0.105,-0.190
15:19:32.708,-0.025,-0.205
15:19:32.712,0.075,-0.215
15:19:32.716,0.105,-0.225
15:19:32.720,0.105,-0.310
15:19:32.724,0.110,-0.345
15:19:32.728,0.105,-0.380
15:19:32.732,0.090,-0.415
15:19:32.736,0.065,-0.465
15:19:32.740,0.080,-0.590
15:19:32.744,0.135,-0.765
15:19:32.748,0.360,-0.985
15:19:32.752,0.700,-1.200
15:19:32.756,0.960,-1.420
15:19:32.760,1.020,-1.555
15:19:32.764,0.830,-1.515
15:19:32.768,0.460,-1.200
15:19:32.772,0.065,-0.755
15:19:32.776,-0.150,-0.430
15:19:32.780,-0.250,-0.230
15:19:32.784,-0.320,-0.115
15:19:32.788,-0.365,0.000
15:19:32.792,-0.370,0.085
15:19:32.796,-0.395,0.155
15:19:32.800,-0.410,0.160
15:19:32.804,-0.435,0.200
15:19:32.808,-0.420,0.200
15:19:32.812,-0.400,0.205
15:19:32.816,-0.380,0.180
15:19:32.820,-0.385,0.165
15:19:32.824,-0.390,0.175
15:19:32.828,-0.415,0.160
15:19:32.832,-0.415,0.150
15:19:32.836,-0.405,0.155
15:19:32.840,-0.400,0.130
15:19:32.844,-0.385,0.135
15:19:32.848,-0.375,0.115
15:19:32.852,-0.375,0.125
15:19:32.856,-0.385,0.115
15:19:32.860,-0.385,0.115
15:19:32.864,-0.360,0.100
15:19:32.868,-0.375,0.130
15:19:32.872,-0.365,0.110
15:19:32.876,-0.375,0.125
15:19:32.880,-0.380,0.110
15:19:32.884,-0.365,0.125
15:19:32.888,-0.360,0.110
15:19:32.892,-0.345,0.105
15:19:32.896,-0.320,0.105
15:19:32.900,-0.335,0.120
15:19:32.904,-0.330,0.120
15:19:32.908,-0.340,0.115
15:19:32.912,-0.365,0.110
15:19:32.916,-0.360,0.110
15:19:32.920,-0.370,0.140
15:19:32.924,-0.370,0.135
15:19:32.928,-0.365,0.120
15:19:32.932,-0.360,0.110
15:19:32.936,-0.360,0.120
15:19:32.940,-0.345,0.105
15:19:32.944,-0.340,0.080
15:19:32.948,-0.285,0.095
15:19:32.952,-0.280,0.095
15:19:32.956,-0.270,0.090
15:19:32.960,-0.260,0.095
15:19:32.964,-0.220,0.090
15:19:32.968,-0.200,0.080
15:19:32.972,-0.180,0.060
15:19:32.976,-0.160,0.025
15:19:32.980,-0.180,0.020
15:19:32.984,-0.155,0.005
15:19:32.988,-0.180,0.010
15:19:32.992,-0.170,-0.005
15:19:32.996,-0.170,-0.010
15:19:33.000,-0.145,-0.015
15:19:33.004,-0.140,-0.045
15:19:33.008,-0.125,-0.040
15:19:33.012,-0.165,-0.065
15:19:33.016,-0.145,-0.065
15:19:33.020,-0.145,-0.055
15:19:33.024,-0.145,-0.055
15:19:33.028,-0.110,-0.055
15:19:33.032,-0.075,-0.030
15:19:33.036,-0.105,-0.025
15:19:33.040,-0.080,-0.040
15:19:33.044,-0.085,-0.040
15:19:33.048,-0.090,-0.055
15:19:33.052,-0.095,-0.045
15:19:33.056,-0.095,-0.065
15:19:33.060,-0.060,-0.055
15:19:33.064,-0.035,-0.070
15:19:33.068,-0.035,-0.060
15:19:33.072,-0.045,-0.040
15:19:33.076,-0.065,-0.070
15:19:33.080,-0.070,-0.055
15:19:33.084,-0.060,-0.050
15:19:33.088,-0.070,-0.070
15:19:33.092,-0.090,-0.065
15:19:33.096,-0.130,-0.070
15:19:33.100,-0.120,-0.035
15:19:33.104,-0.100,-0.045
15:19:33.108,-0.110,-0.040
15:19:33.112,-0.115,-0.030
15:19:33.116,-0.105,-0.045
15:19:33.120,-0.130,-0.020
15:19:33.124,-0.135,0.000
15:19:33.128,-0.140,-0.020
15:19:33.132,-0.130,-0.020
15:19:33.136,-0.135,-0.025
15:19:33.140,-0.145,-0.015
15:19:33.144,-0.155,-0.005
15:19:33.148,-0.165,-0.010
15:19:33.152,-0.180,-0.010
15:19:33.156,-0.185,-0.040
15:19:33.160,-0.185,-0.035
15:19:33.164,-0.200,-0.045
15:19:33.168,-0.210,-0.065
15:19:33.172,-0.240,-0.060
15:19:33.176,-0.240,-0.075
15:19:33.180,-0.230,-0.065
15:19:33.184,-0.240,-0.070
15:19:33.188,-0.250,-0.055
15:19:33.192,-0.250,-0.045
15:19:33.196,-0.245,-0.070
15:19:33.200,-0.230,-0.040
15:19:33.204,-0.225,-0.020
15:19:33.208,-0.220,-0.040
15:19:33.212,-0.240,-0.040
15:19:33.216,-0.235,-0.045
15:19:33.220,-0.265,-0.060
15:19:33.224,-0.275,-0.050
15:19:33.228,-0.270,-0.030
15:19:33.232,-0.245,-0.015
15:19:33.236,-0.250,-0.010
15:19:33.240,-0.255,-0.025
15:19:33.244,-0.265,-0.015
15:19:33.248,-0.240,-0.025
15:19:33.252,-0.225,-0.015
15:19:33.256,-0.210,0.010
15:19:33.260,-0.225,0.025
15:19:33.264,-0.205,0.025
15:19:33.268,-0.200,0.010
15:19:33.272,-0.165,0.015
15:19:33.276,-0.130,0.015
15:19:33.280,-0.105,0.010
15:19:33.284,-0.070,-0.020
15:19:33.288,-0.020,-0.020
15:19:33.292,0.065,-0.025
15:19:33.296,0.145,-0.075
15:19:33.300,0.190,-0.090
15:19:33.304,0.200,-0.120
15:19:33.308,0.210,-0.205
15:19:33.312,0.210,-0.290
15:19:33.316,0.185,-0.345
15:19:33.320,0.115,-0.405
15:19:33.324,0.085,-0.510
15:19:33.328,0.110,-0.640
15:19:33.332,0.230,-0.775
15:19:33.336,0.460,-1.025
15:19:33.340,0.740,-1.295
15:19:33.344,0.955,-1.480
15:19:33.348,0.950,-1.600
15:19:33.352,0.705,-1.520
15:19:33.356,0.335,-1.170
15:19:33.360,0.010,-0.725
15:19:33.364,-0.145,-0.430
15:19:33.368,-0.250,-0.295
15:19:33.372,-0.305,-0.170
15:19:33.376,-0.335,-0.070
15:19:33.380,-0.325,-0.040
15:19:33.384,-0.325,0.000
15:19:33.388,-0.320,0.020
15:19:33.392,-0.285,0.005
15:19:33.396,-0.285,0.040
15:19:33.400,-0.295,0.030
15:19:33.404,-0.285,0.035
15:19:33.408,-0.270,0.030
15:19:33.412,-0.270,0.015
15:19:33.416,-0.255,0.040
15:19:33.420,-0.260,0.065
15:19:33.424,-0.270,0.060
15:19:33.428,-0.265,0.090
15:19:33.432,-0.240,0.060
15:19:33.436,-0.225,0.110
15:19:33.440,-0.210,0.125
15:19:33.444,-0.240,0.135
15:19:33.448,-0.260,0.170
15:19:33.452,-0.270,0.170
15:19:33.456,-0.280,0.210
15:19:33.460,-0.305,0.220
15:19:33.464,-0.285,0.240
15:19:33.468,-0.280,0.245
15:19:33.472,-0.285,0.230
15:19:33.476,-0.300,0.230
15:19:33.480,-0.315,0.215
15:19:33.484,-0.320,0.220
15:19:33.488,-0.315,0.215
15:19:33.492,-0.320,0.195
15:19:33.496,-0.300,0.205
15:19:33.500,-0.280,0.175
15:19:33.504,-0.280,0.170
15:19:33.508,-0.270,0.195
15:19:33.512,-0.255,0.195
15:19:33.516,-0.285,0.200
15:19:33.520,-0.265,0.185
15:19:33.524,-0.220,0.150
15:19:33.528,-0.200,0.180
15:19:33.532,-0.200,0.150
15:19:33.536,-0.180,0.160
15:19:33.540,-0.150,0.115
15:19:33.544,-0.155,0.105
15:19:33.548,-0.160,0.085
15:19:33.552,-0.140,0.075
15:19:33.556,-0.140,0.040
15:19:33.560,-0.115,0.005
15:19:33.564,-0.120,-0.020
15:19:33.568,-0.125,-0.035
15:19:33.572,-0.135,-0.065
15:19:33.576,-0.105,-0.100
15:19:33.580,-0.100,-0.095
15:19:33.584,-0.120,-0.095
15:19:33.588,-0.135,-0.145
15:19:33.592,-0.105,-0.160
15:19:33.596,-0.080,-0.180
15:19:33.600,-0.105,-0.195
15:19:33.604,-0.110,-0.170
15:19:33.608,-0.095,-0.165
15:19:33.612,-0.075,-0.170
15:19:33.616,-0.050,-0.160
15:19:33.620,-0.045,-0.145
15:19:33.624,-0.060,-0.145
15:19:33.628,-0.070,-0.125
15:19:33.632,-0.070,-0.120
15:19:33.636,-0.075,-0.105
15:19:33.640,-0.060,-0.110
15:19:33.644,-0.035,-0.090
15:19:33.648,-0.040,-0.100
15:19:33.652,-0.030,-0.080
15:19:33.656,-0.010,-0.075
15:19:33.660,0.040,-0.055
15:19:33.664,0.030,-0.060
15:19:33.668,0.015,-0.050
15:19:33.672,0.025,-0.035
15:19:33.676,0.010,-0.035
15:19:33.680,-0.015,-0.025
15:19:33.684,-0.040,-0.015
15:19:33.688,-0.100,-0.025
15:19:33.692,-0.145,-0.005
15:19:33.696,-0.140,-0.005
15:19:33.700,-0.160,0.010
15:19:33.704,-0.175,0.035
15:19:33.708,-0.175,0.070
15:19:33.712,-0.145,0.065
15:19:33.716,-0.095,0.065
15:19:33.720,-0.020,0.080
15:19:33.724,0.030,0.050
15:19:33.728,0.015,0.045
15:19:33.732,-0.020,0.000
15:19:33.736,-0.060,-0.065
15:19:33.740,-0.035,-0.100
15:19:33.744,-0.065,-0.160
15:19:33.748,-0.105,-0.230
15:19:33.752,-0.150,-0.335
15:19:33.756,-0.115,-0.465
15:19:33.760,0.095,-0.595
15:19:33.764,0.420,-0.810
15:19:33.768,0.760,-1.070
15:19:33.772,1.015,-1.300
15:19:33.776,1.000,-1.400
15:19:33.780,0.740,-1.340
15:19:33.784,0.370,-0.995
15:19:33.788,0.040,-0.550
15:19:33.792,-0.155,-0.245
15:19:33.796,-0.260,-0.110
15:19:33.800,-0.335,-0.040
15:19:33.804,-0.380,0.015
15:19:33.808,-0.405,0.045
15:19:33.812,-0.405,0.040
15:19:33.816,-0.410,0.035
15:19:33.820,-0.405,0.035
15:19:33.824,-0.395,0.030
15:19:33.828,-0.395,0.000
15:19:33.832,-0.375,-0.020
15:19:33.836,-0.385,-0.010
15:19:33.840,-0.380,-0.010
15:19:33.844,-0.400,-0.020
15:19:33.848,-0.375,-0.025
15:19:33.852,-0.375,-0.040
15:19:33.856,-0.385,-0.010
15:19:33.860,-0.390,0.000
15:19:33.864,-0.380,0.000
15:19:33.868,-0.370,-0.005
15:19:33.872,-0.345,0.015
15:19:33.876,-0.345,0.000
15:19:33.880,-0.305,0.010
15:19:33.884,-0.320,-0.015
15:19:33.888,-0.300,0.000
15:19:33.892,-0.305,0.015
15:19:33.896,-0.310,0.030
15:19:33.900,-0.280,0.040
15:19:33.904,-0.250,0.065
15:19:33.908,-0.245,0.090
15:19:33.912,-0.305,0.090
15:19:33.916,-0.345,0.110
15:19:33.920,-0.355,0.105
15:19:33.924,-0.340,0.130
15:19:33.928,-0.340,0.130
15:19:33.932,-0.320,0.150
15:19:33.936,-0.340,0.130
15:19:33.940,-0.355,0.155
15:19:33.944,-0.375,0.135
15:19:33.948,-0.370,0.125
15:19:33.952,-0.355,0.130
15:19:33.956,-0.365,0.135
15:19:33.960,-0.370,0.125
15:19:33.964,-0.365,0.090
15:19:33.968,-0.360,0.065
15:19:33.972,-0.380,0.090
15:19:33.976,-0.375,0.070
15:19:33.980,-0.325,0.030
15:19:33.984,-0.290,0.025
15:19:33.988,-0.315,0.020
15:19:33.992,-0.325,0.015
15:19:33.996,-0.310,0.000
15:19:34.000,-0.300,-0.005
15:19:34.004,-0.270,0.000
15:19:34.008,-0.290,-0.010
15:19:34.012,-0.280,0.000
15:19:34.016,-0.255,-0.010
15:19:34.020,-0.275,-0.050
15:19:34.024,-0.255,-0.055
15:19:34.028,-0.250,-0.070
15:19:34.032,-0.240,-0.105
15:19:34.036,-0.220,-0.125
15:19:34.040,-0.195,-0.170
15:19:34.044,-0.190,-0.170
15:19:34.048,-0.195,-0.150
15:19:34.052,-0.200,-0.180
15:19:34.056,-0.200,-0.140
15:19:34.060,-0.200,-0.150
15:19:34.064,-0.215,-0.165
15:19:34.068,-0.210,-0.170
15:19:34.072,-0.205,-0.135
15:19:34.076,-0.175,-0.145
15:19:34.080,-0.140,-0.155
15:19:34.084,-0.120,-0.175
15:19:34.088,-0.100,-0.155
15:19:34.092,-0.135,-0.160
15:19:34.096,-0.155,-0.145
15:19:34.100,-0.165,-0.145
15:19:34.104,-0.175,-0.160
15:19:34.108,-0.160,-0.120
15:19:34.112,-0.150,-0.145
15:19:34.116,-0.120,-0.115
15:19:34.120,-0.125,-0.110
15:19:34.124,-0.125,-0.100
15:19:34.128,-0.130,-0.065
15:19:34.132,-0.190,-0.080
15:19:34.136,-0.220,-0.060
15:19:34.140,-0.225,-0.030
15:19:34.144,-0.230,-0.035
15:19:34.148,-0.255,-0.055
15:19:34.152,-0.285,-0.035
15:19:34.156,-0.275,-0.060
15:19:34.160,-0.290,-0.075
15:19:34.164,-0.285,-0.060
15:19:34.168,-0.295,-0.070
15:19:34.172,-0.335,-0.065
15:19:34.176,-0.365,-0.060
15:19:34.180,-0.350,-0.065
15:19:34.184,-0.350,-0.100
15:19:34.188,-0.345,-0.080
15:19:34.192,-0.360,-0.075
15:19:34.196,-0.325,-0.075
15:19:34.200,-0.330,-0.075
15:19:34.204,-0.365,-0.100
15:19:34.208,-0.365,-0.090
15:19:34.212,-0.385,-0.090
15:19:34.216,-0.385,-0.060
15:19:34.220,-0.410,-0.070
15:19:34.224,-0.380,-0.065
15:19:34.228,-0.365,-0.075
15:19:34.232,-0.380,-0.075
15:19:34.236,-0.365,-0.095
15:19:34.240,-0.345,-0.085
15:19:34.244,-0.340,-0.095
15:19:34.248,-0.315,-0.065
15:19:34.252,-0.305,-0.060
15:19:34.256,-0.310,-0.040
15:19:34.260,-0.310,-0.055
15:19:34.264,-0.290,-0.060
15:19:34.268,-0.295,-0.045
15:19:34.272,-0.260,-0.055
15:19:34.276,-0.255,-0.045
15:19:34.280,-0.260,-0.060
15:19:34.284,-0.250,-0.080
15:19:34.288,-0.265,-0.110
15:19:34.292,-0.240,-0.140
15:19:34.296,-0.215,-0.155
15:19:34.300,-0.200,-0.160
15:19:34.304,-0.250,-0.150
15:19:34.308,-0.235,-0.185
15:19:34.312,-0.225,-0.200
15:19:34.316,-0.230,-0.180
15:19:34.320,-0.200,-0.175
15:19:34.324,-0.135,-0.200
15:19:34.328,-0.045,-0.180
15:19:34.332,0.030,-0.225
15:19:34.336,0.120,-0.240
15:19:34.340,0.195,-0.245
15:19:34.344,0.245,-0.285
15:19:34.348,0.265,-0.370
15:19:34.352,0.295,-0.375
15:19:34.356,0.315,-0.405
15:19:34.360,0.300,-0.460
15:19:34.364,0.260,-0.535
15:19:34.368,0.265,-0.665
15:19:34.372,0.415,-0.795
15:19:34.376,0.695,-1.035
15:19:34.380,1.045,-1.255
15:19:34.384,1.195,-1.420
15:19:34.388,1.090,-1.475
15:19:34.392,0.715,-1.295
15:19:34.396,0.275,-0.865
15:19:34.400,-0.060,-0.500
15:19:34.404,-0.225,-0.315
15:19:34.408,-0.330,-0.205
15:19:34.412,-0.370,-0.115
15:19:34.416,-0.395,-0.030
15:19:34.420,-0.410,0.035
15:19:34.424,-0.425,0.060
15:19:34.428,-0.435,0.085
15:19:34.432,-0.430,0.070
15:19:34.436,-0.450,0.075
15:19:34.440,-0.485,0.060
15:19:34.444,-0.510,0.070
15:19:34.448,-0.510,0.050
15:19:34.452,-0.520,0.075
15:19:34.456,-0.535,0.060
15:19:34.460,-0.520,0.055
15:19:34.464,-0.530,0.070
15:19:34.468,-0.505,0.080
15:19:34.472,-0.510,0.065
15:19:34.476,-0.515,0.070
15:19:34.480,-0.545,0.085
15:19:34.484,-0.545,0.090
15:19:34.488,-0.525,0.075
15:19:34.492,-0.505,0.070
15:19:34.496,-0.510,0.070
15:19:34.500,-0.530,0.085
15:19:34.504,-0.490,0.095
15:19:34.508,-0.505,0.070
15:19:34.512,-0.485,0.070
15:19:34.516,-0.500,0.085
15:19:34.520,-0.500,0.075
15:19:34.524,-0.480,0.085
15:19:34.528,-0.470,0.070
15:19:34.532,-0.440,0.085
15:19:34.536,-0.410,0.115
15:19:34.540,-0.390,0.110
15:19:34.544,-0.375,0.125
15:19:34.548,-0.340,0.130
15:19:34.552,-0.300,0.145
15:19:34.556,-0.305,0.140
15:19:34.560,-0.305,0.135
15:19:34.564,-0.270,0.105
15:19:34.568,-0.245,0.130
15:19:34.572,-0.215,0.105
15:19:34.576,-0.215,0.110
15:19:34.580,-0.210,0.055
15:19:34.584,-0.200,0.040
15:19:34.588,-0.200,0.030
15:19:34.592,-0.215,0.020
15:19:34.596,-0.225,0.005
15:19:34.600,-0.195,-0.005
15:19:34.604,-0.175,-0.020
15:19:34.608,-0.190,-0.035
15:19:34.612,-0.220,-0.055
15:19:34.616,-0.205,-0.055
15:19:34.620,-0.195,-0.070
15:19:34.624,-0.185,-0.090
15:19:34.628,-0.165,-0.100
15:19:34.632,-0.150,-0.080
15:19:34.636,-0.175,-0.080
15:19:34.640,-0.205,-0.100
15:19:34.644,-0.210,-0.090
15:19:34.648,-0.210,-0.060
15:19:34.652,-0.210,-0.075
15:19:34.656,-0.225,-0.085
15:19:34.660,-0.230,-0.090
15:19:34.664,-0.240,-0.090
15:19:34.668,-0.255,-0.060
15:19:34.672,-0.270,-0.050
15:19:34.676,-0.280,-0.045
15:19:34.680,-0.275,-0.050
15:19:34.684,-0.280,-0.030
15:19:34.688,-0.260,-0.030
15:19:34.692,-0.270,-0.025
15:19:34.696,-0.285,-0.045
15:19:34.700,-0.295,-0.025
15:19:34.704,-0.315,-0.010
15:19:34.708,-0.305,-0.010
15:19:34.712,-0.285,-0.040
15:19:34.716,-0.270,-0.025
15:19:34.720,-0.280,-0.035
15:19:34.724,-0.290,-0.020
15:19:34.728,-0.295,0.000
15:19:34.732,-0.305,0.005
15:19:34.736,-0.285,0.000
15:19:34.740,-0.280,-0.005
15:19:34.744,-0.260,0.005
15:19:34.748,-0.250,0.000
15:19:34.752,-0.225,0.010
15:19:34.756,-0.185,0.015
15:19:34.760,-0.110,0.005
15:19:34.764,-0.065,0.000
15:19:34.768,-0.040,-0.035
15:19:34.772,-0.045,-0.060
15:19:34.776,-0.040,-0.095
15:19:34.780,-0.060,-0.125
15:19:34.784,-0.095,-0.170
15:19:34.788,-0.115,-0.280
15:19:34.792,-0.050,-0.375
15:19:34.796,0.115,-0.565
15:19:34.800,0.405,-0.760
15:19:34.804,0.715,-1.025
15:19:34.808,0.970,-1.295
15:19:34.812,1.055,-1.460
15:19:34.816,0.915,-1.440
15:19:34.820,0.590,-1.175
15:19:34.824,0.230,-0.780
15:19:34.828,-0.040,-0.385
15:19:34.832,-0.190,-0.160
15:19:34.836,-0.270,-0.080
15:19:34.840,-0.305,0.005
15:19:34.844,-0.315,0.050
15:19:34.848,-0.290,0.070
15:19:34.852,-0.295,0.115
15:19:34.856,-0.305,0.085
15:19:34.860,-0.310,0.070
15:19:34.864,-0.335,0.035
15:19:34.868,-0.330,0.035
15:19:34.872,-0.310,0.055
15:19:34.876,-0.300,0.035
15:19:34.880,-0.320,0.050
15:19:34.884,-0.335,0.040
15:19:34.888,-0.340,0.065
15:19:34.892,-0.375,0.075
15:19:34.896,-0.395,0.085
15:19:34.900,-0.395,0.105
15:19:34.904,-0.400,0.120
15:19:34.908,-0.415,0.145
15:19:34.912,-0.395,0.145
15:19:34.916,-0.365,0.165
15:19:34.920,-0.380,0.155
15:19:34.924,-0.360,0.185
15:19:34.928,-0.385,0.180
15:19:34.932,-0.375,0.180
15:19:34.936,-0.345,0.185
15:19:34.940,-0.345,0.190
15:19:34.944,-0.375,0.215
15:19:34.948,-0.325,0.200
15:19:34.952,-0.335,0.185
15:19:34.956,-0.320,0.205
15:19:34.960,-0.285,0.210
15:19:34.964,-0.275,0.205
15:19:34.968,-0.315,0.215
15:19:34.972,-0.345,0.225
15:19:34.976,-0.330,0.220
15:19:34.980,-0.340,0.220
15:19:34.984,-0.350,0.245
15:19:34.988,-0.340,0.255
15:19:34.992,-0.330,0.240
15:19:34.996,-0.335,0.235
15:19:35.000,-0.350,0.200
15:19:35.004,-0.340,0.190
15:19:35.008,-0.345,0.125
15:19:35.012,-0.330,0.105
15:19:35.016,-0.335,0.110
15:19:35.020,-0.320,0.075
15:19:35.024,-0.280,0.055
15:19:35.028,-0.270,0.050
15:19:35.032,-0.250,0.035
15:19:35.036,-0.255,0.005
15:19:35.040,-0.225,0.015
15:19:35.044,-0.195,0.000
15:19:35.048,-0.165,0.005
15:19:35.052,-0.155,0.000
15:19:35.056,-0.135,-0.015
15:19:35.060,-0.105,-0.015
15:19:35.064,-0.080,-0.030
15:19:35.068,-0.050,-0.010
15:19:35.072,-0.045,-0.020
15:19:35.076,-0.035,0.000
15:19:35.080,-0.035,0.010
15:19:35.084,-0.030,0.020
15:19:35.088,-0.030,0.030
15:19:35.092,-0.010,0.035
15:19:35.096,-0.030,0.045
15:19:35.100,-0.035,0.035
15:19:35.104,-0.055,0.040
15:19:35.108,-0.055,0.035
15:19:35.112,-0.080,0.040
15:19:35.116,-0.090,0.055
15:19:35.120,-0.095,0.050
15:19:35.124,-0.075,0.075
15:19:35.128,-0.075,0.095
15:19:35.132,-0.080,0.085
15:19:35.136,-0.080,0.080
15:19:35.140,-0.065,0.070
15:19:35.144,-0.025,0.050
15:19:35.148,0.000,0.005
15:19:35.152,0.020,-0.005
15:19:35.156,0.000,-0.065
15:19:35.160,-0.025,-0.150
15:19:35.164,-0.080,-0.235
15:19:35.168,-0.115,-0.280
15:19:35.172,-0.170,-0.330
15:19:35.176,-0.140,-0.415
15:19:35.180,-0.050,-0.580
15:19:35.184,0.150,-0.745
15:19:35.188,0.460,-0.990
15:19:35.192,0.755,-1.280
15:19:35.196,0.900,-1.495
15:19:35.200,0.840,-1.560
15:19:35.204,0.555,-1.365
15:19:35.208,0.215,-0.945
15:19:35.212,-0.060,-0.525
15:19:35.216,-0.220,-0.240
15:19:35.220,-0.320,-0.100
15:19:35.224,-0.370,-0.005
15:19:35.228,-0.385,0.075
15:19:35.232,-0.380,0.130
15:19:35.236,-0.370,0.150
15:19:35.240,-0.360,0.185
15:19:35.244,-0.380,0.185
15:19:35.248,-0.385,0.170
15:19:35.252,-0.340,0.145
15:19:35.256,-0.330,0.120
15:19:35.260,-0.320,0.110
15:19:35.264,-0.320,0.115
15:19:35.268,-0.330,0.120
15:19:35.272,-0.320,0.115
15:19:35.276,-0.305,0.150
15:19:35.280,-0.335,0.135
15:19:35.284,-0.335,0.135
15:19:35.288,-0.300,0.170
15:19:35.292,-0.310,0.160
15:19:35.296,-0.295,0.160
15:19:35.300,-0.290,0.150
15:19:35.304,-0.280,0.165
15:19:35.308,-0.285,0.155
15:19:35.312,-0.270,0.160
15:19:35.316,-0.215,0.180
15:19:35.320,-0.185,0.195
15:19:35.324,-0.180,0.190
15:19:35.328,-0.160,0.195
15:19:35.332,-0.160,0.185
15:19:35.336,-0.175,0.210
15:19:35.340,-0.165,0.230
15:19:35.344,-0.185,0.235
15:19:35.348,-0.185,0.225
15:19:35.352,-0.185,0.210
15:19:35.356,-0.180,0.190
15:19:35.360,-0.210,0.175
15:19:35.364,-0.250,0.200
15:19:35.368,-0.230,0.165
15:19:35.372,-0.215,0.190
15:19:35.376,-0.225,0.205
15:19:35.380,-0.235,0.210
15:19:35.384,-0.210,0.180
15:19:35.388,-0.165,0.205
15:19:35.392,-0.150,0.190
15:19:35.396,-0.150,0.165
15:19:35.400,-0.155,0.155
15:19:35.404,-0.155,0.170
15:19:35.408,-0.150,0.155
15:19:35.412,-0.135,0.155
15:19:35.416,-0.120,0.110
15:19:35.420,-0.125,0.080
15:19:35.424,-0.155,0.035
15:19:35.428,-0.170,0.005
15:19:35.432,-0.165,0.015
15:19:35.436,-0.170,0.015
15:19:35.440,-0.160,-0.015
15:19:35.444,-0.195,-0.015
15:19:35.448,-0.195,-0.040
15:19:35.452,-0.200,-0.070
15:19:35.456,-0.200,-0.070
15:19:35.460,-0.180,-0.065
15:19:35.464,-0.145,-0.080
15:19:35.468,-0.155,-0.040
15:19:35.472,-0.155,-0.050
15:19:35.476,-0.155,-0.040
15:19:35.480,-0.155,-0.060
15:19:35.484,-0.180,-0.060
15:19:35.488,-0.185,-0.090
15:19:35.492,-0.150,-0.065
15:19:35.496,-0.160,-0.075
15:19:35.500,-0.170,-0.070
15:19:35.504,-0.170,-0.060
15:19:35.508,-0.185,-0.055
15:19:35.512,-0.180,-0.030
15:19:35.516,-0.195,-0.040
15:19:35.520,-0.185,-0.050
15:19:35.524,-0.170,-0.020
15:19:35.528,-0.120,-0.020
15:19:35.532,-0.055,-0.030
15:19:35.536,0.015,-0.040
15:19:35.540,0.045,-0.030
15:19:35.544,0.035,-0.060
15:19:35.548,0.025,-0.100
15:19:35.552,0.020,-0.135
15:19:35.556,0.000,-0.170
15:19:35.560,-0.025,-0.200
15:19:35.564,-0.060,-0.305
15:19:35.568,-0.055,-0.420
15:19:35.572,0.055,-0.550
15:19:35.576,0.320,-0.750
15:19:35.580,0.640,-1.015
15:19:35.584,0.895,-1.265
15:19:35.588,1.000,-1.455
15:19:35.592,0.905,-1.450
15:19:35.596,0.620,-1.190
15:19:35.600,0.280,-0.760
15:19:35.604,0.005,-0.380
15:19:35.608,-0.120,-0.170
15:19:35.612,-0.240,-0.040
15:19:35.616,-0.280,0.020
15:19:35.620,-0.350,0.105
15:19:35.624,-0.380,0.190
15:19:35.628,-0.380,0.215
15:19:35.632,-0.380,0.220
15:19:35.636,-0.395,0.225
15:19:35.640,-0.395,0.225
15:19:35.644,-0.390,0.200
15:19:35.648,-0.355,0.180
15:19:35.652,-0.345,0.175
15:19:35.656,-0.355,0.150
15:19:35.660,-0.355,0.165
15:19:35.664,-0.360,0.145
15:19:35.668,-0.370,0.115
15:19:35.672,-0.350,0.120
15:19:35.676,-0.340,0.110
15:19:35.680,-0.335,0.130
15:19:35.684,-0.350,0.140
15:19:35.688,-0.385,0.115
15:19:35.692,-0.430,0.095
15:19:35.696,-0.425,0.105
15:19:35.700,-0.420,0.135
15:19:35.704,-0.425,0.120
15:19:35.708,-0.400,0.135
15:19:35.712,-0.385,0.145
15:19:35.716,-0.380,0.130
15:19:35.720,-0.405,0.120
15:19:35.724,-0.385,0.125
15:19:35.728,-0.375,0.120
15:19:35.732,-0.370,0.115
15:19:35.736,-0.380,0.155
15:19:35.740,-0.365,0.120
15:19:35.744,-0.325,0.110
15:19:35.748,-0.340,0.125
15:19:35.752,-0.320,0.160
15:19:35.756,-0.345,0.135
15:19:35.760,-0.345,0.125
15:19:35.764,-0.355,0.135
15:19:35.768,-0.350,0.135
15:19:35.772,-0.355,0.125
15:19:35.776,-0.310,0.115
15:19:35.780,-0.325,0.120
15:19:35.784,-0.335,0.095
15:19:35.788,-0.320,0.080
15:19:35.792,-0.285,0.065
15:19:35.796,-0.310,0.065
15:19:35.800,-0.305,0.060
15:19:35.804,-0.280,0.045
15:19:35.808,-0.240,0.015
15:19:35.812,-0.200,0.015
15:19:35.816,-0.195,0.020
15:19:35.820,-0.195,0.000
15:19:35.824,-0.170,-0.020
15:19:35.828,-0.150,-0.020
15:19:35.832,-0.135,-0.015
15:19:35.836,-0.140,-0.010
15:19:35.840,-0.135,-0.030
15:19:35.844,-0.145,0.000
15:19:35.848,-0.135,-0.005
15:19:35.852,-0.150,-0.030
15:19:35.856,-0.155,-0.020
15:19:35.860,-0.160,-0.015
15:19:35.864,-0.180,-0.010
15:19:35.868,-0.205,0.010
15:19:35.872,-0.215,0.005
15:19:35.876,-0.170,0.000
15:19:35.880,-0.160,-0.010
15:19:35.884,-0.160,-0.015
15:19:35.888,-0.145,0.000
15:19:35.892,-0.145,-0.015
15:19:35.896,-0.135,-0.020
15:19:35.900,-0.140,-0.020
15:19:35.904,-0.150,0.000
15:19:35.908,-0.155,-0.015
15:19:35.912,-0.140,-0.045
15:19:35.916,-0.080,-0.025
15:19:35.920,0.005,-0.040
15:19:35.924,0.045,-0.040
15:19:35.928,0.055,-0.080
15:19:35.932,0.065,-0.120
15:19:35.936,0.045,-0.185
15:19:35.940,0.025,-0.225
15:19:35.944,0.010,-0.240
15:19:35.948,-0.015,-0.320
15:19:35.952,-0.030,-0.390
15:19:35.956,0.010,-0.520
15:19:35.960,0.190,-0.670
15:19:35.964,0.480,-0.920
15:19:35.968,0.825,-1.145
15:19:35.972,1.040,-1.350
15:19:35.976,0.990,-1.405
15:19:35.980,0.690,-1.265
15:19:35.984,0.300,-0.880
15:19:35.988,-0.015,-0.460
15:19:35.992,-0.195,-0.225
15:19:35.996,-0.275,-0.090
15:19:36.000,-0.305,-0.010
15:19:36.004,-0.335,0.075
15:19:36.008,-0.370,0.125
15:19:36.012,-0.425,0.145
15:19:36.016,-0.435,0.110
15:19:36.020,-0.445,0.115
15:19:36.024,-0.425,0.105
15:19:36.028,-0.435,0.110
15:19:36.032,-0.465,0.095
15:19:36.036,-0.470,0.075
15:19:36.040,-0.460,0.095
15:19:36.044,-0.435,0.105
15:19:36.048,-0.430,0.115
15:19:36.052,-0.425,0.090
15:19:36.056,-0.420,0.085
15:19:36.060,-0.390,0.110
15:19:36.064,-0.375,0.135
15:19:36.068,-0.375,0.130
15:19:36.072,-0.380,0.140
15:19:36.076,-0.370,0.120
15:19:36.080,-0.350,0.150
15:19:36.084,-0.300,0.160
15:19:36.088,-0.270,0.130
15:19:36.092,-0.295,0.140
15:19:36.096,-0.325,0.135
15:19:36.100,-0.375,0.165
15:19:36.104,-0.370,0.150
15:19:36.108,-0.370,0.160
15:19:36.112,-0.360,0.145
15:19:36.116,-0.395,0.160
15:19:36.120,-0.430,0.145
15:19:36.124,-0.445,0.155
15:19:36.128,-0.460,0.140
15:19:36.132,-0.430,0.115
15:19:36.136,-0.410,0.120
15:19:36.140,-0.405,0.105
15:19:36.144,-0.380,0.075
15:19:36.148,-0.345,0.070
15:19:36.152,-0.350,0.005
15:19:36.156,-0.340,-0.010
15:19:36.160,-0.365,-0.040
15:19:36.164,-0.370,-0.040
15:19:36.168,-0.355,-0.065
15:19:36.172,-0.335,-0.065
15:19:36.176,-0.315,-0.065
15:19:36.180,-0.310,-0.080
15:19:36.184,-0.280,-0.075
15:19:36.188,-0.285,-0.070
15:19:36.192,-0.295,-0.105
15:19:36.196,-0.285,-0.085
15:19:36.200,-0.245,-0.105
15:19:36.204,-0.245,-0.100
15:19:36.208,-0.215,-0.085
15:19:36.212,-0.175,-0.075
15:19:36.216,-0.170,-0.090
15:19:36.220,-0.180,-0.095
15:19:36.224,-0.190,-0.110
15:19:36.228,-0.185,-0.085
15:19:36.232,-0.195,-0.095
15:19:36.236,-0.175,-0.080
15:19:36.240,-0.155,-0.080
15:19:36.244,-0.160,-0.070
15:19:36.248,-0.180,-0.050
15:19:36.252,-0.195,-0.085
15:19:36.256,-0.205,-0.080
15:19:36.260,-0.215,-0.060
15:19:36.264,-0.200,-0.055
15:19:36.268,-0.195,-0.050
15:19:36.272,-0.210,-0.045
15:19:36.276,-0.245,-0.050
15:19:36.280,-0.235,-0.060
15:19:36.284,-0.215,-0.065
15:19:36.288,-0.200,-0.060
15:19:36.292,-0.175,-0.060
15:19:36.296,-0.105,-0.055
15:19:36.300,-0.025,-0.065
15:19:36.304,0.030,-0.105
15:19:36.308,0.055,-0.135
15:19:36.312,0.070,-0.150
15:19:36.316,0.065,-0.170
15:19:36.320,0.055,-0.205
15:19:36.324,0.040,-0.270
15:19:36.328,0.030,-0.350
15:19:36.332,0.090,-0.480
15:19:36.336,0.240,-0.580
15:19:36.340,0.495,-0.785
15:19:36.344,0.810,-1.005
15:19:36.348,1.050,-1.230
15:19:36.352,1.115,-1.345
15:19:36.356,0.880,-1.275
15:19:36.360,0.440,-1.005
15:19:36.364,0.030,-0.610
15:19:36.368,-0.195,-0.290
15:19:36.372,-0.320,-0.145
15:19:36.376,-0.380,-0.080
15:19:36.380,-0.375,0.030
15:19:36.384,-0.380,0.060
15:19:36.388,-0.390,0.090
15:19:36.392,-0.410,0.075
15:19:36.396,-0.405,0.075
15:19:36.400,-0.415,0.075
15:19:36.404,-0.410,0.045
15:19:36.408,-0.425,0.030
15:19:36.412,-0.420,0.020
15:19:36.416,-0.415,0.010
15:19:36.420,-0.390,0.035
15:19:36.424,-0.375,0.040
15:19:36.428,-0.350,0.025
15:19:36.432,-0.335,0.045
15:19:36.436,-0.300,0.040
15:19:36.440,-0.310,0.025
15:19:36.444,-0.300,0.035
15:19:36.448,-0.315,0.055
15:19:36.452,-0.290,0.085
15:19:36.456,-0.295,0.090
15:19:36.460,-0.300,0.090
15:19:36.464,-0.300,0.100
15:19:36.468,-0.330,0.105
15:19:36.472,-0.320,0.125
15:19:36.476,-0.325,0.115
15:19:36.480,-0.315,0.120
15:19:36.484,-0.310,0.115
15:19:36.488,-0.310,0.120
15:19:36.492,-0.320,0.120
15:19:36.496,-0.330,0.135
15:19:36.500,-0.320,0.150
15:19:36.504,-0.320,0.145
15:19:36.508,-0.300,0.145
15:19:36.512,-0.340,0.145
15:19:36.516,-0.345,0.145
15:19:36.520,-0.340,0.145
15:19:36.524,-0.315,0.150
15:19:36.528,-0.310,0.115
15:19:36.532,-0.295,0.105
15:19:36.536,-0.295,0.110
15:19:36.540,-0.275,0.095
15:19:36.544,-0.240,0.095
15:19:36.548,-0.200,0.075
15:19:36.552,-0.200,0.070
15:19:36.556,-0.195,0.080
15:19:36.560,-0.185,0.070
15:19:36.564,-0.175,0.080
15:19:36.568,-0.200,0.080
15:19:36.572,-0.190,0.085
15:19:36.576,-0.200,0.095
15:19:36.580,-0.205,0.095
15:19:36.584,-0.200,0.090
15:19:36.588,-0.205,0.090
15:19:36.592,-0.190,0.070
15:19:36.596,-0.155,0.035
15:19:36.600,-0.175,0.015
15:19:36.604,-0.180,-0.015
15:19:36.608,-0.185,0.000
15:19:36.612,-0.185,-0.005
15:19:36.616,-0.205,-0.005
15:19:36.620,-0.210,-0.045
15:19:36.624,-0.225,-0.030
15:19:36.628,-0.220,-0.035
15:19:36.632,-0.220,-0.020
15:19:36.636,-0.210,-0.025
15:19:36.640,-0.220,-0.035
15:19:36.644,-0.230,-0.035
15:19:36.648,-0.220,-0.035
15:19:36.652,-0.220,-0.040
15:19:36.656,-0.230,-0.030
15:19:36.660,-0.225,-0.020
15:19:36.664,-0.240,0.010
15:19:36.668,-0.240,0.010
15:19:36.672,-0.245,0.015
15:19:36.676,-0.260,0.005
15:19:36.680,-0.260,0.000
15:19:36.684,-0.245,0.000
15:19:36.688,-0.225,0.005
15:19:36.692,-0.200,0.000
15:19:36.696,-0.175,-0.010
15:19:36.700,-0.155,0.000
15:19:36.704,-0.150,0.000
15:19:36.708,-0.130,0.000
15:19:36.712,-0.115,-0.030
15:19:36.716,-0.125,-0.050
15:19:36.720,-0.160,-0.070
15:19:36.724,-0.165,-0.045
15:19:36.728,-0.160,-0.050
15:19:36.732,-0.150,-0.060
15:19:36.736,-0.170,-0.080
15:19:36.740,-0.200,-0.035
15:19:36.744,-0.190,-0.015
15:19:36.748,-0.155,-0.005
15:19:36.752,-0.180,-0.015
15:19:36.756,-0.180,-0.040
15:19:36.760,-0.180,-0.025
15:19:36.764,-0.180,-0.015
15:19:36.768,-0.180,-0.030
15:19:36.772,-0.175,-0.020
15:19:36.776,-0.180,-0.025
15:19:36.780,-0.180,-0.025
15:19:36.784,-0.140,0.000
15:19:36.788,-0.130,0.005
15:19:36.792,-0.135,-0.005
15:19:36.796,-0.140,-0.010
15:19:36.800,-0.150,0.000
15:19:36.804,-0.150,0.035
15:19:36.808,-0.160,0.050
15:19:36.812,-0.165,0.060
15:19:36.816,-0.130,0.050
15:19:36.820,-0.045,0.035
15:19:36.824,0.025,0.020
15:19:36.828,0.080,0.000
15:19:36.832,0.080,-0.060
15:19:36.836,0.090,-0.100
15:19:36.840,0.130,-0.175
15:19:36.844,0.140,-0.205
15:19:36.848,0.110,-0.280
15:19:36.852,0.110,-0.335
15:19:36.856,0.090,-0.435
15:19:36.860,0.115,-0.600
15:19:36.864,0.295,-0.790
15:19:36.868,0.645,-1.000
15:19:36.872,0.965,-1.240
15:19:36.876,1.060,-1.415
15:19:36.880,0.925,-1.480
15:19:36.884,0.590,-1.325
15:19:36.888,0.170,-0.915
15:19:36.892,-0.155,-0.540
15:19:36.896,-0.310,-0.310
15:19:36.900,-0.380,-0.195
15:19:36.904,-0.395,-0.070
15:19:36.908,-0.390,0.035
15:19:36.912,-0.385,0.070
15:19:36.916,-0.365,0.120
15:19:36.920,-0.340,0.170
15:19:36.924,-0.320,0.180
15:19:36.928,-0.280,0.160
15:19:36.932,-0.280,0.155
15:19:36.936,-0.285,0.185
15:19:36.940,-0.295,0.175
15:19:36.944,-0.290,0.230
15:19:36.948,-0.275,0.220
15:19:36.952,-0.240,0.230
15:19:36.956,-0.215,0.230
15:19:36.960,-0.265,0.225
15:19:36.964,-0.270,0.210
15:19:36.968,-0.285,0.200
15:19:36.972,-0.270,0.160
15:19:36.976,-0.240,0.145
15:19:36.980,-0.250,0.160
15:19:36.984,-0.240,0.140
15:19:36.988,-0.240,0.135
15:19:36.992,-0.220,0.100
15:19:36.996,-0.200,0.100
15:19:37.000,-0.215,0.120
15:19:37.004,-0.205,0.140
15:19:37.008,-0.225,0.135
15:19:37.012,-0.210,0.140
15:19:37.016,-0.210,0.140
15:19:37.020,-0.200,0.160
15:19:37.024,-0.180,0.150
15:19:37.028,-0.180,0.150
15:19:37.032,-0.150,0.165
15:19:37.036,-0.120,0.200
15:19:37.040,-0.130,0.210
15:19:37.044,-0.160,0.190
15:19:37.048,-0.165,0.200
15:19:37.052,-0.150,0.200
15:19:37.056,-0.165,0.185
15:19:37.060,-0.170,0.170
15:19:37.064,-0.150,0.145
15:19:37.068,-0.135,0.145
15:19:37.072,-0.135,0.135
15:19:37.076,-0.150,0.125
15:19:37.080,-0.150,0.135
15:19:37.084,-0.175,0.100
15:19:37.088,-0.190,0.105
15:19:37.092,-0.200,0.090
15:19:37.096,-0.180,0.060
15:19:37.100,-0.170,0.070
15:19:37.104,-0.160,0.060
15:19:37.108,-0.160,0.040
15:19:37.112,-0.175,0.030
15:19:37.116,-0.180,0.005
15:19:37.120,-0.145,-0.005
15:19:37.124,-0.140,-0.020
15:19:37.128,-0.155,-0.020
15:19:37.132,-0.145,-0.040
15:19:37.136,-0.140,-0.040
15:19:37.140,-0.115,-0.045
15:19:37.144,-0.085,-0.030
15:19:37.148,-0.065,-0.050
15:19:37.152,-0.050,-0.045
15:19:37.156,-0.040,-0.040
15:19:37.160,-0.010,-0.025
15:19:37.164,0.020,-0.020
15:19:37.168,0.020,-0.015
15:19:37.172,0.035,-0.005
15:19:37.176,0.030,0.010
15:19:37.180,0.020,0.025
15:19:37.184,0.025,0.045
15:19:37.188,-0.015,0.060
15:19:37.192,-0.040,0.070
15:19:37.196,-0.025,0.050
15:19:37.200,0.000,0.065
15:19:37.204,0.000,0.045
15:19:37.208,-0.020,0.015
15:19:37.212,-0.005,0.015
15:19:37.216,0.000,0.030
15:19:37.220,0.000,0.020
15:19:37.224,-0.005,0.020
15:19:37.228,-0.055,0.040
15:19:37.232,-0.090,0.045
15:19:37.236,-0.070,0.050
15:19:37.240,-0.060,0.060
15:19:37.244,-0.080,0.045
15:19:37.248,-0.080,0.040
15:19:37.252,-0.080,0.060
15:19:37.256,-0.115,0.065
15:19:37.260,-0.115,0.075
15:19:37.264,-0.120,0.050
15:19:37.268,-0.130,0.020
15:19:37.272,-0.160,0.010
15:19:37.276,-0.180,0.035
15:19:37.280,-0.165,0.015
15:19:37.284,-0.190,0.010
15:19:37.288,-0.190,0.015
15:19:37.292,-0.170,0.000
15:19:37.296,-0.205,0.000
15:19:37.300,-0.220,0.000
15:19:37.304,-0.220,-0.015
15:19:37.308,-0.250,-0.005
15:19:37.312,-0.265,-0.020
15:19:37.316,-0.280,-0.010
15:19:37.320,-0.255,0.010
15:19:37.324,-0.235,-0.025
15:19:37.328,-0.170,-0.005
15:19:37.332,-0.105,-0.015
15:19:37.336,-0.065,-0.015
15:19:37.340,-0.040,-0.060
15:19:37.344,-0.015,-0.080
15:19:37.348,0.020,-0.110
15:19:37.352,0.000,-0.155
15:19:37.356,-0.015,-0.200
15:19:37.360,-0.020,-0.270
15:19:37.364,0.000,-0.365
15:19:37.368,0.090,-0.495
15:19:37.372,0.250,-0.710
15:19:37.376,0.550,-0.935
15:19:37.380,0.830,-1.200
15:19:37.384,1.005,-1.395
15:19:37.388,1.005,-1.535
15:19:37.392,0.780,-1.440
15:19:37.396,0.365,-1.090
15:19:37.400,0.060,-0.650
15:19:37.404,-0.115,-0.340
15:19:37.408,-0.180,-0.180
15:19:37.412,-0.220,-0.060
15:19:37.416,-0.255,0.010
15:19:37.420,-0.235,0.060
15:19:37.424,-0.220,0.095
15:19:37.428,-0.240,0.115
15:19:37.432,-0.220,0.150
15:19:37.436,-0.220,0.150
15:19:37.440,-0.220,0.145
15:19:37.444,-0.235,0.155
15:19:37.448,-0.230,0.160
15:19:37.452,-0.240,0.160
15:19:37.456,-0.240,0.145
15:19:37.460,-0.225,0.200
15:19:37.464,-0.225,0.200
15:19:37.468,-0.250,0.200
15:19:37.472,-0.225,0.230
15:19:37.476,-0.225,0.260
15:19:37.480,-0.235,0.260
15:19:37.484,-0.250,0.260
15:19:37.488,-0.260,0.270
15:19:37.492,-0.240,0.230
15:19:37.496,-0.235,0.230
15:19:37.500,-0.265,0.250
15:19:37.504,-0.280,0.260
15:19:37.508,-0.315,0.250
15:19:37.512,-0.290,0.275
15:19:37.516,-0.300,0.250
15:19:37.520,-0.275,0.240
15:19:37.524,-0.260,0.265
15:19:37.528,-0.250,0.260
15:19:37.532,-0.270,0.255
15:19:37.536,-0.270,0.255
15:19:37.540,-0.260,0.265
15:19:37.544,-0.270,0.260
15:19:37.548,-0.270,0.270
15:19:37.552,-0.240,0.270
15:19:37.556,-0.230,0.275
15:19:37.560,-0.235,0.265
15:19:37.564,-0.240,0.255
15:19:37.568,-0.235,0.215
15:19:37.572,-0.250,0.230
15:19:37.576,-0.220,0.240
15:19:37.580,-0.225,0.210
15:19:37.584,-0.240,0.210
15:19:37.588,-0.260,0.195
15:19:37.592,-0.255,0.135
15:19:37.596,-0.240,0.155
15:19:37.600,-0.205,0.145
15:19:37.604,-0.210,0.135
15:19:37.608,-0.220,0.130
15:19:37.612,-0.170,0.120
15:19:37.616,-0.155,0.115
15:19:37.620,-0.140,0.095
15:19:37.624,-0.160,0.115
15:19:37.628,-0.150,0.095
15:19:37.632,-0.090,0.095
15:19:37.636,-0.045,0.090
15:19:37.640,-0.015,0.065
15:19:37.644,-0.015,0.055
15:19:37.648,-0.025,0.050
15:19:37.652,-0.060,0.050
15:19:37.656,-0.005,0.055
15:19:37.660,0.015,0.050
15:19:37.664,0.020,0.015
15:19:37.668,0.000,0.015
15:19:37.672,0.000,0.015
15:19:37.676,0.010,0.020
15:19:37.680,-0.025,0.030
15:19:37.684,-0.015,0.035
15:19:37.688,-0.035,0.040
15:19:37.692,-0.070,0.045
15:19:37.696,-0.065,0.045
15:19:37.700,-0.090,0.075
15:19:37.704,-0.110,0.080
15:19:37.708,-0.115,0.105
15:19:37.712,-0.135,0.115
15:19:37.716,-0.130,0.100
15:19:37.720,-0.160,0.080
15:19:37.724,-0.155,0.090
15:19:37.728,-0.155,0.095
15:19:37.732,-0.175,0.100
15:19:37.736,-0.190,0.090
15:19:37.740,-0.220,0.085
15:19:37.744,-0.220,0.080
15:19:37.748,-0.220,0.110
15:19:37.752,-0.230,0.110
15:19:37.756,-0.225,0.120
15:19:37.760,-0.190,0.135
15:19:37.764,-0.190,0.115
15:19:37.768,-0.200,0.110
15:19:37.772,-0.190,0.105
15:19:37.776,-0.130,0.120
15:19:37.780,-0.020,0.120
15:19:37.784,0.020,0.090
15:19:37.788,0.045,0.055
15:19:37.792,0.030,0.030
15:19:37.796,0.020,-0.020
15:19:37.800,0.020,-0.075
15:19:37.804,0.020,-0.140
15:19:37.808,-0.040,-0.215
15:19:37.812,-0.075,-0.325
15:19:37.816,-0.040,-0.460
15:19:37.820,0.120,-0.630
15:19:37.824,0.435,-0.850
15:19:37.828,0.740,-1.135
15:19:37.832,0.955,-1.360
15:19:37.836,0.955,-1.480
15:19:37.840,0.740,-1.400
15:19:37.844,0.365,-1.085
15:19:37.848,0.040,-0.615
15:19:37.852,-0.160,-0.305
15:19:37.856,-0.265,-0.125
15:19:37.860,-0.290,-0.005
15:19:37.864,-0.270,0.110
15:19:37.868,-0.220,0.190
15:19:37.872,-0.190,0.240
15:19:37.876,-0.195,0.245
15:19:37.880,-0.180,0.270
15:19:37.884,-0.160,0.275
15:19:37.888,-0.150,0.265
15:19:37.892,-0.145,0.250
15:19:37.896,-0.170,0.220
15:19:37.900,-0.180,0.220
15:19:37.904,-0.195,0.195
15:19:37.908,-0.210,0.215
15:19:37.912,-0.215,0.200
15:19:37.916,-0.225,0.210
15:19:37.920,-0.210,0.200
15:19:37.924,-0.220,0.210
15:19:37.928,-0.250,0.235
15:19:37.932,-0.290,0.240
15:19:37.936,-0.300,0.240
15:19:37.940,-0.280,0.240
15:19:37.944,-0.300,0.245
15:19:37.948,-0.290,0.235
15:19:37.952,-0.280,0.225
15:19:37.956,-0.255,0.250
15:19:37.960,-0.265,0.250
15:19:37.964,-0.265,0.250
15:19:37.968,-0.255,0.260
15:19:37.972,-0.230,0.260
15:19:37.976,-0.265,0.255
15:19:37.980,-0.285,0.240
15:19:37.984,-0.270,0.280
15:19:37.988,-0.270,0.290
15:19:37.992,-0.260,0.285
15:19:37.996,-0.305,0.260
15:19:38.000,-0.315,0.270
15:19:38.004,-0.320,0.280
15:19:38.008,-0.320,0.265
15:19:38.012,-0.285,0.270
15:19:38.016,-0.265,0.275
15:19:38.020,-0.250,0.275
15:19:38.024,-0.230,0.270
15:19:38.028,-0.255,0.240
15:19:38.032,-0.240,0.220
15:19:38.036,-0.230,0.215
15:19:38.040,-0.190,0.220
15:19:38.044,-0.185,0.200
15:19:38.048,-0.195,0.160
15:19:38.052,-0.180,0.140
15:19:38.056,-0.165,0.145
15:19:38.060,-0.145,0.110
15:19:38.064,-0.110,0.105
15:19:38.068,-0.085,0.090
15:19:38.072,-0.070,0.070
15:19:38.076,-0.055,0.090
15:19:38.080,-0.010,0.075
15:19:38.084,-0.015,0.090
15:19:38.088,-0.005,0.080
15:19:38.092,-0.020,0.085
15:19:38.096,0.000,0.080
15:19:38.100,0.005,0.095
15:19:38.104,-0.005,0.085
15:19:38.108,0.000,0.085
15:19:38.112,-0.010,0.085
15:19:38.116,-0.050,0.075
15:19:38.120,-0.050,0.070
15:19:38.124,-0.015,0.060
15:19:38.128,-0.035,0.055
15:19:38.132,-0.040,0.055
15:19:38.136,-0.070,0.050
15:19:38.140,-0.045,0.040
15:19:38.144,-0.100,0.060
15:19:38.148,-0.140,0.075
15:19:38.152,-0.160,0.055
15:19:38.156,-0.150,0.095
15:19:38.160,-0.160,0.080
15:19:38.164,-0.110,0.120
15:19:38.168,-0.065,0.105
15:19:38.172,-0.005,0.050
15:19:38.176,0.020,-0.005
15:19:38.180,0.015,-0.025
15:19:38.184,-0.005,-0.080
15:19:38.188,-0.035,-0.120
15:19:38.192,-0.100,-0.145
15:19:38.196,-0.145,-0.200
15:19:38.200,-0.195,-0.320
15:19:38.204,-0.195,-0.420
15:19:38.208,-0.080,-0.585
15:19:38.212,0.165,-0.795
15:19:38.216,0.455,-1.055
15:19:38.220,0.690,-1.345
15:19:38.224,0.825,-1.550
15:19:38.228,0.750,-1.560
15:19:38.232,0.465,-1.340
15:19:38.236,0.085,-0.940
15:19:38.240,-0.160,-0.510
15:19:38.244,-0.330,-0.240
15:19:38.248,-0.440,-0.120
15:19:38.252,-0.475,0.000
15:19:38.256,-0.500,0.105
15:19:38.260,-0.525,0.150
15:19:38.264,-0.525,0.170
15:19:38.268,-0.490,0.165
15:19:38.272,-0.480,0.175
15:19:38.276,-0.470,0.160
15:19:38.280,-0.480,0.160
15:19:38.284,-0.475,0.155
15:19:38.288,-0.455,0.155
15:19:38.292,-0.445,0.155
15:19:38.296,-0.435,0.195
