Time,ECG1,ECG2
15:23:20.000,-0.230,-0.325
15:23:20.004,-0.250,-0.270
15:23:20.008,-0.280,-0.225
15:23:20.012,-0.320,-0.280
15:23:20.016,-0.350,-0.370
15:23:20.020,-0.380,-0.400
15:23:20.024,-0.350,-0.395
15:23:20.028,-0.385,-0.335
15:23:20.032,-0.400,-0.275
15:23:20.036,-0.410,-0.260
15:23:20.040,-0.415,-0.300
15:23:20.044,-0.440,-0.340
15:23:20.048,-0.440,-0.385
15:23:20.052,-0.440,-0.410
15:23:20.056,-0.460,-0.405
15:23:20.060,-0.480,-0.380
15:23:20.064,-0.455,-0.350
15:23:20.068,-0.415,-0.360
15:23:20.072,-0.365,-0.385
15:23:20.076,-0.335,-0.415
15:23:20.080,-0.295,-0.455
15:23:20.084,-0.240,-0.530
15:23:20.088,-0.245,-0.565
15:23:20.092,-0.240,-0.640
15:23:20.096,-0.220,-0.765
15:23:20.100,-0.225,-0.905
15:23:20.104,-0.155,-1.080
15:23:20.108,0.015,-1.275
15:23:20.112,0.255,-1.500
15:23:20.116,0.570,-1.800
15:23:20.120,0.835,-2.090
15:23:20.124,0.935,-2.275
15:23:20.128,0.760,-2.240
15:23:20.132,0.330,-2.065
15:23:20.136,-0.120,-1.710
15:23:20.140,-0.400,-1.300
15:23:20.144,-0.535,-1.020
15:23:20.148,-0.615,-0.820
15:23:20.152,-0.625,-0.680
15:23:20.156,-0.635,-0.525
15:23:20.160,-0.615,-0.410
15:23:20.164,-0.610,-0.355
15:23:20.168,-0.600,-0.305
15:23:20.172,-0.585,-0.285
15:23:20.176,-0.565,-0.295
15:23:20.180,-0.555,-0.280
15:23:20.184,-0.565,-0.270
15:23:20.188,-0.570,-0.280
15:23:20.192,-0.570,-0.260
15:23:20.196,-0.565,-0.230
15:23:20.200,-0.555,-0.190
15:23:20.204,-0.545,-0.190
15:23:20.208,-0.525,-0.215
15:23:20.212,-0.510,-0.225
15:23:20.216,-0.480,-0.210
15:23:20.220,-0.455,-0.175
15:23:20.224,-0.435,-0.160
15:23:20.228,-0.420,-0.135
15:23:20.232,-0.415,-0.110
15:23:20.236,-0.460,-0.050
15:23:20.240,-0.470,0.015
15:23:20.244,-0.485,0.065
15:23:20.248,-0.485,0.095
15:23:20.252,-0.485,0.070
15:23:20.256,-0.520,0.020
15:23:20.260,-0.525,-0.035
15:23:20.264,-0.515,-0.050
15:23:20.268,-0.530,-0.025
15:23:20.272,-0.540,0.015
15:23:20.276,-0.560,0.055
15:23:20.280,-0.550,0.090
15:23:20.284,-0.565,0.040
15:23:20.288,-0.585,0.005
15:23:20.292,-0.590,-0.020
15:23:20.296,-0.600,-0.035
15:23:20.300,-0.620,-0.035
15:23:20.304,-0.610,-0.055
15:23:20.308,-0.625,-0.070
15:23:20.312,-0.610,-0.060
15:23:20.316,-0.610,-0.050
15:23:20.320,-0.610,-0.100
15:23:20.324,-0.590,-0.090
15:23:20.328,-0.585,-0.085
15:23:20.332,-0.560,-0.070
15:23:20.336,-0.555,-0.075
15:23:20.340,-0.555,-0.135
15:23:20.344,-0.520,-0.205
15:23:20.348,-0.515,-0.220
15:23:20.352,-0.500,-0.220
15:23:20.356,-0.510,-0.230
15:23:20.360,-0.485,-0.255
15:23:20.364,-0.470,-0.285
15:23:20.368,-0.460,-0.290
15:23:20.372,-0.455,-0.285
15:23:20.376,-0.435,-0.260
15:23:20.380,-0.465,-0.230
15:23:20.384,-0.440,-0.220
15:23:20.388,-0.440,-0.230
15:23:20.392,-0.430,-0.255
15:23:20.396,-0.400,-0.305
15:23:20.400,-0.400,-0.280
15:23:20.404,-0.395,-0.260
15:23:20.408,-0.390,-0.255
15:23:20.412,-0.365,-0.245
15:23:20.416,-0.365,-0.305
15:23:20.420,-0.370,-0.320
15:23:20.424,-0.410,-0.295
15:23:20.428,-0.405,-0.280
15:23:20.432,-0.420,-0.260
15:23:20.436,-0.405,-0.320
15:23:20.440,-0.405,-0.305
15:23:20.444,-0.405,-0.280
15:23:20.448,-0.400,-0.305
15:23:20.452,-0.385,-0.260
15:23:20.456,-0.390,-0.225
15:23:20.460,-0.415,-0.225
15:23:20.464,-0.410,-0.250
15:23:20.468,-0.360,-0.255
15:23:20.472,-0.370,-0.250
15:23:20.476,-0.365,-0.215
15:23:20.480,-0.340,-0.215
15:23:20.484,-0.350,-0.280
15:23:20.488,-0.355,-0.335
15:23:20.492,-0.340,-0.315
15:23:20.496,-0.380,-0.255
15:23:20.500,-0.410,-0.225
15:23:20.504,-0.405,-0.220
15:23:20.508,-0.410,-0.225
15:23:20.512,-0.415,-0.210
15:23:20.516,-0.445,-0.230
15:23:20.520,-0.440,-0.255
15:23:20.524,-0.480,-0.250
15:23:20.528,-0.480,-0.170
15:23:20.532,-0.525,-0.190
15:23:20.536,-0.535,-0.250
15:23:20.540,-0.565,-0.305
15:23:20.544,-0.560,-0.290
15:23:20.548,-0.565,-0.250
15:23:20.552,-0.560,-0.215
15:23:20.556,-0.565,-0.210
15:23:20.560,-0.570,-0.240
15:23:20.564,-0.575,-0.270
15:23:20.568,-0.590,-0.290
15:23:20.572,-0.600,-0.300
15:23:20.576,-0.595,-0.285
15:23:20.580,-0.610,-0.280
15:23:20.584,-0.580,-0.290
15:23:20.588,-0.570,-0.295
15:23:20.592,-0.545,-0.290
15:23:20.596,-0.555,-0.300
15:23:20.600,-0.565,-0.290
15:23:20.604,-0.550,-0.290
15:23:20.608,-0.545,-0.275
15:23:20.612,-0.555,-0.280
15:23:20.616,-0.505,-0.280
15:23:20.620,-0.525,-0.305
15:23:20.624,-0.535,-0.310
15:23:20.628,-0.545,-0.300
15:23:20.632,-0.565,-0.285
15:23:20.636,-0.595,-0.275
15:23:20.640,-0.585,-0.285
15:23:20.644,-0.580,-0.310
15:23:20.648,-0.555,-0.350
15:23:20.652,-0.525,-0.360
15:23:20.656,-0.525,-0.360
15:23:20.660,-0.520,-0.300
15:23:20.664,-0.500,-0.345
15:23:20.668,-0.485,-0.315
15:23:20.672,-0.500,-0.365
15:23:20.676,-0.485,-0.370
15:23:20.680,-0.460,-0.400
15:23:20.684,-0.465,-0.350
15:23:20.688,-0.465,-0.335
15:23:20.692,-0.465,-0.295
15:23:20.696,-0.445,-0.300
15:23:20.700,-0.470,-0.290
15:23:20.704,-0.465,-0.310
15:23:20.708,-0.490,-0.335
15:23:20.712,-0.495,-0.410
15:23:20.716,-0.485,-0.400
15:23:20.720,-0.470,-0.360
15:23:20.724,-0.495,-0.340
15:23:20.728,-0.495,-0.310
15:23:20.732,-0.465,-0.310
15:23:20.736,-0.450,-0.290
15:23:20.740,-0.450,-0.250
15:23:20.744,-0.470,-0.210
15:23:20.748,-0.510,-0.230
15:23:20.752,-0.520,-0.275
15:23:20.756,-0.555,-0.300
15:23:20.760,-0.550,-0.275
15:23:20.764,-0.555,-0.265
15:23:20.768,-0.580,-0.250
15:23:20.772,-0.600,-0.245
15:23:20.776,-0.620,-0.235
15:23:20.780,-0.615,-0.235
15:23:20.784,-0.585,-0.285
15:23:20.788,-0.560,-0.260
15:23:20.792,-0.560,-0.270
15:23:20.796,-0.565,-0.285
15:23:20.800,-0.580,-0.260
15:23:20.804,-0.555,-0.250
15:23:20.808,-0.485,-0.270
15:23:20.812,-0.385,-0.280
15:23:20.816,-0.290,-0.305
15:23:20.820,-0.180,-0.315
15:23:20.824,-0.090,-0.380
15:23:20.828,0.005,-0.445
15:23:20.832,0.100,-0.495
15:23:20.836,0.135,-0.640
15:23:20.840,0.135,-0.810
15:23:20.844,0.125,-1.070
15:23:20.848,0.210,-1.335
15:23:20.852,0.390,-1.575
15:23:20.856,0.695,-1.830
15:23:20.860,0.950,-2.020
15:23:20.864,1.025,-2.175
15:23:20.868,0.800,-2.170
15:23:20.872,0.305,-1.980
15:23:20.876,-0.245,-1.550
15:23:20.880,-0.540,-1.155
15:23:20.884,-0.670,-0.880
15:23:20.888,-0.720,-0.740
15:23:20.892,-0.720,-0.590
15:23:20.896,-0.730,-0.460
15:23:20.900,-0.750,-0.320
15:23:20.904,-0.770,-0.195
15:23:20.908,-0.770,-0.145
15:23:20.912,-0.755,-0.140
15:23:20.916,-0.755,-0.155
15:23:20.920,-0.735,-0.180
15:23:20.924,-0.705,-0.185
15:23:20.928,-0.700,-0.170
15:23:20.932,-0.720,-0.140
15:23:20.936,-0.685,-0.175
15:23:20.940,-0.660,-0.210
15:23:20.944,-0.650,-0.230
15:23:20.948,-0.600,-0.225
15:23:20.952,-0.585,-0.205
15:23:20.956,-0.580,-0.185
15:23:20.960,-0.575,-0.200
15:23:20.964,-0.565,-0.200
15:23:20.968,-0.565,-0.190
15:23:20.972,-0.555,-0.175
15:23:20.976,-0.555,-0.110
15:23:20.980,-0.520,-0.090
15:23:20.984,-0.515,-0.075
15:23:20.988,-0.520,-0.050
15:23:20.992,-0.550,-0.050
15:23:20.996,-0.555,-0.010
15:23:21.000,-0.555,0.005
15:23:21.004,-0.585,0.015
15:23:21.008,-0.590,0.025
15:23:21.012,-0.595,0.045
15:23:21.016,-0.615,0.080
15:23:21.020,-0.640,0.105
15:23:21.024,-0.645,0.115
15:23:21.028,-0.625,0.095
15:23:21.032,-0.610,0.055
15:23:21.036,-0.635,0.090
15:23:21.040,-0.625,0.130
15:23:21.044,-0.665,0.125
15:23:21.048,-0.650,0.075
15:23:21.052,-0.665,0.025
15:23:21.056,-0.665,0.010
15:23:21.060,-0.650,0.000
15:23:21.064,-0.635,0.035
15:23:21.068,-0.620,0.015
15:23:21.072,-0.640,-0.020
15:23:21.076,-0.630,-0.080
15:23:21.080,-0.610,-0.110
15:23:21.084,-0.610,-0.115
15:23:21.088,-0.610,-0.055
15:23:21.092,-0.600,-0.050
15:23:21.096,-0.605,-0.080
15:23:21.100,-0.630,-0.105
15:23:21.104,-0.625,-0.115
15:23:21.108,-0.650,-0.150
15:23:21.112,-0.655,-0.130
15:23:21.116,-0.660,-0.190
15:23:21.120,-0.660,-0.225
15:23:21.124,-0.640,-0.275
15:23:21.128,-0.630,-0.255
15:23:21.132,-0.670,-0.270
15:23:21.136,-0.680,-0.260
15:23:21.140,-0.665,-0.260
15:23:21.144,-0.635,-0.275
15:23:21.148,-0.635,-0.270
15:23:21.152,-0.615,-0.305
15:23:21.156,-0.625,-0.275
15:23:21.160,-0.640,-0.245
15:23:21.164,-0.640,-0.250
15:23:21.168,-0.600,-0.300
15:23:21.172,-0.600,-0.340
15:23:21.176,-0.555,-0.375
15:23:21.180,-0.535,-0.370
15:23:21.184,-0.530,-0.340
15:23:21.188,-0.540,-0.365
15:23:21.192,-0.570,-0.345
15:23:21.196,-0.595,-0.335
15:23:21.200,-0.565,-0.335
15:23:21.204,-0.490,-0.305
15:23:21.208,-0.440,-0.300
15:23:21.212,-0.440,-0.275
15:23:21.216,-0.420,-0.285
15:23:21.220,-0.425,-0.260
15:23:21.224,-0.425,-0.270
15:23:21.228,-0.430,-0.235
15:23:21.232,-0.460,-0.225
15:23:21.236,-0.475,-0.200
15:23:21.240,-0.490,-0.175
15:23:21.244,-0.480,-0.115
15:23:21.248,-0.475,-0.090
15:23:21.252,-0.490,-0.095
15:23:21.256,-0.505,-0.160
15:23:21.260,-0.510,-0.165
15:23:21.264,-0.560,-0.185
15:23:21.268,-0.580,-0.130
15:23:21.272,-0.575,-0.115
15:23:21.276,-0.555,-0.150
15:23:21.280,-0.570,-0.210
15:23:21.284,-0.580,-0.230
15:23:21.288,-0.545,-0.255
15:23:21.292,-0.475,-0.265
15:23:21.296,-0.390,-0.300
15:23:21.300,-0.345,-0.315
15:23:21.304,-0.335,-0.350
15:23:21.308,-0.310,-0.440
15:23:21.312,-0.300,-0.545
15:23:21.316,-0.300,-0.670
15:23:21.320,-0.260,-0.755
15:23:21.324,-0.250,-0.860
15:23:21.328,-0.215,-1.005
15:23:21.332,-0.090,-1.195
15:23:21.336,0.185,-1.455
15:23:21.340,0.475,-1.725
15:23:21.344,0.735,-1.975
15:23:21.348,0.845,-2.170
15:23:21.352,0.660,-2.210
15:23:21.356,0.185,-2.090
15:23:21.360,-0.320,-1.710
15:23:21.364,-0.640,-1.280
15:23:21.368,-0.780,-0.975
15:23:21.372,-0.875,-0.800
15:23:21.376,-0.905,-0.680
15:23:21.380,-0.875,-0.515
15:23:21.384,-0.825,-0.395
15:23:21.388,-0.870,-0.310
15:23:21.392,-0.900,-0.305
15:23:21.396,-0.905,-0.315
15:23:21.400,-0.900,-0.275
15:23:21.404,-0.895,-0.210
15:23:21.408,-0.845,-0.110
15:23:21.412,-0.845,-0.135
15:23:21.416,-0.820,-0.190
15:23:21.420,-0.825,-0.245
15:23:21.424,-0.825,-0.270
15:23:21.428,-0.825,-0.240
15:23:21.432,-0.790,-0.215
15:23:21.436,-0.765,-0.170
15:23:21.440,-0.735,-0.115
15:23:21.444,-0.720,-0.080
15:23:21.448,-0.715,-0.135
15:23:21.452,-0.685,-0.175
15:23:21.456,-0.650,-0.165
15:23:21.460,-0.650,-0.120
15:23:21.464,-0.620,-0.060
15:23:21.468,-0.615,-0.035
15:23:21.472,-0.615,-0.035
15:23:21.476,-0.625,-0.005
15:23:21.480,-0.625,0.020
15:23:21.484,-0.630,0.060
15:23:21.488,-0.645,0.100
15:23:21.492,-0.690,0.110
15:23:21.496,-0.670,0.130
15:23:21.500,-0.660,0.105
15:23:21.504,-0.635,0.125
15:23:21.508,-0.630,0.105
15:23:21.512,-0.640,0.100
15:23:21.516,-0.660,0.070
15:23:21.520,-0.670,0.015
15:23:21.524,-0.695,-0.010
15:23:21.528,-0.690,-0.055
15:23:21.532,-0.675,-0.055
15:23:21.536,-0.690,-0.010
15:23:21.540,-0.700,-0.020
15:23:21.544,-0.715,-0.080
15:23:21.548,-0.685,-0.125
15:23:21.552,-0.715,-0.165
15:23:21.556,-0.730,-0.180
15:23:21.560,-0.725,-0.180
15:23:21.564,-0.690,-0.175
15:23:21.568,-0.680,-0.130
15:23:21.572,-0.690,-0.105
15:23:21.576,-0.685,-0.100
15:23:21.580,-0.680,-0.140
15:23:21.584,-0.695,-0.225
15:23:21.588,-0.715,-0.250
15:23:21.592,-0.695,-0.245
15:23:21.596,-0.680,-0.220
15:23:21.600,-0.660,-0.215
15:23:21.604,-0.650,-0.225
15:23:21.608,-0.660,-0.240
15:23:21.612,-0.665,-0.260
15:23:21.616,-0.675,-0.295
15:23:21.620,-0.660,-0.315
15:23:21.624,-0.680,-0.330
15:23:21.628,-0.660,-0.340
15:23:21.632,-0.675,-0.315
15:23:21.636,-0.660,-0.285
15:23:21.640,-0.660,-0.260
15:23:21.644,-0.640,-0.225
15:23:21.648,-0.640,-0.295
15:23:21.652,-0.650,-0.375
15:23:21.656,-0.650,-0.390
15:23:21.660,-0.630,-0.355
15:23:21.664,-0.635,-0.300
15:23:21.668,-0.635,-0.280
15:23:21.672,-0.635,-0.250
15:23:21.676,-0.630,-0.260
15:23:21.680,-0.590,-0.235
15:23:21.684,-0.555,-0.200
15:23:21.688,-0.535,-0.175
15:23:21.692,-0.500,-0.175
15:23:21.696,-0.450,-0.235
15:23:21.700,-0.385,-0.330
15:23:21.704,-0.300,-0.355
15:23:21.708,-0.260,-0.345
15:23:21.712,-0.220,-0.325
15:23:21.716,-0.205,-0.340
15:23:21.720,-0.195,-0.400
15:23:21.724,-0.155,-0.480
15:23:21.728,-0.160,-0.635
15:23:21.732,-0.145,-0.800
15:23:21.736,-0.100,-1.045
15:23:21.740,0.030,-1.310
15:23:21.744,0.325,-1.520
15:23:21.748,0.610,-1.790
15:23:21.752,0.865,-2.070
15:23:21.756,0.915,-2.220
15:23:21.760,0.640,-2.190
15:23:21.764,0.130,-1.900
15:23:21.768,-0.350,-1.465
15:23:21.772,-0.605,-1.080
15:23:21.776,-0.705,-0.835
15:23:21.780,-0.735,-0.670
15:23:21.784,-0.730,-0.485
15:23:21.788,-0.775,-0.340
15:23:21.792,-0.775,-0.230
15:23:21.796,-0.790,-0.165
15:23:21.800,-0.810,-0.145
15:23:21.804,-0.815,-0.095
15:23:21.808,-0.815,-0.030
15:23:21.812,-0.810,0.010
15:23:21.816,-0.800,-0.015
15:23:21.820,-0.805,-0.070
15:23:21.824,-0.780,-0.115
15:23:21.828,-0.830,-0.110
15:23:21.832,-0.825,-0.080
15:23:21.836,-0.800,-0.020
15:23:21.840,-0.795,-0.030
15:23:21.844,-0.810,-0.040
15:23:21.848,-0.835,-0.070
15:23:21.852,-0.850,-0.070
15:23:21.856,-0.840,-0.045
15:23:21.860,-0.835,-0.005
15:23:21.864,-0.830,0.035
15:23:21.868,-0.835,0.040
15:23:21.872,-0.835,0.045
15:23:21.876,-0.820,0.020
15:23:21.880,-0.825,0.000
15:23:21.884,-0.845,-0.005
15:23:21.888,-0.830,-0.010
15:23:21.892,-0.810,-0.020
15:23:21.896,-0.770,-0.010
15:23:21.900,-0.740,0.000
15:23:21.904,-0.735,0.000
15:23:21.908,-0.705,-0.040
15:23:21.912,-0.695,0.000
15:23:21.916,-0.665,0.040
15:23:21.920,-0.640,0.080
15:23:21.924,-0.620,0.065
15:23:21.928,-0.600,0.020
15:23:21.932,-0.605,0.030
15:23:21.936,-0.565,0.045
15:23:21.940,-0.570,0.050
15:23:21.944,-0.575,0.070
15:23:21.948,-0.565,0.065
15:23:21.952,-0.540,0.020
15:23:21.956,-0.520,-0.045
15:23:21.960,-0.545,-0.070
15:23:21.964,-0.530,-0.055
15:23:21.968,-0.500,-0.035
15:23:21.972,-0.510,0.000
15:23:21.976,-0.460,-0.005
15:23:21.980,-0.460,0.000
15:23:21.984,-0.470,0.035
15:23:21.988,-0.465,-0.040
15:23:21.992,-0.490,-0.090
15:23:21.996,-0.500,-0.120
15:23:22.000,-0.475,-0.140
15:23:22.004,-0.470,-0.145
15:23:22.008,-0.470,-0.110
15:23:22.012,-0.470,-0.095
15:23:22.016,-0.465,-0.100
15:23:22.020,-0.495,-0.090
15:23:22.024,-0.465,-0.080
15:23:22.028,-0.445,-0.070
15:23:22.032,-0.445,-0.045
15:23:22.036,-0.455,-0.080
15:23:22.040,-0.480,-0.065
15:23:22.044,-0.480,-0.095
15:23:22.048,-0.470,-0.115
15:23:22.052,-0.470,-0.125
15:23:22.056,-0.465,-0.135
15:23:22.060,-0.455,-0.125
15:23:22.064,-0.465,-0.115
15:23:22.068,-0.460,-0.105
15:23:22.072,-0.485,-0.070
15:23:22.076,-0.495,-0.085
15:23:22.080,-0.480,-0.125
15:23:22.084,-0.470,-0.130
15:23:22.088,-0.485,-0.105
15:23:22.092,-0.435,-0.060
15:23:22.096,-0.430,-0.060
15:23:22.100,-0.380,-0.060
15:23:22.104,-0.330,-0.115
15:23:22.108,-0.280,-0.130
15:23:22.112,-0.200,-0.140
15:23:22.116,-0.155,-0.185
15:23:22.120,-0.130,-0.220
15:23:22.124,-0.080,-0.280
15:23:22.128,-0.050,-0.345
15:23:22.132,-0.005,-0.445
15:23:22.136,0.045,-0.590
15:23:22.140,0.065,-0.780
15:23:22.144,0.230,-1.005
15:23:22.148,0.455,-1.270
15:23:22.152,0.800,-1.560
15:23:22.156,1.065,-1.825
15:23:22.160,1.205,-2.065
15:23:22.164,1.060,-2.080
15:23:22.168,0.675,-1.880
15:23:22.172,0.235,-1.450
15:23:22.176,-0.120,-1.015
15:23:22.180,-0.300,-0.720
15:23:22.184,-0.365,-0.580
15:23:22.188,-0.390,-0.430
15:23:22.192,-0.425,-0.330
15:23:22.196,-0.430,-0.230
15:23:22.200,-0.465,-0.125
15:23:22.204,-0.470,-0.050
15:23:22.208,-0.470,0.070
15:23:22.212,-0.470,0.110
15:23:22.216,-0.485,0.090
15:23:22.220,-0.495,0.050
15:23:22.224,-0.505,0.020
15:23:22.228,-0.560,0.030
15:23:22.232,-0.560,0.065
15:23:22.236,-0.550,0.140
15:23:22.240,-0.575,0.190
15:23:22.244,-0.600,0.205
15:23:22.248,-0.575,0.165
15:23:22.252,-0.590,0.130
15:23:22.256,-0.600,0.100
15:23:22.260,-0.610,0.100
15:23:22.264,-0.595,0.120
15:23:22.268,-0.580,0.150
15:23:22.272,-0.570,0.175
15:23:22.276,-0.585,0.215
15:23:22.280,-0.570,0.180
15:23:22.284,-0.565,0.165
15:23:22.288,-0.555,0.180
15:23:22.292,-0.550,0.200
15:23:22.296,-0.560,0.205
15:23:22.300,-0.545,0.210
15:23:22.304,-0.535,0.185
15:23:22.308,-0.530,0.195
15:23:22.312,-0.520,0.225
15:23:22.316,-0.505,0.255
15:23:22.320,-0.490,0.290
15:23:22.324,-0.505,0.340
15:23:22.328,-0.490,0.335
15:23:22.332,-0.460,0.285
15:23:22.336,-0.440,0.230
15:23:22.340,-0.420,0.150
15:23:22.344,-0.400,0.125
15:23:22.348,-0.405,0.150
15:23:22.352,-0.375,0.170
15:23:22.356,-0.390,0.145
15:23:22.360,-0.425,0.130
15:23:22.364,-0.405,0.130
15:23:22.368,-0.420,0.125
15:23:22.372,-0.410,0.115
15:23:22.376,-0.400,0.095
15:23:22.380,-0.375,0.040
15:23:22.384,-0.350,0.010
15:23:22.388,-0.330,0.005
15:23:22.392,-0.330,0.000
15:23:22.396,-0.295,-0.030
15:23:22.400,-0.295,-0.080
15:23:22.404,-0.310,-0.060
15:23:22.408,-0.325,-0.050
15:23:22.412,-0.320,-0.060
15:23:22.416,-0.280,-0.005
15:23:22.420,-0.260,0.070
15:23:22.424,-0.275,0.100
15:23:22.428,-0.265,0.050
15:23:22.432,-0.300,-0.040
15:23:22.436,-0.290,-0.080
15:23:22.440,-0.305,-0.060
15:23:22.444,-0.335,-0.015
15:23:22.448,-0.320,0.020
15:23:22.452,-0.330,0.025
15:23:22.456,-0.320,0.050
15:23:22.460,-0.325,0.040
15:23:22.464,-0.330,0.030
15:23:22.468,-0.355,0.000
15:23:22.472,-0.365,-0.040
15:23:22.476,-0.370,-0.050
15:23:22.480,-0.370,-0.025
15:23:22.484,-0.375,0.040
15:23:22.488,-0.385,0.060
15:23:22.492,-0.440,0.015
15:23:22.496,-0.430,0.020
15:23:22.500,-0.420,0.005
15:23:22.504,-0.400,0.055
15:23:22.508,-0.410,0.115
15:23:22.512,-0.420,0.150
15:23:22.516,-0.425,0.110
15:23:22.520,-0.410,0.010
15:23:22.524,-0.380,-0.030
15:23:22.528,-0.370,-0.045
15:23:22.532,-0.370,-0.025
15:23:22.536,-0.345,0.035
15:23:22.540,-0.310,0.080
15:23:22.544,-0.280,0.060
15:23:22.548,-0.245,0.070
15:23:22.552,-0.220,0.030
15:23:22.556,-0.150,0.045
15:23:22.560,-0.065,0.010
15:23:22.564,-0.010,-0.035
15:23:22.568,0.040,-0.080
15:23:22.572,0.105,-0.195
15:23:22.576,0.115,-0.280
15:23:22.580,0.115,-0.415
15:23:22.584,0.110,-0.600
15:23:22.588,0.170,-0.820
15:23:22.592,0.310,-1.030
15:23:22.596,0.595,-1.330
15:23:22.600,0.930,-1.705
15:23:22.604,1.180,-2.045
15:23:22.608,1.200,-2.150
15:23:22.612,0.950,-2.030
15:23:22.616,0.460,-1.750
15:23:22.620,-0.020,-1.320
15:23:22.624,-0.310,-0.910
15:23:22.628,-0.405,-0.650
15:23:22.632,-0.440,-0.450
15:23:22.636,-0.445,-0.275
15:23:22.640,-0.435,-0.140
15:23:22.644,-0.420,-0.040
15:23:22.648,-0.435,0.020
15:23:22.652,-0.450,0.100
15:23:22.656,-0.460,0.140
15:23:22.660,-0.475,0.175
15:23:22.664,-0.490,0.150
15:23:22.668,-0.505,0.120
15:23:22.672,-0.505,0.145
15:23:22.676,-0.525,0.175
15:23:22.680,-0.520,0.215
15:23:22.684,-0.545,0.260
15:23:22.688,-0.520,0.280
15:23:22.692,-0.510,0.300
15:23:22.696,-0.515,0.290
15:23:22.700,-0.530,0.265
15:23:22.704,-0.520,0.220
15:23:22.708,-0.525,0.185
15:23:22.712,-0.540,0.185
15:23:22.716,-0.540,0.230
15:23:22.720,-0.545,0.280
15:23:22.724,-0.535,0.315
15:23:22.728,-0.540,0.325
15:23:22.732,-0.545,0.345
15:23:22.736,-0.540,0.360
15:23:22.740,-0.555,0.330
15:23:22.744,-0.580,0.330
15:23:22.748,-0.605,0.335
15:23:22.752,-0.575,0.375
15:23:22.756,-0.540,0.420
15:23:22.760,-0.530,0.435
15:23:22.764,-0.510,0.425
15:23:22.768,-0.475,0.385
15:23:22.772,-0.470,0.370
15:23:22.776,-0.465,0.355
15:23:22.780,-0.470,0.340
15:23:22.784,-0.440,0.315
15:23:22.788,-0.445,0.310
15:23:22.792,-0.440,0.295
15:23:22.796,-0.440,0.290
15:23:22.800,-0.435,0.235
15:23:22.804,-0.415,0.165
15:23:22.808,-0.395,0.095
15:23:22.812,-0.410,0.080
15:23:22.816,-0.420,0.050
15:23:22.820,-0.400,0.060
15:23:22.824,-0.400,0.085
15:23:22.828,-0.400,0.085
15:23:22.832,-0.395,0.080
15:23:22.836,-0.395,0.080
15:23:22.840,-0.400,0.100
15:23:22.844,-0.380,0.055
15:23:22.848,-0.385,0.080
15:23:22.852,-0.370,0.080
15:23:22.856,-0.350,0.070
15:23:22.860,-0.320,0.075
15:23:22.864,-0.320,0.100
15:23:22.868,-0.315,0.105
15:23:22.872,-0.310,0.085
15:23:22.876,-0.275,0.050
15:23:22.880,-0.255,0.045
15:23:22.884,-0.220,0.080
15:23:22.888,-0.230,0.135
15:23:22.892,-0.210,0.115
15:23:22.896,-0.215,0.090
15:23:22.900,-0.250,0.095
15:23:22.904,-0.260,0.115
15:23:22.908,-0.275,0.175
15:23:22.912,-0.285,0.205
15:23:22.916,-0.315,0.200
15:23:22.920,-0.315,0.215
15:23:22.924,-0.305,0.240
15:23:22.928,-0.315,0.230
15:23:22.932,-0.360,0.180
15:23:22.936,-0.390,0.090
15:23:22.940,-0.400,0.095
15:23:22.944,-0.435,0.130
15:23:22.948,-0.420,0.150
15:23:22.952,-0.380,0.190
15:23:22.956,-0.300,0.225
15:23:22.960,-0.235,0.230
15:23:22.964,-0.150,0.175
15:23:22.968,-0.110,0.080
15:23:22.972,-0.085,0.030
15:23:22.976,-0.075,0.010
15:23:22.980,-0.075,-0.055
15:23:22.984,-0.055,-0.170
15:23:22.988,-0.060,-0.375
15:23:22.992,-0.030,-0.570
15:23:22.996,0.070,-0.805
15:23:23.000,0.290,-1.085
15:23:23.004,0.575,-1.370
15:23:23.008,0.830,-1.660
15:23:23.012,0.955,-1.845
15:23:23.016,0.770,-1.850
15:23:23.020,0.370,-1.705
15:23:23.024,-0.095,-1.425
15:23:23.028,-0.400,-1.050
15:23:23.032,-0.540,-0.755
15:23:23.036,-0.640,-0.570
15:23:23.040,-0.650,-0.375
15:23:23.044,-0.680,-0.185
15:23:23.048,-0.665,-0.020
15:23:23.052,-0.670,0.115
15:23:23.056,-0.685,0.150
15:23:23.060,-0.655,0.130
15:23:23.064,-0.645,0.110
15:23:23.068,-0.615,0.115
15:23:23.072,-0.585,0.135
15:23:23.076,-0.600,0.150
15:23:23.080,-0.585,0.175
15:23:23.084,-0.570,0.200
15:23:23.088,-0.575,0.235
15:23:23.092,-0.565,0.265
15:23:23.096,-0.570,0.285
15:23:23.100,-0.530,0.270
15:23:23.104,-0.525,0.255
15:23:23.108,-0.545,0.265
15:23:23.112,-0.545,0.255
15:23:23.116,-0.530,0.255
15:23:23.120,-0.550,0.305
15:23:23.124,-0.540,0.320
15:23:23.128,-0.535,0.310
15:23:23.132,-0.490,0.330
15:23:23.136,-0.505,0.360
15:23:23.140,-0.505,0.395
15:23:23.144,-0.540,0.390
15:23:23.148,-0.540,0.390
15:23:23.152,-0.515,0.370
15:23:23.156,-0.550,0.410
15:23:23.160,-0.550,0.435
15:23:23.164,-0.560,0.450
15:23:23.168,-0.560,0.420
15:23:23.172,-0.550,0.420
15:23:23.176,-0.545,0.380
15:23:23.180,-0.540,0.390
15:23:23.184,-0.560,0.400
15:23:23.188,-0.550,0.420
15:23:23.192,-0.560,0.400
15:23:23.196,-0.550,0.390
15:23:23.200,-0.570,0.380
15:23:23.204,-0.580,0.330
15:23:23.208,-0.595,0.270
15:23:23.212,-0.610,0.240
15:23:23.216,-0.610,0.260
15:23:23.220,-0.605,0.300
15:23:23.224,-0.610,0.280
15:23:23.228,-0.615,0.200
15:23:23.232,-0.605,0.185
15:23:23.236,-0.610,0.185
15:23:23.240,-0.610,0.180
15:23:23.244,-0.575,0.165
15:23:23.248,-0.550,0.135
15:23:23.252,-0.530,0.135
15:23:23.256,-0.550,0.110
15:23:23.260,-0.545,0.080
15:23:23.264,-0.540,0.040
15:23:23.268,-0.525,0.075
15:23:23.272,-0.520,0.075
15:23:23.276,-0.505,0.110
15:23:23.280,-0.490,0.130
15:23:23.284,-0.460,0.120
15:23:23.288,-0.455,0.115
15:23:23.292,-0.470,0.090
15:23:23.296,-0.470,0.075
15:23:23.300,-0.490,0.050
15:23:23.304,-0.510,0.030
15:23:23.308,-0.510,0.025
15:23:23.312,-0.470,0.045
15:23:23.316,-0.450,0.065
15:23:23.320,-0.450,0.080
15:23:23.324,-0.450,0.090
15:23:23.328,-0.440,0.080
15:23:23.332,-0.450,0.075
15:23:23.336,-0.435,0.065
15:23:23.340,-0.420,0.070
15:23:23.344,-0.400,0.110
15:23:23.348,-0.410,0.110
15:23:23.352,-0.420,0.110
15:23:23.356,-0.405,0.125
15:23:23.360,-0.390,0.125
15:23:23.364,-0.370,0.120
15:23:23.368,-0.375,0.075
15:23:23.372,-0.385,0.035
15:23:23.376,-0.390,0.055
15:23:23.380,-0.390,0.125
15:23:23.384,-0.380,0.175
15:23:23.388,-0.395,0.180
15:23:23.392,-0.420,0.155
15:23:23.396,-0.415,0.080
15:23:23.400,-0.440,0.045
15:23:23.404,-0.425,0.010
15:23:23.408,-0.395,-0.020
15:23:23.412,-0.405,-0.035
15:23:23.416,-0.455,-0.020
15:23:23.420,-0.490,0.000
15:23:23.424,-0.500,0.005
15:23:23.428,-0.495,-0.010
15:23:23.432,-0.500,-0.035
15:23:23.436,-0.470,-0.025
15:23:23.440,-0.475,0.010
15:23:23.444,-0.485,0.000
15:23:23.448,-0.440,0.000
15:23:23.452,-0.415,-0.020
15:23:23.456,-0.365,-0.065
15:23:23.460,-0.265,-0.055
15:23:23.464,-0.185,-0.055
15:23:23.468,-0.125,-0.060
15:23:23.472,-0.050,-0.120
15:23:23.476,0.030,-0.185
15:23:23.480,0.100,-0.255
15:23:23.484,0.155,-0.345
15:23:23.488,0.200,-0.515
15:23:23.492,0.190,-0.680
15:23:23.496,0.240,-0.875
15:23:23.500,0.400,-1.100
15:23:23.504,0.690,-1.365
15:23:23.508,0.955,-1.640
15:23:23.512,1.035,-1.845
15:23:23.516,0.800,-1.880
15:23:23.520,0.310,-1.665
15:23:23.524,-0.185,-1.205
15:23:23.528,-0.475,-0.830
15:23:23.532,-0.595,-0.635
15:23:23.536,-0.630,-0.520
15:23:23.540,-0.640,-0.385
15:23:23.544,-0.610,-0.220
15:23:23.548,-0.620,-0.120
15:23:23.552,-0.640,-0.020
15:23:23.556,-0.695,0.060
15:23:23.560,-0.715,0.060
15:23:23.564,-0.710,0.115
15:23:23.568,-0.710,0.150
15:23:23.572,-0.685,0.185
15:23:23.576,-0.645,0.230
15:23:23.580,-0.655,0.280
15:23:23.584,-0.655,0.260
15:23:23.588,-0.630,0.225
15:23:23.592,-0.610,0.165
15:23:23.596,-0.580,0.145
15:23:23.600,-0.585,0.145
15:23:23.604,-0.565,0.155
15:23:23.608,-0.570,0.220
15:23:23.612,-0.540,0.235
15:23:23.616,-0.560,0.220
15:23:23.620,-0.545,0.255
15:23:23.624,-0.540,0.260
15:23:23.628,-0.555,0.230
15:23:23.632,-0.565,0.200
15:23:23.636,-0.575,0.175
15:23:23.640,-0.585,0.150
15:23:23.644,-0.565,0.095
15:23:23.648,-0.570,0.080
15:23:23.652,-0.600,0.080
15:23:23.656,-0.595,0.110
15:23:23.660,-0.600,0.155
15:23:23.664,-0.615,0.200
15:23:23.668,-0.595,0.245
15:23:23.672,-0.605,0.255
15:23:23.676,-0.590,0.235
15:23:23.680,-0.580,0.235
15:23:23.684,-0.580,0.220
15:23:23.688,-0.550,0.175
15:23:23.692,-0.575,0.150
15:23:23.696,-0.590,0.130
15:23:23.700,-0.610,0.140
15:23:23.704,-0.590,0.155
15:23:23.708,-0.605,0.145
15:23:23.712,-0.605,0.165
15:23:23.716,-0.585,0.175
15:23:23.720,-0.560,0.170
15:23:23.724,-0.535,0.120
15:23:23.728,-0.525,0.060
15:23:23.732,-0.500,0.050
15:23:23.736,-0.490,0.050
15:23:23.740,-0.475,0.080
15:23:23.744,-0.450,0.140
15:23:23.748,-0.435,0.190
15:23:23.752,-0.400,0.140
15:23:23.756,-0.395,0.015
15:23:23.760,-0.390,-0.055
15:23:23.764,-0.345,-0.070
15:23:23.768,-0.305,-0.055
15:23:23.772,-0.295,-0.025
15:23:23.776,-0.305,-0.015
15:23:23.780,-0.335,0.010
15:23:23.784,-0.340,0.050
15:23:23.788,-0.330,0.045
15:23:23.792,-0.335,0.025
15:23:23.796,-0.315,0.000
15:23:23.800,-0.305,-0.005
15:23:23.804,-0.270,0.015
15:23:23.808,-0.270,0.010
15:23:23.812,-0.255,0.045
15:23:23.816,-0.250,0.075
15:23:23.820,-0.270,0.100
15:23:23.824,-0.245,0.060
15:23:23.828,-0.245,0.030
15:23:23.832,-0.215,0.025
15:23:23.836,-0.205,0.040
15:23:23.840,-0.210,0.040
15:23:23.844,-0.220,0.025
15:23:23.848,-0.240,0.015
15:23:23.852,-0.240,0.035
15:23:23.856,-0.265,0.010
15:23:23.860,-0.285,-0.025
15:23:23.864,-0.295,-0.085
15:23:23.868,-0.315,-0.085
15:23:23.872,-0.290,-0.065
15:23:23.876,-0.325,-0.055
15:23:23.880,-0.345,-0.025
15:23:23.884,-0.350,-0.065
15:23:23.888,-0.325,-0.070
15:23:23.892,-0.350,-0.070
15:23:23.896,-0.380,-0.020
15:23:23.900,-0.345,-0.020
15:23:23.904,-0.370,-0.030
15:23:23.908,-0.375,-0.100
15:23:23.912,-0.370,-0.110
15:23:23.916,-0.375,-0.130
15:23:23.920,-0.370,-0.120
15:23:23.924,-0.365,-0.080
15:23:23.928,-0.365,-0.040
15:23:23.932,-0.380,-0.040
15:23:23.936,-0.380,-0.050
15:23:23.940,-0.370,-0.100
15:23:23.944,-0.360,-0.090
15:23:23.948,-0.355,-0.090
15:23:23.952,-0.365,-0.090
15:23:23.956,-0.360,-0.100
15:23:23.960,-0.355,-0.090
15:23:23.964,-0.330,-0.100
15:23:23.968,-0.310,-0.080
15:23:23.972,-0.310,-0.045
15:23:23.976,-0.305,-0.005
15:23:23.980,-0.295,0.015
15:23:23.984,-0.300,0.000
15:23:23.988,-0.260,0.000
15:23:23.992,-0.265,-0.015
15:23:23.996,-0.255,-0.015
15:23:24.000,-0.255,-0.025
15:23:24.004,-0.250,-0.040
15:23:24.008,-0.270,-0.030
15:23:24.012,-0.270,0.000
15:23:24.016,-0.260,0.040
15:23:24.020,-0.275,0.040
15:23:24.024,-0.250,0.035
15:23:24.028,-0.260,-0.005
15:23:24.032,-0.255,-0.040
15:23:24.036,-0.270,-0.060
15:23:24.040,-0.240,-0.050
15:23:24.044,-0.240,-0.035
15:23:24.048,-0.230,-0.040
15:23:24.052,-0.205,-0.030
15:23:24.056,-0.195,0.015
15:23:24.060,-0.170,0.075
15:23:24.064,-0.155,0.075
15:23:24.068,-0.135,0.065
15:23:24.072,-0.110,0.075
15:23:24.076,-0.040,0.060
15:23:24.080,0.055,0.020
15:23:24.084,0.130,-0.050
15:23:24.088,0.165,-0.120
15:23:24.092,0.210,-0.230
15:23:24.096,0.290,-0.330
15:23:24.100,0.295,-0.445
15:23:24.104,0.315,-0.520
15:23:24.108,0.350,-0.655
15:23:24.112,0.380,-0.830
15:23:24.116,0.460,-1.095
15:23:24.120,0.675,-1.315
15:23:24.124,0.955,-1.590
15:23:24.128,1.230,-1.845
15:23:24.132,1.305,-1.970
15:23:24.136,1.020,-1.965
15:23:24.140,0.490,-1.765
15:23:24.144,-0.020,-1.380
15:23:24.148,-0.330,-0.975
15:23:24.152,-0.430,-0.720
15:23:24.156,-0.485,-0.520
15:23:24.160,-0.510,-0.360
15:23:24.164,-0.460,-0.210
15:23:24.168,-0.450,-0.080
15:23:24.172,-0.455,0.010
15:23:24.176,-0.480,0.105
15:23:24.180,-0.475,0.190
15:23:24.184,-0.510,0.210
15:23:24.188,-0.540,0.190
15:23:24.192,-0.535,0.170
15:23:24.196,-0.555,0.145
15:23:24.200,-0.520,0.165
15:23:24.204,-0.510,0.200
15:23:24.208,-0.520,0.220
15:23:24.212,-0.515,0.190
15:23:24.216,-0.505,0.145
15:23:24.220,-0.485,0.100
15:23:24.224,-0.480,0.100
15:23:24.228,-0.480,0.135
15:23:24.232,-0.485,0.160
15:23:24.236,-0.480,0.145
15:23:24.240,-0.465,0.145
15:23:24.244,-0.445,0.170
15:23:24.248,-0.450,0.200
15:23:24.252,-0.415,0.235
15:23:24.256,-0.405,0.265
15:23:24.260,-0.425,0.240
15:23:24.264,-0.405,0.190
15:23:24.268,-0.400,0.205
15:23:24.272,-0.390,0.240
15:23:24.276,-0.350,0.270
15:23:24.280,-0.340,0.235
15:23:24.284,-0.340,0.195
15:23:24.288,-0.335,0.185
15:23:24.292,-0.320,0.190
15:23:24.296,-0.285,0.205
15:23:24.300,-0.295,0.185
15:23:24.304,-0.315,0.160
15:23:24.308,-0.305,0.180
15:23:24.312,-0.305,0.235
15:23:24.316,-0.305,0.220
15:23:24.320,-0.290,0.250
15:23:24.324,-0.280,0.205
15:23:24.328,-0.300,0.140
15:23:24.332,-0.285,0.150
15:23:24.336,-0.265,0.170
15:23:24.340,-0.265,0.225
15:23:24.344,-0.270,0.235
15:23:24.348,-0.270,0.210
15:23:24.352,-0.260,0.205
15:23:24.356,-0.235,0.160
15:23:24.360,-0.205,0.105
15:23:24.364,-0.225,0.065
15:23:24.368,-0.200,0.065
15:23:24.372,-0.195,0.075
15:23:24.376,-0.205,0.100
15:23:24.380,-0.205,0.110
15:23:24.384,-0.235,0.095
15:23:24.388,-0.245,0.095
15:23:24.392,-0.240,0.090
15:23:24.396,-0.245,0.085
15:23:24.400,-0.240,0.045
15:23:24.404,-0.220,0.040
15:23:24.408,-0.230,-0.010
15:23:24.412,-0.210,-0.070
15:23:24.416,-0.210,-0.075
15:23:24.420,-0.225,-0.085
15:23:24.424,-0.220,-0.045
15:23:24.428,-0.200,-0.020
15:23:24.432,-0.205,0.020
15:23:24.436,-0.185,0.025
15:23:24.440,-0.225,0.020
15:23:24.444,-0.215,-0.040
15:23:24.448,-0.210,-0.115
15:23:24.452,-0.230,-0.130
15:23:24.456,-0.215,-0.100
15:23:24.460,-0.215,-0.090
15:23:24.464,-0.215,-0.030
15:23:24.468,-0.220,-0.015
15:23:24.472,-0.225,-0.025
15:23:24.476,-0.240,-0.055
15:23:24.480,-0.250,-0.055
15:23:24.484,-0.265,-0.050
15:23:24.488,-0.240,-0.035
15:23:24.492,-0.240,-0.015
15:23:24.496,-0.210,0.005
15:23:24.500,-0.240,0.000
15:23:24.504,-0.250,-0.015
15:23:24.508,-0.260,-0.070
15:23:24.512,-0.250,-0.105
15:23:24.516,-0.240,-0.120
15:23:24.520,-0.250,-0.130
15:23:24.524,-0.230,-0.115
15:23:24.528,-0.235,-0.075
15:23:24.532,-0.255,-0.020
15:23:24.536,-0.235,-0.025
15:23:24.540,-0.210,-0.020
15:23:24.544,-0.195,-0.025
15:23:24.548,-0.230,-0.045
15:23:24.552,-0.240,-0.030
15:23:24.556,-0.215,-0.040
15:23:24.560,-0.210,-0.090
15:23:24.564,-0.230,-0.105
15:23:24.568,-0.250,-0.085
15:23:24.572,-0.220,-0.050
15:23:24.576,-0.220,-0.030
15:23:24.580,-0.250,0.020
15:23:24.584,-0.255,0.055
15:23:24.588,-0.260,0.005
15:23:24.592,-0.235,-0.035
15:23:24.596,-0.275,-0.050
15:23:24.600,-0.285,-0.030
15:23:24.604,-0.275,-0.060
15:23:24.608,-0.275,-0.040
15:23:24.612,-0.275,-0.070
15:23:24.616,-0.295,-0.055
15:23:24.620,-0.305,-0.055
15:23:24.624,-0.285,-0.070
15:23:24.628,-0.295,-0.075
15:23:24.632,-0.325,-0.100
15:23:24.636,-0.345,-0.115
15:23:24.640,-0.370,-0.150
15:23:24.644,-0.330,-0.145
15:23:24.648,-0.335,-0.105
15:23:24.652,-0.320,-0.105
15:23:24.656,-0.325,-0.100
15:23:24.660,-0.315,-0.110
15:23:24.664,-0.320,-0.145
15:23:24.668,-0.325,-0.145
15:23:24.672,-0.315,-0.150
15:23:24.676,-0.295,-0.175
15:23:24.680,-0.300,-0.155
15:23:24.684,-0.310,-0.135
15:23:24.688,-0.265,-0.125
15:23:24.692,-0.265,-0.125
15:23:24.696,-0.215,-0.120
15:23:24.700,-0.160,-0.140
15:23:24.704,-0.075,-0.150
15:23:24.708,0.005,-0.190
15:23:24.712,0.085,-0.245
15:23:24.716,0.150,-0.285
15:23:24.720,0.205,-0.380
15:23:24.724,0.245,-0.490
15:23:24.728,0.285,-0.600
15:23:24.732,0.280,-0.700
15:23:24.736,0.310,-0.825
15:23:24.740,0.370,-0.975
15:23:24.744,0.495,-1.180
15:23:24.748,0.775,-1.440
15:23:24.752,1.115,-1.690
15:23:24.756,1.340,-1.925
15:23:24.760,1.330,-2.025
15:23:24.764,1.005,-1.980
15:23:24.768,0.445,-1.695
15:23:24.772,-0.060,-1.255
15:23:24.776,-0.335,-0.915
15:23:24.780,-0.445,-0.635
15:23:24.784,-0.515,-0.460
15:23:24.788,-0.505,-0.290
15:23:24.792,-0.470,-0.145
15:23:24.796,-0.495,-0.030
15:23:24.800,-0.505,0.090
15:23:24.804,-0.520,0.175
15:23:24.808,-0.515,0.195
15:23:24.812,-0.530,0.195
15:23:24.816,-0.530,0.170
15:23:24.820,-0.535,0.115
15:23:24.824,-0.545,0.090
15:23:24.828,-0.540,0.090
15:23:24.832,-0.555,0.115
15:23:24.836,-0.545,0.100
15:23:24.840,-0.520,0.085
15:23:24.844,-0.560,0.090
15:23:24.848,-0.540,0.110
15:23:24.852,-0.570,0.080
15:23:24.856,-0.565,0.060
15:23:24.860,-0.540,0.085
15:23:24.864,-0.520,0.075
15:23:24.868,-0.550,0.075
15:23:24.872,-0.530,0.075
15:23:24.876,-0.495,0.090
15:23:24.880,-0.470,0.110
15:23:24.884,-0.455,0.130
15:23:24.888,-0.450,0.150
15:23:24.892,-0.485,0.150
15:23:24.896,-0.455,0.135
15:23:24.900,-0.430,0.110
15:23:24.904,-0.440,0.145
15:23:24.908,-0.410,0.085
15:23:24.912,-0.410,0.050
15:23:24.916,-0.415,0.090
15:23:24.920,-0.410,0.115
15:23:24.924,-0.385,0.100
15:23:24.928,-0.385,0.090
15:23:24.932,-0.360,0.055
15:23:24.936,-0.385,0.055
15:23:24.940,-0.400,0.045
15:23:24.944,-0.400,0.040
15:23:24.948,-0.405,0.050
15:23:24.952,-0.410,0.070
15:23:24.956,-0.390,0.085
15:23:24.960,-0.365,0.115
15:23:24.964,-0.365,0.130
15:23:24.968,-0.370,0.110
15:23:24.972,-0.415,0.080
15:23:24.976,-0.410,0.025
15:23:24.980,-0.400,0.055
15:23:24.984,-0.400,0.090
15:23:24.988,-0.360,0.065
15:23:24.992,-0.375,0.020
15:23:24.996,-0.370,-0.010
15:23:25.000,-0.345,0.005
15:23:25.004,-0.345,0.050
15:23:25.008,-0.340,0.065
15:23:25.012,-0.345,0.035
15:23:25.016,-0.350,-0.060
15:23:25.020,-0.365,-0.095
15:23:25.024,-0.340,-0.075
15:23:25.028,-0.340,-0.060
15:23:25.032,-0.350,-0.010
15:23:25.036,-0.350,0.015
15:23:25.040,-0.385,0.000
15:23:25.044,-0.370,-0.020
15:23:25.048,-0.385,-0.015
15:23:25.052,-0.380,-0.060
15:23:25.056,-0.390,-0.065
15:23:25.060,-0.375,-0.035
15:23:25.064,-0.380,-0.025
15:23:25.068,-0.385,-0.070
15:23:25.072,-0.375,-0.095
15:23:25.076,-0.385,-0.065
15:23:25.080,-0.375,-0.040
15:23:25.084,-0.355,-0.035
15:23:25.088,-0.350,-0.055
15:23:25.092,-0.340,-0.050
15:23:25.096,-0.335,-0.050
15:23:25.100,-0.310,-0.080
15:23:25.104,-0.300,-0.100
15:23:25.108,-0.305,-0.110
15:23:25.112,-0.305,-0.100
15:23:25.116,-0.300,-0.110
15:23:25.120,-0.345,-0.110
15:23:25.124,-0.335,-0.125
15:23:25.128,-0.355,-0.185
15:23:25.132,-0.360,-0.210
15:23:25.136,-0.390,-0.220
15:23:25.140,-0.415,-0.220
15:23:25.144,-0.415,-0.205
15:23:25.148,-0.385,-0.165
15:23:25.152,-0.375,-0.070
15:23:25.156,-0.370,-0.105
15:23:25.160,-0.345,-0.200
15:23:25.164,-0.360,-0.250
15:23:25.168,-0.355,-0.230
15:23:25.172,-0.360,-0.220
15:23:25.176,-0.390,-0.225
15:23:25.180,-0.385,-0.235
15:23:25.184,-0.365,-0.225
15:23:25.188,-0.355,-0.200
15:23:25.192,-0.350,-0.200
15:23:25.196,-0.330,-0.205
15:23:25.200,-0.270,-0.225
15:23:25.204,-0.180,-0.205
15:23:25.208,-0.080,-0.225
15:23:25.212,-0.025,-0.265
15:23:25.216,0.035,-0.330
15:23:25.220,0.100,-0.425
15:23:25.224,0.195,-0.470
15:23:25.228,0.235,-0.540
15:23:25.232,0.260,-0.600
15:23:25.236,0.265,-0.775
15:23:25.240,0.275,-1.030
15:23:25.244,0.445,-1.310
15:23:25.248,0.695,-1.570
15:23:25.252,0.960,-1.805
15:23:25.256,1.060,-2.010
15:23:25.260,0.840,-2.080
15:23:25.264,0.355,-1.945
15:23:25.268,-0.140,-1.545
15:23:25.272,-0.460,-1.105
15:23:25.276,-0.575,-0.745
15:23:25.280,-0.635,-0.530
15:23:25.284,-0.645,-0.395
15:23:25.288,-0.615,-0.265
15:23:25.292,-0.605,-0.180
15:23:25.296,-0.600,-0.100
15:23:25.300,-0.610,-0.020
15:23:25.304,-0.610,0.030
15:23:25.308,-0.625,0.035
15:23:25.312,-0.655,0.025
15:23:25.316,-0.650,0.040
15:23:25.320,-0.665,0.025
15:23:25.324,-0.660,-0.010
15:23:25.328,-0.655,-0.065
15:23:25.332,-0.680,-0.140
15:23:25.336,-0.685,-0.140
15:23:25.340,-0.695,-0.140
15:23:25.344,-0.685,-0.115
15:23:25.348,-0.705,-0.110
15:23:25.352,-0.690,-0.105
15:23:25.356,-0.700,-0.105
15:23:25.360,-0.710,-0.110
15:23:25.364,-0.725,-0.050
15:23:25.368,-0.695,-0.035
15:23:25.372,-0.705,-0.025
15:23:25.376,-0.705,-0.015
15:23:25.380,-0.730,0.000
15:23:25.384,-0.700,-0.035
15:23:25.388,-0.705,-0.085
15:23:25.392,-0.700,-0.105
15:23:25.396,-0.705,-0.125
15:23:25.400,-0.700,-0.080
15:23:25.404,-0.660,-0.065
15:23:25.408,-0.640,-0.050
15:23:25.412,-0.660,-0.055
15:23:25.416,-0.655,-0.070
15:23:25.420,-0.640,-0.080
15:23:25.424,-0.630,-0.055
15:23:25.428,-0.610,-0.045
15:23:25.432,-0.595,-0.045
15:23:25.436,-0.580,-0.100
15:23:25.440,-0.580,-0.120
15:23:25.444,-0.580,-0.085
15:23:25.448,-0.570,-0.090
15:23:25.452,-0.550,-0.035
15:23:25.456,-0.540,-0.015
15:23:25.460,-0.525,-0.030
15:23:25.464,-0.485,-0.060
15:23:25.468,-0.485,-0.150
15:23:25.472,-0.495,-0.190
15:23:25.476,-0.500,-0.195
15:23:25.480,-0.530,-0.150
15:23:25.484,-0.530,-0.070
15:23:25.488,-0.540,-0.050
15:23:25.492,-0.515,-0.085
15:23:25.496,-0.515,-0.135
15:23:25.500,-0.530,-0.145
15:23:25.504,-0.530,-0.160
15:23:25.508,-0.495,-0.160
15:23:25.512,-0.480,-0.140
15:23:25.516,-0.485,-0.150
15:23:25.520,-0.445,-0.165
15:23:25.524,-0.465,-0.185
15:23:25.528,-0.430,-0.215
15:23:25.532,-0.415,-0.255
15:23:25.536,-0.425,-0.285
15:23:25.540,-0.435,-0.355
15:23:25.544,-0.440,-0.365
15:23:25.548,-0.415,-0.380
15:23:25.552,-0.410,-0.385
15:23:25.556,-0.445,-0.405
15:23:25.560,-0.515,-0.420
15:23:25.564,-0.515,-0.405
15:23:25.568,-0.525,-0.405
15:23:25.572,-0.535,-0.390
15:23:25.576,-0.545,-0.405
15:23:25.580,-0.540,-0.425
15:23:25.584,-0.535,-0.450
15:23:25.588,-0.560,-0.460
15:23:25.592,-0.595,-0.475
15:23:25.596,-0.605,-0.465
15:23:25.600,-0.610,-0.435
15:23:25.604,-0.600,-0.395
15:23:25.608,-0.600,-0.415
15:23:25.612,-0.600,-0.425
15:23:25.616,-0.590,-0.440
15:23:25.620,-0.595,-0.385
15:23:25.624,-0.610,-0.385
15:23:25.628,-0.620,-0.430
15:23:25.632,-0.600,-0.475
15:23:25.636,-0.595,-0.495
15:23:25.640,-0.580,-0.435
15:23:25.644,-0.550,-0.425
15:23:25.648,-0.530,-0.450
15:23:25.652,-0.480,-0.475
15:23:25.656,-0.480,-0.530
15:23:25.660,-0.475,-0.520
15:23:25.664,-0.455,-0.520
15:23:25.668,-0.405,-0.525
15:23:25.672,-0.345,-0.510
15:23:25.676,-0.245,-0.500
15:23:25.680,-0.160,-0.515
15:23:25.684,-0.085,-0.515
15:23:25.688,0.010,-0.565
15:23:25.692,0.085,-0.600
15:23:25.696,0.190,-0.675
15:23:25.700,0.300,-0.780
15:23:25.704,0.340,-0.880
15:23:25.708,0.340,-1.040
15:23:25.712,0.345,-1.250
15:23:25.716,0.460,-1.510
15:23:25.720,0.725,-1.760
15:23:25.724,1.000,-1.965
15:23:25.728,1.145,-2.155
15:23:25.732,1.020,-2.250
15:23:25.736,0.550,-2.175
15:23:25.740,0.005,-1.860
15:23:25.744,-0.380,-1.485
15:23:25.748,-0.595,-1.190
15:23:25.752,-0.675,-0.990
15:23:25.756,-0.710,-0.800
15:23:25.760,-0.690,-0.610
15:23:25.764,-0.705,-0.480
15:23:25.768,-0.735,-0.395
15:23:25.772,-0.760,-0.305
15:23:25.776,-0.755,-0.275
15:23:25.780,-0.760,-0.265
15:23:25.784,-0.780,-0.325
15:23:25.788,-0.785,-0.355
15:23:25.792,-0.775,-0.350
15:23:25.796,-0.750,-0.280
15:23:25.800,-0.725,-0.235
15:23:25.804,-0.705,-0.190
15:23:25.808,-0.720,-0.220
15:23:25.812,-0.730,-0.265
15:23:25.816,-0.750,-0.275
15:23:25.820,-0.775,-0.295
15:23:25.824,-0.790,-0.315
15:23:25.828,-0.775,-0.365
15:23:25.832,-0.765,-0.425
15:23:25.836,-0.770,-0.410
15:23:25.840,-0.785,-0.370
15:23:25.844,-0.760,-0.340
15:23:25.848,-0.770,-0.315
15:23:25.852,-0.760,-0.320
15:23:25.856,-0.780,-0.365
15:23:25.860,-0.800,-0.420
15:23:25.864,-0.785,-0.425
15:23:25.868,-0.785,-0.395
15:23:25.872,-0.775,-0.385
15:23:25.876,-0.770,-0.360
15:23:25.880,-0.765,-0.315
15:23:25.884,-0.720,-0.280
15:23:25.888,-0.715,-0.265
15:23:25.892,-0.720,-0.270
15:23:25.896,-0.700,-0.350
15:23:25.900,-0.695,-0.380
15:23:25.904,-0.690,-0.375
15:23:25.908,-0.660,-0.320
15:23:25.912,-0.615,-0.265
15:23:25.916,-0.600,-0.230
15:23:25.920,-0.625,-0.245
15:23:25.924,-0.650,-0.290
15:23:25.928,-0.660,-0.280
15:23:25.932,-0.635,-0.220
15:23:25.936,-0.630,-0.240
15:23:25.940,-0.620,-0.300
15:23:25.944,-0.590,-0.380
15:23:25.948,-0.560,-0.385
15:23:25.952,-0.535,-0.350
15:23:25.956,-0.515,-0.370
15:23:25.960,-0.490,-0.390
15:23:25.964,-0.490,-0.430
15:23:25.968,-0.510,-0.450
15:23:25.972,-0.550,-0.480
15:23:25.976,-0.520,-0.470
15:23:25.980,-0.545,-0.430
15:23:25.984,-0.520,-0.340
15:23:25.988,-0.515,-0.320
15:23:25.992,-0.510,-0.360
15:23:25.996,-0.515,-0.400
15:23:26.000,-0.520,-0.420
15:23:26.004,-0.545,-0.450
15:23:26.008,-0.510,-0.495
15:23:26.012,-0.505,-0.490
15:23:26.016,-0.500,-0.475
15:23:26.020,-0.500,-0.450
15:23:26.024,-0.520,-0.455
15:23:26.028,-0.540,-0.500
15:23:26.032,-0.540,-0.480
15:23:26.036,-0.565,-0.490
15:23:26.040,-0.540,-0.480
15:23:26.044,-0.515,-0.455
15:23:26.048,-0.515,-0.430
15:23:26.052,-0.505,-0.435
15:23:26.056,-0.500,-0.430
15:23:26.060,-0.480,-0.490
15:23:26.064,-0.450,-0.540
15:23:26.068,-0.420,-0.530
15:23:26.072,-0.400,-0.525
15:23:26.076,-0.410,-0.560
15:23:26.080,-0.445,-0.580
15:23:26.084,-0.455,-0.610
15:23:26.088,-0.430,-0.615
15:23:26.092,-0.380,-0.570
15:23:26.096,-0.300,-0.570
15:23:26.100,-0.200,-0.545
15:23:26.104,-0.115,-0.600
15:23:26.108,-0.030,-0.650
15:23:26.112,0.050,-0.675
15:23:26.116,0.125,-0.700
15:23:26.120,0.165,-0.755
15:23:26.124,0.225,-0.865
15:23:26.128,0.260,-1.025
15:23:26.132,0.305,-1.255
15:23:26.136,0.420,-1.500
15:23:26.140,0.625,-1.745
15:23:26.144,0.920,-1.965
15:23:26.148,1.215,-2.220
15:23:26.152,1.320,-2.385
15:23:26.156,1.130,-2.385
15:23:26.160,0.650,-2.165
15:23:26.164,0.115,-1.760
15:23:26.168,-0.255,-1.385
15:23:26.172,-0.435,-1.150
15:23:26.176,-0.515,-0.965
15:23:26.180,-0.545,-0.775
15:23:26.184,-0.560,-0.590
15:23:26.188,-0.570,-0.425
15:23:26.192,-0.565,-0.335
15:23:26.196,-0.575,-0.240
15:23:26.200,-0.550,-0.200
15:23:26.204,-0.565,-0.250
15:23:26.208,-0.570,-0.325
15:23:26.212,-0.560,-0.335
15:23:26.216,-0.590,-0.275
15:23:26.220,-0.590,-0.250
15:23:26.224,-0.610,-0.225
15:23:26.228,-0.620,-0.170
15:23:26.232,-0.605,-0.170
15:23:26.236,-0.610,-0.190
15:23:26.240,-0.610,-0.240
15:23:26.244,-0.625,-0.230
15:23:26.248,-0.640,-0.250
15:23:26.252,-0.640,-0.220
15:23:26.256,-0.635,-0.210
15:23:26.260,-0.650,-0.210
15:23:26.264,-0.655,-0.180
15:23:26.268,-0.640,-0.150
15:23:26.272,-0.660,-0.130
15:23:26.276,-0.650,-0.105
15:23:26.280,-0.650,-0.125
15:23:26.284,-0.630,-0.130
15:23:26.288,-0.630,-0.115
15:23:26.292,-0.635,-0.130
15:23:26.296,-0.640,-0.200
15:23:26.300,-0.605,-0.295
15:23:26.304,-0.610,-0.340
15:23:26.308,-0.600,-0.340
15:23:26.312,-0.575,-0.310
15:23:26.316,-0.575,-0.295
15:23:26.320,-0.540,-0.295
15:23:26.324,-0.515,-0.315
15:23:26.328,-0.490,-0.350
15:23:26.332,-0.445,-0.385
15:23:26.336,-0.415,-0.370
15:23:26.340,-0.370,-0.345
15:23:26.344,-0.355,-0.330
15:23:26.348,-0.345,-0.350
15:23:26.352,-0.365,-0.380
15:23:26.356,-0.330,-0.385
15:23:26.360,-0.305,-0.370
15:23:26.364,-0.275,-0.315
15:23:26.368,-0.245,-0.320
15:23:26.372,-0.210,-0.340
15:23:26.376,-0.215,-0.360
15:23:26.380,-0.205,-0.385
15:23:26.384,-0.175,-0.410
15:23:26.388,-0.160,-0.390
15:23:26.392,-0.135,-0.380
15:23:26.396,-0.150,-0.380
15:23:26.400,-0.155,-0.425
15:23:26.404,-0.180,-0.445
15:23:26.408,-0.160,-0.380
15:23:26.412,-0.120,-0.335
15:23:26.416,-0.125,-0.310
15:23:26.420,-0.145,-0.330
15:23:26.424,-0.155,-0.375
15:23:26.428,-0.150,-0.395
15:23:26.432,-0.140,-0.380
15:23:26.436,-0.140,-0.395
15:23:26.440,-0.175,-0.385
15:23:26.444,-0.185,-0.355
15:23:26.448,-0.175,-0.340
15:23:26.452,-0.205,-0.305
15:23:26.456,-0.220,-0.320
15:23:26.460,-0.250,-0.300
15:23:26.464,-0.260,-0.305
15:23:26.468,-0.260,-0.305
15:23:26.472,-0.240,-0.315
15:23:26.476,-0.235,-0.320
15:23:26.480,-0.235,-0.345
15:23:26.484,-0.235,-0.340
15:23:26.488,-0.185,-0.345
15:23:26.492,-0.120,-0.325
15:23:26.496,-0.070,-0.345
15:23:26.500,-0.005,-0.415
15:23:26.504,0.065,-0.440
15:23:26.508,0.120,-0.480
15:23:26.512,0.130,-0.535
15:23:26.516,0.120,-0.640
15:23:26.520,0.125,-0.795
15:23:26.524,0.135,-0.985
15:23:26.528,0.225,-1.165
15:23:26.532,0.400,-1.385
15:23:26.536,0.670,-1.665
15:23:26.540,0.985,-1.995
15:23:26.544,1.185,-2.230
15:23:26.548,1.170,-2.375
15:23:26.552,0.895,-2.300
15:23:26.556,0.395,-2.060
15:23:26.560,-0.020,-1.665
15:23:26.564,-0.255,-1.325
15:23:26.568,-0.375,-1.070
15:23:26.572,-0.405,-0.920
15:23:26.576,-0.395,-0.755
15:23:26.580,-0.355,-0.630
15:23:26.584,-0.330,-0.450
15:23:26.588,-0.315,-0.360
15:23:26.592,-0.320,-0.340
15:23:26.596,-0.335,-0.365
15:23:26.600,-0.345,-0.385
15:23:26.604,-0.325,-0.375
15:23:26.608,-0.335,-0.340
15:23:26.612,-0.370,-0.300
15:23:26.616,-0.380,-0.245
15:23:26.620,-0.400,-0.210
15:23:26.624,-0.400,-0.190
15:23:26.628,-0.385,-0.170
15:23:26.632,-0.375,-0.140
15:23:26.636,-0.380,-0.140
15:23:26.640,-0.390,-0.160
15:23:26.644,-0.390,-0.185
15:23:26.648,-0.390,-0.230
15:23:26.652,-0.400,-0.215
15:23:26.656,-0.405,-0.170
15:23:26.660,-0.420,-0.100
15:23:26.664,-0.445,-0.030
15:23:26.668,-0.460,-0.005
15:23:26.672,-0.470,-0.025
15:23:26.676,-0.470,-0.085
15:23:26.680,-0.485,-0.095
15:23:26.684,-0.495,-0.105
15:23:26.688,-0.490,-0.100
15:23:26.692,-0.530,-0.070
15:23:26.696,-0.535,-0.040
15:23:26.700,-0.535,0.000
15:23:26.704,-0.515,0.005
15:23:26.708,-0.480,-0.020
15:23:26.712,-0.480,-0.030
15:23:26.716,-0.495,-0.015
15:23:26.720,-0.485,-0.045
15:23:26.724,-0.480,-0.065
15:23:26.728,-0.470,-0.120
15:23:26.732,-0.440,-0.090
15:23:26.736,-0.435,-0.070
15:23:26.740,-0.445,-0.105
15:23:26.744,-0.435,-0.080
15:23:26.748,-0.415,-0.120
15:23:26.752,-0.405,-0.180
15:23:26.756,-0.365,-0.200
15:23:26.760,-0.345,-0.230
15:23:26.764,-0.340,-0.200
15:23:26.768,-0.315,-0.200
15:23:26.772,-0.315,-0.225
15:23:26.776,-0.285,-0.295
15:23:26.780,-0.270,-0.340
15:23:26.784,-0.250,-0.340
15:23:26.788,-0.215,-0.315
15:23:26.792,-0.230,-0.330
15:23:26.796,-0.215,-0.325
15:23:26.800,-0.195,-0.320
15:23:26.804,-0.180,-0.320
15:23:26.808,-0.175,-0.325
15:23:26.812,-0.135,-0.290
15:23:26.816,-0.140,-0.265
15:23:26.820,-0.160,-0.250
15:23:26.824,-0.160,-0.240
15:23:26.828,-0.195,-0.235
15:23:26.832,-0.240,-0.250
15:23:26.836,-0.260,-0.260
15:23:26.840,-0.270,-0.250
15:23:26.844,-0.265,-0.275
15:23:26.848,-0.270,-0.290
15:23:26.852,-0.285,-0.310
15:23:26.856,-0.265,-0.350
15:23:26.860,-0.255,-0.395
15:23:26.864,-0.275,-0.405
15:23:26.868,-0.270,-0.420
15:23:26.872,-0.275,-0.405
15:23:26.876,-0.270,-0.365
15:23:26.880,-0.285,-0.340
15:23:26.884,-0.270,-0.325
15:23:26.888,-0.275,-0.270
15:23:26.892,-0.310,-0.240
15:23:26.896,-0.330,-0.255
15:23:26.900,-0.365,-0.265
15:23:26.904,-0.365,-0.235
15:23:26.908,-0.380,-0.200
15:23:26.912,-0.375,-0.235
15:23:26.916,-0.410,-0.325
15:23:26.920,-0.405,-0.385
15:23:26.924,-0.410,-0.415
15:23:26.928,-0.405,-0.365
15:23:26.932,-0.390,-0.340
15:23:26.936,-0.380,-0.290
15:23:26.940,-0.375,-0.290
15:23:26.944,-0.385,-0.330
15:23:26.948,-0.375,-0.340
15:23:26.952,-0.375,-0.310
15:23:26.956,-0.340,-0.310
15:23:26.960,-0.370,-0.280
15:23:26.964,-0.360,-0.265
15:23:26.968,-0.350,-0.210
15:23:26.972,-0.340,-0.210
15:23:26.976,-0.355,-0.235
15:23:26.980,-0.355,-0.325
15:23:26.984,-0.365,-0.335
15:23:26.988,-0.330,-0.325
15:23:26.992,-0.290,-0.315
15:23:26.996,-0.310,-0.345
15:23:27.000,-0.295,-0.310
15:23:27.004,-0.280,-0.290
15:23:27.008,-0.250,-0.265
15:23:27.012,-0.215,-0.250
15:23:27.016,-0.130,-0.265
15:23:27.020,-0.035,-0.285
15:23:27.024,0.055,-0.335
15:23:27.028,0.105,-0.365
15:23:27.032,0.170,-0.395
15:23:27.036,0.225,-0.440
15:23:27.040,0.275,-0.525
15:23:27.044,0.315,-0.630
15:23:27.048,0.335,-0.785
15:23:27.052,0.335,-0.945
15:23:27.056,0.380,-1.160
15:23:27.060,0.540,-1.405
15:23:27.064,0.785,-1.625
15:23:27.068,1.065,-1.890
15:23:27.072,1.220,-2.095
15:23:27.076,1.085,-2.125
15:23:27.080,0.665,-1.995
15:23:27.084,0.130,-1.680
15:23:27.088,-0.230,-1.315
15:23:27.092,-0.415,-1.050
15:23:27.096,-0.500,-0.895
15:23:27.100,-0.515,-0.685
15:23:27.104,-0.500,-0.465
15:23:27.108,-0.485,-0.340
15:23:27.112,-0.500,-0.290
15:23:27.116,-0.525,-0.250
15:23:27.120,-0.515,-0.210
15:23:27.124,-0.520,-0.140
15:23:27.128,-0.530,-0.055
15:23:27.132,-0.530,0.015
15:23:27.136,-0.550,-0.010
15:23:27.140,-0.590,-0.060
15:23:27.144,-0.595,-0.110
15:23:27.148,-0.630,-0.085
15:23:27.152,-0.625,-0.060
15:23:27.156,-0.620,-0.065
15:23:27.160,-0.610,-0.060
15:23:27.164,-0.625,-0.045
15:23:27.168,-0.635,0.005
15:23:27.172,-0.640,0.040
15:23:27.176,-0.660,0.050
15:23:27.180,-0.660,0.035
15:23:27.184,-0.650,0.015
15:23:27.188,-0.640,0.010
15:23:27.192,-0.640,0.010
15:23:27.196,-0.615,0.010
15:23:27.200,-0.615,0.010
15:23:27.204,-0.620,0.020
15:23:27.208,-0.600,0.060
15:23:27.212,-0.605,0.075
15:23:27.216,-0.615,0.055
15:23:27.220,-0.615,0.025
15:23:27.224,-0.620,0.040
15:23:27.228,-0.595,0.075
15:23:27.232,-0.575,0.065
15:23:27.236,-0.560,0.065
15:23:27.240,-0.560,0.045
15:23:27.244,-0.550,0.055
15:23:27.248,-0.520,0.100
15:23:27.252,-0.500,0.090
15:23:27.256,-0.490,0.090
15:23:27.260,-0.425,0.085
15:23:27.264,-0.310,0.080
15:23:27.268,-0.140,0.095
15:23:27.272,-0.075,0.095
15:23:27.276,-0.170,0.110
15:23:27.280,-0.230,0.150
15:23:27.284,-0.275,0.315
15:23:27.288,-0.280,0.335
15:23:27.292,-0.280,0.160
15:23:27.296,-0.300,0.010
15:23:27.300,-0.320,-0.050
15:23:27.304,-0.350,-0.025
15:23:27.308,-0.390,0.000
15:23:27.312,-0.360,0.030
15:23:27.316,-0.365,-0.015
15:23:27.320,-0.360,-0.080
15:23:27.324,-0.370,-0.145
15:23:27.328,-0.380,-0.175
15:23:27.332,-0.370,-0.185
15:23:27.336,-0.345,-0.160
15:23:27.340,-0.350,-0.080
15:23:27.344,-0.365,-0.080
15:23:27.348,-0.385,-0.110
15:23:27.352,-0.375,-0.145
15:23:27.356,-0.365,-0.200
15:23:27.360,-0.340,-0.200
15:23:27.364,-0.355,-0.185
15:23:27.368,-0.370,-0.145
15:23:27.372,-0.405,-0.135
15:23:27.376,-0.450,-0.115
15:23:27.380,-0.455,-0.100
15:23:27.384,-0.470,-0.075
15:23:27.388,-0.445,-0.040
15:23:27.392,-0.470,-0.005
15:23:27.396,-0.485,-0.020
15:23:27.400,-0.500,-0.045
15:23:27.404,-0.500,-0.040
15:23:27.408,-0.510,0.000
15:23:27.412,-0.465,0.020
15:23:27.416,-0.455,-0.005
15:23:27.420,-0.470,-0.055
15:23:27.424,-0.505,-0.130
15:23:27.428,-0.505,-0.150
15:23:27.432,-0.490,-0.155
15:23:27.436,-0.485,-0.155
15:23:27.440,-0.435,-0.175
15:23:27.444,-0.440,-0.190
15:23:27.448,-0.420,-0.195
15:23:27.452,-0.355,-0.190
15:23:27.456,-0.305,-0.170
15:23:27.460,-0.225,-0.170
15:23:27.464,-0.135,-0.240
15:23:27.468,-0.030,-0.295
15:23:27.472,0.035,-0.350
15:23:27.476,0.120,-0.440
15:23:27.480,0.215,-0.480
15:23:27.484,0.250,-0.600
15:23:27.488,0.295,-0.760
15:23:27.492,0.350,-0.935
15:23:27.496,0.450,-1.125
15:23:27.500,0.675,-1.360
15:23:27.504,0.990,-1.620
15:23:27.508,1.265,-1.890
15:23:27.512,1.315,-2.085
15:23:27.516,1.065,-2.105
15:23:27.520,0.575,-1.875
15:23:27.524,0.090,-1.510
15:23:27.528,-0.235,-1.165
15:23:27.532,-0.360,-0.935
15:23:27.536,-0.460,-0.700
15:23:27.540,-0.485,-0.505
15:23:27.544,-0.480,-0.310
15:23:27.548,-0.510,-0.175
15:23:27.552,-0.495,-0.080
15:23:27.556,-0.520,-0.045
15:23:27.560,-0.565,-0.025
15:23:27.564,-0.585,-0.035
15:23:27.568,-0.560,-0.060
15:23:27.572,-0.575,-0.045
15:23:27.576,-0.585,-0.050
15:23:27.580,-0.620,-0.035
15:23:27.584,-0.640,-0.040
15:23:27.588,-0.660,-0.020
15:23:27.592,-0.665,-0.040
15:23:27.596,-0.680,-0.020
15:23:27.600,-0.680,-0.025
15:23:27.604,-0.695,0.000
15:23:27.608,-0.630,0.030
15:23:27.612,-0.620,0.085
15:23:27.616,-0.625,0.115
15:23:27.620,-0.660,0.130
15:23:27.624,-0.685,0.075
15:23:27.628,-0.700,0.070
15:23:27.632,-0.670,0.015
15:23:27.636,-0.670,0.015
15:23:27.640,-0.660,0.035
15:23:27.644,-0.645,0.025
15:23:27.648,-0.635,0.025
15:23:27.652,-0.640,0.005
15:23:27.656,-0.650,0.000
15:23:27.660,-0.640,0.010
15:23:27.664,-0.635,0.040
15:23:27.668,-0.610,0.060
15:23:27.672,-0.565,0.045
15:23:27.676,-0.535,0.065
15:23:27.680,-0.540,0.090
15:23:27.684,-0.520,0.115
15:23:27.688,-0.510,0.115
15:23:27.692,-0.475,0.125
15:23:27.696,-0.460,0.135
15:23:27.700,-0.440,0.150
15:23:27.704,-0.450,0.150
15:23:27.708,-0.430,0.135
15:23:27.712,-0.435,0.135
15:23:27.716,-0.400,0.125
15:23:27.720,-0.395,0.100
15:23:27.724,-0.380,0.085
15:23:27.728,-0.365,0.060
15:23:27.732,-0.350,0.035
15:23:27.736,-0.340,0.050
15:23:27.740,-0.320,0.035
15:23:27.744,-0.295,0.025
15:23:27.748,-0.290,0.025
15:23:27.752,-0.250,0.050
15:23:27.756,-0.195,0.065
15:23:27.760,-0.150,0.020
15:23:27.764,-0.150,0.000
15:23:27.768,-0.145,-0.005
15:23:27.772,-0.120,0.020
15:23:27.776,-0.150,0.020
15:23:27.780,-0.140,0.060
15:23:27.784,-0.110,0.090
15:23:27.788,-0.095,0.125
15:23:27.792,-0.080,0.155
15:23:27.796,-0.080,0.140
15:23:27.800,-0.110,0.135
15:23:27.804,-0.120,0.165
15:23:27.808,-0.120,0.180
15:23:27.812,-0.135,0.145
15:23:27.816,-0.140,0.145
15:23:27.820,-0.125,0.135
15:23:27.824,-0.120,0.110
15:23:27.828,-0.085,0.110
15:23:27.832,-0.065,0.140
15:23:27.836,-0.015,0.200
15:23:27.840,0.055,0.235
15:23:27.844,0.115,0.185
15:23:27.848,0.185,0.160
15:23:27.852,0.235,0.165
15:23:27.856,0.255,0.110
15:23:27.860,0.270,0.020
15:23:27.864,0.290,-0.150
15:23:27.868,0.295,-0.345
15:23:27.872,0.380,-0.510
15:23:27.876,0.535,-0.705
15:23:27.880,0.785,-0.940
15:23:27.884,1.065,-1.200
15:23:27.888,1.295,-1.495
15:23:27.892,1.400,-1.675
15:23:27.896,1.230,-1.645
15:23:27.900,0.785,-1.380
15:23:27.904,0.330,-1.030
15:23:27.908,0.025,-0.675
15:23:27.912,-0.130,-0.425
15:23:27.916,-0.195,-0.225
15:23:27.920,-0.250,-0.020
15:23:27.924,-0.255,0.180
15:23:27.928,-0.300,0.340
15:23:27.932,-0.310,0.405
15:23:27.936,-0.320,0.490
15:23:27.940,-0.320,0.545
15:23:27.944,-0.335,0.590
15:23:27.948,-0.330,0.610
15:23:27.952,-0.335,0.620
15:23:27.956,-0.335,0.665
15:23:27.960,-0.360,0.695
15:23:27.964,-0.365,0.680
15:23:27.968,-0.340,0.665
15:23:27.972,-0.325,0.685
15:23:27.976,-0.320,0.700
15:23:27.980,-0.305,0.745
15:23:27.984,-0.275,0.805
15:23:27.988,-0.270,0.805
15:23:27.992,-0.245,0.785
15:23:27.996,-0.265,0.800
15:23:28.000,-0.250,0.815
15:23:28.004,-0.245,0.860
15:23:28.008,-0.235,0.875
15:23:28.012,-0.215,0.845
15:23:28.016,-0.200,0.835
15:23:28.020,-0.210,0.850
15:23:28.024,-0.225,0.885
15:23:28.028,-0.215,0.925
15:23:28.032,-0.210,0.975
15:23:28.036,-0.220,1.000
15:23:28.040,-0.230,1.015
15:23:28.044,-0.220,1.055
15:23:28.048,-0.180,1.085
15:23:28.052,-0.170,1.075
15:23:28.056,-0.185,1.060
15:23:28.060,-0.215,1.055
15:23:28.064,-0.230,1.070
15:23:28.068,-0.225,1.055
15:23:28.072,-0.200,1.050
15:23:28.076,-0.220,1.035
15:23:28.080,-0.210,1.025
15:23:28.084,-0.210,1.030
15:23:28.088,-0.225,1.030
15:23:28.092,-0.240,1.010
15:23:28.096,-0.220,1.055
15:23:28.100,-0.225,1.055
15:23:28.104,-0.245,1.015
15:23:28.108,-0.230,0.995
15:23:28.112,-0.200,0.950
15:23:28.116,-0.180,0.960
15:23:28.120,-0.155,0.975
15:23:28.124,-0.195,0.960
15:23:28.128,-0.180,0.935
15:23:28.132,-0.150,0.935
15:23:28.136,-0.135,0.930
15:23:28.140,-0.155,0.915
15:23:28.144,-0.155,0.950
15:23:28.148,-0.155,0.930
15:23:28.152,-0.135,0.935
15:23:28.156,-0.140,0.955
15:23:28.160,-0.145,0.965
15:23:28.164,-0.145,0.975
15:23:28.168,-0.130,0.965
15:23:28.172,-0.145,0.955
15:23:28.176,-0.155,0.985
15:23:28.180,-0.160,0.990
15:23:28.184,-0.155,1.030
15:23:28.188,-0.125,1.000
15:23:28.192,-0.125,1.000
15:23:28.196,-0.125,1.020
15:23:28.200,-0.115,1.005
15:23:28.204,-0.140,1.025
15:23:28.208,-0.145,1.040
15:23:28.212,-0.160,1.035
15:23:28.216,-0.170,1.035
15:23:28.220,-0.150,1.075
15:23:28.224,-0.155,1.080
15:23:28.228,-0.155,1.090
15:23:28.232,-0.130,1.090
15:23:28.236,-0.155,1.085
15:23:28.240,-0.145,1.100
15:23:28.244,-0.130,1.105
15:23:28.248,-0.125,1.130
15:23:28.252,-0.125,1.145
15:23:28.256,-0.155,1.160
15:23:28.260,-0.150,1.145
15:23:28.264,-0.135,1.160
15:23:28.268,-0.150,1.105
15:23:28.272,-0.150,1.130
15:23:28.276,-0.145,1.155
15:23:28.280,-0.165,1.145
15:23:28.284,-0.170,1.130
15:23:28.288,-0.165,1.135
15:23:28.292,-0.155,1.170
15:23:28.296,-0.155,1.195
15:23:28.300,-0.145,1.210
15:23:28.304,-0.150,1.220
15:23:28.308,-0.135,1.240
15:23:28.312,-0.115,1.210
15:23:28.316,-0.110,1.200
15:23:28.320,-0.105,1.210
15:23:28.324,-0.125,1.210
15:23:28.328,-0.115,1.185
15:23:28.332,-0.140,1.190
15:23:28.336,-0.130,1.205
15:23:28.340,-0.100,1.200
15:23:28.344,-0.040,1.220
15:23:28.348,0.020,1.205
15:23:28.352,0.085,1.170
15:23:28.356,0.130,1.125
15:23:28.360,0.200,1.035
15:23:28.364,0.240,0.935
15:23:28.368,0.275,0.870
15:23:28.372,0.285,0.815
15:23:28.376,0.285,0.720
15:23:28.380,0.290,0.590
15:23:28.384,0.320,0.305
15:23:28.388,0.450,-0.005
15:23:28.392,0.685,-0.260
15:23:28.396,1.005,-0.540
15:23:28.400,1.255,-0.745
15:23:28.404,1.275,-0.815
15:23:28.408,0.955,-0.750
15:23:28.412,0.405,-0.450
15:23:28.416,-0.035,-0.015
15:23:28.420,-0.295,0.365
15:23:28.424,-0.400,0.580
15:23:28.428,-0.440,0.735
15:23:28.432,-0.430,0.895
15:23:28.436,-0.395,1.040
15:23:28.440,-0.380,1.200
15:23:28.444,-0.395,1.295
15:23:28.448,-0.385,1.375
15:23:28.452,-0.385,1.355
15:23:28.456,-0.370,1.325
15:23:28.460,-0.350,1.330
15:23:28.464,-0.340,1.330
15:23:28.468,-0.340,1.370
15:23:28.472,-0.330,1.390
15:23:28.476,-0.355,1.400
15:23:28.480,-0.350,1.435
15:23:28.484,-0.360,1.415
15:23:28.488,-0.360,1.405
15:23:28.492,-0.380,1.370
15:23:28.496,-0.385,1.350
15:23:28.500,-0.380,1.385
15:23:28.504,-0.360,1.410
15:23:28.508,-0.395,1.430
15:23:28.512,-0.425,1.445
15:23:28.516,-0.445,1.440
15:23:28.520,-0.440,1.425
15:23:28.524,-0.440,1.425
15:23:28.528,-0.405,1.435
15:23:28.532,-0.385,1.475
15:23:28.536,-0.385,1.515
15:23:28.540,-0.380,1.520
15:23:28.544,-0.375,1.485
15:23:28.548,-0.335,1.440
15:23:28.552,-0.320,1.480
15:23:28.556,-0.340,1.510
15:23:28.560,-0.325,1.490
15:23:28.564,-0.310,1.450
15:23:28.568,-0.305,1.425
15:23:28.572,-0.280,1.435
15:23:28.576,-0.250,1.475
15:23:28.580,-0.220,1.510
15:23:28.584,-0.205,1.515
15:23:28.588,-0.190,1.480
15:23:28.592,-0.185,1.465
15:23:28.596,-0.215,1.450
15:23:28.600,-0.225,1.400
15:23:28.604,-0.200,1.350
15:23:28.608,-0.200,1.355
15:23:28.612,-0.195,1.320
15:23:28.616,-0.210,1.340
15:23:28.620,-0.230,1.340
15:23:28.624,-0.255,1.315
15:23:28.628,-0.265,1.285
15:23:28.632,-0.230,1.290
15:23:28.636,-0.210,1.300
15:23:28.640,-0.235,1.285
15:23:28.644,-0.275,1.215
15:23:28.648,-0.250,1.155
15:23:28.652,-0.265,1.165
15:23:28.656,-0.250,1.185
15:23:28.660,-0.235,1.230
15:23:28.664,-0.250,1.185
15:23:28.668,-0.260,1.130
15:23:28.672,-0.285,1.085
15:23:28.676,-0.305,1.110
15:23:28.680,-0.305,1.160
15:23:28.684,-0.300,1.215
15:23:28.688,-0.290,1.200
15:23:28.692,-0.310,1.180
15:23:28.696,-0.325,1.175
15:23:28.700,-0.310,1.170
15:23:28.704,-0.320,1.140
15:23:28.708,-0.300,1.150
15:23:28.712,-0.305,1.165
15:23:28.716,-0.330,1.200
15:23:28.720,-0.335,1.210
15:23:28.724,-0.330,1.195
15:23:28.728,-0.315,1.180
15:23:28.732,-0.360,1.160
15:23:28.736,-0.380,1.160
15:23:28.740,-0.375,1.185
15:23:28.744,-0.370,1.180
15:23:28.748,-0.395,1.155
15:23:28.752,-0.410,1.155
15:23:28.756,-0.395,1.160
15:23:28.760,-0.390,1.175
15:23:28.764,-0.390,1.190
15:23:28.768,-0.390,1.180
15:23:28.772,-0.425,1.160
15:23:28.776,-0.420,1.155
15:23:28.780,-0.420,1.170
15:23:28.784,-0.390,1.170
15:23:28.788,-0.365,1.210
15:23:28.792,-0.390,1.205
15:23:28.796,-0.400,1.135
15:23:28.800,-0.360,1.070
15:23:28.804,-0.365,1.045
15:23:28.808,-0.320,1.050
15:23:28.812,-0.335,1.085
15:23:28.816,-0.320,1.085
15:23:28.820,-0.350,1.065
15:23:28.824,-0.330,1.040
15:23:28.828,-0.305,1.025
15:23:28.832,-0.290,1.040
15:23:28.836,-0.310,1.055
15:23:28.840,-0.295,1.060
15:23:28.844,-0.250,1.085
15:23:28.848,-0.245,1.035
15:23:28.852,-0.215,1.045
15:23:28.856,-0.170,1.040
15:23:28.860,-0.100,1.015
15:23:28.864,-0.040,1.015
15:23:28.868,0.030,1.000
15:23:28.872,0.075,0.970
15:23:28.876,0.125,0.900
15:23:28.880,0.195,0.815
15:23:28.884,0.260,0.755
15:23:28.888,0.315,0.675
15:23:28.892,0.335,0.535
15:23:28.896,0.340,0.295
15:23:28.900,0.440,0.060
15:23:28.904,0.655,-0.200
15:23:28.908,0.935,-0.520
15:23:28.912,1.125,-0.725
15:23:28.916,1.060,-0.865
15:23:28.920,0.685,-0.785
15:23:28.924,0.120,-0.485
15:23:28.928,-0.300,-0.080
15:23:28.932,-0.475,0.265
15:23:28.936,-0.565,0.545
15:23:28.940,-0.580,0.695
15:23:28.944,-0.605,0.845
15:23:28.948,-0.605,0.950
15:23:28.952,-0.645,1.030
15:23:28.956,-0.685,1.095
15:23:28.960,-0.690,1.135
15:23:28.964,-0.675,1.155
15:23:28.968,-0.655,1.180
15:23:28.972,-0.680,1.205
15:23:28.976,-0.675,1.245
15:23:28.980,-0.655,1.225
15:23:28.984,-0.655,1.215
15:23:28.988,-0.675,1.190
15:23:28.992,-0.680,1.170
15:23:28.996,-0.685,1.185
15:23:29.000,-0.715,1.215
15:23:29.004,-0.695,1.210
15:23:29.008,-0.695,1.195
15:23:29.012,-0.685,1.185
15:23:29.016,-0.635,1.180
15:23:29.020,-0.610,1.205
15:23:29.024,-0.620,1.210
15:23:29.028,-0.640,1.210
15:23:29.032,-0.660,1.200
15:23:29.036,-0.655,1.165
15:23:29.040,-0.625,1.110
15:23:29.044,-0.585,1.120
15:23:29.048,-0.555,1.155
15:23:29.052,-0.565,1.120
15:23:29.056,-0.560,1.105
15:23:29.060,-0.570,1.150
15:23:29.064,-0.540,1.200
15:23:29.068,-0.505,1.275
15:23:29.072,-0.475,1.265
15:23:29.076,-0.520,1.205
15:23:29.080,-0.530,1.200
15:23:29.084,-0.525,1.225
15:23:29.088,-0.515,1.245
15:23:29.092,-0.515,1.230
15:23:29.096,-0.480,1.265
15:23:29.100,-0.450,1.255
15:23:29.104,-0.465,1.240
15:23:29.108,-0.470,1.210
15:23:29.112,-0.480,1.190
15:23:29.116,-0.515,1.170
15:23:29.120,-0.525,1.155
15:23:29.124,-0.485,1.175
15:23:29.128,-0.495,1.215
15:23:29.132,-0.485,1.220
15:23:29.136,-0.480,1.175
15:23:29.140,-0.465,1.075
15:23:29.144,-0.460,1.025
15:23:29.148,-0.475,1.020
15:23:29.152,-0.465,1.035
15:23:29.156,-0.460,1.070
15:23:29.160,-0.460,1.080
15:23:29.164,-0.485,1.065
15:23:29.168,-0.500,1.030
15:23:29.172,-0.490,1.005
15:23:29.176,-0.505,0.990
15:23:29.180,-0.495,0.990
15:23:29.184,-0.480,1.015
15:23:29.188,-0.450,1.055
15:23:29.192,-0.480,1.075
15:23:29.196,-0.465,1.060
15:23:29.200,-0.460,1.005
15:23:29.204,-0.460,0.970
15:23:29.208,-0.455,0.940
15:23:29.212,-0.440,0.950
15:23:29.216,-0.435,0.950
15:23:29.220,-0.430,0.945
15:23:29.224,-0.410,0.970
15:23:29.228,-0.395,1.005
15:23:29.232,-0.365,0.990
15:23:29.236,-0.345,0.995
15:23:29.240,-0.350,0.985
15:23:29.244,-0.355,0.970
15:23:29.248,-0.360,0.950
15:23:29.252,-0.370,0.885
15:23:29.256,-0.370,0.795
15:23:29.260,-0.410,0.795
15:23:29.264,-0.385,0.805
15:23:29.268,-0.375,0.810
15:23:29.272,-0.380,0.825
15:23:29.276,-0.365,0.865
15:23:29.280,-0.410,0.885
15:23:29.284,-0.415,0.800
15:23:29.288,-0.400,0.760
15:23:29.292,-0.415,0.760
15:23:29.296,-0.445,0.775
15:23:29.300,-0.450,0.830
15:23:29.304,-0.425,0.835
15:23:29.308,-0.410,0.820
15:23:29.312,-0.400,0.800
15:23:29.316,-0.395,0.855
15:23:29.320,-0.410,0.915
15:23:29.324,-0.425,0.925
15:23:29.328,-0.395,0.925
15:23:29.332,-0.370,0.895
15:23:29.336,-0.345,0.935
15:23:29.340,-0.320,0.905
15:23:29.344,-0.345,0.840
15:23:29.348,-0.350,0.820
15:23:29.352,-0.365,0.860
15:23:29.356,-0.360,0.905
15:23:29.360,-0.360,0.910
15:23:29.364,-0.375,0.840
15:23:29.368,-0.375,0.820
15:23:29.372,-0.380,0.835
15:23:29.376,-0.345,0.855
15:23:29.380,-0.360,0.870
15:23:29.384,-0.355,0.885
15:23:29.388,-0.395,0.920
15:23:29.392,-0.395,0.945
15:23:29.396,-0.400,0.885
15:23:29.400,-0.400,0.840
15:23:29.404,-0.405,0.815
15:23:29.408,-0.410,0.825
15:23:29.412,-0.425,0.830
15:23:29.416,-0.420,0.835
15:23:29.420,-0.425,0.800
15:23:29.424,-0.435,0.815
15:23:29.428,-0.435,0.790
15:23:29.432,-0.400,0.785
15:23:29.436,-0.400,0.755
15:23:29.440,-0.390,0.780
15:23:29.444,-0.350,0.780
15:23:29.448,-0.360,0.770
15:23:29.452,-0.355,0.775
15:23:29.456,-0.365,0.790
15:23:29.460,-0.335,0.775
15:23:29.464,-0.350,0.710
15:23:29.468,-0.325,0.655
15:23:29.472,-0.315,0.670
15:23:29.476,-0.265,0.680
15:23:29.480,-0.230,0.690
15:23:29.484,-0.225,0.690
15:23:29.488,-0.195,0.710
15:23:29.492,-0.220,0.725
15:23:29.496,-0.235,0.740
15:23:29.500,-0.250,0.730
15:23:29.504,-0.240,0.725
15:23:29.508,-0.235,0.720
15:23:29.512,-0.225,0.740
15:23:29.516,-0.220,0.740
15:23:29.520,-0.210,0.765
15:23:29.524,-0.230,0.780
15:23:29.528,-0.225,0.730
15:23:29.532,-0.225,0.710
15:23:29.536,-0.200,0.725
15:23:29.540,-0.215,0.745
15:23:29.544,-0.200,0.770
15:23:29.548,-0.205,0.760
15:23:29.552,-0.190,0.740
15:23:29.556,-0.190,0.750
15:23:29.560,-0.160,0.695
15:23:29.564,-0.145,0.695
15:23:29.568,-0.125,0.705
15:23:29.572,-0.135,0.755
15:23:29.576,-0.125,0.775
15:23:29.580,-0.090,0.805
15:23:29.584,-0.050,0.805
15:23:29.588,-0.015,0.765
15:23:29.592,0.005,0.700
15:23:29.596,0.075,0.695
15:23:29.600,0.155,0.700
15:23:29.604,0.265,0.710
15:23:29.608,0.330,0.655
15:23:29.612,0.390,0.620
15:23:29.616,0.430,0.515
15:23:29.620,0.475,0.415
15:23:29.624,0.495,0.240
15:23:29.628,0.495,0.035
15:23:29.632,0.550,-0.175
15:23:29.636,0.680,-0.455
15:23:29.640,0.905,-0.760
15:23:29.644,1.220,-1.020
15:23:29.648,1.455,-1.200
15:23:29.652,1.465,-1.270
15:23:29.656,1.205,-1.185
15:23:29.660,0.690,-0.870
15:23:29.664,0.220,-0.465
15:23:29.668,-0.040,-0.160
15:23:29.672,-0.160,0.020
15:23:29.676,-0.215,0.195
15:23:29.680,-0.235,0.405
15:23:29.684,-0.210,0.550
15:23:29.688,-0.240,0.675
15:23:29.692,-0.265,0.750
15:23:29.696,-0.270,0.780
15:23:29.700,-0.280,0.795
15:23:29.704,-0.295,0.800
15:23:29.708,-0.280,0.795
15:23:29.712,-0.275,0.835
15:23:29.716,-0.250,0.825
15:23:29.720,-0.255,0.820
15:23:29.724,-0.270,0.805
15:23:29.728,-0.255,0.770
15:23:29.732,-0.250,0.760
15:23:29.736,-0.220,0.725
15:23:29.740,-0.200,0.685
15:23:29.744,-0.205,0.705
15:23:29.748,-0.165,0.700
15:23:29.752,-0.170,0.765
15:23:29.756,-0.210,0.825
15:23:29.760,-0.215,0.895
15:23:29.764,-0.200,0.880
15:23:29.768,-0.215,0.845
15:23:29.772,-0.210,0.830
15:23:29.776,-0.235,0.865
15:23:29.780,-0.240,0.895
15:23:29.784,-0.255,0.915
15:23:29.788,-0.240,0.875
15:23:29.792,-0.215,0.860
15:23:29.796,-0.200,0.860
15:23:29.800,-0.205,0.885
15:23:29.804,-0.210,0.940
15:23:29.808,-0.195,0.905
15:23:29.812,-0.185,0.875
15:23:29.816,-0.185,0.855
15:23:29.820,-0.165,0.835
15:23:29.824,-0.165,0.855
15:23:29.828,-0.155,0.875
15:23:29.832,-0.140,0.835
15:23:29.836,-0.140,0.885
15:23:29.840,-0.165,0.870
15:23:29.844,-0.170,0.900
15:23:29.848,-0.160,0.900
15:23:29.852,-0.160,0.890
15:23:29.856,-0.170,0.850
15:23:29.860,-0.190,0.875
15:23:29.864,-0.195,0.850
15:23:29.868,-0.190,0.825
15:23:29.872,-0.200,0.830
15:23:29.876,-0.175,0.860
15:23:29.880,-0.140,0.810
15:23:29.884,-0.130,0.745
15:23:29.888,-0.115,0.725
15:23:29.892,-0.120,0.695
15:23:29.896,-0.115,0.675
15:23:29.900,-0.100,0.665
15:23:29.904,-0.125,0.675
15:23:29.908,-0.090,0.710
15:23:29.912,-0.070,0.725
15:23:29.916,-0.065,0.725
15:23:29.920,-0.030,0.650
15:23:29.924,-0.030,0.585
15:23:29.928,-0.045,0.555
15:23:29.932,-0.040,0.575
15:23:29.936,-0.025,0.565
15:23:29.940,-0.005,0.545
15:23:29.944,0.030,0.535
15:23:29.948,0.020,0.515
15:23:29.952,0.025,0.550
15:23:29.956,0.020,0.580
15:23:29.960,0.040,0.600
15:23:29.964,0.070,0.640
15:23:29.968,0.045,0.600
15:23:29.972,0.035,0.575
15:23:29.976,-0.005,0.530
15:23:29.980,-0.010,0.495
15:23:29.984,-0.030,0.545
15:23:29.988,-0.070,0.550
15:23:29.992,-0.070,0.585
15:23:29.996,-0.125,0.600
15:23:30.000,-0.140,0.620
15:23:30.004,-0.140,0.620
15:23:30.008,-0.145,0.605
15:23:30.012,-0.150,0.590
15:23:30.016,-0.150,0.595
15:23:30.020,-0.160,0.645
15:23:30.024,-0.150,0.690
15:23:30.028,-0.130,0.695
15:23:30.032,-0.120,0.680
15:23:30.036,-0.115,0.635
15:23:30.040,-0.115,0.615
15:23:30.044,-0.115,0.620
15:23:30.048,-0.130,0.625
15:23:30.052,-0.150,0.580
15:23:30.056,-0.135,0.575
15:23:30.060,-0.120,0.610
15:23:30.064,-0.110,0.645
15:23:30.068,-0.100,0.625
15:23:30.072,-0.090,0.570
15:23:30.076,-0.125,0.570
15:23:30.080,-0.120,0.570
15:23:30.084,-0.160,0.595
15:23:30.088,-0.155,0.600
15:23:30.092,-0.150,0.600
15:23:30.096,-0.165,0.615
15:23:30.100,-0.150,0.610
15:23:30.104,-0.165,0.595
15:23:30.108,-0.170,0.580
15:23:30.112,-0.150,0.585
15:23:30.116,-0.165,0.580
15:23:30.120,-0.150,0.560
15:23:30.124,-0.145,0.560
15:23:30.128,-0.125,0.545
15:23:30.132,-0.110,0.525
15:23:30.136,-0.115,0.530
15:23:30.140,-0.120,0.525
15:23:30.144,-0.145,0.510
15:23:30.148,-0.150,0.460
15:23:30.152,-0.140,0.390
15:23:30.156,-0.130,0.375
15:23:30.160,-0.125,0.390
15:23:30.164,-0.110,0.450
15:23:30.168,-0.120,0.460
15:23:30.172,-0.120,0.445
15:23:30.176,-0.115,0.420
15:23:30.180,-0.100,0.390
15:23:30.184,-0.065,0.395
15:23:30.188,-0.025,0.410
15:23:30.192,-0.005,0.430
15:23:30.196,0.040,0.455
15:23:30.200,0.110,0.490
15:23:30.204,0.185,0.475
15:23:30.208,0.275,0.465
15:23:30.212,0.330,0.410
15:23:30.216,0.370,0.385
15:23:30.220,0.430,0.310
15:23:30.224,0.460,0.235
15:23:30.228,0.455,0.125
15:23:30.232,0.475,-0.035
15:23:30.236,0.470,-0.225
15:23:30.240,0.515,-0.455
15:23:30.244,0.735,-0.735
15:23:30.248,1.040,-1.005
15:23:30.252,1.330,-1.210
15:23:30.256,1.430,-1.365
15:23:30.260,1.270,-1.420
15:23:30.264,0.790,-1.265
15:23:30.268,0.260,-0.905
15:23:30.272,-0.075,-0.460
15:23:30.276,-0.245,-0.125
15:23:30.280,-0.290,0.080
15:23:30.284,-0.310,0.255
15:23:30.288,-0.280,0.365
15:23:30.292,-0.270,0.440
15:23:30.296,-0.290,0.460
15:23:30.300,-0.305,0.505
15:23:30.304,-0.310,0.555
15:23:30.308,-0.315,0.580
15:23:30.312,-0.310,0.605
15:23:30.316,-0.335,0.620
15:23:30.320,-0.325,0.630
15:23:30.324,-0.330,0.655
15:23:30.328,-0.345,0.650
15:23:30.332,-0.380,0.650
15:23:30.336,-0.380,0.655
15:23:30.340,-0.390,0.655
15:23:30.344,-0.420,0.650
15:23:30.348,-0.425,0.655
15:23:30.352,-0.415,0.635
15:23:30.356,-0.435,0.635
15:23:30.360,-0.450,0.630
15:23:30.364,-0.415,0.635
15:23:30.368,-0.430,0.645
15:23:30.372,-0.415,0.655
15:23:30.376,-0.390,0.665
15:23:30.380,-0.380,0.650
15:23:30.384,-0.355,0.630
15:23:30.388,-0.310,0.620
15:23:30.392,-0.320,0.580
15:23:30.396,-0.305,0.535
15:23:30.400,-0.285,0.515
15:23:30.404,-0.290,0.500
15:23:30.408,-0.275,0.500
15:23:30.412,-0.280,0.505
15:23:30.416,-0.255,0.560
15:23:30.420,-0.235,0.605
15:23:30.424,-0.205,0.670
15:23:30.428,-0.190,0.665
15:23:30.432,-0.175,0.650
15:23:30.436,-0.150,0.620
15:23:30.440,-0.145,0.655
15:23:30.444,-0.140,0.660
15:23:30.448,-0.125,0.645
15:23:30.452,-0.080,0.615
15:23:30.456,-0.105,0.660
15:23:30.460,-0.120,0.715
15:23:30.464,-0.130,0.740
15:23:30.468,-0.160,0.660
15:23:30.472,-0.205,0.590
15:23:30.476,-0.220,0.520
15:23:30.480,-0.230,0.530
15:23:30.484,-0.220,0.570
15:23:30.488,-0.245,0.595
15:23:30.492,-0.260,0.615
15:23:30.496,-0.230,0.585
15:23:30.500,-0.260,0.545
15:23:30.504,-0.265,0.530
15:23:30.508,-0.240,0.515
15:23:30.512,-0.210,0.485
15:23:30.516,-0.195,0.485
15:23:30.520,-0.200,0.490
15:23:30.524,-0.195,0.440
15:23:30.528,-0.195,0.395
15:23:30.532,-0.205,0.375
15:23:30.536,-0.210,0.375
15:23:30.540,-0.195,0.385
15:23:30.544,-0.205,0.395
15:23:30.548,-0.210,0.420
15:23:30.552,-0.210,0.440
15:23:30.556,-0.220,0.420
15:23:30.560,-0.265,0.420
15:23:30.564,-0.245,0.425
15:23:30.568,-0.265,0.385
15:23:30.572,-0.280,0.400
15:23:30.576,-0.300,0.375
15:23:30.580,-0.310,0.370
15:23:30.584,-0.285,0.370
15:23:30.588,-0.265,0.370
15:23:30.592,-0.255,0.370
15:23:30.596,-0.240,0.405
15:23:30.600,-0.245,0.370
15:23:30.604,-0.205,0.330
15:23:30.608,-0.125,0.305
15:23:30.612,-0.045,0.315
15:23:30.616,0.030,0.310
15:23:30.620,0.095,0.280
15:23:30.624,0.135,0.230
15:23:30.628,0.195,0.175
15:23:30.632,0.210,0.090
15:23:30.636,0.220,-0.085
15:23:30.640,0.245,-0.320
15:23:30.644,0.335,-0.575
15:23:30.648,0.510,-0.850
15:23:30.652,0.715,-1.115
15:23:30.656,0.960,-1.425
15:23:30.660,1.185,-1.675
15:23:30.664,1.180,-1.780
15:23:30.668,0.915,-1.725
15:23:30.672,0.455,-1.515
15:23:30.676,0.040,-1.140
15:23:30.680,-0.185,-0.730
15:23:30.684,-0.285,-0.410
15:23:30.688,-0.320,-0.180
15:23:30.692,-0.360,-0.010
15:23:30.696,-0.400,0.135
15:23:30.700,-0.420,0.225
15:23:30.704,-0.450,0.320
15:23:30.708,-0.475,0.360
15:23:30.712,-0.490,0.455
15:23:30.716,-0.490,0.480
15:23:30.720,-0.470,0.460
15:23:30.724,-0.465,0.455
15:23:30.728,-0.510,0.445
15:23:30.732,-0.525,0.440
15:23:30.736,-0.570,0.445
15:23:30.740,-0.555,0.435
15:23:30.744,-0.535,0.445
15:23:30.748,-0.550,0.415
15:23:30.752,-0.535,0.425
15:23:30.756,-0.580,0.455
15:23:30.760,-0.560,0.465
15:23:30.764,-0.580,0.465
15:23:30.768,-0.570,0.445
15:23:30.772,-0.570,0.420
15:23:30.776,-0.570,0.425
15:23:30.780,-0.560,0.470
15:23:30.784,-0.575,0.480
15:23:30.788,-0.560,0.480
15:23:30.792,-0.545,0.475
15:23:30.796,-0.540,0.495
15:23:30.800,-0.520,0.515
15:23:30.804,-0.550,0.535
15:23:30.808,-0.560,0.475
15:23:30.812,-0.595,0.430
15:23:30.816,-0.625,0.435
15:23:30.820,-0.620,0.435
15:23:30.824,-0.610,0.435
15:23:30.828,-0.590,0.445
15:23:30.832,-0.580,0.415
15:23:30.836,-0.580,0.370
15:23:30.840,-0.575,0.355
15:23:30.844,-0.550,0.335
15:23:30.848,-0.520,0.325
15:23:30.852,-0.505,0.330
15:23:30.856,-0.465,0.280
15:23:30.860,-0.445,0.250
15:23:30.864,-0.420,0.230
15:23:30.868,-0.400,0.220
15:23:30.872,-0.410,0.215
15:23:30.876,-0.420,0.240
15:23:30.880,-0.410,0.240
15:23:30.884,-0.395,0.245
15:23:30.888,-0.375,0.215
15:23:30.892,-0.340,0.235
15:23:30.896,-0.330,0.170
15:23:30.900,-0.330,0.160
15:23:30.904,-0.320,0.205
15:23:30.908,-0.350,0.235
15:23:30.912,-0.375,0.220
15:23:30.916,-0.340,0.180
15:23:30.920,-0.335,0.180
15:23:30.924,-0.325,0.175
15:23:30.928,-0.370,0.175
15:23:30.932,-0.410,0.175
15:23:30.936,-0.420,0.120
15:23:30.940,-0.425,0.090
15:23:30.944,-0.405,0.095
15:23:30.948,-0.440,0.110
15:23:30.952,-0.430,0.170
15:23:30.956,-0.445,0.155
15:23:30.960,-0.430,0.170
15:23:30.964,-0.440,0.185
15:23:30.968,-0.450,0.150
15:23:30.972,-0.420,0.165
15:23:30.976,-0.405,0.155
15:23:30.980,-0.415,0.150
15:23:30.984,-0.425,0.175
15:23:30.988,-0.430,0.180
15:23:30.992,-0.440,0.145
15:23:30.996,-0.435,0.120
15:23:31.000,-0.450,0.100
15:23:31.004,-0.445,0.130
15:23:31.008,-0.445,0.135
15:23:31.012,-0.420,0.115
15:23:31.016,-0.415,0.100
15:23:31.020,-0.420,0.090
15:23:31.024,-0.405,0.105
15:23:31.028,-0.380,0.130
15:23:31.032,-0.355,0.115
15:23:31.036,-0.310,0.095
15:23:31.040,-0.260,0.060
15:23:31.044,-0.170,0.050
15:23:31.048,-0.075,0.065
15:23:31.052,0.030,0.060
15:23:31.056,0.100,0.010
15:23:31.060,0.210,-0.105
15:23:31.064,0.280,-0.200
15:23:31.068,0.345,-0.320
15:23:31.072,0.350,-0.465
15:23:31.076,0.365,-0.670
15:23:31.080,0.435,-0.930
15:23:31.084,0.610,-1.200
15:23:31.088,0.915,-1.415
15:23:31.092,1.180,-1.645
15:23:31.096,1.265,-1.805
15:23:31.100,1.060,-1.835
15:23:31.104,0.615,-1.690
15:23:31.108,0.045,-1.345
15:23:31.112,-0.295,-0.940
15:23:31.116,-0.430,-0.630
15:23:31.120,-0.490,-0.400
15:23:31.124,-0.545,-0.205
15:23:31.128,-0.530,-0.040
15:23:31.132,-0.575,0.035
15:23:31.136,-0.580,0.070
15:23:31.140,-0.580,0.070
15:23:31.144,-0.615,0.080
15:23:31.148,-0.625,0.120
15:23:31.152,-0.630,0.145
15:23:31.156,-0.620,0.145
15:23:31.160,-0.640,0.185
15:23:31.164,-0.640,0.230
15:23:31.168,-0.670,0.275
15:23:31.172,-0.680,0.285
15:23:31.176,-0.680,0.225
15:23:31.180,-0.685,0.180
15:23:31.184,-0.685,0.165
15:23:31.188,-0.700,0.175
15:23:31.192,-0.730,0.270
15:23:31.196,-0.700,0.280
15:23:31.200,-0.705,0.290
15:23:31.204,-0.715,0.270
15:23:31.208,-0.700,0.315
15:23:31.212,-0.670,0.330
15:23:31.216,-0.685,0.300
15:23:31.220,-0.690,0.255
15:23:31.224,-0.675,0.220
15:23:31.228,-0.695,0.215
15:23:31.232,-0.670,0.220
15:23:31.236,-0.640,0.230
15:23:31.240,-0.640,0.240
15:23:31.244,-0.615,0.270
15:23:31.248,-0.620,0.255
15:23:31.252,-0.610,0.300
15:23:31.256,-0.590,0.315
15:23:31.260,-0.580,0.285
15:23:31.264,-0.555,0.230
15:23:31.268,-0.530,0.185
15:23:31.272,-0.480,0.200
15:23:31.276,-0.465,0.235
15:23:31.280,-0.470,0.255
15:23:31.284,-0.465,0.220
15:23:31.288,-0.460,0.170
15:23:31.292,-0.450,0.125
15:23:31.296,-0.440,0.105
15:23:31.300,-0.430,0.095
15:23:31.304,-0.415,0.120
15:23:31.308,-0.410,0.135
15:23:31.312,-0.410,0.165
15:23:31.316,-0.390,0.160
15:23:31.320,-0.385,0.120
15:23:31.324,-0.400,0.090
15:23:31.328,-0.405,0.075
15:23:31.332,-0.400,0.040
15:23:31.336,-0.395,-0.005
15:23:31.340,-0.360,-0.045
15:23:31.344,-0.345,-0.050
15:23:31.348,-0.335,-0.050
15:23:31.352,-0.335,-0.045
15:23:31.356,-0.345,-0.025
15:23:31.360,-0.350,-0.015
15:23:31.364,-0.340,0.000
15:23:31.368,-0.335,0.015
15:23:31.372,-0.320,-0.025
15:23:31.376,-0.335,-0.070
15:23:31.380,-0.320,-0.070
15:23:31.384,-0.350,-0.075
15:23:31.388,-0.345,-0.080
15:23:31.392,-0.320,-0.070
15:23:31.396,-0.315,-0.060
15:23:31.400,-0.310,-0.055
15:23:31.404,-0.315,-0.020
15:23:31.408,-0.355,-0.010
15:23:31.412,-0.330,0.015
15:23:31.416,-0.335,0.005
15:23:31.420,-0.335,-0.040
15:23:31.424,-0.350,-0.065
15:23:31.428,-0.375,-0.040
15:23:31.432,-0.410,-0.015
15:23:31.436,-0.420,-0.020
15:23:31.440,-0.400,-0.050
15:23:31.444,-0.415,-0.040
15:23:31.448,-0.355,-0.035
15:23:31.452,-0.325,-0.030
15:23:31.456,-0.250,-0.015
15:23:31.460,-0.155,0.000
15:23:31.464,-0.055,-0.020
15:23:31.468,0.030,-0.095
15:23:31.472,0.070,-0.170
15:23:31.476,0.175,-0.270
15:23:31.480,0.230,-0.360
15:23:31.484,0.260,-0.465
15:23:31.488,0.300,-0.605
15:23:31.492,0.380,-0.800
15:23:31.496,0.500,-1.065
15:23:31.500,0.710,-1.335
15:23:31.504,1.010,-1.600
15:23:31.508,1.275,-1.785
15:23:31.512,1.335,-1.930
15:23:31.516,1.100,-1.940
15:23:31.520,0.630,-1.735
15:23:31.524,0.155,-1.365
15:23:31.528,-0.110,-1.005
15:23:31.532,-0.240,-0.730
15:23:31.536,-0.330,-0.560
15:23:31.540,-0.350,-0.400
15:23:31.544,-0.375,-0.285
15:23:31.548,-0.395,-0.110
15:23:31.552,-0.410,-0.045
15:23:31.556,-0.425,0.005
15:23:31.560,-0.435,0.015
15:23:31.564,-0.455,0.045
15:23:31.568,-0.455,0.030
15:23:31.572,-0.465,0.025
15:23:31.576,-0.475,0.000
15:23:31.580,-0.490,0.005
15:23:31.584,-0.485,0.015
15:23:31.588,-0.500,0.045
15:23:31.592,-0.475,0.055
15:23:31.596,-0.475,0.055
15:23:31.600,-0.495,0.060
15:23:31.604,-0.505,0.020
15:23:31.608,-0.495,0.030
15:23:31.612,-0.500,0.020
15:23:31.616,-0.500,0.005
15:23:31.620,-0.490,0.020
15:23:31.624,-0.500,0.045
15:23:31.628,-0.490,0.080
15:23:31.632,-0.480,0.110
15:23:31.636,-0.495,0.095
15:23:31.640,-0.480,0.080
15:23:31.644,-0.470,0.055
15:23:31.648,-0.485,0.065
15:23:31.652,-0.475,0.095
15:23:31.656,-0.460,0.090
15:23:31.660,-0.430,0.070
15:23:31.664,-0.410,0.055
15:23:31.668,-0.405,0.110
15:23:31.672,-0.425,0.095
15:23:31.676,-0.425,0.110
15:23:31.680,-0.430,0.025
15:23:31.684,-0.425,0.020
15:23:31.688,-0.385,0.055
15:23:31.692,-0.370,0.065
15:23:31.696,-0.355,0.065
15:23:31.700,-0.330,0.070
15:23:31.704,-0.325,0.070
15:23:31.708,-0.325,0.075
15:23:31.712,-0.305,0.065
15:23:31.716,-0.295,0.020
15:23:31.720,-0.250,0.010
15:23:31.724,-0.235,0.000
15:23:31.728,-0.225,-0.025
15:23:31.732,-0.210,-0.040
15:23:31.736,-0.225,-0.005
15:23:31.740,-0.190,0.000
15:23:31.744,-0.185,-0.045
15:23:31.748,-0.160,-0.090
15:23:31.752,-0.150,-0.125
15:23:31.756,-0.150,-0.130
15:23:31.760,-0.140,-0.125
15:23:31.764,-0.135,-0.090
15:23:31.768,-0.145,-0.080
15:23:31.772,-0.145,-0.090
15:23:31.776,-0.135,-0.125
15:23:31.780,-0.145,-0.150
15:23:31.784,-0.165,-0.195
15:23:31.788,-0.155,-0.215
15:23:31.792,-0.165,-0.215
15:23:31.796,-0.165,-0.205
15:23:31.800,-0.200,-0.220
15:23:31.804,-0.225,-0.195
15:23:31.808,-0.190,-0.210
15:23:31.812,-0.215,-0.190
15:23:31.816,-0.215,-0.130
15:23:31.820,-0.220,-0.115
15:23:31.824,-0.240,-0.140
15:23:31.828,-0.225,-0.205
15:23:31.832,-0.225,-0.235
15:23:31.836,-0.230,-0.225
15:23:31.840,-0.230,-0.235
15:23:31.844,-0.255,-0.185
15:23:31.848,-0.230,-0.180
15:23:31.852,-0.220,-0.190
15:23:31.856,-0.240,-0.160
15:23:31.860,-0.230,-0.140
15:23:31.864,-0.215,-0.135
15:23:31.868,-0.185,-0.155
15:23:31.872,-0.145,-0.175
15:23:31.876,-0.095,-0.180
15:23:31.880,-0.050,-0.150
15:23:31.884,0.030,-0.140
15:23:31.888,0.100,-0.160
15:23:31.892,0.180,-0.215
15:23:31.896,0.235,-0.265
15:23:31.900,0.295,-0.325
15:23:31.904,0.335,-0.385
15:23:31.908,0.345,-0.475
15:23:31.912,0.350,-0.585
15:23:31.916,0.385,-0.745
15:23:31.920,0.450,-1.015
15:23:31.924,0.595,-1.315
15:23:31.928,0.885,-1.585
15:23:31.932,1.190,-1.845
15:23:31.936,1.360,-2.000
15:23:31.940,1.280,-2.035
15:23:31.944,0.900,-1.955
15:23:31.948,0.370,-1.620
15:23:31.952,-0.040,-1.200
15:23:31.956,-0.250,-0.885
15:23:31.960,-0.360,-0.690
15:23:31.964,-0.370,-0.555
15:23:31.968,-0.370,-0.385
15:23:31.972,-0.370,-0.275
15:23:31.976,-0.365,-0.195
15:23:31.980,-0.350,-0.130
15:23:31.984,-0.360,-0.085
15:23:31.988,-0.350,-0.055
15:23:31.992,-0.345,-0.035
15:23:31.996,-0.325,-0.005
15:23:32.000,-0.335,0.005
15:23:32.004,-0.325,0.000
15:23:32.008,-0.300,0.000
15:23:32.012,-0.310,-0.040
15:23:32.016,-0.315,-0.060
15:23:32.020,-0.335,-0.040
15:23:32.024,-0.335,-0.025
15:23:32.028,-0.345,-0.055
15:23:32.032,-0.335,-0.035
15:23:32.036,-0.360,-0.055
15:23:32.040,-0.380,-0.060
15:23:32.044,-0.370,-0.040
15:23:32.048,-0.390,-0.030
15:23:32.052,-0.390,-0.030
15:23:32.056,-0.370,0.020
15:23:32.060,-0.350,0.020
15:23:32.064,-0.350,-0.020
15:23:32.068,-0.365,-0.055
15:23:32.072,-0.380,-0.035
15:23:32.076,-0.370,0.000
15:23:32.080,-0.360,0.020
15:23:32.084,-0.360,0.055
15:23:32.088,-0.355,0.080
15:23:32.092,-0.365,0.070
15:23:32.096,-0.340,0.055
15:23:32.100,-0.345,0.035
15:23:32.104,-0.295,0.030
15:23:32.108,-0.290,0.020
15:23:32.112,-0.275,0.015
15:23:32.116,-0.270,0.065
15:23:32.120,-0.275,0.110
15:23:32.124,-0.255,0.120
15:23:32.128,-0.270,0.050
15:23:32.132,-0.280,0.010
15:23:32.136,-0.270,0.020
15:23:32.140,-0.275,0.015
15:23:32.144,-0.285,-0.020
15:23:32.148,-0.280,0.000
15:23:32.152,-0.260,0.020
15:23:32.156,-0.255,0.010
15:23:32.160,-0.270,0.000
15:23:32.164,-0.280,-0.030
15:23:32.168,-0.260,-0.085
15:23:32.172,-0.255,-0.125
15:23:32.176,-0.235,-0.120
15:23:32.180,-0.220,-0.135
15:23:32.184,-0.210,-0.180
15:23:32.188,-0.195,-0.215
15:23:32.192,-0.190,-0.195
15:23:32.196,-0.185,-0.190
15:23:32.200,-0.190,-0.175
15:23:32.204,-0.190,-0.155
15:23:32.208,-0.175,-0.175
15:23:32.212,-0.160,-0.215
15:23:32.216,-0.140,-0.235
15:23:32.220,-0.130,-0.260
15:23:32.224,-0.125,-0.260
15:23:32.228,-0.120,-0.240
15:23:32.232,-0.160,-0.230
15:23:32.236,-0.160,-0.195
15:23:32.240,-0.145,-0.195
15:23:32.244,-0.115,-0.170
15:23:32.248,-0.110,-0.105
15:23:32.252,-0.125,-0.110
15:23:32.256,-0.120,-0.120
15:23:32.260,-0.075,-0.160
15:23:32.264,-0.045,-0.190
15:23:32.268,-0.035,-0.210
15:23:32.272,0.010,-0.230
15:23:32.276,0.045,-0.275
15:23:32.280,0.075,-0.295
15:23:32.284,0.105,-0.315
15:23:32.288,0.135,-0.350
15:23:32.292,0.110,-0.415
15:23:32.296,0.070,-0.495
15:23:32.300,0.055,-0.640
15:23:32.304,0.085,-0.800
15:23:32.308,0.210,-1.080
15:23:32.312,0.435,-1.355
15:23:32.316,0.715,-1.650
15:23:32.320,0.965,-1.930
15:23:32.324,1.170,-2.145
15:23:32.328,1.135,-2.220
15:23:32.332,0.820,-2.145
15:23:32.336,0.360,-1.845
15:23:32.340,-0.010,-1.440
15:23:32.344,-0.235,-1.090
15:23:32.348,-0.365,-0.840
15:23:32.352,-0.415,-0.675
15:23:32.356,-0.410,-0.480
15:23:32.360,-0.380,-0.340
15:23:32.364,-0.385,-0.235
15:23:32.368,-0.390,-0.180
15:23:32.372,-0.355,-0.140
15:23:32.376,-0.350,-0.110
15:23:32.380,-0.375,-0.070
15:23:32.384,-0.395,-0.070
15:23:32.388,-0.405,-0.080
15:23:32.392,-0.435,-0.060
15:23:32.396,-0.435,-0.005
15:23:32.400,-0.430,0.000
15:23:32.404,-0.420,0.010
15:23:32.408,-0.440,-0.015
15:23:32.412,-0.450,-0.020
15:23:32.416,-0.460,-0.040
15:23:32.420,-0.460,-0.030
15:23:32.424,-0.480,-0.010
15:23:32.428,-0.485,-0.010
15:23:32.432,-0.450,0.000
15:23:32.436,-0.455,0.015
15:23:32.440,-0.450,-0.005
15:23:32.444,-0.420,-0.020
15:23:32.448,-0.415,-0.030
15:23:32.452,-0.395,-0.010
15:23:32.456,-0.390,0.025
15:23:32.460,-0.375,0.005
15:23:32.464,-0.370,0.025
15:23:32.468,-0.330,0.005
15:23:32.472,-0.310,0.030
15:23:32.476,-0.295,0.015
15:23:32.480,-0.280,-0.005
15:23:32.484,-0.310,-0.015
15:23:32.488,-0.290,-0.005
15:23:32.492,-0.310,0.005
15:23:32.496,-0.325,0.000
15:23:32.500,-0.350,-0.010
15:23:32.504,-0.345,0.015
15:23:32.508,-0.355,0.035
15:23:32.512,-0.355,0.050
15:23:32.516,-0.370,-0.020
15:23:32.520,-0.360,-0.060
15:23:32.524,-0.365,-0.070
15:23:32.528,-0.370,-0.090
15:23:32.532,-0.380,-0.120
15:23:32.536,-0.400,-0.115
15:23:32.540,-0.390,-0.200
15:23:32.544,-0.400,-0.180
15:23:32.548,-0.410,-0.170
15:23:32.552,-0.370,-0.180
15:23:32.556,-0.365,-0.210
15:23:32.560,-0.350,-0.245
15:23:32.564,-0.355,-0.225
15:23:32.568,-0.345,-0.235
15:23:32.572,-0.320,-0.225
15:23:32.576,-0.310,-0.255
15:23:32.580,-0.320,-0.265
15:23:32.584,-0.335,-0.300
15:23:32.588,-0.330,-0.310
15:23:32.592,-0.345,-0.295
15:23:32.596,-0.355,-0.275
15:23:32.600,-0.335,-0.230
15:23:32.604,-0.320,-0.190
15:23:32.608,-0.350,-0.200
15:23:32.612,-0.335,-0.255
15:23:32.616,-0.340,-0.305
15:23:32.620,-0.345,-0.315
15:23:32.624,-0.350,-0.265
15:23:32.628,-0.345,-0.245
15:23:32.632,-0.355,-0.235
15:23:32.636,-0.380,-0.255
15:23:32.640,-0.390,-0.285
15:23:32.644,-0.400,-0.290
15:23:32.648,-0.365,-0.270
15:23:32.652,-0.360,-0.230
15:23:32.656,-0.330,-0.205
15:23:32.660,-0.320,-0.215
15:23:32.664,-0.275,-0.240
15:23:32.668,-0.250,-0.260
15:23:32.672,-0.175,-0.260
15:23:32.676,-0.105,-0.280
15:23:32.680,-0.045,-0.300
15:23:32.684,0.000,-0.385
15:23:32.688,0.040,-0.455
15:23:32.692,0.100,-0.570
15:23:32.696,0.145,-0.670
15:23:32.700,0.165,-0.800
15:23:32.704,0.185,-0.950
15:23:32.708,0.240,-1.135
15:23:32.712,0.425,-1.405
15:23:32.716,0.680,-1.670
15:23:32.720,0.920,-1.930
15:23:32.724,1.070,-2.090
15:23:32.728,0.860,-2.130
15:23:32.732,0.440,-2.000
15:23:32.736,-0.045,-1.695
15:23:32.740,-0.360,-1.275
15:23:32.744,-0.530,-0.965
15:23:32.748,-0.590,-0.795
15:23:32.752,-0.620,-0.630
15:23:32.756,-0.630,-0.475
15:23:32.760,-0.625,-0.365
15:23:32.764,-0.635,-0.275
15:23:32.768,-0.640,-0.205
15:23:32.772,-0.670,-0.165
15:23:32.776,-0.665,-0.150
15:23:32.780,-0.655,-0.140
15:23:32.784,-0.665,-0.165
15:23:32.788,-0.650,-0.145
15:23:32.792,-0.670,-0.150
15:23:32.796,-0.640,-0.150
15:23:32.800,-0.650,-0.195
15:23:32.804,-0.690,-0.210
15:23:32.808,-0.680,-0.215
15:23:32.812,-0.665,-0.185
15:23:32.816,-0.640,-0.175
15:23:32.820,-0.615,-0.115
15:23:32.824,-0.600,-0.120
15:23:32.828,-0.595,-0.130
15:23:32.832,-0.640,-0.085
15:23:32.836,-0.670,-0.080
15:23:32.840,-0.640,-0.060
15:23:32.844,-0.640,-0.065
15:23:32.848,-0.660,-0.050
15:23:32.852,-0.655,-0.015
15:23:32.856,-0.630,0.000
15:23:32.860,-0.625,-0.035
15:23:32.864,-0.635,-0.165
15:23:32.868,-0.620,-0.175
15:23:32.872,-0.670,-0.170
15:23:32.876,-0.640,-0.140
15:23:32.880,-0.620,-0.095
15:23:32.884,-0.635,-0.100
15:23:32.888,-0.620,-0.125
15:23:32.892,-0.620,-0.105
15:23:32.896,-0.605,-0.100
15:23:32.900,-0.605,-0.075
15:23:32.904,-0.630,-0.100
15:23:32.908,-0.620,-0.100
15:23:32.912,-0.600,-0.105
15:23:32.916,-0.585,-0.115
15:23:32.920,-0.560,-0.150
15:23:32.924,-0.560,-0.155
15:23:32.928,-0.540,-0.160
15:23:32.932,-0.530,-0.140
15:23:32.936,-0.530,-0.135
15:23:32.940,-0.545,-0.180
15:23:32.944,-0.510,-0.230
15:23:32.948,-0.510,-0.300
15:23:32.952,-0.490,-0.320
15:23:32.956,-0.440,-0.310
15:23:32.960,-0.440,-0.285
15:23:32.964,-0.420,-0.270
15:23:32.968,-0.415,-0.245
15:23:32.972,-0.415,-0.250
15:23:32.976,-0.400,-0.265
15:23:32.980,-0.390,-0.295
15:23:32.984,-0.405,-0.315
15:23:32.988,-0.420,-0.300
15:23:32.992,-0.410,-0.275
15:23:32.996,-0.400,-0.280
15:23:33.000,-0.440,-0.295
15:23:33.004,-0.440,-0.310
15:23:33.008,-0.440,-0.320
15:23:33.012,-0.460,-0.315
15:23:33.016,-0.440,-0.350
15:23:33.020,-0.445,-0.360
15:23:33.024,-0.440,-0.370
15:23:33.028,-0.460,-0.375
15:23:33.032,-0.450,-0.400
15:23:33.036,-0.455,-0.375
15:23:33.040,-0.450,-0.370
15:23:33.044,-0.440,-0.300
15:23:33.048,-0.460,-0.245
15:23:33.052,-0.460,-0.230
15:23:33.056,-0.460,-0.255
15:23:33.060,-0.475,-0.330
15:23:33.064,-0.480,-0.350
15:23:33.068,-0.480,-0.375
15:23:33.072,-0.485,-0.355
15:23:33.076,-0.480,-0.335
15:23:33.080,-0.505,-0.305
15:23:33.084,-0.485,-0.295
15:23:33.088,-0.440,-0.350
15:23:33.092,-0.355,-0.370
15:23:33.096,-0.290,-0.375
15:23:33.100,-0.230,-0.400
15:23:33.104,-0.155,-0.410
15:23:33.108,-0.045,-0.410
15:23:33.112,0.020,-0.445
15:23:33.116,0.100,-0.560
15:23:33.120,0.165,-0.655
15:23:33.124,0.190,-0.820
15:23:33.128,0.210,-1.070
15:23:33.132,0.310,-1.360
15:23:33.136,0.540,-1.615
15:23:33.140,0.875,-1.840
15:23:33.144,1.080,-2.020
15:23:33.148,1.060,-2.110
15:23:33.152,0.750,-2.045
15:23:33.156,0.250,-1.820
15:23:33.160,-0.215,-1.465
15:23:33.164,-0.480,-1.135
15:23:33.168,-0.590,-0.900
15:23:33.172,-0.620,-0.730
15:23:33.176,-0.625,-0.560
15:23:33.180,-0.615,-0.390
15:23:33.184,-0.620,-0.230
15:23:33.188,-0.610,-0.150
15:23:33.192,-0.625,-0.140
15:23:33.196,-0.610,-0.100
15:23:33.200,-0.600,-0.040
15:23:33.204,-0.590,0.050
15:23:33.208,-0.570,0.065
15:23:33.212,-0.580,-0.010
15:23:33.216,-0.600,-0.085
15:23:33.220,-0.600,-0.150
15:23:33.224,-0.605,-0.140
15:23:33.228,-0.610,-0.105
15:23:33.232,-0.605,-0.130
15:23:33.236,-0.610,-0.120
15:23:33.240,-0.615,-0.120
15:23:33.244,-0.615,-0.135
15:23:33.248,-0.625,-0.140
15:23:33.252,-0.640,-0.150
15:23:33.256,-0.640,-0.150
15:23:33.260,-0.650,-0.125
15:23:33.264,-0.690,-0.100
15:23:33.268,-0.690,-0.100
15:23:33.272,-0.690,-0.080
15:23:33.276,-0.685,-0.030
15:23:33.280,-0.685,-0.060
15:23:33.284,-0.680,-0.115
15:23:33.288,-0.680,-0.155
15:23:33.292,-0.650,-0.140
15:23:33.296,-0.625,-0.140
15:23:33.300,-0.620,-0.155
15:23:33.304,-0.590,-0.120
15:23:33.308,-0.585,-0.075
15:23:33.312,-0.590,-0.070
15:23:33.316,-0.575,-0.070
15:23:33.320,-0.545,-0.090
15:23:33.324,-0.525,-0.080
15:23:33.328,-0.525,-0.080
15:23:33.332,-0.520,-0.070
15:23:33.336,-0.520,-0.105
15:23:33.340,-0.540,-0.130
15:23:33.344,-0.520,-0.150
15:23:33.348,-0.490,-0.110
15:23:33.352,-0.480,-0.140
15:23:33.356,-0.480,-0.145
15:23:33.360,-0.465,-0.150
15:23:33.364,-0.450,-0.155
15:23:33.368,-0.430,-0.180
15:23:33.372,-0.420,-0.200
15:23:33.376,-0.410,-0.205
15:23:33.380,-0.420,-0.175
15:23:33.384,-0.415,-0.165
15:23:33.388,-0.440,-0.195
15:23:33.392,-0.430,-0.285
15:23:33.396,-0.405,-0.325
15:23:33.400,-0.365,-0.340
15:23:33.404,-0.310,-0.310
15:23:33.408,-0.300,-0.260
15:23:33.412,-0.320,-0.250
15:23:33.416,-0.315,-0.250
15:23:33.420,-0.320,-0.270
15:23:33.424,-0.330,-0.245
15:23:33.428,-0.320,-0.250
15:23:33.432,-0.310,-0.250
15:23:33.436,-0.305,-0.215
15:23:33.440,-0.290,-0.235
15:23:33.444,-0.315,-0.260
15:23:33.448,-0.320,-0.330
15:23:33.452,-0.340,-0.375
15:23:33.456,-0.340,-0.380
15:23:33.460,-0.370,-0.350
15:23:33.464,-0.375,-0.320
15:23:33.468,-0.365,-0.345
15:23:33.472,-0.375,-0.350
15:23:33.476,-0.355,-0.320
15:23:33.480,-0.350,-0.295
15:23:33.484,-0.345,-0.280
15:23:33.488,-0.350,-0.320
15:23:33.492,-0.360,-0.310
15:23:33.496,-0.360,-0.350
15:23:33.500,-0.360,-0.365
15:23:33.504,-0.370,-0.315
15:23:33.508,-0.355,-0.310
15:23:33.512,-0.360,-0.280
15:23:33.516,-0.385,-0.305
15:23:33.520,-0.380,-0.315
15:23:33.524,-0.385,-0.295
15:23:33.528,-0.375,-0.265
15:23:33.532,-0.380,-0.285
15:23:33.536,-0.375,-0.290
15:23:33.540,-0.375,-0.285
15:23:33.544,-0.350,-0.260
15:23:33.548,-0.350,-0.240
15:23:33.552,-0.335,-0.260
15:23:33.556,-0.320,-0.270
15:23:33.560,-0.320,-0.240
15:23:33.564,-0.330,-0.250
15:23:33.568,-0.315,-0.270
15:23:33.572,-0.310,-0.305
15:23:33.576,-0.340,-0.300
15:23:33.580,-0.320,-0.255
15:23:33.584,-0.330,-0.260
15:23:33.588,-0.320,-0.285
15:23:33.592,-0.320,-0.285
15:23:33.596,-0.320,-0.250
15:23:33.600,-0.315,-0.225
15:23:33.604,-0.320,-0.255
15:23:33.608,-0.330,-0.270
15:23:33.612,-0.320,-0.245
15:23:33.616,-0.330,-0.250
15:23:33.620,-0.340,-0.275
15:23:33.624,-0.340,-0.340
15:23:33.628,-0.340,-0.360
15:23:33.632,-0.315,-0.350
15:23:33.636,-0.290,-0.330
15:23:33.640,-0.260,-0.350
15:23:33.644,-0.225,-0.315
15:23:33.648,-0.220,-0.285
15:23:33.652,-0.250,-0.220
15:23:33.656,-0.230,-0.155
15:23:33.660,-0.240,-0.155
15:23:33.664,-0.240,-0.235
15:23:33.668,-0.215,-0.320
15:23:33.672,-0.215,-0.395
15:23:33.676,-0.200,-0.390
15:23:33.680,-0.185,-0.385
15:23:33.684,-0.150,-0.385
15:23:33.688,-0.100,-0.405
15:23:33.692,0.010,-0.405
15:23:33.696,0.080,-0.375
15:23:33.700,0.150,-0.395
15:23:33.704,0.240,-0.425
15:23:33.708,0.290,-0.550
15:23:33.712,0.345,-0.690
15:23:33.716,0.360,-0.850
15:23:33.720,0.380,-1.020
15:23:33.724,0.430,-1.185
15:23:33.728,0.530,-1.440
15:23:33.732,0.760,-1.665
15:23:33.736,1.090,-1.925
15:23:33.740,1.345,-2.140
15:23:33.744,1.375,-2.295
15:23:33.748,1.125,-2.250
15:23:33.752,0.620,-2.005
15:23:33.756,0.130,-1.580
15:23:33.760,-0.135,-1.170
15:23:33.764,-0.270,-0.945
15:23:33.768,-0.335,-0.780
15:23:33.772,-0.385,-0.635
15:23:33.776,-0.385,-0.470
15:23:33.780,-0.400,-0.370
15:23:33.784,-0.405,-0.280
15:23:33.788,-0.405,-0.245
15:23:33.792,-0.390,-0.200
15:23:33.796,-0.420,-0.180
15:23:33.800,-0.420,-0.165
15:23:33.804,-0.445,-0.155
15:23:33.808,-0.435,-0.160
15:23:33.812,-0.450,-0.160
15:23:33.816,-0.450,-0.160
15:23:33.820,-0.490,-0.110
15:23:33.824,-0.480,-0.115
15:23:33.828,-0.515,-0.090
15:23:33.832,-0.525,-0.110
15:23:33.836,-0.535,-0.110
15:23:33.840,-0.520,-0.115
15:23:33.844,-0.540,-0.140
15:23:33.848,-0.535,-0.150
15:23:33.852,-0.515,-0.130
15:23:33.856,-0.530,-0.100
15:23:33.860,-0.525,-0.100
15:23:33.864,-0.505,-0.080
15:23:33.868,-0.490,-0.090
15:23:33.872,-0.490,-0.080
15:23:33.876,-0.470,-0.075
15:23:33.880,-0.475,-0.055
15:23:33.884,-0.480,-0.060
15:23:33.888,-0.495,-0.070
15:23:33.892,-0.510,-0.110
15:23:33.896,-0.500,-0.095
15:23:33.900,-0.490,-0.100
15:23:33.904,-0.435,-0.130
15:23:33.908,-0.405,-0.140
15:23:33.912,-0.375,-0.140
15:23:33.916,-0.340,-0.125
15:23:33.920,-0.320,-0.080
15:23:33.924,-0.310,-0.080
15:23:33.928,-0.310,-0.095
15:23:33.932,-0.295,-0.100
15:23:33.936,-0.285,-0.090
15:23:33.940,-0.285,-0.080
15:23:33.944,-0.285,-0.055
15:23:33.948,-0.325,-0.070
15:23:33.952,-0.295,-0.080
15:23:33.956,-0.270,-0.085
15:23:33.960,-0.280,-0.095
15:23:33.964,-0.270,-0.085
15:23:33.968,-0.260,-0.085
15:23:33.972,-0.250,-0.140
15:23:33.976,-0.255,-0.220
15:23:33.980,-0.235,-0.300
15:23:33.984,-0.250,-0.275
15:23:33.988,-0.230,-0.270
15:23:33.992,-0.235,-0.260
15:23:33.996,-0.220,-0.260
15:23:34.000,-0.215,-0.230
15:23:34.004,-0.240,-0.235
15:23:34.008,-0.235,-0.190
15:23:34.012,-0.260,-0.160
15:23:34.016,-0.230,-0.150
15:23:34.020,-0.240,-0.210
15:23:34.024,-0.230,-0.250
15:23:34.028,-0.230,-0.265
15:23:34.032,-0.215,-0.280
15:23:34.036,-0.220,-0.295
15:23:34.040,-0.215,-0.305
15:23:34.044,-0.230,-0.300
15:23:34.048,-0.250,-0.260
15:23:34.052,-0.235,-0.255
15:23:34.056,-0.240,-0.265
15:23:34.060,-0.260,-0.265
15:23:34.064,-0.270,-0.295
15:23:34.068,-0.285,-0.275
15:23:34.072,-0.275,-0.265
15:23:34.076,-0.290,-0.290
15:23:34.080,-0.295,-0.275
15:23:34.084,-0.275,-0.270
15:23:34.088,-0.275,-0.240
15:23:34.092,-0.250,-0.230
15:23:34.096,-0.215,-0.210
15:23:34.100,-0.170,-0.195
15:23:34.104,-0.105,-0.160
15:23:34.108,-0.045,-0.190
15:23:34.112,-0.005,-0.225
15:23:34.116,0.055,-0.285
15:23:34.120,0.095,-0.340
15:23:34.124,0.125,-0.380
15:23:34.128,0.135,-0.395
15:23:34.132,0.085,-0.515
15:23:34.136,0.065,-0.660
15:23:34.140,0.070,-0.865
15:23:34.144,0.175,-1.070
15:23:34.148,0.385,-1.315
15:23:34.152,0.665,-1.595
15:23:34.156,0.940,-1.870
15:23:34.160,1.160,-2.130
15:23:34.164,1.185,-2.270
15:23:34.168,0.975,-2.215
15:23:34.172,0.530,-2.005
15:23:34.176,0.100,-1.630
15:23:34.180,-0.215,-1.270
15:23:34.184,-0.380,-0.945
15:23:34.188,-0.430,-0.725
15:23:34.192,-0.480,-0.540
15:23:34.196,-0.475,-0.380
15:23:34.200,-0.480,-0.235
15:23:34.204,-0.475,-0.170
15:23:34.208,-0.460,-0.170
15:23:34.212,-0.450,-0.150
15:23:34.216,-0.455,-0.130
15:23:34.220,-0.470,-0.105
15:23:34.224,-0.480,-0.110
15:23:34.228,-0.480,-0.115
15:23:34.232,-0.470,-0.110
15:23:34.236,-0.460,-0.100
15:23:34.240,-0.480,-0.115
15:23:34.244,-0.465,-0.075
15:23:34.248,-0.460,-0.035
15:23:34.252,-0.450,0.000
15:23:34.256,-0.445,0.000
15:23:34.260,-0.465,-0.005
15:23:34.264,-0.480,0.000
15:23:34.268,-0.485,0.000
15:23:34.272,-0.505,0.005
15:23:34.276,-0.510,0.000
15:23:34.280,-0.490,-0.020
15:23:34.284,-0.485,0.000
15:23:34.288,-0.475,0.015
15:23:34.292,-0.475,0.045
15:23:34.296,-0.475,0.035
15:23:34.300,-0.485,0.045
15:23:34.304,-0.460,0.065
15:23:34.308,-0.450,0.035
15:23:34.312,-0.425,0.055
15:23:34.316,-0.420,0.050
15:23:34.320,-0.425,0.105
15:23:34.324,-0.440,0.125
15:23:34.328,-0.430,0.135
15:23:34.332,-0.445,0.085
15:23:34.336,-0.425,0.050
15:23:34.340,-0.405,0.035
15:23:34.344,-0.390,0.050
15:23:34.348,-0.385,0.025
15:23:34.352,-0.380,0.015
15:23:34.356,-0.355,0.010
15:23:34.360,-0.340,0.010
15:23:34.364,-0.310,-0.005
15:23:34.368,-0.285,-0.010
15:23:34.372,-0.275,-0.055
15:23:34.376,-0.270,-0.075
15:23:34.380,-0.290,-0.130
15:23:34.384,-0.300,-0.190
15:23:34.388,-0.300,-0.195
15:23:34.392,-0.305,-0.205
15:23:34.396,-0.330,-0.195
15:23:34.400,-0.330,-0.170
15:23:34.404,-0.305,-0.185
15:23:34.408,-0.335,-0.180
15:23:34.412,-0.330,-0.160
15:23:34.416,-0.320,-0.190
15:23:34.420,-0.350,-0.190
15:23:34.424,-0.345,-0.180
15:23:34.428,-0.345,-0.210
15:23:34.432,-0.340,-0.220
15:23:34.436,-0.350,-0.255
15:23:34.440,-0.360,-0.260
15:23:34.444,-0.345,-0.260
15:23:34.448,-0.375,-0.200
15:23:34.452,-0.355,-0.190
15:23:34.456,-0.355,-0.235
15:23:34.460,-0.340,-0.295
15:23:34.464,-0.345,-0.305
15:23:34.468,-0.355,-0.305
15:23:34.472,-0.385,-0.260
15:23:34.476,-0.385,-0.265
15:23:34.480,-0.380,-0.270
15:23:34.484,-0.385,-0.280
15:23:34.488,-0.390,-0.295
15:23:34.492,-0.370,-0.270
15:23:34.496,-0.400,-0.235
15:23:34.500,-0.395,-0.240
15:23:34.504,-0.410,-0.235
15:23:34.508,-0.405,-0.185
15:23:34.512,-0.420,-0.185
15:23:34.516,-0.405,-0.175
15:23:34.520,-0.420,-0.190
15:23:34.524,-0.425,-0.225
15:23:34.528,-0.435,-0.225
15:23:34.532,-0.425,-0.195
15:23:34.536,-0.460,-0.225
15:23:34.540,-0.450,-0.240
15:23:34.544,-0.450,-0.250
15:23:34.548,-0.465,-0.250
15:23:34.552,-0.455,-0.240
15:23:34.556,-0.455,-0.245
15:23:34.560,-0.470,-0.225
15:23:34.564,-0.465,-0.250
15:23:34.568,-0.470,-0.270
15:23:34.572,-0.465,-0.300
15:23:34.576,-0.460,-0.300
15:23:34.580,-0.445,-0.305
15:23:34.584,-0.430,-0.300
15:23:34.588,-0.425,-0.270
15:23:34.592,-0.430,-0.245
15:23:34.596,-0.400,-0.245
15:23:34.600,-0.380,-0.245
15:23:34.604,-0.365,-0.260
15:23:34.608,-0.360,-0.270
15:23:34.612,-0.400,-0.315
15:23:34.616,-0.415,-0.350
15:23:34.620,-0.430,-0.370
15:23:34.624,-0.445,-0.330
15:23:34.628,-0.445,-0.280
15:23:34.632,-0.455,-0.290
15:23:34.636,-0.465,-0.320
15:23:34.640,-0.495,-0.320
15:23:34.644,-0.495,-0.365
15:23:34.648,-0.490,-0.340
15:23:34.652,-0.510,-0.325
15:23:34.656,-0.495,-0.315
15:23:34.660,-0.495,-0.290
15:23:34.664,-0.485,-0.285
15:23:34.668,-0.495,-0.295
15:23:34.672,-0.480,-0.355
15:23:34.676,-0.495,-0.340
15:23:34.680,-0.505,-0.375
15:23:34.684,-0.485,-0.330
15:23:34.688,-0.480,-0.320
15:23:34.692,-0.460,-0.290
15:23:34.696,-0.420,-0.280
15:23:34.700,-0.370,-0.290
15:23:34.704,-0.280,-0.315
15:23:34.708,-0.240,-0.330
15:23:34.712,-0.165,-0.375
15:23:34.716,-0.085,-0.415
15:23:34.720,-0.005,-0.475
15:23:34.724,0.070,-0.535
15:23:34.728,0.155,-0.580
15:23:34.732,0.205,-0.670
15:23:34.736,0.245,-0.815
15:23:34.740,0.265,-0.980
15:23:34.744,0.320,-1.195
15:23:34.748,0.440,-1.390
15:23:34.752,0.720,-1.620
15:23:34.756,1.000,-1.885
15:23:34.760,1.135,-2.105
15:23:34.764,0.980,-2.155
15:23:34.768,0.530,-1.990
15:23:34.772,-0.020,-1.630
15:23:34.776,-0.410,-1.235
15:23:34.780,-0.605,-0.950
15:23:34.784,-0.675,-0.795
15:23:34.788,-0.705,-0.635
15:23:34.792,-0.685,-0.520
15:23:34.796,-0.675,-0.355
15:23:34.800,-0.670,-0.255
15:23:34.804,-0.685,-0.215
15:23:34.808,-0.670,-0.210
15:23:34.812,-0.685,-0.205
15:23:34.816,-0.650,-0.195
15:23:34.820,-0.635,-0.185
15:23:34.824,-0.630,-0.185
15:23:34.828,-0.640,-0.150
15:23:34.832,-0.655,-0.120
15:23:34.836,-0.670,-0.085
15:23:34.840,-0.670,-0.065
15:23:34.844,-0.685,-0.080
15:23:34.848,-0.680,-0.090
15:23:34.852,-0.660,-0.035
15:23:34.856,-0.670,0.000
15:23:34.860,-0.665,0.005
15:23:34.864,-0.680,-0.010
15:23:34.868,-0.680,-0.055
15:23:34.872,-0.670,-0.100
15:23:34.876,-0.685,-0.100
15:23:34.880,-0.675,-0.105
15:23:34.884,-0.675,-0.110
15:23:34.888,-0.660,-0.110
15:23:34.892,-0.685,-0.085
15:23:34.896,-0.695,-0.045
15:23:34.900,-0.665,-0.045
15:23:34.904,-0.660,-0.045
15:23:34.908,-0.650,-0.035
15:23:34.912,-0.670,-0.050
15:23:34.916,-0.690,-0.095
15:23:34.920,-0.660,-0.100
15:23:34.924,-0.660,-0.070
15:23:34.928,-0.635,-0.060
15:23:34.932,-0.635,-0.075
15:23:34.936,-0.640,-0.095
15:23:34.940,-0.630,-0.095
15:23:34.944,-0.630,-0.090
15:23:34.948,-0.620,-0.100
15:23:34.952,-0.595,-0.090
15:23:34.956,-0.555,-0.070
15:23:34.960,-0.540,-0.040
15:23:34.964,-0.510,-0.005
15:23:34.968,-0.490,-0.020
15:23:34.972,-0.500,-0.060
15:23:34.976,-0.480,-0.105
15:23:34.980,-0.490,-0.130
15:23:34.984,-0.485,-0.135
15:23:34.988,-0.485,-0.120
15:23:34.992,-0.510,-0.120
15:23:34.996,-0.515,-0.100
15:23:35.000,-0.505,-0.115
15:23:35.004,-0.510,-0.105
15:23:35.008,-0.500,-0.125
15:23:35.012,-0.475,-0.135
15:23:35.016,-0.470,-0.150
15:23:35.020,-0.455,-0.195
15:23:35.024,-0.435,-0.215
15:23:35.028,-0.395,-0.250
15:23:35.032,-0.350,-0.275
15:23:35.036,-0.320,-0.300
15:23:35.040,-0.340,-0.315
15:23:35.044,-0.370,-0.300
15:23:35.048,-0.375,-0.275
15:23:35.052,-0.395,-0.275
15:23:35.056,-0.415,-0.240
15:23:35.060,-0.455,-0.235
15:23:35.064,-0.445,-0.245
15:23:35.068,-0.440,-0.250
15:23:35.072,-0.420,-0.235
15:23:35.076,-0.440,-0.240
15:23:35.080,-0.425,-0.225
15:23:35.084,-0.440,-0.165
15:23:35.088,-0.455,-0.165
15:23:35.092,-0.475,-0.205
15:23:35.096,-0.480,-0.260
15:23:35.100,-0.480,-0.305
15:23:35.104,-0.470,-0.275
15:23:35.108,-0.470,-0.270
15:23:35.112,-0.465,-0.260
15:23:35.116,-0.490,-0.245
15:23:35.120,-0.515,-0.265
15:23:35.124,-0.505,-0.275
15:23:35.128,-0.505,-0.290
15:23:35.132,-0.515,-0.260
15:23:35.136,-0.510,-0.260
15:23:35.140,-0.515,-0.215
15:23:35.144,-0.530,-0.200
15:23:35.148,-0.505,-0.250
15:23:35.152,-0.495,-0.235
15:23:35.156,-0.530,-0.265
15:23:35.160,-0.485,-0.270
15:23:35.164,-0.485,-0.245
15:23:35.168,-0.475,-0.265
15:23:35.172,-0.465,-0.305
15:23:35.176,-0.485,-0.320
15:23:35.180,-0.490,-0.330
15:23:35.184,-0.490,-0.285
15:23:35.188,-0.490,-0.265
15:23:35.192,-0.460,-0.255
15:23:35.196,-0.455,-0.230
15:23:35.200,-0.455,-0.210
15:23:35.204,-0.435,-0.190
15:23:35.208,-0.400,-0.180
15:23:35.212,-0.360,-0.175
15:23:35.216,-0.360,-0.160
15:23:35.220,-0.345,-0.180
15:23:35.224,-0.335,-0.225
15:23:35.228,-0.340,-0.205
15:23:35.232,-0.330,-0.145
15:23:35.236,-0.295,-0.120
15:23:35.240,-0.280,-0.135
15:23:35.244,-0.275,-0.120
15:23:35.248,-0.285,-0.120
15:23:35.252,-0.255,-0.100
15:23:35.256,-0.275,-0.110
15:23:35.260,-0.285,-0.100
15:23:35.264,-0.290,-0.100
15:23:35.268,-0.320,-0.120
15:23:35.272,-0.315,-0.125
15:23:35.276,-0.305,-0.125
15:23:35.280,-0.290,-0.160
15:23:35.284,-0.330,-0.215
15:23:35.288,-0.335,-0.230
15:23:35.292,-0.340,-0.250
15:23:35.296,-0.315,-0.265
15:23:35.300,-0.360,-0.265
15:23:35.304,-0.370,-0.285
15:23:35.308,-0.395,-0.275
15:23:35.312,-0.400,-0.260
15:23:35.316,-0.380,-0.260
15:23:35.320,-0.400,-0.280
15:23:35.324,-0.400,-0.290
15:23:35.328,-0.380,-0.280
15:23:35.332,-0.380,-0.280
15:23:35.336,-0.410,-0.280
15:23:35.340,-0.395,-0.280
15:23:35.344,-0.390,-0.265
15:23:35.348,-0.380,-0.265
15:23:35.352,-0.375,-0.265
15:23:35.356,-0.385,-0.280
15:23:35.360,-0.380,-0.320
15:23:35.364,-0.380,-0.345
15:23:35.368,-0.390,-0.340
15:23:35.372,-0.380,-0.340
15:23:35.376,-0.365,-0.300
15:23:35.380,-0.375,-0.285
15:23:35.384,-0.375,-0.265
15:23:35.388,-0.355,-0.280
15:23:35.392,-0.355,-0.295
15:23:35.396,-0.345,-0.280
15:23:35.400,-0.320,-0.290
15:23:35.404,-0.315,-0.280
15:23:35.408,-0.305,-0.265
15:23:35.412,-0.290,-0.285
15:23:35.416,-0.240,-0.260
15:23:35.420,-0.200,-0.250
15:23:35.424,-0.160,-0.255
15:23:35.428,-0.100,-0.245
15:23:35.432,-0.015,-0.260
15:23:35.436,0.080,-0.280
15:23:35.440,0.170,-0.310
15:23:35.444,0.235,-0.360
15:23:35.448,0.350,-0.405
15:23:35.452,0.380,-0.510
15:23:35.456,0.400,-0.670
15:23:35.460,0.405,-0.840
15:23:35.464,0.455,-1.045
15:23:35.468,0.575,-1.315
15:23:35.472,0.830,-1.535
15:23:35.476,1.150,-1.755
15:23:35.480,1.375,-1.955
15:23:35.484,1.315,-2.030
15:23:35.488,0.980,-1.930
15:23:35.492,0.455,-1.605
15:23:35.496,0.015,-1.200
15:23:35.500,-0.225,-0.870
15:23:35.504,-0.315,-0.650
15:23:35.508,-0.340,-0.475
15:23:35.512,-0.360,-0.345
15:23:35.516,-0.390,-0.240
15:23:35.520,-0.410,-0.180
15:23:35.524,-0.460,-0.140
15:23:35.528,-0.485,-0.115
15:23:35.532,-0.480,-0.100
15:23:35.536,-0.480,-0.070
15:23:35.540,-0.505,-0.065
15:23:35.544,-0.505,-0.060
15:23:35.548,-0.520,-0.065
15:23:35.552,-0.525,-0.060
15:23:35.556,-0.505,-0.070
15:23:35.560,-0.505,-0.060
15:23:35.564,-0.495,-0.045
15:23:35.568,-0.500,-0.075
15:23:35.572,-0.505,-0.095
15:23:35.576,-0.510,-0.045
15:23:35.580,-0.510,-0.020
15:23:35.584,-0.510,0.000
15:23:35.588,-0.525,-0.010
15:23:35.592,-0.500,-0.060
15:23:35.596,-0.490,-0.085
15:23:35.600,-0.485,-0.065
15:23:35.604,-0.485,-0.035
15:23:35.608,-0.465,-0.020
15:23:35.612,-0.465,-0.010
15:23:35.616,-0.470,0.040
15:23:35.620,-0.480,0.045
15:23:35.624,-0.475,0.025
15:23:35.628,-0.470,0.030
15:23:35.632,-0.495,0.005
15:23:35.636,-0.475,0.005
15:23:35.640,-0.450,0.015
15:23:35.644,-0.430,0.025
15:23:35.648,-0.400,0.085
15:23:35.652,-0.385,0.075
15:23:35.656,-0.405,0.090
15:23:35.660,-0.415,0.080
15:23:35.664,-0.395,0.030
15:23:35.668,-0.370,0.060
15:23:35.672,-0.375,0.045
15:23:35.676,-0.355,0.085
15:23:35.680,-0.360,0.085
15:23:35.684,-0.350,0.090
15:23:35.688,-0.365,0.110
15:23:35.692,-0.375,0.100
15:23:35.696,-0.355,0.005
15:23:35.700,-0.340,-0.030
15:23:35.704,-0.350,-0.010
15:23:35.708,-0.345,0.020
15:23:35.712,-0.350,0.025
15:23:35.716,-0.370,-0.005
15:23:35.720,-0.370,-0.015
15:23:35.724,-0.370,-0.055
15:23:35.728,-0.360,-0.075
15:23:35.732,-0.330,-0.085
15:23:35.736,-0.285,-0.080
15:23:35.740,-0.305,-0.090
15:23:35.744,-0.305,-0.090
15:23:35.748,-0.300,-0.105
15:23:35.752,-0.280,-0.090
15:23:35.756,-0.275,-0.080
15:23:35.760,-0.255,-0.095
15:23:35.764,-0.265,-0.140
15:23:35.768,-0.245,-0.195
15:23:35.772,-0.250,-0.230
15:23:35.776,-0.230,-0.245
15:23:35.780,-0.235,-0.235
15:23:35.784,-0.245,-0.245
15:23:35.788,-0.225,-0.240
15:23:35.792,-0.215,-0.290
15:23:35.796,-0.220,-0.305
15:23:35.800,-0.235,-0.315
15:23:35.804,-0.235,-0.290
15:23:35.808,-0.265,-0.265
15:23:35.812,-0.280,-0.260
15:23:35.816,-0.290,-0.265
15:23:35.820,-0.315,-0.250
15:23:35.824,-0.320,-0.225
15:23:35.828,-0.320,-0.225
15:23:35.832,-0.300,-0.220
15:23:35.836,-0.315,-0.255
15:23:35.840,-0.305,-0.240
15:23:35.844,-0.310,-0.240
15:23:35.848,-0.295,-0.220
15:23:35.852,-0.280,-0.285
15:23:35.856,-0.290,-0.270
15:23:35.860,-0.270,-0.265
15:23:35.864,-0.270,-0.285
15:23:35.868,-0.290,-0.275
15:23:35.872,-0.275,-0.260
15:23:35.876,-0.265,-0.230
15:23:35.880,-0.235,-0.235
15:23:35.884,-0.215,-0.220
15:23:35.888,-0.155,-0.220
15:23:35.892,-0.095,-0.225
15:23:35.896,-0.030,-0.240
15:23:35.900,0.035,-0.275
15:23:35.904,0.080,-0.310
15:23:35.908,0.120,-0.375
15:23:35.912,0.180,-0.460
15:23:35.916,0.200,-0.550
15:23:35.920,0.215,-0.665
15:23:35.924,0.215,-0.805
15:23:35.928,0.280,-1.030
15:23:35.932,0.435,-1.265
15:23:35.936,0.715,-1.535
15:23:35.940,1.030,-1.810
15:23:35.944,1.225,-2.000
15:23:35.948,1.185,-2.090
15:23:35.952,0.805,-2.010
15:23:35.956,0.255,-1.760
15:23:35.960,-0.145,-1.365
15:23:35.964,-0.360,-0.980
15:23:35.968,-0.460,-0.775
15:23:35.972,-0.500,-0.620
15:23:35.976,-0.515,-0.475
15:23:35.980,-0.505,-0.345
15:23:35.984,-0.515,-0.190
15:23:35.988,-0.510,-0.120
15:23:35.992,-0.500,-0.105
15:23:35.996,-0.510,-0.120
15:23:36.000,-0.495,-0.125
15:23:36.004,-0.480,-0.095
15:23:36.008,-0.480,-0.095
15:23:36.012,-0.495,-0.080
15:23:36.016,-0.510,-0.070
15:23:36.020,-0.510,-0.095
15:23:36.024,-0.525,-0.090
15:23:36.028,-0.550,-0.070
15:23:36.032,-0.545,-0.045
15:23:36.036,-0.565,-0.025
15:23:36.040,-0.565,-0.010
15:23:36.044,-0.565,-0.025
15:23:36.048,-0.575,-0.030
15:23:36.052,-0.560,-0.085
15:23:36.056,-0.575,-0.080
15:23:36.060,-0.585,-0.065
15:23:36.064,-0.585,-0.030
15:23:36.068,-0.600,-0.005
15:23:36.072,-0.570,0.010
15:23:36.076,-0.565,0.025
15:23:36.080,-0.590,0.045
15:23:36.084,-0.595,0.055
15:23:36.088,-0.555,0.025
15:23:36.092,-0.515,0.000
15:23:36.096,-0.500,0.015
15:23:36.100,-0.505,0.020
15:23:36.104,-0.505,0.005
15:23:36.108,-0.485,0.015
15:23:36.112,-0.465,0.040
15:23:36.116,-0.455,0.085
15:23:36.120,-0.435,0.105
15:23:36.124,-0.440,0.095
15:23:36.128,-0.450,0.070
15:23:36.132,-0.440,0.075
15:23:36.136,-0.440,0.065
15:23:36.140,-0.425,0.045
15:23:36.144,-0.430,0.035
15:23:36.148,-0.405,0.025
15:23:36.152,-0.400,0.025
15:23:36.156,-0.380,0.010
15:23:36.160,-0.350,-0.010
15:23:36.164,-0.350,-0.070
15:23:36.168,-0.310,-0.095
15:23:36.172,-0.340,-0.075
15:23:36.176,-0.335,-0.085
15:23:36.180,-0.320,-0.120
15:23:36.184,-0.315,-0.175
15:23:36.188,-0.315,-0.175
15:23:36.192,-0.315,-0.180
15:23:36.196,-0.300,-0.215
15:23:36.200,-0.350,-0.200
15:23:36.204,-0.345,-0.195
15:23:36.208,-0.335,-0.195
15:23:36.212,-0.330,-0.215
15:23:36.216,-0.350,-0.215
15:23:36.220,-0.365,-0.195
15:23:36.224,-0.385,-0.155
15:23:36.228,-0.360,-0.110
15:23:36.232,-0.350,-0.160
15:23:36.236,-0.340,-0.145
15:23:36.240,-0.375,-0.130
15:23:36.244,-0.385,-0.085
15:23:36.248,-0.380,-0.080
15:23:36.252,-0.380,-0.150
15:23:36.256,-0.390,-0.160
15:23:36.260,-0.395,-0.200
15:23:36.264,-0.395,-0.260
15:23:36.268,-0.430,-0.275
15:23:36.272,-0.425,-0.235
15:23:36.276,-0.430,-0.210
15:23:36.280,-0.420,-0.205
15:23:36.284,-0.430,-0.255
15:23:36.288,-0.440,-0.270
15:23:36.292,-0.445,-0.245
15:23:36.296,-0.440,-0.210
15:23:36.300,-0.440,-0.210
15:23:36.304,-0.440,-0.170
15:23:36.308,-0.430,-0.120
15:23:36.312,-0.425,-0.120
15:23:36.316,-0.395,-0.160
15:23:36.320,-0.415,-0.210
15:23:36.324,-0.400,-0.235
15:23:36.328,-0.415,-0.220
15:23:36.332,-0.430,-0.195
15:23:36.336,-0.450,-0.195
15:23:36.340,-0.440,-0.205
15:23:36.344,-0.425,-0.160
15:23:36.348,-0.410,-0.170
15:23:36.352,-0.405,-0.160
15:23:36.356,-0.405,-0.190
15:23:36.360,-0.405,-0.210
15:23:36.364,-0.400,-0.210
15:23:36.368,-0.405,-0.220
15:23:36.372,-0.420,-0.215
15:23:36.376,-0.430,-0.210
15:23:36.380,-0.390,-0.205
15:23:36.384,-0.370,-0.180
15:23:36.388,-0.390,-0.195
15:23:36.392,-0.400,-0.205
15:23:36.396,-0.395,-0.240
15:23:36.400,-0.370,-0.295
15:23:36.404,-0.400,-0.290
15:23:36.408,-0.405,-0.290
15:23:36.412,-0.425,-0.255
15:23:36.416,-0.400,-0.280
15:23:36.420,-0.400,-0.250
15:23:36.424,-0.425,-0.245
15:23:36.428,-0.425,-0.225
15:23:36.432,-0.450,-0.210
15:23:36.436,-0.470,-0.185
15:23:36.440,-0.505,-0.270
15:23:36.444,-0.530,-0.325
15:23:36.448,-0.505,-0.300
15:23:36.452,-0.455,-0.240
15:23:36.456,-0.470,-0.210
15:23:36.460,-0.460,-0.225
15:23:36.464,-0.460,-0.245
15:23:36.468,-0.450,-0.275
15:23:36.472,-0.445,-0.280
15:23:36.476,-0.445,-0.280
15:23:36.480,-0.445,-0.270
15:23:36.484,-0.440,-0.240
15:23:36.488,-0.420,-0.215
15:23:36.492,-0.420,-0.250
15:23:36.496,-0.420,-0.280
15:23:36.500,-0.430,-0.295
15:23:36.504,-0.435,-0.255
15:23:36.508,-0.410,-0.255
15:23:36.512,-0.380,-0.235
15:23:36.516,-0.290,-0.205
15:23:36.520,-0.215,-0.195
15:23:36.524,-0.130,-0.220
15:23:36.528,-0.025,-0.300
15:23:36.532,0.045,-0.430
15:23:36.536,0.150,-0.490
15:23:36.540,0.235,-0.550
15:23:36.544,0.275,-0.620
15:23:36.548,0.325,-0.740
15:23:36.552,0.380,-0.880
15:23:36.556,0.365,-1.085
15:23:36.560,0.470,-1.280
15:23:36.564,0.725,-1.520
15:23:36.568,1.005,-1.780
15:23:36.572,1.190,-1.975
15:23:36.576,1.140,-2.075
15:23:36.580,0.755,-1.980
15:23:36.584,0.185,-1.635
15:23:36.588,-0.235,-1.150
15:23:36.592,-0.445,-0.835
15:23:36.596,-0.510,-0.680
15:23:36.600,-0.575,-0.585
15:23:36.604,-0.585,-0.420
15:23:36.608,-0.560,-0.265
15:23:36.612,-0.565,-0.160
15:23:36.616,-0.575,-0.155
15:23:36.620,-0.565,-0.160
15:23:36.624,-0.565,-0.135
15:23:36.628,-0.585,-0.110
15:23:36.632,-0.615,-0.050
15:23:36.636,-0.645,-0.050
15:23:36.640,-0.630,-0.100
15:23:36.644,-0.665,-0.150
15:23:36.648,-0.640,-0.150
15:23:36.652,-0.620,-0.080
15:23:36.656,-0.630,-0.055
15:23:36.660,-0.655,-0.105
15:23:36.664,-0.685,-0.120
15:23:36.668,-0.695,-0.130
15:23:36.672,-0.695,-0.125
15:23:36.676,-0.725,-0.085
15:23:36.680,-0.705,-0.070
15:23:36.684,-0.700,-0.080
15:23:36.688,-0.710,-0.140
15:23:36.692,-0.720,-0.115
15:23:36.696,-0.720,-0.065
15:23:36.700,-0.710,-0.005
15:23:36.704,-0.700,0.010
15:23:36.708,-0.700,-0.050
15:23:36.712,-0.675,-0.100
15:23:36.716,-0.685,-0.120
15:23:36.720,-0.665,-0.095
15:23:36.724,-0.680,-0.055
15:23:36.728,-0.655,0.000
15:23:36.732,-0.660,0.025
15:23:36.736,-0.650,0.000
15:23:36.740,-0.640,-0.055
15:23:36.744,-0.610,-0.060
15:23:36.748,-0.605,-0.075
15:23:36.752,-0.590,-0.020
15:23:36.756,-0.580,-0.040
15:23:36.760,-0.585,-0.035
15:23:36.764,-0.575,-0.030
15:23:36.768,-0.575,0.015
15:23:36.772,-0.545,0.015
15:23:36.776,-0.545,-0.005
15:23:36.780,-0.520,-0.035
15:23:36.784,-0.520,-0.095
15:23:36.788,-0.510,-0.110
15:23:36.792,-0.520,-0.105
15:23:36.796,-0.510,-0.105
15:23:36.800,-0.520,-0.150
15:23:36.804,-0.505,-0.180
15:23:36.808,-0.520,-0.150
15:23:36.812,-0.505,-0.160
15:23:36.816,-0.470,-0.150
15:23:36.820,-0.455,-0.145
15:23:36.824,-0.475,-0.150
15:23:36.828,-0.475,-0.200
15:23:36.832,-0.465,-0.180
15:23:36.836,-0.455,-0.180
15:23:36.840,-0.415,-0.190
15:23:36.844,-0.405,-0.215
15:23:36.848,-0.425,-0.240
15:23:36.852,-0.410,-0.235
15:23:36.856,-0.415,-0.215
15:23:36.860,-0.400,-0.195
15:23:36.864,-0.400,-0.180
15:23:36.868,-0.360,-0.150
15:23:36.872,-0.325,-0.140
15:23:36.876,-0.330,-0.140
15:23:36.880,-0.300,-0.195
15:23:36.884,-0.325,-0.270
15:23:36.888,-0.350,-0.290
15:23:36.892,-0.380,-0.265
15:23:36.896,-0.385,-0.215
15:23:36.900,-0.375,-0.215
15:23:36.904,-0.375,-0.225
15:23:36.908,-0.365,-0.210
15:23:36.912,-0.370,-0.220
15:23:36.916,-0.370,-0.235
15:23:36.920,-0.350,-0.255
15:23:36.924,-0.325,-0.230
15:23:36.928,-0.340,-0.195
15:23:36.932,-0.320,-0.180
15:23:36.936,-0.330,-0.175
15:23:36.940,-0.335,-0.155
15:23:36.944,-0.350,-0.180
15:23:36.948,-0.330,-0.185
15:23:36.952,-0.350,-0.160
15:23:36.956,-0.335,-0.185
15:23:36.960,-0.335,-0.200
15:23:36.964,-0.335,-0.230
15:23:36.968,-0.330,-0.255
15:23:36.972,-0.295,-0.265
15:23:36.976,-0.270,-0.240
15:23:36.980,-0.245,-0.225
15:23:36.984,-0.170,-0.240
15:23:36.988,-0.080,-0.270
15:23:36.992,0.000,-0.315
15:23:36.996,0.085,-0.320
15:23:37.000,0.140,-0.345
15:23:37.004,0.205,-0.435
15:23:37.008,0.240,-0.570
15:23:37.012,0.260,-0.730
15:23:37.016,0.270,-0.880
15:23:37.020,0.320,-1.045
15:23:37.024,0.400,-1.250
15:23:37.028,0.590,-1.455
15:23:37.032,0.920,-1.700
15:23:37.036,1.180,-1.935
15:23:37.040,1.260,-2.095
15:23:37.044,1.085,-2.120
15:23:37.048,0.630,-1.940
15:23:37.052,0.130,-1.530
15:23:37.056,-0.165,-1.095
15:23:37.060,-0.300,-0.835
15:23:37.064,-0.370,-0.645
15:23:37.068,-0.395,-0.550
15:23:37.072,-0.405,-0.420
15:23:37.076,-0.400,-0.275
15:23:37.080,-0.415,-0.160
15:23:37.084,-0.430,-0.090
15:23:37.088,-0.450,-0.050
15:23:37.092,-0.475,-0.020
15:23:37.096,-0.490,-0.020
15:23:37.100,-0.495,-0.060
15:23:37.104,-0.505,-0.040
15:23:37.108,-0.500,0.005
15:23:37.112,-0.480,0.000
15:23:37.116,-0.495,-0.010
15:23:37.120,-0.460,-0.055
15:23:37.124,-0.455,-0.080
15:23:37.128,-0.485,-0.095
15:23:37.132,-0.495,-0.085
15:23:37.136,-0.450,-0.045
15:23:37.140,-0.450,-0.030
15:23:37.144,-0.470,-0.020
15:23:37.148,-0.485,-0.030
15:23:37.152,-0.465,-0.010
15:23:37.156,-0.465,-0.015
15:23:37.160,-0.440,0.010
15:23:37.164,-0.440,0.045
15:23:37.168,-0.435,0.045
15:23:37.172,-0.435,0.060
15:23:37.176,-0.455,0.040
15:23:37.180,-0.445,0.050
15:23:37.184,-0.450,0.065
15:23:37.188,-0.420,0.035
15:23:37.192,-0.420,0.035
15:23:37.196,-0.425,0.060
15:23:37.200,-0.420,0.065
15:23:37.204,-0.405,0.015
15:23:37.208,-0.390,0.020
15:23:37.212,-0.400,0.025
15:23:37.216,-0.385,0.035
15:23:37.220,-0.410,0.035
15:23:37.224,-0.390,0.050
15:23:37.228,-0.380,0.040
15:23:37.232,-0.380,0.050
15:23:37.236,-0.395,0.030
15:23:37.240,-0.380,0.030
15:23:37.244,-0.385,0.055
15:23:37.248,-0.385,0.040
15:23:37.252,-0.340,0.025
15:23:37.256,-0.325,-0.030
15:23:37.260,-0.325,-0.080
15:23:37.264,-0.305,-0.130
15:23:37.268,-0.290,-0.130
15:23:37.272,-0.265,-0.115
15:23:37.276,-0.240,-0.100
15:23:37.280,-0.235,-0.100
15:23:37.284,-0.225,-0.110
15:23:37.288,-0.210,-0.115
15:23:37.292,-0.225,-0.110
15:23:37.296,-0.210,-0.115
15:23:37.300,-0.185,-0.120
15:23:37.304,-0.190,-0.135
15:23:37.308,-0.180,-0.130
15:23:37.312,-0.180,-0.125
15:23:37.316,-0.200,-0.150
15:23:37.320,-0.175,-0.170
15:23:37.324,-0.175,-0.175
15:23:37.328,-0.185,-0.175
15:23:37.332,-0.195,-0.125
15:23:37.336,-0.210,-0.160
15:23:37.340,-0.225,-0.200
15:23:37.344,-0.255,-0.185
15:23:37.348,-0.260,-0.175
15:23:37.352,-0.245,-0.150
15:23:37.356,-0.240,-0.160
15:23:37.360,-0.260,-0.160
15:23:37.364,-0.260,-0.190
15:23:37.368,-0.240,-0.200
15:23:37.372,-0.245,-0.170
15:23:37.376,-0.260,-0.130
15:23:37.380,-0.240,-0.140
15:23:37.384,-0.260,-0.145
15:23:37.388,-0.270,-0.160
15:23:37.392,-0.285,-0.100
15:23:37.396,-0.285,-0.080
15:23:37.400,-0.295,-0.075
15:23:37.404,-0.290,-0.120
15:23:37.408,-0.305,-0.140
15:23:37.412,-0.290,-0.160
15:23:37.416,-0.310,-0.140
15:23:37.420,-0.275,-0.170
15:23:37.424,-0.275,-0.150
15:23:37.428,-0.265,-0.145
15:23:37.432,-0.290,-0.160
15:23:37.436,-0.285,-0.150
15:23:37.440,-0.285,-0.120
15:23:37.444,-0.305,-0.120
15:23:37.448,-0.290,-0.110
15:23:37.452,-0.280,-0.130
15:23:37.456,-0.280,-0.180
15:23:37.460,-0.280,-0.180
15:23:37.464,-0.295,-0.145
15:23:37.468,-0.285,-0.145
15:23:37.472,-0.295,-0.120
15:23:37.476,-0.300,-0.135
15:23:37.480,-0.295,-0.160
15:23:37.484,-0.290,-0.185
15:23:37.488,-0.285,-0.190
15:23:37.492,-0.260,-0.190
15:23:37.496,-0.275,-0.180
15:23:37.500,-0.265,-0.150
15:23:37.504,-0.260,-0.165
15:23:37.508,-0.250,-0.165
15:23:37.512,-0.250,-0.150
15:23:37.516,-0.250,-0.145
15:23:37.520,-0.240,-0.145
15:23:37.524,-0.235,-0.150
15:23:37.528,-0.215,-0.150
15:23:37.532,-0.200,-0.140
15:23:37.536,-0.195,-0.155
15:23:37.540,-0.185,-0.135
15:23:37.544,-0.185,-0.140
15:23:37.548,-0.190,-0.165
15:23:37.552,-0.175,-0.175
15:23:37.556,-0.205,-0.160
15:23:37.560,-0.215,-0.155
15:23:37.564,-0.225,-0.155
15:23:37.568,-0.260,-0.135
15:23:37.572,-0.235,-0.120
15:23:37.576,-0.265,-0.145
15:23:37.580,-0.305,-0.120
15:23:37.584,-0.330,-0.120
15:23:37.588,-0.315,-0.160
15:23:37.592,-0.305,-0.200
15:23:37.596,-0.280,-0.195
15:23:37.600,-0.290,-0.190
15:23:37.604,-0.295,-0.180
15:23:37.608,-0.315,-0.215
15:23:37.612,-0.315,-0.230
15:23:37.616,-0.310,-0.205
15:23:37.620,-0.330,-0.190
15:23:37.624,-0.320,-0.155
15:23:37.628,-0.300,-0.195
15:23:37.632,-0.315,-0.220
15:23:37.636,-0.285,-0.220
15:23:37.640,-0.300,-0.230
15:23:37.644,-0.300,-0.200
15:23:37.648,-0.310,-0.190
15:23:37.652,-0.315,-0.185
15:23:37.656,-0.320,-0.160
15:23:37.660,-0.310,-0.165
15:23:37.664,-0.335,-0.195
15:23:37.668,-0.345,-0.180
15:23:37.672,-0.335,-0.195
15:23:37.676,-0.320,-0.230
15:23:37.680,-0.325,-0.210
15:23:37.684,-0.320,-0.190
15:23:37.688,-0.320,-0.180
15:23:37.692,-0.325,-0.195
15:23:37.696,-0.340,-0.200
15:23:37.700,-0.320,-0.195
15:23:37.704,-0.325,-0.205
15:23:37.708,-0.340,-0.205
15:23:37.712,-0.335,-0.215
15:23:37.716,-0.340,-0.235
15:23:37.720,-0.350,-0.260
15:23:37.724,-0.345,-0.265
15:23:37.728,-0.310,-0.250
15:23:37.732,-0.320,-0.240
15:23:37.736,-0.335,-0.225
15:23:37.740,-0.335,-0.235
15:23:37.744,-0.325,-0.230
15:23:37.748,-0.305,-0.205
15:23:37.752,-0.300,-0.205
15:23:37.756,-0.310,-0.200
15:23:37.760,-0.310,-0.155
15:23:37.764,-0.305,-0.135
15:23:37.768,-0.300,-0.180
15:23:37.772,-0.305,-0.165
15:23:37.776,-0.300,-0.165
15:23:37.780,-0.285,-0.160
15:23:37.784,-0.270,-0.175
15:23:37.788,-0.215,-0.185
15:23:37.792,-0.105,-0.180
15:23:37.796,-0.050,-0.180
15:23:37.800,0.030,-0.230
15:23:37.804,0.100,-0.330
15:23:37.808,0.125,-0.420
15:23:37.812,0.165,-0.510
15:23:37.816,0.155,-0.620
15:23:37.820,0.135,-0.705
15:23:37.824,0.130,-0.925
15:23:37.828,0.180,-1.155
15:23:37.832,0.260,-1.415
15:23:37.836,0.460,-1.630
15:23:37.840,0.730,-1.895
15:23:37.844,0.965,-2.130
15:23:37.848,1.030,-2.275
15:23:37.852,0.795,-2.190
15:23:37.856,0.305,-1.910
15:23:37.860,-0.200,-1.475
15:23:37.864,-0.500,-1.060
15:23:37.868,-0.615,-0.770
15:23:37.872,-0.630,-0.530
15:23:37.876,-0.640,-0.355
15:23:37.880,-0.630,-0.250
15:23:37.884,-0.630,-0.245
15:23:37.888,-0.630,-0.210
15:23:37.892,-0.625,-0.130
15:23:37.896,-0.615,-0.050
15:23:37.900,-0.625,-0.020
15:23:37.904,-0.650,-0.020
15:23:37.908,-0.655,-0.045
15:23:37.912,-0.660,-0.035
15:23:37.916,-0.655,0.000
15:23:37.920,-0.670,0.005
15:23:37.924,-0.680,0.005
15:23:37.928,-0.665,0.015
15:23:37.932,-0.650,-0.015
15:23:37.936,-0.650,-0.035
15:23:37.940,-0.650,-0.035
15:23:37.944,-0.650,-0.025
15:23:37.948,-0.635,-0.015
15:23:37.952,-0.600,-0.010
15:23:37.956,-0.610,-0.010
15:23:37.960,-0.625,0.015
15:23:37.964,-0.625,0.030
15:23:37.968,-0.650,0.035
15:23:37.972,-0.665,-0.020
15:23:37.976,-0.660,-0.060
15:23:37.980,-0.650,-0.040
15:23:37.984,-0.605,0.000
15:23:37.988,-0.575,0.055
15:23:37.992,-0.580,0.120
15:23:37.996,-0.530,0.095
15:23:38.000,-0.545,0.035
15:23:38.004,-0.540,0.000
15:23:38.008,-0.560,0.010
15:23:38.012,-0.550,0.015
15:23:38.016,-0.520,0.045
15:23:38.020,-0.495,0.010
15:23:38.024,-0.480,0.015
15:23:38.028,-0.480,0.005
15:23:38.032,-0.485,-0.045
15:23:38.036,-0.500,-0.055
15:23:38.040,-0.515,-0.040
15:23:38.044,-0.515,-0.040
15:23:38.048,-0.500,0.000
15:23:38.052,-0.510,0.000
15:23:38.056,-0.520,0.020
15:23:38.060,-0.495,0.005
15:23:38.064,-0.485,-0.010
15:23:38.068,-0.500,-0.025
15:23:38.072,-0.510,-0.015
15:23:38.076,-0.525,-0.020
15:23:38.080,-0.550,-0.050
15:23:38.084,-0.530,-0.070
15:23:38.088,-0.530,-0.070
