Time,ECG1,ECG2
09:09:53.392,-0.33,0.14
09:09:53.396,-0.33,0.135
09:09:53.400,-0.345,0.11
09:09:53.404,-0.41,0.24
09:09:53.408,-0.45,0.325
09:09:53.412,-0.435,0.325
09:09:53.416,-0.48,0.22
09:09:53.420,-0.52,0.205
09:09:53.424,-0.515,0.23
09:09:53.428,-0.5,0.16
09:09:53.432,-0.5,0.075
09:09:53.436,-0.52,0.13
09:09:53.440,-0.53,0.18
09:09:53.444,-0.555,0.19
09:09:53.448,-0.59,0.115
09:09:53.452,-0.615,0.08
09:09:53.456,-0.64,0.065
09:09:53.460,-0.65,0.035
09:09:53.464,-0.64,0.03
09:09:53.468,-0.59,0.04
09:09:53.472,-0.585,0.065
09:09:53.476,-0.535,0.055
09:09:53.480,-0.52,0.06
09:09:53.484,-0.485,0.025
09:09:53.488,-0.405,0.045
09:09:53.492,-0.395,0.08
09:09:53.496,-0.31,0.07
09:09:53.500,-0.3,0.055
09:09:53.504,-0.29,0.105
09:09:53.508,-0.3,0.14
09:09:53.512,-0.24,0.2
09:09:53.516,-0.245,0.155
09:09:53.520,-0.265,0.16
09:09:53.524,-0.235,0.28
09:09:53.528,-0.225,0.4
09:09:53.532,-0.235,0.32
09:09:53.536,-0.26,0.135
09:09:53.540,-0.25,0.16
09:09:53.544,-0.28,0.175
09:09:53.548,-0.315,0.26
09:09:53.552,-0.31,0.295
09:09:53.556,-0.335,0.375
09:09:53.560,-0.335,0.33
09:09:53.564,-0.32,0.26
09:09:53.568,-0.32,0.28
09:09:53.572,-0.3,0.225
09:09:53.576,-0.25,0.26
09:09:53.580,-0.26,0.26
09:09:53.584,-0.245,0.29
09:09:53.588,-0.22,0.315
09:09:53.592,-0.2,0.235
09:09:53.596,-0.22,0.205
09:09:53.600,-0.225,0.255
09:09:53.604,-0.21,0.26
09:09:53.608,-0.18,0.265
09:09:53.612,-0.18,0.355
09:09:53.616,-0.205,0.38
09:09:53.620,-0.21,0.45
09:09:53.624,-0.19,0.42
09:09:53.628,-0.205,0.295
09:09:53.632,-0.22,0.3
09:09:53.636,-0.25,0.405
09:09:53.640,-0.24,0.35
09:09:53.644,-0.23,0.2
09:09:53.648,-0.285,0.27
09:09:53.652,-0.34,0.42
09:09:53.656,-0.37,0.38
09:09:53.660,-0.38,0.135
09:09:53.664,-0.385,0.095
09:09:53.668,-0.36,0.12
09:09:53.672,-0.34,0.18
09:09:53.676,-0.345,0.23
09:09:53.680,-0.32,0.23
09:09:53.684,-0.3,0.245
09:09:53.688,-0.23,0.305
09:09:53.692,-0.005,0.27
09:09:53.696,0.365,0.17
09:09:53.700,0.635,0.015
09:09:53.704,0.78,-0.24
09:09:53.708,0.775,-0.7
09:09:53.712,0.38,-1.055
09:09:53.716,-0.67,-1.395
09:09:53.720,-1.61,-1.625
09:09:53.724,-2.025,-1.885
09:09:53.728,-2.035,-2.095
09:09:53.732,-1.85,-2.12
09:09:53.736,-1.535,-1.91
09:09:53.740,-1.15,-1.49
09:09:53.744,-0.905,-1.03
09:09:53.748,-0.765,-0.62
09:09:53.752,-0.635,-0.36
09:09:53.756,-0.59,-0.22
09:09:53.760,-0.54,-0.1
09:09:53.764,-0.53,0.035
09:09:53.768,-0.525,0.06
09:09:53.772,-0.495,0.085
09:09:53.776,-0.47,0.17
09:09:53.780,-0.455,0.165
09:09:53.784,-0.43,0.17
09:09:53.788,-0.36,0.195
09:09:53.792,-0.37,0.235
09:09:53.796,-0.36,0.295
09:09:53.800,-0.335,0.16
09:09:53.804,-0.32,0.17
09:09:53.808,-0.32,0.275
09:09:53.812,-0.335,0.4
09:09:53.816,-0.32,0.335
09:09:53.820,-0.34,0.185
09:09:53.824,-0.38,0.3
09:09:53.828,-0.415,0.42
09:09:53.832,-0.47,0.44
09:09:53.836,-0.5,0.37
09:09:53.840,-0.535,0.285
09:09:53.844,-0.585,0.265
09:09:53.848,-0.615,0.365
09:09:53.852,-0.625,0.37
09:09:53.856,-0.685,0.185
09:09:53.860,-0.71,0.15
09:09:53.864,-0.72,0.225
09:09:53.868,-0.745,0.25
09:09:53.872,-0.76,0.235
09:09:53.876,-0.79,0.215
09:09:53.880,-0.815,0.19
09:09:53.884,-0.855,0.205
09:09:53.888,-0.87,0.175
09:09:53.892,-0.89,0.21
09:09:53.896,-0.875,0.29
09:09:53.900,-0.875,0.175
09:09:53.904,-0.875,0.1
09:09:53.908,-0.87,0.105
09:09:53.912,-0.825,0.2
09:09:53.916,-0.775,0.245
09:09:53.920,-0.745,0.245
09:09:53.924,-0.75,0.19
09:09:53.928,-0.7,0.1
09:09:53.932,-0.655,0.15
09:09:53.936,-0.605,0.22
09:09:53.940,-0.555,0.275
09:09:53.944,-0.495,0.28
09:09:53.948,-0.44,0.315
09:09:53.952,-0.425,0.395
09:09:53.956,-0.38,0.36
09:09:53.960,-0.365,0.225
09:09:53.964,-0.285,0.25
09:09:53.968,-0.24,0.34
09:09:53.972,-0.26,0.44
09:09:53.976,-0.25,0.3
09:09:53.980,-0.23,0.235
09:09:53.984,-0.205,0.29
09:09:53.988,-0.19,0.34
09:09:53.992,-0.225,0.405
09:09:53.996,-0.19,0.46
09:09:54.000,-0.175,0.325
09:09:54.004,-0.16,0.265
09:09:54.008,-0.12,0.315
09:09:54.012,-0.1,0.385
09:09:54.016,-0.07,0.41
09:09:54.020,-0.02,0.445
09:09:54.024,-0.02,0.4
09:09:54.028,-0.04,0.43
09:09:54.032,-0.045,0.44
09:09:54.036,-0.05,0.395
09:09:54.040,-0.055,0.42
09:09:54.044,-0.075,0.505
09:09:54.048,-0.09,0.52
09:09:54.052,-0.07,0.45
09:09:54.056,-0.065,0.45
09:09:54.060,-0.07,0.46
09:09:54.064,-0.12,0.52
09:09:54.068,-0.165,0.48
09:09:54.072,-0.2,0.415
09:09:54.076,-0.225,0.44
09:09:54.080,-0.285,0.42
09:09:54.084,-0.32,0.36
09:09:54.088,-0.32,0.175
09:09:54.092,-0.34,0.15
09:09:54.096,-0.315,0.275
09:09:54.100,-0.315,0.285
09:09:54.104,-0.32,0.285
09:09:54.108,-0.34,0.25
09:09:54.112,-0.33,0.22
09:09:54.116,-0.36,0.215
09:09:54.120,-0.375,0.215
09:09:54.124,-0.4,0.225
09:09:54.128,-0.38,0.23
09:09:54.132,-0.4,0.18
09:09:54.136,-0.37,0.185
09:09:54.140,-0.4,0.22
09:09:54.144,-0.4,0.22
09:09:54.148,-0.38,0.26
09:09:54.152,-0.38,0.24
09:09:54.156,-0.37,0.19
09:09:54.160,-0.38,0.17
09:09:54.164,-0.4,0.22
09:09:54.168,-0.405,0.245
09:09:54.172,-0.4,0.185
09:09:54.176,-0.395,0.115
09:09:54.180,-0.41,0.19
09:09:54.184,-0.385,0.225
09:09:54.188,-0.375,0.135
09:09:54.192,-0.32,0.105
09:09:54.196,-0.25,0.275
09:09:54.200,-0.17,0.36
09:09:54.204,0.02,0.275
09:09:54.208,0.335,0.2
09:09:54.212,0.71,0.25
09:09:54.216,0.945,0.27
09:09:54.220,1.09,0.13
09:09:54.224,1.065,-0.41
09:09:54.228,0.445,-1.005
09:09:54.232,-0.73,-1.39
09:09:54.236,-1.55,-1.635
09:09:54.240,-1.79,-1.75
09:09:54.244,-1.73,-1.905
09:09:54.248,-1.56,-1.905
09:09:54.252,-1.275,-1.635
09:09:54.256,-0.935,-1.2
09:09:54.260,-0.71,-0.875
09:09:54.264,-0.605,-0.575
09:09:54.268,-0.545,-0.28
09:09:54.272,-0.505,-0.045
09:09:54.276,-0.505,0.05
09:09:54.280,-0.48,0.175
09:09:54.284,-0.495,0.13
09:09:54.288,-0.49,0.1
09:09:54.292,-0.475,0.135
09:09:54.296,-0.505,0.135
09:09:54.300,-0.505,0.125
09:09:54.304,-0.515,0.155
09:09:54.308,-0.545,0.15
09:09:54.312,-0.575,0.17
09:09:54.316,-0.61,0.22
09:09:54.320,-0.64,0.14
09:09:54.324,-0.69,0.01
09:09:54.328,-0.68,0.135
09:09:54.332,-0.68,0.135
09:09:54.336,-0.685,-0.12
09:09:54.340,-0.69,-0.06
09:09:54.344,-0.685,0.005
09:09:54.348,-0.71,0.04
09:09:54.352,-0.735,0.1
09:09:54.356,-0.745,0.105
09:09:54.360,-0.77,0
09:09:54.364,-0.785,0.02
09:09:54.368,-0.805,0.07
09:09:54.372,-0.855,0.09
09:09:54.376,-0.875,0.07
09:09:54.380,-0.89,0.04
09:09:54.384,-0.94,0.035
09:09:54.388,-0.915,0
09:09:54.392,-0.9,-0.04
09:09:54.396,-0.895,-0.01
09:09:54.400,-0.905,0.015
09:09:54.404,-0.91,0.095
09:09:54.408,-0.92,0.095
09:09:54.412,-0.92,-0.02
09:09:54.416,-0.89,-0.035
09:09:54.420,-0.86,0.03
09:09:54.424,-0.835,0.12
09:09:54.428,-0.765,0.145
09:09:54.432,-0.72,0.14
09:09:54.436,-0.66,0
09:09:54.440,-0.63,-0.015
09:09:54.444,-0.585,0.04
09:09:54.448,-0.55,0.08
09:09:54.452,-0.54,0.09
09:09:54.456,-0.525,0.165
09:09:54.460,-0.5,0.125
09:09:54.464,-0.475,0.15
09:09:54.468,-0.42,0.175
09:09:54.472,-0.37,0.205
09:09:54.476,-0.375,0.25
09:09:54.480,-0.305,0.26
09:09:54.484,-0.21,0.215
09:09:54.488,-0.185,0.225
09:09:54.492,-0.16,0.22
09:09:54.496,-0.14,0.25
09:09:54.500,-0.16,0.23
09:09:54.504,-0.16,0.24
09:09:54.508,-0.2,0.275
09:09:54.512,-0.195,0.285
09:09:54.516,-0.16,0.225
09:09:54.520,-0.17,0.265
09:09:54.524,-0.215,0.28
09:09:54.528,-0.25,0.31
09:09:54.532,-0.235,0.255
09:09:54.536,-0.21,0.29
09:09:54.540,-0.24,0.33
09:09:54.544,-0.28,0.275
09:09:54.548,-0.28,0.225
09:09:54.552,-0.3,0.215
09:09:54.556,-0.315,0.27
09:09:54.560,-0.335,0.29
09:09:54.564,-0.4,0.185
09:09:54.568,-0.39,0.31
09:09:54.572,-0.42,0.17
09:09:54.576,-0.41,0
09:09:54.580,-0.43,0.105
09:09:54.584,-0.42,0.16
09:09:54.588,-0.415,0.2
09:09:54.592,-0.395,0.145
09:09:54.596,-0.395,0.1
09:09:54.600,-0.42,0.125
09:09:54.604,-0.395,0.155
09:09:54.608,-0.405,0.17
09:09:54.612,-0.395,0.195
09:09:54.616,-0.38,0.24
09:09:54.620,-0.34,0.17
09:09:54.624,-0.325,0.135
09:09:54.628,-0.27,0.13
09:09:54.632,-0.235,0.12
09:09:54.636,-0.215,0.2
09:09:54.640,-0.185,0.225
09:09:54.644,-0.195,0.265
09:09:54.648,-0.22,0.29
09:09:54.652,-0.23,0.155
09:09:54.656,-0.22,0.075
09:09:54.660,-0.26,0.1
09:09:54.664,-0.24,0.2
09:09:54.668,-0.28,0.265
09:09:54.672,-0.26,0.295
09:09:54.676,-0.22,0.27
09:09:54.680,-0.175,0.285
09:09:54.684,-0.06,0.325
09:09:54.688,0.225,0.235
09:09:54.692,0.595,0.22
09:09:54.696,0.84,0.045
09:09:54.700,0.94,-0.26
09:09:54.704,0.87,-0.635
09:09:54.708,0.195,-1.14
09:09:54.712,-0.945,-1.46
09:09:54.716,-1.815,-1.745
09:09:54.720,-2.16,-2.005
09:09:54.724,-2.05,-2.23
09:09:54.728,-1.83,-2.195
09:09:54.732,-1.5,-1.9
09:09:54.736,-1.09,-1.585
09:09:54.740,-0.83,-1.17
09:09:54.744,-0.72,-0.77
09:09:54.748,-0.64,-0.5
09:09:54.752,-0.605,-0.24
09:09:54.756,-0.57,-0.12
09:09:54.760,-0.58,-0.09
09:09:54.764,-0.58,-0.04
09:09:54.768,-0.59,0.08
09:09:54.772,-0.575,0.125
09:09:54.776,-0.58,0.01
09:09:54.780,-0.555,0.005
09:09:54.784,-0.54,0.005
09:09:54.788,-0.55,0.025
09:09:54.792,-0.58,0.06
09:09:54.796,-0.615,0.08
09:09:54.800,-0.64,0.16
09:09:54.804,-0.625,0.125
09:09:54.808,-0.625,0.06
09:09:54.812,-0.66,0.065
09:09:54.816,-0.665,0.07
09:09:54.820,-0.655,0.105
09:09:54.824,-0.615,0.035
09:09:54.828,-0.56,0.02
09:09:54.832,-0.54,0.07
09:09:54.836,-0.53,0.11
09:09:54.840,-0.505,0.235
09:09:54.844,-0.51,0.275
09:09:54.848,-0.51,0.15
09:09:54.852,-0.565,0.1
09:09:54.856,-0.565,0.155
09:09:54.860,-0.59,0.255
09:09:54.864,-0.625,0.29
09:09:54.868,-0.635,0.19
09:09:54.872,-0.635,0.165
09:09:54.876,-0.66,0.185
09:09:54.880,-0.7,0.2
09:09:54.884,-0.755,0.325
09:09:54.888,-0.765,0.3
09:09:54.892,-0.81,0.15
09:09:54.896,-0.81,0.14
09:09:54.900,-0.835,0.115
09:09:54.904,-0.82,0.165
09:09:54.908,-0.78,0.145
09:09:54.912,-0.76,0.03
09:09:54.916,-0.735,-0.02
09:09:54.920,-0.665,0.105
09:09:54.924,-0.63,0.075
09:09:54.928,-0.6,0.11
09:09:54.932,-0.56,0.135
09:09:54.936,-0.5,0.115
09:09:54.940,-0.465,0.14
09:09:54.944,-0.42,0.195
09:09:54.948,-0.37,0.195
09:09:54.952,-0.345,0.27
09:09:54.956,-0.35,0.205
09:09:54.960,-0.31,0.075
09:09:54.964,-0.23,0.14
09:09:54.968,-0.215,0.225
09:09:54.972,-0.21,0.255
09:09:54.976,-0.2,0.245
09:09:54.980,-0.19,0.23
09:09:54.984,-0.2,0.19
09:09:54.988,-0.215,0.255
09:09:54.992,-0.235,0.27
09:09:54.996,-0.26,0.25
09:09:55.000,-0.285,0.345
09:09:55.004,-0.27,0.345
09:09:55.008,-0.285,0.24
09:09:55.012,-0.295,0.245
09:09:55.016,-0.31,0.275
09:09:55.020,-0.31,0.265
09:09:55.024,-0.32,0.335
09:09:55.028,-0.33,0.265
09:09:55.032,-0.32,0.3
09:09:55.036,-0.315,0.285
09:09:55.040,-0.285,0.13
09:09:55.044,-0.25,0.115
09:09:55.048,-0.23,0.195
09:09:55.052,-0.225,0.25
09:09:55.056,-0.185,0.275
09:09:55.060,-0.12,0.155
09:09:55.064,-0.105,0.16
09:09:55.068,-0.1,0.255
09:09:55.072,-0.09,0.28
09:09:55.076,-0.115,0.295
09:09:55.080,-0.145,0.2
09:09:55.084,-0.21,0.215
09:09:55.088,-0.22,0.325
09:09:55.092,-0.24,0.335
09:09:55.096,-0.265,0.315
09:09:55.100,-0.31,0.365
09:09:55.104,-0.29,0.305
09:09:55.108,-0.285,0.17
09:09:55.112,-0.235,0.2
09:09:55.116,-0.21,0.155
09:09:55.120,-0.195,0.185
09:09:55.124,-0.125,0.315
09:09:55.128,-0.115,0.335
09:09:55.132,-0.035,0.275
09:09:55.136,0.155,0.27
09:09:55.140,0.43,0.105
09:09:55.144,0.67,0.005
09:09:55.148,0.755,-0.08
09:09:55.152,0.73,-0.455
09:09:55.156,0.285,-0.93
09:09:55.160,-0.775,-1.34
09:09:55.164,-1.71,-1.625
09:09:55.168,-2.175,-1.76
09:09:55.172,-2.115,-1.94
09:09:55.176,-1.89,-2.075
09:09:55.180,-1.6,-1.945
09:09:55.184,-1.21,-1.62
09:09:55.188,-0.945,-1.205
09:09:55.192,-0.765,-0.765
09:09:55.196,-0.635,-0.385
09:09:55.200,-0.535,-0.19
09:09:55.204,-0.485,-0.235
09:09:55.208,-0.48,-0.115
09:09:55.212,-0.47,0.065
09:09:55.216,-0.47,0.155
09:09:55.220,-0.45,0.225
09:09:55.224,-0.465,0.13
09:09:55.228,-0.475,0.14
09:09:55.232,-0.475,0.25
09:09:55.236,-0.46,0.23
09:09:55.240,-0.475,0.12
09:09:55.244,-0.45,0.145
09:09:55.248,-0.475,0.165
09:09:55.252,-0.465,0.15
09:09:55.256,-0.445,0.25
09:09:55.260,-0.4,0.255
09:09:55.264,-0.32,0.24
09:09:55.268,-0.31,0.16
09:09:55.272,-0.255,0.155
09:09:55.276,-0.27,0.25
09:09:55.280,-0.32,0.285
09:09:55.284,-0.36,0.31
09:09:55.288,-0.375,0.395
09:09:55.292,-0.355,0.37
09:09:55.296,-0.375,0.27
09:09:55.300,-0.42,0.405
09:09:55.304,-0.435,0.54
09:09:55.308,-0.475,0.365
09:09:55.312,-0.535,0.14
09:09:55.316,-0.545,0.205
09:09:55.320,-0.59,0.27
09:09:55.324,-0.63,0.3
09:09:55.328,-0.675,0.24
09:09:55.332,-0.705,0.165
09:09:55.336,-0.7,0.105
09:09:55.340,-0.75,0.155
09:09:55.344,-0.795,0.26
09:09:55.348,-0.76,0.215
09:09:55.352,-0.765,0
09:09:55.356,-0.755,0.005
09:09:55.360,-0.695,0.105
09:09:55.364,-0.66,0.12
09:09:55.368,-0.64,0.06
09:09:55.372,-0.605,0.105
09:09:55.376,-0.565,0.13
09:09:55.380,-0.55,0.225
09:09:55.384,-0.52,0.16
09:09:55.388,-0.445,0.01
09:09:55.392,-0.425,0.035
09:09:55.396,-0.385,0.155
09:09:55.400,-0.365,0.23
09:09:55.404,-0.29,0.16
09:09:55.408,-0.215,0.04
09:09:55.412,-0.195,0.095
09:09:55.416,-0.23,0.145
09:09:55.420,-0.2,0.235
09:09:55.424,-0.225,0.24
09:09:55.428,-0.225,0.225
09:09:55.432,-0.23,0.23
09:09:55.436,-0.225,0.2
09:09:55.440,-0.24,0.185
09:09:55.444,-0.26,0.25
09:09:55.448,-0.26,0.33
09:09:55.452,-0.25,0.305
09:09:55.456,-0.22,0.215
09:09:55.460,-0.21,0.215
09:09:55.464,-0.125,0.22
09:09:55.468,-0.14,0.255
09:09:55.472,-0.145,0.29
09:09:55.476,-0.12,0.31
09:09:55.480,-0.125,0.395
09:09:55.484,-0.1,0.43
09:09:55.488,-0.02,0.275
09:09:55.492,0.085,0.21
09:09:55.496,0.185,0.31
09:09:55.500,0.295,0.415
09:09:55.504,0.495,0.515
09:09:55.508,0.785,0.395
09:09:55.512,1.06,0.2
09:09:55.516,1.185,0.275
09:09:55.520,1.32,0.02
09:09:55.524,1.28,-0.675
09:09:55.528,0.575,-1.145
09:09:55.532,-0.705,-1.33
09:09:55.536,-1.605,-1.565
09:09:55.540,-1.795,-1.94
09:09:55.544,-1.69,-2.135
09:09:55.548,-1.535,-1.99
09:09:55.552,-1.205,-1.695
09:09:55.556,-0.825,-1.38
09:09:55.560,-0.625,-0.995
09:09:55.564,-0.545,-0.565
09:09:55.568,-0.495,-0.265
09:09:55.572,-0.44,-0.05
09:09:55.576,-0.43,0
09:09:55.580,-0.45,-0.04
09:09:55.584,-0.46,0.075
09:09:55.588,-0.42,0.165
09:09:55.592,-0.455,0.13
09:09:55.596,-0.465,0.19
09:09:55.600,-0.435,0.115
09:09:55.604,-0.405,0.125
09:09:55.608,-0.425,0.235
09:09:55.612,-0.435,0.13
09:09:55.616,-0.46,0.075
09:09:55.620,-0.48,0.085
09:09:55.624,-0.52,0.18
09:09:55.628,-0.535,0.275
09:09:55.632,-0.525,0.26
09:09:55.636,-0.55,0.14
09:09:55.640,-0.56,0.105
09:09:55.644,-0.545,0.18
09:09:55.648,-0.51,0.235
09:09:55.652,-0.51,0.315
09:09:55.656,-0.48,0.305
09:09:55.660,-0.48,0.17
09:09:55.664,-0.52,0.18
09:09:55.668,-0.535,0.2
09:09:55.672,-0.535,0.2
09:09:55.676,-0.55,0.29
09:09:55.680,-0.56,0.33
09:09:55.684,-0.56,0.345
09:09:55.688,-0.545,0.305
09:09:55.692,-0.545,0.285
09:09:55.696,-0.535,0.245
09:09:55.700,-0.51,0.33
09:09:55.704,-0.475,0.32
09:09:55.708,-0.49,0.32
09:09:55.712,-0.48,0.48
09:09:55.716,-0.54,0.415
09:09:55.720,-0.59,0.19
09:09:55.724,-0.585,0.345
09:09:55.728,-0.605,0.35
09:09:55.732,-0.59,0.285
09:09:55.736,-0.56,0.3
09:09:55.740,-0.57,0.315
09:09:55.744,-0.545,0.345
09:09:55.748,-0.46,0.21
09:09:55.752,-0.39,0.195
09:09:55.756,-0.34,0.26
09:09:55.760,-0.36,0.335
09:09:55.764,-0.34,0.28
09:09:55.768,-0.315,0.245
09:09:55.772,-0.3,0.3
09:09:55.776,-0.31,0.325
09:09:55.780,-0.26,0.335
09:09:55.784,-0.21,0.275
09:09:55.788,-0.235,0.145
09:09:55.792,-0.26,0.22
09:09:55.796,-0.26,0.29
09:09:55.800,-0.235,0.295
09:09:55.804,-0.225,0.22
09:09:55.808,-0.195,0.23
09:09:55.812,-0.205,0.28
09:09:55.816,-0.2,0.275
09:09:55.820,-0.135,0.31
09:09:55.824,-0.095,0.27
09:09:55.828,0.04,0.245
09:09:55.832,0.21,0.235
09:09:55.836,0.485,0.135
09:09:55.840,0.75,0
09:09:55.844,0.955,-0.26
09:09:55.848,0.915,-0.73
09:09:55.852,0.195,-1.3
09:09:55.856,-0.9,-1.55
09:09:55.860,-1.44,-1.71
09:09:55.864,-1.455,-1.88
09:09:55.868,-1.27,-1.935
09:09:55.872,-0.995,-1.86
09:09:55.876,-0.665,-1.52
09:09:55.880,-0.41,-1.04
09:09:55.884,-0.29,-0.575
09:09:55.888,-0.235,-0.21
09:09:55.892,-0.175,-0.01
09:09:55.896,-0.12,0.205
09:09:55.900,-0.155,0.365
09:09:55.904,-0.195,0.505
09:09:55.908,-0.265,0.47
09:09:55.912,-0.275,0.31
09:09:55.916,-0.3,0.27
09:09:55.920,-0.325,0.425
09:09:55.924,-0.38,0.46
09:09:55.928,-0.41,0.35
09:09:55.932,-0.41,0.135
09:09:55.936,-0.405,0.15
09:09:55.940,-0.39,0.285
09:09:55.944,-0.385,0.28
09:09:55.948,-0.4,0.315
09:09:55.952,-0.43,0.285
09:09:55.956,-0.45,0.225
09:09:55.960,-0.46,0.28
09:09:55.964,-0.475,0.38
09:09:55.968,-0.535,0.405
09:09:55.972,-0.56,0.31
09:09:55.976,-0.56,0.345
09:09:55.980,-0.54,0.31
09:09:55.984,-0.57,0.28
09:09:55.988,-0.57,0.38
09:09:55.992,-0.56,0.315
09:09:55.996,-0.55,0.31
09:09:56.000,-0.565,0.315
09:09:56.004,-0.585,0.38
09:09:56.008,-0.62,0.335
09:09:56.012,-0.645,0.335
09:09:56.016,-0.64,0.41
09:09:56.020,-0.65,0.295
09:09:56.024,-0.64,0.265
09:09:56.028,-0.61,0.315
09:09:56.032,-0.585,0.305
09:09:56.036,-0.585,0.33
09:09:56.040,-0.595,0.375
09:09:56.044,-0.55,0.405
09:09:56.048,-0.52,0.46
09:09:56.052,-0.44,0.44
09:09:56.056,-0.385,0.435
09:09:56.060,-0.375,0.535
09:09:56.064,-0.355,0.59
09:09:56.068,-0.29,0.445
09:09:56.072,-0.21,0.405
09:09:56.076,-0.155,0.44
09:09:56.080,-0.11,0.45
09:09:56.084,-0.1,0.465
09:09:56.088,-0.05,0.47
09:09:56.092,-0.035,0.465
09:09:56.096,-0.02,0.51
09:09:56.100,0,0.53
09:09:56.104,0.015,0.6
09:09:56.108,-0.015,0.52
09:09:56.112,-0.06,0.465
09:09:56.116,-0.08,0.43
09:09:56.120,-0.125,0.43
09:09:56.124,-0.15,0.355
09:09:56.128,-0.15,0.32
09:09:56.132,-0.145,0.34
09:09:56.136,-0.13,0.335
09:09:56.140,-0.165,0.36
09:09:56.144,-0.17,0.35
09:09:56.148,-0.215,0.32
09:09:56.152,-0.215,0.31
09:09:56.156,-0.25,0.265
09:09:56.160,-0.26,0.28
09:09:56.164,-0.295,0.255
09:09:56.168,-0.295,0.21
09:09:56.172,-0.335,0.14
09:09:56.176,-0.335,0.165
09:09:56.180,-0.33,0.205
09:09:56.184,-0.34,0.23
09:09:56.188,-0.345,0.25
09:09:56.192,-0.35,0.235
09:09:56.196,-0.34,0.22
09:09:56.200,-0.335,0.19
09:09:56.204,-0.38,0.165
09:09:56.208,-0.4,0.16
09:09:56.212,-0.425,0.15
09:09:56.216,-0.405,0.17
09:09:56.220,-0.41,0.17
09:09:56.224,-0.405,0.315
09:09:56.228,-0.35,0.305
09:09:56.232,-0.325,0.06
09:09:56.236,-0.32,0.055
09:09:56.240,-0.3,0.16
09:09:56.244,-0.265,0.17
09:09:56.248,-0.255,0.225
09:09:56.252,-0.275,0.275
09:09:56.256,-0.25,0.145
09:09:56.260,-0.255,0.165
09:09:56.264,-0.22,0.21
09:09:56.268,-0.19,0.2
09:09:56.272,-0.17,0.185
09:09:56.276,-0.16,0.24
09:09:56.280,-0.07,0.315
09:09:56.284,-0.02,0.34
09:09:56.288,0.135,0.49
09:09:56.292,0.42,0.345
09:09:56.296,0.79,0.18
09:09:56.300,0.97,0.235
09:09:56.304,1.055,0.165
09:09:56.308,0.965,-0.125
09:09:56.312,0.35,-0.48
09:09:56.316,-0.71,-0.7
09:09:56.320,-1.52,-0.97
09:09:56.324,-1.845,-1.315
09:09:56.328,-1.77,-1.54
09:09:56.332,-1.66,-1.565
09:09:56.336,-1.48,-1.54
09:09:56.340,-1.16,-1.36
09:09:56.344,-0.865,-1.055
09:09:56.348,-0.69,-0.74
09:09:56.352,-0.595,-0.51
09:09:56.356,-0.55,-0.32
09:09:56.360,-0.49,-0.105
09:09:56.364,-0.49,0
09:09:56.368,-0.46,0.075
09:09:56.372,-0.455,0.095
09:09:56.376,-0.465,0.155
09:09:56.380,-0.455,0.16
09:09:56.384,-0.47,0.15
09:09:56.388,-0.48,0.155
09:09:56.392,-0.48,0.075
09:09:56.396,-0.52,0.115
09:09:56.400,-0.565,0.195
09:09:56.404,-0.555,0.06
09:09:56.408,-0.595,0
09:09:56.412,-0.59,0.055
09:09:56.416,-0.62,0.12
09:09:56.420,-0.635,0.145
09:09:56.424,-0.63,0.17
09:09:56.428,-0.625,0.175
09:09:56.432,-0.64,0.11
09:09:56.436,-0.62,0.145
09:09:56.440,-0.61,0.155
09:09:56.444,-0.62,0.165
09:09:56.448,-0.63,0.14
09:09:56.452,-0.625,0.11
09:09:56.456,-0.62,0.15
09:09:56.460,-0.595,0.145
09:09:56.464,-0.6,0.15
09:09:56.468,-0.575,0.2
09:09:56.472,-0.6,0.225
09:09:56.476,-0.62,0.24
09:09:56.480,-0.65,0.275
09:09:56.484,-0.67,0.335
09:09:56.488,-0.675,0.33
09:09:56.492,-0.66,0.18
09:09:56.496,-0.7,0.17
09:09:56.500,-0.69,0.15
09:09:56.504,-0.71,0.25
09:09:56.508,-0.695,0.335
09:09:56.512,-0.7,0.26
09:09:56.516,-0.685,0.235
09:09:56.520,-0.65,0.26
09:09:56.524,-0.63,0.315
09:09:56.528,-0.6,0.15
09:09:56.532,-0.54,0.115
09:09:56.536,-0.52,0.24
09:09:56.540,-0.505,0.335
09:09:56.544,-0.47,0.31
09:09:56.548,-0.41,0.19
09:09:56.552,-0.37,0.175
09:09:56.556,-0.35,0.225
09:09:56.560,-0.32,0.2
09:09:56.564,-0.275,0.23
09:09:56.568,-0.225,0.24
09:09:56.572,-0.195,0.32
09:09:56.576,-0.2,0.395
09:09:56.580,-0.195,0.29
09:09:56.584,-0.18,0.245
09:09:56.588,-0.2,0.215
09:09:56.592,-0.23,0.2
09:09:56.596,-0.2,0.24
09:09:56.600,-0.195,0.275
09:09:56.604,-0.24,0.345
09:09:56.608,-0.245,0.355
09:09:56.612,-0.19,0.305
09:09:56.616,-0.18,0.27
09:09:56.620,-0.175,0.28
09:09:56.624,-0.22,0.335
09:09:56.628,-0.24,0.345
09:09:56.632,-0.25,0.365
09:09:56.636,-0.25,0.33
09:09:56.640,-0.22,0.235
09:09:56.644,-0.22,0.325
09:09:56.648,-0.19,0.35
09:09:56.652,-0.185,0.305
09:09:56.656,-0.135,0.26
09:09:56.660,-0.12,0.28
09:09:56.664,-0.075,0.38
09:09:56.668,-0.06,0.365
09:09:56.672,-0.08,0.32
09:09:56.676,-0.07,0.295
09:09:56.680,-0.06,0.28
09:09:56.684,0.01,0.325
09:09:56.688,0.11,0.355
09:09:56.692,0.27,0.425
09:09:56.696,0.48,0.44
09:09:56.700,0.605,0.38
09:09:56.704,0.755,0.34
09:09:56.708,0.87,0.07
09:09:56.712,0.935,-0.635
09:09:56.716,0.485,-1.295
09:09:56.720,-0.505,-1.65
09:09:56.724,-1.45,-1.875
09:09:56.728,-1.985,-2.08
09:09:56.732,-1.98,-2.195
09:09:56.736,-1.66,-2.25
09:09:56.740,-1.23,-2.07
09:09:56.744,-0.895,-1.61
09:09:56.748,-0.685,-1.065
09:09:56.752,-0.59,-0.59
09:09:56.756,-0.5,-0.34
09:09:56.760,-0.415,-0.17
09:09:56.764,-0.425,0
09:09:56.768,-0.42,0.155
09:09:56.772,-0.45,0.2
09:09:56.776,-0.465,0.17
09:09:56.780,-0.475,0.23
09:09:56.784,-0.48,0.225
09:09:56.788,-0.535,0.175
09:09:56.792,-0.515,0.205
09:09:56.796,-0.505,0.125
09:09:56.800,-0.505,0.065
09:09:56.804,-0.53,0.155
09:09:56.808,-0.525,0.21
09:09:56.812,-0.575,0.29
09:09:56.816,-0.545,0.24
09:09:56.820,-0.54,0.175
09:09:56.824,-0.58,0.225
09:09:56.828,-0.59,0.29
09:09:56.832,-0.59,0.195
09:09:56.836,-0.605,0.125
09:09:56.840,-0.575,0.21
09:09:56.844,-0.56,0.24
09:09:56.848,-0.555,0.245
09:09:56.852,-0.555,0.25
09:09:56.856,-0.53,0.32
09:09:56.860,-0.54,0.315
09:09:56.864,-0.535,0.3
09:09:56.868,-0.54,0.345
09:09:56.872,-0.545,0.35
09:09:56.876,-0.565,0.275
09:09:56.880,-0.59,0.28
09:09:56.884,-0.645,0.315
09:09:56.888,-0.71,0.325
09:09:56.892,-0.71,0.315
09:09:56.896,-0.68,0.305
09:09:56.900,-0.7,0.335
09:09:56.904,-0.75,0.41
09:09:56.908,-0.73,0.435
09:09:56.912,-0.705,0.245
09:09:56.916,-0.66,0.225
09:09:56.920,-0.65,0.34
09:09:56.924,-0.635,0.37
09:09:56.928,-0.585,0.405
09:09:56.932,-0.54,0.48
09:09:56.936,-0.525,0.545
09:09:56.940,-0.47,0.45
09:09:56.944,-0.385,0.205
09:09:56.948,-0.34,0.245
09:09:56.952,-0.305,0.365
09:09:56.956,-0.26,0.37
09:09:56.960,-0.225,0.37
09:09:56.964,-0.205,0.345
09:09:56.968,-0.2,0.31
09:09:56.972,-0.23,0.37
09:09:56.976,-0.22,0.42
09:09:56.980,-0.225,0.205
09:09:56.984,-0.255,0.2
09:09:56.988,-0.27,0.255
09:09:56.992,-0.275,0.27
09:09:56.996,-0.25,0.3
09:09:57.000,-0.27,0.25
09:09:57.004,-0.26,0.225
09:09:57.008,-0.28,0.225
09:09:57.012,-0.29,0.225
09:09:57.016,-0.27,0.225
09:09:57.020,-0.275,0.25
09:09:57.024,-0.32,0.25
09:09:57.028,-0.31,0.265
09:09:57.032,-0.265,0.26
09:09:57.036,-0.265,0.215
09:09:57.040,-0.25,0.26
09:09:57.044,-0.24,0.3
09:09:57.048,-0.22,0.29
09:09:57.052,-0.235,0.305
09:09:57.056,-0.23,0.32
09:09:57.060,-0.205,0.225
09:09:57.064,-0.16,0.225
09:09:57.068,-0.13,0.215
09:09:57.072,-0.13,0.21
09:09:57.076,-0.11,0.28
09:09:57.080,-0.005,0.36
09:09:57.084,0.085,0.375
09:09:57.088,0.215,0.305
09:09:57.092,0.455,0.275
09:09:57.096,0.78,0.29
09:09:57.100,1.015,0.23
09:09:57.104,1.095,0.175
09:09:57.108,1.1,-0.125
09:09:57.112,0.58,-0.66
09:09:57.116,-0.55,-1.235
09:09:57.120,-1.56,-1.56
09:09:57.124,-1.91,-1.735
09:09:57.128,-1.85,-1.905
09:09:57.132,-1.625,-1.94
09:09:57.136,-1.27,-1.9
09:09:57.140,-0.915,-1.645
09:09:57.144,-0.65,-1.175
09:09:57.148,-0.545,-0.7
09:09:57.152,-0.47,-0.295
09:09:57.156,-0.395,-0.235
09:09:57.160,-0.4,-0.18
09:09:57.164,-0.435,0
09:09:57.168,-0.45,0.105
09:09:57.172,-0.46,0.205
09:09:57.176,-0.48,0.235
09:09:57.180,-0.445,0.165
09:09:57.184,-0.465,0.05
09:09:57.188,-0.45,0.135
09:09:57.192,-0.445,0.215
09:09:57.196,-0.425,0.145
09:09:57.200,-0.425,0.195
09:09:57.204,-0.435,0.285
09:09:57.208,-0.485,0.15
09:09:57.212,-0.49,0.105
09:09:57.216,-0.5,0.25
09:09:57.220,-0.525,0.195
09:09:57.224,-0.53,0.14
09:09:57.228,-0.525,0.12
09:09:57.232,-0.505,0.05
09:09:57.236,-0.51,0.105
09:09:57.240,-0.53,0.165
09:09:57.244,-0.53,0.215
09:09:57.248,-0.49,0.28
09:09:57.252,-0.515,0.23
09:09:57.256,-0.525,0.21
09:09:57.260,-0.545,0.27
09:09:57.264,-0.585,0.285
09:09:57.268,-0.585,0.275
09:09:57.272,-0.61,0.22
09:09:57.276,-0.615,0.19
09:09:57.280,-0.605,0.22
09:09:57.284,-0.61,0.275
09:09:57.288,-0.63,0.33
09:09:57.292,-0.63,0.36
09:09:57.296,-0.65,0.35
09:09:57.300,-0.655,0.36
09:09:57.304,-0.655,0.335
09:09:57.308,-0.65,0.255
09:09:57.312,-0.655,0.24
09:09:57.316,-0.62,0.35
09:09:57.320,-0.59,0.305
09:09:57.324,-0.55,0.405
09:09:57.328,-0.45,0.44
09:09:57.332,-0.38,0.315
09:09:57.336,-0.32,0.355
09:09:57.340,-0.26,0.41
09:09:57.344,-0.24,0.295
09:09:57.348,-0.195,0.375
09:09:57.352,-0.15,0.305
09:09:57.356,-0.155,0.295
09:09:57.360,-0.155,0.365
09:09:57.364,-0.14,0.385
09:09:57.368,-0.135,0.36
09:09:57.372,-0.125,0.33
09:09:57.376,-0.14,0.36
09:09:57.380,-0.135,0.435
09:09:57.384,-0.095,0.405
09:09:57.388,-0.095,0.315
09:09:57.392,-0.13,0.325
09:09:57.396,-0.145,0.325
09:09:57.400,-0.16,0.31
09:09:57.404,-0.205,0.28
09:09:57.408,-0.225,0.315
09:09:57.412,-0.215,0.355
09:09:57.416,-0.19,0.31
09:09:57.420,-0.235,0.345
09:09:57.424,-0.245,0.44
09:09:57.428,-0.23,0.47
09:09:57.432,-0.21,0.28
09:09:57.436,-0.2,0.16
09:09:57.440,-0.195,0.245
09:09:57.444,-0.2,0.22
09:09:57.448,-0.21,0.21
09:09:57.452,-0.225,0.25
09:09:57.456,-0.215,0.265
09:09:57.460,-0.215,0.245
09:09:57.464,-0.24,0.235
09:09:57.468,-0.235,0.225
09:09:57.472,-0.26,0.205
09:09:57.476,-0.25,0.23
09:09:57.480,-0.25,0.27
09:09:57.484,-0.265,0.305
09:09:57.488,-0.285,0.285
09:09:57.492,-0.3,0.215
09:09:57.496,-0.305,0.215
09:09:57.500,-0.34,0.25
09:09:57.504,-0.375,0.28
09:09:57.508,-0.345,0.245
09:09:57.512,-0.33,0.155
09:09:57.516,-0.315,0.135
09:09:57.520,-0.34,0.23
09:09:57.524,-0.345,0.335
09:09:57.528,-0.345,0.32
09:09:57.532,-0.33,0.185
09:09:57.536,-0.3,0.16
09:09:57.540,-0.28,0.205
09:09:57.544,-0.305,0.225
09:09:57.548,-0.345,0.22
09:09:57.552,-0.35,0.23
09:09:57.556,-0.35,0.175
09:09:57.560,-0.37,0.12
09:09:57.564,-0.365,0.155
09:09:57.568,-0.355,0.2
09:09:57.572,-0.33,0.125
09:09:57.576,-0.315,0.11
09:09:57.580,-0.295,0.15
09:09:57.584,-0.225,0.21
09:09:57.588,-0.16,0.29
09:09:57.592,-0.04,0.19
09:09:57.596,0.205,0.08
09:09:57.600,0.595,0.06
09:09:57.604,0.89,0.04
09:09:57.608,1.025,-0.045
09:09:57.612,1.1,-0.4
09:09:57.616,0.8,-0.855
09:09:57.620,-0.17,-1.23
09:09:57.624,-1.22,-1.51
09:09:57.628,-1.76,-1.775
09:09:57.632,-1.825,-1.99
09:09:57.636,-1.69,-2.16
09:09:57.640,-1.455,-2.13
09:09:57.644,-1.14,-1.805
09:09:57.648,-0.85,-1.28
09:09:57.652,-0.68,-0.92
09:09:57.656,-0.585,-0.685
09:09:57.660,-0.52,-0.39
09:09:57.664,-0.495,-0.14
09:09:57.668,-0.48,-0.08
09:09:57.672,-0.505,0.03
09:09:57.676,-0.47,0.07
09:09:57.680,-0.475,0.1
09:09:57.684,-0.5,0.125
09:09:57.688,-0.51,0.235
09:09:57.692,-0.515,0.16
09:09:57.696,-0.55,0.09
09:09:57.700,-0.575,0.155
09:09:57.704,-0.555,0.19
09:09:57.708,-0.575,0.105
09:09:57.712,-0.61,0.055
09:09:57.716,-0.635,0.16
09:09:57.720,-0.625,0.11
09:09:57.724,-0.625,0.09
09:09:57.728,-0.625,0.125
09:09:57.732,-0.635,0.215
09:09:57.736,-0.67,0.205
09:09:57.740,-0.69,0.22
09:09:57.744,-0.725,0.195
09:09:57.748,-0.76,0.165
09:09:57.752,-0.775,0.125
09:09:57.756,-0.78,0.14
09:09:57.760,-0.785,0.18
09:09:57.764,-0.775,0.115
09:09:57.768,-0.755,0.03
09:09:57.772,-0.75,0.125
09:09:57.776,-0.795,0.215
09:09:57.780,-0.82,0.225
09:09:57.784,-0.84,0.06
09:09:57.788,-0.845,0.005
09:09:57.792,-0.84,0.03
09:09:57.796,-0.84,0.08
09:09:57.800,-0.845,0.12
09:09:57.804,-0.82,0.135
09:09:57.808,-0.795,0.125
09:09:57.812,-0.805,0.16
09:09:57.816,-0.77,0.265
09:09:57.820,-0.72,0.28
09:09:57.824,-0.7,-0.03
09:09:57.828,-0.695,-0.025
09:09:57.832,-0.735,0.185
09:09:57.836,-0.705,0.315
09:09:57.840,-0.64,0.18
09:09:57.844,-0.6,0
09:09:57.848,-0.55,0.05
09:09:57.852,-0.525,0.185
09:09:57.856,-0.5,0.21
09:09:57.860,-0.44,0.25
09:09:57.864,-0.395,0.215
09:09:57.868,-0.32,0.21
09:09:57.872,-0.28,0.25
09:09:57.876,-0.255,0.315
09:09:57.880,-0.26,0.375
09:09:57.884,-0.215,0.375
09:09:57.888,-0.225,0.235
09:09:57.892,-0.205,0.18
09:09:57.896,-0.2,0.16
09:09:57.900,-0.22,0.24
09:09:57.904,-0.235,0.305
09:09:57.908,-0.23,0.395
09:09:57.912,-0.21,0.42
09:09:57.916,-0.205,0.235
09:09:57.920,-0.205,0.235
09:09:57.924,-0.2,0.33
09:09:57.928,-0.22,0.335
09:09:57.932,-0.265,0.45
09:09:57.936,-0.26,0.49
09:09:57.940,-0.26,0.265
09:09:57.944,-0.27,0.155
09:09:57.948,-0.26,0.285
09:09:57.952,-0.275,0.37
09:09:57.956,-0.24,0.435
09:09:57.960,-0.16,0.255
09:09:57.964,-0.02,0.22
09:09:57.968,0.2,0.37
09:09:57.972,0.47,0.455
09:09:57.976,0.68,0.315
09:09:57.980,0.835,0.18
09:09:57.984,1.125,-0.005
09:09:57.988,1.345,-0.34
09:09:57.992,1.49,-1.055
09:09:57.996,1.215,-1.7
09:09:58.000,0.275,-2.02
09:09:58.004,-0.85,-2.165
09:09:58.008,-1.305,-2.31
09:09:58.012,-1.17,-2.44
09:09:58.016,-0.875,-2.475
09:09:58.020,-0.655,-2.16
09:09:58.024,-0.495,-1.585
09:09:58.028,-0.425,-0.975
09:09:58.032,-0.385,-0.525
09:09:58.036,-0.37,-0.375
09:09:58.040,-0.355,-0.155
09:09:58.044,-0.375,0.045
09:09:58.048,-0.36,0.14
09:09:58.052,-0.415,0.175
09:09:58.056,-0.425,0.205
09:09:58.060,-0.44,0.185
09:09:58.064,-0.445,0.125
09:09:58.068,-0.485,0.11
09:09:58.072,-0.49,0.22
09:09:58.076,-0.505,0.37
09:09:58.080,-0.52,0.35
09:09:58.084,-0.565,0.15
09:09:58.088,-0.565,0.19
09:09:58.092,-0.595,0.3
09:09:58.096,-0.6,0.28
09:09:58.100,-0.6,0.095
09:09:58.104,-0.58,0.125
09:09:58.108,-0.6,0.195
09:09:58.112,-0.61,0.255
09:09:58.116,-0.615,0.29
09:09:58.120,-0.6,0.335
09:09:58.124,-0.615,0.295
09:09:58.128,-0.64,0.275
09:09:58.132,-0.685,0.345
09:09:58.136,-0.7,0.385
09:09:58.140,-0.705,0.37
09:09:58.144,-0.705,0.335
09:09:58.148,-0.71,0.32
09:09:58.152,-0.72,0.23
09:09:58.156,-0.72,0.27
09:09:58.160,-0.73,0.355
09:09:58.164,-0.72,0.355
09:09:58.168,-0.755,0.4
09:09:58.172,-0.75,0.325
09:09:58.176,-0.76,0.27
09:09:58.180,-0.755,0.325
09:09:58.184,-0.725,0.37
09:09:58.188,-0.7,0.36
09:09:58.192,-0.64,0.39
09:09:58.196,-0.62,0.4
09:09:58.200,-0.58,0.365
09:09:58.204,-0.535,0.445
09:09:58.208,-0.48,0.485
09:09:58.212,-0.41,0.47
09:09:58.216,-0.365,0.515
09:09:58.220,-0.33,0.62
09:09:58.224,-0.305,0.665
09:09:58.228,-0.28,0.515
09:09:58.232,-0.28,0.445
09:09:58.236,-0.24,0.445
09:09:58.240,-0.185,0.425
09:09:58.244,-0.21,0.46
09:09:58.248,-0.175,0.425
09:09:58.252,-0.18,0.37
09:09:58.256,-0.185,0.35
09:09:58.260,-0.16,0.325
09:09:58.264,-0.185,0.245
09:09:58.268,-0.225,0.315
09:09:58.272,-0.225,0.355
09:09:58.276,-0.255,0.35
09:09:58.280,-0.265,0.215
09:09:58.284,-0.28,0.215
09:09:58.288,-0.325,0.315
09:09:58.292,-0.335,0.345
09:09:58.296,-0.34,0.19
09:09:58.300,-0.315,0.17
09:09:58.304,-0.31,0.195
09:09:58.308,-0.34,0.205
09:09:58.312,-0.345,0.315
09:09:58.316,-0.34,0.2
09:09:58.320,-0.365,0.105
09:09:58.324,-0.375,0.13
09:09:58.328,-0.385,0.185
09:09:58.332,-0.36,0.225
09:09:58.336,-0.33,0.18
09:09:58.340,-0.305,0.085
09:09:58.344,-0.29,0.16
09:09:58.348,-0.285,0.155
09:09:58.352,-0.255,0.17
09:09:58.356,-0.25,0.13
09:09:58.360,-0.245,0.09
09:09:58.364,-0.225,0.18
09:09:58.368,-0.19,0.225
09:09:58.372,-0.2,0.245
09:09:58.376,-0.2,0.225
09:09:58.380,-0.165,0.195
09:09:58.384,-0.125,0.28
09:09:58.388,-0.085,0.19
09:09:58.392,-0.055,0.16
09:09:58.396,0.09,0.35
09:09:58.400,0.415,0.425
09:09:58.404,0.77,0.385
09:09:58.408,0.98,0
09:09:58.412,1.025,-0.255
09:09:58.416,0.665,-0.44
09:09:58.420,-0.27,-0.77
09:09:58.424,-1.265,-1.08
09:09:58.428,-1.825,-1.24
09:09:58.432,-1.885,-1.435
09:09:58.436,-1.74,-1.74
09:09:58.440,-1.575,-1.755
09:09:58.444,-1.255,-1.475
09:09:58.448,-0.94,-1.225
09:09:58.452,-0.685,-0.955
09:09:58.456,-0.535,-0.69
09:09:58.460,-0.48,-0.425
09:09:58.464,-0.41,-0.16
09:09:58.468,-0.4,0.08
09:09:58.472,-0.41,-0.005
09:09:58.476,-0.435,-0.015
09:09:58.480,-0.445,0.105
09:09:58.484,-0.46,0.125
09:09:58.488,-0.44,0.125
09:09:58.492,-0.48,0.14
09:09:58.496,-0.5,0.09
09:09:58.500,-0.545,0.075
09:09:58.504,-0.525,0.1
09:09:58.508,-0.54,-0.04
09:09:58.512,-0.565,0.025
09:09:58.516,-0.605,0.105
09:09:58.520,-0.595,0.13
09:09:58.524,-0.56,0.1
09:09:58.528,-0.555,0.05
09:09:58.532,-0.555,0.04
09:09:58.536,-0.565,0.11
09:09:58.540,-0.555,0.125
09:09:58.544,-0.53,0.185
09:09:58.548,-0.525,0.215
09:09:58.552,-0.58,0.24
09:09:58.556,-0.58,0.295
09:09:58.560,-0.58,0.26
09:09:58.564,-0.6,0.015
09:09:58.568,-0.615,0.075
09:09:58.572,-0.625,0.16
09:09:58.576,-0.64,0.125
09:09:58.580,-0.68,0.165
09:09:58.584,-0.675,0.165
09:09:58.588,-0.665,0.19
09:09:58.592,-0.665,0.19
09:09:58.596,-0.665,0.155
09:09:58.600,-0.65,0.175
09:09:58.604,-0.64,0.155
09:09:58.608,-0.675,0.195
09:09:58.612,-0.635,0.24
09:09:58.616,-0.64,0.19
09:09:58.620,-0.59,0.175
09:09:58.624,-0.58,0.185
09:09:58.628,-0.545,0.31
09:09:58.632,-0.49,0.41
09:09:58.636,-0.385,0.165
09:09:58.640,-0.36,0.085
09:09:58.644,-0.32,0.155
09:09:58.648,-0.28,0.215
09:09:58.652,-0.245,0.195
09:09:58.656,-0.21,0.2
09:09:58.660,-0.145,0.205
09:09:58.664,-0.18,0.255
09:09:58.668,-0.175,0.31
09:09:58.672,-0.135,0.26
09:09:58.676,-0.12,0.175
09:09:58.680,-0.085,0.225
09:09:58.684,-0.045,0.24
09:09:58.688,-0.06,0.275
09:09:58.692,-0.105,0.38
09:09:58.696,-0.13,0.385
09:09:58.700,-0.18,0.25
09:09:58.704,-0.21,0.22
09:09:58.708,-0.2,0.135
09:09:58.712,-0.215,0.17
09:09:58.716,-0.29,0.245
09:09:58.720,-0.305,0.295
09:09:58.724,-0.285,0.3
09:09:58.728,-0.25,0.145
09:09:58.732,-0.215,0.18
09:09:58.736,-0.155,0.255
09:09:58.740,-0.175,0.26
09:09:58.744,-0.19,0.305
09:09:58.748,-0.16,0.435
09:09:58.752,-0.205,0.33
09:09:58.756,-0.22,0.245
09:09:58.760,-0.21,0.2
09:09:58.764,-0.215,0.125
09:09:58.768,-0.235,0.215
09:09:58.772,-0.225,0.28
09:09:58.776,-0.22,0.29
09:09:58.780,-0.23,0.225
09:09:58.784,-0.27,0.205
09:09:58.788,-0.265,0.3
09:09:58.792,-0.285,0.285
09:09:58.796,-0.3,0.16
09:09:58.800,-0.305,0.135
09:09:58.804,-0.31,0.18
09:09:58.808,-0.27,0.205
09:09:58.812,-0.265,0.24
09:09:58.816,-0.225,0.245
09:09:58.820,-0.26,0.315
09:09:58.824,-0.245,0.355
09:09:58.828,-0.225,0.235
09:09:58.832,-0.215,0.185
09:09:58.836,-0.235,0.345
09:09:58.840,-0.3,0.385
09:09:58.844,-0.29,0.265
09:09:58.848,-0.295,0.09
09:09:58.852,-0.31,0.105
09:09:58.856,-0.325,0.12
09:09:58.860,-0.345,0.18
09:09:58.864,-0.355,0.245
09:09:58.868,-0.37,0.19
09:09:58.872,-0.33,0.2
09:09:58.876,-0.32,0.095
09:09:58.880,-0.305,0.095
09:09:58.884,-0.32,0.135
09:09:58.888,-0.34,0.215
09:09:58.892,-0.345,0.17
09:09:58.896,-0.355,0.035
09:09:58.900,-0.365,0.09
09:09:58.904,-0.39,0.155
09:09:58.908,-0.405,0.235
09:09:58.912,-0.395,0.235
09:09:58.916,-0.395,0.075
09:09:58.920,-0.39,-0.05
09:09:58.924,-0.38,0.045
09:09:58.928,-0.37,0.07
09:09:58.932,-0.345,0.095
09:09:58.936,-0.37,0.015
09:09:58.940,-0.365,0.09
09:09:58.944,-0.345,0.15
09:09:58.948,-0.33,0.13
09:09:58.952,-0.3,0.16
09:09:58.956,-0.3,0.235
09:09:58.960,-0.285,0.205
09:09:58.964,-0.305,0.165
09:09:58.968,-0.275,0.145
09:09:58.972,-0.25,0.215
09:09:58.976,-0.24,0.13
09:09:58.980,-0.24,0.17
09:09:58.984,-0.245,0.15
09:09:58.988,-0.265,0.145
09:09:58.992,-0.285,0.225
09:09:58.996,-0.33,0.29
09:09:59.000,-0.325,0.24
09:09:59.004,-0.335,0.16
09:09:59.008,-0.325,0.165
09:09:59.012,-0.33,0.215
09:09:59.016,-0.32,0.2
09:09:59.020,-0.31,0.245
09:09:59.024,-0.305,0.31
09:09:59.028,-0.26,0.225
09:09:59.032,-0.255,0.16
09:09:59.036,-0.26,0.215
09:09:59.040,-0.3,0.255
09:09:59.044,-0.31,0.27
09:09:59.048,-0.295,0.27
09:09:59.052,-0.335,0.34
09:09:59.056,-0.315,0.225
09:09:59.060,-0.34,0.12
09:09:59.064,-0.29,0.2
09:09:59.068,-0.3,0.195
09:09:59.072,-0.325,0.11
09:09:59.076,-0.345,0.135
09:09:59.080,-0.335,0.175
09:09:59.084,-0.31,0.09
09:09:59.088,-0.36,0.035
09:09:59.092,-0.375,0.13
09:09:59.096,-0.335,0.075
09:09:59.100,-0.3,0.07
09:09:59.104,-0.235,0.145
09:09:59.108,-0.18,0.085
09:09:59.112,-0.065,0.22
09:09:59.116,0.155,0.325
09:09:59.120,0.52,0.18
09:09:59.124,0.845,0.09
09:09:59.128,1.005,0.105
09:09:59.132,1.09,-0.04
09:09:59.136,0.93,-0.34
09:09:59.140,0.18,-0.655
09:09:59.144,-0.845,-0.89
09:09:59.148,-1.555,-1.14
09:09:59.152,-1.745,-1.4
09:09:59.156,-1.665,-1.525
09:09:59.160,-1.54,-1.53
09:09:59.164,-1.37,-1.49
09:09:59.168,-1.06,-1.32
09:09:59.172,-0.8,-1.075
09:09:59.176,-0.62,-0.84
09:09:59.180,-0.52,-0.5
09:09:59.184,-0.485,-0.31
09:09:59.188,-0.46,-0.15
09:09:59.192,-0.445,0.005
09:09:59.196,-0.475,0.085
09:09:59.200,-0.495,0.135
09:09:59.204,-0.47,0.165
09:09:59.208,-0.5,0.12
09:09:59.212,-0.48,0.125
09:09:59.216,-0.465,0.1
09:09:59.220,-0.5,0.13
09:09:59.224,-0.49,0.2
09:09:59.228,-0.495,0.22
09:09:59.232,-0.53,0.22
09:09:59.236,-0.565,0.175
09:09:59.240,-0.58,0.11
09:09:59.244,-0.585,0.08
09:09:59.248,-0.565,0.14
09:09:59.252,-0.55,0.135
09:09:59.256,-0.555,0.155
09:09:59.260,-0.54,0.135
09:09:59.264,-0.57,0.115
09:09:59.268,-0.615,0.145
09:09:59.272,-0.64,0.13
09:09:59.276,-0.675,0.155
09:09:59.280,-0.715,0.12
09:09:59.284,-0.7,0.095
09:09:59.288,-0.715,0.085
09:09:59.292,-0.72,0.07
09:09:59.296,-0.735,0.09
09:09:59.300,-0.715,0.095
09:09:59.304,-0.705,0.2
09:09:59.308,-0.68,0.23
09:09:59.312,-0.66,0.08
09:09:59.316,-0.675,0.02
09:09:59.320,-0.705,0.045
09:09:59.324,-0.685,0.07
09:09:59.328,-0.705,0.05
09:09:59.332,-0.695,0.13
09:09:59.336,-0.655,0.035
09:09:59.340,-0.645,-0.02
09:09:59.344,-0.65,-0.045
09:09:59.348,-0.64,-0.02
09:09:59.352,-0.665,0
09:09:59.356,-0.635,0.02
09:09:59.360,-0.61,0.085
09:09:59.364,-0.625,0.065
09:09:59.368,-0.625,0.015
09:09:59.372,-0.61,0
09:09:59.376,-0.615,0.05
09:09:59.380,-0.585,0.16
09:09:59.384,-0.6,0.1
09:09:59.388,-0.56,0.05
09:09:59.392,-0.545,0.075
09:09:59.396,-0.51,0.03
09:09:59.400,-0.445,0.01
09:09:59.404,-0.425,0
09:09:59.408,-0.38,0.07
09:09:59.412,-0.335,0.15
09:09:59.416,-0.295,0.13
09:09:59.420,-0.29,0.11
09:09:59.424,-0.3,0.14
09:09:59.428,-0.295,0.15
09:09:59.432,-0.285,0.2
09:09:59.436,-0.26,0.255
09:09:59.440,-0.225,0.265
09:09:59.444,-0.185,0.175
09:09:59.448,-0.18,0.18
09:09:59.452,-0.155,0.22
09:09:59.456,-0.17,0.24
09:09:59.460,-0.165,0.245
09:09:59.464,-0.16,0.295
09:09:59.468,-0.17,0.315
09:09:59.472,-0.2,0.385
09:09:59.476,-0.215,0.41
09:09:59.480,-0.185,0.245
09:09:59.484,-0.165,0.165
09:09:59.488,-0.16,0.23
09:09:59.492,-0.165,0.315
09:09:59.496,-0.16,0.33
09:09:59.500,-0.16,0.275
09:09:59.504,-0.16,0.265
09:09:59.508,-0.145,0.285
09:09:59.512,-0.14,0.32
09:09:59.516,-0.13,0.28
09:09:59.520,-0.14,0.23
09:09:59.524,-0.16,0.21
09:09:59.528,-0.19,0.235
09:09:59.532,-0.185,0.29
09:09:59.536,-0.175,0.295
09:09:59.540,-0.175,0.15
09:09:59.544,-0.19,0.155
09:09:59.548,-0.195,0.235
09:09:59.552,-0.19,0.275
09:09:59.556,-0.22,0.32
09:09:59.560,-0.19,0.34
09:09:59.564,-0.155,0.205
09:09:59.568,-0.03,0.075
09:09:59.572,0.145,0.18
09:09:59.576,0.315,0.245
09:09:59.580,0.39,0.235
09:09:59.584,0.505,0.215
09:09:59.588,0.75,0.02
09:09:59.592,0.84,-0.46
09:09:59.596,0.865,-1.15
09:09:59.600,0.69,-1.83
09:09:59.604,0.07,-2.16
09:09:59.608,-0.905,-2.335
09:09:59.612,-1.555,-2.55
09:09:59.616,-1.61,-2.69
09:09:59.620,-1.35,-2.55
09:09:59.624,-1.045,-2.23
09:09:59.628,-0.875,-1.765
09:09:59.632,-0.76,-1.27
09:09:59.636,-0.65,-0.78
09:09:59.640,-0.56,-0.375
09:09:59.644,-0.505,-0.13
09:09:59.648,-0.455,0.07
09:09:59.652,-0.415,0.075
09:09:59.656,-0.39,0.04
09:09:59.660,-0.405,0.135
09:09:59.664,-0.415,0.23
09:09:59.668,-0.42,0.255
09:09:59.672,-0.425,0.27
09:09:59.676,-0.42,0.205
09:09:59.680,-0.41,0.205
09:09:59.684,-0.4,0.23
09:09:59.688,-0.425,0.25
09:09:59.692,-0.405,0.28
09:09:59.696,-0.37,0.245
09:09:59.700,-0.32,0.195
09:09:59.704,-0.33,0.21
09:09:59.708,-0.36,0.315
09:09:59.712,-0.38,0.405
09:09:59.716,-0.39,0.42
09:09:59.720,-0.43,0.29
09:09:59.724,-0.45,0.27
09:09:59.728,-0.46,0.23
09:09:59.732,-0.49,0.24
09:09:59.736,-0.525,0.315
09:09:59.740,-0.53,0.39
09:09:59.744,-0.54,0.39
09:09:59.748,-0.585,0.425
09:09:59.752,-0.625,0.475
09:09:59.756,-0.635,0.425
09:09:59.760,-0.705,0.375
09:09:59.764,-0.765,0.38
09:09:59.768,-0.835,0.425
09:09:59.772,-0.855,0.435
09:09:59.776,-0.89,0.365
09:09:59.780,-0.935,0.37
09:09:59.784,-0.95,0.395
09:09:59.788,-0.985,0.37
09:09:59.792,-0.995,0.385
09:09:59.796,-1,0.38
09:09:59.800,-1.005,0.41
09:09:59.804,-0.995,0.43
09:09:59.808,-0.99,0.35
09:09:59.812,-0.95,0.345
09:09:59.816,-0.925,0.365
09:09:59.820,-0.9,0.355
09:09:59.824,-0.87,0.41
09:09:59.828,-0.795,0.5
09:09:59.832,-0.74,0.4
09:09:59.836,-0.685,0.24
09:09:59.840,-0.62,0.305
09:09:59.844,-0.545,0.34
09:09:59.848,-0.505,0.24
09:09:59.852,-0.435,0.195
09:09:59.856,-0.42,0.235
09:09:59.860,-0.4,0.315
09:09:59.864,-0.395,0.285
09:09:59.868,-0.37,0.285
09:09:59.872,-0.345,0.29
09:09:59.876,-0.295,0.255
09:09:59.880,-0.26,0.19
09:09:59.884,-0.24,0.205
09:09:59.888,-0.18,0.265
09:09:59.892,-0.105,0.315
09:09:59.896,-0.065,0.37
09:09:59.900,-0.07,0.4
09:09:59.904,-0.095,0.38
09:09:59.908,-0.105,0.38
09:09:59.912,-0.07,0.37
09:09:59.916,-0.05,0.34
09:09:59.920,-0.03,0.345
09:09:59.924,-0.04,0.3
09:09:59.928,-0.03,0.235
09:09:59.932,-0.005,0.25
09:09:59.936,0.035,0.275
09:09:59.940,0.09,0.28
09:09:59.944,0.185,0.3
09:09:59.948,0.405,0.365
09:09:59.952,0.715,0.285
09:09:59.956,1.01,0.18
09:09:59.960,1.24,0.03
09:09:59.964,1.375,-0.36
09:09:59.968,1.155,-0.78
09:09:59.972,0.15,-1.08
09:09:59.976,-1.035,-1.4
09:09:59.980,-1.63,-1.775
09:09:59.984,-1.635,-1.95
09:09:59.988,-1.475,-1.99
09:09:59.992,-1.3,-1.985
09:09:59.996,-0.98,-1.77
09:10:00.000,-0.71,-1.395
09:10:00.004,-0.535,-1.015
09:10:00.008,-0.455,-0.635
09:10:00.012,-0.425,-0.35
09:10:00.016,-0.41,-0.17
09:10:00.020,-0.41,-0.035
09:10:00.024,-0.435,0.09
09:10:00.028,-0.455,0.12
09:10:00.032,-0.44,0.14
09:10:00.036,-0.465,0.095
09:10:00.040,-0.43,0.13
09:10:00.044,-0.445,0.15
09:10:00.048,-0.445,0.15
09:10:00.052,-0.44,0.19
09:10:00.056,-0.455,0.24
09:10:00.060,-0.485,0.225
09:10:00.064,-0.485,0.195
09:10:00.068,-0.47,0.105
09:10:00.072,-0.45,0.105
09:10:00.076,-0.46,0.185
09:10:00.080,-0.485,0.205
09:10:00.084,-0.485,0.24
09:10:00.088,-0.44,0.26
09:10:00.092,-0.43,0.235
09:10:00.096,-0.415,0.275
09:10:00.100,-0.41,0.23
09:10:00.104,-0.425,0.095
09:10:00.108,-0.425,0.125
09:10:00.112,-0.42,0.22
09:10:00.116,-0.425,0.25
09:10:00.120,-0.39,0.255
09:10:00.124,-0.39,0.245
09:10:00.128,-0.38,0.275
09:10:00.132,-0.37,0.26
09:10:00.136,-0.39,0.225
09:10:00.140,-0.435,0.215
09:10:00.144,-0.435,0.225
09:10:00.148,-0.48,0.25
09:10:00.152,-0.495,0.265
09:10:00.156,-0.535,0.275
09:10:00.160,-0.555,0.255
09:10:00.164,-0.545,0.235
09:10:00.168,-0.535,0.23
09:10:00.172,-0.535,0.2
09:10:00.176,-0.525,0.27
09:10:00.180,-0.46,0.225
09:10:00.184,-0.42,0.1
09:10:00.188,-0.375,0.055
09:10:00.192,-0.33,0.13
09:10:00.196,-0.285,0.185
09:10:00.200,-0.265,0.23
09:10:00.204,-0.23,0.265
09:10:00.208,-0.205,0.225
09:10:00.212,-0.195,0.17
09:10:00.216,-0.205,0.25
09:10:00.220,-0.195,0.29
09:10:00.224,-0.19,0.23
09:10:00.228,-0.17,0.23
09:10:00.232,-0.155,0.235
09:10:00.236,-0.16,0.26
09:10:00.240,-0.15,0.285
09:10:00.244,-0.16,0.25
09:10:00.248,-0.16,0.21
09:10:00.252,-0.18,0.245
09:10:00.256,-0.205,0.35
09:10:00.260,-0.23,0.25
09:10:00.264,-0.23,0.15
09:10:00.268,-0.23,0.23
09:10:00.272,-0.21,0.255
09:10:00.276,-0.2,0.23
09:10:00.280,-0.13,0.225
09:10:00.284,-0.12,0.225
09:10:00.288,-0.145,0.28
09:10:00.292,-0.13,0.32
09:10:00.296,-0.15,0.31
09:10:00.300,-0.17,0.305
09:10:00.304,-0.16,0.245
09:10:00.308,-0.11,0.2
09:10:00.312,-0.07,0.255
09:10:00.316,-0.02,0.23
09:10:00.320,0.06,0.235
09:10:00.324,0.18,0.23
09:10:00.328,0.33,0.3
09:10:00.332,0.5,0.35
09:10:00.336,0.74,0.34
09:10:00.340,1.045,0.32
09:10:00.344,1.27,0.275
09:10:00.348,1.365,0.175
09:10:00.352,1.385,-0.195
09:10:00.356,0.965,-0.78
09:10:00.360,-0.185,-1.24
09:10:00.364,-1.33,-1.585
09:10:00.368,-1.8,-1.85
09:10:00.372,-1.785,-2.06
09:10:00.376,-1.595,-2.205
09:10:00.380,-1.295,-2.145
09:10:00.384,-0.965,-1.995
09:10:00.388,-0.705,-1.57
09:10:00.392,-0.565,-1.03
09:10:00.396,-0.52,-0.575
09:10:00.400,-0.475,-0.285
09:10:00.404,-0.435,-0.14
09:10:00.408,-0.465,-0.205
09:10:00.412,-0.46,-0.08
09:10:00.416,-0.455,0.01
09:10:00.420,-0.445,0.04
09:10:00.424,-0.465,0.1
09:10:00.428,-0.425,0.09
09:10:00.432,-0.405,0.06
09:10:00.436,-0.405,0.02
09:10:00.440,-0.41,0.025
09:10:00.444,-0.405,0.09
09:10:00.448,-0.435,0.13
09:10:00.452,-0.465,0.14
09:10:00.456,-0.47,0.165
09:10:00.460,-0.505,0.165
09:10:00.464,-0.51,0.185
09:10:00.468,-0.47,0.255
09:10:00.472,-0.455,0.23
09:10:00.476,-0.44,0.23
09:10:00.480,-0.445,0.37
09:10:00.484,-0.46,0.31
09:10:00.488,-0.46,0.08
09:10:00.492,-0.45,0.055
09:10:00.496,-0.465,0.18
09:10:00.500,-0.47,0.235
09:10:00.504,-0.48,0.255
09:10:00.508,-0.48,0.29
09:10:00.512,-0.49,0.285
09:10:00.516,-0.505,0.32
09:10:00.520,-0.54,0.24
09:10:00.524,-0.575,0.145
09:10:00.528,-0.575,0.22
09:10:00.532,-0.58,0.23
09:10:00.536,-0.595,0.27
09:10:00.540,-0.645,0.39
09:10:00.544,-0.635,0.44
09:10:00.548,-0.65,0.245
09:10:00.552,-0.665,0.155
09:10:00.556,-0.63,0.245
09:10:00.560,-0.64,0.305
09:10:00.564,-0.615,0.34
09:10:00.568,-0.56,0.24
09:10:00.572,-0.49,0.115
09:10:00.576,-0.46,0.125
09:10:00.580,-0.405,0.175
09:10:00.584,-0.37,0.245
09:10:00.588,-0.355,0.285
09:10:00.592,-0.335,0.325
09:10:00.596,-0.295,0.225
09:10:00.600,-0.255,0.155
09:10:00.604,-0.24,0.235
09:10:00.608,-0.225,0.305
09:10:00.612,-0.195,0.3
09:10:00.616,-0.175,0.305
09:10:00.620,-0.175,0.245
09:10:00.624,-0.205,0.265
09:10:00.628,-0.235,0.39
09:10:00.632,-0.205,0.415
09:10:00.636,-0.21,0.315
09:10:00.640,-0.205,0.135
09:10:00.644,-0.245,0.105
09:10:00.648,-0.225,0.22
09:10:00.652,-0.21,0.34
09:10:00.656,-0.11,0.31
09:10:00.660,0.005,0.21
09:10:00.664,0.2,0.235
09:10:00.668,0.465,0.155
09:10:00.672,0.76,0.045
09:10:00.676,1.09,0.04
09:10:00.680,1.38,-0.155
09:10:00.684,1.425,-0.685
09:10:00.688,0.75,-1.26
09:10:00.692,-0.42,-1.66
09:10:00.696,-1.115,-1.925
09:10:00.700,-1.24,-2.14
09:10:00.704,-1.195,-2.225
09:10:00.708,-1.02,-2.175
09:10:00.712,-0.815,-1.97
09:10:00.716,-0.55,-1.53
09:10:00.720,-0.43,-1.03
09:10:00.724,-0.38,-0.57
09:10:00.728,-0.34,-0.185
09:10:00.732,-0.355,0.015
09:10:00.736,-0.35,0
09:10:00.740,-0.36,0.125
09:10:00.744,-0.345,0.11
09:10:00.748,-0.355,0.095
09:10:00.752,-0.36,0.165
09:10:00.756,-0.355,0.175
09:10:00.760,-0.37,0.21
09:10:00.764,-0.325,0.24
09:10:00.768,-0.35,0.25
09:10:00.772,-0.395,0.26
09:10:00.776,-0.41,0.27
09:10:00.780,-0.44,0.21
09:10:00.784,-0.47,0.185
09:10:00.788,-0.51,0.185
09:10:00.792,-0.55,0.225
09:10:00.796,-0.56,0.31
09:10:00.800,-0.57,0.375
09:10:00.804,-0.59,0.285
09:10:00.808,-0.61,0.035
09:10:00.812,-0.61,0.015
09:10:00.816,-0.63,0.145
09:10:00.820,-0.645,0.225
09:10:00.824,-0.67,0.195
09:10:00.828,-0.7,0.105
09:10:00.832,-0.74,0.07
09:10:00.836,-0.77,0.15
09:10:00.840,-0.73,0.185
09:10:00.844,-0.755,0.17
09:10:00.848,-0.795,0.135
09:10:00.852,-0.785,0.2
09:10:00.856,-0.77,0.205
09:10:00.860,-0.745,0.085
09:10:00.864,-0.745,0.13
09:10:00.868,-0.72,0.2
09:10:00.872,-0.715,0.22
09:10:00.876,-0.69,0.225
09:10:00.880,-0.68,0.185
09:10:00.884,-0.64,0.135
09:10:00.888,-0.605,0.2
09:10:00.892,-0.565,0.285
09:10:00.896,-0.525,0.31
09:10:00.900,-0.495,0.245
09:10:00.904,-0.45,0.19
09:10:00.908,-0.39,0.31
09:10:00.912,-0.305,0.34
09:10:00.916,-0.27,0.355
09:10:00.920,-0.26,0.445
09:10:00.924,-0.235,0.495
09:10:00.928,-0.195,0.46
09:10:00.932,-0.155,0.335
09:10:00.936,-0.15,0.285
09:10:00.940,-0.19,0.37
09:10:00.944,-0.185,0.49
09:10:00.948,-0.135,0.44
09:10:00.952,-0.1,0.35
09:10:00.956,-0.06,0.385
09:10:00.960,-0.05,0.36
09:10:00.964,-0.03,0.31
09:10:00.968,0.015,0.315
09:10:00.972,0.075,0.325
09:10:00.976,0.17,0.395
09:10:00.980,0.345,0.48
09:10:00.984,0.59,0.37
09:10:00.988,0.92,0.135
09:10:00.992,1.16,-0.005
09:10:00.996,1.345,-0.025
09:10:01.000,1.32,-0.385
09:10:01.004,0.585,-0.935
09:10:01.008,-0.695,-1.365
09:10:01.012,-1.485,-1.725
09:10:01.016,-1.625,-1.96
09:10:01.020,-1.515,-2.12
09:10:01.024,-1.315,-2.165
09:10:01.028,-1.08,-1.905
09:10:01.032,-0.82,-1.51
09:10:01.036,-0.62,-1.11
09:10:01.040,-0.505,-0.73
09:10:01.044,-0.45,-0.48
09:10:01.048,-0.415,-0.21
09:10:01.052,-0.38,0.03
09:10:01.056,-0.355,0.105
09:10:01.060,-0.375,0.03
09:10:01.064,-0.36,0.05
09:10:01.068,-0.39,0.105
09:10:01.072,-0.385,0.145
09:10:01.076,-0.38,0.2
09:10:01.080,-0.395,0.18
09:10:01.084,-0.4,0.15
09:10:01.088,-0.39,0.21
09:10:01.092,-0.385,0.265
09:10:01.096,-0.36,0.24
09:10:01.100,-0.335,0.145
09:10:01.104,-0.37,0.27
09:10:01.108,-0.38,0.335
09:10:01.112,-0.4,0.305
09:10:01.116,-0.385,0.31
09:10:01.120,-0.42,0.22
09:10:01.124,-0.44,0.29
09:10:01.128,-0.46,0.38
09:10:01.132,-0.475,0.28
09:10:01.136,-0.455,0.26
09:10:01.140,-0.47,0.34
09:10:01.144,-0.49,0.405
09:10:01.148,-0.505,0.435
09:10:01.152,-0.465,0.435
09:10:01.156,-0.455,0.4
09:10:01.160,-0.455,0.38
09:10:01.164,-0.445,0.385
09:10:01.168,-0.47,0.445
09:10:01.172,-0.505,0.45
09:10:01.176,-0.525,0.44
09:10:01.180,-0.52,0.5
09:10:01.184,-0.495,0.35
09:10:01.188,-0.485,0.205
09:10:01.192,-0.475,0.27
09:10:01.196,-0.44,0.37
09:10:01.200,-0.37,0.43
09:10:01.204,-0.325,0.34
09:10:01.208,-0.305,0.31
09:10:01.212,-0.26,0.385
09:10:01.216,-0.21,0.43
09:10:01.220,-0.185,0.45
09:10:01.224,-0.145,0.485
09:10:01.228,-0.14,0.48
09:10:01.232,-0.09,0.425
09:10:01.236,-0.07,0.39
09:10:01.240,-0.05,0.46
09:10:01.244,-0.02,0.57
09:10:01.248,-0.02,0.41
09:10:01.252,-0.02,0.225
09:10:01.256,-0.005,0.34
09:10:01.260,0.025,0.445
09:10:01.264,0.015,0.485
09:10:01.268,-0.015,0.445
09:10:01.272,-0.05,0.4
09:10:01.276,-0.005,0.295
09:10:01.280,0.005,0.28
09:10:01.284,-0.05,0.345
09:10:01.288,-0.095,0.425
09:10:01.292,-0.135,0.455
09:10:01.296,-0.15,0.42
09:10:01.300,-0.18,0.325
09:10:01.304,-0.19,0.39
09:10:01.308,-0.18,0.435
09:10:01.312,-0.2,0.27
09:10:01.316,-0.225,0.19
09:10:01.320,-0.22,0.32
09:10:01.324,-0.22,0.285
09:10:01.328,-0.22,0.205
09:10:01.332,-0.21,0.26
09:10:01.336,-0.21,0.275
09:10:01.340,-0.23,0.29
09:10:01.344,-0.18,0.26
09:10:01.348,-0.14,0.255
09:10:01.352,-0.155,0.25
09:10:01.356,-0.17,0.275
09:10:01.360,-0.17,0.305
09:10:01.364,-0.185,0.345
09:10:01.368,-0.24,0.34
09:10:01.372,-0.265,0.36
09:10:01.376,-0.265,0.29
09:10:01.380,-0.28,0.09
09:10:01.384,-0.305,0.035
09:10:01.388,-0.3,0.08
09:10:01.392,-0.34,0.145
09:10:01.396,-0.33,0.175
09:10:01.400,-0.32,0.175
09:10:01.404,-0.32,0.15
09:10:01.408,-0.32,0.085
09:10:01.412,-0.3,0.11
09:10:01.416,-0.315,0.185
09:10:01.420,-0.285,0.175
09:10:01.424,-0.305,0.165
09:10:01.428,-0.33,0.16
09:10:01.432,-0.345,0.17
09:10:01.436,-0.3,0.1
09:10:01.440,-0.29,0.105
09:10:01.444,-0.265,0.115
09:10:01.448,-0.26,0.215
09:10:01.452,-0.24,0.115
09:10:01.456,-0.28,-0.015
09:10:01.460,-0.31,0.04
09:10:01.464,-0.335,0.215
09:10:01.468,-0.36,0.22
09:10:01.472,-0.32,0.075
09:10:01.476,-0.32,0.11
09:10:01.480,-0.34,0.21
09:10:01.484,-0.32,0.195
09:10:01.488,-0.31,0.16
09:10:01.492,-0.33,0.165
09:10:01.496,-0.335,0.165
09:10:01.500,-0.35,0.175
09:10:01.504,-0.36,0.225
09:10:01.508,-0.38,0.175
09:10:01.512,-0.4,0.095
09:10:01.516,-0.36,0.1
09:10:01.520,-0.345,0.175
09:10:01.524,-0.375,0.265
09:10:01.528,-0.375,0.26
09:10:01.532,-0.35,0.105
09:10:01.536,-0.33,0.055
09:10:01.540,-0.32,0.12
09:10:01.544,-0.32,0.195
09:10:01.548,-0.32,0.195
09:10:01.552,-0.32,0.155
09:10:01.556,-0.35,0.185
09:10:01.560,-0.35,0.15
09:10:01.564,-0.325,0.055
09:10:01.568,-0.315,0.045
09:10:01.572,-0.33,0.06
09:10:01.576,-0.35,0.125
09:10:01.580,-0.35,0.175
09:10:01.584,-0.335,0.25
09:10:01.588,-0.33,0.18
09:10:01.592,-0.32,-0.025
09:10:01.596,-0.3,-0.095
09:10:01.600,-0.32,0.03
09:10:01.604,-0.365,0.13
09:10:01.608,-0.365,0.115
09:10:01.612,-0.32,0.095
09:10:01.616,-0.32,0.115
09:10:01.620,-0.28,0
09:10:01.624,-0.265,0.025
09:10:01.628,-0.215,0.165
09:10:01.632,-0.125,0.245
09:10:01.636,-0.05,0.065
09:10:01.640,0.085,0.07
09:10:01.644,0.36,0.14
09:10:01.648,0.75,0.12
09:10:01.652,1.03,0.12
09:10:01.656,1.155,0.08
09:10:01.660,1.14,-0.05
09:10:01.664,0.59,-0.265
09:10:01.668,-0.445,-0.495
09:10:01.672,-1.32,-0.8
09:10:01.676,-1.75,-1.175
09:10:01.680,-1.785,-1.38
09:10:01.684,-1.645,-1.47
09:10:01.688,-1.515,-1.475
09:10:01.692,-1.305,-1.36
09:10:01.696,-1.025,-1.11
09:10:01.700,-0.805,-0.835
09:10:01.704,-0.65,-0.73
09:10:01.708,-0.56,-0.5
09:10:01.712,-0.52,-0.235
09:10:01.716,-0.515,-0.11
09:10:01.720,-0.495,-0.065
09:10:01.724,-0.485,-0.08
09:10:01.728,-0.435,0.035
09:10:01.732,-0.43,0.09
09:10:01.736,-0.475,0.125
09:10:01.740,-0.525,0.155
09:10:01.744,-0.505,-0.01
09:10:01.748,-0.51,-0.03
09:10:01.752,-0.525,0.085
09:10:01.756,-0.52,0.155
09:10:01.760,-0.475,0.145
09:10:01.764,-0.455,0.13
09:10:01.768,-0.455,0.16
09:10:01.772,-0.485,0.24
09:10:01.776,-0.44,0.185
09:10:01.780,-0.44,0.105
09:10:01.784,-0.45,0.13
09:10:01.788,-0.48,0.135
09:10:01.792,-0.51,0.17
09:10:01.796,-0.505,0.07
09:10:01.800,-0.52,0
09:10:01.804,-0.53,0.015
09:10:01.808,-0.505,0.06
09:10:01.812,-0.49,0.13
09:10:01.816,-0.485,0.15
09:10:01.820,-0.49,0.125
09:10:01.824,-0.45,0.095
09:10:01.828,-0.43,0.125
09:10:01.832,-0.46,0.06
09:10:01.836,-0.455,0.15
09:10:01.840,-0.485,0.13
09:10:01.844,-0.495,0.055
09:10:01.848,-0.535,0.105
09:10:01.852,-0.54,0.155
09:10:01.856,-0.55,0.105
09:10:01.860,-0.535,0.075
09:10:01.864,-0.525,0.085
09:10:01.868,-0.47,0.15
09:10:01.872,-0.4,0.21
09:10:01.876,-0.415,0.12
09:10:01.880,-0.43,-0.03
09:10:01.884,-0.45,-0.015
09:10:01.888,-0.445,0.065
09:10:01.892,-0.44,0.135
09:10:01.896,-0.415,0.095
09:10:01.900,-0.405,0.01
09:10:01.904,-0.36,-0.025
09:10:01.908,-0.335,0.05
09:10:01.912,-0.265,0.07
09:10:01.916,-0.215,0.105
09:10:01.920,-0.22,0.155
09:10:01.924,-0.185,0.195
09:10:01.928,-0.155,0.18
09:10:01.932,-0.16,0.095
09:10:01.936,-0.125,0.175
09:10:01.940,-0.125,0.21
09:10:01.944,-0.135,0.3
09:10:01.948,-0.13,0.325
09:10:01.952,-0.115,0.245
09:10:01.956,-0.09,0.215
09:10:01.960,-0.07,0.23
09:10:01.964,-0.085,0.32
09:10:01.968,-0.075,0.415
09:10:01.972,-0.06,0.295
09:10:01.976,-0.045,0.225
09:10:01.980,-0.005,0.3
09:10:01.984,-0.005,0.33
09:10:01.988,-0.03,0.335
09:10:01.992,-0.035,0.3
09:10:01.996,-0.075,0.28
09:10:02.000,-0.07,0.335
09:10:02.004,-0.055,0.335
09:10:02.008,-0.055,0.3
09:10:02.012,-0.04,0.305
09:10:02.016,-0.04,0.285
09:10:02.020,-0.03,0.28
09:10:02.024,-0.06,0.255
09:10:02.028,-0.095,0.25
09:10:02.032,-0.11,0.3
09:10:02.036,-0.14,0.305
09:10:02.040,-0.2,0.245
09:10:02.044,-0.24,0.27
09:10:02.048,-0.215,0.275
09:10:02.052,-0.22,0.21
09:10:02.056,-0.225,0.175
09:10:02.060,-0.225,0.195
09:10:02.064,-0.245,0.245
09:10:02.068,-0.25,0.265
09:10:02.072,-0.23,0.155
09:10:02.076,-0.22,0.075
09:10:02.080,-0.24,0.07
09:10:02.084,-0.255,0.075
09:10:02.088,-0.285,0.125
09:10:02.092,-0.29,0.08
09:10:02.096,-0.285,0.085
09:10:02.100,-0.26,0.115
09:10:02.104,-0.205,0.13
09:10:02.108,-0.09,0.18
09:10:02.112,0.19,0.19
09:10:02.116,0.48,0.18
09:10:02.120,0.71,0.185
09:10:02.124,0.86,0.135
09:10:02.128,0.845,-0.25
09:10:02.132,0.53,-0.635
09:10:02.136,-0.31,-0.87
09:10:02.140,-1.255,-1.19
09:10:02.144,-1.775,-1.515
09:10:02.148,-1.835,-1.68
09:10:02.152,-1.625,-1.86
09:10:02.156,-1.37,-1.895
09:10:02.160,-1.035,-1.63
09:10:02.164,-0.72,-1.28
09:10:02.168,-0.53,-0.94
09:10:02.172,-0.415,-0.655
09:10:02.176,-0.315,-0.4
09:10:02.180,-0.25,-0.155
09:10:02.184,-0.21,0.03
09:10:02.188,-0.21,0.13
09:10:02.192,-0.22,0.195
09:10:02.196,-0.27,0.215
09:10:02.200,-0.285,0.19
09:10:02.204,-0.265,0.215
09:10:02.208,-0.26,0.17
09:10:02.212,-0.255,0.17
09:10:02.216,-0.28,0.185
09:10:02.220,-0.275,0.195
09:10:02.224,-0.3,0.235
09:10:02.228,-0.33,0.245
09:10:02.232,-0.375,0.21
09:10:02.236,-0.385,0.05
09:10:02.240,-0.4,0.1
09:10:02.244,-0.39,0.175
09:10:02.248,-0.415,0.16
09:10:02.252,-0.45,0.13
09:10:02.256,-0.48,0.14
09:10:02.260,-0.49,0.115
09:10:02.264,-0.52,0.125
09:10:02.268,-0.54,0.155
09:10:02.272,-0.555,0.11
09:10:02.276,-0.585,0.11
09:10:02.280,-0.625,0.125
09:10:02.284,-0.69,0.11
09:10:02.288,-0.725,0.155
09:10:02.292,-0.785,0.235
09:10:02.296,-0.795,0.22
09:10:02.300,-0.835,0.1
09:10:02.304,-0.805,0.05
09:10:02.308,-0.835,0.105
09:10:02.312,-0.83,0.105
09:10:02.316,-0.855,0.135
09:10:02.320,-0.855,0.115
09:10:02.324,-0.885,0.13
09:10:02.328,-0.935,0.22
09:10:02.332,-0.925,0.265
09:10:02.336,-0.905,0.1
09:10:02.340,-0.88,-0.095
09:10:02.344,-0.82,-0.045
09:10:02.348,-0.785,0.065
09:10:02.352,-0.705,0.05
09:10:02.356,-0.65,0.01
09:10:02.360,-0.58,0.025
09:10:02.364,-0.55,0.01
09:10:02.368,-0.49,0.08
09:10:02.372,-0.405,0.13
09:10:02.376,-0.315,0.075
09:10:02.380,-0.295,0
09:10:02.384,-0.255,0.035
09:10:02.388,-0.225,0.115
09:10:02.392,-0.235,0.14
09:10:02.396,-0.225,0.16
09:10:02.400,-0.175,0.215
09:10:02.404,-0.145,0.275
09:10:02.408,-0.135,0.315
09:10:02.412,-0.115,0.215
09:10:02.416,-0.09,0.1
09:10:02.420,-0.095,0.15
09:10:02.424,-0.13,0.275
09:10:02.428,-0.11,0.36
09:10:02.432,-0.115,0.23
09:10:02.436,-0.12,0.135
09:10:02.440,-0.12,0.175
09:10:02.444,-0.095,0.225
09:10:02.448,-0.085,0.2
09:10:02.452,-0.045,0.225
09:10:02.456,0,0.265
09:10:02.460,0.065,0.285
09:10:02.464,0.1,0.275
09:10:02.468,0.1,0.27
09:10:02.472,0.125,0.335
09:10:02.476,0.325,0.43
09:10:02.480,0.625,0.3
09:10:02.484,0.805,-0.06
09:10:02.488,0.75,-0.205
09:10:02.492,0.095,-0.085
09:10:02.496,-1.045,-0.04
09:10:02.500,-1.85,-0.38
09:10:02.504,-2.06,-0.72
09:10:02.508,-1.98,-1
09:10:02.512,-1.855,-1.155
09:10:02.516,-1.72,-1.225
09:10:02.520,-1.53,-1.285
09:10:02.524,-1.255,-1.23
09:10:02.528,-0.915,-1.065
09:10:02.532,-0.61,-0.815
09:10:02.536,-0.46,-0.56
09:10:02.540,-0.355,-0.35
09:10:02.544,-0.305,-0.22
09:10:02.548,-0.305,-0.13
09:10:02.552,-0.285,-0.16
09:10:02.556,-0.265,-0.055
09:10:02.560,-0.29,0.075
09:10:02.564,-0.3,0.135
09:10:02.568,-0.33,0.12
09:10:02.572,-0.32,-0.04
09:10:02.576,-0.315,-0.145
09:10:02.580,-0.3,-0.03
09:10:02.584,-0.295,0.035
09:10:02.588,-0.305,0.055
09:10:02.592,-0.26,0.06
09:10:02.596,-0.24,0.09
09:10:02.600,-0.24,0.12
09:10:02.604,-0.255,0.125
09:10:02.608,-0.285,0.1
09:10:02.612,-0.275,0.06
09:10:02.616,-0.315,0.07
09:10:02.620,-0.31,0.055
09:10:02.624,-0.32,0.05
09:10:02.628,-0.32,0.065
09:10:02.632,-0.37,0.09
09:10:02.636,-0.345,0.14
09:10:02.640,-0.3,0.135
09:10:02.644,-0.285,-0.005
09:10:02.648,-0.305,-0.08
09:10:02.652,-0.33,0
09:10:02.656,-0.335,0.06
09:10:02.660,-0.335,0.015
09:10:02.664,-0.375,-0.08
09:10:02.668,-0.395,-0.105
09:10:02.672,-0.37,-0.08
09:10:02.676,-0.375,-0.055
09:10:02.680,-0.395,-0.03
09:10:02.684,-0.405,-0.01
09:10:02.688,-0.39,0.02
09:10:02.692,-0.35,0.015
09:10:02.696,-0.32,-0.015
09:10:02.700,-0.28,-0.09
09:10:02.704,-0.26,-0.085
09:10:02.708,-0.215,-0.065
09:10:02.712,-0.2,-0.03
09:10:02.716,-0.17,0.015
09:10:02.720,-0.135,0
09:10:02.724,-0.125,0.075
09:10:02.728,-0.09,0.06
09:10:02.732,-0.045,0
09:10:02.736,-0.02,-0.025
09:10:02.740,-0.01,0.04
09:10:02.744,-0.01,0.14
09:10:02.748,-0.02,0.18
09:10:02.752,0,0.135
09:10:02.756,-0.025,0.17
09:10:02.760,-0.045,0.135
09:10:02.764,-0.075,0.155
09:10:02.768,-0.095,0.225
09:10:02.772,-0.095,0.285
09:10:02.776,-0.115,0.235
09:10:02.780,-0.16,0.27
09:10:02.784,-0.195,0.285
09:10:02.788,-0.175,0.29
09:10:02.792,-0.175,0.28
09:10:02.796,-0.165,0.28
09:10:02.800,-0.135,0.25
09:10:02.804,-0.135,0.26
09:10:02.808,-0.175,0.31
09:10:02.812,-0.175,0.35
09:10:02.816,-0.18,0.265
09:10:02.820,-0.195,0.245
09:10:02.824,-0.175,0.315
09:10:02.828,-0.145,0.235
09:10:02.832,-0.14,0.18
09:10:02.836,-0.14,0.225
09:10:02.840,-0.11,0.265
09:10:02.844,-0.1,0.28
09:10:02.848,-0.125,0.235
09:10:02.852,-0.11,0.2
09:10:02.856,-0.135,0.205
09:10:02.860,-0.16,0.195
09:10:02.864,-0.195,0.255
09:10:02.868,-0.205,0.295
09:10:02.872,-0.21,0.33
09:10:02.876,-0.23,0.24
09:10:02.880,-0.235,0.15
09:10:02.884,-0.2,0.18
09:10:02.888,-0.2,0.235
09:10:02.892,-0.21,0.285
09:10:02.896,-0.25,0.305
09:10:02.900,-0.265,0.195
09:10:02.904,-0.28,0.09
09:10:02.908,-0.295,0.155
09:10:02.912,-0.295,0.155
09:10:02.916,-0.305,0.18
09:10:02.920,-0.32,0.215
09:10:02.924,-0.29,0.17
09:10:02.928,-0.29,0.15
09:10:02.932,-0.27,0.09
09:10:02.936,-0.25,0.135
09:10:02.940,-0.245,0.22
09:10:02.944,-0.25,0.235
09:10:02.948,-0.24,0.19
09:10:02.952,-0.265,0.17
09:10:02.956,-0.27,0.145
09:10:02.960,-0.27,0.15
09:10:02.964,-0.3,0.23
09:10:02.968,-0.3,0.325
09:10:02.972,-0.28,0.235
09:10:02.976,-0.245,0.085
09:10:02.980,-0.18,0.095
09:10:02.984,-0.105,0.21
09:10:02.988,0,0.31
09:10:02.992,0.21,0.335
09:10:02.996,0.465,0.255
09:10:03.000,0.735,0.2
09:10:03.004,0.83,0.17
09:10:03.008,0.83,0.045
09:10:03.012,0.6,-0.255
09:10:03.016,-0.105,-0.75
09:10:03.020,-1.12,-1.11
09:10:03.024,-1.72,-1.35
09:10:03.028,-1.82,-1.56
09:10:03.032,-1.71,-1.745
09:10:03.036,-1.57,-1.875
09:10:03.040,-1.28,-1.77
09:10:03.044,-0.955,-1.465
09:10:03.048,-0.68,-1.2
09:10:03.052,-0.56,-0.885
09:10:03.056,-0.455,-0.515
09:10:03.060,-0.385,-0.24
09:10:03.064,-0.35,-0.14
09:10:03.068,-0.37,-0.055
09:10:03.072,-0.38,0.01
09:10:03.076,-0.38,0.075
09:10:03.080,-0.355,0.11
09:10:03.084,-0.345,0.155
09:10:03.088,-0.335,0.19
09:10:03.092,-0.35,0.105
09:10:03.096,-0.38,0.135
09:10:03.100,-0.39,0.18
09:10:03.104,-0.405,0.155
09:10:03.108,-0.41,0.165
09:10:03.112,-0.41,0.08
09:10:03.116,-0.425,0.06
09:10:03.120,-0.425,0.115
09:10:03.124,-0.425,0.155
09:10:03.128,-0.435,0.13
09:10:03.132,-0.46,0.215
09:10:03.136,-0.485,0.3
09:10:03.140,-0.53,0.305
09:10:03.144,-0.57,0.24
09:10:03.148,-0.595,0.185
09:10:03.152,-0.59,0.055
09:10:03.156,-0.62,0.09
09:10:03.160,-0.63,0.18
09:10:03.164,-0.665,0.23
09:10:03.168,-0.675,0.245
09:10:03.172,-0.675,0.11
09:10:03.176,-0.675,0.105
09:10:03.180,-0.7,0.16
09:10:03.184,-0.72,0.17
09:10:03.188,-0.73,0.18
09:10:03.192,-0.73,0.16
09:10:03.196,-0.775,0.19
09:10:03.200,-0.79,0.2
09:10:03.204,-0.78,0.22
09:10:03.208,-0.77,0.21
09:10:03.212,-0.775,0.16
09:10:03.216,-0.785,0.15
09:10:03.220,-0.72,0.225
09:10:03.224,-0.7,0.255
09:10:03.228,-0.665,0.195
09:10:03.232,-0.615,0.085
09:10:03.236,-0.56,0.14
09:10:03.240,-0.515,0.255
09:10:03.244,-0.5,0.235
09:10:03.248,-0.45,0.18
09:10:03.252,-0.365,0.275
09:10:03.256,-0.32,0.305
09:10:03.260,-0.27,0.315
09:10:03.264,-0.18,0.38
09:10:03.268,-0.115,0.31
09:10:03.272,-0.11,0.25
09:10:03.276,-0.1,0.325
09:10:03.280,-0.03,0.315
09:10:03.284,-0.02,0.275
09:10:03.288,-0.025,0.295
09:10:03.292,-0.02,0.365
09:10:03.296,0.01,0.365
09:10:03.300,-0.01,0.23
09:10:03.304,-0.01,0.26
09:10:03.308,-0.03,0.305
09:10:03.312,-0.05,0.38
09:10:03.316,-0.04,0.43
09:10:03.320,-0.065,0.33
09:10:03.324,-0.11,0.265
09:10:03.328,-0.115,0.275
09:10:03.332,-0.13,0.275
09:10:03.336,-0.14,0.28
09:10:03.340,-0.185,0.305
09:10:03.344,-0.225,0.28
09:10:03.348,-0.21,0.3
09:10:03.352,-0.215,0.31
09:10:03.356,-0.22,0.3
09:10:03.360,-0.195,0.3
09:10:03.364,-0.18,0.23
09:10:03.368,-0.185,0.195
09:10:03.372,-0.23,0.28
09:10:03.376,-0.25,0.4
09:10:03.380,-0.24,0.38
09:10:03.384,-0.275,0.09
09:10:03.388,-0.295,0.115
09:10:03.392,-0.3,0.25
09:10:03.396,-0.27,0.265
09:10:03.400,-0.3,0.245
09:10:03.404,-0.3,0.135
09:10:03.408,-0.26,0.115
09:10:03.412,-0.22,0.17
09:10:03.416,-0.245,0.145
09:10:03.420,-0.255,0.205
09:10:03.424,-0.26,0.21
09:10:03.428,-0.24,0.16
09:10:03.432,-0.25,0.145
09:10:03.436,-0.27,0.155
09:10:03.440,-0.265,0.235
09:10:03.444,-0.265,0.305
09:10:03.448,-0.25,0.185
09:10:03.452,-0.23,0.11
09:10:03.456,-0.195,0.155
09:10:03.460,-0.21,0.205
09:10:03.464,-0.175,0.29
09:10:03.468,-0.175,0.3
09:10:03.472,-0.19,0.13
09:10:03.476,-0.205,0.13
09:10:03.480,-0.21,0.14
09:10:03.484,-0.215,-0.025
09:10:03.488,-0.26,-0.04
09:10:03.492,-0.25,0.045
09:10:03.496,-0.255,0.09
09:10:03.500,-0.25,0.16
09:10:03.504,-0.225,0.225
09:10:03.508,-0.22,0.08
09:10:03.512,-0.21,0.02
09:10:03.516,-0.215,0.1
09:10:03.520,-0.23,0.105
09:10:03.524,-0.25,0.12
09:10:03.528,-0.255,0.155
09:10:03.532,-0.28,0.175
09:10:03.536,-0.305,0.19
09:10:03.540,-0.295,0.18
09:10:03.544,-0.27,0.115
09:10:03.548,-0.275,0.035
09:10:03.552,-0.265,0.005
09:10:03.556,-0.22,0.04
09:10:03.560,-0.135,0.11
09:10:03.564,-0.025,0.205
09:10:03.568,0.14,0.23
09:10:03.572,0.4,0.16
09:10:03.576,0.67,0.145
09:10:03.580,0.805,0.03
09:10:03.584,0.84,-0.115
09:10:03.588,0.605,-0.45
09:10:03.592,-0.155,-0.925
09:10:03.596,-1.145,-1.315
09:10:03.600,-1.72,-1.53
09:10:03.604,-1.79,-1.74
09:10:03.608,-1.655,-1.97
09:10:03.612,-1.425,-2.04
09:10:03.616,-1.145,-1.9
09:10:03.620,-0.855,-1.62
09:10:03.624,-0.64,-1.27
09:10:03.628,-0.525,-0.915
09:10:03.632,-0.44,-0.57
09:10:03.636,-0.39,-0.265
09:10:03.640,-0.34,-0.12
09:10:03.644,-0.36,-0.02
09:10:03.648,-0.33,0.04
09:10:03.652,-0.275,0.065
09:10:03.656,-0.26,0.11
09:10:03.660,-0.27,0.135
09:10:03.664,-0.29,0.23
09:10:03.668,-0.29,0.2
09:10:03.672,-0.32,0.135
09:10:03.676,-0.355,0.06
09:10:03.680,-0.355,0.135
09:10:03.684,-0.375,0.21
09:10:03.688,-0.39,0.02
09:10:03.692,-0.39,0
09:10:03.696,-0.39,0.045
09:10:03.700,-0.415,0.115
09:10:03.704,-0.43,0.16
09:10:03.708,-0.46,0.225
09:10:03.712,-0.45,0.16
09:10:03.716,-0.485,0.01
09:10:03.720,-0.525,0.02
09:10:03.724,-0.58,0.05
09:10:03.728,-0.605,0.06
09:10:03.732,-0.61,0.08
09:10:03.736,-0.655,0.11
09:10:03.740,-0.68,0.07
09:10:03.744,-0.715,0.07
09:10:03.748,-0.695,0.04
09:10:03.752,-0.69,0
09:10:03.756,-0.725,0.02
09:10:03.760,-0.77,0.095
09:10:03.764,-0.805,0.16
09:10:03.768,-0.84,0.09
09:10:03.772,-0.86,-0.115
09:10:03.776,-0.86,-0.06
09:10:03.780,-0.87,0.02
09:10:03.784,-0.89,-0.025
09:10:03.788,-0.87,-0.04
09:10:03.792,-0.87,-0.01
09:10:03.796,-0.855,-0.03
09:10:03.800,-0.815,-0.11
09:10:03.804,-0.795,-0.085
09:10:03.808,-0.755,-0.015
09:10:03.812,-0.735,0.01
09:10:03.816,-0.7,-0.035
09:10:03.820,-0.63,-0.02
09:10:03.824,-0.545,0.05
09:10:03.828,-0.475,0.055
09:10:03.832,-0.42,0.085
09:10:03.836,-0.36,0.07
09:10:03.840,-0.255,0.07
09:10:03.844,-0.17,0.04
09:10:03.848,-0.115,0.05
09:10:03.852,-0.075,0.1
09:10:03.856,-0.03,0.125
09:10:03.860,-0.04,0.235
09:10:03.864,-0.045,0.25
09:10:03.868,-0.06,0.29
09:10:03.872,-0.06,0.19
09:10:03.876,-0.065,0.165
09:10:03.880,-0.04,0.18
09:10:03.884,-0.06,0.24
09:10:03.888,-0.05,0.25
09:10:03.892,-0.03,0.27
09:10:03.896,-0.025,0.285
09:10:03.900,-0.055,0.245
09:10:03.904,-0.07,0.265
09:10:03.908,-0.085,0.3
09:10:03.912,-0.1,0.325
09:10:03.916,-0.11,0.305
09:10:03.920,-0.12,0.34
09:10:03.924,-0.14,0.31
09:10:03.928,-0.14,0.32
09:10:03.932,-0.14,0.41
09:10:03.936,-0.155,0.295
09:10:03.940,-0.12,0.22
09:10:03.944,-0.125,0.2
09:10:03.948,-0.16,0.245
09:10:03.952,-0.17,0.3
09:10:03.956,-0.16,0.26
09:10:03.960,-0.15,0.185
09:10:03.964,-0.18,0.19
09:10:03.968,-0.2,0.17
09:10:03.972,-0.21,0.21
09:10:03.976,-0.175,0.29
09:10:03.980,-0.2,0.265
09:10:03.984,-0.19,0.16
09:10:03.988,-0.16,0.145
09:10:03.992,-0.145,0.175
09:10:03.996,-0.18,0.22
09:10:04.000,-0.18,0.29
09:10:04.004,-0.16,0.305
09:10:04.008,-0.16,0.135
09:10:04.012,-0.14,0.06
09:10:04.016,-0.155,0.105
09:10:04.020,-0.135,0.21
09:10:04.024,-0.135,0.17
09:10:04.028,-0.18,0.09
09:10:04.032,-0.165,0.16
09:10:04.036,-0.155,0.16
09:10:04.040,-0.14,0.235
09:10:04.044,-0.125,0.325
09:10:04.048,-0.11,0.28
09:10:04.052,-0.105,0.105
09:10:04.056,-0.125,0.13
09:10:04.060,-0.16,0.185
09:10:04.064,-0.22,0.21
09:10:04.068,-0.21,0.205
09:10:04.072,-0.24,0.22
09:10:04.076,-0.225,0.325
09:10:04.080,-0.22,0.29
09:10:04.084,-0.23,0.03
09:10:04.088,-0.225,-0.01
09:10:04.092,-0.245,0.105
09:10:04.096,-0.25,0.07
09:10:04.100,-0.24,0.065
09:10:04.104,-0.235,0.05
09:10:04.108,-0.235,0.075
09:10:04.112,-0.215,0.11
09:10:04.116,-0.2,0.135
09:10:04.120,-0.08,0.18
09:10:04.124,0.03,0.16
09:10:04.128,0.275,0.135
09:10:04.132,0.59,0.12
09:10:04.136,0.855,0.075
09:10:04.140,0.98,0.02
09:10:04.144,1.01,-0.155
09:10:04.148,0.72,-0.545
09:10:04.152,-0.145,-0.95
09:10:04.156,-1.165,-1.27
09:10:04.160,-1.715,-1.495
09:10:04.164,-1.745,-1.65
09:10:04.168,-1.575,-1.915
09:10:04.172,-1.335,-2.075
09:10:04.176,-0.985,-2.03
09:10:04.180,-0.65,-1.72
09:10:04.184,-0.415,-1.325
09:10:04.188,-0.29,-0.94
09:10:04.192,-0.225,-0.6
09:10:04.196,-0.17,-0.33
09:10:04.200,-0.16,-0.115
09:10:04.204,-0.16,-0.005
09:10:04.208,-0.185,0.04
09:10:04.212,-0.17,0.14
09:10:04.216,-0.16,0.185
09:10:04.220,-0.12,0.05
09:10:04.224,-0.12,0.075
09:10:04.228,-0.125,0.155
09:10:04.232,-0.17,0.22
09:10:04.236,-0.15,0.28
09:10:04.240,-0.175,0.29
09:10:04.244,-0.215,0.26
09:10:04.248,-0.2,0.23
09:10:04.252,-0.23,0.21
09:10:04.256,-0.265,0.23
09:10:04.260,-0.28,0.27
09:10:04.264,-0.315,0.29
09:10:04.268,-0.345,0.24
09:10:04.272,-0.4,0.22
09:10:04.276,-0.425,0.25
09:10:04.280,-0.435,0.3
09:10:04.284,-0.48,0.125
09:10:04.288,-0.5,0.06
09:10:04.292,-0.525,0.12
09:10:04.296,-0.555,0.125
09:10:04.300,-0.57,0.1
09:10:04.304,-0.62,0.08
09:10:04.308,-0.68,0.115
09:10:04.312,-0.695,0.145
09:10:04.316,-0.715,0.215
09:10:04.320,-0.735,0.13
09:10:04.324,-0.74,0.035
09:10:04.328,-0.745,0.01
09:10:04.332,-0.79,0
09:10:04.336,-0.79,0.05
09:10:04.340,-0.81,0.03
09:10:04.344,-0.8,-0.01
09:10:04.348,-0.805,-0.015
09:10:04.352,-0.795,-0.005
09:10:04.356,-0.815,0.01
09:10:04.360,-0.85,0.075
09:10:04.364,-0.81,0.155
09:10:04.368,-0.765,0.07
09:10:04.372,-0.71,-0.06
09:10:04.376,-0.605,-0.045
09:10:04.380,-0.53,0.02
09:10:04.384,-0.47,0.105
09:10:04.388,-0.385,0.225
09:10:04.392,-0.295,0.195
09:10:04.396,-0.225,-0.035
09:10:04.400,-0.15,-0.07
09:10:04.404,-0.095,0.07
09:10:04.408,-0.05,0.155
09:10:04.412,-0.005,0.17
09:10:04.416,0.045,0.165
09:10:04.420,0.065,0.155
09:10:04.424,0.13,0.22
09:10:04.428,0.19,0.255
09:10:04.432,0.195,0.305
09:10:04.436,0.195,0.365
09:10:04.440,0.2,0.43
09:10:04.444,0.16,0.49
09:10:04.448,0.11,0.415
09:10:04.452,0.085,0.355
09:10:04.456,0.065,0.41
09:10:04.460,0.05,0.36
09:10:04.464,0.05,0.295
09:10:04.468,0.035,0.245
09:10:04.472,0.035,0.265
09:10:04.476,0.005,0.33
09:10:04.480,-0.02,0.405
09:10:04.484,-0.03,0.42
09:10:04.488,-0.015,0.22
09:10:04.492,-0.035,0.11
09:10:04.496,-0.05,0.165
09:10:04.500,-0.07,0.24
09:10:04.504,-0.06,0.2
09:10:04.508,-0.035,0.17
09:10:04.512,0.07,0.185
09:10:04.516,0.315,0.185
09:10:04.520,0.595,0.09
09:10:04.524,0.815,0.045
09:10:04.528,0.99,0.02
09:10:04.532,1.095,0.06
09:10:04.536,1.085,-0.17
09:10:04.540,0.98,-0.73
09:10:04.544,0.82,-1.435
09:10:04.548,0.61,-2.07
09:10:04.552,0.435,-2.535
09:10:04.556,0.26,-2.88
09:10:04.560,-0.07,-3.175
09:10:04.564,-0.44,-3.31
09:10:04.568,-0.6,-3.195
09:10:04.572,-0.575,-2.835
09:10:04.576,-0.455,-2.385
09:10:04.580,-0.39,-2.025
09:10:04.584,-0.425,-1.59
09:10:04.588,-0.38,-1.12
09:10:04.592,-0.335,-0.63
09:10:04.596,-0.32,-0.31
09:10:04.600,-0.33,-0.1
09:10:04.604,-0.315,0.06
09:10:04.608,-0.32,0.095
09:10:04.612,-0.305,0.095
09:10:04.616,-0.275,0.16
09:10:04.620,-0.25,0.235
09:10:04.624,-0.225,0.29
09:10:04.628,-0.23,0.225
09:10:04.632,-0.24,0.29
09:10:04.636,-0.22,0.34
09:10:04.640,-0.28,0.36
09:10:04.644,-0.31,0.41
09:10:04.648,-0.32,0.405
09:10:04.652,-0.33,0.455
09:10:04.656,-0.345,0.49
09:10:04.660,-0.35,0.465
09:10:04.664,-0.38,0.45
09:10:04.668,-0.375,0.475
09:10:04.672,-0.38,0.505
09:10:04.676,-0.415,0.54
09:10:04.680,-0.445,0.57
09:10:04.684,-0.46,0.535
09:10:04.688,-0.48,0.54
09:10:04.692,-0.525,0.525
09:10:04.696,-0.545,0.5
09:10:04.700,-0.585,0.595
09:10:04.704,-0.61,0.675
09:10:04.708,-0.625,0.585
09:10:04.712,-0.64,0.52
09:10:04.716,-0.66,0.555
09:10:04.720,-0.685,0.64
09:10:04.724,-0.72,0.65
09:10:04.728,-0.76,0.615
09:10:04.732,-0.775,0.59
09:10:04.736,-0.78,0.49
09:10:04.740,-0.79,0.45
09:10:04.744,-0.81,0.515
09:10:04.748,-0.81,0.61
09:10:04.752,-0.815,0.645
09:10:04.756,-0.79,0.71
09:10:04.760,-0.77,0.615
09:10:04.764,-0.71,0.53
09:10:04.768,-0.665,0.555
09:10:04.772,-0.615,0.63
09:10:04.776,-0.55,0.69
09:10:04.780,-0.48,0.64
09:10:04.784,-0.415,0.56
09:10:04.788,-0.32,0.545
09:10:04.792,-0.24,0.58
09:10:04.796,-0.195,0.56
09:10:04.800,-0.145,0.615
09:10:04.804,-0.085,0.67
09:10:04.808,-0.03,0.495
09:10:04.812,0,0.33
09:10:04.816,0.01,0.325
09:10:04.820,0.01,0.415
09:10:04.824,0,0.43
09:10:04.828,-0.025,0.365
09:10:04.832,-0.025,0.35
09:10:04.836,-0.03,0.4
09:10:04.840,-0.06,0.41
09:10:04.844,-0.06,0.345
09:10:04.848,-0.065,0.305
09:10:04.852,-0.05,0.375
09:10:04.856,-0.08,0.38
09:10:04.860,-0.07,0.285
09:10:04.864,-0.04,0.31
09:10:04.868,-0.065,0.35
09:10:04.872,-0.1,0.34
09:10:04.876,-0.135,0.265
09:10:04.880,-0.115,0.225
09:10:04.884,-0.11,0.185
09:10:04.888,-0.16,0.19
09:10:04.892,-0.155,0.19
09:10:04.896,-0.18,0.18
09:10:04.900,-0.19,0.22
09:10:04.904,-0.185,0.175
09:10:04.908,-0.175,0.125
09:10:04.912,-0.205,0.135
09:10:04.916,-0.21,0.165
09:10:04.920,-0.2,0.135
09:10:04.924,-0.205,0.12
09:10:04.928,-0.21,0.08
09:10:04.932,-0.195,0.065
09:10:04.936,-0.21,0.105
09:10:04.940,-0.255,0.08
09:10:04.944,-0.275,0.09
09:10:04.948,-0.255,0.16
09:10:04.952,-0.275,0.12
09:10:04.956,-0.29,0.075
09:10:04.960,-0.27,0.075
09:10:04.964,-0.255,0.1
09:10:04.968,-0.24,0.03
09:10:04.972,-0.25,-0.02
09:10:04.976,-0.225,0
09:10:04.980,-0.21,0.12
09:10:04.984,-0.21,0.08
09:10:04.988,-0.245,0.075
09:10:04.992,-0.19,0.195
09:10:04.996,-0.16,0.205
09:10:05.000,-0.105,0.06
09:10:05.004,-0.05,0.045
09:10:05.008,-0.025,0.085
09:10:05.012,-0.02,0.105
09:10:05.016,0.02,0.12
09:10:05.020,0.02,0.125
09:10:05.024,0.005,0.155
09:10:05.028,0.01,0.215
09:10:05.032,-0.005,0.275
09:10:05.036,-0.005,0.255
09:10:05.040,-0.04,0.22
09:10:05.044,-0.07,0.245
09:10:05.048,-0.07,0.2
09:10:05.052,-0.065,0.21
09:10:05.056,-0.05,0.275
09:10:05.060,-0.02,0.2
09:10:05.064,-0.06,0.17
09:10:05.068,-0.07,0.225
09:10:05.072,-0.055,0.21
09:10:05.076,-0.065,0.125
09:10:05.080,-0.08,0.025
09:10:05.084,-0.105,0.075
09:10:05.088,-0.115,0.145
09:10:05.092,-0.11,0.125
09:10:05.096,-0.11,0.09
09:10:05.100,-0.12,0.07
09:10:05.104,-0.065,0.13
09:10:05.108,0.02,0.155
09:10:05.112,0.115,0.14
09:10:05.116,0.235,0.12
09:10:05.120,0.425,0.145
09:10:05.124,0.68,0.135
09:10:05.128,0.96,0.145
09:10:05.132,1.14,0.105
09:10:05.136,1.205,-0.04
09:10:05.140,0.99,-0.34
09:10:05.144,0.19,-0.67
09:10:05.148,-0.84,-0.97
09:10:05.152,-1.535,-1.26
09:10:05.156,-1.71,-1.475
09:10:05.160,-1.615,-1.565
09:10:05.164,-1.435,-1.77
09:10:05.168,-1.21,-1.785
09:10:05.172,-0.955,-1.59
09:10:05.176,-0.705,-1.28
09:10:05.180,-0.53,-0.925
09:10:05.184,-0.43,-0.74
09:10:05.188,-0.375,-0.645
09:10:05.192,-0.34,-0.385
09:10:05.196,-0.295,-0.1
09:10:05.200,-0.28,0.06
09:10:05.204,-0.24,-0.005
09:10:05.208,-0.17,-0.06
09:10:05.212,-0.125,0
09:10:05.216,-0.095,0.13
09:10:05.220,-0.09,0.15
09:10:05.224,-0.07,0.055
09:10:05.228,-0.035,0.105
09:10:05.232,-0.02,0.15
09:10:05.236,-0.05,0.09
09:10:05.240,-0.085,0.09
09:10:05.244,-0.115,0.15
09:10:05.248,-0.09,0.285
09:10:05.252,-0.125,0.31
09:10:05.256,-0.17,0.125
09:10:05.260,-0.205,0.105
09:10:05.264,-0.23,0.22
09:10:05.268,-0.215,0.225
09:10:05.272,-0.285,0.15
09:10:05.276,-0.33,0.18
09:10:05.280,-0.345,0.26
09:10:05.284,-0.35,0.16
09:10:05.288,-0.385,0.045
09:10:05.292,-0.39,0.095
09:10:05.296,-0.425,0.19
09:10:05.300,-0.465,0.135
09:10:05.304,-0.445,0.145
09:10:05.308,-0.475,0.105
09:10:05.312,-0.505,-0.04
09:10:05.316,-0.49,-0.065
09:10:05.320,-0.505,0
09:10:05.324,-0.55,0.015
09:10:05.328,-0.55,0.025
09:10:05.332,-0.555,0.07
09:10:05.336,-0.56,0.055
09:10:05.340,-0.58,-0.03
09:10:05.344,-0.545,-0.065
09:10:05.348,-0.51,-0.06
09:10:05.352,-0.51,-0.095
09:10:05.356,-0.475,-0.09
09:10:05.360,-0.485,-0.035
09:10:05.364,-0.46,-0.04
09:10:05.368,-0.45,-0.045
09:10:05.372,-0.435,-0.055
09:10:05.376,-0.41,-0.05
09:10:05.380,-0.385,0.075
09:10:05.384,-0.32,0.175
09:10:05.388,-0.295,-0.025
09:10:05.392,-0.265,-0.17
09:10:05.396,-0.22,-0.07
09:10:05.400,-0.16,0.015
09:10:05.404,-0.06,0.015
09:10:05.408,0.025,0
09:10:05.412,0.12,-0.005
09:10:05.416,0.14,0.005
09:10:05.420,0.16,0.08
09:10:05.424,0.155,0.185
09:10:05.428,0.185,0.195
09:10:05.432,0.23,0.18
09:10:05.436,0.25,0.2
09:10:05.440,0.25,0.16
09:10:05.444,0.25,0.3
09:10:05.448,0.245,0.41
09:10:05.452,0.205,0.42
09:10:05.456,0.19,0.32
09:10:05.460,0.17,0.275
09:10:05.464,0.145,0.315
09:10:05.468,0.12,0.37
09:10:05.472,0.1,0.41
09:10:05.476,0.08,0.315
09:10:05.480,0.07,0.235
09:10:05.484,0.045,0.26
09:10:05.488,0.005,0.32
09:10:05.492,0.02,0.37
09:10:05.496,0.035,0.295
09:10:05.500,0.04,0.135
09:10:05.504,0.01,0.155
09:10:05.508,-0.025,0.25
09:10:05.512,-0.04,0.225
09:10:05.516,-0.09,0.245
09:10:05.520,-0.08,0.22
09:10:05.524,-0.12,0.105
09:10:05.528,-0.115,0.095
09:10:05.532,-0.095,0.125
09:10:05.536,-0.11,0.175
09:10:05.540,-0.115,0.14
09:10:05.544,-0.08,0.09
09:10:05.548,-0.055,0.13
09:10:05.552,0.015,0.17
09:10:05.556,0.1,0.145
09:10:05.560,0.24,0.07
09:10:05.564,0.4,0.12
09:10:05.568,0.595,0.165
09:10:05.572,0.745,0.14
09:10:05.576,0.82,-0.05
09:10:05.580,0.805,-0.5
09:10:05.584,0.245,-0.985
09:10:05.588,-0.735,-1.28
09:10:05.592,-1.465,-1.52
09:10:05.596,-1.735,-1.68
09:10:05.600,-1.615,-1.82
09:10:05.604,-1.315,-1.945
09:10:05.608,-0.925,-1.985
09:10:05.612,-0.6,-1.74
09:10:05.616,-0.38,-1.295
09:10:05.620,-0.235,-0.82
09:10:05.624,-0.15,-0.545
09:10:05.628,-0.085,-0.35
09:10:05.632,-0.06,-0.24
09:10:05.636,-0.025,-0.065
09:10:05.640,-0.03,0.09
09:10:05.644,-0.055,0.175
09:10:05.648,-0.075,0.28
09:10:05.652,-0.115,0.255
09:10:05.656,-0.12,0.22
09:10:05.660,-0.165,0.21
09:10:05.664,-0.15,0.21
09:10:05.668,-0.135,0.205
09:10:05.672,-0.155,0.225
09:10:05.676,-0.165,0.32
09:10:05.680,-0.185,0.37
09:10:05.684,-0.205,0.355
09:10:05.688,-0.2,0.325
09:10:05.692,-0.19,0.135
09:10:05.696,-0.21,0
09:10:05.700,-0.245,0.12
09:10:05.704,-0.265,0.205
09:10:05.708,-0.3,0.28
09:10:05.712,-0.3,0.25
09:10:05.716,-0.325,0.15
09:10:05.720,-0.34,0.1
09:10:05.724,-0.37,0.12
09:10:05.728,-0.365,0.145
09:10:05.732,-0.385,0.175
09:10:05.736,-0.42,0.215
09:10:05.740,-0.465,0.24
09:10:05.744,-0.48,0.185
09:10:05.748,-0.495,0.135
09:10:05.752,-0.505,0.11
09:10:05.756,-0.565,0.17
09:10:05.760,-0.605,0.27
09:10:05.764,-0.61,0.325
09:10:05.768,-0.595,0.15
09:10:05.772,-0.6,0.005
09:10:05.776,-0.605,0.11
09:10:05.780,-0.575,0.145
09:10:05.784,-0.54,0.17
09:10:05.788,-0.49,0.14
09:10:05.792,-0.44,0.05
09:10:05.796,-0.39,0.07
09:10:05.800,-0.335,0.14
09:10:05.804,-0.31,0.14
09:10:05.808,-0.24,0.17
09:10:05.812,-0.16,0.16
09:10:05.816,-0.055,0.115
09:10:05.820,0.035,0.115
09:10:05.824,0.09,0.145
09:10:05.828,0.135,0.19
09:10:05.832,0.16,0.245
09:10:05.836,0.14,0.205
09:10:05.840,0.125,0.2
09:10:05.844,0.12,0.2
09:10:05.848,0.065,0.22
09:10:05.852,0.055,0.31
09:10:05.856,0.025,0.335
09:10:05.860,0.015,0.21
09:10:05.864,0,0.185
09:10:05.868,0.005,0.225
09:10:05.872,-0.005,0.255
09:10:05.876,0.02,0.255
09:10:05.880,0.005,0.25
09:10:05.884,0.005,0.26
09:10:05.888,-0.005,0.28
09:10:05.892,-0.005,0.225
09:10:05.896,-0.03,0.14
09:10:05.900,-0.04,0.23
09:10:05.904,-0.07,0.215
09:10:05.908,-0.085,0.22
09:10:05.912,-0.06,0.22
09:10:05.916,-0.07,0.235
09:10:05.920,-0.04,0.205
09:10:05.924,-0.045,0.22
09:10:05.928,-0.06,0.265
09:10:05.932,-0.03,0.235
09:10:05.936,-0.075,0.23
09:10:05.940,-0.09,0.265
09:10:05.944,-0.095,0.26
09:10:05.948,-0.11,0.13
09:10:05.952,-0.1,0.085
09:10:05.956,-0.11,0.11
09:10:05.960,-0.11,0.19
09:10:05.964,-0.085,0.22
09:10:05.968,-0.085,0.19
09:10:05.972,-0.035,0.145
09:10:05.976,0.1,0.195
09:10:05.980,0.35,0.25
09:10:05.984,0.7,0.185
09:10:05.988,0.9,0.12
09:10:05.992,0.99,-0.01
09:10:05.996,0.95,-0.155
09:10:06.000,0.55,-0.435
09:10:06.004,-0.38,-0.8
09:10:06.008,-1.265,-1.09
09:10:06.012,-1.65,-1.31
09:10:06.016,-1.58,-1.56
09:10:06.020,-1.335,-1.71
09:10:06.024,-1.02,-1.78
09:10:06.028,-0.68,-1.8
09:10:06.032,-0.42,-1.47
09:10:06.036,-0.255,-1.045
09:10:06.040,-0.16,-0.715
09:10:06.044,-0.105,-0.385
09:10:06.048,-0.085,-0.19
09:10:06.052,-0.04,-0.08
09:10:06.056,-0.05,0.11
09:10:06.060,-0.065,0.245
09:10:06.064,-0.11,0.27
09:10:06.068,-0.1,0.26
09:10:06.072,-0.08,0.215
09:10:06.076,-0.13,0.18
09:10:06.080,-0.12,0.215
09:10:06.084,-0.15,0.275
09:10:06.088,-0.17,0.325
09:10:06.092,-0.18,0.35
09:10:06.096,-0.24,0.24
09:10:06.100,-0.27,0.105
09:10:06.104,-0.275,0.1
09:10:06.108,-0.25,0.165
09:10:06.112,-0.27,0.19
09:10:06.116,-0.3,0.14
09:10:06.120,-0.295,0.115
09:10:06.124,-0.32,0.185
09:10:06.128,-0.35,0.175
09:10:06.132,-0.385,0.14
09:10:06.136,-0.395,0.145
09:10:06.140,-0.435,0.095
09:10:06.144,-0.49,0.07
09:10:06.148,-0.475,0.14
09:10:06.152,-0.505,0.14
09:10:06.156,-0.53,0.03
09:10:06.160,-0.51,-0.005
09:10:06.164,-0.525,0.02
09:10:06.168,-0.545,0.05
09:10:06.172,-0.545,0.095
09:10:06.176,-0.525,0.115
09:10:06.180,-0.54,0.12
09:10:06.184,-0.55,0.13
09:10:06.188,-0.525,0.07
09:10:06.192,-0.48,0.04
09:10:06.196,-0.425,0.125
09:10:06.200,-0.42,0.21
09:10:06.204,-0.36,0.23
09:10:06.208,-0.29,0.125
09:10:06.212,-0.215,0.045
09:10:06.216,-0.205,0.105
09:10:06.220,-0.135,0.17
09:10:06.224,-0.08,0.21
09:10:06.228,-0.04,0.22
09:10:06.232,-0.01,0.245
09:10:06.236,-0.01,0.27
09:10:06.240,0.05,0.3
09:10:06.244,0.055,0.325
09:10:06.248,0.085,0.335
09:10:06.252,0.08,0.295
09:10:06.256,0.095,0.275
09:10:06.260,0.115,0.305
09:10:06.264,0.12,0.33
09:10:06.268,0.125,0.325
09:10:06.272,0.135,0.325
09:10:06.276,0.105,0.32
09:10:06.280,0.065,0.365
09:10:06.284,0.06,0.355
09:10:06.288,0.045,0.265
09:10:06.292,0.005,0.24
09:10:06.296,0,0.285
09:10:06.300,0.025,0.33
09:10:06.304,0.03,0.29
09:10:06.308,0.03,0.225
09:10:06.312,0.025,0.24
09:10:06.316,0.01,0.225
09:10:06.320,-0.005,0.23
09:10:06.324,-0.04,0.29
09:10:06.328,-0.03,0.24
09:10:06.332,-0.065,0.225
09:10:06.336,-0.095,0.21
09:10:06.340,-0.1,0.255
09:10:06.344,-0.11,0.32
09:10:06.348,-0.09,0.24
09:10:06.352,-0.075,0.155
09:10:06.356,-0.05,0.185
09:10:06.360,-0.03,0.21
09:10:06.364,-0.045,0.22
09:10:06.368,-0.05,0.2
09:10:06.372,-0.02,0.26
09:10:06.376,-0.04,0.225
09:10:06.380,-0.05,0.24
09:10:06.384,-0.035,0.26
09:10:06.388,-0.015,0.19
09:10:06.392,0.015,0.155
09:10:06.396,0.04,0.155
09:10:06.400,0.035,0.165
09:10:06.404,0.035,0.25
09:10:06.408,0.015,0.26
09:10:06.412,0,0.2
09:10:06.416,-0.005,0.255
09:10:06.420,-0.01,0.26
09:10:06.424,-0.025,0.235
09:10:06.428,-0.015,0.185
09:10:06.432,0.005,0.19
09:10:06.436,0.01,0.19
09:10:06.440,0.01,0.205
09:10:06.444,0.065,0.225
09:10:06.448,0.165,0.25
09:10:06.452,0.305,0.28
09:10:06.456,0.56,0.325
09:10:06.460,0.875,0.29
09:10:06.464,1.115,0.205
09:10:06.468,1.15,0.165
09:10:06.472,1.075,0.055
09:10:06.476,0.61,-0.26
09:10:06.480,-0.33,-0.745
09:10:06.484,-1.305,-1.285
09:10:06.488,-1.72,-1.64
09:10:06.492,-1.72,-1.815
09:10:06.496,-1.5,-1.975
09:10:06.500,-1.195,-2.005
09:10:06.504,-0.84,-1.915
09:10:06.508,-0.575,-1.725
09:10:06.512,-0.44,-1.375
09:10:06.516,-0.355,-0.98
09:10:06.520,-0.28,-0.67
09:10:06.524,-0.285,-0.385
09:10:06.528,-0.285,-0.21
09:10:06.532,-0.265,-0.095
09:10:06.536,-0.225,-0.005
09:10:06.540,-0.225,0
09:10:06.544,-0.2,0
09:10:06.548,-0.17,0.02
09:10:06.552,-0.17,0.06
09:10:06.556,-0.18,0.06
09:10:06.560,-0.16,0.055
09:10:06.564,-0.15,0.08
09:10:06.568,-0.185,0.105
09:10:06.572,-0.19,0.155
09:10:06.576,-0.2,0.22
09:10:06.580,-0.205,0.19
09:10:06.584,-0.24,0.03
09:10:06.588,-0.235,-0.01
09:10:06.592,-0.26,0.065
09:10:06.596,-0.26,0.11
09:10:06.600,-0.285,0.18
09:10:06.604,-0.285,0.195
09:10:06.608,-0.305,0.195
09:10:06.612,-0.365,0.14
09:10:06.616,-0.4,0.11
09:10:06.620,-0.435,0.115
09:10:06.624,-0.455,0.15
09:10:06.628,-0.465,0.18
09:10:06.632,-0.455,0.185
09:10:06.636,-0.44,0.145
09:10:06.640,-0.455,0.15
09:10:06.644,-0.46,0.205
09:10:06.648,-0.495,0.225
09:10:06.652,-0.52,0.215
09:10:06.656,-0.535,0.285
09:10:06.660,-0.575,0.365
09:10:06.664,-0.615,0.115
09:10:06.668,-0.625,0
09:10:06.672,-0.62,0.05
09:10:06.676,-0.62,0.03
09:10:06.680,-0.61,0.01
09:10:06.684,-0.615,0.055
09:10:06.688,-0.59,0.015
09:10:06.692,-0.535,0.03
09:10:06.696,-0.495,0.095
09:10:06.700,-0.455,0.095
09:10:06.704,-0.39,0.045
09:10:06.708,-0.35,0.045
09:10:06.712,-0.32,0.06
09:10:06.716,-0.255,0.085
09:10:06.720,-0.16,0.08
09:10:06.724,-0.095,0.135
09:10:06.728,-0.06,0.165
09:10:06.732,-0.03,0.17
09:10:06.736,0.02,0.21
09:10:06.740,0.08,0.295
09:10:06.744,0.14,0.28
09:10:06.748,0.18,0.235
09:10:06.752,0.195,0.155
09:10:06.756,0.205,0.145
09:10:06.760,0.23,0.2
09:10:06.764,0.215,0.23
09:10:06.768,0.21,0.28
09:10:06.772,0.18,0.265
09:10:06.776,0.165,0.215
09:10:06.780,0.15,0.25
09:10:06.784,0.17,0.305
09:10:06.788,0.16,0.315
09:10:06.792,0.155,0.315
09:10:06.796,0.14,0.305
09:10:06.800,0.105,0.31
09:10:06.804,0.08,0.32
09:10:06.808,0.065,0.295
09:10:06.812,0.035,0.3
09:10:06.816,0.03,0.32
09:10:06.820,0.035,0.275
09:10:06.824,0.01,0.245
09:10:06.828,0.005,0.27
09:10:06.832,0.01,0.295
09:10:06.836,-0.01,0.25
09:10:06.840,-0.035,0.265
09:10:06.844,-0.02,0.3
09:10:06.848,0.01,0.27
09:10:06.852,0,0.16
09:10:06.856,-0.01,0.085
09:10:06.860,-0.075,0.145
09:10:06.864,-0.06,0.215
09:10:06.868,-0.05,0.28
09:10:06.872,-0.025,0.335
09:10:06.876,-0.02,0.185
09:10:06.880,-0.03,0.05
09:10:06.884,-0.055,0.09
09:10:06.888,-0.055,0.1
09:10:06.892,-0.03,0.15
09:10:06.896,-0.025,0.14
09:10:06.900,-0.005,0.085
09:10:06.904,-0.02,0.08
09:10:06.908,-0.05,0.105
09:10:06.912,-0.025,0.17
09:10:06.916,-0.025,0.2
09:10:06.920,-0.02,0.185
09:10:06.924,-0.035,0.155
09:10:06.928,-0.05,0.165
09:10:06.932,-0.015,0.245
09:10:06.936,0.01,0.28
09:10:06.940,0.025,0.075
09:10:06.944,0.06,-0.01
09:10:06.948,0.075,0.075
09:10:06.952,0.06,0.11
09:10:06.956,0.035,0.17
09:10:06.960,0.065,0.175
09:10:06.964,0.06,0.185
09:10:06.968,0.045,0.155
09:10:06.972,0.025,0.18
09:10:06.976,0.025,0.185
09:10:06.980,0.03,0.215
09:10:06.984,0.04,0.195
09:10:06.988,0.03,0.215
09:10:06.992,0.02,0.26
09:10:06.996,0,0.205
09:10:07.000,0.005,0.22
09:10:07.004,-0.01,0.31
09:10:07.008,-0.04,0.215
09:10:07.012,-0.065,0.08
09:10:07.016,-0.075,0.125
09:10:07.020,-0.08,0.175
09:10:07.024,-0.09,0.205
09:10:07.028,-0.065,0.245
09:10:07.032,-0.07,0.2
09:10:07.036,-0.08,0.135
09:10:07.040,-0.08,0.115
09:10:07.044,-0.095,0.085
09:10:07.048,-0.12,0.095
09:10:07.052,-0.145,0.115
09:10:07.056,-0.145,0.11
09:10:07.060,-0.12,0.06
09:10:07.064,-0.095,0.045
09:10:07.068,-0.03,0.055
09:10:07.072,0.04,0.075
09:10:07.076,0.125,0.125
09:10:07.080,0.235,0.23
09:10:07.084,0.445,0.285
09:10:07.088,0.755,0.265
09:10:07.092,1.05,0.14
09:10:07.096,1.215,0.03
09:10:07.100,1.29,-0.005
09:10:07.104,1.105,-0.235
09:10:07.108,0.35,-0.69
09:10:07.112,-0.68,-1.09
09:10:07.116,-1.34,-1.405
09:10:07.120,-1.48,-1.62
09:10:07.124,-1.365,-1.785
09:10:07.128,-1.12,-1.92
09:10:07.132,-0.815,-1.915
09:10:07.136,-0.515,-1.765
09:10:07.140,-0.295,-1.46
09:10:07.144,-0.16,-1.055
09:10:07.148,-0.1,-0.75
09:10:07.152,-0.025,-0.48
09:10:07.156,-0.005,-0.21
09:10:07.160,-0.045,-0.07
09:10:07.164,-0.03,0.005
09:10:07.168,-0.055,0.08
09:10:07.172,-0.05,0.115
09:10:07.176,-0.045,0.16
09:10:07.180,-0.04,0.225
09:10:07.184,-0.03,0.21
09:10:07.188,-0.075,0.14
09:10:07.192,-0.12,0.15
09:10:07.196,-0.12,0.155
09:10:07.200,-0.135,0.2
09:10:07.204,-0.17,0.14
09:10:07.208,-0.19,0.075
09:10:07.212,-0.19,0.1
09:10:07.216,-0.2,0.115
09:10:07.220,-0.25,0.125
09:10:07.224,-0.24,0.13
09:10:07.228,-0.245,0.1
09:10:07.232,-0.275,0.145
09:10:07.236,-0.28,0.145
09:10:07.240,-0.315,0.12
09:10:07.244,-0.365,0.15
09:10:07.248,-0.405,0.21
09:10:07.252,-0.425,0.235
09:10:07.256,-0.435,0.18
09:10:07.260,-0.455,0.045
09:10:07.264,-0.47,0.03
09:10:07.268,-0.475,0.125
09:10:07.272,-0.495,0.11
09:10:07.276,-0.485,0.045
09:10:07.280,-0.485,0.05
09:10:07.284,-0.48,0.01
09:10:07.288,-0.49,-0.07
09:10:07.292,-0.5,-0.085
09:10:07.296,-0.52,-0.04
09:10:07.300,-0.535,0
09:10:07.304,-0.495,0.005
09:10:07.308,-0.495,-0.02
09:10:07.312,-0.495,-0.01
09:10:07.316,-0.48,0
09:10:07.320,-0.445,0.03
09:10:07.324,-0.37,0.005
09:10:07.328,-0.32,-0.04
09:10:07.332,-0.275,-0.025
09:10:07.336,-0.25,0
09:10:07.340,-0.23,0.065
09:10:07.344,-0.22,0.07
09:10:07.348,-0.21,0.095
09:10:07.352,-0.165,0.115
09:10:07.356,-0.145,0.05
09:10:07.360,-0.11,0.065
09:10:07.364,-0.045,0.155
09:10:07.368,0,0.145
09:10:07.372,0.04,0.11
09:10:07.376,0.09,0.11
09:10:07.380,0.105,0.095
09:10:07.384,0.12,0.155
09:10:07.388,0.11,0.205
09:10:07.392,0.1,0.23
09:10:07.396,0.1,0.205
09:10:07.400,0.12,0.1
09:10:07.404,0.095,0.13
09:10:07.408,0.085,0.185
09:10:07.412,0.08,0.26
09:10:07.416,0.07,0.315
09:10:07.420,0.065,0.34
09:10:07.424,0.05,0.285
09:10:07.428,0.04,0.215
09:10:07.432,0.055,0.24
09:10:07.436,0.055,0.3
09:10:07.440,0.02,0.295
09:10:07.444,-0.015,0.275
09:10:07.448,-0.02,0.225
09:10:07.452,-0.035,0.175
09:10:07.456,-0.035,0.23
09:10:07.460,-0.025,0.28
09:10:07.464,-0.045,0.21
09:10:07.468,-0.04,0.155
09:10:07.472,-0.01,0.155
09:10:07.476,0.01,0.155
09:10:07.480,0.055,0.125
09:10:07.484,0.095,0.135
09:10:07.488,0.095,0.115
09:10:07.492,0.105,0.095
09:10:07.496,0.11,0.16
09:10:07.500,0.12,0.23
09:10:07.504,0.11,0.2
09:10:07.508,0.135,0.16
09:10:07.512,0.155,0.19
09:10:07.516,0.185,0.11
09:10:07.520,0.27,0.1
09:10:07.524,0.315,0.135
09:10:07.528,0.335,0.165
09:10:07.532,0.425,0.165
09:10:07.536,0.66,0.165
09:10:07.540,0.955,0.18
09:10:07.544,1.195,0.065
09:10:07.548,1.35,-0.12
09:10:07.552,1.355,-0.23
09:10:07.556,0.765,-0.48
09:10:07.560,-0.285,-0.85
09:10:07.564,-1.2,-1.275
09:10:07.568,-1.575,-1.615
09:10:07.572,-1.515,-1.81
09:10:07.576,-1.28,-1.975
09:10:07.580,-1.015,-2.07
09:10:07.584,-0.7,-2.05
09:10:07.588,-0.49,-1.815
09:10:07.592,-0.32,-1.43
09:10:07.596,-0.24,-0.965
09:10:07.600,-0.165,-0.63
09:10:07.604,-0.155,-0.475
09:10:07.608,-0.135,-0.34
09:10:07.612,-0.12,-0.17
09:10:07.616,-0.12,-0.075
09:10:07.620,-0.115,-0.03
09:10:07.624,-0.1,0.07
09:10:07.628,-0.11,0.005
09:10:07.632,-0.115,-0.095
09:10:07.636,-0.16,-0.055
09:10:07.640,-0.19,0.05
09:10:07.644,-0.195,0.055
09:10:07.648,-0.19,-0.015
09:10:07.652,-0.175,-0.095
09:10:07.656,-0.165,-0.025
09:10:07.660,-0.175,0
09:10:07.664,-0.18,0.03
09:10:07.668,-0.155,0.065
09:10:07.672,-0.15,0.04
09:10:07.676,-0.155,0.035
09:10:07.680,-0.21,0.07
09:10:07.684,-0.225,0.125
09:10:07.688,-0.23,0.165
09:10:07.692,-0.25,0.145
09:10:07.696,-0.265,0.05
09:10:07.700,-0.24,-0.055
09:10:07.704,-0.235,-0.005
09:10:07.708,-0.235,0.045
09:10:07.712,-0.195,0.035
09:10:07.716,-0.21,0.01
09:10:07.720,-0.21,-0.01
09:10:07.724,-0.22,-0.015
09:10:07.728,-0.26,-0.02
09:10:07.732,-0.285,0.02
09:10:07.736,-0.305,0.035
09:10:07.740,-0.33,0.01
09:10:07.744,-0.355,0.01
09:10:07.748,-0.4,0.055
09:10:07.752,-0.42,0.09
09:10:07.756,-0.395,0
09:10:07.760,-0.365,-0.12
09:10:07.764,-0.34,-0.13
09:10:07.768,-0.31,-0.12
09:10:07.772,-0.27,-0.095
09:10:07.776,-0.23,-0.1
09:10:07.780,-0.175,-0.095
09:10:07.784,-0.14,-0.025
09:10:07.788,-0.135,-0.05
09:10:07.792,-0.09,-0.045
09:10:07.796,-0.07,-0.01
09:10:07.800,-0.03,0
09:10:07.804,0,-0.025
09:10:07.808,0.01,-0.085
09:10:07.812,0.025,-0.085
09:10:07.816,0.055,-0.05
09:10:07.820,0.045,0.02
09:10:07.824,0.055,0.04
09:10:07.828,0.045,0.055
09:10:07.832,0.02,0.13
09:10:07.836,0.005,0.15
09:10:07.840,0.015,0.1
09:10:07.844,0.03,0.05
09:10:07.848,0.03,0.04
09:10:07.852,0.03,0.115
09:10:07.856,0.045,0.195
09:10:07.860,0.045,0.23
09:10:07.864,0.08,0.11
09:10:07.868,0.12,0.055
09:10:07.872,0.19,0.125
09:10:07.876,0.305,0.155
09:10:07.880,0.465,0.215
09:10:07.884,0.645,0.235
09:10:07.888,0.915,0.185
09:10:07.892,1.22,0.11
09:10:07.896,1.495,0.06
09:10:07.900,1.705,0
09:10:07.904,1.66,-0.215
09:10:07.908,0.95,-0.77
09:10:07.912,-0.205,-1.31
09:10:07.916,-0.95,-1.74
09:10:07.920,-1.085,-1.98
09:10:07.924,-0.93,-2.19
09:10:07.928,-0.705,-2.305
09:10:07.932,-0.45,-2.27
09:10:07.936,-0.285,-2.01
09:10:07.940,-0.17,-1.56
09:10:07.944,-0.125,-0.995
09:10:07.948,-0.085,-0.53
09:10:07.952,-0.09,-0.245
09:10:07.956,-0.07,-0.155
09:10:07.960,-0.07,-0.205
09:10:07.964,-0.03,-0.18
09:10:07.968,-0.065,-0.095
09:10:07.972,-0.08,-0.005
09:10:07.976,-0.13,0.01
09:10:07.980,-0.155,0.04
09:10:07.984,-0.17,0.06
09:10:07.988,-0.2,0.035
09:10:07.992,-0.19,0.02
09:10:07.996,-0.195,0.045
09:10:08.000,-0.195,0.07
09:10:08.004,-0.155,0.07
09:10:08.008,-0.18,0.09
09:10:08.012,-0.22,0.105
09:10:08.016,-0.235,0.145
09:10:08.020,-0.225,0.13
09:10:08.024,-0.24,0.115
09:10:08.028,-0.225,0.095
09:10:08.032,-0.23,0.095
09:10:08.036,-0.245,0.1
09:10:08.040,-0.265,0.14
09:10:08.044,-0.26,0.215
09:10:08.048,-0.26,0.275
09:10:08.052,-0.24,0.23
09:10:08.056,-0.25,0.115
09:10:08.060,-0.27,0.055
09:10:08.064,-0.27,0.105
09:10:08.068,-0.27,0.155
09:10:08.072,-0.28,0.21
09:10:08.076,-0.295,0.23
09:10:08.080,-0.315,0.145
09:10:08.084,-0.335,0.125
09:10:08.088,-0.36,0.16
09:10:08.092,-0.365,0.18
09:10:08.096,-0.335,0.2
09:10:08.100,-0.34,0.225
09:10:08.104,-0.35,0.215
09:10:08.108,-0.335,0.225
09:10:08.112,-0.265,0.215
09:10:08.116,-0.23,0.265
09:10:08.120,-0.175,0.29
09:10:08.124,-0.16,0.28
09:10:08.128,-0.095,0.215
09:10:08.132,-0.05,0.26
09:10:08.136,-0.015,0.3
09:10:08.140,-0.005,0.35
09:10:08.144,0.03,0.38
09:10:08.148,0.09,0.42
09:10:08.152,0.1,0.39
09:10:08.156,0.115,0.24
09:10:08.160,0.09,0.2
09:10:08.164,0.095,0.215
09:10:08.168,0.07,0.22
09:10:08.172,0.035,0.26
09:10:08.176,0.005,0.24
09:10:08.180,0.01,0.155
09:10:08.184,-0.01,0.14
09:10:08.188,-0.035,0.145
09:10:08.192,-0.02,0.185
09:10:08.196,-0.015,0.175
09:10:08.200,-0.005,0.15
09:10:08.204,0.015,0.115
09:10:08.208,0,0.045
09:10:08.212,-0.015,0.02
09:10:08.216,-0.015,0.085
09:10:08.220,-0.005,0.06
09:10:08.224,0,0.05
09:10:08.228,-0.025,0.09
09:10:08.232,-0.01,0.195
09:10:08.236,-0.005,0.05
09:10:08.240,-0.015,-0.055
09:10:08.244,0.035,-0.005
09:10:08.248,0.075,0.05
09:10:08.252,0.085,0.06
09:10:08.256,0.095,0.09
09:10:08.260,0.09,0.075
09:10:08.264,0.06,0.105
09:10:08.268,0.045,0.09
09:10:08.272,0.025,0.055
09:10:08.276,0.015,0.095
09:10:08.280,0.025,0.13
09:10:08.284,0.01,0.09
09:10:08.288,0.01,0.055
09:10:08.292,0.045,0.065
09:10:08.296,0.07,0.095
09:10:08.300,0.1,0.1
09:10:08.304,0.16,0.105
09:10:08.308,0.4,0.085
09:10:08.312,0.755,0.12
09:10:08.316,1.035,0.075
09:10:08.320,1.205,-0.005
09:10:08.324,1.225,-0.055
09:10:08.328,0.82,-0.305
09:10:08.332,-0.12,-0.59
09:10:08.336,-1.145,-0.98
09:10:08.340,-1.64,-1.405
09:10:08.344,-1.675,-1.66
09:10:08.348,-1.5,-1.89
09:10:08.352,-1.28,-2.015
09:10:08.356,-0.97,-1.94
09:10:08.360,-0.67,-1.835
09:10:08.364,-0.435,-1.565
09:10:08.368,-0.31,-1.21
09:10:08.372,-0.24,-0.945
09:10:08.376,-0.19,-0.665
09:10:08.380,-0.155,-0.445
09:10:08.384,-0.185,-0.285
09:10:08.388,-0.185,-0.145
09:10:08.392,-0.185,-0.05
09:10:08.396,-0.19,-0.02
09:10:08.400,-0.19,0
09:10:08.404,-0.205,0.01
09:10:08.408,-0.2,-0.02
09:10:08.412,-0.23,-0.05
09:10:08.416,-0.255,-0.04
09:10:08.420,-0.24,-0.04
09:10:08.424,-0.22,-0.05
09:10:08.428,-0.215,-0.095
09:10:08.432,-0.215,-0.09
09:10:08.436,-0.19,-0.04
09:10:08.440,-0.17,0.07
09:10:08.444,-0.17,0.06
09:10:08.448,-0.16,-0.02
09:10:08.452,-0.145,0.015
09:10:08.456,-0.175,0.055
09:10:08.460,-0.205,0
09:10:08.464,-0.26,0.045
09:10:08.468,-0.27,0.1
09:10:08.472,-0.305,0.055
09:10:08.476,-0.325,-0.01
09:10:08.480,-0.355,-0.04
09:10:08.484,-0.38,-0.025
09:10:08.488,-0.385,0.025
09:10:08.492,-0.375,0.1
09:10:08.496,-0.42,0.07
09:10:08.500,-0.43,0.065
09:10:08.504,-0.41,0.035
09:10:08.508,-0.435,0.015
09:10:08.512,-0.45,0.065
09:10:08.516,-0.455,0.045
09:10:08.520,-0.44,0.005
09:10:08.524,-0.405,-0.02
09:10:08.528,-0.385,-0.055
09:10:08.532,-0.37,-0.03
09:10:08.536,-0.335,0.08
09:10:08.540,-0.285,0.135
09:10:08.544,-0.245,0.09
09:10:08.548,-0.21,0.05
09:10:08.552,-0.175,-0.005
09:10:08.556,-0.1,0.04
09:10:08.560,-0.08,0.075
09:10:08.564,-0.03,0.025
09:10:08.568,-0.025,-0.03
09:10:08.572,0.005,0.025
09:10:08.576,0.07,0.05
09:10:08.580,0.115,0.075
09:10:08.584,0.135,0.085
09:10:08.588,0.165,0.095
09:10:08.592,0.135,0.15
09:10:08.596,0.115,0.15
09:10:08.600,0.12,0.09
09:10:08.604,0.13,0.055
09:10:08.608,0.125,0.065
09:10:08.612,0.095,0.08
09:10:08.616,0.08,0.075
09:10:08.620,0.09,0.11
09:10:08.624,0.07,0.14
09:10:08.628,0.055,0.215
09:10:08.632,0.06,0.285
09:10:08.636,0.075,0.26
09:10:08.640,0.075,0.16
09:10:08.644,0.11,0.04
09:10:08.648,0.1,0.02
09:10:08.652,0.035,0.1
09:10:08.656,-0.01,0.155
09:10:08.660,0,0.22
09:10:08.664,0.05,0.165
09:10:08.668,0.01,0.035
09:10:08.672,0.01,0.045
09:10:08.676,0.01,0.13
09:10:08.680,0.015,0.165
09:10:08.684,0.015,0.175
09:10:08.688,-0.005,0.165
09:10:08.692,-0.02,0.195
09:10:08.696,-0.02,0.185
09:10:08.700,-0.03,0.12
09:10:08.704,-0.05,0.055
09:10:08.708,-0.08,0.075
09:10:08.712,-0.08,0.08
09:10:08.716,-0.11,0.19
09:10:08.720,-0.12,0.195
09:10:08.724,-0.11,0.025
09:10:08.728,-0.07,-0.065
09:10:08.732,-0.06,-0.04
09:10:08.736,-0.08,0.04
09:10:08.740,-0.09,0.09
09:10:08.744,-0.1,0.145
09:10:08.748,-0.08,0.12
09:10:08.752,-0.09,0.01
09:10:08.756,-0.09,0.055
09:10:08.760,-0.07,0.135
09:10:08.764,-0.04,0.175
09:10:08.768,-0.02,0.09
09:10:08.772,-0.025,-0.01
09:10:08.776,-0.07,0.04
09:10:08.780,-0.045,0.13
09:10:08.784,-0.045,0.215
09:10:08.788,-0.015,0.165
09:10:08.792,-0.04,0.03
09:10:08.796,-0.05,-0.02
09:10:08.800,-0.035,-0.04
09:10:08.804,-0.05,-0.05
09:10:08.808,-0.025,-0.035
09:10:08.812,-0.02,0.06
09:10:08.816,-0.075,0.02
09:10:08.820,-0.08,0.05
09:10:08.824,-0.04,0.04
09:10:08.828,-0.015,-0.03
09:10:08.832,0,-0.14
09:10:08.836,-0.005,-0.13
09:10:08.840,-0.02,-0.07
09:10:08.844,-0.03,0
09:10:08.848,-0.05,-0.005
09:10:08.852,-0.065,-0.01
09:10:08.856,-0.035,-0.02
09:10:08.860,-0.035,0
09:10:08.864,-0.07,0.04
09:10:08.868,-0.04,-0.005
09:10:08.872,-0.015,-0.075
09:10:08.876,-0.05,-0.05
09:10:08.880,-0.095,-0.005
09:10:08.884,-0.125,0
09:10:08.888,-0.125,0.065
09:10:08.892,-0.145,0.115
09:10:08.896,-0.155,0.015
09:10:08.900,-0.17,-0.06
09:10:08.904,-0.175,-0.065
09:10:08.908,-0.175,-0.025
09:10:08.912,-0.18,-0.025
09:10:08.916,-0.185,0.025
09:10:08.920,-0.195,0.055
09:10:08.924,-0.2,-0.055
09:10:08.928,-0.2,-0.145
09:10:08.932,-0.185,-0.06
09:10:08.936,-0.19,0.005
09:10:08.940,-0.205,0
09:10:08.944,-0.22,0
09:10:08.948,-0.245,0.015
09:10:08.952,-0.245,-0.035
09:10:08.956,-0.23,-0.075
09:10:08.960,-0.215,-0.005
09:10:08.964,-0.21,0.11
09:10:08.968,-0.19,0.085
09:10:08.972,-0.2,-0.05
09:10:08.976,-0.195,-0.16
09:10:08.980,-0.19,-0.09
09:10:08.984,-0.185,0
09:10:08.988,-0.175,0.06
09:10:08.992,-0.185,0.065
09:10:08.996,-0.2,0.015
09:10:09.000,-0.14,-0.055
09:10:09.004,-0.095,-0.085
09:10:09.008,-0.04,-0.06
09:10:09.012,-0.015,-0.015
09:10:09.016,0.02,0.025
09:10:09.020,0.07,0.12
09:10:09.024,0.085,0.205
09:10:09.028,0.1,0.24
09:10:09.032,0.19,0.12
09:10:09.036,0.275,0.025
09:10:09.040,0.345,0.005
09:10:09.044,0.49,0.06
09:10:09.048,0.75,0.13
09:10:09.052,1.08,0.16
09:10:09.056,1.345,0.11
09:10:09.060,1.51,0.065
09:10:09.064,1.52,0
09:10:09.068,1.055,-0.155
09:10:09.072,0.09,-0.445
09:10:09.076,-0.84,-0.76
09:10:09.080,-1.36,-1.15
09:10:09.084,-1.435,-1.41
09:10:09.088,-1.36,-1.535
09:10:09.092,-1.245,-1.575
09:10:09.096,-1.045,-1.62
09:10:09.100,-0.77,-1.54
09:10:09.104,-0.55,-1.365
09:10:09.108,-0.405,-1.07
09:10:09.112,-0.31,-0.785
09:10:09.116,-0.265,-0.55
09:10:09.120,-0.24,-0.4
09:10:09.124,-0.205,-0.25
09:10:09.128,-0.195,-0.15
09:10:09.132,-0.205,-0.185
09:10:09.136,-0.225,-0.165
09:10:09.140,-0.235,-0.085
09:10:09.144,-0.225,-0.025
09:10:09.148,-0.265,0.03
09:10:09.152,-0.28,0.035
09:10:09.156,-0.305,-0.055
09:10:09.160,-0.29,-0.055
09:10:09.164,-0.285,0.005
09:10:09.168,-0.255,0
09:10:09.172,-0.26,0.01
09:10:09.176,-0.27,0
09:10:09.180,-0.31,-0.025
09:10:09.184,-0.34,0.01
09:10:09.188,-0.365,0.07
09:10:09.192,-0.4,0.075
09:10:09.196,-0.415,0.005
09:10:09.200,-0.4,-0.1
09:10:09.204,-0.46,-0.1
09:10:09.208,-0.465,-0.05
09:10:09.212,-0.41,-0.01
09:10:09.216,-0.38,-0.015
09:10:09.220,-0.36,0
09:10:09.224,-0.3,0.025
09:10:09.228,-0.235,-0.005
09:10:09.232,-0.22,-0.035
09:10:09.236,-0.255,-0.02
09:10:09.240,-0.265,0.04
09:10:09.244,-0.245,0.13
09:10:09.248,-0.235,0.095
09:10:09.252,-0.23,-0.02
09:10:09.256,-0.255,-0.005
09:10:09.260,-0.275,0.045
09:10:09.264,-0.3,0.12
09:10:09.268,-0.315,0.135
09:10:09.272,-0.315,0.045
09:10:09.276,-0.34,-0.035
09:10:09.280,-0.325,-0.05
09:10:09.284,-0.325,-0.05
09:10:09.288,-0.34,-0.05
09:10:09.292,-0.315,-0.03
09:10:09.296,-0.325,-0.12
09:10:09.300,-0.32,-0.19
09:10:09.304,-0.295,-0.17
09:10:09.308,-0.26,-0.11
09:10:09.312,-0.23,-0.075
09:10:09.316,-0.2,-0.085
09:10:09.320,-0.22,-0.11
09:10:09.324,-0.165,-0.08
09:10:09.328,-0.105,-0.02
09:10:09.332,-0.1,-0.09
09:10:09.336,-0.12,-0.215
09:10:09.340,-0.11,-0.175
09:10:09.344,-0.085,-0.11
09:10:09.348,-0.08,-0.06
09:10:09.352,-0.055,-0.03
09:10:09.356,-0.025,-0.05
09:10:09.360,-0.015,-0.045
09:10:09.364,-0.005,-0.01
09:10:09.368,0.03,0.05
09:10:09.372,0.04,0.005
09:10:09.376,0.035,-0.03
09:10:09.380,0.035,0.025
09:10:09.384,0,0.07
09:10:09.388,-0.005,0.075
09:10:09.392,-0.01,0.07
09:10:09.396,-0.01,0.125
09:10:09.400,-0.02,0.145
09:10:09.404,-0.01,0.175
09:10:09.408,-0.005,0.18
09:10:09.412,0.02,0.105
09:10:09.416,0.05,0.045
09:10:09.420,0.035,0.05
09:10:09.424,0.04,0.095
09:10:09.428,0.045,0.155
09:10:09.432,0.095,0.235
09:10:09.436,0.15,0.235
09:10:09.440,0.14,0.09
09:10:09.444,0.18,0.01
09:10:09.448,0.18,0.07
09:10:09.452,0.2,0.165
09:10:09.456,0.22,0.17
09:10:09.460,0.225,0.19
09:10:09.464,0.175,0.26
09:10:09.468,0.13,0.22
09:10:09.472,0.125,0.175
09:10:09.476,0.11,0.18
09:10:09.480,0.09,0.125
09:10:09.484,0.06,0.105
09:10:09.488,0.025,0.1
09:10:09.492,0.005,0.12
09:10:09.496,0.02,0.11
09:10:09.500,0.02,0.095
09:10:09.504,0.03,0.085
09:10:09.508,0.01,0.11
09:10:09.512,0.025,0.115
09:10:09.516,0.02,0.06
09:10:09.520,0,0.04
09:10:09.524,-0.015,0.05
09:10:09.528,-0.025,0.01
09:10:09.532,-0.065,-0.005
09:10:09.536,-0.095,0.055
09:10:09.540,-0.115,0.095
09:10:09.544,-0.125,0.065
09:10:09.548,-0.11,0.025
09:10:09.552,-0.105,0.005
09:10:09.556,-0.125,-0.02
09:10:09.560,-0.14,0.02
09:10:09.564,-0.125,0.09
09:10:09.568,-0.12,0.105
09:10:09.572,-0.14,-0.01
09:10:09.576,-0.145,-0.12
09:10:09.580,-0.165,-0.145
09:10:09.584,-0.19,-0.055
09:10:09.588,-0.205,-0.05
09:10:09.592,-0.19,-0.01
09:10:09.596,-0.185,0.02
09:10:09.600,-0.18,-0.005
09:10:09.604,-0.155,-0.14
09:10:09.608,-0.155,-0.13
09:10:09.612,-0.135,-0.1
09:10:09.616,-0.115,-0.1
09:10:09.620,-0.115,-0.095
09:10:09.624,-0.11,-0.05
09:10:09.628,-0.12,-0.04
09:10:09.632,-0.085,-0.07
09:10:09.636,-0.07,-0.06
09:10:09.640,-0.08,-0.025
09:10:09.644,-0.06,0.01
09:10:09.648,-0.015,0.1
09:10:09.652,0,0.105
09:10:09.656,0.01,-0.015
09:10:09.660,-0.02,-0.07
09:10:09.664,-0.01,-0.025
09:10:09.668,0.005,0.005
09:10:09.672,-0.02,0.01
09:10:09.676,-0.05,0.005
09:10:09.680,-0.03,-0.035
09:10:09.684,0.025,-0.02
09:10:09.688,0.09,0.02
09:10:09.692,0.21,0.015
09:10:09.696,0.42,-0.005
09:10:09.700,0.72,0.045
09:10:09.704,0.975,0.05
09:10:09.708,1.13,0
09:10:09.712,1.13,-0.06
09:10:09.716,0.74,-0.21
09:10:09.720,-0.145,-0.525
09:10:09.724,-1.075,-0.935
09:10:09.728,-1.615,-1.315
09:10:09.732,-1.72,-1.56
09:10:09.736,-1.6,-1.74
09:10:09.740,-1.435,-1.83
09:10:09.744,-1.19,-1.825
09:10:09.748,-0.88,-1.715
09:10:09.752,-0.625,-1.5
09:10:09.756,-0.475,-1.295
09:10:09.760,-0.395,-1.075
09:10:09.764,-0.36,-0.75
09:10:09.768,-0.36,-0.54
09:10:09.772,-0.34,-0.34
09:10:09.776,-0.36,-0.235
09:10:09.780,-0.365,-0.235
09:10:09.784,-0.37,-0.17
09:10:09.788,-0.36,-0.11
09:10:09.792,-0.35,-0.06
09:10:09.796,-0.34,0.01
09:10:09.800,-0.32,-0.095
09:10:09.804,-0.35,-0.19
09:10:09.808,-0.34,-0.135
09:10:09.812,-0.315,-0.06
09:10:09.816,-0.33,-0.005
09:10:09.820,-0.32,0.035
09:10:09.824,-0.315,0.065
09:10:09.828,-0.32,-0.03
09:10:09.832,-0.33,-0.07
09:10:09.836,-0.325,-0.06
09:10:09.840,-0.33,-0.02
09:10:09.844,-0.31,0.025
09:10:09.848,-0.275,0.035
09:10:09.852,-0.26,-0.035
09:10:09.856,-0.29,-0.045
09:10:09.860,-0.33,-0.06
09:10:09.864,-0.365,-0.02
09:10:09.868,-0.4,0.055
09:10:09.872,-0.44,0.115
09:10:09.876,-0.46,0.125
09:10:09.880,-0.515,0.13
09:10:09.884,-0.55,0.06
09:10:09.888,-0.59,0.025
09:10:09.892,-0.6,-0.015
09:10:09.896,-0.62,-0.03
09:10:09.900,-0.635,-0.05
09:10:09.904,-0.64,-0.045
09:10:09.908,-0.675,-0.075
09:10:09.912,-0.695,-0.09
09:10:09.916,-0.725,-0.035
09:10:09.920,-0.765,-0.035
09:10:09.924,-0.78,-0.01
09:10:09.928,-0.78,-0.065
09:10:09.932,-0.765,-0.215
09:10:09.936,-0.755,-0.335
09:10:09.940,-0.74,-0.325
09:10:09.944,-0.68,-0.28
09:10:09.948,-0.64,-0.205
09:10:09.952,-0.58,-0.19
09:10:09.956,-0.545,-0.21
09:10:09.960,-0.525,-0.225
09:10:09.964,-0.495,-0.225
09:10:09.968,-0.46,-0.21
09:10:09.972,-0.4,-0.2
09:10:09.976,-0.365,-0.215
09:10:09.980,-0.31,-0.18
09:10:09.984,-0.27,-0.175
09:10:09.988,-0.24,-0.16
09:10:09.992,-0.185,-0.135
09:10:09.996,-0.175,-0.07
09:10:10.000,-0.13,-0.035
09:10:10.004,-0.085,0.04
09:10:10.008,-0.045,-0.005
09:10:10.012,-0.035,-0.065
09:10:10.016,-0.025,-0.05
09:10:10.020,-0.01,-0.02
09:10:10.024,-0.01,0.055
09:10:10.028,0.005,0.11
09:10:10.032,0.055,0.2
09:10:10.036,0.105,0.125
09:10:10.040,0.15,0.045
09:10:10.044,0.135,0.095
09:10:10.048,0.115,0.155
09:10:10.052,0.115,0.185
09:10:10.056,0.105,0.21
09:10:10.060,0.075,0.24
09:10:10.064,0.06,0.21
09:10:10.068,0.025,0.225
09:10:10.072,0.015,0.28
09:10:10.076,-0.025,0.275
09:10:10.080,-0.025,0.245
09:10:10.084,-0.06,0.225
09:10:10.088,-0.035,0.19
09:10:10.092,-0.05,0.15
09:10:10.096,-0.05,0.125
09:10:10.100,0,0.095
09:10:10.104,0.085,0.08
09:10:10.108,0.205,0.135
09:10:10.112,0.305,0.11
09:10:10.116,0.49,0.095
09:10:10.120,0.685,0.13
09:10:10.124,0.86,0.16
09:10:10.128,1.005,0.14
09:10:10.132,1.085,0.09
09:10:10.136,0.985,-0.18
09:10:10.140,0.335,-0.79
09:10:10.144,-0.72,-1.415
09:10:10.148,-1.53,-1.875
09:10:10.152,-1.83,-2.205
09:10:10.156,-1.68,-2.365
09:10:10.160,-1.365,-2.385
09:10:10.164,-1,-2.43
09:10:10.168,-0.755,-2.3
09:10:10.172,-0.585,-2.005
09:10:10.176,-0.48,-1.575
09:10:10.180,-0.4,-1.095
09:10:10.184,-0.36,-0.73
09:10:10.188,-0.35,-0.495
09:10:10.192,-0.32,-0.295
09:10:10.196,-0.31,-0.12
09:10:10.200,-0.29,-0.09
09:10:10.204,-0.27,-0.075
09:10:10.208,-0.275,-0.095
09:10:10.212,-0.26,-0.07
09:10:10.216,-0.24,-0.025
09:10:10.220,-0.22,0.01
09:10:10.224,-0.185,0.03
09:10:10.228,-0.19,0.07
09:10:10.232,-0.185,0.135
09:10:10.236,-0.15,0.155
09:10:10.240,-0.155,0.085
09:10:10.244,-0.145,0
09:10:10.248,-0.175,0.03
09:10:10.252,-0.2,0.115
09:10:10.256,-0.225,0.165
09:10:10.260,-0.235,0.18
09:10:10.264,-0.245,0.235
09:10:10.268,-0.265,0.22
09:10:10.272,-0.28,0.22
09:10:10.276,-0.295,0.275
09:10:10.280,-0.315,0.29
09:10:10.284,-0.32,0.215
09:10:10.288,-0.335,0.165
09:10:10.292,-0.38,0.17
09:10:10.296,-0.405,0.14
09:10:10.300,-0.45,0.14
09:10:10.304,-0.475,0.16
09:10:10.308,-0.49,0.17
09:10:10.312,-0.495,0.175
09:10:10.316,-0.535,0.19
09:10:10.320,-0.555,0.19
09:10:10.324,-0.57,0.19
09:10:10.328,-0.57,0.17
09:10:10.332,-0.57,0.16
09:10:10.336,-0.535,0.17
09:10:10.340,-0.56,0.15
09:10:10.344,-0.545,0.065
09:10:10.348,-0.53,0.025
09:10:10.352,-0.51,0.13
09:10:10.356,-0.48,0.2
09:10:10.360,-0.43,0.185
09:10:10.364,-0.39,0.1
09:10:10.368,-0.34,-0.02
09:10:10.372,-0.295,-0.04
09:10:10.376,-0.255,0.06
09:10:10.380,-0.19,0.15
09:10:10.384,-0.185,0.145
09:10:10.388,-0.185,0.06
09:10:10.392,-0.17,0.025
09:10:10.396,-0.17,0.065
09:10:10.400,-0.165,0.045
09:10:10.404,-0.16,0.075
09:10:10.408,-0.15,0.065
09:10:10.412,-0.14,0.135
09:10:10.416,-0.13,0.155
09:10:10.420,-0.09,0.14
09:10:10.424,-0.075,0.11
09:10:10.428,-0.055,0.095
09:10:10.432,-0.02,0.11
09:10:10.436,0,0.155
09:10:10.440,-0.02,0.17
09:10:10.444,-0.02,0.165
09:10:10.448,-0.01,0.195
09:10:10.452,0.005,0.195
09:10:10.456,-0.005,0.155
09:10:10.460,-0.055,0.175
09:10:10.464,-0.07,0.2
09:10:10.468,-0.05,0.195
09:10:10.472,-0.035,0.22
09:10:10.476,-0.03,0.185
09:10:10.480,-0.03,0.185
09:10:10.484,-0.03,0.22
09:10:10.488,-0.06,0.16
09:10:10.492,-0.06,0.135
09:10:10.496,-0.02,0.195
09:10:10.500,0.09,0.185
09:10:10.504,0.255,0.08
09:10:10.508,0.45,0.05
09:10:10.512,0.715,0.075
09:10:10.516,0.985,0.13
09:10:10.520,1.16,0.115
09:10:10.524,1.24,0.05
09:10:10.528,1.17,0.005
09:10:10.532,0.595,-0.245
09:10:10.536,-0.5,-0.805
09:10:10.540,-1.47,-1.36
09:10:10.544,-1.84,-1.725
09:10:10.548,-1.83,-2
09:10:10.552,-1.6,-2.11
09:10:10.556,-1.28,-2.23
09:10:10.560,-0.96,-2.245
09:10:10.564,-0.715,-2.06
09:10:10.568,-0.555,-1.71
09:10:10.572,-0.46,-1.26
09:10:10.576,-0.395,-0.87
09:10:10.580,-0.37,-0.565
09:10:10.584,-0.36,-0.37
09:10:10.588,-0.39,-0.28
09:10:10.592,-0.41,-0.185
09:10:10.596,-0.4,-0.115
09:10:10.600,-0.385,-0.07
09:10:10.604,-0.395,-0.065
09:10:10.608,-0.38,-0.11
09:10:10.612,-0.38,-0.11
09:10:10.616,-0.37,-0.055
09:10:10.620,-0.35,-0.01
09:10:10.624,-0.31,0.025
09:10:10.628,-0.315,0
09:10:10.632,-0.32,-0.065
09:10:10.636,-0.32,-0.08
09:10:10.640,-0.295,-0.04
09:10:10.644,-0.295,0.005
09:10:10.648,-0.29,0.045
09:10:10.652,-0.295,0.075
09:10:10.656,-0.275,0.03
09:10:10.660,-0.25,0.04
09:10:10.664,-0.225,0.09
09:10:10.668,-0.28,0.12
09:10:10.672,-0.31,0.125
09:10:10.676,-0.32,0.17
09:10:10.680,-0.33,0.2
09:10:10.684,-0.36,0.19
09:10:10.688,-0.435,0.155
09:10:10.692,-0.465,0.18
09:10:10.696,-0.485,0.155
09:10:10.700,-0.495,0.12
09:10:10.704,-0.5,0.055
09:10:10.708,-0.53,0.06
09:10:10.712,-0.535,0.17
09:10:10.716,-0.53,0.21
09:10:10.720,-0.54,0.14
09:10:10.724,-0.515,-0.005
09:10:10.728,-0.545,-0.08
09:10:10.732,-0.52,-0.035
09:10:10.736,-0.515,0.03
09:10:10.740,-0.495,0.04
09:10:10.744,-0.46,0.055
09:10:10.748,-0.415,0.1
09:10:10.752,-0.365,0.09
09:10:10.756,-0.345,0.085
09:10:10.760,-0.265,0.07
09:10:10.764,-0.22,0.09
09:10:10.768,-0.16,0.13
09:10:10.772,-0.15,0.16
09:10:10.776,-0.14,0.155
09:10:10.780,-0.145,0.2
09:10:10.784,-0.125,0.215
09:10:10.788,-0.125,0.145
09:10:10.792,-0.155,0.145
09:10:10.796,-0.13,0.13
09:10:10.800,-0.14,0.075
09:10:10.804,-0.15,0.09
09:10:10.808,-0.145,0.145
09:10:10.812,-0.18,0.195
09:10:10.816,-0.155,0.235
09:10:10.820,-0.165,0.145
09:10:10.824,-0.145,0.085
09:10:10.828,-0.15,0.105
09:10:10.832,-0.15,0.13
09:10:10.836,-0.125,0.16
09:10:10.840,-0.105,0.165
09:10:10.844,-0.075,0.18
09:10:10.848,-0.045,0.15
09:10:10.852,-0.015,0.155
09:10:10.856,-0.005,0.13
09:10:10.860,0.035,0.16
09:10:10.864,0.045,0.255
09:10:10.868,0.08,0.285
09:10:10.872,0.17,0.22
09:10:10.876,0.365,0.19
09:10:10.880,0.625,0.215
09:10:10.884,0.855,0.2
09:10:10.888,1.035,0.19
09:10:10.892,1.26,0.165
09:10:10.896,1.455,0.105
09:10:10.900,1.535,-0.09
09:10:10.904,1.395,-0.62
09:10:10.908,0.715,-1.37
09:10:10.912,-0.37,-1.99
09:10:10.916,-1.115,-2.35
09:10:10.920,-1.24,-2.58
09:10:10.924,-1.05,-2.725
09:10:10.928,-0.805,-2.765
09:10:10.932,-0.64,-2.64
09:10:10.936,-0.545,-2.24
09:10:10.940,-0.475,-1.715
09:10:10.944,-0.425,-1.21
09:10:10.948,-0.405,-0.76
09:10:10.952,-0.4,-0.425
09:10:10.956,-0.4,-0.245
09:10:10.960,-0.4,-0.07
09:10:10.964,-0.395,0.065
09:10:10.968,-0.39,0.065
09:10:10.972,-0.415,0.03
09:10:10.976,-0.43,0.045
09:10:10.980,-0.47,0.08
09:10:10.984,-0.48,0.1
09:10:10.988,-0.49,0.165
09:10:10.992,-0.49,0.15
09:10:10.996,-0.495,0.04
09:10:11.000,-0.515,0.06
09:10:11.004,-0.515,0.135
09:10:11.008,-0.495,0.115
09:10:11.012,-0.495,0.115
09:10:11.016,-0.515,0.14
09:10:11.020,-0.525,0.16
09:10:11.024,-0.55,0.185
09:10:11.028,-0.545,0.195
09:10:11.032,-0.515,0.185
09:10:11.036,-0.495,0.23
09:10:11.040,-0.475,0.23
09:10:11.044,-0.455,0.24
09:10:11.048,-0.47,0.26
09:10:11.052,-0.475,0.235
09:10:11.056,-0.49,0.23
09:10:11.060,-0.495,0.285
09:10:11.064,-0.53,0.39
09:10:11.068,-0.55,0.425
09:10:11.072,-0.575,0.445
09:10:11.076,-0.585,0.425
09:10:11.080,-0.625,0.37
09:10:11.084,-0.64,0.345
09:10:11.088,-0.645,0.38
09:10:11.092,-0.655,0.375
09:10:11.096,-0.64,0.345
09:10:11.100,-0.64,0.31
09:10:11.104,-0.635,0.305
09:10:11.108,-0.595,0.31
09:10:11.112,-0.585,0.335
09:10:11.116,-0.55,0.33
09:10:11.120,-0.51,0.335
09:10:11.124,-0.48,0.32
09:10:11.128,-0.44,0.32
09:10:11.132,-0.405,0.35
09:10:11.136,-0.355,0.3
09:10:11.140,-0.305,0.315
09:10:11.144,-0.265,0.315
09:10:11.148,-0.245,0.3
09:10:11.152,-0.22,0.265
09:10:11.156,-0.2,0.225
09:10:11.160,-0.185,0.225
09:10:11.164,-0.18,0.26
09:10:11.168,-0.2,0.25
09:10:11.172,-0.225,0.275
09:10:11.176,-0.245,0.255
09:10:11.180,-0.275,0.25
09:10:11.184,-0.305,0.18
09:10:11.188,-0.295,0.19
09:10:11.192,-0.31,0.17
09:10:11.196,-0.315,0.155
09:10:11.200,-0.315,0.1
09:10:11.204,-0.29,0.145
09:10:11.208,-0.3,0.135
09:10:11.212,-0.275,0.07
09:10:11.216,-0.285,0.03
09:10:11.220,-0.295,0.085
09:10:11.224,-0.235,0.155
09:10:11.228,-0.2,0.1
09:10:11.232,-0.15,0.025
09:10:11.236,-0.12,0
09:10:11.240,-0.085,0.065
09:10:11.244,-0.08,0.115
09:10:11.248,-0.065,0.165
09:10:11.252,-0.055,0.19
09:10:11.256,-0.07,0.215
09:10:11.260,-0.1,0.26
09:10:11.264,-0.1,0.31
09:10:11.268,-0.065,0.295
09:10:11.272,-0.085,0.225
09:10:11.276,-0.05,0.195
09:10:11.280,-0.1,0.195
09:10:11.284,-0.11,0.18
09:10:11.288,-0.115,0.16
09:10:11.292,-0.12,0.2
09:10:11.296,-0.12,0.185
09:10:11.300,-0.105,0.12
09:10:11.304,-0.125,0.08
09:10:11.308,-0.135,0.095
09:10:11.312,-0.15,0.175
09:10:11.316,-0.145,0.135
09:10:11.320,-0.18,0.1
09:10:11.324,-0.175,0.03
09:10:11.328,-0.175,0.02
09:10:11.332,-0.18,0.035
09:10:11.336,-0.18,0.045
09:10:11.340,-0.21,0.045
09:10:11.344,-0.205,0.04
09:10:11.348,-0.19,0.08
09:10:11.352,-0.205,0.085
09:10:11.356,-0.21,0.075
09:10:11.360,-0.22,0.04
09:10:11.364,-0.235,0.02
09:10:11.368,-0.26,0.025
09:10:11.372,-0.265,0.025
09:10:11.376,-0.2,0.02
09:10:11.380,-0.125,0.035
09:10:11.384,0.1,0.085
09:10:11.388,0.47,0.15
09:10:11.392,0.85,0.09
09:10:11.396,1.07,-0.025
09:10:11.400,1.175,-0.075
09:10:11.404,0.94,-0.16
09:10:11.408,0.125,-0.505
09:10:11.412,-0.87,-1.015
09:10:11.416,-1.52,-1.43
09:10:11.420,-1.71,-1.73
09:10:11.424,-1.655,-1.92
09:10:11.428,-1.49,-2.12
09:10:11.432,-1.235,-2.1
09:10:11.436,-0.93,-1.985
09:10:11.440,-0.69,-1.785
09:10:11.444,-0.53,-1.4
09:10:11.448,-0.435,-1.03
09:10:11.452,-0.365,-0.755
09:10:11.456,-0.35,-0.47
09:10:11.460,-0.345,-0.245
09:10:11.464,-0.36,-0.07
09:10:11.468,-0.375,0.03
09:10:11.472,-0.34,0.04
09:10:11.476,-0.325,0.035
09:10:11.480,-0.315,0.07
09:10:11.484,-0.335,0.1
09:10:11.488,-0.38,0.185
09:10:11.492,-0.355,0.165
09:10:11.496,-0.37,0.1
09:10:11.500,-0.36,0.03
09:10:11.504,-0.39,-0.025
09:10:11.508,-0.395,0.045
09:10:11.512,-0.445,0.13
09:10:11.516,-0.45,0.025
09:10:11.520,-0.455,-0.045
09:10:11.524,-0.465,-0.02
09:10:11.528,-0.5,0
09:10:11.532,-0.485,0.03
09:10:11.536,-0.5,0.055
09:10:11.540,-0.52,0.005
09:10:11.544,-0.525,-0.015
09:10:11.548,-0.54,-0.01
09:10:11.552,-0.58,0.01
09:10:11.556,-0.595,0.05
09:10:11.560,-0.62,0.065
09:10:11.564,-0.64,0.025
09:10:11.568,-0.64,0.015
09:10:11.572,-0.675,-0.005
09:10:11.576,-0.725,-0.05
09:10:11.580,-0.715,-0.06
09:10:11.584,-0.72,0.01
09:10:11.588,-0.695,0.045
09:10:11.592,-0.685,-0.03
09:10:11.596,-0.725,-0.06
09:10:11.600,-0.695,-0.1
09:10:11.604,-0.675,-0.09
09:10:11.608,-0.695,-0.095
09:10:11.612,-0.695,-0.085
09:10:11.616,-0.64,-0.045
09:10:11.620,-0.59,0.035
09:10:11.624,-0.515,0.035
09:10:11.628,-0.465,-0.035
09:10:11.632,-0.4,-0.03
09:10:11.636,-0.34,-0.015
09:10:11.640,-0.32,0.005
09:10:11.644,-0.285,0.05
09:10:11.648,-0.245,0.125
09:10:11.652,-0.2,0.185
09:10:11.656,-0.11,0.195
09:10:11.660,-0.045,0.16
09:10:11.664,-0.01,0.095
09:10:11.668,0.005,0.155
09:10:11.672,0,0.285
09:10:11.676,0.01,0.335
09:10:11.680,0.005,0.315
09:10:11.684,0.04,0.28
09:10:11.688,0.055,0.255
09:10:11.692,0.07,0.245
09:10:11.696,0.065,0.29
09:10:11.700,0.025,0.26
09:10:11.704,-0.005,0.22
09:10:11.708,-0.03,0.245
09:10:11.712,-0.065,0.26
09:10:11.716,-0.065,0.24
09:10:11.720,-0.07,0.29
09:10:11.724,-0.075,0.275
09:10:11.728,-0.11,0.225
09:10:11.732,-0.13,0.195
09:10:11.736,-0.18,0.215
09:10:11.740,-0.2,0.195
09:10:11.744,-0.205,0.185
09:10:11.748,-0.225,0.18
09:10:11.752,-0.235,0.135
09:10:11.756,-0.265,0.095
09:10:11.760,-0.275,0.12
09:10:11.764,-0.28,0.14
09:10:11.768,-0.285,0
09:10:11.772,-0.3,-0.05
09:10:11.776,-0.335,-0.01
09:10:11.780,-0.34,0.04
09:10:11.784,-0.32,0.04
09:10:11.788,-0.32,0.055
09:10:11.792,-0.32,0.04
09:10:11.796,-0.32,-0.005
09:10:11.800,-0.32,-0.015
09:10:11.804,-0.31,0.06
09:10:11.808,-0.295,0.04
09:10:11.812,-0.29,0
09:10:11.816,-0.29,-0.03
09:10:11.820,-0.265,0.025
09:10:11.824,-0.215,0.095
09:10:11.828,-0.12,0.105
09:10:11.832,0.06,0.1
09:10:11.836,0.38,-0.025
09:10:11.840,0.685,-0.095
09:10:11.844,0.91,-0.145
09:10:11.848,1.015,-0.18
09:10:11.852,0.83,-0.32
09:10:11.856,0.095,-0.695
09:10:11.860,-0.93,-1.14
09:10:11.864,-1.645,-1.495
09:10:11.868,-1.845,-1.8
09:10:11.872,-1.735,-1.995
09:10:11.876,-1.48,-2.085
09:10:11.880,-1.15,-2.125
09:10:11.884,-0.865,-2.05
09:10:11.888,-0.64,-1.745
09:10:11.892,-0.505,-1.345
09:10:11.896,-0.425,-1.01
09:10:11.900,-0.35,-0.715
09:10:11.904,-0.38,-0.49
09:10:11.908,-0.42,-0.3
09:10:11.912,-0.42,-0.14
09:10:11.916,-0.4,-0.03
09:10:11.920,-0.385,-0.025
09:10:11.924,-0.375,-0.04
09:10:11.928,-0.375,0.015
09:10:11.932,-0.39,0.105
09:10:11.936,-0.395,0.12
09:10:11.940,-0.385,-0.005
09:10:11.944,-0.39,-0.055
09:10:11.948,-0.435,0.025
09:10:11.952,-0.45,0.01
09:10:11.956,-0.475,-0.03
09:10:11.960,-0.485,0.035
09:10:11.964,-0.47,0.065
09:10:11.968,-0.525,0.06
09:10:11.972,-0.545,-0.01
09:10:11.976,-0.565,-0.045
09:10:11.980,-0.585,0.015
09:10:11.984,-0.585,0.07
09:10:11.988,-0.605,0.06
09:10:11.992,-0.63,0.02
09:10:11.996,-0.645,-0.015
09:10:12.000,-0.675,-0.02
09:10:12.004,-0.73,0.02
09:10:12.008,-0.765,0
09:10:12.012,-0.745,-0.015
09:10:12.016,-0.775,0.025
09:10:12.020,-0.78,0.025
09:10:12.024,-0.78,-0.04
09:10:12.028,-0.72,-0.03
09:10:12.032,-0.7,0.04
09:10:12.036,-0.665,0.095
09:10:12.040,-0.685,0.015
09:10:12.044,-0.71,-0.015
09:10:12.048,-0.695,0.065
09:10:12.052,-0.685,0.09
09:10:12.056,-0.695,0.015
09:10:12.060,-0.7,0.015
09:10:12.064,-0.68,0.125
09:10:12.068,-0.67,0.1
09:10:12.072,-0.6,0.06
09:10:12.076,-0.5,0.11
09:10:12.080,-0.4,0.16
09:10:12.084,-0.345,0.135
09:10:12.088,-0.3,0.025
09:10:12.092,-0.285,0.01
09:10:12.096,-0.235,0.09
09:10:12.100,-0.19,0.125
09:10:12.104,-0.155,0.14
09:10:12.108,-0.125,0.155
09:10:12.112,-0.105,0.16
09:10:12.116,-0.095,0.095
09:10:12.120,-0.085,0.11
09:10:12.124,-0.095,0.135
09:10:12.128,-0.065,0.135
09:10:12.132,-0.085,0.085
09:10:12.136,-0.095,0.085
09:10:12.140,-0.09,0.12
09:10:12.144,-0.105,0.155
09:10:12.148,-0.115,0.135
09:10:12.152,-0.095,0.16
09:10:12.156,0.015,0.115
09:10:12.160,0.16,0.115
09:10:12.164,0.355,0.11
09:10:12.168,0.585,0.12
09:10:12.172,0.87,0.105
09:10:12.176,1.185,0.095
09:10:12.180,1.45,0.07
09:10:12.184,1.5,0.05
09:10:12.188,1,-0.205
09:10:12.192,-0.095,-0.825
09:10:12.196,-1.065,-1.385
09:10:12.200,-1.4,-1.745
09:10:12.204,-1.35,-2.045
09:10:12.208,-1.165,-2.195
09:10:12.212,-0.96,-2.22
09:10:12.216,-0.725,-2.225
09:10:12.220,-0.54,-2.01
09:10:12.224,-0.415,-1.525
09:10:12.228,-0.32,-1.025
09:10:12.232,-0.285,-0.73
09:10:12.236,-0.31,-0.52
09:10:12.240,-0.31,-0.29
09:10:12.244,-0.325,-0.09
09:10:12.248,-0.345,0
09:10:12.252,-0.36,0.06
09:10:12.256,-0.395,0.09
09:10:12.260,-0.38,0.085
09:10:12.264,-0.375,0.05
09:10:12.268,-0.395,0.06
09:10:12.272,-0.41,0.085
09:10:12.276,-0.405,0.14
09:10:12.280,-0.36,0.205
09:10:12.284,-0.335,0.215
09:10:12.288,-0.37,0.17
09:10:12.292,-0.395,0.145
09:10:12.296,-0.38,0.11
09:10:12.300,-0.39,0.13
09:10:12.304,-0.415,0.135
09:10:12.308,-0.45,0.165
09:10:12.312,-0.46,0.15
09:10:12.316,-0.465,0.165
09:10:12.320,-0.49,0.14
09:10:12.324,-0.49,0.075
09:10:12.328,-0.515,0.11
09:10:12.332,-0.52,0.185
09:10:12.336,-0.53,0.17
09:10:12.340,-0.57,0.15
09:10:12.344,-0.59,0.165
09:10:12.348,-0.625,0.195
09:10:12.352,-0.63,0.255
09:10:12.356,-0.65,0.225
09:10:12.360,-0.65,0.085
09:10:12.364,-0.67,0.08
09:10:12.368,-0.655,0.13
09:10:12.372,-0.64,0.09
09:10:12.376,-0.645,0.09
09:10:12.380,-0.645,0.095
09:10:12.384,-0.625,0.15
09:10:12.388,-0.6,0.215
09:10:12.392,-0.61,0.215
09:10:12.396,-0.585,0.185
09:10:12.400,-0.535,0.195
09:10:12.404,-0.46,0.26
09:10:12.408,-0.4,0.28
09:10:12.412,-0.35,0.235
09:10:12.416,-0.32,0.22
09:10:12.420,-0.24,0.285
09:10:12.424,-0.2,0.385
09:10:12.428,-0.215,0.27
09:10:12.432,-0.21,0.2
09:10:12.436,-0.215,0.27
09:10:12.440,-0.23,0.325
09:10:12.444,-0.235,0.27
09:10:12.448,-0.23,0.18
09:10:12.452,-0.215,0.18
09:10:12.456,-0.23,0.215
09:10:12.460,-0.245,0.24
09:10:12.464,-0.26,0.225
09:10:12.468,-0.245,0.19
09:10:12.472,-0.205,0.205
09:10:12.476,-0.22,0.19
09:10:12.480,-0.235,0.145
09:10:12.484,-0.22,0.11
09:10:12.488,-0.22,0.14
09:10:12.492,-0.265,0.145
09:10:12.496,-0.285,0.09
09:10:12.500,-0.285,0.075
09:10:12.504,-0.275,0.15
09:10:12.508,-0.27,0.09
09:10:12.512,-0.275,-0.07
09:10:12.516,-0.3,-0.09
09:10:12.520,-0.3,-0.01
09:10:12.524,-0.33,0.01
09:10:12.528,-0.345,-0.005
09:10:12.532,-0.36,0
09:10:12.536,-0.32,0.03
09:10:12.540,-0.345,-0.01
09:10:12.544,-0.365,-0.04
09:10:12.548,-0.355,0.01
09:10:12.552,-0.335,0.025
09:10:12.556,-0.325,-0.025
09:10:12.560,-0.285,-0.08
09:10:12.564,-0.275,-0.125
09:10:12.568,-0.25,-0.07
09:10:12.572,-0.235,-0.02
09:10:12.576,-0.265,0.03
09:10:12.580,-0.255,0.065
09:10:12.584,-0.22,0.005
09:10:12.588,-0.145,-0.035
09:10:12.592,0.04,0.005
09:10:12.596,0.36,0.07
09:10:12.600,0.755,0.045
09:10:12.604,0.99,-0.02
09:10:12.608,1.075,0.01
09:10:12.612,1.02,0.03
09:10:12.616,0.5,-0.135
09:10:12.620,-0.425,-0.405
09:10:12.624,-1.25,-0.75
09:10:12.628,-1.675,-1.14
09:10:12.632,-1.745,-1.4
09:10:12.636,-1.655,-1.535
09:10:12.640,-1.48,-1.64
09:10:12.644,-1.215,-1.71
09:10:12.648,-0.915,-1.66
09:10:12.652,-0.705,-1.49
09:10:12.656,-0.555,-1.235
09:10:12.660,-0.47,-0.945
09:10:12.664,-0.41,-0.665
09:10:12.668,-0.405,-0.405
09:10:12.672,-0.405,-0.16
09:10:12.676,-0.41,-0.045
09:10:12.680,-0.425,-0.055
09:10:12.684,-0.425,-0.07
