Time,ECG1,ECG2
20:05:50.232,-0.21,-0.2
20:05:50.236,-0.21,-0.18
20:05:50.240,-0.21,-0.175
20:05:50.244,-0.205,-0.16
20:05:50.248,-0.22,-0.16
20:05:50.252,-0.235,-0.16
20:05:50.256,-0.255,-0.14
20:05:50.260,-0.25,-0.11
20:05:50.264,-0.255,-0.145
20:05:50.268,-0.23,-0.14
20:05:50.272,-0.245,-0.14
20:05:50.276,-0.23,-0.135
20:05:50.280,-0.235,-0.15
20:05:50.284,-0.2,-0.14
20:05:50.288,-0.215,-0.15
20:05:50.292,-0.22,-0.12
20:05:50.296,-0.24,-0.13
20:05:50.300,-0.22,-0.115
20:05:50.304,-0.25,-0.11
20:05:50.308,-0.295,-0.12
20:05:50.312,-0.32,-0.115
20:05:50.316,-0.32,-0.12
20:05:50.320,-0.33,-0.1
20:05:50.324,-0.34,-0.125
20:05:50.328,-0.34,-0.105
20:05:50.332,-0.35,-0.11
20:05:50.336,-0.33,-0.12
20:05:50.340,-0.33,-0.115
20:05:50.344,-0.31,-0.135
20:05:50.348,-0.28,-0.14
20:05:50.352,-0.27,-0.165
20:05:50.356,-0.275,-0.17
20:05:50.360,-0.285,-0.2
20:05:50.364,-0.27,-0.185
20:05:50.368,-0.265,-0.24
20:05:50.372,-0.25,-0.27
20:05:50.376,-0.25,-0.27
20:05:50.380,-0.25,-0.26
20:05:50.384,-0.25,-0.255
20:05:50.388,-0.235,-0.255
20:05:50.392,-0.205,-0.26
20:05:50.396,-0.15,-0.26
20:05:50.400,-0.1,-0.25
20:05:50.404,-0.045,-0.24
20:05:50.408,0.065,-0.245
20:05:50.412,0.14,-0.27
20:05:50.416,0.2,-0.315
20:05:50.420,0.26,-0.355
20:05:50.424,0.295,-0.37
20:05:50.428,0.28,-0.39
20:05:50.432,0.25,-0.44
20:05:50.436,0.315,-0.495
20:05:50.440,0.545,-0.64
20:05:50.444,0.89,-0.85
20:05:50.448,1.15,-1.11
20:05:50.452,1.19,-1.3
20:05:50.456,0.96,-1.34
20:05:50.460,0.52,-1.095
20:05:50.464,0.13,-0.72
20:05:50.468,-0.07,-0.385
20:05:50.472,-0.17,-0.205
20:05:50.476,-0.205,-0.07
20:05:50.480,-0.225,0.02
20:05:50.484,-0.25,0.06
20:05:50.488,-0.28,0.11
20:05:50.492,-0.29,0.1
20:05:50.496,-0.29,0.115
20:05:50.500,-0.345,0.075
20:05:50.504,-0.355,0.06
20:05:50.508,-0.38,0.035
20:05:50.512,-0.44,0.035
20:05:50.516,-0.47,0.03
20:05:50.520,-0.495,0.065
20:05:50.524,-0.525,0.045
20:05:50.528,-0.53,0.04
20:05:50.532,-0.55,0.03
20:05:50.536,-0.56,0.035
20:05:50.540,-0.56,0.045
20:05:50.544,-0.555,0.025
20:05:50.548,-0.56,0.04
20:05:50.552,-0.585,0.035
20:05:50.556,-0.585,0.055
20:05:50.560,-0.57,0.03
20:05:50.564,-0.565,0.04
20:05:50.568,-0.55,0.03
20:05:50.572,-0.55,0.04
20:05:50.576,-0.57,0.02
20:05:50.580,-0.55,0.015
20:05:50.584,-0.545,0.04
20:05:50.588,-0.545,0.045
20:05:50.592,-0.55,0.02
20:05:50.596,-0.53,0.06
20:05:50.600,-0.54,0.04
20:05:50.604,-0.51,0.04
20:05:50.608,-0.525,0.015
20:05:50.612,-0.5,0.025
20:05:50.616,-0.49,0.005
20:05:50.620,-0.49,-0.04
20:05:50.624,-0.495,-0.045
20:05:50.628,-0.485,-0.035
20:05:50.632,-0.455,-0.04
20:05:50.636,-0.46,-0.025
20:05:50.640,-0.46,-0.03
20:05:50.644,-0.44,-0.025
20:05:50.648,-0.425,-0.025
20:05:50.652,-0.415,-0.01
20:05:50.656,-0.385,-0.005
20:05:50.660,-0.34,0.0
20:05:50.664,-0.335,-0.01
20:05:50.668,-0.32,-0.025
20:05:50.672,-0.28,-0.01
20:05:50.676,-0.255,0.01
20:05:50.680,-0.255,0.0
20:05:50.684,-0.24,0.01
20:05:50.688,-0.215,0.035
20:05:50.692,-0.195,0.035
20:05:50.696,-0.195,0.025
20:05:50.700,-0.205,0.035
20:05:50.704,-0.22,0.035
20:05:50.708,-0.21,0.015
20:05:50.712,-0.235,0.025
20:05:50.716,-0.265,0.005
20:05:50.720,-0.29,0.005
20:05:50.724,-0.29,0.02
20:05:50.728,-0.3,0.025
20:05:50.732,-0.295,0.035
20:05:50.736,-0.3,0.005
20:05:50.740,-0.3,0.01
20:05:50.744,-0.28,0.01
20:05:50.748,-0.28,0.03
20:05:50.752,-0.285,0.025
20:05:50.756,-0.305,0.015
20:05:50.760,-0.32,0.0
20:05:50.764,-0.305,-0.01
20:05:50.768,-0.305,-0.015
20:05:50.772,-0.29,-0.035
20:05:50.776,-0.28,-0.005
20:05:50.780,-0.205,-0.005
20:05:50.784,-0.175,-0.03
20:05:50.788,-0.115,-0.045
20:05:50.792,-0.08,-0.065
20:05:50.796,-0.06,-0.1
20:05:50.800,-0.09,-0.145
20:05:50.804,-0.13,-0.21
20:05:50.808,-0.2,-0.205
20:05:50.812,-0.22,-0.245
20:05:50.816,-0.11,-0.34
20:05:50.820,0.155,-0.48
20:05:50.824,0.55,-0.695
20:05:50.828,0.87,-1.02
20:05:50.832,1.085,-1.32
20:05:50.836,1.085,-1.46
20:05:50.840,0.805,-1.35
20:05:50.844,0.395,-0.99
20:05:50.848,0.04,-0.51
20:05:50.852,-0.15,-0.175
20:05:50.856,-0.225,0.02
20:05:50.860,-0.275,0.075
20:05:50.864,-0.285,0.15
20:05:50.868,-0.32,0.165
20:05:50.872,-0.32,0.12
20:05:50.876,-0.345,0.1
20:05:50.880,-0.355,0.09
20:05:50.884,-0.355,0.05
20:05:50.888,-0.35,0.035
20:05:50.892,-0.345,0.01
20:05:50.896,-0.36,-0.005
20:05:50.900,-0.345,-0.005
20:05:50.904,-0.365,-0.015
20:05:50.908,-0.36,-0.02
20:05:50.912,-0.38,-0.015
20:05:50.916,-0.41,-0.02
20:05:50.920,-0.445,-0.02
20:05:50.924,-0.47,-0.01
20:05:50.928,-0.505,-0.035
20:05:50.932,-0.53,0.01
20:05:50.936,-0.52,-0.005
20:05:50.940,-0.555,0.03
20:05:50.944,-0.535,0.02
20:05:50.948,-0.565,0.02
20:05:50.952,-0.565,0.015
20:05:50.956,-0.585,0.025
20:05:50.960,-0.595,0.03
20:05:50.964,-0.605,0.03
20:05:50.968,-0.615,0.03
20:05:50.972,-0.635,0.025
20:05:50.976,-0.625,0.005
20:05:50.980,-0.61,0.01
20:05:50.984,-0.61,0.015
20:05:50.988,-0.605,0.01
20:05:50.992,-0.615,0.01
20:05:50.996,-0.615,0.005
20:05:51.000,-0.61,-0.01
20:05:51.004,-0.6,-0.005
20:05:51.008,-0.595,0.005
20:05:51.012,-0.6,0.005
20:05:51.016,-0.57,0.0
20:05:51.020,-0.56,-0.01
20:05:51.024,-0.56,-0.02
20:05:51.028,-0.545,-0.04
20:05:51.032,-0.535,-0.055
20:05:51.036,-0.52,-0.04
20:05:51.040,-0.48,-0.065
20:05:51.044,-0.45,-0.035
20:05:51.048,-0.415,-0.02
20:05:51.052,-0.365,-0.05
20:05:51.056,-0.345,-0.015
20:05:51.060,-0.3,-0.03
20:05:51.064,-0.26,-0.025
20:05:51.068,-0.26,0.005
20:05:51.072,-0.245,0.035
20:05:51.076,-0.235,0.025
20:05:51.080,-0.22,0.035
20:05:51.084,-0.2,0.05
20:05:51.088,-0.19,0.075
20:05:51.092,-0.17,0.07
20:05:51.096,-0.175,0.055
20:05:51.100,-0.16,0.065
20:05:51.104,-0.16,0.035
20:05:51.108,-0.175,0.0
20:05:51.112,-0.165,0.005
20:05:51.116,-0.195,0.0
20:05:51.120,-0.19,0.02
20:05:51.124,-0.24,0.04
20:05:51.128,-0.255,0.045
20:05:51.132,-0.27,0.025
20:05:51.136,-0.3,0.02
20:05:51.140,-0.3,0.03
20:05:51.144,-0.335,0.055
20:05:51.148,-0.32,0.05
20:05:51.152,-0.33,0.055
20:05:51.156,-0.35,0.045
20:05:51.160,-0.355,0.04
20:05:51.164,-0.35,0.03
20:05:51.168,-0.35,0.01
20:05:51.172,-0.385,-0.015
20:05:51.176,-0.39,0.01
20:05:51.180,-0.395,-0.015
20:05:51.184,-0.41,0.0
20:05:51.188,-0.395,-0.015
20:05:51.192,-0.41,0.0
20:05:51.196,-0.425,0.0
20:05:51.200,-0.415,-0.035
20:05:51.204,-0.43,-0.04
20:05:51.208,-0.42,-0.04
20:05:51.212,-0.41,-0.045
20:05:51.216,-0.415,-0.07
20:05:51.220,-0.42,-0.09
20:05:51.224,-0.42,-0.07
20:05:51.228,-0.405,-0.07
20:05:51.232,-0.4,-0.055
20:05:51.236,-0.415,-0.08
20:05:51.240,-0.39,-0.07
20:05:51.244,-0.41,-0.1
20:05:51.248,-0.4,-0.07
20:05:51.252,-0.37,-0.07
20:05:51.256,-0.35,-0.09
20:05:51.260,-0.34,-0.095
20:05:51.264,-0.32,-0.06
20:05:51.268,-0.28,-0.06
20:05:51.272,-0.275,-0.065
20:05:51.276,-0.235,-0.045
20:05:51.280,-0.19,-0.02
20:05:51.284,-0.175,-0.005
20:05:51.288,-0.165,0.01
20:05:51.292,-0.16,0.005
20:05:51.296,-0.155,0.0
20:05:51.300,-0.13,0.025
20:05:51.304,-0.135,0.025
20:05:51.308,-0.125,0.01
20:05:51.312,-0.14,0.025
20:05:51.316,-0.145,-0.005
20:05:51.320,-0.16,-0.015
20:05:51.324,-0.185,-0.025
20:05:51.328,-0.21,-0.045
20:05:51.332,-0.265,-0.05
20:05:51.336,-0.285,-0.06
20:05:51.340,-0.295,-0.055
20:05:51.344,-0.3,-0.045
20:05:51.348,-0.31,-0.035
20:05:51.352,-0.305,-0.04
20:05:51.356,-0.32,-0.045
20:05:51.360,-0.295,-0.03
20:05:51.364,-0.315,-0.05
20:05:51.368,-0.32,-0.055
20:05:51.372,-0.31,-0.055
20:05:51.376,-0.315,-0.07
20:05:51.380,-0.3,-0.085
20:05:51.384,-0.315,-0.07
20:05:51.388,-0.325,-0.085
20:05:51.392,-0.32,-0.055
20:05:51.396,-0.335,-0.07
20:05:51.400,-0.35,-0.09
20:05:51.404,-0.335,-0.09
20:05:51.408,-0.35,-0.09
20:05:51.412,-0.365,-0.115
20:05:51.416,-0.365,-0.13
20:05:51.420,-0.335,-0.11
20:05:51.424,-0.345,-0.095
20:05:51.428,-0.325,-0.105
20:05:51.432,-0.285,-0.105
20:05:51.436,-0.21,-0.085
20:05:51.440,-0.12,-0.095
20:05:51.444,-0.04,-0.105
20:05:51.448,0.0,-0.14
20:05:51.452,0.04,-0.2
20:05:51.456,0.05,-0.265
20:05:51.460,0.075,-0.285
20:05:51.464,0.025,-0.32
20:05:51.468,0.035,-0.405
20:05:51.472,0.145,-0.52
20:05:51.476,0.415,-0.705
20:05:51.480,0.76,-0.94
20:05:51.484,1.08,-1.195
20:05:51.488,1.14,-1.375
20:05:51.492,0.91,-1.375
20:05:51.496,0.445,-1.075
20:05:51.500,0.065,-0.625
20:05:51.504,-0.115,-0.26
20:05:51.508,-0.185,-0.05
20:05:51.512,-0.22,0.07
20:05:51.516,-0.205,0.145
20:05:51.520,-0.235,0.18
20:05:51.524,-0.27,0.215
20:05:51.528,-0.32,0.235
20:05:51.532,-0.35,0.2
20:05:51.536,-0.4,0.21
20:05:51.540,-0.425,0.175
20:05:51.544,-0.43,0.14
20:05:51.548,-0.445,0.14
20:05:51.552,-0.47,0.105
20:05:51.556,-0.475,0.1
20:05:51.560,-0.465,0.08
20:05:51.564,-0.465,0.05
20:05:51.568,-0.47,0.065
20:05:51.572,-0.49,0.04
20:05:51.576,-0.48,0.03
20:05:51.580,-0.495,-0.005
20:05:51.584,-0.495,-0.025
20:05:51.588,-0.51,-0.025
20:05:51.592,-0.52,-0.04
20:05:51.596,-0.54,-0.02
20:05:51.600,-0.55,-0.035
20:05:51.604,-0.56,-0.05
20:05:51.608,-0.565,-0.04
20:05:51.612,-0.53,-0.045
20:05:51.616,-0.565,-0.045
20:05:51.620,-0.57,-0.05
20:05:51.624,-0.58,-0.05
20:05:51.628,-0.575,-0.065
20:05:51.632,-0.565,-0.045
20:05:51.636,-0.57,-0.06
20:05:51.640,-0.565,-0.015
20:05:51.644,-0.57,-0.035
20:05:51.648,-0.56,-0.035
20:05:51.652,-0.565,-0.025
20:05:51.656,-0.575,-0.025
20:05:51.660,-0.57,-0.04
20:05:51.664,-0.555,0.0
20:05:51.668,-0.565,0.02
20:05:51.672,-0.555,0.005
20:05:51.676,-0.565,0.0
20:05:51.680,-0.55,0.04
20:05:51.684,-0.53,0.025
20:05:51.688,-0.5,0.03
20:05:51.692,-0.51,0.03
20:05:51.696,-0.485,0.0
20:05:51.700,-0.465,0.005
20:05:51.704,-0.465,0.025
20:05:51.708,-0.405,0.02
20:05:51.712,-0.415,0.035
20:05:51.716,-0.39,0.02
20:05:51.720,-0.38,0.05
20:05:51.724,-0.38,0.035
20:05:51.728,-0.385,0.05
20:05:51.732,-0.39,0.035
20:05:51.736,-0.37,0.025
20:05:51.740,-0.35,0.035
20:05:51.744,-0.325,0.045
20:05:51.748,-0.3,0.055
20:05:51.752,-0.29,0.025
20:05:51.756,-0.285,0.025
20:05:51.760,-0.3,0.015
20:05:51.764,-0.29,-0.03
20:05:51.768,-0.285,-0.025
20:05:51.772,-0.3,-0.035
20:05:51.776,-0.29,-0.06
20:05:51.780,-0.32,-0.045
20:05:51.784,-0.32,-0.055
20:05:51.788,-0.33,-0.075
20:05:51.792,-0.345,-0.04
20:05:51.796,-0.36,-0.05
20:05:51.800,-0.37,-0.055
20:05:51.804,-0.39,-0.045
20:05:51.808,-0.36,-0.025
20:05:51.812,-0.38,-0.06
20:05:51.816,-0.39,-0.035
20:05:51.820,-0.385,-0.04
20:05:51.824,-0.375,-0.06
20:05:51.828,-0.395,-0.06
20:05:51.832,-0.38,-0.06
20:05:51.836,-0.385,-0.075
20:05:51.840,-0.38,-0.07
20:05:51.844,-0.375,-0.065
20:05:51.848,-0.395,-0.05
20:05:51.852,-0.38,-0.045
20:05:51.856,-0.4,-0.045
20:05:51.860,-0.37,-0.045
20:05:51.864,-0.375,-0.04
20:05:51.868,-0.37,-0.035
20:05:51.872,-0.355,-0.055
20:05:51.876,-0.335,-0.04
20:05:51.880,-0.325,-0.015
20:05:51.884,-0.32,-0.055
20:05:51.888,-0.345,-0.045
20:05:51.892,-0.305,-0.05
20:05:51.896,-0.27,-0.035
20:05:51.900,-0.265,-0.025
20:05:51.904,-0.21,-0.025
20:05:51.908,-0.15,-0.03
20:05:51.912,-0.075,-0.04
20:05:51.916,-0.015,-0.05
20:05:51.920,0.02,-0.05
20:05:51.924,0.01,-0.105
20:05:51.928,0.0,-0.16
20:05:51.932,-0.015,-0.195
20:05:51.936,-0.09,-0.205
20:05:51.940,-0.08,-0.3
20:05:51.944,0.05,-0.4
20:05:51.948,0.325,-0.58
20:05:51.952,0.715,-0.85
20:05:51.956,0.99,-1.14
20:05:51.960,1.06,-1.385
20:05:51.964,0.83,-1.39
20:05:51.968,0.36,-1.12
20:05:51.972,-0.02,-0.705
20:05:51.976,-0.245,-0.34
20:05:51.980,-0.35,-0.16
20:05:51.984,-0.39,-0.08
20:05:51.988,-0.405,-0.025
20:05:51.992,-0.445,-0.02
20:05:51.996,-0.465,-0.055
20:05:52.000,-0.48,-0.035
20:05:52.004,-0.49,-0.055
20:05:52.008,-0.485,-0.07
20:05:52.012,-0.5,-0.08
20:05:52.016,-0.5,-0.105
20:05:52.020,-0.51,-0.105
20:05:52.024,-0.525,-0.13
20:05:52.028,-0.56,-0.115
20:05:52.032,-0.565,-0.115
20:05:52.036,-0.54,-0.14
20:05:52.040,-0.555,-0.13
20:05:52.044,-0.56,-0.175
20:05:52.048,-0.56,-0.145
20:05:52.052,-0.555,-0.135
20:05:52.056,-0.555,-0.14
20:05:52.060,-0.55,-0.14
20:05:52.064,-0.55,-0.125
20:05:52.068,-0.555,-0.115
20:05:52.072,-0.55,-0.13
20:05:52.076,-0.545,-0.085
20:05:52.080,-0.53,-0.09
20:05:52.084,-0.525,-0.08
20:05:52.088,-0.515,-0.05
20:05:52.092,-0.505,-0.035
20:05:52.096,-0.51,-0.03
20:05:52.100,-0.485,-0.015
20:05:52.104,-0.495,0.005
20:05:52.108,-0.48,0.0
20:05:52.112,-0.46,0.02
20:05:52.116,-0.48,0.04
20:05:52.120,-0.47,0.045
20:05:52.124,-0.455,0.06
20:05:52.128,-0.48,0.06
20:05:52.132,-0.53,0.07
20:05:52.136,-0.55,0.075
20:05:52.140,-0.555,0.08
20:05:52.144,-0.56,0.075
20:05:52.148,-0.575,0.065
20:05:52.152,-0.52,0.045
20:05:52.156,-0.515,0.025
20:05:52.160,-0.495,0.03
20:05:52.164,-0.475,0.01
20:05:52.168,-0.465,0.015
20:05:52.172,-0.475,0.005
20:05:52.176,-0.445,-0.015
20:05:52.180,-0.435,-0.02
20:05:52.184,-0.44,-0.025
20:05:52.188,-0.44,-0.05
20:05:52.192,-0.41,-0.075
20:05:52.196,-0.405,-0.08
20:05:52.200,-0.39,-0.08
20:05:52.204,-0.395,-0.1
20:05:52.208,-0.385,-0.09
20:05:52.212,-0.375,-0.1
20:05:52.216,-0.385,-0.11
20:05:52.220,-0.37,-0.115
20:05:52.224,-0.375,-0.125
20:05:52.228,-0.37,-0.13
20:05:52.232,-0.385,-0.13
20:05:52.236,-0.39,-0.15
20:05:52.240,-0.385,-0.15
20:05:52.244,-0.4,-0.135
20:05:52.248,-0.39,-0.155
20:05:52.252,-0.38,-0.15
20:05:52.256,-0.39,-0.125
20:05:52.260,-0.375,-0.13
20:05:52.264,-0.39,-0.11
20:05:52.268,-0.4,-0.11
20:05:52.272,-0.415,-0.1
20:05:52.276,-0.43,-0.08
20:05:52.280,-0.405,-0.11
20:05:52.284,-0.41,-0.115
20:05:52.288,-0.405,-0.08
20:05:52.292,-0.365,-0.08
20:05:52.296,-0.335,-0.095
20:05:52.300,-0.335,-0.075
20:05:52.304,-0.325,-0.055
20:05:52.308,-0.32,-0.045
20:05:52.312,-0.32,-0.03
20:05:52.316,-0.28,-0.01
20:05:52.320,-0.3,-0.015
20:05:52.324,-0.305,-0.03
20:05:52.328,-0.31,0.005
20:05:52.332,-0.295,0.015
20:05:52.336,-0.31,0.04
20:05:52.340,-0.31,0.025
20:05:52.344,-0.33,0.04
20:05:52.348,-0.33,0.045
20:05:52.352,-0.3,0.05
20:05:52.356,-0.245,0.035
20:05:52.360,-0.17,0.035
20:05:52.364,-0.07,0.015
20:05:52.368,-0.02,-0.015
20:05:52.372,0.025,-0.055
20:05:52.376,0.035,-0.12
20:05:52.380,0.045,-0.165
20:05:52.384,0.035,-0.185
20:05:52.388,0.02,-0.235
20:05:52.392,0.03,-0.345
20:05:52.396,0.185,-0.5
20:05:52.400,0.52,-0.71
20:05:52.404,0.845,-1.0
20:05:52.408,1.055,-1.31
20:05:52.412,1.01,-1.455
20:05:52.416,0.67,-1.375
20:05:52.420,0.175,-1.01
20:05:52.424,-0.16,-0.605
20:05:52.428,-0.34,-0.3
20:05:52.432,-0.42,-0.17
20:05:52.436,-0.475,-0.09
20:05:52.440,-0.49,-0.045
20:05:52.444,-0.525,-0.02
20:05:52.448,-0.55,0.0
20:05:52.452,-0.535,0.0
20:05:52.456,-0.56,-0.025
20:05:52.460,-0.56,-0.055
20:05:52.464,-0.535,-0.08
20:05:52.468,-0.555,-0.105
20:05:52.472,-0.575,-0.11
20:05:52.476,-0.545,-0.13
20:05:52.480,-0.53,-0.115
20:05:52.484,-0.535,-0.105
20:05:52.488,-0.54,-0.12
20:05:52.492,-0.53,-0.105
20:05:52.496,-0.52,-0.125
20:05:52.500,-0.5,-0.09
20:05:52.504,-0.505,-0.09
20:05:52.508,-0.49,-0.06
20:05:52.512,-0.495,-0.045
20:05:52.516,-0.495,-0.03
20:05:52.520,-0.5,-0.02
20:05:52.524,-0.475,-0.02
20:05:52.528,-0.46,0.005
20:05:52.532,-0.455,0.035
20:05:52.536,-0.455,0.03
20:05:52.540,-0.48,0.05
20:05:52.544,-0.475,0.06
20:05:52.548,-0.505,0.09
20:05:52.552,-0.555,0.09
20:05:52.556,-0.55,0.11
20:05:52.560,-0.585,0.115
20:05:52.564,-0.585,0.11
20:05:52.568,-0.55,0.115
20:05:52.572,-0.545,0.105
20:05:52.576,-0.53,0.11
20:05:52.580,-0.515,0.095
20:05:52.584,-0.505,0.105
20:05:52.588,-0.465,0.095
20:05:52.592,-0.46,0.09
20:05:52.596,-0.45,0.11
20:05:52.600,-0.445,0.105
20:05:52.604,-0.42,0.115
20:05:52.608,-0.395,0.095
20:05:52.612,-0.385,0.065
20:05:52.616,-0.36,0.05
20:05:52.620,-0.34,0.02
20:05:52.624,-0.325,-0.005
20:05:52.628,-0.32,-0.01
20:05:52.632,-0.335,-0.025
20:05:52.636,-0.32,-0.025
20:05:52.640,-0.305,-0.05
20:05:52.644,-0.305,-0.05
20:05:52.648,-0.295,-0.05
20:05:52.652,-0.295,-0.055
20:05:52.656,-0.32,-0.07
20:05:52.660,-0.275,-0.1
20:05:52.664,-0.29,-0.09
20:05:52.668,-0.285,-0.125
20:05:52.672,-0.29,-0.115
20:05:52.676,-0.285,-0.1
20:05:52.680,-0.28,-0.09
20:05:52.684,-0.285,-0.11
20:05:52.688,-0.315,-0.115
20:05:52.692,-0.3,-0.1
20:05:52.696,-0.28,-0.1
20:05:52.700,-0.27,-0.08
20:05:52.704,-0.285,-0.055
20:05:52.708,-0.28,-0.06
20:05:52.712,-0.285,-0.055
20:05:52.716,-0.27,-0.02
20:05:52.720,-0.27,-0.025
20:05:52.724,-0.26,-0.035
20:05:52.728,-0.255,0.005
20:05:52.732,-0.24,0.005
20:05:52.736,-0.23,0.02
20:05:52.740,-0.215,0.03
20:05:52.744,-0.225,0.035
20:05:52.748,-0.245,0.035
20:05:52.752,-0.245,0.05
20:05:52.756,-0.265,0.05
20:05:52.760,-0.275,0.06
20:05:52.764,-0.32,0.07
20:05:52.768,-0.335,0.07
20:05:52.772,-0.34,0.03
20:05:52.776,-0.34,0.035
20:05:52.780,-0.32,0.025
20:05:52.784,-0.32,0.015
20:05:52.788,-0.33,0.035
20:05:52.792,-0.305,0.005
20:05:52.796,-0.29,0.005
20:05:52.800,-0.275,0.025
20:05:52.804,-0.26,0.005
20:05:52.808,-0.245,0.03
20:05:52.812,-0.2,0.03
20:05:52.816,-0.19,0.015
20:05:52.820,-0.185,-0.01
20:05:52.824,-0.185,-0.01
20:05:52.828,-0.185,-0.03
20:05:52.832,-0.175,-0.05
20:05:52.836,-0.16,-0.07
20:05:52.840,-0.16,-0.085
20:05:52.844,-0.17,-0.1
20:05:52.848,-0.145,-0.095
20:05:52.852,-0.17,-0.115
20:05:52.856,-0.165,-0.145
20:05:52.860,-0.135,-0.165
20:05:52.864,-0.085,-0.17
20:05:52.868,-0.025,-0.2
20:05:52.872,0.03,-0.185
20:05:52.876,0.09,-0.205
20:05:52.880,0.15,-0.235
20:05:52.884,0.175,-0.29
20:05:52.888,0.2,-0.345
20:05:52.892,0.21,-0.385
20:05:52.896,0.19,-0.42
20:05:52.900,0.175,-0.49
20:05:52.904,0.245,-0.59
20:05:52.908,0.485,-0.74
20:05:52.912,0.815,-0.98
20:05:52.916,1.08,-1.255
20:05:52.920,1.125,-1.455
20:05:52.924,0.895,-1.52
20:05:52.928,0.44,-1.265
20:05:52.932,0.06,-0.86
20:05:52.936,-0.11,-0.485
20:05:52.940,-0.16,-0.3
20:05:52.944,-0.215,-0.16
20:05:52.948,-0.225,-0.055
20:05:52.952,-0.245,0.015
20:05:52.956,-0.275,0.035
20:05:52.960,-0.29,0.06
20:05:52.964,-0.32,0.02
20:05:52.968,-0.36,0.025
20:05:52.972,-0.39,-0.005
20:05:52.976,-0.445,-0.01
20:05:52.980,-0.445,-0.03
20:05:52.984,-0.46,-0.02
20:05:52.988,-0.465,-0.045
20:05:52.992,-0.48,-0.055
20:05:52.996,-0.475,-0.055
20:05:53.000,-0.505,-0.035
20:05:53.004,-0.5,-0.06
20:05:53.008,-0.5,-0.07
20:05:53.012,-0.485,-0.07
20:05:53.016,-0.49,-0.085
20:05:53.020,-0.47,-0.11
20:05:53.024,-0.46,-0.1
20:05:53.028,-0.435,-0.095
20:05:53.032,-0.425,-0.095
20:05:53.036,-0.44,-0.115
20:05:53.040,-0.43,-0.07
20:05:53.044,-0.425,-0.1
20:05:53.048,-0.44,-0.115
20:05:53.052,-0.455,-0.13
20:05:53.056,-0.455,-0.12
20:05:53.060,-0.425,-0.16
20:05:53.064,-0.41,-0.15
20:05:53.068,-0.43,-0.15
20:05:53.072,-0.42,-0.15
20:05:53.076,-0.435,-0.18
20:05:53.080,-0.425,-0.16
20:05:53.084,-0.43,-0.185
20:05:53.088,-0.43,-0.185
20:05:53.092,-0.44,-0.19
20:05:53.096,-0.44,-0.215
20:05:53.100,-0.42,-0.195
20:05:53.104,-0.44,-0.215
20:05:53.108,-0.445,-0.21
20:05:53.112,-0.455,-0.2
20:05:53.116,-0.44,-0.195
20:05:53.120,-0.445,-0.22
20:05:53.124,-0.435,-0.21
20:05:53.128,-0.405,-0.225
20:05:53.132,-0.41,-0.225
20:05:53.136,-0.36,-0.225
20:05:53.140,-0.33,-0.24
20:05:53.144,-0.29,-0.22
20:05:53.148,-0.275,-0.23
20:05:53.152,-0.26,-0.23
20:05:53.156,-0.25,-0.195
20:05:53.160,-0.235,-0.18
20:05:53.164,-0.255,-0.18
20:05:53.168,-0.235,-0.16
20:05:53.172,-0.245,-0.185
20:05:53.176,-0.26,-0.185
20:05:53.180,-0.285,-0.175
20:05:53.184,-0.25,-0.16
20:05:53.188,-0.265,-0.16
20:05:53.192,-0.26,-0.175
20:05:53.196,-0.25,-0.18
20:05:53.200,-0.25,-0.17
20:05:53.204,-0.235,-0.165
20:05:53.208,-0.26,-0.155
20:05:53.212,-0.23,-0.175
20:05:53.216,-0.235,-0.185
20:05:53.220,-0.225,-0.19
20:05:53.224,-0.255,-0.195
20:05:53.228,-0.245,-0.225
20:05:53.232,-0.25,-0.175
20:05:53.236,-0.26,-0.18
20:05:53.240,-0.275,-0.16
20:05:53.244,-0.275,-0.15
20:05:53.248,-0.28,-0.18
20:05:53.252,-0.26,-0.18
20:05:53.256,-0.275,-0.22
20:05:53.260,-0.265,-0.215
20:05:53.264,-0.27,-0.22
20:05:53.268,-0.265,-0.225
20:05:53.272,-0.245,-0.265
20:05:53.276,-0.25,-0.24
20:05:53.280,-0.255,-0.27
20:05:53.284,-0.26,-0.26
20:05:53.288,-0.235,-0.27
20:05:53.292,-0.24,-0.27
20:05:53.296,-0.24,-0.275
20:05:53.300,-0.22,-0.285
20:05:53.304,-0.215,-0.29
20:05:53.308,-0.21,-0.3
20:05:53.312,-0.195,-0.32
20:05:53.316,-0.21,-0.33
20:05:53.320,-0.18,-0.32
20:05:53.324,-0.165,-0.315
20:05:53.328,-0.175,-0.315
20:05:53.332,-0.155,-0.33
20:05:53.336,-0.145,-0.315
20:05:53.340,-0.14,-0.305
20:05:53.344,-0.14,-0.305
20:05:53.348,-0.14,-0.275
20:05:53.352,-0.145,-0.27
20:05:53.356,-0.135,-0.275
20:05:53.360,-0.14,-0.26
20:05:53.364,-0.15,-0.23
20:05:53.368,-0.16,-0.24
20:05:53.372,-0.2,-0.22
20:05:53.376,-0.22,-0.23
20:05:53.380,-0.22,-0.225
20:05:53.384,-0.235,-0.205
20:05:53.388,-0.215,-0.22
20:05:53.392,-0.255,-0.19
20:05:53.396,-0.245,-0.195
20:05:53.400,-0.25,-0.19
20:05:53.404,-0.255,-0.205
20:05:53.408,-0.24,-0.21
20:05:53.412,-0.24,-0.2
20:05:53.416,-0.235,-0.21
20:05:53.420,-0.255,-0.21
20:05:53.424,-0.23,-0.215
20:05:53.428,-0.215,-0.23
20:05:53.432,-0.23,-0.225
20:05:53.436,-0.215,-0.215
20:05:53.440,-0.24,-0.215
20:05:53.444,-0.235,-0.185
20:05:53.448,-0.215,-0.175
20:05:53.452,-0.22,-0.175
20:05:53.456,-0.225,-0.18
20:05:53.460,-0.23,-0.185
20:05:53.464,-0.23,-0.185
20:05:53.468,-0.25,-0.23
20:05:53.472,-0.255,-0.24
20:05:53.476,-0.26,-0.235
20:05:53.480,-0.265,-0.28
20:05:53.484,-0.27,-0.275
20:05:53.488,-0.27,-0.28
20:05:53.492,-0.28,-0.285
20:05:53.496,-0.265,-0.295
20:05:53.500,-0.255,-0.28
20:05:53.504,-0.275,-0.29
20:05:53.508,-0.28,-0.31
20:05:53.512,-0.235,-0.3
20:05:53.516,-0.26,-0.295
20:05:53.520,-0.255,-0.265
20:05:53.524,-0.25,-0.27
20:05:53.528,-0.25,-0.25
20:05:53.532,-0.24,-0.27
20:05:53.536,-0.24,-0.285
20:05:53.540,-0.22,-0.29
20:05:53.544,-0.22,-0.27
20:05:53.548,-0.21,-0.265
20:05:53.552,-0.185,-0.27
20:05:53.556,-0.185,-0.26
20:05:53.560,-0.19,-0.265
20:05:53.564,-0.2,-0.245
20:05:53.568,-0.18,-0.21
20:05:53.572,-0.16,-0.195
20:05:53.576,-0.165,-0.195
20:05:53.580,-0.175,-0.145
20:05:53.584,-0.185,-0.105
20:05:53.588,-0.175,-0.125
20:05:53.592,-0.2,-0.12
20:05:53.596,-0.235,-0.11
20:05:53.600,-0.275,-0.105
20:05:53.604,-0.29,-0.095
20:05:53.608,-0.32,-0.1
20:05:53.612,-0.315,-0.095
20:05:53.616,-0.31,-0.075
20:05:53.620,-0.32,-0.07
20:05:53.624,-0.31,-0.07
20:05:53.628,-0.31,-0.065
20:05:53.632,-0.3,-0.08
20:05:53.636,-0.295,-0.1
20:05:53.640,-0.285,-0.125
20:05:53.644,-0.25,-0.11
20:05:53.648,-0.24,-0.105
20:05:53.652,-0.19,-0.1
20:05:53.656,-0.1,-0.12
20:05:53.660,-0.015,-0.105
20:05:53.664,0.085,-0.115
20:05:53.668,0.15,-0.16
20:05:53.672,0.21,-0.195
20:05:53.676,0.22,-0.265
20:05:53.680,0.255,-0.295
20:05:53.684,0.235,-0.325
20:05:53.688,0.195,-0.43
20:05:53.692,0.265,-0.545
20:05:53.696,0.49,-0.73
20:05:53.700,0.785,-0.985
20:05:53.704,1.085,-1.255
20:05:53.708,1.205,-1.47
20:05:53.712,1.065,-1.54
20:05:53.716,0.645,-1.35
20:05:53.720,0.18,-0.935
20:05:53.724,-0.105,-0.545
20:05:53.728,-0.24,-0.33
20:05:53.732,-0.31,-0.22
20:05:53.736,-0.355,-0.145
20:05:53.740,-0.36,-0.09
20:05:53.744,-0.395,-0.065
20:05:53.748,-0.41,-0.055
20:05:53.752,-0.46,-0.065
20:05:53.756,-0.455,-0.08
20:05:53.760,-0.465,-0.1
20:05:53.764,-0.475,-0.125
20:05:53.768,-0.475,-0.125
20:05:53.772,-0.475,-0.165
20:05:53.776,-0.48,-0.165
20:05:53.780,-0.46,-0.16
20:05:53.784,-0.445,-0.14
20:05:53.788,-0.43,-0.125
20:05:53.792,-0.45,-0.12
20:05:53.796,-0.455,-0.105
20:05:53.800,-0.465,-0.08
20:05:53.804,-0.47,-0.075
20:05:53.808,-0.455,-0.075
20:05:53.812,-0.46,-0.085
20:05:53.816,-0.465,-0.07
20:05:53.820,-0.48,-0.05
20:05:53.824,-0.515,-0.035
20:05:53.828,-0.52,-0.04
20:05:53.832,-0.545,-0.035
20:05:53.836,-0.555,-0.015
20:05:53.840,-0.58,-0.04
20:05:53.844,-0.59,-0.025
20:05:53.848,-0.575,-0.02
20:05:53.852,-0.58,-0.02
20:05:53.856,-0.555,-0.02
20:05:53.860,-0.575,-0.02
20:05:53.864,-0.57,-0.03
20:05:53.868,-0.545,-0.005
20:05:53.872,-0.555,-0.025
20:05:53.876,-0.535,-0.035
20:05:53.880,-0.54,-0.04
20:05:53.884,-0.5,-0.06
20:05:53.888,-0.515,-0.08
20:05:53.892,-0.52,-0.095
20:05:53.896,-0.51,-0.1
20:05:53.900,-0.505,-0.1
20:05:53.904,-0.48,-0.095
20:05:53.908,-0.455,-0.12
20:05:53.912,-0.435,-0.11
20:05:53.916,-0.43,-0.13
20:05:53.920,-0.415,-0.14
20:05:53.924,-0.425,-0.145
20:05:53.928,-0.425,-0.16
20:05:53.932,-0.4,-0.18
20:05:53.936,-0.42,-0.19
20:05:53.940,-0.42,-0.2
20:05:53.944,-0.405,-0.21
20:05:53.948,-0.42,-0.19
20:05:53.952,-0.42,-0.2
20:05:53.956,-0.42,-0.235
20:05:53.960,-0.395,-0.25
20:05:53.964,-0.385,-0.245
20:05:53.968,-0.385,-0.25
20:05:53.972,-0.36,-0.24
20:05:53.976,-0.345,-0.235
20:05:53.980,-0.33,-0.26
20:05:53.984,-0.325,-0.24
20:05:53.988,-0.3,-0.26
20:05:53.992,-0.295,-0.235
20:05:53.996,-0.295,-0.235
20:05:54.000,-0.275,-0.225
20:05:54.004,-0.28,-0.19
20:05:54.008,-0.26,-0.2
20:05:54.012,-0.26,-0.16
20:05:54.016,-0.255,-0.125
20:05:54.020,-0.25,-0.125
20:05:54.024,-0.245,-0.12
20:05:54.028,-0.245,-0.095
20:05:54.032,-0.27,-0.105
20:05:54.036,-0.285,-0.095
20:05:54.040,-0.295,-0.075
20:05:54.044,-0.315,-0.1
20:05:54.048,-0.335,-0.08
20:05:54.052,-0.365,-0.09
20:05:54.056,-0.35,-0.1
20:05:54.060,-0.33,-0.075
20:05:54.064,-0.33,-0.055
20:05:54.068,-0.32,-0.06
20:05:54.072,-0.3,-0.065
20:05:54.076,-0.27,-0.06
20:05:54.080,-0.23,-0.04
20:05:54.084,-0.19,-0.07
20:05:54.088,-0.115,-0.095
20:05:54.092,-0.105,-0.13
20:05:54.096,-0.095,-0.18
20:05:54.100,-0.105,-0.255
20:05:54.104,-0.135,-0.305
20:05:54.108,-0.17,-0.34
20:05:54.112,-0.17,-0.415
20:05:54.116,-0.045,-0.495
20:05:54.120,0.255,-0.645
20:05:54.124,0.605,-0.875
20:05:54.128,0.89,-1.18
20:05:54.132,0.995,-1.455
20:05:54.136,0.87,-1.525
20:05:54.140,0.475,-1.325
20:05:54.144,0.025,-0.94
20:05:54.148,-0.245,-0.56
20:05:54.152,-0.36,-0.31
20:05:54.156,-0.405,-0.19
20:05:54.160,-0.405,-0.15
20:05:54.164,-0.42,-0.09
20:05:54.168,-0.42,-0.07
20:05:54.172,-0.44,-0.065
20:05:54.176,-0.45,-0.075
20:05:54.180,-0.435,-0.09
20:05:54.184,-0.43,-0.115
20:05:54.188,-0.43,-0.12
20:05:54.192,-0.42,-0.12
20:05:54.196,-0.41,-0.12
20:05:54.200,-0.43,-0.14
20:05:54.204,-0.41,-0.14
20:05:54.208,-0.44,-0.135
20:05:54.212,-0.45,-0.155
20:05:54.216,-0.44,-0.135
20:05:54.220,-0.45,-0.145
20:05:54.224,-0.44,-0.125
20:05:54.228,-0.425,-0.125
20:05:54.232,-0.42,-0.115
20:05:54.236,-0.42,-0.125
20:05:54.240,-0.445,-0.11
20:05:54.244,-0.46,-0.085
20:05:54.248,-0.465,-0.115
20:05:54.252,-0.495,-0.095
20:05:54.256,-0.515,-0.08
20:05:54.260,-0.54,-0.09
20:05:54.264,-0.58,-0.085
20:05:54.268,-0.55,-0.085
20:05:54.272,-0.53,-0.055
20:05:54.276,-0.545,-0.05
20:05:54.280,-0.535,-0.04
20:05:54.284,-0.53,-0.05
20:05:54.288,-0.525,-0.05
20:05:54.292,-0.54,-0.045
20:05:54.296,-0.54,-0.045
20:05:54.300,-0.545,-0.035
20:05:54.304,-0.535,-0.07
20:05:54.308,-0.54,-0.1
20:05:54.312,-0.54,-0.1
20:05:54.316,-0.55,-0.135
20:05:54.320,-0.555,-0.13
20:05:54.324,-0.53,-0.115
20:05:54.328,-0.55,-0.15
20:05:54.332,-0.535,-0.165
20:05:54.336,-0.53,-0.17
20:05:54.340,-0.495,-0.17
20:05:54.344,-0.505,-0.19
20:05:54.348,-0.5,-0.205
20:05:54.352,-0.48,-0.21
20:05:54.356,-0.475,-0.22
20:05:54.360,-0.465,-0.22
20:05:54.364,-0.44,-0.23
20:05:54.368,-0.435,-0.2
20:05:54.372,-0.425,-0.23
20:05:54.376,-0.415,-0.215
20:05:54.380,-0.4,-0.21
20:05:54.384,-0.38,-0.225
20:05:54.388,-0.355,-0.19
20:05:54.392,-0.335,-0.19
20:05:54.396,-0.32,-0.185
20:05:54.400,-0.32,-0.17
20:05:54.404,-0.33,-0.145
20:05:54.408,-0.295,-0.115
20:05:54.412,-0.29,-0.11
20:05:54.416,-0.275,-0.115
20:05:54.420,-0.27,-0.08
20:05:54.424,-0.25,-0.065
20:05:54.428,-0.21,-0.045
20:05:54.432,-0.21,-0.055
20:05:54.436,-0.18,-0.03
20:05:54.440,-0.16,-0.025
20:05:54.444,-0.165,-0.015
20:05:54.448,-0.205,0.005
20:05:54.452,-0.18,0.0
20:05:54.456,-0.195,-0.005
20:05:54.460,-0.205,-0.025
20:05:54.464,-0.23,-0.01
20:05:54.468,-0.24,-0.02
20:05:54.472,-0.28,-0.015
20:05:54.476,-0.295,-0.01
20:05:54.480,-0.28,-0.025
20:05:54.484,-0.3,-0.045
20:05:54.488,-0.31,-0.06
20:05:54.492,-0.31,-0.06
20:05:54.496,-0.3,-0.06
20:05:54.500,-0.31,-0.05
20:05:54.504,-0.27,-0.09
20:05:54.508,-0.26,-0.105
20:05:54.512,-0.27,-0.105
20:05:54.516,-0.26,-0.115
20:05:54.520,-0.265,-0.12
20:05:54.524,-0.285,-0.135
20:05:54.528,-0.275,-0.13
20:05:54.532,-0.295,-0.145
20:05:54.536,-0.305,-0.145
20:05:54.540,-0.33,-0.17
20:05:54.544,-0.325,-0.17
20:05:54.548,-0.335,-0.17
20:05:54.552,-0.34,-0.19
20:05:54.556,-0.33,-0.19
20:05:54.560,-0.345,-0.195
20:05:54.564,-0.32,-0.185
20:05:54.568,-0.34,-0.18
20:05:54.572,-0.33,-0.18
20:05:54.576,-0.32,-0.19
20:05:54.580,-0.31,-0.19
20:05:54.584,-0.32,-0.17
20:05:54.588,-0.325,-0.17
20:05:54.592,-0.32,-0.185
20:05:54.596,-0.33,-0.17
20:05:54.600,-0.33,-0.17
20:05:54.604,-0.33,-0.16
20:05:54.608,-0.32,-0.16
20:05:54.612,-0.31,-0.15
20:05:54.616,-0.32,-0.105
20:05:54.620,-0.31,-0.13
20:05:54.624,-0.285,-0.12
20:05:54.628,-0.255,-0.115
20:05:54.632,-0.235,-0.135
20:05:54.636,-0.23,-0.115
20:05:54.640,-0.2,-0.1
20:05:54.644,-0.19,-0.09
20:05:54.648,-0.16,-0.075
20:05:54.652,-0.15,-0.075
20:05:54.656,-0.12,-0.08
20:05:54.660,-0.11,-0.05
20:05:54.664,-0.115,-0.065
20:05:54.668,-0.12,-0.06
20:05:54.672,-0.13,-0.055
20:05:54.676,-0.155,-0.055
20:05:54.680,-0.15,-0.065
20:05:54.684,-0.185,-0.07
20:05:54.688,-0.19,-0.065
20:05:54.692,-0.195,-0.085
20:05:54.696,-0.185,-0.065
20:05:54.700,-0.185,-0.055
20:05:54.704,-0.175,-0.065
20:05:54.708,-0.175,-0.1
20:05:54.712,-0.145,-0.09
20:05:54.716,-0.145,-0.14
20:05:54.720,-0.11,-0.155
20:05:54.724,-0.07,-0.17
20:05:54.728,0.0,-0.175
20:05:54.732,0.085,-0.18
20:05:54.736,0.165,-0.215
20:05:54.740,0.195,-0.3
20:05:54.744,0.23,-0.345
20:05:54.748,0.27,-0.385
20:05:54.752,0.225,-0.42
20:05:54.756,0.195,-0.47
20:05:54.760,0.155,-0.52
20:05:54.764,0.195,-0.635
20:05:54.768,0.41,-0.8
20:05:54.772,0.71,-1.025
20:05:54.776,0.975,-1.3
20:05:54.780,1.105,-1.54
20:05:54.784,0.96,-1.605
20:05:54.788,0.525,-1.4
20:05:54.792,0.07,-0.955
20:05:54.796,-0.205,-0.575
20:05:54.800,-0.33,-0.335
20:05:54.804,-0.395,-0.195
20:05:54.808,-0.435,-0.095
20:05:54.812,-0.45,-0.035
20:05:54.816,-0.48,-0.02
20:05:54.820,-0.5,-0.015
20:05:54.824,-0.485,-0.015
20:05:54.828,-0.505,-0.005
20:05:54.832,-0.5,-0.005
20:05:54.836,-0.495,-0.02
20:05:54.840,-0.49,-0.02
20:05:54.844,-0.48,-0.005
20:05:54.848,-0.47,-0.02
20:05:54.852,-0.455,-0.01
20:05:54.856,-0.43,-0.01
20:05:54.860,-0.415,-0.02
20:05:54.864,-0.38,0.0
20:05:54.868,-0.365,0.015
20:05:54.872,-0.37,0.025
20:05:54.876,-0.395,0.03
20:05:54.880,-0.39,0.03
20:05:54.884,-0.425,0.045
20:05:54.888,-0.425,0.04
20:05:54.892,-0.435,0.04
20:05:54.896,-0.435,0.035
20:05:54.900,-0.455,0.055
20:05:54.904,-0.46,0.05
20:05:54.908,-0.47,0.05
20:05:54.912,-0.505,0.025
20:05:54.916,-0.48,0.02
20:05:54.920,-0.51,0.005
20:05:54.924,-0.495,0.01
20:05:54.928,-0.515,-0.025
20:05:54.932,-0.515,0.005
20:05:54.936,-0.51,-0.02
20:05:54.940,-0.5,-0.035
20:05:54.944,-0.475,-0.04
20:05:54.948,-0.48,-0.05
20:05:54.952,-0.46,-0.065
20:05:54.956,-0.475,-0.08
20:05:54.960,-0.46,-0.115
20:05:54.964,-0.475,-0.15
20:05:54.968,-0.475,-0.16
20:05:54.972,-0.485,-0.175
20:05:54.976,-0.495,-0.175
20:05:54.980,-0.48,-0.16
20:05:54.984,-0.48,-0.17
20:05:54.988,-0.485,-0.17
20:05:54.992,-0.47,-0.16
20:05:54.996,-0.505,-0.155
20:05:55.000,-0.5,-0.155
20:05:55.004,-0.5,-0.16
20:05:55.008,-0.495,-0.16
20:05:55.012,-0.485,-0.17
20:05:55.016,-0.5,-0.175
20:05:55.020,-0.5,-0.19
20:05:55.024,-0.48,-0.19
20:05:55.028,-0.475,-0.18
20:05:55.032,-0.485,-0.19
20:05:55.036,-0.475,-0.155
20:05:55.040,-0.46,-0.14
20:05:55.044,-0.46,-0.175
20:05:55.048,-0.44,-0.15
20:05:55.052,-0.43,-0.15
20:05:55.056,-0.395,-0.14
20:05:55.060,-0.385,-0.14
20:05:55.064,-0.37,-0.145
20:05:55.068,-0.35,-0.12
20:05:55.072,-0.315,-0.13
20:05:55.076,-0.315,-0.115
20:05:55.080,-0.28,-0.105
20:05:55.084,-0.295,-0.07
20:05:55.088,-0.265,-0.05
20:05:55.092,-0.28,-0.06
20:05:55.096,-0.285,-0.06
20:05:55.100,-0.3,-0.04
20:05:55.104,-0.285,-0.03
20:05:55.108,-0.295,-0.015
20:05:55.112,-0.28,-0.01
20:05:55.116,-0.31,0.005
20:05:55.120,-0.315,0.03
20:05:55.124,-0.3,0.01
20:05:55.128,-0.295,0.005
20:05:55.132,-0.295,0.0
20:05:55.136,-0.28,-0.02
20:05:55.140,-0.29,-0.01
20:05:55.144,-0.275,-0.04
20:05:55.148,-0.28,-0.045
20:05:55.152,-0.28,-0.03
20:05:55.156,-0.275,-0.055
20:05:55.160,-0.275,-0.055
20:05:55.164,-0.275,-0.04
20:05:55.168,-0.28,-0.08
20:05:55.172,-0.29,-0.115
20:05:55.176,-0.29,-0.135
20:05:55.180,-0.305,-0.15
20:05:55.184,-0.305,-0.155
20:05:55.188,-0.305,-0.15
20:05:55.192,-0.325,-0.16
20:05:55.196,-0.31,-0.18
20:05:55.200,-0.335,-0.19
20:05:55.204,-0.36,-0.175
20:05:55.208,-0.35,-0.19
20:05:55.212,-0.36,-0.185
20:05:55.216,-0.33,-0.195
20:05:55.220,-0.34,-0.195
20:05:55.224,-0.325,-0.195
20:05:55.228,-0.34,-0.19
20:05:55.232,-0.35,-0.18
20:05:55.236,-0.325,-0.185
20:05:55.240,-0.35,-0.185
20:05:55.244,-0.34,-0.18
20:05:55.248,-0.33,-0.175
20:05:55.252,-0.275,-0.175
20:05:55.256,-0.245,-0.19
20:05:55.260,-0.175,-0.185
20:05:55.264,-0.09,-0.185
20:05:55.268,-0.01,-0.205
20:05:55.272,0.04,-0.255
20:05:55.276,0.04,-0.305
20:05:55.280,0.065,-0.32
20:05:55.284,0.095,-0.375
20:05:55.288,0.075,-0.435
20:05:55.292,0.125,-0.54
20:05:55.296,0.305,-0.69
20:05:55.300,0.63,-0.895
20:05:55.304,0.905,-1.17
20:05:55.308,1.055,-1.405
20:05:55.312,0.925,-1.52
20:05:55.316,0.54,-1.365
20:05:55.320,0.055,-0.96
20:05:55.324,-0.205,-0.535
20:05:55.328,-0.325,-0.26
20:05:55.332,-0.365,-0.11
20:05:55.336,-0.41,-0.03
20:05:55.340,-0.405,0.025
20:05:55.344,-0.455,0.035
20:05:55.348,-0.45,0.04
20:05:55.352,-0.435,0.06
20:05:55.356,-0.44,0.025
20:05:55.360,-0.44,0.005
20:05:55.364,-0.42,-0.02
20:05:55.368,-0.39,-0.03
20:05:55.372,-0.415,-0.045
20:05:55.376,-0.405,-0.06
20:05:55.380,-0.425,-0.08
20:05:55.384,-0.44,-0.085
20:05:55.388,-0.43,-0.11
20:05:55.392,-0.46,-0.115
20:05:55.396,-0.515,-0.12
20:05:55.400,-0.5,-0.125
20:05:55.404,-0.49,-0.125
20:05:55.408,-0.515,-0.13
20:05:55.412,-0.515,-0.12
20:05:55.416,-0.51,-0.1
20:05:55.420,-0.5,-0.1
20:05:55.424,-0.53,-0.105
20:05:55.428,-0.54,-0.105
20:05:55.432,-0.555,-0.1
20:05:55.436,-0.555,-0.1
20:05:55.440,-0.57,-0.09
20:05:55.444,-0.565,-0.065
20:05:55.448,-0.56,-0.08
20:05:55.452,-0.535,-0.04
20:05:55.456,-0.54,-0.05
20:05:55.460,-0.535,-0.035
20:05:55.464,-0.525,-0.03
20:05:55.468,-0.525,-0.015
20:05:55.472,-0.5,-0.02
20:05:55.476,-0.505,-0.01
20:05:55.480,-0.47,-0.02
20:05:55.484,-0.475,-0.015
20:05:55.488,-0.48,-0.02
20:05:55.492,-0.45,-0.01
20:05:55.496,-0.43,-0.015
20:05:55.500,-0.405,-0.005
20:05:55.504,-0.39,-0.01
20:05:55.508,-0.39,-0.02
20:05:55.512,-0.38,-0.035
20:05:55.516,-0.385,-0.03
20:05:55.520,-0.4,-0.035
20:05:55.524,-0.385,-0.06
20:05:55.528,-0.365,-0.06
20:05:55.532,-0.365,-0.05
20:05:55.536,-0.345,-0.03
20:05:55.540,-0.335,-0.03
20:05:55.544,-0.32,-0.04
20:05:55.548,-0.285,-0.06
20:05:55.552,-0.28,-0.08
20:05:55.556,-0.29,-0.095
20:05:55.560,-0.265,-0.095
20:05:55.564,-0.265,-0.1
20:05:55.568,-0.255,-0.115
20:05:55.572,-0.23,-0.12
20:05:55.576,-0.19,-0.125
20:05:55.580,-0.2,-0.145
20:05:55.584,-0.185,-0.15
20:05:55.588,-0.22,-0.15
20:05:55.592,-0.215,-0.17
20:05:55.596,-0.205,-0.16
20:05:55.600,-0.225,-0.15
20:05:55.604,-0.24,-0.16
20:05:55.608,-0.27,-0.135
20:05:55.612,-0.255,-0.17
20:05:55.616,-0.275,-0.15
20:05:55.620,-0.275,-0.135
20:05:55.624,-0.275,-0.15
20:05:55.628,-0.305,-0.155
20:05:55.632,-0.305,-0.16
20:05:55.636,-0.32,-0.16
20:05:55.640,-0.35,-0.16
20:05:55.644,-0.35,-0.145
20:05:55.648,-0.33,-0.155
20:05:55.652,-0.35,-0.155
20:05:55.656,-0.345,-0.16
20:05:55.660,-0.34,-0.145
20:05:55.664,-0.355,-0.135
20:05:55.668,-0.36,-0.14
20:05:55.672,-0.335,-0.145
20:05:55.676,-0.32,-0.14
20:05:55.680,-0.315,-0.145
20:05:55.684,-0.295,-0.155
20:05:55.688,-0.28,-0.15
20:05:55.692,-0.265,-0.15
20:05:55.696,-0.25,-0.145
20:05:55.700,-0.225,-0.165
20:05:55.704,-0.225,-0.16
20:05:55.708,-0.22,-0.185
20:05:55.712,-0.215,-0.185
20:05:55.716,-0.21,-0.215
20:05:55.720,-0.21,-0.19
20:05:55.724,-0.225,-0.21
20:05:55.728,-0.22,-0.215
20:05:55.732,-0.23,-0.215
20:05:55.736,-0.235,-0.2
20:05:55.740,-0.225,-0.18
20:05:55.744,-0.21,-0.18
20:05:55.748,-0.225,-0.16
20:05:55.752,-0.215,-0.15
20:05:55.756,-0.235,-0.185
20:05:55.760,-0.215,-0.205
20:05:55.764,-0.21,-0.2
20:05:55.768,-0.185,-0.21
20:05:55.772,-0.15,-0.215
20:05:55.776,-0.08,-0.235
20:05:55.780,0.0,-0.25
20:05:55.784,0.105,-0.26
20:05:55.788,0.2,-0.26
20:05:55.792,0.28,-0.315
20:05:55.796,0.32,-0.38
20:05:55.800,0.36,-0.42
20:05:55.804,0.365,-0.435
20:05:55.808,0.355,-0.48
20:05:55.812,0.36,-0.6
20:05:55.816,0.51,-0.745
20:05:55.820,0.79,-0.945
20:05:55.824,1.1,-1.22
20:05:55.828,1.225,-1.445
20:05:55.832,1.07,-1.58
20:05:55.836,0.67,-1.45
20:05:55.840,0.23,-1.08
20:05:55.844,-0.06,-0.7
20:05:55.848,-0.21,-0.45
20:05:55.852,-0.275,-0.32
20:05:55.856,-0.325,-0.225
20:05:55.860,-0.345,-0.15
20:05:55.864,-0.385,-0.135
20:05:55.868,-0.415,-0.135
20:05:55.872,-0.44,-0.135
20:05:55.876,-0.445,-0.145
20:05:55.880,-0.46,-0.17
20:05:55.884,-0.47,-0.175
20:05:55.888,-0.445,-0.185
20:05:55.892,-0.44,-0.18
20:05:55.896,-0.42,-0.17
20:05:55.900,-0.425,-0.185
20:05:55.904,-0.39,-0.2
20:05:55.908,-0.41,-0.18
20:05:55.912,-0.41,-0.18
20:05:55.916,-0.42,-0.185
20:05:55.920,-0.435,-0.16
20:05:55.924,-0.425,-0.17
20:05:55.928,-0.445,-0.19
20:05:55.932,-0.445,-0.19
20:05:55.936,-0.425,-0.185
20:05:55.940,-0.44,-0.215
20:05:55.944,-0.46,-0.17
20:05:55.948,-0.46,-0.165
20:05:55.952,-0.465,-0.16
20:05:55.956,-0.48,-0.145
20:05:55.960,-0.465,-0.145
20:05:55.964,-0.49,-0.14
20:05:55.968,-0.48,-0.165
20:05:55.972,-0.49,-0.175
20:05:55.976,-0.495,-0.16
20:05:55.980,-0.49,-0.19
20:05:55.984,-0.485,-0.21
20:05:55.988,-0.505,-0.215
20:05:55.992,-0.48,-0.235
20:05:55.996,-0.475,-0.225
20:05:56.000,-0.46,-0.215
20:05:56.004,-0.455,-0.255
20:05:56.008,-0.425,-0.235
20:05:56.012,-0.425,-0.245
20:05:56.016,-0.395,-0.265
20:05:56.020,-0.385,-0.27
20:05:56.024,-0.365,-0.285
20:05:56.028,-0.36,-0.295
20:05:56.032,-0.365,-0.295
20:05:56.036,-0.385,-0.31
20:05:56.040,-0.375,-0.33
20:05:56.044,-0.385,-0.35
20:05:56.048,-0.355,-0.36
20:05:56.052,-0.32,-0.33
20:05:56.056,-0.32,-0.345
20:05:56.060,-0.31,-0.345
20:05:56.064,-0.32,-0.34
20:05:56.068,-0.32,-0.335
20:05:56.072,-0.305,-0.34
20:05:56.076,-0.295,-0.345
20:05:56.080,-0.285,-0.34
20:05:56.084,-0.275,-0.305
20:05:56.088,-0.265,-0.32
20:05:56.092,-0.28,-0.305
20:05:56.096,-0.265,-0.285
20:05:56.100,-0.25,-0.295
20:05:56.104,-0.25,-0.285
20:05:56.108,-0.21,-0.275
20:05:56.112,-0.195,-0.275
20:05:56.116,-0.185,-0.27
20:05:56.120,-0.195,-0.25
20:05:56.124,-0.18,-0.275
20:05:56.128,-0.19,-0.27
20:05:56.132,-0.185,-0.24
20:05:56.136,-0.19,-0.245
20:05:56.140,-0.215,-0.255
20:05:56.144,-0.215,-0.26
20:05:56.148,-0.25,-0.265
20:05:56.152,-0.255,-0.225
20:05:56.156,-0.24,-0.245
20:05:56.160,-0.255,-0.23
20:05:56.164,-0.26,-0.22
20:05:56.168,-0.26,-0.205
20:05:56.172,-0.26,-0.215
20:05:56.176,-0.28,-0.22
20:05:56.180,-0.265,-0.215
20:05:56.184,-0.285,-0.23
20:05:56.188,-0.275,-0.225
20:05:56.192,-0.275,-0.235
20:05:56.196,-0.265,-0.24
20:05:56.200,-0.265,-0.24
20:05:56.204,-0.285,-0.23
20:05:56.208,-0.29,-0.235
20:05:56.212,-0.3,-0.255
20:05:56.216,-0.285,-0.25
20:05:56.220,-0.3,-0.275
20:05:56.224,-0.275,-0.275
20:05:56.228,-0.275,-0.275
20:05:56.232,-0.275,-0.285
20:05:56.236,-0.275,-0.295
20:05:56.240,-0.25,-0.31
20:05:56.244,-0.23,-0.305
20:05:56.248,-0.25,-0.32
20:05:56.252,-0.23,-0.335
20:05:56.256,-0.205,-0.34
20:05:56.260,-0.22,-0.37
20:05:56.264,-0.24,-0.36
20:05:56.268,-0.255,-0.35
20:05:56.272,-0.24,-0.35
20:05:56.276,-0.25,-0.34
20:05:56.280,-0.24,-0.34
20:05:56.284,-0.23,-0.33
20:05:56.288,-0.19,-0.32
20:05:56.292,-0.22,-0.32
20:05:56.296,-0.215,-0.305
20:05:56.300,-0.205,-0.3
20:05:56.304,-0.205,-0.3
20:05:56.308,-0.205,-0.28
20:05:56.312,-0.19,-0.285
20:05:56.316,-0.17,-0.27
20:05:56.320,-0.18,-0.26
20:05:56.324,-0.165,-0.285
20:05:56.328,-0.18,-0.28
20:05:56.332,-0.16,-0.275
20:05:56.336,-0.18,-0.28
20:05:56.340,-0.185,-0.265
20:05:56.344,-0.2,-0.255
20:05:56.348,-0.225,-0.265
20:05:56.352,-0.24,-0.28
20:05:56.356,-0.25,-0.26
20:05:56.360,-0.255,-0.275
20:05:56.364,-0.26,-0.275
20:05:56.368,-0.275,-0.26
20:05:56.372,-0.27,-0.265
20:05:56.376,-0.265,-0.27
20:05:56.380,-0.245,-0.26
20:05:56.384,-0.25,-0.25
20:05:56.388,-0.265,-0.26
20:05:56.392,-0.265,-0.285
20:05:56.396,-0.27,-0.26
20:05:56.400,-0.265,-0.26
20:05:56.404,-0.285,-0.265
20:05:56.408,-0.26,-0.245
20:05:56.412,-0.28,-0.255
20:05:56.416,-0.265,-0.25
20:05:56.420,-0.23,-0.25
20:05:56.424,-0.195,-0.24
20:05:56.428,-0.12,-0.235
20:05:56.432,-0.045,-0.235
20:05:56.436,0.025,-0.245
20:05:56.440,0.1,-0.265
20:05:56.444,0.15,-0.3
20:05:56.448,0.19,-0.355
20:05:56.452,0.225,-0.385
20:05:56.456,0.2,-0.4
20:05:56.460,0.185,-0.505
20:05:56.464,0.21,-0.625
20:05:56.468,0.415,-0.8
20:05:56.472,0.74,-1.0
20:05:56.476,1.03,-1.28
20:05:56.480,1.18,-1.5
20:05:56.484,1.01,-1.575
20:05:56.488,0.58,-1.385
20:05:56.492,0.13,-0.965
20:05:56.496,-0.13,-0.56
20:05:56.500,-0.275,-0.36
20:05:56.504,-0.335,-0.24
20:05:56.508,-0.355,-0.15
20:05:56.512,-0.38,-0.07
20:05:56.516,-0.405,-0.065
20:05:56.520,-0.4,-0.065
20:05:56.524,-0.37,-0.04
20:05:56.528,-0.38,-0.075
20:05:56.532,-0.365,-0.075
20:05:56.536,-0.375,-0.105
20:05:56.540,-0.38,-0.105
20:05:56.544,-0.36,-0.08
20:05:56.548,-0.4,-0.08
20:05:56.552,-0.4,-0.075
20:05:56.556,-0.41,-0.075
20:05:56.560,-0.41,-0.095
20:05:56.564,-0.43,-0.105
20:05:56.568,-0.425,-0.08
20:05:56.572,-0.42,-0.055
20:05:56.576,-0.435,-0.04
20:05:56.580,-0.44,-0.065
20:05:56.584,-0.42,-0.045
20:05:56.588,-0.455,-0.05
20:05:56.592,-0.465,-0.05
20:05:56.596,-0.475,-0.065
20:05:56.600,-0.48,-0.05
20:05:56.604,-0.485,-0.08
20:05:56.608,-0.515,-0.08
20:05:56.612,-0.515,-0.095
20:05:56.616,-0.505,-0.09
20:05:56.620,-0.53,-0.1
20:05:56.624,-0.51,-0.09
20:05:56.628,-0.54,-0.09
20:05:56.632,-0.545,-0.085
20:05:56.636,-0.56,-0.09
20:05:56.640,-0.55,-0.065
20:05:56.644,-0.555,-0.08
20:05:56.648,-0.53,-0.065
20:05:56.652,-0.515,-0.06
20:05:56.656,-0.505,-0.06
20:05:56.660,-0.495,-0.065
20:05:56.664,-0.49,-0.06
20:05:56.668,-0.48,-0.06
20:05:56.672,-0.49,-0.09
20:05:56.676,-0.465,-0.08
20:05:56.680,-0.47,-0.08
20:05:56.684,-0.44,-0.08
20:05:56.688,-0.445,-0.1
20:05:56.692,-0.41,-0.115
20:05:56.696,-0.425,-0.125
20:05:56.700,-0.4,-0.135
20:05:56.704,-0.41,-0.14
20:05:56.708,-0.4,-0.155
20:05:56.712,-0.39,-0.16
20:05:56.716,-0.37,-0.16
20:05:56.720,-0.335,-0.175
20:05:56.724,-0.34,-0.18
20:05:56.728,-0.325,-0.18
20:05:56.732,-0.3,-0.195
20:05:56.736,-0.29,-0.2
20:05:56.740,-0.28,-0.175
20:05:56.744,-0.28,-0.19
20:05:56.748,-0.26,-0.16
20:05:56.752,-0.245,-0.18
20:05:56.756,-0.23,-0.165
20:05:56.760,-0.23,-0.16
20:05:56.764,-0.23,-0.15
20:05:56.768,-0.225,-0.15
20:05:56.772,-0.225,-0.135
20:05:56.776,-0.225,-0.115
20:05:56.780,-0.235,-0.09
20:05:56.784,-0.245,-0.09
20:05:56.788,-0.25,-0.07
20:05:56.792,-0.24,-0.06
20:05:56.796,-0.24,-0.065
20:05:56.800,-0.26,-0.075
20:05:56.804,-0.28,-0.095
20:05:56.808,-0.28,-0.08
20:05:56.812,-0.27,-0.08
20:05:56.816,-0.285,-0.07
20:05:56.820,-0.315,-0.09
20:05:56.824,-0.33,-0.08
20:05:56.828,-0.335,-0.07
20:05:56.832,-0.355,-0.085
20:05:56.836,-0.365,-0.085
20:05:56.840,-0.355,-0.08
20:05:56.844,-0.355,-0.09
20:05:56.848,-0.355,-0.075
20:05:56.852,-0.365,-0.07
20:05:56.856,-0.38,-0.06
20:05:56.860,-0.39,-0.05
20:05:56.864,-0.39,-0.065
20:05:56.868,-0.38,-0.055
20:05:56.872,-0.39,-0.07
20:05:56.876,-0.385,-0.075
20:05:56.880,-0.365,-0.08
20:05:56.884,-0.325,-0.065
20:05:56.888,-0.295,-0.085
20:05:56.892,-0.255,-0.095
20:05:56.896,-0.2,-0.095
20:05:56.900,-0.19,-0.115
20:05:56.904,-0.165,-0.075
20:05:56.908,-0.14,-0.1
20:05:56.912,-0.135,-0.08
20:05:56.916,-0.105,-0.065
20:05:56.920,-0.04,-0.07
20:05:56.924,0.035,-0.07
20:05:56.928,0.11,-0.095
20:05:56.932,0.16,-0.08
20:05:56.936,0.195,-0.135
20:05:56.940,0.215,-0.195
20:05:56.944,0.205,-0.25
20:05:56.948,0.18,-0.27
20:05:56.952,0.13,-0.32
20:05:56.956,0.125,-0.405
20:05:56.960,0.235,-0.55
20:05:56.964,0.51,-0.765
20:05:56.968,0.83,-1.01
20:05:56.972,1.07,-1.32
20:05:56.976,1.09,-1.55
20:05:56.980,0.84,-1.545
20:05:56.984,0.395,-1.27
20:05:56.988,-0.02,-0.845
20:05:56.992,-0.255,-0.455
20:05:56.996,-0.33,-0.265
20:05:57.000,-0.365,-0.15
20:05:57.004,-0.365,-0.055
20:05:57.008,-0.385,-0.03
20:05:57.012,-0.43,-0.015
20:05:57.016,-0.45,-0.01
20:05:57.020,-0.45,-0.015
20:05:57.024,-0.475,-0.04
20:05:57.028,-0.475,-0.04
20:05:57.032,-0.485,-0.055
20:05:57.036,-0.485,-0.075
20:05:57.040,-0.51,-0.09
20:05:57.044,-0.515,-0.1
20:05:57.048,-0.515,-0.085
20:05:57.052,-0.505,-0.08
20:05:57.056,-0.54,-0.11
20:05:57.060,-0.555,-0.1
20:05:57.064,-0.58,-0.105
20:05:57.068,-0.59,-0.095
20:05:57.072,-0.58,-0.1
20:05:57.076,-0.6,-0.07
20:05:57.080,-0.615,-0.075
20:05:57.084,-0.6,-0.05
20:05:57.088,-0.61,-0.065
20:05:57.092,-0.605,-0.055
20:05:57.096,-0.615,-0.065
20:05:57.100,-0.6,-0.05
20:05:57.104,-0.6,-0.045
20:05:57.108,-0.575,-0.045
20:05:57.112,-0.545,-0.07
20:05:57.116,-0.515,-0.09
20:05:57.120,-0.495,-0.08
20:05:57.124,-0.465,-0.08
20:05:57.128,-0.425,-0.075
20:05:57.132,-0.4,-0.065
20:05:57.136,-0.4,-0.07
20:05:57.140,-0.345,-0.045
20:05:57.144,-0.325,-0.055
20:05:57.148,-0.32,-0.025
20:05:57.152,-0.32,0.0
20:05:57.156,-0.305,0.005
20:05:57.160,-0.3,0.005
20:05:57.164,-0.305,0.01
20:05:57.168,-0.295,0.0
20:05:57.172,-0.3,0.0
20:05:57.176,-0.3,0.005
20:05:57.180,-0.305,-0.01
20:05:57.184,-0.335,-0.015
20:05:57.188,-0.32,-0.04
20:05:57.192,-0.31,-0.05
20:05:57.196,-0.305,-0.055
20:05:57.200,-0.305,-0.05
20:05:57.204,-0.305,-0.065
20:05:57.208,-0.3,-0.07
20:05:57.212,-0.315,-0.11
20:05:57.216,-0.315,-0.13
20:05:57.220,-0.33,-0.125
20:05:57.224,-0.32,-0.13
20:05:57.228,-0.33,-0.15
20:05:57.232,-0.32,-0.135
20:05:57.236,-0.35,-0.155
20:05:57.240,-0.36,-0.18
20:05:57.244,-0.355,-0.155
20:05:57.248,-0.35,-0.15
20:05:57.252,-0.375,-0.14
20:05:57.256,-0.375,-0.125
20:05:57.260,-0.39,-0.125
20:05:57.264,-0.395,-0.125
20:05:57.268,-0.405,-0.12
20:05:57.272,-0.415,-0.11
20:05:57.276,-0.405,-0.095
20:05:57.280,-0.425,-0.105
20:05:57.284,-0.43,-0.08
20:05:57.288,-0.44,-0.095
20:05:57.292,-0.445,-0.07
20:05:57.296,-0.46,-0.075
20:05:57.300,-0.475,-0.06
20:05:57.304,-0.495,-0.06
20:05:57.308,-0.47,-0.035
20:05:57.312,-0.48,-0.04
20:05:57.316,-0.49,-0.035
20:05:57.320,-0.46,-0.035
20:05:57.324,-0.44,-0.03
20:05:57.328,-0.405,-0.045
20:05:57.332,-0.4,-0.035
20:05:57.336,-0.355,-0.055
20:05:57.340,-0.335,-0.085
20:05:57.344,-0.315,-0.09
20:05:57.348,-0.29,-0.07
20:05:57.352,-0.285,-0.08
20:05:57.356,-0.24,-0.085
20:05:57.360,-0.21,-0.07
20:05:57.364,-0.18,-0.07
20:05:57.368,-0.14,-0.065
20:05:57.372,-0.12,-0.04
20:05:57.376,-0.135,-0.035
20:05:57.380,-0.12,-0.015
20:05:57.384,-0.14,-0.03
20:05:57.388,-0.145,-0.025
20:05:57.392,-0.15,-0.01
20:05:57.396,-0.16,-0.015
20:05:57.400,-0.17,-0.01
20:05:57.404,-0.165,-0.02
20:05:57.408,-0.165,-0.045
20:05:57.412,-0.16,-0.04
20:05:57.416,-0.155,-0.05
20:05:57.420,-0.155,-0.06
20:05:57.424,-0.185,-0.07
20:05:57.428,-0.185,-0.08
20:05:57.432,-0.19,-0.085
20:05:57.436,-0.205,-0.12
20:05:57.440,-0.21,-0.125
20:05:57.444,-0.2,-0.14
20:05:57.448,-0.18,-0.13
20:05:57.452,-0.15,-0.14
20:05:57.456,-0.075,-0.14
20:05:57.460,0.0,-0.15
20:05:57.464,0.055,-0.16
20:05:57.468,0.07,-0.2
20:05:57.472,0.095,-0.275
20:05:57.476,0.105,-0.285
20:05:57.480,0.095,-0.32
20:05:57.484,0.05,-0.37
20:05:57.488,0.08,-0.445
20:05:57.492,0.195,-0.585
20:05:57.496,0.465,-0.79
20:05:57.500,0.79,-1.05
20:05:57.504,0.985,-1.33
20:05:57.508,0.94,-1.495
20:05:57.512,0.595,-1.43
20:05:57.516,0.105,-1.065
20:05:57.520,-0.225,-0.655
20:05:57.524,-0.39,-0.325
20:05:57.528,-0.475,-0.18
20:05:57.532,-0.515,-0.07
20:05:57.536,-0.505,0.005
20:05:57.540,-0.525,0.045
20:05:57.544,-0.525,0.07
20:05:57.548,-0.5,0.065
20:05:57.552,-0.48,0.06
20:05:57.556,-0.48,0.045
20:05:57.560,-0.475,0.045
20:05:57.564,-0.425,0.005
20:05:57.568,-0.375,-0.015
20:05:57.572,-0.36,-0.01
20:05:57.576,-0.34,-0.03
20:05:57.580,-0.325,-0.035
20:05:57.584,-0.32,-0.05
20:05:57.588,-0.32,-0.025
20:05:57.592,-0.33,0.005
20:05:57.596,-0.33,0.015
20:05:57.600,-0.33,0.025
20:05:57.604,-0.35,0.02
20:05:57.608,-0.35,0.035
20:05:57.612,-0.345,0.05
20:05:57.616,-0.34,0.035
20:05:57.620,-0.365,0.035
20:05:57.624,-0.37,0.035
20:05:57.628,-0.37,0.03
20:05:57.632,-0.39,0.035
20:05:57.636,-0.4,0.02
20:05:57.640,-0.39,0.035
20:05:57.644,-0.425,0.025
20:05:57.648,-0.43,0.025
20:05:57.652,-0.455,0.02
20:05:57.656,-0.465,0.025
20:05:57.660,-0.465,0.015
20:05:57.664,-0.48,0.035
20:05:57.668,-0.475,0.015
20:05:57.672,-0.515,0.025
20:05:57.676,-0.515,0.025
20:05:57.680,-0.515,0.025
20:05:57.684,-0.5,0.025
20:05:57.688,-0.51,0.0
20:05:57.692,-0.505,0.0
20:05:57.696,-0.495,-0.01
20:05:57.700,-0.505,-0.025
20:05:57.704,-0.5,-0.02
20:05:57.708,-0.525,-0.035
20:05:57.712,-0.505,-0.035
20:05:57.716,-0.53,-0.04
20:05:57.720,-0.51,-0.04
20:05:57.724,-0.51,-0.03
20:05:57.728,-0.495,-0.045
20:05:57.732,-0.475,-0.04
20:05:57.736,-0.445,-0.035
20:05:57.740,-0.42,-0.045
20:05:57.744,-0.425,-0.02
20:05:57.748,-0.395,-0.035
20:05:57.752,-0.37,-0.02
20:05:57.756,-0.36,-0.03
20:05:57.760,-0.325,-0.045
20:05:57.764,-0.295,-0.04
20:05:57.768,-0.305,-0.04
20:05:57.772,-0.285,-0.02
20:05:57.776,-0.27,-0.04
20:05:57.780,-0.25,-0.01
20:05:57.784,-0.235,-0.01
20:05:57.788,-0.24,0.005
20:05:57.792,-0.23,0.02
20:05:57.796,-0.195,0.005
20:05:57.800,-0.195,0.01
20:05:57.804,-0.185,0.02
20:05:57.808,-0.18,0.035
20:05:57.812,-0.165,0.03
20:05:57.816,-0.15,0.02
20:05:57.820,-0.145,0.01
20:05:57.824,-0.15,0.0
20:05:57.828,-0.16,0.0
20:05:57.832,-0.17,0.0
20:05:57.836,-0.165,0.0
20:05:57.840,-0.165,0.0
20:05:57.844,-0.16,-0.015
20:05:57.848,-0.185,-0.03
20:05:57.852,-0.185,-0.01
20:05:57.856,-0.2,-0.025
20:05:57.860,-0.22,-0.035
20:05:57.864,-0.25,-0.025
20:05:57.868,-0.255,-0.02
20:05:57.872,-0.26,-0.03
20:05:57.876,-0.275,-0.015
20:05:57.880,-0.3,-0.035
20:05:57.884,-0.32,-0.035
20:05:57.888,-0.33,-0.025
20:05:57.892,-0.33,-0.02
20:05:57.896,-0.34,-0.035
20:05:57.900,-0.35,-0.04
20:05:57.904,-0.365,-0.04
20:05:57.908,-0.345,-0.04
20:05:57.912,-0.34,-0.045
20:05:57.916,-0.345,-0.045
20:05:57.920,-0.35,-0.055
20:05:57.924,-0.345,-0.045
20:05:57.928,-0.335,-0.055
20:05:57.932,-0.33,-0.07
20:05:57.936,-0.35,-0.045
20:05:57.940,-0.335,-0.045
20:05:57.944,-0.345,-0.04
20:05:57.948,-0.33,-0.04
20:05:57.952,-0.34,-0.06
20:05:57.956,-0.3,-0.03
20:05:57.960,-0.285,-0.05
20:05:57.964,-0.26,-0.045
20:05:57.968,-0.25,-0.065
20:05:57.972,-0.185,-0.045
20:05:57.976,-0.12,-0.025
20:05:57.980,-0.05,-0.065
20:05:57.984,0.035,-0.075
20:05:57.988,0.1,-0.125
20:05:57.992,0.11,-0.16
20:05:57.996,0.125,-0.225
20:05:58.000,0.12,-0.25
20:05:58.004,0.13,-0.27
20:05:58.008,0.095,-0.335
20:05:58.012,0.185,-0.45
20:05:58.016,0.435,-0.62
20:05:58.020,0.78,-0.835
20:05:58.024,1.07,-1.135
20:05:58.028,1.16,-1.365
20:05:58.032,0.97,-1.415
20:05:58.036,0.55,-1.225
20:05:58.040,0.16,-0.795
20:05:58.044,-0.055,-0.41
20:05:58.048,-0.145,-0.23
20:05:58.052,-0.185,-0.12
20:05:58.056,-0.215,-0.05
20:05:58.060,-0.25,-0.005
20:05:58.064,-0.305,0.015
20:05:58.068,-0.31,0.025
20:05:58.072,-0.34,0.03
20:05:58.076,-0.345,-0.01
20:05:58.080,-0.36,-0.015
20:05:58.084,-0.38,-0.045
20:05:58.088,-0.395,-0.045
20:05:58.092,-0.415,-0.055
20:05:58.096,-0.43,-0.035
20:05:58.100,-0.44,-0.07
20:05:58.104,-0.45,-0.065
20:05:58.108,-0.475,-0.08
20:05:58.112,-0.475,-0.08
20:05:58.116,-0.495,-0.08
20:05:58.120,-0.5,-0.05
20:05:58.124,-0.505,-0.07
20:05:58.128,-0.515,-0.06
20:05:58.132,-0.515,-0.065
20:05:58.136,-0.535,-0.06
20:05:58.140,-0.535,-0.06
20:05:58.144,-0.56,-0.06
20:05:58.148,-0.525,-0.065
20:05:58.152,-0.54,-0.055
20:05:58.156,-0.545,-0.05
20:05:58.160,-0.54,-0.05
20:05:58.164,-0.535,-0.04
20:05:58.168,-0.53,-0.045
20:05:58.172,-0.515,-0.04
20:05:58.176,-0.525,-0.03
20:05:58.180,-0.52,0.0
20:05:58.184,-0.51,0.0
20:05:58.188,-0.49,0.03
20:05:58.192,-0.49,0.015
20:05:58.196,-0.48,0.01
20:05:58.200,-0.465,0.025
20:05:58.204,-0.455,0.035
20:05:58.208,-0.45,0.04
20:05:58.212,-0.44,0.04
20:05:58.216,-0.43,0.055
20:05:58.220,-0.41,0.06
20:05:58.224,-0.4,0.075
20:05:58.228,-0.385,0.065
20:05:58.232,-0.38,0.08
20:05:58.236,-0.34,0.07
20:05:58.240,-0.335,0.05
20:05:58.244,-0.33,0.035
20:05:58.248,-0.31,0.035
20:05:58.252,-0.27,0.025
20:05:58.256,-0.25,0.03
20:05:58.260,-0.24,-0.03
20:05:58.264,-0.205,-0.03
20:05:58.268,-0.215,-0.03
20:05:58.272,-0.2,-0.07
20:05:58.276,-0.225,-0.085
20:05:58.280,-0.205,-0.085
20:05:58.284,-0.205,-0.105
20:05:58.288,-0.18,-0.12
20:05:58.292,-0.215,-0.1
20:05:58.296,-0.215,-0.11
20:05:58.300,-0.24,-0.11
20:05:58.304,-0.245,-0.1
20:05:58.308,-0.26,-0.11
20:05:58.312,-0.275,-0.105
20:05:58.316,-0.275,-0.09
20:05:58.320,-0.285,-0.095
20:05:58.324,-0.29,-0.075
20:05:58.328,-0.305,-0.075
20:05:58.332,-0.3,-0.085
20:05:58.336,-0.31,-0.055
20:05:58.340,-0.315,-0.07
20:05:58.344,-0.315,-0.065
20:05:58.348,-0.31,-0.065
20:05:58.352,-0.32,-0.08
20:05:58.356,-0.34,-0.08
20:05:58.360,-0.355,-0.065
20:05:58.364,-0.365,-0.08
20:05:58.368,-0.38,-0.075
20:05:58.372,-0.375,-0.06
20:05:58.376,-0.375,-0.06
20:05:58.380,-0.34,-0.05
20:05:58.384,-0.365,-0.07
20:05:58.388,-0.33,-0.05
20:05:58.392,-0.33,-0.055
20:05:58.396,-0.32,-0.05
20:05:58.400,-0.31,-0.04
20:05:58.404,-0.315,-0.055
20:05:58.408,-0.34,-0.06
20:05:58.412,-0.32,-0.05
20:05:58.416,-0.29,-0.04
20:05:58.420,-0.29,-0.03
20:05:58.424,-0.27,-0.03
20:05:58.428,-0.24,-0.035
20:05:58.432,-0.235,-0.02
20:05:58.436,-0.21,-0.005
20:05:58.440,-0.175,0.0
20:05:58.444,-0.15,0.0
20:05:58.448,-0.09,-0.01
20:05:58.452,-0.035,0.0
20:05:58.456,0.07,-0.02
20:05:58.460,0.15,-0.05
20:05:58.464,0.185,-0.08
20:05:58.468,0.22,-0.125
20:05:58.472,0.23,-0.165
20:05:58.476,0.23,-0.185
20:05:58.480,0.195,-0.255
20:05:58.484,0.215,-0.345
20:05:58.488,0.365,-0.5
20:05:58.492,0.655,-0.735
20:05:58.496,0.985,-1.04
20:05:58.500,1.2,-1.335
20:05:58.504,1.15,-1.495
20:05:58.508,0.835,-1.455
20:05:58.512,0.345,-1.095
20:05:58.516,-0.015,-0.665
20:05:58.520,-0.19,-0.375
20:05:58.524,-0.285,-0.21
20:05:58.528,-0.31,-0.09
20:05:58.532,-0.32,-0.05
20:05:58.536,-0.355,-0.015
20:05:58.540,-0.37,0.0
20:05:58.544,-0.375,-0.01
20:05:58.548,-0.335,0.0
20:05:58.552,-0.335,-0.035
20:05:58.556,-0.365,-0.075
20:05:58.560,-0.36,-0.075
20:05:58.564,-0.35,-0.075
20:05:58.568,-0.345,-0.05
20:05:58.572,-0.36,-0.04
20:05:58.576,-0.33,-0.05
20:05:58.580,-0.36,-0.045
20:05:58.584,-0.37,-0.045
20:05:58.588,-0.36,-0.04
20:05:58.592,-0.39,-0.07
20:05:58.596,-0.41,-0.045
20:05:58.600,-0.42,-0.04
20:05:58.604,-0.41,-0.05
20:05:58.608,-0.435,-0.05
20:05:58.612,-0.435,-0.055
20:05:58.616,-0.415,-0.04
20:05:58.620,-0.425,-0.055
20:05:58.624,-0.41,-0.03
20:05:58.628,-0.43,-0.05
20:05:58.632,-0.425,-0.05
20:05:58.636,-0.43,-0.03
20:05:58.640,-0.425,-0.03
20:05:58.644,-0.395,0.0
20:05:58.648,-0.38,0.005
20:05:58.652,-0.4,-0.035
20:05:58.656,-0.415,-0.01
20:05:58.660,-0.4,-0.01
20:05:58.664,-0.395,-0.005
20:05:58.668,-0.405,-0.01
20:05:58.672,-0.38,0.02
20:05:58.676,-0.365,0.005
20:05:58.680,-0.355,-0.005
20:05:58.684,-0.33,0.0
20:05:58.688,-0.32,-0.015
20:05:58.692,-0.32,-0.03
20:05:58.696,-0.32,-0.045
20:05:58.700,-0.325,-0.05
20:05:58.704,-0.335,-0.08
20:05:58.708,-0.31,-0.085
20:05:58.712,-0.3,-0.09
20:05:58.716,-0.3,-0.13
20:05:58.720,-0.31,-0.17
20:05:58.724,-0.305,-0.175
20:05:58.728,-0.3,-0.18
20:05:58.732,-0.315,-0.2
20:05:58.736,-0.29,-0.205
20:05:58.740,-0.26,-0.225
20:05:58.744,-0.27,-0.22
20:05:58.748,-0.23,-0.23
20:05:58.752,-0.22,-0.21
20:05:58.756,-0.21,-0.225
20:05:58.760,-0.195,-0.235
20:05:58.764,-0.18,-0.215
20:05:58.768,-0.175,-0.225
20:05:58.772,-0.16,-0.22
20:05:58.776,-0.15,-0.205
20:05:58.780,-0.145,-0.21
20:05:58.784,-0.14,-0.2
20:05:58.788,-0.15,-0.21
20:05:58.792,-0.16,-0.18
20:05:58.796,-0.155,-0.17
20:05:58.800,-0.17,-0.19
20:05:58.804,-0.155,-0.16
20:05:58.808,-0.15,-0.17
20:05:58.812,-0.125,-0.195
20:05:58.816,-0.14,-0.17
20:05:58.820,-0.145,-0.175
20:05:58.824,-0.125,-0.17
20:05:58.828,-0.135,-0.175
20:05:58.832,-0.13,-0.175
20:05:58.836,-0.14,-0.19
20:05:58.840,-0.125,-0.195
20:05:58.844,-0.08,-0.195
20:05:58.848,-0.03,-0.18
20:05:58.852,0.02,-0.18
20:05:58.856,0.12,-0.19
20:05:58.860,0.155,-0.22
20:05:58.864,0.19,-0.245
20:05:58.868,0.175,-0.29
20:05:58.872,0.195,-0.3
20:05:58.876,0.21,-0.335
20:05:58.880,0.165,-0.355
20:05:58.884,0.19,-0.405
20:05:58.888,0.38,-0.515
20:05:58.892,0.69,-0.675
20:05:58.896,1.015,-0.935
20:05:58.900,1.145,-1.205
20:05:58.904,1.05,-1.345
20:05:58.908,0.685,-1.26
20:05:58.912,0.275,-0.935
20:05:58.916,0.0,-0.57
20:05:58.920,-0.145,-0.355
20:05:58.924,-0.2,-0.25
20:05:58.928,-0.215,-0.16
20:05:58.932,-0.28,-0.14
20:05:58.936,-0.28,-0.12
20:05:58.940,-0.3,-0.11
20:05:58.944,-0.315,-0.15
20:05:58.948,-0.345,-0.2
20:05:58.952,-0.335,-0.22
20:05:58.956,-0.345,-0.23
20:05:58.960,-0.345,-0.21
20:05:58.964,-0.35,-0.245
20:05:58.968,-0.345,-0.245
20:05:58.972,-0.34,-0.265
20:05:58.976,-0.32,-0.255
20:05:58.980,-0.345,-0.25
20:05:58.984,-0.345,-0.26
20:05:58.988,-0.32,-0.26
20:05:58.992,-0.365,-0.29
20:05:58.996,-0.37,-0.275
20:05:59.000,-0.355,-0.28
20:05:59.004,-0.35,-0.265
20:05:59.008,-0.365,-0.245
20:05:59.012,-0.37,-0.255
20:05:59.016,-0.365,-0.26
20:05:59.020,-0.36,-0.26
20:05:59.024,-0.395,-0.245
20:05:59.028,-0.375,-0.26
20:05:59.032,-0.4,-0.25
20:05:59.036,-0.395,-0.265
20:05:59.040,-0.385,-0.26
20:05:59.044,-0.39,-0.28
20:05:59.048,-0.385,-0.275
20:05:59.052,-0.39,-0.255
20:05:59.056,-0.375,-0.25
20:05:59.060,-0.375,-0.245
20:05:59.064,-0.36,-0.23
20:05:59.068,-0.37,-0.215
20:05:59.072,-0.355,-0.23
20:05:59.076,-0.375,-0.235
20:05:59.080,-0.36,-0.225
20:05:59.084,-0.375,-0.22
20:05:59.088,-0.375,-0.245
20:05:59.092,-0.39,-0.26
20:05:59.096,-0.385,-0.28
20:05:59.100,-0.36,-0.29
20:05:59.104,-0.345,-0.275
20:05:59.108,-0.345,-0.295
20:05:59.112,-0.345,-0.3
20:05:59.116,-0.33,-0.32
20:05:59.120,-0.31,-0.315
20:05:59.124,-0.285,-0.31
20:05:59.128,-0.25,-0.325
20:05:59.132,-0.235,-0.315
20:05:59.136,-0.225,-0.315
20:05:59.140,-0.215,-0.345
20:05:59.144,-0.215,-0.335
20:05:59.148,-0.19,-0.355
20:05:59.152,-0.18,-0.375
20:05:59.156,-0.175,-0.38
20:05:59.160,-0.175,-0.395
20:05:59.164,-0.15,-0.4
20:05:59.168,-0.145,-0.43
20:05:59.172,-0.145,-0.415
20:05:59.176,-0.155,-0.4
20:05:59.180,-0.145,-0.42
20:05:59.184,-0.115,-0.425
20:05:59.188,-0.12,-0.41
20:05:59.192,-0.14,-0.4
20:05:59.196,-0.14,-0.41
20:05:59.200,-0.125,-0.42
20:05:59.204,-0.125,-0.42
20:05:59.208,-0.13,-0.43
20:05:59.212,-0.125,-0.43
20:05:59.216,-0.155,-0.42
20:05:59.220,-0.155,-0.42
20:05:59.224,-0.155,-0.42
20:05:59.228,-0.17,-0.425
20:05:59.232,-0.19,-0.4
20:05:59.236,-0.195,-0.415
20:05:59.240,-0.205,-0.395
20:05:59.244,-0.195,-0.405
20:05:59.248,-0.2,-0.405
20:05:59.252,-0.195,-0.415
20:05:59.256,-0.185,-0.415
20:05:59.260,-0.195,-0.43
20:05:59.264,-0.185,-0.435
20:05:59.268,-0.22,-0.42
20:05:59.272,-0.225,-0.41
20:05:59.276,-0.215,-0.4
20:05:59.280,-0.25,-0.405
20:05:59.284,-0.23,-0.385
20:05:59.288,-0.25,-0.385
20:05:59.292,-0.24,-0.36
20:05:59.296,-0.23,-0.375
20:05:59.300,-0.23,-0.355
20:05:59.304,-0.24,-0.35
20:05:59.308,-0.245,-0.35
20:05:59.312,-0.25,-0.31
20:05:59.316,-0.25,-0.315
20:05:59.320,-0.25,-0.29
20:05:59.324,-0.255,-0.325
20:05:59.328,-0.24,-0.295
20:05:59.332,-0.23,-0.275
20:05:59.336,-0.25,-0.275
20:05:59.340,-0.24,-0.25
20:05:59.344,-0.24,-0.24
20:05:59.348,-0.225,-0.22
20:05:59.352,-0.25,-0.2
20:05:59.356,-0.24,-0.21
20:05:59.360,-0.24,-0.21
20:05:59.364,-0.22,-0.19
20:05:59.368,-0.19,-0.215
20:05:59.372,-0.16,-0.2
20:05:59.376,-0.17,-0.175
20:05:59.380,-0.15,-0.19
20:05:59.384,-0.15,-0.155
20:05:59.388,-0.17,-0.16
20:05:59.392,-0.16,-0.135
20:05:59.396,-0.145,-0.15
20:05:59.400,-0.15,-0.145
20:05:59.404,-0.15,-0.16
20:05:59.408,-0.115,-0.135
20:05:59.412,-0.09,-0.145
20:05:59.416,-0.105,-0.14
20:05:59.420,-0.14,-0.145
20:05:59.424,-0.13,-0.12
20:05:59.428,-0.125,-0.12
20:05:59.432,-0.105,-0.12
20:05:59.436,-0.05,-0.13
20:05:59.440,0.0,-0.125
20:05:59.444,0.075,-0.155
20:05:59.448,0.155,-0.155
20:05:59.452,0.22,-0.195
20:05:59.456,0.295,-0.215
20:05:59.460,0.35,-0.255
20:05:59.464,0.39,-0.27
20:05:59.468,0.37,-0.295
20:05:59.472,0.335,-0.325
20:05:59.476,0.375,-0.4
20:05:59.480,0.595,-0.51
20:05:59.484,0.895,-0.715
20:05:59.488,1.18,-0.94
20:05:59.492,1.225,-1.165
20:05:59.496,0.975,-1.215
20:05:59.500,0.51,-0.98
20:05:59.504,0.09,-0.59
20:05:59.508,-0.125,-0.25
20:05:59.512,-0.26,-0.075
20:05:59.516,-0.285,0.035
20:05:59.520,-0.345,0.13
20:05:59.524,-0.38,0.19
20:05:59.528,-0.415,0.235
20:05:59.532,-0.445,0.235
20:05:59.536,-0.445,0.25
20:05:59.540,-0.475,0.21
20:05:59.544,-0.455,0.205
20:05:59.548,-0.465,0.2
20:05:59.552,-0.45,0.205
20:05:59.556,-0.455,0.195
20:05:59.560,-0.47,0.185
20:05:59.564,-0.465,0.16
20:05:59.568,-0.46,0.15
20:05:59.572,-0.43,0.13
20:05:59.576,-0.435,0.13
20:05:59.580,-0.4,0.14
20:05:59.584,-0.39,0.135
20:05:59.588,-0.42,0.095
20:05:59.592,-0.405,0.105
20:05:59.596,-0.405,0.08
20:05:59.600,-0.425,0.09
20:05:59.604,-0.41,0.1
20:05:59.608,-0.385,0.105
20:05:59.612,-0.39,0.06
20:05:59.616,-0.38,0.07
20:05:59.620,-0.37,0.07
20:05:59.624,-0.38,0.085
20:05:59.628,-0.39,0.105
20:05:59.632,-0.39,0.105
20:05:59.636,-0.39,0.1
20:05:59.640,-0.38,0.075
20:05:59.644,-0.39,0.08
20:05:59.648,-0.4,0.065
20:05:59.652,-0.42,0.06
20:05:59.656,-0.42,0.05
20:05:59.660,-0.42,0.05
20:05:59.664,-0.43,0.07
20:05:59.668,-0.425,0.06
20:05:59.672,-0.42,0.07
20:05:59.676,-0.435,0.07
20:05:59.680,-0.41,0.06
20:05:59.684,-0.425,0.06
20:05:59.688,-0.405,0.05
20:05:59.692,-0.395,0.05
20:05:59.696,-0.39,0.055
20:05:59.700,-0.395,0.055
20:05:59.704,-0.41,0.04
20:05:59.708,-0.395,0.025
20:05:59.712,-0.39,0.035
20:05:59.716,-0.385,0.06
20:05:59.720,-0.35,0.03
20:05:59.724,-0.35,0.06
20:05:59.728,-0.39,0.02
20:05:59.732,-0.36,0.03
20:05:59.736,-0.355,0.03
20:05:59.740,-0.375,0.02
20:05:59.744,-0.36,0.01
20:05:59.748,-0.335,0.025
20:05:59.752,-0.325,0.05
20:05:59.756,-0.295,0.03
20:05:59.760,-0.3,0.04
20:05:59.764,-0.32,0.03
20:05:59.768,-0.315,0.06
20:05:59.772,-0.31,0.035
20:05:59.776,-0.29,0.025
20:05:59.780,-0.3,0.02
20:05:59.784,-0.28,0.01
20:05:59.788,-0.27,0.025
20:05:59.792,-0.265,0.04
20:05:59.796,-0.255,0.04
20:05:59.800,-0.25,0.03
20:05:59.804,-0.235,0.03
20:05:59.808,-0.245,0.02
20:05:59.812,-0.245,0.03
20:05:59.816,-0.235,0.04
20:05:59.820,-0.235,0.045
20:05:59.824,-0.23,0.05
20:05:59.828,-0.22,0.05
20:05:59.832,-0.21,0.08
20:05:59.836,-0.21,0.08
20:05:59.840,-0.19,0.09
20:05:59.844,-0.215,0.125
20:05:59.848,-0.2,0.105
20:05:59.852,-0.2,0.105
20:05:59.856,-0.185,0.12
20:05:59.860,-0.19,0.11
20:05:59.864,-0.19,0.1
20:05:59.868,-0.19,0.1
20:05:59.872,-0.195,0.09
20:05:59.876,-0.215,0.09
20:05:59.880,-0.2,0.09
20:05:59.884,-0.225,0.09
20:05:59.888,-0.225,0.12
20:05:59.892,-0.235,0.1
20:05:59.896,-0.24,0.11
20:05:59.900,-0.24,0.14
20:05:59.904,-0.255,0.12
20:05:59.908,-0.255,0.135
20:05:59.912,-0.25,0.125
20:05:59.916,-0.255,0.13
20:05:59.920,-0.275,0.115
20:05:59.924,-0.275,0.11
20:05:59.928,-0.28,0.12
20:05:59.932,-0.295,0.12
20:05:59.936,-0.3,0.12
20:05:59.940,-0.3,0.105
20:05:59.944,-0.31,0.075
20:05:59.948,-0.31,0.07
20:05:59.952,-0.295,0.095
20:05:59.956,-0.285,0.085
20:05:59.960,-0.28,0.1
20:05:59.964,-0.275,0.09
20:05:59.968,-0.26,0.095
20:05:59.972,-0.28,0.08
20:05:59.976,-0.255,0.08
20:05:59.980,-0.26,0.075
20:05:59.984,-0.235,0.05
20:05:59.988,-0.18,0.07
20:05:59.992,-0.14,0.07
20:05:59.996,-0.04,0.06
20:06:00.000,0.04,0.045
20:06:00.004,0.12,0.02
20:06:00.008,0.14,-0.03
20:06:00.012,0.16,-0.075
20:06:00.016,0.15,-0.12
20:06:00.020,0.13,-0.12
20:06:00.024,0.08,-0.175
20:06:00.028,0.105,-0.255
20:06:00.032,0.29,-0.4
20:06:00.036,0.58,-0.605
20:06:00.040,0.895,-0.885
20:06:00.044,1.05,-1.16
20:06:00.048,0.975,-1.305
20:06:00.052,0.59,-1.21
20:06:00.056,0.125,-0.84
20:06:00.060,-0.18,-0.45
20:06:00.064,-0.305,-0.16
20:06:00.068,-0.395,-0.015
20:06:00.072,-0.4,0.065
20:06:00.076,-0.405,0.13
20:06:00.080,-0.4,0.175
20:06:00.084,-0.41,0.2
20:06:00.088,-0.4,0.195
20:06:00.092,-0.395,0.19
20:06:00.096,-0.405,0.175
20:06:00.100,-0.405,0.175
20:06:00.104,-0.415,0.16
20:06:00.108,-0.425,0.16
20:06:00.112,-0.445,0.16
20:06:00.116,-0.45,0.14
20:06:00.120,-0.45,0.14
20:06:00.124,-0.45,0.12
20:06:00.128,-0.45,0.14
20:06:00.132,-0.47,0.145
20:06:00.136,-0.47,0.165
20:06:00.140,-0.48,0.155
20:06:00.144,-0.5,0.135
20:06:00.148,-0.495,0.135
20:06:00.152,-0.5,0.16
20:06:00.156,-0.5,0.16
20:06:00.160,-0.525,0.16
20:06:00.164,-0.53,0.155
20:06:00.168,-0.55,0.145
20:06:00.172,-0.535,0.14
20:06:00.176,-0.53,0.135
20:06:00.180,-0.535,0.15
20:06:00.184,-0.535,0.14
20:06:00.188,-0.52,0.15
20:06:00.192,-0.51,0.155
20:06:00.196,-0.48,0.165
20:06:00.200,-0.455,0.15
20:06:00.204,-0.455,0.175
20:06:00.208,-0.445,0.19
20:06:00.212,-0.43,0.17
20:06:00.216,-0.44,0.18
20:06:00.220,-0.43,0.19
20:06:00.224,-0.45,0.215
20:06:00.228,-0.435,0.2
20:06:00.232,-0.41,0.2
20:06:00.236,-0.41,0.21
20:06:00.240,-0.395,0.2
20:06:00.244,-0.42,0.2
20:06:00.248,-0.42,0.165
20:06:00.252,-0.39,0.165
20:06:00.256,-0.405,0.16
20:06:00.260,-0.39,0.155
20:06:00.264,-0.4,0.145
20:06:00.268,-0.38,0.11
20:06:00.272,-0.385,0.13
20:06:00.276,-0.37,0.09
20:06:00.280,-0.36,0.105
20:06:00.284,-0.36,0.095
20:06:00.288,-0.365,0.085
20:06:00.292,-0.36,0.085
20:06:00.296,-0.37,0.1
20:06:00.300,-0.38,0.07
20:06:00.304,-0.36,0.08
20:06:00.308,-0.37,0.08
20:06:00.312,-0.355,0.085
20:06:00.316,-0.33,0.09
20:06:00.320,-0.315,0.11
20:06:00.324,-0.3,0.12
20:06:00.328,-0.31,0.13
20:06:00.332,-0.325,0.13
20:06:00.336,-0.33,0.15
20:06:00.340,-0.335,0.165
20:06:00.344,-0.34,0.14
20:06:00.348,-0.34,0.135
20:06:00.352,-0.37,0.14
20:06:00.356,-0.38,0.12
20:06:00.360,-0.39,0.155
20:06:00.364,-0.395,0.15
20:06:00.368,-0.415,0.145
20:06:00.372,-0.42,0.16
20:06:00.376,-0.41,0.175
20:06:00.380,-0.425,0.15
20:06:00.384,-0.395,0.14
20:06:00.388,-0.395,0.145
20:06:00.392,-0.37,0.15
20:06:00.396,-0.36,0.14
20:06:00.400,-0.365,0.155
20:06:00.404,-0.345,0.15
20:06:00.408,-0.34,0.15
20:06:00.412,-0.34,0.145
20:06:00.416,-0.33,0.145
20:06:00.420,-0.32,0.125
20:06:00.424,-0.34,0.15
20:06:00.428,-0.33,0.165
20:06:00.432,-0.35,0.165
20:06:00.436,-0.32,0.17
20:06:00.440,-0.31,0.17
20:06:00.444,-0.29,0.16
20:06:00.448,-0.3,0.18
20:06:00.452,-0.31,0.17
20:06:00.456,-0.295,0.185
20:06:00.460,-0.3,0.165
20:06:00.464,-0.285,0.14
20:06:00.468,-0.28,0.14
20:06:00.472,-0.25,0.13
20:06:00.476,-0.2,0.105
20:06:00.480,-0.12,0.085
20:06:00.484,-0.045,0.085
20:06:00.488,0.0,0.02
20:06:00.492,0.045,-0.01
20:06:00.496,0.06,-0.065
20:06:00.500,0.06,-0.12
20:06:00.504,0.065,-0.16
20:06:00.508,0.035,-0.215
20:06:00.512,0.065,-0.315
20:06:00.516,0.24,-0.44
20:06:00.520,0.59,-0.655
20:06:00.524,0.905,-0.925
20:06:00.528,1.1,-1.175
20:06:00.532,1.035,-1.3
20:06:00.536,0.68,-1.19
20:06:00.540,0.23,-0.81
20:06:00.544,-0.11,-0.4
20:06:00.548,-0.275,-0.115
20:06:00.552,-0.365,0.035
20:06:00.556,-0.38,0.155
20:06:00.560,-0.4,0.205
20:06:00.564,-0.43,0.23
20:06:00.568,-0.45,0.245
20:06:00.572,-0.455,0.26
20:06:00.576,-0.48,0.24
20:06:00.580,-0.485,0.225
20:06:00.584,-0.485,0.21
20:06:00.588,-0.485,0.205
20:06:00.592,-0.49,0.175
20:06:00.596,-0.49,0.15
20:06:00.600,-0.495,0.165
20:06:00.604,-0.505,0.155
20:06:00.608,-0.485,0.15
20:06:00.612,-0.47,0.135
20:06:00.616,-0.515,0.13
20:06:00.620,-0.505,0.135
20:06:00.624,-0.505,0.12
20:06:00.628,-0.5,0.115
20:06:00.632,-0.52,0.11
20:06:00.636,-0.53,0.14
20:06:00.640,-0.52,0.145
20:06:00.644,-0.53,0.155
20:06:00.648,-0.535,0.17
20:06:00.652,-0.535,0.19
20:06:00.656,-0.53,0.16
20:06:00.660,-0.555,0.155
20:06:00.664,-0.555,0.185
20:06:00.668,-0.54,0.165
20:06:00.672,-0.55,0.145
20:06:00.676,-0.545,0.145
20:06:00.680,-0.55,0.155
20:06:00.684,-0.56,0.145
20:06:00.688,-0.545,0.155
20:06:00.692,-0.54,0.15
20:06:00.696,-0.54,0.15
20:06:00.700,-0.52,0.15
20:06:00.704,-0.51,0.15
20:06:00.708,-0.505,0.13
20:06:00.712,-0.475,0.12
20:06:00.716,-0.48,0.13
20:06:00.720,-0.43,0.135
20:06:00.724,-0.44,0.135
20:06:00.728,-0.435,0.12
20:06:00.732,-0.425,0.12
20:06:00.736,-0.42,0.13
20:06:00.740,-0.39,0.14
20:06:00.744,-0.395,0.12
20:06:00.748,-0.39,0.13
20:06:00.752,-0.385,0.105
20:06:00.756,-0.375,0.11
20:06:00.760,-0.38,0.13
20:06:00.764,-0.36,0.115
20:06:00.768,-0.36,0.14
20:06:00.772,-0.32,0.125
20:06:00.776,-0.335,0.125
20:06:00.780,-0.325,0.14
20:06:00.784,-0.31,0.145
20:06:00.788,-0.285,0.135
20:06:00.792,-0.25,0.16
20:06:00.796,-0.255,0.145
20:06:00.800,-0.225,0.155
20:06:00.804,-0.225,0.145
20:06:00.808,-0.205,0.17
20:06:00.812,-0.195,0.165
20:06:00.816,-0.19,0.155
20:06:00.820,-0.185,0.15
20:06:00.824,-0.19,0.165
20:06:00.828,-0.195,0.145
20:06:00.832,-0.22,0.15
20:06:00.836,-0.21,0.15
20:06:00.840,-0.225,0.16
20:06:00.844,-0.25,0.19
20:06:00.848,-0.275,0.2
20:06:00.852,-0.27,0.19
20:06:00.856,-0.285,0.17
20:06:00.860,-0.305,0.19
20:06:00.864,-0.315,0.14
20:06:00.868,-0.32,0.11
20:06:00.872,-0.335,0.15
20:06:00.876,-0.335,0.115
20:06:00.880,-0.365,0.135
20:06:00.884,-0.355,0.11
20:06:00.888,-0.36,0.09
20:06:00.892,-0.355,0.09
20:06:00.896,-0.35,0.115
20:06:00.900,-0.36,0.125
20:06:00.904,-0.33,0.14
20:06:00.908,-0.33,0.18
20:06:00.912,-0.34,0.14
20:06:00.916,-0.34,0.145
20:06:00.920,-0.355,0.18
20:06:00.924,-0.34,0.18
20:06:00.928,-0.33,0.2
20:06:00.932,-0.32,0.205
20:06:00.936,-0.32,0.195
20:06:00.940,-0.31,0.195
20:06:00.944,-0.32,0.205
20:06:00.948,-0.31,0.22
20:06:00.952,-0.295,0.19
20:06:00.956,-0.295,0.215
20:06:00.960,-0.305,0.2
20:06:00.964,-0.31,0.22
20:06:00.968,-0.31,0.235
20:06:00.972,-0.305,0.225
20:06:00.976,-0.3,0.225
20:06:00.980,-0.28,0.22
20:06:00.984,-0.265,0.24
20:06:00.988,-0.27,0.245
20:06:00.992,-0.275,0.215
20:06:00.996,-0.285,0.22
20:06:01.000,-0.255,0.235
20:06:01.004,-0.25,0.235
20:06:01.008,-0.24,0.21
20:06:01.012,-0.22,0.195
20:06:01.016,-0.215,0.205
20:06:01.020,-0.195,0.2
20:06:01.024,-0.185,0.19
20:06:01.028,-0.17,0.195
20:06:01.032,-0.16,0.185
20:06:01.036,-0.165,0.16
20:06:01.040,-0.175,0.165
20:06:01.044,-0.155,0.155
20:06:01.048,-0.165,0.165
20:06:01.052,-0.17,0.19
20:06:01.056,-0.19,0.17
20:06:01.060,-0.2,0.17
20:06:01.064,-0.21,0.17
20:06:01.068,-0.205,0.155
20:06:01.072,-0.21,0.145
20:06:01.076,-0.22,0.14
20:06:01.080,-0.23,0.115
20:06:01.084,-0.25,0.125
20:06:01.088,-0.28,0.115
20:06:01.092,-0.32,0.13
20:06:01.096,-0.32,0.12
20:06:01.100,-0.32,0.11
20:06:01.104,-0.34,0.09
20:06:01.108,-0.325,0.075
20:06:01.112,-0.31,0.065
20:06:01.116,-0.335,0.065
20:06:01.120,-0.33,0.06
20:06:01.124,-0.345,0.055
20:06:01.128,-0.355,0.045
20:06:01.132,-0.36,0.025
20:06:01.136,-0.345,0.02
20:06:01.140,-0.36,-0.005
20:06:01.144,-0.36,0.015
20:06:01.148,-0.36,0.02
20:06:01.152,-0.32,0.005
20:06:01.156,-0.335,0.06
20:06:01.160,-0.355,0.05
20:06:01.164,-0.325,0.08
20:06:01.168,-0.325,0.07
20:06:01.172,-0.335,0.07
20:06:01.176,-0.315,0.085
20:06:01.180,-0.335,0.075
20:06:01.184,-0.315,0.07
20:06:01.188,-0.315,0.075
20:06:01.192,-0.32,0.045
20:06:01.196,-0.325,0.035
20:06:01.200,-0.325,0.015
20:06:01.204,-0.35,0.005
20:06:01.208,-0.32,0.0
20:06:01.212,-0.29,-0.005
20:06:01.216,-0.29,-0.02
20:06:01.220,-0.265,-0.025
20:06:01.224,-0.265,-0.035
20:06:01.228,-0.24,-0.04
20:06:01.232,-0.22,-0.06
20:06:01.236,-0.22,-0.07
20:06:01.240,-0.23,-0.07
20:06:01.244,-0.2,-0.05
20:06:01.248,-0.235,-0.065
20:06:01.252,-0.22,-0.02
20:06:01.256,-0.225,-0.02
20:06:01.260,-0.215,-0.035
20:06:01.264,-0.205,-0.01
20:06:01.268,-0.205,-0.015
20:06:01.272,-0.21,-0.015
20:06:01.276,-0.21,-0.01
20:06:01.280,-0.215,-0.035
20:06:01.284,-0.215,0.0
20:06:01.288,-0.245,-0.01
20:06:01.292,-0.25,-0.01
20:06:01.296,-0.24,-0.01
20:06:01.300,-0.27,-0.02
20:06:01.304,-0.26,-0.03
20:06:01.308,-0.245,-0.03
20:06:01.312,-0.245,-0.025
20:06:01.316,-0.21,-0.03
20:06:01.320,-0.14,-0.035
20:06:01.324,-0.085,-0.06
20:06:01.328,0.0,-0.07
20:06:01.332,0.04,-0.105
20:06:01.336,0.065,-0.165
20:06:01.340,0.085,-0.205
20:06:01.344,0.08,-0.21
20:06:01.348,0.035,-0.26
20:06:01.352,0.005,-0.325
20:06:01.356,0.085,-0.47
20:06:01.360,0.315,-0.62
20:06:01.364,0.635,-0.86
20:06:01.368,0.945,-1.13
20:06:01.372,1.085,-1.36
20:06:01.376,0.99,-1.435
20:06:01.380,0.63,-1.23
20:06:01.384,0.14,-0.83
20:06:01.388,-0.16,-0.425
20:06:01.392,-0.33,-0.19
20:06:01.396,-0.395,-0.05
20:06:01.400,-0.45,0.005
20:06:01.404,-0.445,0.07
20:06:01.408,-0.475,0.095
20:06:01.412,-0.465,0.09
20:06:01.416,-0.48,0.075
20:06:01.420,-0.465,0.085
20:06:01.424,-0.47,0.075
20:06:01.428,-0.46,0.05
20:06:01.432,-0.455,0.04
20:06:01.436,-0.465,0.035
20:06:01.440,-0.44,0.02
20:06:01.444,-0.46,0.0
20:06:01.448,-0.435,0.01
20:06:01.452,-0.44,0.035
20:06:01.456,-0.415,0.025
20:06:01.460,-0.415,0.055
20:06:01.464,-0.415,0.08
20:06:01.468,-0.415,0.04
20:06:01.472,-0.43,0.055
20:06:01.476,-0.425,0.035
20:06:01.480,-0.44,0.065
20:06:01.484,-0.455,0.05
20:06:01.488,-0.47,0.03
20:06:01.492,-0.475,0.035
20:06:01.496,-0.475,0.05
20:06:01.500,-0.505,0.045
20:06:01.504,-0.505,0.045
20:06:01.508,-0.525,0.035
20:06:01.512,-0.53,0.06
20:06:01.516,-0.56,0.055
20:06:01.520,-0.55,0.04
20:06:01.524,-0.55,0.06
20:06:01.528,-0.555,0.075
20:06:01.532,-0.57,0.07
20:06:01.536,-0.555,0.05
20:06:01.540,-0.59,0.06
20:06:01.544,-0.585,0.065
20:06:01.548,-0.595,0.065
20:06:01.552,-0.59,0.055
20:06:01.556,-0.59,0.08
20:06:01.560,-0.58,0.055
20:06:01.564,-0.605,0.08
20:06:01.568,-0.6,0.07
20:06:01.572,-0.6,0.07
20:06:01.576,-0.56,0.065
20:06:01.580,-0.55,0.065
20:06:01.584,-0.54,0.05
20:06:01.588,-0.52,0.02
20:06:01.592,-0.52,0.025
20:06:01.596,-0.505,0.01
20:06:01.600,-0.495,-0.005
20:06:01.604,-0.46,0.02
20:06:01.608,-0.435,0.015
20:06:01.612,-0.42,-0.025
20:06:01.616,-0.425,-0.015
20:06:01.620,-0.395,-0.045
20:06:01.624,-0.365,-0.02
20:06:01.628,-0.34,0.0
20:06:01.632,-0.335,-0.005
20:06:01.636,-0.32,-0.005
20:06:01.640,-0.315,-0.01
20:06:01.644,-0.32,0.0
20:06:01.648,-0.305,0.025
20:06:01.652,-0.3,0.02
20:06:01.656,-0.28,0.035
20:06:01.660,-0.255,0.035
20:06:01.664,-0.245,0.07
20:06:01.668,-0.24,0.06
20:06:01.672,-0.235,0.045
20:06:01.676,-0.225,0.045
20:06:01.680,-0.23,0.045
20:06:01.684,-0.255,0.05
20:06:01.688,-0.285,0.05
20:06:01.692,-0.265,0.03
20:06:01.696,-0.285,0.04
20:06:01.700,-0.28,0.045
20:06:01.704,-0.295,0.06
20:06:01.708,-0.31,0.04
20:06:01.712,-0.335,0.035
20:06:01.716,-0.335,0.065
20:06:01.720,-0.34,0.06
20:06:01.724,-0.345,0.04
20:06:01.728,-0.355,0.045
20:06:01.732,-0.37,0.015
20:06:01.736,-0.36,0.04
20:06:01.740,-0.365,0.035
20:06:01.744,-0.385,0.03
20:06:01.748,-0.395,0.03
20:06:01.752,-0.39,0.055
20:06:01.756,-0.38,0.065
20:06:01.760,-0.395,0.05
20:06:01.764,-0.375,0.05
20:06:01.768,-0.38,0.045
20:06:01.772,-0.365,0.045
20:06:01.776,-0.385,0.035
20:06:01.780,-0.39,0.035
20:06:01.784,-0.37,0.065
20:06:01.788,-0.365,0.06
20:06:01.792,-0.37,0.065
20:06:01.796,-0.355,0.055
20:06:01.800,-0.34,0.08
20:06:01.804,-0.32,0.08
20:06:01.808,-0.285,0.055
20:06:01.812,-0.26,0.06
20:06:01.816,-0.255,0.05
20:06:01.820,-0.23,0.055
20:06:01.824,-0.22,0.045
20:06:01.828,-0.23,0.01
20:06:01.832,-0.23,-0.005
20:06:01.836,-0.2,-0.03
20:06:01.840,-0.2,-0.045
20:06:01.844,-0.16,-0.065
20:06:01.848,-0.12,-0.055
20:06:01.852,-0.075,-0.065
20:06:01.856,0.01,-0.065
20:06:01.860,0.075,-0.08
20:06:01.864,0.115,-0.105
20:06:01.868,0.14,-0.16
20:06:01.872,0.16,-0.2
20:06:01.876,0.145,-0.195
20:06:01.880,0.125,-0.29
20:06:01.884,0.15,-0.36
20:06:01.888,0.31,-0.52
20:06:01.892,0.6,-0.72
20:06:01.896,0.915,-0.975
20:06:01.900,1.06,-1.275
20:06:01.904,0.965,-1.425
20:06:01.908,0.585,-1.375
20:06:01.912,0.125,-0.99
20:06:01.916,-0.2,-0.575
20:06:01.920,-0.355,-0.3
20:06:01.924,-0.42,-0.12
20:06:01.928,-0.465,-0.015
20:06:01.932,-0.495,0.06
20:06:01.936,-0.495,0.07
20:06:01.940,-0.535,0.055
20:06:01.944,-0.555,0.085
20:06:01.948,-0.56,0.09
20:06:01.952,-0.57,0.06
20:06:01.956,-0.58,0.015
20:06:01.960,-0.575,0.0
20:06:01.964,-0.58,0.01
20:06:01.968,-0.595,-0.015
20:06:01.972,-0.59,0.01
20:06:01.976,-0.595,0.035
20:06:01.980,-0.575,0.015
20:06:01.984,-0.565,0.01
20:06:01.988,-0.565,0.03
20:06:01.992,-0.56,0.005
20:06:01.996,-0.55,0.01
20:06:02.000,-0.53,0.01
20:06:02.004,-0.535,0.005
20:06:02.008,-0.505,0.03
20:06:02.012,-0.495,0.05
20:06:02.016,-0.51,0.065
20:06:02.020,-0.47,0.07
20:06:02.024,-0.45,0.095
20:06:02.028,-0.445,0.105
20:06:02.032,-0.445,0.115
20:06:02.036,-0.4,0.13
20:06:02.040,-0.415,0.145
20:06:02.044,-0.43,0.16
20:06:02.048,-0.45,0.175
20:06:02.052,-0.455,0.175
20:06:02.056,-0.46,0.17
20:06:02.060,-0.455,0.13
20:06:02.064,-0.455,0.12
20:06:02.068,-0.475,0.11
20:06:02.072,-0.445,0.09
20:06:02.076,-0.45,0.07
20:06:02.080,-0.445,0.065
20:06:02.084,-0.455,0.06
20:06:02.088,-0.425,0.03
20:06:02.092,-0.44,0.045
20:06:02.096,-0.43,0.04
20:06:02.100,-0.42,0.03
20:06:02.104,-0.415,0.04
20:06:02.108,-0.425,0.035
20:06:02.112,-0.41,0.045
20:06:02.116,-0.42,0.02
20:06:02.120,-0.41,-0.005
20:06:02.124,-0.415,0.0
20:06:02.128,-0.415,0.0
20:06:02.132,-0.42,-0.025
20:06:02.136,-0.415,-0.01
20:06:02.140,-0.41,-0.06
20:06:02.144,-0.425,-0.05
20:06:02.148,-0.41,-0.045
20:06:02.152,-0.4,-0.055
20:06:02.156,-0.4,-0.045
20:06:02.160,-0.395,-0.02
20:06:02.164,-0.39,-0.07
20:06:02.168,-0.405,-0.03
20:06:02.172,-0.39,-0.06
20:06:02.176,-0.39,-0.04
20:06:02.180,-0.395,-0.02
20:06:02.184,-0.395,-0.035
20:06:02.188,-0.395,-0.04
20:06:02.192,-0.39,-0.01
20:06:02.196,-0.405,-0.015
20:06:02.200,-0.41,-0.02
20:06:02.204,-0.39,-0.025
20:06:02.208,-0.405,0.0
20:06:02.212,-0.395,-0.02
20:06:02.216,-0.395,0.0
20:06:02.220,-0.385,0.0
20:06:02.224,-0.37,0.0
20:06:02.228,-0.37,-0.01
20:06:02.232,-0.375,0.005
20:06:02.236,-0.37,0.025
20:06:02.240,-0.34,0.02
20:06:02.244,-0.355,0.015
20:06:02.248,-0.345,0.025
20:06:02.252,-0.355,0.045
20:06:02.256,-0.345,0.065
20:06:02.260,-0.355,0.08
20:06:02.264,-0.35,0.085
20:06:02.268,-0.315,0.11
20:06:02.272,-0.335,0.11
20:06:02.276,-0.32,0.1
20:06:02.280,-0.315,0.075
20:06:02.284,-0.32,0.08
20:06:02.288,-0.315,0.075
20:06:02.292,-0.32,0.06
20:06:02.296,-0.325,0.01
20:06:02.300,-0.345,-0.005
20:06:02.304,-0.325,-0.03
20:06:02.308,-0.345,-0.025
20:06:02.312,-0.36,-0.04
20:06:02.316,-0.365,-0.045
20:06:02.320,-0.385,-0.065
20:06:02.324,-0.39,-0.075
20:06:02.328,-0.405,-0.08
20:06:02.332,-0.39,-0.075
20:06:02.336,-0.37,-0.08
20:06:02.340,-0.365,-0.095
20:06:02.344,-0.36,-0.08
20:06:02.348,-0.36,-0.065
20:06:02.352,-0.35,-0.075
20:06:02.356,-0.36,-0.085
20:06:02.360,-0.35,-0.08
20:06:02.364,-0.355,-0.08
20:06:02.368,-0.355,-0.075
20:06:02.372,-0.355,-0.08
20:06:02.376,-0.355,-0.085
20:06:02.380,-0.35,-0.085
20:06:02.384,-0.335,-0.09
20:06:02.388,-0.34,-0.07
20:06:02.392,-0.35,-0.11
20:06:02.396,-0.35,-0.105
20:06:02.400,-0.36,-0.11
20:06:02.404,-0.355,-0.095
20:06:02.408,-0.36,-0.12
20:06:02.412,-0.375,-0.09
20:06:02.416,-0.365,-0.095
20:06:02.420,-0.385,-0.11
20:06:02.424,-0.365,-0.11
20:06:02.428,-0.385,-0.1
20:06:02.432,-0.375,-0.12
20:06:02.436,-0.37,-0.115
20:06:02.440,-0.395,-0.12
20:06:02.444,-0.39,-0.145
20:06:02.448,-0.38,-0.145
20:06:02.452,-0.345,-0.13
20:06:02.456,-0.335,-0.115
20:06:02.460,-0.3,-0.09
20:06:02.464,-0.275,-0.06
20:06:02.468,-0.26,-0.085
20:06:02.472,-0.255,-0.075
20:06:02.476,-0.275,-0.04
20:06:02.480,-0.265,-0.04
20:06:02.484,-0.25,0.0
20:06:02.488,-0.255,0.01
20:06:02.492,-0.245,0.025
20:06:02.496,-0.245,0.03
20:06:02.500,-0.24,0.005
20:06:02.504,-0.23,0.035
20:06:02.508,-0.23,0.03
20:06:02.512,-0.245,0.035
20:06:02.516,-0.24,0.04
20:06:02.520,-0.24,0.04
20:06:02.524,-0.22,0.025
20:06:02.528,-0.24,-0.005
20:06:02.532,-0.265,-0.07
20:06:02.536,-0.285,-0.095
20:06:02.540,-0.295,-0.1
20:06:02.544,-0.295,-0.105
20:06:02.548,-0.295,-0.11
20:06:02.552,-0.305,-0.125
20:06:02.556,-0.3,-0.125
20:06:02.560,-0.295,-0.135
20:06:02.564,-0.31,-0.14
20:06:02.568,-0.295,-0.13
20:06:02.572,-0.275,-0.125
20:06:02.576,-0.27,-0.13
20:06:02.580,-0.255,-0.115
20:06:02.584,-0.26,-0.13
20:06:02.588,-0.255,-0.145
20:06:02.592,-0.25,-0.155
20:06:02.596,-0.245,-0.15
20:06:02.600,-0.25,-0.165
20:06:02.604,-0.225,-0.16
20:06:02.608,-0.24,-0.175
20:06:02.612,-0.25,-0.18
20:06:02.616,-0.25,-0.17
20:06:02.620,-0.255,-0.185
20:06:02.624,-0.275,-0.175
20:06:02.628,-0.26,-0.19
20:06:02.632,-0.28,-0.22
20:06:02.636,-0.275,-0.22
20:06:02.640,-0.29,-0.23
20:06:02.644,-0.295,-0.24
20:06:02.648,-0.3,-0.255
20:06:02.652,-0.285,-0.265
20:06:02.656,-0.275,-0.26
20:06:02.660,-0.28,-0.265
20:06:02.664,-0.26,-0.255
20:06:02.668,-0.25,-0.245
20:06:02.672,-0.215,-0.25
20:06:02.676,-0.19,-0.265
20:06:02.680,-0.165,-0.25
20:06:02.684,-0.115,-0.245
20:06:02.688,-0.005,-0.235
20:06:02.692,0.085,-0.26
20:06:02.696,0.195,-0.245
20:06:02.700,0.26,-0.265
20:06:02.704,0.305,-0.295
20:06:02.708,0.325,-0.315
20:06:02.712,0.31,-0.33
20:06:02.716,0.28,-0.345
20:06:02.720,0.245,-0.425
20:06:02.724,0.285,-0.505
20:06:02.728,0.49,-0.655
20:06:02.732,0.79,-0.9
20:06:02.736,1.08,-1.18
20:06:02.740,1.185,-1.385
20:06:02.744,1.025,-1.48
20:06:02.748,0.62,-1.3
20:06:02.752,0.18,-0.925
20:06:02.756,-0.09,-0.57
20:06:02.760,-0.205,-0.39
20:06:02.764,-0.265,-0.295
20:06:02.768,-0.31,-0.24
20:06:02.772,-0.345,-0.21
20:06:02.776,-0.35,-0.205
20:06:02.780,-0.365,-0.245
20:06:02.784,-0.39,-0.245
20:06:02.788,-0.395,-0.31
20:06:02.792,-0.405,-0.315
20:06:02.796,-0.39,-0.36
20:06:02.800,-0.4,-0.35
20:06:02.804,-0.42,-0.395
20:06:02.808,-0.425,-0.385
20:06:02.812,-0.395,-0.38
20:06:02.816,-0.39,-0.39
20:06:02.820,-0.385,-0.39
20:06:02.824,-0.39,-0.405
20:06:02.828,-0.38,-0.435
20:06:02.832,-0.405,-0.44
20:06:02.836,-0.395,-0.44
20:06:02.840,-0.405,-0.445
20:06:02.844,-0.395,-0.445
20:06:02.848,-0.405,-0.435
20:06:02.852,-0.43,-0.46
20:06:02.856,-0.435,-0.44
20:06:02.860,-0.43,-0.445
20:06:02.864,-0.415,-0.45
20:06:02.868,-0.42,-0.45
20:06:02.872,-0.435,-0.46
20:06:02.876,-0.43,-0.435
20:06:02.880,-0.41,-0.46
20:06:02.884,-0.4,-0.475
20:06:02.888,-0.39,-0.48
20:06:02.892,-0.4,-0.485
20:06:02.896,-0.38,-0.455
20:06:02.900,-0.38,-0.475
20:06:02.904,-0.38,-0.44
20:06:02.908,-0.425,-0.44
20:06:02.912,-0.395,-0.425
20:06:02.916,-0.42,-0.435
20:06:02.920,-0.405,-0.42
20:06:02.924,-0.41,-0.4
20:06:02.928,-0.4,-0.415
20:06:02.932,-0.415,-0.39
20:06:02.936,-0.415,-0.4
20:06:02.940,-0.415,-0.43
20:06:02.944,-0.39,-0.43
20:06:02.948,-0.355,-0.435
20:06:02.952,-0.34,-0.44
20:06:02.956,-0.34,-0.455
20:06:02.960,-0.335,-0.45
20:06:02.964,-0.315,-0.49
20:06:02.968,-0.31,-0.47
20:06:02.972,-0.28,-0.525
20:06:02.976,-0.285,-0.55
20:06:02.980,-0.26,-0.58
20:06:02.984,-0.26,-0.605
20:06:02.988,-0.24,-0.64
20:06:02.992,-0.25,-0.665
20:06:02.996,-0.245,-0.65
20:06:03.000,-0.22,-0.67
20:06:03.004,-0.21,-0.685
20:06:03.008,-0.21,-0.69
20:06:03.012,-0.205,-0.7
20:06:03.016,-0.215,-0.7
20:06:03.020,-0.19,-0.685
20:06:03.024,-0.18,-0.71
20:06:03.028,-0.155,-0.7
20:06:03.032,-0.155,-0.71
20:06:03.036,-0.155,-0.715
20:06:03.040,-0.135,-0.73
20:06:03.044,-0.14,-0.73
20:06:03.048,-0.115,-0.72
20:06:03.052,-0.135,-0.73
20:06:03.056,-0.15,-0.71
20:06:03.060,-0.155,-0.705
20:06:03.064,-0.15,-0.69
20:06:03.068,-0.15,-0.7
20:06:03.072,-0.14,-0.705
20:06:03.076,-0.135,-0.695
20:06:03.080,-0.135,-0.695
20:06:03.084,-0.125,-0.7
20:06:03.088,-0.12,-0.7
20:06:03.092,-0.15,-0.705
20:06:03.096,-0.155,-0.705
20:06:03.100,-0.185,-0.725
20:06:03.104,-0.22,-0.715
20:06:03.108,-0.23,-0.705
20:06:03.112,-0.22,-0.695
20:06:03.116,-0.215,-0.705
20:06:03.120,-0.23,-0.72
20:06:03.124,-0.25,-0.715
20:06:03.128,-0.265,-0.725
20:06:03.132,-0.28,-0.725
20:06:03.136,-0.285,-0.74
20:06:03.140,-0.28,-0.74
20:06:03.144,-0.28,-0.74
20:06:03.148,-0.27,-0.75
20:06:03.152,-0.26,-0.78
20:06:03.156,-0.235,-0.785
20:06:03.160,-0.155,-0.78
20:06:03.164,-0.06,-0.775
20:06:03.168,0.04,-0.805
20:06:03.172,0.155,-0.82
20:06:03.176,0.225,-0.875
20:06:03.180,0.3,-0.92
20:06:03.184,0.355,-0.98
20:06:03.188,0.385,-0.995
20:06:03.192,0.34,-1.04
20:06:03.196,0.325,-1.075
20:06:03.200,0.435,-1.16
20:06:03.204,0.69,-1.305
20:06:03.208,0.96,-1.545
20:06:03.212,1.14,-1.775
20:06:03.216,1.065,-1.955
20:06:03.220,0.725,-1.92
20:06:03.224,0.28,-1.655
20:06:03.228,-0.025,-1.3
20:06:03.232,-0.155,-1.085
20:06:03.236,-0.22,-0.97
20:06:03.240,-0.245,-0.875
20:06:03.244,-0.26,-0.81
20:06:03.248,-0.33,-0.76
20:06:03.252,-0.355,-0.745
20:06:03.256,-0.37,-0.71
20:06:03.260,-0.375,-0.72
20:06:03.264,-0.39,-0.715
20:06:03.268,-0.375,-0.75
20:06:03.272,-0.37,-0.73
20:06:03.276,-0.365,-0.705
20:06:03.280,-0.365,-0.72
20:06:03.284,-0.4,-0.705
20:06:03.288,-0.385,-0.69
20:06:03.292,-0.365,-0.68
20:06:03.296,-0.37,-0.665
20:06:03.300,-0.35,-0.63
20:06:03.304,-0.38,-0.63
20:06:03.308,-0.375,-0.605
20:06:03.312,-0.39,-0.605
20:06:03.316,-0.395,-0.59
20:06:03.320,-0.41,-0.6
20:06:03.324,-0.43,-0.555
20:06:03.328,-0.43,-0.535
20:06:03.332,-0.455,-0.535
20:06:03.336,-0.48,-0.505
20:06:03.340,-0.48,-0.485
20:06:03.344,-0.515,-0.46
20:06:03.348,-0.53,-0.46
20:06:03.352,-0.51,-0.46
20:06:03.356,-0.505,-0.425
20:06:03.360,-0.505,-0.425
20:06:03.364,-0.48,-0.38
20:06:03.368,-0.49,-0.39
20:06:03.372,-0.445,-0.385
20:06:03.376,-0.435,-0.385
20:06:03.380,-0.42,-0.39
20:06:03.384,-0.425,-0.415
20:06:03.388,-0.4,-0.41
20:06:03.392,-0.425,-0.42
20:06:03.396,-0.42,-0.415
20:06:03.400,-0.405,-0.425
20:06:03.404,-0.38,-0.415
20:06:03.408,-0.38,-0.415
20:06:03.412,-0.35,-0.4
20:06:03.416,-0.335,-0.38
20:06:03.420,-0.295,-0.39
20:06:03.424,-0.3,-0.38
20:06:03.428,-0.27,-0.365
20:06:03.432,-0.235,-0.345
20:06:03.436,-0.25,-0.355
20:06:03.440,-0.25,-0.33
20:06:03.444,-0.26,-0.325
20:06:03.448,-0.225,-0.335
20:06:03.452,-0.23,-0.33
20:06:03.456,-0.22,-0.3
20:06:03.460,-0.2,-0.29
20:06:03.464,-0.2,-0.275
20:06:03.468,-0.21,-0.27
20:06:03.472,-0.205,-0.275
20:06:03.476,-0.175,-0.26
20:06:03.480,-0.155,-0.265
20:06:03.484,-0.17,-0.265
20:06:03.488,-0.18,-0.235
20:06:03.492,-0.185,-0.235
20:06:03.496,-0.19,-0.225
20:06:03.500,-0.18,-0.18
20:06:03.504,-0.17,-0.175
20:06:03.508,-0.195,-0.17
20:06:03.512,-0.19,-0.16
20:06:03.516,-0.215,-0.15
20:06:03.520,-0.205,-0.14
20:06:03.524,-0.22,-0.115
20:06:03.528,-0.215,-0.09
20:06:03.532,-0.25,-0.085
20:06:03.536,-0.26,-0.08
20:06:03.540,-0.245,-0.08
20:06:03.544,-0.24,-0.055
20:06:03.548,-0.25,-0.035
20:06:03.552,-0.205,-0.03
20:06:03.556,-0.195,-0.015
20:06:03.560,-0.21,0.005
20:06:03.564,-0.185,0.01
20:06:03.568,-0.185,0.005
20:06:03.572,-0.175,0.005
20:06:03.576,-0.17,0.005
20:06:03.580,-0.165,-0.005
20:06:03.584,-0.14,-0.02
20:06:03.588,-0.12,-0.03
20:06:03.592,-0.08,-0.04
20:06:03.596,-0.05,-0.05
20:06:03.600,0.03,-0.04
20:06:03.604,0.1,-0.06
20:06:03.608,0.18,-0.105
20:06:03.612,0.235,-0.135
20:06:03.616,0.3,-0.16
20:06:03.620,0.345,-0.23
20:06:03.624,0.37,-0.24
20:06:03.628,0.36,-0.25
20:06:03.632,0.34,-0.325
20:06:03.636,0.425,-0.405
20:06:03.640,0.67,-0.55
20:06:03.644,0.98,-0.75
20:06:03.648,1.215,-0.995
20:06:03.652,1.245,-1.18
20:06:03.656,0.99,-1.19
20:06:03.660,0.535,-0.955
20:06:03.664,0.1,-0.585
20:06:03.668,-0.1,-0.3
20:06:03.672,-0.18,-0.12
20:06:03.676,-0.2,-0.015
20:06:03.680,-0.22,0.08
20:06:03.684,-0.26,0.125
20:06:03.688,-0.28,0.175
20:06:03.692,-0.305,0.18
20:06:03.696,-0.32,0.215
20:06:03.700,-0.35,0.18
20:06:03.704,-0.36,0.165
20:06:03.708,-0.37,0.145
20:06:03.712,-0.38,0.15
20:06:03.716,-0.395,0.14
20:06:03.720,-0.415,0.135
20:06:03.724,-0.415,0.135
20:06:03.728,-0.445,0.145
20:06:03.732,-0.465,0.175
20:06:03.736,-0.455,0.17
20:06:03.740,-0.45,0.145
20:06:03.744,-0.47,0.165
20:06:03.748,-0.455,0.18
20:06:03.752,-0.44,0.19
20:06:03.756,-0.415,0.2
20:06:03.760,-0.415,0.22
20:06:03.764,-0.385,0.235
20:06:03.768,-0.385,0.255
20:06:03.772,-0.39,0.24
20:06:03.776,-0.4,0.24
20:06:03.780,-0.395,0.225
20:06:03.784,-0.38,0.22
20:06:03.788,-0.385,0.22
20:06:03.792,-0.4,0.22
20:06:03.796,-0.4,0.2
20:06:03.800,-0.405,0.2
20:06:03.804,-0.415,0.2
20:06:03.808,-0.41,0.195
20:06:03.812,-0.425,0.155
20:06:03.816,-0.45,0.165
20:06:03.820,-0.425,0.155
20:06:03.824,-0.46,0.135
20:06:03.828,-0.455,0.125
20:06:03.832,-0.445,0.105
20:06:03.836,-0.43,0.095
20:06:03.840,-0.425,0.095
20:06:03.844,-0.425,0.095
20:06:03.848,-0.395,0.09
20:06:03.852,-0.385,0.1
20:06:03.856,-0.365,0.09
20:06:03.860,-0.35,0.06
20:06:03.864,-0.34,0.065
20:06:03.868,-0.34,0.045
20:06:03.872,-0.32,0.035
20:06:03.876,-0.295,0.02
20:06:03.880,-0.285,0.025
20:06:03.884,-0.265,0.04
20:06:03.888,-0.245,0.035
20:06:03.892,-0.235,0.01
20:06:03.896,-0.235,0.04
20:06:03.900,-0.2,0.025
20:06:03.904,-0.19,0.015
20:06:03.908,-0.205,0.03
20:06:03.912,-0.215,0.035
20:06:03.916,-0.225,0.03
20:06:03.920,-0.205,0.03
20:06:03.924,-0.225,0.045
20:06:03.928,-0.245,0.045
20:06:03.932,-0.24,0.07
20:06:03.936,-0.255,0.06
20:06:03.940,-0.27,0.06
20:06:03.944,-0.255,0.06
20:06:03.948,-0.27,0.08
20:06:03.952,-0.285,0.065
20:06:03.956,-0.3,0.06
20:06:03.960,-0.27,0.075
20:06:03.964,-0.245,0.065
20:06:03.968,-0.235,0.06
20:06:03.972,-0.215,0.055
20:06:03.976,-0.19,0.04
20:06:03.980,-0.175,0.065
20:06:03.984,-0.17,0.05
20:06:03.988,-0.155,0.025
20:06:03.992,-0.145,0.03
20:06:03.996,-0.14,0.03
20:06:04.000,-0.145,0.03
20:06:04.004,-0.165,0.03
20:06:04.008,-0.16,0.035
20:06:04.012,-0.18,0.035
20:06:04.016,-0.18,0.045
20:06:04.020,-0.185,0.05
20:06:04.024,-0.185,0.035
20:06:04.028,-0.195,0.035
20:06:04.032,-0.215,0.005
20:06:04.036,-0.205,0.025
20:06:04.040,-0.205,0.01
20:06:04.044,-0.21,0.025
20:06:04.048,-0.21,0.01
20:06:04.052,-0.215,0.01
20:06:04.056,-0.21,0.035
20:06:04.060,-0.215,0.045
20:06:04.064,-0.21,0.04
20:06:04.068,-0.205,0.03
20:06:04.072,-0.185,0.03
20:06:04.076,-0.195,0.045
20:06:04.080,-0.2,0.03
20:06:04.084,-0.195,0.01
20:06:04.088,-0.225,0.02
20:06:04.092,-0.225,0.025
20:06:04.096,-0.24,0.035
20:06:04.100,-0.225,0.03
20:06:04.104,-0.23,0.045
20:06:04.108,-0.22,0.04
20:06:04.112,-0.215,0.03
20:06:04.116,-0.22,0.045
20:06:04.120,-0.2,0.035
20:06:04.124,-0.21,0.06
20:06:04.128,-0.185,0.05
20:06:04.132,-0.22,0.075
20:06:04.136,-0.225,0.055
20:06:04.140,-0.24,0.08
20:06:04.144,-0.25,0.06
20:06:04.148,-0.25,0.07
20:06:04.152,-0.24,0.065
20:06:04.156,-0.23,0.08
20:06:04.160,-0.245,0.075
20:06:04.164,-0.265,0.085
20:06:04.168,-0.24,0.075
20:06:04.172,-0.25,0.075
20:06:04.176,-0.235,0.075
20:06:04.180,-0.245,0.075
20:06:04.184,-0.215,0.07
20:06:04.188,-0.185,0.045
20:06:04.192,-0.18,0.025
20:06:04.196,-0.18,0.035
20:06:04.200,-0.2,0.005
20:06:04.204,-0.215,-0.005
20:06:04.208,-0.215,-0.015
20:06:04.212,-0.22,-0.01
20:06:04.216,-0.245,0.005
20:06:04.220,-0.265,0.005
20:06:04.224,-0.295,0.01
20:06:04.228,-0.275,0.015
20:06:04.232,-0.28,0.025
20:06:04.236,-0.295,0.01
20:06:04.240,-0.285,0.015
20:06:04.244,-0.285,0.03
20:06:04.248,-0.3,0.015
20:06:04.252,-0.28,0.03
20:06:04.256,-0.295,0.045
20:06:04.260,-0.295,0.04
20:06:04.264,-0.295,0.05
20:06:04.268,-0.285,0.04
20:06:04.272,-0.285,0.04
20:06:04.276,-0.28,0.05
20:06:04.280,-0.295,0.05
20:06:04.284,-0.28,0.035
20:06:04.288,-0.29,0.045
20:06:04.292,-0.31,0.025
20:06:04.296,-0.32,0.035
20:06:04.300,-0.3,0.03
20:06:04.304,-0.31,0.03
20:06:04.308,-0.295,0.03
20:06:04.312,-0.3,0.015
20:06:04.316,-0.29,0.02
20:06:04.320,-0.295,0.03
20:06:04.324,-0.285,0.02
20:06:04.328,-0.29,0.035
20:06:04.332,-0.29,0.04
20:06:04.336,-0.28,0.045
20:06:04.340,-0.3,0.055
20:06:04.344,-0.3,0.08
20:06:04.348,-0.3,0.055
20:06:04.352,-0.29,0.05
20:06:04.356,-0.285,0.09
20:06:04.360,-0.27,0.07
20:06:04.364,-0.265,0.115
20:06:04.368,-0.27,0.095
20:06:04.372,-0.27,0.12
20:06:04.376,-0.285,0.12
20:06:04.380,-0.275,0.145
20:06:04.384,-0.26,0.115
20:06:04.388,-0.26,0.1
20:06:04.392,-0.23,0.075
20:06:04.396,-0.225,0.075
20:06:04.400,-0.225,0.04
20:06:04.404,-0.23,-0.005
20:06:04.408,-0.24,-0.005
20:06:04.412,-0.245,0.005
20:06:04.416,-0.255,0.0
20:06:04.420,-0.245,0.0
20:06:04.424,-0.245,-0.005
20:06:04.428,-0.255,0.0
20:06:04.432,-0.265,-0.01
20:06:04.436,-0.265,-0.01
20:06:04.440,-0.255,0.0
20:06:04.444,-0.235,0.0
20:06:04.448,-0.2,0.0
20:06:04.452,-0.14,0.015
20:06:04.456,-0.05,0.02
20:06:04.460,0.04,0.03
20:06:04.464,0.085,-0.01
20:06:04.468,0.13,-0.035
20:06:04.472,0.13,-0.105
20:06:04.476,0.15,-0.1
20:06:04.480,0.1,-0.14
20:06:04.484,0.05,-0.225
20:06:04.488,0.105,-0.32
20:06:04.492,0.285,-0.48
20:06:04.496,0.59,-0.685
20:06:04.500,0.895,-0.98
20:06:04.504,1.09,-1.215
20:06:04.508,1.07,-1.335
20:06:04.512,0.755,-1.245
20:06:04.516,0.255,-0.885
20:06:04.520,-0.095,-0.48
20:06:04.524,-0.315,-0.16
20:06:04.528,-0.4,0.01
20:06:04.532,-0.445,0.13
20:06:04.536,-0.48,0.22
20:06:04.540,-0.505,0.24
20:06:04.544,-0.535,0.25
20:06:04.548,-0.56,0.245
20:06:04.552,-0.57,0.235
20:06:04.556,-0.6,0.23
20:06:04.560,-0.605,0.245
20:06:04.564,-0.59,0.22
20:06:04.568,-0.585,0.215
20:06:04.572,-0.57,0.22
20:06:04.576,-0.58,0.225
20:06:04.580,-0.58,0.225
20:06:04.584,-0.55,0.245
20:06:04.588,-0.53,0.245
20:06:04.592,-0.495,0.245
20:06:04.596,-0.495,0.235
20:06:04.600,-0.49,0.23
20:06:04.604,-0.475,0.17
20:06:04.608,-0.475,0.17
20:06:04.612,-0.47,0.17
20:06:04.616,-0.475,0.14
20:06:04.620,-0.5,0.155
20:06:04.624,-0.5,0.15
20:06:04.628,-0.51,0.15
20:06:04.632,-0.52,0.135
20:06:04.636,-0.515,0.13
20:06:04.640,-0.54,0.135
20:06:04.644,-0.56,0.145
20:06:04.648,-0.55,0.14
20:06:04.652,-0.54,0.155
20:06:04.656,-0.56,0.125
20:06:04.660,-0.55,0.135
20:06:04.664,-0.55,0.125
20:06:04.668,-0.535,0.115
20:06:04.672,-0.545,0.12
20:06:04.676,-0.55,0.105
20:06:04.680,-0.55,0.11
20:06:04.684,-0.54,0.125
20:06:04.688,-0.55,0.115
20:06:04.692,-0.53,0.125
20:06:04.696,-0.51,0.1
20:06:04.700,-0.51,0.13
20:06:04.704,-0.49,0.12
20:06:04.708,-0.48,0.13
20:06:04.712,-0.46,0.14
20:06:04.716,-0.445,0.135
20:06:04.720,-0.435,0.11
20:06:04.724,-0.43,0.13
20:06:04.728,-0.42,0.145
20:06:04.732,-0.415,0.155
20:06:04.736,-0.415,0.15
20:06:04.740,-0.425,0.155
20:06:04.744,-0.425,0.155
20:06:04.748,-0.42,0.13
20:06:04.752,-0.42,0.13
20:06:04.756,-0.435,0.15
20:06:04.760,-0.44,0.13
20:06:04.764,-0.46,0.115
20:06:04.768,-0.495,0.125
20:06:04.772,-0.485,0.13
20:06:04.776,-0.475,0.11
20:06:04.780,-0.46,0.11
20:06:04.784,-0.425,0.105
20:06:04.788,-0.415,0.1
20:06:04.792,-0.42,0.12
20:06:04.796,-0.41,0.14
20:06:04.800,-0.365,0.13
20:06:04.804,-0.37,0.125
20:06:04.808,-0.355,0.115
20:06:04.812,-0.355,0.09
20:06:04.816,-0.34,0.08
20:06:04.820,-0.3,0.05
20:06:04.824,-0.28,0.055
20:06:04.828,-0.27,0.075
20:06:04.832,-0.285,0.09
20:06:04.836,-0.28,0.11
20:06:04.840,-0.28,0.12
20:06:04.844,-0.29,0.14
20:06:04.848,-0.305,0.135
20:06:04.852,-0.3,0.145
20:06:04.856,-0.29,0.145
20:06:04.860,-0.315,0.125
20:06:04.864,-0.315,0.125
20:06:04.868,-0.32,0.105
20:06:04.872,-0.335,0.105
20:06:04.876,-0.32,0.095
20:06:04.880,-0.32,0.1
20:06:04.884,-0.335,0.115
20:06:04.888,-0.31,0.1
20:06:04.892,-0.335,0.115
20:06:04.896,-0.335,0.1
20:06:04.900,-0.33,0.095
20:06:04.904,-0.33,0.075
20:06:04.908,-0.335,0.095
20:06:04.912,-0.315,0.09
20:06:04.916,-0.335,0.095
20:06:04.920,-0.33,0.1
20:06:04.924,-0.34,0.11
20:06:04.928,-0.32,0.11
20:06:04.932,-0.31,0.11
20:06:04.936,-0.315,0.11
20:06:04.940,-0.335,0.115
20:06:04.944,-0.33,0.12
20:06:04.948,-0.3,0.145
20:06:04.952,-0.3,0.14
20:06:04.956,-0.315,0.165
20:06:04.960,-0.31,0.19
20:06:04.964,-0.32,0.17
20:06:04.968,-0.305,0.165
20:06:04.972,-0.32,0.18
20:06:04.976,-0.31,0.15
20:06:04.980,-0.29,0.17
20:06:04.984,-0.285,0.16
20:06:04.988,-0.275,0.165
20:06:04.992,-0.26,0.145
20:06:04.996,-0.26,0.145
20:06:05.000,-0.255,0.14
20:06:05.004,-0.215,0.095
20:06:05.008,-0.155,0.065
20:06:05.012,-0.11,0.025
20:06:05.016,-0.04,0.0
20:06:05.020,-0.01,-0.04
20:06:05.024,0.045,-0.09
20:06:05.028,0.075,-0.14
20:06:05.032,0.09,-0.19
20:06:05.036,0.045,-0.225
20:06:05.040,0.075,-0.285
20:06:05.044,0.16,-0.39
20:06:05.048,0.405,-0.55
20:06:05.052,0.725,-0.78
20:06:05.056,0.975,-1.06
20:06:05.060,1.035,-1.265
20:06:05.064,0.8,-1.31
20:06:05.068,0.345,-1.035
20:06:05.072,-0.075,-0.655
20:06:05.076,-0.31,-0.3
20:06:05.080,-0.41,-0.11
20:06:05.084,-0.45,0.02
20:06:05.088,-0.46,0.105
20:06:05.092,-0.47,0.155
20:06:05.096,-0.465,0.185
20:06:05.100,-0.465,0.175
20:06:05.104,-0.47,0.18
20:06:05.108,-0.49,0.15
20:06:05.112,-0.495,0.13
20:06:05.116,-0.495,0.11
20:06:05.120,-0.495,0.1
20:06:05.124,-0.505,0.085
20:06:05.128,-0.505,0.1
20:06:05.132,-0.51,0.095
20:06:05.136,-0.52,0.075
20:06:05.140,-0.53,0.095
20:06:05.144,-0.535,0.1
20:06:05.148,-0.515,0.09
20:06:05.152,-0.545,0.085
20:06:05.156,-0.545,0.105
20:06:05.160,-0.545,0.12
20:06:05.164,-0.535,0.12
20:06:05.168,-0.535,0.125
20:06:05.172,-0.555,0.16
20:06:05.176,-0.54,0.135
20:06:05.180,-0.53,0.155
20:06:05.184,-0.54,0.15
20:06:05.188,-0.54,0.175
20:06:05.192,-0.55,0.19
20:06:05.196,-0.565,0.18
20:06:05.200,-0.58,0.18
20:06:05.204,-0.6,0.16
20:06:05.208,-0.6,0.13
20:06:05.212,-0.605,0.13
20:06:05.216,-0.6,0.135
20:06:05.220,-0.625,0.145
20:06:05.224,-0.635,0.13
20:06:05.228,-0.62,0.09
20:06:05.232,-0.585,0.1
20:06:05.236,-0.57,0.09
20:06:05.240,-0.555,0.07
20:06:05.244,-0.54,0.065
20:06:05.248,-0.54,0.07
20:06:05.252,-0.515,0.085
20:06:05.256,-0.5,0.095
20:06:05.260,-0.51,0.085
20:06:05.264,-0.49,0.12
20:06:05.268,-0.485,0.1
20:06:05.272,-0.47,0.095
20:06:05.276,-0.45,0.09
20:06:05.280,-0.455,0.085
20:06:05.284,-0.44,0.055
20:06:05.288,-0.42,0.035
20:06:05.292,-0.435,0.035
20:06:05.296,-0.405,0.03
20:06:05.300,-0.385,0.035
20:06:05.304,-0.38,0.025
20:06:05.308,-0.35,0.02
20:06:05.312,-0.36,-0.005
20:06:05.316,-0.38,-0.01
20:06:05.320,-0.36,-0.02
20:06:05.324,-0.355,-0.035
20:06:05.328,-0.335,-0.05
20:06:05.332,-0.35,-0.06
20:06:05.336,-0.36,-0.075
20:06:05.340,-0.35,-0.07
20:06:05.344,-0.335,-0.09
20:06:05.348,-0.36,-0.085
20:06:05.352,-0.375,-0.095
20:06:05.356,-0.38,-0.095
20:06:05.360,-0.38,-0.115
20:06:05.364,-0.395,-0.1
20:06:05.368,-0.385,-0.11
20:06:05.372,-0.365,-0.14
20:06:05.376,-0.365,-0.15
20:06:05.380,-0.365,-0.15
20:06:05.384,-0.37,-0.135
20:06:05.388,-0.375,-0.145
20:06:05.392,-0.37,-0.125
20:06:05.396,-0.37,-0.14
20:06:05.400,-0.385,-0.16
20:06:05.404,-0.375,-0.165
20:06:05.408,-0.39,-0.19
20:06:05.412,-0.395,-0.24
20:06:05.416,-0.385,-0.295
20:06:05.420,-0.4,-0.31
20:06:05.424,-0.405,-0.3
20:06:05.428,-0.425,-0.35
20:06:05.432,-0.425,-0.345
20:06:05.436,-0.405,-0.365
20:06:05.440,-0.38,-0.37
20:06:05.444,-0.37,-0.4
20:06:05.448,-0.35,-0.385
20:06:05.452,-0.355,-0.425
20:06:05.456,-0.335,-0.415
20:06:05.460,-0.335,-0.4
20:06:05.464,-0.365,-0.4
20:06:05.468,-0.355,-0.42
20:06:05.472,-0.345,-0.42
20:06:05.476,-0.35,-0.44
20:06:05.480,-0.36,-0.445
20:06:05.484,-0.35,-0.46
20:06:05.488,-0.34,-0.48
20:06:05.492,-0.35,-0.48
20:06:05.496,-0.34,-0.51
20:06:05.500,-0.33,-0.495
20:06:05.504,-0.3,-0.525
20:06:05.508,-0.305,-0.52
20:06:05.512,-0.33,-0.525
20:06:05.516,-0.35,-0.53
20:06:05.520,-0.35,-0.535
20:06:05.524,-0.34,-0.54
20:06:05.528,-0.32,-0.565
20:06:05.532,-0.32,-0.555
20:06:05.536,-0.295,-0.585
20:06:05.540,-0.33,-0.57
20:06:05.544,-0.33,-0.58
20:06:05.548,-0.345,-0.57
20:06:05.552,-0.345,-0.585
20:06:05.556,-0.335,-0.575
20:06:05.560,-0.335,-0.59
20:06:05.564,-0.33,-0.585
20:06:05.568,-0.305,-0.6
20:06:05.572,-0.275,-0.58
20:06:05.576,-0.235,-0.58
20:06:05.580,-0.16,-0.595
20:06:05.584,-0.045,-0.615
20:06:05.588,0.025,-0.64
20:06:05.592,0.11,-0.675
20:06:05.596,0.2,-0.715
20:06:05.600,0.235,-0.75
20:06:05.604,0.24,-0.77
20:06:05.608,0.22,-0.84
20:06:05.612,0.245,-0.88
20:06:05.616,0.395,-1.025
20:06:05.620,0.665,-1.22
20:06:05.624,0.935,-1.47
20:06:05.628,1.06,-1.71
20:06:05.632,0.88,-1.86
20:06:05.636,0.45,-1.795
20:06:05.640,0.025,-1.465
20:06:05.644,-0.23,-1.105
20:06:05.648,-0.285,-0.91
20:06:05.652,-0.33,-0.785
20:06:05.656,-0.34,-0.68
20:06:05.660,-0.365,-0.595
20:06:05.664,-0.385,-0.54
20:06:05.668,-0.4,-0.5
20:06:05.672,-0.39,-0.5
20:06:05.676,-0.41,-0.49
20:06:05.680,-0.395,-0.5
20:06:05.684,-0.435,-0.53
20:06:05.688,-0.45,-0.535
20:06:05.692,-0.48,-0.53
20:06:05.696,-0.47,-0.535
20:06:05.700,-0.465,-0.53
20:06:05.704,-0.485,-0.535
20:06:05.708,-0.485,-0.52
20:06:05.712,-0.48,-0.51
20:06:05.716,-0.49,-0.495
20:06:05.720,-0.505,-0.52
20:06:05.724,-0.535,-0.525
20:06:05.728,-0.55,-0.51
20:06:05.732,-0.54,-0.505
20:06:05.736,-0.53,-0.5
20:06:05.740,-0.53,-0.475
20:06:05.744,-0.545,-0.455
20:06:05.748,-0.56,-0.45
20:06:05.752,-0.545,-0.45
20:06:05.756,-0.575,-0.44
20:06:05.760,-0.6,-0.425
20:06:05.764,-0.595,-0.415
20:06:05.768,-0.6,-0.39
20:06:05.772,-0.595,-0.375
20:06:05.776,-0.615,-0.36
20:06:05.780,-0.64,-0.32
20:06:05.784,-0.68,-0.335
20:06:05.788,-0.685,-0.305
20:06:05.792,-0.69,-0.31
20:06:05.796,-0.655,-0.3
20:06:05.800,-0.65,-0.295
20:06:05.804,-0.635,-0.275
20:06:05.808,-0.63,-0.27
20:06:05.812,-0.62,-0.27
20:06:05.816,-0.605,-0.25
20:06:05.820,-0.57,-0.245
20:06:05.824,-0.59,-0.245
20:06:05.828,-0.55,-0.24
20:06:05.832,-0.54,-0.255
20:06:05.836,-0.525,-0.265
20:06:05.840,-0.525,-0.275
20:06:05.844,-0.5,-0.305
20:06:05.848,-0.48,-0.32
20:06:05.852,-0.43,-0.34
20:06:05.856,-0.385,-0.34
20:06:05.860,-0.355,-0.36
20:06:05.864,-0.35,-0.335
20:06:05.868,-0.34,-0.33
20:06:05.872,-0.335,-0.315
20:06:05.876,-0.325,-0.32
20:06:05.880,-0.28,-0.31
20:06:05.884,-0.2,-0.31
20:06:05.888,-0.18,-0.295
20:06:05.892,-0.19,-0.285
20:06:05.896,-0.205,-0.29
20:06:05.900,-0.205,-0.28
20:06:05.904,-0.21,-0.27
20:06:05.908,-0.21,-0.275
20:06:05.912,-0.185,-0.26
20:06:05.916,-0.18,-0.235
20:06:05.920,-0.175,-0.235
20:06:05.924,-0.205,-0.255
20:06:05.928,-0.225,-0.255
20:06:05.932,-0.235,-0.255
20:06:05.936,-0.265,-0.24
20:06:05.940,-0.28,-0.225
20:06:05.944,-0.26,-0.265
20:06:05.948,-0.275,-0.255
20:06:05.952,-0.285,-0.27
20:06:05.956,-0.29,-0.24
20:06:05.960,-0.29,-0.245
20:06:05.964,-0.32,-0.235
20:06:05.968,-0.35,-0.225
20:06:05.972,-0.36,-0.2
20:06:05.976,-0.385,-0.23
20:06:05.980,-0.425,-0.21
20:06:05.984,-0.45,-0.21
20:06:05.988,-0.475,-0.195
20:06:05.992,-0.47,-0.19
20:06:05.996,-0.465,-0.19
20:06:06.000,-0.445,-0.185
20:06:06.004,-0.4,-0.195
20:06:06.008,-0.41,-0.195
20:06:06.012,-0.405,-0.185
20:06:06.016,-0.415,-0.195
20:06:06.020,-0.415,-0.17
20:06:06.024,-0.4,-0.18
20:06:06.028,-0.38,-0.18
20:06:06.032,-0.37,-0.19
20:06:06.036,-0.37,-0.17
20:06:06.040,-0.35,-0.16
20:06:06.044,-0.315,-0.19
20:06:06.048,-0.29,-0.215
20:06:06.052,-0.19,-0.24
20:06:06.056,-0.1,-0.255
20:06:06.060,0.0,-0.28
20:06:06.064,0.11,-0.29
20:06:06.068,0.19,-0.36
20:06:06.072,0.26,-0.405
20:06:06.076,0.33,-0.43
20:06:06.080,0.345,-0.44
20:06:06.084,0.35,-0.46
20:06:06.088,0.375,-0.515
20:06:06.092,0.505,-0.6
20:06:06.096,0.8,-0.79
20:06:06.100,1.075,-1.02
20:06:06.104,1.185,-1.23
20:06:06.108,1.045,-1.365
20:06:06.112,0.6,-1.3
20:06:06.116,0.135,-1.0
20:06:06.120,-0.14,-0.67
20:06:06.124,-0.265,-0.45
20:06:06.128,-0.32,-0.32
20:06:06.132,-0.355,-0.235
20:06:06.136,-0.39,-0.14
20:06:06.140,-0.435,-0.08
20:06:06.144,-0.44,-0.08
20:06:06.148,-0.495,-0.075
20:06:06.152,-0.51,-0.08
20:06:06.156,-0.505,-0.125
20:06:06.160,-0.5,-0.125
20:06:06.164,-0.52,-0.12
20:06:06.168,-0.575,-0.145
20:06:06.172,-0.575,-0.125
20:06:06.176,-0.63,-0.14
20:06:06.180,-0.645,-0.135
20:06:06.184,-0.65,-0.135
20:06:06.188,-0.67,-0.145
20:06:06.192,-0.69,-0.115
20:06:06.196,-0.73,-0.115
20:06:06.200,-0.75,-0.125
20:06:06.204,-0.755,-0.13
20:06:06.208,-0.765,-0.125
20:06:06.212,-0.765,-0.11
20:06:06.216,-0.77,-0.11
20:06:06.220,-0.75,-0.1
20:06:06.224,-0.71,-0.085
20:06:06.228,-0.72,-0.06
20:06:06.232,-0.7,-0.06
20:06:06.236,-0.68,-0.07
20:06:06.240,-0.65,-0.07
20:06:06.244,-0.65,-0.045
20:06:06.248,-0.65,-0.045
20:06:06.252,-0.6,-0.05
20:06:06.256,-0.59,-0.03
20:06:06.260,-0.595,-0.04
20:06:06.264,-0.585,-0.04
20:06:06.268,-0.555,-0.055
20:06:06.272,-0.53,-0.02
20:06:06.276,-0.545,-0.01
20:06:06.280,-0.54,0.0
20:06:06.284,-0.52,0.015
20:06:06.288,-0.52,0.01
20:06:06.292,-0.505,0.02
20:06:06.296,-0.505,0.015
20:06:06.300,-0.5,0.005
20:06:06.304,-0.49,0.02
20:06:06.308,-0.48,0.01
20:06:06.312,-0.48,0.025
20:06:06.316,-0.455,0.01
20:06:06.320,-0.435,0.02
20:06:06.324,-0.445,0.005
20:06:06.328,-0.43,0.005
20:06:06.332,-0.41,0.005
20:06:06.336,-0.4,0.015
20:06:06.340,-0.385,0.015
20:06:06.344,-0.39,-0.01
20:06:06.348,-0.39,0.015
20:06:06.352,-0.37,0.005
20:06:06.356,-0.36,0.025
20:06:06.360,-0.36,0.065
20:06:06.364,-0.35,0.045
20:06:06.368,-0.37,0.045
20:06:06.372,-0.37,0.045
20:06:06.376,-0.395,0.05
20:06:06.380,-0.395,0.07
20:06:06.384,-0.41,0.06
20:06:06.388,-0.405,0.065
20:06:06.392,-0.425,0.08
20:06:06.396,-0.43,0.085
20:06:06.400,-0.445,0.08
20:06:06.404,-0.435,0.09
20:06:06.408,-0.47,0.09
20:06:06.412,-0.445,0.1
20:06:06.416,-0.46,0.115
20:06:06.420,-0.48,0.13
20:06:06.424,-0.48,0.13
20:06:06.428,-0.475,0.12
20:06:06.432,-0.48,0.135
20:06:06.436,-0.465,0.155
20:06:06.440,-0.47,0.125
20:06:06.444,-0.46,0.12
20:06:06.448,-0.44,0.115
20:06:06.452,-0.4,0.115
20:06:06.456,-0.375,0.125
20:06:06.460,-0.32,0.095
20:06:06.464,-0.31,0.11
20:06:06.468,-0.28,0.125
20:06:06.472,-0.285,0.13
20:06:06.476,-0.235,0.135
20:06:06.480,-0.215,0.11
20:06:06.484,-0.215,0.12
20:06:06.488,-0.2,0.095
20:06:06.492,-0.195,0.1
20:06:06.496,-0.18,0.105
20:06:06.500,-0.185,0.09
20:06:06.504,-0.19,0.095
20:06:06.508,-0.165,0.095
20:06:06.512,-0.175,0.085
20:06:06.516,-0.185,0.075
20:06:06.520,-0.17,0.115
20:06:06.524,-0.185,0.095
20:06:06.528,-0.185,0.09
20:06:06.532,-0.195,0.075
20:06:06.536,-0.195,0.07
20:06:06.540,-0.21,0.09
20:06:06.544,-0.235,0.08
20:06:06.548,-0.25,0.075
20:06:06.552,-0.265,0.085
20:06:06.556,-0.27,0.055
20:06:06.560,-0.26,0.065
20:06:06.564,-0.245,0.055
20:06:06.568,-0.235,0.08
20:06:06.572,-0.205,0.07
20:06:06.576,-0.17,0.045
20:06:06.580,-0.08,0.07
20:06:06.584,0.0,0.045
20:06:06.588,0.085,0.015
20:06:06.592,0.17,0.005
20:06:06.596,0.215,-0.065
20:06:06.600,0.25,-0.095
20:06:06.604,0.205,-0.135
20:06:06.608,0.195,-0.195
20:06:06.612,0.19,-0.265
20:06:06.616,0.35,-0.445
20:06:06.620,0.665,-0.64
20:06:06.624,0.935,-0.885
20:06:06.628,1.085,-1.12
20:06:06.632,0.95,-1.22
20:06:06.636,0.52,-1.11
20:06:06.640,0.035,-0.795
20:06:06.644,-0.265,-0.395
20:06:06.648,-0.4,-0.16
20:06:06.652,-0.425,-0.025
20:06:06.656,-0.435,0.11
20:06:06.660,-0.44,0.185
20:06:06.664,-0.425,0.23
20:06:06.668,-0.41,0.24
20:06:06.672,-0.41,0.26
20:06:06.676,-0.405,0.24
20:06:06.680,-0.405,0.265
20:06:06.684,-0.4,0.26
20:06:06.688,-0.4,0.26
20:06:06.692,-0.4,0.25
20:06:06.696,-0.385,0.225
20:06:06.700,-0.405,0.185
20:06:06.704,-0.395,0.165
20:06:06.708,-0.385,0.18
20:06:06.712,-0.385,0.175
20:06:06.716,-0.38,0.165
20:06:06.720,-0.39,0.175
20:06:06.724,-0.405,0.19
20:06:06.728,-0.425,0.185
20:06:06.732,-0.435,0.235
20:06:06.736,-0.45,0.215
20:06:06.740,-0.47,0.215
20:06:06.744,-0.465,0.215
20:06:06.748,-0.47,0.195
20:06:06.752,-0.5,0.205
20:06:06.756,-0.52,0.205
20:06:06.760,-0.55,0.205
20:06:06.764,-0.545,0.175
20:06:06.768,-0.55,0.185
20:06:06.772,-0.575,0.2
20:06:06.776,-0.58,0.2
20:06:06.780,-0.58,0.205
20:06:06.784,-0.58,0.195
20:06:06.788,-0.595,0.18
20:06:06.792,-0.575,0.18
20:06:06.796,-0.59,0.175
20:06:06.800,-0.595,0.185
20:06:06.804,-0.605,0.16
20:06:06.808,-0.585,0.175
20:06:06.812,-0.6,0.175
20:06:06.816,-0.585,0.195
20:06:06.820,-0.595,0.19
20:06:06.824,-0.57,0.22
20:06:06.828,-0.555,0.215
20:06:06.832,-0.54,0.195
20:06:06.836,-0.535,0.2
20:06:06.840,-0.515,0.22
20:06:06.844,-0.495,0.25
20:06:06.848,-0.475,0.24
20:06:06.852,-0.475,0.225
20:06:06.856,-0.455,0.235
20:06:06.860,-0.435,0.24
20:06:06.864,-0.41,0.235
20:06:06.868,-0.39,0.225
20:06:06.872,-0.355,0.215
20:06:06.876,-0.32,0.195
20:06:06.880,-0.305,0.215
20:06:06.884,-0.29,0.24
20:06:06.888,-0.28,0.23
20:06:06.892,-0.275,0.25
20:06:06.896,-0.235,0.215
20:06:06.900,-0.2,0.21
20:06:06.904,-0.205,0.19
20:06:06.908,-0.195,0.16
20:06:06.912,-0.16,0.17
20:06:06.916,-0.185,0.145
20:06:06.920,-0.16,0.155
20:06:06.924,-0.155,0.165
20:06:06.928,-0.175,0.17
20:06:06.932,-0.19,0.16
20:06:06.936,-0.2,0.165
20:06:06.940,-0.205,0.175
20:06:06.944,-0.205,0.16
20:06:06.948,-0.205,0.145
20:06:06.952,-0.205,0.16
20:06:06.956,-0.22,0.16
20:06:06.960,-0.225,0.175
20:06:06.964,-0.23,0.155
20:06:06.968,-0.265,0.15
20:06:06.972,-0.275,0.145
20:06:06.976,-0.31,0.15
20:06:06.980,-0.32,0.16
20:06:06.984,-0.33,0.165
20:06:06.988,-0.345,0.145
20:06:06.992,-0.34,0.15
20:06:06.996,-0.35,0.14
20:06:07.000,-0.365,0.145
20:06:07.004,-0.385,0.145
20:06:07.008,-0.4,0.13
20:06:07.012,-0.385,0.135
20:06:07.016,-0.395,0.18
20:06:07.020,-0.41,0.185
20:06:07.024,-0.395,0.18
20:06:07.028,-0.43,0.195
20:06:07.032,-0.425,0.195
20:06:07.036,-0.43,0.195
20:06:07.040,-0.41,0.23
20:06:07.044,-0.44,0.215
20:06:07.048,-0.435,0.235
20:06:07.052,-0.4,0.235
20:06:07.056,-0.395,0.255
20:06:07.060,-0.38,0.28
20:06:07.064,-0.365,0.28
20:06:07.068,-0.33,0.285
20:06:07.072,-0.335,0.285
20:06:07.076,-0.325,0.3
20:06:07.080,-0.29,0.28
20:06:07.084,-0.29,0.245
20:06:07.088,-0.275,0.245
20:06:07.092,-0.275,0.265
20:06:07.096,-0.265,0.27
20:06:07.100,-0.255,0.255
20:06:07.104,-0.255,0.26
20:06:07.108,-0.235,0.245
20:06:07.112,-0.245,0.215
20:06:07.116,-0.22,0.195
20:06:07.120,-0.225,0.19
20:06:07.124,-0.2,0.175
20:06:07.128,-0.205,0.185
20:06:07.132,-0.195,0.195
20:06:07.136,-0.125,0.18
20:06:07.140,-0.055,0.18
20:06:07.144,0.01,0.19
20:06:07.148,0.085,0.175
20:06:07.152,0.14,0.12
20:06:07.156,0.18,0.08
20:06:07.160,0.205,0.04
20:06:07.164,0.225,-0.005
20:06:07.168,0.18,-0.035
20:06:07.172,0.145,-0.115
20:06:07.176,0.235,-0.235
20:06:07.180,0.44,-0.4
20:06:07.184,0.76,-0.635
20:06:07.188,0.985,-0.9
20:06:07.192,1.055,-1.115
20:06:07.196,0.825,-1.175
20:06:07.200,0.385,-0.96
20:06:07.204,-0.06,-0.565
20:06:07.208,-0.31,-0.195
20:06:07.212,-0.445,0.0
20:06:07.216,-0.49,0.135
20:06:07.220,-0.5,0.22
20:06:07.224,-0.52,0.28
20:06:07.228,-0.575,0.33
20:06:07.232,-0.575,0.335
20:06:07.236,-0.61,0.325
20:06:07.240,-0.63,0.295
20:06:07.244,-0.615,0.315
20:06:07.248,-0.65,0.285
20:06:07.252,-0.64,0.285
20:06:07.256,-0.64,0.265
20:06:07.260,-0.63,0.285
20:06:07.264,-0.64,0.26
20:06:07.268,-0.645,0.27
20:06:07.272,-0.65,0.25
20:06:07.276,-0.64,0.255
20:06:07.280,-0.62,0.255
20:06:07.284,-0.585,0.27
20:06:07.288,-0.545,0.26
20:06:07.292,-0.535,0.245
20:06:07.296,-0.545,0.26
20:06:07.300,-0.56,0.23
20:06:07.304,-0.555,0.23
20:06:07.308,-0.56,0.22
20:06:07.312,-0.545,0.23
20:06:07.316,-0.525,0.205
20:06:07.320,-0.54,0.195
20:06:07.324,-0.535,0.205
20:06:07.328,-0.53,0.21
20:06:07.332,-0.52,0.21
20:06:07.336,-0.525,0.215
20:06:07.340,-0.53,0.21
20:06:07.344,-0.51,0.19
20:06:07.348,-0.535,0.19
20:06:07.352,-0.53,0.21
20:06:07.356,-0.52,0.2
20:06:07.360,-0.535,0.195
20:06:07.364,-0.525,0.21
20:06:07.368,-0.535,0.235
20:06:07.372,-0.525,0.22
20:06:07.376,-0.515,0.215
20:06:07.380,-0.495,0.205
20:06:07.384,-0.49,0.23
20:06:07.388,-0.49,0.215
20:06:07.392,-0.505,0.22
20:06:07.396,-0.505,0.215
20:06:07.400,-0.505,0.22
20:06:07.404,-0.475,0.19
20:06:07.408,-0.495,0.2
20:06:07.412,-0.48,0.2
20:06:07.416,-0.47,0.185
20:06:07.420,-0.43,0.175
20:06:07.424,-0.47,0.175
20:06:07.428,-0.445,0.18
20:06:07.432,-0.465,0.17
20:06:07.436,-0.46,0.165
20:06:07.440,-0.46,0.17
20:06:07.444,-0.445,0.155
20:06:07.448,-0.445,0.165
20:06:07.452,-0.455,0.15
20:06:07.456,-0.465,0.165
20:06:07.460,-0.465,0.175
20:06:07.464,-0.455,0.205
20:06:07.468,-0.475,0.215
20:06:07.472,-0.47,0.22
20:06:07.476,-0.46,0.24
20:06:07.480,-0.43,0.24
20:06:07.484,-0.405,0.26
20:06:07.488,-0.4,0.26
20:06:07.492,-0.395,0.285
20:06:07.496,-0.4,0.285
20:06:07.500,-0.415,0.315
20:06:07.504,-0.405,0.285
20:06:07.508,-0.425,0.27
20:06:07.512,-0.425,0.265
20:06:07.516,-0.42,0.24
20:06:07.520,-0.39,0.23
20:06:07.524,-0.37,0.235
20:06:07.528,-0.35,0.225
20:06:07.532,-0.35,0.235
20:06:07.536,-0.345,0.195
20:06:07.540,-0.355,0.2
20:06:07.544,-0.345,0.19
20:06:07.548,-0.33,0.2
20:06:07.552,-0.33,0.19
20:06:07.556,-0.34,0.215
20:06:07.560,-0.325,0.235
20:06:07.564,-0.33,0.24
20:06:07.568,-0.335,0.235
20:06:07.572,-0.35,0.255
20:06:07.576,-0.36,0.255
20:06:07.580,-0.365,0.245
20:06:07.584,-0.365,0.25
20:06:07.588,-0.38,0.245
20:06:07.592,-0.375,0.26
20:06:07.596,-0.37,0.25
20:06:07.600,-0.37,0.275
20:06:07.604,-0.36,0.285
20:06:07.608,-0.345,0.255
20:06:07.612,-0.36,0.265
20:06:07.616,-0.38,0.245
20:06:07.620,-0.37,0.26
20:06:07.624,-0.38,0.27
20:06:07.628,-0.385,0.265
20:06:07.632,-0.36,0.26
20:06:07.636,-0.38,0.275
20:06:07.640,-0.385,0.255
20:06:07.644,-0.355,0.235
20:06:07.648,-0.32,0.23
20:06:07.652,-0.28,0.235
20:06:07.656,-0.21,0.215
20:06:07.660,-0.115,0.21
20:06:07.664,-0.065,0.175
20:06:07.668,-0.015,0.15
20:06:07.672,0.01,0.085
20:06:07.676,0.015,0.055
20:06:07.680,0.015,0.04
20:06:07.684,-0.005,-0.015
20:06:07.688,0.01,-0.095
20:06:07.692,0.16,-0.245
20:06:07.696,0.46,-0.47
20:06:07.700,0.76,-0.73
20:06:07.704,0.97,-0.97
20:06:07.708,0.915,-1.13
20:06:07.712,0.57,-1.09
20:06:07.716,0.105,-0.8
20:06:07.720,-0.245,-0.4
20:06:07.724,-0.4,-0.11
20:06:07.728,-0.45,0.065
20:06:07.732,-0.47,0.155
20:06:07.736,-0.465,0.235
20:06:07.740,-0.46,0.255
20:06:07.744,-0.435,0.275
20:06:07.748,-0.475,0.29
20:06:07.752,-0.47,0.265
20:06:07.756,-0.44,0.25
20:06:07.760,-0.44,0.25
20:06:07.764,-0.45,0.21
20:06:07.768,-0.45,0.24
20:06:07.772,-0.465,0.235
20:06:07.776,-0.47,0.25
20:06:07.780,-0.475,0.23
20:06:07.784,-0.48,0.225
20:06:07.788,-0.5,0.245
20:06:07.792,-0.51,0.225
20:06:07.796,-0.5,0.24
20:06:07.800,-0.525,0.235
20:06:07.804,-0.525,0.265
20:06:07.808,-0.535,0.225
20:06:07.812,-0.56,0.245
20:06:07.816,-0.55,0.26
20:06:07.820,-0.58,0.275
20:06:07.824,-0.59,0.24
20:06:07.828,-0.565,0.265
20:06:07.832,-0.59,0.275
20:06:07.836,-0.595,0.255
20:06:07.840,-0.585,0.255
20:06:07.844,-0.59,0.25
20:06:07.848,-0.6,0.28
20:06:07.852,-0.58,0.285
20:06:07.856,-0.605,0.285
20:06:07.860,-0.61,0.295
20:06:07.864,-0.625,0.32
20:06:07.868,-0.61,0.31
20:06:07.872,-0.595,0.305
20:06:07.876,-0.575,0.3
20:06:07.880,-0.575,0.29
20:06:07.884,-0.55,0.28
20:06:07.888,-0.535,0.3
20:06:07.892,-0.505,0.275
20:06:07.896,-0.505,0.27
20:06:07.900,-0.505,0.275
20:06:07.904,-0.475,0.255
20:06:07.908,-0.47,0.26
20:06:07.912,-0.48,0.235
20:06:07.916,-0.48,0.25
20:06:07.920,-0.465,0.24
20:06:07.924,-0.465,0.22
20:06:07.928,-0.46,0.22
20:06:07.932,-0.47,0.21
20:06:07.936,-0.465,0.17
20:06:07.940,-0.455,0.2
20:06:07.944,-0.44,0.17
20:06:07.948,-0.41,0.18
20:06:07.952,-0.38,0.19
20:06:07.956,-0.35,0.16
20:06:07.960,-0.34,0.17
20:06:07.964,-0.33,0.16
20:06:07.968,-0.305,0.16
20:06:07.972,-0.295,0.175
20:06:07.976,-0.265,0.165
20:06:07.980,-0.24,0.155
20:06:07.984,-0.28,0.165
20:06:07.988,-0.26,0.195
20:06:07.992,-0.26,0.21
20:06:07.996,-0.265,0.225
20:06:08.000,-0.28,0.235
20:06:08.004,-0.28,0.22
20:06:08.008,-0.295,0.225
20:06:08.012,-0.31,0.25
20:06:08.016,-0.32,0.245
20:06:08.020,-0.34,0.255
20:06:08.024,-0.32,0.23
20:06:08.028,-0.355,0.23
20:06:08.032,-0.335,0.24
20:06:08.036,-0.355,0.245
20:06:08.040,-0.36,0.23
20:06:08.044,-0.385,0.23
20:06:08.048,-0.4,0.24
20:06:08.052,-0.43,0.24
20:06:08.056,-0.41,0.255
20:06:08.060,-0.43,0.265
20:06:08.064,-0.42,0.26
20:06:08.068,-0.425,0.245
20:06:08.072,-0.42,0.24
20:06:08.076,-0.43,0.205
20:06:08.080,-0.455,0.2
20:06:08.084,-0.42,0.195
20:06:08.088,-0.42,0.17
20:06:08.092,-0.425,0.19
20:06:08.096,-0.405,0.18
20:06:08.100,-0.38,0.17
20:06:08.104,-0.37,0.165
20:06:08.108,-0.355,0.18
20:06:08.112,-0.335,0.15
20:06:08.116,-0.32,0.17
20:06:08.120,-0.305,0.145
20:06:08.124,-0.315,0.15
20:06:08.128,-0.33,0.135
20:06:08.132,-0.31,0.135
20:06:08.136,-0.355,0.15
20:06:08.140,-0.35,0.12
20:06:08.144,-0.365,0.115
20:06:08.148,-0.355,0.135
20:06:08.152,-0.355,0.155
20:06:08.156,-0.35,0.135
20:06:08.160,-0.335,0.155
20:06:08.164,-0.325,0.145
20:06:08.168,-0.315,0.15
20:06:08.172,-0.305,0.125
20:06:08.176,-0.22,0.15
20:06:08.180,-0.12,0.13
20:06:08.184,-0.045,0.115
20:06:08.188,0.03,0.11
20:06:08.192,0.095,0.075
20:06:08.196,0.15,0.025
20:06:08.200,0.165,-0.025
20:06:08.204,0.145,-0.06
20:06:08.208,0.12,-0.085
20:06:08.212,0.09,-0.17
20:06:08.216,0.205,-0.26
20:06:08.220,0.44,-0.43
20:06:08.224,0.775,-0.66
20:06:08.228,1.02,-0.935
20:06:08.232,1.04,-1.145
20:06:08.236,0.795,-1.17
20:06:08.240,0.33,-0.915
20:06:08.244,-0.065,-0.53
20:06:08.248,-0.24,-0.155
20:06:08.252,-0.34,0.035
20:06:08.256,-0.36,0.145
20:06:08.260,-0.385,0.22
20:06:08.264,-0.425,0.23
20:06:08.268,-0.435,0.26
20:06:08.272,-0.465,0.22
20:06:08.276,-0.505,0.21
20:06:08.280,-0.505,0.17
20:06:08.284,-0.49,0.12
20:06:08.288,-0.5,0.09
20:06:08.292,-0.51,0.07
20:06:08.296,-0.535,0.04
20:06:08.300,-0.55,0.0
20:06:08.304,-0.57,-0.055
20:06:08.308,-0.575,-0.065
20:06:08.312,-0.59,-0.065
20:06:08.316,-0.59,-0.105
20:06:08.320,-0.59,-0.09
20:06:08.324,-0.58,-0.11
20:06:08.328,-0.57,-0.115
20:06:08.332,-0.59,-0.1
20:06:08.336,-0.555,-0.12
20:06:08.340,-0.57,-0.11
20:06:08.344,-0.56,-0.115
20:06:08.348,-0.58,-0.1
20:06:08.352,-0.58,-0.09
20:06:08.356,-0.595,-0.125
20:06:08.360,-0.605,-0.125
20:06:08.364,-0.625,-0.13
20:06:08.368,-0.615,-0.13
20:06:08.372,-0.605,-0.135
20:06:08.376,-0.6,-0.145
20:06:08.380,-0.575,-0.16
20:06:08.384,-0.57,-0.165
20:06:08.388,-0.545,-0.17
20:06:08.392,-0.56,-0.175
20:06:08.396,-0.55,-0.2
20:06:08.400,-0.5,-0.195
20:06:08.404,-0.51,-0.195
20:06:08.408,-0.505,-0.195
20:06:08.412,-0.49,-0.19
20:06:08.416,-0.49,-0.21
20:06:08.420,-0.465,-0.2
20:06:08.424,-0.455,-0.205
20:06:08.428,-0.44,-0.21
20:06:08.432,-0.45,-0.2
20:06:08.436,-0.455,-0.225
20:06:08.440,-0.46,-0.265
20:06:08.444,-0.45,-0.285
20:06:08.448,-0.45,-0.29
20:06:08.452,-0.445,-0.31
20:06:08.456,-0.44,-0.325
20:06:08.460,-0.43,-0.325
20:06:08.464,-0.445,-0.36
20:06:08.468,-0.445,-0.355
20:06:08.472,-0.43,-0.36
20:06:08.476,-0.385,-0.35
20:06:08.480,-0.365,-0.35
20:06:08.484,-0.355,-0.375
20:06:08.488,-0.355,-0.38
20:06:08.492,-0.34,-0.4
20:06:08.496,-0.335,-0.39
20:06:08.500,-0.3,-0.385
20:06:08.504,-0.295,-0.39
20:06:08.508,-0.29,-0.4
20:06:08.512,-0.27,-0.39
20:06:08.516,-0.285,-0.39
20:06:08.520,-0.305,-0.375
20:06:08.524,-0.29,-0.38
20:06:08.528,-0.25,-0.415
20:06:08.532,-0.26,-0.39
20:06:08.536,-0.27,-0.375
20:06:08.540,-0.27,-0.37
20:06:08.544,-0.245,-0.385
20:06:08.548,-0.265,-0.41
20:06:08.552,-0.255,-0.405
20:06:08.556,-0.235,-0.405
20:06:08.560,-0.225,-0.38
20:06:08.564,-0.19,-0.4
20:06:08.568,-0.12,-0.415
20:06:08.572,-0.035,-0.39
20:06:08.576,0.025,-0.445
20:06:08.580,0.045,-0.455
20:06:08.584,0.075,-0.51
20:06:08.588,0.09,-0.545
20:06:08.592,0.105,-0.58
20:06:08.596,0.08,-0.59
20:06:08.600,0.13,-0.64
20:06:08.604,0.325,-0.74
20:06:08.608,0.63,-0.89
20:06:08.612,0.925,-1.14
20:06:08.616,1.065,-1.415
20:06:08.620,0.955,-1.58
20:06:08.624,0.615,-1.54
20:06:08.628,0.18,-1.275
20:06:08.632,-0.13,-0.955
20:06:08.636,-0.26,-0.695
20:06:08.640,-0.315,-0.56
20:06:08.644,-0.37,-0.47
20:06:08.648,-0.405,-0.44
20:06:08.652,-0.445,-0.42
20:06:08.656,-0.46,-0.395
20:06:08.660,-0.5,-0.42
20:06:08.664,-0.535,-0.44
20:06:08.668,-0.54,-0.485
20:06:08.672,-0.565,-0.485
20:06:08.676,-0.565,-0.475
20:06:08.680,-0.56,-0.47
20:06:08.684,-0.565,-0.475
20:06:08.688,-0.55,-0.465
20:06:08.692,-0.555,-0.48
20:06:08.696,-0.545,-0.495
20:06:08.700,-0.545,-0.505
20:06:08.704,-0.53,-0.495
20:06:08.708,-0.5,-0.465
20:06:08.712,-0.495,-0.465
20:06:08.716,-0.47,-0.435
20:06:08.720,-0.455,-0.43
20:06:08.724,-0.465,-0.425
20:06:08.728,-0.48,-0.405
20:06:08.732,-0.495,-0.38
20:06:08.736,-0.495,-0.365
20:06:08.740,-0.48,-0.36
20:06:08.744,-0.49,-0.34
20:06:08.748,-0.485,-0.34
20:06:08.752,-0.505,-0.34
20:06:08.756,-0.53,-0.35
20:06:08.760,-0.51,-0.315
20:06:08.764,-0.535,-0.335
20:06:08.768,-0.545,-0.315
20:06:08.772,-0.565,-0.295
20:06:08.776,-0.59,-0.305
20:06:08.780,-0.59,-0.32
20:06:08.784,-0.57,-0.31
20:06:08.788,-0.565,-0.29
20:06:08.792,-0.545,-0.285
20:06:08.796,-0.54,-0.3
20:06:08.800,-0.5,-0.325
20:06:08.804,-0.52,-0.3
20:06:08.808,-0.48,-0.315
20:06:08.812,-0.465,-0.315
20:06:08.816,-0.42,-0.305
20:06:08.820,-0.395,-0.285
20:06:08.824,-0.4,-0.29
20:06:08.828,-0.395,-0.295
20:06:08.832,-0.365,-0.28
20:06:08.836,-0.34,-0.285
20:06:08.840,-0.31,-0.27
20:06:08.844,-0.3,-0.265
20:06:08.848,-0.28,-0.26
20:06:08.852,-0.28,-0.265
20:06:08.856,-0.305,-0.255
20:06:08.860,-0.315,-0.26
20:06:08.864,-0.32,-0.23
20:06:08.868,-0.36,-0.24
20:06:08.872,-0.35,-0.27
20:06:08.876,-0.36,-0.3
20:06:08.880,-0.35,-0.285
20:06:08.884,-0.355,-0.3
20:06:08.888,-0.365,-0.28
20:06:08.892,-0.365,-0.295
20:06:08.896,-0.355,-0.28
20:06:08.900,-0.335,-0.29
20:06:08.904,-0.31,-0.275
20:06:08.908,-0.3,-0.28
20:06:08.912,-0.295,-0.275
20:06:08.916,-0.29,-0.265
20:06:08.920,-0.26,-0.225
20:06:08.924,-0.24,-0.2
20:06:08.928,-0.235,-0.2
20:06:08.932,-0.22,-0.17
20:06:08.936,-0.205,-0.18
20:06:08.940,-0.21,-0.18
20:06:08.944,-0.21,-0.155
20:06:08.948,-0.215,-0.145
20:06:08.952,-0.195,-0.13
20:06:08.956,-0.2,-0.125
20:06:08.960,-0.23,-0.125
20:06:08.964,-0.25,-0.135
20:06:08.968,-0.255,-0.13
20:06:08.972,-0.275,-0.14
20:06:08.976,-0.26,-0.14
20:06:08.980,-0.275,-0.125
20:06:08.984,-0.29,-0.12
20:06:08.988,-0.305,-0.125
20:06:08.992,-0.29,-0.155
20:06:08.996,-0.315,-0.155
20:06:09.000,-0.3,-0.14
20:06:09.004,-0.275,-0.155
20:06:09.008,-0.285,-0.155
20:06:09.012,-0.275,-0.165
20:06:09.016,-0.27,-0.15
20:06:09.020,-0.265,-0.18
20:06:09.024,-0.265,-0.16
20:06:09.028,-0.29,-0.17
20:06:09.032,-0.285,-0.165
20:06:09.036,-0.29,-0.16
20:06:09.040,-0.31,-0.145
20:06:09.044,-0.29,-0.155
20:06:09.048,-0.275,-0.15
20:06:09.052,-0.27,-0.14
20:06:09.056,-0.275,-0.155
20:06:09.060,-0.285,-0.135
20:06:09.064,-0.28,-0.15
20:06:09.068,-0.295,-0.185
20:06:09.072,-0.32,-0.17
20:06:09.076,-0.35,-0.165
20:06:09.080,-0.325,-0.165
20:06:09.084,-0.31,-0.16
20:06:09.088,-0.31,-0.17
20:06:09.092,-0.305,-0.16
20:06:09.096,-0.305,-0.16
20:06:09.100,-0.285,-0.15
20:06:09.104,-0.29,-0.16
20:06:09.108,-0.27,-0.16
20:06:09.112,-0.215,-0.17
20:06:09.116,-0.125,-0.17
20:06:09.120,0.0,-0.185
20:06:09.124,0.08,-0.18
20:06:09.128,0.18,-0.195
20:06:09.132,0.245,-0.245
20:06:09.136,0.34,-0.305
20:06:09.140,0.36,-0.305
20:06:09.144,0.35,-0.31
20:06:09.148,0.325,-0.335
20:06:09.152,0.41,-0.435
20:06:09.156,0.63,-0.575
20:06:09.160,0.94,-0.775
