Time,ECG1,ECG2
20:35:20.000,-0.455,0.07
20:35:20.004,-0.465,0.095
20:35:20.008,-0.49,0.1
20:35:20.012,-0.48,0.1
20:35:20.016,-0.475,0.095
20:35:20.020,-0.48,0.095
20:35:20.024,-0.49,0.085
20:35:20.028,-0.5,0.095
20:35:20.032,-0.47,0.075
20:35:20.036,-0.5,0.085
20:35:20.040,-0.52,0.045
20:35:20.044,-0.53,0.025
20:35:20.048,-0.535,0.03
20:35:20.052,-0.51,0.01
20:35:20.056,-0.495,-0.015
20:35:20.060,-0.475,-0.025
20:35:20.064,-0.425,-0.055
20:35:20.068,-0.41,-0.055
20:35:20.072,-0.425,-0.03
20:35:20.076,-0.425,-0.02
20:35:20.080,-0.4,-0.025
20:35:20.084,-0.375,-0.005
20:35:20.088,-0.385,-0.01
20:35:20.092,-0.37,0.0
20:35:20.096,-0.35,-0.005
20:35:20.100,-0.32,0.015
20:35:20.104,-0.325,0.015
20:35:20.108,-0.32,-0.01
20:35:20.112,-0.31,0.005
20:35:20.116,-0.31,0.01
20:35:20.120,-0.29,0.01
20:35:20.124,-0.295,0.005
20:35:20.128,-0.32,0.025
20:35:20.132,-0.305,0.015
20:35:20.136,-0.295,0.04
20:35:20.140,-0.32,0.03
20:35:20.144,-0.3,0.03
20:35:20.148,-0.305,0.035
20:35:20.152,-0.31,0.045
20:35:20.156,-0.32,0.04
20:35:20.160,-0.325,0.04
20:35:20.164,-0.345,0.03
20:35:20.168,-0.33,0.03
20:35:20.172,-0.32,0.03
20:35:20.176,-0.29,0.03
20:35:20.180,-0.245,0.02
20:35:20.184,-0.18,0.015
20:35:20.188,-0.11,0.005
20:35:20.192,-0.075,0.02
20:35:20.196,-0.01,0.0
20:35:20.200,-0.015,-0.045
20:35:20.204,-0.035,-0.065
20:35:20.208,-0.05,-0.065
20:35:20.212,-0.035,-0.085
20:35:20.216,-0.045,-0.135
20:35:20.220,0.015,-0.21
20:35:20.224,0.28,-0.33
20:35:20.228,0.62,-0.54
20:35:20.232,0.91,-0.84
20:35:20.236,1.035,-1.05
20:35:20.240,0.94,-1.115
20:35:20.244,0.56,-0.89
20:35:20.248,0.095,-0.545
20:35:20.252,-0.23,-0.19
20:35:20.256,-0.38,0.0
20:35:20.260,-0.435,0.09
20:35:20.264,-0.445,0.145
20:35:20.268,-0.485,0.175
20:35:20.272,-0.53,0.175
20:35:20.276,-0.535,0.19
20:35:20.280,-0.53,0.19
20:35:20.284,-0.555,0.175
20:35:20.288,-0.555,0.155
20:35:20.292,-0.54,0.115
20:35:20.296,-0.54,0.105
20:35:20.300,-0.56,0.11
20:35:20.304,-0.54,0.1
20:35:20.308,-0.56,0.095
20:35:20.312,-0.545,0.105
20:35:20.316,-0.55,0.085
20:35:20.320,-0.52,0.055
20:35:20.324,-0.49,0.085
20:35:20.328,-0.505,0.08
20:35:20.332,-0.49,0.07
20:35:20.336,-0.48,0.06
20:35:20.340,-0.485,0.065
20:35:20.344,-0.495,0.075
20:35:20.348,-0.49,0.065
20:35:20.352,-0.49,0.08
20:35:20.356,-0.495,0.09
20:35:20.360,-0.505,0.125
20:35:20.364,-0.545,0.105
20:35:20.368,-0.55,0.105
20:35:20.372,-0.535,0.11
20:35:20.376,-0.54,0.09
20:35:20.380,-0.57,0.095
20:35:20.384,-0.55,0.095
20:35:20.388,-0.555,0.075
20:35:20.392,-0.54,0.095
20:35:20.396,-0.545,0.08
20:35:20.400,-0.555,0.08
20:35:20.404,-0.535,0.07
20:35:20.408,-0.51,0.085
20:35:20.412,-0.51,0.05
20:35:20.416,-0.5,0.065
20:35:20.420,-0.51,0.065
20:35:20.424,-0.505,0.08
20:35:20.428,-0.495,0.085
20:35:20.432,-0.515,0.07
20:35:20.436,-0.49,0.095
20:35:20.440,-0.48,0.095
20:35:20.444,-0.46,0.085
20:35:20.448,-0.455,0.07
20:35:20.452,-0.44,0.07
20:35:20.456,-0.45,0.06
20:35:20.460,-0.43,0.075
20:35:20.464,-0.415,0.05
20:35:20.468,-0.38,0.065
20:35:20.472,-0.36,0.065
20:35:20.476,-0.38,0.05
20:35:20.480,-0.375,0.05
20:35:20.484,-0.38,0.075
20:35:20.488,-0.385,0.075
20:35:20.492,-0.38,0.065
20:35:20.496,-0.365,0.08
20:35:20.500,-0.385,0.065
20:35:20.504,-0.37,0.09
20:35:20.508,-0.38,0.075
20:35:20.512,-0.35,0.055
20:35:20.516,-0.335,0.065
20:35:20.520,-0.315,0.06
20:35:20.524,-0.31,0.08
20:35:20.528,-0.29,0.095
20:35:20.532,-0.29,0.11
20:35:20.536,-0.25,0.095
20:35:20.540,-0.245,0.13
20:35:20.544,-0.255,0.115
20:35:20.548,-0.26,0.13
20:35:20.552,-0.265,0.125
20:35:20.556,-0.23,0.115
20:35:20.560,-0.25,0.1
20:35:20.564,-0.24,0.1
20:35:20.568,-0.285,0.075
20:35:20.572,-0.3,0.07
20:35:20.576,-0.295,0.055
20:35:20.580,-0.3,0.045
20:35:20.584,-0.33,0.035
20:35:20.588,-0.315,0.025
20:35:20.592,-0.335,0.005
20:35:20.596,-0.325,-0.01
20:35:20.600,-0.33,0.0
20:35:20.604,-0.32,-0.01
20:35:20.608,-0.31,-0.01
20:35:20.612,-0.315,-0.01
20:35:20.616,-0.33,-0.04
20:35:20.620,-0.3,-0.04
20:35:20.624,-0.29,-0.035
20:35:20.628,-0.3,-0.02
20:35:20.632,-0.305,-0.05
20:35:20.636,-0.305,-0.04
20:35:20.640,-0.315,-0.02
20:35:20.644,-0.33,-0.06
20:35:20.648,-0.335,-0.04
20:35:20.652,-0.32,-0.06
20:35:20.656,-0.325,-0.075
20:35:20.660,-0.34,-0.08
20:35:20.664,-0.34,-0.06
20:35:20.668,-0.325,-0.055
20:35:20.672,-0.32,-0.06
20:35:20.676,-0.35,-0.05
20:35:20.680,-0.335,-0.06
20:35:20.684,-0.335,-0.06
20:35:20.688,-0.345,-0.06
20:35:20.692,-0.355,-0.055
20:35:20.696,-0.36,-0.06
20:35:20.700,-0.335,-0.08
20:35:20.704,-0.33,-0.05
20:35:20.708,-0.33,-0.06
20:35:20.712,-0.34,-0.065
20:35:20.716,-0.35,-0.07
20:35:20.720,-0.34,-0.065
20:35:20.724,-0.33,-0.065
20:35:20.728,-0.34,-0.045
20:35:20.732,-0.33,-0.07
20:35:20.736,-0.33,-0.1
20:35:20.740,-0.325,-0.09
20:35:20.744,-0.33,-0.075
20:35:20.748,-0.3,-0.08
20:35:20.752,-0.24,-0.08
20:35:20.756,-0.225,-0.06
20:35:20.760,-0.185,-0.08
20:35:20.764,-0.195,-0.04
20:35:20.768,-0.21,-0.065
20:35:20.772,-0.18,-0.04
20:35:20.776,-0.195,-0.04
20:35:20.780,-0.195,-0.075
20:35:20.784,-0.17,-0.1
20:35:20.788,-0.16,-0.13
20:35:20.792,-0.16,-0.115
20:35:20.796,-0.16,-0.125
20:35:20.800,-0.16,-0.15
20:35:20.804,-0.165,-0.16
20:35:20.808,-0.17,-0.16
20:35:20.812,-0.155,-0.155
20:35:20.816,-0.17,-0.175
20:35:20.820,-0.205,-0.155
20:35:20.824,-0.225,-0.18
20:35:20.828,-0.235,-0.195
20:35:20.832,-0.235,-0.2
20:35:20.836,-0.23,-0.195
20:35:20.840,-0.245,-0.19
20:35:20.844,-0.26,-0.215
20:35:20.848,-0.285,-0.215
20:35:20.852,-0.3,-0.24
20:35:20.856,-0.31,-0.22
20:35:20.860,-0.3,-0.28
20:35:20.864,-0.31,-0.28
20:35:20.868,-0.325,-0.27
20:35:20.872,-0.33,-0.3
20:35:20.876,-0.335,-0.3
20:35:20.880,-0.32,-0.28
20:35:20.884,-0.33,-0.27
20:35:20.888,-0.345,-0.275
20:35:20.892,-0.33,-0.285
20:35:20.896,-0.355,-0.295
20:35:20.900,-0.34,-0.295
20:35:20.904,-0.365,-0.31
20:35:20.908,-0.365,-0.28
20:35:20.912,-0.345,-0.305
20:35:20.916,-0.34,-0.285
20:35:20.920,-0.34,-0.265
20:35:20.924,-0.32,-0.27
20:35:20.928,-0.33,-0.27
20:35:20.932,-0.315,-0.24
20:35:20.936,-0.31,-0.28
20:35:20.940,-0.305,-0.275
20:35:20.944,-0.3,-0.275
20:35:20.948,-0.32,-0.28
20:35:20.952,-0.29,-0.28
20:35:20.956,-0.315,-0.28
20:35:20.960,-0.3,-0.28
20:35:20.964,-0.28,-0.295
20:35:20.968,-0.23,-0.3
20:35:20.972,-0.21,-0.28
20:35:20.976,-0.18,-0.27
20:35:20.980,-0.13,-0.265
20:35:20.984,-0.105,-0.255
20:35:20.988,-0.065,-0.275
20:35:20.992,0.0,-0.31
20:35:20.996,0.11,-0.335
20:35:21.000,0.2,-0.365
20:35:21.004,0.285,-0.415
20:35:21.008,0.36,-0.46
20:35:21.012,0.42,-0.46
20:35:21.016,0.46,-0.48
20:35:21.020,0.43,-0.495
20:35:21.024,0.425,-0.55
20:35:21.028,0.49,-0.635
20:35:21.032,0.675,-0.815
20:35:21.036,0.97,-1.04
20:35:21.040,1.21,-1.295
20:35:21.044,1.215,-1.49
20:35:21.048,0.975,-1.535
20:35:21.052,0.515,-1.27
20:35:21.056,0.12,-0.95
20:35:21.060,-0.11,-0.71
20:35:21.064,-0.2,-0.56
20:35:21.068,-0.265,-0.49
20:35:21.072,-0.32,-0.44
20:35:21.076,-0.37,-0.41
20:35:21.080,-0.39,-0.435
20:35:21.084,-0.41,-0.415
20:35:21.088,-0.435,-0.43
20:35:21.092,-0.46,-0.465
20:35:21.096,-0.48,-0.495
20:35:21.100,-0.505,-0.52
20:35:21.104,-0.505,-0.53
20:35:21.108,-0.53,-0.53
20:35:21.112,-0.555,-0.53
20:35:21.116,-0.575,-0.53
20:35:21.120,-0.575,-0.555
20:35:21.124,-0.58,-0.55
20:35:21.128,-0.595,-0.54
20:35:21.132,-0.59,-0.54
20:35:21.136,-0.585,-0.55
20:35:21.140,-0.56,-0.57
20:35:21.144,-0.55,-0.57
20:35:21.148,-0.54,-0.575
20:35:21.152,-0.52,-0.56
20:35:21.156,-0.525,-0.56
20:35:21.160,-0.52,-0.555
20:35:21.164,-0.525,-0.56
20:35:21.168,-0.51,-0.565
20:35:21.172,-0.49,-0.57
20:35:21.176,-0.515,-0.57
20:35:21.180,-0.515,-0.555
20:35:21.184,-0.515,-0.545
20:35:21.188,-0.53,-0.55
20:35:21.192,-0.54,-0.55
20:35:21.196,-0.525,-0.545
20:35:21.200,-0.49,-0.55
20:35:21.204,-0.455,-0.545
20:35:21.208,-0.45,-0.54
20:35:21.212,-0.415,-0.52
20:35:21.216,-0.415,-0.5
20:35:21.220,-0.395,-0.485
20:35:21.224,-0.38,-0.5
20:35:21.228,-0.39,-0.52
20:35:21.232,-0.385,-0.525
20:35:21.236,-0.39,-0.535
20:35:21.240,-0.405,-0.545
20:35:21.244,-0.385,-0.56
20:35:21.248,-0.38,-0.575
20:35:21.252,-0.38,-0.58
20:35:21.256,-0.38,-0.56
20:35:21.260,-0.4,-0.57
20:35:21.264,-0.39,-0.575
20:35:21.268,-0.39,-0.565
20:35:21.272,-0.385,-0.56
20:35:21.276,-0.415,-0.57
20:35:21.280,-0.415,-0.58
20:35:21.284,-0.41,-0.57
20:35:21.288,-0.41,-0.59
20:35:21.292,-0.41,-0.56
20:35:21.296,-0.405,-0.59
20:35:21.300,-0.41,-0.59
20:35:21.304,-0.42,-0.57
20:35:21.308,-0.435,-0.555
20:35:21.312,-0.425,-0.535
20:35:21.316,-0.435,-0.52
20:35:21.320,-0.435,-0.53
20:35:21.324,-0.42,-0.52
20:35:21.328,-0.42,-0.51
20:35:21.332,-0.395,-0.495
20:35:21.336,-0.395,-0.485
20:35:21.340,-0.4,-0.48
20:35:21.344,-0.41,-0.46
20:35:21.348,-0.38,-0.45
20:35:21.352,-0.355,-0.45
20:35:21.356,-0.34,-0.44
20:35:21.360,-0.34,-0.4
20:35:21.364,-0.32,-0.42
20:35:21.368,-0.31,-0.43
20:35:21.372,-0.31,-0.4
20:35:21.376,-0.31,-0.39
20:35:21.380,-0.3,-0.385
20:35:21.384,-0.295,-0.375
20:35:21.388,-0.295,-0.36
20:35:21.392,-0.31,-0.355
20:35:21.396,-0.32,-0.34
20:35:21.400,-0.31,-0.36
20:35:21.404,-0.305,-0.34
20:35:21.408,-0.315,-0.35
20:35:21.412,-0.32,-0.355
20:35:21.416,-0.31,-0.33
20:35:21.420,-0.3,-0.305
20:35:21.424,-0.315,-0.28
20:35:21.428,-0.3,-0.295
20:35:21.432,-0.295,-0.25
20:35:21.436,-0.265,-0.23
20:35:21.440,-0.26,-0.23
20:35:21.444,-0.25,-0.215
20:35:21.448,-0.215,-0.23
20:35:21.452,-0.185,-0.22
20:35:21.456,-0.2,-0.23
20:35:21.460,-0.21,-0.23
20:35:21.464,-0.19,-0.195
20:35:21.468,-0.195,-0.185
20:35:21.472,-0.22,-0.18
20:35:21.476,-0.23,-0.15
20:35:21.480,-0.24,-0.17
20:35:21.484,-0.22,-0.155
20:35:21.488,-0.235,-0.14
20:35:21.492,-0.26,-0.14
20:35:21.496,-0.255,-0.15
20:35:21.500,-0.26,-0.14
20:35:21.504,-0.27,-0.13
20:35:21.508,-0.285,-0.14
20:35:21.512,-0.29,-0.11
20:35:21.516,-0.305,-0.105
20:35:21.520,-0.31,-0.115
20:35:21.524,-0.34,-0.125
20:35:21.528,-0.36,-0.11
20:35:21.532,-0.37,-0.09
20:35:21.536,-0.36,-0.12
20:35:21.540,-0.375,-0.1
20:35:21.544,-0.37,-0.11
20:35:21.548,-0.37,-0.11
20:35:21.552,-0.36,-0.105
20:35:21.556,-0.335,-0.1
20:35:21.560,-0.335,-0.1
20:35:21.564,-0.33,-0.085
20:35:21.568,-0.345,-0.095
20:35:21.572,-0.33,-0.095
20:35:21.576,-0.35,-0.08
20:35:21.580,-0.335,-0.085
20:35:21.584,-0.35,-0.08
20:35:21.588,-0.315,-0.07
20:35:21.592,-0.315,-0.07
20:35:21.596,-0.285,-0.07
20:35:21.600,-0.295,-0.06
20:35:21.604,-0.3,-0.055
20:35:21.608,-0.3,-0.06
20:35:21.612,-0.285,-0.04
20:35:21.616,-0.27,-0.04
20:35:21.620,-0.265,-0.045
20:35:21.624,-0.245,-0.025
20:35:21.628,-0.25,-0.045
20:35:21.632,-0.25,0.0
20:35:21.636,-0.24,0.005
20:35:21.640,-0.27,0.0
20:35:21.644,-0.27,0.01
20:35:21.648,-0.28,0.0
20:35:21.652,-0.3,0.04
20:35:21.656,-0.305,0.04
20:35:21.660,-0.295,0.045
20:35:21.664,-0.305,0.04
20:35:21.668,-0.295,0.06
20:35:21.672,-0.315,0.05
20:35:21.676,-0.3,0.04
20:35:21.680,-0.31,0.025
20:35:21.684,-0.28,0.035
20:35:21.688,-0.255,0.02
20:35:21.692,-0.225,0.015
20:35:21.696,-0.24,-0.01
20:35:21.700,-0.245,-0.015
20:35:21.704,-0.265,-0.035
20:35:21.708,-0.26,-0.065
20:35:21.712,-0.28,-0.055
20:35:21.716,-0.29,-0.06
20:35:21.720,-0.29,-0.045
20:35:21.724,-0.3,-0.035
20:35:21.728,-0.32,-0.035
20:35:21.732,-0.32,-0.045
20:35:21.736,-0.34,-0.02
20:35:21.740,-0.37,-0.025
20:35:21.744,-0.375,-0.025
20:35:21.748,-0.37,-0.02
20:35:21.752,-0.385,0.0
20:35:21.756,-0.37,-0.005
20:35:21.760,-0.35,-0.005
20:35:21.764,-0.36,0.005
20:35:21.768,-0.365,-0.005
20:35:21.772,-0.34,-0.025
20:35:21.776,-0.36,-0.045
20:35:21.780,-0.345,-0.025
20:35:21.784,-0.335,-0.015
20:35:21.788,-0.325,-0.03
20:35:21.792,-0.32,-0.03
20:35:21.796,-0.31,-0.045
20:35:21.800,-0.29,-0.035
20:35:21.804,-0.275,-0.065
20:35:21.808,-0.265,-0.035
20:35:21.812,-0.235,-0.025
20:35:21.816,-0.19,-0.05
20:35:21.820,-0.095,-0.025
20:35:21.824,-0.005,-0.04
20:35:21.828,0.085,-0.065
20:35:21.832,0.155,-0.085
20:35:21.836,0.185,-0.115
20:35:21.840,0.225,-0.11
20:35:21.844,0.215,-0.11
20:35:21.848,0.2,-0.12
20:35:21.852,0.18,-0.18
20:35:21.856,0.255,-0.31
20:35:21.860,0.49,-0.47
20:35:21.864,0.81,-0.705
20:35:21.868,1.055,-0.98
20:35:21.872,1.12,-1.16
20:35:21.876,0.925,-1.15
20:35:21.880,0.475,-0.905
20:35:21.884,-0.015,-0.48
20:35:21.888,-0.26,-0.175
20:35:21.892,-0.365,0.0
20:35:21.896,-0.405,0.11
20:35:21.900,-0.405,0.17
20:35:21.904,-0.425,0.195
20:35:21.908,-0.43,0.2
20:35:21.912,-0.455,0.16
20:35:21.916,-0.475,0.14
20:35:21.920,-0.51,0.105
20:35:21.924,-0.53,0.095
20:35:21.928,-0.54,0.095
20:35:21.932,-0.565,0.09
20:35:21.936,-0.565,0.09
20:35:21.940,-0.605,0.1
20:35:21.944,-0.6,0.095
20:35:21.948,-0.575,0.065
20:35:21.952,-0.595,0.1
20:35:21.956,-0.595,0.08
20:35:21.960,-0.585,0.095
20:35:21.964,-0.6,0.085
20:35:21.968,-0.58,0.085
20:35:21.972,-0.555,0.08
20:35:21.976,-0.56,0.07
20:35:21.980,-0.57,0.075
20:35:21.984,-0.55,0.09
20:35:21.988,-0.57,0.075
20:35:21.992,-0.55,0.08
20:35:21.996,-0.55,0.06
20:35:22.000,-0.56,0.095
20:35:22.004,-0.565,0.09
20:35:22.008,-0.57,0.07
20:35:22.012,-0.57,0.08
20:35:22.016,-0.565,0.075
20:35:22.020,-0.555,0.085
20:35:22.024,-0.57,0.09
20:35:22.028,-0.57,0.09
20:35:22.032,-0.565,0.09
20:35:22.036,-0.55,0.075
20:35:22.040,-0.55,0.09
20:35:22.044,-0.545,0.105
20:35:22.048,-0.54,0.095
20:35:22.052,-0.55,0.125
20:35:22.056,-0.535,0.125
20:35:22.060,-0.5,0.135
20:35:22.064,-0.52,0.15
20:35:22.068,-0.5,0.17
20:35:22.072,-0.525,0.18
20:35:22.076,-0.54,0.18
20:35:22.080,-0.525,0.165
20:35:22.084,-0.55,0.155
20:35:22.088,-0.545,0.14
20:35:22.092,-0.54,0.155
20:35:22.096,-0.53,0.14
20:35:22.100,-0.55,0.125
20:35:22.104,-0.515,0.095
20:35:22.108,-0.52,0.055
20:35:22.112,-0.495,0.04
20:35:22.116,-0.48,0.035
20:35:22.120,-0.47,0.02
20:35:22.124,-0.465,0.0
20:35:22.128,-0.48,0.005
20:35:22.132,-0.46,-0.01
20:35:22.136,-0.455,-0.02
20:35:22.140,-0.46,-0.03
20:35:22.144,-0.465,-0.025
20:35:22.148,-0.47,-0.04
20:35:22.152,-0.48,-0.005
20:35:22.156,-0.465,-0.005
20:35:22.160,-0.445,-0.015
20:35:22.164,-0.46,-0.01
20:35:22.168,-0.435,0.0
20:35:22.172,-0.415,0.015
20:35:22.176,-0.4,0.0
20:35:22.180,-0.375,0.01
20:35:22.184,-0.335,0.02
20:35:22.188,-0.365,0.025
20:35:22.192,-0.35,0.025
20:35:22.196,-0.345,0.035
20:35:22.200,-0.355,0.035
20:35:22.204,-0.345,0.035
20:35:22.208,-0.335,0.035
20:35:22.212,-0.33,0.04
20:35:22.216,-0.335,0.055
20:35:22.220,-0.325,0.04
20:35:22.224,-0.325,0.045
20:35:22.228,-0.345,0.06
20:35:22.232,-0.36,0.05
20:35:22.236,-0.37,0.075
20:35:22.240,-0.375,0.08
20:35:22.244,-0.385,0.06
20:35:22.248,-0.395,0.06
20:35:22.252,-0.4,0.05
20:35:22.256,-0.395,0.07
20:35:22.260,-0.385,0.075
20:35:22.264,-0.4,0.085
20:35:22.268,-0.39,0.075
20:35:22.272,-0.39,0.085
20:35:22.276,-0.42,0.105
20:35:22.280,-0.43,0.085
20:35:22.284,-0.405,0.095
20:35:22.288,-0.425,0.1
20:35:22.292,-0.42,0.09
20:35:22.296,-0.41,0.115
20:35:22.300,-0.405,0.115
20:35:22.304,-0.395,0.125
20:35:22.308,-0.39,0.12
20:35:22.312,-0.4,0.12
20:35:22.316,-0.38,0.12
20:35:22.320,-0.34,0.1
20:35:22.324,-0.345,0.075
20:35:22.328,-0.37,0.1
20:35:22.332,-0.375,0.09
20:35:22.336,-0.37,0.07
20:35:22.340,-0.39,0.06
20:35:22.344,-0.415,0.035
20:35:22.348,-0.405,0.035
20:35:22.352,-0.415,0.015
20:35:22.356,-0.435,0.045
20:35:22.360,-0.425,0.025
20:35:22.364,-0.425,0.035
20:35:22.368,-0.42,0.025
20:35:22.372,-0.43,0.035
20:35:22.376,-0.44,0.025
20:35:22.380,-0.45,0.025
20:35:22.384,-0.425,0.015
20:35:22.388,-0.44,0.01
20:35:22.392,-0.42,0.01
20:35:22.396,-0.405,0.03
20:35:22.400,-0.395,0.035
20:35:22.404,-0.355,0.03
20:35:22.408,-0.345,0.025
20:35:22.412,-0.335,0.0
20:35:22.416,-0.33,0.005
20:35:22.420,-0.33,0.0
20:35:22.424,-0.32,0.015
20:35:22.428,-0.315,0.015
20:35:22.432,-0.31,0.01
20:35:22.436,-0.3,0.025
20:35:22.440,-0.31,0.03
20:35:22.444,-0.3,0.02
20:35:22.448,-0.3,0.005
20:35:22.452,-0.31,0.03
20:35:22.456,-0.32,0.03
20:35:22.460,-0.315,0.045
20:35:22.464,-0.31,0.04
20:35:22.468,-0.33,0.035
20:35:22.472,-0.32,0.04
20:35:22.476,-0.315,0.035
20:35:22.480,-0.305,0.07
20:35:22.484,-0.265,0.065
20:35:22.488,-0.205,0.06
20:35:22.492,-0.13,0.055
20:35:22.496,-0.055,0.075
20:35:22.500,0.0,0.045
20:35:22.504,0.02,0.02
20:35:22.508,0.035,-0.01
20:35:22.512,0.04,-0.04
20:35:22.516,0.03,-0.035
20:35:22.520,0.03,-0.09
20:35:22.524,0.085,-0.18
20:35:22.528,0.33,-0.345
20:35:22.532,0.63,-0.58
20:35:22.536,0.925,-0.87
20:35:22.540,1.08,-1.135
20:35:22.544,0.925,-1.21
20:35:22.548,0.505,-1.03
20:35:22.552,0.0,-0.645
20:35:22.556,-0.275,-0.275
20:35:22.560,-0.405,-0.07
20:35:22.564,-0.48,0.07
20:35:22.568,-0.505,0.14
20:35:22.572,-0.53,0.18
20:35:22.576,-0.565,0.17
20:35:22.580,-0.57,0.17
20:35:22.584,-0.56,0.175
20:35:22.588,-0.58,0.165
20:35:22.592,-0.57,0.155
20:35:22.596,-0.545,0.15
20:35:22.600,-0.555,0.125
20:35:22.604,-0.54,0.14
20:35:22.608,-0.545,0.14
20:35:22.612,-0.525,0.135
20:35:22.616,-0.525,0.13
20:35:22.620,-0.515,0.13
20:35:22.624,-0.52,0.15
20:35:22.628,-0.525,0.14
20:35:22.632,-0.51,0.165
20:35:22.636,-0.515,0.145
20:35:22.640,-0.48,0.15
20:35:22.644,-0.48,0.14
20:35:22.648,-0.485,0.14
20:35:22.652,-0.5,0.16
20:35:22.656,-0.495,0.14
20:35:22.660,-0.5,0.15
20:35:22.664,-0.49,0.16
20:35:22.668,-0.49,0.15
20:35:22.672,-0.49,0.17
20:35:22.676,-0.49,0.175
20:35:22.680,-0.49,0.175
20:35:22.684,-0.475,0.2
20:35:22.688,-0.49,0.175
20:35:22.692,-0.525,0.22
20:35:22.696,-0.53,0.22
20:35:22.700,-0.565,0.22
20:35:22.704,-0.56,0.21
20:35:22.708,-0.565,0.225
20:35:22.712,-0.565,0.22
20:35:22.716,-0.55,0.2
20:35:22.720,-0.56,0.215
20:35:22.724,-0.575,0.185
20:35:22.728,-0.575,0.2
20:35:22.732,-0.535,0.2
20:35:22.736,-0.54,0.16
20:35:22.740,-0.545,0.14
20:35:22.744,-0.555,0.13
20:35:22.748,-0.535,0.095
20:35:22.752,-0.565,0.11
20:35:22.756,-0.565,0.085
20:35:22.760,-0.52,0.08
20:35:22.764,-0.535,0.06
20:35:22.768,-0.54,0.095
20:35:22.772,-0.525,0.055
20:35:22.776,-0.515,0.06
20:35:22.780,-0.505,0.05
20:35:22.784,-0.485,0.055
20:35:22.788,-0.48,0.06
20:35:22.792,-0.455,0.04
20:35:22.796,-0.42,0.03
20:35:22.800,-0.405,0.02
20:35:22.804,-0.38,0.03
20:35:22.808,-0.36,0.025
20:35:22.812,-0.365,0.015
20:35:22.816,-0.375,0.03
20:35:22.820,-0.355,0.04
20:35:22.824,-0.33,0.04
20:35:22.828,-0.34,0.04
20:35:22.832,-0.33,0.04
20:35:22.836,-0.33,0.05
20:35:22.840,-0.315,0.04
20:35:22.844,-0.31,0.05
20:35:22.848,-0.29,0.055
20:35:22.852,-0.3,0.06
20:35:22.856,-0.3,0.095
20:35:22.860,-0.28,0.075
20:35:22.864,-0.285,0.095
20:35:22.868,-0.295,0.105
20:35:22.872,-0.295,0.1
20:35:22.876,-0.29,0.105
20:35:22.880,-0.295,0.12
20:35:22.884,-0.295,0.13
20:35:22.888,-0.305,0.135
20:35:22.892,-0.295,0.145
20:35:22.896,-0.295,0.16
20:35:22.900,-0.27,0.17
20:35:22.904,-0.28,0.205
20:35:22.908,-0.295,0.19
20:35:22.912,-0.315,0.18
20:35:22.916,-0.335,0.165
20:35:22.920,-0.355,0.175
20:35:22.924,-0.355,0.175
20:35:22.928,-0.37,0.17
20:35:22.932,-0.375,0.165
20:35:22.936,-0.355,0.15
20:35:22.940,-0.355,0.125
20:35:22.944,-0.33,0.125
20:35:22.948,-0.3,0.095
20:35:22.952,-0.275,0.075
20:35:22.956,-0.205,0.08
20:35:22.960,-0.145,0.06
20:35:22.964,-0.11,0.03
20:35:22.968,-0.065,0.005
20:35:22.972,-0.08,-0.02
20:35:22.976,-0.065,-0.07
20:35:22.980,-0.085,-0.05
20:35:22.984,-0.08,-0.07
20:35:22.988,-0.03,-0.135
20:35:22.992,0.17,-0.25
20:35:22.996,0.475,-0.445
20:35:23.000,0.81,-0.735
20:35:23.004,1.05,-1.0
20:35:23.008,1.03,-1.15
20:35:23.012,0.76,-1.1
20:35:23.016,0.29,-0.78
20:35:23.020,-0.08,-0.37
20:35:23.024,-0.305,-0.085
20:35:23.028,-0.4,0.085
20:35:23.032,-0.415,0.14
20:35:23.036,-0.425,0.16
20:35:23.040,-0.445,0.17
20:35:23.044,-0.48,0.175
20:35:23.048,-0.5,0.15
20:35:23.052,-0.47,0.15
20:35:23.056,-0.465,0.135
20:35:23.060,-0.48,0.085
20:35:23.064,-0.5,0.095
20:35:23.068,-0.505,0.095
20:35:23.072,-0.52,0.09
20:35:23.076,-0.515,0.095
20:35:23.080,-0.53,0.11
20:35:23.084,-0.53,0.115
20:35:23.088,-0.525,0.105
20:35:23.092,-0.51,0.105
20:35:23.096,-0.5,0.11
20:35:23.100,-0.525,0.105
20:35:23.104,-0.505,0.14
20:35:23.108,-0.505,0.135
20:35:23.112,-0.495,0.155
20:35:23.116,-0.51,0.165
20:35:23.120,-0.52,0.165
20:35:23.124,-0.53,0.165
20:35:23.128,-0.515,0.175
20:35:23.132,-0.515,0.165
20:35:23.136,-0.52,0.17
20:35:23.140,-0.545,0.13
20:35:23.144,-0.52,0.125
20:35:23.148,-0.55,0.12
20:35:23.152,-0.555,0.115
20:35:23.156,-0.58,0.115
20:35:23.160,-0.59,0.09
20:35:23.164,-0.63,0.06
20:35:23.168,-0.64,0.07
20:35:23.172,-0.62,0.06
20:35:23.176,-0.635,0.05
20:35:23.180,-0.635,0.05
20:35:23.184,-0.615,0.045
20:35:23.188,-0.6,0.065
20:35:23.192,-0.635,0.04
20:35:23.196,-0.63,0.025
20:35:23.200,-0.635,0.0
20:35:23.204,-0.61,0.005
20:35:23.208,-0.6,0.02
20:35:23.212,-0.585,0.005
20:35:23.216,-0.58,-0.025
20:35:23.220,-0.54,-0.025
20:35:23.224,-0.505,0.0
20:35:23.228,-0.485,-0.01
20:35:23.232,-0.45,-0.02
20:35:23.236,-0.4,-0.03
20:35:23.240,-0.4,-0.03
20:35:23.244,-0.39,-0.04
20:35:23.248,-0.37,-0.03
20:35:23.252,-0.365,-0.05
20:35:23.256,-0.375,-0.045
20:35:23.260,-0.36,-0.06
20:35:23.264,-0.355,-0.06
20:35:23.268,-0.335,-0.035
20:35:23.272,-0.32,-0.045
20:35:23.276,-0.33,-0.03
20:35:23.280,-0.345,-0.05
20:35:23.284,-0.335,-0.025
20:35:23.288,-0.34,-0.02
20:35:23.292,-0.33,-0.04
20:35:23.296,-0.33,-0.04
20:35:23.300,-0.34,-0.055
20:35:23.304,-0.335,-0.06
20:35:23.308,-0.32,-0.055
20:35:23.312,-0.305,-0.07
20:35:23.316,-0.305,-0.055
20:35:23.320,-0.26,-0.065
20:35:23.324,-0.24,-0.07
20:35:23.328,-0.235,-0.09
20:35:23.332,-0.275,-0.115
20:35:23.336,-0.255,-0.1
20:35:23.340,-0.28,-0.11
20:35:23.344,-0.285,-0.13
20:35:23.348,-0.27,-0.12
20:35:23.352,-0.285,-0.12
20:35:23.356,-0.275,-0.13
20:35:23.360,-0.285,-0.145
20:35:23.364,-0.28,-0.16
20:35:23.368,-0.265,-0.145
20:35:23.372,-0.27,-0.165
20:35:23.376,-0.26,-0.195
20:35:23.380,-0.24,-0.205
20:35:23.384,-0.17,-0.19
20:35:23.388,-0.125,-0.19
20:35:23.392,-0.045,-0.225
20:35:23.396,0.01,-0.255
20:35:23.400,0.08,-0.315
20:35:23.404,0.11,-0.31
20:35:23.408,0.175,-0.32
20:35:23.412,0.21,-0.32
20:35:23.416,0.215,-0.345
20:35:23.420,0.275,-0.4
20:35:23.424,0.47,-0.54
20:35:23.428,0.77,-0.71
20:35:23.432,1.04,-0.96
20:35:23.436,1.09,-1.17
20:35:23.440,0.89,-1.225
20:35:23.444,0.46,-1.035
20:35:23.448,0.045,-0.725
20:35:23.452,-0.215,-0.46
20:35:23.456,-0.32,-0.345
20:35:23.460,-0.34,-0.24
20:35:23.464,-0.35,-0.165
20:35:23.468,-0.34,-0.115
20:35:23.472,-0.375,-0.105
20:35:23.476,-0.42,-0.1
20:35:23.480,-0.44,-0.125
20:35:23.484,-0.43,-0.145
20:35:23.488,-0.45,-0.16
20:35:23.492,-0.46,-0.16
20:35:23.496,-0.46,-0.19
20:35:23.500,-0.47,-0.22
20:35:23.504,-0.475,-0.19
20:35:23.508,-0.45,-0.175
20:35:23.512,-0.45,-0.18
20:35:23.516,-0.435,-0.165
20:35:23.520,-0.46,-0.2
20:35:23.524,-0.46,-0.215
20:35:23.528,-0.475,-0.215
20:35:23.532,-0.44,-0.215
20:35:23.536,-0.42,-0.235
20:35:23.540,-0.415,-0.245
20:35:23.544,-0.4,-0.235
20:35:23.548,-0.415,-0.235
20:35:23.552,-0.435,-0.225
20:35:23.556,-0.46,-0.225
20:35:23.560,-0.475,-0.25
20:35:23.564,-0.48,-0.25
20:35:23.568,-0.49,-0.255
20:35:23.572,-0.5,-0.23
20:35:23.576,-0.5,-0.255
20:35:23.580,-0.505,-0.23
20:35:23.584,-0.53,-0.245
20:35:23.588,-0.53,-0.28
20:35:23.592,-0.54,-0.27
20:35:23.596,-0.535,-0.285
20:35:23.600,-0.555,-0.265
20:35:23.604,-0.565,-0.285
20:35:23.608,-0.56,-0.29
20:35:23.612,-0.53,-0.28
20:35:23.616,-0.525,-0.29
20:35:23.620,-0.515,-0.29
20:35:23.624,-0.5,-0.305
20:35:23.628,-0.47,-0.315
20:35:23.632,-0.49,-0.34
20:35:23.636,-0.49,-0.355
20:35:23.640,-0.48,-0.355
20:35:23.644,-0.455,-0.39
20:35:23.648,-0.425,-0.39
20:35:23.652,-0.39,-0.38
20:35:23.656,-0.365,-0.415
20:35:23.660,-0.355,-0.415
20:35:23.664,-0.35,-0.43
20:35:23.668,-0.335,-0.42
20:35:23.672,-0.335,-0.43
20:35:23.676,-0.335,-0.45
20:35:23.680,-0.32,-0.44
20:35:23.684,-0.295,-0.445
20:35:23.688,-0.29,-0.445
20:35:23.692,-0.285,-0.46
20:35:23.696,-0.255,-0.45
20:35:23.700,-0.26,-0.455
20:35:23.704,-0.24,-0.455
20:35:23.708,-0.245,-0.45
20:35:23.712,-0.22,-0.48
20:35:23.716,-0.23,-0.455
20:35:23.720,-0.2,-0.465
20:35:23.724,-0.235,-0.45
20:35:23.728,-0.205,-0.455
20:35:23.732,-0.195,-0.445
20:35:23.736,-0.19,-0.455
20:35:23.740,-0.175,-0.465
20:35:23.744,-0.145,-0.475
20:35:23.748,-0.135,-0.455
20:35:23.752,-0.15,-0.45
20:35:23.756,-0.155,-0.45
20:35:23.760,-0.17,-0.44
20:35:23.764,-0.15,-0.42
20:35:23.768,-0.195,-0.43
20:35:23.772,-0.195,-0.42
20:35:23.776,-0.195,-0.44
20:35:23.780,-0.205,-0.43
20:35:23.784,-0.225,-0.425
20:35:23.788,-0.24,-0.44
20:35:23.792,-0.27,-0.43
20:35:23.796,-0.255,-0.42
20:35:23.800,-0.28,-0.445
20:35:23.804,-0.285,-0.43
20:35:23.808,-0.29,-0.46
20:35:23.812,-0.27,-0.445
20:35:23.816,-0.28,-0.44
20:35:23.820,-0.275,-0.43
20:35:23.824,-0.275,-0.425
20:35:23.828,-0.255,-0.425
20:35:23.832,-0.24,-0.41
20:35:23.836,-0.25,-0.415
20:35:23.840,-0.24,-0.42
20:35:23.844,-0.235,-0.415
20:35:23.848,-0.235,-0.4
20:35:23.852,-0.22,-0.41
20:35:23.856,-0.215,-0.38
20:35:23.860,-0.215,-0.39
20:35:23.864,-0.21,-0.395
20:35:23.868,-0.22,-0.39
20:35:23.872,-0.23,-0.39
20:35:23.876,-0.22,-0.365
20:35:23.880,-0.215,-0.37
20:35:23.884,-0.195,-0.37
20:35:23.888,-0.215,-0.36
20:35:23.892,-0.195,-0.345
20:35:23.896,-0.21,-0.335
20:35:23.900,-0.22,-0.335
20:35:23.904,-0.22,-0.34
20:35:23.908,-0.24,-0.32
20:35:23.912,-0.235,-0.335
20:35:23.916,-0.225,-0.325
20:35:23.920,-0.24,-0.3
20:35:23.924,-0.21,-0.3
20:35:23.928,-0.195,-0.295
20:35:23.932,-0.18,-0.295
20:35:23.936,-0.165,-0.27
20:35:23.940,-0.15,-0.275
20:35:23.944,-0.205,-0.26
20:35:23.948,-0.205,-0.23
20:35:23.952,-0.19,-0.23
20:35:23.956,-0.2,-0.24
20:35:23.960,-0.19,-0.25
20:35:23.964,-0.185,-0.225
20:35:23.968,-0.135,-0.245
20:35:23.972,-0.145,-0.26
20:35:23.976,-0.145,-0.275
20:35:23.980,-0.175,-0.255
20:35:23.984,-0.195,-0.28
20:35:23.988,-0.23,-0.3
20:35:23.992,-0.25,-0.3
20:35:23.996,-0.285,-0.305
20:35:24.000,-0.295,-0.295
20:35:24.004,-0.295,-0.305
20:35:24.008,-0.285,-0.31
20:35:24.012,-0.315,-0.305
20:35:24.016,-0.33,-0.32
20:35:24.020,-0.355,-0.285
20:35:24.024,-0.33,-0.275
20:35:24.028,-0.38,-0.29
20:35:24.032,-0.385,-0.27
20:35:24.036,-0.37,-0.26
20:35:24.040,-0.38,-0.265
20:35:24.044,-0.36,-0.24
20:35:24.048,-0.375,-0.23
20:35:24.052,-0.34,-0.235
20:35:24.056,-0.32,-0.225
20:35:24.060,-0.32,-0.225
20:35:24.064,-0.32,-0.235
20:35:24.068,-0.31,-0.2
20:35:24.072,-0.31,-0.195
20:35:24.076,-0.3,-0.195
20:35:24.080,-0.28,-0.19
20:35:24.084,-0.285,-0.18
20:35:24.088,-0.305,-0.175
20:35:24.092,-0.285,-0.17
20:35:24.096,-0.29,-0.15
20:35:24.100,-0.285,-0.16
20:35:24.104,-0.285,-0.16
20:35:24.108,-0.285,-0.16
20:35:24.112,-0.295,-0.15
20:35:24.116,-0.28,-0.14
20:35:24.120,-0.27,-0.13
20:35:24.124,-0.275,-0.145
20:35:24.128,-0.25,-0.15
20:35:24.132,-0.265,-0.155
20:35:24.136,-0.24,-0.14
20:35:24.140,-0.235,-0.135
20:35:24.144,-0.23,-0.145
20:35:24.148,-0.215,-0.115
20:35:24.152,-0.24,-0.105
20:35:24.156,-0.22,-0.065
20:35:24.160,-0.225,-0.085
20:35:24.164,-0.225,-0.085
20:35:24.168,-0.2,-0.07
20:35:24.172,-0.215,-0.075
20:35:24.176,-0.2,-0.06
20:35:24.180,-0.185,-0.06
20:35:24.184,-0.155,-0.035
20:35:24.188,-0.085,-0.06
20:35:24.192,0.0,-0.07
20:35:24.196,0.095,-0.07
20:35:24.200,0.165,-0.085
20:35:24.204,0.22,-0.14
20:35:24.208,0.24,-0.195
20:35:24.212,0.245,-0.24
20:35:24.216,0.24,-0.225
20:35:24.220,0.225,-0.24
20:35:24.224,0.21,-0.33
20:35:24.228,0.265,-0.435
20:35:24.232,0.475,-0.63
20:35:24.236,0.77,-0.86
20:35:24.240,1.065,-1.105
20:35:24.244,1.16,-1.32
20:35:24.248,1.015,-1.375
20:35:24.252,0.575,-1.18
20:35:24.256,0.105,-0.78
20:35:24.260,-0.16,-0.43
20:35:24.264,-0.305,-0.225
20:35:24.268,-0.35,-0.105
20:35:24.272,-0.38,-0.015
20:35:24.276,-0.39,0.005
20:35:24.280,-0.41,0.04
20:35:24.284,-0.41,0.04
20:35:24.288,-0.42,0.035
20:35:24.292,-0.45,0.035
20:35:24.296,-0.45,0.02
20:35:24.300,-0.465,0.01
20:35:24.304,-0.48,0.0
20:35:24.308,-0.47,0.0
20:35:24.312,-0.465,-0.005
20:35:24.316,-0.445,0.015
20:35:24.320,-0.455,0.015
20:35:24.324,-0.465,0.015
20:35:24.328,-0.45,0.0
20:35:24.332,-0.47,0.025
20:35:24.336,-0.46,0.04
20:35:24.340,-0.465,0.045
20:35:24.344,-0.48,0.06
20:35:24.348,-0.465,0.07
20:35:24.352,-0.46,0.06
20:35:24.356,-0.46,0.09
20:35:24.360,-0.47,0.035
20:35:24.364,-0.475,0.06
20:35:24.368,-0.49,0.065
20:35:24.372,-0.48,0.06
20:35:24.376,-0.5,0.065
20:35:24.380,-0.485,0.075
20:35:24.384,-0.52,0.06
20:35:24.388,-0.505,0.085
20:35:24.392,-0.515,0.09
20:35:24.396,-0.5,0.05
20:35:24.400,-0.465,0.04
20:35:24.404,-0.44,0.035
20:35:24.408,-0.46,0.02
20:35:24.412,-0.46,0.03
20:35:24.416,-0.45,0.01
20:35:24.420,-0.48,0.025
20:35:24.424,-0.48,0.015
20:35:24.428,-0.46,0.005
20:35:24.432,-0.455,0.01
20:35:24.436,-0.475,0.01
20:35:24.440,-0.465,0.0
20:35:24.444,-0.475,0.005
20:35:24.448,-0.475,0.02
20:35:24.452,-0.475,0.02
20:35:24.456,-0.48,0.015
20:35:24.460,-0.475,0.03
20:35:24.464,-0.465,-0.015
20:35:24.468,-0.455,-0.02
20:35:24.472,-0.445,-0.025
20:35:24.476,-0.44,-0.015
20:35:24.480,-0.415,-0.005
20:35:24.484,-0.39,-0.025
20:35:24.488,-0.395,-0.035
20:35:24.492,-0.365,-0.015
20:35:24.496,-0.36,-0.02
20:35:24.500,-0.355,-0.03
20:35:24.504,-0.33,-0.03
20:35:24.508,-0.325,-0.04
20:35:24.512,-0.315,-0.05
20:35:24.516,-0.29,-0.04
20:35:24.520,-0.27,-0.04
20:35:24.524,-0.265,-0.045
20:35:24.528,-0.26,-0.02
20:35:24.532,-0.22,-0.02
20:35:24.536,-0.21,0.0
20:35:24.540,-0.21,0.02
20:35:24.544,-0.205,0.02
20:35:24.548,-0.17,0.035
20:35:24.552,-0.17,0.03
20:35:24.556,-0.19,0.025
20:35:24.560,-0.185,0.035
20:35:24.564,-0.19,0.02
20:35:24.568,-0.21,0.055
20:35:24.572,-0.24,0.055
20:35:24.576,-0.25,0.045
20:35:24.580,-0.245,0.065
20:35:24.584,-0.265,0.06
20:35:24.588,-0.28,0.05
20:35:24.592,-0.295,0.06
20:35:24.596,-0.3,0.075
20:35:24.600,-0.29,0.065
20:35:24.604,-0.305,0.05
20:35:24.608,-0.26,0.0
20:35:24.612,-0.255,-0.005
20:35:24.616,-0.25,-0.025
20:35:24.620,-0.245,-0.025
20:35:24.624,-0.245,-0.025
20:35:24.628,-0.24,-0.05
20:35:24.632,-0.23,-0.02
20:35:24.636,-0.235,-0.025
20:35:24.640,-0.24,-0.035
20:35:24.644,-0.235,-0.02
20:35:24.648,-0.255,-0.025
20:35:24.652,-0.265,0.015
20:35:24.656,-0.27,-0.005
20:35:24.660,-0.27,0.0
20:35:24.664,-0.295,-0.005
20:35:24.668,-0.285,-0.005
20:35:24.672,-0.28,-0.02
20:35:24.676,-0.275,-0.01
20:35:24.680,-0.285,-0.005
20:35:24.684,-0.28,-0.015
20:35:24.688,-0.28,-0.015
20:35:24.692,-0.25,-0.015
20:35:24.696,-0.26,-0.01
20:35:24.700,-0.275,-0.02
20:35:24.704,-0.25,-0.03
20:35:24.708,-0.24,-0.025
20:35:24.712,-0.24,-0.03
20:35:24.716,-0.23,-0.02
20:35:24.720,-0.225,0.0
20:35:24.724,-0.225,-0.01
20:35:24.728,-0.22,-0.025
20:35:24.732,-0.21,-0.02
20:35:24.736,-0.165,0.0
20:35:24.740,-0.14,0.0
20:35:24.744,-0.105,0.01
20:35:24.748,-0.13,0.03
20:35:24.752,-0.095,0.035
20:35:24.756,-0.07,0.04
20:35:24.760,-0.045,0.045
20:35:24.764,0.0,0.05
20:35:24.768,0.055,0.06
20:35:24.772,0.13,0.055
20:35:24.776,0.17,0.03
20:35:24.780,0.215,-0.02
20:35:24.784,0.21,-0.05
20:35:24.788,0.21,-0.055
20:35:24.792,0.19,-0.06
20:35:24.796,0.145,-0.1
20:35:24.800,0.155,-0.21
20:35:24.804,0.335,-0.34
20:35:24.808,0.63,-0.565
20:35:24.812,0.95,-0.87
20:35:24.816,1.1,-1.115
20:35:24.820,1.03,-1.21
20:35:24.824,0.675,-1.09
20:35:24.828,0.19,-0.755
20:35:24.832,-0.125,-0.38
20:35:24.836,-0.285,-0.175
20:35:24.840,-0.32,-0.04
20:35:24.844,-0.36,0.045
20:35:24.848,-0.395,0.095
20:35:24.852,-0.405,0.125
20:35:24.856,-0.435,0.09
20:35:24.860,-0.435,0.095
20:35:24.864,-0.45,0.095
20:35:24.868,-0.46,0.065
20:35:24.872,-0.47,0.06
20:35:24.876,-0.48,0.055
20:35:24.880,-0.485,0.055
20:35:24.884,-0.485,0.07
20:35:24.888,-0.465,0.06
20:35:24.892,-0.48,0.08
20:35:24.896,-0.475,0.08
20:35:24.900,-0.485,0.055
20:35:24.904,-0.49,0.075
20:35:24.908,-0.515,0.07
20:35:24.912,-0.515,0.05
20:35:24.916,-0.51,0.055
20:35:24.920,-0.505,0.065
20:35:24.924,-0.51,0.075
20:35:24.928,-0.5,0.055
20:35:24.932,-0.525,0.06
20:35:24.936,-0.48,0.07
20:35:24.940,-0.48,0.08
20:35:24.944,-0.445,0.06
20:35:24.948,-0.45,0.065
20:35:24.952,-0.435,0.075
20:35:24.956,-0.425,0.085
20:35:24.960,-0.425,0.085
20:35:24.964,-0.43,0.11
20:35:24.968,-0.435,0.13
20:35:24.972,-0.44,0.145
20:35:24.976,-0.4,0.155
20:35:24.980,-0.4,0.145
20:35:24.984,-0.39,0.13
20:35:24.988,-0.375,0.145
20:35:24.992,-0.385,0.15
20:35:24.996,-0.385,0.145
20:35:25.000,-0.39,0.14
20:35:25.004,-0.405,0.145
20:35:25.008,-0.41,0.145
20:35:25.012,-0.425,0.13
20:35:25.016,-0.42,0.14
20:35:25.020,-0.41,0.13
20:35:25.024,-0.42,0.085
20:35:25.028,-0.39,0.08
20:35:25.032,-0.375,0.03
20:35:25.036,-0.365,0.015
20:35:25.040,-0.375,0.01
20:35:25.044,-0.365,-0.035
20:35:25.048,-0.36,-0.01
20:35:25.052,-0.34,-0.025
20:35:25.056,-0.35,-0.025
20:35:25.060,-0.35,-0.06
20:35:25.064,-0.34,-0.06
20:35:25.068,-0.345,-0.06
20:35:25.072,-0.33,-0.045
20:35:25.076,-0.34,-0.05
20:35:25.080,-0.32,-0.055
20:35:25.084,-0.335,-0.055
20:35:25.088,-0.32,-0.05
20:35:25.092,-0.31,-0.035
20:35:25.096,-0.3,-0.04
20:35:25.100,-0.285,-0.03
20:35:25.104,-0.29,-0.03
20:35:25.108,-0.29,-0.025
20:35:25.112,-0.275,-0.015
20:35:25.116,-0.28,-0.015
20:35:25.120,-0.26,0.0
20:35:25.124,-0.28,0.0
20:35:25.128,-0.29,0.005
20:35:25.132,-0.3,-0.015
20:35:25.136,-0.285,0.0
20:35:25.140,-0.29,-0.02
20:35:25.144,-0.29,0.01
20:35:25.148,-0.29,-0.01
20:35:25.152,-0.265,0.02
20:35:25.156,-0.255,-0.015
20:35:25.160,-0.25,0.02
20:35:25.164,-0.245,0.0
20:35:25.168,-0.265,0.01
20:35:25.172,-0.275,0.03
20:35:25.176,-0.26,0.055
20:35:25.180,-0.265,0.06
20:35:25.184,-0.275,0.045
20:35:25.188,-0.275,0.055
20:35:25.192,-0.285,0.07
20:35:25.196,-0.28,0.07
20:35:25.200,-0.29,0.05
20:35:25.204,-0.275,0.05
20:35:25.208,-0.265,0.06
20:35:25.212,-0.295,0.045
20:35:25.216,-0.29,0.055
20:35:25.220,-0.3,0.06
20:35:25.224,-0.285,0.045
20:35:25.228,-0.24,0.055
20:35:25.232,-0.175,0.045
20:35:25.236,-0.085,0.03
20:35:25.240,-0.02,0.025
20:35:25.244,0.05,0.01
20:35:25.248,0.085,-0.04
20:35:25.252,0.075,-0.11
20:35:25.256,0.045,-0.15
20:35:25.260,0.025,-0.16
20:35:25.264,0.005,-0.215
20:35:25.268,0.06,-0.31
20:35:25.272,0.27,-0.435
20:35:25.276,0.58,-0.675
20:35:25.280,0.885,-0.96
20:35:25.284,1.045,-1.2
20:35:25.288,0.965,-1.3
20:35:25.292,0.62,-1.155
20:35:25.296,0.095,-0.735
20:35:25.300,-0.22,-0.39
20:35:25.304,-0.385,-0.13
20:35:25.308,-0.435,-0.025
20:35:25.312,-0.44,0.015
20:35:25.316,-0.46,0.055
20:35:25.320,-0.455,0.07
20:35:25.324,-0.445,0.055
20:35:25.328,-0.44,0.065
20:35:25.332,-0.44,0.065
20:35:25.336,-0.45,0.055
20:35:25.340,-0.435,0.04
20:35:25.344,-0.46,0.035
20:35:25.348,-0.435,0.03
20:35:25.352,-0.425,0.035
20:35:25.356,-0.41,0.025
20:35:25.360,-0.39,0.02
20:35:25.364,-0.415,0.04
20:35:25.368,-0.425,0.05
20:35:25.372,-0.42,0.085
20:35:25.376,-0.42,0.085
20:35:25.380,-0.435,0.08
20:35:25.384,-0.43,0.085
20:35:25.388,-0.44,0.085
20:35:25.392,-0.44,0.09
20:35:25.396,-0.45,0.08
20:35:25.400,-0.48,0.09
20:35:25.404,-0.49,0.09
20:35:25.408,-0.48,0.12
20:35:25.412,-0.48,0.095
20:35:25.416,-0.505,0.11
20:35:25.420,-0.54,0.12
20:35:25.424,-0.54,0.115
20:35:25.428,-0.525,0.1
20:35:25.432,-0.525,0.115
20:35:25.436,-0.525,0.105
20:35:25.440,-0.505,0.13
20:35:25.444,-0.5,0.12
20:35:25.448,-0.485,0.12
20:35:25.452,-0.46,0.135
20:35:25.456,-0.455,0.135
20:35:25.460,-0.445,0.155
20:35:25.464,-0.455,0.14
20:35:25.468,-0.455,0.115
20:35:25.472,-0.455,0.105
20:35:25.476,-0.465,0.115
20:35:25.480,-0.455,0.095
20:35:25.484,-0.44,0.06
20:35:25.488,-0.455,0.09
20:35:25.492,-0.45,0.055
20:35:25.496,-0.47,0.08
20:35:25.500,-0.455,0.06
20:35:25.504,-0.45,0.055
20:35:25.508,-0.425,0.04
20:35:25.512,-0.41,0.025
20:35:25.516,-0.37,-0.01
20:35:25.520,-0.38,0.02
20:35:25.524,-0.385,0.03
20:35:25.528,-0.36,0.035
20:35:25.532,-0.35,0.025
20:35:25.536,-0.35,0.035
20:35:25.540,-0.3,0.045
20:35:25.544,-0.305,0.06
20:35:25.548,-0.28,0.04
20:35:25.552,-0.29,0.04
20:35:25.556,-0.265,0.035
20:35:25.560,-0.245,0.035
20:35:25.564,-0.225,0.05
20:35:25.568,-0.215,0.07
20:35:25.572,-0.215,0.055
20:35:25.576,-0.22,0.07
20:35:25.580,-0.22,0.09
20:35:25.584,-0.23,0.11
20:35:25.588,-0.215,0.12
20:35:25.592,-0.22,0.135
20:35:25.596,-0.23,0.15
20:35:25.600,-0.23,0.135
20:35:25.604,-0.245,0.125
20:35:25.608,-0.25,0.1
20:35:25.612,-0.29,0.115
20:35:25.616,-0.305,0.11
20:35:25.620,-0.305,0.09
20:35:25.624,-0.315,0.075
20:35:25.628,-0.315,0.085
20:35:25.632,-0.345,0.075
20:35:25.636,-0.35,0.065
20:35:25.640,-0.37,0.05
20:35:25.644,-0.345,0.06
20:35:25.648,-0.35,0.04
20:35:25.652,-0.32,0.05
20:35:25.656,-0.255,0.015
20:35:25.660,-0.235,0.005
20:35:25.664,-0.22,-0.005
20:35:25.668,-0.225,-0.035
20:35:25.672,-0.22,-0.04
20:35:25.676,-0.22,-0.015
20:35:25.680,-0.235,-0.045
20:35:25.684,-0.215,-0.04
20:35:25.688,-0.225,-0.05
20:35:25.692,-0.24,-0.055
20:35:25.696,-0.26,-0.055
20:35:25.700,-0.26,-0.045
20:35:25.704,-0.25,-0.08
20:35:25.708,-0.255,-0.07
20:35:25.712,-0.21,-0.105
20:35:25.716,-0.17,-0.105
20:35:25.720,-0.105,-0.115
20:35:25.724,-0.02,-0.145
20:35:25.728,0.055,-0.15
20:35:25.732,0.125,-0.17
20:35:25.736,0.18,-0.22
20:35:25.740,0.205,-0.245
20:35:25.744,0.245,-0.225
20:35:25.748,0.255,-0.235
20:35:25.752,0.255,-0.265
20:35:25.756,0.335,-0.365
20:35:25.760,0.52,-0.48
20:35:25.764,0.84,-0.705
20:35:25.768,1.12,-0.96
20:35:25.772,1.215,-1.135
20:35:25.776,1.035,-1.2
20:35:25.780,0.595,-0.99
20:35:25.784,0.145,-0.62
20:35:25.788,-0.085,-0.33
20:35:25.792,-0.185,-0.175
20:35:25.796,-0.22,-0.06
20:35:25.800,-0.25,0.01
20:35:25.804,-0.265,0.055
20:35:25.808,-0.31,0.045
20:35:25.812,-0.355,0.025
20:35:25.816,-0.4,0.005
20:35:25.820,-0.4,0.0
20:35:25.824,-0.415,0.0
20:35:25.828,-0.44,-0.02
20:35:25.832,-0.465,-0.035
20:35:25.836,-0.485,-0.055
20:35:25.840,-0.48,-0.055
20:35:25.844,-0.49,-0.055
20:35:25.848,-0.51,-0.05
20:35:25.852,-0.49,-0.07
20:35:25.856,-0.48,-0.07
20:35:25.860,-0.48,-0.06
20:35:25.864,-0.475,-0.075
20:35:25.868,-0.46,-0.095
20:35:25.872,-0.46,-0.11
20:35:25.876,-0.435,-0.13
20:35:25.880,-0.435,-0.145
20:35:25.884,-0.455,-0.145
20:35:25.888,-0.45,-0.16
20:35:25.892,-0.45,-0.17
20:35:25.896,-0.48,-0.16
20:35:25.900,-0.485,-0.175
20:35:25.904,-0.48,-0.19
20:35:25.908,-0.505,-0.165
20:35:25.912,-0.5,-0.17
20:35:25.916,-0.5,-0.175
20:35:25.920,-0.47,-0.175
20:35:25.924,-0.49,-0.17
20:35:25.928,-0.475,-0.18
20:35:25.932,-0.495,-0.2
20:35:25.936,-0.5,-0.21
20:35:25.940,-0.495,-0.195
20:35:25.944,-0.5,-0.195
20:35:25.948,-0.49,-0.22
20:35:25.952,-0.48,-0.205
20:35:25.956,-0.49,-0.22
20:35:25.960,-0.48,-0.215
20:35:25.964,-0.46,-0.245
20:35:25.968,-0.445,-0.235
20:35:25.972,-0.45,-0.24
20:35:25.976,-0.43,-0.25
20:35:25.980,-0.415,-0.255
20:35:25.984,-0.37,-0.26
20:35:25.988,-0.35,-0.26
20:35:25.992,-0.33,-0.295
20:35:25.996,-0.33,-0.27
20:35:26.000,-0.315,-0.27
20:35:26.004,-0.295,-0.255
20:35:26.008,-0.275,-0.245
20:35:26.012,-0.275,-0.255
20:35:26.016,-0.265,-0.27
20:35:26.020,-0.285,-0.29
20:35:26.024,-0.265,-0.26
20:35:26.028,-0.28,-0.28
20:35:26.032,-0.29,-0.27
20:35:26.036,-0.28,-0.27
20:35:26.040,-0.285,-0.265
20:35:26.044,-0.31,-0.27
20:35:26.048,-0.305,-0.305
20:35:26.052,-0.275,-0.3
20:35:26.056,-0.275,-0.315
20:35:26.060,-0.285,-0.32
20:35:26.064,-0.28,-0.335
20:35:26.068,-0.27,-0.325
20:35:26.072,-0.28,-0.34
20:35:26.076,-0.26,-0.37
20:35:26.080,-0.255,-0.375
20:35:26.084,-0.25,-0.41
20:35:26.088,-0.245,-0.44
20:35:26.092,-0.255,-0.435
20:35:26.096,-0.245,-0.435
20:35:26.100,-0.25,-0.44
20:35:26.104,-0.235,-0.44
20:35:26.108,-0.24,-0.46
20:35:26.112,-0.23,-0.475
20:35:26.116,-0.21,-0.465
20:35:26.120,-0.22,-0.505
20:35:26.124,-0.23,-0.49
20:35:26.128,-0.215,-0.505
20:35:26.132,-0.2,-0.535
20:35:26.136,-0.21,-0.555
20:35:26.140,-0.22,-0.54
20:35:26.144,-0.225,-0.55
20:35:26.148,-0.225,-0.56
20:35:26.152,-0.22,-0.565
20:35:26.156,-0.225,-0.6
20:35:26.160,-0.235,-0.575
20:35:26.164,-0.245,-0.565
20:35:26.168,-0.23,-0.6
20:35:26.172,-0.24,-0.61
20:35:26.176,-0.22,-0.645
20:35:26.180,-0.22,-0.675
20:35:26.184,-0.235,-0.655
20:35:26.188,-0.245,-0.67
20:35:26.192,-0.23,-0.675
20:35:26.196,-0.215,-0.67
20:35:26.200,-0.2,-0.675
20:35:26.204,-0.195,-0.67
20:35:26.208,-0.18,-0.7
20:35:26.212,-0.22,-0.675
20:35:26.216,-0.205,-0.67
20:35:26.220,-0.22,-0.665
20:35:26.224,-0.185,-0.67
20:35:26.228,-0.145,-0.685
20:35:26.232,-0.105,-0.665
20:35:26.236,-0.025,-0.67
20:35:26.240,0.055,-0.69
20:35:26.244,0.145,-0.69
20:35:26.248,0.22,-0.76
20:35:26.252,0.265,-0.775
20:35:26.256,0.325,-0.765
20:35:26.260,0.35,-0.77
20:35:26.264,0.34,-0.795
20:35:26.268,0.365,-0.82
20:35:26.272,0.53,-0.89
20:35:26.276,0.79,-1.1
20:35:26.280,1.09,-1.345
20:35:26.284,1.205,-1.59
20:35:26.288,1.075,-1.725
20:35:26.292,0.66,-1.63
20:35:26.296,0.16,-1.325
20:35:26.300,-0.15,-1.03
20:35:26.304,-0.26,-0.86
20:35:26.308,-0.285,-0.78
20:35:26.312,-0.335,-0.685
20:35:26.316,-0.345,-0.61
20:35:26.320,-0.37,-0.58
20:35:26.324,-0.4,-0.595
20:35:26.328,-0.425,-0.605
20:35:26.332,-0.435,-0.605
20:35:26.336,-0.445,-0.595
20:35:26.340,-0.43,-0.605
20:35:26.344,-0.435,-0.61
20:35:26.348,-0.445,-0.61
20:35:26.352,-0.44,-0.615
20:35:26.356,-0.445,-0.59
20:35:26.360,-0.41,-0.58
20:35:26.364,-0.42,-0.575
20:35:26.368,-0.425,-0.575
20:35:26.372,-0.42,-0.555
20:35:26.376,-0.43,-0.535
20:35:26.380,-0.425,-0.53
20:35:26.384,-0.435,-0.525
20:35:26.388,-0.455,-0.48
20:35:26.392,-0.47,-0.48
20:35:26.396,-0.445,-0.445
20:35:26.400,-0.46,-0.435
20:35:26.404,-0.47,-0.42
20:35:26.408,-0.465,-0.405
20:35:26.412,-0.485,-0.39
20:35:26.416,-0.505,-0.37
20:35:26.420,-0.53,-0.38
20:35:26.424,-0.525,-0.365
20:35:26.428,-0.545,-0.365
20:35:26.432,-0.555,-0.355
20:35:26.436,-0.565,-0.33
20:35:26.440,-0.585,-0.34
20:35:26.444,-0.575,-0.32
20:35:26.448,-0.57,-0.305
20:35:26.452,-0.555,-0.29
20:35:26.456,-0.58,-0.275
20:35:26.460,-0.575,-0.305
20:35:26.464,-0.57,-0.28
20:35:26.468,-0.54,-0.26
20:35:26.472,-0.53,-0.245
20:35:26.476,-0.5,-0.265
20:35:26.480,-0.47,-0.26
20:35:26.484,-0.445,-0.265
20:35:26.488,-0.44,-0.255
20:35:26.492,-0.41,-0.24
20:35:26.496,-0.4,-0.24
20:35:26.500,-0.39,-0.265
20:35:26.504,-0.395,-0.265
20:35:26.508,-0.38,-0.285
20:35:26.512,-0.365,-0.27
20:35:26.516,-0.375,-0.27
20:35:26.520,-0.35,-0.265
20:35:26.524,-0.32,-0.285
20:35:26.528,-0.335,-0.265
20:35:26.532,-0.34,-0.255
20:35:26.536,-0.305,-0.245
20:35:26.540,-0.32,-0.25
20:35:26.544,-0.315,-0.22
20:35:26.548,-0.31,-0.225
20:35:26.552,-0.31,-0.205
20:35:26.556,-0.3,-0.205
20:35:26.560,-0.32,-0.19
20:35:26.564,-0.3,-0.19
20:35:26.568,-0.31,-0.175
20:35:26.572,-0.295,-0.155
20:35:26.576,-0.275,-0.165
20:35:26.580,-0.28,-0.145
20:35:26.584,-0.25,-0.15
20:35:26.588,-0.26,-0.125
20:35:26.592,-0.255,-0.135
20:35:26.596,-0.245,-0.11
20:35:26.600,-0.22,-0.085
20:35:26.604,-0.24,-0.08
20:35:26.608,-0.245,-0.06
20:35:26.612,-0.25,-0.04
20:35:26.616,-0.24,-0.04
20:35:26.620,-0.25,-0.04
20:35:26.624,-0.265,-0.03
20:35:26.628,-0.255,-0.04
20:35:26.632,-0.295,-0.035
20:35:26.636,-0.295,-0.015
20:35:26.640,-0.3,-0.03
20:35:26.644,-0.315,-0.02
20:35:26.648,-0.34,-0.015
20:35:26.652,-0.32,-0.015
20:35:26.656,-0.32,0.01
20:35:26.660,-0.335,-0.015
20:35:26.664,-0.305,-0.005
20:35:26.668,-0.295,-0.015
20:35:26.672,-0.32,0.005
20:35:26.676,-0.33,0.015
20:35:26.680,-0.34,0.015
20:35:26.684,-0.345,0.01
20:35:26.688,-0.33,0.0
20:35:26.692,-0.33,0.0
20:35:26.696,-0.315,-0.005
20:35:26.700,-0.315,-0.01
20:35:26.704,-0.265,-0.03
20:35:26.708,-0.265,-0.03
20:35:26.712,-0.265,-0.05
20:35:26.716,-0.26,-0.045
20:35:26.720,-0.265,-0.08
20:35:26.724,-0.3,-0.045
20:35:26.728,-0.29,-0.065
20:35:26.732,-0.29,-0.065
20:35:26.736,-0.295,-0.07
20:35:26.740,-0.295,-0.08
20:35:26.744,-0.33,-0.065
20:35:26.748,-0.305,-0.06
20:35:26.752,-0.29,-0.065
20:35:26.756,-0.28,-0.075
20:35:26.760,-0.275,-0.07
20:35:26.764,-0.255,-0.055
20:35:26.768,-0.205,-0.095
20:35:26.772,-0.165,-0.095
20:35:26.776,-0.065,-0.105
20:35:26.780,0.01,-0.125
20:35:26.784,0.06,-0.155
20:35:26.788,0.075,-0.195
20:35:26.792,0.095,-0.2
20:35:26.796,0.11,-0.205
20:35:26.800,0.1,-0.235
20:35:26.804,0.105,-0.3
20:35:26.808,0.2,-0.415
20:35:26.812,0.42,-0.565
20:35:26.816,0.735,-0.795
20:35:26.820,1.015,-1.065
20:35:26.824,1.095,-1.23
20:35:26.828,0.885,-1.25
20:35:26.832,0.435,-1.025
20:35:26.836,0.005,-0.61
20:35:26.840,-0.2,-0.28
20:35:26.844,-0.265,-0.075
20:35:26.848,-0.29,0.03
20:35:26.852,-0.295,0.11
20:35:26.856,-0.33,0.135
20:35:26.860,-0.37,0.18
20:35:26.864,-0.405,0.2
20:35:26.868,-0.415,0.2
20:35:26.872,-0.445,0.185
20:35:26.876,-0.465,0.175
20:35:26.880,-0.47,0.165
20:35:26.884,-0.48,0.165
20:35:26.888,-0.495,0.18
20:35:26.892,-0.525,0.19
20:35:26.896,-0.52,0.145
20:35:26.900,-0.525,0.165
20:35:26.904,-0.53,0.165
20:35:26.908,-0.53,0.125
20:35:26.912,-0.535,0.135
20:35:26.916,-0.53,0.115
20:35:26.920,-0.515,0.11
20:35:26.924,-0.5,0.115
20:35:26.928,-0.5,0.11
20:35:26.932,-0.5,0.095
20:35:26.936,-0.49,0.09
20:35:26.940,-0.48,0.075
20:35:26.944,-0.49,0.065
20:35:26.948,-0.495,0.045
20:35:26.952,-0.495,0.055
20:35:26.956,-0.485,0.055
20:35:26.960,-0.505,0.06
20:35:26.964,-0.495,0.055
20:35:26.968,-0.5,0.03
20:35:26.972,-0.51,0.015
20:35:26.976,-0.5,0.025
20:35:26.980,-0.515,0.05
20:35:26.984,-0.535,0.035
20:35:26.988,-0.545,0.035
20:35:26.992,-0.55,0.055
20:35:26.996,-0.55,0.045
20:35:27.000,-0.535,0.04
20:35:27.004,-0.545,0.045
20:35:27.008,-0.53,0.04
20:35:27.012,-0.545,0.04
20:35:27.016,-0.525,0.03
20:35:27.020,-0.525,0.02
20:35:27.024,-0.53,0.005
20:35:27.028,-0.525,0.0
20:35:27.032,-0.505,0.005
20:35:27.036,-0.51,0.0
20:35:27.040,-0.49,-0.005
20:35:27.044,-0.495,0.0
20:35:27.048,-0.49,0.0
20:35:27.052,-0.46,0.0
20:35:27.056,-0.42,0.0
20:35:27.060,-0.375,-0.01
20:35:27.064,-0.365,0.0
20:35:27.068,-0.32,0.025
20:35:27.072,-0.32,0.02
20:35:27.076,-0.285,0.035
20:35:27.080,-0.28,0.035
20:35:27.084,-0.27,0.045
20:35:27.088,-0.285,0.09
20:35:27.092,-0.285,0.09
20:35:27.096,-0.3,0.085
20:35:27.100,-0.33,0.075
20:35:27.104,-0.36,0.09
20:35:27.108,-0.38,0.09
20:35:27.112,-0.38,0.09
20:35:27.116,-0.405,0.08
20:35:27.120,-0.415,0.08
20:35:27.124,-0.415,0.09
20:35:27.128,-0.42,0.08
20:35:27.132,-0.45,0.065
20:35:27.136,-0.445,0.065
20:35:27.140,-0.43,0.045
20:35:27.144,-0.42,0.035
20:35:27.148,-0.385,0.05
20:35:27.152,-0.38,0.01
20:35:27.156,-0.39,0.02
20:35:27.160,-0.4,0.0
20:35:27.164,-0.36,-0.005
20:35:27.168,-0.36,0.0
20:35:27.172,-0.345,-0.015
20:35:27.176,-0.33,-0.02
20:35:27.180,-0.34,-0.035
20:35:27.184,-0.32,-0.005
20:35:27.188,-0.34,-0.015
20:35:27.192,-0.32,-0.01
20:35:27.196,-0.35,-0.02
20:35:27.200,-0.35,-0.005
20:35:27.204,-0.35,-0.025
20:35:27.208,-0.33,0.005
20:35:27.212,-0.34,0.0
20:35:27.216,-0.355,-0.015
20:35:27.220,-0.38,-0.025
20:35:27.224,-0.385,-0.015
20:35:27.228,-0.385,-0.03
20:35:27.232,-0.4,-0.025
20:35:27.236,-0.415,-0.04
20:35:27.240,-0.4,-0.04
20:35:27.244,-0.415,-0.055
20:35:27.248,-0.405,-0.075
20:35:27.252,-0.405,-0.055
20:35:27.256,-0.355,-0.05
20:35:27.260,-0.28,-0.05
20:35:27.264,-0.205,-0.055
20:35:27.268,-0.125,-0.075
20:35:27.272,-0.07,-0.075
20:35:27.276,-0.04,-0.09
20:35:27.280,-0.005,-0.14
20:35:27.284,0.02,-0.115
20:35:27.288,0.02,-0.12
20:35:27.292,0.025,-0.185
20:35:27.296,0.095,-0.215
20:35:27.300,0.325,-0.365
20:35:27.304,0.67,-0.575
20:35:27.308,0.985,-0.86
20:35:27.312,1.11,-1.065
20:35:27.316,0.985,-1.125
20:35:27.320,0.56,-0.945
20:35:27.324,0.08,-0.6
20:35:27.328,-0.25,-0.24
20:35:27.332,-0.415,0.0
20:35:27.336,-0.48,0.07
20:35:27.340,-0.535,0.155
20:35:27.344,-0.53,0.165
20:35:27.348,-0.565,0.19
20:35:27.352,-0.57,0.195
20:35:27.356,-0.575,0.185
20:35:27.360,-0.56,0.155
20:35:27.364,-0.545,0.115
20:35:27.368,-0.55,0.09
20:35:27.372,-0.54,0.07
20:35:27.376,-0.515,0.06
20:35:27.380,-0.515,0.02
20:35:27.384,-0.52,0.0
20:35:27.388,-0.53,-0.01
20:35:27.392,-0.535,-0.025
20:35:27.396,-0.53,-0.01
20:35:27.400,-0.525,-0.015
20:35:27.404,-0.525,0.005
20:35:27.408,-0.515,-0.01
20:35:27.412,-0.51,0.0
20:35:27.416,-0.54,0.005
20:35:27.420,-0.545,0.0
20:35:27.424,-0.52,0.005
20:35:27.428,-0.545,0.0
20:35:27.432,-0.575,0.005
20:35:27.436,-0.58,0.0
20:35:27.440,-0.6,-0.005
20:35:27.444,-0.595,0.025
20:35:27.448,-0.61,0.025
20:35:27.452,-0.62,0.005
20:35:27.456,-0.635,0.03
20:35:27.460,-0.63,0.015
20:35:27.464,-0.65,0.02
20:35:27.468,-0.635,-0.005
20:35:27.472,-0.65,0.015
20:35:27.476,-0.655,0.025
20:35:27.480,-0.625,0.025
20:35:27.484,-0.61,0.035
20:35:27.488,-0.595,0.005
20:35:27.492,-0.585,0.015
20:35:27.496,-0.58,0.03
20:35:27.500,-0.56,0.025
20:35:27.504,-0.535,0.055
20:35:27.508,-0.52,0.06
20:35:27.512,-0.5,0.055
20:35:27.516,-0.46,0.065
20:35:27.520,-0.415,0.065
20:35:27.524,-0.4,0.06
20:35:27.528,-0.405,0.07
20:35:27.532,-0.375,0.08
20:35:27.536,-0.365,0.09
20:35:27.540,-0.36,0.075
20:35:27.544,-0.365,0.08
20:35:27.548,-0.385,0.11
20:35:27.552,-0.375,0.12
20:35:27.556,-0.4,0.09
20:35:27.560,-0.39,0.105
20:35:27.564,-0.4,0.085
20:35:27.568,-0.37,0.09
20:35:27.572,-0.39,0.08
20:35:27.576,-0.365,0.07
20:35:27.580,-0.355,0.055
20:35:27.584,-0.36,0.05
20:35:27.588,-0.335,0.01
20:35:27.592,-0.3,0.005
20:35:27.596,-0.31,-0.01
20:35:27.600,-0.28,-0.02
20:35:27.604,-0.3,-0.03
20:35:27.608,-0.3,-0.015
20:35:27.612,-0.33,-0.035
20:35:27.616,-0.33,-0.04
20:35:27.620,-0.325,-0.005
20:35:27.624,-0.355,-0.025
20:35:27.628,-0.36,-0.035
20:35:27.632,-0.37,-0.05
20:35:27.636,-0.36,-0.035
20:35:27.640,-0.385,-0.015
20:35:27.644,-0.37,-0.04
20:35:27.648,-0.385,-0.04
20:35:27.652,-0.39,-0.045
20:35:27.656,-0.395,-0.04
20:35:27.660,-0.41,-0.04
20:35:27.664,-0.41,-0.045
20:35:27.668,-0.42,-0.025
20:35:27.672,-0.44,-0.015
20:35:27.676,-0.43,-0.015
20:35:27.680,-0.43,-0.01
20:35:27.684,-0.445,-0.025
20:35:27.688,-0.46,-0.02
20:35:27.692,-0.45,0.0
20:35:27.696,-0.445,-0.025
20:35:27.700,-0.43,-0.035
20:35:27.704,-0.43,-0.04
20:35:27.708,-0.425,0.005
20:35:27.712,-0.405,-0.025
20:35:27.716,-0.39,-0.02
20:35:27.720,-0.375,0.005
20:35:27.724,-0.355,-0.01
20:35:27.728,-0.335,0.0
20:35:27.732,-0.32,0.0
20:35:27.736,-0.29,0.02
20:35:27.740,-0.29,0.015
20:35:27.744,-0.285,0.03
20:35:27.748,-0.305,0.035
20:35:27.752,-0.29,0.035
20:35:27.756,-0.275,0.035
20:35:27.760,-0.22,0.04
20:35:27.764,-0.175,0.06
20:35:27.768,-0.09,0.08
20:35:27.772,-0.02,0.09
20:35:27.776,0.05,0.06
20:35:27.780,0.065,0.055
20:35:27.784,0.08,0.0
20:35:27.788,0.07,0.0
20:35:27.792,0.035,-0.025
20:35:27.796,0.025,-0.06
20:35:27.800,0.105,-0.185
20:35:27.804,0.33,-0.345
20:35:27.808,0.665,-0.565
20:35:27.812,0.965,-0.845
20:35:27.816,1.075,-1.08
20:35:27.820,0.96,-1.17
20:35:27.824,0.53,-0.99
20:35:27.828,0.08,-0.635
20:35:27.832,-0.24,-0.335
20:35:27.836,-0.36,-0.12
20:35:27.840,-0.435,-0.015
20:35:27.844,-0.47,0.04
20:35:27.848,-0.49,0.045
20:35:27.852,-0.505,0.055
20:35:27.856,-0.54,0.075
20:35:27.860,-0.55,0.065
20:35:27.864,-0.555,0.035
20:35:27.868,-0.575,0.025
20:35:27.872,-0.59,0.035
20:35:27.876,-0.565,0.03
20:35:27.880,-0.56,0.03
20:35:27.884,-0.59,0.035
20:35:27.888,-0.585,0.04
20:35:27.892,-0.595,0.025
20:35:27.896,-0.61,0.06
20:35:27.900,-0.62,0.055
20:35:27.904,-0.595,0.05
20:35:27.908,-0.61,0.055
20:35:27.912,-0.61,0.06
20:35:27.916,-0.615,0.085
20:35:27.920,-0.61,0.065
20:35:27.924,-0.585,0.065
20:35:27.928,-0.595,0.085
20:35:27.932,-0.59,0.075
20:35:27.936,-0.585,0.095
20:35:27.940,-0.585,0.105
20:35:27.944,-0.57,0.11
20:35:27.948,-0.545,0.125
20:35:27.952,-0.52,0.145
20:35:27.956,-0.53,0.145
20:35:27.960,-0.535,0.15
20:35:27.964,-0.545,0.15
20:35:27.968,-0.55,0.19
20:35:27.972,-0.555,0.2
20:35:27.976,-0.525,0.2
20:35:27.980,-0.515,0.195
20:35:27.984,-0.525,0.235
20:35:27.988,-0.495,0.25
20:35:27.992,-0.5,0.27
20:35:27.996,-0.48,0.265
20:35:28.000,-0.485,0.24
20:35:28.004,-0.485,0.25
20:35:28.008,-0.5,0.255
20:35:28.012,-0.5,0.255
20:35:28.016,-0.505,0.245
20:35:28.020,-0.515,0.235
20:35:28.024,-0.495,0.215
20:35:28.028,-0.46,0.185
20:35:28.032,-0.41,0.14
20:35:28.036,-0.42,0.135
20:35:28.040,-0.41,0.105
20:35:28.044,-0.415,0.095
20:35:28.048,-0.4,0.065
20:35:28.052,-0.41,0.045
20:35:28.056,-0.4,0.03
20:35:28.060,-0.385,0.015
20:35:28.064,-0.395,0.02
20:35:28.068,-0.38,0.03
20:35:28.072,-0.405,0.015
20:35:28.076,-0.375,0.01
20:35:28.080,-0.385,-0.005
20:35:28.084,-0.405,0.005
20:35:28.088,-0.405,-0.005
20:35:28.092,-0.42,0.0
20:35:28.096,-0.42,0.02
20:35:28.100,-0.435,0.03
20:35:28.104,-0.42,0.03
20:35:28.108,-0.405,0.03
20:35:28.112,-0.435,0.035
20:35:28.116,-0.455,0.05
20:35:28.120,-0.45,0.04
20:35:28.124,-0.47,0.08
20:35:28.128,-0.445,0.07
20:35:28.132,-0.435,0.07
20:35:28.136,-0.44,0.05
20:35:28.140,-0.44,0.075
20:35:28.144,-0.42,0.07
20:35:28.148,-0.41,0.065
20:35:28.152,-0.39,0.08
20:35:28.156,-0.355,0.1
20:35:28.160,-0.365,0.11
20:35:28.164,-0.375,0.085
20:35:28.168,-0.37,0.085
20:35:28.172,-0.38,0.095
20:35:28.176,-0.37,0.085
20:35:28.180,-0.38,0.09
20:35:28.184,-0.365,0.115
20:35:28.188,-0.38,0.105
20:35:28.192,-0.375,0.13
20:35:28.196,-0.35,0.105
20:35:28.200,-0.36,0.11
20:35:28.204,-0.385,0.115
20:35:28.208,-0.37,0.095
20:35:28.212,-0.37,0.1
20:35:28.216,-0.385,0.1
20:35:28.220,-0.375,0.085
20:35:28.224,-0.375,0.1
20:35:28.228,-0.39,0.075
20:35:28.232,-0.375,0.06
20:35:28.236,-0.37,0.07
20:35:28.240,-0.37,0.07
20:35:28.244,-0.37,0.035
20:35:28.248,-0.315,0.04
20:35:28.252,-0.31,0.015
20:35:28.256,-0.31,0.01
20:35:28.260,-0.31,-0.015
20:35:28.264,-0.32,-0.025
20:35:28.268,-0.355,-0.065
20:35:28.272,-0.36,-0.055
20:35:28.276,-0.37,-0.08
20:35:28.280,-0.35,-0.075
20:35:28.284,-0.37,-0.105
20:35:28.288,-0.36,-0.13
20:35:28.292,-0.355,-0.135
20:35:28.296,-0.295,-0.13
20:35:28.300,-0.21,-0.155
20:35:28.304,-0.12,-0.16
20:35:28.308,-0.03,-0.165
20:35:28.312,0.025,-0.23
20:35:28.316,0.03,-0.28
20:35:28.320,0.085,-0.28
20:35:28.324,0.11,-0.275
20:35:28.328,0.115,-0.26
20:35:28.332,0.11,-0.3
20:35:28.336,0.18,-0.385
20:35:28.340,0.355,-0.5
20:35:28.344,0.65,-0.725
20:35:28.348,0.93,-0.955
20:35:28.352,0.98,-1.165
20:35:28.356,0.755,-1.185
20:35:28.360,0.29,-0.95
20:35:28.364,-0.11,-0.595
20:35:28.368,-0.31,-0.355
20:35:28.372,-0.375,-0.22
20:35:28.376,-0.39,-0.1
20:35:28.380,-0.395,-0.02
20:35:28.384,-0.4,0.02
20:35:28.388,-0.42,0.035
20:35:28.392,-0.435,0.04
20:35:28.396,-0.485,0.02
20:35:28.400,-0.515,0.025
20:35:28.404,-0.49,-0.005
20:35:28.408,-0.525,0.005
20:35:28.412,-0.545,0.005
20:35:28.416,-0.56,-0.04
20:35:28.420,-0.56,-0.025
20:35:28.424,-0.54,-0.01
20:35:28.428,-0.57,-0.035
20:35:28.432,-0.57,-0.04
20:35:28.436,-0.565,-0.055
20:35:28.440,-0.565,-0.055
20:35:28.444,-0.58,-0.035
20:35:28.448,-0.6,-0.045
20:35:28.452,-0.585,-0.075
20:35:28.456,-0.57,-0.075
20:35:28.460,-0.57,-0.08
20:35:28.464,-0.545,-0.13
20:35:28.468,-0.525,-0.13
20:35:28.472,-0.565,-0.13
20:35:28.476,-0.555,-0.135
20:35:28.480,-0.565,-0.135
20:35:28.484,-0.59,-0.16
20:35:28.488,-0.595,-0.135
20:35:28.492,-0.585,-0.13
20:35:28.496,-0.62,-0.15
20:35:28.500,-0.62,-0.15
20:35:28.504,-0.64,-0.175
20:35:28.508,-0.655,-0.17
20:35:28.512,-0.67,-0.185
20:35:28.516,-0.655,-0.17
20:35:28.520,-0.675,-0.165
20:35:28.524,-0.675,-0.175
20:35:28.528,-0.665,-0.185
20:35:28.532,-0.67,-0.2
20:35:28.536,-0.675,-0.205
20:35:28.540,-0.675,-0.235
20:35:28.544,-0.665,-0.23
20:35:28.548,-0.67,-0.21
20:35:28.552,-0.66,-0.24
20:35:28.556,-0.64,-0.245
20:35:28.560,-0.64,-0.235
20:35:28.564,-0.635,-0.25
20:35:28.568,-0.59,-0.235
20:35:28.572,-0.55,-0.255
20:35:28.576,-0.52,-0.255
20:35:28.580,-0.475,-0.265
20:35:28.584,-0.465,-0.235
20:35:28.588,-0.42,-0.24
20:35:28.592,-0.37,-0.235
20:35:28.596,-0.325,-0.235
20:35:28.600,-0.32,-0.21
20:35:28.604,-0.305,-0.21
20:35:28.608,-0.29,-0.22
20:35:28.612,-0.295,-0.205
20:35:28.616,-0.285,-0.195
20:35:28.620,-0.275,-0.175
20:35:28.624,-0.28,-0.175
20:35:28.628,-0.29,-0.195
20:35:28.632,-0.275,-0.21
20:35:28.636,-0.285,-0.17
20:35:28.640,-0.285,-0.19
20:35:28.644,-0.305,-0.195
20:35:28.648,-0.29,-0.185
20:35:28.652,-0.29,-0.215
20:35:28.656,-0.295,-0.205
20:35:28.660,-0.295,-0.205
20:35:28.664,-0.28,-0.21
20:35:28.668,-0.265,-0.215
20:35:28.672,-0.27,-0.245
20:35:28.676,-0.28,-0.25
20:35:28.680,-0.27,-0.28
20:35:28.684,-0.26,-0.28
20:35:28.688,-0.265,-0.29
20:35:28.692,-0.285,-0.29
20:35:28.696,-0.285,-0.3
20:35:28.700,-0.32,-0.275
20:35:28.704,-0.33,-0.285
20:35:28.708,-0.31,-0.28
20:35:28.712,-0.32,-0.27
20:35:28.716,-0.345,-0.26
20:35:28.720,-0.355,-0.26
20:35:28.724,-0.375,-0.26
20:35:28.728,-0.39,-0.26
20:35:28.732,-0.405,-0.26
20:35:28.736,-0.4,-0.26
20:35:28.740,-0.395,-0.255
20:35:28.744,-0.42,-0.27
20:35:28.748,-0.405,-0.25
20:35:28.752,-0.445,-0.26
20:35:28.756,-0.43,-0.26
20:35:28.760,-0.44,-0.265
20:35:28.764,-0.425,-0.27
20:35:28.768,-0.45,-0.255
20:35:28.772,-0.44,-0.26
20:35:28.776,-0.43,-0.245
20:35:28.780,-0.415,-0.245
20:35:28.784,-0.365,-0.24
20:35:28.788,-0.37,-0.22
20:35:28.792,-0.37,-0.21
20:35:28.796,-0.355,-0.23
20:35:28.800,-0.355,-0.21
20:35:28.804,-0.335,-0.2
20:35:28.808,-0.295,-0.185
20:35:28.812,-0.26,-0.165
20:35:28.816,-0.265,-0.17
20:35:28.820,-0.235,-0.15
20:35:28.824,-0.255,-0.125
20:35:28.828,-0.255,-0.11
20:35:28.832,-0.27,-0.09
20:35:28.836,-0.28,-0.085
20:35:28.840,-0.275,-0.065
20:35:28.844,-0.285,-0.07
20:35:28.848,-0.275,-0.065
20:35:28.852,-0.22,-0.09
20:35:28.856,-0.17,-0.07
20:35:28.860,-0.085,-0.065
20:35:28.864,-0.02,-0.105
20:35:28.868,0.04,-0.1
20:35:28.872,0.08,-0.145
20:35:28.876,0.115,-0.18
20:35:28.880,0.115,-0.175
20:35:28.884,0.08,-0.19
20:35:28.888,0.125,-0.245
20:35:28.892,0.225,-0.37
20:35:28.896,0.47,-0.545
20:35:28.900,0.765,-0.81
20:35:28.904,1.02,-1.1
20:35:28.908,1.045,-1.27
20:35:28.912,0.76,-1.28
20:35:28.916,0.27,-0.98
20:35:28.920,-0.17,-0.585
20:35:28.924,-0.38,-0.315
20:35:28.928,-0.45,-0.15
20:35:28.932,-0.49,-0.05
20:35:28.936,-0.52,0.01
20:35:28.940,-0.525,0.05
20:35:28.944,-0.56,0.06
20:35:28.948,-0.595,0.07
20:35:28.952,-0.615,0.065
20:35:28.956,-0.615,0.04
20:35:28.960,-0.61,0.02
20:35:28.964,-0.63,0.055
20:35:28.968,-0.64,0.045
20:35:28.972,-0.655,0.03
20:35:28.976,-0.67,0.055
20:35:28.980,-0.665,0.055
20:35:28.984,-0.675,0.06
20:35:28.988,-0.64,0.06
20:35:28.992,-0.635,0.08
20:35:28.996,-0.65,0.07
20:35:29.000,-0.665,0.065
20:35:29.004,-0.645,0.07
20:35:29.008,-0.62,0.08
20:35:29.012,-0.61,0.07
20:35:29.016,-0.585,0.055
20:35:29.020,-0.565,0.075
20:35:29.024,-0.565,0.055
20:35:29.028,-0.56,0.105
20:35:29.032,-0.56,0.08
20:35:29.036,-0.54,0.11
20:35:29.040,-0.525,0.12
20:35:29.044,-0.53,0.14
20:35:29.048,-0.525,0.175
20:35:29.052,-0.535,0.175
20:35:29.056,-0.52,0.175
20:35:29.060,-0.55,0.19
20:35:29.064,-0.54,0.17
20:35:29.068,-0.545,0.17
20:35:29.072,-0.53,0.19
20:35:29.076,-0.545,0.165
20:35:29.080,-0.555,0.175
20:35:29.084,-0.56,0.17
20:35:29.088,-0.56,0.17
20:35:29.092,-0.57,0.165
20:35:29.096,-0.605,0.14
20:35:29.100,-0.595,0.165
20:35:29.104,-0.595,0.13
20:35:29.108,-0.57,0.105
20:35:29.112,-0.565,0.11
20:35:29.116,-0.51,0.1
20:35:29.120,-0.5,0.08
20:35:29.124,-0.485,0.085
20:35:29.128,-0.475,0.05
20:35:29.132,-0.475,0.035
20:35:29.136,-0.49,0.02
20:35:29.140,-0.47,-0.01
20:35:29.144,-0.49,-0.025
20:35:29.148,-0.5,-0.05
20:35:29.152,-0.48,-0.05
20:35:29.156,-0.49,-0.08
20:35:29.160,-0.495,-0.06
20:35:29.164,-0.505,-0.07
20:35:29.168,-0.505,-0.08
20:35:29.172,-0.52,-0.075
20:35:29.176,-0.515,-0.06
20:35:29.180,-0.525,-0.055
20:35:29.184,-0.53,-0.06
20:35:29.188,-0.515,-0.05
20:35:29.192,-0.49,-0.06
20:35:29.196,-0.495,-0.04
20:35:29.200,-0.495,-0.03
20:35:29.204,-0.475,-0.015
20:35:29.208,-0.48,-0.005
20:35:29.212,-0.48,-0.005
20:35:29.216,-0.45,-0.015
20:35:29.220,-0.46,0.0
20:35:29.224,-0.43,0.0
20:35:29.228,-0.42,0.0
20:35:29.232,-0.405,-0.005
20:35:29.236,-0.4,0.005
20:35:29.240,-0.385,0.01
20:35:29.244,-0.385,0.02
20:35:29.248,-0.385,0.025
20:35:29.252,-0.375,0.055
20:35:29.256,-0.385,0.085
20:35:29.260,-0.38,0.075
20:35:29.264,-0.39,0.08
20:35:29.268,-0.375,0.1
20:35:29.272,-0.38,0.085
20:35:29.276,-0.36,0.105
20:35:29.280,-0.35,0.07
20:35:29.284,-0.365,0.095
20:35:29.288,-0.38,0.09
20:35:29.292,-0.375,0.095
20:35:29.296,-0.375,0.105
20:35:29.300,-0.405,0.11
20:35:29.304,-0.41,0.105
20:35:29.308,-0.445,0.11
20:35:29.312,-0.405,0.09
20:35:29.316,-0.43,0.09
20:35:29.320,-0.425,0.075
20:35:29.324,-0.41,0.07
20:35:29.328,-0.395,0.07
20:35:29.332,-0.36,0.075
20:35:29.336,-0.285,0.035
20:35:29.340,-0.21,0.05
20:35:29.344,-0.15,0.015
20:35:29.348,-0.085,-0.035
20:35:29.352,-0.085,-0.085
20:35:29.356,-0.09,-0.14
20:35:29.360,-0.135,-0.16
20:35:29.364,-0.185,-0.175
20:35:29.368,-0.185,-0.2
20:35:29.372,-0.15,-0.295
20:35:29.376,0.025,-0.435
20:35:29.380,0.375,-0.64
20:35:29.384,0.68,-0.915
20:35:29.388,0.88,-1.175
20:35:29.392,0.795,-1.29
20:35:29.396,0.485,-1.135
20:35:29.400,0.035,-0.78
20:35:29.404,-0.355,-0.39
20:35:29.408,-0.49,-0.125
20:35:29.412,-0.54,0.0
20:35:29.416,-0.55,0.035
20:35:29.420,-0.555,0.075
20:35:29.424,-0.555,0.075
20:35:29.428,-0.55,0.08
20:35:29.432,-0.53,0.095
20:35:29.436,-0.55,0.07
20:35:29.440,-0.54,0.065
20:35:29.444,-0.535,0.05
20:35:29.448,-0.56,0.065
20:35:29.452,-0.515,0.05
20:35:29.456,-0.55,0.06
20:35:29.460,-0.55,0.05
20:35:29.464,-0.55,0.06
20:35:29.468,-0.565,0.07
20:35:29.472,-0.54,0.055
20:35:29.476,-0.575,0.085
20:35:29.480,-0.56,0.095
20:35:29.484,-0.56,0.07
20:35:29.488,-0.57,0.085
20:35:29.492,-0.58,0.085
20:35:29.496,-0.585,0.1
20:35:29.500,-0.59,0.1
20:35:29.504,-0.575,0.1
20:35:29.508,-0.585,0.115
20:35:29.512,-0.57,0.125
20:35:29.516,-0.59,0.13
20:35:29.520,-0.585,0.135
20:35:29.524,-0.58,0.135
20:35:29.528,-0.6,0.135
20:35:29.532,-0.595,0.12
20:35:29.536,-0.61,0.12
20:35:29.540,-0.59,0.11
20:35:29.544,-0.575,0.115
20:35:29.548,-0.565,0.1
20:35:29.552,-0.585,0.075
20:35:29.556,-0.585,0.06
20:35:29.560,-0.625,0.06
20:35:29.564,-0.625,0.055
20:35:29.568,-0.62,0.03
20:35:29.572,-0.6,0.035
20:35:29.576,-0.62,0.025
20:35:29.580,-0.625,0.005
20:35:29.584,-0.615,0.005
20:35:29.588,-0.615,0.005
20:35:29.592,-0.61,0.0
20:35:29.596,-0.6,-0.01
20:35:29.600,-0.59,0.01
20:35:29.604,-0.575,0.0
20:35:29.608,-0.575,0.0
20:35:29.612,-0.555,-0.015
20:35:29.616,-0.545,-0.035
20:35:29.620,-0.48,-0.015
20:35:29.624,-0.45,-0.04
20:35:29.628,-0.43,-0.02
20:35:29.632,-0.41,-0.01
20:35:29.636,-0.4,-0.005
20:35:29.640,-0.38,0.0
20:35:29.644,-0.36,0.005
20:35:29.648,-0.325,0.0
20:35:29.652,-0.32,0.0
20:35:29.656,-0.3,0.005
20:35:29.660,-0.28,-0.01
20:35:29.664,-0.295,0.015
20:35:29.668,-0.305,0.03
20:35:29.672,-0.315,0.05
20:35:29.676,-0.295,0.04
20:35:29.680,-0.31,0.04
20:35:29.684,-0.335,0.05
20:35:29.688,-0.335,0.055
20:35:29.692,-0.345,0.03
20:35:29.696,-0.34,0.04
20:35:29.700,-0.335,0.06
20:35:29.704,-0.355,0.04
20:35:29.708,-0.375,0.035
20:35:29.712,-0.375,0.045
20:35:29.716,-0.37,0.045
20:35:29.720,-0.39,0.05
20:35:29.724,-0.39,0.025
20:35:29.728,-0.395,0.04
20:35:29.732,-0.41,0.05
20:35:29.736,-0.42,0.03
20:35:29.740,-0.4,0.065
20:35:29.744,-0.415,0.045
20:35:29.748,-0.43,0.05
20:35:29.752,-0.43,0.025
20:35:29.756,-0.4,0.025
20:35:29.760,-0.415,-0.01
20:35:29.764,-0.43,-0.015
20:35:29.768,-0.42,-0.015
20:35:29.772,-0.445,-0.025
20:35:29.776,-0.44,-0.01
20:35:29.780,-0.465,-0.035
20:35:29.784,-0.47,-0.045
20:35:29.788,-0.475,-0.065
20:35:29.792,-0.47,-0.04
20:35:29.796,-0.47,-0.06
20:35:29.800,-0.49,-0.075
20:35:29.804,-0.47,-0.055
20:35:29.808,-0.47,-0.055
20:35:29.812,-0.47,-0.055
20:35:29.816,-0.485,-0.08
20:35:29.820,-0.475,-0.08
20:35:29.824,-0.45,-0.055
20:35:29.828,-0.48,-0.05
20:35:29.832,-0.45,-0.055
20:35:29.836,-0.445,-0.07
20:35:29.840,-0.43,-0.06
20:35:29.844,-0.42,-0.05
20:35:29.848,-0.39,-0.04
20:35:29.852,-0.34,-0.06
20:35:29.856,-0.35,-0.02
20:35:29.860,-0.32,-0.045
20:35:29.864,-0.325,-0.02
20:35:29.868,-0.3,0.0
20:35:29.872,-0.3,-0.025
20:35:29.876,-0.295,0.0
20:35:29.880,-0.275,-0.01
20:35:29.884,-0.275,-0.01
20:35:29.888,-0.27,0.015
20:35:29.892,-0.285,0.0
20:35:29.896,-0.27,0.015
20:35:29.900,-0.29,0.015
20:35:29.904,-0.295,0.0
20:35:29.908,-0.32,-0.025
20:35:29.912,-0.33,-0.01
20:35:29.916,-0.305,-0.005
20:35:29.920,-0.285,-0.005
20:35:29.924,-0.305,-0.005
20:35:29.928,-0.31,-0.005
20:35:29.932,-0.33,-0.01
20:35:29.936,-0.315,-0.02
20:35:29.940,-0.335,0.0
20:35:29.944,-0.33,-0.01
20:35:29.948,-0.345,-0.03
20:35:29.952,-0.345,0.0
20:35:29.956,-0.345,-0.005
20:35:29.960,-0.35,-0.025
20:35:29.964,-0.325,-0.025
20:35:29.968,-0.315,-0.045
20:35:29.972,-0.305,-0.06
20:35:29.976,-0.315,-0.06
20:35:29.980,-0.315,-0.095
20:35:29.984,-0.325,-0.1
20:35:29.988,-0.345,-0.08
20:35:29.992,-0.35,-0.085
20:35:29.996,-0.375,-0.09
20:35:30.000,-0.37,-0.095
20:35:30.004,-0.385,-0.105
20:35:30.008,-0.405,-0.105
20:35:30.012,-0.44,-0.11
20:35:30.016,-0.445,-0.105
20:35:30.020,-0.45,-0.145
20:35:30.024,-0.475,-0.12
20:35:30.028,-0.48,-0.105
20:35:30.032,-0.465,-0.12
20:35:30.036,-0.465,-0.105
20:35:30.040,-0.45,-0.11
20:35:30.044,-0.445,-0.14
20:35:30.048,-0.41,-0.11
20:35:30.052,-0.42,-0.115
20:35:30.056,-0.39,-0.11
20:35:30.060,-0.41,-0.11
20:35:30.064,-0.38,-0.125
20:35:30.068,-0.385,-0.11
20:35:30.072,-0.375,-0.11
20:35:30.076,-0.35,-0.11
20:35:30.080,-0.32,-0.1
20:35:30.084,-0.3,-0.08
20:35:30.088,-0.3,-0.065
20:35:30.092,-0.305,-0.055
20:35:30.096,-0.3,-0.045
20:35:30.100,-0.3,-0.01
20:35:30.104,-0.31,-0.02
20:35:30.108,-0.32,0.0
20:35:30.112,-0.32,-0.01
20:35:30.116,-0.295,-0.02
20:35:30.120,-0.305,-0.01
20:35:30.124,-0.31,-0.02
20:35:30.128,-0.31,-0.05
20:35:30.132,-0.315,-0.035
20:35:30.136,-0.335,-0.04
20:35:30.140,-0.31,-0.03
20:35:30.144,-0.36,-0.025
20:35:30.148,-0.355,-0.04
20:35:30.152,-0.35,-0.045
20:35:30.156,-0.37,-0.045
20:35:30.160,-0.365,-0.035
20:35:30.164,-0.355,-0.04
20:35:30.168,-0.36,-0.03
20:35:30.172,-0.34,-0.04
20:35:30.176,-0.285,-0.05
20:35:30.180,-0.2,-0.065
20:35:30.184,-0.08,-0.055
20:35:30.188,-0.005,-0.06
20:35:30.192,0.06,-0.08
20:35:30.196,0.085,-0.115
20:35:30.200,0.115,-0.13
20:35:30.204,0.09,-0.1
20:35:30.208,0.075,-0.145
20:35:30.212,0.045,-0.215
20:35:30.216,0.075,-0.32
20:35:30.220,0.235,-0.455
20:35:30.224,0.51,-0.69
20:35:30.228,0.815,-0.955
20:35:30.232,0.975,-1.2
20:35:30.236,0.97,-1.31
20:35:30.240,0.69,-1.175
20:35:30.244,0.23,-0.8
20:35:30.248,-0.17,-0.395
20:35:30.252,-0.37,-0.16
20:35:30.256,-0.47,-0.02
20:35:30.260,-0.48,0.07
20:35:30.264,-0.48,0.105
20:35:30.268,-0.49,0.115
20:35:30.272,-0.505,0.13
20:35:30.276,-0.505,0.105
20:35:30.280,-0.525,0.075
20:35:30.284,-0.52,0.06
20:35:30.288,-0.52,0.045
20:35:30.292,-0.505,0.05
20:35:30.296,-0.5,0.04
20:35:30.300,-0.5,0.07
20:35:30.304,-0.505,0.065
20:35:30.308,-0.515,0.08
20:35:30.312,-0.49,0.105
20:35:30.316,-0.495,0.095
20:35:30.320,-0.52,0.115
20:35:30.324,-0.525,0.1
20:35:30.328,-0.54,0.1
20:35:30.332,-0.535,0.115
20:35:30.336,-0.55,0.085
20:35:30.340,-0.54,0.08
20:35:30.344,-0.55,0.08
20:35:30.348,-0.555,0.09
20:35:30.352,-0.575,0.09
20:35:30.356,-0.595,0.075
20:35:30.360,-0.595,0.08
20:35:30.364,-0.595,0.065
20:35:30.368,-0.605,0.06
20:35:30.372,-0.63,0.04
20:35:30.376,-0.625,0.06
20:35:30.380,-0.6,0.05
20:35:30.384,-0.6,0.055
20:35:30.388,-0.6,0.05
20:35:30.392,-0.59,0.015
20:35:30.396,-0.57,0.015
20:35:30.400,-0.57,0.045
20:35:30.404,-0.54,0.025
20:35:30.408,-0.53,0.005
20:35:30.412,-0.535,0.005
20:35:30.416,-0.56,-0.005
20:35:30.420,-0.57,-0.01
20:35:30.424,-0.555,0.0
20:35:30.428,-0.56,-0.005
20:35:30.432,-0.555,-0.02
20:35:30.436,-0.545,-0.015
20:35:30.440,-0.555,-0.03
20:35:30.444,-0.525,-0.04
20:35:30.448,-0.55,-0.04
20:35:30.452,-0.55,-0.03
20:35:30.456,-0.55,-0.02
20:35:30.460,-0.535,-0.075
20:35:30.464,-0.55,-0.075
20:35:30.468,-0.555,-0.07
20:35:30.472,-0.555,-0.08
20:35:30.476,-0.515,-0.095
20:35:30.480,-0.49,-0.1
20:35:30.484,-0.45,-0.1
20:35:30.488,-0.405,-0.135
20:35:30.492,-0.4,-0.14
20:35:30.496,-0.375,-0.14
20:35:30.500,-0.355,-0.17
20:35:30.504,-0.345,-0.165
20:35:30.508,-0.32,-0.135
20:35:30.512,-0.285,-0.11
20:35:30.516,-0.3,-0.09
20:35:30.520,-0.26,-0.075
20:35:30.524,-0.25,-0.105
20:35:30.528,-0.25,-0.08
20:35:30.532,-0.235,-0.1
20:35:30.536,-0.25,-0.105
20:35:30.540,-0.26,-0.115
20:35:30.544,-0.255,-0.105
20:35:30.548,-0.275,-0.115
20:35:30.552,-0.295,-0.115
20:35:30.556,-0.29,-0.135
20:35:30.560,-0.305,-0.11
20:35:30.564,-0.315,-0.105
20:35:30.568,-0.34,-0.13
20:35:30.572,-0.345,-0.15
20:35:30.576,-0.35,-0.12
20:35:30.580,-0.365,-0.125
20:35:30.584,-0.39,-0.145
20:35:30.588,-0.37,-0.13
20:35:30.592,-0.385,-0.135
20:35:30.596,-0.37,-0.16
20:35:30.600,-0.35,-0.195
20:35:30.604,-0.325,-0.21
20:35:30.608,-0.325,-0.23
20:35:30.612,-0.35,-0.23
20:35:30.616,-0.33,-0.24
20:35:30.620,-0.325,-0.245
20:35:30.624,-0.33,-0.265
20:35:30.628,-0.34,-0.265
20:35:30.632,-0.335,-0.265
20:35:30.636,-0.345,-0.28
20:35:30.640,-0.33,-0.27
20:35:30.644,-0.345,-0.31
20:35:30.648,-0.365,-0.31
20:35:30.652,-0.345,-0.295
20:35:30.656,-0.345,-0.3
20:35:30.660,-0.33,-0.3
20:35:30.664,-0.355,-0.32
20:35:30.668,-0.34,-0.345
20:35:30.672,-0.325,-0.34
20:35:30.676,-0.34,-0.34
20:35:30.680,-0.32,-0.345
20:35:30.684,-0.335,-0.365
20:35:30.688,-0.3,-0.345
20:35:30.692,-0.31,-0.335
20:35:30.696,-0.295,-0.345
20:35:30.700,-0.28,-0.35
20:35:30.704,-0.285,-0.365
20:35:30.708,-0.25,-0.36
20:35:30.712,-0.24,-0.375
20:35:30.716,-0.24,-0.37
20:35:30.720,-0.23,-0.36
20:35:30.724,-0.225,-0.35
20:35:30.728,-0.205,-0.355
20:35:30.732,-0.21,-0.34
20:35:30.736,-0.195,-0.32
20:35:30.740,-0.195,-0.335
20:35:30.744,-0.205,-0.34
20:35:30.748,-0.225,-0.335
20:35:30.752,-0.22,-0.345
20:35:30.756,-0.225,-0.375
20:35:30.760,-0.25,-0.365
20:35:30.764,-0.24,-0.39
20:35:30.768,-0.24,-0.365
20:35:30.772,-0.27,-0.36
20:35:30.776,-0.285,-0.37
20:35:30.780,-0.27,-0.39
20:35:30.784,-0.26,-0.39
20:35:30.788,-0.3,-0.39
20:35:30.792,-0.31,-0.4
20:35:30.796,-0.35,-0.39
20:35:30.800,-0.35,-0.395
20:35:30.804,-0.355,-0.41
20:35:30.808,-0.325,-0.395
20:35:30.812,-0.29,-0.39
20:35:30.816,-0.265,-0.415
20:35:30.820,-0.23,-0.425
20:35:30.824,-0.24,-0.445
20:35:30.828,-0.25,-0.435
20:35:30.832,-0.24,-0.48
20:35:30.836,-0.24,-0.495
20:35:30.840,-0.24,-0.475
20:35:30.844,-0.25,-0.48
20:35:30.848,-0.255,-0.475
20:35:30.852,-0.245,-0.48
20:35:30.856,-0.24,-0.515
20:35:30.860,-0.27,-0.49
20:35:30.864,-0.27,-0.5
20:35:30.868,-0.275,-0.515
20:35:30.872,-0.275,-0.52
20:35:30.876,-0.27,-0.505
20:35:30.880,-0.28,-0.5
20:35:30.884,-0.28,-0.515
20:35:30.888,-0.27,-0.495
20:35:30.892,-0.285,-0.5
20:35:30.896,-0.28,-0.495
20:35:30.900,-0.265,-0.495
20:35:30.904,-0.24,-0.5
20:35:30.908,-0.23,-0.505
20:35:30.912,-0.23,-0.505
20:35:30.916,-0.2,-0.49
20:35:30.920,-0.185,-0.5
20:35:30.924,-0.18,-0.49
20:35:30.928,-0.185,-0.48
20:35:30.932,-0.175,-0.455
20:35:30.936,-0.2,-0.46
20:35:30.940,-0.18,-0.445
20:35:30.944,-0.185,-0.435
20:35:30.948,-0.165,-0.435
20:35:30.952,-0.185,-0.425
20:35:30.956,-0.185,-0.41
20:35:30.960,-0.2,-0.43
20:35:30.964,-0.215,-0.43
20:35:30.968,-0.205,-0.415
20:35:30.972,-0.215,-0.445
20:35:30.976,-0.235,-0.435
20:35:30.980,-0.24,-0.42
20:35:30.984,-0.245,-0.42
20:35:30.988,-0.255,-0.41
20:35:30.992,-0.265,-0.425
20:35:30.996,-0.25,-0.405
20:35:31.000,-0.25,-0.4
20:35:31.004,-0.275,-0.42
20:35:31.008,-0.28,-0.41
20:35:31.012,-0.28,-0.425
20:35:31.016,-0.24,-0.41
20:35:31.020,-0.21,-0.39
20:35:31.024,-0.125,-0.39
20:35:31.028,-0.04,-0.41
20:35:31.032,0.03,-0.425
20:35:31.036,0.15,-0.45
20:35:31.040,0.225,-0.45
20:35:31.044,0.26,-0.515
20:35:31.048,0.315,-0.525
20:35:31.052,0.355,-0.5
20:35:31.056,0.32,-0.53
20:35:31.060,0.305,-0.585
20:35:31.064,0.405,-0.66
20:35:31.068,0.615,-0.84
20:35:31.072,0.91,-1.085
20:35:31.076,1.16,-1.29
20:35:31.080,1.225,-1.46
20:35:31.084,1.04,-1.465
20:35:31.088,0.575,-1.19
20:35:31.092,0.135,-0.825
20:35:31.096,-0.1,-0.55
20:35:31.100,-0.21,-0.415
20:35:31.104,-0.3,-0.34
20:35:31.108,-0.365,-0.25
20:35:31.112,-0.39,-0.23
20:35:31.116,-0.42,-0.19
20:35:31.120,-0.435,-0.18
20:35:31.124,-0.45,-0.2
20:35:31.128,-0.45,-0.235
20:35:31.132,-0.46,-0.25
20:35:31.136,-0.46,-0.24
20:35:31.140,-0.465,-0.205
20:35:31.144,-0.46,-0.205
20:35:31.148,-0.455,-0.2
20:35:31.152,-0.44,-0.15
20:35:31.156,-0.46,-0.16
20:35:31.160,-0.465,-0.155
20:35:31.164,-0.47,-0.12
20:35:31.168,-0.49,-0.135
20:35:31.172,-0.51,-0.115
20:35:31.176,-0.52,-0.095
20:35:31.180,-0.525,-0.11
20:35:31.184,-0.545,-0.095
20:35:31.188,-0.56,-0.105
20:35:31.192,-0.56,-0.11
20:35:31.196,-0.57,-0.08
20:35:31.200,-0.595,-0.095
20:35:31.204,-0.59,-0.1
20:35:31.208,-0.635,-0.075
20:35:31.212,-0.61,-0.08
20:35:31.216,-0.61,-0.06
20:35:31.220,-0.61,-0.07
20:35:31.224,-0.61,-0.08
20:35:31.228,-0.6,-0.095
20:35:31.232,-0.6,-0.1
20:35:31.236,-0.61,-0.11
20:35:31.240,-0.61,-0.08
20:35:31.244,-0.595,-0.08
20:35:31.248,-0.605,-0.08
20:35:31.252,-0.57,-0.06
20:35:31.256,-0.59,-0.07
20:35:31.260,-0.57,-0.075
20:35:31.264,-0.54,-0.045
20:35:31.268,-0.52,-0.075
20:35:31.272,-0.495,-0.045
20:35:31.276,-0.515,-0.04
20:35:31.280,-0.475,-0.03
20:35:31.284,-0.465,-0.04
20:35:31.288,-0.47,-0.05
20:35:31.292,-0.46,-0.055
20:35:31.296,-0.465,-0.05
20:35:31.300,-0.435,-0.06
20:35:31.304,-0.46,-0.065
20:35:31.308,-0.44,-0.06
20:35:31.312,-0.405,-0.07
20:35:31.316,-0.43,-0.08
20:35:31.320,-0.42,-0.105
20:35:31.324,-0.4,-0.105
20:35:31.328,-0.38,-0.12
20:35:31.332,-0.38,-0.145
20:35:31.336,-0.355,-0.135
20:35:31.340,-0.35,-0.145
20:35:31.344,-0.345,-0.155
20:35:31.348,-0.335,-0.14
20:35:31.352,-0.35,-0.13
20:35:31.356,-0.36,-0.135
20:35:31.360,-0.335,-0.12
20:35:31.364,-0.32,-0.12
20:35:31.368,-0.32,-0.12
20:35:31.372,-0.3,-0.12
20:35:31.376,-0.3,-0.12
20:35:31.380,-0.31,-0.14
20:35:31.384,-0.29,-0.115
20:35:31.388,-0.29,-0.11
20:35:31.392,-0.29,-0.12
20:35:31.396,-0.29,-0.08
20:35:31.400,-0.32,-0.095
20:35:31.404,-0.34,-0.115
20:35:31.408,-0.35,-0.115
20:35:31.412,-0.35,-0.075
20:35:31.416,-0.35,-0.1
20:35:31.420,-0.375,-0.08
20:35:31.424,-0.38,-0.095
20:35:31.428,-0.38,-0.1
20:35:31.432,-0.385,-0.12
20:35:31.436,-0.405,-0.12
20:35:31.440,-0.41,-0.14
20:35:31.444,-0.39,-0.155
20:35:31.448,-0.39,-0.16
20:35:31.452,-0.39,-0.145
20:35:31.456,-0.37,-0.14
20:35:31.460,-0.355,-0.14
20:35:31.464,-0.36,-0.15
20:35:31.468,-0.355,-0.12
20:35:31.472,-0.34,-0.12
20:35:31.476,-0.35,-0.125
20:35:31.480,-0.325,-0.135
20:35:31.484,-0.33,-0.125
20:35:31.488,-0.31,-0.115
20:35:31.492,-0.29,-0.125
20:35:31.496,-0.275,-0.12
20:35:31.500,-0.255,-0.12
20:35:31.504,-0.26,-0.12
20:35:31.508,-0.25,-0.095
20:35:31.512,-0.25,-0.105
20:35:31.516,-0.25,-0.1
20:35:31.520,-0.25,-0.09
20:35:31.524,-0.245,-0.115
20:35:31.528,-0.24,-0.095
20:35:31.532,-0.255,-0.08
20:35:31.536,-0.285,-0.1
20:35:31.540,-0.26,-0.105
20:35:31.544,-0.25,-0.105
20:35:31.548,-0.24,-0.13
20:35:31.552,-0.26,-0.08
20:35:31.556,-0.27,-0.09
20:35:31.560,-0.255,-0.095
20:35:31.564,-0.25,-0.07
20:35:31.568,-0.27,-0.07
20:35:31.572,-0.29,-0.1
20:35:31.576,-0.27,-0.065
20:35:31.580,-0.275,-0.06
20:35:31.584,-0.26,-0.09
20:35:31.588,-0.26,-0.08
20:35:31.592,-0.255,-0.1
20:35:31.596,-0.26,-0.1
20:35:31.600,-0.24,-0.095
20:35:31.604,-0.21,-0.105
20:35:31.608,-0.15,-0.075
20:35:31.612,-0.065,-0.105
20:35:31.616,0.015,-0.105
20:35:31.620,0.06,-0.14
20:35:31.624,0.115,-0.18
20:35:31.628,0.12,-0.235
20:35:31.632,0.12,-0.23
20:35:31.636,0.085,-0.25
20:35:31.640,0.095,-0.32
20:35:31.644,0.165,-0.44
20:35:31.648,0.33,-0.58
20:35:31.652,0.65,-0.85
20:35:31.656,0.93,-1.09
20:35:31.660,1.05,-1.33
20:35:31.664,0.91,-1.385
20:35:31.668,0.475,-1.17
20:35:31.672,-0.01,-0.775
20:35:31.676,-0.28,-0.42
20:35:31.680,-0.39,-0.23
20:35:31.684,-0.425,-0.12
20:35:31.688,-0.43,-0.04
20:35:31.692,-0.425,-0.015
20:35:31.696,-0.445,-0.01
20:35:31.700,-0.455,0.005
20:35:31.704,-0.45,0.025
20:35:31.708,-0.46,0.015
20:35:31.712,-0.46,0.0
20:35:31.716,-0.46,-0.015
20:35:31.720,-0.46,0.0
20:35:31.724,-0.43,-0.01
20:35:31.728,-0.43,-0.02
20:35:31.732,-0.44,-0.025
20:35:31.736,-0.445,-0.01
20:35:31.740,-0.46,-0.005
20:35:31.744,-0.43,0.01
20:35:31.748,-0.435,-0.015
20:35:31.752,-0.44,0.0
20:35:31.756,-0.4,0.015
20:35:31.760,-0.43,0.02
20:35:31.764,-0.47,0.035
20:35:31.768,-0.465,0.06
20:35:31.772,-0.45,0.06
20:35:31.776,-0.47,0.06
20:35:31.780,-0.475,0.045
20:35:31.784,-0.475,0.05
20:35:31.788,-0.51,0.045
20:35:31.792,-0.505,0.045
20:35:31.796,-0.505,0.06
20:35:31.800,-0.53,0.025
20:35:31.804,-0.52,0.045
20:35:31.808,-0.53,0.03
20:35:31.812,-0.54,0.045
20:35:31.816,-0.525,0.065
20:35:31.820,-0.53,0.05
20:35:31.824,-0.515,0.025
20:35:31.828,-0.505,0.025
20:35:31.832,-0.505,0.03
20:35:31.836,-0.51,0.025
20:35:31.840,-0.505,-0.01
20:35:31.844,-0.5,-0.005
20:35:31.848,-0.495,-0.01
20:35:31.852,-0.475,-0.01
20:35:31.856,-0.48,-0.025
20:35:31.860,-0.48,-0.005
20:35:31.864,-0.46,-0.025
20:35:31.868,-0.445,-0.02
20:35:31.872,-0.425,-0.03
20:35:31.876,-0.44,-0.02
20:35:31.880,-0.42,-0.045
20:35:31.884,-0.425,-0.07
20:35:31.888,-0.39,-0.075
20:35:31.892,-0.39,-0.07
20:35:31.896,-0.36,-0.09
20:35:31.900,-0.36,-0.085
20:35:31.904,-0.345,-0.075
20:35:31.908,-0.34,-0.095
20:35:31.912,-0.32,-0.095
20:35:31.916,-0.31,-0.09
20:35:31.920,-0.3,-0.11
20:35:31.924,-0.32,-0.105
20:35:31.928,-0.315,-0.09
20:35:31.932,-0.31,-0.12
20:35:31.936,-0.315,-0.085
20:35:31.940,-0.31,-0.1
20:35:31.944,-0.33,-0.085
20:35:31.948,-0.33,-0.095
20:35:31.952,-0.325,-0.095
20:35:31.956,-0.32,-0.06
20:35:31.960,-0.31,-0.05
20:35:31.964,-0.32,-0.055
20:35:31.968,-0.31,-0.025
20:35:31.972,-0.31,-0.015
20:35:31.976,-0.31,0.0
20:35:31.980,-0.3,0.0
20:35:31.984,-0.31,-0.02
20:35:31.988,-0.32,0.005
20:35:31.992,-0.31,0.02
20:35:31.996,-0.33,0.0
20:35:32.000,-0.325,0.01
20:35:32.004,-0.32,-0.01
20:35:32.008,-0.33,0.01
20:35:32.012,-0.32,-0.02
20:35:32.016,-0.315,-0.015
20:35:32.020,-0.3,-0.015
20:35:32.024,-0.3,-0.055
20:35:32.028,-0.31,-0.065
20:35:32.032,-0.32,-0.08
20:35:32.036,-0.33,-0.1
20:35:32.040,-0.355,-0.115
20:35:32.044,-0.34,-0.1
20:35:32.048,-0.35,-0.115
20:35:32.052,-0.345,-0.12
20:35:32.056,-0.36,-0.13
20:35:32.060,-0.35,-0.12
20:35:32.064,-0.335,-0.12
20:35:32.068,-0.32,-0.115
20:35:32.072,-0.3,-0.08
20:35:32.076,-0.295,-0.13
20:35:32.080,-0.285,-0.095
20:35:32.084,-0.3,-0.115
20:35:32.088,-0.29,-0.1
20:35:32.092,-0.29,-0.11
20:35:32.096,-0.28,-0.115
20:35:32.100,-0.275,-0.135
20:35:32.104,-0.265,-0.105
20:35:32.108,-0.275,-0.11
20:35:32.112,-0.28,-0.115
20:35:32.116,-0.29,-0.14
20:35:32.120,-0.29,-0.135
20:35:32.124,-0.305,-0.12
20:35:32.128,-0.28,-0.12
20:35:32.132,-0.28,-0.14
20:35:32.136,-0.285,-0.135
20:35:32.140,-0.27,-0.15
20:35:32.144,-0.235,-0.125
20:35:32.148,-0.21,-0.135
20:35:32.152,-0.165,-0.125
20:35:32.156,-0.12,-0.135
20:35:32.160,-0.055,-0.16
20:35:32.164,0.02,-0.17
20:35:32.168,0.035,-0.195
20:35:32.172,0.04,-0.225
20:35:32.176,0.025,-0.235
20:35:32.180,0.02,-0.22
20:35:32.184,0.005,-0.3
20:35:32.188,0.09,-0.41
20:35:32.192,0.285,-0.57
20:35:32.196,0.635,-0.805
20:35:32.200,0.925,-1.085
20:35:32.204,1.06,-1.335
20:35:32.208,0.94,-1.355
20:35:32.212,0.56,-1.135
20:35:32.216,0.095,-0.73
20:35:32.220,-0.205,-0.4
20:35:32.224,-0.34,-0.19
20:35:32.228,-0.405,-0.07
20:35:32.232,-0.425,-0.02
20:35:32.236,-0.44,-0.02
20:35:32.240,-0.47,0.0
20:35:32.244,-0.48,0.0
20:35:32.248,-0.49,-0.03
20:35:32.252,-0.495,-0.03
20:35:32.256,-0.515,-0.07
20:35:32.260,-0.49,-0.065
20:35:32.264,-0.485,-0.075
20:35:32.268,-0.5,-0.06
20:35:32.272,-0.52,-0.07
20:35:32.276,-0.505,-0.07
20:35:32.280,-0.5,-0.06
20:35:32.284,-0.505,-0.085
20:35:32.288,-0.515,-0.08
20:35:32.292,-0.51,-0.075
20:35:32.296,-0.49,-0.075
20:35:32.300,-0.51,-0.07
20:35:32.304,-0.515,-0.08
20:35:32.308,-0.5,-0.08
20:35:32.312,-0.515,-0.075
20:35:32.316,-0.525,-0.045
20:35:32.320,-0.51,-0.07
20:35:32.324,-0.525,-0.06
20:35:32.328,-0.525,-0.065
20:35:32.332,-0.525,-0.06
20:35:32.336,-0.545,-0.06
20:35:32.340,-0.53,-0.04
20:35:32.344,-0.54,-0.065
20:35:32.348,-0.535,-0.05
20:35:32.352,-0.53,-0.06
20:35:32.356,-0.555,-0.05
20:35:32.360,-0.555,-0.06
20:35:32.364,-0.55,-0.035
20:35:32.368,-0.57,-0.03
20:35:32.372,-0.54,-0.045
20:35:32.376,-0.545,-0.035
20:35:32.380,-0.53,-0.04
20:35:32.384,-0.525,-0.05
20:35:32.388,-0.515,-0.05
20:35:32.392,-0.515,-0.04
20:35:32.396,-0.5,-0.04
20:35:32.400,-0.52,-0.04
20:35:32.404,-0.5,-0.05
20:35:32.408,-0.5,-0.05
20:35:32.412,-0.485,-0.045
20:35:32.416,-0.5,-0.055
20:35:32.420,-0.46,-0.055
20:35:32.424,-0.46,-0.07
20:35:32.428,-0.445,-0.06
20:35:32.432,-0.44,-0.075
20:35:32.436,-0.425,-0.105
20:35:32.440,-0.375,-0.145
20:35:32.444,-0.355,-0.135
20:35:32.448,-0.31,-0.155
20:35:32.452,-0.31,-0.165
20:35:32.456,-0.275,-0.2
20:35:32.460,-0.29,-0.19
20:35:32.464,-0.275,-0.2
20:35:32.468,-0.29,-0.185
20:35:32.472,-0.275,-0.215
20:35:32.476,-0.275,-0.195
20:35:32.480,-0.29,-0.2
20:35:32.484,-0.3,-0.215
20:35:32.488,-0.31,-0.22
20:35:32.492,-0.315,-0.21
20:35:32.496,-0.32,-0.225
20:35:32.500,-0.325,-0.19
20:35:32.504,-0.33,-0.23
20:35:32.508,-0.325,-0.215
20:35:32.512,-0.345,-0.21
20:35:32.516,-0.35,-0.205
20:35:32.520,-0.335,-0.195
20:35:32.524,-0.33,-0.205
20:35:32.528,-0.32,-0.2
20:35:32.532,-0.32,-0.21
20:35:32.536,-0.33,-0.21
20:35:32.540,-0.325,-0.195
20:35:32.544,-0.31,-0.2
20:35:32.548,-0.32,-0.205
20:35:32.552,-0.295,-0.195
20:35:32.556,-0.3,-0.175
20:35:32.560,-0.3,-0.15
20:35:32.564,-0.3,-0.18
20:35:32.568,-0.275,-0.14
20:35:32.572,-0.265,-0.17
20:35:32.576,-0.275,-0.19
20:35:32.580,-0.27,-0.16
20:35:32.584,-0.275,-0.16
20:35:32.588,-0.285,-0.165
20:35:32.592,-0.295,-0.17
20:35:32.596,-0.305,-0.165
20:35:32.600,-0.32,-0.185
20:35:32.604,-0.32,-0.185
20:35:32.608,-0.32,-0.175
20:35:32.612,-0.325,-0.175
20:35:32.616,-0.33,-0.185
20:35:32.620,-0.315,-0.18
20:35:32.624,-0.32,-0.19
20:35:32.628,-0.3,-0.18
20:35:32.632,-0.32,-0.195
20:35:32.636,-0.32,-0.19
20:35:32.640,-0.325,-0.19
20:35:32.644,-0.32,-0.185
20:35:32.648,-0.3,-0.175
20:35:32.652,-0.27,-0.175
20:35:32.656,-0.24,-0.205
20:35:32.660,-0.22,-0.175
20:35:32.664,-0.2,-0.165
20:35:32.668,-0.18,-0.18
20:35:32.672,-0.2,-0.19
20:35:32.676,-0.18,-0.2
20:35:32.680,-0.17,-0.22
20:35:32.684,-0.15,-0.24
20:35:32.688,-0.125,-0.24
20:35:32.692,-0.065,-0.24
20:35:32.696,0.0,-0.29
20:35:32.700,0.06,-0.295
20:35:32.704,0.115,-0.35
20:35:32.708,0.14,-0.385
20:35:32.712,0.15,-0.41
20:35:32.716,0.12,-0.41
20:35:32.720,0.09,-0.44
20:35:32.724,0.055,-0.52
20:35:32.728,0.13,-0.615
20:35:32.732,0.385,-0.8
20:35:32.736,0.685,-1.0
20:35:32.740,0.995,-1.295
20:35:32.744,1.125,-1.525
20:35:32.748,1.02,-1.575
20:35:32.752,0.615,-1.32
20:35:32.756,0.15,-0.935
20:35:32.760,-0.16,-0.58
20:35:32.764,-0.295,-0.36
20:35:32.768,-0.315,-0.275
20:35:32.772,-0.335,-0.185
20:35:32.776,-0.355,-0.175
20:35:32.780,-0.365,-0.155
20:35:32.784,-0.39,-0.155
20:35:32.788,-0.415,-0.145
20:35:32.792,-0.405,-0.155
20:35:32.796,-0.435,-0.165
20:35:32.800,-0.44,-0.16
20:35:32.804,-0.46,-0.21
20:35:32.808,-0.455,-0.17
20:35:32.812,-0.445,-0.165
20:35:32.816,-0.46,-0.165
20:35:32.820,-0.485,-0.175
20:35:32.824,-0.49,-0.185
20:35:32.828,-0.51,-0.175
20:35:32.832,-0.53,-0.16
20:35:32.836,-0.535,-0.165
20:35:32.840,-0.55,-0.17
20:35:32.844,-0.515,-0.16
20:35:32.848,-0.505,-0.155
20:35:32.852,-0.495,-0.185
20:35:32.856,-0.49,-0.165
20:35:32.860,-0.49,-0.17
20:35:32.864,-0.465,-0.16
20:35:32.868,-0.455,-0.17
20:35:32.872,-0.48,-0.175
20:35:32.876,-0.485,-0.21
20:35:32.880,-0.48,-0.19
20:35:32.884,-0.475,-0.18
20:35:32.888,-0.485,-0.19
20:35:32.892,-0.47,-0.19
20:35:32.896,-0.465,-0.185
20:35:32.900,-0.46,-0.21
20:35:32.904,-0.46,-0.19
20:35:32.908,-0.45,-0.185
20:35:32.912,-0.43,-0.185
20:35:32.916,-0.45,-0.175
20:35:32.920,-0.445,-0.18
20:35:32.924,-0.44,-0.195
20:35:32.928,-0.42,-0.225
20:35:32.932,-0.405,-0.215
20:35:32.936,-0.4,-0.225
20:35:32.940,-0.41,-0.21
20:35:32.944,-0.415,-0.24
20:35:32.948,-0.415,-0.24
20:35:32.952,-0.425,-0.23
20:35:32.956,-0.415,-0.24
20:35:32.960,-0.37,-0.255
20:35:32.964,-0.36,-0.265
20:35:32.968,-0.35,-0.285
20:35:32.972,-0.34,-0.27
20:35:32.976,-0.31,-0.27
20:35:32.980,-0.325,-0.285
20:35:32.984,-0.305,-0.27
20:35:32.988,-0.29,-0.29
20:35:32.992,-0.285,-0.275
20:35:32.996,-0.31,-0.305
20:35:33.000,-0.315,-0.27
20:35:33.004,-0.32,-0.255
20:35:33.008,-0.315,-0.265
20:35:33.012,-0.305,-0.285
20:35:33.016,-0.32,-0.29
20:35:33.020,-0.315,-0.275
20:35:33.024,-0.32,-0.265
20:35:33.028,-0.3,-0.27
20:35:33.032,-0.275,-0.265
20:35:33.036,-0.28,-0.27
20:35:33.040,-0.29,-0.27
20:35:33.044,-0.29,-0.31
20:35:33.048,-0.28,-0.285
20:35:33.052,-0.295,-0.31
20:35:33.056,-0.315,-0.325
20:35:33.060,-0.3,-0.32
20:35:33.064,-0.32,-0.32
20:35:33.068,-0.32,-0.345
20:35:33.072,-0.305,-0.34
20:35:33.076,-0.3,-0.345
20:35:33.080,-0.29,-0.36
20:35:33.084,-0.285,-0.345
20:35:33.088,-0.305,-0.375
20:35:33.092,-0.29,-0.355
20:35:33.096,-0.295,-0.4
20:35:33.100,-0.3,-0.395
20:35:33.104,-0.27,-0.395
20:35:33.108,-0.29,-0.405
20:35:33.112,-0.3,-0.395
20:35:33.116,-0.31,-0.41
20:35:33.120,-0.27,-0.43
20:35:33.124,-0.265,-0.4
20:35:33.128,-0.235,-0.435
20:35:33.132,-0.225,-0.45
20:35:33.136,-0.235,-0.45
20:35:33.140,-0.22,-0.42
20:35:33.144,-0.215,-0.42
20:35:33.148,-0.23,-0.415
20:35:33.152,-0.195,-0.4
20:35:33.156,-0.195,-0.42
20:35:33.160,-0.205,-0.44
20:35:33.164,-0.21,-0.435
20:35:33.168,-0.195,-0.46
20:35:33.172,-0.175,-0.46
20:35:33.176,-0.195,-0.46
20:35:33.180,-0.215,-0.455
20:35:33.184,-0.23,-0.48
20:35:33.188,-0.215,-0.475
20:35:33.192,-0.235,-0.475
20:35:33.196,-0.235,-0.485
20:35:33.200,-0.245,-0.49
20:35:33.204,-0.24,-0.475
20:35:33.208,-0.23,-0.48
20:35:33.212,-0.23,-0.48
20:35:33.216,-0.24,-0.51
20:35:33.220,-0.24,-0.49
20:35:33.224,-0.255,-0.505
20:35:33.228,-0.27,-0.51
20:35:33.232,-0.285,-0.52
20:35:33.236,-0.285,-0.545
20:35:33.240,-0.275,-0.55
20:35:33.244,-0.27,-0.58
20:35:33.248,-0.27,-0.57
20:35:33.252,-0.22,-0.585
20:35:33.256,-0.16,-0.585
20:35:33.260,-0.08,-0.585
20:35:33.264,-0.01,-0.59
20:35:33.268,0.07,-0.62
20:35:33.272,0.17,-0.665
20:35:33.276,0.245,-0.71
20:35:33.280,0.3,-0.69
20:35:33.284,0.31,-0.69
20:35:33.288,0.305,-0.735
20:35:33.292,0.325,-0.775
20:35:33.296,0.515,-0.9
20:35:33.300,0.8,-1.13
20:35:33.304,1.07,-1.34
20:35:33.308,1.155,-1.57
20:35:33.312,0.92,-1.615
20:35:33.316,0.425,-1.415
20:35:33.320,0.02,-1.065
20:35:33.324,-0.175,-0.845
20:35:33.328,-0.27,-0.69
20:35:33.332,-0.28,-0.615
20:35:33.336,-0.32,-0.53
20:35:33.340,-0.32,-0.48
20:35:33.344,-0.34,-0.465
20:35:33.348,-0.37,-0.485
20:35:33.352,-0.375,-0.505
20:35:33.356,-0.35,-0.5
20:35:33.360,-0.34,-0.54
20:35:33.364,-0.365,-0.54
20:35:33.368,-0.355,-0.515
20:35:33.372,-0.355,-0.52
20:35:33.376,-0.355,-0.495
20:35:33.380,-0.36,-0.495
20:35:33.384,-0.39,-0.475
20:35:33.388,-0.385,-0.48
20:35:33.392,-0.365,-0.475
20:35:33.396,-0.385,-0.475
20:35:33.400,-0.405,-0.49
20:35:33.404,-0.4,-0.46
20:35:33.408,-0.445,-0.465
20:35:33.412,-0.465,-0.48
20:35:33.416,-0.495,-0.48
20:35:33.420,-0.5,-0.49
20:35:33.424,-0.505,-0.51
20:35:33.428,-0.51,-0.545
20:35:33.432,-0.54,-0.545
20:35:33.436,-0.52,-0.555
20:35:33.440,-0.525,-0.55
20:35:33.444,-0.54,-0.56
20:35:33.448,-0.56,-0.575
20:35:33.452,-0.565,-0.58
20:35:33.456,-0.58,-0.565
20:35:33.460,-0.59,-0.575
20:35:33.464,-0.595,-0.56
20:35:33.468,-0.6,-0.54
20:35:33.472,-0.58,-0.55
20:35:33.476,-0.595,-0.545
20:35:33.480,-0.58,-0.54
20:35:33.484,-0.565,-0.57
20:35:33.488,-0.575,-0.56
20:35:33.492,-0.56,-0.555
20:35:33.496,-0.56,-0.53
20:35:33.500,-0.545,-0.565
20:35:33.504,-0.535,-0.58
20:35:33.508,-0.525,-0.555
20:35:33.512,-0.535,-0.56
20:35:33.516,-0.515,-0.58
20:35:33.520,-0.495,-0.57
20:35:33.524,-0.47,-0.575
20:35:33.528,-0.46,-0.58
20:35:33.532,-0.445,-0.585
20:35:33.536,-0.425,-0.595
20:35:33.540,-0.395,-0.58
20:35:33.544,-0.375,-0.62
20:35:33.548,-0.345,-0.6
20:35:33.552,-0.335,-0.59
20:35:33.556,-0.32,-0.595
20:35:33.560,-0.3,-0.585
20:35:33.564,-0.285,-0.615
20:35:33.568,-0.245,-0.585
20:35:33.572,-0.24,-0.585
20:35:33.576,-0.21,-0.575
20:35:33.580,-0.16,-0.55
20:35:33.584,-0.155,-0.535
20:35:33.588,-0.14,-0.51
20:35:33.592,-0.125,-0.47
20:35:33.596,-0.13,-0.47
20:35:33.600,-0.145,-0.45
20:35:33.604,-0.145,-0.43
20:35:33.608,-0.16,-0.435
20:35:33.612,-0.19,-0.415
20:35:33.616,-0.215,-0.435
20:35:33.620,-0.235,-0.43
20:35:33.624,-0.23,-0.435
20:35:33.628,-0.25,-0.455
20:35:33.632,-0.255,-0.485
20:35:33.636,-0.245,-0.465
20:35:33.640,-0.27,-0.5
20:35:33.644,-0.29,-0.495
20:35:33.648,-0.28,-0.5
20:35:33.652,-0.32,-0.51
20:35:33.656,-0.305,-0.495
20:35:33.660,-0.31,-0.48
20:35:33.664,-0.31,-0.465
20:35:33.668,-0.315,-0.47
20:35:33.672,-0.315,-0.48
20:35:33.676,-0.315,-0.475
20:35:33.680,-0.315,-0.455
20:35:33.684,-0.305,-0.47
20:35:33.688,-0.305,-0.445
20:35:33.692,-0.275,-0.445
20:35:33.696,-0.275,-0.45
20:35:33.700,-0.265,-0.435
20:35:33.704,-0.28,-0.43
20:35:33.708,-0.25,-0.435
20:35:33.712,-0.22,-0.415
20:35:33.716,-0.2,-0.415
20:35:33.720,-0.205,-0.38
20:35:33.724,-0.175,-0.38
20:35:33.728,-0.105,-0.365
20:35:33.732,-0.04,-0.36
20:35:33.736,0.01,-0.37
20:35:33.740,0.08,-0.39
20:35:33.744,0.125,-0.41
20:35:33.748,0.145,-0.46
20:35:33.752,0.145,-0.46
20:35:33.756,0.145,-0.455
20:35:33.760,0.14,-0.51
20:35:33.764,0.175,-0.565
20:35:33.768,0.32,-0.705
20:35:33.772,0.615,-0.91
20:35:33.776,0.935,-1.185
20:35:33.780,1.155,-1.405
20:35:33.784,1.155,-1.505
20:35:33.788,0.84,-1.345
20:35:33.792,0.36,-0.985
20:35:33.796,0.015,-0.64
20:35:33.800,-0.145,-0.395
20:35:33.804,-0.215,-0.275
20:35:33.808,-0.26,-0.17
20:35:33.812,-0.29,-0.12
20:35:33.816,-0.345,-0.1
20:35:33.820,-0.35,-0.085
20:35:33.824,-0.365,-0.08
20:35:33.828,-0.385,-0.09
20:35:33.832,-0.395,-0.11
20:35:33.836,-0.4,-0.12
20:35:33.840,-0.42,-0.135
20:35:33.844,-0.425,-0.135
20:35:33.848,-0.43,-0.13
20:35:33.852,-0.44,-0.16
20:35:33.856,-0.45,-0.155
20:35:33.860,-0.435,-0.14
20:35:33.864,-0.445,-0.15
20:35:33.868,-0.44,-0.165
20:35:33.872,-0.445,-0.17
20:35:33.876,-0.44,-0.175
20:35:33.880,-0.435,-0.175
20:35:33.884,-0.45,-0.205
20:35:33.888,-0.45,-0.195
20:35:33.892,-0.46,-0.22
20:35:33.896,-0.46,-0.205
20:35:33.900,-0.465,-0.19
20:35:33.904,-0.455,-0.18
20:35:33.908,-0.46,-0.21
20:35:33.912,-0.46,-0.22
20:35:33.916,-0.47,-0.195
20:35:33.920,-0.495,-0.195
20:35:33.924,-0.51,-0.2
20:35:33.928,-0.495,-0.195
20:35:33.932,-0.5,-0.17
20:35:33.936,-0.5,-0.16
20:35:33.940,-0.495,-0.175
20:35:33.944,-0.475,-0.16
20:35:33.948,-0.475,-0.17
20:35:33.952,-0.455,-0.16
20:35:33.956,-0.485,-0.135
20:35:33.960,-0.46,-0.125
20:35:33.964,-0.45,-0.12
20:35:33.968,-0.44,-0.13
20:35:33.972,-0.43,-0.13
20:35:33.976,-0.425,-0.125
20:35:33.980,-0.435,-0.135
20:35:33.984,-0.41,-0.125
20:35:33.988,-0.405,-0.155
20:35:33.992,-0.39,-0.155
20:35:33.996,-0.37,-0.16
20:35:34.000,-0.325,-0.155
20:35:34.004,-0.285,-0.16
20:35:34.008,-0.26,-0.14
20:35:34.012,-0.24,-0.155
20:35:34.016,-0.23,-0.16
20:35:34.020,-0.225,-0.16
20:35:34.024,-0.24,-0.18
20:35:34.028,-0.26,-0.15
20:35:34.032,-0.24,-0.17
20:35:34.036,-0.24,-0.17
20:35:34.040,-0.25,-0.18
20:35:34.044,-0.265,-0.19
20:35:34.048,-0.275,-0.195
20:35:34.052,-0.26,-0.22
20:35:34.056,-0.25,-0.19
20:35:34.060,-0.26,-0.195
20:35:34.064,-0.255,-0.215
20:35:34.068,-0.255,-0.19
20:35:34.072,-0.25,-0.2
20:35:34.076,-0.26,-0.19
20:35:34.080,-0.25,-0.185
20:35:34.084,-0.26,-0.19
20:35:34.088,-0.255,-0.2
20:35:34.092,-0.255,-0.2
20:35:34.096,-0.265,-0.205
20:35:34.100,-0.25,-0.225
20:35:34.104,-0.255,-0.205
20:35:34.108,-0.25,-0.23
20:35:34.112,-0.275,-0.22
20:35:34.116,-0.29,-0.22
20:35:34.120,-0.28,-0.225
20:35:34.124,-0.28,-0.23
20:35:34.128,-0.275,-0.21
20:35:34.132,-0.28,-0.215
20:35:34.136,-0.27,-0.24
20:35:34.140,-0.265,-0.215
20:35:34.144,-0.25,-0.225
20:35:34.148,-0.25,-0.215
20:35:34.152,-0.245,-0.215
20:35:34.156,-0.265,-0.22
20:35:34.160,-0.27,-0.23
20:35:34.164,-0.26,-0.2
20:35:34.168,-0.255,-0.205
20:35:34.172,-0.245,-0.205
20:35:34.176,-0.22,-0.18
20:35:34.180,-0.215,-0.19
20:35:34.184,-0.23,-0.195
20:35:34.188,-0.21,-0.18
20:35:34.192,-0.215,-0.175
20:35:34.196,-0.225,-0.18
20:35:34.200,-0.21,-0.18
20:35:34.204,-0.2,-0.185
20:35:34.208,-0.185,-0.2
20:35:34.212,-0.19,-0.18
20:35:34.216,-0.175,-0.185
20:35:34.220,-0.135,-0.16
20:35:34.224,-0.08,-0.195
20:35:34.228,-0.005,-0.21
20:35:34.232,0.055,-0.25
20:35:34.236,0.11,-0.27
20:35:34.240,0.12,-0.31
20:35:34.244,0.13,-0.32
20:35:34.248,0.13,-0.33
20:35:34.252,0.125,-0.38
20:35:34.256,0.12,-0.455
20:35:34.260,0.25,-0.585
20:35:34.264,0.56,-0.76
20:35:34.268,0.885,-1.055
20:35:34.272,1.09,-1.325
20:35:34.276,1.085,-1.49
20:35:34.280,0.795,-1.42
20:35:34.284,0.31,-1.11
20:35:34.288,-0.085,-0.705
20:35:34.292,-0.265,-0.425
20:35:34.296,-0.35,-0.305
20:35:34.300,-0.355,-0.22
20:35:34.304,-0.375,-0.2
20:35:34.308,-0.405,-0.165
20:35:34.312,-0.4,-0.15
20:35:34.316,-0.4,-0.14
20:35:34.320,-0.405,-0.145
20:35:34.324,-0.4,-0.16
20:35:34.328,-0.42,-0.16
20:35:34.332,-0.435,-0.155
20:35:34.336,-0.42,-0.175
20:35:34.340,-0.44,-0.185
20:35:34.344,-0.435,-0.195
20:35:34.348,-0.43,-0.175
20:35:34.352,-0.44,-0.18
20:35:34.356,-0.445,-0.15
20:35:34.360,-0.475,-0.16
20:35:34.364,-0.455,-0.13
20:35:34.368,-0.46,-0.155
20:35:34.372,-0.47,-0.175
20:35:34.376,-0.49,-0.175
20:35:34.380,-0.47,-0.18
20:35:34.384,-0.45,-0.15
20:35:34.388,-0.45,-0.145
20:35:34.392,-0.475,-0.13
20:35:34.396,-0.48,-0.12
20:35:34.400,-0.47,-0.12
20:35:34.404,-0.455,-0.08
20:35:34.408,-0.46,-0.08
20:35:34.412,-0.475,-0.095
20:35:34.416,-0.445,-0.08
20:35:34.420,-0.45,-0.08
20:35:34.424,-0.49,-0.075
20:35:34.428,-0.515,-0.07
20:35:34.432,-0.5,-0.09
20:35:34.436,-0.505,-0.095
20:35:34.440,-0.53,-0.095
20:35:34.444,-0.525,-0.09
20:35:34.448,-0.53,-0.115
20:35:34.452,-0.525,-0.125
20:35:34.456,-0.53,-0.125
20:35:34.460,-0.505,-0.125
20:35:34.464,-0.47,-0.12
20:35:34.468,-0.44,-0.145
20:35:34.472,-0.435,-0.115
20:35:34.476,-0.42,-0.12
20:35:34.480,-0.4,-0.14
20:35:34.484,-0.395,-0.145
20:35:34.488,-0.365,-0.16
20:35:34.492,-0.36,-0.16
20:35:34.496,-0.33,-0.175
20:35:34.500,-0.33,-0.17
20:35:34.504,-0.32,-0.17
20:35:34.508,-0.325,-0.185
20:35:34.512,-0.315,-0.18
20:35:34.516,-0.315,-0.18
20:35:34.520,-0.32,-0.185
20:35:34.524,-0.305,-0.165
20:35:34.528,-0.295,-0.185
20:35:34.532,-0.28,-0.185
20:35:34.536,-0.255,-0.18
20:35:34.540,-0.245,-0.185
20:35:34.544,-0.225,-0.19
20:35:34.548,-0.235,-0.195
20:35:34.552,-0.24,-0.17
20:35:34.556,-0.22,-0.185
20:35:34.560,-0.22,-0.2
20:35:34.564,-0.21,-0.185
20:35:34.568,-0.215,-0.18
20:35:34.572,-0.215,-0.185
20:35:34.576,-0.215,-0.18
20:35:34.580,-0.225,-0.18
20:35:34.584,-0.22,-0.165
20:35:34.588,-0.23,-0.16
20:35:34.592,-0.24,-0.17
20:35:34.596,-0.24,-0.14
20:35:34.600,-0.24,-0.125
20:35:34.604,-0.265,-0.12
20:35:34.608,-0.28,-0.125
20:35:34.612,-0.29,-0.115
20:35:34.616,-0.305,-0.115
20:35:34.620,-0.305,-0.125
20:35:34.624,-0.315,-0.11
20:35:34.628,-0.335,-0.145
20:35:34.632,-0.315,-0.145
20:35:34.636,-0.32,-0.15
20:35:34.640,-0.32,-0.14
20:35:34.644,-0.3,-0.15
20:35:34.648,-0.315,-0.13
20:35:34.652,-0.315,-0.145
20:35:34.656,-0.285,-0.145
20:35:34.660,-0.285,-0.16
20:35:34.664,-0.29,-0.145
20:35:34.668,-0.29,-0.165
20:35:34.672,-0.29,-0.175
20:35:34.676,-0.3,-0.19
20:35:34.680,-0.26,-0.16
20:35:34.684,-0.28,-0.185
20:35:34.688,-0.24,-0.19
20:35:34.692,-0.225,-0.17
20:35:34.696,-0.235,-0.175
20:35:34.700,-0.235,-0.185
20:35:34.704,-0.235,-0.155
20:35:34.708,-0.23,-0.18
20:35:34.712,-0.23,-0.175
20:35:34.716,-0.23,-0.2
20:35:34.720,-0.235,-0.185
20:35:34.724,-0.22,-0.205
20:35:34.728,-0.23,-0.21
20:35:34.732,-0.225,-0.205
20:35:34.736,-0.23,-0.2
20:35:34.740,-0.245,-0.185
20:35:34.744,-0.225,-0.2
20:35:34.748,-0.23,-0.175
20:35:34.752,-0.24,-0.17
20:35:34.756,-0.225,-0.175
20:35:34.760,-0.23,-0.165
20:35:34.764,-0.22,-0.16
20:35:34.768,-0.245,-0.155
20:35:34.772,-0.21,-0.165
20:35:34.776,-0.195,-0.175
20:35:34.780,-0.19,-0.15
20:35:34.784,-0.195,-0.16
20:35:34.788,-0.18,-0.15
20:35:34.792,-0.175,-0.165
20:35:34.796,-0.17,-0.145
20:35:34.800,-0.18,-0.15
20:35:34.804,-0.195,-0.16
20:35:34.808,-0.195,-0.155
20:35:34.812,-0.225,-0.165
20:35:34.816,-0.235,-0.155
20:35:34.820,-0.255,-0.15
20:35:34.824,-0.265,-0.16
20:35:34.828,-0.275,-0.175
20:35:34.832,-0.3,-0.185
20:35:34.836,-0.31,-0.19
20:35:34.840,-0.32,-0.19
20:35:34.844,-0.31,-0.205
20:35:34.848,-0.335,-0.195
20:35:34.852,-0.345,-0.23
20:35:34.856,-0.34,-0.21
20:35:34.860,-0.335,-0.21
20:35:34.864,-0.32,-0.205
20:35:34.868,-0.31,-0.225
20:35:34.872,-0.29,-0.225
20:35:34.876,-0.265,-0.22
20:35:34.880,-0.27,-0.225
20:35:34.884,-0.26,-0.2
20:35:34.888,-0.25,-0.195
20:35:34.892,-0.265,-0.195
20:35:34.896,-0.26,-0.185
20:35:34.900,-0.27,-0.185
20:35:34.904,-0.265,-0.18
20:35:34.908,-0.26,-0.18
20:35:34.912,-0.265,-0.17
20:35:34.916,-0.255,-0.18
20:35:34.920,-0.235,-0.195
20:35:34.924,-0.255,-0.19
20:35:34.928,-0.25,-0.2
20:35:34.932,-0.255,-0.19
20:35:34.936,-0.27,-0.185
20:35:34.940,-0.255,-0.19
20:35:34.944,-0.22,-0.18
20:35:34.948,-0.245,-0.18
20:35:34.952,-0.23,-0.205
20:35:34.956,-0.235,-0.21
20:35:34.960,-0.225,-0.185
20:35:34.964,-0.245,-0.2
20:35:34.968,-0.25,-0.175
20:35:34.972,-0.255,-0.155
20:35:34.976,-0.23,-0.165
20:35:34.980,-0.225,-0.165
20:35:34.984,-0.205,-0.16
20:35:34.988,-0.195,-0.165
20:35:34.992,-0.185,-0.16
20:35:34.996,-0.185,-0.155
20:35:35.000,-0.18,-0.13
20:35:35.004,-0.19,-0.14
20:35:35.008,-0.185,-0.14
20:35:35.012,-0.175,-0.115
20:35:35.016,-0.195,-0.12
20:35:35.020,-0.195,-0.14
20:35:35.024,-0.215,-0.14
20:35:35.028,-0.21,-0.13
20:35:35.032,-0.19,-0.16
20:35:35.036,-0.13,-0.175
20:35:35.040,-0.05,-0.18
20:35:35.044,0.005,-0.21
20:35:35.048,0.06,-0.22
20:35:35.052,0.115,-0.24
20:35:35.056,0.135,-0.29
20:35:35.060,0.145,-0.3
20:35:35.064,0.13,-0.28
20:35:35.068,0.12,-0.335
20:35:35.072,0.14,-0.44
20:35:35.076,0.28,-0.57
20:35:35.080,0.545,-0.75
20:35:35.084,0.89,-1.015
20:35:35.088,1.15,-1.28
20:35:35.092,1.195,-1.415
20:35:35.096,0.99,-1.35
20:35:35.100,0.545,-1.015
20:35:35.104,0.085,-0.59
20:35:35.108,-0.155,-0.315
20:35:35.112,-0.225,-0.175
20:35:35.116,-0.31,-0.07
20:35:35.120,-0.325,-0.03
20:35:35.124,-0.36,-0.03
20:35:35.128,-0.38,-0.025
20:35:35.132,-0.385,-0.045
20:35:35.136,-0.395,-0.055
20:35:35.140,-0.395,-0.045
20:35:35.144,-0.425,-0.08
20:35:35.148,-0.43,-0.1
20:35:35.152,-0.42,-0.11
20:35:35.156,-0.43,-0.095
20:35:35.160,-0.435,-0.075
20:35:35.164,-0.435,-0.085
20:35:35.168,-0.43,-0.085
20:35:35.172,-0.45,-0.075
20:35:35.176,-0.435,-0.1
20:35:35.180,-0.44,-0.09
20:35:35.184,-0.44,-0.07
20:35:35.188,-0.435,-0.075
20:35:35.192,-0.43,-0.075
20:35:35.196,-0.445,-0.07
20:35:35.200,-0.45,-0.06
20:35:35.204,-0.46,-0.05
20:35:35.208,-0.46,-0.045
20:35:35.212,-0.485,-0.06
20:35:35.216,-0.5,-0.07
20:35:35.220,-0.49,-0.065
20:35:35.224,-0.53,-0.065
20:35:35.228,-0.54,-0.08
20:35:35.232,-0.535,-0.06
20:35:35.236,-0.54,-0.08
20:35:35.240,-0.53,-0.075
20:35:35.244,-0.535,-0.075
20:35:35.248,-0.54,-0.08
20:35:35.252,-0.545,-0.08
20:35:35.256,-0.53,-0.08
20:35:35.260,-0.52,-0.095
20:35:35.264,-0.545,-0.09
20:35:35.268,-0.535,-0.115
20:35:35.272,-0.51,-0.1
20:35:35.276,-0.5,-0.105
20:35:35.280,-0.485,-0.115
20:35:35.284,-0.46,-0.115
20:35:35.288,-0.45,-0.11
20:35:35.292,-0.455,-0.09
20:35:35.296,-0.45,-0.085
20:35:35.300,-0.455,-0.11
20:35:35.304,-0.44,-0.105
20:35:35.308,-0.44,-0.105
20:35:35.312,-0.42,-0.11
20:35:35.316,-0.4,-0.115
20:35:35.320,-0.405,-0.15
20:35:35.324,-0.38,-0.13
20:35:35.328,-0.37,-0.16
20:35:35.332,-0.375,-0.185
20:35:35.336,-0.36,-0.17
20:35:35.340,-0.345,-0.195
20:35:35.344,-0.32,-0.21
20:35:35.348,-0.305,-0.2
20:35:35.352,-0.28,-0.23
20:35:35.356,-0.28,-0.26
20:35:35.360,-0.26,-0.27
20:35:35.364,-0.23,-0.275
20:35:35.368,-0.205,-0.285
20:35:35.372,-0.225,-0.265
20:35:35.376,-0.22,-0.26
20:35:35.380,-0.22,-0.235
20:35:35.384,-0.215,-0.23
20:35:35.388,-0.19,-0.245
20:35:35.392,-0.21,-0.23
20:35:35.396,-0.225,-0.25
20:35:35.400,-0.265,-0.255
20:35:35.404,-0.27,-0.265
20:35:35.408,-0.295,-0.27
20:35:35.412,-0.295,-0.275
20:35:35.416,-0.305,-0.275
20:35:35.420,-0.3,-0.285
20:35:35.424,-0.325,-0.305
20:35:35.428,-0.345,-0.295
20:35:35.432,-0.365,-0.315
20:35:35.436,-0.355,-0.29
20:35:35.440,-0.365,-0.31
20:35:35.444,-0.355,-0.295
20:35:35.448,-0.355,-0.29
20:35:35.452,-0.335,-0.3
20:35:35.456,-0.325,-0.32
20:35:35.460,-0.3,-0.31
20:35:35.464,-0.28,-0.32
20:35:35.468,-0.285,-0.315
20:35:35.472,-0.26,-0.325
20:35:35.476,-0.245,-0.35
20:35:35.480,-0.235,-0.345
20:35:35.484,-0.225,-0.335
20:35:35.488,-0.21,-0.32
20:35:35.492,-0.195,-0.33
20:35:35.496,-0.2,-0.315
20:35:35.500,-0.225,-0.325
20:35:35.504,-0.22,-0.32
20:35:35.508,-0.235,-0.335
20:35:35.512,-0.23,-0.32
20:35:35.516,-0.23,-0.32
20:35:35.520,-0.235,-0.34
20:35:35.524,-0.22,-0.34
20:35:35.528,-0.225,-0.35
20:35:35.532,-0.23,-0.365
20:35:35.536,-0.23,-0.375
20:35:35.540,-0.23,-0.4
20:35:35.544,-0.225,-0.395
20:35:35.548,-0.21,-0.415
20:35:35.552,-0.2,-0.415
20:35:35.556,-0.21,-0.41
20:35:35.560,-0.185,-0.42
20:35:35.564,-0.155,-0.41
20:35:35.568,-0.145,-0.435
20:35:35.572,-0.12,-0.445
20:35:35.576,-0.095,-0.43
20:35:35.580,-0.075,-0.43
20:35:35.584,-0.09,-0.425
20:35:35.588,-0.08,-0.44
20:35:35.592,-0.075,-0.405
20:35:35.596,-0.08,-0.42
20:35:35.600,-0.04,-0.42
20:35:35.604,0.0,-0.425
20:35:35.608,0.065,-0.46
20:35:35.612,0.15,-0.47
20:35:35.616,0.215,-0.525
20:35:35.620,0.29,-0.55
20:35:35.624,0.34,-0.585
20:35:35.628,0.36,-0.575
20:35:35.632,0.345,-0.605
20:35:35.636,0.31,-0.655
20:35:35.640,0.36,-0.73
20:35:35.644,0.535,-0.845
20:35:35.648,0.84,-1.07
20:35:35.652,1.085,-1.33
20:35:35.656,1.095,-1.495
20:35:35.660,0.81,-1.515
20:35:35.664,0.35,-1.255
20:35:35.668,-0.04,-0.94
20:35:35.672,-0.22,-0.7
20:35:35.676,-0.275,-0.6
20:35:35.680,-0.29,-0.5
20:35:35.684,-0.28,-0.41
20:35:35.688,-0.32,-0.385
20:35:35.692,-0.31,-0.37
20:35:35.696,-0.32,-0.38
20:35:35.700,-0.31,-0.355
20:35:35.704,-0.315,-0.36
20:35:35.708,-0.31,-0.365
20:35:35.712,-0.32,-0.355
20:35:35.716,-0.335,-0.38
20:35:35.720,-0.355,-0.38
20:35:35.724,-0.345,-0.355
20:35:35.728,-0.34,-0.405
20:35:35.732,-0.355,-0.37
20:35:35.736,-0.36,-0.4
20:35:35.740,-0.39,-0.385
20:35:35.744,-0.39,-0.38
20:35:35.748,-0.4,-0.38
20:35:35.752,-0.42,-0.405
20:35:35.756,-0.43,-0.395
20:35:35.760,-0.415,-0.39
20:35:35.764,-0.43,-0.4
20:35:35.768,-0.415,-0.415
20:35:35.772,-0.42,-0.395
20:35:35.776,-0.405,-0.41
20:35:35.780,-0.43,-0.4
20:35:35.784,-0.42,-0.395
20:35:35.788,-0.41,-0.4
20:35:35.792,-0.415,-0.395
20:35:35.796,-0.395,-0.395
20:35:35.800,-0.37,-0.385
20:35:35.804,-0.355,-0.395
20:35:35.808,-0.36,-0.37
20:35:35.812,-0.345,-0.355
20:35:35.816,-0.405,-0.36
20:35:35.820,-0.41,-0.365
20:35:35.824,-0.425,-0.365
20:35:35.828,-0.46,-0.365
20:35:35.832,-0.45,-0.395
20:35:35.836,-0.455,-0.38
20:35:35.840,-0.47,-0.395
20:35:35.844,-0.485,-0.415
20:35:35.848,-0.485,-0.455
20:35:35.852,-0.475,-0.47
20:35:35.856,-0.455,-0.47
20:35:35.860,-0.45,-0.485
20:35:35.864,-0.455,-0.475
20:35:35.868,-0.435,-0.495
20:35:35.872,-0.41,-0.49
20:35:35.876,-0.385,-0.515
20:35:35.880,-0.36,-0.51
20:35:35.884,-0.34,-0.49
20:35:35.888,-0.31,-0.515
20:35:35.892,-0.3,-0.53
20:35:35.896,-0.28,-0.5
20:35:35.900,-0.3,-0.485
20:35:35.904,-0.255,-0.475
20:35:35.908,-0.255,-0.465
20:35:35.912,-0.235,-0.445
20:35:35.916,-0.24,-0.425
20:35:35.920,-0.21,-0.43
20:35:35.924,-0.21,-0.405
20:35:35.928,-0.205,-0.4
20:35:35.932,-0.18,-0.39
20:35:35.936,-0.195,-0.38
20:35:35.940,-0.2,-0.365
20:35:35.944,-0.2,-0.35
20:35:35.948,-0.2,-0.355
20:35:35.952,-0.215,-0.35
20:35:35.956,-0.205,-0.325
20:35:35.960,-0.215,-0.34
20:35:35.964,-0.22,-0.35
20:35:35.968,-0.205,-0.3
20:35:35.972,-0.205,-0.31
20:35:35.976,-0.215,-0.29
20:35:35.980,-0.23,-0.29
20:35:35.984,-0.235,-0.26
20:35:35.988,-0.225,-0.28
20:35:35.992,-0.245,-0.28
20:35:35.996,-0.225,-0.285
20:35:36.000,-0.205,-0.275
20:35:36.004,-0.22,-0.275
20:35:36.008,-0.23,-0.25
20:35:36.012,-0.225,-0.26
20:35:36.016,-0.25,-0.255
20:35:36.020,-0.255,-0.265
20:35:36.024,-0.255,-0.25
20:35:36.028,-0.275,-0.24
20:35:36.032,-0.295,-0.23
20:35:36.036,-0.31,-0.235
20:35:36.040,-0.31,-0.235
20:35:36.044,-0.285,-0.25
20:35:36.048,-0.265,-0.225
20:35:36.052,-0.26,-0.24
20:35:36.056,-0.255,-0.235
20:35:36.060,-0.24,-0.245
20:35:36.064,-0.23,-0.245
20:35:36.068,-0.2,-0.255
20:35:36.072,-0.22,-0.255
20:35:36.076,-0.21,-0.275
20:35:36.080,-0.23,-0.245
20:35:36.084,-0.205,-0.255
20:35:36.088,-0.195,-0.26
20:35:36.092,-0.21,-0.24
20:35:36.096,-0.21,-0.27
20:35:36.100,-0.225,-0.23
20:35:36.104,-0.2,-0.23
20:35:36.108,-0.2,-0.23
20:35:36.112,-0.16,-0.235
20:35:36.116,-0.155,-0.235
20:35:36.120,-0.13,-0.24
20:35:36.124,-0.105,-0.22
20:35:36.128,-0.055,-0.22
20:35:36.132,0.015,-0.215
20:35:36.136,0.08,-0.22
20:35:36.140,0.155,-0.24
20:35:36.144,0.195,-0.29
20:35:36.148,0.215,-0.31
20:35:36.152,0.225,-0.29
20:35:36.156,0.21,-0.325
20:35:36.160,0.205,-0.405
20:35:36.164,0.305,-0.525
20:35:36.168,0.535,-0.695
20:35:36.172,0.835,-0.935
20:35:36.176,1.085,-1.205
20:35:36.180,1.175,-1.41
20:35:36.184,0.945,-1.39
20:35:36.188,0.495,-1.09
20:35:36.192,0.06,-0.695
20:35:36.196,-0.18,-0.385
20:35:36.200,-0.29,-0.225
20:35:36.204,-0.335,-0.14
20:35:36.208,-0.375,-0.065
20:35:36.212,-0.405,-0.035
20:35:36.216,-0.445,-0.03
20:35:36.220,-0.46,-0.035
20:35:36.224,-0.46,-0.05
20:35:36.228,-0.48,-0.07
20:35:36.232,-0.49,-0.075
20:35:36.236,-0.5,-0.06
20:35:36.240,-0.525,-0.065
20:35:36.244,-0.54,-0.07
20:35:36.248,-0.55,-0.085
20:35:36.252,-0.545,-0.085
20:35:36.256,-0.55,-0.08
20:35:36.260,-0.535,-0.08
20:35:36.264,-0.545,-0.065
20:35:36.268,-0.525,-0.055
20:35:36.272,-0.52,-0.07
20:35:36.276,-0.515,-0.075
20:35:36.280,-0.465,-0.07
20:35:36.284,-0.445,-0.06
20:35:36.288,-0.45,-0.06
20:35:36.292,-0.44,-0.08
20:35:36.296,-0.43,-0.09
20:35:36.300,-0.43,-0.08
20:35:36.304,-0.4,-0.06
20:35:36.308,-0.42,-0.06
20:35:36.312,-0.41,-0.04
20:35:36.316,-0.425,-0.04
20:35:36.320,-0.42,-0.04
20:35:36.324,-0.44,-0.03
20:35:36.328,-0.47,-0.025
20:35:36.332,-0.47,-0.035
20:35:36.336,-0.49,-0.025
20:35:36.340,-0.495,-0.035
20:35:36.344,-0.49,-0.045
20:35:36.348,-0.48,-0.035
20:35:36.352,-0.47,-0.02
20:35:36.356,-0.46,-0.03
20:35:36.360,-0.46,-0.025
20:35:36.364,-0.45,-0.04
20:35:36.368,-0.46,-0.05
20:35:36.372,-0.45,-0.04
20:35:36.376,-0.46,-0.035
20:35:36.380,-0.45,-0.03
20:35:36.384,-0.435,-0.05
20:35:36.388,-0.42,-0.045
20:35:36.392,-0.405,-0.055
20:35:36.396,-0.39,-0.065
20:35:36.400,-0.385,-0.065
20:35:36.404,-0.36,-0.085
20:35:36.408,-0.35,-0.09
20:35:36.412,-0.35,-0.11
20:35:36.416,-0.35,-0.105
20:35:36.420,-0.34,-0.125
20:35:36.424,-0.34,-0.12
20:35:36.428,-0.34,-0.13
20:35:36.432,-0.335,-0.145
20:35:36.436,-0.31,-0.135
20:35:36.440,-0.32,-0.125
20:35:36.444,-0.32,-0.11
20:35:36.448,-0.35,-0.115
20:35:36.452,-0.35,-0.09
20:35:36.456,-0.335,-0.11
20:35:36.460,-0.365,-0.1
20:35:36.464,-0.34,-0.09
20:35:36.468,-0.33,-0.105
20:35:36.472,-0.325,-0.11
20:35:36.476,-0.325,-0.125
20:35:36.480,-0.315,-0.105
20:35:36.484,-0.305,-0.075
20:35:36.488,-0.27,-0.11
20:35:36.492,-0.265,-0.095
20:35:36.496,-0.255,-0.1
20:35:36.500,-0.255,-0.075
20:35:36.504,-0.235,-0.09
20:35:36.508,-0.215,-0.085
20:35:36.512,-0.205,-0.1
20:35:36.516,-0.185,-0.055
20:35:36.520,-0.19,-0.075
20:35:36.524,-0.21,-0.07
20:35:36.528,-0.205,-0.05
20:35:36.532,-0.22,-0.065
20:35:36.536,-0.225,-0.06
20:35:36.540,-0.24,-0.065
20:35:36.544,-0.245,-0.05
20:35:36.548,-0.25,-0.045
20:35:36.552,-0.24,-0.075
20:35:36.556,-0.25,-0.07
20:35:36.560,-0.265,-0.075
20:35:36.564,-0.26,-0.08
20:35:36.568,-0.255,-0.1
20:35:36.572,-0.245,-0.08
20:35:36.576,-0.26,-0.085
20:35:36.580,-0.285,-0.105
20:35:36.584,-0.275,-0.095
20:35:36.588,-0.265,-0.08
20:35:36.592,-0.27,-0.095
20:35:36.596,-0.26,-0.09
20:35:36.600,-0.295,-0.08
20:35:36.604,-0.285,-0.065
20:35:36.608,-0.285,-0.07
20:35:36.612,-0.305,-0.09
20:35:36.616,-0.3,-0.105
20:35:36.620,-0.3,-0.1
20:35:36.624,-0.31,-0.12
20:35:36.628,-0.295,-0.125
20:35:36.632,-0.265,-0.125
20:35:36.636,-0.265,-0.12
20:35:36.640,-0.26,-0.115
20:35:36.644,-0.235,-0.125
20:35:36.648,-0.225,-0.11
20:35:36.652,-0.235,-0.1
20:35:36.656,-0.215,-0.065
20:35:36.660,-0.205,-0.075
20:35:36.664,-0.22,-0.08
20:35:36.668,-0.18,-0.095
20:35:36.672,-0.115,-0.08
20:35:36.676,-0.07,-0.09
20:35:36.680,0.0,-0.1
20:35:36.684,0.075,-0.09
20:35:36.688,0.09,-0.135
20:35:36.692,0.125,-0.195
20:35:36.696,0.13,-0.19
20:35:36.700,0.135,-0.2
20:35:36.704,0.14,-0.265
20:35:36.708,0.17,-0.345
20:35:36.712,0.325,-0.46
20:35:36.716,0.635,-0.66
20:35:36.720,0.955,-0.925
20:35:36.724,1.135,-1.175
20:35:36.728,1.065,-1.275
20:35:36.732,0.73,-1.12
20:35:36.736,0.26,-0.785
20:35:36.740,-0.09,-0.415
20:35:36.744,-0.245,-0.185
20:35:36.748,-0.305,-0.05
20:35:36.752,-0.31,0.015
20:35:36.756,-0.3,0.06
20:35:36.760,-0.345,0.08
20:35:36.764,-0.33,0.08
20:35:36.768,-0.34,0.085
20:35:36.772,-0.355,0.055
20:35:36.776,-0.375,0.05
20:35:36.780,-0.4,0.025
20:35:36.784,-0.41,0.005
20:35:36.788,-0.43,0.025
20:35:36.792,-0.425,0.02
20:35:36.796,-0.465,0.015
20:35:36.800,-0.465,0.02
20:35:36.804,-0.46,0.015
20:35:36.808,-0.475,0.0
20:35:36.812,-0.485,0.0
20:35:36.816,-0.5,0.0
20:35:36.820,-0.51,-0.005
20:35:36.824,-0.515,-0.01
20:35:36.828,-0.535,-0.03
20:35:36.832,-0.51,-0.03
20:35:36.836,-0.53,-0.03
20:35:36.840,-0.53,-0.04
20:35:36.844,-0.545,-0.04
20:35:36.848,-0.52,-0.045
20:35:36.852,-0.5,-0.045
20:35:36.856,-0.485,-0.025
20:35:36.860,-0.49,-0.03
20:35:36.864,-0.435,-0.02
20:35:36.868,-0.405,-0.02
20:35:36.872,-0.415,-0.02
20:35:36.876,-0.425,-0.01
20:35:36.880,-0.405,0.02
20:35:36.884,-0.425,0.02
20:35:36.888,-0.43,0.02
20:35:36.892,-0.41,0.035
20:35:36.896,-0.4,0.025
20:35:36.900,-0.395,0.025
20:35:36.904,-0.41,0.03
20:35:36.908,-0.405,0.035
20:35:36.912,-0.41,0.06
20:35:36.916,-0.42,0.05
20:35:36.920,-0.41,0.05
20:35:36.924,-0.41,0.045
20:35:36.928,-0.395,0.04
20:35:36.932,-0.38,0.035
20:35:36.936,-0.37,0.015
20:35:36.940,-0.37,-0.005
20:35:36.944,-0.335,-0.005
20:35:36.948,-0.305,-0.005
20:35:36.952,-0.32,-0.01
20:35:36.956,-0.27,-0.005
20:35:36.960,-0.285,-0.03
20:35:36.964,-0.26,-0.03
20:35:36.968,-0.255,-0.04
20:35:36.972,-0.22,-0.055
20:35:36.976,-0.22,-0.04
20:35:36.980,-0.215,-0.04
20:35:36.984,-0.245,-0.05
20:35:36.988,-0.24,-0.05
20:35:36.992,-0.255,-0.045
20:35:36.996,-0.265,-0.035
20:35:37.000,-0.25,-0.08
20:35:37.004,-0.3,-0.055
20:35:37.008,-0.28,-0.06
20:35:37.012,-0.305,-0.1
20:35:37.016,-0.325,-0.08
20:35:37.020,-0.305,-0.08
20:35:37.024,-0.33,-0.12
20:35:37.028,-0.355,-0.115
20:35:37.032,-0.365,-0.125
20:35:37.036,-0.355,-0.1
20:35:37.040,-0.345,-0.115
20:35:37.044,-0.335,-0.115
20:35:37.048,-0.335,-0.12
20:35:37.052,-0.315,-0.115
20:35:37.056,-0.32,-0.125
20:35:37.060,-0.315,-0.13
20:35:37.064,-0.305,-0.12
20:35:37.068,-0.3,-0.08
20:35:37.072,-0.295,-0.105
20:35:37.076,-0.275,-0.08
20:35:37.080,-0.26,-0.1
20:35:37.084,-0.235,-0.08
20:35:37.088,-0.205,-0.06
20:35:37.092,-0.19,-0.045
20:35:37.096,-0.19,-0.05
20:35:37.100,-0.195,-0.05
20:35:37.104,-0.195,-0.02
20:35:37.108,-0.19,-0.02
20:35:37.112,-0.215,-0.02
20:35:37.116,-0.195,-0.005
20:35:37.120,-0.215,-0.015
20:35:37.124,-0.23,-0.005
20:35:37.128,-0.25,-0.005
20:35:37.132,-0.255,-0.02
20:35:37.136,-0.24,-0.045
20:35:37.140,-0.235,-0.03
20:35:37.144,-0.245,-0.055
20:35:37.148,-0.24,-0.05
20:35:37.152,-0.265,-0.055
20:35:37.156,-0.27,-0.055
20:35:37.160,-0.255,-0.07
20:35:37.164,-0.255,-0.055
20:35:37.168,-0.235,-0.09
20:35:37.172,-0.23,-0.08
20:35:37.176,-0.22,-0.08
20:35:37.180,-0.19,-0.09
20:35:37.184,-0.14,-0.1
20:35:37.188,-0.045,-0.095
20:35:37.192,0.015,-0.105
20:35:37.196,0.085,-0.125
20:35:37.200,0.115,-0.145
20:35:37.204,0.165,-0.195
20:35:37.208,0.165,-0.195
20:35:37.212,0.14,-0.22
20:35:37.216,0.135,-0.285
20:35:37.220,0.17,-0.385
20:35:37.224,0.37,-0.52
20:35:37.228,0.675,-0.75
20:35:37.232,0.96,-1.04
20:35:37.236,1.08,-1.255
20:35:37.240,0.98,-1.33
20:35:37.244,0.575,-1.1
20:35:37.248,0.11,-0.71
20:35:37.252,-0.22,-0.37
20:35:37.256,-0.345,-0.175
20:35:37.260,-0.4,-0.075
20:35:37.264,-0.43,0.0
20:35:37.268,-0.465,0.01
20:35:37.272,-0.45,0.03
20:35:37.276,-0.45,0.035
20:35:37.280,-0.485,0.015
20:35:37.284,-0.475,-0.02
20:35:37.288,-0.48,-0.015
20:35:37.292,-0.47,-0.01
20:35:37.296,-0.44,-0.04
20:35:37.300,-0.43,-0.04
20:35:37.304,-0.405,-0.045
20:35:37.308,-0.375,-0.035
20:35:37.312,-0.39,-0.02
20:35:37.316,-0.385,-0.01
20:35:37.320,-0.385,0.005
20:35:37.324,-0.39,0.045
20:35:37.328,-0.385,0.04
20:35:37.332,-0.425,0.065
20:35:37.336,-0.445,0.065
20:35:37.340,-0.455,0.07
20:35:37.344,-0.48,0.065
20:35:37.348,-0.48,0.06
20:35:37.352,-0.475,0.07
20:35:37.356,-0.485,0.045
20:35:37.360,-0.48,0.045
20:35:37.364,-0.51,0.025
20:35:37.368,-0.54,0.02
20:35:37.372,-0.53,0.025
20:35:37.376,-0.53,0.02
20:35:37.380,-0.545,0.005
20:35:37.384,-0.55,0.015
20:35:37.388,-0.555,0.015
20:35:37.392,-0.555,0.015
20:35:37.396,-0.565,0.03
20:35:37.400,-0.545,0.005
20:35:37.404,-0.53,0.0
20:35:37.408,-0.53,-0.005
20:35:37.412,-0.495,0.0
20:35:37.416,-0.47,-0.02
20:35:37.420,-0.48,-0.05
20:35:37.424,-0.445,-0.03
20:35:37.428,-0.44,-0.04
20:35:37.432,-0.445,-0.03
20:35:37.436,-0.425,-0.035
20:35:37.440,-0.41,-0.04
20:35:37.444,-0.4,-0.04
20:35:37.448,-0.395,-0.03
20:35:37.452,-0.385,-0.045
20:35:37.456,-0.365,-0.04
20:35:37.460,-0.35,-0.07
20:35:37.464,-0.325,-0.07
20:35:37.468,-0.325,-0.055
20:35:37.472,-0.285,-0.06
20:35:37.476,-0.28,-0.06
20:35:37.480,-0.29,-0.08
20:35:37.484,-0.275,-0.07
20:35:37.488,-0.305,-0.07
20:35:37.492,-0.295,-0.075
20:35:37.496,-0.285,-0.085
20:35:37.500,-0.265,-0.08
20:35:37.504,-0.245,-0.105
20:35:37.508,-0.235,-0.09
20:35:37.512,-0.195,-0.095
20:35:37.516,-0.21,-0.07
20:35:37.520,-0.22,-0.065
20:35:37.524,-0.22,-0.03
20:35:37.528,-0.215,-0.005
20:35:37.532,-0.225,0.0
20:35:37.536,-0.23,0.005
20:35:37.540,-0.25,0.005
20:35:37.544,-0.255,0.01
20:35:37.548,-0.28,0.03
20:35:37.552,-0.255,0.02
20:35:37.556,-0.265,0.025
20:35:37.560,-0.27,0.03
20:35:37.564,-0.285,0.01
20:35:37.568,-0.28,0.01
20:35:37.572,-0.295,-0.005
20:35:37.576,-0.285,-0.03
20:35:37.580,-0.27,-0.045
20:35:37.584,-0.265,-0.055
20:35:37.588,-0.29,-0.065
20:35:37.592,-0.31,-0.07
20:35:37.596,-0.295,-0.085
20:35:37.600,-0.31,-0.075
20:35:37.604,-0.31,-0.06
20:35:37.608,-0.315,-0.09
20:35:37.612,-0.32,-0.08
20:35:37.616,-0.32,-0.09
20:35:37.620,-0.335,-0.095
20:35:37.624,-0.32,-0.08
20:35:37.628,-0.3,-0.07
20:35:37.632,-0.305,-0.08
20:35:37.636,-0.29,-0.09
20:35:37.640,-0.29,-0.075
20:35:37.644,-0.29,-0.07
20:35:37.648,-0.28,-0.055
20:35:37.652,-0.27,-0.075
20:35:37.656,-0.25,-0.065
20:35:37.660,-0.24,-0.06
20:35:37.664,-0.255,-0.05
20:35:37.668,-0.245,-0.065
20:35:37.672,-0.245,-0.055
20:35:37.676,-0.23,-0.05
20:35:37.680,-0.195,-0.035
20:35:37.684,-0.215,-0.055
20:35:37.688,-0.185,-0.065
20:35:37.692,-0.16,-0.05
20:35:37.696,-0.16,-0.05
20:35:37.700,-0.16,-0.07
20:35:37.704,-0.165,-0.075
20:35:37.708,-0.14,-0.075
20:35:37.712,-0.14,-0.06
20:35:37.716,-0.08,-0.055
20:35:37.720,-0.005,-0.065
20:35:37.724,0.08,-0.08
20:35:37.728,0.155,-0.1
20:35:37.732,0.225,-0.115
20:35:37.736,0.295,-0.12
20:35:37.740,0.3,-0.11
20:35:37.744,0.32,-0.12
20:35:37.748,0.305,-0.105
20:35:37.752,0.285,-0.135
20:35:37.756,0.33,-0.19
20:35:37.760,0.51,-0.33
20:35:37.764,0.815,-0.58
20:35:37.768,1.09,-0.845
20:35:37.772,1.215,-1.09
20:35:37.776,1.085,-1.18
20:35:37.780,0.63,-0.975
20:35:37.784,0.18,-0.62
20:35:37.788,-0.055,-0.31
20:35:37.792,-0.195,-0.12
20:35:37.796,-0.24,-0.02
20:35:37.800,-0.255,0.025
20:35:37.804,-0.275,0.055
20:35:37.808,-0.315,0.05
20:35:37.812,-0.345,0.035
20:35:37.816,-0.365,-0.01
20:35:37.820,-0.365,-0.055
20:35:37.824,-0.395,-0.075
20:35:37.828,-0.385,-0.12
20:35:37.832,-0.41,-0.12
20:35:37.836,-0.43,-0.15
20:35:37.840,-0.455,-0.14
20:35:37.844,-0.455,-0.14
20:35:37.848,-0.445,-0.15
20:35:37.852,-0.45,-0.14
20:35:37.856,-0.46,-0.18
20:35:37.860,-0.455,-0.135
20:35:37.864,-0.44,-0.165
20:35:37.868,-0.42,-0.145
20:35:37.872,-0.44,-0.14
20:35:37.876,-0.43,-0.155
20:35:37.880,-0.435,-0.14
20:35:37.884,-0.46,-0.145
20:35:37.888,-0.44,-0.155
20:35:37.892,-0.44,-0.155
20:35:37.896,-0.44,-0.16
20:35:37.900,-0.425,-0.15
20:35:37.904,-0.43,-0.155
20:35:37.908,-0.43,-0.145
20:35:37.912,-0.43,-0.115
20:35:37.916,-0.43,-0.12
20:35:37.920,-0.44,-0.145
20:35:37.924,-0.43,-0.13
20:35:37.928,-0.42,-0.125
20:35:37.932,-0.44,-0.12
20:35:37.936,-0.425,-0.12
20:35:37.940,-0.4,-0.1
20:35:37.944,-0.375,-0.095
20:35:37.948,-0.38,-0.115
20:35:37.952,-0.375,-0.095
20:35:37.956,-0.39,-0.08
20:35:37.960,-0.375,-0.1
20:35:37.964,-0.39,-0.08
20:35:37.968,-0.39,-0.085
20:35:37.972,-0.36,-0.105
20:35:37.976,-0.37,-0.1
20:35:37.980,-0.375,-0.12
20:35:37.984,-0.355,-0.12
20:35:37.988,-0.345,-0.16
20:35:37.992,-0.325,-0.16
20:35:37.996,-0.32,-0.185
20:35:38.000,-0.32,-0.185
20:35:38.004,-0.32,-0.2
20:35:38.008,-0.315,-0.215
20:35:38.012,-0.315,-0.22
20:35:38.016,-0.29,-0.24
20:35:38.020,-0.3,-0.235
20:35:38.024,-0.29,-0.245
20:35:38.028,-0.285,-0.26
20:35:38.032,-0.28,-0.255
20:35:38.036,-0.24,-0.27
20:35:38.040,-0.235,-0.27
20:35:38.044,-0.18,-0.3
20:35:38.048,-0.175,-0.31
20:35:38.052,-0.17,-0.305
20:35:38.056,-0.165,-0.335
20:35:38.060,-0.17,-0.335
20:35:38.064,-0.17,-0.35
20:35:38.068,-0.15,-0.355
20:35:38.072,-0.16,-0.34
20:35:38.076,-0.165,-0.345
20:35:38.080,-0.15,-0.345
20:35:38.084,-0.155,-0.37
20:35:38.088,-0.16,-0.36
20:35:38.092,-0.16,-0.365
20:35:38.096,-0.155,-0.38
20:35:38.100,-0.17,-0.37
20:35:38.104,-0.16,-0.39
20:35:38.108,-0.165,-0.38
20:35:38.112,-0.15,-0.4
20:35:38.116,-0.16,-0.43
20:35:38.120,-0.16,-0.395
20:35:38.124,-0.15,-0.405
20:35:38.128,-0.175,-0.4
20:35:38.132,-0.18,-0.405
20:35:38.136,-0.17,-0.395
20:35:38.140,-0.18,-0.415
20:35:38.144,-0.18,-0.415
20:35:38.148,-0.185,-0.41
20:35:38.152,-0.16,-0.385
20:35:38.156,-0.15,-0.4
20:35:38.160,-0.16,-0.385
20:35:38.164,-0.135,-0.355
20:35:38.168,-0.15,-0.355
20:35:38.172,-0.145,-0.37
20:35:38.176,-0.16,-0.35
20:35:38.180,-0.16,-0.385
20:35:38.184,-0.165,-0.38
20:35:38.188,-0.205,-0.36
20:35:38.192,-0.2,-0.38
20:35:38.196,-0.22,-0.375
20:35:38.200,-0.215,-0.39
20:35:38.204,-0.22,-0.4
20:35:38.208,-0.21,-0.41
20:35:38.212,-0.215,-0.425
20:35:38.216,-0.215,-0.41
20:35:38.220,-0.205,-0.43
20:35:38.224,-0.21,-0.41
20:35:38.228,-0.22,-0.405
20:35:38.232,-0.215,-0.415
20:35:38.236,-0.235,-0.39
20:35:38.240,-0.245,-0.415
20:35:38.244,-0.25,-0.425
20:35:38.248,-0.235,-0.425
20:35:38.252,-0.24,-0.445
20:35:38.256,-0.215,-0.44
20:35:38.260,-0.195,-0.44
20:35:38.264,-0.19,-0.44
20:35:38.268,-0.18,-0.43
20:35:38.272,-0.195,-0.435
20:35:38.276,-0.18,-0.44
20:35:38.280,-0.17,-0.445
20:35:38.284,-0.165,-0.455
20:35:38.288,-0.16,-0.45
20:35:38.292,-0.155,-0.455
20:35:38.296,-0.145,-0.445
20:35:38.300,-0.11,-0.44
20:35:38.304,-0.045,-0.44
20:35:38.308,0.01,-0.46
20:35:38.312,0.11,-0.465
20:35:38.316,0.205,-0.48
20:35:38.320,0.275,-0.485
20:35:38.324,0.325,-0.555
20:35:38.328,0.385,-0.545
20:35:38.332,0.415,-0.52
20:35:38.336,0.4,-0.525
20:35:38.340,0.405,-0.575
20:35:38.344,0.54,-0.675
20:35:38.348,0.795,-0.865
20:35:38.352,1.115,-1.095
20:35:38.356,1.305,-1.295
20:35:38.360,1.22,-1.39
20:35:38.364,0.82,-1.265
20:35:38.368,0.36,-0.91
20:35:38.372,0.045,-0.605
20:35:38.376,-0.1,-0.415
20:35:38.380,-0.16,-0.3
20:35:38.384,-0.19,-0.17
20:35:38.388,-0.245,-0.12
20:35:38.392,-0.295,-0.09
20:35:38.396,-0.325,-0.075
20:35:38.400,-0.35,-0.06
20:35:38.404,-0.35,-0.08
20:35:38.408,-0.375,-0.105
20:35:38.412,-0.385,-0.125
20:35:38.416,-0.4,-0.115
20:35:38.420,-0.415,-0.13
20:35:38.424,-0.435,-0.11
20:35:38.428,-0.47,-0.1
20:35:38.432,-0.46,-0.115
20:35:38.436,-0.455,-0.095
20:35:38.440,-0.475,-0.095
20:35:38.444,-0.48,-0.085
20:35:38.448,-0.48,-0.09
20:35:38.452,-0.465,-0.09
20:35:38.456,-0.49,-0.09
20:35:38.460,-0.5,-0.1
20:35:38.464,-0.51,-0.125
20:35:38.468,-0.51,-0.125
20:35:38.472,-0.515,-0.12
20:35:38.476,-0.535,-0.135
20:35:38.480,-0.52,-0.125
20:35:38.484,-0.54,-0.125
20:35:38.488,-0.55,-0.12
20:35:38.492,-0.535,-0.11
20:35:38.496,-0.535,-0.095
20:35:38.500,-0.51,-0.095
20:35:38.504,-0.495,-0.09
20:35:38.508,-0.505,-0.06
20:35:38.512,-0.475,-0.06
20:35:38.516,-0.46,-0.055
20:35:38.520,-0.445,-0.04
20:35:38.524,-0.435,-0.04
20:35:38.528,-0.435,-0.025
20:35:38.532,-0.435,-0.025
20:35:38.536,-0.425,-0.005
20:35:38.540,-0.42,-0.005
20:35:38.544,-0.415,-0.015
20:35:38.548,-0.37,0.0
20:35:38.552,-0.365,-0.005
20:35:38.556,-0.35,-0.02
20:35:38.560,-0.355,-0.03
20:35:38.564,-0.35,-0.02
20:35:38.568,-0.325,-0.035
20:35:38.572,-0.31,-0.025
20:35:38.576,-0.29,-0.015
20:35:38.580,-0.285,-0.015
20:35:38.584,-0.29,-0.005
20:35:38.588,-0.26,0.01
20:35:38.592,-0.265,0.0
20:35:38.596,-0.225,0.0
20:35:38.600,-0.225,-0.02
20:35:38.604,-0.2,-0.015
20:35:38.608,-0.21,0.0
20:35:38.612,-0.215,-0.04
20:35:38.616,-0.22,-0.035
20:35:38.620,-0.205,-0.035
20:35:38.624,-0.22,-0.02
20:35:38.628,-0.215,-0.025
20:35:38.632,-0.23,-0.025
20:35:38.636,-0.22,-0.02
20:35:38.640,-0.23,-0.035
20:35:38.644,-0.245,-0.06
20:35:38.648,-0.24,-0.045
20:35:38.652,-0.255,-0.055
20:35:38.656,-0.28,-0.065
20:35:38.660,-0.285,-0.115
20:35:38.664,-0.305,-0.105
20:35:38.668,-0.28,-0.12
20:35:38.672,-0.27,-0.135
20:35:38.676,-0.28,-0.13
20:35:38.680,-0.285,-0.12
20:35:38.684,-0.315,-0.105
20:35:38.688,-0.295,-0.105
20:35:38.692,-0.305,-0.1
20:35:38.696,-0.32,-0.09
20:35:38.700,-0.315,-0.06
20:35:38.704,-0.31,-0.075
20:35:38.708,-0.32,-0.08
20:35:38.712,-0.3,-0.075
20:35:38.716,-0.275,-0.055
20:35:38.720,-0.245,-0.065
20:35:38.724,-0.225,-0.03
20:35:38.728,-0.195,0.0
20:35:38.732,-0.18,-0.01
20:35:38.736,-0.18,-0.015
20:35:38.740,-0.155,-0.02
20:35:38.744,-0.125,0.015
20:35:38.748,-0.11,0.005
20:35:38.752,-0.06,-0.005
20:35:38.756,0.005,-0.02
20:35:38.760,0.075,-0.01
20:35:38.764,0.125,-0.01
20:35:38.768,0.195,-0.03
20:35:38.772,0.21,-0.05
20:35:38.776,0.235,-0.12
20:35:38.780,0.215,-0.105
20:35:38.784,0.175,-0.1
20:35:38.788,0.18,-0.16
20:35:38.792,0.23,-0.225
20:35:38.796,0.455,-0.35
20:35:38.800,0.805,-0.605
20:35:38.804,1.09,-0.885
20:35:38.808,1.235,-1.11
20:35:38.812,1.125,-1.155
20:35:38.816,0.78,-0.965
20:35:38.820,0.295,-0.585
20:35:38.824,-0.045,-0.255
20:35:38.828,-0.185,-0.035
20:35:38.832,-0.245,0.07
20:35:38.836,-0.28,0.125
20:35:38.840,-0.305,0.11
20:35:38.844,-0.31,0.12
20:35:38.848,-0.34,0.115
20:35:38.852,-0.345,0.105
20:35:38.856,-0.37,0.105
20:35:38.860,-0.375,0.065
20:35:38.864,-0.375,0.06
