Time,ECG1,ECG2
15:24:00.000,-0.495,-0.025
15:24:00.004,-0.5,0.025
15:24:00.008,-0.48,0.07
15:24:00.012,-0.47,0.045
15:24:00.016,-0.465,0.035
15:24:00.020,-0.455,0.05
15:24:00.024,-0.47,0.04
15:24:00.028,-0.46,0.065
15:24:00.032,-0.46,0.065
15:24:00.036,-0.465,0.065
15:24:00.040,-0.47,0.035
15:24:00.044,-0.485,0.0
15:24:00.048,-0.5,-0.04
15:24:00.052,-0.49,-0.055
15:24:00.056,-0.485,-0.055
15:24:00.060,-0.5,-0.045
15:24:00.064,-0.49,-0.02
15:24:00.068,-0.53,0.01
15:24:00.072,-0.515,0.015
15:24:00.076,-0.51,0.0
15:24:00.080,-0.5,-0.025
15:24:00.084,-0.505,-0.035
15:24:00.088,-0.505,-0.05
15:24:00.092,-0.505,-0.07
15:24:00.096,-0.475,-0.06
15:24:00.100,-0.49,-0.04
15:24:00.104,-0.47,-0.035
15:24:00.108,-0.455,-0.005
15:24:00.112,-0.425,0.005
15:24:00.116,-0.43,-0.02
15:24:00.120,-0.415,-0.025
15:24:00.124,-0.395,-0.035
15:24:00.128,-0.4,-0.005
15:24:00.132,-0.405,-0.01
15:24:00.136,-0.405,0.0
15:24:00.140,-0.395,-0.005
15:24:00.144,-0.4,-0.02
15:24:00.148,-0.405,-0.045
15:24:00.152,-0.395,-0.085
15:24:00.156,-0.38,-0.07
15:24:00.160,-0.395,-0.08
15:24:00.164,-0.38,-0.08
15:24:00.168,-0.37,-0.085
15:24:00.172,-0.365,-0.08
15:24:00.176,-0.36,-0.115
15:24:00.180,-0.36,-0.145
15:24:00.184,-0.35,-0.135
15:24:00.188,-0.325,-0.135
15:24:00.192,-0.32,-0.145
15:24:00.196,-0.3,-0.13
15:24:00.200,-0.29,-0.13
15:24:00.204,-0.325,-0.12
15:24:00.208,-0.34,-0.1
15:24:00.212,-0.34,-0.105
15:24:00.216,-0.32,-0.11
15:24:00.220,-0.31,-0.13
15:24:00.224,-0.295,-0.12
15:24:00.228,-0.29,-0.12
15:24:00.232,-0.31,-0.095
15:24:00.236,-0.275,-0.135
15:24:00.240,-0.305,-0.16
15:24:00.244,-0.305,-0.15
15:24:00.248,-0.29,-0.155
15:24:00.252,-0.29,-0.185
15:24:00.256,-0.275,-0.175
15:24:00.260,-0.265,-0.135
15:24:00.264,-0.245,-0.09
15:24:00.268,-0.275,-0.1
15:24:00.272,-0.28,-0.175
15:24:00.276,-0.25,-0.265
15:24:00.280,-0.285,-0.265
15:24:00.284,-0.32,-0.26
15:24:00.288,-0.3,-0.28
15:24:00.292,-0.3,-0.275
15:24:00.296,-0.315,-0.28
15:24:00.300,-0.32,-0.305
15:24:00.304,-0.325,-0.28
15:24:00.308,-0.33,-0.265
15:24:00.312,-0.335,-0.285
15:24:00.316,-0.355,-0.29
15:24:00.320,-0.375,-0.29
15:24:00.324,-0.36,-0.29
15:24:00.328,-0.375,-0.28
15:24:00.332,-0.36,-0.245
15:24:00.336,-0.38,-0.285
15:24:00.340,-0.345,-0.285
15:24:00.344,-0.345,-0.32
15:24:00.348,-0.34,-0.26
15:24:00.352,-0.305,-0.235
15:24:00.356,-0.33,-0.25
15:24:00.360,-0.3,-0.265
15:24:00.364,-0.315,-0.275
15:24:00.368,-0.3,-0.305
15:24:00.372,-0.305,-0.335
15:24:00.376,-0.285,-0.315
15:24:00.380,-0.26,-0.295
15:24:00.384,-0.28,-0.265
15:24:00.388,-0.315,-0.245
15:24:00.392,-0.3,-0.25
15:24:00.396,-0.31,-0.24
15:24:00.400,-0.32,-0.205
15:24:00.404,-0.31,-0.2
15:24:00.408,-0.335,-0.21
15:24:00.412,-0.325,-0.25
15:24:00.416,-0.285,-0.265
15:24:00.420,-0.305,-0.25
15:24:00.424,-0.31,-0.245
15:24:00.428,-0.295,-0.23
15:24:00.432,-0.31,-0.2
15:24:00.436,-0.29,-0.19
15:24:00.440,-0.24,-0.21
15:24:00.444,-0.15,-0.225
15:24:00.448,-0.1,-0.22
15:24:00.452,-0.02,-0.19
15:24:00.456,0.03,-0.21
15:24:00.460,0.075,-0.235
15:24:00.464,0.115,-0.32
15:24:00.468,0.215,-0.47
15:24:00.472,0.29,-0.59
15:24:00.476,0.305,-0.735
15:24:00.480,0.315,-0.955
15:24:00.484,0.355,-1.205
15:24:00.488,0.51,-1.445
15:24:00.492,0.81,-1.725
15:24:00.496,1.08,-1.985
15:24:00.500,1.225,-2.205
15:24:00.504,1.025,-2.28
15:24:00.508,0.525,-2.155
15:24:00.512,0.0,-1.73
15:24:00.516,-0.385,-1.275
15:24:00.520,-0.505,-0.965
15:24:00.524,-0.575,-0.755
15:24:00.528,-0.6,-0.58
15:24:00.532,-0.59,-0.455
15:24:00.536,-0.58,-0.335
15:24:00.540,-0.58,-0.245
15:24:00.544,-0.58,-0.18
15:24:00.548,-0.595,-0.14
15:24:00.552,-0.575,-0.105
15:24:00.556,-0.58,-0.115
15:24:00.560,-0.585,-0.105
15:24:00.564,-0.6,-0.1
15:24:00.568,-0.595,-0.12
15:24:00.572,-0.585,-0.115
15:24:00.576,-0.585,-0.075
15:24:00.580,-0.605,-0.065
15:24:00.584,-0.61,-0.075
15:24:00.588,-0.605,-0.08
15:24:00.592,-0.6,-0.055
15:24:00.596,-0.575,-0.045
15:24:00.600,-0.565,-0.055
15:24:00.604,-0.56,-0.055
15:24:00.608,-0.57,-0.035
15:24:00.612,-0.555,-0.02
15:24:00.616,-0.56,-0.01
15:24:00.620,-0.55,0.0
15:24:00.624,-0.555,0.0
15:24:00.628,-0.545,0.015
15:24:00.632,-0.515,0.04
15:24:00.636,-0.51,0.04
15:24:00.640,-0.495,0.075
15:24:00.644,-0.47,0.09
15:24:00.648,-0.495,0.07
15:24:00.652,-0.52,0.04
15:24:00.656,-0.545,0.045
15:24:00.660,-0.51,0.09
15:24:00.664,-0.51,0.14
15:24:00.668,-0.53,0.125
15:24:00.672,-0.51,0.1
15:24:00.676,-0.515,0.07
15:24:00.680,-0.515,0.09
15:24:00.684,-0.515,0.115
15:24:00.688,-0.505,0.07
15:24:00.692,-0.525,0.05
15:24:00.696,-0.515,0.0
15:24:00.700,-0.52,-0.005
15:24:00.704,-0.53,0.0
15:24:00.708,-0.53,-0.025
15:24:00.712,-0.51,-0.045
15:24:00.716,-0.535,-0.045
15:24:00.720,-0.53,-0.045
15:24:00.724,-0.54,-0.045
15:24:00.728,-0.51,-0.03
15:24:00.732,-0.51,-0.02
15:24:00.736,-0.505,-0.03
15:24:00.740,-0.515,-0.135
15:24:00.744,-0.51,-0.215
15:24:00.748,-0.505,-0.26
15:24:00.752,-0.5,-0.255
15:24:00.756,-0.52,-0.25
15:24:00.760,-0.49,-0.2
15:24:00.764,-0.485,-0.215
15:24:00.768,-0.48,-0.245
15:24:00.772,-0.465,-0.26
15:24:00.776,-0.455,-0.3
15:24:00.780,-0.44,-0.29
15:24:00.784,-0.45,-0.305
15:24:00.788,-0.415,-0.305
15:24:00.792,-0.43,-0.33
15:24:00.796,-0.405,-0.34
15:24:00.800,-0.385,-0.295
15:24:00.804,-0.4,-0.28
15:24:00.808,-0.395,-0.255
15:24:00.812,-0.395,-0.245
15:24:00.816,-0.395,-0.22
15:24:00.820,-0.37,-0.2
15:24:00.824,-0.395,-0.205
15:24:00.828,-0.395,-0.175
15:24:00.832,-0.38,-0.15
15:24:00.836,-0.36,-0.16
15:24:00.840,-0.34,-0.185
15:24:00.844,-0.345,-0.195
15:24:00.848,-0.34,-0.15
15:24:00.852,-0.34,-0.16
15:24:00.856,-0.35,-0.095
15:24:00.860,-0.35,-0.15
15:24:00.864,-0.355,-0.205
15:24:00.868,-0.34,-0.225
15:24:00.872,-0.35,-0.225
15:24:00.876,-0.35,-0.235
15:24:00.880,-0.34,-0.27
15:24:00.884,-0.345,-0.27
15:24:00.888,-0.355,-0.235
15:24:00.892,-0.37,-0.25
15:24:00.896,-0.37,-0.23
15:24:00.900,-0.375,-0.255
15:24:00.904,-0.4,-0.28
15:24:00.908,-0.395,-0.26
15:24:00.912,-0.42,-0.24
15:24:00.916,-0.45,-0.26
15:24:00.920,-0.46,-0.27
15:24:00.924,-0.455,-0.255
15:24:00.928,-0.425,-0.24
15:24:00.932,-0.455,-0.245
15:24:00.936,-0.45,-0.23
15:24:00.940,-0.475,-0.225
15:24:00.944,-0.465,-0.27
15:24:00.948,-0.44,-0.295
15:24:00.952,-0.45,-0.3
15:24:00.956,-0.46,-0.295
15:24:00.960,-0.47,-0.29
15:24:00.964,-0.465,-0.29
15:24:00.968,-0.465,-0.295
15:24:00.972,-0.46,-0.315
15:24:00.976,-0.445,-0.315
15:24:00.980,-0.455,-0.31
15:24:00.984,-0.44,-0.3
15:24:00.988,-0.435,-0.255
15:24:00.992,-0.42,-0.26
15:24:00.996,-0.435,-0.26
15:24:01.000,-0.42,-0.33
15:24:01.004,-0.44,-0.36
15:24:01.008,-0.43,-0.345
15:24:01.012,-0.41,-0.29
15:24:01.016,-0.41,-0.285
15:24:01.020,-0.425,-0.245
15:24:01.024,-0.405,-0.23
15:24:01.028,-0.395,-0.22
15:24:01.032,-0.375,-0.28
15:24:01.036,-0.39,-0.33
15:24:01.040,-0.375,-0.325
15:24:01.044,-0.36,-0.315
15:24:01.048,-0.35,-0.29
15:24:01.052,-0.35,-0.285
15:24:01.056,-0.34,-0.295
15:24:01.060,-0.345,-0.32
15:24:01.064,-0.33,-0.33
15:24:01.068,-0.275,-0.31
15:24:01.072,-0.225,-0.31
15:24:01.076,-0.135,-0.285
15:24:01.080,-0.045,-0.295
15:24:01.084,0.065,-0.34
15:24:01.088,0.12,-0.43
15:24:01.092,0.19,-0.54
15:24:01.096,0.275,-0.63
15:24:01.100,0.29,-0.755
15:24:01.104,0.34,-0.88
15:24:01.108,0.365,-1.045
15:24:01.112,0.39,-1.24
15:24:01.116,0.555,-1.47
15:24:01.120,0.835,-1.74
15:24:01.124,1.13,-2.005
15:24:01.128,1.275,-2.18
15:24:01.132,1.1,-2.225
15:24:01.136,0.645,-2.045
15:24:01.140,0.1,-1.59
15:24:01.144,-0.28,-1.15
15:24:01.148,-0.435,-0.88
15:24:01.152,-0.54,-0.715
15:24:01.156,-0.565,-0.555
15:24:01.160,-0.565,-0.425
15:24:01.164,-0.57,-0.315
15:24:01.168,-0.6,-0.22
15:24:01.172,-0.63,-0.17
15:24:01.176,-0.635,-0.125
15:24:01.180,-0.64,-0.11
15:24:01.184,-0.64,-0.09
15:24:01.188,-0.63,-0.08
15:24:01.192,-0.645,-0.075
15:24:01.196,-0.64,-0.11
15:24:01.200,-0.64,-0.115
15:24:01.204,-0.64,-0.105
15:24:01.208,-0.65,-0.11
15:24:01.212,-0.635,-0.095
15:24:01.216,-0.645,-0.08
15:24:01.220,-0.625,-0.075
15:24:01.224,-0.605,-0.09
15:24:01.228,-0.595,-0.075
15:24:01.232,-0.61,-0.035
15:24:01.236,-0.58,-0.04
15:24:01.240,-0.6,-0.015
15:24:01.244,-0.61,-0.01
15:24:01.248,-0.63,0.0
15:24:01.252,-0.63,0.0
15:24:01.256,-0.625,-0.01
15:24:01.260,-0.62,-0.05
15:24:01.264,-0.63,-0.055
15:24:01.268,-0.625,-0.05
15:24:01.272,-0.61,-0.085
15:24:01.276,-0.615,-0.095
15:24:01.280,-0.64,-0.075
15:24:01.284,-0.615,-0.045
15:24:01.288,-0.605,0.0
15:24:01.292,-0.59,0.045
15:24:01.296,-0.59,0.045
15:24:01.300,-0.605,0.0
15:24:01.304,-0.58,-0.035
15:24:01.308,-0.565,-0.06
15:24:01.312,-0.57,-0.035
15:24:01.316,-0.545,-0.045
15:24:01.320,-0.525,-0.03
15:24:01.324,-0.51,-0.005
15:24:01.328,-0.5,-0.03
15:24:01.332,-0.49,0.0
15:24:01.336,-0.48,-0.015
15:24:01.340,-0.46,0.0
15:24:01.344,-0.465,0.0
15:24:01.348,-0.47,0.025
15:24:01.352,-0.455,0.06
15:24:01.356,-0.475,0.005
15:24:01.360,-0.525,-0.035
15:24:01.364,-0.535,-0.005
15:24:01.368,-0.525,-0.025
15:24:01.372,-0.505,-0.06
15:24:01.376,-0.495,-0.095
15:24:01.380,-0.48,-0.135
15:24:01.384,-0.48,-0.12
15:24:01.388,-0.48,-0.115
15:24:01.392,-0.45,-0.16
15:24:01.396,-0.46,-0.17
15:24:01.400,-0.44,-0.18
15:24:01.404,-0.41,-0.175
15:24:01.408,-0.39,-0.15
15:24:01.412,-0.395,-0.15
15:24:01.416,-0.385,-0.17
15:24:01.420,-0.345,-0.165
15:24:01.424,-0.35,-0.18
15:24:01.428,-0.365,-0.205
15:24:01.432,-0.365,-0.2
15:24:01.436,-0.355,-0.2
15:24:01.440,-0.375,-0.205
15:24:01.444,-0.34,-0.245
15:24:01.448,-0.36,-0.24
15:24:01.452,-0.35,-0.225
15:24:01.456,-0.365,-0.24
15:24:01.460,-0.38,-0.23
15:24:01.464,-0.38,-0.27
15:24:01.468,-0.375,-0.26
15:24:01.472,-0.385,-0.25
15:24:01.476,-0.395,-0.28
15:24:01.480,-0.4,-0.285
15:24:01.484,-0.415,-0.265
15:24:01.488,-0.45,-0.26
15:24:01.492,-0.465,-0.255
15:24:01.496,-0.465,-0.22
15:24:01.500,-0.47,-0.22
15:24:01.504,-0.45,-0.23
15:24:01.508,-0.455,-0.245
15:24:01.512,-0.43,-0.205
15:24:01.516,-0.435,-0.195
15:24:01.520,-0.435,-0.2
15:24:01.524,-0.44,-0.22
15:24:01.528,-0.435,-0.24
15:24:01.532,-0.425,-0.245
15:24:01.536,-0.38,-0.25
15:24:01.540,-0.365,-0.26
15:24:01.544,-0.355,-0.21
15:24:01.548,-0.33,-0.215
15:24:01.552,-0.34,-0.215
15:24:01.556,-0.325,-0.225
15:24:01.560,-0.315,-0.24
15:24:01.564,-0.3,-0.225
15:24:01.568,-0.29,-0.215
15:24:01.572,-0.26,-0.22
15:24:01.576,-0.305,-0.235
15:24:01.580,-0.305,-0.225
15:24:01.584,-0.33,-0.2
15:24:01.588,-0.355,-0.175
15:24:01.592,-0.385,-0.2
15:24:01.596,-0.385,-0.22
15:24:01.600,-0.415,-0.22
15:24:01.604,-0.44,-0.2
15:24:01.608,-0.42,-0.19
15:24:01.612,-0.4,-0.215
15:24:01.616,-0.415,-0.23
15:24:01.620,-0.43,-0.245
15:24:01.624,-0.415,-0.25
15:24:01.628,-0.415,-0.27
15:24:01.632,-0.43,-0.25
15:24:01.636,-0.4,-0.28
15:24:01.640,-0.43,-0.295
15:24:01.644,-0.425,-0.315
15:24:01.648,-0.425,-0.31
15:24:01.652,-0.425,-0.305
15:24:01.656,-0.415,-0.31
15:24:01.660,-0.395,-0.3
15:24:01.664,-0.4,-0.295
15:24:01.668,-0.405,-0.285
15:24:01.672,-0.42,-0.28
15:24:01.676,-0.415,-0.27
15:24:01.680,-0.41,-0.24
15:24:01.684,-0.405,-0.215
15:24:01.688,-0.395,-0.16
15:24:01.692,-0.385,-0.16
15:24:01.696,-0.385,-0.2
15:24:01.700,-0.365,-0.27
15:24:01.704,-0.385,-0.28
15:24:01.708,-0.37,-0.26
15:24:01.712,-0.37,-0.255
15:24:01.716,-0.37,-0.245
15:24:01.720,-0.355,-0.24
15:24:01.724,-0.3,-0.25
15:24:01.728,-0.215,-0.285
15:24:01.732,-0.125,-0.32
15:24:01.736,-0.06,-0.34
15:24:01.740,-0.02,-0.34
15:24:01.744,0.035,-0.415
15:24:01.748,0.11,-0.535
15:24:01.752,0.16,-0.645
15:24:01.756,0.195,-0.8
15:24:01.760,0.22,-0.96
15:24:01.764,0.27,-1.155
15:24:01.768,0.415,-1.425
15:24:01.772,0.705,-1.73
15:24:01.776,1.035,-2.055
15:24:01.780,1.23,-2.275
15:24:01.784,1.155,-2.35
15:24:01.788,0.805,-2.225
15:24:01.792,0.245,-1.835
15:24:01.796,-0.155,-1.36
15:24:01.800,-0.4,-1.015
15:24:01.804,-0.48,-0.795
15:24:01.808,-0.545,-0.605
15:24:01.812,-0.555,-0.44
15:24:01.816,-0.59,-0.315
15:24:01.820,-0.61,-0.2
15:24:01.824,-0.615,-0.105
15:24:01.828,-0.61,-0.065
15:24:01.832,-0.615,-0.07
15:24:01.836,-0.62,-0.085
15:24:01.840,-0.64,-0.105
15:24:01.844,-0.64,-0.095
15:24:01.848,-0.63,-0.105
15:24:01.852,-0.64,-0.105
15:24:01.856,-0.655,-0.09
15:24:01.860,-0.64,-0.07
15:24:01.864,-0.64,-0.035
15:24:01.868,-0.65,-0.02
15:24:01.872,-0.655,-0.055
15:24:01.876,-0.66,-0.055
15:24:01.880,-0.65,-0.065
15:24:01.884,-0.65,-0.035
15:24:01.888,-0.66,-0.045
15:24:01.892,-0.67,-0.05
15:24:01.896,-0.68,-0.03
15:24:01.900,-0.68,-0.01
15:24:01.904,-0.695,0.015
15:24:01.908,-0.68,-0.015
15:24:01.912,-0.695,-0.08
15:24:01.916,-0.7,-0.07
15:24:01.920,-0.675,-0.03
15:24:01.924,-0.65,0.005
15:24:01.928,-0.615,0.025
15:24:01.932,-0.64,0.02
15:24:01.936,-0.655,0.02
15:24:01.940,-0.65,0.055
15:24:01.944,-0.65,0.025
15:24:01.948,-0.64,-0.005
15:24:01.952,-0.61,-0.015
15:24:01.956,-0.61,-0.025
15:24:01.960,-0.595,-0.025
15:24:01.964,-0.595,-0.02
15:24:01.968,-0.585,-0.04
15:24:01.972,-0.56,-0.04
15:24:01.976,-0.56,-0.04
15:24:01.980,-0.57,-0.025
15:24:01.984,-0.565,-0.015
15:24:01.988,-0.545,-0.025
15:24:01.992,-0.53,-0.02
15:24:01.996,-0.535,-0.045
15:24:02.000,-0.54,-0.065
15:24:02.004,-0.555,-0.13
15:24:02.008,-0.555,-0.12
15:24:02.012,-0.55,-0.125
15:24:02.016,-0.555,-0.12
15:24:02.020,-0.545,-0.14
15:24:02.024,-0.54,-0.15
15:24:02.028,-0.555,-0.185
15:24:02.032,-0.56,-0.225
15:24:02.036,-0.565,-0.22
15:24:02.040,-0.53,-0.22
15:24:02.044,-0.54,-0.21
15:24:02.048,-0.545,-0.19
15:24:02.052,-0.53,-0.18
15:24:02.056,-0.5,-0.195
15:24:02.060,-0.5,-0.23
15:24:02.064,-0.52,-0.235
15:24:02.068,-0.51,-0.22
15:24:02.072,-0.5,-0.23
15:24:02.076,-0.495,-0.2
15:24:02.080,-0.47,-0.185
15:24:02.084,-0.475,-0.195
15:24:02.088,-0.47,-0.2
15:24:02.092,-0.48,-0.23
15:24:02.096,-0.49,-0.275
15:24:02.100,-0.515,-0.295
15:24:02.104,-0.51,-0.225
15:24:02.108,-0.51,-0.16
15:24:02.112,-0.525,-0.145
15:24:02.116,-0.555,-0.205
15:24:02.120,-0.54,-0.24
15:24:02.124,-0.535,-0.245
15:24:02.128,-0.53,-0.255
15:24:02.132,-0.54,-0.245
15:24:02.136,-0.535,-0.285
15:24:02.140,-0.54,-0.265
15:24:02.144,-0.55,-0.245
15:24:02.148,-0.545,-0.215
15:24:02.152,-0.57,-0.255
15:24:02.156,-0.585,-0.295
15:24:02.160,-0.575,-0.38
15:24:02.164,-0.57,-0.385
15:24:02.168,-0.545,-0.38
15:24:02.172,-0.555,-0.405
15:24:02.176,-0.57,-0.375
15:24:02.180,-0.58,-0.375
15:24:02.184,-0.58,-0.35
15:24:02.188,-0.595,-0.33
15:24:02.192,-0.6,-0.35
15:24:02.196,-0.58,-0.295
15:24:02.200,-0.545,-0.28
15:24:02.204,-0.53,-0.28
15:24:02.208,-0.51,-0.32
15:24:02.212,-0.49,-0.385
15:24:02.216,-0.5,-0.42
15:24:02.220,-0.5,-0.39
15:24:02.224,-0.465,-0.37
15:24:02.228,-0.475,-0.32
15:24:02.232,-0.465,-0.295
15:24:02.236,-0.455,-0.25
15:24:02.240,-0.475,-0.25
15:24:02.244,-0.445,-0.295
15:24:02.248,-0.425,-0.33
15:24:02.252,-0.44,-0.35
15:24:02.256,-0.455,-0.34
15:24:02.260,-0.465,-0.33
15:24:02.264,-0.475,-0.3
15:24:02.268,-0.53,-0.27
15:24:02.272,-0.58,-0.245
15:24:02.276,-0.63,-0.235
15:24:02.280,-0.66,-0.24
15:24:02.284,-0.65,-0.225
15:24:02.288,-0.62,-0.185
15:24:02.292,-0.61,-0.16
15:24:02.296,-0.595,-0.185
15:24:02.300,-0.56,-0.19
15:24:02.304,-0.56,-0.2
15:24:02.308,-0.53,-0.21
15:24:02.312,-0.51,-0.235
15:24:02.316,-0.51,-0.24
15:24:02.320,-0.515,-0.25
15:24:02.324,-0.505,-0.255
15:24:02.328,-0.505,-0.27
15:24:02.332,-0.49,-0.3
15:24:02.336,-0.495,-0.32
15:24:02.340,-0.515,-0.36
15:24:02.344,-0.52,-0.355
15:24:02.348,-0.525,-0.35
15:24:02.352,-0.505,-0.355
15:24:02.356,-0.51,-0.365
15:24:02.360,-0.51,-0.32
15:24:02.364,-0.5,-0.31
15:24:02.368,-0.49,-0.33
15:24:02.372,-0.53,-0.36
15:24:02.376,-0.53,-0.37
15:24:02.380,-0.525,-0.39
15:24:02.384,-0.535,-0.36
15:24:02.388,-0.55,-0.35
15:24:02.392,-0.56,-0.365
15:24:02.396,-0.56,-0.405
15:24:02.400,-0.57,-0.43
15:24:02.404,-0.59,-0.43
15:24:02.408,-0.585,-0.395
15:24:02.412,-0.585,-0.37
15:24:02.416,-0.565,-0.38
15:24:02.420,-0.56,-0.395
15:24:02.424,-0.55,-0.37
15:24:02.428,-0.545,-0.375
15:24:02.432,-0.49,-0.355
15:24:02.436,-0.43,-0.355
15:24:02.440,-0.325,-0.37
15:24:02.444,-0.225,-0.41
15:24:02.448,-0.125,-0.41
15:24:02.452,-0.06,-0.415
15:24:02.456,0.0,-0.47
15:24:02.460,0.075,-0.52
15:24:02.464,0.195,-0.615
15:24:02.468,0.29,-0.72
15:24:02.472,0.335,-0.87
15:24:02.476,0.39,-1.055
15:24:02.480,0.44,-1.295
15:24:02.484,0.61,-1.525
15:24:02.488,0.895,-1.76
15:24:02.492,1.12,-1.965
15:24:02.496,1.195,-2.11
15:24:02.500,0.96,-2.065
15:24:02.504,0.475,-1.78
15:24:02.508,-0.055,-1.305
15:24:02.512,-0.375,-0.97
15:24:02.516,-0.51,-0.755
15:24:02.520,-0.58,-0.645
15:24:02.524,-0.625,-0.52
15:24:02.528,-0.6,-0.375
15:24:02.532,-0.635,-0.25
15:24:02.536,-0.67,-0.155
15:24:02.540,-0.69,-0.095
15:24:02.544,-0.67,-0.12
15:24:02.548,-0.68,-0.135
15:24:02.552,-0.685,-0.115
15:24:02.556,-0.685,-0.08
15:24:02.560,-0.67,-0.08
15:24:02.564,-0.625,-0.095
15:24:02.568,-0.655,-0.14
15:24:02.572,-0.66,-0.145
15:24:02.576,-0.675,-0.13
15:24:02.580,-0.675,-0.12
15:24:02.584,-0.66,-0.105
15:24:02.588,-0.66,-0.075
15:24:02.592,-0.64,-0.115
15:24:02.596,-0.645,-0.135
15:24:02.600,-0.64,-0.16
15:24:02.604,-0.665,-0.145
15:24:02.608,-0.665,-0.12
15:24:02.612,-0.66,-0.105
15:24:02.616,-0.655,-0.075
15:24:02.620,-0.655,-0.115
15:24:02.624,-0.66,-0.095
15:24:02.628,-0.64,-0.085
15:24:02.632,-0.64,-0.095
15:24:02.636,-0.645,-0.085
15:24:02.640,-0.64,-0.09
15:24:02.644,-0.61,-0.085
15:24:02.648,-0.615,-0.06
15:24:02.652,-0.625,0.005
15:24:02.656,-0.64,0.005
15:24:02.660,-0.62,0.02
15:24:02.664,-0.61,0.01
15:24:02.668,-0.6,0.005
15:24:02.672,-0.575,0.015
15:24:02.676,-0.565,0.035
15:24:02.680,-0.515,0.045
15:24:02.684,-0.51,0.055
15:24:02.688,-0.47,0.08
15:24:02.692,-0.505,0.075
15:24:02.696,-0.5,0.09
15:24:02.700,-0.495,0.075
15:24:02.704,-0.49,0.07
15:24:02.708,-0.495,0.07
15:24:02.712,-0.515,0.02
15:24:02.716,-0.51,0.005
15:24:02.720,-0.495,-0.065
15:24:02.724,-0.5,-0.125
15:24:02.728,-0.53,-0.14
15:24:02.732,-0.545,-0.14
15:24:02.736,-0.55,-0.14
15:24:02.740,-0.535,-0.16
15:24:02.744,-0.525,-0.165
15:24:02.748,-0.505,-0.18
15:24:02.752,-0.51,-0.195
15:24:02.756,-0.51,-0.155
15:24:02.760,-0.495,-0.17
15:24:02.764,-0.485,-0.22
15:24:02.768,-0.49,-0.24
15:24:02.772,-0.465,-0.28
15:24:02.776,-0.465,-0.28
15:24:02.780,-0.44,-0.27
15:24:02.784,-0.43,-0.23
15:24:02.788,-0.43,-0.205
15:24:02.792,-0.425,-0.25
15:24:02.796,-0.425,-0.27
15:24:02.800,-0.425,-0.285
15:24:02.804,-0.41,-0.29
15:24:02.808,-0.415,-0.305
15:24:02.812,-0.425,-0.28
15:24:02.816,-0.395,-0.26
15:24:02.820,-0.42,-0.22
15:24:02.824,-0.41,-0.205
15:24:02.828,-0.4,-0.255
15:24:02.832,-0.395,-0.28
15:24:02.836,-0.385,-0.25
15:24:02.840,-0.375,-0.235
15:24:02.844,-0.375,-0.2
15:24:02.848,-0.365,-0.21
15:24:02.852,-0.355,-0.22
15:24:02.856,-0.355,-0.275
15:24:02.860,-0.345,-0.305
15:24:02.864,-0.33,-0.28
15:24:02.868,-0.32,-0.25
15:24:02.872,-0.315,-0.24
15:24:02.876,-0.285,-0.23
15:24:02.880,-0.285,-0.22
15:24:02.884,-0.3,-0.2
15:24:02.888,-0.32,-0.205
15:24:02.892,-0.315,-0.165
15:24:02.896,-0.33,-0.165
15:24:02.900,-0.31,-0.18
15:24:02.904,-0.305,-0.15
15:24:02.908,-0.26,-0.205
15:24:02.912,-0.24,-0.215
15:24:02.916,-0.19,-0.24
15:24:02.920,-0.12,-0.28
15:24:02.924,-0.035,-0.32
15:24:02.928,0.02,-0.36
15:24:02.932,0.065,-0.44
15:24:02.936,0.095,-0.54
15:24:02.940,0.13,-0.655
15:24:02.944,0.14,-0.81
15:24:02.948,0.15,-0.97
15:24:02.952,0.18,-1.205
15:24:02.956,0.315,-1.46
15:24:02.960,0.59,-1.735
15:24:02.964,0.85,-1.985
15:24:02.968,1.065,-2.18
15:24:02.972,1.03,-2.25
15:24:02.976,0.67,-2.135
15:24:02.980,0.135,-1.795
15:24:02.984,-0.295,-1.315
15:24:02.988,-0.495,-0.985
15:24:02.992,-0.575,-0.8
15:24:02.996,-0.61,-0.64
15:24:03.000,-0.6,-0.505
15:24:03.004,-0.575,-0.365
15:24:03.008,-0.6,-0.31
15:24:03.012,-0.6,-0.26
15:24:03.016,-0.635,-0.195
15:24:03.020,-0.62,-0.155
15:24:03.024,-0.61,-0.15
15:24:03.028,-0.6,-0.135
15:24:03.032,-0.605,-0.145
15:24:03.036,-0.595,-0.09
15:24:03.040,-0.58,-0.085
15:24:03.044,-0.58,-0.08
15:24:03.048,-0.575,-0.08
15:24:03.052,-0.555,-0.12
15:24:03.056,-0.56,-0.14
15:24:03.060,-0.575,-0.15
15:24:03.064,-0.54,-0.1
15:24:03.068,-0.56,-0.08
15:24:03.072,-0.555,-0.065
15:24:03.076,-0.545,-0.035
15:24:03.080,-0.55,-0.01
15:24:03.084,-0.555,0.005
15:24:03.088,-0.545,0.01
15:24:03.092,-0.575,0.04
15:24:03.096,-0.57,0.04
15:24:03.100,-0.575,0.04
15:24:03.104,-0.56,0.02
15:24:03.108,-0.54,0.02
15:24:03.112,-0.555,0.01
15:24:03.116,-0.56,0.035
15:24:03.120,-0.53,0.015
15:24:03.124,-0.55,0.06
15:24:03.128,-0.55,0.045
15:24:03.132,-0.55,0.03
15:24:03.136,-0.53,-0.01
15:24:03.140,-0.52,0.0
15:24:03.144,-0.52,-0.01
15:24:03.148,-0.535,-0.03
15:24:03.152,-0.515,-0.04
15:24:03.156,-0.575,-0.06
15:24:03.160,-0.55,-0.045
15:24:03.164,-0.55,-0.045
15:24:03.168,-0.55,-0.065
15:24:03.172,-0.555,-0.06
15:24:03.176,-0.54,-0.06
15:24:03.180,-0.545,-0.08
15:24:03.184,-0.525,-0.11
15:24:03.188,-0.53,-0.125
15:24:03.192,-0.55,-0.12
15:24:03.196,-0.56,-0.12
15:24:03.200,-0.54,-0.155
15:24:03.204,-0.535,-0.17
15:24:03.208,-0.505,-0.17
15:24:03.212,-0.505,-0.16
15:24:03.216,-0.48,-0.17
15:24:03.220,-0.48,-0.21
15:24:03.224,-0.45,-0.24
15:24:03.228,-0.415,-0.215
15:24:03.232,-0.425,-0.165
15:24:03.236,-0.4,-0.18
15:24:03.240,-0.38,-0.22
15:24:03.244,-0.365,-0.24
15:24:03.248,-0.35,-0.265
15:24:03.252,-0.35,-0.265
15:24:03.256,-0.35,-0.235
15:24:03.260,-0.355,-0.245
15:24:03.264,-0.32,-0.23
15:24:03.268,-0.31,-0.22
15:24:03.272,-0.315,-0.205
15:24:03.276,-0.315,-0.19
15:24:03.280,-0.31,-0.16
15:24:03.284,-0.32,-0.135
15:24:03.288,-0.32,-0.135
15:24:03.292,-0.345,-0.11
15:24:03.296,-0.38,-0.14
15:24:03.300,-0.385,-0.105
15:24:03.304,-0.39,-0.115
15:24:03.308,-0.41,-0.14
15:24:03.312,-0.41,-0.17
15:24:03.316,-0.39,-0.25
15:24:03.320,-0.425,-0.27
15:24:03.324,-0.435,-0.305
15:24:03.328,-0.42,-0.28
15:24:03.332,-0.42,-0.275
15:24:03.336,-0.41,-0.26
15:24:03.340,-0.41,-0.27
15:24:03.344,-0.405,-0.26
15:24:03.348,-0.37,-0.26
15:24:03.352,-0.36,-0.32
15:24:03.356,-0.325,-0.31
15:24:03.360,-0.29,-0.31
15:24:03.364,-0.205,-0.29
15:24:03.368,-0.12,-0.315
15:24:03.372,-0.075,-0.345
15:24:03.376,-0.025,-0.4
15:24:03.380,0.02,-0.475
15:24:03.384,0.07,-0.545
15:24:03.388,0.115,-0.63
15:24:03.392,0.13,-0.73
15:24:03.396,0.16,-0.91
15:24:03.400,0.165,-1.19
15:24:03.404,0.32,-1.44
15:24:03.408,0.56,-1.68
15:24:03.412,0.875,-1.91
15:24:03.416,1.105,-2.135
15:24:03.420,1.1,-2.23
15:24:03.424,0.82,-2.14
15:24:03.428,0.285,-1.81
15:24:03.432,-0.215,-1.375
15:24:03.436,-0.46,-1.02
15:24:03.440,-0.58,-0.81
15:24:03.444,-0.595,-0.64
15:24:03.448,-0.59,-0.495
15:24:03.452,-0.57,-0.36
15:24:03.456,-0.565,-0.27
15:24:03.460,-0.535,-0.205
15:24:03.464,-0.525,-0.155
15:24:03.468,-0.525,-0.13
15:24:03.472,-0.55,-0.09
15:24:03.476,-0.545,-0.035
15:24:03.480,-0.53,0.0
15:24:03.484,-0.515,-0.01
15:24:03.488,-0.515,0.01
15:24:03.492,-0.51,0.045
15:24:03.496,-0.51,0.1
15:24:03.500,-0.515,0.095
15:24:03.504,-0.545,0.08
15:24:03.508,-0.54,0.0
15:24:03.512,-0.51,0.0
15:24:03.516,-0.52,-0.01
15:24:03.520,-0.53,-0.01
15:24:03.524,-0.58,0.005
15:24:03.528,-0.58,0.0
15:24:03.532,-0.54,-0.02
15:24:03.536,-0.55,-0.05
15:24:03.540,-0.56,-0.035
15:24:03.544,-0.56,-0.04
15:24:03.548,-0.58,-0.01
15:24:03.552,-0.59,-0.02
15:24:03.556,-0.59,-0.035
15:24:03.560,-0.6,-0.05
15:24:03.564,-0.585,-0.015
15:24:03.568,-0.58,0.03
15:24:03.572,-0.58,0.07
15:24:03.576,-0.575,0.05
15:24:03.580,-0.58,0.04
15:24:03.584,-0.565,0.015
15:24:03.588,-0.575,-0.01
15:24:03.592,-0.57,0.0
15:24:03.596,-0.58,0.0
15:24:03.600,-0.555,0.035
15:24:03.604,-0.53,0.085
15:24:03.608,-0.525,0.09
15:24:03.612,-0.535,0.045
15:24:03.616,-0.53,-0.035
15:24:03.620,-0.54,-0.08
15:24:03.624,-0.52,-0.09
15:24:03.628,-0.515,-0.08
15:24:03.632,-0.49,-0.09
15:24:03.636,-0.495,-0.07
15:24:03.640,-0.5,-0.08
15:24:03.644,-0.5,-0.06
15:24:03.648,-0.48,-0.1
15:24:03.652,-0.47,-0.07
15:24:03.656,-0.475,-0.065
15:24:03.660,-0.475,-0.095
15:24:03.664,-0.48,-0.15
15:24:03.668,-0.48,-0.17
15:24:03.672,-0.47,-0.145
15:24:03.676,-0.455,-0.13
15:24:03.680,-0.42,-0.12
15:24:03.684,-0.45,-0.145
15:24:03.688,-0.45,-0.195
15:24:03.692,-0.41,-0.18
15:24:03.696,-0.385,-0.16
15:24:03.700,-0.395,-0.14
15:24:03.704,-0.39,-0.16
15:24:03.708,-0.375,-0.27
15:24:03.712,-0.38,-0.32
15:24:03.716,-0.39,-0.315
15:24:03.720,-0.38,-0.3
15:24:03.724,-0.4,-0.28
15:24:03.728,-0.405,-0.31
15:24:03.732,-0.4,-0.295
15:24:03.736,-0.425,-0.285
15:24:03.740,-0.425,-0.3
15:24:03.744,-0.43,-0.31
15:24:03.748,-0.425,-0.345
15:24:03.752,-0.4,-0.3
15:24:03.756,-0.38,-0.29
15:24:03.760,-0.39,-0.305
15:24:03.764,-0.4,-0.31
15:24:03.768,-0.385,-0.315
15:24:03.772,-0.42,-0.285
15:24:03.776,-0.38,-0.3
15:24:03.780,-0.37,-0.255
15:24:03.784,-0.365,-0.215
15:24:03.788,-0.32,-0.27
15:24:03.792,-0.26,-0.315
15:24:03.796,-0.19,-0.325
15:24:03.800,-0.14,-0.3
15:24:03.804,-0.08,-0.32
15:24:03.808,-0.01,-0.36
15:24:03.812,0.04,-0.455
15:24:03.816,0.11,-0.515
15:24:03.820,0.18,-0.61
15:24:03.824,0.21,-0.77
15:24:03.828,0.245,-0.98
15:24:03.832,0.31,-1.17
15:24:03.836,0.48,-1.405
15:24:03.840,0.86,-1.73
15:24:03.844,1.02,-1.945
15:24:03.848,1.08,-2.075
15:24:03.852,0.86,-2.065
15:24:03.856,0.375,-1.805
15:24:03.860,-0.095,-1.37
15:24:03.864,-0.4,-1.035
15:24:03.868,-0.525,-0.785
15:24:03.872,-0.56,-0.625
15:24:03.876,-0.585,-0.48
15:24:03.880,-0.59,-0.37
15:24:03.884,-0.61,-0.26
15:24:03.888,-0.645,-0.17
15:24:03.892,-0.685,-0.125
15:24:03.896,-0.69,-0.075
15:24:03.900,-0.705,-0.065
15:24:03.904,-0.71,-0.105
15:24:03.908,-0.71,-0.08
15:24:03.912,-0.71,-0.045
15:24:03.916,-0.7,-0.04
15:24:03.920,-0.695,-0.065
15:24:03.924,-0.705,-0.1
15:24:03.928,-0.7,-0.1
15:24:03.932,-0.7,-0.105
15:24:03.936,-0.69,-0.12
15:24:03.940,-0.68,-0.135
15:24:03.944,-0.675,-0.12
15:24:03.948,-0.69,-0.115
15:24:03.952,-0.7,-0.09
15:24:03.956,-0.71,-0.06
15:24:03.960,-0.72,-0.11
15:24:03.964,-0.695,-0.14
15:24:03.968,-0.68,-0.075
15:24:03.972,-0.675,-0.02
15:24:03.976,-0.68,0.01
15:24:03.980,-0.685,-0.045
15:24:03.984,-0.695,-0.055
15:24:03.988,-0.695,-0.035
15:24:03.992,-0.715,-0.09
15:24:03.996,-0.7,-0.11
15:24:04.000,-0.68,-0.065
15:24:04.004,-0.65,0.005
15:24:04.008,-0.59,0.035
15:24:04.012,-0.595,0.005
15:24:04.016,-0.58,-0.015
15:24:04.020,-0.55,-0.045
15:24:04.024,-0.53,-0.04
15:24:04.028,-0.54,0.0
15:24:04.032,-0.55,-0.015
15:24:04.036,-0.52,-0.075
15:24:04.040,-0.5,-0.105
15:24:04.044,-0.505,-0.125
15:24:04.048,-0.525,-0.13
15:24:04.052,-0.52,-0.165
15:24:04.056,-0.525,-0.18
15:24:04.060,-0.52,-0.18
15:24:04.064,-0.51,-0.15
15:24:04.068,-0.495,-0.18
15:24:04.072,-0.51,-0.21
15:24:04.076,-0.505,-0.19
15:24:04.080,-0.495,-0.2
15:24:04.084,-0.46,-0.2
15:24:04.088,-0.47,-0.2
15:24:04.092,-0.475,-0.24
15:24:04.096,-0.47,-0.26
15:24:04.100,-0.475,-0.28
15:24:04.104,-0.475,-0.275
15:24:04.108,-0.49,-0.305
15:24:04.112,-0.485,-0.31
15:24:04.116,-0.47,-0.3
15:24:04.120,-0.465,-0.295
15:24:04.124,-0.475,-0.285
15:24:04.128,-0.455,-0.28
15:24:04.132,-0.48,-0.255
15:24:04.136,-0.48,-0.23
15:24:04.140,-0.46,-0.24
15:24:04.144,-0.485,-0.28
15:24:04.148,-0.47,-0.31
15:24:04.152,-0.48,-0.3
15:24:04.156,-0.45,-0.285
15:24:04.160,-0.44,-0.275
15:24:04.164,-0.44,-0.25
15:24:04.168,-0.435,-0.27
15:24:04.172,-0.42,-0.275
15:24:04.176,-0.42,-0.28
15:24:04.180,-0.395,-0.28
15:24:04.184,-0.39,-0.32
15:24:04.188,-0.375,-0.32
15:24:04.192,-0.34,-0.31
15:24:04.196,-0.34,-0.3
15:24:04.200,-0.34,-0.3
15:24:04.204,-0.34,-0.32
15:24:04.208,-0.35,-0.295
15:24:04.212,-0.365,-0.275
15:24:04.216,-0.34,-0.275
15:24:04.220,-0.35,-0.24
15:24:04.224,-0.335,-0.25
15:24:04.228,-0.32,-0.27
15:24:04.232,-0.3,-0.27
15:24:04.236,-0.295,-0.295
15:24:04.240,-0.29,-0.28
15:24:04.244,-0.285,-0.31
15:24:04.248,-0.28,-0.27
15:24:04.252,-0.235,-0.28
15:24:04.256,-0.24,-0.24
15:24:04.260,-0.24,-0.24
15:24:04.264,-0.22,-0.32
15:24:04.268,-0.205,-0.34
15:24:04.272,-0.22,-0.305
15:24:04.276,-0.19,-0.24
15:24:04.280,-0.185,-0.265
15:24:04.284,-0.21,-0.31
15:24:04.288,-0.205,-0.3
15:24:04.292,-0.24,-0.31
15:24:04.296,-0.275,-0.285
15:24:04.300,-0.275,-0.315
15:24:04.304,-0.25,-0.34
15:24:04.308,-0.255,-0.33
15:24:04.312,-0.255,-0.31
15:24:04.316,-0.26,-0.31
15:24:04.320,-0.26,-0.255
15:24:04.324,-0.3,-0.25
15:24:04.328,-0.31,-0.23
15:24:04.332,-0.315,-0.205
15:24:04.336,-0.31,-0.235
15:24:04.340,-0.255,-0.32
15:24:04.344,-0.19,-0.365
15:24:04.348,-0.06,-0.4
15:24:04.352,-0.025,-0.385
15:24:04.356,0.03,-0.39
15:24:04.360,0.09,-0.475
15:24:04.364,0.15,-0.58
15:24:04.368,0.22,-0.675
15:24:04.372,0.28,-0.815
15:24:04.376,0.325,-0.97
15:24:04.380,0.35,-1.26
15:24:04.384,0.495,-1.49
15:24:04.388,0.755,-1.725
15:24:04.392,1.085,-1.96
15:24:04.396,1.28,-2.16
15:24:04.400,1.24,-2.265
15:24:04.404,0.845,-2.13
15:24:04.408,0.29,-1.71
15:24:04.412,-0.145,-1.27
15:24:04.416,-0.345,-0.945
15:24:04.420,-0.41,-0.78
15:24:04.424,-0.43,-0.61
15:24:04.428,-0.42,-0.435
15:24:04.432,-0.41,-0.315
15:24:04.436,-0.43,-0.27
15:24:04.440,-0.43,-0.225
15:24:04.444,-0.425,-0.165
15:24:04.448,-0.415,-0.15
15:24:04.452,-0.42,-0.135
15:24:04.456,-0.41,-0.13
15:24:04.460,-0.425,-0.155
15:24:04.464,-0.42,-0.16
15:24:04.468,-0.41,-0.15
15:24:04.472,-0.43,-0.15
15:24:04.476,-0.425,-0.115
15:24:04.480,-0.435,-0.07
15:24:04.484,-0.4,-0.07
15:24:04.488,-0.4,-0.11
15:24:04.492,-0.365,-0.15
15:24:04.496,-0.365,-0.13
15:24:04.500,-0.355,-0.115
15:24:04.504,-0.325,-0.08
15:24:04.508,-0.33,-0.055
15:24:04.512,-0.35,-0.02
15:24:04.516,-0.39,0.0
15:24:04.520,-0.425,-0.005
15:24:04.524,-0.43,0.015
15:24:04.528,-0.455,0.045
15:24:04.532,-0.445,0.06
15:24:04.536,-0.44,0.08
15:24:04.540,-0.425,0.06
15:24:04.544,-0.415,0.045
15:24:04.548,-0.41,0.055
15:24:04.552,-0.44,0.08
15:24:04.556,-0.445,0.05
15:24:04.560,-0.455,0.02
15:24:04.564,-0.455,0.02
15:24:04.568,-0.465,0.025
15:24:04.572,-0.465,0.085
15:24:04.576,-0.44,0.145
15:24:04.580,-0.46,0.155
15:24:04.584,-0.44,0.09
15:24:04.588,-0.435,0.065
15:24:04.592,-0.435,0.05
15:24:04.596,-0.435,0.015
15:24:04.600,-0.44,0.025
15:24:04.604,-0.43,0.025
15:24:04.608,-0.42,0.005
15:24:04.612,-0.405,-0.035
15:24:04.616,-0.4,-0.03
15:24:04.620,-0.385,-0.07
15:24:04.624,-0.39,-0.085
15:24:04.628,-0.365,-0.12
15:24:04.632,-0.37,-0.165
15:24:04.636,-0.345,-0.15
15:24:04.640,-0.32,-0.18
15:24:04.644,-0.325,-0.24
15:24:04.648,-0.305,-0.275
15:24:04.652,-0.305,-0.28
15:24:04.656,-0.31,-0.265
15:24:04.660,-0.295,-0.25
15:24:04.664,-0.26,-0.23
15:24:04.668,-0.25,-0.235
15:24:04.672,-0.24,-0.31
15:24:04.676,-0.24,-0.35
15:24:04.680,-0.225,-0.325
15:24:04.684,-0.225,-0.31
15:24:04.688,-0.195,-0.27
15:24:04.692,-0.195,-0.245
15:24:04.696,-0.16,-0.235
15:24:04.700,-0.17,-0.275
15:24:04.704,-0.14,-0.315
15:24:04.708,-0.13,-0.33
15:24:04.712,-0.11,-0.32
15:24:04.716,-0.105,-0.295
15:24:04.720,-0.09,-0.27
15:24:04.724,-0.09,-0.255
15:24:04.728,-0.115,-0.25
15:24:04.732,-0.115,-0.24
15:24:04.736,-0.105,-0.2
15:24:04.740,-0.095,-0.175
15:24:04.744,-0.125,-0.145
15:24:04.748,-0.14,-0.115
15:24:04.752,-0.125,-0.1
15:24:04.756,-0.135,-0.05
15:24:04.760,-0.175,-0.07
15:24:04.764,-0.16,-0.1
15:24:04.768,-0.185,-0.125
15:24:04.772,-0.185,-0.12
15:24:04.776,-0.205,-0.14
15:24:04.780,-0.22,-0.155
15:24:04.784,-0.215,-0.185
15:24:04.788,-0.23,-0.21
15:24:04.792,-0.245,-0.185
15:24:04.796,-0.28,-0.24
15:24:04.800,-0.295,-0.22
15:24:04.804,-0.285,-0.26
15:24:04.808,-0.305,-0.255
15:24:04.812,-0.315,-0.26
15:24:04.816,-0.32,-0.27
15:24:04.820,-0.315,-0.27
15:24:04.824,-0.315,-0.255
15:24:04.828,-0.31,-0.26
15:24:04.832,-0.305,-0.215
15:24:04.836,-0.31,-0.19
15:24:04.840,-0.3,-0.235
15:24:04.844,-0.32,-0.265
15:24:04.848,-0.3,-0.285
15:24:04.852,-0.315,-0.255
15:24:04.856,-0.305,-0.255
15:24:04.860,-0.315,-0.24
15:24:04.864,-0.285,-0.29
15:24:04.868,-0.285,-0.31
15:24:04.872,-0.25,-0.285
15:24:04.876,-0.27,-0.26
15:24:04.880,-0.27,-0.26
15:24:04.884,-0.27,-0.305
15:24:04.888,-0.26,-0.335
15:24:04.892,-0.26,-0.315
15:24:04.896,-0.24,-0.305
15:24:04.900,-0.215,-0.28
15:24:04.904,-0.205,-0.26
15:24:04.908,-0.2,-0.285
15:24:04.912,-0.18,-0.28
15:24:04.916,-0.17,-0.29
15:24:04.920,-0.145,-0.25
15:24:04.924,-0.14,-0.27
15:24:04.928,-0.14,-0.25
15:24:04.932,-0.13,-0.235
15:24:04.936,-0.085,-0.27
15:24:04.940,-0.06,-0.295
15:24:04.944,-0.055,-0.315
15:24:04.948,-0.05,-0.305
15:24:04.952,-0.07,-0.285
15:24:04.956,-0.09,-0.285
15:24:04.960,-0.095,-0.26
15:24:04.964,-0.14,-0.23
15:24:04.968,-0.155,-0.205
15:24:04.972,-0.16,-0.215
15:24:04.976,-0.135,-0.24
15:24:04.980,-0.125,-0.265
15:24:04.984,-0.105,-0.3
15:24:04.988,-0.055,-0.275
15:24:04.992,0.015,-0.275
15:24:04.996,0.1,-0.265
15:24:05.000,0.13,-0.31
15:24:05.004,0.2,-0.345
15:24:05.008,0.25,-0.46
15:24:05.012,0.29,-0.58
15:24:05.016,0.31,-0.695
15:24:05.020,0.325,-0.835
15:24:05.024,0.31,-1.055
15:24:05.028,0.38,-1.32
15:24:05.032,0.555,-1.6
15:24:05.036,0.835,-1.855
15:24:05.040,1.09,-2.09
15:24:05.044,1.2,-2.2
15:24:05.048,1.01,-2.18
15:24:05.052,0.52,-1.905
15:24:05.056,-0.025,-1.48
15:24:05.060,-0.365,-1.09
15:24:05.064,-0.515,-0.845
15:24:05.068,-0.595,-0.675
15:24:05.072,-0.59,-0.53
15:24:05.076,-0.545,-0.37
15:24:05.080,-0.57,-0.27
15:24:05.084,-0.55,-0.255
15:24:05.088,-0.53,-0.21
15:24:05.092,-0.535,-0.175
15:24:05.096,-0.51,-0.1
15:24:05.100,-0.5,-0.06
15:24:05.104,-0.49,-0.075
15:24:05.108,-0.46,-0.125
15:24:05.112,-0.45,-0.1
15:24:05.116,-0.465,-0.09
15:24:05.120,-0.42,-0.075
15:24:05.124,-0.42,-0.09
15:24:05.128,-0.415,-0.055
15:24:05.132,-0.395,-0.02
15:24:05.136,-0.395,-0.015
15:24:05.140,-0.395,0.0
15:24:05.144,-0.35,-0.03
15:24:05.148,-0.36,-0.065
15:24:05.152,-0.33,-0.075
15:24:05.156,-0.33,-0.045
15:24:05.160,-0.3,-0.05
15:24:05.164,-0.31,-0.04
15:24:05.168,-0.305,-0.01
15:24:05.172,-0.32,0.01
15:24:05.176,-0.33,0.01
15:24:05.180,-0.325,0.0
15:24:05.184,-0.34,-0.01
15:24:05.188,-0.33,-0.015
15:24:05.192,-0.32,0.015
15:24:05.196,-0.325,0.015
15:24:05.200,-0.335,0.005
15:24:05.204,-0.335,0.015
15:24:05.208,-0.34,0.055
15:24:05.212,-0.315,0.075
15:24:05.216,-0.32,0.08
15:24:05.220,-0.335,0.02
15:24:05.224,-0.345,0.025
15:24:05.228,-0.375,0.045
15:24:05.232,-0.37,0.04
15:24:05.236,-0.385,0.03
15:24:05.240,-0.38,0.005
15:24:05.244,-0.37,0.005
15:24:05.248,-0.37,0.045
15:24:05.252,-0.385,0.045
15:24:05.256,-0.39,0.04
15:24:05.260,-0.395,-0.02
15:24:05.264,-0.385,-0.055
15:24:05.268,-0.375,-0.075
15:24:05.272,-0.405,-0.105
15:24:05.276,-0.415,-0.09
15:24:05.280,-0.39,-0.09
15:24:05.284,-0.395,-0.085
15:24:05.288,-0.37,-0.085
15:24:05.292,-0.37,-0.12
15:24:05.296,-0.36,-0.15
15:24:05.300,-0.345,-0.15
15:24:05.304,-0.34,-0.195
15:24:05.308,-0.305,-0.16
15:24:05.312,-0.27,-0.17
15:24:05.316,-0.27,-0.18
15:24:05.320,-0.245,-0.145
15:24:05.324,-0.22,-0.165
15:24:05.328,-0.23,-0.185
15:24:05.332,-0.205,-0.195
15:24:05.336,-0.215,-0.21
15:24:05.340,-0.2,-0.23
15:24:05.344,-0.185,-0.24
15:24:05.348,-0.185,-0.23
15:24:05.352,-0.17,-0.21
15:24:05.356,-0.145,-0.17
15:24:05.360,-0.155,-0.175
15:24:05.364,-0.2,-0.18
15:24:05.368,-0.21,-0.205
15:24:05.372,-0.195,-0.225
15:24:05.376,-0.195,-0.21
15:24:05.380,-0.185,-0.185
15:24:05.384,-0.21,-0.195
15:24:05.388,-0.18,-0.2
15:24:05.392,-0.16,-0.195
15:24:05.396,-0.16,-0.215
15:24:05.400,-0.165,-0.195
15:24:05.404,-0.185,-0.175
15:24:05.408,-0.195,-0.185
15:24:05.412,-0.215,-0.155
15:24:05.416,-0.24,-0.165
15:24:05.420,-0.22,-0.18
15:24:05.424,-0.245,-0.2
15:24:05.428,-0.215,-0.2
15:24:05.432,-0.215,-0.2
15:24:05.436,-0.21,-0.185
15:24:05.440,-0.19,-0.19
15:24:05.444,-0.22,-0.16
15:24:05.448,-0.23,-0.175
15:24:05.452,-0.235,-0.15
15:24:05.456,-0.23,-0.18
15:24:05.460,-0.26,-0.165
15:24:05.464,-0.27,-0.2
15:24:05.468,-0.26,-0.175
15:24:05.472,-0.26,-0.17
15:24:05.476,-0.26,-0.18
15:24:05.480,-0.315,-0.235
15:24:05.484,-0.3,-0.255
15:24:05.488,-0.32,-0.255
15:24:05.492,-0.31,-0.23
15:24:05.496,-0.3,-0.22
15:24:05.500,-0.32,-0.245
15:24:05.504,-0.315,-0.245
15:24:05.508,-0.295,-0.22
15:24:05.512,-0.295,-0.21
15:24:05.516,-0.27,-0.175
15:24:05.520,-0.26,-0.205
15:24:05.524,-0.255,-0.145
15:24:05.528,-0.245,-0.14
15:24:05.532,-0.255,-0.14
15:24:05.536,-0.225,-0.195
15:24:05.540,-0.225,-0.255
15:24:05.544,-0.245,-0.27
15:24:05.548,-0.23,-0.255
15:24:05.552,-0.195,-0.225
15:24:05.556,-0.205,-0.2
15:24:05.560,-0.195,-0.17
15:24:05.564,-0.205,-0.175
15:24:05.568,-0.225,-0.155
15:24:05.572,-0.215,-0.155
15:24:05.576,-0.24,-0.2
15:24:05.580,-0.25,-0.205
15:24:05.584,-0.245,-0.18
15:24:05.588,-0.235,-0.185
15:24:05.592,-0.235,-0.205
15:24:05.596,-0.25,-0.185
15:24:05.600,-0.24,-0.17
15:24:05.604,-0.225,-0.165
15:24:05.608,-0.245,-0.19
15:24:05.612,-0.23,-0.21
15:24:05.616,-0.205,-0.215
15:24:05.620,-0.19,-0.215
15:24:05.624,-0.2,-0.23
15:24:05.628,-0.195,-0.225
15:24:05.632,-0.17,-0.23
15:24:05.636,-0.16,-0.2
15:24:05.640,-0.105,-0.19
15:24:05.644,-0.05,-0.18
15:24:05.648,0.02,-0.155
15:24:05.652,0.1,-0.2
15:24:05.656,0.175,-0.245
15:24:05.660,0.215,-0.33
15:24:05.664,0.265,-0.405
15:24:05.668,0.29,-0.505
15:24:05.672,0.335,-0.6
15:24:05.676,0.37,-0.74
15:24:05.680,0.385,-0.915
15:24:05.684,0.46,-1.17
15:24:05.688,0.625,-1.445
15:24:05.692,0.89,-1.745
15:24:05.696,1.175,-1.975
15:24:05.700,1.34,-2.12
15:24:05.704,1.245,-2.12
15:24:05.708,0.82,-1.895
15:24:05.712,0.235,-1.49
15:24:05.716,-0.16,-1.04
15:24:05.720,-0.38,-0.755
15:24:05.724,-0.47,-0.61
15:24:05.728,-0.495,-0.445
15:24:05.732,-0.475,-0.315
15:24:05.736,-0.465,-0.185
15:24:05.740,-0.455,-0.155
15:24:05.744,-0.44,-0.135
15:24:05.748,-0.455,-0.135
15:24:05.752,-0.445,-0.085
15:24:05.756,-0.46,-0.04
15:24:05.760,-0.45,-0.07
15:24:05.764,-0.445,-0.05
15:24:05.768,-0.425,-0.06
15:24:05.772,-0.435,-0.04
15:24:05.776,-0.41,-0.045
15:24:05.780,-0.41,-0.015
15:24:05.784,-0.45,0.02
15:24:05.788,-0.46,0.04
15:24:05.792,-0.49,0.02
15:24:05.796,-0.495,0.02
15:24:05.800,-0.49,0.0
15:24:05.804,-0.485,0.0
15:24:05.808,-0.465,0.015
15:24:05.812,-0.46,0.075
15:24:05.816,-0.47,0.045
15:24:05.820,-0.455,0.07
15:24:05.824,-0.46,0.075
15:24:05.828,-0.465,0.055
15:24:05.832,-0.445,0.03
15:24:05.836,-0.445,0.055
15:24:05.840,-0.435,0.055
15:24:05.844,-0.42,0.04
15:24:05.848,-0.415,0.055
15:24:05.852,-0.405,0.085
15:24:05.856,-0.38,0.11
15:24:05.860,-0.345,0.12
15:24:05.864,-0.35,0.15
15:24:05.868,-0.345,0.155
15:24:05.872,-0.335,0.165
15:24:05.876,-0.345,0.175
15:24:05.880,-0.32,0.145
15:24:05.884,-0.335,0.095
15:24:05.888,-0.32,0.075
15:24:05.892,-0.29,0.095
15:24:05.896,-0.295,0.11
15:24:05.900,-0.295,0.1
15:24:05.904,-0.32,0.105
15:24:05.908,-0.305,0.12
15:24:05.912,-0.285,0.11
15:24:05.916,-0.275,0.09
15:24:05.920,-0.27,0.07
15:24:05.924,-0.26,0.06
15:24:05.928,-0.27,0.045
15:24:05.932,-0.28,0.0
15:24:05.936,-0.28,-0.015
15:24:05.940,-0.275,-0.025
15:24:05.944,-0.315,-0.035
15:24:05.948,-0.345,-0.065
15:24:05.952,-0.37,-0.06
15:24:05.956,-0.385,-0.095
15:24:05.960,-0.35,-0.115
15:24:05.964,-0.345,-0.115
15:24:05.968,-0.35,-0.13
15:24:05.972,-0.35,-0.15
15:24:05.976,-0.35,-0.155
15:24:05.980,-0.355,-0.225
15:24:05.984,-0.35,-0.23
15:24:05.988,-0.36,-0.21
15:24:05.992,-0.34,-0.215
15:24:05.996,-0.35,-0.255
15:24:06.000,-0.34,-0.27
15:24:06.004,-0.31,-0.215
15:24:06.008,-0.31,-0.18
15:24:06.012,-0.285,-0.19
15:24:06.016,-0.265,-0.18
15:24:06.020,-0.24,-0.17
15:24:06.024,-0.225,-0.18
15:24:06.028,-0.205,-0.2
15:24:06.032,-0.22,-0.23
15:24:06.036,-0.24,-0.215
15:24:06.040,-0.255,-0.175
15:24:06.044,-0.26,-0.15
15:24:06.048,-0.27,-0.14
15:24:06.052,-0.275,-0.135
15:24:06.056,-0.285,-0.16
15:24:06.060,-0.3,-0.2
15:24:06.064,-0.265,-0.19
15:24:06.068,-0.285,-0.18
15:24:06.072,-0.255,-0.155
15:24:06.076,-0.245,-0.135
15:24:06.080,-0.25,-0.12
15:24:06.084,-0.245,-0.13
15:24:06.088,-0.245,-0.18
15:24:06.092,-0.265,-0.215
15:24:06.096,-0.25,-0.205
15:24:06.100,-0.22,-0.21
15:24:06.104,-0.22,-0.195
15:24:06.108,-0.235,-0.195
15:24:06.112,-0.235,-0.165
15:24:06.116,-0.235,-0.175
15:24:06.120,-0.24,-0.16
15:24:06.124,-0.23,-0.15
15:24:06.128,-0.225,-0.14
15:24:06.132,-0.26,-0.11
15:24:06.136,-0.26,-0.145
15:24:06.140,-0.275,-0.15
15:24:06.144,-0.28,-0.135
15:24:06.148,-0.305,-0.14
15:24:06.152,-0.29,-0.145
15:24:06.156,-0.295,-0.155
15:24:06.160,-0.28,-0.19
15:24:06.164,-0.295,-0.2
15:24:06.168,-0.28,-0.185
15:24:06.172,-0.31,-0.16
15:24:06.176,-0.33,-0.15
15:24:06.180,-0.36,-0.195
15:24:06.184,-0.375,-0.19
15:24:06.188,-0.39,-0.2
15:24:06.192,-0.375,-0.22
15:24:06.196,-0.4,-0.215
15:24:06.200,-0.41,-0.205
15:24:06.204,-0.41,-0.22
15:24:06.208,-0.405,-0.23
15:24:06.212,-0.4,-0.23
15:24:06.216,-0.385,-0.235
15:24:06.220,-0.38,-0.21
15:24:06.224,-0.36,-0.235
15:24:06.228,-0.39,-0.26
15:24:06.232,-0.385,-0.26
15:24:06.236,-0.395,-0.25
15:24:06.240,-0.365,-0.25
15:24:06.244,-0.375,-0.23
15:24:06.248,-0.385,-0.235
15:24:06.252,-0.37,-0.22
15:24:06.256,-0.34,-0.22
15:24:06.260,-0.32,-0.225
15:24:06.264,-0.285,-0.27
15:24:06.268,-0.275,-0.275
15:24:06.272,-0.26,-0.255
15:24:06.276,-0.285,-0.235
15:24:06.280,-0.28,-0.25
15:24:06.284,-0.295,-0.24
15:24:06.288,-0.29,-0.215
15:24:06.292,-0.275,-0.21
15:24:06.296,-0.29,-0.185
15:24:06.300,-0.28,-0.18
15:24:06.304,-0.265,-0.165
15:24:06.308,-0.27,-0.155
15:24:06.312,-0.26,-0.15
15:24:06.316,-0.235,-0.135
15:24:06.320,-0.23,-0.115
15:24:06.324,-0.215,-0.095
15:24:06.328,-0.225,-0.125
15:24:06.332,-0.225,-0.14
15:24:06.336,-0.245,-0.155
15:24:06.340,-0.245,-0.155
15:24:06.344,-0.24,-0.145
15:24:06.348,-0.24,-0.09
15:24:06.352,-0.245,-0.085
15:24:06.356,-0.21,-0.075
15:24:06.360,-0.2,-0.09
15:24:06.364,-0.16,-0.135
15:24:06.368,-0.095,-0.21
15:24:06.372,-0.02,-0.24
15:24:06.376,0.035,-0.23
15:24:06.380,0.12,-0.25
15:24:06.384,0.17,-0.34
15:24:06.388,0.21,-0.45
15:24:06.392,0.255,-0.575
15:24:06.396,0.26,-0.7
15:24:06.400,0.25,-0.885
15:24:06.404,0.245,-1.105
15:24:06.408,0.345,-1.355
15:24:06.412,0.59,-1.58
15:24:06.416,0.905,-1.85
15:24:06.420,1.155,-2.095
15:24:06.424,1.16,-2.235
15:24:06.428,0.855,-2.125
15:24:06.432,0.29,-1.7
15:24:06.436,-0.15,-1.2
15:24:06.440,-0.405,-0.805
15:24:06.444,-0.505,-0.665
15:24:06.448,-0.515,-0.58
15:24:06.452,-0.53,-0.445
15:24:06.456,-0.51,-0.29
15:24:06.460,-0.505,-0.175
15:24:06.464,-0.495,-0.125
15:24:06.468,-0.46,-0.12
15:24:06.472,-0.47,-0.055
15:24:06.476,-0.465,-0.015
15:24:06.480,-0.46,0.005
15:24:06.484,-0.455,0.01
15:24:06.488,-0.47,0.025
15:24:06.492,-0.475,0.065
15:24:06.496,-0.465,0.095
15:24:06.500,-0.445,0.11
15:24:06.504,-0.455,0.065
15:24:06.508,-0.46,0.045
15:24:06.512,-0.445,0.025
15:24:06.516,-0.46,0.02
15:24:06.520,-0.48,0.005
15:24:06.524,-0.475,0.04
15:24:06.528,-0.46,0.075
15:24:06.532,-0.48,0.085
15:24:06.536,-0.485,0.05
15:24:06.540,-0.515,0.025
15:24:06.544,-0.55,0.025
15:24:06.548,-0.52,0.045
15:24:06.552,-0.52,0.06
15:24:06.556,-0.49,0.065
15:24:06.560,-0.505,0.065
15:24:06.564,-0.525,0.075
15:24:06.568,-0.515,0.09
15:24:06.572,-0.53,0.1
15:24:06.576,-0.515,0.13
15:24:06.580,-0.525,0.13
15:24:06.584,-0.515,0.115
15:24:06.588,-0.51,0.12
15:24:06.592,-0.495,0.12
15:24:06.596,-0.5,0.135
15:24:06.600,-0.475,0.125
15:24:06.604,-0.485,0.125
15:24:06.608,-0.46,0.13
15:24:06.612,-0.46,0.145
15:24:06.616,-0.475,0.14
15:24:06.620,-0.495,0.12
15:24:06.624,-0.495,0.105
15:24:06.628,-0.48,0.11
15:24:06.632,-0.5,0.125
15:24:06.636,-0.5,0.14
15:24:06.640,-0.485,0.185
15:24:06.644,-0.485,0.145
15:24:06.648,-0.495,0.075
15:24:06.652,-0.465,0.02
15:24:06.656,-0.46,0.02
15:24:06.660,-0.425,0.04
15:24:06.664,-0.42,0.045
15:24:06.668,-0.405,-0.01
15:24:06.672,-0.395,-0.075
15:24:06.676,-0.395,-0.12
15:24:06.680,-0.39,-0.15
15:24:06.684,-0.38,-0.135
15:24:06.688,-0.36,-0.12
15:24:06.692,-0.355,-0.095
15:24:06.696,-0.335,-0.13
15:24:06.700,-0.345,-0.175
15:24:06.704,-0.35,-0.19
15:24:06.708,-0.345,-0.165
15:24:06.712,-0.36,-0.15
15:24:06.716,-0.36,-0.13
15:24:06.720,-0.35,-0.17
15:24:06.724,-0.335,-0.155
15:24:06.728,-0.32,-0.195
15:24:06.732,-0.32,-0.165
15:24:06.736,-0.315,-0.17
15:24:06.740,-0.31,-0.145
15:24:06.744,-0.3,-0.12
15:24:06.748,-0.31,-0.13
15:24:06.752,-0.31,-0.19
15:24:06.756,-0.3,-0.23
15:24:06.760,-0.305,-0.23
15:24:06.764,-0.31,-0.22
15:24:06.768,-0.29,-0.18
15:24:06.772,-0.305,-0.16
15:24:06.776,-0.33,-0.105
15:24:06.780,-0.335,-0.13
15:24:06.784,-0.33,-0.155
15:24:06.788,-0.36,-0.175
15:24:06.792,-0.38,-0.205
15:24:06.796,-0.39,-0.175
15:24:06.800,-0.38,-0.135
15:24:06.804,-0.345,-0.14
15:24:06.808,-0.295,-0.135
15:24:06.812,-0.225,-0.145
15:24:06.816,-0.145,-0.175
15:24:06.820,-0.075,-0.205
15:24:06.824,-0.02,-0.29
15:24:06.828,0.035,-0.37
15:24:06.832,0.105,-0.435
15:24:06.836,0.135,-0.57
15:24:06.840,0.18,-0.705
15:24:06.844,0.23,-0.91
15:24:06.848,0.365,-1.115
15:24:06.852,0.6,-1.37
15:24:06.856,0.86,-1.595
15:24:06.860,1.06,-1.835
15:24:06.864,1.01,-1.93
15:24:06.868,0.665,-1.905
15:24:06.872,0.14,-1.555
15:24:06.876,-0.235,-1.13
15:24:06.880,-0.405,-0.805
15:24:06.884,-0.485,-0.595
15:24:06.888,-0.525,-0.44
15:24:06.892,-0.51,-0.315
15:24:06.896,-0.5,-0.215
15:24:06.900,-0.52,-0.135
15:24:06.904,-0.53,-0.06
15:24:06.908,-0.525,-0.065
15:24:06.912,-0.55,-0.035
15:24:06.916,-0.555,-0.025
15:24:06.920,-0.56,0.0
15:24:06.924,-0.565,0.03
15:24:06.928,-0.565,0.035
15:24:06.932,-0.57,-0.055
15:24:06.936,-0.58,-0.085
15:24:06.940,-0.58,-0.1
15:24:06.944,-0.57,-0.085
15:24:06.948,-0.595,-0.055
15:24:06.952,-0.6,-0.045
15:24:06.956,-0.595,-0.02
15:24:06.960,-0.58,-0.01
15:24:06.964,-0.565,0.015
15:24:06.968,-0.575,0.025
15:24:06.972,-0.58,0.02
15:24:06.976,-0.575,0.03
15:24:06.980,-0.6,0.05
15:24:06.984,-0.6,0.025
15:24:06.988,-0.59,0.065
15:24:06.992,-0.595,0.075
15:24:06.996,-0.61,0.11
15:24:07.000,-0.59,0.09
15:24:07.004,-0.605,0.095
15:24:07.008,-0.615,0.095
15:24:07.012,-0.63,0.07
15:24:07.016,-0.625,0.065
15:24:07.020,-0.6,0.05
15:24:07.024,-0.595,0.075
15:24:07.028,-0.6,0.055
15:24:07.032,-0.615,0.085
15:24:07.036,-0.6,0.09
15:24:07.040,-0.61,0.1
15:24:07.044,-0.605,0.13
15:24:07.048,-0.57,0.12
15:24:07.052,-0.55,0.12
15:24:07.056,-0.555,0.09
15:24:07.060,-0.555,0.055
15:24:07.064,-0.6,0.025
15:24:07.068,-0.585,0.0
15:24:07.072,-0.575,0.025
15:24:07.076,-0.55,0.055
15:24:07.080,-0.535,0.03
15:24:07.084,-0.525,-0.005
15:24:07.088,-0.505,-0.035
15:24:07.092,-0.5,-0.07
15:24:07.096,-0.495,-0.075
15:24:07.100,-0.49,-0.065
15:24:07.104,-0.48,-0.105
15:24:07.108,-0.48,-0.165
15:24:07.112,-0.465,-0.23
15:24:07.116,-0.43,-0.245
15:24:07.120,-0.405,-0.27
15:24:07.124,-0.385,-0.28
15:24:07.128,-0.38,-0.27
15:24:07.132,-0.375,-0.25
15:24:07.136,-0.385,-0.225
15:24:07.140,-0.355,-0.205
15:24:07.144,-0.375,-0.19
15:24:07.148,-0.355,-0.22
15:24:07.152,-0.34,-0.22
15:24:07.156,-0.335,-0.23
15:24:07.160,-0.34,-0.235
15:24:07.164,-0.335,-0.22
15:24:07.168,-0.32,-0.18
15:24:07.172,-0.345,-0.17
15:24:07.176,-0.345,-0.2
15:24:07.180,-0.34,-0.24
15:24:07.184,-0.335,-0.205
15:24:07.188,-0.325,-0.145
15:24:07.192,-0.33,-0.135
15:24:07.196,-0.33,-0.145
15:24:07.200,-0.32,-0.19
15:24:07.204,-0.29,-0.195
15:24:07.208,-0.265,-0.125
15:24:07.212,-0.275,-0.08
15:24:07.216,-0.27,-0.1
15:24:07.220,-0.245,-0.165
15:24:07.224,-0.23,-0.2
15:24:07.228,-0.28,-0.185
15:24:07.232,-0.295,-0.095
15:24:07.236,-0.32,-0.045
15:24:07.240,-0.315,-0.065
15:24:07.244,-0.32,-0.105
15:24:07.248,-0.32,-0.135
15:24:07.252,-0.31,-0.16
15:24:07.256,-0.3,-0.16
15:24:07.260,-0.315,-0.12
15:24:07.264,-0.28,-0.085
15:24:07.268,-0.29,-0.08
15:24:07.272,-0.32,-0.09
15:24:07.276,-0.325,-0.11
15:24:07.280,-0.34,-0.095
15:24:07.284,-0.315,-0.1
15:24:07.288,-0.32,-0.12
15:24:07.292,-0.335,-0.155
15:24:07.296,-0.34,-0.165
15:24:07.300,-0.35,-0.16
15:24:07.304,-0.37,-0.19
15:24:07.308,-0.37,-0.195
15:24:07.312,-0.375,-0.225
15:24:07.316,-0.355,-0.2
15:24:07.320,-0.37,-0.195
15:24:07.324,-0.37,-0.195
15:24:07.328,-0.37,-0.215
15:24:07.332,-0.36,-0.22
15:24:07.336,-0.355,-0.215
15:24:07.340,-0.35,-0.195
15:24:07.344,-0.305,-0.195
15:24:07.348,-0.24,-0.205
15:24:07.352,-0.155,-0.23
15:24:07.356,-0.07,-0.28
15:24:07.360,-0.005,-0.315
15:24:07.364,0.075,-0.355
15:24:07.368,0.15,-0.435
15:24:07.372,0.22,-0.545
15:24:07.376,0.275,-0.685
15:24:07.380,0.27,-0.865
15:24:07.384,0.32,-1.105
15:24:07.388,0.49,-1.365
15:24:07.392,0.765,-1.62
15:24:07.396,1.055,-1.87
15:24:07.400,1.235,-2.03
15:24:07.404,1.085,-2.065
15:24:07.408,0.665,-1.845
15:24:07.412,0.15,-1.395
15:24:07.416,-0.195,-0.97
15:24:07.420,-0.355,-0.695
15:24:07.424,-0.42,-0.515
15:24:07.428,-0.435,-0.35
15:24:07.432,-0.395,-0.23
15:24:07.436,-0.38,-0.1
15:24:07.440,-0.405,-0.02
15:24:07.444,-0.425,0.02
15:24:07.448,-0.425,0.015
15:24:07.452,-0.44,0.02
15:24:07.456,-0.465,0.04
15:24:07.460,-0.465,0.085
15:24:07.464,-0.445,0.055
15:24:07.468,-0.47,0.015
15:24:07.472,-0.465,0.01
15:24:07.476,-0.465,0.01
15:24:07.480,-0.49,0.035
15:24:07.484,-0.505,0.045
15:24:07.488,-0.495,0.025
15:24:07.492,-0.5,0.0
15:24:07.496,-0.51,0.01
15:24:07.500,-0.51,0.02
15:24:07.504,-0.515,0.05
15:24:07.508,-0.5,0.06
15:24:07.512,-0.5,0.06
15:24:07.516,-0.505,0.05
15:24:07.520,-0.53,0.03
15:24:07.524,-0.52,0.06
15:24:07.528,-0.545,0.09
15:24:07.532,-0.545,0.09
15:24:07.536,-0.555,0.105
15:24:07.540,-0.535,0.085
15:24:07.544,-0.53,0.085
15:24:07.548,-0.545,0.115
15:24:07.552,-0.57,0.105
15:24:07.556,-0.54,0.125
15:24:07.560,-0.54,0.13
15:24:07.564,-0.515,0.16
15:24:07.568,-0.515,0.18
15:24:07.572,-0.51,0.2
15:24:07.576,-0.485,0.25
15:24:07.580,-0.485,0.29
15:24:07.584,-0.475,0.285
15:24:07.588,-0.44,0.225
15:24:07.592,-0.45,0.185
15:24:07.596,-0.42,0.165
15:24:07.600,-0.43,0.155
15:24:07.604,-0.425,0.175
15:24:07.608,-0.43,0.165
15:24:07.612,-0.43,0.145
15:24:07.616,-0.43,0.11
15:24:07.620,-0.425,0.09
15:24:07.624,-0.425,0.055
15:24:07.628,-0.42,0.06
15:24:07.632,-0.395,0.02
15:24:07.636,-0.39,0.02
15:24:07.640,-0.36,0.0
15:24:07.644,-0.365,0.01
15:24:07.648,-0.33,0.0
15:24:07.652,-0.32,-0.025
15:24:07.656,-0.305,-0.01
15:24:07.660,-0.285,0.015
15:24:07.664,-0.265,0.0
15:24:07.668,-0.255,-0.035
15:24:07.672,-0.255,-0.105
15:24:07.676,-0.255,-0.18
15:24:07.680,-0.235,-0.225
15:24:07.684,-0.225,-0.195
15:24:07.688,-0.235,-0.175
15:24:07.692,-0.225,-0.175
15:24:07.696,-0.225,-0.19
15:24:07.700,-0.225,-0.16
15:24:07.704,-0.23,-0.18
15:24:07.708,-0.235,-0.145
15:24:07.712,-0.23,-0.125
15:24:07.716,-0.25,-0.135
15:24:07.720,-0.26,-0.155
15:24:07.724,-0.265,-0.145
15:24:07.728,-0.265,-0.135
15:24:07.732,-0.275,-0.095
15:24:07.736,-0.305,-0.095
15:24:07.740,-0.285,-0.13
15:24:07.744,-0.29,-0.15
15:24:07.748,-0.32,-0.115
15:24:07.752,-0.365,-0.125
15:24:07.756,-0.36,-0.15
15:24:07.760,-0.375,-0.12
15:24:07.764,-0.375,-0.085
15:24:07.768,-0.39,-0.085
15:24:07.772,-0.36,-0.095
15:24:07.776,-0.32,-0.12
15:24:07.780,-0.3,-0.135
15:24:07.784,-0.295,-0.11
15:24:07.788,-0.305,-0.095
15:24:07.792,-0.305,-0.06
15:24:07.796,-0.31,-0.04
15:24:07.800,-0.33,-0.035
15:24:07.804,-0.325,-0.055
15:24:07.808,-0.305,-0.08
15:24:07.812,-0.32,-0.08
15:24:07.816,-0.3,-0.06
15:24:07.820,-0.275,-0.12
15:24:07.824,-0.27,-0.145
15:24:07.828,-0.22,-0.15
15:24:07.832,-0.16,-0.155
15:24:07.836,-0.095,-0.175
15:24:07.840,-0.01,-0.185
15:24:07.844,0.025,-0.22
15:24:07.848,0.085,-0.25
15:24:07.852,0.165,-0.36
15:24:07.856,0.19,-0.48
15:24:07.860,0.2,-0.63
15:24:07.864,0.205,-0.815
15:24:07.868,0.235,-1.045
15:24:07.872,0.36,-1.31
15:24:07.876,0.64,-1.55
15:24:07.880,0.97,-1.805
15:24:07.884,1.215,-2.01
15:24:07.888,1.235,-2.115
15:24:07.892,0.92,-2.045
15:24:07.896,0.385,-1.72
15:24:07.900,-0.075,-1.28
15:24:07.904,-0.295,-0.93
15:24:07.908,-0.4,-0.715
15:24:07.912,-0.435,-0.575
15:24:07.916,-0.445,-0.42
15:24:07.920,-0.43,-0.285
15:24:07.924,-0.42,-0.17
15:24:07.928,-0.405,-0.105
15:24:07.932,-0.41,-0.08
15:24:07.936,-0.42,-0.055
15:24:07.940,-0.445,-0.06
15:24:07.944,-0.455,-0.04
15:24:07.948,-0.47,-0.01
15:24:07.952,-0.49,-0.015
15:24:07.956,-0.5,-0.025
15:24:07.960,-0.54,-0.005
15:24:07.964,-0.52,0.02
15:24:07.968,-0.525,0.025
15:24:07.972,-0.515,0.04
15:24:07.976,-0.505,0.05
15:24:07.980,-0.525,0.07
15:24:07.984,-0.52,0.075
15:24:07.988,-0.505,0.06
15:24:07.992,-0.51,0.05
15:24:07.996,-0.525,0.075
15:24:08.000,-0.505,0.09
15:24:08.004,-0.505,0.125
15:24:08.008,-0.525,0.13
15:24:08.012,-0.51,0.16
15:24:08.016,-0.5,0.195
15:24:08.020,-0.52,0.19
15:24:08.024,-0.515,0.155
15:24:08.028,-0.525,0.145
15:24:08.032,-0.55,0.135
15:24:08.036,-0.54,0.175
15:24:08.040,-0.555,0.175
15:24:08.044,-0.53,0.175
15:24:08.048,-0.51,0.145
15:24:08.052,-0.515,0.075
15:24:08.056,-0.5,0.115
15:24:08.060,-0.51,0.105
15:24:08.064,-0.515,0.13
15:24:08.068,-0.51,0.105
15:24:08.072,-0.48,0.09
15:24:08.076,-0.485,0.065
15:24:08.080,-0.455,0.065
15:24:08.084,-0.47,0.06
15:24:08.088,-0.46,0.035
15:24:08.092,-0.45,0.015
15:24:08.096,-0.455,-0.005
15:24:08.100,-0.43,-0.025
15:24:08.104,-0.42,-0.015
15:24:08.108,-0.405,0.03
15:24:08.112,-0.405,-0.01
15:24:08.116,-0.38,-0.06
15:24:08.120,-0.385,-0.07
15:24:08.124,-0.375,-0.09
15:24:08.128,-0.365,-0.12
15:24:08.132,-0.325,-0.115
15:24:08.136,-0.335,-0.105
15:24:08.140,-0.325,-0.12
15:24:08.144,-0.32,-0.14
15:24:08.148,-0.3,-0.155
15:24:08.152,-0.295,-0.13
15:24:08.156,-0.3,-0.11
15:24:08.160,-0.275,-0.13
15:24:08.164,-0.25,-0.105
15:24:08.168,-0.26,-0.11
15:24:08.172,-0.25,-0.1
15:24:08.176,-0.275,-0.13
15:24:08.180,-0.275,-0.135
15:24:08.184,-0.31,-0.135
15:24:08.188,-0.32,-0.145
15:24:08.192,-0.33,-0.135
15:24:08.196,-0.325,-0.12
15:24:08.200,-0.34,-0.155
15:24:08.204,-0.34,-0.135
15:24:08.208,-0.335,-0.11
15:24:08.212,-0.31,-0.125
15:24:08.216,-0.31,-0.1
15:24:08.220,-0.34,-0.135
15:24:08.224,-0.345,-0.135
15:24:08.228,-0.34,-0.13
15:24:08.232,-0.36,-0.105
15:24:08.236,-0.375,-0.08
15:24:08.240,-0.385,-0.06
15:24:08.244,-0.385,-0.02
15:24:08.248,-0.42,-0.015
15:24:08.252,-0.425,-0.01
15:24:08.256,-0.445,-0.035
15:24:08.260,-0.445,-0.065
15:24:08.264,-0.44,-0.1
15:24:08.268,-0.425,-0.125
15:24:08.272,-0.415,-0.09
15:24:08.276,-0.39,-0.11
15:24:08.280,-0.375,-0.105
15:24:08.284,-0.38,-0.12
15:24:08.288,-0.38,-0.14
15:24:08.292,-0.37,-0.19
15:24:08.296,-0.345,-0.22
15:24:08.300,-0.33,-0.23
15:24:08.304,-0.285,-0.21
15:24:08.308,-0.21,-0.185
15:24:08.312,-0.155,-0.18
15:24:08.316,-0.055,-0.2
15:24:08.320,0.005,-0.225
15:24:08.324,0.06,-0.295
15:24:08.328,0.11,-0.37
15:24:08.332,0.15,-0.535
15:24:08.336,0.16,-0.665
15:24:08.340,0.19,-0.865
15:24:08.344,0.23,-1.12
15:24:08.348,0.355,-1.39
15:24:08.352,0.6,-1.625
15:24:08.356,0.895,-1.875
15:24:08.360,1.145,-2.08
15:24:08.364,1.16,-2.21
15:24:08.368,0.855,-2.095
15:24:08.372,0.32,-1.73
15:24:08.376,-0.145,-1.24
15:24:08.380,-0.41,-0.935
15:24:08.384,-0.51,-0.72
15:24:08.388,-0.55,-0.54
15:24:08.392,-0.57,-0.36
15:24:08.396,-0.535,-0.205
15:24:08.400,-0.555,-0.1
15:24:08.404,-0.575,-0.04
15:24:08.408,-0.59,0.005
15:24:08.412,-0.585,0.02
15:24:08.416,-0.6,0.035
15:24:08.420,-0.605,0.065
15:24:08.424,-0.6,0.075
15:24:08.428,-0.63,0.08
15:24:08.432,-0.64,0.065
15:24:08.436,-0.64,0.035
15:24:08.440,-0.65,0.055
15:24:08.444,-0.63,0.07
15:24:08.448,-0.62,0.11
15:24:08.452,-0.64,0.14
15:24:08.456,-0.66,0.15
15:24:08.460,-0.675,0.14
15:24:08.464,-0.675,0.11
15:24:08.468,-0.685,0.12
15:24:08.472,-0.71,0.185
15:24:08.476,-0.72,0.2
15:24:08.480,-0.725,0.18
15:24:08.484,-0.75,0.095
15:24:08.488,-0.745,0.08
15:24:08.492,-0.72,0.095
15:24:08.496,-0.705,0.145
15:24:08.500,-0.7,0.16
15:24:08.504,-0.71,0.14
15:24:08.508,-0.685,0.12
15:24:08.512,-0.68,0.115
15:24:08.516,-0.67,0.115
15:24:08.520,-0.67,0.135
15:24:08.524,-0.64,0.12
15:24:08.528,-0.63,0.105
15:24:08.532,-0.63,0.135
15:24:08.536,-0.62,0.09
15:24:08.540,-0.61,0.11
15:24:08.544,-0.6,0.11
15:24:08.548,-0.595,0.125
15:24:08.552,-0.585,0.125
15:24:08.556,-0.58,0.145
15:24:08.560,-0.575,0.13
15:24:08.564,-0.555,0.08
15:24:08.568,-0.53,0.065
15:24:08.572,-0.53,0.04
15:24:08.576,-0.5,0.045
15:24:08.580,-0.49,-0.015
15:24:08.584,-0.495,-0.02
15:24:08.588,-0.48,-0.015
15:24:08.592,-0.465,-0.015
15:24:08.596,-0.475,-0.03
15:24:08.600,-0.46,-0.11
15:24:08.604,-0.435,-0.12
15:24:08.608,-0.395,-0.105
15:24:08.612,-0.4,-0.08
15:24:08.616,-0.37,-0.08
15:24:08.620,-0.36,-0.045
15:24:08.624,-0.375,-0.075
15:24:08.628,-0.33,-0.115
15:24:08.632,-0.32,-0.135
15:24:08.636,-0.335,-0.125
15:24:08.640,-0.32,-0.115
15:24:08.644,-0.33,-0.09
15:24:08.648,-0.32,-0.045
15:24:08.652,-0.305,-0.05
15:24:08.656,-0.34,-0.095
15:24:08.660,-0.335,-0.11
15:24:08.664,-0.335,-0.1
15:24:08.668,-0.355,-0.09
15:24:08.672,-0.375,-0.04
15:24:08.676,-0.4,-0.03
15:24:08.680,-0.45,-0.02
15:24:08.684,-0.445,0.04
15:24:08.688,-0.5,0.05
15:24:08.692,-0.53,0.01
15:24:08.696,-0.535,-0.03
15:24:08.700,-0.545,-0.055
15:24:08.704,-0.54,-0.07
15:24:08.708,-0.52,-0.06
15:24:08.712,-0.515,-0.045
15:24:08.716,-0.52,-0.05
15:24:08.720,-0.5,-0.06
15:24:08.724,-0.51,-0.095
15:24:08.728,-0.48,-0.195
15:24:08.732,-0.475,-0.225
15:24:08.736,-0.465,-0.195
15:24:08.740,-0.455,-0.17
15:24:08.744,-0.455,-0.175
15:24:08.748,-0.445,-0.155
15:24:08.752,-0.45,-0.155
15:24:08.756,-0.45,-0.14
15:24:08.760,-0.45,-0.13
15:24:08.764,-0.475,-0.135
15:24:08.768,-0.47,-0.115
15:24:08.772,-0.455,-0.13
15:24:08.776,-0.45,-0.17
15:24:08.780,-0.43,-0.21
15:24:08.784,-0.43,-0.175
15:24:08.788,-0.38,-0.16
15:24:08.792,-0.4,-0.16
15:24:08.796,-0.395,-0.145
15:24:08.800,-0.385,-0.15
15:24:08.804,-0.38,-0.125
15:24:08.808,-0.39,-0.15
15:24:08.812,-0.395,-0.19
15:24:08.816,-0.38,-0.205
15:24:08.820,-0.345,-0.2
15:24:08.824,-0.315,-0.175
15:24:08.828,-0.31,-0.145
15:24:08.832,-0.29,-0.165
15:24:08.836,-0.295,-0.205
15:24:08.840,-0.265,-0.19
15:24:08.844,-0.26,-0.16
15:24:08.848,-0.25,-0.16
15:24:08.852,-0.24,-0.11
15:24:08.856,-0.24,-0.11
15:24:08.860,-0.215,-0.095
15:24:08.864,-0.225,-0.105
15:24:08.868,-0.22,-0.12
15:24:08.872,-0.215,-0.125
15:24:08.876,-0.205,-0.12
15:24:08.880,-0.17,-0.14
15:24:08.884,-0.155,-0.14
15:24:08.888,-0.085,-0.15
15:24:08.892,-0.015,-0.195
15:24:08.896,0.065,-0.215
15:24:08.900,0.135,-0.28
15:24:08.904,0.23,-0.34
15:24:08.908,0.305,-0.46
15:24:08.912,0.33,-0.63
15:24:08.916,0.315,-0.8
15:24:08.920,0.32,-1.02
15:24:08.924,0.395,-1.25
15:24:08.928,0.595,-1.475
15:24:08.932,0.91,-1.705
15:24:08.936,1.165,-1.87
15:24:08.940,1.17,-1.985
15:24:08.944,0.865,-1.945
15:24:08.948,0.325,-1.61
15:24:08.952,-0.15,-1.155
15:24:08.956,-0.4,-0.87
15:24:08.960,-0.52,-0.69
15:24:08.964,-0.56,-0.545
15:24:08.968,-0.555,-0.41
15:24:08.972,-0.58,-0.3
15:24:08.976,-0.575,-0.185
15:24:08.980,-0.575,-0.12
15:24:08.984,-0.585,-0.055
15:24:08.988,-0.605,-0.04
15:24:08.992,-0.59,0.015
15:24:08.996,-0.59,0.0
15:24:09.000,-0.58,0.0
15:24:09.004,-0.56,-0.01
15:24:09.008,-0.565,-0.01
15:24:09.012,-0.58,-0.025
15:24:09.016,-0.55,-0.005
15:24:09.020,-0.535,-0.005
15:24:09.024,-0.53,0.015
15:24:09.028,-0.52,0.01
15:24:09.032,-0.505,0.0
15:24:09.036,-0.49,-0.005
15:24:09.040,-0.475,0.025
15:24:09.044,-0.455,0.05
15:24:09.048,-0.455,0.07
15:24:09.052,-0.46,0.06
15:24:09.056,-0.475,0.03
15:24:09.060,-0.47,0.015
15:24:09.064,-0.465,0.025
15:24:09.068,-0.46,0.035
15:24:09.072,-0.44,0.045
15:24:09.076,-0.455,0.065
15:24:09.080,-0.45,0.06
15:24:09.084,-0.455,0.045
15:24:09.088,-0.445,0.06
15:24:09.092,-0.44,0.095
15:24:09.096,-0.435,0.15
15:24:09.100,-0.435,0.15
15:24:09.104,-0.415,0.125
15:24:09.108,-0.395,0.105
15:24:09.112,-0.395,0.1
15:24:09.116,-0.42,0.08
15:24:09.120,-0.455,0.085
15:24:09.124,-0.445,0.115
15:24:09.128,-0.46,0.1
15:24:09.132,-0.455,0.11
15:24:09.136,-0.47,0.11
15:24:09.140,-0.48,0.115
15:24:09.144,-0.48,0.095
15:24:09.148,-0.515,0.065
15:24:09.152,-0.52,0.1
15:24:09.156,-0.505,0.135
15:24:09.160,-0.475,0.105
15:24:09.164,-0.465,0.05
15:24:09.168,-0.445,-0.04
15:24:09.172,-0.435,-0.055
15:24:09.176,-0.465,-0.035
15:24:09.180,-0.465,-0.09
15:24:09.184,-0.46,-0.125
15:24:09.188,-0.46,-0.12
15:24:09.192,-0.425,-0.11
15:24:09.196,-0.405,-0.15
15:24:09.200,-0.415,-0.13
15:24:09.204,-0.39,-0.125
15:24:09.208,-0.38,-0.125
15:24:09.212,-0.365,-0.12
15:24:09.216,-0.35,-0.175
15:24:09.220,-0.36,-0.22
15:24:09.224,-0.345,-0.19
15:24:09.228,-0.355,-0.175
15:24:09.232,-0.32,-0.175
15:24:09.236,-0.335,-0.165
15:24:09.240,-0.345,-0.185
15:24:09.244,-0.335,-0.19
15:24:09.248,-0.34,-0.19
15:24:09.252,-0.34,-0.2
15:24:09.256,-0.345,-0.165
15:24:09.260,-0.335,-0.13
15:24:09.264,-0.34,-0.14
15:24:09.268,-0.32,-0.165
15:24:09.272,-0.32,-0.165
15:24:09.276,-0.305,-0.18
15:24:09.280,-0.29,-0.165
15:24:09.284,-0.265,-0.14
15:24:09.288,-0.26,-0.12
15:24:09.292,-0.26,-0.13
15:24:09.296,-0.275,-0.16
15:24:09.300,-0.265,-0.15
15:24:09.304,-0.26,-0.115
15:24:09.308,-0.27,-0.09
15:24:09.312,-0.255,-0.095
15:24:09.316,-0.245,-0.065
15:24:09.320,-0.245,-0.075
15:24:09.324,-0.24,-0.1
15:24:09.328,-0.245,-0.155
15:24:09.332,-0.25,-0.155
15:24:09.336,-0.215,-0.13
15:24:09.340,-0.23,-0.105
15:24:09.344,-0.22,-0.115
15:24:09.348,-0.18,-0.135
15:24:09.352,-0.12,-0.135
15:24:09.356,-0.055,-0.155
15:24:09.360,0.02,-0.175
15:24:09.364,0.03,-0.215
15:24:09.368,0.055,-0.3
15:24:09.372,0.085,-0.425
15:24:09.376,0.11,-0.51
15:24:09.380,0.1,-0.635
15:24:09.384,0.13,-0.87
15:24:09.388,0.215,-1.15
15:24:09.392,0.41,-1.425
15:24:09.396,0.735,-1.695
15:24:09.400,1.05,-1.905
15:24:09.404,1.24,-2.02
15:24:09.408,1.12,-1.96
15:24:09.412,0.7,-1.71
15:24:09.416,0.125,-1.27
15:24:09.420,-0.255,-0.895
15:24:09.424,-0.405,-0.675
15:24:09.428,-0.5,-0.525
15:24:09.432,-0.525,-0.38
15:24:09.436,-0.51,-0.235
15:24:09.440,-0.515,-0.155
15:24:09.444,-0.53,-0.08
15:24:09.448,-0.51,-0.03
15:24:09.452,-0.515,0.005
15:24:09.456,-0.54,0.015
15:24:09.460,-0.545,-0.01
15:24:09.464,-0.51,-0.02
15:24:09.468,-0.505,-0.015
15:24:09.472,-0.505,0.0
15:24:09.476,-0.515,0.0
15:24:09.480,-0.525,0.005
15:24:09.484,-0.52,0.025
15:24:09.488,-0.51,0.025
15:24:09.492,-0.485,0.08
15:24:09.496,-0.52,0.075
15:24:09.500,-0.52,0.055
15:24:09.504,-0.515,0.07
15:24:09.508,-0.505,0.075
15:24:09.512,-0.475,0.095
15:24:09.516,-0.485,0.11
15:24:09.520,-0.44,0.075
15:24:09.524,-0.475,0.095
15:24:09.528,-0.455,0.135
15:24:09.532,-0.465,0.185
15:24:09.536,-0.44,0.155
15:24:09.540,-0.44,0.18
15:24:09.544,-0.445,0.22
15:24:09.548,-0.445,0.19
15:24:09.552,-0.445,0.195
15:24:09.556,-0.42,0.195
15:24:09.560,-0.42,0.215
15:24:09.564,-0.41,0.22
15:24:09.568,-0.41,0.22
15:24:09.572,-0.405,0.23
15:24:09.576,-0.4,0.205
15:24:09.580,-0.39,0.21
15:24:09.584,-0.395,0.215
15:24:09.588,-0.385,0.21
15:24:09.592,-0.39,0.19
15:24:09.596,-0.39,0.17
15:24:09.600,-0.405,0.135
15:24:09.604,-0.38,0.13
15:24:09.608,-0.385,0.11
15:24:09.612,-0.38,0.1
15:24:09.616,-0.385,0.08
15:24:09.620,-0.38,0.115
15:24:09.624,-0.375,0.115
15:24:09.628,-0.39,0.085
15:24:09.632,-0.34,0.02
15:24:09.636,-0.34,0.02
15:24:09.640,-0.33,0.025
15:24:09.644,-0.34,0.02
15:24:09.648,-0.32,-0.02
15:24:09.652,-0.3,-0.035
15:24:09.656,-0.3,-0.055
15:24:09.660,-0.315,-0.08
15:24:09.664,-0.295,-0.105
15:24:09.668,-0.275,-0.115
15:24:09.672,-0.29,-0.125
15:24:09.676,-0.295,-0.1
15:24:09.680,-0.28,-0.11
15:24:09.684,-0.255,-0.105
15:24:09.688,-0.255,-0.1
15:24:09.692,-0.25,-0.105
15:24:09.696,-0.245,-0.13
15:24:09.700,-0.24,-0.105
15:24:09.704,-0.22,-0.115
15:24:09.708,-0.22,-0.06
15:24:09.712,-0.23,-0.035
15:24:09.716,-0.225,-0.03
15:24:09.720,-0.215,-0.065
15:24:09.724,-0.22,-0.115
15:24:09.728,-0.22,-0.115
15:24:09.732,-0.23,-0.115
15:24:09.736,-0.23,-0.04
15:24:09.740,-0.24,-0.04
15:24:09.744,-0.22,-0.065
15:24:09.748,-0.22,-0.12
15:24:09.752,-0.21,-0.105
15:24:09.756,-0.2,-0.1
15:24:09.760,-0.195,-0.095
15:24:09.764,-0.185,-0.115
15:24:09.768,-0.145,-0.12
15:24:09.772,-0.13,-0.115
15:24:09.776,-0.065,-0.11
15:24:09.780,-0.005,-0.12
15:24:09.784,0.03,-0.135
15:24:09.788,0.06,-0.15
15:24:09.792,0.105,-0.21
15:24:09.796,0.125,-0.31
15:24:09.800,0.14,-0.43
15:24:09.804,0.175,-0.625
15:24:09.808,0.22,-0.79
15:24:09.812,0.28,-1.03
15:24:09.816,0.465,-1.295
15:24:09.820,0.79,-1.545
15:24:09.824,1.135,-1.775
15:24:09.828,1.35,-1.905
15:24:09.832,1.255,-1.9
15:24:09.836,0.87,-1.68
15:24:09.840,0.275,-1.23
15:24:09.844,-0.18,-0.795
15:24:09.848,-0.39,-0.535
15:24:09.852,-0.51,-0.36
15:24:09.856,-0.52,-0.255
15:24:09.860,-0.53,-0.16
15:24:09.864,-0.505,-0.115
15:24:09.868,-0.5,-0.07
15:24:09.872,-0.5,-0.035
15:24:09.876,-0.5,-0.045
15:24:09.880,-0.505,-0.03
15:24:09.884,-0.49,-0.02
15:24:09.888,-0.51,-0.03
15:24:09.892,-0.5,-0.005
15:24:09.896,-0.51,0.03
15:24:09.900,-0.52,0.055
15:24:09.904,-0.515,0.075
15:24:09.908,-0.515,0.07
15:24:09.912,-0.5,0.055
15:24:09.916,-0.49,0.02
15:24:09.920,-0.505,0.02
15:24:09.924,-0.505,0.04
15:24:09.928,-0.505,0.045
15:24:09.932,-0.52,0.07
15:24:09.936,-0.505,0.115
15:24:09.940,-0.515,0.095
15:24:09.944,-0.52,0.06
15:24:09.948,-0.51,0.035
15:24:09.952,-0.495,0.03
15:24:09.956,-0.465,0.065
15:24:09.960,-0.44,0.065
15:24:09.964,-0.44,0.095
15:24:09.968,-0.425,0.1
15:24:09.972,-0.435,0.125
15:24:09.976,-0.435,0.17
15:24:09.980,-0.41,0.175
15:24:09.984,-0.41,0.2
15:24:09.988,-0.375,0.2
15:24:09.992,-0.395,0.215
15:24:09.996,-0.365,0.2
15:24:10.000,-0.37,0.16
15:24:10.004,-0.38,0.15
15:24:10.008,-0.375,0.175
15:24:10.012,-0.36,0.17
15:24:10.016,-0.36,0.16
15:24:10.020,-0.35,0.12
15:24:10.024,-0.335,0.11
15:24:10.028,-0.335,0.13
15:24:10.032,-0.335,0.145
15:24:10.036,-0.315,0.135
15:24:10.040,-0.33,0.115
15:24:10.044,-0.375,0.115
15:24:10.048,-0.38,0.13
15:24:10.052,-0.38,0.105
15:24:10.056,-0.38,0.095
15:24:10.060,-0.38,0.065
15:24:10.064,-0.38,0.025
15:24:10.068,-0.38,0.04
15:24:10.072,-0.37,0.04
15:24:10.076,-0.375,0.02
15:24:10.080,-0.355,0.005
15:24:10.084,-0.33,-0.035
15:24:10.088,-0.31,-0.08
15:24:10.092,-0.295,-0.13
15:24:10.096,-0.305,-0.145
15:24:10.100,-0.32,-0.16
15:24:10.104,-0.34,-0.16
15:24:10.108,-0.34,-0.155
15:24:10.112,-0.33,-0.155
15:24:10.116,-0.335,-0.14
15:24:10.120,-0.355,-0.12
15:24:10.124,-0.33,-0.085
15:24:10.128,-0.335,-0.11
15:24:10.132,-0.345,-0.19
15:24:10.136,-0.365,-0.235
15:24:10.140,-0.35,-0.205
15:24:10.144,-0.35,-0.16
15:24:10.148,-0.375,-0.15
15:24:10.152,-0.375,-0.165
15:24:10.156,-0.37,-0.155
15:24:10.160,-0.365,-0.145
15:24:10.164,-0.395,-0.12
15:24:10.168,-0.37,-0.085
15:24:10.172,-0.39,-0.13
15:24:10.176,-0.38,-0.17
15:24:10.180,-0.36,-0.19
15:24:10.184,-0.36,-0.2
15:24:10.188,-0.35,-0.175
15:24:10.192,-0.345,-0.14
15:24:10.196,-0.335,-0.11
15:24:10.200,-0.335,-0.105
15:24:10.204,-0.29,-0.13
15:24:10.208,-0.28,-0.145
15:24:10.212,-0.24,-0.14
15:24:10.216,-0.22,-0.105
15:24:10.220,-0.2,-0.105
15:24:10.224,-0.215,-0.1
15:24:10.228,-0.195,-0.105
15:24:10.232,-0.2,-0.09
15:24:10.236,-0.235,-0.07
15:24:10.240,-0.22,-0.07
15:24:10.244,-0.215,-0.07
15:24:10.248,-0.21,-0.06
15:24:10.252,-0.225,-0.07
15:24:10.256,-0.23,-0.08
15:24:10.260,-0.23,-0.085
15:24:10.264,-0.235,-0.09
15:24:10.268,-0.27,-0.06
15:24:10.272,-0.28,-0.04
15:24:10.276,-0.28,-0.05
15:24:10.280,-0.29,-0.05
15:24:10.284,-0.285,-0.04
15:24:10.288,-0.28,-0.04
15:24:10.292,-0.285,-0.1
15:24:10.296,-0.285,-0.115
15:24:10.300,-0.28,-0.125
15:24:10.304,-0.255,-0.135
15:24:10.308,-0.27,-0.145
15:24:10.312,-0.24,-0.15
15:24:10.316,-0.185,-0.18
15:24:10.320,-0.125,-0.18
15:24:10.324,-0.075,-0.22
15:24:10.328,-0.04,-0.25
15:24:10.332,0.0,-0.36
15:24:10.336,0.05,-0.47
15:24:10.340,0.095,-0.61
15:24:10.344,0.13,-0.76
15:24:10.348,0.155,-0.915
15:24:10.352,0.18,-1.125
15:24:10.356,0.3,-1.375
15:24:10.360,0.545,-1.625
15:24:10.364,0.875,-1.88
15:24:10.368,1.115,-2.085
15:24:10.372,1.115,-2.17
15:24:10.376,0.765,-2.01
15:24:10.380,0.19,-1.585
15:24:10.384,-0.27,-1.14
15:24:10.388,-0.495,-0.82
15:24:10.392,-0.605,-0.59
15:24:10.396,-0.605,-0.425
15:24:10.400,-0.625,-0.31
15:24:10.404,-0.61,-0.195
15:24:10.408,-0.61,-0.15
15:24:10.412,-0.585,-0.095
15:24:10.416,-0.58,-0.07
15:24:10.420,-0.545,-0.025
15:24:10.424,-0.53,0.015
15:24:10.428,-0.52,0.045
15:24:10.432,-0.485,0.075
15:24:10.436,-0.48,0.1
15:24:10.440,-0.495,0.1
15:24:10.444,-0.49,0.085
15:24:10.448,-0.46,0.08
15:24:10.452,-0.42,0.09
15:24:10.456,-0.415,0.075
15:24:10.460,-0.395,0.11
15:24:10.464,-0.395,0.105
15:24:10.468,-0.42,0.12
15:24:10.472,-0.44,0.165
15:24:10.476,-0.425,0.21
15:24:10.480,-0.42,0.25
15:24:10.484,-0.46,0.26
15:24:10.488,-0.47,0.255
15:24:10.492,-0.475,0.24
15:24:10.496,-0.47,0.22
15:24:10.500,-0.47,0.19
15:24:10.504,-0.445,0.15
15:24:10.508,-0.46,0.14
15:24:10.512,-0.445,0.11
15:24:10.516,-0.455,0.135
15:24:10.520,-0.46,0.125
15:24:10.524,-0.46,0.11
15:24:10.528,-0.445,0.115
15:24:10.532,-0.455,0.085
15:24:10.536,-0.465,0.12
15:24:10.540,-0.49,0.14
15:24:10.544,-0.495,0.16
15:24:10.548,-0.505,0.14
15:24:10.552,-0.52,0.135
15:24:10.556,-0.525,0.18
15:24:10.560,-0.52,0.175
15:24:10.564,-0.495,0.165
15:24:10.568,-0.505,0.16
15:24:10.572,-0.48,0.16
15:24:10.576,-0.485,0.13
15:24:10.580,-0.465,0.13
15:24:10.584,-0.47,0.13
15:24:10.588,-0.445,0.105
15:24:10.592,-0.435,0.065
15:24:10.596,-0.41,0.045
15:24:10.600,-0.395,0.03
15:24:10.604,-0.375,0.025
15:24:10.608,-0.355,0.02
15:24:10.612,-0.34,-0.01
15:24:10.616,-0.32,-0.065
15:24:10.620,-0.32,-0.095
15:24:10.624,-0.31,-0.105
15:24:10.628,-0.295,-0.09
15:24:10.632,-0.275,-0.085
15:24:10.636,-0.28,-0.09
15:24:10.640,-0.28,-0.09
15:24:10.644,-0.29,-0.08
15:24:10.648,-0.31,-0.08
15:24:10.652,-0.31,-0.065
15:24:10.656,-0.29,-0.055
15:24:10.660,-0.26,0.0
15:24:10.664,-0.275,0.015
15:24:10.668,-0.27,0.02
15:24:10.672,-0.285,-0.015
15:24:10.676,-0.265,-0.065
15:24:10.680,-0.275,-0.095
15:24:10.684,-0.275,-0.075
15:24:10.688,-0.285,-0.065
15:24:10.692,-0.285,-0.055
15:24:10.696,-0.265,-0.04
15:24:10.700,-0.28,-0.02
15:24:10.704,-0.255,-0.01
15:24:10.708,-0.265,-0.015
15:24:10.712,-0.25,-0.005
15:24:10.716,-0.265,0.0
15:24:10.720,-0.27,0.0
15:24:10.724,-0.28,-0.005
15:24:10.728,-0.28,-0.005
15:24:10.732,-0.27,0.035
15:24:10.736,-0.28,0.005
15:24:10.740,-0.28,-0.015
15:24:10.744,-0.29,-0.055
15:24:10.748,-0.275,-0.065
15:24:10.752,-0.315,-0.065
15:24:10.756,-0.325,-0.06
15:24:10.760,-0.335,-0.1
15:24:10.764,-0.37,-0.14
15:24:10.768,-0.385,-0.14
15:24:10.772,-0.375,-0.125
15:24:10.776,-0.4,-0.135
15:24:10.780,-0.41,-0.135
15:24:10.784,-0.405,-0.11
15:24:10.788,-0.415,-0.12
15:24:10.792,-0.38,-0.1
15:24:10.796,-0.385,-0.085
15:24:10.800,-0.395,-0.1
15:24:10.804,-0.4,-0.105
15:24:10.808,-0.39,-0.095
15:24:10.812,-0.39,-0.12
15:24:10.816,-0.37,-0.095
15:24:10.820,-0.37,-0.105
15:24:10.824,-0.33,-0.1
15:24:10.828,-0.32,-0.075
15:24:10.832,-0.305,-0.015
15:24:10.836,-0.295,-0.025
15:24:10.840,-0.28,-0.075
15:24:10.844,-0.215,-0.135
15:24:10.848,-0.16,-0.16
15:24:10.852,-0.095,-0.155
15:24:10.856,-0.02,-0.14
15:24:10.860,0.03,-0.23
15:24:10.864,0.09,-0.32
15:24:10.868,0.13,-0.42
15:24:10.872,0.18,-0.47
15:24:10.876,0.205,-0.595
15:24:10.880,0.215,-0.755
15:24:10.884,0.215,-0.99
15:24:10.888,0.275,-1.235
15:24:10.892,0.47,-1.52
15:24:10.896,0.78,-1.8
15:24:10.900,1.06,-2.0
15:24:10.904,1.18,-2.16
15:24:10.908,1.02,-2.11
15:24:10.912,0.54,-1.775
15:24:10.916,0.005,-1.32
15:24:10.920,-0.305,-0.975
15:24:10.924,-0.45,-0.79
15:24:10.928,-0.505,-0.6
15:24:10.932,-0.505,-0.43
15:24:10.936,-0.48,-0.27
15:24:10.940,-0.46,-0.19
15:24:10.944,-0.46,-0.125
15:24:10.948,-0.45,-0.045
15:24:10.952,-0.42,-0.015
15:24:10.956,-0.405,0.01
15:24:10.960,-0.39,0.0
15:24:10.964,-0.395,0.005
15:24:10.968,-0.405,0.005
15:24:10.972,-0.415,0.02
15:24:10.976,-0.425,0.035
15:24:10.980,-0.45,0.06
15:24:10.984,-0.465,0.045
15:24:10.988,-0.465,0.035
15:24:10.992,-0.5,0.045
15:24:10.996,-0.515,0.125
15:24:11.000,-0.555,0.155
15:24:11.004,-0.57,0.15
15:24:11.008,-0.575,0.12
15:24:11.012,-0.575,0.07
15:24:11.016,-0.58,0.075
15:24:11.020,-0.57,0.075
15:24:11.024,-0.545,0.115
15:24:11.028,-0.54,0.15
15:24:11.032,-0.54,0.18
15:24:11.036,-0.54,0.21
15:24:11.040,-0.545,0.19
15:24:11.044,-0.545,0.21
15:24:11.048,-0.53,0.195
15:24:11.052,-0.5,0.185
15:24:11.056,-0.5,0.205
15:24:11.060,-0.535,0.21
15:24:11.064,-0.51,0.21
15:24:11.068,-0.515,0.23
15:24:11.072,-0.495,0.19
15:24:11.076,-0.495,0.185
15:24:11.080,-0.475,0.195
15:24:11.084,-0.465,0.155
15:24:11.088,-0.46,0.14
15:24:11.092,-0.455,0.14
15:24:11.096,-0.445,0.14
15:24:11.100,-0.445,0.155
15:24:11.104,-0.44,0.14
15:24:11.108,-0.455,0.105
15:24:11.112,-0.435,0.095
15:24:11.116,-0.45,0.055
15:24:11.120,-0.46,-0.005
15:24:11.124,-0.465,-0.06
15:24:11.128,-0.425,-0.105
15:24:11.132,-0.425,-0.18
15:24:11.136,-0.425,-0.195
15:24:11.140,-0.4,-0.19
15:24:11.144,-0.39,-0.2
15:24:11.148,-0.395,-0.16
15:24:11.152,-0.39,-0.16
15:24:11.156,-0.42,-0.175
15:24:11.160,-0.4,-0.195
15:24:11.164,-0.365,-0.21
15:24:11.168,-0.36,-0.225
15:24:11.172,-0.345,-0.21
15:24:11.176,-0.355,-0.14
15:24:11.180,-0.34,-0.15
15:24:11.184,-0.345,-0.165
15:24:11.188,-0.35,-0.17
15:24:11.192,-0.35,-0.16
15:24:11.196,-0.335,-0.14
15:24:11.200,-0.345,-0.115
15:24:11.204,-0.315,-0.1
15:24:11.208,-0.35,-0.085
15:24:11.212,-0.35,-0.07
15:24:11.216,-0.355,-0.05
15:24:11.220,-0.35,-0.025
15:24:11.224,-0.37,-0.02
15:24:11.228,-0.37,0.0
15:24:11.232,-0.395,-0.04
15:24:11.236,-0.405,-0.065
15:24:11.240,-0.43,-0.08
15:24:11.244,-0.425,-0.045
15:24:11.248,-0.45,-0.075
15:24:11.252,-0.47,-0.09
15:24:11.256,-0.455,-0.095
15:24:11.260,-0.42,-0.085
15:24:11.264,-0.395,-0.08
15:24:11.268,-0.325,-0.13
15:24:11.272,-0.25,-0.185
15:24:11.276,-0.2,-0.225
15:24:11.280,-0.15,-0.285
15:24:11.284,-0.105,-0.32
15:24:11.288,-0.04,-0.4
15:24:11.292,0.03,-0.525
15:24:11.296,0.05,-0.665
15:24:11.300,0.09,-0.845
15:24:11.304,0.12,-1.055
15:24:11.308,0.28,-1.275
15:24:11.312,0.52,-1.565
15:24:11.316,0.83,-1.855
15:24:11.320,1.02,-2.06
15:24:11.324,0.99,-2.07
15:24:11.328,0.63,-1.89
15:24:11.332,0.135,-1.505
15:24:11.336,-0.255,-1.09
15:24:11.340,-0.435,-0.805
15:24:11.344,-0.51,-0.625
15:24:11.348,-0.54,-0.445
15:24:11.352,-0.545,-0.325
15:24:11.356,-0.55,-0.27
15:24:11.360,-0.565,-0.24
15:24:11.364,-0.57,-0.17
15:24:11.368,-0.575,-0.165
15:24:11.372,-0.59,-0.145
15:24:11.376,-0.59,-0.15
15:24:11.380,-0.595,-0.1
15:24:11.384,-0.605,-0.08
15:24:11.388,-0.6,-0.065
15:24:11.392,-0.605,-0.06
15:24:11.396,-0.62,-0.02
15:24:11.400,-0.64,-0.03
15:24:11.404,-0.63,-0.025
15:24:11.408,-0.625,-0.025
15:24:11.412,-0.61,-0.015
15:24:11.416,-0.61,0.03
15:24:11.420,-0.6,0.04
15:24:11.424,-0.58,0.03
15:24:11.428,-0.545,0.05
15:24:11.432,-0.545,0.07
15:24:11.436,-0.55,0.1
15:24:11.440,-0.555,0.16
15:24:11.444,-0.59,0.165
15:24:11.448,-0.59,0.2
15:24:11.452,-0.625,0.175
15:24:11.456,-0.62,0.155
15:24:11.460,-0.62,0.145
15:24:11.464,-0.64,0.135
15:24:11.468,-0.64,0.165
15:24:11.472,-0.65,0.145
15:24:11.476,-0.65,0.17
15:24:11.480,-0.615,0.175
15:24:11.484,-0.625,0.17
15:24:11.488,-0.635,0.165
15:24:11.492,-0.62,0.165
15:24:11.496,-0.635,0.115
15:24:11.500,-0.615,0.095
15:24:11.504,-0.62,0.005
15:24:11.508,-0.605,-0.005
15:24:11.512,-0.605,-0.03
15:24:11.516,-0.59,-0.02
15:24:11.520,-0.575,-0.03
15:24:11.524,-0.54,-0.04
15:24:11.528,-0.515,-0.035
15:24:11.532,-0.535,-0.035
15:24:11.536,-0.5,-0.025
15:24:11.540,-0.48,-0.065
15:24:11.544,-0.445,-0.065
15:24:11.548,-0.45,-0.105
15:24:11.552,-0.43,-0.105
15:24:11.556,-0.41,-0.115
15:24:11.560,-0.4,-0.09
15:24:11.564,-0.375,-0.11
15:24:11.568,-0.36,-0.105
15:24:11.572,-0.37,-0.155
15:24:11.576,-0.4,-0.16
15:24:11.580,-0.37,-0.145
15:24:11.584,-0.38,-0.14
15:24:11.588,-0.375,-0.145
15:24:11.592,-0.36,-0.155
15:24:11.596,-0.375,-0.16
15:24:11.600,-0.355,-0.155
15:24:11.604,-0.375,-0.145
15:24:11.608,-0.355,-0.14
15:24:11.612,-0.35,-0.125
15:24:11.616,-0.355,-0.125
15:24:11.620,-0.365,-0.135
15:24:11.624,-0.355,-0.155
15:24:11.628,-0.35,-0.185
15:24:11.632,-0.33,-0.175
15:24:11.636,-0.335,-0.175
15:24:11.640,-0.365,-0.18
15:24:11.644,-0.365,-0.155
15:24:11.648,-0.37,-0.195
15:24:11.652,-0.36,-0.15
15:24:11.656,-0.34,-0.14
15:24:11.660,-0.31,-0.12
15:24:11.664,-0.355,-0.09
15:24:11.668,-0.335,-0.065
15:24:11.672,-0.36,-0.08
15:24:11.676,-0.385,-0.11
15:24:11.680,-0.385,-0.105
15:24:11.684,-0.4,-0.065
15:24:11.688,-0.37,-0.06
15:24:11.692,-0.375,-0.055
15:24:11.696,-0.315,-0.07
15:24:11.700,-0.24,-0.085
15:24:11.704,-0.165,-0.13
15:24:11.708,-0.1,-0.185
15:24:11.712,-0.035,-0.28
15:24:11.716,0.03,-0.38
15:24:11.720,0.11,-0.45
15:24:11.724,0.2,-0.58
15:24:11.728,0.23,-0.74
15:24:11.732,0.26,-0.925
15:24:11.736,0.315,-1.16
15:24:11.740,0.465,-1.43
15:24:11.744,0.735,-1.67
15:24:11.748,1.03,-1.885
15:24:11.752,1.2,-2.05
15:24:11.756,1.08,-2.045
15:24:11.760,0.71,-1.815
15:24:11.764,0.18,-1.38
15:24:11.768,-0.19,-0.99
15:24:11.772,-0.36,-0.785
15:24:11.776,-0.42,-0.61
15:24:11.780,-0.48,-0.43
15:24:11.784,-0.47,-0.255
15:24:11.788,-0.485,-0.16
15:24:11.792,-0.505,-0.105
15:24:11.796,-0.505,-0.085
15:24:11.800,-0.52,-0.055
15:24:11.804,-0.515,-0.045
15:24:11.808,-0.525,0.0
15:24:11.812,-0.535,0.0
15:24:11.816,-0.52,0.01
15:24:11.820,-0.52,-0.005
15:24:11.824,-0.515,0.005
15:24:11.828,-0.525,0.04
15:24:11.832,-0.53,0.04
15:24:11.836,-0.53,0.055
15:24:11.840,-0.515,0.08
15:24:11.844,-0.51,0.07
15:24:11.848,-0.49,0.03
15:24:11.852,-0.465,0.015
15:24:11.856,-0.46,0.0
15:24:11.860,-0.44,0.015
15:24:11.864,-0.46,0.045
15:24:11.868,-0.45,0.055
15:24:11.872,-0.455,0.065
15:24:11.876,-0.49,0.115
15:24:11.880,-0.465,0.14
15:24:11.884,-0.45,0.115
15:24:11.888,-0.455,0.125
15:24:11.892,-0.465,0.12
15:24:11.896,-0.47,0.12
15:24:11.900,-0.47,0.11
15:24:11.904,-0.48,0.11
15:24:11.908,-0.49,0.17
15:24:11.912,-0.48,0.215
15:24:11.916,-0.495,0.21
15:24:11.920,-0.5,0.185
15:24:11.924,-0.49,0.175
15:24:11.928,-0.5,0.155
15:24:11.932,-0.505,0.16
15:24:11.936,-0.49,0.15
15:24:11.940,-0.485,0.145
15:24:11.944,-0.48,0.11
15:24:11.948,-0.44,0.1
15:24:11.952,-0.45,0.055
15:24:11.956,-0.44,0.06
15:24:11.960,-0.45,0.06
15:24:11.964,-0.45,0.065
15:24:11.968,-0.445,0.03
15:24:11.972,-0.435,0.02
15:24:11.976,-0.445,0.0
15:24:11.980,-0.445,0.02
15:24:11.984,-0.45,-0.005
15:24:11.988,-0.455,-0.075
15:24:11.992,-0.415,-0.065
15:24:11.996,-0.4,-0.075
15:24:12.000,-0.4,-0.065
15:24:12.004,-0.385,-0.08
15:24:12.008,-0.39,-0.125
15:24:12.012,-0.415,-0.13
15:24:12.016,-0.395,-0.15
15:24:12.020,-0.39,-0.175
15:24:12.024,-0.385,-0.165
15:24:12.028,-0.355,-0.145
15:24:12.032,-0.355,-0.175
15:24:12.036,-0.33,-0.18
15:24:12.040,-0.345,-0.18
15:24:12.044,-0.335,-0.185
15:24:12.048,-0.335,-0.195
15:24:12.052,-0.335,-0.16
15:24:12.056,-0.3,-0.14
15:24:12.060,-0.305,-0.14
15:24:12.064,-0.295,-0.165
15:24:12.068,-0.27,-0.17
15:24:12.072,-0.285,-0.165
15:24:12.076,-0.27,-0.155
15:24:12.080,-0.24,-0.13
15:24:12.084,-0.235,-0.1
15:24:12.088,-0.23,-0.1
15:24:12.092,-0.235,-0.1
15:24:12.096,-0.255,-0.09
15:24:12.100,-0.29,-0.11
15:24:12.104,-0.295,-0.12
15:24:12.108,-0.3,-0.145
15:24:12.112,-0.31,-0.125
15:24:12.116,-0.32,-0.11
15:24:12.120,-0.335,-0.07
15:24:12.124,-0.35,-0.045
15:24:12.128,-0.34,-0.065
15:24:12.132,-0.35,-0.095
15:24:12.136,-0.36,-0.145
15:24:12.140,-0.365,-0.155
15:24:12.144,-0.37,-0.16
15:24:12.148,-0.345,-0.155
15:24:12.152,-0.275,-0.125
15:24:12.156,-0.185,-0.095
15:24:12.160,-0.1,-0.105
15:24:12.164,-0.03,-0.22
15:24:12.168,0.005,-0.32
15:24:12.172,0.045,-0.36
15:24:12.176,0.06,-0.435
15:24:12.180,0.06,-0.565
15:24:12.184,0.05,-0.675
15:24:12.188,0.065,-0.88
15:24:12.192,0.135,-1.11
15:24:12.196,0.285,-1.36
15:24:12.200,0.555,-1.6
15:24:12.204,0.905,-1.85
15:24:12.208,1.13,-2.04
15:24:12.212,1.145,-2.105
15:24:12.216,0.835,-1.97
15:24:12.220,0.31,-1.555
15:24:12.224,-0.15,-1.12
15:24:12.228,-0.4,-0.81
15:24:12.232,-0.52,-0.635
15:24:12.236,-0.585,-0.46
15:24:12.240,-0.605,-0.3
15:24:12.244,-0.565,-0.185
15:24:12.248,-0.555,-0.095
15:24:12.252,-0.545,-0.04
15:24:12.256,-0.555,-0.035
15:24:12.260,-0.55,-0.02
15:24:12.264,-0.56,-0.01
15:24:12.268,-0.57,-0.005
15:24:12.272,-0.56,0.01
15:24:12.276,-0.55,0.01
15:24:12.280,-0.54,0.065
15:24:12.284,-0.53,0.08
15:24:12.288,-0.525,0.095
15:24:12.292,-0.49,0.095
15:24:12.296,-0.46,0.09
15:24:12.300,-0.46,0.055
15:24:12.304,-0.44,0.035
15:24:12.308,-0.415,0.02
15:24:12.312,-0.435,0.04
15:24:12.316,-0.445,0.06
15:24:12.320,-0.435,0.075
15:24:12.324,-0.43,0.09
15:24:12.328,-0.425,0.105
15:24:12.332,-0.435,0.12
15:24:12.336,-0.465,0.13
15:24:12.340,-0.485,0.115
15:24:12.344,-0.49,0.12
15:24:12.348,-0.51,0.15
15:24:12.352,-0.49,0.14
15:24:12.356,-0.495,0.14
15:24:12.360,-0.475,0.155
15:24:12.364,-0.485,0.12
15:24:12.368,-0.48,0.13
15:24:12.372,-0.47,0.125
15:24:12.376,-0.44,0.14
15:24:12.380,-0.475,0.155
15:24:12.384,-0.47,0.165
15:24:12.388,-0.49,0.14
15:24:12.392,-0.47,0.145
15:24:12.396,-0.495,0.16
15:24:12.400,-0.515,0.125
15:24:12.404,-0.515,0.13
15:24:12.408,-0.52,0.105
15:24:12.412,-0.53,0.08
15:24:12.416,-0.515,0.07
15:24:12.420,-0.505,0.06
15:24:12.424,-0.505,0.08
15:24:12.428,-0.505,0.08
15:24:12.432,-0.51,0.02
15:24:12.436,-0.485,0.01
15:24:12.440,-0.435,-0.01
15:24:12.444,-0.425,0.0
15:24:12.448,-0.43,-0.02
15:24:12.452,-0.44,-0.01
15:24:12.456,-0.405,0.0
15:24:12.460,-0.4,-0.02
15:24:12.464,-0.385,-0.055
15:24:12.468,-0.37,-0.075
15:24:12.472,-0.36,-0.105
15:24:12.476,-0.35,-0.11
15:24:12.480,-0.365,-0.11
15:24:12.484,-0.36,-0.125
15:24:12.488,-0.335,-0.09
15:24:12.492,-0.32,-0.09
15:24:12.496,-0.305,-0.06
15:24:12.500,-0.315,-0.04
15:24:12.504,-0.32,-0.03
15:24:12.508,-0.32,-0.07
15:24:12.512,-0.305,-0.06
15:24:12.516,-0.3,-0.035
15:24:12.520,-0.29,-0.015
15:24:12.524,-0.28,-0.005
15:24:12.528,-0.275,-0.065
15:24:12.532,-0.27,-0.09
15:24:12.536,-0.235,-0.1
15:24:12.540,-0.21,-0.04
15:24:12.544,-0.21,-0.025
15:24:12.548,-0.18,-0.04
15:24:12.552,-0.17,-0.06
15:24:12.556,-0.115,-0.06
15:24:12.560,-0.07,-0.075
15:24:12.564,-0.025,-0.055
15:24:12.568,0.04,-0.08
15:24:12.572,0.11,-0.11
15:24:12.576,0.095,-0.19
15:24:12.580,0.075,-0.22
15:24:12.584,0.08,-0.29
15:24:12.588,0.055,-0.34
15:24:12.592,0.055,-0.47
15:24:12.596,0.05,-0.62
15:24:12.600,0.11,-0.865
15:24:12.604,0.235,-1.165
15:24:12.608,0.465,-1.505
15:24:12.612,0.76,-1.89
15:24:12.616,1.025,-2.16
15:24:12.620,1.12,-2.23
15:24:12.624,0.955,-2.105
15:24:12.628,0.5,-1.78
15:24:12.632,0.01,-1.325
15:24:12.636,-0.31,-0.94
15:24:12.640,-0.47,-0.71
15:24:12.644,-0.55,-0.495
15:24:12.648,-0.58,-0.295
15:24:12.652,-0.59,-0.17
15:24:12.656,-0.615,-0.135
15:24:12.660,-0.61,-0.11
15:24:12.664,-0.62,-0.055
15:24:12.668,-0.585,0.03
15:24:12.672,-0.6,0.06
15:24:12.676,-0.555,0.075
15:24:12.680,-0.53,0.12
15:24:12.684,-0.51,0.085
15:24:12.688,-0.495,0.055
15:24:12.692,-0.51,0.045
15:24:12.696,-0.48,0.065
15:24:12.700,-0.48,0.07
15:24:12.704,-0.475,0.125
15:24:12.708,-0.465,0.145
15:24:12.712,-0.485,0.14
15:24:12.716,-0.49,0.13
15:24:12.720,-0.475,0.125
15:24:12.724,-0.475,0.145
15:24:12.728,-0.495,0.19
15:24:12.732,-0.485,0.195
15:24:12.736,-0.48,0.19
15:24:12.740,-0.49,0.215
15:24:12.744,-0.48,0.225
15:24:12.748,-0.505,0.215
15:24:12.752,-0.505,0.17
15:24:12.756,-0.505,0.175
15:24:12.760,-0.52,0.19
15:24:12.764,-0.475,0.205
15:24:12.768,-0.46,0.205
15:24:12.772,-0.465,0.185
15:24:12.776,-0.44,0.19
15:24:12.780,-0.435,0.235
15:24:12.784,-0.42,0.24
15:24:12.788,-0.36,0.24
15:24:12.792,-0.365,0.23
15:24:12.796,-0.345,0.215
15:24:12.800,-0.315,0.18
15:24:12.804,-0.315,0.145
15:24:12.808,-0.31,0.135
15:24:12.812,-0.32,0.12
15:24:12.816,-0.34,0.08
15:24:12.820,-0.35,0.045
15:24:12.824,-0.38,0.08
15:24:12.828,-0.375,0.065
15:24:12.832,-0.39,0.05
15:24:12.836,-0.4,0.04
15:24:12.840,-0.4,-0.01
15:24:12.844,-0.42,-0.05
15:24:12.848,-0.43,-0.07
15:24:12.852,-0.44,-0.085
15:24:12.856,-0.45,-0.065
15:24:12.860,-0.45,-0.08
15:24:12.864,-0.435,-0.08
15:24:12.868,-0.435,-0.065
15:24:12.872,-0.435,-0.07
15:24:12.876,-0.455,-0.095
15:24:12.880,-0.44,-0.12
15:24:12.884,-0.42,-0.12
15:24:12.888,-0.415,-0.08
15:24:12.892,-0.42,-0.04
15:24:12.896,-0.395,-0.07
15:24:12.900,-0.39,-0.14
15:24:12.904,-0.37,-0.15
15:24:12.908,-0.38,-0.145
15:24:12.912,-0.39,-0.105
15:24:12.916,-0.365,-0.05
15:24:12.920,-0.36,-0.055
15:24:12.924,-0.36,-0.05
15:24:12.928,-0.35,-0.05
15:24:12.932,-0.335,-0.04
15:24:12.936,-0.325,-0.06
15:24:12.940,-0.345,-0.04
15:24:12.944,-0.355,-0.055
15:24:12.948,-0.36,-0.045
15:24:12.952,-0.355,-0.03
15:24:12.956,-0.375,0.0
15:24:12.960,-0.365,-0.025
15:24:12.964,-0.345,-0.005
15:24:12.968,-0.365,-0.03
15:24:12.972,-0.38,-0.04
15:24:12.976,-0.395,-0.02
15:24:12.980,-0.4,-0.055
15:24:12.984,-0.39,-0.08
15:24:12.988,-0.4,-0.065
15:24:12.992,-0.39,-0.045
15:24:12.996,-0.385,-0.03
15:24:13.000,-0.375,-0.065
15:24:13.004,-0.38,-0.105
15:24:13.008,-0.365,-0.105
15:24:13.012,-0.34,-0.095
15:24:13.016,-0.315,-0.1
15:24:13.020,-0.295,-0.13
15:24:13.024,-0.27,-0.15
15:24:13.028,-0.25,-0.16
15:24:13.032,-0.25,-0.18
15:24:13.036,-0.255,-0.175
15:24:13.040,-0.265,-0.18
15:24:13.044,-0.275,-0.18
15:24:13.048,-0.29,-0.2
15:24:13.052,-0.295,-0.215
15:24:13.056,-0.315,-0.18
15:24:13.060,-0.32,-0.165
15:24:13.064,-0.33,-0.15
15:24:13.068,-0.33,-0.15
15:24:13.072,-0.32,-0.125
15:24:13.076,-0.33,-0.15
15:24:13.080,-0.35,-0.12
15:24:13.084,-0.365,-0.155
15:24:13.088,-0.415,-0.185
15:24:13.092,-0.42,-0.175
15:24:13.096,-0.405,-0.13
15:24:13.100,-0.4,-0.115
15:24:13.104,-0.415,-0.105
15:24:13.108,-0.43,-0.085
15:24:13.112,-0.425,-0.135
15:24:13.116,-0.45,-0.16
15:24:13.120,-0.44,-0.16
15:24:13.124,-0.435,-0.15
15:24:13.128,-0.45,-0.155
15:24:13.132,-0.44,-0.13
15:24:13.136,-0.42,-0.095
15:24:13.140,-0.39,-0.085
15:24:13.144,-0.35,-0.11
15:24:13.148,-0.38,-0.16
15:24:13.152,-0.37,-0.16
15:24:13.156,-0.38,-0.165
15:24:13.160,-0.375,-0.15
15:24:13.164,-0.365,-0.125
15:24:13.168,-0.355,-0.11
15:24:13.172,-0.35,-0.1
15:24:13.176,-0.335,-0.135
15:24:13.180,-0.345,-0.14
15:24:13.184,-0.35,-0.12
15:24:13.188,-0.33,-0.075
15:24:13.192,-0.32,-0.08
15:24:13.196,-0.295,-0.08
15:24:13.200,-0.305,-0.1
15:24:13.204,-0.3,-0.135
15:24:13.208,-0.28,-0.13
15:24:13.212,-0.285,-0.11
15:24:13.216,-0.28,-0.12
15:24:13.220,-0.285,-0.13
15:24:13.224,-0.275,-0.1
15:24:13.228,-0.265,-0.075
15:24:13.232,-0.275,-0.065
15:24:13.236,-0.26,-0.075
15:24:13.240,-0.28,-0.08
15:24:13.244,-0.25,-0.125
15:24:13.248,-0.225,-0.105
15:24:13.252,-0.225,-0.125
15:24:13.256,-0.225,-0.14
15:24:13.260,-0.23,-0.155
15:24:13.264,-0.23,-0.165
15:24:13.268,-0.25,-0.155
15:24:13.272,-0.24,-0.16
15:24:13.276,-0.24,-0.16
15:24:13.280,-0.25,-0.135
15:24:13.284,-0.245,-0.13
15:24:13.288,-0.27,-0.16
15:24:13.292,-0.27,-0.16
15:24:13.296,-0.275,-0.16
15:24:13.300,-0.29,-0.17
15:24:13.304,-0.28,-0.18
15:24:13.308,-0.295,-0.2
15:24:13.312,-0.3,-0.25
15:24:13.316,-0.335,-0.245
15:24:13.320,-0.37,-0.225
15:24:13.324,-0.385,-0.235
15:24:13.328,-0.37,-0.205
15:24:13.332,-0.41,-0.195
15:24:13.336,-0.425,-0.18
15:24:13.340,-0.44,-0.165
15:24:13.344,-0.425,-0.13
15:24:13.348,-0.42,-0.11
15:24:13.352,-0.405,-0.135
15:24:13.356,-0.395,-0.125
15:24:13.360,-0.345,-0.14
15:24:13.364,-0.32,-0.135
15:24:13.368,-0.23,-0.16
15:24:13.372,-0.13,-0.17
15:24:13.376,-0.055,-0.23
15:24:13.380,-0.01,-0.32
15:24:13.384,0.035,-0.44
15:24:13.388,0.06,-0.555
15:24:13.392,0.07,-0.68
15:24:13.396,0.095,-0.84
15:24:13.400,0.095,-1.04
15:24:13.404,0.205,-1.33
15:24:13.408,0.385,-1.605
15:24:13.412,0.695,-1.88
15:24:13.416,1.0,-2.09
15:24:13.420,1.2,-2.18
15:24:13.424,1.17,-2.085
15:24:13.428,0.8,-1.785
15:24:13.432,0.265,-1.34
15:24:13.436,-0.11,-0.935
15:24:13.440,-0.29,-0.695
15:24:13.444,-0.415,-0.505
15:24:13.448,-0.45,-0.335
15:24:13.452,-0.43,-0.18
15:24:13.456,-0.4,-0.05
15:24:13.460,-0.38,0.01
15:24:13.464,-0.365,0.085
15:24:13.468,-0.36,0.13
15:24:13.472,-0.38,0.155
15:24:13.476,-0.39,0.135
15:24:13.480,-0.42,0.13
15:24:13.484,-0.435,0.17
15:24:13.488,-0.43,0.18
15:24:13.492,-0.43,0.18
15:24:13.496,-0.415,0.165
15:24:13.500,-0.4,0.1
15:24:13.504,-0.37,0.075
15:24:13.508,-0.385,0.075
15:24:13.512,-0.39,0.085
15:24:13.516,-0.39,0.065
15:24:13.520,-0.415,0.05
15:24:13.524,-0.41,0.04
15:24:13.528,-0.42,0.07
15:24:13.532,-0.435,0.075
15:24:13.536,-0.44,0.09
15:24:13.540,-0.45,0.11
15:24:13.544,-0.465,0.14
15:24:13.548,-0.48,0.155
15:24:13.552,-0.51,0.195
15:24:13.556,-0.495,0.19
15:24:13.560,-0.51,0.13
15:24:13.564,-0.475,0.115
15:24:13.568,-0.47,0.135
15:24:13.572,-0.48,0.145
15:24:13.576,-0.485,0.11
15:24:13.580,-0.49,0.115
15:24:13.584,-0.48,0.105
15:24:13.588,-0.49,0.14
15:24:13.592,-0.48,0.155
15:24:13.596,-0.495,0.155
15:24:13.600,-0.46,0.18
15:24:13.604,-0.46,0.18
15:24:13.608,-0.465,0.18
15:24:13.612,-0.445,0.16
15:24:13.616,-0.45,0.15
15:24:13.620,-0.44,0.145
15:24:13.624,-0.45,0.14
15:24:13.628,-0.45,0.115
15:24:13.632,-0.415,0.135
15:24:13.636,-0.405,0.155
15:24:13.640,-0.37,0.145
15:24:13.644,-0.35,0.15
15:24:13.648,-0.345,0.145
15:24:13.652,-0.335,0.15
15:24:13.656,-0.32,0.195
15:24:13.660,-0.33,0.19
15:24:13.664,-0.34,0.175
15:24:13.668,-0.325,0.14
15:24:13.672,-0.32,0.1
15:24:13.676,-0.32,0.13
15:24:13.680,-0.315,0.105
15:24:13.684,-0.31,0.085
15:24:13.688,-0.28,0.07
15:24:13.692,-0.295,0.04
15:24:13.696,-0.31,0.01
15:24:13.700,-0.315,-0.01
15:24:13.704,-0.33,0.0
15:24:13.708,-0.31,-0.035
15:24:13.712,-0.285,-0.06
15:24:13.716,-0.27,-0.115
15:24:13.720,-0.26,-0.13
15:24:13.724,-0.27,-0.14
15:24:13.728,-0.26,-0.14
15:24:13.732,-0.275,-0.13
15:24:13.736,-0.275,-0.11
15:24:13.740,-0.3,-0.12
15:24:13.744,-0.305,-0.14
15:24:13.748,-0.32,-0.14
15:24:13.752,-0.335,-0.135
15:24:13.756,-0.37,-0.135
15:24:13.760,-0.345,-0.15
15:24:13.764,-0.345,-0.16
15:24:13.768,-0.37,-0.13
15:24:13.772,-0.4,-0.11
15:24:13.776,-0.39,-0.11
15:24:13.780,-0.39,-0.07
15:24:13.784,-0.375,-0.045
15:24:13.788,-0.36,-0.015
15:24:13.792,-0.4,-0.01
15:24:13.796,-0.4,-0.03
15:24:13.800,-0.42,-0.03
15:24:13.804,-0.43,-0.06
15:24:13.808,-0.43,-0.07
15:24:13.812,-0.425,-0.07
15:24:13.816,-0.42,-0.06
15:24:13.820,-0.41,-0.065
15:24:13.824,-0.41,-0.06
15:24:13.828,-0.39,-0.09
15:24:13.832,-0.415,-0.12
15:24:13.836,-0.4,-0.13
15:24:13.840,-0.365,-0.105
15:24:13.844,-0.32,-0.11
15:24:13.848,-0.28,-0.09
15:24:13.852,-0.225,-0.115
15:24:13.856,-0.16,-0.155
15:24:13.860,-0.06,-0.16
15:24:13.864,0.005,-0.17
15:24:13.868,0.06,-0.235
15:24:13.872,0.14,-0.33
15:24:13.876,0.19,-0.435
15:24:13.880,0.215,-0.595
15:24:13.884,0.22,-0.8
15:24:13.888,0.225,-0.975
15:24:13.892,0.31,-1.2
15:24:13.896,0.49,-1.47
15:24:13.900,0.795,-1.78
15:24:13.904,1.1,-1.985
15:24:13.908,1.195,-2.145
15:24:13.912,1.02,-2.04
15:24:13.916,0.55,-1.705
15:24:13.920,0.06,-1.235
15:24:13.924,-0.23,-0.89
15:24:13.928,-0.345,-0.705
15:24:13.932,-0.44,-0.53
15:24:13.936,-0.465,-0.32
15:24:13.940,-0.45,-0.16
15:24:13.944,-0.47,-0.095
15:24:13.948,-0.48,-0.08
15:24:13.952,-0.49,-0.05
15:24:13.956,-0.49,-0.02
15:24:13.960,-0.49,0.0
15:24:13.964,-0.5,0.0
15:24:13.968,-0.495,0.01
15:24:13.972,-0.53,0.04
15:24:13.976,-0.515,0.05
15:24:13.980,-0.515,0.065
15:24:13.984,-0.53,0.035
15:24:13.988,-0.545,0.065
15:24:13.992,-0.54,0.06
15:24:13.996,-0.55,0.075
15:24:14.000,-0.56,0.08
15:24:14.004,-0.575,0.09
15:24:14.008,-0.575,0.105
15:24:14.012,-0.58,0.125
15:24:14.016,-0.57,0.175
15:24:14.020,-0.59,0.165
15:24:14.024,-0.59,0.145
15:24:14.028,-0.56,0.15
15:24:14.032,-0.57,0.195
15:24:14.036,-0.585,0.19
15:24:14.040,-0.585,0.195
15:24:14.044,-0.59,0.18
15:24:14.048,-0.59,0.19
15:24:14.052,-0.585,0.2
15:24:14.056,-0.585,0.17
15:24:14.060,-0.565,0.155
15:24:14.064,-0.56,0.145
15:24:14.068,-0.53,0.16
15:24:14.072,-0.49,0.17
15:24:14.076,-0.49,0.17
15:24:14.080,-0.48,0.14
15:24:14.084,-0.495,0.15
15:24:14.088,-0.465,0.125
15:24:14.092,-0.465,0.11
15:24:14.096,-0.445,0.105
15:24:14.100,-0.44,0.095
15:24:14.104,-0.415,0.075
15:24:14.108,-0.405,0.09
15:24:14.112,-0.395,0.13
15:24:14.116,-0.41,0.085
15:24:14.120,-0.415,0.05
15:24:14.124,-0.4,0.035
15:24:14.128,-0.39,0.0
15:24:14.132,-0.39,0.015
15:24:14.136,-0.37,0.03
15:24:14.140,-0.35,0.0
15:24:14.144,-0.345,-0.035
15:24:14.148,-0.345,-0.105
15:24:14.152,-0.34,-0.13
15:24:14.156,-0.33,-0.12
15:24:14.160,-0.33,-0.125
15:24:14.164,-0.335,-0.11
15:24:14.168,-0.305,-0.1
15:24:14.172,-0.295,-0.15
15:24:14.176,-0.315,-0.17
15:24:14.180,-0.3,-0.17
15:24:14.184,-0.33,-0.15
15:24:14.188,-0.335,-0.11
15:24:14.192,-0.32,-0.125
15:24:14.196,-0.32,-0.12
15:24:14.200,-0.335,-0.13
15:24:14.204,-0.31,-0.14
15:24:14.208,-0.3,-0.12
15:24:14.212,-0.3,-0.11
15:24:14.216,-0.29,-0.1
15:24:14.220,-0.335,-0.095
15:24:14.224,-0.34,-0.07
15:24:14.228,-0.34,-0.08
15:24:14.232,-0.355,-0.075
15:24:14.236,-0.345,-0.05
15:24:14.240,-0.37,-0.03
15:24:14.244,-0.41,-0.03
15:24:14.248,-0.425,-0.035
15:24:14.252,-0.44,-0.025
15:24:14.256,-0.44,0.005
15:24:14.260,-0.46,0.0
15:24:14.264,-0.46,-0.03
15:24:14.268,-0.455,-0.07
15:24:14.272,-0.46,-0.105
15:24:14.276,-0.49,-0.11
15:24:14.280,-0.45,-0.11
15:24:14.284,-0.455,-0.1
15:24:14.288,-0.46,-0.12
15:24:14.292,-0.475,-0.1
15:24:14.296,-0.46,-0.11
15:24:14.300,-0.44,-0.11
15:24:14.304,-0.45,-0.12
15:24:14.308,-0.45,-0.135
15:24:14.312,-0.445,-0.135
15:24:14.316,-0.44,-0.16
15:24:14.320,-0.435,-0.185
15:24:14.324,-0.41,-0.18
15:24:14.328,-0.38,-0.16
15:24:14.332,-0.35,-0.13
15:24:14.336,-0.37,-0.115
15:24:14.340,-0.36,-0.105
15:24:14.344,-0.34,-0.095
15:24:14.348,-0.32,-0.16
15:24:14.352,-0.285,-0.2
15:24:14.356,-0.26,-0.19
15:24:14.360,-0.23,-0.175
15:24:14.364,-0.21,-0.13
15:24:14.368,-0.16,-0.1
15:24:14.372,-0.135,-0.07
15:24:14.376,-0.07,-0.07
15:24:14.380,0.0,-0.115
15:24:14.384,0.04,-0.19
15:24:14.388,0.08,-0.25
15:24:14.392,0.12,-0.33
15:24:14.396,0.195,-0.505
15:24:14.400,0.23,-0.71
15:24:14.404,0.245,-0.915
15:24:14.408,0.255,-1.14
15:24:14.412,0.345,-1.405
15:24:14.416,0.575,-1.64
15:24:14.420,0.88,-1.95
15:24:14.424,1.125,-2.15
15:24:14.428,1.21,-2.18
15:24:14.432,0.97,-2.015
15:24:14.436,0.48,-1.65
15:24:14.440,-0.01,-1.16
15:24:14.444,-0.3,-0.805
15:24:14.448,-0.445,-0.605
15:24:14.452,-0.505,-0.465
15:24:14.456,-0.54,-0.295
15:24:14.460,-0.51,-0.175
15:24:14.464,-0.52,-0.115
15:24:14.468,-0.545,-0.075
15:24:14.472,-0.55,-0.055
15:24:14.476,-0.56,0.0
15:24:14.480,-0.585,0.03
15:24:14.484,-0.575,0.065
15:24:14.488,-0.565,0.075
15:24:14.492,-0.585,0.075
15:24:14.496,-0.6,0.11
15:24:14.500,-0.625,0.1
15:24:14.504,-0.63,0.13
15:24:14.508,-0.64,0.11
15:24:14.512,-0.635,0.095
15:24:14.516,-0.615,0.09
15:24:14.520,-0.635,0.07
15:24:14.524,-0.64,0.03
15:24:14.528,-0.635,0.005
15:24:14.532,-0.63,0.02
15:24:14.536,-0.63,0.035
15:24:14.540,-0.63,0.065
15:24:14.544,-0.625,0.09
15:24:14.548,-0.62,0.1
15:24:14.552,-0.605,0.1
15:24:14.556,-0.61,0.125
15:24:14.560,-0.62,0.115
15:24:14.564,-0.63,0.1
15:24:14.568,-0.62,0.07
15:24:14.572,-0.63,0.065
15:24:14.576,-0.6,0.1
15:24:14.580,-0.56,0.125
15:24:14.584,-0.55,0.145
15:24:14.588,-0.5,0.155
15:24:14.592,-0.48,0.175
15:24:14.596,-0.42,0.21
15:24:14.600,-0.43,0.24
15:24:14.604,-0.425,0.25
15:24:14.608,-0.43,0.22
15:24:14.612,-0.41,0.21
15:24:14.616,-0.4,0.185
15:24:14.620,-0.42,0.18
15:24:14.624,-0.39,0.13
15:24:14.628,-0.39,0.1
15:24:14.632,-0.38,0.09
15:24:14.636,-0.41,0.08
15:24:14.640,-0.435,0.04
15:24:14.644,-0.44,0.07
15:24:14.648,-0.425,0.095
15:24:14.652,-0.43,0.12
15:24:14.656,-0.43,0.1
15:24:14.660,-0.44,0.07
15:24:14.664,-0.435,0.01
15:24:14.668,-0.425,-0.05
15:24:14.672,-0.4,-0.135
15:24:14.676,-0.41,-0.14
15:24:14.680,-0.405,-0.115
15:24:14.684,-0.425,-0.1
15:24:14.688,-0.445,-0.08
15:24:14.692,-0.435,-0.065
15:24:14.696,-0.4,-0.075
15:24:14.700,-0.44,-0.085
15:24:14.704,-0.425,-0.055
15:24:14.708,-0.44,-0.015
15:24:14.712,-0.455,-0.005
15:24:14.716,-0.425,-0.02
15:24:14.720,-0.425,-0.09
15:24:14.724,-0.405,-0.11
15:24:14.728,-0.41,-0.13
15:24:14.732,-0.4,-0.11
15:24:14.736,-0.395,-0.07
15:24:14.740,-0.395,0.0
15:24:14.744,-0.38,-0.015
15:24:14.748,-0.39,-0.075
15:24:14.752,-0.385,-0.14
15:24:14.756,-0.375,-0.135
15:24:14.760,-0.345,-0.12
15:24:14.764,-0.34,-0.12
15:24:14.768,-0.355,-0.13
15:24:14.772,-0.33,-0.15
15:24:14.776,-0.3,-0.15
15:24:14.780,-0.315,-0.145
15:24:14.784,-0.315,-0.11
15:24:14.788,-0.28,-0.1
15:24:14.792,-0.275,-0.13
15:24:14.796,-0.235,-0.16
15:24:14.800,-0.23,-0.18
15:24:14.804,-0.195,-0.155
15:24:14.808,-0.185,-0.16
15:24:14.812,-0.155,-0.155
15:24:14.816,-0.15,-0.135
15:24:14.820,-0.17,-0.11
15:24:14.824,-0.16,-0.08
15:24:14.828,-0.18,-0.065
15:24:14.832,-0.18,-0.02
15:24:14.836,-0.17,-0.015
15:24:14.840,-0.14,-0.035
15:24:14.844,-0.14,-0.065
15:24:14.848,-0.135,-0.11
15:24:14.852,-0.15,-0.15
15:24:14.856,-0.145,-0.14
15:24:14.860,-0.135,-0.13
15:24:14.864,-0.16,-0.115
15:24:14.868,-0.165,-0.095
15:24:14.872,-0.155,-0.09
15:24:14.876,-0.165,-0.085
15:24:14.880,-0.145,-0.06
15:24:14.884,-0.175,-0.055
15:24:14.888,-0.19,-0.055
15:24:14.892,-0.2,-0.075
15:24:14.896,-0.21,-0.09
15:24:14.900,-0.205,-0.085
15:24:14.904,-0.225,-0.07
15:24:14.908,-0.24,-0.09
15:24:14.912,-0.25,-0.115
15:24:14.916,-0.28,-0.12
15:24:14.920,-0.27,-0.135
15:24:14.924,-0.285,-0.105
15:24:14.928,-0.3,-0.125
15:24:14.932,-0.34,-0.095
15:24:14.936,-0.34,-0.08
15:24:14.940,-0.32,-0.1
15:24:14.944,-0.325,-0.115
15:24:14.948,-0.345,-0.145
15:24:14.952,-0.325,-0.14
15:24:14.956,-0.32,-0.19
15:24:14.960,-0.33,-0.17
15:24:14.964,-0.335,-0.135
15:24:14.968,-0.345,-0.15
15:24:14.972,-0.34,-0.16
15:24:14.976,-0.345,-0.16
15:24:14.980,-0.32,-0.14
15:24:14.984,-0.32,-0.145
15:24:14.988,-0.295,-0.13
15:24:14.992,-0.295,-0.14
15:24:14.996,-0.29,-0.155
15:24:15.000,-0.265,-0.15
15:24:15.004,-0.25,-0.2
15:24:15.008,-0.23,-0.18
15:24:15.012,-0.24,-0.21
15:24:15.016,-0.205,-0.18
15:24:15.020,-0.175,-0.17
15:24:15.024,-0.175,-0.155
15:24:15.028,-0.155,-0.17
15:24:15.032,-0.16,-0.19
15:24:15.036,-0.19,-0.225
15:24:15.040,-0.18,-0.24
15:24:15.044,-0.195,-0.22
15:24:15.048,-0.19,-0.16
15:24:15.052,-0.185,-0.095
15:24:15.056,-0.17,-0.1
15:24:15.060,-0.14,-0.115
15:24:15.064,-0.125,-0.195
15:24:15.068,-0.115,-0.19
15:24:15.072,-0.055,-0.185
15:24:15.076,0.02,-0.185
15:24:15.080,0.08,-0.18
15:24:15.084,0.135,-0.195
15:24:15.088,0.185,-0.28
15:24:15.092,0.235,-0.39
15:24:15.096,0.265,-0.545
15:24:15.100,0.29,-0.715
15:24:15.104,0.285,-0.865
15:24:15.108,0.29,-1.13
15:24:15.112,0.39,-1.395
15:24:15.116,0.61,-1.69
15:24:15.120,0.95,-1.95
15:24:15.124,1.19,-2.18
15:24:15.128,1.275,-2.18
15:24:15.132,1.075,-2.02
15:24:15.136,0.58,-1.59
15:24:15.140,0.06,-1.125
15:24:15.144,-0.27,-0.8
15:24:15.148,-0.395,-0.6
15:24:15.152,-0.46,-0.365
15:24:15.156,-0.51,-0.2
15:24:15.160,-0.53,-0.17
15:24:15.164,-0.54,-0.13
15:24:15.168,-0.545,-0.08
15:24:15.172,-0.565,-0.005
15:24:15.176,-0.59,0.025
15:24:15.180,-0.555,0.085
15:24:15.184,-0.56,0.135
15:24:15.188,-0.55,0.11
15:24:15.192,-0.545,0.09
15:24:15.196,-0.53,0.05
15:24:15.200,-0.52,0.05
15:24:15.204,-0.52,0.055
15:24:15.208,-0.5,0.06
15:24:15.212,-0.5,0.07
15:24:15.216,-0.51,0.03
15:24:15.220,-0.495,0.025
15:24:15.224,-0.5,0.045
15:24:15.228,-0.52,0.04
15:24:15.232,-0.48,0.03
15:24:15.236,-0.485,0.04
15:24:15.240,-0.485,0.05
15:24:15.244,-0.46,0.08
15:24:15.248,-0.445,0.055
15:24:15.252,-0.43,0.0
15:24:15.256,-0.425,-0.03
15:24:15.260,-0.38,0.025
15:24:15.264,-0.32,0.06
15:24:15.268,-0.32,0.055
15:24:15.272,-0.3,0.075
15:24:15.276,-0.31,0.085
15:24:15.280,-0.32,0.12
15:24:15.284,-0.355,0.135
15:24:15.288,-0.38,0.16
15:24:15.292,-0.395,0.155
15:24:15.296,-0.405,0.17
15:24:15.300,-0.43,0.19
15:24:15.304,-0.43,0.265
15:24:15.308,-0.4,0.27
15:24:15.312,-0.41,0.255
15:24:15.316,-0.41,0.2
15:24:15.320,-0.405,0.19
15:24:15.324,-0.41,0.225
15:24:15.328,-0.425,0.2
15:24:15.332,-0.43,0.155
15:24:15.336,-0.435,0.125
15:24:15.340,-0.45,0.14
15:24:15.344,-0.455,0.14
15:24:15.348,-0.455,0.14
15:24:15.352,-0.445,0.125
15:24:15.356,-0.46,0.105
15:24:15.360,-0.45,0.075
15:24:15.364,-0.465,0.055
15:24:15.368,-0.5,0.04
15:24:15.372,-0.475,0.06
15:24:15.376,-0.47,0.035
15:24:15.380,-0.475,0.025
15:24:15.384,-0.46,0.02
15:24:15.388,-0.48,0.035
15:24:15.392,-0.48,0.0
15:24:15.396,-0.47,-0.08
15:24:15.400,-0.48,-0.11
15:24:15.404,-0.47,-0.07
15:24:15.408,-0.465,-0.06
15:24:15.412,-0.465,-0.06
15:24:15.416,-0.45,-0.06
15:24:15.420,-0.45,-0.03
15:24:15.424,-0.455,-0.05
15:24:15.428,-0.445,-0.1
15:24:15.432,-0.44,-0.11
15:24:15.436,-0.44,-0.08
15:24:15.440,-0.415,-0.05
15:24:15.444,-0.435,-0.035
15:24:15.448,-0.43,-0.04
15:24:15.452,-0.44,-0.06
15:24:15.456,-0.42,-0.075
15:24:15.460,-0.41,-0.075
15:24:15.464,-0.405,-0.085
15:24:15.468,-0.395,-0.08
15:24:15.472,-0.4,-0.06
15:24:15.476,-0.405,-0.075
15:24:15.480,-0.38,-0.075
15:24:15.484,-0.37,-0.1
15:24:15.488,-0.335,-0.1
15:24:15.492,-0.31,-0.105
15:24:15.496,-0.31,-0.13
15:24:15.500,-0.305,-0.155
15:24:15.504,-0.28,-0.185
15:24:15.508,-0.26,-0.13
15:24:15.512,-0.265,-0.125
15:24:15.516,-0.3,-0.095
15:24:15.520,-0.3,-0.1
15:24:15.524,-0.31,-0.12
15:24:15.528,-0.305,-0.11
15:24:15.532,-0.33,-0.125
15:24:15.536,-0.345,-0.105
15:24:15.540,-0.385,-0.12
15:24:15.544,-0.39,-0.075
15:24:15.548,-0.36,-0.04
15:24:15.552,-0.35,-0.07
15:24:15.556,-0.355,-0.1
15:24:15.560,-0.36,-0.125
15:24:15.564,-0.36,-0.15
15:24:15.568,-0.37,-0.13
15:24:15.572,-0.37,-0.13
15:24:15.576,-0.365,-0.13
15:24:15.580,-0.355,-0.105
15:24:15.584,-0.37,-0.09
15:24:15.588,-0.395,-0.095
15:24:15.592,-0.37,-0.095
15:24:15.596,-0.35,-0.095
15:24:15.600,-0.38,-0.065
15:24:15.604,-0.405,-0.045
15:24:15.608,-0.405,-0.035
15:24:15.612,-0.41,-0.075
15:24:15.616,-0.42,-0.08
15:24:15.620,-0.44,-0.075
15:24:15.624,-0.435,-0.025
15:24:15.628,-0.43,-0.03
15:24:15.632,-0.415,-0.065
15:24:15.636,-0.395,-0.05
15:24:15.640,-0.39,-0.09
15:24:15.644,-0.35,-0.1
15:24:15.648,-0.26,-0.125
15:24:15.652,-0.205,-0.16
15:24:15.656,-0.1,-0.175
15:24:15.660,-0.02,-0.205
15:24:15.664,0.015,-0.265
15:24:15.668,0.105,-0.39
15:24:15.672,0.2,-0.55
15:24:15.676,0.27,-0.725
15:24:15.680,0.295,-0.895
15:24:15.684,0.31,-1.075
15:24:15.688,0.375,-1.325
15:24:15.692,0.56,-1.59
15:24:15.696,0.875,-1.855
15:24:15.700,1.085,-1.99
15:24:15.704,1.1,-2.06
15:24:15.708,0.81,-1.895
15:24:15.712,0.275,-1.49
15:24:15.716,-0.17,-1.08
15:24:15.720,-0.36,-0.8
15:24:15.724,-0.45,-0.615
15:24:15.728,-0.465,-0.44
15:24:15.732,-0.475,-0.275
15:24:15.736,-0.455,-0.19
15:24:15.740,-0.46,-0.155
15:24:15.744,-0.46,-0.075
15:24:15.748,-0.465,-0.025
15:24:15.752,-0.43,-0.005
15:24:15.756,-0.41,0.005
15:24:15.760,-0.375,0.05
15:24:15.764,-0.385,0.05
15:24:15.768,-0.41,0.08
15:24:15.772,-0.405,0.07
15:24:15.776,-0.42,0.04
15:24:15.780,-0.425,0.065
15:24:15.784,-0.425,0.08
15:24:15.788,-0.44,0.095
15:24:15.792,-0.48,0.1
15:24:15.796,-0.49,0.12
15:24:15.800,-0.48,0.135
15:24:15.804,-0.5,0.11
15:24:15.808,-0.505,0.12
15:24:15.812,-0.525,0.155
15:24:15.816,-0.535,0.19
15:24:15.820,-0.545,0.19
15:24:15.824,-0.53,0.185
15:24:15.828,-0.525,0.155
15:24:15.832,-0.535,0.135
15:24:15.836,-0.54,0.125
15:24:15.840,-0.575,0.15
15:24:15.844,-0.57,0.135
15:24:15.848,-0.58,0.125
15:24:15.852,-0.58,0.16
15:24:15.856,-0.595,0.18
15:24:15.860,-0.57,0.195
15:24:15.864,-0.565,0.215
15:24:15.868,-0.535,0.185
15:24:15.872,-0.535,0.15
15:24:15.876,-0.54,0.11
15:24:15.880,-0.53,0.11
15:24:15.884,-0.52,0.135
15:24:15.888,-0.505,0.155
15:24:15.892,-0.5,0.175
15:24:15.896,-0.515,0.16
15:24:15.900,-0.52,0.15
15:24:15.904,-0.49,0.125
15:24:15.908,-0.49,0.13
15:24:15.912,-0.49,0.12
15:24:15.916,-0.5,0.135
15:24:15.920,-0.48,0.16
15:24:15.924,-0.455,0.12
15:24:15.928,-0.45,0.115
15:24:15.932,-0.445,0.07
15:24:15.936,-0.44,0.035
15:24:15.940,-0.42,0.0
15:24:15.944,-0.42,-0.035
15:24:15.948,-0.395,-0.045
15:24:15.952,-0.365,-0.02
15:24:15.956,-0.36,-0.055
15:24:15.960,-0.32,-0.095
15:24:15.964,-0.305,-0.125
15:24:15.968,-0.295,-0.14
15:24:15.972,-0.27,-0.115
15:24:15.976,-0.245,-0.13
15:24:15.980,-0.195,-0.115
15:24:15.984,-0.16,-0.075
15:24:15.988,-0.155,-0.045
15:24:15.992,-0.145,-0.045
15:24:15.996,-0.105,-0.075
15:24:16.000,-0.095,-0.095
15:24:16.004,-0.11,-0.135
15:24:16.008,-0.13,-0.15
15:24:16.012,-0.145,-0.125
15:24:16.016,-0.165,-0.135
15:24:16.020,-0.2,-0.13
15:24:16.024,-0.25,-0.12
15:24:16.028,-0.275,-0.09
15:24:16.032,-0.29,-0.02
15:24:16.036,-0.315,-0.03
15:24:16.040,-0.3,-0.06
15:24:16.044,-0.345,-0.065
15:24:16.048,-0.35,-0.065
15:24:16.052,-0.365,-0.075
15:24:16.056,-0.39,-0.04
15:24:16.060,-0.41,-0.05
15:24:16.064,-0.395,-0.09
15:24:16.068,-0.39,-0.065
15:24:16.072,-0.405,-0.045
15:24:16.076,-0.41,-0.055
15:24:16.080,-0.41,-0.13
15:24:16.084,-0.435,-0.155
15:24:16.088,-0.445,-0.16
15:24:16.092,-0.435,-0.135
15:24:16.096,-0.435,-0.135
15:24:16.100,-0.41,-0.11
15:24:16.104,-0.385,-0.1
15:24:16.108,-0.375,-0.09
15:24:16.112,-0.385,-0.085
15:24:16.116,-0.37,-0.11
15:24:16.120,-0.36,-0.115
15:24:16.124,-0.375,-0.14
15:24:16.128,-0.37,-0.135
15:24:16.132,-0.36,-0.13
15:24:16.136,-0.33,-0.125
15:24:16.140,-0.335,-0.13
15:24:16.144,-0.345,-0.12
15:24:16.148,-0.33,-0.135
15:24:16.152,-0.305,-0.115
15:24:16.156,-0.31,-0.13
15:24:16.160,-0.31,-0.14
15:24:16.164,-0.315,-0.15
15:24:16.168,-0.295,-0.16
15:24:16.172,-0.3,-0.155
15:24:16.176,-0.305,-0.125
15:24:16.180,-0.3,-0.11
15:24:16.184,-0.305,-0.105
15:24:16.188,-0.305,-0.11
15:24:16.192,-0.31,-0.105
15:24:16.196,-0.29,-0.13
15:24:16.200,-0.27,-0.115
15:24:16.204,-0.275,-0.125
15:24:16.208,-0.275,-0.18
15:24:16.212,-0.285,-0.17
15:24:16.216,-0.285,-0.165
15:24:16.220,-0.265,-0.185
15:24:16.224,-0.24,-0.175
15:24:16.228,-0.21,-0.15
15:24:16.232,-0.21,-0.135
15:24:16.236,-0.21,-0.1
15:24:16.240,-0.19,-0.13
15:24:16.244,-0.15,-0.16
15:24:16.248,-0.16,-0.215
15:24:16.252,-0.15,-0.225
15:24:16.256,-0.14,-0.245
15:24:16.260,-0.165,-0.235
15:24:16.264,-0.175,-0.235
15:24:16.268,-0.2,-0.245
15:24:16.272,-0.225,-0.23
15:24:16.276,-0.235,-0.225
15:24:16.280,-0.225,-0.215
15:24:16.284,-0.23,-0.18
15:24:16.288,-0.24,-0.155
15:24:16.292,-0.195,-0.12
15:24:16.296,-0.11,-0.1
15:24:16.300,-0.025,-0.125
15:24:16.304,0.04,-0.205
15:24:16.308,0.06,-0.32
15:24:16.312,0.08,-0.42
15:24:16.316,0.13,-0.525
15:24:16.320,0.15,-0.65
15:24:16.324,0.16,-0.805
15:24:16.328,0.195,-1.03
15:24:16.332,0.24,-1.26
15:24:16.336,0.42,-1.49
15:24:16.340,0.685,-1.79
15:24:16.344,1.02,-2.03
15:24:16.348,1.18,-2.08
15:24:16.352,1.03,-1.975
15:24:16.356,0.555,-1.66
15:24:16.360,-0.005,-1.21
15:24:16.364,-0.365,-0.895
15:24:16.368,-0.495,-0.665
15:24:16.372,-0.55,-0.465
15:24:16.376,-0.57,-0.275
15:24:16.380,-0.575,-0.155
15:24:16.384,-0.58,-0.1
15:24:16.388,-0.58,-0.065
15:24:16.392,-0.575,-0.025
15:24:16.396,-0.575,0.005
15:24:16.400,-0.58,0.025
15:24:16.404,-0.565,0.035
15:24:16.408,-0.59,0.065
15:24:16.412,-0.575,0.105
15:24:16.416,-0.575,0.1
15:24:16.420,-0.565,0.075
15:24:16.424,-0.59,0.05
15:24:16.428,-0.595,0.05
15:24:16.432,-0.6,0.055
15:24:16.436,-0.6,0.03
15:24:16.440,-0.585,0.03
15:24:16.444,-0.59,0.025
15:24:16.448,-0.59,0.025
15:24:16.452,-0.6,0.02
15:24:16.456,-0.6,0.04
15:24:16.460,-0.605,0.045
15:24:16.464,-0.585,0.005
15:24:16.468,-0.575,0.06
15:24:16.472,-0.575,0.105
15:24:16.476,-0.575,0.055
15:24:16.480,-0.56,0.035
15:24:16.484,-0.555,0.06
15:24:16.488,-0.535,0.085
15:24:16.492,-0.49,0.095
15:24:16.496,-0.515,0.11
15:24:16.500,-0.455,0.145
15:24:16.504,-0.44,0.2
15:24:16.508,-0.44,0.2
15:24:16.512,-0.445,0.175
15:24:16.516,-0.45,0.14
15:24:16.520,-0.435,0.14
15:24:16.524,-0.405,0.19
15:24:16.528,-0.425,0.2
15:24:16.532,-0.43,0.2
15:24:16.536,-0.43,0.155
15:24:16.540,-0.425,0.135
15:24:16.544,-0.44,0.13
15:24:16.548,-0.465,0.135
15:24:16.552,-0.45,0.125
15:24:16.556,-0.465,0.14
15:24:16.560,-0.47,0.125
15:24:16.564,-0.46,0.105
15:24:16.568,-0.48,0.055
15:24:16.572,-0.495,0.06
15:24:16.576,-0.485,0.045
15:24:16.580,-0.465,0.025
15:24:16.584,-0.48,0.02
15:24:16.588,-0.475,0.015
15:24:16.592,-0.48,-0.005
15:24:16.596,-0.465,-0.01
15:24:16.600,-0.48,-0.025
15:24:16.604,-0.46,-0.035
15:24:16.608,-0.425,-0.01
15:24:16.612,-0.425,-0.07
15:24:16.616,-0.425,-0.12
15:24:16.620,-0.385,-0.115
15:24:16.624,-0.405,-0.11
15:24:16.628,-0.385,-0.1
15:24:16.632,-0.375,-0.11
15:24:16.636,-0.355,-0.1
15:24:16.640,-0.345,-0.095
15:24:16.644,-0.36,-0.125
15:24:16.648,-0.365,-0.1
15:24:16.652,-0.355,-0.13
15:24:16.656,-0.355,-0.11
15:24:16.660,-0.365,-0.12
15:24:16.664,-0.355,-0.125
15:24:16.668,-0.345,-0.12
15:24:16.672,-0.35,-0.12
15:24:16.676,-0.385,-0.11
15:24:16.680,-0.385,-0.08
15:24:16.684,-0.385,-0.07
15:24:16.688,-0.37,-0.07
15:24:16.692,-0.37,-0.06
15:24:16.696,-0.355,-0.085
15:24:16.700,-0.39,-0.12
15:24:16.704,-0.395,-0.15
15:24:16.708,-0.365,-0.125
15:24:16.712,-0.34,-0.095
15:24:16.716,-0.325,-0.095
15:24:16.720,-0.305,-0.095
15:24:16.724,-0.275,-0.08
15:24:16.728,-0.265,-0.06
15:24:16.732,-0.22,-0.065
15:24:16.736,-0.17,-0.055
15:24:16.740,-0.155,-0.04
15:24:16.744,-0.075,-0.04
15:24:16.748,-0.03,-0.06
15:24:16.752,0.035,-0.1
15:24:16.756,0.07,-0.175
15:24:16.760,0.11,-0.205
15:24:16.764,0.135,-0.28
15:24:16.768,0.115,-0.4
15:24:16.772,0.12,-0.545
15:24:16.776,0.095,-0.67
15:24:16.780,0.115,-0.83
15:24:16.784,0.22,-1.07
15:24:16.788,0.42,-1.35
15:24:16.792,0.73,-1.68
15:24:16.796,1.035,-1.91
15:24:16.800,1.205,-2.025
15:24:16.804,1.12,-1.95
15:24:16.808,0.735,-1.69
15:24:16.812,0.2,-1.255
15:24:16.816,-0.165,-0.89
15:24:16.820,-0.36,-0.69
15:24:16.824,-0.46,-0.5
15:24:16.828,-0.515,-0.315
15:24:16.832,-0.505,-0.19
15:24:16.836,-0.48,-0.095
15:24:16.840,-0.48,-0.035
15:24:16.844,-0.49,0.005
15:24:16.848,-0.49,-0.01
15:24:16.852,-0.475,-0.045
15:24:16.856,-0.49,-0.04
15:24:16.860,-0.49,-0.01
15:24:16.864,-0.51,0.01
15:24:16.868,-0.505,0.0
15:24:16.872,-0.51,0.03
15:24:16.876,-0.49,0.03
15:24:16.880,-0.53,0.05
15:24:16.884,-0.535,0.05
15:24:16.888,-0.525,0.05
15:24:16.892,-0.52,0.04
15:24:16.896,-0.51,0.04
15:24:16.900,-0.545,0.08
15:24:16.904,-0.545,0.085
15:24:16.908,-0.545,0.085
15:24:16.912,-0.55,0.105
15:24:16.916,-0.54,0.125
15:24:16.920,-0.53,0.15
15:24:16.924,-0.535,0.14
15:24:16.928,-0.515,0.085
15:24:16.932,-0.54,0.095
15:24:16.936,-0.525,0.115
15:24:16.940,-0.535,0.1
15:24:16.944,-0.52,0.12
15:24:16.948,-0.515,0.16
15:24:16.952,-0.51,0.18
15:24:16.956,-0.49,0.16
15:24:16.960,-0.475,0.155
15:24:16.964,-0.48,0.16
15:24:16.968,-0.455,0.175
15:24:16.972,-0.44,0.195
15:24:16.976,-0.41,0.245
15:24:16.980,-0.39,0.28
15:24:16.984,-0.35,0.265
15:24:16.988,-0.34,0.225
15:24:16.992,-0.335,0.16
15:24:16.996,-0.33,0.165
15:24:17.000,-0.31,0.165
15:24:17.004,-0.325,0.16
15:24:17.008,-0.34,0.145
15:24:17.012,-0.32,0.13
15:24:17.016,-0.33,0.07
15:24:17.020,-0.305,0.075
15:24:17.024,-0.305,0.035
15:24:17.028,-0.3,0.035
15:24:17.032,-0.305,0.02
15:24:17.036,-0.295,0.0
15:24:17.040,-0.305,0.02
15:24:17.044,-0.305,0.0
15:24:17.048,-0.305,-0.03
15:24:17.052,-0.31,-0.06
15:24:17.056,-0.32,-0.05
15:24:17.060,-0.34,-0.045
15:24:17.064,-0.33,-0.025
15:24:17.068,-0.315,-0.02
15:24:17.072,-0.32,-0.035
15:24:17.076,-0.32,-0.06
15:24:17.080,-0.335,-0.075
15:24:17.084,-0.33,-0.06
15:24:17.088,-0.33,-0.055
15:24:17.092,-0.33,-0.04
15:24:17.096,-0.335,-0.055
15:24:17.100,-0.315,-0.105
15:24:17.104,-0.3,-0.16
15:24:17.108,-0.3,-0.125
15:24:17.112,-0.285,-0.085
15:24:17.116,-0.26,-0.08
15:24:17.120,-0.275,-0.075
15:24:17.124,-0.305,-0.055
15:24:17.128,-0.28,-0.05
15:24:17.132,-0.285,-0.04
15:24:17.136,-0.29,-0.065
15:24:17.140,-0.27,-0.085
15:24:17.144,-0.225,-0.11
15:24:17.148,-0.165,-0.105
15:24:17.152,-0.11,-0.145
15:24:17.156,-0.045,-0.18
15:24:17.160,-0.05,-0.235
15:24:17.164,-0.035,-0.305
15:24:17.168,0.0,-0.4
15:24:17.172,-0.015,-0.51
15:24:17.176,-0.035,-0.655
15:24:17.180,-0.005,-0.86
15:24:17.184,0.085,-1.1
15:24:17.188,0.28,-1.34
15:24:17.192,0.565,-1.605
15:24:17.196,0.925,-1.9
15:24:17.200,1.13,-2.05
15:24:17.204,1.08,-1.995
15:24:17.208,0.71,-1.695
15:24:17.212,0.21,-1.24
15:24:17.216,-0.16,-0.925
15:24:17.220,-0.31,-0.685
15:24:17.224,-0.4,-0.5
15:24:17.228,-0.42,-0.31
15:24:17.232,-0.42,-0.16
15:24:17.236,-0.405,-0.04
15:24:17.240,-0.4,0.02
15:24:17.244,-0.415,0.055
15:24:17.248,-0.39,0.085
15:24:17.252,-0.4,0.115
15:24:17.256,-0.395,0.145
15:24:17.260,-0.39,0.11
15:24:17.264,-0.405,0.1
15:24:17.268,-0.41,0.11
15:24:17.272,-0.39,0.13
15:24:17.276,-0.405,0.125
15:24:17.280,-0.405,0.125
15:24:17.284,-0.435,0.11
15:24:17.288,-0.455,0.115
15:24:17.292,-0.435,0.12
15:24:17.296,-0.455,0.145
15:24:17.300,-0.45,0.145
15:24:17.304,-0.46,0.14
15:24:17.308,-0.45,0.12
15:24:17.312,-0.435,0.135
15:24:17.316,-0.455,0.125
15:24:17.320,-0.465,0.16
15:24:17.324,-0.48,0.135
15:24:17.328,-0.465,0.125
15:24:17.332,-0.46,0.155
15:24:17.336,-0.475,0.145
15:24:17.340,-0.445,0.17
15:24:17.344,-0.46,0.19
15:24:17.348,-0.46,0.19
15:24:17.352,-0.42,0.165
15:24:17.356,-0.45,0.135
15:24:17.360,-0.44,0.14
15:24:17.364,-0.435,0.135
15:24:17.368,-0.42,0.19
15:24:17.372,-0.415,0.2
15:24:17.376,-0.405,0.21
15:24:17.380,-0.4,0.22
15:24:17.384,-0.415,0.165
15:24:17.388,-0.42,0.155
15:24:17.392,-0.425,0.145
15:24:17.396,-0.41,0.12
15:24:17.400,-0.39,0.1
15:24:17.404,-0.38,0.085
15:24:17.408,-0.39,0.06
15:24:17.412,-0.38,0.055
15:24:17.416,-0.35,0.055
15:24:17.420,-0.32,0.05
15:24:17.424,-0.305,0.045
15:24:17.428,-0.295,0.035
15:24:17.432,-0.27,0.015
15:24:17.436,-0.28,-0.04
15:24:17.440,-0.26,-0.04
15:24:17.444,-0.245,-0.035
15:24:17.448,-0.25,-0.01
15:24:17.452,-0.24,0.005
15:24:17.456,-0.23,-0.02
15:24:17.460,-0.215,-0.03
15:24:17.464,-0.21,-0.03
15:24:17.468,-0.21,-0.03
15:24:17.472,-0.19,-0.045
15:24:17.476,-0.175,-0.07
15:24:17.480,-0.175,-0.045
15:24:17.484,-0.185,-0.015
15:24:17.488,-0.18,-0.01
15:24:17.492,-0.165,0.02
15:24:17.496,-0.16,0.045
15:24:17.500,-0.165,0.045
15:24:17.504,-0.17,0.04
15:24:17.508,-0.165,0.025
15:24:17.512,-0.145,0.0
15:24:17.516,-0.17,0.03
15:24:17.520,-0.18,0.075
15:24:17.524,-0.205,0.075
15:24:17.528,-0.185,0.02
15:24:17.532,-0.17,-0.005
15:24:17.536,-0.13,0.0
15:24:17.540,-0.09,-0.05
15:24:17.544,-0.03,-0.1
15:24:17.548,0.0,-0.16
15:24:17.552,0.01,-0.24
15:24:17.556,0.025,-0.3
15:24:17.560,0.045,-0.425
15:24:17.564,0.06,-0.55
15:24:17.568,0.075,-0.74
15:24:17.572,0.13,-0.94
15:24:17.576,0.29,-1.185
15:24:17.580,0.57,-1.455
15:24:17.584,0.91,-1.765
15:24:17.588,1.15,-2.03
15:24:17.592,1.205,-2.08
15:24:17.596,0.96,-1.845
15:24:17.600,0.46,-1.4
15:24:17.604,-0.005,-0.95
15:24:17.608,-0.255,-0.68
15:24:17.612,-0.365,-0.51
15:24:17.616,-0.42,-0.335
15:24:17.620,-0.41,-0.22
15:24:17.624,-0.4,-0.1
15:24:17.628,-0.41,-0.025
15:24:17.632,-0.4,0.03
15:24:17.636,-0.4,0.065
15:24:17.640,-0.395,0.09
15:24:17.644,-0.395,0.085
15:24:17.648,-0.395,0.125
15:24:17.652,-0.395,0.125
15:24:17.656,-0.395,0.135
15:24:17.660,-0.4,0.165
15:24:17.664,-0.395,0.155
15:24:17.668,-0.39,0.16
15:24:17.672,-0.38,0.16
15:24:17.676,-0.395,0.16
15:24:17.680,-0.36,0.195
15:24:17.684,-0.37,0.225
15:24:17.688,-0.34,0.265
15:24:17.692,-0.31,0.32
15:24:17.696,-0.315,0.335
15:24:17.700,-0.295,0.295
15:24:17.704,-0.32,0.23
15:24:17.708,-0.335,0.205
15:24:17.712,-0.32,0.25
15:24:17.716,-0.325,0.25
15:24:17.720,-0.325,0.265
15:24:17.724,-0.315,0.31
15:24:17.728,-0.315,0.345
15:24:17.732,-0.295,0.345
15:24:17.736,-0.3,0.34
15:24:17.740,-0.32,0.335
15:24:17.744,-0.335,0.35
15:24:17.748,-0.32,0.34
15:24:17.752,-0.3,0.335
15:24:17.756,-0.32,0.36
15:24:17.760,-0.345,0.36
15:24:17.764,-0.37,0.355
15:24:17.768,-0.365,0.37
15:24:17.772,-0.4,0.4
15:24:17.776,-0.425,0.37
15:24:17.780,-0.43,0.315
15:24:17.784,-0.41,0.26
15:24:17.788,-0.415,0.255
15:24:17.792,-0.395,0.255
15:24:17.796,-0.36,0.195
15:24:17.800,-0.35,0.185
15:24:17.804,-0.34,0.145
15:24:17.808,-0.33,0.095
15:24:17.812,-0.29,0.04
15:24:17.816,-0.28,0.05
15:24:17.820,-0.26,0.01
15:24:17.824,-0.265,-0.03
15:24:17.828,-0.285,-0.035
15:24:17.832,-0.26,-0.055
15:24:17.836,-0.24,-0.055
15:24:17.840,-0.255,-0.06
15:24:17.844,-0.25,-0.04
15:24:17.848,-0.235,-0.05
15:24:17.852,-0.235,-0.045
15:24:17.856,-0.23,-0.05
15:24:17.860,-0.22,-0.045
15:24:17.864,-0.195,-0.005
15:24:17.868,-0.205,-0.02
15:24:17.872,-0.21,-0.055
15:24:17.876,-0.225,-0.08
15:24:17.880,-0.2,-0.085
15:24:17.884,-0.175,-0.07
15:24:17.888,-0.155,-0.035
15:24:17.892,-0.15,-0.04
15:24:17.896,-0.145,-0.045
15:24:17.900,-0.09,-0.035
15:24:17.904,-0.025,-0.055
15:24:17.908,0.01,-0.045
15:24:17.912,0.065,-0.055
15:24:17.916,0.095,-0.08
15:24:17.920,0.12,-0.15
15:24:17.924,0.115,-0.245
15:24:17.928,0.145,-0.395
15:24:17.932,0.125,-0.555
15:24:17.936,0.105,-0.78
15:24:17.940,0.18,-0.98
15:24:17.944,0.38,-1.235
15:24:17.948,0.655,-1.455
15:24:17.952,0.98,-1.745
15:24:17.956,1.19,-1.955
15:24:17.960,1.22,-1.98
15:24:17.964,0.95,-1.755
15:24:17.968,0.47,-1.325
15:24:17.972,0.055,-0.865
15:24:17.976,-0.145,-0.57
15:24:17.980,-0.28,-0.4
15:24:17.984,-0.315,-0.26
15:24:17.988,-0.31,-0.095
15:24:17.992,-0.28,0.025
15:24:17.996,-0.29,0.11
15:24:18.000,-0.3,0.16
15:24:18.004,-0.305,0.22
15:24:18.008,-0.32,0.235
15:24:18.012,-0.35,0.23
15:24:18.016,-0.35,0.225
15:24:18.020,-0.345,0.22
15:24:18.024,-0.36,0.245
15:24:18.028,-0.365,0.24
15:24:18.032,-0.375,0.23
15:24:18.036,-0.36,0.22
15:24:18.040,-0.35,0.205
15:24:18.044,-0.33,0.205
15:24:18.048,-0.315,0.185
15:24:18.052,-0.32,0.15
15:24:18.056,-0.315,0.125
15:24:18.060,-0.33,0.11
15:24:18.064,-0.335,0.12
15:24:18.068,-0.345,0.13
15:24:18.072,-0.355,0.165
15:24:18.076,-0.355,0.195
15:24:18.080,-0.34,0.165
15:24:18.084,-0.365,0.12
15:24:18.088,-0.365,0.125
15:24:18.092,-0.36,0.155
15:24:18.096,-0.345,0.195
15:24:18.100,-0.375,0.175
15:24:18.104,-0.37,0.195
15:24:18.108,-0.375,0.255
15:24:18.112,-0.38,0.275
15:24:18.116,-0.385,0.28
15:24:18.120,-0.395,0.235
15:24:18.124,-0.375,0.195
15:24:18.128,-0.4,0.18
15:24:18.132,-0.39,0.215
15:24:18.136,-0.365,0.22
15:24:18.140,-0.345,0.235
15:24:18.144,-0.34,0.27
15:24:18.148,-0.325,0.23
15:24:18.152,-0.29,0.155
15:24:18.156,-0.28,0.105
15:24:18.160,-0.27,0.11
15:24:18.164,-0.28,0.14
15:24:18.168,-0.285,0.165
15:24:18.172,-0.255,0.19
15:24:18.176,-0.255,0.17
15:24:18.180,-0.245,0.155
15:24:18.184,-0.23,0.135
15:24:18.188,-0.215,0.15
15:24:18.192,-0.225,0.155
15:24:18.196,-0.195,0.13
15:24:18.200,-0.24,0.12
15:24:18.204,-0.225,0.11
15:24:18.208,-0.22,0.1
15:24:18.212,-0.225,0.105
15:24:18.216,-0.21,0.11
15:24:18.220,-0.17,0.1
15:24:18.224,-0.185,0.06
15:24:18.228,-0.225,0.07
15:24:18.232,-0.225,0.1
15:24:18.236,-0.245,0.125
15:24:18.240,-0.26,0.18
15:24:18.244,-0.265,0.215
15:24:18.248,-0.285,0.24
15:24:18.252,-0.29,0.19
15:24:18.256,-0.25,0.125
15:24:18.260,-0.245,0.1
15:24:18.264,-0.26,0.115
15:24:18.268,-0.215,0.07
15:24:18.272,-0.205,0.075
15:24:18.276,-0.19,0.07
15:24:18.280,-0.175,0.045
15:24:18.284,-0.16,-0.045
15:24:18.288,-0.145,-0.115
15:24:18.292,-0.075,-0.125
15:24:18.296,-0.025,-0.15
15:24:18.300,0.02,-0.195
15:24:18.304,0.06,-0.19
15:24:18.308,0.085,-0.24
15:24:18.312,0.115,-0.34
15:24:18.316,0.17,-0.475
15:24:18.320,0.2,-0.675
15:24:18.324,0.19,-0.85
15:24:18.328,0.215,-1.045
15:24:18.332,0.355,-1.265
15:24:18.336,0.61,-1.56
15:24:18.340,0.93,-1.865
15:24:18.344,1.175,-2.125
15:24:18.348,1.2,-2.165
15:24:18.352,0.94,-1.945
15:24:18.356,0.46,-1.47
15:24:18.360,0.015,-0.995
15:24:18.364,-0.24,-0.715
15:24:18.368,-0.35,-0.545
15:24:18.372,-0.405,-0.355
15:24:18.376,-0.43,-0.155
15:24:18.380,-0.405,-0.065
15:24:18.384,-0.39,-0.035
15:24:18.388,-0.39,-0.015
15:24:18.392,-0.415,0.045
15:24:18.396,-0.41,0.1
15:24:18.400,-0.395,0.12
15:24:18.404,-0.385,0.15
15:24:18.408,-0.395,0.15
15:24:18.412,-0.395,0.18
15:24:18.416,-0.395,0.19
15:24:18.420,-0.4,0.22
15:24:18.424,-0.445,0.26
15:24:18.428,-0.435,0.235
15:24:18.432,-0.43,0.22
15:24:18.436,-0.415,0.215
15:24:18.440,-0.405,0.215
15:24:18.444,-0.41,0.25
15:24:18.448,-0.425,0.255
15:24:18.452,-0.435,0.295
15:24:18.456,-0.42,0.32
15:24:18.460,-0.43,0.335
15:24:18.464,-0.4,0.32
15:24:18.468,-0.375,0.335
15:24:18.472,-0.385,0.355
15:24:18.476,-0.37,0.39
15:24:18.480,-0.385,0.42
15:24:18.484,-0.395,0.43
15:24:18.488,-0.425,0.4
15:24:18.492,-0.46,0.415
15:24:18.496,-0.455,0.41
15:24:18.500,-0.46,0.41
15:24:18.504,-0.43,0.39
15:24:18.508,-0.39,0.38
15:24:18.512,-0.38,0.375
15:24:18.516,-0.405,0.335
15:24:18.520,-0.42,0.275
15:24:18.524,-0.415,0.215
15:24:18.528,-0.385,0.175
15:24:18.532,-0.375,0.17
15:24:18.536,-0.365,0.185
15:24:18.540,-0.385,0.15
15:24:18.544,-0.385,0.15
15:24:18.548,-0.395,0.16
15:24:18.552,-0.37,0.155
15:24:18.556,-0.365,0.125
15:24:18.560,-0.345,0.125
15:24:18.564,-0.345,0.095
15:24:18.568,-0.32,0.075
15:24:18.572,-0.35,0.045
15:24:18.576,-0.34,0.025
15:24:18.580,-0.32,0.0
15:24:18.584,-0.31,0.0
15:24:18.588,-0.305,0.015
15:24:18.592,-0.27,0.005
15:24:18.596,-0.26,0.055
15:24:18.600,-0.24,0.055
15:24:18.604,-0.235,0.03
15:24:18.608,-0.205,-0.02
15:24:18.612,-0.185,-0.025
15:24:18.616,-0.185,-0.03
15:24:18.620,-0.2,-0.015
15:24:18.624,-0.195,0.0
15:24:18.628,-0.2,0.03
15:24:18.632,-0.185,0.06
15:24:18.636,-0.16,0.075
15:24:18.640,-0.145,0.095
15:24:18.644,-0.15,0.085
15:24:18.648,-0.18,0.055
15:24:18.652,-0.17,0.025
15:24:18.656,-0.145,0.025
15:24:18.660,-0.13,0.045
15:24:18.664,-0.12,0.055
15:24:18.668,-0.125,0.095
15:24:18.672,-0.13,0.115
15:24:18.676,-0.12,0.125
15:24:18.680,-0.15,0.115
15:24:18.684,-0.105,0.11
15:24:18.688,-0.05,0.105
15:24:18.692,0.01,0.075
15:24:18.696,0.11,0.035
15:24:18.700,0.21,-0.005
15:24:18.704,0.255,-0.045
15:24:18.708,0.315,-0.055
15:24:18.712,0.36,-0.14
15:24:18.716,0.37,-0.28
15:24:18.720,0.38,-0.43
15:24:18.724,0.39,-0.625
15:24:18.728,0.41,-0.845
15:24:18.732,0.49,-1.08
15:24:18.736,0.7,-1.355
15:24:18.740,1.02,-1.675
15:24:18.744,1.28,-1.825
15:24:18.748,1.255,-1.785
15:24:18.752,0.94,-1.555
15:24:18.756,0.44,-1.22
15:24:18.760,0.02,-0.85
15:24:18.764,-0.19,-0.635
15:24:18.768,-0.285,-0.45
15:24:18.772,-0.33,-0.27
15:24:18.776,-0.335,-0.13
15:24:18.780,-0.355,-0.065
15:24:18.784,-0.36,0.0
15:24:18.788,-0.39,0.08
15:24:18.792,-0.365,0.11
15:24:18.796,-0.405,0.12
15:24:18.800,-0.39,0.085
15:24:18.804,-0.41,0.105
15:24:18.808,-0.41,0.125
15:24:18.812,-0.405,0.135
15:24:18.816,-0.415,0.14
15:24:18.820,-0.405,0.18
15:24:18.824,-0.405,0.185
15:24:18.828,-0.405,0.195
15:24:18.832,-0.41,0.18
15:24:18.836,-0.425,0.165
15:24:18.840,-0.4,0.16
15:24:18.844,-0.405,0.185
15:24:18.848,-0.38,0.22
15:24:18.852,-0.36,0.23
15:24:18.856,-0.35,0.27
15:24:18.860,-0.32,0.33
15:24:18.864,-0.31,0.335
15:24:18.868,-0.315,0.285
15:24:18.872,-0.325,0.28
15:24:18.876,-0.315,0.28
15:24:18.880,-0.32,0.31
15:24:18.884,-0.305,0.315
15:24:18.888,-0.29,0.335
15:24:18.892,-0.275,0.35
15:24:18.896,-0.275,0.335
