Time,ECG1,ECG2
20:51:16.548,-0.55,0.095
20:51:16.552,-0.555,0.09
20:51:16.556,-0.565,0.065
20:51:16.560,-0.585,0.065
20:51:16.564,-0.575,0.065
20:51:16.568,-0.55,0.055
20:51:16.572,-0.53,0.06
20:51:16.576,-0.545,0.05
20:51:16.580,-0.53,0.03
20:51:16.584,-0.51,0.02
20:51:16.588,-0.51,0.01
20:51:16.592,-0.5,0.02
20:51:16.596,-0.5,0.02
20:51:16.600,-0.465,0.0
20:51:16.604,-0.475,0.005
20:51:16.608,-0.475,0.005
20:51:16.612,-0.47,0.02
20:51:16.616,-0.435,0.03
20:51:16.620,-0.42,0.025
20:51:16.624,-0.41,-0.005
20:51:16.628,-0.425,0.005
20:51:16.632,-0.405,0.0
20:51:16.636,-0.415,-0.015
20:51:16.640,-0.41,-0.02
20:51:16.644,-0.425,0.01
20:51:16.648,-0.41,-0.015
20:51:16.652,-0.405,0.0
20:51:16.656,-0.39,0.0
20:51:16.660,-0.385,-0.01
20:51:16.664,-0.37,-0.015
20:51:16.668,-0.355,0.0
20:51:16.672,-0.345,0.01
20:51:16.676,-0.305,-0.02
20:51:16.680,-0.28,0.005
20:51:16.684,-0.28,0.01
20:51:16.688,-0.235,0.03
20:51:16.692,-0.24,0.065
20:51:16.696,-0.22,0.08
20:51:16.700,-0.175,0.085
20:51:16.704,-0.125,0.1
20:51:16.708,-0.06,0.1
20:51:16.712,-0.025,0.095
20:51:16.716,0.035,0.125
20:51:16.720,0.105,0.1
20:51:16.724,0.14,0.105
20:51:16.728,0.145,0.06
20:51:16.732,0.13,0.04
20:51:16.736,0.085,0.03
20:51:16.740,-0.005,0.0
20:51:16.744,-0.055,-0.035
20:51:16.748,0.035,-0.16
20:51:16.752,0.265,-0.34
20:51:16.756,0.585,-0.64
20:51:16.760,0.8,-0.965
20:51:16.764,0.725,-1.125
20:51:16.768,0.38,-1.03
20:51:16.772,-0.075,-0.665
20:51:16.776,-0.335,-0.345
20:51:16.780,-0.415,-0.17
20:51:16.784,-0.425,-0.05
20:51:16.788,-0.46,0.045
20:51:16.792,-0.48,0.055
20:51:16.796,-0.53,0.05
20:51:16.800,-0.555,0.0
20:51:16.804,-0.58,-0.02
20:51:16.808,-0.59,-0.035
20:51:16.812,-0.605,-0.065
20:51:16.816,-0.59,-0.075
20:51:16.820,-0.58,-0.065
20:51:16.824,-0.57,-0.07
20:51:16.828,-0.575,-0.1
20:51:16.832,-0.575,-0.115
20:51:16.836,-0.59,-0.1
20:51:16.840,-0.62,-0.09
20:51:16.844,-0.625,-0.11
20:51:16.848,-0.625,-0.095
20:51:16.852,-0.65,-0.095
20:51:16.856,-0.655,-0.1
20:51:16.860,-0.665,-0.11
20:51:16.864,-0.67,-0.125
20:51:16.868,-0.64,-0.15
20:51:16.872,-0.645,-0.125
20:51:16.876,-0.63,-0.11
20:51:16.880,-0.64,-0.12
20:51:16.884,-0.605,-0.12
20:51:16.888,-0.6,-0.11
20:51:16.892,-0.585,-0.105
20:51:16.896,-0.58,-0.115
20:51:16.900,-0.555,-0.09
20:51:16.904,-0.52,-0.09
20:51:16.908,-0.51,-0.07
20:51:16.912,-0.51,-0.04
20:51:16.916,-0.5,-0.06
20:51:16.920,-0.485,-0.05
20:51:16.924,-0.495,-0.055
20:51:16.928,-0.46,-0.06
20:51:16.932,-0.475,-0.06
20:51:16.936,-0.5,-0.03
20:51:16.940,-0.525,-0.05
20:51:16.944,-0.55,-0.02
20:51:16.948,-0.585,-0.035
20:51:16.952,-0.61,-0.02
20:51:16.956,-0.635,-0.045
20:51:16.960,-0.63,-0.04
20:51:16.964,-0.625,-0.055
20:51:16.968,-0.605,-0.08
20:51:16.972,-0.595,-0.105
20:51:16.976,-0.59,-0.14
20:51:16.980,-0.595,-0.16
20:51:16.984,-0.56,-0.2
20:51:16.988,-0.54,-0.215
20:51:16.992,-0.515,-0.235
20:51:16.996,-0.495,-0.235
20:51:17.000,-0.485,-0.26
20:51:17.004,-0.49,-0.29
20:51:17.008,-0.48,-0.325
20:51:17.012,-0.445,-0.335
20:51:17.016,-0.43,-0.38
20:51:17.020,-0.445,-0.36
20:51:17.024,-0.455,-0.38
20:51:17.028,-0.44,-0.39
20:51:17.032,-0.425,-0.39
20:51:17.036,-0.42,-0.4
20:51:17.040,-0.44,-0.405
20:51:17.044,-0.445,-0.415
20:51:17.048,-0.41,-0.415
20:51:17.052,-0.39,-0.395
20:51:17.056,-0.385,-0.405
20:51:17.060,-0.38,-0.425
20:51:17.064,-0.38,-0.415
20:51:17.068,-0.36,-0.445
20:51:17.072,-0.34,-0.43
20:51:17.076,-0.345,-0.45
20:51:17.080,-0.35,-0.445
20:51:17.084,-0.36,-0.44
20:51:17.088,-0.35,-0.45
20:51:17.092,-0.33,-0.46
20:51:17.096,-0.32,-0.455
20:51:17.100,-0.32,-0.43
20:51:17.104,-0.315,-0.45
20:51:17.108,-0.335,-0.47
20:51:17.112,-0.315,-0.45
20:51:17.116,-0.32,-0.465
20:51:17.120,-0.32,-0.47
20:51:17.124,-0.32,-0.455
20:51:17.128,-0.325,-0.495
20:51:17.132,-0.34,-0.505
20:51:17.136,-0.37,-0.49
20:51:17.140,-0.4,-0.505
20:51:17.144,-0.425,-0.5
20:51:17.148,-0.46,-0.5
20:51:17.152,-0.5,-0.49
20:51:17.156,-0.485,-0.485
20:51:17.160,-0.505,-0.475
20:51:17.164,-0.47,-0.46
20:51:17.168,-0.455,-0.5
20:51:17.172,-0.46,-0.52
20:51:17.176,-0.435,-0.525
20:51:17.180,-0.43,-0.54
20:51:17.184,-0.41,-0.545
20:51:17.188,-0.41,-0.545
20:51:17.192,-0.405,-0.56
20:51:17.196,-0.395,-0.55
20:51:17.200,-0.41,-0.575
20:51:17.204,-0.43,-0.59
20:51:17.208,-0.39,-0.605
20:51:17.212,-0.4,-0.65
20:51:17.216,-0.41,-0.645
20:51:17.220,-0.43,-0.66
20:51:17.224,-0.43,-0.66
20:51:17.228,-0.43,-0.69
20:51:17.232,-0.415,-0.685
20:51:17.236,-0.4,-0.69
20:51:17.240,-0.42,-0.69
20:51:17.244,-0.41,-0.69
20:51:17.248,-0.39,-0.685
20:51:17.252,-0.38,-0.685
20:51:17.256,-0.37,-0.675
20:51:17.260,-0.355,-0.675
20:51:17.264,-0.365,-0.655
20:51:17.268,-0.33,-0.655
20:51:17.272,-0.31,-0.65
20:51:17.276,-0.285,-0.63
20:51:17.280,-0.27,-0.62
20:51:17.284,-0.235,-0.62
20:51:17.288,-0.24,-0.625
20:51:17.292,-0.24,-0.585
20:51:17.296,-0.225,-0.58
20:51:17.300,-0.23,-0.58
20:51:17.304,-0.21,-0.6
20:51:17.308,-0.205,-0.585
20:51:17.312,-0.18,-0.56
20:51:17.316,-0.21,-0.54
20:51:17.320,-0.235,-0.545
20:51:17.324,-0.265,-0.53
20:51:17.328,-0.29,-0.54
20:51:17.332,-0.32,-0.515
20:51:17.336,-0.34,-0.5
20:51:17.340,-0.375,-0.48
20:51:17.344,-0.41,-0.485
20:51:17.348,-0.4,-0.48
20:51:17.352,-0.37,-0.475
20:51:17.356,-0.32,-0.47
20:51:17.360,-0.255,-0.49
20:51:17.364,-0.15,-0.495
20:51:17.368,-0.06,-0.52
20:51:17.372,0.03,-0.57
20:51:17.376,0.11,-0.62
20:51:17.380,0.185,-0.595
20:51:17.384,0.285,-0.61
20:51:17.388,0.315,-0.66
20:51:17.392,0.285,-0.72
20:51:17.396,0.345,-0.835
20:51:17.400,0.57,-1.02
20:51:17.404,0.86,-1.235
20:51:17.408,1.09,-1.415
20:51:17.412,1.06,-1.53
20:51:17.416,0.72,-1.415
20:51:17.420,0.205,-1.065
20:51:17.424,-0.145,-0.765
20:51:17.428,-0.325,-0.625
20:51:17.432,-0.38,-0.515
20:51:17.436,-0.415,-0.4
20:51:17.440,-0.405,-0.32
20:51:17.444,-0.43,-0.27
20:51:17.448,-0.445,-0.26
20:51:17.452,-0.47,-0.255
20:51:17.456,-0.46,-0.255
20:51:17.460,-0.47,-0.26
20:51:17.464,-0.445,-0.25
20:51:17.468,-0.44,-0.255
20:51:17.472,-0.42,-0.245
20:51:17.476,-0.42,-0.215
20:51:17.480,-0.41,-0.215
20:51:17.484,-0.39,-0.2
20:51:17.488,-0.385,-0.19
20:51:17.492,-0.39,-0.16
20:51:17.496,-0.405,-0.16
20:51:17.500,-0.385,-0.16
20:51:17.504,-0.395,-0.14
20:51:17.508,-0.39,-0.15
20:51:17.512,-0.405,-0.105
20:51:17.516,-0.42,-0.115
20:51:17.520,-0.455,-0.09
20:51:17.524,-0.495,-0.08
20:51:17.528,-0.525,-0.04
20:51:17.532,-0.52,-0.055
20:51:17.536,-0.55,-0.035
20:51:17.540,-0.56,-0.03
20:51:17.544,-0.58,-0.025
20:51:17.548,-0.605,-0.045
20:51:17.552,-0.59,-0.055
20:51:17.556,-0.6,-0.07
20:51:17.560,-0.62,-0.08
20:51:17.564,-0.635,-0.105
20:51:17.568,-0.625,-0.1
20:51:17.572,-0.64,-0.12
20:51:17.576,-0.625,-0.135
20:51:17.580,-0.65,-0.135
20:51:17.584,-0.64,-0.145
20:51:17.588,-0.63,-0.155
20:51:17.592,-0.615,-0.15
20:51:17.596,-0.59,-0.16
20:51:17.600,-0.6,-0.155
20:51:17.604,-0.59,-0.135
20:51:17.608,-0.59,-0.13
20:51:17.612,-0.6,-0.16
20:51:17.616,-0.575,-0.17
20:51:17.620,-0.54,-0.19
20:51:17.624,-0.53,-0.21
20:51:17.628,-0.505,-0.23
20:51:17.632,-0.505,-0.25
20:51:17.636,-0.49,-0.235
20:51:17.640,-0.465,-0.255
20:51:17.644,-0.445,-0.255
20:51:17.648,-0.415,-0.26
20:51:17.652,-0.375,-0.25
20:51:17.656,-0.36,-0.255
20:51:17.660,-0.34,-0.26
20:51:17.664,-0.295,-0.265
20:51:17.668,-0.285,-0.26
20:51:17.672,-0.245,-0.24
20:51:17.676,-0.245,-0.215
20:51:17.680,-0.245,-0.21
20:51:17.684,-0.22,-0.215
20:51:17.688,-0.23,-0.215
20:51:17.692,-0.21,-0.24
20:51:17.696,-0.175,-0.235
20:51:17.700,-0.205,-0.215
20:51:17.704,-0.205,-0.195
20:51:17.708,-0.235,-0.21
20:51:17.712,-0.265,-0.195
20:51:17.716,-0.295,-0.2
20:51:17.720,-0.305,-0.21
20:51:17.724,-0.335,-0.2
20:51:17.728,-0.34,-0.185
20:51:17.732,-0.35,-0.205
20:51:17.736,-0.35,-0.215
20:51:17.740,-0.345,-0.2
20:51:17.744,-0.33,-0.225
20:51:17.748,-0.35,-0.24
20:51:17.752,-0.35,-0.255
20:51:17.756,-0.37,-0.265
20:51:17.760,-0.35,-0.27
20:51:17.764,-0.34,-0.265
20:51:17.768,-0.335,-0.305
20:51:17.772,-0.34,-0.29
20:51:17.776,-0.36,-0.305
20:51:17.780,-0.365,-0.29
20:51:17.784,-0.35,-0.29
20:51:17.788,-0.375,-0.315
20:51:17.792,-0.37,-0.305
20:51:17.796,-0.38,-0.335
20:51:17.800,-0.36,-0.335
20:51:17.804,-0.365,-0.345
20:51:17.808,-0.365,-0.34
20:51:17.812,-0.35,-0.32
20:51:17.816,-0.32,-0.345
20:51:17.820,-0.33,-0.36
20:51:17.824,-0.295,-0.345
20:51:17.828,-0.21,-0.365
20:51:17.832,-0.1,-0.395
20:51:17.836,0.005,-0.425
20:51:17.840,0.065,-0.45
20:51:17.844,0.115,-0.515
20:51:17.848,0.17,-0.57
20:51:17.852,0.18,-0.565
20:51:17.856,0.185,-0.62
20:51:17.860,0.185,-0.74
20:51:17.864,0.245,-0.86
20:51:17.868,0.52,-1.035
20:51:17.872,0.86,-1.295
20:51:17.876,1.165,-1.545
20:51:17.880,1.245,-1.695
20:51:17.884,1.07,-1.615
20:51:17.888,0.58,-1.245
20:51:17.892,0.09,-0.85
20:51:17.896,-0.195,-0.61
20:51:17.900,-0.325,-0.475
20:51:17.904,-0.385,-0.4
20:51:17.908,-0.425,-0.325
20:51:17.912,-0.48,-0.29
20:51:17.916,-0.52,-0.27
20:51:17.920,-0.54,-0.25
20:51:17.924,-0.56,-0.26
20:51:17.928,-0.575,-0.265
20:51:17.932,-0.58,-0.28
20:51:17.936,-0.6,-0.29
20:51:17.940,-0.615,-0.28
20:51:17.944,-0.605,-0.315
20:51:17.948,-0.605,-0.31
20:51:17.952,-0.635,-0.31
20:51:17.956,-0.625,-0.31
20:51:17.960,-0.63,-0.32
20:51:17.964,-0.625,-0.345
20:51:17.968,-0.62,-0.345
20:51:17.972,-0.625,-0.315
20:51:17.976,-0.62,-0.315
20:51:17.980,-0.625,-0.32
20:51:17.984,-0.595,-0.32
20:51:17.988,-0.61,-0.335
20:51:17.992,-0.605,-0.32
20:51:17.996,-0.63,-0.31
20:51:18.000,-0.605,-0.33
20:51:18.004,-0.625,-0.305
20:51:18.008,-0.64,-0.295
20:51:18.012,-0.635,-0.3
20:51:18.016,-0.655,-0.28
20:51:18.020,-0.635,-0.27
20:51:18.024,-0.655,-0.27
20:51:18.028,-0.625,-0.285
20:51:18.032,-0.62,-0.28
20:51:18.036,-0.605,-0.275
20:51:18.040,-0.6,-0.29
20:51:18.044,-0.58,-0.25
20:51:18.048,-0.57,-0.26
20:51:18.052,-0.555,-0.245
20:51:18.056,-0.53,-0.265
20:51:18.060,-0.505,-0.265
20:51:18.064,-0.48,-0.255
20:51:18.068,-0.445,-0.26
20:51:18.072,-0.42,-0.255
20:51:18.076,-0.42,-0.25
20:51:18.080,-0.39,-0.225
20:51:18.084,-0.35,-0.23
20:51:18.088,-0.34,-0.23
20:51:18.092,-0.345,-0.205
20:51:18.096,-0.335,-0.21
20:51:18.100,-0.335,-0.205
20:51:18.104,-0.345,-0.21
20:51:18.108,-0.345,-0.2
20:51:18.112,-0.365,-0.185
20:51:18.116,-0.37,-0.17
20:51:18.120,-0.375,-0.165
20:51:18.124,-0.35,-0.18
20:51:18.128,-0.34,-0.185
20:51:18.132,-0.365,-0.16
20:51:18.136,-0.375,-0.145
20:51:18.140,-0.37,-0.145
20:51:18.144,-0.375,-0.155
20:51:18.148,-0.39,-0.195
20:51:18.152,-0.38,-0.19
20:51:18.156,-0.375,-0.21
20:51:18.160,-0.38,-0.19
20:51:18.164,-0.39,-0.2
20:51:18.168,-0.4,-0.21
20:51:18.172,-0.405,-0.225
20:51:18.176,-0.425,-0.2
20:51:18.180,-0.415,-0.21
20:51:18.184,-0.425,-0.195
20:51:18.188,-0.45,-0.195
20:51:18.192,-0.445,-0.175
20:51:18.196,-0.445,-0.16
20:51:18.200,-0.44,-0.16
20:51:18.204,-0.44,-0.145
20:51:18.208,-0.435,-0.13
20:51:18.212,-0.44,-0.155
20:51:18.216,-0.465,-0.14
20:51:18.220,-0.455,-0.12
20:51:18.224,-0.435,-0.115
20:51:18.228,-0.435,-0.105
20:51:18.232,-0.44,-0.105
20:51:18.236,-0.44,-0.13
20:51:18.240,-0.465,-0.12
20:51:18.244,-0.44,-0.135
20:51:18.248,-0.44,-0.13
20:51:18.252,-0.44,-0.115
20:51:18.256,-0.465,-0.11
20:51:18.260,-0.485,-0.115
20:51:18.264,-0.475,-0.1
20:51:18.268,-0.46,-0.12
20:51:18.272,-0.43,-0.105
20:51:18.276,-0.4,-0.1
20:51:18.280,-0.395,-0.1
20:51:18.284,-0.38,-0.1
20:51:18.288,-0.365,-0.1
20:51:18.292,-0.345,-0.07
20:51:18.296,-0.31,-0.04
20:51:18.300,-0.3,-0.02
20:51:18.304,-0.25,0.0
20:51:18.308,-0.225,0.01
20:51:18.312,-0.225,0.02
20:51:18.316,-0.22,0.045
20:51:18.320,-0.23,0.055
20:51:18.324,-0.24,0.055
20:51:18.328,-0.25,0.07
20:51:18.332,-0.305,0.08
20:51:18.336,-0.315,0.095
20:51:18.340,-0.33,0.09
20:51:18.344,-0.345,0.14
20:51:18.348,-0.345,0.11
20:51:18.352,-0.33,0.115
20:51:18.356,-0.34,0.115
20:51:18.360,-0.31,0.105
20:51:18.364,-0.305,0.07
20:51:18.368,-0.315,0.065
20:51:18.372,-0.34,0.055
20:51:18.376,-0.335,0.02
20:51:18.380,-0.34,-0.015
20:51:18.384,-0.355,-0.035
20:51:18.388,-0.365,-0.05
20:51:18.392,-0.37,-0.07
20:51:18.396,-0.375,-0.07
20:51:18.400,-0.38,-0.06
20:51:18.404,-0.38,-0.065
20:51:18.408,-0.395,-0.06
20:51:18.412,-0.385,-0.075
20:51:18.416,-0.395,-0.08
20:51:18.420,-0.395,-0.085
20:51:18.424,-0.38,-0.1
20:51:18.428,-0.365,-0.105
20:51:18.432,-0.365,-0.11
20:51:18.436,-0.35,-0.095
20:51:18.440,-0.345,-0.105
20:51:18.444,-0.385,-0.085
20:51:18.448,-0.38,-0.105
20:51:18.452,-0.38,-0.095
20:51:18.456,-0.375,-0.08
20:51:18.460,-0.395,-0.095
20:51:18.464,-0.395,-0.115
20:51:18.468,-0.4,-0.1
20:51:18.472,-0.4,-0.085
20:51:18.476,-0.4,-0.105
20:51:18.480,-0.405,-0.085
20:51:18.484,-0.43,-0.09
20:51:18.488,-0.405,-0.095
20:51:18.492,-0.385,-0.09
20:51:18.496,-0.375,-0.075
20:51:18.500,-0.365,-0.085
20:51:18.504,-0.37,-0.08
20:51:18.508,-0.365,-0.075
20:51:18.512,-0.35,-0.055
20:51:18.516,-0.33,-0.035
20:51:18.520,-0.33,-0.02
20:51:18.524,-0.3,0.0
20:51:18.528,-0.29,0.005
20:51:18.532,-0.255,0.025
20:51:18.536,-0.25,0.035
20:51:18.540,-0.21,0.025
20:51:18.544,-0.215,0.03
20:51:18.548,-0.245,0.05
20:51:18.552,-0.24,0.085
20:51:18.556,-0.265,0.075
20:51:18.560,-0.28,0.075
20:51:18.564,-0.31,0.075
20:51:18.568,-0.325,0.07
20:51:18.572,-0.35,0.075
20:51:18.576,-0.34,0.09
20:51:18.580,-0.345,0.08
20:51:18.584,-0.35,0.07
20:51:18.588,-0.38,0.07
20:51:18.592,-0.395,0.04
20:51:18.596,-0.385,0.045
20:51:18.600,-0.37,0.03
20:51:18.604,-0.35,0.02
20:51:18.608,-0.35,0.035
20:51:18.612,-0.34,0.005
20:51:18.616,-0.33,0.01
20:51:18.620,-0.35,-0.005
20:51:18.624,-0.335,-0.05
20:51:18.628,-0.335,-0.08
20:51:18.632,-0.345,-0.095
20:51:18.636,-0.36,-0.09
20:51:18.640,-0.35,-0.08
20:51:18.644,-0.365,-0.09
20:51:18.648,-0.365,-0.08
20:51:18.652,-0.35,-0.065
20:51:18.656,-0.36,-0.065
20:51:18.660,-0.355,-0.085
20:51:18.664,-0.385,-0.065
20:51:18.668,-0.375,-0.08
20:51:18.672,-0.405,-0.065
20:51:18.676,-0.405,-0.07
20:51:18.680,-0.42,-0.07
20:51:18.684,-0.41,-0.055
20:51:18.688,-0.415,-0.055
20:51:18.692,-0.395,-0.065
20:51:18.696,-0.375,-0.06
20:51:18.700,-0.39,-0.035
20:51:18.704,-0.38,-0.055
20:51:18.708,-0.37,-0.05
20:51:18.712,-0.355,-0.035
20:51:18.716,-0.35,-0.045
20:51:18.720,-0.345,-0.03
20:51:18.724,-0.36,-0.02
20:51:18.728,-0.365,-0.02
20:51:18.732,-0.34,-0.02
20:51:18.736,-0.32,-0.005
20:51:18.740,-0.305,0.02
20:51:18.744,-0.295,0.005
20:51:18.748,-0.285,0.0
20:51:18.752,-0.25,0.02
20:51:18.756,-0.26,0.02
20:51:18.760,-0.26,0.04
20:51:18.764,-0.26,0.04
20:51:18.768,-0.25,0.035
20:51:18.772,-0.23,0.035
20:51:18.776,-0.205,0.03
20:51:18.780,-0.14,0.025
20:51:18.784,-0.04,0.015
20:51:18.788,0.03,-0.005
20:51:18.792,0.06,-0.04
20:51:18.796,0.065,-0.095
20:51:18.800,0.07,-0.14
20:51:18.804,0.085,-0.19
20:51:18.808,0.05,-0.285
20:51:18.812,0.05,-0.415
20:51:18.816,0.18,-0.605
20:51:18.820,0.435,-0.845
20:51:18.824,0.725,-1.135
20:51:18.828,1.01,-1.37
20:51:18.832,1.12,-1.47
20:51:18.836,1.005,-1.34
20:51:18.840,0.585,-0.955
20:51:18.844,0.065,-0.58
20:51:18.848,-0.24,-0.325
20:51:18.852,-0.37,-0.215
20:51:18.856,-0.435,-0.11
20:51:18.860,-0.465,-0.045
20:51:18.864,-0.495,-0.03
20:51:18.868,-0.505,-0.03
20:51:18.872,-0.53,-0.02
20:51:18.876,-0.54,0.0
20:51:18.880,-0.555,-0.035
20:51:18.884,-0.56,-0.055
20:51:18.888,-0.56,-0.07
20:51:18.892,-0.57,-0.04
20:51:18.896,-0.54,-0.05
20:51:18.900,-0.565,-0.045
20:51:18.904,-0.545,-0.05
20:51:18.908,-0.575,-0.055
20:51:18.912,-0.57,-0.065
20:51:18.916,-0.57,-0.045
20:51:18.920,-0.6,-0.055
20:51:18.924,-0.6,-0.06
20:51:18.928,-0.59,-0.055
20:51:18.932,-0.6,-0.065
20:51:18.936,-0.61,-0.03
20:51:18.940,-0.605,-0.025
20:51:18.944,-0.6,-0.035
20:51:18.948,-0.58,-0.01
20:51:18.952,-0.535,-0.035
20:51:18.956,-0.535,-0.025
20:51:18.960,-0.535,-0.005
20:51:18.964,-0.535,-0.01
20:51:18.968,-0.52,0.0
20:51:18.972,-0.56,0.01
20:51:18.976,-0.57,0.005
20:51:18.980,-0.615,0.015
20:51:18.984,-0.625,0.005
20:51:18.988,-0.64,0.0
20:51:18.992,-0.65,0.0
20:51:18.996,-0.67,-0.005
20:51:19.000,-0.675,0.015
20:51:19.004,-0.675,0.005
20:51:19.008,-0.675,0.0
20:51:19.012,-0.665,-0.025
20:51:19.016,-0.67,-0.045
20:51:19.020,-0.675,-0.055
20:51:19.024,-0.675,-0.03
20:51:19.028,-0.64,-0.055
20:51:19.032,-0.62,-0.07
20:51:19.036,-0.605,-0.08
20:51:19.040,-0.605,-0.1
20:51:19.044,-0.605,-0.095
20:51:19.048,-0.605,-0.125
20:51:19.052,-0.585,-0.145
20:51:19.056,-0.57,-0.18
20:51:19.060,-0.555,-0.145
20:51:19.064,-0.6,-0.19
20:51:19.068,-0.58,-0.18
20:51:19.072,-0.57,-0.205
20:51:19.076,-0.56,-0.205
20:51:19.080,-0.54,-0.225
20:51:19.084,-0.56,-0.21
20:51:19.088,-0.575,-0.23
20:51:19.092,-0.54,-0.245
20:51:19.096,-0.545,-0.255
20:51:19.100,-0.53,-0.235
20:51:19.104,-0.515,-0.24
20:51:19.108,-0.51,-0.27
20:51:19.112,-0.51,-0.24
20:51:19.116,-0.505,-0.25
20:51:19.120,-0.5,-0.235
20:51:19.124,-0.475,-0.265
20:51:19.128,-0.465,-0.26
20:51:19.132,-0.48,-0.245
20:51:19.136,-0.44,-0.255
20:51:19.140,-0.45,-0.24
20:51:19.144,-0.45,-0.245
20:51:19.148,-0.43,-0.26
20:51:19.152,-0.4,-0.255
20:51:19.156,-0.39,-0.25
20:51:19.160,-0.385,-0.245
20:51:19.164,-0.38,-0.235
20:51:19.168,-0.35,-0.235
20:51:19.172,-0.31,-0.215
20:51:19.176,-0.325,-0.185
20:51:19.180,-0.305,-0.18
20:51:19.184,-0.3,-0.19
20:51:19.188,-0.31,-0.16
20:51:19.192,-0.34,-0.16
20:51:19.196,-0.37,-0.16
20:51:19.200,-0.385,-0.155
20:51:19.204,-0.4,-0.18
20:51:19.208,-0.42,-0.16
20:51:19.212,-0.455,-0.175
20:51:19.216,-0.445,-0.165
20:51:19.220,-0.45,-0.225
20:51:19.224,-0.46,-0.205
20:51:19.228,-0.45,-0.22
20:51:19.232,-0.445,-0.245
20:51:19.236,-0.45,-0.24
20:51:19.240,-0.425,-0.28
20:51:19.244,-0.41,-0.28
20:51:19.248,-0.395,-0.285
20:51:19.252,-0.39,-0.295
20:51:19.256,-0.395,-0.335
20:51:19.260,-0.41,-0.35
20:51:19.264,-0.4,-0.355
20:51:19.268,-0.405,-0.39
20:51:19.272,-0.43,-0.405
20:51:19.276,-0.43,-0.415
20:51:19.280,-0.42,-0.43
20:51:19.284,-0.435,-0.445
20:51:19.288,-0.445,-0.445
20:51:19.292,-0.46,-0.455
20:51:19.296,-0.445,-0.46
20:51:19.300,-0.445,-0.5
20:51:19.304,-0.43,-0.505
20:51:19.308,-0.425,-0.52
20:51:19.312,-0.425,-0.54
20:51:19.316,-0.44,-0.575
20:51:19.320,-0.445,-0.56
20:51:19.324,-0.45,-0.58
20:51:19.328,-0.47,-0.6
20:51:19.332,-0.47,-0.61
20:51:19.336,-0.485,-0.625
20:51:19.340,-0.485,-0.625
20:51:19.344,-0.46,-0.63
20:51:19.348,-0.445,-0.65
20:51:19.352,-0.44,-0.665
20:51:19.356,-0.44,-0.665
20:51:19.360,-0.435,-0.67
20:51:19.364,-0.405,-0.695
20:51:19.368,-0.405,-0.725
20:51:19.372,-0.395,-0.7
20:51:19.376,-0.375,-0.71
20:51:19.380,-0.36,-0.705
20:51:19.384,-0.315,-0.735
20:51:19.388,-0.265,-0.725
20:51:19.392,-0.145,-0.725
20:51:19.396,-0.05,-0.73
20:51:19.400,0.05,-0.75
20:51:19.404,0.14,-0.79
20:51:19.408,0.235,-0.87
20:51:19.412,0.31,-0.895
20:51:19.416,0.38,-0.88
20:51:19.420,0.415,-0.915
20:51:19.424,0.37,-0.99
20:51:19.428,0.36,-1.06
20:51:19.432,0.485,-1.215
20:51:19.436,0.75,-1.48
20:51:19.440,1.0,-1.675
20:51:19.444,1.04,-1.835
20:51:19.448,0.755,-1.84
20:51:19.452,0.23,-1.57
20:51:19.456,-0.175,-1.275
20:51:19.460,-0.37,-1.095
20:51:19.464,-0.42,-0.99
20:51:19.468,-0.455,-0.9
20:51:19.472,-0.465,-0.825
20:51:19.476,-0.465,-0.775
20:51:19.480,-0.5,-0.765
20:51:19.484,-0.54,-0.755
20:51:19.488,-0.56,-0.805
20:51:19.492,-0.55,-0.83
20:51:19.496,-0.55,-0.87
20:51:19.500,-0.545,-0.86
20:51:19.504,-0.58,-0.87
20:51:19.508,-0.575,-0.885
20:51:19.512,-0.595,-0.92
20:51:19.516,-0.625,-0.895
20:51:19.520,-0.64,-0.925
20:51:19.524,-0.67,-0.92
20:51:19.528,-0.675,-0.945
20:51:19.532,-0.655,-0.935
20:51:19.536,-0.655,-0.925
20:51:19.540,-0.65,-0.935
20:51:19.544,-0.67,-0.94
20:51:19.548,-0.685,-0.94
20:51:19.552,-0.69,-0.925
20:51:19.556,-0.69,-0.93
20:51:19.560,-0.7,-0.925
20:51:19.564,-0.685,-0.905
20:51:19.568,-0.675,-0.945
20:51:19.572,-0.655,-0.91
20:51:19.576,-0.635,-0.92
20:51:19.580,-0.635,-0.925
20:51:19.584,-0.63,-0.91
20:51:19.588,-0.635,-0.925
20:51:19.592,-0.635,-0.895
20:51:19.596,-0.625,-0.915
20:51:19.600,-0.62,-0.895
20:51:19.604,-0.61,-0.85
20:51:19.608,-0.585,-0.84
20:51:19.612,-0.565,-0.845
20:51:19.616,-0.54,-0.84
20:51:19.620,-0.505,-0.83
20:51:19.624,-0.495,-0.84
20:51:19.628,-0.465,-0.845
20:51:19.632,-0.455,-0.84
20:51:19.636,-0.495,-0.825
20:51:19.640,-0.49,-0.87
20:51:19.644,-0.47,-0.83
20:51:19.648,-0.475,-0.875
20:51:19.652,-0.48,-0.865
20:51:19.656,-0.545,-0.86
20:51:19.660,-0.545,-0.86
20:51:19.664,-0.535,-0.875
20:51:19.668,-0.515,-0.895
20:51:19.672,-0.505,-0.92
20:51:19.676,-0.51,-0.945
20:51:19.680,-0.49,-0.955
20:51:19.684,-0.45,-0.965
20:51:19.688,-0.455,-0.955
20:51:19.692,-0.43,-0.945
20:51:19.696,-0.41,-0.99
20:51:19.700,-0.425,-0.975
20:51:19.704,-0.415,-0.985
20:51:19.708,-0.405,-1.015
20:51:19.712,-0.43,-1.03
20:51:19.716,-0.4,-1.04
20:51:19.720,-0.43,-1.035
20:51:19.724,-0.4,-1.03
20:51:19.728,-0.405,-1.03
20:51:19.732,-0.42,-1.02
20:51:19.736,-0.425,-1.025
20:51:19.740,-0.43,-1.02
20:51:19.744,-0.44,-1.015
20:51:19.748,-0.455,-1.005
20:51:19.752,-0.46,-1.0
20:51:19.756,-0.445,-0.995
20:51:19.760,-0.435,-0.985
20:51:19.764,-0.45,-0.995
20:51:19.768,-0.45,-0.96
20:51:19.772,-0.435,-0.93
20:51:19.776,-0.425,-0.945
20:51:19.780,-0.405,-0.93
20:51:19.784,-0.395,-0.92
20:51:19.788,-0.39,-0.915
20:51:19.792,-0.405,-0.89
20:51:19.796,-0.395,-0.875
20:51:19.800,-0.375,-0.825
20:51:19.804,-0.375,-0.805
20:51:19.808,-0.335,-0.775
20:51:19.812,-0.32,-0.74
20:51:19.816,-0.295,-0.73
20:51:19.820,-0.255,-0.72
20:51:19.824,-0.22,-0.69
20:51:19.828,-0.205,-0.675
20:51:19.832,-0.215,-0.695
20:51:19.836,-0.235,-0.67
20:51:19.840,-0.23,-0.665
20:51:19.844,-0.24,-0.64
20:51:19.848,-0.265,-0.63
20:51:19.852,-0.245,-0.635
20:51:19.856,-0.24,-0.625
20:51:19.860,-0.24,-0.62
20:51:19.864,-0.18,-0.62
20:51:19.868,-0.15,-0.595
20:51:19.872,-0.07,-0.6
20:51:19.876,0.015,-0.625
20:51:19.880,0.11,-0.665
20:51:19.884,0.15,-0.73
20:51:19.888,0.19,-0.73
20:51:19.892,0.24,-0.74
20:51:19.896,0.25,-0.765
20:51:19.900,0.245,-0.85
20:51:19.904,0.305,-0.975
20:51:19.908,0.47,-1.155
20:51:19.912,0.8,-1.415
20:51:19.916,1.065,-1.62
20:51:19.920,1.145,-1.75
20:51:19.924,0.91,-1.685
20:51:19.928,0.39,-1.355
20:51:19.932,-0.115,-0.99
20:51:19.936,-0.37,-0.775
20:51:19.940,-0.45,-0.655
20:51:19.944,-0.5,-0.545
20:51:19.948,-0.5,-0.47
20:51:19.952,-0.52,-0.41
20:51:19.956,-0.545,-0.38
20:51:19.960,-0.57,-0.39
20:51:19.964,-0.57,-0.37
20:51:19.968,-0.595,-0.395
20:51:19.972,-0.58,-0.395
20:51:19.976,-0.58,-0.4
20:51:19.980,-0.585,-0.395
20:51:19.984,-0.585,-0.385
20:51:19.988,-0.6,-0.38
20:51:19.992,-0.595,-0.395
20:51:19.996,-0.56,-0.355
20:51:20.000,-0.57,-0.365
20:51:20.004,-0.57,-0.365
20:51:20.008,-0.56,-0.335
20:51:20.012,-0.53,-0.32
20:51:20.016,-0.51,-0.305
20:51:20.020,-0.5,-0.28
20:51:20.024,-0.47,-0.295
20:51:20.028,-0.48,-0.285
20:51:20.032,-0.45,-0.275
20:51:20.036,-0.43,-0.275
20:51:20.040,-0.445,-0.275
20:51:20.044,-0.425,-0.26
20:51:20.048,-0.43,-0.225
20:51:20.052,-0.45,-0.23
20:51:20.056,-0.46,-0.2
20:51:20.060,-0.5,-0.225
20:51:20.064,-0.51,-0.22
20:51:20.068,-0.525,-0.21
20:51:20.072,-0.53,-0.205
20:51:20.076,-0.55,-0.205
20:51:20.080,-0.565,-0.21
20:51:20.084,-0.565,-0.215
20:51:20.088,-0.555,-0.245
20:51:20.092,-0.56,-0.24
20:51:20.096,-0.57,-0.25
20:51:20.100,-0.57,-0.26
20:51:20.104,-0.58,-0.265
20:51:20.108,-0.585,-0.275
20:51:20.112,-0.59,-0.28
20:51:20.116,-0.575,-0.3
20:51:20.120,-0.56,-0.32
20:51:20.124,-0.55,-0.305
20:51:20.128,-0.535,-0.33
20:51:20.132,-0.525,-0.355
20:51:20.136,-0.5,-0.33
20:51:20.140,-0.505,-0.34
20:51:20.144,-0.48,-0.34
20:51:20.148,-0.475,-0.36
20:51:20.152,-0.45,-0.36
20:51:20.156,-0.435,-0.375
20:51:20.160,-0.44,-0.385
20:51:20.164,-0.415,-0.43
20:51:20.168,-0.43,-0.47
20:51:20.172,-0.405,-0.485
20:51:20.176,-0.395,-0.475
20:51:20.180,-0.41,-0.495
20:51:20.184,-0.395,-0.495
20:51:20.188,-0.41,-0.505
20:51:20.192,-0.39,-0.51
20:51:20.196,-0.39,-0.53
20:51:20.200,-0.365,-0.525
20:51:20.204,-0.355,-0.52
20:51:20.208,-0.365,-0.53
20:51:20.212,-0.325,-0.52
20:51:20.216,-0.315,-0.485
20:51:20.220,-0.315,-0.48
20:51:20.224,-0.27,-0.475
20:51:20.228,-0.25,-0.48
20:51:20.232,-0.265,-0.47
20:51:20.236,-0.235,-0.46
20:51:20.240,-0.2,-0.47
20:51:20.244,-0.21,-0.455
20:51:20.248,-0.2,-0.44
20:51:20.252,-0.19,-0.46
20:51:20.256,-0.2,-0.435
20:51:20.260,-0.205,-0.435
20:51:20.264,-0.23,-0.44
20:51:20.268,-0.26,-0.425
20:51:20.272,-0.27,-0.43
20:51:20.276,-0.255,-0.42
20:51:20.280,-0.275,-0.43
20:51:20.284,-0.26,-0.42
20:51:20.288,-0.28,-0.445
20:51:20.292,-0.29,-0.415
20:51:20.296,-0.28,-0.45
20:51:20.300,-0.305,-0.455
20:51:20.304,-0.275,-0.435
20:51:20.308,-0.285,-0.43
20:51:20.312,-0.3,-0.455
20:51:20.316,-0.29,-0.46
20:51:20.320,-0.3,-0.465
20:51:20.324,-0.3,-0.47
20:51:20.328,-0.3,-0.47
20:51:20.332,-0.31,-0.48
20:51:20.336,-0.335,-0.47
20:51:20.340,-0.35,-0.46
20:51:20.344,-0.345,-0.455
20:51:20.348,-0.335,-0.465
20:51:20.352,-0.335,-0.465
20:51:20.356,-0.285,-0.475
20:51:20.360,-0.245,-0.47
20:51:20.364,-0.16,-0.46
20:51:20.368,-0.06,-0.495
20:51:20.372,0.005,-0.5
20:51:20.376,0.065,-0.535
20:51:20.380,0.115,-0.575
20:51:20.384,0.135,-0.59
20:51:20.388,0.145,-0.58
20:51:20.392,0.125,-0.67
20:51:20.396,0.145,-0.8
20:51:20.400,0.285,-0.985
20:51:20.404,0.57,-1.225
20:51:20.408,0.89,-1.485
20:51:20.412,1.085,-1.685
20:51:20.416,1.07,-1.78
20:51:20.420,0.72,-1.595
20:51:20.424,0.19,-1.17
20:51:20.428,-0.215,-0.84
20:51:20.432,-0.38,-0.65
20:51:20.436,-0.42,-0.53
20:51:20.440,-0.41,-0.4
20:51:20.444,-0.385,-0.335
20:51:20.448,-0.385,-0.305
20:51:20.452,-0.38,-0.3
20:51:20.456,-0.37,-0.285
20:51:20.460,-0.365,-0.285
20:51:20.464,-0.37,-0.31
20:51:20.468,-0.36,-0.295
20:51:20.472,-0.38,-0.315
20:51:20.476,-0.405,-0.295
20:51:20.480,-0.41,-0.305
20:51:20.484,-0.425,-0.3
20:51:20.488,-0.445,-0.31
20:51:20.492,-0.44,-0.29
20:51:20.496,-0.465,-0.285
20:51:20.500,-0.455,-0.285
20:51:20.504,-0.475,-0.275
20:51:20.508,-0.475,-0.245
20:51:20.512,-0.45,-0.3
20:51:20.516,-0.48,-0.295
20:51:20.520,-0.48,-0.31
20:51:20.524,-0.5,-0.285
20:51:20.528,-0.515,-0.295
20:51:20.532,-0.505,-0.285
20:51:20.536,-0.505,-0.27
20:51:20.540,-0.525,-0.265
20:51:20.544,-0.52,-0.275
20:51:20.548,-0.53,-0.27
20:51:20.552,-0.53,-0.265
20:51:20.556,-0.53,-0.27
20:51:20.560,-0.555,-0.255
20:51:20.564,-0.555,-0.29
20:51:20.568,-0.585,-0.275
20:51:20.572,-0.595,-0.275
20:51:20.576,-0.62,-0.265
20:51:20.580,-0.63,-0.27
20:51:20.584,-0.63,-0.285
20:51:20.588,-0.645,-0.275
20:51:20.592,-0.65,-0.265
20:51:20.596,-0.645,-0.255
20:51:20.600,-0.64,-0.265
20:51:20.604,-0.63,-0.27
20:51:20.608,-0.61,-0.26
20:51:20.612,-0.625,-0.3
20:51:20.616,-0.59,-0.295
20:51:20.620,-0.595,-0.31
20:51:20.624,-0.56,-0.3
20:51:20.628,-0.55,-0.275
20:51:20.632,-0.525,-0.29
20:51:20.636,-0.49,-0.31
20:51:20.640,-0.465,-0.3
20:51:20.644,-0.445,-0.295
20:51:20.648,-0.425,-0.28
20:51:20.652,-0.4,-0.275
20:51:20.656,-0.365,-0.27
20:51:20.660,-0.315,-0.27
20:51:20.664,-0.28,-0.265
20:51:20.668,-0.26,-0.23
20:51:20.672,-0.225,-0.25
20:51:20.676,-0.215,-0.23
20:51:20.680,-0.225,-0.235
20:51:20.684,-0.225,-0.235
20:51:20.688,-0.22,-0.235
20:51:20.692,-0.2,-0.23
20:51:20.696,-0.225,-0.23
20:51:20.700,-0.225,-0.23
20:51:20.704,-0.2,-0.2
20:51:20.708,-0.21,-0.2
20:51:20.712,-0.195,-0.21
20:51:20.716,-0.2,-0.205
20:51:20.720,-0.195,-0.205
20:51:20.724,-0.19,-0.215
20:51:20.728,-0.215,-0.205
20:51:20.732,-0.225,-0.215
20:51:20.736,-0.235,-0.255
20:51:20.740,-0.24,-0.295
20:51:20.744,-0.235,-0.3
20:51:20.748,-0.27,-0.315
20:51:20.752,-0.27,-0.315
20:51:20.756,-0.27,-0.33
20:51:20.760,-0.3,-0.32
20:51:20.764,-0.315,-0.34
20:51:20.768,-0.34,-0.33
20:51:20.772,-0.37,-0.33
20:51:20.776,-0.37,-0.335
20:51:20.780,-0.355,-0.34
20:51:20.784,-0.37,-0.335
20:51:20.788,-0.395,-0.315
20:51:20.792,-0.395,-0.335
20:51:20.796,-0.405,-0.335
20:51:20.800,-0.455,-0.335
20:51:20.804,-0.45,-0.31
20:51:20.808,-0.465,-0.315
20:51:20.812,-0.47,-0.34
20:51:20.816,-0.485,-0.34
20:51:20.820,-0.475,-0.32
20:51:20.824,-0.475,-0.32
20:51:20.828,-0.465,-0.32
20:51:20.832,-0.455,-0.34
20:51:20.836,-0.46,-0.325
20:51:20.840,-0.46,-0.32
20:51:20.844,-0.43,-0.31
20:51:20.848,-0.435,-0.31
20:51:20.852,-0.43,-0.315
20:51:20.856,-0.415,-0.335
20:51:20.860,-0.395,-0.32
20:51:20.864,-0.365,-0.295
20:51:20.868,-0.33,-0.28
20:51:20.872,-0.345,-0.26
20:51:20.876,-0.305,-0.26
20:51:20.880,-0.3,-0.24
20:51:20.884,-0.285,-0.24
20:51:20.888,-0.265,-0.215
20:51:20.892,-0.225,-0.2
20:51:20.896,-0.25,-0.195
20:51:20.900,-0.255,-0.185
20:51:20.904,-0.275,-0.19
20:51:20.908,-0.265,-0.2
20:51:20.912,-0.24,-0.2
20:51:20.916,-0.255,-0.205
20:51:20.920,-0.235,-0.21
20:51:20.924,-0.19,-0.21
20:51:20.928,-0.12,-0.205
20:51:20.932,-0.04,-0.25
20:51:20.936,0.045,-0.255
20:51:20.940,0.095,-0.32
20:51:20.944,0.145,-0.365
20:51:20.948,0.175,-0.395
20:51:20.952,0.195,-0.435
20:51:20.956,0.175,-0.515
20:51:20.960,0.19,-0.665
20:51:20.964,0.345,-0.82
20:51:20.968,0.655,-1.07
20:51:20.972,1.0,-1.305
20:51:20.976,1.2,-1.505
20:51:20.980,1.095,-1.55
20:51:20.984,0.665,-1.34
20:51:20.988,0.125,-0.91
20:51:20.992,-0.22,-0.57
20:51:20.996,-0.385,-0.435
20:51:21.000,-0.435,-0.32
20:51:21.004,-0.46,-0.25
20:51:21.008,-0.465,-0.21
20:51:21.012,-0.485,-0.17
20:51:21.016,-0.52,-0.15
20:51:21.020,-0.525,-0.18
20:51:21.024,-0.55,-0.18
20:51:21.028,-0.555,-0.205
20:51:21.032,-0.565,-0.205
20:51:21.036,-0.57,-0.205
20:51:21.040,-0.595,-0.22
20:51:21.044,-0.61,-0.225
20:51:21.048,-0.6,-0.22
20:51:21.052,-0.58,-0.225
20:51:21.056,-0.595,-0.22
20:51:21.060,-0.585,-0.2
20:51:21.064,-0.605,-0.23
20:51:21.068,-0.595,-0.205
20:51:21.072,-0.6,-0.2
20:51:21.076,-0.605,-0.205
20:51:21.080,-0.6,-0.2
20:51:21.084,-0.605,-0.195
20:51:21.088,-0.59,-0.165
20:51:21.092,-0.55,-0.145
20:51:21.096,-0.54,-0.12
20:51:21.100,-0.52,-0.12
20:51:21.104,-0.49,-0.095
20:51:21.108,-0.47,-0.085
20:51:21.112,-0.485,-0.06
20:51:21.116,-0.485,-0.055
20:51:21.120,-0.505,-0.07
20:51:21.124,-0.5,-0.055
20:51:21.128,-0.52,-0.035
20:51:21.132,-0.505,-0.035
20:51:21.136,-0.53,-0.04
20:51:21.140,-0.535,-0.04
20:51:21.144,-0.55,-0.04
20:51:21.148,-0.57,-0.04
20:51:21.152,-0.555,-0.05
20:51:21.156,-0.53,-0.055
20:51:21.160,-0.555,-0.045
20:51:21.164,-0.555,-0.07
20:51:21.168,-0.55,-0.09
20:51:21.172,-0.535,-0.095
20:51:21.176,-0.55,-0.125
20:51:21.180,-0.55,-0.12
20:51:21.184,-0.52,-0.11
20:51:21.188,-0.52,-0.14
20:51:21.192,-0.495,-0.14
20:51:21.196,-0.455,-0.135
20:51:21.200,-0.44,-0.165
20:51:21.204,-0.415,-0.15
20:51:21.208,-0.41,-0.18
20:51:21.212,-0.4,-0.15
20:51:21.216,-0.4,-0.185
20:51:21.220,-0.395,-0.21
20:51:21.224,-0.41,-0.215
20:51:21.228,-0.395,-0.2
20:51:21.232,-0.39,-0.23
20:51:21.236,-0.375,-0.255
20:51:21.240,-0.385,-0.245
20:51:21.244,-0.39,-0.235
20:51:21.248,-0.38,-0.25
20:51:21.252,-0.375,-0.26
20:51:21.256,-0.37,-0.28
20:51:21.260,-0.395,-0.26
20:51:21.264,-0.4,-0.27
20:51:21.268,-0.35,-0.275
20:51:21.272,-0.355,-0.275
20:51:21.276,-0.365,-0.265
20:51:21.280,-0.35,-0.255
20:51:21.284,-0.33,-0.285
20:51:21.288,-0.315,-0.27
20:51:21.292,-0.3,-0.265
20:51:21.296,-0.29,-0.245
20:51:21.300,-0.27,-0.235
20:51:21.304,-0.22,-0.215
20:51:21.308,-0.13,-0.205
20:51:21.312,-0.065,-0.185
20:51:21.316,-0.015,-0.195
20:51:21.320,0.05,-0.23
20:51:21.324,0.09,-0.23
20:51:21.328,0.07,-0.26
20:51:21.332,0.03,-0.295
20:51:21.336,-0.035,-0.35
20:51:21.340,-0.075,-0.405
20:51:21.344,0.045,-0.51
20:51:21.348,0.35,-0.69
20:51:21.352,0.705,-0.94
20:51:21.356,0.96,-1.24
20:51:21.360,1.075,-1.425
20:51:21.364,0.93,-1.38
20:51:21.368,0.515,-1.07
20:51:21.372,0.04,-0.655
20:51:21.376,-0.235,-0.355
20:51:21.380,-0.375,-0.22
20:51:21.384,-0.4,-0.14
20:51:21.388,-0.4,-0.13
20:51:21.392,-0.44,-0.07
20:51:21.396,-0.465,-0.085
20:51:21.400,-0.48,-0.07
20:51:21.404,-0.46,-0.11
20:51:21.408,-0.475,-0.105
20:51:21.412,-0.48,-0.09
20:51:21.416,-0.475,-0.125
20:51:21.420,-0.475,-0.12
20:51:21.424,-0.45,-0.105
20:51:21.428,-0.48,-0.085
20:51:21.432,-0.5,-0.1
20:51:21.436,-0.535,-0.12
20:51:21.440,-0.51,-0.13
20:51:21.444,-0.51,-0.12
20:51:21.448,-0.525,-0.12
20:51:21.452,-0.52,-0.12
20:51:21.456,-0.505,-0.125
20:51:21.460,-0.53,-0.135
20:51:21.464,-0.535,-0.125
20:51:21.468,-0.545,-0.145
20:51:21.472,-0.56,-0.13
20:51:21.476,-0.555,-0.16
20:51:21.480,-0.55,-0.145
20:51:21.484,-0.58,-0.15
20:51:21.488,-0.58,-0.155
20:51:21.492,-0.595,-0.175
20:51:21.496,-0.6,-0.16
20:51:21.500,-0.6,-0.16
20:51:21.504,-0.595,-0.145
20:51:21.508,-0.605,-0.135
20:51:21.512,-0.57,-0.13
20:51:21.516,-0.555,-0.13
20:51:21.520,-0.55,-0.115
20:51:21.524,-0.53,-0.115
20:51:21.528,-0.51,-0.115
20:51:21.532,-0.47,-0.105
20:51:21.536,-0.465,-0.125
20:51:21.540,-0.47,-0.13
20:51:21.544,-0.455,-0.09
20:51:21.548,-0.475,-0.105
20:51:21.552,-0.455,-0.095
20:51:21.556,-0.435,-0.1
20:51:21.560,-0.425,-0.125
20:51:21.564,-0.395,-0.125
20:51:21.568,-0.375,-0.105
20:51:21.572,-0.39,-0.105
20:51:21.576,-0.39,-0.11
20:51:21.580,-0.415,-0.09
20:51:21.584,-0.4,-0.11
20:51:21.588,-0.385,-0.125
20:51:21.592,-0.385,-0.15
20:51:21.596,-0.38,-0.135
20:51:21.600,-0.36,-0.165
20:51:21.604,-0.355,-0.14
20:51:21.608,-0.38,-0.145
20:51:21.612,-0.395,-0.135
20:51:21.616,-0.39,-0.15
20:51:21.620,-0.39,-0.17
20:51:21.624,-0.39,-0.16
20:51:21.628,-0.405,-0.18
20:51:21.632,-0.42,-0.16
20:51:21.636,-0.42,-0.14
20:51:21.640,-0.41,-0.13
20:51:21.644,-0.4,-0.12
20:51:21.648,-0.41,-0.13
20:51:21.652,-0.43,-0.125
20:51:21.656,-0.425,-0.11
20:51:21.660,-0.43,-0.12
20:51:21.664,-0.41,-0.14
20:51:21.668,-0.42,-0.125
20:51:21.672,-0.4,-0.14
20:51:21.676,-0.395,-0.15
20:51:21.680,-0.42,-0.18
20:51:21.684,-0.42,-0.18
20:51:21.688,-0.425,-0.17
20:51:21.692,-0.405,-0.175
20:51:21.696,-0.41,-0.175
20:51:21.700,-0.43,-0.175
20:51:21.704,-0.425,-0.19
20:51:21.708,-0.425,-0.2
20:51:21.712,-0.425,-0.205
20:51:21.716,-0.415,-0.2
20:51:21.720,-0.4,-0.2
20:51:21.724,-0.4,-0.2
20:51:21.728,-0.405,-0.195
20:51:21.732,-0.39,-0.19
20:51:21.736,-0.35,-0.2
20:51:21.740,-0.31,-0.2
20:51:21.744,-0.28,-0.215
20:51:21.748,-0.275,-0.205
20:51:21.752,-0.28,-0.205
20:51:21.756,-0.29,-0.195
20:51:21.760,-0.29,-0.19
20:51:21.764,-0.285,-0.2
20:51:21.768,-0.285,-0.205
20:51:21.772,-0.28,-0.2
20:51:21.776,-0.25,-0.24
20:51:21.780,-0.26,-0.245
20:51:21.784,-0.27,-0.25
20:51:21.788,-0.26,-0.22
20:51:21.792,-0.265,-0.215
20:51:21.796,-0.28,-0.21
20:51:21.800,-0.28,-0.21
20:51:21.804,-0.3,-0.21
20:51:21.808,-0.305,-0.23
20:51:21.812,-0.31,-0.22
20:51:21.816,-0.295,-0.245
20:51:21.820,-0.34,-0.25
20:51:21.824,-0.33,-0.25
20:51:21.828,-0.355,-0.265
20:51:21.832,-0.34,-0.29
20:51:21.836,-0.375,-0.285
20:51:21.840,-0.405,-0.3
20:51:21.844,-0.445,-0.29
20:51:21.848,-0.455,-0.295
20:51:21.852,-0.46,-0.325
20:51:21.856,-0.485,-0.315
20:51:21.860,-0.475,-0.305
20:51:21.864,-0.485,-0.325
20:51:21.868,-0.475,-0.325
20:51:21.872,-0.46,-0.32
20:51:21.876,-0.475,-0.345
20:51:21.880,-0.46,-0.355
20:51:21.884,-0.47,-0.385
20:51:21.888,-0.475,-0.37
20:51:21.892,-0.465,-0.38
20:51:21.896,-0.465,-0.4
20:51:21.900,-0.46,-0.41
20:51:21.904,-0.46,-0.41
20:51:21.908,-0.445,-0.42
20:51:21.912,-0.44,-0.415
20:51:21.916,-0.445,-0.42
20:51:21.920,-0.425,-0.415
20:51:21.924,-0.4,-0.42
20:51:21.928,-0.395,-0.435
20:51:21.932,-0.385,-0.425
20:51:21.936,-0.38,-0.4
20:51:21.940,-0.37,-0.43
20:51:21.944,-0.35,-0.445
20:51:21.948,-0.315,-0.445
20:51:21.952,-0.27,-0.41
20:51:21.956,-0.3,-0.43
20:51:21.960,-0.29,-0.43
20:51:21.964,-0.285,-0.415
20:51:21.968,-0.265,-0.44
20:51:21.972,-0.26,-0.43
20:51:21.976,-0.265,-0.445
20:51:21.980,-0.285,-0.425
20:51:21.984,-0.26,-0.435
20:51:21.988,-0.27,-0.445
20:51:21.992,-0.26,-0.46
20:51:21.996,-0.285,-0.47
20:51:22.000,-0.275,-0.47
20:51:22.004,-0.28,-0.455
20:51:22.008,-0.28,-0.445
20:51:22.012,-0.235,-0.475
20:51:22.016,-0.2,-0.465
20:51:22.020,-0.195,-0.49
20:51:22.024,-0.15,-0.475
20:51:22.028,-0.085,-0.49
20:51:22.032,0.0,-0.525
20:51:22.036,0.095,-0.56
20:51:22.040,0.16,-0.59
20:51:22.044,0.23,-0.64
20:51:22.048,0.295,-0.67
20:51:22.052,0.305,-0.68
20:51:22.056,0.29,-0.69
20:51:22.060,0.25,-0.81
20:51:22.064,0.335,-0.9
20:51:22.068,0.545,-1.1
20:51:22.072,0.825,-1.355
20:51:22.076,1.025,-1.565
20:51:22.080,0.935,-1.685
20:51:22.084,0.555,-1.575
20:51:22.088,0.03,-1.25
20:51:22.092,-0.285,-0.965
20:51:22.096,-0.43,-0.805
20:51:22.100,-0.475,-0.73
20:51:22.104,-0.49,-0.635
20:51:22.108,-0.49,-0.545
20:51:22.112,-0.525,-0.52
20:51:22.116,-0.585,-0.51
20:51:22.120,-0.595,-0.54
20:51:22.124,-0.62,-0.54
20:51:22.128,-0.625,-0.555
20:51:22.132,-0.6,-0.585
20:51:22.136,-0.59,-0.585
20:51:22.140,-0.56,-0.61
20:51:22.144,-0.55,-0.59
20:51:22.148,-0.55,-0.6
20:51:22.152,-0.54,-0.595
20:51:22.156,-0.505,-0.57
20:51:22.160,-0.465,-0.58
20:51:22.164,-0.49,-0.585
20:51:22.168,-0.485,-0.6
20:51:22.172,-0.5,-0.585
20:51:22.176,-0.475,-0.59
20:51:22.180,-0.475,-0.58
20:51:22.184,-0.485,-0.57
20:51:22.188,-0.52,-0.595
20:51:22.192,-0.51,-0.605
20:51:22.196,-0.495,-0.605
20:51:22.200,-0.5,-0.61
20:51:22.204,-0.51,-0.63
20:51:22.208,-0.515,-0.615
20:51:22.212,-0.52,-0.61
20:51:22.216,-0.505,-0.615
20:51:22.220,-0.53,-0.605
20:51:22.224,-0.52,-0.625
20:51:22.228,-0.54,-0.6
20:51:22.232,-0.535,-0.645
20:51:22.236,-0.53,-0.625
20:51:22.240,-0.55,-0.62
20:51:22.244,-0.54,-0.65
20:51:22.248,-0.55,-0.665
20:51:22.252,-0.545,-0.66
20:51:22.256,-0.55,-0.67
20:51:22.260,-0.58,-0.665
20:51:22.264,-0.61,-0.655
20:51:22.268,-0.56,-0.64
20:51:22.272,-0.56,-0.65
20:51:22.276,-0.545,-0.655
20:51:22.280,-0.555,-0.665
20:51:22.284,-0.54,-0.665
20:51:22.288,-0.55,-0.65
20:51:22.292,-0.52,-0.67
20:51:22.296,-0.53,-0.655
20:51:22.300,-0.54,-0.68
20:51:22.304,-0.535,-0.675
20:51:22.308,-0.52,-0.685
20:51:22.312,-0.525,-0.68
20:51:22.316,-0.515,-0.68
20:51:22.320,-0.51,-0.715
20:51:22.324,-0.505,-0.72
20:51:22.328,-0.48,-0.735
20:51:22.332,-0.465,-0.75
20:51:22.336,-0.46,-0.715
20:51:22.340,-0.455,-0.695
20:51:22.344,-0.425,-0.715
20:51:22.348,-0.4,-0.71
20:51:22.352,-0.39,-0.715
20:51:22.356,-0.37,-0.7
20:51:22.360,-0.315,-0.7
20:51:22.364,-0.29,-0.69
20:51:22.368,-0.285,-0.68
20:51:22.372,-0.25,-0.66
20:51:22.376,-0.23,-0.645
20:51:22.380,-0.245,-0.62
20:51:22.384,-0.25,-0.6
20:51:22.388,-0.245,-0.58
20:51:22.392,-0.245,-0.565
20:51:22.396,-0.235,-0.56
20:51:22.400,-0.255,-0.53
20:51:22.404,-0.24,-0.525
20:51:22.408,-0.26,-0.525
20:51:22.412,-0.26,-0.51
20:51:22.416,-0.275,-0.495
20:51:22.420,-0.305,-0.455
20:51:22.424,-0.275,-0.48
20:51:22.428,-0.27,-0.46
20:51:22.432,-0.28,-0.445
20:51:22.436,-0.29,-0.455
20:51:22.440,-0.29,-0.43
20:51:22.444,-0.31,-0.465
20:51:22.448,-0.32,-0.445
20:51:22.452,-0.325,-0.42
20:51:22.456,-0.345,-0.43
20:51:22.460,-0.345,-0.4
20:51:22.464,-0.36,-0.41
20:51:22.468,-0.355,-0.38
20:51:22.472,-0.365,-0.385
20:51:22.476,-0.375,-0.375
20:51:22.480,-0.345,-0.365
20:51:22.484,-0.33,-0.35
20:51:22.488,-0.32,-0.345
20:51:22.492,-0.345,-0.33
20:51:22.496,-0.345,-0.335
20:51:22.500,-0.355,-0.32
20:51:22.504,-0.35,-0.305
20:51:22.508,-0.37,-0.29
20:51:22.512,-0.385,-0.27
20:51:22.516,-0.395,-0.295
20:51:22.520,-0.38,-0.255
20:51:22.524,-0.38,-0.255
20:51:22.528,-0.385,-0.265
20:51:22.532,-0.375,-0.235
20:51:22.536,-0.37,-0.245
20:51:22.540,-0.355,-0.235
20:51:22.544,-0.345,-0.225
20:51:22.548,-0.335,-0.225
20:51:22.552,-0.33,-0.25
20:51:22.556,-0.32,-0.24
20:51:22.560,-0.32,-0.24
20:51:22.564,-0.3,-0.235
20:51:22.568,-0.27,-0.24
20:51:22.572,-0.245,-0.22
20:51:22.576,-0.23,-0.24
20:51:22.580,-0.215,-0.22
20:51:22.584,-0.22,-0.19
20:51:22.588,-0.19,-0.21
20:51:22.592,-0.16,-0.195
20:51:22.596,-0.18,-0.17
20:51:22.600,-0.16,-0.16
20:51:22.604,-0.165,-0.185
20:51:22.608,-0.185,-0.175
20:51:22.612,-0.18,-0.185
20:51:22.616,-0.185,-0.2
20:51:22.620,-0.175,-0.19
20:51:22.624,-0.12,-0.17
20:51:22.628,-0.085,-0.19
20:51:22.632,0.0,-0.16
20:51:22.636,0.105,-0.175
20:51:22.640,0.175,-0.215
20:51:22.644,0.245,-0.255
20:51:22.648,0.295,-0.33
20:51:22.652,0.365,-0.335
20:51:22.656,0.385,-0.355
20:51:22.660,0.38,-0.405
20:51:22.664,0.365,-0.525
20:51:22.668,0.515,-0.65
20:51:22.672,0.795,-0.85
20:51:22.676,1.05,-1.08
20:51:22.680,1.13,-1.29
20:51:22.684,0.88,-1.34
20:51:22.688,0.36,-1.135
20:51:22.692,-0.105,-0.8
20:51:22.696,-0.35,-0.53
20:51:22.700,-0.42,-0.39
20:51:22.704,-0.445,-0.3
20:51:22.708,-0.445,-0.195
20:51:22.712,-0.465,-0.14
20:51:22.716,-0.49,-0.105
20:51:22.720,-0.52,-0.105
20:51:22.724,-0.54,-0.075
20:51:22.728,-0.545,-0.105
20:51:22.732,-0.575,-0.08
20:51:22.736,-0.575,-0.09
20:51:22.740,-0.59,-0.085
20:51:22.744,-0.59,-0.1
20:51:22.748,-0.595,-0.11
20:51:22.752,-0.57,-0.125
20:51:22.756,-0.59,-0.12
20:51:22.760,-0.57,-0.125
20:51:22.764,-0.575,-0.13
20:51:22.768,-0.57,-0.13
20:51:22.772,-0.545,-0.135
20:51:22.776,-0.51,-0.125
20:51:22.780,-0.51,-0.12
20:51:22.784,-0.48,-0.105
20:51:22.788,-0.485,-0.105
20:51:22.792,-0.465,-0.1
20:51:22.796,-0.46,-0.105
20:51:22.800,-0.45,-0.115
20:51:22.804,-0.44,-0.11
20:51:22.808,-0.445,-0.115
20:51:22.812,-0.455,-0.12
20:51:22.816,-0.47,-0.13
20:51:22.820,-0.48,-0.125
20:51:22.824,-0.475,-0.115
20:51:22.828,-0.48,-0.115
20:51:22.832,-0.47,-0.14
20:51:22.836,-0.47,-0.115
20:51:22.840,-0.47,-0.12
20:51:22.844,-0.46,-0.125
20:51:22.848,-0.485,-0.125
20:51:22.852,-0.485,-0.145
20:51:22.856,-0.485,-0.145
20:51:22.860,-0.475,-0.155
20:51:22.864,-0.455,-0.175
20:51:22.868,-0.465,-0.185
20:51:22.872,-0.47,-0.19
20:51:22.876,-0.475,-0.17
20:51:22.880,-0.485,-0.185
20:51:22.884,-0.47,-0.155
20:51:22.888,-0.46,-0.205
20:51:22.892,-0.455,-0.215
20:51:22.896,-0.46,-0.21
20:51:22.900,-0.455,-0.24
20:51:22.904,-0.47,-0.255
20:51:22.908,-0.46,-0.28
20:51:22.912,-0.455,-0.295
20:51:22.916,-0.45,-0.315
20:51:22.920,-0.485,-0.32
20:51:22.924,-0.49,-0.335
20:51:22.928,-0.48,-0.32
20:51:22.932,-0.48,-0.325
20:51:22.936,-0.48,-0.335
20:51:22.940,-0.455,-0.34
20:51:22.944,-0.45,-0.33
20:51:22.948,-0.45,-0.335
20:51:22.952,-0.42,-0.33
20:51:22.956,-0.435,-0.33
20:51:22.960,-0.44,-0.335
20:51:22.964,-0.41,-0.345
20:51:22.968,-0.4,-0.32
20:51:22.972,-0.405,-0.31
20:51:22.976,-0.37,-0.32
20:51:22.980,-0.355,-0.315
20:51:22.984,-0.335,-0.285
20:51:22.988,-0.335,-0.285
20:51:22.992,-0.33,-0.28
20:51:22.996,-0.32,-0.255
20:51:23.000,-0.3,-0.24
20:51:23.004,-0.28,-0.24
20:51:23.008,-0.265,-0.21
20:51:23.012,-0.275,-0.22
20:51:23.016,-0.24,-0.225
20:51:23.020,-0.235,-0.225
20:51:23.024,-0.235,-0.205
20:51:23.028,-0.23,-0.175
20:51:23.032,-0.215,-0.165
20:51:23.036,-0.24,-0.165
20:51:23.040,-0.245,-0.145
20:51:23.044,-0.23,-0.14
20:51:23.048,-0.24,-0.17
20:51:23.052,-0.245,-0.155
20:51:23.056,-0.245,-0.165
20:51:23.060,-0.23,-0.195
20:51:23.064,-0.24,-0.19
20:51:23.068,-0.275,-0.22
20:51:23.072,-0.275,-0.225
20:51:23.076,-0.265,-0.225
20:51:23.080,-0.27,-0.24
20:51:23.084,-0.27,-0.23
20:51:23.088,-0.265,-0.23
20:51:23.092,-0.24,-0.26
20:51:23.096,-0.255,-0.245
20:51:23.100,-0.26,-0.255
20:51:23.104,-0.265,-0.24
20:51:23.108,-0.285,-0.25
20:51:23.112,-0.28,-0.225
20:51:23.116,-0.32,-0.23
20:51:23.120,-0.315,-0.245
20:51:23.124,-0.305,-0.24
20:51:23.128,-0.32,-0.235
20:51:23.132,-0.335,-0.215
20:51:23.136,-0.34,-0.26
20:51:23.140,-0.345,-0.26
20:51:23.144,-0.345,-0.27
20:51:23.148,-0.29,-0.285
20:51:23.152,-0.25,-0.275
20:51:23.156,-0.18,-0.27
20:51:23.160,-0.105,-0.295
20:51:23.164,-0.025,-0.3
20:51:23.168,-0.005,-0.365
20:51:23.172,0.04,-0.415
20:51:23.176,0.065,-0.425
20:51:23.180,0.085,-0.445
20:51:23.184,0.065,-0.525
20:51:23.188,0.15,-0.66
20:51:23.192,0.375,-0.83
20:51:23.196,0.7,-1.065
20:51:23.200,0.97,-1.31
20:51:23.204,1.035,-1.52
20:51:23.208,0.795,-1.555
20:51:23.212,0.31,-1.265
20:51:23.216,-0.14,-0.865
20:51:23.220,-0.355,-0.58
20:51:23.224,-0.42,-0.4
20:51:23.228,-0.44,-0.28
20:51:23.232,-0.44,-0.19
20:51:23.236,-0.44,-0.135
20:51:23.240,-0.42,-0.08
20:51:23.244,-0.445,-0.08
20:51:23.248,-0.455,-0.08
20:51:23.252,-0.455,-0.075
20:51:23.256,-0.47,-0.085
20:51:23.260,-0.465,-0.08
20:51:23.264,-0.465,-0.075
20:51:23.268,-0.465,-0.08
20:51:23.272,-0.47,-0.085
20:51:23.276,-0.49,-0.08
20:51:23.280,-0.49,-0.08
20:51:23.284,-0.47,-0.09
20:51:23.288,-0.44,-0.09
20:51:23.292,-0.425,-0.08
20:51:23.296,-0.42,-0.09
20:51:23.300,-0.42,-0.09
20:51:23.304,-0.425,-0.085
20:51:23.308,-0.445,-0.08
20:51:23.312,-0.45,-0.095
20:51:23.316,-0.45,-0.095
20:51:23.320,-0.475,-0.11
20:51:23.324,-0.49,-0.155
20:51:23.328,-0.525,-0.115
20:51:23.332,-0.525,-0.11
20:51:23.336,-0.54,-0.11
20:51:23.340,-0.56,-0.135
20:51:23.344,-0.58,-0.12
20:51:23.348,-0.61,-0.13
20:51:23.352,-0.62,-0.125
20:51:23.356,-0.63,-0.11
20:51:23.360,-0.62,-0.135
20:51:23.364,-0.63,-0.125
20:51:23.368,-0.62,-0.105
20:51:23.372,-0.625,-0.11
20:51:23.376,-0.61,-0.125
20:51:23.380,-0.605,-0.14
20:51:23.384,-0.59,-0.115
20:51:23.388,-0.57,-0.115
20:51:23.392,-0.55,-0.135
20:51:23.396,-0.545,-0.125
20:51:23.400,-0.505,-0.135
20:51:23.404,-0.495,-0.13
20:51:23.408,-0.465,-0.14
20:51:23.412,-0.44,-0.13
20:51:23.416,-0.43,-0.155
20:51:23.420,-0.415,-0.16
20:51:23.424,-0.38,-0.15
20:51:23.428,-0.365,-0.155
20:51:23.432,-0.36,-0.11
20:51:23.436,-0.34,-0.17
20:51:23.440,-0.315,-0.16
20:51:23.444,-0.27,-0.16
20:51:23.448,-0.28,-0.165
20:51:23.452,-0.28,-0.155
20:51:23.456,-0.3,-0.15
20:51:23.460,-0.295,-0.15
20:51:23.464,-0.285,-0.16
20:51:23.468,-0.29,-0.17
20:51:23.472,-0.29,-0.145
20:51:23.476,-0.29,-0.155
20:51:23.480,-0.28,-0.17
20:51:23.484,-0.255,-0.18
20:51:23.488,-0.25,-0.165
20:51:23.492,-0.255,-0.18
20:51:23.496,-0.255,-0.145
20:51:23.500,-0.255,-0.15
20:51:23.504,-0.25,-0.16
20:51:23.508,-0.275,-0.145
20:51:23.512,-0.31,-0.135
20:51:23.516,-0.315,-0.155
20:51:23.520,-0.31,-0.135
20:51:23.524,-0.31,-0.115
20:51:23.528,-0.31,-0.125
20:51:23.532,-0.29,-0.125
20:51:23.536,-0.285,-0.11
20:51:23.540,-0.28,-0.105
20:51:23.544,-0.285,-0.14
20:51:23.548,-0.295,-0.11
20:51:23.552,-0.31,-0.135
20:51:23.556,-0.33,-0.135
20:51:23.560,-0.355,-0.155
20:51:23.564,-0.365,-0.155
20:51:23.568,-0.395,-0.16
20:51:23.572,-0.4,-0.15
20:51:23.576,-0.405,-0.15
20:51:23.580,-0.425,-0.175
20:51:23.584,-0.415,-0.18
20:51:23.588,-0.415,-0.18
20:51:23.592,-0.4,-0.17
20:51:23.596,-0.38,-0.17
20:51:23.600,-0.37,-0.155
20:51:23.604,-0.355,-0.145
20:51:23.608,-0.365,-0.155
20:51:23.612,-0.345,-0.16
20:51:23.616,-0.32,-0.17
20:51:23.620,-0.325,-0.15
20:51:23.624,-0.32,-0.155
20:51:23.628,-0.305,-0.165
20:51:23.632,-0.285,-0.165
20:51:23.636,-0.28,-0.155
20:51:23.640,-0.26,-0.15
20:51:23.644,-0.25,-0.135
20:51:23.648,-0.25,-0.14
20:51:23.652,-0.235,-0.155
20:51:23.656,-0.245,-0.145
20:51:23.660,-0.23,-0.125
20:51:23.664,-0.225,-0.125
20:51:23.668,-0.22,-0.1
20:51:23.672,-0.185,-0.105
20:51:23.676,-0.145,-0.14
20:51:23.680,-0.09,-0.135
20:51:23.684,0.0,-0.12
20:51:23.688,0.08,-0.14
20:51:23.692,0.14,-0.16
20:51:23.696,0.18,-0.22
20:51:23.700,0.205,-0.26
20:51:23.704,0.21,-0.285
20:51:23.708,0.235,-0.29
20:51:23.712,0.18,-0.375
20:51:23.716,0.23,-0.495
20:51:23.720,0.405,-0.66
20:51:23.724,0.71,-0.95
20:51:23.728,0.99,-1.19
20:51:23.732,1.05,-1.4
20:51:23.736,0.785,-1.455
20:51:23.740,0.315,-1.195
20:51:23.744,-0.16,-0.8
20:51:23.748,-0.4,-0.48
20:51:23.752,-0.465,-0.29
20:51:23.756,-0.5,-0.185
20:51:23.760,-0.52,-0.105
20:51:23.764,-0.53,-0.03
20:51:23.768,-0.565,-0.01
20:51:23.772,-0.56,-0.005
20:51:23.776,-0.565,0.0
20:51:23.780,-0.54,-0.03
20:51:23.784,-0.545,-0.065
20:51:23.788,-0.57,-0.09
20:51:23.792,-0.59,-0.1
20:51:23.796,-0.6,-0.095
20:51:23.800,-0.62,-0.12
20:51:23.804,-0.63,-0.1
20:51:23.808,-0.65,-0.11
20:51:23.812,-0.65,-0.12
20:51:23.816,-0.64,-0.13
20:51:23.820,-0.635,-0.11
20:51:23.824,-0.65,-0.135
20:51:23.828,-0.66,-0.13
20:51:23.832,-0.62,-0.14
20:51:23.836,-0.62,-0.125
20:51:23.840,-0.585,-0.11
20:51:23.844,-0.585,-0.125
20:51:23.848,-0.57,-0.115
20:51:23.852,-0.56,-0.13
20:51:23.856,-0.555,-0.115
20:51:23.860,-0.54,-0.135
20:51:23.864,-0.56,-0.145
20:51:23.868,-0.535,-0.12
20:51:23.872,-0.55,-0.13
20:51:23.876,-0.51,-0.145
20:51:23.880,-0.525,-0.115
20:51:23.884,-0.51,-0.13
20:51:23.888,-0.51,-0.115
20:51:23.892,-0.52,-0.12
20:51:23.896,-0.49,-0.105
20:51:23.900,-0.495,-0.1
20:51:23.904,-0.46,-0.09
20:51:23.908,-0.465,-0.08
20:51:23.912,-0.48,-0.09
20:51:23.916,-0.49,-0.105
20:51:23.920,-0.52,-0.12
20:51:23.924,-0.51,-0.115
20:51:23.928,-0.5,-0.145
20:51:23.932,-0.49,-0.135
20:51:23.936,-0.47,-0.15
20:51:23.940,-0.45,-0.185
20:51:23.944,-0.44,-0.175
20:51:23.948,-0.46,-0.2
20:51:23.952,-0.48,-0.21
20:51:23.956,-0.455,-0.24
20:51:23.960,-0.48,-0.255
20:51:23.964,-0.495,-0.26
20:51:23.968,-0.485,-0.245
20:51:23.972,-0.465,-0.26
20:51:23.976,-0.475,-0.26
20:51:23.980,-0.455,-0.275
20:51:23.984,-0.44,-0.27
20:51:23.988,-0.44,-0.285
20:51:23.992,-0.45,-0.31
20:51:23.996,-0.44,-0.29
20:51:24.000,-0.43,-0.305
20:51:24.004,-0.415,-0.28
20:51:24.008,-0.43,-0.27
20:51:24.012,-0.44,-0.305
20:51:24.016,-0.41,-0.315
20:51:24.020,-0.4,-0.32
20:51:24.024,-0.39,-0.32
20:51:24.028,-0.42,-0.34
20:51:24.032,-0.39,-0.36
20:51:24.036,-0.39,-0.335
20:51:24.040,-0.385,-0.35
20:51:24.044,-0.385,-0.35
20:51:24.048,-0.4,-0.325
20:51:24.052,-0.375,-0.35
20:51:24.056,-0.38,-0.33
20:51:24.060,-0.37,-0.35
20:51:24.064,-0.34,-0.35
20:51:24.068,-0.34,-0.37
20:51:24.072,-0.35,-0.33
20:51:24.076,-0.35,-0.365
20:51:24.080,-0.365,-0.365
20:51:24.084,-0.34,-0.36
20:51:24.088,-0.34,-0.36
20:51:24.092,-0.325,-0.365
20:51:24.096,-0.31,-0.395
20:51:24.100,-0.29,-0.385
20:51:24.104,-0.265,-0.375
20:51:24.108,-0.26,-0.38
20:51:24.112,-0.25,-0.37
20:51:24.116,-0.245,-0.385
20:51:24.120,-0.225,-0.38
20:51:24.124,-0.24,-0.385
20:51:24.128,-0.28,-0.405
20:51:24.132,-0.285,-0.39
20:51:24.136,-0.28,-0.39
20:51:24.140,-0.295,-0.39
20:51:24.144,-0.3,-0.42
20:51:24.148,-0.315,-0.42
20:51:24.152,-0.3,-0.435
20:51:24.156,-0.32,-0.44
20:51:24.160,-0.32,-0.455
20:51:24.164,-0.33,-0.48
20:51:24.168,-0.36,-0.49
20:51:24.172,-0.345,-0.495
20:51:24.176,-0.33,-0.505
20:51:24.180,-0.285,-0.525
20:51:24.184,-0.225,-0.535
20:51:24.188,-0.16,-0.525
20:51:24.192,-0.06,-0.565
20:51:24.196,0.02,-0.59
20:51:24.200,0.1,-0.655
20:51:24.204,0.17,-0.705
20:51:24.208,0.26,-0.71
20:51:24.212,0.295,-0.74
20:51:24.216,0.27,-0.79
20:51:24.220,0.26,-0.87
20:51:24.224,0.39,-0.99
20:51:24.228,0.66,-1.2
20:51:24.232,0.92,-1.43
20:51:24.236,0.985,-1.64
20:51:24.240,0.72,-1.725
20:51:24.244,0.205,-1.545
20:51:24.248,-0.24,-1.19
20:51:24.252,-0.43,-0.92
20:51:24.256,-0.495,-0.805
20:51:24.260,-0.51,-0.7
20:51:24.264,-0.485,-0.62
20:51:24.268,-0.47,-0.56
20:51:24.272,-0.485,-0.54
20:51:24.276,-0.47,-0.535
20:51:24.280,-0.48,-0.545
20:51:24.284,-0.45,-0.57
20:51:24.288,-0.465,-0.585
20:51:24.292,-0.475,-0.585
20:51:24.296,-0.495,-0.59
20:51:24.300,-0.495,-0.605
20:51:24.304,-0.505,-0.585
20:51:24.308,-0.51,-0.615
20:51:24.312,-0.52,-0.615
20:51:24.316,-0.545,-0.61
20:51:24.320,-0.525,-0.615
20:51:24.324,-0.52,-0.6
20:51:24.328,-0.48,-0.61
20:51:24.332,-0.45,-0.62
20:51:24.336,-0.44,-0.625
20:51:24.340,-0.42,-0.62
20:51:24.344,-0.425,-0.61
20:51:24.348,-0.42,-0.625
20:51:24.352,-0.43,-0.59
20:51:24.356,-0.45,-0.585
20:51:24.360,-0.45,-0.57
20:51:24.364,-0.47,-0.57
20:51:24.368,-0.5,-0.575
20:51:24.372,-0.49,-0.575
20:51:24.376,-0.5,-0.57
20:51:24.380,-0.5,-0.545
20:51:24.384,-0.525,-0.58
20:51:24.388,-0.535,-0.59
20:51:24.392,-0.53,-0.585
20:51:24.396,-0.56,-0.58
20:51:24.400,-0.555,-0.56
20:51:24.404,-0.56,-0.59
20:51:24.408,-0.56,-0.6
20:51:24.412,-0.585,-0.595
20:51:24.416,-0.575,-0.58
20:51:24.420,-0.555,-0.595
20:51:24.424,-0.57,-0.595
20:51:24.428,-0.56,-0.6
20:51:24.432,-0.58,-0.615
20:51:24.436,-0.595,-0.62
20:51:24.440,-0.61,-0.6
20:51:24.444,-0.57,-0.6
20:51:24.448,-0.565,-0.615
20:51:24.452,-0.55,-0.595
20:51:24.456,-0.545,-0.605
20:51:24.460,-0.52,-0.625
20:51:24.464,-0.52,-0.615
20:51:24.468,-0.48,-0.615
20:51:24.472,-0.48,-0.6
20:51:24.476,-0.45,-0.595
20:51:24.480,-0.46,-0.585
20:51:24.484,-0.405,-0.575
20:51:24.488,-0.39,-0.57
20:51:24.492,-0.37,-0.54
20:51:24.496,-0.33,-0.55
20:51:24.500,-0.31,-0.54
20:51:24.504,-0.305,-0.515
20:51:24.508,-0.29,-0.505
20:51:24.512,-0.265,-0.505
20:51:24.516,-0.255,-0.505
20:51:24.520,-0.24,-0.5
20:51:24.524,-0.2,-0.495
20:51:24.528,-0.215,-0.485
20:51:24.532,-0.16,-0.47
20:51:24.536,-0.18,-0.45
20:51:24.540,-0.17,-0.43
20:51:24.544,-0.175,-0.435
20:51:24.548,-0.175,-0.395
20:51:24.552,-0.185,-0.385
20:51:24.556,-0.16,-0.39
20:51:24.560,-0.13,-0.37
20:51:24.564,-0.12,-0.35
20:51:24.568,-0.14,-0.34
20:51:24.572,-0.13,-0.345
20:51:24.576,-0.155,-0.32
20:51:24.580,-0.165,-0.29
20:51:24.584,-0.18,-0.295
20:51:24.588,-0.185,-0.27
20:51:24.592,-0.2,-0.27
20:51:24.596,-0.19,-0.26
20:51:24.600,-0.205,-0.27
20:51:24.604,-0.23,-0.26
20:51:24.608,-0.245,-0.245
20:51:24.612,-0.25,-0.24
20:51:24.616,-0.26,-0.23
20:51:24.620,-0.275,-0.24
20:51:24.624,-0.29,-0.26
20:51:24.628,-0.295,-0.24
20:51:24.632,-0.3,-0.25
20:51:24.636,-0.31,-0.245
20:51:24.640,-0.33,-0.24
20:51:24.644,-0.33,-0.25
20:51:24.648,-0.34,-0.235
20:51:24.652,-0.35,-0.235
20:51:24.656,-0.355,-0.22
20:51:24.660,-0.37,-0.21
20:51:24.664,-0.375,-0.2
20:51:24.668,-0.355,-0.21
20:51:24.672,-0.36,-0.21
20:51:24.676,-0.36,-0.195
20:51:24.680,-0.345,-0.18
20:51:24.684,-0.34,-0.175
20:51:24.688,-0.335,-0.165
20:51:24.692,-0.34,-0.185
20:51:24.696,-0.33,-0.18
20:51:24.700,-0.315,-0.165
20:51:24.704,-0.31,-0.155
20:51:24.708,-0.295,-0.16
20:51:24.712,-0.275,-0.165
20:51:24.716,-0.27,-0.16
20:51:24.720,-0.24,-0.15
20:51:24.724,-0.235,-0.165
20:51:24.728,-0.24,-0.155
20:51:24.732,-0.2,-0.17
20:51:24.736,-0.16,-0.16
20:51:24.740,-0.085,-0.17
20:51:24.744,-0.005,-0.17
20:51:24.748,0.085,-0.17
20:51:24.752,0.17,-0.2
20:51:24.756,0.21,-0.27
20:51:24.760,0.28,-0.29
20:51:24.764,0.335,-0.305
20:51:24.768,0.34,-0.33
20:51:24.772,0.335,-0.39
20:51:24.776,0.405,-0.51
20:51:24.780,0.595,-0.67
20:51:24.784,0.895,-0.89
20:51:24.788,1.19,-1.14
20:51:24.792,1.305,-1.35
20:51:24.796,1.1,-1.4
20:51:24.800,0.63,-1.215
20:51:24.804,0.16,-0.845
20:51:24.808,-0.1,-0.55
20:51:24.812,-0.21,-0.375
20:51:24.816,-0.275,-0.255
20:51:24.820,-0.295,-0.17
20:51:24.824,-0.35,-0.11
20:51:24.828,-0.375,-0.055
20:51:24.832,-0.395,-0.06
20:51:24.836,-0.415,-0.06
20:51:24.840,-0.435,-0.09
20:51:24.844,-0.455,-0.095
20:51:24.848,-0.485,-0.1
20:51:24.852,-0.475,-0.085
20:51:24.856,-0.49,-0.1
20:51:24.860,-0.5,-0.105
20:51:24.864,-0.495,-0.12
20:51:24.868,-0.525,-0.12
20:51:24.872,-0.51,-0.11
20:51:24.876,-0.535,-0.125
20:51:24.880,-0.545,-0.12
20:51:24.884,-0.545,-0.115
20:51:24.888,-0.535,-0.13
20:51:24.892,-0.55,-0.125
20:51:24.896,-0.535,-0.1
20:51:24.900,-0.525,-0.11
20:51:24.904,-0.53,-0.13
20:51:24.908,-0.525,-0.12
20:51:24.912,-0.525,-0.105
20:51:24.916,-0.515,-0.08
20:51:24.920,-0.53,-0.09
20:51:24.924,-0.54,-0.085
20:51:24.928,-0.53,-0.075
20:51:24.932,-0.51,-0.085
20:51:24.936,-0.51,-0.08
20:51:24.940,-0.5,-0.075
20:51:24.944,-0.515,-0.075
20:51:24.948,-0.51,-0.07
20:51:24.952,-0.495,-0.055
20:51:24.956,-0.5,-0.07
20:51:24.960,-0.49,-0.05
20:51:24.964,-0.48,-0.06
20:51:24.968,-0.48,-0.075
20:51:24.972,-0.46,-0.07
20:51:24.976,-0.455,-0.05
20:51:24.980,-0.43,-0.075
20:51:24.984,-0.43,-0.065
20:51:24.988,-0.43,-0.1
20:51:24.992,-0.395,-0.08
20:51:24.996,-0.4,-0.11
20:51:25.000,-0.365,-0.105
20:51:25.004,-0.355,-0.11
20:51:25.008,-0.345,-0.13
20:51:25.012,-0.34,-0.12
20:51:25.016,-0.32,-0.105
20:51:25.020,-0.31,-0.105
20:51:25.024,-0.305,-0.135
20:51:25.028,-0.315,-0.13
20:51:25.032,-0.335,-0.135
20:51:25.036,-0.34,-0.135
20:51:25.040,-0.32,-0.13
20:51:25.044,-0.305,-0.125
20:51:25.048,-0.3,-0.12
20:51:25.052,-0.27,-0.135
20:51:25.056,-0.275,-0.145
20:51:25.060,-0.295,-0.16
20:51:25.064,-0.28,-0.175
20:51:25.068,-0.315,-0.175
20:51:25.072,-0.31,-0.185
20:51:25.076,-0.32,-0.2
20:51:25.080,-0.315,-0.195
20:51:25.084,-0.325,-0.18
20:51:25.088,-0.325,-0.19
20:51:25.092,-0.33,-0.185
20:51:25.096,-0.335,-0.195
20:51:25.100,-0.345,-0.18
20:51:25.104,-0.335,-0.18
20:51:25.108,-0.32,-0.155
20:51:25.112,-0.325,-0.145
20:51:25.116,-0.335,-0.15
20:51:25.120,-0.33,-0.14
20:51:25.124,-0.34,-0.16
20:51:25.128,-0.33,-0.145
20:51:25.132,-0.315,-0.155
20:51:25.136,-0.305,-0.145
20:51:25.140,-0.3,-0.17
20:51:25.144,-0.29,-0.12
20:51:25.148,-0.235,-0.145
20:51:25.152,-0.185,-0.135
20:51:25.156,-0.095,-0.125
20:51:25.160,-0.005,-0.145
20:51:25.164,0.055,-0.145
20:51:25.168,0.075,-0.185
20:51:25.172,0.1,-0.215
20:51:25.176,0.09,-0.23
20:51:25.180,0.07,-0.26
20:51:25.184,0.04,-0.32
20:51:25.188,0.165,-0.44
20:51:25.192,0.425,-0.61
20:51:25.196,0.765,-0.855
20:51:25.200,1.045,-1.16
20:51:25.204,1.125,-1.39
20:51:25.208,0.965,-1.405
20:51:25.212,0.535,-1.175
20:51:25.216,0.085,-0.75
20:51:25.220,-0.195,-0.42
20:51:25.224,-0.305,-0.23
20:51:25.228,-0.35,-0.135
20:51:25.232,-0.355,-0.06
20:51:25.236,-0.355,-0.02
20:51:25.240,-0.385,0.0
20:51:25.244,-0.405,0.005
20:51:25.248,-0.395,0.01
20:51:25.252,-0.395,0.01
20:51:25.256,-0.41,0.005
20:51:25.260,-0.43,0.0
20:51:25.264,-0.445,0.0
20:51:25.268,-0.455,-0.03
20:51:25.272,-0.465,-0.01
20:51:25.276,-0.49,-0.005
20:51:25.280,-0.52,0.0
20:51:25.284,-0.505,-0.02
20:51:25.288,-0.52,-0.025
20:51:25.292,-0.51,-0.03
20:51:25.296,-0.525,-0.04
20:51:25.300,-0.525,-0.045
20:51:25.304,-0.51,-0.025
20:51:25.308,-0.53,-0.025
20:51:25.312,-0.515,0.015
20:51:25.316,-0.53,-0.02
20:51:25.320,-0.525,-0.025
20:51:25.324,-0.53,-0.02
20:51:25.328,-0.525,-0.02
20:51:25.332,-0.535,-0.005
20:51:25.336,-0.53,0.0
20:51:25.340,-0.53,-0.01
20:51:25.344,-0.5,-0.025
20:51:25.348,-0.515,-0.01
20:51:25.352,-0.51,0.01
20:51:25.356,-0.49,0.015
20:51:25.360,-0.495,0.02
20:51:25.364,-0.475,0.015
20:51:25.368,-0.43,0.02
20:51:25.372,-0.43,0.015
20:51:25.376,-0.435,0.015
20:51:25.380,-0.41,0.025
20:51:25.384,-0.41,0.01
20:51:25.388,-0.395,0.035
20:51:25.392,-0.39,0.035
20:51:25.396,-0.385,0.03
20:51:25.400,-0.395,0.0
20:51:25.404,-0.375,0.0
20:51:25.408,-0.35,-0.01
20:51:25.412,-0.355,-0.025
20:51:25.416,-0.345,-0.015
20:51:25.420,-0.355,-0.045
20:51:25.424,-0.345,-0.05
20:51:25.428,-0.335,-0.065
20:51:25.432,-0.32,-0.06
20:51:25.436,-0.3,-0.055
20:51:25.440,-0.315,-0.04
20:51:25.444,-0.285,-0.08
20:51:25.448,-0.275,-0.05
20:51:25.452,-0.27,-0.06
20:51:25.456,-0.26,-0.05
20:51:25.460,-0.265,-0.07
20:51:25.464,-0.255,-0.055
20:51:25.468,-0.255,-0.025
20:51:25.472,-0.255,-0.02
20:51:25.476,-0.24,-0.02
20:51:25.480,-0.24,-0.03
20:51:25.484,-0.25,-0.045
20:51:25.488,-0.265,-0.035
20:51:25.492,-0.275,-0.04
20:51:25.496,-0.265,-0.03
20:51:25.500,-0.29,-0.05
20:51:25.504,-0.295,-0.03
20:51:25.508,-0.325,-0.035
20:51:25.512,-0.335,-0.03
20:51:25.516,-0.345,-0.025
20:51:25.520,-0.38,-0.025
20:51:25.524,-0.365,-0.04
20:51:25.528,-0.34,-0.055
20:51:25.532,-0.33,-0.04
20:51:25.536,-0.31,-0.06
20:51:25.540,-0.295,-0.07
20:51:25.544,-0.265,-0.07
20:51:25.548,-0.27,-0.095
20:51:25.552,-0.265,-0.09
20:51:25.556,-0.235,-0.075
20:51:25.560,-0.235,-0.075
20:51:25.564,-0.225,-0.075
20:51:25.568,-0.23,-0.065
20:51:25.572,-0.23,-0.07
20:51:25.576,-0.24,-0.065
20:51:25.580,-0.225,-0.065
20:51:25.584,-0.205,-0.05
20:51:25.588,-0.21,-0.055
20:51:25.592,-0.21,-0.03
20:51:25.596,-0.205,-0.03
20:51:25.600,-0.2,-0.06
20:51:25.604,-0.195,-0.075
20:51:25.608,-0.19,-0.05
20:51:25.612,-0.195,-0.04
20:51:25.616,-0.2,-0.055
20:51:25.620,-0.205,-0.03
20:51:25.624,-0.205,-0.035
20:51:25.628,-0.2,-0.035
20:51:25.632,-0.21,-0.03
20:51:25.636,-0.21,-0.025
20:51:25.640,-0.215,-0.035
20:51:25.644,-0.225,-0.045
20:51:25.648,-0.22,-0.015
20:51:25.652,-0.215,-0.015
20:51:25.656,-0.23,-0.03
20:51:25.660,-0.23,-0.04
20:51:25.664,-0.24,-0.04
20:51:25.668,-0.26,-0.045
20:51:25.672,-0.265,-0.03
20:51:25.676,-0.22,-0.055
20:51:25.680,-0.16,-0.05
20:51:25.684,-0.11,-0.055
20:51:25.688,-0.03,-0.085
20:51:25.692,0.03,-0.1
20:51:25.696,0.105,-0.12
20:51:25.700,0.145,-0.135
20:51:25.704,0.205,-0.165
20:51:25.708,0.215,-0.175
20:51:25.712,0.215,-0.195
20:51:25.716,0.175,-0.265
20:51:25.720,0.2,-0.36
20:51:25.724,0.355,-0.52
20:51:25.728,0.635,-0.74
20:51:25.732,0.91,-0.995
20:51:25.736,1.035,-1.225
20:51:25.740,0.885,-1.325
20:51:25.744,0.45,-1.13
20:51:25.748,-0.04,-0.745
20:51:25.752,-0.33,-0.405
20:51:25.756,-0.445,-0.22
20:51:25.760,-0.46,-0.08
20:51:25.764,-0.465,0.01
20:51:25.768,-0.47,0.06
20:51:25.772,-0.48,0.1
20:51:25.776,-0.49,0.11
20:51:25.780,-0.515,0.08
20:51:25.784,-0.495,0.075
20:51:25.788,-0.48,0.035
20:51:25.792,-0.46,-0.01
20:51:25.796,-0.44,0.0
20:51:25.800,-0.42,0.0
20:51:25.804,-0.435,-0.025
20:51:25.808,-0.41,0.0
20:51:25.812,-0.415,0.005
20:51:25.816,-0.42,0.005
20:51:25.820,-0.42,0.015
20:51:25.824,-0.41,0.01
20:51:25.828,-0.425,0.01
20:51:25.832,-0.425,0.01
20:51:25.836,-0.42,0.0
20:51:25.840,-0.405,0.0
20:51:25.844,-0.395,0.005
20:51:25.848,-0.41,0.01
20:51:25.852,-0.425,0.0
20:51:25.856,-0.415,0.005
20:51:25.860,-0.43,0.01
20:51:25.864,-0.435,0.005
20:51:25.868,-0.46,0.025
20:51:25.872,-0.45,0.015
20:51:25.876,-0.485,0.035
20:51:25.880,-0.5,0.035
20:51:25.884,-0.48,0.025
20:51:25.888,-0.49,0.01
20:51:25.892,-0.505,0.005
20:51:25.896,-0.525,0.015
20:51:25.900,-0.525,-0.01
20:51:25.904,-0.5,-0.01
20:51:25.908,-0.485,-0.045
20:51:25.912,-0.505,0.0
20:51:25.916,-0.5,-0.015
20:51:25.920,-0.505,0.0
20:51:25.924,-0.495,-0.02
20:51:25.928,-0.51,-0.015
20:51:25.932,-0.52,-0.04
20:51:25.936,-0.51,-0.02
20:51:25.940,-0.53,-0.02
20:51:25.944,-0.525,-0.045
20:51:25.948,-0.51,-0.07
20:51:25.952,-0.52,-0.075
20:51:25.956,-0.49,-0.08
20:51:25.960,-0.49,-0.09
20:51:25.964,-0.485,-0.12
20:51:25.968,-0.48,-0.11
20:51:25.972,-0.45,-0.13
20:51:25.976,-0.415,-0.125
20:51:25.980,-0.42,-0.145
20:51:25.984,-0.41,-0.15
20:51:25.988,-0.42,-0.155
20:51:25.992,-0.425,-0.16
20:51:25.996,-0.385,-0.155
20:51:26.000,-0.375,-0.135
20:51:26.004,-0.355,-0.145
20:51:26.008,-0.34,-0.155
20:51:26.012,-0.33,-0.16
20:51:26.016,-0.32,-0.155
20:51:26.020,-0.31,-0.15
20:51:26.024,-0.3,-0.13
20:51:26.028,-0.29,-0.14
20:51:26.032,-0.28,-0.135
20:51:26.036,-0.265,-0.135
20:51:26.040,-0.26,-0.12
20:51:26.044,-0.25,-0.175
20:51:26.048,-0.23,-0.18
20:51:26.052,-0.21,-0.185
20:51:26.056,-0.185,-0.19
20:51:26.060,-0.175,-0.205
20:51:26.064,-0.14,-0.175
20:51:26.068,-0.165,-0.16
20:51:26.072,-0.185,-0.15
20:51:26.076,-0.185,-0.145
20:51:26.080,-0.205,-0.135
20:51:26.084,-0.195,-0.13
20:51:26.088,-0.185,-0.16
20:51:26.092,-0.2,-0.145
20:51:26.096,-0.23,-0.16
20:51:26.100,-0.23,-0.17
20:51:26.104,-0.25,-0.185
20:51:26.108,-0.28,-0.185
20:51:26.112,-0.29,-0.195
20:51:26.116,-0.315,-0.19
20:51:26.120,-0.32,-0.225
20:51:26.124,-0.305,-0.23
20:51:26.128,-0.31,-0.24
20:51:26.132,-0.285,-0.245
20:51:26.136,-0.29,-0.235
20:51:26.140,-0.3,-0.24
20:51:26.144,-0.32,-0.235
20:51:26.148,-0.325,-0.255
20:51:26.152,-0.35,-0.255
20:51:26.156,-0.345,-0.265
20:51:26.160,-0.31,-0.28
20:51:26.164,-0.305,-0.27
20:51:26.168,-0.265,-0.31
20:51:26.172,-0.2,-0.285
20:51:26.176,-0.12,-0.305
20:51:26.180,-0.04,-0.33
20:51:26.184,0.045,-0.34
20:51:26.188,0.135,-0.39
20:51:26.192,0.225,-0.43
20:51:26.196,0.27,-0.45
20:51:26.200,0.325,-0.47
20:51:26.204,0.3,-0.565
20:51:26.208,0.305,-0.59
20:51:26.212,0.43,-0.7
20:51:26.216,0.735,-0.89
20:51:26.220,1.0,-1.105
20:51:26.224,1.105,-1.325
20:51:26.228,0.915,-1.43
20:51:26.232,0.465,-1.3
20:51:26.236,-0.015,-0.975
20:51:26.240,-0.265,-0.715
20:51:26.244,-0.37,-0.565
20:51:26.248,-0.39,-0.465
20:51:26.252,-0.385,-0.34
20:51:26.256,-0.395,-0.3
20:51:26.260,-0.42,-0.275
20:51:26.264,-0.415,-0.265
20:51:26.268,-0.445,-0.285
20:51:26.272,-0.445,-0.29
20:51:26.276,-0.44,-0.325
20:51:26.280,-0.445,-0.33
20:51:26.284,-0.44,-0.345
20:51:26.288,-0.44,-0.375
20:51:26.292,-0.43,-0.355
20:51:26.296,-0.41,-0.38
20:51:26.300,-0.39,-0.355
20:51:26.304,-0.38,-0.355
20:51:26.308,-0.37,-0.34
20:51:26.312,-0.38,-0.335
20:51:26.316,-0.4,-0.33
20:51:26.320,-0.425,-0.35
20:51:26.324,-0.42,-0.33
20:51:26.328,-0.425,-0.32
20:51:26.332,-0.425,-0.325
20:51:26.336,-0.45,-0.335
20:51:26.340,-0.49,-0.325
20:51:26.344,-0.47,-0.34
20:51:26.348,-0.485,-0.32
20:51:26.352,-0.495,-0.31
20:51:26.356,-0.49,-0.33
20:51:26.360,-0.505,-0.325
20:51:26.364,-0.48,-0.32
20:51:26.368,-0.5,-0.315
20:51:26.372,-0.525,-0.325
20:51:26.376,-0.53,-0.3
20:51:26.380,-0.535,-0.305
20:51:26.384,-0.515,-0.29
20:51:26.388,-0.52,-0.28
20:51:26.392,-0.51,-0.275
20:51:26.396,-0.48,-0.305
20:51:26.400,-0.47,-0.275
20:51:26.404,-0.455,-0.28
20:51:26.408,-0.445,-0.25
20:51:26.412,-0.42,-0.27
20:51:26.416,-0.425,-0.27
20:51:26.420,-0.395,-0.275
20:51:26.424,-0.39,-0.26
20:51:26.428,-0.405,-0.255
20:51:26.432,-0.37,-0.26
20:51:26.436,-0.35,-0.27
20:51:26.440,-0.34,-0.275
20:51:26.444,-0.31,-0.27
20:51:26.448,-0.305,-0.275
20:51:26.452,-0.3,-0.275
20:51:26.456,-0.305,-0.29
20:51:26.460,-0.28,-0.3
20:51:26.464,-0.285,-0.29
20:51:26.468,-0.27,-0.285
20:51:26.472,-0.25,-0.285
20:51:26.476,-0.245,-0.3
20:51:26.480,-0.225,-0.29
20:51:26.484,-0.225,-0.32
20:51:26.488,-0.22,-0.315
20:51:26.492,-0.225,-0.295
20:51:26.496,-0.225,-0.305
20:51:26.500,-0.225,-0.29
20:51:26.504,-0.23,-0.27
20:51:26.508,-0.23,-0.28
20:51:26.512,-0.2,-0.28
20:51:26.516,-0.2,-0.27
20:51:26.520,-0.2,-0.275
20:51:26.524,-0.175,-0.255
20:51:26.528,-0.16,-0.255
20:51:26.532,-0.16,-0.25
20:51:26.536,-0.16,-0.22
20:51:26.540,-0.17,-0.22
20:51:26.544,-0.195,-0.2
20:51:26.548,-0.18,-0.17
20:51:26.552,-0.185,-0.165
20:51:26.556,-0.19,-0.14
20:51:26.560,-0.225,-0.14
20:51:26.564,-0.235,-0.115
20:51:26.568,-0.22,-0.12
20:51:26.572,-0.235,-0.105
20:51:26.576,-0.255,-0.1
20:51:26.580,-0.23,-0.1
20:51:26.584,-0.25,-0.08
20:51:26.588,-0.265,-0.1
20:51:26.592,-0.26,-0.105
20:51:26.596,-0.275,-0.095
20:51:26.600,-0.27,-0.09
20:51:26.604,-0.28,-0.08
20:51:26.608,-0.26,-0.075
20:51:26.612,-0.275,-0.055
20:51:26.616,-0.24,-0.055
20:51:26.620,-0.215,-0.04
20:51:26.624,-0.205,-0.035
20:51:26.628,-0.175,-0.02
20:51:26.632,-0.16,-0.015
20:51:26.636,-0.145,-0.015
20:51:26.640,-0.14,-0.015
20:51:26.644,-0.14,-0.02
20:51:26.648,-0.125,0.005
20:51:26.652,-0.16,-0.01
20:51:26.656,-0.145,-0.01
20:51:26.660,-0.15,-0.015
20:51:26.664,-0.12,0.0
20:51:26.668,-0.105,0.0
20:51:26.672,-0.065,-0.01
20:51:26.676,-0.02,-0.005
20:51:26.680,0.045,-0.02
20:51:26.684,0.13,-0.03
20:51:26.688,0.2,-0.05
20:51:26.692,0.25,-0.115
20:51:26.696,0.3,-0.175
20:51:26.700,0.335,-0.21
20:51:26.704,0.35,-0.235
20:51:26.708,0.325,-0.28
20:51:26.712,0.35,-0.38
20:51:26.716,0.495,-0.525
20:51:26.720,0.745,-0.72
20:51:26.724,1.065,-0.99
20:51:26.728,1.225,-1.22
20:51:26.732,1.15,-1.38
20:51:26.736,0.755,-1.225
20:51:26.740,0.24,-0.88
20:51:26.744,-0.1,-0.55
20:51:26.748,-0.22,-0.34
20:51:26.752,-0.27,-0.205
20:51:26.756,-0.26,-0.115
20:51:26.760,-0.275,-0.04
20:51:26.764,-0.325,0.015
20:51:26.768,-0.335,0.06
20:51:26.772,-0.365,0.065
20:51:26.776,-0.39,0.065
20:51:26.780,-0.42,0.06
20:51:26.784,-0.43,0.08
20:51:26.788,-0.435,0.055
20:51:26.792,-0.435,0.045
20:51:26.796,-0.45,0.035
20:51:26.800,-0.45,0.045
20:51:26.804,-0.485,0.06
20:51:26.808,-0.475,0.045
20:51:26.812,-0.49,0.05
20:51:26.816,-0.48,0.055
20:51:26.820,-0.48,0.03
20:51:26.824,-0.48,0.04
20:51:26.828,-0.485,0.055
20:51:26.832,-0.49,0.055
20:51:26.836,-0.48,0.055
20:51:26.840,-0.475,0.075
20:51:26.844,-0.45,0.085
20:51:26.848,-0.44,0.08
20:51:26.852,-0.42,0.075
20:51:26.856,-0.42,0.11
20:51:26.860,-0.41,0.1
20:51:26.864,-0.385,0.1
20:51:26.868,-0.38,0.11
20:51:26.872,-0.395,0.11
20:51:26.876,-0.4,0.1
20:51:26.880,-0.4,0.135
20:51:26.884,-0.39,0.13
20:51:26.888,-0.4,0.125
20:51:26.892,-0.385,0.14
20:51:26.896,-0.385,0.105
20:51:26.900,-0.36,0.125
20:51:26.904,-0.36,0.115
20:51:26.908,-0.365,0.09
20:51:26.912,-0.345,0.09
20:51:26.916,-0.37,0.07
20:51:26.920,-0.35,0.08
20:51:26.924,-0.34,0.075
20:51:26.928,-0.36,0.075
20:51:26.932,-0.34,0.055
20:51:26.936,-0.33,0.025
20:51:26.940,-0.35,0.05
20:51:26.944,-0.33,0.035
20:51:26.948,-0.315,0.03
20:51:26.952,-0.305,0.01
20:51:26.956,-0.28,0.01
20:51:26.960,-0.3,0.015
20:51:26.964,-0.305,0.005
20:51:26.968,-0.29,0.0
20:51:26.972,-0.26,-0.015
20:51:26.976,-0.275,-0.015
20:51:26.980,-0.265,-0.01
20:51:26.984,-0.255,-0.035
20:51:26.988,-0.26,-0.035
20:51:26.992,-0.27,-0.035
20:51:26.996,-0.28,-0.045
20:51:27.000,-0.28,-0.015
20:51:27.004,-0.26,-0.035
20:51:27.008,-0.255,-0.02
20:51:27.012,-0.285,-0.035
20:51:27.016,-0.28,-0.02
20:51:27.020,-0.27,-0.015
20:51:27.024,-0.28,-0.01
20:51:27.028,-0.3,0.02
20:51:27.032,-0.335,0.005
20:51:27.036,-0.32,0.025
20:51:27.040,-0.32,0.01
20:51:27.044,-0.295,0.005
20:51:27.048,-0.275,0.0
20:51:27.052,-0.24,-0.015
20:51:27.056,-0.235,-0.04
20:51:27.060,-0.215,-0.03
20:51:27.064,-0.22,-0.04
20:51:27.068,-0.215,-0.005
20:51:27.072,-0.215,0.0
20:51:27.076,-0.215,0.01
20:51:27.080,-0.205,0.01
20:51:27.084,-0.205,0.015
20:51:27.088,-0.205,0.025
20:51:27.092,-0.185,0.03
20:51:27.096,-0.195,0.025
20:51:27.100,-0.185,0.015
20:51:27.104,-0.2,0.03
20:51:27.108,-0.21,0.045
20:51:27.112,-0.195,0.025
20:51:27.116,-0.18,0.02
20:51:27.120,-0.185,0.015
20:51:27.124,-0.19,0.03
20:51:27.128,-0.15,0.025
20:51:27.132,-0.16,0.035
20:51:27.136,-0.17,0.02
20:51:27.140,-0.165,0.015
20:51:27.144,-0.175,-0.01
20:51:27.148,-0.165,-0.015
20:51:27.152,-0.185,0.005
20:51:27.156,-0.185,0.005
20:51:27.160,-0.205,-0.005
20:51:27.164,-0.2,-0.02
20:51:27.168,-0.2,-0.015
20:51:27.172,-0.19,-0.005
20:51:27.176,-0.19,-0.015
20:51:27.180,-0.18,-0.015
20:51:27.184,-0.19,-0.02
20:51:27.188,-0.22,-0.02
20:51:27.192,-0.2,-0.015
20:51:27.196,-0.195,0.0
20:51:27.200,-0.205,-0.04
20:51:27.204,-0.19,-0.015
20:51:27.208,-0.14,-0.03
20:51:27.212,-0.08,-0.015
20:51:27.216,0.0,-0.035
20:51:27.220,0.08,-0.04
20:51:27.224,0.145,-0.085
20:51:27.228,0.16,-0.155
20:51:27.232,0.195,-0.16
20:51:27.236,0.21,-0.175
20:51:27.240,0.175,-0.205
20:51:27.244,0.17,-0.33
20:51:27.248,0.28,-0.455
20:51:27.252,0.525,-0.64
20:51:27.256,0.84,-0.905
20:51:27.260,1.065,-1.16
20:51:27.264,1.02,-1.285
20:51:27.268,0.66,-1.23
20:51:27.272,0.165,-0.89
20:51:27.276,-0.19,-0.5
20:51:27.280,-0.335,-0.24
20:51:27.284,-0.355,-0.09
20:51:27.288,-0.345,0.01
20:51:27.292,-0.345,0.115
20:51:27.296,-0.355,0.15
20:51:27.300,-0.35,0.195
20:51:27.304,-0.345,0.21
20:51:27.308,-0.33,0.205
20:51:27.312,-0.305,0.21
20:51:27.316,-0.29,0.2
20:51:27.320,-0.255,0.205
20:51:27.324,-0.275,0.18
20:51:27.328,-0.3,0.2
20:51:27.332,-0.295,0.17
20:51:27.336,-0.33,0.17
20:51:27.340,-0.31,0.14
20:51:27.344,-0.32,0.12
20:51:27.348,-0.33,0.105
20:51:27.352,-0.36,0.11
20:51:27.356,-0.33,0.115
20:51:27.360,-0.345,0.1
20:51:27.364,-0.34,0.09
20:51:27.368,-0.34,0.09
20:51:27.372,-0.345,0.095
20:51:27.376,-0.355,0.09
20:51:27.380,-0.39,0.065
20:51:27.384,-0.415,0.08
20:51:27.388,-0.41,0.065
20:51:27.392,-0.385,0.085
20:51:27.396,-0.375,0.08
20:51:27.400,-0.395,0.075
20:51:27.404,-0.38,0.08
20:51:27.408,-0.39,0.07
20:51:27.412,-0.39,0.075
20:51:27.416,-0.415,0.085
20:51:27.420,-0.395,0.11
20:51:27.424,-0.39,0.095
20:51:27.428,-0.4,0.105
20:51:27.432,-0.425,0.11
20:51:27.436,-0.42,0.095
20:51:27.440,-0.405,0.095
20:51:27.444,-0.41,0.11
20:51:27.448,-0.395,0.145
20:51:27.452,-0.395,0.14
20:51:27.456,-0.39,0.135
20:51:27.460,-0.395,0.13
20:51:27.464,-0.38,0.11
20:51:27.468,-0.405,0.105
20:51:27.472,-0.4,0.095
20:51:27.476,-0.38,0.085
20:51:27.480,-0.38,0.08
20:51:27.484,-0.37,0.075
20:51:27.488,-0.365,0.075
20:51:27.492,-0.35,0.08
20:51:27.496,-0.355,0.1
20:51:27.500,-0.355,0.12
20:51:27.504,-0.32,0.1
20:51:27.508,-0.295,0.1
20:51:27.512,-0.285,0.09
20:51:27.516,-0.24,0.095
20:51:27.520,-0.21,0.115
20:51:27.524,-0.225,0.1
20:51:27.528,-0.2,0.13
20:51:27.532,-0.19,0.145
20:51:27.536,-0.155,0.14
20:51:27.540,-0.145,0.165
20:51:27.544,-0.15,0.17
20:51:27.548,-0.135,0.18
20:51:27.552,-0.12,0.15
20:51:27.556,-0.105,0.155
20:51:27.560,-0.105,0.145
20:51:27.564,-0.1,0.13
20:51:27.568,-0.105,0.125
20:51:27.572,-0.095,0.12
20:51:27.576,-0.13,0.115
20:51:27.580,-0.13,0.105
20:51:27.584,-0.13,0.115
20:51:27.588,-0.145,0.11
20:51:27.592,-0.145,0.095
20:51:27.596,-0.15,0.095
20:51:27.600,-0.15,0.07
20:51:27.604,-0.185,0.08
20:51:27.608,-0.21,0.05
20:51:27.612,-0.225,0.06
20:51:27.616,-0.235,0.08
20:51:27.620,-0.26,0.06
20:51:27.624,-0.265,0.075
20:51:27.628,-0.255,0.06
20:51:27.632,-0.25,0.045
20:51:27.636,-0.245,0.06
20:51:27.640,-0.27,0.025
20:51:27.644,-0.27,0.04
20:51:27.648,-0.295,0.03
20:51:27.652,-0.28,0.05
20:51:27.656,-0.285,0.045
20:51:27.660,-0.305,0.035
20:51:27.664,-0.28,0.05
20:51:27.668,-0.265,0.03
20:51:27.672,-0.275,0.04
20:51:27.676,-0.26,0.025
20:51:27.680,-0.3,0.025
20:51:27.684,-0.295,0.01
20:51:27.688,-0.31,0.035
20:51:27.692,-0.32,0.02
20:51:27.696,-0.325,0.02
20:51:27.700,-0.325,0.01
20:51:27.704,-0.325,0.03
20:51:27.708,-0.32,0.0
20:51:27.712,-0.31,0.03
20:51:27.716,-0.28,0.005
20:51:27.720,-0.265,0.005
20:51:27.724,-0.25,0.02
20:51:27.728,-0.27,0.015
20:51:27.732,-0.25,0.005
20:51:27.736,-0.225,0.025
20:51:27.740,-0.22,0.04
20:51:27.744,-0.205,0.02
20:51:27.748,-0.19,0.035
20:51:27.752,-0.17,0.04
20:51:27.756,-0.155,0.065
20:51:27.760,-0.145,0.055
20:51:27.764,-0.12,0.075
20:51:27.768,-0.14,0.08
20:51:27.772,-0.115,0.085
20:51:27.776,-0.055,0.085
20:51:27.780,0.015,0.07
20:51:27.784,0.095,0.07
20:51:27.788,0.19,0.06
20:51:27.792,0.295,0.0
20:51:27.796,0.365,-0.055
20:51:27.800,0.405,-0.115
20:51:27.804,0.44,-0.16
20:51:27.808,0.5,-0.175
20:51:27.812,0.455,-0.235
20:51:27.816,0.47,-0.32
20:51:27.820,0.575,-0.43
20:51:27.824,0.82,-0.65
20:51:27.828,1.115,-0.885
20:51:27.832,1.275,-1.12
20:51:27.836,1.155,-1.265
20:51:27.840,0.745,-1.18
20:51:27.844,0.24,-0.84
20:51:27.848,-0.08,-0.575
20:51:27.852,-0.21,-0.36
20:51:27.856,-0.26,-0.24
20:51:27.860,-0.285,-0.135
20:51:27.864,-0.315,-0.05
20:51:27.868,-0.37,-0.005
20:51:27.872,-0.415,-0.01
20:51:27.876,-0.425,-0.015
20:51:27.880,-0.45,-0.01
20:51:27.884,-0.445,-0.04
20:51:27.888,-0.455,-0.05
20:51:27.892,-0.455,-0.055
20:51:27.896,-0.465,-0.07
20:51:27.900,-0.45,-0.075
20:51:27.904,-0.46,-0.065
20:51:27.908,-0.495,-0.055
20:51:27.912,-0.495,-0.075
20:51:27.916,-0.49,-0.075
20:51:27.920,-0.51,-0.05
20:51:27.924,-0.515,-0.075
20:51:27.928,-0.52,-0.075
20:51:27.932,-0.5,-0.075
20:51:27.936,-0.51,-0.1
20:51:27.940,-0.51,-0.075
20:51:27.944,-0.505,-0.08
20:51:27.948,-0.52,-0.07
20:51:27.952,-0.515,-0.08
20:51:27.956,-0.525,-0.08
20:51:27.960,-0.5,-0.07
20:51:27.964,-0.46,-0.06
20:51:27.968,-0.44,-0.08
20:51:27.972,-0.43,-0.085
20:51:27.976,-0.42,-0.055
20:51:27.980,-0.415,-0.045
20:51:27.984,-0.41,-0.035
20:51:27.988,-0.44,0.0
20:51:27.992,-0.455,0.005
20:51:27.996,-0.42,0.0
20:51:28.000,-0.44,0.0
20:51:28.004,-0.43,0.0
20:51:28.008,-0.43,-0.005
20:51:28.012,-0.395,-0.01
20:51:28.016,-0.36,-0.025
20:51:28.020,-0.365,-0.05
20:51:28.024,-0.35,-0.04
20:51:28.028,-0.33,-0.025
20:51:28.032,-0.345,-0.03
20:51:28.036,-0.34,-0.065
20:51:28.040,-0.32,-0.07
20:51:28.044,-0.33,-0.145
20:51:28.048,-0.325,-0.14
20:51:28.052,-0.33,-0.18
20:51:28.056,-0.34,-0.205
20:51:28.060,-0.335,-0.22
20:51:28.064,-0.31,-0.24
20:51:28.068,-0.315,-0.225
20:51:28.072,-0.295,-0.245
20:51:28.076,-0.3,-0.26
20:51:28.080,-0.3,-0.27
20:51:28.084,-0.29,-0.285
20:51:28.088,-0.285,-0.29
20:51:28.092,-0.315,-0.305
20:51:28.096,-0.265,-0.305
20:51:28.100,-0.28,-0.3
20:51:28.104,-0.3,-0.295
20:51:28.108,-0.265,-0.315
20:51:28.112,-0.29,-0.32
20:51:28.116,-0.32,-0.29
20:51:28.120,-0.32,-0.28
20:51:28.124,-0.31,-0.28
20:51:28.128,-0.31,-0.27
20:51:28.132,-0.32,-0.26
20:51:28.136,-0.305,-0.26
20:51:28.140,-0.32,-0.25
20:51:28.144,-0.315,-0.265
20:51:28.148,-0.32,-0.26
20:51:28.152,-0.325,-0.235
20:51:28.156,-0.305,-0.245
20:51:28.160,-0.315,-0.225
20:51:28.164,-0.29,-0.23
20:51:28.168,-0.295,-0.215
20:51:28.172,-0.275,-0.235
20:51:28.176,-0.255,-0.22
20:51:28.180,-0.25,-0.2
20:51:28.184,-0.22,-0.19
20:51:28.188,-0.205,-0.195
20:51:28.192,-0.18,-0.185
20:51:28.196,-0.175,-0.16
20:51:28.200,-0.17,-0.13
20:51:28.204,-0.17,-0.12
20:51:28.208,-0.18,-0.11
20:51:28.212,-0.2,-0.11
20:51:28.216,-0.2,-0.06
20:51:28.220,-0.185,-0.055
20:51:28.224,-0.185,-0.055
20:51:28.228,-0.18,-0.06
20:51:28.232,-0.195,-0.055
20:51:28.236,-0.18,-0.06
20:51:28.240,-0.18,-0.07
20:51:28.244,-0.19,-0.05
20:51:28.248,-0.16,-0.045
20:51:28.252,-0.14,-0.05
20:51:28.256,-0.13,-0.045
20:51:28.260,-0.1,-0.045
20:51:28.264,-0.08,-0.04
20:51:28.268,-0.11,-0.065
20:51:28.272,-0.12,-0.065
20:51:28.276,-0.105,-0.065
20:51:28.280,-0.105,-0.08
20:51:28.284,-0.125,-0.1
20:51:28.288,-0.11,-0.12
20:51:28.292,-0.135,-0.125
20:51:28.296,-0.14,-0.11
20:51:28.300,-0.16,-0.12
20:51:28.304,-0.135,-0.115
20:51:28.308,-0.145,-0.1
20:51:28.312,-0.15,-0.1
20:51:28.316,-0.135,-0.105
20:51:28.320,-0.16,-0.115
20:51:28.324,-0.16,-0.095
20:51:28.328,-0.16,-0.08
20:51:28.332,-0.165,-0.095
20:51:28.336,-0.175,-0.1
20:51:28.340,-0.195,-0.075
20:51:28.344,-0.215,-0.095
20:51:28.348,-0.245,-0.095
20:51:28.352,-0.24,-0.055
20:51:28.356,-0.265,-0.06
20:51:28.360,-0.26,-0.065
20:51:28.364,-0.28,-0.055
20:51:28.368,-0.27,-0.045
20:51:28.372,-0.275,-0.06
20:51:28.376,-0.285,-0.06
20:51:28.380,-0.285,-0.04
20:51:28.384,-0.275,-0.015
20:51:28.388,-0.27,-0.02
20:51:28.392,-0.3,0.0
20:51:28.396,-0.27,-0.005
20:51:28.400,-0.245,-0.02
20:51:28.404,-0.215,0.015
20:51:28.408,-0.18,0.015
20:51:28.412,-0.14,0.02
20:51:28.416,-0.13,0.025
20:51:28.420,-0.11,0.035
20:51:28.424,-0.1,0.035
20:51:28.428,-0.105,0.065
20:51:28.432,-0.095,0.095
20:51:28.436,-0.13,0.07
20:51:28.440,-0.13,0.11
20:51:28.444,-0.125,0.125
20:51:28.448,-0.11,0.115
20:51:28.452,-0.115,0.12
20:51:28.456,-0.12,0.12
20:51:28.460,-0.115,0.13
20:51:28.464,-0.11,0.13
20:51:28.468,-0.11,0.115
20:51:28.472,-0.08,0.115
20:51:28.476,-0.075,0.105
20:51:28.480,-0.08,0.075
20:51:28.484,-0.08,0.07
20:51:28.488,-0.07,0.035
20:51:28.492,-0.085,0.04
20:51:28.496,-0.11,0.04
20:51:28.500,-0.11,0.015
20:51:28.504,-0.105,0.015
20:51:28.508,-0.09,0.0
20:51:28.512,-0.11,-0.01
20:51:28.516,-0.1,0.0
20:51:28.520,-0.135,0.0
20:51:28.524,-0.105,0.0
20:51:28.528,-0.12,-0.005
20:51:28.532,-0.15,0.01
20:51:28.536,-0.125,-0.005
20:51:28.540,-0.16,-0.02
20:51:28.544,-0.155,-0.04
20:51:28.548,-0.16,-0.02
20:51:28.552,-0.155,-0.035
20:51:28.556,-0.185,-0.04
20:51:28.560,-0.19,-0.025
20:51:28.564,-0.18,-0.005
20:51:28.568,-0.215,-0.035
20:51:28.572,-0.2,-0.025
20:51:28.576,-0.225,-0.02
20:51:28.580,-0.22,-0.015
20:51:28.584,-0.24,-0.025
20:51:28.588,-0.23,-0.03
20:51:28.592,-0.225,-0.05
20:51:28.596,-0.2,-0.025
20:51:28.600,-0.15,-0.025
20:51:28.604,-0.1,-0.04
20:51:28.608,-0.025,-0.035
20:51:28.612,0.075,-0.05
20:51:28.616,0.165,-0.07
20:51:28.620,0.23,-0.125
20:51:28.624,0.275,-0.18
20:51:28.628,0.32,-0.175
20:51:28.632,0.325,-0.19
20:51:28.636,0.32,-0.25
20:51:28.640,0.385,-0.335
20:51:28.644,0.565,-0.51
20:51:28.648,0.865,-0.71
20:51:28.652,1.19,-0.98
20:51:28.656,1.33,-1.19
20:51:28.660,1.22,-1.245
20:51:28.664,0.81,-1.045
20:51:28.668,0.28,-0.64
20:51:28.672,-0.03,-0.3
20:51:28.676,-0.16,-0.08
20:51:28.680,-0.2,0.04
20:51:28.684,-0.22,0.12
20:51:28.688,-0.22,0.195
20:51:28.692,-0.235,0.215
20:51:28.696,-0.245,0.18
20:51:28.700,-0.255,0.16
20:51:28.704,-0.26,0.12
20:51:28.708,-0.275,0.1
20:51:28.712,-0.285,0.11
20:51:28.716,-0.285,0.095
20:51:28.720,-0.31,0.08
20:51:28.724,-0.275,0.08
20:51:28.728,-0.3,0.09
20:51:28.732,-0.315,0.09
20:51:28.736,-0.33,0.095
20:51:28.740,-0.34,0.1
20:51:28.744,-0.345,0.085
20:51:28.748,-0.335,0.095
20:51:28.752,-0.33,0.085
20:51:28.756,-0.35,0.085
20:51:28.760,-0.37,0.08
20:51:28.764,-0.365,0.075
20:51:28.768,-0.37,0.09
20:51:28.772,-0.375,0.09
20:51:28.776,-0.395,0.075
20:51:28.780,-0.405,0.07
20:51:28.784,-0.42,0.055
20:51:28.788,-0.445,0.08
20:51:28.792,-0.42,0.075
20:51:28.796,-0.46,0.07
20:51:28.800,-0.475,0.065
20:51:28.804,-0.48,0.07
20:51:28.808,-0.48,0.09
20:51:28.812,-0.49,0.1
20:51:28.816,-0.495,0.07
20:51:28.820,-0.505,0.09
20:51:28.824,-0.52,0.08
20:51:28.828,-0.515,0.08
20:51:28.832,-0.51,0.08
20:51:28.836,-0.495,0.095
20:51:28.840,-0.51,0.075
20:51:28.844,-0.485,0.09
20:51:28.848,-0.48,0.065
20:51:28.852,-0.45,0.055
20:51:28.856,-0.435,0.055
20:51:28.860,-0.405,0.06
20:51:28.864,-0.38,0.06
20:51:28.868,-0.37,0.065
20:51:28.872,-0.36,0.06
20:51:28.876,-0.36,0.065
20:51:28.880,-0.32,0.08
20:51:28.884,-0.325,0.065
20:51:28.888,-0.305,0.08
20:51:28.892,-0.275,0.065
20:51:28.896,-0.255,0.075
20:51:28.900,-0.245,0.045
20:51:28.904,-0.23,0.045
20:51:28.908,-0.245,0.005
20:51:28.912,-0.235,0.0
20:51:28.916,-0.26,-0.005
20:51:28.920,-0.255,-0.025
20:51:28.924,-0.255,-0.035
20:51:28.928,-0.245,-0.045
20:51:28.932,-0.215,-0.05
20:51:28.936,-0.2,-0.04
20:51:28.940,-0.21,-0.035
20:51:28.944,-0.2,-0.045
20:51:28.948,-0.2,-0.035
20:51:28.952,-0.205,-0.02
20:51:28.956,-0.18,-0.04
20:51:28.960,-0.195,0.0
20:51:28.964,-0.205,0.0
20:51:28.968,-0.205,-0.015
20:51:28.972,-0.2,-0.025
20:51:28.976,-0.2,0.0
20:51:28.980,-0.215,0.0
20:51:28.984,-0.23,0.0
20:51:28.988,-0.265,0.005
20:51:28.992,-0.26,0.005
20:51:28.996,-0.25,0.005
20:51:29.000,-0.26,0.01
20:51:29.004,-0.285,0.0
20:51:29.008,-0.29,-0.01
20:51:29.012,-0.285,-0.015
20:51:29.016,-0.295,0.0
20:51:29.020,-0.285,-0.025
20:51:29.024,-0.285,-0.01
20:51:29.028,-0.31,-0.02
20:51:29.032,-0.34,0.0
20:51:29.036,-0.32,-0.035
20:51:29.040,-0.345,-0.01
20:51:29.044,-0.33,-0.02
20:51:29.048,-0.33,-0.03
20:51:29.052,-0.335,-0.01
20:51:29.056,-0.33,0.0
20:51:29.060,-0.315,0.0
20:51:29.064,-0.32,0.0
20:51:29.068,-0.315,-0.01
20:51:29.072,-0.28,0.0
20:51:29.076,-0.255,-0.025
20:51:29.080,-0.18,-0.04
20:51:29.084,-0.11,-0.04
20:51:29.088,-0.01,-0.025
20:51:29.092,0.085,-0.035
20:51:29.096,0.135,-0.075
20:51:29.100,0.165,-0.1
20:51:29.104,0.195,-0.125
20:51:29.108,0.19,-0.115
20:51:29.112,0.17,-0.135
20:51:29.116,0.165,-0.22
20:51:29.120,0.285,-0.355
20:51:29.124,0.53,-0.535
20:51:29.128,0.89,-0.775
20:51:29.132,1.18,-1.06
20:51:29.136,1.255,-1.265
20:51:29.140,1.035,-1.265
20:51:29.144,0.565,-1.01
20:51:29.148,0.09,-0.645
20:51:29.152,-0.135,-0.31
20:51:29.156,-0.245,-0.155
20:51:29.160,-0.27,-0.065
20:51:29.164,-0.28,0.0
20:51:29.168,-0.285,0.045
20:51:29.172,-0.295,0.05
20:51:29.176,-0.315,0.05
20:51:29.180,-0.335,0.075
20:51:29.184,-0.34,0.055
20:51:29.188,-0.35,0.05
20:51:29.192,-0.39,0.065
20:51:29.196,-0.39,0.055
20:51:29.200,-0.41,0.065
20:51:29.204,-0.4,0.055
20:51:29.208,-0.415,0.06
20:51:29.212,-0.43,0.055
20:51:29.216,-0.43,0.065
20:51:29.220,-0.46,0.07
20:51:29.224,-0.455,0.06
20:51:29.228,-0.455,0.08
20:51:29.232,-0.455,0.075
20:51:29.236,-0.47,0.05
20:51:29.240,-0.485,0.065
20:51:29.244,-0.515,0.075
20:51:29.248,-0.515,0.065
20:51:29.252,-0.53,0.095
20:51:29.256,-0.545,0.1
20:51:29.260,-0.565,0.1
20:51:29.264,-0.56,0.11
20:51:29.268,-0.585,0.105
20:51:29.272,-0.575,0.125
20:51:29.276,-0.585,0.135
20:51:29.280,-0.57,0.125
20:51:29.284,-0.58,0.125
20:51:29.288,-0.59,0.125
20:51:29.292,-0.585,0.135
20:51:29.296,-0.555,0.15
20:51:29.300,-0.56,0.125
20:51:29.304,-0.52,0.135
20:51:29.308,-0.52,0.165
20:51:29.312,-0.475,0.145
20:51:29.316,-0.46,0.145
20:51:29.320,-0.465,0.15
20:51:29.324,-0.42,0.135
20:51:29.328,-0.405,0.145
20:51:29.332,-0.385,0.15
20:51:29.336,-0.36,0.125
20:51:29.340,-0.375,0.155
20:51:29.344,-0.34,0.175
20:51:29.348,-0.34,0.175
20:51:29.352,-0.32,0.18
20:51:29.356,-0.295,0.18
20:51:29.360,-0.285,0.17
20:51:29.364,-0.25,0.175
20:51:29.368,-0.26,0.14
20:51:29.372,-0.245,0.155
20:51:29.376,-0.215,0.125
20:51:29.380,-0.19,0.105
20:51:29.384,-0.155,0.08
20:51:29.388,-0.155,0.07
20:51:29.392,-0.155,0.05
20:51:29.396,-0.155,0.055
20:51:29.400,-0.145,0.06
20:51:29.404,-0.13,0.05
20:51:29.408,-0.16,0.04
20:51:29.412,-0.145,0.055
20:51:29.416,-0.15,0.045
20:51:29.420,-0.185,0.05
20:51:29.424,-0.215,0.055
20:51:29.428,-0.22,0.07
20:51:29.432,-0.23,0.035
20:51:29.436,-0.22,0.045
20:51:29.440,-0.24,0.04
20:51:29.444,-0.255,0.07
20:51:29.448,-0.27,0.075
20:51:29.452,-0.28,0.06
20:51:29.456,-0.305,0.035
20:51:29.460,-0.32,0.05
20:51:29.464,-0.32,0.025
20:51:29.468,-0.34,0.035
20:51:29.472,-0.35,0.02
20:51:29.476,-0.38,0.04
20:51:29.480,-0.4,0.05
20:51:29.484,-0.395,0.025
20:51:29.488,-0.39,0.035
20:51:29.492,-0.39,0.035
20:51:29.496,-0.365,0.045
20:51:29.500,-0.345,0.03
20:51:29.504,-0.355,0.02
20:51:29.508,-0.335,0.045
20:51:29.512,-0.275,0.02
20:51:29.516,-0.205,0.03
20:51:29.520,-0.105,0.01
20:51:29.524,-0.015,-0.015
20:51:29.528,0.065,-0.055
20:51:29.532,0.155,-0.1
20:51:29.536,0.205,-0.165
20:51:29.540,0.235,-0.155
20:51:29.544,0.265,-0.185
20:51:29.548,0.275,-0.24
20:51:29.552,0.395,-0.335
20:51:29.556,0.685,-0.525
20:51:29.560,1.04,-0.77
20:51:29.564,1.25,-1.0
20:51:29.568,1.18,-1.16
20:51:29.572,0.79,-1.085
20:51:29.576,0.295,-0.745
20:51:29.580,-0.045,-0.415
20:51:29.584,-0.215,-0.2
20:51:29.588,-0.26,-0.08
20:51:29.592,-0.26,0.025
20:51:29.596,-0.27,0.085
20:51:29.600,-0.275,0.12
20:51:29.604,-0.295,0.13
20:51:29.608,-0.31,0.12
20:51:29.612,-0.3,0.1
20:51:29.616,-0.285,0.05
20:51:29.620,-0.285,0.015
20:51:29.624,-0.275,-0.01
20:51:29.628,-0.295,0.0
20:51:29.632,-0.34,-0.02
20:51:29.636,-0.36,-0.035
20:51:29.640,-0.4,-0.055
20:51:29.644,-0.415,-0.06
20:51:29.648,-0.435,-0.065
20:51:29.652,-0.435,-0.04
20:51:29.656,-0.435,-0.055
20:51:29.660,-0.445,-0.055
20:51:29.664,-0.455,-0.06
20:51:29.668,-0.49,-0.085
20:51:29.672,-0.515,-0.1
20:51:29.676,-0.525,-0.08
20:51:29.680,-0.53,-0.065
20:51:29.684,-0.565,-0.095
20:51:29.688,-0.56,-0.1
20:51:29.692,-0.565,-0.095
20:51:29.696,-0.575,-0.1
20:51:29.700,-0.605,-0.125
20:51:29.704,-0.61,-0.12
20:51:29.708,-0.6,-0.08
20:51:29.712,-0.59,-0.085
20:51:29.716,-0.58,-0.095
20:51:29.720,-0.6,-0.095
20:51:29.724,-0.61,-0.09
20:51:29.728,-0.585,-0.09
20:51:29.732,-0.585,-0.075
20:51:29.736,-0.56,-0.09
20:51:29.740,-0.555,-0.09
20:51:29.744,-0.535,-0.09
20:51:29.748,-0.545,-0.06
20:51:29.752,-0.53,-0.08
20:51:29.756,-0.505,-0.1
20:51:29.760,-0.465,-0.08
20:51:29.764,-0.455,-0.085
20:51:29.768,-0.455,-0.1
20:51:29.772,-0.43,-0.115
20:51:29.776,-0.415,-0.115
20:51:29.780,-0.4,-0.13
20:51:29.784,-0.39,-0.125
20:51:29.788,-0.355,-0.13
20:51:29.792,-0.335,-0.125
20:51:29.796,-0.33,-0.115
20:51:29.800,-0.31,-0.145
20:51:29.804,-0.295,-0.125
20:51:29.808,-0.3,-0.13
20:51:29.812,-0.27,-0.115
20:51:29.816,-0.255,-0.14
20:51:29.820,-0.22,-0.125
20:51:29.824,-0.185,-0.155
20:51:29.828,-0.17,-0.165
20:51:29.832,-0.18,-0.195
20:51:29.836,-0.18,-0.185
20:51:29.840,-0.165,-0.2
20:51:29.844,-0.17,-0.21
20:51:29.848,-0.17,-0.2
20:51:29.852,-0.185,-0.225
20:51:29.856,-0.185,-0.245
20:51:29.860,-0.185,-0.23
20:51:29.864,-0.195,-0.235
20:51:29.868,-0.22,-0.23
20:51:29.872,-0.22,-0.21
20:51:29.876,-0.26,-0.235
20:51:29.880,-0.27,-0.235
20:51:29.884,-0.265,-0.225
20:51:29.888,-0.305,-0.23
20:51:29.892,-0.295,-0.22
20:51:29.896,-0.3,-0.22
20:51:29.900,-0.305,-0.21
20:51:29.904,-0.295,-0.23
20:51:29.908,-0.285,-0.235
20:51:29.912,-0.245,-0.225
20:51:29.916,-0.2,-0.225
20:51:29.920,-0.115,-0.24
20:51:29.924,-0.03,-0.26
20:51:29.928,0.025,-0.29
20:51:29.932,0.08,-0.335
20:51:29.936,0.115,-0.355
20:51:29.940,0.135,-0.345
20:51:29.944,0.125,-0.37
20:51:29.948,0.125,-0.435
20:51:29.952,0.24,-0.505
20:51:29.956,0.515,-0.67
20:51:29.960,0.835,-0.915
20:51:29.964,1.07,-1.17
20:51:29.968,1.065,-1.345
20:51:29.972,0.81,-1.32
20:51:29.976,0.33,-1.02
20:51:29.980,-0.08,-0.67
20:51:29.984,-0.245,-0.43
20:51:29.988,-0.365,-0.3
20:51:29.992,-0.375,-0.165
20:51:29.996,-0.38,-0.08
20:51:30.000,-0.415,-0.05
20:51:30.004,-0.42,-0.045
20:51:30.008,-0.435,-0.01
20:51:30.012,-0.45,0.005
20:51:30.016,-0.455,-0.01
20:51:30.020,-0.46,0.0
20:51:30.024,-0.45,0.01
20:51:30.028,-0.415,-0.025
20:51:30.032,-0.385,-0.015
20:51:30.036,-0.39,-0.035
20:51:30.040,-0.39,-0.035
20:51:30.044,-0.405,-0.045
20:51:30.048,-0.41,-0.025
20:51:30.052,-0.4,-0.065
20:51:30.056,-0.42,-0.055
20:51:30.060,-0.45,-0.055
20:51:30.064,-0.44,-0.045
20:51:30.068,-0.445,-0.05
20:51:30.072,-0.455,-0.035
20:51:30.076,-0.455,0.0
20:51:30.080,-0.475,-0.01
20:51:30.084,-0.48,-0.01
20:51:30.088,-0.49,-0.005
20:51:30.092,-0.515,-0.025
20:51:30.096,-0.53,0.0
20:51:30.100,-0.54,0.005
20:51:30.104,-0.545,0.02
20:51:30.108,-0.555,0.005
20:51:30.112,-0.55,0.01
20:51:30.116,-0.56,0.015
20:51:30.120,-0.56,0.0
20:51:30.124,-0.565,0.0
20:51:30.128,-0.585,0.0
20:51:30.132,-0.57,0.02
20:51:30.136,-0.555,0.005
20:51:30.140,-0.555,0.0
20:51:30.144,-0.54,0.0
20:51:30.148,-0.54,0.0
20:51:30.152,-0.52,-0.005
20:51:30.156,-0.52,-0.005
20:51:30.160,-0.505,-0.005
20:51:30.164,-0.475,-0.01
20:51:30.168,-0.48,-0.015
20:51:30.172,-0.465,-0.01
20:51:30.176,-0.455,-0.005
20:51:30.180,-0.405,-0.005
20:51:30.184,-0.39,-0.01
20:51:30.188,-0.355,-0.025
20:51:30.192,-0.35,-0.04
20:51:30.196,-0.32,-0.03
20:51:30.200,-0.28,-0.01
20:51:30.204,-0.27,-0.025
20:51:30.208,-0.27,-0.025
20:51:30.212,-0.24,-0.03
20:51:30.216,-0.235,-0.035
20:51:30.220,-0.215,-0.03
20:51:30.224,-0.21,-0.03
20:51:30.228,-0.185,-0.015
20:51:30.232,-0.19,0.0
20:51:30.236,-0.215,0.0
20:51:30.240,-0.24,0.0
20:51:30.244,-0.245,0.005
20:51:30.248,-0.23,0.0
20:51:30.252,-0.265,-0.01
20:51:30.256,-0.255,0.0
20:51:30.260,-0.25,-0.015
20:51:30.264,-0.235,-0.005
20:51:30.268,-0.25,0.0
20:51:30.272,-0.235,-0.03
20:51:30.276,-0.245,-0.04
20:51:30.280,-0.225,-0.065
20:51:30.284,-0.23,-0.075
20:51:30.288,-0.24,-0.07
20:51:30.292,-0.26,-0.1
20:51:30.296,-0.285,-0.11
20:51:30.300,-0.285,-0.1
20:51:30.304,-0.285,-0.12
20:51:30.308,-0.305,-0.085
20:51:30.312,-0.315,-0.125
20:51:30.316,-0.34,-0.11
20:51:30.320,-0.345,-0.095
20:51:30.324,-0.37,-0.1
20:51:30.328,-0.34,-0.1
20:51:30.332,-0.305,-0.1
20:51:30.336,-0.27,-0.1
20:51:30.340,-0.2,-0.11
20:51:30.344,-0.115,-0.125
20:51:30.348,-0.04,-0.135
20:51:30.352,0.0,-0.165
20:51:30.356,0.05,-0.23
20:51:30.360,0.08,-0.24
20:51:30.364,0.09,-0.27
20:51:30.368,0.14,-0.325
20:51:30.372,0.11,-0.405
20:51:30.376,0.21,-0.505
20:51:30.380,0.455,-0.675
20:51:30.384,0.77,-0.925
20:51:30.388,1.03,-1.15
20:51:30.392,1.095,-1.355
20:51:30.396,0.865,-1.345
20:51:30.400,0.37,-1.035
20:51:30.404,-0.075,-0.65
20:51:30.408,-0.28,-0.375
20:51:30.412,-0.36,-0.225
20:51:30.416,-0.37,-0.105
20:51:30.420,-0.375,-0.025
20:51:30.424,-0.37,0.03
20:51:30.428,-0.38,0.05
20:51:30.432,-0.37,0.075
20:51:30.436,-0.36,0.09
20:51:30.440,-0.36,0.075
20:51:30.444,-0.37,0.065
20:51:30.448,-0.37,0.075
20:51:30.452,-0.37,0.065
20:51:30.456,-0.36,0.08
20:51:30.460,-0.37,0.09
20:51:30.464,-0.4,0.065
20:51:30.468,-0.405,0.09
20:51:30.472,-0.42,0.09
20:51:30.476,-0.435,0.09
20:51:30.480,-0.43,0.08
20:51:30.484,-0.42,0.075
20:51:30.488,-0.425,0.075
20:51:30.492,-0.455,0.08
20:51:30.496,-0.47,0.075
20:51:30.500,-0.465,0.09
20:51:30.504,-0.515,0.075
20:51:30.508,-0.505,0.05
20:51:30.512,-0.49,0.05
20:51:30.516,-0.49,0.055
20:51:30.520,-0.46,0.04
20:51:30.524,-0.455,0.03
20:51:30.528,-0.45,0.005
20:51:30.532,-0.455,0.01
20:51:30.536,-0.455,-0.015
20:51:30.540,-0.455,0.005
20:51:30.544,-0.45,-0.02
20:51:30.548,-0.46,-0.025
20:51:30.552,-0.47,0.0
20:51:30.556,-0.465,-0.01
20:51:30.560,-0.465,-0.025
20:51:30.564,-0.46,-0.04
20:51:30.568,-0.47,-0.02
20:51:30.572,-0.45,-0.04
20:51:30.576,-0.445,-0.06
20:51:30.580,-0.465,-0.065
20:51:30.584,-0.48,-0.045
20:51:30.588,-0.48,-0.075
20:51:30.592,-0.46,-0.06
20:51:30.596,-0.46,-0.06
20:51:30.600,-0.465,-0.08
20:51:30.604,-0.445,-0.075
20:51:30.608,-0.425,-0.08
20:51:30.612,-0.41,-0.09
20:51:30.616,-0.375,-0.095
20:51:30.620,-0.36,-0.085
20:51:30.624,-0.335,-0.095
20:51:30.628,-0.305,-0.09
20:51:30.632,-0.295,-0.095
20:51:30.636,-0.295,-0.085
20:51:30.640,-0.225,-0.085
20:51:30.644,-0.22,-0.06
20:51:30.648,-0.205,-0.055
20:51:30.652,-0.185,-0.05
20:51:30.656,-0.185,-0.045
20:51:30.660,-0.185,-0.04
20:51:30.664,-0.175,-0.02
20:51:30.668,-0.18,-0.015
20:51:30.672,-0.175,0.005
20:51:30.676,-0.17,-0.01
20:51:30.680,-0.195,0.0
20:51:30.684,-0.2,0.005
20:51:30.688,-0.24,0.01
20:51:30.692,-0.23,0.0
20:51:30.696,-0.245,-0.01
20:51:30.700,-0.24,0.02
20:51:30.704,-0.25,0.005
20:51:30.708,-0.275,0.005
20:51:30.712,-0.285,0.005
20:51:30.716,-0.28,0.0
20:51:30.720,-0.285,0.0
20:51:30.724,-0.305,-0.02
20:51:30.728,-0.295,-0.01
20:51:30.732,-0.315,-0.055
20:51:30.736,-0.31,-0.05
20:51:30.740,-0.31,-0.045
20:51:30.744,-0.315,-0.07
20:51:30.748,-0.305,-0.06
20:51:30.752,-0.295,-0.065
20:51:30.756,-0.295,-0.085
20:51:30.760,-0.305,-0.07
20:51:30.764,-0.305,-0.085
20:51:30.768,-0.3,-0.095
20:51:30.772,-0.285,-0.09
20:51:30.776,-0.3,-0.105
20:51:30.780,-0.3,-0.085
20:51:30.784,-0.3,-0.09
20:51:30.788,-0.3,-0.075
20:51:30.792,-0.305,-0.12
20:51:30.796,-0.295,-0.08
20:51:30.800,-0.31,-0.095
20:51:30.804,-0.305,-0.075
20:51:30.808,-0.285,-0.105
20:51:30.812,-0.305,-0.09
20:51:30.816,-0.29,-0.095
20:51:30.820,-0.275,-0.135
20:51:30.824,-0.295,-0.095
20:51:30.828,-0.295,-0.105
20:51:30.832,-0.3,-0.115
20:51:30.836,-0.3,-0.115
20:51:30.840,-0.305,-0.105
20:51:30.844,-0.305,-0.12
20:51:30.848,-0.295,-0.12
20:51:30.852,-0.255,-0.125
20:51:30.856,-0.275,-0.1
20:51:30.860,-0.26,-0.105
20:51:30.864,-0.265,-0.115
20:51:30.868,-0.255,-0.1
20:51:30.872,-0.24,-0.075
20:51:30.876,-0.235,-0.075
20:51:30.880,-0.225,-0.04
20:51:30.884,-0.225,-0.05
20:51:30.888,-0.23,-0.065
20:51:30.892,-0.23,-0.05
20:51:30.896,-0.245,-0.045
20:51:30.900,-0.225,-0.05
20:51:30.904,-0.24,-0.06
20:51:30.908,-0.23,-0.05
20:51:30.912,-0.24,-0.03
20:51:30.916,-0.25,-0.07
20:51:30.920,-0.26,-0.065
20:51:30.924,-0.27,-0.05
20:51:30.928,-0.295,-0.025
20:51:30.932,-0.27,-0.05
20:51:30.936,-0.27,-0.06
20:51:30.940,-0.24,-0.085
20:51:30.944,-0.25,-0.075
20:51:30.948,-0.235,-0.105
20:51:30.952,-0.265,-0.12
20:51:30.956,-0.285,-0.145
20:51:30.960,-0.315,-0.14
20:51:30.964,-0.335,-0.13
20:51:30.968,-0.32,-0.15
20:51:30.972,-0.33,-0.14
20:51:30.976,-0.34,-0.145
20:51:30.980,-0.31,-0.165
20:51:30.984,-0.305,-0.15
20:51:30.988,-0.295,-0.155
20:51:30.992,-0.28,-0.15
20:51:30.996,-0.275,-0.14
20:51:31.000,-0.29,-0.125
20:51:31.004,-0.285,-0.11
20:51:31.008,-0.275,-0.095
20:51:31.012,-0.28,-0.1
20:51:31.016,-0.27,-0.105
20:51:31.020,-0.26,-0.08
20:51:31.024,-0.23,-0.11
20:51:31.028,-0.155,-0.085
20:51:31.032,-0.07,-0.08
20:51:31.036,0.005,-0.11
20:51:31.040,0.1,-0.11
20:51:31.044,0.125,-0.17
20:51:31.048,0.14,-0.205
20:51:31.052,0.18,-0.19
20:51:31.056,0.17,-0.25
20:51:31.060,0.17,-0.33
20:51:31.064,0.225,-0.445
20:51:31.068,0.4,-0.61
20:51:31.072,0.685,-0.85
20:51:31.076,1.005,-1.105
20:51:31.080,1.185,-1.335
20:51:31.084,1.03,-1.41
20:51:31.088,0.62,-1.195
20:51:31.092,0.14,-0.785
20:51:31.096,-0.145,-0.415
20:51:31.100,-0.28,-0.21
20:51:31.104,-0.34,-0.06
20:51:31.108,-0.355,0.035
20:51:31.112,-0.36,0.1
20:51:31.116,-0.38,0.12
20:51:31.120,-0.41,0.155
20:51:31.124,-0.455,0.165
20:51:31.128,-0.46,0.175
20:51:31.132,-0.46,0.15
20:51:31.136,-0.48,0.12
20:51:31.140,-0.495,0.135
20:51:31.144,-0.5,0.12
20:51:31.148,-0.51,0.105
20:51:31.152,-0.505,0.075
20:51:31.156,-0.51,0.06
20:51:31.160,-0.51,0.04
20:51:31.164,-0.535,0.02
20:51:31.168,-0.535,0.005
20:51:31.172,-0.555,0.0
20:51:31.176,-0.555,-0.015
20:51:31.180,-0.55,-0.03
20:51:31.184,-0.57,-0.045
20:51:31.188,-0.575,-0.04
20:51:31.192,-0.55,-0.035
20:51:31.196,-0.575,-0.04
20:51:31.200,-0.575,-0.03
20:51:31.204,-0.565,-0.025
20:51:31.208,-0.58,-0.025
20:51:31.212,-0.57,-0.025
20:51:31.216,-0.56,-0.015
20:51:31.220,-0.56,-0.02
20:51:31.224,-0.555,-0.04
20:51:31.228,-0.555,-0.015
20:51:31.232,-0.535,-0.02
20:51:31.236,-0.56,-0.02
20:51:31.240,-0.55,-0.015
20:51:31.244,-0.56,-0.025
20:51:31.248,-0.565,-0.005
20:51:31.252,-0.57,-0.025
20:51:31.256,-0.55,-0.03
20:51:31.260,-0.53,0.0
20:51:31.264,-0.54,-0.015
20:51:31.268,-0.54,0.0
20:51:31.272,-0.54,-0.01
20:51:31.276,-0.525,-0.02
20:51:31.280,-0.5,-0.025
20:51:31.284,-0.5,-0.025
20:51:31.288,-0.5,-0.055
20:51:31.292,-0.48,-0.065
20:51:31.296,-0.48,-0.06
20:51:31.300,-0.465,-0.075
20:51:31.304,-0.43,-0.08
20:51:31.308,-0.43,-0.08
20:51:31.312,-0.435,-0.095
20:51:31.316,-0.415,-0.075
20:51:31.320,-0.36,-0.08
20:51:31.324,-0.34,-0.06
20:51:31.328,-0.34,-0.045
20:51:31.332,-0.32,-0.045
20:51:31.336,-0.29,-0.065
20:51:31.340,-0.28,-0.045
20:51:31.344,-0.255,-0.03
20:51:31.348,-0.24,-0.04
20:51:31.352,-0.225,-0.06
20:51:31.356,-0.18,-0.08
20:51:31.360,-0.19,-0.085
20:51:31.364,-0.195,-0.08
20:51:31.368,-0.205,-0.095
20:51:31.372,-0.225,-0.115
20:51:31.376,-0.25,-0.135
20:51:31.380,-0.24,-0.12
20:51:31.384,-0.29,-0.13
20:51:31.388,-0.3,-0.125
20:51:31.392,-0.295,-0.125
20:51:31.396,-0.305,-0.125
20:51:31.400,-0.305,-0.15
20:51:31.404,-0.31,-0.16
20:51:31.408,-0.315,-0.15
20:51:31.412,-0.295,-0.145
20:51:31.416,-0.29,-0.13
20:51:31.420,-0.31,-0.11
20:51:31.424,-0.28,-0.14
20:51:31.428,-0.295,-0.155
20:51:31.432,-0.31,-0.15
20:51:31.436,-0.335,-0.14
20:51:31.440,-0.32,-0.15
20:51:31.444,-0.295,-0.15
20:51:31.448,-0.285,-0.135
20:51:31.452,-0.3,-0.125
20:51:31.456,-0.315,-0.12
20:51:31.460,-0.315,-0.13
20:51:31.464,-0.325,-0.15
20:51:31.468,-0.33,-0.155
20:51:31.472,-0.32,-0.14
20:51:31.476,-0.32,-0.145
20:51:31.480,-0.33,-0.13
20:51:31.484,-0.345,-0.14
20:51:31.488,-0.35,-0.17
20:51:31.492,-0.365,-0.155
20:51:31.496,-0.35,-0.17
20:51:31.500,-0.37,-0.19
20:51:31.504,-0.345,-0.19
20:51:31.508,-0.32,-0.2
20:51:31.512,-0.315,-0.225
20:51:31.516,-0.34,-0.205
20:51:31.520,-0.33,-0.23
20:51:31.524,-0.3,-0.215
20:51:31.528,-0.275,-0.2
20:51:31.532,-0.27,-0.215
20:51:31.536,-0.265,-0.19
20:51:31.540,-0.225,-0.195
20:51:31.544,-0.155,-0.2
20:51:31.548,-0.08,-0.185
20:51:31.552,0.035,-0.195
20:51:31.556,0.165,-0.185
20:51:31.560,0.235,-0.23
20:51:31.564,0.32,-0.3
20:51:31.568,0.425,-0.305
20:51:31.572,0.465,-0.315
20:51:31.576,0.445,-0.38
20:51:31.580,0.45,-0.49
20:51:31.584,0.565,-0.6
20:51:31.588,0.81,-0.78
20:51:31.592,1.065,-1.025
20:51:31.596,1.135,-1.235
20:51:31.600,0.925,-1.34
20:51:31.604,0.475,-1.19
20:51:31.608,0.01,-0.87
20:51:31.612,-0.27,-0.58
20:51:31.616,-0.38,-0.45
20:51:31.620,-0.395,-0.32
20:51:31.624,-0.42,-0.23
20:51:31.628,-0.42,-0.16
20:51:31.632,-0.46,-0.135
20:51:31.636,-0.47,-0.135
20:51:31.640,-0.47,-0.155
20:51:31.644,-0.455,-0.16
20:51:31.648,-0.475,-0.19
20:51:31.652,-0.45,-0.18
20:51:31.656,-0.435,-0.195
20:51:31.660,-0.45,-0.17
20:51:31.664,-0.47,-0.175
20:51:31.668,-0.48,-0.145
20:51:31.672,-0.495,-0.16
20:51:31.676,-0.485,-0.14
20:51:31.680,-0.49,-0.14
20:51:31.684,-0.485,-0.135
20:51:31.688,-0.475,-0.13
20:51:31.692,-0.49,-0.13
20:51:31.696,-0.49,-0.135
20:51:31.700,-0.49,-0.155
20:51:31.704,-0.495,-0.155
20:51:31.708,-0.5,-0.15
20:51:31.712,-0.49,-0.14
20:51:31.716,-0.5,-0.14
20:51:31.720,-0.495,-0.155
20:51:31.724,-0.5,-0.13
20:51:31.728,-0.505,-0.135
20:51:31.732,-0.52,-0.13
20:51:31.736,-0.525,-0.105
20:51:31.740,-0.53,-0.095
20:51:31.744,-0.53,-0.13
20:51:31.748,-0.535,-0.11
20:51:31.752,-0.525,-0.13
20:51:31.756,-0.535,-0.09
20:51:31.760,-0.52,-0.085
20:51:31.764,-0.525,-0.075
20:51:31.768,-0.525,-0.055
20:51:31.772,-0.515,-0.05
20:51:31.776,-0.475,-0.03
20:51:31.780,-0.435,-0.03
20:51:31.784,-0.415,-0.055
20:51:31.788,-0.39,-0.035
20:51:31.792,-0.375,-0.075
20:51:31.796,-0.375,-0.075
20:51:31.800,-0.35,-0.095
20:51:31.804,-0.37,-0.075
20:51:31.808,-0.38,-0.075
20:51:31.812,-0.375,-0.065
20:51:31.816,-0.38,-0.085
20:51:31.820,-0.36,-0.085
20:51:31.824,-0.365,-0.1
20:51:31.828,-0.365,-0.1
20:51:31.832,-0.37,-0.1
20:51:31.836,-0.35,-0.105
20:51:31.840,-0.33,-0.12
20:51:31.844,-0.35,-0.115
20:51:31.848,-0.345,-0.12
20:51:31.852,-0.34,-0.11
20:51:31.856,-0.32,-0.115
20:51:31.860,-0.28,-0.13
20:51:31.864,-0.285,-0.13
20:51:31.868,-0.275,-0.13
20:51:31.872,-0.265,-0.14
20:51:31.876,-0.27,-0.14
20:51:31.880,-0.29,-0.13
20:51:31.884,-0.29,-0.125
20:51:31.888,-0.29,-0.155
20:51:31.892,-0.285,-0.14
20:51:31.896,-0.27,-0.13
20:51:31.900,-0.28,-0.135
20:51:31.904,-0.25,-0.15
20:51:31.908,-0.26,-0.15
20:51:31.912,-0.25,-0.12
20:51:31.916,-0.25,-0.13
20:51:31.920,-0.28,-0.095
20:51:31.924,-0.265,-0.105
20:51:31.928,-0.285,-0.115
20:51:31.932,-0.285,-0.105
20:51:31.936,-0.3,-0.1
20:51:31.940,-0.305,-0.1
20:51:31.944,-0.31,-0.11
20:51:31.948,-0.32,-0.12
20:51:31.952,-0.31,-0.115
20:51:31.956,-0.33,-0.09
20:51:31.960,-0.34,-0.11
20:51:31.964,-0.32,-0.11
20:51:31.968,-0.325,-0.085
20:51:31.972,-0.31,-0.095
20:51:31.976,-0.275,-0.1
20:51:31.980,-0.255,-0.075
20:51:31.984,-0.215,-0.1
20:51:31.988,-0.145,-0.095
20:51:31.992,-0.07,-0.095
20:51:31.996,0.025,-0.1
20:51:32.000,0.11,-0.12
20:51:32.004,0.17,-0.14
20:51:32.008,0.19,-0.19
20:51:32.012,0.225,-0.195
20:51:32.016,0.23,-0.215
20:51:32.020,0.205,-0.28
20:51:32.024,0.24,-0.43
20:51:32.028,0.425,-0.625
20:51:32.032,0.715,-0.85
20:51:32.036,0.995,-1.1
20:51:32.040,1.155,-1.355
20:51:32.044,1.055,-1.45
20:51:32.048,0.65,-1.29
20:51:32.052,0.135,-0.935
20:51:32.056,-0.225,-0.54
20:51:32.060,-0.365,-0.315
20:51:32.064,-0.4,-0.185
20:51:32.068,-0.42,-0.085
20:51:32.072,-0.44,-0.055
20:51:32.076,-0.425,-0.02
20:51:32.080,-0.44,-0.01
20:51:32.084,-0.45,0.0
20:51:32.088,-0.445,0.0
20:51:32.092,-0.45,-0.035
20:51:32.096,-0.465,-0.035
20:51:32.100,-0.47,-0.04
20:51:32.104,-0.455,-0.04
20:51:32.108,-0.455,-0.055
20:51:32.112,-0.47,-0.07
20:51:32.116,-0.47,-0.06
20:51:32.120,-0.46,-0.07
20:51:32.124,-0.495,-0.04
20:51:32.128,-0.49,-0.05
20:51:32.132,-0.465,-0.035
20:51:32.136,-0.47,-0.04
20:51:32.140,-0.46,-0.035
20:51:32.144,-0.47,-0.04
20:51:32.148,-0.505,-0.03
20:51:32.152,-0.495,-0.005
20:51:32.156,-0.515,-0.025
20:51:32.160,-0.54,-0.005
20:51:32.164,-0.54,-0.015
20:51:32.168,-0.53,0.0
20:51:32.172,-0.55,0.0
20:51:32.176,-0.56,-0.005
20:51:32.180,-0.56,0.005
20:51:32.184,-0.57,0.0
20:51:32.188,-0.555,0.015
20:51:32.192,-0.55,0.04
20:51:32.196,-0.55,0.025
20:51:32.200,-0.545,0.03
20:51:32.204,-0.52,0.02
20:51:32.208,-0.545,0.03
20:51:32.212,-0.535,0.025
20:51:32.216,-0.515,0.03
20:51:32.220,-0.49,0.03
20:51:32.224,-0.46,0.035
20:51:32.228,-0.425,0.02
20:51:32.232,-0.42,0.01
20:51:32.236,-0.405,0.01
20:51:32.240,-0.41,-0.01
20:51:32.244,-0.39,-0.01
20:51:32.248,-0.38,-0.065
20:51:32.252,-0.39,-0.05
20:51:32.256,-0.4,-0.08
20:51:32.260,-0.37,-0.08
20:51:32.264,-0.37,-0.105
20:51:32.268,-0.35,-0.085
20:51:32.272,-0.315,-0.09
20:51:32.276,-0.32,-0.08
20:51:32.280,-0.305,-0.11
20:51:32.284,-0.29,-0.11
20:51:32.288,-0.285,-0.115
20:51:32.292,-0.26,-0.1
20:51:32.296,-0.285,-0.11
20:51:32.300,-0.275,-0.1
20:51:32.304,-0.27,-0.1
20:51:32.308,-0.295,-0.09
20:51:32.312,-0.27,-0.11
20:51:32.316,-0.27,-0.115
20:51:32.320,-0.26,-0.11
20:51:32.324,-0.245,-0.14
20:51:32.328,-0.265,-0.115
20:51:32.332,-0.265,-0.13
20:51:32.336,-0.285,-0.105
20:51:32.340,-0.28,-0.125
20:51:32.344,-0.305,-0.115
20:51:32.348,-0.3,-0.11
20:51:32.352,-0.31,-0.1
20:51:32.356,-0.32,-0.085
20:51:32.360,-0.32,-0.085
20:51:32.364,-0.345,-0.085
20:51:32.368,-0.365,-0.065
20:51:32.372,-0.325,-0.065
20:51:32.376,-0.35,-0.065
20:51:32.380,-0.365,-0.045
20:51:32.384,-0.36,-0.065
20:51:32.388,-0.355,-0.06
20:51:32.392,-0.345,-0.045
20:51:32.396,-0.325,-0.04
20:51:32.400,-0.335,-0.035
20:51:32.404,-0.32,-0.025
20:51:32.408,-0.32,0.005
20:51:32.412,-0.33,-0.02
20:51:32.416,-0.315,-0.04
20:51:32.420,-0.29,-0.045
20:51:32.424,-0.29,-0.045
20:51:32.428,-0.26,-0.045
20:51:32.432,-0.255,-0.075
20:51:32.436,-0.24,-0.05
20:51:32.440,-0.24,-0.075
20:51:32.444,-0.23,-0.115
20:51:32.448,-0.23,-0.125
20:51:32.452,-0.24,-0.12
20:51:32.456,-0.26,-0.11
20:51:32.460,-0.28,-0.11
20:51:32.464,-0.29,-0.125
20:51:32.468,-0.26,-0.12
20:51:32.472,-0.25,-0.11
20:51:32.476,-0.23,-0.115
20:51:32.480,-0.23,-0.11
20:51:32.484,-0.23,-0.115
20:51:32.488,-0.225,-0.1
20:51:32.492,-0.24,-0.095
20:51:32.496,-0.245,-0.08
20:51:32.500,-0.245,-0.095
20:51:32.504,-0.25,-0.09
20:51:32.508,-0.235,-0.08
20:51:32.512,-0.25,-0.085
20:51:32.516,-0.26,-0.08
20:51:32.520,-0.26,-0.08
20:51:32.524,-0.275,-0.09
20:51:32.528,-0.28,-0.085
20:51:32.532,-0.295,-0.085
20:51:32.536,-0.26,-0.1
20:51:32.540,-0.285,-0.075
20:51:32.544,-0.265,-0.085
20:51:32.548,-0.265,-0.09
20:51:32.552,-0.275,-0.09
20:51:32.556,-0.28,-0.08
20:51:32.560,-0.31,-0.105
20:51:32.564,-0.305,-0.095
20:51:32.568,-0.32,-0.125
20:51:32.572,-0.32,-0.12
20:51:32.576,-0.335,-0.115
20:51:32.580,-0.335,-0.11
20:51:32.584,-0.315,-0.075
20:51:32.588,-0.285,-0.085
20:51:32.592,-0.25,-0.08
20:51:32.596,-0.195,-0.08
20:51:32.600,-0.11,-0.055
20:51:32.604,-0.04,-0.065
20:51:32.608,0.04,-0.095
20:51:32.612,0.11,-0.125
20:51:32.616,0.155,-0.17
20:51:32.620,0.195,-0.21
20:51:32.624,0.21,-0.235
20:51:32.628,0.235,-0.255
20:51:32.632,0.22,-0.32
20:51:32.636,0.205,-0.415
20:51:32.640,0.295,-0.57
20:51:32.644,0.52,-0.755
20:51:32.648,0.86,-1.01
20:51:32.652,1.08,-1.28
20:51:32.656,1.1,-1.46
20:51:32.660,0.815,-1.45
20:51:32.664,0.31,-1.12
20:51:32.668,-0.11,-0.71
20:51:32.672,-0.32,-0.42
20:51:32.676,-0.38,-0.265
20:51:32.680,-0.395,-0.165
20:51:32.684,-0.38,-0.08
20:51:32.688,-0.4,-0.03
20:51:32.692,-0.41,0.0
20:51:32.696,-0.4,0.005
20:51:32.700,-0.415,0.02
20:51:32.704,-0.425,0.005
20:51:32.708,-0.425,-0.005
20:51:32.712,-0.37,-0.01
20:51:32.716,-0.41,-0.01
20:51:32.720,-0.39,-0.005
20:51:32.724,-0.42,-0.01
20:51:32.728,-0.42,-0.025
20:51:32.732,-0.42,0.0
20:51:32.736,-0.415,-0.01
20:51:32.740,-0.43,-0.005
20:51:32.744,-0.44,0.0
20:51:32.748,-0.44,0.005
20:51:32.752,-0.44,0.0
20:51:32.756,-0.445,0.0
20:51:32.760,-0.475,-0.005
20:51:32.764,-0.5,0.0
20:51:32.768,-0.505,0.005
20:51:32.772,-0.54,-0.005
20:51:32.776,-0.51,-0.005
20:51:32.780,-0.495,-0.025
20:51:32.784,-0.47,-0.01
20:51:32.788,-0.46,-0.03
20:51:32.792,-0.45,-0.04
20:51:32.796,-0.445,-0.04
20:51:32.800,-0.46,-0.035
20:51:32.804,-0.49,-0.02
20:51:32.808,-0.475,-0.02
20:51:32.812,-0.47,-0.035
20:51:32.816,-0.465,-0.025
20:51:32.820,-0.44,-0.035
20:51:32.824,-0.415,-0.03
20:51:32.828,-0.42,-0.02
20:51:32.832,-0.425,-0.02
20:51:32.836,-0.415,-0.015
20:51:32.840,-0.425,0.005
20:51:32.844,-0.41,0.02
20:51:32.848,-0.43,0.035
20:51:32.852,-0.435,0.03
20:51:32.856,-0.445,0.005
20:51:32.860,-0.455,0.0
20:51:32.864,-0.46,0.0
20:51:32.868,-0.48,-0.025
20:51:32.872,-0.49,-0.035
20:51:32.876,-0.505,-0.035
20:51:32.880,-0.49,-0.035
20:51:32.884,-0.485,-0.045
20:51:32.888,-0.48,-0.06
20:51:32.892,-0.435,-0.055
20:51:32.896,-0.44,-0.07
20:51:32.900,-0.425,-0.1
20:51:32.904,-0.405,-0.08
20:51:32.908,-0.39,-0.09
20:51:32.912,-0.37,-0.1
20:51:32.916,-0.34,-0.11
20:51:32.920,-0.335,-0.085
20:51:32.924,-0.325,-0.105
20:51:32.928,-0.3,-0.1
20:51:32.932,-0.295,-0.09
20:51:32.936,-0.28,-0.08
20:51:32.940,-0.26,-0.065
20:51:32.944,-0.24,-0.065
20:51:32.948,-0.265,-0.08
20:51:32.952,-0.225,-0.1
20:51:32.956,-0.2,-0.08
20:51:32.960,-0.23,-0.095
20:51:32.964,-0.23,-0.08
20:51:32.968,-0.255,-0.095
20:51:32.972,-0.225,-0.115
20:51:32.976,-0.245,-0.075
20:51:32.980,-0.25,-0.06
20:51:32.984,-0.24,-0.075
20:51:32.988,-0.265,-0.095
20:51:32.992,-0.245,-0.09
20:51:32.996,-0.27,-0.085
20:51:33.000,-0.3,-0.07
20:51:33.004,-0.28,-0.08
20:51:33.008,-0.29,-0.05
20:51:33.012,-0.295,-0.04
20:51:33.016,-0.325,-0.035
20:51:33.020,-0.305,-0.06
20:51:33.024,-0.33,-0.08
20:51:33.028,-0.345,-0.07
20:51:33.032,-0.34,-0.07
20:51:33.036,-0.32,-0.06
20:51:33.040,-0.34,-0.08
20:51:33.044,-0.33,-0.06
20:51:33.048,-0.31,-0.065
20:51:33.052,-0.31,-0.06
20:51:33.056,-0.275,-0.07
20:51:33.060,-0.285,-0.06
20:51:33.064,-0.28,-0.08
20:51:33.068,-0.275,-0.06
20:51:33.072,-0.25,-0.075
20:51:33.076,-0.24,-0.075
20:51:33.080,-0.21,-0.08
20:51:33.084,-0.17,-0.09
20:51:33.088,-0.095,-0.095
20:51:33.092,-0.005,-0.105
20:51:33.096,0.06,-0.145
20:51:33.100,0.075,-0.2
20:51:33.104,0.135,-0.25
20:51:33.108,0.2,-0.23
20:51:33.112,0.23,-0.255
20:51:33.116,0.205,-0.32
20:51:33.120,0.225,-0.42
20:51:33.124,0.38,-0.57
20:51:33.128,0.68,-0.765
20:51:33.132,0.97,-1.035
20:51:33.136,1.075,-1.24
20:51:33.140,0.89,-1.32
20:51:33.144,0.465,-1.16
20:51:33.148,0.01,-0.825
20:51:33.152,-0.235,-0.52
20:51:33.156,-0.335,-0.35
20:51:33.160,-0.37,-0.22
20:51:33.164,-0.37,-0.125
20:51:33.168,-0.385,-0.055
20:51:33.172,-0.405,-0.035
20:51:33.176,-0.445,-0.025
20:51:33.180,-0.43,-0.015
20:51:33.184,-0.445,-0.02
20:51:33.188,-0.45,-0.045
20:51:33.192,-0.44,-0.03
20:51:33.196,-0.445,-0.065
20:51:33.200,-0.445,-0.085
20:51:33.204,-0.4,-0.065
20:51:33.208,-0.44,-0.075
20:51:33.212,-0.425,-0.1
20:51:33.216,-0.435,-0.095
20:51:33.220,-0.47,-0.12
20:51:33.224,-0.48,-0.1
20:51:33.228,-0.495,-0.095
20:51:33.232,-0.485,-0.115
20:51:33.236,-0.48,-0.115
20:51:33.240,-0.465,-0.12
20:51:33.244,-0.47,-0.145
20:51:33.248,-0.505,-0.13
20:51:33.252,-0.49,-0.115
20:51:33.256,-0.51,-0.12
20:51:33.260,-0.535,-0.105
20:51:33.264,-0.54,-0.11
20:51:33.268,-0.525,-0.145
20:51:33.272,-0.53,-0.16
20:51:33.276,-0.515,-0.155
20:51:33.280,-0.495,-0.155
20:51:33.284,-0.515,-0.155
20:51:33.288,-0.535,-0.155
20:51:33.292,-0.555,-0.135
20:51:33.296,-0.54,-0.105
20:51:33.300,-0.56,-0.105
20:51:33.304,-0.54,-0.105
20:51:33.308,-0.505,-0.13
20:51:33.312,-0.5,-0.125
20:51:33.316,-0.49,-0.12
20:51:33.320,-0.49,-0.13
20:51:33.324,-0.485,-0.135
20:51:33.328,-0.48,-0.155
20:51:33.332,-0.48,-0.155
20:51:33.336,-0.46,-0.175
20:51:33.340,-0.44,-0.165
20:51:33.344,-0.415,-0.205
20:51:33.348,-0.41,-0.19
20:51:33.352,-0.38,-0.2
20:51:33.356,-0.36,-0.225
20:51:33.360,-0.36,-0.24
20:51:33.364,-0.365,-0.235
20:51:33.368,-0.36,-0.25
20:51:33.372,-0.34,-0.22
20:51:33.376,-0.33,-0.225
20:51:33.380,-0.325,-0.23
20:51:33.384,-0.31,-0.24
20:51:33.388,-0.295,-0.225
20:51:33.392,-0.3,-0.22
20:51:33.396,-0.27,-0.225
20:51:33.400,-0.27,-0.235
20:51:33.404,-0.24,-0.24
20:51:33.408,-0.255,-0.245
20:51:33.412,-0.225,-0.245
20:51:33.416,-0.21,-0.245
20:51:33.420,-0.22,-0.235
20:51:33.424,-0.2,-0.23
20:51:33.428,-0.205,-0.245
20:51:33.432,-0.185,-0.26
20:51:33.436,-0.18,-0.25
20:51:33.440,-0.18,-0.275
20:51:33.444,-0.19,-0.285
20:51:33.448,-0.175,-0.28
20:51:33.452,-0.21,-0.285
20:51:33.456,-0.185,-0.28
20:51:33.460,-0.195,-0.3
20:51:33.464,-0.19,-0.295
20:51:33.468,-0.19,-0.27
20:51:33.472,-0.21,-0.31
20:51:33.476,-0.235,-0.32
20:51:33.480,-0.245,-0.3
20:51:33.484,-0.23,-0.3
20:51:33.488,-0.22,-0.29
20:51:33.492,-0.205,-0.3
20:51:33.496,-0.145,-0.28
20:51:33.500,-0.08,-0.3
20:51:33.504,-0.01,-0.3
20:51:33.508,0.06,-0.34
20:51:33.512,0.125,-0.38
20:51:33.516,0.175,-0.42
20:51:33.520,0.265,-0.435
20:51:33.524,0.295,-0.45
20:51:33.528,0.305,-0.465
20:51:33.532,0.385,-0.53
20:51:33.536,0.57,-0.66
20:51:33.540,0.86,-0.845
20:51:33.544,1.16,-1.1
20:51:33.548,1.24,-1.3
20:51:33.552,1.01,-1.355
20:51:33.556,0.545,-1.175
20:51:33.560,0.065,-0.815
20:51:33.564,-0.2,-0.53
20:51:33.568,-0.32,-0.385
20:51:33.572,-0.34,-0.275
20:51:33.576,-0.36,-0.19
20:51:33.580,-0.385,-0.14
20:51:33.584,-0.42,-0.14
20:51:33.588,-0.445,-0.13
20:51:33.592,-0.475,-0.14
20:51:33.596,-0.47,-0.175
20:51:33.600,-0.465,-0.17
20:51:33.604,-0.46,-0.2
20:51:33.608,-0.455,-0.185
20:51:33.612,-0.45,-0.185
20:51:33.616,-0.46,-0.195
20:51:33.620,-0.425,-0.18
20:51:33.624,-0.41,-0.185
20:51:33.628,-0.415,-0.16
20:51:33.632,-0.395,-0.16
20:51:33.636,-0.4,-0.16
20:51:33.640,-0.415,-0.145
20:51:33.644,-0.405,-0.16
20:51:33.648,-0.41,-0.16
20:51:33.652,-0.425,-0.155
20:51:33.656,-0.415,-0.125
20:51:33.660,-0.43,-0.12
20:51:33.664,-0.43,-0.12
20:51:33.668,-0.45,-0.13
20:51:33.672,-0.455,-0.145
20:51:33.676,-0.45,-0.125
20:51:33.680,-0.475,-0.105
20:51:33.684,-0.48,-0.125
20:51:33.688,-0.49,-0.115
20:51:33.692,-0.505,-0.075
20:51:33.696,-0.505,-0.08
20:51:33.700,-0.51,-0.075
20:51:33.704,-0.53,-0.1
20:51:33.708,-0.57,-0.085
20:51:33.712,-0.55,-0.075
20:51:33.716,-0.54,-0.04
20:51:33.720,-0.57,-0.07
20:51:33.724,-0.54,-0.07
20:51:33.728,-0.525,-0.075
20:51:33.732,-0.535,-0.095
20:51:33.736,-0.495,-0.095
20:51:33.740,-0.48,-0.1
20:51:33.744,-0.445,-0.12
20:51:33.748,-0.42,-0.12
20:51:33.752,-0.355,-0.14
20:51:33.756,-0.32,-0.125
20:51:33.760,-0.325,-0.115
20:51:33.764,-0.3,-0.115
20:51:33.768,-0.305,-0.12
20:51:33.772,-0.305,-0.14
20:51:33.776,-0.28,-0.135
20:51:33.780,-0.3,-0.12
20:51:33.784,-0.31,-0.13
20:51:33.788,-0.3,-0.105
20:51:33.792,-0.29,-0.13
20:51:33.796,-0.27,-0.135
20:51:33.800,-0.24,-0.14
20:51:33.804,-0.22,-0.145
20:51:33.808,-0.215,-0.15
20:51:33.812,-0.2,-0.14
20:51:33.816,-0.18,-0.14
20:51:33.820,-0.18,-0.115
20:51:33.824,-0.185,-0.12
20:51:33.828,-0.185,-0.12
20:51:33.832,-0.185,-0.12
20:51:33.836,-0.19,-0.14
20:51:33.840,-0.165,-0.12
20:51:33.844,-0.175,-0.13
20:51:33.848,-0.17,-0.15
20:51:33.852,-0.18,-0.13
20:51:33.856,-0.165,-0.12
20:51:33.860,-0.16,-0.135
20:51:33.864,-0.19,-0.145
20:51:33.868,-0.175,-0.16
20:51:33.872,-0.165,-0.175
20:51:33.876,-0.165,-0.18
20:51:33.880,-0.18,-0.165
20:51:33.884,-0.19,-0.18
20:51:33.888,-0.19,-0.195
20:51:33.892,-0.19,-0.195
20:51:33.896,-0.175,-0.18
20:51:33.900,-0.21,-0.18
20:51:33.904,-0.225,-0.195
20:51:33.908,-0.23,-0.2
20:51:33.912,-0.24,-0.2
20:51:33.916,-0.24,-0.225
20:51:33.920,-0.27,-0.21
20:51:33.924,-0.285,-0.21
20:51:33.928,-0.295,-0.205
20:51:33.932,-0.29,-0.225
20:51:33.936,-0.3,-0.2
20:51:33.940,-0.265,-0.2
20:51:33.944,-0.25,-0.195
20:51:33.948,-0.185,-0.17
20:51:33.952,-0.105,-0.2
20:51:33.956,-0.02,-0.19
20:51:33.960,0.095,-0.205
20:51:33.964,0.135,-0.245
20:51:33.968,0.185,-0.27
20:51:33.972,0.23,-0.32
20:51:33.976,0.27,-0.29
20:51:33.980,0.245,-0.32
20:51:33.984,0.25,-0.41
20:51:33.988,0.34,-0.51
20:51:33.992,0.585,-0.68
20:51:33.996,0.93,-0.935
20:51:34.000,1.18,-1.225
20:51:34.004,1.205,-1.41
20:51:34.008,0.95,-1.4
20:51:34.012,0.465,-1.13
20:51:34.016,0.0,-0.75
20:51:34.020,-0.255,-0.47
20:51:34.024,-0.375,-0.285
20:51:34.028,-0.405,-0.205
20:51:34.032,-0.4,-0.14
20:51:34.036,-0.4,-0.11
20:51:34.040,-0.405,-0.085
20:51:34.044,-0.41,-0.07
20:51:34.048,-0.435,-0.085
20:51:34.052,-0.43,-0.09
20:51:34.056,-0.44,-0.11
20:51:34.060,-0.44,-0.115
20:51:34.064,-0.42,-0.13
20:51:34.068,-0.44,-0.12
20:51:34.072,-0.435,-0.13
20:51:34.076,-0.44,-0.115
20:51:34.080,-0.42,-0.105
20:51:34.084,-0.415,-0.11
20:51:34.088,-0.425,-0.105
20:51:34.092,-0.42,-0.09
20:51:34.096,-0.43,-0.08
20:51:34.100,-0.425,-0.07
20:51:34.104,-0.43,-0.055
20:51:34.108,-0.44,-0.08
20:51:34.112,-0.455,-0.1
20:51:34.116,-0.455,-0.1
20:51:34.120,-0.44,-0.07
20:51:34.124,-0.445,-0.085
20:51:34.128,-0.445,-0.095
20:51:34.132,-0.45,-0.075
20:51:34.136,-0.45,-0.075
20:51:34.140,-0.44,-0.075
20:51:34.144,-0.43,-0.08
20:51:34.148,-0.435,-0.07
20:51:34.152,-0.45,-0.085
20:51:34.156,-0.44,-0.085
20:51:34.160,-0.44,-0.05
20:51:34.164,-0.43,-0.07
20:51:34.168,-0.41,-0.09
20:51:34.172,-0.39,-0.09
20:51:34.176,-0.4,-0.09
20:51:34.180,-0.385,-0.09
20:51:34.184,-0.365,-0.075
20:51:34.188,-0.36,-0.08
20:51:34.192,-0.365,-0.07
20:51:34.196,-0.36,-0.075
20:51:34.200,-0.35,-0.065
20:51:34.204,-0.365,-0.06
20:51:34.208,-0.36,-0.055
20:51:34.212,-0.34,-0.08
20:51:34.216,-0.355,-0.09
20:51:34.220,-0.37,-0.11
20:51:34.224,-0.36,-0.1
20:51:34.228,-0.32,-0.09
20:51:34.232,-0.32,-0.1
20:51:34.236,-0.33,-0.115
20:51:34.240,-0.32,-0.14
20:51:34.244,-0.29,-0.145
20:51:34.248,-0.325,-0.14
20:51:34.252,-0.3,-0.155
20:51:34.256,-0.29,-0.155
20:51:34.260,-0.28,-0.17
20:51:34.264,-0.275,-0.195
20:51:34.268,-0.275,-0.16
20:51:34.272,-0.255,-0.16
20:51:34.276,-0.265,-0.15
20:51:34.280,-0.26,-0.145
20:51:34.284,-0.25,-0.15
20:51:34.288,-0.27,-0.15
20:51:34.292,-0.285,-0.145
20:51:34.296,-0.25,-0.155
20:51:34.300,-0.235,-0.165
20:51:34.304,-0.225,-0.17
20:51:34.308,-0.21,-0.16
20:51:34.312,-0.21,-0.16
20:51:34.316,-0.185,-0.16
20:51:34.320,-0.195,-0.16
20:51:34.324,-0.195,-0.15
20:51:34.328,-0.205,-0.14
20:51:34.332,-0.21,-0.14
20:51:34.336,-0.22,-0.13
20:51:34.340,-0.23,-0.135
20:51:34.344,-0.215,-0.115
20:51:34.348,-0.225,-0.14
20:51:34.352,-0.24,-0.155
20:51:34.356,-0.24,-0.145
20:51:34.360,-0.235,-0.13
20:51:34.364,-0.24,-0.11
20:51:34.368,-0.24,-0.13
20:51:34.372,-0.245,-0.12
20:51:34.376,-0.25,-0.13
20:51:34.380,-0.235,-0.11
20:51:34.384,-0.215,-0.14
20:51:34.388,-0.215,-0.105
20:51:34.392,-0.225,-0.11
20:51:34.396,-0.2,-0.12
20:51:34.400,-0.215,-0.115
20:51:34.404,-0.22,-0.09
20:51:34.408,-0.205,-0.09
20:51:34.412,-0.195,-0.075
20:51:34.416,-0.225,-0.075
20:51:34.420,-0.225,-0.08
20:51:34.424,-0.24,-0.09
20:51:34.428,-0.26,-0.07
20:51:34.432,-0.285,-0.085
20:51:34.436,-0.29,-0.075
20:51:34.440,-0.275,-0.09
20:51:34.444,-0.265,-0.08
20:51:34.448,-0.25,-0.09
20:51:34.452,-0.26,-0.105
20:51:34.456,-0.25,-0.125
20:51:34.460,-0.245,-0.14
20:51:34.464,-0.25,-0.145
20:51:34.468,-0.265,-0.13
20:51:34.472,-0.25,-0.145
20:51:34.476,-0.27,-0.16
20:51:34.480,-0.245,-0.14
20:51:34.484,-0.22,-0.15
20:51:34.488,-0.22,-0.16
20:51:34.492,-0.215,-0.135
20:51:34.496,-0.22,-0.14
20:51:34.500,-0.245,-0.13
20:51:34.504,-0.245,-0.135
20:51:34.508,-0.24,-0.15
20:51:34.512,-0.255,-0.14
20:51:34.516,-0.24,-0.155
20:51:34.520,-0.24,-0.15
20:51:34.524,-0.24,-0.16
20:51:34.528,-0.25,-0.13
20:51:34.532,-0.225,-0.145
20:51:34.536,-0.23,-0.16
20:51:34.540,-0.23,-0.14
20:51:34.544,-0.23,-0.135
20:51:34.548,-0.235,-0.13
20:51:34.552,-0.24,-0.15
20:51:34.556,-0.215,-0.125
20:51:34.560,-0.225,-0.13
20:51:34.564,-0.23,-0.15
20:51:34.568,-0.23,-0.145
20:51:34.572,-0.245,-0.145
20:51:34.576,-0.245,-0.13
20:51:34.580,-0.265,-0.16
20:51:34.584,-0.255,-0.165
20:51:34.588,-0.245,-0.19
20:51:34.592,-0.26,-0.185
20:51:34.596,-0.255,-0.185
20:51:34.600,-0.24,-0.165
20:51:34.604,-0.215,-0.18
20:51:34.608,-0.21,-0.175
20:51:34.612,-0.2,-0.195
20:51:34.616,-0.17,-0.18
20:51:34.620,-0.18,-0.15
20:51:34.624,-0.18,-0.15
20:51:34.628,-0.19,-0.135
20:51:34.632,-0.21,-0.145
20:51:34.636,-0.225,-0.155
20:51:34.640,-0.22,-0.14
20:51:34.644,-0.2,-0.145
20:51:34.648,-0.225,-0.125
20:51:34.652,-0.22,-0.135
20:51:34.656,-0.22,-0.1
20:51:34.660,-0.21,-0.08
20:51:34.664,-0.195,-0.055
20:51:34.668,-0.16,-0.075
20:51:34.672,-0.13,-0.04
20:51:34.676,-0.06,-0.06
20:51:34.680,-0.02,-0.07
20:51:34.684,0.045,-0.075
20:51:34.688,0.12,-0.1
20:51:34.692,0.165,-0.14
20:51:34.696,0.22,-0.2
20:51:34.700,0.225,-0.24
20:51:34.704,0.245,-0.26
20:51:34.708,0.22,-0.32
20:51:34.712,0.22,-0.41
20:51:34.716,0.3,-0.54
20:51:34.720,0.495,-0.75
20:51:34.724,0.825,-1.01
20:51:34.728,1.09,-1.28
20:51:34.732,1.165,-1.5
20:51:34.736,0.96,-1.5
20:51:34.740,0.5,-1.245
20:51:34.744,0.025,-0.835
20:51:34.748,-0.215,-0.48
20:51:34.752,-0.335,-0.265
20:51:34.756,-0.365,-0.145
20:51:34.760,-0.355,-0.075
20:51:34.764,-0.36,-0.01
20:51:34.768,-0.39,-0.015
20:51:34.772,-0.39,0.0
20:51:34.776,-0.435,0.0
20:51:34.780,-0.42,-0.01
20:51:34.784,-0.43,-0.02
20:51:34.788,-0.43,-0.045
20:51:34.792,-0.46,-0.07
20:51:34.796,-0.47,-0.055
20:51:34.800,-0.49,-0.09
20:51:34.804,-0.475,-0.065
20:51:34.808,-0.475,-0.065
20:51:34.812,-0.445,-0.07
20:51:34.816,-0.435,-0.05
20:51:34.820,-0.44,-0.04
20:51:34.824,-0.39,-0.04
20:51:34.828,-0.4,-0.05
20:51:34.832,-0.4,-0.02
20:51:34.836,-0.425,-0.005
20:51:34.840,-0.42,-0.015
20:51:34.844,-0.45,0.005
20:51:34.848,-0.48,0.01
20:51:34.852,-0.52,0.015
20:51:34.856,-0.53,0.0
20:51:34.860,-0.54,0.02
20:51:34.864,-0.55,0.02
20:51:34.868,-0.51,0.035
20:51:34.872,-0.51,0.035
20:51:34.876,-0.495,0.02
20:51:34.880,-0.49,0.015
20:51:34.884,-0.49,0.015
20:51:34.888,-0.495,0.01
20:51:34.892,-0.47,0.01
20:51:34.896,-0.475,0.0
20:51:34.900,-0.475,0.0
20:51:34.904,-0.49,-0.01
20:51:34.908,-0.51,-0.03
20:51:34.912,-0.5,-0.04
20:51:34.916,-0.51,-0.045
20:51:34.920,-0.505,-0.06
20:51:34.924,-0.5,-0.07
20:51:34.928,-0.49,-0.065
20:51:34.932,-0.48,-0.08
20:51:34.936,-0.465,-0.09
20:51:34.940,-0.48,-0.13
20:51:34.944,-0.48,-0.14
20:51:34.948,-0.46,-0.155
20:51:34.952,-0.45,-0.17
20:51:34.956,-0.465,-0.175
20:51:34.960,-0.425,-0.17
20:51:34.964,-0.405,-0.18
20:51:34.968,-0.395,-0.165
20:51:34.972,-0.38,-0.195
20:51:34.976,-0.385,-0.19
20:51:34.980,-0.34,-0.195
20:51:34.984,-0.32,-0.19
20:51:34.988,-0.31,-0.175
20:51:34.992,-0.295,-0.17
20:51:34.996,-0.285,-0.17
20:51:35.000,-0.27,-0.18
20:51:35.004,-0.28,-0.205
20:51:35.008,-0.26,-0.195
20:51:35.012,-0.23,-0.175
20:51:35.016,-0.23,-0.19
20:51:35.020,-0.22,-0.175
20:51:35.024,-0.235,-0.165
20:51:35.028,-0.24,-0.15
20:51:35.032,-0.245,-0.155
20:51:35.036,-0.26,-0.13
20:51:35.040,-0.265,-0.145
20:51:35.044,-0.265,-0.135
20:51:35.048,-0.29,-0.115
20:51:35.052,-0.32,-0.12
20:51:35.056,-0.33,-0.13
20:51:35.060,-0.355,-0.135
20:51:35.064,-0.375,-0.135
20:51:35.068,-0.405,-0.12
20:51:35.072,-0.38,-0.13
20:51:35.076,-0.41,-0.115
20:51:35.080,-0.35,-0.125
20:51:35.084,-0.35,-0.125
20:51:35.088,-0.33,-0.14
20:51:35.092,-0.32,-0.13
20:51:35.096,-0.32,-0.13
20:51:35.100,-0.32,-0.135
20:51:35.104,-0.3,-0.125
20:51:35.108,-0.295,-0.145
20:51:35.112,-0.305,-0.175
20:51:35.116,-0.3,-0.175
20:51:35.120,-0.295,-0.165
20:51:35.124,-0.29,-0.18
20:51:35.128,-0.29,-0.185
20:51:35.132,-0.3,-0.205
20:51:35.136,-0.315,-0.215
20:51:35.140,-0.305,-0.23
20:51:35.144,-0.32,-0.24
20:51:35.148,-0.315,-0.255
20:51:35.152,-0.29,-0.265
20:51:35.156,-0.25,-0.26
20:51:35.160,-0.215,-0.26
20:51:35.164,-0.14,-0.265
20:51:35.168,-0.055,-0.27
20:51:35.172,0.025,-0.28
20:51:35.176,0.095,-0.315
20:51:35.180,0.16,-0.34
20:51:35.184,0.23,-0.39
20:51:35.188,0.285,-0.39
20:51:35.192,0.3,-0.415
20:51:35.196,0.29,-0.46
20:51:35.200,0.35,-0.555
20:51:35.204,0.545,-0.665
20:51:35.208,0.84,-0.875
20:51:35.212,1.07,-1.155
20:51:35.216,1.12,-1.32
20:51:35.220,0.88,-1.37
20:51:35.224,0.395,-1.15
20:51:35.228,0.005,-0.8
20:51:35.232,-0.18,-0.55
20:51:35.236,-0.245,-0.385
20:51:35.240,-0.265,-0.32
20:51:35.244,-0.28,-0.22
20:51:35.248,-0.32,-0.16
20:51:35.252,-0.35,-0.135
20:51:35.256,-0.375,-0.15
20:51:35.260,-0.4,-0.15
20:51:35.264,-0.46,-0.17
20:51:35.268,-0.5,-0.16
20:51:35.272,-0.545,-0.175
20:51:35.276,-0.565,-0.195
20:51:35.280,-0.55,-0.21
20:51:35.284,-0.565,-0.2
20:51:35.288,-0.59,-0.215
20:51:35.292,-0.565,-0.23
20:51:35.296,-0.57,-0.235
20:51:35.300,-0.545,-0.215
20:51:35.304,-0.545,-0.215
20:51:35.308,-0.555,-0.205
20:51:35.312,-0.54,-0.205
20:51:35.316,-0.55,-0.225
20:51:35.320,-0.53,-0.21
20:51:35.324,-0.535,-0.22
20:51:35.328,-0.535,-0.235
20:51:35.332,-0.525,-0.24
20:51:35.336,-0.535,-0.24
20:51:35.340,-0.535,-0.22
