Time,ECG1,ECG2
20:57:14.868,-0.51,0.24
20:57:14.872,-0.53,0.335
20:57:14.876,-0.525,0.41
20:57:14.880,-0.51,0.44
20:57:14.884,-0.51,0.475
20:57:14.888,-0.52,0.48
20:57:14.892,-0.51,0.485
20:57:14.896,-0.515,0.46
20:57:14.900,-0.52,0.46
20:57:14.904,-0.505,0.44
20:57:14.908,-0.505,0.43
20:57:14.912,-0.5,0.43
20:57:14.916,-0.5,0.405
20:57:14.920,-0.51,0.42
20:57:14.924,-0.525,0.405
20:57:14.928,-0.495,0.375
20:57:14.932,-0.48,0.39
20:57:14.936,-0.48,0.395
20:57:14.940,-0.5,0.39
20:57:14.944,-0.49,0.385
20:57:14.948,-0.515,0.39
20:57:14.952,-0.5,0.38
20:57:14.956,-0.49,0.375
20:57:14.960,-0.49,0.4
20:57:14.964,-0.495,0.415
20:57:14.968,-0.49,0.415
20:57:14.972,-0.49,0.435
20:57:14.976,-0.5,0.43
20:57:14.980,-0.5,0.42
20:57:14.984,-0.505,0.465
20:57:14.988,-0.54,0.455
20:57:14.992,-0.54,0.495
20:57:14.996,-0.56,0.48
20:57:15.000,-0.575,0.48
20:57:15.004,-0.585,0.475
20:57:15.008,-0.57,0.49
20:57:15.012,-0.58,0.505
20:57:15.016,-0.57,0.505
20:57:15.020,-0.58,0.5
20:57:15.024,-0.575,0.51
20:57:15.028,-0.58,0.515
20:57:15.032,-0.575,0.505
20:57:15.036,-0.57,0.495
20:57:15.040,-0.58,0.485
20:57:15.044,-0.57,0.49
20:57:15.048,-0.54,0.48
20:57:15.052,-0.54,0.47
20:57:15.056,-0.51,0.46
20:57:15.060,-0.5,0.44
20:57:15.064,-0.495,0.435
20:57:15.068,-0.475,0.42
20:57:15.072,-0.455,0.405
20:57:15.076,-0.44,0.385
20:57:15.080,-0.415,0.365
20:57:15.084,-0.38,0.335
20:57:15.088,-0.36,0.34
20:57:15.092,-0.36,0.305
20:57:15.096,-0.335,0.32
20:57:15.100,-0.33,0.295
20:57:15.104,-0.31,0.32
20:57:15.108,-0.285,0.32
20:57:15.112,-0.265,0.335
20:57:15.116,-0.265,0.335
20:57:15.120,-0.28,0.355
20:57:15.124,-0.265,0.365
20:57:15.128,-0.28,0.38
20:57:15.132,-0.285,0.4
20:57:15.136,-0.27,0.395
20:57:15.140,-0.27,0.405
20:57:15.144,-0.26,0.395
20:57:15.148,-0.275,0.4
20:57:15.152,-0.265,0.39
20:57:15.156,-0.285,0.415
20:57:15.160,-0.29,0.41
20:57:15.164,-0.315,0.42
20:57:15.168,-0.305,0.415
20:57:15.172,-0.31,0.425
20:57:15.176,-0.31,0.425
20:57:15.180,-0.32,0.415
20:57:15.184,-0.33,0.43
20:57:15.188,-0.355,0.425
20:57:15.192,-0.37,0.43
20:57:15.196,-0.385,0.415
20:57:15.200,-0.4,0.4
20:57:15.204,-0.42,0.405
20:57:15.208,-0.43,0.425
20:57:15.212,-0.42,0.43
20:57:15.216,-0.415,0.41
20:57:15.220,-0.41,0.44
20:57:15.224,-0.385,0.43
20:57:15.228,-0.365,0.42
20:57:15.232,-0.345,0.425
20:57:15.236,-0.335,0.42
20:57:15.240,-0.295,0.415
20:57:15.244,-0.295,0.415
20:57:15.248,-0.305,0.425
20:57:15.252,-0.315,0.4
20:57:15.256,-0.32,0.395
20:57:15.260,-0.31,0.375
20:57:15.264,-0.31,0.355
20:57:15.268,-0.265,0.35
20:57:15.272,-0.205,0.365
20:57:15.276,-0.135,0.365
20:57:15.280,-0.07,0.345
20:57:15.284,-0.03,0.315
20:57:15.288,0.005,0.265
20:57:15.292,0.035,0.24
20:57:15.296,0.05,0.235
20:57:15.300,0.015,0.225
20:57:15.304,0.03,0.16
20:57:15.308,0.145,0.065
20:57:15.312,0.39,-0.065
20:57:15.316,0.71,-0.295
20:57:15.320,0.975,-0.55
20:57:15.324,1.04,-0.78
20:57:15.328,0.81,-0.82
20:57:15.332,0.335,-0.605
20:57:15.336,-0.1,-0.24
20:57:15.340,-0.325,0.08
20:57:15.344,-0.43,0.285
20:57:15.348,-0.45,0.4
20:57:15.352,-0.475,0.47
20:57:15.356,-0.48,0.515
20:57:15.360,-0.49,0.51
20:57:15.364,-0.525,0.515
20:57:15.368,-0.54,0.495
20:57:15.372,-0.535,0.5
20:57:15.376,-0.545,0.505
20:57:15.380,-0.555,0.49
20:57:15.384,-0.58,0.505
20:57:15.388,-0.58,0.485
20:57:15.392,-0.59,0.505
20:57:15.396,-0.62,0.48
20:57:15.400,-0.615,0.475
20:57:15.404,-0.63,0.475
20:57:15.408,-0.655,0.47
20:57:15.412,-0.64,0.47
20:57:15.416,-0.66,0.45
20:57:15.420,-0.64,0.44
20:57:15.424,-0.635,0.465
20:57:15.428,-0.62,0.47
20:57:15.432,-0.595,0.465
20:57:15.436,-0.575,0.465
20:57:15.440,-0.555,0.465
20:57:15.444,-0.54,0.475
20:57:15.448,-0.535,0.475
20:57:15.452,-0.545,0.465
20:57:15.456,-0.545,0.465
20:57:15.460,-0.565,0.48
20:57:15.464,-0.57,0.455
20:57:15.468,-0.56,0.47
20:57:15.472,-0.55,0.465
20:57:15.476,-0.555,0.48
20:57:15.480,-0.56,0.465
20:57:15.484,-0.575,0.475
20:57:15.488,-0.58,0.455
20:57:15.492,-0.565,0.49
20:57:15.496,-0.59,0.485
20:57:15.500,-0.56,0.47
20:57:15.504,-0.555,0.485
20:57:15.508,-0.545,0.48
20:57:15.512,-0.54,0.445
20:57:15.516,-0.52,0.45
20:57:15.520,-0.515,0.455
20:57:15.524,-0.49,0.455
20:57:15.528,-0.48,0.46
20:57:15.532,-0.46,0.44
20:57:15.536,-0.44,0.43
20:57:15.540,-0.435,0.44
20:57:15.544,-0.41,0.43
20:57:15.548,-0.39,0.44
20:57:15.552,-0.375,0.435
20:57:15.556,-0.38,0.44
20:57:15.560,-0.35,0.435
20:57:15.564,-0.34,0.43
20:57:15.568,-0.34,0.45
20:57:15.572,-0.365,0.45
20:57:15.576,-0.375,0.495
20:57:15.580,-0.41,0.48
20:57:15.584,-0.41,0.485
20:57:15.588,-0.415,0.475
20:57:15.592,-0.43,0.47
20:57:15.596,-0.42,0.45
20:57:15.600,-0.41,0.44
20:57:15.604,-0.425,0.425
20:57:15.608,-0.42,0.41
20:57:15.612,-0.425,0.425
20:57:15.616,-0.43,0.415
20:57:15.620,-0.43,0.395
20:57:15.624,-0.425,0.39
20:57:15.628,-0.4,0.41
20:57:15.632,-0.415,0.415
20:57:15.636,-0.415,0.415
20:57:15.640,-0.395,0.425
20:57:15.644,-0.41,0.435
20:57:15.648,-0.405,0.42
20:57:15.652,-0.395,0.42
20:57:15.656,-0.41,0.43
20:57:15.660,-0.395,0.4
20:57:15.664,-0.385,0.42
20:57:15.668,-0.37,0.445
20:57:15.672,-0.39,0.435
20:57:15.676,-0.39,0.45
20:57:15.680,-0.395,0.43
20:57:15.684,-0.425,0.465
20:57:15.688,-0.39,0.435
20:57:15.692,-0.4,0.435
20:57:15.696,-0.385,0.445
20:57:15.700,-0.375,0.43
20:57:15.704,-0.395,0.44
20:57:15.708,-0.385,0.415
20:57:15.712,-0.395,0.43
20:57:15.716,-0.37,0.44
20:57:15.720,-0.375,0.46
20:57:15.724,-0.34,0.46
20:57:15.728,-0.315,0.455
20:57:15.732,-0.27,0.455
20:57:15.736,-0.205,0.44
20:57:15.740,-0.12,0.46
20:57:15.744,-0.055,0.44
20:57:15.748,-0.01,0.425
20:57:15.752,0.03,0.405
20:57:15.756,0.035,0.335
20:57:15.760,0.05,0.335
20:57:15.764,0.03,0.33
20:57:15.768,0.04,0.3
20:57:15.772,0.085,0.225
20:57:15.776,0.29,0.075
20:57:15.780,0.605,-0.1
20:57:15.784,0.875,-0.38
20:57:15.788,1.025,-0.62
20:57:15.792,0.915,-0.785
20:57:15.796,0.51,-0.705
20:57:15.800,0.0,-0.35
20:57:15.804,-0.34,-0.015
20:57:15.808,-0.505,0.245
20:57:15.812,-0.57,0.36
20:57:15.816,-0.605,0.465
20:57:15.820,-0.61,0.485
20:57:15.824,-0.61,0.52
20:57:15.828,-0.625,0.52
20:57:15.832,-0.635,0.53
20:57:15.836,-0.65,0.52
20:57:15.840,-0.64,0.51
20:57:15.844,-0.635,0.505
20:57:15.848,-0.645,0.515
20:57:15.852,-0.64,0.485
20:57:15.856,-0.62,0.505
20:57:15.860,-0.615,0.475
20:57:15.864,-0.585,0.495
20:57:15.868,-0.595,0.5
20:57:15.872,-0.57,0.505
20:57:15.876,-0.565,0.505
20:57:15.880,-0.585,0.53
20:57:15.884,-0.575,0.525
20:57:15.888,-0.555,0.545
20:57:15.892,-0.545,0.545
20:57:15.896,-0.52,0.55
20:57:15.900,-0.52,0.545
20:57:15.904,-0.525,0.535
20:57:15.908,-0.525,0.525
20:57:15.912,-0.55,0.545
20:57:15.916,-0.555,0.56
20:57:15.920,-0.575,0.53
20:57:15.924,-0.565,0.54
20:57:15.928,-0.555,0.555
20:57:15.932,-0.52,0.56
20:57:15.936,-0.51,0.575
20:57:15.940,-0.505,0.58
20:57:15.944,-0.51,0.585
20:57:15.948,-0.51,0.59
20:57:15.952,-0.5,0.605
20:57:15.956,-0.505,0.59
20:57:15.960,-0.5,0.615
20:57:15.964,-0.48,0.595
20:57:15.968,-0.49,0.605
20:57:15.972,-0.48,0.57
20:57:15.976,-0.495,0.575
20:57:15.980,-0.48,0.59
20:57:15.984,-0.5,0.58
20:57:15.988,-0.505,0.59
20:57:15.992,-0.495,0.565
20:57:15.996,-0.48,0.57
20:57:16.000,-0.475,0.56
20:57:16.004,-0.475,0.545
20:57:16.008,-0.455,0.52
20:57:16.012,-0.47,0.525
20:57:16.016,-0.455,0.53
20:57:16.020,-0.445,0.515
20:57:16.024,-0.43,0.515
20:57:16.028,-0.425,0.505
20:57:16.032,-0.425,0.51
20:57:16.036,-0.425,0.485
20:57:16.040,-0.405,0.49
20:57:16.044,-0.405,0.48
20:57:16.048,-0.42,0.475
20:57:16.052,-0.44,0.46
20:57:16.056,-0.425,0.445
20:57:16.060,-0.435,0.445
20:57:16.064,-0.425,0.445
20:57:16.068,-0.42,0.455
20:57:16.072,-0.4,0.43
20:57:16.076,-0.415,0.465
20:57:16.080,-0.38,0.455
20:57:16.084,-0.355,0.46
20:57:16.088,-0.345,0.44
20:57:16.092,-0.325,0.43
20:57:16.096,-0.32,0.445
20:57:16.100,-0.305,0.455
20:57:16.104,-0.29,0.44
20:57:16.108,-0.28,0.45
20:57:16.112,-0.265,0.475
20:57:16.116,-0.245,0.485
20:57:16.120,-0.245,0.465
20:57:16.124,-0.255,0.48
20:57:16.128,-0.275,0.495
20:57:16.132,-0.285,0.505
20:57:16.136,-0.3,0.53
20:57:16.140,-0.315,0.56
20:57:16.144,-0.325,0.525
20:57:16.148,-0.35,0.55
20:57:16.152,-0.355,0.575
20:57:16.156,-0.35,0.565
20:57:16.160,-0.365,0.59
20:57:16.164,-0.365,0.575
20:57:16.168,-0.385,0.575
20:57:16.172,-0.395,0.555
20:57:16.176,-0.395,0.57
20:57:16.180,-0.4,0.565
20:57:16.184,-0.425,0.555
20:57:16.188,-0.415,0.535
20:57:16.192,-0.43,0.515
20:57:16.196,-0.43,0.525
20:57:16.200,-0.42,0.54
20:57:16.204,-0.435,0.535
20:57:16.208,-0.435,0.515
20:57:16.212,-0.46,0.535
20:57:16.216,-0.44,0.525
20:57:16.220,-0.45,0.54
20:57:16.224,-0.445,0.53
20:57:16.228,-0.435,0.515
20:57:16.232,-0.44,0.545
20:57:16.236,-0.435,0.525
20:57:16.240,-0.42,0.515
20:57:16.244,-0.425,0.54
20:57:16.248,-0.41,0.545
20:57:16.252,-0.41,0.53
20:57:16.256,-0.425,0.52
20:57:16.260,-0.425,0.515
20:57:16.264,-0.395,0.515
20:57:16.268,-0.395,0.52
20:57:16.272,-0.415,0.535
20:57:16.276,-0.43,0.515
20:57:16.280,-0.45,0.52
20:57:16.284,-0.44,0.53
20:57:16.288,-0.42,0.51
20:57:16.292,-0.41,0.505
20:57:16.296,-0.385,0.49
20:57:16.300,-0.335,0.485
20:57:16.304,-0.315,0.51
20:57:16.308,-0.275,0.505
20:57:16.312,-0.24,0.535
20:57:16.316,-0.22,0.535
20:57:16.320,-0.225,0.55
20:57:16.324,-0.23,0.55
20:57:16.328,-0.235,0.54
20:57:16.332,-0.28,0.555
20:57:16.336,-0.29,0.565
20:57:16.340,-0.31,0.55
20:57:16.344,-0.315,0.55
20:57:16.348,-0.33,0.57
20:57:16.352,-0.36,0.575
20:57:16.356,-0.35,0.56
20:57:16.360,-0.38,0.57
20:57:16.364,-0.375,0.55
20:57:16.368,-0.39,0.53
20:57:16.372,-0.395,0.56
20:57:16.376,-0.42,0.535
20:57:16.380,-0.44,0.515
20:57:16.384,-0.455,0.505
20:57:16.388,-0.445,0.495
20:57:16.392,-0.475,0.465
20:57:16.396,-0.46,0.48
20:57:16.400,-0.48,0.495
20:57:16.404,-0.48,0.5
20:57:16.408,-0.495,0.475
20:57:16.412,-0.49,0.47
20:57:16.416,-0.505,0.5
20:57:16.420,-0.505,0.485
20:57:16.424,-0.52,0.475
20:57:16.428,-0.525,0.485
20:57:16.432,-0.55,0.475
20:57:16.436,-0.53,0.485
20:57:16.440,-0.54,0.475
20:57:16.444,-0.525,0.465
20:57:16.448,-0.495,0.485
20:57:16.452,-0.48,0.475
20:57:16.456,-0.475,0.48
20:57:16.460,-0.465,0.48
20:57:16.464,-0.46,0.485
20:57:16.468,-0.46,0.485
20:57:16.472,-0.455,0.475
20:57:16.476,-0.43,0.465
20:57:16.480,-0.42,0.46
20:57:16.484,-0.4,0.46
20:57:16.488,-0.36,0.49
20:57:16.492,-0.36,0.485
20:57:16.496,-0.33,0.48
20:57:16.500,-0.295,0.48
20:57:16.504,-0.275,0.465
20:57:16.508,-0.26,0.5
20:57:16.512,-0.255,0.48
20:57:16.516,-0.23,0.49
20:57:16.520,-0.245,0.475
20:57:16.524,-0.25,0.48
20:57:16.528,-0.27,0.49
20:57:16.532,-0.31,0.495
20:57:16.536,-0.32,0.475
20:57:16.540,-0.365,0.48
20:57:16.544,-0.36,0.455
20:57:16.548,-0.345,0.47
20:57:16.552,-0.335,0.435
20:57:16.556,-0.34,0.435
20:57:16.560,-0.355,0.43
20:57:16.564,-0.365,0.45
20:57:16.568,-0.375,0.44
20:57:16.572,-0.37,0.43
20:57:16.576,-0.345,0.42
20:57:16.580,-0.3,0.425
20:57:16.584,-0.2,0.43
20:57:16.588,-0.13,0.425
20:57:16.592,-0.065,0.39
20:57:16.596,0.0,0.38
20:57:16.600,0.035,0.335
20:57:16.604,0.09,0.305
20:57:16.608,0.11,0.315
20:57:16.612,0.1,0.29
20:57:16.616,0.075,0.235
20:57:16.620,0.15,0.12
20:57:16.624,0.335,-0.02
20:57:16.628,0.635,-0.26
20:57:16.632,0.865,-0.51
20:57:16.636,0.895,-0.725
20:57:16.640,0.65,-0.745
20:57:16.644,0.18,-0.55
20:57:16.648,-0.215,-0.195
20:57:16.652,-0.445,0.08
20:57:16.656,-0.53,0.24
20:57:16.660,-0.58,0.355
20:57:16.664,-0.6,0.445
20:57:16.668,-0.615,0.465
20:57:16.672,-0.63,0.495
20:57:16.676,-0.66,0.515
20:57:16.680,-0.64,0.5
20:57:16.684,-0.635,0.49
20:57:16.688,-0.58,0.47
20:57:16.692,-0.575,0.445
20:57:16.696,-0.515,0.455
20:57:16.700,-0.495,0.46
20:57:16.704,-0.475,0.49
20:57:16.708,-0.47,0.515
20:57:16.712,-0.425,0.515
20:57:16.716,-0.42,0.535
20:57:16.720,-0.44,0.54
20:57:16.724,-0.48,0.54
20:57:16.728,-0.48,0.525
20:57:16.732,-0.505,0.53
20:57:16.736,-0.53,0.515
20:57:16.740,-0.54,0.48
20:57:16.744,-0.565,0.46
20:57:16.748,-0.58,0.47
20:57:16.752,-0.595,0.475
20:57:16.756,-0.585,0.465
20:57:16.760,-0.595,0.455
20:57:16.764,-0.59,0.445
20:57:16.768,-0.61,0.435
20:57:16.772,-0.64,0.42
20:57:16.776,-0.66,0.425
20:57:16.780,-0.67,0.42
20:57:16.784,-0.675,0.425
20:57:16.788,-0.66,0.42
20:57:16.792,-0.655,0.405
20:57:16.796,-0.66,0.405
20:57:16.800,-0.655,0.44
20:57:16.804,-0.675,0.425
20:57:16.808,-0.66,0.415
20:57:16.812,-0.66,0.385
20:57:16.816,-0.665,0.4
20:57:16.820,-0.67,0.395
20:57:16.824,-0.665,0.42
20:57:16.828,-0.665,0.415
20:57:16.832,-0.655,0.405
20:57:16.836,-0.655,0.395
20:57:16.840,-0.665,0.375
20:57:16.844,-0.66,0.385
20:57:16.848,-0.66,0.36
20:57:16.852,-0.635,0.37
20:57:16.856,-0.63,0.36
20:57:16.860,-0.59,0.38
20:57:16.864,-0.58,0.335
20:57:16.868,-0.56,0.325
20:57:16.872,-0.57,0.325
20:57:16.876,-0.54,0.31
20:57:16.880,-0.505,0.31
20:57:16.884,-0.48,0.315
20:57:16.888,-0.45,0.315
20:57:16.892,-0.425,0.315
20:57:16.896,-0.375,0.34
20:57:16.900,-0.365,0.365
20:57:16.904,-0.32,0.365
20:57:16.908,-0.285,0.37
20:57:16.912,-0.255,0.365
20:57:16.916,-0.26,0.395
20:57:16.920,-0.235,0.4
20:57:16.924,-0.28,0.385
20:57:16.928,-0.275,0.38
20:57:16.932,-0.28,0.37
20:57:16.936,-0.325,0.365
20:57:16.940,-0.32,0.345
20:57:16.944,-0.355,0.355
20:57:16.948,-0.375,0.35
20:57:16.952,-0.385,0.355
20:57:16.956,-0.4,0.345
20:57:16.960,-0.4,0.34
20:57:16.964,-0.435,0.355
20:57:16.968,-0.44,0.37
20:57:16.972,-0.45,0.34
20:57:16.976,-0.44,0.335
20:57:16.980,-0.455,0.345
20:57:16.984,-0.46,0.335
20:57:16.988,-0.47,0.335
20:57:16.992,-0.47,0.325
20:57:16.996,-0.46,0.34
20:57:17.000,-0.485,0.33
20:57:17.004,-0.485,0.345
20:57:17.008,-0.5,0.31
20:57:17.012,-0.465,0.335
20:57:17.016,-0.48,0.34
20:57:17.020,-0.49,0.34
20:57:17.024,-0.475,0.335
20:57:17.028,-0.485,0.345
20:57:17.032,-0.47,0.355
20:57:17.036,-0.475,0.335
20:57:17.040,-0.455,0.34
20:57:17.044,-0.44,0.325
20:57:17.048,-0.45,0.345
20:57:17.052,-0.42,0.32
20:57:17.056,-0.425,0.305
20:57:17.060,-0.425,0.315
20:57:17.064,-0.415,0.33
20:57:17.068,-0.415,0.325
20:57:17.072,-0.425,0.335
20:57:17.076,-0.4,0.325
20:57:17.080,-0.39,0.35
20:57:17.084,-0.4,0.35
20:57:17.088,-0.375,0.37
20:57:17.092,-0.36,0.35
20:57:17.096,-0.35,0.365
20:57:17.100,-0.315,0.38
20:57:17.104,-0.295,0.39
20:57:17.108,-0.27,0.39
20:57:17.112,-0.25,0.395
20:57:17.116,-0.225,0.385
20:57:17.120,-0.21,0.415
20:57:17.124,-0.19,0.4
20:57:17.128,-0.19,0.455
20:57:17.132,-0.21,0.445
20:57:17.136,-0.22,0.475
20:57:17.140,-0.225,0.465
20:57:17.144,-0.225,0.495
20:57:17.148,-0.225,0.5
20:57:17.152,-0.215,0.495
20:57:17.156,-0.16,0.515
20:57:17.160,-0.115,0.49
20:57:17.164,-0.035,0.48
20:57:17.168,0.04,0.425
20:57:17.172,0.09,0.37
20:57:17.176,0.12,0.29
20:57:17.180,0.145,0.25
20:57:17.184,0.185,0.28
20:57:17.188,0.185,0.24
20:57:17.192,0.19,0.17
20:57:17.196,0.33,0.075
20:57:17.200,0.58,-0.065
20:57:17.204,0.875,-0.295
20:57:17.208,1.02,-0.525
20:57:17.212,0.92,-0.69
20:57:17.216,0.525,-0.68
20:57:17.220,0.045,-0.39
20:57:17.224,-0.265,-0.04
20:57:17.228,-0.405,0.17
20:57:17.232,-0.435,0.305
20:57:17.236,-0.445,0.435
20:57:17.240,-0.47,0.485
20:57:17.244,-0.49,0.535
20:57:17.248,-0.49,0.545
20:57:17.252,-0.495,0.56
20:57:17.256,-0.47,0.53
20:57:17.260,-0.51,0.535
20:57:17.264,-0.505,0.52
20:57:17.268,-0.485,0.525
20:57:17.272,-0.505,0.53
20:57:17.276,-0.485,0.535
20:57:17.280,-0.49,0.525
20:57:17.284,-0.5,0.535
20:57:17.288,-0.535,0.55
20:57:17.292,-0.53,0.545
20:57:17.296,-0.53,0.555
20:57:17.300,-0.525,0.56
20:57:17.304,-0.51,0.55
20:57:17.308,-0.495,0.555
20:57:17.312,-0.485,0.565
20:57:17.316,-0.46,0.575
20:57:17.320,-0.45,0.545
20:57:17.324,-0.44,0.59
20:57:17.328,-0.465,0.59
20:57:17.332,-0.48,0.605
20:57:17.336,-0.5,0.595
20:57:17.340,-0.53,0.625
20:57:17.344,-0.54,0.625
20:57:17.348,-0.545,0.625
20:57:17.352,-0.565,0.625
20:57:17.356,-0.565,0.64
20:57:17.360,-0.57,0.655
20:57:17.364,-0.565,0.675
20:57:17.368,-0.565,0.67
20:57:17.372,-0.555,0.685
20:57:17.376,-0.545,0.665
20:57:17.380,-0.54,0.66
20:57:17.384,-0.54,0.655
20:57:17.388,-0.53,0.68
20:57:17.392,-0.51,0.68
20:57:17.396,-0.505,0.635
20:57:17.400,-0.505,0.635
20:57:17.404,-0.525,0.62
20:57:17.408,-0.51,0.615
20:57:17.412,-0.495,0.575
20:57:17.416,-0.485,0.545
20:57:17.420,-0.495,0.515
20:57:17.424,-0.485,0.48
20:57:17.428,-0.465,0.445
20:57:17.432,-0.475,0.435
20:57:17.436,-0.47,0.425
20:57:17.440,-0.46,0.435
20:57:17.444,-0.46,0.41
20:57:17.448,-0.43,0.41
20:57:17.452,-0.43,0.4
20:57:17.456,-0.405,0.41
20:57:17.460,-0.4,0.405
20:57:17.464,-0.395,0.415
20:57:17.468,-0.395,0.43
20:57:17.472,-0.41,0.435
20:57:17.476,-0.395,0.425
20:57:17.480,-0.385,0.44
20:57:17.484,-0.365,0.445
20:57:17.488,-0.36,0.45
20:57:17.492,-0.365,0.47
20:57:17.496,-0.33,0.455
20:57:17.500,-0.33,0.46
20:57:17.504,-0.295,0.47
20:57:17.508,-0.27,0.475
20:57:17.512,-0.26,0.49
20:57:17.516,-0.27,0.48
20:57:17.520,-0.25,0.5
20:57:17.524,-0.265,0.52
20:57:17.528,-0.275,0.53
20:57:17.532,-0.295,0.52
20:57:17.536,-0.32,0.53
20:57:17.540,-0.335,0.52
20:57:17.544,-0.355,0.54
20:57:17.548,-0.385,0.54
20:57:17.552,-0.37,0.56
20:57:17.556,-0.375,0.565
20:57:17.560,-0.4,0.57
20:57:17.564,-0.4,0.59
20:57:17.568,-0.375,0.565
20:57:17.572,-0.38,0.56
20:57:17.576,-0.385,0.56
20:57:17.580,-0.36,0.55
20:57:17.584,-0.375,0.565
20:57:17.588,-0.355,0.6
20:57:17.592,-0.32,0.585
20:57:17.596,-0.315,0.58
20:57:17.600,-0.31,0.59
20:57:17.604,-0.315,0.59
20:57:17.608,-0.3,0.585
20:57:17.612,-0.305,0.59
20:57:17.616,-0.31,0.575
20:57:17.620,-0.295,0.57
20:57:17.624,-0.33,0.575
20:57:17.628,-0.32,0.54
20:57:17.632,-0.34,0.49
20:57:17.636,-0.335,0.485
20:57:17.640,-0.33,0.46
20:57:17.644,-0.32,0.46
20:57:17.648,-0.29,0.455
20:57:17.652,-0.27,0.475
20:57:17.656,-0.235,0.465
20:57:17.660,-0.16,0.465
20:57:17.664,-0.08,0.465
20:57:17.668,-0.02,0.45
20:57:17.672,0.02,0.42
20:57:17.676,0.05,0.375
20:57:17.680,0.09,0.355
20:57:17.684,0.09,0.335
20:57:17.688,0.09,0.32
20:57:17.692,0.09,0.22
20:57:17.696,0.25,0.135
20:57:17.700,0.54,-0.05
20:57:17.704,0.855,-0.3
20:57:17.708,1.07,-0.56
20:57:17.712,1.02,-0.75
20:57:17.716,0.7,-0.735
20:57:17.720,0.225,-0.455
20:57:17.724,-0.14,-0.06
20:57:17.728,-0.32,0.235
20:57:17.732,-0.395,0.415
20:57:17.736,-0.455,0.545
20:57:17.740,-0.505,0.6
20:57:17.744,-0.515,0.63
20:57:17.748,-0.535,0.655
20:57:17.752,-0.56,0.67
20:57:17.756,-0.56,0.675
20:57:17.760,-0.57,0.665
20:57:17.764,-0.565,0.645
20:57:17.768,-0.56,0.655
20:57:17.772,-0.57,0.645
20:57:17.776,-0.56,0.655
20:57:17.780,-0.555,0.67
20:57:17.784,-0.54,0.64
20:57:17.788,-0.555,0.665
20:57:17.792,-0.55,0.62
20:57:17.796,-0.56,0.655
20:57:17.800,-0.52,0.665
20:57:17.804,-0.52,0.69
20:57:17.808,-0.515,0.675
20:57:17.812,-0.505,0.685
20:57:17.816,-0.49,0.67
20:57:17.820,-0.485,0.65
20:57:17.824,-0.485,0.665
20:57:17.828,-0.475,0.65
20:57:17.832,-0.5,0.635
20:57:17.836,-0.51,0.645
20:57:17.840,-0.54,0.63
20:57:17.844,-0.545,0.61
20:57:17.848,-0.565,0.63
20:57:17.852,-0.58,0.615
20:57:17.856,-0.555,0.615
20:57:17.860,-0.56,0.62
20:57:17.864,-0.565,0.62
20:57:17.868,-0.57,0.61
20:57:17.872,-0.555,0.615
20:57:17.876,-0.56,0.595
20:57:17.880,-0.56,0.615
20:57:17.884,-0.575,0.6
20:57:17.888,-0.555,0.6
20:57:17.892,-0.51,0.6
20:57:17.896,-0.505,0.595
20:57:17.900,-0.475,0.615
20:57:17.904,-0.42,0.6
20:57:17.908,-0.4,0.61
20:57:17.912,-0.365,0.61
20:57:17.916,-0.345,0.615
20:57:17.920,-0.34,0.61
20:57:17.924,-0.34,0.63
20:57:17.928,-0.325,0.625
20:57:17.932,-0.335,0.615
20:57:17.936,-0.325,0.605
20:57:17.940,-0.315,0.605
20:57:17.944,-0.345,0.625
20:57:17.948,-0.34,0.605
20:57:17.952,-0.345,0.625
20:57:17.956,-0.36,0.625
20:57:17.960,-0.365,0.615
20:57:17.964,-0.36,0.635
20:57:17.968,-0.36,0.615
20:57:17.972,-0.33,0.59
20:57:17.976,-0.32,0.595
20:57:17.980,-0.32,0.59
20:57:17.984,-0.32,0.6
20:57:17.988,-0.32,0.61
20:57:17.992,-0.345,0.615
20:57:17.996,-0.315,0.605
20:57:18.000,-0.325,0.605
20:57:18.004,-0.34,0.615
20:57:18.008,-0.305,0.605
20:57:18.012,-0.3,0.625
20:57:18.016,-0.26,0.605
20:57:18.020,-0.23,0.6
20:57:18.024,-0.235,0.595
20:57:18.028,-0.245,0.61
20:57:18.032,-0.255,0.595
20:57:18.036,-0.255,0.59
20:57:18.040,-0.275,0.59
20:57:18.044,-0.28,0.6
20:57:18.048,-0.29,0.605
20:57:18.052,-0.305,0.59
20:57:18.056,-0.295,0.605
20:57:18.060,-0.29,0.625
20:57:18.064,-0.32,0.575
20:57:18.068,-0.315,0.585
20:57:18.072,-0.325,0.59
20:57:18.076,-0.345,0.595
20:57:18.080,-0.345,0.59
20:57:18.084,-0.33,0.565
20:57:18.088,-0.32,0.56
20:57:18.092,-0.335,0.575
20:57:18.096,-0.325,0.57
20:57:18.100,-0.295,0.58
20:57:18.104,-0.275,0.56
20:57:18.108,-0.265,0.56
20:57:18.112,-0.27,0.565
20:57:18.116,-0.23,0.575
20:57:18.120,-0.23,0.575
20:57:18.124,-0.215,0.58
20:57:18.128,-0.22,0.585
20:57:18.132,-0.22,0.59
20:57:18.136,-0.24,0.57
20:57:18.140,-0.245,0.595
20:57:18.144,-0.27,0.585
20:57:18.148,-0.29,0.58
20:57:18.152,-0.325,0.625
20:57:18.156,-0.315,0.615
20:57:18.160,-0.31,0.625
20:57:18.164,-0.31,0.625
20:57:18.168,-0.32,0.63
20:57:18.172,-0.32,0.615
20:57:18.176,-0.315,0.61
20:57:18.180,-0.33,0.59
20:57:18.184,-0.34,0.595
20:57:18.188,-0.35,0.595
20:57:18.192,-0.37,0.615
20:57:18.196,-0.375,0.62
20:57:18.200,-0.38,0.625
20:57:18.204,-0.39,0.625
20:57:18.208,-0.365,0.65
20:57:18.212,-0.355,0.61
20:57:18.216,-0.335,0.59
20:57:18.220,-0.305,0.58
20:57:18.224,-0.285,0.555
20:57:18.228,-0.295,0.53
20:57:18.232,-0.275,0.525
20:57:18.236,-0.285,0.52
20:57:18.240,-0.27,0.51
20:57:18.244,-0.27,0.505
20:57:18.248,-0.275,0.51
20:57:18.252,-0.295,0.53
20:57:18.256,-0.28,0.515
20:57:18.260,-0.285,0.54
20:57:18.264,-0.285,0.55
20:57:18.268,-0.3,0.52
20:57:18.272,-0.305,0.545
20:57:18.276,-0.315,0.545
20:57:18.280,-0.31,0.535
20:57:18.284,-0.32,0.535
20:57:18.288,-0.32,0.525
20:57:18.292,-0.34,0.53
20:57:18.296,-0.335,0.535
20:57:18.300,-0.33,0.54
20:57:18.304,-0.32,0.54
20:57:18.308,-0.335,0.52
20:57:18.312,-0.33,0.51
20:57:18.316,-0.295,0.505
20:57:18.320,-0.28,0.54
20:57:18.324,-0.285,0.525
20:57:18.328,-0.255,0.54
20:57:18.332,-0.23,0.555
20:57:18.336,-0.24,0.53
20:57:18.340,-0.265,0.55
20:57:18.344,-0.27,0.565
20:57:18.348,-0.24,0.555
20:57:18.352,-0.28,0.565
20:57:18.356,-0.305,0.575
20:57:18.360,-0.33,0.57
20:57:18.364,-0.3,0.59
20:57:18.368,-0.325,0.595
20:57:18.372,-0.31,0.595
20:57:18.376,-0.31,0.61
20:57:18.380,-0.305,0.61
20:57:18.384,-0.3,0.61
20:57:18.388,-0.33,0.595
20:57:18.392,-0.345,0.58
20:57:18.396,-0.345,0.615
20:57:18.400,-0.34,0.58
20:57:18.404,-0.34,0.575
20:57:18.408,-0.34,0.565
20:57:18.412,-0.33,0.55
20:57:18.416,-0.345,0.555
20:57:18.420,-0.335,0.54
20:57:18.424,-0.34,0.545
20:57:18.428,-0.335,0.53
20:57:18.432,-0.335,0.57
20:57:18.436,-0.335,0.545
20:57:18.440,-0.34,0.52
20:57:18.444,-0.335,0.515
20:57:18.448,-0.34,0.525
20:57:18.452,-0.34,0.545
20:57:18.456,-0.34,0.53
20:57:18.460,-0.33,0.525
20:57:18.464,-0.345,0.51
20:57:18.468,-0.33,0.52
20:57:18.472,-0.33,0.51
20:57:18.476,-0.305,0.52
20:57:18.480,-0.32,0.505
20:57:18.484,-0.315,0.51
20:57:18.488,-0.32,0.525
20:57:18.492,-0.305,0.54
20:57:18.496,-0.285,0.53
20:57:18.500,-0.22,0.525
20:57:18.504,-0.135,0.515
20:57:18.508,-0.06,0.53
20:57:18.512,0.01,0.505
20:57:18.516,0.045,0.46
20:57:18.520,0.09,0.45
20:57:18.524,0.135,0.425
20:57:18.528,0.165,0.415
20:57:18.532,0.165,0.375
20:57:18.536,0.195,0.305
20:57:18.540,0.31,0.19
20:57:18.544,0.545,0.06
20:57:18.548,0.87,-0.19
20:57:18.552,1.11,-0.455
20:57:18.556,1.16,-0.625
20:57:18.560,0.95,-0.7
20:57:18.564,0.505,-0.475
20:57:18.568,0.045,-0.1
20:57:18.572,-0.19,0.255
20:57:18.576,-0.33,0.45
20:57:18.580,-0.39,0.565
20:57:18.584,-0.43,0.645
20:57:18.588,-0.435,0.66
20:57:18.592,-0.45,0.675
20:57:18.596,-0.47,0.675
20:57:18.600,-0.47,0.68
20:57:18.604,-0.485,0.675
20:57:18.608,-0.5,0.685
20:57:18.612,-0.51,0.665
20:57:18.616,-0.515,0.655
20:57:18.620,-0.535,0.67
20:57:18.624,-0.545,0.675
20:57:18.628,-0.555,0.665
20:57:18.632,-0.565,0.675
20:57:18.636,-0.58,0.665
20:57:18.640,-0.58,0.65
20:57:18.644,-0.6,0.645
20:57:18.648,-0.595,0.65
20:57:18.652,-0.595,0.64
20:57:18.656,-0.585,0.635
20:57:18.660,-0.595,0.62
20:57:18.664,-0.605,0.605
20:57:18.668,-0.6,0.605
20:57:18.672,-0.615,0.6
20:57:18.676,-0.605,0.605
20:57:18.680,-0.62,0.625
20:57:18.684,-0.605,0.605
20:57:18.688,-0.59,0.625
20:57:18.692,-0.605,0.63
20:57:18.696,-0.595,0.63
20:57:18.700,-0.595,0.625
20:57:18.704,-0.59,0.66
20:57:18.708,-0.58,0.66
20:57:18.712,-0.59,0.65
20:57:18.716,-0.59,0.685
20:57:18.720,-0.565,0.675
20:57:18.724,-0.565,0.675
20:57:18.728,-0.51,0.675
20:57:18.732,-0.485,0.685
20:57:18.736,-0.465,0.705
20:57:18.740,-0.475,0.69
20:57:18.744,-0.46,0.705
20:57:18.748,-0.48,0.715
20:57:18.752,-0.47,0.705
20:57:18.756,-0.475,0.73
20:57:18.760,-0.455,0.705
20:57:18.764,-0.45,0.705
20:57:18.768,-0.45,0.695
20:57:18.772,-0.44,0.67
20:57:18.776,-0.44,0.67
20:57:18.780,-0.42,0.675
20:57:18.784,-0.435,0.68
20:57:18.788,-0.425,0.645
20:57:18.792,-0.43,0.655
20:57:18.796,-0.415,0.655
20:57:18.800,-0.4,0.64
20:57:18.804,-0.4,0.63
20:57:18.808,-0.41,0.625
20:57:18.812,-0.365,0.63
20:57:18.816,-0.375,0.61
20:57:18.820,-0.395,0.615
20:57:18.824,-0.385,0.615
20:57:18.828,-0.38,0.6
20:57:18.832,-0.365,0.625
20:57:18.836,-0.375,0.595
20:57:18.840,-0.38,0.605
20:57:18.844,-0.36,0.585
20:57:18.848,-0.405,0.59
20:57:18.852,-0.41,0.585
20:57:18.856,-0.42,0.58
20:57:18.860,-0.4,0.59
20:57:18.864,-0.405,0.605
20:57:18.868,-0.395,0.62
20:57:18.872,-0.39,0.6
20:57:18.876,-0.395,0.62
20:57:18.880,-0.4,0.625
20:57:18.884,-0.39,0.615
20:57:18.888,-0.395,0.63
20:57:18.892,-0.395,0.65
20:57:18.896,-0.41,0.65
20:57:18.900,-0.395,0.635
20:57:18.904,-0.395,0.65
20:57:18.908,-0.385,0.65
20:57:18.912,-0.37,0.645
20:57:18.916,-0.355,0.655
20:57:18.920,-0.335,0.705
20:57:18.924,-0.335,0.69
20:57:18.928,-0.32,0.7
20:57:18.932,-0.325,0.7
20:57:18.936,-0.335,0.695
20:57:18.940,-0.335,0.73
20:57:18.944,-0.345,0.715
20:57:18.948,-0.32,0.74
20:57:18.952,-0.3,0.715
20:57:18.956,-0.295,0.72
20:57:18.960,-0.3,0.7
20:57:18.964,-0.3,0.71
20:57:18.968,-0.305,0.72
20:57:18.972,-0.34,0.74
20:57:18.976,-0.35,0.725
20:57:18.980,-0.335,0.7
20:57:18.984,-0.355,0.69
20:57:18.988,-0.365,0.705
20:57:18.992,-0.37,0.69
20:57:18.996,-0.38,0.685
20:57:19.000,-0.365,0.695
20:57:19.004,-0.39,0.69
20:57:19.008,-0.38,0.67
20:57:19.012,-0.39,0.705
20:57:19.016,-0.395,0.69
20:57:19.020,-0.39,0.685
20:57:19.024,-0.39,0.665
20:57:19.028,-0.37,0.695
20:57:19.032,-0.385,0.665
20:57:19.036,-0.375,0.665
20:57:19.040,-0.395,0.65
20:57:19.044,-0.38,0.635
20:57:19.048,-0.375,0.635
20:57:19.052,-0.33,0.635
20:57:19.056,-0.25,0.64
20:57:19.060,-0.185,0.65
20:57:19.064,-0.115,0.62
20:57:19.068,-0.04,0.585
20:57:19.072,0.02,0.565
20:57:19.076,0.045,0.53
20:57:19.080,0.065,0.52
20:57:19.084,0.08,0.49
20:57:19.088,0.075,0.46
20:57:19.092,0.09,0.385
20:57:19.096,0.265,0.265
20:57:19.100,0.545,0.05
20:57:19.104,0.86,-0.185
20:57:19.108,1.0,-0.415
20:57:19.112,0.845,-0.57
20:57:19.116,0.425,-0.47
20:57:19.120,-0.01,-0.16
20:57:19.124,-0.265,0.18
20:57:19.128,-0.385,0.4
20:57:19.132,-0.42,0.565
20:57:19.136,-0.43,0.635
20:57:19.140,-0.41,0.72
20:57:19.144,-0.41,0.765
20:57:19.148,-0.415,0.79
20:57:19.152,-0.43,0.8
20:57:19.156,-0.44,0.76
20:57:19.160,-0.45,0.745
20:57:19.164,-0.47,0.755
20:57:19.168,-0.475,0.74
20:57:19.172,-0.5,0.735
20:57:19.176,-0.51,0.74
20:57:19.180,-0.52,0.735
20:57:19.184,-0.535,0.725
20:57:19.188,-0.55,0.725
20:57:19.192,-0.56,0.71
20:57:19.196,-0.59,0.71
20:57:19.200,-0.59,0.71
20:57:19.204,-0.62,0.715
20:57:19.208,-0.61,0.7
20:57:19.212,-0.61,0.7
20:57:19.216,-0.625,0.71
20:57:19.220,-0.625,0.7
20:57:19.224,-0.63,0.7
20:57:19.228,-0.64,0.72
20:57:19.232,-0.655,0.695
20:57:19.236,-0.65,0.7
20:57:19.240,-0.67,0.705
20:57:19.244,-0.65,0.71
20:57:19.248,-0.645,0.665
20:57:19.252,-0.65,0.7
20:57:19.256,-0.66,0.69
20:57:19.260,-0.64,0.67
20:57:19.264,-0.635,0.675
20:57:19.268,-0.635,0.67
20:57:19.272,-0.665,0.71
20:57:19.276,-0.64,0.685
20:57:19.280,-0.61,0.69
20:57:19.284,-0.62,0.68
20:57:19.288,-0.595,0.695
20:57:19.292,-0.62,0.695
20:57:19.296,-0.615,0.68
20:57:19.300,-0.585,0.695
20:57:19.304,-0.55,0.695
20:57:19.308,-0.52,0.705
20:57:19.312,-0.49,0.69
20:57:19.316,-0.445,0.685
20:57:19.320,-0.415,0.67
20:57:19.324,-0.395,0.655
20:57:19.328,-0.38,0.62
20:57:19.332,-0.38,0.59
20:57:19.336,-0.375,0.58
20:57:19.340,-0.36,0.585
20:57:19.344,-0.35,0.57
20:57:19.348,-0.32,0.56
20:57:19.352,-0.315,0.56
20:57:19.356,-0.31,0.59
20:57:19.360,-0.325,0.555
20:57:19.364,-0.305,0.565
20:57:19.368,-0.29,0.56
20:57:19.372,-0.305,0.52
20:57:19.376,-0.31,0.545
20:57:19.380,-0.32,0.535
20:57:19.384,-0.345,0.535
20:57:19.388,-0.345,0.55
20:57:19.392,-0.385,0.57
20:57:19.396,-0.385,0.56
20:57:19.400,-0.41,0.53
20:57:19.404,-0.41,0.52
20:57:19.408,-0.43,0.555
20:57:19.412,-0.46,0.525
20:57:19.416,-0.475,0.53
20:57:19.420,-0.485,0.525
20:57:19.424,-0.48,0.52
20:57:19.428,-0.495,0.525
20:57:19.432,-0.48,0.5
20:57:19.436,-0.485,0.52
20:57:19.440,-0.46,0.525
20:57:19.444,-0.47,0.52
20:57:19.448,-0.46,0.515
20:57:19.452,-0.495,0.495
20:57:19.456,-0.49,0.51
20:57:19.460,-0.48,0.495
20:57:19.464,-0.48,0.5
20:57:19.468,-0.465,0.51
20:57:19.472,-0.475,0.515
20:57:19.476,-0.475,0.49
20:57:19.480,-0.46,0.47
20:57:19.484,-0.42,0.475
20:57:19.488,-0.41,0.5
20:57:19.492,-0.42,0.515
20:57:19.496,-0.385,0.49
20:57:19.500,-0.37,0.515
20:57:19.504,-0.375,0.505
20:57:19.508,-0.36,0.525
20:57:19.512,-0.32,0.515
20:57:19.516,-0.325,0.545
20:57:19.520,-0.3,0.54
20:57:19.524,-0.3,0.515
20:57:19.528,-0.31,0.49
20:57:19.532,-0.3,0.49
20:57:19.536,-0.325,0.495
20:57:19.540,-0.36,0.485
20:57:19.544,-0.325,0.475
20:57:19.548,-0.32,0.485
20:57:19.552,-0.315,0.465
20:57:19.556,-0.315,0.44
20:57:19.560,-0.335,0.435
20:57:19.564,-0.35,0.405
20:57:19.568,-0.34,0.425
20:57:19.572,-0.355,0.415
20:57:19.576,-0.365,0.42
20:57:19.580,-0.34,0.435
20:57:19.584,-0.285,0.44
20:57:19.588,-0.235,0.42
20:57:19.592,-0.18,0.395
20:57:19.596,-0.08,0.415
20:57:19.600,-0.02,0.37
20:57:19.604,0.04,0.33
20:57:19.608,0.105,0.3
20:57:19.612,0.16,0.29
20:57:19.616,0.19,0.285
20:57:19.620,0.165,0.25
20:57:19.624,0.24,0.2
20:57:19.628,0.435,0.075
20:57:19.632,0.71,-0.095
20:57:19.636,0.93,-0.32
20:57:19.640,0.89,-0.53
20:57:19.644,0.57,-0.585
20:57:19.648,0.07,-0.42
20:57:19.652,-0.32,-0.12
20:57:19.656,-0.495,0.115
20:57:19.660,-0.57,0.24
20:57:19.664,-0.605,0.35
20:57:19.668,-0.62,0.425
20:57:19.672,-0.615,0.495
20:57:19.676,-0.65,0.515
20:57:19.680,-0.685,0.51
20:57:19.684,-0.675,0.475
20:57:19.688,-0.655,0.475
20:57:19.692,-0.675,0.485
20:57:19.696,-0.64,0.45
20:57:19.700,-0.64,0.46
20:57:19.704,-0.615,0.455
20:57:19.708,-0.57,0.45
20:57:19.712,-0.545,0.465
20:57:19.716,-0.515,0.49
20:57:19.720,-0.48,0.465
20:57:19.724,-0.48,0.485
20:57:19.728,-0.455,0.515
20:57:19.732,-0.44,0.535
20:57:19.736,-0.435,0.535
20:57:19.740,-0.46,0.535
20:57:19.744,-0.495,0.545
20:57:19.748,-0.53,0.57
20:57:19.752,-0.54,0.59
20:57:19.756,-0.55,0.575
20:57:19.760,-0.575,0.595
20:57:19.764,-0.585,0.62
20:57:19.768,-0.56,0.615
20:57:19.772,-0.585,0.615
20:57:19.776,-0.61,0.6
20:57:19.780,-0.605,0.615
20:57:19.784,-0.635,0.61
20:57:19.788,-0.67,0.59
20:57:19.792,-0.685,0.62
20:57:19.796,-0.72,0.615
20:57:19.800,-0.7,0.595
20:57:19.804,-0.705,0.615
20:57:19.808,-0.695,0.6
20:57:19.812,-0.72,0.595
20:57:19.816,-0.72,0.605
20:57:19.820,-0.705,0.62
20:57:19.824,-0.675,0.61
20:57:19.828,-0.695,0.61
20:57:19.832,-0.685,0.61
20:57:19.836,-0.655,0.615
20:57:19.840,-0.66,0.605
20:57:19.844,-0.64,0.595
20:57:19.848,-0.62,0.58
20:57:19.852,-0.595,0.58
20:57:19.856,-0.6,0.585
20:57:19.860,-0.57,0.575
20:57:19.864,-0.575,0.56
20:57:19.868,-0.535,0.58
20:57:19.872,-0.54,0.58
20:57:19.876,-0.545,0.565
20:57:19.880,-0.53,0.54
20:57:19.884,-0.495,0.555
20:57:19.888,-0.475,0.56
20:57:19.892,-0.465,0.55
20:57:19.896,-0.45,0.525
20:57:19.900,-0.445,0.55
20:57:19.904,-0.42,0.535
20:57:19.908,-0.42,0.56
20:57:19.912,-0.405,0.56
20:57:19.916,-0.4,0.565
20:57:19.920,-0.4,0.58
20:57:19.924,-0.375,0.595
20:57:19.928,-0.35,0.585
20:57:19.932,-0.31,0.61
20:57:19.936,-0.28,0.615
20:57:19.940,-0.26,0.635
20:57:19.944,-0.225,0.635
20:57:19.948,-0.22,0.645
20:57:19.952,-0.205,0.64
20:57:19.956,-0.195,0.67
20:57:19.960,-0.19,0.66
20:57:19.964,-0.19,0.655
20:57:19.968,-0.21,0.66
20:57:19.972,-0.225,0.675
20:57:19.976,-0.24,0.685
20:57:19.980,-0.275,0.68
20:57:19.984,-0.305,0.635
20:57:19.988,-0.325,0.675
20:57:19.992,-0.35,0.655
20:57:19.996,-0.32,0.675
20:57:20.000,-0.35,0.66
20:57:20.004,-0.34,0.68
20:57:20.008,-0.35,0.655
20:57:20.012,-0.345,0.645
20:57:20.016,-0.35,0.67
20:57:20.020,-0.355,0.66
20:57:20.024,-0.37,0.66
20:57:20.028,-0.375,0.665
20:57:20.032,-0.39,0.66
20:57:20.036,-0.365,0.65
20:57:20.040,-0.37,0.685
20:57:20.044,-0.36,0.665
20:57:20.048,-0.35,0.65
20:57:20.052,-0.345,0.65
20:57:20.056,-0.36,0.655
20:57:20.060,-0.365,0.655
20:57:20.064,-0.37,0.635
20:57:20.068,-0.365,0.645
20:57:20.072,-0.36,0.655
20:57:20.076,-0.355,0.67
20:57:20.080,-0.365,0.64
20:57:20.084,-0.365,0.645
20:57:20.088,-0.36,0.625
20:57:20.092,-0.355,0.645
20:57:20.096,-0.37,0.635
20:57:20.100,-0.365,0.63
20:57:20.104,-0.36,0.635
20:57:20.108,-0.36,0.63
20:57:20.112,-0.35,0.61
20:57:20.116,-0.31,0.605
20:57:20.120,-0.295,0.605
20:57:20.124,-0.255,0.62
20:57:20.128,-0.2,0.615
20:57:20.132,-0.105,0.62
20:57:20.136,-0.02,0.6
20:57:20.140,0.05,0.585
20:57:20.144,0.11,0.565
20:57:20.148,0.125,0.515
20:57:20.152,0.185,0.505
20:57:20.156,0.225,0.515
20:57:20.160,0.215,0.475
20:57:20.164,0.25,0.4
20:57:20.168,0.465,0.255
20:57:20.172,0.765,0.08
20:57:20.176,1.09,-0.16
20:57:20.180,1.225,-0.405
20:57:20.184,1.08,-0.525
20:57:20.188,0.655,-0.445
20:57:20.192,0.145,-0.11
20:57:20.196,-0.215,0.25
20:57:20.200,-0.35,0.485
20:57:20.204,-0.445,0.65
20:57:20.208,-0.46,0.745
20:57:20.212,-0.525,0.8
20:57:20.216,-0.535,0.85
20:57:20.220,-0.525,0.87
20:57:20.224,-0.55,0.85
20:57:20.228,-0.53,0.835
20:57:20.232,-0.545,0.815
20:57:20.236,-0.545,0.785
20:57:20.240,-0.57,0.755
20:57:20.244,-0.55,0.745
20:57:20.248,-0.555,0.725
20:57:20.252,-0.545,0.745
20:57:20.256,-0.555,0.715
20:57:20.260,-0.565,0.715
20:57:20.264,-0.56,0.675
20:57:20.268,-0.56,0.67
20:57:20.272,-0.555,0.66
20:57:20.276,-0.565,0.665
20:57:20.280,-0.56,0.655
20:57:20.284,-0.56,0.64
20:57:20.288,-0.56,0.65
20:57:20.292,-0.555,0.655
20:57:20.296,-0.565,0.665
20:57:20.300,-0.575,0.675
20:57:20.304,-0.555,0.64
20:57:20.308,-0.56,0.655
20:57:20.312,-0.575,0.67
20:57:20.316,-0.555,0.65
20:57:20.320,-0.555,0.69
20:57:20.324,-0.585,0.67
20:57:20.328,-0.58,0.67
20:57:20.332,-0.57,0.685
20:57:20.336,-0.565,0.69
20:57:20.340,-0.57,0.7
20:57:20.344,-0.57,0.725
20:57:20.348,-0.565,0.705
20:57:20.352,-0.56,0.74
20:57:20.356,-0.555,0.735
20:57:20.360,-0.56,0.725
20:57:20.364,-0.545,0.72
20:57:20.368,-0.525,0.71
20:57:20.372,-0.52,0.715
20:57:20.376,-0.49,0.735
20:57:20.380,-0.455,0.73
20:57:20.384,-0.43,0.735
20:57:20.388,-0.395,0.74
20:57:20.392,-0.41,0.74
20:57:20.396,-0.395,0.74
20:57:20.400,-0.395,0.74
20:57:20.404,-0.395,0.735
20:57:20.408,-0.405,0.745
20:57:20.412,-0.445,0.755
20:57:20.416,-0.425,0.73
20:57:20.420,-0.44,0.735
20:57:20.424,-0.425,0.755
20:57:20.428,-0.41,0.72
20:57:20.432,-0.405,0.725
20:57:20.436,-0.395,0.695
20:57:20.440,-0.4,0.695
20:57:20.444,-0.38,0.675
20:57:20.448,-0.375,0.655
20:57:20.452,-0.375,0.655
20:57:20.456,-0.37,0.63
20:57:20.460,-0.36,0.66
20:57:20.464,-0.325,0.64
20:57:20.468,-0.33,0.635
20:57:20.472,-0.28,0.64
20:57:20.476,-0.29,0.615
20:57:20.480,-0.3,0.62
20:57:20.484,-0.285,0.61
20:57:20.488,-0.28,0.6
20:57:20.492,-0.3,0.59
20:57:20.496,-0.265,0.61
20:57:20.500,-0.255,0.59
20:57:20.504,-0.29,0.595
20:57:20.508,-0.26,0.58
20:57:20.512,-0.275,0.595
20:57:20.516,-0.295,0.59
20:57:20.520,-0.29,0.6
20:57:20.524,-0.3,0.61
20:57:20.528,-0.295,0.62
20:57:20.532,-0.3,0.62
20:57:20.536,-0.315,0.615
20:57:20.540,-0.305,0.635
20:57:20.544,-0.345,0.65
20:57:20.548,-0.335,0.655
20:57:20.552,-0.36,0.655
20:57:20.556,-0.37,0.65
20:57:20.560,-0.37,0.64
20:57:20.564,-0.365,0.65
20:57:20.568,-0.37,0.65
20:57:20.572,-0.37,0.62
20:57:20.576,-0.35,0.62
20:57:20.580,-0.34,0.635
20:57:20.584,-0.355,0.615
20:57:20.588,-0.345,0.645
20:57:20.592,-0.33,0.64
20:57:20.596,-0.315,0.66
20:57:20.600,-0.29,0.66
20:57:20.604,-0.3,0.665
20:57:20.608,-0.31,0.665
20:57:20.612,-0.335,0.665
20:57:20.616,-0.355,0.7
20:57:20.620,-0.375,0.69
20:57:20.624,-0.41,0.705
20:57:20.628,-0.41,0.7
20:57:20.632,-0.435,0.72
20:57:20.636,-0.42,0.71
20:57:20.640,-0.41,0.705
20:57:20.644,-0.41,0.72
20:57:20.648,-0.405,0.7
20:57:20.652,-0.395,0.685
20:57:20.656,-0.405,0.685
20:57:20.660,-0.41,0.66
20:57:20.664,-0.405,0.635
20:57:20.668,-0.39,0.62
20:57:20.672,-0.375,0.61
20:57:20.676,-0.355,0.585
20:57:20.680,-0.37,0.58
20:57:20.684,-0.355,0.57
20:57:20.688,-0.36,0.56
20:57:20.692,-0.32,0.535
20:57:20.696,-0.265,0.535
20:57:20.700,-0.205,0.515
20:57:20.704,-0.105,0.525
20:57:20.708,-0.035,0.52
20:57:20.712,0.035,0.5
20:57:20.716,0.09,0.47
20:57:20.720,0.105,0.435
20:57:20.724,0.14,0.415
20:57:20.728,0.13,0.395
20:57:20.732,0.145,0.315
20:57:20.736,0.23,0.24
20:57:20.740,0.48,0.07
20:57:20.744,0.8,-0.15
20:57:20.748,1.02,-0.415
20:57:20.752,1.065,-0.605
20:57:20.756,0.81,-0.665
20:57:20.760,0.345,-0.42
20:57:20.764,-0.095,-0.055
20:57:20.768,-0.295,0.29
20:57:20.772,-0.39,0.49
20:57:20.776,-0.44,0.605
20:57:20.780,-0.44,0.7
20:57:20.784,-0.43,0.765
20:57:20.788,-0.46,0.76
20:57:20.792,-0.47,0.77
20:57:20.796,-0.46,0.775
20:57:20.800,-0.45,0.755
20:57:20.804,-0.445,0.745
20:57:20.808,-0.445,0.76
20:57:20.812,-0.48,0.77
20:57:20.816,-0.49,0.775
20:57:20.820,-0.505,0.765
20:57:20.824,-0.515,0.765
20:57:20.828,-0.56,0.79
20:57:20.832,-0.59,0.78
20:57:20.836,-0.62,0.775
20:57:20.840,-0.63,0.81
20:57:20.844,-0.635,0.81
20:57:20.848,-0.635,0.795
20:57:20.852,-0.665,0.79
20:57:20.856,-0.64,0.8
20:57:20.860,-0.61,0.77
20:57:20.864,-0.61,0.775
20:57:20.868,-0.585,0.765
20:57:20.872,-0.565,0.76
20:57:20.876,-0.555,0.755
20:57:20.880,-0.55,0.74
20:57:20.884,-0.565,0.705
20:57:20.888,-0.6,0.71
20:57:20.892,-0.58,0.685
20:57:20.896,-0.59,0.68
20:57:20.900,-0.58,0.69
20:57:20.904,-0.575,0.69
20:57:20.908,-0.57,0.695
20:57:20.912,-0.57,0.675
20:57:20.916,-0.555,0.7
20:57:20.920,-0.56,0.69
20:57:20.924,-0.54,0.675
20:57:20.928,-0.52,0.695
20:57:20.932,-0.505,0.7
20:57:20.936,-0.5,0.68
20:57:20.940,-0.505,0.73
20:57:20.944,-0.485,0.7
20:57:20.948,-0.47,0.705
20:57:20.952,-0.465,0.725
20:57:20.956,-0.465,0.7
20:57:20.960,-0.45,0.72
20:57:20.964,-0.44,0.72
20:57:20.968,-0.435,0.7
20:57:20.972,-0.41,0.72
20:57:20.976,-0.385,0.735
20:57:20.980,-0.375,0.695
20:57:20.984,-0.385,0.725
20:57:20.988,-0.35,0.705
20:57:20.992,-0.33,0.725
20:57:20.996,-0.355,0.685
20:57:21.000,-0.335,0.685
20:57:21.004,-0.305,0.68
20:57:21.008,-0.31,0.705
20:57:21.012,-0.315,0.7
20:57:21.016,-0.305,0.71
20:57:21.020,-0.295,0.73
20:57:21.024,-0.305,0.73
20:57:21.028,-0.31,0.715
20:57:21.032,-0.31,0.74
20:57:21.036,-0.35,0.735
20:57:21.040,-0.34,0.75
20:57:21.044,-0.36,0.765
20:57:21.048,-0.345,0.77
20:57:21.052,-0.35,0.775
20:57:21.056,-0.335,0.75
20:57:21.060,-0.345,0.735
20:57:21.064,-0.31,0.735
20:57:21.068,-0.295,0.735
20:57:21.072,-0.275,0.73
20:57:21.076,-0.275,0.73
20:57:21.080,-0.27,0.72
20:57:21.084,-0.265,0.71
20:57:21.088,-0.265,0.675
20:57:21.092,-0.3,0.665
20:57:21.096,-0.28,0.665
20:57:21.100,-0.3,0.655
20:57:21.104,-0.31,0.64
20:57:21.108,-0.305,0.655
20:57:21.112,-0.31,0.655
20:57:21.116,-0.305,0.62
20:57:21.120,-0.305,0.625
20:57:21.124,-0.31,0.6
20:57:21.128,-0.3,0.625
20:57:21.132,-0.305,0.6
20:57:21.136,-0.3,0.6
20:57:21.140,-0.3,0.61
20:57:21.144,-0.3,0.625
20:57:21.148,-0.305,0.625
20:57:21.152,-0.305,0.655
20:57:21.156,-0.27,0.655
20:57:21.160,-0.25,0.655
20:57:21.164,-0.21,0.635
20:57:21.168,-0.14,0.655
20:57:21.172,-0.07,0.635
20:57:21.176,-0.01,0.67
20:57:21.180,0.035,0.635
20:57:21.184,0.065,0.595
20:57:21.188,0.08,0.565
20:57:21.192,0.08,0.555
20:57:21.196,0.1,0.555
20:57:21.200,0.12,0.49
20:57:21.204,0.215,0.39
20:57:21.208,0.46,0.26
20:57:21.212,0.795,0.03
20:57:21.216,1.07,-0.24
20:57:21.220,1.115,-0.43
20:57:21.224,0.9,-0.515
20:57:21.228,0.435,-0.285
20:57:21.232,-0.015,0.07
20:57:21.236,-0.3,0.39
20:57:21.240,-0.43,0.61
20:57:21.244,-0.49,0.75
20:57:21.248,-0.5,0.8
20:57:21.252,-0.525,0.855
20:57:21.256,-0.545,0.86
20:57:21.260,-0.515,0.845
20:57:21.264,-0.525,0.855
20:57:21.268,-0.52,0.825
20:57:21.272,-0.5,0.795
20:57:21.276,-0.475,0.78
20:57:21.280,-0.485,0.78
20:57:21.284,-0.47,0.745
20:57:21.288,-0.48,0.74
20:57:21.292,-0.495,0.725
20:57:21.296,-0.495,0.72
20:57:21.300,-0.51,0.715
20:57:21.304,-0.515,0.72
20:57:21.308,-0.515,0.74
20:57:21.312,-0.525,0.74
20:57:21.316,-0.525,0.73
20:57:21.320,-0.525,0.75
20:57:21.324,-0.52,0.75
20:57:21.328,-0.515,0.76
20:57:21.332,-0.49,0.745
20:57:21.336,-0.485,0.745
20:57:21.340,-0.5,0.74
20:57:21.344,-0.5,0.745
20:57:21.348,-0.5,0.75
20:57:21.352,-0.515,0.74
20:57:21.356,-0.51,0.765
20:57:21.360,-0.515,0.76
20:57:21.364,-0.515,0.775
20:57:21.368,-0.555,0.77
20:57:21.372,-0.565,0.785
20:57:21.376,-0.55,0.81
20:57:21.380,-0.55,0.81
20:57:21.384,-0.57,0.825
20:57:21.388,-0.55,0.805
20:57:21.392,-0.555,0.8
20:57:21.396,-0.565,0.785
20:57:21.400,-0.565,0.795
20:57:21.404,-0.58,0.8
20:57:21.408,-0.56,0.8
20:57:21.412,-0.545,0.805
20:57:21.416,-0.505,0.8
20:57:21.420,-0.505,0.795
20:57:21.424,-0.485,0.815
20:57:21.428,-0.49,0.785
20:57:21.432,-0.46,0.8
20:57:21.436,-0.505,0.805
20:57:21.440,-0.48,0.785
20:57:21.444,-0.465,0.79
20:57:21.448,-0.46,0.79
20:57:21.452,-0.465,0.76
20:57:21.456,-0.43,0.765
20:57:21.460,-0.43,0.725
20:57:21.464,-0.43,0.725
20:57:21.468,-0.42,0.72
20:57:21.472,-0.42,0.71
20:57:21.476,-0.425,0.705
20:57:21.480,-0.415,0.675
20:57:21.484,-0.43,0.64
20:57:21.488,-0.425,0.665
20:57:21.492,-0.415,0.65
20:57:21.496,-0.415,0.625
20:57:21.500,-0.425,0.615
20:57:21.504,-0.405,0.645
20:57:21.508,-0.41,0.66
20:57:21.512,-0.41,0.64
20:57:21.516,-0.425,0.635
20:57:21.520,-0.385,0.63
20:57:21.524,-0.385,0.61
20:57:21.528,-0.385,0.62
20:57:21.532,-0.365,0.62
20:57:21.536,-0.35,0.62
20:57:21.540,-0.36,0.64
20:57:21.544,-0.37,0.655
20:57:21.548,-0.345,0.65
20:57:21.552,-0.33,0.665
20:57:21.556,-0.345,0.655
20:57:21.560,-0.34,0.655
20:57:21.564,-0.345,0.66
20:57:21.568,-0.36,0.68
20:57:21.572,-0.355,0.7
20:57:21.576,-0.37,0.665
20:57:21.580,-0.375,0.675
20:57:21.584,-0.37,0.675
20:57:21.588,-0.37,0.665
20:57:21.592,-0.385,0.665
20:57:21.596,-0.375,0.65
20:57:21.600,-0.38,0.68
20:57:21.604,-0.385,0.67
20:57:21.608,-0.365,0.7
20:57:21.612,-0.345,0.675
20:57:21.616,-0.33,0.665
20:57:21.620,-0.33,0.69
20:57:21.624,-0.345,0.69
20:57:21.628,-0.33,0.68
20:57:21.632,-0.33,0.705
20:57:21.636,-0.355,0.74
20:57:21.640,-0.36,0.73
20:57:21.644,-0.36,0.73
20:57:21.648,-0.355,0.75
20:57:21.652,-0.37,0.735
20:57:21.656,-0.35,0.705
20:57:21.660,-0.32,0.705
20:57:21.664,-0.345,0.685
20:57:21.668,-0.38,0.66
20:57:21.672,-0.375,0.595
20:57:21.676,-0.39,0.61
20:57:21.680,-0.4,0.6
20:57:21.684,-0.415,0.6
20:57:21.688,-0.4,0.585
20:57:21.692,-0.425,0.58
20:57:21.696,-0.43,0.6
20:57:21.700,-0.41,0.58
20:57:21.704,-0.405,0.575
20:57:21.708,-0.425,0.57
20:57:21.712,-0.43,0.575
20:57:21.716,-0.445,0.57
20:57:21.720,-0.435,0.555
20:57:21.724,-0.415,0.545
20:57:21.728,-0.41,0.55
20:57:21.732,-0.415,0.55
20:57:21.736,-0.39,0.555
20:57:21.740,-0.375,0.54
20:57:21.744,-0.355,0.59
20:57:21.748,-0.34,0.58
20:57:21.752,-0.345,0.565
20:57:21.756,-0.335,0.6
20:57:21.760,-0.34,0.59
20:57:21.764,-0.335,0.605
20:57:21.768,-0.33,0.585
20:57:21.772,-0.34,0.61
20:57:21.776,-0.335,0.62
20:57:21.780,-0.33,0.62
20:57:21.784,-0.35,0.615
20:57:21.788,-0.345,0.63
20:57:21.792,-0.355,0.59
20:57:21.796,-0.385,0.615
20:57:21.800,-0.385,0.63
20:57:21.804,-0.38,0.63
20:57:21.808,-0.39,0.605
20:57:21.812,-0.375,0.61
20:57:21.816,-0.35,0.6
20:57:21.820,-0.335,0.59
20:57:21.824,-0.32,0.59
20:57:21.828,-0.31,0.6
20:57:21.832,-0.29,0.63
20:57:21.836,-0.28,0.64
20:57:21.840,-0.28,0.635
20:57:21.844,-0.265,0.61
20:57:21.848,-0.19,0.62
20:57:21.852,-0.08,0.625
20:57:21.856,-0.005,0.61
20:57:21.860,0.08,0.58
20:57:21.864,0.14,0.525
20:57:21.868,0.195,0.5
20:57:21.872,0.24,0.52
20:57:21.876,0.23,0.515
20:57:21.880,0.22,0.4
20:57:21.884,0.28,0.32
20:57:21.888,0.495,0.19
20:57:21.892,0.77,-0.02
20:57:21.896,1.0,-0.25
20:57:21.900,1.02,-0.47
20:57:21.904,0.715,-0.545
20:57:21.908,0.24,-0.37
20:57:21.912,-0.165,-0.04
20:57:21.916,-0.37,0.24
20:57:21.920,-0.455,0.405
20:57:21.924,-0.485,0.525
20:57:21.928,-0.51,0.61
20:57:21.932,-0.54,0.66
20:57:21.936,-0.53,0.69
20:57:21.940,-0.545,0.69
20:57:21.944,-0.535,0.695
20:57:21.948,-0.555,0.66
20:57:21.952,-0.555,0.67
20:57:21.956,-0.54,0.665
20:57:21.960,-0.53,0.665
20:57:21.964,-0.53,0.655
20:57:21.968,-0.525,0.685
20:57:21.972,-0.52,0.68
20:57:21.976,-0.52,0.715
20:57:21.980,-0.51,0.735
20:57:21.984,-0.515,0.73
20:57:21.988,-0.525,0.735
20:57:21.992,-0.525,0.74
20:57:21.996,-0.52,0.76
20:57:22.000,-0.505,0.745
20:57:22.004,-0.505,0.76
20:57:22.008,-0.495,0.75
20:57:22.012,-0.48,0.735
20:57:22.016,-0.465,0.745
20:57:22.020,-0.455,0.735
20:57:22.024,-0.49,0.74
20:57:22.028,-0.5,0.76
20:57:22.032,-0.515,0.75
20:57:22.036,-0.52,0.765
20:57:22.040,-0.55,0.76
20:57:22.044,-0.555,0.76
20:57:22.048,-0.58,0.745
20:57:22.052,-0.555,0.74
20:57:22.056,-0.55,0.76
20:57:22.060,-0.55,0.76
20:57:22.064,-0.555,0.755
20:57:22.068,-0.535,0.745
20:57:22.072,-0.54,0.735
20:57:22.076,-0.53,0.77
20:57:22.080,-0.52,0.765
20:57:22.084,-0.53,0.78
20:57:22.088,-0.51,0.76
20:57:22.092,-0.51,0.775
20:57:22.096,-0.505,0.78
20:57:22.100,-0.525,0.76
20:57:22.104,-0.505,0.76
20:57:22.108,-0.52,0.745
20:57:22.112,-0.53,0.73
20:57:22.116,-0.54,0.71
20:57:22.120,-0.54,0.705
20:57:22.124,-0.53,0.7
20:57:22.128,-0.53,0.685
20:57:22.132,-0.52,0.685
20:57:22.136,-0.52,0.655
20:57:22.140,-0.515,0.645
20:57:22.144,-0.51,0.62
20:57:22.148,-0.5,0.615
20:57:22.152,-0.47,0.615
20:57:22.156,-0.43,0.6
20:57:22.160,-0.425,0.59
20:57:22.164,-0.395,0.59
20:57:22.168,-0.39,0.575
20:57:22.172,-0.38,0.6
20:57:22.176,-0.39,0.61
20:57:22.180,-0.39,0.625
20:57:22.184,-0.365,0.635
20:57:22.188,-0.35,0.63
20:57:22.192,-0.315,0.65
20:57:22.196,-0.28,0.64
20:57:22.200,-0.27,0.65
20:57:22.204,-0.28,0.675
20:57:22.208,-0.245,0.675
20:57:22.212,-0.23,0.65
20:57:22.216,-0.21,0.675
20:57:22.220,-0.22,0.67
20:57:22.224,-0.23,0.675
20:57:22.228,-0.265,0.7
20:57:22.232,-0.26,0.68
20:57:22.236,-0.28,0.71
20:57:22.240,-0.27,0.72
20:57:22.244,-0.31,0.69
20:57:22.248,-0.28,0.7
20:57:22.252,-0.3,0.7
20:57:22.256,-0.25,0.7
20:57:22.260,-0.25,0.695
20:57:22.264,-0.235,0.69
20:57:22.268,-0.25,0.69
20:57:22.272,-0.25,0.675
20:57:22.276,-0.26,0.68
20:57:22.280,-0.25,0.67
20:57:22.284,-0.255,0.67
20:57:22.288,-0.275,0.655
20:57:22.292,-0.255,0.685
20:57:22.296,-0.275,0.655
20:57:22.300,-0.25,0.65
20:57:22.304,-0.24,0.635
20:57:22.308,-0.23,0.635
20:57:22.312,-0.2,0.635
20:57:22.316,-0.185,0.625
20:57:22.320,-0.125,0.615
20:57:22.324,-0.075,0.63
20:57:22.328,-0.01,0.615
20:57:22.332,0.025,0.6
20:57:22.336,0.055,0.545
20:57:22.340,0.065,0.5
20:57:22.344,0.065,0.475
20:57:22.348,0.045,0.45
20:57:22.352,0.045,0.415
20:57:22.356,0.07,0.36
20:57:22.360,0.25,0.21
20:57:22.364,0.575,0.025
20:57:22.368,0.87,-0.25
20:57:22.372,1.03,-0.49
20:57:22.376,0.975,-0.64
20:57:22.380,0.63,-0.58
20:57:22.384,0.155,-0.25
20:57:22.388,-0.205,0.125
20:57:22.392,-0.36,0.395
20:57:22.396,-0.41,0.56
20:57:22.400,-0.44,0.66
20:57:22.404,-0.43,0.75
20:57:22.408,-0.42,0.75
20:57:22.412,-0.41,0.78
20:57:22.416,-0.39,0.775
20:57:22.420,-0.405,0.78
20:57:22.424,-0.43,0.755
20:57:22.428,-0.43,0.73
20:57:22.432,-0.445,0.695
20:57:22.436,-0.44,0.685
20:57:22.440,-0.46,0.68
20:57:22.444,-0.445,0.72
20:57:22.448,-0.465,0.72
20:57:22.452,-0.46,0.715
20:57:22.456,-0.485,0.705
20:57:22.460,-0.48,0.705
20:57:22.464,-0.47,0.72
20:57:22.468,-0.48,0.7
20:57:22.472,-0.495,0.68
20:57:22.476,-0.49,0.685
20:57:22.480,-0.5,0.68
20:57:22.484,-0.5,0.69
20:57:22.488,-0.485,0.68
20:57:22.492,-0.51,0.68
20:57:22.496,-0.53,0.66
20:57:22.500,-0.52,0.66
20:57:22.504,-0.535,0.67
20:57:22.508,-0.505,0.66
20:57:22.512,-0.51,0.635
20:57:22.516,-0.52,0.65
20:57:22.520,-0.54,0.65
20:57:22.524,-0.535,0.64
20:57:22.528,-0.525,0.645
20:57:22.532,-0.54,0.65
20:57:22.536,-0.54,0.68
20:57:22.540,-0.545,0.65
20:57:22.544,-0.56,0.635
20:57:22.548,-0.57,0.65
20:57:22.552,-0.57,0.655
20:57:22.556,-0.56,0.64
20:57:22.560,-0.575,0.635
20:57:22.564,-0.56,0.655
20:57:22.568,-0.58,0.65
20:57:22.572,-0.54,0.615
20:57:22.576,-0.52,0.61
20:57:22.580,-0.52,0.61
20:57:22.584,-0.49,0.61
20:57:22.588,-0.48,0.595
20:57:22.592,-0.465,0.59
20:57:22.596,-0.445,0.6
20:57:22.600,-0.435,0.6
20:57:22.604,-0.405,0.59
20:57:22.608,-0.38,0.59
20:57:22.612,-0.35,0.595
20:57:22.616,-0.32,0.62
20:57:22.620,-0.305,0.63
20:57:22.624,-0.28,0.61
20:57:22.628,-0.265,0.64
20:57:22.632,-0.26,0.66
20:57:22.636,-0.26,0.66
20:57:22.640,-0.24,0.67
20:57:22.644,-0.265,0.65
20:57:22.648,-0.265,0.64
20:57:22.652,-0.25,0.645
20:57:22.656,-0.215,0.625
20:57:22.660,-0.19,0.625
20:57:22.664,-0.19,0.65
20:57:22.668,-0.18,0.65
20:57:22.672,-0.19,0.66
20:57:22.676,-0.19,0.645
20:57:22.680,-0.21,0.655
20:57:22.684,-0.21,0.65
20:57:22.688,-0.235,0.655
20:57:22.692,-0.25,0.63
20:57:22.696,-0.29,0.61
20:57:22.700,-0.295,0.635
20:57:22.704,-0.315,0.635
20:57:22.708,-0.32,0.61
20:57:22.712,-0.325,0.61
20:57:22.716,-0.345,0.59
20:57:22.720,-0.365,0.595
20:57:22.724,-0.365,0.58
20:57:22.728,-0.36,0.565
20:57:22.732,-0.375,0.575
20:57:22.736,-0.38,0.575
20:57:22.740,-0.39,0.575
20:57:22.744,-0.405,0.585
20:57:22.748,-0.405,0.575
20:57:22.752,-0.405,0.6
20:57:22.756,-0.42,0.575
20:57:22.760,-0.405,0.595
20:57:22.764,-0.4,0.585
20:57:22.768,-0.38,0.61
20:57:22.772,-0.38,0.59
20:57:22.776,-0.385,0.59
20:57:22.780,-0.385,0.59
20:57:22.784,-0.36,0.6
20:57:22.788,-0.345,0.61
20:57:22.792,-0.34,0.595
20:57:22.796,-0.33,0.59
20:57:22.800,-0.34,0.595
20:57:22.804,-0.345,0.58
20:57:22.808,-0.34,0.61
20:57:22.812,-0.335,0.59
20:57:22.816,-0.32,0.595
20:57:22.820,-0.29,0.61
20:57:22.824,-0.27,0.59
20:57:22.828,-0.27,0.595
20:57:22.832,-0.265,0.605
20:57:22.836,-0.27,0.645
20:57:22.840,-0.26,0.63
20:57:22.844,-0.26,0.61
20:57:22.848,-0.26,0.645
20:57:22.852,-0.26,0.63
20:57:22.856,-0.275,0.64
20:57:22.860,-0.28,0.61
20:57:22.864,-0.275,0.63
20:57:22.868,-0.275,0.655
20:57:22.872,-0.26,0.675
20:57:22.876,-0.275,0.68
20:57:22.880,-0.25,0.675
20:57:22.884,-0.26,0.68
20:57:22.888,-0.24,0.67
20:57:22.892,-0.27,0.675
20:57:22.896,-0.29,0.67
20:57:22.900,-0.275,0.65
20:57:22.904,-0.26,0.65
20:57:22.908,-0.26,0.635
20:57:22.912,-0.26,0.625
20:57:22.916,-0.245,0.62
20:57:22.920,-0.255,0.59
20:57:22.924,-0.265,0.585
20:57:22.928,-0.27,0.545
20:57:22.932,-0.275,0.555
20:57:22.936,-0.285,0.545
20:57:22.940,-0.295,0.535
20:57:22.944,-0.32,0.52
20:57:22.948,-0.325,0.535
20:57:22.952,-0.345,0.555
20:57:22.956,-0.33,0.52
20:57:22.960,-0.315,0.53
20:57:22.964,-0.25,0.535
20:57:22.968,-0.17,0.555
20:57:22.972,-0.075,0.54
20:57:22.976,0.01,0.52
20:57:22.980,0.07,0.5
20:57:22.984,0.12,0.45
20:57:22.988,0.155,0.43
20:57:22.992,0.165,0.43
20:57:22.996,0.19,0.405
20:57:23.000,0.21,0.315
20:57:23.004,0.335,0.19
20:57:23.008,0.61,0.01
20:57:23.012,0.915,-0.245
20:57:23.016,1.11,-0.46
20:57:23.020,1.05,-0.635
20:57:23.024,0.71,-0.615
20:57:23.028,0.225,-0.305
20:57:23.032,-0.15,0.06
20:57:23.036,-0.31,0.32
20:57:23.040,-0.375,0.475
20:57:23.044,-0.375,0.59
20:57:23.048,-0.395,0.665
20:57:23.052,-0.425,0.715
20:57:23.056,-0.415,0.73
20:57:23.060,-0.425,0.73
20:57:23.064,-0.395,0.72
20:57:23.068,-0.4,0.735
20:57:23.072,-0.42,0.725
20:57:23.076,-0.43,0.725
20:57:23.080,-0.425,0.715
20:57:23.084,-0.43,0.735
20:57:23.088,-0.43,0.735
20:57:23.092,-0.43,0.745
20:57:23.096,-0.46,0.745
20:57:23.100,-0.44,0.73
20:57:23.104,-0.46,0.75
20:57:23.108,-0.445,0.75
20:57:23.112,-0.45,0.745
20:57:23.116,-0.455,0.73
20:57:23.120,-0.465,0.73
20:57:23.124,-0.47,0.735
20:57:23.128,-0.465,0.735
20:57:23.132,-0.465,0.72
20:57:23.136,-0.48,0.705
20:57:23.140,-0.49,0.72
20:57:23.144,-0.49,0.71
20:57:23.148,-0.5,0.7
20:57:23.152,-0.535,0.69
20:57:23.156,-0.525,0.67
20:57:23.160,-0.54,0.665
20:57:23.164,-0.57,0.66
20:57:23.168,-0.59,0.635
20:57:23.172,-0.57,0.655
20:57:23.176,-0.555,0.665
20:57:23.180,-0.57,0.635
20:57:23.184,-0.535,0.64
20:57:23.188,-0.545,0.645
20:57:23.192,-0.525,0.65
20:57:23.196,-0.52,0.66
20:57:23.200,-0.485,0.65
20:57:23.204,-0.47,0.665
20:57:23.208,-0.46,0.675
20:57:23.212,-0.465,0.67
20:57:23.216,-0.45,0.68
20:57:23.220,-0.445,0.67
20:57:23.224,-0.42,0.675
20:57:23.228,-0.44,0.675
20:57:23.232,-0.425,0.7
20:57:23.236,-0.4,0.695
20:57:23.240,-0.395,0.7
20:57:23.244,-0.375,0.72
20:57:23.248,-0.38,0.69
20:57:23.252,-0.375,0.675
20:57:23.256,-0.385,0.685
20:57:23.260,-0.36,0.665
20:57:23.264,-0.34,0.685
20:57:23.268,-0.34,0.66
20:57:23.272,-0.325,0.65
20:57:23.276,-0.315,0.66
20:57:23.280,-0.31,0.655
20:57:23.284,-0.305,0.655
20:57:23.288,-0.305,0.645
20:57:23.292,-0.3,0.665
20:57:23.296,-0.29,0.645
20:57:23.300,-0.29,0.67
20:57:23.304,-0.28,0.665
20:57:23.308,-0.285,0.645
20:57:23.312,-0.28,0.66
20:57:23.316,-0.285,0.66
20:57:23.320,-0.295,0.665
20:57:23.324,-0.285,0.675
20:57:23.328,-0.265,0.68
20:57:23.332,-0.27,0.665
20:57:23.336,-0.265,0.69
20:57:23.340,-0.26,0.685
20:57:23.344,-0.235,0.66
20:57:23.348,-0.22,0.65
20:57:23.352,-0.23,0.65
20:57:23.356,-0.25,0.64
20:57:23.360,-0.25,0.62
20:57:23.364,-0.28,0.61
20:57:23.368,-0.295,0.62
20:57:23.372,-0.285,0.595
20:57:23.376,-0.3,0.59
20:57:23.380,-0.33,0.605
20:57:23.384,-0.32,0.58
20:57:23.388,-0.34,0.585
20:57:23.392,-0.345,0.605
20:57:23.396,-0.35,0.585
20:57:23.400,-0.36,0.635
20:57:23.404,-0.355,0.64
20:57:23.408,-0.35,0.62
20:57:23.412,-0.325,0.64
20:57:23.416,-0.305,0.62
20:57:23.420,-0.26,0.635
20:57:23.424,-0.265,0.635
20:57:23.428,-0.235,0.625
20:57:23.432,-0.23,0.65
20:57:23.436,-0.21,0.66
20:57:23.440,-0.22,0.66
20:57:23.444,-0.225,0.67
20:57:23.448,-0.26,0.685
20:57:23.452,-0.235,0.665
20:57:23.456,-0.245,0.665
20:57:23.460,-0.24,0.645
20:57:23.464,-0.26,0.665
20:57:23.468,-0.24,0.635
20:57:23.472,-0.26,0.635
20:57:23.476,-0.265,0.645
20:57:23.480,-0.24,0.635
20:57:23.484,-0.18,0.645
20:57:23.488,-0.115,0.62
20:57:23.492,-0.04,0.58
20:57:23.496,0.02,0.565
20:57:23.500,0.055,0.52
20:57:23.504,0.13,0.475
20:57:23.508,0.155,0.45
20:57:23.512,0.14,0.45
20:57:23.516,0.13,0.415
20:57:23.520,0.165,0.35
20:57:23.524,0.35,0.235
20:57:23.528,0.695,0.04
20:57:23.532,0.95,-0.21
20:57:23.536,1.065,-0.435
20:57:23.540,0.89,-0.575
20:57:23.544,0.475,-0.43
20:57:23.548,0.035,-0.07
20:57:23.552,-0.255,0.255
20:57:23.556,-0.35,0.43
20:57:23.560,-0.395,0.545
20:57:23.564,-0.41,0.625
20:57:23.568,-0.4,0.64
20:57:23.572,-0.465,0.635
20:57:23.576,-0.5,0.655
20:57:23.580,-0.49,0.64
20:57:23.584,-0.52,0.615
20:57:23.588,-0.535,0.62
20:57:23.592,-0.55,0.605
20:57:23.596,-0.53,0.57
20:57:23.600,-0.55,0.59
20:57:23.604,-0.555,0.58
20:57:23.608,-0.545,0.58
20:57:23.612,-0.545,0.59
20:57:23.616,-0.55,0.605
20:57:23.620,-0.545,0.61
20:57:23.624,-0.535,0.625
20:57:23.628,-0.54,0.635
20:57:23.632,-0.535,0.635
20:57:23.636,-0.48,0.635
20:57:23.640,-0.455,0.645
20:57:23.644,-0.435,0.645
20:57:23.648,-0.445,0.65
20:57:23.652,-0.425,0.68
20:57:23.656,-0.45,0.685
20:57:23.660,-0.475,0.695
20:57:23.664,-0.48,0.72
20:57:23.668,-0.49,0.705
20:57:23.672,-0.49,0.71
20:57:23.676,-0.505,0.715
20:57:23.680,-0.505,0.71
20:57:23.684,-0.52,0.71
20:57:23.688,-0.52,0.725
20:57:23.692,-0.53,0.72
20:57:23.696,-0.54,0.715
20:57:23.700,-0.535,0.7
20:57:23.704,-0.54,0.695
20:57:23.708,-0.52,0.685
20:57:23.712,-0.53,0.675
20:57:23.716,-0.515,0.66
20:57:23.720,-0.54,0.65
20:57:23.724,-0.54,0.655
20:57:23.728,-0.53,0.655
20:57:23.732,-0.505,0.64
20:57:23.736,-0.49,0.65
20:57:23.740,-0.5,0.64
20:57:23.744,-0.48,0.63
20:57:23.748,-0.465,0.635
20:57:23.752,-0.46,0.62
20:57:23.756,-0.455,0.61
20:57:23.760,-0.44,0.585
20:57:23.764,-0.425,0.575
20:57:23.768,-0.4,0.56
20:57:23.772,-0.405,0.51
20:57:23.776,-0.39,0.53
20:57:23.780,-0.39,0.52
20:57:23.784,-0.4,0.515
20:57:23.788,-0.405,0.51
20:57:23.792,-0.395,0.5
20:57:23.796,-0.385,0.525
20:57:23.800,-0.375,0.525
20:57:23.804,-0.37,0.52
20:57:23.808,-0.37,0.53
20:57:23.812,-0.37,0.535
20:57:23.816,-0.355,0.52
20:57:23.820,-0.345,0.54
20:57:23.824,-0.345,0.525
20:57:23.828,-0.33,0.565
20:57:23.832,-0.305,0.525
20:57:23.836,-0.285,0.535
20:57:23.840,-0.29,0.55
20:57:23.844,-0.28,0.55
20:57:23.848,-0.26,0.555
20:57:23.852,-0.235,0.57
20:57:23.856,-0.24,0.59
20:57:23.860,-0.255,0.58
20:57:23.864,-0.28,0.625
20:57:23.868,-0.24,0.62
20:57:23.872,-0.29,0.62
20:57:23.876,-0.28,0.61
20:57:23.880,-0.255,0.585
20:57:23.884,-0.265,0.6
20:57:23.888,-0.275,0.625
20:57:23.892,-0.28,0.63
20:57:23.896,-0.285,0.635
20:57:23.900,-0.265,0.635
20:57:23.904,-0.285,0.645
20:57:23.908,-0.305,0.62
20:57:23.912,-0.29,0.635
20:57:23.916,-0.315,0.63
20:57:23.920,-0.325,0.62
20:57:23.924,-0.315,0.605
20:57:23.928,-0.335,0.635
20:57:23.932,-0.35,0.6
20:57:23.936,-0.355,0.6
20:57:23.940,-0.34,0.6
20:57:23.944,-0.35,0.585
20:57:23.948,-0.35,0.595
20:57:23.952,-0.335,0.595
20:57:23.956,-0.34,0.58
20:57:23.960,-0.32,0.6
20:57:23.964,-0.32,0.62
20:57:23.968,-0.35,0.605
20:57:23.972,-0.33,0.59
20:57:23.976,-0.35,0.59
20:57:23.980,-0.335,0.56
20:57:23.984,-0.31,0.53
20:57:23.988,-0.265,0.525
20:57:23.992,-0.205,0.485
20:57:23.996,-0.14,0.5
20:57:24.000,-0.055,0.49
20:57:24.004,0.015,0.465
20:57:24.008,0.095,0.41
20:57:24.012,0.12,0.385
20:57:24.016,0.185,0.4
20:57:24.020,0.225,0.345
20:57:24.024,0.205,0.32
20:57:24.028,0.265,0.235
20:57:24.032,0.485,0.15
20:57:24.036,0.785,-0.025
20:57:24.040,1.06,-0.265
20:57:24.044,1.15,-0.49
20:57:24.048,0.935,-0.595
20:57:24.052,0.475,-0.445
20:57:24.056,0.07,-0.095
20:57:24.060,-0.165,0.21
20:57:24.064,-0.255,0.395
20:57:24.068,-0.305,0.52
20:57:24.072,-0.31,0.635
20:57:24.076,-0.365,0.675
20:57:24.080,-0.39,0.7
20:57:24.084,-0.405,0.71
20:57:24.088,-0.395,0.705
20:57:24.092,-0.4,0.71
20:57:24.096,-0.37,0.71
20:57:24.100,-0.38,0.7
20:57:24.104,-0.385,0.705
20:57:24.108,-0.39,0.69
20:57:24.112,-0.42,0.7
20:57:24.116,-0.415,0.7
20:57:24.120,-0.435,0.695
20:57:24.124,-0.43,0.69
20:57:24.128,-0.43,0.68
20:57:24.132,-0.44,0.68
20:57:24.136,-0.44,0.685
20:57:24.140,-0.455,0.69
20:57:24.144,-0.46,0.685
20:57:24.148,-0.46,0.685
20:57:24.152,-0.495,0.675
20:57:24.156,-0.495,0.69
20:57:24.160,-0.49,0.7
20:57:24.164,-0.49,0.705
20:57:24.168,-0.515,0.695
20:57:24.172,-0.515,0.68
20:57:24.176,-0.535,0.655
20:57:24.180,-0.57,0.655
20:57:24.184,-0.57,0.63
20:57:24.188,-0.585,0.63
20:57:24.192,-0.585,0.635
20:57:24.196,-0.59,0.615
20:57:24.200,-0.59,0.59
20:57:24.204,-0.57,0.595
20:57:24.208,-0.545,0.6
20:57:24.212,-0.535,0.59
20:57:24.216,-0.525,0.61
20:57:24.220,-0.525,0.585
20:57:24.224,-0.48,0.6
20:57:24.228,-0.48,0.605
20:57:24.232,-0.465,0.59
20:57:24.236,-0.425,0.565
20:57:24.240,-0.43,0.585
20:57:24.244,-0.445,0.6
20:57:24.248,-0.41,0.595
20:57:24.252,-0.4,0.57
20:57:24.256,-0.4,0.575
20:57:24.260,-0.38,0.57
20:57:24.264,-0.36,0.57
20:57:24.268,-0.35,0.555
20:57:24.272,-0.355,0.545
20:57:24.276,-0.29,0.55
20:57:24.280,-0.305,0.545
20:57:24.284,-0.275,0.545
20:57:24.288,-0.25,0.565
20:57:24.292,-0.245,0.56
20:57:24.296,-0.235,0.575
20:57:24.300,-0.235,0.57
20:57:24.304,-0.215,0.595
20:57:24.308,-0.195,0.6
20:57:24.312,-0.215,0.595
20:57:24.316,-0.215,0.6
20:57:24.320,-0.2,0.58
20:57:24.324,-0.19,0.595
20:57:24.328,-0.185,0.61
20:57:24.332,-0.2,0.57
20:57:24.336,-0.195,0.585
20:57:24.340,-0.2,0.595
20:57:24.344,-0.2,0.585
20:57:24.348,-0.2,0.6
20:57:24.352,-0.22,0.585
20:57:24.356,-0.21,0.585
20:57:24.360,-0.24,0.585
20:57:24.364,-0.23,0.57
20:57:24.368,-0.235,0.575
20:57:24.372,-0.24,0.58
20:57:24.376,-0.275,0.57
20:57:24.380,-0.295,0.56
20:57:24.384,-0.305,0.595
20:57:24.388,-0.29,0.59
20:57:24.392,-0.295,0.545
20:57:24.396,-0.28,0.545
20:57:24.400,-0.275,0.535
20:57:24.404,-0.28,0.525
20:57:24.408,-0.265,0.51
20:57:24.412,-0.255,0.51
20:57:24.416,-0.24,0.5
20:57:24.420,-0.23,0.49
20:57:24.424,-0.2,0.485
20:57:24.428,-0.18,0.485
20:57:24.432,-0.13,0.485
20:57:24.436,-0.04,0.475
20:57:24.440,0.005,0.475
20:57:24.444,0.055,0.455
20:57:24.448,0.11,0.415
20:57:24.452,0.125,0.385
20:57:24.456,0.145,0.335
20:57:24.460,0.14,0.34
20:57:24.464,0.125,0.33
20:57:24.468,0.18,0.255
20:57:24.472,0.36,0.145
20:57:24.476,0.655,-0.05
20:57:24.480,0.975,-0.28
20:57:24.484,1.155,-0.54
20:57:24.488,1.115,-0.715
20:57:24.492,0.785,-0.68
20:57:24.496,0.3,-0.38
20:57:24.500,-0.085,-0.01
20:57:24.504,-0.28,0.27
20:57:24.508,-0.345,0.43
20:57:24.512,-0.355,0.51
20:57:24.516,-0.38,0.595
20:57:24.520,-0.365,0.62
20:57:24.524,-0.39,0.62
20:57:24.528,-0.385,0.63
20:57:24.532,-0.375,0.61
20:57:24.536,-0.38,0.61
20:57:24.540,-0.375,0.59
20:57:24.544,-0.39,0.605
20:57:24.548,-0.39,0.605
20:57:24.552,-0.4,0.595
20:57:24.556,-0.415,0.585
20:57:24.560,-0.425,0.59
20:57:24.564,-0.415,0.6
20:57:24.568,-0.44,0.585
20:57:24.572,-0.445,0.6
20:57:24.576,-0.45,0.605
20:57:24.580,-0.47,0.6
20:57:24.584,-0.48,0.615
20:57:24.588,-0.485,0.63
20:57:24.592,-0.51,0.625
20:57:24.596,-0.515,0.62
20:57:24.600,-0.55,0.615
20:57:24.604,-0.53,0.6
20:57:24.608,-0.52,0.575
20:57:24.612,-0.53,0.58
20:57:24.616,-0.53,0.54
20:57:24.620,-0.52,0.555
20:57:24.624,-0.515,0.54
20:57:24.628,-0.5,0.545
20:57:24.632,-0.5,0.53
20:57:24.636,-0.505,0.555
20:57:24.640,-0.495,0.53
20:57:24.644,-0.485,0.51
20:57:24.648,-0.5,0.51
20:57:24.652,-0.505,0.51
20:57:24.656,-0.49,0.505
20:57:24.660,-0.47,0.51
20:57:24.664,-0.455,0.535
20:57:24.668,-0.445,0.52
20:57:24.672,-0.425,0.53
20:57:24.676,-0.395,0.545
20:57:24.680,-0.39,0.565
20:57:24.684,-0.37,0.575
20:57:24.688,-0.37,0.575
20:57:24.692,-0.355,0.595
20:57:24.696,-0.36,0.56
20:57:24.700,-0.355,0.535
20:57:24.704,-0.33,0.545
20:57:24.708,-0.365,0.52
20:57:24.712,-0.34,0.515
20:57:24.716,-0.335,0.51
20:57:24.720,-0.32,0.495
20:57:24.724,-0.29,0.52
20:57:24.728,-0.315,0.51
20:57:24.732,-0.305,0.485
20:57:24.736,-0.285,0.49
20:57:24.740,-0.305,0.505
20:57:24.744,-0.285,0.52
20:57:24.748,-0.305,0.51
20:57:24.752,-0.285,0.495
20:57:24.756,-0.3,0.495
20:57:24.760,-0.285,0.51
20:57:24.764,-0.285,0.495
20:57:24.768,-0.265,0.525
20:57:24.772,-0.27,0.54
20:57:24.776,-0.25,0.53
20:57:24.780,-0.24,0.535
20:57:24.784,-0.25,0.545
20:57:24.788,-0.24,0.545
20:57:24.792,-0.215,0.545
20:57:24.796,-0.21,0.575
20:57:24.800,-0.22,0.58
20:57:24.804,-0.215,0.53
20:57:24.808,-0.21,0.565
20:57:24.812,-0.2,0.54
20:57:24.816,-0.2,0.54
20:57:24.820,-0.205,0.545
20:57:24.824,-0.21,0.545
20:57:24.828,-0.21,0.525
20:57:24.832,-0.165,0.505
20:57:24.836,-0.115,0.495
20:57:24.840,-0.065,0.48
20:57:24.844,0.0,0.455
20:57:24.848,0.035,0.415
20:57:24.852,0.04,0.385
20:57:24.856,0.015,0.36
20:57:24.860,0.03,0.33
20:57:24.864,0.025,0.35
20:57:24.868,0.03,0.27
20:57:24.872,0.17,0.175
20:57:24.876,0.44,0.055
20:57:24.880,0.81,-0.17
20:57:24.884,1.085,-0.43
20:57:24.888,1.135,-0.665
20:57:24.892,0.94,-0.735
20:57:24.896,0.485,-0.51
20:57:24.900,0.055,-0.135
20:57:24.904,-0.215,0.205
20:57:24.908,-0.33,0.395
20:57:24.912,-0.36,0.515
20:57:24.916,-0.385,0.58
20:57:24.920,-0.395,0.62
20:57:24.924,-0.425,0.63
20:57:24.928,-0.45,0.62
20:57:24.932,-0.465,0.63
20:57:24.936,-0.485,0.6
20:57:24.940,-0.475,0.61
20:57:24.944,-0.49,0.575
20:57:24.948,-0.51,0.575
20:57:24.952,-0.515,0.59
20:57:24.956,-0.54,0.565
20:57:24.960,-0.525,0.565
20:57:24.964,-0.515,0.58
20:57:24.968,-0.53,0.595
20:57:24.972,-0.525,0.6
20:57:24.976,-0.535,0.6
20:57:24.980,-0.55,0.6
20:57:24.984,-0.525,0.615
20:57:24.988,-0.515,0.625
20:57:24.992,-0.52,0.61
20:57:24.996,-0.49,0.645
20:57:25.000,-0.495,0.655
20:57:25.004,-0.475,0.64
20:57:25.008,-0.455,0.635
20:57:25.012,-0.445,0.625
20:57:25.016,-0.43,0.65
20:57:25.020,-0.44,0.67
20:57:25.024,-0.435,0.655
20:57:25.028,-0.435,0.67
20:57:25.032,-0.445,0.68
20:57:25.036,-0.44,0.67
20:57:25.040,-0.445,0.63
20:57:25.044,-0.48,0.62
20:57:25.048,-0.465,0.6
20:57:25.052,-0.47,0.61
20:57:25.056,-0.43,0.595
20:57:25.060,-0.43,0.585
20:57:25.064,-0.42,0.58
20:57:25.068,-0.41,0.565
20:57:25.072,-0.405,0.575
20:57:25.076,-0.395,0.565
20:57:25.080,-0.385,0.565
20:57:25.084,-0.385,0.555
20:57:25.088,-0.35,0.535
20:57:25.092,-0.36,0.555
20:57:25.096,-0.335,0.53
20:57:25.100,-0.33,0.54
20:57:25.104,-0.285,0.54
20:57:25.108,-0.285,0.55
20:57:25.112,-0.27,0.55
20:57:25.116,-0.275,0.57
20:57:25.120,-0.28,0.56
20:57:25.124,-0.275,0.55
20:57:25.128,-0.27,0.55
20:57:25.132,-0.28,0.56
20:57:25.136,-0.3,0.555
20:57:25.140,-0.3,0.56
20:57:25.144,-0.295,0.55
20:57:25.148,-0.305,0.56
20:57:25.152,-0.32,0.545
20:57:25.156,-0.335,0.57
20:57:25.160,-0.38,0.56
20:57:25.164,-0.38,0.575
20:57:25.168,-0.37,0.55
20:57:25.172,-0.37,0.55
20:57:25.176,-0.375,0.545
20:57:25.180,-0.38,0.545
20:57:25.184,-0.4,0.525
20:57:25.188,-0.36,0.555
20:57:25.192,-0.385,0.55
20:57:25.196,-0.355,0.55
20:57:25.200,-0.38,0.545
20:57:25.204,-0.35,0.565
20:57:25.208,-0.34,0.575
20:57:25.212,-0.345,0.58
20:57:25.216,-0.295,0.59
20:57:25.220,-0.26,0.59
20:57:25.224,-0.25,0.595
20:57:25.228,-0.23,0.605
20:57:25.232,-0.235,0.585
20:57:25.236,-0.235,0.615
20:57:25.240,-0.235,0.61
20:57:25.244,-0.225,0.62
20:57:25.248,-0.245,0.6
20:57:25.252,-0.235,0.6
20:57:25.256,-0.235,0.6
20:57:25.260,-0.21,0.565
20:57:25.264,-0.245,0.59
20:57:25.268,-0.225,0.575
20:57:25.272,-0.26,0.55
20:57:25.276,-0.255,0.525
20:57:25.280,-0.28,0.525
20:57:25.284,-0.265,0.52
20:57:25.288,-0.275,0.51
20:57:25.292,-0.26,0.495
20:57:25.296,-0.25,0.52
20:57:25.300,-0.255,0.505
20:57:25.304,-0.255,0.505
20:57:25.308,-0.27,0.505
20:57:25.312,-0.26,0.53
20:57:25.316,-0.27,0.54
20:57:25.320,-0.28,0.535
20:57:25.324,-0.255,0.545
20:57:25.328,-0.275,0.55
20:57:25.332,-0.255,0.565
20:57:25.336,-0.27,0.57
20:57:25.340,-0.3,0.555
20:57:25.344,-0.31,0.555
20:57:25.348,-0.305,0.575
20:57:25.352,-0.365,0.55
20:57:25.356,-0.385,0.555
20:57:25.360,-0.4,0.565
20:57:25.364,-0.405,0.555
20:57:25.368,-0.4,0.56
20:57:25.372,-0.41,0.57
20:57:25.376,-0.42,0.545
20:57:25.380,-0.43,0.565
20:57:25.384,-0.445,0.545
20:57:25.388,-0.455,0.54
20:57:25.392,-0.435,0.52
20:57:25.396,-0.435,0.53
20:57:25.400,-0.405,0.505
20:57:25.404,-0.38,0.515
20:57:25.408,-0.38,0.495
20:57:25.412,-0.36,0.5
20:57:25.416,-0.36,0.495
20:57:25.420,-0.375,0.495
20:57:25.424,-0.36,0.51
20:57:25.428,-0.38,0.53
20:57:25.432,-0.365,0.525
20:57:25.436,-0.345,0.52
20:57:25.440,-0.35,0.52
20:57:25.444,-0.345,0.52
20:57:25.448,-0.33,0.495
20:57:25.452,-0.305,0.515
20:57:25.456,-0.27,0.495
20:57:25.460,-0.27,0.49
20:57:25.464,-0.27,0.46
20:57:25.468,-0.265,0.49
20:57:25.472,-0.275,0.475
20:57:25.476,-0.26,0.47
20:57:25.480,-0.255,0.485
20:57:25.484,-0.27,0.485
20:57:25.488,-0.29,0.48
20:57:25.492,-0.285,0.48
20:57:25.496,-0.285,0.475
20:57:25.500,-0.27,0.5
20:57:25.504,-0.27,0.475
20:57:25.508,-0.28,0.48
20:57:25.512,-0.28,0.465
20:57:25.516,-0.26,0.46
20:57:25.520,-0.285,0.48
20:57:25.524,-0.27,0.445
20:57:25.528,-0.275,0.49
20:57:25.532,-0.29,0.47
20:57:25.536,-0.315,0.47
20:57:25.540,-0.33,0.455
20:57:25.544,-0.37,0.47
20:57:25.548,-0.35,0.475
20:57:25.552,-0.34,0.475
20:57:25.556,-0.355,0.47
20:57:25.560,-0.345,0.455
20:57:25.564,-0.35,0.45
20:57:25.568,-0.355,0.455
20:57:25.572,-0.375,0.47
20:57:25.576,-0.38,0.445
20:57:25.580,-0.375,0.455
20:57:25.584,-0.38,0.45
20:57:25.588,-0.405,0.465
20:57:25.592,-0.385,0.48
20:57:25.596,-0.38,0.435
20:57:25.600,-0.34,0.435
20:57:25.604,-0.315,0.43
20:57:25.608,-0.27,0.43
20:57:25.612,-0.195,0.435
20:57:25.616,-0.115,0.43
20:57:25.620,-0.035,0.415
20:57:25.624,0.025,0.405
20:57:25.628,0.075,0.395
20:57:25.632,0.115,0.36
20:57:25.636,0.155,0.355
20:57:25.640,0.17,0.325
20:57:25.644,0.14,0.28
20:57:25.648,0.185,0.19
20:57:25.652,0.385,0.065
20:57:25.656,0.67,-0.14
20:57:25.660,0.945,-0.385
20:57:25.664,1.04,-0.625
20:57:25.668,0.855,-0.685
20:57:25.672,0.41,-0.54
20:57:25.676,-0.015,-0.22
20:57:25.680,-0.23,0.11
20:57:25.684,-0.345,0.295
20:57:25.688,-0.38,0.41
20:57:25.692,-0.39,0.48
20:57:25.696,-0.4,0.54
20:57:25.700,-0.405,0.53
20:57:25.704,-0.39,0.545
20:57:25.708,-0.39,0.53
20:57:25.712,-0.395,0.505
20:57:25.716,-0.415,0.515
20:57:25.720,-0.43,0.515
20:57:25.724,-0.44,0.51
20:57:25.728,-0.44,0.52
20:57:25.732,-0.465,0.525
20:57:25.736,-0.5,0.53
20:57:25.740,-0.515,0.51
20:57:25.744,-0.525,0.505
20:57:25.748,-0.53,0.505
20:57:25.752,-0.54,0.525
20:57:25.756,-0.54,0.525
20:57:25.760,-0.555,0.525
20:57:25.764,-0.57,0.525
20:57:25.768,-0.575,0.525
20:57:25.772,-0.575,0.535
20:57:25.776,-0.555,0.515
20:57:25.780,-0.54,0.495
20:57:25.784,-0.53,0.525
20:57:25.788,-0.535,0.5
20:57:25.792,-0.53,0.53
20:57:25.796,-0.525,0.53
20:57:25.800,-0.525,0.52
20:57:25.804,-0.525,0.505
20:57:25.808,-0.505,0.52
20:57:25.812,-0.505,0.51
20:57:25.816,-0.5,0.53
20:57:25.820,-0.505,0.53
20:57:25.824,-0.53,0.515
20:57:25.828,-0.515,0.545
20:57:25.832,-0.52,0.545
20:57:25.836,-0.54,0.54
20:57:25.840,-0.51,0.55
20:57:25.844,-0.495,0.555
20:57:25.848,-0.52,0.53
20:57:25.852,-0.52,0.54
20:57:25.856,-0.53,0.505
20:57:25.860,-0.51,0.53
20:57:25.864,-0.54,0.535
20:57:25.868,-0.535,0.515
20:57:25.872,-0.525,0.5
20:57:25.876,-0.53,0.515
20:57:25.880,-0.525,0.495
20:57:25.884,-0.505,0.485
20:57:25.888,-0.475,0.515
20:57:25.892,-0.465,0.485
20:57:25.896,-0.44,0.48
20:57:25.900,-0.445,0.49
20:57:25.904,-0.435,0.47
20:57:25.908,-0.425,0.475
20:57:25.912,-0.42,0.48
20:57:25.916,-0.42,0.46
20:57:25.920,-0.4,0.46
20:57:25.924,-0.415,0.48
20:57:25.928,-0.4,0.46
20:57:25.932,-0.4,0.45
20:57:25.936,-0.405,0.445
20:57:25.940,-0.4,0.45
20:57:25.944,-0.38,0.45
20:57:25.948,-0.345,0.44
20:57:25.952,-0.32,0.475
20:57:25.956,-0.33,0.45
20:57:25.960,-0.3,0.465
20:57:25.964,-0.295,0.45
20:57:25.968,-0.295,0.475
20:57:25.972,-0.295,0.49
20:57:25.976,-0.305,0.505
20:57:25.980,-0.275,0.51
20:57:25.984,-0.285,0.51
20:57:25.988,-0.295,0.515
20:57:25.992,-0.27,0.52
20:57:25.996,-0.25,0.535
20:57:26.000,-0.26,0.55
20:57:26.004,-0.27,0.56
20:57:26.008,-0.27,0.54
20:57:26.012,-0.255,0.555
20:57:26.016,-0.255,0.58
20:57:26.020,-0.24,0.58
20:57:26.024,-0.26,0.585
20:57:26.028,-0.245,0.59
20:57:26.032,-0.235,0.595
20:57:26.036,-0.25,0.595
20:57:26.040,-0.235,0.595
20:57:26.044,-0.245,0.59
20:57:26.048,-0.265,0.585
20:57:26.052,-0.26,0.575
20:57:26.056,-0.28,0.565
20:57:26.060,-0.28,0.55
20:57:26.064,-0.29,0.545
20:57:26.068,-0.29,0.55
20:57:26.072,-0.3,0.525
20:57:26.076,-0.305,0.56
20:57:26.080,-0.315,0.535
20:57:26.084,-0.3,0.53
20:57:26.088,-0.31,0.55
20:57:26.092,-0.3,0.54
20:57:26.096,-0.3,0.55
20:57:26.100,-0.3,0.56
20:57:26.104,-0.275,0.56
20:57:26.108,-0.215,0.56
20:57:26.112,-0.19,0.535
20:57:26.116,-0.12,0.53
20:57:26.120,-0.045,0.525
20:57:26.124,0.0,0.485
20:57:26.128,0.025,0.43
20:57:26.132,0.05,0.405
20:57:26.136,0.055,0.415
20:57:26.140,0.05,0.39
20:57:26.144,0.05,0.305
20:57:26.148,0.19,0.195
20:57:26.152,0.46,0.01
20:57:26.156,0.795,-0.22
20:57:26.160,1.035,-0.48
20:57:26.164,1.04,-0.705
20:57:26.168,0.76,-0.74
20:57:26.172,0.28,-0.495
20:57:26.176,-0.115,-0.105
20:57:26.180,-0.295,0.2
20:57:26.184,-0.365,0.38
20:57:26.188,-0.38,0.47
20:57:26.192,-0.38,0.55
20:57:26.196,-0.39,0.565
20:57:26.200,-0.4,0.615
20:57:26.204,-0.39,0.605
20:57:26.208,-0.375,0.615
20:57:26.212,-0.4,0.61
20:57:26.216,-0.385,0.62
20:57:26.220,-0.37,0.6
20:57:26.224,-0.36,0.59
20:57:26.228,-0.38,0.62
20:57:26.232,-0.38,0.6
20:57:26.236,-0.385,0.625
20:57:26.240,-0.405,0.645
20:57:26.244,-0.41,0.625
20:57:26.248,-0.395,0.61
20:57:26.252,-0.395,0.585
20:57:26.256,-0.395,0.59
20:57:26.260,-0.39,0.585
20:57:26.264,-0.41,0.615
20:57:26.268,-0.43,0.595
20:57:26.272,-0.465,0.595
20:57:26.276,-0.48,0.595
20:57:26.280,-0.47,0.59
20:57:26.284,-0.485,0.58
20:57:26.288,-0.475,0.61
20:57:26.292,-0.48,0.59
20:57:26.296,-0.5,0.585
20:57:26.300,-0.51,0.575
20:57:26.304,-0.515,0.57
20:57:26.308,-0.515,0.575
20:57:26.312,-0.52,0.59
20:57:26.316,-0.53,0.575
20:57:26.320,-0.53,0.575
20:57:26.324,-0.52,0.575
20:57:26.328,-0.5,0.575
20:57:26.332,-0.485,0.57
20:57:26.336,-0.48,0.575
20:57:26.340,-0.51,0.575
20:57:26.344,-0.48,0.575
20:57:26.348,-0.495,0.58
20:57:26.352,-0.47,0.565
20:57:26.356,-0.46,0.57
20:57:26.360,-0.455,0.57
20:57:26.364,-0.465,0.565
20:57:26.368,-0.43,0.54
20:57:26.372,-0.405,0.535
20:57:26.376,-0.415,0.53
20:57:26.380,-0.425,0.52
20:57:26.384,-0.39,0.495
20:57:26.388,-0.38,0.48
20:57:26.392,-0.38,0.485
20:57:26.396,-0.38,0.485
20:57:26.400,-0.36,0.455
20:57:26.404,-0.34,0.44
20:57:26.408,-0.335,0.43
20:57:26.412,-0.3,0.415
20:57:26.416,-0.275,0.42
20:57:26.420,-0.25,0.435
20:57:26.424,-0.245,0.435
20:57:26.428,-0.235,0.455
20:57:26.432,-0.24,0.45
20:57:26.436,-0.225,0.47
20:57:26.440,-0.22,0.485
20:57:26.444,-0.22,0.47
20:57:26.448,-0.23,0.505
20:57:26.452,-0.225,0.49
20:57:26.456,-0.255,0.5
20:57:26.460,-0.27,0.485
20:57:26.464,-0.27,0.51
20:57:26.468,-0.305,0.515
20:57:26.472,-0.31,0.5
20:57:26.476,-0.3,0.515
20:57:26.480,-0.29,0.5
20:57:26.484,-0.295,0.51
20:57:26.488,-0.295,0.505
20:57:26.492,-0.285,0.475
20:57:26.496,-0.3,0.485
20:57:26.500,-0.315,0.48
20:57:26.504,-0.32,0.5
20:57:26.508,-0.32,0.505
20:57:26.512,-0.305,0.495
20:57:26.516,-0.3,0.49
20:57:26.520,-0.315,0.48
20:57:26.524,-0.325,0.48
20:57:26.528,-0.33,0.47
20:57:26.532,-0.35,0.48
20:57:26.536,-0.36,0.465
20:57:26.540,-0.345,0.46
20:57:26.544,-0.355,0.46
20:57:26.548,-0.365,0.465
20:57:26.552,-0.325,0.455
20:57:26.556,-0.33,0.455
20:57:26.560,-0.335,0.485
20:57:26.564,-0.345,0.46
20:57:26.568,-0.345,0.455
20:57:26.572,-0.34,0.475
20:57:26.576,-0.34,0.47
20:57:26.580,-0.32,0.48
20:57:26.584,-0.305,0.475
20:57:26.588,-0.31,0.485
20:57:26.592,-0.295,0.45
20:57:26.596,-0.3,0.47
20:57:26.600,-0.295,0.47
20:57:26.604,-0.285,0.475
20:57:26.608,-0.32,0.485
20:57:26.612,-0.305,0.505
20:57:26.616,-0.295,0.485
20:57:26.620,-0.305,0.49
20:57:26.624,-0.29,0.465
20:57:26.628,-0.3,0.46
20:57:26.632,-0.29,0.44
20:57:26.636,-0.285,0.44
20:57:26.640,-0.265,0.44
20:57:26.644,-0.28,0.4
20:57:26.648,-0.28,0.425
20:57:26.652,-0.32,0.425
20:57:26.656,-0.305,0.41
20:57:26.660,-0.31,0.44
20:57:26.664,-0.3,0.445
20:57:26.668,-0.32,0.46
20:57:26.672,-0.325,0.46
20:57:26.676,-0.325,0.47
20:57:26.680,-0.31,0.455
20:57:26.684,-0.34,0.445
20:57:26.688,-0.335,0.46
20:57:26.692,-0.315,0.46
20:57:26.696,-0.32,0.47
20:57:26.700,-0.295,0.445
20:57:26.704,-0.29,0.455
20:57:26.708,-0.31,0.47
20:57:26.712,-0.31,0.46
20:57:26.716,-0.31,0.45
20:57:26.720,-0.32,0.435
20:57:26.724,-0.33,0.43
20:57:26.728,-0.335,0.43
20:57:26.732,-0.335,0.425
20:57:26.736,-0.35,0.415
20:57:26.740,-0.365,0.42
20:57:26.744,-0.345,0.415
20:57:26.748,-0.325,0.44
20:57:26.752,-0.325,0.43
20:57:26.756,-0.33,0.43
20:57:26.760,-0.32,0.42
20:57:26.764,-0.33,0.45
20:57:26.768,-0.315,0.43
20:57:26.772,-0.285,0.45
20:57:26.776,-0.3,0.44
20:57:26.780,-0.32,0.44
20:57:26.784,-0.3,0.46
20:57:26.788,-0.295,0.465
20:57:26.792,-0.285,0.46
20:57:26.796,-0.28,0.47
20:57:26.800,-0.26,0.485
20:57:26.804,-0.28,0.49
20:57:26.808,-0.28,0.485
20:57:26.812,-0.31,0.49
20:57:26.816,-0.295,0.48
20:57:26.820,-0.315,0.485
20:57:26.824,-0.35,0.49
20:57:26.828,-0.37,0.48
20:57:26.832,-0.4,0.505
20:57:26.836,-0.4,0.495
20:57:26.840,-0.395,0.485
20:57:26.844,-0.395,0.485
20:57:26.848,-0.39,0.465
20:57:26.852,-0.38,0.465
20:57:26.856,-0.38,0.445
20:57:26.860,-0.355,0.435
20:57:26.864,-0.34,0.395
20:57:26.868,-0.335,0.405
20:57:26.872,-0.35,0.435
20:57:26.876,-0.35,0.44
20:57:26.880,-0.34,0.435
20:57:26.884,-0.33,0.46
20:57:26.888,-0.315,0.445
20:57:26.892,-0.31,0.42
20:57:26.896,-0.31,0.435
20:57:26.900,-0.285,0.44
20:57:26.904,-0.27,0.435
20:57:26.908,-0.23,0.45
20:57:26.912,-0.15,0.445
20:57:26.916,-0.12,0.435
20:57:26.920,-0.035,0.43
20:57:26.924,0.06,0.425
20:57:26.928,0.12,0.395
20:57:26.932,0.145,0.365
20:57:26.936,0.16,0.315
20:57:26.940,0.185,0.315
20:57:26.944,0.175,0.295
20:57:26.948,0.175,0.235
20:57:26.952,0.23,0.13
20:57:26.956,0.395,-0.025
20:57:26.960,0.69,-0.23
20:57:26.964,1.005,-0.49
20:57:26.968,1.17,-0.725
20:57:26.972,1.125,-0.84
20:57:26.976,0.755,-0.73
20:57:26.980,0.265,-0.37
20:57:26.984,-0.1,0.005
20:57:26.988,-0.265,0.235
20:57:26.992,-0.335,0.4
20:57:26.996,-0.37,0.495
20:57:27.000,-0.37,0.565
20:57:27.004,-0.365,0.605
20:57:27.008,-0.39,0.585
20:57:27.012,-0.4,0.635
20:57:27.016,-0.42,0.595
20:57:27.020,-0.44,0.615
20:57:27.024,-0.47,0.62
20:57:27.028,-0.49,0.63
20:57:27.032,-0.52,0.625
20:57:27.036,-0.54,0.635
20:57:27.040,-0.51,0.655
20:57:27.044,-0.545,0.63
20:57:27.048,-0.535,0.65
20:57:27.052,-0.56,0.65
20:57:27.056,-0.575,0.66
20:57:27.060,-0.57,0.635
20:57:27.064,-0.58,0.65
20:57:27.068,-0.6,0.65
20:57:27.072,-0.585,0.645
20:57:27.076,-0.6,0.635
20:57:27.080,-0.615,0.625
20:57:27.084,-0.595,0.615
20:57:27.088,-0.595,0.585
20:57:27.092,-0.585,0.6
20:57:27.096,-0.57,0.585
20:57:27.100,-0.545,0.56
20:57:27.104,-0.505,0.54
20:57:27.108,-0.5,0.53
20:57:27.112,-0.475,0.535
20:57:27.116,-0.46,0.53
20:57:27.120,-0.445,0.525
20:57:27.124,-0.425,0.54
20:57:27.128,-0.435,0.535
20:57:27.132,-0.445,0.555
20:57:27.136,-0.45,0.555
20:57:27.140,-0.455,0.555
20:57:27.144,-0.45,0.565
20:57:27.148,-0.44,0.555
20:57:27.152,-0.435,0.565
20:57:27.156,-0.45,0.57
20:57:27.160,-0.445,0.56
20:57:27.164,-0.46,0.55
20:57:27.168,-0.47,0.545
20:57:27.172,-0.47,0.56
20:57:27.176,-0.465,0.555
20:57:27.180,-0.45,0.56
20:57:27.184,-0.45,0.545
20:57:27.188,-0.44,0.55
20:57:27.192,-0.455,0.545
20:57:27.196,-0.42,0.525
20:57:27.200,-0.4,0.51
20:57:27.204,-0.4,0.515
20:57:27.208,-0.4,0.53
20:57:27.212,-0.42,0.52
20:57:27.216,-0.405,0.525
20:57:27.220,-0.415,0.525
20:57:27.224,-0.385,0.53
20:57:27.228,-0.36,0.525
20:57:27.232,-0.375,0.54
20:57:27.236,-0.365,0.51
20:57:27.240,-0.385,0.525
20:57:27.244,-0.355,0.52
20:57:27.248,-0.38,0.535
20:57:27.252,-0.37,0.515
20:57:27.256,-0.385,0.535
20:57:27.260,-0.35,0.545
20:57:27.264,-0.38,0.55
20:57:27.268,-0.375,0.525
20:57:27.272,-0.39,0.53
20:57:27.276,-0.375,0.54
20:57:27.280,-0.365,0.555
20:57:27.284,-0.385,0.54
20:57:27.288,-0.38,0.53
20:57:27.292,-0.365,0.525
20:57:27.296,-0.365,0.51
20:57:27.300,-0.355,0.485
20:57:27.304,-0.35,0.5
20:57:27.308,-0.34,0.495
20:57:27.312,-0.345,0.475
20:57:27.316,-0.33,0.475
20:57:27.320,-0.3,0.465
20:57:27.324,-0.265,0.47
20:57:27.328,-0.255,0.475
20:57:27.332,-0.23,0.48
20:57:27.336,-0.225,0.475
20:57:27.340,-0.2,0.455
20:57:27.344,-0.2,0.47
20:57:27.348,-0.195,0.465
20:57:27.352,-0.18,0.485
20:57:27.356,-0.19,0.48
20:57:27.360,-0.17,0.48
20:57:27.364,-0.165,0.475
20:57:27.368,-0.175,0.495
20:57:27.372,-0.18,0.5
20:57:27.376,-0.195,0.495
20:57:27.380,-0.2,0.47
20:57:27.384,-0.235,0.47
20:57:27.388,-0.23,0.47
20:57:27.392,-0.245,0.46
20:57:27.396,-0.285,0.49
20:57:27.400,-0.275,0.51
20:57:27.404,-0.28,0.515
20:57:27.408,-0.28,0.51
20:57:27.412,-0.305,0.54
20:57:27.416,-0.305,0.53
20:57:27.420,-0.32,0.53
20:57:27.424,-0.33,0.52
20:57:27.428,-0.34,0.51
20:57:27.432,-0.355,0.53
20:57:27.436,-0.37,0.525
20:57:27.440,-0.375,0.52
20:57:27.444,-0.39,0.535
20:57:27.448,-0.38,0.525
20:57:27.452,-0.385,0.525
20:57:27.456,-0.385,0.545
20:57:27.460,-0.415,0.52
20:57:27.464,-0.415,0.53
20:57:27.468,-0.42,0.525
20:57:27.472,-0.42,0.51
20:57:27.476,-0.415,0.53
20:57:27.480,-0.44,0.525
20:57:27.484,-0.405,0.51
20:57:27.488,-0.365,0.505
20:57:27.492,-0.3,0.5
20:57:27.496,-0.225,0.48
20:57:27.500,-0.13,0.45
20:57:27.504,-0.05,0.435
20:57:27.508,0.0,0.39
20:57:27.512,0.045,0.325
20:57:27.516,0.1,0.28
20:57:27.520,0.13,0.28
20:57:27.524,0.125,0.215
20:57:27.528,0.155,0.13
20:57:27.532,0.295,0.0
20:57:27.536,0.56,-0.16
20:57:27.540,0.89,-0.42
20:57:27.544,1.1,-0.69
20:57:27.548,1.03,-0.845
20:57:27.552,0.675,-0.775
20:57:27.556,0.19,-0.47
20:57:27.560,-0.135,-0.08
20:57:27.564,-0.285,0.155
20:57:27.568,-0.32,0.335
20:57:27.572,-0.345,0.435
20:57:27.576,-0.34,0.525
20:57:27.580,-0.38,0.555
20:57:27.584,-0.38,0.57
20:57:27.588,-0.42,0.59
20:57:27.592,-0.42,0.59
20:57:27.596,-0.45,0.56
20:57:27.600,-0.46,0.555
20:57:27.604,-0.48,0.55
20:57:27.608,-0.505,0.54
20:57:27.612,-0.545,0.57
20:57:27.616,-0.545,0.565
20:57:27.620,-0.545,0.58
20:57:27.624,-0.56,0.57
20:57:27.628,-0.585,0.58
20:57:27.632,-0.585,0.57
20:57:27.636,-0.585,0.55
20:57:27.640,-0.615,0.555
20:57:27.644,-0.61,0.545
20:57:27.648,-0.62,0.55
20:57:27.652,-0.625,0.565
20:57:27.656,-0.62,0.555
20:57:27.660,-0.62,0.565
20:57:27.664,-0.635,0.565
20:57:27.668,-0.65,0.56
20:57:27.672,-0.65,0.585
20:57:27.676,-0.62,0.575
20:57:27.680,-0.64,0.58
20:57:27.684,-0.635,0.59
20:57:27.688,-0.64,0.57
20:57:27.692,-0.66,0.585
20:57:27.696,-0.66,0.57
20:57:27.700,-0.655,0.575
20:57:27.704,-0.66,0.575
20:57:27.708,-0.66,0.575
20:57:27.712,-0.645,0.565
20:57:27.716,-0.625,0.605
20:57:27.720,-0.6,0.565
20:57:27.724,-0.615,0.57
20:57:27.728,-0.6,0.56
20:57:27.732,-0.58,0.55
20:57:27.736,-0.55,0.51
20:57:27.740,-0.555,0.48
20:57:27.744,-0.545,0.495
20:57:27.748,-0.535,0.455
20:57:27.752,-0.5,0.44
20:57:27.756,-0.5,0.425
20:57:27.760,-0.505,0.42
20:57:27.764,-0.48,0.41
20:57:27.768,-0.45,0.42
20:57:27.772,-0.425,0.42
20:57:27.776,-0.4,0.435
20:57:27.780,-0.375,0.435
20:57:27.784,-0.35,0.44
20:57:27.788,-0.35,0.445
20:57:27.792,-0.335,0.45
20:57:27.796,-0.32,0.48
20:57:27.800,-0.325,0.48
20:57:27.804,-0.335,0.47
20:57:27.808,-0.35,0.505
20:57:27.812,-0.32,0.505
20:57:27.816,-0.335,0.52
20:57:27.820,-0.36,0.49
20:57:27.824,-0.36,0.495
20:57:27.828,-0.34,0.515
20:57:27.832,-0.34,0.495
20:57:27.836,-0.36,0.485
20:57:27.840,-0.375,0.485
20:57:27.844,-0.405,0.5
20:57:27.848,-0.405,0.48
20:57:27.852,-0.405,0.465
20:57:27.856,-0.425,0.47
20:57:27.860,-0.43,0.48
20:57:27.864,-0.405,0.47
20:57:27.868,-0.4,0.47
20:57:27.872,-0.395,0.475
20:57:27.876,-0.435,0.465
20:57:27.880,-0.415,0.47
20:57:27.884,-0.415,0.465
20:57:27.888,-0.435,0.46
20:57:27.892,-0.415,0.47
20:57:27.896,-0.415,0.48
20:57:27.900,-0.395,0.46
20:57:27.904,-0.385,0.46
20:57:27.908,-0.36,0.455
20:57:27.912,-0.375,0.445
20:57:27.916,-0.385,0.47
20:57:27.920,-0.41,0.465
20:57:27.924,-0.43,0.455
20:57:27.928,-0.43,0.445
20:57:27.932,-0.425,0.445
20:57:27.936,-0.415,0.445
20:57:27.940,-0.395,0.435
20:57:27.944,-0.37,0.43
20:57:27.948,-0.37,0.42
20:57:27.952,-0.36,0.44
20:57:27.956,-0.365,0.415
20:57:27.960,-0.33,0.425
20:57:27.964,-0.31,0.43
20:57:27.968,-0.29,0.43
20:57:27.972,-0.28,0.41
20:57:27.976,-0.255,0.385
20:57:27.980,-0.27,0.36
20:57:27.984,-0.27,0.345
20:57:27.988,-0.28,0.37
20:57:27.992,-0.305,0.39
20:57:27.996,-0.315,0.375
20:57:28.000,-0.32,0.39
20:57:28.004,-0.32,0.4
20:57:28.008,-0.355,0.41
20:57:28.012,-0.325,0.43
20:57:28.016,-0.34,0.425
20:57:28.020,-0.345,0.44
20:57:28.024,-0.34,0.435
20:57:28.028,-0.37,0.445
20:57:28.032,-0.37,0.455
20:57:28.036,-0.4,0.445
20:57:28.040,-0.4,0.42
20:57:28.044,-0.39,0.415
20:57:28.048,-0.385,0.41
20:57:28.052,-0.39,0.395
20:57:28.056,-0.4,0.42
20:57:28.060,-0.405,0.425
20:57:28.064,-0.39,0.43
20:57:28.068,-0.39,0.42
20:57:28.072,-0.39,0.42
20:57:28.076,-0.395,0.405
20:57:28.080,-0.385,0.4
20:57:28.084,-0.38,0.39
20:57:28.088,-0.41,0.405
20:57:28.092,-0.38,0.395
20:57:28.096,-0.39,0.405
20:57:28.100,-0.375,0.4
20:57:28.104,-0.375,0.395
20:57:28.108,-0.35,0.38
20:57:28.112,-0.35,0.385
20:57:28.116,-0.365,0.395
20:57:28.120,-0.32,0.385
20:57:28.124,-0.27,0.39
20:57:28.128,-0.21,0.395
20:57:28.132,-0.11,0.385
20:57:28.136,-0.03,0.38
20:57:28.140,0.075,0.35
20:57:28.144,0.115,0.315
20:57:28.148,0.175,0.305
20:57:28.152,0.235,0.29
20:57:28.156,0.255,0.275
20:57:28.160,0.24,0.26
20:57:28.164,0.295,0.175
20:57:28.168,0.465,0.03
20:57:28.172,0.77,-0.16
20:57:28.176,1.075,-0.37
20:57:28.180,1.19,-0.6
20:57:28.184,1.015,-0.675
20:57:28.188,0.55,-0.535
20:57:28.192,0.095,-0.24
20:57:28.196,-0.16,0.07
20:57:28.200,-0.25,0.235
20:57:28.204,-0.31,0.35
20:57:28.208,-0.335,0.445
20:57:28.212,-0.35,0.485
20:57:28.216,-0.415,0.515
20:57:28.220,-0.445,0.505
20:57:28.224,-0.465,0.52
20:57:28.228,-0.485,0.505
20:57:28.232,-0.515,0.48
20:57:28.236,-0.505,0.46
20:57:28.240,-0.515,0.46
20:57:28.244,-0.515,0.46
20:57:28.248,-0.525,0.46
20:57:28.252,-0.535,0.465
20:57:28.256,-0.515,0.465
20:57:28.260,-0.54,0.46
20:57:28.264,-0.545,0.455
20:57:28.268,-0.53,0.45
20:57:28.272,-0.555,0.46
20:57:28.276,-0.545,0.45
20:57:28.280,-0.56,0.455
20:57:28.284,-0.575,0.46
20:57:28.288,-0.585,0.45
20:57:28.292,-0.6,0.45
20:57:28.296,-0.595,0.445
20:57:28.300,-0.61,0.46
20:57:28.304,-0.605,0.435
20:57:28.308,-0.6,0.445
20:57:28.312,-0.605,0.44
20:57:28.316,-0.625,0.455
20:57:28.320,-0.615,0.435
20:57:28.324,-0.6,0.435
20:57:28.328,-0.605,0.44
20:57:28.332,-0.595,0.435
20:57:28.336,-0.61,0.46
20:57:28.340,-0.59,0.47
20:57:28.344,-0.59,0.46
20:57:28.348,-0.57,0.46
20:57:28.352,-0.565,0.465
20:57:28.356,-0.54,0.475
20:57:28.360,-0.525,0.465
20:57:28.364,-0.515,0.475
20:57:28.368,-0.48,0.505
20:57:28.372,-0.465,0.48
20:57:28.376,-0.44,0.495
20:57:28.380,-0.43,0.485
20:57:28.384,-0.43,0.495
20:57:28.388,-0.42,0.515
20:57:28.392,-0.44,0.49
20:57:28.396,-0.44,0.515
20:57:28.400,-0.425,0.48
20:57:28.404,-0.415,0.47
20:57:28.408,-0.415,0.465
20:57:28.412,-0.42,0.45
20:57:28.416,-0.4,0.47
20:57:28.420,-0.41,0.47
20:57:28.424,-0.405,0.44
20:57:28.428,-0.405,0.445
20:57:28.432,-0.395,0.435
20:57:28.436,-0.38,0.43
20:57:28.440,-0.39,0.43
20:57:28.444,-0.385,0.41
20:57:28.448,-0.38,0.4
20:57:28.452,-0.355,0.41
20:57:28.456,-0.345,0.415
20:57:28.460,-0.365,0.41
20:57:28.464,-0.34,0.39
20:57:28.468,-0.35,0.41
20:57:28.472,-0.36,0.39
20:57:28.476,-0.34,0.405
20:57:28.480,-0.355,0.385
20:57:28.484,-0.36,0.425
20:57:28.488,-0.35,0.42
20:57:28.492,-0.375,0.425
20:57:28.496,-0.37,0.43
20:57:28.500,-0.36,0.415
20:57:28.504,-0.38,0.405
20:57:28.508,-0.37,0.4
20:57:28.512,-0.385,0.415
20:57:28.516,-0.395,0.4
20:57:28.520,-0.4,0.4
20:57:28.524,-0.39,0.39
20:57:28.528,-0.385,0.4
20:57:28.532,-0.395,0.37
20:57:28.536,-0.355,0.375
20:57:28.540,-0.375,0.355
20:57:28.544,-0.345,0.375
20:57:28.548,-0.33,0.385
20:57:28.552,-0.315,0.39
20:57:28.556,-0.3,0.4
20:57:28.560,-0.285,0.405
20:57:28.564,-0.245,0.41
20:57:28.568,-0.23,0.39
20:57:28.572,-0.225,0.4
20:57:28.576,-0.215,0.42
20:57:28.580,-0.18,0.41
20:57:28.584,-0.195,0.435
20:57:28.588,-0.2,0.44
20:57:28.592,-0.24,0.45
20:57:28.596,-0.25,0.46
20:57:28.600,-0.26,0.48
20:57:28.604,-0.275,0.5
20:57:28.608,-0.265,0.52
20:57:28.612,-0.295,0.525
20:57:28.616,-0.3,0.495
20:57:28.620,-0.29,0.485
20:57:28.624,-0.305,0.465
20:57:28.628,-0.33,0.435
20:57:28.632,-0.33,0.415
20:57:28.636,-0.33,0.405
20:57:28.640,-0.345,0.39
20:57:28.644,-0.33,0.35
20:57:28.648,-0.33,0.37
20:57:28.652,-0.335,0.36
20:57:28.656,-0.355,0.32
20:57:28.660,-0.35,0.34
20:57:28.664,-0.36,0.32
20:57:28.668,-0.35,0.33
20:57:28.672,-0.34,0.33
20:57:28.676,-0.35,0.335
20:57:28.680,-0.355,0.335
20:57:28.684,-0.34,0.315
20:57:28.688,-0.365,0.34
20:57:28.692,-0.365,0.305
20:57:28.696,-0.395,0.33
20:57:28.700,-0.365,0.315
20:57:28.704,-0.37,0.325
20:57:28.708,-0.39,0.35
20:57:28.712,-0.41,0.33
20:57:28.716,-0.41,0.355
20:57:28.720,-0.39,0.34
20:57:28.724,-0.39,0.33
20:57:28.728,-0.395,0.34
20:57:28.732,-0.39,0.32
20:57:28.736,-0.4,0.34
20:57:28.740,-0.405,0.325
20:57:28.744,-0.405,0.315
20:57:28.748,-0.41,0.33
20:57:28.752,-0.395,0.34
20:57:28.756,-0.38,0.325
20:57:28.760,-0.36,0.33
20:57:28.764,-0.335,0.335
20:57:28.768,-0.31,0.34
20:57:28.772,-0.3,0.36
20:57:28.776,-0.28,0.34
20:57:28.780,-0.255,0.345
20:57:28.784,-0.26,0.35
20:57:28.788,-0.255,0.375
20:57:28.792,-0.28,0.375
20:57:28.796,-0.295,0.385
20:57:28.800,-0.315,0.38
20:57:28.804,-0.335,0.41
20:57:28.808,-0.33,0.42
20:57:28.812,-0.36,0.405
20:57:28.816,-0.355,0.425
20:57:28.820,-0.315,0.435
20:57:28.824,-0.29,0.425
20:57:28.828,-0.21,0.44
20:57:28.832,-0.115,0.485
20:57:28.836,-0.04,0.435
20:57:28.840,0.06,0.41
20:57:28.844,0.11,0.39
20:57:28.848,0.18,0.325
20:57:28.852,0.215,0.325
20:57:28.856,0.23,0.3
20:57:28.860,0.2,0.25
20:57:28.864,0.245,0.165
20:57:28.868,0.355,0.02
20:57:28.872,0.64,-0.195
20:57:28.876,0.93,-0.49
20:57:28.880,1.16,-0.755
20:57:28.884,1.1,-0.905
20:57:28.888,0.755,-0.87
20:57:28.892,0.255,-0.58
20:57:28.896,-0.145,-0.2
20:57:28.900,-0.32,0.07
20:57:28.904,-0.405,0.2
20:57:28.908,-0.445,0.31
20:57:28.912,-0.465,0.37
20:57:28.916,-0.47,0.405
20:57:28.920,-0.47,0.445
20:57:28.924,-0.48,0.435
20:57:28.928,-0.475,0.425
20:57:28.932,-0.47,0.43
20:57:28.936,-0.48,0.415
20:57:28.940,-0.505,0.405
20:57:28.944,-0.505,0.405
20:57:28.948,-0.505,0.42
20:57:28.952,-0.525,0.405
20:57:28.956,-0.505,0.415
20:57:28.960,-0.495,0.41
20:57:28.964,-0.5,0.415
20:57:28.968,-0.475,0.43
20:57:28.972,-0.475,0.415
20:57:28.976,-0.48,0.425
20:57:28.980,-0.455,0.425
20:57:28.984,-0.445,0.435
20:57:28.988,-0.445,0.45
20:57:28.992,-0.425,0.46
20:57:28.996,-0.415,0.44
20:57:29.000,-0.425,0.465
20:57:29.004,-0.47,0.455
20:57:29.008,-0.5,0.485
20:57:29.012,-0.54,0.485
20:57:29.016,-0.555,0.51
20:57:29.020,-0.615,0.55
20:57:29.024,-0.64,0.525
20:57:29.028,-0.64,0.545
20:57:29.032,-0.645,0.55
20:57:29.036,-0.635,0.565
20:57:29.040,-0.635,0.575
20:57:29.044,-0.605,0.565
20:57:29.048,-0.625,0.575
20:57:29.052,-0.61,0.555
20:57:29.056,-0.61,0.55
20:57:29.060,-0.595,0.555
20:57:29.064,-0.575,0.545
20:57:29.068,-0.59,0.535
20:57:29.072,-0.57,0.53
20:57:29.076,-0.56,0.54
20:57:29.080,-0.56,0.545
20:57:29.084,-0.54,0.52
20:57:29.088,-0.56,0.495
20:57:29.092,-0.53,0.5
20:57:29.096,-0.505,0.475
20:57:29.100,-0.48,0.48
20:57:29.104,-0.48,0.475
20:57:29.108,-0.485,0.47
20:57:29.112,-0.475,0.445
20:57:29.116,-0.46,0.425
20:57:29.120,-0.445,0.43
20:57:29.124,-0.425,0.43
20:57:29.128,-0.39,0.41
20:57:29.132,-0.375,0.405
20:57:29.136,-0.345,0.42
20:57:29.140,-0.33,0.425
20:57:29.144,-0.295,0.39
20:57:29.148,-0.275,0.39
20:57:29.152,-0.245,0.355
20:57:29.156,-0.255,0.365
20:57:29.160,-0.24,0.35
20:57:29.164,-0.22,0.355
20:57:29.168,-0.22,0.36
20:57:29.172,-0.195,0.35
20:57:29.176,-0.17,0.365
20:57:29.180,-0.17,0.36
20:57:29.184,-0.17,0.38
20:57:29.188,-0.16,0.36
20:57:29.192,-0.145,0.38
20:57:29.196,-0.145,0.385
20:57:29.200,-0.17,0.39
20:57:29.204,-0.175,0.405
20:57:29.208,-0.195,0.42
20:57:29.212,-0.245,0.4
20:57:29.216,-0.265,0.425
20:57:29.220,-0.31,0.44
20:57:29.224,-0.355,0.425
20:57:29.228,-0.375,0.425
20:57:29.232,-0.395,0.445
20:57:29.236,-0.425,0.465
20:57:29.240,-0.39,0.45
20:57:29.244,-0.37,0.44
20:57:29.248,-0.345,0.445
20:57:29.252,-0.305,0.435
20:57:29.256,-0.24,0.43
20:57:29.260,-0.16,0.39
20:57:29.264,-0.105,0.38
20:57:29.268,-0.095,0.355
20:57:29.272,-0.06,0.315
20:57:29.276,-0.065,0.295
20:57:29.280,-0.065,0.27
20:57:29.284,-0.06,0.22
20:57:29.288,0.05,0.14
20:57:29.292,0.315,-0.005
20:57:29.296,0.645,-0.22
20:57:29.300,0.915,-0.5
20:57:29.304,1.01,-0.76
20:57:29.308,0.865,-0.805
20:57:29.312,0.44,-0.61
20:57:29.316,-0.02,-0.255
20:57:29.320,-0.305,0.09
20:57:29.324,-0.41,0.285
20:57:29.328,-0.445,0.385
20:57:29.332,-0.45,0.445
20:57:29.336,-0.455,0.475
20:57:29.340,-0.455,0.495
20:57:29.344,-0.445,0.505
20:57:29.348,-0.44,0.475
20:57:29.352,-0.465,0.485
20:57:29.356,-0.465,0.47
20:57:29.360,-0.455,0.465
20:57:29.364,-0.46,0.445
20:57:29.368,-0.455,0.445
20:57:29.372,-0.415,0.45
20:57:29.376,-0.405,0.48
20:57:29.380,-0.39,0.475
20:57:29.384,-0.355,0.505
20:57:29.388,-0.32,0.5
20:57:29.392,-0.305,0.505
20:57:29.396,-0.29,0.515
20:57:29.400,-0.295,0.52
20:57:29.404,-0.3,0.5
20:57:29.408,-0.325,0.5
20:57:29.412,-0.39,0.49
20:57:29.416,-0.44,0.485
20:57:29.420,-0.43,0.485
20:57:29.424,-0.48,0.495
20:57:29.428,-0.53,0.48
20:57:29.432,-0.54,0.475
20:57:29.436,-0.555,0.485
20:57:29.440,-0.58,0.49
20:57:29.444,-0.585,0.49
20:57:29.448,-0.62,0.495
20:57:29.452,-0.605,0.465
20:57:29.456,-0.625,0.465
20:57:29.460,-0.62,0.47
20:57:29.464,-0.615,0.435
20:57:29.468,-0.64,0.435
20:57:29.472,-0.635,0.45
20:57:29.476,-0.64,0.43
20:57:29.480,-0.635,0.435
20:57:29.484,-0.62,0.45
20:57:29.488,-0.585,0.445
20:57:29.492,-0.59,0.425
20:57:29.496,-0.58,0.41
20:57:29.500,-0.565,0.41
20:57:29.504,-0.55,0.4
20:57:29.508,-0.53,0.385
20:57:29.512,-0.525,0.385
20:57:29.516,-0.505,0.385
20:57:29.520,-0.49,0.385
20:57:29.524,-0.455,0.385
20:57:29.528,-0.435,0.375
20:57:29.532,-0.415,0.38
20:57:29.536,-0.39,0.37
20:57:29.540,-0.375,0.36
20:57:29.544,-0.37,0.365
20:57:29.548,-0.355,0.365
20:57:29.552,-0.365,0.36
20:57:29.556,-0.325,0.355
20:57:29.560,-0.295,0.36
20:57:29.564,-0.28,0.37
20:57:29.568,-0.275,0.365
20:57:29.572,-0.25,0.4
20:57:29.576,-0.26,0.4
20:57:29.580,-0.235,0.385
20:57:29.584,-0.235,0.4
20:57:29.588,-0.24,0.42
20:57:29.592,-0.24,0.425
20:57:29.596,-0.215,0.43
20:57:29.600,-0.19,0.42
20:57:29.604,-0.205,0.44
20:57:29.608,-0.195,0.46
20:57:29.612,-0.21,0.48
20:57:29.616,-0.23,0.465
20:57:29.620,-0.27,0.47
20:57:29.624,-0.26,0.475
20:57:29.628,-0.29,0.465
20:57:29.632,-0.29,0.485
20:57:29.636,-0.3,0.465
20:57:29.640,-0.325,0.465
20:57:29.644,-0.345,0.425
20:57:29.648,-0.36,0.41
20:57:29.652,-0.36,0.395
20:57:29.656,-0.38,0.38
20:57:29.660,-0.4,0.365
20:57:29.664,-0.38,0.34
20:57:29.668,-0.39,0.33
20:57:29.672,-0.38,0.315
20:57:29.676,-0.375,0.305
20:57:29.680,-0.375,0.31
20:57:29.684,-0.39,0.31
20:57:29.688,-0.365,0.315
20:57:29.692,-0.375,0.295
20:57:29.696,-0.38,0.3
20:57:29.700,-0.375,0.305
20:57:29.704,-0.38,0.33
20:57:29.708,-0.36,0.3
20:57:29.712,-0.355,0.3
20:57:29.716,-0.35,0.31
20:57:29.720,-0.36,0.3
20:57:29.724,-0.355,0.315
20:57:29.728,-0.36,0.315
20:57:29.732,-0.35,0.31
20:57:29.736,-0.34,0.305
20:57:29.740,-0.345,0.3
20:57:29.744,-0.345,0.315
20:57:29.748,-0.335,0.32
20:57:29.752,-0.33,0.325
20:57:29.756,-0.32,0.32
20:57:29.760,-0.33,0.295
20:57:29.764,-0.33,0.33
20:57:29.768,-0.315,0.345
20:57:29.772,-0.31,0.36
20:57:29.776,-0.295,0.365
20:57:29.780,-0.28,0.385
20:57:29.784,-0.29,0.37
20:57:29.788,-0.285,0.375
20:57:29.792,-0.255,0.37
20:57:29.796,-0.255,0.385
20:57:29.800,-0.21,0.415
20:57:29.804,-0.22,0.42
20:57:29.808,-0.23,0.405
20:57:29.812,-0.255,0.44
20:57:29.816,-0.265,0.425
20:57:29.820,-0.285,0.445
20:57:29.824,-0.28,0.45
20:57:29.828,-0.285,0.46
20:57:29.832,-0.28,0.48
20:57:29.836,-0.28,0.485
20:57:29.840,-0.29,0.485
20:57:29.844,-0.285,0.475
20:57:29.848,-0.3,0.45
20:57:29.852,-0.32,0.44
20:57:29.856,-0.36,0.43
20:57:29.860,-0.34,0.4
20:57:29.864,-0.36,0.4
20:57:29.868,-0.365,0.4
20:57:29.872,-0.36,0.4
20:57:29.876,-0.365,0.395
20:57:29.880,-0.375,0.375
20:57:29.884,-0.36,0.36
20:57:29.888,-0.36,0.36
20:57:29.892,-0.365,0.345
20:57:29.896,-0.35,0.315
20:57:29.900,-0.36,0.335
20:57:29.904,-0.335,0.305
20:57:29.908,-0.36,0.3
20:57:29.912,-0.345,0.3
20:57:29.916,-0.34,0.31
20:57:29.920,-0.355,0.295
20:57:29.924,-0.335,0.275
20:57:29.928,-0.3,0.3
20:57:29.932,-0.28,0.29
20:57:29.936,-0.195,0.285
20:57:29.940,-0.1,0.27
20:57:29.944,-0.01,0.275
20:57:29.948,0.04,0.26
20:57:29.952,0.1,0.235
20:57:29.956,0.13,0.195
20:57:29.960,0.15,0.185
20:57:29.964,0.175,0.19
20:57:29.968,0.175,0.13
20:57:29.972,0.23,0.01
20:57:29.976,0.405,-0.125
20:57:29.980,0.73,-0.34
20:57:29.984,1.025,-0.59
20:57:29.988,1.14,-0.82
20:57:29.992,1.005,-0.875
20:57:29.996,0.575,-0.665
20:57:30.000,0.115,-0.26
20:57:30.004,-0.175,0.04
20:57:30.008,-0.285,0.25
20:57:30.012,-0.33,0.37
20:57:30.016,-0.375,0.47
20:57:30.020,-0.42,0.55
20:57:30.024,-0.445,0.57
20:57:30.028,-0.48,0.59
20:57:30.032,-0.5,0.605
20:57:30.036,-0.505,0.62
20:57:30.040,-0.52,0.6
20:57:30.044,-0.525,0.59
20:57:30.048,-0.505,0.58
20:57:30.052,-0.5,0.58
20:57:30.056,-0.5,0.565
20:57:30.060,-0.5,0.56
20:57:30.064,-0.52,0.57
20:57:30.068,-0.53,0.55
20:57:30.072,-0.55,0.545
20:57:30.076,-0.57,0.54
20:57:30.080,-0.58,0.545
20:57:30.084,-0.585,0.535
20:57:30.088,-0.625,0.515
20:57:30.092,-0.59,0.515
20:57:30.096,-0.6,0.5
20:57:30.100,-0.61,0.495
20:57:30.104,-0.605,0.49
20:57:30.108,-0.62,0.5
20:57:30.112,-0.63,0.49
20:57:30.116,-0.62,0.475
20:57:30.120,-0.615,0.48
20:57:30.124,-0.585,0.47
20:57:30.128,-0.595,0.455
20:57:30.132,-0.585,0.46
20:57:30.136,-0.605,0.46
20:57:30.140,-0.615,0.455
20:57:30.144,-0.605,0.46
20:57:30.148,-0.625,0.46
20:57:30.152,-0.605,0.435
20:57:30.156,-0.595,0.445
20:57:30.160,-0.585,0.45
20:57:30.164,-0.55,0.455
20:57:30.168,-0.52,0.455
20:57:30.172,-0.51,0.465
20:57:30.176,-0.51,0.475
20:57:30.180,-0.48,0.5
20:57:30.184,-0.475,0.505
20:57:30.188,-0.44,0.515
20:57:30.192,-0.43,0.52
20:57:30.196,-0.435,0.54
20:57:30.200,-0.42,0.52
20:57:30.204,-0.4,0.525
20:57:30.208,-0.405,0.53
20:57:30.212,-0.415,0.545
20:57:30.216,-0.435,0.5
20:57:30.220,-0.455,0.505
20:57:30.224,-0.455,0.51
20:57:30.228,-0.435,0.5
20:57:30.232,-0.445,0.485
20:57:30.236,-0.43,0.485
20:57:30.240,-0.425,0.47
20:57:30.244,-0.44,0.47
20:57:30.248,-0.415,0.46
20:57:30.252,-0.39,0.47
20:57:30.256,-0.405,0.44
20:57:30.260,-0.4,0.45
20:57:30.264,-0.4,0.45
20:57:30.268,-0.4,0.435
20:57:30.272,-0.36,0.445
20:57:30.276,-0.355,0.465
20:57:30.280,-0.35,0.445
20:57:30.284,-0.34,0.465
20:57:30.288,-0.34,0.47
20:57:30.292,-0.355,0.465
20:57:30.296,-0.33,0.475
20:57:30.300,-0.325,0.445
20:57:30.304,-0.335,0.45
20:57:30.308,-0.33,0.435
20:57:30.312,-0.31,0.4
20:57:30.316,-0.32,0.38
20:57:30.320,-0.315,0.375
20:57:30.324,-0.32,0.37
20:57:30.328,-0.345,0.365
20:57:30.332,-0.345,0.365
20:57:30.336,-0.35,0.365
20:57:30.340,-0.345,0.375
20:57:30.344,-0.335,0.375
20:57:30.348,-0.32,0.36
20:57:30.352,-0.305,0.36
20:57:30.356,-0.3,0.36
20:57:30.360,-0.29,0.35
20:57:30.364,-0.29,0.34
20:57:30.368,-0.295,0.345
20:57:30.372,-0.285,0.345
20:57:30.376,-0.275,0.355
20:57:30.380,-0.275,0.36
20:57:30.384,-0.25,0.375
20:57:30.388,-0.215,0.38
20:57:30.392,-0.225,0.39
20:57:30.396,-0.215,0.395
20:57:30.400,-0.215,0.395
20:57:30.404,-0.235,0.41
20:57:30.408,-0.235,0.43
20:57:30.412,-0.275,0.425
20:57:30.416,-0.31,0.405
20:57:30.420,-0.295,0.41
20:57:30.424,-0.295,0.41
20:57:30.428,-0.295,0.415
20:57:30.432,-0.29,0.395
20:57:30.436,-0.3,0.38
20:57:30.440,-0.31,0.38
20:57:30.444,-0.35,0.4
20:57:30.448,-0.34,0.395
20:57:30.452,-0.34,0.38
20:57:30.456,-0.305,0.39
20:57:30.460,-0.25,0.345
20:57:30.464,-0.175,0.355
20:57:30.468,-0.09,0.35
20:57:30.472,-0.02,0.305
20:57:30.476,0.025,0.27
20:57:30.480,0.07,0.24
20:57:30.484,0.105,0.235
20:57:30.488,0.11,0.225
20:57:30.492,0.125,0.165
20:57:30.496,0.2,0.105
20:57:30.500,0.435,-0.06
20:57:30.504,0.755,-0.28
20:57:30.508,0.985,-0.495
20:57:30.512,1.005,-0.705
20:57:30.516,0.74,-0.735
20:57:30.520,0.275,-0.475
20:57:30.524,-0.1,-0.13
20:57:30.528,-0.28,0.135
20:57:30.532,-0.32,0.265
20:57:30.536,-0.355,0.38
20:57:30.540,-0.36,0.455
20:57:30.544,-0.4,0.465
20:57:30.548,-0.41,0.49
20:57:30.552,-0.425,0.465
20:57:30.556,-0.45,0.45
20:57:30.560,-0.45,0.37
20:57:30.564,-0.445,0.365
20:57:30.568,-0.455,0.365
20:57:30.572,-0.445,0.335
20:57:30.576,-0.445,0.335
20:57:30.580,-0.42,0.335
20:57:30.584,-0.405,0.32
20:57:30.588,-0.415,0.345
20:57:30.592,-0.405,0.355
20:57:30.596,-0.4,0.37
20:57:30.600,-0.395,0.36
20:57:30.604,-0.44,0.39
20:57:30.608,-0.46,0.395
20:57:30.612,-0.49,0.405
20:57:30.616,-0.505,0.41
20:57:30.620,-0.525,0.425
20:57:30.624,-0.525,0.43
20:57:30.628,-0.515,0.43
20:57:30.632,-0.52,0.415
20:57:30.636,-0.53,0.415
20:57:30.640,-0.53,0.43
20:57:30.644,-0.54,0.415
20:57:30.648,-0.56,0.425
20:57:30.652,-0.56,0.425
20:57:30.656,-0.555,0.4
20:57:30.660,-0.585,0.415
20:57:30.664,-0.605,0.415
20:57:30.668,-0.64,0.415
20:57:30.672,-0.655,0.415
20:57:30.676,-0.665,0.415
20:57:30.680,-0.665,0.405
20:57:30.684,-0.68,0.415
20:57:30.688,-0.68,0.42
20:57:30.692,-0.685,0.4
20:57:30.696,-0.655,0.385
20:57:30.700,-0.64,0.4
20:57:30.704,-0.64,0.385
20:57:30.708,-0.605,0.38
20:57:30.712,-0.605,0.375
20:57:30.716,-0.605,0.405
20:57:30.720,-0.58,0.37
20:57:30.724,-0.555,0.36
20:57:30.728,-0.54,0.36
20:57:30.732,-0.485,0.345
20:57:30.736,-0.45,0.375
20:57:30.740,-0.415,0.355
20:57:30.744,-0.405,0.35
20:57:30.748,-0.36,0.36
20:57:30.752,-0.345,0.37
20:57:30.756,-0.335,0.365
20:57:30.760,-0.285,0.34
20:57:30.764,-0.28,0.355
20:57:30.768,-0.235,0.37
20:57:30.772,-0.21,0.35
20:57:30.776,-0.175,0.375
20:57:30.780,-0.16,0.38
20:57:30.784,-0.135,0.395
20:57:30.788,-0.16,0.41
20:57:30.792,-0.155,0.41
20:57:30.796,-0.17,0.405
20:57:30.800,-0.205,0.405
20:57:30.804,-0.22,0.4
20:57:30.808,-0.245,0.375
20:57:30.812,-0.235,0.375
20:57:30.816,-0.24,0.375
20:57:30.820,-0.24,0.355
20:57:30.824,-0.255,0.36
20:57:30.828,-0.25,0.395
20:57:30.832,-0.26,0.38
20:57:30.836,-0.27,0.385
20:57:30.840,-0.255,0.375
20:57:30.844,-0.255,0.38
20:57:30.848,-0.265,0.38
20:57:30.852,-0.26,0.385
20:57:30.856,-0.29,0.375
20:57:30.860,-0.305,0.4
20:57:30.864,-0.325,0.405
20:57:30.868,-0.35,0.415
20:57:30.872,-0.365,0.42
20:57:30.876,-0.39,0.415
20:57:30.880,-0.41,0.41
20:57:30.884,-0.395,0.4
20:57:30.888,-0.435,0.39
20:57:30.892,-0.405,0.385
20:57:30.896,-0.41,0.39
20:57:30.900,-0.41,0.385
20:57:30.904,-0.42,0.395
20:57:30.908,-0.41,0.375
20:57:30.912,-0.395,0.39
20:57:30.916,-0.39,0.355
20:57:30.920,-0.385,0.37
20:57:30.924,-0.375,0.36
20:57:30.928,-0.365,0.37
20:57:30.932,-0.34,0.34
20:57:30.936,-0.31,0.37
20:57:30.940,-0.285,0.375
20:57:30.944,-0.205,0.345
20:57:30.948,-0.145,0.345
20:57:30.952,-0.05,0.35
20:57:30.956,0.02,0.325
20:57:30.960,0.095,0.29
20:57:30.964,0.145,0.255
20:57:30.968,0.185,0.265
20:57:30.972,0.205,0.235
20:57:30.976,0.185,0.195
20:57:30.980,0.245,0.105
20:57:30.984,0.415,0.005
20:57:30.988,0.74,-0.225
20:57:30.992,1.05,-0.485
20:57:30.996,1.18,-0.705
20:57:31.000,1.025,-0.79
20:57:31.004,0.585,-0.6
20:57:31.008,0.1,-0.24
20:57:31.012,-0.185,0.085
20:57:31.016,-0.32,0.275
20:57:31.020,-0.36,0.39
20:57:31.024,-0.36,0.45
20:57:31.028,-0.37,0.51
20:57:31.032,-0.36,0.49
20:57:31.036,-0.36,0.505
20:57:31.040,-0.355,0.495
20:57:31.044,-0.395,0.48
20:57:31.048,-0.39,0.48
20:57:31.052,-0.395,0.47
20:57:31.056,-0.395,0.47
20:57:31.060,-0.43,0.495
20:57:31.064,-0.43,0.48
20:57:31.068,-0.455,0.485
20:57:31.072,-0.45,0.49
20:57:31.076,-0.475,0.48
20:57:31.080,-0.465,0.51
20:57:31.084,-0.48,0.515
20:57:31.088,-0.485,0.51
20:57:31.092,-0.5,0.505
20:57:31.096,-0.515,0.505
20:57:31.100,-0.525,0.525
20:57:31.104,-0.51,0.515
20:57:31.108,-0.505,0.51
20:57:31.112,-0.51,0.505
20:57:31.116,-0.495,0.505
20:57:31.120,-0.49,0.515
20:57:31.124,-0.51,0.505
20:57:31.128,-0.53,0.495
20:57:31.132,-0.52,0.495
20:57:31.136,-0.515,0.515
20:57:31.140,-0.52,0.5
20:57:31.144,-0.505,0.505
20:57:31.148,-0.49,0.5
20:57:31.152,-0.49,0.505
20:57:31.156,-0.49,0.5
20:57:31.160,-0.465,0.51
20:57:31.164,-0.44,0.515
20:57:31.168,-0.42,0.51
20:57:31.172,-0.445,0.52
20:57:31.176,-0.43,0.54
20:57:31.180,-0.425,0.54
20:57:31.184,-0.405,0.53
20:57:31.188,-0.4,0.55
20:57:31.192,-0.39,0.555
20:57:31.196,-0.375,0.555
20:57:31.200,-0.365,0.52
20:57:31.204,-0.355,0.52
20:57:31.208,-0.32,0.52
20:57:31.212,-0.325,0.52
20:57:31.216,-0.31,0.505
20:57:31.220,-0.3,0.495
20:57:31.224,-0.285,0.49
20:57:31.228,-0.26,0.49
20:57:31.232,-0.25,0.465
20:57:31.236,-0.25,0.46
20:57:31.240,-0.24,0.455
20:57:31.244,-0.24,0.46
20:57:31.248,-0.235,0.45
20:57:31.252,-0.24,0.445
20:57:31.256,-0.225,0.47
20:57:31.260,-0.225,0.445
20:57:31.264,-0.22,0.435
20:57:31.268,-0.195,0.44
20:57:31.272,-0.205,0.405
20:57:31.276,-0.22,0.405
20:57:31.280,-0.2,0.41
20:57:31.284,-0.205,0.42
20:57:31.288,-0.22,0.4
20:57:31.292,-0.24,0.4
20:57:31.296,-0.245,0.41
20:57:31.300,-0.265,0.39
20:57:31.304,-0.275,0.4
20:57:31.308,-0.275,0.38
20:57:31.312,-0.275,0.395
20:57:31.316,-0.27,0.405
20:57:31.320,-0.24,0.4
20:57:31.324,-0.26,0.395
20:57:31.328,-0.25,0.4
20:57:31.332,-0.255,0.395
20:57:31.336,-0.25,0.405
20:57:31.340,-0.24,0.4
20:57:31.344,-0.24,0.385
20:57:31.348,-0.23,0.39
20:57:31.352,-0.23,0.4
20:57:31.356,-0.23,0.41
20:57:31.360,-0.225,0.39
20:57:31.364,-0.255,0.415
20:57:31.368,-0.26,0.425
20:57:31.372,-0.26,0.435
20:57:31.376,-0.265,0.425
20:57:31.380,-0.265,0.43
20:57:31.384,-0.275,0.405
20:57:31.388,-0.27,0.42
20:57:31.392,-0.245,0.42
20:57:31.396,-0.245,0.395
20:57:31.400,-0.245,0.395
20:57:31.404,-0.25,0.395
20:57:31.408,-0.24,0.42
20:57:31.412,-0.215,0.42
20:57:31.416,-0.21,0.39
20:57:31.420,-0.21,0.435
20:57:31.424,-0.21,0.44
20:57:31.428,-0.205,0.42
20:57:31.432,-0.21,0.45
20:57:31.436,-0.21,0.435
20:57:31.440,-0.2,0.445
20:57:31.444,-0.195,0.46
20:57:31.448,-0.205,0.46
20:57:31.452,-0.2,0.445
20:57:31.456,-0.16,0.455
20:57:31.460,-0.1,0.455
20:57:31.464,-0.035,0.445
20:57:31.468,0.03,0.45
20:57:31.472,0.095,0.435
20:57:31.476,0.155,0.39
20:57:31.480,0.155,0.345
20:57:31.484,0.16,0.315
20:57:31.488,0.17,0.285
20:57:31.492,0.18,0.24
20:57:31.496,0.17,0.125
20:57:31.500,0.305,-0.02
20:57:31.504,0.565,-0.215
20:57:31.508,0.91,-0.47
20:57:31.512,1.135,-0.725
20:57:31.516,1.115,-0.87
20:57:31.520,0.795,-0.81
20:57:31.524,0.32,-0.49
20:57:31.528,-0.055,-0.115
20:57:31.532,-0.23,0.12
20:57:31.536,-0.295,0.265
20:57:31.540,-0.335,0.36
20:57:31.544,-0.32,0.435
20:57:31.548,-0.34,0.47
20:57:31.552,-0.355,0.505
20:57:31.556,-0.355,0.51
20:57:31.560,-0.375,0.495
20:57:31.564,-0.4,0.485
20:57:31.568,-0.43,0.47
20:57:31.572,-0.425,0.47
20:57:31.576,-0.44,0.45
20:57:31.580,-0.46,0.435
20:57:31.584,-0.46,0.44
20:57:31.588,-0.47,0.42
20:57:31.592,-0.455,0.435
20:57:31.596,-0.465,0.425
20:57:31.600,-0.465,0.425
20:57:31.604,-0.465,0.41
20:57:31.608,-0.455,0.44
20:57:31.612,-0.46,0.44
20:57:31.616,-0.47,0.425
20:57:31.620,-0.465,0.445
20:57:31.624,-0.495,0.45
20:57:31.628,-0.49,0.45
20:57:31.632,-0.49,0.475
20:57:31.636,-0.495,0.475
20:57:31.640,-0.49,0.47
20:57:31.644,-0.475,0.485
20:57:31.648,-0.475,0.51
20:57:31.652,-0.485,0.52
20:57:31.656,-0.485,0.525
20:57:31.660,-0.485,0.525
20:57:31.664,-0.47,0.545
20:57:31.668,-0.465,0.535
20:57:31.672,-0.44,0.545
20:57:31.676,-0.45,0.56
20:57:31.680,-0.465,0.535
20:57:31.684,-0.48,0.53
20:57:31.688,-0.48,0.53
20:57:31.692,-0.49,0.535
20:57:31.696,-0.47,0.52
20:57:31.700,-0.48,0.515
20:57:31.704,-0.48,0.485
20:57:31.708,-0.48,0.465
20:57:31.712,-0.465,0.465
20:57:31.716,-0.46,0.445
20:57:31.720,-0.405,0.44
20:57:31.724,-0.395,0.44
20:57:31.728,-0.38,0.435
20:57:31.732,-0.34,0.42
20:57:31.736,-0.34,0.435
20:57:31.740,-0.32,0.415
20:57:31.744,-0.295,0.43
20:57:31.748,-0.285,0.455
20:57:31.752,-0.285,0.445
20:57:31.756,-0.28,0.43
20:57:31.760,-0.255,0.435
20:57:31.764,-0.26,0.425
20:57:31.768,-0.25,0.425
20:57:31.772,-0.235,0.43
20:57:31.776,-0.24,0.44
20:57:31.780,-0.225,0.44
20:57:31.784,-0.215,0.44
20:57:31.788,-0.22,0.43
20:57:31.792,-0.2,0.46
20:57:31.796,-0.225,0.435
20:57:31.800,-0.2,0.43
20:57:31.804,-0.215,0.42
20:57:31.808,-0.22,0.41
20:57:31.812,-0.23,0.41
20:57:31.816,-0.235,0.43
20:57:31.820,-0.235,0.44
20:57:31.824,-0.23,0.445
20:57:31.828,-0.235,0.44
20:57:31.832,-0.24,0.43
20:57:31.836,-0.24,0.425
20:57:31.840,-0.26,0.395
20:57:31.844,-0.28,0.43
20:57:31.848,-0.26,0.43
20:57:31.852,-0.28,0.42
20:57:31.856,-0.265,0.415
20:57:31.860,-0.26,0.415
20:57:31.864,-0.27,0.425
20:57:31.868,-0.24,0.415
20:57:31.872,-0.245,0.42
20:57:31.876,-0.25,0.42
20:57:31.880,-0.28,0.415
20:57:31.884,-0.275,0.405
20:57:31.888,-0.28,0.385
20:57:31.892,-0.29,0.395
20:57:31.896,-0.28,0.39
20:57:31.900,-0.275,0.41
20:57:31.904,-0.25,0.4
20:57:31.908,-0.25,0.415
20:57:31.912,-0.265,0.41
20:57:31.916,-0.25,0.4
20:57:31.920,-0.28,0.415
20:57:31.924,-0.265,0.43
20:57:31.928,-0.26,0.435
20:57:31.932,-0.255,0.43
20:57:31.936,-0.265,0.41
20:57:31.940,-0.26,0.405
20:57:31.944,-0.27,0.42
20:57:31.948,-0.265,0.42
20:57:31.952,-0.255,0.42
20:57:31.956,-0.28,0.43
20:57:31.960,-0.285,0.4
20:57:31.964,-0.265,0.41
20:57:31.968,-0.25,0.405
20:57:31.972,-0.27,0.42
20:57:31.976,-0.24,0.405
20:57:31.980,-0.205,0.42
20:57:31.984,-0.195,0.43
20:57:31.988,-0.21,0.45
20:57:31.992,-0.2,0.415
20:57:31.996,-0.205,0.425
20:57:32.000,-0.195,0.45
20:57:32.004,-0.195,0.45
20:57:32.008,-0.18,0.435
20:57:32.012,-0.19,0.435
20:57:32.016,-0.165,0.405
20:57:32.020,-0.175,0.41
20:57:32.024,-0.155,0.42
20:57:32.028,-0.13,0.42
20:57:32.032,-0.085,0.41
20:57:32.036,-0.01,0.405
20:57:32.040,0.055,0.37
20:57:32.044,0.14,0.385
20:57:32.048,0.195,0.36
20:57:32.052,0.22,0.31
20:57:32.056,0.26,0.275
20:57:32.060,0.265,0.29
20:57:32.064,0.265,0.25
20:57:32.068,0.245,0.15
20:57:32.072,0.34,0.01
20:57:32.076,0.57,-0.16
20:57:32.080,0.915,-0.4
20:57:32.084,1.15,-0.66
20:57:32.088,1.165,-0.85
20:57:32.092,0.89,-0.835
20:57:32.096,0.42,-0.555
20:57:32.100,0.005,-0.16
20:57:32.104,-0.2,0.14
20:57:32.108,-0.265,0.295
20:57:32.112,-0.295,0.415
20:57:32.116,-0.3,0.48
20:57:32.120,-0.33,0.525
20:57:32.124,-0.35,0.56
20:57:32.128,-0.35,0.57
20:57:32.132,-0.36,0.575
20:57:32.136,-0.4,0.555
20:57:32.140,-0.39,0.55
20:57:32.144,-0.415,0.53
20:57:32.148,-0.44,0.51
20:57:32.152,-0.455,0.51
20:57:32.156,-0.465,0.535
20:57:32.160,-0.465,0.52
20:57:32.164,-0.455,0.525
20:57:32.168,-0.435,0.515
20:57:32.172,-0.41,0.52
20:57:32.176,-0.41,0.5
20:57:32.180,-0.41,0.485
20:57:32.184,-0.385,0.465
20:57:32.188,-0.405,0.47
20:57:32.192,-0.39,0.475
20:57:32.196,-0.385,0.475
20:57:32.200,-0.395,0.49
20:57:32.204,-0.395,0.485
20:57:32.208,-0.37,0.5
20:57:32.212,-0.36,0.485
20:57:32.216,-0.355,0.505
20:57:32.220,-0.365,0.51
20:57:32.224,-0.35,0.52
20:57:32.228,-0.38,0.52
20:57:32.232,-0.385,0.54
20:57:32.236,-0.41,0.54
20:57:32.240,-0.415,0.53
20:57:32.244,-0.43,0.54
20:57:32.248,-0.435,0.515
20:57:32.252,-0.455,0.525
20:57:32.256,-0.47,0.52
20:57:32.260,-0.47,0.55
20:57:32.264,-0.485,0.55
20:57:32.268,-0.5,0.52
20:57:32.272,-0.49,0.535
20:57:32.276,-0.47,0.54
20:57:32.280,-0.465,0.53
20:57:32.284,-0.48,0.51
20:57:32.288,-0.44,0.51
20:57:32.292,-0.43,0.49
20:57:32.296,-0.38,0.495
20:57:32.300,-0.37,0.505
20:57:32.304,-0.35,0.495
20:57:32.308,-0.325,0.485
20:57:32.312,-0.315,0.495
20:57:32.316,-0.285,0.5
20:57:32.320,-0.26,0.48
20:57:32.324,-0.23,0.475
20:57:32.328,-0.22,0.475
20:57:32.332,-0.215,0.445
20:57:32.336,-0.215,0.485
20:57:32.340,-0.225,0.47
20:57:32.344,-0.21,0.47
20:57:32.348,-0.21,0.455
20:57:32.352,-0.21,0.46
20:57:32.356,-0.195,0.48
20:57:32.360,-0.175,0.455
20:57:32.364,-0.185,0.47
20:57:32.368,-0.185,0.465
20:57:32.372,-0.19,0.45
20:57:32.376,-0.185,0.455
20:57:32.380,-0.18,0.435
20:57:32.384,-0.17,0.43
20:57:32.388,-0.155,0.415
20:57:32.392,-0.14,0.42
20:57:32.396,-0.14,0.435
20:57:32.400,-0.12,0.425
20:57:32.404,-0.13,0.4
20:57:32.408,-0.1,0.41
20:57:32.412,-0.11,0.415
20:57:32.416,-0.09,0.405
20:57:32.420,-0.065,0.43
20:57:32.424,-0.01,0.44
20:57:32.428,0.035,0.41
20:57:32.432,0.065,0.41
20:57:32.436,0.09,0.38
20:57:32.440,0.1,0.345
20:57:32.444,0.065,0.32
20:57:32.448,0.035,0.325
20:57:32.452,-0.04,0.325
20:57:32.456,-0.045,0.26
20:57:32.460,0.07,0.17
20:57:32.464,0.335,0.03
20:57:32.468,0.68,-0.22
20:57:32.472,0.965,-0.52
20:57:32.476,1.075,-0.76
20:57:32.480,0.97,-0.815
20:57:32.484,0.6,-0.595
20:57:32.488,0.175,-0.225
20:57:32.492,-0.14,0.125
20:57:32.496,-0.275,0.34
20:57:32.500,-0.3,0.46
20:57:32.504,-0.31,0.495
20:57:32.508,-0.32,0.525
20:57:32.512,-0.355,0.54
20:57:32.516,-0.375,0.52
20:57:32.520,-0.375,0.51
20:57:32.524,-0.38,0.5
20:57:32.528,-0.41,0.49
20:57:32.532,-0.395,0.49
20:57:32.536,-0.44,0.5
20:57:32.540,-0.46,0.485
20:57:32.544,-0.46,0.46
20:57:32.548,-0.46,0.48
20:57:32.552,-0.44,0.495
20:57:32.556,-0.44,0.475
20:57:32.560,-0.44,0.47
20:57:32.564,-0.44,0.485
20:57:32.568,-0.42,0.48
20:57:32.572,-0.425,0.455
20:57:32.576,-0.42,0.47
20:57:32.580,-0.43,0.485
20:57:32.584,-0.41,0.47
20:57:32.588,-0.4,0.48
20:57:32.592,-0.42,0.47
20:57:32.596,-0.415,0.475
20:57:32.600,-0.39,0.46
20:57:32.604,-0.4,0.49
20:57:32.608,-0.41,0.5
20:57:32.612,-0.405,0.49
20:57:32.616,-0.395,0.51
20:57:32.620,-0.375,0.49
20:57:32.624,-0.38,0.49
20:57:32.628,-0.4,0.505
20:57:32.632,-0.42,0.48
20:57:32.636,-0.45,0.475
20:57:32.640,-0.475,0.46
20:57:32.644,-0.49,0.43
20:57:32.648,-0.51,0.4
20:57:32.652,-0.52,0.41
20:57:32.656,-0.525,0.39
20:57:32.660,-0.54,0.395
20:57:32.664,-0.52,0.39
20:57:32.668,-0.51,0.36
20:57:32.672,-0.48,0.365
20:57:32.676,-0.47,0.365
20:57:32.680,-0.47,0.37
20:57:32.684,-0.43,0.36
20:57:32.688,-0.42,0.365
20:57:32.692,-0.36,0.37
20:57:32.696,-0.325,0.355
20:57:32.700,-0.34,0.35
20:57:32.704,-0.32,0.35
20:57:32.708,-0.3,0.35
20:57:32.712,-0.305,0.36
20:57:32.716,-0.3,0.37
20:57:32.720,-0.285,0.365
20:57:32.724,-0.28,0.37
20:57:32.728,-0.28,0.36
20:57:32.732,-0.29,0.38
20:57:32.736,-0.315,0.355
20:57:32.740,-0.3,0.36
20:57:32.744,-0.3,0.365
20:57:32.748,-0.29,0.37
20:57:32.752,-0.29,0.36
20:57:32.756,-0.3,0.36
20:57:32.760,-0.3,0.34
20:57:32.764,-0.27,0.38
20:57:32.768,-0.29,0.365
20:57:32.772,-0.265,0.365
20:57:32.776,-0.26,0.385
20:57:32.780,-0.26,0.395
20:57:32.784,-0.255,0.38
20:57:32.788,-0.245,0.385
20:57:32.792,-0.235,0.395
20:57:32.796,-0.21,0.39
20:57:32.800,-0.215,0.41
20:57:32.804,-0.235,0.42
20:57:32.808,-0.235,0.385
20:57:32.812,-0.23,0.4
20:57:32.816,-0.225,0.385
20:57:32.820,-0.225,0.415
20:57:32.824,-0.225,0.395
20:57:32.828,-0.235,0.395
20:57:32.832,-0.255,0.4
20:57:32.836,-0.24,0.405
20:57:32.840,-0.23,0.375
20:57:32.844,-0.225,0.37
20:57:32.848,-0.24,0.38
20:57:32.852,-0.26,0.34
20:57:32.856,-0.27,0.35
20:57:32.860,-0.28,0.33
20:57:32.864,-0.29,0.3
20:57:32.868,-0.28,0.32
20:57:32.872,-0.26,0.305
20:57:32.876,-0.28,0.305
20:57:32.880,-0.265,0.28
20:57:32.884,-0.26,0.3
20:57:32.888,-0.235,0.325
20:57:32.892,-0.215,0.35
20:57:32.896,-0.17,0.31
20:57:32.900,-0.12,0.335
20:57:32.904,-0.07,0.325
20:57:32.908,0.035,0.33
20:57:32.912,0.1,0.34
20:57:32.916,0.18,0.315
20:57:32.920,0.225,0.275
20:57:32.924,0.25,0.245
20:57:32.928,0.315,0.22
20:57:32.932,0.33,0.235
20:57:32.936,0.31,0.205
20:57:32.940,0.315,0.14
20:57:32.944,0.445,0.05
20:57:32.948,0.71,-0.16
20:57:32.952,1.01,-0.4
20:57:32.956,1.155,-0.635
20:57:32.960,1.05,-0.75
20:57:32.964,0.66,-0.66
20:57:32.968,0.16,-0.34
20:57:32.972,-0.135,-0.04
20:57:32.976,-0.25,0.135
20:57:32.980,-0.335,0.245
20:57:32.984,-0.355,0.33
20:57:32.988,-0.37,0.4
20:57:32.992,-0.41,0.43
20:57:32.996,-0.435,0.435
20:57:33.000,-0.45,0.44
20:57:33.004,-0.46,0.42
20:57:33.008,-0.465,0.425
20:57:33.012,-0.455,0.44
20:57:33.016,-0.425,0.395
20:57:33.020,-0.43,0.395
20:57:33.024,-0.44,0.42
20:57:33.028,-0.435,0.41
20:57:33.032,-0.415,0.425
20:57:33.036,-0.41,0.4
20:57:33.040,-0.41,0.415
20:57:33.044,-0.415,0.41
20:57:33.048,-0.43,0.43
20:57:33.052,-0.43,0.44
20:57:33.056,-0.44,0.44
20:57:33.060,-0.445,0.45
20:57:33.064,-0.44,0.42
20:57:33.068,-0.45,0.405
20:57:33.072,-0.44,0.42
20:57:33.076,-0.44,0.405
20:57:33.080,-0.445,0.405
20:57:33.084,-0.46,0.405
20:57:33.088,-0.46,0.385
20:57:33.092,-0.45,0.39
20:57:33.096,-0.41,0.395
20:57:33.100,-0.41,0.405
20:57:33.104,-0.41,0.395
20:57:33.108,-0.43,0.415
20:57:33.112,-0.455,0.415
20:57:33.116,-0.455,0.43
20:57:33.120,-0.46,0.425
20:57:33.124,-0.44,0.44
20:57:33.128,-0.43,0.445
20:57:33.132,-0.445,0.445
20:57:33.136,-0.45,0.45
20:57:33.140,-0.44,0.45
20:57:33.144,-0.45,0.45
20:57:33.148,-0.42,0.42
20:57:33.152,-0.4,0.415
20:57:33.156,-0.385,0.385
20:57:33.160,-0.385,0.4
20:57:33.164,-0.37,0.365
20:57:33.168,-0.34,0.37
20:57:33.172,-0.335,0.335
20:57:33.176,-0.315,0.355
20:57:33.180,-0.31,0.36
20:57:33.184,-0.285,0.34
20:57:33.188,-0.265,0.34
20:57:33.192,-0.265,0.335
20:57:33.196,-0.23,0.32
20:57:33.200,-0.24,0.35
20:57:33.204,-0.225,0.335
20:57:33.208,-0.195,0.325
20:57:33.212,-0.18,0.325
20:57:33.216,-0.185,0.32
20:57:33.220,-0.18,0.325
20:57:33.224,-0.145,0.315
20:57:33.228,-0.145,0.33
20:57:33.232,-0.15,0.31
20:57:33.236,-0.12,0.34
20:57:33.240,-0.14,0.325
20:57:33.244,-0.155,0.345
20:57:33.248,-0.16,0.34
20:57:33.252,-0.18,0.35
20:57:33.256,-0.175,0.34
20:57:33.260,-0.21,0.35
20:57:33.264,-0.195,0.34
20:57:33.268,-0.24,0.335
20:57:33.272,-0.245,0.325
20:57:33.276,-0.245,0.3
20:57:33.280,-0.245,0.305
20:57:33.284,-0.24,0.3
20:57:33.288,-0.25,0.295
20:57:33.292,-0.235,0.305
20:57:33.296,-0.225,0.295
20:57:33.300,-0.215,0.31
20:57:33.304,-0.215,0.29
20:57:33.308,-0.22,0.3
20:57:33.312,-0.24,0.285
20:57:33.316,-0.255,0.31
20:57:33.320,-0.28,0.33
20:57:33.324,-0.29,0.31
20:57:33.328,-0.28,0.315
20:57:33.332,-0.275,0.33
20:57:33.336,-0.28,0.3
20:57:33.340,-0.28,0.285
20:57:33.344,-0.275,0.31
20:57:33.348,-0.26,0.285
20:57:33.352,-0.265,0.28
20:57:33.356,-0.245,0.295
20:57:33.360,-0.255,0.29
20:57:33.364,-0.245,0.29
20:57:33.368,-0.24,0.285
20:57:33.372,-0.225,0.295
20:57:33.376,-0.23,0.3
20:57:33.380,-0.23,0.31
20:57:33.384,-0.22,0.305
20:57:33.388,-0.225,0.3
20:57:33.392,-0.215,0.28
20:57:33.396,-0.195,0.29
20:57:33.400,-0.205,0.29
20:57:33.404,-0.18,0.325
20:57:33.408,-0.155,0.3
20:57:33.412,-0.14,0.295
20:57:33.416,-0.125,0.32
20:57:33.420,-0.115,0.3
20:57:33.424,-0.13,0.315
20:57:33.428,-0.13,0.33
20:57:33.432,-0.12,0.33
20:57:33.436,-0.115,0.335
20:57:33.440,-0.135,0.35
20:57:33.444,-0.15,0.33
20:57:33.448,-0.15,0.315
20:57:33.452,-0.18,0.305
20:57:33.456,-0.185,0.285
20:57:33.460,-0.185,0.3
20:57:33.464,-0.21,0.27
20:57:33.468,-0.215,0.28
20:57:33.472,-0.195,0.245
20:57:33.476,-0.21,0.245
20:57:33.480,-0.22,0.265
20:57:33.484,-0.205,0.27
20:57:33.488,-0.205,0.28
20:57:33.492,-0.205,0.285
20:57:33.496,-0.2,0.28
20:57:33.500,-0.21,0.305
20:57:33.504,-0.21,0.28
20:57:33.508,-0.215,0.3
20:57:33.512,-0.23,0.3
20:57:33.516,-0.245,0.295
20:57:33.520,-0.265,0.28
20:57:33.524,-0.265,0.295
20:57:33.528,-0.26,0.315
20:57:33.532,-0.24,0.29
20:57:33.536,-0.24,0.295
20:57:33.540,-0.24,0.275
20:57:33.544,-0.25,0.29
20:57:33.548,-0.25,0.295
20:57:33.552,-0.27,0.285
20:57:33.556,-0.25,0.285
20:57:33.560,-0.26,0.285
20:57:33.564,-0.265,0.285
20:57:33.568,-0.26,0.275
20:57:33.572,-0.265,0.28
20:57:33.576,-0.245,0.285
20:57:33.580,-0.25,0.29
20:57:33.584,-0.225,0.295
20:57:33.588,-0.22,0.305
20:57:33.592,-0.22,0.31
20:57:33.596,-0.2,0.305
20:57:33.600,-0.185,0.3
20:57:33.604,-0.18,0.32
20:57:33.608,-0.17,0.305
20:57:33.612,-0.165,0.33
20:57:33.616,-0.15,0.315
20:57:33.620,-0.14,0.31
20:57:33.624,-0.135,0.335
20:57:33.628,-0.135,0.32
20:57:33.632,-0.135,0.315
20:57:33.636,-0.145,0.31
20:57:33.640,-0.14,0.315
20:57:33.644,-0.15,0.315
20:57:33.648,-0.155,0.32
20:57:33.652,-0.165,0.31
20:57:33.656,-0.195,0.325
20:57:33.660,-0.21,0.305
20:57:33.664,-0.23,0.33
20:57:33.668,-0.25,0.33
20:57:33.672,-0.265,0.32
20:57:33.676,-0.26,0.33
20:57:33.680,-0.255,0.305
20:57:33.684,-0.24,0.315
20:57:33.688,-0.22,0.32
20:57:33.692,-0.21,0.31
20:57:33.696,-0.205,0.31
20:57:33.700,-0.21,0.31
20:57:33.704,-0.16,0.31
20:57:33.708,-0.145,0.33
20:57:33.712,-0.07,0.3
20:57:33.716,0.01,0.3
20:57:33.720,0.09,0.31
20:57:33.724,0.165,0.295
20:57:33.728,0.215,0.255
20:57:33.732,0.245,0.22
20:57:33.736,0.255,0.215
20:57:33.740,0.275,0.205
20:57:33.744,0.255,0.145
20:57:33.748,0.27,0.06
20:57:33.752,0.395,-0.075
20:57:33.756,0.655,-0.275
20:57:33.760,0.985,-0.535
20:57:33.764,1.205,-0.765
20:57:33.768,1.18,-0.88
20:57:33.772,0.87,-0.84
20:57:33.776,0.36,-0.5
20:57:33.780,-0.045,-0.125
20:57:33.784,-0.225,0.125
20:57:33.788,-0.32,0.275
20:57:33.792,-0.34,0.375
20:57:33.796,-0.36,0.415
20:57:33.800,-0.35,0.445
20:57:33.804,-0.365,0.435
20:57:33.808,-0.33,0.435
20:57:33.812,-0.33,0.44
20:57:33.816,-0.325,0.44
20:57:33.820,-0.345,0.425
20:57:33.824,-0.365,0.44
20:57:33.828,-0.335,0.42
20:57:33.832,-0.35,0.425
20:57:33.836,-0.34,0.435
20:57:33.840,-0.35,0.45
20:57:33.844,-0.375,0.43
20:57:33.848,-0.385,0.435
20:57:33.852,-0.4,0.43
20:57:33.856,-0.41,0.44
20:57:33.860,-0.44,0.445
20:57:33.864,-0.47,0.435
20:57:33.868,-0.48,0.45
20:57:33.872,-0.475,0.445
20:57:33.876,-0.465,0.425
20:57:33.880,-0.48,0.435
20:57:33.884,-0.47,0.445
20:57:33.888,-0.47,0.43
20:57:33.892,-0.465,0.425
20:57:33.896,-0.465,0.415
20:57:33.900,-0.47,0.425
20:57:33.904,-0.505,0.415
20:57:33.908,-0.5,0.415
20:57:33.912,-0.52,0.405
20:57:33.916,-0.49,0.365
20:57:33.920,-0.485,0.42
20:57:33.924,-0.475,0.395
20:57:33.928,-0.465,0.42
20:57:33.932,-0.435,0.45
20:57:33.936,-0.43,0.425
20:57:33.940,-0.415,0.415
20:57:33.944,-0.415,0.435
20:57:33.948,-0.41,0.42
20:57:33.952,-0.405,0.42
20:57:33.956,-0.385,0.44
20:57:33.960,-0.36,0.4
20:57:33.964,-0.355,0.395
20:57:33.968,-0.37,0.41
20:57:33.972,-0.37,0.39
20:57:33.976,-0.35,0.375
20:57:33.980,-0.375,0.35
20:57:33.984,-0.36,0.345
20:57:33.988,-0.36,0.335
20:57:33.992,-0.345,0.35
20:57:33.996,-0.32,0.3
20:57:34.000,-0.32,0.3
20:57:34.004,-0.32,0.325
20:57:34.008,-0.315,0.32
20:57:34.012,-0.315,0.31
20:57:34.016,-0.3,0.3
20:57:34.020,-0.295,0.295
20:57:34.024,-0.27,0.29
20:57:34.028,-0.265,0.305
20:57:34.032,-0.28,0.285
20:57:34.036,-0.25,0.29
20:57:34.040,-0.265,0.305
20:57:34.044,-0.26,0.305
20:57:34.048,-0.255,0.3
20:57:34.052,-0.26,0.31
20:57:34.056,-0.275,0.34
20:57:34.060,-0.255,0.34
20:57:34.064,-0.27,0.33
20:57:34.068,-0.265,0.365
20:57:34.072,-0.255,0.38
20:57:34.076,-0.24,0.39
20:57:34.080,-0.255,0.37
20:57:34.084,-0.24,0.38
20:57:34.088,-0.23,0.385
20:57:34.092,-0.22,0.38
20:57:34.096,-0.24,0.385
20:57:34.100,-0.24,0.36
20:57:34.104,-0.215,0.38
20:57:34.108,-0.23,0.36
20:57:34.112,-0.225,0.38
20:57:34.116,-0.225,0.4
20:57:34.120,-0.21,0.41
20:57:34.124,-0.19,0.4
20:57:34.128,-0.185,0.4
20:57:34.132,-0.18,0.385
20:57:34.136,-0.17,0.395
20:57:34.140,-0.16,0.41
20:57:34.144,-0.155,0.41
20:57:34.148,-0.155,0.4
20:57:34.152,-0.17,0.405
20:57:34.156,-0.18,0.41
20:57:34.160,-0.185,0.41
20:57:34.164,-0.19,0.4
20:57:34.168,-0.185,0.395
20:57:34.172,-0.185,0.405
20:57:34.176,-0.195,0.385
20:57:34.180,-0.18,0.385
20:57:34.184,-0.18,0.385
20:57:34.188,-0.175,0.385
20:57:34.192,-0.18,0.385
20:57:34.196,-0.19,0.36
20:57:34.200,-0.18,0.375
20:57:34.204,-0.175,0.36
20:57:34.208,-0.165,0.39
20:57:34.212,-0.145,0.385
20:57:34.216,-0.125,0.39
20:57:34.220,-0.125,0.38
