Time,ECG1,ECG2
21:00:49.772,-0.575,-0.16
21:00:49.776,-0.57,-0.15
21:00:49.780,-0.575,-0.18
21:00:49.784,-0.55,-0.19
21:00:49.788,-0.54,-0.17
21:00:49.792,-0.56,-0.165
21:00:49.796,-0.545,-0.18
21:00:49.800,-0.545,-0.195
21:00:49.804,-0.54,-0.23
21:00:49.808,-0.54,-0.2
21:00:49.812,-0.525,-0.21
21:00:49.816,-0.525,-0.215
21:00:49.820,-0.54,-0.24
21:00:49.824,-0.52,-0.24
21:00:49.828,-0.505,-0.255
21:00:49.832,-0.495,-0.26
21:00:49.836,-0.47,-0.255
21:00:49.840,-0.465,-0.26
21:00:49.844,-0.485,-0.26
21:00:49.848,-0.465,-0.275
21:00:49.852,-0.45,-0.27
21:00:49.856,-0.44,-0.26
21:00:49.860,-0.44,-0.24
21:00:49.864,-0.425,-0.225
21:00:49.868,-0.425,-0.24
21:00:49.872,-0.405,-0.225
21:00:49.876,-0.395,-0.215
21:00:49.880,-0.37,-0.22
21:00:49.884,-0.365,-0.19
21:00:49.888,-0.345,-0.195
21:00:49.892,-0.365,-0.19
21:00:49.896,-0.33,-0.19
21:00:49.900,-0.315,-0.17
21:00:49.904,-0.31,-0.15
21:00:49.908,-0.275,-0.145
21:00:49.912,-0.245,-0.155
21:00:49.916,-0.22,-0.125
21:00:49.920,-0.205,-0.09
21:00:49.924,-0.175,-0.08
21:00:49.928,-0.145,-0.06
21:00:49.932,-0.12,-0.05
21:00:49.936,-0.07,-0.06
21:00:49.940,-0.03,-0.045
21:00:49.944,-0.035,-0.065
21:00:49.948,-0.07,-0.1
21:00:49.952,-0.115,-0.13
21:00:49.956,-0.15,-0.16
21:00:49.960,-0.215,-0.165
21:00:49.964,-0.235,-0.165
21:00:49.968,-0.11,-0.285
21:00:49.972,0.17,-0.425
21:00:49.976,0.53,-0.67
21:00:49.980,0.79,-0.95
21:00:49.984,0.865,-1.23
21:00:49.988,0.615,-1.32
21:00:49.992,0.205,-1.14
21:00:49.996,-0.175,-0.76
21:00:50.000,-0.39,-0.4
21:00:50.004,-0.445,-0.19
21:00:50.008,-0.49,-0.08
21:00:50.012,-0.5,-0.045
21:00:50.016,-0.535,-0.04
21:00:50.020,-0.565,-0.04
21:00:50.024,-0.555,-0.065
21:00:50.028,-0.57,-0.07
21:00:50.032,-0.595,-0.1
21:00:50.036,-0.59,-0.105
21:00:50.040,-0.6,-0.125
21:00:50.044,-0.6,-0.135
21:00:50.048,-0.605,-0.14
21:00:50.052,-0.615,-0.14
21:00:50.056,-0.615,-0.15
21:00:50.060,-0.615,-0.155
21:00:50.064,-0.62,-0.16
21:00:50.068,-0.625,-0.155
21:00:50.072,-0.63,-0.145
21:00:50.076,-0.62,-0.145
21:00:50.080,-0.625,-0.14
21:00:50.084,-0.595,-0.145
21:00:50.088,-0.61,-0.12
21:00:50.092,-0.585,-0.12
21:00:50.096,-0.59,-0.12
21:00:50.100,-0.58,-0.095
21:00:50.104,-0.56,-0.085
21:00:50.108,-0.565,-0.095
21:00:50.112,-0.555,-0.075
21:00:50.116,-0.545,-0.075
21:00:50.120,-0.515,-0.07
21:00:50.124,-0.49,-0.05
21:00:50.128,-0.47,-0.035
21:00:50.132,-0.445,-0.025
21:00:50.136,-0.44,-0.01
21:00:50.140,-0.44,-0.005
21:00:50.144,-0.46,0.0
21:00:50.148,-0.485,0.01
21:00:50.152,-0.515,0.02
21:00:50.156,-0.565,0.035
21:00:50.160,-0.58,0.03
21:00:50.164,-0.605,0.035
21:00:50.168,-0.64,0.035
21:00:50.172,-0.66,0.035
21:00:50.176,-0.65,0.025
21:00:50.180,-0.625,0.04
21:00:50.184,-0.62,0.01
21:00:50.188,-0.59,-0.01
21:00:50.192,-0.575,-0.025
21:00:50.196,-0.55,-0.04
21:00:50.200,-0.54,-0.055
21:00:50.204,-0.5,-0.035
21:00:50.208,-0.48,-0.055
21:00:50.212,-0.47,-0.045
21:00:50.216,-0.475,-0.095
21:00:50.220,-0.48,-0.13
21:00:50.224,-0.45,-0.145
21:00:50.228,-0.435,-0.125
21:00:50.232,-0.425,-0.16
21:00:50.236,-0.415,-0.14
21:00:50.240,-0.42,-0.16
21:00:50.244,-0.415,-0.17
21:00:50.248,-0.415,-0.185
21:00:50.252,-0.42,-0.195
21:00:50.256,-0.42,-0.2
21:00:50.260,-0.42,-0.19
21:00:50.264,-0.425,-0.2
21:00:50.268,-0.44,-0.185
21:00:50.272,-0.405,-0.205
21:00:50.276,-0.425,-0.205
21:00:50.280,-0.415,-0.205
21:00:50.284,-0.425,-0.195
21:00:50.288,-0.415,-0.205
21:00:50.292,-0.385,-0.225
21:00:50.296,-0.395,-0.2
21:00:50.300,-0.38,-0.225
21:00:50.304,-0.37,-0.2
21:00:50.308,-0.355,-0.185
21:00:50.312,-0.35,-0.19
21:00:50.316,-0.315,-0.18
21:00:50.320,-0.31,-0.175
21:00:50.324,-0.31,-0.16
21:00:50.328,-0.28,-0.14
21:00:50.332,-0.26,-0.13
21:00:50.336,-0.245,-0.145
21:00:50.340,-0.21,-0.16
21:00:50.344,-0.215,-0.155
21:00:50.348,-0.2,-0.135
21:00:50.352,-0.165,-0.125
21:00:50.356,-0.15,-0.14
21:00:50.360,-0.115,-0.135
21:00:50.364,-0.06,-0.17
21:00:50.368,-0.035,-0.165
21:00:50.372,0.0,-0.21
21:00:50.376,0.03,-0.2
21:00:50.380,0.065,-0.205
21:00:50.384,0.04,-0.26
21:00:50.388,0.095,-0.33
21:00:50.392,0.27,-0.435
21:00:50.396,0.59,-0.615
21:00:50.400,0.885,-0.84
21:00:50.404,0.965,-1.045
21:00:50.408,0.755,-1.175
21:00:50.412,0.31,-1.08
21:00:50.416,-0.115,-0.745
21:00:50.420,-0.355,-0.485
21:00:50.424,-0.45,-0.335
21:00:50.428,-0.485,-0.215
21:00:50.432,-0.48,-0.12
21:00:50.436,-0.5,-0.085
21:00:50.440,-0.535,-0.07
21:00:50.444,-0.54,-0.09
21:00:50.448,-0.54,-0.105
21:00:50.452,-0.555,-0.12
21:00:50.456,-0.545,-0.12
21:00:50.460,-0.535,-0.12
21:00:50.464,-0.54,-0.125
21:00:50.468,-0.55,-0.13
21:00:50.472,-0.56,-0.135
21:00:50.476,-0.55,-0.15
21:00:50.480,-0.535,-0.16
21:00:50.484,-0.545,-0.16
21:00:50.488,-0.54,-0.13
21:00:50.492,-0.535,-0.145
21:00:50.496,-0.55,-0.15
21:00:50.500,-0.525,-0.15
21:00:50.504,-0.515,-0.12
21:00:50.508,-0.515,-0.135
21:00:50.512,-0.505,-0.12
21:00:50.516,-0.525,-0.14
21:00:50.520,-0.525,-0.115
21:00:50.524,-0.515,-0.125
21:00:50.528,-0.51,-0.135
21:00:50.532,-0.495,-0.11
21:00:50.536,-0.525,-0.13
21:00:50.540,-0.535,-0.12
21:00:50.544,-0.57,-0.1
21:00:50.548,-0.58,-0.075
21:00:50.552,-0.61,-0.07
21:00:50.556,-0.62,-0.065
21:00:50.560,-0.64,-0.045
21:00:50.564,-0.64,-0.05
21:00:50.568,-0.68,-0.06
21:00:50.572,-0.685,-0.04
21:00:50.576,-0.7,-0.04
21:00:50.580,-0.71,-0.06
21:00:50.584,-0.7,-0.065
21:00:50.588,-0.66,-0.1
21:00:50.592,-0.685,-0.1
21:00:50.596,-0.665,-0.11
21:00:50.600,-0.665,-0.125
21:00:50.604,-0.615,-0.135
21:00:50.608,-0.615,-0.165
21:00:50.612,-0.615,-0.175
21:00:50.616,-0.595,-0.215
21:00:50.620,-0.575,-0.23
21:00:50.624,-0.57,-0.245
21:00:50.628,-0.56,-0.265
21:00:50.632,-0.56,-0.275
21:00:50.636,-0.535,-0.27
21:00:50.640,-0.525,-0.285
21:00:50.644,-0.505,-0.29
21:00:50.648,-0.49,-0.295
21:00:50.652,-0.465,-0.29
21:00:50.656,-0.445,-0.3
21:00:50.660,-0.415,-0.28
21:00:50.664,-0.38,-0.29
21:00:50.668,-0.355,-0.29
21:00:50.672,-0.34,-0.27
21:00:50.676,-0.31,-0.27
21:00:50.680,-0.32,-0.23
21:00:50.684,-0.315,-0.26
21:00:50.688,-0.305,-0.24
21:00:50.692,-0.295,-0.24
21:00:50.696,-0.32,-0.255
21:00:50.700,-0.315,-0.21
21:00:50.704,-0.31,-0.22
21:00:50.708,-0.325,-0.21
21:00:50.712,-0.305,-0.21
21:00:50.716,-0.305,-0.19
21:00:50.720,-0.295,-0.2
21:00:50.724,-0.305,-0.18
21:00:50.728,-0.345,-0.15
21:00:50.732,-0.35,-0.17
21:00:50.736,-0.38,-0.16
21:00:50.740,-0.405,-0.165
21:00:50.744,-0.44,-0.145
21:00:50.748,-0.44,-0.14
21:00:50.752,-0.46,-0.12
21:00:50.756,-0.475,-0.13
21:00:50.760,-0.465,-0.12
21:00:50.764,-0.475,-0.125
21:00:50.768,-0.465,-0.13
21:00:50.772,-0.455,-0.135
21:00:50.776,-0.465,-0.14
21:00:50.780,-0.46,-0.155
21:00:50.784,-0.46,-0.15
21:00:50.788,-0.445,-0.18
21:00:50.792,-0.4,-0.17
21:00:50.796,-0.33,-0.175
21:00:50.800,-0.27,-0.16
21:00:50.804,-0.175,-0.195
21:00:50.808,-0.14,-0.24
21:00:50.812,-0.1,-0.275
21:00:50.816,-0.07,-0.32
21:00:50.820,-0.04,-0.365
21:00:50.824,-0.035,-0.39
21:00:50.828,-0.02,-0.455
21:00:50.832,0.055,-0.535
21:00:50.836,0.275,-0.65
21:00:50.840,0.605,-0.85
21:00:50.844,0.895,-1.09
21:00:50.848,0.95,-1.305
21:00:50.852,0.74,-1.39
21:00:50.856,0.3,-1.225
21:00:50.860,-0.11,-0.865
21:00:50.864,-0.33,-0.555
21:00:50.868,-0.42,-0.395
21:00:50.872,-0.445,-0.265
21:00:50.876,-0.465,-0.175
21:00:50.880,-0.47,-0.13
21:00:50.884,-0.465,-0.105
21:00:50.888,-0.455,-0.09
21:00:50.892,-0.435,-0.08
21:00:50.896,-0.465,-0.105
21:00:50.900,-0.445,-0.095
21:00:50.904,-0.435,-0.12
21:00:50.908,-0.435,-0.115
21:00:50.912,-0.43,-0.095
21:00:50.916,-0.455,-0.09
21:00:50.920,-0.485,-0.075
21:00:50.924,-0.49,-0.07
21:00:50.928,-0.535,-0.075
21:00:50.932,-0.55,-0.045
21:00:50.936,-0.575,-0.05
21:00:50.940,-0.6,-0.045
21:00:50.944,-0.615,-0.025
21:00:50.948,-0.61,-0.05
21:00:50.952,-0.635,-0.055
21:00:50.956,-0.63,-0.06
21:00:50.960,-0.655,-0.055
21:00:50.964,-0.655,-0.07
21:00:50.968,-0.635,-0.07
21:00:50.972,-0.67,-0.09
21:00:50.976,-0.66,-0.1
21:00:50.980,-0.64,-0.105
21:00:50.984,-0.665,-0.12
21:00:50.988,-0.655,-0.08
21:00:50.992,-0.625,-0.145
21:00:50.996,-0.625,-0.135
21:00:51.000,-0.615,-0.14
21:00:51.004,-0.615,-0.145
21:00:51.008,-0.615,-0.13
21:00:51.012,-0.6,-0.125
21:00:51.016,-0.6,-0.15
21:00:51.020,-0.605,-0.145
21:00:51.024,-0.615,-0.125
21:00:51.028,-0.59,-0.145
21:00:51.032,-0.56,-0.12
21:00:51.036,-0.565,-0.14
21:00:51.040,-0.54,-0.13
21:00:51.044,-0.495,-0.145
21:00:51.048,-0.495,-0.15
21:00:51.052,-0.48,-0.155
21:00:51.056,-0.465,-0.175
21:00:51.060,-0.45,-0.155
21:00:51.064,-0.43,-0.155
21:00:51.068,-0.425,-0.175
21:00:51.072,-0.39,-0.22
21:00:51.076,-0.375,-0.215
21:00:51.080,-0.345,-0.22
21:00:51.084,-0.305,-0.225
21:00:51.088,-0.29,-0.23
21:00:51.092,-0.285,-0.21
21:00:51.096,-0.27,-0.225
21:00:51.100,-0.265,-0.215
21:00:51.104,-0.255,-0.175
21:00:51.108,-0.28,-0.195
21:00:51.112,-0.29,-0.18
21:00:51.116,-0.305,-0.17
21:00:51.120,-0.33,-0.14
21:00:51.124,-0.34,-0.115
21:00:51.128,-0.35,-0.12
21:00:51.132,-0.335,-0.105
21:00:51.136,-0.355,-0.065
21:00:51.140,-0.34,-0.06
21:00:51.144,-0.33,-0.065
21:00:51.148,-0.355,-0.06
21:00:51.152,-0.335,-0.08
21:00:51.156,-0.32,-0.09
21:00:51.160,-0.36,-0.1
21:00:51.164,-0.345,-0.09
21:00:51.168,-0.355,-0.08
21:00:51.172,-0.345,-0.095
21:00:51.176,-0.36,-0.105
21:00:51.180,-0.36,-0.09
21:00:51.184,-0.365,-0.1
21:00:51.188,-0.365,-0.11
21:00:51.192,-0.36,-0.13
21:00:51.196,-0.345,-0.12
21:00:51.200,-0.35,-0.14
21:00:51.204,-0.38,-0.125
21:00:51.208,-0.385,-0.13
21:00:51.212,-0.375,-0.115
21:00:51.216,-0.38,-0.125
21:00:51.220,-0.365,-0.125
21:00:51.224,-0.355,-0.13
21:00:51.228,-0.32,-0.14
21:00:51.232,-0.345,-0.125
21:00:51.236,-0.335,-0.125
21:00:51.240,-0.325,-0.13
21:00:51.244,-0.31,-0.115
21:00:51.248,-0.335,-0.11
21:00:51.252,-0.31,-0.11
21:00:51.256,-0.315,-0.105
21:00:51.260,-0.315,-0.11
21:00:51.264,-0.3,-0.1
21:00:51.268,-0.285,-0.115
21:00:51.272,-0.29,-0.1
21:00:51.276,-0.285,-0.12
21:00:51.280,-0.31,-0.115
21:00:51.284,-0.305,-0.095
21:00:51.288,-0.29,-0.1
21:00:51.292,-0.255,-0.12
21:00:51.296,-0.225,-0.135
21:00:51.300,-0.25,-0.14
21:00:51.304,-0.26,-0.12
21:00:51.308,-0.265,-0.115
21:00:51.312,-0.295,-0.09
21:00:51.316,-0.295,-0.085
21:00:51.320,-0.275,-0.1
21:00:51.324,-0.19,-0.13
21:00:51.328,-0.135,-0.155
21:00:51.332,-0.045,-0.175
21:00:51.336,0.0,-0.21
21:00:51.340,0.04,-0.25
21:00:51.344,0.09,-0.27
21:00:51.348,0.095,-0.275
21:00:51.352,0.105,-0.31
21:00:51.356,0.11,-0.38
21:00:51.360,0.22,-0.505
21:00:51.364,0.425,-0.675
21:00:51.368,0.73,-0.92
21:00:51.372,0.96,-1.15
21:00:51.376,1.0,-1.37
21:00:51.380,0.74,-1.44
21:00:51.384,0.255,-1.23
21:00:51.388,-0.145,-0.855
21:00:51.392,-0.345,-0.56
21:00:51.396,-0.44,-0.365
21:00:51.400,-0.46,-0.23
21:00:51.404,-0.46,-0.155
21:00:51.408,-0.485,-0.085
21:00:51.412,-0.49,-0.05
21:00:51.416,-0.505,-0.055
21:00:51.420,-0.495,-0.045
21:00:51.424,-0.47,-0.055
21:00:51.428,-0.475,-0.07
21:00:51.432,-0.455,-0.08
21:00:51.436,-0.465,-0.075
21:00:51.440,-0.445,-0.105
21:00:51.444,-0.45,-0.07
21:00:51.448,-0.435,-0.06
21:00:51.452,-0.42,-0.035
21:00:51.456,-0.42,-0.06
21:00:51.460,-0.41,-0.04
21:00:51.464,-0.41,-0.025
21:00:51.468,-0.41,0.0
21:00:51.472,-0.385,0.005
21:00:51.476,-0.39,-0.005
21:00:51.480,-0.37,0.005
21:00:51.484,-0.37,0.015
21:00:51.488,-0.4,0.005
21:00:51.492,-0.41,0.015
21:00:51.496,-0.435,0.045
21:00:51.500,-0.475,0.035
21:00:51.504,-0.565,0.05
21:00:51.508,-0.555,0.05
21:00:51.512,-0.575,0.055
21:00:51.516,-0.59,0.055
21:00:51.520,-0.59,0.065
21:00:51.524,-0.58,0.07
21:00:51.528,-0.56,0.055
21:00:51.532,-0.55,0.04
21:00:51.536,-0.53,0.07
21:00:51.540,-0.52,0.055
21:00:51.544,-0.545,0.05
21:00:51.548,-0.535,0.04
21:00:51.552,-0.53,0.01
21:00:51.556,-0.525,-0.025
21:00:51.560,-0.525,-0.055
21:00:51.564,-0.5,-0.07
21:00:51.568,-0.515,-0.08
21:00:51.572,-0.5,-0.08
21:00:51.576,-0.485,-0.085
21:00:51.580,-0.485,-0.095
21:00:51.584,-0.465,-0.08
21:00:51.588,-0.455,-0.095
21:00:51.592,-0.465,-0.1
21:00:51.596,-0.44,-0.1
21:00:51.600,-0.44,-0.13
21:00:51.604,-0.43,-0.16
21:00:51.608,-0.43,-0.165
21:00:51.612,-0.415,-0.155
21:00:51.616,-0.41,-0.19
21:00:51.620,-0.415,-0.17
21:00:51.624,-0.385,-0.18
21:00:51.628,-0.37,-0.17
21:00:51.632,-0.355,-0.165
21:00:51.636,-0.34,-0.15
21:00:51.640,-0.32,-0.17
21:00:51.644,-0.32,-0.17
21:00:51.648,-0.3,-0.17
21:00:51.652,-0.275,-0.135
21:00:51.656,-0.28,-0.125
21:00:51.660,-0.245,-0.13
21:00:51.664,-0.23,-0.125
21:00:51.668,-0.255,-0.12
21:00:51.672,-0.245,-0.1
21:00:51.676,-0.235,-0.095
21:00:51.680,-0.24,-0.055
21:00:51.684,-0.255,-0.07
21:00:51.688,-0.29,-0.055
21:00:51.692,-0.32,-0.035
21:00:51.696,-0.355,0.0
21:00:51.700,-0.38,0.0
21:00:51.704,-0.38,0.02
21:00:51.708,-0.385,0.01
21:00:51.712,-0.41,-0.01
21:00:51.716,-0.39,0.02
21:00:51.720,-0.405,0.035
21:00:51.724,-0.4,0.035
21:00:51.728,-0.41,0.01
21:00:51.732,-0.41,0.0
21:00:51.736,-0.4,0.0
21:00:51.740,-0.4,0.0
21:00:51.744,-0.4,0.0
21:00:51.748,-0.36,0.01
21:00:51.752,-0.355,-0.01
21:00:51.756,-0.36,-0.02
21:00:51.760,-0.34,-0.01
21:00:51.764,-0.31,-0.05
21:00:51.768,-0.285,-0.06
21:00:51.772,-0.25,-0.06
21:00:51.776,-0.175,-0.055
21:00:51.780,-0.125,-0.08
21:00:51.784,-0.075,-0.09
21:00:51.788,-0.045,-0.12
21:00:51.792,-0.005,-0.205
21:00:51.796,0.015,-0.235
21:00:51.800,0.025,-0.24
21:00:51.804,0.045,-0.28
21:00:51.808,0.08,-0.355
21:00:51.812,0.25,-0.475
21:00:51.816,0.575,-0.655
21:00:51.820,0.885,-0.9
21:00:51.824,1.07,-1.18
21:00:51.828,1.005,-1.36
21:00:51.832,0.675,-1.31
21:00:51.836,0.175,-1.015
21:00:51.840,-0.18,-0.655
21:00:51.844,-0.345,-0.375
21:00:51.848,-0.415,-0.2
21:00:51.852,-0.415,-0.105
21:00:51.856,-0.44,-0.035
21:00:51.860,-0.435,-0.005
21:00:51.864,-0.445,-0.01
21:00:51.868,-0.43,0.01
21:00:51.872,-0.415,0.02
21:00:51.876,-0.44,0.0
21:00:51.880,-0.445,0.0
21:00:51.884,-0.46,0.0
21:00:51.888,-0.48,-0.005
21:00:51.892,-0.525,0.005
21:00:51.896,-0.555,0.02
21:00:51.900,-0.57,0.035
21:00:51.904,-0.6,0.045
21:00:51.908,-0.59,0.075
21:00:51.912,-0.61,0.055
21:00:51.916,-0.61,0.06
21:00:51.920,-0.6,0.065
21:00:51.924,-0.615,0.075
21:00:51.928,-0.6,0.075
21:00:51.932,-0.605,0.09
21:00:51.936,-0.57,0.08
21:00:51.940,-0.595,0.07
21:00:51.944,-0.585,0.065
21:00:51.948,-0.565,0.085
21:00:51.952,-0.565,0.085
21:00:51.956,-0.58,0.06
21:00:51.960,-0.56,0.075
21:00:51.964,-0.57,0.05
21:00:51.968,-0.585,0.045
21:00:51.972,-0.55,0.015
21:00:51.976,-0.565,0.035
21:00:51.980,-0.53,0.04
21:00:51.984,-0.54,0.02
21:00:51.988,-0.51,0.01
21:00:51.992,-0.525,0.005
21:00:51.996,-0.51,0.0
21:00:52.000,-0.5,-0.005
21:00:52.004,-0.495,0.0
21:00:52.008,-0.485,0.0
21:00:52.012,-0.45,0.0
21:00:52.016,-0.425,-0.02
21:00:52.020,-0.43,-0.035
21:00:52.024,-0.395,-0.045
21:00:52.028,-0.39,-0.045
21:00:52.032,-0.36,-0.03
21:00:52.036,-0.33,-0.045
21:00:52.040,-0.33,-0.04
21:00:52.044,-0.3,-0.035
21:00:52.048,-0.275,-0.045
21:00:52.052,-0.265,-0.035
21:00:52.056,-0.265,-0.035
21:00:52.060,-0.245,-0.04
21:00:52.064,-0.23,-0.045
21:00:52.068,-0.235,-0.045
21:00:52.072,-0.235,-0.045
21:00:52.076,-0.275,-0.035
21:00:52.080,-0.27,-0.045
21:00:52.084,-0.31,-0.045
21:00:52.088,-0.35,-0.045
21:00:52.092,-0.37,-0.03
21:00:52.096,-0.385,-0.02
21:00:52.100,-0.395,-0.025
21:00:52.104,-0.425,-0.02
21:00:52.108,-0.425,0.005
21:00:52.112,-0.4,0.0
21:00:52.116,-0.43,0.005
21:00:52.120,-0.43,-0.015
21:00:52.124,-0.425,-0.01
21:00:52.128,-0.42,0.02
21:00:52.132,-0.415,0.005
21:00:52.136,-0.38,0.005
21:00:52.140,-0.395,0.025
21:00:52.144,-0.39,0.03
21:00:52.148,-0.4,0.015
21:00:52.152,-0.41,0.02
21:00:52.156,-0.4,0.01
21:00:52.160,-0.395,0.05
21:00:52.164,-0.38,0.025
21:00:52.168,-0.385,0.045
21:00:52.172,-0.345,0.05
21:00:52.176,-0.365,0.025
21:00:52.180,-0.37,0.02
21:00:52.184,-0.375,0.0
21:00:52.188,-0.38,0.01
21:00:52.192,-0.375,0.01
21:00:52.196,-0.375,-0.005
21:00:52.200,-0.33,-0.02
21:00:52.204,-0.315,-0.03
21:00:52.208,-0.315,-0.045
21:00:52.212,-0.295,-0.055
21:00:52.216,-0.27,-0.065
21:00:52.220,-0.29,-0.045
21:00:52.224,-0.27,-0.065
21:00:52.228,-0.245,-0.055
21:00:52.232,-0.26,-0.04
21:00:52.236,-0.26,-0.025
21:00:52.240,-0.23,-0.03
21:00:52.244,-0.225,-0.05
21:00:52.248,-0.2,-0.02
21:00:52.252,-0.21,-0.035
21:00:52.256,-0.205,-0.03
21:00:52.260,-0.22,-0.025
21:00:52.264,-0.205,-0.045
21:00:52.268,-0.215,-0.015
21:00:52.272,-0.2,-0.015
21:00:52.276,-0.21,0.005
21:00:52.280,-0.26,-0.02
21:00:52.284,-0.31,-0.015
21:00:52.288,-0.34,-0.02
21:00:52.292,-0.36,-0.01
21:00:52.296,-0.38,-0.01
21:00:52.300,-0.375,-0.015
21:00:52.304,-0.32,0.0
21:00:52.308,-0.25,-0.015
21:00:52.312,-0.185,-0.035
21:00:52.316,-0.11,-0.07
21:00:52.320,-0.04,-0.08
21:00:52.324,0.0,-0.15
21:00:52.328,0.025,-0.175
21:00:52.332,0.035,-0.185
21:00:52.336,0.055,-0.215
21:00:52.340,0.055,-0.295
21:00:52.344,0.145,-0.39
21:00:52.348,0.37,-0.57
21:00:52.352,0.68,-0.79
21:00:52.356,0.945,-1.015
21:00:52.360,1.0,-1.22
21:00:52.364,0.725,-1.27
21:00:52.368,0.265,-1.04
21:00:52.372,-0.155,-0.66
21:00:52.376,-0.385,-0.37
21:00:52.380,-0.465,-0.175
21:00:52.384,-0.515,-0.06
21:00:52.388,-0.525,0.05
21:00:52.392,-0.51,0.075
21:00:52.396,-0.52,0.07
21:00:52.400,-0.47,0.09
21:00:52.404,-0.465,0.105
21:00:52.408,-0.45,0.08
21:00:52.412,-0.445,0.04
21:00:52.416,-0.44,0.025
21:00:52.420,-0.425,0.035
21:00:52.424,-0.405,0.025
21:00:52.428,-0.405,0.045
21:00:52.432,-0.39,0.035
21:00:52.436,-0.405,0.05
21:00:52.440,-0.405,0.07
21:00:52.444,-0.4,0.06
21:00:52.448,-0.415,0.065
21:00:52.452,-0.41,0.065
21:00:52.456,-0.405,0.065
21:00:52.460,-0.395,0.095
21:00:52.464,-0.42,0.11
21:00:52.468,-0.45,0.1
21:00:52.472,-0.47,0.09
21:00:52.476,-0.495,0.115
21:00:52.480,-0.515,0.11
21:00:52.484,-0.54,0.13
21:00:52.488,-0.545,0.115
21:00:52.492,-0.555,0.125
21:00:52.496,-0.54,0.13
21:00:52.500,-0.575,0.13
21:00:52.504,-0.595,0.12
21:00:52.508,-0.595,0.11
21:00:52.512,-0.61,0.125
21:00:52.516,-0.625,0.145
21:00:52.520,-0.625,0.125
21:00:52.524,-0.625,0.115
21:00:52.528,-0.655,0.115
21:00:52.532,-0.62,0.1
21:00:52.536,-0.61,0.065
21:00:52.540,-0.615,0.065
21:00:52.544,-0.625,0.055
21:00:52.548,-0.61,0.05
21:00:52.552,-0.6,0.04
21:00:52.556,-0.585,0.04
21:00:52.560,-0.585,0.05
21:00:52.564,-0.575,0.02
21:00:52.568,-0.58,0.01
21:00:52.572,-0.565,0.01
21:00:52.576,-0.565,0.02
21:00:52.580,-0.58,0.01
21:00:52.584,-0.545,0.005
21:00:52.588,-0.52,0.01
21:00:52.592,-0.51,0.005
21:00:52.596,-0.485,-0.03
21:00:52.600,-0.46,-0.01
21:00:52.604,-0.44,-0.025
21:00:52.608,-0.41,-0.015
21:00:52.612,-0.4,-0.01
21:00:52.616,-0.37,-0.02
21:00:52.620,-0.36,0.01
21:00:52.624,-0.36,0.0
21:00:52.628,-0.32,0.0
21:00:52.632,-0.33,0.01
21:00:52.636,-0.35,0.0
21:00:52.640,-0.345,0.02
21:00:52.644,-0.34,0.035
21:00:52.648,-0.305,0.025
21:00:52.652,-0.265,0.025
21:00:52.656,-0.265,0.02
21:00:52.660,-0.25,0.025
21:00:52.664,-0.255,0.0
21:00:52.668,-0.28,-0.015
21:00:52.672,-0.3,0.0
21:00:52.676,-0.32,-0.01
21:00:52.680,-0.355,0.0
21:00:52.684,-0.385,0.02
21:00:52.688,-0.385,0.015
21:00:52.692,-0.39,0.005
21:00:52.696,-0.41,0.03
21:00:52.700,-0.425,0.03
21:00:52.704,-0.435,0.01
21:00:52.708,-0.43,0.02
21:00:52.712,-0.43,0.005
21:00:52.716,-0.425,0.005
21:00:52.720,-0.455,0.025
21:00:52.724,-0.455,0.02
21:00:52.728,-0.475,0.0
21:00:52.732,-0.46,0.0
21:00:52.736,-0.455,-0.02
21:00:52.740,-0.445,-0.03
21:00:52.744,-0.465,-0.005
21:00:52.748,-0.475,-0.035
21:00:52.752,-0.46,-0.05
21:00:52.756,-0.48,-0.045
21:00:52.760,-0.47,-0.04
21:00:52.764,-0.46,-0.04
21:00:52.768,-0.435,-0.045
21:00:52.772,-0.46,-0.045
21:00:52.776,-0.475,-0.085
21:00:52.780,-0.465,-0.06
21:00:52.784,-0.44,-0.06
21:00:52.788,-0.45,-0.065
21:00:52.792,-0.425,-0.07
21:00:52.796,-0.37,-0.07
21:00:52.800,-0.315,-0.055
21:00:52.804,-0.24,-0.085
21:00:52.808,-0.15,-0.07
21:00:52.812,-0.045,-0.095
21:00:52.816,0.005,-0.105
21:00:52.820,0.05,-0.135
21:00:52.824,0.12,-0.155
21:00:52.828,0.18,-0.175
21:00:52.832,0.22,-0.175
21:00:52.836,0.21,-0.2
21:00:52.840,0.26,-0.25
21:00:52.844,0.44,-0.385
21:00:52.848,0.74,-0.57
21:00:52.852,1.0,-0.83
21:00:52.856,1.045,-1.02
21:00:52.860,0.8,-1.085
21:00:52.864,0.33,-0.925
21:00:52.868,-0.12,-0.595
21:00:52.872,-0.345,-0.32
21:00:52.876,-0.475,-0.14
21:00:52.880,-0.51,-0.055
21:00:52.884,-0.53,0.04
21:00:52.888,-0.575,0.075
21:00:52.892,-0.61,0.11
21:00:52.896,-0.625,0.085
21:00:52.900,-0.635,0.075
21:00:52.904,-0.655,0.035
21:00:52.908,-0.64,0.025
21:00:52.912,-0.63,0.01
21:00:52.916,-0.625,-0.01
21:00:52.920,-0.625,-0.015
21:00:52.924,-0.61,-0.015
21:00:52.928,-0.625,-0.025
21:00:52.932,-0.625,0.0
21:00:52.936,-0.635,-0.015
21:00:52.940,-0.635,0.0
21:00:52.944,-0.63,-0.01
21:00:52.948,-0.615,0.0
21:00:52.952,-0.61,0.0
21:00:52.956,-0.615,-0.01
21:00:52.960,-0.61,-0.015
21:00:52.964,-0.61,-0.01
21:00:52.968,-0.62,-0.04
21:00:52.972,-0.61,-0.025
21:00:52.976,-0.63,-0.025
21:00:52.980,-0.64,-0.03
21:00:52.984,-0.64,-0.02
21:00:52.988,-0.64,-0.02
21:00:52.992,-0.615,-0.02
21:00:52.996,-0.595,-0.04
21:00:53.000,-0.59,-0.04
21:00:53.004,-0.585,-0.04
21:00:53.008,-0.555,-0.015
21:00:53.012,-0.55,0.0
21:00:53.016,-0.54,-0.02
21:00:53.020,-0.545,-0.02
21:00:53.024,-0.505,0.0
21:00:53.028,-0.5,0.0
21:00:53.032,-0.49,0.01
21:00:53.036,-0.47,0.015
21:00:53.040,-0.42,0.02
21:00:53.044,-0.44,0.02
21:00:53.048,-0.415,0.015
21:00:53.052,-0.425,0.025
21:00:53.056,-0.42,0.025
21:00:53.060,-0.42,0.02
21:00:53.064,-0.45,0.02
21:00:53.068,-0.47,0.02
21:00:53.072,-0.48,0.005
21:00:53.076,-0.535,0.01
21:00:53.080,-0.52,0.0
21:00:53.084,-0.545,-0.02
21:00:53.088,-0.55,-0.03
21:00:53.092,-0.56,-0.065
21:00:53.096,-0.555,-0.055
21:00:53.100,-0.555,-0.085
21:00:53.104,-0.565,-0.08
21:00:53.108,-0.545,-0.085
21:00:53.112,-0.52,-0.105
21:00:53.116,-0.5,-0.105
21:00:53.120,-0.515,-0.11
21:00:53.124,-0.5,-0.135
21:00:53.128,-0.49,-0.14
21:00:53.132,-0.49,-0.14
21:00:53.136,-0.475,-0.14
21:00:53.140,-0.475,-0.14
21:00:53.144,-0.455,-0.16
21:00:53.148,-0.435,-0.15
21:00:53.152,-0.375,-0.15
21:00:53.156,-0.38,-0.15
21:00:53.160,-0.37,-0.11
21:00:53.164,-0.365,-0.1
21:00:53.168,-0.375,-0.1
21:00:53.172,-0.365,-0.1
21:00:53.176,-0.375,-0.1
21:00:53.180,-0.37,-0.09
21:00:53.184,-0.37,-0.09
21:00:53.188,-0.37,-0.105
21:00:53.192,-0.36,-0.105
21:00:53.196,-0.355,-0.105
21:00:53.200,-0.38,-0.08
21:00:53.204,-0.375,-0.09
21:00:53.208,-0.345,-0.085
21:00:53.212,-0.31,-0.08
21:00:53.216,-0.315,-0.065
21:00:53.220,-0.28,-0.085
21:00:53.224,-0.27,-0.085
21:00:53.228,-0.27,-0.07
21:00:53.232,-0.24,-0.075
21:00:53.236,-0.235,-0.075
21:00:53.240,-0.225,-0.06
21:00:53.244,-0.235,-0.055
21:00:53.248,-0.235,-0.055
21:00:53.252,-0.265,-0.065
21:00:53.256,-0.255,-0.055
21:00:53.260,-0.28,-0.05
21:00:53.264,-0.295,-0.04
21:00:53.268,-0.335,-0.05
21:00:53.272,-0.34,-0.045
21:00:53.276,-0.33,-0.04
21:00:53.280,-0.33,-0.04
21:00:53.284,-0.33,-0.055
21:00:53.288,-0.295,-0.06
21:00:53.292,-0.255,-0.075
21:00:53.296,-0.16,-0.09
21:00:53.300,-0.095,-0.105
21:00:53.304,-0.035,-0.15
21:00:53.308,0.015,-0.195
21:00:53.312,0.055,-0.24
21:00:53.316,0.06,-0.215
21:00:53.320,0.075,-0.26
21:00:53.324,0.07,-0.32
21:00:53.328,0.205,-0.415
21:00:53.332,0.44,-0.58
21:00:53.336,0.715,-0.805
21:00:53.340,0.89,-1.03
21:00:53.344,0.765,-1.185
21:00:53.348,0.36,-1.125
21:00:53.352,-0.12,-0.88
21:00:53.356,-0.4,-0.57
21:00:53.360,-0.52,-0.325
21:00:53.364,-0.54,-0.2
21:00:53.368,-0.565,-0.105
21:00:53.372,-0.515,-0.03
21:00:53.376,-0.53,-0.005
21:00:53.380,-0.535,-0.005
21:00:53.384,-0.52,-0.025
21:00:53.388,-0.505,-0.045
21:00:53.392,-0.49,-0.06
21:00:53.396,-0.465,-0.07
21:00:53.400,-0.45,-0.07
21:00:53.404,-0.465,-0.07
21:00:53.408,-0.46,-0.045
21:00:53.412,-0.45,-0.04
21:00:53.416,-0.455,-0.045
21:00:53.420,-0.465,-0.055
21:00:53.424,-0.45,-0.015
21:00:53.428,-0.465,-0.02
21:00:53.432,-0.44,-0.02
21:00:53.436,-0.43,-0.035
21:00:53.440,-0.425,0.0
21:00:53.444,-0.415,0.015
21:00:53.448,-0.42,0.0
21:00:53.452,-0.415,0.0
21:00:53.456,-0.405,0.0
21:00:53.460,-0.44,0.02
21:00:53.464,-0.455,0.005
21:00:53.468,-0.475,0.03
21:00:53.472,-0.515,0.035
21:00:53.476,-0.56,0.03
21:00:53.480,-0.59,0.065
21:00:53.484,-0.615,0.045
21:00:53.488,-0.605,0.055
21:00:53.492,-0.63,0.065
21:00:53.496,-0.62,0.055
21:00:53.500,-0.64,0.055
21:00:53.504,-0.64,0.045
21:00:53.508,-0.625,0.065
21:00:53.512,-0.635,0.05
21:00:53.516,-0.625,0.04
21:00:53.520,-0.625,0.025
21:00:53.524,-0.615,0.02
21:00:53.528,-0.615,0.01
21:00:53.532,-0.61,0.01
21:00:53.536,-0.61,-0.01
21:00:53.540,-0.59,-0.005
21:00:53.544,-0.6,-0.015
21:00:53.548,-0.59,-0.03
21:00:53.552,-0.555,-0.05
21:00:53.556,-0.555,-0.055
21:00:53.560,-0.545,-0.07
21:00:53.564,-0.525,-0.095
21:00:53.568,-0.52,-0.09
21:00:53.572,-0.505,-0.095
21:00:53.576,-0.485,-0.11
21:00:53.580,-0.47,-0.095
21:00:53.584,-0.44,-0.095
21:00:53.588,-0.4,-0.09
21:00:53.592,-0.375,-0.1
21:00:53.596,-0.365,-0.09
21:00:53.600,-0.345,-0.085
21:00:53.604,-0.345,-0.095
21:00:53.608,-0.32,-0.04
21:00:53.612,-0.3,-0.055
21:00:53.616,-0.31,-0.035
21:00:53.620,-0.27,-0.035
21:00:53.624,-0.26,-0.065
21:00:53.628,-0.24,-0.055
21:00:53.632,-0.21,-0.075
21:00:53.636,-0.205,-0.075
21:00:53.640,-0.195,-0.065
21:00:53.644,-0.205,-0.055
21:00:53.648,-0.22,-0.07
21:00:53.652,-0.22,-0.07
21:00:53.656,-0.235,-0.075
21:00:53.660,-0.27,-0.08
21:00:53.664,-0.28,-0.085
21:00:53.668,-0.285,-0.08
21:00:53.672,-0.3,-0.07
21:00:53.676,-0.36,-0.065
21:00:53.680,-0.39,-0.065
21:00:53.684,-0.425,-0.065
21:00:53.688,-0.435,-0.06
21:00:53.692,-0.44,-0.04
21:00:53.696,-0.465,-0.03
21:00:53.700,-0.465,-0.055
21:00:53.704,-0.46,-0.065
21:00:53.708,-0.465,-0.035
21:00:53.712,-0.45,-0.07
21:00:53.716,-0.455,-0.075
21:00:53.720,-0.455,-0.06
21:00:53.724,-0.43,-0.09
21:00:53.728,-0.43,-0.08
21:00:53.732,-0.415,-0.06
21:00:53.736,-0.42,-0.08
21:00:53.740,-0.43,-0.09
21:00:53.744,-0.43,-0.08
21:00:53.748,-0.42,-0.09
21:00:53.752,-0.43,-0.11
21:00:53.756,-0.45,-0.105
21:00:53.760,-0.44,-0.11
21:00:53.764,-0.43,-0.085
21:00:53.768,-0.44,-0.115
21:00:53.772,-0.44,-0.105
21:00:53.776,-0.425,-0.1
21:00:53.780,-0.415,-0.085
21:00:53.784,-0.395,-0.11
21:00:53.788,-0.385,-0.11
21:00:53.792,-0.385,-0.095
21:00:53.796,-0.385,-0.095
21:00:53.800,-0.375,-0.075
21:00:53.804,-0.355,-0.095
21:00:53.808,-0.36,-0.105
21:00:53.812,-0.355,-0.095
21:00:53.816,-0.32,-0.07
21:00:53.820,-0.28,-0.07
21:00:53.824,-0.24,-0.075
21:00:53.828,-0.165,-0.055
21:00:53.832,-0.05,-0.065
21:00:53.836,0.025,-0.085
21:00:53.840,0.085,-0.11
21:00:53.844,0.13,-0.15
21:00:53.848,0.175,-0.185
21:00:53.852,0.2,-0.195
21:00:53.856,0.215,-0.21
21:00:53.860,0.25,-0.325
21:00:53.864,0.375,-0.44
21:00:53.868,0.605,-0.605
21:00:53.872,0.91,-0.88
21:00:53.876,1.11,-1.1
21:00:53.880,1.095,-1.235
21:00:53.884,0.765,-1.31
21:00:53.888,0.22,-1.065
21:00:53.892,-0.18,-0.675
21:00:53.896,-0.42,-0.375
21:00:53.900,-0.5,-0.18
21:00:53.904,-0.535,-0.075
21:00:53.908,-0.535,-0.01
21:00:53.912,-0.535,0.025
21:00:53.916,-0.55,0.05
21:00:53.920,-0.535,0.045
21:00:53.924,-0.565,0.025
21:00:53.928,-0.59,0.02
21:00:53.932,-0.58,0.0
21:00:53.936,-0.56,0.005
21:00:53.940,-0.57,-0.005
21:00:53.944,-0.575,-0.015
21:00:53.948,-0.56,-0.01
21:00:53.952,-0.58,-0.005
21:00:53.956,-0.57,-0.005
21:00:53.960,-0.565,0.0
21:00:53.964,-0.575,-0.01
21:00:53.968,-0.575,-0.005
21:00:53.972,-0.575,0.0
21:00:53.976,-0.555,0.0
21:00:53.980,-0.575,0.01
21:00:53.984,-0.57,-0.01
21:00:53.988,-0.57,-0.005
21:00:53.992,-0.575,0.01
21:00:53.996,-0.57,0.01
21:00:54.000,-0.575,0.01
21:00:54.004,-0.575,0.02
21:00:54.008,-0.57,0.005
21:00:54.012,-0.55,0.0
21:00:54.016,-0.54,0.01
21:00:54.020,-0.555,0.005
21:00:54.024,-0.535,0.015
21:00:54.028,-0.51,0.035
21:00:54.032,-0.53,0.035
21:00:54.036,-0.525,0.045
21:00:54.040,-0.525,0.075
21:00:54.044,-0.475,0.065
21:00:54.048,-0.475,0.07
21:00:54.052,-0.455,0.075
21:00:54.056,-0.415,0.085
21:00:54.060,-0.405,0.09
21:00:54.064,-0.405,0.075
21:00:54.068,-0.405,0.105
21:00:54.072,-0.405,0.105
21:00:54.076,-0.41,0.1
21:00:54.080,-0.42,0.115
21:00:54.084,-0.47,0.105
21:00:54.088,-0.5,0.125
21:00:54.092,-0.545,0.125
21:00:54.096,-0.555,0.125
21:00:54.100,-0.55,0.1
21:00:54.104,-0.545,0.1
21:00:54.108,-0.505,0.075
21:00:54.112,-0.485,0.055
21:00:54.116,-0.475,0.04
21:00:54.120,-0.425,0.02
21:00:54.124,-0.425,-0.005
21:00:54.128,-0.405,-0.045
21:00:54.132,-0.4,-0.05
21:00:54.136,-0.405,-0.065
21:00:54.140,-0.395,-0.055
21:00:54.144,-0.39,-0.06
21:00:54.148,-0.37,-0.065
21:00:54.152,-0.345,-0.065
21:00:54.156,-0.355,-0.075
21:00:54.160,-0.345,-0.065
21:00:54.164,-0.34,-0.07
21:00:54.168,-0.31,-0.04
21:00:54.172,-0.3,-0.03
21:00:54.176,-0.28,-0.045
21:00:54.180,-0.28,-0.05
21:00:54.184,-0.28,-0.04
21:00:54.188,-0.27,-0.02
21:00:54.192,-0.285,-0.02
21:00:54.196,-0.29,-0.005
21:00:54.200,-0.295,-0.02
21:00:54.204,-0.305,-0.025
21:00:54.208,-0.29,-0.02
21:00:54.212,-0.3,-0.02
21:00:54.216,-0.305,-0.02
21:00:54.220,-0.325,-0.02
21:00:54.224,-0.305,0.0
21:00:54.228,-0.32,-0.01
21:00:54.232,-0.31,-0.01
21:00:54.236,-0.31,-0.01
21:00:54.240,-0.295,-0.005
21:00:54.244,-0.29,0.005
21:00:54.248,-0.275,0.015
21:00:54.252,-0.275,0.015
21:00:54.256,-0.27,0.015
21:00:54.260,-0.245,0.035
21:00:54.264,-0.24,0.005
21:00:54.268,-0.25,0.03
21:00:54.272,-0.24,0.03
21:00:54.276,-0.245,0.03
21:00:54.280,-0.26,0.03
21:00:54.284,-0.285,0.025
21:00:54.288,-0.32,0.055
21:00:54.292,-0.36,0.02
21:00:54.296,-0.405,0.055
21:00:54.300,-0.415,0.05
21:00:54.304,-0.44,0.065
21:00:54.308,-0.445,0.055
21:00:54.312,-0.445,0.045
21:00:54.316,-0.455,0.035
21:00:54.320,-0.455,0.03
21:00:54.324,-0.445,0.025
21:00:54.328,-0.455,0.015
21:00:54.332,-0.44,-0.005
21:00:54.336,-0.465,0.0
21:00:54.340,-0.46,0.0
21:00:54.344,-0.47,0.005
21:00:54.348,-0.455,0.0
21:00:54.352,-0.465,-0.005
21:00:54.356,-0.45,-0.015
21:00:54.360,-0.42,-0.025
21:00:54.364,-0.415,-0.015
21:00:54.368,-0.41,-0.02
21:00:54.372,-0.395,-0.015
21:00:54.376,-0.38,-0.03
21:00:54.380,-0.325,-0.025
21:00:54.384,-0.305,-0.055
21:00:54.388,-0.295,-0.05
21:00:54.392,-0.27,-0.075
21:00:54.396,-0.285,-0.07
21:00:54.400,-0.28,-0.06
21:00:54.404,-0.29,-0.08
21:00:54.408,-0.295,-0.08
21:00:54.412,-0.29,-0.08
21:00:54.416,-0.285,-0.08
21:00:54.420,-0.265,-0.055
21:00:54.424,-0.25,-0.065
21:00:54.428,-0.26,-0.06
21:00:54.432,-0.255,-0.06
21:00:54.436,-0.27,-0.07
21:00:54.440,-0.25,-0.065
21:00:54.444,-0.26,-0.055
21:00:54.448,-0.27,-0.045
21:00:54.452,-0.255,-0.05
21:00:54.456,-0.235,-0.04
21:00:54.460,-0.23,-0.015
21:00:54.464,-0.21,-0.02
21:00:54.468,-0.205,-0.03
21:00:54.472,-0.205,-0.045
21:00:54.476,-0.21,-0.025
21:00:54.480,-0.185,-0.035
21:00:54.484,-0.225,-0.035
21:00:54.488,-0.235,0.0
21:00:54.492,-0.28,0.0
21:00:54.496,-0.31,-0.025
21:00:54.500,-0.38,-0.02
21:00:54.504,-0.395,0.005
21:00:54.508,-0.36,0.0
21:00:54.512,-0.33,0.01
21:00:54.516,-0.255,0.015
21:00:54.520,-0.17,0.01
21:00:54.524,-0.11,-0.025
21:00:54.528,-0.055,-0.04
21:00:54.532,-0.005,-0.1
21:00:54.536,0.01,-0.125
21:00:54.540,0.04,-0.15
21:00:54.544,0.05,-0.19
21:00:54.548,0.06,-0.275
21:00:54.552,0.135,-0.38
21:00:54.556,0.375,-0.54
21:00:54.560,0.685,-0.795
21:00:54.564,0.9,-1.04
21:00:54.568,0.955,-1.25
21:00:54.572,0.695,-1.28
21:00:54.576,0.205,-1.05
21:00:54.580,-0.22,-0.675
21:00:54.584,-0.415,-0.37
21:00:54.588,-0.505,-0.18
21:00:54.592,-0.53,-0.06
21:00:54.596,-0.54,0.015
21:00:54.600,-0.575,0.05
21:00:54.604,-0.59,0.085
21:00:54.608,-0.585,0.105
21:00:54.612,-0.575,0.1
21:00:54.616,-0.58,0.08
21:00:54.620,-0.52,0.05
21:00:54.624,-0.525,0.025
21:00:54.628,-0.48,0.02
21:00:54.632,-0.47,0.01
21:00:54.636,-0.44,0.01
21:00:54.640,-0.42,0.005
21:00:54.644,-0.415,0.015
21:00:54.648,-0.4,0.045
21:00:54.652,-0.4,0.03
21:00:54.656,-0.4,0.045
21:00:54.660,-0.395,0.04
21:00:54.664,-0.395,0.05
21:00:54.668,-0.405,0.07
21:00:54.672,-0.395,0.08
21:00:54.676,-0.395,0.085
21:00:54.680,-0.385,0.065
21:00:54.684,-0.375,0.06
21:00:54.688,-0.395,0.075
21:00:54.692,-0.42,0.075
21:00:54.696,-0.45,0.07
21:00:54.700,-0.505,0.07
21:00:54.704,-0.56,0.07
21:00:54.708,-0.605,0.07
21:00:54.712,-0.65,0.075
21:00:54.716,-0.67,0.085
21:00:54.720,-0.685,0.08
21:00:54.724,-0.69,0.095
21:00:54.728,-0.695,0.085
21:00:54.732,-0.675,0.09
21:00:54.736,-0.68,0.065
21:00:54.740,-0.67,0.06
21:00:54.744,-0.685,0.05
21:00:54.748,-0.665,0.04
21:00:54.752,-0.67,0.055
21:00:54.756,-0.65,0.045
21:00:54.760,-0.63,0.045
21:00:54.764,-0.635,0.035
21:00:54.768,-0.63,0.025
21:00:54.772,-0.63,0.035
21:00:54.776,-0.61,0.02
21:00:54.780,-0.6,0.02
21:00:54.784,-0.595,0.015
21:00:54.788,-0.6,0.03
21:00:54.792,-0.59,0.01
21:00:54.796,-0.595,0.0
21:00:54.800,-0.585,-0.015
21:00:54.804,-0.575,-0.035
21:00:54.808,-0.555,-0.04
21:00:54.812,-0.545,-0.04
21:00:54.816,-0.515,-0.055
21:00:54.820,-0.48,-0.06
21:00:54.824,-0.455,-0.05
21:00:54.828,-0.435,-0.045
21:00:54.832,-0.405,-0.04
21:00:54.836,-0.405,-0.035
21:00:54.840,-0.37,-0.03
21:00:54.844,-0.355,-0.045
21:00:54.848,-0.32,-0.035
21:00:54.852,-0.295,-0.02
21:00:54.856,-0.28,-0.02
21:00:54.860,-0.265,0.02
21:00:54.864,-0.25,0.025
21:00:54.868,-0.235,0.07
21:00:54.872,-0.225,0.045
21:00:54.876,-0.19,0.05
21:00:54.880,-0.145,0.06
21:00:54.884,-0.12,0.065
21:00:54.888,-0.115,0.045
21:00:54.892,-0.115,0.025
21:00:54.896,-0.165,0.045
21:00:54.900,-0.19,0.05
21:00:54.904,-0.235,0.055
21:00:54.908,-0.285,0.055
21:00:54.912,-0.355,0.065
21:00:54.916,-0.395,0.055
21:00:54.920,-0.415,0.045
21:00:54.924,-0.44,0.02
21:00:54.928,-0.465,0.025
21:00:54.932,-0.495,0.02
21:00:54.936,-0.505,0.02
21:00:54.940,-0.49,0.0
21:00:54.944,-0.495,0.0
21:00:54.948,-0.49,0.0
21:00:54.952,-0.495,0.005
21:00:54.956,-0.495,-0.01
21:00:54.960,-0.48,-0.02
21:00:54.964,-0.48,0.0
21:00:54.968,-0.475,-0.015
21:00:54.972,-0.48,0.0
21:00:54.976,-0.485,-0.03
21:00:54.980,-0.485,-0.02
21:00:54.984,-0.49,-0.035
21:00:54.988,-0.5,-0.02
21:00:54.992,-0.45,-0.01
21:00:54.996,-0.455,-0.035
21:00:55.000,-0.465,-0.02
21:00:55.004,-0.475,-0.005
21:00:55.008,-0.475,-0.03
21:00:55.012,-0.425,-0.025
21:00:55.016,-0.43,-0.04
21:00:55.020,-0.375,-0.035
21:00:55.024,-0.31,-0.055
21:00:55.028,-0.205,-0.08
21:00:55.032,-0.145,-0.06
21:00:55.036,-0.07,-0.125
21:00:55.040,-0.02,-0.17
21:00:55.044,0.0,-0.195
21:00:55.048,0.025,-0.18
21:00:55.052,0.02,-0.2
21:00:55.056,0.065,-0.255
21:00:55.060,0.225,-0.375
21:00:55.064,0.495,-0.54
21:00:55.068,0.815,-0.805
21:00:55.072,1.0,-1.02
21:00:55.076,0.925,-1.185
21:00:55.080,0.56,-1.125
21:00:55.084,0.095,-0.77
21:00:55.088,-0.19,-0.4
21:00:55.092,-0.32,-0.145
21:00:55.096,-0.36,0.04
21:00:55.100,-0.375,0.14
21:00:55.104,-0.4,0.215
21:00:55.108,-0.45,0.245
21:00:55.112,-0.475,0.245
21:00:55.116,-0.47,0.205
21:00:55.120,-0.48,0.2
21:00:55.124,-0.48,0.18
21:00:55.128,-0.525,0.125
21:00:55.132,-0.565,0.11
21:00:55.136,-0.57,0.115
21:00:55.140,-0.62,0.09
21:00:55.144,-0.64,0.09
21:00:55.148,-0.615,0.085
21:00:55.152,-0.635,0.085
21:00:55.156,-0.625,0.075
21:00:55.160,-0.64,0.06
21:00:55.164,-0.655,0.075
21:00:55.168,-0.65,0.05
21:00:55.172,-0.655,0.03
21:00:55.176,-0.655,0.055
21:00:55.180,-0.655,0.04
21:00:55.184,-0.635,0.03
21:00:55.188,-0.625,0.045
21:00:55.192,-0.625,0.04
21:00:55.196,-0.625,0.02
21:00:55.200,-0.625,0.025
21:00:55.204,-0.635,0.025
21:00:55.208,-0.66,0.035
21:00:55.212,-0.65,0.055
21:00:55.216,-0.65,0.055
21:00:55.220,-0.65,0.055
21:00:55.224,-0.635,0.05
21:00:55.228,-0.62,0.045
21:00:55.232,-0.6,0.035
21:00:55.236,-0.6,0.03
21:00:55.240,-0.6,0.03
21:00:55.244,-0.63,0.035
21:00:55.248,-0.605,0.03
21:00:55.252,-0.58,0.035
21:00:55.256,-0.535,0.04
21:00:55.260,-0.52,0.035
21:00:55.264,-0.475,0.025
21:00:55.268,-0.44,0.04
21:00:55.272,-0.45,0.045
21:00:55.276,-0.435,0.045
21:00:55.280,-0.405,0.035
21:00:55.284,-0.385,0.05
21:00:55.288,-0.36,0.05
21:00:55.292,-0.355,0.075
21:00:55.296,-0.325,0.06
21:00:55.300,-0.305,0.075
21:00:55.304,-0.335,0.08
21:00:55.308,-0.38,0.09
21:00:55.312,-0.38,0.09
21:00:55.316,-0.425,0.09
21:00:55.320,-0.42,0.08
21:00:55.324,-0.4,0.065
21:00:55.328,-0.415,0.06
21:00:55.332,-0.39,0.035
21:00:55.336,-0.405,0.005
21:00:55.340,-0.405,0.01
21:00:55.344,-0.45,0.0
21:00:55.348,-0.45,-0.04
21:00:55.352,-0.46,-0.04
21:00:55.356,-0.47,-0.055
21:00:55.360,-0.47,-0.065
21:00:55.364,-0.47,-0.05
21:00:55.368,-0.47,-0.065
21:00:55.372,-0.465,-0.07
21:00:55.376,-0.47,-0.07
21:00:55.380,-0.475,-0.07
21:00:55.384,-0.46,-0.09
21:00:55.388,-0.46,-0.08
21:00:55.392,-0.465,-0.08
21:00:55.396,-0.46,-0.08
21:00:55.400,-0.465,-0.105
21:00:55.404,-0.45,-0.09
21:00:55.408,-0.47,-0.085
21:00:55.412,-0.48,-0.09
21:00:55.416,-0.475,-0.09
21:00:55.420,-0.465,-0.1
21:00:55.424,-0.46,-0.095
21:00:55.428,-0.45,-0.09
21:00:55.432,-0.455,-0.085
21:00:55.436,-0.46,-0.12
21:00:55.440,-0.425,-0.1
21:00:55.444,-0.43,-0.085
21:00:55.448,-0.43,-0.09
21:00:55.452,-0.435,-0.12
21:00:55.456,-0.43,-0.095
21:00:55.460,-0.415,-0.1
21:00:55.464,-0.38,-0.105
21:00:55.468,-0.355,-0.11
21:00:55.472,-0.35,-0.125
21:00:55.476,-0.32,-0.1
21:00:55.480,-0.295,-0.09
21:00:55.484,-0.27,-0.085
21:00:55.488,-0.19,-0.1
21:00:55.492,-0.11,-0.095
21:00:55.496,-0.02,-0.075
21:00:55.500,0.075,-0.095
21:00:55.504,0.18,-0.08
21:00:55.508,0.24,-0.14
21:00:55.512,0.27,-0.175
21:00:55.516,0.295,-0.16
21:00:55.520,0.265,-0.15
21:00:55.524,0.225,-0.185
21:00:55.528,0.29,-0.25
21:00:55.532,0.475,-0.375
21:00:55.536,0.755,-0.585
21:00:55.540,0.96,-0.83
21:00:55.544,0.95,-1.02
21:00:55.548,0.645,-1.065
21:00:55.552,0.16,-0.87
21:00:55.556,-0.21,-0.505
21:00:55.560,-0.375,-0.235
21:00:55.564,-0.44,-0.14
21:00:55.568,-0.47,-0.055
21:00:55.572,-0.49,0.025
21:00:55.576,-0.54,0.04
21:00:55.580,-0.56,0.045
21:00:55.584,-0.59,0.03
21:00:55.588,-0.615,0.03
21:00:55.592,-0.6,0.0
21:00:55.596,-0.585,-0.035
21:00:55.600,-0.615,-0.065
21:00:55.604,-0.625,-0.07
21:00:55.608,-0.63,-0.1
21:00:55.612,-0.66,-0.105
21:00:55.616,-0.63,-0.085
21:00:55.620,-0.65,-0.08
21:00:55.624,-0.645,-0.12
21:00:55.628,-0.64,-0.11
21:00:55.632,-0.61,-0.105
21:00:55.636,-0.64,-0.07
21:00:55.640,-0.665,-0.105
21:00:55.644,-0.66,-0.105
21:00:55.648,-0.655,-0.105
21:00:55.652,-0.67,-0.1
21:00:55.656,-0.655,-0.095
21:00:55.660,-0.63,-0.095
21:00:55.664,-0.61,-0.105
21:00:55.668,-0.625,-0.115
21:00:55.672,-0.605,-0.1
21:00:55.676,-0.6,-0.105
21:00:55.680,-0.59,-0.125
21:00:55.684,-0.6,-0.14
21:00:55.688,-0.59,-0.12
21:00:55.692,-0.575,-0.1
21:00:55.696,-0.58,-0.08
21:00:55.700,-0.575,-0.09
21:00:55.704,-0.545,-0.07
21:00:55.708,-0.505,-0.08
21:00:55.712,-0.5,-0.07
21:00:55.716,-0.465,-0.055
21:00:55.720,-0.46,-0.055
21:00:55.724,-0.44,-0.025
21:00:55.728,-0.45,-0.02
21:00:55.732,-0.465,-0.02
21:00:55.736,-0.48,-0.015
21:00:55.740,-0.505,-0.025
21:00:55.744,-0.545,-0.03
21:00:55.748,-0.57,-0.045
21:00:55.752,-0.58,-0.035
21:00:55.756,-0.595,-0.05
21:00:55.760,-0.59,-0.05
21:00:55.764,-0.595,-0.06
21:00:55.768,-0.585,-0.05
21:00:55.772,-0.575,-0.065
21:00:55.776,-0.555,-0.065
21:00:55.780,-0.535,-0.075
21:00:55.784,-0.52,-0.09
21:00:55.788,-0.485,-0.095
21:00:55.792,-0.455,-0.095
21:00:55.796,-0.455,-0.1
21:00:55.800,-0.445,-0.1
21:00:55.804,-0.43,-0.125
21:00:55.808,-0.44,-0.145
21:00:55.812,-0.44,-0.155
21:00:55.816,-0.44,-0.14
21:00:55.820,-0.435,-0.19
21:00:55.824,-0.43,-0.17
21:00:55.828,-0.435,-0.185
21:00:55.832,-0.43,-0.19
21:00:55.836,-0.425,-0.2
21:00:55.840,-0.435,-0.205
21:00:55.844,-0.43,-0.2
21:00:55.848,-0.445,-0.2
21:00:55.852,-0.435,-0.21
21:00:55.856,-0.425,-0.19
21:00:55.860,-0.42,-0.175
21:00:55.864,-0.415,-0.205
21:00:55.868,-0.405,-0.19
21:00:55.872,-0.4,-0.2
21:00:55.876,-0.39,-0.21
21:00:55.880,-0.385,-0.23
21:00:55.884,-0.365,-0.18
21:00:55.888,-0.35,-0.175
21:00:55.892,-0.365,-0.185
21:00:55.896,-0.35,-0.17
21:00:55.900,-0.37,-0.16
21:00:55.904,-0.34,-0.16
21:00:55.908,-0.34,-0.15
21:00:55.912,-0.325,-0.17
21:00:55.916,-0.315,-0.165
21:00:55.920,-0.28,-0.14
21:00:55.924,-0.275,-0.12
21:00:55.928,-0.28,-0.125
21:00:55.932,-0.275,-0.115
21:00:55.936,-0.275,-0.115
21:00:55.940,-0.275,-0.11
21:00:55.944,-0.29,-0.1
21:00:55.948,-0.295,-0.12
21:00:55.952,-0.335,-0.1
21:00:55.956,-0.355,-0.115
21:00:55.960,-0.415,-0.095
21:00:55.964,-0.435,-0.115
21:00:55.968,-0.47,-0.12
21:00:55.972,-0.45,-0.105
21:00:55.976,-0.415,-0.105
21:00:55.980,-0.35,-0.1
21:00:55.984,-0.28,-0.1
21:00:55.988,-0.195,-0.12
21:00:55.992,-0.12,-0.12
21:00:55.996,-0.055,-0.165
21:00:56.000,-0.005,-0.205
21:00:56.004,0.06,-0.21
21:00:56.008,0.08,-0.235
21:00:56.012,0.075,-0.26
21:00:56.016,0.095,-0.325
21:00:56.020,0.24,-0.43
21:00:56.024,0.525,-0.575
21:00:56.028,0.805,-0.795
21:00:56.032,0.99,-1.025
21:00:56.036,0.835,-1.17
21:00:56.040,0.43,-1.11
21:00:56.044,-0.035,-0.835
21:00:56.048,-0.32,-0.525
21:00:56.052,-0.435,-0.33
21:00:56.056,-0.49,-0.23
21:00:56.060,-0.495,-0.125
21:00:56.064,-0.53,-0.06
21:00:56.068,-0.535,-0.04
21:00:56.072,-0.55,-0.06
21:00:56.076,-0.545,-0.035
21:00:56.080,-0.555,-0.04
21:00:56.084,-0.54,-0.065
21:00:56.088,-0.525,-0.055
21:00:56.092,-0.505,-0.07
21:00:56.096,-0.51,-0.09
21:00:56.100,-0.485,-0.08
21:00:56.104,-0.505,-0.055
21:00:56.108,-0.49,-0.06
21:00:56.112,-0.48,-0.075
21:00:56.116,-0.48,-0.065
21:00:56.120,-0.485,-0.035
21:00:56.124,-0.48,-0.03
21:00:56.128,-0.455,-0.015
21:00:56.132,-0.425,0.0
21:00:56.136,-0.405,0.0
21:00:56.140,-0.41,0.005
21:00:56.144,-0.4,0.01
21:00:56.148,-0.4,0.03
21:00:56.152,-0.4,0.04
21:00:56.156,-0.4,0.025
21:00:56.160,-0.425,0.02
21:00:56.164,-0.445,0.035
21:00:56.168,-0.475,0.02
21:00:56.172,-0.515,0.025
21:00:56.176,-0.545,0.04
21:00:56.180,-0.59,0.03
21:00:56.184,-0.63,0.065
21:00:56.188,-0.625,0.075
21:00:56.192,-0.635,0.085
21:00:56.196,-0.635,0.09
21:00:56.200,-0.65,0.09
21:00:56.204,-0.66,0.08
21:00:56.208,-0.64,0.08
21:00:56.212,-0.63,0.07
21:00:56.216,-0.615,0.07
21:00:56.220,-0.6,0.045
21:00:56.224,-0.59,0.035
21:00:56.228,-0.585,0.02
21:00:56.232,-0.6,0.035
21:00:56.236,-0.575,0.01
21:00:56.240,-0.565,0.03
21:00:56.244,-0.545,0.015
21:00:56.248,-0.545,0.005
21:00:56.252,-0.5,0.01
21:00:56.256,-0.475,-0.005
21:00:56.260,-0.455,-0.015
21:00:56.264,-0.445,-0.015
21:00:56.268,-0.435,-0.04
21:00:56.272,-0.435,-0.085
21:00:56.276,-0.43,-0.1
21:00:56.280,-0.42,-0.09
21:00:56.284,-0.405,-0.105
21:00:56.288,-0.385,-0.125
21:00:56.292,-0.35,-0.125
21:00:56.296,-0.345,-0.13
21:00:56.300,-0.34,-0.135
21:00:56.304,-0.3,-0.125
21:00:56.308,-0.29,-0.145
21:00:56.312,-0.28,-0.14
21:00:56.316,-0.29,-0.15
21:00:56.320,-0.275,-0.125
21:00:56.324,-0.265,-0.125
21:00:56.328,-0.24,-0.12
21:00:56.332,-0.23,-0.12
21:00:56.336,-0.23,-0.105
21:00:56.340,-0.215,-0.11
21:00:56.344,-0.2,-0.065
21:00:56.348,-0.185,-0.06
21:00:56.352,-0.175,-0.06
21:00:56.356,-0.18,-0.03
21:00:56.360,-0.185,-0.025
21:00:56.364,-0.18,-0.04
21:00:56.368,-0.185,-0.035
21:00:56.372,-0.2,-0.01
21:00:56.376,-0.245,-0.03
21:00:56.380,-0.3,-0.025
21:00:56.384,-0.325,-0.03
21:00:56.388,-0.365,-0.005
21:00:56.392,-0.365,-0.015
21:00:56.396,-0.345,-0.01
21:00:56.400,-0.29,-0.015
21:00:56.404,-0.23,-0.01
21:00:56.408,-0.175,-0.005
21:00:56.412,-0.11,-0.05
21:00:56.416,-0.085,-0.08
21:00:56.420,-0.065,-0.125
21:00:56.424,-0.055,-0.175
21:00:56.428,-0.065,-0.145
21:00:56.432,-0.06,-0.215
21:00:56.436,0.03,-0.28
21:00:56.440,0.23,-0.425
21:00:56.444,0.56,-0.6
21:00:56.448,0.83,-0.87
21:00:56.452,0.995,-1.1
21:00:56.456,0.89,-1.27
21:00:56.460,0.51,-1.175
21:00:56.464,0.035,-0.845
21:00:56.468,-0.29,-0.46
21:00:56.472,-0.415,-0.185
21:00:56.476,-0.48,-0.05
21:00:56.480,-0.495,0.015
21:00:56.484,-0.495,0.07
21:00:56.488,-0.515,0.06
21:00:56.492,-0.525,0.06
21:00:56.496,-0.515,0.06
21:00:56.500,-0.53,0.035
21:00:56.504,-0.53,0.01
21:00:56.508,-0.54,0.005
21:00:56.512,-0.53,-0.015
21:00:56.516,-0.52,-0.06
21:00:56.520,-0.51,-0.08
21:00:56.524,-0.51,-0.095
21:00:56.528,-0.515,-0.08
21:00:56.532,-0.47,-0.08
21:00:56.536,-0.46,-0.055
21:00:56.540,-0.45,-0.06
21:00:56.544,-0.45,-0.06
21:00:56.548,-0.455,-0.03
21:00:56.552,-0.425,-0.025
21:00:56.556,-0.42,0.005
21:00:56.560,-0.385,0.0
21:00:56.564,-0.38,-0.005
21:00:56.568,-0.39,0.035
21:00:56.572,-0.38,0.03
21:00:56.576,-0.38,0.05
21:00:56.580,-0.38,0.085
21:00:56.584,-0.38,0.055
21:00:56.588,-0.4,0.07
21:00:56.592,-0.445,0.08
21:00:56.596,-0.48,0.055
21:00:56.600,-0.52,0.08
21:00:56.604,-0.54,0.075
21:00:56.608,-0.565,0.08
21:00:56.612,-0.59,0.075
21:00:56.616,-0.61,0.09
21:00:56.620,-0.61,0.085
21:00:56.624,-0.585,0.065
21:00:56.628,-0.59,0.07
21:00:56.632,-0.595,0.055
21:00:56.636,-0.58,0.04
21:00:56.640,-0.56,0.015
21:00:56.644,-0.56,0.0
21:00:56.648,-0.56,0.0
21:00:56.652,-0.54,0.005
21:00:56.656,-0.54,-0.02
21:00:56.660,-0.53,-0.035
21:00:56.664,-0.505,-0.02
21:00:56.668,-0.495,-0.035
21:00:56.672,-0.465,-0.05
21:00:56.676,-0.425,-0.045
21:00:56.680,-0.435,-0.065
21:00:56.684,-0.42,-0.025
21:00:56.688,-0.41,-0.04
21:00:56.692,-0.41,-0.04
21:00:56.696,-0.4,-0.03
21:00:56.700,-0.4,-0.02
21:00:56.704,-0.37,-0.03
21:00:56.708,-0.35,-0.03
21:00:56.712,-0.335,-0.03
21:00:56.716,-0.325,-0.04
21:00:56.720,-0.32,-0.015
21:00:56.724,-0.315,-0.02
21:00:56.728,-0.295,-0.035
21:00:56.732,-0.285,-0.055
21:00:56.736,-0.275,-0.04
21:00:56.740,-0.28,-0.075
21:00:56.744,-0.285,-0.1
21:00:56.748,-0.28,-0.11
21:00:56.752,-0.29,-0.1
21:00:56.756,-0.295,-0.1
21:00:56.760,-0.295,-0.08
21:00:56.764,-0.29,-0.1
21:00:56.768,-0.29,-0.07
21:00:56.772,-0.285,-0.055
21:00:56.776,-0.295,-0.07
21:00:56.780,-0.255,-0.035
21:00:56.784,-0.26,-0.04
21:00:56.788,-0.25,-0.04
21:00:56.792,-0.24,-0.04
21:00:56.796,-0.23,-0.02
21:00:56.800,-0.25,-0.02
21:00:56.804,-0.28,-0.02
21:00:56.808,-0.305,-0.015
21:00:56.812,-0.345,0.005
21:00:56.816,-0.365,0.01
21:00:56.820,-0.395,0.0
21:00:56.824,-0.405,-0.005
21:00:56.828,-0.43,0.01
21:00:56.832,-0.41,0.0
21:00:56.836,-0.41,0.0
21:00:56.840,-0.43,0.005
21:00:56.844,-0.42,0.0
21:00:56.848,-0.415,0.0
21:00:56.852,-0.415,-0.02
21:00:56.856,-0.395,-0.025
21:00:56.860,-0.42,-0.03
21:00:56.864,-0.43,-0.035
21:00:56.868,-0.425,-0.065
21:00:56.872,-0.425,-0.045
21:00:56.876,-0.44,-0.07
21:00:56.880,-0.42,-0.055
21:00:56.884,-0.43,-0.06
21:00:56.888,-0.43,-0.075
21:00:56.892,-0.43,-0.06
21:00:56.896,-0.42,-0.08
21:00:56.900,-0.41,-0.065
21:00:56.904,-0.41,-0.03
21:00:56.908,-0.415,-0.06
21:00:56.912,-0.43,-0.06
21:00:56.916,-0.425,-0.065
21:00:56.920,-0.43,-0.065
21:00:56.924,-0.425,-0.04
21:00:56.928,-0.425,-0.05
21:00:56.932,-0.425,-0.05
21:00:56.936,-0.445,-0.06
21:00:56.940,-0.43,-0.05
21:00:56.944,-0.41,-0.06
21:00:56.948,-0.395,-0.05
21:00:56.952,-0.41,-0.05
21:00:56.956,-0.39,-0.045
21:00:56.960,-0.39,-0.04
21:00:56.964,-0.35,-0.05
21:00:56.968,-0.34,-0.015
21:00:56.972,-0.315,-0.045
21:00:56.976,-0.285,-0.04
21:00:56.980,-0.285,-0.04
21:00:56.984,-0.265,-0.05
21:00:56.988,-0.28,-0.065
21:00:56.992,-0.27,-0.08
21:00:56.996,-0.24,-0.07
21:00:57.000,-0.25,-0.09
21:00:57.004,-0.24,-0.09
21:00:57.008,-0.235,-0.09
21:00:57.012,-0.23,-0.07
21:00:57.016,-0.265,-0.075
21:00:57.020,-0.29,-0.06
21:00:57.024,-0.29,-0.04
21:00:57.028,-0.33,-0.035
21:00:57.032,-0.34,-0.045
21:00:57.036,-0.35,-0.025
21:00:57.040,-0.36,0.0
21:00:57.044,-0.355,-0.01
21:00:57.048,-0.34,-0.02
21:00:57.052,-0.36,-0.015
21:00:57.056,-0.36,-0.035
21:00:57.060,-0.36,-0.04
21:00:57.064,-0.37,-0.06
21:00:57.068,-0.395,-0.05
21:00:57.072,-0.38,-0.07
21:00:57.076,-0.38,-0.03
21:00:57.080,-0.37,-0.055
21:00:57.084,-0.355,-0.06
21:00:57.088,-0.37,-0.065
21:00:57.092,-0.37,-0.075
21:00:57.096,-0.37,-0.06
21:00:57.100,-0.4,-0.08
21:00:57.104,-0.41,-0.07
21:00:57.108,-0.41,-0.085
21:00:57.112,-0.395,-0.08
21:00:57.116,-0.4,-0.075
21:00:57.120,-0.42,-0.115
21:00:57.124,-0.41,-0.065
21:00:57.128,-0.405,-0.08
21:00:57.132,-0.41,-0.075
21:00:57.136,-0.4,-0.095
21:00:57.140,-0.39,-0.05
21:00:57.144,-0.39,-0.05
21:00:57.148,-0.39,-0.045
21:00:57.152,-0.395,-0.045
21:00:57.156,-0.38,-0.04
21:00:57.160,-0.395,-0.03
21:00:57.164,-0.37,-0.03
21:00:57.168,-0.365,-0.025
21:00:57.172,-0.38,-0.02
21:00:57.176,-0.365,-0.02
21:00:57.180,-0.38,-0.015
21:00:57.184,-0.38,0.0
21:00:57.188,-0.385,0.0
21:00:57.192,-0.385,0.01
21:00:57.196,-0.37,0.025
21:00:57.200,-0.32,0.01
21:00:57.204,-0.285,0.04
21:00:57.208,-0.24,0.03
21:00:57.212,-0.24,0.04
21:00:57.216,-0.23,0.02
21:00:57.220,-0.245,0.0
21:00:57.224,-0.28,0.0
21:00:57.228,-0.3,0.005
21:00:57.232,-0.335,0.0
21:00:57.236,-0.345,-0.015
21:00:57.240,-0.34,0.0
21:00:57.244,-0.345,0.02
21:00:57.248,-0.355,0.01
21:00:57.252,-0.36,0.005
21:00:57.256,-0.35,0.0
21:00:57.260,-0.355,-0.01
21:00:57.264,-0.35,0.015
21:00:57.268,-0.355,-0.01
21:00:57.272,-0.355,-0.02
21:00:57.276,-0.36,-0.015
21:00:57.280,-0.35,-0.02
21:00:57.284,-0.33,-0.04
21:00:57.288,-0.28,-0.02
21:00:57.292,-0.24,-0.04
21:00:57.296,-0.17,-0.05
21:00:57.300,-0.095,-0.05
21:00:57.304,-0.02,-0.065
21:00:57.308,0.005,-0.11
21:00:57.312,0.05,-0.135
21:00:57.316,0.075,-0.18
21:00:57.320,0.085,-0.2
21:00:57.324,0.05,-0.215
21:00:57.328,0.07,-0.305
21:00:57.332,0.22,-0.45
21:00:57.336,0.47,-0.63
21:00:57.340,0.79,-0.89
21:00:57.344,1.02,-1.11
21:00:57.348,1.05,-1.28
21:00:57.352,0.795,-1.28
21:00:57.356,0.345,-1.01
21:00:57.360,-0.04,-0.635
21:00:57.364,-0.26,-0.305
21:00:57.368,-0.355,-0.125
21:00:57.372,-0.405,0.01
21:00:57.376,-0.425,0.075
21:00:57.380,-0.425,0.13
21:00:57.384,-0.42,0.135
21:00:57.388,-0.4,0.135
21:00:57.392,-0.415,0.155
21:00:57.396,-0.43,0.14
21:00:57.400,-0.43,0.145
21:00:57.404,-0.45,0.155
21:00:57.408,-0.44,0.15
21:00:57.412,-0.455,0.155
21:00:57.416,-0.435,0.17
21:00:57.420,-0.445,0.155
21:00:57.424,-0.445,0.135
21:00:57.428,-0.425,0.16
21:00:57.432,-0.44,0.14
21:00:57.436,-0.46,0.11
21:00:57.440,-0.47,0.095
21:00:57.444,-0.475,0.08
21:00:57.448,-0.51,0.095
21:00:57.452,-0.5,0.1
21:00:57.456,-0.51,0.1
21:00:57.460,-0.515,0.075
21:00:57.464,-0.525,0.085
21:00:57.468,-0.53,0.05
21:00:57.472,-0.51,0.06
21:00:57.476,-0.5,0.075
21:00:57.480,-0.5,0.06
21:00:57.484,-0.52,0.075
21:00:57.488,-0.53,0.08
21:00:57.492,-0.535,0.08
21:00:57.496,-0.51,0.095
21:00:57.500,-0.495,0.075
21:00:57.504,-0.495,0.08
21:00:57.508,-0.51,0.085
21:00:57.512,-0.52,0.065
21:00:57.516,-0.51,0.05
21:00:57.520,-0.495,0.035
21:00:57.524,-0.51,0.03
21:00:57.528,-0.5,0.05
21:00:57.532,-0.52,0.035
21:00:57.536,-0.515,0.025
21:00:57.540,-0.515,0.02
21:00:57.544,-0.505,0.045
21:00:57.548,-0.495,0.02
21:00:57.552,-0.475,0.04
21:00:57.556,-0.47,0.015
21:00:57.560,-0.485,0.03
21:00:57.564,-0.495,0.015
21:00:57.568,-0.485,0.015
21:00:57.572,-0.465,0.0
21:00:57.576,-0.46,0.01
21:00:57.580,-0.45,-0.025
21:00:57.584,-0.435,-0.02
21:00:57.588,-0.445,-0.005
21:00:57.592,-0.445,0.0
21:00:57.596,-0.44,-0.01
21:00:57.600,-0.445,-0.01
21:00:57.604,-0.41,0.0
21:00:57.608,-0.425,0.01
21:00:57.612,-0.395,0.05
21:00:57.616,-0.39,0.035
21:00:57.620,-0.375,0.035
21:00:57.624,-0.34,0.035
21:00:57.628,-0.345,0.07
21:00:57.632,-0.33,0.07
21:00:57.636,-0.32,0.075
21:00:57.640,-0.305,0.07
21:00:57.644,-0.3,0.065
21:00:57.648,-0.29,0.065
21:00:57.652,-0.295,0.035
21:00:57.656,-0.315,0.04
21:00:57.660,-0.335,0.065
21:00:57.664,-0.345,0.06
21:00:57.668,-0.375,0.05
21:00:57.672,-0.37,0.05
21:00:57.676,-0.385,0.05
21:00:57.680,-0.385,0.06
21:00:57.684,-0.395,0.05
21:00:57.688,-0.41,0.03
21:00:57.692,-0.395,0.035
21:00:57.696,-0.38,0.055
21:00:57.700,-0.37,0.03
21:00:57.704,-0.355,0.065
21:00:57.708,-0.385,0.06
21:00:57.712,-0.36,0.06
21:00:57.716,-0.36,0.03
21:00:57.720,-0.37,0.045
21:00:57.724,-0.4,0.05
21:00:57.728,-0.39,0.05
21:00:57.732,-0.38,0.03
21:00:57.736,-0.42,0.0
21:00:57.740,-0.41,0.025
21:00:57.744,-0.415,0.025
21:00:57.748,-0.425,0.02
21:00:57.752,-0.43,0.02
21:00:57.756,-0.44,0.02
21:00:57.760,-0.44,0.01
21:00:57.764,-0.46,0.01
21:00:57.768,-0.465,-0.005
21:00:57.772,-0.465,-0.02
21:00:57.776,-0.455,-0.025
21:00:57.780,-0.455,-0.035
21:00:57.784,-0.45,-0.04
21:00:57.788,-0.445,-0.04
21:00:57.792,-0.445,-0.06
21:00:57.796,-0.45,-0.04
21:00:57.800,-0.44,-0.035
21:00:57.804,-0.44,-0.03
21:00:57.808,-0.43,-0.025
21:00:57.812,-0.4,-0.035
21:00:57.816,-0.37,-0.01
21:00:57.820,-0.39,-0.015
21:00:57.824,-0.395,0.0
21:00:57.828,-0.39,-0.025
21:00:57.832,-0.39,-0.015
21:00:57.836,-0.365,-0.005
21:00:57.840,-0.38,0.02
21:00:57.844,-0.36,0.02
21:00:57.848,-0.34,0.035
21:00:57.852,-0.31,0.025
21:00:57.856,-0.305,0.05
21:00:57.860,-0.3,0.035
21:00:57.864,-0.29,0.05
21:00:57.868,-0.3,0.05
21:00:57.872,-0.31,0.05
21:00:57.876,-0.335,0.05
21:00:57.880,-0.325,0.02
21:00:57.884,-0.29,0.02
21:00:57.888,-0.225,-0.01
21:00:57.892,-0.165,-0.01
21:00:57.896,-0.085,-0.04
21:00:57.900,0.0,-0.045
21:00:57.904,0.075,-0.09
21:00:57.908,0.12,-0.16
21:00:57.912,0.18,-0.18
21:00:57.916,0.235,-0.19
21:00:57.920,0.245,-0.2
21:00:57.924,0.275,-0.265
21:00:57.928,0.405,-0.38
21:00:57.932,0.655,-0.55
21:00:57.936,0.935,-0.77
21:00:57.940,1.025,-0.975
21:00:57.944,0.83,-1.105
21:00:57.948,0.43,-1.025
21:00:57.952,0.0,-0.755
21:00:57.956,-0.26,-0.415
21:00:57.960,-0.38,-0.225
21:00:57.964,-0.415,-0.12
21:00:57.968,-0.465,-0.01
21:00:57.972,-0.48,0.05
21:00:57.976,-0.505,0.1
21:00:57.980,-0.54,0.07
21:00:57.984,-0.57,0.06
21:00:57.988,-0.61,0.055
21:00:57.992,-0.58,0.03
21:00:57.996,-0.6,0.025
21:00:58.000,-0.6,0.03
21:00:58.004,-0.615,0.0
21:00:58.008,-0.63,0.0
21:00:58.012,-0.62,-0.005
21:00:58.016,-0.61,0.0
21:00:58.020,-0.62,0.005
21:00:58.024,-0.625,-0.01
21:00:58.028,-0.615,0.0
21:00:58.032,-0.62,-0.025
21:00:58.036,-0.63,0.0
21:00:58.040,-0.625,0.005
21:00:58.044,-0.6,0.0
21:00:58.048,-0.605,0.01
21:00:58.052,-0.615,0.015
21:00:58.056,-0.605,0.005
21:00:58.060,-0.605,0.04
21:00:58.064,-0.59,0.035
21:00:58.068,-0.6,0.05
21:00:58.072,-0.59,0.065
21:00:58.076,-0.59,0.075
21:00:58.080,-0.6,0.065
21:00:58.084,-0.605,0.08
21:00:58.088,-0.62,0.09
21:00:58.092,-0.615,0.095
21:00:58.096,-0.62,0.1
21:00:58.100,-0.66,0.105
21:00:58.104,-0.655,0.105
21:00:58.108,-0.64,0.12
21:00:58.112,-0.615,0.11
21:00:58.116,-0.57,0.11
21:00:58.120,-0.56,0.1
21:00:58.124,-0.54,0.075
21:00:58.128,-0.54,0.065
21:00:58.132,-0.52,0.04
21:00:58.136,-0.51,0.03
21:00:58.140,-0.515,0.0
21:00:58.144,-0.48,0.01
21:00:58.148,-0.47,-0.04
21:00:58.152,-0.45,-0.025
21:00:58.156,-0.425,-0.02
21:00:58.160,-0.43,-0.02
21:00:58.164,-0.4,-0.05
21:00:58.168,-0.4,-0.025
21:00:58.172,-0.4,-0.03
21:00:58.176,-0.385,-0.065
21:00:58.180,-0.38,-0.045
21:00:58.184,-0.39,-0.075
21:00:58.188,-0.355,-0.05
21:00:58.192,-0.355,-0.07
21:00:58.196,-0.375,-0.075
21:00:58.200,-0.385,-0.07
21:00:58.204,-0.39,-0.075
21:00:58.208,-0.39,-0.09
21:00:58.212,-0.375,-0.07
21:00:58.216,-0.375,-0.095
21:00:58.220,-0.37,-0.08
21:00:58.224,-0.35,-0.095
21:00:58.228,-0.35,-0.105
21:00:58.232,-0.36,-0.11
21:00:58.236,-0.375,-0.08
21:00:58.240,-0.38,-0.095
21:00:58.244,-0.355,-0.085
21:00:58.248,-0.385,-0.08
21:00:58.252,-0.395,-0.09
21:00:58.256,-0.365,-0.07
21:00:58.260,-0.39,-0.055
21:00:58.264,-0.39,-0.055
21:00:58.268,-0.395,-0.045
21:00:58.272,-0.385,-0.06
21:00:58.276,-0.405,-0.055
21:00:58.280,-0.395,-0.05
21:00:58.284,-0.395,-0.065
21:00:58.288,-0.36,-0.05
21:00:58.292,-0.36,-0.055
21:00:58.296,-0.365,-0.04
21:00:58.300,-0.36,-0.045
21:00:58.304,-0.34,-0.055
21:00:58.308,-0.33,-0.035
21:00:58.312,-0.335,-0.035
21:00:58.316,-0.34,-0.02
21:00:58.320,-0.355,-0.025
21:00:58.324,-0.38,-0.005
21:00:58.328,-0.39,-0.03
21:00:58.332,-0.4,-0.04
21:00:58.336,-0.4,-0.02
21:00:58.340,-0.4,-0.055
21:00:58.344,-0.4,-0.07
21:00:58.348,-0.395,-0.045
21:00:58.352,-0.395,-0.065
21:00:58.356,-0.37,-0.07
21:00:58.360,-0.35,-0.08
21:00:58.364,-0.335,-0.11
21:00:58.368,-0.285,-0.11
21:00:58.372,-0.275,-0.14
21:00:58.376,-0.27,-0.115
21:00:58.380,-0.24,-0.12
21:00:58.384,-0.25,-0.14
21:00:58.388,-0.27,-0.13
21:00:58.392,-0.27,-0.135
21:00:58.396,-0.27,-0.135
21:00:58.400,-0.27,-0.14
21:00:58.404,-0.285,-0.135
21:00:58.408,-0.29,-0.115
21:00:58.412,-0.3,-0.13
21:00:58.416,-0.325,-0.15
21:00:58.420,-0.305,-0.13
21:00:58.424,-0.35,-0.16
21:00:58.428,-0.34,-0.16
21:00:58.432,-0.37,-0.155
21:00:58.436,-0.355,-0.19
21:00:58.440,-0.36,-0.18
21:00:58.444,-0.37,-0.185
21:00:58.448,-0.37,-0.17
21:00:58.452,-0.355,-0.18
21:00:58.456,-0.345,-0.17
21:00:58.460,-0.34,-0.175
21:00:58.464,-0.33,-0.165
21:00:58.468,-0.305,-0.165
21:00:58.472,-0.25,-0.155
21:00:58.476,-0.195,-0.185
21:00:58.480,-0.095,-0.155
21:00:58.484,-0.015,-0.185
21:00:58.488,0.05,-0.225
21:00:58.492,0.105,-0.255
21:00:58.496,0.15,-0.285
21:00:58.500,0.215,-0.29
21:00:58.504,0.245,-0.32
21:00:58.508,0.255,-0.34
21:00:58.512,0.37,-0.43
21:00:58.516,0.63,-0.555
21:00:58.520,0.91,-0.775
21:00:58.524,1.075,-0.96
21:00:58.528,0.995,-1.12
21:00:58.532,0.615,-1.085
21:00:58.536,0.125,-0.84
21:00:58.540,-0.19,-0.545
21:00:58.544,-0.33,-0.35
21:00:58.548,-0.395,-0.23
21:00:58.552,-0.435,-0.11
21:00:58.556,-0.45,-0.025
21:00:58.560,-0.5,0.005
21:00:58.564,-0.51,0.025
21:00:58.568,-0.525,0.045
21:00:58.572,-0.535,0.035
21:00:58.576,-0.525,-0.03
21:00:58.580,-0.535,-0.05
21:00:58.584,-0.52,-0.075
21:00:58.588,-0.525,-0.095
21:00:58.592,-0.5,-0.105
21:00:58.596,-0.485,-0.095
21:00:58.600,-0.495,-0.095
21:00:58.604,-0.48,-0.075
21:00:58.608,-0.465,-0.075
21:00:58.612,-0.465,-0.07
21:00:58.616,-0.46,-0.07
21:00:58.620,-0.465,-0.05
21:00:58.624,-0.475,-0.06
21:00:58.628,-0.46,-0.06
21:00:58.632,-0.485,-0.06
21:00:58.636,-0.485,-0.05
21:00:58.640,-0.505,-0.05
21:00:58.644,-0.52,-0.05
21:00:58.648,-0.52,-0.045
21:00:58.652,-0.515,-0.055
21:00:58.656,-0.54,-0.055
21:00:58.660,-0.575,-0.055
21:00:58.664,-0.575,-0.055
21:00:58.668,-0.59,-0.055
21:00:58.672,-0.575,-0.035
21:00:58.676,-0.59,-0.035
21:00:58.680,-0.61,-0.01
21:00:58.684,-0.595,-0.035
21:00:58.688,-0.6,-0.035
21:00:58.692,-0.595,-0.005
21:00:58.696,-0.61,-0.005
21:00:58.700,-0.65,0.005
21:00:58.704,-0.625,0.0
21:00:58.708,-0.615,0.02
21:00:58.712,-0.635,0.01
21:00:58.716,-0.625,0.005
21:00:58.720,-0.595,0.005
21:00:58.724,-0.565,0.02
21:00:58.728,-0.55,0.005
21:00:58.732,-0.51,0.005
21:00:58.736,-0.48,0.02
21:00:58.740,-0.49,0.04
21:00:58.744,-0.44,0.01
21:00:58.748,-0.425,0.015
21:00:58.752,-0.415,-0.015
21:00:58.756,-0.415,0.02
21:00:58.760,-0.4,0.0
21:00:58.764,-0.41,0.02
21:00:58.768,-0.385,-0.005
21:00:58.772,-0.36,-0.015
21:00:58.776,-0.385,-0.015
21:00:58.780,-0.37,-0.005
21:00:58.784,-0.355,-0.02
21:00:58.788,-0.33,-0.02
21:00:58.792,-0.34,-0.03
21:00:58.796,-0.31,-0.04
21:00:58.800,-0.315,-0.07
21:00:58.804,-0.305,-0.045
21:00:58.808,-0.29,-0.095
21:00:58.812,-0.265,-0.085
21:00:58.816,-0.255,-0.075
21:00:58.820,-0.245,-0.09
21:00:58.824,-0.25,-0.115
21:00:58.828,-0.275,-0.11
21:00:58.832,-0.27,-0.105
21:00:58.836,-0.275,-0.125
21:00:58.840,-0.27,-0.125
21:00:58.844,-0.28,-0.135
21:00:58.848,-0.295,-0.11
21:00:58.852,-0.31,-0.12
21:00:58.856,-0.335,-0.11
21:00:58.860,-0.32,-0.1
21:00:58.864,-0.34,-0.1
21:00:58.868,-0.33,-0.12
21:00:58.872,-0.32,-0.095
21:00:58.876,-0.32,-0.075
21:00:58.880,-0.34,-0.09
21:00:58.884,-0.33,-0.08
21:00:58.888,-0.345,-0.07
21:00:58.892,-0.335,-0.1
21:00:58.896,-0.375,-0.09
21:00:58.900,-0.36,-0.085
21:00:58.904,-0.38,-0.07
21:00:58.908,-0.375,-0.06
21:00:58.912,-0.395,-0.065
21:00:58.916,-0.38,-0.06
21:00:58.920,-0.4,-0.09
21:00:58.924,-0.395,-0.065
21:00:58.928,-0.395,-0.055
21:00:58.932,-0.405,-0.065
21:00:58.936,-0.41,-0.055
21:00:58.940,-0.4,-0.055
21:00:58.944,-0.38,-0.03
21:00:58.948,-0.375,-0.05
21:00:58.952,-0.36,-0.03
21:00:58.956,-0.335,0.0
21:00:58.960,-0.335,-0.02
21:00:58.964,-0.29,0.0
21:00:58.968,-0.285,0.0
21:00:58.972,-0.28,0.005
21:00:58.976,-0.26,0.01
21:00:58.980,-0.295,0.015
21:00:58.984,-0.275,-0.005
21:00:58.988,-0.285,0.005
21:00:58.992,-0.305,0.015
21:00:58.996,-0.315,0.015
21:00:59.000,-0.31,0.0
21:00:59.004,-0.32,0.005
21:00:59.008,-0.315,0.02
21:00:59.012,-0.32,0.03
21:00:59.016,-0.285,0.015
21:00:59.020,-0.235,0.01
21:00:59.024,-0.16,0.005
21:00:59.028,-0.065,-0.025
21:00:59.032,0.02,-0.03
21:00:59.036,0.075,-0.075
21:00:59.040,0.105,-0.135
21:00:59.044,0.15,-0.165
21:00:59.048,0.16,-0.23
21:00:59.052,0.145,-0.265
21:00:59.056,0.155,-0.32
21:00:59.060,0.215,-0.43
21:00:59.064,0.415,-0.56
21:00:59.068,0.725,-0.785
21:00:59.072,0.975,-1.045
21:00:59.076,1.085,-1.275
21:00:59.080,0.895,-1.39
21:00:59.084,0.445,-1.215
21:00:59.088,-0.005,-0.855
21:00:59.092,-0.28,-0.54
21:00:59.096,-0.4,-0.305
21:00:59.100,-0.43,-0.14
21:00:59.104,-0.45,-0.075
21:00:59.108,-0.47,-0.02
21:00:59.112,-0.495,0.02
21:00:59.116,-0.495,0.055
21:00:59.120,-0.525,0.04
21:00:59.124,-0.54,0.03
21:00:59.128,-0.535,0.05
21:00:59.132,-0.555,0.02
21:00:59.136,-0.565,0.005
21:00:59.140,-0.575,0.015
21:00:59.144,-0.565,0.02
21:00:59.148,-0.57,0.035
21:00:59.152,-0.555,0.035
21:00:59.156,-0.55,0.04
21:00:59.160,-0.525,0.035
21:00:59.164,-0.53,0.035
21:00:59.168,-0.495,0.035
21:00:59.172,-0.49,0.06
21:00:59.176,-0.505,0.065
21:00:59.180,-0.46,0.07
21:00:59.184,-0.455,0.09
21:00:59.188,-0.45,0.11
21:00:59.192,-0.435,0.13
21:00:59.196,-0.43,0.12
21:00:59.200,-0.465,0.125
21:00:59.204,-0.455,0.145
21:00:59.208,-0.505,0.165
21:00:59.212,-0.495,0.14
21:00:59.216,-0.5,0.145
21:00:59.220,-0.5,0.17
21:00:59.224,-0.495,0.16
21:00:59.228,-0.48,0.185
21:00:59.232,-0.48,0.185
21:00:59.236,-0.49,0.18
21:00:59.240,-0.49,0.185
21:00:59.244,-0.5,0.15
21:00:59.248,-0.47,0.135
21:00:59.252,-0.46,0.12
21:00:59.256,-0.46,0.105
21:00:59.260,-0.455,0.07
21:00:59.264,-0.46,0.06
21:00:59.268,-0.45,0.055
21:00:59.272,-0.44,0.055
21:00:59.276,-0.43,0.045
21:00:59.280,-0.43,0.025
21:00:59.284,-0.4,0.025
21:00:59.288,-0.4,0.01
21:00:59.292,-0.4,0.02
21:00:59.296,-0.38,0.01
21:00:59.300,-0.385,0.01
21:00:59.304,-0.34,0.0
21:00:59.308,-0.32,-0.005
21:00:59.312,-0.35,0.0
21:00:59.316,-0.355,0.005
21:00:59.320,-0.32,0.0
21:00:59.324,-0.33,-0.015
21:00:59.328,-0.33,0.005
21:00:59.332,-0.315,0.005
21:00:59.336,-0.345,-0.01
21:00:59.340,-0.355,-0.01
21:00:59.344,-0.355,0.0
21:00:59.348,-0.385,-0.02
21:00:59.352,-0.385,0.0
21:00:59.356,-0.39,-0.015
21:00:59.360,-0.405,-0.025
21:00:59.364,-0.4,-0.025
21:00:59.368,-0.38,-0.01
21:00:59.372,-0.365,-0.01
21:00:59.376,-0.365,-0.025
21:00:59.380,-0.345,0.0
21:00:59.384,-0.32,0.0
21:00:59.388,-0.31,0.01
21:00:59.392,-0.3,0.005
21:00:59.396,-0.305,0.005
21:00:59.400,-0.305,0.015
21:00:59.404,-0.285,0.02
21:00:59.408,-0.3,0.055
21:00:59.412,-0.29,0.04
21:00:59.416,-0.31,0.04
21:00:59.420,-0.315,0.065
21:00:59.424,-0.315,0.08
21:00:59.428,-0.305,0.085
21:00:59.432,-0.32,0.095
21:00:59.436,-0.32,0.085
21:00:59.440,-0.305,0.09
21:00:59.444,-0.29,0.095
21:00:59.448,-0.26,0.11
21:00:59.452,-0.25,0.105
21:00:59.456,-0.255,0.065
21:00:59.460,-0.265,0.07
21:00:59.464,-0.28,0.045
21:00:59.468,-0.28,0.04
21:00:59.472,-0.29,0.02
21:00:59.476,-0.27,-0.02
21:00:59.480,-0.28,-0.005
21:00:59.484,-0.29,-0.01
21:00:59.488,-0.275,-0.04
21:00:59.492,-0.275,-0.04
21:00:59.496,-0.28,-0.04
21:00:59.500,-0.28,-0.035
21:00:59.504,-0.285,-0.02
21:00:59.508,-0.275,-0.015
21:00:59.512,-0.285,-0.01
21:00:59.516,-0.275,-0.015
21:00:59.520,-0.26,0.0
21:00:59.524,-0.26,-0.015
21:00:59.528,-0.245,-0.02
21:00:59.532,-0.235,0.015
21:00:59.536,-0.26,0.015
21:00:59.540,-0.25,0.025
21:00:59.544,-0.26,0.015
21:00:59.548,-0.28,0.005
21:00:59.552,-0.3,0.025
21:00:59.556,-0.3,0.015
21:00:59.560,-0.31,0.0
21:00:59.564,-0.335,0.03
21:00:59.568,-0.355,0.03
21:00:59.572,-0.365,0.015
21:00:59.576,-0.39,0.03
21:00:59.580,-0.385,0.02
21:00:59.584,-0.365,0.01
21:00:59.588,-0.39,0.015
21:00:59.592,-0.345,0.02
21:00:59.596,-0.355,0.015
21:00:59.600,-0.35,0.02
21:00:59.604,-0.34,0.005
21:00:59.608,-0.32,0.0
21:00:59.612,-0.33,0.015
21:00:59.616,-0.33,0.015
21:00:59.620,-0.355,0.01
21:00:59.624,-0.34,0.01
21:00:59.628,-0.385,0.0
21:00:59.632,-0.365,0.0
21:00:59.636,-0.345,0.005
21:00:59.640,-0.345,0.01
21:00:59.644,-0.335,-0.005
21:00:59.648,-0.345,-0.015
21:00:59.652,-0.335,0.005
21:00:59.656,-0.33,-0.005
21:00:59.660,-0.32,-0.01
21:00:59.664,-0.31,0.0
21:00:59.668,-0.29,-0.025
21:00:59.672,-0.285,-0.01
21:00:59.676,-0.275,-0.03
21:00:59.680,-0.265,-0.04
21:00:59.684,-0.255,-0.035
21:00:59.688,-0.26,-0.03
21:00:59.692,-0.27,-0.025
21:00:59.696,-0.31,-0.045
21:00:59.700,-0.33,-0.045
21:00:59.704,-0.345,-0.05
21:00:59.708,-0.335,-0.08
21:00:59.712,-0.365,-0.04
21:00:59.716,-0.36,-0.05
21:00:59.720,-0.345,-0.06
21:00:59.724,-0.34,-0.065
21:00:59.728,-0.35,-0.05
21:00:59.732,-0.345,-0.05
21:00:59.736,-0.335,-0.045
21:00:59.740,-0.315,-0.04
21:00:59.744,-0.315,-0.04
21:00:59.748,-0.315,-0.04
21:00:59.752,-0.32,-0.035
21:00:59.756,-0.325,-0.02
21:00:59.760,-0.325,0.0
21:00:59.764,-0.33,0.0
21:00:59.768,-0.36,-0.005
21:00:59.772,-0.36,0.01
21:00:59.776,-0.355,0.015
21:00:59.780,-0.355,0.02
21:00:59.784,-0.355,0.025
21:00:59.788,-0.365,0.01
21:00:59.792,-0.355,0.03
21:00:59.796,-0.33,0.03
21:00:59.800,-0.32,0.015
21:00:59.804,-0.32,0.01
21:00:59.808,-0.315,0.015
21:00:59.812,-0.29,0.01
21:00:59.816,-0.295,0.005
21:00:59.820,-0.3,-0.025
21:00:59.824,-0.295,-0.02
21:00:59.828,-0.29,0.01
21:00:59.832,-0.305,-0.01
21:00:59.836,-0.31,-0.02
21:00:59.840,-0.335,-0.01
21:00:59.844,-0.33,-0.01
21:00:59.848,-0.345,-0.025
21:00:59.852,-0.35,-0.025
21:00:59.856,-0.345,-0.04
21:00:59.860,-0.3,-0.03
21:00:59.864,-0.205,-0.025
21:00:59.868,-0.13,-0.035
21:00:59.872,-0.01,-0.03
21:00:59.876,0.04,-0.05
21:00:59.880,0.075,-0.08
21:00:59.884,0.11,-0.11
21:00:59.888,0.11,-0.14
21:00:59.892,0.095,-0.16
21:00:59.896,0.11,-0.235
21:00:59.900,0.185,-0.345
21:00:59.904,0.4,-0.5
21:00:59.908,0.685,-0.705
21:00:59.912,0.975,-0.98
21:00:59.916,1.145,-1.19
21:00:59.920,1.045,-1.315
21:00:59.924,0.71,-1.185
21:00:59.928,0.205,-0.875
21:00:59.932,-0.165,-0.48
21:00:59.936,-0.34,-0.205
21:00:59.940,-0.41,-0.075
21:00:59.944,-0.445,0.03
21:00:59.948,-0.495,0.08
21:00:59.952,-0.485,0.11
21:00:59.956,-0.515,0.085
21:00:59.960,-0.5,0.09
21:00:59.964,-0.535,0.1
21:00:59.968,-0.525,0.075
21:00:59.972,-0.525,0.065
21:00:59.976,-0.525,0.06
21:00:59.980,-0.545,0.06
21:00:59.984,-0.51,0.075
21:00:59.988,-0.53,0.09
21:00:59.992,-0.515,0.1
21:00:59.996,-0.52,0.09
21:01:00.000,-0.53,0.105
21:01:00.004,-0.505,0.115
21:01:00.008,-0.5,0.12
21:01:00.012,-0.49,0.14
21:01:00.016,-0.485,0.12
21:01:00.020,-0.495,0.115
21:01:00.024,-0.485,0.13
21:01:00.028,-0.51,0.145
21:01:00.032,-0.505,0.115
21:01:00.036,-0.49,0.15
21:01:00.040,-0.495,0.14
21:01:00.044,-0.53,0.145
21:01:00.048,-0.505,0.13
21:01:00.052,-0.53,0.14
21:01:00.056,-0.535,0.135
21:01:00.060,-0.555,0.125
21:01:00.064,-0.535,0.13
21:01:00.068,-0.545,0.135
21:01:00.072,-0.54,0.15
21:01:00.076,-0.53,0.14
21:01:00.080,-0.53,0.145
21:01:00.084,-0.51,0.135
21:01:00.088,-0.5,0.13
21:01:00.092,-0.49,0.105
21:01:00.096,-0.48,0.105
21:01:00.100,-0.485,0.1
21:01:00.104,-0.475,0.09
21:01:00.108,-0.48,0.08
21:01:00.112,-0.48,0.07
21:01:00.116,-0.44,0.06
21:01:00.120,-0.45,0.07
21:01:00.124,-0.48,0.06
21:01:00.128,-0.46,0.04
21:01:00.132,-0.46,0.035
21:01:00.136,-0.44,0.035
21:01:00.140,-0.475,0.04
21:01:00.144,-0.48,0.01
21:01:00.148,-0.475,0.01
21:01:00.152,-0.505,0.005
21:01:00.156,-0.5,0.015
21:01:00.160,-0.51,-0.005
21:01:00.164,-0.51,-0.015
21:01:00.168,-0.5,-0.02
21:01:00.172,-0.49,-0.04
21:01:00.176,-0.495,-0.035
21:01:00.180,-0.49,-0.045
21:01:00.184,-0.46,-0.035
21:01:00.188,-0.475,-0.005
21:01:00.192,-0.44,-0.02
21:01:00.196,-0.44,0.0
21:01:00.200,-0.415,0.015
21:01:00.204,-0.395,0.02
21:01:00.208,-0.39,0.03
21:01:00.212,-0.36,0.065
21:01:00.216,-0.37,0.06
21:01:00.220,-0.36,0.055
21:01:00.224,-0.32,0.075
21:01:00.228,-0.32,0.115
21:01:00.232,-0.295,0.125
21:01:00.236,-0.3,0.14
21:01:00.240,-0.285,0.145
21:01:00.244,-0.265,0.16
21:01:00.248,-0.24,0.17
21:01:00.252,-0.235,0.17
21:01:00.256,-0.245,0.16
21:01:00.260,-0.27,0.18
21:01:00.264,-0.27,0.175
21:01:00.268,-0.28,0.155
21:01:00.272,-0.29,0.17
21:01:00.276,-0.29,0.15
21:01:00.280,-0.295,0.14
21:01:00.284,-0.29,0.125
21:01:00.288,-0.29,0.125
21:01:00.292,-0.29,0.12
21:01:00.296,-0.305,0.115
21:01:00.300,-0.28,0.1
21:01:00.304,-0.29,0.09
21:01:00.308,-0.285,0.1
21:01:00.312,-0.3,0.075
21:01:00.316,-0.29,0.1
21:01:00.320,-0.29,0.075
21:01:00.324,-0.27,0.055
21:01:00.328,-0.3,0.055
21:01:00.332,-0.3,0.06
21:01:00.336,-0.275,0.07
21:01:00.340,-0.28,0.07
21:01:00.344,-0.285,0.07
21:01:00.348,-0.3,0.065
21:01:00.352,-0.305,0.06
21:01:00.356,-0.32,0.07
21:01:00.360,-0.31,0.06
21:01:00.364,-0.32,0.045
21:01:00.368,-0.3,0.045
21:01:00.372,-0.25,0.035
21:01:00.376,-0.195,0.045
21:01:00.380,-0.14,0.01
21:01:00.384,-0.085,0.015
21:01:00.388,-0.035,-0.04
21:01:00.392,-0.025,-0.08
21:01:00.396,0.005,-0.1
21:01:00.400,0.015,-0.09
21:01:00.404,0.025,-0.12
21:01:00.408,0.055,-0.185
21:01:00.412,0.195,-0.285
21:01:00.416,0.475,-0.435
21:01:00.420,0.785,-0.675
21:01:00.424,0.995,-0.91
21:01:00.428,0.93,-1.1
21:01:00.432,0.59,-1.055
21:01:00.436,0.115,-0.795
21:01:00.440,-0.215,-0.445
21:01:00.444,-0.33,-0.155
21:01:00.448,-0.38,0.02
21:01:00.452,-0.4,0.155
21:01:00.456,-0.385,0.215
21:01:00.460,-0.41,0.255
21:01:00.464,-0.42,0.245
21:01:00.468,-0.435,0.255
21:01:00.472,-0.445,0.235
21:01:00.476,-0.445,0.235
21:01:00.480,-0.46,0.21
21:01:00.484,-0.465,0.195
21:01:00.488,-0.48,0.175
21:01:00.492,-0.465,0.165
21:01:00.496,-0.465,0.18
21:01:00.500,-0.46,0.16
21:01:00.504,-0.465,0.125
21:01:00.508,-0.48,0.12
21:01:00.512,-0.5,0.115
21:01:00.516,-0.505,0.12
21:01:00.520,-0.495,0.095
21:01:00.524,-0.5,0.095
21:01:00.528,-0.485,0.1
21:01:00.532,-0.515,0.09
21:01:00.536,-0.53,0.075
21:01:00.540,-0.515,0.09
21:01:00.544,-0.5,0.08
21:01:00.548,-0.525,0.1
21:01:00.552,-0.525,0.085
21:01:00.556,-0.505,0.105
21:01:00.560,-0.51,0.075
21:01:00.564,-0.54,0.09
21:01:00.568,-0.54,0.115
21:01:00.572,-0.54,0.11
21:01:00.576,-0.53,0.1
21:01:00.580,-0.54,0.095
21:01:00.584,-0.565,0.1
21:01:00.588,-0.57,0.08
21:01:00.592,-0.615,0.085
21:01:00.596,-0.59,0.1
21:01:00.600,-0.6,0.105
21:01:00.604,-0.59,0.11
21:01:00.608,-0.605,0.1
21:01:00.612,-0.585,0.09
21:01:00.616,-0.595,0.085
21:01:00.620,-0.57,0.085
21:01:00.624,-0.55,0.07
21:01:00.628,-0.54,0.09
21:01:00.632,-0.515,0.085
21:01:00.636,-0.495,0.075
21:01:00.640,-0.45,0.09
21:01:00.644,-0.43,0.045
21:01:00.648,-0.41,0.04
21:01:00.652,-0.38,0.05
21:01:00.656,-0.375,0.065
21:01:00.660,-0.35,0.03
21:01:00.664,-0.35,0.045
21:01:00.668,-0.32,0.025
21:01:00.672,-0.28,0.02
21:01:00.676,-0.28,0.035
21:01:00.680,-0.28,0.015
21:01:00.684,-0.275,0.025
21:01:00.688,-0.285,0.0
21:01:00.692,-0.305,0.0
21:01:00.696,-0.31,-0.01
21:01:00.700,-0.305,-0.01
21:01:00.704,-0.29,0.0
21:01:00.708,-0.315,0.0
21:01:00.712,-0.32,-0.02
21:01:00.716,-0.315,0.0
21:01:00.720,-0.3,-0.005
21:01:00.724,-0.315,0.01
21:01:00.728,-0.3,-0.02
21:01:00.732,-0.32,-0.02
21:01:00.736,-0.335,-0.02
21:01:00.740,-0.325,-0.015
21:01:00.744,-0.345,-0.03
21:01:00.748,-0.36,-0.025
21:01:00.752,-0.365,-0.015
21:01:00.756,-0.39,-0.03
21:01:00.760,-0.39,-0.035
21:01:00.764,-0.39,-0.03
21:01:00.768,-0.37,-0.02
21:01:00.772,-0.4,-0.055
21:01:00.776,-0.395,-0.06
21:01:00.780,-0.415,-0.06
21:01:00.784,-0.405,-0.065
21:01:00.788,-0.405,-0.025
21:01:00.792,-0.42,-0.035
21:01:00.796,-0.405,-0.045
21:01:00.800,-0.405,-0.055
21:01:00.804,-0.425,-0.04
21:01:00.808,-0.415,-0.065
21:01:00.812,-0.405,-0.05
21:01:00.816,-0.395,-0.045
21:01:00.820,-0.415,-0.035
21:01:00.824,-0.4,-0.055
21:01:00.828,-0.405,-0.04
21:01:00.832,-0.395,-0.025
21:01:00.836,-0.41,-0.025
21:01:00.840,-0.38,-0.025
21:01:00.844,-0.385,-0.02
21:01:00.848,-0.37,-0.03
21:01:00.852,-0.34,0.0
21:01:00.856,-0.305,-0.015
21:01:00.860,-0.305,-0.03
21:01:00.864,-0.285,-0.02
21:01:00.868,-0.26,0.0
21:01:00.872,-0.25,-0.035
21:01:00.876,-0.255,-0.04
21:01:00.880,-0.245,-0.065
21:01:00.884,-0.235,-0.06
21:01:00.888,-0.25,-0.04
21:01:00.892,-0.245,-0.075
21:01:00.896,-0.235,-0.075
21:01:00.900,-0.24,-0.05
21:01:00.904,-0.24,-0.085
21:01:00.908,-0.25,-0.07
21:01:00.912,-0.28,-0.06
21:01:00.916,-0.28,-0.075
21:01:00.920,-0.275,-0.07
21:01:00.924,-0.245,-0.08
21:01:00.928,-0.165,-0.095
21:01:00.932,-0.135,-0.105
21:01:00.936,-0.075,-0.085
21:01:00.940,0.005,-0.115
21:01:00.944,0.08,-0.14
21:01:00.948,0.135,-0.2
21:01:00.952,0.195,-0.245
21:01:00.956,0.275,-0.28
21:01:00.960,0.315,-0.26
21:01:00.964,0.295,-0.3
21:01:00.968,0.33,-0.365
21:01:00.972,0.475,-0.455
21:01:00.976,0.745,-0.625
21:01:00.980,0.985,-0.85
21:01:00.984,1.03,-1.05
21:01:00.988,0.74,-1.14
21:01:00.992,0.26,-1.02
21:01:00.996,-0.14,-0.7
21:01:01.000,-0.35,-0.435
21:01:01.004,-0.4,-0.27
21:01:01.008,-0.425,-0.155
21:01:01.012,-0.46,-0.065
21:01:01.016,-0.49,-0.015
21:01:01.020,-0.525,0.035
21:01:01.024,-0.565,0.02
21:01:01.028,-0.56,0.01
21:01:01.032,-0.555,0.0
21:01:01.036,-0.54,-0.025
21:01:01.040,-0.535,-0.035
21:01:01.044,-0.525,-0.03
21:01:01.048,-0.5,-0.03
21:01:01.052,-0.515,-0.01
21:01:01.056,-0.5,-0.01
21:01:01.060,-0.49,-0.015
21:01:01.064,-0.49,0.0
21:01:01.068,-0.485,0.0
21:01:01.072,-0.485,0.015
21:01:01.076,-0.475,0.005
21:01:01.080,-0.475,0.01
21:01:01.084,-0.49,0.025
21:01:01.088,-0.48,0.02
21:01:01.092,-0.47,0.03
21:01:01.096,-0.445,0.025
21:01:01.100,-0.45,0.025
21:01:01.104,-0.465,-0.025
21:01:01.108,-0.465,-0.02
21:01:01.112,-0.475,-0.035
21:01:01.116,-0.485,-0.025
21:01:01.120,-0.49,-0.045
21:01:01.124,-0.465,-0.03
21:01:01.128,-0.47,-0.045
21:01:01.132,-0.48,-0.03
21:01:01.136,-0.48,-0.03
21:01:01.140,-0.49,-0.01
21:01:01.144,-0.49,-0.025
21:01:01.148,-0.505,-0.05
21:01:01.152,-0.505,-0.035
21:01:01.156,-0.52,-0.03
21:01:01.160,-0.515,-0.055
21:01:01.164,-0.515,-0.035
21:01:01.168,-0.515,-0.045
21:01:01.172,-0.52,-0.055
21:01:01.176,-0.52,-0.065
21:01:01.180,-0.515,-0.045
21:01:01.184,-0.545,-0.06
21:01:01.188,-0.54,-0.06
21:01:01.192,-0.545,-0.08
21:01:01.196,-0.53,-0.075
21:01:01.200,-0.52,-0.11
21:01:01.204,-0.53,-0.11
21:01:01.208,-0.52,-0.12
21:01:01.212,-0.51,-0.11
21:01:01.216,-0.495,-0.105
21:01:01.220,-0.49,-0.125
21:01:01.224,-0.465,-0.11
21:01:01.228,-0.465,-0.13
21:01:01.232,-0.445,-0.115
21:01:01.236,-0.44,-0.115
21:01:01.240,-0.43,-0.135
21:01:01.244,-0.41,-0.13
21:01:01.248,-0.41,-0.1
21:01:01.252,-0.37,-0.1
21:01:01.256,-0.385,-0.085
21:01:01.260,-0.355,-0.075
21:01:01.264,-0.34,-0.08
21:01:01.268,-0.32,-0.075
21:01:01.272,-0.265,-0.065
21:01:01.276,-0.24,-0.08
21:01:01.280,-0.205,-0.05
21:01:01.284,-0.2,-0.015
21:01:01.288,-0.2,-0.015
21:01:01.292,-0.195,0.005
21:01:01.296,-0.19,0.005
21:01:01.300,-0.17,0.025
21:01:01.304,-0.145,0.065
21:01:01.308,-0.14,0.04
21:01:01.312,-0.15,0.045
21:01:01.316,-0.155,0.025
21:01:01.320,-0.19,0.02
21:01:01.324,-0.19,0.02
21:01:01.328,-0.195,0.01
21:01:01.332,-0.185,-0.025
21:01:01.336,-0.18,-0.045
21:01:01.340,-0.175,-0.035
21:01:01.344,-0.175,-0.045
21:01:01.348,-0.17,-0.04
21:01:01.352,-0.17,-0.06
21:01:01.356,-0.18,-0.025
21:01:01.360,-0.185,-0.04
21:01:01.364,-0.165,-0.04
21:01:01.368,-0.19,-0.05
21:01:01.372,-0.185,-0.065
21:01:01.376,-0.21,-0.05
21:01:01.380,-0.225,-0.055
21:01:01.384,-0.22,-0.06
21:01:01.388,-0.23,-0.065
21:01:01.392,-0.235,-0.045
21:01:01.396,-0.265,-0.03
21:01:01.400,-0.275,-0.045
21:01:01.404,-0.26,-0.045
21:01:01.408,-0.23,-0.065
21:01:01.412,-0.19,-0.055
21:01:01.416,-0.14,-0.05
21:01:01.420,-0.095,-0.05
21:01:01.424,0.0,-0.08
21:01:01.428,0.065,-0.095
21:01:01.432,0.09,-0.135
21:01:01.436,0.115,-0.16
21:01:01.440,0.145,-0.2
21:01:01.444,0.135,-0.215
21:01:01.448,0.135,-0.255
21:01:01.452,0.205,-0.33
21:01:01.456,0.38,-0.46
21:01:01.460,0.69,-0.645
21:01:01.464,0.955,-0.88
21:01:01.468,1.05,-1.1
21:01:01.472,0.87,-1.175
21:01:01.476,0.425,-1.055
21:01:01.480,-0.02,-0.695
21:01:01.484,-0.27,-0.395
21:01:01.488,-0.34,-0.195
21:01:01.492,-0.365,-0.04
21:01:01.496,-0.375,0.035
21:01:01.500,-0.335,0.1
21:01:01.504,-0.345,0.11
21:01:01.508,-0.305,0.15
21:01:01.512,-0.25,0.17
21:01:01.516,-0.225,0.155
21:01:01.520,-0.225,0.16
21:01:01.524,-0.24,0.14
21:01:01.528,-0.255,0.13
21:01:01.532,-0.28,0.125
21:01:01.536,-0.285,0.09
21:01:01.540,-0.31,0.07
21:01:01.544,-0.32,0.1
21:01:01.548,-0.335,0.09
21:01:01.552,-0.34,0.105
21:01:01.556,-0.345,0.085
21:01:01.560,-0.33,0.095
21:01:01.564,-0.335,0.085
21:01:01.568,-0.34,0.095
21:01:01.572,-0.345,0.085
21:01:01.576,-0.365,0.08
21:01:01.580,-0.365,0.08
21:01:01.584,-0.36,0.105
21:01:01.588,-0.355,0.09
21:01:01.592,-0.385,0.095
21:01:01.596,-0.38,0.095
21:01:01.600,-0.395,0.105
21:01:01.604,-0.385,0.1
21:01:01.608,-0.4,0.1
21:01:01.612,-0.4,0.105
21:01:01.616,-0.42,0.09
21:01:01.620,-0.445,0.09
21:01:01.624,-0.46,0.11
21:01:01.628,-0.465,0.09
21:01:01.632,-0.465,0.1
21:01:01.636,-0.44,0.075
21:01:01.640,-0.48,0.07
21:01:01.644,-0.47,0.075
21:01:01.648,-0.495,0.08
21:01:01.652,-0.49,0.065
21:01:01.656,-0.515,0.07
21:01:01.660,-0.525,0.055
21:01:01.664,-0.5,0.045
21:01:01.668,-0.515,0.055
21:01:01.672,-0.49,0.055
21:01:01.676,-0.485,0.05
21:01:01.680,-0.475,0.03
21:01:01.684,-0.45,0.015
21:01:01.688,-0.445,0.02
21:01:01.692,-0.425,0.035
21:01:01.696,-0.405,0.005
21:01:01.700,-0.37,0.005
21:01:01.704,-0.36,0.005
21:01:01.708,-0.345,0.03
21:01:01.712,-0.325,0.01
21:01:01.716,-0.285,0.0
21:01:01.720,-0.25,0.025
21:01:01.724,-0.225,0.035
21:01:01.728,-0.175,0.04
21:01:01.732,-0.15,0.03
21:01:01.736,-0.14,0.03
21:01:01.740,-0.145,0.02
21:01:01.744,-0.125,0.025
21:01:01.748,-0.14,0.005
21:01:01.752,-0.155,0.01
21:01:01.756,-0.17,0.025
21:01:01.760,-0.18,0.03
21:01:01.764,-0.185,0.035
21:01:01.768,-0.17,0.005
21:01:01.772,-0.195,0.015
21:01:01.776,-0.185,0.005
21:01:01.780,-0.16,0.0
21:01:01.784,-0.185,-0.01
21:01:01.788,-0.2,0.01
21:01:01.792,-0.18,0.005
21:01:01.796,-0.195,0.005
21:01:01.800,-0.19,0.02
21:01:01.804,-0.205,0.02
21:01:01.808,-0.215,0.03
21:01:01.812,-0.22,0.025
21:01:01.816,-0.215,0.025
21:01:01.820,-0.235,0.025
21:01:01.824,-0.245,0.04
21:01:01.828,-0.255,0.025
21:01:01.832,-0.26,0.025
21:01:01.836,-0.26,0.025
21:01:01.840,-0.26,0.0
21:01:01.844,-0.285,0.005
21:01:01.848,-0.31,-0.005
21:01:01.852,-0.315,0.005
21:01:01.856,-0.32,0.02
21:01:01.860,-0.305,0.0
21:01:01.864,-0.315,-0.015
21:01:01.868,-0.315,0.0
21:01:01.872,-0.325,-0.02
21:01:01.876,-0.33,-0.01
21:01:01.880,-0.31,-0.01
21:01:01.884,-0.35,0.03
21:01:01.888,-0.335,0.0
21:01:01.892,-0.34,0.01
21:01:01.896,-0.34,0.015
21:01:01.900,-0.365,0.03
21:01:01.904,-0.335,0.035
21:01:01.908,-0.315,0.035
21:01:01.912,-0.29,0.04
21:01:01.916,-0.275,0.03
21:01:01.920,-0.285,0.035
21:01:01.924,-0.285,0.045
21:01:01.928,-0.28,0.01
21:01:01.932,-0.24,0.035
21:01:01.936,-0.23,0.03
21:01:01.940,-0.2,0.035
21:01:01.944,-0.17,0.04
21:01:01.948,-0.16,0.02
21:01:01.952,-0.16,0.015
21:01:01.956,-0.16,0.01
21:01:01.960,-0.145,-0.02
21:01:01.964,-0.15,0.0
21:01:01.968,-0.175,0.0
21:01:01.972,-0.155,0.015
21:01:01.976,-0.165,0.0
21:01:01.980,-0.175,-0.005
21:01:01.984,-0.15,-0.015
21:01:01.988,-0.17,-0.005
21:01:01.992,-0.185,-0.005
21:01:01.996,-0.185,0.01
21:01:02.000,-0.195,-0.01
21:01:02.004,-0.2,0.0
21:01:02.008,-0.21,0.0
21:01:02.012,-0.195,-0.01
21:01:02.016,-0.205,0.0
21:01:02.020,-0.215,0.0
21:01:02.024,-0.195,0.0
21:01:02.028,-0.21,-0.005
21:01:02.032,-0.225,0.0
21:01:02.036,-0.2,0.0
21:01:02.040,-0.24,0.0
21:01:02.044,-0.22,0.0
21:01:02.048,-0.235,-0.005
21:01:02.052,-0.25,0.005
21:01:02.056,-0.255,0.005
21:01:02.060,-0.255,0.02
21:01:02.064,-0.24,0.005
21:01:02.068,-0.25,0.005
21:01:02.072,-0.235,0.005
21:01:02.076,-0.195,0.0
21:01:02.080,-0.125,-0.01
21:01:02.084,-0.05,-0.005
21:01:02.088,0.035,-0.03
21:01:02.092,0.1,-0.06
21:01:02.096,0.115,-0.085
21:01:02.100,0.13,-0.145
21:01:02.104,0.155,-0.135
21:01:02.108,0.15,-0.18
21:01:02.112,0.155,-0.23
21:01:02.116,0.245,-0.32
21:01:02.120,0.465,-0.5
21:01:02.124,0.805,-0.76
21:01:02.128,1.07,-1.0
21:01:02.132,1.16,-1.185
21:01:02.136,0.93,-1.245
21:01:02.140,0.46,-1.045
21:01:02.144,0.05,-0.66
21:01:02.148,-0.18,-0.315
21:01:02.152,-0.28,-0.135
21:01:02.156,-0.315,-0.005
21:01:02.160,-0.32,0.07
21:01:02.164,-0.32,0.105
21:01:02.168,-0.32,0.15
21:01:02.172,-0.33,0.155
21:01:02.176,-0.34,0.15
21:01:02.180,-0.375,0.15
21:01:02.184,-0.375,0.16
21:01:02.188,-0.395,0.13
21:01:02.192,-0.395,0.155
21:01:02.196,-0.38,0.17
21:01:02.200,-0.37,0.145
21:01:02.204,-0.38,0.145
21:01:02.208,-0.37,0.16
21:01:02.212,-0.37,0.14
21:01:02.216,-0.38,0.115
21:01:02.220,-0.375,0.125
21:01:02.224,-0.39,0.12
21:01:02.228,-0.385,0.12
21:01:02.232,-0.4,0.14
21:01:02.236,-0.415,0.115
21:01:02.240,-0.4,0.13
21:01:02.244,-0.395,0.145
21:01:02.248,-0.42,0.15
21:01:02.252,-0.42,0.13
21:01:02.256,-0.44,0.165
21:01:02.260,-0.45,0.14
21:01:02.264,-0.475,0.165
21:01:02.268,-0.48,0.155
21:01:02.272,-0.48,0.14
21:01:02.276,-0.505,0.17
21:01:02.280,-0.505,0.155
21:01:02.284,-0.5,0.15
21:01:02.288,-0.505,0.145
21:01:02.292,-0.495,0.16
21:01:02.296,-0.485,0.15
21:01:02.300,-0.515,0.165
21:01:02.304,-0.515,0.165
21:01:02.308,-0.5,0.135
21:01:02.312,-0.47,0.14
21:01:02.316,-0.47,0.155
21:01:02.320,-0.41,0.16
21:01:02.324,-0.4,0.18
21:01:02.328,-0.38,0.18
21:01:02.332,-0.37,0.195
21:01:02.336,-0.375,0.185
21:01:02.340,-0.37,0.185
21:01:02.344,-0.365,0.155
21:01:02.348,-0.35,0.13
21:01:02.352,-0.34,0.13
21:01:02.356,-0.335,0.105
21:01:02.360,-0.32,0.095
21:01:02.364,-0.33,0.09
21:01:02.368,-0.31,0.06
21:01:02.372,-0.285,0.035
21:01:02.376,-0.27,0.03
21:01:02.380,-0.26,0.04
21:01:02.384,-0.245,0.045
21:01:02.388,-0.215,0.045
21:01:02.392,-0.22,0.05
21:01:02.396,-0.21,0.045
21:01:02.400,-0.205,0.06
21:01:02.404,-0.2,0.06
21:01:02.408,-0.195,0.05
21:01:02.412,-0.195,0.065
21:01:02.416,-0.205,0.065
21:01:02.420,-0.18,0.065
21:01:02.424,-0.21,0.085
21:01:02.428,-0.21,0.085
21:01:02.432,-0.23,0.085
21:01:02.436,-0.21,0.07
21:01:02.440,-0.22,0.095
21:01:02.444,-0.24,0.09
21:01:02.448,-0.23,0.105
21:01:02.452,-0.225,0.1
21:01:02.456,-0.23,0.085
21:01:02.460,-0.245,0.095
21:01:02.464,-0.265,0.105
21:01:02.468,-0.26,0.105
21:01:02.472,-0.255,0.11
21:01:02.476,-0.275,0.09
21:01:02.480,-0.28,0.075
21:01:02.484,-0.295,0.08
21:01:02.488,-0.29,0.075
21:01:02.492,-0.315,0.075
21:01:02.496,-0.32,0.075
21:01:02.500,-0.325,0.085
21:01:02.504,-0.31,0.105
21:01:02.508,-0.3,0.09
21:01:02.512,-0.295,0.08
21:01:02.516,-0.275,0.085
21:01:02.520,-0.25,0.1
21:01:02.524,-0.26,0.075
21:01:02.528,-0.27,0.07
21:01:02.532,-0.25,0.075
21:01:02.536,-0.24,0.035
21:01:02.540,-0.24,0.06
21:01:02.544,-0.24,0.05
21:01:02.548,-0.25,0.05
21:01:02.552,-0.25,0.04
21:01:02.556,-0.25,0.04
21:01:02.560,-0.25,0.04
21:01:02.564,-0.225,0.045
21:01:02.568,-0.25,0.035
21:01:02.572,-0.24,0.045
21:01:02.576,-0.21,0.045
21:01:02.580,-0.21,0.04
21:01:02.584,-0.19,0.055
21:01:02.588,-0.18,0.04
21:01:02.592,-0.16,0.05
21:01:02.596,-0.19,0.06
21:01:02.600,-0.18,0.055
21:01:02.604,-0.185,0.055
21:01:02.608,-0.18,0.07
21:01:02.612,-0.18,0.085
21:01:02.616,-0.17,0.08
21:01:02.620,-0.185,0.07
21:01:02.624,-0.195,0.07
21:01:02.628,-0.18,0.07
21:01:02.632,-0.19,0.08
21:01:02.636,-0.22,0.06
21:01:02.640,-0.235,0.045
21:01:02.644,-0.23,0.045
21:01:02.648,-0.225,0.06
21:01:02.652,-0.21,0.075
21:01:02.656,-0.21,0.075
21:01:02.660,-0.18,0.06
21:01:02.664,-0.12,0.045
21:01:02.668,-0.025,0.04
21:01:02.672,0.025,0.035
21:01:02.676,0.07,0.02
21:01:02.680,0.105,0.005
21:01:02.684,0.095,-0.03
21:01:02.688,0.105,-0.075
21:01:02.692,0.135,-0.095
21:01:02.696,0.13,-0.135
21:01:02.700,0.2,-0.25
21:01:02.704,0.39,-0.375
21:01:02.708,0.69,-0.58
21:01:02.712,0.965,-0.825
21:01:02.716,1.11,-1.07
21:01:02.720,0.965,-1.165
21:01:02.724,0.555,-1.07
21:01:02.728,0.1,-0.72
21:01:02.732,-0.2,-0.385
21:01:02.736,-0.32,-0.13
21:01:02.740,-0.37,-0.02
21:01:02.744,-0.4,0.07
21:01:02.748,-0.39,0.12
21:01:02.752,-0.43,0.15
21:01:02.756,-0.435,0.165
21:01:02.760,-0.425,0.185
21:01:02.764,-0.445,0.18
21:01:02.768,-0.44,0.135
21:01:02.772,-0.44,0.115
21:01:02.776,-0.46,0.13
21:01:02.780,-0.455,0.125
21:01:02.784,-0.44,0.125
21:01:02.788,-0.445,0.13
21:01:02.792,-0.46,0.145
21:01:02.796,-0.47,0.16
21:01:02.800,-0.48,0.15
21:01:02.804,-0.45,0.145
21:01:02.808,-0.455,0.145
21:01:02.812,-0.455,0.165
21:01:02.816,-0.45,0.155
21:01:02.820,-0.465,0.14
21:01:02.824,-0.46,0.185
21:01:02.828,-0.47,0.175
21:01:02.832,-0.465,0.165
21:01:02.836,-0.455,0.17
21:01:02.840,-0.445,0.195
21:01:02.844,-0.455,0.185
21:01:02.848,-0.445,0.205
21:01:02.852,-0.475,0.22
21:01:02.856,-0.475,0.215
21:01:02.860,-0.495,0.205
21:01:02.864,-0.475,0.215
21:01:02.868,-0.475,0.23
21:01:02.872,-0.475,0.215
21:01:02.876,-0.475,0.23
21:01:02.880,-0.49,0.205
21:01:02.884,-0.47,0.22
21:01:02.888,-0.48,0.205
21:01:02.892,-0.48,0.195
21:01:02.896,-0.49,0.195
21:01:02.900,-0.51,0.16
21:01:02.904,-0.51,0.175
21:01:02.908,-0.5,0.155
21:01:02.912,-0.51,0.165
21:01:02.916,-0.52,0.17
21:01:02.920,-0.485,0.155
21:01:02.924,-0.48,0.175
21:01:02.928,-0.46,0.165
21:01:02.932,-0.46,0.155
21:01:02.936,-0.46,0.125
21:01:02.940,-0.48,0.11
21:01:02.944,-0.455,0.14
21:01:02.948,-0.445,0.13
21:01:02.952,-0.44,0.14
21:01:02.956,-0.45,0.13
21:01:02.960,-0.43,0.115
21:01:02.964,-0.405,0.1
21:01:02.968,-0.415,0.08
21:01:02.972,-0.415,0.075
21:01:02.976,-0.395,0.07
21:01:02.980,-0.385,0.075
21:01:02.984,-0.355,0.08
21:01:02.988,-0.355,0.08
21:01:02.992,-0.34,0.07
21:01:02.996,-0.335,0.075
21:01:03.000,-0.325,0.08
21:01:03.004,-0.34,0.085
21:01:03.008,-0.335,0.1
21:01:03.012,-0.34,0.105
21:01:03.016,-0.325,0.12
21:01:03.020,-0.305,0.105
21:01:03.024,-0.335,0.11
21:01:03.028,-0.305,0.115
21:01:03.032,-0.29,0.095
21:01:03.036,-0.255,0.115
21:01:03.040,-0.265,0.09
21:01:03.044,-0.25,0.11
21:01:03.048,-0.255,0.095
21:01:03.052,-0.25,0.095
21:01:03.056,-0.24,0.12
21:01:03.060,-0.235,0.12
21:01:03.064,-0.23,0.09
21:01:03.068,-0.26,0.075
21:01:03.072,-0.265,0.065
21:01:03.076,-0.26,0.075
21:01:03.080,-0.255,0.095
21:01:03.084,-0.265,0.07
21:01:03.088,-0.29,0.075
21:01:03.092,-0.31,0.065
21:01:03.096,-0.305,0.075
21:01:03.100,-0.32,0.1
21:01:03.104,-0.305,0.08
21:01:03.108,-0.305,0.06
21:01:03.112,-0.315,0.045
21:01:03.116,-0.325,0.06
21:01:03.120,-0.335,0.05
21:01:03.124,-0.34,0.04
21:01:03.128,-0.325,0.055
21:01:03.132,-0.325,0.065
21:01:03.136,-0.33,0.07
21:01:03.140,-0.325,0.055
21:01:03.144,-0.305,0.075
21:01:03.148,-0.3,0.06
21:01:03.152,-0.29,0.065
21:01:03.156,-0.29,0.07
21:01:03.160,-0.28,0.065
21:01:03.164,-0.25,0.055
21:01:03.168,-0.21,0.065
21:01:03.172,-0.14,0.08
21:01:03.176,-0.095,0.065
21:01:03.180,0.0,0.05
21:01:03.184,0.075,0.02
21:01:03.188,0.105,-0.025
21:01:03.192,0.18,-0.085
21:01:03.196,0.24,-0.04
21:01:03.200,0.26,-0.08
21:01:03.204,0.24,-0.125
21:01:03.208,0.305,-0.21
21:01:03.212,0.5,-0.355
21:01:03.216,0.785,-0.535
21:01:03.220,1.02,-0.775
21:01:03.224,1.06,-0.98
21:01:03.228,0.8,-1.055
21:01:03.232,0.33,-0.865
21:01:03.236,-0.07,-0.54
21:01:03.240,-0.295,-0.275
21:01:03.244,-0.36,-0.12
21:01:03.248,-0.38,-0.005
21:01:03.252,-0.4,0.06
21:01:03.256,-0.39,0.125
21:01:03.260,-0.4,0.135
21:01:03.264,-0.405,0.145
21:01:03.268,-0.425,0.135
21:01:03.272,-0.41,0.095
21:01:03.276,-0.425,0.105
21:01:03.280,-0.42,0.095
21:01:03.284,-0.42,0.09
21:01:03.288,-0.41,0.095
21:01:03.292,-0.42,0.115
21:01:03.296,-0.425,0.1
21:01:03.300,-0.435,0.11
21:01:03.304,-0.415,0.12
21:01:03.308,-0.41,0.13
21:01:03.312,-0.43,0.145
21:01:03.316,-0.44,0.145
21:01:03.320,-0.45,0.14
21:01:03.324,-0.445,0.125
21:01:03.328,-0.445,0.11
21:01:03.332,-0.46,0.11
21:01:03.336,-0.445,0.11
21:01:03.340,-0.46,0.075
21:01:03.344,-0.47,0.075
21:01:03.348,-0.49,0.075
21:01:03.352,-0.5,0.065
21:01:03.356,-0.525,0.065
21:01:03.360,-0.515,0.065
21:01:03.364,-0.51,0.085
21:01:03.368,-0.5,0.07
21:01:03.372,-0.49,0.075
21:01:03.376,-0.455,0.085
21:01:03.380,-0.47,0.08
21:01:03.384,-0.455,0.075
21:01:03.388,-0.46,0.07
21:01:03.392,-0.47,0.085
21:01:03.396,-0.465,0.095
21:01:03.400,-0.445,0.065
21:01:03.404,-0.455,0.055
21:01:03.408,-0.435,0.085
21:01:03.412,-0.425,0.075
21:01:03.416,-0.39,0.07
21:01:03.420,-0.395,0.055
21:01:03.424,-0.395,0.055
21:01:03.428,-0.37,0.055
21:01:03.432,-0.37,0.045
21:01:03.436,-0.345,0.045
21:01:03.440,-0.355,0.025
21:01:03.444,-0.32,0.04
21:01:03.448,-0.325,0.035
21:01:03.452,-0.335,0.0
21:01:03.456,-0.305,-0.015
21:01:03.460,-0.285,-0.02
21:01:03.464,-0.28,-0.03
21:01:03.468,-0.275,-0.035
21:01:03.472,-0.24,-0.055
21:01:03.476,-0.245,-0.045
21:01:03.480,-0.24,-0.05
21:01:03.484,-0.245,-0.055
21:01:03.488,-0.24,-0.045
21:01:03.492,-0.23,-0.04
21:01:03.496,-0.26,-0.035
21:01:03.500,-0.26,-0.03
21:01:03.504,-0.265,-0.025
21:01:03.508,-0.27,-0.025
21:01:03.512,-0.28,-0.01
21:01:03.516,-0.3,-0.02
21:01:03.520,-0.295,0.0
21:01:03.524,-0.32,-0.015
21:01:03.528,-0.325,-0.01
21:01:03.532,-0.335,0.005
21:01:03.536,-0.35,0.0
21:01:03.540,-0.365,-0.015
21:01:03.544,-0.37,-0.02
21:01:03.548,-0.35,-0.065
21:01:03.552,-0.33,-0.025
21:01:03.556,-0.32,-0.01
21:01:03.560,-0.32,-0.01
21:01:03.564,-0.29,0.0
21:01:03.568,-0.295,0.0
21:01:03.572,-0.295,-0.005
21:01:03.576,-0.28,-0.035
21:01:03.580,-0.29,-0.035
21:01:03.584,-0.26,-0.045
21:01:03.588,-0.255,-0.06
21:01:03.592,-0.245,-0.08
21:01:03.596,-0.245,-0.06
21:01:03.600,-0.225,-0.065
21:01:03.604,-0.22,-0.07
21:01:03.608,-0.23,-0.04
21:01:03.612,-0.21,-0.045
21:01:03.616,-0.23,-0.045
21:01:03.620,-0.23,-0.05
21:01:03.624,-0.215,-0.03
21:01:03.628,-0.215,-0.04
21:01:03.632,-0.21,-0.015
21:01:03.636,-0.2,-0.02
21:01:03.640,-0.22,-0.04
21:01:03.644,-0.205,-0.02
21:01:03.648,-0.23,-0.025
21:01:03.652,-0.215,-0.025
21:01:03.656,-0.225,-0.04
21:01:03.660,-0.215,-0.02
21:01:03.664,-0.18,-0.045
21:01:03.668,-0.11,-0.055
21:01:03.672,-0.06,-0.035
21:01:03.676,0.02,-0.065
21:01:03.680,0.11,-0.07
21:01:03.684,0.18,-0.1
21:01:03.688,0.25,-0.14
21:01:03.692,0.295,-0.14
21:01:03.696,0.35,-0.2
21:01:03.700,0.34,-0.205
21:01:03.704,0.35,-0.245
21:01:03.708,0.465,-0.33
21:01:03.712,0.705,-0.465
21:01:03.716,1.02,-0.705
21:01:03.720,1.21,-0.9
21:01:03.724,1.195,-1.055
21:01:03.728,0.875,-1.065
21:01:03.732,0.385,-0.82
21:01:03.736,0.01,-0.47
21:01:03.740,-0.145,-0.225
21:01:03.744,-0.25,-0.09
21:01:03.748,-0.275,0.025
21:01:03.752,-0.335,0.105
21:01:03.756,-0.375,0.14
21:01:03.760,-0.41,0.165
21:01:03.764,-0.41,0.18
21:01:03.768,-0.42,0.17
21:01:03.772,-0.435,0.165
21:01:03.776,-0.43,0.175
21:01:03.780,-0.45,0.15
21:01:03.784,-0.45,0.155
21:01:03.788,-0.465,0.13
21:01:03.792,-0.475,0.125
21:01:03.796,-0.48,0.105
21:01:03.800,-0.485,0.09
21:01:03.804,-0.445,0.08
21:01:03.808,-0.465,0.075
21:01:03.812,-0.445,0.095
21:01:03.816,-0.455,0.095
21:01:03.820,-0.455,0.09
21:01:03.824,-0.445,0.1
21:01:03.828,-0.445,0.105
21:01:03.832,-0.44,0.095
21:01:03.836,-0.45,0.075
21:01:03.840,-0.45,0.12
21:01:03.844,-0.45,0.115
21:01:03.848,-0.47,0.105
21:01:03.852,-0.475,0.12
21:01:03.856,-0.495,0.135
21:01:03.860,-0.48,0.12
21:01:03.864,-0.475,0.12
21:01:03.868,-0.48,0.13
21:01:03.872,-0.495,0.13
21:01:03.876,-0.5,0.115
21:01:03.880,-0.49,0.13
21:01:03.884,-0.49,0.135
21:01:03.888,-0.49,0.13
21:01:03.892,-0.495,0.1
21:01:03.896,-0.485,0.09
21:01:03.900,-0.47,0.1
21:01:03.904,-0.46,0.09
21:01:03.908,-0.465,0.11
21:01:03.912,-0.455,0.09
21:01:03.916,-0.42,0.095
21:01:03.920,-0.41,0.075
21:01:03.924,-0.4,0.08
21:01:03.928,-0.385,0.07
21:01:03.932,-0.375,0.075
21:01:03.936,-0.33,0.075
21:01:03.940,-0.3,0.06
21:01:03.944,-0.295,0.07
21:01:03.948,-0.235,0.055
21:01:03.952,-0.215,0.055
21:01:03.956,-0.19,0.045
21:01:03.960,-0.175,0.04
21:01:03.964,-0.16,0.05
21:01:03.968,-0.175,0.045
21:01:03.972,-0.185,0.06
21:01:03.976,-0.19,0.07
21:01:03.980,-0.18,0.065
21:01:03.984,-0.235,0.095
21:01:03.988,-0.24,0.08
21:01:03.992,-0.26,0.08
21:01:03.996,-0.23,0.075
21:01:04.000,-0.235,0.075
21:01:04.004,-0.225,0.07
21:01:04.008,-0.205,0.08
21:01:04.012,-0.19,0.075
21:01:04.016,-0.185,0.07
21:01:04.020,-0.165,0.075
21:01:04.024,-0.17,0.09
21:01:04.028,-0.17,0.075
21:01:04.032,-0.18,0.065
21:01:04.036,-0.195,0.075
21:01:04.040,-0.2,0.07
21:01:04.044,-0.225,0.07
21:01:04.048,-0.21,0.07
21:01:04.052,-0.24,0.055
21:01:04.056,-0.24,0.06
21:01:04.060,-0.265,0.06
21:01:04.064,-0.275,0.06
21:01:04.068,-0.275,0.075
21:01:04.072,-0.295,0.065
21:01:04.076,-0.27,0.05
21:01:04.080,-0.295,0.055
21:01:04.084,-0.295,0.045
21:01:04.088,-0.3,0.05
21:01:04.092,-0.29,0.03
21:01:04.096,-0.315,0.03
21:01:04.100,-0.29,0.02
21:01:04.104,-0.305,0.02
21:01:04.108,-0.3,0.015
21:01:04.112,-0.305,0.03
21:01:04.116,-0.3,0.01
21:01:04.120,-0.285,0.01
21:01:04.124,-0.3,0.015
21:01:04.128,-0.285,0.0
21:01:04.132,-0.275,0.025
21:01:04.136,-0.275,0.015
21:01:04.140,-0.25,0.015
21:01:04.144,-0.255,0.025
21:01:04.148,-0.255,0.02
21:01:04.152,-0.245,0.03
21:01:04.156,-0.245,0.025
21:01:04.160,-0.23,0.01
21:01:04.164,-0.185,0.03
21:01:04.168,-0.195,0.03
21:01:04.172,-0.155,0.03
21:01:04.176,-0.155,0.04
21:01:04.180,-0.165,0.06
21:01:04.184,-0.15,0.055
21:01:04.188,-0.145,0.07
21:01:04.192,-0.175,0.075
21:01:04.196,-0.18,0.085
21:01:04.200,-0.175,0.105
21:01:04.204,-0.185,0.105
21:01:04.208,-0.19,0.105
21:01:04.212,-0.195,0.115
21:01:04.216,-0.185,0.125
21:01:04.220,-0.145,0.13
21:01:04.224,-0.08,0.135
21:01:04.228,-0.01,0.135
21:01:04.232,0.07,0.105
21:01:04.236,0.18,0.105
21:01:04.240,0.235,0.06
21:01:04.244,0.23,0.03
21:01:04.248,0.23,-0.005
21:01:04.252,0.25,-0.045
21:01:04.256,0.255,-0.075
21:01:04.260,0.24,-0.165
21:01:04.264,0.33,-0.295
21:01:04.268,0.595,-0.46
21:01:04.272,0.915,-0.72
21:01:04.276,1.15,-0.98
21:01:04.280,1.18,-1.175
21:01:04.284,0.915,-1.19
21:01:04.288,0.435,-0.94
21:01:04.292,0.01,-0.54
21:01:04.296,-0.22,-0.21
21:01:04.300,-0.31,-0.05
21:01:04.304,-0.355,0.06
21:01:04.308,-0.345,0.115
21:01:04.312,-0.365,0.175
21:01:04.316,-0.395,0.21
21:01:04.320,-0.405,0.205
21:01:04.324,-0.43,0.18
21:01:04.328,-0.445,0.165
21:01:04.332,-0.43,0.17
21:01:04.336,-0.435,0.14
21:01:04.340,-0.43,0.13
21:01:04.344,-0.395,0.125
21:01:04.348,-0.405,0.125
21:01:04.352,-0.41,0.135
21:01:04.356,-0.415,0.13
21:01:04.360,-0.395,0.145
21:01:04.364,-0.375,0.15
21:01:04.368,-0.415,0.16
21:01:04.372,-0.395,0.145
21:01:04.376,-0.39,0.135
21:01:04.380,-0.4,0.155
21:01:04.384,-0.395,0.155
21:01:04.388,-0.365,0.17
21:01:04.392,-0.38,0.17
21:01:04.396,-0.385,0.18
21:01:04.400,-0.37,0.185
21:01:04.404,-0.345,0.215
21:01:04.408,-0.365,0.235
21:01:04.412,-0.37,0.24
21:01:04.416,-0.39,0.245
21:01:04.420,-0.395,0.26
21:01:04.424,-0.37,0.24
21:01:04.428,-0.36,0.245
21:01:04.432,-0.355,0.27
21:01:04.436,-0.36,0.235
21:01:04.440,-0.35,0.25
21:01:04.444,-0.365,0.27
21:01:04.448,-0.355,0.25
21:01:04.452,-0.375,0.24
21:01:04.456,-0.385,0.24
21:01:04.460,-0.38,0.24
21:01:04.464,-0.385,0.22
21:01:04.468,-0.38,0.215
21:01:04.472,-0.39,0.215
21:01:04.476,-0.375,0.19
21:01:04.480,-0.375,0.185
21:01:04.484,-0.365,0.18
21:01:04.488,-0.355,0.155
21:01:04.492,-0.34,0.17
21:01:04.496,-0.325,0.155
21:01:04.500,-0.32,0.14
21:01:04.504,-0.3,0.14
21:01:04.508,-0.305,0.135
21:01:04.512,-0.29,0.11
21:01:04.516,-0.275,0.09
21:01:04.520,-0.255,0.07
21:01:04.524,-0.27,0.075
21:01:04.528,-0.245,0.06
21:01:04.532,-0.26,0.055
21:01:04.536,-0.225,0.045
21:01:04.540,-0.225,0.06
21:01:04.544,-0.22,0.06
21:01:04.548,-0.24,0.035
21:01:04.552,-0.215,0.045
21:01:04.556,-0.205,0.065
21:01:04.560,-0.235,0.06
21:01:04.564,-0.225,0.045
21:01:04.568,-0.205,0.04
21:01:04.572,-0.21,0.045
21:01:04.576,-0.225,0.075
21:01:04.580,-0.22,0.075
21:01:04.584,-0.195,0.055
21:01:04.588,-0.2,0.07
21:01:04.592,-0.21,0.09
21:01:04.596,-0.195,0.085
21:01:04.600,-0.19,0.11
21:01:04.604,-0.185,0.1
21:01:04.608,-0.175,0.12
21:01:04.612,-0.16,0.145
21:01:04.616,-0.17,0.155
21:01:04.620,-0.17,0.16
21:01:04.624,-0.145,0.18
21:01:04.628,-0.13,0.205
21:01:04.632,-0.1,0.185
21:01:04.636,-0.1,0.2
21:01:04.640,-0.1,0.175
21:01:04.644,-0.11,0.16
21:01:04.648,-0.125,0.16
21:01:04.652,-0.15,0.155
21:01:04.656,-0.17,0.17
21:01:04.660,-0.18,0.175
21:01:04.664,-0.195,0.17
21:01:04.668,-0.19,0.165
21:01:04.672,-0.21,0.155
21:01:04.676,-0.215,0.135
21:01:04.680,-0.225,0.135
21:01:04.684,-0.2,0.135
21:01:04.688,-0.21,0.13
21:01:04.692,-0.225,0.115
21:01:04.696,-0.225,0.1
21:01:04.700,-0.225,0.115
21:01:04.704,-0.23,0.09
21:01:04.708,-0.235,0.085
21:01:04.712,-0.215,0.075
21:01:04.716,-0.205,0.065
21:01:04.720,-0.215,0.055
21:01:04.724,-0.225,0.07
21:01:04.728,-0.22,0.055
21:01:04.732,-0.225,0.065
21:01:04.736,-0.25,0.07
21:01:04.740,-0.23,0.065
21:01:04.744,-0.22,0.07
21:01:04.748,-0.225,0.045
21:01:04.752,-0.215,0.06
21:01:04.756,-0.16,0.05
21:01:04.760,-0.1,0.045
21:01:04.764,-0.025,0.035
21:01:04.768,0.035,0.025
21:01:04.772,0.08,0.005
21:01:04.776,0.11,-0.05
21:01:04.780,0.115,-0.09
21:01:04.784,0.15,-0.095
21:01:04.788,0.14,-0.145
21:01:04.792,0.135,-0.2
21:01:04.796,0.2,-0.295
21:01:04.800,0.415,-0.455
21:01:04.804,0.71,-0.675
21:01:04.808,0.995,-0.92
21:01:04.812,1.1,-1.105
21:01:04.816,0.96,-1.2
21:01:04.820,0.53,-1.055
21:01:04.824,0.06,-0.675
21:01:04.828,-0.18,-0.31
21:01:04.832,-0.265,-0.12
21:01:04.836,-0.295,0.01
21:01:04.840,-0.27,0.085
21:01:04.844,-0.265,0.135
21:01:04.848,-0.265,0.17
21:01:04.852,-0.28,0.185
21:01:04.856,-0.29,0.2
21:01:04.860,-0.31,0.18
21:01:04.864,-0.3,0.18
21:01:04.868,-0.32,0.2
21:01:04.872,-0.34,0.19
21:01:04.876,-0.37,0.215
21:01:04.880,-0.4,0.195
21:01:04.884,-0.415,0.23
21:01:04.888,-0.42,0.21
21:01:04.892,-0.42,0.22
21:01:04.896,-0.405,0.23
21:01:04.900,-0.405,0.21
21:01:04.904,-0.39,0.2
21:01:04.908,-0.38,0.17
21:01:04.912,-0.4,0.17
21:01:04.916,-0.38,0.19
21:01:04.920,-0.385,0.165
21:01:04.924,-0.395,0.155
21:01:04.928,-0.395,0.17
21:01:04.932,-0.395,0.175
21:01:04.936,-0.395,0.17
21:01:04.940,-0.385,0.17
21:01:04.944,-0.395,0.175
21:01:04.948,-0.375,0.185
21:01:04.952,-0.4,0.155
21:01:04.956,-0.4,0.16
21:01:04.960,-0.425,0.165
21:01:04.964,-0.43,0.165
21:01:04.968,-0.435,0.16
21:01:04.972,-0.445,0.165
21:01:04.976,-0.455,0.18
21:01:04.980,-0.445,0.17
21:01:04.984,-0.445,0.165
21:01:04.988,-0.43,0.15
21:01:04.992,-0.44,0.145
21:01:04.996,-0.43,0.15
21:01:05.000,-0.455,0.13
21:01:05.004,-0.44,0.13
21:01:05.008,-0.4,0.13
21:01:05.012,-0.42,0.1
21:01:05.016,-0.41,0.09
21:01:05.020,-0.39,0.04
21:01:05.024,-0.39,0.035
21:01:05.028,-0.39,0.03
21:01:05.032,-0.38,0.025
21:01:05.036,-0.39,0.005
21:01:05.040,-0.355,0.005
21:01:05.044,-0.315,0.005
21:01:05.048,-0.285,0.015
21:01:05.052,-0.24,0.03
21:01:05.056,-0.205,0.025
21:01:05.060,-0.16,0.06
21:01:05.064,-0.14,0.09
21:01:05.068,-0.145,0.13
21:01:05.072,-0.135,0.155
21:01:05.076,-0.13,0.185
21:01:05.080,-0.15,0.205
21:01:05.084,-0.16,0.205
21:01:05.088,-0.155,0.22
21:01:05.092,-0.18,0.235
21:01:05.096,-0.195,0.285
21:01:05.100,-0.195,0.275
21:01:05.104,-0.24,0.27
21:01:05.108,-0.24,0.27
21:01:05.112,-0.275,0.27
21:01:05.116,-0.265,0.265
21:01:05.120,-0.265,0.275
21:01:05.124,-0.255,0.25
21:01:05.128,-0.24,0.265
21:01:05.132,-0.255,0.235
21:01:05.136,-0.245,0.235
21:01:05.140,-0.25,0.215
21:01:05.144,-0.245,0.225
21:01:05.148,-0.25,0.23
21:01:05.152,-0.265,0.22
21:01:05.156,-0.28,0.215
21:01:05.160,-0.27,0.2
21:01:05.164,-0.27,0.215
21:01:05.168,-0.26,0.21
21:01:05.172,-0.27,0.19
21:01:05.176,-0.26,0.175
21:01:05.180,-0.29,0.175
21:01:05.184,-0.275,0.17
21:01:05.188,-0.275,0.165
21:01:05.192,-0.27,0.15
21:01:05.196,-0.275,0.145
21:01:05.200,-0.29,0.145
21:01:05.204,-0.285,0.135
21:01:05.208,-0.29,0.12
21:01:05.212,-0.29,0.1
21:01:05.216,-0.28,0.105
21:01:05.220,-0.3,0.1
21:01:05.224,-0.325,0.09
21:01:05.228,-0.32,0.095
21:01:05.232,-0.345,0.065
21:01:05.236,-0.32,0.065
21:01:05.240,-0.31,0.04
21:01:05.244,-0.295,0.055
21:01:05.248,-0.27,0.035
21:01:05.252,-0.28,0.06
21:01:05.256,-0.28,0.08
21:01:05.260,-0.28,0.08
21:01:05.264,-0.295,0.09
21:01:05.268,-0.285,0.12
21:01:05.272,-0.305,0.105
21:01:05.276,-0.285,0.12
21:01:05.280,-0.265,0.13
21:01:05.284,-0.225,0.135
21:01:05.288,-0.23,0.17
21:01:05.292,-0.21,0.18
21:01:05.296,-0.205,0.175
21:01:05.300,-0.19,0.18
21:01:05.304,-0.18,0.185
21:01:05.308,-0.18,0.205
21:01:05.312,-0.205,0.195
21:01:05.316,-0.155,0.22
21:01:05.320,-0.125,0.21
21:01:05.324,-0.065,0.21
21:01:05.328,0.0,0.195
21:01:05.332,0.07,0.175
21:01:05.336,0.125,0.14
21:01:05.340,0.175,0.11
21:01:05.344,0.225,0.065
21:01:05.348,0.29,0.075
21:01:05.352,0.305,0.07
21:01:05.356,0.28,0.03
21:01:05.360,0.32,-0.04
21:01:05.364,0.47,-0.17
21:01:05.368,0.725,-0.355
21:01:05.372,1.02,-0.585
21:01:05.376,1.135,-0.82
21:01:05.380,0.955,-0.945
21:01:05.384,0.53,-0.845
21:01:05.388,0.095,-0.525
21:01:05.392,-0.175,-0.215
21:01:05.396,-0.26,-0.01
21:01:05.400,-0.305,0.105
21:01:05.404,-0.305,0.2
21:01:05.408,-0.34,0.255
21:01:05.412,-0.34,0.28
21:01:05.416,-0.365,0.25
21:01:05.420,-0.395,0.27
21:01:05.424,-0.4,0.25
21:01:05.428,-0.41,0.225
21:01:05.432,-0.4,0.21
21:01:05.436,-0.43,0.2
21:01:05.440,-0.435,0.205
21:01:05.444,-0.43,0.19
21:01:05.448,-0.46,0.18
21:01:05.452,-0.505,0.19
21:01:05.456,-0.49,0.18
21:01:05.460,-0.515,0.195
21:01:05.464,-0.5,0.185
21:01:05.468,-0.505,0.16
21:01:05.472,-0.525,0.17
21:01:05.476,-0.5,0.145
21:01:05.480,-0.505,0.125
21:01:05.484,-0.495,0.115
21:01:05.488,-0.46,0.115
21:01:05.492,-0.455,0.125
21:01:05.496,-0.465,0.145
21:01:05.500,-0.48,0.15
21:01:05.504,-0.475,0.175
21:01:05.508,-0.475,0.15
21:01:05.512,-0.46,0.185
21:01:05.516,-0.45,0.17
21:01:05.520,-0.445,0.185
21:01:05.524,-0.41,0.185
21:01:05.528,-0.425,0.215
21:01:05.532,-0.415,0.215
21:01:05.536,-0.425,0.235
21:01:05.540,-0.425,0.265
21:01:05.544,-0.41,0.235
21:01:05.548,-0.405,0.23
21:01:05.552,-0.425,0.24
21:01:05.556,-0.415,0.225
21:01:05.560,-0.425,0.21
21:01:05.564,-0.435,0.21
21:01:05.568,-0.44,0.215
21:01:05.572,-0.435,0.21
21:01:05.576,-0.43,0.215
21:01:05.580,-0.44,0.215
21:01:05.584,-0.425,0.185
21:01:05.588,-0.405,0.17
21:01:05.592,-0.39,0.14
21:01:05.596,-0.37,0.155
21:01:05.600,-0.37,0.135
21:01:05.604,-0.335,0.115
21:01:05.608,-0.3,0.105
21:01:05.612,-0.28,0.11
21:01:05.616,-0.31,0.09
21:01:05.620,-0.3,0.075
21:01:05.624,-0.285,0.07
21:01:05.628,-0.25,0.06
21:01:05.632,-0.26,0.07
21:01:05.636,-0.26,0.06
21:01:05.640,-0.27,0.055
21:01:05.644,-0.27,0.05
21:01:05.648,-0.24,0.055
21:01:05.652,-0.235,0.04
21:01:05.656,-0.235,0.03
21:01:05.660,-0.25,0.02
21:01:05.664,-0.215,0.05
21:01:05.668,-0.22,0.045
21:01:05.672,-0.255,0.03
21:01:05.676,-0.26,0.045
21:01:05.680,-0.27,0.04
21:01:05.684,-0.275,0.035
21:01:05.688,-0.29,0.03
21:01:05.692,-0.275,0.01
21:01:05.696,-0.275,-0.01
21:01:05.700,-0.27,0.005
21:01:05.704,-0.245,-0.005
21:01:05.708,-0.255,0.0
21:01:05.712,-0.26,0.0
21:01:05.716,-0.24,0.02
21:01:05.720,-0.25,0.015
21:01:05.724,-0.26,0.005
21:01:05.728,-0.255,0.03
21:01:05.732,-0.26,0.035
21:01:05.736,-0.245,0.02
21:01:05.740,-0.235,0.045
21:01:05.744,-0.22,0.06
21:01:05.748,-0.21,0.055
21:01:05.752,-0.22,0.065
21:01:05.756,-0.22,0.07
21:01:05.760,-0.26,0.075
21:01:05.764,-0.28,0.085
21:01:05.768,-0.29,0.045
21:01:05.772,-0.31,0.035
21:01:05.776,-0.3,0.025
21:01:05.780,-0.305,0.07
21:01:05.784,-0.295,0.06
21:01:05.788,-0.29,0.035
21:01:05.792,-0.295,0.02
21:01:05.796,-0.285,0.005
21:01:05.800,-0.285,0.01
21:01:05.804,-0.275,0.005
21:01:05.808,-0.26,0.01
21:01:05.812,-0.29,0.0
21:01:05.816,-0.31,-0.03
21:01:05.820,-0.3,-0.03
21:01:05.824,-0.31,0.0
21:01:05.828,-0.315,-0.03
21:01:05.832,-0.32,-0.03
21:01:05.836,-0.29,-0.02
21:01:05.840,-0.275,-0.02
21:01:05.844,-0.26,-0.045
21:01:05.848,-0.28,-0.035
21:01:05.852,-0.28,-0.05
21:01:05.856,-0.245,-0.015
21:01:05.860,-0.255,-0.025
21:01:05.864,-0.29,-0.025
21:01:05.868,-0.26,-0.045
21:01:05.872,-0.265,-0.025
21:01:05.876,-0.28,-0.005
21:01:05.880,-0.31,-0.015
21:01:05.884,-0.295,-0.01
21:01:05.888,-0.295,-0.015
21:01:05.892,-0.31,-0.03
21:01:05.896,-0.31,-0.03
21:01:05.900,-0.345,-0.04
21:01:05.904,-0.335,-0.015
21:01:05.908,-0.32,-0.025
21:01:05.912,-0.28,-0.03
21:01:05.916,-0.26,-0.01
21:01:05.920,-0.24,-0.05
21:01:05.924,-0.22,-0.04
21:01:05.928,-0.215,-0.07
21:01:05.932,-0.215,-0.095
21:01:05.936,-0.21,-0.095
21:01:05.940,-0.195,-0.1
21:01:05.944,-0.125,-0.1
21:01:05.948,-0.05,-0.095
21:01:05.952,0.06,-0.08
21:01:05.956,0.185,-0.07
21:01:05.960,0.26,-0.105
21:01:05.964,0.275,-0.13
21:01:05.968,0.315,-0.16
21:01:05.972,0.375,-0.16
21:01:05.976,0.38,-0.155
21:01:05.980,0.38,-0.215
21:01:05.984,0.44,-0.295
21:01:05.988,0.62,-0.41
21:01:05.992,0.9,-0.615
21:01:05.996,1.115,-0.86
21:01:06.000,1.1,-1.035
21:01:06.004,0.81,-1.075
21:01:06.008,0.31,-0.9
21:01:06.012,-0.065,-0.57
21:01:06.016,-0.22,-0.315
21:01:06.020,-0.295,-0.18
21:01:06.024,-0.32,-0.08
21:01:06.028,-0.335,0.005
21:01:06.032,-0.375,0.05
21:01:06.036,-0.395,0.05
21:01:06.040,-0.425,0.05
21:01:06.044,-0.45,0.035
21:01:06.048,-0.44,0.03
21:01:06.052,-0.435,0.015
21:01:06.056,-0.42,0.0
21:01:06.060,-0.425,0.005
21:01:06.064,-0.44,0.02
21:01:06.068,-0.44,0.025
21:01:06.072,-0.46,0.005
21:01:06.076,-0.44,0.04
21:01:06.080,-0.44,0.025
21:01:06.084,-0.47,0.055
21:01:06.088,-0.475,0.04
21:01:06.092,-0.485,0.045
21:01:06.096,-0.465,0.045
21:01:06.100,-0.475,0.07
21:01:06.104,-0.485,0.07
21:01:06.108,-0.465,0.07
21:01:06.112,-0.48,0.09
21:01:06.116,-0.49,0.09
21:01:06.120,-0.48,0.1
21:01:06.124,-0.46,0.1
21:01:06.128,-0.455,0.105
21:01:06.132,-0.425,0.11
21:01:06.136,-0.4,0.115
21:01:06.140,-0.415,0.105
21:01:06.144,-0.415,0.105
21:01:06.148,-0.415,0.1
21:01:06.152,-0.405,0.08
21:01:06.156,-0.4,0.09
21:01:06.160,-0.42,0.085
21:01:06.164,-0.44,0.115
21:01:06.168,-0.455,0.13
21:01:06.172,-0.47,0.125
21:01:06.176,-0.46,0.155
21:01:06.180,-0.45,0.155
21:01:06.184,-0.435,0.135
21:01:06.188,-0.44,0.145
21:01:06.192,-0.41,0.14
21:01:06.196,-0.4,0.115
21:01:06.200,-0.385,0.13
21:01:06.204,-0.38,0.12
21:01:06.208,-0.37,0.14
21:01:06.212,-0.34,0.115
21:01:06.216,-0.325,0.13
21:01:06.220,-0.32,0.095
21:01:06.224,-0.32,0.11
21:01:06.228,-0.305,0.1
21:01:06.232,-0.295,0.085
21:01:06.236,-0.28,0.065
21:01:06.240,-0.26,0.07
21:01:06.244,-0.255,0.045
21:01:06.248,-0.265,0.035
21:01:06.252,-0.24,0.055
21:01:06.256,-0.24,0.055
21:01:06.260,-0.245,0.05
21:01:06.264,-0.23,0.05
21:01:06.268,-0.215,0.04
21:01:06.272,-0.22,0.04
21:01:06.276,-0.23,0.045
21:01:06.280,-0.225,0.04
21:01:06.284,-0.235,0.075
21:01:06.288,-0.245,0.065
21:01:06.292,-0.235,0.055
21:01:06.296,-0.215,0.06
21:01:06.300,-0.22,0.085
21:01:06.304,-0.195,0.07
21:01:06.308,-0.17,0.095
21:01:06.312,-0.175,0.11
21:01:06.316,-0.145,0.115
21:01:06.320,-0.14,0.1
21:01:06.324,-0.125,0.125
21:01:06.328,-0.115,0.125
21:01:06.332,-0.12,0.135
21:01:06.336,-0.125,0.13
21:01:06.340,-0.11,0.1
21:01:06.344,-0.12,0.095
21:01:06.348,-0.135,0.09
21:01:06.352,-0.15,0.08
21:01:06.356,-0.14,0.09
21:01:06.360,-0.14,0.115
21:01:06.364,-0.15,0.095
21:01:06.368,-0.16,0.1
21:01:06.372,-0.18,0.13
21:01:06.376,-0.205,0.13
21:01:06.380,-0.21,0.13
21:01:06.384,-0.235,0.14
21:01:06.388,-0.21,0.15
21:01:06.392,-0.21,0.13
21:01:06.396,-0.23,0.125
21:01:06.400,-0.21,0.115
21:01:06.404,-0.205,0.125
21:01:06.408,-0.19,0.115
21:01:06.412,-0.19,0.11
21:01:06.416,-0.17,0.11
21:01:06.420,-0.165,0.105
21:01:06.424,-0.18,0.11
21:01:06.428,-0.17,0.105
21:01:06.432,-0.155,0.075
21:01:06.436,-0.16,0.095
21:01:06.440,-0.185,0.095
21:01:06.444,-0.165,0.075
21:01:06.448,-0.16,0.09
21:01:06.452,-0.15,0.075
21:01:06.456,-0.155,0.075
21:01:06.460,-0.14,0.075
21:01:06.464,-0.14,0.09
21:01:06.468,-0.105,0.075
21:01:06.472,-0.055,0.065
21:01:06.476,-0.005,0.045
21:01:06.480,0.06,0.06
21:01:06.484,0.115,0.02
21:01:06.488,0.18,-0.005
21:01:06.492,0.21,-0.04
21:01:06.496,0.23,-0.065
21:01:06.500,0.225,-0.055
21:01:06.504,0.245,-0.065
21:01:06.508,0.245,-0.17
21:01:06.512,0.405,-0.3
21:01:06.516,0.7,-0.465
21:01:06.520,1.025,-0.7
21:01:06.524,1.255,-0.935
21:01:06.528,1.245,-1.11
21:01:06.532,0.93,-1.075
21:01:06.536,0.425,-0.785
21:01:06.540,0.055,-0.41
21:01:06.544,-0.12,-0.15
21:01:06.548,-0.195,0.0
21:01:06.552,-0.21,0.1
21:01:06.556,-0.22,0.155
21:01:06.560,-0.21,0.2
21:01:06.564,-0.24,0.22
21:01:06.568,-0.24,0.205
21:01:06.572,-0.26,0.205
21:01:06.576,-0.29,0.225
21:01:06.580,-0.32,0.245
21:01:06.584,-0.34,0.225
21:01:06.588,-0.365,0.225
21:01:06.592,-0.355,0.22
21:01:06.596,-0.355,0.22
21:01:06.600,-0.34,0.195
21:01:06.604,-0.34,0.22
21:01:06.608,-0.36,0.22
21:01:06.612,-0.37,0.215
21:01:06.616,-0.355,0.22
21:01:06.620,-0.355,0.205
21:01:06.624,-0.35,0.215
21:01:06.628,-0.34,0.2
21:01:06.632,-0.33,0.205
21:01:06.636,-0.345,0.235
21:01:06.640,-0.335,0.225
21:01:06.644,-0.32,0.225
21:01:06.648,-0.33,0.22
21:01:06.652,-0.335,0.22
21:01:06.656,-0.315,0.23
21:01:06.660,-0.33,0.24
21:01:06.664,-0.32,0.215
21:01:06.668,-0.35,0.225
21:01:06.672,-0.37,0.2
21:01:06.676,-0.365,0.22
21:01:06.680,-0.38,0.23
21:01:06.684,-0.36,0.225
21:01:06.688,-0.39,0.22
21:01:06.692,-0.395,0.215
21:01:06.696,-0.4,0.23
21:01:06.700,-0.41,0.225
21:01:06.704,-0.385,0.205
21:01:06.708,-0.385,0.21
21:01:06.712,-0.36,0.205
21:01:06.716,-0.36,0.21
21:01:06.720,-0.355,0.195
21:01:06.724,-0.34,0.2
21:01:06.728,-0.33,0.19
21:01:06.732,-0.305,0.2
21:01:06.736,-0.27,0.185
21:01:06.740,-0.235,0.185
21:01:06.744,-0.195,0.175
21:01:06.748,-0.165,0.16
21:01:06.752,-0.15,0.16
21:01:06.756,-0.13,0.14
21:01:06.760,-0.115,0.15
21:01:06.764,-0.115,0.155
21:01:06.768,-0.105,0.13
21:01:06.772,-0.1,0.14
21:01:06.776,-0.1,0.145
21:01:06.780,-0.125,0.145
21:01:06.784,-0.17,0.145
21:01:06.788,-0.2,0.155
21:01:06.792,-0.185,0.175
21:01:06.796,-0.19,0.17
21:01:06.800,-0.2,0.17
21:01:06.804,-0.21,0.175
21:01:06.808,-0.21,0.165
21:01:06.812,-0.215,0.165
21:01:06.816,-0.2,0.145
21:01:06.820,-0.2,0.135
21:01:06.824,-0.2,0.15
21:01:06.828,-0.215,0.1
21:01:06.832,-0.205,0.11
21:01:06.836,-0.2,0.135
21:01:06.840,-0.21,0.125
21:01:06.844,-0.205,0.145
21:01:06.848,-0.195,0.135
21:01:06.852,-0.18,0.13
21:01:06.856,-0.18,0.135
21:01:06.860,-0.18,0.14
21:01:06.864,-0.205,0.14
21:01:06.868,-0.17,0.135
21:01:06.872,-0.165,0.12
21:01:06.876,-0.2,0.125
21:01:06.880,-0.2,0.13
21:01:06.884,-0.185,0.115
21:01:06.888,-0.185,0.125
21:01:06.892,-0.19,0.125
21:01:06.896,-0.22,0.145
21:01:06.900,-0.2,0.12
21:01:06.904,-0.2,0.14
21:01:06.908,-0.215,0.155
21:01:06.912,-0.235,0.15
21:01:06.916,-0.22,0.155
21:01:06.920,-0.23,0.15
21:01:06.924,-0.22,0.145
21:01:06.928,-0.215,0.145
21:01:06.932,-0.21,0.15
21:01:06.936,-0.195,0.15
21:01:06.940,-0.2,0.155
21:01:06.944,-0.19,0.12
21:01:06.948,-0.19,0.11
21:01:06.952,-0.175,0.12
21:01:06.956,-0.17,0.1
21:01:06.960,-0.14,0.09
21:01:06.964,-0.13,0.09
21:01:06.968,-0.13,0.115
21:01:06.972,-0.125,0.1
21:01:06.976,-0.13,0.1
21:01:06.980,-0.13,0.11
21:01:06.984,-0.13,0.115
21:01:06.988,-0.12,0.14
21:01:06.992,-0.15,0.145
21:01:06.996,-0.175,0.155
21:01:07.000,-0.2,0.17
21:01:07.004,-0.215,0.175
21:01:07.008,-0.25,0.175
21:01:07.012,-0.24,0.175
21:01:07.016,-0.245,0.175
21:01:07.020,-0.27,0.18
21:01:07.024,-0.26,0.165
21:01:07.028,-0.245,0.175
21:01:07.032,-0.265,0.16
21:01:07.036,-0.265,0.15
21:01:07.040,-0.255,0.135
21:01:07.044,-0.255,0.145
21:01:07.048,-0.275,0.15
21:01:07.052,-0.26,0.13
21:01:07.056,-0.25,0.13
21:01:07.060,-0.245,0.115
21:01:07.064,-0.245,0.135
21:01:07.068,-0.23,0.145
21:01:07.072,-0.24,0.14
21:01:07.076,-0.235,0.115
21:01:07.080,-0.23,0.11
21:01:07.084,-0.23,0.125
21:01:07.088,-0.205,0.11
21:01:07.092,-0.195,0.135
21:01:07.096,-0.19,0.155
21:01:07.100,-0.16,0.135
21:01:07.104,-0.15,0.115
21:01:07.108,-0.115,0.16
21:01:07.112,-0.13,0.155
21:01:07.116,-0.115,0.15
21:01:07.120,-0.13,0.15
21:01:07.124,-0.12,0.115
21:01:07.128,-0.11,0.095
21:01:07.132,-0.11,0.105
21:01:07.136,-0.115,0.07
21:01:07.140,-0.145,0.06
21:01:07.144,-0.14,0.065
21:01:07.148,-0.15,0.05
21:01:07.152,-0.165,0.06
21:01:07.156,-0.2,0.05
21:01:07.160,-0.205,0.05
21:01:07.164,-0.21,0.07
21:01:07.168,-0.185,0.07
21:01:07.172,-0.19,0.075
21:01:07.176,-0.17,0.05
21:01:07.180,-0.175,0.09
21:01:07.184,-0.15,0.1
21:01:07.188,-0.14,0.1
21:01:07.192,-0.135,0.115
21:01:07.196,-0.15,0.12
21:01:07.200,-0.17,0.125
21:01:07.204,-0.205,0.145
21:01:07.208,-0.215,0.14
21:01:07.212,-0.24,0.175
21:01:07.216,-0.24,0.175
21:01:07.220,-0.26,0.2
21:01:07.224,-0.255,0.175
21:01:07.228,-0.26,0.19
21:01:07.232,-0.25,0.185
21:01:07.236,-0.26,0.19
21:01:07.240,-0.265,0.155
21:01:07.244,-0.26,0.18
21:01:07.248,-0.265,0.17
21:01:07.252,-0.255,0.175
21:01:07.256,-0.25,0.17
21:01:07.260,-0.235,0.175
21:01:07.264,-0.23,0.185
21:01:07.268,-0.265,0.18
21:01:07.272,-0.255,0.19
21:01:07.276,-0.24,0.18
21:01:07.280,-0.24,0.19
21:01:07.284,-0.225,0.17
21:01:07.288,-0.24,0.17
21:01:07.292,-0.22,0.165
21:01:07.296,-0.21,0.165
21:01:07.300,-0.19,0.165
21:01:07.304,-0.17,0.16
21:01:07.308,-0.13,0.15
21:01:07.312,-0.11,0.135
21:01:07.316,-0.07,0.14
21:01:07.320,-0.06,0.09
21:01:07.324,-0.045,0.12
21:01:07.328,-0.06,0.11
21:01:07.332,-0.045,0.115
21:01:07.336,-0.025,0.115
21:01:07.340,0.025,0.105
21:01:07.344,0.095,0.135
21:01:07.348,0.185,0.125
21:01:07.352,0.25,0.125
21:01:07.356,0.31,0.08
21:01:07.360,0.315,0.05
21:01:07.364,0.31,0.025
21:01:07.368,0.315,0.02
21:01:07.372,0.29,-0.005
21:01:07.376,0.28,-0.08
21:01:07.380,0.385,-0.21
21:01:07.384,0.61,-0.375
21:01:07.388,0.92,-0.625
21:01:07.392,1.19,-0.865
21:01:07.396,1.33,-1.085
21:01:07.400,1.16,-1.11
21:01:07.404,0.715,-0.89
21:01:07.408,0.21,-0.52
21:01:07.412,-0.095,-0.155
21:01:07.416,-0.27,0.08
21:01:07.420,-0.35,0.22
21:01:07.424,-0.385,0.295
21:01:07.428,-0.41,0.325
21:01:07.432,-0.42,0.35
21:01:07.436,-0.44,0.36
21:01:07.440,-0.44,0.34
21:01:07.444,-0.445,0.32
21:01:07.448,-0.455,0.335
21:01:07.452,-0.44,0.34
21:01:07.456,-0.445,0.335
21:01:07.460,-0.455,0.355
21:01:07.464,-0.45,0.355
21:01:07.468,-0.46,0.355
21:01:07.472,-0.45,0.36
21:01:07.476,-0.47,0.36
21:01:07.480,-0.46,0.365
21:01:07.484,-0.455,0.395
21:01:07.488,-0.485,0.375
21:01:07.492,-0.455,0.39
21:01:07.496,-0.44,0.37
21:01:07.500,-0.44,0.37
21:01:07.504,-0.435,0.35
21:01:07.508,-0.41,0.33
21:01:07.512,-0.405,0.33
21:01:07.516,-0.405,0.32
21:01:07.520,-0.42,0.32
21:01:07.524,-0.41,0.3
21:01:07.528,-0.415,0.285
21:01:07.532,-0.4,0.285
21:01:07.536,-0.38,0.28
21:01:07.540,-0.39,0.29
21:01:07.544,-0.395,0.28
21:01:07.548,-0.375,0.28
21:01:07.552,-0.36,0.275
21:01:07.556,-0.36,0.3
21:01:07.560,-0.355,0.315
21:01:07.564,-0.345,0.32
21:01:07.568,-0.34,0.325
21:01:07.572,-0.335,0.315
21:01:07.576,-0.33,0.335
21:01:07.580,-0.355,0.34
21:01:07.584,-0.33,0.345
21:01:07.588,-0.32,0.36
21:01:07.592,-0.335,0.35
21:01:07.596,-0.36,0.335
21:01:07.600,-0.365,0.36
21:01:07.604,-0.375,0.36
21:01:07.608,-0.44,0.39
21:01:07.612,-0.435,0.365
21:01:07.616,-0.415,0.35
21:01:07.620,-0.435,0.37
21:01:07.624,-0.43,0.33
21:01:07.628,-0.44,0.335
21:01:07.632,-0.415,0.335
21:01:07.636,-0.42,0.315
21:01:07.640,-0.4,0.275
21:01:07.644,-0.42,0.265
21:01:07.648,-0.4,0.26
21:01:07.652,-0.38,0.27
21:01:07.656,-0.36,0.255
21:01:07.660,-0.33,0.245
21:01:07.664,-0.34,0.235
21:01:07.668,-0.29,0.255
21:01:07.672,-0.275,0.26
21:01:07.676,-0.265,0.235
21:01:07.680,-0.265,0.255
21:01:07.684,-0.235,0.255
21:01:07.688,-0.245,0.255
21:01:07.692,-0.23,0.25
21:01:07.696,-0.22,0.25
21:01:07.700,-0.23,0.255
21:01:07.704,-0.195,0.265
21:01:07.708,-0.205,0.26
21:01:07.712,-0.215,0.285
21:01:07.716,-0.195,0.24
21:01:07.720,-0.215,0.255
21:01:07.724,-0.21,0.265
21:01:07.728,-0.215,0.265
21:01:07.732,-0.225,0.265
21:01:07.736,-0.24,0.3
21:01:07.740,-0.25,0.25
21:01:07.744,-0.245,0.29
21:01:07.748,-0.225,0.26
21:01:07.752,-0.225,0.255
21:01:07.756,-0.19,0.28
21:01:07.760,-0.21,0.27
21:01:07.764,-0.185,0.26
21:01:07.768,-0.17,0.27
21:01:07.772,-0.17,0.28
21:01:07.776,-0.15,0.29
21:01:07.780,-0.12,0.265
21:01:07.784,-0.11,0.28
21:01:07.788,-0.105,0.285
21:01:07.792,-0.115,0.295
21:01:07.796,-0.12,0.3
21:01:07.800,-0.12,0.3
21:01:07.804,-0.15,0.305
21:01:07.808,-0.165,0.27
21:01:07.812,-0.205,0.265
21:01:07.816,-0.215,0.24
21:01:07.820,-0.225,0.225
21:01:07.824,-0.23,0.22
21:01:07.828,-0.25,0.23
21:01:07.832,-0.24,0.22
21:01:07.836,-0.255,0.225
21:01:07.840,-0.24,0.21
21:01:07.844,-0.285,0.21
21:01:07.848,-0.27,0.205
21:01:07.852,-0.28,0.185
21:01:07.856,-0.285,0.175
21:01:07.860,-0.31,0.18
21:01:07.864,-0.31,0.18
21:01:07.868,-0.345,0.18
21:01:07.872,-0.32,0.195
21:01:07.876,-0.31,0.21
21:01:07.880,-0.31,0.185
21:01:07.884,-0.3,0.19
21:01:07.888,-0.275,0.2
21:01:07.892,-0.27,0.21
21:01:07.896,-0.27,0.2
21:01:07.900,-0.24,0.205
21:01:07.904,-0.21,0.21
21:01:07.908,-0.16,0.225
21:01:07.912,-0.07,0.23
21:01:07.916,0.015,0.2
21:01:07.920,0.055,0.18
21:01:07.924,0.105,0.125
21:01:07.928,0.14,0.07
21:01:07.932,0.16,0.06
21:01:07.936,0.19,0.05
21:01:07.940,0.19,0.0
21:01:07.944,0.245,-0.09
21:01:07.948,0.475,-0.275
21:01:07.952,0.775,-0.5
21:01:07.956,1.04,-0.745
21:01:07.960,1.11,-0.945
21:01:07.964,0.865,-0.97
21:01:07.968,0.435,-0.735
21:01:07.972,0.015,-0.37
21:01:07.976,-0.14,-0.065
21:01:07.980,-0.2,0.09
21:01:07.984,-0.2,0.18
21:01:07.988,-0.19,0.27
21:01:07.992,-0.205,0.3
21:01:07.996,-0.2,0.285
21:01:08.000,-0.185,0.3
21:01:08.004,-0.2,0.3
21:01:08.008,-0.2,0.295
21:01:08.012,-0.24,0.29
21:01:08.016,-0.255,0.285
21:01:08.020,-0.3,0.28
21:01:08.024,-0.305,0.3
21:01:08.028,-0.325,0.31
21:01:08.032,-0.34,0.3
21:01:08.036,-0.35,0.3
21:01:08.040,-0.37,0.295
21:01:08.044,-0.37,0.295
21:01:08.048,-0.41,0.28
21:01:08.052,-0.425,0.31
21:01:08.056,-0.43,0.295
21:01:08.060,-0.48,0.3
21:01:08.064,-0.46,0.27
21:01:08.068,-0.49,0.29
21:01:08.072,-0.485,0.28
21:01:08.076,-0.5,0.295
21:01:08.080,-0.49,0.275
21:01:08.084,-0.51,0.31
21:01:08.088,-0.505,0.305
21:01:08.092,-0.505,0.32
21:01:08.096,-0.515,0.315
21:01:08.100,-0.525,0.315
21:01:08.104,-0.54,0.305
21:01:08.108,-0.54,0.34
21:01:08.112,-0.51,0.36
21:01:08.116,-0.505,0.355
21:01:08.120,-0.5,0.365
21:01:08.124,-0.49,0.34
21:01:08.128,-0.48,0.37
21:01:08.132,-0.475,0.38
21:01:08.136,-0.46,0.35
21:01:08.140,-0.47,0.37
21:01:08.144,-0.46,0.355
21:01:08.148,-0.45,0.34
21:01:08.152,-0.44,0.33
21:01:08.156,-0.4,0.315
21:01:08.160,-0.365,0.285
21:01:08.164,-0.34,0.265
21:01:08.168,-0.33,0.24
21:01:08.172,-0.32,0.25
21:01:08.176,-0.305,0.255
21:01:08.180,-0.285,0.245
21:01:08.184,-0.22,0.23
21:01:08.188,-0.22,0.23
21:01:08.192,-0.21,0.205
21:01:08.196,-0.16,0.205
21:01:08.200,-0.145,0.23
21:01:08.204,-0.16,0.24
21:01:08.208,-0.16,0.23
21:01:08.212,-0.165,0.22
21:01:08.216,-0.175,0.235
21:01:08.220,-0.18,0.24
21:01:08.224,-0.17,0.23
21:01:08.228,-0.155,0.24
21:01:08.232,-0.165,0.23
21:01:08.236,-0.15,0.22
21:01:08.240,-0.16,0.24
21:01:08.244,-0.155,0.22
21:01:08.248,-0.18,0.23
21:01:08.252,-0.185,0.25
21:01:08.256,-0.17,0.24
21:01:08.260,-0.17,0.24
21:01:08.264,-0.185,0.235
21:01:08.268,-0.21,0.245
21:01:08.272,-0.23,0.255
21:01:08.276,-0.24,0.24
21:01:08.280,-0.26,0.255
21:01:08.284,-0.275,0.275
21:01:08.288,-0.295,0.255
21:01:08.292,-0.295,0.26
21:01:08.296,-0.305,0.27
21:01:08.300,-0.315,0.24
21:01:08.304,-0.335,0.26
21:01:08.308,-0.32,0.25
21:01:08.312,-0.345,0.27
21:01:08.316,-0.35,0.26
21:01:08.320,-0.335,0.275
21:01:08.324,-0.32,0.265
21:01:08.328,-0.35,0.25
21:01:08.332,-0.34,0.265
21:01:08.336,-0.31,0.275
21:01:08.340,-0.3,0.28
21:01:08.344,-0.265,0.29
21:01:08.348,-0.235,0.28
21:01:08.352,-0.22,0.29
21:01:08.356,-0.21,0.275
21:01:08.360,-0.195,0.285
21:01:08.364,-0.2,0.285
21:01:08.368,-0.18,0.275
21:01:08.372,-0.185,0.25
21:01:08.376,-0.155,0.225
21:01:08.380,-0.165,0.23
21:01:08.384,-0.14,0.21
21:01:08.388,-0.13,0.21
21:01:08.392,-0.1,0.215
21:01:08.396,-0.045,0.205
21:01:08.400,0.03,0.215
21:01:08.404,0.12,0.225
21:01:08.408,0.17,0.21
21:01:08.412,0.205,0.155
21:01:08.416,0.22,0.125
21:01:08.420,0.23,0.105
21:01:08.424,0.245,0.09
21:01:08.428,0.245,0.04
21:01:08.432,0.27,-0.045
21:01:08.436,0.38,-0.13
21:01:08.440,0.61,-0.325
21:01:08.444,0.92,-0.555
21:01:08.448,1.155,-0.795
21:01:08.452,1.155,-0.975
21:01:08.456,0.84,-0.96
21:01:08.460,0.33,-0.7
21:01:08.464,-0.075,-0.31
21:01:08.468,-0.26,-0.03
21:01:08.472,-0.305,0.13
21:01:08.476,-0.345,0.25
21:01:08.480,-0.345,0.325
21:01:08.484,-0.375,0.33
21:01:08.488,-0.4,0.34
21:01:08.492,-0.4,0.355
21:01:08.496,-0.42,0.34
21:01:08.500,-0.42,0.34
21:01:08.504,-0.47,0.325
21:01:08.508,-0.475,0.33
21:01:08.512,-0.495,0.34
21:01:08.516,-0.485,0.325
21:01:08.520,-0.485,0.32
21:01:08.524,-0.505,0.32
21:01:08.528,-0.47,0.31
21:01:08.532,-0.495,0.295
21:01:08.536,-0.495,0.305
21:01:08.540,-0.465,0.325
21:01:08.544,-0.425,0.3
21:01:08.548,-0.435,0.295
21:01:08.552,-0.41,0.295
21:01:08.556,-0.4,0.295
21:01:08.560,-0.385,0.3
21:01:08.564,-0.385,0.31
21:01:08.568,-0.385,0.31
21:01:08.572,-0.355,0.31
21:01:08.576,-0.37,0.315
21:01:08.580,-0.355,0.325
21:01:08.584,-0.36,0.32
21:01:08.588,-0.365,0.315
21:01:08.592,-0.345,0.32
21:01:08.596,-0.34,0.31
21:01:08.600,-0.335,0.325
21:01:08.604,-0.31,0.33
21:01:08.608,-0.36,0.33
21:01:08.612,-0.355,0.305
21:01:08.616,-0.385,0.305
21:01:08.620,-0.39,0.305
21:01:08.624,-0.435,0.31
21:01:08.628,-0.435,0.315
21:01:08.632,-0.42,0.305
21:01:08.636,-0.425,0.3
21:01:08.640,-0.405,0.265
21:01:08.644,-0.395,0.25
21:01:08.648,-0.395,0.265
21:01:08.652,-0.39,0.27
21:01:08.656,-0.39,0.235
21:01:08.660,-0.375,0.24
21:01:08.664,-0.365,0.22
21:01:08.668,-0.36,0.235
21:01:08.672,-0.345,0.235
21:01:08.676,-0.325,0.22
21:01:08.680,-0.335,0.215
21:01:08.684,-0.33,0.19
21:01:08.688,-0.31,0.195
21:01:08.692,-0.305,0.18
21:01:08.696,-0.31,0.205
21:01:08.700,-0.31,0.18
21:01:08.704,-0.32,0.175
21:01:08.708,-0.335,0.165
21:01:08.712,-0.355,0.185
21:01:08.716,-0.34,0.19
21:01:08.720,-0.35,0.19
21:01:08.724,-0.335,0.215
21:01:08.728,-0.365,0.205
21:01:08.732,-0.355,0.195
21:01:08.736,-0.34,0.205
21:01:08.740,-0.35,0.19
21:01:08.744,-0.35,0.19
21:01:08.748,-0.325,0.195
21:01:08.752,-0.31,0.175
21:01:08.756,-0.295,0.185
21:01:08.760,-0.26,0.19
21:01:08.764,-0.25,0.21
21:01:08.768,-0.245,0.18
21:01:08.772,-0.275,0.18
21:01:08.776,-0.28,0.165
21:01:08.780,-0.275,0.145
21:01:08.784,-0.265,0.155
21:01:08.788,-0.245,0.14
21:01:08.792,-0.235,0.14
21:01:08.796,-0.25,0.17
21:01:08.800,-0.23,0.145
21:01:08.804,-0.25,0.135
21:01:08.808,-0.235,0.14
21:01:08.812,-0.24,0.145
21:01:08.816,-0.24,0.16
21:01:08.820,-0.235,0.14
21:01:08.824,-0.28,0.135
21:01:08.828,-0.29,0.125
21:01:08.832,-0.31,0.14
