Time,ECG1,ECG2
21:10:39.708,-0.52,0.175
21:10:39.712,-0.515,0.165
21:10:39.716,-0.535,0.15
21:10:39.720,-0.53,0.145
21:10:39.724,-0.5,0.125
21:10:39.728,-0.515,0.125
21:10:39.732,-0.505,0.115
21:10:39.736,-0.47,0.11
21:10:39.740,-0.47,0.12
21:10:39.744,-0.43,0.1
21:10:39.748,-0.43,0.08
21:10:39.752,-0.425,0.1
21:10:39.756,-0.41,0.1
21:10:39.760,-0.4,0.075
21:10:39.764,-0.385,0.05
21:10:39.768,-0.365,0.075
21:10:39.772,-0.36,0.075
21:10:39.776,-0.35,0.09
21:10:39.780,-0.355,0.075
21:10:39.784,-0.33,0.095
21:10:39.788,-0.29,0.1
21:10:39.792,-0.31,0.095
21:10:39.796,-0.29,0.1
21:10:39.800,-0.3,0.1
21:10:39.804,-0.315,0.12
21:10:39.808,-0.305,0.13
21:10:39.812,-0.305,0.14
21:10:39.816,-0.315,0.135
21:10:39.820,-0.29,0.125
21:10:39.824,-0.28,0.125
21:10:39.828,-0.265,0.125
21:10:39.832,-0.24,0.13
21:10:39.836,-0.23,0.135
21:10:39.840,-0.195,0.13
21:10:39.844,-0.21,0.145
21:10:39.848,-0.16,0.155
21:10:39.852,-0.145,0.16
21:10:39.856,-0.09,0.19
21:10:39.860,-0.02,0.195
21:10:39.864,0.06,0.2
21:10:39.868,0.14,0.21
21:10:39.872,0.17,0.225
21:10:39.876,0.185,0.215
21:10:39.880,0.14,0.18
21:10:39.884,0.085,0.185
21:10:39.888,0.0,0.165
21:10:39.892,-0.06,0.14
21:10:39.896,-0.065,0.05
21:10:39.900,0.11,-0.06
21:10:39.904,0.4,-0.26
21:10:39.908,0.7,-0.56
21:10:39.912,0.875,-0.81
21:10:39.916,0.875,-0.86
21:10:39.920,0.65,-0.695
21:10:39.924,0.215,-0.36
21:10:39.928,-0.145,0.01
21:10:39.932,-0.35,0.2
21:10:39.936,-0.395,0.3
21:10:39.940,-0.415,0.345
21:10:39.944,-0.435,0.34
21:10:39.948,-0.455,0.31
21:10:39.952,-0.48,0.29
21:10:39.956,-0.505,0.255
21:10:39.960,-0.5,0.215
21:10:39.964,-0.48,0.2
21:10:39.968,-0.515,0.175
21:10:39.972,-0.485,0.16
21:10:39.976,-0.49,0.16
21:10:39.980,-0.515,0.145
21:10:39.984,-0.515,0.16
21:10:39.988,-0.535,0.14
21:10:39.992,-0.53,0.15
21:10:39.996,-0.52,0.165
21:10:40.000,-0.54,0.165
21:10:40.004,-0.54,0.165
21:10:40.008,-0.535,0.18
21:10:40.012,-0.56,0.17
21:10:40.016,-0.56,0.165
21:10:40.020,-0.565,0.175
21:10:40.024,-0.56,0.175
21:10:40.028,-0.57,0.19
21:10:40.032,-0.595,0.175
21:10:40.036,-0.575,0.185
21:10:40.040,-0.535,0.19
21:10:40.044,-0.565,0.195
21:10:40.048,-0.545,0.21
21:10:40.052,-0.54,0.2
21:10:40.056,-0.535,0.215
21:10:40.060,-0.52,0.225
21:10:40.064,-0.53,0.235
21:10:40.068,-0.505,0.245
21:10:40.072,-0.485,0.25
21:10:40.076,-0.5,0.27
21:10:40.080,-0.465,0.255
21:10:40.084,-0.44,0.295
21:10:40.088,-0.425,0.29
21:10:40.092,-0.43,0.285
21:10:40.096,-0.44,0.31
21:10:40.100,-0.46,0.315
21:10:40.104,-0.505,0.32
21:10:40.108,-0.51,0.33
21:10:40.112,-0.535,0.32
21:10:40.116,-0.55,0.315
21:10:40.120,-0.525,0.34
21:10:40.124,-0.51,0.305
21:10:40.128,-0.47,0.295
21:10:40.132,-0.48,0.28
21:10:40.136,-0.46,0.245
21:10:40.140,-0.43,0.245
21:10:40.144,-0.43,0.24
21:10:40.148,-0.41,0.255
21:10:40.152,-0.385,0.21
21:10:40.156,-0.375,0.2
21:10:40.160,-0.36,0.175
21:10:40.164,-0.335,0.165
21:10:40.168,-0.365,0.14
21:10:40.172,-0.37,0.11
21:10:40.176,-0.365,0.115
21:10:40.180,-0.36,0.095
21:10:40.184,-0.385,0.11
21:10:40.188,-0.37,0.11
21:10:40.192,-0.38,0.08
21:10:40.196,-0.38,0.065
21:10:40.200,-0.405,0.05
21:10:40.204,-0.4,0.055
21:10:40.208,-0.405,0.07
21:10:40.212,-0.395,0.045
21:10:40.216,-0.395,0.04
21:10:40.220,-0.375,0.02
21:10:40.224,-0.38,0.0
21:10:40.228,-0.41,-0.01
21:10:40.232,-0.39,0.0
21:10:40.236,-0.37,0.0
21:10:40.240,-0.355,-0.015
21:10:40.244,-0.345,-0.005
21:10:40.248,-0.345,-0.015
21:10:40.252,-0.31,0.0
21:10:40.256,-0.29,-0.015
21:10:40.260,-0.265,-0.01
21:10:40.264,-0.215,-0.01
21:10:40.268,-0.15,0.01
21:10:40.272,-0.05,-0.015
21:10:40.276,0.03,-0.015
21:10:40.280,0.095,-0.05
21:10:40.284,0.15,-0.1
21:10:40.288,0.21,-0.085
21:10:40.292,0.255,-0.055
21:10:40.296,0.265,-0.075
21:10:40.300,0.225,-0.13
21:10:40.304,0.33,-0.19
21:10:40.308,0.545,-0.365
21:10:40.312,0.835,-0.6
21:10:40.316,1.015,-0.825
21:10:40.320,0.97,-0.925
21:10:40.324,0.605,-0.805
21:10:40.328,0.135,-0.5
21:10:40.332,-0.235,-0.24
21:10:40.336,-0.38,-0.125
21:10:40.340,-0.43,-0.005
21:10:40.344,-0.435,0.055
21:10:40.348,-0.435,0.065
21:10:40.352,-0.42,0.065
21:10:40.356,-0.45,0.07
21:10:40.360,-0.475,0.04
21:10:40.364,-0.47,0.0
21:10:40.368,-0.51,-0.07
21:10:40.372,-0.515,-0.105
21:10:40.376,-0.52,-0.115
21:10:40.380,-0.53,-0.135
21:10:40.384,-0.535,-0.135
21:10:40.388,-0.54,-0.18
21:10:40.392,-0.545,-0.185
21:10:40.396,-0.56,-0.18
21:10:40.400,-0.59,-0.215
21:10:40.404,-0.595,-0.24
21:10:40.408,-0.595,-0.225
21:10:40.412,-0.6,-0.23
21:10:40.416,-0.585,-0.26
21:10:40.420,-0.6,-0.265
21:10:40.424,-0.6,-0.28
21:10:40.428,-0.61,-0.3
21:10:40.432,-0.6,-0.29
21:10:40.436,-0.6,-0.305
21:10:40.440,-0.61,-0.31
21:10:40.444,-0.605,-0.31
21:10:40.448,-0.605,-0.32
21:10:40.452,-0.595,-0.31
21:10:40.456,-0.585,-0.315
21:10:40.460,-0.58,-0.33
21:10:40.464,-0.58,-0.32
21:10:40.468,-0.56,-0.32
21:10:40.472,-0.55,-0.295
21:10:40.476,-0.54,-0.315
21:10:40.480,-0.53,-0.29
21:10:40.484,-0.49,-0.26
21:10:40.488,-0.47,-0.27
21:10:40.492,-0.485,-0.26
21:10:40.496,-0.465,-0.265
21:10:40.500,-0.465,-0.265
21:10:40.504,-0.43,-0.25
21:10:40.508,-0.43,-0.265
21:10:40.512,-0.455,-0.28
21:10:40.516,-0.47,-0.265
21:10:40.520,-0.525,-0.28
21:10:40.524,-0.53,-0.285
21:10:40.528,-0.525,-0.29
21:10:40.532,-0.515,-0.295
21:10:40.536,-0.5,-0.305
21:10:40.540,-0.495,-0.34
21:10:40.544,-0.485,-0.34
21:10:40.548,-0.46,-0.35
21:10:40.552,-0.44,-0.385
21:10:40.556,-0.41,-0.385
21:10:40.560,-0.4,-0.395
21:10:40.564,-0.375,-0.41
21:10:40.568,-0.34,-0.43
21:10:40.572,-0.34,-0.44
21:10:40.576,-0.33,-0.48
21:10:40.580,-0.345,-0.52
21:10:40.584,-0.34,-0.51
21:10:40.588,-0.355,-0.54
21:10:40.592,-0.35,-0.535
21:10:40.596,-0.35,-0.58
21:10:40.600,-0.345,-0.6
21:10:40.604,-0.355,-0.6
21:10:40.608,-0.35,-0.61
21:10:40.612,-0.32,-0.595
21:10:40.616,-0.335,-0.64
21:10:40.620,-0.36,-0.625
21:10:40.624,-0.335,-0.61
21:10:40.628,-0.325,-0.63
21:10:40.632,-0.345,-0.63
21:10:40.636,-0.34,-0.635
21:10:40.640,-0.35,-0.635
21:10:40.644,-0.335,-0.64
21:10:40.648,-0.33,-0.665
21:10:40.652,-0.34,-0.635
21:10:40.656,-0.365,-0.65
21:10:40.660,-0.325,-0.64
21:10:40.664,-0.31,-0.63
21:10:40.668,-0.3,-0.615
21:10:40.672,-0.29,-0.605
21:10:40.676,-0.27,-0.61
21:10:40.680,-0.26,-0.6
21:10:40.684,-0.235,-0.59
21:10:40.688,-0.24,-0.575
21:10:40.692,-0.225,-0.575
21:10:40.696,-0.22,-0.56
21:10:40.700,-0.23,-0.56
21:10:40.704,-0.24,-0.545
21:10:40.708,-0.235,-0.525
21:10:40.712,-0.25,-0.505
21:10:40.716,-0.27,-0.505
21:10:40.720,-0.28,-0.46
21:10:40.724,-0.315,-0.44
21:10:40.728,-0.31,-0.415
21:10:40.732,-0.345,-0.42
21:10:40.736,-0.34,-0.43
21:10:40.740,-0.33,-0.425
21:10:40.744,-0.36,-0.43
21:10:40.748,-0.355,-0.41
21:10:40.752,-0.335,-0.405
21:10:40.756,-0.28,-0.42
21:10:40.760,-0.195,-0.44
21:10:40.764,-0.1,-0.42
21:10:40.768,-0.01,-0.42
21:10:40.772,0.085,-0.46
21:10:40.776,0.15,-0.49
21:10:40.780,0.21,-0.505
21:10:40.784,0.25,-0.47
21:10:40.788,0.25,-0.495
21:10:40.792,0.225,-0.585
21:10:40.796,0.33,-0.675
21:10:40.800,0.58,-0.87
21:10:40.804,0.85,-1.065
21:10:40.808,1.035,-1.255
21:10:40.812,0.98,-1.35
21:10:40.816,0.665,-1.15
21:10:40.820,0.2,-0.835
21:10:40.824,-0.15,-0.56
21:10:40.828,-0.305,-0.4
21:10:40.832,-0.34,-0.31
21:10:40.836,-0.355,-0.2
21:10:40.840,-0.36,-0.16
21:10:40.844,-0.38,-0.12
21:10:40.848,-0.41,-0.11
21:10:40.852,-0.425,-0.1
21:10:40.856,-0.445,-0.12
21:10:40.860,-0.45,-0.12
21:10:40.864,-0.445,-0.1
21:10:40.868,-0.44,-0.1
21:10:40.872,-0.41,-0.09
21:10:40.876,-0.395,-0.055
21:10:40.880,-0.39,-0.06
21:10:40.884,-0.395,-0.04
21:10:40.888,-0.4,-0.03
21:10:40.892,-0.425,-0.01
21:10:40.896,-0.385,-0.01
21:10:40.900,-0.38,0.0
21:10:40.904,-0.385,0.035
21:10:40.908,-0.4,0.045
21:10:40.912,-0.4,0.05
21:10:40.916,-0.4,0.095
21:10:40.920,-0.435,0.09
21:10:40.924,-0.46,0.095
21:10:40.928,-0.47,0.12
21:10:40.932,-0.5,0.14
21:10:40.936,-0.5,0.13
21:10:40.940,-0.52,0.12
21:10:40.944,-0.525,0.14
21:10:40.948,-0.55,0.17
21:10:40.952,-0.55,0.135
21:10:40.956,-0.53,0.13
21:10:40.960,-0.54,0.125
21:10:40.964,-0.56,0.115
21:10:40.968,-0.565,0.11
21:10:40.972,-0.56,0.105
21:10:40.976,-0.52,0.1
21:10:40.980,-0.51,0.1
21:10:40.984,-0.5,0.085
21:10:40.988,-0.49,0.085
21:10:40.992,-0.485,0.075
21:10:40.996,-0.475,0.065
21:10:41.000,-0.48,0.04
21:10:41.004,-0.49,0.04
21:10:41.008,-0.45,0.035
21:10:41.012,-0.44,0.03
21:10:41.016,-0.42,0.015
21:10:41.020,-0.415,0.03
21:10:41.024,-0.365,0.015
21:10:41.028,-0.37,0.015
21:10:41.032,-0.33,-0.015
21:10:41.036,-0.31,-0.015
21:10:41.040,-0.27,0.0
21:10:41.044,-0.24,0.01
21:10:41.048,-0.2,0.02
21:10:41.052,-0.215,0.01
21:10:41.056,-0.19,0.01
21:10:41.060,-0.17,0.02
21:10:41.064,-0.155,0.01
21:10:41.068,-0.16,0.015
21:10:41.072,-0.16,0.045
21:10:41.076,-0.14,0.06
21:10:41.080,-0.14,0.075
21:10:41.084,-0.15,0.055
21:10:41.088,-0.14,0.07
21:10:41.092,-0.12,0.07
21:10:41.096,-0.11,0.08
21:10:41.100,-0.12,0.105
21:10:41.104,-0.14,0.11
21:10:41.108,-0.155,0.12
21:10:41.112,-0.18,0.13
21:10:41.116,-0.19,0.135
21:10:41.120,-0.205,0.14
21:10:41.124,-0.19,0.17
21:10:41.128,-0.205,0.185
21:10:41.132,-0.21,0.18
21:10:41.136,-0.2,0.15
21:10:41.140,-0.195,0.155
21:10:41.144,-0.18,0.17
21:10:41.148,-0.2,0.135
21:10:41.152,-0.225,0.14
21:10:41.156,-0.22,0.135
21:10:41.160,-0.215,0.13
21:10:41.164,-0.22,0.13
21:10:41.168,-0.21,0.15
21:10:41.172,-0.19,0.125
21:10:41.176,-0.155,0.125
21:10:41.180,-0.09,0.115
21:10:41.184,-0.03,0.105
21:10:41.188,0.03,0.08
21:10:41.192,0.055,0.06
21:10:41.196,0.075,0.02
21:10:41.200,0.075,0.005
21:10:41.204,0.04,-0.005
21:10:41.208,0.02,-0.06
21:10:41.212,-0.01,-0.13
21:10:41.216,0.13,-0.28
21:10:41.220,0.37,-0.455
21:10:41.224,0.715,-0.725
21:10:41.228,0.95,-1.0
21:10:41.232,1.02,-1.085
21:10:41.236,0.85,-0.95
21:10:41.240,0.42,-0.61
21:10:41.244,-0.01,-0.265
21:10:41.248,-0.21,-0.02
21:10:41.252,-0.31,0.09
21:10:41.256,-0.325,0.12
21:10:41.260,-0.32,0.125
21:10:41.264,-0.305,0.175
21:10:41.268,-0.285,0.15
21:10:41.272,-0.26,0.165
21:10:41.276,-0.255,0.175
21:10:41.280,-0.24,0.155
21:10:41.284,-0.215,0.175
21:10:41.288,-0.23,0.175
21:10:41.292,-0.235,0.185
21:10:41.296,-0.23,0.215
21:10:41.300,-0.245,0.23
21:10:41.304,-0.26,0.225
21:10:41.308,-0.27,0.255
21:10:41.312,-0.29,0.25
21:10:41.316,-0.29,0.265
21:10:41.320,-0.32,0.265
21:10:41.324,-0.33,0.255
21:10:41.328,-0.355,0.255
21:10:41.332,-0.375,0.26
21:10:41.336,-0.405,0.28
21:10:41.340,-0.41,0.285
21:10:41.344,-0.415,0.29
21:10:41.348,-0.42,0.3
21:10:41.352,-0.395,0.27
21:10:41.356,-0.415,0.275
21:10:41.360,-0.43,0.3
21:10:41.364,-0.44,0.285
21:10:41.368,-0.43,0.28
21:10:41.372,-0.435,0.265
21:10:41.376,-0.435,0.275
21:10:41.380,-0.455,0.28
21:10:41.384,-0.435,0.29
21:10:41.388,-0.445,0.275
21:10:41.392,-0.45,0.26
21:10:41.396,-0.43,0.26
21:10:41.400,-0.445,0.245
21:10:41.404,-0.45,0.25
21:10:41.408,-0.455,0.23
21:10:41.412,-0.45,0.235
21:10:41.416,-0.43,0.23
21:10:41.420,-0.435,0.23
21:10:41.424,-0.435,0.23
21:10:41.428,-0.425,0.22
21:10:41.432,-0.41,0.2
21:10:41.436,-0.41,0.19
21:10:41.440,-0.39,0.155
21:10:41.444,-0.38,0.14
21:10:41.448,-0.375,0.145
21:10:41.452,-0.36,0.135
21:10:41.456,-0.35,0.15
21:10:41.460,-0.335,0.12
21:10:41.464,-0.34,0.13
21:10:41.468,-0.31,0.12
21:10:41.472,-0.285,0.12
21:10:41.476,-0.26,0.15
21:10:41.480,-0.23,0.115
21:10:41.484,-0.2,0.14
21:10:41.488,-0.18,0.11
21:10:41.492,-0.19,0.14
21:10:41.496,-0.14,0.13
21:10:41.500,-0.155,0.155
21:10:41.504,-0.13,0.17
21:10:41.508,-0.13,0.21
21:10:41.512,-0.115,0.235
21:10:41.516,-0.11,0.25
21:10:41.520,-0.1,0.255
21:10:41.524,-0.09,0.275
21:10:41.528,-0.095,0.245
21:10:41.532,-0.105,0.28
21:10:41.536,-0.11,0.26
21:10:41.540,-0.135,0.26
21:10:41.544,-0.155,0.275
21:10:41.548,-0.18,0.28
21:10:41.552,-0.19,0.27
21:10:41.556,-0.19,0.27
21:10:41.560,-0.21,0.295
21:10:41.564,-0.21,0.265
21:10:41.568,-0.19,0.27
21:10:41.572,-0.19,0.23
21:10:41.576,-0.195,0.23
21:10:41.580,-0.22,0.225
21:10:41.584,-0.225,0.175
21:10:41.588,-0.225,0.175
21:10:41.592,-0.22,0.16
21:10:41.596,-0.21,0.155
21:10:41.600,-0.225,0.16
21:10:41.604,-0.23,0.175
21:10:41.608,-0.23,0.165
21:10:41.612,-0.235,0.155
21:10:41.616,-0.24,0.165
21:10:41.620,-0.265,0.13
21:10:41.624,-0.22,0.12
21:10:41.628,-0.235,0.145
21:10:41.632,-0.23,0.145
21:10:41.636,-0.25,0.105
21:10:41.640,-0.26,0.11
21:10:41.644,-0.285,0.13
21:10:41.648,-0.29,0.12
21:10:41.652,-0.29,0.115
21:10:41.656,-0.29,0.12
21:10:41.660,-0.28,0.095
21:10:41.664,-0.265,0.08
21:10:41.668,-0.28,0.1
21:10:41.672,-0.28,0.095
21:10:41.676,-0.27,0.09
21:10:41.680,-0.28,0.075
21:10:41.684,-0.295,0.09
21:10:41.688,-0.3,0.105
21:10:41.692,-0.295,0.095
21:10:41.696,-0.275,0.085
21:10:41.700,-0.285,0.08
21:10:41.704,-0.265,0.09
21:10:41.708,-0.225,0.095
21:10:41.712,-0.16,0.09
21:10:41.716,-0.09,0.11
21:10:41.720,-0.015,0.11
21:10:41.724,0.07,0.095
21:10:41.728,0.155,0.08
21:10:41.732,0.195,0.04
21:10:41.736,0.24,0.015
21:10:41.740,0.285,0.045
21:10:41.744,0.315,0.06
21:10:41.748,0.29,-0.01
21:10:41.752,0.31,-0.095
21:10:41.756,0.455,-0.28
21:10:41.760,0.745,-0.52
21:10:41.764,1.025,-0.74
21:10:41.768,1.14,-0.91
21:10:41.772,0.96,-0.91
21:10:41.776,0.52,-0.625
21:10:41.780,0.05,-0.235
21:10:41.784,-0.255,0.035
21:10:41.788,-0.37,0.155
21:10:41.792,-0.405,0.24
21:10:41.796,-0.405,0.33
21:10:41.800,-0.415,0.355
21:10:41.804,-0.42,0.365
21:10:41.808,-0.405,0.35
21:10:41.812,-0.38,0.34
21:10:41.816,-0.385,0.33
21:10:41.820,-0.37,0.31
21:10:41.824,-0.39,0.265
21:10:41.828,-0.385,0.255
21:10:41.832,-0.39,0.25
21:10:41.836,-0.4,0.21
21:10:41.840,-0.39,0.21
21:10:41.844,-0.41,0.195
21:10:41.848,-0.405,0.18
21:10:41.852,-0.425,0.155
21:10:41.856,-0.42,0.17
21:10:41.860,-0.43,0.155
21:10:41.864,-0.43,0.175
21:10:41.868,-0.45,0.175
21:10:41.872,-0.455,0.16
21:10:41.876,-0.46,0.16
21:10:41.880,-0.445,0.175
21:10:41.884,-0.47,0.155
21:10:41.888,-0.485,0.155
21:10:41.892,-0.48,0.16
21:10:41.896,-0.495,0.175
21:10:41.900,-0.53,0.175
21:10:41.904,-0.53,0.175
21:10:41.908,-0.525,0.165
21:10:41.912,-0.535,0.17
21:10:41.916,-0.49,0.2
21:10:41.920,-0.475,0.205
21:10:41.924,-0.46,0.195
21:10:41.928,-0.45,0.2
21:10:41.932,-0.445,0.205
21:10:41.936,-0.43,0.215
21:10:41.940,-0.435,0.22
21:10:41.944,-0.435,0.24
21:10:41.948,-0.415,0.25
21:10:41.952,-0.405,0.25
21:10:41.956,-0.37,0.24
21:10:41.960,-0.345,0.27
21:10:41.964,-0.345,0.255
21:10:41.968,-0.315,0.25
21:10:41.972,-0.315,0.29
21:10:41.976,-0.305,0.305
21:10:41.980,-0.28,0.325
21:10:41.984,-0.295,0.305
21:10:41.988,-0.305,0.285
21:10:41.992,-0.315,0.26
21:10:41.996,-0.34,0.25
21:10:42.000,-0.35,0.225
21:10:42.004,-0.34,0.245
21:10:42.008,-0.345,0.235
21:10:42.012,-0.32,0.23
21:10:42.016,-0.335,0.25
21:10:42.020,-0.31,0.25
21:10:42.024,-0.265,0.255
21:10:42.028,-0.245,0.26
21:10:42.032,-0.23,0.265
21:10:42.036,-0.2,0.255
21:10:42.040,-0.2,0.285
21:10:42.044,-0.215,0.265
21:10:42.048,-0.225,0.255
21:10:42.052,-0.23,0.24
21:10:42.056,-0.205,0.225
21:10:42.060,-0.24,0.215
21:10:42.064,-0.25,0.225
21:10:42.068,-0.25,0.19
21:10:42.072,-0.275,0.195
21:10:42.076,-0.27,0.205
21:10:42.080,-0.32,0.19
21:10:42.084,-0.335,0.21
21:10:42.088,-0.365,0.185
21:10:42.092,-0.38,0.195
21:10:42.096,-0.39,0.19
21:10:42.100,-0.395,0.195
21:10:42.104,-0.37,0.195
21:10:42.108,-0.365,0.17
21:10:42.112,-0.375,0.19
21:10:42.116,-0.395,0.195
21:10:42.120,-0.395,0.195
21:10:42.124,-0.38,0.19
21:10:42.128,-0.37,0.21
21:10:42.132,-0.345,0.215
21:10:42.136,-0.35,0.22
21:10:42.140,-0.355,0.205
21:10:42.144,-0.355,0.225
21:10:42.148,-0.335,0.23
21:10:42.152,-0.305,0.225
21:10:42.156,-0.29,0.22
21:10:42.160,-0.295,0.25
21:10:42.164,-0.265,0.28
21:10:42.168,-0.25,0.255
21:10:42.172,-0.24,0.27
21:10:42.176,-0.225,0.255
21:10:42.180,-0.235,0.255
21:10:42.184,-0.215,0.27
21:10:42.188,-0.2,0.27
21:10:42.192,-0.21,0.27
21:10:42.196,-0.22,0.25
21:10:42.200,-0.26,0.27
21:10:42.204,-0.28,0.255
21:10:42.208,-0.3,0.245
21:10:42.212,-0.33,0.245
21:10:42.216,-0.31,0.26
21:10:42.220,-0.315,0.235
21:10:42.224,-0.295,0.245
21:10:42.228,-0.27,0.23
21:10:42.232,-0.2,0.195
21:10:42.236,-0.12,0.17
21:10:42.240,-0.05,0.155
21:10:42.244,0.065,0.135
21:10:42.248,0.15,0.07
21:10:42.252,0.215,0.015
21:10:42.256,0.27,0.035
21:10:42.260,0.31,0.01
21:10:42.264,0.275,-0.04
21:10:42.268,0.245,-0.11
21:10:42.272,0.35,-0.24
21:10:42.276,0.57,-0.46
21:10:42.280,0.835,-0.7
21:10:42.284,0.995,-0.96
21:10:42.288,0.915,-1.035
21:10:42.292,0.55,-0.835
21:10:42.296,0.065,-0.525
21:10:42.300,-0.25,-0.265
21:10:42.304,-0.38,-0.145
21:10:42.308,-0.45,-0.03
21:10:42.312,-0.47,0.05
21:10:42.316,-0.5,0.085
21:10:42.320,-0.49,0.085
21:10:42.324,-0.485,0.085
21:10:42.328,-0.495,0.055
21:10:42.332,-0.495,0.055
21:10:42.336,-0.475,0.025
21:10:42.340,-0.475,0.01
21:10:42.344,-0.515,0.015
21:10:42.348,-0.525,0.0
21:10:42.352,-0.54,0.0
21:10:42.356,-0.565,0.01
21:10:42.360,-0.56,0.015
21:10:42.364,-0.54,0.0
21:10:42.368,-0.525,0.02
21:10:42.372,-0.49,0.015
21:10:42.376,-0.475,0.01
21:10:42.380,-0.495,0.02
21:10:42.384,-0.465,0.02
21:10:42.388,-0.44,0.02
21:10:42.392,-0.415,0.025
21:10:42.396,-0.425,0.03
21:10:42.400,-0.455,0.045
21:10:42.404,-0.46,0.015
21:10:42.408,-0.465,0.015
21:10:42.412,-0.49,0.015
21:10:42.416,-0.52,0.005
21:10:42.420,-0.52,0.0
21:10:42.424,-0.555,-0.005
21:10:42.428,-0.565,-0.01
21:10:42.432,-0.555,-0.04
21:10:42.436,-0.53,-0.04
21:10:42.440,-0.545,-0.05
21:10:42.444,-0.54,-0.075
21:10:42.448,-0.525,-0.085
21:10:42.452,-0.49,-0.105
21:10:42.456,-0.48,-0.1
21:10:42.460,-0.475,-0.115
21:10:42.464,-0.465,-0.135
21:10:42.468,-0.48,-0.16
21:10:42.472,-0.45,-0.185
21:10:42.476,-0.44,-0.195
21:10:42.480,-0.45,-0.2
21:10:42.484,-0.43,-0.23
21:10:42.488,-0.435,-0.225
21:10:42.492,-0.435,-0.245
21:10:42.496,-0.43,-0.28
21:10:42.500,-0.43,-0.29
21:10:42.504,-0.44,-0.275
21:10:42.508,-0.41,-0.295
21:10:42.512,-0.405,-0.3
21:10:42.516,-0.39,-0.345
21:10:42.520,-0.39,-0.335
21:10:42.524,-0.38,-0.365
21:10:42.528,-0.4,-0.365
21:10:42.532,-0.395,-0.38
21:10:42.536,-0.395,-0.39
21:10:42.540,-0.38,-0.39
21:10:42.544,-0.375,-0.39
21:10:42.548,-0.375,-0.385
21:10:42.552,-0.375,-0.405
21:10:42.556,-0.34,-0.41
21:10:42.560,-0.325,-0.405
21:10:42.564,-0.33,-0.405
21:10:42.568,-0.32,-0.395
21:10:42.572,-0.305,-0.385
21:10:42.576,-0.265,-0.385
21:10:42.580,-0.25,-0.365
21:10:42.584,-0.24,-0.37
21:10:42.588,-0.23,-0.36
21:10:42.592,-0.215,-0.365
21:10:42.596,-0.2,-0.365
21:10:42.600,-0.205,-0.375
21:10:42.604,-0.21,-0.33
21:10:42.608,-0.225,-0.34
21:10:42.612,-0.235,-0.34
21:10:42.616,-0.235,-0.32
21:10:42.620,-0.27,-0.34
21:10:42.624,-0.31,-0.355
21:10:42.628,-0.305,-0.34
21:10:42.632,-0.305,-0.335
21:10:42.636,-0.305,-0.38
21:10:42.640,-0.345,-0.355
21:10:42.644,-0.36,-0.345
21:10:42.648,-0.355,-0.36
21:10:42.652,-0.355,-0.38
21:10:42.656,-0.345,-0.36
21:10:42.660,-0.36,-0.38
21:10:42.664,-0.345,-0.365
21:10:42.668,-0.33,-0.41
21:10:42.672,-0.33,-0.4
21:10:42.676,-0.315,-0.425
21:10:42.680,-0.305,-0.415
21:10:42.684,-0.32,-0.415
21:10:42.688,-0.34,-0.415
21:10:42.692,-0.34,-0.43
21:10:42.696,-0.34,-0.435
21:10:42.700,-0.35,-0.44
21:10:42.704,-0.34,-0.42
21:10:42.708,-0.33,-0.435
21:10:42.712,-0.33,-0.415
21:10:42.716,-0.32,-0.42
21:10:42.720,-0.315,-0.4
21:10:42.724,-0.335,-0.38
21:10:42.728,-0.34,-0.405
21:10:42.732,-0.35,-0.39
21:10:42.736,-0.33,-0.37
21:10:42.740,-0.32,-0.37
21:10:42.744,-0.33,-0.36
21:10:42.748,-0.35,-0.365
21:10:42.752,-0.345,-0.35
21:10:42.756,-0.355,-0.355
21:10:42.760,-0.35,-0.35
21:10:42.764,-0.35,-0.335
21:10:42.768,-0.35,-0.31
21:10:42.772,-0.33,-0.315
21:10:42.776,-0.32,-0.295
21:10:42.780,-0.31,-0.28
21:10:42.784,-0.32,-0.245
21:10:42.788,-0.285,-0.24
21:10:42.792,-0.255,-0.225
21:10:42.796,-0.24,-0.215
21:10:42.800,-0.23,-0.22
21:10:42.804,-0.225,-0.215
21:10:42.808,-0.21,-0.2
21:10:42.812,-0.175,-0.145
21:10:42.816,-0.185,-0.155
21:10:42.820,-0.195,-0.15
21:10:42.824,-0.205,-0.125
21:10:42.828,-0.195,-0.11
21:10:42.832,-0.215,-0.08
21:10:42.836,-0.21,-0.06
21:10:42.840,-0.22,-0.07
21:10:42.844,-0.24,-0.08
21:10:42.848,-0.23,-0.035
21:10:42.852,-0.25,-0.06
21:10:42.856,-0.27,-0.09
21:10:42.860,-0.255,-0.07
21:10:42.864,-0.29,-0.07
21:10:42.868,-0.305,-0.085
21:10:42.872,-0.295,-0.075
21:10:42.876,-0.295,-0.09
21:10:42.880,-0.275,-0.065
21:10:42.884,-0.29,-0.075
21:10:42.888,-0.285,-0.085
21:10:42.892,-0.28,-0.085
21:10:42.896,-0.3,-0.095
21:10:42.900,-0.29,-0.115
21:10:42.904,-0.31,-0.095
21:10:42.908,-0.32,-0.1
21:10:42.912,-0.33,-0.11
21:10:42.916,-0.33,-0.1
21:10:42.920,-0.335,-0.085
21:10:42.924,-0.33,-0.105
21:10:42.928,-0.3,-0.11
21:10:42.932,-0.315,-0.07
21:10:42.936,-0.31,-0.095
21:10:42.940,-0.32,-0.08
21:10:42.944,-0.31,-0.06
21:10:42.948,-0.32,-0.065
21:10:42.952,-0.33,-0.075
21:10:42.956,-0.325,-0.04
21:10:42.960,-0.31,-0.08
21:10:42.964,-0.325,-0.075
21:10:42.968,-0.295,-0.065
21:10:42.972,-0.285,-0.05
21:10:42.976,-0.25,-0.075
21:10:42.980,-0.25,-0.075
21:10:42.984,-0.26,-0.05
21:10:42.988,-0.25,-0.04
21:10:42.992,-0.245,-0.04
21:10:42.996,-0.21,-0.03
21:10:43.000,-0.19,-0.04
21:10:43.004,-0.19,-0.03
21:10:43.008,-0.19,0.0
21:10:43.012,-0.18,-0.005
21:10:43.016,-0.175,-0.005
21:10:43.020,-0.165,0.0
21:10:43.024,-0.15,-0.01
21:10:43.028,-0.16,0.0
21:10:43.032,-0.145,0.0
21:10:43.036,-0.15,0.005
21:10:43.040,-0.145,0.02
21:10:43.044,-0.155,0.015
21:10:43.048,-0.13,0.03
21:10:43.052,-0.135,0.035
21:10:43.056,-0.125,0.04
21:10:43.060,-0.155,0.035
21:10:43.064,-0.165,0.045
21:10:43.068,-0.165,0.04
21:10:43.072,-0.165,0.015
21:10:43.076,-0.185,0.05
21:10:43.080,-0.195,0.03
21:10:43.084,-0.19,0.025
21:10:43.088,-0.195,0.02
21:10:43.092,-0.195,0.015
21:10:43.096,-0.16,0.04
21:10:43.100,-0.08,0.015
21:10:43.104,-0.03,0.0
21:10:43.108,0.075,-0.005
21:10:43.112,0.145,-0.02
21:10:43.116,0.18,-0.07
21:10:43.120,0.195,-0.13
21:10:43.124,0.22,-0.13
21:10:43.128,0.235,-0.145
21:10:43.132,0.23,-0.195
21:10:43.136,0.195,-0.255
21:10:43.140,0.265,-0.35
21:10:43.144,0.46,-0.53
21:10:43.148,0.76,-0.75
21:10:43.152,1.01,-0.975
21:10:43.156,1.135,-1.1
21:10:43.160,1.01,-1.085
21:10:43.164,0.64,-0.785
21:10:43.168,0.14,-0.42
21:10:43.172,-0.15,-0.16
21:10:43.176,-0.265,-0.02
21:10:43.180,-0.3,0.08
21:10:43.184,-0.325,0.15
21:10:43.188,-0.3,0.16
21:10:43.192,-0.305,0.175
21:10:43.196,-0.31,0.185
21:10:43.200,-0.325,0.18
21:10:43.204,-0.335,0.16
21:10:43.208,-0.33,0.18
21:10:43.212,-0.32,0.165
21:10:43.216,-0.3,0.165
21:10:43.220,-0.295,0.17
21:10:43.224,-0.295,0.175
21:10:43.228,-0.3,0.195
21:10:43.232,-0.29,0.19
21:10:43.236,-0.29,0.205
21:10:43.240,-0.3,0.21
21:10:43.244,-0.3,0.215
21:10:43.248,-0.315,0.215
21:10:43.252,-0.33,0.2
21:10:43.256,-0.34,0.205
21:10:43.260,-0.345,0.21
21:10:43.264,-0.33,0.22
21:10:43.268,-0.32,0.22
21:10:43.272,-0.33,0.225
21:10:43.276,-0.325,0.245
21:10:43.280,-0.32,0.235
21:10:43.284,-0.345,0.215
21:10:43.288,-0.35,0.2
21:10:43.292,-0.345,0.225
21:10:43.296,-0.35,0.215
21:10:43.300,-0.355,0.2
21:10:43.304,-0.365,0.2
21:10:43.308,-0.38,0.205
21:10:43.312,-0.385,0.185
21:10:43.316,-0.36,0.18
21:10:43.320,-0.375,0.185
21:10:43.324,-0.395,0.155
21:10:43.328,-0.37,0.165
21:10:43.332,-0.39,0.15
21:10:43.336,-0.395,0.11
21:10:43.340,-0.4,0.135
21:10:43.344,-0.395,0.105
21:10:43.348,-0.405,0.095
21:10:43.352,-0.41,0.105
21:10:43.356,-0.405,0.115
21:10:43.360,-0.385,0.11
21:10:43.364,-0.37,0.1
21:10:43.368,-0.37,0.075
21:10:43.372,-0.36,0.085
21:10:43.376,-0.32,0.085
21:10:43.380,-0.33,0.1
21:10:43.384,-0.3,0.075
21:10:43.388,-0.305,0.095
21:10:43.392,-0.285,0.07
21:10:43.396,-0.26,0.075
21:10:43.400,-0.27,0.06
21:10:43.404,-0.255,0.055
21:10:43.408,-0.24,0.05
21:10:43.412,-0.235,0.055
21:10:43.416,-0.23,0.055
21:10:43.420,-0.21,0.06
21:10:43.424,-0.195,0.055
21:10:43.428,-0.195,0.05
21:10:43.432,-0.185,0.075
21:10:43.436,-0.175,0.08
21:10:43.440,-0.175,0.075
21:10:43.444,-0.155,0.1
21:10:43.448,-0.135,0.1
21:10:43.452,-0.145,0.125
21:10:43.456,-0.155,0.11
21:10:43.460,-0.16,0.115
21:10:43.464,-0.165,0.1
21:10:43.468,-0.15,0.105
21:10:43.472,-0.155,0.115
21:10:43.476,-0.105,0.155
21:10:43.480,-0.115,0.155
21:10:43.484,-0.11,0.175
21:10:43.488,-0.105,0.17
21:10:43.492,-0.11,0.18
21:10:43.496,-0.125,0.165
21:10:43.500,-0.105,0.155
21:10:43.504,-0.115,0.165
21:10:43.508,-0.14,0.175
21:10:43.512,-0.13,0.175
21:10:43.516,-0.155,0.19
21:10:43.520,-0.14,0.2
21:10:43.524,-0.135,0.195
21:10:43.528,-0.11,0.195
21:10:43.532,-0.14,0.165
21:10:43.536,-0.15,0.16
21:10:43.540,-0.15,0.16
21:10:43.544,-0.16,0.145
21:10:43.548,-0.175,0.15
21:10:43.552,-0.18,0.15
21:10:43.556,-0.16,0.135
21:10:43.560,-0.19,0.135
21:10:43.564,-0.195,0.12
21:10:43.568,-0.195,0.105
21:10:43.572,-0.19,0.115
21:10:43.576,-0.2,0.1
21:10:43.580,-0.205,0.11
21:10:43.584,-0.18,0.085
21:10:43.588,-0.12,0.085
21:10:43.592,-0.06,0.09
21:10:43.596,-0.01,0.085
21:10:43.600,0.06,0.08
21:10:43.604,0.115,0.065
21:10:43.608,0.14,0.005
21:10:43.612,0.155,-0.005
21:10:43.616,0.14,-0.035
21:10:43.620,0.145,-0.005
21:10:43.624,0.15,-0.025
21:10:43.628,0.19,-0.085
21:10:43.632,0.375,-0.215
21:10:43.636,0.68,-0.405
21:10:43.640,1.0,-0.655
21:10:43.644,1.115,-0.88
21:10:43.648,1.01,-0.945
21:10:43.652,0.63,-0.775
21:10:43.656,0.19,-0.43
21:10:43.660,-0.095,-0.11
21:10:43.664,-0.21,0.055
21:10:43.668,-0.265,0.18
21:10:43.672,-0.295,0.235
21:10:43.676,-0.305,0.24
21:10:43.680,-0.345,0.25
21:10:43.684,-0.35,0.26
21:10:43.688,-0.355,0.27
21:10:43.692,-0.395,0.25
21:10:43.696,-0.4,0.23
21:10:43.700,-0.405,0.225
21:10:43.704,-0.38,0.215
21:10:43.708,-0.38,0.205
21:10:43.712,-0.4,0.215
21:10:43.716,-0.41,0.2
21:10:43.720,-0.385,0.195
21:10:43.724,-0.385,0.195
21:10:43.728,-0.385,0.195
21:10:43.732,-0.39,0.185
21:10:43.736,-0.375,0.215
21:10:43.740,-0.38,0.22
21:10:43.744,-0.39,0.22
21:10:43.748,-0.395,0.225
21:10:43.752,-0.405,0.21
21:10:43.756,-0.42,0.185
21:10:43.760,-0.415,0.175
21:10:43.764,-0.45,0.2
21:10:43.768,-0.425,0.18
21:10:43.772,-0.44,0.15
21:10:43.776,-0.455,0.165
21:10:43.780,-0.47,0.155
21:10:43.784,-0.48,0.17
21:10:43.788,-0.48,0.155
21:10:43.792,-0.5,0.145
21:10:43.796,-0.49,0.155
21:10:43.800,-0.47,0.15
21:10:43.804,-0.465,0.16
21:10:43.808,-0.455,0.14
21:10:43.812,-0.44,0.155
21:10:43.816,-0.425,0.155
21:10:43.820,-0.415,0.12
21:10:43.824,-0.395,0.155
21:10:43.828,-0.385,0.145
21:10:43.832,-0.385,0.155
21:10:43.836,-0.36,0.125
21:10:43.840,-0.35,0.145
21:10:43.844,-0.35,0.17
21:10:43.848,-0.315,0.165
21:10:43.852,-0.29,0.18
21:10:43.856,-0.285,0.185
21:10:43.860,-0.255,0.215
21:10:43.864,-0.225,0.185
21:10:43.868,-0.22,0.175
21:10:43.872,-0.195,0.185
21:10:43.876,-0.18,0.185
21:10:43.880,-0.18,0.18
21:10:43.884,-0.16,0.19
21:10:43.888,-0.16,0.175
21:10:43.892,-0.165,0.19
21:10:43.896,-0.145,0.19
21:10:43.900,-0.145,0.17
21:10:43.904,-0.145,0.195
21:10:43.908,-0.15,0.18
21:10:43.912,-0.14,0.18
21:10:43.916,-0.155,0.195
21:10:43.920,-0.13,0.22
21:10:43.924,-0.13,0.205
21:10:43.928,-0.125,0.225
21:10:43.932,-0.14,0.21
21:10:43.936,-0.17,0.195
21:10:43.940,-0.165,0.21
21:10:43.944,-0.165,0.21
21:10:43.948,-0.19,0.175
21:10:43.952,-0.18,0.195
21:10:43.956,-0.17,0.21
21:10:43.960,-0.175,0.205
21:10:43.964,-0.18,0.195
21:10:43.968,-0.215,0.18
21:10:43.972,-0.24,0.17
21:10:43.976,-0.25,0.15
21:10:43.980,-0.25,0.15
21:10:43.984,-0.285,0.15
21:10:43.988,-0.29,0.125
21:10:43.992,-0.305,0.11
21:10:43.996,-0.315,0.125
21:10:44.000,-0.305,0.11
21:10:44.004,-0.305,0.09
21:10:44.008,-0.31,0.07
21:10:44.012,-0.31,0.07
21:10:44.016,-0.295,0.095
21:10:44.020,-0.305,0.085
21:10:44.024,-0.285,0.08
21:10:44.028,-0.27,0.07
21:10:44.032,-0.275,0.075
21:10:44.036,-0.28,0.085
21:10:44.040,-0.27,0.08
21:10:44.044,-0.25,0.08
21:10:44.048,-0.235,0.075
21:10:44.052,-0.235,0.085
21:10:44.056,-0.235,0.105
21:10:44.060,-0.215,0.105
21:10:44.064,-0.21,0.135
21:10:44.068,-0.18,0.175
21:10:44.072,-0.175,0.175
21:10:44.076,-0.155,0.165
21:10:44.080,-0.145,0.17
21:10:44.084,-0.125,0.17
21:10:44.088,-0.12,0.165
21:10:44.092,-0.115,0.17
21:10:44.096,-0.11,0.17
21:10:44.100,-0.1,0.17
21:10:44.104,-0.11,0.16
21:10:44.108,-0.11,0.175
21:10:44.112,-0.11,0.17
21:10:44.116,-0.13,0.175
21:10:44.120,-0.14,0.165
21:10:44.124,-0.145,0.165
21:10:44.128,-0.145,0.17
21:10:44.132,-0.14,0.185
21:10:44.136,-0.145,0.21
21:10:44.140,-0.165,0.195
21:10:44.144,-0.16,0.205
21:10:44.148,-0.16,0.2
21:10:44.152,-0.16,0.19
21:10:44.156,-0.13,0.21
21:10:44.160,-0.075,0.18
21:10:44.164,0.0,0.175
21:10:44.168,0.07,0.165
21:10:44.172,0.15,0.17
21:10:44.176,0.21,0.145
21:10:44.180,0.24,0.11
21:10:44.184,0.25,0.07
21:10:44.188,0.26,0.07
21:10:44.192,0.245,0.035
21:10:44.196,0.195,-0.015
21:10:44.200,0.21,-0.08
21:10:44.204,0.365,-0.22
21:10:44.208,0.625,-0.43
21:10:44.212,0.88,-0.695
21:10:44.216,1.02,-0.91
21:10:44.220,0.915,-1.035
21:10:44.224,0.535,-0.955
21:10:44.228,0.06,-0.61
21:10:44.232,-0.225,-0.25
21:10:44.236,-0.335,-0.055
21:10:44.240,-0.39,0.055
21:10:44.244,-0.39,0.155
21:10:44.248,-0.385,0.2
21:10:44.252,-0.415,0.205
21:10:44.256,-0.405,0.215
21:10:44.260,-0.415,0.22
21:10:44.264,-0.39,0.225
21:10:44.268,-0.395,0.2
21:10:44.272,-0.39,0.21
21:10:44.276,-0.355,0.17
21:10:44.280,-0.355,0.185
21:10:44.284,-0.335,0.165
21:10:44.288,-0.325,0.215
21:10:44.292,-0.31,0.22
21:10:44.296,-0.29,0.225
21:10:44.300,-0.3,0.245
21:10:44.304,-0.28,0.235
21:10:44.308,-0.265,0.245
21:10:44.312,-0.265,0.245
21:10:44.316,-0.285,0.255
21:10:44.320,-0.31,0.265
21:10:44.324,-0.325,0.26
21:10:44.328,-0.335,0.26
21:10:44.332,-0.34,0.255
21:10:44.336,-0.375,0.27
21:10:44.340,-0.37,0.27
21:10:44.344,-0.375,0.28
21:10:44.348,-0.385,0.265
21:10:44.352,-0.39,0.27
21:10:44.356,-0.41,0.285
21:10:44.360,-0.38,0.285
21:10:44.364,-0.39,0.305
21:10:44.368,-0.4,0.305
21:10:44.372,-0.4,0.28
21:10:44.376,-0.38,0.295
21:10:44.380,-0.36,0.28
21:10:44.384,-0.335,0.285
21:10:44.388,-0.35,0.265
21:10:44.392,-0.365,0.265
21:10:44.396,-0.37,0.27
21:10:44.400,-0.375,0.275
21:10:44.404,-0.355,0.265
21:10:44.408,-0.395,0.265
21:10:44.412,-0.395,0.25
21:10:44.416,-0.39,0.25
21:10:44.420,-0.4,0.23
21:10:44.424,-0.405,0.235
21:10:44.428,-0.42,0.245
21:10:44.432,-0.425,0.25
21:10:44.436,-0.41,0.23
21:10:44.440,-0.41,0.215
21:10:44.444,-0.405,0.21
21:10:44.448,-0.405,0.21
21:10:44.452,-0.38,0.2
21:10:44.456,-0.365,0.18
21:10:44.460,-0.38,0.175
21:10:44.464,-0.355,0.155
21:10:44.468,-0.345,0.14
21:10:44.472,-0.32,0.16
21:10:44.476,-0.32,0.155
21:10:44.480,-0.325,0.16
21:10:44.484,-0.315,0.17
21:10:44.488,-0.315,0.19
21:10:44.492,-0.29,0.17
21:10:44.496,-0.275,0.195
21:10:44.500,-0.265,0.18
21:10:44.504,-0.24,0.18
21:10:44.508,-0.215,0.21
21:10:44.512,-0.185,0.24
21:10:44.516,-0.17,0.25
21:10:44.520,-0.16,0.26
21:10:44.524,-0.18,0.265
21:10:44.528,-0.165,0.28
21:10:44.532,-0.205,0.275
21:10:44.536,-0.2,0.29
21:10:44.540,-0.215,0.295
21:10:44.544,-0.235,0.295
21:10:44.548,-0.235,0.305
21:10:44.552,-0.25,0.29
21:10:44.556,-0.265,0.295
21:10:44.560,-0.275,0.3
21:10:44.564,-0.265,0.305
21:10:44.568,-0.25,0.315
21:10:44.572,-0.265,0.315
21:10:44.576,-0.25,0.305
21:10:44.580,-0.27,0.27
21:10:44.584,-0.305,0.285
21:10:44.588,-0.3,0.255
21:10:44.592,-0.295,0.245
21:10:44.596,-0.31,0.24
21:10:44.600,-0.29,0.24
21:10:44.604,-0.29,0.235
21:10:44.608,-0.295,0.23
21:10:44.612,-0.305,0.245
21:10:44.616,-0.255,0.22
21:10:44.620,-0.275,0.215
21:10:44.624,-0.29,0.225
21:10:44.628,-0.285,0.205
21:10:44.632,-0.29,0.21
21:10:44.636,-0.295,0.175
21:10:44.640,-0.32,0.145
21:10:44.644,-0.355,0.155
21:10:44.648,-0.365,0.155
21:10:44.652,-0.355,0.14
21:10:44.656,-0.36,0.105
21:10:44.660,-0.35,0.11
21:10:44.664,-0.37,0.105
21:10:44.668,-0.335,0.065
21:10:44.672,-0.355,0.055
21:10:44.676,-0.35,0.06
21:10:44.680,-0.34,0.06
21:10:44.684,-0.32,0.025
21:10:44.688,-0.28,0.01
21:10:44.692,-0.21,0.025
21:10:44.696,-0.12,-0.02
21:10:44.700,-0.04,0.0
21:10:44.704,0.06,-0.03
21:10:44.708,0.125,-0.06
21:10:44.712,0.195,-0.135
21:10:44.716,0.275,-0.14
21:10:44.720,0.325,-0.12
21:10:44.724,0.335,-0.145
21:10:44.728,0.345,-0.185
21:10:44.732,0.465,-0.245
21:10:44.736,0.73,-0.375
21:10:44.740,0.965,-0.565
21:10:44.744,1.11,-0.765
21:10:44.748,1.01,-0.925
21:10:44.752,0.62,-0.92
21:10:44.756,0.15,-0.685
21:10:44.760,-0.12,-0.39
21:10:44.764,-0.235,-0.2
21:10:44.768,-0.29,-0.09
21:10:44.772,-0.33,-0.035
21:10:44.776,-0.35,0.04
21:10:44.780,-0.385,0.07
21:10:44.784,-0.42,0.05
21:10:44.788,-0.435,0.06
21:10:44.792,-0.445,0.035
21:10:44.796,-0.455,-0.01
21:10:44.800,-0.445,-0.01
21:10:44.804,-0.47,-0.02
21:10:44.808,-0.475,-0.03
21:10:44.812,-0.51,-0.035
21:10:44.816,-0.53,-0.04
21:10:44.820,-0.515,-0.055
21:10:44.824,-0.485,-0.06
21:10:44.828,-0.5,-0.06
21:10:44.832,-0.495,-0.075
21:10:44.836,-0.5,-0.075
21:10:44.840,-0.505,-0.07
21:10:44.844,-0.505,-0.075
21:10:44.848,-0.495,-0.085
21:10:44.852,-0.495,-0.08
21:10:44.856,-0.5,-0.115
21:10:44.860,-0.53,-0.12
21:10:44.864,-0.53,-0.12
21:10:44.868,-0.535,-0.125
21:10:44.872,-0.535,-0.11
21:10:44.876,-0.54,-0.14
21:10:44.880,-0.57,-0.155
21:10:44.884,-0.58,-0.185
21:10:44.888,-0.585,-0.205
21:10:44.892,-0.585,-0.19
21:10:44.896,-0.595,-0.2
21:10:44.900,-0.585,-0.22
21:10:44.904,-0.6,-0.205
21:10:44.908,-0.59,-0.22
21:10:44.912,-0.57,-0.24
21:10:44.916,-0.57,-0.265
21:10:44.920,-0.56,-0.26
21:10:44.924,-0.57,-0.245
21:10:44.928,-0.54,-0.285
21:10:44.932,-0.5,-0.285
21:10:44.936,-0.49,-0.27
21:10:44.940,-0.46,-0.255
21:10:44.944,-0.43,-0.255
21:10:44.948,-0.4,-0.28
21:10:44.952,-0.365,-0.3
21:10:44.956,-0.335,-0.3
21:10:44.960,-0.3,-0.27
21:10:44.964,-0.26,-0.26
21:10:44.968,-0.26,-0.275
21:10:44.972,-0.275,-0.265
21:10:44.976,-0.25,-0.27
21:10:44.980,-0.25,-0.275
21:10:44.984,-0.265,-0.305
21:10:44.988,-0.24,-0.31
21:10:44.992,-0.265,-0.285
21:10:44.996,-0.265,-0.305
21:10:45.000,-0.26,-0.31
21:10:45.004,-0.235,-0.315
21:10:45.008,-0.24,-0.315
21:10:45.012,-0.255,-0.32
21:10:45.016,-0.26,-0.33
21:10:45.020,-0.265,-0.355
21:10:45.024,-0.255,-0.37
21:10:45.028,-0.26,-0.375
21:10:45.032,-0.265,-0.35
21:10:45.036,-0.285,-0.38
21:10:45.040,-0.29,-0.375
21:10:45.044,-0.275,-0.38
21:10:45.048,-0.285,-0.385
21:10:45.052,-0.3,-0.365
21:10:45.056,-0.29,-0.375
21:10:45.060,-0.305,-0.38
21:10:45.064,-0.315,-0.4
21:10:45.068,-0.295,-0.41
21:10:45.072,-0.295,-0.4
21:10:45.076,-0.285,-0.41
21:10:45.080,-0.32,-0.4
21:10:45.084,-0.3,-0.41
21:10:45.088,-0.32,-0.395
21:10:45.092,-0.315,-0.41
21:10:45.096,-0.31,-0.405
21:10:45.100,-0.325,-0.39
21:10:45.104,-0.33,-0.405
21:10:45.108,-0.325,-0.42
21:10:45.112,-0.325,-0.41
21:10:45.116,-0.36,-0.42
21:10:45.120,-0.35,-0.43
21:10:45.124,-0.345,-0.435
21:10:45.128,-0.34,-0.455
21:10:45.132,-0.34,-0.465
21:10:45.136,-0.305,-0.465
21:10:45.140,-0.305,-0.445
21:10:45.144,-0.28,-0.46
21:10:45.148,-0.285,-0.43
21:10:45.152,-0.27,-0.425
21:10:45.156,-0.25,-0.425
21:10:45.160,-0.245,-0.425
21:10:45.164,-0.23,-0.39
21:10:45.168,-0.195,-0.385
21:10:45.172,-0.185,-0.39
21:10:45.176,-0.155,-0.385
21:10:45.180,-0.14,-0.37
21:10:45.184,-0.1,-0.36
21:10:45.188,-0.1,-0.35
21:10:45.192,-0.09,-0.34
21:10:45.196,-0.09,-0.315
21:10:45.200,-0.08,-0.315
21:10:45.204,-0.09,-0.31
21:10:45.208,-0.11,-0.3
21:10:45.212,-0.12,-0.31
21:10:45.216,-0.12,-0.275
21:10:45.220,-0.145,-0.285
21:10:45.224,-0.15,-0.27
21:10:45.228,-0.16,-0.285
21:10:45.232,-0.145,-0.255
21:10:45.236,-0.16,-0.265
21:10:45.240,-0.17,-0.28
21:10:45.244,-0.16,-0.255
21:10:45.248,-0.17,-0.28
21:10:45.252,-0.18,-0.265
21:10:45.256,-0.19,-0.29
21:10:45.260,-0.175,-0.27
21:10:45.264,-0.175,-0.27
21:10:45.268,-0.19,-0.25
21:10:45.272,-0.19,-0.28
21:10:45.276,-0.2,-0.26
21:10:45.280,-0.195,-0.25
21:10:45.284,-0.195,-0.25
21:10:45.288,-0.185,-0.245
21:10:45.292,-0.185,-0.22
21:10:45.296,-0.195,-0.235
21:10:45.300,-0.225,-0.25
21:10:45.304,-0.205,-0.24
21:10:45.308,-0.22,-0.24
21:10:45.312,-0.23,-0.24
21:10:45.316,-0.235,-0.24
21:10:45.320,-0.24,-0.235
21:10:45.324,-0.26,-0.23
21:10:45.328,-0.26,-0.255
21:10:45.332,-0.255,-0.24
21:10:45.336,-0.27,-0.265
21:10:45.340,-0.3,-0.27
21:10:45.344,-0.305,-0.255
21:10:45.348,-0.3,-0.29
21:10:45.352,-0.29,-0.31
21:10:45.356,-0.275,-0.295
21:10:45.360,-0.265,-0.29
21:10:45.364,-0.245,-0.305
21:10:45.368,-0.225,-0.295
21:10:45.372,-0.215,-0.3
21:10:45.376,-0.2,-0.3
21:10:45.380,-0.175,-0.28
21:10:45.384,-0.17,-0.255
21:10:45.388,-0.155,-0.24
21:10:45.392,-0.11,-0.255
21:10:45.396,-0.11,-0.23
21:10:45.400,-0.08,-0.23
21:10:45.404,-0.07,-0.22
21:10:45.408,-0.055,-0.215
21:10:45.412,-0.045,-0.21
21:10:45.416,-0.055,-0.19
21:10:45.420,-0.05,-0.18
21:10:45.424,-0.055,-0.205
21:10:45.428,-0.05,-0.185
21:10:45.432,-0.08,-0.19
21:10:45.436,-0.065,-0.175
21:10:45.440,-0.075,-0.16
21:10:45.444,-0.075,-0.16
21:10:45.448,-0.085,-0.13
21:10:45.452,-0.1,-0.13
21:10:45.456,-0.105,-0.14
21:10:45.460,-0.12,-0.14
21:10:45.464,-0.13,-0.165
21:10:45.468,-0.115,-0.155
21:10:45.472,-0.12,-0.16
21:10:45.476,-0.13,-0.145
21:10:45.480,-0.13,-0.12
21:10:45.484,-0.145,-0.13
21:10:45.488,-0.14,-0.13
21:10:45.492,-0.15,-0.135
21:10:45.496,-0.155,-0.13
21:10:45.500,-0.17,-0.125
21:10:45.504,-0.165,-0.135
21:10:45.508,-0.155,-0.115
21:10:45.512,-0.145,-0.095
21:10:45.516,-0.145,-0.125
21:10:45.520,-0.145,-0.09
21:10:45.524,-0.1,-0.12
21:10:45.528,-0.015,-0.12
21:10:45.532,0.055,-0.08
21:10:45.536,0.115,-0.095
21:10:45.540,0.205,-0.1
21:10:45.544,0.26,-0.165
21:10:45.548,0.27,-0.21
21:10:45.552,0.295,-0.235
21:10:45.556,0.31,-0.25
21:10:45.560,0.275,-0.285
21:10:45.564,0.27,-0.38
21:10:45.568,0.375,-0.47
21:10:45.572,0.63,-0.65
21:10:45.576,0.945,-0.89
21:10:45.580,1.155,-1.1
21:10:45.584,1.19,-1.275
21:10:45.588,0.915,-1.265
21:10:45.592,0.44,-0.99
21:10:45.596,0.07,-0.645
21:10:45.600,-0.12,-0.385
21:10:45.604,-0.185,-0.22
21:10:45.608,-0.195,-0.125
21:10:45.612,-0.19,-0.045
21:10:45.616,-0.19,-0.01
21:10:45.620,-0.2,0.03
21:10:45.624,-0.195,0.03
21:10:45.628,-0.205,0.03
21:10:45.632,-0.195,0.035
21:10:45.636,-0.205,0.035
21:10:45.640,-0.22,0.025
21:10:45.644,-0.225,0.03
21:10:45.648,-0.23,0.025
21:10:45.652,-0.245,0.035
21:10:45.656,-0.255,0.045
21:10:45.660,-0.27,0.035
21:10:45.664,-0.27,0.05
21:10:45.668,-0.295,0.045
21:10:45.672,-0.285,0.045
21:10:45.676,-0.295,0.055
21:10:45.680,-0.3,0.045
21:10:45.684,-0.33,0.035
21:10:45.688,-0.33,0.05
21:10:45.692,-0.335,0.035
21:10:45.696,-0.365,0.05
21:10:45.700,-0.355,0.05
21:10:45.704,-0.36,0.045
21:10:45.708,-0.37,0.025
21:10:45.712,-0.395,0.04
21:10:45.716,-0.39,0.035
21:10:45.720,-0.4,0.04
21:10:45.724,-0.41,0.045
21:10:45.728,-0.43,0.02
21:10:45.732,-0.415,0.03
21:10:45.736,-0.44,0.04
21:10:45.740,-0.445,0.045
21:10:45.744,-0.455,0.045
21:10:45.748,-0.465,0.06
21:10:45.752,-0.44,0.07
21:10:45.756,-0.445,0.085
21:10:45.760,-0.43,0.075
21:10:45.764,-0.445,0.07
21:10:45.768,-0.44,0.075
21:10:45.772,-0.445,0.065
21:10:45.776,-0.445,0.03
21:10:45.780,-0.465,0.005
21:10:45.784,-0.44,0.015
21:10:45.788,-0.445,0.02
21:10:45.792,-0.43,-0.005
21:10:45.796,-0.43,0.005
21:10:45.800,-0.42,0.0
21:10:45.804,-0.38,-0.015
21:10:45.808,-0.38,-0.015
21:10:45.812,-0.345,-0.02
21:10:45.816,-0.315,-0.02
21:10:45.820,-0.295,-0.04
21:10:45.824,-0.26,-0.055
21:10:45.828,-0.23,-0.06
21:10:45.832,-0.225,-0.06
21:10:45.836,-0.205,-0.075
21:10:45.840,-0.185,-0.055
21:10:45.844,-0.14,-0.04
21:10:45.848,-0.125,-0.025
21:10:45.852,-0.11,-0.025
21:10:45.856,-0.11,-0.05
21:10:45.860,-0.1,-0.035
21:10:45.864,-0.105,-0.005
21:10:45.868,-0.1,0.0
21:10:45.872,-0.105,-0.005
21:10:45.876,-0.095,0.015
21:10:45.880,-0.09,0.015
21:10:45.884,-0.115,0.01
21:10:45.888,-0.115,0.005
21:10:45.892,-0.125,0.01
21:10:45.896,-0.1,0.02
21:10:45.900,-0.12,0.015
21:10:45.904,-0.115,0.035
21:10:45.908,-0.13,0.035
21:10:45.912,-0.145,0.02
21:10:45.916,-0.17,0.015
21:10:45.920,-0.175,0.03
21:10:45.924,-0.175,0.02
21:10:45.928,-0.205,0.04
21:10:45.932,-0.215,0.025
21:10:45.936,-0.23,0.025
21:10:45.940,-0.255,0.025
21:10:45.944,-0.26,0.015
21:10:45.948,-0.265,0.03
21:10:45.952,-0.26,0.03
21:10:45.956,-0.25,0.04
21:10:45.960,-0.265,0.04
21:10:45.964,-0.26,0.045
21:10:45.968,-0.27,0.04
21:10:45.972,-0.275,0.06
21:10:45.976,-0.29,0.06
21:10:45.980,-0.295,0.04
21:10:45.984,-0.29,0.05
21:10:45.988,-0.285,0.045
21:10:45.992,-0.295,0.07
21:10:45.996,-0.285,0.06
21:10:46.000,-0.29,0.05
21:10:46.004,-0.28,0.05
21:10:46.008,-0.275,0.035
21:10:46.012,-0.27,0.02
21:10:46.016,-0.26,0.03
21:10:46.020,-0.255,0.01
21:10:46.024,-0.245,0.02
21:10:46.028,-0.245,0.01
21:10:46.032,-0.22,0.005
21:10:46.036,-0.195,-0.005
21:10:46.040,-0.18,-0.03
21:10:46.044,-0.15,-0.01
21:10:46.048,-0.14,0.0
21:10:46.052,-0.14,-0.005
21:10:46.056,-0.12,-0.005
21:10:46.060,-0.12,0.0
21:10:46.064,-0.105,0.02
21:10:46.068,-0.075,0.015
21:10:46.072,-0.06,0.015
21:10:46.076,-0.055,0.02
21:10:46.080,-0.08,0.03
21:10:46.084,-0.04,0.04
21:10:46.088,-0.005,0.01
21:10:46.092,0.035,0.025
21:10:46.096,0.11,0.025
21:10:46.100,0.165,0.02
21:10:46.104,0.24,-0.01
21:10:46.108,0.27,-0.04
21:10:46.112,0.29,-0.07
21:10:46.116,0.295,-0.105
21:10:46.120,0.3,-0.1
21:10:46.124,0.29,-0.115
21:10:46.128,0.315,-0.185
21:10:46.132,0.505,-0.32
21:10:46.136,0.755,-0.5
21:10:46.140,1.015,-0.735
21:10:46.144,1.16,-0.99
21:10:46.148,1.01,-1.07
21:10:46.152,0.635,-0.96
21:10:46.156,0.165,-0.63
21:10:46.160,-0.145,-0.29
21:10:46.164,-0.26,-0.09
21:10:46.168,-0.35,0.03
21:10:46.172,-0.365,0.13
21:10:46.176,-0.36,0.155
21:10:46.180,-0.405,0.185
21:10:46.184,-0.4,0.19
21:10:46.188,-0.4,0.17
21:10:46.192,-0.43,0.18
21:10:46.196,-0.43,0.155
21:10:46.200,-0.455,0.14
21:10:46.204,-0.45,0.125
21:10:46.208,-0.445,0.12
21:10:46.212,-0.445,0.13
21:10:46.216,-0.425,0.155
21:10:46.220,-0.415,0.15
21:10:46.224,-0.435,0.16
21:10:46.228,-0.42,0.17
21:10:46.232,-0.425,0.14
21:10:46.236,-0.42,0.135
21:10:46.240,-0.425,0.115
21:10:46.244,-0.4,0.135
21:10:46.248,-0.42,0.1
21:10:46.252,-0.405,0.11
21:10:46.256,-0.37,0.1
21:10:46.260,-0.37,0.095
21:10:46.264,-0.335,0.1
21:10:46.268,-0.345,0.115
21:10:46.272,-0.345,0.12
21:10:46.276,-0.335,0.135
21:10:46.280,-0.335,0.14
21:10:46.284,-0.33,0.135
21:10:46.288,-0.32,0.13
21:10:46.292,-0.31,0.14
21:10:46.296,-0.3,0.145
21:10:46.300,-0.32,0.16
21:10:46.304,-0.305,0.175
21:10:46.308,-0.295,0.185
21:10:46.312,-0.305,0.175
21:10:46.316,-0.295,0.175
21:10:46.320,-0.3,0.17
21:10:46.324,-0.285,0.16
21:10:46.328,-0.29,0.14
21:10:46.332,-0.285,0.145
21:10:46.336,-0.265,0.145
21:10:46.340,-0.265,0.135
21:10:46.344,-0.265,0.135
21:10:46.348,-0.285,0.14
21:10:46.352,-0.29,0.125
21:10:46.356,-0.265,0.09
21:10:46.360,-0.25,0.085
21:10:46.364,-0.24,0.07
21:10:46.368,-0.25,0.105
21:10:46.372,-0.24,0.05
21:10:46.376,-0.26,0.05
21:10:46.380,-0.26,0.035
21:10:46.384,-0.265,0.045
21:10:46.388,-0.28,0.07
21:10:46.392,-0.27,0.05
21:10:46.396,-0.265,0.045
21:10:46.400,-0.295,0.04
21:10:46.404,-0.28,0.035
21:10:46.408,-0.265,0.055
21:10:46.412,-0.255,0.06
21:10:46.416,-0.26,0.065
21:10:46.420,-0.27,0.05
21:10:46.424,-0.255,0.07
21:10:46.428,-0.27,0.055
21:10:46.432,-0.26,0.075
21:10:46.436,-0.25,0.08
21:10:46.440,-0.26,0.08
21:10:46.444,-0.24,0.08
21:10:46.448,-0.23,0.09
21:10:46.452,-0.225,0.1
21:10:46.456,-0.24,0.085
21:10:46.460,-0.22,0.095
21:10:46.464,-0.205,0.1
21:10:46.468,-0.195,0.065
21:10:46.472,-0.2,0.095
21:10:46.476,-0.205,0.085
21:10:46.480,-0.185,0.06
21:10:46.484,-0.18,0.065
21:10:46.488,-0.145,0.075
21:10:46.492,-0.155,0.06
21:10:46.496,-0.135,0.055
21:10:46.500,-0.145,0.075
21:10:46.504,-0.135,0.08
21:10:46.508,-0.125,0.085
21:10:46.512,-0.1,0.09
21:10:46.516,-0.1,0.1
21:10:46.520,-0.115,0.13
21:10:46.524,-0.095,0.155
21:10:46.528,-0.1,0.14
21:10:46.532,-0.105,0.135
21:10:46.536,-0.09,0.14
21:10:46.540,-0.08,0.11
21:10:46.544,-0.08,0.11
21:10:46.548,-0.105,0.125
21:10:46.552,-0.125,0.125
21:10:46.556,-0.11,0.1
21:10:46.560,-0.125,0.1
21:10:46.564,-0.13,0.105
21:10:46.568,-0.145,0.08
21:10:46.572,-0.14,0.1
21:10:46.576,-0.145,0.1
21:10:46.580,-0.17,0.09
21:10:46.584,-0.15,0.06
21:10:46.588,-0.16,0.07
21:10:46.592,-0.175,0.055
21:10:46.596,-0.205,0.07
21:10:46.600,-0.19,0.05
21:10:46.604,-0.21,0.04
21:10:46.608,-0.22,0.065
21:10:46.612,-0.24,0.04
21:10:46.616,-0.25,0.07
21:10:46.620,-0.255,0.07
21:10:46.624,-0.25,0.055
21:10:46.628,-0.265,0.06
21:10:46.632,-0.285,0.08
21:10:46.636,-0.305,0.06
21:10:46.640,-0.29,0.085
21:10:46.644,-0.3,0.075
21:10:46.648,-0.295,0.08
21:10:46.652,-0.29,0.055
21:10:46.656,-0.23,0.055
21:10:46.660,-0.155,0.065
21:10:46.664,-0.075,0.035
21:10:46.668,0.015,0.06
21:10:46.672,0.095,0.04
21:10:46.676,0.105,0.02
21:10:46.680,0.115,-0.01
21:10:46.684,0.14,-0.035
21:10:46.688,0.135,-0.045
21:10:46.692,0.145,-0.08
21:10:46.696,0.16,-0.185
21:10:46.700,0.34,-0.285
21:10:46.704,0.645,-0.46
21:10:46.708,0.94,-0.685
21:10:46.712,1.07,-0.945
21:10:46.716,0.96,-1.065
21:10:46.720,0.57,-0.995
21:10:46.724,0.12,-0.715
21:10:46.728,-0.145,-0.365
21:10:46.732,-0.24,-0.145
21:10:46.736,-0.26,0.005
21:10:46.740,-0.27,0.1
21:10:46.744,-0.275,0.175
21:10:46.748,-0.29,0.18
21:10:46.752,-0.27,0.185
21:10:46.756,-0.27,0.195
21:10:46.760,-0.28,0.2
21:10:46.764,-0.28,0.17
21:10:46.768,-0.275,0.125
21:10:46.772,-0.29,0.115
21:10:46.776,-0.31,0.13
21:10:46.780,-0.33,0.135
21:10:46.784,-0.325,0.155
21:10:46.788,-0.33,0.14
21:10:46.792,-0.34,0.125
21:10:46.796,-0.325,0.125
21:10:46.800,-0.37,0.13
21:10:46.804,-0.385,0.125
21:10:46.808,-0.375,0.115
21:10:46.812,-0.405,0.13
21:10:46.816,-0.415,0.12
21:10:46.820,-0.435,0.125
21:10:46.824,-0.41,0.125
21:10:46.828,-0.45,0.115
21:10:46.832,-0.44,0.115
21:10:46.836,-0.47,0.115
21:10:46.840,-0.475,0.115
21:10:46.844,-0.485,0.12
21:10:46.848,-0.485,0.13
21:10:46.852,-0.48,0.13
21:10:46.856,-0.5,0.135
21:10:46.860,-0.5,0.155
21:10:46.864,-0.515,0.145
21:10:46.868,-0.485,0.145
21:10:46.872,-0.505,0.155
21:10:46.876,-0.48,0.16
21:10:46.880,-0.48,0.15
21:10:46.884,-0.48,0.12
21:10:46.888,-0.5,0.14
21:10:46.892,-0.49,0.155
21:10:46.896,-0.47,0.13
21:10:46.900,-0.48,0.135
21:10:46.904,-0.48,0.145
21:10:46.908,-0.465,0.135
21:10:46.912,-0.445,0.145
21:10:46.916,-0.44,0.155
21:10:46.920,-0.41,0.14
21:10:46.924,-0.41,0.165
21:10:46.928,-0.4,0.145
21:10:46.932,-0.385,0.15
21:10:46.936,-0.36,0.135
21:10:46.940,-0.375,0.15
21:10:46.944,-0.345,0.145
21:10:46.948,-0.32,0.115
21:10:46.952,-0.32,0.115
21:10:46.956,-0.29,0.13
21:10:46.960,-0.265,0.1
21:10:46.964,-0.27,0.105
21:10:46.968,-0.245,0.115
21:10:46.972,-0.245,0.125
21:10:46.976,-0.21,0.13
21:10:46.980,-0.21,0.145
21:10:46.984,-0.215,0.155
21:10:46.988,-0.205,0.17
21:10:46.992,-0.2,0.195
21:10:46.996,-0.195,0.2
21:10:47.000,-0.215,0.215
21:10:47.004,-0.23,0.22
21:10:47.008,-0.235,0.225
21:10:47.012,-0.23,0.205
21:10:47.016,-0.23,0.22
21:10:47.020,-0.275,0.235
21:10:47.024,-0.285,0.24
21:10:47.028,-0.27,0.225
21:10:47.032,-0.285,0.23
21:10:47.036,-0.285,0.245
21:10:47.040,-0.315,0.235
21:10:47.044,-0.33,0.22
21:10:47.048,-0.335,0.24
21:10:47.052,-0.36,0.26
21:10:47.056,-0.375,0.23
21:10:47.060,-0.375,0.21
21:10:47.064,-0.385,0.235
21:10:47.068,-0.385,0.245
21:10:47.072,-0.385,0.23
21:10:47.076,-0.385,0.24
21:10:47.080,-0.39,0.245
21:10:47.084,-0.39,0.245
21:10:47.088,-0.38,0.245
21:10:47.092,-0.355,0.245
21:10:47.096,-0.345,0.225
21:10:47.100,-0.33,0.235
21:10:47.104,-0.3,0.215
21:10:47.108,-0.3,0.235
21:10:47.112,-0.275,0.215
21:10:47.116,-0.255,0.24
21:10:47.120,-0.24,0.245
21:10:47.124,-0.19,0.24
21:10:47.128,-0.105,0.24
21:10:47.132,-0.055,0.225
21:10:47.136,0.03,0.21
21:10:47.140,0.095,0.17
21:10:47.144,0.1,0.145
21:10:47.148,0.115,0.125
21:10:47.152,0.115,0.13
21:10:47.156,0.095,0.115
21:10:47.160,0.145,0.075
21:10:47.164,0.37,-0.05
21:10:47.168,0.7,-0.235
21:10:47.172,0.965,-0.48
21:10:47.176,1.03,-0.73
21:10:47.180,0.815,-0.79
21:10:47.184,0.34,-0.62
21:10:47.188,-0.025,-0.29
21:10:47.192,-0.22,-0.03
21:10:47.196,-0.3,0.13
21:10:47.200,-0.335,0.21
21:10:47.204,-0.325,0.28
21:10:47.208,-0.335,0.29
21:10:47.212,-0.345,0.3
21:10:47.216,-0.355,0.295
21:10:47.220,-0.395,0.27
21:10:47.224,-0.43,0.255
21:10:47.228,-0.43,0.24
21:10:47.232,-0.435,0.21
21:10:47.236,-0.44,0.23
21:10:47.240,-0.465,0.205
21:10:47.244,-0.475,0.185
21:10:47.248,-0.505,0.175
21:10:47.252,-0.495,0.175
21:10:47.256,-0.505,0.175
21:10:47.260,-0.535,0.165
21:10:47.264,-0.52,0.175
21:10:47.268,-0.57,0.145
21:10:47.272,-0.57,0.145
21:10:47.276,-0.575,0.15
21:10:47.280,-0.59,0.155
21:10:47.284,-0.605,0.14
21:10:47.288,-0.59,0.155
21:10:47.292,-0.59,0.155
21:10:47.296,-0.6,0.135
21:10:47.300,-0.6,0.15
21:10:47.304,-0.605,0.165
21:10:47.308,-0.585,0.155
21:10:47.312,-0.585,0.14
21:10:47.316,-0.57,0.13
21:10:47.320,-0.55,0.12
21:10:47.324,-0.545,0.135
21:10:47.328,-0.54,0.115
21:10:47.332,-0.555,0.14
21:10:47.336,-0.555,0.125
21:10:47.340,-0.56,0.1
21:10:47.344,-0.53,0.095
21:10:47.348,-0.525,0.11
21:10:47.352,-0.515,0.095
21:10:47.356,-0.505,0.1
21:10:47.360,-0.495,0.085
21:10:47.364,-0.48,0.06
21:10:47.368,-0.46,0.055
21:10:47.372,-0.45,0.075
21:10:47.376,-0.445,0.08
21:10:47.380,-0.43,0.065
21:10:47.384,-0.4,0.035
21:10:47.388,-0.4,0.03
21:10:47.392,-0.4,0.025
21:10:47.396,-0.365,0.035
21:10:47.400,-0.33,0.025
21:10:47.404,-0.34,0.02
21:10:47.408,-0.295,0.02
21:10:47.412,-0.275,0.025
21:10:47.416,-0.27,-0.015
21:10:47.420,-0.225,-0.01
21:10:47.424,-0.235,-0.015
21:10:47.428,-0.22,-0.05
21:10:47.432,-0.21,-0.065
21:10:47.436,-0.225,-0.08
21:10:47.440,-0.225,-0.08
21:10:47.444,-0.24,-0.075
21:10:47.448,-0.225,-0.095
21:10:47.452,-0.255,-0.085
21:10:47.456,-0.26,-0.12
21:10:47.460,-0.245,-0.1
21:10:47.464,-0.265,-0.135
21:10:47.468,-0.25,-0.135
21:10:47.472,-0.255,-0.135
21:10:47.476,-0.275,-0.12
21:10:47.480,-0.305,-0.12
21:10:47.484,-0.29,-0.145
21:10:47.488,-0.305,-0.15
21:10:47.492,-0.29,-0.14
21:10:47.496,-0.3,-0.12
21:10:47.500,-0.32,-0.15
21:10:47.504,-0.32,-0.155
21:10:47.508,-0.325,-0.175
21:10:47.512,-0.31,-0.15
21:10:47.516,-0.32,-0.185
21:10:47.520,-0.28,-0.18
21:10:47.524,-0.225,-0.18
21:10:47.528,-0.155,-0.155
21:10:47.532,-0.06,-0.215
21:10:47.536,0.01,-0.23
21:10:47.540,0.07,-0.27
21:10:47.544,0.13,-0.31
21:10:47.548,0.185,-0.315
21:10:47.552,0.185,-0.325
21:10:47.556,0.165,-0.335
21:10:47.560,0.205,-0.365
21:10:47.564,0.4,-0.43
21:10:47.568,0.695,-0.625
21:10:47.572,0.92,-0.845
21:10:47.576,0.97,-1.065
21:10:47.580,0.755,-1.185
21:10:47.584,0.31,-1.09
21:10:47.588,-0.08,-0.795
21:10:47.592,-0.3,-0.51
21:10:47.596,-0.37,-0.375
21:10:47.600,-0.405,-0.305
21:10:47.604,-0.415,-0.19
21:10:47.608,-0.41,-0.17
21:10:47.612,-0.425,-0.12
21:10:47.616,-0.42,-0.13
21:10:47.620,-0.46,-0.145
21:10:47.624,-0.47,-0.185
21:10:47.628,-0.47,-0.19
21:10:47.632,-0.45,-0.2
21:10:47.636,-0.455,-0.225
21:10:47.640,-0.455,-0.22
21:10:47.644,-0.465,-0.205
21:10:47.648,-0.445,-0.22
21:10:47.652,-0.425,-0.235
21:10:47.656,-0.425,-0.245
21:10:47.660,-0.445,-0.25
21:10:47.664,-0.45,-0.28
21:10:47.668,-0.445,-0.3
21:10:47.672,-0.465,-0.28
21:10:47.676,-0.475,-0.295
21:10:47.680,-0.48,-0.305
21:10:47.684,-0.48,-0.305
21:10:47.688,-0.475,-0.31
21:10:47.692,-0.5,-0.29
21:10:47.696,-0.505,-0.29
21:10:47.700,-0.515,-0.275
21:10:47.704,-0.52,-0.3
21:10:47.708,-0.545,-0.29
21:10:47.712,-0.55,-0.285
21:10:47.716,-0.565,-0.29
21:10:47.720,-0.57,-0.29
21:10:47.724,-0.555,-0.29
21:10:47.728,-0.555,-0.265
21:10:47.732,-0.565,-0.27
21:10:47.736,-0.57,-0.275
21:10:47.740,-0.58,-0.27
21:10:47.744,-0.56,-0.275
21:10:47.748,-0.565,-0.27
21:10:47.752,-0.555,-0.27
21:10:47.756,-0.535,-0.27
21:10:47.760,-0.53,-0.26
21:10:47.764,-0.5,-0.27
21:10:47.768,-0.495,-0.265
21:10:47.772,-0.505,-0.26
21:10:47.776,-0.495,-0.245
21:10:47.780,-0.48,-0.255
21:10:47.784,-0.46,-0.265
21:10:47.788,-0.44,-0.27
21:10:47.792,-0.415,-0.26
21:10:47.796,-0.39,-0.27
21:10:47.800,-0.39,-0.27
21:10:47.804,-0.385,-0.26
21:10:47.808,-0.365,-0.255
21:10:47.812,-0.355,-0.275
21:10:47.816,-0.345,-0.225
21:10:47.820,-0.315,-0.225
21:10:47.824,-0.315,-0.22
21:10:47.828,-0.3,-0.23
21:10:47.832,-0.27,-0.195
21:10:47.836,-0.26,-0.205
21:10:47.840,-0.26,-0.17
21:10:47.844,-0.23,-0.155
21:10:47.848,-0.23,-0.13
21:10:47.852,-0.21,-0.115
21:10:47.856,-0.205,-0.105
21:10:47.860,-0.22,-0.11
21:10:47.864,-0.215,-0.11
21:10:47.868,-0.22,-0.075
21:10:47.872,-0.23,-0.065
21:10:47.876,-0.25,-0.065
21:10:47.880,-0.24,-0.08
21:10:47.884,-0.255,-0.08
21:10:47.888,-0.295,-0.09
21:10:47.892,-0.285,-0.075
21:10:47.896,-0.275,-0.095
21:10:47.900,-0.255,-0.105
21:10:47.904,-0.295,-0.105
21:10:47.908,-0.29,-0.115
21:10:47.912,-0.29,-0.12
21:10:47.916,-0.285,-0.125
21:10:47.920,-0.305,-0.12
21:10:47.924,-0.32,-0.1
21:10:47.928,-0.33,-0.095
21:10:47.932,-0.32,-0.1
21:10:47.936,-0.35,-0.105
21:10:47.940,-0.31,-0.095
21:10:47.944,-0.31,-0.085
21:10:47.948,-0.285,-0.08
21:10:47.952,-0.275,-0.09
21:10:47.956,-0.28,-0.085
21:10:47.960,-0.26,-0.09
21:10:47.964,-0.25,-0.055
21:10:47.968,-0.24,-0.075
21:10:47.972,-0.245,-0.06
21:10:47.976,-0.235,-0.055
21:10:47.980,-0.24,-0.06
21:10:47.984,-0.235,-0.065
21:10:47.988,-0.235,-0.06
21:10:47.992,-0.225,-0.035
21:10:47.996,-0.22,-0.025
21:10:48.000,-0.215,-0.06
21:10:48.004,-0.23,-0.025
21:10:48.008,-0.23,-0.055
21:10:48.012,-0.215,-0.03
21:10:48.016,-0.235,-0.03
21:10:48.020,-0.235,-0.04
21:10:48.024,-0.24,-0.03
21:10:48.028,-0.25,-0.025
21:10:48.032,-0.24,-0.01
21:10:48.036,-0.245,-0.005
21:10:48.040,-0.23,-0.04
21:10:48.044,-0.2,-0.05
21:10:48.048,-0.21,-0.01
21:10:48.052,-0.195,-0.03
21:10:48.056,-0.185,-0.035
21:10:48.060,-0.2,-0.035
21:10:48.064,-0.2,-0.02
21:10:48.068,-0.205,-0.01
21:10:48.072,-0.195,-0.02
21:10:48.076,-0.205,-0.01
21:10:48.080,-0.2,0.03
21:10:48.084,-0.2,0.005
21:10:48.088,-0.205,0.015
21:10:48.092,-0.22,0.025
21:10:48.096,-0.22,0.02
21:10:48.100,-0.24,0.015
21:10:48.104,-0.245,0.02
21:10:48.108,-0.255,0.03
21:10:48.112,-0.255,0.025
21:10:48.116,-0.26,0.0
21:10:48.120,-0.285,0.0
21:10:48.124,-0.265,0.0
21:10:48.128,-0.26,-0.02
21:10:48.132,-0.27,-0.035
21:10:48.136,-0.27,-0.035
21:10:48.140,-0.295,-0.025
21:10:48.144,-0.3,-0.06
21:10:48.148,-0.31,-0.035
21:10:48.152,-0.31,-0.045
21:10:48.156,-0.295,-0.045
21:10:48.160,-0.285,-0.03
21:10:48.164,-0.26,-0.02
21:10:48.168,-0.235,-0.02
21:10:48.172,-0.205,-0.04
21:10:48.176,-0.21,-0.01
21:10:48.180,-0.215,-0.02
21:10:48.184,-0.19,0.01
21:10:48.188,-0.2,0.015
21:10:48.192,-0.2,0.02
21:10:48.196,-0.205,0.025
21:10:48.200,-0.21,0.03
21:10:48.204,-0.19,0.025
21:10:48.208,-0.18,0.035
21:10:48.212,-0.19,0.03
21:10:48.216,-0.195,0.02
21:10:48.220,-0.195,0.02
21:10:48.224,-0.21,0.045
21:10:48.228,-0.17,0.025
21:10:48.232,-0.195,0.045
21:10:48.236,-0.18,0.015
21:10:48.240,-0.195,0.015
21:10:48.244,-0.195,0.01
21:10:48.248,-0.18,0.015
21:10:48.252,-0.19,0.015
21:10:48.256,-0.185,0.01
21:10:48.260,-0.19,0.025
21:10:48.264,-0.165,0.025
21:10:48.268,-0.16,0.035
21:10:48.272,-0.15,0.02
21:10:48.276,-0.15,0.005
21:10:48.280,-0.135,0.015
21:10:48.284,-0.125,0.035
21:10:48.288,-0.12,0.035
21:10:48.292,-0.11,0.06
21:10:48.296,-0.1,0.08
21:10:48.300,-0.11,0.065
21:10:48.304,-0.1,0.075
21:10:48.308,-0.09,0.065
21:10:48.312,-0.1,0.09
21:10:48.316,-0.125,0.08
21:10:48.320,-0.12,0.08
21:10:48.324,-0.135,0.095
21:10:48.328,-0.11,0.08
21:10:48.332,-0.075,0.08
21:10:48.336,-0.01,0.09
21:10:48.340,0.05,0.085
21:10:48.344,0.13,0.08
21:10:48.348,0.18,0.06
21:10:48.352,0.21,0.02
21:10:48.356,0.225,-0.03
21:10:48.360,0.245,-0.025
21:10:48.364,0.245,-0.035
21:10:48.368,0.2,-0.095
21:10:48.372,0.23,-0.195
21:10:48.376,0.38,-0.335
21:10:48.380,0.685,-0.525
21:10:48.384,0.96,-0.8
21:10:48.388,1.14,-1.015
21:10:48.392,1.075,-1.145
21:10:48.396,0.78,-1.065
21:10:48.400,0.305,-0.745
21:10:48.404,-0.06,-0.38
21:10:48.408,-0.23,-0.125
21:10:48.412,-0.305,0.01
21:10:48.416,-0.35,0.125
21:10:48.420,-0.355,0.185
21:10:48.424,-0.355,0.21
21:10:48.428,-0.375,0.18
21:10:48.432,-0.355,0.21
21:10:48.436,-0.375,0.18
21:10:48.440,-0.38,0.185
21:10:48.444,-0.39,0.15
21:10:48.448,-0.4,0.15
21:10:48.452,-0.39,0.155
21:10:48.456,-0.375,0.155
21:10:48.460,-0.39,0.135
21:10:48.464,-0.37,0.145
21:10:48.468,-0.4,0.145
21:10:48.472,-0.395,0.13
21:10:48.476,-0.395,0.13
21:10:48.480,-0.405,0.13
21:10:48.484,-0.41,0.125
21:10:48.488,-0.395,0.135
21:10:48.492,-0.4,0.11
21:10:48.496,-0.385,0.11
21:10:48.500,-0.375,0.13
21:10:48.504,-0.36,0.105
21:10:48.508,-0.38,0.115
21:10:48.512,-0.37,0.125
21:10:48.516,-0.385,0.13
21:10:48.520,-0.375,0.135
21:10:48.524,-0.38,0.13
21:10:48.528,-0.37,0.125
21:10:48.532,-0.37,0.14
21:10:48.536,-0.38,0.15
21:10:48.540,-0.41,0.145
21:10:48.544,-0.395,0.185
21:10:48.548,-0.415,0.17
21:10:48.552,-0.41,0.18
21:10:48.556,-0.415,0.17
21:10:48.560,-0.415,0.165
21:10:48.564,-0.425,0.155
21:10:48.568,-0.44,0.15
21:10:48.572,-0.425,0.155
21:10:48.576,-0.45,0.155
21:10:48.580,-0.46,0.18
21:10:48.584,-0.47,0.17
21:10:48.588,-0.46,0.145
21:10:48.592,-0.45,0.125
21:10:48.596,-0.44,0.12
21:10:48.600,-0.415,0.105
21:10:48.604,-0.38,0.105
21:10:48.608,-0.37,0.09
21:10:48.612,-0.35,0.095
21:10:48.616,-0.33,0.07
21:10:48.620,-0.335,0.085
21:10:48.624,-0.32,0.07
21:10:48.628,-0.32,0.06
21:10:48.632,-0.32,0.055
21:10:48.636,-0.295,0.055
21:10:48.640,-0.29,0.03
21:10:48.644,-0.265,0.035
21:10:48.648,-0.26,0.03
21:10:48.652,-0.255,0.03
21:10:48.656,-0.245,0.04
21:10:48.660,-0.23,0.04
21:10:48.664,-0.245,0.05
21:10:48.668,-0.23,0.03
21:10:48.672,-0.225,0.03
21:10:48.676,-0.245,0.03
21:10:48.680,-0.23,0.01
21:10:48.684,-0.225,-0.005
21:10:48.688,-0.205,0.005
21:10:48.692,-0.205,0.0
21:10:48.696,-0.225,0.01
21:10:48.700,-0.205,0.0
21:10:48.704,-0.225,-0.01
21:10:48.708,-0.23,-0.005
21:10:48.712,-0.255,0.01
21:10:48.716,-0.23,0.025
21:10:48.720,-0.22,0.0
21:10:48.724,-0.22,0.025
21:10:48.728,-0.235,0.025
21:10:48.732,-0.215,0.025
21:10:48.736,-0.2,0.045
21:10:48.740,-0.215,0.015
21:10:48.744,-0.215,0.04
21:10:48.748,-0.18,0.04
21:10:48.752,-0.2,0.035
21:10:48.756,-0.185,0.04
21:10:48.760,-0.185,0.045
21:10:48.764,-0.215,0.035
21:10:48.768,-0.2,0.075
21:10:48.772,-0.24,0.065
21:10:48.776,-0.235,0.085
21:10:48.780,-0.22,0.115
21:10:48.784,-0.245,0.105
21:10:48.788,-0.25,0.11
21:10:48.792,-0.245,0.09
21:10:48.796,-0.27,0.085
21:10:48.800,-0.295,0.105
21:10:48.804,-0.31,0.09
21:10:48.808,-0.305,0.125
21:10:48.812,-0.325,0.09
21:10:48.816,-0.33,0.105
21:10:48.820,-0.32,0.09
21:10:48.824,-0.305,0.1
21:10:48.828,-0.285,0.08
21:10:48.832,-0.235,0.075
21:10:48.836,-0.24,0.055
21:10:48.840,-0.255,0.07
21:10:48.844,-0.245,0.075
21:10:48.848,-0.225,0.07
21:10:48.852,-0.22,0.095
21:10:48.856,-0.19,0.055
21:10:48.860,-0.14,0.08
21:10:48.864,-0.085,0.085
21:10:48.868,-0.05,0.07
21:10:48.872,0.02,0.06
21:10:48.876,0.07,0.05
21:10:48.880,0.12,0.015
21:10:48.884,0.13,-0.055
21:10:48.888,0.14,-0.075
21:10:48.892,0.15,-0.095
21:10:48.896,0.125,-0.085
21:10:48.900,0.15,-0.145
21:10:48.904,0.305,-0.26
21:10:48.908,0.59,-0.435
21:10:48.912,0.87,-0.66
21:10:48.916,1.02,-0.92
21:10:48.920,0.905,-1.09
21:10:48.924,0.525,-1.03
21:10:48.928,0.105,-0.75
21:10:48.932,-0.155,-0.395
21:10:48.936,-0.275,-0.165
21:10:48.940,-0.315,-0.02
21:10:48.944,-0.32,0.06
21:10:48.948,-0.315,0.1
21:10:48.952,-0.35,0.135
21:10:48.956,-0.35,0.135
21:10:48.960,-0.33,0.16
21:10:48.964,-0.33,0.14
21:10:48.968,-0.325,0.135
21:10:48.972,-0.34,0.1
21:10:48.976,-0.35,0.095
21:10:48.980,-0.355,0.095
21:10:48.984,-0.36,0.095
21:10:48.988,-0.405,0.115
21:10:48.992,-0.39,0.1
21:10:48.996,-0.405,0.115
21:10:49.000,-0.405,0.11
21:10:49.004,-0.42,0.115
21:10:49.008,-0.445,0.125
21:10:49.012,-0.455,0.13
21:10:49.016,-0.465,0.155
21:10:49.020,-0.495,0.14
21:10:49.024,-0.51,0.16
21:10:49.028,-0.52,0.135
21:10:49.032,-0.545,0.15
21:10:49.036,-0.535,0.15
21:10:49.040,-0.525,0.15
21:10:49.044,-0.55,0.15
21:10:49.048,-0.535,0.13
21:10:49.052,-0.53,0.13
21:10:49.056,-0.505,0.145
21:10:49.060,-0.49,0.13
21:10:49.064,-0.48,0.135
21:10:49.068,-0.485,0.14
21:10:49.072,-0.48,0.13
21:10:49.076,-0.5,0.115
21:10:49.080,-0.475,0.115
21:10:49.084,-0.5,0.115
21:10:49.088,-0.49,0.11
21:10:49.092,-0.485,0.1
21:10:49.096,-0.475,0.12
21:10:49.100,-0.47,0.105
21:10:49.104,-0.45,0.13
21:10:49.108,-0.485,0.11
21:10:49.112,-0.46,0.09
21:10:49.116,-0.445,0.085
21:10:49.120,-0.445,0.09
21:10:49.124,-0.435,0.06
21:10:49.128,-0.435,0.045
21:10:49.132,-0.415,0.035
21:10:49.136,-0.405,0.04
21:10:49.140,-0.385,0.025
21:10:49.144,-0.385,0.015
21:10:49.148,-0.365,0.02
21:10:49.152,-0.36,0.025
21:10:49.156,-0.345,0.025
21:10:49.160,-0.345,0.005
21:10:49.164,-0.32,0.03
21:10:49.168,-0.305,0.02
21:10:49.172,-0.295,0.0
21:10:49.176,-0.27,0.02
21:10:49.180,-0.265,0.03
21:10:49.184,-0.255,0.02
21:10:49.188,-0.24,0.015
21:10:49.192,-0.22,0.015
21:10:49.196,-0.215,0.01
21:10:49.200,-0.215,0.025
21:10:49.204,-0.205,0.02
21:10:49.208,-0.195,0.035
21:10:49.212,-0.225,0.04
21:10:49.216,-0.19,0.06
21:10:49.220,-0.185,0.065
21:10:49.224,-0.16,0.085
21:10:49.228,-0.18,0.1
21:10:49.232,-0.19,0.135
21:10:49.236,-0.21,0.145
21:10:49.240,-0.21,0.17
21:10:49.244,-0.23,0.165
21:10:49.248,-0.24,0.155
21:10:49.252,-0.255,0.16
21:10:49.256,-0.28,0.165
21:10:49.260,-0.275,0.17
21:10:49.264,-0.3,0.175
21:10:49.268,-0.3,0.18
21:10:49.272,-0.32,0.185
21:10:49.276,-0.32,0.18
21:10:49.280,-0.325,0.17
21:10:49.284,-0.325,0.165
21:10:49.288,-0.29,0.15
21:10:49.292,-0.31,0.15
21:10:49.296,-0.305,0.15
21:10:49.300,-0.31,0.15
21:10:49.304,-0.34,0.13
21:10:49.308,-0.36,0.115
21:10:49.312,-0.37,0.085
21:10:49.316,-0.38,0.09
21:10:49.320,-0.38,0.105
21:10:49.324,-0.355,0.085
21:10:49.328,-0.38,0.095
21:10:49.332,-0.37,0.08
21:10:49.336,-0.36,0.075
21:10:49.340,-0.36,0.065
21:10:49.344,-0.36,0.065
21:10:49.348,-0.35,0.055
21:10:49.352,-0.35,0.06
21:10:49.356,-0.35,0.05
21:10:49.360,-0.38,0.05
21:10:49.364,-0.35,0.055
21:10:49.368,-0.345,0.06
21:10:49.372,-0.34,0.075
21:10:49.376,-0.345,0.04
21:10:49.380,-0.335,0.045
21:10:49.384,-0.335,0.05
21:10:49.388,-0.325,0.05
21:10:49.392,-0.305,0.06
21:10:49.396,-0.32,0.04
21:10:49.400,-0.31,0.03
21:10:49.404,-0.3,0.01
21:10:49.408,-0.29,0.035
21:10:49.412,-0.28,0.035
21:10:49.416,-0.285,0.02
21:10:49.420,-0.28,0.035
21:10:49.424,-0.28,0.03
21:10:49.428,-0.265,0.005
21:10:49.432,-0.25,0.02
21:10:49.436,-0.24,0.04
21:10:49.440,-0.23,0.025
21:10:49.444,-0.215,0.035
21:10:49.448,-0.21,0.04
21:10:49.452,-0.2,0.035
21:10:49.456,-0.195,0.055
21:10:49.460,-0.2,0.055
21:10:49.464,-0.21,0.08
21:10:49.468,-0.215,0.08
21:10:49.472,-0.225,0.125
21:10:49.476,-0.195,0.115
21:10:49.480,-0.21,0.105
21:10:49.484,-0.19,0.14
21:10:49.488,-0.21,0.15
21:10:49.492,-0.23,0.125
21:10:49.496,-0.23,0.13
21:10:49.500,-0.22,0.16
21:10:49.504,-0.235,0.15
21:10:49.508,-0.25,0.135
21:10:49.512,-0.26,0.14
21:10:49.516,-0.29,0.145
21:10:49.520,-0.29,0.125
21:10:49.524,-0.28,0.135
21:10:49.528,-0.295,0.12
21:10:49.532,-0.31,0.095
21:10:49.536,-0.34,0.09
21:10:49.540,-0.34,0.06
21:10:49.544,-0.32,0.075
21:10:49.548,-0.335,0.055
21:10:49.552,-0.345,0.045
21:10:49.556,-0.335,0.04
21:10:49.560,-0.315,0.04
21:10:49.564,-0.25,0.035
21:10:49.568,-0.185,0.04
21:10:49.572,-0.105,0.01
21:10:49.576,-0.015,0.005
21:10:49.580,0.03,-0.02
21:10:49.584,0.065,-0.07
21:10:49.588,0.11,-0.07
21:10:49.592,0.145,-0.04
21:10:49.596,0.13,-0.07
21:10:49.600,0.115,-0.1
21:10:49.604,0.19,-0.18
21:10:49.608,0.415,-0.33
21:10:49.612,0.695,-0.525
21:10:49.616,0.92,-0.775
21:10:49.620,0.96,-0.98
21:10:49.624,0.69,-1.005
21:10:49.628,0.24,-0.8
21:10:49.632,-0.12,-0.435
21:10:49.636,-0.315,-0.145
21:10:49.640,-0.365,0.03
21:10:49.644,-0.395,0.16
21:10:49.648,-0.4,0.235
21:10:49.652,-0.43,0.27
21:10:49.656,-0.46,0.29
21:10:49.660,-0.46,0.275
21:10:49.664,-0.44,0.27
21:10:49.668,-0.455,0.245
21:10:49.672,-0.44,0.25
21:10:49.676,-0.43,0.215
21:10:49.680,-0.43,0.22
21:10:49.684,-0.435,0.23
21:10:49.688,-0.42,0.27
21:10:49.692,-0.43,0.275
21:10:49.696,-0.435,0.265
21:10:49.700,-0.45,0.265
21:10:49.704,-0.45,0.295
21:10:49.708,-0.455,0.305
21:10:49.712,-0.45,0.295
21:10:49.716,-0.485,0.31
21:10:49.720,-0.505,0.33
21:10:49.724,-0.505,0.34
21:10:49.728,-0.55,0.315
21:10:49.732,-0.555,0.33
21:10:49.736,-0.585,0.315
21:10:49.740,-0.61,0.31
21:10:49.744,-0.63,0.295
21:10:49.748,-0.64,0.285
21:10:49.752,-0.675,0.275
21:10:49.756,-0.695,0.275
21:10:49.760,-0.695,0.245
21:10:49.764,-0.695,0.235
21:10:49.768,-0.7,0.22
21:10:49.772,-0.67,0.23
21:10:49.776,-0.685,0.215
21:10:49.780,-0.68,0.2
21:10:49.784,-0.68,0.19
21:10:49.788,-0.705,0.17
21:10:49.792,-0.68,0.19
21:10:49.796,-0.67,0.18
21:10:49.800,-0.67,0.155
21:10:49.804,-0.675,0.14
21:10:49.808,-0.66,0.14
21:10:49.812,-0.635,0.12
21:10:49.816,-0.64,0.115
21:10:49.820,-0.62,0.12
21:10:49.824,-0.605,0.09
21:10:49.828,-0.595,0.095
21:10:49.832,-0.59,0.1
21:10:49.836,-0.565,0.09
21:10:49.840,-0.56,0.08
21:10:49.844,-0.545,0.065
21:10:49.848,-0.545,0.09
21:10:49.852,-0.555,0.055
21:10:49.856,-0.515,0.075
21:10:49.860,-0.495,0.04
21:10:49.864,-0.495,0.02
21:10:49.868,-0.48,0.035
21:10:49.872,-0.465,0.015
21:10:49.876,-0.445,0.005
21:10:49.880,-0.42,0.01
21:10:49.884,-0.42,0.015
21:10:49.888,-0.42,-0.015
21:10:49.892,-0.39,-0.03
21:10:49.896,-0.36,-0.005
21:10:49.900,-0.335,-0.015
21:10:49.904,-0.335,0.02
21:10:49.908,-0.295,0.02
21:10:49.912,-0.285,0.02
21:10:49.916,-0.275,0.035
21:10:49.920,-0.28,0.05
21:10:49.924,-0.275,0.09
21:10:49.928,-0.275,0.075
21:10:49.932,-0.28,0.075
21:10:49.936,-0.275,0.09
21:10:49.940,-0.28,0.095
21:10:49.944,-0.32,0.125
21:10:49.948,-0.335,0.13
21:10:49.952,-0.335,0.135
21:10:49.956,-0.32,0.13
21:10:49.960,-0.37,0.12
21:10:49.964,-0.385,0.1
21:10:49.968,-0.405,0.09
21:10:49.972,-0.41,0.095
21:10:49.976,-0.41,0.05
21:10:49.980,-0.43,0.045
21:10:49.984,-0.455,0.015
21:10:49.988,-0.47,-0.01
21:10:49.992,-0.45,-0.035
21:10:49.996,-0.44,-0.045
21:10:50.000,-0.45,-0.07
21:10:50.004,-0.45,-0.065
21:10:50.008,-0.45,-0.1
21:10:50.012,-0.46,-0.095
21:10:50.016,-0.465,-0.11
21:10:50.020,-0.46,-0.12
21:10:50.024,-0.47,-0.12
21:10:50.028,-0.485,-0.125
21:10:50.032,-0.47,-0.15
21:10:50.036,-0.44,-0.14
21:10:50.040,-0.455,-0.16
21:10:50.044,-0.46,-0.155
21:10:50.048,-0.465,-0.175
21:10:50.052,-0.46,-0.18
21:10:50.056,-0.44,-0.175
21:10:50.060,-0.46,-0.18
21:10:50.064,-0.445,-0.19
21:10:50.068,-0.415,-0.2
21:10:50.072,-0.38,-0.2
21:10:50.076,-0.365,-0.21
21:10:50.080,-0.315,-0.215
21:10:50.084,-0.255,-0.21
21:10:50.088,-0.2,-0.235
21:10:50.092,-0.11,-0.25
21:10:50.096,-0.02,-0.285
21:10:50.100,0.04,-0.31
21:10:50.104,0.13,-0.36
21:10:50.108,0.21,-0.39
21:10:50.112,0.18,-0.38
21:10:50.116,0.17,-0.38
21:10:50.120,0.215,-0.435
21:10:50.124,0.41,-0.52
21:10:50.128,0.68,-0.685
21:10:50.132,0.905,-0.9
21:10:50.136,0.905,-1.055
21:10:50.140,0.64,-1.155
21:10:50.144,0.205,-1.0
21:10:50.148,-0.14,-0.72
21:10:50.152,-0.27,-0.5
21:10:50.156,-0.305,-0.35
21:10:50.160,-0.32,-0.24
21:10:50.164,-0.335,-0.16
21:10:50.168,-0.375,-0.115
21:10:50.172,-0.41,-0.095
21:10:50.176,-0.44,-0.085
21:10:50.180,-0.49,-0.095
21:10:50.184,-0.51,-0.115
21:10:50.188,-0.53,-0.135
21:10:50.192,-0.555,-0.165
21:10:50.196,-0.575,-0.155
21:10:50.200,-0.575,-0.15
21:10:50.204,-0.58,-0.16
21:10:50.208,-0.58,-0.18
21:10:50.212,-0.58,-0.19
21:10:50.216,-0.565,-0.195
21:10:50.220,-0.595,-0.215
21:10:50.224,-0.58,-0.25
21:10:50.228,-0.595,-0.27
21:10:50.232,-0.59,-0.285
21:10:50.236,-0.6,-0.305
21:10:50.240,-0.61,-0.315
21:10:50.244,-0.615,-0.33
21:10:50.248,-0.615,-0.32
21:10:50.252,-0.595,-0.345
21:10:50.256,-0.6,-0.32
21:10:50.260,-0.57,-0.33
21:10:50.264,-0.58,-0.34
21:10:50.268,-0.59,-0.34
21:10:50.272,-0.6,-0.35
21:10:50.276,-0.605,-0.33
21:10:50.280,-0.615,-0.34
21:10:50.284,-0.605,-0.32
21:10:50.288,-0.6,-0.32
21:10:50.292,-0.605,-0.315
21:10:50.296,-0.6,-0.325
21:10:50.300,-0.59,-0.32
21:10:50.304,-0.59,-0.3
21:10:50.308,-0.595,-0.325
21:10:50.312,-0.595,-0.325
21:10:50.316,-0.6,-0.32
21:10:50.320,-0.57,-0.305
21:10:50.324,-0.57,-0.315
21:10:50.328,-0.575,-0.32
21:10:50.332,-0.555,-0.32
21:10:50.336,-0.555,-0.33
21:10:50.340,-0.525,-0.345
21:10:50.344,-0.5,-0.33
21:10:50.348,-0.485,-0.34
21:10:50.352,-0.465,-0.32
21:10:50.356,-0.44,-0.315
21:10:50.360,-0.445,-0.305
21:10:50.364,-0.415,-0.325
21:10:50.368,-0.38,-0.295
21:10:50.372,-0.34,-0.31
21:10:50.376,-0.32,-0.32
21:10:50.380,-0.29,-0.3
21:10:50.384,-0.29,-0.28
21:10:50.388,-0.265,-0.28
21:10:50.392,-0.28,-0.27
21:10:50.396,-0.28,-0.245
21:10:50.400,-0.31,-0.24
21:10:50.404,-0.315,-0.25
21:10:50.408,-0.355,-0.21
21:10:50.412,-0.365,-0.205
21:10:50.416,-0.38,-0.19
21:10:50.420,-0.39,-0.165
21:10:50.424,-0.375,-0.19
21:10:50.428,-0.38,-0.19
21:10:50.432,-0.375,-0.18
21:10:50.436,-0.375,-0.18
21:10:50.440,-0.365,-0.205
21:10:50.444,-0.35,-0.2
21:10:50.448,-0.32,-0.2
21:10:50.452,-0.32,-0.215
21:10:50.456,-0.29,-0.19
21:10:50.460,-0.3,-0.21
21:10:50.464,-0.305,-0.215
21:10:50.468,-0.295,-0.195
21:10:50.472,-0.28,-0.205
21:10:50.476,-0.295,-0.2
21:10:50.480,-0.295,-0.215
21:10:50.484,-0.27,-0.21
21:10:50.488,-0.285,-0.185
21:10:50.492,-0.275,-0.185
21:10:50.496,-0.27,-0.2
21:10:50.500,-0.285,-0.185
21:10:50.504,-0.26,-0.185
21:10:50.508,-0.26,-0.19
21:10:50.512,-0.285,-0.21
21:10:50.516,-0.265,-0.19
21:10:50.520,-0.265,-0.195
21:10:50.524,-0.3,-0.195
21:10:50.528,-0.29,-0.2
21:10:50.532,-0.31,-0.22
21:10:50.536,-0.31,-0.185
21:10:50.540,-0.32,-0.19
21:10:50.544,-0.3,-0.215
21:10:50.548,-0.3,-0.2
21:10:50.552,-0.29,-0.2
21:10:50.556,-0.29,-0.175
21:10:50.560,-0.29,-0.19
21:10:50.564,-0.275,-0.16
21:10:50.568,-0.265,-0.18
21:10:50.572,-0.23,-0.16
21:10:50.576,-0.26,-0.14
21:10:50.580,-0.225,-0.12
21:10:50.584,-0.23,-0.135
21:10:50.588,-0.21,-0.145
21:10:50.592,-0.21,-0.135
21:10:50.596,-0.21,-0.13
21:10:50.600,-0.21,-0.12
21:10:50.604,-0.215,-0.11
21:10:50.608,-0.2,-0.105
21:10:50.612,-0.2,-0.105
21:10:50.616,-0.215,-0.08
21:10:50.620,-0.255,-0.07
21:10:50.624,-0.27,-0.055
21:10:50.628,-0.31,-0.065
21:10:50.632,-0.32,-0.055
21:10:50.636,-0.315,-0.06
21:10:50.640,-0.32,-0.05
21:10:50.644,-0.28,-0.03
21:10:50.648,-0.19,-0.04
21:10:50.652,-0.095,-0.06
21:10:50.656,-0.03,-0.065
21:10:50.660,0.05,-0.085
21:10:50.664,0.1,-0.135
21:10:50.668,0.13,-0.17
21:10:50.672,0.185,-0.17
21:10:50.676,0.2,-0.185
21:10:50.680,0.215,-0.24
21:10:50.684,0.265,-0.31
21:10:50.688,0.445,-0.475
21:10:50.692,0.75,-0.68
21:10:50.696,1.025,-0.92
21:10:50.700,1.11,-1.15
21:10:50.704,0.935,-1.25
21:10:50.708,0.51,-1.125
21:10:50.712,0.055,-0.81
21:10:50.716,-0.185,-0.48
21:10:50.720,-0.285,-0.27
21:10:50.724,-0.345,-0.16
21:10:50.728,-0.345,-0.085
21:10:50.732,-0.34,-0.015
21:10:50.736,-0.36,0.035
21:10:50.740,-0.365,0.03
21:10:50.744,-0.4,0.045
21:10:50.748,-0.415,0.0
21:10:50.752,-0.415,0.005
21:10:50.756,-0.41,-0.01
21:10:50.760,-0.45,-0.015
21:10:50.764,-0.45,-0.03
21:10:50.768,-0.44,0.0
21:10:50.772,-0.47,-0.01
21:10:50.776,-0.46,-0.03
21:10:50.780,-0.46,-0.01
21:10:50.784,-0.46,-0.03
21:10:50.788,-0.46,-0.005
21:10:50.792,-0.45,-0.02
21:10:50.796,-0.44,-0.015
21:10:50.800,-0.43,0.0
21:10:50.804,-0.445,0.0
21:10:50.808,-0.43,0.015
21:10:50.812,-0.43,0.03
21:10:50.816,-0.4,0.04
21:10:50.820,-0.4,0.06
21:10:50.824,-0.395,0.04
21:10:50.828,-0.42,0.07
21:10:50.832,-0.42,0.065
21:10:50.836,-0.43,0.07
21:10:50.840,-0.455,0.08
21:10:50.844,-0.49,0.095
21:10:50.848,-0.51,0.09
21:10:50.852,-0.535,0.1
21:10:50.856,-0.55,0.085
21:10:50.860,-0.56,0.105
21:10:50.864,-0.575,0.1
21:10:50.868,-0.58,0.11
21:10:50.872,-0.565,0.095
21:10:50.876,-0.55,0.09
21:10:50.880,-0.54,0.06
21:10:50.884,-0.53,0.055
21:10:50.888,-0.505,0.055
21:10:50.892,-0.51,0.06
21:10:50.896,-0.515,0.06
21:10:50.900,-0.51,0.06
21:10:50.904,-0.485,0.08
21:10:50.908,-0.49,0.03
21:10:50.912,-0.455,0.04
21:10:50.916,-0.43,0.03
21:10:50.920,-0.39,0.03
21:10:50.924,-0.365,0.01
21:10:50.928,-0.35,0.0
21:10:50.932,-0.345,0.0
21:10:50.936,-0.31,-0.01
21:10:50.940,-0.31,-0.04
21:10:50.944,-0.295,-0.05
21:10:50.948,-0.28,-0.025
21:10:50.952,-0.29,-0.055
21:10:50.956,-0.26,-0.05
21:10:50.960,-0.28,-0.05
21:10:50.964,-0.28,-0.07
21:10:50.968,-0.27,-0.05
21:10:50.972,-0.28,-0.065
21:10:50.976,-0.26,-0.055
21:10:50.980,-0.295,-0.055
21:10:50.984,-0.29,-0.07
21:10:50.988,-0.265,-0.05
21:10:50.992,-0.285,-0.06
21:10:50.996,-0.275,-0.075
21:10:51.000,-0.255,-0.06
21:10:51.004,-0.245,-0.045
21:10:51.008,-0.255,-0.045
21:10:51.012,-0.265,-0.055
21:10:51.016,-0.27,-0.045
21:10:51.020,-0.245,-0.05
21:10:51.024,-0.23,-0.02
21:10:51.028,-0.22,-0.005
21:10:51.032,-0.205,0.0
21:10:51.036,-0.17,0.01
21:10:51.040,-0.16,0.015
21:10:51.044,-0.19,0.03
21:10:51.048,-0.175,0.055
21:10:51.052,-0.16,0.065
21:10:51.056,-0.135,0.065
21:10:51.060,-0.08,0.085
21:10:51.064,-0.055,0.08
21:10:51.068,-0.01,0.08
21:10:51.072,0.04,0.045
21:10:51.076,0.03,0.045
21:10:51.080,-0.03,0.01
21:10:51.084,-0.07,-0.015
21:10:51.088,-0.105,-0.015
21:10:51.092,-0.125,-0.05
21:10:51.096,-0.02,-0.11
21:10:51.100,0.225,-0.245
21:10:51.104,0.55,-0.43
21:10:51.108,0.815,-0.71
21:10:51.112,0.92,-0.965
21:10:51.116,0.75,-1.055
21:10:51.120,0.345,-0.95
21:10:51.124,-0.055,-0.605
21:10:51.128,-0.275,-0.245
21:10:51.132,-0.355,-0.04
21:10:51.136,-0.375,0.085
21:10:51.140,-0.37,0.12
21:10:51.144,-0.365,0.16
21:10:51.148,-0.34,0.165
21:10:51.152,-0.32,0.165
21:10:51.156,-0.36,0.14
21:10:51.160,-0.365,0.14
21:10:51.164,-0.39,0.11
21:10:51.168,-0.405,0.085
21:10:51.172,-0.39,0.08
21:10:51.176,-0.415,0.065
21:10:51.180,-0.42,0.05
21:10:51.184,-0.4,0.07
21:10:51.188,-0.405,0.045
21:10:51.192,-0.42,0.055
21:10:51.196,-0.43,0.05
21:10:51.200,-0.43,0.04
21:10:51.204,-0.425,0.035
21:10:51.208,-0.455,0.03
21:10:51.212,-0.455,0.04
21:10:51.216,-0.465,0.07
21:10:51.220,-0.435,0.05
21:10:51.224,-0.46,0.065
21:10:51.228,-0.45,0.05
21:10:51.232,-0.46,0.035
21:10:51.236,-0.43,0.04
21:10:51.240,-0.45,0.05
21:10:51.244,-0.445,0.06
21:10:51.248,-0.435,0.065
21:10:51.252,-0.445,0.065
21:10:51.256,-0.435,0.075
21:10:51.260,-0.415,0.095
21:10:51.264,-0.405,0.105
21:10:51.268,-0.375,0.11
21:10:51.272,-0.395,0.12
21:10:51.276,-0.39,0.16
21:10:51.280,-0.365,0.16
21:10:51.284,-0.36,0.155
21:10:51.288,-0.335,0.15
21:10:51.292,-0.35,0.175
21:10:51.296,-0.36,0.17
21:10:51.300,-0.38,0.165
21:10:51.304,-0.4,0.16
21:10:51.308,-0.415,0.175
21:10:51.312,-0.45,0.14
21:10:51.316,-0.455,0.135
21:10:51.320,-0.455,0.13
21:10:51.324,-0.445,0.125
21:10:51.328,-0.395,0.09
21:10:51.332,-0.38,0.08
21:10:51.336,-0.365,0.07
21:10:51.340,-0.365,0.05
21:10:51.344,-0.33,0.065
21:10:51.348,-0.32,0.065
21:10:51.352,-0.33,0.08
21:10:51.356,-0.295,0.06
21:10:51.360,-0.28,0.07
21:10:51.364,-0.275,0.06
21:10:51.368,-0.23,0.055
21:10:51.372,-0.2,0.08
21:10:51.376,-0.195,0.05
21:10:51.380,-0.2,0.03
21:10:51.384,-0.205,0.045
21:10:51.388,-0.205,0.05
21:10:51.392,-0.185,0.02
21:10:51.396,-0.2,0.035
21:10:51.400,-0.2,0.025
21:10:51.404,-0.225,0.02
21:10:51.408,-0.215,0.03
21:10:51.412,-0.24,0.005
21:10:51.416,-0.24,0.005
21:10:51.420,-0.22,0.0
21:10:51.424,-0.225,0.02
21:10:51.428,-0.24,0.02
21:10:51.432,-0.255,0.01
21:10:51.436,-0.25,0.02
21:10:51.440,-0.25,0.025
21:10:51.444,-0.265,0.03
21:10:51.448,-0.28,0.015
21:10:51.452,-0.25,0.015
21:10:51.456,-0.27,0.02
21:10:51.460,-0.26,0.01
21:10:51.464,-0.265,0.005
21:10:51.468,-0.26,0.015
21:10:51.472,-0.25,0.025
21:10:51.476,-0.24,0.05
21:10:51.480,-0.22,0.035
21:10:51.484,-0.21,0.035
21:10:51.488,-0.195,0.04
21:10:51.492,-0.17,0.06
21:10:51.496,-0.185,0.09
21:10:51.500,-0.15,0.07
21:10:51.504,-0.14,0.07
21:10:51.508,-0.135,0.075
21:10:51.512,-0.13,0.105
21:10:51.516,-0.11,0.115
21:10:51.520,-0.13,0.105
21:10:51.524,-0.14,0.11
21:10:51.528,-0.16,0.11
21:10:51.532,-0.185,0.11
21:10:51.536,-0.2,0.11
21:10:51.540,-0.26,0.115
21:10:51.544,-0.255,0.115
21:10:51.548,-0.27,0.1
21:10:51.552,-0.275,0.095
21:10:51.556,-0.27,0.07
21:10:51.560,-0.28,0.095
21:10:51.564,-0.265,0.08
21:10:51.568,-0.26,0.07
21:10:51.572,-0.285,0.07
21:10:51.576,-0.255,0.07
21:10:51.580,-0.25,0.055
21:10:51.584,-0.26,0.07
21:10:51.588,-0.215,0.055
21:10:51.592,-0.225,0.045
21:10:51.596,-0.195,0.025
21:10:51.600,-0.205,0.03
21:10:51.604,-0.195,0.015
21:10:51.608,-0.225,0.0
21:10:51.612,-0.2,0.0
21:10:51.616,-0.215,0.005
21:10:51.620,-0.22,-0.015
21:10:51.624,-0.21,-0.005
21:10:51.628,-0.22,-0.01
21:10:51.632,-0.215,0.03
21:10:51.636,-0.225,0.02
21:10:51.640,-0.205,0.0
21:10:51.644,-0.235,0.01
21:10:51.648,-0.22,0.005
21:10:51.652,-0.24,0.0
21:10:51.656,-0.235,-0.005
21:10:51.660,-0.23,-0.01
21:10:51.664,-0.25,-0.02
21:10:51.668,-0.27,-0.025
21:10:51.672,-0.24,-0.01
21:10:51.676,-0.25,-0.04
21:10:51.680,-0.24,-0.04
21:10:51.684,-0.26,-0.015
21:10:51.688,-0.23,-0.05
21:10:51.692,-0.23,-0.03
21:10:51.696,-0.18,-0.03
21:10:51.700,-0.135,-0.035
21:10:51.704,-0.035,-0.03
21:10:51.708,0.045,-0.015
21:10:51.712,0.14,-0.035
21:10:51.716,0.205,-0.05
21:10:51.720,0.23,-0.065
21:10:51.724,0.25,-0.055
21:10:51.728,0.3,-0.04
21:10:51.732,0.27,-0.055
21:10:51.736,0.27,-0.075
21:10:51.740,0.38,-0.175
21:10:51.744,0.61,-0.335
21:10:51.748,0.895,-0.555
21:10:51.752,1.105,-0.77
21:10:51.756,1.035,-0.905
21:10:51.760,0.67,-0.945
21:10:51.764,0.165,-0.705
21:10:51.768,-0.155,-0.355
21:10:51.772,-0.335,-0.09
21:10:51.776,-0.405,0.08
21:10:51.780,-0.425,0.18
21:10:51.784,-0.41,0.255
21:10:51.788,-0.44,0.255
21:10:51.792,-0.45,0.25
21:10:51.796,-0.43,0.255
21:10:51.800,-0.45,0.24
21:10:51.804,-0.42,0.23
21:10:51.808,-0.43,0.2
21:10:51.812,-0.43,0.2
21:10:51.816,-0.42,0.195
21:10:51.820,-0.415,0.205
21:10:51.824,-0.43,0.215
21:10:51.828,-0.435,0.195
21:10:51.832,-0.435,0.2
21:10:51.836,-0.44,0.175
21:10:51.840,-0.44,0.165
21:10:51.844,-0.46,0.18
21:10:51.848,-0.46,0.19
21:10:51.852,-0.485,0.185
21:10:51.856,-0.48,0.175
21:10:51.860,-0.485,0.18
21:10:51.864,-0.5,0.17
21:10:51.868,-0.525,0.15
21:10:51.872,-0.545,0.145
21:10:51.876,-0.53,0.14
21:10:51.880,-0.52,0.145
21:10:51.884,-0.535,0.14
21:10:51.888,-0.54,0.15
21:10:51.892,-0.535,0.135
21:10:51.896,-0.53,0.13
21:10:51.900,-0.55,0.125
21:10:51.904,-0.55,0.125
21:10:51.908,-0.53,0.11
21:10:51.912,-0.54,0.125
21:10:51.916,-0.555,0.125
21:10:51.920,-0.54,0.13
21:10:51.924,-0.54,0.16
21:10:51.928,-0.5,0.155
21:10:51.932,-0.5,0.15
21:10:51.936,-0.475,0.16
21:10:51.940,-0.465,0.18
21:10:51.944,-0.455,0.17
21:10:51.948,-0.455,0.155
21:10:51.952,-0.46,0.18
21:10:51.956,-0.455,0.19
21:10:51.960,-0.42,0.185
21:10:51.964,-0.43,0.18
21:10:51.968,-0.4,0.185
21:10:51.972,-0.405,0.185
21:10:51.976,-0.405,0.19
21:10:51.980,-0.435,0.21
21:10:51.984,-0.45,0.21
21:10:51.988,-0.495,0.205
21:10:51.992,-0.475,0.19
21:10:51.996,-0.45,0.185
21:10:52.000,-0.43,0.155
21:10:52.004,-0.425,0.155
21:10:52.008,-0.42,0.14
21:10:52.012,-0.415,0.14
21:10:52.016,-0.375,0.155
21:10:52.020,-0.37,0.135
21:10:52.024,-0.365,0.12
21:10:52.028,-0.36,0.12
21:10:52.032,-0.335,0.1
21:10:52.036,-0.31,0.08
21:10:52.040,-0.31,0.08
21:10:52.044,-0.305,0.06
21:10:52.048,-0.285,0.06
21:10:52.052,-0.285,0.055
21:10:52.056,-0.305,0.035
21:10:52.060,-0.31,0.045
21:10:52.064,-0.3,0.05
21:10:52.068,-0.29,0.05
21:10:52.072,-0.29,0.05
21:10:52.076,-0.265,0.055
21:10:52.080,-0.29,0.025
21:10:52.084,-0.315,0.04
21:10:52.088,-0.31,0.03
21:10:52.092,-0.32,0.025
21:10:52.096,-0.305,0.02
21:10:52.100,-0.3,0.02
21:10:52.104,-0.315,0.0
21:10:52.108,-0.33,-0.01
21:10:52.112,-0.32,-0.01
21:10:52.116,-0.32,-0.035
21:10:52.120,-0.32,-0.045
21:10:52.124,-0.31,-0.03
21:10:52.128,-0.305,-0.03
21:10:52.132,-0.32,-0.055
21:10:52.136,-0.32,-0.075
21:10:52.140,-0.31,-0.06
21:10:52.144,-0.32,-0.055
21:10:52.148,-0.29,-0.04
21:10:52.152,-0.29,-0.065
21:10:52.156,-0.27,-0.055
21:10:52.160,-0.295,-0.04
21:10:52.164,-0.305,-0.06
21:10:52.168,-0.295,-0.06
21:10:52.172,-0.28,-0.055
21:10:52.176,-0.29,-0.075
21:10:52.180,-0.275,-0.075
21:10:52.184,-0.26,-0.055
21:10:52.188,-0.24,-0.045
21:10:52.192,-0.245,-0.04
21:10:52.196,-0.25,-0.045
21:10:52.200,-0.265,-0.02
21:10:52.204,-0.25,-0.015
21:10:52.208,-0.26,-0.02
21:10:52.212,-0.315,-0.01
21:10:52.216,-0.345,-0.015
21:10:52.220,-0.35,-0.035
21:10:52.224,-0.34,-0.02
21:10:52.228,-0.34,-0.02
21:10:52.232,-0.325,-0.03
21:10:52.236,-0.33,-0.04
21:10:52.240,-0.315,-0.01
21:10:52.244,-0.285,0.0
21:10:52.248,-0.28,0.0
21:10:52.252,-0.275,-0.02
21:10:52.256,-0.27,-0.045
21:10:52.260,-0.265,-0.06
21:10:52.264,-0.26,-0.085
21:10:52.268,-0.265,-0.11
21:10:52.272,-0.25,-0.13
21:10:52.276,-0.24,-0.13
21:10:52.280,-0.235,-0.135
21:10:52.284,-0.24,-0.14
21:10:52.288,-0.24,-0.13
21:10:52.292,-0.245,-0.145
21:10:52.296,-0.23,-0.125
21:10:52.300,-0.235,-0.135
21:10:52.304,-0.26,-0.145
21:10:52.308,-0.28,-0.135
21:10:52.312,-0.28,-0.16
21:10:52.316,-0.26,-0.175
21:10:52.320,-0.265,-0.155
21:10:52.324,-0.28,-0.18
21:10:52.328,-0.275,-0.17
21:10:52.332,-0.275,-0.195
21:10:52.336,-0.265,-0.185
21:10:52.340,-0.27,-0.19
21:10:52.344,-0.275,-0.195
21:10:52.348,-0.26,-0.18
21:10:52.352,-0.26,-0.205
21:10:52.356,-0.255,-0.19
21:10:52.360,-0.23,-0.185
21:10:52.364,-0.215,-0.195
21:10:52.368,-0.21,-0.19
21:10:52.372,-0.195,-0.185
21:10:52.376,-0.17,-0.18
21:10:52.380,-0.175,-0.175
21:10:52.384,-0.165,-0.165
21:10:52.388,-0.185,-0.14
21:10:52.392,-0.175,-0.13
21:10:52.396,-0.195,-0.16
21:10:52.400,-0.19,-0.13
21:10:52.404,-0.175,-0.11
21:10:52.408,-0.165,-0.115
21:10:52.412,-0.175,-0.11
21:10:52.416,-0.18,-0.085
21:10:52.420,-0.16,-0.1
21:10:52.424,-0.17,-0.095
21:10:52.428,-0.16,-0.055
21:10:52.432,-0.18,-0.05
21:10:52.436,-0.18,-0.065
21:10:52.440,-0.205,-0.045
21:10:52.444,-0.235,-0.045
21:10:52.448,-0.23,-0.03
21:10:52.452,-0.245,-0.025
21:10:52.456,-0.255,-0.01
21:10:52.460,-0.24,-0.005
21:10:52.464,-0.235,-0.01
21:10:52.468,-0.225,0.015
21:10:52.472,-0.215,0.0
21:10:52.476,-0.175,-0.01
21:10:52.480,-0.145,0.01
21:10:52.484,-0.135,-0.005
21:10:52.488,-0.13,-0.02
21:10:52.492,-0.12,-0.02
21:10:52.496,-0.1,-0.02
21:10:52.500,-0.07,-0.025
21:10:52.504,0.0,-0.03
21:10:52.508,0.065,-0.05
21:10:52.512,0.16,-0.085
21:10:52.516,0.22,-0.11
21:10:52.520,0.28,-0.16
21:10:52.524,0.31,-0.22
21:10:52.528,0.34,-0.24
21:10:52.532,0.345,-0.235
21:10:52.536,0.31,-0.24
21:10:52.540,0.33,-0.31
21:10:52.544,0.465,-0.415
21:10:52.548,0.725,-0.59
21:10:52.552,1.025,-0.835
21:10:52.556,1.19,-1.05
21:10:52.560,1.14,-1.21
21:10:52.564,0.81,-1.18
21:10:52.568,0.34,-0.925
21:10:52.572,-0.025,-0.565
21:10:52.576,-0.165,-0.325
21:10:52.580,-0.24,-0.175
21:10:52.584,-0.25,-0.08
21:10:52.588,-0.25,0.015
21:10:52.592,-0.285,0.035
21:10:52.596,-0.285,0.05
21:10:52.600,-0.28,0.07
21:10:52.604,-0.285,0.065
21:10:52.608,-0.29,0.055
21:10:52.612,-0.29,0.04
21:10:52.616,-0.295,0.045
21:10:52.620,-0.3,0.05
21:10:52.624,-0.31,0.045
21:10:52.628,-0.305,0.04
21:10:52.632,-0.305,0.035
21:10:52.636,-0.31,0.055
21:10:52.640,-0.295,0.05
21:10:52.644,-0.305,0.06
21:10:52.648,-0.31,0.08
21:10:52.652,-0.335,0.07
21:10:52.656,-0.35,0.09
21:10:52.660,-0.385,0.085
21:10:52.664,-0.415,0.075
21:10:52.668,-0.44,0.085
21:10:52.672,-0.46,0.1
21:10:52.676,-0.475,0.105
21:10:52.680,-0.46,0.095
21:10:52.684,-0.47,0.09
21:10:52.688,-0.455,0.1
21:10:52.692,-0.465,0.105
21:10:52.696,-0.455,0.12
21:10:52.700,-0.44,0.115
21:10:52.704,-0.445,0.115
21:10:52.708,-0.42,0.105
21:10:52.712,-0.42,0.095
21:10:52.716,-0.385,0.095
21:10:52.720,-0.38,0.11
21:10:52.724,-0.37,0.1
21:10:52.728,-0.375,0.095
21:10:52.732,-0.36,0.075
21:10:52.736,-0.38,0.06
21:10:52.740,-0.37,0.045
21:10:52.744,-0.37,0.01
21:10:52.748,-0.38,0.015
21:10:52.752,-0.385,0.015
21:10:52.756,-0.39,0.0
21:10:52.760,-0.375,-0.015
21:10:52.764,-0.37,-0.005
21:10:52.768,-0.375,-0.03
21:10:52.772,-0.36,-0.06
21:10:52.776,-0.345,-0.04
21:10:52.780,-0.325,-0.06
21:10:52.784,-0.32,-0.07
21:10:52.788,-0.32,-0.07
21:10:52.792,-0.3,-0.06
21:10:52.796,-0.29,-0.07
21:10:52.800,-0.265,-0.09
21:10:52.804,-0.25,-0.075
21:10:52.808,-0.23,-0.075
21:10:52.812,-0.235,-0.085
21:10:52.816,-0.215,-0.09
21:10:52.820,-0.2,-0.085
21:10:52.824,-0.17,-0.09
21:10:52.828,-0.19,-0.08
21:10:52.832,-0.15,-0.075
21:10:52.836,-0.145,-0.05
21:10:52.840,-0.125,-0.055
21:10:52.844,-0.1,-0.035
21:10:52.848,-0.11,-0.045
21:10:52.852,-0.12,-0.035
21:10:52.856,-0.12,-0.03
21:10:52.860,-0.12,-0.01
21:10:52.864,-0.13,0.02
21:10:52.868,-0.14,0.03
21:10:52.872,-0.16,0.025
21:10:52.876,-0.19,0.035
21:10:52.880,-0.205,0.03
21:10:52.884,-0.22,0.07
21:10:52.888,-0.235,0.075
21:10:52.892,-0.255,0.065
21:10:52.896,-0.26,0.045
21:10:52.900,-0.28,0.05
21:10:52.904,-0.27,0.045
21:10:52.908,-0.28,0.065
21:10:52.912,-0.275,0.06
21:10:52.916,-0.255,0.085
21:10:52.920,-0.265,0.07
21:10:52.924,-0.26,0.065
21:10:52.928,-0.26,0.055
21:10:52.932,-0.255,0.065
21:10:52.936,-0.235,0.07
21:10:52.940,-0.225,0.07
21:10:52.944,-0.2,0.045
21:10:52.948,-0.2,0.04
21:10:52.952,-0.21,0.025
21:10:52.956,-0.205,0.015
21:10:52.960,-0.225,0.0
21:10:52.964,-0.24,-0.01
21:10:52.968,-0.225,-0.005
21:10:52.972,-0.235,-0.005
21:10:52.976,-0.23,-0.025
21:10:52.980,-0.23,-0.01
21:10:52.984,-0.24,-0.01
21:10:52.988,-0.215,0.0
21:10:52.992,-0.23,-0.02
21:10:52.996,-0.22,-0.03
21:10:53.000,-0.23,-0.035
21:10:53.004,-0.24,-0.04
21:10:53.008,-0.225,-0.05
21:10:53.012,-0.225,-0.035
21:10:53.016,-0.21,-0.025
21:10:53.020,-0.185,-0.02
21:10:53.024,-0.165,-0.025
21:10:53.028,-0.17,-0.035
21:10:53.032,-0.17,-0.01
21:10:53.036,-0.16,-0.035
21:10:53.040,-0.145,-0.04
21:10:53.044,-0.135,-0.02
21:10:53.048,-0.14,-0.035
21:10:53.052,-0.105,-0.015
21:10:53.056,-0.05,-0.04
21:10:53.060,0.01,-0.02
21:10:53.064,0.085,-0.005
21:10:53.068,0.15,-0.01
21:10:53.072,0.2,-0.02
21:10:53.076,0.24,-0.035
21:10:53.080,0.24,-0.075
21:10:53.084,0.24,-0.08
21:10:53.088,0.235,-0.09
21:10:53.092,0.215,-0.155
21:10:53.096,0.28,-0.21
21:10:53.100,0.505,-0.33
21:10:53.104,0.805,-0.54
21:10:53.108,1.05,-0.775
21:10:53.112,1.04,-0.995
21:10:53.116,0.765,-1.06
21:10:53.120,0.29,-0.895
21:10:53.124,-0.13,-0.54
21:10:53.128,-0.31,-0.26
21:10:53.132,-0.38,-0.03
21:10:53.136,-0.405,0.065
21:10:53.140,-0.41,0.13
21:10:53.144,-0.395,0.19
21:10:53.148,-0.4,0.19
21:10:53.152,-0.395,0.165
21:10:53.156,-0.38,0.14
21:10:53.160,-0.37,0.14
21:10:53.164,-0.395,0.115
21:10:53.168,-0.385,0.08
21:10:53.172,-0.385,0.065
21:10:53.176,-0.405,0.06
21:10:53.180,-0.38,0.07
21:10:53.184,-0.395,0.045
21:10:53.188,-0.405,0.055
21:10:53.192,-0.41,0.065
21:10:53.196,-0.415,0.07
21:10:53.200,-0.4,0.05
21:10:53.204,-0.4,0.06
21:10:53.208,-0.405,0.055
21:10:53.212,-0.405,0.025
21:10:53.216,-0.4,0.055
21:10:53.220,-0.41,0.05
21:10:53.224,-0.405,0.055
21:10:53.228,-0.39,0.06
21:10:53.232,-0.395,0.06
21:10:53.236,-0.405,0.08
21:10:53.240,-0.4,0.07
21:10:53.244,-0.41,0.065
21:10:53.248,-0.375,0.065
21:10:53.252,-0.39,0.09
21:10:53.256,-0.375,0.08
21:10:53.260,-0.395,0.08
21:10:53.264,-0.365,0.075
21:10:53.268,-0.35,0.08
21:10:53.272,-0.32,0.07
21:10:53.276,-0.315,0.095
21:10:53.280,-0.3,0.095
21:10:53.284,-0.29,0.11
21:10:53.288,-0.27,0.115
21:10:53.292,-0.26,0.105
21:10:53.296,-0.265,0.125
21:10:53.300,-0.28,0.135
21:10:53.304,-0.27,0.155
21:10:53.308,-0.29,0.155
21:10:53.312,-0.3,0.145
21:10:53.316,-0.31,0.15
21:10:53.320,-0.33,0.125
21:10:53.324,-0.335,0.12
21:10:53.328,-0.325,0.105
21:10:53.332,-0.31,0.105
21:10:53.336,-0.305,0.085
21:10:53.340,-0.325,0.06
21:10:53.344,-0.305,0.07
21:10:53.348,-0.275,0.05
21:10:53.352,-0.26,0.045
21:10:53.356,-0.255,0.055
21:10:53.360,-0.25,0.06
21:10:53.364,-0.24,0.055
21:10:53.368,-0.215,0.065
21:10:53.372,-0.235,0.05
21:10:53.376,-0.225,0.07
21:10:53.380,-0.235,0.075
21:10:53.384,-0.235,0.07
21:10:53.388,-0.195,0.035
21:10:53.392,-0.205,0.055
21:10:53.396,-0.19,0.04
21:10:53.400,-0.16,0.025
21:10:53.404,-0.165,0.035
21:10:53.408,-0.165,0.01
21:10:53.412,-0.155,0.01
21:10:53.416,-0.16,0.005
21:10:53.420,-0.17,0.005
21:10:53.424,-0.17,0.0
21:10:53.428,-0.195,-0.005
21:10:53.432,-0.2,0.0
21:10:53.436,-0.21,-0.015
21:10:53.440,-0.205,-0.005
21:10:53.444,-0.2,-0.005
21:10:53.448,-0.175,0.0
21:10:53.452,-0.19,0.01
21:10:53.456,-0.19,0.03
21:10:53.460,-0.175,0.05
21:10:53.464,-0.175,0.04
21:10:53.468,-0.175,0.025
21:10:53.472,-0.16,0.01
21:10:53.476,-0.175,0.015
21:10:53.480,-0.185,0.035
21:10:53.484,-0.18,0.035
21:10:53.488,-0.185,0.025
21:10:53.492,-0.16,0.055
21:10:53.496,-0.155,0.035
21:10:53.500,-0.17,0.045
21:10:53.504,-0.13,0.02
21:10:53.508,-0.13,0.03
21:10:53.512,-0.13,0.015
21:10:53.516,-0.11,0.025
21:10:53.520,-0.095,0.045
21:10:53.524,-0.1,0.04
21:10:53.528,-0.06,0.045
21:10:53.532,-0.065,0.05
21:10:53.536,-0.065,0.04
21:10:53.540,-0.085,0.055
21:10:53.544,-0.08,0.04
21:10:53.548,-0.075,0.035
21:10:53.552,-0.08,0.035
21:10:53.556,-0.04,0.05
21:10:53.560,0.02,0.065
21:10:53.564,0.105,0.03
21:10:53.568,0.18,0.015
21:10:53.572,0.205,-0.005
21:10:53.576,0.235,-0.05
21:10:53.580,0.265,-0.07
21:10:53.584,0.265,-0.07
21:10:53.588,0.255,-0.11
21:10:53.592,0.32,-0.18
21:10:53.596,0.54,-0.33
21:10:53.600,0.85,-0.535
21:10:53.604,1.085,-0.785
21:10:53.608,1.115,-0.985
21:10:53.612,0.855,-1.045
21:10:53.616,0.4,-0.855
21:10:53.620,-0.015,-0.505
21:10:53.624,-0.205,-0.2
21:10:53.628,-0.295,-0.04
21:10:53.632,-0.32,0.065
21:10:53.636,-0.325,0.14
21:10:53.640,-0.365,0.17
21:10:53.644,-0.35,0.14
21:10:53.648,-0.355,0.165
21:10:53.652,-0.34,0.135
21:10:53.656,-0.345,0.125
21:10:53.660,-0.345,0.105
21:10:53.664,-0.29,0.09
21:10:53.668,-0.295,0.095
21:10:53.672,-0.28,0.075
21:10:53.676,-0.285,0.055
21:10:53.680,-0.295,0.065
21:10:53.684,-0.275,0.03
21:10:53.688,-0.28,0.015
21:10:53.692,-0.32,0.03
21:10:53.696,-0.305,0.01
21:10:53.700,-0.34,0.015
21:10:53.704,-0.345,0.015
21:10:53.708,-0.36,0.03
21:10:53.712,-0.385,0.035
21:10:53.716,-0.385,0.04
21:10:53.720,-0.415,0.02
21:10:53.724,-0.425,0.005
21:10:53.728,-0.425,0.02
21:10:53.732,-0.425,-0.01
21:10:53.736,-0.43,0.0
21:10:53.740,-0.41,0.015
21:10:53.744,-0.415,0.02
21:10:53.748,-0.395,0.025
21:10:53.752,-0.365,0.02
21:10:53.756,-0.35,0.025
21:10:53.760,-0.36,0.05
21:10:53.764,-0.33,0.05
21:10:53.768,-0.345,0.055
21:10:53.772,-0.36,0.07
21:10:53.776,-0.355,0.055
21:10:53.780,-0.375,0.05
21:10:53.784,-0.395,0.05
21:10:53.788,-0.4,0.045
21:10:53.792,-0.425,0.075
21:10:53.796,-0.395,0.06
21:10:53.800,-0.385,0.07
21:10:53.804,-0.38,0.08
21:10:53.808,-0.37,0.08
21:10:53.812,-0.345,0.075
21:10:53.816,-0.34,0.085
21:10:53.820,-0.305,0.065
21:10:53.824,-0.29,0.045
21:10:53.828,-0.285,0.05
21:10:53.832,-0.265,0.04
21:10:53.836,-0.245,0.02
21:10:53.840,-0.245,0.025
21:10:53.844,-0.26,0.02
21:10:53.848,-0.28,0.02
21:10:53.852,-0.25,0.01
21:10:53.856,-0.27,0.02
21:10:53.860,-0.255,0.015
21:10:53.864,-0.235,0.0
21:10:53.868,-0.21,-0.01
21:10:53.872,-0.2,0.01
21:10:53.876,-0.19,0.005
21:10:53.880,-0.185,0.01
21:10:53.884,-0.18,0.015
21:10:53.888,-0.19,0.0
21:10:53.892,-0.205,-0.01
21:10:53.896,-0.22,0.005
21:10:53.900,-0.22,0.02
21:10:53.904,-0.225,0.03
21:10:53.908,-0.22,0.04
21:10:53.912,-0.195,0.045
21:10:53.916,-0.215,0.06
21:10:53.920,-0.19,0.065
21:10:53.924,-0.18,0.065
21:10:53.928,-0.165,0.07
21:10:53.932,-0.15,0.07
21:10:53.936,-0.165,0.045
21:10:53.940,-0.185,0.045
21:10:53.944,-0.19,0.025
21:10:53.948,-0.205,0.04
21:10:53.952,-0.225,0.015
21:10:53.956,-0.23,0.005
21:10:53.960,-0.25,0.03
21:10:53.964,-0.23,0.05
21:10:53.968,-0.23,0.05
21:10:53.972,-0.235,0.025
21:10:53.976,-0.21,0.045
21:10:53.980,-0.22,0.045
21:10:53.984,-0.2,0.05
21:10:53.988,-0.19,0.065
21:10:53.992,-0.19,0.065
21:10:53.996,-0.2,0.075
21:10:54.000,-0.23,0.055
21:10:54.004,-0.21,0.075
21:10:54.008,-0.2,0.075
21:10:54.012,-0.24,0.095
21:10:54.016,-0.22,0.09
21:10:54.020,-0.255,0.085
21:10:54.024,-0.26,0.105
21:10:54.028,-0.28,0.13
21:10:54.032,-0.28,0.12
21:10:54.036,-0.27,0.12
21:10:54.040,-0.275,0.135
21:10:54.044,-0.24,0.14
21:10:54.048,-0.26,0.13
21:10:54.052,-0.265,0.125
21:10:54.056,-0.27,0.1
21:10:54.060,-0.285,0.075
21:10:54.064,-0.285,0.11
21:10:54.068,-0.28,0.09
21:10:54.072,-0.285,0.09
21:10:54.076,-0.27,0.085
21:10:54.080,-0.27,0.08
21:10:54.084,-0.285,0.075
21:10:54.088,-0.27,0.07
21:10:54.092,-0.27,0.045
21:10:54.096,-0.28,0.06
21:10:54.100,-0.285,0.04
21:10:54.104,-0.28,0.035
21:10:54.108,-0.3,0.055
21:10:54.112,-0.29,0.06
21:10:54.116,-0.28,0.065
21:10:54.120,-0.27,0.09
21:10:54.124,-0.24,0.055
21:10:54.128,-0.255,0.065
21:10:54.132,-0.245,0.085
21:10:54.136,-0.255,0.095
21:10:54.140,-0.255,0.08
21:10:54.144,-0.28,0.075
21:10:54.148,-0.255,0.065
21:10:54.152,-0.245,0.075
21:10:54.156,-0.235,0.075
21:10:54.160,-0.23,0.055
21:10:54.164,-0.245,0.045
21:10:54.168,-0.22,0.035
21:10:54.172,-0.24,0.035
21:10:54.176,-0.225,-0.005
21:10:54.180,-0.23,-0.04
21:10:54.184,-0.225,-0.045
21:10:54.188,-0.225,-0.03
21:10:54.192,-0.235,-0.045
21:10:54.196,-0.235,-0.055
21:10:54.200,-0.205,-0.045
21:10:54.204,-0.205,-0.055
21:10:54.208,-0.205,-0.06
21:10:54.212,-0.19,-0.025
21:10:54.216,-0.175,-0.04
21:10:54.220,-0.19,-0.01
21:10:54.224,-0.155,-0.03
21:10:54.228,-0.15,-0.005
21:10:54.232,-0.12,-0.01
21:10:54.236,-0.08,0.015
21:10:54.240,-0.035,0.005
21:10:54.244,0.015,0.0
21:10:54.248,0.09,-0.03
21:10:54.252,0.185,-0.02
21:10:54.256,0.23,-0.04
21:10:54.260,0.275,-0.07
21:10:54.264,0.315,-0.07
21:10:54.268,0.33,-0.025
21:10:54.272,0.315,-0.05
21:10:54.276,0.345,-0.115
21:10:54.280,0.505,-0.245
21:10:54.284,0.75,-0.41
21:10:54.288,1.03,-0.655
21:10:54.292,1.1,-0.865
21:10:54.296,0.87,-0.995
21:10:54.300,0.445,-0.9
21:10:54.304,0.06,-0.59
21:10:54.308,-0.145,-0.3
21:10:54.312,-0.215,-0.14
21:10:54.316,-0.255,-0.055
21:10:54.320,-0.27,0.035
21:10:54.324,-0.275,0.07
21:10:54.328,-0.32,0.12
21:10:54.332,-0.335,0.11
21:10:54.336,-0.365,0.075
21:10:54.340,-0.355,0.08
21:10:54.344,-0.37,0.05
21:10:54.348,-0.38,0.03
21:10:54.352,-0.395,0.01
21:10:54.356,-0.395,0.015
21:10:54.360,-0.41,0.01
21:10:54.364,-0.43,-0.03
21:10:54.368,-0.43,-0.005
21:10:54.372,-0.425,0.0
21:10:54.376,-0.41,-0.02
21:10:54.380,-0.43,-0.015
21:10:54.384,-0.445,-0.005
21:10:54.388,-0.475,0.01
21:10:54.392,-0.475,-0.02
21:10:54.396,-0.475,-0.05
21:10:54.400,-0.46,-0.035
21:10:54.404,-0.435,-0.055
21:10:54.408,-0.41,-0.08
21:10:54.412,-0.42,-0.09
21:10:54.416,-0.44,-0.12
21:10:54.420,-0.44,-0.135
21:10:54.424,-0.44,-0.155
21:10:54.428,-0.425,-0.16
21:10:54.432,-0.435,-0.15
21:10:54.436,-0.435,-0.175
21:10:54.440,-0.405,-0.135
21:10:54.444,-0.425,-0.15
21:10:54.448,-0.39,-0.125
21:10:54.452,-0.39,-0.135
21:10:54.456,-0.375,-0.095
21:10:54.460,-0.35,-0.1
21:10:54.464,-0.365,-0.115
21:10:54.468,-0.38,-0.09
21:10:54.472,-0.385,-0.09
21:10:54.476,-0.415,-0.105
21:10:54.480,-0.405,-0.095
21:10:54.484,-0.405,-0.08
21:10:54.488,-0.41,-0.085
21:10:54.492,-0.41,-0.09
21:10:54.496,-0.4,-0.1
21:10:54.500,-0.4,-0.13
21:10:54.504,-0.395,-0.135
21:10:54.508,-0.38,-0.145
21:10:54.512,-0.365,-0.14
21:10:54.516,-0.35,-0.16
21:10:54.520,-0.32,-0.175
21:10:54.524,-0.32,-0.195
21:10:54.528,-0.32,-0.195
21:10:54.532,-0.305,-0.19
21:10:54.536,-0.275,-0.21
21:10:54.540,-0.28,-0.215
21:10:54.544,-0.27,-0.225
21:10:54.548,-0.265,-0.215
21:10:54.552,-0.27,-0.225
21:10:54.556,-0.245,-0.225
21:10:54.560,-0.25,-0.215
21:10:54.564,-0.23,-0.225
21:10:54.568,-0.22,-0.235
21:10:54.572,-0.215,-0.245
21:10:54.576,-0.2,-0.25
21:10:54.580,-0.2,-0.26
21:10:54.584,-0.195,-0.25
21:10:54.588,-0.185,-0.26
21:10:54.592,-0.175,-0.265
21:10:54.596,-0.155,-0.275
21:10:54.600,-0.18,-0.29
21:10:54.604,-0.18,-0.25
21:10:54.608,-0.185,-0.26
21:10:54.612,-0.19,-0.26
21:10:54.616,-0.18,-0.245
21:10:54.620,-0.18,-0.245
21:10:54.624,-0.185,-0.255
21:10:54.628,-0.2,-0.235
21:10:54.632,-0.18,-0.24
21:10:54.636,-0.195,-0.225
21:10:54.640,-0.15,-0.245
21:10:54.644,-0.07,-0.23
21:10:54.648,-0.005,-0.215
21:10:54.652,0.065,-0.21
21:10:54.656,0.15,-0.25
21:10:54.660,0.215,-0.29
21:10:54.664,0.26,-0.31
21:10:54.668,0.28,-0.345
21:10:54.672,0.275,-0.34
21:10:54.676,0.265,-0.32
21:10:54.680,0.265,-0.32
21:10:54.684,0.355,-0.37
21:10:54.688,0.58,-0.45
21:10:54.692,0.855,-0.68
21:10:54.696,1.075,-0.925
21:10:54.700,1.08,-1.175
21:10:54.704,0.88,-1.255
21:10:54.708,0.47,-1.105
21:10:54.712,0.08,-0.78
21:10:54.716,-0.12,-0.5
21:10:54.720,-0.205,-0.3
21:10:54.724,-0.235,-0.205
21:10:54.728,-0.245,-0.135
21:10:54.732,-0.25,-0.115
21:10:54.736,-0.285,-0.105
21:10:54.740,-0.29,-0.095
21:10:54.744,-0.305,-0.13
21:10:54.748,-0.31,-0.13
21:10:54.752,-0.305,-0.145
21:10:54.756,-0.315,-0.17
21:10:54.760,-0.315,-0.16
21:10:54.764,-0.32,-0.17
21:10:54.768,-0.35,-0.16
21:10:54.772,-0.34,-0.135
21:10:54.776,-0.34,-0.15
21:10:54.780,-0.335,-0.145
21:10:54.784,-0.35,-0.15
21:10:54.788,-0.36,-0.155
21:10:54.792,-0.355,-0.12
21:10:54.796,-0.35,-0.12
21:10:54.800,-0.355,-0.125
21:10:54.804,-0.34,-0.125
21:10:54.808,-0.36,-0.11
21:10:54.812,-0.37,-0.11
21:10:54.816,-0.37,-0.1
21:10:54.820,-0.36,-0.105
21:10:54.824,-0.385,-0.105
21:10:54.828,-0.385,-0.125
21:10:54.832,-0.405,-0.12
21:10:54.836,-0.415,-0.115
21:10:54.840,-0.405,-0.1
21:10:54.844,-0.43,-0.12
21:10:54.848,-0.43,-0.115
21:10:54.852,-0.425,-0.105
21:10:54.856,-0.42,-0.075
21:10:54.860,-0.42,-0.07
21:10:54.864,-0.4,-0.08
21:10:54.868,-0.36,-0.08
21:10:54.872,-0.335,-0.115
21:10:54.876,-0.3,-0.1
21:10:54.880,-0.29,-0.1
21:10:54.884,-0.26,-0.095
21:10:54.888,-0.235,-0.13
21:10:54.892,-0.235,-0.095
21:10:54.896,-0.215,-0.105
21:10:54.900,-0.215,-0.13
21:10:54.904,-0.235,-0.115
21:10:54.908,-0.22,-0.125
21:10:54.912,-0.22,-0.13
21:10:54.916,-0.215,-0.125
21:10:54.920,-0.2,-0.14
21:10:54.924,-0.21,-0.135
21:10:54.928,-0.17,-0.12
21:10:54.932,-0.15,-0.14
21:10:54.936,-0.155,-0.14
21:10:54.940,-0.145,-0.145
21:10:54.944,-0.13,-0.17
21:10:54.948,-0.135,-0.155
21:10:54.952,-0.12,-0.16
21:10:54.956,-0.11,-0.17
21:10:54.960,-0.105,-0.155
21:10:54.964,-0.14,-0.16
21:10:54.968,-0.125,-0.155
21:10:54.972,-0.135,-0.16
21:10:54.976,-0.13,-0.16
21:10:54.980,-0.135,-0.17
21:10:54.984,-0.13,-0.155
21:10:54.988,-0.14,-0.16
21:10:54.992,-0.145,-0.15
21:10:54.996,-0.12,-0.135
21:10:55.000,-0.115,-0.125
21:10:55.004,-0.135,-0.125
21:10:55.008,-0.11,-0.115
21:10:55.012,-0.11,-0.09
21:10:55.016,-0.105,-0.1
21:10:55.020,-0.11,-0.1
21:10:55.024,-0.12,-0.105
21:10:55.028,-0.115,-0.12
21:10:55.032,-0.115,-0.105
21:10:55.036,-0.1,-0.115
21:10:55.040,-0.105,-0.115
21:10:55.044,-0.125,-0.11
21:10:55.048,-0.14,-0.105
21:10:55.052,-0.16,-0.09
21:10:55.056,-0.155,-0.1
21:10:55.060,-0.165,-0.085
21:10:55.064,-0.16,-0.08
21:10:55.068,-0.15,-0.09
21:10:55.072,-0.145,-0.075
21:10:55.076,-0.165,-0.06
21:10:55.080,-0.155,-0.09
21:10:55.084,-0.135,-0.075
21:10:55.088,-0.105,-0.085
21:10:55.092,-0.015,-0.075
21:10:55.096,0.08,-0.075
21:10:55.100,0.19,-0.085
21:10:55.104,0.255,-0.115
21:10:55.108,0.305,-0.125
21:10:55.112,0.315,-0.205
21:10:55.116,0.305,-0.215
21:10:55.120,0.27,-0.23
21:10:55.124,0.225,-0.255
21:10:55.128,0.23,-0.285
21:10:55.132,0.34,-0.405
21:10:55.136,0.61,-0.55
21:10:55.140,0.915,-0.775
21:10:55.144,1.095,-1.055
21:10:55.148,1.105,-1.24
21:10:55.152,0.805,-1.25
21:10:55.156,0.365,-0.99
21:10:55.160,-0.005,-0.64
21:10:55.164,-0.175,-0.365
21:10:55.168,-0.23,-0.225
21:10:55.172,-0.25,-0.125
21:10:55.176,-0.235,-0.08
21:10:55.180,-0.26,-0.035
21:10:55.184,-0.255,-0.015
21:10:55.188,-0.28,-0.015
21:10:55.192,-0.275,-0.02
21:10:55.196,-0.27,-0.025
21:10:55.200,-0.275,-0.05
21:10:55.204,-0.275,-0.06
21:10:55.208,-0.275,-0.06
21:10:55.212,-0.28,-0.07
21:10:55.216,-0.29,-0.05
21:10:55.220,-0.305,-0.045
21:10:55.224,-0.305,-0.035
21:10:55.228,-0.3,-0.025
21:10:55.232,-0.305,-0.01
21:10:55.236,-0.33,-0.015
21:10:55.240,-0.335,-0.02
21:10:55.244,-0.32,-0.025
21:10:55.248,-0.325,-0.01
21:10:55.252,-0.36,-0.02
21:10:55.256,-0.375,0.0
21:10:55.260,-0.39,-0.01
21:10:55.264,-0.4,-0.02
21:10:55.268,-0.4,0.0
21:10:55.272,-0.41,-0.01
21:10:55.276,-0.39,0.0
21:10:55.280,-0.385,0.005
21:10:55.284,-0.35,0.0
21:10:55.288,-0.345,-0.015
21:10:55.292,-0.33,0.0
21:10:55.296,-0.31,-0.005
21:10:55.300,-0.305,0.01
21:10:55.304,-0.305,0.0
21:10:55.308,-0.315,0.02
21:10:55.312,-0.285,0.055
21:10:55.316,-0.295,0.055
21:10:55.320,-0.275,0.05
21:10:55.324,-0.265,0.08
21:10:55.328,-0.22,0.085
21:10:55.332,-0.225,0.085
21:10:55.336,-0.23,0.085
21:10:55.340,-0.24,0.065
21:10:55.344,-0.225,0.075
21:10:55.348,-0.205,0.045
21:10:55.352,-0.2,0.015
21:10:55.356,-0.19,-0.02
21:10:55.360,-0.195,-0.025
21:10:55.364,-0.17,-0.055
21:10:55.368,-0.17,-0.055
21:10:55.372,-0.16,-0.1
21:10:55.376,-0.17,-0.1
21:10:55.380,-0.155,-0.13
21:10:55.384,-0.15,-0.135
21:10:55.388,-0.13,-0.16
21:10:55.392,-0.11,-0.15
21:10:55.396,-0.085,-0.155
21:10:55.400,-0.095,-0.145
21:10:55.404,-0.08,-0.155
21:10:55.408,-0.09,-0.15
21:10:55.412,-0.075,-0.155
21:10:55.416,-0.08,-0.155
21:10:55.420,-0.07,-0.16
21:10:55.424,-0.08,-0.14
21:10:55.428,-0.07,-0.14
21:10:55.432,-0.07,-0.135
21:10:55.436,-0.075,-0.14
21:10:55.440,-0.04,-0.145
21:10:55.444,-0.065,-0.145
21:10:55.448,-0.06,-0.145
21:10:55.452,-0.07,-0.125
21:10:55.456,-0.09,-0.15
21:10:55.460,-0.085,-0.115
21:10:55.464,-0.095,-0.13
21:10:55.468,-0.125,-0.115
21:10:55.472,-0.13,-0.1
21:10:55.476,-0.11,-0.13
21:10:55.480,-0.15,-0.09
21:10:55.484,-0.16,-0.09
21:10:55.488,-0.18,-0.1
21:10:55.492,-0.185,-0.09
21:10:55.496,-0.19,-0.105
21:10:55.500,-0.165,-0.105
21:10:55.504,-0.165,-0.105
21:10:55.508,-0.155,-0.105
21:10:55.512,-0.13,-0.095
21:10:55.516,-0.14,-0.085
21:10:55.520,-0.14,-0.08
21:10:55.524,-0.115,-0.08
21:10:55.528,-0.09,-0.08
21:10:55.532,-0.09,-0.06
21:10:55.536,-0.06,-0.045
21:10:55.540,-0.05,-0.05
21:10:55.544,-0.04,-0.055
21:10:55.548,-0.045,-0.045
21:10:55.552,-0.045,-0.015
21:10:55.556,-0.08,-0.02
21:10:55.560,-0.09,-0.005
21:10:55.564,-0.09,-0.01
21:10:55.568,-0.08,-0.005
21:10:55.572,-0.07,-0.01
21:10:55.576,-0.07,-0.03
21:10:55.580,-0.08,-0.05
21:10:55.584,-0.09,-0.07
21:10:55.588,-0.09,-0.09
21:10:55.592,-0.085,-0.12
21:10:55.596,-0.105,-0.135
21:10:55.600,-0.11,-0.145
21:10:55.604,-0.105,-0.15
21:10:55.608,-0.115,-0.16
21:10:55.612,-0.12,-0.145
21:10:55.616,-0.135,-0.17
21:10:55.620,-0.145,-0.155
21:10:55.624,-0.13,-0.16
21:10:55.628,-0.125,-0.18
21:10:55.632,-0.14,-0.16
21:10:55.636,-0.135,-0.155
21:10:55.640,-0.14,-0.155
21:10:55.644,-0.125,-0.155
21:10:55.648,-0.125,-0.16
21:10:55.652,-0.11,-0.15
21:10:55.656,-0.12,-0.145
21:10:55.660,-0.145,-0.155
21:10:55.664,-0.135,-0.16
21:10:55.668,-0.135,-0.16
21:10:55.672,-0.145,-0.15
21:10:55.676,-0.135,-0.165
21:10:55.680,-0.14,-0.13
21:10:55.684,-0.12,-0.16
21:10:55.688,-0.075,-0.16
21:10:55.692,-0.015,-0.135
21:10:55.696,0.055,-0.175
21:10:55.700,0.125,-0.2
21:10:55.704,0.15,-0.205
21:10:55.708,0.205,-0.27
21:10:55.712,0.21,-0.29
21:10:55.716,0.25,-0.27
21:10:55.720,0.23,-0.275
21:10:55.724,0.26,-0.355
21:10:55.728,0.36,-0.425
21:10:55.732,0.625,-0.57
21:10:55.736,0.965,-0.805
21:10:55.740,1.155,-0.99
21:10:55.744,1.135,-1.185
21:10:55.748,0.785,-1.165
21:10:55.752,0.315,-0.93
21:10:55.756,0.015,-0.54
21:10:55.760,-0.125,-0.28
21:10:55.764,-0.17,-0.13
21:10:55.768,-0.19,-0.015
21:10:55.772,-0.21,0.065
21:10:55.776,-0.245,0.095
21:10:55.780,-0.26,0.125
21:10:55.784,-0.29,0.105
21:10:55.788,-0.275,0.1
21:10:55.792,-0.25,0.065
21:10:55.796,-0.24,0.035
21:10:55.800,-0.27,0.005
21:10:55.804,-0.28,-0.015
21:10:55.808,-0.26,-0.05
21:10:55.812,-0.265,-0.06
21:10:55.816,-0.29,-0.06
21:10:55.820,-0.315,-0.09
21:10:55.824,-0.305,-0.1
21:10:55.828,-0.305,-0.095
21:10:55.832,-0.32,-0.085
21:10:55.836,-0.31,-0.12
21:10:55.840,-0.305,-0.115
21:10:55.844,-0.32,-0.11
21:10:55.848,-0.335,-0.12
21:10:55.852,-0.35,-0.115
21:10:55.856,-0.355,-0.105
21:10:55.860,-0.345,-0.095
21:10:55.864,-0.355,-0.09
21:10:55.868,-0.36,-0.1
21:10:55.872,-0.375,-0.085
21:10:55.876,-0.375,-0.095
21:10:55.880,-0.375,-0.08
21:10:55.884,-0.37,-0.075
21:10:55.888,-0.38,-0.06
21:10:55.892,-0.4,-0.075
21:10:55.896,-0.395,-0.075
21:10:55.900,-0.39,-0.085
21:10:55.904,-0.4,-0.08
21:10:55.908,-0.395,-0.075
21:10:55.912,-0.4,-0.07
21:10:55.916,-0.385,-0.08
21:10:55.920,-0.395,-0.04
21:10:55.924,-0.385,-0.075
21:10:55.928,-0.385,-0.07
21:10:55.932,-0.36,-0.085
21:10:55.936,-0.335,-0.085
21:10:55.940,-0.31,-0.09
21:10:55.944,-0.305,-0.095
21:10:55.948,-0.285,-0.115
21:10:55.952,-0.275,-0.1
21:10:55.956,-0.22,-0.1
21:10:55.960,-0.2,-0.125
21:10:55.964,-0.195,-0.085
21:10:55.968,-0.175,-0.105
21:10:55.972,-0.16,-0.08
21:10:55.976,-0.145,-0.07
21:10:55.980,-0.14,-0.08
21:10:55.984,-0.13,-0.08
21:10:55.988,-0.15,-0.055
21:10:55.992,-0.16,-0.045
21:10:55.996,-0.145,-0.05
21:10:56.000,-0.145,-0.045
21:10:56.004,-0.13,-0.055
21:10:56.008,-0.145,-0.07
21:10:56.012,-0.105,-0.06
21:10:56.016,-0.105,-0.07
21:10:56.020,-0.1,-0.075
21:10:56.024,-0.08,-0.07
21:10:56.028,-0.065,-0.085
21:10:56.032,-0.08,-0.115
21:10:56.036,-0.095,-0.155
21:10:56.040,-0.09,-0.14
21:10:56.044,-0.12,-0.135
21:10:56.048,-0.095,-0.14
21:10:56.052,-0.095,-0.155
21:10:56.056,-0.11,-0.155
21:10:56.060,-0.12,-0.15
21:10:56.064,-0.115,-0.145
21:10:56.068,-0.12,-0.155
21:10:56.072,-0.13,-0.155
21:10:56.076,-0.135,-0.145
21:10:56.080,-0.15,-0.165
21:10:56.084,-0.15,-0.13
21:10:56.088,-0.145,-0.125
21:10:56.092,-0.135,-0.125
21:10:56.096,-0.155,-0.12
21:10:56.100,-0.16,-0.1
21:10:56.104,-0.16,-0.12
21:10:56.108,-0.175,-0.1
21:10:56.112,-0.18,-0.12
21:10:56.116,-0.2,-0.11
21:10:56.120,-0.19,-0.1
21:10:56.124,-0.2,-0.11
21:10:56.128,-0.19,-0.105
21:10:56.132,-0.215,-0.095
21:10:56.136,-0.2,-0.11
21:10:56.140,-0.215,-0.1
21:10:56.144,-0.215,-0.095
21:10:56.148,-0.2,-0.105
21:10:56.152,-0.2,-0.115
21:10:56.156,-0.18,-0.11
21:10:56.160,-0.16,-0.13
21:10:56.164,-0.15,-0.12
21:10:56.168,-0.11,-0.11
21:10:56.172,-0.055,-0.1
21:10:56.176,0.005,-0.11
21:10:56.180,0.08,-0.11
21:10:56.184,0.15,-0.12
21:10:56.188,0.19,-0.125
21:10:56.192,0.185,-0.165
21:10:56.196,0.21,-0.145
21:10:56.200,0.215,-0.15
21:10:56.204,0.17,-0.14
21:10:56.208,0.175,-0.17
21:10:56.212,0.335,-0.265
21:10:56.216,0.62,-0.405
21:10:56.220,0.905,-0.65
21:10:56.224,1.07,-0.88
21:10:56.228,0.995,-1.045
21:10:56.232,0.655,-1.005
21:10:56.236,0.235,-0.73
21:10:56.240,-0.045,-0.415
21:10:56.244,-0.155,-0.14
21:10:56.248,-0.21,-0.03
21:10:56.252,-0.235,0.055
21:10:56.256,-0.26,0.07
21:10:56.260,-0.285,0.08
21:10:56.264,-0.275,0.07
21:10:56.268,-0.265,0.06
21:10:56.272,-0.29,0.015
21:10:56.276,-0.285,-0.01
21:10:56.280,-0.305,-0.045
21:10:56.284,-0.28,-0.045
21:10:56.288,-0.32,-0.065
21:10:56.292,-0.34,-0.06
21:10:56.296,-0.32,-0.035
21:10:56.300,-0.335,-0.08
21:10:56.304,-0.355,-0.05
21:10:56.308,-0.36,-0.03
21:10:56.312,-0.36,-0.035
21:10:56.316,-0.36,-0.025
21:10:56.320,-0.36,-0.035
21:10:56.324,-0.385,-0.02
21:10:56.328,-0.38,-0.025
21:10:56.332,-0.375,-0.025
21:10:56.336,-0.38,0.015
21:10:56.340,-0.385,0.005
21:10:56.344,-0.405,-0.005
21:10:56.348,-0.395,0.01
21:10:56.352,-0.39,0.02
21:10:56.356,-0.395,0.03
21:10:56.360,-0.405,0.04
21:10:56.364,-0.41,0.04
21:10:56.368,-0.415,0.04
21:10:56.372,-0.405,0.055
21:10:56.376,-0.395,0.04
21:10:56.380,-0.365,0.025
21:10:56.384,-0.385,0.04
21:10:56.388,-0.355,0.065
21:10:56.392,-0.355,0.065
21:10:56.396,-0.325,0.085
21:10:56.400,-0.31,0.1
21:10:56.404,-0.31,0.1
21:10:56.408,-0.3,0.115
21:10:56.412,-0.3,0.13
21:10:56.416,-0.29,0.15
21:10:56.420,-0.29,0.135
21:10:56.424,-0.27,0.135
21:10:56.428,-0.29,0.14
21:10:56.432,-0.3,0.165
21:10:56.436,-0.3,0.16
21:10:56.440,-0.295,0.15
21:10:56.444,-0.28,0.155
21:10:56.448,-0.245,0.14
21:10:56.452,-0.205,0.13
21:10:56.456,-0.175,0.115
21:10:56.460,-0.14,0.085
21:10:56.464,-0.125,0.07
21:10:56.468,-0.145,0.065
21:10:56.472,-0.13,0.06
21:10:56.476,-0.14,0.06
21:10:56.480,-0.135,0.065
21:10:56.484,-0.155,0.045
21:10:56.488,-0.155,0.075
21:10:56.492,-0.145,0.065
21:10:56.496,-0.14,0.03
21:10:56.500,-0.17,0.055
21:10:56.504,-0.175,0.05
21:10:56.508,-0.195,0.055
21:10:56.512,-0.2,0.065
21:10:56.516,-0.22,0.05
21:10:56.520,-0.24,0.055
21:10:56.524,-0.255,0.045
21:10:56.528,-0.26,0.04
21:10:56.532,-0.245,0.05
21:10:56.536,-0.25,0.005
21:10:56.540,-0.25,0.03
21:10:56.544,-0.235,0.045
21:10:56.548,-0.225,0.045
21:10:56.552,-0.25,0.04
21:10:56.556,-0.25,0.065
21:10:56.560,-0.25,0.05
21:10:56.564,-0.25,0.035
21:10:56.568,-0.255,0.04
21:10:56.572,-0.255,0.035
21:10:56.576,-0.24,0.045
21:10:56.580,-0.245,0.035
21:10:56.584,-0.27,0.035
21:10:56.588,-0.28,0.015
21:10:56.592,-0.275,0.005
21:10:56.596,-0.24,0.02
21:10:56.600,-0.22,0.02
21:10:56.604,-0.22,0.005
21:10:56.608,-0.22,0.0
21:10:56.612,-0.21,0.015
21:10:56.616,-0.19,0.025
21:10:56.620,-0.21,0.025
21:10:56.624,-0.205,0.04
21:10:56.628,-0.22,0.025
21:10:56.632,-0.2,0.035
21:10:56.636,-0.195,0.03
21:10:56.640,-0.19,0.04
21:10:56.644,-0.19,0.055
21:10:56.648,-0.225,0.03
21:10:56.652,-0.25,0.05
21:10:56.656,-0.22,0.04
21:10:56.660,-0.215,0.05
21:10:56.664,-0.2,0.005
21:10:56.668,-0.185,0.005
21:10:56.672,-0.15,-0.005
21:10:56.676,-0.135,-0.025
21:10:56.680,-0.1,-0.035
21:10:56.684,-0.085,-0.06
21:10:56.688,-0.085,-0.055
21:10:56.692,-0.09,-0.03
21:10:56.696,-0.1,-0.03
21:10:56.700,-0.09,-0.03
21:10:56.704,-0.105,-0.035
21:10:56.708,-0.115,-0.045
21:10:56.712,-0.11,-0.045
21:10:56.716,-0.115,-0.05
21:10:56.720,-0.155,-0.05
21:10:56.724,-0.17,-0.065
21:10:56.728,-0.165,-0.08
21:10:56.732,-0.17,-0.06
21:10:56.736,-0.2,-0.075
21:10:56.740,-0.19,-0.06
21:10:56.744,-0.22,-0.065
21:10:56.748,-0.235,-0.06
21:10:56.752,-0.23,-0.065
21:10:56.756,-0.225,-0.085
21:10:56.760,-0.235,-0.07
21:10:56.764,-0.255,-0.08
21:10:56.768,-0.26,-0.06
21:10:56.772,-0.26,-0.065
21:10:56.776,-0.275,-0.085
21:10:56.780,-0.27,-0.09
21:10:56.784,-0.26,-0.1
21:10:56.788,-0.25,-0.1
21:10:56.792,-0.265,-0.1
21:10:56.796,-0.25,-0.125
21:10:56.800,-0.255,-0.155
21:10:56.804,-0.255,-0.11
21:10:56.808,-0.24,-0.13
21:10:56.812,-0.245,-0.145
21:10:56.816,-0.215,-0.17
21:10:56.820,-0.23,-0.16
21:10:56.824,-0.195,-0.145
21:10:56.828,-0.2,-0.15
21:10:56.832,-0.185,-0.15
21:10:56.836,-0.145,-0.155
21:10:56.840,-0.1,-0.135
21:10:56.844,-0.01,-0.13
21:10:56.848,0.08,-0.13
21:10:56.852,0.185,-0.16
21:10:56.856,0.235,-0.185
21:10:56.860,0.305,-0.225
21:10:56.864,0.35,-0.26
21:10:56.868,0.375,-0.265
21:10:56.872,0.34,-0.265
21:10:56.876,0.325,-0.27
21:10:56.880,0.36,-0.35
21:10:56.884,0.55,-0.47
21:10:56.888,0.87,-0.665
21:10:56.892,1.095,-0.915
21:10:56.896,1.125,-1.09
21:10:56.900,0.865,-1.16
21:10:56.904,0.43,-1.01
21:10:56.908,0.075,-0.705
21:10:56.912,-0.095,-0.445
21:10:56.916,-0.175,-0.28
21:10:56.920,-0.185,-0.175
21:10:56.924,-0.2,-0.09
21:10:56.928,-0.235,-0.02
21:10:56.932,-0.26,-0.05
21:10:56.936,-0.295,-0.05
21:10:56.940,-0.31,-0.05
21:10:56.944,-0.34,-0.09
21:10:56.948,-0.335,-0.105
21:10:56.952,-0.33,-0.135
21:10:56.956,-0.335,-0.12
21:10:56.960,-0.36,-0.135
21:10:56.964,-0.37,-0.145
21:10:56.968,-0.39,-0.155
21:10:56.972,-0.405,-0.135
21:10:56.976,-0.385,-0.145
21:10:56.980,-0.41,-0.145
21:10:56.984,-0.43,-0.14
21:10:56.988,-0.43,-0.145
21:10:56.992,-0.43,-0.11
21:10:56.996,-0.44,-0.12
21:10:57.000,-0.455,-0.14
21:10:57.004,-0.47,-0.165
21:10:57.008,-0.47,-0.16
21:10:57.012,-0.47,-0.14
21:10:57.016,-0.46,-0.15
21:10:57.020,-0.465,-0.145
21:10:57.024,-0.45,-0.16
21:10:57.028,-0.445,-0.155
21:10:57.032,-0.45,-0.155
21:10:57.036,-0.44,-0.145
21:10:57.040,-0.44,-0.165
21:10:57.044,-0.44,-0.135
21:10:57.048,-0.43,-0.135
21:10:57.052,-0.415,-0.12
21:10:57.056,-0.405,-0.125
21:10:57.060,-0.425,-0.12
21:10:57.064,-0.41,-0.11
21:10:57.068,-0.42,-0.095
21:10:57.072,-0.425,-0.095
21:10:57.076,-0.41,-0.12
21:10:57.080,-0.405,-0.135
21:10:57.084,-0.4,-0.095
21:10:57.088,-0.395,-0.095
21:10:57.092,-0.4,-0.09
21:10:57.096,-0.41,-0.09
21:10:57.100,-0.415,-0.095
21:10:57.104,-0.4,-0.095
21:10:57.108,-0.395,-0.11
21:10:57.112,-0.405,-0.105
21:10:57.116,-0.37,-0.12
21:10:57.120,-0.34,-0.1
21:10:57.124,-0.315,-0.135
21:10:57.128,-0.255,-0.16
21:10:57.132,-0.225,-0.175
21:10:57.136,-0.215,-0.18
21:10:57.140,-0.195,-0.205
21:10:57.144,-0.18,-0.2
21:10:57.148,-0.18,-0.225
21:10:57.152,-0.155,-0.22
21:10:57.156,-0.18,-0.215
21:10:57.160,-0.15,-0.22
21:10:57.164,-0.16,-0.21
21:10:57.168,-0.18,-0.235
21:10:57.172,-0.18,-0.21
21:10:57.176,-0.225,-0.23
21:10:57.180,-0.23,-0.21
21:10:57.184,-0.235,-0.22
21:10:57.188,-0.225,-0.215
21:10:57.192,-0.225,-0.2
21:10:57.196,-0.23,-0.2
21:10:57.200,-0.255,-0.195
21:10:57.204,-0.265,-0.2
21:10:57.208,-0.265,-0.18
21:10:57.212,-0.24,-0.145
21:10:57.216,-0.24,-0.165
21:10:57.220,-0.2,-0.145
21:10:57.224,-0.215,-0.135
21:10:57.228,-0.195,-0.15
21:10:57.232,-0.2,-0.155
21:10:57.236,-0.21,-0.155
21:10:57.240,-0.205,-0.14
21:10:57.244,-0.2,-0.125
21:10:57.248,-0.215,-0.13
21:10:57.252,-0.21,-0.12
21:10:57.256,-0.19,-0.1
21:10:57.260,-0.19,-0.075
21:10:57.264,-0.145,-0.09
21:10:57.268,-0.08,-0.095
21:10:57.272,-0.025,-0.07
21:10:57.276,0.055,-0.08
21:10:57.280,0.075,-0.11
21:10:57.284,0.11,-0.1
21:10:57.288,0.11,-0.135
21:10:57.292,0.095,-0.16
21:10:57.296,0.105,-0.17
21:10:57.300,0.065,-0.155
21:10:57.304,0.115,-0.185
21:10:57.308,0.31,-0.265
21:10:57.312,0.595,-0.4
21:10:57.316,0.9,-0.64
21:10:57.320,1.09,-0.91
21:10:57.324,1.03,-1.095
21:10:57.328,0.73,-1.055
21:10:57.332,0.295,-0.8
21:10:57.336,-0.015,-0.445
21:10:57.340,-0.155,-0.195
21:10:57.344,-0.18,0.0
21:10:57.348,-0.2,0.06
21:10:57.352,-0.205,0.1
21:10:57.356,-0.225,0.115
21:10:57.360,-0.215,0.095
21:10:57.364,-0.22,0.065
21:10:57.368,-0.225,0.035
21:10:57.372,-0.225,0.015
21:10:57.376,-0.235,0.01
21:10:57.380,-0.25,-0.005
21:10:57.384,-0.255,-0.03
21:10:57.388,-0.27,-0.04
21:10:57.392,-0.28,-0.035
21:10:57.396,-0.31,-0.03
21:10:57.400,-0.345,-0.06
21:10:57.404,-0.35,-0.05
21:10:57.408,-0.37,-0.055
21:10:57.412,-0.405,-0.05
21:10:57.416,-0.415,-0.045
21:10:57.420,-0.435,-0.04
21:10:57.424,-0.445,-0.06
21:10:57.428,-0.47,-0.05
21:10:57.432,-0.47,-0.055
21:10:57.436,-0.48,-0.03
21:10:57.440,-0.46,-0.05
21:10:57.444,-0.475,-0.045
21:10:57.448,-0.44,-0.035
21:10:57.452,-0.465,-0.035
21:10:57.456,-0.45,-0.055
21:10:57.460,-0.45,-0.025
21:10:57.464,-0.455,-0.06
21:10:57.468,-0.46,-0.04
21:10:57.472,-0.47,-0.03
21:10:57.476,-0.475,-0.04
21:10:57.480,-0.465,-0.025
21:10:57.484,-0.46,-0.055
21:10:57.488,-0.435,-0.035
21:10:57.492,-0.415,-0.03
21:10:57.496,-0.415,-0.01
21:10:57.500,-0.4,-0.015
21:10:57.504,-0.38,-0.005
21:10:57.508,-0.405,0.0
21:10:57.512,-0.4,-0.01
21:10:57.516,-0.4,-0.005
21:10:57.520,-0.39,-0.01
21:10:57.524,-0.36,0.0
21:10:57.528,-0.33,0.015
21:10:57.532,-0.31,-0.01
21:10:57.536,-0.3,0.015
21:10:57.540,-0.295,-0.005
21:10:57.544,-0.26,0.0
21:10:57.548,-0.265,-0.005
21:10:57.552,-0.235,0.0
21:10:57.556,-0.2,-0.01
21:10:57.560,-0.15,-0.035
21:10:57.564,-0.125,-0.045
21:10:57.568,-0.13,-0.045
21:10:57.572,-0.115,-0.045
21:10:57.576,-0.11,-0.04
21:10:57.580,-0.085,-0.05
21:10:57.584,-0.105,-0.055
21:10:57.588,-0.105,-0.07
21:10:57.592,-0.095,-0.065
21:10:57.596,-0.1,-0.065
21:10:57.600,-0.1,-0.06
21:10:57.604,-0.11,-0.085
21:10:57.608,-0.11,-0.07
21:10:57.612,-0.135,-0.06
21:10:57.616,-0.145,-0.06
21:10:57.620,-0.195,-0.08
21:10:57.624,-0.19,-0.075
21:10:57.628,-0.21,-0.07
21:10:57.632,-0.215,-0.06
21:10:57.636,-0.22,-0.07
21:10:57.640,-0.225,-0.055
21:10:57.644,-0.21,-0.06
21:10:57.648,-0.24,-0.06
21:10:57.652,-0.235,-0.08
21:10:57.656,-0.2,-0.075
21:10:57.660,-0.16,-0.07
21:10:57.664,-0.13,-0.07
21:10:57.668,-0.08,-0.055
21:10:57.672,-0.035,-0.06
21:10:57.676,0.02,-0.095
21:10:57.680,0.065,-0.105
21:10:57.684,0.07,-0.115
21:10:57.688,0.07,-0.145
21:10:57.692,0.09,-0.155
21:10:57.696,0.075,-0.18
21:10:57.700,0.065,-0.195
21:10:57.704,0.145,-0.23
21:10:57.708,0.375,-0.33
21:10:57.712,0.675,-0.495
21:10:57.716,0.945,-0.755
21:10:57.720,1.025,-0.96
21:10:57.724,0.84,-1.07
21:10:57.728,0.435,-0.935
21:10:57.732,0.0,-0.62
21:10:57.736,-0.29,-0.28
21:10:57.740,-0.37,-0.085
21:10:57.744,-0.4,0.0
21:10:57.748,-0.41,0.08
21:10:57.752,-0.415,0.12
21:10:57.756,-0.43,0.11
21:10:57.760,-0.42,0.12
21:10:57.764,-0.415,0.12
21:10:57.768,-0.395,0.09
21:10:57.772,-0.39,0.085
21:10:57.776,-0.37,0.055
21:10:57.780,-0.37,0.055
21:10:57.784,-0.36,0.02
21:10:57.788,-0.38,0.0
21:10:57.792,-0.385,-0.02
21:10:57.796,-0.37,-0.015
21:10:57.800,-0.395,-0.045
21:10:57.804,-0.39,-0.04
21:10:57.808,-0.4,-0.03
21:10:57.812,-0.395,-0.045
21:10:57.816,-0.375,-0.06
21:10:57.820,-0.39,-0.055
21:10:57.824,-0.41,-0.06
21:10:57.828,-0.415,-0.06
21:10:57.832,-0.46,-0.075
21:10:57.836,-0.475,-0.05
21:10:57.840,-0.48,-0.055
21:10:57.844,-0.495,-0.05
21:10:57.848,-0.52,-0.05
21:10:57.852,-0.545,-0.05
21:10:57.856,-0.52,-0.06
21:10:57.860,-0.525,-0.06
21:10:57.864,-0.54,-0.04
21:10:57.868,-0.535,-0.04
21:10:57.872,-0.52,-0.045
21:10:57.876,-0.505,-0.035
21:10:57.880,-0.5,-0.04
21:10:57.884,-0.48,-0.03
21:10:57.888,-0.465,-0.035
21:10:57.892,-0.465,-0.025
21:10:57.896,-0.45,-0.03
21:10:57.900,-0.45,-0.04
21:10:57.904,-0.425,-0.04
21:10:57.908,-0.43,-0.025
21:10:57.912,-0.41,-0.045
21:10:57.916,-0.385,-0.035
21:10:57.920,-0.37,-0.035
21:10:57.924,-0.335,-0.045
21:10:57.928,-0.345,-0.04
21:10:57.932,-0.34,-0.055
21:10:57.936,-0.315,-0.04
21:10:57.940,-0.3,-0.035
21:10:57.944,-0.31,-0.015
21:10:57.948,-0.31,-0.025
21:10:57.952,-0.285,-0.04
21:10:57.956,-0.31,-0.025
21:10:57.960,-0.275,-0.015
21:10:57.964,-0.265,-0.025
21:10:57.968,-0.265,-0.005
21:10:57.972,-0.24,-0.03
21:10:57.976,-0.225,-0.045
21:10:57.980,-0.215,-0.03
21:10:57.984,-0.17,-0.015
21:10:57.988,-0.19,-0.02
21:10:57.992,-0.18,-0.045
21:10:57.996,-0.185,-0.06
21:10:58.000,-0.18,-0.07
21:10:58.004,-0.16,-0.06
21:10:58.008,-0.195,-0.07
21:10:58.012,-0.21,-0.075
21:10:58.016,-0.225,-0.08
21:10:58.020,-0.235,-0.075
21:10:58.024,-0.245,-0.085
21:10:58.028,-0.245,-0.07
21:10:58.032,-0.265,-0.035
21:10:58.036,-0.28,-0.06
21:10:58.040,-0.27,-0.075
21:10:58.044,-0.3,-0.075
21:10:58.048,-0.32,-0.075
21:10:58.052,-0.345,-0.065
21:10:58.056,-0.35,-0.06
21:10:58.060,-0.375,-0.07
21:10:58.064,-0.395,-0.095
21:10:58.068,-0.375,-0.08
21:10:58.072,-0.39,-0.065
21:10:58.076,-0.395,-0.065
21:10:58.080,-0.39,-0.05
21:10:58.084,-0.36,-0.07
21:10:58.088,-0.355,-0.035
21:10:58.092,-0.355,-0.04
21:10:58.096,-0.32,-0.055
21:10:58.100,-0.295,-0.04
21:10:58.104,-0.295,-0.055
21:10:58.108,-0.29,-0.055
21:10:58.112,-0.295,-0.07
21:10:58.116,-0.295,-0.045
21:10:58.120,-0.28,-0.04
21:10:58.124,-0.31,-0.03
21:10:58.128,-0.3,-0.04
21:10:58.132,-0.285,-0.055
21:10:58.136,-0.265,-0.03
21:10:58.140,-0.26,-0.035
21:10:58.144,-0.26,-0.025
21:10:58.148,-0.25,-0.015
21:10:58.152,-0.225,0.0
21:10:58.156,-0.21,0.01
21:10:58.160,-0.175,0.025
21:10:58.164,-0.12,0.01
21:10:58.168,-0.04,-0.015
21:10:58.172,0.035,-0.02
21:10:58.176,0.095,-0.075
21:10:58.180,0.105,-0.125
21:10:58.184,0.125,-0.205
21:10:58.188,0.13,-0.205
21:10:58.192,0.105,-0.205
21:10:58.196,0.1,-0.24
21:10:58.200,0.18,-0.31
21:10:58.204,0.4,-0.445
21:10:58.208,0.72,-0.62
21:10:58.212,0.94,-0.875
21:10:58.216,0.99,-1.1
21:10:58.220,0.775,-1.18
21:10:58.224,0.33,-1.045
21:10:58.228,-0.085,-0.68
21:10:58.232,-0.31,-0.38
21:10:58.236,-0.38,-0.175
21:10:58.240,-0.425,-0.07
21:10:58.244,-0.44,-0.01
21:10:58.248,-0.44,0.02
21:10:58.252,-0.45,0.035
21:10:58.256,-0.455,0.05
21:10:58.260,-0.48,0.025
21:10:58.264,-0.5,0.015
21:10:58.268,-0.53,0.005
21:10:58.272,-0.515,-0.005
21:10:58.276,-0.545,0.0
21:10:58.280,-0.56,-0.02
21:10:58.284,-0.56,-0.035
21:10:58.288,-0.565,-0.025
21:10:58.292,-0.57,-0.025
21:10:58.296,-0.56,-0.005
21:10:58.300,-0.525,0.01
21:10:58.304,-0.515,0.005
21:10:58.308,-0.505,0.02
21:10:58.312,-0.51,0.025
21:10:58.316,-0.51,0.025
21:10:58.320,-0.52,0.02
21:10:58.324,-0.49,0.02
21:10:58.328,-0.505,0.055
21:10:58.332,-0.52,0.055
21:10:58.336,-0.51,0.055
21:10:58.340,-0.515,0.05
21:10:58.344,-0.505,0.035
21:10:58.348,-0.515,0.04
21:10:58.352,-0.5,0.035
21:10:58.356,-0.46,0.075
21:10:58.360,-0.445,0.04
21:10:58.364,-0.425,0.06
21:10:58.368,-0.365,0.06
21:10:58.372,-0.37,0.085
21:10:58.376,-0.365,0.06
21:10:58.380,-0.37,0.085
21:10:58.384,-0.36,0.11
21:10:58.388,-0.37,0.085
21:10:58.392,-0.355,0.05
21:10:58.396,-0.345,0.05
21:10:58.400,-0.355,0.055
21:10:58.404,-0.345,0.01
21:10:58.408,-0.335,0.015
21:10:58.412,-0.345,-0.01
21:10:58.416,-0.315,0.0
21:10:58.420,-0.31,-0.04
21:10:58.424,-0.31,-0.065
21:10:58.428,-0.275,-0.055
21:10:58.432,-0.28,-0.055
21:10:58.436,-0.29,-0.065
21:10:58.440,-0.295,-0.065
21:10:58.444,-0.28,-0.08
21:10:58.448,-0.27,-0.085
21:10:58.452,-0.28,-0.08
21:10:58.456,-0.265,-0.08
21:10:58.460,-0.27,-0.105
21:10:58.464,-0.255,-0.1
21:10:58.468,-0.255,-0.11
21:10:58.472,-0.285,-0.125
21:10:58.476,-0.275,-0.1
21:10:58.480,-0.27,-0.075
21:10:58.484,-0.285,-0.1
21:10:58.488,-0.29,-0.075
21:10:58.492,-0.295,-0.075
21:10:58.496,-0.315,-0.07
21:10:58.500,-0.32,-0.065
21:10:58.504,-0.325,-0.075
21:10:58.508,-0.32,-0.055
21:10:58.512,-0.33,-0.045
21:10:58.516,-0.34,-0.04
21:10:58.520,-0.33,-0.01
21:10:58.524,-0.31,-0.005
21:10:58.528,-0.32,-0.02
21:10:58.532,-0.3,0.005
21:10:58.536,-0.29,0.015
21:10:58.540,-0.27,0.0
21:10:58.544,-0.28,0.01
21:10:58.548,-0.285,0.035
21:10:58.552,-0.305,0.03
21:10:58.556,-0.28,0.015
21:10:58.560,-0.27,0.015
21:10:58.564,-0.29,0.02
21:10:58.568,-0.28,0.02
21:10:58.572,-0.285,0.02
21:10:58.576,-0.295,0.02
21:10:58.580,-0.29,0.025
21:10:58.584,-0.255,0.025
21:10:58.588,-0.26,0.04
21:10:58.592,-0.275,0.045
21:10:58.596,-0.265,0.03
21:10:58.600,-0.25,0.035
21:10:58.604,-0.22,0.02
21:10:58.608,-0.22,0.0
21:10:58.612,-0.205,0.05
21:10:58.616,-0.19,0.01
21:10:58.620,-0.165,-0.015
21:10:58.624,-0.165,0.0
21:10:58.628,-0.165,-0.04
21:10:58.632,-0.17,-0.055
21:10:58.636,-0.185,-0.055
21:10:58.640,-0.185,-0.035
21:10:58.644,-0.215,-0.055
21:10:58.648,-0.215,-0.065
21:10:58.652,-0.2,-0.075
21:10:58.656,-0.215,-0.1
21:10:58.660,-0.21,-0.07
21:10:58.664,-0.195,-0.08
21:10:58.668,-0.205,-0.08
21:10:58.672,-0.225,-0.1
21:10:58.676,-0.24,-0.08
21:10:58.680,-0.235,-0.095
21:10:58.684,-0.245,-0.085
21:10:58.688,-0.26,-0.09
21:10:58.692,-0.27,-0.085
21:10:58.696,-0.285,-0.09
21:10:58.700,-0.275,-0.08
21:10:58.704,-0.28,-0.08
21:10:58.708,-0.31,-0.095
21:10:58.712,-0.315,-0.09
21:10:58.716,-0.315,-0.07
21:10:58.720,-0.315,-0.12
21:10:58.724,-0.335,-0.105
21:10:58.728,-0.325,-0.105
21:10:58.732,-0.33,-0.085
21:10:58.736,-0.31,-0.07
21:10:58.740,-0.305,-0.075
21:10:58.744,-0.33,-0.065
