Time,ECG1,ECG2
21:26:29.188,-0.51,-0.12
21:26:29.192,-0.48,-0.13
21:26:29.196,-0.47,-0.14
21:26:29.200,-0.435,-0.13
21:26:29.204,-0.465,-0.135
21:26:29.208,-0.44,-0.155
21:26:29.212,-0.425,-0.17
21:26:29.216,-0.4,-0.16
21:26:29.220,-0.42,-0.17
21:26:29.224,-0.4,-0.16
21:26:29.228,-0.415,-0.185
21:26:29.232,-0.385,-0.165
21:26:29.236,-0.38,-0.18
21:26:29.240,-0.365,-0.16
21:26:29.244,-0.36,-0.17
21:26:29.248,-0.36,-0.16
21:26:29.252,-0.36,-0.18
21:26:29.256,-0.355,-0.17
21:26:29.260,-0.345,-0.17
21:26:29.264,-0.34,-0.16
21:26:29.268,-0.32,-0.155
21:26:29.272,-0.335,-0.16
21:26:29.276,-0.29,-0.155
21:26:29.280,-0.275,-0.15
21:26:29.284,-0.28,-0.14
21:26:29.288,-0.27,-0.12
21:26:29.292,-0.25,-0.12
21:26:29.296,-0.225,-0.13
21:26:29.300,-0.21,-0.085
21:26:29.304,-0.215,-0.095
21:26:29.308,-0.22,-0.08
21:26:29.312,-0.2,-0.03
21:26:29.316,-0.16,-0.035
21:26:29.320,-0.14,-0.025
21:26:29.324,-0.105,-0.005
21:26:29.328,-0.1,0.0
21:26:29.332,-0.09,0.0
21:26:29.336,-0.07,0.05
21:26:29.340,-0.045,0.035
21:26:29.344,0.005,0.055
21:26:29.348,0.005,0.04
21:26:29.352,0.0,0.035
21:26:29.356,0.0,-0.01
21:26:29.360,-0.08,-0.025
21:26:29.364,-0.135,-0.035
21:26:29.368,-0.21,-0.06
21:26:29.372,-0.21,-0.095
21:26:29.376,-0.07,-0.165
21:26:29.380,0.215,-0.315
21:26:29.384,0.535,-0.54
21:26:29.388,0.785,-0.84
21:26:29.392,0.875,-1.09
21:26:29.396,0.74,-1.135
21:26:29.400,0.35,-0.915
21:26:29.404,-0.05,-0.555
21:26:29.408,-0.24,-0.225
21:26:29.412,-0.375,-0.035
21:26:29.416,-0.42,0.015
21:26:29.420,-0.435,0.045
21:26:29.424,-0.445,0.035
21:26:29.428,-0.445,0.0
21:26:29.432,-0.46,-0.025
21:26:29.436,-0.46,-0.02
21:26:29.440,-0.465,-0.035
21:26:29.444,-0.46,-0.06
21:26:29.448,-0.475,-0.07
21:26:29.452,-0.475,-0.09
21:26:29.456,-0.455,-0.08
21:26:29.460,-0.465,-0.09
21:26:29.464,-0.465,-0.095
21:26:29.468,-0.485,-0.105
21:26:29.472,-0.485,-0.11
21:26:29.476,-0.475,-0.125
21:26:29.480,-0.495,-0.11
21:26:29.484,-0.52,-0.1
21:26:29.488,-0.54,-0.11
21:26:29.492,-0.53,-0.13
21:26:29.496,-0.535,-0.115
21:26:29.500,-0.55,-0.125
21:26:29.504,-0.55,-0.105
21:26:29.508,-0.545,-0.115
21:26:29.512,-0.55,-0.11
21:26:29.516,-0.55,-0.115
21:26:29.520,-0.575,-0.11
21:26:29.524,-0.565,-0.11
21:26:29.528,-0.55,-0.105
21:26:29.532,-0.55,-0.11
21:26:29.536,-0.55,-0.105
21:26:29.540,-0.535,-0.085
21:26:29.544,-0.54,-0.1
21:26:29.548,-0.54,-0.11
21:26:29.552,-0.52,-0.085
21:26:29.556,-0.51,-0.075
21:26:29.560,-0.52,-0.065
21:26:29.564,-0.515,-0.1
21:26:29.568,-0.5,-0.065
21:26:29.572,-0.5,-0.06
21:26:29.576,-0.495,-0.05
21:26:29.580,-0.5,-0.075
21:26:29.584,-0.505,-0.09
21:26:29.588,-0.52,-0.085
21:26:29.592,-0.48,-0.075
21:26:29.596,-0.475,-0.08
21:26:29.600,-0.48,-0.085
21:26:29.604,-0.485,-0.105
21:26:29.608,-0.475,-0.095
21:26:29.612,-0.46,-0.095
21:26:29.616,-0.445,-0.09
21:26:29.620,-0.425,-0.1
21:26:29.624,-0.41,-0.09
21:26:29.628,-0.39,-0.08
21:26:29.632,-0.395,-0.08
21:26:29.636,-0.38,-0.09
21:26:29.640,-0.365,-0.09
21:26:29.644,-0.365,-0.08
21:26:29.648,-0.375,-0.065
21:26:29.652,-0.355,-0.065
21:26:29.656,-0.36,-0.055
21:26:29.660,-0.355,-0.035
21:26:29.664,-0.35,-0.025
21:26:29.668,-0.35,-0.04
21:26:29.672,-0.325,-0.01
21:26:29.676,-0.33,-0.02
21:26:29.680,-0.34,-0.01
21:26:29.684,-0.36,0.0
21:26:29.688,-0.335,0.0
21:26:29.692,-0.36,-0.005
21:26:29.696,-0.36,-0.01
21:26:29.700,-0.365,0.005
21:26:29.704,-0.365,0.015
21:26:29.708,-0.38,0.0
21:26:29.712,-0.395,0.0
21:26:29.716,-0.39,0.015
21:26:29.720,-0.4,0.0
21:26:29.724,-0.395,0.005
21:26:29.728,-0.405,0.01
21:26:29.732,-0.395,-0.01
21:26:29.736,-0.335,0.01
21:26:29.740,-0.295,-0.005
21:26:29.744,-0.24,-0.01
21:26:29.748,-0.18,-0.025
21:26:29.752,-0.125,-0.045
21:26:29.756,-0.08,-0.06
21:26:29.760,-0.06,-0.09
21:26:29.764,-0.025,-0.095
21:26:29.768,-0.02,-0.08
21:26:29.772,-0.035,-0.07
21:26:29.776,0.0,-0.14
21:26:29.780,0.145,-0.18
21:26:29.784,0.46,-0.325
21:26:29.788,0.77,-0.545
21:26:29.792,0.97,-0.775
21:26:29.796,0.92,-0.94
21:26:29.800,0.595,-0.895
21:26:29.804,0.155,-0.625
21:26:29.808,-0.185,-0.305
21:26:29.812,-0.355,-0.08
21:26:29.816,-0.415,0.055
21:26:29.820,-0.435,0.145
21:26:29.824,-0.47,0.17
21:26:29.828,-0.5,0.175
21:26:29.832,-0.51,0.17
21:26:29.836,-0.52,0.165
21:26:29.840,-0.515,0.12
21:26:29.844,-0.525,0.115
21:26:29.848,-0.525,0.095
21:26:29.852,-0.515,0.08
21:26:29.856,-0.535,0.075
21:26:29.860,-0.535,0.075
21:26:29.864,-0.52,0.06
21:26:29.868,-0.525,0.075
21:26:29.872,-0.52,0.07
21:26:29.876,-0.545,0.075
21:26:29.880,-0.525,0.075
21:26:29.884,-0.52,0.06
21:26:29.888,-0.555,0.085
21:26:29.892,-0.54,0.095
21:26:29.896,-0.535,0.095
21:26:29.900,-0.525,0.08
21:26:29.904,-0.53,0.09
21:26:29.908,-0.555,0.085
21:26:29.912,-0.55,0.1
21:26:29.916,-0.55,0.1
21:26:29.920,-0.54,0.115
21:26:29.924,-0.54,0.12
21:26:29.928,-0.54,0.1
21:26:29.932,-0.535,0.11
21:26:29.936,-0.55,0.09
21:26:29.940,-0.55,0.11
21:26:29.944,-0.555,0.1
21:26:29.948,-0.555,0.095
21:26:29.952,-0.555,0.105
21:26:29.956,-0.55,0.07
21:26:29.960,-0.555,0.075
21:26:29.964,-0.54,0.065
21:26:29.968,-0.515,0.055
21:26:29.972,-0.495,0.04
21:26:29.976,-0.5,0.03
21:26:29.980,-0.5,0.045
21:26:29.984,-0.505,0.025
21:26:29.988,-0.525,0.02
21:26:29.992,-0.525,0.015
21:26:29.996,-0.495,0.02
21:26:30.000,-0.46,0.0
21:26:30.004,-0.44,-0.005
21:26:30.008,-0.45,-0.025
21:26:30.012,-0.435,-0.03
21:26:30.016,-0.415,-0.035
21:26:30.020,-0.435,-0.035
21:26:30.024,-0.42,-0.035
21:26:30.028,-0.415,-0.035
21:26:30.032,-0.385,-0.055
21:26:30.036,-0.36,-0.05
21:26:30.040,-0.36,-0.04
21:26:30.044,-0.36,-0.035
21:26:30.048,-0.355,-0.06
21:26:30.052,-0.35,-0.04
21:26:30.056,-0.34,-0.055
21:26:30.060,-0.34,-0.05
21:26:30.064,-0.335,-0.04
21:26:30.068,-0.35,-0.065
21:26:30.072,-0.36,-0.06
21:26:30.076,-0.35,-0.07
21:26:30.080,-0.32,-0.055
21:26:30.084,-0.325,-0.08
21:26:30.088,-0.33,-0.07
21:26:30.092,-0.35,-0.08
21:26:30.096,-0.32,-0.065
21:26:30.100,-0.35,-0.06
21:26:30.104,-0.365,-0.06
21:26:30.108,-0.365,-0.055
21:26:30.112,-0.37,-0.05
21:26:30.116,-0.345,-0.065
21:26:30.120,-0.32,-0.055
21:26:30.124,-0.335,-0.065
21:26:30.128,-0.345,-0.055
21:26:30.132,-0.35,-0.06
21:26:30.136,-0.345,-0.06
21:26:30.140,-0.355,-0.04
21:26:30.144,-0.34,-0.03
21:26:30.148,-0.33,-0.045
21:26:30.152,-0.33,-0.06
21:26:30.156,-0.335,-0.06
21:26:30.160,-0.315,-0.075
21:26:30.164,-0.28,-0.065
21:26:30.168,-0.27,-0.065
21:26:30.172,-0.225,-0.07
21:26:30.176,-0.24,-0.045
21:26:30.180,-0.225,-0.055
21:26:30.184,-0.21,-0.06
21:26:30.188,-0.23,-0.08
21:26:30.192,-0.235,-0.105
21:26:30.196,-0.25,-0.12
21:26:30.200,-0.265,-0.16
21:26:30.204,-0.3,-0.18
21:26:30.208,-0.325,-0.18
21:26:30.212,-0.345,-0.18
21:26:30.216,-0.36,-0.165
21:26:30.220,-0.385,-0.155
21:26:30.224,-0.425,-0.15
21:26:30.228,-0.43,-0.135
21:26:30.232,-0.4,-0.11
21:26:30.236,-0.415,-0.115
21:26:30.240,-0.4,-0.12
21:26:30.244,-0.405,-0.14
21:26:30.248,-0.395,-0.15
21:26:30.252,-0.385,-0.135
21:26:30.256,-0.38,-0.14
21:26:30.260,-0.39,-0.15
21:26:30.264,-0.39,-0.155
21:26:30.268,-0.37,-0.16
21:26:30.272,-0.36,-0.175
21:26:30.276,-0.38,-0.15
21:26:30.280,-0.38,-0.165
21:26:30.284,-0.38,-0.19
21:26:30.288,-0.37,-0.165
21:26:30.292,-0.385,-0.17
21:26:30.296,-0.385,-0.17
21:26:30.300,-0.375,-0.18
21:26:30.304,-0.38,-0.195
21:26:30.308,-0.385,-0.205
21:26:30.312,-0.375,-0.21
21:26:30.316,-0.365,-0.205
21:26:30.320,-0.38,-0.22
21:26:30.324,-0.38,-0.195
21:26:30.328,-0.365,-0.195
21:26:30.332,-0.335,-0.21
21:26:30.336,-0.32,-0.19
21:26:30.340,-0.275,-0.21
21:26:30.344,-0.175,-0.21
21:26:30.348,-0.065,-0.22
21:26:30.352,0.01,-0.235
21:26:30.356,0.085,-0.27
21:26:30.360,0.15,-0.34
21:26:30.364,0.185,-0.355
21:26:30.368,0.255,-0.34
21:26:30.372,0.24,-0.34
21:26:30.376,0.22,-0.39
21:26:30.380,0.285,-0.445
21:26:30.384,0.47,-0.61
21:26:30.388,0.775,-0.8
21:26:30.392,1.005,-1.02
21:26:30.396,1.01,-1.175
21:26:30.400,0.65,-1.18
21:26:30.404,0.175,-0.95
21:26:30.408,-0.165,-0.665
21:26:30.412,-0.31,-0.45
21:26:30.416,-0.4,-0.305
21:26:30.420,-0.41,-0.21
21:26:30.424,-0.4,-0.12
21:26:30.428,-0.43,-0.075
21:26:30.432,-0.48,-0.075
21:26:30.436,-0.5,-0.075
21:26:30.440,-0.49,-0.095
21:26:30.444,-0.48,-0.09
21:26:30.448,-0.49,-0.125
21:26:30.452,-0.495,-0.12
21:26:30.456,-0.485,-0.13
21:26:30.460,-0.485,-0.13
21:26:30.464,-0.475,-0.135
21:26:30.468,-0.48,-0.12
21:26:30.472,-0.48,-0.14
21:26:30.476,-0.445,-0.12
21:26:30.480,-0.445,-0.115
21:26:30.484,-0.435,-0.1
21:26:30.488,-0.44,-0.13
21:26:30.492,-0.405,-0.13
21:26:30.496,-0.37,-0.115
21:26:30.500,-0.375,-0.135
21:26:30.504,-0.345,-0.1
21:26:30.508,-0.315,-0.1
21:26:30.512,-0.265,-0.09
21:26:30.516,-0.24,-0.055
21:26:30.520,-0.23,-0.05
21:26:30.524,-0.22,-0.065
21:26:30.528,-0.24,-0.035
21:26:30.532,-0.305,-0.05
21:26:30.536,-0.355,-0.035
21:26:30.540,-0.425,-0.04
21:26:30.544,-0.465,-0.04
21:26:30.548,-0.515,-0.065
21:26:30.552,-0.53,-0.07
21:26:30.556,-0.57,-0.065
21:26:30.560,-0.53,-0.05
21:26:30.564,-0.53,-0.035
21:26:30.568,-0.51,-0.06
21:26:30.572,-0.5,-0.075
21:26:30.576,-0.48,-0.08
21:26:30.580,-0.485,-0.085
21:26:30.584,-0.505,-0.13
21:26:30.588,-0.5,-0.155
21:26:30.592,-0.51,-0.175
21:26:30.596,-0.495,-0.195
21:26:30.600,-0.5,-0.19
21:26:30.604,-0.5,-0.185
21:26:30.608,-0.5,-0.205
21:26:30.612,-0.47,-0.2
21:26:30.616,-0.46,-0.21
21:26:30.620,-0.45,-0.245
21:26:30.624,-0.44,-0.25
21:26:30.628,-0.43,-0.24
21:26:30.632,-0.43,-0.24
21:26:30.636,-0.43,-0.24
21:26:30.640,-0.415,-0.26
21:26:30.644,-0.37,-0.265
21:26:30.648,-0.38,-0.28
21:26:30.652,-0.38,-0.295
21:26:30.656,-0.36,-0.27
21:26:30.660,-0.34,-0.275
21:26:30.664,-0.34,-0.265
21:26:30.668,-0.35,-0.27
21:26:30.672,-0.325,-0.28
21:26:30.676,-0.33,-0.265
21:26:30.680,-0.31,-0.24
21:26:30.684,-0.32,-0.24
21:26:30.688,-0.29,-0.24
21:26:30.692,-0.27,-0.22
21:26:30.696,-0.26,-0.225
21:26:30.700,-0.265,-0.225
21:26:30.704,-0.285,-0.18
21:26:30.708,-0.29,-0.195
21:26:30.712,-0.28,-0.185
21:26:30.716,-0.265,-0.185
21:26:30.720,-0.28,-0.165
21:26:30.724,-0.25,-0.19
21:26:30.728,-0.24,-0.18
21:26:30.732,-0.225,-0.16
21:26:30.736,-0.21,-0.15
21:26:30.740,-0.175,-0.15
21:26:30.744,-0.145,-0.145
21:26:30.748,-0.115,-0.145
21:26:30.752,-0.035,-0.12
21:26:30.756,0.07,-0.115
21:26:30.760,0.095,-0.09
21:26:30.764,0.15,-0.1
21:26:30.768,0.18,-0.105
21:26:30.772,0.17,-0.14
21:26:30.776,0.12,-0.14
21:26:30.780,0.025,-0.13
21:26:30.784,-0.04,-0.145
21:26:30.788,0.05,-0.23
21:26:30.792,0.275,-0.335
21:26:30.796,0.59,-0.515
21:26:30.800,0.84,-0.8
21:26:30.804,1.0,-1.07
21:26:30.808,0.93,-1.145
21:26:30.812,0.62,-1.01
21:26:30.816,0.195,-0.71
21:26:30.820,-0.11,-0.335
21:26:30.824,-0.25,-0.095
21:26:30.828,-0.325,0.02
21:26:30.832,-0.32,0.07
21:26:30.836,-0.35,0.12
21:26:30.840,-0.355,0.085
21:26:30.844,-0.37,0.05
21:26:30.848,-0.39,0.035
21:26:30.852,-0.39,-0.005
21:26:30.856,-0.4,-0.04
21:26:30.860,-0.41,-0.075
21:26:30.864,-0.415,-0.105
21:26:30.868,-0.415,-0.11
21:26:30.872,-0.405,-0.12
21:26:30.876,-0.415,-0.13
21:26:30.880,-0.42,-0.13
21:26:30.884,-0.42,-0.155
21:26:30.888,-0.42,-0.16
21:26:30.892,-0.44,-0.15
21:26:30.896,-0.445,-0.155
21:26:30.900,-0.43,-0.13
21:26:30.904,-0.435,-0.12
21:26:30.908,-0.435,-0.14
21:26:30.912,-0.43,-0.12
21:26:30.916,-0.44,-0.125
21:26:30.920,-0.44,-0.14
21:26:30.924,-0.44,-0.12
21:26:30.928,-0.455,-0.125
21:26:30.932,-0.455,-0.11
21:26:30.936,-0.46,-0.1
21:26:30.940,-0.455,-0.115
21:26:30.944,-0.445,-0.1
21:26:30.948,-0.425,-0.115
21:26:30.952,-0.415,-0.11
21:26:30.956,-0.385,-0.105
21:26:30.960,-0.385,-0.1
21:26:30.964,-0.39,-0.1
21:26:30.968,-0.365,-0.09
21:26:30.972,-0.345,-0.075
21:26:30.976,-0.295,-0.075
21:26:30.980,-0.265,-0.035
21:26:30.984,-0.25,-0.04
21:26:30.988,-0.25,-0.045
21:26:30.992,-0.235,-0.035
21:26:30.996,-0.235,-0.025
21:26:31.000,-0.225,-0.01
21:26:31.004,-0.255,-0.03
21:26:31.008,-0.29,-0.015
21:26:31.012,-0.305,-0.02
21:26:31.016,-0.33,-0.025
21:26:31.020,-0.335,-0.045
21:26:31.024,-0.32,-0.04
21:26:31.028,-0.32,-0.04
21:26:31.032,-0.295,-0.05
21:26:31.036,-0.29,-0.06
21:26:31.040,-0.25,-0.07
21:26:31.044,-0.255,-0.08
21:26:31.048,-0.22,-0.08
21:26:31.052,-0.21,-0.09
21:26:31.056,-0.195,-0.11
21:26:31.060,-0.2,-0.115
21:26:31.064,-0.2,-0.11
21:26:31.068,-0.175,-0.1
21:26:31.072,-0.185,-0.165
21:26:31.076,-0.205,-0.15
21:26:31.080,-0.21,-0.165
21:26:31.084,-0.215,-0.18
21:26:31.088,-0.195,-0.18
21:26:31.092,-0.22,-0.18
21:26:31.096,-0.21,-0.19
21:26:31.100,-0.225,-0.19
21:26:31.104,-0.225,-0.175
21:26:31.108,-0.225,-0.195
21:26:31.112,-0.23,-0.195
21:26:31.116,-0.2,-0.165
21:26:31.120,-0.215,-0.175
21:26:31.124,-0.225,-0.215
21:26:31.128,-0.23,-0.22
21:26:31.132,-0.21,-0.19
21:26:31.136,-0.205,-0.19
21:26:31.140,-0.2,-0.195
21:26:31.144,-0.205,-0.2
21:26:31.148,-0.185,-0.215
21:26:31.152,-0.15,-0.21
21:26:31.156,-0.145,-0.195
21:26:31.160,-0.08,-0.22
21:26:31.164,-0.01,-0.21
21:26:31.168,0.05,-0.21
21:26:31.172,0.12,-0.24
21:26:31.176,0.145,-0.245
21:26:31.180,0.205,-0.285
21:26:31.184,0.225,-0.265
21:26:31.188,0.245,-0.255
21:26:31.192,0.23,-0.275
21:26:31.196,0.255,-0.31
21:26:31.200,0.385,-0.35
21:26:31.204,0.63,-0.48
21:26:31.208,0.95,-0.68
21:26:31.212,1.165,-0.88
21:26:31.216,1.16,-1.08
21:26:31.220,0.885,-1.085
21:26:31.224,0.395,-0.81
21:26:31.228,0.0,-0.48
21:26:31.232,-0.19,-0.245
21:26:31.236,-0.27,-0.09
21:26:31.240,-0.325,-0.005
21:26:31.244,-0.32,0.01
21:26:31.248,-0.3,0.01
21:26:31.252,-0.3,0.005
21:26:31.256,-0.315,0.005
21:26:31.260,-0.3,-0.025
21:26:31.264,-0.295,-0.045
21:26:31.268,-0.29,-0.095
21:26:31.272,-0.3,-0.095
21:26:31.276,-0.29,-0.125
21:26:31.280,-0.315,-0.125
21:26:31.284,-0.305,-0.16
21:26:31.288,-0.325,-0.17
21:26:31.292,-0.33,-0.215
21:26:31.296,-0.32,-0.195
21:26:31.300,-0.315,-0.195
21:26:31.304,-0.33,-0.22
21:26:31.308,-0.355,-0.23
21:26:31.312,-0.34,-0.215
21:26:31.316,-0.34,-0.23
21:26:31.320,-0.345,-0.23
21:26:31.324,-0.35,-0.245
21:26:31.328,-0.355,-0.245
21:26:31.332,-0.355,-0.245
21:26:31.336,-0.355,-0.265
21:26:31.340,-0.355,-0.26
21:26:31.344,-0.355,-0.26
21:26:31.348,-0.355,-0.25
21:26:31.352,-0.345,-0.255
21:26:31.356,-0.345,-0.24
21:26:31.360,-0.315,-0.275
21:26:31.364,-0.31,-0.25
21:26:31.368,-0.305,-0.275
21:26:31.372,-0.305,-0.24
21:26:31.376,-0.28,-0.225
21:26:31.380,-0.28,-0.21
21:26:31.384,-0.275,-0.2
21:26:31.388,-0.27,-0.21
21:26:31.392,-0.26,-0.205
21:26:31.396,-0.23,-0.185
21:26:31.400,-0.225,-0.185
21:26:31.404,-0.245,-0.195
21:26:31.408,-0.225,-0.205
21:26:31.412,-0.235,-0.225
21:26:31.416,-0.265,-0.205
21:26:31.420,-0.29,-0.185
21:26:31.424,-0.325,-0.21
21:26:31.428,-0.33,-0.2
21:26:31.432,-0.32,-0.2
21:26:31.436,-0.335,-0.2
21:26:31.440,-0.3,-0.195
21:26:31.444,-0.305,-0.19
21:26:31.448,-0.285,-0.205
21:26:31.452,-0.305,-0.215
21:26:31.456,-0.29,-0.245
21:26:31.460,-0.275,-0.23
21:26:31.464,-0.235,-0.23
21:26:31.468,-0.245,-0.255
21:26:31.472,-0.19,-0.255
21:26:31.476,-0.17,-0.24
21:26:31.480,-0.155,-0.24
21:26:31.484,-0.15,-0.26
21:26:31.488,-0.14,-0.235
21:26:31.492,-0.135,-0.255
21:26:31.496,-0.14,-0.26
21:26:31.500,-0.15,-0.28
21:26:31.504,-0.15,-0.26
21:26:31.508,-0.165,-0.27
21:26:31.512,-0.16,-0.28
21:26:31.516,-0.175,-0.29
21:26:31.520,-0.185,-0.27
21:26:31.524,-0.18,-0.28
21:26:31.528,-0.2,-0.3
21:26:31.532,-0.19,-0.285
21:26:31.536,-0.225,-0.285
21:26:31.540,-0.225,-0.31
21:26:31.544,-0.225,-0.32
21:26:31.548,-0.22,-0.31
21:26:31.552,-0.21,-0.31
21:26:31.556,-0.18,-0.31
21:26:31.560,-0.16,-0.295
21:26:31.564,-0.155,-0.32
21:26:31.568,-0.16,-0.31
21:26:31.572,-0.16,-0.28
21:26:31.576,-0.14,-0.285
21:26:31.580,-0.105,-0.265
21:26:31.584,-0.115,-0.255
21:26:31.588,-0.085,-0.21
21:26:31.592,-0.075,-0.2
21:26:31.596,-0.065,-0.215
21:26:31.600,-0.06,-0.205
21:26:31.604,-0.065,-0.19
21:26:31.608,-0.05,-0.21
21:26:31.612,-0.04,-0.21
21:26:31.616,0.005,-0.19
21:26:31.620,0.025,-0.19
21:26:31.624,0.07,-0.185
21:26:31.628,0.115,-0.205
21:26:31.632,0.125,-0.215
21:26:31.636,0.11,-0.245
21:26:31.640,0.095,-0.255
21:26:31.644,0.095,-0.26
21:26:31.648,0.06,-0.275
21:26:31.652,0.045,-0.315
21:26:31.656,0.18,-0.39
21:26:31.660,0.435,-0.56
21:26:31.664,0.755,-0.79
21:26:31.668,0.995,-1.055
21:26:31.672,1.045,-1.24
21:26:31.676,0.8,-1.235
21:26:31.680,0.355,-0.985
21:26:31.684,-0.025,-0.65
21:26:31.688,-0.2,-0.39
21:26:31.692,-0.28,-0.22
21:26:31.696,-0.32,-0.16
21:26:31.700,-0.33,-0.15
21:26:31.704,-0.33,-0.15
21:26:31.708,-0.335,-0.145
21:26:31.712,-0.33,-0.14
21:26:31.716,-0.365,-0.185
21:26:31.720,-0.355,-0.19
21:26:31.724,-0.355,-0.185
21:26:31.728,-0.355,-0.21
21:26:31.732,-0.39,-0.21
21:26:31.736,-0.395,-0.21
21:26:31.740,-0.395,-0.22
21:26:31.744,-0.41,-0.225
21:26:31.748,-0.41,-0.235
21:26:31.752,-0.41,-0.23
21:26:31.756,-0.41,-0.235
21:26:31.760,-0.38,-0.225
21:26:31.764,-0.4,-0.23
21:26:31.768,-0.39,-0.225
21:26:31.772,-0.385,-0.2
21:26:31.776,-0.355,-0.21
21:26:31.780,-0.36,-0.195
21:26:31.784,-0.33,-0.175
21:26:31.788,-0.31,-0.155
21:26:31.792,-0.28,-0.16
21:26:31.796,-0.275,-0.165
21:26:31.800,-0.27,-0.135
21:26:31.804,-0.265,-0.135
21:26:31.808,-0.275,-0.105
21:26:31.812,-0.28,-0.08
21:26:31.816,-0.28,-0.075
21:26:31.820,-0.3,-0.105
21:26:31.824,-0.325,-0.11
21:26:31.828,-0.32,-0.09
21:26:31.832,-0.35,-0.075
21:26:31.836,-0.335,-0.08
21:26:31.840,-0.33,-0.05
21:26:31.844,-0.33,-0.055
21:26:31.848,-0.33,-0.045
21:26:31.852,-0.31,-0.04
21:26:31.856,-0.31,-0.08
21:26:31.860,-0.335,-0.085
21:26:31.864,-0.325,-0.1
21:26:31.868,-0.335,-0.11
21:26:31.872,-0.33,-0.115
21:26:31.876,-0.31,-0.13
21:26:31.880,-0.32,-0.145
21:26:31.884,-0.275,-0.15
21:26:31.888,-0.255,-0.175
21:26:31.892,-0.235,-0.185
21:26:31.896,-0.215,-0.155
21:26:31.900,-0.22,-0.18
21:26:31.904,-0.195,-0.19
21:26:31.908,-0.2,-0.21
21:26:31.912,-0.185,-0.23
21:26:31.916,-0.19,-0.225
21:26:31.920,-0.17,-0.245
21:26:31.924,-0.14,-0.245
21:26:31.928,-0.125,-0.23
21:26:31.932,-0.135,-0.245
21:26:31.936,-0.12,-0.235
21:26:31.940,-0.085,-0.23
21:26:31.944,-0.09,-0.245
21:26:31.948,-0.105,-0.22
21:26:31.952,-0.095,-0.225
21:26:31.956,-0.1,-0.235
21:26:31.960,-0.09,-0.23
21:26:31.964,-0.085,-0.215
21:26:31.968,-0.095,-0.19
21:26:31.972,-0.08,-0.18
21:26:31.976,-0.13,-0.2
21:26:31.980,-0.13,-0.185
21:26:31.984,-0.13,-0.175
21:26:31.988,-0.16,-0.165
21:26:31.992,-0.15,-0.17
21:26:31.996,-0.145,-0.15
21:26:32.000,-0.145,-0.14
21:26:32.004,-0.12,-0.14
21:26:32.008,-0.125,-0.13
21:26:32.012,-0.12,-0.11
21:26:32.016,-0.125,-0.105
21:26:32.020,-0.145,-0.085
21:26:32.024,-0.175,-0.09
21:26:32.028,-0.215,-0.065
21:26:32.032,-0.245,-0.05
21:26:32.036,-0.285,-0.06
21:26:32.040,-0.29,-0.035
21:26:32.044,-0.305,-0.04
21:26:32.048,-0.29,-0.01
21:26:32.052,-0.295,-0.02
21:26:32.056,-0.295,0.0
21:26:32.060,-0.315,-0.015
21:26:32.064,-0.295,-0.015
21:26:32.068,-0.31,-0.025
21:26:32.072,-0.33,-0.04
21:26:32.076,-0.305,-0.035
21:26:32.080,-0.31,-0.06
21:26:32.084,-0.3,-0.04
21:26:32.088,-0.33,-0.04
21:26:32.092,-0.345,-0.04
21:26:32.096,-0.36,-0.04
21:26:32.100,-0.31,-0.045
21:26:32.104,-0.3,-0.035
21:26:32.108,-0.305,-0.035
21:26:32.112,-0.285,-0.075
21:26:32.116,-0.28,-0.08
21:26:32.120,-0.275,-0.11
21:26:32.124,-0.27,-0.11
21:26:32.128,-0.285,-0.125
21:26:32.132,-0.285,-0.125
21:26:32.136,-0.285,-0.125
21:26:32.140,-0.28,-0.13
21:26:32.144,-0.29,-0.11
21:26:32.148,-0.28,-0.12
21:26:32.152,-0.26,-0.13
21:26:32.156,-0.255,-0.115
21:26:32.160,-0.255,-0.12
21:26:32.164,-0.26,-0.12
21:26:32.168,-0.24,-0.11
21:26:32.172,-0.24,-0.1
21:26:32.176,-0.24,-0.105
21:26:32.180,-0.2,-0.09
21:26:32.184,-0.21,-0.1
21:26:32.188,-0.225,-0.12
21:26:32.192,-0.21,-0.135
21:26:32.196,-0.2,-0.105
21:26:32.200,-0.205,-0.09
21:26:32.204,-0.215,-0.085
21:26:32.208,-0.21,-0.09
21:26:32.212,-0.22,-0.09
21:26:32.216,-0.21,-0.08
21:26:32.220,-0.22,-0.06
21:26:32.224,-0.19,-0.065
21:26:32.228,-0.225,-0.06
21:26:32.232,-0.225,-0.06
21:26:32.236,-0.23,-0.045
21:26:32.240,-0.275,-0.05
21:26:32.244,-0.28,-0.035
21:26:32.248,-0.3,-0.045
21:26:32.252,-0.335,-0.035
21:26:32.256,-0.355,-0.02
21:26:32.260,-0.34,0.015
21:26:32.264,-0.325,0.025
21:26:32.268,-0.325,0.05
21:26:32.272,-0.31,0.05
21:26:32.276,-0.31,0.04
21:26:32.280,-0.305,0.035
21:26:32.284,-0.29,0.03
21:26:32.288,-0.275,0.015
21:26:32.292,-0.195,0.01
21:26:32.296,-0.1,0.01
21:26:32.300,-0.01,-0.01
21:26:32.304,0.07,-0.05
21:26:32.308,0.145,-0.095
21:26:32.312,0.185,-0.125
21:26:32.316,0.215,-0.095
21:26:32.320,0.21,-0.105
21:26:32.324,0.195,-0.145
21:26:32.328,0.23,-0.235
21:26:32.332,0.385,-0.39
21:26:32.336,0.67,-0.625
21:26:32.340,0.945,-0.88
21:26:32.344,1.035,-1.055
21:26:32.348,0.83,-1.13
21:26:32.352,0.4,-0.965
21:26:32.356,0.01,-0.615
21:26:32.360,-0.2,-0.355
21:26:32.364,-0.31,-0.19
21:26:32.368,-0.355,-0.08
21:26:32.372,-0.36,-0.025
21:26:32.376,-0.385,0.01
21:26:32.380,-0.415,0.02
21:26:32.384,-0.425,0.015
21:26:32.388,-0.445,-0.01
21:26:32.392,-0.45,-0.035
21:26:32.396,-0.445,-0.06
21:26:32.400,-0.44,-0.07
21:26:32.404,-0.4,-0.075
21:26:32.408,-0.39,-0.085
21:26:32.412,-0.39,-0.09
21:26:32.416,-0.405,-0.08
21:26:32.420,-0.415,-0.08
21:26:32.424,-0.395,-0.095
21:26:32.428,-0.395,-0.07
21:26:32.432,-0.39,-0.06
21:26:32.436,-0.365,-0.06
21:26:32.440,-0.365,-0.03
21:26:32.444,-0.37,-0.03
21:26:32.448,-0.36,-0.025
21:26:32.452,-0.365,-0.04
21:26:32.456,-0.375,-0.02
21:26:32.460,-0.4,-0.015
21:26:32.464,-0.43,-0.015
21:26:32.468,-0.495,-0.02
21:26:32.472,-0.5,-0.02
21:26:32.476,-0.53,-0.015
21:26:32.480,-0.55,0.0
21:26:32.484,-0.545,-0.02
21:26:32.488,-0.525,-0.005
21:26:32.492,-0.535,-0.03
21:26:32.496,-0.555,-0.04
21:26:32.500,-0.515,-0.04
21:26:32.504,-0.52,-0.045
21:26:32.508,-0.515,-0.045
21:26:32.512,-0.5,-0.045
21:26:32.516,-0.505,-0.055
21:26:32.520,-0.5,-0.065
21:26:32.524,-0.465,-0.09
21:26:32.528,-0.47,-0.09
21:26:32.532,-0.475,-0.125
21:26:32.536,-0.46,-0.135
21:26:32.540,-0.46,-0.155
21:26:32.544,-0.465,-0.165
21:26:32.548,-0.505,-0.19
21:26:32.552,-0.475,-0.2
21:26:32.556,-0.48,-0.195
21:26:32.560,-0.445,-0.2
21:26:32.564,-0.46,-0.21
21:26:32.568,-0.46,-0.23
21:26:32.572,-0.435,-0.235
21:26:32.576,-0.43,-0.275
21:26:32.580,-0.44,-0.29
21:26:32.584,-0.42,-0.295
21:26:32.588,-0.395,-0.285
21:26:32.592,-0.41,-0.3
21:26:32.596,-0.38,-0.295
21:26:32.600,-0.36,-0.28
21:26:32.604,-0.31,-0.295
21:26:32.608,-0.29,-0.295
21:26:32.612,-0.295,-0.295
21:26:32.616,-0.28,-0.28
21:26:32.620,-0.25,-0.27
21:26:32.624,-0.245,-0.265
21:26:32.628,-0.26,-0.245
21:26:32.632,-0.24,-0.235
21:26:32.636,-0.24,-0.215
21:26:32.640,-0.24,-0.205
21:26:32.644,-0.22,-0.2
21:26:32.648,-0.21,-0.2
21:26:32.652,-0.185,-0.2
21:26:32.656,-0.18,-0.175
21:26:32.660,-0.18,-0.175
21:26:32.664,-0.175,-0.155
21:26:32.668,-0.19,-0.155
21:26:32.672,-0.225,-0.13
21:26:32.676,-0.23,-0.125
21:26:32.680,-0.255,-0.13
21:26:32.684,-0.275,-0.13
21:26:32.688,-0.29,-0.15
21:26:32.692,-0.32,-0.13
21:26:32.696,-0.34,-0.135
21:26:32.700,-0.345,-0.155
21:26:32.704,-0.31,-0.13
21:26:32.708,-0.3,-0.135
21:26:32.712,-0.265,-0.13
21:26:32.716,-0.18,-0.135
21:26:32.720,-0.08,-0.155
21:26:32.724,-0.025,-0.185
21:26:32.728,0.045,-0.195
21:26:32.732,0.075,-0.27
21:26:32.736,0.115,-0.28
21:26:32.740,0.12,-0.28
21:26:32.744,0.1,-0.3
21:26:32.748,0.14,-0.335
21:26:32.752,0.275,-0.38
21:26:32.756,0.52,-0.535
21:26:32.760,0.81,-0.76
21:26:32.764,1.01,-1.015
21:26:32.768,0.945,-1.185
21:26:32.772,0.58,-1.155
21:26:32.776,0.14,-0.9
21:26:32.780,-0.15,-0.585
21:26:32.784,-0.285,-0.37
21:26:32.788,-0.34,-0.235
21:26:32.792,-0.365,-0.16
21:26:32.796,-0.365,-0.145
21:26:32.800,-0.37,-0.115
21:26:32.804,-0.39,-0.105
21:26:32.808,-0.385,-0.125
21:26:32.812,-0.37,-0.12
21:26:32.816,-0.36,-0.145
21:26:32.820,-0.35,-0.16
21:26:32.824,-0.37,-0.14
21:26:32.828,-0.355,-0.13
21:26:32.832,-0.34,-0.11
21:26:32.836,-0.36,-0.12
21:26:32.840,-0.355,-0.12
21:26:32.844,-0.35,-0.08
21:26:32.848,-0.33,-0.08
21:26:32.852,-0.32,-0.07
21:26:32.856,-0.31,-0.075
21:26:32.860,-0.3,-0.045
21:26:32.864,-0.27,-0.055
21:26:32.868,-0.27,-0.025
21:26:32.872,-0.28,-0.03
21:26:32.876,-0.3,-0.01
21:26:32.880,-0.305,0.0
21:26:32.884,-0.34,0.0
21:26:32.888,-0.385,0.0
21:26:32.892,-0.42,-0.015
21:26:32.896,-0.425,0.0
21:26:32.900,-0.42,-0.02
21:26:32.904,-0.43,-0.025
21:26:32.908,-0.43,-0.045
21:26:32.912,-0.43,-0.035
21:26:32.916,-0.43,-0.05
21:26:32.920,-0.43,-0.04
21:26:32.924,-0.45,-0.045
21:26:32.928,-0.445,-0.055
21:26:32.932,-0.445,-0.04
21:26:32.936,-0.445,-0.07
21:26:32.940,-0.415,-0.08
21:26:32.944,-0.4,-0.1
21:26:32.948,-0.37,-0.125
21:26:32.952,-0.39,-0.115
21:26:32.956,-0.375,-0.115
21:26:32.960,-0.355,-0.145
21:26:32.964,-0.34,-0.14
21:26:32.968,-0.33,-0.145
21:26:32.972,-0.34,-0.165
21:26:32.976,-0.305,-0.155
21:26:32.980,-0.3,-0.18
21:26:32.984,-0.29,-0.18
21:26:32.988,-0.29,-0.165
21:26:32.992,-0.27,-0.175
21:26:32.996,-0.265,-0.155
21:26:33.000,-0.255,-0.165
21:26:33.004,-0.22,-0.16
21:26:33.008,-0.22,-0.165
21:26:33.012,-0.17,-0.18
21:26:33.016,-0.195,-0.16
21:26:33.020,-0.17,-0.17
21:26:33.024,-0.175,-0.145
21:26:33.028,-0.16,-0.14
21:26:33.032,-0.15,-0.135
21:26:33.036,-0.15,-0.14
21:26:33.040,-0.16,-0.12
21:26:33.044,-0.15,-0.115
21:26:33.048,-0.14,-0.12
21:26:33.052,-0.13,-0.11
21:26:33.056,-0.105,-0.1
21:26:33.060,-0.08,-0.09
21:26:33.064,-0.085,-0.055
21:26:33.068,-0.06,-0.065
21:26:33.072,-0.05,-0.04
21:26:33.076,-0.025,-0.04
21:26:33.080,-0.05,-0.03
21:26:33.084,-0.065,-0.02
21:26:33.088,-0.075,0.01
21:26:33.092,-0.1,-0.01
21:26:33.096,-0.135,-0.025
21:26:33.100,-0.15,-0.025
21:26:33.104,-0.165,-0.01
21:26:33.108,-0.17,-0.02
21:26:33.112,-0.175,-0.015
21:26:33.116,-0.19,-0.02
21:26:33.120,-0.2,-0.055
21:26:33.124,-0.17,-0.06
21:26:33.128,-0.195,-0.07
21:26:33.132,-0.215,-0.1
21:26:33.136,-0.205,-0.1
21:26:33.140,-0.22,-0.13
21:26:33.144,-0.195,-0.095
21:26:33.148,-0.205,-0.11
21:26:33.152,-0.2,-0.135
21:26:33.156,-0.18,-0.135
21:26:33.160,-0.17,-0.14
21:26:33.164,-0.115,-0.145
21:26:33.168,-0.065,-0.145
21:26:33.172,0.0,-0.16
21:26:33.176,0.095,-0.19
21:26:33.180,0.15,-0.19
21:26:33.184,0.17,-0.23
21:26:33.188,0.2,-0.29
21:26:33.192,0.2,-0.28
21:26:33.196,0.19,-0.3
21:26:33.200,0.16,-0.34
21:26:33.204,0.205,-0.4
21:26:33.208,0.39,-0.5
21:26:33.212,0.69,-0.68
21:26:33.216,0.99,-0.945
21:26:33.220,1.12,-1.17
21:26:33.224,1.015,-1.275
21:26:33.228,0.62,-1.13
21:26:33.232,0.17,-0.815
21:26:33.236,-0.12,-0.485
21:26:33.240,-0.24,-0.28
21:26:33.244,-0.305,-0.16
21:26:33.248,-0.31,-0.105
21:26:33.252,-0.29,-0.06
21:26:33.256,-0.29,-0.045
21:26:33.260,-0.305,-0.035
21:26:33.264,-0.295,-0.02
21:26:33.268,-0.3,-0.03
21:26:33.272,-0.27,-0.04
21:26:33.276,-0.245,-0.07
21:26:33.280,-0.25,-0.045
21:26:33.284,-0.255,-0.055
21:26:33.288,-0.235,-0.05
21:26:33.292,-0.25,-0.02
21:26:33.296,-0.28,-0.03
21:26:33.300,-0.285,-0.02
21:26:33.304,-0.305,-0.015
21:26:33.308,-0.28,-0.005
21:26:33.312,-0.32,-0.01
21:26:33.316,-0.335,-0.01
21:26:33.320,-0.33,-0.005
21:26:33.324,-0.32,-0.03
21:26:33.328,-0.35,-0.045
21:26:33.332,-0.36,-0.035
21:26:33.336,-0.37,-0.03
21:26:33.340,-0.37,-0.04
21:26:33.344,-0.38,-0.05
21:26:33.348,-0.4,-0.05
21:26:33.352,-0.39,-0.065
21:26:33.356,-0.39,-0.06
21:26:33.360,-0.39,-0.08
21:26:33.364,-0.38,-0.09
21:26:33.368,-0.38,-0.07
21:26:33.372,-0.39,-0.095
21:26:33.376,-0.375,-0.125
21:26:33.380,-0.38,-0.115
21:26:33.384,-0.35,-0.125
21:26:33.388,-0.35,-0.135
21:26:33.392,-0.36,-0.13
21:26:33.396,-0.33,-0.14
21:26:33.400,-0.32,-0.15
21:26:33.404,-0.29,-0.16
21:26:33.408,-0.27,-0.185
21:26:33.412,-0.285,-0.16
21:26:33.416,-0.29,-0.175
21:26:33.420,-0.295,-0.195
21:26:33.424,-0.27,-0.18
21:26:33.428,-0.26,-0.185
21:26:33.432,-0.25,-0.195
21:26:33.436,-0.255,-0.195
21:26:33.440,-0.25,-0.22
21:26:33.444,-0.265,-0.22
21:26:33.448,-0.25,-0.2
21:26:33.452,-0.23,-0.215
21:26:33.456,-0.205,-0.22
21:26:33.460,-0.21,-0.195
21:26:33.464,-0.2,-0.21
21:26:33.468,-0.18,-0.195
21:26:33.472,-0.14,-0.205
21:26:33.476,-0.13,-0.195
21:26:33.480,-0.13,-0.21
21:26:33.484,-0.105,-0.21
21:26:33.488,-0.095,-0.18
21:26:33.492,-0.11,-0.18
21:26:33.496,-0.13,-0.16
21:26:33.500,-0.13,-0.13
21:26:33.504,-0.15,-0.145
21:26:33.508,-0.14,-0.12
21:26:33.512,-0.14,-0.11
21:26:33.516,-0.13,-0.09
21:26:33.520,-0.11,-0.085
21:26:33.524,-0.15,-0.085
21:26:33.528,-0.16,-0.08
21:26:33.532,-0.15,-0.07
21:26:33.536,-0.17,-0.09
21:26:33.540,-0.185,-0.075
21:26:33.544,-0.195,-0.08
21:26:33.548,-0.2,-0.09
21:26:33.552,-0.185,-0.095
21:26:33.556,-0.205,-0.095
21:26:33.560,-0.22,-0.1
21:26:33.564,-0.225,-0.115
21:26:33.568,-0.21,-0.1
21:26:33.572,-0.23,-0.12
21:26:33.576,-0.26,-0.125
21:26:33.580,-0.245,-0.13
21:26:33.584,-0.21,-0.15
21:26:33.588,-0.2,-0.14
21:26:33.592,-0.17,-0.14
21:26:33.596,-0.16,-0.165
21:26:33.600,-0.16,-0.14
21:26:33.604,-0.155,-0.135
21:26:33.608,-0.16,-0.155
21:26:33.612,-0.17,-0.145
21:26:33.616,-0.165,-0.145
21:26:33.620,-0.16,-0.12
21:26:33.624,-0.175,-0.12
21:26:33.628,-0.195,-0.14
21:26:33.632,-0.155,-0.13
21:26:33.636,-0.19,-0.12
21:26:33.640,-0.21,-0.11
21:26:33.644,-0.215,-0.115
21:26:33.648,-0.19,-0.135
21:26:33.652,-0.2,-0.13
21:26:33.656,-0.185,-0.15
21:26:33.660,-0.19,-0.14
21:26:33.664,-0.125,-0.14
21:26:33.668,-0.115,-0.16
21:26:33.672,-0.03,-0.17
21:26:33.676,0.025,-0.14
21:26:33.680,0.12,-0.18
21:26:33.684,0.19,-0.19
21:26:33.688,0.22,-0.225
21:26:33.692,0.225,-0.25
21:26:33.696,0.235,-0.255
21:26:33.700,0.22,-0.26
21:26:33.704,0.175,-0.275
21:26:33.708,0.21,-0.35
21:26:33.712,0.385,-0.48
21:26:33.716,0.695,-0.64
21:26:33.720,1.01,-0.9
21:26:33.724,1.11,-1.12
21:26:33.728,0.97,-1.205
21:26:33.732,0.595,-1.07
21:26:33.736,0.145,-0.735
21:26:33.740,-0.12,-0.405
21:26:33.744,-0.25,-0.215
21:26:33.748,-0.285,-0.1
21:26:33.752,-0.29,-0.02
21:26:33.756,-0.31,0.0
21:26:33.760,-0.32,0.01
21:26:33.764,-0.325,0.0
21:26:33.768,-0.325,0.015
21:26:33.772,-0.32,-0.02
21:26:33.776,-0.335,-0.05
21:26:33.780,-0.32,-0.07
21:26:33.784,-0.34,-0.08
21:26:33.788,-0.325,-0.075
21:26:33.792,-0.34,-0.09
21:26:33.796,-0.32,-0.1
21:26:33.800,-0.29,-0.085
21:26:33.804,-0.285,-0.1
21:26:33.808,-0.315,-0.075
21:26:33.812,-0.29,-0.105
21:26:33.816,-0.285,-0.07
21:26:33.820,-0.295,-0.08
21:26:33.824,-0.3,-0.07
21:26:33.828,-0.3,-0.07
21:26:33.832,-0.305,-0.075
21:26:33.836,-0.35,-0.06
21:26:33.840,-0.345,-0.09
21:26:33.844,-0.35,-0.075
21:26:33.848,-0.35,-0.075
21:26:33.852,-0.34,-0.07
21:26:33.856,-0.35,-0.045
21:26:33.860,-0.345,-0.045
21:26:33.864,-0.33,-0.045
21:26:33.868,-0.32,-0.04
21:26:33.872,-0.32,-0.03
21:26:33.876,-0.32,-0.03
21:26:33.880,-0.285,-0.055
21:26:33.884,-0.26,-0.035
21:26:33.888,-0.255,-0.04
21:26:33.892,-0.25,-0.06
21:26:33.896,-0.24,-0.04
21:26:33.900,-0.26,-0.07
21:26:33.904,-0.26,-0.06
21:26:33.908,-0.26,-0.025
21:26:33.912,-0.26,-0.035
21:26:33.916,-0.27,-0.05
21:26:33.920,-0.27,-0.07
21:26:33.924,-0.265,-0.075
21:26:33.928,-0.24,-0.075
21:26:33.932,-0.24,-0.075
21:26:33.936,-0.21,-0.08
21:26:33.940,-0.225,-0.075
21:26:33.944,-0.195,-0.095
21:26:33.948,-0.2,-0.11
21:26:33.952,-0.21,-0.105
21:26:33.956,-0.185,-0.12
21:26:33.960,-0.19,-0.11
21:26:33.964,-0.175,-0.11
21:26:33.968,-0.15,-0.095
21:26:33.972,-0.155,-0.12
21:26:33.976,-0.15,-0.125
21:26:33.980,-0.155,-0.135
21:26:33.984,-0.15,-0.12
21:26:33.988,-0.14,-0.13
21:26:33.992,-0.105,-0.125
21:26:33.996,-0.13,-0.14
21:26:34.000,-0.115,-0.135
21:26:34.004,-0.135,-0.165
21:26:34.008,-0.085,-0.14
21:26:34.012,-0.07,-0.14
21:26:34.016,-0.08,-0.12
21:26:34.020,-0.09,-0.11
21:26:34.024,-0.105,-0.08
21:26:34.028,-0.11,-0.06
21:26:34.032,-0.115,-0.09
21:26:34.036,-0.13,-0.055
21:26:34.040,-0.14,-0.08
21:26:34.044,-0.165,-0.08
21:26:34.048,-0.165,-0.075
21:26:34.052,-0.18,-0.06
21:26:34.056,-0.19,-0.05
21:26:34.060,-0.19,-0.075
21:26:34.064,-0.2,-0.06
21:26:34.068,-0.215,-0.07
21:26:34.072,-0.22,-0.06
21:26:34.076,-0.21,-0.06
21:26:34.080,-0.185,-0.06
21:26:34.084,-0.17,-0.05
21:26:34.088,-0.17,-0.06
21:26:34.092,-0.125,-0.05
21:26:34.096,-0.13,-0.055
21:26:34.100,-0.12,-0.02
21:26:34.104,-0.135,-0.03
21:26:34.108,-0.17,-0.01
21:26:34.112,-0.175,-0.005
21:26:34.116,-0.19,0.0
21:26:34.120,-0.21,-0.025
21:26:34.124,-0.19,-0.035
21:26:34.128,-0.185,-0.04
21:26:34.132,-0.205,-0.045
21:26:34.136,-0.19,-0.045
21:26:34.140,-0.195,-0.03
21:26:34.144,-0.2,-0.05
21:26:34.148,-0.19,-0.06
21:26:34.152,-0.21,-0.08
21:26:34.156,-0.2,-0.09
21:26:34.160,-0.2,-0.1
21:26:34.164,-0.2,-0.09
21:26:34.168,-0.22,-0.095
21:26:34.172,-0.21,-0.1
21:26:34.176,-0.195,-0.13
21:26:34.180,-0.195,-0.11
21:26:34.184,-0.205,-0.13
21:26:34.188,-0.2,-0.13
21:26:34.192,-0.2,-0.125
21:26:34.196,-0.155,-0.13
21:26:34.200,-0.17,-0.12
21:26:34.204,-0.165,-0.13
21:26:34.208,-0.14,-0.12
21:26:34.212,-0.085,-0.125
21:26:34.216,-0.06,-0.11
21:26:34.220,0.005,-0.105
21:26:34.224,0.115,-0.105
21:26:34.228,0.17,-0.125
21:26:34.232,0.21,-0.145
21:26:34.236,0.225,-0.18
21:26:34.240,0.235,-0.2
21:26:34.244,0.225,-0.175
21:26:34.248,0.195,-0.185
21:26:34.252,0.175,-0.245
21:26:34.256,0.25,-0.31
21:26:34.260,0.48,-0.465
21:26:34.264,0.8,-0.69
21:26:34.268,1.01,-0.925
21:26:34.272,1.04,-1.12
21:26:34.276,0.76,-1.125
21:26:34.280,0.3,-0.86
21:26:34.284,-0.095,-0.535
21:26:34.288,-0.275,-0.285
21:26:34.292,-0.34,-0.115
21:26:34.296,-0.36,-0.025
21:26:34.300,-0.37,0.03
21:26:34.304,-0.37,0.05
21:26:34.308,-0.375,0.055
21:26:34.312,-0.38,0.045
21:26:34.316,-0.395,0.03
21:26:34.320,-0.405,0.03
21:26:34.324,-0.36,0.01
21:26:34.328,-0.36,0.0
21:26:34.332,-0.365,0.0
21:26:34.336,-0.36,0.005
21:26:34.340,-0.395,0.0
21:26:34.344,-0.375,0.005
21:26:34.348,-0.38,0.0
21:26:34.352,-0.37,0.005
21:26:34.356,-0.385,0.025
21:26:34.360,-0.38,0.025
21:26:34.364,-0.37,0.015
21:26:34.368,-0.395,0.02
21:26:34.372,-0.4,0.02
21:26:34.376,-0.415,0.025
21:26:34.380,-0.42,0.03
21:26:34.384,-0.44,0.025
21:26:34.388,-0.43,0.025
21:26:34.392,-0.43,0.015
21:26:34.396,-0.455,0.0
21:26:34.400,-0.455,0.0
21:26:34.404,-0.44,-0.02
21:26:34.408,-0.43,-0.02
21:26:34.412,-0.445,-0.02
21:26:34.416,-0.43,-0.015
21:26:34.420,-0.4,-0.03
21:26:34.424,-0.395,-0.01
21:26:34.428,-0.365,0.0
21:26:34.432,-0.37,0.0
21:26:34.436,-0.355,0.0
21:26:34.440,-0.36,0.0
21:26:34.444,-0.355,-0.015
21:26:34.448,-0.355,-0.005
21:26:34.452,-0.375,0.01
21:26:34.456,-0.365,0.01
21:26:34.460,-0.365,0.01
21:26:34.464,-0.385,0.03
21:26:34.468,-0.39,0.04
21:26:34.472,-0.4,0.03
21:26:34.476,-0.42,0.035
21:26:34.480,-0.435,0.025
21:26:34.484,-0.435,0.04
21:26:34.488,-0.42,0.02
21:26:34.492,-0.42,0.0
21:26:34.496,-0.415,-0.01
21:26:34.500,-0.405,-0.015
21:26:34.504,-0.39,0.0
21:26:34.508,-0.395,0.0
21:26:34.512,-0.385,-0.015
21:26:34.516,-0.425,0.005
21:26:34.520,-0.435,0.015
21:26:34.524,-0.39,0.02
21:26:34.528,-0.425,0.01
21:26:34.532,-0.395,0.0
21:26:34.536,-0.385,0.025
21:26:34.540,-0.355,0.005
21:26:34.544,-0.36,-0.015
21:26:34.548,-0.37,0.005
21:26:34.552,-0.355,-0.02
21:26:34.556,-0.355,-0.005
21:26:34.560,-0.355,-0.025
21:26:34.564,-0.35,-0.01
21:26:34.568,-0.335,-0.01
21:26:34.572,-0.315,0.0
21:26:34.576,-0.31,-0.005
21:26:34.580,-0.3,0.005
21:26:34.584,-0.27,-0.005
21:26:34.588,-0.265,0.01
21:26:34.592,-0.28,0.0
21:26:34.596,-0.29,0.0
21:26:34.600,-0.31,0.01
21:26:34.604,-0.3,0.01
21:26:34.608,-0.32,0.005
21:26:34.612,-0.31,-0.005
21:26:34.616,-0.31,0.0
21:26:34.620,-0.305,0.01
21:26:34.624,-0.295,0.005
21:26:34.628,-0.295,0.005
21:26:34.632,-0.275,0.0
21:26:34.636,-0.25,0.005
21:26:34.640,-0.26,0.01
21:26:34.644,-0.27,0.005
21:26:34.648,-0.26,-0.005
21:26:34.652,-0.225,0.01
21:26:34.656,-0.22,0.02
21:26:34.660,-0.2,0.015
21:26:34.664,-0.195,0.005
21:26:34.668,-0.185,0.015
21:26:34.672,-0.205,0.015
21:26:34.676,-0.24,0.025
21:26:34.680,-0.26,0.035
21:26:34.684,-0.26,0.0
21:26:34.688,-0.285,0.015
21:26:34.692,-0.3,0.0
21:26:34.696,-0.32,0.01
21:26:34.700,-0.31,0.0
21:26:34.704,-0.31,-0.015
21:26:34.708,-0.33,0.005
21:26:34.712,-0.315,0.03
21:26:34.716,-0.335,0.02
21:26:34.720,-0.335,-0.01
21:26:34.724,-0.35,-0.01
21:26:34.728,-0.36,-0.015
21:26:34.732,-0.33,0.0
21:26:34.736,-0.265,0.005
21:26:34.740,-0.2,0.0
21:26:34.744,-0.125,-0.005
21:26:34.748,-0.02,-0.045
21:26:34.752,0.045,-0.06
21:26:34.756,0.115,-0.115
21:26:34.760,0.155,-0.14
21:26:34.764,0.19,-0.145
21:26:34.768,0.185,-0.135
21:26:34.772,0.185,-0.205
21:26:34.776,0.285,-0.27
21:26:34.780,0.555,-0.435
21:26:34.784,0.875,-0.665
21:26:34.788,1.055,-0.905
21:26:34.792,0.95,-1.03
21:26:34.796,0.595,-0.965
21:26:34.800,0.145,-0.66
21:26:34.804,-0.16,-0.35
21:26:34.808,-0.285,-0.18
21:26:34.812,-0.33,-0.06
21:26:34.816,-0.345,0.015
21:26:34.820,-0.355,0.075
21:26:34.824,-0.385,0.11
21:26:34.828,-0.36,0.11
21:26:34.832,-0.36,0.085
21:26:34.836,-0.345,0.04
21:26:34.840,-0.35,0.02
21:26:34.844,-0.33,0.025
21:26:34.848,-0.33,0.015
21:26:34.852,-0.345,0.025
21:26:34.856,-0.35,0.03
21:26:34.860,-0.345,0.035
21:26:34.864,-0.34,0.025
21:26:34.868,-0.315,0.04
21:26:34.872,-0.325,0.035
21:26:34.876,-0.33,0.035
21:26:34.880,-0.3,0.05
21:26:34.884,-0.32,0.065
21:26:34.888,-0.335,0.065
21:26:34.892,-0.33,0.065
21:26:34.896,-0.345,0.065
21:26:34.900,-0.33,0.07
21:26:34.904,-0.375,0.07
21:26:34.908,-0.385,0.075
21:26:34.912,-0.39,0.08
21:26:34.916,-0.39,0.085
21:26:34.920,-0.42,0.105
21:26:34.924,-0.44,0.1
21:26:34.928,-0.46,0.125
21:26:34.932,-0.48,0.095
21:26:34.936,-0.49,0.105
21:26:34.940,-0.485,0.115
21:26:34.944,-0.475,0.1
21:26:34.948,-0.46,0.085
21:26:34.952,-0.46,0.055
21:26:34.956,-0.465,0.04
21:26:34.960,-0.44,0.04
21:26:34.964,-0.445,0.04
21:26:34.968,-0.42,0.02
21:26:34.972,-0.42,0.01
21:26:34.976,-0.4,0.01
21:26:34.980,-0.39,0.005
21:26:34.984,-0.365,-0.015
21:26:34.988,-0.36,-0.015
21:26:34.992,-0.34,-0.025
21:26:34.996,-0.305,-0.015
21:26:35.000,-0.28,-0.02
21:26:35.004,-0.3,-0.04
21:26:35.008,-0.265,-0.07
21:26:35.012,-0.23,-0.09
21:26:35.016,-0.245,-0.08
21:26:35.020,-0.215,-0.1
21:26:35.024,-0.205,-0.105
21:26:35.028,-0.19,-0.09
21:26:35.032,-0.19,-0.1
21:26:35.036,-0.18,-0.095
21:26:35.040,-0.16,-0.075
21:26:35.044,-0.155,-0.075
21:26:35.048,-0.145,-0.06
21:26:35.052,-0.15,-0.04
21:26:35.056,-0.145,-0.075
21:26:35.060,-0.13,-0.045
21:26:35.064,-0.125,-0.04
21:26:35.068,-0.095,-0.045
21:26:35.072,-0.07,-0.065
21:26:35.076,-0.06,-0.055
21:26:35.080,-0.065,-0.065
21:26:35.084,-0.105,-0.07
21:26:35.088,-0.09,-0.075
21:26:35.092,-0.115,-0.04
21:26:35.096,-0.115,-0.055
21:26:35.100,-0.13,-0.06
21:26:35.104,-0.14,-0.055
21:26:35.108,-0.14,-0.06
21:26:35.112,-0.17,-0.04
21:26:35.116,-0.175,-0.045
21:26:35.120,-0.205,-0.03
21:26:35.124,-0.215,-0.02
21:26:35.128,-0.225,0.0
21:26:35.132,-0.275,-0.015
21:26:35.136,-0.29,0.0
21:26:35.140,-0.29,-0.015
21:26:35.144,-0.305,-0.005
21:26:35.148,-0.31,-0.025
21:26:35.152,-0.335,0.0
21:26:35.156,-0.34,-0.01
21:26:35.160,-0.305,-0.04
21:26:35.164,-0.33,-0.05
21:26:35.168,-0.305,-0.075
21:26:35.172,-0.315,-0.06
21:26:35.176,-0.28,-0.08
21:26:35.180,-0.305,-0.095
21:26:35.184,-0.31,-0.09
21:26:35.188,-0.275,-0.1
21:26:35.192,-0.275,-0.1
21:26:35.196,-0.275,-0.11
21:26:35.200,-0.275,-0.09
21:26:35.204,-0.275,-0.115
21:26:35.208,-0.25,-0.1
21:26:35.212,-0.25,-0.11
21:26:35.216,-0.235,-0.1
21:26:35.220,-0.22,-0.11
21:26:35.224,-0.215,-0.115
21:26:35.228,-0.2,-0.1
21:26:35.232,-0.2,-0.1
21:26:35.236,-0.195,-0.09
21:26:35.240,-0.165,-0.08
21:26:35.244,-0.16,-0.07
21:26:35.248,-0.14,-0.09
21:26:35.252,-0.125,-0.07
21:26:35.256,-0.095,-0.07
21:26:35.260,-0.07,-0.08
21:26:35.264,-0.045,-0.055
21:26:35.268,0.03,-0.05
21:26:35.272,0.135,-0.045
21:26:35.276,0.195,-0.09
21:26:35.280,0.245,-0.11
21:26:35.284,0.29,-0.13
21:26:35.288,0.315,-0.14
21:26:35.292,0.34,-0.14
21:26:35.296,0.325,-0.18
21:26:35.300,0.335,-0.235
21:26:35.304,0.49,-0.385
21:26:35.308,0.76,-0.58
21:26:35.312,1.08,-0.835
21:26:35.316,1.26,-1.06
21:26:35.320,1.175,-1.215
21:26:35.324,0.82,-1.125
21:26:35.328,0.32,-0.795
21:26:35.332,-0.03,-0.465
21:26:35.336,-0.22,-0.2
21:26:35.340,-0.305,-0.075
21:26:35.344,-0.35,-0.005
21:26:35.348,-0.365,0.075
21:26:35.352,-0.37,0.05
21:26:35.356,-0.405,0.055
21:26:35.360,-0.405,0.015
21:26:35.364,-0.42,0.02
21:26:35.368,-0.42,-0.03
21:26:35.372,-0.425,-0.035
21:26:35.376,-0.445,-0.06
21:26:35.380,-0.46,-0.065
21:26:35.384,-0.45,-0.085
21:26:35.388,-0.44,-0.105
21:26:35.392,-0.455,-0.105
21:26:35.396,-0.455,-0.105
21:26:35.400,-0.45,-0.105
21:26:35.404,-0.45,-0.11
21:26:35.408,-0.46,-0.125
21:26:35.412,-0.47,-0.135
21:26:35.416,-0.455,-0.12
21:26:35.420,-0.45,-0.135
21:26:35.424,-0.47,-0.11
21:26:35.428,-0.445,-0.125
21:26:35.432,-0.425,-0.11
21:26:35.436,-0.4,-0.105
21:26:35.440,-0.39,-0.07
21:26:35.444,-0.39,-0.1
21:26:35.448,-0.375,-0.095
21:26:35.452,-0.375,-0.085
21:26:35.456,-0.36,-0.06
21:26:35.460,-0.37,-0.05
21:26:35.464,-0.33,-0.04
21:26:35.468,-0.345,-0.05
21:26:35.472,-0.34,-0.04
21:26:35.476,-0.355,-0.025
21:26:35.480,-0.34,-0.015
21:26:35.484,-0.335,0.0
21:26:35.488,-0.315,0.01
21:26:35.492,-0.3,0.02
21:26:35.496,-0.305,0.025
21:26:35.500,-0.275,0.0
21:26:35.504,-0.27,0.01
21:26:35.508,-0.245,0.0
21:26:35.512,-0.225,-0.01
21:26:35.516,-0.19,-0.025
21:26:35.520,-0.19,-0.055
21:26:35.524,-0.2,-0.05
21:26:35.528,-0.23,-0.075
21:26:35.532,-0.24,-0.09
21:26:35.536,-0.24,-0.095
21:26:35.540,-0.235,-0.14
21:26:35.544,-0.255,-0.125
21:26:35.548,-0.275,-0.13
21:26:35.552,-0.29,-0.13
21:26:35.556,-0.305,-0.155
21:26:35.560,-0.295,-0.145
21:26:35.564,-0.285,-0.175
21:26:35.568,-0.315,-0.165
21:26:35.572,-0.28,-0.155
21:26:35.576,-0.27,-0.16
21:26:35.580,-0.265,-0.175
21:26:35.584,-0.25,-0.195
21:26:35.588,-0.25,-0.18
21:26:35.592,-0.245,-0.175
21:26:35.596,-0.25,-0.17
21:26:35.600,-0.23,-0.15
21:26:35.604,-0.235,-0.185
21:26:35.608,-0.24,-0.17
21:26:35.612,-0.23,-0.19
21:26:35.616,-0.24,-0.175
21:26:35.620,-0.225,-0.2
21:26:35.624,-0.23,-0.17
21:26:35.628,-0.23,-0.18
21:26:35.632,-0.235,-0.19
21:26:35.636,-0.235,-0.21
21:26:35.640,-0.25,-0.205
21:26:35.644,-0.23,-0.19
21:26:35.648,-0.205,-0.195
21:26:35.652,-0.2,-0.2
21:26:35.656,-0.21,-0.19
21:26:35.660,-0.165,-0.195
21:26:35.664,-0.12,-0.2
21:26:35.668,-0.06,-0.19
21:26:35.672,-0.02,-0.175
21:26:35.676,0.04,-0.185
21:26:35.680,0.1,-0.185
21:26:35.684,0.095,-0.205
21:26:35.688,0.075,-0.215
21:26:35.692,0.055,-0.245
21:26:35.696,0.05,-0.215
21:26:35.700,0.045,-0.21
21:26:35.704,0.19,-0.27
21:26:35.708,0.49,-0.365
21:26:35.712,0.84,-0.595
21:26:35.716,1.085,-0.86
21:26:35.720,1.145,-1.06
21:26:35.724,0.975,-1.095
21:26:35.728,0.57,-0.89
21:26:35.732,0.17,-0.535
21:26:35.736,-0.08,-0.24
21:26:35.740,-0.195,-0.085
21:26:35.744,-0.225,-0.02
21:26:35.748,-0.25,0.03
21:26:35.752,-0.275,0.02
21:26:35.756,-0.31,0.005
21:26:35.760,-0.33,-0.015
21:26:35.764,-0.37,-0.015
21:26:35.768,-0.405,-0.04
21:26:35.772,-0.415,-0.035
21:26:35.776,-0.43,-0.035
21:26:35.780,-0.44,-0.06
21:26:35.784,-0.475,-0.055
21:26:35.788,-0.45,-0.06
21:26:35.792,-0.46,-0.075
21:26:35.796,-0.45,-0.04
21:26:35.800,-0.465,-0.075
21:26:35.804,-0.46,-0.095
21:26:35.808,-0.46,-0.09
21:26:35.812,-0.485,-0.08
21:26:35.816,-0.495,-0.105
21:26:35.820,-0.5,-0.115
21:26:35.824,-0.495,-0.105
21:26:35.828,-0.5,-0.105
21:26:35.832,-0.5,-0.095
21:26:35.836,-0.49,-0.1
21:26:35.840,-0.51,-0.09
21:26:35.844,-0.48,-0.105
21:26:35.848,-0.49,-0.115
21:26:35.852,-0.495,-0.105
21:26:35.856,-0.48,-0.09
21:26:35.860,-0.47,-0.1
21:26:35.864,-0.475,-0.09
21:26:35.868,-0.455,-0.085
21:26:35.872,-0.44,-0.09
21:26:35.876,-0.435,-0.06
21:26:35.880,-0.445,-0.065
21:26:35.884,-0.445,-0.085
21:26:35.888,-0.41,-0.05
21:26:35.892,-0.405,-0.04
21:26:35.896,-0.375,-0.04
21:26:35.900,-0.36,-0.035
21:26:35.904,-0.35,-0.045
21:26:35.908,-0.31,-0.04
21:26:35.912,-0.33,-0.02
21:26:35.916,-0.335,-0.005
21:26:35.920,-0.3,0.0
21:26:35.924,-0.29,0.0
21:26:35.928,-0.265,0.01
21:26:35.932,-0.285,0.035
21:26:35.936,-0.28,0.035
21:26:35.940,-0.25,0.015
21:26:35.944,-0.25,-0.005
21:26:35.948,-0.235,-0.005
21:26:35.952,-0.235,-0.015
21:26:35.956,-0.24,0.0
21:26:35.960,-0.19,0.005
21:26:35.964,-0.22,0.025
21:26:35.968,-0.22,0.005
21:26:35.972,-0.24,0.01
21:26:35.976,-0.29,-0.005
21:26:35.980,-0.32,-0.01
21:26:35.984,-0.34,-0.005
21:26:35.988,-0.35,-0.015
21:26:35.992,-0.32,-0.025
21:26:35.996,-0.32,-0.025
21:26:36.000,-0.34,-0.025
21:26:36.004,-0.34,-0.02
21:26:36.008,-0.34,-0.03
21:26:36.012,-0.35,-0.015
21:26:36.016,-0.37,-0.02
21:26:36.020,-0.345,-0.02
21:26:36.024,-0.34,-0.03
21:26:36.028,-0.38,-0.035
21:26:36.032,-0.37,-0.03
21:26:36.036,-0.37,-0.065
21:26:36.040,-0.365,-0.06
21:26:36.044,-0.395,-0.04
21:26:36.048,-0.39,-0.065
21:26:36.052,-0.4,-0.07
21:26:36.056,-0.38,-0.065
21:26:36.060,-0.375,-0.075
21:26:36.064,-0.38,-0.095
21:26:36.068,-0.375,-0.09
21:26:36.072,-0.36,-0.115
21:26:36.076,-0.35,-0.1
21:26:36.080,-0.36,-0.115
21:26:36.084,-0.345,-0.105
21:26:36.088,-0.335,-0.1
21:26:36.092,-0.315,-0.09
21:26:36.096,-0.32,-0.07
21:26:36.100,-0.315,-0.1
21:26:36.104,-0.285,-0.095
21:26:36.108,-0.265,-0.095
21:26:36.112,-0.255,-0.08
21:26:36.116,-0.25,-0.1
21:26:36.120,-0.215,-0.065
21:26:36.124,-0.215,-0.06
21:26:36.128,-0.195,-0.05
21:26:36.132,-0.205,-0.03
21:26:36.136,-0.185,-0.025
21:26:36.140,-0.19,-0.005
21:26:36.144,-0.185,0.0
21:26:36.148,-0.2,-0.005
21:26:36.152,-0.195,0.0
21:26:36.156,-0.195,-0.01
21:26:36.160,-0.17,-0.01
21:26:36.164,-0.18,0.01
21:26:36.168,-0.175,0.0
21:26:36.172,-0.17,0.0
21:26:36.176,-0.225,-0.025
21:26:36.180,-0.24,-0.025
21:26:36.184,-0.285,-0.035
21:26:36.188,-0.29,-0.025
21:26:36.192,-0.3,-0.04
21:26:36.196,-0.32,-0.05
21:26:36.200,-0.345,-0.065
21:26:36.204,-0.345,-0.1
21:26:36.208,-0.35,-0.105
21:26:36.212,-0.365,-0.105
21:26:36.216,-0.365,-0.125
21:26:36.220,-0.34,-0.135
21:26:36.224,-0.345,-0.14
21:26:36.228,-0.37,-0.14
21:26:36.232,-0.38,-0.17
21:26:36.236,-0.375,-0.17
21:26:36.240,-0.39,-0.16
21:26:36.244,-0.375,-0.17
21:26:36.248,-0.4,-0.185
21:26:36.252,-0.39,-0.175
21:26:36.256,-0.375,-0.185
21:26:36.260,-0.385,-0.195
21:26:36.264,-0.38,-0.185
21:26:36.268,-0.36,-0.205
21:26:36.272,-0.38,-0.2
21:26:36.276,-0.385,-0.195
21:26:36.280,-0.375,-0.2
21:26:36.284,-0.35,-0.195
21:26:36.288,-0.355,-0.2
21:26:36.292,-0.355,-0.215
21:26:36.296,-0.345,-0.215
21:26:36.300,-0.31,-0.195
21:26:36.304,-0.31,-0.21
21:26:36.308,-0.31,-0.2
21:26:36.312,-0.315,-0.19
21:26:36.316,-0.29,-0.185
21:26:36.320,-0.26,-0.215
21:26:36.324,-0.24,-0.21
21:26:36.328,-0.235,-0.17
21:26:36.332,-0.185,-0.205
21:26:36.336,-0.17,-0.175
21:26:36.340,-0.175,-0.185
21:26:36.344,-0.18,-0.14
21:26:36.348,-0.155,-0.145
21:26:36.352,-0.165,-0.13
21:26:36.356,-0.15,-0.11
21:26:36.360,-0.13,-0.13
21:26:36.364,-0.105,-0.115
21:26:36.368,-0.04,-0.085
21:26:36.372,0.005,-0.12
21:26:36.376,0.1,-0.125
21:26:36.380,0.165,-0.14
21:26:36.384,0.245,-0.195
21:26:36.388,0.275,-0.235
21:26:36.392,0.285,-0.265
21:26:36.396,0.305,-0.255
21:26:36.400,0.29,-0.26
21:26:36.404,0.27,-0.315
21:26:36.408,0.33,-0.4
21:26:36.412,0.565,-0.56
21:26:36.416,0.875,-0.77
21:26:36.420,1.05,-1.015
21:26:36.424,1.01,-1.205
21:26:36.428,0.695,-1.19
21:26:36.432,0.22,-0.96
21:26:36.436,-0.145,-0.685
21:26:36.440,-0.31,-0.465
21:26:36.444,-0.38,-0.315
21:26:36.448,-0.395,-0.255
21:26:36.452,-0.415,-0.18
21:26:36.456,-0.465,-0.14
21:26:36.460,-0.51,-0.15
21:26:36.464,-0.515,-0.195
21:26:36.468,-0.555,-0.22
21:26:36.472,-0.56,-0.235
21:26:36.476,-0.585,-0.26
21:26:36.480,-0.57,-0.285
21:26:36.484,-0.59,-0.275
21:26:36.488,-0.59,-0.28
21:26:36.492,-0.59,-0.27
21:26:36.496,-0.58,-0.29
21:26:36.500,-0.6,-0.315
21:26:36.504,-0.59,-0.29
21:26:36.508,-0.61,-0.285
21:26:36.512,-0.58,-0.31
21:26:36.516,-0.605,-0.285
21:26:36.520,-0.6,-0.29
21:26:36.524,-0.59,-0.29
21:26:36.528,-0.575,-0.295
21:26:36.532,-0.51,-0.27
21:26:36.536,-0.5,-0.305
21:26:36.540,-0.48,-0.28
21:26:36.544,-0.45,-0.275
21:26:36.548,-0.44,-0.26
21:26:36.552,-0.4,-0.25
21:26:36.556,-0.39,-0.25
21:26:36.560,-0.34,-0.225
21:26:36.564,-0.32,-0.215
21:26:36.568,-0.31,-0.19
21:26:36.572,-0.34,-0.18
21:26:36.576,-0.34,-0.175
21:26:36.580,-0.34,-0.175
21:26:36.584,-0.32,-0.17
21:26:36.588,-0.315,-0.145
21:26:36.592,-0.325,-0.155
21:26:36.596,-0.345,-0.16
21:26:36.600,-0.365,-0.145
21:26:36.604,-0.42,-0.185
21:26:36.608,-0.42,-0.185
21:26:36.612,-0.42,-0.18
21:26:36.616,-0.46,-0.2
21:26:36.620,-0.475,-0.225
21:26:36.624,-0.475,-0.21
21:26:36.628,-0.48,-0.23
21:26:36.632,-0.475,-0.255
21:26:36.636,-0.48,-0.27
21:26:36.640,-0.48,-0.29
21:26:36.644,-0.48,-0.31
21:26:36.648,-0.48,-0.335
21:26:36.652,-0.47,-0.33
21:26:36.656,-0.465,-0.345
21:26:36.660,-0.475,-0.355
21:26:36.664,-0.465,-0.345
21:26:36.668,-0.47,-0.37
21:26:36.672,-0.445,-0.375
21:26:36.676,-0.41,-0.385
21:26:36.680,-0.395,-0.375
21:26:36.684,-0.4,-0.38
21:26:36.688,-0.38,-0.395
21:26:36.692,-0.385,-0.38
21:26:36.696,-0.355,-0.355
21:26:36.700,-0.37,-0.365
21:26:36.704,-0.355,-0.365
21:26:36.708,-0.33,-0.345
21:26:36.712,-0.335,-0.355
21:26:36.716,-0.335,-0.345
21:26:36.720,-0.335,-0.345
21:26:36.724,-0.33,-0.335
21:26:36.728,-0.345,-0.325
21:26:36.732,-0.345,-0.345
21:26:36.736,-0.35,-0.325
21:26:36.740,-0.345,-0.33
21:26:36.744,-0.315,-0.3
21:26:36.748,-0.3,-0.315
21:26:36.752,-0.265,-0.29
21:26:36.756,-0.25,-0.285
21:26:36.760,-0.21,-0.255
21:26:36.764,-0.19,-0.245
21:26:36.768,-0.17,-0.235
21:26:36.772,-0.14,-0.235
21:26:36.776,-0.11,-0.165
21:26:36.780,-0.1,-0.16
21:26:36.784,-0.11,-0.135
21:26:36.788,-0.12,-0.11
21:26:36.792,-0.12,-0.115
21:26:36.796,-0.125,-0.095
21:26:36.800,-0.12,-0.075
21:26:36.804,-0.145,-0.08
21:26:36.808,-0.16,-0.09
21:26:36.812,-0.145,-0.115
21:26:36.816,-0.155,-0.11
21:26:36.820,-0.18,-0.11
21:26:36.824,-0.2,-0.125
21:26:36.828,-0.21,-0.115
21:26:36.832,-0.235,-0.1
21:26:36.836,-0.245,-0.125
21:26:36.840,-0.245,-0.125
21:26:36.844,-0.265,-0.13
21:26:36.848,-0.295,-0.115
21:26:36.852,-0.305,-0.15
21:26:36.856,-0.315,-0.145
21:26:36.860,-0.305,-0.18
21:26:36.864,-0.32,-0.155
21:26:36.868,-0.34,-0.17
21:26:36.872,-0.33,-0.17
21:26:36.876,-0.345,-0.17
21:26:36.880,-0.345,-0.18
21:26:36.884,-0.365,-0.18
21:26:36.888,-0.34,-0.16
21:26:36.892,-0.335,-0.185
21:26:36.896,-0.325,-0.17
21:26:36.900,-0.305,-0.18
21:26:36.904,-0.3,-0.16
21:26:36.908,-0.295,-0.17
21:26:36.912,-0.29,-0.18
21:26:36.916,-0.29,-0.19
21:26:36.920,-0.285,-0.16
21:26:36.924,-0.3,-0.175
21:26:36.928,-0.275,-0.175
21:26:36.932,-0.28,-0.165
21:26:36.936,-0.27,-0.17
21:26:36.940,-0.26,-0.155
21:26:36.944,-0.265,-0.14
21:26:36.948,-0.265,-0.135
21:26:36.952,-0.265,-0.125
21:26:36.956,-0.25,-0.145
21:26:36.960,-0.245,-0.125
21:26:36.964,-0.22,-0.14
21:26:36.968,-0.195,-0.12
21:26:36.972,-0.185,-0.125
21:26:36.976,-0.135,-0.115
21:26:36.980,-0.12,-0.1
21:26:36.984,-0.12,-0.09
21:26:36.988,-0.065,-0.08
21:26:36.992,-0.01,-0.08
21:26:36.996,0.03,-0.065
21:26:37.000,0.14,-0.03
21:26:37.004,0.215,-0.035
21:26:37.008,0.29,-0.065
21:26:37.012,0.315,-0.085
21:26:37.016,0.365,-0.11
21:26:37.020,0.375,-0.13
21:26:37.024,0.375,-0.12
21:26:37.028,0.345,-0.15
21:26:37.032,0.345,-0.24
21:26:37.036,0.5,-0.37
21:26:37.040,0.785,-0.56
21:26:37.044,1.05,-0.79
21:26:37.048,1.19,-1.02
21:26:37.052,1.06,-1.14
21:26:37.056,0.62,-1.03
21:26:37.060,0.145,-0.71
21:26:37.064,-0.16,-0.405
21:26:37.068,-0.28,-0.225
21:26:37.072,-0.325,-0.09
21:26:37.076,-0.355,-0.015
21:26:37.080,-0.395,0.025
21:26:37.084,-0.41,0.06
21:26:37.088,-0.41,0.03
21:26:37.092,-0.455,0.025
21:26:37.096,-0.47,-0.005
21:26:37.100,-0.47,-0.035
21:26:37.104,-0.48,-0.055
21:26:37.108,-0.485,-0.06
21:26:37.112,-0.49,-0.09
21:26:37.116,-0.465,-0.085
21:26:37.120,-0.45,-0.1
21:26:37.124,-0.445,-0.09
21:26:37.128,-0.44,-0.105
21:26:37.132,-0.43,-0.085
21:26:37.136,-0.415,-0.08
21:26:37.140,-0.415,-0.075
21:26:37.144,-0.405,-0.1
21:26:37.148,-0.4,-0.095
21:26:37.152,-0.395,-0.1
21:26:37.156,-0.405,-0.075
21:26:37.160,-0.405,-0.07
21:26:37.164,-0.41,-0.08
21:26:37.168,-0.415,-0.07
21:26:37.172,-0.42,-0.08
21:26:37.176,-0.42,-0.06
21:26:37.180,-0.42,-0.07
21:26:37.184,-0.385,-0.06
21:26:37.188,-0.37,-0.07
21:26:37.192,-0.37,-0.075
21:26:37.196,-0.355,-0.06
21:26:37.200,-0.33,-0.025
21:26:37.204,-0.34,0.0
21:26:37.208,-0.305,0.0
21:26:37.212,-0.325,0.005
21:26:37.216,-0.315,0.02
21:26:37.220,-0.305,0.02
21:26:37.224,-0.33,0.03
21:26:37.228,-0.355,0.035
21:26:37.232,-0.365,0.015
21:26:37.236,-0.32,0.005
21:26:37.240,-0.33,0.015
21:26:37.244,-0.325,0.0
21:26:37.248,-0.325,-0.025
21:26:37.252,-0.3,-0.01
21:26:37.256,-0.32,-0.065
21:26:37.260,-0.31,-0.07
21:26:37.264,-0.32,-0.065
21:26:37.268,-0.35,-0.07
21:26:37.272,-0.33,-0.12
21:26:37.276,-0.335,-0.12
21:26:37.280,-0.345,-0.11
21:26:37.284,-0.32,-0.12
21:26:37.288,-0.355,-0.115
21:26:37.292,-0.36,-0.135
21:26:37.296,-0.345,-0.13
21:26:37.300,-0.33,-0.155
21:26:37.304,-0.345,-0.145
21:26:37.308,-0.335,-0.175
21:26:37.312,-0.33,-0.16
21:26:37.316,-0.33,-0.18
21:26:37.320,-0.34,-0.21
21:26:37.324,-0.36,-0.19
21:26:37.328,-0.345,-0.215
21:26:37.332,-0.335,-0.195
21:26:37.336,-0.315,-0.205
21:26:37.340,-0.315,-0.205
21:26:37.344,-0.3,-0.195
21:26:37.348,-0.29,-0.2
21:26:37.352,-0.265,-0.2
21:26:37.356,-0.26,-0.165
21:26:37.360,-0.24,-0.17
21:26:37.364,-0.215,-0.17
21:26:37.368,-0.2,-0.155
21:26:37.372,-0.215,-0.14
21:26:37.376,-0.21,-0.155
21:26:37.380,-0.205,-0.14
21:26:37.384,-0.215,-0.13
21:26:37.388,-0.21,-0.125
21:26:37.392,-0.175,-0.13
21:26:37.396,-0.18,-0.115
21:26:37.400,-0.185,-0.115
21:26:37.404,-0.185,-0.115
21:26:37.408,-0.19,-0.105
21:26:37.412,-0.17,-0.075
21:26:37.416,-0.155,-0.07
21:26:37.420,-0.145,-0.06
21:26:37.424,-0.16,-0.065
21:26:37.428,-0.16,-0.05
21:26:37.432,-0.145,-0.05
21:26:37.436,-0.18,-0.035
21:26:37.440,-0.185,-0.05
21:26:37.444,-0.2,-0.025
21:26:37.448,-0.205,-0.035
21:26:37.452,-0.235,-0.03
21:26:37.456,-0.25,-0.03
21:26:37.460,-0.225,-0.065
21:26:37.464,-0.23,-0.06
21:26:37.468,-0.2,-0.1
21:26:37.472,-0.225,-0.095
21:26:37.476,-0.235,-0.09
21:26:37.480,-0.23,-0.075
21:26:37.484,-0.245,-0.075
21:26:37.488,-0.27,-0.07
21:26:37.492,-0.275,-0.095
21:26:37.496,-0.275,-0.1
21:26:37.500,-0.29,-0.1
21:26:37.504,-0.295,-0.115
21:26:37.508,-0.285,-0.1
21:26:37.512,-0.285,-0.105
21:26:37.516,-0.305,-0.1
21:26:37.520,-0.305,-0.1
21:26:37.524,-0.33,-0.12
21:26:37.528,-0.32,-0.14
21:26:37.532,-0.33,-0.165
21:26:37.536,-0.345,-0.145
21:26:37.540,-0.33,-0.19
21:26:37.544,-0.285,-0.2
21:26:37.548,-0.24,-0.205
21:26:37.552,-0.18,-0.215
21:26:37.556,-0.1,-0.245
21:26:37.560,-0.015,-0.27
21:26:37.564,0.045,-0.27
21:26:37.568,0.085,-0.315
21:26:37.572,0.125,-0.35
21:26:37.576,0.11,-0.335
21:26:37.580,0.1,-0.355
21:26:37.584,0.095,-0.41
21:26:37.588,0.245,-0.52
21:26:37.592,0.48,-0.695
21:26:37.596,0.815,-0.92
21:26:37.600,1.035,-1.15
21:26:37.604,1.03,-1.325
21:26:37.608,0.76,-1.285
21:26:37.612,0.275,-0.995
21:26:37.616,-0.085,-0.665
21:26:37.620,-0.235,-0.365
21:26:37.624,-0.28,-0.215
21:26:37.628,-0.305,-0.12
21:26:37.632,-0.33,-0.045
21:26:37.636,-0.33,0.0
21:26:37.640,-0.35,0.02
21:26:37.644,-0.36,0.005
21:26:37.648,-0.38,-0.025
21:26:37.652,-0.405,-0.005
21:26:37.656,-0.39,-0.025
21:26:37.660,-0.39,-0.01
21:26:37.664,-0.4,-0.005
21:26:37.668,-0.4,-0.015
21:26:37.672,-0.4,-0.02
21:26:37.676,-0.405,-0.02
21:26:37.680,-0.415,-0.03
21:26:37.684,-0.435,-0.025
21:26:37.688,-0.44,-0.01
21:26:37.692,-0.435,-0.015
21:26:37.696,-0.44,-0.025
21:26:37.700,-0.435,-0.035
21:26:37.704,-0.45,-0.04
21:26:37.708,-0.46,-0.03
21:26:37.712,-0.475,-0.025
21:26:37.716,-0.485,-0.03
21:26:37.720,-0.5,-0.025
21:26:37.724,-0.525,-0.01
21:26:37.728,-0.54,-0.03
21:26:37.732,-0.575,-0.03
21:26:37.736,-0.585,-0.03
21:26:37.740,-0.58,-0.02
21:26:37.744,-0.605,-0.065
21:26:37.748,-0.59,-0.045
21:26:37.752,-0.57,-0.07
21:26:37.756,-0.55,-0.055
21:26:37.760,-0.535,-0.075
21:26:37.764,-0.54,-0.085
21:26:37.768,-0.525,-0.055
21:26:37.772,-0.515,-0.08
21:26:37.776,-0.495,-0.085
21:26:37.780,-0.485,-0.08
21:26:37.784,-0.46,-0.095
21:26:37.788,-0.425,-0.1
21:26:37.792,-0.415,-0.11
21:26:37.796,-0.41,-0.12
21:26:37.800,-0.375,-0.12
21:26:37.804,-0.36,-0.145
21:26:37.808,-0.34,-0.145
21:26:37.812,-0.32,-0.135
21:26:37.816,-0.295,-0.15
21:26:37.820,-0.29,-0.17
21:26:37.824,-0.25,-0.155
21:26:37.828,-0.265,-0.155
21:26:37.832,-0.255,-0.155
21:26:37.836,-0.205,-0.165
21:26:37.840,-0.2,-0.175
21:26:37.844,-0.2,-0.16
21:26:37.848,-0.185,-0.15
21:26:37.852,-0.225,-0.14
21:26:37.856,-0.215,-0.115
21:26:37.860,-0.235,-0.13
21:26:37.864,-0.22,-0.115
21:26:37.868,-0.235,-0.09
21:26:37.872,-0.22,-0.125
21:26:37.876,-0.25,-0.12
21:26:37.880,-0.235,-0.125
21:26:37.884,-0.26,-0.115
21:26:37.888,-0.25,-0.125
21:26:37.892,-0.265,-0.11
21:26:37.896,-0.25,-0.1
21:26:37.900,-0.25,-0.085
21:26:37.904,-0.25,-0.07
21:26:37.908,-0.25,-0.055
21:26:37.912,-0.265,-0.045
21:26:37.916,-0.265,-0.045
21:26:37.920,-0.29,-0.06
21:26:37.924,-0.325,-0.045
21:26:37.928,-0.345,-0.055
21:26:37.932,-0.34,-0.04
21:26:37.936,-0.32,-0.06
21:26:37.940,-0.345,-0.04
21:26:37.944,-0.35,-0.03
21:26:37.948,-0.37,-0.045
21:26:37.952,-0.38,-0.07
21:26:37.956,-0.385,-0.055
21:26:37.960,-0.39,-0.035
21:26:37.964,-0.4,-0.035
21:26:37.968,-0.395,-0.055
21:26:37.972,-0.395,-0.04
21:26:37.976,-0.395,-0.065
21:26:37.980,-0.38,-0.06
21:26:37.984,-0.345,-0.06
21:26:37.988,-0.36,-0.065
21:26:37.992,-0.345,-0.07
21:26:37.996,-0.335,-0.065
21:26:38.000,-0.32,-0.09
21:26:38.004,-0.325,-0.06
21:26:38.008,-0.315,-0.07
21:26:38.012,-0.315,-0.07
21:26:38.016,-0.31,-0.06
21:26:38.020,-0.315,-0.065
21:26:38.024,-0.295,-0.065
21:26:38.028,-0.275,-0.075
21:26:38.032,-0.275,-0.065
21:26:38.036,-0.255,-0.06
21:26:38.040,-0.265,-0.06
21:26:38.044,-0.245,-0.06
21:26:38.048,-0.245,-0.07
21:26:38.052,-0.205,-0.07
21:26:38.056,-0.22,-0.05
21:26:38.060,-0.23,-0.045
21:26:38.064,-0.235,-0.05
21:26:38.068,-0.19,-0.01
21:26:38.072,-0.18,-0.035
21:26:38.076,-0.19,-0.06
21:26:38.080,-0.16,-0.04
21:26:38.084,-0.13,-0.05
21:26:38.088,-0.08,-0.05
21:26:38.092,-0.02,-0.05
21:26:38.096,0.06,-0.075
21:26:38.100,0.09,-0.09
21:26:38.104,0.115,-0.12
21:26:38.108,0.12,-0.155
21:26:38.112,0.09,-0.155
21:26:38.116,0.08,-0.175
21:26:38.120,0.08,-0.26
21:26:38.124,0.24,-0.37
21:26:38.128,0.525,-0.54
21:26:38.132,0.85,-0.81
21:26:38.136,1.035,-1.03
21:26:38.140,0.98,-1.22
21:26:38.144,0.615,-1.19
21:26:38.148,0.16,-0.9
21:26:38.152,-0.22,-0.54
21:26:38.156,-0.385,-0.285
21:26:38.160,-0.425,-0.155
21:26:38.164,-0.415,-0.09
21:26:38.168,-0.45,-0.035
21:26:38.172,-0.45,-0.015
21:26:38.176,-0.455,-0.03
21:26:38.180,-0.475,-0.015
21:26:38.184,-0.505,-0.025
21:26:38.188,-0.5,-0.065
21:26:38.192,-0.5,-0.05
21:26:38.196,-0.505,-0.08
21:26:38.200,-0.505,-0.08
21:26:38.204,-0.5,-0.055
21:26:38.208,-0.515,-0.075
21:26:38.212,-0.5,-0.065
21:26:38.216,-0.475,-0.07
21:26:38.220,-0.49,-0.05
21:26:38.224,-0.49,-0.07
21:26:38.228,-0.475,-0.065
21:26:38.232,-0.49,-0.045
21:26:38.236,-0.485,-0.06
21:26:38.240,-0.475,-0.055
21:26:38.244,-0.465,-0.065
21:26:38.248,-0.46,-0.07
21:26:38.252,-0.44,-0.05
21:26:38.256,-0.45,-0.045
21:26:38.260,-0.46,-0.03
21:26:38.264,-0.45,-0.005
21:26:38.268,-0.44,-0.015
21:26:38.272,-0.445,-0.02
21:26:38.276,-0.44,-0.005
21:26:38.280,-0.425,0.01
21:26:38.284,-0.44,0.005
21:26:38.288,-0.445,0.0
21:26:38.292,-0.435,0.01
21:26:38.296,-0.43,0.02
21:26:38.300,-0.44,0.01
21:26:38.304,-0.435,0.01
21:26:38.308,-0.465,0.015
21:26:38.312,-0.44,0.02
21:26:38.316,-0.45,0.025
21:26:38.320,-0.47,0.035
21:26:38.324,-0.445,0.015
21:26:38.328,-0.42,0.01
21:26:38.332,-0.445,-0.015
21:26:38.336,-0.435,0.0
21:26:38.340,-0.425,-0.015
21:26:38.344,-0.425,-0.01
21:26:38.348,-0.43,-0.025
21:26:38.352,-0.425,-0.015
21:26:38.356,-0.43,-0.035
21:26:38.360,-0.42,-0.06
21:26:38.364,-0.425,-0.055
21:26:38.368,-0.405,-0.055
21:26:38.372,-0.395,-0.09
21:26:38.376,-0.365,-0.115
21:26:38.380,-0.355,-0.11
21:26:38.384,-0.355,-0.09
21:26:38.388,-0.335,-0.1
21:26:38.392,-0.325,-0.09
21:26:38.396,-0.3,-0.095
21:26:38.400,-0.305,-0.095
21:26:38.404,-0.275,-0.105
21:26:38.408,-0.29,-0.1
21:26:38.412,-0.255,-0.115
21:26:38.416,-0.245,-0.1
21:26:38.420,-0.27,-0.11
21:26:38.424,-0.255,-0.12
21:26:38.428,-0.25,-0.1
21:26:38.432,-0.265,-0.105
21:26:38.436,-0.265,-0.11
21:26:38.440,-0.26,-0.12
21:26:38.444,-0.26,-0.125
21:26:38.448,-0.25,-0.115
21:26:38.452,-0.26,-0.14
21:26:38.456,-0.26,-0.145
21:26:38.460,-0.255,-0.1
21:26:38.464,-0.26,-0.115
21:26:38.468,-0.27,-0.09
21:26:38.472,-0.27,-0.09
21:26:38.476,-0.3,-0.115
21:26:38.480,-0.285,-0.135
21:26:38.484,-0.29,-0.115
21:26:38.488,-0.285,-0.1
21:26:38.492,-0.285,-0.115
21:26:38.496,-0.26,-0.12
21:26:38.500,-0.24,-0.125
21:26:38.504,-0.275,-0.105
21:26:38.508,-0.26,-0.08
21:26:38.512,-0.26,-0.09
21:26:38.516,-0.26,-0.07
21:26:38.520,-0.28,-0.065
21:26:38.524,-0.29,-0.055
21:26:38.528,-0.29,-0.055
21:26:38.532,-0.295,-0.06
21:26:38.536,-0.33,-0.055
21:26:38.540,-0.355,-0.075
21:26:38.544,-0.34,-0.075
21:26:38.548,-0.345,-0.06
21:26:38.552,-0.375,-0.06
21:26:38.556,-0.38,-0.05
21:26:38.560,-0.385,-0.07
21:26:38.564,-0.39,-0.065
21:26:38.568,-0.435,-0.07
21:26:38.572,-0.425,-0.08
21:26:38.576,-0.425,-0.085
21:26:38.580,-0.43,-0.09
21:26:38.584,-0.45,-0.09
21:26:38.588,-0.445,-0.07
21:26:38.592,-0.42,-0.065
21:26:38.596,-0.4,-0.08
21:26:38.600,-0.395,-0.07
21:26:38.604,-0.38,-0.06
21:26:38.608,-0.355,-0.085
21:26:38.612,-0.34,-0.105
21:26:38.616,-0.345,-0.105
21:26:38.620,-0.33,-0.09
21:26:38.624,-0.32,-0.1
21:26:38.628,-0.295,-0.12
21:26:38.632,-0.31,-0.085
21:26:38.636,-0.315,-0.085
21:26:38.640,-0.325,-0.105
21:26:38.644,-0.305,-0.105
21:26:38.648,-0.3,-0.13
21:26:38.652,-0.31,-0.115
21:26:38.656,-0.31,-0.12
21:26:38.660,-0.3,-0.13
21:26:38.664,-0.315,-0.125
21:26:38.668,-0.315,-0.125
21:26:38.672,-0.31,-0.15
21:26:38.676,-0.295,-0.14
21:26:38.680,-0.29,-0.16
21:26:38.684,-0.305,-0.14
21:26:38.688,-0.29,-0.14
21:26:38.692,-0.31,-0.12
21:26:38.696,-0.32,-0.14
21:26:38.700,-0.31,-0.115
21:26:38.704,-0.305,-0.14
21:26:38.708,-0.3,-0.115
21:26:38.712,-0.275,-0.12
21:26:38.716,-0.29,-0.115
21:26:38.720,-0.275,-0.12
21:26:38.724,-0.275,-0.115
21:26:38.728,-0.255,-0.115
21:26:38.732,-0.24,-0.115
21:26:38.736,-0.22,-0.13
21:26:38.740,-0.175,-0.135
21:26:38.744,-0.095,-0.125
21:26:38.748,-0.03,-0.14
21:26:38.752,0.04,-0.13
21:26:38.756,0.085,-0.19
21:26:38.760,0.115,-0.2
21:26:38.764,0.13,-0.2
21:26:38.768,0.115,-0.21
21:26:38.772,0.075,-0.235
21:26:38.776,0.09,-0.315
21:26:38.780,0.19,-0.405
21:26:38.784,0.455,-0.57
21:26:38.788,0.755,-0.825
21:26:38.792,0.915,-1.03
21:26:38.796,0.785,-1.165
21:26:38.800,0.385,-1.045
21:26:38.804,-0.065,-0.745
21:26:38.808,-0.32,-0.4
21:26:38.812,-0.465,-0.195
21:26:38.816,-0.5,-0.12
21:26:38.820,-0.51,-0.015
21:26:38.824,-0.525,0.04
21:26:38.828,-0.545,0.05
21:26:38.832,-0.515,0.03
21:26:38.836,-0.505,0.01
21:26:38.840,-0.48,0.0
21:26:38.844,-0.465,-0.03
21:26:38.848,-0.455,-0.05
21:26:38.852,-0.415,-0.05
21:26:38.856,-0.415,-0.045
21:26:38.860,-0.425,-0.055
21:26:38.864,-0.44,-0.05
21:26:38.868,-0.455,-0.07
21:26:38.872,-0.44,-0.06
21:26:38.876,-0.465,-0.03
21:26:38.880,-0.465,-0.05
21:26:38.884,-0.49,-0.03
21:26:38.888,-0.49,-0.05
21:26:38.892,-0.475,-0.05
21:26:38.896,-0.475,-0.06
21:26:38.900,-0.5,-0.055
21:26:38.904,-0.47,-0.045
21:26:38.908,-0.5,-0.04
21:26:38.912,-0.535,-0.065
21:26:38.916,-0.54,-0.08
21:26:38.920,-0.55,-0.08
21:26:38.924,-0.535,-0.065
21:26:38.928,-0.55,-0.06
21:26:38.932,-0.54,-0.09
21:26:38.936,-0.545,-0.075
21:26:38.940,-0.54,-0.085
21:26:38.944,-0.52,-0.075
21:26:38.948,-0.515,-0.06
21:26:38.952,-0.505,-0.06
21:26:38.956,-0.5,-0.08
21:26:38.960,-0.48,-0.065
21:26:38.964,-0.495,-0.04
21:26:38.968,-0.49,-0.03
21:26:38.972,-0.475,-0.055
21:26:38.976,-0.52,-0.065
21:26:38.980,-0.535,-0.075
21:26:38.984,-0.54,-0.075
21:26:38.988,-0.545,-0.105
21:26:38.992,-0.55,-0.1
21:26:38.996,-0.56,-0.115
21:26:39.000,-0.56,-0.11
21:26:39.004,-0.58,-0.115
21:26:39.008,-0.59,-0.115
21:26:39.012,-0.595,-0.13
21:26:39.016,-0.565,-0.145
21:26:39.020,-0.55,-0.155
21:26:39.024,-0.54,-0.17
21:26:39.028,-0.545,-0.165
21:26:39.032,-0.545,-0.18
21:26:39.036,-0.53,-0.19
21:26:39.040,-0.505,-0.185
21:26:39.044,-0.475,-0.18
21:26:39.048,-0.445,-0.22
21:26:39.052,-0.39,-0.19
21:26:39.056,-0.36,-0.215
21:26:39.060,-0.32,-0.225
21:26:39.064,-0.3,-0.22
21:26:39.068,-0.255,-0.255
21:26:39.072,-0.24,-0.255
21:26:39.076,-0.22,-0.22
21:26:39.080,-0.235,-0.235
21:26:39.084,-0.205,-0.225
21:26:39.088,-0.205,-0.23
21:26:39.092,-0.23,-0.2
21:26:39.096,-0.23,-0.21
21:26:39.100,-0.225,-0.21
21:26:39.104,-0.225,-0.21
21:26:39.108,-0.235,-0.21
21:26:39.112,-0.27,-0.2
21:26:39.116,-0.265,-0.2
21:26:39.120,-0.27,-0.215
21:26:39.124,-0.27,-0.23
21:26:39.128,-0.27,-0.23
21:26:39.132,-0.275,-0.235
21:26:39.136,-0.285,-0.245
21:26:39.140,-0.285,-0.255
21:26:39.144,-0.315,-0.235
21:26:39.148,-0.315,-0.235
21:26:39.152,-0.295,-0.23
21:26:39.156,-0.28,-0.22
21:26:39.160,-0.315,-0.22
21:26:39.164,-0.295,-0.25
21:26:39.168,-0.29,-0.265
21:26:39.172,-0.285,-0.25
21:26:39.176,-0.305,-0.255
21:26:39.180,-0.3,-0.25
21:26:39.184,-0.29,-0.255
21:26:39.188,-0.325,-0.25
21:26:39.192,-0.335,-0.24
21:26:39.196,-0.355,-0.265
21:26:39.200,-0.35,-0.275
21:26:39.204,-0.36,-0.27
21:26:39.208,-0.36,-0.26
21:26:39.212,-0.32,-0.265
21:26:39.216,-0.235,-0.285
21:26:39.220,-0.185,-0.285
21:26:39.224,-0.125,-0.3
21:26:39.228,-0.04,-0.32
21:26:39.232,0.02,-0.39
21:26:39.236,0.045,-0.42
21:26:39.240,0.065,-0.395
21:26:39.244,0.06,-0.375
21:26:39.248,0.08,-0.42
21:26:39.252,0.17,-0.49
21:26:39.256,0.39,-0.605
21:26:39.260,0.69,-0.8
21:26:39.264,0.925,-1.045
21:26:39.268,0.95,-1.235
21:26:39.272,0.68,-1.235
21:26:39.276,0.215,-1.035
21:26:39.280,-0.115,-0.72
21:26:39.284,-0.265,-0.495
21:26:39.288,-0.33,-0.375
21:26:39.292,-0.32,-0.28
21:26:39.296,-0.31,-0.23
21:26:39.300,-0.32,-0.22
21:26:39.304,-0.33,-0.24
21:26:39.308,-0.35,-0.25
21:26:39.312,-0.365,-0.285
21:26:39.316,-0.36,-0.3
21:26:39.320,-0.39,-0.3
21:26:39.324,-0.375,-0.34
21:26:39.328,-0.385,-0.35
21:26:39.332,-0.41,-0.355
21:26:39.336,-0.405,-0.37
21:26:39.340,-0.43,-0.36
21:26:39.344,-0.435,-0.4
21:26:39.348,-0.43,-0.385
21:26:39.352,-0.435,-0.395
21:26:39.356,-0.475,-0.39
21:26:39.360,-0.475,-0.405
21:26:39.364,-0.48,-0.415
21:26:39.368,-0.5,-0.395
21:26:39.372,-0.535,-0.435
21:26:39.376,-0.515,-0.43
21:26:39.380,-0.505,-0.445
21:26:39.384,-0.515,-0.425
21:26:39.388,-0.525,-0.435
21:26:39.392,-0.515,-0.43
21:26:39.396,-0.51,-0.44
21:26:39.400,-0.525,-0.43
21:26:39.404,-0.535,-0.44
21:26:39.408,-0.53,-0.435
21:26:39.412,-0.555,-0.43
21:26:39.416,-0.59,-0.435
21:26:39.420,-0.585,-0.45
21:26:39.424,-0.62,-0.445
21:26:39.428,-0.61,-0.43
21:26:39.432,-0.61,-0.425
21:26:39.436,-0.63,-0.43
21:26:39.440,-0.64,-0.44
21:26:39.444,-0.625,-0.445
21:26:39.448,-0.61,-0.46
21:26:39.452,-0.62,-0.465
21:26:39.456,-0.59,-0.465
21:26:39.460,-0.575,-0.475
21:26:39.464,-0.545,-0.465
21:26:39.468,-0.52,-0.47
21:26:39.472,-0.5,-0.465
21:26:39.476,-0.47,-0.47
21:26:39.480,-0.445,-0.48
21:26:39.484,-0.42,-0.49
21:26:39.488,-0.405,-0.485
21:26:39.492,-0.38,-0.475
21:26:39.496,-0.355,-0.47
21:26:39.500,-0.345,-0.445
21:26:39.504,-0.33,-0.43
21:26:39.508,-0.275,-0.45
21:26:39.512,-0.255,-0.42
21:26:39.516,-0.25,-0.415
21:26:39.520,-0.235,-0.43
21:26:39.524,-0.235,-0.435
21:26:39.528,-0.21,-0.405
21:26:39.532,-0.215,-0.425
21:26:39.536,-0.195,-0.415
21:26:39.540,-0.21,-0.405
21:26:39.544,-0.185,-0.405
21:26:39.548,-0.19,-0.4
21:26:39.552,-0.21,-0.43
21:26:39.556,-0.2,-0.41
21:26:39.560,-0.205,-0.415
21:26:39.564,-0.215,-0.425
21:26:39.568,-0.255,-0.4
21:26:39.572,-0.265,-0.415
21:26:39.576,-0.28,-0.415
21:26:39.580,-0.295,-0.405
21:26:39.584,-0.31,-0.42
21:26:39.588,-0.335,-0.42
21:26:39.592,-0.345,-0.425
21:26:39.596,-0.33,-0.415
21:26:39.600,-0.35,-0.42
21:26:39.604,-0.36,-0.385
21:26:39.608,-0.34,-0.39
21:26:39.612,-0.34,-0.39
21:26:39.616,-0.35,-0.38
21:26:39.620,-0.37,-0.36
21:26:39.624,-0.355,-0.35
21:26:39.628,-0.335,-0.355
21:26:39.632,-0.355,-0.33
21:26:39.636,-0.365,-0.32
21:26:39.640,-0.37,-0.325
21:26:39.644,-0.355,-0.305
21:26:39.648,-0.385,-0.305
21:26:39.652,-0.395,-0.305
21:26:39.656,-0.405,-0.3
21:26:39.660,-0.41,-0.32
21:26:39.664,-0.42,-0.315
21:26:39.668,-0.42,-0.315
21:26:39.672,-0.4,-0.305
21:26:39.676,-0.395,-0.295
21:26:39.680,-0.425,-0.28
21:26:39.684,-0.4,-0.265
21:26:39.688,-0.365,-0.27
21:26:39.692,-0.355,-0.25
21:26:39.696,-0.34,-0.245
21:26:39.700,-0.33,-0.25
21:26:39.704,-0.31,-0.25
21:26:39.708,-0.265,-0.235
21:26:39.712,-0.245,-0.255
21:26:39.716,-0.225,-0.23
21:26:39.720,-0.155,-0.205
21:26:39.724,-0.08,-0.205
21:26:39.728,0.005,-0.215
21:26:39.732,0.085,-0.21
21:26:39.736,0.15,-0.205
21:26:39.740,0.215,-0.265
21:26:39.744,0.27,-0.255
21:26:39.748,0.3,-0.225
21:26:39.752,0.29,-0.24
21:26:39.756,0.315,-0.31
21:26:39.760,0.455,-0.41
21:26:39.764,0.735,-0.59
21:26:39.768,1.035,-0.83
21:26:39.772,1.22,-1.055
21:26:39.776,1.075,-1.22
21:26:39.780,0.655,-1.125
21:26:39.784,0.2,-0.83
21:26:39.788,-0.055,-0.51
21:26:39.792,-0.18,-0.35
21:26:39.796,-0.26,-0.22
21:26:39.800,-0.28,-0.16
21:26:39.804,-0.285,-0.075
21:26:39.808,-0.325,-0.075
21:26:39.812,-0.355,-0.05
21:26:39.816,-0.38,-0.065
21:26:39.820,-0.37,-0.075
21:26:39.824,-0.395,-0.1
21:26:39.828,-0.415,-0.105
21:26:39.832,-0.41,-0.115
21:26:39.836,-0.405,-0.12
21:26:39.840,-0.415,-0.095
21:26:39.844,-0.42,-0.1
21:26:39.848,-0.435,-0.08
21:26:39.852,-0.455,-0.085
21:26:39.856,-0.435,-0.11
21:26:39.860,-0.465,-0.095
21:26:39.864,-0.495,-0.105
21:26:39.868,-0.47,-0.095
21:26:39.872,-0.525,-0.105
21:26:39.876,-0.57,-0.1
21:26:39.880,-0.585,-0.105
21:26:39.884,-0.595,-0.095
21:26:39.888,-0.59,-0.105
21:26:39.892,-0.59,-0.125
21:26:39.896,-0.6,-0.13
21:26:39.900,-0.62,-0.105
21:26:39.904,-0.605,-0.1
21:26:39.908,-0.62,-0.105
21:26:39.912,-0.6,-0.08
21:26:39.916,-0.57,-0.07
21:26:39.920,-0.54,-0.04
21:26:39.924,-0.505,-0.06
21:26:39.928,-0.52,-0.05
21:26:39.932,-0.505,-0.045
21:26:39.936,-0.485,-0.03
21:26:39.940,-0.45,-0.055
21:26:39.944,-0.465,-0.005
21:26:39.948,-0.445,-0.015
21:26:39.952,-0.44,-0.005
21:26:39.956,-0.455,0.0
21:26:39.960,-0.435,0.0
21:26:39.964,-0.395,0.0
21:26:39.968,-0.37,-0.005
21:26:39.972,-0.38,0.0
21:26:39.976,-0.375,0.0
21:26:39.980,-0.365,0.0
21:26:39.984,-0.35,0.0
21:26:39.988,-0.335,-0.025
21:26:39.992,-0.335,-0.035
21:26:39.996,-0.31,-0.05
21:26:40.000,-0.28,-0.06
21:26:40.004,-0.275,-0.085
21:26:40.008,-0.25,-0.12
21:26:40.012,-0.235,-0.14
21:26:40.016,-0.205,-0.15
21:26:40.020,-0.215,-0.175
21:26:40.024,-0.22,-0.15
21:26:40.028,-0.23,-0.18
21:26:40.032,-0.21,-0.155
21:26:40.036,-0.2,-0.18
21:26:40.040,-0.22,-0.195
21:26:40.044,-0.21,-0.16
21:26:40.048,-0.19,-0.175
21:26:40.052,-0.2,-0.17
21:26:40.056,-0.23,-0.17
21:26:40.060,-0.245,-0.155
21:26:40.064,-0.245,-0.165
21:26:40.068,-0.235,-0.16
21:26:40.072,-0.23,-0.155
21:26:40.076,-0.24,-0.16
21:26:40.080,-0.255,-0.15
21:26:40.084,-0.255,-0.16
21:26:40.088,-0.25,-0.155
21:26:40.092,-0.255,-0.125
21:26:40.096,-0.29,-0.15
21:26:40.100,-0.29,-0.13
21:26:40.104,-0.31,-0.13
21:26:40.108,-0.32,-0.13
21:26:40.112,-0.3,-0.125
21:26:40.116,-0.295,-0.145
21:26:40.120,-0.285,-0.145
21:26:40.124,-0.27,-0.12
21:26:40.128,-0.215,-0.125
21:26:40.132,-0.145,-0.13
21:26:40.136,-0.07,-0.115
21:26:40.140,-0.02,-0.125
21:26:40.144,0.02,-0.145
21:26:40.148,0.055,-0.175
21:26:40.152,0.045,-0.23
21:26:40.156,0.015,-0.22
21:26:40.160,0.0,-0.24
21:26:40.164,0.05,-0.3
21:26:40.168,0.215,-0.385
21:26:40.172,0.545,-0.545
21:26:40.176,0.87,-0.785
21:26:40.180,1.095,-1.05
21:26:40.184,1.09,-1.2
21:26:40.188,0.795,-1.14
21:26:40.192,0.33,-0.84
21:26:40.196,-0.065,-0.455
21:26:40.200,-0.28,-0.16
21:26:40.204,-0.355,-0.02
21:26:40.208,-0.375,0.05
21:26:40.212,-0.395,0.05
21:26:40.216,-0.415,0.055
21:26:40.220,-0.43,0.065
21:26:40.224,-0.42,0.055
21:26:40.228,-0.43,0.025
21:26:40.232,-0.425,0.01
21:26:40.236,-0.425,0.0
21:26:40.240,-0.42,-0.015
21:26:40.244,-0.41,-0.055
21:26:40.248,-0.405,-0.06
21:26:40.252,-0.405,-0.065
21:26:40.256,-0.425,-0.085
21:26:40.260,-0.445,-0.075
21:26:40.264,-0.475,-0.105
21:26:40.268,-0.465,-0.105
21:26:40.272,-0.475,-0.105
21:26:40.276,-0.465,-0.11
21:26:40.280,-0.465,-0.09
21:26:40.284,-0.47,-0.095
21:26:40.288,-0.475,-0.1
21:26:40.292,-0.48,-0.085
21:26:40.296,-0.48,-0.07
21:26:40.300,-0.515,-0.065
21:26:40.304,-0.505,-0.065
21:26:40.308,-0.505,-0.05
21:26:40.312,-0.54,-0.05
21:26:40.316,-0.55,-0.075
21:26:40.320,-0.555,-0.075
21:26:40.324,-0.57,-0.05
21:26:40.328,-0.555,-0.05
21:26:40.332,-0.54,-0.045
21:26:40.336,-0.56,-0.025
21:26:40.340,-0.515,-0.04
21:26:40.344,-0.5,-0.045
21:26:40.348,-0.47,-0.055
21:26:40.352,-0.46,-0.045
21:26:40.356,-0.445,-0.06
21:26:40.360,-0.43,-0.055
21:26:40.364,-0.425,-0.06
21:26:40.368,-0.43,-0.055
21:26:40.372,-0.41,-0.035
21:26:40.376,-0.385,-0.04
21:26:40.380,-0.375,-0.07
21:26:40.384,-0.355,-0.045
21:26:40.388,-0.33,-0.03
21:26:40.392,-0.295,-0.05
21:26:40.396,-0.275,-0.065
21:26:40.400,-0.3,-0.07
21:26:40.404,-0.285,-0.045
21:26:40.408,-0.3,-0.06
21:26:40.412,-0.295,-0.05
21:26:40.416,-0.28,-0.04
21:26:40.420,-0.255,-0.06
21:26:40.424,-0.255,-0.055
21:26:40.428,-0.235,-0.06
21:26:40.432,-0.26,-0.065
21:26:40.436,-0.25,-0.065
21:26:40.440,-0.245,-0.055
21:26:40.444,-0.245,-0.065
21:26:40.448,-0.255,-0.085
21:26:40.452,-0.26,-0.095
21:26:40.456,-0.255,-0.09
21:26:40.460,-0.265,-0.115
21:26:40.464,-0.28,-0.105
21:26:40.468,-0.305,-0.12
21:26:40.472,-0.3,-0.095
21:26:40.476,-0.285,-0.11
21:26:40.480,-0.31,-0.125
21:26:40.484,-0.285,-0.115
21:26:40.488,-0.295,-0.145
21:26:40.492,-0.29,-0.135
21:26:40.496,-0.315,-0.175
21:26:40.500,-0.345,-0.16
21:26:40.504,-0.31,-0.17
21:26:40.508,-0.32,-0.19
21:26:40.512,-0.35,-0.22
21:26:40.516,-0.36,-0.2
21:26:40.520,-0.355,-0.2
21:26:40.524,-0.34,-0.21
21:26:40.528,-0.345,-0.2
21:26:40.532,-0.335,-0.185
21:26:40.536,-0.345,-0.175
21:26:40.540,-0.33,-0.15
21:26:40.544,-0.35,-0.155
21:26:40.548,-0.38,-0.115
21:26:40.552,-0.405,-0.125
21:26:40.556,-0.385,-0.095
21:26:40.560,-0.395,-0.1
21:26:40.564,-0.37,-0.125
21:26:40.568,-0.37,-0.115
21:26:40.572,-0.365,-0.115
21:26:40.576,-0.33,-0.115
21:26:40.580,-0.335,-0.13
21:26:40.584,-0.34,-0.105
21:26:40.588,-0.33,-0.09
21:26:40.592,-0.32,-0.09
21:26:40.596,-0.32,-0.1
21:26:40.600,-0.32,-0.085
21:26:40.604,-0.295,-0.08
21:26:40.608,-0.275,-0.08
21:26:40.612,-0.29,-0.08
21:26:40.616,-0.28,-0.06
21:26:40.620,-0.275,-0.07
21:26:40.624,-0.29,-0.06
21:26:40.628,-0.31,-0.06
21:26:40.632,-0.32,-0.05
21:26:40.636,-0.34,-0.025
21:26:40.640,-0.33,-0.025
21:26:40.644,-0.32,-0.045
21:26:40.648,-0.31,-0.045
21:26:40.652,-0.315,-0.035
21:26:40.656,-0.295,-0.04
21:26:40.660,-0.31,-0.075
21:26:40.664,-0.29,-0.055
21:26:40.668,-0.295,-0.075
21:26:40.672,-0.285,-0.075
21:26:40.676,-0.31,-0.09
21:26:40.680,-0.295,-0.09
21:26:40.684,-0.295,-0.07
21:26:40.688,-0.315,-0.095
21:26:40.692,-0.29,-0.11
21:26:40.696,-0.31,-0.095
21:26:40.700,-0.32,-0.095
21:26:40.704,-0.33,-0.105
21:26:40.708,-0.315,-0.125
21:26:40.712,-0.335,-0.115
21:26:40.716,-0.335,-0.13
21:26:40.720,-0.33,-0.11
21:26:40.724,-0.33,-0.12
21:26:40.728,-0.32,-0.13
21:26:40.732,-0.335,-0.115
21:26:40.736,-0.33,-0.11
21:26:40.740,-0.31,-0.115
21:26:40.744,-0.34,-0.115
21:26:40.748,-0.315,-0.105
21:26:40.752,-0.32,-0.12
21:26:40.756,-0.335,-0.08
21:26:40.760,-0.36,-0.09
21:26:40.764,-0.385,-0.105
21:26:40.768,-0.37,-0.115
21:26:40.772,-0.39,-0.09
21:26:40.776,-0.415,-0.105
21:26:40.780,-0.405,-0.09
21:26:40.784,-0.405,-0.07
21:26:40.788,-0.4,-0.1
21:26:40.792,-0.4,-0.065
21:26:40.796,-0.41,-0.09
21:26:40.800,-0.385,-0.08
21:26:40.804,-0.33,-0.05
21:26:40.808,-0.32,-0.06
21:26:40.812,-0.325,-0.045
21:26:40.816,-0.305,-0.035
21:26:40.820,-0.305,-0.04
21:26:40.824,-0.28,-0.015
21:26:40.828,-0.285,-0.05
21:26:40.832,-0.27,-0.045
21:26:40.836,-0.255,-0.07
21:26:40.840,-0.27,-0.065
21:26:40.844,-0.295,-0.08
21:26:40.848,-0.32,-0.09
21:26:40.852,-0.33,-0.1
21:26:40.856,-0.32,-0.105
21:26:40.860,-0.295,-0.08
21:26:40.864,-0.315,-0.09
21:26:40.868,-0.295,-0.085
21:26:40.872,-0.275,-0.11
21:26:40.876,-0.26,-0.1
21:26:40.880,-0.24,-0.125
21:26:40.884,-0.16,-0.12
21:26:40.888,-0.08,-0.1
21:26:40.892,0.0,-0.135
21:26:40.896,0.07,-0.135
21:26:40.900,0.12,-0.195
21:26:40.904,0.145,-0.195
21:26:40.908,0.15,-0.225
21:26:40.912,0.135,-0.215
21:26:40.916,0.12,-0.25
21:26:40.920,0.145,-0.305
21:26:40.924,0.255,-0.4
21:26:40.928,0.505,-0.58
21:26:40.932,0.795,-0.815
21:26:40.936,1.04,-1.06
21:26:40.940,0.995,-1.2
21:26:40.944,0.665,-1.175
21:26:40.948,0.225,-0.865
21:26:40.952,-0.115,-0.525
21:26:40.956,-0.285,-0.295
21:26:40.960,-0.37,-0.155
21:26:40.964,-0.405,-0.04
21:26:40.968,-0.415,0.015
21:26:40.972,-0.45,0.04
21:26:40.976,-0.475,0.02
21:26:40.980,-0.51,0.025
21:26:40.984,-0.525,0.025
21:26:40.988,-0.52,-0.01
21:26:40.992,-0.55,-0.02
21:26:40.996,-0.565,-0.015
21:26:41.000,-0.565,-0.03
21:26:41.004,-0.575,-0.005
21:26:41.008,-0.58,-0.015
21:26:41.012,-0.595,0.0
21:26:41.016,-0.56,0.0
21:26:41.020,-0.56,0.005
21:26:41.024,-0.54,0.0
21:26:41.028,-0.535,-0.005
21:26:41.032,-0.52,0.0
21:26:41.036,-0.505,0.0
21:26:41.040,-0.48,0.0
21:26:41.044,-0.49,0.0
21:26:41.048,-0.49,0.0
21:26:41.052,-0.485,0.015
21:26:41.056,-0.515,0.025
21:26:41.060,-0.515,0.02
21:26:41.064,-0.515,0.015
21:26:41.068,-0.51,0.035
21:26:41.072,-0.5,0.025
21:26:41.076,-0.51,0.03
21:26:41.080,-0.5,0.035
21:26:41.084,-0.505,0.05
21:26:41.088,-0.51,0.005
21:26:41.092,-0.5,0.005
21:26:41.096,-0.47,0.0
21:26:41.100,-0.48,-0.03
21:26:41.104,-0.485,-0.045
21:26:41.108,-0.5,-0.07
21:26:41.112,-0.505,-0.055
21:26:41.116,-0.505,-0.065
21:26:41.120,-0.5,-0.075
21:26:41.124,-0.5,-0.09
21:26:41.128,-0.49,-0.095
21:26:41.132,-0.505,-0.11
21:26:41.136,-0.48,-0.1
21:26:41.140,-0.49,-0.13
21:26:41.144,-0.455,-0.155
21:26:41.148,-0.48,-0.15
21:26:41.152,-0.475,-0.17
21:26:41.156,-0.465,-0.16
21:26:41.160,-0.47,-0.165
21:26:41.164,-0.49,-0.2
21:26:41.168,-0.44,-0.21
21:26:41.172,-0.455,-0.19
21:26:41.176,-0.45,-0.22
21:26:41.180,-0.42,-0.23
21:26:41.184,-0.385,-0.225
21:26:41.188,-0.385,-0.24
21:26:41.192,-0.395,-0.22
21:26:41.196,-0.375,-0.23
21:26:41.200,-0.36,-0.22
21:26:41.204,-0.375,-0.235
21:26:41.208,-0.385,-0.255
21:26:41.212,-0.36,-0.23
21:26:41.216,-0.37,-0.235
21:26:41.220,-0.375,-0.225
21:26:41.224,-0.38,-0.205
21:26:41.228,-0.39,-0.215
21:26:41.232,-0.415,-0.235
21:26:41.236,-0.42,-0.225
21:26:41.240,-0.455,-0.19
21:26:41.244,-0.445,-0.225
21:26:41.248,-0.425,-0.19
21:26:41.252,-0.395,-0.18
21:26:41.256,-0.37,-0.195
21:26:41.260,-0.34,-0.2
21:26:41.264,-0.33,-0.21
21:26:41.268,-0.33,-0.16
21:26:41.272,-0.35,-0.18
21:26:41.276,-0.36,-0.15
21:26:41.280,-0.345,-0.13
21:26:41.284,-0.355,-0.16
21:26:41.288,-0.345,-0.15
21:26:41.292,-0.35,-0.14
21:26:41.296,-0.34,-0.145
21:26:41.300,-0.34,-0.14
21:26:41.304,-0.33,-0.125
21:26:41.308,-0.31,-0.14
21:26:41.312,-0.265,-0.13
21:26:41.316,-0.18,-0.135
21:26:41.320,-0.09,-0.155
21:26:41.324,-0.01,-0.16
21:26:41.328,0.07,-0.2
21:26:41.332,0.095,-0.235
21:26:41.336,0.09,-0.285
21:26:41.340,0.125,-0.29
21:26:41.344,0.1,-0.275
21:26:41.348,0.12,-0.325
21:26:41.352,0.26,-0.395
21:26:41.356,0.515,-0.53
21:26:41.360,0.8,-0.78
21:26:41.364,1.005,-1.065
21:26:41.368,0.99,-1.265
21:26:41.372,0.695,-1.275
21:26:41.376,0.255,-1.045
21:26:41.380,-0.09,-0.75
21:26:41.384,-0.28,-0.515
21:26:41.388,-0.345,-0.385
21:26:41.392,-0.37,-0.295
21:26:41.396,-0.405,-0.265
21:26:41.400,-0.46,-0.255
21:26:41.404,-0.465,-0.26
21:26:41.408,-0.515,-0.28
21:26:41.412,-0.495,-0.305
21:26:41.416,-0.515,-0.31
21:26:41.420,-0.53,-0.33
21:26:41.424,-0.5,-0.35
21:26:41.428,-0.515,-0.365
21:26:41.432,-0.525,-0.355
21:26:41.436,-0.54,-0.345
21:26:41.440,-0.53,-0.355
21:26:41.444,-0.52,-0.345
21:26:41.448,-0.54,-0.34
21:26:41.452,-0.565,-0.355
21:26:41.456,-0.57,-0.35
21:26:41.460,-0.595,-0.37
21:26:41.464,-0.615,-0.365
21:26:41.468,-0.635,-0.36
21:26:41.472,-0.655,-0.345
21:26:41.476,-0.65,-0.37
21:26:41.480,-0.675,-0.365
21:26:41.484,-0.68,-0.37
21:26:41.488,-0.71,-0.4
21:26:41.492,-0.68,-0.405
21:26:41.496,-0.68,-0.375
21:26:41.500,-0.69,-0.4
21:26:41.504,-0.66,-0.375
21:26:41.508,-0.65,-0.365
21:26:41.512,-0.61,-0.335
21:26:41.516,-0.61,-0.355
21:26:41.520,-0.615,-0.35
21:26:41.524,-0.595,-0.345
21:26:41.528,-0.595,-0.325
21:26:41.532,-0.61,-0.315
21:26:41.536,-0.63,-0.35
21:26:41.540,-0.61,-0.335
21:26:41.544,-0.57,-0.315
21:26:41.548,-0.55,-0.315
21:26:41.552,-0.53,-0.345
21:26:41.556,-0.485,-0.355
21:26:41.560,-0.48,-0.395
21:26:41.564,-0.445,-0.415
21:26:41.568,-0.445,-0.41
21:26:41.572,-0.42,-0.435
21:26:41.576,-0.41,-0.46
21:26:41.580,-0.41,-0.46
21:26:41.584,-0.39,-0.47
21:26:41.588,-0.385,-0.48
21:26:41.592,-0.38,-0.505
21:26:41.596,-0.385,-0.465
21:26:41.600,-0.375,-0.495
21:26:41.604,-0.37,-0.505
21:26:41.608,-0.345,-0.525
21:26:41.612,-0.35,-0.52
21:26:41.616,-0.335,-0.51
21:26:41.620,-0.345,-0.5
21:26:41.624,-0.335,-0.53
21:26:41.628,-0.305,-0.5
21:26:41.632,-0.315,-0.51
21:26:41.636,-0.315,-0.505
21:26:41.640,-0.315,-0.515
21:26:41.644,-0.305,-0.51
21:26:41.648,-0.305,-0.495
21:26:41.652,-0.32,-0.495
21:26:41.656,-0.32,-0.48
21:26:41.660,-0.325,-0.465
21:26:41.664,-0.335,-0.5
21:26:41.668,-0.34,-0.49
21:26:41.672,-0.355,-0.485
21:26:41.676,-0.355,-0.48
21:26:41.680,-0.4,-0.465
21:26:41.684,-0.44,-0.46
21:26:41.688,-0.49,-0.465
21:26:41.692,-0.475,-0.47
21:26:41.696,-0.43,-0.46
21:26:41.700,-0.415,-0.47
21:26:41.704,-0.415,-0.45
21:26:41.708,-0.41,-0.445
21:26:41.712,-0.43,-0.455
21:26:41.716,-0.445,-0.445
21:26:41.720,-0.445,-0.445
21:26:41.724,-0.455,-0.46
21:26:41.728,-0.445,-0.45
21:26:41.732,-0.455,-0.44
21:26:41.736,-0.455,-0.44
21:26:41.740,-0.43,-0.44
21:26:41.744,-0.41,-0.43
21:26:41.748,-0.38,-0.44
21:26:41.752,-0.35,-0.39
21:26:41.756,-0.335,-0.38
21:26:41.760,-0.31,-0.39
21:26:41.764,-0.33,-0.37
21:26:41.768,-0.325,-0.365
21:26:41.772,-0.32,-0.35
21:26:41.776,-0.35,-0.325
21:26:41.780,-0.35,-0.305
21:26:41.784,-0.33,-0.305
21:26:41.788,-0.33,-0.3
21:26:41.792,-0.34,-0.31
21:26:41.796,-0.35,-0.3
21:26:41.800,-0.345,-0.295
21:26:41.804,-0.32,-0.295
21:26:41.808,-0.31,-0.295
21:26:41.812,-0.295,-0.31
21:26:41.816,-0.28,-0.285
21:26:41.820,-0.265,-0.295
21:26:41.824,-0.29,-0.325
21:26:41.828,-0.29,-0.32
21:26:41.832,-0.325,-0.32
21:26:41.836,-0.295,-0.335
21:26:41.840,-0.315,-0.32
21:26:41.844,-0.31,-0.335
21:26:41.848,-0.315,-0.34
21:26:41.852,-0.31,-0.315
21:26:41.856,-0.3,-0.33
21:26:41.860,-0.31,-0.32
21:26:41.864,-0.32,-0.315
21:26:41.868,-0.31,-0.32
21:26:41.872,-0.305,-0.305
21:26:41.876,-0.315,-0.315
21:26:41.880,-0.315,-0.29
21:26:41.884,-0.3,-0.285
21:26:41.888,-0.3,-0.295
21:26:41.892,-0.325,-0.305
21:26:41.896,-0.33,-0.285
21:26:41.900,-0.31,-0.28
21:26:41.904,-0.31,-0.28
21:26:41.908,-0.305,-0.27
21:26:41.912,-0.32,-0.265
21:26:41.916,-0.32,-0.25
21:26:41.920,-0.345,-0.245
21:26:41.924,-0.335,-0.24
21:26:41.928,-0.34,-0.25
21:26:41.932,-0.37,-0.225
21:26:41.936,-0.33,-0.255
21:26:41.940,-0.345,-0.26
21:26:41.944,-0.375,-0.24
21:26:41.948,-0.37,-0.24
21:26:41.952,-0.39,-0.25
21:26:41.956,-0.39,-0.235
21:26:41.960,-0.4,-0.25
21:26:41.964,-0.41,-0.25
21:26:41.968,-0.385,-0.235
21:26:41.972,-0.395,-0.235
21:26:41.976,-0.345,-0.26
21:26:41.980,-0.335,-0.24
21:26:41.984,-0.29,-0.245
21:26:41.988,-0.265,-0.235
21:26:41.992,-0.245,-0.22
21:26:41.996,-0.235,-0.225
21:26:42.000,-0.205,-0.2
21:26:42.004,-0.2,-0.2
21:26:42.008,-0.2,-0.16
21:26:42.012,-0.21,-0.15
21:26:42.016,-0.215,-0.135
21:26:42.020,-0.23,-0.12
21:26:42.024,-0.22,-0.13
21:26:42.028,-0.23,-0.13
21:26:42.032,-0.235,-0.145
21:26:42.036,-0.245,-0.145
21:26:42.040,-0.225,-0.15
21:26:42.044,-0.24,-0.145
21:26:42.048,-0.225,-0.145
21:26:42.052,-0.21,-0.175
21:26:42.056,-0.19,-0.17
21:26:42.060,-0.185,-0.16
21:26:42.064,-0.185,-0.185
21:26:42.068,-0.175,-0.2
21:26:42.072,-0.17,-0.225
21:26:42.076,-0.175,-0.215
21:26:42.080,-0.18,-0.26
21:26:42.084,-0.175,-0.27
21:26:42.088,-0.16,-0.245
21:26:42.092,-0.16,-0.275
21:26:42.096,-0.175,-0.275
21:26:42.100,-0.16,-0.27
21:26:42.104,-0.17,-0.28
21:26:42.108,-0.17,-0.25
21:26:42.112,-0.17,-0.235
21:26:42.116,-0.18,-0.265
21:26:42.120,-0.16,-0.255
21:26:42.124,-0.2,-0.225
21:26:42.128,-0.185,-0.22
21:26:42.132,-0.18,-0.23
21:26:42.136,-0.195,-0.24
21:26:42.140,-0.195,-0.225
21:26:42.144,-0.2,-0.23
21:26:42.148,-0.205,-0.235
21:26:42.152,-0.175,-0.22
21:26:42.156,-0.14,-0.215
21:26:42.160,-0.155,-0.205
21:26:42.164,-0.095,-0.215
21:26:42.168,-0.04,-0.2
21:26:42.172,0.0,-0.225
21:26:42.176,0.08,-0.24
21:26:42.180,0.135,-0.22
21:26:42.184,0.15,-0.27
21:26:42.188,0.145,-0.32
21:26:42.192,0.18,-0.32
21:26:42.196,0.16,-0.32
21:26:42.200,0.16,-0.37
21:26:42.204,0.21,-0.465
21:26:42.208,0.415,-0.585
21:26:42.212,0.74,-0.77
21:26:42.216,1.065,-1.015
21:26:42.220,1.245,-1.195
21:26:42.224,1.18,-1.265
21:26:42.228,0.82,-1.12
21:26:42.232,0.325,-0.785
21:26:42.236,0.01,-0.44
21:26:42.240,-0.135,-0.2
21:26:42.244,-0.195,-0.08
21:26:42.248,-0.19,0.015
21:26:42.252,-0.205,0.06
21:26:42.256,-0.23,0.05
21:26:42.260,-0.23,0.045
21:26:42.264,-0.24,0.05
21:26:42.268,-0.265,0.02
21:26:42.272,-0.28,0.02
21:26:42.276,-0.3,-0.01
21:26:42.280,-0.295,0.01
21:26:42.284,-0.3,0.0
21:26:42.288,-0.29,-0.035
21:26:42.292,-0.285,-0.035
21:26:42.296,-0.265,-0.055
21:26:42.300,-0.26,-0.05
21:26:42.304,-0.25,-0.09
21:26:42.308,-0.265,-0.115
21:26:42.312,-0.26,-0.105
21:26:42.316,-0.25,-0.145
21:26:42.320,-0.255,-0.17
21:26:42.324,-0.26,-0.165
21:26:42.328,-0.28,-0.18
21:26:42.332,-0.275,-0.16
21:26:42.336,-0.27,-0.13
21:26:42.340,-0.285,-0.14
21:26:42.344,-0.285,-0.155
21:26:42.348,-0.285,-0.15
21:26:42.352,-0.3,-0.125
21:26:42.356,-0.285,-0.13
21:26:42.360,-0.265,-0.12
21:26:42.364,-0.28,-0.1
21:26:42.368,-0.305,-0.115
21:26:42.372,-0.335,-0.12
21:26:42.376,-0.33,-0.1
21:26:42.380,-0.325,-0.095
21:26:42.384,-0.34,-0.09
21:26:42.388,-0.35,-0.085
21:26:42.392,-0.36,-0.08
21:26:42.396,-0.385,-0.08
21:26:42.400,-0.38,-0.1
21:26:42.404,-0.38,-0.095
21:26:42.408,-0.39,-0.11
21:26:42.412,-0.37,-0.1
21:26:42.416,-0.38,-0.105
21:26:42.420,-0.39,-0.12
21:26:42.424,-0.385,-0.115
21:26:42.428,-0.33,-0.135
21:26:42.432,-0.32,-0.135
21:26:42.436,-0.32,-0.13
21:26:42.440,-0.325,-0.13
21:26:42.444,-0.295,-0.155
21:26:42.448,-0.27,-0.125
21:26:42.452,-0.23,-0.115
21:26:42.456,-0.255,-0.105
21:26:42.460,-0.255,-0.12
21:26:42.464,-0.255,-0.095
21:26:42.468,-0.245,-0.085
21:26:42.472,-0.235,-0.09
21:26:42.476,-0.245,-0.095
21:26:42.480,-0.215,-0.11
21:26:42.484,-0.22,-0.11
21:26:42.488,-0.235,-0.12
21:26:42.492,-0.24,-0.14
21:26:42.496,-0.23,-0.12
21:26:42.500,-0.255,-0.14
21:26:42.504,-0.28,-0.15
21:26:42.508,-0.26,-0.15
21:26:42.512,-0.26,-0.155
21:26:42.516,-0.275,-0.18
21:26:42.520,-0.275,-0.18
21:26:42.524,-0.24,-0.18
21:26:42.528,-0.255,-0.205
21:26:42.532,-0.275,-0.21
21:26:42.536,-0.245,-0.23
21:26:42.540,-0.26,-0.225
21:26:42.544,-0.24,-0.22
21:26:42.548,-0.26,-0.22
21:26:42.552,-0.27,-0.245
21:26:42.556,-0.255,-0.245
21:26:42.560,-0.24,-0.225
21:26:42.564,-0.255,-0.215
21:26:42.568,-0.255,-0.235
21:26:42.572,-0.255,-0.23
21:26:42.576,-0.255,-0.225
21:26:42.580,-0.255,-0.23
21:26:42.584,-0.265,-0.215
21:26:42.588,-0.275,-0.205
21:26:42.592,-0.28,-0.19
21:26:42.596,-0.29,-0.185
21:26:42.600,-0.295,-0.175
21:26:42.604,-0.305,-0.18
21:26:42.608,-0.31,-0.185
21:26:42.612,-0.3,-0.175
21:26:42.616,-0.31,-0.16
21:26:42.620,-0.31,-0.19
21:26:42.624,-0.285,-0.16
21:26:42.628,-0.3,-0.155
21:26:42.632,-0.325,-0.175
21:26:42.636,-0.325,-0.175
21:26:42.640,-0.35,-0.155
21:26:42.644,-0.34,-0.17
21:26:42.648,-0.32,-0.17
21:26:42.652,-0.335,-0.17
21:26:42.656,-0.32,-0.175
21:26:42.660,-0.28,-0.16
21:26:42.664,-0.295,-0.16
21:26:42.668,-0.29,-0.17
21:26:42.672,-0.27,-0.17
21:26:42.676,-0.25,-0.175
21:26:42.680,-0.275,-0.155
21:26:42.684,-0.275,-0.12
21:26:42.688,-0.255,-0.125
21:26:42.692,-0.24,-0.125
21:26:42.696,-0.24,-0.12
21:26:42.700,-0.245,-0.12
21:26:42.704,-0.255,-0.1
21:26:42.708,-0.235,-0.12
21:26:42.712,-0.23,-0.08
21:26:42.716,-0.27,-0.09
21:26:42.720,-0.255,-0.09
21:26:42.724,-0.275,-0.08
21:26:42.728,-0.275,-0.07
21:26:42.732,-0.315,-0.08
21:26:42.736,-0.32,-0.105
21:26:42.740,-0.3,-0.08
21:26:42.744,-0.29,-0.075
21:26:42.748,-0.31,-0.08
21:26:42.752,-0.325,-0.085
21:26:42.756,-0.28,-0.095
21:26:42.760,-0.225,-0.11
21:26:42.764,-0.18,-0.125
21:26:42.768,-0.095,-0.155
21:26:42.772,-0.045,-0.195
21:26:42.776,0.025,-0.225
21:26:42.780,0.045,-0.235
21:26:42.784,0.08,-0.26
21:26:42.788,0.075,-0.305
21:26:42.792,0.065,-0.295
21:26:42.796,0.02,-0.34
21:26:42.800,0.06,-0.395
21:26:42.804,0.25,-0.465
21:26:42.808,0.515,-0.655
21:26:42.812,0.81,-0.905
21:26:42.816,0.96,-1.13
21:26:42.820,0.845,-1.235
21:26:42.824,0.465,-1.13
21:26:42.828,0.005,-0.805
21:26:42.832,-0.32,-0.485
21:26:42.836,-0.425,-0.265
21:26:42.840,-0.465,-0.155
21:26:42.844,-0.49,-0.055
21:26:42.848,-0.47,-0.02
21:26:42.852,-0.465,0.0
21:26:42.856,-0.47,0.02
21:26:42.860,-0.48,0.015
21:26:42.864,-0.485,0.0
21:26:42.868,-0.485,-0.01
21:26:42.872,-0.48,-0.01
21:26:42.876,-0.44,-0.03
21:26:42.880,-0.47,-0.01
21:26:42.884,-0.45,-0.02
21:26:42.888,-0.435,-0.01
21:26:42.892,-0.425,-0.01
21:26:42.896,-0.42,0.0
21:26:42.900,-0.41,0.0
21:26:42.904,-0.45,0.015
21:26:42.908,-0.46,0.015
21:26:42.912,-0.48,0.025
21:26:42.916,-0.475,0.025
21:26:42.920,-0.445,0.005
21:26:42.924,-0.44,0.02
21:26:42.928,-0.455,0.015
21:26:42.932,-0.455,0.04
21:26:42.936,-0.48,0.03
21:26:42.940,-0.49,0.035
21:26:42.944,-0.505,0.035
21:26:42.948,-0.515,0.025
21:26:42.952,-0.49,0.03
21:26:42.956,-0.51,0.03
21:26:42.960,-0.51,0.035
21:26:42.964,-0.51,0.045
21:26:42.968,-0.495,0.04
21:26:42.972,-0.53,0.04
21:26:42.976,-0.54,0.045
21:26:42.980,-0.53,0.04
21:26:42.984,-0.51,0.03
21:26:42.988,-0.505,0.03
21:26:42.992,-0.465,0.025
21:26:42.996,-0.44,0.015
21:26:43.000,-0.435,0.005
21:26:43.004,-0.455,0.005
21:26:43.008,-0.445,-0.01
21:26:43.012,-0.425,-0.015
21:26:43.016,-0.435,-0.025
21:26:43.020,-0.435,-0.05
21:26:43.024,-0.465,-0.02
21:26:43.028,-0.465,-0.045
21:26:43.032,-0.435,-0.065
21:26:43.036,-0.43,-0.08
21:26:43.040,-0.435,-0.08
21:26:43.044,-0.45,-0.08
21:26:43.048,-0.445,-0.08
21:26:43.052,-0.43,-0.085
21:26:43.056,-0.42,-0.055
21:26:43.060,-0.41,-0.08
21:26:43.064,-0.375,-0.085
21:26:43.068,-0.365,-0.08
21:26:43.072,-0.35,-0.07
21:26:43.076,-0.345,-0.045
21:26:43.080,-0.33,-0.03
21:26:43.084,-0.325,-0.075
21:26:43.088,-0.355,-0.075
21:26:43.092,-0.35,-0.065
21:26:43.096,-0.33,-0.08
21:26:43.100,-0.3,-0.045
21:26:43.104,-0.295,-0.045
21:26:43.108,-0.315,-0.045
21:26:43.112,-0.27,-0.05
21:26:43.116,-0.24,-0.015
21:26:43.120,-0.24,0.005
21:26:43.124,-0.235,-0.01
21:26:43.128,-0.23,0.025
21:26:43.132,-0.21,0.0
21:26:43.136,-0.22,0.02
21:26:43.140,-0.235,0.01
21:26:43.144,-0.22,0.02
21:26:43.148,-0.205,0.025
21:26:43.152,-0.235,0.03
21:26:43.156,-0.255,0.025
21:26:43.160,-0.26,0.05
21:26:43.164,-0.265,0.04
21:26:43.168,-0.27,0.055
21:26:43.172,-0.275,0.035
21:26:43.176,-0.275,0.055
21:26:43.180,-0.27,0.06
21:26:43.184,-0.29,0.055
21:26:43.188,-0.31,0.06
21:26:43.192,-0.315,0.05
21:26:43.196,-0.32,0.05
21:26:43.200,-0.3,0.055
21:26:43.204,-0.33,0.055
21:26:43.208,-0.345,0.03
21:26:43.212,-0.315,0.03
21:26:43.216,-0.29,0.03
21:26:43.220,-0.28,0.015
21:26:43.224,-0.27,0.01
21:26:43.228,-0.275,0.0
21:26:43.232,-0.27,0.005
21:26:43.236,-0.28,-0.02
21:26:43.240,-0.27,-0.01
21:26:43.244,-0.285,-0.03
21:26:43.248,-0.305,-0.02
21:26:43.252,-0.3,-0.045
21:26:43.256,-0.32,-0.02
21:26:43.260,-0.35,-0.025
21:26:43.264,-0.355,-0.015
21:26:43.268,-0.355,-0.045
21:26:43.272,-0.35,-0.02
21:26:43.276,-0.36,-0.05
21:26:43.280,-0.37,-0.02
21:26:43.284,-0.4,-0.02
21:26:43.288,-0.415,-0.04
21:26:43.292,-0.425,-0.045
21:26:43.296,-0.395,-0.05
21:26:43.300,-0.395,-0.06
21:26:43.304,-0.4,-0.075
21:26:43.308,-0.405,-0.06
21:26:43.312,-0.405,-0.06
21:26:43.316,-0.41,-0.065
21:26:43.320,-0.41,-0.08
21:26:43.324,-0.4,-0.085
21:26:43.328,-0.4,-0.07
21:26:43.332,-0.395,-0.07
21:26:43.336,-0.39,-0.055
21:26:43.340,-0.39,-0.065
21:26:43.344,-0.385,-0.045
21:26:43.348,-0.36,-0.025
21:26:43.352,-0.355,-0.035
21:26:43.356,-0.335,-0.04
21:26:43.360,-0.33,-0.03
21:26:43.364,-0.33,-0.025
21:26:43.368,-0.34,-0.015
21:26:43.372,-0.325,-0.005
21:26:43.376,-0.305,-0.01
21:26:43.380,-0.32,0.015
21:26:43.384,-0.315,0.015
21:26:43.388,-0.305,0.01
21:26:43.392,-0.305,0.0
21:26:43.396,-0.32,0.01
21:26:43.400,-0.32,0.005
21:26:43.404,-0.335,0.01
21:26:43.408,-0.35,0.005
21:26:43.412,-0.35,0.015
21:26:43.416,-0.33,-0.005
21:26:43.420,-0.345,-0.01
21:26:43.424,-0.35,-0.005
21:26:43.428,-0.34,0.0
21:26:43.432,-0.33,-0.035
21:26:43.436,-0.3,-0.035
21:26:43.440,-0.245,-0.04
21:26:43.444,-0.185,-0.04
21:26:43.448,-0.1,-0.045
21:26:43.452,-0.025,-0.105
21:26:43.456,0.02,-0.16
21:26:43.460,0.05,-0.2
21:26:43.464,0.09,-0.21
21:26:43.468,0.1,-0.235
21:26:43.472,0.1,-0.235
21:26:43.476,0.08,-0.27
21:26:43.480,0.105,-0.325
21:26:43.484,0.25,-0.43
21:26:43.488,0.53,-0.62
21:26:43.492,0.815,-0.865
21:26:43.496,0.935,-1.07
21:26:43.500,0.785,-1.145
21:26:43.504,0.375,-1.05
21:26:43.508,-0.07,-0.71
21:26:43.512,-0.34,-0.395
21:26:43.516,-0.46,-0.22
21:26:43.520,-0.49,-0.12
21:26:43.524,-0.495,-0.03
21:26:43.528,-0.525,0.0
21:26:43.532,-0.555,0.01
21:26:43.536,-0.565,0.005
21:26:43.540,-0.585,-0.025
21:26:43.544,-0.595,-0.055
21:26:43.548,-0.625,-0.065
21:26:43.552,-0.61,-0.07
21:26:43.556,-0.585,-0.055
21:26:43.560,-0.58,-0.07
21:26:43.564,-0.585,-0.045
21:26:43.568,-0.595,-0.06
21:26:43.572,-0.595,-0.06
21:26:43.576,-0.58,-0.055
21:26:43.580,-0.57,-0.075
21:26:43.584,-0.57,-0.06
21:26:43.588,-0.565,-0.075
21:26:43.592,-0.56,-0.07
21:26:43.596,-0.57,-0.07
21:26:43.600,-0.57,-0.075
21:26:43.604,-0.555,-0.08
21:26:43.608,-0.53,-0.085
21:26:43.612,-0.54,-0.1
21:26:43.616,-0.56,-0.1
21:26:43.620,-0.575,-0.08
21:26:43.624,-0.55,-0.095
21:26:43.628,-0.57,-0.09
21:26:43.632,-0.57,-0.12
21:26:43.636,-0.57,-0.12
21:26:43.640,-0.55,-0.12
21:26:43.644,-0.535,-0.135
21:26:43.648,-0.54,-0.13
21:26:43.652,-0.57,-0.15
21:26:43.656,-0.59,-0.16
21:26:43.660,-0.59,-0.17
21:26:43.664,-0.58,-0.215
21:26:43.668,-0.6,-0.21
21:26:43.672,-0.595,-0.23
21:26:43.676,-0.56,-0.235
21:26:43.680,-0.54,-0.23
21:26:43.684,-0.555,-0.26
21:26:43.688,-0.56,-0.3
21:26:43.692,-0.58,-0.28
21:26:43.696,-0.58,-0.295
21:26:43.700,-0.595,-0.28
21:26:43.704,-0.61,-0.28
21:26:43.708,-0.625,-0.29
21:26:43.712,-0.61,-0.3
21:26:43.716,-0.605,-0.32
21:26:43.720,-0.58,-0.315
21:26:43.724,-0.595,-0.315
21:26:43.728,-0.585,-0.32
21:26:43.732,-0.585,-0.32
21:26:43.736,-0.585,-0.315
21:26:43.740,-0.54,-0.32
21:26:43.744,-0.5,-0.33
21:26:43.748,-0.51,-0.37
21:26:43.752,-0.505,-0.355
21:26:43.756,-0.49,-0.34
21:26:43.760,-0.47,-0.385
21:26:43.764,-0.46,-0.355
21:26:43.768,-0.455,-0.345
21:26:43.772,-0.45,-0.345
21:26:43.776,-0.43,-0.325
21:26:43.780,-0.41,-0.31
21:26:43.784,-0.39,-0.32
21:26:43.788,-0.385,-0.335
21:26:43.792,-0.37,-0.325
21:26:43.796,-0.36,-0.32
21:26:43.800,-0.365,-0.315
21:26:43.804,-0.385,-0.32
21:26:43.808,-0.375,-0.3
21:26:43.812,-0.375,-0.31
21:26:43.816,-0.38,-0.305
21:26:43.820,-0.355,-0.29
21:26:43.824,-0.355,-0.275
21:26:43.828,-0.35,-0.305
21:26:43.832,-0.345,-0.315
21:26:43.836,-0.375,-0.315
21:26:43.840,-0.395,-0.355
21:26:43.844,-0.35,-0.345
21:26:43.848,-0.35,-0.36
21:26:43.852,-0.315,-0.365
21:26:43.856,-0.315,-0.37
21:26:43.860,-0.325,-0.37
21:26:43.864,-0.345,-0.4
21:26:43.868,-0.36,-0.395
21:26:43.872,-0.375,-0.37
21:26:43.876,-0.39,-0.37
21:26:43.880,-0.405,-0.35
21:26:43.884,-0.425,-0.345
21:26:43.888,-0.405,-0.355
21:26:43.892,-0.405,-0.37
21:26:43.896,-0.42,-0.36
21:26:43.900,-0.43,-0.37
21:26:43.904,-0.42,-0.39
21:26:43.908,-0.45,-0.41
21:26:43.912,-0.445,-0.385
21:26:43.916,-0.48,-0.4
21:26:43.920,-0.48,-0.41
21:26:43.924,-0.5,-0.435
21:26:43.928,-0.51,-0.415
21:26:43.932,-0.5,-0.43
21:26:43.936,-0.485,-0.405
21:26:43.940,-0.47,-0.41
21:26:43.944,-0.485,-0.42
21:26:43.948,-0.49,-0.43
21:26:43.952,-0.495,-0.435
21:26:43.956,-0.49,-0.455
21:26:43.960,-0.53,-0.455
21:26:43.964,-0.525,-0.455
21:26:43.968,-0.53,-0.46
21:26:43.972,-0.54,-0.46
21:26:43.976,-0.545,-0.44
21:26:43.980,-0.55,-0.435
21:26:43.984,-0.535,-0.445
21:26:43.988,-0.53,-0.42
21:26:43.992,-0.505,-0.45
21:26:43.996,-0.49,-0.45
21:26:44.000,-0.485,-0.46
21:26:44.004,-0.46,-0.455
21:26:44.008,-0.47,-0.45
21:26:44.012,-0.43,-0.46
21:26:44.016,-0.4,-0.45
21:26:44.020,-0.375,-0.45
21:26:44.024,-0.365,-0.44
21:26:44.028,-0.3,-0.43
21:26:44.032,-0.21,-0.42
21:26:44.036,-0.125,-0.45
21:26:44.040,-0.035,-0.485
21:26:44.044,0.06,-0.52
21:26:44.048,0.155,-0.575
21:26:44.052,0.23,-0.585
21:26:44.056,0.285,-0.59
21:26:44.060,0.29,-0.585
21:26:44.064,0.29,-0.625
21:26:44.068,0.355,-0.67
21:26:44.072,0.565,-0.815
21:26:44.076,0.855,-0.97
21:26:44.080,1.035,-1.195
21:26:44.084,1.02,-1.375
21:26:44.088,0.675,-1.385
21:26:44.092,0.185,-1.215
21:26:44.096,-0.16,-0.915
21:26:44.100,-0.335,-0.73
21:26:44.104,-0.395,-0.61
21:26:44.108,-0.45,-0.51
21:26:44.112,-0.47,-0.445
21:26:44.116,-0.48,-0.395
21:26:44.120,-0.535,-0.375
21:26:44.124,-0.565,-0.38
21:26:44.128,-0.57,-0.4
21:26:44.132,-0.58,-0.43
21:26:44.136,-0.59,-0.45
21:26:44.140,-0.58,-0.455
21:26:44.144,-0.58,-0.44
21:26:44.148,-0.6,-0.435
21:26:44.152,-0.585,-0.43
21:26:44.156,-0.62,-0.455
21:26:44.160,-0.62,-0.46
21:26:44.164,-0.62,-0.455
21:26:44.168,-0.63,-0.445
21:26:44.172,-0.64,-0.41
21:26:44.176,-0.64,-0.44
21:26:44.180,-0.64,-0.435
21:26:44.184,-0.665,-0.44
21:26:44.188,-0.66,-0.425
21:26:44.192,-0.66,-0.43
21:26:44.196,-0.665,-0.4
21:26:44.200,-0.7,-0.415
21:26:44.204,-0.71,-0.42
21:26:44.208,-0.73,-0.41
21:26:44.212,-0.725,-0.385
21:26:44.216,-0.695,-0.4
21:26:44.220,-0.705,-0.375
21:26:44.224,-0.69,-0.35
21:26:44.228,-0.65,-0.36
21:26:44.232,-0.635,-0.36
21:26:44.236,-0.64,-0.34
21:26:44.240,-0.635,-0.345
21:26:44.244,-0.615,-0.31
21:26:44.248,-0.63,-0.295
21:26:44.252,-0.61,-0.285
21:26:44.256,-0.595,-0.255
21:26:44.260,-0.585,-0.23
21:26:44.264,-0.585,-0.22
21:26:44.268,-0.56,-0.235
21:26:44.272,-0.535,-0.26
21:26:44.276,-0.5,-0.25
21:26:44.280,-0.485,-0.25
21:26:44.284,-0.455,-0.245
21:26:44.288,-0.455,-0.24
21:26:44.292,-0.405,-0.28
21:26:44.296,-0.43,-0.28
21:26:44.300,-0.41,-0.28
21:26:44.304,-0.39,-0.27
21:26:44.308,-0.39,-0.28
21:26:44.312,-0.405,-0.265
21:26:44.316,-0.42,-0.275
21:26:44.320,-0.4,-0.28
21:26:44.324,-0.405,-0.28
21:26:44.328,-0.4,-0.27
21:26:44.332,-0.405,-0.27
21:26:44.336,-0.39,-0.26
21:26:44.340,-0.405,-0.26
21:26:44.344,-0.375,-0.255
21:26:44.348,-0.4,-0.245
21:26:44.352,-0.41,-0.26
21:26:44.356,-0.41,-0.23
21:26:44.360,-0.4,-0.235
21:26:44.364,-0.405,-0.22
21:26:44.368,-0.405,-0.22
21:26:44.372,-0.405,-0.21
21:26:44.376,-0.4,-0.21
21:26:44.380,-0.41,-0.21
21:26:44.384,-0.4,-0.205
21:26:44.388,-0.405,-0.2
21:26:44.392,-0.385,-0.18
21:26:44.396,-0.37,-0.18
21:26:44.400,-0.395,-0.17
21:26:44.404,-0.395,-0.155
21:26:44.408,-0.425,-0.165
21:26:44.412,-0.445,-0.16
21:26:44.416,-0.465,-0.13
21:26:44.420,-0.445,-0.13
21:26:44.424,-0.45,-0.125
21:26:44.428,-0.43,-0.11
21:26:44.432,-0.44,-0.12
21:26:44.436,-0.43,-0.095
21:26:44.440,-0.425,-0.105
21:26:44.444,-0.43,-0.11
21:26:44.448,-0.41,-0.115
21:26:44.452,-0.41,-0.08
21:26:44.456,-0.39,-0.1
21:26:44.460,-0.4,-0.095
21:26:44.464,-0.4,-0.075
21:26:44.468,-0.405,-0.06
21:26:44.472,-0.385,-0.06
21:26:44.476,-0.38,-0.04
21:26:44.480,-0.375,-0.005
21:26:44.484,-0.355,0.0
21:26:44.488,-0.35,0.015
21:26:44.492,-0.35,0.005
21:26:44.496,-0.36,0.03
21:26:44.500,-0.34,0.0
21:26:44.504,-0.32,0.005
21:26:44.508,-0.35,0.0
21:26:44.512,-0.365,-0.005
21:26:44.516,-0.335,0.0
21:26:44.520,-0.33,-0.015
21:26:44.524,-0.345,-0.02
21:26:44.528,-0.37,-0.025
21:26:44.532,-0.38,-0.01
21:26:44.536,-0.36,-0.01
21:26:44.540,-0.38,-0.04
21:26:44.544,-0.39,-0.05
21:26:44.548,-0.41,-0.04
21:26:44.552,-0.39,-0.045
21:26:44.556,-0.4,-0.04
21:26:44.560,-0.37,-0.045
21:26:44.564,-0.325,-0.045
21:26:44.568,-0.26,-0.065
21:26:44.572,-0.17,-0.065
21:26:44.576,-0.08,-0.09
21:26:44.580,-0.01,-0.11
21:26:44.584,0.03,-0.155
21:26:44.588,0.09,-0.18
21:26:44.592,0.125,-0.165
21:26:44.596,0.11,-0.175
21:26:44.600,0.105,-0.215
21:26:44.604,0.185,-0.3
21:26:44.608,0.42,-0.43
21:26:44.612,0.715,-0.64
21:26:44.616,0.93,-0.905
21:26:44.620,0.955,-1.075
21:26:44.624,0.64,-1.11
21:26:44.628,0.145,-0.88
21:26:44.632,-0.255,-0.52
21:26:44.636,-0.435,-0.27
21:26:44.640,-0.505,-0.11
21:26:44.644,-0.515,-0.005
21:26:44.648,-0.545,0.065
21:26:44.652,-0.56,0.115
21:26:44.656,-0.56,0.13
21:26:44.660,-0.58,0.145
21:26:44.664,-0.565,0.14
21:26:44.668,-0.535,0.13
21:26:44.672,-0.565,0.125
21:26:44.676,-0.555,0.075
21:26:44.680,-0.56,0.12
21:26:44.684,-0.54,0.1
21:26:44.688,-0.55,0.125
21:26:44.692,-0.555,0.14
21:26:44.696,-0.55,0.175
21:26:44.700,-0.545,0.18
21:26:44.704,-0.535,0.165
21:26:44.708,-0.515,0.2
21:26:44.712,-0.52,0.205
21:26:44.716,-0.52,0.195
21:26:44.720,-0.515,0.19
21:26:44.724,-0.535,0.195
21:26:44.728,-0.535,0.185
21:26:44.732,-0.515,0.195
21:26:44.736,-0.535,0.2
21:26:44.740,-0.53,0.185
21:26:44.744,-0.54,0.205
21:26:44.748,-0.565,0.22
21:26:44.752,-0.57,0.18
21:26:44.756,-0.57,0.17
21:26:44.760,-0.59,0.16
21:26:44.764,-0.61,0.15
21:26:44.768,-0.59,0.145
21:26:44.772,-0.595,0.15
21:26:44.776,-0.62,0.15
21:26:44.780,-0.615,0.155
21:26:44.784,-0.605,0.16
21:26:44.788,-0.615,0.15
21:26:44.792,-0.595,0.14
21:26:44.796,-0.59,0.13
21:26:44.800,-0.575,0.09
21:26:44.804,-0.575,0.02
21:26:44.808,-0.55,-0.01
21:26:44.812,-0.555,0.0
21:26:44.816,-0.555,0.01
21:26:44.820,-0.545,-0.005
21:26:44.824,-0.53,-0.03
21:26:44.828,-0.51,-0.025
21:26:44.832,-0.505,-0.045
21:26:44.836,-0.475,-0.04
21:26:44.840,-0.48,-0.035
21:26:44.844,-0.47,-0.035
21:26:44.848,-0.465,-0.05
21:26:44.852,-0.485,-0.03
21:26:44.856,-0.495,-0.055
21:26:44.860,-0.5,-0.06
21:26:44.864,-0.47,-0.08
21:26:44.868,-0.465,-0.06
21:26:44.872,-0.445,-0.075
21:26:44.876,-0.42,-0.08
21:26:44.880,-0.41,-0.1
21:26:44.884,-0.415,-0.09
21:26:44.888,-0.4,-0.085
21:26:44.892,-0.38,-0.075
21:26:44.896,-0.355,-0.105
21:26:44.900,-0.385,-0.105
21:26:44.904,-0.37,-0.08
21:26:44.908,-0.36,-0.09
21:26:44.912,-0.36,-0.06
21:26:44.916,-0.375,-0.02
21:26:44.920,-0.38,0.0
21:26:44.924,-0.365,0.015
21:26:44.928,-0.375,0.025
21:26:44.932,-0.38,0.05
21:26:44.936,-0.39,0.06
21:26:44.940,-0.37,0.06
21:26:44.944,-0.355,0.075
21:26:44.948,-0.375,0.07
21:26:44.952,-0.395,0.065
21:26:44.956,-0.39,0.09
21:26:44.960,-0.4,0.09
21:26:44.964,-0.375,0.095
21:26:44.968,-0.395,0.1
21:26:44.972,-0.4,0.095
21:26:44.976,-0.38,0.085
21:26:44.980,-0.41,0.075
21:26:44.984,-0.43,0.08
21:26:44.988,-0.415,0.08
21:26:44.992,-0.405,0.07
21:26:44.996,-0.425,0.06
21:26:45.000,-0.435,0.04
21:26:45.004,-0.435,0.06
21:26:45.008,-0.425,0.045
21:26:45.012,-0.425,0.035
21:26:45.016,-0.42,0.035
21:26:45.020,-0.415,0.025
21:26:45.024,-0.405,0.02
21:26:45.028,-0.42,0.015
21:26:45.032,-0.395,0.05
21:26:45.036,-0.4,0.04
21:26:45.040,-0.385,0.055
21:26:45.044,-0.385,0.005
21:26:45.048,-0.385,0.0
21:26:45.052,-0.385,0.0
21:26:45.056,-0.36,0.005
21:26:45.060,-0.365,0.035
21:26:45.064,-0.32,0.015
21:26:45.068,-0.285,0.0
21:26:45.072,-0.235,-0.015
21:26:45.076,-0.125,-0.02
21:26:45.080,-0.09,-0.015
21:26:45.084,-0.055,-0.06
21:26:45.088,-0.025,-0.075
21:26:45.092,0.0,-0.11
21:26:45.096,-0.01,-0.12
21:26:45.100,-0.005,-0.15
21:26:45.104,-0.01,-0.215
21:26:45.108,0.105,-0.32
21:26:45.112,0.355,-0.47
21:26:45.116,0.69,-0.695
21:26:45.120,0.935,-0.94
21:26:45.124,0.97,-1.115
21:26:45.128,0.665,-1.13
21:26:45.132,0.2,-0.875
21:26:45.136,-0.19,-0.475
21:26:45.140,-0.36,-0.165
21:26:45.144,-0.425,-0.03
21:26:45.148,-0.48,0.07
21:26:45.152,-0.525,0.14
21:26:45.156,-0.53,0.195
21:26:45.160,-0.555,0.21
21:26:45.164,-0.575,0.235
21:26:45.168,-0.58,0.225
21:26:45.172,-0.56,0.255
21:26:45.176,-0.57,0.22
21:26:45.180,-0.56,0.22
21:26:45.184,-0.575,0.215
21:26:45.188,-0.57,0.19
21:26:45.192,-0.55,0.185
21:26:45.196,-0.57,0.185
21:26:45.200,-0.55,0.185
21:26:45.204,-0.545,0.16
21:26:45.208,-0.555,0.17
21:26:45.212,-0.555,0.175
21:26:45.216,-0.56,0.15
21:26:45.220,-0.58,0.16
21:26:45.224,-0.6,0.145
21:26:45.228,-0.61,0.16
21:26:45.232,-0.615,0.135
21:26:45.236,-0.605,0.135
21:26:45.240,-0.61,0.145
21:26:45.244,-0.605,0.125
21:26:45.248,-0.61,0.12
21:26:45.252,-0.615,0.125
21:26:45.256,-0.61,0.11
21:26:45.260,-0.625,0.12
21:26:45.264,-0.625,0.115
21:26:45.268,-0.64,0.1
21:26:45.272,-0.635,0.115
21:26:45.276,-0.645,0.115
21:26:45.280,-0.61,0.11
21:26:45.284,-0.605,0.11
21:26:45.288,-0.585,0.115
21:26:45.292,-0.595,0.105
21:26:45.296,-0.59,0.13
21:26:45.300,-0.575,0.135
21:26:45.304,-0.58,0.135
21:26:45.308,-0.58,0.1
21:26:45.312,-0.575,0.115
21:26:45.316,-0.575,0.08
21:26:45.320,-0.535,0.085
21:26:45.324,-0.52,0.085
21:26:45.328,-0.52,0.065
21:26:45.332,-0.515,0.07
21:26:45.336,-0.505,0.055
21:26:45.340,-0.48,0.035
21:26:45.344,-0.49,0.02
21:26:45.348,-0.5,0.015
21:26:45.352,-0.455,0.015
21:26:45.356,-0.47,0.005
21:26:45.360,-0.455,0.015
21:26:45.364,-0.45,0.01
21:26:45.368,-0.4,0.04
21:26:45.372,-0.365,0.05
21:26:45.376,-0.35,0.02
21:26:45.380,-0.325,0.045
21:26:45.384,-0.29,0.075
21:26:45.388,-0.3,0.09
21:26:45.392,-0.315,0.105
21:26:45.396,-0.33,0.115
21:26:45.400,-0.345,0.135
21:26:45.404,-0.37,0.155
21:26:45.408,-0.4,0.125
21:26:45.412,-0.41,0.145
21:26:45.416,-0.41,0.14
21:26:45.420,-0.415,0.165
21:26:45.424,-0.42,0.145
21:26:45.428,-0.435,0.15
21:26:45.432,-0.425,0.14
21:26:45.436,-0.42,0.135
21:26:45.440,-0.445,0.135
21:26:45.444,-0.455,0.13
21:26:45.448,-0.465,0.12
21:26:45.452,-0.47,0.12
21:26:45.456,-0.465,0.125
21:26:45.460,-0.465,0.1
21:26:45.464,-0.48,0.115
21:26:45.468,-0.46,0.105
21:26:45.472,-0.48,0.1
21:26:45.476,-0.48,0.09
21:26:45.480,-0.485,0.1
21:26:45.484,-0.5,0.1
21:26:45.488,-0.495,0.1
21:26:45.492,-0.485,0.085
21:26:45.496,-0.495,0.07
21:26:45.500,-0.505,0.065
21:26:45.504,-0.48,0.05
21:26:45.508,-0.475,0.05
21:26:45.512,-0.46,0.05
21:26:45.516,-0.45,0.04
21:26:45.520,-0.48,0.055
21:26:45.524,-0.47,0.045
21:26:45.528,-0.47,0.065
21:26:45.532,-0.455,0.06
21:26:45.536,-0.455,0.035
21:26:45.540,-0.46,0.06
21:26:45.544,-0.445,0.07
21:26:45.548,-0.43,0.05
21:26:45.552,-0.36,0.04
21:26:45.556,-0.3,0.03
21:26:45.560,-0.255,0.02
21:26:45.564,-0.2,-0.01
21:26:45.568,-0.155,-0.025
21:26:45.572,-0.145,-0.045
21:26:45.576,-0.14,-0.095
21:26:45.580,-0.14,-0.075
21:26:45.584,-0.11,-0.095
21:26:45.588,-0.11,-0.18
21:26:45.592,0.04,-0.285
21:26:45.596,0.345,-0.44
21:26:45.600,0.7,-0.665
21:26:45.604,0.905,-0.9
21:26:45.608,0.885,-1.06
21:26:45.612,0.545,-1.005
21:26:45.616,0.115,-0.705
21:26:45.620,-0.235,-0.355
21:26:45.624,-0.38,-0.09
21:26:45.628,-0.435,0.045
21:26:45.632,-0.46,0.17
21:26:45.636,-0.5,0.25
21:26:45.640,-0.515,0.275
21:26:45.644,-0.555,0.28
21:26:45.648,-0.595,0.285
21:26:45.652,-0.6,0.285
21:26:45.656,-0.615,0.255
21:26:45.660,-0.635,0.25
21:26:45.664,-0.64,0.225
21:26:45.668,-0.635,0.23
21:26:45.672,-0.64,0.22
21:26:45.676,-0.65,0.22
21:26:45.680,-0.68,0.21
21:26:45.684,-0.645,0.205
21:26:45.688,-0.675,0.18
21:26:45.692,-0.68,0.2
21:26:45.696,-0.68,0.155
21:26:45.700,-0.665,0.17
21:26:45.704,-0.685,0.165
21:26:45.708,-0.685,0.135
21:26:45.712,-0.695,0.14
21:26:45.716,-0.695,0.13
21:26:45.720,-0.71,0.14
21:26:45.724,-0.73,0.115
21:26:45.728,-0.72,0.115
21:26:45.732,-0.7,0.095
21:26:45.736,-0.665,0.115
21:26:45.740,-0.665,0.11
21:26:45.744,-0.65,0.13
21:26:45.748,-0.645,0.16
21:26:45.752,-0.625,0.13
21:26:45.756,-0.64,0.14
21:26:45.760,-0.64,0.145
21:26:45.764,-0.65,0.14
21:26:45.768,-0.66,0.14
21:26:45.772,-0.655,0.17
21:26:45.776,-0.65,0.16
21:26:45.780,-0.66,0.145
21:26:45.784,-0.655,0.135
21:26:45.788,-0.665,0.14
21:26:45.792,-0.645,0.13
21:26:45.796,-0.645,0.115
21:26:45.800,-0.645,0.11
21:26:45.804,-0.635,0.09
21:26:45.808,-0.63,0.095
21:26:45.812,-0.605,0.07
21:26:45.816,-0.615,0.07
21:26:45.820,-0.6,0.04
21:26:45.824,-0.58,0.035
21:26:45.828,-0.57,0.035
21:26:45.832,-0.545,0.035
21:26:45.836,-0.53,0.065
21:26:45.840,-0.525,0.05
21:26:45.844,-0.505,0.045
21:26:45.848,-0.495,0.055
21:26:45.852,-0.445,0.08
21:26:45.856,-0.425,0.09
21:26:45.860,-0.425,0.095
21:26:45.864,-0.42,0.08
21:26:45.868,-0.425,0.13
21:26:45.872,-0.445,0.125
21:26:45.876,-0.465,0.145
21:26:45.880,-0.485,0.155
21:26:45.884,-0.485,0.165
21:26:45.888,-0.51,0.16
21:26:45.892,-0.525,0.165
21:26:45.896,-0.555,0.165
21:26:45.900,-0.55,0.14
21:26:45.904,-0.54,0.145
21:26:45.908,-0.51,0.13
21:26:45.912,-0.505,0.145
21:26:45.916,-0.535,0.135
21:26:45.920,-0.52,0.14
21:26:45.924,-0.535,0.14
21:26:45.928,-0.535,0.105
21:26:45.932,-0.55,0.12
21:26:45.936,-0.53,0.1
21:26:45.940,-0.545,0.1
21:26:45.944,-0.535,0.13
21:26:45.948,-0.56,0.14
21:26:45.952,-0.55,0.1
21:26:45.956,-0.515,0.105
21:26:45.960,-0.47,0.09
21:26:45.964,-0.42,0.065
21:26:45.968,-0.355,0.055
21:26:45.972,-0.31,0.04
21:26:45.976,-0.245,0.045
21:26:45.980,-0.2,-0.03
21:26:45.984,-0.175,-0.04
21:26:45.988,-0.16,-0.065
21:26:45.992,-0.12,-0.05
21:26:45.996,-0.11,-0.055
21:26:46.000,-0.135,-0.105
21:26:46.004,-0.04,-0.155
21:26:46.008,0.215,-0.29
21:26:46.012,0.535,-0.51
21:26:46.016,0.78,-0.775
21:26:46.020,0.74,-0.985
21:26:46.024,0.47,-1.035
21:26:46.028,0.005,-0.82
21:26:46.032,-0.37,-0.495
21:26:46.036,-0.53,-0.215
21:26:46.040,-0.59,-0.06
21:26:46.044,-0.61,0.03
21:26:46.048,-0.63,0.07
21:26:46.052,-0.66,0.105
21:26:46.056,-0.645,0.09
21:26:46.060,-0.67,0.095
21:26:46.064,-0.695,0.08
21:26:46.068,-0.685,0.08
21:26:46.072,-0.665,0.045
21:26:46.076,-0.665,0.075
21:26:46.080,-0.66,0.085
21:26:46.084,-0.64,0.07
21:26:46.088,-0.64,0.09
21:26:46.092,-0.63,0.1
21:26:46.096,-0.62,0.095
21:26:46.100,-0.63,0.105
21:26:46.104,-0.63,0.085
21:26:46.108,-0.635,0.095
21:26:46.112,-0.655,0.115
21:26:46.116,-0.68,0.12
21:26:46.120,-0.7,0.135
21:26:46.124,-0.72,0.125
21:26:46.128,-0.74,0.13
21:26:46.132,-0.725,0.12
21:26:46.136,-0.72,0.11
21:26:46.140,-0.725,0.1
21:26:46.144,-0.74,0.075
21:26:46.148,-0.765,0.04
21:26:46.152,-0.77,0.01
21:26:46.156,-0.74,0.0
21:26:46.160,-0.725,-0.01
21:26:46.164,-0.755,-0.025
21:26:46.168,-0.75,-0.04
21:26:46.172,-0.75,-0.045
21:26:46.176,-0.785,-0.035
21:26:46.180,-0.765,-0.035
21:26:46.184,-0.74,-0.045
21:26:46.188,-0.73,-0.06
21:26:46.192,-0.715,-0.05
21:26:46.196,-0.69,-0.065
21:26:46.200,-0.69,-0.075
21:26:46.204,-0.71,-0.09
21:26:46.208,-0.705,-0.07
21:26:46.212,-0.685,-0.09
21:26:46.216,-0.68,-0.09
21:26:46.220,-0.655,-0.09
21:26:46.224,-0.64,-0.09
21:26:46.228,-0.62,-0.115
21:26:46.232,-0.605,-0.145
21:26:46.236,-0.585,-0.11
21:26:46.240,-0.605,-0.14
21:26:46.244,-0.605,-0.16
21:26:46.248,-0.6,-0.155
21:26:46.252,-0.61,-0.17
21:26:46.256,-0.595,-0.195
21:26:46.260,-0.56,-0.23
21:26:46.264,-0.555,-0.23
21:26:46.268,-0.565,-0.22
21:26:46.272,-0.52,-0.22
21:26:46.276,-0.52,-0.21
21:26:46.280,-0.52,-0.235
21:26:46.284,-0.5,-0.22
21:26:46.288,-0.505,-0.24
21:26:46.292,-0.49,-0.21
21:26:46.296,-0.505,-0.205
21:26:46.300,-0.485,-0.2
21:26:46.304,-0.48,-0.185
21:26:46.308,-0.46,-0.19
21:26:46.312,-0.45,-0.185
21:26:46.316,-0.435,-0.19
21:26:46.320,-0.46,-0.18
21:26:46.324,-0.45,-0.185
21:26:46.328,-0.44,-0.18
21:26:46.332,-0.45,-0.17
21:26:46.336,-0.485,-0.15
21:26:46.340,-0.5,-0.135
21:26:46.344,-0.525,-0.135
21:26:46.348,-0.56,-0.135
21:26:46.352,-0.56,-0.175
21:26:46.356,-0.57,-0.185
21:26:46.360,-0.575,-0.195
21:26:46.364,-0.555,-0.22
21:26:46.368,-0.52,-0.215
21:26:46.372,-0.545,-0.24
21:26:46.376,-0.545,-0.27
21:26:46.380,-0.555,-0.245
21:26:46.384,-0.565,-0.265
21:26:46.388,-0.57,-0.28
21:26:46.392,-0.57,-0.295
21:26:46.396,-0.58,-0.29
21:26:46.400,-0.565,-0.295
21:26:46.404,-0.575,-0.305
21:26:46.408,-0.585,-0.315
21:26:46.412,-0.575,-0.32
21:26:46.416,-0.55,-0.29
21:26:46.420,-0.565,-0.31
21:26:46.424,-0.595,-0.315
21:26:46.428,-0.6,-0.33
21:26:46.432,-0.575,-0.35
21:26:46.436,-0.58,-0.355
21:26:46.440,-0.565,-0.335
21:26:46.444,-0.545,-0.335
21:26:46.448,-0.53,-0.355
21:26:46.452,-0.545,-0.365
21:26:46.456,-0.545,-0.36
21:26:46.460,-0.56,-0.345
21:26:46.464,-0.57,-0.385
21:26:46.468,-0.59,-0.37
21:26:46.472,-0.615,-0.37
21:26:46.476,-0.595,-0.41
21:26:46.480,-0.615,-0.4
21:26:46.484,-0.585,-0.415
21:26:46.488,-0.59,-0.435
21:26:46.492,-0.59,-0.435
21:26:46.496,-0.6,-0.41
21:26:46.500,-0.59,-0.375
21:26:46.504,-0.585,-0.38
21:26:46.508,-0.61,-0.37
21:26:46.512,-0.6,-0.38
21:26:46.516,-0.6,-0.37
21:26:46.520,-0.58,-0.37
21:26:46.524,-0.575,-0.365
21:26:46.528,-0.565,-0.38
21:26:46.532,-0.535,-0.355
21:26:46.536,-0.52,-0.365
21:26:46.540,-0.525,-0.375
21:26:46.544,-0.52,-0.36
21:26:46.548,-0.505,-0.355
21:26:46.552,-0.475,-0.355
21:26:46.556,-0.45,-0.36
21:26:46.560,-0.46,-0.355
21:26:46.564,-0.465,-0.34
21:26:46.568,-0.49,-0.365
21:26:46.572,-0.5,-0.385
21:26:46.576,-0.525,-0.38
21:26:46.580,-0.57,-0.38
21:26:46.584,-0.585,-0.35
21:26:46.588,-0.605,-0.37
21:26:46.592,-0.615,-0.38
21:26:46.596,-0.6,-0.385
21:26:46.600,-0.575,-0.385
21:26:46.604,-0.56,-0.355
21:26:46.608,-0.58,-0.35
21:26:46.612,-0.56,-0.325
21:26:46.616,-0.555,-0.345
21:26:46.620,-0.565,-0.36
21:26:46.624,-0.58,-0.33
21:26:46.628,-0.595,-0.34
21:26:46.632,-0.575,-0.345
21:26:46.636,-0.575,-0.33
21:26:46.640,-0.565,-0.34
21:26:46.644,-0.54,-0.33
21:26:46.648,-0.545,-0.31
21:26:46.652,-0.55,-0.305
21:26:46.656,-0.545,-0.305
21:26:46.660,-0.55,-0.315
21:26:46.664,-0.54,-0.275
21:26:46.668,-0.565,-0.28
21:26:46.672,-0.555,-0.27
21:26:46.676,-0.545,-0.27
21:26:46.680,-0.535,-0.25
21:26:46.684,-0.555,-0.25
21:26:46.688,-0.58,-0.26
21:26:46.692,-0.57,-0.23
21:26:46.696,-0.575,-0.25
21:26:46.700,-0.565,-0.265
21:26:46.704,-0.54,-0.25
21:26:46.708,-0.48,-0.235
21:26:46.712,-0.42,-0.25
21:26:46.716,-0.315,-0.225
21:26:46.720,-0.23,-0.25
21:26:46.724,-0.16,-0.27
21:26:46.728,-0.09,-0.3
21:26:46.732,-0.02,-0.325
21:26:46.736,0.02,-0.3
21:26:46.740,0.035,-0.295
21:26:46.744,0.045,-0.33
21:26:46.748,0.1,-0.39
21:26:46.752,0.335,-0.52
21:26:46.756,0.665,-0.73
21:26:46.760,0.925,-0.93
21:26:46.764,0.98,-1.09
21:26:46.768,0.73,-1.105
21:26:46.772,0.27,-0.9
21:26:46.776,-0.13,-0.555
21:26:46.780,-0.325,-0.275
21:26:46.784,-0.395,-0.11
21:26:46.788,-0.45,-0.02
21:26:46.792,-0.46,0.105
21:26:46.796,-0.52,0.17
21:26:46.800,-0.6,0.205
21:26:46.804,-0.66,0.19
21:26:46.808,-0.72,0.205
21:26:46.812,-0.755,0.195
21:26:46.816,-0.8,0.21
21:26:46.820,-0.805,0.215
21:26:46.824,-0.785,0.235
21:26:46.828,-0.805,0.21
21:26:46.832,-0.805,0.195
21:26:46.836,-0.785,0.205
21:26:46.840,-0.77,0.215
21:26:46.844,-0.765,0.2
21:26:46.848,-0.745,0.165
21:26:46.852,-0.715,0.155
21:26:46.856,-0.705,0.15
21:26:46.860,-0.685,0.13
21:26:46.864,-0.67,0.145
21:26:46.868,-0.67,0.135
21:26:46.872,-0.65,0.155
21:26:46.876,-0.675,0.15
21:26:46.880,-0.695,0.145
21:26:46.884,-0.7,0.175
21:26:46.888,-0.685,0.165
21:26:46.892,-0.685,0.18
21:26:46.896,-0.7,0.175
21:26:46.900,-0.705,0.165
21:26:46.904,-0.67,0.165
21:26:46.908,-0.67,0.19
21:26:46.912,-0.68,0.2
21:26:46.916,-0.715,0.175
21:26:46.920,-0.72,0.195
21:26:46.924,-0.705,0.18
21:26:46.928,-0.72,0.17
21:26:46.932,-0.71,0.19
21:26:46.936,-0.715,0.18
21:26:46.940,-0.7,0.2
21:26:46.944,-0.71,0.185
21:26:46.948,-0.695,0.17
21:26:46.952,-0.68,0.175
21:26:46.956,-0.655,0.17
21:26:46.960,-0.635,0.17
21:26:46.964,-0.62,0.185
21:26:46.968,-0.605,0.185
21:26:46.972,-0.575,0.18
21:26:46.976,-0.545,0.18
21:26:46.980,-0.52,0.175
21:26:46.984,-0.51,0.175
21:26:46.988,-0.475,0.185
21:26:46.992,-0.46,0.18
21:26:46.996,-0.44,0.16
21:26:47.000,-0.43,0.15
21:26:47.004,-0.385,0.13
21:26:47.008,-0.39,0.115
21:26:47.012,-0.395,0.14
21:26:47.016,-0.4,0.115
21:26:47.020,-0.39,0.1
21:26:47.024,-0.43,0.095
21:26:47.028,-0.485,0.1
21:26:47.032,-0.5,0.09
21:26:47.036,-0.515,0.1
21:26:47.040,-0.52,0.09
21:26:47.044,-0.525,0.085
21:26:47.048,-0.525,0.07
21:26:47.052,-0.505,0.025
21:26:47.056,-0.5,-0.025
21:26:47.060,-0.525,-0.025
21:26:47.064,-0.51,-0.03
21:26:47.068,-0.5,-0.035
21:26:47.072,-0.495,-0.035
21:26:47.076,-0.48,-0.045
21:26:47.080,-0.475,-0.07
21:26:47.084,-0.43,-0.07
21:26:47.088,-0.42,-0.08
21:26:47.092,-0.425,-0.06
21:26:47.096,-0.42,-0.09
21:26:47.100,-0.41,-0.065
21:26:47.104,-0.395,-0.09
21:26:47.108,-0.42,-0.115
21:26:47.112,-0.405,-0.12
21:26:47.116,-0.4,-0.12
21:26:47.120,-0.41,-0.12
21:26:47.124,-0.43,-0.125
21:26:47.128,-0.42,-0.115
21:26:47.132,-0.42,-0.13
21:26:47.136,-0.405,-0.13
21:26:47.140,-0.425,-0.135
21:26:47.144,-0.445,-0.135
21:26:47.148,-0.435,-0.135
21:26:47.152,-0.42,-0.14
21:26:47.156,-0.415,-0.14
21:26:47.160,-0.42,-0.135
21:26:47.164,-0.425,-0.135
21:26:47.168,-0.385,-0.165
21:26:47.172,-0.395,-0.15
21:26:47.176,-0.37,-0.145
21:26:47.180,-0.375,-0.14
21:26:47.184,-0.37,-0.145
21:26:47.188,-0.38,-0.13
21:26:47.192,-0.385,-0.13
21:26:47.196,-0.4,-0.135
21:26:47.200,-0.405,-0.145
21:26:47.204,-0.39,-0.12
21:26:47.208,-0.39,-0.135
21:26:47.212,-0.375,-0.105
21:26:47.216,-0.375,-0.125
21:26:47.220,-0.38,-0.12
21:26:47.224,-0.36,-0.125
21:26:47.228,-0.345,-0.1
21:26:47.232,-0.315,-0.105
21:26:47.236,-0.285,-0.115
21:26:47.240,-0.23,-0.1
21:26:47.244,-0.215,-0.1
21:26:47.248,-0.155,-0.115
21:26:47.252,-0.08,-0.115
21:26:47.256,-0.085,-0.15
21:26:47.260,-0.09,-0.15
21:26:47.264,-0.085,-0.18
21:26:47.268,-0.05,-0.2
21:26:47.272,-0.045,-0.22
21:26:47.276,-0.06,-0.25
21:26:47.280,0.0,-0.33
21:26:47.284,0.19,-0.49
21:26:47.288,0.52,-0.685
21:26:47.292,0.8,-0.92
21:26:47.296,0.945,-1.16
21:26:47.300,0.79,-1.25
21:26:47.304,0.385,-1.17
21:26:47.308,-0.075,-0.805
21:26:47.312,-0.36,-0.5
21:26:47.316,-0.47,-0.325
21:26:47.320,-0.485,-0.22
21:26:47.324,-0.51,-0.14
21:26:47.328,-0.5,-0.08
21:26:47.332,-0.515,-0.09
21:26:47.336,-0.545,-0.08
21:26:47.340,-0.55,-0.06
21:26:47.344,-0.56,-0.065
21:26:47.348,-0.54,-0.08
21:26:47.352,-0.575,-0.115
21:26:47.356,-0.58,-0.105
21:26:47.360,-0.585,-0.105
21:26:47.364,-0.555,-0.11
21:26:47.368,-0.56,-0.105
21:26:47.372,-0.575,-0.12
21:26:47.376,-0.57,-0.11
21:26:47.380,-0.565,-0.11
21:26:47.384,-0.58,-0.1
21:26:47.388,-0.565,-0.085
21:26:47.392,-0.565,-0.08
21:26:47.396,-0.57,-0.115
21:26:47.400,-0.56,-0.095
21:26:47.404,-0.59,-0.095
21:26:47.408,-0.59,-0.075
21:26:47.412,-0.58,-0.065
21:26:47.416,-0.595,-0.06
21:26:47.420,-0.59,-0.06
21:26:47.424,-0.62,-0.07
21:26:47.428,-0.6,-0.075
21:26:47.432,-0.615,-0.04
21:26:47.436,-0.625,-0.04
21:26:47.440,-0.605,-0.045
21:26:47.444,-0.61,-0.04
21:26:47.448,-0.575,-0.03
21:26:47.452,-0.59,-0.02
21:26:47.456,-0.575,-0.04
21:26:47.460,-0.535,-0.03
21:26:47.464,-0.53,-0.03
21:26:47.468,-0.56,-0.03
21:26:47.472,-0.56,-0.04
21:26:47.476,-0.57,-0.02
21:26:47.480,-0.58,-0.02
21:26:47.484,-0.6,-0.025
21:26:47.488,-0.64,-0.035
21:26:47.492,-0.645,-0.055
21:26:47.496,-0.65,-0.04
21:26:47.500,-0.63,-0.025
21:26:47.504,-0.635,-0.03
21:26:47.508,-0.625,-0.05
21:26:47.512,-0.595,-0.06
21:26:47.516,-0.585,-0.08
21:26:47.520,-0.56,-0.065
21:26:47.524,-0.535,-0.11
21:26:47.528,-0.51,-0.12
21:26:47.532,-0.51,-0.14
21:26:47.536,-0.505,-0.16
21:26:47.540,-0.5,-0.17
21:26:47.544,-0.47,-0.185
21:26:47.548,-0.475,-0.19
21:26:47.552,-0.45,-0.21
21:26:47.556,-0.435,-0.2
21:26:47.560,-0.435,-0.185
21:26:47.564,-0.445,-0.2
21:26:47.568,-0.45,-0.2
21:26:47.572,-0.445,-0.205
21:26:47.576,-0.44,-0.205
21:26:47.580,-0.435,-0.18
21:26:47.584,-0.44,-0.185
21:26:47.588,-0.44,-0.185
21:26:47.592,-0.43,-0.2
21:26:47.596,-0.435,-0.195
21:26:47.600,-0.45,-0.19
21:26:47.604,-0.465,-0.18
21:26:47.608,-0.455,-0.175
21:26:47.612,-0.45,-0.16
21:26:47.616,-0.45,-0.15
21:26:47.620,-0.47,-0.175
21:26:47.624,-0.47,-0.145
21:26:47.628,-0.47,-0.15
21:26:47.632,-0.485,-0.125
21:26:47.636,-0.49,-0.14
21:26:47.640,-0.495,-0.14
21:26:47.644,-0.49,-0.09
21:26:47.648,-0.5,-0.1
21:26:47.652,-0.5,-0.105
21:26:47.656,-0.5,-0.095
21:26:47.660,-0.485,-0.08
21:26:47.664,-0.46,-0.07
21:26:47.668,-0.46,-0.045
21:26:47.672,-0.435,-0.045
21:26:47.676,-0.43,-0.04
21:26:47.680,-0.415,-0.04
21:26:47.684,-0.43,-0.03
21:26:47.688,-0.42,-0.03
21:26:47.692,-0.42,-0.02
21:26:47.696,-0.42,-0.01
21:26:47.700,-0.435,-0.01
21:26:47.704,-0.465,0.02
21:26:47.708,-0.5,0.01
21:26:47.712,-0.525,0.03
21:26:47.716,-0.54,0.02
21:26:47.720,-0.54,0.04
21:26:47.724,-0.515,0.035
21:26:47.728,-0.51,0.04
21:26:47.732,-0.505,0.015
21:26:47.736,-0.5,0.01
21:26:47.740,-0.455,0.03
21:26:47.744,-0.47,0.02
21:26:47.748,-0.475,-0.015
21:26:47.752,-0.475,-0.04
21:26:47.756,-0.47,-0.045
21:26:47.760,-0.485,-0.08
21:26:47.764,-0.47,-0.105
21:26:47.768,-0.46,-0.1
21:26:47.772,-0.42,-0.09
21:26:47.776,-0.37,-0.095
21:26:47.780,-0.305,-0.1
21:26:47.784,-0.19,-0.105
21:26:47.788,-0.13,-0.12
21:26:47.792,-0.055,-0.125
21:26:47.796,-0.035,-0.135
21:26:47.800,0.0,-0.19
21:26:47.804,0.02,-0.18
21:26:47.808,0.01,-0.205
21:26:47.812,0.01,-0.27
21:26:47.816,0.1,-0.365
21:26:47.820,0.345,-0.54
21:26:47.824,0.665,-0.75
21:26:47.828,0.875,-1.0
21:26:47.832,0.915,-1.19
21:26:47.836,0.635,-1.21
21:26:47.840,0.17,-1.005
21:26:47.844,-0.26,-0.64
21:26:47.848,-0.45,-0.34
21:26:47.852,-0.575,-0.15
21:26:47.856,-0.57,-0.05
21:26:47.860,-0.58,0.025
21:26:47.864,-0.61,0.065
21:26:47.868,-0.615,0.085
21:26:47.872,-0.62,0.095
21:26:47.876,-0.625,0.11
21:26:47.880,-0.61,0.1
21:26:47.884,-0.63,0.105
21:26:47.888,-0.6,0.095
21:26:47.892,-0.6,0.095
21:26:47.896,-0.595,0.115
21:26:47.900,-0.605,0.12
21:26:47.904,-0.58,0.08
21:26:47.908,-0.6,0.11
21:26:47.912,-0.605,0.105
21:26:47.916,-0.62,0.135
21:26:47.920,-0.615,0.14
21:26:47.924,-0.64,0.155
21:26:47.928,-0.675,0.15
21:26:47.932,-0.705,0.135
21:26:47.936,-0.67,0.155
21:26:47.940,-0.73,0.145
21:26:47.944,-0.72,0.165
21:26:47.948,-0.715,0.155
21:26:47.952,-0.72,0.14
21:26:47.956,-0.73,0.155
21:26:47.960,-0.715,0.175
21:26:47.964,-0.7,0.14
21:26:47.968,-0.68,0.14
21:26:47.972,-0.645,0.105
21:26:47.976,-0.66,0.09
21:26:47.980,-0.68,0.09
21:26:47.984,-0.64,0.075
21:26:47.988,-0.66,0.07
21:26:47.992,-0.665,0.06
21:26:47.996,-0.66,0.03
