Time,ECG1,ECG2
21:33:46.720,-0.445,0.07
21:33:46.724,-0.44,0.035
21:33:46.728,-0.425,0.025
21:33:46.732,-0.385,0.015
21:33:46.736,-0.41,0.0
21:33:46.740,-0.4,0.0
21:33:46.744,-0.4,0.005
21:33:46.748,-0.4,0.0
21:33:46.752,-0.4,-0.03
21:33:46.756,-0.4,-0.06
21:33:46.760,-0.39,-0.06
21:33:46.764,-0.37,-0.07
21:33:46.768,-0.37,-0.075
21:33:46.772,-0.35,-0.08
21:33:46.776,-0.335,-0.085
21:33:46.780,-0.305,-0.08
21:33:46.784,-0.285,-0.115
21:33:46.788,-0.28,-0.13
21:33:46.792,-0.235,-0.135
21:33:46.796,-0.225,-0.13
21:33:46.800,-0.21,-0.14
21:33:46.804,-0.21,-0.14
21:33:46.808,-0.215,-0.13
21:33:46.812,-0.195,-0.125
21:33:46.816,-0.19,-0.11
21:33:46.820,-0.17,-0.125
21:33:46.824,-0.155,-0.12
21:33:46.828,-0.14,-0.105
21:33:46.832,-0.145,-0.115
21:33:46.836,-0.13,-0.08
21:33:46.840,-0.13,-0.095
21:33:46.844,-0.115,-0.07
21:33:46.848,-0.115,-0.06
21:33:46.852,-0.125,-0.035
21:33:46.856,-0.115,-0.045
21:33:46.860,-0.12,-0.045
21:33:46.864,-0.13,-0.03
21:33:46.868,-0.145,-0.035
21:33:46.872,-0.155,-0.03
21:33:46.876,-0.175,-0.015
21:33:46.880,-0.185,-0.025
21:33:46.884,-0.215,-0.005
21:33:46.888,-0.21,-0.01
21:33:46.892,-0.225,0.005
21:33:46.896,-0.21,-0.005
21:33:46.900,-0.21,-0.025
21:33:46.904,-0.215,-0.02
21:33:46.908,-0.215,0.0
21:33:46.912,-0.2,-0.03
21:33:46.916,-0.23,-0.035
21:33:46.920,-0.22,-0.03
21:33:46.924,-0.225,-0.035
21:33:46.928,-0.23,-0.05
21:33:46.932,-0.215,-0.045
21:33:46.936,-0.24,-0.055
21:33:46.940,-0.235,-0.02
21:33:46.944,-0.215,-0.035
21:33:46.948,-0.225,-0.025
21:33:46.952,-0.225,-0.03
21:33:46.956,-0.22,-0.015
21:33:46.960,-0.21,0.01
21:33:46.964,-0.215,-0.015
21:33:46.968,-0.205,-0.04
21:33:46.972,-0.2,-0.025
21:33:46.976,-0.195,-0.015
21:33:46.980,-0.21,-0.01
21:33:46.984,-0.205,-0.025
21:33:46.988,-0.185,-0.05
21:33:46.992,-0.185,-0.03
21:33:46.996,-0.175,-0.01
21:33:47.000,-0.16,-0.015
21:33:47.004,-0.165,-0.04
21:33:47.008,-0.14,-0.025
21:33:47.012,-0.145,0.0
21:33:47.016,-0.145,-0.005
21:33:47.020,-0.16,0.02
21:33:47.024,-0.14,0.015
21:33:47.028,-0.145,0.02
21:33:47.032,-0.13,0.025
21:33:47.036,-0.11,0.03
21:33:47.040,-0.1,0.04
21:33:47.044,-0.085,0.045
21:33:47.048,-0.105,0.01
21:33:47.052,-0.09,0.0
21:33:47.056,-0.08,-0.015
21:33:47.060,-0.09,-0.04
21:33:47.064,-0.085,-0.045
21:33:47.068,-0.06,-0.045
21:33:47.072,-0.025,-0.04
21:33:47.076,0.015,-0.045
21:33:47.080,0.06,-0.04
21:33:47.084,0.12,-0.02
21:33:47.088,0.175,-0.03
21:33:47.092,0.22,-0.075
21:33:47.096,0.27,-0.11
21:33:47.100,0.275,-0.105
21:33:47.104,0.345,-0.11
21:33:47.108,0.34,-0.115
21:33:47.112,0.33,-0.15
21:33:47.116,0.34,-0.23
21:33:47.120,0.54,-0.375
21:33:47.124,0.845,-0.55
21:33:47.128,1.095,-0.785
21:33:47.132,1.17,-1.0
21:33:47.136,0.91,-1.07
21:33:47.140,0.46,-0.88
21:33:47.144,0.015,-0.545
21:33:47.148,-0.195,-0.29
21:33:47.152,-0.25,-0.135
21:33:47.156,-0.29,-0.01
21:33:47.160,-0.31,0.055
21:33:47.164,-0.345,0.105
21:33:47.168,-0.345,0.14
21:33:47.172,-0.34,0.145
21:33:47.176,-0.35,0.14
21:33:47.180,-0.345,0.135
21:33:47.184,-0.345,0.1
21:33:47.188,-0.34,0.09
21:33:47.192,-0.35,0.1
21:33:47.196,-0.37,0.085
21:33:47.200,-0.36,0.085
21:33:47.204,-0.36,0.085
21:33:47.208,-0.37,0.095
21:33:47.212,-0.38,0.1
21:33:47.216,-0.37,0.115
21:33:47.220,-0.36,0.1
21:33:47.224,-0.365,0.085
21:33:47.228,-0.4,0.09
21:33:47.232,-0.395,0.11
21:33:47.236,-0.395,0.105
21:33:47.240,-0.38,0.125
21:33:47.244,-0.41,0.125
21:33:47.248,-0.42,0.12
21:33:47.252,-0.405,0.12
21:33:47.256,-0.39,0.135
21:33:47.260,-0.4,0.13
21:33:47.264,-0.38,0.17
21:33:47.268,-0.34,0.15
21:33:47.272,-0.33,0.165
21:33:47.276,-0.31,0.175
21:33:47.280,-0.295,0.2
21:33:47.284,-0.285,0.22
21:33:47.288,-0.28,0.24
21:33:47.292,-0.31,0.235
21:33:47.296,-0.31,0.23
21:33:47.300,-0.35,0.24
21:33:47.304,-0.335,0.215
21:33:47.308,-0.35,0.185
21:33:47.312,-0.365,0.175
21:33:47.316,-0.365,0.165
21:33:47.320,-0.34,0.14
21:33:47.324,-0.33,0.115
21:33:47.328,-0.325,0.13
21:33:47.332,-0.32,0.09
21:33:47.336,-0.32,0.08
21:33:47.340,-0.315,0.055
21:33:47.344,-0.3,0.04
21:33:47.348,-0.295,0.03
21:33:47.352,-0.285,0.03
21:33:47.356,-0.27,0.02
21:33:47.360,-0.26,0.01
21:33:47.364,-0.23,0.02
21:33:47.368,-0.225,0.005
21:33:47.372,-0.175,0.01
21:33:47.376,-0.18,0.02
21:33:47.380,-0.18,0.01
21:33:47.384,-0.145,0.0
21:33:47.388,-0.165,0.035
21:33:47.392,-0.16,0.025
21:33:47.396,-0.16,0.005
21:33:47.400,-0.125,0.03
21:33:47.404,-0.115,0.03
21:33:47.408,-0.13,0.005
21:33:47.412,-0.135,0.015
21:33:47.416,-0.115,0.02
21:33:47.420,-0.145,0.0
21:33:47.424,-0.15,0.03
21:33:47.428,-0.145,0.06
21:33:47.432,-0.15,0.06
21:33:47.436,-0.145,0.06
21:33:47.440,-0.15,0.06
21:33:47.444,-0.17,0.08
21:33:47.448,-0.16,0.05
21:33:47.452,-0.17,0.065
21:33:47.456,-0.155,0.065
21:33:47.460,-0.15,0.08
21:33:47.464,-0.14,0.095
21:33:47.468,-0.125,0.09
21:33:47.472,-0.09,0.08
21:33:47.476,-0.095,0.09
21:33:47.480,-0.085,0.1
21:33:47.484,-0.075,0.115
21:33:47.488,-0.04,0.12
21:33:47.492,-0.05,0.13
21:33:47.496,-0.055,0.125
21:33:47.500,-0.065,0.135
21:33:47.504,-0.085,0.15
21:33:47.508,-0.115,0.115
21:33:47.512,-0.13,0.155
21:33:47.516,-0.145,0.16
21:33:47.520,-0.13,0.17
21:33:47.524,-0.12,0.15
21:33:47.528,-0.1,0.155
21:33:47.532,-0.08,0.175
21:33:47.536,-0.08,0.145
21:33:47.540,-0.1,0.115
21:33:47.544,-0.105,0.11
21:33:47.548,-0.07,0.09
21:33:47.552,-0.1,0.09
21:33:47.556,-0.105,0.06
21:33:47.560,-0.1,0.035
21:33:47.564,-0.095,0.03
21:33:47.568,-0.1,0.04
21:33:47.572,-0.1,0.055
21:33:47.576,-0.115,0.025
21:33:47.580,-0.09,0.005
21:33:47.584,-0.08,0.015
21:33:47.588,-0.08,0.015
21:33:47.592,-0.07,0.015
21:33:47.596,-0.045,0.02
21:33:47.600,0.0,0.03
21:33:47.604,0.07,0.015
21:33:47.608,0.125,0.04
21:33:47.612,0.185,0.005
21:33:47.616,0.225,-0.03
21:33:47.620,0.255,-0.055
21:33:47.624,0.27,-0.095
21:33:47.628,0.275,-0.1
21:33:47.632,0.27,-0.095
21:33:47.636,0.245,-0.13
21:33:47.640,0.31,-0.21
21:33:47.644,0.555,-0.365
21:33:47.648,0.885,-0.575
21:33:47.652,1.09,-0.81
21:33:47.656,1.105,-1.02
21:33:47.660,0.81,-1.0
21:33:47.664,0.35,-0.78
21:33:47.668,-0.03,-0.415
21:33:47.672,-0.22,-0.13
21:33:47.676,-0.285,0.03
21:33:47.680,-0.29,0.115
21:33:47.684,-0.29,0.185
21:33:47.688,-0.315,0.235
21:33:47.692,-0.315,0.225
21:33:47.696,-0.275,0.235
21:33:47.700,-0.295,0.22
21:33:47.704,-0.29,0.2
21:33:47.708,-0.32,0.185
21:33:47.712,-0.32,0.195
21:33:47.716,-0.355,0.19
21:33:47.720,-0.39,0.18
21:33:47.724,-0.405,0.175
21:33:47.728,-0.42,0.185
21:33:47.732,-0.415,0.175
21:33:47.736,-0.42,0.19
21:33:47.740,-0.435,0.175
21:33:47.744,-0.435,0.175
21:33:47.748,-0.435,0.17
21:33:47.752,-0.405,0.17
21:33:47.756,-0.43,0.185
21:33:47.760,-0.405,0.18
21:33:47.764,-0.37,0.145
21:33:47.768,-0.36,0.125
21:33:47.772,-0.35,0.115
21:33:47.776,-0.335,0.11
21:33:47.780,-0.33,0.1
21:33:47.784,-0.345,0.1
21:33:47.788,-0.375,0.095
21:33:47.792,-0.38,0.095
21:33:47.796,-0.375,0.095
21:33:47.800,-0.365,0.095
21:33:47.804,-0.37,0.095
21:33:47.808,-0.38,0.09
21:33:47.812,-0.365,0.125
21:33:47.816,-0.375,0.095
21:33:47.820,-0.385,0.095
21:33:47.824,-0.385,0.115
21:33:47.828,-0.39,0.11
21:33:47.832,-0.37,0.11
21:33:47.836,-0.385,0.11
21:33:47.840,-0.355,0.105
21:33:47.844,-0.34,0.115
21:33:47.848,-0.345,0.095
21:33:47.852,-0.345,0.105
21:33:47.856,-0.33,0.095
21:33:47.860,-0.34,0.095
21:33:47.864,-0.3,0.1
21:33:47.868,-0.31,0.095
21:33:47.872,-0.29,0.075
21:33:47.876,-0.245,0.065
21:33:47.880,-0.225,0.075
21:33:47.884,-0.21,0.07
21:33:47.888,-0.2,0.055
21:33:47.892,-0.18,0.065
21:33:47.896,-0.15,0.055
21:33:47.900,-0.135,0.075
21:33:47.904,-0.125,0.065
21:33:47.908,-0.1,0.075
21:33:47.912,-0.105,0.075
21:33:47.916,-0.115,0.08
21:33:47.920,-0.13,0.095
21:33:47.924,-0.14,0.07
21:33:47.928,-0.18,0.08
21:33:47.932,-0.185,0.11
21:33:47.936,-0.2,0.095
21:33:47.940,-0.22,0.1
21:33:47.944,-0.21,0.09
21:33:47.948,-0.225,0.08
21:33:47.952,-0.215,0.09
21:33:47.956,-0.22,0.105
21:33:47.960,-0.21,0.085
21:33:47.964,-0.23,0.1
21:33:47.968,-0.24,0.09
21:33:47.972,-0.215,0.08
21:33:47.976,-0.2,0.085
21:33:47.980,-0.215,0.075
21:33:47.984,-0.215,0.075
21:33:47.988,-0.21,0.085
21:33:47.992,-0.21,0.09
21:33:47.996,-0.235,0.1
21:33:48.000,-0.225,0.105
21:33:48.004,-0.225,0.095
21:33:48.008,-0.22,0.095
21:33:48.012,-0.195,0.08
21:33:48.016,-0.2,0.085
21:33:48.020,-0.17,0.07
21:33:48.024,-0.15,0.06
21:33:48.028,-0.125,0.06
21:33:48.032,-0.15,0.06
21:33:48.036,-0.155,0.06
21:33:48.040,-0.155,0.06
21:33:48.044,-0.175,0.07
21:33:48.048,-0.165,0.045
21:33:48.052,-0.165,0.04
21:33:48.056,-0.155,0.04
21:33:48.060,-0.17,0.05
21:33:48.064,-0.155,0.06
21:33:48.068,-0.165,0.06
21:33:48.072,-0.17,0.065
21:33:48.076,-0.16,0.07
21:33:48.080,-0.18,0.055
21:33:48.084,-0.17,0.05
21:33:48.088,-0.145,0.06
21:33:48.092,-0.135,0.065
21:33:48.096,-0.135,0.07
21:33:48.100,-0.125,0.08
21:33:48.104,-0.135,0.065
21:33:48.108,-0.105,0.075
21:33:48.112,-0.1,0.085
21:33:48.116,-0.115,0.075
21:33:48.120,-0.1,0.085
21:33:48.124,-0.07,0.075
21:33:48.128,-0.055,0.05
21:33:48.132,-0.03,0.08
21:33:48.136,0.0,0.08
21:33:48.140,0.04,0.06
21:33:48.144,0.095,0.07
21:33:48.148,0.125,0.07
21:33:48.152,0.155,0.035
21:33:48.156,0.175,-0.015
21:33:48.160,0.21,0.005
21:33:48.164,0.205,0.0
21:33:48.168,0.205,-0.045
21:33:48.172,0.225,-0.1
21:33:48.176,0.36,-0.24
21:33:48.180,0.655,-0.405
21:33:48.184,0.96,-0.665
21:33:48.188,1.08,-0.865
21:33:48.192,0.95,-1.01
21:33:48.196,0.555,-0.885
21:33:48.200,0.085,-0.565
21:33:48.204,-0.175,-0.265
21:33:48.208,-0.305,-0.065
21:33:48.212,-0.365,0.055
21:33:48.216,-0.38,0.12
21:33:48.220,-0.405,0.18
21:33:48.224,-0.44,0.2
21:33:48.228,-0.465,0.21
21:33:48.232,-0.46,0.18
21:33:48.236,-0.425,0.17
21:33:48.240,-0.435,0.145
21:33:48.244,-0.445,0.135
21:33:48.248,-0.45,0.125
21:33:48.252,-0.44,0.13
21:33:48.256,-0.44,0.145
21:33:48.260,-0.44,0.115
21:33:48.264,-0.43,0.105
21:33:48.268,-0.405,0.09
21:33:48.272,-0.39,0.1
21:33:48.276,-0.38,0.07
21:33:48.280,-0.375,0.08
21:33:48.284,-0.385,0.085
21:33:48.288,-0.4,0.085
21:33:48.292,-0.39,0.105
21:33:48.296,-0.39,0.11
21:33:48.300,-0.36,0.125
21:33:48.304,-0.345,0.11
21:33:48.308,-0.37,0.11
21:33:48.312,-0.35,0.115
21:33:48.316,-0.335,0.135
21:33:48.320,-0.315,0.155
21:33:48.324,-0.315,0.145
21:33:48.328,-0.32,0.17
21:33:48.332,-0.33,0.18
21:33:48.336,-0.315,0.19
21:33:48.340,-0.335,0.18
21:33:48.344,-0.35,0.19
21:33:48.348,-0.37,0.195
21:33:48.352,-0.37,0.205
21:33:48.356,-0.365,0.215
21:33:48.360,-0.39,0.195
21:33:48.364,-0.395,0.225
21:33:48.368,-0.385,0.205
21:33:48.372,-0.395,0.23
21:33:48.376,-0.4,0.22
21:33:48.380,-0.38,0.22
21:33:48.384,-0.395,0.2
21:33:48.388,-0.38,0.185
21:33:48.392,-0.39,0.175
21:33:48.396,-0.415,0.155
21:33:48.400,-0.38,0.12
21:33:48.404,-0.38,0.105
21:33:48.408,-0.36,0.125
21:33:48.412,-0.345,0.105
21:33:48.416,-0.36,0.09
21:33:48.420,-0.37,0.07
21:33:48.424,-0.345,0.06
21:33:48.428,-0.345,0.07
21:33:48.432,-0.345,0.075
21:33:48.436,-0.3,0.055
21:33:48.440,-0.315,0.05
21:33:48.444,-0.31,0.025
21:33:48.448,-0.31,0.045
21:33:48.452,-0.305,0.055
21:33:48.456,-0.29,0.07
21:33:48.460,-0.285,0.065
21:33:48.464,-0.26,0.075
21:33:48.468,-0.235,0.07
21:33:48.472,-0.24,0.06
21:33:48.476,-0.265,0.08
21:33:48.480,-0.24,0.095
21:33:48.484,-0.195,0.1
21:33:48.488,-0.21,0.09
21:33:48.492,-0.215,0.1
21:33:48.496,-0.17,0.065
21:33:48.500,-0.14,0.055
21:33:48.504,-0.125,0.035
21:33:48.508,-0.105,0.02
21:33:48.512,-0.07,0.035
21:33:48.516,-0.07,0.015
21:33:48.520,-0.06,0.04
21:33:48.524,-0.095,0.04
21:33:48.528,-0.075,0.055
21:33:48.532,-0.06,0.055
21:33:48.536,-0.06,0.06
21:33:48.540,-0.08,0.075
21:33:48.544,-0.09,0.08
21:33:48.548,-0.105,0.075
21:33:48.552,-0.09,0.075
21:33:48.556,-0.11,0.1
21:33:48.560,-0.115,0.095
21:33:48.564,-0.12,0.1
21:33:48.568,-0.13,0.075
21:33:48.572,-0.16,0.09
21:33:48.576,-0.165,0.095
21:33:48.580,-0.16,0.085
21:33:48.584,-0.16,0.095
21:33:48.588,-0.19,0.115
21:33:48.592,-0.19,0.085
21:33:48.596,-0.18,0.075
21:33:48.600,-0.19,0.1
21:33:48.604,-0.22,0.07
21:33:48.608,-0.215,0.055
21:33:48.612,-0.23,0.06
21:33:48.616,-0.265,0.055
21:33:48.620,-0.265,0.045
21:33:48.624,-0.245,0.01
21:33:48.628,-0.2,0.005
21:33:48.632,-0.145,-0.01
21:33:48.636,-0.08,0.0
21:33:48.640,-0.01,-0.02
21:33:48.644,0.075,-0.005
21:33:48.648,0.115,-0.065
21:33:48.652,0.165,-0.07
21:33:48.656,0.2,-0.085
21:33:48.660,0.25,-0.08
21:33:48.664,0.22,-0.08
21:33:48.668,0.265,-0.155
21:33:48.672,0.47,-0.25
21:33:48.676,0.77,-0.45
21:33:48.680,1.04,-0.67
21:33:48.684,1.095,-0.9
21:33:48.688,0.855,-0.94
21:33:48.692,0.415,-0.77
21:33:48.696,-0.01,-0.48
21:33:48.700,-0.245,-0.215
21:33:48.704,-0.33,-0.07
21:33:48.708,-0.34,0.025
21:33:48.712,-0.335,0.095
21:33:48.716,-0.36,0.14
21:33:48.720,-0.36,0.155
21:33:48.724,-0.365,0.15
21:33:48.728,-0.35,0.12
21:33:48.732,-0.345,0.115
21:33:48.736,-0.325,0.105
21:33:48.740,-0.315,0.105
21:33:48.744,-0.29,0.115
21:33:48.748,-0.265,0.105
21:33:48.752,-0.27,0.125
21:33:48.756,-0.295,0.135
21:33:48.760,-0.265,0.11
21:33:48.764,-0.28,0.12
21:33:48.768,-0.295,0.115
21:33:48.772,-0.305,0.08
21:33:48.776,-0.33,0.1
21:33:48.780,-0.33,0.085
21:33:48.784,-0.365,0.055
21:33:48.788,-0.37,0.05
21:33:48.792,-0.37,0.03
21:33:48.796,-0.39,0.05
21:33:48.800,-0.39,0.07
21:33:48.804,-0.42,0.07
21:33:48.808,-0.425,0.07
21:33:48.812,-0.42,0.07
21:33:48.816,-0.45,0.065
21:33:48.820,-0.48,0.05
21:33:48.824,-0.51,0.03
21:33:48.828,-0.515,0.04
21:33:48.832,-0.555,0.05
21:33:48.836,-0.55,0.05
21:33:48.840,-0.55,0.03
21:33:48.844,-0.565,0.03
21:33:48.848,-0.57,0.02
21:33:48.852,-0.53,-0.005
21:33:48.856,-0.54,0.0
21:33:48.860,-0.535,-0.005
21:33:48.864,-0.53,0.0
21:33:48.868,-0.54,-0.035
21:33:48.872,-0.535,-0.04
21:33:48.876,-0.51,-0.045
21:33:48.880,-0.475,-0.05
21:33:48.884,-0.495,-0.04
21:33:48.888,-0.455,-0.04
21:33:48.892,-0.43,-0.06
21:33:48.896,-0.405,-0.055
21:33:48.900,-0.38,-0.06
21:33:48.904,-0.36,-0.085
21:33:48.908,-0.35,-0.085
21:33:48.912,-0.32,-0.09
21:33:48.916,-0.315,-0.095
21:33:48.920,-0.31,-0.09
21:33:48.924,-0.32,-0.08
21:33:48.928,-0.29,-0.085
21:33:48.932,-0.29,-0.095
21:33:48.936,-0.26,-0.105
21:33:48.940,-0.28,-0.075
21:33:48.944,-0.235,-0.095
21:33:48.948,-0.24,-0.095
21:33:48.952,-0.23,-0.1
21:33:48.956,-0.215,-0.07
21:33:48.960,-0.205,-0.045
21:33:48.964,-0.195,-0.035
21:33:48.968,-0.2,-0.025
21:33:48.972,-0.18,-0.01
21:33:48.976,-0.215,0.005
21:33:48.980,-0.21,0.035
21:33:48.984,-0.205,0.025
21:33:48.988,-0.195,0.06
21:33:48.992,-0.155,0.045
21:33:48.996,-0.15,0.055
21:33:49.000,-0.16,0.06
21:33:49.004,-0.16,0.015
21:33:49.008,-0.18,0.03
21:33:49.012,-0.18,0.035
21:33:49.016,-0.19,0.02
21:33:49.020,-0.2,0.025
21:33:49.024,-0.215,-0.01
21:33:49.028,-0.24,-0.005
21:33:49.032,-0.23,-0.005
21:33:49.036,-0.245,-0.035
21:33:49.040,-0.265,-0.035
21:33:49.044,-0.27,-0.045
21:33:49.048,-0.28,-0.04
21:33:49.052,-0.29,-0.05
21:33:49.056,-0.29,-0.065
21:33:49.060,-0.285,-0.05
21:33:49.064,-0.315,-0.075
21:33:49.068,-0.305,-0.085
21:33:49.072,-0.305,-0.08
21:33:49.076,-0.315,-0.075
21:33:49.080,-0.305,-0.085
21:33:49.084,-0.32,-0.1
21:33:49.088,-0.295,-0.08
21:33:49.092,-0.29,-0.1
21:33:49.096,-0.315,-0.095
21:33:49.100,-0.315,-0.075
21:33:49.104,-0.3,-0.075
21:33:49.108,-0.29,-0.1
21:33:49.112,-0.285,-0.07
21:33:49.116,-0.26,-0.085
21:33:49.120,-0.265,-0.07
21:33:49.124,-0.25,-0.075
21:33:49.128,-0.24,-0.04
21:33:49.132,-0.275,-0.06
21:33:49.136,-0.27,-0.035
21:33:49.140,-0.225,-0.045
21:33:49.144,-0.26,-0.05
21:33:49.148,-0.26,-0.045
21:33:49.152,-0.26,-0.03
21:33:49.156,-0.255,-0.045
21:33:49.160,-0.275,-0.03
21:33:49.164,-0.255,0.0
21:33:49.168,-0.24,-0.01
21:33:49.172,-0.23,-0.02
21:33:49.176,-0.245,0.0
21:33:49.180,-0.255,0.01
21:33:49.184,-0.22,0.005
21:33:49.188,-0.235,0.035
21:33:49.192,-0.22,0.04
21:33:49.196,-0.215,0.04
21:33:49.200,-0.2,0.03
21:33:49.204,-0.19,0.045
21:33:49.208,-0.215,0.045
21:33:49.212,-0.205,0.065
21:33:49.216,-0.215,0.055
21:33:49.220,-0.215,0.07
21:33:49.224,-0.225,0.095
21:33:49.228,-0.25,0.09
21:33:49.232,-0.235,0.075
21:33:49.236,-0.23,0.085
21:33:49.240,-0.225,0.08
21:33:49.244,-0.225,0.1
21:33:49.248,-0.19,0.1
21:33:49.252,-0.2,0.08
21:33:49.256,-0.205,0.075
21:33:49.260,-0.2,0.045
21:33:49.264,-0.215,0.035
21:33:49.268,-0.21,0.02
21:33:49.272,-0.215,0.0
21:33:49.276,-0.24,-0.01
21:33:49.280,-0.235,-0.01
21:33:49.284,-0.255,-0.015
21:33:49.288,-0.255,-0.03
21:33:49.292,-0.26,-0.04
21:33:49.296,-0.235,-0.04
21:33:49.300,-0.245,-0.055
21:33:49.304,-0.245,-0.04
21:33:49.308,-0.265,-0.025
21:33:49.312,-0.27,-0.045
21:33:49.316,-0.26,-0.045
21:33:49.320,-0.24,-0.02
21:33:49.324,-0.21,-0.035
21:33:49.328,-0.2,-0.035
21:33:49.332,-0.19,-0.035
21:33:49.336,-0.19,-0.02
21:33:49.340,-0.165,-0.01
21:33:49.344,-0.15,-0.005
21:33:49.348,-0.16,0.0
21:33:49.352,-0.14,0.0
21:33:49.356,-0.07,-0.015
21:33:49.360,-0.04,-0.02
21:33:49.364,0.04,-0.015
21:33:49.368,0.105,-0.005
21:33:49.372,0.155,-0.005
21:33:49.376,0.19,-0.07
21:33:49.380,0.225,-0.09
21:33:49.384,0.27,-0.08
21:33:49.388,0.26,-0.085
21:33:49.392,0.25,-0.115
21:33:49.396,0.345,-0.185
21:33:49.400,0.545,-0.29
21:33:49.404,0.85,-0.5
21:33:49.408,1.125,-0.775
21:33:49.412,1.2,-0.95
21:33:49.416,1.025,-1.045
21:33:49.420,0.585,-0.85
21:33:49.424,0.13,-0.51
21:33:49.428,-0.125,-0.205
21:33:49.432,-0.255,0.0
21:33:49.436,-0.29,0.08
21:33:49.440,-0.31,0.17
21:33:49.444,-0.315,0.23
21:33:49.448,-0.34,0.235
21:33:49.452,-0.37,0.26
21:33:49.456,-0.39,0.23
21:33:49.460,-0.37,0.22
21:33:49.464,-0.38,0.215
21:33:49.468,-0.39,0.18
21:33:49.472,-0.38,0.165
21:33:49.476,-0.365,0.18
21:33:49.480,-0.345,0.155
21:33:49.484,-0.35,0.125
21:33:49.488,-0.365,0.13
21:33:49.492,-0.355,0.08
21:33:49.496,-0.36,0.09
21:33:49.500,-0.355,0.065
21:33:49.504,-0.37,0.065
21:33:49.508,-0.395,0.06
21:33:49.512,-0.39,0.045
21:33:49.516,-0.375,0.05
21:33:49.520,-0.365,0.055
21:33:49.524,-0.37,0.05
21:33:49.528,-0.375,0.045
21:33:49.532,-0.38,0.05
21:33:49.536,-0.395,0.07
21:33:49.540,-0.38,0.075
21:33:49.544,-0.36,0.08
21:33:49.548,-0.36,0.07
21:33:49.552,-0.385,0.07
21:33:49.556,-0.38,0.08
21:33:49.560,-0.395,0.075
21:33:49.564,-0.39,0.105
21:33:49.568,-0.425,0.115
21:33:49.572,-0.44,0.09
21:33:49.576,-0.435,0.085
21:33:49.580,-0.445,0.095
21:33:49.584,-0.43,0.105
21:33:49.588,-0.44,0.09
21:33:49.592,-0.445,0.09
21:33:49.596,-0.43,0.09
21:33:49.600,-0.435,0.1
21:33:49.604,-0.43,0.085
21:33:49.608,-0.4,0.1
21:33:49.612,-0.4,0.085
21:33:49.616,-0.395,0.11
21:33:49.620,-0.41,0.095
21:33:49.624,-0.385,0.105
21:33:49.628,-0.375,0.11
21:33:49.632,-0.4,0.085
21:33:49.636,-0.405,0.08
21:33:49.640,-0.365,0.08
21:33:49.644,-0.365,0.075
21:33:49.648,-0.33,0.095
21:33:49.652,-0.33,0.075
21:33:49.656,-0.32,0.08
21:33:49.660,-0.295,0.075
21:33:49.664,-0.29,0.085
21:33:49.668,-0.28,0.075
21:33:49.672,-0.27,0.075
21:33:49.676,-0.255,0.09
21:33:49.680,-0.24,0.115
21:33:49.684,-0.225,0.075
21:33:49.688,-0.195,0.055
21:33:49.692,-0.175,0.08
21:33:49.696,-0.165,0.055
21:33:49.700,-0.165,0.035
21:33:49.704,-0.17,0.045
21:33:49.708,-0.15,0.02
21:33:49.712,-0.14,0.015
21:33:49.716,-0.145,0.015
21:33:49.720,-0.125,0.0
21:33:49.724,-0.125,-0.025
21:33:49.728,-0.12,-0.01
21:33:49.732,-0.135,0.005
21:33:49.736,-0.125,-0.005
21:33:49.740,-0.125,0.0
21:33:49.744,-0.12,0.01
21:33:49.748,-0.135,0.005
21:33:49.752,-0.125,0.0
21:33:49.756,-0.115,0.005
21:33:49.760,-0.14,-0.005
21:33:49.764,-0.17,0.02
21:33:49.768,-0.175,0.015
21:33:49.772,-0.14,0.02
21:33:49.776,-0.16,0.025
21:33:49.780,-0.16,0.005
21:33:49.784,-0.2,0.06
21:33:49.788,-0.19,0.05
21:33:49.792,-0.17,0.055
21:33:49.796,-0.205,0.05
21:33:49.800,-0.205,0.035
21:33:49.804,-0.215,0.02
21:33:49.808,-0.23,0.01
21:33:49.812,-0.23,0.035
21:33:49.816,-0.25,0.02
21:33:49.820,-0.235,0.005
21:33:49.824,-0.245,0.01
21:33:49.828,-0.25,0.01
21:33:49.832,-0.275,0.02
21:33:49.836,-0.27,0.035
21:33:49.840,-0.285,0.055
21:33:49.844,-0.28,0.04
21:33:49.848,-0.305,0.035
21:33:49.852,-0.3,0.05
21:33:49.856,-0.32,0.06
21:33:49.860,-0.345,0.055
21:33:49.864,-0.35,0.075
21:33:49.868,-0.335,0.07
21:33:49.872,-0.36,0.06
21:33:49.876,-0.355,0.065
21:33:49.880,-0.35,0.065
21:33:49.884,-0.34,0.06
21:33:49.888,-0.315,0.045
21:33:49.892,-0.28,0.06
21:33:49.896,-0.275,0.05
21:33:49.900,-0.25,0.01
21:33:49.904,-0.235,0.015
21:33:49.908,-0.22,0.0
21:33:49.912,-0.23,-0.005
21:33:49.916,-0.225,0.0
21:33:49.920,-0.215,-0.01
21:33:49.924,-0.23,-0.025
21:33:49.928,-0.23,-0.01
21:33:49.932,-0.22,0.0
21:33:49.936,-0.23,-0.025
21:33:49.940,-0.22,-0.02
21:33:49.944,-0.215,-0.015
21:33:49.948,-0.225,-0.025
21:33:49.952,-0.215,-0.03
21:33:49.956,-0.22,-0.015
21:33:49.960,-0.23,-0.025
21:33:49.964,-0.26,0.0
21:33:49.968,-0.24,-0.025
21:33:49.972,-0.23,-0.03
21:33:49.976,-0.245,-0.03
21:33:49.980,-0.225,-0.01
21:33:49.984,-0.23,-0.015
21:33:49.988,-0.21,0.0
21:33:49.992,-0.2,0.0
21:33:49.996,-0.155,0.0
21:33:50.000,-0.105,0.01
21:33:50.004,-0.025,-0.005
21:33:50.008,0.04,-0.005
21:33:50.012,0.11,-0.025
21:33:50.016,0.135,-0.075
21:33:50.020,0.155,-0.11
21:33:50.024,0.155,-0.09
21:33:50.028,0.16,-0.105
21:33:50.032,0.15,-0.12
21:33:50.036,0.25,-0.215
21:33:50.040,0.475,-0.345
21:33:50.044,0.795,-0.56
21:33:50.048,1.025,-0.795
21:33:50.052,1.095,-0.955
21:33:50.056,0.81,-1.015
21:33:50.060,0.335,-0.795
21:33:50.064,-0.055,-0.435
21:33:50.068,-0.28,-0.145
21:33:50.072,-0.375,0.02
21:33:50.076,-0.445,0.15
21:33:50.080,-0.43,0.225
21:33:50.084,-0.445,0.235
21:33:50.088,-0.48,0.255
21:33:50.092,-0.475,0.235
21:33:50.096,-0.475,0.245
21:33:50.100,-0.46,0.21
21:33:50.104,-0.46,0.185
21:33:50.108,-0.45,0.16
21:33:50.112,-0.445,0.17
21:33:50.116,-0.425,0.135
21:33:50.120,-0.43,0.11
21:33:50.124,-0.44,0.095
21:33:50.128,-0.44,0.11
21:33:50.132,-0.435,0.085
21:33:50.136,-0.42,0.085
21:33:50.140,-0.44,0.055
21:33:50.144,-0.43,0.075
21:33:50.148,-0.42,0.07
21:33:50.152,-0.425,0.065
21:33:50.156,-0.46,0.075
21:33:50.160,-0.45,0.075
21:33:50.164,-0.455,0.055
21:33:50.168,-0.47,0.075
21:33:50.172,-0.465,0.05
21:33:50.176,-0.46,0.055
21:33:50.180,-0.47,0.07
21:33:50.184,-0.48,0.055
21:33:50.188,-0.48,0.07
21:33:50.192,-0.505,0.07
21:33:50.196,-0.525,0.05
21:33:50.200,-0.54,0.075
21:33:50.204,-0.555,0.075
21:33:50.208,-0.54,0.07
21:33:50.212,-0.54,0.06
21:33:50.216,-0.53,0.075
21:33:50.220,-0.525,0.1
21:33:50.224,-0.54,0.095
21:33:50.228,-0.51,0.095
21:33:50.232,-0.48,0.085
21:33:50.236,-0.5,0.1
21:33:50.240,-0.48,0.09
21:33:50.244,-0.47,0.085
21:33:50.248,-0.45,0.1
21:33:50.252,-0.41,0.095
21:33:50.256,-0.4,0.11
21:33:50.260,-0.375,0.12
21:33:50.264,-0.335,0.135
21:33:50.268,-0.32,0.11
21:33:50.272,-0.325,0.11
21:33:50.276,-0.335,0.125
21:33:50.280,-0.31,0.145
21:33:50.284,-0.325,0.135
21:33:50.288,-0.315,0.14
21:33:50.292,-0.32,0.135
21:33:50.296,-0.28,0.11
21:33:50.300,-0.265,0.11
21:33:50.304,-0.26,0.1
21:33:50.308,-0.205,0.11
21:33:50.312,-0.205,0.105
21:33:50.316,-0.165,0.1
21:33:50.320,-0.16,0.08
21:33:50.324,-0.155,0.09
21:33:50.328,-0.125,0.07
21:33:50.332,-0.12,0.055
21:33:50.336,-0.115,0.045
21:33:50.340,-0.145,0.035
21:33:50.344,-0.14,0.05
21:33:50.348,-0.165,0.045
21:33:50.352,-0.195,0.06
21:33:50.356,-0.19,0.035
21:33:50.360,-0.205,0.055
21:33:50.364,-0.21,0.04
21:33:50.368,-0.225,0.035
21:33:50.372,-0.25,0.04
21:33:50.376,-0.265,0.05
21:33:50.380,-0.26,0.025
21:33:50.384,-0.27,0.03
21:33:50.388,-0.28,0.02
21:33:50.392,-0.295,0.02
21:33:50.396,-0.305,0.03
21:33:50.400,-0.32,0.035
21:33:50.404,-0.325,0.05
21:33:50.408,-0.325,0.04
21:33:50.412,-0.335,0.095
21:33:50.416,-0.335,0.06
21:33:50.420,-0.32,0.05
21:33:50.424,-0.3,0.05
21:33:50.428,-0.315,0.065
21:33:50.432,-0.32,0.05
21:33:50.436,-0.305,0.085
21:33:50.440,-0.32,0.075
21:33:50.444,-0.31,0.065
21:33:50.448,-0.295,0.085
21:33:50.452,-0.295,0.1
21:33:50.456,-0.3,0.1
21:33:50.460,-0.305,0.125
21:33:50.464,-0.31,0.13
21:33:50.468,-0.295,0.12
21:33:50.472,-0.285,0.145
21:33:50.476,-0.275,0.15
21:33:50.480,-0.295,0.12
21:33:50.484,-0.29,0.105
21:33:50.488,-0.29,0.13
21:33:50.492,-0.32,0.115
21:33:50.496,-0.32,0.12
21:33:50.500,-0.325,0.135
21:33:50.504,-0.34,0.115
21:33:50.508,-0.315,0.12
21:33:50.512,-0.305,0.13
21:33:50.516,-0.305,0.115
21:33:50.520,-0.295,0.115
21:33:50.524,-0.265,0.09
21:33:50.528,-0.225,0.09
21:33:50.532,-0.22,0.095
21:33:50.536,-0.21,0.125
21:33:50.540,-0.2,0.095
21:33:50.544,-0.165,0.08
21:33:50.548,-0.18,0.075
21:33:50.552,-0.175,0.05
21:33:50.556,-0.17,0.04
21:33:50.560,-0.16,0.035
21:33:50.564,-0.13,0.03
21:33:50.568,-0.13,0.02
21:33:50.572,-0.07,0.025
21:33:50.576,-0.005,0.025
21:33:50.580,0.05,0.02
21:33:50.584,0.09,-0.04
21:33:50.588,0.1,-0.075
21:33:50.592,0.12,-0.095
21:33:50.596,0.115,-0.115
21:33:50.600,0.09,-0.1
21:33:50.604,0.085,-0.135
21:33:50.608,0.185,-0.235
21:33:50.612,0.435,-0.38
21:33:50.616,0.745,-0.605
21:33:50.620,0.99,-0.855
21:33:50.624,0.995,-1.035
21:33:50.628,0.715,-1.05
21:33:50.632,0.24,-0.835
21:33:50.636,-0.15,-0.48
21:33:50.640,-0.34,-0.18
21:33:50.644,-0.415,-0.01
21:33:50.648,-0.44,0.1
21:33:50.652,-0.435,0.145
21:33:50.656,-0.42,0.18
21:33:50.660,-0.4,0.195
21:33:50.664,-0.41,0.2
21:33:50.668,-0.415,0.2
21:33:50.672,-0.405,0.2
21:33:50.676,-0.45,0.185
21:33:50.680,-0.465,0.215
21:33:50.684,-0.47,0.21
21:33:50.688,-0.465,0.225
21:33:50.692,-0.475,0.215
21:33:50.696,-0.48,0.225
21:33:50.700,-0.465,0.22
21:33:50.704,-0.46,0.205
21:33:50.708,-0.475,0.215
21:33:50.712,-0.48,0.205
21:33:50.716,-0.49,0.2
21:33:50.720,-0.49,0.195
21:33:50.724,-0.485,0.155
21:33:50.728,-0.47,0.175
21:33:50.732,-0.48,0.19
21:33:50.736,-0.455,0.165
21:33:50.740,-0.455,0.15
21:33:50.744,-0.43,0.14
21:33:50.748,-0.43,0.15
21:33:50.752,-0.43,0.14
21:33:50.756,-0.405,0.14
21:33:50.760,-0.41,0.135
21:33:50.764,-0.42,0.125
21:33:50.768,-0.41,0.105
21:33:50.772,-0.44,0.12
21:33:50.776,-0.445,0.12
21:33:50.780,-0.455,0.105
21:33:50.784,-0.47,0.1
21:33:50.788,-0.48,0.115
21:33:50.792,-0.475,0.09
21:33:50.796,-0.505,0.075
21:33:50.800,-0.485,0.095
21:33:50.804,-0.515,0.085
21:33:50.808,-0.495,0.08
21:33:50.812,-0.515,0.055
21:33:50.816,-0.53,0.06
21:33:50.820,-0.51,0.05
21:33:50.824,-0.505,0.04
21:33:50.828,-0.485,0.03
21:33:50.832,-0.495,0.045
21:33:50.836,-0.45,0.035
21:33:50.840,-0.425,0.045
21:33:50.844,-0.41,0.005
21:33:50.848,-0.41,0.015
21:33:50.852,-0.39,0.025
21:33:50.856,-0.36,0.01
21:33:50.860,-0.32,0.01
21:33:50.864,-0.32,0.015
21:33:50.868,-0.305,0.005
21:33:50.872,-0.28,0.005
21:33:50.876,-0.245,0.02
21:33:50.880,-0.245,0.03
21:33:50.884,-0.25,0.055
21:33:50.888,-0.245,0.05
21:33:50.892,-0.255,0.075
21:33:50.896,-0.26,0.095
21:33:50.900,-0.26,0.085
21:33:50.904,-0.28,0.095
21:33:50.908,-0.26,0.095
21:33:50.912,-0.25,0.095
21:33:50.916,-0.245,0.12
21:33:50.920,-0.255,0.115
21:33:50.924,-0.255,0.095
21:33:50.928,-0.26,0.11
21:33:50.932,-0.245,0.11
21:33:50.936,-0.24,0.105
21:33:50.940,-0.22,0.13
21:33:50.944,-0.19,0.125
21:33:50.948,-0.18,0.11
21:33:50.952,-0.175,0.115
21:33:50.956,-0.165,0.1
21:33:50.960,-0.18,0.095
21:33:50.964,-0.2,0.11
21:33:50.968,-0.19,0.085
21:33:50.972,-0.185,0.09
21:33:50.976,-0.21,0.06
21:33:50.980,-0.21,0.05
21:33:50.984,-0.225,0.045
21:33:50.988,-0.225,0.05
21:33:50.992,-0.25,0.045
21:33:50.996,-0.28,0.045
21:33:51.000,-0.305,0.04
21:33:51.004,-0.33,0.04
21:33:51.008,-0.32,0.045
21:33:51.012,-0.34,0.04
21:33:51.016,-0.36,0.025
21:33:51.020,-0.34,0.03
21:33:51.024,-0.335,0.02
21:33:51.028,-0.365,0.03
21:33:51.032,-0.375,0.01
21:33:51.036,-0.36,0.01
21:33:51.040,-0.35,0.03
21:33:51.044,-0.355,0.005
21:33:51.048,-0.35,0.015
21:33:51.052,-0.35,0.04
21:33:51.056,-0.33,0.04
21:33:51.060,-0.335,0.045
21:33:51.064,-0.31,0.045
21:33:51.068,-0.32,0.05
21:33:51.072,-0.32,0.055
21:33:51.076,-0.305,0.065
21:33:51.080,-0.315,0.075
21:33:51.084,-0.3,0.09
21:33:51.088,-0.26,0.08
21:33:51.092,-0.235,0.105
21:33:51.096,-0.19,0.095
21:33:51.100,-0.11,0.11
21:33:51.104,-0.06,0.12
21:33:51.108,0.0,0.105
21:33:51.112,0.005,0.06
21:33:51.116,0.055,0.035
21:33:51.120,0.105,0.025
21:33:51.124,0.105,0.03
21:33:51.128,0.08,0.02
21:33:51.132,0.13,-0.04
21:33:51.136,0.28,-0.13
21:33:51.140,0.605,-0.285
21:33:51.144,0.885,-0.525
21:33:51.148,1.04,-0.74
21:33:51.152,0.925,-0.91
21:33:51.156,0.58,-0.855
21:33:51.160,0.14,-0.585
21:33:51.164,-0.14,-0.255
21:33:51.168,-0.24,-0.025
21:33:51.172,-0.28,0.12
21:33:51.176,-0.305,0.215
21:33:51.180,-0.315,0.265
21:33:51.184,-0.355,0.3
21:33:51.188,-0.37,0.285
21:33:51.192,-0.395,0.25
21:33:51.196,-0.42,0.195
21:33:51.200,-0.425,0.15
21:33:51.204,-0.435,0.13
21:33:51.208,-0.455,0.105
21:33:51.212,-0.49,0.09
21:33:51.216,-0.49,0.09
21:33:51.220,-0.515,0.09
21:33:51.224,-0.5,0.055
21:33:51.228,-0.52,0.055
21:33:51.232,-0.52,0.065
21:33:51.236,-0.535,0.06
21:33:51.240,-0.545,0.05
21:33:51.244,-0.565,0.06
21:33:51.248,-0.545,0.06
21:33:51.252,-0.565,0.08
21:33:51.256,-0.53,0.07
21:33:51.260,-0.54,0.09
21:33:51.264,-0.53,0.075
21:33:51.268,-0.52,0.09
21:33:51.272,-0.525,0.105
21:33:51.276,-0.525,0.11
21:33:51.280,-0.505,0.085
21:33:51.284,-0.5,0.105
21:33:51.288,-0.485,0.12
21:33:51.292,-0.51,0.125
21:33:51.296,-0.485,0.15
21:33:51.300,-0.51,0.17
21:33:51.304,-0.515,0.155
21:33:51.308,-0.535,0.17
21:33:51.312,-0.55,0.19
21:33:51.316,-0.555,0.18
21:33:51.320,-0.555,0.19
21:33:51.324,-0.565,0.195
21:33:51.328,-0.545,0.18
21:33:51.332,-0.52,0.18
21:33:51.336,-0.525,0.18
21:33:51.340,-0.52,0.185
21:33:51.344,-0.52,0.165
21:33:51.348,-0.49,0.15
21:33:51.352,-0.475,0.175
21:33:51.356,-0.455,0.155
21:33:51.360,-0.455,0.15
21:33:51.364,-0.385,0.165
21:33:51.368,-0.35,0.13
21:33:51.372,-0.35,0.115
21:33:51.376,-0.32,0.11
21:33:51.380,-0.285,0.1
21:33:51.384,-0.265,0.08
21:33:51.388,-0.24,0.095
21:33:51.392,-0.24,0.09
21:33:51.396,-0.215,0.095
21:33:51.400,-0.215,0.09
21:33:51.404,-0.22,0.075
21:33:51.408,-0.205,0.1
21:33:51.412,-0.205,0.045
21:33:51.416,-0.205,0.05
21:33:51.420,-0.205,0.035
21:33:51.424,-0.245,0.065
21:33:51.428,-0.245,0.06
21:33:51.432,-0.245,0.035
21:33:51.436,-0.25,0.055
21:33:51.440,-0.28,0.025
21:33:51.444,-0.29,0.035
21:33:51.448,-0.285,0.03
21:33:51.452,-0.3,0.015
21:33:51.456,-0.305,0.025
21:33:51.460,-0.295,0.025
21:33:51.464,-0.27,0.04
21:33:51.468,-0.26,0.03
21:33:51.472,-0.28,0.04
21:33:51.476,-0.285,0.025
21:33:51.480,-0.28,0.025
21:33:51.484,-0.27,0.035
21:33:51.488,-0.255,0.045
21:33:51.492,-0.24,0.06
21:33:51.496,-0.23,0.07
21:33:51.500,-0.22,0.08
21:33:51.504,-0.225,0.075
21:33:51.508,-0.255,0.09
21:33:51.512,-0.26,0.07
21:33:51.516,-0.27,0.085
21:33:51.520,-0.28,0.08
21:33:51.524,-0.285,0.08
21:33:51.528,-0.285,0.095
21:33:51.532,-0.3,0.105
21:33:51.536,-0.31,0.075
21:33:51.540,-0.32,0.08
21:33:51.544,-0.34,0.065
21:33:51.548,-0.33,0.055
21:33:51.552,-0.33,0.06
21:33:51.556,-0.36,0.055
21:33:51.560,-0.345,0.035
21:33:51.564,-0.33,0.05
21:33:51.568,-0.315,0.05
21:33:51.572,-0.325,0.025
21:33:51.576,-0.3,0.02
21:33:51.580,-0.28,0.02
21:33:51.584,-0.27,0.065
21:33:51.588,-0.26,0.05
21:33:51.592,-0.22,0.05
21:33:51.596,-0.19,0.05
21:33:51.600,-0.165,0.025
21:33:51.604,-0.155,0.03
21:33:51.608,-0.135,0.005
21:33:51.612,-0.125,0.01
21:33:51.616,-0.08,-0.005
21:33:51.620,-0.055,-0.005
21:33:51.624,-0.01,-0.015
21:33:51.628,0.08,-0.02
21:33:51.632,0.16,-0.04
21:33:51.636,0.215,-0.06
21:33:51.640,0.27,-0.06
21:33:51.644,0.31,-0.12
21:33:51.648,0.355,-0.09
21:33:51.652,0.345,-0.095
21:33:51.656,0.305,-0.12
21:33:51.660,0.365,-0.195
21:33:51.664,0.575,-0.265
21:33:51.668,0.875,-0.465
21:33:51.672,1.125,-0.69
21:33:51.676,1.115,-0.905
21:33:51.680,0.82,-0.985
21:33:51.684,0.34,-0.82
21:33:51.688,-0.045,-0.525
21:33:51.692,-0.225,-0.295
21:33:51.696,-0.28,-0.145
21:33:51.700,-0.335,-0.08
21:33:51.704,-0.34,0.025
21:33:51.708,-0.345,0.06
21:33:51.712,-0.36,0.08
21:33:51.716,-0.395,0.105
21:33:51.720,-0.405,0.11
21:33:51.724,-0.4,0.1
21:33:51.728,-0.41,0.085
21:33:51.732,-0.41,0.075
21:33:51.736,-0.435,0.09
21:33:51.740,-0.415,0.08
21:33:51.744,-0.44,0.085
21:33:51.748,-0.455,0.085
21:33:51.752,-0.49,0.06
21:33:51.756,-0.5,0.07
21:33:51.760,-0.51,0.08
21:33:51.764,-0.51,0.08
21:33:51.768,-0.5,0.08
21:33:51.772,-0.5,0.08
21:33:51.776,-0.5,0.07
21:33:51.780,-0.505,0.065
21:33:51.784,-0.525,0.065
21:33:51.788,-0.515,0.04
21:33:51.792,-0.545,0.045
21:33:51.796,-0.555,0.045
21:33:51.800,-0.535,0.055
21:33:51.804,-0.555,0.055
21:33:51.808,-0.53,0.055
21:33:51.812,-0.51,0.07
21:33:51.816,-0.485,0.045
21:33:51.820,-0.465,0.035
21:33:51.824,-0.45,0.03
21:33:51.828,-0.43,0.02
21:33:51.832,-0.42,0.01
21:33:51.836,-0.41,0.005
21:33:51.840,-0.445,-0.015
21:33:51.844,-0.415,0.0
21:33:51.848,-0.43,0.0
21:33:51.852,-0.45,-0.025
21:33:51.856,-0.445,-0.035
21:33:51.860,-0.43,-0.035
21:33:51.864,-0.425,-0.035
21:33:51.868,-0.45,-0.03
21:33:51.872,-0.455,-0.04
21:33:51.876,-0.455,-0.035
21:33:51.880,-0.46,-0.055
21:33:51.884,-0.45,-0.06
21:33:51.888,-0.435,-0.08
21:33:51.892,-0.4,-0.08
21:33:51.896,-0.385,-0.085
21:33:51.900,-0.375,-0.1
21:33:51.904,-0.38,-0.1
21:33:51.908,-0.335,-0.135
21:33:51.912,-0.32,-0.1
21:33:51.916,-0.31,-0.1
21:33:51.920,-0.295,-0.08
21:33:51.924,-0.275,-0.095
21:33:51.928,-0.255,-0.1
21:33:51.932,-0.265,-0.1
21:33:51.936,-0.25,-0.08
21:33:51.940,-0.245,-0.095
21:33:51.944,-0.24,-0.075
21:33:51.948,-0.25,-0.08
21:33:51.952,-0.28,-0.095
21:33:51.956,-0.265,-0.06
21:33:51.960,-0.245,-0.04
21:33:51.964,-0.255,-0.055
21:33:51.968,-0.27,-0.04
21:33:51.972,-0.28,-0.075
21:33:51.976,-0.275,-0.065
21:33:51.980,-0.27,-0.06
21:33:51.984,-0.305,-0.06
21:33:51.988,-0.315,-0.07
21:33:51.992,-0.31,-0.055
21:33:51.996,-0.32,-0.06
21:33:52.000,-0.32,-0.07
21:33:52.004,-0.33,-0.055
21:33:52.008,-0.29,-0.05
21:33:52.012,-0.325,-0.085
21:33:52.016,-0.3,-0.09
21:33:52.020,-0.28,-0.09
21:33:52.024,-0.24,-0.085
21:33:52.028,-0.245,-0.08
21:33:52.032,-0.215,-0.06
21:33:52.036,-0.24,-0.065
21:33:52.040,-0.195,-0.075
21:33:52.044,-0.185,-0.05
21:33:52.048,-0.18,-0.06
21:33:52.052,-0.2,-0.065
21:33:52.056,-0.2,-0.03
21:33:52.060,-0.195,-0.04
21:33:52.064,-0.215,-0.07
21:33:52.068,-0.24,-0.06
21:33:52.072,-0.25,-0.05
21:33:52.076,-0.235,-0.03
21:33:52.080,-0.26,-0.035
21:33:52.084,-0.27,-0.05
21:33:52.088,-0.29,-0.06
21:33:52.092,-0.275,-0.06
21:33:52.096,-0.285,-0.08
21:33:52.100,-0.28,-0.05
21:33:52.104,-0.285,-0.05
21:33:52.108,-0.28,-0.035
21:33:52.112,-0.26,-0.06
21:33:52.116,-0.26,-0.075
21:33:52.120,-0.275,-0.05
21:33:52.124,-0.255,-0.065
21:33:52.128,-0.26,-0.06
21:33:52.132,-0.28,-0.045
21:33:52.136,-0.265,-0.015
21:33:52.140,-0.24,-0.04
21:33:52.144,-0.215,-0.04
21:33:52.148,-0.225,-0.015
21:33:52.152,-0.21,0.0
21:33:52.156,-0.195,-0.005
21:33:52.160,-0.215,0.025
21:33:52.164,-0.22,0.015
21:33:52.168,-0.225,0.045
21:33:52.172,-0.205,0.02
21:33:52.176,-0.18,0.035
21:33:52.180,-0.105,0.025
21:33:52.184,-0.07,0.03
21:33:52.188,0.005,0.025
21:33:52.192,0.065,0.0
21:33:52.196,0.095,-0.035
21:33:52.200,0.105,-0.07
21:33:52.204,0.155,-0.095
21:33:52.208,0.14,-0.1
21:33:52.212,0.155,-0.14
21:33:52.216,0.255,-0.205
21:33:52.220,0.495,-0.38
21:33:52.224,0.83,-0.56
21:33:52.228,1.045,-0.795
21:33:52.232,1.07,-0.985
21:33:52.236,0.745,-1.045
21:33:52.240,0.285,-0.885
21:33:52.244,-0.085,-0.56
21:33:52.248,-0.265,-0.255
21:33:52.252,-0.345,-0.09
21:33:52.256,-0.325,0.01
21:33:52.260,-0.36,0.085
21:33:52.264,-0.375,0.12
21:33:52.268,-0.38,0.145
21:33:52.272,-0.385,0.16
21:33:52.276,-0.385,0.14
21:33:52.280,-0.395,0.14
21:33:52.284,-0.405,0.125
21:33:52.288,-0.39,0.12
21:33:52.292,-0.4,0.09
21:33:52.296,-0.41,0.1
21:33:52.300,-0.42,0.1
21:33:52.304,-0.43,0.1
21:33:52.308,-0.46,0.11
21:33:52.312,-0.455,0.11
21:33:52.316,-0.44,0.125
21:33:52.320,-0.43,0.11
21:33:52.324,-0.41,0.11
21:33:52.328,-0.42,0.135
21:33:52.332,-0.46,0.13
21:33:52.336,-0.45,0.13
21:33:52.340,-0.46,0.12
21:33:52.344,-0.475,0.135
21:33:52.348,-0.47,0.115
21:33:52.352,-0.44,0.115
21:33:52.356,-0.445,0.13
21:33:52.360,-0.42,0.13
21:33:52.364,-0.44,0.14
21:33:52.368,-0.44,0.16
21:33:52.372,-0.43,0.145
21:33:52.376,-0.415,0.155
21:33:52.380,-0.43,0.165
21:33:52.384,-0.41,0.175
21:33:52.388,-0.41,0.19
21:33:52.392,-0.435,0.195
21:33:52.396,-0.425,0.175
21:33:52.400,-0.425,0.19
21:33:52.404,-0.435,0.15
21:33:52.408,-0.45,0.15
21:33:52.412,-0.44,0.145
21:33:52.416,-0.43,0.15
21:33:52.420,-0.41,0.145
21:33:52.424,-0.4,0.16
21:33:52.428,-0.39,0.15
21:33:52.432,-0.375,0.12
21:33:52.436,-0.355,0.145
21:33:52.440,-0.335,0.12
21:33:52.444,-0.345,0.12
21:33:52.448,-0.32,0.13
21:33:52.452,-0.31,0.12
21:33:52.456,-0.31,0.115
21:33:52.460,-0.27,0.085
21:33:52.464,-0.255,0.09
21:33:52.468,-0.225,0.085
21:33:52.472,-0.23,0.055
21:33:52.476,-0.25,0.08
21:33:52.480,-0.21,0.075
21:33:52.484,-0.2,0.085
21:33:52.488,-0.205,0.06
21:33:52.492,-0.195,0.075
21:33:52.496,-0.185,0.07
21:33:52.500,-0.175,0.08
21:33:52.504,-0.17,0.05
21:33:52.508,-0.17,0.05
21:33:52.512,-0.185,0.095
21:33:52.516,-0.21,0.085
21:33:52.520,-0.215,0.085
21:33:52.524,-0.235,0.085
21:33:52.528,-0.255,0.08
21:33:52.532,-0.265,0.075
21:33:52.536,-0.255,0.085
21:33:52.540,-0.24,0.08
21:33:52.544,-0.25,0.06
21:33:52.548,-0.235,0.07
21:33:52.552,-0.235,0.095
21:33:52.556,-0.25,0.075
21:33:52.560,-0.255,0.08
21:33:52.564,-0.255,0.07
21:33:52.568,-0.245,0.065
21:33:52.572,-0.225,0.08
21:33:52.576,-0.225,0.06
21:33:52.580,-0.205,0.06
21:33:52.584,-0.23,0.07
21:33:52.588,-0.225,0.07
21:33:52.592,-0.245,0.075
21:33:52.596,-0.235,0.095
21:33:52.600,-0.245,0.075
21:33:52.604,-0.24,0.07
21:33:52.608,-0.245,0.07
21:33:52.612,-0.245,0.08
21:33:52.616,-0.24,0.085
21:33:52.620,-0.235,0.095
21:33:52.624,-0.235,0.1
21:33:52.628,-0.25,0.095
21:33:52.632,-0.23,0.095
21:33:52.636,-0.205,0.1
21:33:52.640,-0.2,0.105
21:33:52.644,-0.205,0.08
21:33:52.648,-0.2,0.09
21:33:52.652,-0.21,0.11
21:33:52.656,-0.185,0.07
21:33:52.660,-0.205,0.09
21:33:52.664,-0.165,0.09
21:33:52.668,-0.17,0.1
21:33:52.672,-0.19,0.11
21:33:52.676,-0.19,0.115
21:33:52.680,-0.175,0.1
21:33:52.684,-0.18,0.07
21:33:52.688,-0.185,0.075
21:33:52.692,-0.18,0.095
21:33:52.696,-0.135,0.08
21:33:52.700,-0.085,0.08
21:33:52.704,-0.04,0.075
21:33:52.708,0.035,0.035
21:33:52.712,0.125,0.045
21:33:52.716,0.145,0.05
21:33:52.720,0.19,0.015
21:33:52.724,0.215,-0.02
21:33:52.728,0.23,-0.06
21:33:52.732,0.215,-0.04
21:33:52.736,0.17,-0.075
21:33:52.740,0.235,-0.13
21:33:52.744,0.415,-0.26
21:33:52.748,0.74,-0.45
21:33:52.752,0.975,-0.7
21:33:52.756,1.065,-0.935
21:33:52.760,0.845,-1.045
21:33:52.764,0.415,-0.905
21:33:52.768,-0.035,-0.58
21:33:52.772,-0.27,-0.28
21:33:52.776,-0.345,-0.07
21:33:52.780,-0.395,0.025
21:33:52.784,-0.38,0.12
21:33:52.788,-0.4,0.155
21:33:52.792,-0.425,0.165
21:33:52.796,-0.44,0.18
21:33:52.800,-0.445,0.15
21:33:52.804,-0.455,0.17
21:33:52.808,-0.455,0.155
21:33:52.812,-0.45,0.13
21:33:52.816,-0.45,0.12
21:33:52.820,-0.455,0.14
21:33:52.824,-0.455,0.12
21:33:52.828,-0.47,0.145
21:33:52.832,-0.45,0.13
21:33:52.836,-0.45,0.14
21:33:52.840,-0.445,0.145
21:33:52.844,-0.445,0.165
21:33:52.848,-0.435,0.165
21:33:52.852,-0.46,0.15
21:33:52.856,-0.47,0.16
21:33:52.860,-0.46,0.165
21:33:52.864,-0.44,0.165
21:33:52.868,-0.46,0.15
21:33:52.872,-0.47,0.16
21:33:52.876,-0.44,0.155
21:33:52.880,-0.46,0.115
21:33:52.884,-0.475,0.14
21:33:52.888,-0.45,0.115
21:33:52.892,-0.45,0.125
21:33:52.896,-0.47,0.13
21:33:52.900,-0.44,0.14
21:33:52.904,-0.44,0.135
21:33:52.908,-0.43,0.14
21:33:52.912,-0.4,0.135
21:33:52.916,-0.4,0.14
21:33:52.920,-0.41,0.135
21:33:52.924,-0.405,0.13
21:33:52.928,-0.39,0.145
21:33:52.932,-0.4,0.14
21:33:52.936,-0.365,0.13
21:33:52.940,-0.345,0.12
21:33:52.944,-0.34,0.1
21:33:52.948,-0.35,0.09
21:33:52.952,-0.345,0.08
21:33:52.956,-0.34,0.095
21:33:52.960,-0.345,0.085
21:33:52.964,-0.36,0.09
21:33:52.968,-0.34,0.08
21:33:52.972,-0.36,0.07
21:33:52.976,-0.34,0.07
21:33:52.980,-0.34,0.06
21:33:52.984,-0.345,0.035
21:33:52.988,-0.35,0.015
21:33:52.992,-0.335,0.025
21:33:52.996,-0.355,0.03
21:33:53.000,-0.36,0.0
21:33:53.004,-0.355,0.0
21:33:53.008,-0.335,0.01
21:33:53.012,-0.31,0.0
21:33:53.016,-0.31,-0.025
21:33:53.020,-0.26,-0.01
21:33:53.024,-0.275,-0.015
21:33:53.028,-0.245,0.0
21:33:53.032,-0.26,0.03
21:33:53.036,-0.23,0.01
21:33:53.040,-0.225,0.035
21:33:53.044,-0.215,0.025
21:33:53.048,-0.22,0.065
21:33:53.052,-0.225,0.05
21:33:53.056,-0.22,0.06
21:33:53.060,-0.215,0.075
21:33:53.064,-0.24,0.075
21:33:53.068,-0.245,0.065
21:33:53.072,-0.225,0.095
21:33:53.076,-0.23,0.1
21:33:53.080,-0.21,0.075
21:33:53.084,-0.245,0.1
21:33:53.088,-0.24,0.08
21:33:53.092,-0.225,0.07
21:33:53.096,-0.235,0.085
21:33:53.100,-0.24,0.05
21:33:53.104,-0.24,0.075
21:33:53.108,-0.205,0.095
21:33:53.112,-0.22,0.115
21:33:53.116,-0.195,0.095
21:33:53.120,-0.155,0.1
21:33:53.124,-0.14,0.095
21:33:53.128,-0.085,0.09
21:33:53.132,-0.1,0.1
21:33:53.136,-0.11,0.09
21:33:53.140,-0.11,0.11
21:33:53.144,-0.115,0.125
21:33:53.148,-0.125,0.125
21:33:53.152,-0.15,0.12
21:33:53.156,-0.175,0.12
21:33:53.160,-0.21,0.135
21:33:53.164,-0.22,0.135
21:33:53.168,-0.24,0.13
21:33:53.172,-0.255,0.13
21:33:53.176,-0.255,0.135
21:33:53.180,-0.27,0.135
21:33:53.184,-0.26,0.1
21:33:53.188,-0.26,0.09
21:33:53.192,-0.28,0.09
21:33:53.196,-0.265,0.075
21:33:53.200,-0.3,0.08
21:33:53.204,-0.28,0.07
21:33:53.208,-0.265,0.09
21:33:53.212,-0.255,0.055
21:33:53.216,-0.205,0.04
21:33:53.220,-0.135,0.005
21:33:53.224,-0.045,0.015
21:33:53.228,0.04,-0.03
21:33:53.232,0.095,-0.035
21:33:53.236,0.13,-0.07
21:33:53.240,0.125,-0.11
21:33:53.244,0.12,-0.12
21:33:53.248,0.095,-0.13
21:33:53.252,0.085,-0.155
21:33:53.256,0.15,-0.215
21:33:53.260,0.345,-0.325
21:33:53.264,0.67,-0.51
21:33:53.268,0.935,-0.74
21:33:53.272,1.02,-0.965
21:33:53.276,0.815,-1.085
21:33:53.280,0.37,-0.955
21:33:53.284,-0.06,-0.615
21:33:53.288,-0.295,-0.3
21:33:53.292,-0.39,-0.075
21:33:53.296,-0.42,0.05
21:33:53.300,-0.425,0.125
21:33:53.304,-0.425,0.165
21:33:53.308,-0.445,0.165
21:33:53.312,-0.45,0.17
21:33:53.316,-0.445,0.18
21:33:53.320,-0.46,0.14
21:33:53.324,-0.44,0.13
21:33:53.328,-0.425,0.11
21:33:53.332,-0.43,0.105
21:33:53.336,-0.37,0.09
21:33:53.340,-0.345,0.095
21:33:53.344,-0.345,0.125
21:33:53.348,-0.32,0.13
21:33:53.352,-0.3,0.125
21:33:53.356,-0.32,0.175
21:33:53.360,-0.33,0.155
21:33:53.364,-0.36,0.19
21:33:53.368,-0.37,0.2
21:33:53.372,-0.385,0.21
21:33:53.376,-0.41,0.21
21:33:53.380,-0.425,0.23
21:33:53.384,-0.455,0.24
21:33:53.388,-0.46,0.23
21:33:53.392,-0.49,0.23
21:33:53.396,-0.51,0.24
21:33:53.400,-0.495,0.23
21:33:53.404,-0.5,0.22
21:33:53.408,-0.52,0.21
21:33:53.412,-0.51,0.205
21:33:53.416,-0.5,0.2
21:33:53.420,-0.495,0.21
21:33:53.424,-0.5,0.19
21:33:53.428,-0.49,0.2
21:33:53.432,-0.475,0.18
21:33:53.436,-0.445,0.175
21:33:53.440,-0.45,0.17
21:33:53.444,-0.41,0.18
21:33:53.448,-0.39,0.155
21:33:53.452,-0.365,0.14
21:33:53.456,-0.34,0.145
21:33:53.460,-0.34,0.14
21:33:53.464,-0.335,0.12
21:33:53.468,-0.3,0.13
21:33:53.472,-0.295,0.125
21:33:53.476,-0.31,0.14
21:33:53.480,-0.295,0.14
21:33:53.484,-0.3,0.11
21:33:53.488,-0.29,0.11
21:33:53.492,-0.305,0.085
21:33:53.496,-0.295,0.105
21:33:53.500,-0.3,0.12
21:33:53.504,-0.28,0.1
21:33:53.508,-0.305,0.09
21:33:53.512,-0.275,0.095
21:33:53.516,-0.26,0.085
21:33:53.520,-0.235,0.055
21:33:53.524,-0.245,0.07
21:33:53.528,-0.25,0.045
21:33:53.532,-0.23,0.05
21:33:53.536,-0.215,0.065
21:33:53.540,-0.2,0.04
21:33:53.544,-0.19,0.05
21:33:53.548,-0.145,0.075
21:33:53.552,-0.12,0.065
21:33:53.556,-0.1,0.075
21:33:53.560,-0.09,0.07
21:33:53.564,-0.07,0.08
21:33:53.568,-0.07,0.105
21:33:53.572,-0.1,0.115
21:33:53.576,-0.125,0.125
21:33:53.580,-0.145,0.14
21:33:53.584,-0.175,0.14
21:33:53.588,-0.185,0.17
21:33:53.592,-0.215,0.18
21:33:53.596,-0.215,0.195
21:33:53.600,-0.22,0.21
21:33:53.604,-0.245,0.225
21:33:53.608,-0.26,0.2
21:33:53.612,-0.27,0.21
21:33:53.616,-0.255,0.195
21:33:53.620,-0.255,0.185
21:33:53.624,-0.255,0.18
21:33:53.628,-0.275,0.18
21:33:53.632,-0.26,0.16
21:33:53.636,-0.255,0.155
21:33:53.640,-0.275,0.155
21:33:53.644,-0.255,0.14
21:33:53.648,-0.25,0.15
21:33:53.652,-0.235,0.15
21:33:53.656,-0.23,0.145
21:33:53.660,-0.205,0.14
21:33:53.664,-0.195,0.115
21:33:53.668,-0.185,0.145
21:33:53.672,-0.18,0.095
21:33:53.676,-0.16,0.12
21:33:53.680,-0.165,0.15
21:33:53.684,-0.16,0.125
21:33:53.688,-0.16,0.135
21:33:53.692,-0.185,0.13
21:33:53.696,-0.19,0.12
21:33:53.700,-0.205,0.085
21:33:53.704,-0.21,0.05
21:33:53.708,-0.245,0.055
21:33:53.712,-0.245,0.04
21:33:53.716,-0.25,0.06
21:33:53.720,-0.27,0.06
21:33:53.724,-0.255,0.06
21:33:53.728,-0.235,0.045
21:33:53.732,-0.225,0.04
21:33:53.736,-0.215,0.04
21:33:53.740,-0.18,0.03
21:33:53.744,-0.13,0.025
21:33:53.748,-0.07,0.01
21:33:53.752,-0.015,0.005
21:33:53.756,0.075,0.0
21:33:53.760,0.13,-0.03
21:33:53.764,0.2,-0.06
21:33:53.768,0.25,-0.055
21:33:53.772,0.27,-0.08
21:33:53.776,0.28,-0.06
21:33:53.780,0.285,-0.1
21:33:53.784,0.42,-0.17
21:33:53.788,0.665,-0.29
21:33:53.792,0.955,-0.505
21:33:53.796,1.09,-0.77
21:33:53.800,0.97,-0.945
21:33:53.804,0.585,-0.91
21:33:53.808,0.105,-0.685
21:33:53.812,-0.22,-0.3
21:33:53.816,-0.335,-0.06
21:33:53.820,-0.425,0.085
21:33:53.824,-0.45,0.16
21:33:53.828,-0.43,0.235
21:33:53.832,-0.455,0.26
21:33:53.836,-0.47,0.245
21:33:53.840,-0.485,0.24
21:33:53.844,-0.475,0.21
21:33:53.848,-0.485,0.18
21:33:53.852,-0.48,0.15
21:33:53.856,-0.485,0.15
21:33:53.860,-0.505,0.155
21:33:53.864,-0.48,0.145
21:33:53.868,-0.49,0.15
21:33:53.872,-0.49,0.16
21:33:53.876,-0.48,0.155
21:33:53.880,-0.465,0.145
21:33:53.884,-0.47,0.16
21:33:53.888,-0.48,0.15
21:33:53.892,-0.455,0.135
21:33:53.896,-0.44,0.155
21:33:53.900,-0.47,0.15
21:33:53.904,-0.465,0.15
21:33:53.908,-0.45,0.155
21:33:53.912,-0.46,0.13
21:33:53.916,-0.44,0.14
21:33:53.920,-0.465,0.135
21:33:53.924,-0.445,0.145
21:33:53.928,-0.45,0.145
21:33:53.932,-0.47,0.175
21:33:53.936,-0.46,0.15
21:33:53.940,-0.455,0.165
21:33:53.944,-0.46,0.15
21:33:53.948,-0.45,0.17
21:33:53.952,-0.46,0.135
21:33:53.956,-0.455,0.145
21:33:53.960,-0.445,0.115
21:33:53.964,-0.455,0.105
21:33:53.968,-0.46,0.05
21:33:53.972,-0.44,0.065
21:33:53.976,-0.43,0.05
21:33:53.980,-0.405,0.015
21:33:53.984,-0.39,0.015
21:33:53.988,-0.365,0.025
21:33:53.992,-0.32,0.035
21:33:53.996,-0.275,0.02
21:33:54.000,-0.255,0.04
21:33:54.004,-0.245,0.025
21:33:54.008,-0.255,0.03
21:33:54.012,-0.28,0.03
21:33:54.016,-0.315,0.025
21:33:54.020,-0.315,0.03
21:33:54.024,-0.315,0.03
21:33:54.028,-0.34,0.02
21:33:54.032,-0.34,0.045
21:33:54.036,-0.34,0.035
21:33:54.040,-0.35,0.05
21:33:54.044,-0.33,0.035
21:33:54.048,-0.315,0.045
21:33:54.052,-0.31,0.025
21:33:54.056,-0.3,0.02
21:33:54.060,-0.29,0.02
21:33:54.064,-0.285,0.01
21:33:54.068,-0.29,0.0
21:33:54.072,-0.27,0.02
21:33:54.076,-0.26,0.02
21:33:54.080,-0.265,0.01
21:33:54.084,-0.25,0.01
21:33:54.088,-0.235,0.0
21:33:54.092,-0.24,0.015
21:33:54.096,-0.24,0.01
21:33:54.100,-0.23,0.01
21:33:54.104,-0.235,0.01
21:33:54.108,-0.23,0.025
21:33:54.112,-0.225,0.025
21:33:54.116,-0.23,0.04
21:33:54.120,-0.22,0.045
21:33:54.124,-0.24,0.045
21:33:54.128,-0.22,0.03
21:33:54.132,-0.24,0.03
21:33:54.136,-0.24,0.05
21:33:54.140,-0.26,0.02
21:33:54.144,-0.26,0.025
21:33:54.148,-0.265,0.01
21:33:54.152,-0.27,0.02
21:33:54.156,-0.27,0.02
21:33:54.160,-0.275,-0.005
21:33:54.164,-0.29,0.0
21:33:54.168,-0.26,-0.03
21:33:54.172,-0.255,-0.055
21:33:54.176,-0.245,-0.045
21:33:54.180,-0.25,-0.03
21:33:54.184,-0.245,-0.025
21:33:54.188,-0.21,0.0
21:33:54.192,-0.2,0.02
21:33:54.196,-0.18,0.03
21:33:54.200,-0.15,0.02
21:33:54.204,-0.115,0.02
21:33:54.208,-0.12,0.035
21:33:54.212,-0.125,0.035
21:33:54.216,-0.13,0.06
21:33:54.220,-0.11,0.065
21:33:54.224,-0.14,0.06
21:33:54.228,-0.155,0.03
21:33:54.232,-0.185,0.03
21:33:54.236,-0.205,0.0
21:33:54.240,-0.24,-0.025
21:33:54.244,-0.27,-0.035
21:33:54.248,-0.245,-0.02
21:33:54.252,-0.21,-0.03
21:33:54.256,-0.185,-0.04
21:33:54.260,-0.11,-0.04
21:33:54.264,0.0,-0.05
21:33:54.268,0.075,-0.07
21:33:54.272,0.135,-0.11
21:33:54.276,0.18,-0.16
21:33:54.280,0.235,-0.19
21:33:54.284,0.295,-0.155
21:33:54.288,0.295,-0.175
21:33:54.292,0.29,-0.165
21:33:54.296,0.385,-0.225
21:33:54.300,0.645,-0.33
21:33:54.304,0.925,-0.54
21:33:54.308,1.1,-0.75
21:33:54.312,1.01,-0.95
21:33:54.316,0.665,-0.98
21:33:54.320,0.19,-0.775
21:33:54.324,-0.1,-0.485
21:33:54.328,-0.245,-0.26
21:33:54.332,-0.3,-0.125
21:33:54.336,-0.325,-0.055
21:33:54.340,-0.345,-0.02
21:33:54.344,-0.38,0.04
21:33:54.348,-0.42,0.075
21:33:54.352,-0.395,0.07
21:33:54.356,-0.44,0.035
21:33:54.360,-0.43,0.025
21:33:54.364,-0.47,0.005
21:33:54.368,-0.45,-0.01
21:33:54.372,-0.46,0.0
21:33:54.376,-0.47,-0.02
21:33:54.380,-0.47,-0.015
21:33:54.384,-0.46,-0.055
21:33:54.388,-0.46,-0.05
21:33:54.392,-0.455,-0.05
21:33:54.396,-0.41,-0.05
21:33:54.400,-0.415,-0.045
21:33:54.404,-0.39,-0.045
21:33:54.408,-0.385,-0.055
21:33:54.412,-0.385,-0.03
21:33:54.416,-0.355,-0.01
21:33:54.420,-0.33,0.0
21:33:54.424,-0.325,0.015
21:33:54.428,-0.32,0.035
21:33:54.432,-0.31,0.065
21:33:54.436,-0.32,0.055
21:33:54.440,-0.34,0.085
21:33:54.444,-0.38,0.085
21:33:54.448,-0.395,0.11
21:33:54.452,-0.41,0.105
21:33:54.456,-0.42,0.085
21:33:54.460,-0.415,0.06
21:33:54.464,-0.43,0.07
21:33:54.468,-0.435,0.07
21:33:54.472,-0.43,0.04
21:33:54.476,-0.425,0.0
21:33:54.480,-0.43,-0.025
21:33:54.484,-0.42,-0.04
21:33:54.488,-0.415,-0.06
21:33:54.492,-0.415,-0.085
21:33:54.496,-0.395,-0.07
21:33:54.500,-0.38,-0.1
21:33:54.504,-0.36,-0.08
21:33:54.508,-0.35,-0.085
21:33:54.512,-0.375,-0.11
21:33:54.516,-0.345,-0.1
21:33:54.520,-0.33,-0.11
21:33:54.524,-0.31,-0.12
21:33:54.528,-0.32,-0.145
21:33:54.532,-0.325,-0.13
21:33:54.536,-0.315,-0.12
21:33:54.540,-0.32,-0.11
21:33:54.544,-0.315,-0.14
21:33:54.548,-0.33,-0.13
21:33:54.552,-0.32,-0.145
21:33:54.556,-0.31,-0.135
21:33:54.560,-0.285,-0.17
21:33:54.564,-0.285,-0.145
21:33:54.568,-0.3,-0.15
21:33:54.572,-0.29,-0.145
21:33:54.576,-0.295,-0.16
21:33:54.580,-0.29,-0.16
21:33:54.584,-0.28,-0.16
21:33:54.588,-0.28,-0.165
21:33:54.592,-0.265,-0.18
21:33:54.596,-0.245,-0.175
21:33:54.600,-0.235,-0.195
21:33:54.604,-0.235,-0.17
21:33:54.608,-0.22,-0.19
21:33:54.612,-0.195,-0.16
21:33:54.616,-0.195,-0.15
21:33:54.620,-0.205,-0.15
21:33:54.624,-0.175,-0.165
21:33:54.628,-0.18,-0.165
21:33:54.632,-0.13,-0.105
21:33:54.636,-0.12,-0.08
21:33:54.640,-0.12,-0.075
21:33:54.644,-0.1,-0.035
21:33:54.648,-0.095,0.0
21:33:54.652,-0.12,0.0
21:33:54.656,-0.12,-0.01
21:33:54.660,-0.135,-0.005
21:33:54.664,-0.125,0.005
21:33:54.668,-0.13,-0.005
21:33:54.672,-0.145,0.0
21:33:54.676,-0.11,-0.01
21:33:54.680,-0.13,-0.02
21:33:54.684,-0.15,-0.05
21:33:54.688,-0.15,-0.025
21:33:54.692,-0.14,-0.065
21:33:54.696,-0.14,-0.08
21:33:54.700,-0.14,-0.09
21:33:54.704,-0.145,-0.1
21:33:54.708,-0.145,-0.09
21:33:54.712,-0.155,-0.105
21:33:54.716,-0.165,-0.075
21:33:54.720,-0.175,-0.095
21:33:54.724,-0.185,-0.095
21:33:54.728,-0.165,-0.09
21:33:54.732,-0.17,-0.085
21:33:54.736,-0.185,-0.095
21:33:54.740,-0.16,-0.105
21:33:54.744,-0.13,-0.07
21:33:54.748,-0.145,-0.08
21:33:54.752,-0.155,-0.08
21:33:54.756,-0.16,-0.07
21:33:54.760,-0.18,-0.075
21:33:54.764,-0.175,-0.085
21:33:54.768,-0.16,-0.08
21:33:54.772,-0.14,-0.08
21:33:54.776,-0.08,-0.06
21:33:54.780,-0.01,-0.085
21:33:54.784,0.06,-0.07
21:33:54.788,0.115,-0.1
21:33:54.792,0.15,-0.13
21:33:54.796,0.18,-0.165
21:33:54.800,0.2,-0.17
21:33:54.804,0.23,-0.175
21:33:54.808,0.215,-0.2
21:33:54.812,0.26,-0.265
21:33:54.816,0.405,-0.335
21:33:54.820,0.685,-0.475
21:33:54.824,0.98,-0.7
21:33:54.828,1.125,-0.93
21:33:54.832,0.965,-1.08
21:33:54.836,0.545,-1.035
21:33:54.840,0.125,-0.76
21:33:54.844,-0.12,-0.425
21:33:54.848,-0.23,-0.215
21:33:54.852,-0.25,-0.06
21:33:54.856,-0.245,0.055
21:33:54.860,-0.255,0.11
21:33:54.864,-0.28,0.16
21:33:54.868,-0.295,0.15
21:33:54.872,-0.315,0.165
21:33:54.876,-0.305,0.15
21:33:54.880,-0.315,0.135
21:33:54.884,-0.335,0.11
21:33:54.888,-0.325,0.1
21:33:54.892,-0.32,0.08
21:33:54.896,-0.32,0.095
21:33:54.900,-0.34,0.095
21:33:54.904,-0.37,0.085
21:33:54.908,-0.355,0.06
21:33:54.912,-0.375,0.06
21:33:54.916,-0.405,0.045
21:33:54.920,-0.395,0.04
21:33:54.924,-0.39,0.05
21:33:54.928,-0.42,0.055
21:33:54.932,-0.435,0.06
21:33:54.936,-0.425,0.055
21:33:54.940,-0.42,0.045
21:33:54.944,-0.42,0.04
21:33:54.948,-0.415,0.045
21:33:54.952,-0.41,0.04
21:33:54.956,-0.415,0.04
21:33:54.960,-0.4,0.025
21:33:54.964,-0.425,0.035
21:33:54.968,-0.425,0.025
21:33:54.972,-0.42,0.035
21:33:54.976,-0.435,0.04
21:33:54.980,-0.445,0.04
21:33:54.984,-0.445,0.055
21:33:54.988,-0.46,0.045
21:33:54.992,-0.46,0.055
21:33:54.996,-0.45,0.045
21:33:55.000,-0.445,0.035
21:33:55.004,-0.46,0.04
21:33:55.008,-0.43,0.045
21:33:55.012,-0.45,0.025
21:33:55.016,-0.46,0.02
21:33:55.020,-0.45,0.01
21:33:55.024,-0.44,0.015
21:33:55.028,-0.445,0.015
21:33:55.032,-0.415,0.0
21:33:55.036,-0.415,-0.02
21:33:55.040,-0.38,-0.01
21:33:55.044,-0.375,-0.005
21:33:55.048,-0.34,-0.025
21:33:55.052,-0.31,-0.005
21:33:55.056,-0.28,-0.01
21:33:55.060,-0.255,-0.01
21:33:55.064,-0.235,0.01
21:33:55.068,-0.195,0.02
21:33:55.072,-0.16,0.02
21:33:55.076,-0.155,0.065
21:33:55.080,-0.145,0.075
21:33:55.084,-0.15,0.08
21:33:55.088,-0.175,0.075
21:33:55.092,-0.17,0.075
21:33:55.096,-0.195,0.075
21:33:55.100,-0.16,0.08
21:33:55.104,-0.15,0.07
21:33:55.108,-0.135,0.04
21:33:55.112,-0.155,0.055
21:33:55.116,-0.16,0.03
21:33:55.120,-0.15,0.03
21:33:55.124,-0.175,0.025
21:33:55.128,-0.195,0.03
21:33:55.132,-0.195,0.01
21:33:55.136,-0.21,0.015
21:33:55.140,-0.175,0.01
21:33:55.144,-0.19,0.01
21:33:55.148,-0.185,0.0
21:33:55.152,-0.195,-0.01
21:33:55.156,-0.185,0.025
21:33:55.160,-0.2,0.005
21:33:55.164,-0.215,0.015
21:33:55.168,-0.225,0.02
21:33:55.172,-0.215,0.025
21:33:55.176,-0.195,0.03
21:33:55.180,-0.21,0.015
21:33:55.184,-0.2,0.015
21:33:55.188,-0.2,0.025
21:33:55.192,-0.21,0.02
21:33:55.196,-0.245,0.045
21:33:55.200,-0.24,0.03
21:33:55.204,-0.24,0.035
21:33:55.208,-0.24,0.035
21:33:55.212,-0.26,0.045
21:33:55.216,-0.275,0.035
21:33:55.220,-0.285,0.02
21:33:55.224,-0.33,0.03
21:33:55.228,-0.335,-0.005
21:33:55.232,-0.355,0.0
21:33:55.236,-0.345,-0.005
21:33:55.240,-0.34,-0.01
21:33:55.244,-0.34,-0.025
21:33:55.248,-0.35,-0.03
21:33:55.252,-0.325,0.0
21:33:55.256,-0.31,0.02
21:33:55.260,-0.315,0.01
21:33:55.264,-0.29,0.005
21:33:55.268,-0.275,0.02
21:33:55.272,-0.23,0.03
21:33:55.276,-0.215,0.03
21:33:55.280,-0.175,0.05
21:33:55.284,-0.155,0.02
21:33:55.288,-0.1,0.06
21:33:55.292,-0.03,0.075
21:33:55.296,0.04,0.065
21:33:55.300,0.11,0.075
21:33:55.304,0.135,0.06
21:33:55.308,0.15,0.025
21:33:55.312,0.19,-0.01
21:33:55.316,0.185,-0.03
21:33:55.320,0.18,-0.05
21:33:55.324,0.205,-0.045
21:33:55.328,0.325,-0.145
21:33:55.332,0.575,-0.31
21:33:55.336,0.915,-0.515
21:33:55.340,1.12,-0.75
21:33:55.344,1.095,-1.0
21:33:55.348,0.795,-1.075
21:33:55.352,0.34,-0.865
21:33:55.356,-0.015,-0.525
21:33:55.360,-0.23,-0.22
21:33:55.364,-0.3,-0.025
21:33:55.368,-0.33,0.045
21:33:55.372,-0.345,0.11
21:33:55.376,-0.355,0.155
21:33:55.380,-0.395,0.15
21:33:55.384,-0.39,0.16
21:33:55.388,-0.375,0.155
21:33:55.392,-0.405,0.13
21:33:55.396,-0.395,0.105
21:33:55.400,-0.405,0.09
21:33:55.404,-0.4,0.09
21:33:55.408,-0.405,0.095
21:33:55.412,-0.41,0.095
21:33:55.416,-0.425,0.085
21:33:55.420,-0.44,0.095
21:33:55.424,-0.46,0.09
21:33:55.428,-0.465,0.13
21:33:55.432,-0.49,0.115
21:33:55.436,-0.46,0.12
21:33:55.440,-0.48,0.115
21:33:55.444,-0.51,0.105
21:33:55.448,-0.51,0.115
21:33:55.452,-0.51,0.12
21:33:55.456,-0.49,0.13
21:33:55.460,-0.505,0.105
21:33:55.464,-0.505,0.125
21:33:55.468,-0.51,0.115
21:33:55.472,-0.505,0.12
21:33:55.476,-0.495,0.125
21:33:55.480,-0.5,0.125
21:33:55.484,-0.485,0.13
21:33:55.488,-0.465,0.13
21:33:55.492,-0.44,0.115
21:33:55.496,-0.435,0.15
21:33:55.500,-0.41,0.155
21:33:55.504,-0.375,0.18
21:33:55.508,-0.41,0.195
21:33:55.512,-0.4,0.205
21:33:55.516,-0.395,0.21
21:33:55.520,-0.39,0.19
21:33:55.524,-0.4,0.17
21:33:55.528,-0.39,0.17
21:33:55.532,-0.385,0.15
21:33:55.536,-0.34,0.135
21:33:55.540,-0.355,0.14
21:33:55.544,-0.34,0.115
21:33:55.548,-0.33,0.125
21:33:55.552,-0.3,0.1
21:33:55.556,-0.295,0.08
21:33:55.560,-0.29,0.095
21:33:55.564,-0.29,0.07
21:33:55.568,-0.285,0.075
21:33:55.572,-0.26,0.045
21:33:55.576,-0.245,0.045
21:33:55.580,-0.235,0.035
21:33:55.584,-0.18,0.025
21:33:55.588,-0.185,0.035
21:33:55.592,-0.19,0.03
21:33:55.596,-0.205,0.0
21:33:55.600,-0.175,0.02
21:33:55.604,-0.155,0.01
21:33:55.608,-0.16,0.02
21:33:55.612,-0.15,0.03
21:33:55.616,-0.15,0.03
21:33:55.620,-0.13,0.06
21:33:55.624,-0.165,0.06
21:33:55.628,-0.185,0.05
21:33:55.632,-0.175,0.07
21:33:55.636,-0.18,0.085
21:33:55.640,-0.22,0.085
21:33:55.644,-0.195,0.095
21:33:55.648,-0.21,0.095
21:33:55.652,-0.225,0.08
21:33:55.656,-0.23,0.07
21:33:55.660,-0.225,0.095
21:33:55.664,-0.235,0.07
21:33:55.668,-0.24,0.08
21:33:55.672,-0.24,0.095
21:33:55.676,-0.255,0.09
21:33:55.680,-0.25,0.1
21:33:55.684,-0.225,0.075
21:33:55.688,-0.225,0.075
21:33:55.692,-0.2,0.08
21:33:55.696,-0.165,0.095
21:33:55.700,-0.095,0.06
21:33:55.704,-0.03,0.075
21:33:55.708,0.03,0.08
21:33:55.712,0.05,0.08
21:33:55.716,0.085,0.05
21:33:55.720,0.07,0.035
21:33:55.724,0.04,0.045
21:33:55.728,0.01,0.055
21:33:55.732,0.005,0.035
21:33:55.736,0.085,0.015
21:33:55.740,0.315,-0.055
21:33:55.744,0.665,-0.24
21:33:55.748,0.935,-0.475
21:33:55.752,1.065,-0.73
21:33:55.756,0.95,-0.875
21:33:55.760,0.58,-0.82
21:33:55.764,0.18,-0.51
21:33:55.768,-0.08,-0.18
21:33:55.772,-0.235,0.045
21:33:55.776,-0.3,0.15
21:33:55.780,-0.345,0.205
21:33:55.784,-0.37,0.215
21:33:55.788,-0.365,0.205
21:33:55.792,-0.39,0.195
21:33:55.796,-0.37,0.175
21:33:55.800,-0.375,0.16
21:33:55.804,-0.385,0.15
21:33:55.808,-0.395,0.135
21:33:55.812,-0.39,0.13
21:33:55.816,-0.4,0.105
21:33:55.820,-0.405,0.11
21:33:55.824,-0.41,0.125
21:33:55.828,-0.42,0.125
21:33:55.832,-0.415,0.095
21:33:55.836,-0.405,0.11
21:33:55.840,-0.415,0.125
21:33:55.844,-0.41,0.145
21:33:55.848,-0.435,0.155
21:33:55.852,-0.445,0.145
21:33:55.856,-0.455,0.15
21:33:55.860,-0.465,0.16
21:33:55.864,-0.47,0.17
21:33:55.868,-0.47,0.16
21:33:55.872,-0.475,0.17
21:33:55.876,-0.485,0.165
21:33:55.880,-0.47,0.16
21:33:55.884,-0.495,0.18
21:33:55.888,-0.505,0.175
21:33:55.892,-0.51,0.17
21:33:55.896,-0.5,0.145
21:33:55.900,-0.485,0.16
21:33:55.904,-0.5,0.145
21:33:55.908,-0.485,0.135
21:33:55.912,-0.465,0.13
21:33:55.916,-0.465,0.11
21:33:55.920,-0.46,0.105
21:33:55.924,-0.445,0.115
21:33:55.928,-0.43,0.12
21:33:55.932,-0.415,0.115
21:33:55.936,-0.385,0.12
21:33:55.940,-0.395,0.15
21:33:55.944,-0.4,0.165
21:33:55.948,-0.39,0.17
21:33:55.952,-0.39,0.18
21:33:55.956,-0.39,0.15
21:33:55.960,-0.395,0.16
21:33:55.964,-0.37,0.165
21:33:55.968,-0.37,0.185
21:33:55.972,-0.365,0.18
21:33:55.976,-0.325,0.175
21:33:55.980,-0.29,0.175
21:33:55.984,-0.27,0.175
21:33:55.988,-0.255,0.125
21:33:55.992,-0.25,0.115
21:33:55.996,-0.245,0.11
21:33:56.000,-0.26,0.085
21:33:56.004,-0.245,0.045
21:33:56.008,-0.255,0.05
21:33:56.012,-0.21,0.05
21:33:56.016,-0.205,0.03
21:33:56.020,-0.225,0.035
21:33:56.024,-0.22,0.05
21:33:56.028,-0.22,0.04
21:33:56.032,-0.225,0.055
21:33:56.036,-0.22,0.03
21:33:56.040,-0.245,0.05
21:33:56.044,-0.235,0.055
21:33:56.048,-0.235,0.085
21:33:56.052,-0.25,0.06
21:33:56.056,-0.235,0.085
21:33:56.060,-0.24,0.085
21:33:56.064,-0.235,0.105
21:33:56.068,-0.245,0.105
21:33:56.072,-0.235,0.115
21:33:56.076,-0.245,0.095
21:33:56.080,-0.22,0.11
21:33:56.084,-0.24,0.1
21:33:56.088,-0.235,0.115
21:33:56.092,-0.235,0.105
21:33:56.096,-0.26,0.11
21:33:56.100,-0.255,0.1
21:33:56.104,-0.26,0.1
21:33:56.108,-0.27,0.085
21:33:56.112,-0.265,0.1
21:33:56.116,-0.3,0.08
21:33:56.120,-0.29,0.075
21:33:56.124,-0.285,0.07
21:33:56.128,-0.27,0.08
21:33:56.132,-0.27,0.07
21:33:56.136,-0.285,0.065
21:33:56.140,-0.29,0.075
21:33:56.144,-0.265,0.085
21:33:56.148,-0.265,0.085
21:33:56.152,-0.28,0.09
21:33:56.156,-0.28,0.095
21:33:56.160,-0.265,0.105
21:33:56.164,-0.275,0.125
21:33:56.168,-0.275,0.11
21:33:56.172,-0.28,0.14
21:33:56.176,-0.285,0.15
21:33:56.180,-0.3,0.135
21:33:56.184,-0.33,0.17
21:33:56.188,-0.355,0.17
21:33:56.192,-0.325,0.175
21:33:56.196,-0.335,0.175
21:33:56.200,-0.335,0.145
21:33:56.204,-0.33,0.18
21:33:56.208,-0.32,0.17
21:33:56.212,-0.3,0.16
21:33:56.216,-0.305,0.14
21:33:56.220,-0.285,0.155
21:33:56.224,-0.275,0.125
21:33:56.228,-0.295,0.115
21:33:56.232,-0.315,0.1
21:33:56.236,-0.31,0.075
21:33:56.240,-0.31,0.05
21:33:56.244,-0.29,0.045
21:33:56.248,-0.305,0.055
21:33:56.252,-0.31,0.06
21:33:56.256,-0.3,0.06
21:33:56.260,-0.295,0.075
21:33:56.264,-0.32,0.08
21:33:56.268,-0.285,0.085
21:33:56.272,-0.295,0.07
21:33:56.276,-0.28,0.08
21:33:56.280,-0.27,0.1
21:33:56.284,-0.26,0.105
21:33:56.288,-0.27,0.075
21:33:56.292,-0.25,0.075
21:33:56.296,-0.275,0.085
21:33:56.300,-0.295,0.085
21:33:56.304,-0.28,0.07
21:33:56.308,-0.28,0.08
21:33:56.312,-0.285,0.07
21:33:56.316,-0.29,0.09
21:33:56.320,-0.295,0.09
21:33:56.324,-0.275,0.08
21:33:56.328,-0.28,0.08
21:33:56.332,-0.27,0.095
21:33:56.336,-0.26,0.07
21:33:56.340,-0.265,0.07
21:33:56.344,-0.26,0.07
21:33:56.348,-0.26,0.06
21:33:56.352,-0.255,0.05
21:33:56.356,-0.24,0.06
21:33:56.360,-0.22,0.085
21:33:56.364,-0.16,0.095
21:33:56.368,-0.1,0.09
21:33:56.372,0.02,0.065
21:33:56.376,0.105,0.08
21:33:56.380,0.155,0.065
21:33:56.384,0.175,0.04
21:33:56.388,0.21,0.045
21:33:56.392,0.23,0.065
21:33:56.396,0.21,0.08
21:33:56.400,0.21,0.02
21:33:56.404,0.305,-0.035
21:33:56.408,0.535,-0.155
21:33:56.412,0.83,-0.37
21:33:56.416,1.065,-0.605
21:33:56.420,1.07,-0.835
21:33:56.424,0.805,-0.875
21:33:56.428,0.34,-0.685
21:33:56.432,-0.045,-0.35
21:33:56.436,-0.215,-0.075
21:33:56.440,-0.285,0.095
21:33:56.444,-0.335,0.19
21:33:56.448,-0.315,0.235
21:33:56.452,-0.34,0.275
21:33:56.456,-0.365,0.295
21:33:56.460,-0.385,0.27
21:33:56.464,-0.38,0.26
21:33:56.468,-0.38,0.26
21:33:56.472,-0.385,0.24
21:33:56.476,-0.38,0.2
21:33:56.480,-0.405,0.215
21:33:56.484,-0.4,0.2
21:33:56.488,-0.385,0.21
21:33:56.492,-0.385,0.205
21:33:56.496,-0.4,0.21
21:33:56.500,-0.37,0.205
21:33:56.504,-0.385,0.205
21:33:56.508,-0.4,0.225
21:33:56.512,-0.4,0.22
21:33:56.516,-0.405,0.215
21:33:56.520,-0.41,0.235
21:33:56.524,-0.425,0.205
21:33:56.528,-0.445,0.19
21:33:56.532,-0.455,0.215
21:33:56.536,-0.455,0.195
21:33:56.540,-0.45,0.185
21:33:56.544,-0.49,0.175
21:33:56.548,-0.495,0.165
21:33:56.552,-0.52,0.185
21:33:56.556,-0.5,0.175
21:33:56.560,-0.515,0.175
21:33:56.564,-0.485,0.165
21:33:56.568,-0.49,0.17
21:33:56.572,-0.48,0.18
21:33:56.576,-0.495,0.16
21:33:56.580,-0.48,0.175
21:33:56.584,-0.485,0.175
21:33:56.588,-0.475,0.185
21:33:56.592,-0.46,0.175
21:33:56.596,-0.42,0.21
21:33:56.600,-0.41,0.21
21:33:56.604,-0.395,0.2
21:33:56.608,-0.395,0.23
21:33:56.612,-0.42,0.245
21:33:56.616,-0.375,0.235
21:33:56.620,-0.415,0.245
21:33:56.624,-0.425,0.24
21:33:56.628,-0.42,0.24
21:33:56.632,-0.405,0.235
21:33:56.636,-0.4,0.24
21:33:56.640,-0.4,0.23
21:33:56.644,-0.38,0.22
21:33:56.648,-0.37,0.215
21:33:56.652,-0.34,0.19
21:33:56.656,-0.31,0.175
21:33:56.660,-0.29,0.17
21:33:56.664,-0.25,0.165
21:33:56.668,-0.245,0.12
21:33:56.672,-0.23,0.125
21:33:56.676,-0.235,0.1
21:33:56.680,-0.22,0.085
21:33:56.684,-0.21,0.09
21:33:56.688,-0.2,0.095
21:33:56.692,-0.21,0.07
21:33:56.696,-0.19,0.12
21:33:56.700,-0.18,0.075
21:33:56.704,-0.2,0.085
21:33:56.708,-0.18,0.08
21:33:56.712,-0.175,0.075
21:33:56.716,-0.2,0.075
21:33:56.720,-0.195,0.09
21:33:56.724,-0.18,0.095
21:33:56.728,-0.205,0.105
21:33:56.732,-0.19,0.095
21:33:56.736,-0.235,0.105
21:33:56.740,-0.27,0.105
21:33:56.744,-0.285,0.12
21:33:56.748,-0.31,0.12
21:33:56.752,-0.295,0.15
21:33:56.756,-0.335,0.13
21:33:56.760,-0.32,0.115
21:33:56.764,-0.32,0.11
21:33:56.768,-0.325,0.135
21:33:56.772,-0.335,0.12
21:33:56.776,-0.33,0.115
21:33:56.780,-0.305,0.11
21:33:56.784,-0.31,0.095
21:33:56.788,-0.31,0.11
21:33:56.792,-0.3,0.1
21:33:56.796,-0.29,0.12
21:33:56.800,-0.27,0.11
21:33:56.804,-0.27,0.12
21:33:56.808,-0.28,0.135
21:33:56.812,-0.25,0.155
21:33:56.816,-0.27,0.145
21:33:56.820,-0.255,0.145
21:33:56.824,-0.28,0.165
21:33:56.828,-0.28,0.17
21:33:56.832,-0.285,0.175
21:33:56.836,-0.29,0.16
21:33:56.840,-0.295,0.18
21:33:56.844,-0.3,0.175
21:33:56.848,-0.305,0.16
21:33:56.852,-0.315,0.15
21:33:56.856,-0.33,0.135
21:33:56.860,-0.295,0.145
21:33:56.864,-0.305,0.11
21:33:56.868,-0.28,0.105
21:33:56.872,-0.27,0.11
21:33:56.876,-0.255,0.09
21:33:56.880,-0.265,0.05
21:33:56.884,-0.24,0.05
21:33:56.888,-0.25,0.03
21:33:56.892,-0.24,0.01
21:33:56.896,-0.22,0.0
21:33:56.900,-0.225,0.015
21:33:56.904,-0.225,0.0
21:33:56.908,-0.235,0.01
21:33:56.912,-0.235,0.005
21:33:56.916,-0.225,0.0
21:33:56.920,-0.185,0.0
21:33:56.924,-0.105,0.005
21:33:56.928,-0.01,0.0
21:33:56.932,0.06,-0.01
21:33:56.936,0.13,-0.025
21:33:56.940,0.175,-0.05
21:33:56.944,0.23,-0.075
21:33:56.948,0.285,-0.1
21:33:56.952,0.31,-0.095
21:33:56.956,0.29,-0.095
21:33:56.960,0.285,-0.13
21:33:56.964,0.385,-0.175
21:33:56.968,0.63,-0.305
21:33:56.972,0.915,-0.49
21:33:56.976,1.06,-0.73
21:33:56.980,0.92,-0.875
21:33:56.984,0.525,-0.89
21:33:56.988,0.095,-0.675
21:33:56.992,-0.16,-0.375
21:33:56.996,-0.28,-0.185
21:33:57.000,-0.32,-0.06
21:33:57.004,-0.345,0.01
21:33:57.008,-0.385,0.085
21:33:57.012,-0.395,0.125
21:33:57.016,-0.425,0.145
21:33:57.020,-0.435,0.125
21:33:57.024,-0.45,0.14
21:33:57.028,-0.45,0.095
21:33:57.032,-0.48,0.08
21:33:57.036,-0.47,0.1
21:33:57.040,-0.465,0.09
21:33:57.044,-0.47,0.085
21:33:57.048,-0.505,0.08
21:33:57.052,-0.49,0.09
21:33:57.056,-0.49,0.095
21:33:57.060,-0.49,0.11
21:33:57.064,-0.47,0.09
21:33:57.068,-0.495,0.09
21:33:57.072,-0.475,0.065
21:33:57.076,-0.46,0.05
21:33:57.080,-0.47,0.04
21:33:57.084,-0.465,0.01
21:33:57.088,-0.48,0.005
21:33:57.092,-0.485,0.015
21:33:57.096,-0.475,0.0
21:33:57.100,-0.48,0.01
21:33:57.104,-0.47,0.0
21:33:57.108,-0.45,-0.025
21:33:57.112,-0.43,0.0
21:33:57.116,-0.445,-0.025
21:33:57.120,-0.435,-0.035
21:33:57.124,-0.45,-0.005
21:33:57.128,-0.46,-0.005
21:33:57.132,-0.48,-0.025
21:33:57.136,-0.43,-0.005
21:33:57.140,-0.435,-0.005
21:33:57.144,-0.44,-0.005
21:33:57.148,-0.455,0.0
21:33:57.152,-0.46,-0.01
21:33:57.156,-0.465,0.0
21:33:57.160,-0.485,0.01
21:33:57.164,-0.485,0.0
21:33:57.168,-0.485,0.0
21:33:57.172,-0.465,0.0
21:33:57.176,-0.465,-0.015
21:33:57.180,-0.45,-0.015
21:33:57.184,-0.44,-0.03
21:33:57.188,-0.39,-0.05
21:33:57.192,-0.385,-0.04
21:33:57.196,-0.385,-0.045
21:33:57.200,-0.385,-0.065
21:33:57.204,-0.375,-0.06
21:33:57.208,-0.34,-0.075
21:33:57.212,-0.335,-0.065
21:33:57.216,-0.335,-0.065
21:33:57.220,-0.33,-0.065
21:33:57.224,-0.34,-0.075
21:33:57.228,-0.355,-0.08
21:33:57.232,-0.335,-0.06
21:33:57.236,-0.325,-0.08
21:33:57.240,-0.31,-0.05
21:33:57.244,-0.31,-0.055
21:33:57.248,-0.28,-0.04
21:33:57.252,-0.275,-0.045
21:33:57.256,-0.25,-0.03
21:33:57.260,-0.265,-0.04
21:33:57.264,-0.295,-0.07
21:33:57.268,-0.285,-0.03
21:33:57.272,-0.275,-0.025
21:33:57.276,-0.29,-0.03
21:33:57.280,-0.28,-0.05
21:33:57.284,-0.28,-0.06
21:33:57.288,-0.25,-0.065
21:33:57.292,-0.245,-0.075
21:33:57.296,-0.245,-0.1
21:33:57.300,-0.22,-0.105
21:33:57.304,-0.225,-0.09
21:33:57.308,-0.245,-0.085
21:33:57.312,-0.24,-0.1
21:33:57.316,-0.24,-0.12
21:33:57.320,-0.24,-0.12
21:33:57.324,-0.22,-0.135
21:33:57.328,-0.25,-0.13
21:33:57.332,-0.245,-0.12
21:33:57.336,-0.235,-0.145
21:33:57.340,-0.26,-0.13
21:33:57.344,-0.24,-0.125
21:33:57.348,-0.265,-0.14
21:33:57.352,-0.26,-0.1
21:33:57.356,-0.22,-0.095
21:33:57.360,-0.18,-0.09
21:33:57.364,-0.095,-0.115
21:33:57.368,-0.015,-0.12
21:33:57.372,0.06,-0.13
21:33:57.376,0.115,-0.185
21:33:57.380,0.155,-0.21
21:33:57.384,0.22,-0.21
21:33:57.388,0.22,-0.185
21:33:57.392,0.23,-0.185
21:33:57.396,0.325,-0.265
21:33:57.400,0.59,-0.34
21:33:57.404,0.905,-0.52
21:33:57.408,1.09,-0.765
21:33:57.412,1.055,-0.94
21:33:57.416,0.775,-1.045
21:33:57.420,0.31,-0.84
21:33:57.424,-0.035,-0.545
21:33:57.428,-0.195,-0.31
21:33:57.432,-0.28,-0.16
21:33:57.436,-0.3,-0.065
21:33:57.440,-0.305,0.03
21:33:57.444,-0.35,0.045
21:33:57.448,-0.37,0.07
21:33:57.452,-0.39,0.08
21:33:57.456,-0.39,0.055
21:33:57.460,-0.405,0.055
21:33:57.464,-0.42,0.025
21:33:57.468,-0.415,0.015
21:33:57.472,-0.41,0.02
21:33:57.476,-0.4,0.045
21:33:57.480,-0.395,0.035
21:33:57.484,-0.41,0.02
21:33:57.488,-0.415,0.025
21:33:57.492,-0.42,0.045
21:33:57.496,-0.42,0.07
21:33:57.500,-0.405,0.05
21:33:57.504,-0.395,0.07
21:33:57.508,-0.435,0.075
21:33:57.512,-0.425,0.075
21:33:57.516,-0.41,0.06
21:33:57.520,-0.44,0.06
21:33:57.524,-0.465,0.065
21:33:57.528,-0.48,0.05
21:33:57.532,-0.485,0.035
21:33:57.536,-0.465,0.04
21:33:57.540,-0.495,0.005
21:33:57.544,-0.49,0.0
21:33:57.548,-0.5,-0.015
21:33:57.552,-0.53,-0.045
21:33:57.556,-0.54,-0.02
21:33:57.560,-0.575,-0.02
21:33:57.564,-0.575,-0.015
21:33:57.568,-0.57,-0.03
21:33:57.572,-0.59,-0.005
21:33:57.576,-0.595,-0.035
21:33:57.580,-0.595,-0.02
21:33:57.584,-0.57,-0.035
21:33:57.588,-0.565,-0.025
21:33:57.592,-0.535,-0.025
21:33:57.596,-0.515,-0.01
21:33:57.600,-0.5,-0.03
21:33:57.604,-0.485,-0.01
21:33:57.608,-0.46,0.0
21:33:57.612,-0.42,0.0
21:33:57.616,-0.415,-0.01
21:33:57.620,-0.4,0.0
21:33:57.624,-0.375,0.02
21:33:57.628,-0.365,0.035
21:33:57.632,-0.31,0.025
21:33:57.636,-0.315,0.025
21:33:57.640,-0.3,0.02
21:33:57.644,-0.26,0.025
21:33:57.648,-0.23,0.025
21:33:57.652,-0.24,0.01
21:33:57.656,-0.255,0.03
21:33:57.660,-0.21,0.035
21:33:57.664,-0.19,0.045
21:33:57.668,-0.2,0.035
21:33:57.672,-0.18,0.035
21:33:57.676,-0.175,0.05
21:33:57.680,-0.18,0.06
21:33:57.684,-0.16,0.05
21:33:57.688,-0.155,0.05
21:33:57.692,-0.14,0.055
21:33:57.696,-0.11,0.06
21:33:57.700,-0.135,0.055
21:33:57.704,-0.135,0.055
21:33:57.708,-0.155,0.055
21:33:57.712,-0.125,0.055
21:33:57.716,-0.13,0.04
21:33:57.720,-0.13,0.06
21:33:57.724,-0.13,0.065
21:33:57.728,-0.145,0.07
21:33:57.732,-0.12,0.075
21:33:57.736,-0.125,0.09
21:33:57.740,-0.125,0.085
21:33:57.744,-0.12,0.095
21:33:57.748,-0.145,0.095
21:33:57.752,-0.15,0.1
21:33:57.756,-0.155,0.095
21:33:57.760,-0.145,0.08
21:33:57.764,-0.14,0.1
21:33:57.768,-0.105,0.075
21:33:57.772,-0.045,0.08
21:33:57.776,-0.005,0.055
21:33:57.780,0.055,0.025
21:33:57.784,0.115,-0.005
21:33:57.788,0.1,-0.04
21:33:57.792,0.09,-0.105
21:33:57.796,0.08,-0.1
21:33:57.800,0.06,-0.135
21:33:57.804,0.11,-0.16
21:33:57.808,0.27,-0.235
21:33:57.812,0.58,-0.355
21:33:57.816,0.9,-0.58
21:33:57.820,1.11,-0.83
21:33:57.824,1.13,-1.05
21:33:57.828,0.86,-1.09
21:33:57.832,0.415,-0.84
21:33:57.836,0.0,-0.5
21:33:57.840,-0.185,-0.19
21:33:57.844,-0.315,0.005
21:33:57.848,-0.335,0.085
21:33:57.852,-0.37,0.135
21:33:57.856,-0.37,0.175
21:33:57.860,-0.39,0.185
21:33:57.864,-0.39,0.185
21:33:57.868,-0.395,0.18
21:33:57.872,-0.4,0.165
21:33:57.876,-0.38,0.15
21:33:57.880,-0.38,0.135
21:33:57.884,-0.39,0.13
21:33:57.888,-0.4,0.13
21:33:57.892,-0.39,0.11
21:33:57.896,-0.38,0.115
21:33:57.900,-0.385,0.13
21:33:57.904,-0.42,0.12
21:33:57.908,-0.42,0.13
21:33:57.912,-0.41,0.105
21:33:57.916,-0.41,0.125
21:33:57.920,-0.415,0.11
21:33:57.924,-0.4,0.13
21:33:57.928,-0.41,0.13
21:33:57.932,-0.41,0.135
21:33:57.936,-0.405,0.14
21:33:57.940,-0.42,0.15
21:33:57.944,-0.44,0.135
21:33:57.948,-0.435,0.13
21:33:57.952,-0.46,0.15
21:33:57.956,-0.465,0.15
21:33:57.960,-0.46,0.15
21:33:57.964,-0.49,0.16
21:33:57.968,-0.49,0.135
21:33:57.972,-0.495,0.14
21:33:57.976,-0.49,0.125
21:33:57.980,-0.495,0.135
21:33:57.984,-0.49,0.135
21:33:57.988,-0.485,0.145
21:33:57.992,-0.455,0.12
21:33:57.996,-0.44,0.11
21:33:58.000,-0.44,0.1
21:33:58.004,-0.4,0.08
21:33:58.008,-0.4,0.1
21:33:58.012,-0.38,0.095
21:33:58.016,-0.375,0.075
21:33:58.020,-0.355,0.055
21:33:58.024,-0.33,0.04
21:33:58.028,-0.3,0.04
21:33:58.032,-0.285,0.04
21:33:58.036,-0.28,0.06
21:33:58.040,-0.275,0.035
21:33:58.044,-0.235,0.05
21:33:58.048,-0.23,0.04
21:33:58.052,-0.22,0.045
21:33:58.056,-0.22,0.065
21:33:58.060,-0.2,0.05
21:33:58.064,-0.175,0.04
21:33:58.068,-0.18,0.04
21:33:58.072,-0.165,0.03
21:33:58.076,-0.155,0.045
21:33:58.080,-0.14,0.065
21:33:58.084,-0.13,0.06
21:33:58.088,-0.15,0.075
21:33:58.092,-0.145,0.07
21:33:58.096,-0.135,0.065
21:33:58.100,-0.14,0.07
21:33:58.104,-0.16,0.085
21:33:58.108,-0.145,0.075
21:33:58.112,-0.155,0.085
21:33:58.116,-0.185,0.085
21:33:58.120,-0.19,0.09
21:33:58.124,-0.175,0.085
21:33:58.128,-0.175,0.075
21:33:58.132,-0.17,0.07
21:33:58.136,-0.18,0.075
21:33:58.140,-0.17,0.095
21:33:58.144,-0.215,0.095
21:33:58.148,-0.22,0.095
21:33:58.152,-0.22,0.125
21:33:58.156,-0.23,0.09
21:33:58.160,-0.25,0.085
21:33:58.164,-0.28,0.11
21:33:58.168,-0.27,0.1
21:33:58.172,-0.29,0.115
21:33:58.176,-0.3,0.09
21:33:58.180,-0.325,0.085
21:33:58.184,-0.35,0.1
21:33:58.188,-0.345,0.07
21:33:58.192,-0.33,0.085
21:33:58.196,-0.36,0.09
21:33:58.200,-0.37,0.06
21:33:58.204,-0.34,0.075
21:33:58.208,-0.33,0.075
21:33:58.212,-0.325,0.085
21:33:58.216,-0.305,0.06
21:33:58.220,-0.275,0.07
21:33:58.224,-0.245,0.055
21:33:58.228,-0.255,0.07
21:33:58.232,-0.26,0.045
21:33:58.236,-0.245,0.065
21:33:58.240,-0.24,0.055
21:33:58.244,-0.24,0.06
21:33:58.248,-0.235,0.07
21:33:58.252,-0.225,0.065
21:33:58.256,-0.225,0.065
21:33:58.260,-0.2,0.075
21:33:58.264,-0.22,0.095
21:33:58.268,-0.21,0.085
21:33:58.272,-0.225,0.1
21:33:58.276,-0.2,0.09
21:33:58.280,-0.22,0.105
21:33:58.284,-0.2,0.105
21:33:58.288,-0.205,0.11
21:33:58.292,-0.2,0.115
21:33:58.296,-0.235,0.095
21:33:58.300,-0.2,0.1
21:33:58.304,-0.225,0.095
21:33:58.308,-0.215,0.095
21:33:58.312,-0.175,0.085
21:33:58.316,-0.11,0.1
21:33:58.320,-0.035,0.095
21:33:58.324,0.045,0.065
21:33:58.328,0.105,0.045
21:33:58.332,0.115,0.035
21:33:58.336,0.175,-0.005
21:33:58.340,0.195,-0.03
21:33:58.344,0.175,-0.045
21:33:58.348,0.175,-0.04
21:33:58.352,0.205,-0.08
21:33:58.356,0.345,-0.2
21:33:58.360,0.62,-0.34
21:33:58.364,0.895,-0.58
21:33:58.368,1.045,-0.78
21:33:58.372,0.955,-0.96
21:33:58.376,0.605,-0.945
21:33:58.380,0.12,-0.66
21:33:58.384,-0.185,-0.33
21:33:58.388,-0.33,-0.08
21:33:58.392,-0.385,0.05
21:33:58.396,-0.435,0.155
21:33:58.400,-0.43,0.195
21:33:58.404,-0.43,0.24
21:33:58.408,-0.47,0.23
21:33:58.412,-0.475,0.255
21:33:58.416,-0.48,0.22
21:33:58.420,-0.48,0.225
21:33:58.424,-0.44,0.19
21:33:58.428,-0.445,0.175
21:33:58.432,-0.415,0.155
21:33:58.436,-0.39,0.125
21:33:58.440,-0.38,0.125
21:33:58.444,-0.35,0.135
21:33:58.448,-0.37,0.14
21:33:58.452,-0.365,0.135
21:33:58.456,-0.37,0.145
21:33:58.460,-0.355,0.145
21:33:58.464,-0.345,0.19
21:33:58.468,-0.335,0.215
21:33:58.472,-0.345,0.225
21:33:58.476,-0.325,0.22
21:33:58.480,-0.35,0.24
21:33:58.484,-0.335,0.235
21:33:58.488,-0.355,0.275
21:33:58.492,-0.35,0.27
21:33:58.496,-0.355,0.245
21:33:58.500,-0.375,0.255
21:33:58.504,-0.375,0.24
21:33:58.508,-0.37,0.245
21:33:58.512,-0.36,0.24
21:33:58.516,-0.375,0.255
21:33:58.520,-0.35,0.245
21:33:58.524,-0.36,0.23
21:33:58.528,-0.39,0.22
21:33:58.532,-0.36,0.225
21:33:58.536,-0.375,0.2
21:33:58.540,-0.345,0.21
21:33:58.544,-0.33,0.19
21:33:58.548,-0.35,0.185
21:33:58.552,-0.335,0.18
21:33:58.556,-0.32,0.165
21:33:58.560,-0.315,0.18
21:33:58.564,-0.315,0.15
21:33:58.568,-0.315,0.135
21:33:58.572,-0.315,0.165
21:33:58.576,-0.3,0.14
21:33:58.580,-0.28,0.125
21:33:58.584,-0.265,0.11
21:33:58.588,-0.285,0.15
21:33:58.592,-0.295,0.13
21:33:58.596,-0.29,0.11
21:33:58.600,-0.28,0.12
21:33:58.604,-0.29,0.105
21:33:58.608,-0.295,0.1
21:33:58.612,-0.3,0.095
21:33:58.616,-0.28,0.095
21:33:58.620,-0.265,0.1
21:33:58.624,-0.27,0.095
21:33:58.628,-0.275,0.095
21:33:58.632,-0.255,0.105
21:33:58.636,-0.23,0.125
21:33:58.640,-0.22,0.13
21:33:58.644,-0.18,0.075
21:33:58.648,-0.165,0.1
21:33:58.652,-0.145,0.1
21:33:58.656,-0.115,0.085
21:33:58.660,-0.135,0.075
21:33:58.664,-0.125,0.075
21:33:58.668,-0.125,0.105
21:33:58.672,-0.095,0.105
21:33:58.676,-0.115,0.135
21:33:58.680,-0.11,0.125
21:33:58.684,-0.105,0.165
21:33:58.688,-0.1,0.18
21:33:58.692,-0.11,0.19
21:33:58.696,-0.12,0.185
21:33:58.700,-0.12,0.185
21:33:58.704,-0.135,0.18
21:33:58.708,-0.13,0.21
21:33:58.712,-0.135,0.205
21:33:58.716,-0.145,0.185
21:33:58.720,-0.165,0.225
21:33:58.724,-0.175,0.2
21:33:58.728,-0.185,0.19
21:33:58.732,-0.19,0.19
21:33:58.736,-0.2,0.185
21:33:58.740,-0.19,0.195
21:33:58.744,-0.19,0.175
21:33:58.748,-0.2,0.165
21:33:58.752,-0.19,0.16
21:33:58.756,-0.2,0.15
21:33:58.760,-0.185,0.145
21:33:58.764,-0.215,0.14
21:33:58.768,-0.205,0.14
21:33:58.772,-0.22,0.125
21:33:58.776,-0.23,0.125
21:33:58.780,-0.215,0.135
21:33:58.784,-0.225,0.125
21:33:58.788,-0.23,0.11
21:33:58.792,-0.215,0.115
21:33:58.796,-0.22,0.1
21:33:58.800,-0.215,0.145
21:33:58.804,-0.205,0.115
21:33:58.808,-0.18,0.115
21:33:58.812,-0.14,0.115
21:33:58.816,-0.075,0.11
21:33:58.820,-0.025,0.09
21:33:58.824,0.02,0.105
21:33:58.828,0.045,0.08
21:33:58.832,0.065,0.045
21:33:58.836,0.06,0.015
21:33:58.840,0.06,0.025
21:33:58.844,0.03,0.02
21:33:58.848,0.055,-0.05
21:33:58.852,0.23,-0.12
21:33:58.856,0.545,-0.27
21:33:58.860,0.88,-0.485
21:33:58.864,1.07,-0.74
21:33:58.868,1.005,-0.915
21:33:58.872,0.68,-0.91
21:33:58.876,0.235,-0.67
21:33:58.880,-0.095,-0.335
21:33:58.884,-0.21,-0.065
21:33:58.888,-0.27,0.105
21:33:58.892,-0.29,0.21
21:33:58.896,-0.3,0.255
21:33:58.900,-0.33,0.265
21:33:58.904,-0.325,0.295
21:33:58.908,-0.33,0.275
21:33:58.912,-0.28,0.29
21:33:58.916,-0.34,0.275
21:33:58.920,-0.33,0.24
21:33:58.924,-0.345,0.23
21:33:58.928,-0.365,0.225
21:33:58.932,-0.365,0.22
21:33:58.936,-0.365,0.19
21:33:58.940,-0.395,0.205
21:33:58.944,-0.385,0.2
21:33:58.948,-0.37,0.2
21:33:58.952,-0.39,0.185
21:33:58.956,-0.4,0.18
21:33:58.960,-0.4,0.165
21:33:58.964,-0.41,0.165
21:33:58.968,-0.43,0.16
21:33:58.972,-0.41,0.17
21:33:58.976,-0.415,0.155
21:33:58.980,-0.42,0.18
21:33:58.984,-0.415,0.145
21:33:58.988,-0.44,0.16
21:33:58.992,-0.445,0.15
21:33:58.996,-0.445,0.145
21:33:59.000,-0.46,0.145
21:33:59.004,-0.45,0.14
21:33:59.008,-0.46,0.125
21:33:59.012,-0.475,0.155
21:33:59.016,-0.46,0.135
21:33:59.020,-0.445,0.105
21:33:59.024,-0.43,0.135
21:33:59.028,-0.425,0.13
21:33:59.032,-0.425,0.12
21:33:59.036,-0.425,0.145
21:33:59.040,-0.41,0.17
21:33:59.044,-0.4,0.17
21:33:59.048,-0.385,0.19
21:33:59.052,-0.4,0.155
21:33:59.056,-0.375,0.175
21:33:59.060,-0.36,0.175
21:33:59.064,-0.35,0.185
21:33:59.068,-0.355,0.18
21:33:59.072,-0.315,0.145
21:33:59.076,-0.31,0.15
21:33:59.080,-0.275,0.13
21:33:59.084,-0.24,0.115
21:33:59.088,-0.235,0.1
21:33:59.092,-0.19,0.09
21:33:59.096,-0.145,0.08
21:33:59.100,-0.14,0.095
21:33:59.104,-0.12,0.11
21:33:59.108,-0.115,0.105
21:33:59.112,-0.12,0.11
21:33:59.116,-0.14,0.13
21:33:59.120,-0.175,0.14
21:33:59.124,-0.17,0.16
21:33:59.128,-0.17,0.145
21:33:59.132,-0.18,0.17
21:33:59.136,-0.17,0.155
21:33:59.140,-0.205,0.17
21:33:59.144,-0.205,0.185
21:33:59.148,-0.195,0.175
21:33:59.152,-0.195,0.165
21:33:59.156,-0.21,0.185
21:33:59.160,-0.195,0.17
21:33:59.164,-0.205,0.165
21:33:59.168,-0.225,0.16
21:33:59.172,-0.225,0.14
21:33:59.176,-0.215,0.14
21:33:59.180,-0.24,0.15
21:33:59.184,-0.255,0.15
21:33:59.188,-0.27,0.14
21:33:59.192,-0.255,0.16
21:33:59.196,-0.275,0.155
21:33:59.200,-0.275,0.14
21:33:59.204,-0.29,0.13
21:33:59.208,-0.28,0.125
21:33:59.212,-0.285,0.115
21:33:59.216,-0.295,0.125
21:33:59.220,-0.305,0.13
21:33:59.224,-0.31,0.115
21:33:59.228,-0.32,0.125
21:33:59.232,-0.32,0.12
21:33:59.236,-0.345,0.115
21:33:59.240,-0.32,0.115
21:33:59.244,-0.32,0.115
21:33:59.248,-0.325,0.13
21:33:59.252,-0.325,0.135
21:33:59.256,-0.32,0.125
21:33:59.260,-0.33,0.14
21:33:59.264,-0.32,0.135
21:33:59.268,-0.325,0.165
21:33:59.272,-0.29,0.155
21:33:59.276,-0.28,0.165
21:33:59.280,-0.29,0.17
21:33:59.284,-0.29,0.15
21:33:59.288,-0.305,0.165
21:33:59.292,-0.3,0.175
21:33:59.296,-0.29,0.165
21:33:59.300,-0.29,0.165
21:33:59.304,-0.255,0.18
21:33:59.308,-0.215,0.15
21:33:59.312,-0.185,0.165
21:33:59.316,-0.14,0.135
21:33:59.320,-0.055,0.125
21:33:59.324,0.04,0.11
21:33:59.328,0.14,0.095
21:33:59.332,0.19,0.085
21:33:59.336,0.21,0.06
21:33:59.340,0.245,0.04
21:33:59.344,0.24,0.025
21:33:59.348,0.25,0.055
21:33:59.352,0.24,0.05
21:33:59.356,0.28,0.0
21:33:59.360,0.45,-0.075
21:33:59.364,0.755,-0.23
21:33:59.368,1.025,-0.455
21:33:59.372,1.14,-0.68
21:33:59.376,0.98,-0.86
21:33:59.380,0.58,-0.835
21:33:59.384,0.135,-0.555
21:33:59.388,-0.135,-0.24
21:33:59.392,-0.26,-0.01
21:33:59.396,-0.315,0.105
21:33:59.400,-0.35,0.175
21:33:59.404,-0.38,0.22
21:33:59.408,-0.395,0.255
21:33:59.412,-0.425,0.25
21:33:59.416,-0.46,0.24
21:33:59.420,-0.45,0.215
21:33:59.424,-0.45,0.185
21:33:59.428,-0.47,0.165
21:33:59.432,-0.49,0.14
21:33:59.436,-0.47,0.16
21:33:59.440,-0.495,0.16
21:33:59.444,-0.465,0.155
21:33:59.448,-0.485,0.165
21:33:59.452,-0.49,0.155
21:33:59.456,-0.485,0.16
21:33:59.460,-0.475,0.2
21:33:59.464,-0.47,0.19
21:33:59.468,-0.455,0.19
21:33:59.472,-0.44,0.19
21:33:59.476,-0.445,0.185
21:33:59.480,-0.45,0.22
21:33:59.484,-0.45,0.205
21:33:59.488,-0.465,0.225
21:33:59.492,-0.455,0.225
21:33:59.496,-0.45,0.245
21:33:59.500,-0.465,0.255
21:33:59.504,-0.49,0.265
21:33:59.508,-0.46,0.25
21:33:59.512,-0.47,0.255
21:33:59.516,-0.455,0.25
21:33:59.520,-0.39,0.225
21:33:59.524,-0.375,0.235
21:33:59.528,-0.345,0.215
21:33:59.532,-0.345,0.19
21:33:59.536,-0.34,0.205
21:33:59.540,-0.345,0.205
21:33:59.544,-0.345,0.22
21:33:59.548,-0.36,0.21
21:33:59.552,-0.35,0.18
21:33:59.556,-0.365,0.15
21:33:59.560,-0.365,0.155
21:33:59.564,-0.37,0.145
21:33:59.568,-0.325,0.15
21:33:59.572,-0.315,0.13
21:33:59.576,-0.3,0.145
21:33:59.580,-0.3,0.125
21:33:59.584,-0.29,0.125
21:33:59.588,-0.285,0.1
21:33:59.592,-0.27,0.08
21:33:59.596,-0.265,0.065
21:33:59.600,-0.24,0.095
21:33:59.604,-0.255,0.085
21:33:59.608,-0.225,0.055
21:33:59.612,-0.23,0.015
21:33:59.616,-0.235,0.02
21:33:59.620,-0.24,0.03
21:33:59.624,-0.24,0.01
21:33:59.628,-0.245,0.025
21:33:59.632,-0.255,0.02
21:33:59.636,-0.25,0.015
21:33:59.640,-0.225,0.0
21:33:59.644,-0.235,-0.01
21:33:59.648,-0.205,0.0
21:33:59.652,-0.22,-0.025
21:33:59.656,-0.205,0.0
21:33:59.660,-0.225,0.0
21:33:59.664,-0.21,0.015
21:33:59.668,-0.2,0.025
21:33:59.672,-0.235,0.025
21:33:59.676,-0.19,0.05
21:33:59.680,-0.18,0.05
21:33:59.684,-0.17,0.075
21:33:59.688,-0.175,0.09
21:33:59.692,-0.185,0.075
21:33:59.696,-0.2,0.085
21:33:59.700,-0.215,0.11
21:33:59.704,-0.215,0.09
21:33:59.708,-0.22,0.105
21:33:59.712,-0.215,0.125
21:33:59.716,-0.225,0.115
21:33:59.720,-0.225,0.115
21:33:59.724,-0.23,0.12
21:33:59.728,-0.22,0.12
21:33:59.732,-0.21,0.145
21:33:59.736,-0.205,0.14
21:33:59.740,-0.205,0.13
21:33:59.744,-0.22,0.12
21:33:59.748,-0.225,0.1
21:33:59.752,-0.215,0.065
21:33:59.756,-0.225,0.075
21:33:59.760,-0.225,0.055
21:33:59.764,-0.265,0.07
21:33:59.768,-0.24,0.05
21:33:59.772,-0.24,0.04
21:33:59.776,-0.225,0.025
21:33:59.780,-0.24,0.02
21:33:59.784,-0.25,0.0
21:33:59.788,-0.25,0.0
21:33:59.792,-0.255,-0.01
21:33:59.796,-0.225,-0.025
21:33:59.800,-0.225,-0.025
21:33:59.804,-0.225,-0.03
21:33:59.808,-0.25,-0.02
21:33:59.812,-0.245,-0.02
21:33:59.816,-0.26,-0.025
21:33:59.820,-0.245,-0.04
21:33:59.824,-0.27,-0.025
21:33:59.828,-0.275,0.0
21:33:59.832,-0.25,-0.015
21:33:59.836,-0.26,-0.04
21:33:59.840,-0.26,-0.05
21:33:59.844,-0.24,-0.04
21:33:59.848,-0.25,-0.055
21:33:59.852,-0.27,-0.075
21:33:59.856,-0.275,-0.07
21:33:59.860,-0.275,-0.06
21:33:59.864,-0.295,-0.08
21:33:59.868,-0.275,-0.075
21:33:59.872,-0.27,-0.065
21:33:59.876,-0.255,-0.07
21:33:59.880,-0.195,-0.09
21:33:59.884,-0.15,-0.085
21:33:59.888,-0.095,-0.07
21:33:59.892,0.0,-0.09
21:33:59.896,0.13,-0.085
21:33:59.900,0.25,-0.07
21:33:59.904,0.34,-0.07
21:33:59.908,0.39,-0.115
21:33:59.912,0.455,-0.09
21:33:59.916,0.455,-0.065
21:33:59.920,0.415,-0.08
21:33:59.924,0.42,-0.11
21:33:59.928,0.57,-0.145
21:33:59.932,0.84,-0.3
21:33:59.936,1.09,-0.515
21:33:59.940,1.17,-0.71
21:33:59.944,0.925,-0.84
21:33:59.948,0.49,-0.805
21:33:59.952,0.055,-0.58
21:33:59.956,-0.2,-0.305
21:33:59.960,-0.275,-0.125
21:33:59.964,-0.305,0.0
21:33:59.968,-0.315,0.04
21:33:59.972,-0.34,0.1
21:33:59.976,-0.365,0.12
21:33:59.980,-0.395,0.1
21:33:59.984,-0.39,0.08
21:33:59.988,-0.405,0.045
21:33:59.992,-0.41,0.0
21:33:59.996,-0.4,-0.035
21:34:00.000,-0.385,-0.025
21:34:00.004,-0.425,-0.045
21:34:00.008,-0.435,-0.045
21:34:00.012,-0.47,-0.035
21:34:00.016,-0.44,-0.06
21:34:00.020,-0.45,-0.05
21:34:00.024,-0.445,-0.05
21:34:00.028,-0.465,-0.055
21:34:00.032,-0.455,-0.07
21:34:00.036,-0.465,-0.06
21:34:00.040,-0.48,-0.06
21:34:00.044,-0.465,-0.06
21:34:00.048,-0.48,-0.035
21:34:00.052,-0.48,-0.075
21:34:00.056,-0.5,-0.08
21:34:00.060,-0.495,-0.055
21:34:00.064,-0.51,-0.06
21:34:00.068,-0.525,-0.06
21:34:00.072,-0.55,-0.08
21:34:00.076,-0.555,-0.085
21:34:00.080,-0.535,-0.075
21:34:00.084,-0.545,-0.1
21:34:00.088,-0.54,-0.105
21:34:00.092,-0.5,-0.08
21:34:00.096,-0.495,-0.07
21:34:00.100,-0.47,-0.095
21:34:00.104,-0.465,-0.085
21:34:00.108,-0.445,-0.055
21:34:00.112,-0.415,-0.03
21:34:00.116,-0.405,-0.05
21:34:00.120,-0.39,-0.025
21:34:00.124,-0.36,-0.02
21:34:00.128,-0.35,0.0
21:34:00.132,-0.325,0.015
21:34:00.136,-0.32,0.025
21:34:00.140,-0.28,0.005
21:34:00.144,-0.275,0.025
21:34:00.148,-0.285,0.025
21:34:00.152,-0.285,0.06
21:34:00.156,-0.31,0.04
21:34:00.160,-0.29,0.045
21:34:00.164,-0.3,0.05
21:34:00.168,-0.315,0.035
21:34:00.172,-0.32,0.055
21:34:00.176,-0.31,0.015
21:34:00.180,-0.29,0.03
21:34:00.184,-0.27,0.005
21:34:00.188,-0.28,0.005
21:34:00.192,-0.255,0.005
21:34:00.196,-0.25,0.0
21:34:00.200,-0.24,-0.035
21:34:00.204,-0.22,-0.05
21:34:00.208,-0.195,-0.085
21:34:00.212,-0.22,-0.085
21:34:00.216,-0.235,-0.09
21:34:00.220,-0.245,-0.11
21:34:00.224,-0.23,-0.095
21:34:00.228,-0.22,-0.095
21:34:00.232,-0.215,-0.105
21:34:00.236,-0.24,-0.105
21:34:00.240,-0.245,-0.12
21:34:00.244,-0.235,-0.12
21:34:00.248,-0.245,-0.1
21:34:00.252,-0.235,-0.09
21:34:00.256,-0.23,-0.11
21:34:00.260,-0.25,-0.08
21:34:00.264,-0.23,-0.08
21:34:00.268,-0.26,-0.1
21:34:00.272,-0.27,-0.08
21:34:00.276,-0.245,-0.1
21:34:00.280,-0.245,-0.07
21:34:00.284,-0.26,-0.085
21:34:00.288,-0.27,-0.075
21:34:00.292,-0.265,-0.065
21:34:00.296,-0.255,-0.075
21:34:00.300,-0.28,-0.06
21:34:00.304,-0.255,-0.06
21:34:00.308,-0.245,-0.06
21:34:00.312,-0.22,-0.06
21:34:00.316,-0.225,-0.05
21:34:00.320,-0.195,-0.065
21:34:00.324,-0.185,-0.06
21:34:00.328,-0.155,-0.06
21:34:00.332,-0.19,-0.065
21:34:00.336,-0.18,-0.04
21:34:00.340,-0.185,-0.02
21:34:00.344,-0.175,-0.01
21:34:00.348,-0.16,0.01
21:34:00.352,-0.135,0.02
21:34:00.356,-0.13,0.04
21:34:00.360,-0.1,0.065
21:34:00.364,-0.095,0.065
21:34:00.368,-0.09,0.08
21:34:00.372,-0.12,0.085
21:34:00.376,-0.125,0.09
21:34:00.380,-0.135,0.09
21:34:00.384,-0.155,0.095
21:34:00.388,-0.175,0.095
21:34:00.392,-0.17,0.09
21:34:00.396,-0.175,0.075
21:34:00.400,-0.175,0.105
21:34:00.404,-0.18,0.11
21:34:00.408,-0.15,0.095
21:34:00.412,-0.085,0.075
21:34:00.416,-0.005,0.07
21:34:00.420,0.09,0.045
21:34:00.424,0.155,0.03
21:34:00.428,0.205,-0.01
21:34:00.432,0.23,-0.045
21:34:00.436,0.235,-0.095
21:34:00.440,0.25,-0.095
21:34:00.444,0.26,-0.12
21:34:00.448,0.23,-0.175
21:34:00.452,0.295,-0.245
21:34:00.456,0.525,-0.36
21:34:00.460,0.85,-0.555
21:34:00.464,1.085,-0.79
21:34:00.468,1.17,-1.03
21:34:00.472,0.975,-1.165
21:34:00.476,0.545,-1.03
21:34:00.480,0.095,-0.715
21:34:00.484,-0.15,-0.36
21:34:00.488,-0.265,-0.155
21:34:00.492,-0.295,-0.005
21:34:00.496,-0.35,0.065
21:34:00.500,-0.365,0.11
21:34:00.504,-0.38,0.13
21:34:00.508,-0.39,0.16
21:34:00.512,-0.4,0.14
21:34:00.516,-0.415,0.15
21:34:00.520,-0.425,0.135
21:34:00.524,-0.425,0.11
21:34:00.528,-0.4,0.1
21:34:00.532,-0.4,0.08
21:34:00.536,-0.375,0.08
21:34:00.540,-0.38,0.105
21:34:00.544,-0.385,0.11
21:34:00.548,-0.39,0.1
21:34:00.552,-0.39,0.135
21:34:00.556,-0.37,0.14
21:34:00.560,-0.37,0.16
21:34:00.564,-0.36,0.16
21:34:00.568,-0.345,0.195
21:34:00.572,-0.33,0.2
21:34:00.576,-0.31,0.21
21:34:00.580,-0.305,0.215
21:34:00.584,-0.325,0.24
21:34:00.588,-0.325,0.245
21:34:00.592,-0.335,0.27
21:34:00.596,-0.35,0.285
21:34:00.600,-0.37,0.265
21:34:00.604,-0.375,0.265
21:34:00.608,-0.39,0.265
21:34:00.612,-0.395,0.24
21:34:00.616,-0.395,0.26
21:34:00.620,-0.4,0.265
21:34:00.624,-0.405,0.265
21:34:00.628,-0.405,0.23
21:34:00.632,-0.395,0.23
21:34:00.636,-0.395,0.205
21:34:00.640,-0.365,0.205
21:34:00.644,-0.345,0.185
21:34:00.648,-0.315,0.17
21:34:00.652,-0.315,0.145
21:34:00.656,-0.295,0.125
21:34:00.660,-0.32,0.11
21:34:00.664,-0.28,0.075
21:34:00.668,-0.26,0.07
21:34:00.672,-0.25,0.06
21:34:00.676,-0.265,0.05
21:34:00.680,-0.24,0.075
21:34:00.684,-0.22,0.06
21:34:00.688,-0.21,0.035
21:34:00.692,-0.18,0.04
21:34:00.696,-0.175,0.05
21:34:00.700,-0.17,0.01
21:34:00.704,-0.15,0.015
21:34:00.708,-0.155,0.03
21:34:00.712,-0.155,0.04
21:34:00.716,-0.145,0.025
21:34:00.720,-0.165,0.025
21:34:00.724,-0.16,0.025
21:34:00.728,-0.175,0.03
21:34:00.732,-0.155,0.035
21:34:00.736,-0.19,0.035
21:34:00.740,-0.185,0.025
21:34:00.744,-0.17,0.035
21:34:00.748,-0.165,0.035
21:34:00.752,-0.16,0.055
21:34:00.756,-0.14,0.045
21:34:00.760,-0.13,0.07
21:34:00.764,-0.125,0.075
21:34:00.768,-0.135,0.105
21:34:00.772,-0.12,0.145
21:34:00.776,-0.125,0.15
21:34:00.780,-0.115,0.175
21:34:00.784,-0.115,0.185
21:34:00.788,-0.105,0.185
21:34:00.792,-0.1,0.185
21:34:00.796,-0.115,0.2
21:34:00.800,-0.14,0.21
21:34:00.804,-0.14,0.195
21:34:00.808,-0.16,0.23
21:34:00.812,-0.165,0.22
21:34:00.816,-0.18,0.235
21:34:00.820,-0.19,0.235
21:34:00.824,-0.225,0.22
21:34:00.828,-0.26,0.21
21:34:00.832,-0.24,0.22
21:34:00.836,-0.23,0.205
21:34:00.840,-0.25,0.2
21:34:00.844,-0.265,0.175
21:34:00.848,-0.245,0.18
21:34:00.852,-0.24,0.16
21:34:00.856,-0.23,0.135
21:34:00.860,-0.2,0.15
21:34:00.864,-0.19,0.125
21:34:00.868,-0.185,0.135
21:34:00.872,-0.195,0.105
21:34:00.876,-0.18,0.08
21:34:00.880,-0.175,0.09
21:34:00.884,-0.155,0.075
21:34:00.888,-0.18,0.06
21:34:00.892,-0.18,0.035
21:34:00.896,-0.165,0.045
21:34:00.900,-0.165,0.045
21:34:00.904,-0.175,0.045
21:34:00.908,-0.17,0.03
21:34:00.912,-0.16,0.025
21:34:00.916,-0.16,0.03
21:34:00.920,-0.2,0.02
21:34:00.924,-0.185,0.025
21:34:00.928,-0.185,0.04
21:34:00.932,-0.2,0.015
21:34:00.936,-0.195,0.01
21:34:00.940,-0.195,0.025
21:34:00.944,-0.23,0.005
21:34:00.948,-0.22,0.02
21:34:00.952,-0.245,0.015
21:34:00.956,-0.25,0.045
21:34:00.960,-0.235,0.03
21:34:00.964,-0.245,0.055
21:34:00.968,-0.225,0.05
21:34:00.972,-0.21,0.055
21:34:00.976,-0.2,0.055
21:34:00.980,-0.185,0.06
21:34:00.984,-0.19,0.065
21:34:00.988,-0.18,0.095
21:34:00.992,-0.185,0.105
21:34:00.996,-0.195,0.125
21:34:01.000,-0.215,0.135
21:34:01.004,-0.235,0.145
21:34:01.008,-0.255,0.145
21:34:01.012,-0.255,0.14
21:34:01.016,-0.24,0.155
21:34:01.020,-0.245,0.165
21:34:01.024,-0.26,0.165
21:34:01.028,-0.265,0.16
21:34:01.032,-0.285,0.18
21:34:01.036,-0.3,0.15
21:34:01.040,-0.295,0.15
21:34:01.044,-0.3,0.16
21:34:01.048,-0.285,0.14
21:34:01.052,-0.285,0.155
21:34:01.056,-0.295,0.135
21:34:01.060,-0.255,0.14
21:34:01.064,-0.26,0.14
21:34:01.068,-0.255,0.14
21:34:01.072,-0.25,0.14
21:34:01.076,-0.245,0.13
21:34:01.080,-0.23,0.135
21:34:01.084,-0.22,0.115
21:34:01.088,-0.22,0.13
21:34:01.092,-0.215,0.105
21:34:01.096,-0.215,0.085
21:34:01.100,-0.21,0.09
21:34:01.104,-0.215,0.06
21:34:01.108,-0.215,0.08
21:34:01.112,-0.2,0.065
21:34:01.116,-0.21,0.05
21:34:01.120,-0.2,0.035
21:34:01.124,-0.2,0.03
21:34:01.128,-0.2,0.05
21:34:01.132,-0.185,0.025
21:34:01.136,-0.195,0.02
21:34:01.140,-0.21,0.02
21:34:01.144,-0.225,0.015
21:34:01.148,-0.225,0.015
21:34:01.152,-0.23,0.02
21:34:01.156,-0.225,0.025
21:34:01.160,-0.22,0.005
21:34:01.164,-0.23,0.025
21:34:01.168,-0.21,0.015
21:34:01.172,-0.225,0.025
21:34:01.176,-0.21,0.03
21:34:01.180,-0.195,0.04
21:34:01.184,-0.16,0.06
21:34:01.188,-0.16,0.06
21:34:01.192,-0.15,0.1
21:34:01.196,-0.15,0.095
21:34:01.200,-0.19,0.13
21:34:01.204,-0.185,0.14
21:34:01.208,-0.195,0.15
21:34:01.212,-0.205,0.135
21:34:01.216,-0.235,0.145
21:34:01.220,-0.245,0.145
21:34:01.224,-0.26,0.19
21:34:01.228,-0.255,0.18
21:34:01.232,-0.245,0.155
21:34:01.236,-0.24,0.16
21:34:01.240,-0.23,0.135
21:34:01.244,-0.255,0.16
21:34:01.248,-0.255,0.165
21:34:01.252,-0.25,0.145
21:34:01.256,-0.24,0.135
21:34:01.260,-0.225,0.17
21:34:01.264,-0.225,0.16
21:34:01.268,-0.23,0.155
21:34:01.272,-0.18,0.175
21:34:01.276,-0.195,0.15
21:34:01.280,-0.155,0.165
21:34:01.284,-0.1,0.155
21:34:01.288,-0.02,0.145
21:34:01.292,0.055,0.14
21:34:01.296,0.12,0.125
21:34:01.300,0.16,0.065
21:34:01.304,0.195,0.025
21:34:01.308,0.2,0.025
21:34:01.312,0.16,0.015
21:34:01.316,0.16,-0.025
21:34:01.320,0.225,-0.1
21:34:01.324,0.46,-0.235
21:34:01.328,0.75,-0.43
21:34:01.332,1.035,-0.685
21:34:01.336,1.2,-0.945
21:34:01.340,1.1,-1.065
21:34:01.344,0.72,-0.95
21:34:01.348,0.255,-0.665
21:34:01.352,-0.06,-0.3
21:34:01.356,-0.22,-0.06
21:34:01.360,-0.295,0.055
21:34:01.364,-0.34,0.14
21:34:01.368,-0.335,0.195
21:34:01.372,-0.35,0.19
21:34:01.376,-0.345,0.19
21:34:01.380,-0.34,0.185
21:34:01.384,-0.34,0.175
21:34:01.388,-0.32,0.155
21:34:01.392,-0.35,0.15
21:34:01.396,-0.36,0.14
21:34:01.400,-0.355,0.14
21:34:01.404,-0.37,0.175
21:34:01.408,-0.385,0.215
21:34:01.412,-0.39,0.235
21:34:01.416,-0.37,0.24
21:34:01.420,-0.375,0.235
21:34:01.424,-0.4,0.25
21:34:01.428,-0.4,0.24
21:34:01.432,-0.415,0.235
21:34:01.436,-0.405,0.23
21:34:01.440,-0.41,0.27
21:34:01.444,-0.415,0.255
21:34:01.448,-0.415,0.25
21:34:01.452,-0.4,0.26
21:34:01.456,-0.415,0.275
21:34:01.460,-0.415,0.27
21:34:01.464,-0.415,0.25
21:34:01.468,-0.41,0.275
21:34:01.472,-0.41,0.26
21:34:01.476,-0.38,0.26
21:34:01.480,-0.38,0.28
21:34:01.484,-0.39,0.255
21:34:01.488,-0.39,0.255
21:34:01.492,-0.38,0.265
21:34:01.496,-0.39,0.285
21:34:01.500,-0.375,0.255
21:34:01.504,-0.38,0.255
21:34:01.508,-0.385,0.26
21:34:01.512,-0.39,0.225
21:34:01.516,-0.375,0.23
21:34:01.520,-0.4,0.225
21:34:01.524,-0.39,0.195
21:34:01.528,-0.375,0.175
21:34:01.532,-0.365,0.185
21:34:01.536,-0.385,0.17
21:34:01.540,-0.395,0.165
21:34:01.544,-0.405,0.16
21:34:01.548,-0.39,0.145
21:34:01.552,-0.4,0.145
21:34:01.556,-0.375,0.12
21:34:01.560,-0.38,0.125
21:34:01.564,-0.36,0.115
21:34:01.568,-0.345,0.12
21:34:01.572,-0.365,0.095
21:34:01.576,-0.35,0.09
21:34:01.580,-0.35,0.11
21:34:01.584,-0.31,0.095
21:34:01.588,-0.3,0.095
21:34:01.592,-0.27,0.105
21:34:01.596,-0.205,0.09
21:34:01.600,-0.195,0.095
21:34:01.604,-0.195,0.1
21:34:01.608,-0.18,0.12
21:34:01.612,-0.17,0.145
21:34:01.616,-0.165,0.18
21:34:01.620,-0.175,0.195
21:34:01.624,-0.185,0.2
21:34:01.628,-0.185,0.185
21:34:01.632,-0.19,0.205
21:34:01.636,-0.21,0.205
21:34:01.640,-0.21,0.195
21:34:01.644,-0.17,0.22
21:34:01.648,-0.165,0.235
21:34:01.652,-0.16,0.225
21:34:01.656,-0.18,0.235
21:34:01.660,-0.17,0.24
21:34:01.664,-0.175,0.235
21:34:01.668,-0.16,0.24
21:34:01.672,-0.145,0.23
21:34:01.676,-0.15,0.22
21:34:01.680,-0.145,0.22
21:34:01.684,-0.135,0.23
21:34:01.688,-0.115,0.24
21:34:01.692,-0.075,0.225
21:34:01.696,-0.025,0.235
21:34:01.700,0.015,0.24
21:34:01.704,0.065,0.225
21:34:01.708,0.115,0.2
21:34:01.712,0.135,0.165
21:34:01.716,0.155,0.15
21:34:01.720,0.075,0.12
21:34:01.724,0.035,0.095
21:34:01.728,0.01,0.095
21:34:01.732,0.01,0.06
21:34:01.736,0.175,0.0
21:34:01.740,0.455,-0.14
21:34:01.744,0.785,-0.33
21:34:01.748,0.99,-0.63
21:34:01.752,1.03,-0.875
21:34:01.756,0.795,-0.925
21:34:01.760,0.385,-0.765
21:34:01.764,0.0,-0.405
21:34:01.768,-0.23,-0.12
21:34:01.772,-0.34,0.1
21:34:01.776,-0.365,0.17
21:34:01.780,-0.36,0.24
21:34:01.784,-0.365,0.26
21:34:01.788,-0.365,0.26
21:34:01.792,-0.39,0.235
21:34:01.796,-0.38,0.235
21:34:01.800,-0.365,0.22
21:34:01.804,-0.395,0.2
21:34:01.808,-0.365,0.19
21:34:01.812,-0.36,0.185
21:34:01.816,-0.36,0.18
21:34:01.820,-0.365,0.21
21:34:01.824,-0.355,0.2
21:34:01.828,-0.385,0.235
21:34:01.832,-0.38,0.245
21:34:01.836,-0.375,0.235
21:34:01.840,-0.41,0.27
21:34:01.844,-0.435,0.255
21:34:01.848,-0.435,0.26
21:34:01.852,-0.465,0.265
21:34:01.856,-0.46,0.245
21:34:01.860,-0.47,0.25
21:34:01.864,-0.465,0.285
21:34:01.868,-0.475,0.285
21:34:01.872,-0.49,0.29
21:34:01.876,-0.49,0.3
21:34:01.880,-0.52,0.305
21:34:01.884,-0.52,0.31
21:34:01.888,-0.505,0.3
21:34:01.892,-0.485,0.305
21:34:01.896,-0.48,0.3
21:34:01.900,-0.465,0.285
21:34:01.904,-0.455,0.3
21:34:01.908,-0.44,0.305
21:34:01.912,-0.43,0.31
21:34:01.916,-0.435,0.29
21:34:01.920,-0.45,0.27
21:34:01.924,-0.435,0.255
21:34:01.928,-0.45,0.24
21:34:01.932,-0.45,0.24
21:34:01.936,-0.45,0.215
21:34:01.940,-0.45,0.19
21:34:01.944,-0.455,0.195
21:34:01.948,-0.475,0.175
21:34:01.952,-0.475,0.15
21:34:01.956,-0.445,0.145
21:34:01.960,-0.43,0.14
21:34:01.964,-0.445,0.115
21:34:01.968,-0.43,0.085
21:34:01.972,-0.415,0.085
21:34:01.976,-0.4,0.08
21:34:01.980,-0.38,0.08
21:34:01.984,-0.35,0.08
21:34:01.988,-0.33,0.065
21:34:01.992,-0.3,0.055
21:34:01.996,-0.3,0.065
21:34:02.000,-0.26,0.06
21:34:02.004,-0.245,0.055
21:34:02.008,-0.22,0.065
21:34:02.012,-0.24,0.085
21:34:02.016,-0.185,0.09
21:34:02.020,-0.18,0.085
21:34:02.024,-0.19,0.11
21:34:02.028,-0.185,0.12
21:34:02.032,-0.195,0.13
21:34:02.036,-0.18,0.15
21:34:02.040,-0.17,0.175
21:34:02.044,-0.19,0.165
21:34:02.048,-0.225,0.17
21:34:02.052,-0.23,0.19
21:34:02.056,-0.245,0.18
21:34:02.060,-0.265,0.185
21:34:02.064,-0.28,0.2
21:34:02.068,-0.25,0.19
21:34:02.072,-0.24,0.19
21:34:02.076,-0.25,0.17
21:34:02.080,-0.24,0.165
21:34:02.084,-0.265,0.16
21:34:02.088,-0.275,0.155
21:34:02.092,-0.285,0.165
21:34:02.096,-0.29,0.155
21:34:02.100,-0.305,0.175
21:34:02.104,-0.285,0.155
21:34:02.108,-0.29,0.175
21:34:02.112,-0.29,0.18
21:34:02.116,-0.275,0.175
21:34:02.120,-0.27,0.175
21:34:02.124,-0.27,0.17
21:34:02.128,-0.28,0.17
21:34:02.132,-0.27,0.175
21:34:02.136,-0.265,0.17
21:34:02.140,-0.285,0.145
21:34:02.144,-0.285,0.125
21:34:02.148,-0.285,0.135
21:34:02.152,-0.305,0.12
21:34:02.156,-0.305,0.12
21:34:02.160,-0.315,0.075
21:34:02.164,-0.325,0.095
21:34:02.168,-0.355,0.095
21:34:02.172,-0.34,0.07
21:34:02.176,-0.34,0.05
21:34:02.180,-0.35,0.04
21:34:02.184,-0.35,0.06
21:34:02.188,-0.355,0.05
21:34:02.192,-0.345,0.03
21:34:02.196,-0.335,0.025
21:34:02.200,-0.315,0.025
21:34:02.204,-0.33,0.02
21:34:02.208,-0.315,0.035
21:34:02.212,-0.305,0.02
21:34:02.216,-0.32,0.025
21:34:02.220,-0.305,0.02
21:34:02.224,-0.295,0.04
21:34:02.228,-0.26,0.045
21:34:02.232,-0.215,0.04
21:34:02.236,-0.16,0.045
21:34:02.240,-0.1,0.045
21:34:02.244,0.0,0.065
21:34:02.248,0.09,0.035
21:34:02.252,0.19,0.045
21:34:02.256,0.23,0.03
21:34:02.260,0.285,0.0
21:34:02.264,0.325,0.015
21:34:02.268,0.325,0.02
21:34:02.272,0.325,0.0
21:34:02.276,0.4,-0.025
21:34:02.280,0.58,-0.16
21:34:02.284,0.885,-0.335
21:34:02.288,1.07,-0.565
21:34:02.292,1.06,-0.75
21:34:02.296,0.765,-0.84
21:34:02.300,0.295,-0.695
21:34:02.304,-0.045,-0.41
21:34:02.308,-0.225,-0.13
21:34:02.312,-0.29,0.0
21:34:02.316,-0.33,0.13
21:34:02.320,-0.325,0.185
21:34:02.324,-0.36,0.225
21:34:02.328,-0.405,0.25
21:34:02.332,-0.42,0.235
21:34:02.336,-0.42,0.23
21:34:02.340,-0.41,0.225
21:34:02.344,-0.415,0.2
21:34:02.348,-0.415,0.19
21:34:02.352,-0.39,0.165
21:34:02.356,-0.425,0.15
21:34:02.360,-0.45,0.165
21:34:02.364,-0.445,0.125
21:34:02.368,-0.475,0.145
21:34:02.372,-0.475,0.135
21:34:02.376,-0.48,0.125
21:34:02.380,-0.47,0.125
21:34:02.384,-0.46,0.1
21:34:02.388,-0.47,0.1
21:34:02.392,-0.49,0.075
21:34:02.396,-0.485,0.06
21:34:02.400,-0.47,0.04
21:34:02.404,-0.5,0.035
21:34:02.408,-0.525,0.015
21:34:02.412,-0.535,0.015
21:34:02.416,-0.545,0.01
21:34:02.420,-0.555,0.01
21:34:02.424,-0.555,0.0
21:34:02.428,-0.565,0.005
21:34:02.432,-0.555,0.015
21:34:02.436,-0.55,0.035
21:34:02.440,-0.54,0.03
21:34:02.444,-0.53,0.04
21:34:02.448,-0.515,0.04
21:34:02.452,-0.5,0.025
21:34:02.456,-0.52,0.03
21:34:02.460,-0.55,0.03
21:34:02.464,-0.52,0.025
21:34:02.468,-0.49,0.055
21:34:02.472,-0.5,0.05
21:34:02.476,-0.48,0.07
21:34:02.480,-0.44,0.045
21:34:02.484,-0.425,0.045
21:34:02.488,-0.425,0.04
21:34:02.492,-0.38,0.055
21:34:02.496,-0.39,0.075
21:34:02.500,-0.395,0.06
21:34:02.504,-0.39,0.055
21:34:02.508,-0.405,0.055
21:34:02.512,-0.39,0.035
21:34:02.516,-0.37,0.055
21:34:02.520,-0.345,0.045
21:34:02.524,-0.34,0.02
21:34:02.528,-0.315,0.03
21:34:02.532,-0.295,0.045
21:34:02.536,-0.3,0.03
21:34:02.540,-0.305,0.065
21:34:02.544,-0.27,0.055
21:34:02.548,-0.275,0.055
21:34:02.552,-0.3,0.055
21:34:02.556,-0.295,0.08
21:34:02.560,-0.275,0.085
21:34:02.564,-0.265,0.05
21:34:02.568,-0.24,0.045
21:34:02.572,-0.26,0.035
21:34:02.576,-0.235,0.025
21:34:02.580,-0.24,0.035
21:34:02.584,-0.225,0.03
21:34:02.588,-0.235,0.0
21:34:02.592,-0.22,0.0
21:34:02.596,-0.22,-0.005
21:34:02.600,-0.2,0.0
21:34:02.604,-0.22,-0.01
21:34:02.608,-0.225,-0.015
21:34:02.612,-0.245,-0.02
21:34:02.616,-0.22,-0.015
21:34:02.620,-0.255,0.0
21:34:02.624,-0.24,-0.01
21:34:02.628,-0.255,0.0
21:34:02.632,-0.24,0.01
21:34:02.636,-0.265,0.015
21:34:02.640,-0.24,-0.005
21:34:02.644,-0.255,-0.005
21:34:02.648,-0.27,-0.025
21:34:02.652,-0.285,-0.02
21:34:02.656,-0.315,-0.015
21:34:02.660,-0.315,-0.01
21:34:02.664,-0.325,0.01
21:34:02.668,-0.35,-0.025
21:34:02.672,-0.345,-0.03
21:34:02.676,-0.34,-0.035
21:34:02.680,-0.32,-0.05
21:34:02.684,-0.285,-0.045
21:34:02.688,-0.28,-0.045
21:34:02.692,-0.295,-0.065
21:34:02.696,-0.285,-0.04
21:34:02.700,-0.28,-0.04
21:34:02.704,-0.295,-0.03
21:34:02.708,-0.295,-0.025
21:34:02.712,-0.285,-0.03
21:34:02.716,-0.295,-0.01
21:34:02.720,-0.3,-0.055
21:34:02.724,-0.335,-0.02
21:34:02.728,-0.315,-0.04
21:34:02.732,-0.32,-0.025
21:34:02.736,-0.325,-0.025
21:34:02.740,-0.325,-0.035
21:34:02.744,-0.34,-0.04
21:34:02.748,-0.33,-0.055
21:34:02.752,-0.31,-0.04
21:34:02.756,-0.305,-0.04
21:34:02.760,-0.295,-0.02
21:34:02.764,-0.32,-0.05
21:34:02.768,-0.335,-0.025
21:34:02.772,-0.35,-0.01
21:34:02.776,-0.33,-0.02
21:34:02.780,-0.31,0.0
21:34:02.784,-0.305,-0.01
21:34:02.788,-0.29,-0.02
21:34:02.792,-0.26,-0.025
21:34:02.796,-0.255,-0.03
21:34:02.800,-0.275,-0.04
21:34:02.804,-0.255,-0.04
21:34:02.808,-0.25,-0.04
21:34:02.812,-0.25,-0.065
21:34:02.816,-0.255,-0.045
21:34:02.820,-0.245,-0.04
21:34:02.824,-0.245,-0.055
21:34:02.828,-0.255,-0.09
21:34:02.832,-0.25,-0.095
21:34:02.836,-0.275,-0.085
21:34:02.840,-0.275,-0.065
21:34:02.844,-0.245,-0.075
21:34:02.848,-0.245,-0.095
21:34:02.852,-0.255,-0.075
21:34:02.856,-0.28,-0.065
21:34:02.860,-0.275,-0.08
21:34:02.864,-0.265,-0.06
21:34:02.868,-0.275,-0.04
21:34:02.872,-0.305,-0.04
21:34:02.876,-0.29,-0.05
21:34:02.880,-0.29,-0.04
21:34:02.884,-0.3,-0.045
21:34:02.888,-0.295,-0.03
21:34:02.892,-0.255,-0.04
21:34:02.896,-0.245,-0.04
21:34:02.900,-0.245,-0.055
21:34:02.904,-0.215,-0.055
21:34:02.908,-0.225,-0.05
21:34:02.912,-0.21,-0.08
21:34:02.916,-0.23,-0.065
21:34:02.920,-0.23,-0.045
21:34:02.924,-0.215,-0.025
21:34:02.928,-0.235,-0.045
21:34:02.932,-0.22,-0.055
21:34:02.936,-0.225,-0.03
21:34:02.940,-0.24,-0.04
21:34:02.944,-0.265,-0.02
21:34:02.948,-0.265,-0.025
21:34:02.952,-0.295,-0.03
21:34:02.956,-0.295,-0.01
21:34:02.960,-0.285,-0.035
21:34:02.964,-0.29,-0.035
21:34:02.968,-0.305,-0.02
21:34:02.972,-0.315,0.005
21:34:02.976,-0.325,-0.005
21:34:02.980,-0.345,-0.015
21:34:02.984,-0.335,0.02
21:34:02.988,-0.34,0.0
21:34:02.992,-0.29,0.02
21:34:02.996,-0.275,0.02
21:34:03.000,-0.26,0.04
21:34:03.004,-0.265,0.005
21:34:03.008,-0.24,0.015
21:34:03.012,-0.245,0.03
21:34:03.016,-0.25,0.005
21:34:03.020,-0.205,-0.005
21:34:03.024,-0.225,0.005
21:34:03.028,-0.22,0.0
21:34:03.032,-0.23,0.01
21:34:03.036,-0.22,0.0
21:34:03.040,-0.215,-0.01
21:34:03.044,-0.205,-0.01
21:34:03.048,-0.195,0.0
21:34:03.052,-0.125,0.0
21:34:03.056,-0.055,-0.005
21:34:03.060,0.02,-0.02
21:34:03.064,0.105,-0.02
21:34:03.068,0.17,-0.06
21:34:03.072,0.215,-0.105
21:34:03.076,0.255,-0.11
21:34:03.080,0.265,-0.115
21:34:03.084,0.26,-0.135
21:34:03.088,0.255,-0.16
21:34:03.092,0.37,-0.25
21:34:03.096,0.625,-0.385
21:34:03.100,0.97,-0.615
21:34:03.104,1.2,-0.85
21:34:03.108,1.235,-1.01
21:34:03.112,0.935,-1.03
21:34:03.116,0.46,-0.815
21:34:03.120,0.065,-0.455
21:34:03.124,-0.125,-0.21
21:34:03.128,-0.225,-0.06
21:34:03.132,-0.26,0.045
21:34:03.136,-0.285,0.11
21:34:03.140,-0.32,0.165
21:34:03.144,-0.345,0.17
21:34:03.148,-0.35,0.16
21:34:03.152,-0.37,0.155
21:34:03.156,-0.38,0.15
21:34:03.160,-0.39,0.125
21:34:03.164,-0.44,0.12
21:34:03.168,-0.46,0.09
21:34:03.172,-0.45,0.105
21:34:03.176,-0.465,0.105
21:34:03.180,-0.49,0.12
21:34:03.184,-0.5,0.11
21:34:03.188,-0.51,0.125
21:34:03.192,-0.49,0.105
21:34:03.196,-0.515,0.12
21:34:03.200,-0.53,0.105
21:34:03.204,-0.545,0.12
21:34:03.208,-0.525,0.115
21:34:03.212,-0.53,0.12
21:34:03.216,-0.525,0.1
21:34:03.220,-0.485,0.1
21:34:03.224,-0.465,0.1
21:34:03.228,-0.48,0.11
21:34:03.232,-0.47,0.13
21:34:03.236,-0.47,0.105
21:34:03.240,-0.465,0.105
21:34:03.244,-0.505,0.11
21:34:03.248,-0.49,0.12
21:34:03.252,-0.475,0.115
21:34:03.256,-0.485,0.12
21:34:03.260,-0.475,0.1
21:34:03.264,-0.475,0.08
21:34:03.268,-0.48,0.1
21:34:03.272,-0.465,0.075
21:34:03.276,-0.47,0.07
21:34:03.280,-0.465,0.095
21:34:03.284,-0.44,0.08
21:34:03.288,-0.43,0.08
21:34:03.292,-0.425,0.085
21:34:03.296,-0.435,0.07
21:34:03.300,-0.415,0.08
21:34:03.304,-0.39,0.085
21:34:03.308,-0.385,0.095
21:34:03.312,-0.375,0.1
21:34:03.316,-0.355,0.09
21:34:03.320,-0.35,0.1
21:34:03.324,-0.335,0.095
21:34:03.328,-0.305,0.085
21:34:03.332,-0.295,0.06
21:34:03.336,-0.285,0.05
21:34:03.340,-0.28,0.02
21:34:03.344,-0.29,0.045
21:34:03.348,-0.275,0.05
21:34:03.352,-0.26,0.055
21:34:03.356,-0.265,0.04
21:34:03.360,-0.25,0.04
21:34:03.364,-0.25,0.035
21:34:03.368,-0.24,0.05
21:34:03.372,-0.245,0.015
21:34:03.376,-0.255,0.02
21:34:03.380,-0.275,0.015
21:34:03.384,-0.29,0.015
21:34:03.388,-0.3,0.02
21:34:03.392,-0.3,0.025
21:34:03.396,-0.325,0.03
21:34:03.400,-0.325,0.04
21:34:03.404,-0.32,0.03
21:34:03.408,-0.345,0.01
21:34:03.412,-0.33,0.025
21:34:03.416,-0.31,0.025
21:34:03.420,-0.305,0.02
21:34:03.424,-0.3,0.02
21:34:03.428,-0.295,0.015
21:34:03.432,-0.285,0.03
21:34:03.436,-0.27,0.055
21:34:03.440,-0.235,0.055
21:34:03.444,-0.23,0.055
21:34:03.448,-0.205,0.085
21:34:03.452,-0.21,0.065
21:34:03.456,-0.19,0.075
21:34:03.460,-0.21,0.065
21:34:03.464,-0.22,0.035
21:34:03.468,-0.21,0.055
21:34:03.472,-0.22,0.055
21:34:03.476,-0.22,0.05
21:34:03.480,-0.215,0.045
21:34:03.484,-0.21,0.065
21:34:03.488,-0.21,0.07
21:34:03.492,-0.22,0.08
21:34:03.496,-0.235,0.05
21:34:03.500,-0.23,0.055
21:34:03.504,-0.25,0.07
21:34:03.508,-0.24,0.06
21:34:03.512,-0.22,0.06
21:34:03.516,-0.21,0.07
21:34:03.520,-0.2,0.055
21:34:03.524,-0.205,0.05
21:34:03.528,-0.225,0.04
21:34:03.532,-0.22,0.065
21:34:03.536,-0.21,0.06
21:34:03.540,-0.22,0.07
21:34:03.544,-0.215,0.055
21:34:03.548,-0.22,0.055
21:34:03.552,-0.215,0.065
21:34:03.556,-0.21,0.05
21:34:03.560,-0.2,0.045
21:34:03.564,-0.21,0.055
21:34:03.568,-0.215,0.06
21:34:03.572,-0.21,0.045
21:34:03.576,-0.215,0.05
21:34:03.580,-0.22,0.065
21:34:03.584,-0.21,0.085
21:34:03.588,-0.23,0.1
21:34:03.592,-0.28,0.06
21:34:03.596,-0.255,0.07
21:34:03.600,-0.27,0.055
21:34:03.604,-0.28,0.09
21:34:03.608,-0.335,0.09
21:34:03.612,-0.34,0.07
21:34:03.616,-0.34,0.08
21:34:03.620,-0.35,0.06
21:34:03.624,-0.365,0.065
21:34:03.628,-0.36,0.065
21:34:03.632,-0.345,0.045
21:34:03.636,-0.33,0.06
21:34:03.640,-0.31,0.045
21:34:03.644,-0.29,0.07
21:34:03.648,-0.22,0.04
21:34:03.652,-0.145,0.055
21:34:03.656,-0.055,0.06
21:34:03.660,0.03,0.04
21:34:03.664,0.07,0.025
21:34:03.668,0.13,0.0
21:34:03.672,0.14,-0.03
21:34:03.676,0.16,-0.035
21:34:03.680,0.145,-0.05
21:34:03.684,0.17,-0.105
21:34:03.688,0.305,-0.17
21:34:03.692,0.57,-0.325
21:34:03.696,0.9,-0.53
21:34:03.700,1.115,-0.76
21:34:03.704,1.07,-0.95
21:34:03.708,0.715,-0.95
21:34:03.712,0.255,-0.72
21:34:03.716,-0.07,-0.38
21:34:03.720,-0.21,-0.1
21:34:03.724,-0.27,0.06
21:34:03.728,-0.27,0.17
21:34:03.732,-0.27,0.235
21:34:03.736,-0.29,0.265
21:34:03.740,-0.3,0.285
21:34:03.744,-0.305,0.29
21:34:03.748,-0.3,0.28
21:34:03.752,-0.315,0.24
21:34:03.756,-0.315,0.23
21:34:03.760,-0.345,0.18
21:34:03.764,-0.325,0.145
21:34:03.768,-0.35,0.14
21:34:03.772,-0.36,0.11
21:34:03.776,-0.39,0.12
21:34:03.780,-0.38,0.11
21:34:03.784,-0.38,0.11
21:34:03.788,-0.405,0.12
21:34:03.792,-0.425,0.115
21:34:03.796,-0.395,0.125
21:34:03.800,-0.42,0.125
21:34:03.804,-0.43,0.14
21:34:03.808,-0.43,0.135
21:34:03.812,-0.455,0.145
21:34:03.816,-0.485,0.13
21:34:03.820,-0.5,0.145
21:34:03.824,-0.525,0.12
21:34:03.828,-0.54,0.135
21:34:03.832,-0.54,0.14
21:34:03.836,-0.545,0.135
21:34:03.840,-0.56,0.13
21:34:03.844,-0.55,0.105
21:34:03.848,-0.535,0.125
21:34:03.852,-0.54,0.115
21:34:03.856,-0.53,0.11
21:34:03.860,-0.535,0.11
21:34:03.864,-0.535,0.09
21:34:03.868,-0.515,0.095
21:34:03.872,-0.51,0.11
21:34:03.876,-0.49,0.11
21:34:03.880,-0.485,0.115
21:34:03.884,-0.49,0.12
21:34:03.888,-0.445,0.115
21:34:03.892,-0.425,0.13
21:34:03.896,-0.4,0.15
21:34:03.900,-0.385,0.155
21:34:03.904,-0.4,0.155
21:34:03.908,-0.38,0.135
21:34:03.912,-0.375,0.145
21:34:03.916,-0.37,0.13
21:34:03.920,-0.33,0.15
21:34:03.924,-0.31,0.145
21:34:03.928,-0.31,0.14
21:34:03.932,-0.245,0.14
21:34:03.936,-0.265,0.13
21:34:03.940,-0.27,0.125
21:34:03.944,-0.265,0.13
21:34:03.948,-0.25,0.115
21:34:03.952,-0.255,0.125
21:34:03.956,-0.235,0.11
21:34:03.960,-0.225,0.1
21:34:03.964,-0.21,0.095
21:34:03.968,-0.19,0.09
21:34:03.972,-0.175,0.085
21:34:03.976,-0.16,0.095
21:34:03.980,-0.155,0.11
21:34:03.984,-0.17,0.12
21:34:03.988,-0.135,0.12
21:34:03.992,-0.13,0.125
21:34:03.996,-0.12,0.12
21:34:04.000,-0.135,0.16
21:34:04.004,-0.145,0.15
21:34:04.008,-0.165,0.125
21:34:04.012,-0.16,0.075
21:34:04.016,-0.165,0.07
21:34:04.020,-0.21,0.06
21:34:04.024,-0.22,0.045
21:34:04.028,-0.235,0.06
21:34:04.032,-0.25,0.07
21:34:04.036,-0.28,0.065
21:34:04.040,-0.265,0.06
21:34:04.044,-0.27,0.05
21:34:04.048,-0.28,0.045
21:34:04.052,-0.28,0.035
21:34:04.056,-0.28,0.04
21:34:04.060,-0.27,0.05
21:34:04.064,-0.31,0.045
21:34:04.068,-0.305,0.055
21:34:04.072,-0.315,0.035
21:34:04.076,-0.32,0.04
21:34:04.080,-0.32,0.055
21:34:04.084,-0.32,0.06
21:34:04.088,-0.34,0.035
21:34:04.092,-0.32,0.075
21:34:04.096,-0.34,0.03
21:34:04.100,-0.335,0.04
21:34:04.104,-0.32,0.07
21:34:04.108,-0.285,0.06
21:34:04.112,-0.295,0.065
21:34:04.116,-0.295,0.06
21:34:04.120,-0.3,0.065
21:34:04.124,-0.29,0.065
21:34:04.128,-0.285,0.06
21:34:04.132,-0.29,0.085
21:34:04.136,-0.285,0.075
21:34:04.140,-0.265,0.07
21:34:04.144,-0.26,0.09
21:34:04.148,-0.28,0.085
21:34:04.152,-0.27,0.095
21:34:04.156,-0.285,0.1
21:34:04.160,-0.29,0.09
21:34:04.164,-0.28,0.095
21:34:04.168,-0.29,0.09
21:34:04.172,-0.29,0.085
21:34:04.176,-0.27,0.075
21:34:04.180,-0.265,0.09
21:34:04.184,-0.28,0.065
21:34:04.188,-0.265,0.055
21:34:04.192,-0.275,0.075
21:34:04.196,-0.26,0.1
21:34:04.200,-0.255,0.095
21:34:04.204,-0.235,0.115
21:34:04.208,-0.22,0.135
21:34:04.212,-0.24,0.15
21:34:04.216,-0.23,0.12
21:34:04.220,-0.22,0.14
21:34:04.224,-0.23,0.145
21:34:04.228,-0.25,0.115
21:34:04.232,-0.27,0.115
21:34:04.236,-0.285,0.115
21:34:04.240,-0.27,0.07
21:34:04.244,-0.255,0.055
21:34:04.248,-0.205,0.05
21:34:04.252,-0.13,0.065
21:34:04.256,-0.02,0.04
21:34:04.260,0.07,0.01
21:34:04.264,0.12,0.0
21:34:04.268,0.175,-0.04
21:34:04.272,0.18,-0.09
21:34:04.276,0.175,-0.07
21:34:04.280,0.14,-0.08
21:34:04.284,0.17,-0.13
21:34:04.288,0.25,-0.2
21:34:04.292,0.48,-0.31
21:34:04.296,0.78,-0.535
21:34:04.300,1.0,-0.77
21:34:04.304,1.05,-1.025
21:34:04.308,0.81,-1.085
21:34:04.312,0.33,-0.895
21:34:04.316,-0.085,-0.555
21:34:04.320,-0.3,-0.24
21:34:04.324,-0.395,-0.03
21:34:04.328,-0.44,0.07
21:34:04.332,-0.43,0.145
21:34:04.336,-0.45,0.185
21:34:04.340,-0.445,0.195
21:34:04.344,-0.455,0.185
21:34:04.348,-0.455,0.2
21:34:04.352,-0.45,0.17
21:34:04.356,-0.45,0.155
21:34:04.360,-0.45,0.14
21:34:04.364,-0.46,0.15
21:34:04.368,-0.45,0.14
21:34:04.372,-0.455,0.145
21:34:04.376,-0.46,0.14
21:34:04.380,-0.465,0.155
21:34:04.384,-0.46,0.14
21:34:04.388,-0.46,0.15
21:34:04.392,-0.485,0.175
21:34:04.396,-0.485,0.17
21:34:04.400,-0.485,0.175
21:34:04.404,-0.485,0.165
21:34:04.408,-0.485,0.155
21:34:04.412,-0.47,0.17
21:34:04.416,-0.49,0.18
21:34:04.420,-0.52,0.195
21:34:04.424,-0.52,0.2
21:34:04.428,-0.555,0.195
21:34:04.432,-0.54,0.195
21:34:04.436,-0.545,0.175
21:34:04.440,-0.525,0.205
21:34:04.444,-0.535,0.225
21:34:04.448,-0.535,0.235
21:34:04.452,-0.535,0.24
21:34:04.456,-0.56,0.25
21:34:04.460,-0.55,0.265
21:34:04.464,-0.51,0.255
21:34:04.468,-0.48,0.26
21:34:04.472,-0.48,0.25
21:34:04.476,-0.475,0.23
21:34:04.480,-0.49,0.19
21:34:04.484,-0.465,0.175
21:34:04.488,-0.455,0.175
21:34:04.492,-0.45,0.165
21:34:04.496,-0.46,0.16
21:34:04.500,-0.44,0.145
21:34:04.504,-0.41,0.145
21:34:04.508,-0.42,0.12
21:34:04.512,-0.425,0.13
21:34:04.516,-0.41,0.095
21:34:04.520,-0.4,0.095
21:34:04.524,-0.39,0.095
21:34:04.528,-0.41,0.09
21:34:04.532,-0.37,0.075
21:34:04.536,-0.35,0.065
21:34:04.540,-0.355,0.085
21:34:04.544,-0.355,0.07
21:34:04.548,-0.335,0.045
21:34:04.552,-0.305,0.06
21:34:04.556,-0.285,0.035
21:34:04.560,-0.295,0.06
21:34:04.564,-0.28,0.04
21:34:04.568,-0.265,0.05
21:34:04.572,-0.27,0.035
21:34:04.576,-0.255,0.065
21:34:04.580,-0.245,0.06
21:34:04.584,-0.21,0.06
21:34:04.588,-0.205,0.09
21:34:04.592,-0.22,0.1
21:34:04.596,-0.235,0.08
21:34:04.600,-0.24,0.08
21:34:04.604,-0.25,0.115
21:34:04.608,-0.24,0.11
21:34:04.612,-0.24,0.115
21:34:04.616,-0.235,0.11
21:34:04.620,-0.23,0.11
21:34:04.624,-0.225,0.1
21:34:04.628,-0.23,0.105
21:34:04.632,-0.225,0.105
21:34:04.636,-0.25,0.12
21:34:04.640,-0.26,0.115
21:34:04.644,-0.28,0.115
21:34:04.648,-0.27,0.1
21:34:04.652,-0.28,0.125
21:34:04.656,-0.295,0.13
21:34:04.660,-0.28,0.12
21:34:04.664,-0.25,0.125
21:34:04.668,-0.245,0.115
21:34:04.672,-0.24,0.105
21:34:04.676,-0.225,0.115
21:34:04.680,-0.22,0.14
21:34:04.684,-0.23,0.14
21:34:04.688,-0.225,0.17
21:34:04.692,-0.215,0.165
21:34:04.696,-0.19,0.15
21:34:04.700,-0.2,0.155
21:34:04.704,-0.205,0.165
21:34:04.708,-0.215,0.15
21:34:04.712,-0.22,0.135
21:34:04.716,-0.235,0.12
21:34:04.720,-0.235,0.07
21:34:04.724,-0.24,0.04
21:34:04.728,-0.25,0.025
21:34:04.732,-0.24,0.025
21:34:04.736,-0.235,0.025
21:34:04.740,-0.24,0.02
21:34:04.744,-0.24,-0.015
21:34:04.748,-0.26,0.0
21:34:04.752,-0.27,-0.02
21:34:04.756,-0.27,-0.01
21:34:04.760,-0.27,-0.03
21:34:04.764,-0.25,-0.025
21:34:04.768,-0.245,-0.03
21:34:04.772,-0.22,-0.035
21:34:04.776,-0.22,-0.025
21:34:04.780,-0.21,-0.04
21:34:04.784,-0.19,-0.03
21:34:04.788,-0.15,-0.05
21:34:04.792,-0.1,-0.04
21:34:04.796,-0.01,-0.055
21:34:04.800,0.075,-0.065
21:34:04.804,0.155,-0.105
21:34:04.808,0.21,-0.125
21:34:04.812,0.275,-0.135
21:34:04.816,0.31,-0.135
21:34:04.820,0.305,-0.135
21:34:04.824,0.315,-0.15
21:34:04.828,0.4,-0.19
21:34:04.832,0.665,-0.305
21:34:04.836,0.94,-0.51
21:34:04.840,1.125,-0.74
21:34:04.844,1.04,-0.9
21:34:04.848,0.665,-0.91
21:34:04.852,0.19,-0.695
21:34:04.856,-0.1,-0.4
21:34:04.860,-0.245,-0.205
21:34:04.864,-0.315,-0.08
21:34:04.868,-0.35,-0.005
21:34:04.872,-0.375,0.065
21:34:04.876,-0.4,0.1
21:34:04.880,-0.42,0.1
21:34:04.884,-0.45,0.105
21:34:04.888,-0.445,0.1
21:34:04.892,-0.44,0.08
21:34:04.896,-0.415,0.06
21:34:04.900,-0.415,0.08
21:34:04.904,-0.41,0.07
21:34:04.908,-0.395,0.06
21:34:04.912,-0.415,0.055
21:34:04.916,-0.425,0.095
21:34:04.920,-0.445,0.07
21:34:04.924,-0.42,0.055
21:34:04.928,-0.41,0.065
21:34:04.932,-0.4,0.07
21:34:04.936,-0.405,0.055
21:34:04.940,-0.41,0.045
21:34:04.944,-0.42,0.015
21:34:04.948,-0.425,0.05
21:34:04.952,-0.41,0.02
21:34:04.956,-0.4,-0.005
21:34:04.960,-0.41,-0.015
21:34:04.964,-0.435,-0.02
21:34:04.968,-0.455,-0.025
21:34:04.972,-0.465,-0.03
21:34:04.976,-0.455,-0.04
21:34:04.980,-0.45,-0.045
21:34:04.984,-0.485,-0.04
21:34:04.988,-0.455,-0.08
21:34:04.992,-0.455,-0.07
21:34:04.996,-0.45,-0.075
21:34:05.000,-0.475,-0.075
21:34:05.004,-0.49,-0.07
21:34:05.008,-0.51,-0.065
21:34:05.012,-0.495,-0.075
21:34:05.016,-0.475,-0.09
21:34:05.020,-0.49,-0.065
21:34:05.024,-0.485,-0.08
21:34:05.028,-0.46,-0.065
21:34:05.032,-0.475,-0.08
21:34:05.036,-0.455,-0.115
21:34:05.040,-0.435,-0.1
21:34:05.044,-0.42,-0.105
21:34:05.048,-0.405,-0.14
21:34:05.052,-0.395,-0.115
21:34:05.056,-0.365,-0.09
21:34:05.060,-0.39,-0.105
21:34:05.064,-0.37,-0.105
21:34:05.068,-0.38,-0.125
21:34:05.072,-0.38,-0.1
21:34:05.076,-0.375,-0.1
21:34:05.080,-0.37,-0.11
21:34:05.084,-0.38,-0.115
21:34:05.088,-0.365,-0.085
21:34:05.092,-0.33,-0.09
21:34:05.096,-0.32,-0.085
21:34:05.100,-0.315,-0.1
21:34:05.104,-0.265,-0.08
21:34:05.108,-0.27,-0.075
21:34:05.112,-0.27,-0.055
21:34:05.116,-0.25,-0.07
21:34:05.120,-0.26,-0.08
21:34:05.124,-0.245,-0.085
21:34:05.128,-0.275,-0.08
21:34:05.132,-0.29,-0.08
21:34:05.136,-0.28,-0.075
21:34:05.140,-0.29,-0.095
21:34:05.144,-0.3,-0.085
21:34:05.148,-0.32,-0.075
21:34:05.152,-0.31,-0.105
21:34:05.156,-0.33,-0.1
21:34:05.160,-0.31,-0.1
21:34:05.164,-0.32,-0.085
21:34:05.168,-0.31,-0.075
21:34:05.172,-0.31,-0.125
21:34:05.176,-0.3,-0.105
21:34:05.180,-0.315,-0.095
21:34:05.184,-0.3,-0.125
21:34:05.188,-0.3,-0.1
21:34:05.192,-0.32,-0.11
21:34:05.196,-0.32,-0.11
21:34:05.200,-0.33,-0.105
21:34:05.204,-0.3,-0.1
21:34:05.208,-0.29,-0.105
21:34:05.212,-0.295,-0.125
21:34:05.216,-0.27,-0.135
21:34:05.220,-0.27,-0.115
21:34:05.224,-0.26,-0.13
21:34:05.228,-0.28,-0.115
21:34:05.232,-0.28,-0.12
21:34:05.236,-0.275,-0.1
21:34:05.240,-0.26,-0.11
21:34:05.244,-0.245,-0.12
21:34:05.248,-0.24,-0.105
21:34:05.252,-0.24,-0.105
21:34:05.256,-0.235,-0.105
21:34:05.260,-0.25,-0.1
21:34:05.264,-0.255,-0.125
21:34:05.268,-0.23,-0.14
21:34:05.272,-0.205,-0.19
21:34:05.276,-0.18,-0.2
21:34:05.280,-0.165,-0.205
21:34:05.284,-0.115,-0.195
21:34:05.288,-0.02,-0.2
21:34:05.292,0.045,-0.2
21:34:05.296,0.145,-0.215
21:34:05.300,0.21,-0.225
21:34:05.304,0.265,-0.255
21:34:05.308,0.34,-0.265
21:34:05.312,0.385,-0.26
21:34:05.316,0.38,-0.255
21:34:05.320,0.41,-0.285
21:34:05.324,0.545,-0.335
21:34:05.328,0.81,-0.49
21:34:05.332,1.08,-0.7
21:34:05.336,1.155,-0.92
21:34:05.340,0.955,-1.06
21:34:05.344,0.475,-1.01
21:34:05.348,0.045,-0.75
21:34:05.352,-0.18,-0.45
21:34:05.356,-0.29,-0.285
21:34:05.360,-0.33,-0.17
21:34:05.364,-0.36,-0.08
21:34:05.368,-0.4,-0.03
21:34:05.372,-0.43,-0.015
21:34:05.376,-0.45,0.0
21:34:05.380,-0.45,-0.01
21:34:05.384,-0.455,-0.04
21:34:05.388,-0.445,-0.055
21:34:05.392,-0.45,-0.11
21:34:05.396,-0.455,-0.08
21:34:05.400,-0.445,-0.095
21:34:05.404,-0.435,-0.095
21:34:05.408,-0.46,-0.1
21:34:05.412,-0.455,-0.11
21:34:05.416,-0.46,-0.09
21:34:05.420,-0.445,-0.08
21:34:05.424,-0.45,-0.065
21:34:05.428,-0.425,-0.06
21:34:05.432,-0.43,-0.06
21:34:05.436,-0.435,-0.065
21:34:05.440,-0.445,-0.05
21:34:05.444,-0.445,-0.055
21:34:05.448,-0.44,-0.05
21:34:05.452,-0.445,-0.045
21:34:05.456,-0.47,-0.035
21:34:05.460,-0.455,-0.015
21:34:05.464,-0.465,-0.01
21:34:05.468,-0.47,-0.015
21:34:05.472,-0.475,-0.03
21:34:05.476,-0.48,-0.02
21:34:05.480,-0.475,-0.01
21:34:05.484,-0.475,-0.015
21:34:05.488,-0.455,0.015
21:34:05.492,-0.44,0.0
21:34:05.496,-0.41,0.03
21:34:05.500,-0.4,0.05
21:34:05.504,-0.375,0.07
21:34:05.508,-0.375,0.065
21:34:05.512,-0.35,0.065
21:34:05.516,-0.315,0.075
21:34:05.520,-0.32,0.075
21:34:05.524,-0.315,0.09
21:34:05.528,-0.285,0.055
21:34:05.532,-0.26,0.045
21:34:05.536,-0.25,0.03
21:34:05.540,-0.23,0.015
21:34:05.544,-0.24,-0.005
21:34:05.548,-0.225,-0.03
21:34:05.552,-0.23,-0.025
21:34:05.556,-0.24,-0.05
21:34:05.560,-0.235,-0.065
21:34:05.564,-0.22,-0.06
21:34:05.568,-0.215,-0.06
21:34:05.572,-0.215,-0.06
21:34:05.576,-0.205,-0.08
21:34:05.580,-0.185,-0.085
21:34:05.584,-0.195,-0.09
21:34:05.588,-0.2,-0.105
21:34:05.592,-0.19,-0.085
21:34:05.596,-0.165,-0.115
21:34:05.600,-0.175,-0.1
21:34:05.604,-0.185,-0.11
21:34:05.608,-0.18,-0.105
21:34:05.612,-0.175,-0.08
21:34:05.616,-0.175,-0.1
21:34:05.620,-0.16,-0.09
21:34:05.624,-0.17,-0.085
21:34:05.628,-0.17,-0.1
21:34:05.632,-0.17,-0.09
21:34:05.636,-0.175,-0.08
21:34:05.640,-0.175,-0.08
21:34:05.644,-0.16,-0.08
21:34:05.648,-0.175,-0.065
21:34:05.652,-0.175,-0.08
21:34:05.656,-0.19,-0.08
21:34:05.660,-0.18,-0.07
21:34:05.664,-0.18,-0.055
21:34:05.668,-0.195,-0.04
21:34:05.672,-0.2,-0.035
21:34:05.676,-0.215,-0.035
21:34:05.680,-0.215,-0.05
21:34:05.684,-0.2,-0.025
21:34:05.688,-0.185,-0.005
21:34:05.692,-0.19,-0.005
21:34:05.696,-0.175,-0.005
21:34:05.700,-0.19,0.005
21:34:05.704,-0.205,0.01
21:34:05.708,-0.18,0.02
21:34:05.712,-0.17,0.0
21:34:05.716,-0.185,0.0
21:34:05.720,-0.17,0.005
21:34:05.724,-0.165,0.03
21:34:05.728,-0.14,0.04
21:34:05.732,-0.15,0.05
21:34:05.736,-0.125,0.06
21:34:05.740,-0.12,0.085
21:34:05.744,-0.115,0.075
21:34:05.748,-0.08,0.06
21:34:05.752,-0.095,0.065
21:34:05.756,-0.085,0.075
21:34:05.760,-0.09,0.05
21:34:05.764,-0.1,0.055
21:34:05.768,-0.085,0.06
21:34:05.772,-0.1,0.035
21:34:05.776,-0.115,0.01
21:34:05.780,-0.11,0.005
21:34:05.784,-0.12,0.0
21:34:05.788,-0.11,-0.03
21:34:05.792,-0.12,-0.02
21:34:05.796,-0.125,-0.025
21:34:05.800,-0.155,-0.03
21:34:05.804,-0.125,-0.03
21:34:05.808,-0.125,-0.05
21:34:05.812,-0.11,-0.04
21:34:05.816,-0.085,-0.035
21:34:05.820,-0.025,-0.045
21:34:05.824,0.045,-0.04
21:34:05.828,0.105,-0.065
21:34:05.832,0.165,-0.065
21:34:05.836,0.195,-0.095
21:34:05.840,0.25,-0.105
21:34:05.844,0.245,-0.14
21:34:05.848,0.25,-0.145
21:34:05.852,0.245,-0.175
21:34:05.856,0.235,-0.205
21:34:05.860,0.345,-0.295
21:34:05.864,0.59,-0.435
21:34:05.868,0.88,-0.63
21:34:05.872,1.11,-0.9
21:34:05.876,1.11,-1.08
21:34:05.880,0.805,-1.11
21:34:05.884,0.33,-0.91
21:34:05.888,-0.07,-0.565
21:34:05.892,-0.24,-0.285
21:34:05.896,-0.32,-0.105
21:34:05.900,-0.345,-0.01
21:34:05.904,-0.345,0.05
21:34:05.908,-0.36,0.115
21:34:05.912,-0.385,0.115
21:34:05.916,-0.4,0.14
