Time,ECG1,ECG2
23:27:00.440,-0.64,0.09
23:27:00.444,-0.635,0.105
23:27:00.448,-0.595,0.06
23:27:00.452,-0.61,0.045
23:27:00.456,-0.605,0.05
23:27:00.460,-0.59,0.035
23:27:00.464,-0.585,0.045
23:27:00.468,-0.595,0.02
23:27:00.472,-0.55,0.01
23:27:00.476,-0.535,0.0
23:27:00.480,-0.53,0.005
23:27:00.484,-0.52,-0.015
23:27:00.488,-0.515,-0.01
23:27:00.492,-0.51,-0.01
23:27:00.496,-0.515,0.005
23:27:00.500,-0.495,0.03
23:27:00.504,-0.51,0.015
23:27:00.508,-0.48,0.0
23:27:00.512,-0.475,-0.005
23:27:00.516,-0.46,0.0
23:27:00.520,-0.455,0.0
23:27:00.524,-0.46,0.0
23:27:00.528,-0.45,0.01
23:27:00.532,-0.46,0.01
23:27:00.536,-0.44,0.005
23:27:00.540,-0.44,0.01
23:27:00.544,-0.455,0.015
23:27:00.548,-0.435,0.0
23:27:00.552,-0.455,-0.005
23:27:00.556,-0.43,0.02
23:27:00.560,-0.415,0.0
23:27:00.564,-0.405,0.025
23:27:00.568,-0.385,0.04
23:27:00.572,-0.37,0.04
23:27:00.576,-0.375,0.015
23:27:00.580,-0.35,0.015
23:27:00.584,-0.31,0.035
23:27:00.588,-0.305,0.045
23:27:00.592,-0.24,0.06
23:27:00.596,-0.16,0.055
23:27:00.600,-0.06,0.04
23:27:00.604,0.025,0.045
23:27:00.608,0.1,0.015
23:27:00.612,0.11,0.005
23:27:00.616,0.1,0.015
23:27:00.620,0.08,0.025
23:27:00.624,-0.01,0.05
23:27:00.628,-0.12,0.035
23:27:00.632,-0.095,-0.025
23:27:00.636,0.075,-0.13
23:27:00.640,0.35,-0.34
23:27:00.644,0.615,-0.65
23:27:00.648,0.83,-0.955
23:27:00.652,0.89,-1.05
23:27:00.656,0.72,-0.945
23:27:00.660,0.34,-0.655
23:27:00.664,-0.025,-0.285
23:27:00.668,-0.23,0.005
23:27:00.672,-0.32,0.125
23:27:00.676,-0.375,0.165
23:27:00.680,-0.415,0.17
23:27:00.684,-0.44,0.18
23:27:00.688,-0.5,0.095
23:27:00.692,-0.51,0.07
23:27:00.696,-0.55,0.035
23:27:00.700,-0.555,0.005
23:27:00.704,-0.55,-0.04
23:27:00.708,-0.56,-0.075
23:27:00.712,-0.585,-0.09
23:27:00.716,-0.585,-0.12
23:27:00.720,-0.59,-0.14
23:27:00.724,-0.625,-0.12
23:27:00.728,-0.64,-0.105
23:27:00.732,-0.675,-0.15
23:27:00.736,-0.665,-0.13
23:27:00.740,-0.645,-0.16
23:27:00.744,-0.64,-0.14
23:27:00.748,-0.64,-0.145
23:27:00.752,-0.66,-0.14
23:27:00.756,-0.64,-0.15
23:27:00.760,-0.61,-0.16
23:27:00.764,-0.625,-0.155
23:27:00.768,-0.64,-0.135
23:27:00.772,-0.64,-0.155
23:27:00.776,-0.615,-0.15
23:27:00.780,-0.6,-0.15
23:27:00.784,-0.565,-0.145
23:27:00.788,-0.56,-0.145
23:27:00.792,-0.55,-0.165
23:27:00.796,-0.535,-0.14
23:27:00.800,-0.53,-0.145
23:27:00.804,-0.51,-0.12
23:27:00.808,-0.49,-0.13
23:27:00.812,-0.495,-0.135
23:27:00.816,-0.44,-0.13
23:27:00.820,-0.43,-0.085
23:27:00.824,-0.405,-0.09
23:27:00.828,-0.405,-0.1
23:27:00.832,-0.405,-0.105
23:27:00.836,-0.39,-0.085
23:27:00.840,-0.4,-0.095
23:27:00.844,-0.4,-0.085
23:27:00.848,-0.405,-0.085
23:27:00.852,-0.42,-0.115
23:27:00.856,-0.44,-0.095
23:27:00.860,-0.455,-0.1
23:27:00.864,-0.475,-0.11
23:27:00.868,-0.47,-0.095
23:27:00.872,-0.43,-0.105
23:27:00.876,-0.415,-0.12
23:27:00.880,-0.425,-0.14
23:27:00.884,-0.39,-0.15
23:27:00.888,-0.33,-0.16
23:27:00.892,-0.295,-0.16
23:27:00.896,-0.29,-0.185
23:27:00.900,-0.265,-0.195
23:27:00.904,-0.24,-0.22
23:27:00.908,-0.24,-0.225
23:27:00.912,-0.235,-0.225
23:27:00.916,-0.24,-0.265
23:27:00.920,-0.215,-0.255
23:27:00.924,-0.22,-0.255
23:27:00.928,-0.23,-0.26
23:27:00.932,-0.255,-0.28
23:27:00.936,-0.23,-0.27
23:27:00.940,-0.245,-0.27
23:27:00.944,-0.24,-0.305
23:27:00.948,-0.255,-0.29
23:27:00.952,-0.245,-0.32
23:27:00.956,-0.25,-0.31
23:27:00.960,-0.26,-0.315
23:27:00.964,-0.305,-0.355
23:27:00.968,-0.27,-0.32
23:27:00.972,-0.275,-0.34
23:27:00.976,-0.295,-0.365
23:27:00.980,-0.275,-0.365
23:27:00.984,-0.28,-0.37
23:27:00.988,-0.27,-0.36
23:27:00.992,-0.24,-0.365
23:27:00.996,-0.245,-0.365
23:27:01.000,-0.175,-0.385
23:27:01.004,-0.18,-0.37
23:27:01.008,-0.16,-0.37
23:27:01.012,-0.145,-0.355
23:27:01.016,-0.115,-0.345
23:27:01.020,-0.09,-0.355
23:27:01.024,-0.07,-0.335
23:27:01.028,-0.085,-0.345
23:27:01.032,-0.08,-0.31
23:27:01.036,-0.065,-0.325
23:27:01.040,-0.055,-0.325
23:27:01.044,-0.05,-0.315
23:27:01.048,-0.065,-0.31
23:27:01.052,-0.075,-0.3
23:27:01.056,-0.08,-0.305
23:27:01.060,-0.11,-0.315
23:27:01.064,-0.155,-0.29
23:27:01.068,-0.195,-0.28
23:27:01.072,-0.215,-0.33
23:27:01.076,-0.24,-0.335
23:27:01.080,-0.25,-0.315
23:27:01.084,-0.22,-0.325
23:27:01.088,-0.22,-0.315
23:27:01.092,-0.205,-0.32
23:27:01.096,-0.185,-0.31
23:27:01.100,-0.185,-0.345
23:27:01.104,-0.16,-0.335
23:27:01.108,-0.13,-0.34
23:27:01.112,-0.125,-0.36
23:27:01.116,-0.12,-0.38
23:27:01.120,-0.13,-0.41
23:27:01.124,-0.155,-0.425
23:27:01.128,-0.18,-0.445
23:27:01.132,-0.19,-0.455
23:27:01.136,-0.185,-0.465
23:27:01.140,-0.16,-0.465
23:27:01.144,-0.165,-0.465
23:27:01.148,-0.165,-0.49
23:27:01.152,-0.185,-0.48
23:27:01.156,-0.19,-0.49
23:27:01.160,-0.21,-0.49
23:27:01.164,-0.2,-0.48
23:27:01.168,-0.195,-0.48
23:27:01.172,-0.2,-0.485
23:27:01.176,-0.21,-0.505
23:27:01.180,-0.18,-0.49
23:27:01.184,-0.16,-0.485
23:27:01.188,-0.16,-0.495
23:27:01.192,-0.14,-0.5
23:27:01.196,-0.155,-0.47
23:27:01.200,-0.15,-0.49
23:27:01.204,-0.16,-0.5
23:27:01.208,-0.16,-0.505
23:27:01.212,-0.14,-0.45
23:27:01.216,-0.12,-0.47
23:27:01.220,-0.105,-0.48
23:27:01.224,-0.07,-0.465
23:27:01.228,-0.07,-0.445
23:27:01.232,-0.08,-0.46
23:27:01.236,-0.08,-0.45
23:27:01.240,-0.065,-0.445
23:27:01.244,-0.055,-0.43
23:27:01.248,-0.08,-0.425
23:27:01.252,-0.07,-0.42
23:27:01.256,-0.06,-0.41
23:27:01.260,-0.075,-0.42
23:27:01.264,-0.09,-0.395
23:27:01.268,-0.11,-0.395
23:27:01.272,-0.18,-0.405
23:27:01.276,-0.215,-0.41
23:27:01.280,-0.235,-0.4
23:27:01.284,-0.23,-0.39
23:27:01.288,-0.255,-0.375
23:27:01.292,-0.285,-0.375
23:27:01.296,-0.245,-0.38
23:27:01.300,-0.22,-0.395
23:27:01.304,-0.21,-0.39
23:27:01.308,-0.19,-0.4
23:27:01.312,-0.19,-0.4
23:27:01.316,-0.18,-0.385
23:27:01.320,-0.17,-0.405
23:27:01.324,-0.175,-0.415
23:27:01.328,-0.18,-0.42
23:27:01.332,-0.16,-0.455
23:27:01.336,-0.18,-0.47
23:27:01.340,-0.185,-0.475
23:27:01.344,-0.185,-0.495
23:27:01.348,-0.175,-0.485
23:27:01.352,-0.18,-0.485
23:27:01.356,-0.18,-0.495
23:27:01.360,-0.175,-0.485
23:27:01.364,-0.195,-0.515
23:27:01.368,-0.205,-0.49
23:27:01.372,-0.17,-0.46
23:27:01.376,-0.16,-0.475
23:27:01.380,-0.12,-0.46
23:27:01.384,-0.08,-0.475
23:27:01.388,-0.01,-0.48
23:27:01.392,0.06,-0.485
23:27:01.396,0.185,-0.48
23:27:01.400,0.275,-0.515
23:27:01.404,0.32,-0.525
23:27:01.408,0.37,-0.55
23:27:01.412,0.425,-0.545
23:27:01.416,0.425,-0.53
23:27:01.420,0.395,-0.525
23:27:01.424,0.425,-0.605
23:27:01.428,0.61,-0.72
23:27:01.432,0.905,-0.925
23:27:01.436,1.21,-1.17
23:27:01.440,1.39,-1.39
23:27:01.444,1.285,-1.41
23:27:01.448,0.915,-1.235
23:27:01.452,0.45,-0.89
23:27:01.456,0.105,-0.59
23:27:01.460,-0.06,-0.39
23:27:01.464,-0.145,-0.265
23:27:01.468,-0.205,-0.175
23:27:01.472,-0.25,-0.12
23:27:01.476,-0.315,-0.13
23:27:01.480,-0.34,-0.125
23:27:01.484,-0.4,-0.13
23:27:01.488,-0.435,-0.105
23:27:01.492,-0.445,-0.1
23:27:01.496,-0.445,-0.125
23:27:01.500,-0.46,-0.15
23:27:01.504,-0.475,-0.155
23:27:01.508,-0.47,-0.15
23:27:01.512,-0.455,-0.16
23:27:01.516,-0.445,-0.19
23:27:01.520,-0.425,-0.2
23:27:01.524,-0.41,-0.2
23:27:01.528,-0.415,-0.215
23:27:01.532,-0.405,-0.205
23:27:01.536,-0.42,-0.185
23:27:01.540,-0.455,-0.23
23:27:01.544,-0.43,-0.22
23:27:01.548,-0.425,-0.205
23:27:01.552,-0.415,-0.205
23:27:01.556,-0.435,-0.24
23:27:01.560,-0.44,-0.225
23:27:01.564,-0.455,-0.22
23:27:01.568,-0.475,-0.195
23:27:01.572,-0.465,-0.21
23:27:01.576,-0.46,-0.2
23:27:01.580,-0.45,-0.2
23:27:01.584,-0.45,-0.19
23:27:01.588,-0.45,-0.185
23:27:01.592,-0.43,-0.18
23:27:01.596,-0.43,-0.18
23:27:01.600,-0.435,-0.16
23:27:01.604,-0.43,-0.165
23:27:01.608,-0.415,-0.14
23:27:01.612,-0.435,-0.125
23:27:01.616,-0.415,-0.145
23:27:01.620,-0.39,-0.12
23:27:01.624,-0.375,-0.125
23:27:01.628,-0.38,-0.1
23:27:01.632,-0.36,-0.085
23:27:01.636,-0.35,-0.075
23:27:01.640,-0.34,-0.07
23:27:01.644,-0.345,-0.07
23:27:01.648,-0.33,-0.045
23:27:01.652,-0.34,-0.035
23:27:01.656,-0.33,-0.025
23:27:01.660,-0.34,0.0
23:27:01.664,-0.345,-0.03
23:27:01.668,-0.385,-0.03
23:27:01.672,-0.415,-0.01
23:27:01.676,-0.445,-0.025
23:27:01.680,-0.45,-0.03
23:27:01.684,-0.49,-0.02
23:27:01.688,-0.505,-0.02
23:27:01.692,-0.48,-0.015
23:27:01.696,-0.5,0.005
23:27:01.700,-0.5,-0.015
23:27:01.704,-0.49,-0.02
23:27:01.708,-0.49,-0.02
23:27:01.712,-0.47,-0.055
23:27:01.716,-0.455,-0.06
23:27:01.720,-0.46,-0.07
23:27:01.724,-0.435,-0.075
23:27:01.728,-0.43,-0.06
23:27:01.732,-0.42,-0.07
23:27:01.736,-0.405,-0.115
23:27:01.740,-0.4,-0.105
23:27:01.744,-0.4,-0.1
23:27:01.748,-0.41,-0.11
23:27:01.752,-0.395,-0.105
23:27:01.756,-0.4,-0.095
23:27:01.760,-0.405,-0.085
23:27:01.764,-0.385,-0.1
23:27:01.768,-0.405,-0.07
23:27:01.772,-0.36,-0.07
23:27:01.776,-0.36,-0.08
23:27:01.780,-0.34,-0.055
23:27:01.784,-0.335,-0.08
23:27:01.788,-0.335,-0.05
23:27:01.792,-0.32,-0.045
23:27:01.796,-0.32,-0.055
23:27:01.800,-0.325,-0.035
23:27:01.804,-0.305,-0.04
23:27:01.808,-0.3,-0.025
23:27:01.812,-0.31,-0.01
23:27:01.816,-0.3,0.0
23:27:01.820,-0.305,0.005
23:27:01.824,-0.3,0.015
23:27:01.828,-0.285,0.015
23:27:01.832,-0.28,0.02
23:27:01.836,-0.28,0.055
23:27:01.840,-0.265,0.03
23:27:01.844,-0.26,0.04
23:27:01.848,-0.285,0.035
23:27:01.852,-0.26,0.03
23:27:01.856,-0.25,0.03
23:27:01.860,-0.255,0.05
23:27:01.864,-0.275,0.04
23:27:01.868,-0.275,0.08
23:27:01.872,-0.305,0.08
23:27:01.876,-0.325,0.08
23:27:01.880,-0.325,0.1
23:27:01.884,-0.345,0.11
23:27:01.888,-0.36,0.115
23:27:01.892,-0.365,0.145
23:27:01.896,-0.37,0.14
23:27:01.900,-0.37,0.12
23:27:01.904,-0.38,0.155
23:27:01.908,-0.365,0.15
23:27:01.912,-0.365,0.12
23:27:01.916,-0.35,0.115
23:27:01.920,-0.32,0.1
23:27:01.924,-0.245,0.095
23:27:01.928,-0.16,0.09
23:27:01.932,-0.055,0.05
23:27:01.936,-0.035,0.02
23:27:01.940,0.01,-0.015
23:27:01.944,0.02,-0.045
23:27:01.948,0.0,-0.06
23:27:01.952,-0.03,-0.06
23:27:01.956,-0.075,-0.115
23:27:01.960,0.0,-0.185
23:27:01.964,0.25,-0.375
23:27:01.968,0.535,-0.62
23:27:01.972,0.835,-0.91
23:27:01.976,1.0,-1.13
23:27:01.980,0.955,-1.15
23:27:01.984,0.6,-0.91
23:27:01.988,0.12,-0.55
23:27:01.992,-0.2,-0.205
23:27:01.996,-0.355,0.02
23:27:02.000,-0.42,0.145
23:27:02.004,-0.45,0.16
23:27:02.008,-0.455,0.175
23:27:02.012,-0.47,0.185
23:27:02.016,-0.48,0.17
23:27:02.020,-0.48,0.175
23:27:02.024,-0.485,0.17
23:27:02.028,-0.515,0.15
23:27:02.032,-0.48,0.145
23:27:02.036,-0.485,0.125
23:27:02.040,-0.5,0.15
23:27:02.044,-0.49,0.12
23:27:02.048,-0.52,0.15
23:27:02.052,-0.52,0.155
23:27:02.056,-0.52,0.165
23:27:02.060,-0.495,0.165
23:27:02.064,-0.505,0.18
23:27:02.068,-0.52,0.15
23:27:02.072,-0.55,0.135
23:27:02.076,-0.555,0.17
23:27:02.080,-0.575,0.16
23:27:02.084,-0.62,0.155
23:27:02.088,-0.635,0.19
23:27:02.092,-0.63,0.19
23:27:02.096,-0.63,0.19
23:27:02.100,-0.62,0.21
23:27:02.104,-0.63,0.215
23:27:02.108,-0.645,0.235
23:27:02.112,-0.64,0.225
23:27:02.116,-0.64,0.215
23:27:02.120,-0.615,0.23
23:27:02.124,-0.595,0.21
23:27:02.128,-0.585,0.215
23:27:02.132,-0.605,0.205
23:27:02.136,-0.565,0.205
23:27:02.140,-0.545,0.205
23:27:02.144,-0.545,0.155
23:27:02.148,-0.54,0.15
23:27:02.152,-0.54,0.165
23:27:02.156,-0.56,0.14
23:27:02.160,-0.55,0.145
23:27:02.164,-0.555,0.13
23:27:02.168,-0.525,0.13
23:27:02.172,-0.545,0.11
23:27:02.176,-0.535,0.105
23:27:02.180,-0.525,0.11
23:27:02.184,-0.515,0.105
23:27:02.188,-0.505,0.075
23:27:02.192,-0.485,0.07
23:27:02.196,-0.455,0.09
23:27:02.200,-0.42,0.09
23:27:02.204,-0.39,0.085
23:27:02.208,-0.37,0.09
23:27:02.212,-0.335,0.09
23:27:02.216,-0.32,0.1
23:27:02.220,-0.305,0.1
23:27:02.224,-0.305,0.12
23:27:02.228,-0.295,0.125
23:27:02.232,-0.28,0.13
23:27:02.236,-0.27,0.13
23:27:02.240,-0.26,0.115
23:27:02.244,-0.28,0.13
23:27:02.248,-0.29,0.135
23:27:02.252,-0.3,0.15
23:27:02.256,-0.32,0.14
23:27:02.260,-0.315,0.13
23:27:02.264,-0.32,0.14
23:27:02.268,-0.35,0.145
23:27:02.272,-0.365,0.155
23:27:02.276,-0.355,0.175
23:27:02.280,-0.37,0.175
23:27:02.284,-0.4,0.175
23:27:02.288,-0.41,0.2
23:27:02.292,-0.43,0.21
23:27:02.296,-0.435,0.19
23:27:02.300,-0.435,0.2
23:27:02.304,-0.44,0.2
23:27:02.308,-0.43,0.21
23:27:02.312,-0.435,0.205
23:27:02.316,-0.42,0.215
23:27:02.320,-0.415,0.215
23:27:02.324,-0.405,0.195
23:27:02.328,-0.415,0.195
23:27:02.332,-0.395,0.19
23:27:02.336,-0.395,0.195
23:27:02.340,-0.375,0.18
23:27:02.344,-0.365,0.18
23:27:02.348,-0.355,0.17
23:27:02.352,-0.365,0.15
23:27:02.356,-0.37,0.155
23:27:02.360,-0.36,0.13
23:27:02.364,-0.365,0.145
23:27:02.368,-0.37,0.13
23:27:02.372,-0.38,0.12
23:27:02.376,-0.37,0.115
23:27:02.380,-0.375,0.095
23:27:02.384,-0.375,0.13
23:27:02.388,-0.36,0.12
23:27:02.392,-0.365,0.1
23:27:02.396,-0.35,0.085
23:27:02.400,-0.36,0.095
23:27:02.404,-0.36,0.11
23:27:02.408,-0.34,0.11
23:27:02.412,-0.36,0.1
23:27:02.416,-0.335,0.075
23:27:02.420,-0.34,0.09
23:27:02.424,-0.34,0.095
23:27:02.428,-0.32,0.095
23:27:02.432,-0.295,0.11
23:27:02.436,-0.28,0.125
23:27:02.440,-0.28,0.13
23:27:02.444,-0.3,0.12
23:27:02.448,-0.28,0.145
23:27:02.452,-0.31,0.13
23:27:02.456,-0.295,0.13
23:27:02.460,-0.305,0.13
23:27:02.464,-0.305,0.13
23:27:02.468,-0.315,0.13
23:27:02.472,-0.32,0.135
23:27:02.476,-0.38,0.125
23:27:02.480,-0.39,0.115
23:27:02.484,-0.425,0.14
23:27:02.488,-0.46,0.13
23:27:02.492,-0.475,0.115
23:27:02.496,-0.45,0.115
23:27:02.500,-0.41,0.1
23:27:02.504,-0.34,0.1
23:27:02.508,-0.235,0.095
23:27:02.512,-0.165,0.07
23:27:02.516,-0.12,0.035
23:27:02.520,-0.08,0.005
23:27:02.524,-0.07,0.05
23:27:02.528,-0.08,0.05
23:27:02.532,-0.11,0.02
23:27:02.536,-0.08,-0.07
23:27:02.540,0.145,-0.195
23:27:02.544,0.47,-0.44
23:27:02.548,0.795,-0.745
23:27:02.552,0.99,-1.0
23:27:02.556,0.93,-1.1
23:27:02.560,0.55,-0.92
23:27:02.564,0.1,-0.575
23:27:02.568,-0.18,-0.21
23:27:02.572,-0.35,-0.015
23:27:02.576,-0.425,0.095
23:27:02.580,-0.51,0.12
23:27:02.584,-0.51,0.14
23:27:02.588,-0.54,0.15
23:27:02.592,-0.57,0.155
23:27:02.596,-0.59,0.1
23:27:02.600,-0.59,0.105
23:27:02.604,-0.595,0.065
23:27:02.608,-0.565,0.025
23:27:02.612,-0.585,0.025
23:27:02.616,-0.585,0.02
23:27:02.620,-0.56,0.035
23:27:02.624,-0.56,0.0
23:27:02.628,-0.545,0.005
23:27:02.632,-0.535,0.01
23:27:02.636,-0.53,0.015
23:27:02.640,-0.505,0.03
23:27:02.644,-0.51,0.015
23:27:02.648,-0.5,0.035
23:27:02.652,-0.495,0.025
23:27:02.656,-0.51,0.025
23:27:02.660,-0.51,0.035
23:27:02.664,-0.495,0.035
23:27:02.668,-0.47,0.04
23:27:02.672,-0.48,0.025
23:27:02.676,-0.495,0.01
23:27:02.680,-0.48,0.015
23:27:02.684,-0.5,0.01
23:27:02.688,-0.525,0.015
23:27:02.692,-0.565,0.01
23:27:02.696,-0.595,0.01
23:27:02.700,-0.625,0.0
23:27:02.704,-0.615,0.02
23:27:02.708,-0.64,0.02
23:27:02.712,-0.665,-0.01
23:27:02.716,-0.66,0.0
23:27:02.720,-0.65,0.0
23:27:02.724,-0.655,-0.005
23:27:02.728,-0.64,-0.02
23:27:02.732,-0.64,-0.02
23:27:02.736,-0.605,-0.04
23:27:02.740,-0.615,-0.06
23:27:02.744,-0.6,-0.08
23:27:02.748,-0.545,-0.085
23:27:02.752,-0.51,-0.105
23:27:02.756,-0.485,-0.105
23:27:02.760,-0.48,-0.13
23:27:02.764,-0.46,-0.16
23:27:02.768,-0.46,-0.165
23:27:02.772,-0.46,-0.17
23:27:02.776,-0.44,-0.175
23:27:02.780,-0.435,-0.185
23:27:02.784,-0.42,-0.17
23:27:02.788,-0.4,-0.185
23:27:02.792,-0.375,-0.195
23:27:02.796,-0.385,-0.205
23:27:02.800,-0.385,-0.18
23:27:02.804,-0.365,-0.205
23:27:02.808,-0.35,-0.2
23:27:02.812,-0.33,-0.2
23:27:02.816,-0.315,-0.19
23:27:02.820,-0.33,-0.21
23:27:02.824,-0.33,-0.225
23:27:02.828,-0.29,-0.21
23:27:02.832,-0.275,-0.2
23:27:02.836,-0.225,-0.21
23:27:02.840,-0.2,-0.18
23:27:02.844,-0.18,-0.175
23:27:02.848,-0.21,-0.17
23:27:02.852,-0.185,-0.155
23:27:02.856,-0.16,-0.145
23:27:02.860,-0.15,-0.13
23:27:02.864,-0.155,-0.13
23:27:02.868,-0.135,-0.115
23:27:02.872,-0.155,-0.11
23:27:02.876,-0.18,-0.11
23:27:02.880,-0.19,-0.12
23:27:02.884,-0.19,-0.08
23:27:02.888,-0.2,-0.095
23:27:02.892,-0.21,-0.125
23:27:02.896,-0.235,-0.12
23:27:02.900,-0.25,-0.12
23:27:02.904,-0.275,-0.115
23:27:02.908,-0.29,-0.14
23:27:02.912,-0.32,-0.135
23:27:02.916,-0.31,-0.165
23:27:02.920,-0.3,-0.15
23:27:02.924,-0.34,-0.16
23:27:02.928,-0.35,-0.17
23:27:02.932,-0.35,-0.185
23:27:02.936,-0.325,-0.18
23:27:02.940,-0.27,-0.19
23:27:02.944,-0.2,-0.215
23:27:02.948,-0.15,-0.215
23:27:02.952,-0.075,-0.235
23:27:02.956,0.02,-0.275
23:27:02.960,0.085,-0.3
23:27:02.964,0.18,-0.375
23:27:02.968,0.27,-0.38
23:27:02.972,0.335,-0.37
23:27:02.976,0.305,-0.36
23:27:02.980,0.305,-0.38
23:27:02.984,0.435,-0.455
23:27:02.988,0.71,-0.61
23:27:02.992,1.01,-0.89
23:27:02.996,1.195,-1.175
23:27:03.000,1.165,-1.3
23:27:03.004,0.825,-1.2
23:27:03.008,0.395,-0.92
23:27:03.012,0.065,-0.59
23:27:03.016,-0.1,-0.42
23:27:03.020,-0.195,-0.3
23:27:03.024,-0.26,-0.26
23:27:03.028,-0.3,-0.215
23:27:03.032,-0.33,-0.2
23:27:03.036,-0.33,-0.205
23:27:03.040,-0.34,-0.225
23:27:03.044,-0.325,-0.26
23:27:03.048,-0.31,-0.3
23:27:03.052,-0.31,-0.295
23:27:03.056,-0.33,-0.295
23:27:03.060,-0.32,-0.29
23:27:03.064,-0.315,-0.28
23:27:03.068,-0.325,-0.285
23:27:03.072,-0.295,-0.255
23:27:03.076,-0.285,-0.24
23:27:03.080,-0.3,-0.245
23:27:03.084,-0.29,-0.275
23:27:03.088,-0.3,-0.26
23:27:03.092,-0.335,-0.235
23:27:03.096,-0.32,-0.23
23:27:03.100,-0.34,-0.24
23:27:03.104,-0.33,-0.245
23:27:03.108,-0.355,-0.225
23:27:03.112,-0.38,-0.225
23:27:03.116,-0.405,-0.205
23:27:03.120,-0.45,-0.21
23:27:03.124,-0.47,-0.215
23:27:03.128,-0.5,-0.225
23:27:03.132,-0.5,-0.22
23:27:03.136,-0.5,-0.25
23:27:03.140,-0.495,-0.245
23:27:03.144,-0.48,-0.23
23:27:03.148,-0.48,-0.24
23:27:03.152,-0.495,-0.24
23:27:03.156,-0.5,-0.28
23:27:03.160,-0.515,-0.28
23:27:03.164,-0.485,-0.3
23:27:03.168,-0.485,-0.32
23:27:03.172,-0.49,-0.31
23:27:03.176,-0.48,-0.32
23:27:03.180,-0.43,-0.335
23:27:03.184,-0.42,-0.35
23:27:03.188,-0.385,-0.36
23:27:03.192,-0.38,-0.38
23:27:03.196,-0.365,-0.375
23:27:03.200,-0.345,-0.39
23:27:03.204,-0.34,-0.42
23:27:03.208,-0.325,-0.38
23:27:03.212,-0.29,-0.4
23:27:03.216,-0.29,-0.41
23:27:03.220,-0.28,-0.42
23:27:03.224,-0.28,-0.425
23:27:03.228,-0.255,-0.42
23:27:03.232,-0.23,-0.42
23:27:03.236,-0.24,-0.435
23:27:03.240,-0.24,-0.425
23:27:03.244,-0.245,-0.445
23:27:03.248,-0.245,-0.445
23:27:03.252,-0.21,-0.43
23:27:03.256,-0.2,-0.41
23:27:03.260,-0.185,-0.415
23:27:03.264,-0.17,-0.415
23:27:03.268,-0.15,-0.4
23:27:03.272,-0.16,-0.395
23:27:03.276,-0.15,-0.38
23:27:03.280,-0.14,-0.36
23:27:03.284,-0.125,-0.34
23:27:03.288,-0.135,-0.33
23:27:03.292,-0.13,-0.315
23:27:03.296,-0.12,-0.3
23:27:03.300,-0.135,-0.29
23:27:03.304,-0.16,-0.275
23:27:03.308,-0.18,-0.28
23:27:03.312,-0.19,-0.275
23:27:03.316,-0.205,-0.26
23:27:03.320,-0.195,-0.25
23:27:03.324,-0.24,-0.225
23:27:03.328,-0.25,-0.22
23:27:03.332,-0.29,-0.215
23:27:03.336,-0.295,-0.21
23:27:03.340,-0.315,-0.24
23:27:03.344,-0.345,-0.24
23:27:03.348,-0.35,-0.21
23:27:03.352,-0.36,-0.21
23:27:03.356,-0.34,-0.215
23:27:03.360,-0.345,-0.205
23:27:03.364,-0.345,-0.225
23:27:03.368,-0.33,-0.22
23:27:03.372,-0.3,-0.24
23:27:03.376,-0.325,-0.25
23:27:03.380,-0.335,-0.24
23:27:03.384,-0.31,-0.25
23:27:03.388,-0.315,-0.24
23:27:03.392,-0.3,-0.22
23:27:03.396,-0.3,-0.25
23:27:03.400,-0.27,-0.25
23:27:03.404,-0.24,-0.27
23:27:03.408,-0.24,-0.255
23:27:03.412,-0.235,-0.265
23:27:03.416,-0.22,-0.26
23:27:03.420,-0.2,-0.265
23:27:03.424,-0.17,-0.245
23:27:03.428,-0.185,-0.255
23:27:03.432,-0.145,-0.25
23:27:03.436,-0.095,-0.24
23:27:03.440,-0.035,-0.23
23:27:03.444,0.07,-0.235
23:27:03.448,0.18,-0.22
23:27:03.452,0.255,-0.26
23:27:03.456,0.285,-0.305
23:27:03.460,0.34,-0.31
23:27:03.464,0.4,-0.27
23:27:03.468,0.405,-0.275
23:27:03.472,0.395,-0.3
23:27:03.476,0.42,-0.36
23:27:03.480,0.59,-0.485
23:27:03.484,0.885,-0.685
23:27:03.488,1.2,-0.895
23:27:03.492,1.37,-1.09
23:27:03.496,1.245,-1.16
23:27:03.500,0.86,-1.045
23:27:03.504,0.355,-0.68
23:27:03.508,0.06,-0.335
23:27:03.512,-0.09,-0.16
23:27:03.516,-0.15,-0.03
23:27:03.520,-0.18,0.065
23:27:03.524,-0.205,0.105
23:27:03.528,-0.27,0.12
23:27:03.532,-0.33,0.125
23:27:03.536,-0.37,0.15
23:27:03.540,-0.415,0.14
23:27:03.544,-0.465,0.135
23:27:03.548,-0.49,0.105
23:27:03.552,-0.5,0.11
23:27:03.556,-0.545,0.105
23:27:03.560,-0.56,0.12
23:27:03.564,-0.57,0.115
23:27:03.568,-0.585,0.125
23:27:03.572,-0.6,0.14
23:27:03.576,-0.6,0.125
23:27:03.580,-0.6,0.11
23:27:03.584,-0.605,0.095
23:27:03.588,-0.605,0.095
23:27:03.592,-0.6,0.1
23:27:03.596,-0.62,0.09
23:27:03.600,-0.62,0.075
23:27:03.604,-0.61,0.065
23:27:03.608,-0.635,0.06
23:27:03.612,-0.625,0.05
23:27:03.616,-0.64,0.065
23:27:03.620,-0.64,0.03
23:27:03.624,-0.63,0.025
23:27:03.628,-0.61,0.03
23:27:03.632,-0.625,0.03
23:27:03.636,-0.63,0.025
23:27:03.640,-0.64,0.04
23:27:03.644,-0.62,0.02
23:27:03.648,-0.62,0.04
23:27:03.652,-0.595,0.035
23:27:03.656,-0.59,0.045
23:27:03.660,-0.58,0.035
23:27:03.664,-0.56,0.03
23:27:03.668,-0.555,0.035
23:27:03.672,-0.535,0.05
23:27:03.676,-0.525,0.045
23:27:03.680,-0.505,0.04
23:27:03.684,-0.485,0.035
23:27:03.688,-0.455,0.03
23:27:03.692,-0.45,0.055
23:27:03.696,-0.42,0.015
23:27:03.700,-0.41,0.055
23:27:03.704,-0.39,0.055
23:27:03.708,-0.4,0.055
23:27:03.712,-0.365,0.09
23:27:03.716,-0.365,0.09
23:27:03.720,-0.36,0.085
23:27:03.724,-0.34,0.07
23:27:03.728,-0.32,0.08
23:27:03.732,-0.3,0.075
23:27:03.736,-0.305,0.07
23:27:03.740,-0.29,0.09
23:27:03.744,-0.3,0.095
23:27:03.748,-0.33,0.095
23:27:03.752,-0.355,0.11
23:27:03.756,-0.38,0.12
23:27:03.760,-0.395,0.115
23:27:03.764,-0.44,0.105
23:27:03.768,-0.45,0.125
23:27:03.772,-0.47,0.13
23:27:03.776,-0.485,0.13
23:27:03.780,-0.5,0.15
23:27:03.784,-0.5,0.165
23:27:03.788,-0.515,0.13
23:27:03.792,-0.5,0.125
23:27:03.796,-0.51,0.11
23:27:03.800,-0.515,0.115
23:27:03.804,-0.525,0.105
23:27:03.808,-0.5,0.105
23:27:03.812,-0.51,0.115
23:27:03.816,-0.505,0.11
23:27:03.820,-0.485,0.11
23:27:03.824,-0.505,0.095
23:27:03.828,-0.5,0.08
23:27:03.832,-0.485,0.075
23:27:03.836,-0.47,0.09
23:27:03.840,-0.46,0.07
23:27:03.844,-0.435,0.08
23:27:03.848,-0.45,0.105
23:27:03.852,-0.45,0.075
23:27:03.856,-0.46,0.07
23:27:03.860,-0.445,0.1
23:27:03.864,-0.45,0.09
23:27:03.868,-0.44,0.08
23:27:03.872,-0.45,0.075
23:27:03.876,-0.43,0.08
23:27:03.880,-0.445,0.075
23:27:03.884,-0.43,0.08
23:27:03.888,-0.43,0.065
23:27:03.892,-0.405,0.07
23:27:03.896,-0.385,0.07
23:27:03.900,-0.375,0.075
23:27:03.904,-0.36,0.075
23:27:03.908,-0.33,0.09
23:27:03.912,-0.335,0.08
23:27:03.916,-0.285,0.085
23:27:03.920,-0.26,0.07
23:27:03.924,-0.265,0.075
23:27:03.928,-0.245,0.08
23:27:03.932,-0.24,0.115
23:27:03.936,-0.25,0.12
23:27:03.940,-0.24,0.145
23:27:03.944,-0.25,0.16
23:27:03.948,-0.24,0.18
23:27:03.952,-0.24,0.18
23:27:03.956,-0.22,0.18
23:27:03.960,-0.22,0.19
23:27:03.964,-0.24,0.2
23:27:03.968,-0.25,0.215
23:27:03.972,-0.28,0.215
23:27:03.976,-0.28,0.205
23:27:03.980,-0.275,0.21
23:27:03.984,-0.255,0.215
23:27:03.988,-0.205,0.19
23:27:03.992,-0.14,0.19
23:27:03.996,-0.13,0.175
23:27:04.000,-0.105,0.17
23:27:04.004,-0.12,0.145
23:27:04.008,-0.145,0.155
23:27:04.012,-0.16,0.12
23:27:04.016,-0.17,0.055
23:27:04.020,-0.035,-0.08
23:27:04.024,0.225,-0.26
23:27:04.028,0.555,-0.53
23:27:04.032,0.83,-0.805
23:27:04.036,0.94,-1.0
23:27:04.040,0.8,-0.975
23:27:04.044,0.395,-0.705
23:27:04.048,-0.02,-0.31
23:27:04.052,-0.31,-0.025
23:27:04.056,-0.455,0.17
23:27:04.060,-0.52,0.235
23:27:04.064,-0.555,0.29
23:27:04.068,-0.585,0.28
23:27:04.072,-0.605,0.28
23:27:04.076,-0.63,0.255
23:27:04.080,-0.64,0.255
23:27:04.084,-0.655,0.21
23:27:04.088,-0.665,0.215
23:27:04.092,-0.67,0.19
23:27:04.096,-0.69,0.175
23:27:04.100,-0.67,0.175
23:27:04.104,-0.7,0.17
23:27:04.108,-0.7,0.17
23:27:04.112,-0.71,0.155
23:27:04.116,-0.685,0.145
23:27:04.120,-0.67,0.15
23:27:04.124,-0.675,0.14
23:27:04.128,-0.635,0.12
23:27:04.132,-0.625,0.17
23:27:04.136,-0.59,0.13
23:27:04.140,-0.575,0.14
23:27:04.144,-0.56,0.155
23:27:04.148,-0.575,0.145
23:27:04.152,-0.565,0.16
23:27:04.156,-0.54,0.185
23:27:04.160,-0.54,0.22
23:27:04.164,-0.525,0.23
23:27:04.168,-0.5,0.24
23:27:04.172,-0.5,0.26
23:27:04.176,-0.51,0.28
23:27:04.180,-0.505,0.29
23:27:04.184,-0.505,0.285
23:27:04.188,-0.52,0.285
23:27:04.192,-0.53,0.28
23:27:04.196,-0.555,0.31
23:27:04.200,-0.595,0.3
23:27:04.204,-0.605,0.295
23:27:04.208,-0.63,0.285
23:27:04.212,-0.665,0.3
23:27:04.216,-0.685,0.315
23:27:04.220,-0.72,0.315
23:27:04.224,-0.725,0.31
23:27:04.228,-0.72,0.33
23:27:04.232,-0.705,0.31
23:27:04.236,-0.685,0.29
23:27:04.240,-0.675,0.265
23:27:04.244,-0.665,0.25
23:27:04.248,-0.655,0.235
23:27:04.252,-0.635,0.235
23:27:04.256,-0.625,0.185
23:27:04.260,-0.61,0.165
23:27:04.264,-0.585,0.18
23:27:04.268,-0.59,0.155
23:27:04.272,-0.565,0.145
23:27:04.276,-0.535,0.145
23:27:04.280,-0.515,0.12
23:27:04.284,-0.515,0.12
23:27:04.288,-0.525,0.12
23:27:04.292,-0.505,0.115
23:27:04.296,-0.495,0.125
23:27:04.300,-0.495,0.13
23:27:04.304,-0.51,0.095
23:27:04.308,-0.485,0.105
23:27:04.312,-0.465,0.115
23:27:04.316,-0.455,0.11
23:27:04.320,-0.455,0.12
23:27:04.324,-0.455,0.125
23:27:04.328,-0.435,0.1
23:27:04.332,-0.43,0.11
23:27:04.336,-0.41,0.115
23:27:04.340,-0.41,0.1
23:27:04.344,-0.38,0.13
23:27:04.348,-0.365,0.105
23:27:04.352,-0.345,0.105
23:27:04.356,-0.36,0.13
23:27:04.360,-0.325,0.14
23:27:04.364,-0.335,0.105
23:27:04.368,-0.32,0.13
23:27:04.372,-0.32,0.125
23:27:04.376,-0.32,0.115
23:27:04.380,-0.33,0.15
23:27:04.384,-0.32,0.17
23:27:04.388,-0.305,0.19
23:27:04.392,-0.3,0.2
23:27:04.396,-0.29,0.205
23:27:04.400,-0.3,0.215
23:27:04.404,-0.305,0.245
23:27:04.408,-0.31,0.24
23:27:04.412,-0.32,0.245
23:27:04.416,-0.35,0.24
23:27:04.420,-0.36,0.25
23:27:04.424,-0.405,0.24
23:27:04.428,-0.455,0.27
23:27:04.432,-0.48,0.24
23:27:04.436,-0.5,0.245
23:27:04.440,-0.51,0.255
23:27:04.444,-0.545,0.27
23:27:04.448,-0.55,0.25
23:27:04.452,-0.555,0.255
23:27:04.456,-0.545,0.255
23:27:04.460,-0.55,0.235
23:27:04.464,-0.54,0.215
23:27:04.468,-0.53,0.19
23:27:04.472,-0.52,0.19
23:27:04.476,-0.52,0.18
23:27:04.480,-0.525,0.18
23:27:04.484,-0.525,0.165
23:27:04.488,-0.525,0.175
23:27:04.492,-0.53,0.165
23:27:04.496,-0.52,0.14
23:27:04.500,-0.5,0.14
23:27:04.504,-0.5,0.16
23:27:04.508,-0.51,0.13
23:27:04.512,-0.48,0.145
23:27:04.516,-0.49,0.155
23:27:04.520,-0.495,0.125
23:27:04.524,-0.47,0.115
23:27:04.528,-0.47,0.11
23:27:04.532,-0.485,0.11
23:27:04.536,-0.485,0.115
23:27:04.540,-0.47,0.135
23:27:04.544,-0.455,0.12
23:27:04.548,-0.485,0.145
23:27:04.552,-0.48,0.11
23:27:04.556,-0.485,0.12
23:27:04.560,-0.47,0.105
23:27:04.564,-0.46,0.095
23:27:04.568,-0.455,0.095
23:27:04.572,-0.435,0.105
23:27:04.576,-0.415,0.075
23:27:04.580,-0.345,0.065
23:27:04.584,-0.255,0.07
23:27:04.588,-0.135,0.07
23:27:04.592,-0.03,0.05
23:27:04.596,0.0,0.025
23:27:04.600,0.015,0.0
23:27:04.604,0.05,-0.01
23:27:04.608,0.05,0.015
23:27:04.612,0.015,0.01
23:27:04.616,-0.005,0.005
23:27:04.620,0.035,-0.06
23:27:04.624,0.22,-0.17
23:27:04.628,0.525,-0.39
23:27:04.632,0.84,-0.67
23:27:04.636,1.05,-0.925
23:27:04.640,1.02,-0.995
23:27:04.644,0.75,-0.86
23:27:04.648,0.285,-0.54
23:27:04.652,-0.115,-0.155
23:27:04.656,-0.375,0.105
23:27:04.660,-0.485,0.265
23:27:04.664,-0.54,0.32
23:27:04.668,-0.595,0.35
23:27:04.672,-0.62,0.35
23:27:04.676,-0.675,0.325
23:27:04.680,-0.705,0.3
23:27:04.684,-0.72,0.255
23:27:04.688,-0.715,0.22
23:27:04.692,-0.71,0.185
23:27:04.696,-0.72,0.165
23:27:04.700,-0.705,0.155
23:27:04.704,-0.715,0.135
23:27:04.708,-0.72,0.115
23:27:04.712,-0.735,0.13
23:27:04.716,-0.735,0.115
23:27:04.720,-0.72,0.11
23:27:04.724,-0.7,0.075
23:27:04.728,-0.71,0.095
23:27:04.732,-0.715,0.075
23:27:04.736,-0.705,0.07
23:27:04.740,-0.71,0.07
23:27:04.744,-0.71,0.055
23:27:04.748,-0.72,0.06
23:27:04.752,-0.715,0.065
23:27:04.756,-0.735,0.055
23:27:04.760,-0.73,0.05
23:27:04.764,-0.745,0.045
23:27:04.768,-0.73,0.03
23:27:04.772,-0.69,0.03
23:27:04.776,-0.705,0.02
23:27:04.780,-0.73,0.02
23:27:04.784,-0.73,0.005
23:27:04.788,-0.69,0.0
23:27:04.792,-0.7,0.0
23:27:04.796,-0.71,0.0
23:27:04.800,-0.69,0.01
23:27:04.804,-0.665,-0.02
23:27:04.808,-0.62,-0.025
23:27:04.812,-0.55,-0.02
23:27:04.816,-0.555,-0.005
23:27:04.820,-0.5,-0.015
23:27:04.824,-0.48,-0.025
23:27:04.828,-0.475,-0.035
23:27:04.832,-0.455,-0.01
23:27:04.836,-0.435,-0.01
23:27:04.840,-0.47,0.01
23:27:04.844,-0.44,0.01
23:27:04.848,-0.44,0.04
23:27:04.852,-0.44,0.035
23:27:04.856,-0.46,0.055
23:27:04.860,-0.45,0.005
23:27:04.864,-0.435,0.015
23:27:04.868,-0.455,0.0
23:27:04.872,-0.465,-0.01
23:27:04.876,-0.485,-0.02
23:27:04.880,-0.515,-0.04
23:27:04.884,-0.525,-0.055
23:27:04.888,-0.515,-0.06
23:27:04.892,-0.49,-0.06
23:27:04.896,-0.49,-0.045
23:27:04.900,-0.49,-0.06
23:27:04.904,-0.505,-0.08
23:27:04.908,-0.505,-0.06
23:27:04.912,-0.5,-0.05
23:27:04.916,-0.47,-0.075
23:27:04.920,-0.445,-0.065
23:27:04.924,-0.46,-0.08
23:27:04.928,-0.46,-0.085
23:27:04.932,-0.415,-0.08
23:27:04.936,-0.395,-0.1
23:27:04.940,-0.43,-0.1
23:27:04.944,-0.435,-0.095
23:27:04.948,-0.415,-0.1
23:27:04.952,-0.41,-0.1
23:27:04.956,-0.41,-0.11
23:27:04.960,-0.38,-0.095
23:27:04.964,-0.405,-0.095
23:27:04.968,-0.42,-0.1
23:27:04.972,-0.43,-0.105
23:27:04.976,-0.435,-0.11
23:27:04.980,-0.41,-0.13
23:27:04.984,-0.42,-0.14
23:27:04.988,-0.41,-0.14
23:27:04.992,-0.41,-0.135
23:27:04.996,-0.435,-0.16
23:27:05.000,-0.42,-0.155
23:27:05.004,-0.435,-0.185
23:27:05.008,-0.415,-0.18
23:27:05.012,-0.41,-0.19
23:27:05.016,-0.41,-0.2
23:27:05.020,-0.37,-0.185
23:27:05.024,-0.385,-0.195
23:27:05.028,-0.34,-0.22
23:27:05.032,-0.345,-0.24
23:27:05.036,-0.305,-0.24
23:27:05.040,-0.295,-0.235
23:27:05.044,-0.275,-0.235
23:27:05.048,-0.225,-0.245
23:27:05.052,-0.205,-0.235
23:27:05.056,-0.135,-0.25
23:27:05.060,-0.08,-0.205
23:27:05.064,0.0,-0.235
23:27:05.068,0.115,-0.21
23:27:05.072,0.19,-0.205
23:27:05.076,0.265,-0.22
23:27:05.080,0.32,-0.24
23:27:05.084,0.335,-0.255
23:27:05.088,0.35,-0.235
23:27:05.092,0.345,-0.215
23:27:05.096,0.29,-0.215
23:27:05.100,0.335,-0.28
23:27:05.104,0.515,-0.38
23:27:05.108,0.82,-0.575
23:27:05.112,1.07,-0.855
23:27:05.116,1.175,-1.07
23:27:05.120,1.04,-1.16
23:27:05.124,0.65,-1.035
23:27:05.128,0.18,-0.74
23:27:05.132,-0.075,-0.445
23:27:05.136,-0.23,-0.29
23:27:05.140,-0.3,-0.225
23:27:05.144,-0.355,-0.155
23:27:05.148,-0.39,-0.12
23:27:05.152,-0.445,-0.14
23:27:05.156,-0.455,-0.16
23:27:05.160,-0.48,-0.18
23:27:05.164,-0.49,-0.185
23:27:05.168,-0.46,-0.21
23:27:05.172,-0.465,-0.225
23:27:05.176,-0.49,-0.245
23:27:05.180,-0.495,-0.275
23:27:05.184,-0.49,-0.275
23:27:05.188,-0.495,-0.275
23:27:05.192,-0.515,-0.27
23:27:05.196,-0.485,-0.29
23:27:05.200,-0.5,-0.29
23:27:05.204,-0.495,-0.295
23:27:05.208,-0.51,-0.295
23:27:05.212,-0.495,-0.31
23:27:05.216,-0.495,-0.275
23:27:05.220,-0.485,-0.305
23:27:05.224,-0.515,-0.32
23:27:05.228,-0.52,-0.31
23:27:05.232,-0.515,-0.3
23:27:05.236,-0.525,-0.31
23:27:05.240,-0.51,-0.34
23:27:05.244,-0.525,-0.335
23:27:05.248,-0.475,-0.32
23:27:05.252,-0.445,-0.335
23:27:05.256,-0.45,-0.315
23:27:05.260,-0.465,-0.32
23:27:05.264,-0.455,-0.34
23:27:05.268,-0.47,-0.35
23:27:05.272,-0.435,-0.345
23:27:05.276,-0.39,-0.34
23:27:05.280,-0.355,-0.35
23:27:05.284,-0.365,-0.34
23:27:05.288,-0.35,-0.34
23:27:05.292,-0.355,-0.32
23:27:05.296,-0.315,-0.3
23:27:05.300,-0.285,-0.315
23:27:05.304,-0.255,-0.305
23:27:05.308,-0.26,-0.295
23:27:05.312,-0.245,-0.295
23:27:05.316,-0.245,-0.31
23:27:05.320,-0.275,-0.3
23:27:05.324,-0.285,-0.3
23:27:05.328,-0.315,-0.295
23:27:05.332,-0.31,-0.305
23:27:05.336,-0.315,-0.3
23:27:05.340,-0.31,-0.315
23:27:05.344,-0.335,-0.335
23:27:05.348,-0.34,-0.32
23:27:05.352,-0.34,-0.32
23:27:05.356,-0.325,-0.33
23:27:05.360,-0.33,-0.35
23:27:05.364,-0.3,-0.335
23:27:05.368,-0.29,-0.35
23:27:05.372,-0.28,-0.345
23:27:05.376,-0.285,-0.385
23:27:05.380,-0.275,-0.375
23:27:05.384,-0.28,-0.41
23:27:05.388,-0.27,-0.39
23:27:05.392,-0.275,-0.395
23:27:05.396,-0.27,-0.38
23:27:05.400,-0.285,-0.4
23:27:05.404,-0.275,-0.4
23:27:05.408,-0.3,-0.385
23:27:05.412,-0.31,-0.4
23:27:05.416,-0.335,-0.415
23:27:05.420,-0.345,-0.41
23:27:05.424,-0.355,-0.41
23:27:05.428,-0.34,-0.385
23:27:05.432,-0.35,-0.41
23:27:05.436,-0.355,-0.405
23:27:05.440,-0.36,-0.43
23:27:05.444,-0.365,-0.44
23:27:05.448,-0.36,-0.44
23:27:05.452,-0.36,-0.45
23:27:05.456,-0.34,-0.42
23:27:05.460,-0.34,-0.43
23:27:05.464,-0.33,-0.42
23:27:05.468,-0.315,-0.4
23:27:05.472,-0.32,-0.4
23:27:05.476,-0.3,-0.39
23:27:05.480,-0.295,-0.385
23:27:05.484,-0.29,-0.37
23:27:05.488,-0.265,-0.385
23:27:05.492,-0.24,-0.375
23:27:05.496,-0.235,-0.365
23:27:05.500,-0.25,-0.335
23:27:05.504,-0.225,-0.34
23:27:05.508,-0.215,-0.335
23:27:05.512,-0.195,-0.32
23:27:05.516,-0.185,-0.32
23:27:05.520,-0.175,-0.29
23:27:05.524,-0.175,-0.275
23:27:05.528,-0.16,-0.295
23:27:05.532,-0.175,-0.285
23:27:05.536,-0.185,-0.26
23:27:05.540,-0.19,-0.23
23:27:05.544,-0.2,-0.24
23:27:05.548,-0.225,-0.235
23:27:05.552,-0.26,-0.235
23:27:05.556,-0.27,-0.255
23:27:05.560,-0.29,-0.24
23:27:05.564,-0.325,-0.245
23:27:05.568,-0.34,-0.245
23:27:05.572,-0.375,-0.25
23:27:05.576,-0.39,-0.245
23:27:05.580,-0.385,-0.225
23:27:05.584,-0.38,-0.195
23:27:05.588,-0.385,-0.205
23:27:05.592,-0.36,-0.19
23:27:05.596,-0.34,-0.2
23:27:05.600,-0.32,-0.21
23:27:05.604,-0.33,-0.205
23:27:05.608,-0.345,-0.21
23:27:05.612,-0.32,-0.23
23:27:05.616,-0.33,-0.24
23:27:05.620,-0.315,-0.255
23:27:05.624,-0.34,-0.26
23:27:05.628,-0.35,-0.275
23:27:05.632,-0.34,-0.24
23:27:05.636,-0.345,-0.25
23:27:05.640,-0.345,-0.26
23:27:05.644,-0.345,-0.27
23:27:05.648,-0.365,-0.255
23:27:05.652,-0.37,-0.255
23:27:05.656,-0.37,-0.24
23:27:05.660,-0.365,-0.255
23:27:05.664,-0.37,-0.245
23:27:05.668,-0.36,-0.25
23:27:05.672,-0.385,-0.26
23:27:05.676,-0.37,-0.23
23:27:05.680,-0.37,-0.245
23:27:05.684,-0.35,-0.24
23:27:05.688,-0.34,-0.225
23:27:05.692,-0.36,-0.24
23:27:05.696,-0.36,-0.23
23:27:05.700,-0.36,-0.215
23:27:05.704,-0.35,-0.19
23:27:05.708,-0.325,-0.2
23:27:05.712,-0.32,-0.19
23:27:05.716,-0.305,-0.17
23:27:05.720,-0.3,-0.155
23:27:05.724,-0.285,-0.135
23:27:05.728,-0.29,-0.135
23:27:05.732,-0.29,-0.125
23:27:05.736,-0.27,-0.115
23:27:05.740,-0.25,-0.11
23:27:05.744,-0.265,-0.07
23:27:05.748,-0.255,-0.07
23:27:05.752,-0.23,-0.08
23:27:05.756,-0.245,-0.04
23:27:05.760,-0.26,-0.06
23:27:05.764,-0.245,-0.055
23:27:05.768,-0.255,-0.035
23:27:05.772,-0.275,-0.035
23:27:05.776,-0.28,-0.035
23:27:05.780,-0.31,-0.035
23:27:05.784,-0.33,-0.045
23:27:05.788,-0.36,-0.025
23:27:05.792,-0.4,-0.03
23:27:05.796,-0.45,-0.02
23:27:05.800,-0.45,-0.025
23:27:05.804,-0.465,0.0
23:27:05.808,-0.47,0.0
23:27:05.812,-0.46,0.03
23:27:05.816,-0.475,0.015
23:27:05.820,-0.455,0.045
23:27:05.824,-0.435,0.015
23:27:05.828,-0.415,0.03
23:27:05.832,-0.4,0.005
23:27:05.836,-0.405,0.0
23:27:05.840,-0.41,-0.005
23:27:05.844,-0.39,0.0
23:27:05.848,-0.38,-0.02
23:27:05.852,-0.35,-0.03
23:27:05.856,-0.37,-0.03
23:27:05.860,-0.39,-0.025
23:27:05.864,-0.38,-0.045
23:27:05.868,-0.385,-0.025
23:27:05.872,-0.37,-0.005
23:27:05.876,-0.38,-0.025
23:27:05.880,-0.355,-0.005
23:27:05.884,-0.365,-0.02
23:27:05.888,-0.365,-0.04
23:27:05.892,-0.355,-0.02
23:27:05.896,-0.36,-0.04
23:27:05.900,-0.355,-0.035
23:27:05.904,-0.32,-0.04
23:27:05.908,-0.275,-0.045
23:27:05.912,-0.17,-0.05
23:27:05.916,-0.09,-0.035
23:27:05.920,-0.015,-0.015
23:27:05.924,0.075,-0.05
23:27:05.928,0.12,-0.075
23:27:05.932,0.155,-0.1
23:27:05.936,0.16,-0.08
23:27:05.940,0.145,-0.075
23:27:05.944,0.105,-0.105
23:27:05.948,0.14,-0.195
23:27:05.952,0.325,-0.34
23:27:05.956,0.645,-0.57
23:27:05.960,0.96,-0.805
23:27:05.964,1.19,-1.05
23:27:05.968,1.19,-1.12
23:27:05.972,0.925,-0.975
23:27:05.976,0.41,-0.59
23:27:05.980,0.0,-0.24
23:27:05.984,-0.205,0.01
23:27:05.988,-0.295,0.16
23:27:05.992,-0.4,0.23
23:27:05.996,-0.445,0.265
23:27:06.000,-0.51,0.245
23:27:06.004,-0.55,0.245
23:27:06.008,-0.58,0.235
23:27:06.012,-0.65,0.22
23:27:06.016,-0.705,0.21
23:27:06.020,-0.72,0.205
23:27:06.024,-0.74,0.21
23:27:06.028,-0.74,0.185
23:27:06.032,-0.725,0.21
23:27:06.036,-0.725,0.205
23:27:06.040,-0.745,0.205
23:27:06.044,-0.72,0.195
23:27:06.048,-0.725,0.175
23:27:06.052,-0.71,0.165
23:27:06.056,-0.72,0.15
23:27:06.060,-0.7,0.125
23:27:06.064,-0.71,0.135
23:27:06.068,-0.705,0.12
23:27:06.072,-0.715,0.105
23:27:06.076,-0.73,0.095
23:27:06.080,-0.73,0.075
23:27:06.084,-0.72,0.06
23:27:06.088,-0.73,0.08
23:27:06.092,-0.735,0.095
23:27:06.096,-0.72,0.07
23:27:06.100,-0.7,0.055
23:27:06.104,-0.72,0.045
23:27:06.108,-0.71,0.055
23:27:06.112,-0.695,0.07
23:27:06.116,-0.715,0.06
23:27:06.120,-0.675,0.055
23:27:06.124,-0.69,0.08
23:27:06.128,-0.685,0.08
23:27:06.132,-0.675,0.065
23:27:06.136,-0.68,0.06
23:27:06.140,-0.635,0.035
23:27:06.144,-0.635,0.05
23:27:06.148,-0.615,0.07
23:27:06.152,-0.625,0.045
23:27:06.156,-0.63,0.055
23:27:06.160,-0.625,0.05
23:27:06.164,-0.605,0.075
23:27:06.168,-0.625,0.08
23:27:06.172,-0.61,0.075
23:27:06.176,-0.595,0.085
23:27:06.180,-0.57,0.09
23:27:06.184,-0.56,0.08
23:27:06.188,-0.555,0.075
23:27:06.192,-0.575,0.06
23:27:06.196,-0.56,0.075
23:27:06.200,-0.54,0.09
23:27:06.204,-0.54,0.09
23:27:06.208,-0.52,0.095
23:27:06.212,-0.52,0.1
23:27:06.216,-0.53,0.1
23:27:06.220,-0.53,0.105
23:27:06.224,-0.54,0.095
23:27:06.228,-0.55,0.095
23:27:06.232,-0.58,0.095
23:27:06.236,-0.61,0.065
23:27:06.240,-0.615,0.055
23:27:06.244,-0.625,0.07
23:27:06.248,-0.62,0.08
23:27:06.252,-0.59,0.075
23:27:06.256,-0.58,0.105
23:27:06.260,-0.605,0.095
23:27:06.264,-0.565,0.085
23:27:06.268,-0.56,0.08
23:27:06.272,-0.55,0.08
23:27:06.276,-0.52,0.07
23:27:06.280,-0.54,0.07
23:27:06.284,-0.535,0.065
23:27:06.288,-0.51,0.065
23:27:06.292,-0.52,0.05
23:27:06.296,-0.515,0.065
23:27:06.300,-0.545,0.065
23:27:06.304,-0.535,0.055
23:27:06.308,-0.535,0.05
23:27:06.312,-0.515,0.075
23:27:06.316,-0.515,0.06
23:27:06.320,-0.51,0.065
23:27:06.324,-0.51,0.065
23:27:06.328,-0.485,0.06
23:27:06.332,-0.465,0.07
23:27:06.336,-0.465,0.075
23:27:06.340,-0.455,0.06
23:27:06.344,-0.455,0.075
23:27:06.348,-0.465,0.07
23:27:06.352,-0.445,0.06
23:27:06.356,-0.435,0.06
23:27:06.360,-0.415,0.055
23:27:06.364,-0.41,0.06
23:27:06.368,-0.41,0.065
23:27:06.372,-0.41,0.065
23:27:06.376,-0.44,0.055
23:27:06.380,-0.425,0.08
23:27:06.384,-0.41,0.07
23:27:06.388,-0.42,0.06
23:27:06.392,-0.415,0.07
23:27:06.396,-0.425,0.075
23:27:06.400,-0.42,0.095
23:27:06.404,-0.415,0.1
23:27:06.408,-0.395,0.095
23:27:06.412,-0.355,0.09
23:27:06.416,-0.295,0.075
23:27:06.420,-0.255,0.08
23:27:06.424,-0.165,0.11
23:27:06.428,-0.1,0.09
23:27:06.432,-0.065,0.035
23:27:06.436,-0.055,0.03
23:27:06.440,-0.075,0.02
23:27:06.444,-0.125,0.04
23:27:06.448,-0.195,0.03
23:27:06.452,-0.185,0.0
23:27:06.456,-0.015,-0.105
23:27:06.460,0.265,-0.27
23:27:06.464,0.56,-0.57
23:27:06.468,0.745,-0.865
23:27:06.472,0.78,-1.0
23:27:06.476,0.485,-0.895
23:27:06.480,0.055,-0.565
23:27:06.484,-0.34,-0.19
23:27:06.488,-0.52,0.075
23:27:06.492,-0.605,0.21
23:27:06.496,-0.64,0.265
23:27:06.500,-0.685,0.275
23:27:06.504,-0.7,0.24
23:27:06.508,-0.71,0.21
23:27:06.512,-0.71,0.205
23:27:06.516,-0.725,0.185
23:27:06.520,-0.75,0.155
23:27:06.524,-0.76,0.12
23:27:06.528,-0.755,0.125
23:27:06.532,-0.76,0.125
23:27:06.536,-0.745,0.105
23:27:06.540,-0.755,0.095
23:27:06.544,-0.76,0.095
23:27:06.548,-0.75,0.075
23:27:06.552,-0.725,0.08
23:27:06.556,-0.715,0.07
23:27:06.560,-0.735,0.065
23:27:06.564,-0.745,0.085
23:27:06.568,-0.71,0.08
23:27:06.572,-0.66,0.085
23:27:06.576,-0.68,0.1
23:27:06.580,-0.655,0.075
23:27:06.584,-0.665,0.09
23:27:06.588,-0.64,0.115
23:27:06.592,-0.64,0.115
23:27:06.596,-0.675,0.125
23:27:06.600,-0.68,0.145
23:27:06.604,-0.665,0.13
23:27:06.608,-0.645,0.11
23:27:06.612,-0.67,0.12
23:27:06.616,-0.66,0.14
23:27:06.620,-0.645,0.14
23:27:06.624,-0.655,0.14
23:27:06.628,-0.655,0.15
23:27:06.632,-0.64,0.135
23:27:06.636,-0.625,0.15
23:27:06.640,-0.62,0.15
23:27:06.644,-0.615,0.155
23:27:06.648,-0.595,0.145
23:27:06.652,-0.595,0.135
23:27:06.656,-0.595,0.15
23:27:06.660,-0.585,0.145
23:27:06.664,-0.565,0.145
23:27:06.668,-0.57,0.17
23:27:06.672,-0.55,0.14
23:27:06.676,-0.585,0.125
23:27:06.680,-0.615,0.125
23:27:06.684,-0.635,0.11
23:27:06.688,-0.685,0.105
23:27:06.692,-0.705,0.09
23:27:06.696,-0.695,0.065
23:27:06.700,-0.71,0.085
23:27:06.704,-0.695,0.065
23:27:06.708,-0.675,0.075
23:27:06.712,-0.675,0.055
23:27:06.716,-0.68,0.03
23:27:06.720,-0.665,0.005
23:27:06.724,-0.675,0.015
23:27:06.728,-0.655,-0.01
23:27:06.732,-0.645,-0.005
23:27:06.736,-0.65,-0.03
23:27:06.740,-0.635,-0.045
23:27:06.744,-0.625,-0.04
23:27:06.748,-0.6,-0.04
23:27:06.752,-0.595,-0.045
23:27:06.756,-0.59,-0.055
23:27:06.760,-0.6,-0.07
23:27:06.764,-0.58,-0.065
23:27:06.768,-0.575,-0.055
23:27:06.772,-0.575,-0.05
23:27:06.776,-0.585,-0.03
23:27:06.780,-0.585,-0.035
23:27:06.784,-0.57,-0.05
23:27:06.788,-0.57,-0.07
23:27:06.792,-0.545,-0.06
23:27:06.796,-0.535,-0.05
23:27:06.800,-0.545,-0.05
23:27:06.804,-0.56,-0.06
23:27:06.808,-0.555,-0.065
23:27:06.812,-0.535,-0.065
23:27:06.816,-0.53,-0.07
23:27:06.820,-0.54,-0.06
23:27:06.824,-0.525,-0.08
23:27:06.828,-0.53,-0.08
23:27:06.832,-0.52,-0.07
23:27:06.836,-0.5,-0.065
23:27:06.840,-0.51,-0.06
23:27:06.844,-0.53,-0.06
23:27:06.848,-0.515,-0.05
23:27:06.852,-0.505,-0.075
23:27:06.856,-0.475,-0.07
23:27:06.860,-0.47,-0.075
23:27:06.864,-0.445,-0.075
23:27:06.868,-0.425,-0.065
23:27:06.872,-0.405,-0.07
23:27:06.876,-0.395,-0.08
23:27:06.880,-0.38,-0.055
23:27:06.884,-0.38,-0.04
23:27:06.888,-0.365,-0.04
23:27:06.892,-0.345,-0.045
23:27:06.896,-0.29,-0.035
23:27:06.900,-0.27,-0.015
23:27:06.904,-0.225,-0.015
23:27:06.908,-0.17,-0.02
23:27:06.912,-0.105,-0.015
23:27:06.916,-0.04,-0.04
23:27:06.920,-0.03,-0.09
23:27:06.924,-0.015,-0.11
23:27:06.928,0.005,-0.075
23:27:06.932,-0.015,-0.08
23:27:06.936,-0.025,-0.1
23:27:06.940,0.065,-0.205
23:27:06.944,0.26,-0.32
23:27:06.948,0.56,-0.565
23:27:06.952,0.83,-0.86
23:27:06.956,0.975,-1.115
23:27:06.960,0.835,-1.21
23:27:06.964,0.435,-1.05
23:27:06.968,-0.02,-0.735
23:27:06.972,-0.315,-0.395
23:27:06.976,-0.455,-0.225
23:27:06.980,-0.53,-0.13
23:27:06.984,-0.555,-0.065
23:27:06.988,-0.585,-0.075
23:27:06.992,-0.605,-0.075
23:27:06.996,-0.625,-0.09
23:27:07.000,-0.665,-0.08
23:27:07.004,-0.685,-0.125
23:27:07.008,-0.66,-0.15
23:27:07.012,-0.63,-0.18
23:27:07.016,-0.625,-0.19
23:27:07.020,-0.625,-0.2
23:27:07.024,-0.615,-0.215
23:27:07.028,-0.63,-0.205
23:27:07.032,-0.6,-0.185
23:27:07.036,-0.59,-0.205
23:27:07.040,-0.575,-0.2
23:27:07.044,-0.61,-0.21
23:27:07.048,-0.605,-0.2
23:27:07.052,-0.6,-0.2
23:27:07.056,-0.605,-0.21
23:27:07.060,-0.6,-0.225
23:27:07.064,-0.585,-0.21
23:27:07.068,-0.625,-0.2
23:27:07.072,-0.615,-0.19
23:27:07.076,-0.62,-0.215
23:27:07.080,-0.61,-0.205
23:27:07.084,-0.61,-0.21
23:27:07.088,-0.59,-0.215
23:27:07.092,-0.58,-0.2
23:27:07.096,-0.545,-0.2
23:27:07.100,-0.545,-0.22
23:27:07.104,-0.53,-0.21
23:27:07.108,-0.515,-0.195
23:27:07.112,-0.51,-0.19
23:27:07.116,-0.49,-0.175
23:27:07.120,-0.495,-0.17
23:27:07.124,-0.455,-0.175
23:27:07.128,-0.47,-0.175
23:27:07.132,-0.505,-0.175
23:27:07.136,-0.49,-0.185
23:27:07.140,-0.515,-0.16
23:27:07.144,-0.54,-0.17
23:27:07.148,-0.57,-0.19
23:27:07.152,-0.58,-0.195
23:27:07.156,-0.585,-0.215
23:27:07.160,-0.59,-0.21
23:27:07.164,-0.565,-0.21
23:27:07.168,-0.555,-0.235
23:27:07.172,-0.545,-0.28
23:27:07.176,-0.535,-0.285
23:27:07.180,-0.525,-0.295
23:27:07.184,-0.5,-0.335
23:27:07.188,-0.475,-0.365
23:27:07.192,-0.465,-0.365
23:27:07.196,-0.48,-0.355
23:27:07.200,-0.46,-0.37
23:27:07.204,-0.43,-0.39
23:27:07.208,-0.43,-0.385
23:27:07.212,-0.425,-0.395
23:27:07.216,-0.41,-0.415
23:27:07.220,-0.38,-0.4
23:27:07.224,-0.415,-0.4
23:27:07.228,-0.39,-0.39
23:27:07.232,-0.365,-0.425
23:27:07.236,-0.355,-0.405
23:27:07.240,-0.34,-0.385
23:27:07.244,-0.34,-0.39
23:27:07.248,-0.355,-0.39
23:27:07.252,-0.355,-0.41
23:27:07.256,-0.365,-0.41
23:27:07.260,-0.37,-0.405
23:27:07.264,-0.355,-0.4
23:27:07.268,-0.355,-0.42
23:27:07.272,-0.355,-0.405
23:27:07.276,-0.36,-0.415
23:27:07.280,-0.345,-0.41
23:27:07.284,-0.36,-0.41
23:27:07.288,-0.355,-0.415
23:27:07.292,-0.355,-0.425
23:27:07.296,-0.34,-0.415
23:27:07.300,-0.365,-0.405
23:27:07.304,-0.385,-0.395
23:27:07.308,-0.39,-0.405
23:27:07.312,-0.37,-0.39
23:27:07.316,-0.355,-0.385
23:27:07.320,-0.34,-0.39
23:27:07.324,-0.345,-0.39
23:27:07.328,-0.36,-0.42
23:27:07.332,-0.36,-0.39
23:27:07.336,-0.34,-0.4
23:27:07.340,-0.31,-0.375
23:27:07.344,-0.29,-0.385
23:27:07.348,-0.28,-0.41
23:27:07.352,-0.265,-0.36
23:27:07.356,-0.225,-0.36
23:27:07.360,-0.255,-0.37
23:27:07.364,-0.295,-0.37
23:27:07.368,-0.335,-0.335
23:27:07.372,-0.34,-0.37
23:27:07.376,-0.38,-0.375
23:27:07.380,-0.415,-0.365
23:27:07.384,-0.44,-0.36
23:27:07.388,-0.45,-0.37
23:27:07.392,-0.43,-0.37
23:27:07.396,-0.425,-0.37
23:27:07.400,-0.405,-0.385
23:27:07.404,-0.39,-0.38
23:27:07.408,-0.385,-0.38
23:27:07.412,-0.395,-0.405
23:27:07.416,-0.41,-0.43
23:27:07.420,-0.39,-0.43
23:27:07.424,-0.38,-0.45
23:27:07.428,-0.385,-0.465
23:27:07.432,-0.375,-0.47
23:27:07.436,-0.38,-0.485
23:27:07.440,-0.395,-0.5
23:27:07.444,-0.4,-0.49
23:27:07.448,-0.37,-0.495
23:27:07.452,-0.355,-0.49
23:27:07.456,-0.355,-0.5
23:27:07.460,-0.33,-0.475
23:27:07.464,-0.31,-0.48
23:27:07.468,-0.275,-0.48
23:27:07.472,-0.245,-0.48
23:27:07.476,-0.16,-0.475
23:27:07.480,-0.06,-0.495
23:27:07.484,0.025,-0.51
23:27:07.488,0.105,-0.535
23:27:07.492,0.165,-0.575
23:27:07.496,0.23,-0.565
23:27:07.500,0.265,-0.545
23:27:07.504,0.22,-0.56
23:27:07.508,0.22,-0.6
23:27:07.512,0.34,-0.7
23:27:07.516,0.605,-0.865
23:27:07.520,0.905,-1.1
23:27:07.524,1.09,-1.345
23:27:07.528,1.035,-1.435
23:27:07.532,0.675,-1.41
23:27:07.536,0.17,-1.09
23:27:07.540,-0.16,-0.765
23:27:07.544,-0.31,-0.54
23:27:07.548,-0.39,-0.435
23:27:07.552,-0.415,-0.345
23:27:07.556,-0.43,-0.28
23:27:07.560,-0.46,-0.245
23:27:07.564,-0.5,-0.235
23:27:07.568,-0.53,-0.225
23:27:07.572,-0.535,-0.235
23:27:07.576,-0.53,-0.21
23:27:07.580,-0.525,-0.255
23:27:07.584,-0.53,-0.24
23:27:07.588,-0.515,-0.22
23:27:07.592,-0.535,-0.22
23:27:07.596,-0.565,-0.23
23:27:07.600,-0.6,-0.23
23:27:07.604,-0.64,-0.225
23:27:07.608,-0.67,-0.235
23:27:07.612,-0.695,-0.2
23:27:07.616,-0.705,-0.195
23:27:07.620,-0.705,-0.21
23:27:07.624,-0.72,-0.22
23:27:07.628,-0.71,-0.21
23:27:07.632,-0.7,-0.215
23:27:07.636,-0.715,-0.205
23:27:07.640,-0.7,-0.215
23:27:07.644,-0.685,-0.19
23:27:07.648,-0.68,-0.205
23:27:07.652,-0.68,-0.21
23:27:07.656,-0.695,-0.22
23:27:07.660,-0.69,-0.235
23:27:07.664,-0.665,-0.23
23:27:07.668,-0.67,-0.22
23:27:07.672,-0.655,-0.225
23:27:07.676,-0.655,-0.24
23:27:07.680,-0.655,-0.225
23:27:07.684,-0.64,-0.21
23:27:07.688,-0.65,-0.23
23:27:07.692,-0.64,-0.23
23:27:07.696,-0.615,-0.2
23:27:07.700,-0.635,-0.2
23:27:07.704,-0.625,-0.21
23:27:07.708,-0.605,-0.21
23:27:07.712,-0.625,-0.2
23:27:07.716,-0.6,-0.22
23:27:07.720,-0.585,-0.215
23:27:07.724,-0.595,-0.225
23:27:07.728,-0.58,-0.22
23:27:07.732,-0.585,-0.195
23:27:07.736,-0.555,-0.21
23:27:07.740,-0.54,-0.205
23:27:07.744,-0.53,-0.225
23:27:07.748,-0.505,-0.22
23:27:07.752,-0.505,-0.205
23:27:07.756,-0.49,-0.215
23:27:07.760,-0.475,-0.185
23:27:07.764,-0.485,-0.17
23:27:07.768,-0.485,-0.19
23:27:07.772,-0.47,-0.19
23:27:07.776,-0.43,-0.165
23:27:07.780,-0.415,-0.15
23:27:07.784,-0.415,-0.165
23:27:07.788,-0.4,-0.15
23:27:07.792,-0.385,-0.16
23:27:07.796,-0.375,-0.17
23:27:07.800,-0.36,-0.125
23:27:07.804,-0.35,-0.115
23:27:07.808,-0.335,-0.11
23:27:07.812,-0.34,-0.085
23:27:07.816,-0.31,-0.075
23:27:07.820,-0.34,-0.085
23:27:07.824,-0.345,-0.06
23:27:07.828,-0.37,-0.05
23:27:07.832,-0.405,-0.055
23:27:07.836,-0.45,-0.045
23:27:07.840,-0.47,-0.03
23:27:07.844,-0.49,-0.03
23:27:07.848,-0.495,-0.01
23:27:07.852,-0.49,-0.02
23:27:07.856,-0.51,-0.035
23:27:07.860,-0.505,0.0
23:27:07.864,-0.49,-0.02
23:27:07.868,-0.515,-0.025
23:27:07.872,-0.51,0.005
23:27:07.876,-0.515,0.0
23:27:07.880,-0.52,0.005
23:27:07.884,-0.51,0.0
23:27:07.888,-0.485,0.0
23:27:07.892,-0.505,-0.02
23:27:07.896,-0.485,-0.015
23:27:07.900,-0.505,-0.015
23:27:07.904,-0.505,-0.02
23:27:07.908,-0.5,-0.03
23:27:07.912,-0.5,-0.025
23:27:07.916,-0.505,-0.03
23:27:07.920,-0.53,-0.03
23:27:07.924,-0.525,-0.025
23:27:07.928,-0.51,-0.045
23:27:07.932,-0.52,-0.035
23:27:07.936,-0.535,-0.045
23:27:07.940,-0.535,-0.05
23:27:07.944,-0.51,-0.04
23:27:07.948,-0.505,-0.055
23:27:07.952,-0.505,-0.04
23:27:07.956,-0.475,-0.04
23:27:07.960,-0.49,-0.06
23:27:07.964,-0.485,-0.075
23:27:07.968,-0.47,-0.05
23:27:07.972,-0.46,-0.065
23:27:07.976,-0.45,-0.05
23:27:07.980,-0.45,-0.045
23:27:07.984,-0.46,-0.045
23:27:07.988,-0.45,-0.04
23:27:07.992,-0.45,-0.045
23:27:07.996,-0.43,-0.02
23:27:08.000,-0.44,-0.045
23:27:08.004,-0.44,-0.025
23:27:08.008,-0.435,-0.02
23:27:08.012,-0.42,-0.015
23:27:08.016,-0.42,-0.01
23:27:08.020,-0.46,0.01
23:27:08.024,-0.44,-0.015
23:27:08.028,-0.44,-0.025
23:27:08.032,-0.415,-0.01
23:27:08.036,-0.41,0.01
23:27:08.040,-0.435,0.0
23:27:08.044,-0.42,-0.01
23:27:08.048,-0.445,-0.01
23:27:08.052,-0.415,0.005
23:27:08.056,-0.44,-0.005
23:27:08.060,-0.46,0.025
23:27:08.064,-0.47,0.015
23:27:08.068,-0.475,0.025
23:27:08.072,-0.42,0.035
23:27:08.076,-0.355,0.025
23:27:08.080,-0.27,0.005
23:27:08.084,-0.185,0.005
23:27:08.088,-0.165,0.0
23:27:08.092,-0.12,-0.055
23:27:08.096,-0.105,-0.055
23:27:08.100,-0.115,-0.05
23:27:08.104,-0.135,-0.1
23:27:08.108,-0.105,-0.16
23:27:08.112,0.085,-0.31
23:27:08.116,0.365,-0.5
23:27:08.120,0.675,-0.78
23:27:08.124,0.93,-1.045
23:27:08.128,0.965,-1.155
23:27:08.132,0.71,-1.075
23:27:08.136,0.225,-0.77
23:27:08.140,-0.19,-0.405
23:27:08.144,-0.42,-0.135
23:27:08.148,-0.545,0.03
23:27:08.152,-0.57,0.09
23:27:08.156,-0.595,0.12
23:27:08.160,-0.65,0.115
23:27:08.164,-0.665,0.11
23:27:08.168,-0.665,0.12
23:27:08.172,-0.675,0.11
23:27:08.176,-0.69,0.09
23:27:08.180,-0.66,0.07
23:27:08.184,-0.665,0.055
23:27:08.188,-0.68,0.03
23:27:08.192,-0.67,0.035
23:27:08.196,-0.675,0.03
23:27:08.200,-0.675,0.05
23:27:08.204,-0.685,0.04
23:27:08.208,-0.68,0.05
23:27:08.212,-0.675,0.06
23:27:08.216,-0.68,0.06
23:27:08.220,-0.7,0.045
23:27:08.224,-0.68,0.06
23:27:08.228,-0.685,0.06
23:27:08.232,-0.705,0.065
23:27:08.236,-0.705,0.065
23:27:08.240,-0.72,0.06
23:27:08.244,-0.72,0.055
23:27:08.248,-0.735,0.08
23:27:08.252,-0.745,0.09
23:27:08.256,-0.75,0.05
23:27:08.260,-0.76,0.07
23:27:08.264,-0.755,0.075
23:27:08.268,-0.74,0.045
23:27:08.272,-0.765,0.03
23:27:08.276,-0.755,0.055
23:27:08.280,-0.76,0.055
23:27:08.284,-0.75,0.05
23:27:08.288,-0.76,0.07
23:27:08.292,-0.75,0.075
23:27:08.296,-0.765,0.075
23:27:08.300,-0.775,0.1
23:27:08.304,-0.78,0.115
23:27:08.308,-0.785,0.09
23:27:08.312,-0.775,0.11
23:27:08.316,-0.78,0.12
23:27:08.320,-0.77,0.125
23:27:08.324,-0.78,0.1
23:27:08.328,-0.76,0.1
23:27:08.332,-0.77,0.11
23:27:08.336,-0.75,0.08
23:27:08.340,-0.73,0.09
23:27:08.344,-0.715,0.075
23:27:08.348,-0.705,0.085
23:27:08.352,-0.675,0.055
23:27:08.356,-0.67,0.055
23:27:08.360,-0.665,0.04
23:27:08.364,-0.675,0.025
23:27:08.368,-0.64,0.035
23:27:08.372,-0.62,0.015
23:27:08.376,-0.625,-0.015
23:27:08.380,-0.62,0.005
23:27:08.384,-0.61,-0.015
23:27:08.388,-0.58,-0.005
23:27:08.392,-0.57,-0.025
23:27:08.396,-0.575,-0.015
23:27:08.400,-0.575,-0.045
23:27:08.404,-0.55,-0.055
23:27:08.408,-0.56,-0.035
23:27:08.412,-0.555,-0.035
23:27:08.416,-0.535,-0.05
23:27:08.420,-0.53,-0.045
23:27:08.424,-0.51,-0.065
23:27:08.428,-0.49,-0.02
23:27:08.432,-0.495,-0.02
23:27:08.436,-0.485,-0.005
23:27:08.440,-0.475,-0.02
23:27:08.444,-0.47,0.0
23:27:08.448,-0.46,-0.005
23:27:08.452,-0.47,0.01
23:27:08.456,-0.48,0.02
23:27:08.460,-0.47,0.015
23:27:08.464,-0.48,0.02
23:27:08.468,-0.475,0.035
23:27:08.472,-0.47,0.045
23:27:08.476,-0.485,0.03
23:27:08.480,-0.48,0.04
23:27:08.484,-0.47,0.035
23:27:08.488,-0.485,0.025
23:27:08.492,-0.465,0.04
23:27:08.496,-0.425,0.03
23:27:08.500,-0.355,0.025
23:27:08.504,-0.285,0.02
23:27:08.508,-0.23,0.02
23:27:08.512,-0.195,0.0
23:27:08.516,-0.21,-0.035
23:27:08.520,-0.245,-0.025
23:27:08.524,-0.295,-0.025
23:27:08.528,-0.38,-0.02
23:27:08.532,-0.38,-0.08
23:27:08.536,-0.225,-0.16
23:27:08.540,0.115,-0.29
23:27:08.544,0.44,-0.555
23:27:08.548,0.695,-0.865
23:27:08.552,0.84,-1.04
23:27:08.556,0.745,-1.035
23:27:08.560,0.365,-0.765
23:27:08.564,-0.06,-0.39
23:27:08.568,-0.385,-0.05
23:27:08.572,-0.545,0.175
23:27:08.576,-0.615,0.225
23:27:08.580,-0.63,0.225
23:27:08.584,-0.66,0.215
23:27:08.588,-0.675,0.185
23:27:08.592,-0.7,0.165
23:27:08.596,-0.73,0.145
23:27:08.600,-0.73,0.115
23:27:08.604,-0.76,0.095
23:27:08.608,-0.775,0.055
23:27:08.612,-0.76,0.04
23:27:08.616,-0.775,0.045
23:27:08.620,-0.765,0.0
23:27:08.624,-0.775,0.005
23:27:08.628,-0.775,-0.015
23:27:08.632,-0.775,-0.015
23:27:08.636,-0.77,-0.015
23:27:08.640,-0.755,-0.015
23:27:08.644,-0.76,-0.005
23:27:08.648,-0.785,-0.02
23:27:08.652,-0.755,0.0
23:27:08.656,-0.77,-0.01
23:27:08.660,-0.765,-0.015
23:27:08.664,-0.755,-0.025
23:27:08.668,-0.735,0.0
23:27:08.672,-0.735,-0.02
23:27:08.676,-0.73,-0.005
23:27:08.680,-0.755,0.005
23:27:08.684,-0.765,0.0
23:27:08.688,-0.75,0.01
23:27:08.692,-0.73,0.0
23:27:08.696,-0.75,-0.015
23:27:08.700,-0.77,0.0
23:27:08.704,-0.77,-0.005
23:27:08.708,-0.76,-0.025
23:27:08.712,-0.77,0.005
23:27:08.716,-0.745,-0.035
23:27:08.720,-0.745,-0.015
23:27:08.724,-0.775,0.0
23:27:08.728,-0.755,-0.025
23:27:08.732,-0.73,-0.04
23:27:08.736,-0.73,-0.035
23:27:08.740,-0.715,-0.02
23:27:08.744,-0.71,-0.045
23:27:08.748,-0.695,-0.03
23:27:08.752,-0.68,-0.05
23:27:08.756,-0.685,-0.04
23:27:08.760,-0.68,-0.055
23:27:08.764,-0.685,-0.07
23:27:08.768,-0.705,-0.08
23:27:08.772,-0.68,-0.07
23:27:08.776,-0.685,-0.075
23:27:08.780,-0.67,-0.06
23:27:08.784,-0.67,-0.07
23:27:08.788,-0.64,-0.065
23:27:08.792,-0.605,-0.085
23:27:08.796,-0.605,-0.08
23:27:08.800,-0.6,-0.06
23:27:08.804,-0.595,-0.05
23:27:08.808,-0.595,-0.05
23:27:08.812,-0.575,-0.06
23:27:08.816,-0.585,-0.08
23:27:08.820,-0.575,-0.08
23:27:08.824,-0.565,-0.055
23:27:08.828,-0.55,-0.1
23:27:08.832,-0.55,-0.14
23:27:08.836,-0.525,-0.15
23:27:08.840,-0.54,-0.12
23:27:08.844,-0.54,-0.155
23:27:08.848,-0.55,-0.135
23:27:08.852,-0.515,-0.135
23:27:08.856,-0.54,-0.15
23:27:08.860,-0.54,-0.16
23:27:08.864,-0.545,-0.16
23:27:08.868,-0.53,-0.15
23:27:08.872,-0.51,-0.155
23:27:08.876,-0.52,-0.175
23:27:08.880,-0.505,-0.155
23:27:08.884,-0.515,-0.185
23:27:08.888,-0.505,-0.185
23:27:08.892,-0.48,-0.165
23:27:08.896,-0.5,-0.19
23:27:08.900,-0.47,-0.17
23:27:08.904,-0.47,-0.2
23:27:08.908,-0.495,-0.185
23:27:08.912,-0.485,-0.215
23:27:08.916,-0.46,-0.21
23:27:08.920,-0.47,-0.205
23:27:08.924,-0.455,-0.21
23:27:08.928,-0.47,-0.2
23:27:08.932,-0.46,-0.19
23:27:08.936,-0.475,-0.2
23:27:08.940,-0.48,-0.21
23:27:08.944,-0.49,-0.205
23:27:08.948,-0.465,-0.21
23:27:08.952,-0.43,-0.21
23:27:08.956,-0.42,-0.215
23:27:08.960,-0.425,-0.205
23:27:08.964,-0.425,-0.205
23:27:08.968,-0.44,-0.205
23:27:08.972,-0.4,-0.22
23:27:08.976,-0.375,-0.22
23:27:08.980,-0.355,-0.21
23:27:08.984,-0.36,-0.205
23:27:08.988,-0.35,-0.225
23:27:08.992,-0.32,-0.225
23:27:08.996,-0.29,-0.225
23:27:09.000,-0.265,-0.215
23:27:09.004,-0.215,-0.215
23:27:09.008,-0.14,-0.225
23:27:09.012,-0.05,-0.24
23:27:09.016,0.01,-0.26
23:27:09.020,0.055,-0.285
23:27:09.024,0.11,-0.275
23:27:09.028,0.13,-0.29
23:27:09.032,0.095,-0.29
23:27:09.036,0.08,-0.355
23:27:09.040,0.215,-0.43
23:27:09.044,0.465,-0.61
23:27:09.048,0.78,-0.855
23:27:09.052,0.975,-1.1
23:27:09.056,0.925,-1.245
23:27:09.060,0.565,-1.19
23:27:09.064,0.105,-0.955
23:27:09.068,-0.185,-0.625
23:27:09.072,-0.315,-0.4
23:27:09.076,-0.39,-0.3
23:27:09.080,-0.455,-0.24
23:27:09.084,-0.47,-0.2
23:27:09.088,-0.525,-0.235
23:27:09.092,-0.54,-0.23
23:27:09.096,-0.535,-0.23
23:27:09.100,-0.55,-0.235
23:27:09.104,-0.565,-0.265
23:27:09.108,-0.56,-0.255
23:27:09.112,-0.55,-0.28
23:27:09.116,-0.55,-0.32
23:27:09.120,-0.545,-0.335
23:27:09.124,-0.56,-0.325
23:27:09.128,-0.575,-0.35
23:27:09.132,-0.565,-0.335
23:27:09.136,-0.555,-0.315
23:27:09.140,-0.535,-0.33
23:27:09.144,-0.56,-0.32
23:27:09.148,-0.56,-0.325
23:27:09.152,-0.56,-0.305
23:27:09.156,-0.565,-0.335
23:27:09.160,-0.565,-0.33
23:27:09.164,-0.545,-0.35
23:27:09.168,-0.545,-0.345
23:27:09.172,-0.565,-0.345
23:27:09.176,-0.58,-0.35
23:27:09.180,-0.575,-0.355
23:27:09.184,-0.575,-0.355
23:27:09.188,-0.59,-0.355
23:27:09.192,-0.57,-0.35
23:27:09.196,-0.565,-0.36
23:27:09.200,-0.55,-0.335
23:27:09.204,-0.53,-0.335
23:27:09.208,-0.5,-0.33
23:27:09.212,-0.515,-0.335
23:27:09.216,-0.5,-0.32
23:27:09.220,-0.505,-0.33
23:27:09.224,-0.505,-0.315
23:27:09.228,-0.515,-0.32
23:27:09.232,-0.51,-0.315
23:27:09.236,-0.515,-0.31
23:27:09.240,-0.53,-0.3
23:27:09.244,-0.525,-0.31
23:27:09.248,-0.52,-0.32
23:27:09.252,-0.52,-0.34
23:27:09.256,-0.515,-0.33
23:27:09.260,-0.49,-0.33
23:27:09.264,-0.49,-0.345
23:27:09.268,-0.475,-0.36
23:27:09.272,-0.505,-0.39
23:27:09.276,-0.475,-0.39
23:27:09.280,-0.465,-0.415
23:27:09.284,-0.435,-0.39
23:27:09.288,-0.41,-0.39
23:27:09.292,-0.385,-0.4
23:27:09.296,-0.37,-0.39
23:27:09.300,-0.37,-0.39
23:27:09.304,-0.34,-0.38
23:27:09.308,-0.355,-0.38
23:27:09.312,-0.315,-0.375
23:27:09.316,-0.3,-0.38
23:27:09.320,-0.28,-0.38
23:27:09.324,-0.235,-0.41
23:27:09.328,-0.265,-0.4
23:27:09.332,-0.255,-0.39
23:27:09.336,-0.25,-0.42
23:27:09.340,-0.265,-0.425
23:27:09.344,-0.28,-0.43
23:27:09.348,-0.31,-0.39
23:27:09.352,-0.295,-0.405
23:27:09.356,-0.32,-0.4
23:27:09.360,-0.335,-0.42
23:27:09.364,-0.355,-0.4
23:27:09.368,-0.35,-0.395
23:27:09.372,-0.375,-0.4
23:27:09.376,-0.365,-0.42
23:27:09.380,-0.35,-0.41
23:27:09.384,-0.365,-0.415
23:27:09.388,-0.385,-0.415
23:27:09.392,-0.39,-0.405
23:27:09.396,-0.385,-0.4
23:27:09.400,-0.38,-0.39
23:27:09.404,-0.38,-0.375
23:27:09.408,-0.395,-0.385
23:27:09.412,-0.385,-0.375
23:27:09.416,-0.38,-0.375
23:27:09.420,-0.375,-0.375
23:27:09.424,-0.375,-0.36
23:27:09.428,-0.365,-0.35
23:27:09.432,-0.35,-0.33
23:27:09.436,-0.35,-0.34
23:27:09.440,-0.34,-0.345
23:27:09.444,-0.35,-0.325
23:27:09.448,-0.345,-0.325
23:27:09.452,-0.365,-0.31
23:27:09.456,-0.36,-0.31
23:27:09.460,-0.36,-0.31
23:27:09.464,-0.385,-0.3
23:27:09.468,-0.385,-0.29
23:27:09.472,-0.41,-0.265
23:27:09.476,-0.435,-0.27
23:27:09.480,-0.43,-0.27
23:27:09.484,-0.43,-0.26
23:27:09.488,-0.43,-0.245
23:27:09.492,-0.435,-0.275
23:27:09.496,-0.45,-0.27
23:27:09.500,-0.44,-0.275
23:27:09.504,-0.425,-0.29
23:27:09.508,-0.41,-0.275
23:27:09.512,-0.415,-0.28
23:27:09.516,-0.42,-0.29
23:27:09.520,-0.4,-0.28
23:27:09.524,-0.39,-0.27
23:27:09.528,-0.37,-0.28
23:27:09.532,-0.315,-0.28
23:27:09.536,-0.275,-0.275
23:27:09.540,-0.2,-0.285
23:27:09.544,-0.105,-0.255
23:27:09.548,-0.01,-0.27
23:27:09.552,0.055,-0.265
23:27:09.556,0.115,-0.3
23:27:09.560,0.13,-0.32
23:27:09.564,0.185,-0.3
23:27:09.568,0.155,-0.28
23:27:09.572,0.12,-0.31
23:27:09.576,0.165,-0.36
23:27:09.580,0.325,-0.49
23:27:09.584,0.62,-0.69
23:27:09.588,0.92,-0.965
23:27:09.592,1.11,-1.205
23:27:09.596,1.075,-1.335
23:27:09.600,0.71,-1.205
23:27:09.604,0.21,-0.92
23:27:09.608,-0.165,-0.585
23:27:09.612,-0.34,-0.375
23:27:09.616,-0.415,-0.245
23:27:09.620,-0.465,-0.14
23:27:09.624,-0.49,-0.1
23:27:09.628,-0.51,-0.075
23:27:09.632,-0.545,-0.08
23:27:09.636,-0.56,-0.08
23:27:09.640,-0.57,-0.065
23:27:09.644,-0.585,-0.095
23:27:09.648,-0.58,-0.1
23:27:09.652,-0.58,-0.095
23:27:09.656,-0.59,-0.09
23:27:09.660,-0.585,-0.105
23:27:09.664,-0.585,-0.08
23:27:09.668,-0.59,-0.08
23:27:09.672,-0.56,-0.06
23:27:09.676,-0.585,-0.065
23:27:09.680,-0.59,-0.06
23:27:09.684,-0.595,-0.06
23:27:09.688,-0.6,-0.065
23:27:09.692,-0.625,-0.03
23:27:09.696,-0.635,-0.02
23:27:09.700,-0.665,-0.03
23:27:09.704,-0.675,-0.025
23:27:09.708,-0.705,-0.035
23:27:09.712,-0.72,-0.015
23:27:09.716,-0.715,-0.01
23:27:09.720,-0.72,-0.01
23:27:09.724,-0.72,-0.01
23:27:09.728,-0.72,-0.02
23:27:09.732,-0.715,-0.02
23:27:09.736,-0.71,-0.025
23:27:09.740,-0.72,-0.03
23:27:09.744,-0.72,-0.015
23:27:09.748,-0.7,-0.02
23:27:09.752,-0.66,-0.03
23:27:09.756,-0.645,-0.05
23:27:09.760,-0.63,-0.025
23:27:09.764,-0.62,-0.03
23:27:09.768,-0.625,-0.015
23:27:09.772,-0.615,-0.015
23:27:09.776,-0.61,-0.01
23:27:09.780,-0.6,-0.025
23:27:09.784,-0.57,-0.02
23:27:09.788,-0.59,-0.035
23:27:09.792,-0.575,-0.04
23:27:09.796,-0.55,-0.04
23:27:09.800,-0.55,-0.025
23:27:09.804,-0.545,-0.055
23:27:09.808,-0.565,-0.035
23:27:09.812,-0.565,-0.02
23:27:09.816,-0.555,-0.04
23:27:09.820,-0.545,-0.05
23:27:09.824,-0.555,-0.065
23:27:09.828,-0.535,-0.08
23:27:09.832,-0.5,-0.055
23:27:09.836,-0.49,-0.065
23:27:09.840,-0.475,-0.07
23:27:09.844,-0.45,-0.06
23:27:09.848,-0.445,-0.045
23:27:09.852,-0.43,-0.035
23:27:09.856,-0.445,-0.04
23:27:09.860,-0.395,-0.045
23:27:09.864,-0.395,-0.06
23:27:09.868,-0.405,-0.055
23:27:09.872,-0.395,-0.055
23:27:09.876,-0.385,-0.055
23:27:09.880,-0.375,-0.045
23:27:09.884,-0.38,-0.045
23:27:09.888,-0.415,-0.045
23:27:09.892,-0.385,-0.035
23:27:09.896,-0.37,-0.03
23:27:09.900,-0.39,-0.015
23:27:09.904,-0.385,-0.03
23:27:09.908,-0.4,-0.05
23:27:09.912,-0.39,-0.01
23:27:09.916,-0.4,-0.005
23:27:09.920,-0.42,-0.01
23:27:09.924,-0.425,-0.015
23:27:09.928,-0.435,0.0
23:27:09.932,-0.43,-0.015
23:27:09.936,-0.47,-0.02
23:27:09.940,-0.49,0.0
23:27:09.944,-0.495,-0.015
23:27:09.948,-0.49,0.005
23:27:09.952,-0.495,-0.005
23:27:09.956,-0.475,-0.005
23:27:09.960,-0.475,0.0
23:27:09.964,-0.47,0.0
23:27:09.968,-0.455,0.0
23:27:09.972,-0.44,-0.005
23:27:09.976,-0.415,-0.015
23:27:09.980,-0.4,0.005
23:27:09.984,-0.4,0.0
23:27:09.988,-0.4,0.0
23:27:09.992,-0.4,0.0
23:27:09.996,-0.4,0.0
23:27:10.000,-0.385,-0.005
23:27:10.004,-0.385,-0.005
23:27:10.008,-0.38,-0.015
23:27:10.012,-0.385,-0.005
23:27:10.016,-0.395,-0.02
23:27:10.020,-0.405,-0.03
23:27:10.024,-0.41,-0.01
23:27:10.028,-0.42,-0.025
23:27:10.032,-0.405,-0.02
23:27:10.036,-0.4,-0.03
23:27:10.040,-0.4,-0.03
23:27:10.044,-0.415,-0.025
23:27:10.048,-0.41,-0.015
23:27:10.052,-0.43,-0.03
23:27:10.056,-0.43,-0.015
23:27:10.060,-0.455,-0.01
23:27:10.064,-0.44,-0.025
23:27:10.068,-0.455,-0.015
23:27:10.072,-0.425,0.005
23:27:10.076,-0.41,0.01
23:27:10.080,-0.425,0.005
23:27:10.084,-0.41,0.015
23:27:10.088,-0.41,0.025
23:27:10.092,-0.405,0.015
23:27:10.096,-0.42,0.04
23:27:10.100,-0.42,0.035
23:27:10.104,-0.42,0.025
23:27:10.108,-0.4,0.005
23:27:10.112,-0.4,0.01
23:27:10.116,-0.41,0.0
23:27:10.120,-0.4,-0.01
23:27:10.124,-0.405,-0.01
23:27:10.128,-0.415,-0.015
23:27:10.132,-0.41,0.0
23:27:10.136,-0.405,-0.005
23:27:10.140,-0.38,-0.005
23:27:10.144,-0.375,-0.015
23:27:10.148,-0.38,0.005
23:27:10.152,-0.37,0.025
23:27:10.156,-0.37,0.015
23:27:10.160,-0.375,0.015
23:27:10.164,-0.395,0.03
23:27:10.168,-0.425,0.0
23:27:10.172,-0.43,0.045
23:27:10.176,-0.45,0.04
23:27:10.180,-0.46,0.045
23:27:10.184,-0.44,0.025
23:27:10.188,-0.435,0.025
23:27:10.192,-0.435,0.015
23:27:10.196,-0.43,0.005
23:27:10.200,-0.42,0.005
23:27:10.204,-0.405,-0.005
23:27:10.208,-0.355,0.005
23:27:10.212,-0.295,-0.01
23:27:10.216,-0.2,-0.03
23:27:10.220,-0.115,-0.035
23:27:10.224,-0.035,-0.04
23:27:10.228,-0.005,-0.05
23:27:10.232,0.0,-0.09
23:27:10.236,0.005,-0.095
23:27:10.240,-0.015,-0.085
23:27:10.244,-0.07,-0.12
23:27:10.248,-0.03,-0.18
23:27:10.252,0.115,-0.32
23:27:10.256,0.42,-0.535
23:27:10.260,0.77,-0.795
23:27:10.264,1.0,-1.07
23:27:10.268,1.06,-1.165
23:27:10.272,0.83,-1.08
23:27:10.276,0.39,-0.76
23:27:10.280,-0.035,-0.395
23:27:10.284,-0.26,-0.075
23:27:10.288,-0.38,0.05
23:27:10.292,-0.425,0.14
23:27:10.296,-0.46,0.18
23:27:10.300,-0.48,0.18
23:27:10.304,-0.52,0.175
23:27:10.308,-0.525,0.165
23:27:10.312,-0.53,0.145
23:27:10.316,-0.56,0.145
23:27:10.320,-0.57,0.14
23:27:10.324,-0.58,0.145
23:27:10.328,-0.565,0.125
23:27:10.332,-0.585,0.135
23:27:10.336,-0.6,0.145
23:27:10.340,-0.59,0.105
23:27:10.344,-0.605,0.095
23:27:10.348,-0.6,0.07
23:27:10.352,-0.585,0.025
23:27:10.356,-0.575,0.045
23:27:10.360,-0.565,0.05
23:27:10.364,-0.595,0.065
23:27:10.368,-0.58,0.04
23:27:10.372,-0.56,0.065
23:27:10.376,-0.565,0.035
23:27:10.380,-0.56,0.055
23:27:10.384,-0.565,0.045
23:27:10.388,-0.585,0.025
23:27:10.392,-0.62,0.04
23:27:10.396,-0.63,0.02
23:27:10.400,-0.63,0.025
23:27:10.404,-0.63,0.03
23:27:10.408,-0.64,0.02
23:27:10.412,-0.65,0.03
23:27:10.416,-0.64,0.025
23:27:10.420,-0.63,0.04
23:27:10.424,-0.635,0.02
23:27:10.428,-0.64,-0.01
23:27:10.432,-0.63,0.0
23:27:10.436,-0.64,-0.01
23:27:10.440,-0.625,-0.02
23:27:10.444,-0.62,-0.035
23:27:10.448,-0.62,-0.025
23:27:10.452,-0.63,-0.035
23:27:10.456,-0.635,-0.05
23:27:10.460,-0.625,-0.075
23:27:10.464,-0.615,-0.07
23:27:10.468,-0.6,-0.115
23:27:10.472,-0.585,-0.09
23:27:10.476,-0.585,-0.09
23:27:10.480,-0.565,-0.105
23:27:10.484,-0.57,-0.12
23:27:10.488,-0.56,-0.1
23:27:10.492,-0.575,-0.12
23:27:10.496,-0.565,-0.135
23:27:10.500,-0.565,-0.115
23:27:10.504,-0.54,-0.14
23:27:10.508,-0.525,-0.135
23:27:10.512,-0.5,-0.125
23:27:10.516,-0.48,-0.125
23:27:10.520,-0.48,-0.115
23:27:10.524,-0.455,-0.115
23:27:10.528,-0.445,-0.105
23:27:10.532,-0.45,-0.105
23:27:10.536,-0.475,-0.12
23:27:10.540,-0.455,-0.105
23:27:10.544,-0.45,-0.09
23:27:10.548,-0.45,-0.1
23:27:10.552,-0.445,-0.105
23:27:10.556,-0.445,-0.1
23:27:10.560,-0.46,-0.1
23:27:10.564,-0.475,-0.085
23:27:10.568,-0.47,-0.07
23:27:10.572,-0.46,-0.085
23:27:10.576,-0.46,-0.1
23:27:10.580,-0.465,-0.12
23:27:10.584,-0.46,-0.14
23:27:10.588,-0.455,-0.13
23:27:10.592,-0.45,-0.11
23:27:10.596,-0.455,-0.105
23:27:10.600,-0.43,-0.12
23:27:10.604,-0.41,-0.11
23:27:10.608,-0.39,-0.11
23:27:10.612,-0.37,-0.12
23:27:10.616,-0.38,-0.12
23:27:10.620,-0.385,-0.12
23:27:10.624,-0.39,-0.115
23:27:10.628,-0.385,-0.1
23:27:10.632,-0.4,-0.1
23:27:10.636,-0.4,-0.09
23:27:10.640,-0.41,-0.095
23:27:10.644,-0.425,-0.11
23:27:10.648,-0.42,-0.125
23:27:10.652,-0.425,-0.125
23:27:10.656,-0.425,-0.11
23:27:10.660,-0.39,-0.14
23:27:10.664,-0.405,-0.145
23:27:10.668,-0.395,-0.15
23:27:10.672,-0.4,-0.16
23:27:10.676,-0.395,-0.205
23:27:10.680,-0.37,-0.2
23:27:10.684,-0.32,-0.205
23:27:10.688,-0.25,-0.21
23:27:10.692,-0.17,-0.25
23:27:10.696,-0.085,-0.24
23:27:10.700,-0.03,-0.275
23:27:10.704,0.02,-0.3
23:27:10.708,0.07,-0.325
23:27:10.712,0.105,-0.3
23:27:10.716,0.085,-0.27
23:27:10.720,0.06,-0.32
23:27:10.724,0.12,-0.38
23:27:10.728,0.29,-0.475
23:27:10.732,0.575,-0.66
23:27:10.736,0.835,-0.935
23:27:10.740,1.0,-1.19
23:27:10.744,0.895,-1.29
23:27:10.748,0.52,-1.13
23:27:10.752,0.1,-0.835
23:27:10.756,-0.165,-0.51
23:27:10.760,-0.285,-0.32
23:27:10.764,-0.355,-0.21
23:27:10.768,-0.39,-0.14
23:27:10.772,-0.44,-0.13
23:27:10.776,-0.465,-0.1
23:27:10.780,-0.53,-0.11
23:27:10.784,-0.545,-0.115
23:27:10.788,-0.55,-0.11
23:27:10.792,-0.56,-0.155
23:27:10.796,-0.58,-0.175
23:27:10.800,-0.59,-0.2
23:27:10.804,-0.575,-0.205
23:27:10.808,-0.565,-0.205
23:27:10.812,-0.585,-0.21
23:27:10.816,-0.58,-0.225
23:27:10.820,-0.56,-0.25
23:27:10.824,-0.555,-0.24
23:27:10.828,-0.56,-0.25
23:27:10.832,-0.535,-0.27
23:27:10.836,-0.51,-0.26
23:27:10.840,-0.5,-0.285
23:27:10.844,-0.47,-0.27
23:27:10.848,-0.49,-0.25
23:27:10.852,-0.51,-0.275
23:27:10.856,-0.525,-0.265
23:27:10.860,-0.535,-0.255
23:27:10.864,-0.545,-0.26
23:27:10.868,-0.565,-0.28
23:27:10.872,-0.56,-0.265
23:27:10.876,-0.585,-0.285
23:27:10.880,-0.585,-0.305
23:27:10.884,-0.565,-0.255
23:27:10.888,-0.57,-0.27
23:27:10.892,-0.6,-0.28
23:27:10.896,-0.6,-0.29
23:27:10.900,-0.575,-0.3
23:27:10.904,-0.555,-0.34
23:27:10.908,-0.535,-0.35
23:27:10.912,-0.525,-0.335
23:27:10.916,-0.515,-0.34
23:27:10.920,-0.51,-0.34
23:27:10.924,-0.48,-0.375
23:27:10.928,-0.485,-0.355
23:27:10.932,-0.485,-0.365
23:27:10.936,-0.47,-0.35
23:27:10.940,-0.435,-0.37
23:27:10.944,-0.415,-0.37
23:27:10.948,-0.4,-0.375
23:27:10.952,-0.39,-0.365
23:27:10.956,-0.37,-0.37
23:27:10.960,-0.355,-0.37
23:27:10.964,-0.34,-0.375
23:27:10.968,-0.335,-0.39
23:27:10.972,-0.325,-0.385
23:27:10.976,-0.31,-0.375
23:27:10.980,-0.32,-0.39
23:27:10.984,-0.29,-0.385
23:27:10.988,-0.305,-0.385
23:27:10.992,-0.315,-0.375
23:27:10.996,-0.275,-0.395
23:27:11.000,-0.28,-0.385
23:27:11.004,-0.32,-0.37
23:27:11.008,-0.305,-0.38
23:27:11.012,-0.3,-0.39
23:27:11.016,-0.32,-0.365
23:27:11.020,-0.3,-0.37
23:27:11.024,-0.315,-0.345
23:27:11.028,-0.335,-0.345
23:27:11.032,-0.32,-0.32
23:27:11.036,-0.32,-0.32
23:27:11.040,-0.345,-0.315
23:27:11.044,-0.35,-0.3
23:27:11.048,-0.315,-0.28
23:27:11.052,-0.29,-0.285
23:27:11.056,-0.29,-0.295
23:27:11.060,-0.29,-0.275
23:27:11.064,-0.285,-0.295
23:27:11.068,-0.27,-0.3
23:27:11.072,-0.27,-0.3
23:27:11.076,-0.25,-0.32
23:27:11.080,-0.235,-0.32
23:27:11.084,-0.255,-0.34
23:27:11.088,-0.225,-0.325
23:27:11.092,-0.24,-0.31
23:27:11.096,-0.245,-0.305
23:27:11.100,-0.255,-0.345
23:27:11.104,-0.3,-0.355
23:27:11.108,-0.33,-0.35
23:27:11.112,-0.32,-0.35
23:27:11.116,-0.35,-0.35
23:27:11.120,-0.335,-0.35
23:27:11.124,-0.33,-0.37
23:27:11.128,-0.32,-0.365
23:27:11.132,-0.3,-0.355
23:27:11.136,-0.315,-0.365
23:27:11.140,-0.285,-0.38
23:27:11.144,-0.295,-0.355
23:27:11.148,-0.275,-0.35
23:27:11.152,-0.28,-0.36
23:27:11.156,-0.27,-0.365
23:27:11.160,-0.265,-0.345
23:27:11.164,-0.265,-0.355
23:27:11.168,-0.24,-0.345
23:27:11.172,-0.24,-0.35
23:27:11.176,-0.24,-0.335
23:27:11.180,-0.24,-0.335
23:27:11.184,-0.245,-0.325
23:27:11.188,-0.245,-0.29
23:27:11.192,-0.245,-0.32
23:27:11.196,-0.235,-0.315
23:27:11.200,-0.23,-0.315
23:27:11.204,-0.215,-0.345
23:27:11.208,-0.21,-0.315
23:27:11.212,-0.175,-0.305
23:27:11.216,-0.115,-0.29
23:27:11.220,-0.025,-0.3
23:27:11.224,0.07,-0.31
23:27:11.228,0.155,-0.335
23:27:11.232,0.22,-0.355
23:27:11.236,0.27,-0.355
23:27:11.240,0.295,-0.355
23:27:11.244,0.285,-0.335
23:27:11.248,0.25,-0.375
23:27:11.252,0.295,-0.415
23:27:11.256,0.505,-0.545
23:27:11.260,0.82,-0.72
23:27:11.264,1.125,-0.995
23:27:11.268,1.275,-1.21
23:27:11.272,1.135,-1.26
23:27:11.276,0.695,-1.07
23:27:11.280,0.215,-0.705
23:27:11.284,-0.055,-0.37
23:27:11.288,-0.195,-0.185
23:27:11.292,-0.25,-0.075
23:27:11.296,-0.29,0.0
23:27:11.300,-0.32,0.055
23:27:11.304,-0.37,0.055
23:27:11.308,-0.395,0.05
23:27:11.312,-0.45,0.035
23:27:11.316,-0.48,-0.01
23:27:11.320,-0.51,-0.01
23:27:11.324,-0.525,-0.04
23:27:11.328,-0.545,-0.035
23:27:11.332,-0.565,-0.055
23:27:11.336,-0.59,-0.065
23:27:11.340,-0.58,-0.07
23:27:11.344,-0.58,-0.08
23:27:11.348,-0.605,-0.075
23:27:11.352,-0.605,-0.075
23:27:11.356,-0.605,-0.08
23:27:11.360,-0.615,-0.08
23:27:11.364,-0.6,-0.065
23:27:11.368,-0.585,-0.065
23:27:11.372,-0.57,-0.075
23:27:11.376,-0.57,-0.085
23:27:11.380,-0.545,-0.08
23:27:11.384,-0.54,-0.06
23:27:11.388,-0.535,-0.07
23:27:11.392,-0.555,-0.05
23:27:11.396,-0.555,-0.06
23:27:11.400,-0.575,-0.06
23:27:11.404,-0.56,-0.06
23:27:11.408,-0.57,-0.07
23:27:11.412,-0.585,-0.05
23:27:11.416,-0.585,-0.06
23:27:11.420,-0.59,-0.08
23:27:11.424,-0.58,-0.06
23:27:11.428,-0.595,-0.06
23:27:11.432,-0.62,-0.04
23:27:11.436,-0.585,-0.045
23:27:11.440,-0.585,-0.04
23:27:11.444,-0.6,-0.07
23:27:11.448,-0.575,-0.045
23:27:11.452,-0.585,-0.06
23:27:11.456,-0.575,-0.055
23:27:11.460,-0.58,-0.08
23:27:11.464,-0.57,-0.06
23:27:11.468,-0.57,-0.08
23:27:11.472,-0.56,-0.08
23:27:11.476,-0.555,-0.095
23:27:11.480,-0.52,-0.085
23:27:11.484,-0.485,-0.085
23:27:11.488,-0.47,-0.08
23:27:11.492,-0.46,-0.09
23:27:11.496,-0.445,-0.095
23:27:11.500,-0.465,-0.105
23:27:11.504,-0.43,-0.06
23:27:11.508,-0.41,-0.055
23:27:11.512,-0.415,-0.06
23:27:11.516,-0.38,-0.03
23:27:11.520,-0.365,-0.03
23:27:11.524,-0.35,-0.015
23:27:11.528,-0.33,-0.02
23:27:11.532,-0.34,-0.01
23:27:11.536,-0.325,-0.02
23:27:11.540,-0.3,-0.02
23:27:11.544,-0.32,-0.025
23:27:11.548,-0.32,-0.03
23:27:11.552,-0.33,-0.03
23:27:11.556,-0.35,-0.045
23:27:11.560,-0.36,-0.035
23:27:11.564,-0.355,-0.045
23:27:11.568,-0.37,-0.045
23:27:11.572,-0.37,-0.055
23:27:11.576,-0.4,-0.04
23:27:11.580,-0.39,-0.025
23:27:11.584,-0.38,-0.045
23:27:11.588,-0.375,-0.045
23:27:11.592,-0.355,-0.06
23:27:11.596,-0.36,-0.055
23:27:11.600,-0.35,-0.045
23:27:11.604,-0.32,-0.04
23:27:11.608,-0.335,-0.045
23:27:11.612,-0.345,-0.04
23:27:11.616,-0.345,-0.04
23:27:11.620,-0.36,-0.055
23:27:11.624,-0.36,-0.06
23:27:11.628,-0.365,-0.075
23:27:11.632,-0.37,-0.075
23:27:11.636,-0.355,-0.07
23:27:11.640,-0.375,-0.075
23:27:11.644,-0.375,-0.065
23:27:11.648,-0.4,-0.08
23:27:11.652,-0.39,-0.085
23:27:11.656,-0.39,-0.095
23:27:11.660,-0.37,-0.125
23:27:11.664,-0.39,-0.11
23:27:11.668,-0.37,-0.09
23:27:11.672,-0.375,-0.11
23:27:11.676,-0.38,-0.11
23:27:11.680,-0.365,-0.105
23:27:11.684,-0.36,-0.105
23:27:11.688,-0.37,-0.095
23:27:11.692,-0.375,-0.075
23:27:11.696,-0.36,-0.075
23:27:11.700,-0.36,-0.08
23:27:11.704,-0.35,-0.075
23:27:11.708,-0.345,-0.065
23:27:11.712,-0.35,-0.075
23:27:11.716,-0.375,-0.075
23:27:11.720,-0.345,-0.045
23:27:11.724,-0.355,-0.045
23:27:11.728,-0.37,-0.05
23:27:11.732,-0.355,-0.035
23:27:11.736,-0.36,-0.04
23:27:11.740,-0.34,-0.035
23:27:11.744,-0.36,-0.04
23:27:11.748,-0.335,-0.015
23:27:11.752,-0.34,-0.035
23:27:11.756,-0.32,-0.02
23:27:11.760,-0.325,0.0
23:27:11.764,-0.335,0.005
23:27:11.768,-0.335,0.02
23:27:11.772,-0.31,0.03
23:27:11.776,-0.29,0.07
23:27:11.780,-0.285,0.04
23:27:11.784,-0.285,0.055
23:27:11.788,-0.295,0.04
23:27:11.792,-0.31,0.025
23:27:11.796,-0.315,0.02
23:27:11.800,-0.3,0.01
23:27:11.804,-0.275,0.0
23:27:11.808,-0.185,-0.025
23:27:11.812,-0.105,-0.025
23:27:11.816,-0.015,-0.045
23:27:11.820,-0.005,-0.08
23:27:11.824,0.04,-0.08
23:27:11.828,0.05,-0.125
23:27:11.832,0.06,-0.11
23:27:11.836,0.025,-0.145
23:27:11.840,0.025,-0.18
23:27:11.844,0.145,-0.295
23:27:11.848,0.395,-0.44
23:27:11.852,0.715,-0.705
23:27:11.856,0.98,-0.99
23:27:11.860,1.115,-1.205
23:27:11.864,0.99,-1.195
23:27:11.868,0.595,-0.975
23:27:11.872,0.12,-0.6
23:27:11.876,-0.19,-0.255
23:27:11.880,-0.355,-0.07
23:27:11.884,-0.41,0.03
23:27:11.888,-0.455,0.08
23:27:11.892,-0.505,0.085
23:27:11.896,-0.535,0.09
23:27:11.900,-0.53,0.09
23:27:11.904,-0.55,0.08
23:27:11.908,-0.57,0.05
23:27:11.912,-0.58,0.03
23:27:11.916,-0.57,0.025
23:27:11.920,-0.585,0.005
23:27:11.924,-0.575,0.01
23:27:11.928,-0.58,0.015
23:27:11.932,-0.575,0.02
23:27:11.936,-0.59,0.03
23:27:11.940,-0.595,0.03
23:27:11.944,-0.565,0.05
23:27:11.948,-0.56,0.05
23:27:11.952,-0.585,0.055
23:27:11.956,-0.59,0.045
23:27:11.960,-0.585,0.065
23:27:11.964,-0.575,0.08
23:27:11.968,-0.575,0.08
23:27:11.972,-0.585,0.06
23:27:11.976,-0.585,0.05
23:27:11.980,-0.575,0.05
23:27:11.984,-0.58,0.055
23:27:11.988,-0.575,0.07
23:27:11.992,-0.56,0.085
23:27:11.996,-0.54,0.1
23:27:12.000,-0.55,0.075
23:27:12.004,-0.53,0.11
23:27:12.008,-0.545,0.11
23:27:12.012,-0.52,0.145
23:27:12.016,-0.495,0.125
23:27:12.020,-0.49,0.12
23:27:12.024,-0.485,0.15
23:27:12.028,-0.47,0.12
23:27:12.032,-0.47,0.125
23:27:12.036,-0.465,0.115
23:27:12.040,-0.475,0.115
23:27:12.044,-0.49,0.11
23:27:12.048,-0.49,0.095
23:27:12.052,-0.51,0.07
23:27:12.056,-0.495,0.065
23:27:12.060,-0.49,0.07
23:27:12.064,-0.47,0.04
23:27:12.068,-0.475,0.03
23:27:12.072,-0.465,0.03
23:27:12.076,-0.45,0.015
23:27:12.080,-0.45,0.005
23:27:12.084,-0.445,0.005
23:27:12.088,-0.43,-0.025
23:27:12.092,-0.425,-0.025
23:27:12.096,-0.4,-0.04
23:27:12.100,-0.385,-0.055
23:27:12.104,-0.385,-0.045
23:27:12.108,-0.37,-0.045
23:27:12.112,-0.34,-0.055
23:27:12.116,-0.345,-0.035
23:27:12.120,-0.31,-0.055
23:27:12.124,-0.325,-0.02
23:27:12.128,-0.29,-0.055
23:27:12.132,-0.28,-0.045
23:27:12.136,-0.27,-0.045
23:27:12.140,-0.27,-0.04
23:27:12.144,-0.25,-0.02
23:27:12.148,-0.26,-0.02
23:27:12.152,-0.265,0.0
23:27:12.156,-0.295,-0.025
23:27:12.160,-0.29,0.0
23:27:12.164,-0.29,-0.005
23:27:12.168,-0.31,0.035
23:27:12.172,-0.34,0.0
23:27:12.176,-0.355,0.02
23:27:12.180,-0.35,0.025
23:27:12.184,-0.365,0.035
23:27:12.188,-0.38,0.04
23:27:12.192,-0.38,0.035
23:27:12.196,-0.395,0.005
23:27:12.200,-0.385,0.015
23:27:12.204,-0.41,0.02
23:27:12.208,-0.405,-0.005
23:27:12.212,-0.4,0.0
23:27:12.216,-0.39,0.0
23:27:12.220,-0.385,-0.015
23:27:12.224,-0.395,0.0
23:27:12.228,-0.355,0.015
23:27:12.232,-0.355,0.015
23:27:12.236,-0.375,0.03
23:27:12.240,-0.375,0.045
23:27:12.244,-0.395,0.03
23:27:12.248,-0.36,0.085
23:27:12.252,-0.37,0.06
23:27:12.256,-0.35,0.065
23:27:12.260,-0.325,0.075
23:27:12.264,-0.325,0.06
23:27:12.268,-0.315,0.05
23:27:12.272,-0.335,0.05
23:27:12.276,-0.3,0.01
23:27:12.280,-0.31,0.02
23:27:12.284,-0.32,0.0
23:27:12.288,-0.32,-0.02
23:27:12.292,-0.345,-0.01
23:27:12.296,-0.35,-0.04
23:27:12.300,-0.355,-0.06
23:27:12.304,-0.37,-0.05
23:27:12.308,-0.375,-0.085
23:27:12.312,-0.34,-0.085
23:27:12.316,-0.355,-0.105
23:27:12.320,-0.375,-0.095
23:27:12.324,-0.37,-0.115
23:27:12.328,-0.35,-0.12
23:27:12.332,-0.36,-0.125
23:27:12.336,-0.35,-0.12
23:27:12.340,-0.36,-0.125
23:27:12.344,-0.36,-0.13
23:27:12.348,-0.34,-0.105
23:27:12.352,-0.32,-0.11
23:27:12.356,-0.33,-0.13
23:27:12.360,-0.345,-0.14
23:27:12.364,-0.325,-0.12
23:27:12.368,-0.35,-0.135
23:27:12.372,-0.34,-0.165
23:27:12.376,-0.345,-0.13
23:27:12.380,-0.305,-0.145
23:27:12.384,-0.27,-0.145
23:27:12.388,-0.195,-0.18
23:27:12.392,-0.11,-0.15
23:27:12.396,-0.035,-0.185
23:27:12.400,0.02,-0.18
23:27:12.404,0.06,-0.22
23:27:12.408,0.095,-0.22
23:27:12.412,0.11,-0.215
23:27:12.416,0.085,-0.2
23:27:12.420,0.03,-0.235
23:27:12.424,0.105,-0.32
23:27:12.428,0.315,-0.455
23:27:12.432,0.64,-0.68
23:27:12.436,0.94,-0.95
23:27:12.440,1.08,-1.17
23:27:12.444,0.95,-1.25
23:27:12.448,0.52,-1.095
23:27:12.452,0.085,-0.78
23:27:12.456,-0.17,-0.455
23:27:12.460,-0.285,-0.245
23:27:12.464,-0.325,-0.16
23:27:12.468,-0.345,-0.055
23:27:12.472,-0.38,-0.04
23:27:12.476,-0.415,-0.025
23:27:12.480,-0.46,-0.02
23:27:12.484,-0.48,-0.055
23:27:12.488,-0.5,-0.06
23:27:12.492,-0.475,-0.07
23:27:12.496,-0.53,-0.11
23:27:12.500,-0.515,-0.13
23:27:12.504,-0.51,-0.145
23:27:12.508,-0.505,-0.145
23:27:12.512,-0.52,-0.13
23:27:12.516,-0.53,-0.145
23:27:12.520,-0.535,-0.175
23:27:12.524,-0.535,-0.19
23:27:12.528,-0.56,-0.215
23:27:12.532,-0.55,-0.24
23:27:12.536,-0.545,-0.23
23:27:12.540,-0.55,-0.25
23:27:12.544,-0.555,-0.29
23:27:12.548,-0.555,-0.275
23:27:12.552,-0.56,-0.295
23:27:12.556,-0.54,-0.3
23:27:12.560,-0.54,-0.3
23:27:12.564,-0.555,-0.315
23:27:12.568,-0.55,-0.3
23:27:12.572,-0.52,-0.305
23:27:12.576,-0.515,-0.305
23:27:12.580,-0.53,-0.29
23:27:12.584,-0.55,-0.285
23:27:12.588,-0.495,-0.295
23:27:12.592,-0.505,-0.315
23:27:12.596,-0.525,-0.32
23:27:12.600,-0.51,-0.32
23:27:12.604,-0.51,-0.305
23:27:12.608,-0.525,-0.305
23:27:12.612,-0.53,-0.305
23:27:12.616,-0.53,-0.305
23:27:12.620,-0.535,-0.285
23:27:12.624,-0.54,-0.31
23:27:12.628,-0.535,-0.315
23:27:12.632,-0.52,-0.305
23:27:12.636,-0.5,-0.32
23:27:12.640,-0.505,-0.315
23:27:12.644,-0.49,-0.33
23:27:12.648,-0.475,-0.34
23:27:12.652,-0.465,-0.33
23:27:12.656,-0.485,-0.34
23:27:12.660,-0.455,-0.36
23:27:12.664,-0.445,-0.36
23:27:12.668,-0.41,-0.355
23:27:12.672,-0.39,-0.345
23:27:12.676,-0.395,-0.36
23:27:12.680,-0.39,-0.37
23:27:12.684,-0.38,-0.385
23:27:12.688,-0.38,-0.37
23:27:12.692,-0.35,-0.37
23:27:12.696,-0.345,-0.375
23:27:12.700,-0.32,-0.33
23:27:12.704,-0.305,-0.34
23:27:12.708,-0.29,-0.34
23:27:12.712,-0.28,-0.33
23:27:12.716,-0.3,-0.34
23:27:12.720,-0.29,-0.32
23:27:12.724,-0.29,-0.285
23:27:12.728,-0.295,-0.3
23:27:12.732,-0.29,-0.3
23:27:12.736,-0.27,-0.295
23:27:12.740,-0.315,-0.27
23:27:12.744,-0.31,-0.3
23:27:12.748,-0.33,-0.31
23:27:12.752,-0.32,-0.305
23:27:12.756,-0.31,-0.3
23:27:12.760,-0.33,-0.29
23:27:12.764,-0.33,-0.31
23:27:12.768,-0.31,-0.325
23:27:12.772,-0.32,-0.365
23:27:12.776,-0.315,-0.365
23:27:12.780,-0.31,-0.39
23:27:12.784,-0.34,-0.39
23:27:12.788,-0.315,-0.39
23:27:12.792,-0.33,-0.38
23:27:12.796,-0.345,-0.405
23:27:12.800,-0.33,-0.4
23:27:12.804,-0.32,-0.38
23:27:12.808,-0.31,-0.395
23:27:12.812,-0.295,-0.385
23:27:12.816,-0.27,-0.4
23:27:12.820,-0.265,-0.405
23:27:12.824,-0.275,-0.4
23:27:12.828,-0.275,-0.39
23:27:12.832,-0.29,-0.39
23:27:12.836,-0.275,-0.375
23:27:12.840,-0.27,-0.375
23:27:12.844,-0.265,-0.395
23:27:12.848,-0.275,-0.405
23:27:12.852,-0.265,-0.4
23:27:12.856,-0.26,-0.39
23:27:12.860,-0.25,-0.39
23:27:12.864,-0.26,-0.4
23:27:12.868,-0.275,-0.38
23:27:12.872,-0.26,-0.37
23:27:12.876,-0.26,-0.38
23:27:12.880,-0.26,-0.385
23:27:12.884,-0.255,-0.395
23:27:12.888,-0.24,-0.375
23:27:12.892,-0.26,-0.38
23:27:12.896,-0.25,-0.375
23:27:12.900,-0.26,-0.36
23:27:12.904,-0.235,-0.375
23:27:12.908,-0.22,-0.36
23:27:12.912,-0.16,-0.35
23:27:12.916,-0.07,-0.33
23:27:12.920,0.005,-0.34
23:27:12.924,0.09,-0.34
23:27:12.928,0.18,-0.385
23:27:12.932,0.23,-0.4
23:27:12.936,0.26,-0.42
23:27:12.940,0.305,-0.39
23:27:12.944,0.28,-0.375
23:27:12.948,0.27,-0.4
23:27:12.952,0.355,-0.475
23:27:12.956,0.6,-0.61
23:27:12.960,0.91,-0.83
23:27:12.964,1.15,-1.06
23:27:12.968,1.17,-1.22
23:27:12.972,0.88,-1.24
23:27:12.976,0.395,-1.005
23:27:12.980,0.0,-0.655
23:27:12.984,-0.23,-0.37
23:27:12.988,-0.29,-0.225
23:27:12.992,-0.32,-0.135
23:27:12.996,-0.33,-0.05
23:27:13.000,-0.36,-0.015
23:27:13.004,-0.39,-0.015
23:27:13.008,-0.425,-0.04
23:27:13.012,-0.49,-0.06
23:27:13.016,-0.515,-0.1
23:27:13.020,-0.52,-0.11
23:27:13.024,-0.54,-0.135
23:27:13.028,-0.55,-0.135
23:27:13.032,-0.535,-0.12
23:27:13.036,-0.53,-0.13
23:27:13.040,-0.545,-0.13
23:27:13.044,-0.54,-0.155
23:27:13.048,-0.53,-0.125
23:27:13.052,-0.52,-0.15
23:27:13.056,-0.52,-0.12
23:27:13.060,-0.52,-0.1
23:27:13.064,-0.505,-0.1
23:27:13.068,-0.5,-0.135
23:27:13.072,-0.51,-0.095
23:27:13.076,-0.505,-0.11
23:27:13.080,-0.52,-0.11
23:27:13.084,-0.535,-0.12
23:27:13.088,-0.525,-0.13
23:27:13.092,-0.525,-0.135
23:27:13.096,-0.535,-0.12
23:27:13.100,-0.52,-0.12
23:27:13.104,-0.54,-0.105
23:27:13.108,-0.52,-0.12
23:27:13.112,-0.54,-0.1
23:27:13.116,-0.56,-0.105
23:27:13.120,-0.555,-0.09
23:27:13.124,-0.55,-0.08
23:27:13.128,-0.555,-0.105
23:27:13.132,-0.53,-0.08
23:27:13.136,-0.525,-0.065
23:27:13.140,-0.53,-0.095
23:27:13.144,-0.51,-0.1
23:27:13.148,-0.51,-0.08
23:27:13.152,-0.5,-0.095
23:27:13.156,-0.5,-0.1
23:27:13.160,-0.5,-0.105
23:27:13.164,-0.475,-0.1
23:27:13.168,-0.46,-0.095
23:27:13.172,-0.435,-0.09
23:27:13.176,-0.445,-0.08
23:27:13.180,-0.43,-0.105
23:27:13.184,-0.415,-0.08
23:27:13.188,-0.425,-0.105
23:27:13.192,-0.42,-0.085
23:27:13.196,-0.41,-0.065
23:27:13.200,-0.4,-0.09
23:27:13.204,-0.38,-0.075
23:27:13.208,-0.395,-0.08
23:27:13.212,-0.41,-0.09
23:27:13.216,-0.4,-0.075
23:27:13.220,-0.39,-0.08
23:27:13.224,-0.41,-0.055
23:27:13.228,-0.405,-0.035
23:27:13.232,-0.4,-0.055
23:27:13.236,-0.36,-0.06
23:27:13.240,-0.365,-0.05
23:27:13.244,-0.345,-0.04
23:27:13.248,-0.335,-0.05
23:27:13.252,-0.32,-0.03
23:27:13.256,-0.315,-0.025
23:27:13.260,-0.32,-0.04
23:27:13.264,-0.33,-0.03
23:27:13.268,-0.365,-0.025
23:27:13.272,-0.36,-0.06
23:27:13.276,-0.38,-0.06
23:27:13.280,-0.375,-0.06
23:27:13.284,-0.36,-0.05
23:27:13.288,-0.335,-0.07
23:27:13.292,-0.325,-0.07
23:27:13.296,-0.31,-0.085
23:27:13.300,-0.315,-0.095
23:27:13.304,-0.315,-0.055
23:27:13.308,-0.31,-0.055
23:27:13.312,-0.29,-0.04
23:27:13.316,-0.28,-0.06
23:27:13.320,-0.295,-0.045
23:27:13.324,-0.28,-0.065
23:27:13.328,-0.285,-0.06
23:27:13.332,-0.29,-0.065
23:27:13.336,-0.285,-0.04
23:27:13.340,-0.29,-0.04
23:27:13.344,-0.28,-0.075
23:27:13.348,-0.28,-0.06
23:27:13.352,-0.27,-0.04
23:27:13.356,-0.285,-0.06
23:27:13.360,-0.275,-0.055
23:27:13.364,-0.27,-0.055
23:27:13.368,-0.26,-0.045
23:27:13.372,-0.275,-0.04
23:27:13.376,-0.28,-0.06
23:27:13.380,-0.285,-0.055
23:27:13.384,-0.28,-0.04
23:27:13.388,-0.28,-0.06
23:27:13.392,-0.29,-0.09
23:27:13.396,-0.27,-0.08
23:27:13.400,-0.28,-0.08
23:27:13.404,-0.29,-0.075
23:27:13.408,-0.3,-0.075
23:27:13.412,-0.3,-0.075
23:27:13.416,-0.295,-0.08
23:27:13.420,-0.25,-0.075
23:27:13.424,-0.2,-0.07
23:27:13.428,-0.105,-0.08
23:27:13.432,-0.025,-0.08
23:27:13.436,0.015,-0.1
23:27:13.440,0.055,-0.12
23:27:13.444,0.075,-0.12
23:27:13.448,0.06,-0.105
23:27:13.452,0.03,-0.095
23:27:13.456,0.01,-0.155
23:27:13.460,0.055,-0.235
23:27:13.464,0.27,-0.36
23:27:13.468,0.59,-0.56
23:27:13.472,0.91,-0.855
23:27:13.476,1.08,-1.095
23:27:13.480,0.99,-1.19
23:27:13.484,0.63,-1.04
23:27:13.488,0.19,-0.645
23:27:13.492,-0.135,-0.29
23:27:13.496,-0.3,-0.025
23:27:13.500,-0.375,0.08
23:27:13.504,-0.41,0.15
23:27:13.508,-0.45,0.15
23:27:13.512,-0.49,0.125
23:27:13.516,-0.505,0.12
23:27:13.520,-0.51,0.09
23:27:13.524,-0.53,0.085
23:27:13.528,-0.52,0.07
23:27:13.532,-0.52,0.0
23:27:13.536,-0.49,0.0
23:27:13.540,-0.485,0.0
23:27:13.544,-0.485,-0.01
23:27:13.548,-0.47,-0.05
23:27:13.552,-0.475,-0.04
23:27:13.556,-0.455,-0.03
23:27:13.560,-0.46,-0.02
23:27:13.564,-0.475,0.0
23:27:13.568,-0.5,0.025
23:27:13.572,-0.495,0.015
23:27:13.576,-0.515,0.02
23:27:13.580,-0.5,0.02
23:27:13.584,-0.52,0.0
23:27:13.588,-0.525,0.035
23:27:13.592,-0.53,0.025
23:27:13.596,-0.535,0.025
23:27:13.600,-0.555,0.025
23:27:13.604,-0.56,0.03
23:27:13.608,-0.565,0.005
23:27:13.612,-0.585,0.01
23:27:13.616,-0.58,0.0
23:27:13.620,-0.595,0.005
23:27:13.624,-0.595,0.0
23:27:13.628,-0.605,-0.02
23:27:13.632,-0.58,0.0
23:27:13.636,-0.59,-0.005
23:27:13.640,-0.58,-0.01
23:27:13.644,-0.57,0.015
23:27:13.648,-0.57,0.0
23:27:13.652,-0.565,0.01
23:27:13.656,-0.56,0.025
23:27:13.660,-0.56,0.0
23:27:13.664,-0.56,0.02
23:27:13.668,-0.575,0.01
23:27:13.672,-0.545,0.02
23:27:13.676,-0.535,0.03
23:27:13.680,-0.53,0.03
23:27:13.684,-0.525,0.035
23:27:13.688,-0.53,0.035
23:27:13.692,-0.52,0.035
23:27:13.696,-0.51,0.03
23:27:13.700,-0.51,0.03
23:27:13.704,-0.51,0.045
23:27:13.708,-0.495,0.03
23:27:13.712,-0.5,0.03
23:27:13.716,-0.51,0.03
23:27:13.720,-0.51,0.03
23:27:13.724,-0.465,0.025
23:27:13.728,-0.465,0.02
23:27:13.732,-0.45,0.03
23:27:13.736,-0.43,0.02
23:27:13.740,-0.41,0.025
23:27:13.744,-0.405,0.04
23:27:13.748,-0.4,0.035
23:27:13.752,-0.39,0.01
23:27:13.756,-0.385,0.0
23:27:13.760,-0.38,0.01
23:27:13.764,-0.34,0.0
23:27:13.768,-0.335,0.0
23:27:13.772,-0.32,0.01
23:27:13.776,-0.305,-0.025
23:27:13.780,-0.28,-0.02
23:27:13.784,-0.265,-0.02
23:27:13.788,-0.23,-0.03
23:27:13.792,-0.225,-0.02
23:27:13.796,-0.23,0.0
23:27:13.800,-0.2,0.015
23:27:13.804,-0.215,0.025
23:27:13.808,-0.23,0.015
23:27:13.812,-0.23,0.055
23:27:13.816,-0.23,0.06
23:27:13.820,-0.24,0.07
23:27:13.824,-0.24,0.035
23:27:13.828,-0.22,0.025
23:27:13.832,-0.19,0.02
23:27:13.836,-0.12,0.0
23:27:13.840,-0.07,0.01
23:27:13.844,0.0,0.0
23:27:13.848,0.025,-0.005
23:27:13.852,0.03,-0.07
23:27:13.856,0.0,-0.05
23:27:13.860,-0.03,-0.05
23:27:13.864,-0.07,-0.08
23:27:13.868,-0.03,-0.1
23:27:13.872,0.135,-0.18
23:27:13.876,0.44,-0.32
23:27:13.880,0.755,-0.59
23:27:13.884,0.98,-0.87
23:27:13.888,1.02,-1.05
23:27:13.892,0.815,-1.02
23:27:13.896,0.38,-0.75
23:27:13.900,-0.02,-0.335
23:27:13.904,-0.24,-0.015
23:27:13.908,-0.365,0.145
23:27:13.912,-0.44,0.205
23:27:13.916,-0.465,0.215
23:27:13.920,-0.5,0.185
23:27:13.924,-0.545,0.205
23:27:13.928,-0.565,0.18
23:27:13.932,-0.565,0.185
23:27:13.936,-0.58,0.16
23:27:13.940,-0.605,0.15
23:27:13.944,-0.625,0.14
23:27:13.948,-0.645,0.12
23:27:13.952,-0.665,0.14
23:27:13.956,-0.665,0.125
23:27:13.960,-0.655,0.105
23:27:13.964,-0.65,0.105
23:27:13.968,-0.635,0.095
23:27:13.972,-0.64,0.095
23:27:13.976,-0.635,0.085
23:27:13.980,-0.615,0.105
23:27:13.984,-0.63,0.105
23:27:13.988,-0.64,0.085
23:27:13.992,-0.64,0.105
23:27:13.996,-0.63,0.065
23:27:14.000,-0.635,0.07
23:27:14.004,-0.58,0.065
23:27:14.008,-0.565,0.06
23:27:14.012,-0.54,0.075
23:27:14.016,-0.505,0.05
23:27:14.020,-0.485,0.06
23:27:14.024,-0.46,0.065
23:27:14.028,-0.46,0.075
23:27:14.032,-0.445,0.075
23:27:14.036,-0.44,0.065
23:27:14.040,-0.45,0.105
23:27:14.044,-0.45,0.115
23:27:14.048,-0.435,0.12
23:27:14.052,-0.455,0.105
23:27:14.056,-0.45,0.095
23:27:14.060,-0.435,0.075
23:27:14.064,-0.43,0.075
23:27:14.068,-0.425,0.055
23:27:14.072,-0.415,0.055
23:27:14.076,-0.41,0.065
23:27:14.080,-0.415,0.05
23:27:14.084,-0.435,0.04
23:27:14.088,-0.42,0.03
23:27:14.092,-0.41,0.015
23:27:14.096,-0.385,0.01
23:27:14.100,-0.395,0.015
23:27:14.104,-0.38,0.0
23:27:14.108,-0.375,0.015
23:27:14.112,-0.395,0.0
23:27:14.116,-0.375,0.005
23:27:14.120,-0.35,0.0
23:27:14.124,-0.37,-0.005
23:27:14.128,-0.365,0.01
23:27:14.132,-0.38,0.005
23:27:14.136,-0.38,0.0
23:27:14.140,-0.375,0.0
23:27:14.144,-0.385,0.0
23:27:14.148,-0.37,-0.005
23:27:14.152,-0.37,-0.015
23:27:14.156,-0.375,0.005
23:27:14.160,-0.395,-0.005
23:27:14.164,-0.395,0.0
23:27:14.168,-0.405,-0.02
23:27:14.172,-0.405,0.0
23:27:14.176,-0.415,0.005
23:27:14.180,-0.42,-0.015
23:27:14.184,-0.45,-0.03
23:27:14.188,-0.48,-0.04
23:27:14.192,-0.49,-0.04
23:27:14.196,-0.49,-0.025
23:27:14.200,-0.515,-0.025
23:27:14.204,-0.53,-0.035
23:27:14.208,-0.53,-0.015
23:27:14.212,-0.555,-0.02
23:27:14.216,-0.515,0.0
23:27:14.220,-0.515,-0.01
23:27:14.224,-0.505,-0.01
23:27:14.228,-0.505,-0.03
23:27:14.232,-0.48,-0.025
23:27:14.236,-0.405,-0.05
23:27:14.240,-0.345,-0.045
23:27:14.244,-0.315,-0.055
23:27:14.248,-0.295,-0.055
23:27:14.252,-0.275,-0.045
23:27:14.256,-0.26,-0.055
23:27:14.260,-0.25,-0.07
23:27:14.264,-0.245,-0.07
23:27:14.268,-0.24,-0.07
23:27:14.272,-0.225,-0.08
23:27:14.276,-0.265,-0.08
23:27:14.280,-0.255,-0.08
23:27:14.284,-0.265,-0.08
23:27:14.288,-0.235,-0.075
23:27:14.292,-0.24,-0.08
23:27:14.296,-0.235,-0.095
23:27:14.300,-0.24,-0.095
23:27:14.304,-0.22,-0.1
23:27:14.308,-0.25,-0.095
23:27:14.312,-0.265,-0.13
23:27:14.316,-0.27,-0.1
23:27:14.320,-0.255,-0.105
23:27:14.324,-0.275,-0.095
23:27:14.328,-0.265,-0.135
23:27:14.332,-0.275,-0.155
23:27:14.336,-0.29,-0.135
23:27:14.340,-0.29,-0.14
23:27:14.344,-0.3,-0.155
23:27:14.348,-0.3,-0.15
23:27:14.352,-0.32,-0.175
23:27:14.356,-0.335,-0.16
23:27:14.360,-0.35,-0.145
23:27:14.364,-0.335,-0.165
23:27:14.368,-0.325,-0.18
23:27:14.372,-0.335,-0.19
23:27:14.376,-0.34,-0.17
23:27:14.380,-0.33,-0.195
23:27:14.384,-0.355,-0.175
23:27:14.388,-0.325,-0.21
23:27:14.392,-0.34,-0.195
23:27:14.396,-0.315,-0.21
23:27:14.400,-0.29,-0.2
23:27:14.404,-0.225,-0.2
23:27:14.408,-0.145,-0.235
23:27:14.412,-0.035,-0.235
23:27:14.416,0.015,-0.27
23:27:14.420,0.085,-0.28
23:27:14.424,0.145,-0.29
23:27:14.428,0.185,-0.3
23:27:14.432,0.185,-0.28
23:27:14.436,0.145,-0.28
23:27:14.440,0.15,-0.335
23:27:14.444,0.295,-0.425
23:27:14.448,0.575,-0.595
23:27:14.452,0.89,-0.85
23:27:14.456,1.1,-1.095
23:27:14.460,1.07,-1.245
23:27:14.464,0.75,-1.2
23:27:14.468,0.305,-0.93
23:27:14.472,-0.015,-0.62
23:27:14.476,-0.165,-0.365
23:27:14.480,-0.215,-0.21
23:27:14.484,-0.26,-0.12
23:27:14.488,-0.27,-0.09
23:27:14.492,-0.28,-0.085
23:27:14.496,-0.28,-0.06
23:27:14.500,-0.275,-0.07
23:27:14.504,-0.28,-0.09
23:27:14.508,-0.275,-0.12
23:27:14.512,-0.295,-0.155
23:27:14.516,-0.32,-0.165
23:27:14.520,-0.355,-0.175
23:27:14.524,-0.34,-0.195
23:27:14.528,-0.345,-0.18
23:27:14.532,-0.35,-0.195
23:27:14.536,-0.35,-0.22
23:27:14.540,-0.34,-0.245
23:27:14.544,-0.335,-0.265
23:27:14.548,-0.345,-0.27
23:27:14.552,-0.37,-0.26
23:27:14.556,-0.4,-0.265
23:27:14.560,-0.4,-0.29
23:27:14.564,-0.425,-0.265
23:27:14.568,-0.45,-0.265
23:27:14.572,-0.455,-0.275
23:27:14.576,-0.45,-0.3
23:27:14.580,-0.475,-0.3
23:27:14.584,-0.475,-0.31
23:27:14.588,-0.5,-0.295
23:27:14.592,-0.495,-0.31
23:27:14.596,-0.52,-0.315
23:27:14.600,-0.505,-0.315
23:27:14.604,-0.495,-0.3
23:27:14.608,-0.485,-0.33
23:27:14.612,-0.495,-0.31
23:27:14.616,-0.49,-0.32
23:27:14.620,-0.49,-0.315
23:27:14.624,-0.515,-0.315
23:27:14.628,-0.505,-0.335
23:27:14.632,-0.505,-0.32
23:27:14.636,-0.505,-0.31
23:27:14.640,-0.51,-0.34
23:27:14.644,-0.5,-0.325
23:27:14.648,-0.5,-0.33
23:27:14.652,-0.475,-0.31
23:27:14.656,-0.46,-0.32
23:27:14.660,-0.455,-0.335
23:27:14.664,-0.46,-0.335
23:27:14.668,-0.45,-0.34
23:27:14.672,-0.435,-0.315
23:27:14.676,-0.415,-0.335
23:27:14.680,-0.405,-0.345
23:27:14.684,-0.395,-0.335
23:27:14.688,-0.375,-0.33
23:27:14.692,-0.345,-0.34
23:27:14.696,-0.305,-0.355
23:27:14.700,-0.265,-0.36
23:27:14.704,-0.225,-0.375
23:27:14.708,-0.23,-0.36
23:27:14.712,-0.215,-0.35
23:27:14.716,-0.19,-0.345
23:27:14.720,-0.16,-0.345
23:27:14.724,-0.165,-0.33
23:27:14.728,-0.12,-0.33
23:27:14.732,-0.12,-0.34
23:27:14.736,-0.12,-0.34
23:27:14.740,-0.115,-0.3
23:27:14.744,-0.12,-0.3
23:27:14.748,-0.105,-0.285
23:27:14.752,-0.095,-0.29
23:27:14.756,-0.06,-0.285
23:27:14.760,-0.06,-0.29
23:27:14.764,-0.055,-0.275
23:27:14.768,-0.08,-0.305
23:27:14.772,-0.09,-0.31
23:27:14.776,-0.115,-0.315
23:27:14.780,-0.135,-0.31
23:27:14.784,-0.13,-0.315
23:27:14.788,-0.15,-0.33
23:27:14.792,-0.165,-0.295
23:27:14.796,-0.21,-0.335
23:27:14.800,-0.215,-0.315
23:27:14.804,-0.23,-0.315
23:27:14.808,-0.235,-0.345
23:27:14.812,-0.245,-0.325
23:27:14.816,-0.255,-0.315
23:27:14.820,-0.24,-0.325
23:27:14.824,-0.25,-0.315
23:27:14.828,-0.235,-0.32
23:27:14.832,-0.255,-0.33
23:27:14.836,-0.24,-0.315
23:27:14.840,-0.255,-0.335
23:27:14.844,-0.285,-0.305
23:27:14.848,-0.265,-0.315
23:27:14.852,-0.28,-0.305
23:27:14.856,-0.285,-0.31
23:27:14.860,-0.3,-0.305
23:27:14.864,-0.32,-0.295
23:27:14.868,-0.295,-0.285
23:27:14.872,-0.295,-0.295
23:27:14.876,-0.29,-0.285
23:27:14.880,-0.32,-0.265
23:27:14.884,-0.33,-0.285
23:27:14.888,-0.315,-0.275
23:27:14.892,-0.315,-0.245
23:27:14.896,-0.295,-0.265
23:27:14.900,-0.33,-0.255
23:27:14.904,-0.31,-0.245
23:27:14.908,-0.29,-0.24
23:27:14.912,-0.305,-0.235
23:27:14.916,-0.295,-0.25
23:27:14.920,-0.285,-0.23
23:27:14.924,-0.275,-0.225
23:27:14.928,-0.26,-0.23
23:27:14.932,-0.24,-0.205
23:27:14.936,-0.2,-0.2
23:27:14.940,-0.18,-0.195
23:27:14.944,-0.155,-0.19
23:27:14.948,-0.155,-0.19
23:27:14.952,-0.125,-0.17
23:27:14.956,-0.075,-0.14
23:27:14.960,-0.045,-0.15
23:27:14.964,0.035,-0.145
23:27:14.968,0.135,-0.135
23:27:14.972,0.21,-0.135
23:27:14.976,0.25,-0.16
23:27:14.980,0.28,-0.22
23:27:14.984,0.315,-0.2
23:27:14.988,0.335,-0.175
23:27:14.992,0.295,-0.18
23:27:14.996,0.295,-0.21
23:27:15.000,0.435,-0.33
23:27:15.004,0.735,-0.48
23:27:15.008,1.07,-0.75
23:27:15.012,1.305,-1.005
23:27:15.016,1.295,-1.2
23:27:15.020,0.975,-1.15
23:27:15.024,0.475,-0.89
23:27:15.028,0.075,-0.525
23:27:15.032,-0.13,-0.275
23:27:15.036,-0.205,-0.125
23:27:15.040,-0.275,-0.045
23:27:15.044,-0.3,0.0
23:27:15.048,-0.33,0.02
23:27:15.052,-0.365,0.01
23:27:15.056,-0.38,0.01
23:27:15.060,-0.41,-0.01
23:27:15.064,-0.41,-0.035
23:27:15.068,-0.415,-0.02
23:27:15.072,-0.45,-0.03
23:27:15.076,-0.425,-0.045
23:27:15.080,-0.445,-0.04
23:27:15.084,-0.42,-0.045
23:27:15.088,-0.44,-0.02
23:27:15.092,-0.42,-0.025
23:27:15.096,-0.425,-0.045
23:27:15.100,-0.45,-0.025
23:27:15.104,-0.455,-0.015
23:27:15.108,-0.455,-0.01
23:27:15.112,-0.47,-0.01
23:27:15.116,-0.505,-0.005
23:27:15.120,-0.515,0.005
23:27:15.124,-0.515,0.005
23:27:15.128,-0.52,-0.015
23:27:15.132,-0.535,0.0
23:27:15.136,-0.585,-0.025
23:27:15.140,-0.58,0.005
23:27:15.144,-0.59,-0.005
23:27:15.148,-0.58,-0.01
23:27:15.152,-0.56,-0.005
23:27:15.156,-0.555,-0.01
23:27:15.160,-0.53,-0.03
23:27:15.164,-0.51,-0.04
23:27:15.168,-0.485,-0.035
23:27:15.172,-0.48,-0.005
23:27:15.176,-0.475,0.005
23:27:15.180,-0.445,0.02
23:27:15.184,-0.44,0.035
23:27:15.188,-0.44,0.03
23:27:15.192,-0.415,0.055
23:27:15.196,-0.41,0.045
23:27:15.200,-0.42,0.05
23:27:15.204,-0.415,0.04
23:27:15.208,-0.425,0.035
23:27:15.212,-0.415,0.03
23:27:15.216,-0.39,0.035
23:27:15.220,-0.385,0.055
23:27:15.224,-0.375,0.06
23:27:15.228,-0.37,0.03
23:27:15.232,-0.35,0.015
23:27:15.236,-0.345,0.025
23:27:15.240,-0.33,0.025
23:27:15.244,-0.355,-0.01
23:27:15.248,-0.335,-0.01
23:27:15.252,-0.325,-0.04
23:27:15.256,-0.27,-0.05
23:27:15.260,-0.255,-0.065
23:27:15.264,-0.245,-0.07
23:27:15.268,-0.23,-0.08
23:27:15.272,-0.22,-0.085
23:27:15.276,-0.23,-0.07
23:27:15.280,-0.235,-0.07
23:27:15.284,-0.235,-0.085
23:27:15.288,-0.22,-0.11
23:27:15.292,-0.235,-0.095
23:27:15.296,-0.235,-0.085
23:27:15.300,-0.235,-0.08
23:27:15.304,-0.195,-0.075
23:27:15.308,-0.235,-0.08
23:27:15.312,-0.23,-0.085
23:27:15.316,-0.225,-0.05
23:27:15.320,-0.21,-0.065
23:27:15.324,-0.225,-0.035
23:27:15.328,-0.25,-0.065
23:27:15.332,-0.24,-0.055
23:27:15.336,-0.245,-0.055
23:27:15.340,-0.245,-0.05
23:27:15.344,-0.265,-0.055
23:27:15.348,-0.27,-0.025
23:27:15.352,-0.295,-0.055
23:27:15.356,-0.31,-0.045
23:27:15.360,-0.3,-0.035
23:27:15.364,-0.315,-0.035
23:27:15.368,-0.335,-0.035
23:27:15.372,-0.33,-0.065
23:27:15.376,-0.35,-0.055
23:27:15.380,-0.33,-0.055
23:27:15.384,-0.345,-0.055
23:27:15.388,-0.325,-0.04
23:27:15.392,-0.31,-0.025
23:27:15.396,-0.31,-0.035
23:27:15.400,-0.29,-0.02
23:27:15.404,-0.32,-0.01
23:27:15.408,-0.275,-0.01
23:27:15.412,-0.265,0.0
23:27:15.416,-0.25,0.015
23:27:15.420,-0.25,0.025
23:27:15.424,-0.245,0.035
23:27:15.428,-0.255,0.05
23:27:15.432,-0.255,0.06
23:27:15.436,-0.26,0.07
23:27:15.440,-0.29,0.075
23:27:15.444,-0.295,0.05
23:27:15.448,-0.265,0.06
23:27:15.452,-0.24,0.05
23:27:15.456,-0.18,0.05
23:27:15.460,-0.115,0.03
23:27:15.464,-0.04,0.05
23:27:15.468,0.0,0.0
23:27:15.472,0.01,-0.05
23:27:15.476,0.02,-0.075
23:27:15.480,0.005,-0.065
23:27:15.484,-0.01,-0.06
23:27:15.488,-0.04,-0.12
23:27:15.492,0.035,-0.22
23:27:15.496,0.265,-0.375
23:27:15.500,0.585,-0.605
23:27:15.504,0.91,-0.895
23:27:15.508,1.11,-1.16
23:27:15.512,1.11,-1.285
23:27:15.516,0.81,-1.15
23:27:15.520,0.355,-0.83
23:27:15.524,-0.005,-0.42
23:27:15.528,-0.21,-0.12
23:27:15.532,-0.3,0.015
23:27:15.536,-0.36,0.065
23:27:15.540,-0.375,0.095
23:27:15.544,-0.415,0.055
23:27:15.548,-0.41,0.06
23:27:15.552,-0.425,0.055
23:27:15.556,-0.445,0.04
23:27:15.560,-0.465,0.03
23:27:15.564,-0.475,-0.015
23:27:15.568,-0.505,-0.025
23:27:15.572,-0.51,-0.03
23:27:15.576,-0.515,-0.025
23:27:15.580,-0.525,-0.03
23:27:15.584,-0.525,-0.02
23:27:15.588,-0.53,-0.02
23:27:15.592,-0.53,-0.025
23:27:15.596,-0.545,-0.01
23:27:15.600,-0.53,-0.02
23:27:15.604,-0.545,-0.03
23:27:15.608,-0.545,-0.03
23:27:15.612,-0.535,-0.035
23:27:15.616,-0.555,-0.045
23:27:15.620,-0.525,-0.025
23:27:15.624,-0.52,-0.015
23:27:15.628,-0.5,0.0
23:27:15.632,-0.5,0.02
23:27:15.636,-0.48,0.01
23:27:15.640,-0.495,0.04
23:27:15.644,-0.48,0.03
23:27:15.648,-0.485,0.045
23:27:15.652,-0.505,0.045
23:27:15.656,-0.495,0.065
23:27:15.660,-0.525,0.075
23:27:15.664,-0.52,0.095
23:27:15.668,-0.52,0.09
23:27:15.672,-0.535,0.115
23:27:15.676,-0.56,0.1
23:27:15.680,-0.57,0.1
23:27:15.684,-0.575,0.09
23:27:15.688,-0.555,0.105
23:27:15.692,-0.53,0.07
23:27:15.696,-0.53,0.075
23:27:15.700,-0.525,0.07
23:27:15.704,-0.495,0.05
23:27:15.708,-0.495,0.025
23:27:15.712,-0.465,0.045
23:27:15.716,-0.47,0.03
23:27:15.720,-0.435,0.015
23:27:15.724,-0.425,-0.005
23:27:15.728,-0.405,-0.02
23:27:15.732,-0.375,-0.025
23:27:15.736,-0.35,-0.03
23:27:15.740,-0.33,-0.055
23:27:15.744,-0.305,-0.045
23:27:15.748,-0.305,-0.06
23:27:15.752,-0.29,-0.075
23:27:15.756,-0.265,-0.045
23:27:15.760,-0.245,-0.035
23:27:15.764,-0.24,-0.055
23:27:15.768,-0.25,-0.065
23:27:15.772,-0.245,-0.075
23:27:15.776,-0.225,-0.065
23:27:15.780,-0.235,-0.07
23:27:15.784,-0.22,-0.085
23:27:15.788,-0.24,-0.065
23:27:15.792,-0.24,-0.08
23:27:15.796,-0.24,-0.07
23:27:15.800,-0.245,-0.06
23:27:15.804,-0.23,-0.045
23:27:15.808,-0.26,-0.065
23:27:15.812,-0.23,-0.09
23:27:15.816,-0.25,-0.07
23:27:15.820,-0.24,-0.06
23:27:15.824,-0.265,-0.07
23:27:15.828,-0.235,-0.06
23:27:15.832,-0.27,-0.05
23:27:15.836,-0.24,-0.055
23:27:15.840,-0.255,-0.035
23:27:15.844,-0.235,-0.025
23:27:15.848,-0.22,-0.04
23:27:15.852,-0.185,-0.04
23:27:15.856,-0.155,-0.01
23:27:15.860,-0.08,-0.02
23:27:15.864,-0.04,0.0
23:27:15.868,0.01,0.005
23:27:15.872,0.035,-0.01
23:27:15.876,0.055,-0.015
23:27:15.880,0.025,-0.04
23:27:15.884,-0.02,-0.06
23:27:15.888,-0.08,-0.04
23:27:15.892,-0.095,-0.05
23:27:15.896,0.025,-0.105
23:27:15.900,0.305,-0.215
23:27:15.904,0.65,-0.4
23:27:15.908,0.89,-0.74
23:27:15.912,1.025,-0.985
23:27:15.916,0.92,-1.025
23:27:15.920,0.555,-0.905
23:27:15.924,0.125,-0.54
23:27:15.928,-0.145,-0.16
23:27:15.932,-0.315,0.05
23:27:15.936,-0.39,0.16
23:27:15.940,-0.44,0.18
23:27:15.944,-0.46,0.175
23:27:15.948,-0.465,0.14
23:27:15.952,-0.455,0.115
23:27:15.956,-0.455,0.095
23:27:15.960,-0.445,0.06
23:27:15.964,-0.44,0.015
23:27:15.968,-0.435,-0.01
23:27:15.972,-0.43,-0.02
23:27:15.976,-0.47,-0.02
23:27:15.980,-0.455,-0.03
23:27:15.984,-0.47,-0.02
23:27:15.988,-0.48,-0.055
23:27:15.992,-0.48,-0.03
23:27:15.996,-0.495,-0.05
23:27:16.000,-0.5,-0.045
23:27:16.004,-0.505,-0.03
23:27:16.008,-0.52,-0.04
23:27:16.012,-0.535,-0.06
23:27:16.016,-0.515,-0.065
23:27:16.020,-0.53,-0.065
23:27:16.024,-0.56,-0.085
23:27:16.028,-0.57,-0.09
23:27:16.032,-0.575,-0.08
23:27:16.036,-0.58,-0.09
23:27:16.040,-0.57,-0.09
23:27:16.044,-0.55,-0.065
23:27:16.048,-0.54,-0.085
23:27:16.052,-0.535,-0.09
23:27:16.056,-0.535,-0.105
23:27:16.060,-0.52,-0.125
23:27:16.064,-0.515,-0.1
23:27:16.068,-0.5,-0.105
23:27:16.072,-0.495,-0.1
23:27:16.076,-0.5,-0.08
23:27:16.080,-0.475,-0.07
23:27:16.084,-0.465,-0.09
23:27:16.088,-0.47,-0.07
23:27:16.092,-0.44,-0.06
23:27:16.096,-0.425,-0.04
23:27:16.100,-0.4,-0.065
23:27:16.104,-0.395,-0.055
23:27:16.108,-0.38,-0.06
23:27:16.112,-0.385,-0.065
23:27:16.116,-0.405,-0.065
23:27:16.120,-0.42,-0.055
23:27:16.124,-0.415,-0.05
23:27:16.128,-0.415,-0.06
23:27:16.132,-0.42,-0.065
23:27:16.136,-0.42,-0.05
23:27:16.140,-0.415,-0.05
23:27:16.144,-0.4,-0.07
23:27:16.148,-0.41,-0.07
23:27:16.152,-0.405,-0.055
23:27:16.156,-0.42,-0.08
23:27:16.160,-0.41,-0.095
23:27:16.164,-0.4,-0.085
23:27:16.168,-0.4,-0.1
23:27:16.172,-0.4,-0.1
23:27:16.176,-0.385,-0.12
23:27:16.180,-0.385,-0.125
23:27:16.184,-0.37,-0.125
23:27:16.188,-0.36,-0.13
23:27:16.192,-0.335,-0.14
23:27:16.196,-0.32,-0.16
23:27:16.200,-0.3,-0.17
23:27:16.204,-0.295,-0.17
23:27:16.208,-0.285,-0.195
23:27:16.212,-0.295,-0.165
23:27:16.216,-0.31,-0.195
23:27:16.220,-0.305,-0.19
23:27:16.224,-0.31,-0.205
23:27:16.228,-0.32,-0.21
23:27:16.232,-0.33,-0.22
23:27:16.236,-0.315,-0.24
23:27:16.240,-0.305,-0.255
23:27:16.244,-0.315,-0.235
23:27:16.248,-0.315,-0.25
23:27:16.252,-0.31,-0.27
23:27:16.256,-0.305,-0.275
23:27:16.260,-0.29,-0.28
23:27:16.264,-0.295,-0.295
23:27:16.268,-0.305,-0.285
23:27:16.272,-0.28,-0.29
23:27:16.276,-0.28,-0.285
23:27:16.280,-0.28,-0.275
23:27:16.284,-0.25,-0.27
23:27:16.288,-0.235,-0.285
23:27:16.292,-0.235,-0.26
23:27:16.296,-0.22,-0.3
23:27:16.300,-0.22,-0.285
23:27:16.304,-0.24,-0.275
23:27:16.308,-0.23,-0.27
23:27:16.312,-0.22,-0.265
23:27:16.316,-0.195,-0.3
23:27:16.320,-0.19,-0.265
23:27:16.324,-0.195,-0.28
23:27:16.328,-0.195,-0.255
23:27:16.332,-0.145,-0.27
23:27:16.336,-0.125,-0.27
23:27:16.340,-0.03,-0.29
23:27:16.344,0.035,-0.29
23:27:16.348,0.125,-0.285
23:27:16.352,0.19,-0.31
23:27:16.356,0.24,-0.31
23:27:16.360,0.28,-0.33
23:27:16.364,0.31,-0.355
23:27:16.368,0.3,-0.32
23:27:16.372,0.255,-0.315
23:27:16.376,0.205,-0.355
23:27:16.380,0.3,-0.365
23:27:16.384,0.535,-0.48
23:27:16.388,0.835,-0.72
23:27:16.392,1.06,-0.975
23:27:16.396,1.08,-1.18
23:27:16.400,0.825,-1.215
23:27:16.404,0.39,-1.025
23:27:16.408,0.0,-0.72
23:27:16.412,-0.21,-0.455
23:27:16.416,-0.335,-0.31
23:27:16.420,-0.35,-0.225
23:27:16.424,-0.365,-0.205
23:27:16.428,-0.375,-0.21
23:27:16.432,-0.4,-0.215
23:27:16.436,-0.415,-0.235
23:27:16.440,-0.44,-0.275
23:27:16.444,-0.445,-0.295
23:27:16.448,-0.47,-0.33
23:27:16.452,-0.465,-0.36
23:27:16.456,-0.47,-0.36
23:27:16.460,-0.45,-0.395
23:27:16.464,-0.45,-0.39
23:27:16.468,-0.44,-0.42
23:27:16.472,-0.44,-0.415
23:27:16.476,-0.44,-0.415
23:27:16.480,-0.435,-0.425
23:27:16.484,-0.43,-0.4
23:27:16.488,-0.425,-0.405
23:27:16.492,-0.42,-0.42
23:27:16.496,-0.435,-0.415
23:27:16.500,-0.395,-0.4
23:27:16.504,-0.37,-0.405
23:27:16.508,-0.38,-0.415
23:27:16.512,-0.38,-0.425
23:27:16.516,-0.375,-0.415
23:27:16.520,-0.385,-0.39
23:27:16.524,-0.39,-0.39
23:27:16.528,-0.405,-0.4
23:27:16.532,-0.385,-0.385
23:27:16.536,-0.39,-0.36
23:27:16.540,-0.385,-0.38
23:27:16.544,-0.4,-0.36
23:27:16.548,-0.4,-0.36
23:27:16.552,-0.385,-0.35
23:27:16.556,-0.36,-0.345
23:27:16.560,-0.345,-0.34
23:27:16.564,-0.325,-0.33
23:27:16.568,-0.295,-0.355
23:27:16.572,-0.26,-0.34
23:27:16.576,-0.24,-0.345
23:27:16.580,-0.225,-0.345
23:27:16.584,-0.235,-0.32
23:27:16.588,-0.24,-0.315
23:27:16.592,-0.235,-0.315
23:27:16.596,-0.235,-0.32
23:27:16.600,-0.27,-0.295
23:27:16.604,-0.305,-0.315
23:27:16.608,-0.32,-0.315
23:27:16.612,-0.34,-0.28
23:27:16.616,-0.35,-0.315
23:27:16.620,-0.36,-0.305
23:27:16.624,-0.365,-0.3
23:27:16.628,-0.36,-0.295
23:27:16.632,-0.38,-0.295
23:27:16.636,-0.385,-0.295
23:27:16.640,-0.37,-0.32
23:27:16.644,-0.38,-0.325
23:27:16.648,-0.38,-0.33
23:27:16.652,-0.36,-0.32
23:27:16.656,-0.365,-0.315
23:27:16.660,-0.365,-0.34
23:27:16.664,-0.33,-0.385
23:27:16.668,-0.305,-0.395
23:27:16.672,-0.305,-0.385
23:27:16.676,-0.305,-0.395
23:27:16.680,-0.27,-0.395
23:27:16.684,-0.27,-0.4
23:27:16.688,-0.275,-0.37
23:27:16.692,-0.28,-0.39
23:27:16.696,-0.285,-0.405
23:27:16.700,-0.26,-0.39
23:27:16.704,-0.275,-0.38
23:27:16.708,-0.25,-0.37
23:27:16.712,-0.235,-0.36
23:27:16.716,-0.245,-0.345
23:27:16.720,-0.215,-0.37
23:27:16.724,-0.205,-0.32
23:27:16.728,-0.21,-0.335
23:27:16.732,-0.19,-0.32
23:27:16.736,-0.185,-0.3
23:27:16.740,-0.195,-0.3
23:27:16.744,-0.21,-0.305
23:27:16.748,-0.205,-0.305
23:27:16.752,-0.205,-0.255
23:27:16.756,-0.22,-0.245
23:27:16.760,-0.215,-0.255
23:27:16.764,-0.215,-0.27
23:27:16.768,-0.215,-0.255
23:27:16.772,-0.22,-0.245
23:27:16.776,-0.23,-0.24
23:27:16.780,-0.23,-0.245
23:27:16.784,-0.225,-0.225
23:27:16.788,-0.205,-0.23
23:27:16.792,-0.205,-0.245
23:27:16.796,-0.205,-0.22
23:27:16.800,-0.195,-0.24
23:27:16.804,-0.19,-0.245
23:27:16.808,-0.16,-0.245
23:27:16.812,-0.155,-0.225
23:27:16.816,-0.145,-0.205
23:27:16.820,-0.13,-0.2
23:27:16.824,-0.115,-0.19
23:27:16.828,-0.13,-0.175
23:27:16.832,-0.14,-0.175
23:27:16.836,-0.16,-0.185
23:27:16.840,-0.2,-0.15
23:27:16.844,-0.225,-0.16
23:27:16.848,-0.265,-0.175
23:27:16.852,-0.305,-0.16
23:27:16.856,-0.325,-0.145
23:27:16.860,-0.335,-0.145
23:27:16.864,-0.33,-0.145
23:27:16.868,-0.35,-0.165
23:27:16.872,-0.35,-0.175
23:27:16.876,-0.34,-0.185
23:27:16.880,-0.255,-0.155
23:27:16.884,-0.18,-0.165
23:27:16.888,-0.105,-0.175
23:27:16.892,-0.02,-0.19
23:27:16.896,0.035,-0.235
23:27:16.900,0.1,-0.27
23:27:16.904,0.14,-0.295
23:27:16.908,0.14,-0.305
23:27:16.912,0.135,-0.34
23:27:16.916,0.195,-0.445
23:27:16.920,0.38,-0.58
23:27:16.924,0.665,-0.77
23:27:16.928,1.0,-1.055
23:27:16.932,1.21,-1.315
23:27:16.936,1.24,-1.44
23:27:16.940,0.96,-1.395
23:27:16.944,0.47,-1.075
23:27:16.948,0.085,-0.695
23:27:16.952,-0.135,-0.405
23:27:16.956,-0.245,-0.225
23:27:16.960,-0.3,-0.115
23:27:16.964,-0.335,-0.09
23:27:16.968,-0.365,-0.08
23:27:16.972,-0.37,-0.065
23:27:16.976,-0.375,-0.08
23:27:16.980,-0.4,-0.075
23:27:16.984,-0.4,-0.095
23:27:16.988,-0.425,-0.105
23:27:16.992,-0.415,-0.11
23:27:16.996,-0.415,-0.115
23:27:17.000,-0.415,-0.125
23:27:17.004,-0.43,-0.12
23:27:17.008,-0.425,-0.125
23:27:17.012,-0.425,-0.11
23:27:17.016,-0.425,-0.11
23:27:17.020,-0.41,-0.105
23:27:17.024,-0.4,-0.095
23:27:17.028,-0.4,-0.1
23:27:17.032,-0.395,-0.115
23:27:17.036,-0.4,-0.11
23:27:17.040,-0.395,-0.105
23:27:17.044,-0.405,-0.08
23:27:17.048,-0.415,-0.08
23:27:17.052,-0.4,-0.08
23:27:17.056,-0.41,-0.06
23:27:17.060,-0.39,-0.055
23:27:17.064,-0.415,-0.045
23:27:17.068,-0.44,-0.06
23:27:17.072,-0.46,-0.04
23:27:17.076,-0.495,-0.025
23:27:17.080,-0.515,-0.035
23:27:17.084,-0.52,-0.03
23:27:17.088,-0.53,-0.045
23:27:17.092,-0.525,-0.035
23:27:17.096,-0.525,-0.045
23:27:17.100,-0.505,-0.055
23:27:17.104,-0.525,-0.065
23:27:17.108,-0.52,-0.05
23:27:17.112,-0.535,-0.07
23:27:17.116,-0.555,-0.065
23:27:17.120,-0.545,-0.055
23:27:17.124,-0.53,-0.08
23:27:17.128,-0.545,-0.09
23:27:17.132,-0.52,-0.105
23:27:17.136,-0.515,-0.12
23:27:17.140,-0.475,-0.12
23:27:17.144,-0.45,-0.135
23:27:17.148,-0.43,-0.17
23:27:17.152,-0.42,-0.18
23:27:17.156,-0.4,-0.2
23:27:17.160,-0.38,-0.19
23:27:17.164,-0.35,-0.205
23:27:17.168,-0.335,-0.21
23:27:17.172,-0.32,-0.23
23:27:17.176,-0.28,-0.23
23:27:17.180,-0.28,-0.215
23:27:17.184,-0.25,-0.22
23:27:17.188,-0.25,-0.23
23:27:17.192,-0.24,-0.205
23:27:17.196,-0.22,-0.205
23:27:17.200,-0.21,-0.175
23:27:17.204,-0.205,-0.175
23:27:17.208,-0.2,-0.175
23:27:17.212,-0.19,-0.165
23:27:17.216,-0.175,-0.175
23:27:17.220,-0.19,-0.16
23:27:17.224,-0.205,-0.155
23:27:17.228,-0.205,-0.155
23:27:17.232,-0.195,-0.15
23:27:17.236,-0.155,-0.14
23:27:17.240,-0.175,-0.14
23:27:17.244,-0.165,-0.135
23:27:17.248,-0.145,-0.13
23:27:17.252,-0.15,-0.13
23:27:17.256,-0.16,-0.13
23:27:17.260,-0.17,-0.11
23:27:17.264,-0.165,-0.13
23:27:17.268,-0.155,-0.105
23:27:17.272,-0.155,-0.105
23:27:17.276,-0.15,-0.105
23:27:17.280,-0.145,-0.105
23:27:17.284,-0.14,-0.1
23:27:17.288,-0.155,-0.08
23:27:17.292,-0.19,-0.075
23:27:17.296,-0.19,-0.07
23:27:17.300,-0.2,-0.05
23:27:17.304,-0.22,-0.075
23:27:17.308,-0.24,-0.06
23:27:17.312,-0.255,-0.075
23:27:17.316,-0.26,-0.07
23:27:17.320,-0.295,-0.04
23:27:17.324,-0.29,-0.06
23:27:17.328,-0.275,-0.055
23:27:17.332,-0.325,-0.08
23:27:17.336,-0.31,-0.085
23:27:17.340,-0.32,-0.085
23:27:17.344,-0.31,-0.075
23:27:17.348,-0.325,-0.06
23:27:17.352,-0.345,-0.065
23:27:17.356,-0.335,-0.075
23:27:17.360,-0.355,-0.09
23:27:17.364,-0.345,-0.11
23:27:17.368,-0.355,-0.09
23:27:17.372,-0.385,-0.11
23:27:17.376,-0.385,-0.1
23:27:17.380,-0.37,-0.1
23:27:17.384,-0.36,-0.085
23:27:17.388,-0.345,-0.105
23:27:17.392,-0.31,-0.085
23:27:17.396,-0.305,-0.105
23:27:17.400,-0.305,-0.125
23:27:17.404,-0.3,-0.155
23:27:17.408,-0.31,-0.14
23:27:17.412,-0.295,-0.16
23:27:17.416,-0.295,-0.165
23:27:17.420,-0.3,-0.16
23:27:17.424,-0.3,-0.17
23:27:17.428,-0.285,-0.175
23:27:17.432,-0.285,-0.17
23:27:17.436,-0.275,-0.16
23:27:17.440,-0.26,-0.15
23:27:17.444,-0.3,-0.13
23:27:17.448,-0.31,-0.145
23:27:17.452,-0.3,-0.155
23:27:17.456,-0.29,-0.145
23:27:17.460,-0.28,-0.14
23:27:17.464,-0.28,-0.145
23:27:17.468,-0.24,-0.155
23:27:17.472,-0.245,-0.175
23:27:17.476,-0.235,-0.16
23:27:17.480,-0.205,-0.16
23:27:17.484,-0.175,-0.135
23:27:17.488,-0.12,-0.145
23:27:17.492,-0.04,-0.14
23:27:17.496,0.05,-0.155
23:27:17.500,0.13,-0.135
23:27:17.504,0.175,-0.145
23:27:17.508,0.215,-0.18
23:27:17.512,0.225,-0.2
23:27:17.516,0.24,-0.21
23:27:17.520,0.18,-0.19
23:27:17.524,0.13,-0.215
23:27:17.528,0.155,-0.27
23:27:17.532,0.36,-0.395
23:27:17.536,0.635,-0.595
23:27:17.540,0.94,-0.895
23:27:17.544,1.12,-1.12
23:27:17.548,1.06,-1.22
23:27:17.552,0.725,-1.115
23:27:17.556,0.235,-0.825
23:27:17.560,-0.09,-0.46
23:27:17.564,-0.275,-0.215
23:27:17.568,-0.36,-0.065
23:27:17.572,-0.405,0.0
23:27:17.576,-0.445,0.025
23:27:17.580,-0.48,0.005
23:27:17.584,-0.51,0.005
23:27:17.588,-0.535,0.0
23:27:17.592,-0.56,-0.015
23:27:17.596,-0.59,-0.05
23:27:17.600,-0.575,-0.055
23:27:17.604,-0.585,-0.055
23:27:17.608,-0.56,-0.045
23:27:17.612,-0.545,-0.06
23:27:17.616,-0.555,-0.04
23:27:17.620,-0.565,-0.06
23:27:17.624,-0.525,-0.065
23:27:17.628,-0.51,-0.055
23:27:17.632,-0.51,-0.05
23:27:17.636,-0.515,-0.065
23:27:17.640,-0.505,-0.065
23:27:17.644,-0.53,-0.075
23:27:17.648,-0.5,-0.06
23:27:17.652,-0.52,-0.1
23:27:17.656,-0.54,-0.09
23:27:17.660,-0.52,-0.115
23:27:17.664,-0.545,-0.14
23:27:17.668,-0.53,-0.13
23:27:17.672,-0.52,-0.145
23:27:17.676,-0.5,-0.14
23:27:17.680,-0.5,-0.14
23:27:17.684,-0.5,-0.13
23:27:17.688,-0.485,-0.135
23:27:17.692,-0.455,-0.13
23:27:17.696,-0.45,-0.14
23:27:17.700,-0.445,-0.13
23:27:17.704,-0.45,-0.135
23:27:17.708,-0.43,-0.145
23:27:17.712,-0.42,-0.135
23:27:17.716,-0.4,-0.1
23:27:17.720,-0.4,-0.11
23:27:17.724,-0.39,-0.12
23:27:17.728,-0.41,-0.09
23:27:17.732,-0.395,-0.095
23:27:17.736,-0.395,-0.095
23:27:17.740,-0.39,-0.09
23:27:17.744,-0.4,-0.115
23:27:17.748,-0.405,-0.105
23:27:17.752,-0.425,-0.095
23:27:17.756,-0.4,-0.1
23:27:17.760,-0.41,-0.1
23:27:17.764,-0.435,-0.12
23:27:17.768,-0.44,-0.115
23:27:17.772,-0.425,-0.12
23:27:17.776,-0.43,-0.13
23:27:17.780,-0.415,-0.14
23:27:17.784,-0.425,-0.16
23:27:17.788,-0.445,-0.175
23:27:17.792,-0.425,-0.185
23:27:17.796,-0.425,-0.18
23:27:17.800,-0.43,-0.165
23:27:17.804,-0.45,-0.17
23:27:17.808,-0.45,-0.16
23:27:17.812,-0.465,-0.17
23:27:17.816,-0.47,-0.19
23:27:17.820,-0.44,-0.19
23:27:17.824,-0.425,-0.175
23:27:17.828,-0.42,-0.17
23:27:17.832,-0.43,-0.17
23:27:17.836,-0.425,-0.18
23:27:17.840,-0.43,-0.175
23:27:17.844,-0.425,-0.17
23:27:17.848,-0.425,-0.17
23:27:17.852,-0.425,-0.155
23:27:17.856,-0.415,-0.15
23:27:17.860,-0.395,-0.165
23:27:17.864,-0.385,-0.185
23:27:17.868,-0.39,-0.18
23:27:17.872,-0.4,-0.17
23:27:17.876,-0.4,-0.175
23:27:17.880,-0.395,-0.185
23:27:17.884,-0.42,-0.2
23:27:17.888,-0.395,-0.2
23:27:17.892,-0.385,-0.23
23:27:17.896,-0.36,-0.215
23:27:17.900,-0.35,-0.24
23:27:17.904,-0.345,-0.235
23:27:17.908,-0.35,-0.25
23:27:17.912,-0.36,-0.245
23:27:17.916,-0.315,-0.245
23:27:17.920,-0.315,-0.235
23:27:17.924,-0.305,-0.24
23:27:17.928,-0.3,-0.24
23:27:17.932,-0.295,-0.23
23:27:17.936,-0.325,-0.24
23:27:17.940,-0.3,-0.25
23:27:17.944,-0.305,-0.24
23:27:17.948,-0.285,-0.235
23:27:17.952,-0.28,-0.21
23:27:17.956,-0.275,-0.21
23:27:17.960,-0.3,-0.225
23:27:17.964,-0.265,-0.215
23:27:17.968,-0.295,-0.205
23:27:17.972,-0.285,-0.205
23:27:17.976,-0.305,-0.22
23:27:17.980,-0.32,-0.22
23:27:17.984,-0.31,-0.24
23:27:17.988,-0.34,-0.245
23:27:17.992,-0.345,-0.26
23:27:17.996,-0.33,-0.255
23:27:18.000,-0.345,-0.27
23:27:18.004,-0.355,-0.265
23:27:18.008,-0.355,-0.27
23:27:18.012,-0.345,-0.27
23:27:18.016,-0.33,-0.26
23:27:18.020,-0.325,-0.28
23:27:18.024,-0.305,-0.27
23:27:18.028,-0.27,-0.27
23:27:18.032,-0.205,-0.27
23:27:18.036,-0.08,-0.29
23:27:18.040,0.01,-0.285
23:27:18.044,0.08,-0.31
23:27:18.048,0.13,-0.365
23:27:18.052,0.18,-0.375
23:27:18.056,0.155,-0.325
23:27:18.060,0.15,-0.305
23:27:18.064,0.11,-0.345
23:27:18.068,0.19,-0.385
23:27:18.072,0.435,-0.515
23:27:18.076,0.77,-0.755
23:27:18.080,1.02,-1.035
23:27:18.084,1.07,-1.255
23:27:18.088,0.82,-1.27
23:27:18.092,0.36,-1.09
23:27:18.096,-0.035,-0.76
23:27:18.100,-0.23,-0.495
23:27:18.104,-0.33,-0.315
23:27:18.108,-0.4,-0.265
23:27:18.112,-0.415,-0.19
23:27:18.116,-0.455,-0.17
23:27:18.120,-0.49,-0.195
23:27:18.124,-0.5,-0.2
23:27:18.128,-0.48,-0.215
23:27:18.132,-0.51,-0.22
23:27:18.136,-0.505,-0.255
23:27:18.140,-0.485,-0.285
23:27:18.144,-0.475,-0.31
23:27:18.148,-0.455,-0.315
23:27:18.152,-0.465,-0.32
23:27:18.156,-0.47,-0.32
23:27:18.160,-0.465,-0.345
23:27:18.164,-0.455,-0.325
23:27:18.168,-0.435,-0.32
23:27:18.172,-0.4,-0.33
23:27:18.176,-0.375,-0.31
23:27:18.180,-0.41,-0.305
23:27:18.184,-0.415,-0.32
23:27:18.188,-0.43,-0.33
23:27:18.192,-0.44,-0.3
23:27:18.196,-0.47,-0.28
23:27:18.200,-0.475,-0.29
23:27:18.204,-0.495,-0.3
23:27:18.208,-0.485,-0.315
23:27:18.212,-0.49,-0.335
23:27:18.216,-0.48,-0.32
23:27:18.220,-0.47,-0.35
23:27:18.224,-0.47,-0.36
23:27:18.228,-0.46,-0.355
23:27:18.232,-0.475,-0.32
23:27:18.236,-0.48,-0.345
23:27:18.240,-0.495,-0.35
23:27:18.244,-0.485,-0.35
23:27:18.248,-0.47,-0.36
23:27:18.252,-0.465,-0.355
23:27:18.256,-0.46,-0.33
23:27:18.260,-0.465,-0.34
23:27:18.264,-0.465,-0.355
23:27:18.268,-0.45,-0.355
23:27:18.272,-0.445,-0.34
23:27:18.276,-0.47,-0.36
23:27:18.280,-0.5,-0.365
23:27:18.284,-0.47,-0.365
23:27:18.288,-0.475,-0.36
23:27:18.292,-0.47,-0.385
23:27:18.296,-0.435,-0.385
23:27:18.300,-0.455,-0.395
23:27:18.304,-0.43,-0.4
23:27:18.308,-0.43,-0.415
23:27:18.312,-0.38,-0.385
23:27:18.316,-0.375,-0.385
23:27:18.320,-0.36,-0.415
23:27:18.324,-0.35,-0.415
23:27:18.328,-0.35,-0.425
23:27:18.332,-0.325,-0.43
23:27:18.336,-0.335,-0.4
23:27:18.340,-0.345,-0.39
23:27:18.344,-0.335,-0.425
23:27:18.348,-0.32,-0.43
23:27:18.352,-0.33,-0.415
23:27:18.356,-0.32,-0.405
23:27:18.360,-0.315,-0.385
23:27:18.364,-0.31,-0.37
23:27:18.368,-0.3,-0.38
23:27:18.372,-0.3,-0.365
23:27:18.376,-0.31,-0.365
23:27:18.380,-0.285,-0.355
23:27:18.384,-0.26,-0.36
23:27:18.388,-0.255,-0.34
23:27:18.392,-0.24,-0.355
23:27:18.396,-0.225,-0.36
23:27:18.400,-0.195,-0.31
23:27:18.404,-0.16,-0.32
23:27:18.408,-0.155,-0.335
23:27:18.412,-0.185,-0.335
23:27:18.416,-0.19,-0.345
23:27:18.420,-0.21,-0.345
23:27:18.424,-0.22,-0.355
23:27:18.428,-0.225,-0.35
23:27:18.432,-0.24,-0.38
23:27:18.436,-0.225,-0.39
23:27:18.440,-0.26,-0.39
23:27:18.444,-0.235,-0.39
23:27:18.448,-0.225,-0.4
23:27:18.452,-0.225,-0.39
23:27:18.456,-0.23,-0.385
23:27:18.460,-0.23,-0.39
23:27:18.464,-0.24,-0.39
23:27:18.468,-0.23,-0.385
23:27:18.472,-0.23,-0.395
23:27:18.476,-0.205,-0.375
23:27:18.480,-0.22,-0.39
23:27:18.484,-0.215,-0.38
23:27:18.488,-0.24,-0.36
23:27:18.492,-0.245,-0.375
23:27:18.496,-0.24,-0.4
23:27:18.500,-0.2,-0.385
23:27:18.504,-0.175,-0.365
23:27:18.508,-0.095,-0.38
23:27:18.512,-0.04,-0.37
23:27:18.516,0.025,-0.385
23:27:18.520,0.07,-0.42
23:27:18.524,0.11,-0.44
23:27:18.528,0.175,-0.465
23:27:18.532,0.2,-0.44
23:27:18.536,0.205,-0.45
23:27:18.540,0.185,-0.48
23:27:18.544,0.265,-0.55
23:27:18.548,0.47,-0.625
23:27:18.552,0.765,-0.835
23:27:18.556,1.05,-1.09
23:27:18.560,1.13,-1.305
23:27:18.564,0.895,-1.34
23:27:18.568,0.44,-1.18
23:27:18.572,0.03,-0.83
23:27:18.576,-0.21,-0.545
23:27:18.580,-0.295,-0.36
23:27:18.584,-0.33,-0.245
23:27:18.588,-0.375,-0.165
23:27:18.592,-0.41,-0.13
23:27:18.596,-0.44,-0.13
23:27:18.600,-0.46,-0.135
23:27:18.604,-0.47,-0.125
23:27:18.608,-0.47,-0.15
23:27:18.612,-0.475,-0.165
23:27:18.616,-0.46,-0.17
23:27:18.620,-0.48,-0.195
23:27:18.624,-0.48,-0.165
23:27:18.628,-0.495,-0.155
23:27:18.632,-0.49,-0.16
23:27:18.636,-0.515,-0.165
23:27:18.640,-0.52,-0.165
23:27:18.644,-0.515,-0.14
23:27:18.648,-0.5,-0.15
23:27:18.652,-0.51,-0.185
23:27:18.656,-0.51,-0.175
23:27:18.660,-0.51,-0.2
23:27:18.664,-0.49,-0.195
23:27:18.668,-0.515,-0.21
23:27:18.672,-0.525,-0.19
23:27:18.676,-0.515,-0.215
23:27:18.680,-0.515,-0.205
23:27:18.684,-0.505,-0.225
23:27:18.688,-0.49,-0.215
23:27:18.692,-0.515,-0.185
23:27:18.696,-0.515,-0.195
23:27:18.700,-0.505,-0.19
23:27:18.704,-0.525,-0.2
23:27:18.708,-0.515,-0.2
23:27:18.712,-0.535,-0.2
23:27:18.716,-0.52,-0.205
23:27:18.720,-0.525,-0.195
23:27:18.724,-0.515,-0.19
23:27:18.728,-0.52,-0.22
23:27:18.732,-0.525,-0.23
23:27:18.736,-0.55,-0.225
23:27:18.740,-0.54,-0.225
23:27:18.744,-0.51,-0.23
23:27:18.748,-0.51,-0.235
23:27:18.752,-0.51,-0.235
23:27:18.756,-0.495,-0.245
23:27:18.760,-0.5,-0.265
23:27:18.764,-0.48,-0.23
23:27:18.768,-0.49,-0.21
23:27:18.772,-0.49,-0.245
23:27:18.776,-0.485,-0.225
23:27:18.780,-0.475,-0.225
23:27:18.784,-0.46,-0.235
23:27:18.788,-0.435,-0.24
23:27:18.792,-0.445,-0.26
23:27:18.796,-0.41,-0.215
23:27:18.800,-0.41,-0.2
23:27:18.804,-0.385,-0.185
23:27:18.808,-0.365,-0.185
23:27:18.812,-0.33,-0.185
23:27:18.816,-0.32,-0.175
23:27:18.820,-0.31,-0.17
23:27:18.824,-0.305,-0.175
23:27:18.828,-0.315,-0.165
23:27:18.832,-0.28,-0.16
23:27:18.836,-0.275,-0.165
23:27:18.840,-0.275,-0.155
23:27:18.844,-0.27,-0.175
23:27:18.848,-0.28,-0.15
23:27:18.852,-0.29,-0.165
23:27:18.856,-0.27,-0.145
23:27:18.860,-0.285,-0.15
23:27:18.864,-0.315,-0.14
23:27:18.868,-0.33,-0.13
23:27:18.872,-0.345,-0.15
23:27:18.876,-0.355,-0.145
23:27:18.880,-0.335,-0.14
23:27:18.884,-0.335,-0.14
23:27:18.888,-0.315,-0.125
23:27:18.892,-0.295,-0.15
23:27:18.896,-0.285,-0.155
23:27:18.900,-0.265,-0.17
23:27:18.904,-0.275,-0.165
23:27:18.908,-0.265,-0.185
23:27:18.912,-0.26,-0.16
23:27:18.916,-0.265,-0.185
23:27:18.920,-0.26,-0.155
23:27:18.924,-0.24,-0.17
23:27:18.928,-0.24,-0.16
23:27:18.932,-0.25,-0.165
23:27:18.936,-0.245,-0.18
23:27:18.940,-0.24,-0.19
23:27:18.944,-0.25,-0.18
23:27:18.948,-0.255,-0.2
23:27:18.952,-0.255,-0.17
23:27:18.956,-0.25,-0.175
23:27:18.960,-0.255,-0.18
23:27:18.964,-0.255,-0.175
23:27:18.968,-0.275,-0.19
23:27:18.972,-0.27,-0.18
23:27:18.976,-0.275,-0.18
23:27:18.980,-0.28,-0.195
23:27:18.984,-0.245,-0.185
23:27:18.988,-0.245,-0.21
23:27:18.992,-0.21,-0.2
23:27:18.996,-0.135,-0.185
23:27:19.000,-0.05,-0.195
23:27:19.004,0.025,-0.21
23:27:19.008,0.07,-0.23
23:27:19.012,0.085,-0.255
23:27:19.016,0.065,-0.23
23:27:19.020,0.075,-0.215
23:27:19.024,0.06,-0.225
23:27:19.028,0.05,-0.265
23:27:19.032,0.19,-0.35
23:27:19.036,0.46,-0.495
23:27:19.040,0.78,-0.74
23:27:19.044,1.055,-0.99
23:27:19.048,1.16,-1.215
23:27:19.052,0.98,-1.215
23:27:19.056,0.555,-0.99
23:27:19.060,0.14,-0.61
23:27:19.064,-0.115,-0.29
23:27:19.068,-0.23,-0.1
23:27:19.072,-0.28,0.025
23:27:19.076,-0.305,0.07
23:27:19.080,-0.33,0.08
23:27:19.084,-0.38,0.065
23:27:19.088,-0.405,0.06
23:27:19.092,-0.425,0.05
23:27:19.096,-0.455,0.03
23:27:19.100,-0.47,0.035
23:27:19.104,-0.48,0.0
23:27:19.108,-0.5,-0.005
23:27:19.112,-0.5,-0.01
23:27:19.116,-0.51,-0.015
23:27:19.120,-0.51,-0.02
23:27:19.124,-0.48,-0.02
23:27:19.128,-0.485,-0.03
23:27:19.132,-0.465,-0.01
23:27:19.136,-0.455,-0.055
23:27:19.140,-0.455,-0.045
23:27:19.144,-0.44,-0.06
23:27:19.148,-0.455,-0.08
23:27:19.152,-0.47,-0.09
23:27:19.156,-0.48,-0.095
23:27:19.160,-0.465,-0.095
23:27:19.164,-0.47,-0.09
23:27:19.168,-0.49,-0.075
23:27:19.172,-0.505,-0.11
23:27:19.176,-0.505,-0.09
23:27:19.180,-0.485,-0.1
23:27:19.184,-0.525,-0.135
23:27:19.188,-0.485,-0.115
23:27:19.192,-0.515,-0.14
23:27:19.196,-0.5,-0.13
23:27:19.200,-0.515,-0.12
23:27:19.204,-0.535,-0.1
23:27:19.208,-0.505,-0.115
23:27:19.212,-0.515,-0.125
23:27:19.216,-0.525,-0.135
23:27:19.220,-0.53,-0.13
23:27:19.224,-0.545,-0.13
23:27:19.228,-0.515,-0.12
23:27:19.232,-0.505,-0.12
23:27:19.236,-0.505,-0.125
23:27:19.240,-0.465,-0.105
23:27:19.244,-0.47,-0.115
23:27:19.248,-0.44,-0.1
23:27:19.252,-0.425,-0.105
23:27:19.256,-0.415,-0.1
23:27:19.260,-0.41,-0.105
23:27:19.264,-0.385,-0.11
23:27:19.268,-0.38,-0.105
23:27:19.272,-0.36,-0.095
23:27:19.276,-0.365,-0.09
23:27:19.280,-0.355,-0.075
23:27:19.284,-0.34,-0.105
23:27:19.288,-0.295,-0.08
23:27:19.292,-0.3,-0.07
23:27:19.296,-0.295,-0.07
