Time,ECG1,ECG2
23:41:44.712,-0.56,0.085
23:41:44.716,-0.57,0.06
23:41:44.720,-0.565,0.065
23:41:44.724,-0.585,0.065
23:41:44.728,-0.565,0.04
23:41:44.732,-0.545,0.045
23:41:44.736,-0.535,0.005
23:41:44.740,-0.535,0.005
23:41:44.744,-0.52,0.0
23:41:44.748,-0.53,0.015
23:41:44.752,-0.475,0.025
23:41:44.756,-0.46,0.0
23:41:44.760,-0.44,0.005
23:41:44.764,-0.465,-0.005
23:41:44.768,-0.46,0.015
23:41:44.772,-0.44,-0.005
23:41:44.776,-0.435,0.02
23:41:44.780,-0.43,0.02
23:41:44.784,-0.41,0.015
23:41:44.788,-0.405,0.025
23:41:44.792,-0.41,0.04
23:41:44.796,-0.4,0.035
23:41:44.800,-0.395,0.03
23:41:44.804,-0.36,0.04
23:41:44.808,-0.36,0.055
23:41:44.812,-0.36,0.07
23:41:44.816,-0.34,0.07
23:41:44.820,-0.35,0.09
23:41:44.824,-0.35,0.065
23:41:44.828,-0.335,0.085
23:41:44.832,-0.335,0.09
23:41:44.836,-0.32,0.08
23:41:44.840,-0.28,0.09
23:41:44.844,-0.29,0.11
23:41:44.848,-0.25,0.115
23:41:44.852,-0.225,0.13
23:41:44.856,-0.245,0.12
23:41:44.860,-0.195,0.135
23:41:44.864,-0.18,0.17
23:41:44.868,-0.105,0.175
23:41:44.872,0.01,0.16
23:41:44.876,0.09,0.18
23:41:44.880,0.175,0.165
23:41:44.884,0.19,0.145
23:41:44.888,0.175,0.145
23:41:44.892,0.09,0.145
23:41:44.896,-0.01,0.165
23:41:44.900,-0.115,0.15
23:41:44.904,-0.105,0.09
23:41:44.908,0.12,-0.03
23:41:44.912,0.46,-0.285
23:41:44.916,0.785,-0.625
23:41:44.920,1.045,-0.885
23:41:44.924,1.125,-0.935
23:41:44.928,0.965,-0.755
23:41:44.932,0.555,-0.38
23:41:44.936,0.16,0.0
23:41:44.940,-0.105,0.255
23:41:44.944,-0.21,0.355
23:41:44.948,-0.29,0.4
23:41:44.952,-0.33,0.375
23:41:44.956,-0.37,0.35
23:41:44.960,-0.42,0.33
23:41:44.964,-0.46,0.28
23:41:44.968,-0.465,0.26
23:41:44.972,-0.48,0.19
23:41:44.976,-0.485,0.175
23:41:44.980,-0.48,0.145
23:41:44.984,-0.48,0.145
23:41:44.988,-0.5,0.115
23:41:44.992,-0.52,0.095
23:41:44.996,-0.51,0.12
23:41:45.000,-0.465,0.125
23:41:45.004,-0.485,0.14
23:41:45.008,-0.555,0.11
23:41:45.012,-0.655,0.115
23:41:45.016,-0.65,0.13
23:41:45.020,-0.585,0.12
23:41:45.024,-0.55,0.145
23:41:45.028,-0.555,0.115
23:41:45.032,-0.54,0.12
23:41:45.036,-0.535,0.125
23:41:45.040,-0.485,0.115
23:41:45.044,-0.435,0.155
23:41:45.048,-0.455,0.16
23:41:45.052,-0.475,0.15
23:41:45.056,-0.46,0.155
23:41:45.060,-0.445,0.145
23:41:45.064,-0.45,0.13
23:41:45.068,-0.495,0.155
23:41:45.072,-0.51,0.16
23:41:45.076,-0.475,0.155
23:41:45.080,-0.43,0.17
23:41:45.084,-0.41,0.185
23:41:45.088,-0.42,0.205
23:41:45.092,-0.4,0.19
23:41:45.096,-0.4,0.19
23:41:45.100,-0.395,0.215
23:41:45.104,-0.38,0.205
23:41:45.108,-0.385,0.205
23:41:45.112,-0.385,0.255
23:41:45.116,-0.39,0.245
23:41:45.120,-0.42,0.235
23:41:45.124,-0.44,0.22
23:41:45.128,-0.42,0.195
23:41:45.132,-0.37,0.195
23:41:45.136,-0.375,0.205
23:41:45.140,-0.435,0.215
23:41:45.144,-0.505,0.19
23:41:45.148,-0.47,0.17
23:41:45.152,-0.415,0.155
23:41:45.156,-0.355,0.155
23:41:45.160,-0.33,0.145
23:41:45.164,-0.27,0.135
23:41:45.168,-0.255,0.12
23:41:45.172,-0.255,0.115
23:41:45.176,-0.29,0.09
23:41:45.180,-0.305,0.085
23:41:45.184,-0.285,0.065
23:41:45.188,-0.275,0.07
23:41:45.192,-0.235,0.055
23:41:45.196,-0.18,0.06
23:41:45.200,-0.15,0.055
23:41:45.204,-0.145,0.045
23:41:45.208,-0.195,0.025
23:41:45.212,-0.26,0.03
23:41:45.216,-0.27,0.035
23:41:45.220,-0.245,0.025
23:41:45.224,-0.23,0.025
23:41:45.228,-0.215,0.04
23:41:45.232,-0.19,0.045
23:41:45.236,-0.17,0.05
23:41:45.240,-0.175,0.035
23:41:45.244,-0.185,0.035
23:41:45.248,-0.2,0.03
23:41:45.252,-0.225,0.01
23:41:45.256,-0.23,0.0
23:41:45.260,-0.195,0.015
23:41:45.264,-0.15,0.005
23:41:45.268,-0.14,0.03
23:41:45.272,-0.19,0.035
23:41:45.276,-0.185,0.015
23:41:45.280,-0.17,0.055
23:41:45.284,-0.14,0.065
23:41:45.288,-0.125,0.06
23:41:45.292,-0.11,0.04
23:41:45.296,-0.12,0.06
23:41:45.300,-0.11,0.055
23:41:45.304,-0.115,0.085
23:41:45.308,-0.1,0.09
23:41:45.312,-0.085,0.065
23:41:45.316,-0.075,0.075
23:41:45.320,-0.12,0.1
23:41:45.324,-0.16,0.085
23:41:45.328,-0.185,0.07
23:41:45.332,-0.185,0.07
23:41:45.336,-0.18,0.075
23:41:45.340,-0.16,0.095
23:41:45.344,-0.145,0.095
23:41:45.348,-0.15,0.085
23:41:45.352,-0.165,0.065
23:41:45.356,-0.155,0.05
23:41:45.360,-0.115,0.05
23:41:45.364,-0.08,0.055
23:41:45.368,-0.045,0.025
23:41:45.372,-0.085,0.0
23:41:45.376,-0.13,-0.045
23:41:45.380,-0.12,-0.09
23:41:45.384,-0.15,-0.07
23:41:45.388,-0.18,-0.085
23:41:45.392,-0.225,-0.075
23:41:45.396,-0.15,-0.07
23:41:45.400,-0.115,-0.1
23:41:45.404,-0.145,-0.095
23:41:45.408,-0.215,-0.115
23:41:45.412,-0.24,-0.1
23:41:45.416,-0.23,-0.135
23:41:45.420,-0.145,-0.145
23:41:45.424,-0.085,-0.13
23:41:45.428,-0.125,-0.155
23:41:45.432,-0.165,-0.13
23:41:45.436,-0.185,-0.135
23:41:45.440,-0.17,-0.145
23:41:45.444,-0.145,-0.155
23:41:45.448,-0.115,-0.125
23:41:45.452,-0.09,-0.15
23:41:45.456,-0.045,-0.15
23:41:45.460,-0.05,-0.155
23:41:45.464,-0.055,-0.16
23:41:45.468,-0.01,-0.14
23:41:45.472,0.035,-0.105
23:41:45.476,0.04,-0.105
23:41:45.480,0.06,-0.085
23:41:45.484,0.025,-0.06
23:41:45.488,0.01,-0.06
23:41:45.492,-0.005,-0.09
23:41:45.496,-0.06,-0.08
23:41:45.500,-0.085,-0.075
23:41:45.504,-0.07,-0.07
23:41:45.508,-0.02,-0.075
23:41:45.512,-0.01,-0.07
23:41:45.516,-0.04,-0.065
23:41:45.520,-0.065,-0.065
23:41:45.524,-0.08,-0.06
23:41:45.528,-0.1,-0.05
23:41:45.532,-0.14,-0.04
23:41:45.536,-0.155,-0.02
23:41:45.540,-0.19,-0.04
23:41:45.544,-0.17,-0.05
23:41:45.548,-0.115,-0.025
23:41:45.552,-0.015,-0.025
23:41:45.556,0.05,-0.035
23:41:45.560,-0.005,-0.04
23:41:45.564,-0.12,-0.085
23:41:45.568,-0.195,-0.095
23:41:45.572,-0.105,-0.1
23:41:45.576,0.01,-0.09
23:41:45.580,0.045,-0.08
23:41:45.584,-0.05,-0.1
23:41:45.588,-0.17,-0.11
23:41:45.592,-0.17,-0.12
23:41:45.596,-0.145,-0.105
23:41:45.600,-0.095,-0.12
23:41:45.604,-0.07,-0.135
23:41:45.608,-0.08,-0.155
23:41:45.612,-0.095,-0.16
23:41:45.616,-0.06,-0.145
23:41:45.620,-0.025,-0.145
23:41:45.624,-0.03,-0.135
23:41:45.628,-0.1,-0.135
23:41:45.632,-0.16,-0.165
23:41:45.636,-0.145,-0.155
23:41:45.640,-0.085,-0.14
23:41:45.644,-0.04,-0.15
23:41:45.648,-0.045,-0.15
23:41:45.652,-0.075,-0.13
23:41:45.656,-0.08,-0.14
23:41:45.660,-0.04,-0.12
23:41:45.664,-0.04,-0.11
23:41:45.668,-0.02,-0.13
23:41:45.672,0.04,-0.125
23:41:45.676,0.16,-0.11
23:41:45.680,0.29,-0.105
23:41:45.684,0.43,-0.095
23:41:45.688,0.58,-0.105
23:41:45.692,0.615,-0.11
23:41:45.696,0.585,-0.145
23:41:45.700,0.54,-0.115
23:41:45.704,0.515,-0.115
23:41:45.708,0.47,-0.15
23:41:45.712,0.44,-0.19
23:41:45.716,0.575,-0.29
23:41:45.720,0.87,-0.47
23:41:45.724,1.195,-0.755
23:41:45.728,1.425,-0.98
23:41:45.732,1.48,-1.075
23:41:45.736,1.23,-0.96
23:41:45.740,0.775,-0.595
23:41:45.744,0.325,-0.28
23:41:45.748,0.14,-0.06
23:41:45.752,0.105,0.06
23:41:45.756,0.07,0.135
23:41:45.760,-0.015,0.15
23:41:45.764,-0.135,0.14
23:41:45.768,-0.235,0.12
23:41:45.772,-0.27,0.11
23:41:45.776,-0.25,0.055
23:41:45.780,-0.235,0.06
23:41:45.784,-0.18,0.055
23:41:45.788,-0.175,0.025
23:41:45.792,-0.18,0.0
23:41:45.796,-0.18,-0.015
23:41:45.800,-0.15,0.005
23:41:45.804,-0.15,-0.01
23:41:45.808,-0.16,0.005
23:41:45.812,-0.16,0.005
23:41:45.816,-0.16,-0.025
23:41:45.820,-0.13,-0.015
23:41:45.824,-0.16,-0.015
23:41:45.828,-0.16,-0.005
23:41:45.832,-0.19,-0.02
23:41:45.836,-0.215,-0.04
23:41:45.840,-0.215,-0.02
23:41:45.844,-0.22,0.0
23:41:45.848,-0.215,-0.02
23:41:45.852,-0.175,0.0
23:41:45.856,-0.16,-0.015
23:41:45.860,-0.19,-0.025
23:41:45.864,-0.16,-0.03
23:41:45.868,-0.14,-0.025
23:41:45.872,-0.12,-0.015
23:41:45.876,-0.095,-0.005
23:41:45.880,-0.105,-0.02
23:41:45.884,-0.08,0.01
23:41:45.888,-0.03,0.045
23:41:45.892,-0.035,0.04
23:41:45.896,-0.015,0.1
23:41:45.900,-0.015,0.095
23:41:45.904,0.005,0.12
23:41:45.908,0.01,0.115
23:41:45.912,-0.01,0.105
23:41:45.916,-0.045,0.135
23:41:45.920,-0.035,0.135
23:41:45.924,-0.04,0.15
23:41:45.928,-0.05,0.19
23:41:45.932,-0.09,0.165
23:41:45.936,-0.105,0.16
23:41:45.940,-0.135,0.175
23:41:45.944,-0.165,0.195
23:41:45.948,-0.175,0.185
23:41:45.952,-0.195,0.155
23:41:45.956,-0.16,0.13
23:41:45.960,-0.14,0.15
23:41:45.964,-0.14,0.14
23:41:45.968,-0.125,0.13
23:41:45.972,-0.12,0.1
23:41:45.976,-0.1,0.07
23:41:45.980,-0.11,0.02
23:41:45.984,-0.09,0.025
23:41:45.988,-0.11,0.035
23:41:45.992,-0.07,0.02
23:41:45.996,-0.05,0.0
23:41:46.000,-0.02,0.0
23:41:46.004,-0.03,0.0
23:41:46.008,-0.03,-0.01
23:41:46.012,-0.03,0.0
23:41:46.016,0.0,0.0
23:41:46.020,-0.005,0.005
23:41:46.024,-0.01,0.025
23:41:46.028,0.01,0.01
23:41:46.032,0.04,0.0
23:41:46.036,0.04,-0.02
23:41:46.040,0.05,-0.02
23:41:46.044,0.025,-0.005
23:41:46.048,-0.005,-0.005
23:41:46.052,-0.025,-0.005
23:41:46.056,-0.01,0.0
23:41:46.060,-0.025,-0.005
23:41:46.064,-0.02,-0.005
23:41:46.068,-0.02,-0.005
23:41:46.072,-0.02,0.01
23:41:46.076,-0.02,0.005
23:41:46.080,-0.01,0.01
23:41:46.084,-0.005,0.025
23:41:46.088,0.02,0.02
23:41:46.092,0.035,0.04
23:41:46.096,0.045,0.025
23:41:46.100,0.095,0.04
23:41:46.104,0.135,0.06
23:41:46.108,0.185,0.065
23:41:46.112,0.2,0.1
23:41:46.116,0.27,0.105
23:41:46.120,0.34,0.125
23:41:46.124,0.39,0.13
23:41:46.128,0.48,0.17
23:41:46.132,0.57,0.18
23:41:46.136,0.69,0.155
23:41:46.140,0.785,0.145
23:41:46.144,0.87,0.095
23:41:46.148,0.875,0.055
23:41:46.152,0.91,0.075
23:41:46.156,0.895,0.125
23:41:46.160,0.825,0.13
23:41:46.164,0.805,0.065
23:41:46.168,0.955,-0.02
23:41:46.172,1.25,-0.265
23:41:46.176,1.58,-0.53
23:41:46.180,1.805,-0.725
23:41:46.184,1.795,-0.81
23:41:46.188,1.465,-0.63
23:41:46.192,0.995,-0.31
23:41:46.196,0.67,-0.02
23:41:46.200,0.51,0.115
23:41:46.204,0.43,0.195
23:41:46.208,0.35,0.285
23:41:46.212,0.3,0.27
23:41:46.216,0.27,0.31
23:41:46.220,0.23,0.33
23:41:46.224,0.18,0.305
23:41:46.228,0.18,0.3
23:41:46.232,0.185,0.295
23:41:46.236,0.175,0.29
23:41:46.240,0.175,0.29
23:41:46.244,0.17,0.245
23:41:46.248,0.17,0.23
23:41:46.252,0.155,0.235
23:41:46.256,0.15,0.245
23:41:46.260,0.15,0.225
23:41:46.264,0.135,0.245
23:41:46.268,0.12,0.255
23:41:46.272,0.11,0.255
23:41:46.276,0.125,0.265
23:41:46.280,0.145,0.265
23:41:46.284,0.125,0.295
23:41:46.288,0.11,0.275
23:41:46.292,0.11,0.255
23:41:46.296,0.095,0.26
23:41:46.300,0.095,0.26
23:41:46.304,0.1,0.26
23:41:46.308,0.095,0.28
23:41:46.312,0.09,0.295
23:41:46.316,0.095,0.295
23:41:46.320,0.13,0.3
23:41:46.324,0.125,0.33
23:41:46.328,0.155,0.335
23:41:46.332,0.165,0.35
23:41:46.336,0.175,0.35
23:41:46.340,0.165,0.345
23:41:46.344,0.205,0.375
23:41:46.348,0.21,0.39
23:41:46.352,0.205,0.39
23:41:46.356,0.235,0.41
23:41:46.360,0.25,0.425
23:41:46.364,0.26,0.415
23:41:46.368,0.295,0.44
23:41:46.372,0.275,0.455
23:41:46.376,0.265,0.465
23:41:46.380,0.245,0.45
23:41:46.384,0.225,0.45
23:41:46.388,0.215,0.43
23:41:46.392,0.225,0.41
23:41:46.396,0.22,0.36
23:41:46.400,0.21,0.355
23:41:46.404,0.205,0.365
23:41:46.408,0.195,0.39
23:41:46.412,0.22,0.37
23:41:46.416,0.23,0.365
23:41:46.420,0.27,0.34
23:41:46.424,0.27,0.36
23:41:46.428,0.265,0.36
23:41:46.432,0.29,0.37
23:41:46.436,0.3,0.35
23:41:46.440,0.28,0.35
23:41:46.444,0.3,0.355
23:41:46.448,0.28,0.355
23:41:46.452,0.31,0.38
23:41:46.456,0.315,0.365
23:41:46.460,0.295,0.35
23:41:46.464,0.29,0.36
23:41:46.468,0.285,0.375
23:41:46.472,0.28,0.36
23:41:46.476,0.275,0.35
23:41:46.480,0.26,0.34
23:41:46.484,0.24,0.335
23:41:46.488,0.2,0.355
23:41:46.492,0.17,0.34
23:41:46.496,0.175,0.355
23:41:46.500,0.165,0.35
23:41:46.504,0.13,0.37
23:41:46.508,0.175,0.365
23:41:46.512,0.165,0.365
23:41:46.516,0.13,0.35
23:41:46.520,0.115,0.335
23:41:46.524,0.12,0.35
23:41:46.528,0.13,0.355
23:41:46.532,0.145,0.375
23:41:46.536,0.155,0.36
23:41:46.540,0.12,0.39
23:41:46.544,0.16,0.405
23:41:46.548,0.17,0.4
23:41:46.552,0.16,0.42
23:41:46.556,0.195,0.43
23:41:46.560,0.24,0.445
23:41:46.564,0.22,0.47
23:41:46.568,0.195,0.51
23:41:46.572,0.17,0.475
23:41:46.576,0.175,0.47
23:41:46.580,0.175,0.48
23:41:46.584,0.17,0.485
23:41:46.588,0.14,0.505
23:41:46.592,0.13,0.49
23:41:46.596,0.095,0.51
23:41:46.600,0.035,0.5
23:41:46.604,0.015,0.48
23:41:46.608,0.01,0.47
23:41:46.612,0.05,0.435
23:41:46.616,0.1,0.445
23:41:46.620,0.195,0.43
23:41:46.624,0.285,0.395
23:41:46.628,0.385,0.35
23:41:46.632,0.42,0.325
23:41:46.636,0.435,0.315
23:41:46.640,0.42,0.32
23:41:46.644,0.37,0.295
23:41:46.648,0.35,0.22
23:41:46.652,0.43,0.06
23:41:46.656,0.665,-0.115
23:41:46.660,0.965,-0.415
23:41:46.664,1.26,-0.7
23:41:46.668,1.435,-0.86
23:41:46.672,1.36,-0.79
23:41:46.676,0.96,-0.485
23:41:46.680,0.42,-0.115
23:41:46.684,0.065,0.165
23:41:46.688,-0.065,0.315
23:41:46.692,-0.17,0.405
23:41:46.696,-0.205,0.465
23:41:46.700,-0.245,0.485
23:41:46.704,-0.3,0.505
23:41:46.708,-0.315,0.505
23:41:46.712,-0.34,0.475
23:41:46.716,-0.36,0.45
23:41:46.720,-0.365,0.435
23:41:46.724,-0.37,0.44
23:41:46.728,-0.35,0.43
23:41:46.732,-0.35,0.455
23:41:46.736,-0.345,0.445
23:41:46.740,-0.34,0.435
23:41:46.744,-0.35,0.44
23:41:46.748,-0.33,0.465
23:41:46.752,-0.33,0.44
23:41:46.756,-0.335,0.46
23:41:46.760,-0.325,0.48
23:41:46.764,-0.295,0.47
23:41:46.768,-0.27,0.475
23:41:46.772,-0.265,0.515
23:41:46.776,-0.27,0.505
23:41:46.780,-0.285,0.525
23:41:46.784,-0.265,0.54
23:41:46.788,-0.26,0.545
23:41:46.792,-0.27,0.565
23:41:46.796,-0.26,0.555
23:41:46.800,-0.27,0.54
23:41:46.804,-0.3,0.52
23:41:46.808,-0.325,0.535
23:41:46.812,-0.38,0.54
23:41:46.816,-0.415,0.555
23:41:46.820,-0.465,0.53
23:41:46.824,-0.505,0.525
23:41:46.828,-0.515,0.545
23:41:46.832,-0.515,0.555
23:41:46.836,-0.525,0.58
23:41:46.840,-0.535,0.57
23:41:46.844,-0.51,0.54
23:41:46.848,-0.485,0.54
23:41:46.852,-0.49,0.505
23:41:46.856,-0.515,0.475
23:41:46.860,-0.515,0.475
23:41:46.864,-0.495,0.48
23:41:46.868,-0.485,0.47
23:41:46.872,-0.46,0.465
23:41:46.876,-0.47,0.445
23:41:46.880,-0.485,0.45
23:41:46.884,-0.485,0.45
23:41:46.888,-0.49,0.445
23:41:46.892,-0.495,0.42
23:41:46.896,-0.485,0.41
23:41:46.900,-0.47,0.435
23:41:46.904,-0.455,0.42
23:41:46.908,-0.445,0.41
23:41:46.912,-0.445,0.42
23:41:46.916,-0.48,0.4
23:41:46.920,-0.455,0.395
23:41:46.924,-0.465,0.42
23:41:46.928,-0.425,0.405
23:41:46.932,-0.41,0.43
23:41:46.936,-0.375,0.41
23:41:46.940,-0.37,0.425
23:41:46.944,-0.36,0.42
23:41:46.948,-0.345,0.405
23:41:46.952,-0.345,0.47
23:41:46.956,-0.33,0.46
23:41:46.960,-0.315,0.43
23:41:46.964,-0.315,0.49
23:41:46.968,-0.32,0.49
23:41:46.972,-0.285,0.475
23:41:46.976,-0.27,0.515
23:41:46.980,-0.25,0.52
23:41:46.984,-0.245,0.555
23:41:46.988,-0.25,0.555
23:41:46.992,-0.22,0.58
23:41:46.996,-0.23,0.585
23:41:47.000,-0.2,0.6
23:41:47.004,-0.23,0.605
23:41:47.008,-0.24,0.58
23:41:47.012,-0.25,0.585
23:41:47.016,-0.285,0.585
23:41:47.020,-0.305,0.565
23:41:47.024,-0.345,0.575
23:41:47.028,-0.39,0.58
23:41:47.032,-0.4,0.54
23:41:47.036,-0.44,0.52
23:41:47.040,-0.445,0.55
23:41:47.044,-0.46,0.555
23:41:47.048,-0.47,0.545
23:41:47.052,-0.455,0.52
23:41:47.056,-0.45,0.505
23:41:47.060,-0.43,0.505
23:41:47.064,-0.435,0.52
23:41:47.068,-0.425,0.51
23:41:47.072,-0.415,0.51
23:41:47.076,-0.425,0.475
23:41:47.080,-0.425,0.455
23:41:47.084,-0.42,0.42
23:41:47.088,-0.43,0.415
23:41:47.092,-0.42,0.4
23:41:47.096,-0.435,0.375
23:41:47.100,-0.425,0.38
23:41:47.104,-0.435,0.38
23:41:47.108,-0.435,0.395
23:41:47.112,-0.42,0.385
23:41:47.116,-0.4,0.4
23:41:47.120,-0.35,0.385
23:41:47.124,-0.3,0.39
23:41:47.128,-0.2,0.365
23:41:47.132,-0.145,0.36
23:41:47.136,-0.085,0.325
23:41:47.140,-0.05,0.29
23:41:47.144,-0.035,0.285
23:41:47.148,-0.055,0.295
23:41:47.152,-0.08,0.295
23:41:47.156,-0.08,0.23
23:41:47.160,0.09,0.08
23:41:47.164,0.4,-0.135
23:41:47.168,0.745,-0.385
23:41:47.172,1.025,-0.63
23:41:47.176,1.14,-0.72
23:41:47.180,0.945,-0.55
23:41:47.184,0.445,-0.2
23:41:47.188,-0.015,0.14
23:41:47.192,-0.255,0.39
23:41:47.196,-0.355,0.52
23:41:47.200,-0.425,0.575
23:41:47.204,-0.43,0.605
23:41:47.208,-0.485,0.61
23:41:47.212,-0.495,0.615
23:41:47.216,-0.55,0.625
23:41:47.220,-0.555,0.635
23:41:47.224,-0.575,0.6
23:41:47.228,-0.6,0.575
23:41:47.232,-0.615,0.57
23:41:47.236,-0.665,0.545
23:41:47.240,-0.71,0.56
23:41:47.244,-0.745,0.555
23:41:47.248,-0.755,0.575
23:41:47.252,-0.78,0.575
23:41:47.256,-0.77,0.595
23:41:47.260,-0.8,0.59
23:41:47.264,-0.8,0.53
23:41:47.268,-0.775,0.54
23:41:47.272,-0.78,0.535
23:41:47.276,-0.785,0.53
23:41:47.280,-0.775,0.53
23:41:47.284,-0.765,0.515
23:41:47.288,-0.75,0.495
23:41:47.292,-0.77,0.465
23:41:47.296,-0.785,0.465
23:41:47.300,-0.8,0.465
23:41:47.304,-0.8,0.45
23:41:47.308,-0.815,0.435
23:41:47.312,-0.8,0.435
23:41:47.316,-0.795,0.425
23:41:47.320,-0.805,0.45
23:41:47.324,-0.8,0.44
23:41:47.328,-0.8,0.41
23:41:47.332,-0.79,0.4
23:41:47.336,-0.785,0.41
23:41:47.340,-0.76,0.41
23:41:47.344,-0.775,0.41
23:41:47.348,-0.785,0.405
23:41:47.352,-0.77,0.38
23:41:47.356,-0.745,0.375
23:41:47.360,-0.72,0.39
23:41:47.364,-0.715,0.375
23:41:47.368,-0.71,0.365
23:41:47.372,-0.7,0.36
23:41:47.376,-0.67,0.395
23:41:47.380,-0.66,0.39
23:41:47.384,-0.645,0.41
23:41:47.388,-0.635,0.4
23:41:47.392,-0.6,0.405
23:41:47.396,-0.615,0.38
23:41:47.400,-0.61,0.365
23:41:47.404,-0.6,0.385
23:41:47.408,-0.575,0.385
23:41:47.412,-0.555,0.44
23:41:47.416,-0.53,0.42
23:41:47.420,-0.5,0.44
23:41:47.424,-0.505,0.435
23:41:47.428,-0.5,0.455
23:41:47.432,-0.515,0.45
23:41:47.436,-0.495,0.47
23:41:47.440,-0.52,0.445
23:41:47.444,-0.54,0.45
23:41:47.448,-0.555,0.435
23:41:47.452,-0.575,0.44
23:41:47.456,-0.605,0.47
23:41:47.460,-0.585,0.48
23:41:47.464,-0.59,0.475
23:41:47.468,-0.61,0.475
23:41:47.472,-0.59,0.485
23:41:47.476,-0.6,0.47
23:41:47.480,-0.585,0.475
23:41:47.484,-0.58,0.45
23:41:47.488,-0.58,0.44
23:41:47.492,-0.575,0.43
23:41:47.496,-0.555,0.415
23:41:47.500,-0.57,0.41
23:41:47.504,-0.585,0.41
23:41:47.508,-0.58,0.39
23:41:47.512,-0.57,0.37
23:41:47.516,-0.575,0.385
23:41:47.520,-0.56,0.4
23:41:47.524,-0.57,0.39
23:41:47.528,-0.57,0.395
23:41:47.532,-0.585,0.365
23:41:47.536,-0.56,0.355
23:41:47.540,-0.54,0.35
23:41:47.544,-0.56,0.345
23:41:47.548,-0.56,0.335
23:41:47.552,-0.57,0.355
23:41:47.556,-0.56,0.335
23:41:47.560,-0.53,0.345
23:41:47.564,-0.52,0.36
23:41:47.568,-0.49,0.35
23:41:47.572,-0.495,0.33
23:41:47.576,-0.48,0.32
23:41:47.580,-0.45,0.335
23:41:47.584,-0.44,0.315
23:41:47.588,-0.435,0.34
23:41:47.592,-0.415,0.345
23:41:47.596,-0.415,0.37
23:41:47.600,-0.4,0.405
23:41:47.604,-0.395,0.385
23:41:47.608,-0.39,0.38
23:41:47.612,-0.39,0.365
23:41:47.616,-0.33,0.37
23:41:47.620,-0.25,0.37
23:41:47.624,-0.17,0.375
23:41:47.628,-0.105,0.37
23:41:47.632,-0.065,0.315
23:41:47.636,-0.05,0.305
23:41:47.640,-0.065,0.3
23:41:47.644,-0.09,0.355
23:41:47.648,-0.175,0.34
23:41:47.652,-0.2,0.275
23:41:47.656,-0.01,0.2
23:41:47.660,0.265,-0.04
23:41:47.664,0.625,-0.34
23:41:47.668,0.905,-0.6
23:41:47.672,0.95,-0.655
23:41:47.676,0.675,-0.51
23:41:47.680,0.2,-0.145
23:41:47.684,-0.205,0.2
23:41:47.688,-0.41,0.43
23:41:47.692,-0.515,0.505
23:41:47.696,-0.575,0.505
23:41:47.700,-0.59,0.5
23:41:47.704,-0.615,0.48
23:41:47.708,-0.615,0.455
23:41:47.712,-0.645,0.415
23:41:47.716,-0.665,0.395
23:41:47.720,-0.675,0.385
23:41:47.724,-0.675,0.355
23:41:47.728,-0.67,0.38
23:41:47.732,-0.685,0.34
23:41:47.736,-0.71,0.35
23:41:47.740,-0.72,0.355
23:41:47.744,-0.735,0.325
23:41:47.748,-0.715,0.32
23:41:47.752,-0.72,0.335
23:41:47.756,-0.7,0.33
23:41:47.760,-0.69,0.315
23:41:47.764,-0.69,0.32
23:41:47.768,-0.675,0.285
23:41:47.772,-0.68,0.29
23:41:47.776,-0.69,0.315
23:41:47.780,-0.685,0.33
23:41:47.784,-0.685,0.31
23:41:47.788,-0.655,0.31
23:41:47.792,-0.655,0.32
23:41:47.796,-0.64,0.33
23:41:47.800,-0.645,0.335
23:41:47.804,-0.63,0.32
23:41:47.808,-0.625,0.315
23:41:47.812,-0.62,0.33
23:41:47.816,-0.615,0.33
23:41:47.820,-0.635,0.34
23:41:47.824,-0.635,0.35
23:41:47.828,-0.61,0.345
23:41:47.832,-0.585,0.33
23:41:47.836,-0.57,0.36
23:41:47.840,-0.57,0.355
23:41:47.844,-0.57,0.365
23:41:47.848,-0.565,0.375
23:41:47.852,-0.6,0.385
23:41:47.856,-0.58,0.395
23:41:47.860,-0.58,0.39
23:41:47.864,-0.58,0.4
23:41:47.868,-0.61,0.405
23:41:47.872,-0.635,0.4
23:41:47.876,-0.62,0.395
23:41:47.880,-0.63,0.37
23:41:47.884,-0.615,0.355
23:41:47.888,-0.585,0.34
23:41:47.892,-0.59,0.34
23:41:47.896,-0.56,0.35
23:41:47.900,-0.535,0.325
23:41:47.904,-0.525,0.305
23:41:47.908,-0.52,0.285
23:41:47.912,-0.485,0.26
23:41:47.916,-0.46,0.265
23:41:47.920,-0.44,0.26
23:41:47.924,-0.455,0.235
23:41:47.928,-0.45,0.225
23:41:47.932,-0.46,0.215
23:41:47.936,-0.46,0.215
23:41:47.940,-0.45,0.23
23:41:47.944,-0.43,0.21
23:41:47.948,-0.43,0.215
23:41:47.952,-0.445,0.215
23:41:47.956,-0.44,0.225
23:41:47.960,-0.455,0.225
23:41:47.964,-0.465,0.205
23:41:47.968,-0.455,0.205
23:41:47.972,-0.43,0.2
23:41:47.976,-0.42,0.18
23:41:47.980,-0.43,0.195
23:41:47.984,-0.415,0.18
23:41:47.988,-0.415,0.19
23:41:47.992,-0.395,0.185
23:41:47.996,-0.37,0.17
23:41:48.000,-0.365,0.19
23:41:48.004,-0.345,0.185
23:41:48.008,-0.35,0.215
23:41:48.012,-0.355,0.2
23:41:48.016,-0.36,0.21
23:41:48.020,-0.35,0.22
23:41:48.024,-0.365,0.215
23:41:48.028,-0.36,0.215
23:41:48.032,-0.35,0.2
23:41:48.036,-0.35,0.2
23:41:48.040,-0.33,0.195
23:41:48.044,-0.33,0.195
23:41:48.048,-0.325,0.195
23:41:48.052,-0.345,0.205
23:41:48.056,-0.32,0.23
23:41:48.060,-0.32,0.23
23:41:48.064,-0.335,0.235
23:41:48.068,-0.35,0.23
23:41:48.072,-0.37,0.22
23:41:48.076,-0.385,0.225
23:41:48.080,-0.425,0.22
23:41:48.084,-0.425,0.22
23:41:48.088,-0.44,0.205
23:41:48.092,-0.47,0.21
23:41:48.096,-0.48,0.185
23:41:48.100,-0.48,0.195
23:41:48.104,-0.46,0.17
23:41:48.108,-0.435,0.15
23:41:48.112,-0.435,0.145
23:41:48.116,-0.44,0.125
23:41:48.120,-0.43,0.1
23:41:48.124,-0.44,0.09
23:41:48.128,-0.425,0.08
23:41:48.132,-0.42,0.055
23:41:48.136,-0.425,0.06
23:41:48.140,-0.41,0.04
23:41:48.144,-0.395,0.055
23:41:48.148,-0.37,0.06
23:41:48.152,-0.375,0.04
23:41:48.156,-0.355,0.035
23:41:48.160,-0.325,0.015
23:41:48.164,-0.295,0.005
23:41:48.168,-0.205,0.005
23:41:48.172,-0.08,-0.02
23:41:48.176,-0.03,-0.055
23:41:48.180,0.005,-0.08
23:41:48.184,0.07,-0.095
23:41:48.188,0.105,-0.05
23:41:48.192,0.085,-0.055
23:41:48.196,0.045,-0.08
23:41:48.200,0.095,-0.145
23:41:48.204,0.315,-0.29
23:41:48.208,0.645,-0.515
23:41:48.212,0.965,-0.825
23:41:48.216,1.14,-0.995
23:41:48.220,1.0,-1.01
23:41:48.224,0.605,-0.755
23:41:48.228,0.16,-0.385
23:41:48.232,-0.09,-0.125
23:41:48.236,-0.2,-0.005
23:41:48.240,-0.27,0.095
23:41:48.244,-0.3,0.135
23:41:48.248,-0.345,0.155
23:41:48.252,-0.385,0.155
23:41:48.256,-0.395,0.13
23:41:48.260,-0.43,0.12
23:41:48.264,-0.445,0.095
23:41:48.268,-0.445,0.07
23:41:48.272,-0.465,0.045
23:41:48.276,-0.49,0.03
23:41:48.280,-0.49,0.035
23:41:48.284,-0.495,0.055
23:41:48.288,-0.495,0.035
23:41:48.292,-0.51,0.06
23:41:48.296,-0.53,0.05
23:41:48.300,-0.575,0.04
23:41:48.304,-0.6,0.015
23:41:48.308,-0.59,0.03
23:41:48.312,-0.54,0.005
23:41:48.316,-0.52,0.0
23:41:48.320,-0.545,0.0
23:41:48.324,-0.555,-0.045
23:41:48.328,-0.555,-0.045
23:41:48.332,-0.53,-0.07
23:41:48.336,-0.54,-0.1
23:41:48.340,-0.56,-0.095
23:41:48.344,-0.55,-0.105
23:41:48.348,-0.535,-0.11
23:41:48.352,-0.53,-0.11
23:41:48.356,-0.545,-0.13
23:41:48.360,-0.565,-0.12
23:41:48.364,-0.57,-0.12
23:41:48.368,-0.58,-0.135
23:41:48.372,-0.585,-0.18
23:41:48.376,-0.585,-0.16
23:41:48.380,-0.58,-0.145
23:41:48.384,-0.585,-0.165
23:41:48.388,-0.58,-0.175
23:41:48.392,-0.585,-0.175
23:41:48.396,-0.57,-0.165
23:41:48.400,-0.59,-0.195
23:41:48.404,-0.6,-0.2
23:41:48.408,-0.58,-0.215
23:41:48.412,-0.59,-0.23
23:41:48.416,-0.56,-0.225
23:41:48.420,-0.53,-0.235
23:41:48.424,-0.5,-0.245
23:41:48.428,-0.495,-0.255
23:41:48.432,-0.46,-0.265
23:41:48.436,-0.485,-0.27
23:41:48.440,-0.485,-0.29
23:41:48.444,-0.465,-0.265
23:41:48.448,-0.455,-0.275
23:41:48.452,-0.455,-0.28
23:41:48.456,-0.43,-0.265
23:41:48.460,-0.405,-0.265
23:41:48.464,-0.395,-0.24
23:41:48.468,-0.37,-0.235
23:41:48.472,-0.36,-0.235
23:41:48.476,-0.37,-0.245
23:41:48.480,-0.35,-0.245
23:41:48.484,-0.35,-0.23
23:41:48.488,-0.38,-0.24
23:41:48.492,-0.37,-0.215
23:41:48.496,-0.375,-0.205
23:41:48.500,-0.385,-0.24
23:41:48.504,-0.385,-0.205
23:41:48.508,-0.44,-0.205
23:41:48.512,-0.455,-0.205
23:41:48.516,-0.46,-0.235
23:41:48.520,-0.46,-0.23
23:41:48.524,-0.475,-0.255
23:41:48.528,-0.465,-0.245
23:41:48.532,-0.465,-0.26
23:41:48.536,-0.485,-0.27
23:41:48.540,-0.5,-0.305
23:41:48.544,-0.475,-0.325
23:41:48.548,-0.475,-0.31
23:41:48.552,-0.445,-0.32
23:41:48.556,-0.405,-0.365
23:41:48.560,-0.395,-0.345
23:41:48.564,-0.395,-0.35
23:41:48.568,-0.415,-0.375
23:41:48.572,-0.44,-0.375
23:41:48.576,-0.425,-0.39
23:41:48.580,-0.44,-0.38
23:41:48.584,-0.435,-0.385
23:41:48.588,-0.445,-0.415
23:41:48.592,-0.455,-0.44
23:41:48.596,-0.48,-0.42
23:41:48.600,-0.48,-0.415
23:41:48.604,-0.455,-0.41
23:41:48.608,-0.485,-0.42
23:41:48.612,-0.475,-0.44
23:41:48.616,-0.495,-0.45
23:41:48.620,-0.495,-0.445
23:41:48.624,-0.495,-0.44
23:41:48.628,-0.495,-0.455
23:41:48.632,-0.48,-0.465
23:41:48.636,-0.475,-0.47
23:41:48.640,-0.46,-0.51
23:41:48.644,-0.445,-0.495
23:41:48.648,-0.44,-0.525
23:41:48.652,-0.425,-0.525
23:41:48.656,-0.425,-0.515
23:41:48.660,-0.425,-0.525
23:41:48.664,-0.43,-0.53
23:41:48.668,-0.41,-0.53
23:41:48.672,-0.365,-0.53
23:41:48.676,-0.295,-0.495
23:41:48.680,-0.22,-0.495
23:41:48.684,-0.08,-0.5
23:41:48.688,0.005,-0.525
23:41:48.692,0.1,-0.58
23:41:48.696,0.18,-0.61
23:41:48.700,0.24,-0.57
23:41:48.704,0.27,-0.575
23:41:48.708,0.2,-0.555
23:41:48.712,0.16,-0.61
23:41:48.716,0.235,-0.69
23:41:48.720,0.51,-0.87
23:41:48.724,0.83,-1.125
23:41:48.728,1.05,-1.34
23:41:48.732,1.005,-1.44
23:41:48.736,0.63,-1.33
23:41:48.740,0.105,-1.02
23:41:48.744,-0.27,-0.755
23:41:48.748,-0.435,-0.605
23:41:48.752,-0.51,-0.51
23:41:48.756,-0.575,-0.435
23:41:48.760,-0.61,-0.4
23:41:48.764,-0.67,-0.365
23:41:48.768,-0.695,-0.385
23:41:48.772,-0.68,-0.425
23:41:48.776,-0.665,-0.44
23:41:48.780,-0.7,-0.47
23:41:48.784,-0.69,-0.48
23:41:48.788,-0.705,-0.5
23:41:48.792,-0.695,-0.515
23:41:48.796,-0.705,-0.49
23:41:48.800,-0.73,-0.505
23:41:48.804,-0.78,-0.52
23:41:48.808,-0.805,-0.5
23:41:48.812,-0.8,-0.48
23:41:48.816,-0.785,-0.48
23:41:48.820,-0.795,-0.485
23:41:48.824,-0.795,-0.475
23:41:48.828,-0.8,-0.48
23:41:48.832,-0.795,-0.485
23:41:48.836,-0.79,-0.495
23:41:48.840,-0.8,-0.48
23:41:48.844,-0.81,-0.495
23:41:48.848,-0.805,-0.49
23:41:48.852,-0.79,-0.51
23:41:48.856,-0.765,-0.49
23:41:48.860,-0.775,-0.465
23:41:48.864,-0.735,-0.495
23:41:48.868,-0.74,-0.48
23:41:48.872,-0.745,-0.51
23:41:48.876,-0.74,-0.485
23:41:48.880,-0.73,-0.495
23:41:48.884,-0.73,-0.475
23:41:48.888,-0.72,-0.465
23:41:48.892,-0.725,-0.46
23:41:48.896,-0.705,-0.445
23:41:48.900,-0.715,-0.46
23:41:48.904,-0.67,-0.45
23:41:48.908,-0.655,-0.455
23:41:48.912,-0.635,-0.435
23:41:48.916,-0.625,-0.455
23:41:48.920,-0.62,-0.435
23:41:48.924,-0.61,-0.42
23:41:48.928,-0.59,-0.4
23:41:48.932,-0.56,-0.4
23:41:48.936,-0.56,-0.405
23:41:48.940,-0.585,-0.4
23:41:48.944,-0.575,-0.375
23:41:48.948,-0.585,-0.39
23:41:48.952,-0.58,-0.365
23:41:48.956,-0.6,-0.4
23:41:48.960,-0.65,-0.42
23:41:48.964,-0.66,-0.41
23:41:48.968,-0.645,-0.43
23:41:48.972,-0.635,-0.445
23:41:48.976,-0.62,-0.43
23:41:48.980,-0.615,-0.435
23:41:48.984,-0.595,-0.445
23:41:48.988,-0.605,-0.455
23:41:48.992,-0.615,-0.46
23:41:48.996,-0.6,-0.44
23:41:49.000,-0.58,-0.455
23:41:49.004,-0.515,-0.475
23:41:49.008,-0.495,-0.49
23:41:49.012,-0.49,-0.475
23:41:49.016,-0.49,-0.47
23:41:49.020,-0.52,-0.46
23:41:49.024,-0.51,-0.44
23:41:49.028,-0.53,-0.445
23:41:49.032,-0.53,-0.435
23:41:49.036,-0.5,-0.42
23:41:49.040,-0.53,-0.42
23:41:49.044,-0.51,-0.405
23:41:49.048,-0.5,-0.415
23:41:49.052,-0.51,-0.41
23:41:49.056,-0.515,-0.42
23:41:49.060,-0.51,-0.41
23:41:49.064,-0.53,-0.405
23:41:49.068,-0.54,-0.39
23:41:49.072,-0.51,-0.41
23:41:49.076,-0.495,-0.4
23:41:49.080,-0.46,-0.405
23:41:49.084,-0.445,-0.38
23:41:49.088,-0.46,-0.375
23:41:49.092,-0.45,-0.385
23:41:49.096,-0.44,-0.375
23:41:49.100,-0.42,-0.365
23:41:49.104,-0.43,-0.375
23:41:49.108,-0.43,-0.36
23:41:49.112,-0.395,-0.35
23:41:49.116,-0.385,-0.33
23:41:49.120,-0.35,-0.35
23:41:49.124,-0.35,-0.29
23:41:49.128,-0.345,-0.285
23:41:49.132,-0.34,-0.27
23:41:49.136,-0.34,-0.28
23:41:49.140,-0.29,-0.28
23:41:49.144,-0.28,-0.26
23:41:49.148,-0.27,-0.27
23:41:49.152,-0.235,-0.24
23:41:49.156,-0.21,-0.245
23:41:49.160,-0.165,-0.235
23:41:49.164,-0.115,-0.245
23:41:49.168,-0.055,-0.265
23:41:49.172,0.02,-0.27
23:41:49.176,0.08,-0.29
23:41:49.180,0.11,-0.32
23:41:49.184,0.12,-0.35
23:41:49.188,0.095,-0.35
23:41:49.192,0.04,-0.35
23:41:49.196,-0.015,-0.395
23:41:49.200,0.05,-0.505
23:41:49.204,0.3,-0.69
23:41:49.208,0.63,-0.96
23:41:49.212,0.965,-1.24
23:41:49.216,1.14,-1.415
23:41:49.220,1.035,-1.385
23:41:49.224,0.61,-1.115
23:41:49.228,0.075,-0.73
23:41:49.232,-0.245,-0.485
23:41:49.236,-0.405,-0.335
23:41:49.240,-0.47,-0.25
23:41:49.244,-0.515,-0.19
23:41:49.248,-0.54,-0.18
23:41:49.252,-0.585,-0.17
23:41:49.256,-0.605,-0.175
23:41:49.260,-0.62,-0.19
23:41:49.264,-0.635,-0.205
23:41:49.268,-0.64,-0.225
23:41:49.272,-0.63,-0.215
23:41:49.276,-0.62,-0.235
23:41:49.280,-0.61,-0.245
23:41:49.284,-0.65,-0.215
23:41:49.288,-0.67,-0.24
23:41:49.292,-0.65,-0.23
23:41:49.296,-0.655,-0.23
23:41:49.300,-0.62,-0.205
23:41:49.304,-0.605,-0.23
23:41:49.308,-0.585,-0.24
23:41:49.312,-0.595,-0.225
23:41:49.316,-0.605,-0.215
23:41:49.320,-0.58,-0.215
23:41:49.324,-0.59,-0.215
23:41:49.328,-0.585,-0.21
23:41:49.332,-0.58,-0.185
23:41:49.336,-0.605,-0.165
23:41:49.340,-0.575,-0.16
23:41:49.344,-0.565,-0.14
23:41:49.348,-0.56,-0.145
23:41:49.352,-0.55,-0.14
23:41:49.356,-0.545,-0.14
23:41:49.360,-0.51,-0.12
23:41:49.364,-0.5,-0.12
23:41:49.368,-0.475,-0.11
23:41:49.372,-0.495,-0.11
23:41:49.376,-0.48,-0.12
23:41:49.380,-0.49,-0.1
23:41:49.384,-0.5,-0.115
23:41:49.388,-0.505,-0.13
23:41:49.392,-0.49,-0.115
23:41:49.396,-0.49,-0.135
23:41:49.400,-0.505,-0.135
23:41:49.404,-0.535,-0.14
23:41:49.408,-0.56,-0.16
23:41:49.412,-0.555,-0.16
23:41:49.416,-0.565,-0.175
23:41:49.420,-0.565,-0.19
23:41:49.424,-0.56,-0.2
23:41:49.428,-0.565,-0.225
23:41:49.432,-0.56,-0.22
23:41:49.436,-0.545,-0.24
23:41:49.440,-0.55,-0.235
23:41:49.444,-0.55,-0.235
23:41:49.448,-0.565,-0.24
23:41:49.452,-0.545,-0.245
23:41:49.456,-0.555,-0.27
23:41:49.460,-0.55,-0.295
23:41:49.464,-0.52,-0.32
23:41:49.468,-0.49,-0.32
23:41:49.472,-0.45,-0.355
23:41:49.476,-0.455,-0.35
23:41:49.480,-0.44,-0.335
23:41:49.484,-0.44,-0.36
23:41:49.488,-0.425,-0.35
23:41:49.492,-0.415,-0.355
23:41:49.496,-0.435,-0.36
23:41:49.500,-0.42,-0.37
23:41:49.504,-0.43,-0.35
23:41:49.508,-0.425,-0.355
23:41:49.512,-0.405,-0.37
23:41:49.516,-0.4,-0.365
23:41:49.520,-0.395,-0.365
23:41:49.524,-0.365,-0.35
23:41:49.528,-0.375,-0.355
23:41:49.532,-0.35,-0.33
23:41:49.536,-0.34,-0.335
23:41:49.540,-0.32,-0.33
23:41:49.544,-0.31,-0.305
23:41:49.548,-0.32,-0.305
23:41:49.552,-0.3,-0.28
23:41:49.556,-0.305,-0.265
23:41:49.560,-0.3,-0.245
23:41:49.564,-0.265,-0.255
23:41:49.568,-0.25,-0.24
23:41:49.572,-0.245,-0.235
23:41:49.576,-0.24,-0.205
23:41:49.580,-0.225,-0.215
23:41:49.584,-0.22,-0.21
23:41:49.588,-0.215,-0.2
23:41:49.592,-0.2,-0.17
23:41:49.596,-0.215,-0.18
23:41:49.600,-0.23,-0.175
23:41:49.604,-0.225,-0.18
23:41:49.608,-0.24,-0.185
23:41:49.612,-0.25,-0.185
23:41:49.616,-0.27,-0.185
23:41:49.620,-0.26,-0.195
23:41:49.624,-0.31,-0.2
23:41:49.628,-0.33,-0.24
23:41:49.632,-0.345,-0.225
23:41:49.636,-0.355,-0.23
23:41:49.640,-0.34,-0.225
23:41:49.644,-0.335,-0.24
23:41:49.648,-0.32,-0.26
23:41:49.652,-0.265,-0.28
23:41:49.656,-0.19,-0.29
23:41:49.660,-0.105,-0.29
23:41:49.664,-0.045,-0.305
23:41:49.668,0.005,-0.31
23:41:49.672,0.02,-0.36
23:41:49.676,0.025,-0.365
23:41:49.680,-0.02,-0.355
23:41:49.684,-0.07,-0.39
23:41:49.688,-0.07,-0.45
23:41:49.692,0.095,-0.59
23:41:49.696,0.405,-0.82
23:41:49.700,0.77,-1.115
23:41:49.704,1.085,-1.375
23:41:49.708,1.24,-1.525
23:41:49.712,1.05,-1.425
23:41:49.716,0.61,-1.075
23:41:49.720,0.15,-0.71
23:41:49.724,-0.16,-0.45
23:41:49.728,-0.295,-0.295
23:41:49.732,-0.375,-0.225
23:41:49.736,-0.4,-0.205
23:41:49.740,-0.415,-0.225
23:41:49.744,-0.435,-0.22
23:41:49.748,-0.43,-0.235
23:41:49.752,-0.43,-0.245
23:41:49.756,-0.42,-0.25
23:41:49.760,-0.435,-0.27
23:41:49.764,-0.42,-0.28
23:41:49.768,-0.45,-0.275
23:41:49.772,-0.445,-0.285
23:41:49.776,-0.445,-0.27
23:41:49.780,-0.44,-0.245
23:41:49.784,-0.43,-0.235
23:41:49.788,-0.415,-0.25
23:41:49.792,-0.4,-0.245
23:41:49.796,-0.4,-0.23
23:41:49.800,-0.41,-0.21
23:41:49.804,-0.405,-0.2
23:41:49.808,-0.4,-0.175
23:41:49.812,-0.4,-0.17
23:41:49.816,-0.4,-0.18
23:41:49.820,-0.41,-0.19
23:41:49.824,-0.4,-0.2
23:41:49.828,-0.425,-0.18
23:41:49.832,-0.46,-0.135
23:41:49.836,-0.465,-0.155
23:41:49.840,-0.48,-0.145
23:41:49.844,-0.52,-0.155
23:41:49.848,-0.535,-0.14
23:41:49.852,-0.57,-0.16
23:41:49.856,-0.58,-0.15
23:41:49.860,-0.585,-0.16
23:41:49.864,-0.615,-0.18
23:41:49.868,-0.61,-0.19
23:41:49.872,-0.62,-0.2
23:41:49.876,-0.62,-0.205
23:41:49.880,-0.585,-0.22
23:41:49.884,-0.595,-0.22
23:41:49.888,-0.565,-0.215
23:41:49.892,-0.575,-0.22
23:41:49.896,-0.545,-0.245
23:41:49.900,-0.56,-0.24
23:41:49.904,-0.55,-0.22
23:41:49.908,-0.565,-0.235
23:41:49.912,-0.56,-0.23
23:41:49.916,-0.515,-0.255
23:41:49.920,-0.52,-0.26
23:41:49.924,-0.495,-0.29
23:41:49.928,-0.46,-0.28
23:41:49.932,-0.445,-0.315
23:41:49.936,-0.4,-0.335
23:41:49.940,-0.425,-0.34
23:41:49.944,-0.41,-0.34
23:41:49.948,-0.38,-0.355
23:41:49.952,-0.355,-0.345
23:41:49.956,-0.33,-0.36
23:41:49.960,-0.32,-0.37
23:41:49.964,-0.3,-0.355
23:41:49.968,-0.265,-0.365
23:41:49.972,-0.235,-0.35
23:41:49.976,-0.2,-0.35
23:41:49.980,-0.21,-0.345
23:41:49.984,-0.18,-0.345
23:41:49.988,-0.195,-0.305
23:41:49.992,-0.175,-0.3
23:41:49.996,-0.16,-0.285
23:41:50.000,-0.15,-0.27
23:41:50.004,-0.13,-0.25
23:41:50.008,-0.11,-0.25
23:41:50.012,-0.105,-0.24
23:41:50.016,-0.095,-0.235
23:41:50.020,-0.08,-0.225
23:41:50.024,-0.075,-0.215
23:41:50.028,-0.105,-0.2
23:41:50.032,-0.1,-0.2
23:41:50.036,-0.12,-0.18
23:41:50.040,-0.125,-0.165
23:41:50.044,-0.14,-0.205
23:41:50.048,-0.15,-0.225
23:41:50.052,-0.17,-0.17
23:41:50.056,-0.16,-0.18
23:41:50.060,-0.11,-0.17
23:41:50.064,-0.075,-0.17
23:41:50.068,-0.055,-0.205
23:41:50.072,-0.015,-0.21
23:41:50.076,0.0,-0.235
23:41:50.080,-0.01,-0.26
23:41:50.084,-0.04,-0.28
23:41:50.088,-0.09,-0.275
23:41:50.092,-0.155,-0.3
23:41:50.096,-0.125,-0.345
23:41:50.100,0.11,-0.455
23:41:50.104,0.435,-0.655
23:41:50.108,0.805,-0.945
23:41:50.112,1.095,-1.22
23:41:50.116,1.18,-1.355
23:41:50.120,0.99,-1.24
23:41:50.124,0.545,-0.87
23:41:50.128,0.115,-0.485
23:41:50.132,-0.12,-0.23
23:41:50.136,-0.24,-0.105
23:41:50.140,-0.305,-0.07
23:41:50.144,-0.33,-0.095
23:41:50.148,-0.385,-0.11
23:41:50.152,-0.4,-0.12
23:41:50.156,-0.42,-0.155
23:41:50.160,-0.415,-0.155
23:41:50.164,-0.435,-0.195
23:41:50.168,-0.43,-0.22
23:41:50.172,-0.405,-0.25
23:41:50.176,-0.415,-0.265
23:41:50.180,-0.42,-0.28
23:41:50.184,-0.39,-0.26
23:41:50.188,-0.4,-0.26
23:41:50.192,-0.38,-0.29
23:41:50.196,-0.37,-0.295
23:41:50.200,-0.36,-0.295
23:41:50.204,-0.355,-0.275
23:41:50.208,-0.355,-0.285
23:41:50.212,-0.335,-0.28
23:41:50.216,-0.3,-0.25
23:41:50.220,-0.3,-0.245
23:41:50.224,-0.295,-0.235
23:41:50.228,-0.305,-0.21
23:41:50.232,-0.3,-0.235
23:41:50.236,-0.29,-0.215
23:41:50.240,-0.305,-0.24
23:41:50.244,-0.285,-0.23
23:41:50.248,-0.27,-0.215
23:41:50.252,-0.265,-0.225
23:41:50.256,-0.26,-0.225
23:41:50.260,-0.255,-0.24
23:41:50.264,-0.245,-0.22
23:41:50.268,-0.265,-0.215
23:41:50.272,-0.26,-0.2
23:41:50.276,-0.295,-0.19
23:41:50.280,-0.315,-0.2
23:41:50.284,-0.355,-0.2
23:41:50.288,-0.39,-0.205
23:41:50.292,-0.415,-0.195
23:41:50.296,-0.445,-0.2
23:41:50.300,-0.475,-0.2
23:41:50.304,-0.465,-0.21
23:41:50.308,-0.485,-0.245
23:41:50.312,-0.5,-0.215
23:41:50.316,-0.465,-0.24
23:41:50.320,-0.455,-0.25
23:41:50.324,-0.44,-0.255
23:41:50.328,-0.445,-0.245
23:41:50.332,-0.44,-0.24
23:41:50.336,-0.415,-0.255
23:41:50.340,-0.39,-0.285
23:41:50.344,-0.385,-0.275
23:41:50.348,-0.375,-0.29
23:41:50.352,-0.37,-0.26
23:41:50.356,-0.35,-0.29
23:41:50.360,-0.365,-0.29
23:41:50.364,-0.325,-0.285
23:41:50.368,-0.32,-0.3
23:41:50.372,-0.32,-0.32
23:41:50.376,-0.315,-0.33
23:41:50.380,-0.29,-0.325
23:41:50.384,-0.27,-0.33
23:41:50.388,-0.265,-0.345
23:41:50.392,-0.25,-0.355
23:41:50.396,-0.255,-0.38
23:41:50.400,-0.245,-0.36
23:41:50.404,-0.235,-0.37
23:41:50.408,-0.22,-0.375
23:41:50.412,-0.21,-0.36
23:41:50.416,-0.185,-0.36
23:41:50.420,-0.18,-0.365
23:41:50.424,-0.155,-0.36
23:41:50.428,-0.135,-0.36
23:41:50.432,-0.135,-0.345
23:41:50.436,-0.115,-0.345
23:41:50.440,-0.11,-0.36
23:41:50.444,-0.11,-0.345
23:41:50.448,-0.1,-0.34
23:41:50.452,-0.1,-0.35
23:41:50.456,-0.07,-0.355
23:41:50.460,-0.055,-0.355
23:41:50.464,-0.06,-0.355
23:41:50.468,-0.06,-0.35
23:41:50.472,-0.04,-0.345
23:41:50.476,-0.065,-0.345
23:41:50.480,-0.03,-0.35
23:41:50.484,0.0,-0.36
23:41:50.488,-0.005,-0.33
23:41:50.492,0.025,-0.36
23:41:50.496,0.005,-0.37
23:41:50.500,0.025,-0.355
23:41:50.504,0.025,-0.355
23:41:50.508,0.045,-0.34
23:41:50.512,0.08,-0.35
23:41:50.516,0.165,-0.34
23:41:50.520,0.215,-0.39
23:41:50.524,0.22,-0.41
23:41:50.528,0.23,-0.43
23:41:50.532,0.225,-0.4
23:41:50.536,0.22,-0.38
23:41:50.540,0.16,-0.425
23:41:50.544,0.175,-0.465
23:41:50.548,0.41,-0.595
23:41:50.552,0.75,-0.895
23:41:50.556,1.05,-1.175
23:41:50.560,1.22,-1.385
23:41:50.564,1.12,-1.39
23:41:50.568,0.715,-1.145
23:41:50.572,0.25,-0.815
23:41:50.576,-0.04,-0.53
23:41:50.580,-0.19,-0.355
23:41:50.584,-0.26,-0.3
23:41:50.588,-0.3,-0.255
23:41:50.592,-0.335,-0.265
23:41:50.596,-0.38,-0.305
23:41:50.600,-0.4,-0.335
23:41:50.604,-0.41,-0.325
23:41:50.608,-0.44,-0.41
23:41:50.612,-0.43,-0.425
23:41:50.616,-0.425,-0.445
23:41:50.620,-0.42,-0.445
23:41:50.624,-0.405,-0.445
23:41:50.628,-0.4,-0.475
23:41:50.632,-0.415,-0.475
23:41:50.636,-0.415,-0.485
23:41:50.640,-0.38,-0.475
23:41:50.644,-0.355,-0.475
23:41:50.648,-0.345,-0.445
23:41:50.652,-0.315,-0.48
23:41:50.656,-0.305,-0.47
23:41:50.660,-0.29,-0.45
23:41:50.664,-0.315,-0.48
23:41:50.668,-0.3,-0.465
23:41:50.672,-0.31,-0.44
23:41:50.676,-0.285,-0.44
23:41:50.680,-0.32,-0.445
23:41:50.684,-0.295,-0.48
23:41:50.688,-0.28,-0.48
23:41:50.692,-0.31,-0.475
23:41:50.696,-0.3,-0.475
23:41:50.700,-0.28,-0.47
23:41:50.704,-0.265,-0.48
23:41:50.708,-0.24,-0.45
23:41:50.712,-0.23,-0.47
23:41:50.716,-0.275,-0.48
23:41:50.720,-0.28,-0.465
23:41:50.724,-0.27,-0.46
23:41:50.728,-0.26,-0.475
23:41:50.732,-0.285,-0.465
23:41:50.736,-0.32,-0.455
23:41:50.740,-0.34,-0.455
23:41:50.744,-0.36,-0.48
23:41:50.748,-0.37,-0.47
23:41:50.752,-0.39,-0.45
23:41:50.756,-0.335,-0.47
23:41:50.760,-0.345,-0.48
23:41:50.764,-0.32,-0.5
23:41:50.768,-0.335,-0.52
23:41:50.772,-0.34,-0.51
23:41:50.776,-0.34,-0.515
23:41:50.780,-0.335,-0.52
23:41:50.784,-0.315,-0.56
23:41:50.788,-0.315,-0.54
23:41:50.792,-0.28,-0.545
23:41:50.796,-0.295,-0.535
23:41:50.800,-0.3,-0.565
23:41:50.804,-0.32,-0.57
23:41:50.808,-0.325,-0.595
23:41:50.812,-0.33,-0.6
23:41:50.816,-0.335,-0.6
23:41:50.820,-0.28,-0.605
23:41:50.824,-0.26,-0.625
23:41:50.828,-0.26,-0.645
23:41:50.832,-0.265,-0.645
23:41:50.836,-0.28,-0.665
23:41:50.840,-0.265,-0.66
23:41:50.844,-0.235,-0.67
23:41:50.848,-0.21,-0.665
23:41:50.852,-0.215,-0.65
23:41:50.856,-0.225,-0.65
23:41:50.860,-0.205,-0.64
23:41:50.864,-0.195,-0.625
23:41:50.868,-0.125,-0.63
23:41:50.872,-0.12,-0.62
23:41:50.876,-0.12,-0.635
23:41:50.880,-0.115,-0.63
23:41:50.884,-0.1,-0.6
23:41:50.888,-0.08,-0.62
23:41:50.892,-0.065,-0.595
23:41:50.896,-0.08,-0.61
23:41:50.900,-0.07,-0.615
23:41:50.904,-0.075,-0.62
23:41:50.908,-0.08,-0.605
23:41:50.912,-0.055,-0.59
23:41:50.916,-0.03,-0.605
23:41:50.920,-0.025,-0.61
23:41:50.924,-0.02,-0.615
23:41:50.928,-0.005,-0.625
23:41:50.932,-0.025,-0.62
23:41:50.936,-0.04,-0.615
23:41:50.940,-0.065,-0.62
23:41:50.944,-0.06,-0.605
23:41:50.948,-0.075,-0.615
23:41:50.952,-0.06,-0.6
23:41:50.956,-0.06,-0.61
23:41:50.960,-0.1,-0.605
23:41:50.964,-0.115,-0.61
23:41:50.968,-0.14,-0.61
23:41:50.972,-0.185,-0.615
23:41:50.976,-0.16,-0.63
23:41:50.980,-0.17,-0.635
23:41:50.984,-0.185,-0.63
23:41:50.988,-0.16,-0.64
23:41:50.992,-0.14,-0.635
23:41:50.996,-0.135,-0.63
23:41:51.000,-0.14,-0.635
23:41:51.004,-0.14,-0.615
23:41:51.008,-0.14,-0.635
23:41:51.012,-0.12,-0.64
23:41:51.016,-0.115,-0.645
23:41:51.020,-0.075,-0.635
23:41:51.024,0.0,-0.65
23:41:51.028,0.06,-0.68
23:41:51.032,0.15,-0.715
23:41:51.036,0.26,-0.725
23:41:51.040,0.335,-0.795
23:41:51.044,0.39,-0.835
23:41:51.048,0.44,-0.815
23:41:51.052,0.425,-0.83
23:41:51.056,0.38,-0.84
23:41:51.060,0.395,-0.905
23:41:51.064,0.59,-1.015
23:41:51.068,0.915,-1.245
23:41:51.072,1.225,-1.515
23:41:51.076,1.37,-1.74
23:41:51.080,1.21,-1.755
23:41:51.084,0.815,-1.55
23:41:51.088,0.35,-1.245
23:41:51.092,0.085,-0.95
23:41:51.096,-0.025,-0.84
23:41:51.100,-0.05,-0.765
23:41:51.104,-0.08,-0.695
23:41:51.108,-0.1,-0.64
23:41:51.112,-0.155,-0.64
23:41:51.116,-0.175,-0.66
23:41:51.120,-0.21,-0.675
23:41:51.124,-0.23,-0.67
23:41:51.128,-0.23,-0.71
23:41:51.132,-0.25,-0.75
23:41:51.136,-0.265,-0.74
23:41:51.140,-0.28,-0.72
23:41:51.144,-0.265,-0.72
23:41:51.148,-0.245,-0.745
23:41:51.152,-0.25,-0.755
23:41:51.156,-0.24,-0.735
23:41:51.160,-0.24,-0.725
23:41:51.164,-0.27,-0.7
23:41:51.168,-0.255,-0.725
23:41:51.172,-0.275,-0.705
23:41:51.176,-0.305,-0.69
23:41:51.180,-0.37,-0.705
23:41:51.184,-0.39,-0.705
23:41:51.188,-0.425,-0.69
23:41:51.192,-0.41,-0.705
23:41:51.196,-0.42,-0.71
23:41:51.200,-0.43,-0.71
23:41:51.204,-0.455,-0.72
23:41:51.208,-0.46,-0.715
23:41:51.212,-0.44,-0.705
23:41:51.216,-0.44,-0.725
23:41:51.220,-0.44,-0.705
23:41:51.224,-0.435,-0.705
23:41:51.228,-0.42,-0.7
23:41:51.232,-0.405,-0.68
23:41:51.236,-0.415,-0.695
23:41:51.240,-0.435,-0.69
23:41:51.244,-0.445,-0.715
23:41:51.248,-0.445,-0.71
23:41:51.252,-0.44,-0.685
23:41:51.256,-0.43,-0.725
23:41:51.260,-0.425,-0.73
23:41:51.264,-0.4,-0.75
23:41:51.268,-0.41,-0.775
23:41:51.272,-0.395,-0.755
23:41:51.276,-0.38,-0.75
23:41:51.280,-0.385,-0.75
23:41:51.284,-0.365,-0.765
23:41:51.288,-0.375,-0.77
23:41:51.292,-0.35,-0.79
23:41:51.296,-0.335,-0.795
23:41:51.300,-0.295,-0.79
23:41:51.304,-0.275,-0.79
23:41:51.308,-0.25,-0.8
23:41:51.312,-0.23,-0.805
23:41:51.316,-0.22,-0.79
23:41:51.320,-0.175,-0.775
23:41:51.324,-0.175,-0.75
23:41:51.328,-0.15,-0.745
23:41:51.332,-0.12,-0.755
23:41:51.336,-0.1,-0.735
23:41:51.340,-0.1,-0.755
23:41:51.344,-0.08,-0.715
23:41:51.348,-0.09,-0.72
23:41:51.352,-0.095,-0.705
23:41:51.356,-0.095,-0.695
23:41:51.360,-0.09,-0.705
23:41:51.364,-0.08,-0.695
23:41:51.368,-0.085,-0.695
23:41:51.372,-0.075,-0.705
23:41:51.376,-0.075,-0.695
23:41:51.380,-0.075,-0.67
23:41:51.384,-0.11,-0.675
23:41:51.388,-0.115,-0.65
23:41:51.392,-0.115,-0.665
23:41:51.396,-0.14,-0.645
23:41:51.400,-0.17,-0.64
23:41:51.404,-0.195,-0.615
23:41:51.408,-0.185,-0.61
23:41:51.412,-0.195,-0.6
23:41:51.416,-0.19,-0.6
23:41:51.420,-0.21,-0.62
23:41:51.424,-0.225,-0.61
23:41:51.428,-0.23,-0.59
23:41:51.432,-0.24,-0.59
23:41:51.436,-0.24,-0.595
23:41:51.440,-0.245,-0.62
23:41:51.444,-0.25,-0.605
23:41:51.448,-0.245,-0.61
23:41:51.452,-0.25,-0.6
23:41:51.456,-0.26,-0.585
23:41:51.460,-0.28,-0.56
23:41:51.464,-0.28,-0.56
23:41:51.468,-0.295,-0.565
23:41:51.472,-0.285,-0.57
23:41:51.476,-0.27,-0.58
23:41:51.480,-0.275,-0.58
23:41:51.484,-0.265,-0.565
23:41:51.488,-0.26,-0.575
23:41:51.492,-0.27,-0.595
23:41:51.496,-0.255,-0.585
23:41:51.500,-0.245,-0.57
23:41:51.504,-0.26,-0.57
23:41:51.508,-0.245,-0.58
23:41:51.512,-0.225,-0.6
23:41:51.516,-0.24,-0.58
23:41:51.520,-0.22,-0.6
23:41:51.524,-0.175,-0.595
23:41:51.528,-0.21,-0.605
23:41:51.532,-0.205,-0.61
23:41:51.536,-0.18,-0.615
23:41:51.540,-0.18,-0.6
23:41:51.544,-0.16,-0.575
23:41:51.548,-0.16,-0.56
23:41:51.552,-0.145,-0.555
23:41:51.556,-0.12,-0.55
23:41:51.560,-0.145,-0.54
23:41:51.564,-0.12,-0.53
23:41:51.568,-0.12,-0.55
23:41:51.572,-0.12,-0.52
23:41:51.576,-0.12,-0.52
23:41:51.580,-0.09,-0.515
23:41:51.584,-0.085,-0.53
23:41:51.588,-0.08,-0.525
23:41:51.592,-0.06,-0.515
23:41:51.596,-0.07,-0.49
23:41:51.600,-0.08,-0.475
23:41:51.604,-0.085,-0.5
23:41:51.608,-0.105,-0.485
23:41:51.612,-0.12,-0.475
23:41:51.616,-0.135,-0.47
23:41:51.620,-0.15,-0.47
23:41:51.624,-0.18,-0.465
23:41:51.628,-0.185,-0.49
23:41:51.632,-0.21,-0.46
23:41:51.636,-0.21,-0.44
23:41:51.640,-0.225,-0.465
23:41:51.644,-0.205,-0.465
23:41:51.648,-0.2,-0.46
23:41:51.652,-0.205,-0.465
23:41:51.656,-0.22,-0.47
23:41:51.660,-0.215,-0.48
23:41:51.664,-0.21,-0.465
23:41:51.668,-0.205,-0.45
23:41:51.672,-0.23,-0.465
23:41:51.676,-0.245,-0.45
23:41:51.680,-0.22,-0.45
23:41:51.684,-0.255,-0.435
23:41:51.688,-0.26,-0.46
23:41:51.692,-0.265,-0.44
23:41:51.696,-0.26,-0.45
23:41:51.700,-0.26,-0.445
23:41:51.704,-0.265,-0.405
23:41:51.708,-0.26,-0.435
23:41:51.712,-0.265,-0.42
23:41:51.716,-0.26,-0.41
23:41:51.720,-0.26,-0.405
23:41:51.724,-0.275,-0.39
23:41:51.728,-0.29,-0.385
23:41:51.732,-0.265,-0.38
23:41:51.736,-0.225,-0.375
23:41:51.740,-0.2,-0.39
23:41:51.744,-0.19,-0.39
23:41:51.748,-0.205,-0.4
23:41:51.752,-0.205,-0.39
23:41:51.756,-0.195,-0.395
23:41:51.760,-0.175,-0.39
23:41:51.764,-0.16,-0.39
23:41:51.768,-0.18,-0.375
23:41:51.772,-0.19,-0.39
23:41:51.776,-0.15,-0.375
23:41:51.780,-0.16,-0.36
23:41:51.784,-0.155,-0.355
23:41:51.788,-0.17,-0.36
23:41:51.792,-0.16,-0.37
23:41:51.796,-0.15,-0.345
23:41:51.800,-0.12,-0.36
23:41:51.804,-0.115,-0.375
23:41:51.808,-0.095,-0.375
23:41:51.812,-0.07,-0.35
23:41:51.816,-0.055,-0.355
23:41:51.820,-0.05,-0.355
23:41:51.824,-0.04,-0.35
23:41:51.828,0.0,-0.315
23:41:51.832,0.035,-0.335
23:41:51.836,0.095,-0.32
23:41:51.840,0.165,-0.32
23:41:51.844,0.275,-0.35
23:41:51.848,0.32,-0.37
23:41:51.852,0.31,-0.375
23:41:51.856,0.31,-0.38
23:41:51.860,0.295,-0.35
23:41:51.864,0.265,-0.34
23:41:51.868,0.205,-0.42
23:41:51.872,0.275,-0.51
23:41:51.876,0.53,-0.7
23:41:51.880,0.845,-0.95
23:41:51.884,1.195,-1.25
23:41:51.888,1.395,-1.415
23:41:51.892,1.36,-1.4
23:41:51.896,1.015,-1.15
23:41:51.900,0.45,-0.79
23:41:51.904,0.065,-0.465
23:41:51.908,-0.115,-0.3
23:41:51.912,-0.21,-0.225
23:41:51.916,-0.28,-0.155
23:41:51.920,-0.3,-0.155
23:41:51.924,-0.34,-0.16
23:41:51.928,-0.345,-0.155
23:41:51.932,-0.37,-0.15
23:41:51.936,-0.375,-0.16
23:41:51.940,-0.385,-0.2
23:41:51.944,-0.385,-0.195
23:41:51.948,-0.405,-0.18
23:41:51.952,-0.38,-0.195
23:41:51.956,-0.375,-0.185
23:41:51.960,-0.375,-0.18
23:41:51.964,-0.35,-0.17
23:41:51.968,-0.36,-0.18
23:41:51.972,-0.35,-0.19
23:41:51.976,-0.35,-0.195
23:41:51.980,-0.375,-0.18
23:41:51.984,-0.37,-0.195
23:41:51.988,-0.38,-0.2
23:41:51.992,-0.38,-0.21
23:41:51.996,-0.385,-0.22
23:41:52.000,-0.39,-0.19
23:41:52.004,-0.395,-0.22
23:41:52.008,-0.41,-0.22
23:41:52.012,-0.415,-0.22
23:41:52.016,-0.42,-0.21
23:41:52.020,-0.39,-0.225
23:41:52.024,-0.395,-0.21
23:41:52.028,-0.37,-0.215
23:41:52.032,-0.35,-0.215
23:41:52.036,-0.31,-0.215
23:41:52.040,-0.285,-0.205
23:41:52.044,-0.3,-0.2
23:41:52.048,-0.305,-0.195
23:41:52.052,-0.305,-0.19
23:41:52.056,-0.315,-0.195
23:41:52.060,-0.32,-0.165
23:41:52.064,-0.33,-0.17
23:41:52.068,-0.325,-0.17
23:41:52.072,-0.33,-0.155
23:41:52.076,-0.36,-0.15
23:41:52.080,-0.37,-0.13
23:41:52.084,-0.375,-0.14
23:41:52.088,-0.375,-0.16
23:41:52.092,-0.36,-0.16
23:41:52.096,-0.36,-0.17
23:41:52.100,-0.35,-0.16
23:41:52.104,-0.335,-0.185
23:41:52.108,-0.315,-0.195
23:41:52.112,-0.34,-0.23
23:41:52.116,-0.33,-0.215
23:41:52.120,-0.325,-0.215
23:41:52.124,-0.325,-0.225
23:41:52.128,-0.33,-0.25
23:41:52.132,-0.305,-0.255
23:41:52.136,-0.28,-0.28
23:41:52.140,-0.265,-0.285
23:41:52.144,-0.27,-0.285
23:41:52.148,-0.245,-0.285
23:41:52.152,-0.275,-0.285
23:41:52.156,-0.27,-0.285
23:41:52.160,-0.25,-0.26
23:41:52.164,-0.23,-0.26
23:41:52.168,-0.18,-0.235
23:41:52.172,-0.15,-0.24
23:41:52.176,-0.11,-0.22
23:41:52.180,-0.09,-0.2
23:41:52.184,-0.085,-0.205
23:41:52.188,-0.07,-0.17
23:41:52.192,-0.07,-0.155
23:41:52.196,-0.06,-0.165
23:41:52.200,-0.035,-0.17
23:41:52.204,-0.06,-0.17
23:41:52.208,-0.07,-0.145
23:41:52.212,-0.065,-0.15
23:41:52.216,-0.09,-0.13
23:41:52.220,-0.08,-0.15
23:41:52.224,-0.09,-0.16
23:41:52.228,-0.1,-0.145
23:41:52.232,-0.105,-0.135
23:41:52.236,-0.105,-0.125
23:41:52.240,-0.1,-0.155
23:41:52.244,-0.115,-0.155
23:41:52.248,-0.1,-0.17
23:41:52.252,-0.09,-0.17
23:41:52.256,-0.09,-0.14
23:41:52.260,-0.08,-0.155
23:41:52.264,-0.05,-0.15
23:41:52.268,-0.045,-0.16
23:41:52.272,-0.04,-0.145
23:41:52.276,-0.03,-0.135
23:41:52.280,-0.01,-0.15
23:41:52.284,-0.04,-0.125
23:41:52.288,-0.05,-0.125
23:41:52.292,-0.09,-0.12
23:41:52.296,-0.095,-0.12
23:41:52.300,-0.095,-0.1
23:41:52.304,-0.11,-0.1
23:41:52.308,-0.115,-0.085
23:41:52.312,-0.1,-0.1
23:41:52.316,-0.11,-0.105
23:41:52.320,-0.125,-0.13
23:41:52.324,-0.12,-0.135
23:41:52.328,-0.145,-0.135
23:41:52.332,-0.13,-0.16
23:41:52.336,-0.135,-0.16
23:41:52.340,-0.14,-0.155
23:41:52.344,-0.145,-0.16
23:41:52.348,-0.15,-0.16
23:41:52.352,-0.145,-0.175
23:41:52.356,-0.145,-0.17
23:41:52.360,-0.155,-0.185
23:41:52.364,-0.13,-0.17
23:41:52.368,-0.155,-0.16
23:41:52.372,-0.15,-0.145
23:41:52.376,-0.15,-0.15
23:41:52.380,-0.15,-0.145
23:41:52.384,-0.15,-0.15
23:41:52.388,-0.165,-0.15
23:41:52.392,-0.15,-0.145
23:41:52.396,-0.115,-0.135
23:41:52.400,-0.085,-0.13
23:41:52.404,-0.04,-0.155
23:41:52.408,0.025,-0.13
23:41:52.412,0.13,-0.115
23:41:52.416,0.215,-0.12
23:41:52.420,0.28,-0.15
23:41:52.424,0.315,-0.18
23:41:52.428,0.355,-0.22
23:41:52.432,0.31,-0.185
23:41:52.436,0.245,-0.21
23:41:52.440,0.215,-0.265
23:41:52.444,0.365,-0.395
23:41:52.448,0.635,-0.585
23:41:52.452,0.97,-0.9
23:41:52.456,1.27,-1.19
23:41:52.460,1.4,-1.305
23:41:52.464,1.24,-1.225
23:41:52.468,0.775,-0.93
23:41:52.472,0.325,-0.53
23:41:52.476,0.08,-0.255
23:41:52.480,-0.055,-0.09
23:41:52.484,-0.15,0.0
23:41:52.488,-0.17,0.01
23:41:52.492,-0.19,-0.025
23:41:52.496,-0.19,0.0
23:41:52.500,-0.23,-0.02
23:41:52.504,-0.24,-0.04
23:41:52.508,-0.285,-0.06
23:41:52.512,-0.3,-0.08
23:41:52.516,-0.33,-0.1
23:41:52.520,-0.33,-0.11
23:41:52.524,-0.345,-0.11
23:41:52.528,-0.36,-0.08
23:41:52.532,-0.335,-0.09
23:41:52.536,-0.34,-0.095
23:41:52.540,-0.345,-0.085
23:41:52.544,-0.36,-0.07
23:41:52.548,-0.355,-0.065
23:41:52.552,-0.37,-0.075
23:41:52.556,-0.375,-0.095
23:41:52.560,-0.385,-0.09
23:41:52.564,-0.395,-0.09
23:41:52.568,-0.39,-0.095
23:41:52.572,-0.405,-0.095
23:41:52.576,-0.37,-0.085
23:41:52.580,-0.395,-0.1
23:41:52.584,-0.405,-0.095
23:41:52.588,-0.39,-0.095
23:41:52.592,-0.415,-0.075
23:41:52.596,-0.415,-0.075
23:41:52.600,-0.405,-0.07
23:41:52.604,-0.415,-0.08
23:41:52.608,-0.425,-0.1
23:41:52.612,-0.415,-0.075
23:41:52.616,-0.42,-0.07
23:41:52.620,-0.41,-0.07
23:41:52.624,-0.415,-0.06
23:41:52.628,-0.385,-0.055
23:41:52.632,-0.36,-0.06
23:41:52.636,-0.33,-0.065
23:41:52.640,-0.32,-0.055
23:41:52.644,-0.3,-0.045
23:41:52.648,-0.285,-0.05
23:41:52.652,-0.27,-0.06
23:41:52.656,-0.26,-0.075
23:41:52.660,-0.26,-0.095
23:41:52.664,-0.265,-0.075
23:41:52.668,-0.26,-0.08
23:41:52.672,-0.24,-0.08
23:41:52.676,-0.22,-0.095
23:41:52.680,-0.23,-0.115
23:41:52.684,-0.23,-0.13
23:41:52.688,-0.21,-0.115
23:41:52.692,-0.235,-0.11
23:41:52.696,-0.225,-0.125
23:41:52.700,-0.195,-0.155
23:41:52.704,-0.17,-0.14
23:41:52.708,-0.16,-0.14
23:41:52.712,-0.165,-0.14
23:41:52.716,-0.14,-0.145
23:41:52.720,-0.105,-0.155
23:41:52.724,-0.075,-0.145
23:41:52.728,-0.06,-0.135
23:41:52.732,-0.08,-0.1
23:41:52.736,-0.095,-0.11
23:41:52.740,-0.095,-0.13
23:41:52.744,-0.095,-0.1
23:41:52.748,-0.1,-0.105
23:41:52.752,-0.13,-0.105
23:41:52.756,-0.12,-0.07
23:41:52.760,-0.14,-0.07
23:41:52.764,-0.13,-0.07
23:41:52.768,-0.14,-0.105
23:41:52.772,-0.165,-0.1
23:41:52.776,-0.14,-0.08
23:41:52.780,-0.145,-0.105
23:41:52.784,-0.145,-0.135
23:41:52.788,-0.15,-0.12
23:41:52.792,-0.16,-0.15
23:41:52.796,-0.16,-0.165
23:41:52.800,-0.18,-0.16
23:41:52.804,-0.145,-0.16
23:41:52.808,-0.165,-0.17
23:41:52.812,-0.155,-0.165
23:41:52.816,-0.12,-0.185
23:41:52.820,-0.04,-0.16
23:41:52.824,0.035,-0.175
23:41:52.828,0.115,-0.195
23:41:52.832,0.195,-0.21
23:41:52.836,0.24,-0.25
23:41:52.840,0.22,-0.25
23:41:52.844,0.22,-0.205
23:41:52.848,0.145,-0.215
23:41:52.852,0.115,-0.215
23:41:52.856,0.23,-0.28
23:41:52.860,0.52,-0.44
23:41:52.864,0.865,-0.72
23:41:52.868,1.18,-1.015
23:41:52.872,1.31,-1.195
23:41:52.876,1.18,-1.165
23:41:52.880,0.8,-0.91
23:41:52.884,0.38,-0.52
23:41:52.888,0.14,-0.2
23:41:52.892,0.02,-0.035
23:41:52.896,-0.05,0.0
23:41:52.900,-0.1,0.005
23:41:52.904,-0.135,0.0
23:41:52.908,-0.17,-0.01
23:41:52.912,-0.185,-0.05
23:41:52.916,-0.215,-0.055
23:41:52.920,-0.255,-0.09
23:41:52.924,-0.255,-0.12
23:41:52.928,-0.23,-0.16
23:41:52.932,-0.2,-0.16
23:41:52.936,-0.195,-0.165
23:41:52.940,-0.23,-0.16
23:41:52.944,-0.22,-0.17
23:41:52.948,-0.2,-0.165
23:41:52.952,-0.2,-0.16
23:41:52.956,-0.21,-0.165
23:41:52.960,-0.21,-0.18
23:41:52.964,-0.22,-0.18
23:41:52.968,-0.22,-0.175
23:41:52.972,-0.235,-0.18
23:41:52.976,-0.28,-0.195
23:41:52.980,-0.295,-0.19
23:41:52.984,-0.305,-0.17
23:41:52.988,-0.32,-0.145
23:41:52.992,-0.32,-0.16
23:41:52.996,-0.3,-0.18
23:41:53.000,-0.305,-0.19
23:41:53.004,-0.31,-0.21
23:41:53.008,-0.32,-0.205
23:41:53.012,-0.305,-0.22
23:41:53.016,-0.3,-0.23
23:41:53.020,-0.31,-0.23
23:41:53.024,-0.3,-0.26
23:41:53.028,-0.305,-0.255
23:41:53.032,-0.32,-0.26
23:41:53.036,-0.34,-0.25
23:41:53.040,-0.32,-0.24
23:41:53.044,-0.31,-0.25
23:41:53.048,-0.3,-0.235
23:41:53.052,-0.3,-0.255
23:41:53.056,-0.3,-0.27
23:41:53.060,-0.31,-0.265
23:41:53.064,-0.315,-0.27
23:41:53.068,-0.295,-0.255
23:41:53.072,-0.315,-0.275
23:41:53.076,-0.29,-0.26
23:41:53.080,-0.29,-0.27
23:41:53.084,-0.305,-0.275
23:41:53.088,-0.315,-0.295
23:41:53.092,-0.275,-0.305
23:41:53.096,-0.26,-0.3
23:41:53.100,-0.245,-0.29
23:41:53.104,-0.235,-0.315
23:41:53.108,-0.195,-0.32
23:41:53.112,-0.155,-0.32
23:41:53.116,-0.125,-0.32
23:41:53.120,-0.13,-0.32
23:41:53.124,-0.135,-0.325
23:41:53.128,-0.105,-0.3
23:41:53.132,-0.095,-0.3
23:41:53.136,-0.07,-0.295
23:41:53.140,-0.06,-0.31
23:41:53.144,-0.05,-0.32
23:41:53.148,-0.02,-0.305
23:41:53.152,-0.01,-0.325
23:41:53.156,-0.02,-0.31
23:41:53.160,-0.03,-0.33
23:41:53.164,-0.035,-0.32
23:41:53.168,-0.025,-0.32
23:41:53.172,-0.025,-0.315
23:41:53.176,-0.015,-0.3
23:41:53.180,0.0,-0.3
23:41:53.184,0.0,-0.32
23:41:53.188,-0.015,-0.31
23:41:53.192,-0.015,-0.32
23:41:53.196,-0.02,-0.305
23:41:53.200,-0.01,-0.31
23:41:53.204,-0.02,-0.32
23:41:53.208,-0.035,-0.35
23:41:53.212,-0.06,-0.345
23:41:53.216,-0.065,-0.355
23:41:53.220,-0.07,-0.345
23:41:53.224,-0.08,-0.34
23:41:53.228,-0.07,-0.335
23:41:53.232,-0.035,-0.345
23:41:53.236,-0.055,-0.355
23:41:53.240,-0.065,-0.38
23:41:53.244,-0.06,-0.385
23:41:53.248,-0.06,-0.38
23:41:53.252,-0.055,-0.4
23:41:53.256,-0.05,-0.41
23:41:53.260,-0.03,-0.4
23:41:53.264,-0.03,-0.41
23:41:53.268,-0.045,-0.42
23:41:53.272,-0.075,-0.425
23:41:53.276,-0.075,-0.425
23:41:53.280,-0.085,-0.43
23:41:53.284,-0.1,-0.43
23:41:53.288,-0.08,-0.415
23:41:53.292,-0.095,-0.45
23:41:53.296,-0.08,-0.45
23:41:53.300,-0.08,-0.455
23:41:53.304,-0.075,-0.445
23:41:53.308,-0.085,-0.445
23:41:53.312,-0.09,-0.45
23:41:53.316,-0.075,-0.475
23:41:53.320,-0.105,-0.475
23:41:53.324,-0.05,-0.49
23:41:53.328,0.01,-0.475
23:41:53.332,0.095,-0.46
23:41:53.336,0.2,-0.485
23:41:53.340,0.325,-0.51
23:41:53.344,0.4,-0.55
23:41:53.348,0.465,-0.59
23:41:53.352,0.52,-0.565
23:41:53.356,0.52,-0.5
23:41:53.360,0.48,-0.53
23:41:53.364,0.495,-0.555
23:41:53.368,0.655,-0.64
23:41:53.372,0.935,-0.835
23:41:53.376,1.27,-1.1
23:41:53.380,1.455,-1.31
23:41:53.384,1.365,-1.42
23:41:53.388,1.025,-1.295
23:41:53.392,0.555,-0.97
23:41:53.396,0.23,-0.705
23:41:53.400,0.065,-0.56
23:41:53.404,0.0,-0.45
23:41:53.408,-0.01,-0.38
23:41:53.412,-0.04,-0.345
23:41:53.416,-0.08,-0.35
23:41:53.420,-0.14,-0.355
23:41:53.424,-0.16,-0.35
23:41:53.428,-0.17,-0.38
23:41:53.432,-0.195,-0.38
23:41:53.436,-0.22,-0.4
23:41:53.440,-0.22,-0.415
23:41:53.444,-0.24,-0.42
23:41:53.448,-0.25,-0.43
23:41:53.452,-0.265,-0.435
23:41:53.456,-0.265,-0.445
23:41:53.460,-0.275,-0.45
23:41:53.464,-0.28,-0.43
23:41:53.468,-0.31,-0.445
23:41:53.472,-0.3,-0.46
23:41:53.476,-0.285,-0.47
23:41:53.480,-0.305,-0.47
23:41:53.484,-0.29,-0.47
23:41:53.488,-0.285,-0.475
23:41:53.492,-0.305,-0.49
23:41:53.496,-0.33,-0.49
23:41:53.500,-0.335,-0.485
23:41:53.504,-0.33,-0.495
23:41:53.508,-0.305,-0.49
23:41:53.512,-0.34,-0.48
23:41:53.516,-0.33,-0.48
23:41:53.520,-0.375,-0.505
23:41:53.524,-0.385,-0.5
23:41:53.528,-0.375,-0.505
23:41:53.532,-0.38,-0.515
23:41:53.536,-0.385,-0.485
23:41:53.540,-0.39,-0.495
23:41:53.544,-0.385,-0.48
23:41:53.548,-0.37,-0.5
23:41:53.552,-0.375,-0.52
23:41:53.556,-0.375,-0.52
23:41:53.560,-0.365,-0.51
23:41:53.564,-0.37,-0.495
23:41:53.568,-0.37,-0.495
23:41:53.572,-0.34,-0.505
23:41:53.576,-0.325,-0.47
23:41:53.580,-0.31,-0.49
23:41:53.584,-0.29,-0.475
23:41:53.588,-0.28,-0.48
23:41:53.592,-0.25,-0.465
23:41:53.596,-0.27,-0.46
23:41:53.600,-0.265,-0.45
23:41:53.604,-0.255,-0.445
23:41:53.608,-0.235,-0.44
23:41:53.612,-0.215,-0.43
23:41:53.616,-0.2,-0.44
23:41:53.620,-0.18,-0.415
23:41:53.624,-0.16,-0.445
23:41:53.628,-0.12,-0.455
23:41:53.632,-0.145,-0.485
23:41:53.636,-0.155,-0.46
23:41:53.640,-0.15,-0.46
23:41:53.644,-0.14,-0.445
23:41:53.648,-0.12,-0.425
23:41:53.652,-0.12,-0.44
23:41:53.656,-0.1,-0.44
23:41:53.660,-0.1,-0.425
23:41:53.664,-0.09,-0.42
23:41:53.668,-0.1,-0.43
23:41:53.672,-0.12,-0.42
23:41:53.676,-0.12,-0.4
23:41:53.680,-0.16,-0.415
23:41:53.684,-0.16,-0.395
23:41:53.688,-0.16,-0.38
23:41:53.692,-0.16,-0.385
23:41:53.696,-0.155,-0.38
23:41:53.700,-0.16,-0.38
23:41:53.704,-0.155,-0.395
23:41:53.708,-0.16,-0.385
23:41:53.712,-0.15,-0.415
23:41:53.716,-0.15,-0.375
23:41:53.720,-0.145,-0.4
23:41:53.724,-0.155,-0.38
23:41:53.728,-0.135,-0.39
23:41:53.732,-0.15,-0.395
23:41:53.736,-0.15,-0.35
23:41:53.740,-0.155,-0.36
23:41:53.744,-0.17,-0.35
23:41:53.748,-0.165,-0.36
23:41:53.752,-0.165,-0.34
23:41:53.756,-0.15,-0.325
23:41:53.760,-0.185,-0.36
23:41:53.764,-0.17,-0.36
23:41:53.768,-0.16,-0.35
23:41:53.772,-0.155,-0.355
23:41:53.776,-0.14,-0.365
23:41:53.780,-0.15,-0.33
23:41:53.784,-0.16,-0.33
23:41:53.788,-0.145,-0.36
23:41:53.792,-0.17,-0.32
23:41:53.796,-0.165,-0.325
23:41:53.800,-0.16,-0.31
23:41:53.804,-0.11,-0.315
23:41:53.808,-0.06,-0.32
23:41:53.812,-0.035,-0.29
23:41:53.816,0.02,-0.29
23:41:53.820,0.1,-0.295
23:41:53.824,0.18,-0.28
23:41:53.828,0.255,-0.31
23:41:53.832,0.355,-0.345
23:41:53.836,0.405,-0.35
23:41:53.840,0.43,-0.345
23:41:53.844,0.44,-0.305
23:41:53.848,0.395,-0.315
23:41:53.852,0.4,-0.36
23:41:53.856,0.57,-0.455
23:41:53.860,0.82,-0.62
23:41:53.864,1.14,-0.88
23:41:53.868,1.44,-1.075
23:41:53.872,1.525,-1.22
23:41:53.876,1.3,-1.155
23:41:53.880,0.8,-0.865
23:41:53.884,0.38,-0.48
23:41:53.888,0.14,-0.23
23:41:53.892,0.015,-0.1
23:41:53.896,-0.07,-0.05
23:41:53.900,-0.125,-0.025
23:41:53.904,-0.19,-0.035
23:41:53.908,-0.25,0.0
23:41:53.912,-0.29,-0.025
23:41:53.916,-0.315,-0.04
23:41:53.920,-0.35,-0.07
23:41:53.924,-0.35,-0.04
23:41:53.928,-0.37,-0.065
23:41:53.932,-0.355,-0.055
23:41:53.936,-0.36,-0.06
23:41:53.940,-0.35,-0.055
23:41:53.944,-0.365,-0.04
23:41:53.948,-0.37,-0.065
23:41:53.952,-0.375,-0.08
23:41:53.956,-0.36,-0.07
23:41:53.960,-0.365,-0.075
23:41:53.964,-0.38,-0.07
23:41:53.968,-0.38,-0.075
23:41:53.972,-0.39,-0.065
23:41:53.976,-0.39,-0.07
23:41:53.980,-0.425,-0.07
23:41:53.984,-0.4,-0.065
23:41:53.988,-0.38,-0.07
23:41:53.992,-0.405,-0.07
23:41:53.996,-0.4,-0.09
23:41:54.000,-0.42,-0.07
23:41:54.004,-0.425,-0.075
23:41:54.008,-0.425,-0.07
23:41:54.012,-0.425,-0.07
23:41:54.016,-0.405,-0.06
23:41:54.020,-0.415,-0.055
23:41:54.024,-0.385,-0.085
23:41:54.028,-0.385,-0.08
23:41:54.032,-0.37,-0.09
23:41:54.036,-0.35,-0.065
23:41:54.040,-0.35,-0.05
23:41:54.044,-0.345,-0.05
23:41:54.048,-0.33,-0.05
23:41:54.052,-0.32,-0.05
23:41:54.056,-0.325,-0.045
23:41:54.060,-0.3,-0.05
23:41:54.064,-0.28,-0.04
23:41:54.068,-0.275,-0.045
23:41:54.072,-0.27,-0.04
23:41:54.076,-0.26,-0.055
23:41:54.080,-0.26,-0.055
23:41:54.084,-0.225,-0.055
23:41:54.088,-0.23,-0.05
23:41:54.092,-0.185,-0.085
23:41:54.096,-0.16,-0.07
23:41:54.100,-0.12,-0.07
23:41:54.104,-0.105,-0.055
23:41:54.108,-0.1,-0.04
23:41:54.112,-0.085,-0.035
23:41:54.116,-0.07,-0.025
23:41:54.120,-0.03,0.0
23:41:54.124,-0.03,0.03
23:41:54.128,0.015,0.055
23:41:54.132,0.025,0.045
23:41:54.136,0.045,0.06
23:41:54.140,0.05,0.055
23:41:54.144,0.03,0.07
23:41:54.148,0.01,0.075
23:41:54.152,0.0,0.06
23:41:54.156,-0.035,0.06
23:41:54.160,-0.07,0.06
23:41:54.164,-0.095,0.045
23:41:54.168,-0.1,0.04
23:41:54.172,-0.14,0.06
23:41:54.176,-0.14,0.05
23:41:54.180,-0.16,0.03
23:41:54.184,-0.15,0.015
23:41:54.188,-0.15,0.015
23:41:54.192,-0.16,0.0
23:41:54.196,-0.15,0.0
23:41:54.200,-0.16,-0.01
23:41:54.204,-0.16,-0.01
23:41:54.208,-0.155,-0.01
23:41:54.212,-0.17,-0.015
23:41:54.216,-0.175,-0.035
23:41:54.220,-0.165,-0.025
23:41:54.224,-0.18,-0.05
23:41:54.228,-0.18,-0.06
23:41:54.232,-0.195,-0.045
23:41:54.236,-0.18,-0.05
23:41:54.240,-0.185,-0.055
23:41:54.244,-0.19,-0.06
23:41:54.248,-0.18,-0.06
23:41:54.252,-0.18,-0.065
23:41:54.256,-0.14,-0.055
23:41:54.260,-0.16,-0.045
23:41:54.264,-0.15,-0.05
23:41:54.268,-0.16,-0.06
23:41:54.272,-0.135,-0.05
23:41:54.276,-0.15,-0.045
23:41:54.280,-0.13,-0.045
23:41:54.284,-0.15,-0.045
23:41:54.288,-0.13,-0.015
23:41:54.292,-0.12,-0.04
23:41:54.296,-0.125,-0.035
23:41:54.300,-0.135,-0.04
23:41:54.304,-0.145,-0.04
23:41:54.308,-0.15,-0.03
23:41:54.312,-0.12,-0.02
23:41:54.316,-0.12,-0.03
23:41:54.320,-0.105,-0.035
23:41:54.324,-0.115,-0.045
23:41:54.328,-0.08,-0.04
23:41:54.332,-0.07,-0.015
23:41:54.336,-0.065,-0.02
23:41:54.340,-0.04,-0.005
23:41:54.344,-0.045,-0.005
23:41:54.348,-0.02,0.05
23:41:54.352,-0.03,0.04
23:41:54.356,0.01,0.06
23:41:54.360,0.01,0.045
23:41:54.364,0.015,0.07
23:41:54.368,0.025,0.09
23:41:54.372,0.02,0.11
23:41:54.376,0.03,0.085
23:41:54.380,0.04,0.11
23:41:54.384,0.025,0.11
23:41:54.388,0.02,0.135
23:41:54.392,0.02,0.12
23:41:54.396,-0.03,0.13
23:41:54.400,-0.02,0.07
23:41:54.404,-0.02,0.075
23:41:54.408,0.025,0.08
23:41:54.412,0.1,0.1
23:41:54.416,0.16,0.06
23:41:54.420,0.21,0.015
23:41:54.424,0.24,-0.06
23:41:54.428,0.295,-0.065
23:41:54.432,0.26,-0.07
23:41:54.436,0.25,-0.1
23:41:54.440,0.22,-0.14
23:41:54.444,0.325,-0.27
23:41:54.448,0.595,-0.46
23:41:54.452,0.94,-0.71
23:41:54.456,1.27,-1.02
23:41:54.460,1.42,-1.19
23:41:54.464,1.285,-1.135
23:41:54.468,0.87,-0.84
23:41:54.472,0.385,-0.45
23:41:54.476,0.07,-0.125
23:41:54.480,-0.1,0.02
23:41:54.484,-0.18,0.11
23:41:54.488,-0.205,0.12
23:41:54.492,-0.26,0.15
23:41:54.496,-0.285,0.15
23:41:54.500,-0.31,0.12
23:41:54.504,-0.34,0.155
23:41:54.508,-0.355,0.105
23:41:54.512,-0.37,0.105
23:41:54.516,-0.365,0.06
23:41:54.520,-0.36,0.06
23:41:54.524,-0.385,0.045
23:41:54.528,-0.385,0.065
23:41:54.532,-0.385,0.07
23:41:54.536,-0.405,0.045
23:41:54.540,-0.395,0.03
23:41:54.544,-0.41,0.04
23:41:54.548,-0.385,0.035
23:41:54.552,-0.41,0.03
23:41:54.556,-0.4,0.045
23:41:54.560,-0.4,0.055
23:41:54.564,-0.38,0.04
23:41:54.568,-0.375,0.04
23:41:54.572,-0.35,0.055
23:41:54.576,-0.33,0.05
23:41:54.580,-0.325,0.04
23:41:54.584,-0.32,0.06
23:41:54.588,-0.32,0.08
23:41:54.592,-0.295,0.08
23:41:54.596,-0.295,0.11
23:41:54.600,-0.295,0.145
23:41:54.604,-0.31,0.16
23:41:54.608,-0.315,0.19
23:41:54.612,-0.34,0.17
23:41:54.616,-0.345,0.17
23:41:54.620,-0.33,0.19
23:41:54.624,-0.345,0.185
23:41:54.628,-0.34,0.175
23:41:54.632,-0.37,0.16
23:41:54.636,-0.375,0.125
23:41:54.640,-0.385,0.105
23:41:54.644,-0.415,0.1
23:41:54.648,-0.44,0.095
23:41:54.652,-0.425,0.08
23:41:54.656,-0.435,0.065
23:41:54.660,-0.43,0.065
23:41:54.664,-0.405,0.065
23:41:54.668,-0.405,0.065
23:41:54.672,-0.375,0.06
23:41:54.676,-0.37,0.015
23:41:54.680,-0.335,0.0
23:41:54.684,-0.305,0.01
23:41:54.688,-0.28,0.0
23:41:54.692,-0.295,0.0
23:41:54.696,-0.28,-0.01
23:41:54.700,-0.3,-0.01
23:41:54.704,-0.275,-0.02
23:41:54.708,-0.265,-0.025
23:41:54.712,-0.225,-0.025
23:41:54.716,-0.215,-0.03
23:41:54.720,-0.225,-0.01
23:41:54.724,-0.225,0.005
23:41:54.728,-0.21,-0.015
23:41:54.732,-0.2,-0.02
23:41:54.736,-0.18,-0.005
23:41:54.740,-0.18,-0.025
23:41:54.744,-0.185,-0.01
23:41:54.748,-0.18,0.0
23:41:54.752,-0.18,-0.01
23:41:54.756,-0.14,-0.015
23:41:54.760,-0.155,0.005
23:41:54.764,-0.13,0.015
23:41:54.768,-0.125,0.01
23:41:54.772,-0.135,0.04
23:41:54.776,-0.145,0.045
23:41:54.780,-0.145,0.04
23:41:54.784,-0.145,0.03
23:41:54.788,-0.14,0.04
23:41:54.792,-0.11,0.055
23:41:54.796,-0.13,0.06
23:41:54.800,-0.11,0.06
23:41:54.804,-0.1,0.05
23:41:54.808,-0.08,0.08
23:41:54.812,-0.06,0.075
23:41:54.816,-0.06,0.075
23:41:54.820,-0.025,0.09
23:41:54.824,-0.015,0.105
23:41:54.828,0.0,0.095
23:41:54.832,0.005,0.1
23:41:54.836,-0.005,0.135
23:41:54.840,-0.015,0.155
23:41:54.844,-0.025,0.165
23:41:54.848,-0.025,0.17
23:41:54.852,-0.04,0.175
23:41:54.856,-0.055,0.155
23:41:54.860,-0.105,0.155
23:41:54.864,-0.12,0.16
23:41:54.868,-0.145,0.145
23:41:54.872,-0.16,0.15
23:41:54.876,-0.155,0.155
23:41:54.880,-0.16,0.15
23:41:54.884,-0.16,0.165
23:41:54.888,-0.16,0.15
23:41:54.892,-0.175,0.125
23:41:54.896,-0.15,0.12
23:41:54.900,-0.12,0.095
23:41:54.904,-0.14,0.1
23:41:54.908,-0.155,0.07
23:41:54.912,-0.17,0.06
23:41:54.916,-0.16,0.075
23:41:54.920,-0.195,0.045
23:41:54.924,-0.185,0.035
23:41:54.928,-0.185,0.05
23:41:54.932,-0.18,0.03
23:41:54.936,-0.18,0.03
23:41:54.940,-0.19,0.015
23:41:54.944,-0.185,0.005
23:41:54.948,-0.19,-0.01
23:41:54.952,-0.21,-0.02
23:41:54.956,-0.205,-0.01
23:41:54.960,-0.22,-0.02
23:41:54.964,-0.215,-0.02
23:41:54.968,-0.185,-0.03
23:41:54.972,-0.13,-0.05
23:41:54.976,-0.045,-0.025
23:41:54.980,0.04,-0.05
23:41:54.984,0.13,-0.055
23:41:54.988,0.195,-0.08
23:41:54.992,0.25,-0.115
23:41:54.996,0.265,-0.135
23:41:55.000,0.275,-0.115
23:41:55.004,0.255,-0.125
23:41:55.008,0.205,-0.155
23:41:55.012,0.28,-0.21
23:41:55.016,0.505,-0.365
23:41:55.020,0.81,-0.61
23:41:55.024,1.15,-0.89
23:41:55.028,1.35,-1.08
23:41:55.032,1.285,-1.125
23:41:55.036,0.935,-0.905
23:41:55.040,0.48,-0.53
23:41:55.044,0.18,-0.195
23:41:55.048,0.03,-0.015
23:41:55.052,-0.035,0.095
23:41:55.056,-0.08,0.145
23:41:55.060,-0.1,0.155
23:41:55.064,-0.125,0.16
23:41:55.068,-0.165,0.16
23:41:55.072,-0.175,0.155
23:41:55.076,-0.205,0.135
23:41:55.080,-0.215,0.11
23:41:55.084,-0.235,0.09
23:41:55.088,-0.26,0.065
23:41:55.092,-0.29,0.085
23:41:55.096,-0.33,0.075
23:41:55.100,-0.375,0.09
23:41:55.104,-0.415,0.09
23:41:55.108,-0.425,0.09
23:41:55.112,-0.435,0.09
23:41:55.116,-0.435,0.08
23:41:55.120,-0.415,0.13
23:41:55.124,-0.385,0.09
23:41:55.128,-0.4,0.08
23:41:55.132,-0.365,0.105
23:41:55.136,-0.37,0.085
23:41:55.140,-0.375,0.075
23:41:55.144,-0.385,0.04
23:41:55.148,-0.41,0.005
23:41:55.152,-0.4,-0.02
23:41:55.156,-0.41,-0.02
23:41:55.160,-0.425,-0.03
23:41:55.164,-0.44,-0.06
23:41:55.168,-0.43,-0.04
23:41:55.172,-0.435,-0.075
23:41:55.176,-0.44,-0.085
23:41:55.180,-0.435,-0.075
23:41:55.184,-0.44,-0.08
23:41:55.188,-0.445,-0.11
23:41:55.192,-0.42,-0.1
23:41:55.196,-0.41,-0.125
23:41:55.200,-0.42,-0.13
23:41:55.204,-0.41,-0.135
23:41:55.208,-0.39,-0.145
23:41:55.212,-0.395,-0.12
23:41:55.216,-0.38,-0.14
23:41:55.220,-0.365,-0.145
23:41:55.224,-0.365,-0.135
23:41:55.228,-0.355,-0.13
23:41:55.232,-0.33,-0.145
23:41:55.236,-0.315,-0.14
23:41:55.240,-0.295,-0.155
23:41:55.244,-0.285,-0.175
23:41:55.248,-0.29,-0.18
23:41:55.252,-0.275,-0.155
23:41:55.256,-0.275,-0.16
23:41:55.260,-0.26,-0.17
23:41:55.264,-0.24,-0.165
23:41:55.268,-0.24,-0.215
23:41:55.272,-0.19,-0.165
23:41:55.276,-0.145,-0.175
23:41:55.280,-0.12,-0.195
23:41:55.284,-0.125,-0.16
23:41:55.288,-0.095,-0.17
23:41:55.292,-0.095,-0.165
23:41:55.296,-0.075,-0.16
23:41:55.300,-0.075,-0.155
23:41:55.304,-0.085,-0.135
23:41:55.308,-0.08,-0.13
23:41:55.312,-0.075,-0.145
23:41:55.316,-0.09,-0.125
23:41:55.320,-0.11,-0.14
23:41:55.324,-0.145,-0.12
23:41:55.328,-0.155,-0.125
23:41:55.332,-0.175,-0.125
23:41:55.336,-0.185,-0.115
23:41:55.340,-0.195,-0.12
23:41:55.344,-0.185,-0.105
23:41:55.348,-0.2,-0.095
23:41:55.352,-0.21,-0.07
23:41:55.356,-0.21,-0.075
23:41:55.360,-0.19,-0.095
23:41:55.364,-0.19,-0.065
23:41:55.368,-0.18,-0.085
23:41:55.372,-0.18,-0.06
23:41:55.376,-0.15,-0.095
23:41:55.380,-0.19,-0.095
23:41:55.384,-0.19,-0.11
23:41:55.388,-0.205,-0.15
23:41:55.392,-0.21,-0.18
23:41:55.396,-0.23,-0.195
23:41:55.400,-0.22,-0.24
23:41:55.404,-0.245,-0.255
23:41:55.408,-0.25,-0.26
23:41:55.412,-0.24,-0.255
23:41:55.416,-0.2,-0.28
23:41:55.420,-0.21,-0.27
23:41:55.424,-0.21,-0.3
23:41:55.428,-0.215,-0.315
23:41:55.432,-0.23,-0.32
23:41:55.436,-0.22,-0.31
23:41:55.440,-0.22,-0.315
23:41:55.444,-0.19,-0.31
23:41:55.448,-0.18,-0.34
23:41:55.452,-0.18,-0.31
23:41:55.456,-0.2,-0.36
23:41:55.460,-0.185,-0.34
23:41:55.464,-0.185,-0.355
23:41:55.468,-0.16,-0.33
23:41:55.472,-0.115,-0.32
23:41:55.476,-0.06,-0.35
23:41:55.480,0.02,-0.36
23:41:55.484,0.14,-0.375
23:41:55.488,0.24,-0.4
23:41:55.492,0.295,-0.425
23:41:55.496,0.365,-0.455
23:41:55.500,0.385,-0.445
23:41:55.504,0.41,-0.4
23:41:55.508,0.385,-0.41
23:41:55.512,0.44,-0.45
23:41:55.516,0.62,-0.57
23:41:55.520,0.975,-0.775
23:41:55.524,1.265,-1.015
23:41:55.528,1.39,-1.23
23:41:55.532,1.235,-1.28
23:41:55.536,0.78,-1.08
23:41:55.540,0.35,-0.755
23:41:55.544,0.06,-0.515
23:41:55.548,-0.07,-0.365
23:41:55.552,-0.145,-0.285
23:41:55.556,-0.18,-0.21
23:41:55.560,-0.25,-0.21
23:41:55.564,-0.315,-0.175
23:41:55.568,-0.385,-0.17
23:41:55.572,-0.425,-0.19
23:41:55.576,-0.425,-0.195
23:41:55.580,-0.465,-0.21
23:41:55.584,-0.47,-0.22
23:41:55.588,-0.475,-0.25
23:41:55.592,-0.475,-0.23
23:41:55.596,-0.47,-0.235
23:41:55.600,-0.46,-0.235
23:41:55.604,-0.455,-0.265
23:41:55.608,-0.45,-0.24
23:41:55.612,-0.465,-0.23
23:41:55.616,-0.465,-0.23
23:41:55.620,-0.47,-0.235
23:41:55.624,-0.46,-0.23
23:41:55.628,-0.455,-0.245
23:41:55.632,-0.475,-0.295
23:41:55.636,-0.485,-0.315
23:41:55.640,-0.5,-0.305
23:41:55.644,-0.485,-0.335
23:41:55.648,-0.47,-0.355
23:41:55.652,-0.495,-0.35
23:41:55.656,-0.505,-0.36
23:41:55.660,-0.49,-0.355
23:41:55.664,-0.52,-0.36
23:41:55.668,-0.5,-0.37
23:41:55.672,-0.535,-0.365
23:41:55.676,-0.52,-0.37
23:41:55.680,-0.495,-0.365
23:41:55.684,-0.49,-0.355
23:41:55.688,-0.51,-0.365
23:41:55.692,-0.525,-0.365
23:41:55.696,-0.5,-0.345
23:41:55.700,-0.47,-0.345
23:41:55.704,-0.46,-0.335
23:41:55.708,-0.43,-0.335
23:41:55.712,-0.43,-0.32
23:41:55.716,-0.425,-0.32
23:41:55.720,-0.41,-0.335
23:41:55.724,-0.41,-0.33
23:41:55.728,-0.38,-0.33
23:41:55.732,-0.36,-0.31
23:41:55.736,-0.335,-0.335
23:41:55.740,-0.305,-0.295
23:41:55.744,-0.275,-0.295
23:41:55.748,-0.28,-0.315
23:41:55.752,-0.26,-0.295
23:41:55.756,-0.22,-0.285
23:41:55.760,-0.19,-0.27
23:41:55.764,-0.17,-0.275
23:41:55.768,-0.19,-0.255
23:41:55.772,-0.18,-0.24
23:41:55.776,-0.175,-0.23
23:41:55.780,-0.195,-0.235
23:41:55.784,-0.225,-0.25
23:41:55.788,-0.25,-0.265
23:41:55.792,-0.27,-0.25
23:41:55.796,-0.29,-0.23
23:41:55.800,-0.28,-0.2
23:41:55.804,-0.295,-0.195
23:41:55.808,-0.3,-0.215
23:41:55.812,-0.31,-0.2
23:41:55.816,-0.31,-0.175
23:41:55.820,-0.32,-0.18
23:41:55.824,-0.305,-0.175
23:41:55.828,-0.3,-0.175
23:41:55.832,-0.305,-0.185
23:41:55.836,-0.285,-0.18
23:41:55.840,-0.275,-0.175
23:41:55.844,-0.265,-0.155
23:41:55.848,-0.245,-0.175
23:41:55.852,-0.25,-0.16
23:41:55.856,-0.245,-0.175
23:41:55.860,-0.235,-0.13
23:41:55.864,-0.225,-0.125
23:41:55.868,-0.235,-0.13
23:41:55.872,-0.235,-0.16
23:41:55.876,-0.27,-0.155
23:41:55.880,-0.275,-0.165
23:41:55.884,-0.255,-0.16
23:41:55.888,-0.235,-0.18
23:41:55.892,-0.245,-0.18
23:41:55.896,-0.23,-0.175
23:41:55.900,-0.225,-0.195
23:41:55.904,-0.24,-0.18
23:41:55.908,-0.25,-0.165
23:41:55.912,-0.25,-0.16
23:41:55.916,-0.23,-0.17
23:41:55.920,-0.205,-0.175
23:41:55.924,-0.235,-0.16
23:41:55.928,-0.235,-0.155
23:41:55.932,-0.22,-0.15
23:41:55.936,-0.24,-0.16
23:41:55.940,-0.205,-0.17
23:41:55.944,-0.21,-0.175
23:41:55.948,-0.195,-0.16
23:41:55.952,-0.18,-0.17
23:41:55.956,-0.175,-0.16
23:41:55.960,-0.16,-0.15
23:41:55.964,-0.14,-0.155
23:41:55.968,-0.12,-0.13
23:41:55.972,-0.115,-0.13
23:41:55.976,-0.08,-0.095
23:41:55.980,-0.06,-0.1
23:41:55.984,-0.035,-0.08
23:41:55.988,0.02,-0.085
23:41:55.992,0.105,-0.07
23:41:55.996,0.2,-0.065
23:41:56.000,0.275,-0.085
23:41:56.004,0.315,-0.105
23:41:56.008,0.345,-0.12
23:41:56.012,0.35,-0.11
23:41:56.016,0.34,-0.09
23:41:56.020,0.275,-0.1
23:41:56.024,0.205,-0.16
23:41:56.028,0.265,-0.245
23:41:56.032,0.495,-0.395
23:41:56.036,0.845,-0.65
23:41:56.040,1.145,-0.91
23:41:56.044,1.25,-1.085
23:41:56.048,1.05,-1.065
23:41:56.052,0.565,-0.8
23:41:56.056,0.085,-0.445
23:41:56.060,-0.195,-0.135
23:41:56.064,-0.3,0.025
23:41:56.068,-0.36,0.075
23:41:56.072,-0.415,0.14
23:41:56.076,-0.43,0.15
23:41:56.080,-0.455,0.13
23:41:56.084,-0.46,0.135
23:41:56.088,-0.465,0.15
23:41:56.092,-0.485,0.13
23:41:56.096,-0.455,0.13
23:41:56.100,-0.445,0.14
23:41:56.104,-0.46,0.12
23:41:56.108,-0.44,0.135
23:41:56.112,-0.445,0.13
23:41:56.116,-0.445,0.115
23:41:56.120,-0.44,0.11
23:41:56.124,-0.455,0.08
23:41:56.128,-0.46,0.065
23:41:56.132,-0.45,0.065
23:41:56.136,-0.455,0.07
23:41:56.140,-0.45,0.05
23:41:56.144,-0.47,0.06
23:41:56.148,-0.475,0.05
23:41:56.152,-0.47,0.035
23:41:56.156,-0.49,0.035
23:41:56.160,-0.505,0.04
23:41:56.164,-0.52,0.035
23:41:56.168,-0.52,0.035
23:41:56.172,-0.51,0.035
23:41:56.176,-0.49,0.015
23:41:56.180,-0.5,0.025
23:41:56.184,-0.495,0.025
23:41:56.188,-0.49,0.01
23:41:56.192,-0.48,0.035
23:41:56.196,-0.46,0.01
23:41:56.200,-0.44,0.025
23:41:56.204,-0.425,0.04
23:41:56.208,-0.415,0.05
23:41:56.212,-0.37,0.075
23:41:56.216,-0.345,0.06
23:41:56.220,-0.34,0.08
23:41:56.224,-0.31,0.095
23:41:56.228,-0.3,0.11
23:41:56.232,-0.295,0.105
23:41:56.236,-0.3,0.125
23:41:56.240,-0.31,0.115
23:41:56.244,-0.35,0.12
23:41:56.248,-0.38,0.12
23:41:56.252,-0.41,0.1
23:41:56.256,-0.43,0.08
23:41:56.260,-0.445,0.085
23:41:56.264,-0.48,0.09
23:41:56.268,-0.485,0.085
23:41:56.272,-0.465,0.09
23:41:56.276,-0.44,0.065
23:41:56.280,-0.44,0.055
23:41:56.284,-0.425,0.06
23:41:56.288,-0.4,0.04
23:41:56.292,-0.405,0.06
23:41:56.296,-0.38,0.03
23:41:56.300,-0.38,0.025
23:41:56.304,-0.375,0.05
23:41:56.308,-0.36,0.065
23:41:56.312,-0.375,0.05
23:41:56.316,-0.355,0.035
23:41:56.320,-0.34,0.055
23:41:56.324,-0.335,0.055
23:41:56.328,-0.335,0.055
23:41:56.332,-0.31,0.105
23:41:56.336,-0.305,0.095
23:41:56.340,-0.26,0.095
23:41:56.344,-0.24,0.105
23:41:56.348,-0.205,0.115
23:41:56.352,-0.185,0.14
23:41:56.356,-0.2,0.13
23:41:56.360,-0.185,0.115
23:41:56.364,-0.19,0.105
23:41:56.368,-0.185,0.085
23:41:56.372,-0.175,0.085
23:41:56.376,-0.21,0.075
23:41:56.380,-0.21,0.05
23:41:56.384,-0.22,0.065
23:41:56.388,-0.23,0.05
23:41:56.392,-0.23,0.065
23:41:56.396,-0.23,0.035
23:41:56.400,-0.255,0.045
23:41:56.404,-0.225,0.045
23:41:56.408,-0.24,0.035
23:41:56.412,-0.24,0.045
23:41:56.416,-0.205,0.035
23:41:56.420,-0.195,0.035
23:41:56.424,-0.19,0.04
23:41:56.428,-0.175,0.04
23:41:56.432,-0.155,0.06
23:41:56.436,-0.125,0.07
23:41:56.440,-0.1,0.08
23:41:56.444,-0.095,0.085
23:41:56.448,-0.07,0.1
23:41:56.452,-0.065,0.09
23:41:56.456,-0.065,0.115
23:41:56.460,-0.075,0.125
23:41:56.464,-0.07,0.115
23:41:56.468,-0.085,0.115
23:41:56.472,-0.095,0.125
23:41:56.476,-0.15,0.125
23:41:56.480,-0.16,0.11
23:41:56.484,-0.23,0.115
23:41:56.488,-0.275,0.12
23:41:56.492,-0.29,0.1
23:41:56.496,-0.335,0.095
23:41:56.500,-0.355,0.09
23:41:56.504,-0.33,0.08
23:41:56.508,-0.315,0.105
23:41:56.512,-0.26,0.095
23:41:56.516,-0.15,0.095
23:41:56.520,-0.065,0.065
23:41:56.524,-0.015,0.02
23:41:56.528,0.0,-0.025
23:41:56.532,0.02,-0.025
23:41:56.536,0.035,-0.01
23:41:56.540,-0.015,0.0
23:41:56.544,-0.05,-0.035
23:41:56.548,-0.005,-0.115
23:41:56.552,0.21,-0.275
23:41:56.556,0.54,-0.525
23:41:56.560,0.89,-0.79
23:41:56.564,1.135,-1.045
23:41:56.568,1.145,-1.085
23:41:56.572,0.82,-0.9
23:41:56.576,0.32,-0.525
23:41:56.580,-0.055,-0.155
23:41:56.584,-0.24,0.08
23:41:56.588,-0.375,0.195
23:41:56.592,-0.41,0.23
23:41:56.596,-0.455,0.23
23:41:56.600,-0.48,0.215
23:41:56.604,-0.49,0.215
23:41:56.608,-0.445,0.19
23:41:56.612,-0.46,0.18
23:41:56.616,-0.44,0.14
23:41:56.620,-0.48,0.115
23:41:56.624,-0.495,0.12
23:41:56.628,-0.525,0.075
23:41:56.632,-0.52,0.08
23:41:56.636,-0.54,0.11
23:41:56.640,-0.525,0.1
23:41:56.644,-0.53,0.09
23:41:56.648,-0.535,0.11
23:41:56.652,-0.51,0.09
23:41:56.656,-0.52,0.09
23:41:56.660,-0.52,0.095
23:41:56.664,-0.525,0.1
23:41:56.668,-0.545,0.09
23:41:56.672,-0.565,0.12
23:41:56.676,-0.565,0.11
23:41:56.680,-0.565,0.09
23:41:56.684,-0.58,0.1
23:41:56.688,-0.575,0.11
23:41:56.692,-0.58,0.11
23:41:56.696,-0.605,0.08
23:41:56.700,-0.595,0.075
23:41:56.704,-0.595,0.09
23:41:56.708,-0.555,0.09
23:41:56.712,-0.515,0.11
23:41:56.716,-0.485,0.115
23:41:56.720,-0.47,0.12
23:41:56.724,-0.475,0.14
23:41:56.728,-0.465,0.13
23:41:56.732,-0.48,0.175
23:41:56.736,-0.515,0.165
23:41:56.740,-0.53,0.145
23:41:56.744,-0.555,0.155
23:41:56.748,-0.575,0.165
23:41:56.752,-0.57,0.17
23:41:56.756,-0.56,0.17
23:41:56.760,-0.54,0.2
23:41:56.764,-0.535,0.19
23:41:56.768,-0.515,0.17
23:41:56.772,-0.505,0.175
23:41:56.776,-0.49,0.17
23:41:56.780,-0.485,0.155
23:41:56.784,-0.44,0.155
23:41:56.788,-0.435,0.145
23:41:56.792,-0.41,0.145
23:41:56.796,-0.415,0.12
23:41:56.800,-0.42,0.14
23:41:56.804,-0.4,0.14
23:41:56.808,-0.405,0.125
23:41:56.812,-0.41,0.13
23:41:56.816,-0.37,0.125
23:41:56.820,-0.39,0.11
23:41:56.824,-0.375,0.11
23:41:56.828,-0.35,0.105
23:41:56.832,-0.33,0.095
23:41:56.836,-0.32,0.09
23:41:56.840,-0.325,0.125
23:41:56.844,-0.33,0.135
23:41:56.848,-0.325,0.13
23:41:56.852,-0.32,0.14
23:41:56.856,-0.3,0.135
23:41:56.860,-0.305,0.135
23:41:56.864,-0.28,0.13
23:41:56.868,-0.24,0.11
23:41:56.872,-0.24,0.11
23:41:56.876,-0.255,0.11
23:41:56.880,-0.275,0.095
23:41:56.884,-0.275,0.12
23:41:56.888,-0.275,0.11
23:41:56.892,-0.285,0.115
23:41:56.896,-0.29,0.11
23:41:56.900,-0.315,0.095
23:41:56.904,-0.33,0.1
23:41:56.908,-0.34,0.105
23:41:56.912,-0.36,0.12
23:41:56.916,-0.355,0.1
23:41:56.920,-0.37,0.075
23:41:56.924,-0.4,0.08
23:41:56.928,-0.4,0.095
23:41:56.932,-0.39,0.105
23:41:56.936,-0.36,0.085
23:41:56.940,-0.4,0.085
23:41:56.944,-0.395,0.07
23:41:56.948,-0.375,0.095
23:41:56.952,-0.365,0.08
23:41:56.956,-0.335,0.065
23:41:56.960,-0.32,0.08
23:41:56.964,-0.295,0.08
23:41:56.968,-0.27,0.075
23:41:56.972,-0.225,0.11
23:41:56.976,-0.24,0.125
23:41:56.980,-0.225,0.145
23:41:56.984,-0.245,0.135
23:41:56.988,-0.235,0.155
23:41:56.992,-0.24,0.165
23:41:56.996,-0.27,0.16
23:41:57.000,-0.28,0.185
23:41:57.004,-0.31,0.16
23:41:57.008,-0.305,0.16
23:41:57.012,-0.31,0.155
23:41:57.016,-0.32,0.18
23:41:57.020,-0.325,0.17
23:41:57.024,-0.32,0.21
23:41:57.028,-0.335,0.195
23:41:57.032,-0.32,0.2
23:41:57.036,-0.325,0.19
23:41:57.040,-0.34,0.18
23:41:57.044,-0.325,0.165
23:41:57.048,-0.305,0.15
23:41:57.052,-0.31,0.15
23:41:57.056,-0.305,0.15
23:41:57.060,-0.32,0.14
23:41:57.064,-0.32,0.155
23:41:57.068,-0.315,0.135
23:41:57.072,-0.285,0.125
23:41:57.076,-0.215,0.135
23:41:57.080,-0.165,0.115
23:41:57.084,-0.06,0.125
23:41:57.088,0.005,0.09
23:41:57.092,0.06,0.085
23:41:57.096,0.105,0.04
23:41:57.100,0.075,0.055
23:41:57.104,-0.005,0.085
23:41:57.108,-0.035,0.04
23:41:57.112,-0.01,-0.04
23:41:57.116,0.23,-0.21
23:41:57.120,0.565,-0.435
23:41:57.124,0.95,-0.775
23:41:57.128,1.2,-1.055
23:41:57.132,1.21,-1.155
23:41:57.136,0.965,-1.0
23:41:57.140,0.485,-0.665
23:41:57.144,0.075,-0.27
23:41:57.148,-0.15,-0.015
23:41:57.152,-0.24,0.11
23:41:57.156,-0.285,0.185
23:41:57.160,-0.33,0.195
23:41:57.164,-0.375,0.185
23:41:57.168,-0.39,0.18
23:41:57.172,-0.415,0.165
23:41:57.176,-0.46,0.14
23:41:57.180,-0.5,0.1
23:41:57.184,-0.515,0.09
23:41:57.188,-0.495,0.075
23:41:57.192,-0.48,0.09
23:41:57.196,-0.48,0.085
23:41:57.200,-0.51,0.08
23:41:57.204,-0.51,0.07
23:41:57.208,-0.49,0.075
23:41:57.212,-0.48,0.08
23:41:57.216,-0.495,0.08
23:41:57.220,-0.475,0.12
23:41:57.224,-0.47,0.105
23:41:57.228,-0.46,0.115
23:41:57.232,-0.465,0.13
23:41:57.236,-0.46,0.125
23:41:57.240,-0.5,0.105
23:41:57.244,-0.495,0.135
23:41:57.248,-0.515,0.14
23:41:57.252,-0.55,0.115
23:41:57.256,-0.57,0.135
23:41:57.260,-0.58,0.13
23:41:57.264,-0.58,0.11
23:41:57.268,-0.575,0.115
23:41:57.272,-0.57,0.125
23:41:57.276,-0.585,0.11
23:41:57.280,-0.59,0.09
23:41:57.284,-0.61,0.08
23:41:57.288,-0.595,0.07
23:41:57.292,-0.6,0.07
23:41:57.296,-0.6,0.075
23:41:57.300,-0.6,0.06
23:41:57.304,-0.555,0.05
23:41:57.308,-0.56,0.065
23:41:57.312,-0.535,0.065
23:41:57.316,-0.545,0.055
23:41:57.320,-0.55,0.045
23:41:57.324,-0.56,0.03
23:41:57.328,-0.545,0.015
23:41:57.332,-0.53,0.0
23:41:57.336,-0.54,0.0
23:41:57.340,-0.5,-0.015
23:41:57.344,-0.49,-0.015
23:41:57.348,-0.5,-0.01
23:41:57.352,-0.5,-0.035
23:41:57.356,-0.475,-0.055
23:41:57.360,-0.465,-0.09
23:41:57.364,-0.445,-0.08
23:41:57.368,-0.39,-0.105
23:41:57.372,-0.355,-0.13
23:41:57.376,-0.335,-0.125
23:41:57.380,-0.31,-0.145
23:41:57.384,-0.305,-0.155
23:41:57.388,-0.3,-0.145
23:41:57.392,-0.285,-0.12
23:41:57.396,-0.315,-0.14
23:41:57.400,-0.32,-0.14
23:41:57.404,-0.31,-0.16
23:41:57.408,-0.285,-0.145
23:41:57.412,-0.29,-0.16
23:41:57.416,-0.28,-0.15
23:41:57.420,-0.3,-0.175
23:41:57.424,-0.295,-0.165
23:41:57.428,-0.325,-0.16
23:41:57.432,-0.32,-0.12
23:41:57.436,-0.305,-0.14
23:41:57.440,-0.315,-0.16
23:41:57.444,-0.32,-0.155
23:41:57.448,-0.285,-0.14
23:41:57.452,-0.275,-0.12
23:41:57.456,-0.245,-0.095
23:41:57.460,-0.26,-0.1
23:41:57.464,-0.27,-0.1
23:41:57.468,-0.285,-0.085
23:41:57.472,-0.25,-0.095
23:41:57.476,-0.285,-0.075
23:41:57.480,-0.31,-0.085
23:41:57.484,-0.31,-0.105
23:41:57.488,-0.32,-0.12
23:41:57.492,-0.32,-0.15
23:41:57.496,-0.355,-0.135
23:41:57.500,-0.375,-0.12
23:41:57.504,-0.395,-0.135
23:41:57.508,-0.395,-0.105
23:41:57.512,-0.38,-0.12
23:41:57.516,-0.35,-0.12
23:41:57.520,-0.335,-0.115
23:41:57.524,-0.355,-0.125
23:41:57.528,-0.35,-0.145
23:41:57.532,-0.36,-0.14
23:41:57.536,-0.35,-0.14
23:41:57.540,-0.35,-0.15
23:41:57.544,-0.345,-0.15
23:41:57.548,-0.37,-0.16
23:41:57.552,-0.355,-0.17
23:41:57.556,-0.355,-0.18
23:41:57.560,-0.365,-0.195
23:41:57.564,-0.34,-0.185
23:41:57.568,-0.335,-0.205
23:41:57.572,-0.365,-0.2
23:41:57.576,-0.37,-0.215
23:41:57.580,-0.385,-0.2
23:41:57.584,-0.365,-0.215
23:41:57.588,-0.375,-0.225
23:41:57.592,-0.375,-0.235
23:41:57.596,-0.37,-0.24
23:41:57.600,-0.365,-0.25
23:41:57.604,-0.385,-0.23
23:41:57.608,-0.37,-0.265
23:41:57.612,-0.38,-0.26
23:41:57.616,-0.37,-0.27
23:41:57.620,-0.365,-0.255
23:41:57.624,-0.36,-0.27
23:41:57.628,-0.375,-0.27
23:41:57.632,-0.34,-0.3
23:41:57.636,-0.35,-0.28
23:41:57.640,-0.35,-0.24
23:41:57.644,-0.33,-0.26
23:41:57.648,-0.32,-0.26
23:41:57.652,-0.28,-0.24
23:41:57.656,-0.305,-0.235
23:41:57.660,-0.29,-0.255
23:41:57.664,-0.315,-0.275
23:41:57.668,-0.34,-0.315
23:41:57.672,-0.335,-0.325
23:41:57.676,-0.32,-0.37
23:41:57.680,-0.335,-0.395
23:41:57.684,-0.335,-0.375
23:41:57.688,-0.34,-0.39
23:41:57.692,-0.32,-0.36
23:41:57.696,-0.28,-0.38
23:41:57.700,-0.275,-0.36
23:41:57.704,-0.245,-0.35
23:41:57.708,-0.25,-0.37
23:41:57.712,-0.265,-0.325
23:41:57.716,-0.27,-0.315
23:41:57.720,-0.29,-0.305
23:41:57.724,-0.3,-0.31
23:41:57.728,-0.31,-0.315
23:41:57.732,-0.305,-0.32
23:41:57.736,-0.33,-0.325
23:41:57.740,-0.34,-0.33
23:41:57.744,-0.34,-0.33
23:41:57.748,-0.325,-0.34
23:41:57.752,-0.33,-0.32
23:41:57.756,-0.33,-0.315
23:41:57.760,-0.325,-0.305
23:41:57.764,-0.31,-0.3
23:41:57.768,-0.325,-0.32
23:41:57.772,-0.315,-0.33
23:41:57.776,-0.34,-0.34
23:41:57.780,-0.33,-0.32
23:41:57.784,-0.335,-0.32
23:41:57.788,-0.335,-0.32
23:41:57.792,-0.335,-0.33
23:41:57.796,-0.345,-0.325
23:41:57.800,-0.36,-0.345
23:41:57.804,-0.35,-0.34
23:41:57.808,-0.365,-0.325
23:41:57.812,-0.355,-0.35
23:41:57.816,-0.36,-0.37
23:41:57.820,-0.365,-0.36
23:41:57.824,-0.38,-0.35
23:41:57.828,-0.37,-0.355
23:41:57.832,-0.36,-0.36
23:41:57.836,-0.36,-0.365
23:41:57.840,-0.36,-0.365
23:41:57.844,-0.375,-0.365
23:41:57.848,-0.37,-0.365
23:41:57.852,-0.35,-0.345
23:41:57.856,-0.335,-0.355
23:41:57.860,-0.33,-0.34
23:41:57.864,-0.35,-0.34
23:41:57.868,-0.335,-0.36
23:41:57.872,-0.355,-0.335
23:41:57.876,-0.355,-0.345
23:41:57.880,-0.365,-0.335
23:41:57.884,-0.375,-0.34
23:41:57.888,-0.37,-0.345
23:41:57.892,-0.365,-0.345
23:41:57.896,-0.375,-0.34
23:41:57.900,-0.355,-0.315
23:41:57.904,-0.36,-0.335
23:41:57.908,-0.355,-0.335
23:41:57.912,-0.33,-0.33
23:41:57.916,-0.255,-0.35
23:41:57.920,-0.145,-0.33
23:41:57.924,-0.035,-0.33
23:41:57.928,0.09,-0.34
23:41:57.932,0.225,-0.385
23:41:57.936,0.285,-0.4
23:41:57.940,0.335,-0.385
23:41:57.944,0.355,-0.355
23:41:57.948,0.295,-0.315
23:41:57.952,0.275,-0.36
23:41:57.956,0.345,-0.46
23:41:57.960,0.57,-0.65
23:41:57.964,0.91,-0.88
23:41:57.968,1.16,-1.155
23:41:57.972,1.255,-1.29
23:41:57.976,1.065,-1.255
23:41:57.980,0.63,-0.965
23:41:57.984,0.165,-0.59
23:41:57.988,-0.1,-0.35
23:41:57.992,-0.225,-0.21
23:41:57.996,-0.305,-0.135
23:41:58.000,-0.345,-0.1
23:41:58.004,-0.37,-0.07
23:41:58.008,-0.43,-0.07
23:41:58.012,-0.465,-0.1
23:41:58.016,-0.49,-0.13
23:41:58.020,-0.505,-0.13
23:41:58.024,-0.52,-0.12
23:41:58.028,-0.53,-0.145
23:41:58.032,-0.53,-0.17
23:41:58.036,-0.545,-0.155
23:41:58.040,-0.55,-0.16
23:41:58.044,-0.565,-0.155
23:41:58.048,-0.555,-0.145
23:41:58.052,-0.545,-0.15
23:41:58.056,-0.565,-0.12
23:41:58.060,-0.57,-0.13
23:41:58.064,-0.56,-0.105
23:41:58.068,-0.555,-0.105
23:41:58.072,-0.545,-0.12
23:41:58.076,-0.555,-0.11
23:41:58.080,-0.555,-0.105
23:41:58.084,-0.56,-0.1
23:41:58.088,-0.54,-0.075
23:41:58.092,-0.52,-0.09
23:41:58.096,-0.53,-0.085
23:41:58.100,-0.575,-0.08
23:41:58.104,-0.55,-0.075
23:41:58.108,-0.555,-0.055
23:41:58.112,-0.575,-0.05
23:41:58.116,-0.57,-0.065
23:41:58.120,-0.56,-0.065
23:41:58.124,-0.565,-0.045
23:41:58.128,-0.59,-0.04
23:41:58.132,-0.6,-0.035
23:41:58.136,-0.605,-0.04
23:41:58.140,-0.6,-0.045
23:41:58.144,-0.595,-0.025
23:41:58.148,-0.58,-0.055
23:41:58.152,-0.575,-0.035
23:41:58.156,-0.555,-0.04
23:41:58.160,-0.555,-0.04
23:41:58.164,-0.515,-0.055
23:41:58.168,-0.52,-0.025
23:41:58.172,-0.505,-0.025
23:41:58.176,-0.47,0.01
23:41:58.180,-0.465,0.01
23:41:58.184,-0.415,0.035
23:41:58.188,-0.41,0.025
23:41:58.192,-0.42,0.03
23:41:58.196,-0.425,0.035
23:41:58.200,-0.42,0.025
23:41:58.204,-0.38,0.01
23:41:58.208,-0.39,0.015
23:41:58.212,-0.41,-0.025
23:41:58.216,-0.385,-0.02
23:41:58.220,-0.405,-0.065
23:41:58.224,-0.385,-0.055
23:41:58.228,-0.37,-0.07
23:41:58.232,-0.37,-0.085
23:41:58.236,-0.37,-0.08
23:41:58.240,-0.375,-0.075
23:41:58.244,-0.36,-0.065
23:41:58.248,-0.365,-0.06
23:41:58.252,-0.35,-0.06
23:41:58.256,-0.36,-0.08
23:41:58.260,-0.36,-0.085
23:41:58.264,-0.365,-0.075
23:41:58.268,-0.35,-0.065
23:41:58.272,-0.355,-0.09
23:41:58.276,-0.35,-0.07
23:41:58.280,-0.345,-0.07
23:41:58.284,-0.335,-0.045
23:41:58.288,-0.36,-0.055
23:41:58.292,-0.345,-0.045
23:41:58.296,-0.34,-0.025
23:41:58.300,-0.32,-0.025
23:41:58.304,-0.32,-0.015
23:41:58.308,-0.32,-0.005
23:41:58.312,-0.335,0.0
23:41:58.316,-0.315,0.015
23:41:58.320,-0.325,-0.015
23:41:58.324,-0.345,0.02
23:41:58.328,-0.355,-0.005
23:41:58.332,-0.365,0.0
23:41:58.336,-0.4,0.015
23:41:58.340,-0.4,0.005
23:41:58.344,-0.385,0.005
23:41:58.348,-0.42,0.01
23:41:58.352,-0.41,-0.015
23:41:58.356,-0.4,0.0
23:41:58.360,-0.395,-0.015
23:41:58.364,-0.37,-0.015
23:41:58.368,-0.38,-0.045
23:41:58.372,-0.355,-0.035
23:41:58.376,-0.35,-0.01
23:41:58.380,-0.37,-0.005
23:41:58.384,-0.36,0.0
23:41:58.388,-0.37,0.005
23:41:58.392,-0.375,0.02
23:41:58.396,-0.36,0.02
23:41:58.400,-0.33,0.03
23:41:58.404,-0.31,0.04
23:41:58.408,-0.275,0.065
23:41:58.412,-0.275,0.065
23:41:58.416,-0.275,0.095
23:41:58.420,-0.28,0.09
23:41:58.424,-0.275,0.085
23:41:58.428,-0.305,0.115
23:41:58.432,-0.295,0.13
23:41:58.436,-0.285,0.13
23:41:58.440,-0.26,0.14
23:41:58.444,-0.24,0.115
23:41:58.448,-0.275,0.12
23:41:58.452,-0.265,0.1
23:41:58.456,-0.28,0.065
23:41:58.460,-0.29,0.06
23:41:58.464,-0.28,0.03
23:41:58.468,-0.275,0.04
23:41:58.472,-0.3,0.025
23:41:58.476,-0.31,0.005
23:41:58.480,-0.31,0.01
23:41:58.484,-0.31,0.01
23:41:58.488,-0.28,-0.035
23:41:58.492,-0.24,0.0
23:41:58.496,-0.2,-0.01
23:41:58.500,-0.105,-0.04
23:41:58.504,-0.01,-0.045
23:41:58.508,0.04,-0.05
23:41:58.512,0.095,-0.09
23:41:58.516,0.12,-0.105
23:41:58.520,0.105,-0.11
23:41:58.524,0.06,-0.11
23:41:58.528,0.025,-0.145
23:41:58.532,0.115,-0.24
23:41:58.536,0.335,-0.385
23:41:58.540,0.655,-0.62
23:41:58.544,0.965,-0.895
23:41:58.548,1.15,-1.11
23:41:58.552,1.08,-1.14
23:41:58.556,0.7,-0.94
23:41:58.560,0.215,-0.56
23:41:58.564,-0.12,-0.235
23:41:58.568,-0.315,-0.015
23:41:58.572,-0.405,0.065
23:41:58.576,-0.455,0.115
23:41:58.580,-0.505,0.125
23:41:58.584,-0.535,0.14
23:41:58.588,-0.56,0.14
23:41:58.592,-0.61,0.12
23:41:58.596,-0.615,0.09
23:41:58.600,-0.6,0.08
23:41:58.604,-0.615,0.06
23:41:58.608,-0.64,0.07
23:41:58.612,-0.63,0.04
23:41:58.616,-0.645,0.06
23:41:58.620,-0.62,0.065
23:41:58.624,-0.62,0.075
23:41:58.628,-0.59,0.075
23:41:58.632,-0.585,0.075
23:41:58.636,-0.55,0.095
23:41:58.640,-0.54,0.12
23:41:58.644,-0.545,0.135
23:41:58.648,-0.545,0.155
23:41:58.652,-0.575,0.16
23:41:58.656,-0.595,0.17
23:41:58.660,-0.61,0.195
23:41:58.664,-0.62,0.19
23:41:58.668,-0.625,0.185
23:41:58.672,-0.63,0.195
23:41:58.676,-0.62,0.185
23:41:58.680,-0.6,0.175
23:41:58.684,-0.56,0.155
23:41:58.688,-0.57,0.16
23:41:58.692,-0.555,0.135
23:41:58.696,-0.565,0.1
23:41:58.700,-0.57,0.09
23:41:58.704,-0.565,0.09
23:41:58.708,-0.585,0.085
23:41:58.712,-0.57,0.085
23:41:58.716,-0.585,0.07
23:41:58.720,-0.565,0.055
23:41:58.724,-0.565,0.055
23:41:58.728,-0.555,0.06
23:41:58.732,-0.525,0.035
23:41:58.736,-0.51,0.04
23:41:58.740,-0.495,0.04
23:41:58.744,-0.48,0.035
23:41:58.748,-0.49,0.02
23:41:58.752,-0.49,0.035
23:41:58.756,-0.48,0.015
23:41:58.760,-0.47,0.005
23:41:58.764,-0.475,0.0
23:41:58.768,-0.475,0.005
23:41:58.772,-0.47,0.0
23:41:58.776,-0.47,0.005
23:41:58.780,-0.465,-0.01
23:41:58.784,-0.45,-0.015
23:41:58.788,-0.48,-0.02
23:41:58.792,-0.45,-0.025
23:41:58.796,-0.48,-0.02
23:41:58.800,-0.48,-0.02
23:41:58.804,-0.47,-0.02
23:41:58.808,-0.445,-0.015
23:41:58.812,-0.46,-0.005
23:41:58.816,-0.435,0.005
23:41:58.820,-0.43,-0.015
23:41:58.824,-0.43,0.005
23:41:58.828,-0.425,-0.01
23:41:58.832,-0.435,-0.015
23:41:58.836,-0.42,0.005
23:41:58.840,-0.41,0.015
23:41:58.844,-0.41,0.015
23:41:58.848,-0.37,0.025
23:41:58.852,-0.36,0.03
23:41:58.856,-0.345,0.09
23:41:58.860,-0.35,0.095
23:41:58.864,-0.34,0.125
23:41:58.868,-0.33,0.13
23:41:58.872,-0.33,0.135
23:41:58.876,-0.315,0.13
23:41:58.880,-0.32,0.175
23:41:58.884,-0.33,0.15
23:41:58.888,-0.335,0.175
23:41:58.892,-0.37,0.17
23:41:58.896,-0.415,0.185
23:41:58.900,-0.445,0.165
23:41:58.904,-0.465,0.175
23:41:58.908,-0.44,0.205
23:41:58.912,-0.43,0.205
23:41:58.916,-0.415,0.175
23:41:58.920,-0.385,0.15
23:41:58.924,-0.35,0.15
23:41:58.928,-0.315,0.13
23:41:58.932,-0.32,0.13
23:41:58.936,-0.32,0.1
23:41:58.940,-0.32,0.115
23:41:58.944,-0.31,0.115
23:41:58.948,-0.3,0.07
23:41:58.952,-0.3,0.085
23:41:58.956,-0.28,0.08
23:41:58.960,-0.255,0.08
23:41:58.964,-0.27,0.07
23:41:58.968,-0.275,0.07
23:41:58.972,-0.285,0.04
23:41:58.976,-0.29,0.055
23:41:58.980,-0.29,0.05
23:41:58.984,-0.265,0.05
23:41:58.988,-0.22,0.04
23:41:58.992,-0.175,0.04
23:41:58.996,-0.12,0.01
23:41:59.000,-0.065,0.03
23:41:59.004,-0.01,0.015
23:41:59.008,0.015,0.0
23:41:59.012,0.015,-0.035
23:41:59.016,0.0,-0.04
23:41:59.020,-0.005,-0.045
23:41:59.024,-0.075,-0.085
23:41:59.028,-0.055,-0.11
23:41:59.032,0.145,-0.255
23:41:59.036,0.455,-0.44
23:41:59.040,0.815,-0.73
23:41:59.044,1.06,-1.0
23:41:59.048,1.115,-1.1
23:41:59.052,0.88,-1.0
23:41:59.056,0.4,-0.685
23:41:59.060,-0.02,-0.29
23:41:59.064,-0.23,0.005
23:41:59.068,-0.365,0.15
23:41:59.072,-0.44,0.215
23:41:59.076,-0.44,0.24
23:41:59.080,-0.49,0.215
23:41:59.084,-0.515,0.215
23:41:59.088,-0.5,0.215
23:41:59.092,-0.49,0.215
23:41:59.096,-0.5,0.23
23:41:59.100,-0.505,0.205
23:41:59.104,-0.505,0.21
23:41:59.108,-0.49,0.205
23:41:59.112,-0.52,0.2
23:41:59.116,-0.505,0.2
23:41:59.120,-0.525,0.235
23:41:59.124,-0.55,0.245
23:41:59.128,-0.56,0.25
23:41:59.132,-0.59,0.275
23:41:59.136,-0.62,0.255
23:41:59.140,-0.625,0.24
23:41:59.144,-0.635,0.225
23:41:59.148,-0.61,0.205
23:41:59.152,-0.57,0.205
23:41:59.156,-0.555,0.185
23:41:59.160,-0.545,0.16
23:41:59.164,-0.545,0.15
23:41:59.168,-0.54,0.14
23:41:59.172,-0.515,0.155
23:41:59.176,-0.53,0.13
23:41:59.180,-0.53,0.13
23:41:59.184,-0.54,0.11
23:41:59.188,-0.535,0.12
23:41:59.192,-0.52,0.1
23:41:59.196,-0.545,0.105
23:41:59.200,-0.56,0.07
23:41:59.204,-0.575,0.08
23:41:59.208,-0.555,0.065
23:41:59.212,-0.55,0.075
23:41:59.216,-0.555,0.07
23:41:59.220,-0.565,0.05
23:41:59.224,-0.56,0.05
23:41:59.228,-0.55,0.045
23:41:59.232,-0.57,0.025
23:41:59.236,-0.56,0.035
23:41:59.240,-0.535,0.02
23:41:59.244,-0.55,0.005
23:41:59.248,-0.535,0.0
23:41:59.252,-0.53,-0.015
23:41:59.256,-0.525,-0.015
23:41:59.260,-0.525,-0.03
23:41:59.264,-0.505,-0.025
23:41:59.268,-0.49,-0.015
23:41:59.272,-0.5,-0.025
23:41:59.276,-0.505,-0.04
23:41:59.280,-0.525,-0.035
23:41:59.284,-0.5,-0.015
23:41:59.288,-0.46,-0.05
23:41:59.292,-0.46,-0.03
23:41:59.296,-0.455,-0.03
23:41:59.300,-0.435,-0.045
23:41:59.304,-0.425,-0.01
23:41:59.308,-0.43,-0.03
23:41:59.312,-0.45,-0.02
23:41:59.316,-0.425,-0.025
23:41:59.320,-0.42,-0.025
23:41:59.324,-0.415,-0.01
23:41:59.328,-0.395,0.02
23:41:59.332,-0.4,0.03
23:41:59.336,-0.36,0.04
23:41:59.340,-0.34,0.075
23:41:59.344,-0.34,0.09
23:41:59.348,-0.335,0.09
23:41:59.352,-0.32,0.075
23:41:59.356,-0.35,0.08
23:41:59.360,-0.365,0.085
23:41:59.364,-0.395,0.1
23:41:59.368,-0.42,0.08
23:41:59.372,-0.435,0.095
23:41:59.376,-0.44,0.1
23:41:59.380,-0.415,0.095
23:41:59.384,-0.39,0.065
23:41:59.388,-0.37,0.055
23:41:59.392,-0.36,0.025
23:41:59.396,-0.315,0.02
23:41:59.400,-0.31,0.02
23:41:59.404,-0.305,0.005
23:41:59.408,-0.305,0.01
23:41:59.412,-0.295,-0.015
23:41:59.416,-0.29,-0.01
23:41:59.420,-0.27,-0.015
23:41:59.424,-0.275,-0.045
23:41:59.428,-0.245,-0.035
23:41:59.432,-0.24,-0.05
23:41:59.436,-0.245,-0.085
23:41:59.440,-0.26,-0.075
23:41:59.444,-0.275,-0.08
23:41:59.448,-0.3,-0.11
23:41:59.452,-0.31,-0.115
23:41:59.456,-0.305,-0.1
23:41:59.460,-0.32,-0.125
23:41:59.464,-0.285,-0.145
23:41:59.468,-0.29,-0.145
23:41:59.472,-0.26,-0.135
23:41:59.476,-0.235,-0.15
23:41:59.480,-0.21,-0.125
23:41:59.484,-0.14,-0.145
23:41:59.488,-0.05,-0.16
23:41:59.492,0.035,-0.195
23:41:59.496,0.08,-0.195
23:41:59.500,0.16,-0.245
23:41:59.504,0.19,-0.255
23:41:59.508,0.2,-0.2
23:41:59.512,0.135,-0.21
23:41:59.516,0.095,-0.22
23:41:59.520,0.19,-0.27
23:41:59.524,0.425,-0.415
23:41:59.528,0.75,-0.655
23:41:59.532,1.04,-0.965
23:41:59.536,1.09,-1.135
23:41:59.540,0.835,-1.155
23:41:59.544,0.39,-0.925
23:41:59.548,-0.025,-0.555
23:41:59.552,-0.24,-0.3
23:41:59.556,-0.345,-0.16
23:41:59.560,-0.39,-0.06
23:41:59.564,-0.4,-0.015
23:41:59.568,-0.41,0.0
23:41:59.572,-0.425,0.01
23:41:59.576,-0.445,0.0
23:41:59.580,-0.465,-0.055
23:41:59.584,-0.485,-0.07
23:41:59.588,-0.5,-0.085
23:41:59.592,-0.52,-0.095
23:41:59.596,-0.53,-0.105
23:41:59.600,-0.555,-0.105
23:41:59.604,-0.575,-0.11
23:41:59.608,-0.58,-0.095
23:41:59.612,-0.575,-0.105
23:41:59.616,-0.59,-0.09
23:41:59.620,-0.565,-0.11
23:41:59.624,-0.525,-0.115
23:41:59.628,-0.535,-0.115
23:41:59.632,-0.53,-0.14
23:41:59.636,-0.53,-0.14
23:41:59.640,-0.53,-0.155
23:41:59.644,-0.535,-0.16
23:41:59.648,-0.52,-0.175
23:41:59.652,-0.525,-0.185
23:41:59.656,-0.515,-0.225
23:41:59.660,-0.505,-0.22
23:41:59.664,-0.51,-0.22
23:41:59.668,-0.53,-0.23
23:41:59.672,-0.55,-0.25
23:41:59.676,-0.57,-0.24
23:41:59.680,-0.57,-0.255
23:41:59.684,-0.57,-0.27
23:41:59.688,-0.595,-0.275
23:41:59.692,-0.585,-0.3
23:41:59.696,-0.58,-0.275
23:41:59.700,-0.56,-0.275
23:41:59.704,-0.58,-0.29
23:41:59.708,-0.565,-0.27
23:41:59.712,-0.575,-0.27
23:41:59.716,-0.58,-0.295
23:41:59.720,-0.585,-0.295
23:41:59.724,-0.545,-0.31
23:41:59.728,-0.565,-0.305
23:41:59.732,-0.555,-0.295
23:41:59.736,-0.54,-0.315
23:41:59.740,-0.53,-0.3
23:41:59.744,-0.53,-0.29
23:41:59.748,-0.52,-0.29
23:41:59.752,-0.52,-0.29
23:41:59.756,-0.545,-0.32
23:41:59.760,-0.52,-0.32
23:41:59.764,-0.495,-0.325
23:41:59.768,-0.5,-0.34
23:41:59.772,-0.485,-0.33
23:41:59.776,-0.465,-0.34
23:41:59.780,-0.48,-0.34
23:41:59.784,-0.465,-0.345
23:41:59.788,-0.435,-0.315
23:41:59.792,-0.4,-0.295
23:41:59.796,-0.36,-0.295
23:41:59.800,-0.345,-0.305
23:41:59.804,-0.29,-0.275
23:41:59.808,-0.285,-0.28
23:41:59.812,-0.285,-0.275
23:41:59.816,-0.305,-0.265
23:41:59.820,-0.345,-0.26
23:41:59.824,-0.33,-0.265
23:41:59.828,-0.335,-0.245
23:41:59.832,-0.36,-0.24
23:41:59.836,-0.365,-0.235
23:41:59.840,-0.375,-0.23
23:41:59.844,-0.395,-0.2
23:41:59.848,-0.39,-0.215
23:41:59.852,-0.4,-0.21
23:41:59.856,-0.385,-0.22
23:41:59.860,-0.37,-0.2
23:41:59.864,-0.395,-0.225
23:41:59.868,-0.385,-0.23
23:41:59.872,-0.35,-0.225
23:41:59.876,-0.34,-0.225
23:41:59.880,-0.34,-0.255
23:41:59.884,-0.345,-0.265
23:41:59.888,-0.33,-0.275
23:41:59.892,-0.37,-0.29
23:41:59.896,-0.385,-0.275
23:41:59.900,-0.38,-0.3
23:41:59.904,-0.365,-0.315
23:41:59.908,-0.36,-0.32
23:41:59.912,-0.35,-0.32
23:41:59.916,-0.34,-0.32
23:41:59.920,-0.355,-0.325
23:41:59.924,-0.375,-0.34
23:41:59.928,-0.355,-0.315
23:41:59.932,-0.355,-0.315
23:41:59.936,-0.335,-0.3
23:41:59.940,-0.335,-0.305
23:41:59.944,-0.345,-0.295
23:41:59.948,-0.33,-0.335
23:41:59.952,-0.335,-0.335
23:41:59.956,-0.345,-0.29
23:41:59.960,-0.35,-0.275
23:41:59.964,-0.34,-0.27
23:41:59.968,-0.355,-0.265
23:41:59.972,-0.35,-0.26
23:41:59.976,-0.365,-0.28
23:41:59.980,-0.35,-0.295
23:41:59.984,-0.375,-0.25
23:41:59.988,-0.375,-0.265
23:41:59.992,-0.35,-0.26
23:41:59.996,-0.36,-0.275
23:42:00.000,-0.365,-0.245
23:42:00.004,-0.36,-0.27
23:42:00.008,-0.35,-0.25
23:42:00.012,-0.35,-0.24
23:42:00.016,-0.285,-0.235
23:42:00.020,-0.255,-0.235
23:42:00.024,-0.2,-0.225
23:42:00.028,-0.09,-0.23
23:42:00.032,0.02,-0.19
23:42:00.036,0.135,-0.2
23:42:00.040,0.18,-0.23
23:42:00.044,0.25,-0.245
23:42:00.048,0.315,-0.235
23:42:00.052,0.305,-0.205
23:42:00.056,0.26,-0.185
23:42:00.060,0.215,-0.225
23:42:00.064,0.335,-0.325
23:42:00.068,0.585,-0.495
23:42:00.072,0.915,-0.735
23:42:00.076,1.16,-0.965
23:42:00.080,1.18,-1.11
23:42:00.084,0.865,-1.055
23:42:00.088,0.395,-0.745
23:42:00.092,-0.005,-0.395
23:42:00.096,-0.215,-0.16
23:42:00.100,-0.31,-0.04
23:42:00.104,-0.34,0.05
23:42:00.108,-0.385,0.1
23:42:00.112,-0.425,0.11
23:42:00.116,-0.48,0.08
23:42:00.120,-0.495,0.07
23:42:00.124,-0.495,0.045
23:42:00.128,-0.495,0.005
23:42:00.132,-0.49,-0.005
23:42:00.136,-0.49,-0.04
23:42:00.140,-0.505,-0.04
23:42:00.144,-0.495,-0.035
23:42:00.148,-0.51,-0.045
23:42:00.152,-0.51,-0.055
23:42:00.156,-0.515,-0.055
23:42:00.160,-0.505,-0.05
23:42:00.164,-0.5,-0.05
23:42:00.168,-0.48,-0.045
23:42:00.172,-0.485,-0.06
23:42:00.176,-0.48,-0.03
23:42:00.180,-0.49,0.0
23:42:00.184,-0.52,-0.04
23:42:00.188,-0.53,-0.03
23:42:00.192,-0.55,-0.03
23:42:00.196,-0.545,-0.03
23:42:00.200,-0.54,-0.015
23:42:00.204,-0.555,-0.045
23:42:00.208,-0.56,-0.03
23:42:00.212,-0.575,-0.025
23:42:00.216,-0.575,-0.025
23:42:00.220,-0.625,-0.035
23:42:00.224,-0.6,-0.03
23:42:00.228,-0.61,-0.01
23:42:00.232,-0.625,-0.02
23:42:00.236,-0.61,-0.04
23:42:00.240,-0.59,-0.045
23:42:00.244,-0.58,-0.03
23:42:00.248,-0.565,-0.05
23:42:00.252,-0.55,-0.03
23:42:00.256,-0.525,-0.06
23:42:00.260,-0.51,-0.045
23:42:00.264,-0.47,-0.02
23:42:00.268,-0.45,0.0
23:42:00.272,-0.435,-0.005
23:42:00.276,-0.41,0.02
23:42:00.280,-0.38,0.03
23:42:00.284,-0.39,0.065
23:42:00.288,-0.38,0.065
23:42:00.292,-0.375,0.08
23:42:00.296,-0.38,0.075
23:42:00.300,-0.405,0.07
23:42:00.304,-0.42,0.055
23:42:00.308,-0.44,0.075
23:42:00.312,-0.43,0.085
23:42:00.316,-0.44,0.055
23:42:00.320,-0.425,0.055
23:42:00.324,-0.405,0.055
23:42:00.328,-0.41,0.05
23:42:00.332,-0.425,0.05
23:42:00.336,-0.425,0.06
23:42:00.340,-0.42,0.03
23:42:00.344,-0.415,0.035
23:42:00.348,-0.415,0.045
23:42:00.352,-0.41,0.04
23:42:00.356,-0.415,0.04
23:42:00.360,-0.395,0.02
23:42:00.364,-0.36,0.035
23:42:00.368,-0.36,0.01
23:42:00.372,-0.345,0.03
23:42:00.376,-0.325,0.025
23:42:00.380,-0.335,0.005
23:42:00.384,-0.3,0.0
23:42:00.388,-0.3,0.0
23:42:00.392,-0.29,0.015
23:42:00.396,-0.305,0.005
23:42:00.400,-0.305,0.0
23:42:00.404,-0.27,0.01
23:42:00.408,-0.285,0.01
23:42:00.412,-0.28,0.0
23:42:00.416,-0.305,0.0
23:42:00.420,-0.32,-0.015
23:42:00.424,-0.32,0.005
23:42:00.428,-0.335,0.0
23:42:00.432,-0.335,-0.01
23:42:00.436,-0.36,0.0
23:42:00.440,-0.35,0.035
23:42:00.444,-0.365,0.03
23:42:00.448,-0.37,0.025
23:42:00.452,-0.365,0.0
23:42:00.456,-0.365,0.005
23:42:00.460,-0.37,-0.005
23:42:00.464,-0.345,0.0
23:42:00.468,-0.32,0.0
23:42:00.472,-0.32,-0.01
23:42:00.476,-0.33,-0.02
23:42:00.480,-0.32,-0.01
23:42:00.484,-0.32,-0.015
23:42:00.488,-0.31,-0.01
23:42:00.492,-0.285,-0.01
23:42:00.496,-0.25,-0.01
23:42:00.500,-0.215,0.0
23:42:00.504,-0.175,0.01
23:42:00.508,-0.1,0.025
23:42:00.512,-0.02,0.02
23:42:00.516,0.07,0.035
23:42:00.520,0.145,0.0
23:42:00.524,0.18,0.005
23:42:00.528,0.185,-0.02
23:42:00.532,0.185,-0.025
23:42:00.536,0.15,-0.01
23:42:00.540,0.1,0.02
23:42:00.544,0.105,-0.025
23:42:00.548,0.23,-0.145
23:42:00.552,0.455,-0.34
23:42:00.556,0.82,-0.62
23:42:00.560,1.13,-0.89
23:42:00.564,1.2,-1.075
23:42:00.568,1.005,-1.025
23:42:00.572,0.575,-0.73
23:42:00.576,0.155,-0.32
23:42:00.580,-0.115,0.005
23:42:00.584,-0.24,0.17
23:42:00.588,-0.32,0.235
23:42:00.592,-0.35,0.275
23:42:00.596,-0.405,0.25
23:42:00.600,-0.425,0.24
23:42:00.604,-0.45,0.23
23:42:00.608,-0.46,0.22
23:42:00.612,-0.475,0.22
23:42:00.616,-0.49,0.18
23:42:00.620,-0.49,0.165
23:42:00.624,-0.505,0.155
23:42:00.628,-0.505,0.145
23:42:00.632,-0.505,0.135
23:42:00.636,-0.5,0.16
23:42:00.640,-0.53,0.15
23:42:00.644,-0.55,0.125
23:42:00.648,-0.56,0.135
23:42:00.652,-0.585,0.145
23:42:00.656,-0.625,0.11
23:42:00.660,-0.635,0.125
23:42:00.664,-0.65,0.125
23:42:00.668,-0.635,0.095
23:42:00.672,-0.635,0.08
23:42:00.676,-0.615,0.105
23:42:00.680,-0.615,0.09
23:42:00.684,-0.64,0.09
23:42:00.688,-0.64,0.08
23:42:00.692,-0.635,0.085
23:42:00.696,-0.635,0.08
23:42:00.700,-0.64,0.05
23:42:00.704,-0.635,0.03
23:42:00.708,-0.64,0.015
23:42:00.712,-0.65,0.0
23:42:00.716,-0.64,0.01
23:42:00.720,-0.635,0.025
23:42:00.724,-0.61,0.035
23:42:00.728,-0.58,0.025
23:42:00.732,-0.58,0.015
23:42:00.736,-0.55,0.035
23:42:00.740,-0.52,0.025
23:42:00.744,-0.51,0.03
23:42:00.748,-0.46,0.045
23:42:00.752,-0.445,0.04
23:42:00.756,-0.435,0.03
23:42:00.760,-0.43,0.03
23:42:00.764,-0.41,0.055
23:42:00.768,-0.395,0.065
23:42:00.772,-0.4,0.07
23:42:00.776,-0.375,0.085
23:42:00.780,-0.365,0.075
23:42:00.784,-0.375,0.085
23:42:00.788,-0.375,0.075
23:42:00.792,-0.35,0.08
23:42:00.796,-0.365,0.08
23:42:00.800,-0.38,0.07
23:42:00.804,-0.365,0.07
23:42:00.808,-0.36,0.08
23:42:00.812,-0.365,0.08
23:42:00.816,-0.36,0.1
23:42:00.820,-0.35,0.1
23:42:00.824,-0.335,0.1
23:42:00.828,-0.32,0.095
23:42:00.832,-0.305,0.12
23:42:00.836,-0.3,0.145
23:42:00.840,-0.295,0.11
23:42:00.844,-0.27,0.115
23:42:00.848,-0.295,0.125
23:42:00.852,-0.29,0.115
23:42:00.856,-0.29,0.115
23:42:00.860,-0.295,0.12
23:42:00.864,-0.3,0.11
23:42:00.868,-0.305,0.12
23:42:00.872,-0.32,0.11
23:42:00.876,-0.33,0.12
23:42:00.880,-0.32,0.105
23:42:00.884,-0.33,0.125
23:42:00.888,-0.33,0.1
23:42:00.892,-0.35,0.095
23:42:00.896,-0.365,0.09
23:42:00.900,-0.36,0.085
23:42:00.904,-0.335,0.085
23:42:00.908,-0.3,0.07
23:42:00.912,-0.235,0.065
23:42:00.916,-0.18,0.06
23:42:00.920,-0.135,0.055
23:42:00.924,-0.09,0.03
23:42:00.928,-0.11,0.03
23:42:00.932,-0.155,0.01
23:42:00.936,-0.235,0.035
23:42:00.940,-0.28,0.015
23:42:00.944,-0.235,-0.015
23:42:00.948,-0.01,-0.1
23:42:00.952,0.35,-0.275
23:42:00.956,0.73,-0.58
23:42:00.960,1.025,-0.885
23:42:00.964,1.145,-1.045
23:42:00.968,1.01,-0.995
23:42:00.972,0.61,-0.705
23:42:00.976,0.205,-0.265
23:42:00.980,-0.065,0.065
23:42:00.984,-0.18,0.205
23:42:00.988,-0.255,0.255
23:42:00.992,-0.305,0.285
23:42:00.996,-0.315,0.27
23:42:01.000,-0.345,0.27
23:42:01.004,-0.365,0.255
23:42:01.008,-0.375,0.275
23:42:01.012,-0.355,0.23
23:42:01.016,-0.355,0.225
23:42:01.020,-0.34,0.215
23:42:01.024,-0.32,0.23
23:42:01.028,-0.29,0.205
23:42:01.032,-0.295,0.225
23:42:01.036,-0.33,0.215
23:42:01.040,-0.375,0.185
23:42:01.044,-0.4,0.16
23:42:01.048,-0.4,0.15
23:42:01.052,-0.43,0.14
23:42:01.056,-0.48,0.145
23:42:01.060,-0.49,0.155
23:42:01.064,-0.495,0.17
23:42:01.068,-0.5,0.155
23:42:01.072,-0.49,0.17
23:42:01.076,-0.515,0.15
23:42:01.080,-0.5,0.14
23:42:01.084,-0.515,0.14
23:42:01.088,-0.525,0.145
23:42:01.092,-0.535,0.135
23:42:01.096,-0.525,0.13
23:42:01.100,-0.54,0.12
23:42:01.104,-0.56,0.12
23:42:01.108,-0.56,0.125
23:42:01.112,-0.57,0.115
23:42:01.116,-0.58,0.135
23:42:01.120,-0.595,0.105
23:42:01.124,-0.59,0.105
23:42:01.128,-0.595,0.1
23:42:01.132,-0.575,0.1
23:42:01.136,-0.58,0.075
23:42:01.140,-0.605,0.1
23:42:01.144,-0.61,0.085
23:42:01.148,-0.58,0.08
23:42:01.152,-0.6,0.09
23:42:01.156,-0.58,0.1
23:42:01.160,-0.56,0.105
23:42:01.164,-0.545,0.105
23:42:01.168,-0.53,0.105
23:42:01.172,-0.5,0.085
23:42:01.176,-0.49,0.095
23:42:01.180,-0.465,0.115
23:42:01.184,-0.465,0.095
23:42:01.188,-0.43,0.105
23:42:01.192,-0.43,0.115
23:42:01.196,-0.395,0.095
23:42:01.200,-0.395,0.085
23:42:01.204,-0.385,0.085
23:42:01.208,-0.35,0.09
23:42:01.212,-0.33,0.085
23:42:01.216,-0.32,0.065
23:42:01.220,-0.29,0.1
23:42:01.224,-0.26,0.075
23:42:01.228,-0.265,0.07
23:42:01.232,-0.255,0.11
23:42:01.236,-0.265,0.11
23:42:01.240,-0.24,0.125
23:42:01.244,-0.21,0.14
23:42:01.248,-0.195,0.165
23:42:01.252,-0.18,0.175
23:42:01.256,-0.195,0.19
23:42:01.260,-0.175,0.23
23:42:01.264,-0.165,0.215
23:42:01.268,-0.16,0.22
23:42:01.272,-0.21,0.235
23:42:01.276,-0.24,0.225
23:42:01.280,-0.24,0.215
23:42:01.284,-0.22,0.195
23:42:01.288,-0.2,0.185
23:42:01.292,-0.18,0.16
23:42:01.296,-0.16,0.165
23:42:01.300,-0.175,0.14
23:42:01.304,-0.16,0.135
23:42:01.308,-0.155,0.125
23:42:01.312,-0.14,0.13
23:42:01.316,-0.175,0.105
23:42:01.320,-0.185,0.105
23:42:01.324,-0.195,0.105
23:42:01.328,-0.2,0.1
23:42:01.332,-0.205,0.08
23:42:01.336,-0.215,0.055
23:42:01.340,-0.205,0.065
23:42:01.344,-0.22,0.05
23:42:01.348,-0.25,0.055
23:42:01.352,-0.255,0.03
23:42:01.356,-0.29,0.03
23:42:01.360,-0.295,0.05
23:42:01.364,-0.31,0.03
23:42:01.368,-0.31,0.05
23:42:01.372,-0.3,0.04
23:42:01.376,-0.335,0.03
23:42:01.380,-0.34,0.02
23:42:01.384,-0.33,0.015
23:42:01.388,-0.33,0.035
23:42:01.392,-0.315,0.045
23:42:01.396,-0.3,0.045
23:42:01.400,-0.31,0.05
23:42:01.404,-0.325,0.065
23:42:01.408,-0.31,0.05
23:42:01.412,-0.325,0.06
23:42:01.416,-0.325,0.06
23:42:01.420,-0.34,0.06
23:42:01.424,-0.34,0.05
23:42:01.428,-0.33,0.045
23:42:01.432,-0.32,0.06
23:42:01.436,-0.31,0.035
23:42:01.440,-0.32,0.025
23:42:01.444,-0.31,0.05
23:42:01.448,-0.325,0.025
23:42:01.452,-0.315,0.03
23:42:01.456,-0.32,0.02
23:42:01.460,-0.295,0.035
23:42:01.464,-0.285,0.025
23:42:01.468,-0.26,0.015
23:42:01.472,-0.265,0.03
23:42:01.476,-0.25,0.03
23:42:01.480,-0.245,0.035
23:42:01.484,-0.22,0.04
23:42:01.488,-0.2,0.06
23:42:01.492,-0.19,0.07
23:42:01.496,-0.2,0.065
23:42:01.500,-0.21,0.1
23:42:01.504,-0.215,0.09
23:42:01.508,-0.23,0.12
23:42:01.512,-0.225,0.115
23:42:01.516,-0.255,0.08
23:42:01.520,-0.255,0.085
23:42:01.524,-0.245,0.055
23:42:01.528,-0.24,0.055
23:42:01.532,-0.24,0.055
23:42:01.536,-0.265,0.02
23:42:01.540,-0.285,0.0
23:42:01.544,-0.275,-0.015
23:42:01.548,-0.28,-0.04
23:42:01.552,-0.315,-0.03
23:42:01.556,-0.335,-0.045
23:42:01.560,-0.3,-0.065
23:42:01.564,-0.265,-0.06
23:42:01.568,-0.215,-0.095
23:42:01.572,-0.165,-0.1
23:42:01.576,-0.115,-0.09
23:42:01.580,-0.01,-0.1
23:42:01.584,0.065,-0.11
23:42:01.588,0.115,-0.15
23:42:01.592,0.16,-0.18
23:42:01.596,0.175,-0.165
23:42:01.600,0.17,-0.13
23:42:01.604,0.11,-0.155
23:42:01.608,0.13,-0.18
23:42:01.612,0.315,-0.295
23:42:01.616,0.605,-0.52
23:42:01.620,0.935,-0.785
23:42:01.624,1.145,-1.005
23:42:01.628,1.11,-1.105
23:42:01.632,0.795,-1.02
23:42:01.636,0.34,-0.705
23:42:01.640,-0.015,-0.35
23:42:01.644,-0.175,-0.16
23:42:01.648,-0.295,-0.015
23:42:01.652,-0.35,0.01
23:42:01.656,-0.41,0.045
23:42:01.660,-0.45,0.035
23:42:01.664,-0.475,0.005
23:42:01.668,-0.515,0.02
23:42:01.672,-0.545,0.0
23:42:01.676,-0.56,-0.05
23:42:01.680,-0.545,-0.055
23:42:01.684,-0.55,-0.045
23:42:01.688,-0.555,-0.07
23:42:01.692,-0.56,-0.055
23:42:01.696,-0.53,-0.075
23:42:01.700,-0.52,-0.08
23:42:01.704,-0.5,-0.07
23:42:01.708,-0.485,-0.055
23:42:01.712,-0.455,-0.06
23:42:01.716,-0.46,-0.055
23:42:01.720,-0.485,-0.04
23:42:01.724,-0.495,-0.045
23:42:01.728,-0.49,-0.03
23:42:01.732,-0.5,-0.01
23:42:01.736,-0.53,-0.01
23:42:01.740,-0.51,-0.015
23:42:01.744,-0.525,-0.025
23:42:01.748,-0.515,-0.03
23:42:01.752,-0.535,-0.02
23:42:01.756,-0.57,-0.06
23:42:01.760,-0.59,-0.065
23:42:01.764,-0.585,-0.075
23:42:01.768,-0.565,-0.085
23:42:01.772,-0.545,-0.115
23:42:01.776,-0.55,-0.105
23:42:01.780,-0.535,-0.135
23:42:01.784,-0.56,-0.13
23:42:01.788,-0.565,-0.155
23:42:01.792,-0.56,-0.16
23:42:01.796,-0.56,-0.16
23:42:01.800,-0.54,-0.16
23:42:01.804,-0.54,-0.17
23:42:01.808,-0.55,-0.185
23:42:01.812,-0.54,-0.175
23:42:01.816,-0.54,-0.18
23:42:01.820,-0.54,-0.18
23:42:01.824,-0.54,-0.185
23:42:01.828,-0.525,-0.195
23:42:01.832,-0.52,-0.19
23:42:01.836,-0.505,-0.2
23:42:01.840,-0.5,-0.205
23:42:01.844,-0.49,-0.2
23:42:01.848,-0.47,-0.21
23:42:01.852,-0.46,-0.22
23:42:01.856,-0.455,-0.205
23:42:01.860,-0.445,-0.2
23:42:01.864,-0.455,-0.21
23:42:01.868,-0.435,-0.23
23:42:01.872,-0.415,-0.24
23:42:01.876,-0.415,-0.24
23:42:01.880,-0.425,-0.24
23:42:01.884,-0.415,-0.25
23:42:01.888,-0.36,-0.24
23:42:01.892,-0.34,-0.255
23:42:01.896,-0.33,-0.245
23:42:01.900,-0.355,-0.255
23:42:01.904,-0.345,-0.245
23:42:01.908,-0.32,-0.24
23:42:01.912,-0.34,-0.245
23:42:01.916,-0.345,-0.23
23:42:01.920,-0.33,-0.235
23:42:01.924,-0.335,-0.24
23:42:01.928,-0.325,-0.225
23:42:01.932,-0.31,-0.215
23:42:01.936,-0.31,-0.22
23:42:01.940,-0.29,-0.225
23:42:01.944,-0.31,-0.205
23:42:01.948,-0.33,-0.205
23:42:01.952,-0.335,-0.19
23:42:01.956,-0.335,-0.155
23:42:01.960,-0.32,-0.145
23:42:01.964,-0.345,-0.16
23:42:01.968,-0.36,-0.14
23:42:01.972,-0.37,-0.15
23:42:01.976,-0.37,-0.135
23:42:01.980,-0.4,-0.15
23:42:01.984,-0.41,-0.15
23:42:01.988,-0.425,-0.155
23:42:01.992,-0.425,-0.145
23:42:01.996,-0.425,-0.18
23:42:02.000,-0.39,-0.17
23:42:02.004,-0.375,-0.21
23:42:02.008,-0.36,-0.22
23:42:02.012,-0.36,-0.22
23:42:02.016,-0.37,-0.24
23:42:02.020,-0.375,-0.235
23:42:02.024,-0.4,-0.235
23:42:02.028,-0.41,-0.24
23:42:02.032,-0.42,-0.255
23:42:02.036,-0.395,-0.255
23:42:02.040,-0.375,-0.26
23:42:02.044,-0.345,-0.235
23:42:02.048,-0.355,-0.23
23:42:02.052,-0.335,-0.24
23:42:02.056,-0.34,-0.235
23:42:02.060,-0.345,-0.21
23:42:02.064,-0.34,-0.205
23:42:02.068,-0.35,-0.2
23:42:02.072,-0.34,-0.22
23:42:02.076,-0.335,-0.24
23:42:02.080,-0.33,-0.215
23:42:02.084,-0.33,-0.215
23:42:02.088,-0.31,-0.215
23:42:02.092,-0.34,-0.19
23:42:02.096,-0.34,-0.195
23:42:02.100,-0.33,-0.225
23:42:02.104,-0.31,-0.205
23:42:02.108,-0.32,-0.205
23:42:02.112,-0.295,-0.21
23:42:02.116,-0.275,-0.21
23:42:02.120,-0.29,-0.2
23:42:02.124,-0.275,-0.215
23:42:02.128,-0.28,-0.21
23:42:02.132,-0.255,-0.19
23:42:02.136,-0.245,-0.19
23:42:02.140,-0.265,-0.185
23:42:02.144,-0.275,-0.18
23:42:02.148,-0.28,-0.185
23:42:02.152,-0.26,-0.18
23:42:02.156,-0.24,-0.175
23:42:02.160,-0.24,-0.17
23:42:02.164,-0.23,-0.14
23:42:02.168,-0.25,-0.155
23:42:02.172,-0.265,-0.145
23:42:02.176,-0.28,-0.13
23:42:02.180,-0.285,-0.13
23:42:02.184,-0.285,-0.13
23:42:02.188,-0.285,-0.135
23:42:02.192,-0.3,-0.1
23:42:02.196,-0.31,-0.115
23:42:02.200,-0.315,-0.11
23:42:02.204,-0.3,-0.1
23:42:02.208,-0.285,-0.095
23:42:02.212,-0.265,-0.095
23:42:02.216,-0.21,-0.1
23:42:02.220,-0.13,-0.095
23:42:02.224,-0.04,-0.1
23:42:02.228,0.02,-0.135
23:42:02.232,0.1,-0.18
23:42:02.236,0.155,-0.2
23:42:02.240,0.19,-0.215
23:42:02.244,0.165,-0.185
23:42:02.248,0.135,-0.195
23:42:02.252,0.18,-0.28
23:42:02.256,0.355,-0.4
23:42:02.260,0.66,-0.625
23:42:02.264,0.99,-0.89
23:42:02.268,1.185,-1.12
23:42:02.272,1.16,-1.21
23:42:02.276,0.825,-1.08
23:42:02.280,0.365,-0.72
23:42:02.284,0.015,-0.36
23:42:02.288,-0.17,-0.145
23:42:02.292,-0.25,-0.025
23:42:02.296,-0.32,0.07
23:42:02.300,-0.345,0.1
23:42:02.304,-0.365,0.13
23:42:02.308,-0.405,0.11
23:42:02.312,-0.42,0.09
23:42:02.316,-0.44,0.075
23:42:02.320,-0.46,0.045
23:42:02.324,-0.445,0.035
23:42:02.328,-0.44,0.025
23:42:02.332,-0.43,0.015
23:42:02.336,-0.455,0.035
23:42:02.340,-0.455,0.045
23:42:02.344,-0.435,0.015
23:42:02.348,-0.45,-0.01
23:42:02.352,-0.41,0.01
23:42:02.356,-0.44,0.01
23:42:02.360,-0.43,0.015
23:42:02.364,-0.445,0.035
23:42:02.368,-0.445,0.025
23:42:02.372,-0.445,0.025
23:42:02.376,-0.47,0.04
23:42:02.380,-0.475,0.025
23:42:02.384,-0.48,0.015
23:42:02.388,-0.46,0.03
23:42:02.392,-0.47,0.045
23:42:02.396,-0.48,0.025
23:42:02.400,-0.47,0.055
23:42:02.404,-0.465,0.07
23:42:02.408,-0.505,0.085
23:42:02.412,-0.485,0.07
23:42:02.416,-0.51,0.06
23:42:02.420,-0.545,0.05
23:42:02.424,-0.565,0.065
23:42:02.428,-0.58,0.06
23:42:02.432,-0.58,0.08
23:42:02.436,-0.58,0.065
23:42:02.440,-0.56,0.075
23:42:02.444,-0.565,0.085
23:42:02.448,-0.555,0.055
23:42:02.452,-0.56,0.075
23:42:02.456,-0.58,0.065
23:42:02.460,-0.57,0.065
23:42:02.464,-0.575,0.06
23:42:02.468,-0.59,0.03
23:42:02.472,-0.585,0.025
23:42:02.476,-0.555,0.005
23:42:02.480,-0.51,-0.02
23:42:02.484,-0.505,-0.015
23:42:02.488,-0.48,-0.03
23:42:02.492,-0.485,-0.03
23:42:02.496,-0.48,-0.015
23:42:02.500,-0.45,-0.03
23:42:02.504,-0.455,-0.025
23:42:02.508,-0.46,-0.01
23:42:02.512,-0.435,-0.025
23:42:02.516,-0.435,-0.035
23:42:02.520,-0.405,-0.015
23:42:02.524,-0.38,0.005
23:42:02.528,-0.365,-0.035
23:42:02.532,-0.36,-0.025
23:42:02.536,-0.35,-0.03
23:42:02.540,-0.355,-0.015
23:42:02.544,-0.335,-0.015
23:42:02.548,-0.305,-0.03
23:42:02.552,-0.285,-0.02
23:42:02.556,-0.29,-0.01
23:42:02.560,-0.275,-0.03
23:42:02.564,-0.28,-0.05
23:42:02.568,-0.26,-0.025
23:42:02.572,-0.27,-0.005
23:42:02.576,-0.27,0.01
23:42:02.580,-0.275,0.005
23:42:02.584,-0.27,0.03
23:42:02.588,-0.255,0.01
23:42:02.592,-0.26,0.02
23:42:02.596,-0.265,0.02
23:42:02.600,-0.27,0.01
23:42:02.604,-0.265,0.025
23:42:02.608,-0.265,0.035
23:42:02.612,-0.27,0.035
23:42:02.616,-0.26,0.04
23:42:02.620,-0.255,0.05
23:42:02.624,-0.245,0.04
23:42:02.628,-0.24,0.025
23:42:02.632,-0.255,0.04
23:42:02.636,-0.27,0.045
23:42:02.640,-0.29,0.055
23:42:02.644,-0.3,0.075
23:42:02.648,-0.315,0.055
23:42:02.652,-0.315,0.055
23:42:02.656,-0.305,0.03
23:42:02.660,-0.295,0.04
23:42:02.664,-0.305,0.055
23:42:02.668,-0.295,0.065
23:42:02.672,-0.31,0.05
23:42:02.676,-0.32,0.07
23:42:02.680,-0.32,0.05
23:42:02.684,-0.34,0.055
23:42:02.688,-0.33,0.045
23:42:02.692,-0.34,0.05
23:42:02.696,-0.325,0.07
23:42:02.700,-0.315,0.07
23:42:02.704,-0.29,0.055
23:42:02.708,-0.27,0.08
23:42:02.712,-0.27,0.065
23:42:02.716,-0.275,0.055
23:42:02.720,-0.28,0.035
23:42:02.724,-0.285,0.035
23:42:02.728,-0.305,0.03
23:42:02.732,-0.32,0.015
23:42:02.736,-0.335,0.015
23:42:02.740,-0.335,0.01
23:42:02.744,-0.34,0.0
23:42:02.748,-0.355,-0.005
23:42:02.752,-0.36,0.0
23:42:02.756,-0.37,-0.02
23:42:02.760,-0.37,-0.04
23:42:02.764,-0.36,-0.04
23:42:02.768,-0.375,-0.03
23:42:02.772,-0.37,-0.05
23:42:02.776,-0.36,-0.035
23:42:02.780,-0.34,-0.04
23:42:02.784,-0.315,-0.035
23:42:02.788,-0.32,-0.04
23:42:02.792,-0.335,-0.05
23:42:02.796,-0.32,-0.035
23:42:02.800,-0.34,-0.055
23:42:02.804,-0.33,-0.06
23:42:02.808,-0.335,-0.03
23:42:02.812,-0.33,-0.035
23:42:02.816,-0.33,0.0
23:42:02.820,-0.345,-0.015
23:42:02.824,-0.32,-0.01
23:42:02.828,-0.32,0.0
23:42:02.832,-0.305,-0.02
23:42:02.836,-0.295,-0.025
23:42:02.840,-0.295,0.0
23:42:02.844,-0.28,-0.005
23:42:02.848,-0.27,0.005
23:42:02.852,-0.26,0.01
23:42:02.856,-0.28,0.02
23:42:02.860,-0.285,0.025
23:42:02.864,-0.305,0.025
23:42:02.868,-0.315,0.025
23:42:02.872,-0.32,0.06
23:42:02.876,-0.32,0.04
23:42:02.880,-0.33,0.055
23:42:02.884,-0.325,0.04
23:42:02.888,-0.32,0.03
23:42:02.892,-0.35,0.03
23:42:02.896,-0.34,0.025
23:42:02.900,-0.345,0.015
23:42:02.904,-0.365,0.04
23:42:02.908,-0.36,0.025
23:42:02.912,-0.315,0.005
23:42:02.916,-0.25,0.015
23:42:02.920,-0.175,0.05
23:42:02.924,-0.065,0.03
23:42:02.928,-0.015,0.03
23:42:02.932,0.03,0.0
23:42:02.936,0.085,-0.01
23:42:02.940,0.085,-0.015
23:42:02.944,0.075,-0.01
23:42:02.948,0.03,-0.04
23:42:02.952,0.03,-0.125
23:42:02.956,0.165,-0.25
23:42:02.960,0.435,-0.425
23:42:02.964,0.8,-0.695
23:42:02.968,1.12,-0.995
23:42:02.972,1.245,-1.175
23:42:02.976,1.11,-1.17
23:42:02.980,0.715,-0.905
23:42:02.984,0.225,-0.495
23:42:02.988,-0.1,-0.16
23:42:02.992,-0.27,0.0
23:42:02.996,-0.34,0.09
23:42:03.000,-0.39,0.13
23:42:03.004,-0.415,0.12
23:42:03.008,-0.46,0.105
23:42:03.012,-0.49,0.1
23:42:03.016,-0.49,0.095
23:42:03.020,-0.525,0.05
23:42:03.024,-0.535,0.035
23:42:03.028,-0.525,0.05
23:42:03.032,-0.52,0.06
23:42:03.036,-0.52,0.035
23:42:03.040,-0.54,0.065
23:42:03.044,-0.545,0.045
23:42:03.048,-0.545,0.055
23:42:03.052,-0.53,0.075
23:42:03.056,-0.52,0.07
23:42:03.060,-0.52,0.07
23:42:03.064,-0.505,0.045
23:42:03.068,-0.49,0.05
23:42:03.072,-0.515,0.06
23:42:03.076,-0.545,0.085
23:42:03.080,-0.545,0.1
23:42:03.084,-0.555,0.11
23:42:03.088,-0.55,0.105
23:42:03.092,-0.565,0.115
23:42:03.096,-0.58,0.085
23:42:03.100,-0.565,0.095
23:42:03.104,-0.555,0.085
23:42:03.108,-0.57,0.095
23:42:03.112,-0.575,0.11
23:42:03.116,-0.57,0.09
23:42:03.120,-0.58,0.11
23:42:03.124,-0.605,0.085
23:42:03.128,-0.585,0.095
23:42:03.132,-0.585,0.095
23:42:03.136,-0.595,0.09
23:42:03.140,-0.595,0.08
23:42:03.144,-0.58,0.1
23:42:03.148,-0.58,0.085
23:42:03.152,-0.61,0.085
23:42:03.156,-0.595,0.08
23:42:03.160,-0.6,0.08
23:42:03.164,-0.56,0.08
23:42:03.168,-0.525,0.07
23:42:03.172,-0.53,0.065
23:42:03.176,-0.515,0.05
23:42:03.180,-0.53,0.065
23:42:03.184,-0.525,0.055
23:42:03.188,-0.525,0.055
23:42:03.192,-0.53,0.025
23:42:03.196,-0.51,0.015
23:42:03.200,-0.485,0.01
23:42:03.204,-0.48,0.0
23:42:03.208,-0.47,-0.01
23:42:03.212,-0.455,-0.005
23:42:03.216,-0.445,-0.01
23:42:03.220,-0.42,-0.02
23:42:03.224,-0.4,-0.025
23:42:03.228,-0.4,-0.05
23:42:03.232,-0.4,-0.045
23:42:03.236,-0.37,-0.04
23:42:03.240,-0.34,-0.055
23:42:03.244,-0.335,-0.03
23:42:03.248,-0.305,-0.045
23:42:03.252,-0.285,-0.02
23:42:03.256,-0.27,-0.02
23:42:03.260,-0.255,0.0
23:42:03.264,-0.23,-0.01
23:42:03.268,-0.215,-0.005
23:42:03.272,-0.205,0.0
23:42:03.276,-0.22,0.015
23:42:03.280,-0.17,0.02
23:42:03.284,-0.18,0.035
23:42:03.288,-0.175,0.055
23:42:03.292,-0.2,0.04
23:42:03.296,-0.21,0.07
23:42:03.300,-0.215,0.09
23:42:03.304,-0.225,0.09
23:42:03.308,-0.245,0.11
23:42:03.312,-0.23,0.09
23:42:03.316,-0.245,0.09
23:42:03.320,-0.27,0.1
23:42:03.324,-0.28,0.095
23:42:03.328,-0.3,0.08
23:42:03.332,-0.29,0.08
23:42:03.336,-0.3,0.075
23:42:03.340,-0.32,0.085
23:42:03.344,-0.335,0.07
23:42:03.348,-0.35,0.065
23:42:03.352,-0.36,0.08
23:42:03.356,-0.32,0.075
23:42:03.360,-0.315,0.045
23:42:03.364,-0.305,0.06
23:42:03.368,-0.335,0.065
23:42:03.372,-0.36,0.06
23:42:03.376,-0.36,0.065
23:42:03.380,-0.37,0.035
23:42:03.384,-0.37,0.05
23:42:03.388,-0.36,0.02
23:42:03.392,-0.35,0.02
23:42:03.396,-0.34,-0.005
23:42:03.400,-0.335,0.0
23:42:03.404,-0.33,-0.035
23:42:03.408,-0.325,-0.02
23:42:03.412,-0.34,-0.035
23:42:03.416,-0.375,-0.065
23:42:03.420,-0.38,-0.06
23:42:03.424,-0.365,-0.05
23:42:03.428,-0.35,-0.075
23:42:03.432,-0.355,-0.08
23:42:03.436,-0.36,-0.08
23:42:03.440,-0.38,-0.07
23:42:03.444,-0.365,-0.08
23:42:03.448,-0.365,-0.105
23:42:03.452,-0.35,-0.09
23:42:03.456,-0.36,-0.1
23:42:03.460,-0.355,-0.09
23:42:03.464,-0.32,-0.08
23:42:03.468,-0.27,-0.09
23:42:03.472,-0.235,-0.08
23:42:03.476,-0.195,-0.08
23:42:03.480,-0.105,-0.075
23:42:03.484,-0.01,-0.08
23:42:03.488,0.07,-0.08
23:42:03.492,0.125,-0.1
23:42:03.496,0.18,-0.135
23:42:03.500,0.21,-0.135
23:42:03.504,0.245,-0.14
23:42:03.508,0.195,-0.09
23:42:03.512,0.17,-0.13
23:42:03.516,0.25,-0.22
23:42:03.520,0.505,-0.355
23:42:03.524,0.835,-0.615
23:42:03.528,1.1,-0.895
23:42:03.532,1.175,-1.08
23:42:03.536,0.935,-1.065
23:42:03.540,0.465,-0.82
23:42:03.544,0.055,-0.445
23:42:03.548,-0.165,-0.17
23:42:03.552,-0.28,0.0
23:42:03.556,-0.36,0.065
23:42:03.560,-0.39,0.1
23:42:03.564,-0.44,0.095
23:42:03.568,-0.475,0.065
23:42:03.572,-0.54,0.06
23:42:03.576,-0.545,0.04
23:42:03.580,-0.56,0.035
23:42:03.584,-0.55,-0.02
23:42:03.588,-0.55,-0.05
23:42:03.592,-0.565,-0.07
23:42:03.596,-0.6,-0.065
23:42:03.600,-0.61,-0.05
23:42:03.604,-0.59,-0.065
23:42:03.608,-0.6,-0.09
23:42:03.612,-0.61,-0.095
23:42:03.616,-0.6,-0.1
23:42:03.620,-0.59,-0.1
23:42:03.624,-0.6,-0.135
23:42:03.628,-0.62,-0.2
23:42:03.632,-0.62,-0.16
23:42:03.636,-0.6,-0.15
23:42:03.640,-0.62,-0.19
23:42:03.644,-0.615,-0.17
23:42:03.648,-0.62,-0.18
23:42:03.652,-0.64,-0.21
23:42:03.656,-0.655,-0.215
23:42:03.660,-0.65,-0.21
23:42:03.664,-0.64,-0.21
23:42:03.668,-0.635,-0.21
23:42:03.672,-0.62,-0.22
23:42:03.676,-0.59,-0.215
23:42:03.680,-0.63,-0.2
23:42:03.684,-0.615,-0.195
23:42:03.688,-0.595,-0.19
23:42:03.692,-0.59,-0.19
23:42:03.696,-0.58,-0.2
23:42:03.700,-0.58,-0.19
23:42:03.704,-0.555,-0.195
