Time,ECG1,ECG2
23:54:11.264,-0.47,-0.24
23:54:11.268,-0.46,-0.27
23:54:11.272,-0.47,-0.3
23:54:11.276,-0.48,-0.315
23:54:11.280,-0.475,-0.305
23:54:11.284,-0.445,-0.33
23:54:11.288,-0.43,-0.37
23:54:11.292,-0.41,-0.355
23:54:11.296,-0.39,-0.36
23:54:11.300,-0.39,-0.36
23:54:11.304,-0.355,-0.37
23:54:11.308,-0.37,-0.36
23:54:11.312,-0.37,-0.37
23:54:11.316,-0.35,-0.37
23:54:11.320,-0.34,-0.36
23:54:11.324,-0.33,-0.365
23:54:11.328,-0.305,-0.355
23:54:11.332,-0.3,-0.355
23:54:11.336,-0.3,-0.37
23:54:11.340,-0.3,-0.36
23:54:11.344,-0.28,-0.38
23:54:11.348,-0.27,-0.36
23:54:11.352,-0.285,-0.355
23:54:11.356,-0.265,-0.36
23:54:11.360,-0.265,-0.36
23:54:11.364,-0.25,-0.36
23:54:11.368,-0.26,-0.365
23:54:11.372,-0.265,-0.355
23:54:11.376,-0.265,-0.34
23:54:11.380,-0.28,-0.34
23:54:11.384,-0.26,-0.34
23:54:11.388,-0.265,-0.335
23:54:11.392,-0.23,-0.32
23:54:11.396,-0.21,-0.33
23:54:11.400,-0.205,-0.345
23:54:11.404,-0.205,-0.34
23:54:11.408,-0.17,-0.335
23:54:11.412,-0.13,-0.315
23:54:11.416,-0.07,-0.3
23:54:11.420,0.0,-0.285
23:54:11.424,0.095,-0.29
23:54:11.428,0.18,-0.275
23:54:11.432,0.25,-0.28
23:54:11.436,0.27,-0.29
23:54:11.440,0.27,-0.265
23:54:11.444,0.26,-0.22
23:54:11.448,0.2,-0.19
23:54:11.452,0.24,-0.18
23:54:11.456,0.45,-0.24
23:54:11.460,0.71,-0.435
23:54:11.464,0.98,-0.745
23:54:11.468,1.14,-1.025
23:54:11.472,1.015,-1.11
23:54:11.476,0.64,-0.945
23:54:11.480,0.235,-0.64
23:54:11.484,-0.025,-0.295
23:54:11.488,-0.17,-0.15
23:54:11.492,-0.26,-0.08
23:54:11.496,-0.305,-0.07
23:54:11.500,-0.335,-0.075
23:54:11.504,-0.34,-0.1
23:54:11.508,-0.335,-0.12
23:54:11.512,-0.37,-0.165
23:54:11.516,-0.345,-0.195
23:54:11.520,-0.34,-0.205
23:54:11.524,-0.35,-0.245
23:54:11.528,-0.35,-0.255
23:54:11.532,-0.36,-0.245
23:54:11.536,-0.385,-0.275
23:54:11.540,-0.4,-0.29
23:54:11.544,-0.42,-0.29
23:54:11.548,-0.425,-0.32
23:54:11.552,-0.42,-0.315
23:54:11.556,-0.44,-0.335
23:54:11.560,-0.475,-0.34
23:54:11.564,-0.47,-0.32
23:54:11.568,-0.47,-0.335
23:54:11.572,-0.49,-0.355
23:54:11.576,-0.48,-0.365
23:54:11.580,-0.48,-0.36
23:54:11.584,-0.475,-0.38
23:54:11.588,-0.475,-0.39
23:54:11.592,-0.45,-0.365
23:54:11.596,-0.445,-0.365
23:54:11.600,-0.45,-0.375
23:54:11.604,-0.435,-0.39
23:54:11.608,-0.4,-0.36
23:54:11.612,-0.4,-0.345
23:54:11.616,-0.38,-0.355
23:54:11.620,-0.395,-0.34
23:54:11.624,-0.36,-0.33
23:54:11.628,-0.38,-0.31
23:54:11.632,-0.36,-0.315
23:54:11.636,-0.35,-0.31
23:54:11.640,-0.335,-0.285
23:54:11.644,-0.32,-0.28
23:54:11.648,-0.335,-0.275
23:54:11.652,-0.33,-0.28
23:54:11.656,-0.335,-0.26
23:54:11.660,-0.34,-0.24
23:54:11.664,-0.325,-0.25
23:54:11.668,-0.315,-0.25
23:54:11.672,-0.31,-0.245
23:54:11.676,-0.305,-0.225
23:54:11.680,-0.29,-0.225
23:54:11.684,-0.34,-0.23
23:54:11.688,-0.35,-0.235
23:54:11.692,-0.35,-0.225
23:54:11.696,-0.36,-0.225
23:54:11.700,-0.36,-0.24
23:54:11.704,-0.34,-0.235
23:54:11.708,-0.335,-0.24
23:54:11.712,-0.32,-0.265
23:54:11.716,-0.29,-0.25
23:54:11.720,-0.285,-0.265
23:54:11.724,-0.265,-0.27
23:54:11.728,-0.26,-0.26
23:54:11.732,-0.225,-0.29
23:54:11.736,-0.225,-0.28
23:54:11.740,-0.2,-0.29
23:54:11.744,-0.18,-0.275
23:54:11.748,-0.185,-0.245
23:54:11.752,-0.175,-0.27
23:54:11.756,-0.175,-0.265
23:54:11.760,-0.19,-0.27
23:54:11.764,-0.185,-0.285
23:54:11.768,-0.2,-0.28
23:54:11.772,-0.21,-0.295
23:54:11.776,-0.215,-0.3
23:54:11.780,-0.215,-0.295
23:54:11.784,-0.2,-0.33
23:54:11.788,-0.205,-0.32
23:54:11.792,-0.2,-0.33
23:54:11.796,-0.19,-0.32
23:54:11.800,-0.21,-0.31
23:54:11.804,-0.205,-0.345
23:54:11.808,-0.19,-0.32
23:54:11.812,-0.185,-0.315
23:54:11.816,-0.18,-0.32
23:54:11.820,-0.18,-0.3
23:54:11.824,-0.175,-0.31
23:54:11.828,-0.155,-0.295
23:54:11.832,-0.14,-0.295
23:54:11.836,-0.15,-0.27
23:54:11.840,-0.14,-0.29
23:54:11.844,-0.12,-0.265
23:54:11.848,-0.115,-0.235
23:54:11.852,-0.12,-0.24
23:54:11.856,-0.11,-0.225
23:54:11.860,-0.11,-0.21
23:54:11.864,-0.115,-0.21
23:54:11.868,-0.12,-0.205
23:54:11.872,-0.12,-0.215
23:54:11.876,-0.14,-0.21
23:54:11.880,-0.155,-0.205
23:54:11.884,-0.195,-0.185
23:54:11.888,-0.185,-0.17
23:54:11.892,-0.19,-0.185
23:54:11.896,-0.2,-0.18
23:54:11.900,-0.23,-0.195
23:54:11.904,-0.245,-0.19
23:54:11.908,-0.255,-0.185
23:54:11.912,-0.27,-0.17
23:54:11.916,-0.265,-0.175
23:54:11.920,-0.28,-0.17
23:54:11.924,-0.29,-0.155
23:54:11.928,-0.27,-0.145
23:54:11.932,-0.295,-0.15
23:54:11.936,-0.26,-0.175
23:54:11.940,-0.26,-0.19
23:54:11.944,-0.255,-0.175
23:54:11.948,-0.25,-0.195
23:54:11.952,-0.245,-0.17
23:54:11.956,-0.245,-0.2
23:54:11.960,-0.22,-0.215
23:54:11.964,-0.23,-0.24
23:54:11.968,-0.215,-0.25
23:54:11.972,-0.215,-0.28
23:54:11.976,-0.215,-0.265
23:54:11.980,-0.225,-0.29
23:54:11.984,-0.22,-0.295
23:54:11.988,-0.24,-0.315
23:54:11.992,-0.245,-0.29
23:54:11.996,-0.235,-0.295
23:54:12.000,-0.215,-0.32
23:54:12.004,-0.22,-0.315
23:54:12.008,-0.195,-0.32
23:54:12.012,-0.18,-0.32
23:54:12.016,-0.17,-0.315
23:54:12.020,-0.175,-0.305
23:54:12.024,-0.19,-0.305
23:54:12.028,-0.155,-0.305
23:54:12.032,-0.185,-0.295
23:54:12.036,-0.17,-0.275
23:54:12.040,-0.16,-0.27
23:54:12.044,-0.165,-0.265
23:54:12.048,-0.165,-0.27
23:54:12.052,-0.14,-0.235
23:54:12.056,-0.17,-0.29
23:54:12.060,-0.19,-0.225
23:54:12.064,-0.21,-0.225
23:54:12.068,-0.2,-0.225
23:54:12.072,-0.205,-0.23
23:54:12.076,-0.215,-0.22
23:54:12.080,-0.21,-0.225
23:54:12.084,-0.225,-0.22
23:54:12.088,-0.235,-0.21
23:54:12.092,-0.23,-0.22
23:54:12.096,-0.265,-0.205
23:54:12.100,-0.28,-0.225
23:54:12.104,-0.315,-0.22
23:54:12.108,-0.33,-0.215
23:54:12.112,-0.33,-0.22
23:54:12.116,-0.33,-0.2
23:54:12.120,-0.34,-0.19
23:54:12.124,-0.325,-0.175
23:54:12.128,-0.33,-0.185
23:54:12.132,-0.32,-0.155
23:54:12.136,-0.32,-0.16
23:54:12.140,-0.305,-0.175
23:54:12.144,-0.305,-0.155
23:54:12.148,-0.275,-0.15
23:54:12.152,-0.27,-0.16
23:54:12.156,-0.24,-0.185
23:54:12.160,-0.21,-0.18
23:54:12.164,-0.225,-0.16
23:54:12.168,-0.21,-0.185
23:54:12.172,-0.24,-0.195
23:54:12.176,-0.235,-0.215
23:54:12.180,-0.22,-0.205
23:54:12.184,-0.225,-0.25
23:54:12.188,-0.225,-0.24
23:54:12.192,-0.21,-0.235
23:54:12.196,-0.22,-0.27
23:54:12.200,-0.23,-0.25
23:54:12.204,-0.215,-0.27
23:54:12.208,-0.2,-0.285
23:54:12.212,-0.2,-0.26
23:54:12.216,-0.19,-0.275
23:54:12.220,-0.165,-0.26
23:54:12.224,-0.18,-0.26
23:54:12.228,-0.185,-0.27
23:54:12.232,-0.185,-0.26
23:54:12.236,-0.18,-0.255
23:54:12.240,-0.16,-0.26
23:54:12.244,-0.15,-0.245
23:54:12.248,-0.11,-0.24
23:54:12.252,-0.08,-0.225
23:54:12.256,0.01,-0.23
23:54:12.260,0.105,-0.215
23:54:12.264,0.18,-0.225
23:54:12.268,0.215,-0.25
23:54:12.272,0.225,-0.27
23:54:12.276,0.23,-0.24
23:54:12.280,0.21,-0.215
23:54:12.284,0.155,-0.2
23:54:12.288,0.105,-0.225
23:54:12.292,0.17,-0.28
23:54:12.296,0.415,-0.44
23:54:12.300,0.69,-0.7
23:54:12.304,0.975,-0.96
23:54:12.308,1.115,-1.14
23:54:12.312,1.0,-1.11
23:54:12.316,0.625,-0.895
23:54:12.320,0.2,-0.53
23:54:12.324,-0.085,-0.235
23:54:12.328,-0.24,-0.055
23:54:12.332,-0.34,0.0
23:54:12.336,-0.4,0.04
23:54:12.340,-0.44,0.025
23:54:12.344,-0.445,-0.005
23:54:12.348,-0.46,-0.01
23:54:12.352,-0.475,-0.03
23:54:12.356,-0.475,-0.06
23:54:12.360,-0.495,-0.075
23:54:12.364,-0.455,-0.1
23:54:12.368,-0.45,-0.13
23:54:12.372,-0.43,-0.155
23:54:12.376,-0.41,-0.14
23:54:12.380,-0.405,-0.175
23:54:12.384,-0.41,-0.175
23:54:12.388,-0.4,-0.17
23:54:12.392,-0.39,-0.155
23:54:12.396,-0.39,-0.19
23:54:12.400,-0.415,-0.185
23:54:12.404,-0.4,-0.2
23:54:12.408,-0.385,-0.205
23:54:12.412,-0.395,-0.2
23:54:12.416,-0.385,-0.205
23:54:12.420,-0.405,-0.22
23:54:12.424,-0.405,-0.19
23:54:12.428,-0.425,-0.235
23:54:12.432,-0.445,-0.22
23:54:12.436,-0.435,-0.205
23:54:12.440,-0.42,-0.21
23:54:12.444,-0.42,-0.21
23:54:12.448,-0.415,-0.225
23:54:12.452,-0.42,-0.22
23:54:12.456,-0.42,-0.205
23:54:12.460,-0.41,-0.2
23:54:12.464,-0.4,-0.195
23:54:12.468,-0.4,-0.195
23:54:12.472,-0.41,-0.19
23:54:12.476,-0.405,-0.175
23:54:12.480,-0.415,-0.155
23:54:12.484,-0.405,-0.155
23:54:12.488,-0.41,-0.17
23:54:12.492,-0.42,-0.16
23:54:12.496,-0.45,-0.13
23:54:12.500,-0.44,-0.155
23:54:12.504,-0.445,-0.1
23:54:12.508,-0.44,-0.115
23:54:12.512,-0.45,-0.13
23:54:12.516,-0.455,-0.11
23:54:12.520,-0.48,-0.14
23:54:12.524,-0.5,-0.115
23:54:12.528,-0.515,-0.15
23:54:12.532,-0.52,-0.14
23:54:12.536,-0.51,-0.16
23:54:12.540,-0.5,-0.155
23:54:12.544,-0.5,-0.16
23:54:12.548,-0.485,-0.185
23:54:12.552,-0.48,-0.2
23:54:12.556,-0.46,-0.2
23:54:12.560,-0.46,-0.19
23:54:12.564,-0.45,-0.215
23:54:12.568,-0.445,-0.22
23:54:12.572,-0.39,-0.235
23:54:12.576,-0.365,-0.25
23:54:12.580,-0.335,-0.23
23:54:12.584,-0.315,-0.235
23:54:12.588,-0.265,-0.255
23:54:12.592,-0.235,-0.25
23:54:12.596,-0.235,-0.24
23:54:12.600,-0.205,-0.275
23:54:12.604,-0.17,-0.245
23:54:12.608,-0.185,-0.25
23:54:12.612,-0.165,-0.24
23:54:12.616,-0.15,-0.225
23:54:12.620,-0.16,-0.225
23:54:12.624,-0.14,-0.195
23:54:12.628,-0.155,-0.19
23:54:12.632,-0.155,-0.2
23:54:12.636,-0.17,-0.2
23:54:12.640,-0.16,-0.185
23:54:12.644,-0.185,-0.18
23:54:12.648,-0.17,-0.185
23:54:12.652,-0.175,-0.195
23:54:12.656,-0.165,-0.19
23:54:12.660,-0.16,-0.185
23:54:12.664,-0.155,-0.185
23:54:12.668,-0.155,-0.18
23:54:12.672,-0.15,-0.175
23:54:12.676,-0.145,-0.155
23:54:12.680,-0.145,-0.18
23:54:12.684,-0.155,-0.195
23:54:12.688,-0.17,-0.165
23:54:12.692,-0.175,-0.18
23:54:12.696,-0.16,-0.16
23:54:12.700,-0.165,-0.16
23:54:12.704,-0.11,-0.155
23:54:12.708,-0.09,-0.105
23:54:12.712,-0.06,-0.135
23:54:12.716,0.01,-0.155
23:54:12.720,0.04,-0.18
23:54:12.724,0.06,-0.185
23:54:12.728,0.055,-0.18
23:54:12.732,0.04,-0.2
23:54:12.736,0.01,-0.165
23:54:12.740,-0.03,-0.135
23:54:12.744,-0.035,-0.16
23:54:12.748,0.115,-0.215
23:54:12.752,0.395,-0.38
23:54:12.756,0.735,-0.635
23:54:12.760,1.01,-0.945
23:54:12.764,1.09,-1.14
23:54:12.768,0.935,-1.05
23:54:12.772,0.57,-0.785
23:54:12.776,0.185,-0.42
23:54:12.780,-0.075,-0.12
23:54:12.784,-0.2,-0.005
23:54:12.788,-0.27,0.045
23:54:12.792,-0.305,0.015
23:54:12.796,-0.335,0.02
23:54:12.800,-0.36,-0.015
23:54:12.804,-0.355,-0.055
23:54:12.808,-0.345,-0.09
23:54:12.812,-0.335,-0.12
23:54:12.816,-0.32,-0.17
23:54:12.820,-0.315,-0.17
23:54:12.824,-0.32,-0.18
23:54:12.828,-0.33,-0.16
23:54:12.832,-0.315,-0.175
23:54:12.836,-0.34,-0.175
23:54:12.840,-0.335,-0.165
23:54:12.844,-0.34,-0.16
23:54:12.848,-0.32,-0.165
23:54:12.852,-0.335,-0.17
23:54:12.856,-0.37,-0.16
23:54:12.860,-0.36,-0.185
23:54:12.864,-0.36,-0.17
23:54:12.868,-0.39,-0.18
23:54:12.872,-0.38,-0.185
23:54:12.876,-0.38,-0.205
23:54:12.880,-0.395,-0.195
23:54:12.884,-0.4,-0.21
23:54:12.888,-0.395,-0.205
23:54:12.892,-0.405,-0.2
23:54:12.896,-0.43,-0.19
23:54:12.900,-0.445,-0.18
23:54:12.904,-0.46,-0.17
23:54:12.908,-0.475,-0.16
23:54:12.912,-0.465,-0.155
23:54:12.916,-0.47,-0.165
23:54:12.920,-0.46,-0.14
23:54:12.924,-0.465,-0.155
23:54:12.928,-0.475,-0.14
23:54:12.932,-0.495,-0.14
23:54:12.936,-0.505,-0.135
23:54:12.940,-0.505,-0.115
23:54:12.944,-0.54,-0.135
23:54:12.948,-0.5,-0.14
23:54:12.952,-0.51,-0.14
23:54:12.956,-0.49,-0.145
23:54:12.960,-0.49,-0.14
23:54:12.964,-0.48,-0.165
23:54:12.968,-0.45,-0.18
23:54:12.972,-0.45,-0.18
23:54:12.976,-0.445,-0.16
23:54:12.980,-0.425,-0.175
23:54:12.984,-0.415,-0.195
23:54:12.988,-0.415,-0.21
23:54:12.992,-0.4,-0.205
23:54:12.996,-0.37,-0.26
23:54:13.000,-0.32,-0.24
23:54:13.004,-0.275,-0.25
23:54:13.008,-0.26,-0.23
23:54:13.012,-0.275,-0.225
23:54:13.016,-0.27,-0.21
23:54:13.020,-0.235,-0.19
23:54:13.024,-0.225,-0.24
23:54:13.028,-0.205,-0.245
23:54:13.032,-0.19,-0.245
23:54:13.036,-0.17,-0.23
23:54:13.040,-0.16,-0.22
23:54:13.044,-0.16,-0.21
23:54:13.048,-0.135,-0.23
23:54:13.052,-0.15,-0.205
23:54:13.056,-0.15,-0.2
23:54:13.060,-0.16,-0.2
23:54:13.064,-0.16,-0.215
23:54:13.068,-0.165,-0.215
23:54:13.072,-0.15,-0.21
23:54:13.076,-0.17,-0.2
23:54:13.080,-0.18,-0.2
23:54:13.084,-0.195,-0.215
23:54:13.088,-0.185,-0.19
23:54:13.092,-0.215,-0.205
23:54:13.096,-0.215,-0.24
23:54:13.100,-0.23,-0.225
23:54:13.104,-0.225,-0.22
23:54:13.108,-0.22,-0.225
23:54:13.112,-0.235,-0.22
23:54:13.116,-0.24,-0.21
23:54:13.120,-0.265,-0.215
23:54:13.124,-0.27,-0.19
23:54:13.128,-0.265,-0.185
23:54:13.132,-0.265,-0.185
23:54:13.136,-0.275,-0.195
23:54:13.140,-0.27,-0.18
23:54:13.144,-0.28,-0.185
23:54:13.148,-0.26,-0.14
23:54:13.152,-0.295,-0.15
23:54:13.156,-0.27,-0.18
23:54:13.160,-0.305,-0.165
23:54:13.164,-0.305,-0.175
23:54:13.168,-0.305,-0.16
23:54:13.172,-0.32,-0.18
23:54:13.176,-0.305,-0.195
23:54:13.180,-0.29,-0.18
23:54:13.184,-0.27,-0.175
23:54:13.188,-0.285,-0.19
23:54:13.192,-0.28,-0.2
23:54:13.196,-0.25,-0.19
23:54:13.200,-0.21,-0.19
23:54:13.204,-0.12,-0.2
23:54:13.208,-0.045,-0.22
23:54:13.212,0.025,-0.265
23:54:13.216,0.075,-0.29
23:54:13.220,0.13,-0.285
23:54:13.224,0.12,-0.25
23:54:13.228,0.1,-0.245
23:54:13.232,0.08,-0.275
23:54:13.236,0.17,-0.34
23:54:13.240,0.455,-0.435
23:54:13.244,0.81,-0.685
23:54:13.248,1.12,-0.96
23:54:13.252,1.235,-1.145
23:54:13.256,1.115,-1.125
23:54:13.260,0.74,-0.885
23:54:13.264,0.315,-0.51
23:54:13.268,0.035,-0.225
23:54:13.272,-0.115,-0.06
23:54:13.276,-0.17,-0.015
23:54:13.280,-0.23,-0.005
23:54:13.284,-0.24,-0.06
23:54:13.288,-0.28,-0.055
23:54:13.292,-0.3,-0.09
23:54:13.296,-0.315,-0.12
23:54:13.300,-0.32,-0.145
23:54:13.304,-0.37,-0.175
23:54:13.308,-0.37,-0.21
23:54:13.312,-0.375,-0.22
23:54:13.316,-0.415,-0.205
23:54:13.320,-0.425,-0.21
23:54:13.324,-0.44,-0.19
23:54:13.328,-0.43,-0.21
23:54:13.332,-0.44,-0.195
23:54:13.336,-0.46,-0.19
23:54:13.340,-0.46,-0.21
23:54:13.344,-0.475,-0.215
23:54:13.348,-0.51,-0.21
23:54:13.352,-0.48,-0.21
23:54:13.356,-0.495,-0.19
23:54:13.360,-0.51,-0.2
23:54:13.364,-0.525,-0.225
23:54:13.368,-0.515,-0.2
23:54:13.372,-0.535,-0.195
23:54:13.376,-0.545,-0.215
23:54:13.380,-0.565,-0.21
23:54:13.384,-0.55,-0.21
23:54:13.388,-0.55,-0.225
23:54:13.392,-0.545,-0.205
23:54:13.396,-0.535,-0.225
23:54:13.400,-0.55,-0.225
23:54:13.404,-0.555,-0.24
23:54:13.408,-0.55,-0.24
23:54:13.412,-0.56,-0.24
23:54:13.416,-0.55,-0.235
23:54:13.420,-0.535,-0.25
23:54:13.424,-0.53,-0.23
23:54:13.428,-0.52,-0.27
23:54:13.432,-0.495,-0.26
23:54:13.436,-0.49,-0.28
23:54:13.440,-0.46,-0.275
23:54:13.444,-0.46,-0.275
23:54:13.448,-0.44,-0.275
23:54:13.452,-0.44,-0.28
23:54:13.456,-0.435,-0.25
23:54:13.460,-0.405,-0.26
23:54:13.464,-0.37,-0.255
23:54:13.468,-0.35,-0.255
23:54:13.472,-0.315,-0.265
23:54:13.476,-0.31,-0.24
23:54:13.480,-0.275,-0.27
23:54:13.484,-0.275,-0.25
23:54:13.488,-0.235,-0.28
23:54:13.492,-0.205,-0.25
23:54:13.496,-0.195,-0.26
23:54:13.500,-0.165,-0.235
23:54:13.504,-0.16,-0.24
23:54:13.508,-0.165,-0.23
23:54:13.512,-0.165,-0.24
23:54:13.516,-0.185,-0.245
23:54:13.520,-0.21,-0.255
23:54:13.524,-0.2,-0.27
23:54:13.528,-0.23,-0.305
23:54:13.532,-0.24,-0.31
23:54:13.536,-0.25,-0.315
23:54:13.540,-0.24,-0.3
23:54:13.544,-0.24,-0.295
23:54:13.548,-0.235,-0.285
23:54:13.552,-0.265,-0.28
23:54:13.556,-0.29,-0.27
23:54:13.560,-0.3,-0.27
23:54:13.564,-0.29,-0.28
23:54:13.568,-0.295,-0.265
23:54:13.572,-0.275,-0.24
23:54:13.576,-0.26,-0.285
23:54:13.580,-0.285,-0.285
23:54:13.584,-0.255,-0.3
23:54:13.588,-0.27,-0.275
23:54:13.592,-0.28,-0.29
23:54:13.596,-0.305,-0.285
23:54:13.600,-0.295,-0.32
23:54:13.604,-0.285,-0.32
23:54:13.608,-0.275,-0.32
23:54:13.612,-0.25,-0.315
23:54:13.616,-0.245,-0.32
23:54:13.620,-0.26,-0.32
23:54:13.624,-0.29,-0.345
23:54:13.628,-0.26,-0.31
23:54:13.632,-0.26,-0.33
23:54:13.636,-0.255,-0.32
23:54:13.640,-0.235,-0.33
23:54:13.644,-0.24,-0.34
23:54:13.648,-0.2,-0.355
23:54:13.652,-0.205,-0.335
23:54:13.656,-0.2,-0.365
23:54:13.660,-0.205,-0.35
23:54:13.664,-0.195,-0.34
23:54:13.668,-0.145,-0.325
23:54:13.672,-0.085,-0.33
23:54:13.676,0.005,-0.325
23:54:13.680,0.095,-0.32
23:54:13.684,0.2,-0.335
23:54:13.688,0.255,-0.37
23:54:13.692,0.285,-0.385
23:54:13.696,0.345,-0.35
23:54:13.700,0.365,-0.29
23:54:13.704,0.305,-0.28
23:54:13.708,0.3,-0.295
23:54:13.712,0.455,-0.36
23:54:13.716,0.695,-0.55
23:54:13.720,1.03,-0.81
23:54:13.724,1.255,-1.06
23:54:13.728,1.24,-1.145
23:54:13.732,0.94,-1.055
23:54:13.736,0.49,-0.77
23:54:13.740,0.145,-0.48
23:54:13.744,-0.005,-0.305
23:54:13.748,-0.12,-0.21
23:54:13.752,-0.18,-0.12
23:54:13.756,-0.19,-0.115
23:54:13.760,-0.265,-0.1
23:54:13.764,-0.28,-0.14
23:54:13.768,-0.32,-0.17
23:54:13.772,-0.36,-0.175
23:54:13.776,-0.385,-0.19
23:54:13.780,-0.405,-0.235
23:54:13.784,-0.4,-0.26
23:54:13.788,-0.425,-0.31
23:54:13.792,-0.42,-0.335
23:54:13.796,-0.45,-0.37
23:54:13.800,-0.46,-0.35
23:54:13.804,-0.46,-0.38
23:54:13.808,-0.475,-0.4
23:54:13.812,-0.47,-0.405
23:54:13.816,-0.465,-0.4
23:54:13.820,-0.455,-0.395
23:54:13.824,-0.435,-0.42
23:54:13.828,-0.44,-0.415
23:54:13.832,-0.43,-0.42
23:54:13.836,-0.43,-0.405
23:54:13.840,-0.44,-0.42
23:54:13.844,-0.45,-0.43
23:54:13.848,-0.435,-0.415
23:54:13.852,-0.44,-0.405
23:54:13.856,-0.44,-0.415
23:54:13.860,-0.435,-0.41
23:54:13.864,-0.445,-0.41
23:54:13.868,-0.45,-0.4
23:54:13.872,-0.44,-0.415
23:54:13.876,-0.43,-0.405
23:54:13.880,-0.44,-0.395
23:54:13.884,-0.455,-0.395
23:54:13.888,-0.455,-0.38
23:54:13.892,-0.43,-0.385
23:54:13.896,-0.43,-0.415
23:54:13.900,-0.415,-0.39
23:54:13.904,-0.38,-0.385
23:54:13.908,-0.385,-0.39
23:54:13.912,-0.365,-0.38
23:54:13.916,-0.38,-0.38
23:54:13.920,-0.365,-0.37
23:54:13.924,-0.365,-0.37
23:54:13.928,-0.355,-0.38
23:54:13.932,-0.335,-0.375
23:54:13.936,-0.32,-0.4
23:54:13.940,-0.315,-0.405
23:54:13.944,-0.3,-0.4
23:54:13.948,-0.305,-0.4
23:54:13.952,-0.32,-0.38
23:54:13.956,-0.32,-0.375
23:54:13.960,-0.345,-0.36
23:54:13.964,-0.33,-0.365
23:54:13.968,-0.335,-0.36
23:54:13.972,-0.3,-0.38
23:54:13.976,-0.3,-0.365
23:54:13.980,-0.295,-0.365
23:54:13.984,-0.305,-0.365
23:54:13.988,-0.28,-0.36
23:54:13.992,-0.285,-0.355
23:54:13.996,-0.255,-0.375
23:54:14.000,-0.245,-0.365
23:54:14.004,-0.22,-0.365
23:54:14.008,-0.21,-0.37
23:54:14.012,-0.21,-0.385
23:54:14.016,-0.185,-0.38
23:54:14.020,-0.18,-0.375
23:54:14.024,-0.2,-0.39
23:54:14.028,-0.185,-0.4
23:54:14.032,-0.195,-0.4
23:54:14.036,-0.18,-0.4
23:54:14.040,-0.2,-0.41
23:54:14.044,-0.195,-0.41
23:54:14.048,-0.18,-0.425
23:54:14.052,-0.195,-0.42
23:54:14.056,-0.155,-0.39
23:54:14.060,-0.17,-0.42
23:54:14.064,-0.175,-0.425
23:54:14.068,-0.17,-0.435
23:54:14.072,-0.165,-0.425
23:54:14.076,-0.185,-0.415
23:54:14.080,-0.19,-0.44
23:54:14.084,-0.195,-0.41
23:54:14.088,-0.23,-0.41
23:54:14.092,-0.23,-0.41
23:54:14.096,-0.23,-0.4
23:54:14.100,-0.235,-0.4
23:54:14.104,-0.24,-0.395
23:54:14.108,-0.235,-0.41
23:54:14.112,-0.225,-0.4
23:54:14.116,-0.205,-0.375
23:54:14.120,-0.185,-0.38
23:54:14.124,-0.185,-0.385
23:54:14.128,-0.175,-0.375
23:54:14.132,-0.17,-0.365
23:54:14.136,-0.185,-0.355
23:54:14.140,-0.195,-0.365
23:54:14.144,-0.18,-0.365
23:54:14.148,-0.18,-0.36
23:54:14.152,-0.19,-0.37
23:54:14.156,-0.175,-0.36
23:54:14.160,-0.195,-0.375
23:54:14.164,-0.205,-0.34
23:54:14.168,-0.24,-0.355
23:54:14.172,-0.245,-0.335
23:54:14.176,-0.27,-0.315
23:54:14.180,-0.26,-0.33
23:54:14.184,-0.275,-0.33
23:54:14.188,-0.26,-0.33
23:54:14.192,-0.29,-0.325
23:54:14.196,-0.29,-0.345
23:54:14.200,-0.29,-0.32
23:54:14.204,-0.3,-0.315
23:54:14.208,-0.315,-0.32
23:54:14.212,-0.3,-0.31
23:54:14.216,-0.305,-0.32
23:54:14.220,-0.275,-0.295
23:54:14.224,-0.245,-0.32
23:54:14.228,-0.235,-0.32
23:54:14.232,-0.22,-0.31
23:54:14.236,-0.215,-0.335
23:54:14.240,-0.22,-0.34
23:54:14.244,-0.21,-0.345
23:54:14.248,-0.205,-0.345
23:54:14.252,-0.185,-0.355
23:54:14.256,-0.185,-0.345
23:54:14.260,-0.17,-0.36
23:54:14.264,-0.145,-0.35
23:54:14.268,-0.125,-0.345
23:54:14.272,-0.165,-0.36
23:54:14.276,-0.175,-0.345
23:54:14.280,-0.175,-0.345
23:54:14.284,-0.16,-0.335
23:54:14.288,-0.175,-0.33
23:54:14.292,-0.155,-0.335
23:54:14.296,-0.145,-0.335
23:54:14.300,-0.145,-0.33
23:54:14.304,-0.15,-0.345
23:54:14.308,-0.155,-0.325
23:54:14.312,-0.145,-0.32
23:54:14.316,-0.135,-0.33
23:54:14.320,-0.15,-0.32
23:54:14.324,-0.155,-0.31
23:54:14.328,-0.155,-0.285
23:54:14.332,-0.14,-0.295
23:54:14.336,-0.14,-0.275
23:54:14.340,-0.15,-0.29
23:54:14.344,-0.145,-0.285
23:54:14.348,-0.14,-0.28
23:54:14.352,-0.115,-0.28
23:54:14.356,-0.085,-0.28
23:54:14.360,-0.005,-0.255
23:54:14.364,0.105,-0.29
23:54:14.368,0.15,-0.305
23:54:14.372,0.17,-0.335
23:54:14.376,0.2,-0.325
23:54:14.380,0.215,-0.305
23:54:14.384,0.215,-0.265
23:54:14.388,0.16,-0.265
23:54:14.392,0.145,-0.315
23:54:14.396,0.235,-0.395
23:54:14.400,0.505,-0.595
23:54:14.404,0.83,-0.845
23:54:14.408,1.09,-1.09
23:54:14.412,1.135,-1.215
23:54:14.416,0.9,-1.115
23:54:14.420,0.435,-0.8
23:54:14.424,0.025,-0.445
23:54:14.428,-0.16,-0.25
23:54:14.432,-0.295,-0.13
23:54:14.436,-0.345,-0.08
23:54:14.440,-0.34,-0.06
23:54:14.444,-0.365,-0.075
23:54:14.448,-0.375,-0.08
23:54:14.452,-0.38,-0.11
23:54:14.456,-0.385,-0.14
23:54:14.460,-0.39,-0.155
23:54:14.464,-0.385,-0.175
23:54:14.468,-0.37,-0.21
23:54:14.472,-0.355,-0.215
23:54:14.476,-0.345,-0.19
23:54:14.480,-0.335,-0.215
23:54:14.484,-0.345,-0.21
23:54:14.488,-0.365,-0.2
23:54:14.492,-0.375,-0.225
23:54:14.496,-0.38,-0.24
23:54:14.500,-0.38,-0.22
23:54:14.504,-0.385,-0.225
23:54:14.508,-0.385,-0.2
23:54:14.512,-0.385,-0.225
23:54:14.516,-0.38,-0.21
23:54:14.520,-0.37,-0.21
23:54:14.524,-0.36,-0.22
23:54:14.528,-0.375,-0.22
23:54:14.532,-0.39,-0.2
23:54:14.536,-0.395,-0.195
23:54:14.540,-0.39,-0.185
23:54:14.544,-0.375,-0.2
23:54:14.548,-0.39,-0.185
23:54:14.552,-0.395,-0.195
23:54:14.556,-0.39,-0.18
23:54:14.560,-0.4,-0.195
23:54:14.564,-0.42,-0.21
23:54:14.568,-0.42,-0.19
23:54:14.572,-0.415,-0.195
23:54:14.576,-0.43,-0.19
23:54:14.580,-0.46,-0.19
23:54:14.584,-0.455,-0.17
23:54:14.588,-0.46,-0.16
23:54:14.592,-0.465,-0.16
23:54:14.596,-0.46,-0.185
23:54:14.600,-0.47,-0.185
23:54:14.604,-0.49,-0.19
23:54:14.608,-0.48,-0.215
23:54:14.612,-0.48,-0.2
23:54:14.616,-0.485,-0.215
23:54:14.620,-0.465,-0.205
23:54:14.624,-0.48,-0.23
23:54:14.628,-0.47,-0.23
23:54:14.632,-0.465,-0.24
23:54:14.636,-0.47,-0.23
23:54:14.640,-0.46,-0.235
23:54:14.644,-0.44,-0.23
23:54:14.648,-0.45,-0.23
23:54:14.652,-0.44,-0.26
23:54:14.656,-0.39,-0.26
23:54:14.660,-0.345,-0.275
23:54:14.664,-0.315,-0.27
23:54:14.668,-0.29,-0.27
23:54:14.672,-0.245,-0.27
23:54:14.676,-0.245,-0.26
23:54:14.680,-0.205,-0.26
23:54:14.684,-0.17,-0.235
23:54:14.688,-0.15,-0.235
23:54:14.692,-0.145,-0.24
23:54:14.696,-0.15,-0.23
23:54:14.700,-0.14,-0.23
23:54:14.704,-0.16,-0.205
23:54:14.708,-0.16,-0.24
23:54:14.712,-0.15,-0.215
23:54:14.716,-0.16,-0.205
23:54:14.720,-0.145,-0.2
23:54:14.724,-0.12,-0.215
23:54:14.728,-0.125,-0.21
23:54:14.732,-0.145,-0.225
23:54:14.736,-0.125,-0.215
23:54:14.740,-0.12,-0.2
23:54:14.744,-0.12,-0.19
23:54:14.748,-0.135,-0.18
23:54:14.752,-0.115,-0.18
23:54:14.756,-0.13,-0.2
23:54:14.760,-0.145,-0.19
23:54:14.764,-0.155,-0.15
23:54:14.768,-0.135,-0.165
23:54:14.772,-0.15,-0.16
23:54:14.776,-0.17,-0.18
23:54:14.780,-0.17,-0.15
23:54:14.784,-0.17,-0.13
23:54:14.788,-0.175,-0.16
23:54:14.792,-0.195,-0.15
23:54:14.796,-0.195,-0.135
23:54:14.800,-0.2,-0.14
23:54:14.804,-0.205,-0.13
23:54:14.808,-0.22,-0.165
23:54:14.812,-0.235,-0.165
23:54:14.816,-0.245,-0.17
23:54:14.820,-0.275,-0.19
23:54:14.824,-0.26,-0.19
23:54:14.828,-0.25,-0.18
23:54:14.832,-0.275,-0.195
23:54:14.836,-0.26,-0.22
23:54:14.840,-0.26,-0.2
23:54:14.844,-0.265,-0.22
23:54:14.848,-0.29,-0.21
23:54:14.852,-0.295,-0.205
23:54:14.856,-0.305,-0.19
23:54:14.860,-0.33,-0.225
23:54:14.864,-0.32,-0.21
23:54:14.868,-0.295,-0.21
23:54:14.872,-0.265,-0.23
23:54:14.876,-0.25,-0.23
23:54:14.880,-0.24,-0.22
23:54:14.884,-0.215,-0.245
23:54:14.888,-0.205,-0.25
23:54:14.892,-0.215,-0.255
23:54:14.896,-0.195,-0.22
23:54:14.900,-0.175,-0.225
23:54:14.904,-0.16,-0.23
23:54:14.908,-0.16,-0.22
23:54:14.912,-0.155,-0.24
23:54:14.916,-0.16,-0.22
23:54:14.920,-0.185,-0.2
23:54:14.924,-0.19,-0.18
23:54:14.928,-0.21,-0.21
23:54:14.932,-0.205,-0.2
23:54:14.936,-0.19,-0.195
23:54:14.940,-0.195,-0.2
23:54:14.944,-0.185,-0.225
23:54:14.948,-0.18,-0.195
23:54:14.952,-0.17,-0.19
23:54:14.956,-0.175,-0.195
23:54:14.960,-0.175,-0.21
23:54:14.964,-0.145,-0.22
23:54:14.968,-0.16,-0.195
23:54:14.972,-0.165,-0.21
23:54:14.976,-0.165,-0.175
23:54:14.980,-0.165,-0.2
23:54:14.984,-0.15,-0.19
23:54:14.988,-0.15,-0.18
23:54:14.992,-0.175,-0.195
23:54:14.996,-0.18,-0.175
23:54:15.000,-0.19,-0.17
23:54:15.004,-0.2,-0.18
23:54:15.008,-0.2,-0.16
23:54:15.012,-0.21,-0.185
23:54:15.016,-0.18,-0.19
23:54:15.020,-0.135,-0.18
23:54:15.024,-0.045,-0.205
23:54:15.028,0.01,-0.195
23:54:15.032,0.06,-0.225
23:54:15.036,0.11,-0.255
23:54:15.040,0.12,-0.305
23:54:15.044,0.125,-0.295
23:54:15.048,0.09,-0.255
23:54:15.052,0.05,-0.285
23:54:15.056,0.035,-0.31
23:54:15.060,0.165,-0.395
23:54:15.064,0.46,-0.585
23:54:15.068,0.785,-0.875
23:54:15.072,1.03,-1.115
23:54:15.076,1.065,-1.215
23:54:15.080,0.795,-1.09
23:54:15.084,0.36,-0.74
23:54:15.088,0.01,-0.38
23:54:15.092,-0.19,-0.19
23:54:15.096,-0.28,-0.09
23:54:15.100,-0.32,-0.01
23:54:15.104,-0.34,-0.03
23:54:15.108,-0.36,-0.045
23:54:15.112,-0.35,-0.075
23:54:15.116,-0.31,-0.135
23:54:15.120,-0.29,-0.145
23:54:15.124,-0.3,-0.17
23:54:15.128,-0.31,-0.18
23:54:15.132,-0.31,-0.215
23:54:15.136,-0.345,-0.19
23:54:15.140,-0.365,-0.175
23:54:15.144,-0.38,-0.18
23:54:15.148,-0.38,-0.17
23:54:15.152,-0.375,-0.17
23:54:15.156,-0.375,-0.16
23:54:15.160,-0.385,-0.18
23:54:15.164,-0.375,-0.185
23:54:15.168,-0.39,-0.17
23:54:15.172,-0.385,-0.17
23:54:15.176,-0.385,-0.185
23:54:15.180,-0.37,-0.175
23:54:15.184,-0.41,-0.165
23:54:15.188,-0.405,-0.17
23:54:15.192,-0.425,-0.155
23:54:15.196,-0.45,-0.125
23:54:15.200,-0.445,-0.155
23:54:15.204,-0.475,-0.145
23:54:15.208,-0.465,-0.135
23:54:15.212,-0.49,-0.145
23:54:15.216,-0.505,-0.125
23:54:15.220,-0.515,-0.12
23:54:15.224,-0.52,-0.12
23:54:15.228,-0.505,-0.13
23:54:15.232,-0.52,-0.135
23:54:15.236,-0.545,-0.135
23:54:15.240,-0.54,-0.14
23:54:15.244,-0.52,-0.145
23:54:15.248,-0.52,-0.17
23:54:15.252,-0.52,-0.16
23:54:15.256,-0.53,-0.16
23:54:15.260,-0.525,-0.175
23:54:15.264,-0.525,-0.2
23:54:15.268,-0.555,-0.2
23:54:15.272,-0.54,-0.185
23:54:15.276,-0.55,-0.225
23:54:15.280,-0.535,-0.225
23:54:15.284,-0.535,-0.225
23:54:15.288,-0.525,-0.225
23:54:15.292,-0.495,-0.225
23:54:15.296,-0.485,-0.245
23:54:15.300,-0.465,-0.245
23:54:15.304,-0.45,-0.25
23:54:15.308,-0.435,-0.265
23:54:15.312,-0.405,-0.265
23:54:15.316,-0.395,-0.28
23:54:15.320,-0.38,-0.275
23:54:15.324,-0.345,-0.27
23:54:15.328,-0.34,-0.255
23:54:15.332,-0.31,-0.25
23:54:15.336,-0.255,-0.26
23:54:15.340,-0.245,-0.245
23:54:15.344,-0.235,-0.23
23:54:15.348,-0.2,-0.255
23:54:15.352,-0.17,-0.255
23:54:15.356,-0.175,-0.245
23:54:15.360,-0.18,-0.22
23:54:15.364,-0.175,-0.215
23:54:15.368,-0.175,-0.2
23:54:15.372,-0.155,-0.195
23:54:15.376,-0.17,-0.195
23:54:15.380,-0.155,-0.185
23:54:15.384,-0.155,-0.16
23:54:15.388,-0.16,-0.2
23:54:15.392,-0.17,-0.18
23:54:15.396,-0.18,-0.17
23:54:15.400,-0.215,-0.17
23:54:15.404,-0.225,-0.155
23:54:15.408,-0.235,-0.175
23:54:15.412,-0.23,-0.185
23:54:15.416,-0.24,-0.17
23:54:15.420,-0.24,-0.175
23:54:15.424,-0.235,-0.165
23:54:15.428,-0.245,-0.16
23:54:15.432,-0.245,-0.16
23:54:15.436,-0.265,-0.155
23:54:15.440,-0.24,-0.165
23:54:15.444,-0.24,-0.145
23:54:15.448,-0.22,-0.15
23:54:15.452,-0.19,-0.155
23:54:15.456,-0.09,-0.18
23:54:15.460,-0.035,-0.175
23:54:15.464,0.005,-0.19
23:54:15.468,0.01,-0.205
23:54:15.472,0.025,-0.25
23:54:15.476,0.015,-0.24
23:54:15.480,0.0,-0.205
23:54:15.484,-0.03,-0.175
23:54:15.488,-0.04,-0.19
23:54:15.492,0.135,-0.27
23:54:15.496,0.43,-0.46
23:54:15.500,0.76,-0.725
23:54:15.504,0.99,-1.025
23:54:15.508,1.03,-1.135
23:54:15.512,0.765,-1.045
23:54:15.516,0.35,-0.745
23:54:15.520,0.015,-0.41
23:54:15.524,-0.18,-0.195
23:54:15.528,-0.27,-0.085
23:54:15.532,-0.34,-0.06
23:54:15.536,-0.375,-0.055
23:54:15.540,-0.395,-0.055
23:54:15.544,-0.41,-0.105
23:54:15.548,-0.41,-0.115
23:54:15.552,-0.42,-0.13
23:54:15.556,-0.43,-0.195
23:54:15.560,-0.43,-0.18
23:54:15.564,-0.405,-0.175
23:54:15.568,-0.41,-0.175
23:54:15.572,-0.425,-0.195
23:54:15.576,-0.4,-0.205
23:54:15.580,-0.4,-0.205
23:54:15.584,-0.385,-0.215
23:54:15.588,-0.375,-0.235
23:54:15.592,-0.36,-0.205
23:54:15.596,-0.355,-0.195
23:54:15.600,-0.37,-0.21
23:54:15.604,-0.385,-0.19
23:54:15.608,-0.41,-0.185
23:54:15.612,-0.415,-0.205
23:54:15.616,-0.435,-0.195
23:54:15.620,-0.45,-0.2
23:54:15.624,-0.455,-0.225
23:54:15.628,-0.47,-0.225
23:54:15.632,-0.505,-0.22
23:54:15.636,-0.515,-0.235
23:54:15.640,-0.51,-0.225
23:54:15.644,-0.505,-0.2
23:54:15.648,-0.515,-0.195
23:54:15.652,-0.485,-0.205
23:54:15.656,-0.485,-0.215
23:54:15.660,-0.49,-0.195
23:54:15.664,-0.485,-0.205
23:54:15.668,-0.5,-0.2
23:54:15.672,-0.495,-0.2
23:54:15.676,-0.49,-0.205
23:54:15.680,-0.48,-0.225
23:54:15.684,-0.495,-0.21
23:54:15.688,-0.5,-0.23
23:54:15.692,-0.48,-0.24
23:54:15.696,-0.475,-0.27
23:54:15.700,-0.48,-0.245
23:54:15.704,-0.475,-0.26
23:54:15.708,-0.46,-0.265
23:54:15.712,-0.43,-0.275
23:54:15.716,-0.41,-0.285
23:54:15.720,-0.4,-0.295
23:54:15.724,-0.37,-0.3
23:54:15.728,-0.365,-0.31
23:54:15.732,-0.355,-0.295
23:54:15.736,-0.325,-0.34
23:54:15.740,-0.31,-0.325
23:54:15.744,-0.28,-0.32
23:54:15.748,-0.26,-0.33
23:54:15.752,-0.24,-0.35
23:54:15.756,-0.22,-0.33
23:54:15.760,-0.215,-0.305
23:54:15.764,-0.195,-0.32
23:54:15.768,-0.215,-0.31
23:54:15.772,-0.2,-0.29
23:54:15.776,-0.21,-0.26
23:54:15.780,-0.215,-0.27
23:54:15.784,-0.205,-0.25
23:54:15.788,-0.2,-0.245
23:54:15.792,-0.205,-0.225
23:54:15.796,-0.215,-0.215
23:54:15.800,-0.2,-0.22
23:54:15.804,-0.185,-0.22
23:54:15.808,-0.18,-0.24
23:54:15.812,-0.175,-0.24
23:54:15.816,-0.155,-0.24
23:54:15.820,-0.15,-0.24
23:54:15.824,-0.165,-0.27
23:54:15.828,-0.16,-0.265
23:54:15.832,-0.19,-0.245
23:54:15.836,-0.215,-0.25
23:54:15.840,-0.235,-0.245
23:54:15.844,-0.23,-0.26
23:54:15.848,-0.24,-0.27
23:54:15.852,-0.245,-0.265
23:54:15.856,-0.245,-0.285
23:54:15.860,-0.26,-0.26
23:54:15.864,-0.27,-0.28
23:54:15.868,-0.265,-0.29
23:54:15.872,-0.26,-0.295
23:54:15.876,-0.275,-0.3
23:54:15.880,-0.275,-0.285
23:54:15.884,-0.255,-0.295
23:54:15.888,-0.255,-0.305
23:54:15.892,-0.265,-0.305
23:54:15.896,-0.25,-0.315
23:54:15.900,-0.245,-0.3
23:54:15.904,-0.25,-0.29
23:54:15.908,-0.255,-0.315
23:54:15.912,-0.26,-0.33
23:54:15.916,-0.255,-0.345
23:54:15.920,-0.265,-0.35
23:54:15.924,-0.255,-0.34
23:54:15.928,-0.25,-0.32
23:54:15.932,-0.24,-0.335
23:54:15.936,-0.255,-0.335
23:54:15.940,-0.245,-0.34
23:54:15.944,-0.21,-0.34
23:54:15.948,-0.225,-0.345
23:54:15.952,-0.22,-0.335
23:54:15.956,-0.19,-0.325
23:54:15.960,-0.16,-0.325
23:54:15.964,-0.14,-0.32
23:54:15.968,-0.135,-0.32
23:54:15.972,-0.13,-0.33
23:54:15.976,-0.11,-0.315
23:54:15.980,-0.09,-0.32
23:54:15.984,-0.09,-0.315
23:54:15.988,-0.08,-0.32
23:54:15.992,-0.1,-0.325
23:54:15.996,-0.125,-0.32
23:54:16.000,-0.14,-0.335
23:54:16.004,-0.16,-0.315
23:54:16.008,-0.145,-0.305
23:54:16.012,-0.12,-0.305
23:54:16.016,-0.125,-0.3
23:54:16.020,-0.135,-0.305
23:54:16.024,-0.155,-0.305
23:54:16.028,-0.185,-0.305
23:54:16.032,-0.16,-0.28
23:54:16.036,-0.185,-0.29
23:54:16.040,-0.21,-0.28
23:54:16.044,-0.18,-0.295
23:54:16.048,-0.18,-0.295
23:54:16.052,-0.18,-0.315
23:54:16.056,-0.185,-0.34
23:54:16.060,-0.21,-0.34
23:54:16.064,-0.22,-0.33
23:54:16.068,-0.24,-0.34
23:54:16.072,-0.26,-0.35
23:54:16.076,-0.275,-0.35
23:54:16.080,-0.285,-0.355
23:54:16.084,-0.305,-0.36
23:54:16.088,-0.305,-0.355
23:54:16.092,-0.29,-0.375
23:54:16.096,-0.31,-0.365
23:54:16.100,-0.3,-0.36
23:54:16.104,-0.3,-0.375
23:54:16.108,-0.29,-0.375
23:54:16.112,-0.29,-0.38
23:54:16.116,-0.295,-0.4
23:54:16.120,-0.275,-0.375
23:54:16.124,-0.29,-0.395
23:54:16.128,-0.295,-0.405
23:54:16.132,-0.29,-0.38
23:54:16.136,-0.29,-0.375
23:54:16.140,-0.275,-0.395
23:54:16.144,-0.295,-0.405
23:54:16.148,-0.305,-0.405
23:54:16.152,-0.28,-0.405
23:54:16.156,-0.265,-0.415
23:54:16.160,-0.27,-0.415
23:54:16.164,-0.28,-0.4
23:54:16.168,-0.28,-0.39
23:54:16.172,-0.285,-0.385
23:54:16.176,-0.26,-0.385
23:54:16.180,-0.22,-0.395
23:54:16.184,-0.2,-0.385
23:54:16.188,-0.19,-0.395
23:54:16.192,-0.165,-0.395
23:54:16.196,-0.165,-0.39
23:54:16.200,-0.16,-0.385
23:54:16.204,-0.135,-0.375
23:54:16.208,-0.155,-0.35
23:54:16.212,-0.125,-0.345
23:54:16.216,-0.125,-0.34
23:54:16.220,-0.115,-0.335
23:54:16.224,-0.11,-0.34
23:54:16.228,-0.125,-0.35
23:54:16.232,-0.11,-0.32
23:54:16.236,-0.11,-0.31
23:54:16.240,-0.145,-0.32
23:54:16.244,-0.14,-0.315
23:54:16.248,-0.16,-0.295
23:54:16.252,-0.15,-0.305
23:54:16.256,-0.135,-0.29
23:54:16.260,-0.11,-0.28
23:54:16.264,-0.09,-0.31
23:54:16.268,-0.03,-0.315
23:54:16.272,0.045,-0.305
23:54:16.276,0.125,-0.325
23:54:16.280,0.205,-0.36
23:54:16.284,0.265,-0.39
23:54:16.288,0.315,-0.36
23:54:16.292,0.325,-0.31
23:54:16.296,0.25,-0.3
23:54:16.300,0.225,-0.305
23:54:16.304,0.315,-0.375
23:54:16.308,0.55,-0.535
23:54:16.312,0.855,-0.84
23:54:16.316,1.13,-1.085
23:54:16.320,1.235,-1.235
23:54:16.324,1.045,-1.175
23:54:16.328,0.605,-0.88
23:54:16.332,0.205,-0.555
23:54:16.336,-0.05,-0.35
23:54:16.340,-0.155,-0.24
23:54:16.344,-0.26,-0.185
23:54:16.348,-0.285,-0.145
23:54:16.352,-0.355,-0.155
23:54:16.356,-0.365,-0.185
23:54:16.360,-0.4,-0.2
23:54:16.364,-0.44,-0.23
23:54:16.368,-0.43,-0.235
23:54:16.372,-0.45,-0.295
23:54:16.376,-0.46,-0.28
23:54:16.380,-0.475,-0.3
23:54:16.384,-0.46,-0.295
23:54:16.388,-0.465,-0.285
23:54:16.392,-0.45,-0.285
23:54:16.396,-0.44,-0.27
23:54:16.400,-0.405,-0.25
23:54:16.404,-0.41,-0.275
23:54:16.408,-0.395,-0.24
23:54:16.412,-0.425,-0.24
23:54:16.416,-0.395,-0.23
23:54:16.420,-0.41,-0.235
23:54:16.424,-0.4,-0.225
23:54:16.428,-0.41,-0.225
23:54:16.432,-0.4,-0.22
23:54:16.436,-0.4,-0.23
23:54:16.440,-0.405,-0.21
23:54:16.444,-0.395,-0.21
23:54:16.448,-0.395,-0.215
23:54:16.452,-0.4,-0.185
23:54:16.456,-0.43,-0.17
23:54:16.460,-0.435,-0.17
23:54:16.464,-0.46,-0.15
23:54:16.468,-0.47,-0.17
23:54:16.472,-0.495,-0.17
23:54:16.476,-0.52,-0.185
23:54:16.480,-0.525,-0.165
23:54:16.484,-0.545,-0.185
23:54:16.488,-0.57,-0.17
23:54:16.492,-0.61,-0.19
23:54:16.496,-0.605,-0.18
23:54:16.500,-0.61,-0.175
23:54:16.504,-0.61,-0.2
23:54:16.508,-0.625,-0.2
23:54:16.512,-0.595,-0.22
23:54:16.516,-0.58,-0.195
23:54:16.520,-0.555,-0.2
23:54:16.524,-0.545,-0.195
23:54:16.528,-0.525,-0.2
23:54:16.532,-0.535,-0.22
23:54:16.536,-0.515,-0.235
23:54:16.540,-0.51,-0.23
23:54:16.544,-0.49,-0.245
23:54:16.548,-0.495,-0.255
23:54:16.552,-0.48,-0.255
23:54:16.556,-0.48,-0.245
23:54:16.560,-0.47,-0.29
23:54:16.564,-0.425,-0.275
23:54:16.568,-0.425,-0.28
23:54:16.572,-0.41,-0.29
23:54:16.576,-0.4,-0.3
23:54:16.580,-0.4,-0.29
23:54:16.584,-0.385,-0.295
23:54:16.588,-0.385,-0.29
23:54:16.592,-0.36,-0.315
23:54:16.596,-0.335,-0.305
23:54:16.600,-0.325,-0.3
23:54:16.604,-0.31,-0.285
23:54:16.608,-0.29,-0.27
23:54:16.612,-0.3,-0.25
23:54:16.616,-0.28,-0.245
23:54:16.620,-0.25,-0.255
23:54:16.624,-0.225,-0.23
23:54:16.628,-0.21,-0.21
23:54:16.632,-0.19,-0.23
23:54:16.636,-0.175,-0.195
23:54:16.640,-0.195,-0.18
23:54:16.644,-0.17,-0.155
23:54:16.648,-0.185,-0.15
23:54:16.652,-0.18,-0.16
23:54:16.656,-0.17,-0.155
23:54:16.660,-0.155,-0.14
23:54:16.664,-0.15,-0.145
23:54:16.668,-0.14,-0.135
23:54:16.672,-0.15,-0.1
23:54:16.676,-0.18,-0.13
23:54:16.680,-0.155,-0.115
23:54:16.684,-0.17,-0.115
23:54:16.688,-0.205,-0.105
23:54:16.692,-0.21,-0.09
23:54:16.696,-0.225,-0.095
23:54:16.700,-0.245,-0.115
23:54:16.704,-0.27,-0.09
23:54:16.708,-0.275,-0.11
23:54:16.712,-0.3,-0.12
23:54:16.716,-0.325,-0.12
23:54:16.720,-0.355,-0.115
23:54:16.724,-0.375,-0.115
23:54:16.728,-0.36,-0.12
23:54:16.732,-0.375,-0.135
23:54:16.736,-0.395,-0.135
23:54:16.740,-0.385,-0.13
23:54:16.744,-0.365,-0.16
23:54:16.748,-0.36,-0.175
23:54:16.752,-0.365,-0.155
23:54:16.756,-0.33,-0.16
23:54:16.760,-0.33,-0.16
23:54:16.764,-0.325,-0.16
23:54:16.768,-0.34,-0.165
23:54:16.772,-0.32,-0.195
23:54:16.776,-0.32,-0.19
23:54:16.780,-0.31,-0.22
23:54:16.784,-0.32,-0.175
23:54:16.788,-0.32,-0.18
23:54:16.792,-0.3,-0.18
23:54:16.796,-0.3,-0.185
23:54:16.800,-0.295,-0.205
23:54:16.804,-0.295,-0.22
23:54:16.808,-0.3,-0.205
23:54:16.812,-0.285,-0.195
23:54:16.816,-0.27,-0.195
23:54:16.820,-0.29,-0.22
23:54:16.824,-0.28,-0.21
23:54:16.828,-0.305,-0.21
23:54:16.832,-0.245,-0.2
23:54:16.836,-0.21,-0.185
23:54:16.840,-0.155,-0.2
23:54:16.844,-0.075,-0.185
23:54:16.848,0.025,-0.19
23:54:16.852,0.1,-0.2
23:54:16.856,0.135,-0.22
23:54:16.860,0.165,-0.25
23:54:16.864,0.185,-0.215
23:54:16.868,0.155,-0.16
23:54:16.872,0.11,-0.19
23:54:16.876,0.13,-0.235
23:54:16.880,0.305,-0.33
23:54:16.884,0.605,-0.55
23:54:16.888,0.92,-0.805
23:54:16.892,1.135,-1.04
23:54:16.896,1.155,-1.105
23:54:16.900,0.88,-0.95
23:54:16.904,0.425,-0.625
23:54:16.908,0.085,-0.285
23:54:16.912,-0.12,-0.075
23:54:16.916,-0.22,0.02
23:54:16.920,-0.33,0.065
23:54:16.924,-0.365,0.085
23:54:16.928,-0.41,0.06
23:54:16.932,-0.44,0.03
23:54:16.936,-0.47,0.015
23:54:16.940,-0.47,0.0
23:54:16.944,-0.51,-0.04
23:54:16.948,-0.535,-0.055
23:54:16.952,-0.57,-0.05
23:54:16.956,-0.575,-0.07
23:54:16.960,-0.575,-0.1
23:54:16.964,-0.57,-0.1
23:54:16.968,-0.58,-0.085
23:54:16.972,-0.585,-0.115
23:54:16.976,-0.57,-0.12
23:54:16.980,-0.565,-0.13
23:54:16.984,-0.545,-0.145
23:54:16.988,-0.56,-0.15
23:54:16.992,-0.55,-0.135
23:54:16.996,-0.55,-0.145
23:54:17.000,-0.55,-0.145
23:54:17.004,-0.54,-0.145
23:54:17.008,-0.535,-0.185
23:54:17.012,-0.54,-0.155
23:54:17.016,-0.535,-0.16
23:54:17.020,-0.52,-0.13
23:54:17.024,-0.525,-0.165
23:54:17.028,-0.53,-0.16
23:54:17.032,-0.54,-0.19
23:54:17.036,-0.54,-0.185
23:54:17.040,-0.54,-0.185
23:54:17.044,-0.54,-0.18
23:54:17.048,-0.535,-0.2
23:54:17.052,-0.545,-0.195
23:54:17.056,-0.53,-0.15
23:54:17.060,-0.52,-0.16
23:54:17.064,-0.495,-0.17
23:54:17.068,-0.485,-0.16
23:54:17.072,-0.455,-0.165
23:54:17.076,-0.47,-0.165
23:54:17.080,-0.45,-0.185
23:54:17.084,-0.455,-0.155
23:54:17.088,-0.445,-0.115
23:54:17.092,-0.45,-0.11
23:54:17.096,-0.41,-0.14
23:54:17.100,-0.395,-0.14
23:54:17.104,-0.37,-0.145
23:54:17.108,-0.365,-0.135
23:54:17.112,-0.345,-0.11
23:54:17.116,-0.35,-0.12
23:54:17.120,-0.32,-0.13
23:54:17.124,-0.32,-0.11
23:54:17.128,-0.3,-0.125
23:54:17.132,-0.32,-0.115
23:54:17.136,-0.34,-0.115
23:54:17.140,-0.35,-0.13
23:54:17.144,-0.35,-0.105
23:54:17.148,-0.375,-0.125
23:54:17.152,-0.385,-0.13
23:54:17.156,-0.39,-0.135
23:54:17.160,-0.41,-0.12
23:54:17.164,-0.42,-0.14
23:54:17.168,-0.435,-0.15
23:54:17.172,-0.445,-0.185
23:54:17.176,-0.46,-0.17
23:54:17.180,-0.45,-0.16
23:54:17.184,-0.435,-0.18
23:54:17.188,-0.44,-0.16
23:54:17.192,-0.435,-0.155
23:54:17.196,-0.415,-0.17
23:54:17.200,-0.4,-0.17
23:54:17.204,-0.38,-0.17
23:54:17.208,-0.36,-0.19
23:54:17.212,-0.37,-0.175
23:54:17.216,-0.36,-0.17
23:54:17.220,-0.37,-0.19
23:54:17.224,-0.365,-0.16
23:54:17.228,-0.36,-0.175
23:54:17.232,-0.355,-0.175
23:54:17.236,-0.35,-0.16
23:54:17.240,-0.34,-0.17
23:54:17.244,-0.345,-0.185
23:54:17.248,-0.355,-0.2
23:54:17.252,-0.36,-0.16
23:54:17.256,-0.345,-0.175
23:54:17.260,-0.35,-0.205
23:54:17.264,-0.37,-0.215
23:54:17.268,-0.345,-0.215
23:54:17.272,-0.39,-0.2
23:54:17.276,-0.35,-0.195
23:54:17.280,-0.345,-0.185
23:54:17.284,-0.32,-0.175
23:54:17.288,-0.325,-0.175
23:54:17.292,-0.32,-0.175
23:54:17.296,-0.31,-0.175
23:54:17.300,-0.285,-0.16
23:54:17.304,-0.285,-0.16
23:54:17.308,-0.305,-0.17
23:54:17.312,-0.29,-0.165
23:54:17.316,-0.285,-0.16
23:54:17.320,-0.28,-0.165
23:54:17.324,-0.27,-0.15
23:54:17.328,-0.255,-0.155
23:54:17.332,-0.245,-0.16
23:54:17.336,-0.25,-0.17
23:54:17.340,-0.25,-0.16
23:54:17.344,-0.235,-0.155
23:54:17.348,-0.21,-0.15
23:54:17.352,-0.15,-0.145
23:54:17.356,-0.09,-0.17
23:54:17.360,-0.005,-0.16
23:54:17.364,0.05,-0.165
23:54:17.368,0.08,-0.2
23:54:17.372,0.095,-0.215
23:54:17.376,0.115,-0.21
23:54:17.380,0.065,-0.155
23:54:17.384,0.005,-0.165
23:54:17.388,-0.035,-0.195
23:54:17.392,0.085,-0.265
23:54:17.396,0.35,-0.455
23:54:17.400,0.635,-0.74
23:54:17.404,0.875,-1.015
23:54:17.408,0.935,-1.16
23:54:17.412,0.735,-1.09
23:54:17.416,0.33,-0.795
23:54:17.420,-0.05,-0.46
23:54:17.424,-0.25,-0.22
23:54:17.428,-0.38,-0.105
23:54:17.432,-0.44,-0.055
23:54:17.436,-0.45,-0.06
23:54:17.440,-0.47,-0.09
23:54:17.444,-0.485,-0.07
23:54:17.448,-0.5,-0.125
23:54:17.452,-0.515,-0.145
23:54:17.456,-0.53,-0.195
23:54:17.460,-0.54,-0.21
23:54:17.464,-0.525,-0.235
23:54:17.468,-0.52,-0.245
23:54:17.472,-0.52,-0.255
23:54:17.476,-0.525,-0.255
23:54:17.480,-0.52,-0.255
23:54:17.484,-0.55,-0.26
23:54:17.488,-0.535,-0.275
23:54:17.492,-0.54,-0.28
23:54:17.496,-0.545,-0.26
23:54:17.500,-0.535,-0.25
23:54:17.504,-0.51,-0.22
23:54:17.508,-0.505,-0.245
23:54:17.512,-0.5,-0.255
23:54:17.516,-0.51,-0.265
23:54:17.520,-0.505,-0.24
23:54:17.524,-0.5,-0.23
23:54:17.528,-0.505,-0.215
23:54:17.532,-0.48,-0.205
23:54:17.536,-0.48,-0.23
23:54:17.540,-0.49,-0.225
23:54:17.544,-0.495,-0.225
23:54:17.548,-0.495,-0.2
23:54:17.552,-0.48,-0.21
23:54:17.556,-0.485,-0.2
23:54:17.560,-0.48,-0.19
23:54:17.564,-0.5,-0.205
23:54:17.568,-0.485,-0.215
23:54:17.572,-0.5,-0.2
23:54:17.576,-0.485,-0.18
23:54:17.580,-0.48,-0.2
23:54:17.584,-0.495,-0.195
23:54:17.588,-0.515,-0.22
23:54:17.592,-0.495,-0.225
23:54:17.596,-0.51,-0.205
23:54:17.600,-0.515,-0.215
23:54:17.604,-0.525,-0.22
23:54:17.608,-0.535,-0.23
23:54:17.612,-0.55,-0.24
23:54:17.616,-0.555,-0.235
23:54:17.620,-0.55,-0.24
23:54:17.624,-0.565,-0.24
23:54:17.628,-0.575,-0.265
23:54:17.632,-0.545,-0.285
23:54:17.636,-0.555,-0.275
23:54:17.640,-0.525,-0.27
23:54:17.644,-0.51,-0.295
23:54:17.648,-0.485,-0.295
23:54:17.652,-0.435,-0.3
23:54:17.656,-0.4,-0.31
23:54:17.660,-0.405,-0.31
23:54:17.664,-0.385,-0.32
23:54:17.668,-0.365,-0.31
23:54:17.672,-0.355,-0.305
23:54:17.676,-0.335,-0.285
23:54:17.680,-0.315,-0.31
23:54:17.684,-0.315,-0.3
23:54:17.688,-0.315,-0.315
23:54:17.692,-0.295,-0.325
23:54:17.696,-0.3,-0.32
23:54:17.700,-0.315,-0.31
23:54:17.704,-0.31,-0.305
23:54:17.708,-0.325,-0.325
23:54:17.712,-0.31,-0.32
23:54:17.716,-0.33,-0.33
23:54:17.720,-0.32,-0.3
23:54:17.724,-0.315,-0.285
23:54:17.728,-0.295,-0.29
23:54:17.732,-0.265,-0.27
23:54:17.736,-0.25,-0.28
23:54:17.740,-0.27,-0.28
23:54:17.744,-0.27,-0.29
23:54:17.748,-0.25,-0.265
23:54:17.752,-0.255,-0.275
23:54:17.756,-0.255,-0.285
23:54:17.760,-0.25,-0.26
23:54:17.764,-0.26,-0.25
23:54:17.768,-0.265,-0.25
23:54:17.772,-0.255,-0.275
23:54:17.776,-0.25,-0.265
23:54:17.780,-0.265,-0.28
23:54:17.784,-0.245,-0.265
23:54:17.788,-0.24,-0.255
23:54:17.792,-0.24,-0.24
23:54:17.796,-0.235,-0.24
23:54:17.800,-0.245,-0.28
23:54:17.804,-0.25,-0.26
23:54:17.808,-0.265,-0.255
23:54:17.812,-0.265,-0.27
23:54:17.816,-0.265,-0.29
23:54:17.820,-0.27,-0.265
23:54:17.824,-0.26,-0.28
23:54:17.828,-0.25,-0.285
23:54:17.832,-0.22,-0.3
23:54:17.836,-0.17,-0.32
23:54:17.840,-0.13,-0.285
23:54:17.844,-0.06,-0.295
23:54:17.848,0.02,-0.315
23:54:17.852,0.085,-0.335
23:54:17.856,0.16,-0.365
23:54:17.860,0.2,-0.335
23:54:17.864,0.25,-0.3
23:54:17.868,0.195,-0.28
23:54:17.872,0.2,-0.32
23:54:17.876,0.325,-0.37
23:54:17.880,0.6,-0.57
23:54:17.884,0.935,-0.855
23:54:17.888,1.115,-1.105
23:54:17.892,1.1,-1.23
23:54:17.896,0.815,-1.1
23:54:17.900,0.37,-0.795
23:54:17.904,0.015,-0.5
23:54:17.908,-0.155,-0.345
23:54:17.912,-0.25,-0.26
23:54:17.916,-0.3,-0.19
23:54:17.920,-0.34,-0.185
23:54:17.924,-0.37,-0.205
23:54:17.928,-0.42,-0.21
23:54:17.932,-0.44,-0.235
23:54:17.936,-0.445,-0.28
23:54:17.940,-0.46,-0.3
23:54:17.944,-0.465,-0.34
23:54:17.948,-0.465,-0.32
23:54:17.952,-0.45,-0.335
23:54:17.956,-0.455,-0.31
23:54:17.960,-0.45,-0.31
23:54:17.964,-0.47,-0.295
23:54:17.968,-0.435,-0.32
23:54:17.972,-0.43,-0.305
23:54:17.976,-0.43,-0.295
23:54:17.980,-0.405,-0.31
23:54:17.984,-0.415,-0.285
23:54:17.988,-0.42,-0.285
23:54:17.992,-0.425,-0.275
23:54:17.996,-0.41,-0.275
23:54:18.000,-0.43,-0.265
23:54:18.004,-0.445,-0.275
23:54:18.008,-0.435,-0.285
23:54:18.012,-0.46,-0.255
23:54:18.016,-0.46,-0.285
23:54:18.020,-0.455,-0.3
23:54:18.024,-0.475,-0.28
23:54:18.028,-0.48,-0.285
23:54:18.032,-0.525,-0.3
23:54:18.036,-0.55,-0.28
23:54:18.040,-0.575,-0.305
23:54:18.044,-0.585,-0.31
23:54:18.048,-0.59,-0.315
23:54:18.052,-0.6,-0.315
23:54:18.056,-0.61,-0.33
23:54:18.060,-0.615,-0.305
23:54:18.064,-0.61,-0.315
23:54:18.068,-0.605,-0.32
23:54:18.072,-0.615,-0.315
23:54:18.076,-0.62,-0.29
23:54:18.080,-0.6,-0.315
23:54:18.084,-0.575,-0.31
23:54:18.088,-0.55,-0.32
23:54:18.092,-0.545,-0.315
23:54:18.096,-0.51,-0.335
23:54:18.100,-0.48,-0.32
23:54:18.104,-0.49,-0.345
23:54:18.108,-0.47,-0.335
23:54:18.112,-0.445,-0.34
23:54:18.116,-0.44,-0.38
23:54:18.120,-0.41,-0.365
23:54:18.124,-0.4,-0.365
23:54:18.128,-0.405,-0.375
23:54:18.132,-0.375,-0.365
23:54:18.136,-0.365,-0.38
23:54:18.140,-0.37,-0.38
23:54:18.144,-0.36,-0.375
23:54:18.148,-0.35,-0.38
23:54:18.152,-0.34,-0.39
23:54:18.156,-0.335,-0.36
23:54:18.160,-0.305,-0.35
23:54:18.164,-0.31,-0.335
23:54:18.168,-0.265,-0.33
23:54:18.172,-0.27,-0.315
23:54:18.176,-0.275,-0.32
23:54:18.180,-0.26,-0.3
23:54:18.184,-0.235,-0.285
23:54:18.188,-0.225,-0.255
23:54:18.192,-0.21,-0.25
23:54:18.196,-0.215,-0.26
23:54:18.200,-0.225,-0.235
23:54:18.204,-0.22,-0.23
23:54:18.208,-0.21,-0.22
23:54:18.212,-0.205,-0.24
23:54:18.216,-0.21,-0.2
23:54:18.220,-0.23,-0.215
23:54:18.224,-0.205,-0.225
23:54:18.228,-0.225,-0.225
23:54:18.232,-0.245,-0.215
23:54:18.236,-0.235,-0.205
23:54:18.240,-0.245,-0.23
23:54:18.244,-0.255,-0.22
23:54:18.248,-0.285,-0.235
23:54:18.252,-0.305,-0.25
23:54:18.256,-0.33,-0.245
23:54:18.260,-0.34,-0.265
23:54:18.264,-0.36,-0.26
23:54:18.268,-0.375,-0.25
23:54:18.272,-0.38,-0.26
23:54:18.276,-0.38,-0.25
23:54:18.280,-0.395,-0.25
23:54:18.284,-0.395,-0.255
23:54:18.288,-0.405,-0.25
23:54:18.292,-0.41,-0.225
23:54:18.296,-0.395,-0.215
23:54:18.300,-0.405,-0.225
23:54:18.304,-0.405,-0.215
23:54:18.308,-0.38,-0.2
23:54:18.312,-0.37,-0.2
23:54:18.316,-0.345,-0.215
23:54:18.320,-0.375,-0.21
23:54:18.324,-0.36,-0.22
23:54:18.328,-0.34,-0.235
23:54:18.332,-0.36,-0.245
23:54:18.336,-0.33,-0.25
23:54:18.340,-0.315,-0.245
23:54:18.344,-0.31,-0.265
23:54:18.348,-0.335,-0.27
23:54:18.352,-0.34,-0.29
23:54:18.356,-0.335,-0.28
23:54:18.360,-0.35,-0.26
23:54:18.364,-0.35,-0.29
23:54:18.368,-0.365,-0.28
23:54:18.372,-0.365,-0.275
23:54:18.376,-0.355,-0.29
23:54:18.380,-0.35,-0.27
23:54:18.384,-0.325,-0.265
23:54:18.388,-0.32,-0.255
23:54:18.392,-0.325,-0.25
23:54:18.396,-0.3,-0.23
23:54:18.400,-0.3,-0.215
23:54:18.404,-0.28,-0.18
23:54:18.408,-0.285,-0.185
23:54:18.412,-0.265,-0.18
23:54:18.416,-0.265,-0.195
23:54:18.420,-0.265,-0.16
23:54:18.424,-0.225,-0.15
23:54:18.428,-0.21,-0.185
23:54:18.432,-0.19,-0.17
23:54:18.436,-0.135,-0.16
23:54:18.440,-0.07,-0.17
23:54:18.444,0.065,-0.17
23:54:18.448,0.12,-0.19
23:54:18.452,0.17,-0.235
23:54:18.456,0.195,-0.27
23:54:18.460,0.185,-0.23
23:54:18.464,0.145,-0.23
23:54:18.468,0.115,-0.255
23:54:18.472,0.105,-0.285
23:54:18.476,0.24,-0.405
23:54:18.480,0.525,-0.64
23:54:18.484,0.86,-0.9
23:54:18.488,1.025,-1.12
23:54:18.492,0.985,-1.19
23:54:18.496,0.67,-0.98
23:54:18.500,0.195,-0.615
23:54:18.504,-0.15,-0.315
23:54:18.508,-0.31,-0.15
23:54:18.512,-0.425,-0.045
23:54:18.516,-0.48,-0.015
23:54:18.520,-0.5,-0.025
23:54:18.524,-0.505,-0.025
23:54:18.528,-0.53,-0.075
23:54:18.532,-0.53,-0.1
23:54:18.536,-0.53,-0.08
23:54:18.540,-0.56,-0.11
23:54:18.544,-0.565,-0.09
23:54:18.548,-0.55,-0.1
23:54:18.552,-0.54,-0.115
23:54:18.556,-0.55,-0.15
23:54:18.560,-0.55,-0.15
23:54:18.564,-0.52,-0.155
23:54:18.568,-0.525,-0.14
23:54:18.572,-0.53,-0.155
23:54:18.576,-0.525,-0.18
23:54:18.580,-0.55,-0.16
23:54:18.584,-0.545,-0.165
23:54:18.588,-0.54,-0.17
23:54:18.592,-0.57,-0.18
23:54:18.596,-0.565,-0.18
23:54:18.600,-0.575,-0.17
23:54:18.604,-0.57,-0.17
23:54:18.608,-0.54,-0.135
23:54:18.612,-0.55,-0.13
23:54:18.616,-0.53,-0.145
23:54:18.620,-0.535,-0.135
23:54:18.624,-0.52,-0.12
23:54:18.628,-0.5,-0.12
23:54:18.632,-0.495,-0.095
23:54:18.636,-0.475,-0.09
23:54:18.640,-0.46,-0.095
23:54:18.644,-0.475,-0.07
23:54:18.648,-0.485,-0.05
23:54:18.652,-0.485,-0.06
23:54:18.656,-0.5,-0.055
23:54:18.660,-0.485,-0.05
23:54:18.664,-0.465,-0.07
23:54:18.668,-0.485,-0.07
23:54:18.672,-0.49,-0.08
23:54:18.676,-0.465,-0.07
23:54:18.680,-0.48,-0.07
23:54:18.684,-0.485,-0.075
23:54:18.688,-0.49,-0.09
23:54:18.692,-0.5,-0.115
23:54:18.696,-0.48,-0.125
23:54:18.700,-0.5,-0.11
23:54:18.704,-0.52,-0.105
23:54:18.708,-0.51,-0.12
23:54:18.712,-0.505,-0.15
23:54:18.716,-0.515,-0.155
23:54:18.720,-0.505,-0.17
23:54:18.724,-0.52,-0.165
23:54:18.728,-0.5,-0.19
23:54:18.732,-0.495,-0.185
23:54:18.736,-0.47,-0.21
23:54:18.740,-0.47,-0.175
23:54:18.744,-0.435,-0.19
23:54:18.748,-0.44,-0.17
23:54:18.752,-0.4,-0.16
23:54:18.756,-0.415,-0.18
23:54:18.760,-0.4,-0.16
23:54:18.764,-0.4,-0.185
23:54:18.768,-0.385,-0.185
23:54:18.772,-0.37,-0.185
23:54:18.776,-0.35,-0.19
23:54:18.780,-0.34,-0.195
23:54:18.784,-0.345,-0.2
23:54:18.788,-0.34,-0.195
23:54:18.792,-0.32,-0.21
23:54:18.796,-0.345,-0.195
23:54:18.800,-0.35,-0.2
23:54:18.804,-0.345,-0.2
23:54:18.808,-0.335,-0.18
23:54:18.812,-0.325,-0.185
23:54:18.816,-0.315,-0.19
23:54:18.820,-0.325,-0.195
23:54:18.824,-0.325,-0.155
23:54:18.828,-0.315,-0.15
23:54:18.832,-0.31,-0.12
23:54:18.836,-0.32,-0.105
23:54:18.840,-0.265,-0.115
23:54:18.844,-0.27,-0.105
23:54:18.848,-0.26,-0.115
23:54:18.852,-0.25,-0.105
23:54:18.856,-0.24,-0.085
23:54:18.860,-0.245,-0.075
23:54:18.864,-0.235,-0.095
23:54:18.868,-0.245,-0.075
23:54:18.872,-0.235,-0.075
23:54:18.876,-0.23,-0.08
23:54:18.880,-0.215,-0.075
23:54:18.884,-0.215,-0.08
23:54:18.888,-0.205,-0.095
23:54:18.892,-0.19,-0.085
23:54:18.896,-0.205,-0.085
23:54:18.900,-0.21,-0.085
23:54:18.904,-0.225,-0.08
23:54:18.908,-0.245,-0.06
23:54:18.912,-0.265,-0.085
23:54:18.916,-0.265,-0.09
23:54:18.920,-0.265,-0.07
23:54:18.924,-0.295,-0.09
23:54:18.928,-0.315,-0.095
23:54:18.932,-0.32,-0.105
23:54:18.936,-0.285,-0.085
23:54:18.940,-0.275,-0.095
23:54:18.944,-0.23,-0.105
23:54:18.948,-0.165,-0.085
23:54:18.952,-0.11,-0.135
23:54:18.956,-0.065,-0.16
23:54:18.960,-0.06,-0.175
23:54:18.964,-0.06,-0.175
23:54:18.968,-0.08,-0.125
23:54:18.972,-0.145,-0.12
23:54:18.976,-0.155,-0.135
23:54:18.980,-0.005,-0.235
23:54:18.984,0.305,-0.42
23:54:18.988,0.64,-0.73
23:54:18.992,0.895,-1.005
23:54:18.996,0.945,-1.115
23:54:19.000,0.77,-1.0
23:54:19.004,0.355,-0.67
23:54:19.008,-0.035,-0.325
23:54:19.012,-0.26,-0.09
23:54:19.016,-0.375,0.035
23:54:19.020,-0.44,0.04
23:54:19.024,-0.44,0.005
23:54:19.028,-0.49,-0.02
23:54:19.032,-0.525,-0.05
23:54:19.036,-0.5,-0.075
23:54:19.040,-0.515,-0.09
23:54:19.044,-0.51,-0.08
23:54:19.048,-0.5,-0.09
23:54:19.052,-0.505,-0.1
23:54:19.056,-0.495,-0.105
23:54:19.060,-0.49,-0.095
23:54:19.064,-0.475,-0.105
23:54:19.068,-0.46,-0.1
23:54:19.072,-0.46,-0.11
23:54:19.076,-0.46,-0.1
23:54:19.080,-0.46,-0.115
23:54:19.084,-0.475,-0.1
23:54:19.088,-0.48,-0.08
23:54:19.092,-0.47,-0.105
23:54:19.096,-0.455,-0.075
23:54:19.100,-0.435,-0.075
23:54:19.104,-0.44,-0.08
23:54:19.108,-0.435,-0.09
23:54:19.112,-0.445,-0.08
23:54:19.116,-0.435,-0.06
23:54:19.120,-0.45,-0.065
23:54:19.124,-0.45,-0.075
23:54:19.128,-0.465,-0.08
23:54:19.132,-0.48,-0.04
23:54:19.136,-0.48,-0.06
23:54:19.140,-0.49,-0.055
23:54:19.144,-0.5,-0.04
23:54:19.148,-0.515,-0.055
23:54:19.152,-0.545,-0.05
23:54:19.156,-0.55,-0.08
23:54:19.160,-0.565,-0.075
23:54:19.164,-0.59,-0.075
23:54:19.168,-0.565,-0.1
23:54:19.172,-0.56,-0.08
23:54:19.176,-0.55,-0.075
23:54:19.180,-0.585,-0.08
23:54:19.184,-0.555,-0.085
23:54:19.188,-0.555,-0.095
23:54:19.192,-0.59,-0.085
23:54:19.196,-0.56,-0.11
23:54:19.200,-0.54,-0.1
23:54:19.204,-0.545,-0.105
23:54:19.208,-0.52,-0.11
23:54:19.212,-0.51,-0.12
23:54:19.216,-0.515,-0.16
23:54:19.220,-0.49,-0.145
23:54:19.224,-0.485,-0.145
23:54:19.228,-0.47,-0.155
23:54:19.232,-0.45,-0.18
23:54:19.236,-0.46,-0.16
23:54:19.240,-0.42,-0.195
23:54:19.244,-0.4,-0.19
23:54:19.248,-0.39,-0.205
23:54:19.252,-0.375,-0.22
23:54:19.256,-0.395,-0.2
23:54:19.260,-0.37,-0.185
23:54:19.264,-0.35,-0.19
23:54:19.268,-0.355,-0.17
23:54:19.272,-0.335,-0.16
23:54:19.276,-0.32,-0.155
23:54:19.280,-0.315,-0.14
23:54:19.284,-0.28,-0.13
23:54:19.288,-0.285,-0.135
23:54:19.292,-0.295,-0.115
23:54:19.296,-0.295,-0.115
23:54:19.300,-0.3,-0.105
23:54:19.304,-0.31,-0.11
23:54:19.308,-0.31,-0.12
23:54:19.312,-0.31,-0.135
23:54:19.316,-0.305,-0.11
23:54:19.320,-0.31,-0.105
23:54:19.324,-0.325,-0.115
23:54:19.328,-0.335,-0.1
23:54:19.332,-0.32,-0.115
23:54:19.336,-0.32,-0.12
23:54:19.340,-0.315,-0.115
23:54:19.344,-0.3,-0.105
23:54:19.348,-0.295,-0.11
23:54:19.352,-0.28,-0.1
23:54:19.356,-0.295,-0.085
23:54:19.360,-0.315,-0.095
23:54:19.364,-0.335,-0.1
23:54:19.368,-0.365,-0.08
23:54:19.372,-0.385,-0.08
23:54:19.376,-0.385,-0.06
23:54:19.380,-0.41,-0.065
23:54:19.384,-0.41,-0.1
23:54:19.388,-0.4,-0.08
23:54:19.392,-0.39,-0.095
23:54:19.396,-0.39,-0.11
23:54:19.400,-0.375,-0.085
23:54:19.404,-0.39,-0.115
23:54:19.408,-0.385,-0.1
23:54:19.412,-0.38,-0.095
23:54:19.416,-0.375,-0.105
23:54:19.420,-0.37,-0.09
23:54:19.424,-0.385,-0.11
23:54:19.428,-0.38,-0.08
23:54:19.432,-0.37,-0.11
23:54:19.436,-0.35,-0.095
23:54:19.440,-0.385,-0.095
23:54:19.444,-0.385,-0.095
23:54:19.448,-0.37,-0.1
23:54:19.452,-0.385,-0.11
23:54:19.456,-0.385,-0.1
23:54:19.460,-0.37,-0.1
23:54:19.464,-0.355,-0.13
23:54:19.468,-0.365,-0.14
23:54:19.472,-0.355,-0.135
23:54:19.476,-0.345,-0.15
23:54:19.480,-0.365,-0.16
23:54:19.484,-0.355,-0.17
23:54:19.488,-0.34,-0.15
23:54:19.492,-0.32,-0.165
23:54:19.496,-0.255,-0.175
23:54:19.500,-0.195,-0.17
23:54:19.504,-0.09,-0.185
23:54:19.508,0.015,-0.185
23:54:19.512,0.08,-0.185
23:54:19.516,0.115,-0.23
23:54:19.520,0.13,-0.23
23:54:19.524,0.125,-0.19
23:54:19.528,0.085,-0.16
23:54:19.532,0.08,-0.195
23:54:19.536,0.14,-0.24
23:54:19.540,0.365,-0.4
23:54:19.544,0.665,-0.66
23:54:19.548,0.965,-0.96
23:54:19.552,1.115,-1.115
23:54:19.556,1.025,-1.095
23:54:19.560,0.66,-0.85
23:54:19.564,0.215,-0.485
23:54:19.568,-0.075,-0.21
23:54:19.572,-0.22,-0.05
23:54:19.576,-0.3,0.015
23:54:19.580,-0.34,0.035
23:54:19.584,-0.36,0.045
23:54:19.588,-0.4,0.015
23:54:19.592,-0.435,0.0
23:54:19.596,-0.46,-0.005
23:54:19.600,-0.495,-0.03
23:54:19.604,-0.52,-0.035
23:54:19.608,-0.54,-0.065
23:54:19.612,-0.555,-0.06
23:54:19.616,-0.56,-0.07
23:54:19.620,-0.545,-0.08
23:54:19.624,-0.56,-0.085
23:54:19.628,-0.55,-0.095
23:54:19.632,-0.555,-0.115
23:54:19.636,-0.535,-0.115
23:54:19.640,-0.54,-0.1
23:54:19.644,-0.535,-0.11
23:54:19.648,-0.535,-0.11
23:54:19.652,-0.58,-0.115
23:54:19.656,-0.565,-0.125
23:54:19.660,-0.57,-0.11
23:54:19.664,-0.58,-0.125
23:54:19.668,-0.58,-0.105
23:54:19.672,-0.6,-0.12
23:54:19.676,-0.59,-0.135
23:54:19.680,-0.6,-0.145
23:54:19.684,-0.59,-0.14
23:54:19.688,-0.595,-0.145
23:54:19.692,-0.595,-0.15
23:54:19.696,-0.6,-0.155
23:54:19.700,-0.605,-0.15
23:54:19.704,-0.635,-0.155
23:54:19.708,-0.615,-0.145
23:54:19.712,-0.605,-0.15
23:54:19.716,-0.575,-0.15
23:54:19.720,-0.585,-0.175
23:54:19.724,-0.57,-0.2
23:54:19.728,-0.55,-0.195
23:54:19.732,-0.55,-0.19
23:54:19.736,-0.535,-0.22
23:54:19.740,-0.505,-0.22
23:54:19.744,-0.465,-0.215
23:54:19.748,-0.46,-0.22
23:54:19.752,-0.43,-0.205
23:54:19.756,-0.435,-0.2
23:54:19.760,-0.415,-0.18
23:54:19.764,-0.375,-0.195
23:54:19.768,-0.39,-0.205
23:54:19.772,-0.39,-0.195
23:54:19.776,-0.375,-0.21
23:54:19.780,-0.365,-0.21
23:54:19.784,-0.365,-0.2
23:54:19.788,-0.335,-0.2
23:54:19.792,-0.335,-0.21
23:54:19.796,-0.325,-0.225
23:54:19.800,-0.335,-0.235
23:54:19.804,-0.335,-0.245
23:54:19.808,-0.32,-0.245
23:54:19.812,-0.315,-0.24
23:54:19.816,-0.305,-0.255
23:54:19.820,-0.295,-0.25
23:54:19.824,-0.29,-0.23
23:54:19.828,-0.335,-0.22
23:54:19.832,-0.375,-0.215
23:54:19.836,-0.36,-0.225
23:54:19.840,-0.34,-0.22
23:54:19.844,-0.335,-0.21
23:54:19.848,-0.33,-0.2
23:54:19.852,-0.33,-0.235
23:54:19.856,-0.315,-0.22
23:54:19.860,-0.34,-0.22
23:54:19.864,-0.34,-0.215
23:54:19.868,-0.33,-0.235
23:54:19.872,-0.325,-0.2
23:54:19.876,-0.335,-0.18
23:54:19.880,-0.345,-0.19
23:54:19.884,-0.34,-0.19
23:54:19.888,-0.345,-0.165
23:54:19.892,-0.365,-0.175
23:54:19.896,-0.345,-0.195
23:54:19.900,-0.315,-0.19
23:54:19.904,-0.35,-0.2
23:54:19.908,-0.325,-0.215
23:54:19.912,-0.34,-0.2
23:54:19.916,-0.38,-0.205
23:54:19.920,-0.385,-0.2
23:54:19.924,-0.375,-0.2
23:54:19.928,-0.36,-0.2
23:54:19.932,-0.355,-0.22
23:54:19.936,-0.355,-0.22
23:54:19.940,-0.33,-0.22
23:54:19.944,-0.32,-0.225
23:54:19.948,-0.29,-0.215
23:54:19.952,-0.27,-0.225
23:54:19.956,-0.255,-0.25
23:54:19.960,-0.26,-0.25
23:54:19.964,-0.24,-0.26
23:54:19.968,-0.235,-0.235
23:54:19.972,-0.22,-0.235
23:54:19.976,-0.22,-0.245
23:54:19.980,-0.215,-0.255
23:54:19.984,-0.215,-0.25
23:54:19.988,-0.2,-0.235
23:54:19.992,-0.175,-0.24
23:54:19.996,-0.185,-0.25
23:54:20.000,-0.19,-0.25
23:54:20.004,-0.17,-0.235
23:54:20.008,-0.17,-0.225
23:54:20.012,-0.15,-0.245
23:54:20.016,-0.135,-0.255
23:54:20.020,-0.08,-0.255
23:54:20.024,-0.005,-0.26
23:54:20.028,0.065,-0.26
23:54:20.032,0.13,-0.3
23:54:20.036,0.185,-0.32
23:54:20.040,0.23,-0.33
23:54:20.044,0.26,-0.29
23:54:20.048,0.26,-0.25
23:54:20.052,0.24,-0.24
23:54:20.056,0.185,-0.245
23:54:20.060,0.325,-0.36
23:54:20.064,0.54,-0.57
23:54:20.068,0.86,-0.84
23:54:20.072,1.08,-1.06
23:54:20.076,1.075,-1.14
23:54:20.080,0.81,-0.98
23:54:20.084,0.375,-0.69
23:54:20.088,0.06,-0.435
23:54:20.092,-0.115,-0.295
23:54:20.096,-0.225,-0.195
23:54:20.100,-0.26,-0.13
23:54:20.104,-0.29,-0.11
23:54:20.108,-0.35,-0.105
23:54:20.112,-0.385,-0.16
23:54:20.116,-0.405,-0.16
23:54:20.120,-0.435,-0.19
23:54:20.124,-0.45,-0.245
23:54:20.128,-0.47,-0.25
23:54:20.132,-0.485,-0.26
23:54:20.136,-0.495,-0.265
23:54:20.140,-0.5,-0.275
23:54:20.144,-0.52,-0.255
23:54:20.148,-0.515,-0.25
23:54:20.152,-0.48,-0.265
23:54:20.156,-0.49,-0.245
23:54:20.160,-0.505,-0.255
23:54:20.164,-0.51,-0.265
23:54:20.168,-0.525,-0.27
23:54:20.172,-0.5,-0.295
23:54:20.176,-0.505,-0.285
23:54:20.180,-0.47,-0.3
23:54:20.184,-0.465,-0.3
23:54:20.188,-0.455,-0.305
23:54:20.192,-0.445,-0.305
23:54:20.196,-0.455,-0.28
23:54:20.200,-0.42,-0.28
23:54:20.204,-0.405,-0.29
23:54:20.208,-0.44,-0.285
23:54:20.212,-0.43,-0.265
23:54:20.216,-0.425,-0.255
23:54:20.220,-0.44,-0.24
23:54:20.224,-0.44,-0.23
23:54:20.228,-0.41,-0.245
23:54:20.232,-0.415,-0.255
23:54:20.236,-0.45,-0.24
23:54:20.240,-0.45,-0.25
23:54:20.244,-0.43,-0.26
23:54:20.248,-0.465,-0.3
23:54:20.252,-0.46,-0.285
23:54:20.256,-0.5,-0.28
23:54:20.260,-0.505,-0.305
23:54:20.264,-0.51,-0.3
23:54:20.268,-0.49,-0.315
23:54:20.272,-0.515,-0.315
23:54:20.276,-0.51,-0.32
23:54:20.280,-0.52,-0.34
23:54:20.284,-0.51,-0.325
23:54:20.288,-0.49,-0.33
23:54:20.292,-0.46,-0.365
23:54:20.296,-0.445,-0.355
23:54:20.300,-0.41,-0.35
23:54:20.304,-0.415,-0.34
23:54:20.308,-0.4,-0.32
23:54:20.312,-0.395,-0.335
23:54:20.316,-0.35,-0.35
23:54:20.320,-0.33,-0.36
23:54:20.324,-0.32,-0.35
23:54:20.328,-0.305,-0.305
23:54:20.332,-0.275,-0.32
23:54:20.336,-0.285,-0.345
23:54:20.340,-0.285,-0.335
23:54:20.344,-0.29,-0.345
23:54:20.348,-0.305,-0.34
23:54:20.352,-0.33,-0.315
23:54:20.356,-0.335,-0.31
23:54:20.360,-0.325,-0.29
23:54:20.364,-0.335,-0.3
23:54:20.368,-0.35,-0.295
23:54:20.372,-0.35,-0.28
23:54:20.376,-0.34,-0.31
23:54:20.380,-0.355,-0.295
23:54:20.384,-0.355,-0.27
23:54:20.388,-0.365,-0.285
23:54:20.392,-0.34,-0.305
23:54:20.396,-0.33,-0.29
23:54:20.400,-0.35,-0.3
23:54:20.404,-0.345,-0.295
23:54:20.408,-0.32,-0.315
23:54:20.412,-0.29,-0.295
23:54:20.416,-0.275,-0.31
23:54:20.420,-0.275,-0.29
23:54:20.424,-0.225,-0.29
23:54:20.428,-0.215,-0.305
23:54:20.432,-0.205,-0.275
23:54:20.436,-0.18,-0.275
23:54:20.440,-0.15,-0.27
23:54:20.444,-0.11,-0.23
23:54:20.448,-0.12,-0.21
23:54:20.452,-0.145,-0.21
23:54:20.456,-0.16,-0.195
23:54:20.460,-0.16,-0.185
23:54:20.464,-0.185,-0.22
23:54:20.468,-0.215,-0.23
23:54:20.472,-0.21,-0.24
23:54:20.476,-0.22,-0.225
23:54:20.480,-0.24,-0.23
23:54:20.484,-0.275,-0.23
23:54:20.488,-0.31,-0.25
23:54:20.492,-0.32,-0.245
23:54:20.496,-0.335,-0.24
23:54:20.500,-0.33,-0.24
23:54:20.504,-0.345,-0.27
23:54:20.508,-0.33,-0.29
23:54:20.512,-0.34,-0.25
23:54:20.516,-0.34,-0.255
23:54:20.520,-0.345,-0.24
23:54:20.524,-0.33,-0.245
23:54:20.528,-0.32,-0.245
23:54:20.532,-0.27,-0.265
23:54:20.536,-0.2,-0.26
23:54:20.540,-0.11,-0.23
23:54:20.544,0.02,-0.275
23:54:20.548,0.095,-0.265
23:54:20.552,0.175,-0.32
23:54:20.556,0.22,-0.3
23:54:20.560,0.235,-0.265
23:54:20.564,0.25,-0.245
23:54:20.568,0.19,-0.235
23:54:20.572,0.165,-0.28
23:54:20.576,0.325,-0.415
23:54:20.580,0.595,-0.62
23:54:20.584,0.925,-0.885
23:54:20.588,1.14,-1.1
23:54:20.592,1.135,-1.135
23:54:20.596,0.845,-0.99
23:54:20.600,0.39,-0.635
23:54:20.604,-0.005,-0.34
23:54:20.608,-0.21,-0.16
23:54:20.612,-0.32,-0.075
23:54:20.616,-0.365,-0.015
23:54:20.620,-0.415,-0.02
23:54:20.624,-0.43,-0.02
23:54:20.628,-0.45,-0.05
23:54:20.632,-0.48,-0.075
23:54:20.636,-0.48,-0.095
23:54:20.640,-0.485,-0.11
23:54:20.644,-0.48,-0.135
23:54:20.648,-0.49,-0.13
23:54:20.652,-0.46,-0.13
23:54:20.656,-0.44,-0.13
23:54:20.660,-0.42,-0.115
23:54:20.664,-0.42,-0.11
23:54:20.668,-0.4,-0.09
23:54:20.672,-0.365,-0.08
23:54:20.676,-0.365,-0.05
23:54:20.680,-0.34,-0.065
23:54:20.684,-0.37,-0.035
23:54:20.688,-0.38,-0.035
23:54:20.692,-0.41,-0.04
23:54:20.696,-0.42,0.0
23:54:20.700,-0.455,-0.035
23:54:20.704,-0.465,-0.06
23:54:20.708,-0.51,-0.055
23:54:20.712,-0.51,-0.06
23:54:20.716,-0.54,-0.07
23:54:20.720,-0.54,-0.085
23:54:20.724,-0.55,-0.085
23:54:20.728,-0.565,-0.08
23:54:20.732,-0.575,-0.1
23:54:20.736,-0.595,-0.105
23:54:20.740,-0.57,-0.095
23:54:20.744,-0.6,-0.09
23:54:20.748,-0.59,-0.085
23:54:20.752,-0.615,-0.105
23:54:20.756,-0.585,-0.08
23:54:20.760,-0.58,-0.09
23:54:20.764,-0.57,-0.09
23:54:20.768,-0.57,-0.08
23:54:20.772,-0.56,-0.09
23:54:20.776,-0.53,-0.115
23:54:20.780,-0.525,-0.105
23:54:20.784,-0.535,-0.11
23:54:20.788,-0.52,-0.11
23:54:20.792,-0.525,-0.13
23:54:20.796,-0.51,-0.125
23:54:20.800,-0.515,-0.135
23:54:20.804,-0.49,-0.16
23:54:20.808,-0.465,-0.155
23:54:20.812,-0.465,-0.14
23:54:20.816,-0.46,-0.145
23:54:20.820,-0.44,-0.155
23:54:20.824,-0.45,-0.16
23:54:20.828,-0.435,-0.15
23:54:20.832,-0.43,-0.16
23:54:20.836,-0.395,-0.155
23:54:20.840,-0.38,-0.16
23:54:20.844,-0.36,-0.145
23:54:20.848,-0.355,-0.145
23:54:20.852,-0.345,-0.14
23:54:20.856,-0.33,-0.095
23:54:20.860,-0.33,-0.095
23:54:20.864,-0.32,-0.085
23:54:20.868,-0.295,-0.07
23:54:20.872,-0.26,-0.07
23:54:20.876,-0.24,-0.09
23:54:20.880,-0.25,-0.08
23:54:20.884,-0.22,-0.075
23:54:20.888,-0.2,-0.07
23:54:20.892,-0.2,-0.05
23:54:20.896,-0.17,-0.05
23:54:20.900,-0.155,-0.045
23:54:20.904,-0.145,-0.02
23:54:20.908,-0.175,-0.02
23:54:20.912,-0.15,0.0
23:54:20.916,-0.195,0.01
23:54:20.920,-0.22,0.005
23:54:20.924,-0.23,0.005
23:54:20.928,-0.255,-0.02
23:54:20.932,-0.28,-0.01
23:54:20.936,-0.285,-0.045
23:54:20.940,-0.29,-0.06
23:54:20.944,-0.295,-0.065
23:54:20.948,-0.305,-0.065
23:54:20.952,-0.325,-0.06
23:54:20.956,-0.34,-0.07
23:54:20.960,-0.345,-0.05
23:54:20.964,-0.36,-0.07
23:54:20.968,-0.35,-0.065
23:54:20.972,-0.36,-0.065
23:54:20.976,-0.36,-0.035
23:54:20.980,-0.35,-0.04
23:54:20.984,-0.355,-0.05
23:54:20.988,-0.35,-0.07
23:54:20.992,-0.34,-0.04
23:54:20.996,-0.33,-0.04
23:54:21.000,-0.34,-0.055
23:54:21.004,-0.33,-0.03
23:54:21.008,-0.33,-0.04
23:54:21.012,-0.345,-0.065
23:54:21.016,-0.365,-0.055
23:54:21.020,-0.36,-0.075
23:54:21.024,-0.365,-0.09
23:54:21.028,-0.37,-0.1
23:54:21.032,-0.38,-0.08
23:54:21.036,-0.39,-0.07
23:54:21.040,-0.375,-0.065
23:54:21.044,-0.38,-0.105
23:54:21.048,-0.37,-0.08
23:54:21.052,-0.35,-0.075
23:54:21.056,-0.305,-0.105
23:54:21.060,-0.25,-0.12
23:54:21.064,-0.16,-0.11
23:54:21.068,-0.06,-0.12
23:54:21.072,-0.035,-0.13
23:54:21.076,0.01,-0.15
23:54:21.080,0.02,-0.17
23:54:21.084,0.005,-0.125
23:54:21.088,-0.025,-0.12
23:54:21.092,-0.06,-0.14
23:54:21.096,-0.005,-0.19
23:54:21.100,0.245,-0.335
23:54:21.104,0.585,-0.57
23:54:21.108,0.91,-0.845
23:54:21.112,1.165,-1.025
23:54:21.116,1.165,-0.99
23:54:21.120,0.89,-0.77
23:54:21.124,0.445,-0.36
23:54:21.128,0.13,-0.05
23:54:21.132,-0.055,0.15
23:54:21.136,-0.185,0.23
23:54:21.140,-0.255,0.25
23:54:21.144,-0.305,0.21
23:54:21.148,-0.37,0.195
23:54:21.152,-0.425,0.135
23:54:21.156,-0.44,0.11
23:54:21.160,-0.465,0.075
23:54:21.164,-0.49,0.045
23:54:21.168,-0.515,-0.01
23:54:21.172,-0.53,-0.03
23:54:21.176,-0.56,-0.01
23:54:21.180,-0.545,-0.035
23:54:21.184,-0.565,-0.05
23:54:21.188,-0.57,-0.06
23:54:21.192,-0.565,-0.05
23:54:21.196,-0.565,-0.03
23:54:21.200,-0.565,-0.035
23:54:21.204,-0.56,-0.03
23:54:21.208,-0.55,-0.04
23:54:21.212,-0.565,-0.025
23:54:21.216,-0.54,-0.045
23:54:21.220,-0.555,-0.04
23:54:21.224,-0.545,-0.025
23:54:21.228,-0.57,-0.04
23:54:21.232,-0.585,-0.04
23:54:21.236,-0.58,-0.045
23:54:21.240,-0.6,-0.07
23:54:21.244,-0.62,-0.06
23:54:21.248,-0.61,-0.07
23:54:21.252,-0.64,-0.07
23:54:21.256,-0.645,-0.065
23:54:21.260,-0.63,-0.065
23:54:21.264,-0.66,-0.04
23:54:21.268,-0.65,-0.05
23:54:21.272,-0.655,-0.07
23:54:21.276,-0.645,-0.06
23:54:21.280,-0.65,-0.075
23:54:21.284,-0.635,-0.08
23:54:21.288,-0.64,-0.06
23:54:21.292,-0.625,-0.08
23:54:21.296,-0.625,-0.105
23:54:21.300,-0.6,-0.095
23:54:21.304,-0.58,-0.08
23:54:21.308,-0.545,-0.09
23:54:21.312,-0.56,-0.08
23:54:21.316,-0.5,-0.075
23:54:21.320,-0.475,-0.075
23:54:21.324,-0.45,-0.08
23:54:21.328,-0.43,-0.085
23:54:21.332,-0.395,-0.065
23:54:21.336,-0.38,-0.06
23:54:21.340,-0.34,-0.03
23:54:21.344,-0.3,-0.01
23:54:21.348,-0.29,-0.025
23:54:21.352,-0.27,-0.01
23:54:21.356,-0.28,-0.01
23:54:21.360,-0.26,0.02
23:54:21.364,-0.24,0.045
23:54:21.368,-0.24,0.06
23:54:21.372,-0.245,0.065
23:54:21.376,-0.245,0.08
23:54:21.380,-0.26,0.045
23:54:21.384,-0.25,0.06
23:54:21.388,-0.26,0.045
23:54:21.392,-0.29,0.05
23:54:21.396,-0.295,0.03
23:54:21.400,-0.33,0.02
23:54:21.404,-0.32,0.01
23:54:21.408,-0.325,0.0
23:54:21.412,-0.305,-0.005
23:54:21.416,-0.33,-0.01
23:54:21.420,-0.295,0.0
23:54:21.424,-0.3,-0.03
23:54:21.428,-0.32,-0.02
23:54:21.432,-0.34,-0.01
23:54:21.436,-0.335,-0.005
23:54:21.440,-0.34,-0.035
23:54:21.444,-0.355,-0.025
23:54:21.448,-0.37,-0.025
23:54:21.452,-0.37,-0.015
23:54:21.456,-0.395,-0.045
23:54:21.460,-0.405,-0.03
23:54:21.464,-0.425,-0.04
23:54:21.468,-0.425,-0.05
23:54:21.472,-0.45,-0.05
23:54:21.476,-0.455,-0.065
23:54:21.480,-0.465,-0.065
23:54:21.484,-0.47,-0.04
23:54:21.488,-0.465,-0.035
23:54:21.492,-0.455,-0.07
23:54:21.496,-0.455,-0.075
23:54:21.500,-0.445,-0.1
23:54:21.504,-0.445,-0.06
23:54:21.508,-0.425,-0.085
23:54:21.512,-0.42,-0.075
23:54:21.516,-0.42,-0.09
23:54:21.520,-0.405,-0.085
23:54:21.524,-0.425,-0.08
23:54:21.528,-0.415,-0.065
23:54:21.532,-0.375,-0.06
23:54:21.536,-0.39,-0.07
23:54:21.540,-0.385,-0.075
23:54:21.544,-0.375,-0.07
23:54:21.548,-0.37,-0.065
23:54:21.552,-0.365,-0.03
23:54:21.556,-0.35,-0.04
23:54:21.560,-0.32,-0.03
23:54:21.564,-0.305,-0.025
23:54:21.568,-0.295,-0.03
23:54:21.572,-0.325,-0.005
23:54:21.576,-0.305,0.0
23:54:21.580,-0.29,0.01
23:54:21.584,-0.3,0.0
23:54:21.588,-0.29,0.03
23:54:21.592,-0.295,0.03
23:54:21.596,-0.3,0.035
23:54:21.600,-0.305,0.04
23:54:21.604,-0.29,0.025
23:54:21.608,-0.31,0.02
23:54:21.612,-0.295,0.045
23:54:21.616,-0.31,0.065
23:54:21.620,-0.32,0.075
23:54:21.624,-0.295,0.08
23:54:21.628,-0.26,0.085
23:54:21.632,-0.19,0.08
23:54:21.636,-0.075,0.06
23:54:21.640,0.03,0.08
23:54:21.644,0.1,0.05
23:54:21.648,0.135,0.005
23:54:21.652,0.16,0.015
23:54:21.656,0.15,0.05
23:54:21.660,0.1,0.02
23:54:21.664,0.07,-0.015
23:54:21.668,0.085,-0.08
23:54:21.672,0.315,-0.25
23:54:21.676,0.665,-0.525
23:54:21.680,0.955,-0.845
23:54:21.684,1.12,-1.05
23:54:21.688,1.06,-1.02
23:54:21.692,0.725,-0.78
23:54:21.696,0.28,-0.4
23:54:21.700,-0.055,-0.115
23:54:21.704,-0.25,0.05
23:54:21.708,-0.355,0.14
23:54:21.712,-0.4,0.155
23:54:21.716,-0.415,0.13
23:54:21.720,-0.445,0.125
23:54:21.724,-0.465,0.12
23:54:21.728,-0.485,0.075
23:54:21.732,-0.5,0.065
23:54:21.736,-0.5,0.05
23:54:21.740,-0.495,0.03
23:54:21.744,-0.5,0.0
23:54:21.748,-0.51,0.005
23:54:21.752,-0.51,0.02
23:54:21.756,-0.505,0.015
23:54:21.760,-0.515,0.02
23:54:21.764,-0.525,0.035
23:54:21.768,-0.52,0.035
23:54:21.772,-0.52,0.025
23:54:21.776,-0.5,0.04
23:54:21.780,-0.51,0.05
23:54:21.784,-0.495,0.045
23:54:21.788,-0.495,0.05
23:54:21.792,-0.505,0.05
23:54:21.796,-0.525,0.055
23:54:21.800,-0.53,0.075
23:54:21.804,-0.535,0.085
23:54:21.808,-0.56,0.07
23:54:21.812,-0.55,0.065
23:54:21.816,-0.56,0.08
23:54:21.820,-0.57,0.065
23:54:21.824,-0.58,0.055
23:54:21.828,-0.595,0.055
23:54:21.832,-0.585,0.075
23:54:21.836,-0.585,0.06
23:54:21.840,-0.59,0.08
23:54:21.844,-0.6,0.085
23:54:21.848,-0.59,0.095
23:54:21.852,-0.59,0.105
23:54:21.856,-0.575,0.125
23:54:21.860,-0.555,0.11
23:54:21.864,-0.53,0.115
23:54:21.868,-0.53,0.14
23:54:21.872,-0.515,0.12
23:54:21.876,-0.49,0.11
23:54:21.880,-0.465,0.095
23:54:21.884,-0.47,0.1
23:54:21.888,-0.445,0.07
23:54:21.892,-0.44,0.07
23:54:21.896,-0.42,0.055
23:54:21.900,-0.395,0.02
23:54:21.904,-0.4,0.01
23:54:21.908,-0.41,-0.01
23:54:21.912,-0.435,-0.01
23:54:21.916,-0.44,-0.035
23:54:21.920,-0.435,-0.05
23:54:21.924,-0.415,-0.045
23:54:21.928,-0.42,-0.07
23:54:21.932,-0.4,-0.085
23:54:21.936,-0.38,-0.07
23:54:21.940,-0.36,-0.08
23:54:21.944,-0.36,-0.085
23:54:21.948,-0.35,-0.07
23:54:21.952,-0.34,-0.07
23:54:21.956,-0.32,-0.07
23:54:21.960,-0.33,-0.055
23:54:21.964,-0.31,-0.05
23:54:21.968,-0.305,-0.05
23:54:21.972,-0.275,-0.05
23:54:21.976,-0.29,-0.04
23:54:21.980,-0.285,-0.03
23:54:21.984,-0.275,0.0
23:54:21.988,-0.28,0.005
23:54:21.992,-0.285,0.005
23:54:21.996,-0.285,0.025
23:54:22.000,-0.295,0.025
23:54:22.004,-0.27,0.02
23:54:22.008,-0.29,0.045
23:54:22.012,-0.315,0.045
23:54:22.016,-0.325,0.035
23:54:22.020,-0.34,0.035
23:54:22.024,-0.345,0.045
23:54:22.028,-0.345,0.035
23:54:22.032,-0.375,0.035
23:54:22.036,-0.355,0.065
23:54:22.040,-0.37,0.04
23:54:22.044,-0.385,0.02
23:54:22.048,-0.385,0.035
23:54:22.052,-0.39,0.045
23:54:22.056,-0.39,0.04
23:54:22.060,-0.4,0.04
23:54:22.064,-0.4,0.05
23:54:22.068,-0.395,0.055
23:54:22.072,-0.395,0.09
23:54:22.076,-0.395,0.08
23:54:22.080,-0.37,0.11
23:54:22.084,-0.365,0.095
23:54:22.088,-0.365,0.115
23:54:22.092,-0.355,0.11
23:54:22.096,-0.355,0.08
23:54:22.100,-0.375,0.1
23:54:22.104,-0.365,0.065
23:54:22.108,-0.375,0.065
23:54:22.112,-0.36,0.05
23:54:22.116,-0.345,0.05
23:54:22.120,-0.345,0.045
23:54:22.124,-0.34,0.04
23:54:22.128,-0.31,0.01
23:54:22.132,-0.31,0.025
23:54:22.136,-0.325,0.0
23:54:22.140,-0.32,0.005
23:54:22.144,-0.33,-0.01
23:54:22.148,-0.355,-0.025
23:54:22.152,-0.35,-0.04
23:54:22.156,-0.345,-0.055
23:54:22.160,-0.35,-0.045
23:54:22.164,-0.36,-0.055
23:54:22.168,-0.35,-0.06
23:54:22.172,-0.375,-0.08
23:54:22.176,-0.37,-0.065
23:54:22.180,-0.355,-0.06
23:54:22.184,-0.34,-0.06
23:54:22.188,-0.34,-0.065
23:54:22.192,-0.34,-0.06
23:54:22.196,-0.33,-0.075
23:54:22.200,-0.33,-0.06
23:54:22.204,-0.34,-0.06
23:54:22.208,-0.325,-0.075
23:54:22.212,-0.33,-0.05
23:54:22.216,-0.32,-0.05
23:54:22.220,-0.305,-0.05
23:54:22.224,-0.305,-0.045
23:54:22.228,-0.3,-0.035
23:54:22.232,-0.285,-0.045
23:54:22.236,-0.3,-0.035
23:54:22.240,-0.305,-0.02
23:54:22.244,-0.305,-0.035
23:54:22.248,-0.325,-0.015
23:54:22.252,-0.33,-0.025
23:54:22.256,-0.32,-0.035
23:54:22.260,-0.345,-0.01
23:54:22.264,-0.35,-0.035
23:54:22.268,-0.345,-0.035
23:54:22.272,-0.38,-0.035
23:54:22.276,-0.375,-0.03
23:54:22.280,-0.395,-0.055
23:54:22.284,-0.41,-0.04
23:54:22.288,-0.41,-0.03
23:54:22.292,-0.405,0.0
23:54:22.296,-0.395,-0.02
23:54:22.300,-0.395,-0.03
23:54:22.304,-0.385,-0.025
23:54:22.308,-0.39,-0.02
23:54:22.312,-0.375,-0.01
23:54:22.316,-0.37,-0.005
23:54:22.320,-0.36,-0.025
23:54:22.324,-0.37,-0.03
23:54:22.328,-0.37,0.0
23:54:22.332,-0.355,-0.01
23:54:22.336,-0.34,0.0
23:54:22.340,-0.355,-0.02
23:54:22.344,-0.36,-0.04
23:54:22.348,-0.375,-0.015
23:54:22.352,-0.35,-0.02
23:54:22.356,-0.36,-0.04
23:54:22.360,-0.33,-0.04
23:54:22.364,-0.335,-0.06
23:54:22.368,-0.325,-0.08
23:54:22.372,-0.33,-0.095
23:54:22.376,-0.335,-0.105
23:54:22.380,-0.335,-0.115
23:54:22.384,-0.335,-0.135
23:54:22.388,-0.305,-0.105
23:54:22.392,-0.315,-0.125
23:54:22.396,-0.315,-0.125
23:54:22.400,-0.315,-0.145
23:54:22.404,-0.305,-0.14
23:54:22.408,-0.265,-0.135
23:54:22.412,-0.275,-0.115
23:54:22.416,-0.26,-0.13
23:54:22.420,-0.235,-0.12
23:54:22.424,-0.16,-0.12
23:54:22.428,-0.085,-0.12
23:54:22.432,0.005,-0.115
23:54:22.436,0.11,-0.12
23:54:22.440,0.18,-0.125
23:54:22.444,0.24,-0.15
23:54:22.448,0.255,-0.125
23:54:22.452,0.26,-0.065
23:54:22.456,0.2,-0.045
23:54:22.460,0.14,-0.05
23:54:22.464,0.17,-0.11
23:54:22.468,0.385,-0.275
23:54:22.472,0.68,-0.525
23:54:22.476,0.975,-0.815
23:54:22.480,1.15,-0.99
23:54:22.484,1.04,-0.945
23:54:22.488,0.675,-0.685
23:54:22.492,0.235,-0.33
23:54:22.496,-0.07,-0.075
23:54:22.500,-0.24,0.015
23:54:22.504,-0.345,0.095
23:54:22.508,-0.39,0.11
23:54:22.512,-0.435,0.115
23:54:22.516,-0.43,0.1
23:54:22.520,-0.475,0.085
23:54:22.524,-0.5,0.07
23:54:22.528,-0.52,0.03
23:54:22.532,-0.54,-0.02
23:54:22.536,-0.525,-0.025
23:54:22.540,-0.54,-0.025
23:54:22.544,-0.53,-0.045
23:54:22.548,-0.495,-0.035
23:54:22.552,-0.505,-0.07
23:54:22.556,-0.49,-0.04
23:54:22.560,-0.485,-0.045
23:54:22.564,-0.475,-0.035
23:54:22.568,-0.505,-0.05
23:54:22.572,-0.515,-0.055
23:54:22.576,-0.52,-0.06
23:54:22.580,-0.52,-0.085
23:54:22.584,-0.535,-0.065
23:54:22.588,-0.535,-0.05
23:54:22.592,-0.535,-0.065
23:54:22.596,-0.515,-0.095
23:54:22.600,-0.52,-0.095
23:54:22.604,-0.515,-0.12
23:54:22.608,-0.495,-0.14
23:54:22.612,-0.515,-0.12
23:54:22.616,-0.52,-0.155
23:54:22.620,-0.49,-0.17
23:54:22.624,-0.495,-0.155
23:54:22.628,-0.485,-0.185
23:54:22.632,-0.48,-0.18
23:54:22.636,-0.47,-0.185
23:54:22.640,-0.48,-0.185
23:54:22.644,-0.475,-0.175
23:54:22.648,-0.45,-0.16
23:54:22.652,-0.44,-0.155
23:54:22.656,-0.435,-0.15
23:54:22.660,-0.43,-0.16
23:54:22.664,-0.435,-0.135
23:54:22.668,-0.435,-0.155
23:54:22.672,-0.465,-0.155
23:54:22.676,-0.445,-0.125
23:54:22.680,-0.44,-0.125
23:54:22.684,-0.435,-0.125
23:54:22.688,-0.43,-0.15
23:54:22.692,-0.445,-0.145
23:54:22.696,-0.45,-0.155
23:54:22.700,-0.455,-0.16
23:54:22.704,-0.47,-0.145
23:54:22.708,-0.465,-0.16
23:54:22.712,-0.48,-0.18
23:54:22.716,-0.48,-0.16
23:54:22.720,-0.48,-0.185
23:54:22.724,-0.48,-0.18
23:54:22.728,-0.43,-0.165
23:54:22.732,-0.44,-0.18
23:54:22.736,-0.445,-0.195
23:54:22.740,-0.435,-0.185
23:54:22.744,-0.435,-0.165
23:54:22.748,-0.435,-0.15
23:54:22.752,-0.41,-0.15
23:54:22.756,-0.375,-0.155
23:54:22.760,-0.38,-0.14
23:54:22.764,-0.385,-0.19
23:54:22.768,-0.355,-0.16
23:54:22.772,-0.34,-0.17
23:54:22.776,-0.33,-0.175
23:54:22.780,-0.325,-0.16
23:54:22.784,-0.335,-0.17
23:54:22.788,-0.335,-0.15
23:54:22.792,-0.32,-0.165
23:54:22.796,-0.31,-0.15
23:54:22.800,-0.3,-0.135
23:54:22.804,-0.335,-0.145
23:54:22.808,-0.33,-0.16
23:54:22.812,-0.33,-0.135
23:54:22.816,-0.32,-0.155
23:54:22.820,-0.33,-0.12
23:54:22.824,-0.325,-0.15
23:54:22.828,-0.315,-0.16
23:54:22.832,-0.28,-0.12
23:54:22.836,-0.255,-0.16
23:54:22.840,-0.24,-0.185
23:54:22.844,-0.23,-0.185
23:54:22.848,-0.245,-0.185
23:54:22.852,-0.24,-0.17
23:54:22.856,-0.245,-0.17
23:54:22.860,-0.23,-0.19
23:54:22.864,-0.24,-0.185
23:54:22.868,-0.245,-0.21
23:54:22.872,-0.25,-0.175
23:54:22.876,-0.25,-0.19
23:54:22.880,-0.24,-0.205
23:54:22.884,-0.24,-0.17
23:54:22.888,-0.245,-0.2
23:54:22.892,-0.245,-0.22
23:54:22.896,-0.255,-0.195
23:54:22.900,-0.245,-0.21
23:54:22.904,-0.235,-0.205
23:54:22.908,-0.23,-0.19
23:54:22.912,-0.21,-0.225
23:54:22.916,-0.23,-0.23
23:54:22.920,-0.24,-0.225
23:54:22.924,-0.23,-0.215
23:54:22.928,-0.205,-0.2
23:54:22.932,-0.13,-0.2
23:54:22.936,-0.055,-0.205
23:54:22.940,0.03,-0.22
23:54:22.944,0.12,-0.27
23:54:22.948,0.19,-0.285
23:54:22.952,0.265,-0.28
23:54:22.956,0.3,-0.25
23:54:22.960,0.305,-0.195
23:54:22.964,0.245,-0.205
23:54:22.968,0.23,-0.195
23:54:22.972,0.41,-0.335
23:54:22.976,0.7,-0.585
23:54:22.980,0.995,-0.84
23:54:22.984,1.13,-1.02
23:54:22.988,0.945,-1.025
23:54:22.992,0.53,-0.8
23:54:22.996,0.095,-0.485
23:54:23.000,-0.145,-0.29
23:54:23.004,-0.255,-0.16
23:54:23.008,-0.32,-0.125
23:54:23.012,-0.315,-0.07
23:54:23.016,-0.39,-0.06
23:54:23.020,-0.43,-0.08
23:54:23.024,-0.445,-0.115
23:54:23.028,-0.485,-0.09
23:54:23.032,-0.505,-0.145
23:54:23.036,-0.505,-0.185
23:54:23.040,-0.51,-0.2
23:54:23.044,-0.51,-0.19
23:54:23.048,-0.5,-0.19
23:54:23.052,-0.48,-0.2
23:54:23.056,-0.475,-0.21
23:54:23.060,-0.455,-0.225
23:54:23.064,-0.455,-0.2
23:54:23.068,-0.47,-0.21
23:54:23.072,-0.465,-0.21
23:54:23.076,-0.45,-0.205
23:54:23.080,-0.445,-0.22
23:54:23.084,-0.455,-0.235
23:54:23.088,-0.455,-0.22
23:54:23.092,-0.45,-0.23
23:54:23.096,-0.445,-0.235
23:54:23.100,-0.42,-0.24
23:54:23.104,-0.45,-0.22
23:54:23.108,-0.465,-0.225
23:54:23.112,-0.465,-0.22
23:54:23.116,-0.495,-0.22
23:54:23.120,-0.47,-0.24
23:54:23.124,-0.48,-0.23
23:54:23.128,-0.49,-0.25
23:54:23.132,-0.495,-0.24
23:54:23.136,-0.51,-0.23
23:54:23.140,-0.49,-0.23
23:54:23.144,-0.5,-0.22
23:54:23.148,-0.51,-0.215
23:54:23.152,-0.535,-0.235
23:54:23.156,-0.535,-0.24
23:54:23.160,-0.52,-0.21
23:54:23.164,-0.525,-0.245
23:54:23.168,-0.515,-0.245
23:54:23.172,-0.5,-0.22
23:54:23.176,-0.5,-0.245
23:54:23.180,-0.495,-0.235
23:54:23.184,-0.49,-0.22
23:54:23.188,-0.485,-0.195
23:54:23.192,-0.51,-0.22
23:54:23.196,-0.515,-0.2
23:54:23.200,-0.5,-0.205
23:54:23.204,-0.485,-0.21
23:54:23.208,-0.485,-0.22
23:54:23.212,-0.47,-0.235
23:54:23.216,-0.47,-0.24
23:54:23.220,-0.46,-0.25
23:54:23.224,-0.475,-0.255
23:54:23.228,-0.45,-0.255
23:54:23.232,-0.455,-0.25
23:54:23.236,-0.44,-0.26
23:54:23.240,-0.425,-0.245
23:54:23.244,-0.41,-0.24
23:54:23.248,-0.42,-0.25
23:54:23.252,-0.41,-0.24
23:54:23.256,-0.4,-0.235
23:54:23.260,-0.415,-0.22
23:54:23.264,-0.385,-0.195
23:54:23.268,-0.365,-0.175
23:54:23.272,-0.365,-0.17
23:54:23.276,-0.32,-0.19
23:54:23.280,-0.335,-0.18
23:54:23.284,-0.335,-0.175
23:54:23.288,-0.32,-0.17
23:54:23.292,-0.32,-0.135
23:54:23.296,-0.32,-0.135
23:54:23.300,-0.3,-0.125
23:54:23.304,-0.285,-0.12
23:54:23.308,-0.285,-0.115
23:54:23.312,-0.275,-0.12
23:54:23.316,-0.25,-0.11
23:54:23.320,-0.235,-0.13
23:54:23.324,-0.23,-0.14
23:54:23.328,-0.26,-0.15
23:54:23.332,-0.25,-0.15
23:54:23.336,-0.25,-0.145
23:54:23.340,-0.24,-0.14
23:54:23.344,-0.225,-0.165
23:54:23.348,-0.24,-0.15
23:54:23.352,-0.245,-0.17
23:54:23.356,-0.25,-0.145
23:54:23.360,-0.23,-0.145
23:54:23.364,-0.255,-0.17
23:54:23.368,-0.245,-0.16
23:54:23.372,-0.245,-0.14
23:54:23.376,-0.27,-0.145
23:54:23.380,-0.26,-0.135
23:54:23.384,-0.26,-0.14
23:54:23.388,-0.26,-0.14
23:54:23.392,-0.265,-0.14
23:54:23.396,-0.285,-0.13
23:54:23.400,-0.27,-0.14
23:54:23.404,-0.29,-0.125
23:54:23.408,-0.27,-0.13
23:54:23.412,-0.295,-0.105
23:54:23.416,-0.305,-0.105
23:54:23.420,-0.29,-0.095
23:54:23.424,-0.285,-0.105
23:54:23.428,-0.265,-0.115
23:54:23.432,-0.195,-0.105
23:54:23.436,-0.15,-0.12
23:54:23.440,-0.06,-0.13
23:54:23.444,0.0,-0.165
23:54:23.448,0.035,-0.19
23:54:23.452,0.065,-0.225
23:54:23.456,0.065,-0.18
23:54:23.460,0.04,-0.16
23:54:23.464,0.0,-0.165
23:54:23.468,-0.005,-0.24
23:54:23.472,0.145,-0.375
23:54:23.476,0.42,-0.6
23:54:23.480,0.765,-0.9
23:54:23.484,1.04,-1.125
23:54:23.488,1.025,-1.14
23:54:23.492,0.745,-0.935
23:54:23.496,0.305,-0.57
23:54:23.500,-0.06,-0.225
23:54:23.504,-0.24,-0.09
23:54:23.508,-0.34,0.01
23:54:23.512,-0.385,0.07
23:54:23.516,-0.405,0.085
23:54:23.520,-0.435,0.1
23:54:23.524,-0.45,0.085
23:54:23.528,-0.46,0.07
23:54:23.532,-0.45,0.065
23:54:23.536,-0.47,0.05
23:54:23.540,-0.445,0.035
23:54:23.544,-0.425,0.035
23:54:23.548,-0.41,0.025
23:54:23.552,-0.405,0.055
23:54:23.556,-0.41,0.02
23:54:23.560,-0.445,0.015
23:54:23.564,-0.455,0.015
23:54:23.568,-0.45,0.0
23:54:23.572,-0.455,0.025
23:54:23.576,-0.475,0.0
23:54:23.580,-0.465,-0.015
23:54:23.584,-0.485,-0.015
23:54:23.588,-0.475,-0.035
23:54:23.592,-0.495,-0.03
23:54:23.596,-0.52,-0.025
23:54:23.600,-0.49,-0.025
23:54:23.604,-0.51,-0.035
23:54:23.608,-0.51,-0.015
23:54:23.612,-0.525,-0.04
23:54:23.616,-0.54,-0.02
23:54:23.620,-0.54,-0.035
23:54:23.624,-0.565,-0.025
23:54:23.628,-0.56,-0.03
23:54:23.632,-0.575,-0.02
23:54:23.636,-0.58,-0.015
23:54:23.640,-0.565,-0.02
23:54:23.644,-0.57,0.0
23:54:23.648,-0.56,0.0
23:54:23.652,-0.555,-0.015
23:54:23.656,-0.57,-0.02
23:54:23.660,-0.555,-0.02
23:54:23.664,-0.57,-0.025
23:54:23.668,-0.565,-0.025
23:54:23.672,-0.55,-0.055
23:54:23.676,-0.55,-0.055
23:54:23.680,-0.565,-0.03
23:54:23.684,-0.58,-0.035
23:54:23.688,-0.565,-0.06
23:54:23.692,-0.575,-0.045
23:54:23.696,-0.575,-0.045
23:54:23.700,-0.565,-0.06
23:54:23.704,-0.555,-0.055
23:54:23.708,-0.54,-0.065
23:54:23.712,-0.51,-0.05
23:54:23.716,-0.515,-0.065
23:54:23.720,-0.47,-0.05
23:54:23.724,-0.445,-0.055
23:54:23.728,-0.42,-0.04
23:54:23.732,-0.4,-0.04
23:54:23.736,-0.385,-0.06
23:54:23.740,-0.36,-0.055
23:54:23.744,-0.32,-0.045
23:54:23.748,-0.3,-0.005
23:54:23.752,-0.29,-0.025
23:54:23.756,-0.285,-0.005
23:54:23.760,-0.275,0.005
23:54:23.764,-0.275,0.03
23:54:23.768,-0.285,0.015
23:54:23.772,-0.26,0.04
23:54:23.776,-0.23,0.03
23:54:23.780,-0.225,0.045
23:54:23.784,-0.215,0.03
23:54:23.788,-0.23,0.04
23:54:23.792,-0.22,0.06
23:54:23.796,-0.215,0.03
23:54:23.800,-0.23,0.05
23:54:23.804,-0.235,0.02
23:54:23.808,-0.24,0.02
23:54:23.812,-0.245,0.005
23:54:23.816,-0.25,0.005
23:54:23.820,-0.25,0.005
23:54:23.824,-0.26,0.015
23:54:23.828,-0.24,0.0
23:54:23.832,-0.26,-0.01
23:54:23.836,-0.255,0.005
23:54:23.840,-0.26,-0.015
23:54:23.844,-0.26,-0.005
23:54:23.848,-0.275,-0.015
23:54:23.852,-0.27,0.0
23:54:23.856,-0.28,-0.015
23:54:23.860,-0.28,-0.02
23:54:23.864,-0.28,0.0
23:54:23.868,-0.29,0.0
23:54:23.872,-0.275,0.0
23:54:23.876,-0.285,-0.005
23:54:23.880,-0.27,0.0
23:54:23.884,-0.275,-0.02
23:54:23.888,-0.26,-0.035
23:54:23.892,-0.235,-0.01
23:54:23.896,-0.205,-0.02
23:54:23.900,-0.145,-0.02
23:54:23.904,-0.085,-0.035
23:54:23.908,-0.035,-0.055
23:54:23.912,-0.02,-0.1
23:54:23.916,-0.04,-0.11
23:54:23.920,-0.04,-0.1
23:54:23.924,-0.08,-0.075
23:54:23.928,-0.115,-0.075
23:54:23.932,-0.08,-0.12
23:54:23.936,0.125,-0.205
23:54:23.940,0.425,-0.455
23:54:23.944,0.75,-0.765
23:54:23.948,0.99,-0.985
23:54:23.952,1.025,-1.02
23:54:23.956,0.805,-0.805
23:54:23.960,0.39,-0.445
23:54:23.964,0.015,-0.125
23:54:23.968,-0.15,0.065
23:54:23.972,-0.27,0.15
23:54:23.976,-0.32,0.165
23:54:23.980,-0.365,0.155
23:54:23.984,-0.405,0.15
23:54:23.988,-0.395,0.15
23:54:23.992,-0.4,0.135
23:54:23.996,-0.415,0.115
23:54:24.000,-0.45,0.08
23:54:24.004,-0.445,0.065
23:54:24.008,-0.455,0.055
23:54:24.012,-0.47,0.06
23:54:24.016,-0.465,0.065
23:54:24.020,-0.47,0.065
23:54:24.024,-0.47,0.05
23:54:24.028,-0.48,0.055
23:54:24.032,-0.485,0.065
23:54:24.036,-0.48,0.05
23:54:24.040,-0.465,0.05
23:54:24.044,-0.455,0.04
23:54:24.048,-0.47,0.015
23:54:24.052,-0.485,0.025
23:54:24.056,-0.48,0.01
23:54:24.060,-0.475,-0.01
23:54:24.064,-0.495,0.0
23:54:24.068,-0.52,-0.01
23:54:24.072,-0.53,0.02
23:54:24.076,-0.53,0.0
23:54:24.080,-0.51,0.005
23:54:24.084,-0.535,0.02
23:54:24.088,-0.53,0.01
23:54:24.092,-0.56,0.0
23:54:24.096,-0.55,0.005
23:54:24.100,-0.535,0.005
23:54:24.104,-0.55,0.0
23:54:24.108,-0.505,-0.01
23:54:24.112,-0.515,-0.02
23:54:24.116,-0.52,-0.03
23:54:24.120,-0.54,-0.025
23:54:24.124,-0.54,-0.03
23:54:24.128,-0.55,-0.04
23:54:24.132,-0.545,-0.025
23:54:24.136,-0.535,-0.06
23:54:24.140,-0.525,-0.05
23:54:24.144,-0.49,-0.035
23:54:24.148,-0.505,-0.035
23:54:24.152,-0.47,-0.065
23:54:24.156,-0.485,-0.08
23:54:24.160,-0.465,-0.065
23:54:24.164,-0.45,-0.04
23:54:24.168,-0.455,-0.05
23:54:24.172,-0.435,-0.065
23:54:24.176,-0.41,-0.065
23:54:24.180,-0.375,-0.065
23:54:24.184,-0.38,-0.07
23:54:24.188,-0.365,-0.08
23:54:24.192,-0.34,-0.05
23:54:24.196,-0.315,-0.065
23:54:24.200,-0.295,-0.04
23:54:24.204,-0.26,-0.04
23:54:24.208,-0.24,-0.04
23:54:24.212,-0.255,-0.005
23:54:24.216,-0.235,0.0
23:54:24.220,-0.23,-0.01
23:54:24.224,-0.22,-0.01
23:54:24.228,-0.21,0.015
23:54:24.232,-0.235,0.005
23:54:24.236,-0.245,0.03
23:54:24.240,-0.26,0.035
23:54:24.244,-0.26,0.04
23:54:24.248,-0.25,0.035
23:54:24.252,-0.24,0.055
23:54:24.256,-0.245,0.05
23:54:24.260,-0.23,0.06
23:54:24.264,-0.23,0.075
23:54:24.268,-0.25,0.06
23:54:24.272,-0.245,0.05
23:54:24.276,-0.245,0.075
23:54:24.280,-0.255,0.055
23:54:24.284,-0.26,0.065
23:54:24.288,-0.285,0.03
23:54:24.292,-0.285,0.02
23:54:24.296,-0.295,0.02
23:54:24.300,-0.31,0.015
23:54:24.304,-0.33,0.015
23:54:24.308,-0.32,0.005
23:54:24.312,-0.305,0.0
23:54:24.316,-0.3,0.0
23:54:24.320,-0.29,-0.02
23:54:24.324,-0.305,-0.02
23:54:24.328,-0.305,-0.025
23:54:24.332,-0.305,-0.04
23:54:24.336,-0.305,-0.045
23:54:24.340,-0.32,-0.045
23:54:24.344,-0.325,-0.06
23:54:24.348,-0.32,-0.06
23:54:24.352,-0.345,-0.04
23:54:24.356,-0.34,-0.045
23:54:24.360,-0.35,-0.055
23:54:24.364,-0.355,-0.045
23:54:24.368,-0.35,-0.05
23:54:24.372,-0.37,-0.065
23:54:24.376,-0.375,-0.055
23:54:24.380,-0.375,-0.055
23:54:24.384,-0.365,-0.07
23:54:24.388,-0.365,-0.07
23:54:24.392,-0.38,-0.095
23:54:24.396,-0.37,-0.085
23:54:24.400,-0.39,-0.075
23:54:24.404,-0.375,-0.075
23:54:24.408,-0.35,-0.09
23:54:24.412,-0.335,-0.1
23:54:24.416,-0.35,-0.08
23:54:24.420,-0.35,-0.08
23:54:24.424,-0.32,-0.08
23:54:24.428,-0.3,-0.065
23:54:24.432,-0.31,-0.06
23:54:24.436,-0.3,-0.055
23:54:24.440,-0.305,-0.055
23:54:24.444,-0.28,-0.04
23:54:24.448,-0.295,-0.035
23:54:24.452,-0.275,-0.025
23:54:24.456,-0.295,-0.03
23:54:24.460,-0.245,-0.01
23:54:24.464,-0.255,-0.015
23:54:24.468,-0.25,-0.005
23:54:24.472,-0.2,0.0
23:54:24.476,-0.15,-0.01
23:54:24.480,-0.04,-0.005
23:54:24.484,0.02,-0.045
23:54:24.488,0.085,-0.055
23:54:24.492,0.095,-0.07
23:54:24.496,0.1,-0.045
23:54:24.500,0.1,-0.005
23:54:24.504,0.06,-0.005
23:54:24.508,0.04,-0.05
23:54:24.512,0.095,-0.095
23:54:24.516,0.32,-0.265
23:54:24.520,0.625,-0.535
23:54:24.524,0.94,-0.815
23:54:24.528,1.115,-1.04
23:54:24.532,1.08,-1.03
23:54:24.536,0.73,-0.795
23:54:24.540,0.29,-0.44
23:54:24.544,-0.03,-0.15
23:54:24.548,-0.18,0.005
23:54:24.552,-0.26,0.095
23:54:24.556,-0.32,0.115
23:54:24.560,-0.35,0.085
23:54:24.564,-0.39,0.055
23:54:24.568,-0.415,0.035
23:54:24.572,-0.44,0.02
23:54:24.576,-0.44,-0.025
23:54:24.580,-0.445,-0.055
23:54:24.584,-0.465,-0.07
23:54:24.588,-0.46,-0.06
23:54:24.592,-0.46,-0.07
23:54:24.596,-0.485,-0.085
23:54:24.600,-0.51,-0.08
23:54:24.604,-0.5,-0.07
23:54:24.608,-0.5,-0.065
23:54:24.612,-0.49,-0.08
23:54:24.616,-0.53,-0.07
23:54:24.620,-0.55,-0.08
23:54:24.624,-0.54,-0.055
23:54:24.628,-0.55,-0.085
23:54:24.632,-0.54,-0.1
23:54:24.636,-0.54,-0.09
23:54:24.640,-0.53,-0.09
23:54:24.644,-0.51,-0.095
23:54:24.648,-0.52,-0.07
23:54:24.652,-0.54,-0.1
23:54:24.656,-0.525,-0.105
23:54:24.660,-0.505,-0.09
23:54:24.664,-0.485,-0.075
23:54:24.668,-0.51,-0.055
23:54:24.672,-0.52,-0.05
23:54:24.676,-0.51,-0.04
23:54:24.680,-0.485,-0.04
23:54:24.684,-0.495,-0.01
23:54:24.688,-0.49,-0.025
23:54:24.692,-0.48,0.0
23:54:24.696,-0.455,-0.025
23:54:24.700,-0.475,-0.04
23:54:24.704,-0.435,-0.03
23:54:24.708,-0.435,-0.04
23:54:24.712,-0.45,-0.015
23:54:24.716,-0.455,-0.02
23:54:24.720,-0.445,-0.03
23:54:24.724,-0.445,-0.04
23:54:24.728,-0.45,-0.05
23:54:24.732,-0.44,-0.055
23:54:24.736,-0.44,-0.07
23:54:24.740,-0.425,-0.035
23:54:24.744,-0.405,-0.05
23:54:24.748,-0.395,-0.075
23:54:24.752,-0.385,-0.09
23:54:24.756,-0.39,-0.09
23:54:24.760,-0.365,-0.105
23:54:24.764,-0.355,-0.12
23:54:24.768,-0.32,-0.13
23:54:24.772,-0.29,-0.135
23:54:24.776,-0.295,-0.145
23:54:24.780,-0.275,-0.18
23:54:24.784,-0.24,-0.18
23:54:24.788,-0.265,-0.16
23:54:24.792,-0.24,-0.17
23:54:24.796,-0.23,-0.165
23:54:24.800,-0.22,-0.15
23:54:24.804,-0.215,-0.175
23:54:24.808,-0.205,-0.17
23:54:24.812,-0.205,-0.17
23:54:24.816,-0.22,-0.17
23:54:24.820,-0.205,-0.18
23:54:24.824,-0.195,-0.175
23:54:24.828,-0.225,-0.2
23:54:24.832,-0.25,-0.18
23:54:24.836,-0.23,-0.17
23:54:24.840,-0.245,-0.16
23:54:24.844,-0.265,-0.17
23:54:24.848,-0.29,-0.19
23:54:24.852,-0.305,-0.19
23:54:24.856,-0.28,-0.16
23:54:24.860,-0.29,-0.16
23:54:24.864,-0.29,-0.19
23:54:24.868,-0.29,-0.185
23:54:24.872,-0.265,-0.185
23:54:24.876,-0.25,-0.175
23:54:24.880,-0.27,-0.145
23:54:24.884,-0.26,-0.15
23:54:24.888,-0.275,-0.16
23:54:24.892,-0.26,-0.145
23:54:24.896,-0.25,-0.115
23:54:24.900,-0.25,-0.115
23:54:24.904,-0.275,-0.135
23:54:24.908,-0.29,-0.145
23:54:24.912,-0.295,-0.12
23:54:24.916,-0.27,-0.14
23:54:24.920,-0.265,-0.12
23:54:24.924,-0.27,-0.115
23:54:24.928,-0.255,-0.14
23:54:24.932,-0.28,-0.12
23:54:24.936,-0.28,-0.13
23:54:24.940,-0.29,-0.13
23:54:24.944,-0.305,-0.13
23:54:24.948,-0.28,-0.125
23:54:24.952,-0.29,-0.125
23:54:24.956,-0.305,-0.13
23:54:24.960,-0.3,-0.14
23:54:24.964,-0.3,-0.155
23:54:24.968,-0.31,-0.14
23:54:24.972,-0.31,-0.14
23:54:24.976,-0.315,-0.16
23:54:24.980,-0.285,-0.16
23:54:24.984,-0.295,-0.16
23:54:24.988,-0.27,-0.155
23:54:24.992,-0.255,-0.18
23:54:24.996,-0.25,-0.16
23:54:25.000,-0.215,-0.16
23:54:25.004,-0.18,-0.16
23:54:25.008,-0.18,-0.15
23:54:25.012,-0.17,-0.135
23:54:25.016,-0.15,-0.145
23:54:25.020,-0.1,-0.155
23:54:25.024,-0.105,-0.18
23:54:25.028,-0.08,-0.195
23:54:25.032,-0.045,-0.22
23:54:25.036,0.005,-0.21
23:54:25.040,0.1,-0.215
23:54:25.044,0.185,-0.24
23:54:25.048,0.275,-0.29
23:54:25.052,0.345,-0.305
23:54:25.056,0.365,-0.29
23:54:25.060,0.385,-0.255
23:54:25.064,0.35,-0.22
23:54:25.068,0.285,-0.22
23:54:25.072,0.355,-0.265
23:54:25.076,0.565,-0.475
23:54:25.080,0.85,-0.725
23:54:25.084,1.09,-0.985
23:54:25.088,1.135,-1.13
23:54:25.092,0.91,-1.04
23:54:25.096,0.465,-0.76
23:54:25.100,0.08,-0.455
23:54:25.104,-0.105,-0.285
23:54:25.108,-0.16,-0.18
23:54:25.112,-0.225,-0.105
23:54:25.116,-0.245,-0.065
23:54:25.120,-0.265,-0.075
23:54:25.124,-0.325,-0.08
23:54:25.128,-0.375,-0.075
23:54:25.132,-0.405,-0.1
23:54:25.136,-0.415,-0.14
23:54:25.140,-0.415,-0.155
23:54:25.144,-0.425,-0.17
23:54:25.148,-0.425,-0.175
23:54:25.152,-0.455,-0.16
23:54:25.156,-0.445,-0.18
23:54:25.160,-0.465,-0.16
23:54:25.164,-0.47,-0.18
23:54:25.168,-0.48,-0.165
23:54:25.172,-0.485,-0.185
23:54:25.176,-0.525,-0.195
23:54:25.180,-0.515,-0.2
23:54:25.184,-0.52,-0.21
23:54:25.188,-0.525,-0.2
23:54:25.192,-0.54,-0.19
23:54:25.196,-0.535,-0.205
23:54:25.200,-0.545,-0.2
23:54:25.204,-0.54,-0.22
23:54:25.208,-0.525,-0.215
23:54:25.212,-0.54,-0.185
23:54:25.216,-0.5,-0.2
23:54:25.220,-0.51,-0.2
23:54:25.224,-0.515,-0.215
23:54:25.228,-0.505,-0.205
23:54:25.232,-0.48,-0.205
23:54:25.236,-0.46,-0.19
23:54:25.240,-0.45,-0.19
23:54:25.244,-0.445,-0.175
23:54:25.248,-0.435,-0.175
23:54:25.252,-0.44,-0.16
23:54:25.256,-0.44,-0.16
23:54:25.260,-0.44,-0.165
23:54:25.264,-0.425,-0.2
23:54:25.268,-0.42,-0.205
23:54:25.272,-0.425,-0.225
23:54:25.276,-0.43,-0.245
23:54:25.280,-0.44,-0.22
23:54:25.284,-0.43,-0.255
23:54:25.288,-0.435,-0.24
23:54:25.292,-0.42,-0.235
23:54:25.296,-0.39,-0.235
23:54:25.300,-0.385,-0.285
23:54:25.304,-0.385,-0.265
23:54:25.308,-0.395,-0.26
23:54:25.312,-0.38,-0.28
23:54:25.316,-0.37,-0.28
23:54:25.320,-0.36,-0.245
23:54:25.324,-0.35,-0.26
23:54:25.328,-0.335,-0.255
23:54:25.332,-0.3,-0.265
23:54:25.336,-0.29,-0.25
23:54:25.340,-0.3,-0.26
23:54:25.344,-0.25,-0.235
23:54:25.348,-0.245,-0.235
23:54:25.352,-0.26,-0.235
23:54:25.356,-0.28,-0.21
23:54:25.360,-0.26,-0.23
23:54:25.364,-0.27,-0.215
23:54:25.368,-0.25,-0.225
23:54:25.372,-0.27,-0.195
23:54:25.376,-0.265,-0.205
23:54:25.380,-0.295,-0.195
23:54:25.384,-0.305,-0.19
23:54:25.388,-0.31,-0.2
23:54:25.392,-0.32,-0.185
23:54:25.396,-0.32,-0.195
23:54:25.400,-0.325,-0.18
23:54:25.404,-0.33,-0.205
23:54:25.408,-0.335,-0.185
23:54:25.412,-0.34,-0.205
23:54:25.416,-0.345,-0.195
23:54:25.420,-0.345,-0.195
23:54:25.424,-0.35,-0.19
23:54:25.428,-0.335,-0.17
23:54:25.432,-0.32,-0.19
23:54:25.436,-0.32,-0.165
23:54:25.440,-0.295,-0.175
23:54:25.444,-0.305,-0.15
23:54:25.448,-0.335,-0.16
23:54:25.452,-0.31,-0.16
23:54:25.456,-0.3,-0.115
23:54:25.460,-0.265,-0.11
23:54:25.464,-0.285,-0.13
23:54:25.468,-0.28,-0.115
23:54:25.472,-0.295,-0.095
23:54:25.476,-0.31,-0.085
23:54:25.480,-0.305,-0.095
23:54:25.484,-0.27,-0.115
23:54:25.488,-0.275,-0.105
23:54:25.492,-0.265,-0.085
23:54:25.496,-0.235,-0.065
23:54:25.500,-0.235,-0.06
23:54:25.504,-0.245,-0.065
23:54:25.508,-0.235,-0.05
23:54:25.512,-0.235,-0.045
23:54:25.516,-0.245,-0.07
23:54:25.520,-0.25,-0.07
23:54:25.524,-0.235,-0.1
23:54:25.528,-0.24,-0.12
23:54:25.532,-0.235,-0.12
23:54:25.536,-0.23,-0.14
23:54:25.540,-0.215,-0.125
23:54:25.544,-0.235,-0.095
23:54:25.548,-0.21,-0.135
23:54:25.552,-0.23,-0.1
23:54:25.556,-0.215,-0.13
23:54:25.560,-0.19,-0.13
23:54:25.564,-0.15,-0.13
23:54:25.568,-0.125,-0.12
23:54:25.572,-0.075,-0.09
23:54:25.576,-0.01,-0.115
23:54:25.580,0.1,-0.11
23:54:25.584,0.165,-0.125
23:54:25.588,0.2,-0.125
23:54:25.592,0.22,-0.135
23:54:25.596,0.235,-0.11
23:54:25.600,0.225,-0.115
23:54:25.604,0.175,-0.125
23:54:25.608,0.15,-0.185
23:54:25.612,0.26,-0.27
23:54:25.616,0.505,-0.48
23:54:25.620,0.815,-0.735
23:54:25.624,1.08,-1.005
23:54:25.628,1.125,-1.1
23:54:25.632,0.92,-0.985
23:54:25.636,0.485,-0.64
23:54:25.640,0.065,-0.33
23:54:25.644,-0.16,-0.1
23:54:25.648,-0.29,0.02
23:54:25.652,-0.345,0.06
23:54:25.656,-0.365,0.07
23:54:25.660,-0.415,0.065
23:54:25.664,-0.435,0.07
23:54:25.668,-0.465,0.09
23:54:25.672,-0.455,0.055
23:54:25.676,-0.445,0.02
23:54:25.680,-0.45,0.005
23:54:25.684,-0.44,0.01
23:54:25.688,-0.47,0.01
23:54:25.692,-0.48,0.015
23:54:25.696,-0.48,0.01
23:54:25.700,-0.48,0.03
23:54:25.704,-0.48,0.0
23:54:25.708,-0.49,0.01
23:54:25.712,-0.485,0.02
23:54:25.716,-0.485,0.025
23:54:25.720,-0.485,0.03
23:54:25.724,-0.485,0.035
23:54:25.728,-0.49,0.05
23:54:25.732,-0.465,0.055
23:54:25.736,-0.465,0.055
23:54:25.740,-0.435,0.055
23:54:25.744,-0.405,0.05
23:54:25.748,-0.41,0.07
23:54:25.752,-0.425,0.06
23:54:25.756,-0.445,0.035
23:54:25.760,-0.46,0.035
23:54:25.764,-0.46,0.03
23:54:25.768,-0.47,0.015
23:54:25.772,-0.465,0.02
23:54:25.776,-0.445,0.01
23:54:25.780,-0.45,0.015
23:54:25.784,-0.46,-0.005
23:54:25.788,-0.435,0.0
23:54:25.792,-0.455,-0.01
23:54:25.796,-0.435,-0.01
23:54:25.800,-0.43,0.015
23:54:25.804,-0.44,0.015
23:54:25.808,-0.405,0.0
23:54:25.812,-0.42,0.0
23:54:25.816,-0.435,0.02
23:54:25.820,-0.39,0.015
23:54:25.824,-0.385,0.015
23:54:25.828,-0.395,0.005
23:54:25.832,-0.405,0.0
23:54:25.836,-0.4,0.01
23:54:25.840,-0.41,-0.005
23:54:25.844,-0.4,-0.035
23:54:25.848,-0.395,-0.035
23:54:25.852,-0.38,-0.04
23:54:25.856,-0.38,-0.04
23:54:25.860,-0.385,-0.07
23:54:25.864,-0.375,-0.06
23:54:25.868,-0.365,-0.065
23:54:25.872,-0.35,-0.08
23:54:25.876,-0.355,-0.075
23:54:25.880,-0.305,-0.05
23:54:25.884,-0.31,-0.055
23:54:25.888,-0.305,-0.04
23:54:25.892,-0.29,-0.03
23:54:25.896,-0.29,-0.02
23:54:25.900,-0.265,-0.015
23:54:25.904,-0.245,-0.005
23:54:25.908,-0.26,-0.025
23:54:25.912,-0.26,0.0
23:54:25.916,-0.255,0.01
23:54:25.920,-0.27,-0.005
23:54:25.924,-0.265,0.0
23:54:25.928,-0.27,-0.01
23:54:25.932,-0.26,-0.015
23:54:25.936,-0.24,0.0
23:54:25.940,-0.25,0.015
23:54:25.944,-0.255,0.005
23:54:25.948,-0.27,0.02
23:54:25.952,-0.25,0.005
23:54:25.956,-0.245,0.0
23:54:25.960,-0.245,0.035
23:54:25.964,-0.24,0.035
23:54:25.968,-0.21,0.02
23:54:25.972,-0.205,0.02
23:54:25.976,-0.205,0.025
23:54:25.980,-0.205,0.035
23:54:25.984,-0.195,0.06
23:54:25.988,-0.185,0.06
23:54:25.992,-0.175,0.05
23:54:25.996,-0.195,0.065
23:54:26.000,-0.185,0.065
23:54:26.004,-0.18,0.055
23:54:26.008,-0.2,0.03
23:54:26.012,-0.19,0.04
23:54:26.016,-0.19,0.03
23:54:26.020,-0.2,0.03
23:54:26.024,-0.18,0.02
23:54:26.028,-0.165,0.0
23:54:26.032,-0.17,0.0
23:54:26.036,-0.185,0.005
23:54:26.040,-0.15,0.0
23:54:26.044,-0.17,-0.01
23:54:26.048,-0.175,0.01
23:54:26.052,-0.19,0.01
23:54:26.056,-0.19,0.01
23:54:26.060,-0.175,-0.015
23:54:26.064,-0.2,-0.005
23:54:26.068,-0.165,-0.01
23:54:26.072,-0.17,0.0
23:54:26.076,-0.195,0.0
23:54:26.080,-0.195,-0.005
23:54:26.084,-0.205,-0.04
23:54:26.088,-0.215,-0.015
23:54:26.092,-0.22,-0.04
23:54:26.096,-0.21,-0.03
23:54:26.100,-0.225,-0.05
23:54:26.104,-0.21,-0.045
23:54:26.108,-0.2,-0.03
23:54:26.112,-0.17,-0.035
23:54:26.116,-0.13,-0.05
23:54:26.120,-0.065,-0.045
23:54:26.124,-0.01,-0.04
23:54:26.128,0.08,-0.055
23:54:26.132,0.125,-0.09
23:54:26.136,0.14,-0.09
23:54:26.140,0.105,-0.105
23:54:26.144,0.11,-0.07
23:54:26.148,0.055,-0.08
23:54:26.152,0.0,-0.095
23:54:26.156,0.07,-0.185
23:54:26.160,0.305,-0.335
23:54:26.164,0.59,-0.605
23:54:26.168,0.9,-0.86
23:54:26.172,1.085,-1.02
23:54:26.176,1.01,-1.005
23:54:26.180,0.665,-0.745
23:54:26.184,0.24,-0.385
23:54:26.188,-0.04,-0.09
23:54:26.192,-0.215,0.065
23:54:26.196,-0.285,0.16
23:54:26.200,-0.34,0.15
23:54:26.204,-0.385,0.13
23:54:26.208,-0.405,0.11
23:54:26.212,-0.43,0.1
23:54:26.216,-0.415,0.085
23:54:26.220,-0.385,0.09
23:54:26.224,-0.4,0.05
23:54:26.228,-0.395,0.05
23:54:26.232,-0.385,0.06
23:54:26.236,-0.375,0.085
23:54:26.240,-0.385,0.055
23:54:26.244,-0.405,0.055
23:54:26.248,-0.415,0.04
23:54:26.252,-0.425,0.035
23:54:26.256,-0.415,0.01
23:54:26.260,-0.42,0.03
23:54:26.264,-0.42,0.015
23:54:26.268,-0.43,0.015
23:54:26.272,-0.44,0.035
23:54:26.276,-0.435,0.03
23:54:26.280,-0.42,0.04
23:54:26.284,-0.42,0.03
23:54:26.288,-0.435,0.02
23:54:26.292,-0.425,0.01
23:54:26.296,-0.44,0.025
23:54:26.300,-0.44,0.005
23:54:26.304,-0.455,0.0
23:54:26.308,-0.465,0.03
23:54:26.312,-0.45,0.015
23:54:26.316,-0.455,-0.01
23:54:26.320,-0.455,-0.005
23:54:26.324,-0.46,-0.015
23:54:26.328,-0.445,-0.015
23:54:26.332,-0.44,-0.02
23:54:26.336,-0.41,-0.025
23:54:26.340,-0.425,-0.02
23:54:26.344,-0.415,0.0
23:54:26.348,-0.405,-0.015
23:54:26.352,-0.405,-0.005
23:54:26.356,-0.405,-0.03
23:54:26.360,-0.41,-0.01
23:54:26.364,-0.425,-0.025
23:54:26.368,-0.43,-0.02
23:54:26.372,-0.4,-0.035
23:54:26.376,-0.415,-0.035
23:54:26.380,-0.405,-0.065
23:54:26.384,-0.395,-0.04
23:54:26.388,-0.4,-0.05
23:54:26.392,-0.37,-0.055
23:54:26.396,-0.375,-0.055
23:54:26.400,-0.39,-0.045
23:54:26.404,-0.37,-0.045
23:54:26.408,-0.35,-0.055
23:54:26.412,-0.35,-0.075
23:54:26.416,-0.345,-0.065
23:54:26.420,-0.335,-0.05
23:54:26.424,-0.34,-0.05
23:54:26.428,-0.31,-0.04
23:54:26.432,-0.305,-0.06
23:54:26.436,-0.315,-0.04
23:54:26.440,-0.305,-0.045
23:54:26.444,-0.295,-0.045
23:54:26.448,-0.265,-0.01
23:54:26.452,-0.26,-0.01
23:54:26.456,-0.25,-0.005
23:54:26.460,-0.24,0.005
23:54:26.464,-0.21,0.015
23:54:26.468,-0.225,0.005
23:54:26.472,-0.205,0.015
23:54:26.476,-0.2,0.045
23:54:26.480,-0.215,0.065
23:54:26.484,-0.195,0.065
23:54:26.488,-0.215,0.07
23:54:26.492,-0.225,0.055
23:54:26.496,-0.205,0.05
23:54:26.500,-0.205,0.04
23:54:26.504,-0.195,0.055
23:54:26.508,-0.195,0.04
23:54:26.512,-0.175,0.025
23:54:26.516,-0.17,0.0
23:54:26.520,-0.165,0.03
23:54:26.524,-0.18,0.045
23:54:26.528,-0.175,0.055
23:54:26.532,-0.19,0.03
23:54:26.536,-0.195,0.03
23:54:26.540,-0.195,0.02
23:54:26.544,-0.21,0.015
23:54:26.548,-0.195,0.005
23:54:26.552,-0.195,0.015
23:54:26.556,-0.195,-0.03
23:54:26.560,-0.21,-0.02
23:54:26.564,-0.22,-0.01
23:54:26.568,-0.21,-0.02
23:54:26.572,-0.19,-0.005
23:54:26.576,-0.195,-0.02
23:54:26.580,-0.18,0.0
23:54:26.584,-0.195,-0.02
23:54:26.588,-0.195,-0.02
23:54:26.592,-0.19,-0.025
23:54:26.596,-0.205,-0.03
23:54:26.600,-0.2,-0.05
23:54:26.604,-0.195,-0.05
23:54:26.608,-0.17,-0.025
23:54:26.612,-0.135,-0.05
23:54:26.616,-0.085,-0.05
23:54:26.620,-0.03,-0.04
23:54:26.624,0.04,-0.065
23:54:26.628,0.1,-0.07
23:54:26.632,0.115,-0.105
23:54:26.636,0.105,-0.095
23:54:26.640,0.1,-0.055
23:54:26.644,0.055,-0.04
23:54:26.648,0.02,-0.07
23:54:26.652,0.095,-0.125
23:54:26.656,0.35,-0.29
23:54:26.660,0.68,-0.555
23:54:26.664,0.975,-0.855
23:54:26.668,1.14,-1.005
23:54:26.672,1.045,-0.965
23:54:26.676,0.68,-0.675
23:54:26.680,0.24,-0.27
23:54:26.684,-0.055,-0.005
23:54:26.688,-0.22,0.12
23:54:26.692,-0.3,0.185
23:54:26.696,-0.36,0.205
23:54:26.700,-0.375,0.165
23:54:26.704,-0.38,0.18
23:54:26.708,-0.365,0.15
23:54:26.712,-0.39,0.15
23:54:26.716,-0.385,0.15
23:54:26.720,-0.37,0.14
23:54:26.724,-0.365,0.115
23:54:26.728,-0.345,0.105
23:54:26.732,-0.33,0.09
23:54:26.736,-0.335,0.07
23:54:26.740,-0.34,0.06
23:54:26.744,-0.33,0.07
23:54:26.748,-0.335,0.07
23:54:26.752,-0.32,0.05
23:54:26.756,-0.32,0.06
23:54:26.760,-0.34,0.025
23:54:26.764,-0.35,0.04
23:54:26.768,-0.36,0.03
23:54:26.772,-0.355,0.03
23:54:26.776,-0.365,0.02
23:54:26.780,-0.365,0.005
23:54:26.784,-0.38,0.015
23:54:26.788,-0.38,0.015
23:54:26.792,-0.405,0.0
23:54:26.796,-0.395,0.0
23:54:26.800,-0.425,-0.01
23:54:26.804,-0.41,-0.015
23:54:26.808,-0.41,-0.02
23:54:26.812,-0.45,-0.02
23:54:26.816,-0.445,-0.025
23:54:26.820,-0.46,-0.04
23:54:26.824,-0.445,-0.04
23:54:26.828,-0.46,-0.04
23:54:26.832,-0.455,-0.035
23:54:26.836,-0.46,-0.06
23:54:26.840,-0.435,-0.05
23:54:26.844,-0.445,-0.055
23:54:26.848,-0.4,-0.055
23:54:26.852,-0.395,-0.06
23:54:26.856,-0.4,-0.055
23:54:26.860,-0.4,-0.065
23:54:26.864,-0.4,-0.07
23:54:26.868,-0.405,-0.07
23:54:26.872,-0.35,-0.085
23:54:26.876,-0.34,-0.08
23:54:26.880,-0.32,-0.1
23:54:26.884,-0.33,-0.075
23:54:26.888,-0.345,-0.09
23:54:26.892,-0.345,-0.09
23:54:26.896,-0.345,-0.08
23:54:26.900,-0.34,-0.065
23:54:26.904,-0.37,-0.06
23:54:26.908,-0.38,-0.08
23:54:26.912,-0.365,-0.075
23:54:26.916,-0.36,-0.07
23:54:26.920,-0.36,-0.06
23:54:26.924,-0.345,-0.08
23:54:26.928,-0.35,-0.05
23:54:26.932,-0.325,-0.04
23:54:26.936,-0.3,-0.03
23:54:26.940,-0.245,-0.03
23:54:26.944,-0.215,-0.03
23:54:26.948,-0.205,-0.015
23:54:26.952,-0.2,0.0
23:54:26.956,-0.165,0.0
23:54:26.960,-0.135,0.03
23:54:26.964,-0.11,0.015
23:54:26.968,-0.115,0.025
23:54:26.972,-0.115,0.025
23:54:26.976,-0.125,0.015
23:54:26.980,-0.125,-0.01
23:54:26.984,-0.105,-0.005
23:54:26.988,-0.095,-0.005
23:54:26.992,-0.1,-0.01
23:54:26.996,-0.12,-0.01
23:54:27.000,-0.125,-0.035
23:54:27.004,-0.14,-0.055
23:54:27.008,-0.15,-0.05
23:54:27.012,-0.135,-0.06
23:54:27.016,-0.135,-0.085
23:54:27.020,-0.145,-0.1
23:54:27.024,-0.145,-0.095
23:54:27.028,-0.16,-0.135
23:54:27.032,-0.17,-0.14
23:54:27.036,-0.17,-0.12
23:54:27.040,-0.175,-0.155
23:54:27.044,-0.19,-0.18
23:54:27.048,-0.19,-0.18
23:54:27.052,-0.185,-0.18
23:54:27.056,-0.2,-0.16
23:54:27.060,-0.19,-0.165
23:54:27.064,-0.17,-0.17
23:54:27.068,-0.18,-0.15
23:54:27.072,-0.185,-0.16
23:54:27.076,-0.165,-0.185
23:54:27.080,-0.16,-0.175
23:54:27.084,-0.1,-0.175
23:54:27.088,-0.06,-0.195
23:54:27.092,0.0,-0.165
23:54:27.096,0.055,-0.185
23:54:27.100,0.135,-0.21
23:54:27.104,0.195,-0.225
23:54:27.108,0.255,-0.25
23:54:27.112,0.295,-0.22
23:54:27.116,0.3,-0.185
23:54:27.120,0.295,-0.155
23:54:27.124,0.21,-0.14
23:54:27.128,0.23,-0.175
23:54:27.132,0.41,-0.305
23:54:27.136,0.7,-0.55
23:54:27.140,0.98,-0.845
23:54:27.144,1.11,-1.05
23:54:27.148,1.055,-1.085
23:54:27.152,0.725,-0.85
23:54:27.156,0.33,-0.49
23:54:27.160,0.035,-0.255
23:54:27.164,-0.11,-0.07
23:54:27.168,-0.2,-0.01
23:54:27.172,-0.25,0.015
23:54:27.176,-0.26,0.02
23:54:27.180,-0.285,0.015
23:54:27.184,-0.305,0.005
23:54:27.188,-0.285,-0.025
23:54:27.192,-0.28,-0.065
23:54:27.196,-0.275,-0.07
23:54:27.200,-0.245,-0.095
23:54:27.204,-0.245,-0.09
23:54:27.208,-0.255,-0.08
23:54:27.212,-0.265,-0.08
23:54:27.216,-0.285,-0.06
23:54:27.220,-0.29,-0.075
23:54:27.224,-0.28,-0.105
23:54:27.228,-0.29,-0.11
23:54:27.232,-0.305,-0.12
23:54:27.236,-0.31,-0.14
23:54:27.240,-0.325,-0.16
23:54:27.244,-0.33,-0.165
23:54:27.248,-0.33,-0.175
23:54:27.252,-0.37,-0.195
23:54:27.256,-0.365,-0.23
23:54:27.260,-0.375,-0.235
23:54:27.264,-0.395,-0.285
23:54:27.268,-0.405,-0.27
23:54:27.272,-0.435,-0.27
23:54:27.276,-0.42,-0.245
23:54:27.280,-0.43,-0.25
23:54:27.284,-0.4,-0.24
23:54:27.288,-0.41,-0.25
23:54:27.292,-0.415,-0.25
23:54:27.296,-0.425,-0.235
23:54:27.300,-0.445,-0.245
23:54:27.304,-0.44,-0.24
23:54:27.308,-0.4,-0.25
23:54:27.312,-0.4,-0.235
23:54:27.316,-0.385,-0.26
23:54:27.320,-0.39,-0.235
23:54:27.324,-0.395,-0.25
23:54:27.328,-0.4,-0.255
23:54:27.332,-0.385,-0.27
23:54:27.336,-0.41,-0.275
23:54:27.340,-0.41,-0.255
23:54:27.344,-0.425,-0.24
23:54:27.348,-0.4,-0.26
23:54:27.352,-0.395,-0.26
23:54:27.356,-0.39,-0.28
23:54:27.360,-0.415,-0.275
23:54:27.364,-0.405,-0.28
23:54:27.368,-0.38,-0.275
23:54:27.372,-0.375,-0.275
23:54:27.376,-0.355,-0.275
23:54:27.380,-0.34,-0.285
23:54:27.384,-0.35,-0.275
23:54:27.388,-0.32,-0.23
23:54:27.392,-0.28,-0.235
23:54:27.396,-0.265,-0.24
23:54:27.400,-0.255,-0.255
23:54:27.404,-0.26,-0.24
23:54:27.408,-0.245,-0.215
23:54:27.412,-0.225,-0.225
23:54:27.416,-0.2,-0.195
23:54:27.420,-0.16,-0.18
23:54:27.424,-0.15,-0.17
23:54:27.428,-0.13,-0.17
23:54:27.432,-0.115,-0.18
23:54:27.436,-0.125,-0.16
23:54:27.440,-0.105,-0.13
23:54:27.444,-0.115,-0.14
23:54:27.448,-0.115,-0.14
23:54:27.452,-0.115,-0.14
23:54:27.456,-0.115,-0.12
23:54:27.460,-0.145,-0.155
23:54:27.464,-0.165,-0.14
23:54:27.468,-0.19,-0.18
23:54:27.472,-0.2,-0.21
23:54:27.476,-0.195,-0.21
23:54:27.480,-0.19,-0.255
23:54:27.484,-0.22,-0.275
23:54:27.488,-0.22,-0.28
23:54:27.492,-0.24,-0.29
23:54:27.496,-0.225,-0.3
23:54:27.500,-0.215,-0.29
23:54:27.504,-0.225,-0.28
23:54:27.508,-0.225,-0.295
23:54:27.512,-0.24,-0.29
23:54:27.516,-0.245,-0.285
23:54:27.520,-0.22,-0.305
23:54:27.524,-0.195,-0.315
23:54:27.528,-0.215,-0.325
23:54:27.532,-0.215,-0.31
23:54:27.536,-0.215,-0.335
23:54:27.540,-0.19,-0.325
23:54:27.544,-0.185,-0.32
23:54:27.548,-0.18,-0.295
23:54:27.552,-0.18,-0.295
23:54:27.556,-0.215,-0.31
23:54:27.560,-0.2,-0.32
23:54:27.564,-0.23,-0.285
23:54:27.568,-0.255,-0.31
23:54:27.572,-0.24,-0.305
23:54:27.576,-0.255,-0.29
23:54:27.580,-0.25,-0.33
23:54:27.584,-0.255,-0.315
23:54:27.588,-0.24,-0.305
23:54:27.592,-0.2,-0.315
23:54:27.596,-0.15,-0.32
23:54:27.600,-0.075,-0.32
23:54:27.604,0.03,-0.32
23:54:27.608,0.145,-0.325
23:54:27.612,0.205,-0.355
23:54:27.616,0.26,-0.375
23:54:27.620,0.325,-0.33
23:54:27.624,0.35,-0.295
23:54:27.628,0.325,-0.295
23:54:27.632,0.295,-0.295
23:54:27.636,0.44,-0.345
23:54:27.640,0.735,-0.53
23:54:27.644,1.045,-0.78
23:54:27.648,1.29,-0.99
23:54:27.652,1.28,-1.095
23:54:27.656,0.955,-0.96
23:54:27.660,0.51,-0.665
23:54:27.664,0.155,-0.37
23:54:27.668,-0.015,-0.22
23:54:27.672,-0.105,-0.115
23:54:27.676,-0.14,-0.075
23:54:27.680,-0.18,-0.03
23:54:27.684,-0.235,-0.02
23:54:27.688,-0.275,-0.035
23:54:27.692,-0.28,-0.075
23:54:27.696,-0.29,-0.06
23:54:27.700,-0.305,-0.135
23:54:27.704,-0.31,-0.145
23:54:27.708,-0.31,-0.17
23:54:27.712,-0.345,-0.16
23:54:27.716,-0.34,-0.18
23:54:27.720,-0.33,-0.19
23:54:27.724,-0.36,-0.23
23:54:27.728,-0.355,-0.235
23:54:27.732,-0.365,-0.23
23:54:27.736,-0.345,-0.25
23:54:27.740,-0.345,-0.26
23:54:27.744,-0.34,-0.275
23:54:27.748,-0.35,-0.27
23:54:27.752,-0.365,-0.29
23:54:27.756,-0.375,-0.28
23:54:27.760,-0.375,-0.265
23:54:27.764,-0.385,-0.26
23:54:27.768,-0.39,-0.255
23:54:27.772,-0.39,-0.27
23:54:27.776,-0.42,-0.27
23:54:27.780,-0.43,-0.26
23:54:27.784,-0.435,-0.26
23:54:27.788,-0.46,-0.235
23:54:27.792,-0.485,-0.24
23:54:27.796,-0.475,-0.265
23:54:27.800,-0.5,-0.24
23:54:27.804,-0.48,-0.265
23:54:27.808,-0.48,-0.235
23:54:27.812,-0.48,-0.25
23:54:27.816,-0.49,-0.27
23:54:27.820,-0.48,-0.245
23:54:27.824,-0.505,-0.24
23:54:27.828,-0.5,-0.235
23:54:27.832,-0.48,-0.225
23:54:27.836,-0.485,-0.225
23:54:27.840,-0.485,-0.24
23:54:27.844,-0.455,-0.195
23:54:27.848,-0.43,-0.2
23:54:27.852,-0.425,-0.2
23:54:27.856,-0.395,-0.195
23:54:27.860,-0.37,-0.2
23:54:27.864,-0.355,-0.215
23:54:27.868,-0.315,-0.195
23:54:27.872,-0.31,-0.17
23:54:27.876,-0.285,-0.13
23:54:27.880,-0.265,-0.135
23:54:27.884,-0.255,-0.13
23:54:27.888,-0.245,-0.11
23:54:27.892,-0.235,-0.115
23:54:27.896,-0.22,-0.1
23:54:27.900,-0.24,-0.1
23:54:27.904,-0.245,-0.085
23:54:27.908,-0.215,-0.09
23:54:27.912,-0.23,-0.105
23:54:27.916,-0.215,-0.105
23:54:27.920,-0.205,-0.115
23:54:27.924,-0.18,-0.115
23:54:27.928,-0.18,-0.115
23:54:27.932,-0.175,-0.1
23:54:27.936,-0.14,-0.09
23:54:27.940,-0.15,-0.07
23:54:27.944,-0.14,-0.04
23:54:27.948,-0.13,-0.055
23:54:27.952,-0.14,-0.045
23:54:27.956,-0.145,-0.065
23:54:27.960,-0.135,-0.08
23:54:27.964,-0.14,-0.085
23:54:27.968,-0.13,-0.105
23:54:27.972,-0.135,-0.13
23:54:27.976,-0.14,-0.1
23:54:27.980,-0.15,-0.135
23:54:27.984,-0.145,-0.125
23:54:27.988,-0.16,-0.14
23:54:27.992,-0.16,-0.145
23:54:27.996,-0.16,-0.165
23:54:28.000,-0.19,-0.135
23:54:28.004,-0.18,-0.17
23:54:28.008,-0.205,-0.165
23:54:28.012,-0.2,-0.16
23:54:28.016,-0.21,-0.15
23:54:28.020,-0.225,-0.175
23:54:28.024,-0.215,-0.185
23:54:28.028,-0.24,-0.17
23:54:28.032,-0.255,-0.17
23:54:28.036,-0.245,-0.18
23:54:28.040,-0.235,-0.145
23:54:28.044,-0.245,-0.16
23:54:28.048,-0.23,-0.13
23:54:28.052,-0.23,-0.155
23:54:28.056,-0.24,-0.12
23:54:28.060,-0.23,-0.14
23:54:28.064,-0.215,-0.1
23:54:28.068,-0.205,-0.1
23:54:28.072,-0.19,-0.095
23:54:28.076,-0.185,-0.085
23:54:28.080,-0.155,-0.09
23:54:28.084,-0.14,-0.105
23:54:28.088,-0.085,-0.095
23:54:28.092,-0.005,-0.1
23:54:28.096,0.08,-0.1
23:54:28.100,0.16,-0.1
23:54:28.104,0.2,-0.11
23:54:28.108,0.22,-0.13
23:54:28.112,0.21,-0.125
23:54:28.116,0.195,-0.075
23:54:28.120,0.12,-0.045
23:54:28.124,0.09,-0.11
23:54:28.128,0.205,-0.195
23:54:28.132,0.46,-0.36
23:54:28.136,0.77,-0.655
23:54:28.140,1.04,-0.92
23:54:28.144,1.14,-1.075
23:54:28.148,0.98,-0.995
23:54:28.152,0.585,-0.69
23:54:28.156,0.165,-0.35
23:54:28.160,-0.055,-0.075
23:54:28.164,-0.21,0.035
23:54:28.168,-0.28,0.115
23:54:28.172,-0.32,0.115
23:54:28.176,-0.31,0.115
23:54:28.180,-0.31,0.1
23:54:28.184,-0.3,0.08
23:54:28.188,-0.33,0.055
23:54:28.192,-0.32,0.045
23:54:28.196,-0.33,0.025
23:54:28.200,-0.335,0.03
23:54:28.204,-0.33,-0.005
23:54:28.208,-0.36,0.0
23:54:28.212,-0.39,-0.01
23:54:28.216,-0.38,-0.025
23:54:28.220,-0.41,-0.035
23:54:28.224,-0.415,-0.055
23:54:28.228,-0.415,-0.075
23:54:28.232,-0.43,-0.09
23:54:28.236,-0.44,-0.075
23:54:28.240,-0.43,-0.105
23:54:28.244,-0.46,-0.1
23:54:28.248,-0.48,-0.105
23:54:28.252,-0.475,-0.115
23:54:28.256,-0.47,-0.11
23:54:28.260,-0.485,-0.09
23:54:28.264,-0.5,-0.105
23:54:28.268,-0.515,-0.1
23:54:28.272,-0.505,-0.085
23:54:28.276,-0.535,-0.09
23:54:28.280,-0.545,-0.075
23:54:28.284,-0.53,-0.08
23:54:28.288,-0.53,-0.08
23:54:28.292,-0.525,-0.075
23:54:28.296,-0.505,-0.075
23:54:28.300,-0.5,-0.06
23:54:28.304,-0.5,-0.065
23:54:28.308,-0.485,-0.04
23:54:28.312,-0.47,-0.045
23:54:28.316,-0.455,-0.045
23:54:28.320,-0.45,-0.045
23:54:28.324,-0.415,-0.055
23:54:28.328,-0.4,-0.04
23:54:28.332,-0.365,-0.02
23:54:28.336,-0.345,-0.015
23:54:28.340,-0.335,-0.005
23:54:28.344,-0.355,-0.005
23:54:28.348,-0.36,-0.01
23:54:28.352,-0.345,0.0
23:54:28.356,-0.33,-0.005
23:54:28.360,-0.325,-0.005
23:54:28.364,-0.365,-0.02
23:54:28.368,-0.365,-0.01
23:54:28.372,-0.375,-0.005
23:54:28.376,-0.37,-0.015
23:54:28.380,-0.365,-0.035
23:54:28.384,-0.34,-0.03
23:54:28.388,-0.335,-0.06
23:54:28.392,-0.32,-0.055
23:54:28.396,-0.29,-0.06
23:54:28.400,-0.285,-0.05
23:54:28.404,-0.285,-0.055
23:54:28.408,-0.28,-0.05
23:54:28.412,-0.265,-0.065
23:54:28.416,-0.265,-0.05
23:54:28.420,-0.25,-0.05
23:54:28.424,-0.23,-0.07
23:54:28.428,-0.22,-0.05
23:54:28.432,-0.19,-0.05
23:54:28.436,-0.21,-0.05
23:54:28.440,-0.2,-0.045
23:54:28.444,-0.23,-0.01
23:54:28.448,-0.23,-0.04
23:54:28.452,-0.24,-0.025
23:54:28.456,-0.235,-0.03
23:54:28.460,-0.26,-0.035
23:54:28.464,-0.265,-0.045
23:54:28.468,-0.28,-0.03
23:54:28.472,-0.265,-0.04
23:54:28.476,-0.28,-0.065
23:54:28.480,-0.28,-0.055
23:54:28.484,-0.27,-0.035
23:54:28.488,-0.265,-0.055
23:54:28.492,-0.3,-0.05
23:54:28.496,-0.305,-0.045
23:54:28.500,-0.285,-0.055
23:54:28.504,-0.285,-0.035
23:54:28.508,-0.28,-0.045
23:54:28.512,-0.28,-0.045
23:54:28.516,-0.28,-0.01
23:54:28.520,-0.285,-0.025
23:54:28.524,-0.26,-0.025
23:54:28.528,-0.26,-0.03
23:54:28.532,-0.22,-0.025
23:54:28.536,-0.235,-0.005
23:54:28.540,-0.23,-0.015
23:54:28.544,-0.2,-0.01
23:54:28.548,-0.2,-0.01
23:54:28.552,-0.17,-0.035
23:54:28.556,-0.18,-0.015
23:54:28.560,-0.175,-0.03
23:54:28.564,-0.185,-0.025
23:54:28.568,-0.17,0.01
23:54:28.572,-0.145,0.0
23:54:28.576,-0.15,-0.005
23:54:28.580,-0.16,0.0
23:54:28.584,-0.165,0.01
23:54:28.588,-0.15,0.0
23:54:28.592,-0.095,0.0
23:54:28.596,-0.04,-0.005
23:54:28.600,0.025,0.015
23:54:28.604,0.07,-0.015
23:54:28.608,0.07,-0.015
23:54:28.612,0.09,-0.05
23:54:28.616,0.075,-0.04
23:54:28.620,0.03,-0.025
23:54:28.624,0.0,-0.03
23:54:28.628,0.015,-0.065
23:54:28.632,0.225,-0.18
23:54:28.636,0.54,-0.45
23:54:28.640,0.85,-0.75
23:54:28.644,1.015,-0.95
23:54:28.648,1.0,-1.0
23:54:28.652,0.72,-0.815
23:54:28.656,0.28,-0.48
23:54:28.660,-0.035,-0.19
23:54:28.664,-0.18,0.025
23:54:28.668,-0.285,0.125
23:54:28.672,-0.33,0.17
23:54:28.676,-0.355,0.17
23:54:28.680,-0.375,0.165
23:54:28.684,-0.37,0.115
23:54:28.688,-0.355,0.095
23:54:28.692,-0.35,0.075
23:54:28.696,-0.355,0.09
23:54:28.700,-0.36,0.08
23:54:28.704,-0.365,0.075
23:54:28.708,-0.365,0.085
23:54:28.712,-0.38,0.075
23:54:28.716,-0.38,0.05
23:54:28.720,-0.4,0.08
23:54:28.724,-0.39,0.045
23:54:28.728,-0.37,0.035
23:54:28.732,-0.385,0.02
23:54:28.736,-0.39,0.03
23:54:28.740,-0.41,0.02
23:54:28.744,-0.395,0.025
23:54:28.748,-0.4,0.02
23:54:28.752,-0.395,0.005
23:54:28.756,-0.4,0.0
23:54:28.760,-0.395,0.015
23:54:28.764,-0.375,0.03
23:54:28.768,-0.375,0.05
23:54:28.772,-0.38,0.015
23:54:28.776,-0.37,0.03
23:54:28.780,-0.365,0.02
23:54:28.784,-0.385,0.03
23:54:28.788,-0.36,0.025
23:54:28.792,-0.38,0.05
23:54:28.796,-0.385,0.05
23:54:28.800,-0.395,0.045
23:54:28.804,-0.39,0.06
23:54:28.808,-0.4,0.045
23:54:28.812,-0.4,0.06
23:54:28.816,-0.44,0.06
23:54:28.820,-0.41,0.07
23:54:28.824,-0.415,0.085
23:54:28.828,-0.405,0.06
23:54:28.832,-0.39,0.075
23:54:28.836,-0.395,0.07
23:54:28.840,-0.38,0.09
23:54:28.844,-0.4,0.06
23:54:28.848,-0.385,0.05
23:54:28.852,-0.385,0.055
23:54:28.856,-0.385,0.045
23:54:28.860,-0.39,0.035
23:54:28.864,-0.375,0.025
23:54:28.868,-0.385,0.025
23:54:28.872,-0.375,0.005
23:54:28.876,-0.34,0.005
23:54:28.880,-0.355,0.0
23:54:28.884,-0.335,-0.01
23:54:28.888,-0.355,0.015
23:54:28.892,-0.32,-0.01
23:54:28.896,-0.295,0.005
23:54:28.900,-0.295,0.01
23:54:28.904,-0.295,0.0
23:54:28.908,-0.3,0.0
23:54:28.912,-0.295,0.01
23:54:28.916,-0.285,0.05
23:54:28.920,-0.32,0.04
23:54:28.924,-0.31,0.04
23:54:28.928,-0.305,0.05
23:54:28.932,-0.29,0.055
23:54:28.936,-0.255,0.06
23:54:28.940,-0.22,0.055
23:54:28.944,-0.2,0.085
23:54:28.948,-0.215,0.09
23:54:28.952,-0.17,0.095
23:54:28.956,-0.16,0.125
23:54:28.960,-0.175,0.15
23:54:28.964,-0.19,0.155
23:54:28.968,-0.175,0.115
23:54:28.972,-0.175,0.105
23:54:28.976,-0.17,0.1
23:54:28.980,-0.155,0.08
23:54:28.984,-0.17,0.055
23:54:28.988,-0.18,0.055
23:54:28.992,-0.185,0.07
23:54:28.996,-0.19,0.05
23:54:29.000,-0.2,0.035
23:54:29.004,-0.17,0.05
23:54:29.008,-0.165,0.035
23:54:29.012,-0.155,0.04
23:54:29.016,-0.17,0.04
23:54:29.020,-0.17,0.05
23:54:29.024,-0.17,0.055
23:54:29.028,-0.17,0.035
23:54:29.032,-0.195,0.07
23:54:29.036,-0.185,0.08
23:54:29.040,-0.19,0.08
23:54:29.044,-0.2,0.085
23:54:29.048,-0.18,0.085
23:54:29.052,-0.17,0.1
23:54:29.056,-0.16,0.085
23:54:29.060,-0.185,0.08
23:54:29.064,-0.175,0.08
23:54:29.068,-0.17,0.085
23:54:29.072,-0.145,0.07
23:54:29.076,-0.095,0.075
23:54:29.080,-0.025,0.07
23:54:29.084,0.045,0.03
23:54:29.088,0.075,0.01
23:54:29.092,0.095,-0.015
23:54:29.096,0.08,-0.005
23:54:29.100,0.04,0.03
23:54:29.104,0.015,0.045
23:54:29.108,-0.005,0.015
23:54:29.112,0.085,-0.02
23:54:29.116,0.35,-0.165
23:54:29.120,0.66,-0.435
23:54:29.124,0.93,-0.705
23:54:29.128,1.05,-0.885
23:54:29.132,0.935,-0.895
23:54:29.136,0.565,-0.64
23:54:29.140,0.145,-0.305
23:54:29.144,-0.145,-0.005
23:54:29.148,-0.285,0.155
23:54:29.152,-0.375,0.22
23:54:29.156,-0.385,0.23
23:54:29.160,-0.4,0.235
23:54:29.164,-0.44,0.19
23:54:29.168,-0.435,0.18
23:54:29.172,-0.43,0.17
23:54:29.176,-0.435,0.145
23:54:29.180,-0.445,0.12
23:54:29.184,-0.41,0.12
23:54:29.188,-0.395,0.12
23:54:29.192,-0.36,0.1
23:54:29.196,-0.36,0.095
23:54:29.200,-0.34,0.115
23:54:29.204,-0.36,0.135
23:54:29.208,-0.365,0.135
23:54:29.212,-0.355,0.115
23:54:29.216,-0.36,0.125
23:54:29.220,-0.34,0.105
23:54:29.224,-0.35,0.09
23:54:29.228,-0.375,0.095
23:54:29.232,-0.37,0.095
23:54:29.236,-0.355,0.065
23:54:29.240,-0.36,0.06
23:54:29.244,-0.385,0.065
23:54:29.248,-0.385,0.06
23:54:29.252,-0.395,0.075
23:54:29.256,-0.41,0.08
23:54:29.260,-0.415,0.08
23:54:29.264,-0.42,0.09
23:54:29.268,-0.415,0.09
23:54:29.272,-0.42,0.07
23:54:29.276,-0.415,0.1
23:54:29.280,-0.44,0.07
23:54:29.284,-0.43,0.07
23:54:29.288,-0.455,0.05
23:54:29.292,-0.45,0.065
23:54:29.296,-0.455,0.045
23:54:29.300,-0.46,0.05
23:54:29.304,-0.475,0.035
23:54:29.308,-0.48,0.02
23:54:29.312,-0.475,0.04
23:54:29.316,-0.46,0.015
23:54:29.320,-0.47,0.03
23:54:29.324,-0.475,0.01
23:54:29.328,-0.505,-0.01
23:54:29.332,-0.47,0.0
23:54:29.336,-0.465,-0.02
23:54:29.340,-0.46,-0.005
23:54:29.344,-0.47,-0.015
23:54:29.348,-0.47,-0.025
23:54:29.352,-0.465,-0.055
23:54:29.356,-0.49,-0.04
23:54:29.360,-0.505,-0.035
23:54:29.364,-0.495,-0.06
23:54:29.368,-0.48,-0.04
23:54:29.372,-0.475,-0.045
23:54:29.376,-0.45,-0.055
23:54:29.380,-0.415,-0.04
23:54:29.384,-0.4,-0.05
23:54:29.388,-0.405,-0.06
23:54:29.392,-0.375,-0.055
23:54:29.396,-0.37,-0.025
23:54:29.400,-0.36,-0.02
23:54:29.404,-0.355,-0.04
23:54:29.408,-0.35,-0.03
23:54:29.412,-0.32,-0.025
23:54:29.416,-0.3,-0.035
23:54:29.420,-0.29,-0.02
23:54:29.424,-0.28,-0.01
23:54:29.428,-0.275,0.0
23:54:29.432,-0.25,0.005
23:54:29.436,-0.225,0.02
23:54:29.440,-0.18,0.03
23:54:29.444,-0.185,0.015
23:54:29.448,-0.15,0.025
23:54:29.452,-0.14,0.05
23:54:29.456,-0.12,0.065
23:54:29.460,-0.145,0.06
23:54:29.464,-0.15,0.055
23:54:29.468,-0.145,0.065
23:54:29.472,-0.165,0.04
23:54:29.476,-0.185,0.045
23:54:29.480,-0.175,0.03
23:54:29.484,-0.175,0.03
23:54:29.488,-0.2,0.03
23:54:29.492,-0.19,0.0
23:54:29.496,-0.195,0.02
23:54:29.500,-0.225,0.0
23:54:29.504,-0.215,-0.025
23:54:29.508,-0.21,-0.02
23:54:29.512,-0.21,-0.04
23:54:29.516,-0.21,-0.045
23:54:29.520,-0.22,-0.045
23:54:29.524,-0.24,-0.08
23:54:29.528,-0.265,-0.08
23:54:29.532,-0.28,-0.09
23:54:29.536,-0.285,-0.075
23:54:29.540,-0.27,-0.075
23:54:29.544,-0.235,-0.09
23:54:29.548,-0.195,-0.12
23:54:29.552,-0.125,-0.09
23:54:29.556,-0.05,-0.11
23:54:29.560,0.025,-0.12
23:54:29.564,0.07,-0.155
23:54:29.568,0.1,-0.185
23:54:29.572,0.105,-0.155
23:54:29.576,0.11,-0.095
23:54:29.580,0.065,-0.105
23:54:29.584,0.01,-0.095
23:54:29.588,0.11,-0.13
23:54:29.592,0.34,-0.265
23:54:29.596,0.655,-0.505
23:54:29.600,0.925,-0.795
23:54:29.604,1.055,-0.98
23:54:29.608,0.89,-1.005
23:54:29.612,0.49,-0.75
23:54:29.616,0.11,-0.425
23:54:29.620,-0.115,-0.16
23:54:29.624,-0.26,-0.01
23:54:29.628,-0.34,0.05
23:54:29.632,-0.355,0.06
23:54:29.636,-0.37,0.05
23:54:29.640,-0.405,0.025
23:54:29.644,-0.435,0.01
23:54:29.648,-0.445,-0.015
23:54:29.652,-0.44,-0.035
23:54:29.656,-0.425,-0.07
23:54:29.660,-0.41,-0.09
23:54:29.664,-0.395,-0.08
23:54:29.668,-0.375,-0.085
23:54:29.672,-0.36,-0.075
23:54:29.676,-0.32,-0.06
23:54:29.680,-0.3,-0.045
23:54:29.684,-0.28,-0.03
23:54:29.688,-0.285,-0.01
23:54:29.692,-0.285,0.02
23:54:29.696,-0.3,0.05
23:54:29.700,-0.295,0.05
23:54:29.704,-0.285,0.06
23:54:29.708,-0.32,0.035
23:54:29.712,-0.335,0.04
23:54:29.716,-0.335,0.02
23:54:29.720,-0.335,0.005
23:54:29.724,-0.365,-0.025
23:54:29.728,-0.385,-0.025
23:54:29.732,-0.4,-0.04
23:54:29.736,-0.415,-0.06
23:54:29.740,-0.45,-0.07
23:54:29.744,-0.455,-0.08
23:54:29.748,-0.475,-0.125
23:54:29.752,-0.49,-0.11
23:54:29.756,-0.485,-0.09
23:54:29.760,-0.49,-0.12
23:54:29.764,-0.475,-0.09
23:54:29.768,-0.485,-0.135
23:54:29.772,-0.465,-0.145
23:54:29.776,-0.465,-0.165
23:54:29.780,-0.475,-0.15
23:54:29.784,-0.5,-0.16
23:54:29.788,-0.475,-0.175
23:54:29.792,-0.485,-0.17
23:54:29.796,-0.515,-0.16
23:54:29.800,-0.515,-0.18
23:54:29.804,-0.51,-0.19
23:54:29.808,-0.5,-0.185
23:54:29.812,-0.49,-0.18
23:54:29.816,-0.475,-0.185
23:54:29.820,-0.455,-0.18
23:54:29.824,-0.435,-0.175
23:54:29.828,-0.425,-0.185
23:54:29.832,-0.435,-0.17
23:54:29.836,-0.4,-0.2
23:54:29.840,-0.405,-0.2
23:54:29.844,-0.395,-0.205
23:54:29.848,-0.37,-0.235
23:54:29.852,-0.33,-0.22
23:54:29.856,-0.345,-0.19
23:54:29.860,-0.33,-0.195
23:54:29.864,-0.335,-0.2
23:54:29.868,-0.31,-0.205
23:54:29.872,-0.305,-0.22
23:54:29.876,-0.275,-0.19
23:54:29.880,-0.285,-0.185
23:54:29.884,-0.27,-0.19
23:54:29.888,-0.23,-0.19
23:54:29.892,-0.21,-0.18
23:54:29.896,-0.22,-0.19
23:54:29.900,-0.195,-0.16
23:54:29.904,-0.205,-0.14
23:54:29.908,-0.225,-0.145
23:54:29.912,-0.21,-0.11
23:54:29.916,-0.175,-0.13
23:54:29.920,-0.16,-0.1
23:54:29.924,-0.17,-0.085
23:54:29.928,-0.185,-0.095
23:54:29.932,-0.175,-0.08
23:54:29.936,-0.185,-0.08
23:54:29.940,-0.175,-0.06
23:54:29.944,-0.175,-0.065
23:54:29.948,-0.16,-0.04
23:54:29.952,-0.15,-0.065
23:54:29.956,-0.165,-0.055
23:54:29.960,-0.155,-0.09
23:54:29.964,-0.16,-0.1
23:54:29.968,-0.18,-0.105
23:54:29.972,-0.2,-0.125
23:54:29.976,-0.185,-0.135
23:54:29.980,-0.185,-0.18
23:54:29.984,-0.175,-0.18
23:54:29.988,-0.195,-0.21
23:54:29.992,-0.205,-0.235
23:54:29.996,-0.215,-0.245
23:54:30.000,-0.225,-0.245
23:54:30.004,-0.245,-0.25
23:54:30.008,-0.225,-0.275
23:54:30.012,-0.235,-0.24
23:54:30.016,-0.255,-0.25
23:54:30.020,-0.25,-0.27
23:54:30.024,-0.25,-0.255
23:54:30.028,-0.24,-0.285
