Time,ECG1,ECG2
00:42:09.980:1,-0.65,-2.235
00:42:09.984:1,-0.65,-2.26
00:42:09.988:1,-0.625,-2.28
00:42:09.992:1,-0.63,-2.28
00:42:09.996:1,-0.63,-2.285
00:42:10.000:1,-0.64,-2.275
00:42:10.004:1,-0.63,-2.285
00:42:10.008:1,-0.625,-2.305
00:42:10.012:1,-0.615,-2.305
00:42:10.016:1,-0.61,-2.285
00:42:10.020:1,-0.58,-2.29
00:42:10.024:1,-0.54,-2.285
00:42:10.028:1,-0.54,-2.255
00:42:10.032:1,-0.535,-2.27
00:42:10.036:1,-0.52,-2.25
00:42:10.040:1,-0.52,-2.23
00:42:10.044:1,-0.5,-2.22
00:42:10.048:1,-0.49,-2.225
00:42:10.052:1,-0.465,-2.2
00:42:10.056:1,-0.475,-2.19
00:42:10.060:1,-0.46,-2.17
00:42:10.064:1,-0.42,-2.155
00:42:10.068:1,-0.42,-2.165
00:42:10.072:1,-0.42,-2.145
00:42:10.076:1,-0.41,-2.12
00:42:10.080:1,-0.415,-2.095
00:42:10.084:1,-0.4,-2.085
00:42:10.088:1,-0.41,-2.07
00:42:10.092:1,-0.415,-2.05
00:42:10.096:1,-0.41,-2.045
00:42:10.100:1,-0.41,-2.02
00:42:10.104:1,-0.415,-2.01
00:42:10.108:1,-0.395,-2.005
00:42:10.112:1,-0.405,-1.98
00:42:10.116:1,-0.4,-1.985
00:42:10.120:1,-0.41,-1.965
00:42:10.124:1,-0.39,-1.965
00:42:10.128:1,-0.36,-1.945
00:42:10.132:1,-0.32,-1.945
00:42:10.136:1,-0.26,-1.92
00:42:10.140:1,-0.185,-1.915
00:42:10.144:1,-0.105,-1.915
00:42:10.148:1,-0.025,-1.885
00:42:10.152:1,0.035,-1.875
00:42:10.156:1,0.045,-1.89
00:42:10.160:1,0.035,-1.88
00:42:10.164:1,0.01,-1.875
00:42:10.168:1,-0.025,-1.845
00:42:10.172:1,-0.025,-1.865
00:42:10.176:1,0.09,-1.915
00:42:10.180:1,0.33,-2.0
00:42:10.184:1,0.605,-2.17
00:42:10.188:1,0.845,-2.36
00:42:10.192:1,0.995,-2.545
00:42:10.196:1,0.965,-2.59
00:42:10.200:1,0.695,-2.53
00:42:10.204:1,0.24,-2.305
00:42:10.208:1,-0.145,-1.99
00:42:10.212:1,-0.355,-1.755
00:42:10.216:1,-0.44,-1.66
00:42:10.220:1,-0.49,-1.615
00:42:10.224:1,-0.495,-1.63
00:42:10.228:1,-0.495,-1.615
00:42:10.232:1,-0.52,-1.61
00:42:10.236:1,-0.555,-1.64
00:42:10.240:1,-0.56,-1.665
00:42:10.244:1,-0.59,-1.69
00:42:10.248:1,-0.56,-1.71
00:42:10.252:1,-0.58,-1.71
00:42:10.256:1,-0.59,-1.71
00:42:10.260:1,-0.58,-1.735
00:42:10.264:1,-0.595,-1.715
00:42:10.268:1,-0.61,-1.725
00:42:10.272:1,-0.62,-1.735
00:42:10.276:1,-0.62,-1.715
00:42:10.280:1,-0.635,-1.705
00:42:10.284:1,-0.615,-1.71
00:42:10.288:1,-0.6,-1.68
00:42:10.292:1,-0.625,-1.69
00:42:10.296:1,-0.62,-1.665
00:42:10.300:1,-0.64,-1.665
00:42:10.304:1,-0.65,-1.655
00:42:10.308:1,-0.64,-1.66
00:42:10.312:1,-0.635,-1.665
00:42:10.316:1,-0.65,-1.67
00:42:10.320:1,-0.66,-1.645
00:42:10.324:1,-0.66,-1.65
00:42:10.328:1,-0.64,-1.665
00:42:10.332:1,-0.635,-1.68
00:42:10.336:1,-0.645,-1.68
00:42:10.340:1,-0.635,-1.715
00:42:10.344:1,-0.635,-1.71
00:42:10.348:1,-0.62,-1.755
00:42:10.352:1,-0.585,-1.765
00:42:10.356:1,-0.58,-1.745
00:42:10.360:1,-0.585,-1.735
00:42:10.364:1,-0.59,-1.725
00:42:10.368:1,-0.58,-1.745
00:42:10.372:1,-0.555,-1.74
00:42:10.376:1,-0.55,-1.755
00:42:10.380:1,-0.515,-1.74
00:42:10.384:1,-0.54,-1.73
00:42:10.388:1,-0.505,-1.755
00:42:10.392:1,-0.485,-1.745
00:42:10.396:1,-0.47,-1.775
00:42:10.400:1,-0.46,-1.78
00:42:10.404:1,-0.46,-1.77
00:42:10.408:1,-0.48,-1.785
00:42:10.412:1,-0.515,-1.765
00:42:10.416:1,-0.54,-1.78
00:42:10.420:1,-0.565,-1.8
00:42:10.424:1,-0.565,-1.805
00:42:10.428:1,-0.55,-1.805
00:42:10.432:1,-0.565,-1.8
00:42:10.436:1,-0.55,-1.795
00:42:10.440:1,-0.495,-1.785
00:42:10.444:1,-0.49,-1.81
00:42:10.448:1,-0.46,-1.81
00:42:10.452:1,-0.435,-1.825
00:42:10.456:1,-0.455,-1.815
00:42:10.460:1,-0.44,-1.825
00:42:10.464:1,-0.45,-1.83
00:42:10.468:1,-0.44,-1.82
00:42:10.472:1,-0.45,-1.825
00:42:10.476:1,-0.475,-1.825
00:42:10.480:1,-0.475,-1.8
00:42:10.484:1,-0.5,-1.81
00:42:10.488:1,-0.49,-1.795
00:42:10.492:1,-0.465,-1.775
00:42:10.496:1,-0.45,-1.78
00:42:10.500:1,-0.475,-1.755
00:42:10.504:1,-0.48,-1.755
00:42:10.508:1,-0.465,-1.735
00:42:10.512:1,-0.485,-1.73
00:42:10.516:1,-0.485,-1.685
00:42:10.520:1,-0.52,-1.685
00:42:10.524:1,-0.515,-1.685
00:42:10.528:1,-0.505,-1.665
00:42:10.532:1,-0.51,-1.66
00:42:10.536:1,-0.53,-1.62
00:42:10.540:1,-0.52,-1.615
00:42:10.544:1,-0.545,-1.585
00:42:10.548:1,-0.5,-1.55
00:42:10.552:1,-0.505,-1.53
00:42:10.556:1,-0.51,-1.515
00:42:10.560:1,-0.495,-1.495
00:42:10.564:1,-0.465,-1.465
00:42:10.568:1,-0.475,-1.45
00:42:10.572:1,-0.455,-1.445
00:42:10.576:1,-0.435,-1.39
00:42:10.580:1,-0.41,-1.365
00:42:10.584:1,-0.395,-1.33
00:42:10.588:1,-0.385,-1.285
00:42:10.592:1,-0.38,-1.26
00:42:10.596:1,-0.38,-1.24
00:42:10.600:1,-0.36,-1.21
00:42:10.604:1,-0.375,-1.2
00:42:10.608:1,-0.375,-1.18
00:42:10.612:1,-0.405,-1.175
00:42:10.616:1,-0.4,-1.125
00:42:10.620:1,-0.425,-1.125
00:42:10.624:1,-0.445,-1.1
00:42:10.628:1,-0.455,-1.085
00:42:10.632:1,-0.465,-1.08
00:42:10.636:1,-0.505,-1.07
00:42:10.640:1,-0.51,-1.035
00:42:10.644:1,-0.525,-1.015
00:42:10.648:1,-0.505,-0.995
00:42:10.652:1,-0.49,-0.985
00:42:10.656:1,-0.475,-0.97
00:42:10.660:1,-0.485,-0.945
00:42:10.664:1,-0.47,-0.96
00:42:10.668:1,-0.495,-0.975
00:42:10.672:1,-0.52,-0.975
00:42:10.676:1,-0.515,-1.015
00:42:10.680:1,-0.505,-1.03
00:42:10.684:1,-0.52,-1.05
00:42:10.688:1,-0.51,-1.085
00:42:10.692:1,-0.515,-1.085
00:42:10.696:1,-0.51,-1.1
00:42:10.700:1,-0.5,-1.1
00:42:10.704:1,-0.51,-1.09
00:42:10.708:1,-0.52,-1.09
00:42:10.712:1,-0.515,-1.105
00:42:10.716:1,-0.52,-1.1
00:42:10.720:1,-0.535,-1.08
00:42:10.724:1,-0.545,-1.105
00:42:10.728:1,-0.535,-1.07
00:42:10.732:1,-0.535,-1.1
00:42:10.736:1,-0.51,-1.065
00:42:10.740:1,-0.485,-1.07
00:42:10.744:1,-0.48,-1.045
00:42:10.748:1,-0.5,-1.045
00:42:10.752:1,-0.48,-1.05
00:42:10.756:1,-0.485,-1.04
00:42:10.760:1,-0.485,-1.025
00:42:10.764:1,-0.475,-0.985
00:42:10.768:1,-0.47,-1.0
00:42:10.772:1,-0.455,-1.0
00:42:10.776:1,-0.425,-0.99
00:42:10.780:1,-0.39,-1.0
00:42:10.784:1,-0.36,-0.965
00:42:10.788:1,-0.31,-0.985
00:42:10.792:1,-0.215,-0.955
00:42:10.796:1,-0.1,-0.94
00:42:10.800:1,0.005,-0.965
00:42:10.804:1,0.075,-0.93
00:42:10.808:1,0.16,-0.97
00:42:10.812:1,0.225,-0.98
00:42:10.816:1,0.27,-0.91
00:42:10.820:1,0.25,-0.91
00:42:10.824:1,0.185,-0.91
00:42:10.828:1,0.235,-0.96
00:42:10.832:1,0.4,-1.085
00:42:10.836:1,0.64,-1.265
00:42:10.840:1,0.9,-1.485
00:42:10.844:1,1.015,-1.695
00:42:10.848:1,0.845,-1.785
00:42:10.852:1,0.395,-1.67
00:42:10.856:1,-0.05,-1.36
00:42:10.860:1,-0.335,-1.085
00:42:10.864:1,-0.46,-0.93
00:42:10.868:1,-0.51,-0.87
00:42:10.872:1,-0.515,-0.79
00:42:10.876:1,-0.51,-0.75
00:42:10.880:1,-0.5,-0.745
00:42:10.884:1,-0.555,-0.755
00:42:10.888:1,-0.6,-0.795
00:42:10.892:1,-0.62,-0.83
00:42:10.896:1,-0.645,-0.905
00:42:10.900:1,-0.64,-0.92
00:42:10.904:1,-0.665,-0.955
00:42:10.908:1,-0.665,-0.985
00:42:10.912:1,-0.665,-0.99
00:42:10.916:1,-0.66,-0.995
00:42:10.920:1,-0.655,-1.0
00:42:10.924:1,-0.68,-1.0
00:42:10.928:1,-0.69,-1.0
00:42:10.932:1,-0.705,-0.99
00:42:10.936:1,-0.715,-1.0
00:42:10.940:1,-0.72,-0.995
00:42:10.944:1,-0.71,-0.975
00:42:10.948:1,-0.715,-0.985
00:42:10.952:1,-0.7,-0.95
00:42:10.956:1,-0.68,-0.97
00:42:10.960:1,-0.68,-0.955
00:42:10.964:1,-0.66,-0.965
00:42:10.968:1,-0.665,-0.955
00:42:10.972:1,-0.655,-0.955
00:42:10.976:1,-0.63,-0.95
00:42:10.980:1,-0.64,-0.915
00:42:10.984:1,-0.625,-0.92
00:42:10.988:1,-0.625,-0.915
00:42:10.992:1,-0.62,-0.925
00:42:10.996:1,-0.61,-0.905
00:42:11.000:1,-0.61,-0.89
00:42:11.004:1,-0.59,-0.855
00:42:11.008:1,-0.615,-0.875
00:42:11.012:1,-0.615,-0.84
00:42:11.016:1,-0.65,-0.825
00:42:11.020:1,-0.625,-0.825
00:42:11.024:1,-0.585,-0.8
00:42:11.028:1,-0.575,-0.81
00:42:11.032:1,-0.585,-0.785
00:42:11.036:1,-0.62,-0.765
00:42:11.040:1,-0.64,-0.76
00:42:11.044:1,-0.66,-0.72
00:42:11.048:1,-0.68,-0.705
00:42:11.052:1,-0.67,-0.7
00:42:11.056:1,-0.665,-0.67
00:42:11.060:1,-0.66,-0.64
00:42:11.064:1,-0.66,-0.62
00:42:11.068:1,-0.645,-0.625
00:42:11.072:1,-0.6,-0.625
00:42:11.076:1,-0.585,-0.59
00:42:11.080:1,-0.575,-0.62
00:42:11.084:1,-0.55,-0.645
00:42:11.088:1,-0.56,-0.635
00:42:11.092:1,-0.535,-0.62
00:42:11.096:1,-0.51,-0.605
00:42:11.100:1,-0.49,-0.61
00:42:11.104:1,-0.485,-0.605
00:42:11.108:1,-0.48,-0.615
00:42:11.112:1,-0.5,-0.605
00:42:11.116:1,-0.495,-0.61
00:42:11.120:1,-0.505,-0.615
00:42:11.124:1,-0.495,-0.61
00:42:11.128:1,-0.48,-0.605
00:42:11.132:1,-0.475,-0.59
00:42:11.136:1,-0.47,-0.575
00:42:11.140:1,-0.46,-0.6
00:42:11.144:1,-0.455,-0.58
00:42:11.148:1,-0.48,-0.575
00:42:11.152:1,-0.445,-0.565
00:42:11.156:1,-0.445,-0.58
00:42:11.160:1,-0.44,-0.57
00:42:11.164:1,-0.43,-0.555
00:42:11.168:1,-0.415,-0.565
00:42:11.172:1,-0.395,-0.575
00:42:11.176:1,-0.39,-0.575
00:42:11.180:1,-0.375,-0.545
00:42:11.184:1,-0.395,-0.545
00:42:11.188:1,-0.34,-0.555
00:42:11.192:1,-0.335,-0.51
00:42:11.196:1,-0.34,-0.53
00:42:11.200:1,-0.355,-0.52
00:42:11.204:1,-0.345,-0.51
00:42:11.208:1,-0.355,-0.465
00:42:11.212:1,-0.36,-0.49
00:42:11.216:1,-0.355,-0.455
00:42:11.220:1,-0.36,-0.455
00:42:11.224:1,-0.34,-0.435
00:42:11.228:1,-0.38,-0.43
00:42:11.232:1,-0.39,-0.41
00:42:11.236:1,-0.365,-0.395
00:42:11.240:1,-0.36,-0.36
00:42:11.244:1,-0.32,-0.4
00:42:11.248:1,-0.285,-0.39
00:42:11.252:1,-0.22,-0.365
00:42:11.256:1,-0.155,-0.385
00:42:11.260:1,-0.095,-0.375
00:42:11.264:1,-0.015,-0.435
00:42:11.268:1,0.02,-0.395
00:42:11.272:1,0.05,-0.38
00:42:11.276:1,0.055,-0.36
00:42:11.280:1,0.075,-0.425
00:42:11.284:1,0.215,-0.515
00:42:11.288:1,0.505,-0.655
00:42:11.292:1,0.825,-0.91
00:42:11.296:1,1.065,-1.155
00:42:11.300:1,1.07,-1.345
00:42:11.304:1,0.8,-1.36
00:42:11.308:1,0.35,-1.135
00:42:11.312:1,-0.085,-0.795
00:42:11.316:1,-0.32,-0.545
00:42:11.320:1,-0.435,-0.415
00:42:11.324:1,-0.49,-0.305
00:42:11.328:1,-0.515,-0.22
00:42:11.332:1,-0.525,-0.195
00:42:11.336:1,-0.555,-0.18
00:42:11.340:1,-0.595,-0.165
00:42:11.344:1,-0.62,-0.15
00:42:11.348:1,-0.62,-0.14
00:42:11.352:1,-0.63,-0.15
00:42:11.356:1,-0.6,-0.155
00:42:11.360:1,-0.605,-0.14
00:42:11.364:1,-0.595,-0.125
00:42:11.368:1,-0.595,-0.09
00:42:11.372:1,-0.595,-0.085
00:42:11.376:1,-0.57,-0.055
00:42:11.380:1,-0.585,-0.045
00:42:11.384:1,-0.565,-0.025
00:42:11.388:1,-0.56,0.025
00:42:11.392:1,-0.555,0.03
00:42:11.396:1,-0.535,0.04
00:42:11.400:1,-0.53,0.08
00:42:11.404:1,-0.51,0.09
00:42:11.408:1,-0.5,0.085
00:42:11.412:1,-0.485,0.105
00:42:11.416:1,-0.51,0.105
00:42:11.420:1,-0.525,0.155
00:42:11.424:1,-0.56,0.15
00:42:11.428:1,-0.54,0.19
00:42:11.432:1,-0.58,0.2
00:42:11.436:1,-0.59,0.225
00:42:11.440:1,-0.585,0.25
00:42:11.444:1,-0.59,0.24
00:42:11.448:1,-0.62,0.26
00:42:11.452:1,-0.635,0.26
00:42:11.456:1,-0.645,0.29
00:42:11.460:1,-0.66,0.27
00:42:11.464:1,-0.665,0.275
00:42:11.468:1,-0.68,0.265
00:42:11.472:1,-0.68,0.27
00:42:11.476:1,-0.66,0.27
00:42:11.480:1,-0.665,0.265
00:42:11.484:1,-0.67,0.29
00:42:11.488:1,-0.66,0.28
00:42:11.492:1,-0.625,0.25
00:42:11.496:1,-0.635,0.235
00:42:11.500:1,-0.63,0.235
00:42:11.504:1,-0.605,0.22
00:42:11.508:1,-0.575,0.23
00:42:11.512:1,-0.555,0.205
00:42:11.516:1,-0.54,0.195
00:42:11.520:1,-0.505,0.195
00:42:11.524:1,-0.52,0.195
00:42:11.528:1,-0.515,0.2
00:42:11.532:1,-0.495,0.165
00:42:11.536:1,-0.47,0.145
00:42:11.540:1,-0.47,0.115
00:42:11.544:1,-0.46,0.14
00:42:11.548:1,-0.445,0.14
00:42:11.552:1,-0.43,0.12
00:42:11.556:1,-0.425,0.13
00:42:11.560:1,-0.42,0.12
00:42:11.564:1,-0.415,0.13
00:42:11.568:1,-0.405,0.14
00:42:11.572:1,-0.39,0.135
00:42:11.576:1,-0.375,0.145
00:42:11.580:1,-0.35,0.125
00:42:11.584:1,-0.335,0.125
00:42:11.588:1,-0.34,0.13
00:42:11.592:1,-0.315,0.125
00:42:11.596:1,-0.31,0.12
00:42:11.600:1,-0.295,0.13
00:42:11.604:1,-0.29,0.125
00:42:11.608:1,-0.295,0.135
00:42:11.612:1,-0.28,0.18
00:42:11.616:1,-0.275,0.17
00:42:11.620:1,-0.27,0.165
00:42:11.624:1,-0.28,0.185
00:42:11.628:1,-0.285,0.21
00:42:11.632:1,-0.275,0.19
00:42:11.636:1,-0.29,0.215
00:42:11.640:1,-0.3,0.245
00:42:11.644:1,-0.285,0.265
00:42:11.648:1,-0.255,0.295
00:42:11.652:1,-0.21,0.345
00:42:11.656:1,-0.16,0.35
00:42:11.660:1,-0.085,0.38
00:42:11.664:1,-0.05,0.375
00:42:11.668:1,0.02,0.37
00:42:11.672:1,0.06,0.375
00:42:11.676:1,0.055,0.36
00:42:11.680:1,0.045,0.405
00:42:11.684:1,0.01,0.405
00:42:11.688:1,0.035,0.345
00:42:11.692:1,0.195,0.245
00:42:11.696:1,0.46,0.07
00:42:11.700:1,0.765,-0.205
00:42:11.704:1,1.01,-0.485
00:42:11.708:1,1.08,-0.645
00:42:11.712:1,0.88,-0.605
00:42:11.716:1,0.435,-0.32
00:42:11.720:1,-0.035,0.07
00:42:11.724:1,-0.31,0.375
00:42:11.728:1,-0.435,0.525
00:42:11.732:1,-0.495,0.63
00:42:11.736:1,-0.545,0.705
00:42:11.740:1,-0.545,0.735
00:42:11.744:1,-0.58,0.735
00:42:11.748:1,-0.555,0.75
00:42:11.752:1,-0.61,0.74
00:42:11.756:1,-0.61,0.735
00:42:11.760:1,-0.59,0.715
00:42:11.764:1,-0.585,0.73
00:42:11.768:1,-0.58,0.7
00:42:11.772:1,-0.61,0.695
00:42:11.776:1,-0.585,0.67
00:42:11.780:1,-0.58,0.655
00:42:11.784:1,-0.59,0.65
00:42:11.788:1,-0.565,0.645
00:42:11.792:1,-0.58,0.66
00:42:11.796:1,-0.56,0.655
00:42:11.800:1,-0.565,0.67
00:42:11.804:1,-0.56,0.67
00:42:11.808:1,-0.545,0.67
00:42:11.812:1,-0.535,0.71
00:42:11.816:1,-0.525,0.705
00:42:11.820:1,-0.545,0.715
00:42:11.824:1,-0.545,0.745
00:42:11.828:1,-0.565,0.765
00:42:11.832:1,-0.575,0.76
00:42:11.836:1,-0.555,0.78
00:42:11.840:1,-0.525,0.785
00:42:11.844:1,-0.565,0.785
00:42:11.848:1,-0.565,0.785
00:42:11.852:1,-0.57,0.805
00:42:11.856:1,-0.61,0.825
00:42:11.860:1,-0.61,0.83
00:42:11.864:1,-0.64,0.84
00:42:11.868:1,-0.66,0.855
00:42:11.872:1,-0.665,0.835
00:42:11.876:1,-0.66,0.845
00:42:11.880:1,-0.645,0.85
00:42:11.884:1,-0.635,0.855
00:42:11.888:1,-0.615,0.85
00:42:11.892:1,-0.62,0.825
00:42:11.896:1,-0.625,0.835
00:42:11.900:1,-0.61,0.82
00:42:11.904:1,-0.615,0.825
00:42:11.908:1,-0.605,0.8
00:42:11.912:1,-0.59,0.84
00:42:11.916:1,-0.58,0.825
00:42:11.920:1,-0.575,0.84
00:42:11.924:1,-0.56,0.825
00:42:11.928:1,-0.52,0.815
00:42:11.932:1,-0.545,0.82
00:42:11.936:1,-0.52,0.815
00:42:11.940:1,-0.52,0.825
00:42:11.944:1,-0.49,0.86
00:42:11.948:1,-0.46,0.845
00:42:11.952:1,-0.445,0.845
00:42:11.956:1,-0.415,0.855
00:42:11.960:1,-0.415,0.87
00:42:11.964:1,-0.41,0.875
00:42:11.968:1,-0.38,0.9
00:42:11.972:1,-0.38,0.945
00:42:11.976:1,-0.365,0.925
00:42:11.980:1,-0.35,0.965
00:42:11.984:1,-0.345,1.0
00:42:11.988:1,-0.335,1.01
00:42:11.992:1,-0.32,1.02
00:42:11.996:1,-0.33,1.035
00:42:12.000:1,-0.305,1.055
00:42:12.004:1,-0.32,1.06
00:42:12.008:1,-0.315,1.085
00:42:12.012:1,-0.31,1.085
00:42:12.016:1,-0.32,1.1
00:42:12.020:1,-0.3,1.12
00:42:12.024:1,-0.3,1.14
00:42:12.028:1,-0.27,1.16
00:42:12.032:1,-0.29,1.175
00:42:12.036:1,-0.32,1.185
00:42:12.040:1,-0.32,1.18
00:42:12.044:1,-0.32,1.15
00:42:12.048:1,-0.335,1.145
00:42:12.052:1,-0.32,1.17
00:42:12.056:1,-0.32,1.18
00:42:12.060:1,-0.355,1.19
00:42:12.064:1,-0.365,1.21
00:42:12.068:1,-0.36,1.21
00:42:12.072:1,-0.39,1.195
00:42:12.076:1,-0.415,1.225
00:42:12.080:1,-0.43,1.215
00:42:12.084:1,-0.44,1.225
00:42:12.088:1,-0.45,1.235
00:42:12.092:1,-0.44,1.25
00:42:12.096:1,-0.435,1.25
00:42:12.100:1,-0.41,1.225
00:42:12.104:1,-0.415,1.215
00:42:12.108:1,-0.44,1.23
00:42:12.112:1,-0.435,1.255
00:42:12.116:1,-0.435,1.2
00:42:12.120:1,-0.42,1.215
00:42:12.124:1,-0.41,1.2
00:42:12.128:1,-0.45,1.175
00:42:12.132:1,-0.43,1.165
00:42:12.136:1,-0.42,1.145
00:42:12.140:1,-0.395,1.12
00:42:12.144:1,-0.385,1.12
00:42:12.148:1,-0.335,1.115
00:42:12.152:1,-0.245,1.085
00:42:12.156:1,-0.13,1.06
00:42:12.160:1,-0.01,1.065
00:42:12.164:1,0.055,1.005
00:42:12.168:1,0.105,0.96
00:42:12.172:1,0.11,0.94
00:42:12.176:1,0.085,0.945
00:42:12.180:1,0.05,0.93
00:42:12.184:1,0.075,0.83
00:42:12.188:1,0.265,0.72
00:42:12.192:1,0.535,0.51
00:42:12.196:1,0.85,0.225
00:42:12.200:1,1.11,-0.02
00:42:12.204:1,1.13,-0.175
00:42:12.208:1,0.88,-0.085
00:42:12.212:1,0.395,0.265
00:42:12.216:1,-0.005,0.66
00:42:12.220:1,-0.21,0.98
00:42:12.224:1,-0.295,1.15
00:42:12.228:1,-0.335,1.28
00:42:12.232:1,-0.34,1.345
00:42:12.236:1,-0.375,1.405
00:42:12.240:1,-0.38,1.42
00:42:12.244:1,-0.415,1.465
00:42:12.248:1,-0.425,1.465
00:42:12.252:1,-0.45,1.46
00:42:12.256:1,-0.445,1.465
00:42:12.260:1,-0.445,1.485
00:42:12.264:1,-0.455,1.485
00:42:12.268:1,-0.485,1.5
00:42:12.272:1,-0.49,1.52
00:42:12.276:1,-0.52,1.535
00:42:12.280:1,-0.545,1.535
00:42:12.284:1,-0.56,1.55
00:42:12.288:1,-0.59,1.56
00:42:12.292:1,-0.585,1.58
00:42:12.296:1,-0.59,1.595
00:42:12.300:1,-0.575,1.61
00:42:12.304:1,-0.585,1.615
00:42:12.308:1,-0.6,1.62
00:42:12.312:1,-0.585,1.595
00:42:12.316:1,-0.58,1.6
00:42:12.320:1,-0.59,1.595
00:42:12.324:1,-0.59,1.59
00:42:12.328:1,-0.575,1.575
00:42:12.332:1,-0.605,1.565
00:42:12.336:1,-0.605,1.55
00:42:12.340:1,-0.605,1.56
00:42:12.344:1,-0.605,1.55
00:42:12.348:1,-0.6,1.58
00:42:12.352:1,-0.59,1.575
00:42:12.356:1,-0.59,1.545
00:42:12.360:1,-0.59,1.535
00:42:12.364:1,-0.615,1.525
00:42:12.368:1,-0.595,1.475
00:42:12.372:1,-0.595,1.43
00:42:12.376:1,-0.57,1.38
00:42:12.380:1,-0.56,1.345
00:42:12.384:1,-0.525,1.275
00:42:12.388:1,-0.485,1.26
00:42:12.392:1,-0.475,1.255
00:42:12.396:1,-0.45,1.24
00:42:12.400:1,-0.425,1.24
00:42:12.404:1,-0.41,1.22
00:42:12.408:1,-0.4,1.265
00:42:12.412:1,-0.38,1.235
00:42:12.416:1,-0.365,1.22
00:42:12.420:1,-0.37,1.235
00:42:12.424:1,-0.36,1.24
00:42:12.428:1,-0.36,1.22
00:42:12.432:1,-0.375,1.24
00:42:12.436:1,-0.335,1.22
00:42:12.440:1,-0.32,1.22
00:42:12.444:1,-0.32,1.2
00:42:12.448:1,-0.28,1.195
00:42:12.452:1,-0.255,1.185
00:42:12.456:1,-0.285,1.145
00:42:12.460:1,-0.29,1.135
00:42:12.464:1,-0.3,1.11
00:42:12.468:1,-0.295,1.085
00:42:12.472:1,-0.29,1.045
00:42:12.476:1,-0.31,1.03
00:42:12.480:1,-0.305,1.04
00:42:12.484:1,-0.285,1.02
00:42:12.488:1,-0.32,1.03
00:42:12.492:1,-0.34,1.0
00:42:12.496:1,-0.36,1.0
00:42:12.500:1,-0.365,0.975
00:42:12.504:1,-0.35,0.995
00:42:12.508:1,-0.385,1.0
00:42:12.512:1,-0.39,0.985
00:42:12.516:1,-0.385,0.99
00:42:12.520:1,-0.38,0.975
00:42:12.524:1,-0.385,0.995
00:42:12.528:1,-0.385,0.98
00:42:12.532:1,-0.385,0.985
00:42:12.536:1,-0.4,0.98
00:42:12.540:1,-0.42,0.985
00:42:12.544:1,-0.415,0.99
00:42:12.548:1,-0.4,0.965
00:42:12.552:1,-0.405,0.95
00:42:12.556:1,-0.42,0.96
00:42:12.560:1,-0.44,0.97
00:42:12.564:1,-0.445,0.985
00:42:12.568:1,-0.435,0.97
00:42:12.572:1,-0.45,0.99
00:42:12.576:1,-0.46,0.985
00:42:12.580:1,-0.46,0.995
00:42:12.584:1,-0.46,1.025
00:42:12.588:1,-0.47,1.01
00:42:12.592:1,-0.455,1.02
00:42:12.596:1,-0.44,1.02
00:42:12.600:1,-0.435,1.03
00:42:12.604:1,-0.415,1.04
00:42:12.608:1,-0.415,1.055
00:42:12.612:1,-0.405,1.05
00:42:12.616:1,-0.37,1.05
00:42:12.620:1,-0.355,1.055
00:42:12.624:1,-0.355,1.075
00:42:12.628:1,-0.31,1.06
00:42:12.632:1,-0.3,1.065
00:42:12.636:1,-0.295,1.06
00:42:12.640:1,-0.3,1.045
00:42:12.644:1,-0.31,1.035
00:42:12.648:1,-0.29,1.055
00:42:12.652:1,-0.29,1.085
00:42:12.656:1,-0.3,1.1
00:42:12.660:1,-0.3,1.13
00:42:12.664:1,-0.295,1.125
00:42:12.668:1,-0.305,1.145
00:42:12.672:1,-0.3,1.155
00:42:12.676:1,-0.31,1.21
00:42:12.680:1,-0.315,1.24
00:42:12.684:1,-0.325,1.26
00:42:12.688:1,-0.32,1.31
00:42:12.692:1,-0.32,1.34
00:42:12.696:1,-0.32,1.345
00:42:12.700:1,-0.335,1.37
00:42:12.704:1,-0.33,1.41
00:42:12.708:1,-0.32,1.42
00:42:12.712:1,-0.305,1.425
00:42:12.716:1,-0.23,1.43
00:42:12.720:1,-0.17,1.44
00:42:12.724:1,-0.06,1.455
00:42:12.728:1,0.01,1.45
00:42:12.732:1,0.015,1.415
00:42:12.736:1,0.06,1.365
00:42:12.740:1,0.07,1.36
00:42:12.744:1,0.07,1.355
00:42:12.748:1,0.03,1.32
00:42:12.752:1,0.05,1.245
00:42:12.756:1,0.175,1.14
00:42:12.760:1,0.425,0.92
00:42:12.764:1,0.725,0.64
00:42:12.768:1,0.945,0.385
00:42:12.772:1,0.98,0.205
00:42:12.776:1,0.73,0.255
00:42:12.780:1,0.265,0.55
00:42:12.784:1,-0.135,0.945
00:42:12.788:1,-0.335,1.225
00:42:12.792:1,-0.43,1.4
00:42:12.796:1,-0.485,1.475
00:42:12.800:1,-0.505,1.51
00:42:12.804:1,-0.515,1.49
00:42:12.808:1,-0.53,1.515
00:42:12.812:1,-0.55,1.545
00:42:12.816:1,-0.565,1.505
00:42:12.820:1,-0.575,1.49
00:42:12.824:1,-0.57,1.485
00:42:12.828:1,-0.535,1.46
00:42:12.832:1,-0.525,1.445
00:42:12.836:1,-0.515,1.42
00:42:12.840:1,-0.52,1.4
00:42:12.844:1,-0.515,1.38
00:42:12.848:1,-0.51,1.375
00:42:12.852:1,-0.51,1.35
00:42:12.856:1,-0.52,1.325
00:42:12.860:1,-0.525,1.305
00:42:12.864:1,-0.52,1.275
00:42:12.868:1,-0.51,1.285
00:42:12.872:1,-0.53,1.23
00:42:12.876:1,-0.52,1.2
00:42:12.880:1,-0.5,1.155
00:42:12.884:1,-0.49,1.15
00:42:12.888:1,-0.5,1.135
00:42:12.892:1,-0.5,1.125
00:42:12.896:1,-0.52,1.13
00:42:12.900:1,-0.51,1.145
00:42:12.904:1,-0.52,1.15
00:42:12.908:1,-0.535,1.14
00:42:12.912:1,-0.56,1.165
00:42:12.916:1,-0.585,1.15
00:42:12.920:1,-0.62,1.12
00:42:12.924:1,-0.615,1.14
00:42:12.928:1,-0.605,1.115
00:42:12.932:1,-0.605,1.125
00:42:12.936:1,-0.61,1.095
00:42:12.940:1,-0.605,1.1
00:42:12.944:1,-0.605,1.1
00:42:12.948:1,-0.575,1.09
00:42:12.952:1,-0.55,1.09
00:42:12.956:1,-0.55,1.04
00:42:12.960:1,-0.565,1.055
00:42:12.964:1,-0.56,1.035
00:42:12.968:1,-0.545,1.03
00:42:12.972:1,-0.54,1.035
00:42:12.976:1,-0.54,1.035
00:42:12.980:1,-0.53,1.025
00:42:12.984:1,-0.545,1.015
00:42:12.988:1,-0.535,1.015
00:42:12.992:1,-0.515,1.01
00:42:12.996:1,-0.485,1.03
00:42:13.000:1,-0.48,1.02
00:42:13.004:1,-0.485,1.035
00:42:13.008:1,-0.465,1.04
00:42:13.012:1,-0.45,1.065
00:42:13.016:1,-0.43,1.07
00:42:13.020:1,-0.4,1.11
00:42:13.024:1,-0.36,1.11
00:42:13.028:1,-0.345,1.13
00:42:13.032:1,-0.35,1.13
00:42:13.036:1,-0.335,1.135
00:42:13.040:1,-0.34,1.165
00:42:13.044:1,-0.345,1.175
00:42:13.048:1,-0.355,1.185
00:42:13.052:1,-0.345,1.225
00:42:13.056:1,-0.32,1.21
00:42:13.060:1,-0.345,1.25
00:42:13.064:1,-0.345,1.265
00:42:13.068:1,-0.365,1.265
00:42:13.072:1,-0.365,1.25
00:42:13.076:1,-0.37,1.255
00:42:13.080:1,-0.375,1.255
00:42:13.084:1,-0.395,1.25
00:42:13.088:1,-0.41,1.235
00:42:13.092:1,-0.395,1.235
00:42:13.096:1,-0.38,1.215
00:42:13.100:1,-0.375,1.205
00:42:13.104:1,-0.365,1.195
00:42:13.108:1,-0.39,1.18
00:42:13.112:1,-0.37,1.19
00:42:13.116:1,-0.385,1.225
00:42:13.120:1,-0.41,1.225
00:42:13.124:1,-0.41,1.23
00:42:13.128:1,-0.46,1.235
00:42:13.132:1,-0.445,1.25
00:42:13.136:1,-0.45,1.235
00:42:13.140:1,-0.44,1.235
00:42:13.144:1,-0.415,1.245
00:42:13.148:1,-0.4,1.225
00:42:13.152:1,-0.415,1.21
00:42:13.156:1,-0.425,1.195
00:42:13.160:1,-0.435,1.19
00:42:13.164:1,-0.435,1.17
00:42:13.168:1,-0.445,1.175
00:42:13.172:1,-0.43,1.15
00:42:13.176:1,-0.445,1.135
00:42:13.180:1,-0.44,1.1
00:42:13.184:1,-0.46,1.105
00:42:13.188:1,-0.47,1.075
00:42:13.192:1,-0.46,1.06
00:42:13.196:1,-0.435,1.05
00:42:13.200:1,-0.425,1.045
00:42:13.204:1,-0.445,1.055
00:42:13.208:1,-0.465,1.04
00:42:13.212:1,-0.435,1.035
00:42:13.216:1,-0.405,1.02
00:42:13.220:1,-0.415,0.995
00:42:13.224:1,-0.395,0.975
00:42:13.228:1,-0.385,0.99
00:42:13.232:1,-0.315,0.98
00:42:13.236:1,-0.22,0.97
00:42:13.240:1,-0.085,0.97
00:42:13.244:1,0.055,0.94
00:42:13.248:1,0.165,0.915
00:42:13.252:1,0.235,0.905
00:42:13.256:1,0.325,0.88
00:42:13.260:1,0.36,0.91
00:42:13.264:1,0.355,0.91
00:42:13.268:1,0.335,0.875
00:42:13.272:1,0.38,0.83
00:42:13.276:1,0.6,0.68
00:42:13.280:1,0.905,0.445
00:42:13.284:1,1.17,0.19
00:42:13.288:1,1.165,-0.02
00:42:13.292:1,0.875,-0.04
00:42:13.296:1,0.39,0.175
00:42:13.300:1,-0.015,0.515
00:42:13.304:1,-0.22,0.745
00:42:13.308:1,-0.3,0.89
00:42:13.312:1,-0.34,0.98
00:42:13.316:1,-0.345,1.075
00:42:13.320:1,-0.41,1.14
00:42:13.324:1,-0.455,1.16
00:42:13.328:1,-0.5,1.17
00:42:13.332:1,-0.53,1.19
00:42:13.336:1,-0.56,1.17
00:42:13.340:1,-0.57,1.17
00:42:13.344:1,-0.575,1.205
00:42:13.348:1,-0.585,1.195
00:42:13.352:1,-0.575,1.205
00:42:13.356:1,-0.595,1.21
00:42:13.360:1,-0.575,1.22
00:42:13.364:1,-0.55,1.18
00:42:13.368:1,-0.535,1.185
00:42:13.372:1,-0.5,1.185
00:42:13.376:1,-0.5,1.145
00:42:13.380:1,-0.51,1.14
00:42:13.384:1,-0.54,1.105
00:42:13.388:1,-0.55,1.075
00:42:13.392:1,-0.575,1.02
00:42:13.396:1,-0.595,1.045
00:42:13.400:1,-0.585,1.03
00:42:13.404:1,-0.615,1.025
00:42:13.408:1,-0.64,1.005
00:42:13.412:1,-0.635,0.985
00:42:13.416:1,-0.64,0.98
00:42:13.420:1,-0.655,0.965
00:42:13.424:1,-0.635,0.96
00:42:13.428:1,-0.655,0.94
00:42:13.432:1,-0.655,0.925
00:42:13.436:1,-0.68,0.915
00:42:13.440:1,-0.655,0.895
00:42:13.444:1,-0.62,0.855
00:42:13.448:1,-0.62,0.83
00:42:13.452:1,-0.615,0.815
00:42:13.456:1,-0.615,0.77
00:42:13.460:1,-0.595,0.77
00:42:13.464:1,-0.575,0.75
00:42:13.468:1,-0.545,0.725
00:42:13.472:1,-0.525,0.75
00:42:13.476:1,-0.495,0.73
00:42:13.480:1,-0.475,0.71
00:42:13.484:1,-0.48,0.68
00:42:13.488:1,-0.44,0.685
00:42:13.492:1,-0.42,0.665
00:42:13.496:1,-0.43,0.66
00:42:13.500:1,-0.44,0.67
00:42:13.504:1,-0.455,0.655
00:42:13.508:1,-0.475,0.64
00:42:13.512:1,-0.485,0.655
00:42:13.516:1,-0.47,0.65
00:42:13.520:1,-0.445,0.635
00:42:13.524:1,-0.44,0.645
00:42:13.528:1,-0.47,0.615
00:42:13.532:1,-0.465,0.615
00:42:13.536:1,-0.48,0.645
00:42:13.540:1,-0.495,0.65
00:42:13.544:1,-0.475,0.645
00:42:13.548:1,-0.48,0.63
00:42:13.552:1,-0.5,0.66
00:42:13.556:1,-0.52,0.645
00:42:13.560:1,-0.53,0.655
00:42:13.564:1,-0.51,0.65
00:42:13.568:1,-0.49,0.64
00:42:13.572:1,-0.48,0.655
00:42:13.576:1,-0.455,0.66
00:42:13.580:1,-0.43,0.65
00:42:13.584:1,-0.425,0.635
00:42:13.588:1,-0.415,0.63
00:42:13.592:1,-0.395,0.635
00:42:13.596:1,-0.375,0.635
00:42:13.600:1,-0.385,0.635
00:42:13.604:1,-0.385,0.635
00:42:13.608:1,-0.37,0.63
00:42:13.612:1,-0.37,0.62
00:42:13.616:1,-0.39,0.63
00:42:13.620:1,-0.395,0.615
00:42:13.624:1,-0.405,0.605
00:42:13.628:1,-0.385,0.575
00:42:13.632:1,-0.37,0.585
00:42:13.636:1,-0.3,0.585
00:42:13.640:1,-0.225,0.59
00:42:13.644:1,-0.16,0.57
00:42:13.648:1,-0.065,0.54
00:42:13.652:1,-0.01,0.525
00:42:13.656:1,0.065,0.5
00:42:13.660:1,0.13,0.495
00:42:13.664:1,0.17,0.53
00:42:13.668:1,0.165,0.505
00:42:13.672:1,0.205,0.45
00:42:13.676:1,0.375,0.355
00:42:13.680:1,0.62,0.195
00:42:13.684:1,0.89,-0.095
00:42:13.688:1,1.095,-0.35
00:42:13.692:1,1.08,-0.54
00:42:13.696:1,0.85,-0.53
00:42:13.700:1,0.42,-0.235
00:42:13.704:1,0.0,0.13
00:42:13.708:1,-0.235,0.395
00:42:13.712:1,-0.34,0.535
00:42:13.716:1,-0.365,0.65
00:42:13.720:1,-0.39,0.725
00:42:13.724:1,-0.43,0.77
00:42:13.728:1,-0.48,0.8
00:42:13.732:1,-0.505,0.8
00:42:13.736:1,-0.53,0.775
00:42:13.740:1,-0.565,0.775
00:42:13.744:1,-0.575,0.755
00:42:13.748:1,-0.555,0.785
00:42:13.752:1,-0.6,0.835
00:42:13.756:1,-0.625,0.83
00:42:13.760:1,-0.655,0.845
00:42:13.764:1,-0.67,0.845
00:42:13.768:1,-0.685,0.88
00:42:13.772:1,-0.695,0.9
00:42:13.776:1,-0.69,0.905
00:42:13.780:1,-0.69,0.93
00:42:13.784:1,-0.695,0.97
00:42:13.788:1,-0.68,0.96
00:42:13.792:1,-0.685,0.965
00:42:13.796:1,-0.69,0.96
00:42:13.800:1,-0.695,0.93
00:42:13.804:1,-0.675,0.965
00:42:13.808:1,-0.65,0.965
00:42:13.812:1,-0.62,0.93
00:42:13.816:1,-0.59,0.95
00:42:13.820:1,-0.61,0.93
00:42:13.824:1,-0.63,0.92
00:42:13.828:1,-0.635,0.91
00:42:13.832:1,-0.645,0.895
00:42:13.836:1,-0.645,0.88
00:42:13.840:1,-0.63,0.87
00:42:13.844:1,-0.61,0.865
00:42:13.848:1,-0.62,0.85
00:42:13.852:1,-0.635,0.855
00:42:13.856:1,-0.63,0.845
00:42:13.860:1,-0.62,0.825
00:42:13.864:1,-0.625,0.85
00:42:13.868:1,-0.61,0.86
00:42:13.872:1,-0.59,0.85
00:42:13.876:1,-0.59,0.86
00:42:13.880:1,-0.575,0.825
00:42:13.884:1,-0.56,0.805
00:42:13.888:1,-0.5,0.81
00:42:13.892:1,-0.495,0.82
00:42:13.896:1,-0.465,0.805
00:42:13.900:1,-0.455,0.81
00:42:13.904:1,-0.415,0.775
00:42:13.908:1,-0.42,0.78
00:42:13.912:1,-0.41,0.795
00:42:13.916:1,-0.39,0.785
00:42:13.920:1,-0.38,0.8
00:42:13.924:1,-0.37,0.795
00:42:13.928:1,-0.345,0.775
00:42:13.932:1,-0.32,0.785
00:42:13.936:1,-0.34,0.785
00:42:13.940:1,-0.32,0.805
00:42:13.944:1,-0.33,0.775
00:42:13.948:1,-0.305,0.745
00:42:13.952:1,-0.31,0.75
00:42:13.956:1,-0.32,0.735
00:42:13.960:1,-0.325,0.765
00:42:13.964:1,-0.365,0.735
00:42:13.968:1,-0.375,0.76
00:42:13.972:1,-0.395,0.775
00:42:13.976:1,-0.405,0.795
00:42:13.980:1,-0.4,0.8
00:42:13.984:1,-0.425,0.805
00:42:13.988:1,-0.41,0.79
00:42:13.992:1,-0.415,0.8
00:42:13.996:1,-0.43,0.815
00:42:14.000:1,-0.44,0.845
00:42:14.004:1,-0.48,0.82
00:42:14.008:1,-0.465,0.815
00:42:14.012:1,-0.45,0.845
00:42:14.016:1,-0.45,0.85
00:42:14.020:1,-0.46,0.845
00:42:14.024:1,-0.455,0.855
00:42:14.028:1,-0.435,0.86
00:42:14.032:1,-0.42,0.84
00:42:14.036:1,-0.395,0.865
00:42:14.040:1,-0.395,0.84
00:42:14.044:1,-0.38,0.84
00:42:14.048:1,-0.36,0.855
00:42:14.052:1,-0.365,0.84
00:42:14.056:1,-0.355,0.82
00:42:14.060:1,-0.35,0.81
00:42:14.064:1,-0.355,0.82
00:42:14.068:1,-0.375,0.8
00:42:14.072:1,-0.345,0.8
00:42:14.076:1,-0.355,0.8
00:42:14.080:1,-0.345,0.8
00:42:14.084:1,-0.33,0.8
00:42:14.088:1,-0.335,0.78
00:42:14.092:1,-0.33,0.785
00:42:14.096:1,-0.3,0.805
00:42:14.100:1,-0.3,0.81
00:42:14.104:1,-0.275,0.82
00:42:14.108:1,-0.27,0.82
00:42:14.112:1,-0.25,0.835
00:42:14.116:1,-0.22,0.85
00:42:14.120:1,-0.23,0.84
00:42:14.124:1,-0.24,0.85
00:42:14.128:1,-0.225,0.865
00:42:14.132:1,-0.22,0.865
00:42:14.136:1,-0.235,0.86
00:42:14.140:1,-0.25,0.885
00:42:14.144:1,-0.255,0.905
00:42:14.148:1,-0.24,0.89
00:42:14.152:1,-0.22,0.895
00:42:14.156:1,-0.22,0.895
00:42:14.160:1,-0.25,0.91
00:42:14.164:1,-0.235,0.91
00:42:14.168:1,-0.23,0.915
00:42:14.172:1,-0.24,0.93
00:42:14.176:1,-0.225,0.895
00:42:14.180:1,-0.24,0.905
00:42:14.184:1,-0.25,0.92
00:42:14.188:1,-0.275,0.92
00:42:14.192:1,-0.3,0.92
00:42:14.196:1,-0.32,0.94
00:42:14.200:1,-0.315,0.935
00:42:14.204:1,-0.32,0.94
00:42:14.208:1,-0.3,0.95
00:42:14.212:1,-0.23,0.965
00:42:14.216:1,-0.12,0.995
00:42:14.220:1,-0.055,0.995
00:42:14.224:1,0.025,0.99
00:42:14.228:1,0.08,0.975
00:42:14.232:1,0.115,0.965
00:42:14.236:1,0.11,0.995
00:42:14.240:1,0.095,1.01
00:42:14.244:1,0.095,0.96
00:42:14.248:1,0.155,0.845
00:42:14.252:1,0.335,0.71
00:42:14.256:1,0.61,0.475
00:42:14.260:1,0.895,0.21
00:42:14.264:1,1.08,-0.035
00:42:14.268:1,1.04,-0.14
00:42:14.272:1,0.695,-0.03
00:42:14.276:1,0.195,0.33
00:42:14.280:1,-0.185,0.69
00:42:14.284:1,-0.38,0.945
00:42:14.288:1,-0.45,1.11
00:42:14.292:1,-0.495,1.24
00:42:14.296:1,-0.49,1.315
00:42:14.300:1,-0.535,1.325
00:42:14.304:1,-0.53,1.35
00:42:14.308:1,-0.535,1.36
00:42:14.312:1,-0.53,1.375
00:42:14.316:1,-0.535,1.365
00:42:14.320:1,-0.535,1.35
00:42:14.324:1,-0.5,1.35
00:42:14.328:1,-0.49,1.375
00:42:14.332:1,-0.475,1.375
00:42:14.336:1,-0.45,1.375
00:42:14.340:1,-0.425,1.39
00:42:14.344:1,-0.39,1.415
00:42:14.348:1,-0.385,1.42
00:42:14.352:1,-0.365,1.455
00:42:14.356:1,-0.365,1.48
00:42:14.360:1,-0.375,1.505
00:42:14.364:1,-0.365,1.515
00:42:14.368:1,-0.375,1.495
00:42:14.372:1,-0.37,1.495
00:42:14.376:1,-0.385,1.5
00:42:14.380:1,-0.4,1.5
00:42:14.384:1,-0.405,1.45
00:42:14.388:1,-0.405,1.42
00:42:14.392:1,-0.405,1.41
00:42:14.396:1,-0.415,1.415
00:42:14.400:1,-0.42,1.41
00:42:14.404:1,-0.43,1.405
00:42:14.408:1,-0.45,1.41
00:42:14.412:1,-0.465,1.43
00:42:14.416:1,-0.475,1.43
00:42:14.420:1,-0.5,1.45
00:42:14.424:1,-0.51,1.425
00:42:14.428:1,-0.545,1.455
00:42:14.432:1,-0.57,1.45
00:42:14.436:1,-0.58,1.45
00:42:14.440:1,-0.59,1.445
00:42:14.444:1,-0.57,1.45
00:42:14.448:1,-0.58,1.45
00:42:14.452:1,-0.56,1.43
00:42:14.456:1,-0.58,1.43
00:42:14.460:1,-0.565,1.43
00:42:14.464:1,-0.545,1.42
00:42:14.468:1,-0.545,1.38
00:42:14.472:1,-0.535,1.38
00:42:14.476:1,-0.535,1.36
00:42:14.480:1,-0.515,1.365
00:42:14.484:1,-0.535,1.35
00:42:14.488:1,-0.545,1.35
00:42:14.492:1,-0.515,1.335
00:42:14.496:1,-0.51,1.325
00:42:14.500:1,-0.5,1.305
00:42:14.504:1,-0.5,1.295
00:42:14.508:1,-0.47,1.305
00:42:14.512:1,-0.475,1.285
00:42:14.516:1,-0.475,1.28
00:42:14.520:1,-0.45,1.275
00:42:14.524:1,-0.47,1.275
00:42:14.528:1,-0.435,1.26
00:42:14.532:1,-0.41,1.22
00:42:14.536:1,-0.38,1.22
00:42:14.540:1,-0.37,1.22
00:42:14.544:1,-0.33,1.21
00:42:14.548:1,-0.31,1.195
00:42:14.552:1,-0.295,1.195
00:42:14.556:1,-0.255,1.185
00:42:14.560:1,-0.255,1.215
00:42:14.564:1,-0.24,1.195
00:42:14.568:1,-0.23,1.22
00:42:14.572:1,-0.25,1.22
00:42:14.576:1,-0.26,1.21
00:42:14.580:1,-0.255,1.21
00:42:14.584:1,-0.24,1.215
00:42:14.588:1,-0.27,1.195
00:42:14.592:1,-0.225,1.23
00:42:14.596:1,-0.25,1.2
00:42:14.600:1,-0.245,1.22
00:42:14.604:1,-0.245,1.2
00:42:14.608:1,-0.245,1.18
00:42:14.612:1,-0.245,1.19
00:42:14.616:1,-0.2,1.205
00:42:14.620:1,-0.215,1.185
00:42:14.624:1,-0.195,1.175
00:42:14.628:1,-0.205,1.17
00:42:14.632:1,-0.225,1.18
00:42:14.636:1,-0.245,1.15
00:42:14.640:1,-0.245,1.17
00:42:14.644:1,-0.27,1.16
00:42:14.648:1,-0.28,1.15
00:42:14.652:1,-0.305,1.11
00:42:14.656:1,-0.3,1.11
00:42:14.660:1,-0.28,1.095
00:42:14.664:1,-0.225,1.055
00:42:14.668:1,-0.16,1.045
00:42:14.672:1,-0.1,0.99
00:42:14.676:1,-0.07,0.975
00:42:14.680:1,-0.065,0.925
00:42:14.684:1,-0.125,0.915
00:42:14.688:1,-0.135,0.91
00:42:14.692:1,-0.16,0.84
00:42:14.696:1,-0.12,0.78
00:42:14.700:1,0.06,0.675
00:42:14.704:1,0.385,0.465
00:42:14.708:1,0.695,0.175
00:42:14.712:1,0.9,-0.155
00:42:14.716:1,0.98,-0.345
00:42:14.720:1,0.82,-0.285
00:42:14.724:1,0.405,-0.025
00:42:14.728:1,-0.065,0.39
00:42:14.732:1,-0.315,0.71
00:42:14.736:1,-0.47,0.86
00:42:14.740:1,-0.53,0.955
00:42:14.744:1,-0.54,0.995
00:42:14.748:1,-0.555,1.02
00:42:14.752:1,-0.575,1.025
00:42:14.756:1,-0.56,1.015
00:42:14.760:1,-0.555,1.015
00:42:14.764:1,-0.55,1.005
00:42:14.768:1,-0.535,0.965
00:42:14.772:1,-0.54,0.97
00:42:14.776:1,-0.55,0.965
00:42:14.780:1,-0.55,0.96
00:42:14.784:1,-0.55,0.955
00:42:14.788:1,-0.55,0.955
00:42:14.792:1,-0.52,0.945
00:42:14.796:1,-0.515,0.95
00:42:14.800:1,-0.515,0.955
00:42:14.804:1,-0.51,0.96
00:42:14.808:1,-0.51,0.94
00:42:14.812:1,-0.53,0.965
00:42:14.816:1,-0.51,0.955
00:42:14.820:1,-0.52,0.96
00:42:14.824:1,-0.485,0.97
00:42:14.828:1,-0.495,0.96
00:42:14.832:1,-0.5,1.0
00:42:14.836:1,-0.51,0.98
00:42:14.840:1,-0.51,0.97
00:42:14.844:1,-0.52,0.965
00:42:14.848:1,-0.52,0.965
00:42:14.852:1,-0.54,0.97
00:42:14.856:1,-0.51,0.97
00:42:14.860:1,-0.5,0.965
00:42:14.864:1,-0.475,0.96
00:42:14.868:1,-0.47,0.955
00:42:14.872:1,-0.445,0.945
00:42:14.876:1,-0.465,0.95
00:42:14.880:1,-0.5,0.92
00:42:14.884:1,-0.515,0.955
00:42:14.888:1,-0.545,0.955
00:42:14.892:1,-0.525,0.95
00:42:14.896:1,-0.515,0.935
00:42:14.900:1,-0.545,0.935
00:42:14.904:1,-0.56,0.945
00:42:14.908:1,-0.57,0.925
00:42:14.912:1,-0.55,0.925
00:42:14.916:1,-0.57,0.915
00:42:14.920:1,-0.58,0.895
00:42:14.924:1,-0.555,0.905
00:42:14.928:1,-0.54,0.935
00:42:14.932:1,-0.525,0.94
00:42:14.936:1,-0.52,0.925
00:42:14.940:1,-0.51,0.9
00:42:14.944:1,-0.485,0.94
00:42:14.948:1,-0.485,0.925
00:42:14.952:1,-0.46,0.93
00:42:14.956:1,-0.455,0.945
00:42:14.960:1,-0.475,0.965
00:42:14.964:1,-0.475,0.97
00:42:14.968:1,-0.48,0.97
00:42:14.972:1,-0.44,0.99
00:42:14.976:1,-0.405,1.01
00:42:14.980:1,-0.41,1.025
00:42:14.984:1,-0.39,1.03
00:42:14.988:1,-0.38,1.04
00:42:14.992:1,-0.36,1.07
00:42:14.996:1,-0.345,1.09
00:42:15.000:1,-0.355,1.075
00:42:15.004:1,-0.325,1.08
00:42:15.008:1,-0.3,1.105
00:42:15.012:1,-0.3,1.13
00:42:15.016:1,-0.31,1.14
00:42:15.020:1,-0.295,1.145
00:42:15.024:1,-0.28,1.15
00:42:15.028:1,-0.32,1.19
00:42:15.032:1,-0.295,1.19
00:42:15.036:1,-0.305,1.2
00:42:15.040:1,-0.285,1.23
00:42:15.044:1,-0.29,1.24
00:42:15.048:1,-0.29,1.25
00:42:15.052:1,-0.275,1.225
00:42:15.056:1,-0.28,1.235
00:42:15.060:1,-0.27,1.245
00:42:15.064:1,-0.275,1.24
00:42:15.068:1,-0.285,1.25
00:42:15.072:1,-0.31,1.225
00:42:15.076:1,-0.29,1.215
00:42:15.080:1,-0.305,1.21
00:42:15.084:1,-0.32,1.235
00:42:15.088:1,-0.31,1.26
00:42:15.092:1,-0.32,1.285
00:42:15.096:1,-0.325,1.28
00:42:15.100:1,-0.315,1.27
00:42:15.104:1,-0.315,1.27
00:42:15.108:1,-0.34,1.265
00:42:15.112:1,-0.345,1.265
00:42:15.116:1,-0.34,1.25
00:42:15.120:1,-0.345,1.24
00:42:15.124:1,-0.32,1.225
00:42:15.128:1,-0.345,1.235
00:42:15.132:1,-0.35,1.23
00:42:15.136:1,-0.365,1.22
00:42:15.140:1,-0.35,1.205
00:42:15.144:1,-0.365,1.17
00:42:15.148:1,-0.375,1.18
00:42:15.152:1,-0.37,1.155
00:42:15.156:1,-0.355,1.155
00:42:15.160:1,-0.35,1.155
00:42:15.164:1,-0.35,1.155
00:42:15.168:1,-0.34,1.155
00:42:15.172:1,-0.34,1.155
00:42:15.176:1,-0.32,1.14
00:42:15.180:1,-0.24,1.12
00:42:15.184:1,-0.125,1.12
00:42:15.188:1,-0.015,1.095
00:42:15.192:1,0.035,1.065
00:42:15.196:1,0.065,1.02
00:42:15.200:1,0.08,0.995
00:42:15.204:1,0.1,0.975
00:42:15.208:1,0.075,0.97
00:42:15.212:1,0.04,0.925
00:42:15.216:1,0.125,0.83
00:42:15.220:1,0.31,0.665
00:42:15.224:1,0.575,0.425
00:42:15.228:1,0.865,0.135
00:42:15.232:1,1.055,-0.115
00:42:15.236:1,1.005,-0.2
00:42:15.240:1,0.675,-0.075
00:42:15.244:1,0.225,0.26
00:42:15.248:1,-0.105,0.62
00:42:15.252:1,-0.275,0.845
00:42:15.256:1,-0.35,1.01
00:42:15.260:1,-0.375,1.085
00:42:15.264:1,-0.39,1.125
00:42:15.268:1,-0.39,1.16
00:42:15.272:1,-0.38,1.145
00:42:15.276:1,-0.39,1.15
00:42:15.280:1,-0.425,1.135
00:42:15.284:1,-0.44,1.125
00:42:15.288:1,-0.455,1.12
00:42:15.292:1,-0.475,1.125
00:42:15.296:1,-0.485,1.125
00:42:15.300:1,-0.465,1.105
00:42:15.304:1,-0.47,1.095
00:42:15.308:1,-0.485,1.095
00:42:15.312:1,-0.49,1.105
00:42:15.316:1,-0.525,1.095
00:42:15.320:1,-0.52,1.075
00:42:15.324:1,-0.525,1.075
00:42:15.328:1,-0.52,1.075
00:42:15.332:1,-0.525,1.065
00:42:15.336:1,-0.555,1.06
00:42:15.340:1,-0.56,1.035
00:42:15.344:1,-0.575,1.06
00:42:15.348:1,-0.56,1.03
00:42:15.352:1,-0.575,1.035
00:42:15.356:1,-0.595,1.01
00:42:15.360:1,-0.59,1.01
00:42:15.364:1,-0.61,1.01
00:42:15.368:1,-0.58,1.005
00:42:15.372:1,-0.59,1.02
00:42:15.376:1,-0.585,1.005
00:42:15.380:1,-0.6,1.005
00:42:15.384:1,-0.575,0.985
00:42:15.388:1,-0.56,1.015
00:42:15.392:1,-0.565,1.0
00:42:15.396:1,-0.565,1.02
00:42:15.400:1,-0.555,0.99
00:42:15.404:1,-0.54,1.01
00:42:15.408:1,-0.525,1.015
00:42:15.412:1,-0.525,1.04
00:42:15.416:1,-0.505,1.055
00:42:15.420:1,-0.5,1.055
00:42:15.424:1,-0.48,1.05
00:42:15.428:1,-0.485,1.025
00:42:15.432:1,-0.455,1.015
00:42:15.436:1,-0.44,0.98
00:42:15.440:1,-0.455,0.98
00:42:15.444:1,-0.44,0.985
00:42:15.448:1,-0.43,0.97
00:42:15.452:1,-0.42,0.955
00:42:15.456:1,-0.39,0.93
00:42:15.460:1,-0.38,0.935
00:42:15.464:1,-0.39,0.945
00:42:15.468:1,-0.355,0.925
00:42:15.472:1,-0.365,0.92
00:42:15.476:1,-0.35,0.93
00:42:15.480:1,-0.355,0.915
00:42:15.484:1,-0.37,0.925
00:42:15.488:1,-0.335,0.92
00:42:15.492:1,-0.31,0.945
00:42:15.496:1,-0.295,0.95
00:42:15.500:1,-0.275,0.94
00:42:15.504:1,-0.225,0.95
00:42:15.508:1,-0.205,0.94
00:42:15.512:1,-0.215,0.975
00:42:15.516:1,-0.23,0.98
00:42:15.520:1,-0.23,0.995
00:42:15.524:1,-0.25,0.985
00:42:15.528:1,-0.265,1.02
00:42:15.532:1,-0.275,1.025
00:42:15.536:1,-0.275,1.025
00:42:15.540:1,-0.265,1.05
00:42:15.544:1,-0.29,1.04
00:42:15.548:1,-0.315,1.035
00:42:15.552:1,-0.325,1.01
00:42:15.556:1,-0.35,1.03
00:42:15.560:1,-0.38,1.025
00:42:15.564:1,-0.365,1.015
00:42:15.568:1,-0.37,1.005
00:42:15.572:1,-0.4,0.995
00:42:15.576:1,-0.425,0.985
00:42:15.580:1,-0.445,0.965
00:42:15.584:1,-0.465,0.95
00:42:15.588:1,-0.44,0.945
00:42:15.592:1,-0.44,0.965
00:42:15.596:1,-0.47,0.955
00:42:15.600:1,-0.46,0.935
00:42:15.604:1,-0.42,0.935
00:42:15.608:1,-0.44,0.92
00:42:15.612:1,-0.44,0.93
00:42:15.616:1,-0.455,0.915
00:42:15.620:1,-0.445,0.9
00:42:15.624:1,-0.445,0.88
00:42:15.628:1,-0.44,0.89
00:42:15.632:1,-0.455,0.875
00:42:15.636:1,-0.435,0.875
00:42:15.640:1,-0.42,0.88
00:42:15.644:1,-0.415,0.88
00:42:15.648:1,-0.435,0.87
00:42:15.652:1,-0.43,0.87
00:42:15.656:1,-0.42,0.855
00:42:15.660:1,-0.4,0.835
00:42:15.664:1,-0.41,0.81
00:42:15.668:1,-0.415,0.82
00:42:15.672:1,-0.375,0.815
00:42:15.676:1,-0.295,0.805
00:42:15.680:1,-0.24,0.805
00:42:15.684:1,-0.145,0.785
00:42:15.688:1,-0.035,0.79
00:42:15.692:1,0.065,0.76
00:42:15.696:1,0.14,0.735
00:42:15.700:1,0.175,0.705
00:42:15.704:1,0.235,0.725
00:42:15.708:1,0.275,0.73
00:42:15.712:1,0.27,0.715
00:42:15.716:1,0.29,0.66
00:42:15.720:1,0.425,0.61
00:42:15.724:1,0.71,0.41
00:42:15.728:1,1.0,0.15
00:42:15.732:1,1.155,-0.07
00:42:15.736:1,1.045,-0.22
00:42:15.740:1,0.655,-0.145
00:42:15.744:1,0.2,0.195
00:42:15.748:1,-0.06,0.485
00:42:15.752:1,-0.21,0.65
00:42:15.756:1,-0.29,0.755
00:42:15.760:1,-0.355,0.86
00:42:15.764:1,-0.39,0.905
00:42:15.768:1,-0.44,0.91
00:42:15.772:1,-0.5,0.92
00:42:15.776:1,-0.515,0.89
00:42:15.780:1,-0.535,0.875
00:42:15.784:1,-0.565,0.845
00:42:15.788:1,-0.585,0.83
00:42:15.792:1,-0.575,0.795
00:42:15.796:1,-0.595,0.785
00:42:15.800:1,-0.615,0.735
00:42:15.804:1,-0.63,0.725
00:42:15.808:1,-0.635,0.71
00:42:15.812:1,-0.64,0.67
00:42:15.816:1,-0.64,0.645
00:42:15.820:1,-0.685,0.66
00:42:15.824:1,-0.655,0.65
00:42:15.828:1,-0.625,0.61
00:42:15.832:1,-0.615,0.63
00:42:15.836:1,-0.625,0.615
00:42:15.840:1,-0.63,0.62
00:42:15.844:1,-0.645,0.595
00:42:15.848:1,-0.66,0.6
00:42:15.852:1,-0.655,0.575
00:42:15.856:1,-0.685,0.57
00:42:15.860:1,-0.665,0.565
00:42:15.864:1,-0.67,0.525
00:42:15.868:1,-0.695,0.525
00:42:15.872:1,-0.665,0.53
00:42:15.876:1,-0.66,0.55
00:42:15.880:1,-0.64,0.545
00:42:15.884:1,-0.64,0.545
00:42:15.888:1,-0.625,0.525
00:42:15.892:1,-0.615,0.505
00:42:15.896:1,-0.59,0.515
00:42:15.900:1,-0.585,0.51
00:42:15.904:1,-0.565,0.51
00:42:15.908:1,-0.555,0.52
00:42:15.912:1,-0.55,0.51
00:42:15.916:1,-0.525,0.515
00:42:15.920:1,-0.49,0.52
00:42:15.924:1,-0.47,0.52
00:42:15.928:1,-0.465,0.515
00:42:15.932:1,-0.435,0.5
00:42:15.936:1,-0.425,0.52
00:42:15.940:1,-0.39,0.515
00:42:15.944:1,-0.38,0.54
00:42:15.948:1,-0.395,0.55
00:42:15.952:1,-0.375,0.565
00:42:15.956:1,-0.335,0.58
00:42:15.960:1,-0.29,0.585
00:42:15.964:1,-0.28,0.565
00:42:15.968:1,-0.275,0.595
00:42:15.972:1,-0.285,0.62
00:42:15.976:1,-0.295,0.6
00:42:15.980:1,-0.32,0.63
00:42:15.984:1,-0.335,0.65
00:42:15.988:1,-0.36,0.685
00:42:15.992:1,-0.345,0.64
00:42:15.996:1,-0.385,0.645
00:42:16.000:1,-0.37,0.645
00:42:16.004:1,-0.375,0.645
00:42:16.008:1,-0.35,0.65
00:42:16.012:1,-0.38,0.64
00:42:16.016:1,-0.39,0.655
00:42:16.020:1,-0.39,0.655
00:42:16.024:1,-0.385,0.66
00:42:16.028:1,-0.405,0.65
00:42:16.032:1,-0.42,0.66
00:42:16.036:1,-0.44,0.64
00:42:16.040:1,-0.435,0.64
00:42:16.044:1,-0.43,0.62
00:42:16.048:1,-0.455,0.6
00:42:16.052:1,-0.43,0.585
00:42:16.056:1,-0.43,0.575
00:42:16.060:1,-0.45,0.58
00:42:16.064:1,-0.45,0.57
00:42:16.068:1,-0.425,0.575
00:42:16.072:1,-0.425,0.58
00:42:16.076:1,-0.445,0.585
00:42:16.080:1,-0.44,0.585
00:42:16.084:1,-0.46,0.58
00:42:16.088:1,-0.47,0.6
00:42:16.092:1,-0.49,0.595
00:42:16.096:1,-0.45,0.6
00:42:16.100:1,-0.44,0.59
00:42:16.104:1,-0.44,0.57
00:42:16.108:1,-0.435,0.58
00:42:16.112:1,-0.41,0.595
00:42:16.116:1,-0.385,0.57
00:42:16.120:1,-0.38,0.58
00:42:16.124:1,-0.355,0.6
00:42:16.128:1,-0.36,0.61
00:42:16.132:1,-0.35,0.61
00:42:16.136:1,-0.325,0.61
00:42:16.140:1,-0.305,0.61
00:42:16.144:1,-0.315,0.61
00:42:16.148:1,-0.3,0.635
00:42:16.152:1,-0.28,0.64
00:42:16.156:1,-0.265,0.635
00:42:16.160:1,-0.26,0.665
00:42:16.164:1,-0.255,0.655
00:42:16.168:1,-0.24,0.67
00:42:16.172:1,-0.195,0.66
00:42:16.176:1,-0.16,0.69
00:42:16.180:1,-0.095,0.68
00:42:16.184:1,0.015,0.685
00:42:16.188:1,0.12,0.695
00:42:16.192:1,0.2,0.665
00:42:16.196:1,0.25,0.63
00:42:16.200:1,0.295,0.635
00:42:16.204:1,0.335,0.635
00:42:16.208:1,0.32,0.635
00:42:16.212:1,0.28,0.595
00:42:16.216:1,0.31,0.53
00:42:16.220:1,0.495,0.405
00:42:16.224:1,0.72,0.16
00:42:16.228:1,0.995,-0.09
00:42:16.232:1,1.13,-0.33
00:42:16.236:1,1.02,-0.425
00:42:16.240:1,0.62,-0.33
00:42:16.244:1,0.18,0.0
00:42:16.248:1,-0.12,0.345
00:42:16.252:1,-0.235,0.54
00:42:16.256:1,-0.31,0.65
00:42:16.260:1,-0.38,0.745
00:42:16.264:1,-0.425,0.8
00:42:16.268:1,-0.455,0.815
00:42:16.272:1,-0.465,0.825
00:42:16.276:1,-0.49,0.79
00:42:16.280:1,-0.505,0.775
00:42:16.284:1,-0.525,0.755
00:42:16.288:1,-0.51,0.73
00:42:16.292:1,-0.555,0.735
00:42:16.296:1,-0.55,0.75
00:42:16.300:1,-0.565,0.73
00:42:16.304:1,-0.575,0.705
00:42:16.308:1,-0.595,0.73
00:42:16.312:1,-0.57,0.735
00:42:16.316:1,-0.58,0.72
00:42:16.320:1,-0.58,0.71
00:42:16.324:1,-0.57,0.71
00:42:16.328:1,-0.55,0.72
00:42:16.332:1,-0.57,0.71
00:42:16.336:1,-0.56,0.72
00:42:16.340:1,-0.55,0.73
00:42:16.344:1,-0.555,0.72
00:42:16.348:1,-0.555,0.71
00:42:16.352:1,-0.55,0.695
00:42:16.356:1,-0.52,0.72
00:42:16.360:1,-0.505,0.755
00:42:16.364:1,-0.515,0.765
00:42:16.368:1,-0.51,0.77
00:42:16.372:1,-0.5,0.77
00:42:16.376:1,-0.47,0.775
00:42:16.380:1,-0.46,0.785
00:42:16.384:1,-0.46,0.835
00:42:16.388:1,-0.465,0.84
00:42:16.392:1,-0.435,0.84
00:42:16.396:1,-0.43,0.845
00:42:16.400:1,-0.405,0.86
00:42:16.404:1,-0.43,0.865
00:42:16.408:1,-0.425,0.88
00:42:16.412:1,-0.395,0.855
00:42:16.416:1,-0.395,0.88
00:42:16.420:1,-0.41,0.87
00:42:16.424:1,-0.415,0.87
00:42:16.428:1,-0.4,0.86
00:42:16.432:1,-0.405,0.875
00:42:16.436:1,-0.38,0.895
00:42:16.440:1,-0.395,0.875
00:42:16.444:1,-0.405,0.87
00:42:16.448:1,-0.415,0.87
00:42:16.452:1,-0.405,0.88
00:42:16.456:1,-0.42,0.87
00:42:16.460:1,-0.4,0.86
00:42:16.464:1,-0.385,0.855
00:42:16.468:1,-0.385,0.835
00:42:16.472:1,-0.36,0.865
00:42:16.476:1,-0.37,0.86
00:42:16.480:1,-0.375,0.865
00:42:16.484:1,-0.385,0.85
00:42:16.488:1,-0.36,0.845
00:42:16.492:1,-0.365,0.84
00:42:16.496:1,-0.335,0.83
00:42:16.500:1,-0.335,0.82
00:42:16.504:1,-0.315,0.83
00:42:16.508:1,-0.335,0.82
00:42:16.512:1,-0.33,0.81
00:42:16.516:1,-0.34,0.82
00:42:16.520:1,-0.355,0.795
00:42:16.524:1,-0.345,0.8
00:42:16.528:1,-0.325,0.8
00:42:16.532:1,-0.33,0.785
00:42:16.536:1,-0.33,0.825
00:42:16.540:1,-0.34,0.79
00:42:16.544:1,-0.32,0.78
00:42:16.548:1,-0.32,0.8
00:42:16.552:1,-0.34,0.79
00:42:16.556:1,-0.335,0.795
00:42:16.560:1,-0.305,0.805
00:42:16.564:1,-0.295,0.79
00:42:16.568:1,-0.295,0.805
00:42:16.572:1,-0.29,0.785
00:42:16.576:1,-0.275,0.79
00:42:16.580:1,-0.285,0.805
00:42:16.584:1,-0.265,0.77
00:42:16.588:1,-0.265,0.78
00:42:16.592:1,-0.27,0.765
00:42:16.596:1,-0.25,0.765
00:42:16.600:1,-0.22,0.77
00:42:16.604:1,-0.145,0.75
00:42:16.608:1,-0.065,0.755
00:42:16.612:1,0.025,0.71
00:42:16.616:1,0.11,0.665
00:42:16.620:1,0.145,0.625
00:42:16.624:1,0.185,0.58
00:42:16.628:1,0.225,0.57
00:42:16.632:1,0.215,0.57
00:42:16.636:1,0.18,0.53
00:42:16.640:1,0.275,0.395
00:42:16.644:1,0.475,0.235
00:42:16.648:1,0.785,0.0
00:42:16.652:1,1.04,-0.33
00:42:16.656:1,1.225,-0.615
00:42:16.660:1,1.205,-0.725
00:42:16.664:1,0.87,-0.56
00:42:16.668:1,0.37,-0.23
00:42:16.672:1,-0.04,0.115
00:42:16.676:1,-0.24,0.365
00:42:16.680:1,-0.32,0.495
00:42:16.684:1,-0.385,0.535
00:42:16.688:1,-0.425,0.565
00:42:16.692:1,-0.47,0.585
00:42:16.696:1,-0.465,0.58
00:42:16.700:1,-0.485,0.55
00:42:16.704:1,-0.52,0.535
00:42:16.708:1,-0.545,0.525
00:42:16.712:1,-0.54,0.505
00:42:16.716:1,-0.555,0.46
00:42:16.720:1,-0.56,0.41
00:42:16.724:1,-0.54,0.42
00:42:16.728:1,-0.545,0.38
00:42:16.732:1,-0.54,0.35
00:42:16.736:1,-0.54,0.335
00:42:16.740:1,-0.555,0.29
00:42:16.744:1,-0.545,0.285
00:42:16.748:1,-0.54,0.275
00:42:16.752:1,-0.52,0.22
00:42:16.756:1,-0.53,0.225
00:42:16.760:1,-0.515,0.185
00:42:16.764:1,-0.545,0.155
00:42:16.768:1,-0.555,0.155
00:42:16.772:1,-0.565,0.125
00:42:16.776:1,-0.555,0.105
00:42:16.780:1,-0.53,0.075
00:42:16.784:1,-0.52,0.035
00:42:16.788:1,-0.51,0.0
00:42:16.792:1,-0.49,-0.02
00:42:16.796:1,-0.485,-0.05
00:42:16.800:1,-0.485,-0.085
00:42:16.804:1,-0.475,-0.135
00:42:16.808:1,-0.485,-0.15
00:42:16.812:1,-0.475,-0.195
00:42:16.816:1,-0.46,-0.26
00:42:16.820:1,-0.46,-0.28
00:42:16.824:1,-0.455,-0.355
00:42:16.828:1,-0.425,-0.395
00:42:16.832:1,-0.43,-0.47
00:42:16.836:1,-0.43,-0.49
00:42:16.840:1,-0.4,-0.54
00:42:16.844:1,-0.38,-0.605
00:42:16.848:1,-0.375,-0.655
00:42:16.852:1,-0.355,-0.68
00:42:16.856:1,-0.33,-0.73
00:42:16.860:1,-0.34,-0.76
00:42:16.864:1,-0.33,-0.82
00:42:16.868:1,-0.34,-0.855
00:42:16.872:1,-0.33,-0.91
00:42:16.876:1,-0.335,-0.96
00:42:16.880:1,-0.325,-1.01
00:42:16.884:1,-0.31,-1.07
00:42:16.888:1,-0.315,-1.1
00:42:16.892:1,-0.31,-1.145
00:42:16.896:1,-0.295,-1.195
00:42:16.900:1,-0.29,-1.21
00:42:16.904:1,-0.305,-1.27
00:42:16.908:1,-0.3,-1.29
00:42:16.912:1,-0.305,-1.31
00:42:16.916:1,-0.31,-1.375
00:42:16.920:1,-0.32,-1.41
00:42:16.924:1,-0.33,-1.455
00:42:16.928:1,-0.35,-1.505
00:42:16.932:1,-0.39,-1.54
00:42:16.936:1,-0.39,-1.585
00:42:16.940:1,-0.405,-1.64
00:42:16.944:1,-0.405,-1.69
00:42:16.948:1,-0.42,-1.75
00:42:16.952:1,-0.445,-1.78
00:42:16.956:1,-0.44,-1.805
00:42:16.960:1,-0.42,-1.86
00:42:16.964:1,-0.42,-1.935
00:42:16.968:1,-0.425,-1.985
00:42:16.972:1,-0.39,-2.02
00:42:16.976:1,-0.385,-2.07
00:42:16.980:1,-0.37,-2.115
00:42:16.984:1,-0.375,-2.15
00:42:16.988:1,-0.37,-2.195
00:42:16.992:1,-0.355,-2.255
00:42:16.996:1,-0.355,-2.295
00:42:17.000:1,-0.345,-2.32
00:42:17.004:1,-0.34,-2.37
00:42:17.008:1,-0.335,-2.415
00:42:17.012:1,-0.345,-2.43
00:42:17.016:1,-0.325,-2.455
00:42:17.020:1,-0.325,-2.505
00:42:17.024:1,-0.305,-2.535
00:42:17.028:1,-0.29,-2.585
00:42:17.032:1,-0.265,-2.6
00:42:17.036:1,-0.25,-2.615
00:42:17.040:1,-0.235,-2.685
00:42:17.044:1,-0.27,-2.695
00:42:17.048:1,-0.28,-2.725
00:42:17.052:1,-0.25,-2.74
00:42:17.056:1,-0.225,-2.765
00:42:17.060:1,-0.22,-2.76
00:42:17.064:1,-0.195,-2.76
00:42:17.068:1,-0.195,-2.75
00:42:17.072:1,-0.195,-2.75
00:42:17.076:1,-0.195,-2.785
00:42:17.080:1,-0.19,-2.76
00:42:17.084:1,-0.17,-2.775
00:42:17.088:1,-0.155,-2.78
00:42:17.092:1,-0.135,-2.78
00:42:17.096:1,-0.16,-2.79
00:42:17.100:1,-0.17,-2.795
00:42:17.104:1,-0.18,-2.815
00:42:17.108:1,-0.19,-2.82
00:42:17.112:1,-0.195,-2.805
00:42:17.116:1,-0.21,-2.82
00:42:17.120:1,-0.225,-2.82
00:42:17.124:1,-0.205,-2.83
00:42:17.128:1,-0.215,-2.845
00:42:17.132:1,-0.24,-2.83
00:42:17.136:1,-0.25,-2.845
00:42:17.140:1,-0.26,-2.87
00:42:17.144:1,-0.27,-2.865
00:42:17.148:1,-0.305,-2.88
00:42:17.152:1,-0.33,-2.9
00:42:17.156:1,-0.375,-2.89
00:42:17.160:1,-0.395,-2.93
00:42:17.164:1,-0.41,-2.915
00:42:17.168:1,-0.42,-2.94
00:42:17.172:1,-0.425,-2.935
00:42:17.176:1,-0.44,-2.92
00:42:17.180:1,-0.475,-2.915
00:42:17.184:1,-0.475,-2.935
00:42:17.188:1,-0.48,-2.915
00:42:17.192:1,-0.5,-2.915
00:42:17.196:1,-0.47,-2.925
00:42:17.200:1,-0.455,-2.945
00:42:17.204:1,-0.42,-2.94
00:42:17.208:1,-0.385,-2.95
00:42:17.212:1,-0.355,-2.975
00:42:17.216:1,-0.37,-2.98
00:42:17.220:1,-0.385,-2.975
00:42:17.224:1,-0.365,-2.99
00:42:17.228:1,-0.395,-3.0
00:42:17.232:1,-0.365,-2.995
00:42:17.236:1,-0.36,-2.995
00:42:17.240:1,-0.34,-3.005
00:42:17.244:1,-0.32,-2.99
00:42:17.248:1,-0.33,-2.965
00:42:17.252:1,-0.315,-2.98
00:42:17.256:1,-0.305,-2.995
00:42:17.260:1,-0.295,-3.0
00:42:17.264:1,-0.285,-3.025
00:42:17.268:1,-0.3,-2.985
00:42:17.272:1,-0.295,-2.985
00:42:17.276:1,-0.27,-3.0
00:42:17.280:1,-0.25,-2.995
00:42:17.284:1,-0.25,-2.985
00:42:17.288:1,-0.21,-2.97
00:42:17.292:1,-0.195,-2.95
00:42:17.296:1,-0.195,-2.955
00:42:17.300:1,-0.19,-2.965
00:42:17.304:1,-0.185,-2.965
00:42:17.308:1,-0.16,-2.94
00:42:17.312:1,-0.085,-2.95
00:42:17.316:1,-0.025,-2.96
00:42:17.320:1,0.065,-2.945
00:42:17.324:1,0.145,-2.925
00:42:17.328:1,0.23,-2.945
00:42:17.332:1,0.26,-2.945
00:42:17.336:1,0.28,-2.98
00:42:17.340:1,0.285,-2.975
00:42:17.344:1,0.29,-2.945
00:42:17.348:1,0.24,-2.975
00:42:17.352:1,0.23,-3.02
00:42:17.356:1,0.32,-3.095
00:42:17.360:1,0.575,-3.2
00:42:17.364:1,0.86,-3.325
00:42:17.368:1,1.135,-3.435
00:42:17.372:1,1.27,-3.48
00:42:17.376:1,1.16,-3.48
00:42:17.380:1,0.76,-3.455
00:42:17.384:1,0.26,-3.3
00:42:17.388:1,-0.105,-3.075
00:42:17.392:1,-0.265,-2.97
00:42:17.396:1,-0.36,-2.845
00:42:17.400:1,-0.44,-2.83
00:42:17.404:1,-0.48,-2.815
00:42:17.408:1,-0.52,-2.815
00:42:17.412:1,-0.56,-2.795
00:42:17.416:1,-0.575,-2.79
00:42:17.420:1,-0.585,-2.815
00:42:17.424:1,-0.61,-2.835
00:42:17.428:1,-0.59,-2.825
00:42:17.432:1,-0.56,-2.84
00:42:17.436:1,-0.57,-2.85
00:42:17.440:1,-0.57,-2.85
00:42:17.444:1,-0.535,-2.885
00:42:17.448:1,-0.53,-2.865
00:42:17.452:1,-0.53,-2.87
00:42:17.456:1,-0.535,-2.855
00:42:17.460:1,-0.545,-2.86
00:42:17.464:1,-0.53,-2.89
00:42:17.468:1,-0.565,-2.86
00:42:17.472:1,-0.53,-2.855
00:42:17.476:1,-0.535,-2.86
00:42:17.480:1,-0.485,-2.875
00:42:17.484:1,-0.495,-2.875
00:42:17.488:1,-0.475,-2.865
00:42:17.492:1,-0.47,-2.875
00:42:17.496:1,-0.475,-2.875
00:42:17.500:1,-0.47,-2.87
00:42:17.504:1,-0.455,-2.855
00:42:17.508:1,-0.425,-2.86
00:42:17.512:1,-0.42,-2.855
00:42:17.516:1,-0.415,-2.835
00:42:17.520:1,-0.4,-2.845
00:42:17.524:1,-0.38,-2.81
00:42:17.528:1,-0.345,-2.82
00:42:17.532:1,-0.32,-2.82
00:42:17.536:1,-0.29,-2.8
00:42:17.540:1,-0.265,-2.795
00:42:17.544:1,-0.25,-2.785
00:42:17.548:1,-0.265,-2.81
00:42:17.552:1,-0.265,-2.805
00:42:17.556:1,-0.265,-2.79
00:42:17.560:1,-0.24,-2.77
00:42:17.564:1,-0.26,-2.755
00:42:17.568:1,-0.26,-2.735
00:42:17.572:1,-0.245,-2.76
00:42:17.576:1,-0.25,-2.79
00:42:17.580:1,-0.265,-2.76
00:42:17.584:1,-0.27,-2.775
00:42:17.588:1,-0.315,-2.77
00:42:17.592:1,-0.34,-2.78
00:42:17.596:1,-0.325,-2.78
00:42:17.600:1,-0.315,-2.8
00:42:17.604:1,-0.33,-2.795
00:42:17.608:1,-0.33,-2.785
00:42:17.612:1,-0.355,-2.795
00:42:17.616:1,-0.38,-2.81
00:42:17.620:1,-0.405,-2.795
00:42:17.624:1,-0.39,-2.785
00:42:17.628:1,-0.41,-2.8
00:42:17.632:1,-0.41,-2.765
00:42:17.636:1,-0.405,-2.79
00:42:17.640:1,-0.39,-2.765
00:42:17.644:1,-0.395,-2.765
00:42:17.648:1,-0.385,-2.77
00:42:17.652:1,-0.39,-2.765
00:42:17.656:1,-0.375,-2.74
00:42:17.660:1,-0.37,-2.73
00:42:17.664:1,-0.37,-2.72
00:42:17.668:1,-0.35,-2.695
00:42:17.672:1,-0.31,-2.715
00:42:17.676:1,-0.31,-2.705
00:42:17.680:1,-0.305,-2.635
00:42:17.684:1,-0.295,-2.605
00:42:17.688:1,-0.28,-2.575
00:42:17.692:1,-0.27,-2.55
00:42:17.696:1,-0.285,-2.495
00:42:17.700:1,-0.28,-2.495
00:42:17.704:1,-0.3,-2.49
00:42:17.708:1,-0.33,-2.46
00:42:17.712:1,-0.315,-2.435
00:42:17.716:1,-0.31,-2.365
00:42:17.720:1,-0.295,-2.335
00:42:17.724:1,-0.305,-2.325
00:42:17.728:1,-0.32,-2.335
00:42:17.732:1,-0.335,-2.355
00:42:17.736:1,-0.31,-2.365
00:42:17.740:1,-0.3,-2.36
00:42:17.744:1,-0.27,-2.36
00:42:17.748:1,-0.265,-2.355
00:42:17.752:1,-0.24,-2.35
00:42:17.756:1,-0.23,-2.295
00:42:17.760:1,-0.2,-2.275
00:42:17.764:1,-0.185,-2.25
00:42:17.768:1,-0.185,-2.23
00:42:17.772:1,-0.175,-2.195
00:42:17.776:1,-0.18,-2.17
00:42:17.780:1,-0.155,-2.165
00:42:17.784:1,-0.165,-2.125
00:42:17.788:1,-0.19,-2.11
00:42:17.792:1,-0.19,-2.105
00:42:17.796:1,-0.205,-2.1
00:42:17.800:1,-0.21,-2.145
00:42:17.804:1,-0.25,-2.13
00:42:17.808:1,-0.265,-2.13
00:42:17.812:1,-0.27,-2.145
00:42:17.816:1,-0.275,-2.125
00:42:17.820:1,-0.265,-2.12
00:42:17.824:1,-0.26,-2.12
00:42:17.828:1,-0.25,-2.1
00:42:17.832:1,-0.205,-2.095
00:42:17.836:1,-0.125,-2.095
00:42:17.840:1,-0.04,-2.09
00:42:17.844:1,0.02,-2.07
00:42:17.848:1,0.09,-2.095
00:42:17.852:1,0.12,-2.12
00:42:17.856:1,0.165,-2.11
00:42:17.860:1,0.16,-2.08
00:42:17.864:1,0.125,-2.095
00:42:17.868:1,0.14,-2.135
00:42:17.872:1,0.275,-2.245
00:42:17.876:1,0.53,-2.42
00:42:17.880:1,0.81,-2.7
00:42:17.884:1,1.0,-2.905
00:42:17.888:1,0.93,-3.015
00:42:17.892:1,0.59,-2.97
00:42:17.896:1,0.16,-2.675
00:42:17.900:1,-0.16,-2.34
00:42:17.904:1,-0.32,-2.15
00:42:17.908:1,-0.415,-2.03
00:42:17.912:1,-0.45,-1.91
00:42:17.916:1,-0.485,-1.875
00:42:17.920:1,-0.49,-1.865
00:42:17.924:1,-0.505,-1.87
00:42:17.928:1,-0.51,-1.865
00:42:17.932:1,-0.51,-1.865
00:42:17.936:1,-0.515,-1.855
00:42:17.940:1,-0.485,-1.83
00:42:17.944:1,-0.47,-1.865
00:42:17.948:1,-0.495,-1.85
00:42:17.952:1,-0.49,-1.875
00:42:17.956:1,-0.49,-1.86
00:42:17.960:1,-0.51,-1.895
00:42:17.964:1,-0.545,-1.89
00:42:17.968:1,-0.545,-1.895
00:42:17.972:1,-0.53,-1.89
00:42:17.976:1,-0.5,-1.895
00:42:17.980:1,-0.465,-1.885
00:42:17.984:1,-0.44,-1.88
00:42:17.988:1,-0.405,-1.875
00:42:17.992:1,-0.385,-1.86
00:42:17.996:1,-0.42,-1.84
00:42:18.000:1,-0.42,-1.83
00:42:18.004:1,-0.41,-1.82
00:42:18.008:1,-0.4,-1.82
00:42:18.012:1,-0.4,-1.775
00:42:18.016:1,-0.4,-1.8
00:42:18.020:1,-0.42,-1.795
00:42:18.024:1,-0.415,-1.765
00:42:18.028:1,-0.42,-1.75
00:42:18.032:1,-0.44,-1.73
00:42:18.036:1,-0.415,-1.74
00:42:18.040:1,-0.435,-1.755
00:42:18.044:1,-0.46,-1.76
00:42:18.048:1,-0.51,-1.75
00:42:18.052:1,-0.56,-1.74
00:42:18.056:1,-0.56,-1.735
00:42:18.060:1,-0.52,-1.73
00:42:18.064:1,-0.49,-1.745
00:42:18.068:1,-0.48,-1.74
00:42:18.072:1,-0.495,-1.73
00:42:18.076:1,-0.51,-1.71
00:42:18.080:1,-0.495,-1.7
00:42:18.084:1,-0.48,-1.705
00:42:18.088:1,-0.475,-1.695
00:42:18.092:1,-0.485,-1.715
00:42:18.096:1,-0.49,-1.69
00:42:18.100:1,-0.465,-1.695
00:42:18.104:1,-0.465,-1.665
00:42:18.108:1,-0.45,-1.665
00:42:18.112:1,-0.47,-1.645
00:42:18.116:1,-0.475,-1.64
00:42:18.120:1,-0.48,-1.605
00:42:18.124:1,-0.475,-1.625
00:42:18.128:1,-0.45,-1.65
00:42:18.132:1,-0.465,-1.635
00:42:18.136:1,-0.45,-1.615
00:42:18.140:1,-0.445,-1.63
00:42:18.144:1,-0.405,-1.6
00:42:18.148:1,-0.365,-1.585
00:42:18.152:1,-0.37,-1.58
00:42:18.156:1,-0.38,-1.595
00:42:18.160:1,-0.385,-1.57
00:42:18.164:1,-0.395,-1.55
00:42:18.168:1,-0.375,-1.53
00:42:18.172:1,-0.375,-1.53
00:42:18.176:1,-0.375,-1.5
00:42:18.180:1,-0.395,-1.49
00:42:18.184:1,-0.36,-1.465
00:42:18.188:1,-0.345,-1.45
00:42:18.192:1,-0.34,-1.43
00:42:18.196:1,-0.305,-1.45
00:42:18.200:1,-0.28,-1.43
00:42:18.204:1,-0.27,-1.44
00:42:18.208:1,-0.26,-1.405
00:42:18.212:1,-0.25,-1.4
00:42:18.216:1,-0.225,-1.39
00:42:18.220:1,-0.25,-1.39
00:42:18.224:1,-0.23,-1.415
00:42:18.228:1,-0.21,-1.425
00:42:18.232:1,-0.16,-1.41
00:42:18.236:1,-0.15,-1.395
00:42:18.240:1,-0.155,-1.385
00:42:18.244:1,-0.14,-1.385
00:42:18.248:1,-0.1,-1.39
00:42:18.252:1,-0.05,-1.395
00:42:18.256:1,0.02,-1.39
00:42:18.260:1,0.075,-1.385
00:42:18.264:1,0.15,-1.385
00:42:18.268:1,0.19,-1.435
00:42:18.272:1,0.225,-1.445
00:42:18.276:1,0.29,-1.455
00:42:18.280:1,0.31,-1.42
00:42:18.284:1,0.265,-1.43
00:42:18.288:1,0.32,-1.485
00:42:18.292:1,0.505,-1.585
00:42:18.296:1,0.755,-1.79
00:42:18.300:1,1.01,-2.06
00:42:18.304:1,1.125,-2.265
00:42:18.308:1,1.01,-2.39
00:42:18.312:1,0.645,-2.285
00:42:18.316:1,0.215,-1.925
00:42:18.320:1,-0.1,-1.6
00:42:18.324:1,-0.27,-1.425
00:42:18.328:1,-0.365,-1.31
00:42:18.332:1,-0.38,-1.21
00:42:18.336:1,-0.43,-1.16
00:42:18.340:1,-0.47,-1.115
00:42:18.344:1,-0.49,-1.13
00:42:18.348:1,-0.525,-1.09
00:42:18.352:1,-0.555,-1.115
00:42:18.356:1,-0.575,-1.115
00:42:18.360:1,-0.56,-1.12
00:42:18.364:1,-0.57,-1.165
00:42:18.368:1,-0.6,-1.145
00:42:18.372:1,-0.615,-1.155
00:42:18.376:1,-0.615,-1.14
00:42:18.380:1,-0.605,-1.115
00:42:18.384:1,-0.6,-1.135
00:42:18.388:1,-0.6,-1.13
00:42:18.392:1,-0.61,-1.11
00:42:18.396:1,-0.61,-1.1
00:42:18.400:1,-0.63,-1.105
00:42:18.404:1,-0.625,-1.095
00:42:18.408:1,-0.62,-1.095
00:42:18.412:1,-0.64,-1.09
00:42:18.416:1,-0.58,-1.08
00:42:18.420:1,-0.59,-1.08
00:42:18.424:1,-0.585,-1.085
00:42:18.428:1,-0.635,-1.095
00:42:18.432:1,-0.635,-1.085
00:42:18.436:1,-0.635,-1.085
00:42:18.440:1,-0.65,-1.055
00:42:18.444:1,-0.67,-1.065
00:42:18.448:1,-0.66,-1.035
00:42:18.452:1,-0.665,-1.045
00:42:18.456:1,-0.665,-1.02
00:42:18.460:1,-0.64,-1.01
00:42:18.464:1,-0.62,-0.985
00:42:18.468:1,-0.595,-0.975
00:42:18.472:1,-0.57,-0.96
00:42:18.476:1,-0.54,-0.97
00:42:18.480:1,-0.475,-0.94
00:42:18.484:1,-0.445,-0.96
00:42:18.488:1,-0.42,-0.915
00:42:18.492:1,-0.42,-0.895
00:42:18.496:1,-0.39,-0.905
00:42:18.500:1,-0.41,-0.875
00:42:18.504:1,-0.405,-0.915
00:42:18.508:1,-0.435,-0.9
00:42:18.512:1,-0.445,-0.905
00:42:18.516:1,-0.435,-0.905
00:42:18.520:1,-0.44,-0.925
00:42:18.524:1,-0.42,-0.905
00:42:18.528:1,-0.4,-0.92
00:42:18.532:1,-0.405,-0.905
00:42:18.536:1,-0.405,-0.89
00:42:18.540:1,-0.39,-0.905
00:42:18.544:1,-0.385,-0.87
00:42:18.548:1,-0.395,-0.875
00:42:18.552:1,-0.38,-0.86
00:42:18.556:1,-0.38,-0.85
00:42:18.560:1,-0.36,-0.85
00:42:18.564:1,-0.36,-0.85
00:42:18.568:1,-0.395,-0.835
00:42:18.572:1,-0.415,-0.83
00:42:18.576:1,-0.445,-0.83
00:42:18.580:1,-0.455,-0.825
00:42:18.584:1,-0.45,-0.81
00:42:18.588:1,-0.42,-0.815
00:42:18.592:1,-0.415,-0.81
00:42:18.596:1,-0.42,-0.78
00:42:18.600:1,-0.43,-0.77
00:42:18.604:1,-0.43,-0.775
00:42:18.608:1,-0.44,-0.77
00:42:18.612:1,-0.43,-0.76
00:42:18.616:1,-0.44,-0.77
00:42:18.620:1,-0.43,-0.76
00:42:18.624:1,-0.405,-0.745
00:42:18.628:1,-0.41,-0.75
00:42:18.632:1,-0.385,-0.745
00:42:18.636:1,-0.39,-0.73
00:42:18.640:1,-0.41,-0.73
00:42:18.644:1,-0.4,-0.735
00:42:18.648:1,-0.42,-0.7
00:42:18.652:1,-0.39,-0.705
00:42:18.656:1,-0.395,-0.69
00:42:18.660:1,-0.42,-0.7
00:42:18.664:1,-0.42,-0.68
00:42:18.668:1,-0.43,-0.67
00:42:18.672:1,-0.43,-0.665
00:42:18.676:1,-0.415,-0.665
00:42:18.680:1,-0.405,-0.66
00:42:18.684:1,-0.44,-0.65
00:42:18.688:1,-0.43,-0.66
00:42:18.692:1,-0.425,-0.625
00:42:18.696:1,-0.405,-0.655
00:42:18.700:1,-0.4,-0.62
00:42:18.704:1,-0.39,-0.61
00:42:18.708:1,-0.4,-0.61
00:42:18.712:1,-0.4,-0.625
00:42:18.716:1,-0.385,-0.635
00:42:18.720:1,-0.36,-0.645
00:42:18.724:1,-0.35,-0.63
00:42:18.728:1,-0.305,-0.575
00:42:18.732:1,-0.255,-0.565
00:42:18.736:1,-0.23,-0.56
00:42:18.740:1,-0.23,-0.535
00:42:18.744:1,-0.2,-0.495
00:42:18.748:1,-0.19,-0.45
00:42:18.752:1,-0.195,-0.42
00:42:18.756:1,-0.18,-0.4
00:42:18.760:1,-0.185,-0.39
00:42:18.764:1,-0.215,-0.4
00:42:18.768:1,-0.24,-0.375
00:42:18.772:1,-0.24,-0.35
00:42:18.776:1,-0.23,-0.335
00:42:18.780:1,-0.24,-0.345
00:42:18.784:1,-0.265,-0.36
00:42:18.788:1,-0.27,-0.37
00:42:18.792:1,-0.28,-0.36
00:42:18.796:1,-0.285,-0.39
00:42:18.800:1,-0.275,-0.37
00:42:18.804:1,-0.24,-0.385
00:42:18.808:1,-0.18,-0.35
00:42:18.812:1,-0.09,-0.34
00:42:18.816:1,-0.01,-0.36
00:42:18.820:1,0.05,-0.38
00:42:18.824:1,0.095,-0.395
00:42:18.828:1,0.13,-0.435
00:42:18.832:1,0.165,-0.395
00:42:18.836:1,0.2,-0.42
00:42:18.840:1,0.18,-0.45
00:42:18.844:1,0.19,-0.51
00:42:18.848:1,0.295,-0.625
00:42:18.852:1,0.525,-0.83
00:42:18.856:1,0.795,-1.04
00:42:18.860:1,1.04,-1.34
00:42:18.864:1,1.1,-1.52
00:42:18.868:1,0.87,-1.53
00:42:18.872:1,0.41,-1.28
00:42:18.876:1,-0.02,-0.895
00:42:18.880:1,-0.32,-0.565
00:42:18.884:1,-0.415,-0.385
00:42:18.888:1,-0.445,-0.255
00:42:18.892:1,-0.47,-0.15
00:42:18.896:1,-0.48,-0.1
00:42:18.900:1,-0.515,-0.05
00:42:18.904:1,-0.555,-0.04
00:42:18.908:1,-0.555,-0.045
00:42:18.912:1,-0.565,-0.05
00:42:18.916:1,-0.55,-0.04
00:42:18.920:1,-0.55,-0.07
00:42:18.924:1,-0.55,-0.065
00:42:18.928:1,-0.565,-0.07
00:42:18.932:1,-0.585,-0.05
00:42:18.936:1,-0.57,-0.02
00:42:18.940:1,-0.57,-0.02
00:42:18.944:1,-0.595,-0.01
00:42:18.948:1,-0.59,-0.005
00:42:18.952:1,-0.56,0.025
00:42:18.956:1,-0.545,0.04
00:42:18.960:1,-0.53,0.065
00:42:18.964:1,-0.55,0.04
00:42:18.968:1,-0.55,0.07
00:42:18.972:1,-0.53,0.08
00:42:18.976:1,-0.52,0.085
00:42:18.980:1,-0.5,0.115
00:42:18.984:1,-0.46,0.14
00:42:18.988:1,-0.45,0.14
00:42:18.992:1,-0.43,0.155
00:42:18.996:1,-0.4,0.155
00:42:19.000:1,-0.4,0.17
00:42:19.004:1,-0.425,0.22
00:42:19.008:1,-0.46,0.23
00:42:19.012:1,-0.48,0.23
00:42:19.016:1,-0.47,0.26
00:42:19.020:1,-0.47,0.265
00:42:19.024:1,-0.47,0.265
00:42:19.028:1,-0.5,0.285
00:42:19.032:1,-0.49,0.305
00:42:19.036:1,-0.505,0.31
00:42:19.040:1,-0.5,0.33
00:42:19.044:1,-0.495,0.27
00:42:19.048:1,-0.48,0.2
00:42:19.052:1,-0.49,0.16
00:42:19.056:1,-0.51,0.135
00:42:19.060:1,-0.485,0.115
00:42:19.064:1,-0.475,0.06
00:42:19.068:1,-0.46,0.065
00:42:19.072:1,-0.47,0.06
00:42:19.076:1,-0.445,0.03
00:42:19.080:1,-0.46,0.035
00:42:19.084:1,-0.48,0.02
00:42:19.088:1,-0.435,0.0
00:42:19.092:1,-0.435,-0.01
00:42:19.096:1,-0.415,-0.02
00:42:19.100:1,-0.42,-0.035
00:42:19.104:1,-0.39,-0.08
00:42:19.108:1,-0.415,-0.075
00:42:19.112:1,-0.405,-0.095
00:42:19.116:1,-0.44,-0.12
00:42:19.120:1,-0.41,-0.16
00:42:19.124:1,-0.38,-0.155
00:42:19.128:1,-0.385,-0.185
00:42:19.132:1,-0.38,-0.21
00:42:19.136:1,-0.405,-0.245
00:42:19.140:1,-0.38,-0.235
00:42:19.144:1,-0.4,-0.2
00:42:19.148:1,-0.4,-0.2
00:42:19.152:1,-0.38,-0.2
00:42:19.156:1,-0.36,-0.2
00:42:19.160:1,-0.365,-0.19
00:42:19.164:1,-0.37,-0.175
00:42:19.168:1,-0.365,-0.175
00:42:19.172:1,-0.365,-0.18
00:42:19.176:1,-0.36,-0.145
00:42:19.180:1,-0.35,-0.145
00:42:19.184:1,-0.35,-0.13
00:42:19.188:1,-0.37,-0.12
00:42:19.192:1,-0.38,-0.105
00:42:19.196:1,-0.345,-0.09
00:42:19.200:1,-0.35,-0.09
00:42:19.204:1,-0.36,-0.075
00:42:19.208:1,-0.345,-0.05
00:42:19.212:1,-0.36,-0.05
00:42:19.216:1,-0.35,-0.035
00:42:19.220:1,-0.345,-0.025
00:42:19.224:1,-0.34,0.005
00:42:19.228:1,-0.325,0.01
00:42:19.232:1,-0.285,0.04
00:42:19.236:1,-0.25,0.04
00:42:19.240:1,-0.245,0.035
00:42:19.244:1,-0.245,0.055
00:42:19.248:1,-0.235,0.05
00:42:19.252:1,-0.24,0.075
00:42:19.256:1,-0.25,0.07
00:42:19.260:1,-0.265,0.09
00:42:19.264:1,-0.295,0.11
00:42:19.268:1,-0.32,0.1
00:42:19.272:1,-0.34,0.125
00:42:19.276:1,-0.35,0.135
00:42:19.280:1,-0.355,0.135
00:42:19.284:1,-0.355,0.165
00:42:19.288:1,-0.34,0.195
00:42:19.292:1,-0.33,0.2
00:42:19.296:1,-0.32,0.22
00:42:19.300:1,-0.325,0.235
00:42:19.304:1,-0.32,0.25
00:42:19.308:1,-0.31,0.255
00:42:19.312:1,-0.29,0.245
00:42:19.316:1,-0.295,0.27
00:42:19.320:1,-0.305,0.27
00:42:19.324:1,-0.31,0.27
00:42:19.328:1,-0.31,0.285
00:42:19.332:1,-0.26,0.295
00:42:19.336:1,-0.23,0.31
00:42:19.340:1,-0.15,0.31
00:42:19.344:1,-0.05,0.3
00:42:19.348:1,0.035,0.345
00:42:19.352:1,0.105,0.32
00:42:19.356:1,0.125,0.325
00:42:19.360:1,0.11,0.295
00:42:19.364:1,0.095,0.31
00:42:19.368:1,0.05,0.29
00:42:19.372:1,0.07,0.235
00:42:19.376:1,0.195,0.105
00:42:19.380:1,0.43,-0.05
00:42:19.384:1,0.705,-0.3
00:42:19.388:1,0.94,-0.555
00:42:19.392:1,1.03,-0.775
00:42:19.396:1,0.865,-0.8
00:42:19.400:1,0.465,-0.57
00:42:19.404:1,-0.01,-0.165
00:42:19.408:1,-0.295,0.18
00:42:19.412:1,-0.385,0.395
00:42:19.416:1,-0.445,0.51
00:42:19.420:1,-0.505,0.595
00:42:19.424:1,-0.515,0.655
00:42:19.428:1,-0.535,0.7
00:42:19.432:1,-0.535,0.745
00:42:19.436:1,-0.565,0.725
00:42:19.440:1,-0.6,0.73
00:42:19.444:1,-0.595,0.71
00:42:19.448:1,-0.6,0.695
00:42:19.452:1,-0.585,0.705
00:42:19.456:1,-0.595,0.69
00:42:19.460:1,-0.62,0.695
00:42:19.464:1,-0.6,0.7
00:42:19.468:1,-0.585,0.68
00:42:19.472:1,-0.56,0.705
00:42:19.476:1,-0.56,0.72
00:42:19.480:1,-0.535,0.71
00:42:19.484:1,-0.525,0.725
00:42:19.488:1,-0.475,0.735
00:42:19.492:1,-0.465,0.75
00:42:19.496:1,-0.44,0.76
00:42:19.500:1,-0.435,0.775
00:42:19.504:1,-0.425,0.795
00:42:19.508:1,-0.44,0.805
00:42:19.512:1,-0.45,0.81
00:42:19.516:1,-0.5,0.825
00:42:19.520:1,-0.52,0.775
00:42:19.524:1,-0.58,0.81
00:42:19.528:1,-0.585,0.79
00:42:19.532:1,-0.63,0.795
00:42:19.536:1,-0.635,0.805
00:42:19.540:1,-0.625,0.79
00:42:19.544:1,-0.63,0.795
00:42:19.548:1,-0.6,0.775
00:42:19.552:1,-0.55,0.775
00:42:19.556:1,-0.53,0.755
00:42:19.560:1,-0.5,0.73
00:42:19.564:1,-0.54,0.73
00:42:19.568:1,-0.53,0.69
00:42:19.572:1,-0.525,0.68
00:42:19.576:1,-0.51,0.655
00:42:19.580:1,-0.525,0.67
00:42:19.584:1,-0.515,0.645
00:42:19.588:1,-0.495,0.61
00:42:19.592:1,-0.45,0.59
00:42:19.596:1,-0.45,0.59
00:42:19.600:1,-0.435,0.575
00:42:19.604:1,-0.44,0.56
00:42:19.608:1,-0.455,0.56
00:42:19.612:1,-0.455,0.535
00:42:19.616:1,-0.435,0.54
00:42:19.620:1,-0.43,0.545
00:42:19.624:1,-0.455,0.53
00:42:19.628:1,-0.445,0.54
00:42:19.632:1,-0.43,0.555
00:42:19.636:1,-0.43,0.535
00:42:19.640:1,-0.44,0.565
00:42:19.644:1,-0.445,0.55
00:42:19.648:1,-0.44,0.58
00:42:19.652:1,-0.42,0.57
00:42:19.656:1,-0.415,0.58
00:42:19.660:1,-0.415,0.58
00:42:19.664:1,-0.415,0.595
00:42:19.668:1,-0.415,0.61
00:42:19.672:1,-0.4,0.61
00:42:19.676:1,-0.41,0.625
00:42:19.680:1,-0.4,0.665
00:42:19.684:1,-0.4,0.695
00:42:19.688:1,-0.405,0.7
00:42:19.692:1,-0.395,0.74
00:42:19.696:1,-0.39,0.725
00:42:19.700:1,-0.385,0.755
00:42:19.704:1,-0.41,0.79
00:42:19.708:1,-0.395,0.79
00:42:19.712:1,-0.39,0.825
00:42:19.716:1,-0.385,0.85
00:42:19.720:1,-0.385,0.855
00:42:19.724:1,-0.37,0.885
00:42:19.728:1,-0.355,0.9
00:42:19.732:1,-0.32,0.945
00:42:19.736:1,-0.305,0.945
00:42:19.740:1,-0.265,0.96
00:42:19.744:1,-0.25,0.975
00:42:19.748:1,-0.25,0.98
00:42:19.752:1,-0.265,1.005
00:42:19.756:1,-0.265,1.03
00:42:19.760:1,-0.275,1.035
00:42:19.764:1,-0.295,1.06
00:42:19.768:1,-0.345,1.07
00:42:19.772:1,-0.38,1.095
00:42:19.776:1,-0.4,1.1
00:42:19.780:1,-0.4,1.125
00:42:19.784:1,-0.42,1.15
00:42:19.788:1,-0.425,1.15
00:42:19.792:1,-0.405,1.175
00:42:19.796:1,-0.405,1.19
00:42:19.800:1,-0.375,1.18
00:42:19.804:1,-0.345,1.185
00:42:19.808:1,-0.325,1.215
00:42:19.812:1,-0.31,1.195
00:42:19.816:1,-0.305,1.19
00:42:19.820:1,-0.315,1.19
00:42:19.824:1,-0.32,1.185
00:42:19.828:1,-0.305,1.165
00:42:19.832:1,-0.28,1.155
00:42:19.836:1,-0.245,1.18
00:42:19.840:1,-0.185,1.145
00:42:19.844:1,-0.105,1.16
00:42:19.848:1,-0.04,1.145
00:42:19.852:1,-0.005,1.12
00:42:19.856:1,0.02,1.08
00:42:19.860:1,0.03,1.065
00:42:19.864:1,0.0,1.085
00:42:19.868:1,-0.03,1.07
00:42:19.872:1,-0.04,1.005
00:42:19.876:1,0.045,0.92
00:42:19.880:1,0.305,0.78
00:42:19.884:1,0.585,0.535
00:42:19.888:1,0.835,0.28
00:42:19.892:1,0.965,0.03
00:42:19.896:1,0.83,-0.005
00:42:19.900:1,0.465,0.185
00:42:19.904:1,0.02,0.6
00:42:19.908:1,-0.265,0.98
00:42:19.912:1,-0.4,1.17
00:42:19.916:1,-0.48,1.31
00:42:19.920:1,-0.505,1.38
00:42:19.924:1,-0.525,1.445
00:42:19.928:1,-0.54,1.48
00:42:19.932:1,-0.565,1.455
00:42:19.936:1,-0.57,1.45
00:42:19.940:1,-0.575,1.425
00:42:19.944:1,-0.59,1.425
00:42:19.948:1,-0.58,1.425
00:42:19.952:1,-0.585,1.43
00:42:19.956:1,-0.595,1.43
00:42:19.960:1,-0.6,1.42
00:42:19.964:1,-0.6,1.445
00:42:19.968:1,-0.57,1.47
00:42:19.972:1,-0.55,1.485
00:42:19.976:1,-0.52,1.515
00:42:19.980:1,-0.51,1.54
00:42:19.984:1,-0.505,1.58
00:42:19.988:1,-0.51,1.57
00:42:19.992:1,-0.48,1.59
00:42:19.996:1,-0.48,1.6
00:42:20.000:1,-0.495,1.59
00:42:20.004:1,-0.5,1.59
00:42:20.008:1,-0.53,1.6
00:42:20.012:1,-0.555,1.6
00:42:20.016:1,-0.585,1.6
00:42:20.020:1,-0.62,1.565
00:42:20.024:1,-0.66,1.555
00:42:20.028:1,-0.66,1.545
00:42:20.032:1,-0.66,1.55
00:42:20.036:1,-0.675,1.535
00:42:20.040:1,-0.64,1.555
00:42:20.044:1,-0.63,1.51
00:42:20.048:1,-0.605,1.51
00:42:20.052:1,-0.585,1.49
00:42:20.056:1,-0.59,1.435
00:42:20.060:1,-0.59,1.44
00:42:20.064:1,-0.585,1.41
00:42:20.068:1,-0.595,1.415
00:42:20.072:1,-0.565,1.4
00:42:20.076:1,-0.555,1.37
00:42:20.080:1,-0.565,1.375
00:42:20.084:1,-0.56,1.35
00:42:20.088:1,-0.56,1.345
00:42:20.092:1,-0.54,1.335
00:42:20.096:1,-0.535,1.315
00:42:20.100:1,-0.53,1.32
00:42:20.104:1,-0.495,1.335
00:42:20.108:1,-0.51,1.325
00:42:20.112:1,-0.48,1.315
00:42:20.116:1,-0.455,1.32
00:42:20.120:1,-0.42,1.32
00:42:20.124:1,-0.425,1.325
00:42:20.128:1,-0.4,1.305
00:42:20.132:1,-0.38,1.315
00:42:20.136:1,-0.375,1.305
00:42:20.140:1,-0.37,1.31
00:42:20.144:1,-0.345,1.325
00:42:20.148:1,-0.365,1.33
00:42:20.152:1,-0.375,1.305
00:42:20.156:1,-0.38,1.31
00:42:20.160:1,-0.395,1.31
00:42:20.164:1,-0.41,1.325
00:42:20.168:1,-0.42,1.34
00:42:20.172:1,-0.4,1.335
00:42:20.176:1,-0.39,1.335
00:42:20.180:1,-0.395,1.33
00:42:20.184:1,-0.37,1.33
00:42:20.188:1,-0.38,1.345
00:42:20.192:1,-0.365,1.335
00:42:20.196:1,-0.37,1.34
00:42:20.200:1,-0.36,1.36
00:42:20.204:1,-0.34,1.37
00:42:20.208:1,-0.34,1.395
00:42:20.212:1,-0.33,1.405
00:42:20.216:1,-0.305,1.435
00:42:20.220:1,-0.26,1.44
00:42:20.224:1,-0.245,1.445
00:42:20.228:1,-0.255,1.445
00:42:20.232:1,-0.255,1.455
00:42:20.236:1,-0.255,1.465
00:42:20.240:1,-0.28,1.495
00:42:20.244:1,-0.3,1.5
00:42:20.248:1,-0.325,1.515
00:42:20.252:1,-0.355,1.49
00:42:20.256:1,-0.37,1.485
00:42:20.260:1,-0.405,1.495
00:42:20.264:1,-0.415,1.51
00:42:20.268:1,-0.44,1.485
00:42:20.272:1,-0.445,1.475
00:42:20.276:1,-0.475,1.485
00:42:20.280:1,-0.445,1.465
00:42:20.284:1,-0.415,1.445
00:42:20.288:1,-0.39,1.435
00:42:20.292:1,-0.375,1.425
00:42:20.296:1,-0.375,1.41
00:42:20.300:1,-0.365,1.37
00:42:20.304:1,-0.365,1.36
00:42:20.308:1,-0.345,1.345
00:42:20.312:1,-0.35,1.33
00:42:20.316:1,-0.38,1.315
00:42:20.320:1,-0.385,1.32
00:42:20.324:1,-0.36,1.3
00:42:20.328:1,-0.34,1.305
00:42:20.332:1,-0.325,1.32
00:42:20.336:1,-0.31,1.29
00:42:20.340:1,-0.235,1.31
00:42:20.344:1,-0.17,1.315
00:42:20.348:1,-0.07,1.285
00:42:20.352:1,-0.01,1.28
00:42:20.356:1,0.055,1.26
00:42:20.360:1,0.1,1.21
00:42:20.364:1,0.15,1.22
00:42:20.368:1,0.17,1.245
00:42:20.372:1,0.105,1.23
00:42:20.376:1,0.105,1.175
00:42:20.380:1,0.23,1.07
00:42:20.384:1,0.505,0.89
00:42:20.388:1,0.81,0.625
00:42:20.392:1,1.0,0.35
00:42:20.396:1,0.975,0.155
00:42:20.400:1,0.665,0.185
00:42:20.404:1,0.21,0.435
00:42:20.408:1,-0.155,0.795
00:42:20.412:1,-0.35,1.08
00:42:20.416:1,-0.44,1.265
00:42:20.420:1,-0.465,1.35
00:42:20.424:1,-0.495,1.42
00:42:20.428:1,-0.52,1.435
00:42:20.432:1,-0.535,1.45
00:42:20.436:1,-0.555,1.46
00:42:20.440:1,-0.595,1.43
00:42:20.444:1,-0.585,1.44
00:42:20.448:1,-0.58,1.425
00:42:20.452:1,-0.585,1.425
00:42:20.456:1,-0.555,1.43
00:42:20.460:1,-0.51,1.41
00:42:20.464:1,-0.495,1.41
00:42:20.468:1,-0.48,1.44
00:42:20.472:1,-0.49,1.465
00:42:20.476:1,-0.5,1.48
00:42:20.480:1,-0.51,1.5
00:42:20.484:1,-0.52,1.495
00:42:20.488:1,-0.535,1.525
00:42:20.492:1,-0.545,1.51
00:42:20.496:1,-0.6,1.53
00:42:20.500:1,-0.62,1.535
00:42:20.504:1,-0.625,1.53
00:42:20.508:1,-0.64,1.565
00:42:20.512:1,-0.635,1.565
00:42:20.516:1,-0.65,1.575
00:42:20.520:1,-0.635,1.57
00:42:20.524:1,-0.64,1.57
00:42:20.528:1,-0.595,1.575
00:42:20.532:1,-0.57,1.58
00:42:20.536:1,-0.565,1.565
00:42:20.540:1,-0.58,1.575
00:42:20.544:1,-0.59,1.55
00:42:20.548:1,-0.585,1.545
00:42:20.552:1,-0.585,1.505
00:42:20.556:1,-0.59,1.515
00:42:20.560:1,-0.6,1.51
00:42:20.564:1,-0.575,1.505
00:42:20.568:1,-0.56,1.485
00:42:20.572:1,-0.565,1.47
00:42:20.576:1,-0.55,1.455
00:42:20.580:1,-0.565,1.44
00:42:20.584:1,-0.54,1.46
00:42:20.588:1,-0.56,1.475
00:42:20.592:1,-0.545,1.465
00:42:20.596:1,-0.52,1.47
00:42:20.600:1,-0.505,1.44
00:42:20.604:1,-0.525,1.435
00:42:20.608:1,-0.525,1.425
00:42:20.612:1,-0.505,1.42
00:42:20.616:1,-0.49,1.46
00:42:20.620:1,-0.51,1.44
00:42:20.624:1,-0.49,1.43
00:42:20.628:1,-0.475,1.42
00:42:20.632:1,-0.445,1.43
00:42:20.636:1,-0.425,1.46
00:42:20.640:1,-0.41,1.44
00:42:20.644:1,-0.435,1.435
00:42:20.648:1,-0.43,1.425
00:42:20.652:1,-0.41,1.415
00:42:20.656:1,-0.425,1.42
00:42:20.660:1,-0.42,1.425
00:42:20.664:1,-0.425,1.42
00:42:20.668:1,-0.425,1.42
00:42:20.672:1,-0.39,1.425
00:42:20.676:1,-0.405,1.405
00:42:20.680:1,-0.405,1.4
00:42:20.684:1,-0.415,1.415
00:42:20.688:1,-0.435,1.41
00:42:20.692:1,-0.44,1.405
00:42:20.696:1,-0.42,1.41
00:42:20.700:1,-0.425,1.4
00:42:20.704:1,-0.4,1.41
00:42:20.708:1,-0.41,1.41
00:42:20.712:1,-0.38,1.405
00:42:20.716:1,-0.37,1.415
00:42:20.720:1,-0.355,1.445
00:42:20.724:1,-0.355,1.47
00:42:20.728:1,-0.35,1.485
00:42:20.732:1,-0.3,1.51
00:42:20.736:1,-0.305,1.515
00:42:20.740:1,-0.315,1.525
00:42:20.744:1,-0.35,1.535
00:42:20.748:1,-0.36,1.545
00:42:20.752:1,-0.405,1.55
00:42:20.756:1,-0.44,1.56
00:42:20.760:1,-0.425,1.57
00:42:20.764:1,-0.45,1.585
00:42:20.768:1,-0.47,1.585
00:42:20.772:1,-0.46,1.615
00:42:20.776:1,-0.435,1.57
00:42:20.780:1,-0.425,1.58
00:42:20.784:1,-0.455,1.56
00:42:20.788:1,-0.44,1.535
00:42:20.792:1,-0.445,1.52
00:42:20.796:1,-0.435,1.485
00:42:20.800:1,-0.42,1.485
00:42:20.804:1,-0.44,1.47
00:42:20.808:1,-0.435,1.48
00:42:20.812:1,-0.42,1.465
00:42:20.816:1,-0.42,1.43
00:42:20.820:1,-0.44,1.435
00:42:20.824:1,-0.435,1.44
00:42:20.828:1,-0.43,1.425
00:42:20.832:1,-0.4,1.45
00:42:20.836:1,-0.385,1.445
00:42:20.840:1,-0.385,1.455
00:42:20.844:1,-0.4,1.435
00:42:20.848:1,-0.395,1.43
00:42:20.852:1,-0.365,1.455
00:42:20.856:1,-0.385,1.435
00:42:20.860:1,-0.395,1.475
00:42:20.864:1,-0.395,1.43
00:42:20.868:1,-0.39,1.445
00:42:20.872:1,-0.375,1.43
00:42:20.876:1,-0.37,1.415
00:42:20.880:1,-0.355,1.445
00:42:20.884:1,-0.335,1.43
00:42:20.888:1,-0.31,1.415
00:42:20.892:1,-0.275,1.425
00:42:20.896:1,-0.175,1.425
00:42:20.900:1,-0.08,1.44
00:42:20.904:1,-0.005,1.405
00:42:20.908:1,0.06,1.355
00:42:20.912:1,0.11,1.335
00:42:20.916:1,0.17,1.315
00:42:20.920:1,0.165,1.305
00:42:20.924:1,0.11,1.28
00:42:20.928:1,0.165,1.245
00:42:20.932:1,0.33,1.16
00:42:20.936:1,0.62,0.965
00:42:20.940:1,0.905,0.705
00:42:20.944:1,1.045,0.5
00:42:20.948:1,0.875,0.375
00:42:20.952:1,0.45,0.485
00:42:20.956:1,0.01,0.8
00:42:20.960:1,-0.225,1.075
00:42:20.964:1,-0.295,1.28
00:42:20.968:1,-0.32,1.45
00:42:20.972:1,-0.365,1.56
00:42:20.976:1,-0.345,1.62
00:42:20.980:1,-0.38,1.64
00:42:20.984:1,-0.46,1.66
00:42:20.988:1,-0.51,1.64
00:42:20.992:1,-0.555,1.635
00:42:20.996:1,-0.585,1.635
00:42:21.000:1,-0.625,1.625
00:42:21.004:1,-0.67,1.605
00:42:21.008:1,-0.695,1.58
00:42:21.012:1,-0.7,1.57
00:42:21.016:1,-0.71,1.57
00:42:21.020:1,-0.685,1.555
00:42:21.024:1,-0.685,1.595
00:42:21.028:1,-0.69,1.56
00:42:21.032:1,-0.68,1.52
00:42:21.036:1,-0.675,1.515
00:42:21.040:1,-0.695,1.51
00:42:21.044:1,-0.67,1.505
00:42:21.048:1,-0.68,1.485
00:42:21.052:1,-0.665,1.47
00:42:21.056:1,-0.66,1.435
00:42:21.060:1,-0.66,1.415
00:42:21.064:1,-0.655,1.445
00:42:21.068:1,-0.625,1.425
00:42:21.072:1,-0.625,1.42
00:42:21.076:1,-0.66,1.415
00:42:21.080:1,-0.69,1.405
00:42:21.084:1,-0.675,1.4
00:42:21.088:1,-0.66,1.415
00:42:21.092:1,-0.655,1.37
00:42:21.096:1,-0.675,1.375
00:42:21.100:1,-0.66,1.345
00:42:21.104:1,-0.68,1.355
00:42:21.108:1,-0.64,1.355
00:42:21.112:1,-0.66,1.34
00:42:21.116:1,-0.64,1.32
00:42:21.120:1,-0.625,1.33
00:42:21.124:1,-0.62,1.295
00:42:21.128:1,-0.63,1.275
00:42:21.132:1,-0.64,1.28
00:42:21.136:1,-0.615,1.27
00:42:21.140:1,-0.63,1.25
00:42:21.144:1,-0.64,1.22
00:42:21.148:1,-0.62,1.26
00:42:21.152:1,-0.605,1.255
00:42:21.156:1,-0.575,1.23
00:42:21.160:1,-0.56,1.245
00:42:21.164:1,-0.52,1.24
00:42:21.168:1,-0.52,1.235
00:42:21.172:1,-0.495,1.255
00:42:21.176:1,-0.48,1.28
00:42:21.180:1,-0.49,1.285
00:42:21.184:1,-0.445,1.285
00:42:21.188:1,-0.43,1.315
00:42:21.192:1,-0.445,1.315
00:42:21.196:1,-0.43,1.32
00:42:21.200:1,-0.415,1.335
00:42:21.204:1,-0.385,1.35
00:42:21.208:1,-0.37,1.36
00:42:21.212:1,-0.345,1.34
00:42:21.216:1,-0.36,1.315
00:42:21.220:1,-0.32,1.33
00:42:21.224:1,-0.315,1.345
00:42:21.228:1,-0.315,1.355
00:42:21.232:1,-0.345,1.38
00:42:21.236:1,-0.4,1.4
00:42:21.240:1,-0.42,1.375
00:42:21.244:1,-0.43,1.39
00:42:21.248:1,-0.47,1.405
00:42:21.252:1,-0.47,1.425
00:42:21.256:1,-0.445,1.45
00:42:21.260:1,-0.44,1.455
00:42:21.264:1,-0.43,1.485
00:42:21.268:1,-0.435,1.5
00:42:21.272:1,-0.44,1.495
00:42:21.276:1,-0.435,1.495
00:42:21.280:1,-0.42,1.475
00:42:21.284:1,-0.4,1.475
00:42:21.288:1,-0.4,1.47
00:42:21.292:1,-0.41,1.455
00:42:21.296:1,-0.405,1.45
00:42:21.300:1,-0.41,1.45
00:42:21.304:1,-0.42,1.41
00:42:21.308:1,-0.42,1.45
00:42:21.312:1,-0.435,1.445
00:42:21.316:1,-0.445,1.435
00:42:21.320:1,-0.45,1.44
00:42:21.324:1,-0.435,1.445
00:42:21.328:1,-0.435,1.435
00:42:21.332:1,-0.425,1.435
00:42:21.336:1,-0.445,1.415
00:42:21.340:1,-0.42,1.405
00:42:21.344:1,-0.42,1.42
00:42:21.348:1,-0.395,1.435
00:42:21.352:1,-0.385,1.42
00:42:21.356:1,-0.395,1.445
00:42:21.360:1,-0.405,1.425
00:42:21.364:1,-0.4,1.45
00:42:21.368:1,-0.395,1.455
00:42:21.372:1,-0.38,1.44
00:42:21.376:1,-0.36,1.445
00:42:21.380:1,-0.35,1.46
00:42:21.384:1,-0.34,1.44
00:42:21.388:1,-0.325,1.45
00:42:21.392:1,-0.25,1.43
00:42:21.396:1,-0.175,1.46
00:42:21.400:1,-0.075,1.45
00:42:21.404:1,0.02,1.45
00:42:21.408:1,0.075,1.425
00:42:21.412:1,0.11,1.38
00:42:21.416:1,0.155,1.36
00:42:21.420:1,0.175,1.37
00:42:21.424:1,0.135,1.35
00:42:21.428:1,0.15,1.27
00:42:21.432:1,0.295,1.145
00:42:21.436:1,0.51,0.965
00:42:21.440:1,0.79,0.71
00:42:21.444:1,1.035,0.47
00:42:21.448:1,1.06,0.29
00:42:21.452:1,0.83,0.265
00:42:21.456:1,0.37,0.485
00:42:21.460:1,0.0,0.76
00:42:21.464:1,-0.23,1.005
00:42:21.468:1,-0.315,1.175
00:42:21.472:1,-0.36,1.295
00:42:21.476:1,-0.36,1.42
00:42:21.480:1,-0.44,1.46
00:42:21.484:1,-0.5,1.49
00:42:21.488:1,-0.52,1.49
00:42:21.492:1,-0.56,1.495
00:42:21.496:1,-0.595,1.505
00:42:21.500:1,-0.59,1.51
00:42:21.504:1,-0.6,1.5
00:42:21.508:1,-0.605,1.495
00:42:21.512:1,-0.605,1.47
00:42:21.516:1,-0.6,1.475
00:42:21.520:1,-0.61,1.48
00:42:21.524:1,-0.635,1.495
00:42:21.528:1,-0.615,1.495
00:42:21.532:1,-0.585,1.5
00:42:21.536:1,-0.595,1.465
00:42:21.540:1,-0.58,1.45
00:42:21.544:1,-0.585,1.44
00:42:21.548:1,-0.555,1.425
00:42:21.552:1,-0.575,1.405
00:42:21.556:1,-0.57,1.395
00:42:21.560:1,-0.58,1.385
00:42:21.564:1,-0.61,1.395
00:42:21.568:1,-0.6,1.385
00:42:21.572:1,-0.575,1.385
00:42:21.576:1,-0.565,1.385
00:42:21.580:1,-0.57,1.385
00:42:21.584:1,-0.575,1.4
00:42:21.588:1,-0.565,1.375
00:42:21.592:1,-0.575,1.385
00:42:21.596:1,-0.59,1.375
00:42:21.600:1,-0.575,1.385
00:42:21.604:1,-0.575,1.37
00:42:21.608:1,-0.58,1.39
00:42:21.612:1,-0.555,1.4
00:42:21.616:1,-0.56,1.41
00:42:21.620:1,-0.565,1.385
00:42:21.624:1,-0.57,1.375
00:42:21.628:1,-0.54,1.365
00:42:21.632:1,-0.565,1.325
00:42:21.636:1,-0.565,1.315
00:42:21.640:1,-0.555,1.32
00:42:21.644:1,-0.555,1.285
00:42:21.648:1,-0.52,1.275
00:42:21.652:1,-0.505,1.25
00:42:21.656:1,-0.49,1.26
00:42:21.660:1,-0.495,1.26
00:42:21.664:1,-0.465,1.25
00:42:21.668:1,-0.475,1.255
00:42:21.672:1,-0.445,1.26
00:42:21.676:1,-0.42,1.265
00:42:21.680:1,-0.405,1.255
00:42:21.684:1,-0.38,1.255
00:42:21.688:1,-0.37,1.255
00:42:21.692:1,-0.37,1.27
00:42:21.696:1,-0.375,1.265
00:42:21.700:1,-0.34,1.275
00:42:21.704:1,-0.325,1.295
00:42:21.708:1,-0.315,1.305
00:42:21.712:1,-0.315,1.36
00:42:21.716:1,-0.31,1.355
00:42:21.720:1,-0.315,1.33
00:42:21.724:1,-0.32,1.285
00:42:21.728:1,-0.355,1.29
00:42:21.732:1,-0.375,1.305
00:42:21.736:1,-0.37,1.305
00:42:21.740:1,-0.385,1.325
00:42:21.744:1,-0.39,1.33
00:42:21.748:1,-0.39,1.34
00:42:21.752:1,-0.405,1.305
00:42:21.756:1,-0.39,1.315
00:42:21.760:1,-0.395,1.3
00:42:21.764:1,-0.42,1.285
00:42:21.768:1,-0.42,1.315
00:42:21.772:1,-0.445,1.295
00:42:21.776:1,-0.445,1.295
00:42:21.780:1,-0.405,1.3
00:42:21.784:1,-0.385,1.305
00:42:21.788:1,-0.34,1.31
00:42:21.792:1,-0.32,1.305
00:42:21.796:1,-0.355,1.285
00:42:21.800:1,-0.345,1.275
00:42:21.804:1,-0.335,1.265
00:42:21.808:1,-0.34,1.265
00:42:21.812:1,-0.335,1.26
00:42:21.816:1,-0.36,1.255
00:42:21.820:1,-0.375,1.26
00:42:21.824:1,-0.38,1.28
00:42:21.828:1,-0.39,1.245
00:42:21.832:1,-0.38,1.26
00:42:21.836:1,-0.4,1.255
00:42:21.840:1,-0.365,1.25
00:42:21.844:1,-0.38,1.245
00:42:21.848:1,-0.375,1.27
00:42:21.852:1,-0.36,1.275
00:42:21.856:1,-0.365,1.25
00:42:21.860:1,-0.39,1.255
00:42:21.864:1,-0.4,1.26
00:42:21.868:1,-0.395,1.25
00:42:21.872:1,-0.38,1.225
00:42:21.876:1,-0.38,1.23
00:42:21.880:1,-0.37,1.225
00:42:21.884:1,-0.34,1.24
00:42:21.888:1,-0.305,1.24
00:42:21.892:1,-0.26,1.26
00:42:21.896:1,-0.18,1.265
00:42:21.900:1,-0.095,1.275
00:42:21.904:1,-0.005,1.25
00:42:21.908:1,0.07,1.205
00:42:21.912:1,0.105,1.16
00:42:21.916:1,0.14,1.15
00:42:21.920:1,0.15,1.17
00:42:21.924:1,0.135,1.155
00:42:21.928:1,0.13,1.08
00:42:21.932:1,0.245,0.935
00:42:21.936:1,0.495,0.77
00:42:21.940:1,0.775,0.505
00:42:21.944:1,1.025,0.19
00:42:21.948:1,1.12,-0.04
00:42:21.952:1,0.95,-0.095
00:42:21.956:1,0.5,0.07
00:42:21.960:1,0.03,0.41
00:42:21.964:1,-0.235,0.76
00:42:21.968:1,-0.355,1.005
00:42:21.972:1,-0.435,1.125
00:42:21.976:1,-0.455,1.18
00:42:21.980:1,-0.515,1.215
00:42:21.984:1,-0.545,1.255
00:42:21.988:1,-0.565,1.26
00:42:21.992:1,-0.58,1.255
00:42:21.996:1,-0.575,1.215
00:42:22.000:1,-0.58,1.195
00:42:22.004:1,-0.575,1.2
00:42:22.008:1,-0.59,1.18
00:42:22.012:1,-0.58,1.175
00:42:22.016:1,-0.595,1.145
00:42:22.020:1,-0.595,1.135
00:42:22.024:1,-0.6,1.13
00:42:22.028:1,-0.59,1.145
00:42:22.032:1,-0.58,1.11
00:42:22.036:1,-0.585,1.11
00:42:22.040:1,-0.57,1.085
00:42:22.044:1,-0.575,1.075
00:42:22.048:1,-0.555,1.03
00:42:22.052:1,-0.565,1.05
00:42:22.056:1,-0.555,1.04
00:42:22.060:1,-0.55,1.02
00:42:22.064:1,-0.555,0.99
00:42:22.068:1,-0.565,0.99
00:42:22.072:1,-0.59,0.97
00:42:22.076:1,-0.58,0.96
00:42:22.080:1,-0.58,0.96
00:42:22.084:1,-0.575,0.95
00:42:22.088:1,-0.565,0.935
00:42:22.092:1,-0.6,0.955
00:42:22.096:1,-0.605,0.945
00:42:22.100:1,-0.575,0.945
00:42:22.104:1,-0.555,0.95
00:42:22.108:1,-0.545,0.945
00:42:22.112:1,-0.55,0.945
00:42:22.116:1,-0.535,0.94
00:42:22.120:1,-0.55,0.96
00:42:22.124:1,-0.53,0.97
00:42:22.128:1,-0.535,0.96
00:42:22.132:1,-0.54,0.975
00:42:22.136:1,-0.53,0.965
00:42:22.140:1,-0.525,0.96
00:42:22.144:1,-0.52,0.975
00:42:22.148:1,-0.52,0.965
00:42:22.152:1,-0.515,0.965
00:42:22.156:1,-0.505,0.975
00:42:22.160:1,-0.485,0.955
00:42:22.164:1,-0.46,0.965
00:42:22.168:1,-0.475,0.98
00:42:22.172:1,-0.45,0.97
00:42:22.176:1,-0.43,0.96
00:42:22.180:1,-0.395,0.965
00:42:22.184:1,-0.4,0.95
00:42:22.188:1,-0.37,0.95
00:42:22.192:1,-0.36,0.98
00:42:22.196:1,-0.31,0.975
00:42:22.200:1,-0.31,0.97
00:42:22.204:1,-0.29,0.97
00:42:22.208:1,-0.295,0.98
00:42:22.212:1,-0.285,0.995
00:42:22.216:1,-0.3,0.99
00:42:22.220:1,-0.31,1.0
00:42:22.224:1,-0.32,1.03
00:42:22.228:1,-0.31,1.025
00:42:22.232:1,-0.335,1.02
00:42:22.236:1,-0.335,1.05
00:42:22.240:1,-0.37,1.04
00:42:22.244:1,-0.365,1.04
00:42:22.248:1,-0.355,1.025
00:42:22.252:1,-0.38,1.015
00:42:22.256:1,-0.38,1.01
00:42:22.260:1,-0.375,1.01
00:42:22.264:1,-0.39,0.98
00:42:22.268:1,-0.405,0.97
00:42:22.272:1,-0.395,0.995
00:42:22.276:1,-0.405,0.945
00:42:22.280:1,-0.39,0.945
00:42:22.284:1,-0.37,0.955
00:42:22.288:1,-0.36,0.945
00:42:22.292:1,-0.35,0.935
00:42:22.296:1,-0.34,0.9
00:42:22.300:1,-0.35,0.9
00:42:22.304:1,-0.345,0.885
00:42:22.308:1,-0.35,0.875
00:42:22.312:1,-0.355,0.895
00:42:22.316:1,-0.375,0.865
00:42:22.320:1,-0.375,0.84
00:42:22.324:1,-0.375,0.83
00:42:22.328:1,-0.385,0.825
00:42:22.332:1,-0.38,0.825
00:42:22.336:1,-0.4,0.81
00:42:22.340:1,-0.41,0.79
00:42:22.344:1,-0.39,0.755
00:42:22.348:1,-0.405,0.765
00:42:22.352:1,-0.4,0.745
00:42:22.356:1,-0.4,0.745
00:42:22.360:1,-0.395,0.74
00:42:22.364:1,-0.385,0.725
00:42:22.368:1,-0.39,0.71
00:42:22.372:1,-0.385,0.695
00:42:22.376:1,-0.365,0.695
00:42:22.380:1,-0.365,0.695
00:42:22.384:1,-0.355,0.66
00:42:22.388:1,-0.36,0.67
00:42:22.392:1,-0.365,0.66
00:42:22.396:1,-0.355,0.635
00:42:22.400:1,-0.35,0.63
00:42:22.404:1,-0.34,0.63
00:42:22.408:1,-0.345,0.6
00:42:22.412:1,-0.32,0.61
00:42:22.416:1,-0.27,0.595
00:42:22.420:1,-0.23,0.605
00:42:22.424:1,-0.15,0.575
00:42:22.428:1,-0.05,0.59
00:42:22.432:1,0.01,0.58
00:42:22.436:1,0.06,0.545
00:42:22.440:1,0.11,0.525
00:42:22.444:1,0.145,0.515
00:42:22.448:1,0.15,0.525
00:42:22.452:1,0.14,0.47
00:42:22.456:1,0.175,0.4
00:42:22.460:1,0.315,0.265
00:42:22.464:1,0.56,0.045
00:42:22.468:1,0.835,-0.265
00:42:22.472:1,1.03,-0.56
00:42:22.476:1,0.99,-0.74
00:42:22.480:1,0.71,-0.705
00:42:22.484:1,0.245,-0.445
00:42:22.488:1,-0.125,-0.055
00:42:22.492:1,-0.325,0.255
00:42:22.496:1,-0.44,0.425
00:42:22.500:1,-0.49,0.545
00:42:22.504:1,-0.535,0.585
00:42:22.508:1,-0.55,0.58
00:42:22.512:1,-0.57,0.565
00:42:22.516:1,-0.58,0.585
00:42:22.520:1,-0.585,0.56
00:42:22.524:1,-0.565,0.52
00:42:22.528:1,-0.575,0.505
00:42:22.532:1,-0.545,0.48
00:42:22.536:1,-0.52,0.45
00:42:22.540:1,-0.53,0.465
00:42:22.544:1,-0.525,0.425
00:42:22.548:1,-0.525,0.395
00:42:22.552:1,-0.535,0.4
00:42:22.556:1,-0.54,0.385
00:42:22.560:1,-0.545,0.38
00:42:22.564:1,-0.55,0.345
00:42:22.568:1,-0.555,0.315
00:42:22.572:1,-0.585,0.315
00:42:22.576:1,-0.57,0.29
00:42:22.580:1,-0.585,0.28
00:42:22.584:1,-0.57,0.25
00:42:22.588:1,-0.575,0.235
00:42:22.592:1,-0.57,0.21
00:42:22.596:1,-0.56,0.175
00:42:22.600:1,-0.54,0.17
00:42:22.604:1,-0.535,0.14
00:42:22.608:1,-0.535,0.155
00:42:22.612:1,-0.53,0.17
00:42:22.616:1,-0.57,0.13
00:42:22.620:1,-0.605,0.125
00:42:22.624:1,-0.575,0.13
00:42:22.628:1,-0.57,0.115
00:42:22.632:1,-0.54,0.09
00:42:22.636:1,-0.535,0.085
00:42:22.640:1,-0.515,0.05
00:42:22.644:1,-0.505,0.065
00:42:22.648:1,-0.51,0.045
00:42:22.652:1,-0.49,0.015
00:42:22.656:1,-0.5,0.02
00:42:22.660:1,-0.49,0.0
00:42:22.664:1,-0.505,-0.025
00:42:22.668:1,-0.485,-0.035
00:42:22.672:1,-0.495,-0.06
00:42:22.676:1,-0.495,-0.095
00:42:22.680:1,-0.5,-0.1
00:42:22.684:1,-0.475,-0.12
00:42:22.688:1,-0.47,-0.135
00:42:22.692:1,-0.465,-0.16
00:42:22.696:1,-0.42,-0.16
00:42:22.700:1,-0.425,-0.19
00:42:22.704:1,-0.425,-0.215
00:42:22.708:1,-0.42,-0.225
00:42:22.712:1,-0.405,-0.235
00:42:22.716:1,-0.405,-0.26
00:42:22.720:1,-0.405,-0.285
00:42:22.724:1,-0.42,-0.29
00:42:22.728:1,-0.42,-0.295
00:42:22.732:1,-0.395,-0.31
00:42:22.736:1,-0.385,-0.31
00:42:22.740:1,-0.405,-0.335
00:42:22.744:1,-0.405,-0.36
00:42:22.748:1,-0.4,-0.37
00:42:22.752:1,-0.39,-0.38
00:42:22.756:1,-0.41,-0.42
00:42:22.760:1,-0.4,-0.43
00:42:22.764:1,-0.405,-0.45
00:42:22.768:1,-0.405,-0.44
00:42:22.772:1,-0.4,-0.47
00:42:22.776:1,-0.4,-0.46
00:42:22.780:1,-0.395,-0.5
00:42:22.784:1,-0.42,-0.535
00:42:22.788:1,-0.405,-0.525
00:42:22.792:1,-0.37,-0.575
00:42:22.796:1,-0.365,-0.57
00:42:22.800:1,-0.35,-0.58
00:42:22.804:1,-0.35,-0.595
00:42:22.808:1,-0.34,-0.6
00:42:22.812:1,-0.345,-0.59
00:42:22.816:1,-0.39,-0.56
00:42:22.820:1,-0.37,-0.615
00:42:22.824:1,-0.355,-0.605
00:42:22.828:1,-0.365,-0.605
00:42:22.832:1,-0.35,-0.615
00:42:22.836:1,-0.35,-0.63
00:42:22.840:1,-0.355,-0.625
00:42:22.844:1,-0.36,-0.63
00:42:22.848:1,-0.355,-0.62
00:42:22.852:1,-0.335,-0.64
00:42:22.856:1,-0.355,-0.63
00:42:22.860:1,-0.35,-0.65
00:42:22.864:1,-0.335,-0.65
00:42:22.868:1,-0.345,-0.64
00:42:22.872:1,-0.325,-0.655
00:42:22.876:1,-0.335,-0.655
00:42:22.880:1,-0.345,-0.655
00:42:22.884:1,-0.35,-0.68
00:42:22.888:1,-0.365,-0.665
00:42:22.892:1,-0.365,-0.675
00:42:22.896:1,-0.37,-0.68
00:42:22.900:1,-0.4,-0.7
00:42:22.904:1,-0.395,-0.695
00:42:22.908:1,-0.38,-0.7
00:42:22.912:1,-0.365,-0.72
00:42:22.916:1,-0.34,-0.73
00:42:22.920:1,-0.3,-0.735
00:42:22.924:1,-0.215,-0.755
00:42:22.928:1,-0.16,-0.745
00:42:22.932:1,-0.06,-0.755
00:42:22.936:1,0.0,-0.79
00:42:22.940:1,0.065,-0.835
00:42:22.944:1,0.055,-0.83
00:42:22.948:1,0.085,-0.845
00:42:22.952:1,0.055,-0.875
00:42:22.956:1,0.05,-0.955
00:42:22.960:1,0.21,-1.08
00:42:22.964:1,0.475,-1.28
00:42:22.968:1,0.745,-1.565
00:42:22.972:1,0.965,-1.835
00:42:22.976:1,1.025,-2.01
00:42:22.980:1,0.78,-1.99
00:42:22.984:1,0.315,-1.74
00:42:22.988:1,-0.08,-1.355
00:42:22.992:1,-0.31,-1.045
00:42:22.996:1,-0.425,-0.87
00:42:23.000:1,-0.49,-0.77
00:42:23.004:1,-0.525,-0.725
00:42:23.008:1,-0.54,-0.695
00:42:23.012:1,-0.59,-0.705
00:42:23.016:1,-0.57,-0.695
00:42:23.020:1,-0.585,-0.695
00:42:23.024:1,-0.605,-0.725
00:42:23.028:1,-0.6,-0.725
00:42:23.032:1,-0.6,-0.77
00:42:23.036:1,-0.58,-0.76
00:42:23.040:1,-0.585,-0.78
00:42:23.044:1,-0.56,-0.775
00:42:23.048:1,-0.56,-0.79
00:42:23.052:1,-0.555,-0.83
00:42:23.056:1,-0.545,-0.82
00:42:23.060:1,-0.535,-0.81
00:42:23.064:1,-0.54,-0.785
00:42:23.068:1,-0.53,-0.775
00:42:23.072:1,-0.545,-0.765
00:42:23.076:1,-0.52,-0.77
00:42:23.080:1,-0.52,-0.755
00:42:23.084:1,-0.52,-0.75
00:42:23.088:1,-0.535,-0.765
00:42:23.092:1,-0.545,-0.755
00:42:23.096:1,-0.545,-0.76
00:42:23.100:1,-0.54,-0.755
00:42:23.104:1,-0.55,-0.75
00:42:23.108:1,-0.565,-0.765
00:42:23.112:1,-0.575,-0.785
00:42:23.116:1,-0.585,-0.77
00:42:23.120:1,-0.55,-0.775
00:42:23.124:1,-0.56,-0.75
00:42:23.128:1,-0.57,-0.775
00:42:23.132:1,-0.57,-0.775
00:42:23.136:1,-0.57,-0.76
00:42:23.140:1,-0.565,-0.78
00:42:23.144:1,-0.54,-0.775
00:42:23.148:1,-0.55,-0.77
00:42:23.152:1,-0.525,-0.785
00:42:23.156:1,-0.54,-0.765
00:42:23.160:1,-0.55,-0.77
00:42:23.164:1,-0.555,-0.775
00:42:23.168:1,-0.54,-0.755
00:42:23.172:1,-0.54,-0.76
00:42:23.176:1,-0.51,-0.765
00:42:23.180:1,-0.49,-0.785
00:42:23.184:1,-0.48,-0.78
00:42:23.188:1,-0.48,-0.76
00:42:23.192:1,-0.475,-0.78
00:42:23.196:1,-0.46,-0.785
00:42:23.200:1,-0.43,-0.77
00:42:23.204:1,-0.41,-0.77
00:42:23.208:1,-0.435,-0.78
00:42:23.212:1,-0.42,-0.785
00:42:23.216:1,-0.445,-0.79
00:42:23.220:1,-0.43,-0.8
00:42:23.224:1,-0.41,-0.8
00:42:23.228:1,-0.37,-0.815
00:42:23.232:1,-0.36,-0.825
00:42:23.236:1,-0.355,-0.8
00:42:23.240:1,-0.355,-0.81
00:42:23.244:1,-0.33,-0.815
00:42:23.248:1,-0.35,-0.8
00:42:23.252:1,-0.365,-0.8
00:42:23.256:1,-0.37,-0.795
00:42:23.260:1,-0.365,-0.805
00:42:23.264:1,-0.355,-0.81
00:42:23.268:1,-0.34,-0.785
00:42:23.272:1,-0.355,-0.785
00:42:23.276:1,-0.35,-0.765
00:42:23.280:1,-0.36,-0.775
00:42:23.284:1,-0.355,-0.76
00:42:23.288:1,-0.375,-0.78
00:42:23.292:1,-0.375,-0.755
00:42:23.296:1,-0.365,-0.785
00:42:23.300:1,-0.335,-0.79
00:42:23.304:1,-0.335,-0.76
00:42:23.308:1,-0.32,-0.77
00:42:23.312:1,-0.31,-0.765
00:42:23.316:1,-0.33,-0.75
00:42:23.320:1,-0.33,-0.75
00:42:23.324:1,-0.335,-0.74
00:42:23.328:1,-0.335,-0.735
00:42:23.332:1,-0.34,-0.74
00:42:23.336:1,-0.325,-0.745
00:42:23.340:1,-0.315,-0.745
00:42:23.344:1,-0.3,-0.73
00:42:23.348:1,-0.235,-0.72
00:42:23.352:1,-0.175,-0.73
00:42:23.356:1,-0.105,-0.74
00:42:23.360:1,-0.05,-0.76
00:42:23.364:1,0.0,-0.79
00:42:23.368:1,0.025,-0.82
00:42:23.372:1,0.07,-0.87
00:42:23.376:1,0.07,-0.865
00:42:23.380:1,0.055,-0.85
00:42:23.384:1,0.03,-0.89
00:42:23.388:1,0.145,-0.94
00:42:23.392:1,0.385,-1.085
00:42:23.396:1,0.68,-1.305
00:42:23.400:1,0.98,-1.605
00:42:23.404:1,1.085,-1.835
00:42:23.408:1,1.015,-1.89
00:42:23.412:1,0.685,-1.73
00:42:23.416:1,0.22,-1.41
00:42:23.420:1,-0.085,-1.04
00:42:23.424:1,-0.255,-0.85
00:42:23.428:1,-0.355,-0.745
00:42:23.432:1,-0.43,-0.695
00:42:23.436:1,-0.465,-0.67
00:42:23.440:1,-0.515,-0.64
00:42:23.444:1,-0.545,-0.6
00:42:23.448:1,-0.56,-0.56
00:42:23.452:1,-0.57,-0.58
00:42:23.456:1,-0.56,-0.595
00:42:23.460:1,-0.575,-0.61
00:42:23.464:1,-0.555,-0.61
00:42:23.468:1,-0.555,-0.615
00:42:23.472:1,-0.555,-0.615
00:42:23.476:1,-0.535,-0.6
00:42:23.480:1,-0.53,-0.59
00:42:23.484:1,-0.525,-0.58
00:42:23.488:1,-0.52,-0.585
00:42:23.492:1,-0.535,-0.57
00:42:23.496:1,-0.54,-0.555
00:42:23.500:1,-0.545,-0.56
00:42:23.504:1,-0.555,-0.52
00:42:23.508:1,-0.575,-0.505
00:42:23.512:1,-0.59,-0.475
00:42:23.516:1,-0.58,-0.45
00:42:23.520:1,-0.585,-0.485
00:42:23.524:1,-0.605,-0.525
00:42:23.528:1,-0.6,-0.575
00:42:23.532:1,-0.615,-0.575
00:42:23.536:1,-0.625,-0.475
00:42:23.540:1,-0.61,-0.455
00:42:23.544:1,-0.625,-0.445
00:42:23.548:1,-0.625,-0.49
00:42:23.552:1,-0.58,-0.53
00:42:23.556:1,-0.575,-0.545
00:42:23.560:1,-0.575,-0.565
00:42:23.564:1,-0.585,-0.54
00:42:23.568:1,-0.59,-0.54
00:42:23.572:1,-0.575,-0.555
00:42:23.576:1,-0.57,-0.53
00:42:23.580:1,-0.56,-0.51
00:42:23.584:1,-0.53,-0.515
00:42:23.588:1,-0.525,-0.5
00:42:23.592:1,-0.505,-0.465
00:42:23.596:1,-0.495,-0.49
00:42:23.600:1,-0.49,-0.475
00:42:23.604:1,-0.46,-0.48
00:42:23.608:1,-0.46,-0.485
00:42:23.612:1,-0.45,-0.485
00:42:23.616:1,-0.44,-0.47
00:42:23.620:1,-0.41,-0.505
00:42:23.624:1,-0.385,-0.48
00:42:23.628:1,-0.365,-0.515
00:42:23.632:1,-0.35,-0.505
00:42:23.636:1,-0.36,-0.53
00:42:23.640:1,-0.365,-0.54
00:42:23.644:1,-0.35,-0.56
00:42:23.648:1,-0.345,-0.555
00:42:23.652:1,-0.31,-0.565
00:42:23.656:1,-0.28,-0.615
00:42:23.660:1,-0.26,-0.605
00:42:23.664:1,-0.26,-0.6
00:42:23.668:1,-0.255,-0.615
00:42:23.672:1,-0.26,-0.61
00:42:23.676:1,-0.28,-0.625
00:42:23.680:1,-0.315,-0.635
00:42:23.684:1,-0.3,-0.66
00:42:23.688:1,-0.32,-0.64
00:42:23.692:1,-0.33,-0.65
00:42:23.696:1,-0.34,-0.67
00:42:23.700:1,-0.35,-0.675
00:42:23.704:1,-0.345,-0.685
00:42:23.708:1,-0.35,-0.725
00:42:23.712:1,-0.35,-0.73
00:42:23.716:1,-0.35,-0.755
00:42:23.720:1,-0.355,-0.745
00:42:23.724:1,-0.36,-0.785
00:42:23.728:1,-0.34,-0.785
00:42:23.732:1,-0.36,-0.81
00:42:23.736:1,-0.36,-0.86
00:42:23.740:1,-0.385,-0.85
00:42:23.744:1,-0.425,-0.85
00:42:23.748:1,-0.415,-0.85
00:42:23.752:1,-0.425,-0.875
00:42:23.756:1,-0.435,-0.91
00:42:23.760:1,-0.43,-0.91
00:42:23.764:1,-0.425,-0.905
00:42:23.768:1,-0.455,-0.94
00:42:23.772:1,-0.45,-0.925
00:42:23.776:1,-0.435,-0.945
00:42:23.780:1,-0.43,-0.96
00:42:23.784:1,-0.43,-0.98
00:42:23.788:1,-0.415,-0.95
00:42:23.792:1,-0.425,-0.945
00:42:23.796:1,-0.38,-0.96
00:42:23.800:1,-0.385,-0.995
00:42:23.804:1,-0.37,-0.985
00:42:23.808:1,-0.365,-0.995
00:42:23.812:1,-0.35,-1.0
00:42:23.816:1,-0.35,-1.01
00:42:23.820:1,-0.35,-0.995
00:42:23.824:1,-0.355,-1.03
00:42:23.828:1,-0.36,-1.02
00:42:23.832:1,-0.38,-1.04
00:42:23.836:1,-0.37,-1.05
00:42:23.840:1,-0.39,-1.08
00:42:23.844:1,-0.4,-1.06
00:42:23.848:1,-0.395,-1.08
00:42:23.852:1,-0.405,-1.08
00:42:23.856:1,-0.41,-1.09
00:42:23.860:1,-0.395,-1.085
00:42:23.864:1,-0.38,-1.105
00:42:23.868:1,-0.375,-1.115
00:42:23.872:1,-0.375,-1.1
00:42:23.876:1,-0.35,-1.1
00:42:23.880:1,-0.33,-1.12
00:42:23.884:1,-0.345,-1.11
00:42:23.888:1,-0.335,-1.135
00:42:23.892:1,-0.32,-1.14
00:42:23.896:1,-0.31,-1.12
00:42:23.900:1,-0.3,-1.135
00:42:23.904:1,-0.305,-1.105
00:42:23.908:1,-0.29,-1.13
00:42:23.912:1,-0.33,-1.135
00:42:23.916:1,-0.355,-1.12
00:42:23.920:1,-0.365,-1.1
00:42:23.924:1,-0.355,-1.125
00:42:23.928:1,-0.375,-1.1
00:42:23.932:1,-0.36,-1.105
00:42:23.936:1,-0.38,-1.135
00:42:23.940:1,-0.42,-1.125
00:42:23.944:1,-0.43,-1.135
00:42:23.948:1,-0.455,-1.13
00:42:23.952:1,-0.43,-1.16
00:42:23.956:1,-0.435,-1.16
00:42:23.960:1,-0.45,-1.155
00:42:23.964:1,-0.47,-1.155
00:42:23.968:1,-0.46,-1.17
00:42:23.972:1,-0.46,-1.18
00:42:23.976:1,-0.43,-1.185
00:42:23.980:1,-0.42,-1.21
00:42:23.984:1,-0.39,-1.21
00:42:23.988:1,-0.315,-1.185
00:42:23.992:1,-0.23,-1.185
00:42:23.996:1,-0.13,-1.185
00:42:24.000:1,-0.04,-1.195
00:42:24.004:1,0.04,-1.2
00:42:24.008:1,0.09,-1.24
00:42:24.012:1,0.13,-1.25
00:42:24.016:1,0.13,-1.235
00:42:24.020:1,0.08,-1.23
00:42:24.024:1,0.04,-1.26
00:42:24.028:1,0.13,-1.36
00:42:24.032:1,0.33,-1.49
00:42:24.036:1,0.62,-1.705
00:42:24.040:1,0.885,-2.0
00:42:24.044:1,1.015,-2.245
00:42:24.048:1,0.91,-2.345
00:42:24.052:1,0.54,-2.235
00:42:24.056:1,0.15,-1.875
00:42:24.060:1,-0.135,-1.535
00:42:24.064:1,-0.25,-1.325
00:42:24.068:1,-0.295,-1.205
00:42:24.072:1,-0.355,-1.13
00:42:24.076:1,-0.405,-1.09
00:42:24.080:1,-0.445,-1.085
00:42:24.084:1,-0.48,-1.105
00:42:24.088:1,-0.48,-1.11
00:42:24.092:1,-0.495,-1.135
00:42:24.096:1,-0.5,-1.145
00:42:24.100:1,-0.505,-1.155
00:42:24.104:1,-0.495,-1.135
00:42:24.108:1,-0.49,-1.135
00:42:24.112:1,-0.51,-1.145
00:42:24.116:1,-0.495,-1.14
00:42:24.120:1,-0.48,-1.16
00:42:24.124:1,-0.475,-1.155
00:42:24.128:1,-0.48,-1.135
00:42:24.132:1,-0.495,-1.15
00:42:24.136:1,-0.52,-1.145
00:42:24.140:1,-0.52,-1.125
00:42:24.144:1,-0.51,-1.13
00:42:24.148:1,-0.525,-1.13
00:42:24.152:1,-0.56,-1.14
00:42:24.156:1,-0.54,-1.14
00:42:24.160:1,-0.55,-1.14
00:42:24.164:1,-0.57,-1.155
00:42:24.168:1,-0.585,-1.16
00:42:24.172:1,-0.595,-1.18
00:42:24.176:1,-0.595,-1.175
00:42:24.180:1,-0.58,-1.17
00:42:24.184:1,-0.565,-1.165
00:42:24.188:1,-0.595,-1.17
00:42:24.192:1,-0.615,-1.185
00:42:24.196:1,-0.605,-1.18
00:42:24.200:1,-0.625,-1.185
00:42:24.204:1,-0.63,-1.17
00:42:24.208:1,-0.625,-1.17
00:42:24.212:1,-0.62,-1.17
00:42:24.216:1,-0.63,-1.185
00:42:24.220:1,-0.655,-1.165
00:42:24.224:1,-0.63,-1.15
00:42:24.228:1,-0.605,-1.135
00:42:24.232:1,-0.605,-1.175
00:42:24.236:1,-0.61,-1.155
00:42:24.240:1,-0.585,-1.165
00:42:24.244:1,-0.575,-1.155
00:42:24.248:1,-0.56,-1.16
00:42:24.252:1,-0.545,-1.16
00:42:24.256:1,-0.545,-1.145
00:42:24.260:1,-0.535,-1.15
00:42:24.264:1,-0.53,-1.16
00:42:24.268:1,-0.515,-1.15
00:42:24.272:1,-0.505,-1.16
00:42:24.276:1,-0.525,-1.145
00:42:24.280:1,-0.52,-1.14
00:42:24.284:1,-0.525,-1.16
00:42:24.288:1,-0.48,-1.18
00:42:24.292:1,-0.49,-1.185
00:42:24.296:1,-0.465,-1.165
00:42:24.300:1,-0.435,-1.16
00:42:24.304:1,-0.375,-1.175
00:42:24.308:1,-0.34,-1.18
00:42:24.312:1,-0.32,-1.18
00:42:24.316:1,-0.305,-1.2
00:42:24.320:1,-0.295,-1.18
00:42:24.324:1,-0.325,-1.185
00:42:24.328:1,-0.295,-1.18
00:42:24.332:1,-0.265,-1.15
00:42:24.336:1,-0.275,-1.145
00:42:24.340:1,-0.27,-1.12
00:42:24.344:1,-0.27,-1.12
00:42:24.348:1,-0.26,-1.15
00:42:24.352:1,-0.26,-1.14
00:42:24.356:1,-0.245,-1.075
00:42:24.360:1,-0.27,-1.085
00:42:24.364:1,-0.27,-1.09
00:42:24.368:1,-0.26,-1.08
00:42:24.372:1,-0.285,-1.025
00:42:24.376:1,-0.305,-1.03
00:42:24.380:1,-0.33,-1.055
00:42:24.384:1,-0.345,-1.04
00:42:24.388:1,-0.385,-1.045
00:42:24.392:1,-0.375,-1.035
00:42:24.396:1,-0.41,-1.02
00:42:24.400:1,-0.435,-1.02
00:42:24.404:1,-0.42,-0.995
00:42:24.408:1,-0.43,-1.025
00:42:24.412:1,-0.43,-0.965
00:42:24.416:1,-0.41,-0.98
00:42:24.420:1,-0.435,-0.98
00:42:24.424:1,-0.445,-0.955
00:42:24.428:1,-0.45,-0.955
00:42:24.432:1,-0.44,-0.935
00:42:24.436:1,-0.455,-0.9
00:42:24.440:1,-0.465,-0.905
00:42:24.444:1,-0.465,-0.88
00:42:24.448:1,-0.48,-0.84
00:42:24.452:1,-0.465,-0.835
00:42:24.456:1,-0.505,-0.81
00:42:24.460:1,-0.51,-0.775
00:42:24.464:1,-0.51,-0.755
00:42:24.468:1,-0.52,-0.74
00:42:24.472:1,-0.51,-0.725
00:42:24.476:1,-0.495,-0.725
00:42:24.480:1,-0.475,-0.725
00:42:24.484:1,-0.485,-0.72
00:42:24.488:1,-0.5,-0.72
00:42:24.492:1,-0.48,-0.73
00:42:24.496:1,-0.465,-0.71
00:42:24.500:1,-0.46,-0.695
00:42:24.504:1,-0.44,-0.695
00:42:24.508:1,-0.375,-0.7
00:42:24.512:1,-0.315,-0.705
00:42:24.516:1,-0.26,-0.66
00:42:24.520:1,-0.165,-0.66
00:42:24.524:1,-0.07,-0.675
00:42:24.528:1,0.015,-0.69
00:42:24.532:1,0.065,-0.705
00:42:24.536:1,0.13,-0.72
00:42:24.540:1,0.165,-0.68
00:42:24.544:1,0.165,-0.695
00:42:24.548:1,0.165,-0.71
00:42:24.552:1,0.265,-0.79
00:42:24.556:1,0.495,-0.915
00:42:24.560:1,0.8,-1.145
00:42:24.564:1,1.025,-1.4
00:42:24.568:1,1.06,-1.58
00:42:24.572:1,0.785,-1.63
00:42:24.576:1,0.345,-1.41
00:42:24.580:1,-0.03,-1.07
00:42:24.584:1,-0.215,-0.82
00:42:24.588:1,-0.295,-0.635
00:42:24.592:1,-0.315,-0.505
00:42:24.596:1,-0.375,-0.425
00:42:24.600:1,-0.435,-0.375
00:42:24.604:1,-0.465,-0.35
00:42:24.608:1,-0.485,-0.355
00:42:24.612:1,-0.5,-0.355
00:42:24.616:1,-0.535,-0.375
00:42:24.620:1,-0.55,-0.365
00:42:24.624:1,-0.56,-0.39
00:42:24.628:1,-0.565,-0.39
00:42:24.632:1,-0.58,-0.395
00:42:24.636:1,-0.605,-0.38
00:42:24.640:1,-0.63,-0.395
00:42:24.644:1,-0.63,-0.4
00:42:24.648:1,-0.64,-0.395
00:42:24.652:1,-0.635,-0.4
00:42:24.656:1,-0.635,-0.4
00:42:24.660:1,-0.65,-0.4
00:42:24.664:1,-0.655,-0.41
00:42:24.668:1,-0.665,-0.385
00:42:24.672:1,-0.66,-0.39
00:42:24.676:1,-0.67,-0.365
00:42:24.680:1,-0.675,-0.36
00:42:24.684:1,-0.665,-0.35
00:42:24.688:1,-0.67,-0.34
00:42:24.692:1,-0.695,-0.325
00:42:24.696:1,-0.71,-0.335
00:42:24.700:1,-0.73,-0.31
00:42:24.704:1,-0.74,-0.29
00:42:24.708:1,-0.72,-0.31
00:42:24.712:1,-0.72,-0.315
00:42:24.716:1,-0.72,-0.315
00:42:24.720:1,-0.72,-0.315
00:42:24.724:1,-0.685,-0.31
00:42:24.728:1,-0.67,-0.32
00:42:24.732:1,-0.655,-0.325
00:42:24.736:1,-0.64,-0.36
00:42:24.740:1,-0.63,-0.34
00:42:24.744:1,-0.625,-0.335
00:42:24.748:1,-0.605,-0.32
00:42:24.752:1,-0.575,-0.325
00:42:24.756:1,-0.53,-0.32
00:42:24.760:1,-0.51,-0.32
00:42:24.764:1,-0.495,-0.325
00:42:24.768:1,-0.5,-0.335
00:42:24.772:1,-0.51,-0.295
00:42:24.776:1,-0.495,-0.32
00:42:24.780:1,-0.505,-0.345
00:42:24.784:1,-0.485,-0.35
00:42:24.788:1,-0.46,-0.37
00:42:24.792:1,-0.45,-0.33
00:42:24.796:1,-0.435,-0.345
00:42:24.800:1,-0.43,-0.355
00:42:24.804:1,-0.4,-0.335
00:42:24.808:1,-0.4,-0.34
00:42:24.812:1,-0.365,-0.36
00:42:24.816:1,-0.345,-0.36
00:42:24.820:1,-0.33,-0.355
00:42:24.824:1,-0.335,-0.35
00:42:24.828:1,-0.295,-0.35
00:42:24.832:1,-0.32,-0.34
00:42:24.836:1,-0.33,-0.33
00:42:24.840:1,-0.32,-0.335
00:42:24.844:1,-0.295,-0.33
00:42:24.848:1,-0.315,-0.33
00:42:24.852:1,-0.3,-0.305
00:42:24.856:1,-0.305,-0.295
00:42:24.860:1,-0.335,-0.29
00:42:24.864:1,-0.33,-0.305
00:42:24.868:1,-0.32,-0.27
00:42:24.872:1,-0.33,-0.285
00:42:24.876:1,-0.325,-0.265
00:42:24.880:1,-0.35,-0.275
00:42:24.884:1,-0.36,-0.24
00:42:24.888:1,-0.375,-0.23
00:42:24.892:1,-0.345,-0.24
00:42:24.896:1,-0.385,-0.225
00:42:24.900:1,-0.395,-0.225
00:42:24.904:1,-0.43,-0.22
00:42:24.908:1,-0.445,-0.205
00:42:24.912:1,-0.425,-0.205
00:42:24.916:1,-0.45,-0.23
00:42:24.920:1,-0.44,-0.25
00:42:24.924:1,-0.465,-0.25
00:42:24.928:1,-0.49,-0.27
00:42:24.932:1,-0.485,-0.245
00:42:24.936:1,-0.52,-0.265
00:42:24.940:1,-0.51,-0.255
00:42:24.944:1,-0.495,-0.255
00:42:24.948:1,-0.49,-0.24
00:42:24.952:1,-0.48,-0.24
00:42:24.956:1,-0.46,-0.235
00:42:24.960:1,-0.425,-0.21
00:42:24.964:1,-0.435,-0.21
00:42:24.968:1,-0.46,-0.215
00:42:24.972:1,-0.465,-0.21
00:42:24.976:1,-0.46,-0.215
00:42:24.980:1,-0.44,-0.205
00:42:24.984:1,-0.43,-0.205
00:42:24.988:1,-0.415,-0.195
00:42:24.992:1,-0.41,-0.21
00:42:24.996:1,-0.39,-0.205
00:42:25.000:1,-0.375,-0.2
00:42:25.004:1,-0.37,-0.205
00:42:25.008:1,-0.37,-0.2
00:42:25.012:1,-0.35,-0.185
00:42:25.016:1,-0.39,-0.2
00:42:25.020:1,-0.365,-0.17
00:42:25.024:1,-0.38,-0.16
00:42:25.028:1,-0.365,-0.18
00:42:25.032:1,-0.36,-0.185
00:42:25.036:1,-0.33,-0.185
00:42:25.040:1,-0.275,-0.17
00:42:25.044:1,-0.2,-0.175
00:42:25.048:1,-0.1,-0.18
00:42:25.052:1,-0.015,-0.2
00:42:25.056:1,0.03,-0.21
00:42:25.060:1,0.095,-0.24
00:42:25.064:1,0.14,-0.26
00:42:25.068:1,0.16,-0.275
00:42:25.072:1,0.195,-0.33
00:42:25.076:1,0.24,-0.41
00:42:25.080:1,0.365,-0.54
00:42:25.084:1,0.635,-0.755
00:42:25.088:1,0.905,-1.005
00:42:25.092:1,1.13,-1.28
00:42:25.096:1,1.12,-1.455
00:42:25.100:1,0.83,-1.44
00:42:25.104:1,0.335,-1.155
00:42:25.108:1,-0.05,-0.785
00:42:25.112:1,-0.265,-0.47
00:42:25.116:1,-0.38,-0.285
00:42:25.120:1,-0.425,-0.165
00:42:25.124:1,-0.475,-0.08
00:42:25.128:1,-0.49,-0.05
00:42:25.132:1,-0.525,-0.02
00:42:25.136:1,-0.515,-0.02
00:42:25.140:1,-0.545,-0.01
00:42:25.144:1,-0.545,-0.03
00:42:25.148:1,-0.535,-0.055
00:42:25.152:1,-0.535,-0.07
00:42:25.156:1,-0.525,-0.065
00:42:25.160:1,-0.53,-0.05
00:42:25.164:1,-0.54,-0.035
00:42:25.168:1,-0.555,-0.04
00:42:25.172:1,-0.575,-0.02
00:42:25.176:1,-0.58,-0.04
00:42:25.180:1,-0.555,-0.015
00:42:25.184:1,-0.58,-0.01
00:42:25.188:1,-0.585,-0.015
00:42:25.192:1,-0.61,-0.005
00:42:25.196:1,-0.63,0.0
00:42:25.200:1,-0.625,-0.02
00:42:25.204:1,-0.62,-0.005
00:42:25.208:1,-0.615,0.0
00:42:25.212:1,-0.615,0.005
00:42:25.216:1,-0.63,-0.005
00:42:25.220:1,-0.59,0.005
00:42:25.224:1,-0.6,0.0
00:42:25.228:1,-0.56,0.0
00:42:25.232:1,-0.55,0.01
00:42:25.236:1,-0.555,0.025
00:42:25.240:1,-0.535,0.0
00:42:25.244:1,-0.52,0.0
00:42:25.248:1,-0.525,0.0
00:42:25.252:1,-0.51,0.01
00:42:25.256:1,-0.5,0.0
00:42:25.260:1,-0.485,0.02
00:42:25.264:1,-0.495,0.02
00:42:25.268:1,-0.49,0.02
00:42:25.272:1,-0.47,0.025
00:42:25.276:1,-0.445,0.045
00:42:25.280:1,-0.45,0.035
00:42:25.284:1,-0.44,0.02
00:42:25.288:1,-0.44,0.02
00:42:25.292:1,-0.435,0.03
00:42:25.296:1,-0.445,0.02
00:42:25.300:1,-0.45,0.02
00:42:25.304:1,-0.44,0.02
00:42:25.308:1,-0.425,0.005
00:42:25.312:1,-0.42,-0.015
00:42:25.316:1,-0.4,-0.06
00:42:25.320:1,-0.4,-0.06
00:42:25.324:1,-0.41,-0.065
00:42:25.328:1,-0.405,-0.105
00:42:25.332:1,-0.395,-0.095
00:42:25.336:1,-0.39,-0.095
00:42:25.340:1,-0.36,-0.095
00:42:25.344:1,-0.34,-0.105
00:42:25.348:1,-0.35,-0.095
00:42:25.352:1,-0.385,-0.08
00:42:25.356:1,-0.375,-0.08
00:42:25.360:1,-0.36,-0.06
00:42:25.364:1,-0.36,-0.065
00:42:25.368:1,-0.34,-0.06
00:42:25.372:1,-0.35,-0.045
00:42:25.376:1,-0.335,-0.03
00:42:25.380:1,-0.335,-0.05
00:42:25.384:1,-0.35,-0.035
00:42:25.388:1,-0.365,-0.01
00:42:25.392:1,-0.37,0.005
00:42:25.396:1,-0.37,0.0
00:42:25.400:1,-0.4,0.05
00:42:25.404:1,-0.4,0.05
00:42:25.408:1,-0.395,0.07
00:42:25.412:1,-0.375,0.075
00:42:25.416:1,-0.365,0.065
00:42:25.420:1,-0.36,0.075
00:42:25.424:1,-0.385,0.085
00:42:25.428:1,-0.39,0.105
00:42:25.432:1,-0.38,0.14
00:42:25.436:1,-0.345,0.14
00:42:25.440:1,-0.295,0.155
00:42:25.444:1,-0.235,0.145
00:42:25.448:1,-0.16,0.155
00:42:25.452:1,-0.09,0.145
00:42:25.456:1,-0.06,0.11
00:42:25.460:1,-0.05,0.095
00:42:25.464:1,-0.065,0.1
00:42:25.468:1,-0.085,0.095
00:42:25.472:1,-0.095,0.11
00:42:25.476:1,-0.05,0.07
00:42:25.480:1,0.14,-0.015
00:42:25.484:1,0.44,-0.215
00:42:25.488:1,0.745,-0.43
00:42:25.492:1,1.01,-0.725
00:42:25.496:1,1.09,-0.92
00:42:25.500:1,0.955,-0.935
00:42:25.504:1,0.57,-0.685
00:42:25.508:1,0.15,-0.3
00:42:25.512:1,-0.16,0.06
00:42:25.516:1,-0.31,0.295
00:42:25.520:1,-0.39,0.425
00:42:25.524:1,-0.425,0.48
00:42:25.528:1,-0.445,0.525
00:42:25.532:1,-0.495,0.515
00:42:25.536:1,-0.51,0.515
00:42:25.540:1,-0.525,0.55
00:42:25.544:1,-0.555,0.54
00:42:25.548:1,-0.57,0.505
00:42:25.552:1,-0.57,0.5
00:42:25.556:1,-0.535,0.46
00:42:25.560:1,-0.54,0.45
00:42:25.564:1,-0.555,0.45
00:42:25.568:1,-0.545,0.46
00:42:25.572:1,-0.545,0.46
00:42:25.576:1,-0.545,0.425
00:42:25.580:1,-0.545,0.4
00:42:25.584:1,-0.545,0.41
00:42:25.588:1,-0.545,0.405
00:42:25.592:1,-0.565,0.415
00:42:25.596:1,-0.575,0.435
00:42:25.600:1,-0.57,0.465
00:42:25.604:1,-0.59,0.485
00:42:25.608:1,-0.59,0.5
00:42:25.612:1,-0.57,0.5
00:42:25.616:1,-0.595,0.515
00:42:25.620:1,-0.625,0.505
00:42:25.624:1,-0.63,0.505
00:42:25.628:1,-0.66,0.505
00:42:25.632:1,-0.685,0.53
00:42:25.636:1,-0.665,0.53
00:42:25.640:1,-0.685,0.54
00:42:25.644:1,-0.68,0.56
00:42:25.648:1,-0.65,0.56
00:42:25.652:1,-0.68,0.57
00:42:25.656:1,-0.665,0.575
00:42:25.660:1,-0.65,0.565
00:42:25.664:1,-0.62,0.56
00:42:25.668:1,-0.59,0.56
00:42:25.672:1,-0.605,0.56
00:42:25.676:1,-0.62,0.565
00:42:25.680:1,-0.6,0.58
00:42:25.684:1,-0.58,0.62
00:42:25.688:1,-0.555,0.585
00:42:25.692:1,-0.54,0.6
00:42:25.696:1,-0.52,0.62
00:42:25.700:1,-0.495,0.57
00:42:25.704:1,-0.475,0.59
00:42:25.708:1,-0.475,0.595
00:42:25.712:1,-0.46,0.62
00:42:25.716:1,-0.445,0.615
00:42:25.720:1,-0.415,0.61
00:42:25.724:1,-0.42,0.635
00:42:25.728:1,-0.395,0.63
00:42:25.732:1,-0.36,0.63
00:42:25.736:1,-0.33,0.635
00:42:25.740:1,-0.345,0.635
00:42:25.744:1,-0.375,0.62
00:42:25.748:1,-0.38,0.585
00:42:25.752:1,-0.375,0.565
00:42:25.756:1,-0.38,0.535
00:42:25.760:1,-0.37,0.525
00:42:25.764:1,-0.35,0.55
00:42:25.768:1,-0.38,0.555
00:42:25.772:1,-0.41,0.555
00:42:25.776:1,-0.425,0.57
00:42:25.780:1,-0.425,0.585
00:42:25.784:1,-0.44,0.59
00:42:25.788:1,-0.415,0.59
00:42:25.792:1,-0.38,0.59
00:42:25.796:1,-0.38,0.59
00:42:25.800:1,-0.36,0.595
00:42:25.804:1,-0.34,0.6
00:42:25.808:1,-0.335,0.585
00:42:25.812:1,-0.35,0.57
00:42:25.816:1,-0.38,0.56
00:42:25.820:1,-0.39,0.545
00:42:25.824:1,-0.36,0.555
00:42:25.828:1,-0.33,0.545
00:42:25.832:1,-0.3,0.53
00:42:25.836:1,-0.27,0.51
00:42:25.840:1,-0.185,0.515
00:42:25.844:1,-0.165,0.495
00:42:25.848:1,-0.14,0.46
00:42:25.852:1,-0.16,0.445
00:42:25.856:1,-0.17,0.405
00:42:25.860:1,-0.155,0.41
00:42:25.864:1,-0.18,0.39
00:42:25.868:1,-0.18,0.34
00:42:25.872:1,-0.045,0.26
00:42:25.876:1,0.225,0.135
00:42:25.880:1,0.56,-0.105
00:42:25.884:1,0.835,-0.405
00:42:25.888:1,0.97,-0.665
00:42:25.892:1,0.86,-0.685
00:42:25.896:1,0.54,-0.54
00:42:25.900:1,0.09,-0.205
00:42:25.904:1,-0.23,0.17
00:42:25.908:1,-0.375,0.415
00:42:25.912:1,-0.43,0.57
00:42:25.916:1,-0.49,0.605
00:42:25.920:1,-0.52,0.625
00:42:25.924:1,-0.535,0.63
00:42:25.928:1,-0.525,0.625
00:42:25.932:1,-0.525,0.61
00:42:25.936:1,-0.535,0.61
00:42:25.940:1,-0.545,0.63
00:42:25.944:1,-0.56,0.595
00:42:25.948:1,-0.54,0.615
00:42:25.952:1,-0.545,0.6
00:42:25.956:1,-0.555,0.605
00:42:25.960:1,-0.555,0.59
00:42:25.964:1,-0.53,0.61
00:42:25.968:1,-0.54,0.595
00:42:25.972:1,-0.54,0.6
00:42:25.976:1,-0.55,0.605
00:42:25.980:1,-0.565,0.595
00:42:25.984:1,-0.555,0.615
00:42:25.988:1,-0.565,0.635
00:42:25.992:1,-0.58,0.615
00:42:25.996:1,-0.6,0.62
00:42:26.000:1,-0.59,0.575
00:42:26.004:1,-0.61,0.605
00:42:26.008:1,-0.59,0.615
00:42:26.012:1,-0.6,0.62
00:42:26.016:1,-0.6,0.64
00:42:26.020:1,-0.595,0.62
00:42:26.024:1,-0.57,0.59
00:42:26.028:1,-0.56,0.595
00:42:26.032:1,-0.555,0.57
00:42:26.036:1,-0.555,0.58
00:42:26.040:1,-0.57,0.565
00:42:26.044:1,-0.55,0.56
00:42:26.048:1,-0.56,0.535
00:42:26.052:1,-0.58,0.52
00:42:26.056:1,-0.59,0.5
00:42:26.060:1,-0.58,0.52
00:42:26.064:1,-0.565,0.525
00:42:26.068:1,-0.565,0.5
00:42:26.072:1,-0.545,0.52
00:42:26.076:1,-0.565,0.5
00:42:26.080:1,-0.565,0.51
00:42:26.084:1,-0.565,0.495
00:42:26.088:1,-0.56,0.5
00:42:26.092:1,-0.56,0.495
00:42:26.096:1,-0.56,0.48
00:42:26.100:1,-0.56,0.47
00:42:26.104:1,-0.575,0.495
00:42:26.108:1,-0.535,0.465
00:42:26.112:1,-0.51,0.49
00:42:26.116:1,-0.485,0.505
00:42:26.120:1,-0.455,0.495
00:42:26.124:1,-0.44,0.49
00:42:26.128:1,-0.445,0.505
00:42:26.132:1,-0.45,0.515
00:42:26.136:1,-0.445,0.52
00:42:26.140:1,-0.425,0.52
00:42:26.144:1,-0.41,0.535
00:42:26.148:1,-0.385,0.525
00:42:26.152:1,-0.365,0.53
00:42:26.156:1,-0.37,0.54
00:42:26.160:1,-0.385,0.535
00:42:26.164:1,-0.4,0.56
00:42:26.168:1,-0.39,0.59
00:42:26.172:1,-0.4,0.585
00:42:26.176:1,-0.415,0.605
00:42:26.180:1,-0.4,0.615
00:42:26.184:1,-0.405,0.615
00:42:26.188:1,-0.385,0.595
00:42:26.192:1,-0.385,0.63
00:42:26.196:1,-0.355,0.63
00:42:26.200:1,-0.28,0.645
00:42:26.204:1,-0.21,0.635
00:42:26.208:1,-0.145,0.63
00:42:26.212:1,-0.09,0.605
00:42:26.216:1,-0.07,0.575
00:42:26.220:1,-0.085,0.58
00:42:26.224:1,-0.14,0.625
00:42:26.228:1,-0.2,0.63
00:42:26.232:1,-0.165,0.595
00:42:26.236:1,0.005,0.51
00:42:26.240:1,0.28,0.4
00:42:26.244:1,0.58,0.155
00:42:26.248:1,0.82,-0.15
00:42:26.252:1,0.9,-0.42
00:42:26.256:1,0.775,-0.465
00:42:26.260:1,0.46,-0.315
00:42:26.264:1,0.05,0.02
00:42:26.268:1,-0.235,0.36
00:42:26.272:1,-0.37,0.63
00:42:26.276:1,-0.425,0.735
00:42:26.280:1,-0.49,0.795
00:42:26.284:1,-0.515,0.805
00:42:26.288:1,-0.54,0.815
00:42:26.292:1,-0.585,0.8
00:42:26.296:1,-0.605,0.77
00:42:26.300:1,-0.64,0.73
00:42:26.304:1,-0.655,0.74
00:42:26.308:1,-0.66,0.715
00:42:26.312:1,-0.665,0.695
00:42:26.316:1,-0.665,0.68
00:42:26.320:1,-0.64,0.69
00:42:26.324:1,-0.64,0.69
00:42:26.328:1,-0.64,0.705
00:42:26.332:1,-0.665,0.705
00:42:26.336:1,-0.69,0.715
00:42:26.340:1,-0.68,0.71
00:42:26.344:1,-0.695,0.71
00:42:26.348:1,-0.705,0.745
00:42:26.352:1,-0.68,0.74
00:42:26.356:1,-0.66,0.735
00:42:26.360:1,-0.665,0.725
00:42:26.364:1,-0.67,0.73
00:42:26.368:1,-0.665,0.735
00:42:26.372:1,-0.635,0.745
00:42:26.376:1,-0.635,0.745
00:42:26.380:1,-0.635,0.75
00:42:26.384:1,-0.64,0.775
00:42:26.388:1,-0.63,0.74
00:42:26.392:1,-0.635,0.75
00:42:26.396:1,-0.63,0.76
00:42:26.400:1,-0.63,0.795
00:42:26.404:1,-0.635,0.77
00:42:26.408:1,-0.63,0.79
00:42:26.412:1,-0.63,0.79
00:42:26.416:1,-0.625,0.805
00:42:26.420:1,-0.6,0.8
00:42:26.424:1,-0.605,0.82
00:42:26.428:1,-0.615,0.835
00:42:26.432:1,-0.625,0.84
00:42:26.436:1,-0.61,0.82
00:42:26.440:1,-0.62,0.775
00:42:26.444:1,-0.63,0.72
00:42:26.448:1,-0.62,0.735
00:42:26.452:1,-0.605,0.735
00:42:26.456:1,-0.59,0.74
00:42:26.460:1,-0.6,0.715
00:42:26.464:1,-0.605,0.72
00:42:26.468:1,-0.58,0.65
00:42:26.472:1,-0.555,0.595
00:42:26.476:1,-0.52,0.54
00:42:26.480:1,-0.48,0.55
00:42:26.484:1,-0.465,0.56
00:42:26.488:1,-0.45,0.58
00:42:26.492:1,-0.455,0.545
00:42:26.496:1,-0.445,0.525
00:42:26.500:1,-0.445,0.505
00:42:26.504:1,-0.445,0.5
00:42:26.508:1,-0.43,0.48
00:42:26.512:1,-0.46,0.495
00:42:26.516:1,-0.46,0.52
00:42:26.520:1,-0.45,0.51
00:42:26.524:1,-0.45,0.48
00:42:26.528:1,-0.44,0.49
00:42:26.532:1,-0.45,0.46
00:42:26.536:1,-0.46,0.49
00:42:26.540:1,-0.465,0.475
00:42:26.544:1,-0.465,0.49
00:42:26.548:1,-0.445,0.475
00:42:26.552:1,-0.48,0.495
00:42:26.556:1,-0.48,0.47
00:42:26.560:1,-0.51,0.485
00:42:26.564:1,-0.515,0.47
00:42:26.568:1,-0.515,0.47
00:42:26.572:1,-0.51,0.455
00:42:26.576:1,-0.535,0.44
00:42:26.580:1,-0.535,0.43
00:42:26.584:1,-0.535,0.41
00:42:26.588:1,-0.505,0.41
00:42:26.592:1,-0.45,0.405
00:42:26.596:1,-0.44,0.39
00:42:26.600:1,-0.37,0.36
00:42:26.604:1,-0.29,0.34
00:42:26.608:1,-0.16,0.335
00:42:26.612:1,-0.09,0.295
00:42:26.616:1,-0.01,0.245
00:42:26.620:1,0.08,0.225
00:42:26.624:1,0.135,0.215
00:42:26.628:1,0.15,0.24
00:42:26.632:1,0.155,0.24
00:42:26.636:1,0.165,0.21
00:42:26.640:1,0.3,0.11
00:42:26.644:1,0.54,-0.04
00:42:26.648:1,0.81,-0.27
00:42:26.652:1,0.94,-0.555
00:42:26.656:1,0.85,-0.7
00:42:26.660:1,0.465,-0.68
00:42:26.664:1,0.045,-0.405
00:42:26.668:1,-0.255,-0.1
00:42:26.672:1,-0.39,0.105
00:42:26.676:1,-0.48,0.25
00:42:26.680:1,-0.53,0.325
00:42:26.684:1,-0.57,0.375
00:42:26.688:1,-0.61,0.36
00:42:26.692:1,-0.59,0.355
00:42:26.696:1,-0.585,0.345
00:42:26.700:1,-0.605,0.335
00:42:26.704:1,-0.61,0.295
00:42:26.708:1,-0.615,0.28
00:42:26.712:1,-0.595,0.275
00:42:26.716:1,-0.6,0.26
00:42:26.720:1,-0.595,0.245
00:42:26.724:1,-0.61,0.23
00:42:26.728:1,-0.615,0.22
00:42:26.732:1,-0.64,0.225
00:42:26.736:1,-0.645,0.24
00:42:26.740:1,-0.635,0.22
00:42:26.744:1,-0.65,0.225
00:42:26.748:1,-0.66,0.225
00:42:26.752:1,-0.675,0.235
00:42:26.756:1,-0.685,0.235
00:42:26.760:1,-0.685,0.23
00:42:26.764:1,-0.705,0.23
00:42:26.768:1,-0.72,0.215
00:42:26.772:1,-0.73,0.225
00:42:26.776:1,-0.765,0.195
00:42:26.780:1,-0.78,0.205
00:42:26.784:1,-0.785,0.19
00:42:26.788:1,-0.775,0.215
00:42:26.792:1,-0.77,0.215
00:42:26.796:1,-0.765,0.225
00:42:26.800:1,-0.75,0.225
00:42:26.804:1,-0.735,0.22
00:42:26.808:1,-0.72,0.235
00:42:26.812:1,-0.745,0.225
00:42:26.816:1,-0.73,0.22
00:42:26.820:1,-0.735,0.23
00:42:26.824:1,-0.72,0.235
00:42:26.828:1,-0.7,0.225
00:42:26.832:1,-0.645,0.255
00:42:26.836:1,-0.65,0.24
00:42:26.840:1,-0.64,0.24
00:42:26.844:1,-0.625,0.265
00:42:26.848:1,-0.58,0.28
00:42:26.852:1,-0.59,0.255
00:42:26.856:1,-0.555,0.285
00:42:26.860:1,-0.54,0.275
00:42:26.864:1,-0.55,0.305
00:42:26.868:1,-0.56,0.3
00:42:26.872:1,-0.575,0.315
00:42:26.876:1,-0.56,0.31
00:42:26.880:1,-0.545,0.305
00:42:26.884:1,-0.55,0.325
00:42:26.888:1,-0.55,0.325
00:42:26.892:1,-0.53,0.33
00:42:26.896:1,-0.52,0.335
00:42:26.900:1,-0.55,0.33
00:42:26.904:1,-0.535,0.33
00:42:26.908:1,-0.535,0.35
00:42:26.912:1,-0.505,0.325
00:42:26.916:1,-0.505,0.34
00:42:26.920:1,-0.495,0.34
00:42:26.924:1,-0.5,0.34
00:42:26.928:1,-0.48,0.35
00:42:26.932:1,-0.46,0.345
00:42:26.936:1,-0.455,0.38
00:42:26.940:1,-0.445,0.36
00:42:26.944:1,-0.405,0.38
00:42:26.948:1,-0.415,0.355
00:42:26.952:1,-0.395,0.35
00:42:26.956:1,-0.405,0.375
00:42:26.960:1,-0.405,0.405
00:42:26.964:1,-0.385,0.395
00:42:26.968:1,-0.405,0.41
00:42:26.972:1,-0.435,0.42
00:42:26.976:1,-0.43,0.415
00:42:26.980:1,-0.45,0.435
00:42:26.984:1,-0.43,0.45
00:42:26.988:1,-0.435,0.45
00:42:26.992:1,-0.42,0.425
00:42:26.996:1,-0.42,0.43
00:42:27.000:1,-0.38,0.42
00:42:27.004:1,-0.31,0.435
00:42:27.008:1,-0.24,0.45
00:42:27.012:1,-0.145,0.45
00:42:27.016:1,-0.06,0.445
00:42:27.020:1,-0.025,0.405
00:42:27.024:1,-0.01,0.395
00:42:27.028:1,0.02,0.4
00:42:27.032:1,0.045,0.41
00:42:27.036:1,0.025,0.375
00:42:27.040:1,0.065,0.305
00:42:27.044:1,0.255,0.2
00:42:27.048:1,0.54,0.005
00:42:27.052:1,0.82,-0.255
00:42:27.056:1,1.0,-0.53
00:42:27.060:1,0.97,-0.675
00:42:27.064:1,0.67,-0.61
00:42:27.068:1,0.22,-0.32
00:42:27.072:1,-0.125,0.045
00:42:27.076:1,-0.32,0.325
00:42:27.080:1,-0.435,0.51
00:42:27.084:1,-0.465,0.61
00:42:27.088:1,-0.505,0.68
00:42:27.092:1,-0.54,0.715
00:42:27.096:1,-0.56,0.72
00:42:27.100:1,-0.605,0.725
00:42:27.104:1,-0.635,0.745
00:42:27.108:1,-0.68,0.725
00:42:27.112:1,-0.69,0.725
00:42:27.116:1,-0.695,0.715
00:42:27.120:1,-0.72,0.71
00:42:27.124:1,-0.7,0.725
00:42:27.128:1,-0.69,0.71
00:42:27.132:1,-0.7,0.685
00:42:27.136:1,-0.695,0.685
00:42:27.140:1,-0.69,0.66
00:42:27.144:1,-0.69,0.66
00:42:27.148:1,-0.68,0.665
00:42:27.152:1,-0.695,0.665
00:42:27.156:1,-0.705,0.68
00:42:27.160:1,-0.7,0.675
00:42:27.164:1,-0.695,0.68
00:42:27.168:1,-0.655,0.7
00:42:27.172:1,-0.645,0.685
00:42:27.176:1,-0.64,0.705
00:42:27.180:1,-0.655,0.715
00:42:27.184:1,-0.64,0.725
00:42:27.188:1,-0.63,0.72
00:42:27.192:1,-0.6,0.69
00:42:27.196:1,-0.6,0.66
00:42:27.200:1,-0.6,0.635
00:42:27.204:1,-0.6,0.63
00:42:27.208:1,-0.58,0.61
00:42:27.212:1,-0.61,0.63
00:42:27.216:1,-0.64,0.6
00:42:27.220:1,-0.61,0.61
00:42:27.224:1,-0.58,0.595
00:42:27.228:1,-0.59,0.585
00:42:27.232:1,-0.56,0.6
00:42:27.236:1,-0.565,0.595
00:42:27.240:1,-0.55,0.585
00:42:27.244:1,-0.54,0.585
00:42:27.248:1,-0.545,0.565
00:42:27.252:1,-0.53,0.545
00:42:27.256:1,-0.51,0.535
00:42:27.260:1,-0.495,0.55
00:42:27.264:1,-0.47,0.53
00:42:27.268:1,-0.445,0.52
00:42:27.272:1,-0.455,0.525
00:42:27.276:1,-0.435,0.525
00:42:27.280:1,-0.405,0.51
00:42:27.284:1,-0.375,0.495
00:42:27.288:1,-0.355,0.495
00:42:27.292:1,-0.35,0.505
00:42:27.296:1,-0.33,0.495
00:42:27.300:1,-0.325,0.485
00:42:27.304:1,-0.32,0.515
00:42:27.308:1,-0.31,0.51
00:42:27.312:1,-0.295,0.485
00:42:27.316:1,-0.305,0.485
00:42:27.320:1,-0.31,0.485
00:42:27.324:1,-0.315,0.49
00:42:27.328:1,-0.32,0.49
00:42:27.332:1,-0.335,0.5
00:42:27.336:1,-0.355,0.505
00:42:27.340:1,-0.395,0.515
00:42:27.344:1,-0.395,0.52
00:42:27.348:1,-0.41,0.49
00:42:27.352:1,-0.4,0.49
00:42:27.356:1,-0.4,0.465
00:42:27.360:1,-0.435,0.46
00:42:27.364:1,-0.42,0.46
00:42:27.368:1,-0.415,0.465
00:42:27.372:1,-0.42,0.47
00:42:27.376:1,-0.43,0.43
00:42:27.380:1,-0.415,0.43
00:42:27.384:1,-0.46,0.425
00:42:27.388:1,-0.455,0.425
00:42:27.392:1,-0.46,0.44
00:42:27.396:1,-0.44,0.45
00:42:27.400:1,-0.46,0.45
00:42:27.404:1,-0.465,0.45
00:42:27.408:1,-0.47,0.42
00:42:27.412:1,-0.465,0.43
00:42:27.416:1,-0.44,0.395
00:42:27.420:1,-0.45,0.385
00:42:27.424:1,-0.44,0.4
00:42:27.428:1,-0.43,0.365
00:42:27.432:1,-0.43,0.35
00:42:27.436:1,-0.45,0.335
00:42:27.440:1,-0.47,0.325
00:42:27.444:1,-0.445,0.31
00:42:27.448:1,-0.435,0.285
00:42:27.452:1,-0.425,0.31
00:42:27.456:1,-0.425,0.3
00:42:27.460:1,-0.42,0.305
00:42:27.464:1,-0.42,0.295
00:42:27.468:1,-0.41,0.3
00:42:27.472:1,-0.425,0.3
00:42:27.476:1,-0.4,0.275
00:42:27.480:1,-0.415,0.295
00:42:27.484:1,-0.4,0.305
00:42:27.488:1,-0.415,0.285
00:42:27.492:1,-0.39,0.315
00:42:27.496:1,-0.375,0.275
00:42:27.500:1,-0.35,0.28
00:42:27.504:1,-0.345,0.29
00:42:27.508:1,-0.35,0.28
00:42:27.512:1,-0.335,0.285
00:42:27.516:1,-0.345,0.28
00:42:27.520:1,-0.355,0.28
00:42:27.524:1,-0.345,0.275
00:42:27.528:1,-0.32,0.28
00:42:27.532:1,-0.31,0.305
00:42:27.536:1,-0.285,0.28
00:42:27.540:1,-0.295,0.29
00:42:27.544:1,-0.285,0.295
00:42:27.548:1,-0.3,0.3
00:42:27.552:1,-0.305,0.285
00:42:27.556:1,-0.295,0.305
00:42:27.560:1,-0.285,0.315
00:42:27.564:1,-0.3,0.33
00:42:27.568:1,-0.295,0.33
00:42:27.572:1,-0.285,0.33
00:42:27.576:1,-0.235,0.345
00:42:27.580:1,-0.13,0.325
00:42:27.584:1,-0.045,0.34
00:42:27.588:1,0.015,0.32
00:42:27.592:1,0.075,0.295
00:42:27.596:1,0.055,0.275
00:42:27.600:1,0.065,0.28
00:42:27.604:1,0.055,0.3
00:42:27.608:1,0.035,0.27
00:42:27.612:1,0.055,0.155
00:42:27.616:1,0.2,0.045
00:42:27.620:1,0.47,-0.175
00:42:27.624:1,0.74,-0.44
00:42:27.628:1,0.92,-0.715
00:42:27.632:1,0.945,-0.9
00:42:27.636:1,0.715,-0.885
00:42:27.640:1,0.26,-0.59
00:42:27.644:1,-0.135,-0.235
00:42:27.648:1,-0.37,0.105
00:42:27.652:1,-0.46,0.265
00:42:27.656:1,-0.49,0.39
00:42:27.660:1,-0.53,0.455
00:42:27.664:1,-0.545,0.485
