Time,ECG1,ECG2
16:03:35.688,-0.255,-0.075
16:03:35.692,-0.23,-0.05
16:03:35.696,-0.22,-0.02
16:03:35.700,-0.2,0.015
16:03:35.704,-0.19,0.02
16:03:35.708,-0.145,0.05
16:03:35.712,-0.12,0.075
16:03:35.716,-0.105,0.065
16:03:35.720,-0.08,0.08
16:03:35.724,-0.07,0.115
16:03:35.728,-0.055,0.125
16:03:35.732,-0.02,0.13
16:03:35.736,-0.005,0.125
16:03:35.740,0.0,0.1
16:03:35.744,0.01,0.07
16:03:35.748,0.035,0.045
16:03:35.752,0.06,0.025
16:03:35.756,0.16,0.025
16:03:35.760,0.33,0.025
16:03:35.764,0.53,0.07
16:03:35.768,0.68,0.095
16:03:35.772,0.735,0.135
16:03:35.776,0.565,0.09
16:03:35.780,0.185,0.08
16:03:35.784,-0.225,0.09
16:03:35.788,-0.47,0.105
16:03:35.792,-0.565,0.225
16:03:35.796,-0.555,0.455
16:03:35.800,-0.52,0.665
16:03:35.804,-0.515,0.76
16:03:35.808,-0.535,0.815
16:03:35.812,-0.57,0.865
16:03:35.816,-0.6,0.92
16:03:35.820,-0.6,0.965
16:03:35.824,-0.645,1.06
16:03:35.828,-0.665,1.12
16:03:35.832,-0.69,1.15
16:03:35.836,-0.685,1.21
16:03:35.840,-0.6,1.24
16:03:35.844,-0.505,1.24
16:03:35.848,-0.395,1.2
16:03:35.852,-0.34,1.07
16:03:35.856,-0.33,0.835
16:03:35.860,-0.325,0.49
16:03:35.864,-0.325,0.14
16:03:35.868,-0.31,-0.065
16:03:35.872,-0.315,-0.15
16:03:35.876,-0.345,-0.18
16:03:35.880,-0.355,-0.22
16:03:35.884,-0.36,-0.265
16:03:35.888,-0.36,-0.295
16:03:35.892,-0.335,-0.335
16:03:35.896,-0.355,-0.365
16:03:35.900,-0.32,-0.41
16:03:35.904,-0.29,-0.4
16:03:35.908,-0.245,-0.425
16:03:35.912,-0.205,-0.44
16:03:35.916,-0.18,-0.49
16:03:35.920,-0.15,-0.5
16:03:35.924,-0.09,-0.505
16:03:35.928,-0.045,-0.51
16:03:35.932,0.0,-0.51
16:03:35.936,0.015,-0.535
16:03:35.940,0.075,-0.55
16:03:35.944,0.115,-0.555
16:03:35.948,0.155,-0.565
16:03:35.952,0.155,-0.555
16:03:35.956,0.155,-0.565
16:03:35.960,0.165,-0.605
16:03:35.964,0.145,-0.625
16:03:35.968,0.13,-0.69
16:03:35.972,0.12,-0.7
16:03:35.976,0.1,-0.71
16:03:35.980,0.09,-0.71
16:03:35.984,0.05,-0.725
16:03:35.988,0.03,-0.705
16:03:35.992,0.015,-0.675
16:03:35.996,0.01,-0.665
16:03:36.000,-0.02,-0.64
16:03:36.004,-0.01,-0.59
16:03:36.008,-0.03,-0.565
16:03:36.012,-0.03,-0.56
16:03:36.016,-0.01,-0.49
16:03:36.020,-0.035,-0.43
16:03:36.024,-0.035,-0.415
16:03:36.028,-0.04,-0.375
16:03:36.032,-0.01,-0.325
16:03:36.036,-0.04,-0.3
16:03:36.040,-0.07,-0.245
16:03:36.044,-0.04,-0.225
16:03:36.048,-0.055,-0.195
16:03:36.052,-0.05,-0.145
16:03:36.056,-0.03,-0.13
16:03:36.060,-0.045,-0.14
16:03:36.064,-0.115,-0.08
16:03:36.068,-0.155,-0.07
16:03:36.072,-0.145,-0.08
16:03:36.076,-0.16,-0.1
16:03:36.080,-0.18,-0.09
16:03:36.084,-0.19,-0.095
16:03:36.088,-0.215,-0.08
16:03:36.092,-0.22,-0.07
16:03:36.096,-0.23,-0.075
16:03:36.100,-0.18,-0.08
16:03:36.104,-0.06,-0.09
16:03:36.108,-0.035,-0.08
16:03:36.112,-0.05,-0.075
16:03:36.116,-0.165,-0.07
16:03:36.120,-0.23,-0.035
16:03:36.124,-0.23,-0.03
16:03:36.128,-0.2,-0.02
16:03:36.132,-0.16,-0.04
16:03:36.136,-0.125,0.0
16:03:36.140,-0.085,0.04
16:03:36.144,-0.065,0.03
16:03:36.148,-0.035,0.065
16:03:36.152,-0.01,0.065
16:03:36.156,-0.01,0.085
16:03:36.160,-0.04,0.09
16:03:36.164,-0.065,0.085
16:03:36.168,-0.015,0.075
16:03:36.172,0.175,0.105
16:03:36.176,0.405,0.135
16:03:36.180,0.61,0.185
16:03:36.184,0.655,0.155
16:03:36.188,0.46,0.16
16:03:36.192,0.09,0.13
16:03:36.196,-0.225,0.075
16:03:36.200,-0.43,0.1
16:03:36.204,-0.495,0.24
16:03:36.208,-0.465,0.455
16:03:36.212,-0.45,0.565
16:03:36.216,-0.425,0.72
16:03:36.220,-0.46,0.815
16:03:36.224,-0.505,0.965
16:03:36.228,-0.53,1.065
16:03:36.232,-0.505,1.02
16:03:36.236,-0.415,0.835
16:03:36.240,-0.26,0.655
16:03:36.244,-0.2,0.515
16:03:36.248,-0.225,0.42
16:03:36.252,-0.265,0.295
16:03:36.256,-0.265,0.125
16:03:36.260,-0.27,-0.02
16:03:36.264,-0.285,-0.035
16:03:36.268,-0.275,-0.06
16:03:36.272,-0.255,-0.12
16:03:36.276,-0.22,-0.125
16:03:36.280,-0.255,-0.115
16:03:36.284,-0.26,-0.14
16:03:36.288,-0.255,-0.175
16:03:36.292,-0.235,-0.185
16:03:36.296,-0.215,-0.18
16:03:36.300,-0.175,-0.175
16:03:36.304,-0.135,-0.21
16:03:36.308,-0.1,-0.23
16:03:36.312,-0.075,-0.235
16:03:36.316,-0.04,-0.24
16:03:36.320,0.02,-0.24
16:03:36.324,0.05,-0.245
16:03:36.328,0.115,-0.25
16:03:36.332,0.13,-0.255
16:03:36.336,0.175,-0.25
16:03:36.340,0.185,-0.28
16:03:36.344,0.195,-0.27
16:03:36.348,0.215,-0.3
16:03:36.352,0.225,-0.315
16:03:36.356,0.22,-0.315
16:03:36.360,0.235,-0.315
16:03:36.364,0.26,-0.32
16:03:36.368,0.305,-0.37
16:03:36.372,0.345,-0.4
16:03:36.376,0.29,-0.42
16:03:36.380,0.2,-0.46
16:03:36.384,0.1,-0.46
16:03:36.388,0.05,-0.465
16:03:36.392,0.055,-0.44
16:03:36.396,0.065,-0.42
16:03:36.400,0.055,-0.42
16:03:36.404,0.035,-0.395
16:03:36.408,0.01,-0.36
16:03:36.412,-0.005,-0.34
16:03:36.416,-0.02,-0.3
16:03:36.420,-0.01,-0.28
16:03:36.424,-0.005,-0.24
16:03:36.428,-0.005,-0.235
16:03:36.432,-0.03,-0.235
16:03:36.436,-0.035,-0.195
16:03:36.440,-0.08,-0.155
16:03:36.444,-0.075,-0.135
16:03:36.448,-0.095,-0.13
16:03:36.452,-0.08,-0.125
16:03:36.456,-0.075,-0.11
16:03:36.460,-0.09,-0.08
16:03:36.464,-0.1,-0.09
16:03:36.468,-0.06,-0.08
16:03:36.472,0.055,-0.035
16:03:36.476,0.23,-0.05
16:03:36.480,0.44,-0.015
16:03:36.484,0.65,0.01
16:03:36.488,0.695,0.05
16:03:36.492,0.535,0.02
16:03:36.496,0.185,0.0
16:03:36.500,-0.175,0.02
16:03:36.504,-0.41,0.07
16:03:36.508,-0.505,0.195
16:03:36.512,-0.5,0.415
16:03:36.516,-0.49,0.615
16:03:36.520,-0.49,0.705
16:03:36.524,-0.505,0.735
16:03:36.528,-0.485,0.81
16:03:36.532,-0.495,0.895
16:03:36.536,-0.505,0.985
16:03:36.540,-0.5,1.085
16:03:36.544,-0.445,1.115
16:03:36.548,-0.41,1.22
16:03:36.552,-0.35,1.275
16:03:36.556,-0.265,1.315
16:03:36.560,-0.185,1.215
16:03:36.564,-0.15,1.005
16:03:36.568,-0.1,0.67
16:03:36.572,-0.065,0.295
16:03:36.576,-0.05,0.03
16:03:36.580,-0.07,-0.11
16:03:36.584,-0.065,-0.195
16:03:36.588,-0.065,-0.25
16:03:36.592,-0.1,-0.285
16:03:36.596,-0.09,-0.33
16:03:36.600,-0.06,-0.36
16:03:36.604,-0.07,-0.4
16:03:36.608,-0.05,-0.41
16:03:36.612,-0.04,-0.43
16:03:36.616,-0.025,-0.435
16:03:36.620,-0.06,-0.465
16:03:36.624,-0.05,-0.49
16:03:36.628,-0.035,-0.535
16:03:36.632,-0.025,-0.575
16:03:36.636,-0.015,-0.58
16:03:36.640,0.005,-0.6
16:03:36.644,0.01,-0.64
16:03:36.648,0.04,-0.67
16:03:36.652,0.05,-0.65
16:03:36.656,0.065,-0.69
16:03:36.660,0.055,-0.715
16:03:36.664,0.07,-0.72
16:03:36.668,0.075,-0.74
16:03:36.672,0.05,-0.74
16:03:36.676,0.045,-0.74
16:03:36.680,0.025,-0.75
16:03:36.684,0.01,-0.735
16:03:36.688,-0.015,-0.71
16:03:36.692,-0.02,-0.695
16:03:36.696,-0.04,-0.705
16:03:36.700,-0.045,-0.655
16:03:36.704,-0.05,-0.625
16:03:36.708,-0.065,-0.6
16:03:36.712,-0.04,-0.565
16:03:36.716,-0.02,-0.53
16:03:36.720,-0.02,-0.46
16:03:36.724,0.015,-0.41
16:03:36.728,0.1,-0.355
16:03:36.732,0.15,-0.3
16:03:36.736,0.165,-0.265
16:03:36.740,0.1,-0.22
16:03:36.744,0.06,-0.225
16:03:36.748,0.105,-0.155
16:03:36.752,0.195,-0.135
16:03:36.756,0.37,-0.105
16:03:36.760,0.595,-0.075
16:03:36.764,0.835,-0.035
16:03:36.768,0.995,-0.005
16:03:36.772,0.92,-0.01
16:03:36.776,0.595,-0.015
16:03:36.780,0.17,-0.02
16:03:36.784,-0.13,-0.025
16:03:36.788,-0.29,0.025
16:03:36.792,-0.38,0.245
16:03:36.796,-0.44,0.46
16:03:36.800,-0.45,0.565
16:03:36.804,-0.46,0.62
16:03:36.808,-0.475,0.665
16:03:36.812,-0.47,0.71
16:03:36.816,-0.47,0.795
16:03:36.820,-0.485,0.89
16:03:36.824,-0.505,0.96
16:03:36.828,-0.52,1.05
16:03:36.832,-0.535,1.16
16:03:36.836,-0.48,1.22
16:03:36.840,-0.39,1.235
16:03:36.844,-0.315,1.15
16:03:36.848,-0.27,0.87
16:03:36.852,-0.23,0.515
16:03:36.856,-0.2,0.135
16:03:36.860,-0.19,-0.11
16:03:36.864,-0.2,-0.195
16:03:36.868,-0.215,-0.25
16:03:36.872,-0.225,-0.29
16:03:36.876,-0.21,-0.315
16:03:36.880,-0.225,-0.35
16:03:36.884,-0.27,-0.395
16:03:36.888,-0.28,-0.43
16:03:36.892,-0.29,-0.465
16:03:36.896,-0.315,-0.475
16:03:36.900,-0.29,-0.49
16:03:36.904,-0.27,-0.495
16:03:36.908,-0.265,-0.495
16:03:36.912,-0.23,-0.5
16:03:36.916,-0.175,-0.565
16:03:36.920,-0.125,-0.62
16:03:36.924,-0.08,-0.655
16:03:36.928,-0.105,-0.675
16:03:36.932,-0.06,-0.66
16:03:36.936,-0.015,-0.685
16:03:36.940,0.03,-0.68
16:03:36.944,0.075,-0.66
16:03:36.948,0.125,-0.645
16:03:36.952,0.16,-0.65
16:03:36.956,0.17,-0.65
16:03:36.960,0.17,-0.66
16:03:36.964,0.14,-0.645
16:03:36.968,0.115,-0.655
16:03:36.972,0.105,-0.645
16:03:36.976,0.075,-0.65
16:03:36.980,0.09,-0.65
16:03:36.984,0.07,-0.64
16:03:36.988,0.04,-0.64
16:03:36.992,0.02,-0.625
16:03:36.996,0.015,-0.61
16:03:37.000,0.005,-0.545
16:03:37.004,-0.02,-0.53
16:03:37.008,-0.01,-0.475
16:03:37.012,-0.025,-0.43
16:03:37.016,-0.03,-0.365
16:03:37.020,-0.04,-0.315
16:03:37.024,-0.065,-0.24
16:03:37.028,-0.08,-0.17
16:03:37.032,-0.08,-0.135
16:03:37.036,-0.07,-0.18
16:03:37.040,-0.075,-0.255
16:03:37.044,-0.065,-0.3
16:03:37.048,-0.085,-0.31
16:03:37.052,-0.08,-0.3
16:03:37.056,-0.075,-0.275
16:03:37.060,-0.08,-0.255
16:03:37.064,-0.085,-0.24
16:03:37.068,-0.105,-0.23
16:03:37.072,-0.095,-0.23
16:03:37.076,-0.095,-0.215
16:03:37.080,-0.03,-0.18
16:03:37.084,0.125,-0.155
16:03:37.088,0.325,-0.1
16:03:37.092,0.445,-0.04
16:03:37.096,0.495,-0.025
16:03:37.100,0.33,-0.04
16:03:37.104,0.005,-0.06
16:03:37.108,-0.285,-0.055
16:03:37.112,-0.465,-0.045
16:03:37.116,-0.53,0.175
16:03:37.120,-0.535,0.335
16:03:37.124,-0.545,0.435
16:03:37.128,-0.575,0.585
16:03:37.132,-0.6,0.765
16:03:37.136,-0.625,0.945
16:03:37.140,-0.62,0.99
16:03:37.144,-0.595,0.86
16:03:37.148,-0.465,0.685
16:03:37.152,-0.3,0.535
16:03:37.156,-0.155,0.495
16:03:37.160,-0.07,0.44
16:03:37.164,-0.025,0.24
16:03:37.168,-0.055,0.04
16:03:37.172,-0.06,-0.08
16:03:37.176,-0.065,-0.155
16:03:37.180,-0.07,-0.18
16:03:37.184,-0.04,-0.21
16:03:37.188,-0.05,-0.23
16:03:37.192,-0.03,-0.27
16:03:37.196,-0.02,-0.315
16:03:37.200,-0.035,-0.3
16:03:37.204,-0.035,-0.33
16:03:37.208,-0.04,-0.34
16:03:37.212,-0.06,-0.375
16:03:37.216,-0.065,-0.37
16:03:37.220,-0.055,-0.37
16:03:37.224,-0.035,-0.43
16:03:37.228,-0.005,-0.405
16:03:37.232,-0.025,-0.42
16:03:37.236,0.0,-0.445
16:03:37.240,0.015,-0.435
16:03:37.244,0.04,-0.49
16:03:37.248,0.05,-0.51
16:03:37.252,0.08,-0.5
16:03:37.256,0.09,-0.515
16:03:37.260,0.115,-0.515
16:03:37.264,0.13,-0.525
16:03:37.268,0.115,-0.55
16:03:37.272,0.075,-0.57
16:03:37.276,0.08,-0.56
16:03:37.280,0.065,-0.56
16:03:37.284,0.05,-0.54
16:03:37.288,0.015,-0.515
16:03:37.292,-0.025,-0.51
16:03:37.296,-0.05,-0.475
16:03:37.300,-0.075,-0.455
16:03:37.304,-0.095,-0.43
16:03:37.308,-0.115,-0.41
16:03:37.312,-0.125,-0.4
16:03:37.316,-0.145,-0.365
16:03:37.320,-0.145,-0.315
16:03:37.324,-0.145,-0.25
16:03:37.328,-0.13,-0.21
16:03:37.332,-0.185,-0.165
16:03:37.336,-0.165,-0.135
16:03:37.340,-0.115,-0.125
16:03:37.344,-0.07,-0.075
16:03:37.348,-0.035,-0.045
16:03:37.352,-0.025,-0.01
16:03:37.356,0.01,-0.01
16:03:37.360,0.025,0.01
16:03:37.364,0.055,-0.01
16:03:37.368,0.065,-0.03
16:03:37.372,0.025,-0.035
16:03:37.376,0.05,-0.07
16:03:37.380,0.22,-0.08
16:03:37.384,0.51,-0.05
16:03:37.388,0.815,-0.03
16:03:37.392,1.0,0.0
16:03:37.396,0.945,0.03
16:03:37.400,0.635,-0.03
16:03:37.404,0.22,-0.04
16:03:37.408,-0.125,-0.09
16:03:37.412,-0.365,0.025
16:03:37.416,-0.425,0.275
16:03:37.420,-0.445,0.54
16:03:37.424,-0.36,0.66
16:03:37.428,-0.335,0.725
16:03:37.432,-0.29,0.74
16:03:37.436,-0.365,0.81
16:03:37.440,-0.5,0.89
16:03:37.444,-0.605,0.975
16:03:37.448,-0.605,1.065
16:03:37.452,-0.59,1.145
16:03:37.456,-0.57,1.24
16:03:37.460,-0.52,1.29
16:03:37.464,-0.44,1.255
16:03:37.468,-0.38,1.125
16:03:37.472,-0.335,0.835
16:03:37.476,-0.315,0.47
16:03:37.480,-0.31,0.105
16:03:37.484,-0.31,-0.14
16:03:37.488,-0.3,-0.25
16:03:37.492,-0.32,-0.325
16:03:37.496,-0.345,-0.36
16:03:37.500,-0.38,-0.415
16:03:37.504,-0.38,-0.425
16:03:37.508,-0.375,-0.49
16:03:37.512,-0.365,-0.525
16:03:37.516,-0.365,-0.55
16:03:37.520,-0.32,-0.59
16:03:37.524,-0.285,-0.625
16:03:37.528,-0.245,-0.66
16:03:37.532,-0.225,-0.67
16:03:37.536,-0.14,-0.695
16:03:37.540,0.045,-0.68
16:03:37.544,0.12,-0.695
16:03:37.548,0.03,-0.75
16:03:37.552,-0.005,-0.765
16:03:37.556,0.035,-0.78
16:03:37.560,0.145,-0.785
16:03:37.564,0.235,-0.765
16:03:37.568,0.22,-0.81
16:03:37.572,0.14,-0.84
16:03:37.576,0.09,-0.93
16:03:37.580,0.015,-0.925
16:03:37.584,-0.055,-0.94
16:03:37.588,-0.08,-0.95
16:03:37.592,-0.03,-0.96
16:03:37.596,0.01,-0.925
16:03:37.600,0.0,-0.895
16:03:37.604,-0.02,-0.88
16:03:37.608,-0.05,-0.86
16:03:37.612,-0.03,-0.84
16:03:37.616,0.005,-0.8
16:03:37.620,0.045,-0.79
16:03:37.624,0.045,-0.75
16:03:37.628,0.05,-0.7
16:03:37.632,0.03,-0.64
16:03:37.636,0.06,-0.605
16:03:37.640,0.13,-0.58
16:03:37.644,0.15,-0.535
16:03:37.648,0.13,-0.52
16:03:37.652,0.065,-0.48
16:03:37.656,0.06,-0.465
16:03:37.660,0.07,-0.415
16:03:37.664,0.15,-0.415
16:03:37.668,0.225,-0.385
16:03:37.672,0.28,-0.365
16:03:37.676,0.265,-0.37
16:03:37.680,0.18,-0.355
16:03:37.684,0.04,-0.35
16:03:37.688,-0.045,-0.35
16:03:37.692,-0.025,-0.32
16:03:37.696,0.175,-0.28
16:03:37.700,0.435,-0.225
16:03:37.704,0.695,-0.155
16:03:37.708,0.795,-0.125
16:03:37.712,0.625,-0.115
16:03:37.716,0.29,-0.155
16:03:37.720,0.0,-0.16
16:03:37.724,-0.195,-0.1
16:03:37.728,-0.27,0.03
16:03:37.732,-0.365,0.325
16:03:37.736,-0.44,0.59
16:03:37.740,-0.48,0.77
16:03:37.744,-0.465,0.72
16:03:37.748,-0.39,0.525
16:03:37.752,-0.225,0.275
16:03:37.756,-0.105,0.2
16:03:37.760,0.0,0.23
16:03:37.764,0.05,0.165
16:03:37.768,0.11,0.005
16:03:37.772,0.12,-0.07
16:03:37.776,0.14,-0.14
16:03:37.780,0.135,-0.22
16:03:37.784,0.14,-0.25
16:03:37.788,0.135,-0.26
16:03:37.792,0.15,-0.3
16:03:37.796,0.17,-0.34
16:03:37.800,0.145,-0.355
16:03:37.804,0.15,-0.365
16:03:37.808,0.125,-0.38
16:03:37.812,0.145,-0.38
16:03:37.816,0.155,-0.39
16:03:37.820,0.16,-0.395
16:03:37.824,0.195,-0.42
16:03:37.828,0.185,-0.43
16:03:37.832,0.155,-0.425
16:03:37.836,0.195,-0.45
16:03:37.840,0.225,-0.43
16:03:37.844,0.245,-0.455
16:03:37.848,0.27,-0.485
16:03:37.852,0.26,-0.475
16:03:37.856,0.26,-0.485
16:03:37.860,0.265,-0.48
16:03:37.864,0.32,-0.495
16:03:37.868,0.3,-0.475
16:03:37.872,0.325,-0.51
16:03:37.876,0.315,-0.495
16:03:37.880,0.315,-0.51
16:03:37.884,0.325,-0.505
16:03:37.888,0.31,-0.495
16:03:37.892,0.275,-0.48
16:03:37.896,0.24,-0.5
16:03:37.900,0.23,-0.495
16:03:37.904,0.2,-0.46
16:03:37.908,0.165,-0.435
16:03:37.912,0.155,-0.45
16:03:37.916,0.13,-0.4
16:03:37.920,0.105,-0.37
16:03:37.924,0.115,-0.34
16:03:37.928,0.12,-0.305
16:03:37.932,0.11,-0.275
16:03:37.936,0.12,-0.24
16:03:37.940,0.135,-0.215
16:03:37.944,0.115,-0.175
16:03:37.948,0.145,-0.15
16:03:37.952,0.14,-0.155
16:03:37.956,0.18,-0.13
16:03:37.960,0.18,-0.125
16:03:37.964,0.18,-0.08
16:03:37.968,0.2,-0.09
16:03:37.972,0.195,-0.1
16:03:37.976,0.21,-0.105
16:03:37.980,0.185,-0.145
16:03:37.984,0.185,-0.165
16:03:37.988,0.19,-0.2
16:03:37.992,0.225,-0.215
16:03:37.996,0.345,-0.225
16:03:38.000,0.52,-0.235
16:03:38.004,0.74,-0.195
16:03:38.008,0.945,-0.135
16:03:38.012,1.005,-0.105
16:03:38.016,0.845,-0.12
16:03:38.020,0.43,-0.165
16:03:38.024,0.045,-0.175
16:03:38.028,-0.2,-0.145
16:03:38.032,-0.3,0.115
16:03:38.036,-0.305,0.41
16:03:38.040,-0.295,0.585
16:03:38.044,-0.3,0.63
16:03:38.048,-0.34,0.665
16:03:38.052,-0.365,0.75
16:03:38.056,-0.4,0.805
16:03:38.060,-0.46,0.825
16:03:38.064,-0.52,0.81
16:03:38.068,-0.555,0.855
16:03:38.072,-0.555,0.935
16:03:38.076,-0.54,0.96
16:03:38.080,-0.47,1.0
16:03:38.084,-0.37,1.01
16:03:38.088,-0.3,0.925
16:03:38.092,-0.27,0.71
16:03:38.096,-0.28,0.365
16:03:38.100,-0.28,-0.03
16:03:38.104,-0.275,-0.26
16:03:38.108,-0.295,-0.385
16:03:38.112,-0.305,-0.455
16:03:38.116,-0.32,-0.5
16:03:38.120,-0.29,-0.535
16:03:38.124,-0.245,-0.555
16:03:38.128,-0.24,-0.565
16:03:38.132,-0.245,-0.59
16:03:38.136,-0.21,-0.585
16:03:38.140,-0.215,-0.61
16:03:38.144,-0.155,-0.6
16:03:38.148,-0.11,-0.665
16:03:38.152,-0.07,-0.64
16:03:38.156,-0.02,-0.67
16:03:38.160,0.02,-0.695
16:03:38.164,0.065,-0.705
16:03:38.168,0.065,-0.73
16:03:38.172,0.06,-0.74
16:03:38.176,0.065,-0.815
16:03:38.180,0.07,-0.835
16:03:38.184,0.095,-0.9
16:03:38.188,0.115,-0.95
16:03:38.192,0.105,-0.96
16:03:38.196,0.08,-0.965
16:03:38.200,0.06,-1.005
16:03:38.204,0.065,-1.02
16:03:38.208,0.03,-1.015
16:03:38.212,0.0,-1.0
16:03:38.216,-0.01,-0.98
16:03:38.220,-0.02,-0.985
16:03:38.224,-0.025,-0.955
16:03:38.228,-0.04,-0.92
16:03:38.232,-0.045,-0.885
16:03:38.236,-0.07,-0.875
16:03:38.240,-0.065,-0.835
16:03:38.244,-0.085,-0.78
16:03:38.248,-0.085,-0.76
16:03:38.252,-0.11,-0.695
16:03:38.256,-0.125,-0.68
16:03:38.260,-0.115,-0.655
16:03:38.264,-0.105,-0.59
16:03:38.268,-0.095,-0.555
16:03:38.272,-0.13,-0.53
16:03:38.276,-0.13,-0.475
16:03:38.280,-0.115,-0.445
16:03:38.284,0.035,-0.41
16:03:38.288,0.265,-0.37
16:03:38.292,0.55,-0.285
16:03:38.296,0.75,-0.235
16:03:38.300,0.735,-0.235
16:03:38.304,0.49,-0.2
16:03:38.308,0.11,-0.24
16:03:38.312,-0.255,-0.205
16:03:38.316,-0.52,-0.05
16:03:38.320,-0.635,0.115
16:03:38.324,-0.625,0.35
16:03:38.328,-0.61,0.46
16:03:38.332,-0.605,0.535
16:03:38.336,-0.61,0.575
16:03:38.340,-0.61,0.66
16:03:38.344,-0.57,0.75
16:03:38.348,-0.545,0.84
16:03:38.352,-0.515,0.915
16:03:38.356,-0.51,0.96
16:03:38.360,-0.47,1.04
16:03:38.364,-0.435,1.145
16:03:38.368,-0.37,1.23
16:03:38.372,-0.28,1.18
16:03:38.376,-0.185,0.98
16:03:38.380,-0.165,0.645
16:03:38.384,-0.12,0.285
16:03:38.388,-0.14,-0.025
16:03:38.392,-0.12,-0.235
16:03:38.396,-0.105,-0.38
16:03:38.400,-0.09,-0.46
16:03:38.404,-0.095,-0.46
16:03:38.408,-0.125,-0.49
16:03:38.412,-0.1,-0.545
16:03:38.416,-0.11,-0.605
16:03:38.420,-0.07,-0.61
16:03:38.424,-0.055,-0.625
16:03:38.428,-0.02,-0.66
16:03:38.432,-0.025,-0.68
16:03:38.436,-0.005,-0.71
16:03:38.440,0.0,-0.76
16:03:38.444,0.0,-0.775
16:03:38.448,0.01,-0.8
16:03:38.452,0.025,-0.835
16:03:38.456,0.07,-0.85
16:03:38.460,0.08,-0.875
16:03:38.464,0.1,-0.89
16:03:38.468,0.135,-0.94
16:03:38.472,0.145,-0.935
16:03:38.476,0.145,-0.925
16:03:38.480,0.135,-0.94
16:03:38.484,0.115,-0.94
16:03:38.488,0.08,-0.94
16:03:38.492,0.05,-0.92
16:03:38.496,0.03,-0.915
16:03:38.500,-0.01,-0.895
16:03:38.504,-0.03,-0.875
16:03:38.508,-0.075,-0.825
16:03:38.512,-0.08,-0.835
16:03:38.516,-0.105,-0.82
16:03:38.520,-0.1,-0.785
16:03:38.524,-0.125,-0.72
16:03:38.528,-0.13,-0.69
16:03:38.532,-0.1,-0.64
16:03:38.536,-0.085,-0.62
16:03:38.540,-0.08,-0.58
16:03:38.544,-0.065,-0.51
16:03:38.548,0.0,-0.46
16:03:38.552,0.18,-0.41
16:03:38.556,0.525,-0.34
16:03:38.560,0.87,-0.27
16:03:38.564,1.14,-0.19
16:03:38.568,1.23,-0.12
16:03:38.572,1.07,-0.095
16:03:38.576,0.705,-0.07
16:03:38.580,0.345,-0.055
16:03:38.584,0.045,0.015
16:03:38.588,-0.245,0.26
16:03:38.592,-0.425,0.52
16:03:38.596,-0.51,0.695
16:03:38.600,-0.53,0.755
16:03:38.604,-0.505,0.625
16:03:38.608,-0.4,0.435
16:03:38.612,-0.295,0.315
16:03:38.616,-0.265,0.235
16:03:38.620,-0.22,0.145
16:03:38.624,-0.2,-0.025
16:03:38.628,-0.215,-0.12
16:03:38.632,-0.225,-0.19
16:03:38.636,-0.2,-0.25
16:03:38.640,-0.21,-0.285
16:03:38.644,-0.215,-0.3
16:03:38.648,-0.2,-0.335
16:03:38.652,-0.225,-0.335
16:03:38.656,-0.25,-0.33
16:03:38.660,-0.265,-0.325
16:03:38.664,-0.265,-0.345
16:03:38.668,-0.265,-0.38
16:03:38.672,-0.28,-0.355
16:03:38.676,-0.265,-0.35
16:03:38.680,-0.265,-0.385
16:03:38.684,-0.255,-0.35
16:03:38.688,-0.25,-0.36
16:03:38.692,-0.265,-0.38
16:03:38.696,-0.27,-0.375
16:03:38.700,-0.27,-0.405
16:03:38.704,-0.27,-0.4
16:03:38.708,-0.25,-0.41
16:03:38.712,-0.25,-0.405
16:03:38.716,-0.24,-0.415
16:03:38.720,-0.23,-0.425
16:03:38.724,-0.225,-0.435
16:03:38.728,-0.215,-0.44
16:03:38.732,-0.19,-0.46
16:03:38.736,-0.17,-0.44
16:03:38.740,-0.135,-0.425
16:03:38.744,-0.1,-0.425
16:03:38.748,-0.075,-0.44
16:03:38.752,-0.03,-0.405
16:03:38.756,-0.045,-0.36
16:03:38.760,-0.03,-0.35
16:03:38.764,0.045,-0.3
16:03:38.768,0.09,-0.28
16:03:38.772,0.08,-0.235
16:03:38.776,0.09,-0.18
16:03:38.780,0.095,-0.145
16:03:38.784,0.09,-0.16
16:03:38.788,0.1,-0.15
16:03:38.792,0.08,-0.165
16:03:38.796,0.065,-0.18
16:03:38.800,0.07,-0.185
16:03:38.804,0.03,-0.21
16:03:38.808,0.03,-0.185
16:03:38.812,0.12,-0.18
16:03:38.816,0.345,-0.19
16:03:38.820,0.63,-0.165
16:03:38.824,0.86,-0.09
16:03:38.828,0.975,-0.08
16:03:38.832,0.93,-0.09
16:03:38.836,0.63,-0.075
16:03:38.840,0.225,-0.1
16:03:38.844,-0.12,-0.085
16:03:38.848,-0.3,0.04
16:03:38.852,-0.375,0.28
16:03:38.856,-0.37,0.475
16:03:38.860,-0.36,0.575
16:03:38.864,-0.37,0.61
16:03:38.868,-0.405,0.625
16:03:38.872,-0.465,0.665
16:03:38.876,-0.495,0.73
16:03:38.880,-0.515,0.815
16:03:38.884,-0.555,0.89
16:03:38.888,-0.6,0.91
16:03:38.892,-0.6,0.945
16:03:38.896,-0.585,0.995
16:03:38.900,-0.5,1.025
16:03:38.904,-0.385,1.015
16:03:38.908,-0.28,0.995
16:03:38.912,-0.225,0.86
16:03:38.916,-0.205,0.575
16:03:38.920,-0.175,0.185
16:03:38.924,-0.165,-0.085
16:03:38.928,-0.145,-0.22
16:03:38.932,-0.155,-0.285
16:03:38.936,-0.16,-0.335
16:03:38.940,-0.175,-0.355
16:03:38.944,-0.19,-0.415
16:03:38.948,-0.165,-0.44
16:03:38.952,-0.18,-0.485
16:03:38.956,-0.13,-0.465
16:03:38.960,-0.115,-0.47
16:03:38.964,-0.07,-0.525
16:03:38.968,-0.04,-0.52
16:03:38.972,0.005,-0.525
16:03:38.976,0.065,-0.5
16:03:38.980,0.105,-0.52
16:03:38.984,0.145,-0.545
16:03:38.988,0.21,-0.575
16:03:38.992,0.27,-0.61
16:03:38.996,0.29,-0.615
16:03:39.000,0.32,-0.625
16:03:39.004,0.345,-0.625
16:03:39.008,0.36,-0.655
16:03:39.012,0.36,-0.665
16:03:39.016,0.345,-0.71
16:03:39.020,0.325,-0.735
16:03:39.024,0.275,-0.78
16:03:39.028,0.245,-0.78
16:03:39.032,0.195,-0.795
16:03:39.036,0.17,-0.755
16:03:39.040,0.135,-0.75
16:03:39.044,0.085,-0.71
16:03:39.048,0.095,-0.69
16:03:39.052,0.095,-0.67
16:03:39.056,0.065,-0.63
16:03:39.060,0.06,-0.58
16:03:39.064,0.075,-0.575
16:03:39.068,0.06,-0.525
16:03:39.072,0.035,-0.47
16:03:39.076,0.035,-0.44
16:03:39.080,0.025,-0.405
16:03:39.084,0.03,-0.37
16:03:39.088,0.055,-0.31
16:03:39.092,0.045,-0.31
16:03:39.096,0.045,-0.28
16:03:39.100,0.03,-0.24
16:03:39.104,0.035,-0.195
16:03:39.108,0.025,-0.19
16:03:39.112,0.02,-0.175
16:03:39.116,0.045,-0.16
16:03:39.120,0.13,-0.15
16:03:39.124,0.29,-0.135
16:03:39.128,0.505,-0.105
16:03:39.132,0.71,-0.025
16:03:39.136,0.86,0.035
16:03:39.140,0.87,0.04
16:03:39.144,0.63,0.01
16:03:39.148,0.29,-0.01
16:03:39.152,-0.015,0.025
16:03:39.156,-0.265,0.125
16:03:39.160,-0.44,0.33
16:03:39.164,-0.555,0.58
16:03:39.168,-0.585,0.78
16:03:39.172,-0.61,0.865
16:03:39.176,-0.58,0.835
16:03:39.180,-0.525,0.625
16:03:39.184,-0.405,0.47
16:03:39.188,-0.245,0.46
16:03:39.192,-0.15,0.435
16:03:39.196,-0.09,0.31
16:03:39.200,0.0,0.23
16:03:39.204,0.03,0.185
16:03:39.208,0.035,0.115
16:03:39.212,0.05,0.04
16:03:39.216,0.07,-0.005
16:03:39.220,0.1,-0.045
16:03:39.224,0.1,-0.09
16:03:39.228,0.08,-0.11
16:03:39.232,0.09,-0.125
16:03:39.236,0.085,-0.135
16:03:39.240,0.095,-0.16
16:03:39.244,0.075,-0.195
16:03:39.248,0.065,-0.185
16:03:39.252,0.05,-0.185
16:03:39.256,0.04,-0.2
16:03:39.260,0.055,-0.23
16:03:39.264,0.055,-0.245
16:03:39.268,0.075,-0.23
16:03:39.272,0.09,-0.24
16:03:39.276,0.08,-0.245
16:03:39.280,0.1,-0.25
16:03:39.284,0.14,-0.25
16:03:39.288,0.14,-0.25
16:03:39.292,0.16,-0.245
16:03:39.296,0.19,-0.26
16:03:39.300,0.2,-0.265
16:03:39.304,0.225,-0.28
16:03:39.308,0.225,-0.29
16:03:39.312,0.245,-0.28
16:03:39.316,0.245,-0.265
16:03:39.320,0.235,-0.27
16:03:39.324,0.25,-0.245
16:03:39.328,0.22,-0.285
16:03:39.332,0.205,-0.24
16:03:39.336,0.21,-0.21
16:03:39.340,0.2,-0.2
16:03:39.344,0.185,-0.175
16:03:39.348,0.15,-0.175
16:03:39.352,0.11,-0.155
16:03:39.356,0.075,-0.155
16:03:39.360,0.045,-0.115
16:03:39.364,0.02,-0.1
16:03:39.368,0.045,-0.09
16:03:39.372,0.025,-0.07
16:03:39.376,0.045,-0.055
16:03:39.380,0.06,-0.04
16:03:39.384,0.07,-0.005
16:03:39.388,0.075,0.02
16:03:39.392,0.08,0.03
16:03:39.396,0.12,0.04
16:03:39.400,0.145,0.05
16:03:39.404,0.175,0.035
16:03:39.408,0.185,0.065
16:03:39.412,0.215,0.085
16:03:39.416,0.22,0.1
16:03:39.420,0.23,0.09
16:03:39.424,0.235,0.1
16:03:39.428,0.23,0.095
16:03:39.432,0.255,0.07
16:03:39.436,0.3,0.035
16:03:39.440,0.39,0.0
16:03:39.444,0.545,-0.01
16:03:39.448,0.735,0.03
16:03:39.452,0.92,0.085
16:03:39.456,1.015,0.105
16:03:39.460,0.92,0.09
16:03:39.464,0.62,0.045
16:03:39.468,0.2,0.07
16:03:39.472,-0.1,0.09
16:03:39.476,-0.245,0.235
16:03:39.480,-0.28,0.48
16:03:39.484,-0.27,0.66
16:03:39.488,-0.25,0.76
16:03:39.492,-0.285,0.795
16:03:39.496,-0.315,0.82
16:03:39.500,-0.375,0.855
16:03:39.504,-0.415,0.91
16:03:39.508,-0.48,0.975
16:03:39.512,-0.51,1.0
16:03:39.516,-0.485,1.09
16:03:39.520,-0.48,1.13
16:03:39.524,-0.415,1.155
16:03:39.528,-0.32,1.18
16:03:39.532,-0.23,1.125
16:03:39.536,-0.175,1.02
16:03:39.540,-0.125,0.755
16:03:39.544,-0.1,0.38
16:03:39.548,-0.115,0.065
16:03:39.552,-0.14,-0.07
16:03:39.556,-0.155,-0.145
16:03:39.560,-0.175,-0.19
16:03:39.564,-0.165,-0.255
16:03:39.568,-0.15,-0.295
16:03:39.572,-0.165,-0.31
16:03:39.576,-0.14,-0.355
16:03:39.580,-0.13,-0.37
16:03:39.584,-0.1,-0.38
16:03:39.588,-0.1,-0.395
16:03:39.592,-0.095,-0.41
16:03:39.596,-0.04,-0.42
16:03:39.600,0.005,-0.41
16:03:39.604,0.045,-0.43
16:03:39.608,0.105,-0.43
16:03:39.612,0.155,-0.455
16:03:39.616,0.23,-0.455
16:03:39.620,0.255,-0.48
16:03:39.624,0.29,-0.48
16:03:39.628,0.295,-0.505
16:03:39.632,0.315,-0.54
16:03:39.636,0.33,-0.59
16:03:39.640,0.3,-0.64
16:03:39.644,0.31,-0.63
16:03:39.648,0.28,-0.655
16:03:39.652,0.285,-0.625
16:03:39.656,0.255,-0.63
16:03:39.660,0.235,-0.635
16:03:39.664,0.225,-0.625
16:03:39.668,0.22,-0.615
16:03:39.672,0.195,-0.615
16:03:39.676,0.17,-0.6
16:03:39.680,0.17,-0.56
16:03:39.684,0.16,-0.52
16:03:39.688,0.15,-0.46
16:03:39.692,0.115,-0.455
16:03:39.696,0.11,-0.425
16:03:39.700,0.13,-0.375
16:03:39.704,0.125,-0.345
16:03:39.708,0.11,-0.3
16:03:39.712,0.115,-0.245
16:03:39.716,0.105,-0.24
16:03:39.720,0.09,-0.185
16:03:39.724,0.065,-0.155
16:03:39.728,0.065,-0.15
16:03:39.732,0.075,-0.125
16:03:39.736,0.08,-0.1
16:03:39.740,0.07,-0.085
16:03:39.744,0.04,-0.08
16:03:39.748,0.0,-0.065
16:03:39.752,-0.02,-0.04
16:03:39.756,-0.035,-0.045
16:03:39.760,-0.065,-0.02
16:03:39.764,-0.08,0.0
16:03:39.768,-0.08,-0.025
16:03:39.772,-0.115,-0.04
16:03:39.776,-0.105,-0.03
16:03:39.780,-0.105,-0.03
16:03:39.784,-0.095,-0.01
16:03:39.788,-0.08,-0.02
16:03:39.792,-0.035,0.0
16:03:39.796,0.075,0.035
16:03:39.800,0.235,0.055
16:03:39.804,0.455,0.125
16:03:39.808,0.67,0.23
16:03:39.812,0.815,0.28
16:03:39.816,0.765,0.28
16:03:39.820,0.5,0.29
16:03:39.824,0.17,0.285
16:03:39.828,-0.07,0.275
16:03:39.832,-0.18,0.335
16:03:39.836,-0.25,0.55
16:03:39.840,-0.33,0.735
16:03:39.844,-0.395,0.94
16:03:39.848,-0.44,0.995
16:03:39.852,-0.445,0.855
16:03:39.856,-0.37,0.615
16:03:39.860,-0.255,0.465
16:03:39.864,-0.175,0.455
16:03:39.868,-0.115,0.415
16:03:39.872,-0.07,0.245
16:03:39.876,-0.03,0.125
16:03:39.880,-0.025,0.1
16:03:39.884,-0.04,0.02
16:03:39.888,-0.065,0.0
16:03:39.892,-0.065,-0.055
16:03:39.896,-0.055,-0.075
16:03:39.900,-0.03,-0.09
16:03:39.904,-0.055,-0.08
16:03:39.908,-0.035,-0.085
16:03:39.912,-0.05,-0.085
16:03:39.916,-0.045,-0.085
16:03:39.920,-0.035,-0.1
16:03:39.924,-0.04,-0.085
16:03:39.928,-0.03,-0.1
16:03:39.932,-0.045,-0.09
16:03:39.936,-0.035,-0.135
16:03:39.940,-0.05,-0.135
16:03:39.944,-0.055,-0.13
16:03:39.948,-0.05,-0.14
16:03:39.952,-0.035,-0.17
16:03:39.956,-0.03,-0.155
16:03:39.960,-0.005,-0.175
16:03:39.964,-0.005,-0.16
16:03:39.968,-0.015,-0.175
16:03:39.972,-0.02,-0.185
16:03:39.976,-0.02,-0.19
16:03:39.980,0.025,-0.22
16:03:39.984,0.04,-0.2
16:03:39.988,0.065,-0.225
16:03:39.992,0.07,-0.215
16:03:39.996,0.12,-0.195
16:03:40.000,0.135,-0.185
16:03:40.004,0.15,-0.16
16:03:40.008,0.155,-0.135
16:03:40.012,0.175,-0.085
16:03:40.016,0.225,-0.065
16:03:40.020,0.25,-0.035
16:03:40.024,0.24,-0.005
16:03:40.028,0.26,0.035
16:03:40.032,0.24,0.085
16:03:40.036,0.255,0.125
16:03:40.040,0.26,0.135
16:03:40.044,0.25,0.14
16:03:40.048,0.215,0.13
16:03:40.052,0.23,0.125
16:03:40.056,0.235,0.12
16:03:40.060,0.2,0.095
16:03:40.064,0.195,0.085
16:03:40.068,0.18,0.08
16:03:40.072,0.18,0.075
16:03:40.076,0.155,0.05
16:03:40.080,0.135,0.05
16:03:40.084,0.12,0.04
16:03:40.088,0.125,0.02
16:03:40.092,0.135,0.02
16:03:40.096,0.125,0.015
16:03:40.100,0.085,0.01
16:03:40.104,0.045,0.015
16:03:40.108,0.035,0.025
16:03:40.112,0.055,0.04
16:03:40.116,0.035,0.005
16:03:40.120,0.045,0.035
16:03:40.124,0.025,0.025
16:03:40.128,0.02,0.02
16:03:40.132,0.01,0.01
16:03:40.136,-0.015,0.03
16:03:40.140,-0.03,0.03
16:03:40.144,-0.045,0.045
16:03:40.148,-0.08,0.02
16:03:40.152,-0.08,0.0
16:03:40.156,-0.095,0.025
16:03:40.160,-0.095,0.015
16:03:40.164,-0.095,0.005
16:03:40.168,-0.14,-0.01
16:03:40.172,-0.185,-0.015
16:03:40.176,-0.21,-0.005
16:03:40.180,-0.245,0.02
16:03:40.184,-0.245,-0.005
16:03:40.188,-0.255,-0.035
16:03:40.192,-0.25,-0.025
16:03:40.196,-0.245,0.005
16:03:40.200,-0.215,0.005
16:03:40.204,-0.245,0.005
16:03:40.208,-0.19,0.01
16:03:40.212,-0.175,0.025
16:03:40.216,-0.175,0.03
16:03:40.220,-0.125,0.055
16:03:40.224,-0.085,0.09
16:03:40.228,-0.055,0.08
16:03:40.232,-0.025,0.11
16:03:40.236,0.02,0.125
16:03:40.240,0.04,0.13
16:03:40.244,0.02,0.115
16:03:40.248,0.015,0.105
16:03:40.252,0.01,0.09
16:03:40.256,0.0,0.05
16:03:40.260,0.025,0.04
16:03:40.264,0.025,0.02
16:03:40.268,0.035,0.03
16:03:40.272,0.04,0.025
16:03:40.276,0.1,0.035
16:03:40.280,0.245,0.09
16:03:40.284,0.42,0.135
16:03:40.288,0.56,0.19
16:03:40.292,0.635,0.15
16:03:40.296,0.52,0.135
16:03:40.300,0.215,0.135
16:03:40.304,-0.08,0.075
16:03:40.308,-0.26,0.115
16:03:40.312,-0.3,0.295
16:03:40.316,-0.31,0.47
16:03:40.320,-0.315,0.57
16:03:40.324,-0.355,0.71
16:03:40.328,-0.41,0.795
16:03:40.332,-0.515,0.97
16:03:40.336,-0.57,1.1
16:03:40.340,-0.575,1.06
16:03:40.344,-0.605,0.915
16:03:40.348,-0.545,0.725
16:03:40.352,-0.4,0.585
16:03:40.356,-0.265,0.52
16:03:40.360,-0.16,0.465
16:03:40.364,-0.14,0.29
16:03:40.368,-0.135,0.115
16:03:40.372,-0.145,0.035
16:03:40.376,-0.17,0.0
16:03:40.380,-0.205,-0.015
16:03:40.384,-0.21,-0.035
16:03:40.388,-0.205,-0.05
16:03:40.392,-0.215,-0.07
16:03:40.396,-0.22,-0.1
16:03:40.400,-0.2,-0.095
16:03:40.404,-0.18,-0.085
16:03:40.408,-0.155,-0.115
16:03:40.412,-0.13,-0.11
16:03:40.416,-0.1,-0.12
16:03:40.420,-0.05,-0.135
16:03:40.424,-0.01,-0.105
16:03:40.428,0.02,-0.11
16:03:40.432,0.05,-0.12
16:03:40.436,0.1,-0.125
16:03:40.440,0.11,-0.14
16:03:40.444,0.145,-0.17
16:03:40.448,0.16,-0.16
16:03:40.452,0.205,-0.18
16:03:40.456,0.21,-0.185
16:03:40.460,0.185,-0.24
16:03:40.464,0.19,-0.26
16:03:40.468,0.19,-0.31
16:03:40.472,0.155,-0.35
16:03:40.476,0.175,-0.33
16:03:40.480,0.19,-0.355
16:03:40.484,0.18,-0.395
16:03:40.488,0.165,-0.395
16:03:40.492,0.15,-0.4
16:03:40.496,0.145,-0.39
16:03:40.500,0.13,-0.375
16:03:40.504,0.125,-0.345
16:03:40.508,0.105,-0.33
16:03:40.512,0.125,-0.315
16:03:40.516,0.125,-0.29
16:03:40.520,0.08,-0.26
16:03:40.524,0.06,-0.25
16:03:40.528,0.055,-0.23
16:03:40.532,0.06,-0.18
16:03:40.536,0.05,-0.155
16:03:40.540,0.005,-0.135
16:03:40.544,0.01,-0.09
16:03:40.548,0.035,-0.09
16:03:40.552,0.0,-0.05
16:03:40.556,-0.015,-0.025
16:03:40.560,-0.055,-0.01
16:03:40.564,-0.055,0.015
16:03:40.568,0.005,0.005
16:03:40.572,0.12,0.04
16:03:40.576,0.315,0.065
16:03:40.580,0.57,0.11
16:03:40.584,0.77,0.135
16:03:40.588,0.775,0.155
16:03:40.592,0.515,0.155
16:03:40.596,0.155,0.135
16:03:40.600,-0.135,0.13
16:03:40.604,-0.235,0.225
16:03:40.608,-0.375,0.46
16:03:40.612,-0.495,0.73
16:03:40.616,-0.595,1.0
16:03:40.620,-0.62,1.105
16:03:40.624,-0.515,1.055
16:03:40.628,-0.385,0.87
16:03:40.632,-0.25,0.755
16:03:40.636,-0.17,0.72
16:03:40.640,-0.1,0.615
16:03:40.644,-0.065,0.435
16:03:40.648,-0.03,0.325
16:03:40.652,-0.04,0.23
16:03:40.656,-0.04,0.17
16:03:40.660,-0.04,0.115
16:03:40.664,-0.045,0.075
16:03:40.668,-0.02,0.04
16:03:40.672,-0.03,0.025
16:03:40.676,-0.035,0.02
16:03:40.680,-0.035,-0.02
16:03:40.684,-0.045,-0.035
16:03:40.688,-0.045,-0.055
16:03:40.692,-0.06,-0.08
16:03:40.696,-0.04,-0.09
16:03:40.700,-0.025,-0.095
16:03:40.704,-0.035,-0.08
16:03:40.708,-0.02,-0.12
16:03:40.712,-0.01,-0.135
16:03:40.716,0.005,-0.13
16:03:40.720,-0.01,-0.13
16:03:40.724,-0.005,-0.135
16:03:40.728,0.015,-0.13
16:03:40.732,0.01,-0.145
16:03:40.736,0.035,-0.155
16:03:40.740,0.05,-0.185
16:03:40.744,0.065,-0.165
16:03:40.748,0.075,-0.17
16:03:40.752,0.1,-0.185
16:03:40.756,0.07,-0.175
16:03:40.760,0.085,-0.165
16:03:40.764,0.075,-0.195
16:03:40.768,0.085,-0.19
16:03:40.772,0.065,-0.185
16:03:40.776,0.06,-0.175
16:03:40.780,0.035,-0.155
16:03:40.784,0.0,-0.14
16:03:40.788,-0.005,-0.12
16:03:40.792,-0.02,-0.12
16:03:40.796,-0.035,-0.115
16:03:40.800,-0.05,-0.1
16:03:40.804,-0.025,-0.045
16:03:40.808,-0.04,-0.03
16:03:40.812,-0.04,0.005
16:03:40.816,-0.04,0.045
16:03:40.820,-0.01,0.095
16:03:40.824,0.045,0.065
16:03:40.828,0.095,0.09
16:03:40.832,0.105,0.15
16:03:40.836,0.1,0.175
16:03:40.840,0.14,0.205
16:03:40.844,0.16,0.215
16:03:40.848,0.2,0.21
16:03:40.852,0.27,0.235
16:03:40.856,0.47,0.235
16:03:40.860,0.74,0.25
16:03:40.864,0.99,0.26
16:03:40.868,1.11,0.3
16:03:40.872,1.02,0.315
16:03:40.876,0.67,0.32
16:03:40.880,0.19,0.25
16:03:40.884,-0.135,0.24
16:03:40.888,-0.335,0.36
16:03:40.892,-0.4,0.58
16:03:40.896,-0.36,0.77
16:03:40.900,-0.315,0.83
16:03:40.904,-0.335,0.905
16:03:40.908,-0.37,0.94
16:03:40.912,-0.44,0.985
16:03:40.916,-0.465,1.03
16:03:40.920,-0.465,1.12
16:03:40.924,-0.51,1.175
16:03:40.928,-0.53,1.24
16:03:40.932,-0.5,1.3
16:03:40.936,-0.445,1.35
16:03:40.940,-0.34,1.395
16:03:40.944,-0.24,1.37
16:03:40.948,-0.18,1.24
16:03:40.952,-0.135,0.955
16:03:40.956,-0.125,0.54
16:03:40.960,-0.12,0.235
16:03:40.964,-0.145,0.125
16:03:40.968,-0.17,0.055
16:03:40.972,-0.17,0.01
16:03:40.976,-0.155,-0.005
16:03:40.980,-0.18,-0.03
16:03:40.984,-0.185,-0.03
16:03:40.988,-0.23,-0.05
16:03:40.992,-0.225,-0.05
16:03:40.996,-0.26,-0.095
16:03:41.000,-0.27,-0.075
16:03:41.004,-0.27,-0.125
16:03:41.008,-0.235,-0.19
16:03:41.012,-0.195,-0.225
16:03:41.016,-0.13,-0.25
16:03:41.020,-0.11,-0.24
16:03:41.024,-0.07,-0.245
16:03:41.028,-0.035,-0.24
16:03:41.032,0.035,-0.265
16:03:41.036,0.09,-0.265
16:03:41.040,0.125,-0.27
16:03:41.044,0.16,-0.27
16:03:41.048,0.205,-0.26
16:03:41.052,0.215,-0.25
16:03:41.056,0.2,-0.26
16:03:41.060,0.21,-0.24
16:03:41.064,0.205,-0.255
16:03:41.068,0.175,-0.275
16:03:41.072,0.18,-0.29
16:03:41.076,0.19,-0.295
16:03:41.080,0.17,-0.27
16:03:41.084,0.125,-0.28
16:03:41.088,0.09,-0.245
16:03:41.092,0.06,-0.24
16:03:41.096,0.055,-0.195
16:03:41.100,0.055,-0.16
16:03:41.104,0.05,-0.14
16:03:41.108,0.04,-0.12
16:03:41.112,0.04,-0.085
16:03:41.116,0.055,-0.055
16:03:41.120,0.04,-0.04
16:03:41.124,0.01,-0.005
16:03:41.128,-0.005,0.035
16:03:41.132,0.0,0.075
16:03:41.136,0.015,0.105
16:03:41.140,0.01,0.12
16:03:41.144,0.0,0.14
16:03:41.148,-0.005,0.155
16:03:41.152,0.015,0.185
16:03:41.156,0.065,0.215
16:03:41.160,0.2,0.23
16:03:41.164,0.445,0.255
16:03:41.168,0.7,0.305
16:03:41.172,0.855,0.36
16:03:41.176,0.865,0.385
16:03:41.180,0.59,0.385
16:03:41.184,0.17,0.375
16:03:41.188,-0.18,0.41
16:03:41.192,-0.45,0.54
16:03:41.196,-0.625,0.745
16:03:41.200,-0.73,0.955
16:03:41.204,-0.78,1.1
16:03:41.208,-0.86,1.14
16:03:41.212,-0.82,1.045
16:03:41.216,-0.705,0.835
16:03:41.220,-0.585,0.695
16:03:41.224,-0.495,0.69
16:03:41.228,-0.425,0.65
16:03:41.232,-0.36,0.515
16:03:41.236,-0.3,0.42
16:03:41.240,-0.225,0.41
16:03:41.244,-0.19,0.395
16:03:41.248,-0.175,0.355
16:03:41.252,-0.155,0.36
16:03:41.256,-0.14,0.35
16:03:41.260,-0.11,0.355
16:03:41.264,-0.085,0.32
16:03:41.268,-0.075,0.3
16:03:41.272,-0.065,0.275
16:03:41.276,-0.08,0.235
16:03:41.280,-0.07,0.21
16:03:41.284,-0.075,0.195
16:03:41.288,-0.085,0.175
16:03:41.292,-0.105,0.155
16:03:41.296,-0.11,0.125
16:03:41.300,-0.125,0.105
16:03:41.304,-0.145,0.1
16:03:41.308,-0.14,0.115
16:03:41.312,-0.14,0.07
16:03:41.316,-0.15,0.045
16:03:41.320,-0.12,0.03
16:03:41.324,-0.1,0.045
16:03:41.328,-0.08,0.035
16:03:41.332,-0.075,0.025
16:03:41.336,-0.07,0.03
16:03:41.340,-0.065,0.03
16:03:41.344,-0.055,0.025
16:03:41.348,-0.06,0.055
16:03:41.352,-0.07,0.03
16:03:41.356,-0.09,0.045
16:03:41.360,-0.12,0.065
16:03:41.364,-0.11,0.09
16:03:41.368,-0.105,0.11
16:03:41.372,-0.1,0.12
16:03:41.376,-0.13,0.15
16:03:41.380,-0.17,0.17
16:03:41.384,-0.175,0.2
16:03:41.388,-0.215,0.22
16:03:41.392,-0.255,0.23
16:03:41.396,-0.28,0.25
16:03:41.400,-0.32,0.27
16:03:41.404,-0.375,0.305
16:03:41.408,-0.38,0.355
16:03:41.412,-0.4,0.365
16:03:41.416,-0.41,0.325
16:03:41.420,-0.395,0.315
16:03:41.424,-0.395,0.315
16:03:41.428,-0.37,0.335
16:03:41.432,-0.35,0.33
16:03:41.436,-0.36,0.31
16:03:41.440,-0.32,0.3
16:03:41.444,-0.3,0.315
16:03:41.448,-0.265,0.32
16:03:41.452,-0.25,0.32
16:03:41.456,-0.24,0.35
16:03:41.460,-0.215,0.37
16:03:41.464,-0.195,0.39
16:03:41.468,-0.145,0.39
16:03:41.472,-0.155,0.39
16:03:41.476,-0.135,0.395
16:03:41.480,-0.135,0.375
16:03:41.484,-0.095,0.38
16:03:41.488,0.015,0.395
16:03:41.492,0.255,0.41
16:03:41.496,0.445,0.52
16:03:41.500,0.56,0.585
16:03:41.504,0.485,0.595
16:03:41.508,0.155,0.665
16:03:41.512,-0.25,0.725
16:03:41.516,-0.545,0.59
16:03:41.520,-0.695,0.54
16:03:41.524,-0.725,0.725
16:03:41.528,-0.675,0.94
16:03:41.532,-0.69,1.02
16:03:41.536,-0.735,1.0
16:03:41.540,-0.765,1.045
16:03:41.544,-0.805,1.13
16:03:41.548,-0.885,1.245
16:03:41.552,-0.92,1.315
16:03:41.556,-0.94,1.355
16:03:41.560,-0.915,1.42
16:03:41.564,-0.85,1.5
16:03:41.568,-0.775,1.535
16:03:41.572,-0.65,1.535
16:03:41.576,-0.57,1.475
16:03:41.580,-0.535,1.27
16:03:41.584,-0.535,0.87
16:03:41.588,-0.535,0.41
16:03:41.592,-0.535,0.2
16:03:41.596,-0.555,0.135
16:03:41.600,-0.555,0.11
16:03:41.604,-0.595,0.12
16:03:41.608,-0.6,0.17
16:03:41.612,-0.62,0.2
16:03:41.616,-0.615,0.135
16:03:41.620,-0.635,0.1
16:03:41.624,-0.59,0.095
16:03:41.628,-0.55,0.02
16:03:41.632,-0.535,-0.16
16:03:41.636,-0.51,-0.24
16:03:41.640,-0.46,-0.135
16:03:41.644,-0.425,-0.02
16:03:41.648,-0.38,0.035
16:03:41.652,-0.31,-0.115
16:03:41.656,-0.27,-0.275
16:03:41.660,-0.24,-0.355
16:03:41.664,-0.205,-0.295
16:03:41.668,-0.145,-0.275
16:03:41.672,-0.105,-0.285
16:03:41.676,-0.105,-0.29
16:03:41.680,-0.095,-0.3
16:03:41.684,-0.095,-0.33
16:03:41.688,-0.12,-0.345
16:03:41.692,-0.12,-0.36
16:03:41.696,-0.12,-0.36
16:03:41.700,-0.13,-0.375
16:03:41.704,-0.14,-0.375
16:03:41.708,-0.19,-0.335
16:03:41.712,-0.2,-0.31
16:03:41.716,-0.22,-0.28
16:03:41.720,-0.225,-0.265
16:03:41.724,-0.235,-0.23
16:03:41.728,-0.24,-0.19
16:03:41.732,-0.23,-0.115
16:03:41.736,-0.22,-0.12
16:03:41.740,-0.24,-0.12
16:03:41.744,-0.26,-0.1
16:03:41.748,-0.25,-0.055
16:03:41.752,-0.27,-0.05
16:03:41.756,-0.26,-0.01
16:03:41.760,-0.285,0.03
16:03:41.764,-0.305,0.07
16:03:41.768,-0.32,0.11
16:03:41.772,-0.33,0.14
16:03:41.776,-0.355,0.175
16:03:41.780,-0.38,0.18
16:03:41.784,-0.37,0.155
16:03:41.788,-0.405,0.17
16:03:41.792,-0.41,0.18
16:03:41.796,-0.43,0.2
16:03:41.800,-0.425,0.315
16:03:41.804,-0.42,0.305
16:03:41.808,-0.41,0.22
16:03:41.812,-0.33,0.19
16:03:41.816,-0.17,0.21
16:03:41.820,0.06,0.285
16:03:41.824,0.32,0.3
16:03:41.828,0.53,0.275
16:03:41.832,0.54,0.285
16:03:41.836,0.31,0.32
16:03:41.840,-0.07,0.34
16:03:41.844,-0.355,0.36
16:03:41.848,-0.55,0.385
16:03:41.852,-0.715,0.58
16:03:41.856,-0.82,0.925
16:03:41.860,-0.87,1.175
16:03:41.864,-0.855,1.255
16:03:41.868,-0.795,1.105
16:03:41.872,-0.665,0.865
16:03:41.876,-0.55,0.795
16:03:41.880,-0.525,0.76
16:03:41.884,-0.46,0.63
16:03:41.888,-0.41,0.48
16:03:41.892,-0.39,0.4
16:03:41.896,-0.4,0.345
16:03:41.900,-0.37,0.3
16:03:41.904,-0.375,0.25
16:03:41.908,-0.41,0.195
16:03:41.912,-0.38,0.17
16:03:41.916,-0.39,0.16
16:03:41.920,-0.375,0.19
16:03:41.924,-0.38,0.2
16:03:41.928,-0.38,0.18
16:03:41.932,-0.385,0.12
16:03:41.936,-0.38,0.1
16:03:41.940,-0.37,0.1
16:03:41.944,-0.35,0.15
16:03:41.948,-0.35,0.115
16:03:41.952,-0.365,0.11
16:03:41.956,-0.355,0.08
16:03:41.960,-0.34,0.1
16:03:41.964,-0.32,0.09
16:03:41.968,-0.29,0.07
16:03:41.972,-0.27,0.07
16:03:41.976,-0.255,0.05
16:03:41.980,-0.245,0.045
16:03:41.984,-0.25,0.045
16:03:41.988,-0.23,0.045
16:03:41.992,-0.21,0.015
16:03:41.996,-0.215,0.045
16:03:42.000,-0.185,0.01
16:03:42.004,-0.23,0.01
16:03:42.008,-0.235,0.035
16:03:42.012,-0.225,0.03
16:03:42.016,-0.205,0.05
16:03:42.020,-0.23,0.065
16:03:42.024,-0.215,0.1
16:03:42.028,-0.125,0.17
16:03:42.032,-0.13,0.195
16:03:42.036,-0.18,0.165
16:03:42.040,-0.3,0.16
16:03:42.044,-0.4,0.27
16:03:42.048,-0.45,0.345
16:03:42.052,-0.41,0.31
16:03:42.056,-0.34,0.28
16:03:42.060,-0.29,0.27
16:03:42.064,-0.24,0.305
16:03:42.068,-0.205,0.355
16:03:42.072,-0.195,0.375
16:03:42.076,-0.145,0.395
16:03:42.080,-0.13,0.37
16:03:42.084,-0.15,0.38
16:03:42.088,-0.11,0.35
16:03:42.092,-0.11,0.315
16:03:42.096,-0.09,0.335
16:03:42.100,-0.105,0.33
16:03:42.104,-0.08,0.295
16:03:42.108,0.01,0.31
16:03:42.112,0.11,0.265
16:03:42.116,0.175,0.29
16:03:42.120,0.245,0.295
16:03:42.124,0.34,0.3
16:03:42.128,0.535,0.345
16:03:42.132,0.62,0.41
16:03:42.136,0.52,0.42
16:03:42.140,0.2,0.42
16:03:42.144,-0.17,0.385
16:03:42.148,-0.44,0.42
16:03:42.152,-0.595,0.615
16:03:42.156,-0.625,0.87
16:03:42.160,-0.61,1.02
16:03:42.164,-0.62,1.095
16:03:42.168,-0.64,1.15
16:03:42.172,-0.7,1.2
16:03:42.176,-0.75,1.27
16:03:42.180,-0.77,1.345
16:03:42.184,-0.8,1.39
16:03:42.188,-0.85,1.435
16:03:42.192,-0.835,1.485
16:03:42.196,-0.785,1.56
16:03:42.200,-0.715,1.61
16:03:42.204,-0.585,1.64
16:03:42.208,-0.455,1.62
16:03:42.212,-0.41,1.475
16:03:42.216,-0.375,1.16
16:03:42.220,-0.32,0.71
16:03:42.224,-0.365,0.41
16:03:42.228,-0.39,0.245
16:03:42.232,-0.375,0.2
16:03:42.236,-0.375,0.155
16:03:42.240,-0.41,0.145
16:03:42.244,-0.435,0.09
16:03:42.248,-0.4,0.09
16:03:42.252,-0.345,0.07
16:03:42.256,-0.29,0.075
16:03:42.260,-0.215,0.06
16:03:42.264,-0.18,0.05
16:03:42.268,-0.155,0.03
16:03:42.272,-0.11,0.02
16:03:42.276,-0.065,-0.015
16:03:42.280,-0.055,-0.065
16:03:42.284,0.0,-0.1
16:03:42.288,0.04,-0.145
16:03:42.292,0.015,-0.18
16:03:42.296,-0.01,-0.215
16:03:42.300,-0.01,-0.25
16:03:42.304,0.015,-0.28
16:03:42.308,0.05,-0.3
16:03:42.312,0.04,-0.315
16:03:42.316,0.025,-0.345
16:03:42.320,0.025,-0.36
16:03:42.324,0.03,-0.34
16:03:42.328,0.045,-0.33
16:03:42.332,0.06,-0.32
16:03:42.336,0.08,-0.305
16:03:42.340,0.015,-0.31
16:03:42.344,-0.015,-0.28
16:03:42.348,-0.025,-0.275
16:03:42.352,-0.045,-0.25
16:03:42.356,-0.03,-0.19
16:03:42.360,-0.01,-0.18
16:03:42.364,-0.015,-0.145
16:03:42.368,-0.02,-0.11
16:03:42.372,-0.02,-0.06
16:03:42.376,0.005,-0.05
16:03:42.380,-0.03,0.005
16:03:42.384,-0.075,0.025
16:03:42.388,-0.095,0.08
16:03:42.392,-0.085,0.11
16:03:42.396,-0.08,0.145
16:03:42.400,-0.11,0.16
16:03:42.404,-0.18,0.2
16:03:42.408,-0.23,0.225
16:03:42.412,-0.24,0.23
16:03:42.416,-0.225,0.24
16:03:42.420,-0.245,0.27
16:03:42.424,-0.29,0.28
16:03:42.428,-0.28,0.29
16:03:42.432,-0.27,0.31
16:03:42.436,-0.26,0.31
16:03:42.440,-0.225,0.31
16:03:42.444,-0.15,0.31
16:03:42.448,-0.095,0.325
16:03:42.452,-0.04,0.315
16:03:42.456,-0.145,0.34
16:03:42.460,-0.24,0.36
16:03:42.464,-0.21,0.345
16:03:42.468,-0.12,0.38
16:03:42.472,-0.09,0.415
16:03:42.476,-0.165,0.435
16:03:42.480,-0.17,0.45
16:03:42.484,-0.15,0.415
16:03:42.488,-0.145,0.425
16:03:42.492,-0.13,0.4
16:03:42.496,-0.07,0.415
16:03:42.500,0.07,0.45
16:03:42.504,0.29,0.48
16:03:42.508,0.485,0.51
16:03:42.512,0.58,0.51
16:03:42.516,0.46,0.485
16:03:42.520,0.15,0.45
16:03:42.524,-0.14,0.4
16:03:42.528,-0.21,0.45
16:03:42.532,-0.23,0.665
16:03:42.536,-0.26,0.86
16:03:42.540,-0.335,1.09
16:03:42.544,-0.45,1.28
16:03:42.548,-0.64,1.36
16:03:42.552,-0.86,1.255
16:03:42.556,-0.835,1.03
16:03:42.560,-0.64,0.84
16:03:42.564,-0.535,0.8
16:03:42.568,-0.435,0.75
16:03:42.572,-0.345,0.635
16:03:42.576,-0.265,0.53
16:03:42.580,-0.255,0.43
16:03:42.584,-0.235,0.35
16:03:42.588,-0.215,0.305
16:03:42.592,-0.21,0.28
16:03:42.596,-0.21,0.255
16:03:42.600,-0.205,0.24
16:03:42.604,-0.18,0.21
16:03:42.608,-0.19,0.21
16:03:42.612,-0.21,0.24
16:03:42.616,-0.24,0.2
16:03:42.620,-0.245,0.2
16:03:42.624,-0.23,0.185
16:03:42.628,-0.21,0.155
16:03:42.632,-0.165,0.155
16:03:42.636,-0.14,0.12
16:03:42.640,-0.12,0.13
16:03:42.644,-0.15,0.11
16:03:42.648,-0.105,0.09
16:03:42.652,-0.035,0.115
16:03:42.656,0.02,0.115
16:03:42.660,0.125,0.125
16:03:42.664,0.175,0.11
16:03:42.668,0.1,0.09
16:03:42.672,0.07,0.095
16:03:42.676,0.08,0.1
16:03:42.680,0.135,0.11
16:03:42.684,0.18,0.095
16:03:42.688,0.22,0.12
16:03:42.692,0.23,0.115
16:03:42.696,0.23,0.095
16:03:42.700,0.235,0.055
16:03:42.704,0.255,0.055
16:03:42.708,0.21,0.085
16:03:42.712,0.21,0.075
16:03:42.716,0.19,0.085
16:03:42.720,0.165,0.11
16:03:42.724,0.15,0.1
16:03:42.728,0.14,0.125
16:03:42.732,0.115,0.135
16:03:42.736,0.08,0.15
16:03:42.740,0.05,0.17
16:03:42.744,0.02,0.19
16:03:42.748,0.015,0.22
16:03:42.752,0.01,0.24
16:03:42.756,-0.005,0.24
16:03:42.760,-0.005,0.285
16:03:42.764,-0.02,0.27
16:03:42.768,-0.01,0.29
16:03:42.772,-0.03,0.31
16:03:42.776,-0.05,0.28
16:03:42.780,-0.06,0.285
16:03:42.784,-0.065,0.3
16:03:42.788,-0.09,0.305
16:03:42.792,-0.105,0.315
16:03:42.796,-0.105,0.305
16:03:42.800,-0.11,0.3
16:03:42.804,-0.125,0.325
16:03:42.808,-0.155,0.315
16:03:42.812,-0.14,0.295
16:03:42.816,-0.165,0.31
16:03:42.820,-0.18,0.34
16:03:42.824,-0.215,0.315
16:03:42.828,-0.245,0.31
16:03:42.832,-0.28,0.315
16:03:42.836,-0.3,0.33
16:03:42.840,-0.325,0.305
16:03:42.844,-0.32,0.305
16:03:42.848,-0.32,0.3
16:03:42.852,-0.32,0.325
16:03:42.856,-0.325,0.315
16:03:42.860,-0.325,0.335
16:03:42.864,-0.315,0.36
16:03:42.868,-0.28,0.36
16:03:42.872,-0.27,0.375
16:03:42.876,-0.21,0.4
16:03:42.880,-0.21,0.43
16:03:42.884,-0.2,0.425
16:03:42.888,-0.23,0.41
16:03:42.892,-0.2,0.405
16:03:42.896,-0.13,0.43
16:03:42.900,0.015,0.43
16:03:42.904,0.2,0.45
16:03:42.908,0.36,0.52
16:03:42.912,0.335,0.5
16:03:42.916,0.125,0.475
16:03:42.920,-0.18,0.46
16:03:42.924,-0.445,0.4
16:03:42.928,-0.615,0.425
16:03:42.932,-0.72,0.605
16:03:42.936,-0.74,0.78
16:03:42.940,-0.76,0.91
16:03:42.944,-0.795,1.01
16:03:42.948,-0.83,1.07
16:03:42.952,-0.89,1.215
16:03:42.956,-0.97,1.375
16:03:42.960,-1.01,1.48
16:03:42.964,-1.05,1.4
16:03:42.968,-1.015,1.23
16:03:42.972,-0.88,1.035
16:03:42.976,-0.72,0.88
16:03:42.980,-0.64,0.84
16:03:42.984,-0.63,0.67
16:03:42.988,-0.61,0.45
16:03:42.992,-0.605,0.32
16:03:42.996,-0.605,0.29
16:03:43.000,-0.64,0.265
16:03:43.004,-0.66,0.24
16:03:43.008,-0.67,0.22
16:03:43.012,-0.685,0.205
16:03:43.016,-0.685,0.21
16:03:43.020,-0.69,0.165
16:03:43.024,-0.695,0.18
16:03:43.028,-0.74,0.17
16:03:43.032,-0.755,0.155
16:03:43.036,-0.75,0.11
16:03:43.040,-0.75,0.11
16:03:43.044,-0.76,0.045
16:03:43.048,-0.785,0.06
16:03:43.052,-0.79,0.04
16:03:43.056,-0.76,0.04
16:03:43.060,-0.72,0.03
16:03:43.064,-0.69,0.02
16:03:43.068,-0.66,0.01
16:03:43.072,-0.6,0.0
16:03:43.076,-0.565,0.02
16:03:43.080,-0.55,0.0
16:03:43.084,-0.505,-0.02
16:03:43.088,-0.48,0.005
16:03:43.092,-0.455,0.02
16:03:43.096,-0.4,0.015
16:03:43.100,-0.365,0.025
16:03:43.104,-0.34,0.02
16:03:43.108,-0.35,0.03
16:03:43.112,-0.345,0.015
16:03:43.116,-0.33,0.03
16:03:43.120,-0.34,0.005
16:03:43.124,-0.35,0.01
16:03:43.128,-0.375,0.01
16:03:43.132,-0.39,0.025
16:03:43.136,-0.385,0.035
16:03:43.140,-0.375,0.045
16:03:43.144,-0.4,0.055
16:03:43.148,-0.43,0.11
16:03:43.152,-0.45,0.16
16:03:43.156,-0.46,0.16
16:03:43.160,-0.475,0.21
16:03:43.164,-0.49,0.21
16:03:43.168,-0.475,0.23
16:03:43.172,-0.495,0.245
16:03:43.176,-0.49,0.29
16:03:43.180,-0.505,0.29
16:03:43.184,-0.51,0.29
16:03:43.188,-0.51,0.285
16:03:43.192,-0.52,0.3
16:03:43.196,-0.52,0.31
16:03:43.200,-0.54,0.305
16:03:43.204,-0.53,0.305
16:03:43.208,-0.54,0.325
16:03:43.212,-0.55,0.3
16:03:43.216,-0.575,0.335
16:03:43.220,-0.585,0.335
16:03:43.224,-0.62,0.31
16:03:43.228,-0.62,0.31
16:03:43.232,-0.625,0.305
16:03:43.236,-0.64,0.315
16:03:43.240,-0.64,0.33
16:03:43.244,-0.635,0.295
16:03:43.248,-0.64,0.31
16:03:43.252,-0.64,0.3
16:03:43.256,-0.65,0.325
16:03:43.260,-0.635,0.305
16:03:43.264,-0.605,0.315
16:03:43.268,-0.57,0.34
16:03:43.272,-0.545,0.36
16:03:43.276,-0.535,0.355
16:03:43.280,-0.51,0.4
16:03:43.284,-0.465,0.39
16:03:43.288,-0.46,0.42
16:03:43.292,-0.43,0.465
16:03:43.296,-0.45,0.47
16:03:43.300,-0.35,0.52
16:03:43.304,-0.16,0.55
16:03:43.308,0.045,0.605
16:03:43.312,0.22,0.63
16:03:43.316,0.3,0.62
16:03:43.320,0.155,0.595
16:03:43.324,-0.145,0.59
16:03:43.328,-0.41,0.56
16:03:43.332,-0.62,0.605
16:03:43.336,-0.685,0.79
16:03:43.340,-0.735,0.94
16:03:43.344,-0.705,1.075
16:03:43.348,-0.755,1.17
16:03:43.352,-0.745,1.245
16:03:43.356,-0.815,1.36
16:03:43.360,-0.87,1.5
16:03:43.364,-0.92,1.61
16:03:43.368,-0.925,1.54
16:03:43.372,-0.9,1.355
16:03:43.376,-0.78,1.16
16:03:43.380,-0.61,1.045
16:03:43.384,-0.52,1.03
16:03:43.388,-0.48,0.85
16:03:43.392,-0.5,0.625
16:03:43.396,-0.495,0.455
16:03:43.400,-0.485,0.39
16:03:43.404,-0.485,0.4
16:03:43.408,-0.485,0.365
16:03:43.412,-0.49,0.31
16:03:43.416,-0.475,0.305
16:03:43.420,-0.495,0.315
16:03:43.424,-0.495,0.3
16:03:43.428,-0.49,0.275
16:03:43.432,-0.515,0.255
16:03:43.436,-0.545,0.255
16:03:43.440,-0.535,0.245
16:03:43.444,-0.56,0.225
16:03:43.448,-0.555,0.205
16:03:43.452,-0.56,0.18
16:03:43.456,-0.57,0.15
16:03:43.460,-0.58,0.125
16:03:43.464,-0.565,0.115
16:03:43.468,-0.54,0.115
16:03:43.472,-0.485,0.07
16:03:43.476,-0.455,0.07
16:03:43.480,-0.47,0.07
16:03:43.484,-0.415,0.065
16:03:43.488,-0.36,0.055
16:03:43.492,-0.335,0.055
16:03:43.496,-0.315,0.085
16:03:43.500,-0.265,0.085
16:03:43.504,-0.255,0.095
16:03:43.508,-0.26,0.09
16:03:43.512,-0.24,0.1
16:03:43.516,-0.22,0.105
16:03:43.520,-0.22,0.115
16:03:43.524,-0.225,0.115
16:03:43.528,-0.245,0.08
16:03:43.532,-0.255,0.105
16:03:43.536,-0.285,0.095
16:03:43.540,-0.3,0.13
16:03:43.544,-0.32,0.11
16:03:43.548,-0.33,0.135
16:03:43.552,-0.34,0.165
16:03:43.556,-0.375,0.2
16:03:43.560,-0.38,0.22
16:03:43.564,-0.42,0.26
16:03:43.568,-0.42,0.27
16:03:43.572,-0.425,0.32
16:03:43.576,-0.425,0.325
16:03:43.580,-0.44,0.375
16:03:43.584,-0.445,0.375
16:03:43.588,-0.43,0.385
16:03:43.592,-0.44,0.41
16:03:43.596,-0.44,0.4
16:03:43.600,-0.435,0.4
16:03:43.604,-0.43,0.41
16:03:43.608,-0.435,0.42
16:03:43.612,-0.46,0.4
16:03:43.616,-0.43,0.42
16:03:43.620,-0.325,0.43
16:03:43.624,-0.105,0.425
16:03:43.628,0.19,0.46
16:03:43.632,0.445,0.56
16:03:43.636,0.505,0.56
16:03:43.640,0.275,0.53
16:03:43.644,-0.13,0.525
16:03:43.648,-0.55,0.485
16:03:43.652,-0.785,0.565
16:03:43.656,-0.91,0.745
16:03:43.660,-0.95,1.005
16:03:43.664,-0.965,1.115
16:03:43.668,-0.985,1.19
16:03:43.672,-1.01,1.235
16:03:43.676,-1.015,1.285
16:03:43.680,-1.015,1.395
16:03:43.684,-1.01,1.465
16:03:43.688,-1.025,1.555
16:03:43.692,-1.005,1.62
16:03:43.696,-0.915,1.685
16:03:43.700,-0.86,1.785
16:03:43.704,-0.72,1.825
16:03:43.708,-0.605,1.83
16:03:43.712,-0.515,1.68
16:03:43.716,-0.45,1.395
16:03:43.720,-0.405,0.985
16:03:43.724,-0.405,0.615
16:03:43.728,-0.385,0.425
16:03:43.732,-0.395,0.335
16:03:43.736,-0.415,0.27
16:03:43.740,-0.415,0.23
16:03:43.744,-0.42,0.185
16:03:43.748,-0.42,0.17
16:03:43.752,-0.415,0.135
16:03:43.756,-0.44,0.095
16:03:43.760,-0.455,0.085
16:03:43.764,-0.475,0.015
16:03:43.768,-0.5,0.015
16:03:43.772,-0.515,-0.02
16:03:43.776,-0.48,-0.04
16:03:43.780,-0.445,-0.05
16:03:43.784,-0.4,-0.075
16:03:43.788,-0.365,-0.105
16:03:43.792,-0.335,-0.125
16:03:43.796,-0.315,-0.15
16:03:43.800,-0.32,-0.17
16:03:43.804,-0.335,-0.195
16:03:43.808,-0.32,-0.2
16:03:43.812,-0.315,-0.205
16:03:43.816,-0.325,-0.22
16:03:43.820,-0.34,-0.245
16:03:43.824,-0.355,-0.255
16:03:43.828,-0.375,-0.245
16:03:43.832,-0.385,-0.255
16:03:43.836,-0.395,-0.255
16:03:43.840,-0.39,-0.23
16:03:43.844,-0.39,-0.23
16:03:43.848,-0.41,-0.19
16:03:43.852,-0.445,-0.155
16:03:43.856,-0.48,-0.11
16:03:43.860,-0.505,-0.115
16:03:43.864,-0.51,-0.075
16:03:43.868,-0.54,-0.055
16:03:43.872,-0.525,0.0
16:03:43.876,-0.49,0.05
16:03:43.880,-0.475,0.095
16:03:43.884,-0.45,0.14
16:03:43.888,-0.455,0.2
16:03:43.892,-0.44,0.26
16:03:43.896,-0.4,0.29
16:03:43.900,-0.36,0.325
16:03:43.904,-0.32,0.33
16:03:43.908,-0.315,0.385
16:03:43.912,-0.285,0.42
16:03:43.916,-0.25,0.43
16:03:43.920,-0.245,0.45
16:03:43.924,-0.23,0.425
16:03:43.928,-0.18,0.425
16:03:43.932,-0.035,0.4
16:03:43.936,0.18,0.4
16:03:43.940,0.375,0.445
16:03:43.944,0.635,0.5
16:03:43.948,0.73,0.525
16:03:43.952,0.52,0.495
16:03:43.956,0.085,0.465
16:03:43.960,-0.245,0.415
16:03:43.964,-0.45,0.435
16:03:43.968,-0.61,0.66
16:03:43.972,-0.795,1.035
16:03:43.976,-0.905,1.325
16:03:43.980,-0.935,1.41
16:03:43.984,-0.88,1.245
16:03:43.988,-0.775,0.945
16:03:43.992,-0.67,0.755
16:03:43.996,-0.625,0.735
16:03:44.000,-0.585,0.655
16:03:44.004,-0.535,0.56
16:03:44.008,-0.545,0.5
16:03:44.012,-0.545,0.455
16:03:44.016,-0.525,0.395
16:03:44.020,-0.545,0.375
16:03:44.024,-0.535,0.365
16:03:44.028,-0.535,0.355
16:03:44.032,-0.545,0.33
16:03:44.036,-0.57,0.32
16:03:44.040,-0.565,0.34
16:03:44.044,-0.575,0.335
16:03:44.048,-0.6,0.34
16:03:44.052,-0.595,0.32
16:03:44.056,-0.61,0.32
16:03:44.060,-0.63,0.31
16:03:44.064,-0.63,0.3
16:03:44.068,-0.625,0.295
16:03:44.072,-0.61,0.28
16:03:44.076,-0.58,0.275
16:03:44.080,-0.52,0.26
16:03:44.084,-0.51,0.26
16:03:44.088,-0.485,0.255
16:03:44.092,-0.44,0.28
16:03:44.096,-0.405,0.275
16:03:44.100,-0.355,0.315
16:03:44.104,-0.305,0.29
16:03:44.108,-0.25,0.335
16:03:44.112,-0.2,0.315
16:03:44.116,-0.165,0.33
16:03:44.120,-0.155,0.33
16:03:44.124,-0.125,0.34
16:03:44.128,-0.125,0.36
16:03:44.132,-0.11,0.37
16:03:44.136,-0.155,0.385
16:03:44.140,-0.155,0.36
16:03:44.144,-0.2,0.32
16:03:44.148,-0.21,0.315
16:03:44.152,-0.26,0.33
16:03:44.156,-0.275,0.33
16:03:44.160,-0.265,0.35
16:03:44.164,-0.305,0.36
16:03:44.168,-0.33,0.365
16:03:44.172,-0.35,0.375
16:03:44.176,-0.345,0.395
16:03:44.180,-0.34,0.405
16:03:44.184,-0.35,0.42
16:03:44.188,-0.34,0.395
16:03:44.192,-0.355,0.41
16:03:44.196,-0.375,0.435
16:03:44.200,-0.36,0.425
16:03:44.204,-0.34,0.405
16:03:44.208,-0.355,0.405
16:03:44.212,-0.355,0.42
16:03:44.216,-0.37,0.435
16:03:44.220,-0.37,0.435
16:03:44.224,-0.38,0.42
16:03:44.228,-0.38,0.43
16:03:44.232,-0.38,0.415
16:03:44.236,-0.35,0.415
16:03:44.240,-0.2,0.43
16:03:44.244,0.065,0.46
16:03:44.248,0.355,0.5
16:03:44.252,0.54,0.535
16:03:44.256,0.525,0.545
16:03:44.260,0.255,0.52
16:03:44.264,-0.185,0.5
16:03:44.268,-0.525,0.53
16:03:44.272,-0.705,0.635
16:03:44.276,-0.76,0.89
16:03:44.280,-0.775,1.12
16:03:44.284,-0.79,1.2
16:03:44.288,-0.805,1.28
16:03:44.292,-0.8,1.28
16:03:44.296,-0.83,1.325
16:03:44.300,-0.81,1.425
16:03:44.304,-0.84,1.565
16:03:44.308,-0.855,1.675
16:03:44.312,-0.815,1.72
16:03:44.316,-0.745,1.725
16:03:44.320,-0.655,1.74
16:03:44.324,-0.57,1.74
16:03:44.328,-0.455,1.675
16:03:44.332,-0.375,1.575
16:03:44.336,-0.355,1.4
16:03:44.340,-0.315,1.1
16:03:44.344,-0.29,0.68
16:03:44.348,-0.305,0.365
16:03:44.352,-0.295,0.215
16:03:44.356,-0.29,0.155
16:03:44.360,-0.29,0.14
16:03:44.364,-0.32,0.12
16:03:44.368,-0.34,0.06
16:03:44.372,-0.33,0.06
16:03:44.376,-0.33,0.135
16:03:44.380,-0.335,0.295
16:03:44.384,-0.345,0.4
16:03:44.388,-0.35,0.28
16:03:44.392,-0.3,0.16
16:03:44.396,-0.305,0.155
16:03:44.400,-0.29,-0.015
16:03:44.404,-0.275,-0.39
16:03:44.408,-0.28,-0.46
16:03:44.412,-0.255,-0.39
16:03:44.416,-0.26,-0.485
16:03:44.420,-0.26,-0.765
16:03:44.424,-0.24,-1.09
16:03:44.428,-0.215,-1.265
16:03:44.432,-0.195,-1.395
16:03:44.436,-0.22,-1.565
16:03:44.440,-0.29,-1.715
16:03:44.444,-0.305,-1.75
16:03:44.448,-0.295,-1.685
16:03:44.452,-0.29,-1.64
16:03:44.456,-0.32,-1.55
16:03:44.460,-0.325,-1.505
16:03:44.464,-0.315,-1.455
16:03:44.468,-0.275,-1.33
16:03:44.472,-0.235,-1.24
16:03:44.476,-0.22,-1.065
16:03:44.480,-0.195,-0.82
16:03:44.484,-0.175,-0.795
16:03:44.488,-0.13,-1.04
16:03:44.492,-0.095,-1.12
16:03:44.496,-0.095,-0.925
16:03:44.500,-0.115,-0.935
16:03:44.504,-0.115,-1.085
16:03:44.508,-0.115,-1.09
16:03:44.512,-0.115,-1.075
16:03:44.516,-0.06,-1.07
16:03:44.520,-0.03,-0.895
16:03:44.524,0.01,-0.72
16:03:44.528,0.11,-0.785
16:03:44.532,0.305,-0.92
16:03:44.536,0.605,-0.745
16:03:44.540,0.865,-0.46
16:03:44.544,1.01,-0.525
16:03:44.548,0.93,-0.78
16:03:44.552,0.535,-0.895
16:03:44.556,0.0,-0.985
16:03:44.560,-0.36,-0.93
16:03:44.564,-0.495,-0.64
16:03:44.568,-0.525,-0.32
16:03:44.572,-0.515,-0.265
16:03:44.576,-0.53,-0.36
16:03:44.580,-0.545,-0.24
16:03:44.584,-0.565,0.085
16:03:44.588,-0.56,0.56
16:03:44.592,-0.58,0.515
16:03:44.596,-0.635,0.08
16:03:44.600,-0.65,-0.015
16:03:44.604,-0.63,0.28
16:03:44.608,-0.62,0.835
16:03:44.612,-0.58,1.08
16:03:44.616,-0.535,0.6
16:03:44.620,-0.51,0.105
16:03:44.624,-0.46,-0.21
16:03:44.628,-0.425,-0.485
16:03:44.632,-0.385,-0.575
16:03:44.636,-0.435,-0.485
16:03:44.640,-0.46,-0.59
16:03:44.644,-0.465,-0.895
16:03:44.648,-0.445,-0.715
16:03:44.652,-0.465,-0.675
16:03:44.656,-0.47,-0.985
16:03:44.660,-0.475,-1.265
16:03:44.664,-0.45,-1.075
16:03:44.668,-0.4,-0.73
16:03:44.672,-0.34,-0.665
16:03:44.676,-0.26,-0.865
16:03:44.680,-0.205,-0.87
16:03:44.684,-0.185,-0.73
16:03:44.688,-0.195,-0.885
16:03:44.692,-0.17,-1.215
16:03:44.696,-0.05,-1.29
16:03:44.700,0.015,-1.045
16:03:44.704,0.05,-0.95
16:03:44.708,0.095,-1.095
16:03:44.712,0.145,-0.975
16:03:44.716,0.155,-0.86
16:03:44.720,0.085,-0.98
16:03:44.724,0.02,-1.24
16:03:44.728,-0.055,-1.275
16:03:44.732,-0.135,-1.185
16:03:44.736,-0.155,-1.3
16:03:44.740,-0.115,-1.265
16:03:44.744,-0.08,-0.93
16:03:44.748,-0.085,-0.86
16:03:44.752,-0.09,-1.08
16:03:44.756,-0.11,-1.265
16:03:44.760,-0.16,-1.315
16:03:44.764,-0.205,-1.07
16:03:44.768,-0.235,-0.94
16:03:44.772,-0.195,-1.02
16:03:44.776,-0.19,-0.805
16:03:44.780,-0.21,-0.86
16:03:44.784,-0.225,-1.17
16:03:44.788,-0.275,-1.085
16:03:44.792,-0.285,-1.03
16:03:44.796,-0.265,-0.77
16:03:44.800,-0.265,-0.485
16:03:44.804,-0.215,-0.7
16:03:44.808,-0.235,-0.89
16:03:44.812,-0.265,-1.02
16:03:44.816,-0.27,-1.215
16:03:44.820,-0.285,-1.115
16:03:44.824,-0.315,-0.82
16:03:44.828,-0.325,-0.53
16:03:44.832,-0.29,-0.545
16:03:44.836,-0.28,-0.69
16:03:44.840,-0.275,-0.7
16:03:44.844,-0.305,-0.775
16:03:44.848,-0.385,-0.955
16:03:44.852,-0.415,-0.995
16:03:44.856,-0.44,-0.805
16:03:44.860,-0.44,-0.59
16:03:44.864,-0.43,-0.7
16:03:44.868,-0.43,-1.0
16:03:44.872,-0.4,-1.05
16:03:44.876,-0.35,-1.095
16:03:44.880,-0.305,-1.16
16:03:44.884,-0.24,-1.065
16:03:44.888,-0.21,-0.96
16:03:44.892,-0.21,-0.8
16:03:44.896,-0.245,-0.635
16:03:44.900,-0.26,-0.855
16:03:44.904,-0.215,-1.19
16:03:44.908,-0.175,-1.055
16:03:44.912,-0.2,-0.85
16:03:44.916,-0.19,-0.955
16:03:44.920,-0.19,-1.155
16:03:44.924,-0.205,-1.3
16:03:44.928,-0.225,-1.3
16:03:44.932,-0.24,-1.28
16:03:44.936,-0.2,-1.235
16:03:44.940,-0.22,-1.22
16:03:44.944,-0.235,-1.265
16:03:44.948,-0.2,-1.21
16:03:44.952,-0.18,-1.13
16:03:44.956,-0.18,-1.175
16:03:44.960,-0.245,-1.205
16:03:44.964,-0.255,-1.265
16:03:44.968,-0.21,-1.355
16:03:44.972,-0.19,-1.255
16:03:44.976,-0.215,-1.125
16:03:44.980,-0.245,-1.245
16:03:44.984,-0.24,-1.345
16:03:44.988,-0.19,-1.14
16:03:44.992,-0.1,-0.95
16:03:44.996,0.115,-1.05
16:03:45.000,0.39,-1.17
16:03:45.004,0.56,-1.1
16:03:45.008,0.63,-1.16
16:03:45.012,0.52,-1.4
16:03:45.016,0.195,-1.35
16:03:45.020,-0.18,-1.24
16:03:45.024,-0.4,-1.295
16:03:45.028,-0.51,-1.245
16:03:45.032,-0.545,-1.045
16:03:45.036,-0.55,-0.925
16:03:45.040,-0.605,-0.82
16:03:45.044,-0.665,-0.675
16:03:45.048,-0.685,-0.485
16:03:45.052,-0.725,-0.41
16:03:45.056,-0.785,-0.445
16:03:45.060,-0.785,-0.58
16:03:45.064,-0.67,-0.795
16:03:45.068,-0.52,-0.77
16:03:45.072,-0.425,-0.58
16:03:45.076,-0.405,-0.865
16:03:45.080,-0.345,-1.365
16:03:45.084,-0.265,-1.345
16:03:45.088,-0.205,-1.15
16:03:45.092,-0.155,-1.115
16:03:45.096,-0.16,-1.465
16:03:45.100,-0.175,-1.675
16:03:45.104,-0.175,-1.62
16:03:45.108,-0.125,-1.455
16:03:45.112,-0.115,-1.375
16:03:45.116,-0.105,-1.495
16:03:45.120,-0.08,-1.555
16:03:45.124,-0.08,-1.525
16:03:45.128,-0.085,-1.505
16:03:45.132,-0.08,-1.495
16:03:45.136,-0.06,-1.505
16:03:45.140,-0.065,-1.45
16:03:45.144,-0.095,-1.39
16:03:45.148,-0.06,-1.57
16:03:45.152,-0.025,-1.76
16:03:45.156,-0.02,-1.72
16:03:45.160,-0.035,-1.7
16:03:45.164,-0.035,-1.93
16:03:45.168,-0.05,-2.03
16:03:45.172,-0.05,-1.89
16:03:45.176,-0.035,-1.84
16:03:45.180,-0.05,-1.86
16:03:45.184,-0.06,-1.82
16:03:45.188,-0.055,-1.85
16:03:45.192,-0.06,-1.875
16:03:45.196,-0.07,-1.78
16:03:45.200,-0.05,-1.71
16:03:45.204,-0.09,-1.77
16:03:45.208,-0.095,-1.715
16:03:45.212,-0.105,-1.71
16:03:45.216,-0.09,-1.76
16:03:45.220,-0.11,-1.76
16:03:45.224,-0.16,-1.765
16:03:45.228,-0.185,-1.78
16:03:45.232,-0.19,-1.685
16:03:45.236,-0.195,-1.535
16:03:45.240,-0.235,-1.39
16:03:45.244,-0.24,-1.3
16:03:45.248,-0.285,-1.51
16:03:45.252,-0.28,-1.77
16:03:45.256,-0.325,-1.665
16:03:45.260,-0.36,-1.48
16:03:45.264,-0.375,-1.39
16:03:45.268,-0.325,-1.465
16:03:45.272,-0.33,-1.595
16:03:45.276,-0.285,-1.595
16:03:45.280,-0.28,-1.535
16:03:45.284,-0.275,-1.475
16:03:45.288,-0.24,-1.38
16:03:45.292,-0.175,-1.37
16:03:45.296,-0.11,-1.345
16:03:45.300,-0.075,-1.305
16:03:45.304,-0.07,-1.275
16:03:45.308,0.005,-1.27
16:03:45.312,0.165,-1.265
16:03:45.316,0.445,-1.2
16:03:45.320,0.755,-1.07
16:03:45.324,1.01,-1.02
16:03:45.328,1.03,-1.035
16:03:45.332,0.745,-1.0
16:03:45.336,0.305,-1.135
16:03:45.340,-0.12,-1.355
16:03:45.344,-0.425,-1.45
16:03:45.348,-0.5,-1.195
16:03:45.352,-0.51,-0.995
16:03:45.356,-0.485,-0.875
16:03:45.360,-0.53,-0.8
16:03:45.364,-0.55,-0.785
16:03:45.368,-0.56,-0.715
16:03:45.372,-0.55,-0.6
16:03:45.376,-0.575,-0.495
16:03:45.380,-0.6,-0.375
16:03:45.384,-0.61,-0.28
16:03:45.388,-0.6,-0.175
16:03:45.392,-0.57,-0.045
16:03:45.396,-0.495,0.06
16:03:45.400,-0.45,-0.03
16:03:45.404,-0.41,-0.38
16:03:45.408,-0.355,-0.715
16:03:45.412,-0.335,-1.1
16:03:45.416,-0.32,-1.31
16:03:45.420,-0.345,-1.35
16:03:45.424,-0.345,-1.46
16:03:45.428,-0.345,-1.53
16:03:45.432,-0.37,-1.41
16:03:45.436,-0.375,-1.39
16:03:45.440,-0.43,-1.57
16:03:45.444,-0.43,-1.65
16:03:45.448,-0.44,-1.685
16:03:45.452,-0.41,-1.74
16:03:45.456,-0.39,-1.72
16:03:45.460,-0.415,-1.695
16:03:45.464,-0.465,-1.665
16:03:45.468,-0.47,-1.58
16:03:45.472,-0.395,-1.455
16:03:45.476,-0.32,-1.33
16:03:45.480,-0.31,-1.245
16:03:45.484,-0.305,-1.52
16:03:45.488,-0.245,-1.66
16:03:45.492,-0.18,-1.66
16:03:45.496,-0.14,-1.985
16:03:45.500,-0.12,-2.12
16:03:45.504,-0.105,-1.99
16:03:45.508,-0.095,-1.81
16:03:45.512,-0.09,-1.68
16:03:45.516,-0.1,-1.62
16:03:45.520,-0.12,-1.72
16:03:45.524,-0.11,-1.845
16:03:45.528,-0.11,-1.85
16:03:45.532,-0.12,-1.715
16:03:45.536,-0.12,-1.545
16:03:45.540,-0.12,-1.415
16:03:45.544,-0.14,-1.305
16:03:45.548,-0.175,-1.385
16:03:45.552,-0.255,-1.79
16:03:45.556,-0.27,-1.815
16:03:45.560,-0.225,-1.305
16:03:45.564,-0.16,-1.065
16:03:45.568,-0.09,-1.24
16:03:45.572,-0.08,-1.735
16:03:45.576,-0.13,-1.99
16:03:45.580,-0.175,-1.67
16:03:45.584,-0.185,-1.48
16:03:45.588,-0.195,-1.495
16:03:45.592,-0.235,-1.48
16:03:45.596,-0.275,-1.375
16:03:45.600,-0.27,-1.315
16:03:45.604,-0.25,-1.24
16:03:45.608,-0.245,-1.025
16:03:45.612,-0.255,-0.715
16:03:45.616,-0.23,-0.885
16:03:45.620,-0.23,-0.995
16:03:45.624,-0.215,-0.83
16:03:45.628,-0.14,-0.95
16:03:45.632,0.05,-1.055
16:03:45.636,0.33,-0.99
16:03:45.640,0.605,-1.005
16:03:45.644,0.695,-1.065
16:03:45.648,0.54,-0.755
16:03:45.652,0.16,-0.69
16:03:45.656,-0.2,-1.215
16:03:45.660,-0.46,-1.68
16:03:45.664,-0.61,-1.465
16:03:45.668,-0.69,-1.02
16:03:45.672,-0.755,-0.615
16:03:45.676,-0.825,-0.3
16:03:45.680,-0.82,-0.035
16:03:45.684,-0.735,-0.03
16:03:45.688,-0.63,-0.28
16:03:45.692,-0.48,-0.385
16:03:45.696,-0.44,-0.465
16:03:45.700,-0.395,-0.775
16:03:45.704,-0.32,-0.99
16:03:45.708,-0.24,-0.77
16:03:45.712,-0.225,-0.57
16:03:45.716,-0.16,-0.83
16:03:45.720,-0.125,-1.075
16:03:45.724,-0.145,-1.245
16:03:45.728,-0.23,-1.335
16:03:45.732,-0.24,-1.23
16:03:45.736,-0.17,-1.055
16:03:45.740,-0.08,-0.79
16:03:45.744,-0.06,-0.555
16:03:45.748,-0.065,-0.89
16:03:45.752,-0.065,-1.31
16:03:45.756,-0.08,-1.415
16:03:45.760,-0.11,-1.37
16:03:45.764,-0.14,-1.16
16:03:45.768,-0.14,-1.15
16:03:45.772,-0.12,-1.21
16:03:45.776,-0.145,-1.01
16:03:45.780,-0.145,-1.0
16:03:45.784,-0.175,-1.27
16:03:45.788,-0.16,-1.34
16:03:45.792,-0.095,-1.085
16:03:45.796,-0.035,-0.685
16:03:45.800,0.0,-0.67
16:03:45.804,0.035,-1.19
16:03:45.808,0.08,-1.25
16:03:45.812,0.07,-1.145
16:03:45.816,0.06,-1.29
16:03:45.820,0.09,-1.26
16:03:45.824,0.06,-1.405
16:03:45.828,0.045,-1.625
16:03:45.832,0.005,-1.485
16:03:45.836,0.0,-1.265
16:03:45.840,-0.025,-1.175
16:03:45.844,-0.05,-1.175
16:03:45.848,-0.06,-1.155
16:03:45.852,-0.135,-1.06
16:03:45.856,-0.18,-0.995
16:03:45.860,-0.195,-0.96
16:03:45.864,-0.17,-0.975
16:03:45.868,-0.16,-1.045
16:03:45.872,-0.095,-0.9
16:03:45.876,-0.095,-0.49
16:03:45.880,-0.14,-0.44
16:03:45.884,-0.17,-1.095
16:03:45.888,-0.12,-1.48
16:03:45.892,-0.11,-1.25
16:03:45.896,-0.095,-0.94
16:03:45.900,-0.01,-0.81
16:03:45.904,0.035,-0.675
16:03:45.908,0.065,-0.77
16:03:45.912,0.1,-1.025
16:03:45.916,0.12,-1.005
16:03:45.920,0.12,-0.905
16:03:45.924,0.12,-0.92
16:03:45.928,0.1,-0.84
16:03:45.932,0.15,-0.84
16:03:45.936,0.3,-0.945
16:03:45.940,0.51,-0.915
16:03:45.944,0.805,-0.89
16:03:45.948,1.065,-0.84
16:03:45.952,1.265,-0.805
16:03:45.956,1.255,-0.775
16:03:45.960,0.94,-0.7
16:03:45.964,0.45,-0.67
16:03:45.968,-0.035,-0.81
16:03:45.972,-0.325,-0.83
16:03:45.976,-0.4,-0.58
16:03:45.980,-0.355,-0.12
16:03:45.984,-0.33,0.29
16:03:45.988,-0.355,0.145
16:03:45.992,-0.35,-0.3
16:03:45.996,-0.34,-0.495
16:03:46.000,-0.375,-0.51
16:03:46.004,-0.42,-0.31
16:03:46.008,-0.465,-0.045
16:03:46.012,-0.47,0.05
16:03:46.016,-0.465,0.095
16:03:46.020,-0.445,0.2
16:03:46.024,-0.345,0.29
16:03:46.028,-0.255,0.325
16:03:46.032,-0.205,0.22
16:03:46.036,-0.185,-0.09
16:03:46.040,-0.185,-0.465
16:03:46.044,-0.2,-0.725
16:03:46.048,-0.19,-0.865
16:03:46.052,-0.16,-0.865
16:03:46.056,-0.21,-0.805
16:03:46.060,-0.245,-0.89
16:03:46.064,-0.24,-1.01
16:03:46.068,-0.21,-1.02
16:03:46.072,-0.185,-0.98
16:03:46.076,-0.18,-0.935
16:03:46.080,-0.215,-1.105
16:03:46.084,-0.195,-1.325
16:03:46.088,-0.21,-1.32
16:03:46.092,-0.21,-1.295
16:03:46.096,-0.15,-1.265
16:03:46.100,-0.08,-1.27
16:03:46.104,-0.045,-1.25
16:03:46.108,-0.035,-1.215
16:03:46.112,-0.01,-1.2
16:03:46.116,0.055,-1.225
16:03:46.120,0.115,-1.16
16:03:46.124,0.095,-1.145
16:03:46.128,0.09,-1.22
16:03:46.132,0.095,-1.29
16:03:46.136,0.105,-1.23
16:03:46.140,0.1,-1.15
16:03:46.144,0.08,-1.295
16:03:46.148,0.055,-1.4
16:03:46.152,0.0,-1.38
16:03:46.156,-0.04,-1.225
16:03:46.160,-0.015,-0.995
16:03:46.164,-0.01,-0.995
16:03:46.168,-0.035,-1.295
16:03:46.172,-0.015,-1.485
16:03:46.176,0.02,-1.5
16:03:46.180,0.055,-1.45
16:03:46.184,0.015,-1.3
16:03:46.188,-0.01,-1.175
16:03:46.192,-0.025,-1.1
16:03:46.196,-0.01,-1.07
16:03:46.200,-0.005,-1.055
16:03:46.204,-0.015,-0.97
16:03:46.208,-0.01,-0.91
16:03:46.212,-0.03,-0.895
16:03:46.216,-0.03,-0.88
16:03:46.220,-0.055,-0.87
16:03:46.224,-0.055,-0.84
16:03:46.228,-0.065,-0.785
16:03:46.232,-0.1,-0.72
16:03:46.236,-0.115,-0.72
16:03:46.240,-0.11,-0.75
16:03:46.244,-0.125,-0.725
16:03:46.248,-0.195,-0.66
16:03:46.252,-0.205,-0.51
16:03:46.256,-0.215,-0.42
16:03:46.260,-0.21,-0.57
16:03:46.264,-0.2,-0.79
16:03:46.268,-0.21,-0.84
16:03:46.272,-0.215,-0.785
16:03:46.276,-0.26,-0.73
16:03:46.280,-0.345,-0.725
16:03:46.284,-0.355,-0.75
16:03:46.288,-0.33,-0.775
16:03:46.292,-0.31,-0.75
16:03:46.296,-0.295,-0.71
16:03:46.300,-0.27,-0.6
16:03:46.304,-0.195,-0.56
16:03:46.308,-0.16,-0.645
16:03:46.312,-0.125,-0.66
16:03:46.316,-0.11,-0.585
16:03:46.320,-0.17,-0.545
16:03:46.324,-0.2,-0.435
16:03:46.328,-0.145,-0.295
16:03:46.332,-0.01,-0.2
16:03:46.336,0.27,-0.36
16:03:46.340,0.55,-0.67
16:03:46.344,0.775,-0.725
16:03:46.348,0.86,-0.615
16:03:46.352,0.67,-0.605
16:03:46.356,0.245,-0.63
16:03:46.360,-0.13,-0.605
16:03:46.364,-0.395,-0.515
16:03:46.368,-0.49,-0.31
16:03:46.372,-0.52,-0.23
16:03:46.376,-0.505,-0.13
16:03:46.380,-0.57,0.045
16:03:46.384,-0.66,0.27
16:03:46.388,-0.68,0.375
16:03:46.392,-0.67,0.28
16:03:46.396,-0.66,0.04
16:03:46.400,-0.55,-0.04
16:03:46.404,-0.41,-0.04
16:03:46.408,-0.29,0.085
16:03:46.412,-0.28,-0.05
16:03:46.416,-0.265,-0.445
16:03:46.420,-0.28,-0.775
16:03:46.424,-0.25,-0.81
16:03:46.428,-0.265,-0.71
16:03:46.432,-0.325,-0.67
16:03:46.436,-0.36,-0.7
16:03:46.440,-0.315,-0.68
16:03:46.444,-0.28,-0.66
16:03:46.448,-0.24,-0.64
16:03:46.452,-0.235,-0.635
16:03:46.456,-0.235,-0.67
16:03:46.460,-0.28,-0.715
16:03:46.464,-0.3,-0.71
16:03:46.468,-0.305,-0.68
16:03:46.472,-0.29,-0.69
16:03:46.476,-0.29,-0.705
16:03:46.480,-0.31,-0.72
16:03:46.484,-0.295,-0.72
16:03:46.488,-0.295,-0.75
16:03:46.492,-0.27,-0.765
16:03:46.496,-0.26,-0.725
16:03:46.500,-0.21,-0.605
16:03:46.504,-0.14,-0.465
16:03:46.508,-0.08,-0.525
16:03:46.512,-0.01,-0.69
16:03:46.516,0.005,-0.85
16:03:46.520,0.055,-0.895
16:03:46.524,0.075,-0.9
16:03:46.528,0.115,-0.88
16:03:46.532,0.14,-0.85
16:03:46.536,0.14,-0.815
16:03:46.540,0.09,-0.745
16:03:46.544,0.075,-0.74
16:03:46.548,0.065,-0.74
16:03:46.552,0.06,-0.73
16:03:46.556,0.03,-0.77
16:03:46.560,0.02,-0.745
16:03:46.564,0.0,-0.77
16:03:46.568,-0.03,-0.755
16:03:46.572,-0.06,-0.665
16:03:46.576,-0.08,-0.575
16:03:46.580,-0.1,-0.555
16:03:46.584,-0.095,-0.515
16:03:46.588,-0.095,-0.51
16:03:46.592,-0.1,-0.495
16:03:46.596,-0.12,-0.615
16:03:46.600,-0.13,-0.775
16:03:46.604,-0.145,-0.78
16:03:46.608,-0.115,-0.765
16:03:46.612,-0.14,-0.69
16:03:46.616,-0.155,-0.625
16:03:46.620,-0.155,-0.59
16:03:46.624,-0.115,-0.61
16:03:46.628,-0.12,-0.605
16:03:46.632,-0.16,-0.555
16:03:46.636,-0.2,-0.53
16:03:46.640,-0.18,-0.56
16:03:46.644,-0.145,-0.53
16:03:46.648,-0.165,-0.515
16:03:46.652,-0.17,-0.525
16:03:46.656,-0.195,-0.505
16:03:46.660,-0.235,-0.48
16:03:46.664,-0.265,-0.595
16:03:46.668,-0.28,-0.66
16:03:46.672,-0.28,-0.625
16:03:46.676,-0.315,-0.6
16:03:46.680,-0.355,-0.59
16:03:46.684,-0.365,-0.61
16:03:46.688,-0.35,-0.68
16:03:46.692,-0.27,-0.72
16:03:46.696,-0.275,-0.7
16:03:46.700,-0.285,-0.68
16:03:46.704,-0.265,-0.64
16:03:46.708,-0.25,-0.55
16:03:46.712,-0.22,-0.525
16:03:46.716,-0.22,-0.49
16:03:46.720,-0.21,-0.385
16:03:46.724,-0.22,-0.33
16:03:46.728,-0.18,-0.48
16:03:46.732,-0.165,-0.675
16:03:46.736,-0.15,-0.625
16:03:46.740,-0.12,-0.49
16:03:46.744,-0.07,-0.505
16:03:46.748,-0.07,-0.605
16:03:46.752,-0.13,-0.755
16:03:46.756,-0.16,-0.76
16:03:46.760,-0.165,-0.67
16:03:46.764,-0.2,-0.65
16:03:46.768,-0.165,-0.72
16:03:46.772,-0.17,-0.73
16:03:46.776,-0.185,-0.655
16:03:46.780,-0.205,-0.61
16:03:46.784,-0.18,-0.59
16:03:46.788,-0.2,-0.555
16:03:46.792,-0.21,-0.45
16:03:46.796,-0.175,-0.405
16:03:46.800,-0.195,-0.525
16:03:46.804,-0.24,-0.7
16:03:46.808,-0.26,-0.805
16:03:46.812,-0.21,-0.79
16:03:46.816,-0.235,-0.69
16:03:46.820,-0.26,-0.63
16:03:46.824,-0.13,-0.54
16:03:46.828,0.14,-0.495
16:03:46.832,0.39,-0.47
16:03:46.836,0.58,-0.495
16:03:46.840,0.63,-0.53
16:03:46.844,0.395,-0.56
16:03:46.848,-0.005,-0.515
16:03:46.852,-0.375,-0.385
16:03:46.856,-0.63,-0.285
16:03:46.860,-0.72,-0.29
16:03:46.864,-0.73,-0.285
16:03:46.868,-0.76,-0.105
16:03:46.872,-0.78,0.13
16:03:46.876,-0.745,0.21
16:03:46.880,-0.71,0.19
16:03:46.884,-0.755,0.18
16:03:46.888,-0.78,0.175
16:03:46.892,-0.745,0.22
16:03:46.896,-0.775,0.275
16:03:46.900,-0.75,0.385
16:03:46.904,-0.67,0.505
16:03:46.908,-0.595,0.57
16:03:46.912,-0.51,0.59
16:03:46.916,-0.395,0.57
16:03:46.920,-0.345,0.52
16:03:46.924,-0.31,0.39
16:03:46.928,-0.26,0.045
16:03:46.932,-0.195,-0.285
16:03:46.936,-0.145,-0.44
16:03:46.940,-0.1,-0.525
16:03:46.944,-0.08,-0.56
16:03:46.948,-0.065,-0.665
16:03:46.952,-0.05,-0.75
16:03:46.956,-0.04,-0.78
16:03:46.960,-0.045,-0.765
16:03:46.964,-0.02,-0.785
16:03:46.968,-0.015,-0.815
16:03:46.972,-0.03,-0.815
16:03:46.976,-0.015,-0.875
16:03:46.980,-0.065,-0.965
16:03:46.984,-0.08,-1.015
16:03:46.988,-0.055,-1.06
16:03:46.992,-0.035,-1.055
16:03:46.996,-0.04,-1.11
16:03:47.000,-0.02,-1.11
16:03:47.004,0.0,-1.08
16:03:47.008,-0.02,-1.065
16:03:47.012,-0.065,-1.11
16:03:47.016,-0.07,-1.265
16:03:47.020,-0.04,-1.36
16:03:47.024,-0.035,-1.295
16:03:47.028,-0.02,-1.285
16:03:47.032,-0.03,-1.26
16:03:47.036,-0.05,-1.265
16:03:47.040,-0.095,-1.215
16:03:47.044,-0.08,-1.17
16:03:47.048,-0.07,-1.1
16:03:47.052,-0.12,-1.125
16:03:47.056,-0.1,-1.175
16:03:47.060,-0.105,-1.155
16:03:47.064,-0.135,-1.03
16:03:47.068,-0.18,-0.93
16:03:47.072,-0.255,-0.935
16:03:47.076,-0.315,-1.045
16:03:47.080,-0.31,-1.11
16:03:47.084,-0.305,-1.155
16:03:47.088,-0.325,-1.1
16:03:47.092,-0.33,-1.01
16:03:47.096,-0.31,-0.98
16:03:47.100,-0.24,-0.92
16:03:47.104,-0.215,-0.86
16:03:47.108,-0.15,-0.805
16:03:47.112,-0.085,-0.7
16:03:47.116,-0.06,-0.65
16:03:47.120,-0.11,-0.63
16:03:47.124,-0.14,-0.605
16:03:47.128,-0.155,-0.53
16:03:47.132,-0.155,-0.495
16:03:47.136,-0.125,-0.465
16:03:47.140,-0.05,-0.41
16:03:47.144,-0.03,-0.395
16:03:47.148,-0.03,-0.37
16:03:47.152,-0.02,-0.39
16:03:47.156,-0.015,-0.41
16:03:47.160,-0.015,-0.425
16:03:47.164,-0.055,-0.445
16:03:47.168,-0.045,-0.46
16:03:47.172,0.085,-0.46
16:03:47.176,0.34,-0.415
16:03:47.180,0.645,-0.385
16:03:47.184,0.905,-0.36
16:03:47.188,1.045,-0.32
16:03:47.192,0.955,-0.34
16:03:47.196,0.57,-0.395
16:03:47.200,0.145,-0.44
16:03:47.204,-0.07,-0.425
16:03:47.208,-0.27,-0.26
16:03:47.212,-0.48,0.06
16:03:47.216,-0.68,0.35
16:03:47.220,-0.765,0.59
16:03:47.224,-0.785,0.54
16:03:47.228,-0.705,0.27
16:03:47.232,-0.62,0.04
16:03:47.236,-0.545,0.015
16:03:47.240,-0.48,0.055
16:03:47.244,-0.445,-0.025
16:03:47.248,-0.415,-0.09
16:03:47.252,-0.415,-0.225
16:03:47.256,-0.41,-0.26
16:03:47.260,-0.425,-0.305
16:03:47.264,-0.435,-0.34
16:03:47.268,-0.45,-0.365
16:03:47.272,-0.46,-0.42
16:03:47.276,-0.495,-0.4
16:03:47.280,-0.52,-0.345
16:03:47.284,-0.55,-0.205
16:03:47.288,-0.525,-0.155
16:03:47.292,-0.49,-0.21
16:03:47.296,-0.505,-0.27
16:03:47.300,-0.48,-0.295
16:03:47.304,-0.43,-0.28
16:03:47.308,-0.38,-0.215
16:03:47.312,-0.37,-0.24
16:03:47.316,-0.345,-0.42
16:03:47.320,-0.325,-0.49
16:03:47.324,-0.295,-0.46
16:03:47.328,-0.215,-0.445
16:03:47.332,-0.18,-0.385
16:03:47.336,-0.18,-0.345
16:03:47.340,-0.15,-0.34
16:03:47.344,-0.15,-0.32
16:03:47.348,-0.115,-0.35
16:03:47.352,-0.1,-0.36
16:03:47.356,-0.07,-0.33
16:03:47.360,-0.065,-0.28
16:03:47.364,-0.045,-0.34
16:03:47.368,-0.065,-0.375
16:03:47.372,-0.1,-0.375
16:03:47.376,-0.135,-0.38
16:03:47.380,-0.16,-0.38
16:03:47.384,-0.15,-0.365
16:03:47.388,-0.14,-0.365
16:03:47.392,-0.17,-0.3
16:03:47.396,-0.185,-0.245
16:03:47.400,-0.2,-0.235
16:03:47.404,-0.195,-0.26
16:03:47.408,-0.24,-0.31
16:03:47.412,-0.235,-0.33
16:03:47.416,-0.225,-0.34
16:03:47.420,-0.25,-0.29
16:03:47.424,-0.27,-0.245
16:03:47.428,-0.26,-0.215
16:03:47.432,-0.26,-0.22
16:03:47.436,-0.295,-0.18
16:03:47.440,-0.34,-0.19
16:03:47.444,-0.32,-0.21
16:03:47.448,-0.285,-0.215
16:03:47.452,-0.3,-0.195
16:03:47.456,-0.32,-0.15
16:03:47.460,-0.345,-0.08
16:03:47.464,-0.32,-0.03
16:03:47.468,-0.315,0.04
16:03:47.472,-0.32,0.01
16:03:47.476,-0.37,-0.12
16:03:47.480,-0.39,-0.26
16:03:47.484,-0.43,-0.315
16:03:47.488,-0.42,-0.2
16:03:47.492,-0.41,-0.115
16:03:47.496,-0.44,-0.185
16:03:47.500,-0.42,-0.23
16:03:47.504,-0.415,-0.265
16:03:47.508,-0.4,-0.225
16:03:47.512,-0.4,-0.19
16:03:47.516,-0.395,-0.2
16:03:47.520,-0.37,-0.145
16:03:47.524,-0.31,-0.105
16:03:47.528,-0.26,-0.13
16:03:47.532,-0.22,-0.075
16:03:47.536,-0.23,-0.02
16:03:47.540,-0.195,-0.005
16:03:47.544,-0.135,0.01
16:03:47.548,0.055,0.03
16:03:47.552,0.255,0.09
16:03:47.556,0.465,0.06
16:03:47.560,0.595,0.0
16:03:47.564,0.525,-0.005
16:03:47.568,0.195,0.005
16:03:47.572,-0.135,-0.05
16:03:47.576,-0.39,-0.09
16:03:47.580,-0.52,0.015
16:03:47.584,-0.565,0.18
16:03:47.588,-0.58,0.315
16:03:47.592,-0.605,0.455
16:03:47.596,-0.63,0.55
16:03:47.600,-0.675,0.65
16:03:47.604,-0.75,0.8
16:03:47.608,-0.78,0.91
16:03:47.612,-0.805,0.915
16:03:47.616,-0.785,0.75
16:03:47.620,-0.66,0.595
16:03:47.624,-0.47,0.46
16:03:47.628,-0.375,0.395
16:03:47.632,-0.3,0.26
16:03:47.636,-0.335,0.085
16:03:47.640,-0.34,0.02
16:03:47.644,-0.32,-0.03
16:03:47.648,-0.32,-0.105
16:03:47.652,-0.33,-0.16
16:03:47.656,-0.325,-0.165
16:03:47.660,-0.305,-0.11
16:03:47.664,-0.3,-0.04
16:03:47.668,-0.295,-0.08
16:03:47.672,-0.3,-0.195
16:03:47.676,-0.31,-0.27
16:03:47.680,-0.34,-0.225
16:03:47.684,-0.37,-0.19
16:03:47.688,-0.36,-0.22
16:03:47.692,-0.34,-0.17
16:03:47.696,-0.335,-0.205
16:03:47.700,-0.35,-0.4
16:03:47.704,-0.3,-0.39
16:03:47.708,-0.22,-0.365
16:03:47.712,-0.2,-0.39
16:03:47.716,-0.155,-0.36
16:03:47.720,-0.145,-0.38
16:03:47.724,-0.105,-0.33
16:03:47.728,-0.04,-0.31
16:03:47.732,0.005,-0.325
16:03:47.736,0.02,-0.27
16:03:47.740,0.025,-0.265
16:03:47.744,0.05,-0.29
16:03:47.748,0.045,-0.325
16:03:47.752,0.02,-0.285
16:03:47.756,0.015,-0.26
16:03:47.760,0.0,-0.295
16:03:47.764,0.005,-0.255
16:03:47.768,-0.005,-0.11
16:03:47.772,0.0,-0.09
16:03:47.776,-0.03,-0.3
16:03:47.780,-0.06,-0.41
16:03:47.784,-0.135,-0.34
16:03:47.788,-0.15,-0.32
16:03:47.792,-0.145,-0.305
16:03:47.796,-0.125,-0.245
16:03:47.800,-0.13,-0.2
16:03:47.804,-0.18,-0.145
16:03:47.808,-0.19,-0.1
16:03:47.812,-0.18,-0.135
16:03:47.816,-0.2,-0.14
16:03:47.820,-0.205,-0.105
16:03:47.824,-0.22,-0.04
16:03:47.828,-0.24,0.015
16:03:47.832,-0.275,0.04
16:03:47.836,-0.235,0.055
16:03:47.840,-0.24,0.04
16:03:47.844,-0.235,-0.01
16:03:47.848,-0.205,0.055
16:03:47.852,-0.2,0.15
16:03:47.856,-0.22,0.14
16:03:47.860,-0.23,0.105
16:03:47.864,-0.185,0.055
16:03:47.868,-0.07,0.025
16:03:47.872,0.14,0.045
16:03:47.876,0.47,0.04
16:03:47.880,0.76,0.085
16:03:47.884,0.885,0.16
16:03:47.888,0.785,0.225
16:03:47.892,0.425,0.155
16:03:47.896,-0.055,0.135
16:03:47.900,-0.39,0.175
16:03:47.904,-0.53,0.325
16:03:47.908,-0.555,0.48
16:03:47.912,-0.6,0.575
16:03:47.916,-0.705,0.775
16:03:47.920,-0.83,1.075
16:03:47.924,-0.84,1.195
16:03:47.928,-0.775,1.16
16:03:47.932,-0.68,0.99
16:03:47.936,-0.53,0.9
16:03:47.940,-0.43,0.935
16:03:47.944,-0.365,0.905
16:03:47.948,-0.27,0.61
16:03:47.952,-0.21,0.36
16:03:47.956,-0.22,0.285
16:03:47.960,-0.2,0.235
16:03:47.964,-0.2,0.175
16:03:47.968,-0.205,0.175
16:03:47.972,-0.19,0.175
16:03:47.976,-0.185,0.15
16:03:47.980,-0.18,0.0
16:03:47.984,-0.185,-0.09
16:03:47.988,-0.185,-0.075
16:03:47.992,-0.175,-0.035
16:03:47.996,-0.175,-0.025
16:03:48.000,-0.185,-0.065
16:03:48.004,-0.205,-0.07
16:03:48.008,-0.17,-0.06
16:03:48.012,-0.13,-0.035
16:03:48.016,-0.135,-0.085
16:03:48.020,-0.125,-0.06
16:03:48.024,-0.165,-0.065
16:03:48.028,-0.19,-0.02
16:03:48.032,-0.16,-0.02
16:03:48.036,-0.145,-0.025
16:03:48.040,-0.14,-0.05
16:03:48.044,-0.105,-0.13
16:03:48.048,-0.07,-0.165
16:03:48.052,-0.085,-0.13
16:03:48.056,-0.08,-0.07
16:03:48.060,-0.03,-0.13
16:03:48.064,-0.075,-0.15
16:03:48.068,-0.1,-0.085
16:03:48.072,-0.125,0.005
16:03:48.076,-0.12,0.035
16:03:48.080,-0.135,-0.015
16:03:48.084,-0.175,-0.105
16:03:48.088,-0.15,-0.165
16:03:48.092,-0.16,-0.125
16:03:48.096,-0.2,-0.055
16:03:48.100,-0.21,0.03
16:03:48.104,-0.175,0.07
16:03:48.108,-0.17,0.09
16:03:48.112,-0.195,0.095
16:03:48.116,-0.225,0.07
16:03:48.120,-0.195,0.135
16:03:48.124,-0.15,0.195
16:03:48.128,-0.08,0.22
16:03:48.132,-0.08,0.25
16:03:48.136,-0.065,0.325
16:03:48.140,-0.025,0.42
16:03:48.144,0.005,0.395
16:03:48.148,0.03,0.275
16:03:48.152,0.005,0.29
16:03:48.156,-0.02,0.33
16:03:48.160,0.02,0.275
16:03:48.164,0.025,0.23
16:03:48.168,0.04,0.29
16:03:48.172,0.095,0.235
16:03:48.176,0.195,0.23
16:03:48.180,0.415,0.28
16:03:48.184,0.655,0.315
16:03:48.188,0.87,0.35
16:03:48.192,0.945,0.355
16:03:48.196,0.75,0.42
16:03:48.200,0.325,0.47
16:03:48.204,-0.13,0.43
16:03:48.208,-0.395,0.405
16:03:48.212,-0.53,0.6
16:03:48.216,-0.55,0.89
16:03:48.220,-0.49,1.105
16:03:48.224,-0.55,1.18
16:03:48.228,-0.615,1.23
16:03:48.232,-0.615,1.21
16:03:48.236,-0.63,1.195
16:03:48.240,-0.685,1.18
16:03:48.244,-0.72,1.175
16:03:48.248,-0.725,1.235
16:03:48.252,-0.695,1.33
16:03:48.256,-0.635,1.405
16:03:48.260,-0.52,1.455
16:03:48.264,-0.41,1.42
16:03:48.268,-0.35,1.325
16:03:48.272,-0.32,1.12
16:03:48.276,-0.305,0.735
16:03:48.280,-0.34,0.435
16:03:48.284,-0.345,0.245
16:03:48.288,-0.335,0.16
16:03:48.292,-0.315,0.185
16:03:48.296,-0.355,0.19
16:03:48.300,-0.405,0.19
16:03:48.304,-0.435,0.145
16:03:48.308,-0.43,0.135
16:03:48.312,-0.44,0.16
16:03:48.316,-0.42,0.155
16:03:48.320,-0.35,0.1
16:03:48.324,-0.31,0.045
16:03:48.328,-0.29,-0.01
16:03:48.332,-0.25,-0.06
16:03:48.336,-0.235,-0.04
16:03:48.340,-0.145,-0.02
16:03:48.344,-0.035,-0.1
16:03:48.348,-0.015,-0.18
16:03:48.352,0.0,-0.155
16:03:48.356,0.075,-0.155
16:03:48.360,0.13,-0.23
16:03:48.364,0.145,-0.22
16:03:48.368,0.125,-0.2
16:03:48.372,0.095,-0.255
16:03:48.376,0.05,-0.21
16:03:48.380,0.04,-0.19
16:03:48.384,0.04,-0.215
16:03:48.388,-0.025,-0.225
16:03:48.392,-0.04,-0.19
16:03:48.396,-0.07,-0.205
16:03:48.400,-0.07,-0.32
16:03:48.404,-0.075,-0.32
16:03:48.408,-0.1,-0.235
16:03:48.412,-0.135,-0.155
16:03:48.416,-0.125,-0.115
16:03:48.420,-0.055,-0.125
16:03:48.424,-0.04,-0.095
16:03:48.428,-0.075,-0.085
16:03:48.432,-0.12,-0.045
16:03:48.436,-0.11,-0.035
16:03:48.440,-0.095,-0.035
16:03:48.444,-0.085,0.04
16:03:48.448,-0.1,0.125
16:03:48.452,-0.07,0.24
16:03:48.456,-0.06,0.33
16:03:48.460,-0.045,0.375
16:03:48.464,-0.035,0.245
16:03:48.468,-0.01,0.17
16:03:48.472,0.0,0.16
16:03:48.476,-0.005,0.22
16:03:48.480,-0.005,0.215
16:03:48.484,0.025,0.185
16:03:48.488,0.01,0.235
16:03:48.492,-0.145,0.28
16:03:48.496,-0.28,0.255
16:03:48.500,-0.265,0.2
16:03:48.504,-0.235,0.17
16:03:48.508,-0.225,0.225
16:03:48.512,-0.2,0.295
16:03:48.516,-0.19,0.345
16:03:48.520,-0.18,0.345
16:03:48.524,-0.13,0.315
16:03:48.528,-0.085,0.26
16:03:48.532,-0.045,0.285
16:03:48.536,0.07,0.33
16:03:48.540,0.24,0.37
16:03:48.544,0.22,0.43
16:03:48.548,-0.005,0.415
16:03:48.552,-0.17,0.365
16:03:48.556,-0.205,0.375
16:03:48.560,-0.185,0.41
16:03:48.564,-0.165,0.3
16:03:48.568,-0.18,0.225
16:03:48.572,-0.235,0.235
16:03:48.576,-0.245,0.275
16:03:48.580,-0.295,0.305
16:03:48.584,-0.29,0.315
16:03:48.588,-0.31,0.31
16:03:48.592,-0.33,0.285
16:03:48.596,-0.34,0.28
16:03:48.600,-0.36,0.28
16:03:48.604,-0.375,0.3
16:03:48.608,-0.39,0.35
16:03:48.612,-0.405,0.32
16:03:48.616,-0.35,0.325
16:03:48.620,-0.305,0.34
16:03:48.624,-0.33,0.315
16:03:48.628,-0.395,0.3
16:03:48.632,-0.455,0.315
16:03:48.636,-0.465,0.355
16:03:48.640,-0.425,0.345
16:03:48.644,-0.43,0.315
16:03:48.648,-0.44,0.39
16:03:48.652,-0.47,0.445
16:03:48.656,-0.47,0.615
16:03:48.660,-0.44,0.685
16:03:48.664,-0.435,0.46
16:03:48.668,-0.48,0.23
16:03:48.672,-0.5,0.215
16:03:48.676,-0.505,0.26
16:03:48.680,-0.55,0.315
16:03:48.684,-0.58,0.36
16:03:48.688,-0.58,0.365
16:03:48.692,-0.585,0.31
16:03:48.696,-0.54,0.305
16:03:48.700,-0.515,0.33
16:03:48.704,-0.525,0.36
16:03:48.708,-0.51,0.42
16:03:48.712,-0.47,0.395
16:03:48.716,-0.385,0.46
16:03:48.720,-0.285,0.485
16:03:48.724,-0.09,0.495
16:03:48.728,0.095,0.55
16:03:48.732,0.275,0.7
16:03:48.736,0.41,0.805
16:03:48.740,0.46,0.78
16:03:48.744,0.25,0.66
16:03:48.748,-0.115,0.56
16:03:48.752,-0.325,0.52
16:03:48.756,-0.425,0.605
16:03:48.760,-0.47,0.7
16:03:48.764,-0.5,0.78
16:03:48.768,-0.565,0.935
16:03:48.772,-0.635,1.12
16:03:48.776,-0.725,1.315
16:03:48.780,-0.75,1.43
16:03:48.784,-0.745,1.3
16:03:48.788,-0.665,1.14
16:03:48.792,-0.5,1.015
16:03:48.796,-0.315,0.98
16:03:48.800,-0.25,0.945
16:03:48.804,-0.22,0.755
16:03:48.808,-0.195,0.52
16:03:48.812,-0.195,0.44
16:03:48.816,-0.21,0.47
16:03:48.820,-0.235,0.47
16:03:48.824,-0.235,0.42
16:03:48.828,-0.195,0.42
16:03:48.832,-0.16,0.345
16:03:48.836,-0.175,0.41
16:03:48.840,-0.18,0.5
16:03:48.844,-0.175,0.46
16:03:48.848,-0.145,0.28
16:03:48.852,-0.11,0.2
16:03:48.856,-0.07,0.235
16:03:48.860,-0.06,0.265
16:03:48.864,-0.03,0.28
16:03:48.868,0.045,0.215
16:03:48.872,0.135,0.18
16:03:48.876,0.185,0.19
16:03:48.880,0.135,0.18
16:03:48.884,0.11,0.14
16:03:48.888,0.03,0.135
16:03:48.892,-0.095,0.125
16:03:48.896,-0.095,0.12
16:03:48.900,0.05,0.125
16:03:48.904,0.205,0.135
16:03:48.908,0.305,0.135
16:03:48.912,0.225,0.18
16:03:48.916,0.205,0.245
16:03:48.920,0.21,0.31
16:03:48.924,0.215,0.35
16:03:48.928,0.17,0.245
16:03:48.932,0.18,0.125
16:03:48.936,0.235,0.1
16:03:48.940,0.285,0.18
16:03:48.944,0.29,0.215
16:03:48.948,0.32,0.245
16:03:48.952,0.33,0.255
16:03:48.956,0.34,0.275
16:03:48.960,0.35,0.265
16:03:48.964,0.35,0.27
16:03:48.968,0.345,0.23
16:03:48.972,0.365,0.2
16:03:48.976,0.455,0.195
16:03:48.980,0.545,0.265
16:03:48.984,0.435,0.275
16:03:48.988,0.31,0.29
16:03:48.992,0.355,0.29
16:03:48.996,0.36,0.33
16:03:49.000,0.22,0.375
16:03:49.004,0.04,0.345
16:03:49.008,-0.04,0.39
16:03:49.012,-0.06,0.39
16:03:49.016,-0.09,0.43
16:03:49.020,-0.035,0.49
16:03:49.024,0.175,0.53
16:03:49.028,0.445,0.55
16:03:49.032,0.605,0.585
16:03:49.036,0.65,0.57
16:03:49.040,0.485,0.545
16:03:49.044,0.165,0.525
16:03:49.048,-0.045,0.51
16:03:49.052,-0.205,0.585
16:03:49.056,-0.285,0.815
16:03:49.060,-0.31,1.04
16:03:49.064,-0.315,1.085
16:03:49.068,-0.355,1.13
16:03:49.072,-0.385,1.225
16:03:49.076,-0.4,1.35
16:03:49.080,-0.425,1.48
16:03:49.084,-0.46,1.575
16:03:49.088,-0.44,1.685
16:03:49.092,-0.355,1.745
16:03:49.096,-0.32,1.855
16:03:49.100,-0.18,1.88
16:03:49.104,0.005,1.86
16:03:49.108,0.055,1.635
16:03:49.112,0.0,1.27
16:03:49.116,-0.045,0.855
16:03:49.120,-0.02,0.605
16:03:49.124,0.055,0.565
16:03:49.128,0.14,0.57
16:03:49.132,0.18,0.47
16:03:49.136,0.205,0.39
16:03:49.140,0.22,0.38
16:03:49.144,0.235,0.365
16:03:49.148,0.26,0.37
16:03:49.152,0.265,0.35
16:03:49.156,0.3,0.28
16:03:49.160,0.34,0.235
16:03:49.164,0.43,0.225
16:03:49.168,0.465,0.185
16:03:49.172,0.355,0.2
16:03:49.176,0.21,0.105
16:03:49.180,0.215,-0.015
16:03:49.184,0.255,0.02
16:03:49.188,0.265,0.06
16:03:49.192,0.265,0.01
16:03:49.196,0.3,0.01
16:03:49.200,0.3,-0.01
16:03:49.204,0.34,-0.04
16:03:49.208,0.36,-0.075
16:03:49.212,0.335,-0.07
16:03:49.216,0.305,-0.045
16:03:49.220,0.315,-0.06
16:03:49.224,0.31,-0.06
16:03:49.228,0.26,-0.045
16:03:49.232,0.205,-0.06
16:03:49.236,0.195,-0.025
16:03:49.240,0.245,-0.045
16:03:49.244,0.22,-0.015
16:03:49.248,0.15,0.025
16:03:49.252,0.08,0.095
16:03:49.256,0.065,0.12
16:03:49.260,0.02,0.155
16:03:49.264,0.01,0.175
16:03:49.268,0.03,0.235
16:03:49.272,0.015,0.265
16:03:49.276,0.0,0.295
16:03:49.280,0.02,0.44
16:03:49.284,0.055,0.445
16:03:49.288,0.075,0.385
16:03:49.292,0.095,0.435
16:03:49.296,0.115,0.485
16:03:49.300,0.145,0.44
16:03:49.304,0.185,0.45
16:03:49.308,0.22,0.475
16:03:49.312,0.345,0.545
16:03:49.316,0.575,0.55
16:03:49.320,0.58,0.535
16:03:49.324,0.355,0.545
16:03:49.328,0.08,0.585
16:03:49.332,0.015,0.58
16:03:49.336,0.075,0.58
16:03:49.340,0.13,0.62
16:03:49.344,0.145,0.625
16:03:49.348,0.17,0.64
16:03:49.352,0.17,0.62
16:03:49.356,0.08,0.565
16:03:49.360,0.025,0.575
16:03:49.364,0.08,0.575
16:03:49.368,0.13,0.56
16:03:49.372,0.105,0.59
16:03:49.376,0.115,0.68
16:03:49.380,0.235,0.665
16:03:49.384,0.335,0.56
16:03:49.388,0.25,0.57
16:03:49.392,0.025,0.575
16:03:49.396,-0.07,0.48
16:03:49.400,-0.03,0.49
16:03:49.404,0.015,0.52
16:03:49.408,0.075,0.55
16:03:49.412,0.175,0.585
16:03:49.416,0.185,0.575
16:03:49.420,0.105,0.535
16:03:49.424,0.03,0.535
16:03:49.428,-0.075,0.56
16:03:49.432,-0.115,0.57
16:03:49.436,-0.115,0.565
16:03:49.440,-0.055,0.59
16:03:49.444,-0.01,0.66
16:03:49.448,-0.03,0.705
16:03:49.452,-0.005,0.675
16:03:49.456,-0.05,0.55
16:03:49.460,-0.105,0.49
16:03:49.464,-0.135,0.515
16:03:49.468,-0.155,0.55
16:03:49.472,-0.15,0.525
16:03:49.476,-0.105,0.52
16:03:49.480,0.005,0.525
16:03:49.484,0.285,0.58
16:03:49.488,0.585,0.59
16:03:49.492,0.46,0.555
16:03:49.496,0.305,0.525
16:03:49.500,0.46,0.485
16:03:49.504,0.465,0.54
16:03:49.508,0.09,0.615
16:03:49.512,-0.165,0.58
16:03:49.516,-0.145,0.595
16:03:49.520,-0.16,0.645
16:03:49.524,-0.22,0.66
16:03:49.528,-0.205,0.695
16:03:49.532,-0.035,0.72
16:03:49.536,0.185,0.755
16:03:49.540,0.445,0.715
16:03:49.544,0.705,0.715
16:03:49.548,0.87,0.76
16:03:49.552,0.815,0.77
16:03:49.556,0.615,0.8
16:03:49.560,0.335,0.715
16:03:49.564,0.215,0.645
16:03:49.568,0.23,0.76
16:03:49.572,0.08,0.94
16:03:49.576,-0.12,1.06
16:03:49.580,-0.25,1.13
16:03:49.584,-0.405,1.3
16:03:49.588,-0.505,1.55
16:03:49.592,-0.49,1.69
16:03:49.596,-0.35,1.675
16:03:49.600,-0.005,1.48
16:03:49.604,0.275,1.28
16:03:49.608,0.315,1.135
16:03:49.612,0.22,1.02
16:03:49.616,0.155,0.86
16:03:49.620,-0.055,0.685
16:03:49.624,-0.32,0.515
16:03:49.628,-0.35,0.475
16:03:49.632,-0.155,0.55
16:03:49.636,-0.025,0.555
16:03:49.640,0.09,0.575
16:03:49.644,0.25,0.535
16:03:49.648,0.44,0.51
16:03:49.652,0.45,0.515
16:03:49.656,0.225,0.465
16:03:49.660,-0.16,0.335
16:03:49.664,-0.425,0.295
16:03:49.668,-0.41,0.325
16:03:49.672,-0.345,0.405
16:03:49.676,-0.27,0.46
16:03:49.680,-0.175,0.515
16:03:49.684,-0.055,0.48
16:03:49.688,0.035,0.445
16:03:49.692,0.125,0.4
16:03:49.696,0.18,0.365
16:03:49.700,0.23,0.395
16:03:49.704,0.24,0.415
16:03:49.708,0.28,0.46
16:03:49.712,0.31,0.44
16:03:49.716,0.335,0.42
16:03:49.720,0.375,0.44
16:03:49.724,0.41,0.435
16:03:49.728,0.42,0.47
16:03:49.732,0.44,0.445
16:03:49.736,0.45,0.37
16:03:49.740,0.475,0.4
16:03:49.744,0.44,0.42
16:03:49.748,0.45,0.315
16:03:49.752,0.535,0.275
16:03:49.756,0.71,0.305
16:03:49.760,0.75,0.295
16:03:49.764,0.54,0.3
16:03:49.768,0.29,0.32
16:03:49.772,0.14,0.315
16:03:49.776,0.155,0.325
16:03:49.780,0.215,0.38
16:03:49.784,0.15,0.445
16:03:49.788,0.05,0.495
16:03:49.792,0.08,0.5
16:03:49.796,0.135,0.515
16:03:49.800,0.125,0.555
16:03:49.804,0.12,0.635
16:03:49.808,0.175,0.63
16:03:49.812,0.21,0.565
16:03:49.816,0.175,0.56
16:03:49.820,0.115,0.6
16:03:49.824,0.085,0.645
16:03:49.828,0.085,0.65
16:03:49.832,0.08,0.655
16:03:49.836,0.095,0.66
16:03:49.840,0.09,0.665
16:03:49.844,0.09,0.68
16:03:49.848,0.1,0.705
16:03:49.852,0.04,0.69
16:03:49.856,-0.03,0.645
16:03:49.860,-0.05,0.65
16:03:49.864,-0.005,0.59
16:03:49.868,0.015,0.61
16:03:49.872,0.055,0.615
16:03:49.876,0.03,0.655
16:03:49.880,0.075,0.7
16:03:49.884,0.12,0.755
16:03:49.888,0.155,0.735
16:03:49.892,0.16,0.66
16:03:49.896,0.16,0.64
16:03:49.900,0.2,0.7
16:03:49.904,0.21,0.67
16:03:49.908,0.115,0.695
16:03:49.912,0.13,0.725
16:03:49.916,0.15,0.695
16:03:49.920,0.205,0.715
16:03:49.924,0.21,0.71
16:03:49.928,0.22,0.695
16:03:49.932,0.215,0.675
16:03:49.936,0.18,0.69
16:03:49.940,0.155,0.72
16:03:49.944,0.13,0.74
16:03:49.948,0.21,0.71
16:03:49.952,0.415,0.755
16:03:49.956,0.595,0.835
16:03:49.960,0.735,0.885
16:03:49.964,0.74,0.875
16:03:49.968,0.515,0.83
16:03:49.972,0.175,0.8
16:03:49.976,-0.08,0.82
16:03:49.980,-0.2,0.945
16:03:49.984,-0.18,1.105
16:03:49.988,-0.18,1.305
16:03:49.992,-0.215,1.465
16:03:49.996,-0.26,1.545
16:03:50.000,-0.32,1.63
16:03:50.004,-0.38,1.705
16:03:50.008,-0.42,1.76
16:03:50.012,-0.425,1.81
16:03:50.016,-0.415,1.86
16:03:50.020,-0.38,1.89
16:03:50.024,-0.365,1.935
16:03:50.028,-0.32,1.975
16:03:50.032,-0.195,1.975
16:03:50.036,-0.09,1.93
16:03:50.040,-0.065,1.79
16:03:50.044,-0.065,1.49
16:03:50.048,-0.05,1.08
16:03:50.052,-0.05,0.805
16:03:50.056,-0.055,0.61
16:03:50.060,-0.055,0.555
16:03:50.064,-0.05,0.475
16:03:50.068,-0.055,0.48
16:03:50.072,-0.005,0.47
16:03:50.076,0.045,0.505
16:03:50.080,0.05,0.43
16:03:50.084,0.035,0.39
16:03:50.088,0.055,0.385
16:03:50.092,0.095,0.4
16:03:50.096,0.165,0.425
16:03:50.100,0.195,0.415
16:03:50.104,0.25,0.37
16:03:50.108,0.245,0.425
16:03:50.112,0.28,0.445
16:03:50.116,0.295,0.385
16:03:50.120,0.34,0.295
16:03:50.124,0.365,0.25
16:03:50.128,0.385,0.24
16:03:50.132,0.35,0.195
16:03:50.136,0.32,0.165
16:03:50.140,0.315,0.09
16:03:50.144,0.34,0.06
16:03:50.148,0.315,0.035
16:03:50.152,0.3,0.045
16:03:50.156,0.3,0.02
16:03:50.160,0.26,0.02
16:03:50.164,0.23,0.02
16:03:50.168,0.245,0.05
16:03:50.172,0.24,0.055
16:03:50.176,0.215,0.06
16:03:50.180,0.18,0.115
16:03:50.184,0.15,0.15
16:03:50.188,0.17,0.17
16:03:50.192,0.125,0.21
16:03:50.196,0.1,0.235
16:03:50.200,0.075,0.245
16:03:50.204,0.04,0.275
16:03:50.208,0.045,0.335
16:03:50.212,0.05,0.37
16:03:50.216,0.01,0.445
16:03:50.220,-0.025,0.46
16:03:50.224,-0.03,0.495
16:03:50.228,-0.04,0.52
16:03:50.232,-0.07,0.585
16:03:50.236,-0.045,0.615
16:03:50.240,-0.095,0.565
16:03:50.244,-0.1,0.575
16:03:50.248,-0.14,0.635
16:03:50.252,-0.17,0.685
16:03:50.256,-0.185,0.69
16:03:50.260,-0.225,0.695
16:03:50.264,-0.24,0.755
16:03:50.268,-0.255,0.755
16:03:50.272,-0.275,0.655
16:03:50.276,-0.26,0.605
16:03:50.280,-0.27,0.65
16:03:50.284,-0.255,0.65
16:03:50.288,-0.24,0.68
16:03:50.292,-0.22,0.71
16:03:50.296,-0.205,0.72
16:03:50.300,-0.185,0.74
16:03:50.304,-0.155,0.7
16:03:50.308,-0.155,0.735
16:03:50.312,-0.14,0.76
16:03:50.316,-0.115,0.77
16:03:50.320,-0.075,0.82
16:03:50.324,-0.09,0.85
16:03:50.328,-0.075,0.85
16:03:50.332,0.04,0.83
16:03:50.336,0.265,0.805
16:03:50.340,0.46,0.835
16:03:50.344,0.61,0.875
16:03:50.348,0.61,0.915
16:03:50.352,0.31,0.94
16:03:50.356,-0.115,0.89
16:03:50.360,-0.42,0.91
16:03:50.364,-0.585,0.965
16:03:50.368,-0.61,1.135
16:03:50.372,-0.585,1.285
16:03:50.376,-0.585,1.33
16:03:50.380,-0.64,1.385
16:03:50.384,-0.76,1.54
16:03:50.388,-0.865,1.73
16:03:50.392,-0.905,1.79
16:03:50.396,-0.895,1.675
16:03:50.400,-0.82,1.485
16:03:50.404,-0.715,1.275
16:03:50.408,-0.595,1.185
16:03:50.412,-0.545,1.14
16:03:50.416,-0.51,1.04
16:03:50.420,-0.495,0.89
16:03:50.424,-0.53,0.695
16:03:50.428,-0.51,0.615
16:03:50.432,-0.535,0.66
16:03:50.436,-0.56,0.755
16:03:50.440,-0.56,0.74
16:03:50.444,-0.56,0.61
16:03:50.448,-0.565,0.47
16:03:50.452,-0.6,0.4
16:03:50.456,-0.615,0.425
16:03:50.460,-0.57,0.465
16:03:50.464,-0.55,0.455
16:03:50.468,-0.56,0.465
16:03:50.472,-0.53,0.41
16:03:50.476,-0.51,0.43
16:03:50.480,-0.475,0.45
16:03:50.484,-0.47,0.45
16:03:50.488,-0.41,0.41
16:03:50.492,-0.335,0.375
16:03:50.496,-0.31,0.42
16:03:50.500,-0.305,0.46
16:03:50.504,-0.35,0.42
16:03:50.508,-0.345,0.42
16:03:50.512,-0.285,0.45
16:03:50.516,-0.195,0.48
16:03:50.520,-0.15,0.495
16:03:50.524,-0.145,0.445
16:03:50.528,-0.15,0.37
16:03:50.532,-0.14,0.315
16:03:50.536,-0.12,0.3
16:03:50.540,-0.12,0.265
16:03:50.544,-0.195,0.3
16:03:50.548,-0.27,0.35
16:03:50.552,-0.27,0.365
16:03:50.556,-0.26,0.31
16:03:50.560,-0.285,0.32
16:03:50.564,-0.33,0.34
16:03:50.568,-0.375,0.355
16:03:50.572,-0.39,0.39
16:03:50.576,-0.42,0.43
16:03:50.580,-0.455,0.455
16:03:50.584,-0.465,0.46
16:03:50.588,-0.5,0.505
16:03:50.592,-0.515,0.525
16:03:50.596,-0.485,0.57
16:03:50.600,-0.495,0.57
16:03:50.604,-0.525,0.585
16:03:50.608,-0.565,0.59
16:03:50.612,-0.55,0.585
16:03:50.616,-0.54,0.635
16:03:50.620,-0.54,0.71
16:03:50.624,-0.575,0.665
16:03:50.628,-0.58,0.665
16:03:50.632,-0.585,0.725
16:03:50.636,-0.575,0.71
16:03:50.640,-0.57,0.57
16:03:50.644,-0.62,0.49
16:03:50.648,-0.64,0.525
16:03:50.652,-0.68,0.535
16:03:50.656,-0.66,0.52
16:03:50.660,-0.69,0.55
16:03:50.664,-0.7,0.6
16:03:50.668,-0.705,0.58
16:03:50.672,-0.645,0.53
16:03:50.676,-0.64,0.56
16:03:50.680,-0.65,0.575
16:03:50.684,-0.665,0.59
16:03:50.688,-0.64,0.645
16:03:50.692,-0.6,0.61
16:03:50.696,-0.57,0.65
16:03:50.700,-0.565,0.67
16:03:50.704,-0.535,0.69
16:03:50.708,-0.51,0.715
16:03:50.712,-0.495,0.77
16:03:50.716,-0.5,0.775
16:03:50.720,-0.495,0.725
16:03:50.724,-0.385,0.72
16:03:50.728,-0.22,0.755
16:03:50.732,0.015,0.735
16:03:50.736,0.225,0.75
16:03:50.740,0.315,0.775
16:03:50.744,0.175,0.81
16:03:50.748,-0.205,0.79
16:03:50.752,-0.605,0.735
16:03:50.756,-0.845,0.75
16:03:50.760,-0.91,0.97
16:03:50.764,-0.94,1.155
16:03:50.768,-0.955,1.16
16:03:50.772,-0.91,1.12
16:03:50.776,-0.94,1.225
16:03:50.780,-0.965,1.305
16:03:50.784,-1.0,1.405
16:03:50.788,-1.035,1.53
16:03:50.792,-1.045,1.625
16:03:50.796,-1.005,1.63
16:03:50.800,-0.995,1.665
16:03:50.804,-0.975,1.68
16:03:50.808,-0.93,1.735
16:03:50.812,-0.865,1.745
16:03:50.816,-0.81,1.745
16:03:50.820,-0.775,1.695
16:03:50.824,-0.74,1.475
16:03:50.828,-0.74,1.14
16:03:50.832,-0.71,0.78
16:03:50.836,-0.695,0.62
16:03:50.840,-0.695,0.555
16:03:50.844,-0.735,0.53
16:03:50.848,-0.785,0.495
16:03:50.852,-0.825,0.47
16:03:50.856,-0.84,0.445
16:03:50.860,-0.815,0.375
16:03:50.864,-0.79,0.335
16:03:50.868,-0.765,0.33
16:03:50.872,-0.785,0.31
16:03:50.876,-0.785,0.31
16:03:50.880,-0.77,0.295
16:03:50.884,-0.705,0.3
16:03:50.888,-0.66,0.35
16:03:50.892,-0.64,0.31
16:03:50.896,-0.62,0.23
16:03:50.900,-0.59,0.235
16:03:50.904,-0.54,0.25
16:03:50.908,-0.5,0.26
16:03:50.912,-0.455,0.25
16:03:50.916,-0.435,0.26
16:03:50.920,-0.405,0.24
16:03:50.924,-0.44,0.21
16:03:50.928,-0.405,0.18
16:03:50.932,-0.41,0.115
16:03:50.936,-0.39,0.08
16:03:50.940,-0.375,0.09
16:03:50.944,-0.4,0.14
16:03:50.948,-0.43,0.15
16:03:50.952,-0.43,0.15
16:03:50.956,-0.42,0.16
16:03:50.960,-0.435,0.12
16:03:50.964,-0.47,0.045
16:03:50.968,-0.51,0.0
16:03:50.972,-0.535,0.055
16:03:50.976,-0.5,0.075
16:03:50.980,-0.52,0.145
16:03:50.984,-0.525,0.18
16:03:50.988,-0.52,0.23
16:03:50.992,-0.515,0.28
16:03:50.996,-0.52,0.345
16:03:51.000,-0.5,0.365
16:03:51.004,-0.47,0.375
16:03:51.008,-0.485,0.405
16:03:51.012,-0.505,0.475
16:03:51.016,-0.485,0.49
16:03:51.020,-0.49,0.51
16:03:51.024,-0.51,0.535
16:03:51.028,-0.515,0.565
16:03:51.032,-0.485,0.595
16:03:51.036,-0.285,0.605
16:03:51.040,0.06,0.615
16:03:51.044,0.385,0.705
16:03:51.048,0.53,0.74
16:03:51.052,0.545,0.77
16:03:51.056,0.27,0.79
16:03:51.060,-0.26,0.8
16:03:51.064,-0.68,0.735
16:03:51.068,-0.865,0.8
16:03:51.072,-0.875,1.015
16:03:51.076,-0.85,1.18
16:03:51.080,-0.825,1.33
16:03:51.084,-0.87,1.42
16:03:51.088,-0.83,1.47
16:03:51.092,-0.79,1.57
16:03:51.096,-0.785,1.645
16:03:51.100,-0.745,1.75
16:03:51.104,-0.7,1.85
16:03:51.108,-0.655,1.97
16:03:51.112,-0.61,2.095
16:03:51.116,-0.565,2.135
16:03:51.120,-0.5,2.04
16:03:51.124,-0.44,1.795
16:03:51.128,-0.405,1.405
16:03:51.132,-0.365,0.965
16:03:51.136,-0.395,0.705
16:03:51.140,-0.37,0.6
16:03:51.144,-0.35,0.565
16:03:51.148,-0.3,0.49
16:03:51.152,-0.315,0.425
16:03:51.156,-0.32,0.405
16:03:51.160,-0.34,0.38
16:03:51.164,-0.315,0.38
16:03:51.168,-0.285,0.355
16:03:51.172,-0.26,0.345
16:03:51.176,-0.255,0.295
16:03:51.180,-0.24,0.22
16:03:51.184,-0.225,0.22
16:03:51.188,-0.21,0.225
16:03:51.192,-0.175,0.175
16:03:51.196,-0.185,0.155
16:03:51.200,-0.215,0.145
16:03:51.204,-0.165,0.155
16:03:51.208,-0.135,0.13
16:03:51.212,-0.145,0.115
16:03:51.216,-0.125,0.11
16:03:51.220,-0.14,0.065
16:03:51.224,-0.16,-0.03
16:03:51.228,-0.16,-0.015
16:03:51.232,-0.175,0.005
16:03:51.236,-0.2,0.025
16:03:51.240,-0.225,0.03
16:03:51.244,-0.28,0.05
16:03:51.248,-0.31,0.065
16:03:51.252,-0.32,0.07
16:03:51.256,-0.345,0.07
16:03:51.260,-0.355,0.09
16:03:51.264,-0.385,0.115
16:03:51.268,-0.385,0.15
16:03:51.272,-0.36,0.185
16:03:51.276,-0.315,0.23
16:03:51.280,-0.31,0.26
16:03:51.284,-0.335,0.31
16:03:51.288,-0.31,0.39
16:03:51.292,-0.225,0.5
16:03:51.296,-0.155,0.65
16:03:51.300,-0.095,0.745
16:03:51.304,-0.085,0.745
16:03:51.308,-0.105,0.8
16:03:51.312,-0.095,0.89
16:03:51.316,-0.095,0.705
16:03:51.320,-0.055,0.45
16:03:51.324,0.015,0.385
16:03:51.328,0.105,0.42
16:03:51.332,0.285,0.48
16:03:51.336,0.57,0.525
16:03:51.340,0.82,0.59
16:03:51.344,1.02,0.635
16:03:51.348,1.065,0.6
16:03:51.352,0.755,0.55
16:03:51.356,0.27,0.53
16:03:51.360,-0.11,0.54
16:03:51.364,-0.315,0.62
16:03:51.368,-0.425,0.875
16:03:51.372,-0.49,1.125
16:03:51.376,-0.57,1.365
16:03:51.380,-0.705,1.59
16:03:51.384,-0.78,1.665
16:03:51.388,-0.775,1.65
16:03:51.392,-0.71,1.5
16:03:51.396,-0.595,1.2
16:03:51.400,-0.485,0.995
16:03:51.404,-0.425,0.89
16:03:51.408,-0.34,0.7
16:03:51.412,-0.315,0.59
16:03:51.416,-0.3,0.57
16:03:51.420,-0.28,0.52
16:03:51.424,-0.27,0.47
16:03:51.428,-0.285,0.455
16:03:51.432,-0.345,0.465
16:03:51.436,-0.39,0.5
16:03:51.440,-0.37,0.445
16:03:51.444,-0.35,0.405
16:03:51.448,-0.345,0.335
16:03:51.452,-0.395,0.355
16:03:51.456,-0.43,0.405
16:03:51.460,-0.43,0.42
16:03:51.464,-0.415,0.4
16:03:51.468,-0.4,0.41
16:03:51.472,-0.37,0.4
16:03:51.476,-0.35,0.335
16:03:51.480,-0.31,0.335
16:03:51.484,-0.285,0.375
16:03:51.488,-0.235,0.38
16:03:51.492,-0.215,0.355
16:03:51.496,-0.135,0.385
16:03:51.500,-0.075,0.365
16:03:51.504,-0.005,0.335
16:03:51.508,0.05,0.325
16:03:51.512,0.115,0.38
16:03:51.516,0.13,0.37
16:03:51.520,0.135,0.38
16:03:51.524,0.135,0.405
16:03:51.528,0.145,0.415
16:03:51.532,0.15,0.37
16:03:51.536,0.11,0.315
16:03:51.540,0.11,0.31
16:03:51.544,0.1,0.355
16:03:51.548,0.11,0.41
16:03:51.552,0.05,0.435
16:03:51.556,0.03,0.435
16:03:51.560,0.025,0.38
16:03:51.564,0.0,0.345
16:03:51.568,-0.02,0.355
16:03:51.572,-0.01,0.365
16:03:51.576,-0.025,0.375
16:03:51.580,-0.04,0.4
16:03:51.584,-0.04,0.415
16:03:51.588,-0.03,0.465
16:03:51.592,-0.04,0.49
16:03:51.596,-0.045,0.51
16:03:51.600,-0.065,0.55
16:03:51.604,-0.105,0.58
16:03:51.608,-0.12,0.555
16:03:51.612,-0.135,0.5
16:03:51.616,-0.125,0.46
16:03:51.620,-0.145,0.465
16:03:51.624,-0.185,0.565
16:03:51.628,-0.185,0.685
16:03:51.632,-0.17,0.87
16:03:51.636,-0.115,0.955
16:03:51.640,-0.11,0.645
16:03:51.644,-0.135,0.28
16:03:51.648,-0.19,0.18
16:03:51.652,-0.215,0.255
16:03:51.656,-0.21,0.345
16:03:51.660,-0.21,0.375
16:03:51.664,-0.235,0.39
16:03:51.668,-0.24,0.405
16:03:51.672,-0.255,0.43
16:03:51.676,-0.21,0.435
16:03:51.680,-0.2,0.435
16:03:51.684,-0.2,0.46
16:03:51.688,-0.19,0.48
16:03:51.692,-0.175,0.56
16:03:51.696,-0.155,0.565
16:03:51.700,-0.095,0.575
16:03:51.704,-0.015,0.6
16:03:51.708,-0.005,0.615
16:03:51.712,0.04,0.625
16:03:51.716,0.015,0.61
16:03:51.720,-0.025,0.58
16:03:51.724,-0.005,0.56
16:03:51.728,0.19,0.6
16:03:51.732,0.4,0.625
16:03:51.736,0.67,0.645
16:03:51.740,0.845,0.65
16:03:51.744,0.825,0.655
16:03:51.748,0.54,0.635
16:03:51.752,0.165,0.56
16:03:51.756,-0.12,0.56
16:03:51.760,-0.24,0.685
16:03:51.764,-0.315,0.89
16:03:51.768,-0.3,1.06
16:03:51.772,-0.285,1.155
16:03:51.776,-0.295,1.185
16:03:51.780,-0.31,1.28
16:03:51.784,-0.375,1.445
16:03:51.788,-0.44,1.615
16:03:51.792,-0.52,1.71
16:03:51.796,-0.565,1.625
16:03:51.800,-0.46,1.495
16:03:51.804,-0.245,1.445
16:03:51.808,-0.12,1.35
16:03:51.812,-0.07,0.91
16:03:51.816,-0.08,0.545
16:03:51.820,-0.07,0.41
16:03:51.824,-0.095,0.44
16:03:51.828,-0.08,0.435
16:03:51.832,-0.07,0.4
16:03:51.836,-0.08,0.335
16:03:51.840,-0.105,0.315
16:03:51.844,-0.115,0.35
16:03:51.848,-0.09,0.305
16:03:51.852,-0.105,0.285
16:03:51.856,-0.1,0.29
16:03:51.860,-0.12,0.29
16:03:51.864,-0.13,0.295
16:03:51.868,-0.1,0.295
16:03:51.872,-0.075,0.3
16:03:51.876,-0.025,0.22
16:03:51.880,0.035,0.16
16:03:51.884,0.06,0.175
16:03:51.888,0.095,0.23
16:03:51.892,0.13,0.255
16:03:51.896,0.16,0.27
16:03:51.900,0.18,0.215
16:03:51.904,0.24,0.22
16:03:51.908,0.275,0.245
16:03:51.912,0.32,0.23
16:03:51.916,0.36,0.18
16:03:51.920,0.4,0.15
16:03:51.924,0.41,0.12
16:03:51.928,0.425,0.125
16:03:51.932,0.425,0.125
16:03:51.936,0.425,0.09
16:03:51.940,0.395,0.065
16:03:51.944,0.33,0.095
16:03:51.948,0.325,0.115
16:03:51.952,0.31,0.145
16:03:51.956,0.295,0.105
16:03:51.960,0.265,0.085
16:03:51.964,0.23,0.085
16:03:51.968,0.235,0.13
16:03:51.972,0.17,0.235
16:03:51.976,0.135,0.3
16:03:51.980,0.145,0.305
16:03:51.984,0.135,0.25
16:03:51.988,0.11,0.25
16:03:51.992,0.11,0.285
16:03:51.996,0.09,0.305
16:03:52.000,0.09,0.345
16:03:52.004,0.09,0.385
16:03:52.008,0.09,0.45
16:03:52.012,0.09,0.49
16:03:52.016,0.04,0.42
16:03:52.020,0.015,0.355
16:03:52.024,0.02,0.355
16:03:52.028,0.04,0.365
16:03:52.032,0.035,0.4
16:03:52.036,0.005,0.44
16:03:52.040,-0.025,0.455
16:03:52.044,-0.02,0.395
16:03:52.048,0.08,0.39
16:03:52.052,0.285,0.43
16:03:52.056,0.615,0.465
16:03:52.060,0.93,0.5
16:03:52.064,1.17,0.56
16:03:52.068,1.125,0.565
16:03:52.072,0.795,0.56
16:03:52.076,0.39,0.535
16:03:52.080,0.1,0.53
16:03:52.084,-0.025,0.645
16:03:52.088,-0.14,0.94
16:03:52.092,-0.23,1.185
16:03:52.096,-0.34,1.43
16:03:52.100,-0.415,1.6
16:03:52.104,-0.38,1.655
16:03:52.108,-0.28,1.44
16:03:52.112,-0.135,1.21
16:03:52.116,-0.06,1.095
16:03:52.120,-0.065,1.095
16:03:52.124,-0.03,0.95
16:03:52.128,0.0,0.75
16:03:52.132,0.045,0.63
16:03:52.136,0.06,0.515
16:03:52.140,0.075,0.435
16:03:52.144,0.08,0.44
16:03:52.148,0.055,0.385
16:03:52.152,0.04,0.375
16:03:52.156,0.03,0.34
16:03:52.160,0.02,0.345
16:03:52.164,0.03,0.29
16:03:52.168,0.055,0.29
16:03:52.172,0.065,0.305
16:03:52.176,0.05,0.3
16:03:52.180,0.045,0.26
16:03:52.184,0.055,0.275
16:03:52.188,0.085,0.265
16:03:52.192,0.075,0.27
16:03:52.196,0.03,0.26
16:03:52.200,0.015,0.285
16:03:52.204,0.055,0.39
16:03:52.208,0.05,0.485
16:03:52.212,0.04,0.355
16:03:52.216,0.035,0.15
16:03:52.220,0.02,0.07
16:03:52.224,0.04,0.055
16:03:52.228,0.05,0.08
16:03:52.232,0.035,0.09
16:03:52.236,0.01,0.14
16:03:52.240,0.005,0.22
16:03:52.244,-0.035,0.275
16:03:52.248,0.005,0.2
16:03:52.252,0.02,0.1
16:03:52.256,0.0,0.095
16:03:52.260,0.005,0.12
16:03:52.264,0.035,0.19
16:03:52.268,0.09,0.2
16:03:52.272,0.12,0.22
16:03:52.276,0.135,0.275
16:03:52.280,0.135,0.37
16:03:52.284,0.13,0.395
16:03:52.288,0.165,0.425
16:03:52.292,0.2,0.455
16:03:52.296,0.24,0.515
16:03:52.300,0.26,0.56
16:03:52.304,0.265,0.555
16:03:52.308,0.255,0.505
16:03:52.312,0.24,0.5
16:03:52.316,0.235,0.575
16:03:52.320,0.205,0.55
16:03:52.324,0.185,0.43
16:03:52.328,0.215,0.33
16:03:52.332,0.25,0.32
16:03:52.336,0.3,0.45
16:03:52.340,0.4,0.53
16:03:52.344,0.625,0.55
16:03:52.348,0.9,0.46
16:03:52.352,1.135,0.385
16:03:52.356,1.24,0.35
16:03:52.360,1.09,0.36
16:03:52.364,0.66,0.39
16:03:52.368,0.2,0.41
16:03:52.372,-0.13,0.45
16:03:52.376,-0.275,0.66
16:03:52.380,-0.315,0.94
16:03:52.384,-0.28,1.13
16:03:52.388,-0.26,1.175
16:03:52.392,-0.28,1.23
16:03:52.396,-0.35,1.27
16:03:52.400,-0.41,1.36
16:03:52.404,-0.42,1.385
16:03:52.408,-0.47,1.52
16:03:52.412,-0.49,1.64
16:03:52.416,-0.475,1.61
16:03:52.420,-0.455,1.585
16:03:52.424,-0.41,1.7
16:03:52.428,-0.33,1.84
16:03:52.432,-0.23,1.865
16:03:52.436,-0.185,1.54
16:03:52.440,-0.15,0.985
16:03:52.444,-0.18,0.585
16:03:52.448,-0.2,0.37
16:03:52.452,-0.19,0.215
16:03:52.456,-0.21,0.115
16:03:52.460,-0.17,0.105
16:03:52.464,-0.085,0.11
16:03:52.468,-0.065,0.115
16:03:52.472,-0.06,0.155
16:03:52.476,-0.04,0.145
16:03:52.480,0.0,0.09
16:03:52.484,0.04,0.065
16:03:52.488,0.12,0.125
16:03:52.492,0.205,0.11
16:03:52.496,0.26,0.105
16:03:52.500,0.27,0.075
16:03:52.504,0.245,0.085
16:03:52.508,0.275,0.13
16:03:52.512,0.34,0.16
16:03:52.516,0.335,0.05
16:03:52.520,0.335,-0.115
16:03:52.524,0.345,-0.075
16:03:52.528,0.385,0.04
16:03:52.532,0.375,-0.01
16:03:52.536,0.34,-0.29
16:03:52.540,0.37,-0.465
16:03:52.544,0.36,-0.47
16:03:52.548,0.33,-0.47
16:03:52.552,0.28,-0.42
16:03:52.556,0.23,-0.34
16:03:52.560,0.195,-0.31
16:03:52.564,0.2,-0.26
16:03:52.568,0.18,-0.205
16:03:52.572,0.145,-0.24
16:03:52.576,0.145,-0.24
16:03:52.580,0.15,-0.155
16:03:52.584,0.13,-0.135
16:03:52.588,0.105,-0.1
16:03:52.592,0.095,-0.04
16:03:52.596,0.1,-0.01
16:03:52.600,0.08,-0.02
16:03:52.604,0.09,0.015
16:03:52.608,0.075,0.07
16:03:52.612,0.04,0.12
16:03:52.616,0.04,0.175
16:03:52.620,0.035,0.27
16:03:52.624,0.0,0.335
16:03:52.628,-0.03,0.315
16:03:52.632,-0.06,0.23
16:03:52.636,-0.04,0.17
16:03:52.640,-0.005,0.165
16:03:52.644,0.01,0.26
16:03:52.648,0.03,0.27
16:03:52.652,0.05,0.26
16:03:52.656,0.05,0.315
16:03:52.660,0.08,0.27
16:03:52.664,0.15,0.245
16:03:52.668,0.22,0.26
16:03:52.672,0.31,0.29
16:03:52.676,0.505,0.355
16:03:52.680,0.765,0.44
16:03:52.684,1.06,0.47
16:03:52.688,1.29,0.52
16:03:52.692,1.3,0.565
16:03:52.696,0.985,0.56
16:03:52.700,0.49,0.58
16:03:52.704,0.095,0.51
16:03:52.708,-0.06,0.46
16:03:52.712,-0.1,0.6
16:03:52.716,-0.205,0.84
16:03:52.720,-0.29,1.045
16:03:52.724,-0.365,1.26
16:03:52.728,-0.39,1.275
16:03:52.732,-0.34,1.045
16:03:52.736,-0.25,0.76
16:03:52.740,-0.165,0.685
16:03:52.744,-0.09,0.7
16:03:52.748,-0.06,0.595
16:03:52.752,-0.045,0.44
16:03:52.756,-0.02,0.375
16:03:52.760,-0.025,0.33
16:03:52.764,-0.005,0.27
16:03:52.768,-0.03,0.21
16:03:52.772,-0.015,0.17
16:03:52.776,-0.03,0.22
16:03:52.780,-0.02,0.15
16:03:52.784,-0.01,0.15
16:03:52.788,0.01,0.19
16:03:52.792,0.02,0.215
16:03:52.796,0.01,0.215
16:03:52.800,-0.04,0.18
16:03:52.804,-0.095,0.19
16:03:52.808,-0.11,0.2
16:03:52.812,-0.12,0.225
16:03:52.816,-0.075,0.3
16:03:52.820,-0.04,0.485
16:03:52.824,-0.035,0.475
16:03:52.828,-0.06,0.265
16:03:52.832,-0.05,0.035
16:03:52.836,-0.02,-0.1
16:03:52.840,-0.01,-0.105
16:03:52.844,0.04,-0.1
16:03:52.848,0.08,-0.08
16:03:52.852,0.145,-0.04
16:03:52.856,0.19,0.01
16:03:52.860,0.21,0.07
16:03:52.864,0.26,0.12
16:03:52.868,0.31,0.075
16:03:52.872,0.33,0.03
16:03:52.876,0.355,0.09
16:03:52.880,0.365,0.17
16:03:52.884,0.395,0.195
16:03:52.888,0.385,0.215
16:03:52.892,0.325,0.21
16:03:52.896,0.28,0.215
16:03:52.900,0.27,0.21
16:03:52.904,0.29,0.13
16:03:52.908,0.265,0.075
16:03:52.912,0.215,0.095
16:03:52.916,0.155,0.185
16:03:52.920,0.155,0.215
16:03:52.924,0.175,0.25
16:03:52.928,0.155,0.23
16:03:52.932,0.11,0.225
16:03:52.936,0.12,0.28
16:03:52.940,0.14,0.3
16:03:52.944,0.14,0.265
16:03:52.948,0.135,0.295
16:03:52.952,0.2,0.3
16:03:52.956,0.45,0.36
16:03:52.960,0.825,0.515
16:03:52.964,1.11,0.67
16:03:52.968,1.34,0.72
16:03:52.972,1.275,0.58
16:03:52.976,0.935,0.45
16:03:52.980,0.415,0.26
16:03:52.984,-0.025,0.055
16:03:52.988,-0.205,0.245
16:03:52.992,-0.285,0.565
16:03:52.996,-0.29,0.83
16:03:53.000,-0.32,0.885
16:03:53.004,-0.37,0.895
16:03:53.008,-0.415,0.96
16:03:53.012,-0.43,1.0
16:03:53.016,-0.475,1.1
16:03:53.020,-0.515,1.235
16:03:53.024,-0.585,1.355
16:03:53.028,-0.56,1.35
16:03:53.032,-0.49,1.275
16:03:53.036,-0.41,1.33
16:03:53.040,-0.37,1.395
16:03:53.044,-0.295,1.385
16:03:53.048,-0.25,1.175
16:03:53.052,-0.185,0.81
16:03:53.056,-0.13,0.395
16:03:53.060,-0.09,0.18
16:03:53.064,-0.03,0.17
16:03:53.068,0.045,0.15
16:03:53.072,0.11,0.075
16:03:53.076,0.16,0.005
16:03:53.080,0.15,-0.05
16:03:53.084,0.105,-0.065
16:03:53.088,0.12,0.04
16:03:53.092,0.19,0.235
16:03:53.096,0.24,0.245
16:03:53.100,0.285,-0.08
16:03:53.104,0.19,-0.335
16:03:53.108,0.11,-0.41
16:03:53.112,0.17,-0.44
16:03:53.116,0.205,-0.475
16:03:53.120,0.265,-0.42
16:03:53.124,0.305,-0.375
16:03:53.128,0.33,-0.36
16:03:53.132,0.235,-0.37
16:03:53.136,0.215,-0.5
16:03:53.140,0.235,-0.495
16:03:53.144,0.235,-0.57
16:03:53.148,0.25,-0.59
16:03:53.152,0.26,-0.55
16:03:53.156,0.27,-0.53
16:03:53.160,0.27,-0.445
16:03:53.164,0.285,-0.425
16:03:53.168,0.25,-0.435
16:03:53.172,0.225,-0.515
16:03:53.176,0.21,-0.485
16:03:53.180,0.175,-0.41
16:03:53.184,0.17,-0.365
16:03:53.188,0.11,-0.33
16:03:53.192,0.07,-0.24
16:03:53.196,0.06,-0.195
16:03:53.200,0.07,-0.15
16:03:53.204,0.025,-0.22
16:03:53.208,-0.005,-0.23
16:03:53.212,-0.02,-0.155
16:03:53.216,-0.03,-0.02
16:03:53.220,-0.005,0.08
16:03:53.224,0.01,0.09
16:03:53.228,0.03,0.01
16:03:53.232,0.03,-0.045
16:03:53.236,0.055,-0.05
16:03:53.240,0.05,0.015
16:03:53.244,0.105,-0.03
16:03:53.248,0.11,-0.035
16:03:53.252,0.125,0.005
16:03:53.256,0.14,0.04
16:03:53.260,0.19,0.06
16:03:53.264,0.2,0.11
16:03:53.268,0.18,0.17
16:03:53.272,0.18,0.21
16:03:53.276,0.185,0.18
16:03:53.280,0.155,0.13
16:03:53.284,0.16,0.105
16:03:53.288,0.185,0.155
16:03:53.292,0.2,0.165
16:03:53.296,0.195,0.115
16:03:53.300,0.195,0.095
16:03:53.304,0.13,0.07
16:03:53.308,0.03,0.1
16:03:53.312,0.065,0.125
16:03:53.316,0.11,0.095
16:03:53.320,0.125,0.02
16:03:53.324,0.02,0.14
16:03:53.328,-0.05,0.3
16:03:53.332,-0.005,0.345
16:03:53.336,0.04,0.22
16:03:53.340,0.03,0.12
16:03:53.344,-0.005,-0.015
16:03:53.348,-0.06,-0.06
16:03:53.352,-0.12,-0.055
16:03:53.356,-0.14,-0.055
16:03:53.360,-0.13,-0.005
16:03:53.364,-0.145,0.07
16:03:53.368,-0.13,0.09
16:03:53.372,-0.135,0.075
16:03:53.376,-0.17,0.09
16:03:53.380,-0.165,0.095
16:03:53.384,-0.145,0.115
16:03:53.388,-0.135,0.07
16:03:53.392,-0.125,0.005
16:03:53.396,-0.1,0.02
16:03:53.400,-0.09,0.065
16:03:53.404,-0.145,0.145
16:03:53.408,-0.17,0.14
16:03:53.412,-0.045,0.145
16:03:53.416,0.24,0.17
16:03:53.420,0.545,0.185
16:03:53.424,0.825,0.255
16:03:53.428,0.995,0.28
16:03:53.432,0.925,0.365
16:03:53.436,0.51,0.475
16:03:53.440,0.03,0.455
16:03:53.444,-0.22,0.395
16:03:53.448,-0.3,0.46
16:03:53.452,-0.315,0.48
16:03:53.456,-0.285,0.515
16:03:53.460,-0.3,0.64
16:03:53.464,-0.315,0.86
16:03:53.468,-0.36,1.07
16:03:53.472,-0.46,1.165
16:03:53.476,-0.44,1.01
16:03:53.480,-0.325,0.78
16:03:53.484,-0.19,0.625
16:03:53.488,-0.065,0.63
16:03:53.492,0.045,0.635
16:03:53.496,0.07,0.625
16:03:53.500,0.03,0.445
16:03:53.504,0.045,0.11
16:03:53.508,0.145,-0.08
16:03:53.512,0.22,-0.08
16:03:53.516,0.155,-0.055
16:03:53.520,-0.01,0.07
16:03:53.524,-0.125,0.13
16:03:53.528,-0.125,0.0
16:03:53.532,-0.075,-0.175
16:03:53.536,-0.08,-0.18
16:03:53.540,-0.06,-0.09
16:03:53.544,0.015,-0.01
16:03:53.548,0.08,-0.035
16:03:53.552,0.055,0.005
16:03:53.556,0.065,0.025
16:03:53.560,0.08,0.01
16:03:53.564,0.075,-0.01
16:03:53.568,0.085,-0.1
16:03:53.572,0.08,-0.18
16:03:53.576,0.075,-0.155
16:03:53.580,0.095,-0.175
16:03:53.584,0.095,-0.18
16:03:53.588,0.11,-0.175
16:03:53.592,0.1,-0.19
16:03:53.596,0.11,-0.185
16:03:53.600,0.16,-0.135
16:03:53.604,0.175,-0.18
16:03:53.608,0.16,-0.2
16:03:53.612,0.19,-0.15
16:03:53.616,0.275,-0.04
16:03:53.620,0.305,0.035
16:03:53.624,0.285,-0.005
16:03:53.628,0.325,-0.09
16:03:53.632,0.375,-0.195
16:03:53.636,0.405,-0.13
16:03:53.640,0.45,-0.1
16:03:53.644,0.45,-0.01
16:03:53.648,0.405,0.19
16:03:53.652,0.355,0.335
16:03:53.656,0.38,0.29
16:03:53.660,0.425,0.075
16:03:53.664,0.46,-0.19
16:03:53.668,0.365,-0.26
16:03:53.672,0.275,-0.165
16:03:53.676,0.28,-0.105
16:03:53.680,0.29,-0.09
16:03:53.684,0.22,-0.08
16:03:53.688,0.14,-0.05
16:03:53.692,0.12,-0.02
16:03:53.696,0.205,0.055
16:03:53.700,0.375,0.01
16:03:53.704,0.655,0.02
16:03:53.708,0.88,0.17
16:03:53.712,0.99,0.205
16:03:53.716,1.03,0.225
16:03:53.720,0.81,0.24
16:03:53.724,0.375,0.145
16:03:53.728,0.07,0.035
16:03:53.732,-0.1,0.04
16:03:53.736,-0.135,0.25
16:03:53.740,-0.165,0.59
16:03:53.744,-0.195,0.745
16:03:53.748,-0.27,0.79
16:03:53.752,-0.285,0.805
16:03:53.756,-0.27,0.82
16:03:53.760,-0.16,0.975
16:03:53.764,-0.13,1.175
16:03:53.768,-0.205,1.36
16:03:53.772,-0.29,1.5
16:03:53.776,-0.28,1.56
16:03:53.780,-0.18,1.5
16:03:53.784,-0.14,1.535
16:03:53.788,-0.155,1.63
16:03:53.792,-0.14,1.27
16:03:53.796,-0.16,0.48
16:03:53.800,-0.175,0.09
16:03:53.804,-0.145,0.23
16:03:53.808,-0.09,0.145
16:03:53.812,-0.06,-0.135
16:03:53.816,-0.065,-0.29
16:03:53.820,-0.07,-0.26
16:03:53.824,-0.025,-0.255
16:03:53.828,0.045,-0.305
16:03:53.832,0.095,-0.27
16:03:53.836,0.135,-0.185
16:03:53.840,0.155,-0.125
16:03:53.844,0.215,-0.17
16:03:53.848,0.265,-0.15
16:03:53.852,0.335,-0.22
16:03:53.856,0.38,-0.25
16:03:53.860,0.39,-0.24
16:03:53.864,0.395,-0.225
16:03:53.868,0.415,-0.225
16:03:53.872,0.425,-0.305
16:03:53.876,0.425,-0.38
16:03:53.880,0.4,-0.41
16:03:53.884,0.4,-0.44
16:03:53.888,0.375,-0.445
16:03:53.892,0.38,-0.41
16:03:53.896,0.385,-0.385
16:03:53.900,0.4,-0.52
16:03:53.904,0.35,-0.6
16:03:53.908,0.375,-0.52
16:03:53.912,0.38,-0.51
16:03:53.916,0.39,-0.47
16:03:53.920,0.315,-0.445
16:03:53.924,0.25,-0.42
16:03:53.928,0.235,-0.335
16:03:53.932,0.275,-0.41
16:03:53.936,0.265,-0.45
16:03:53.940,0.24,-0.375
16:03:53.944,0.215,-0.31
16:03:53.948,0.215,-0.29
16:03:53.952,0.175,-0.315
16:03:53.956,0.165,-0.17
16:03:53.960,0.155,-0.015
16:03:53.964,0.11,0.03
16:03:53.968,0.085,-0.03
16:03:53.972,0.045,-0.165
16:03:53.976,0.05,-0.195
16:03:53.980,0.045,-0.09
16:03:53.984,0.03,0.15
16:03:53.988,0.065,0.345
16:03:53.992,0.145,0.195
16:03:53.996,0.375,-0.11
16:03:54.000,0.695,-0.2
16:03:54.004,1.035,-0.13
16:03:54.008,1.29,-0.04
16:03:54.012,1.25,0.07
16:03:54.016,0.885,0.15
16:03:54.020,0.43,0.155
16:03:54.024,0.1,0.125
16:03:54.028,-0.125,0.2
16:03:54.032,-0.255,0.435
16:03:54.036,-0.335,0.72
16:03:54.040,-0.395,0.975
16:03:54.044,-0.395,1.075
16:03:54.048,-0.335,0.975
16:03:54.052,-0.255,0.775
16:03:54.056,-0.16,0.69
16:03:54.060,-0.105,0.705
16:03:54.064,-0.04,0.605
16:03:54.068,0.0,0.425
16:03:54.072,0.02,0.355
16:03:54.076,0.0,0.3
16:03:54.080,-0.005,0.225
16:03:54.084,0.005,0.09
16:03:54.088,0.015,0.045
16:03:54.092,0.02,0.015
16:03:54.096,0.04,0.005
16:03:54.100,0.015,0.12
16:03:54.104,0.0,0.175
16:03:54.108,0.015,0.135
16:03:54.112,0.035,0.08
16:03:54.116,0.06,-0.05
16:03:54.120,0.09,-0.12
16:03:54.124,0.08,-0.14
16:03:54.128,0.045,-0.145
16:03:54.132,0.05,-0.155
16:03:54.136,0.05,-0.095
16:03:54.140,0.02,-0.03
16:03:54.144,0.02,-0.06
16:03:54.148,0.075,-0.135
16:03:54.152,0.06,-0.09
16:03:54.156,0.025,-0.015
16:03:54.160,0.05,-0.07
16:03:54.164,0.06,-0.1
16:03:54.168,0.085,-0.095
16:03:54.172,0.125,-0.11
16:03:54.176,0.165,-0.1
16:03:54.180,0.165,-0.09
16:03:54.184,0.185,-0.07
16:03:54.188,0.23,-0.1
16:03:54.192,0.255,-0.08
16:03:54.196,0.24,0.0
16:03:54.200,0.26,0.065
16:03:54.204,0.275,0.05
16:03:54.208,0.295,0.035
16:03:54.212,0.26,0.045
16:03:54.216,0.22,0.095
16:03:54.220,0.205,0.16
16:03:54.224,0.23,0.18
16:03:54.228,0.255,0.2
16:03:54.232,0.25,0.26
16:03:54.236,0.23,0.265
16:03:54.240,0.25,0.24
16:03:54.244,0.245,0.205
16:03:54.248,0.26,0.225
16:03:54.252,0.26,0.19
16:03:54.256,0.255,0.135
16:03:54.260,0.22,0.175
16:03:54.264,0.2,0.215
16:03:54.268,0.195,0.28
16:03:54.272,0.19,0.245
16:03:54.276,0.2,0.135
16:03:54.280,0.235,0.125
16:03:54.284,0.38,0.15
16:03:54.288,0.635,0.205
16:03:54.292,0.925,0.25
16:03:54.296,1.175,0.295
16:03:54.300,1.31,0.38
16:03:54.304,1.25,0.4
16:03:54.308,0.895,0.325
16:03:54.312,0.335,0.29
16:03:54.316,-0.1,0.29
16:03:54.320,-0.315,0.505
16:03:54.324,-0.385,0.795
16:03:54.328,-0.345,0.97
16:03:54.332,-0.375,1.04
16:03:54.336,-0.43,1.095
16:03:54.340,-0.46,1.185
16:03:54.344,-0.445,1.26
16:03:54.348,-0.5,1.395
16:03:54.352,-0.55,1.505
16:03:54.356,-0.55,1.44
16:03:54.360,-0.54,1.32
16:03:54.364,-0.54,1.305
16:03:54.368,-0.515,1.345
16:03:54.372,-0.465,1.425
16:03:54.376,-0.36,1.385
16:03:54.380,-0.305,1.235
16:03:54.384,-0.24,1.015
16:03:54.388,-0.18,0.71
16:03:54.392,-0.14,0.47
16:03:54.396,-0.125,0.255
16:03:54.400,-0.085,0.175
16:03:54.404,-0.04,0.17
16:03:54.408,0.01,0.14
16:03:54.412,0.045,0.115
16:03:54.416,0.055,0.125
16:03:54.420,0.1,0.14
16:03:54.424,0.14,0.13
16:03:54.428,0.13,-0.025
16:03:54.432,0.15,-0.08
16:03:54.436,0.18,-0.055
16:03:54.440,0.22,-0.035
16:03:54.444,0.21,-0.065
16:03:54.448,0.19,-0.13
16:03:54.452,0.205,-0.145
16:03:54.456,0.25,-0.2
16:03:54.460,0.24,-0.24
16:03:54.464,0.25,-0.295
16:03:54.468,0.255,-0.295
16:03:54.472,0.23,-0.305
16:03:54.476,0.24,-0.295
16:03:54.480,0.22,-0.265
16:03:54.484,0.215,-0.32
16:03:54.488,0.21,-0.35
16:03:54.492,0.215,-0.32
16:03:54.496,0.185,-0.325
16:03:54.500,0.15,-0.295
16:03:54.504,0.135,-0.265
16:03:54.508,0.135,-0.24
16:03:54.512,0.115,-0.26
16:03:54.516,0.095,-0.23
16:03:54.520,0.07,-0.185
16:03:54.524,0.055,-0.16
16:03:54.528,0.02,-0.115
16:03:54.532,0.04,-0.065
16:03:54.536,0.02,-0.08
16:03:54.540,0.0,-0.03
16:03:54.544,-0.02,0.02
16:03:54.548,-0.06,0.075
16:03:54.552,-0.07,0.085
16:03:54.556,-0.095,0.145
16:03:54.560,-0.105,0.155
16:03:54.564,-0.14,0.185
16:03:54.568,-0.18,0.215
16:03:54.572,-0.155,0.225
16:03:54.576,-0.165,0.24
16:03:54.580,-0.17,0.25
16:03:54.584,-0.18,0.27
16:03:54.588,-0.21,0.305
16:03:54.592,-0.235,0.305
16:03:54.596,-0.215,0.33
16:03:54.600,-0.175,0.3
16:03:54.604,-0.16,0.335
16:03:54.608,-0.12,0.375
16:03:54.612,-0.095,0.31
16:03:54.616,-0.07,0.365
16:03:54.620,-0.085,0.385
16:03:54.624,-0.055,0.41
16:03:54.628,-0.05,0.44
16:03:54.632,-0.055,0.43
16:03:54.636,-0.04,0.44
16:03:54.640,-0.04,0.435
16:03:54.644,-0.05,0.415
16:03:54.648,-0.06,0.39
16:03:54.652,-0.095,0.375
16:03:54.656,-0.1,0.365
16:03:54.660,-0.095,0.35
16:03:54.664,-0.135,0.34
16:03:54.668,-0.155,0.315
16:03:54.672,-0.175,0.33
16:03:54.676,-0.175,0.35
16:03:54.680,-0.165,0.4
16:03:54.684,-0.18,0.38
16:03:54.688,-0.195,0.29
16:03:54.692,-0.205,0.31
16:03:54.696,-0.19,0.34
16:03:54.700,-0.21,0.32
16:03:54.704,-0.215,0.33
16:03:54.708,-0.225,0.37
16:03:54.712,-0.22,0.37
16:03:54.716,-0.22,0.335
16:03:54.720,-0.225,0.33
16:03:54.724,-0.23,0.325
16:03:54.728,-0.22,0.335
16:03:54.732,-0.22,0.335
16:03:54.736,-0.26,0.355
16:03:54.740,-0.23,0.355
16:03:54.744,-0.1,0.38
16:03:54.748,0.115,0.445
16:03:54.752,0.34,0.505
16:03:54.756,0.525,0.53
16:03:54.760,0.58,0.505
16:03:54.764,0.405,0.5
16:03:54.768,-0.005,0.47
16:03:54.772,-0.415,0.425
16:03:54.776,-0.625,0.47
16:03:54.780,-0.69,0.63
16:03:54.784,-0.69,0.77
16:03:54.788,-0.69,0.865
16:03:54.792,-0.685,1.035
16:03:54.796,-0.72,1.22
16:03:54.800,-0.755,1.39
16:03:54.804,-0.775,1.42
16:03:54.808,-0.765,1.285
16:03:54.812,-0.715,1.145
16:03:54.816,-0.585,1.04
16:03:54.820,-0.425,1.005
16:03:54.824,-0.315,0.975
16:03:54.828,-0.235,0.845
16:03:54.832,-0.21,0.665
16:03:54.836,-0.175,0.575
16:03:54.840,-0.16,0.505
16:03:54.844,-0.16,0.455
16:03:54.848,-0.12,0.41
16:03:54.852,-0.14,0.39
16:03:54.856,-0.15,0.335
16:03:54.860,-0.135,0.3
16:03:54.864,-0.145,0.275
16:03:54.868,-0.13,0.24
16:03:54.872,-0.125,0.215
16:03:54.876,-0.15,0.18
16:03:54.880,-0.145,0.195
16:03:54.884,-0.145,0.195
16:03:54.888,-0.155,0.185
16:03:54.892,-0.165,0.16
16:03:54.896,-0.16,0.18
16:03:54.900,-0.15,0.17
16:03:54.904,-0.155,0.125
16:03:54.908,-0.155,0.115
16:03:54.912,-0.12,0.1
16:03:54.916,-0.13,0.1
16:03:54.920,-0.115,0.095
16:03:54.924,-0.095,0.085
16:03:54.928,-0.095,0.09
16:03:54.932,-0.1,0.07
16:03:54.936,-0.09,0.075
16:03:54.940,-0.095,0.075
16:03:54.944,-0.06,0.07
16:03:54.948,-0.07,0.08
16:03:54.952,-0.075,0.06
16:03:54.956,-0.06,0.06
16:03:54.960,-0.07,0.085
