Time,ECG1,ECG2
00:32:45.652:1,0.695,-0.87
00:32:45.656:1,0.72,-0.82
00:32:45.660:1,0.695,-0.75
00:32:45.664:1,0.705,-0.83
00:32:45.668:1,0.72,-0.865
00:32:45.672:1,0.695,-0.825
00:32:45.676:1,0.63,-0.76
00:32:45.680:1,0.565,-0.65
00:32:45.684:1,0.515,-0.67
00:32:45.688:1,0.52,-0.75
00:32:45.692:1,0.49,-0.8
00:32:45.696:1,0.425,-0.865
00:32:45.700:1,0.425,-0.94
00:32:45.704:1,0.375,-0.94
00:32:45.708:1,0.345,-0.895
00:32:45.712:1,0.29,-0.9
00:32:45.716:1,0.245,-0.93
00:32:45.720:1,0.215,-0.96
00:32:45.724:1,0.18,-1.01
00:32:45.728:1,0.175,-1.03
00:32:45.732:1,0.145,-1.02
00:32:45.736:1,0.15,-1.015
00:32:45.740:1,0.165,-0.98
00:32:45.744:1,0.155,-0.925
00:32:45.748:1,0.17,-0.875
00:32:45.752:1,0.165,-0.905
00:32:45.756:1,0.145,-0.945
00:32:45.760:1,0.155,-1.0
00:32:45.764:1,0.12,-1.02
00:32:45.768:1,0.11,-1.02
00:32:45.772:1,0.11,-1.0
00:32:45.776:1,0.115,-0.95
00:32:45.780:1,0.13,-0.835
00:32:45.784:1,0.135,-0.775
00:32:45.788:1,0.14,-0.815
00:32:45.792:1,0.14,-0.94
00:32:45.796:1,0.11,-0.99
00:32:45.800:1,0.1,-0.95
00:32:45.804:1,0.105,-0.985
00:32:45.808:1,0.12,-1.025
00:32:45.812:1,0.075,-1.06
00:32:45.816:1,0.07,-0.99
00:32:45.820:1,0.085,-0.89
00:32:45.824:1,0.155,-0.845
00:32:45.828:1,0.1,-0.79
00:32:45.832:1,-0.31,-0.79
00:32:45.836:1,-0.935,-0.7
00:32:45.840:1,-1.62,-0.315
00:32:45.844:1,-2.22,0.26
00:32:45.848:1,-2.575,0.89
00:32:45.852:1,-2.745,0.89
00:32:45.856:1,-2.745,-0.105
00:32:45.860:1,-2.64,-1.08
00:32:45.864:1,-2.445,-1.52
00:32:45.868:1,-1.9,-1.39
00:32:45.872:1,-1.245,-1.72
00:32:45.876:1,-0.73,-1.825
00:32:45.880:1,-0.305,-1.79
00:32:45.884:1,0.03,-1.605
00:32:45.888:1,0.285,-1.26
00:32:45.892:1,0.375,-0.96
00:32:45.896:1,0.385,-0.68
00:32:45.900:1,0.43,-0.56
00:32:45.904:1,0.48,-0.62
00:32:45.908:1,0.51,-0.69
00:32:45.912:1,0.54,-0.67
00:32:45.916:1,0.56,-0.595
00:32:45.920:1,0.585,-0.5
00:32:45.924:1,0.6,-0.47
00:32:45.928:1,0.645,-0.42
00:32:45.932:1,0.655,-0.4
00:32:45.936:1,0.7,-0.435
00:32:45.940:1,0.675,-0.515
00:32:45.944:1,0.66,-0.505
00:32:45.948:1,0.67,-0.49
00:32:45.952:1,0.685,-0.515
00:32:45.956:1,0.66,-0.49
00:32:45.960:1,0.66,-0.43
00:32:45.964:1,0.63,-0.465
00:32:45.968:1,0.63,-0.555
00:32:45.972:1,0.58,-0.66
00:32:45.976:1,0.565,-0.67
00:32:45.980:1,0.53,-0.67
00:32:45.984:1,0.515,-0.59
00:32:45.988:1,0.545,-0.69
00:32:45.992:1,0.575,-0.78
00:32:45.996:1,0.57,-0.84
00:32:46.000:1,0.575,-0.81
00:32:46.004:1,0.57,-0.76
00:32:46.008:1,0.555,-0.68
00:32:46.012:1,0.56,-0.655
00:32:46.016:1,0.525,-0.765
00:32:46.020:1,0.515,-0.875
00:32:46.024:1,0.525,-0.95
00:32:46.028:1,0.495,-0.96
00:32:46.032:1,0.485,-0.965
00:32:46.036:1,0.43,-0.86
00:32:46.040:1,0.445,-0.775
00:32:46.044:1,0.43,-0.78
00:32:46.048:1,0.415,-0.89
00:32:46.052:1,0.365,-0.955
00:32:46.056:1,0.33,-0.945
00:32:46.060:1,0.31,-0.885
00:32:46.064:1,0.285,-0.84
00:32:46.068:1,0.255,-0.86
00:32:46.072:1,0.23,-0.82
00:32:46.076:1,0.24,-0.76
00:32:46.080:1,0.24,-0.79
00:32:46.084:1,0.24,-0.85
00:32:46.088:1,0.235,-0.795
00:32:46.092:1,0.21,-0.68
00:32:46.096:1,0.235,-0.655
00:32:46.100:1,0.205,-0.715
00:32:46.104:1,0.205,-0.8
00:32:46.108:1,0.245,-0.84
00:32:46.112:1,0.26,-0.79
00:32:46.116:1,0.26,-0.75
00:32:46.120:1,0.265,-0.72
00:32:46.124:1,0.29,-0.685
00:32:46.128:1,0.28,-0.625
00:32:46.132:1,0.285,-0.62
00:32:46.136:1,0.26,-0.57
00:32:46.140:1,0.29,-0.62
00:32:46.144:1,0.28,-0.69
00:32:46.148:1,0.295,-0.64
00:32:46.152:1,0.29,-0.69
00:32:46.156:1,0.255,-0.785
00:32:46.160:1,0.29,-0.815
00:32:46.164:1,0.3,-0.81
00:32:46.168:1,0.275,-0.72
00:32:46.172:1,0.255,-0.625
00:32:46.176:1,0.03,-0.735
00:32:46.180:1,-0.64,-0.895
00:32:46.184:1,-1.445,-0.71
00:32:46.188:1,-2.16,-0.025
00:32:46.192:1,-2.595,0.635
00:32:46.196:1,-2.805,0.915
00:32:46.200:1,-2.825,0.22
00:32:46.204:1,-2.79,-0.915
00:32:46.208:1,-2.77,-1.575
00:32:46.212:1,-2.46,-1.505
00:32:46.216:1,-1.835,-1.25
00:32:46.220:1,-1.22,-1.65
00:32:46.224:1,-0.635,-1.63
00:32:46.228:1,-0.135,-1.405
00:32:46.232:1,0.21,-1.25
00:32:46.236:1,0.35,-1.045
00:32:46.240:1,0.385,-0.8
00:32:46.244:1,0.4,-0.705
00:32:46.248:1,0.43,-0.69
00:32:46.252:1,0.45,-0.64
00:32:46.256:1,0.46,-0.585
00:32:46.260:1,0.49,-0.555
00:32:46.264:1,0.52,-0.575
00:32:46.268:1,0.545,-0.585
00:32:46.272:1,0.545,-0.49
00:32:46.276:1,0.575,-0.445
00:32:46.280:1,0.585,-0.455
00:32:46.284:1,0.58,-0.42
00:32:46.288:1,0.58,-0.43
00:32:46.292:1,0.615,-0.385
00:32:46.296:1,0.64,-0.36
00:32:46.300:1,0.66,-0.355
00:32:46.304:1,0.67,-0.305
00:32:46.308:1,0.705,-0.315
00:32:46.312:1,0.71,-0.315
00:32:46.316:1,0.72,-0.355
00:32:46.320:1,0.7,-0.31
00:32:46.324:1,0.72,-0.36
00:32:46.328:1,0.735,-0.41
00:32:46.332:1,0.755,-0.44
00:32:46.336:1,0.79,-0.55
00:32:46.340:1,0.8,-0.65
00:32:46.344:1,0.825,-0.69
00:32:46.348:1,0.825,-0.61
00:32:46.352:1,0.845,-0.54
00:32:46.356:1,0.795,-0.55
00:32:46.360:1,0.79,-0.65
00:32:46.364:1,0.76,-0.7
00:32:46.368:1,0.73,-0.665
00:32:46.372:1,0.76,-0.64
00:32:46.376:1,0.755,-0.615
00:32:46.380:1,0.705,-0.57
00:32:46.384:1,0.67,-0.555
00:32:46.388:1,0.635,-0.54
00:32:46.392:1,0.585,-0.58
00:32:46.396:1,0.54,-0.61
00:32:46.400:1,0.51,-0.64
00:32:46.404:1,0.47,-0.585
00:32:46.408:1,0.43,-0.53
00:32:46.412:1,0.39,-0.46
00:32:46.416:1,0.37,-0.45
00:32:46.420:1,0.305,-0.475
00:32:46.424:1,0.29,-0.475
00:32:46.428:1,0.28,-0.625
00:32:46.432:1,0.25,-0.745
00:32:46.436:1,0.205,-0.76
00:32:46.440:1,0.205,-0.705
00:32:46.444:1,0.195,-0.645
00:32:46.448:1,0.175,-0.64
00:32:46.452:1,0.205,-0.655
00:32:46.456:1,0.18,-0.675
00:32:46.460:1,0.165,-0.66
00:32:46.464:1,0.175,-0.62
00:32:46.468:1,0.165,-0.555
00:32:46.472:1,0.175,-0.51
00:32:46.476:1,0.2,-0.42
00:32:46.480:1,0.185,-0.395
00:32:46.484:1,0.18,-0.44
00:32:46.488:1,0.205,-0.42
00:32:46.492:1,0.22,-0.425
00:32:46.496:1,0.235,-0.47
00:32:46.500:1,0.225,-0.505
00:32:46.504:1,0.23,-0.54
00:32:46.508:1,0.22,-0.55
00:32:46.512:1,0.24,-0.56
00:32:46.516:1,0.23,-0.52
00:32:46.520:1,0.22,-0.53
00:32:46.524:1,0.245,-0.665
00:32:46.528:1,0.26,-0.795
00:32:46.532:1,0.22,-0.855
00:32:46.536:1,0.195,-0.86
00:32:46.540:1,0.17,-0.795
00:32:46.544:1,0.095,-0.78
00:32:46.548:1,0.1,-0.735
00:32:46.552:1,0.125,-0.715
00:32:46.556:1,0.165,-0.635
00:32:46.560:1,0.18,-0.595
00:32:46.564:1,0.17,-0.615
00:32:46.568:1,0.135,-0.66
00:32:46.572:1,0.11,-0.68
00:32:46.576:1,0.135,-0.625
00:32:46.580:1,0.13,-0.525
00:32:46.584:1,0.19,-0.39
00:32:46.588:1,0.265,-0.32
00:32:46.592:1,0.11,-0.375
00:32:46.596:1,-0.405,-0.445
00:32:46.600:1,-1.155,-0.285
00:32:46.604:1,-1.905,0.3
00:32:46.608:1,-2.39,1.03
00:32:46.612:1,-2.625,1.465
00:32:46.616:1,-2.7,0.845
00:32:46.620:1,-2.64,-0.365
00:32:46.624:1,-2.48,-1.115
00:32:46.628:1,-2.14,-1.165
00:32:46.632:1,-1.51,-1.1
00:32:46.636:1,-0.96,-1.495
00:32:46.640:1,-0.575,-1.435
00:32:46.644:1,-0.135,-1.345
00:32:46.648:1,0.2,-1.2
00:32:46.652:1,0.395,-1.0
00:32:46.656:1,0.43,-0.69
00:32:46.660:1,0.44,-0.435
00:32:46.664:1,0.48,-0.38
00:32:46.668:1,0.51,-0.31
00:32:46.672:1,0.56,-0.28
00:32:46.676:1,0.58,-0.235
00:32:46.680:1,0.595,-0.14
00:32:46.684:1,0.635,-0.215
00:32:46.688:1,0.665,-0.295
00:32:46.692:1,0.655,-0.37
00:32:46.696:1,0.655,-0.385
00:32:46.700:1,0.675,-0.385
00:32:46.704:1,0.695,-0.43
00:32:46.708:1,0.675,-0.475
00:32:46.712:1,0.68,-0.53
00:32:46.716:1,0.71,-0.55
00:32:46.720:1,0.71,-0.585
00:32:46.724:1,0.7,-0.595
00:32:46.728:1,0.72,-0.585
00:32:46.732:1,0.725,-0.525
00:32:46.736:1,0.72,-0.465
00:32:46.740:1,0.74,-0.425
00:32:46.744:1,0.745,-0.41
00:32:46.748:1,0.765,-0.375
00:32:46.752:1,0.8,-0.37
00:32:46.756:1,0.78,-0.475
00:32:46.760:1,0.82,-0.57
00:32:46.764:1,0.825,-0.62
00:32:46.768:1,0.835,-0.56
00:32:46.772:1,0.87,-0.52
00:32:46.776:1,0.91,-0.465
00:32:46.780:1,0.905,-0.395
00:32:46.784:1,0.915,-0.37
00:32:46.788:1,0.925,-0.435
00:32:46.792:1,0.9,-0.54
00:32:46.796:1,0.905,-0.485
00:32:46.800:1,0.885,-0.55
00:32:46.804:1,0.88,-0.585
00:32:46.808:1,0.875,-0.58
00:32:46.812:1,0.815,-0.61
00:32:46.816:1,0.765,-0.55
00:32:46.820:1,0.745,-0.455
00:32:46.824:1,0.675,-0.475
00:32:46.828:1,0.64,-0.57
00:32:46.832:1,0.605,-0.565
00:32:46.836:1,0.565,-0.455
00:32:46.840:1,0.53,-0.315
00:32:46.844:1,0.495,-0.23
00:32:46.848:1,0.46,-0.175
00:32:46.852:1,0.415,-0.22
00:32:46.856:1,0.375,-0.275
00:32:46.860:1,0.355,-0.375
00:32:46.864:1,0.35,-0.42
00:32:46.868:1,0.32,-0.385
00:32:46.872:1,0.32,-0.34
00:32:46.876:1,0.33,-0.48
00:32:46.880:1,0.335,-0.525
00:32:46.884:1,0.31,-0.565
00:32:46.888:1,0.295,-0.6
00:32:46.892:1,0.29,-0.615
00:32:46.896:1,0.275,-0.605
00:32:46.900:1,0.295,-0.655
00:32:46.904:1,0.275,-0.6
00:32:46.908:1,0.26,-0.555
00:32:46.912:1,0.25,-0.49
00:32:46.916:1,0.255,-0.45
00:32:46.920:1,0.25,-0.575
00:32:46.924:1,0.25,-0.685
00:32:46.928:1,0.24,-0.66
00:32:46.932:1,0.22,-0.57
00:32:46.936:1,0.195,-0.54
00:32:46.940:1,0.215,-0.53
00:32:46.944:1,0.205,-0.63
00:32:46.948:1,0.195,-0.68
00:32:46.952:1,0.19,-0.68
00:32:46.956:1,0.2,-0.52
00:32:46.960:1,0.2,-0.525
00:32:46.964:1,0.215,-0.58
00:32:46.968:1,0.22,-0.64
00:32:46.972:1,0.22,-0.675
00:32:46.976:1,0.205,-0.68
00:32:46.980:1,0.205,-0.615
00:32:46.984:1,0.21,-0.595
00:32:46.988:1,0.19,-0.68
00:32:46.992:1,0.215,-0.72
00:32:46.996:1,0.21,-0.615
00:32:47.000:1,0.19,-0.525
00:32:47.004:1,0.18,-0.5
00:32:47.008:1,0.165,-0.495
00:32:47.012:1,0.165,-0.525
00:32:47.016:1,0.18,-0.575
00:32:47.020:1,0.195,-0.62
00:32:47.024:1,0.205,-0.64
00:32:47.028:1,0.225,-0.615
00:32:47.032:1,0.215,-0.545
00:32:47.036:1,0.195,-0.54
00:32:47.040:1,0.19,-0.61
00:32:47.044:1,0.205,-0.62
00:32:47.048:1,0.19,-0.575
00:32:47.052:1,0.225,-0.495
00:32:47.056:1,0.22,-0.53
00:32:47.060:1,0.225,-0.63
00:32:47.064:1,0.22,-0.68
00:32:47.068:1,0.23,-0.71
00:32:47.072:1,0.255,-0.74
00:32:47.076:1,0.245,-0.72
00:32:47.080:1,0.26,-0.68
00:32:47.084:1,0.255,-0.685
00:32:47.088:1,0.23,-0.675
00:32:47.092:1,0.2,-0.66
00:32:47.096:1,0.2,-0.71
00:32:47.100:1,0.185,-0.75
00:32:47.104:1,0.195,-0.72
00:32:47.108:1,0.175,-0.685
00:32:47.112:1,0.17,-0.655
00:32:47.116:1,0.13,-0.72
00:32:47.120:1,0.165,-0.76
00:32:47.124:1,0.24,-0.665
00:32:47.128:1,0.015,-0.63
00:32:47.132:1,-0.595,-0.39
00:32:47.136:1,-1.32,0.15
00:32:47.140:1,-1.95,0.945
00:32:47.144:1,-2.28,1.72
00:32:47.148:1,-2.455,2.18
00:32:47.152:1,-2.5,1.845
00:32:47.156:1,-2.41,0.875
00:32:47.160:1,-2.26,-0.235
00:32:47.164:1,-2.015,-0.77
00:32:47.168:1,-1.45,-0.82
00:32:47.172:1,-0.89,-1.26
00:32:47.176:1,-0.49,-1.38
00:32:47.180:1,-0.125,-1.28
00:32:47.184:1,0.165,-1.04
00:32:47.188:1,0.375,-0.95
00:32:47.192:1,0.405,-0.725
00:32:47.196:1,0.405,-0.355
00:32:47.200:1,0.455,-0.215
00:32:47.204:1,0.46,-0.265
00:32:47.208:1,0.525,-0.355
00:32:47.212:1,0.565,-0.3
00:32:47.216:1,0.6,-0.195
00:32:47.220:1,0.61,-0.2
00:32:47.224:1,0.6,-0.265
00:32:47.228:1,0.625,-0.28
00:32:47.232:1,0.635,-0.215
00:32:47.236:1,0.64,-0.125
00:32:47.240:1,0.655,-0.21
00:32:47.244:1,0.675,-0.28
00:32:47.248:1,0.7,-0.345
00:32:47.252:1,0.715,-0.425
00:32:47.256:1,0.7,-0.45
00:32:47.260:1,0.68,-0.35
00:32:47.264:1,0.7,-0.32
00:32:47.268:1,0.715,-0.355
00:32:47.272:1,0.725,-0.395
00:32:47.276:1,0.72,-0.39
00:32:47.280:1,0.755,-0.385
00:32:47.284:1,0.74,-0.39
00:32:47.288:1,0.76,-0.375
00:32:47.292:1,0.74,-0.315
00:32:47.296:1,0.735,-0.31
00:32:47.300:1,0.715,-0.43
00:32:47.304:1,0.745,-0.555
00:32:47.308:1,0.765,-0.555
00:32:47.312:1,0.76,-0.45
00:32:47.316:1,0.775,-0.515
00:32:47.320:1,0.76,-0.585
00:32:47.324:1,0.75,-0.6
00:32:47.328:1,0.72,-0.62
00:32:47.332:1,0.725,-0.615
00:32:47.336:1,0.71,-0.675
00:32:47.340:1,0.7,-0.73
00:32:47.344:1,0.675,-0.81
00:32:47.348:1,0.67,-0.805
00:32:47.352:1,0.63,-0.73
00:32:47.356:1,0.59,-0.635
00:32:47.360:1,0.55,-0.605
00:32:47.364:1,0.51,-0.59
00:32:47.368:1,0.455,-0.57
00:32:47.372:1,0.435,-0.55
00:32:47.376:1,0.405,-0.47
00:32:47.380:1,0.365,-0.42
00:32:47.384:1,0.345,-0.385
00:32:47.388:1,0.34,-0.34
00:32:47.392:1,0.325,-0.305
00:32:47.396:1,0.335,-0.2
00:32:47.400:1,0.315,-0.12
00:32:47.404:1,0.325,-0.12
00:32:47.408:1,0.3,-0.25
00:32:47.412:1,0.325,-0.285
00:32:47.416:1,0.335,-0.18
00:32:47.420:1,0.335,-0.11
00:32:47.424:1,0.345,-0.125
00:32:47.428:1,0.36,-0.13
00:32:47.432:1,0.37,-0.165
00:32:47.436:1,0.38,-0.19
00:32:47.440:1,0.325,-0.24
00:32:47.444:1,0.35,-0.28
00:32:47.448:1,0.315,-0.355
00:32:47.452:1,0.315,-0.335
00:32:47.456:1,0.28,-0.29
00:32:47.460:1,0.265,-0.305
00:32:47.464:1,0.255,-0.32
00:32:47.468:1,0.25,-0.31
00:32:47.472:1,0.25,-0.245
00:32:47.476:1,0.205,-0.235
00:32:47.480:1,0.185,-0.195
00:32:47.484:1,0.22,-0.185
00:32:47.488:1,0.195,-0.325
00:32:47.492:1,0.2,-0.495
00:32:47.496:1,0.215,-0.53
00:32:47.500:1,0.195,-0.515
00:32:47.504:1,0.185,-0.435
00:32:47.508:1,0.165,-0.385
00:32:47.512:1,0.16,-0.435
00:32:47.516:1,0.15,-0.465
00:32:47.520:1,0.135,-0.465
00:32:47.524:1,0.14,-0.47
00:32:47.528:1,0.145,-0.44
00:32:47.532:1,0.175,-0.39
00:32:47.536:1,0.155,-0.415
00:32:47.540:1,0.17,-0.39
00:32:47.544:1,0.165,-0.395
00:32:47.548:1,0.155,-0.475
00:32:47.552:1,0.175,-0.465
00:32:47.556:1,0.155,-0.375
00:32:47.560:1,0.155,-0.395
00:32:47.564:1,0.165,-0.445
00:32:47.568:1,0.17,-0.44
00:32:47.572:1,0.205,-0.46
00:32:47.576:1,0.2,-0.49
00:32:47.580:1,0.225,-0.54
00:32:47.584:1,0.215,-0.52
00:32:47.588:1,0.225,-0.49
00:32:47.592:1,0.23,-0.44
00:32:47.596:1,0.255,-0.43
00:32:47.600:1,0.245,-0.405
00:32:47.604:1,0.23,-0.41
00:32:47.608:1,0.245,-0.425
00:32:47.612:1,0.235,-0.505
00:32:47.616:1,0.22,-0.555
00:32:47.620:1,0.185,-0.58
00:32:47.624:1,0.18,-0.565
00:32:47.628:1,0.205,-0.565
00:32:47.632:1,0.21,-0.55
00:32:47.636:1,0.185,-0.495
00:32:47.640:1,0.205,-0.46
00:32:47.644:1,0.22,-0.52
00:32:47.648:1,0.235,-0.565
00:32:47.652:1,0.225,-0.58
00:32:47.656:1,0.225,-0.515
00:32:47.660:1,0.2,-0.55
00:32:47.664:1,-0.08,-0.6
00:32:47.668:1,-0.7,-0.475
00:32:47.672:1,-1.355,-0.14
00:32:47.676:1,-1.985,0.445
00:32:47.680:1,-2.315,1.095
00:32:47.684:1,-2.51,1.66
00:32:47.688:1,-2.54,1.375
00:32:47.692:1,-2.47,0.35
00:32:47.696:1,-2.315,-0.455
00:32:47.700:1,-1.86,-0.615
00:32:47.704:1,-1.275,-0.97
00:32:47.708:1,-0.815,-1.32
00:32:47.712:1,-0.41,-1.145
00:32:47.716:1,-0.055,-1.065
00:32:47.720:1,0.24,-0.8
00:32:47.724:1,0.41,-0.66
00:32:47.728:1,0.445,-0.57
00:32:47.732:1,0.48,-0.41
00:32:47.736:1,0.47,-0.38
00:32:47.740:1,0.495,-0.325
00:32:47.744:1,0.535,-0.265
00:32:47.748:1,0.585,-0.215
00:32:47.752:1,0.6,-0.12
00:32:47.756:1,0.63,-0.055
00:32:47.760:1,0.635,-0.075
00:32:47.764:1,0.63,-0.05
00:32:47.768:1,0.645,-0.04
00:32:47.772:1,0.66,-0.045
00:32:47.776:1,0.665,-0.105
00:32:47.780:1,0.665,-0.185
00:32:47.784:1,0.675,-0.205
00:32:47.788:1,0.715,-0.165
00:32:47.792:1,0.705,-0.13
00:32:47.796:1,0.705,-0.095
00:32:47.800:1,0.715,-0.075
00:32:47.804:1,0.725,-0.145
00:32:47.808:1,0.735,-0.295
00:32:47.812:1,0.74,-0.315
00:32:47.816:1,0.75,-0.31
00:32:47.820:1,0.765,-0.385
00:32:47.824:1,0.79,-0.385
00:32:47.828:1,0.815,-0.34
00:32:47.832:1,0.785,-0.375
00:32:47.836:1,0.755,-0.41
00:32:47.840:1,0.77,-0.455
00:32:47.844:1,0.79,-0.45
00:32:47.848:1,0.795,-0.47
00:32:47.852:1,0.79,-0.46
00:32:47.856:1,0.815,-0.44
00:32:47.860:1,0.805,-0.395
00:32:47.864:1,0.825,-0.365
00:32:47.868:1,0.79,-0.305
00:32:47.872:1,0.735,-0.305
00:32:47.876:1,0.7,-0.43
00:32:47.880:1,0.67,-0.525
00:32:47.884:1,0.645,-0.495
00:32:47.888:1,0.615,-0.49
00:32:47.892:1,0.62,-0.57
00:32:47.896:1,0.58,-0.595
00:32:47.900:1,0.565,-0.565
00:32:47.904:1,0.53,-0.505
00:32:47.908:1,0.48,-0.465
00:32:47.912:1,0.43,-0.44
00:32:47.916:1,0.415,-0.425
00:32:47.920:1,0.42,-0.365
00:32:47.924:1,0.395,-0.285
00:32:47.928:1,0.41,-0.195
00:32:47.932:1,0.4,-0.105
00:32:47.936:1,0.39,-0.015
00:32:47.940:1,0.37,0.045
00:32:47.944:1,0.35,-0.01
00:32:47.948:1,0.39,-0.07
00:32:47.952:1,0.34,-0.075
00:32:47.956:1,0.33,-0.115
00:32:47.960:1,0.29,-0.08
00:32:47.964:1,0.28,-0.125
00:32:47.968:1,0.3,-0.18
00:32:47.972:1,0.29,-0.19
00:32:47.976:1,0.26,-0.18
00:32:47.980:1,0.24,-0.18
00:32:47.984:1,0.245,-0.245
00:32:47.988:1,0.26,-0.33
00:32:47.992:1,0.245,-0.325
00:32:47.996:1,0.255,-0.31
00:32:48.000:1,0.25,-0.3
00:32:48.004:1,0.225,-0.305
00:32:48.008:1,0.235,-0.24
00:32:48.012:1,0.215,-0.275
00:32:48.016:1,0.195,-0.42
00:32:48.020:1,0.175,-0.555
00:32:48.024:1,0.155,-0.54
00:32:48.028:1,0.175,-0.52
00:32:48.032:1,0.145,-0.48
00:32:48.036:1,0.155,-0.395
00:32:48.040:1,0.17,-0.385
00:32:48.044:1,0.185,-0.34
00:32:48.048:1,0.19,-0.385
00:32:48.052:1,0.195,-0.41
00:32:48.056:1,0.145,-0.39
00:32:48.060:1,0.165,-0.365
00:32:48.064:1,0.145,-0.385
00:32:48.068:1,0.12,-0.385
00:32:48.072:1,0.1,-0.32
00:32:48.076:1,0.095,-0.24
00:32:48.080:1,0.095,-0.24
00:32:48.084:1,0.12,-0.3
00:32:48.088:1,0.085,-0.37
00:32:48.092:1,0.1,-0.445
00:32:48.096:1,0.1,-0.45
00:32:48.100:1,0.125,-0.405
00:32:48.104:1,0.15,-0.34
00:32:48.108:1,0.15,-0.26
00:32:48.112:1,0.175,-0.235
00:32:48.116:1,0.17,-0.275
00:32:48.120:1,0.17,-0.32
00:32:48.124:1,0.175,-0.34
00:32:48.128:1,0.165,-0.345
00:32:48.132:1,0.18,-0.33
00:32:48.136:1,0.165,-0.34
00:32:48.140:1,0.175,-0.265
00:32:48.144:1,0.2,-0.26
00:32:48.148:1,0.21,-0.325
00:32:48.152:1,0.21,-0.405
00:32:48.156:1,0.205,-0.435
00:32:48.160:1,0.175,-0.4
00:32:48.164:1,0.16,-0.38
00:32:48.168:1,0.17,-0.48
00:32:48.172:1,0.15,-0.53
00:32:48.176:1,0.175,-0.57
00:32:48.180:1,0.165,-0.545
00:32:48.184:1,0.2,-0.455
00:32:48.188:1,0.175,-0.41
00:32:48.192:1,-0.2,-0.425
00:32:48.196:1,-0.945,-0.335
00:32:48.200:1,-1.73,0.06
00:32:48.204:1,-2.27,0.64
00:32:48.208:1,-2.57,1.23
00:32:48.212:1,-2.67,1.375
00:32:48.216:1,-2.67,0.615
00:32:48.220:1,-2.625,-0.34
00:32:48.224:1,-2.45,-0.725
00:32:48.228:1,-2.01,-0.585
00:32:48.232:1,-1.46,-0.64
00:32:48.236:1,-0.95,-1.045
00:32:48.240:1,-0.45,-0.965
00:32:48.244:1,-0.03,-0.855
00:32:48.248:1,0.265,-0.67
00:32:48.252:1,0.355,-0.485
00:32:48.256:1,0.4,-0.26
00:32:48.260:1,0.41,-0.07
00:32:48.264:1,0.43,-0.06
00:32:48.268:1,0.41,-0.11
00:32:48.272:1,0.445,-0.14
00:32:48.276:1,0.45,-0.14
00:32:48.280:1,0.46,-0.15
00:32:48.284:1,0.46,-0.1
00:32:48.288:1,0.485,-0.04
00:32:48.292:1,0.515,-0.02
00:32:48.296:1,0.53,0.03
00:32:48.300:1,0.585,0.035
00:32:48.304:1,0.605,0.045
00:32:48.308:1,0.6,0.05
00:32:48.312:1,0.61,0.02
00:32:48.316:1,0.61,0.035
00:32:48.320:1,0.635,0.05
00:32:48.324:1,0.65,0.06
00:32:48.328:1,0.655,0.02
00:32:48.332:1,0.67,0.02
00:32:48.336:1,0.7,0.11
00:32:48.340:1,0.715,0.09
00:32:48.344:1,0.725,-0.02
00:32:48.348:1,0.755,-0.155
00:32:48.352:1,0.765,-0.245
00:32:48.356:1,0.76,-0.26
00:32:48.360:1,0.78,-0.23
00:32:48.364:1,0.815,-0.21
00:32:48.368:1,0.86,-0.23
00:32:48.372:1,0.85,-0.16
00:32:48.376:1,0.85,-0.24
00:32:48.380:1,0.84,-0.285
00:32:48.384:1,0.835,-0.29
00:32:48.388:1,0.825,-0.255
00:32:48.392:1,0.82,-0.315
00:32:48.396:1,0.8,-0.335
00:32:48.400:1,0.815,-0.305
00:32:48.404:1,0.79,-0.255
00:32:48.408:1,0.765,-0.21
00:32:48.412:1,0.755,-0.205
00:32:48.416:1,0.745,-0.2
00:32:48.420:1,0.695,-0.225
00:32:48.424:1,0.67,-0.27
00:32:48.428:1,0.645,-0.27
00:32:48.432:1,0.585,-0.23
00:32:48.436:1,0.535,-0.16
00:32:48.440:1,0.495,-0.08
00:32:48.444:1,0.465,-0.015
00:32:48.448:1,0.425,0.075
00:32:48.452:1,0.395,0.145
00:32:48.456:1,0.35,0.23
00:32:48.460:1,0.325,0.29
00:32:48.464:1,0.32,0.295
00:32:48.468:1,0.295,0.22
00:32:48.472:1,0.295,0.065
00:32:48.476:1,0.27,-0.01
00:32:48.480:1,0.28,-0.085
00:32:48.484:1,0.28,-0.075
00:32:48.488:1,0.26,-0.03
00:32:48.492:1,0.26,-0.015
00:32:48.496:1,0.23,-0.035
00:32:48.500:1,0.23,-0.025
00:32:48.504:1,0.22,0.0
00:32:48.508:1,0.195,0.02
00:32:48.512:1,0.22,0.04
00:32:48.516:1,0.22,0.04
00:32:48.520:1,0.24,0.06
00:32:48.524:1,0.21,-0.005
00:32:48.528:1,0.2,-0.02
00:32:48.532:1,0.19,-0.08
00:32:48.536:1,0.19,-0.135
00:32:48.540:1,0.17,-0.17
00:32:48.544:1,0.18,-0.19
00:32:48.548:1,0.155,-0.125
00:32:48.552:1,0.19,-0.04
00:32:48.556:1,0.16,-0.055
00:32:48.560:1,0.17,-0.08
00:32:48.564:1,0.15,-0.115
00:32:48.568:1,0.145,-0.135
00:32:48.572:1,0.15,-0.175
00:32:48.576:1,0.145,-0.185
00:32:48.580:1,0.135,-0.215
00:32:48.584:1,0.14,-0.245
00:32:48.588:1,0.125,-0.21
00:32:48.592:1,0.125,-0.19
00:32:48.596:1,0.145,-0.15
00:32:48.600:1,0.125,-0.12
00:32:48.604:1,0.13,-0.2
00:32:48.608:1,0.115,-0.275
00:32:48.612:1,0.1,-0.29
00:32:48.616:1,0.075,-0.34
00:32:48.620:1,0.08,-0.335
00:32:48.624:1,0.065,-0.335
00:32:48.628:1,0.065,-0.285
00:32:48.632:1,0.08,-0.22
00:32:48.636:1,0.07,-0.145
00:32:48.640:1,0.035,-0.07
00:32:48.644:1,0.02,-0.105
00:32:48.648:1,0.02,-0.14
00:32:48.652:1,0.02,-0.125
00:32:48.656:1,0.04,-0.075
00:32:48.660:1,0.065,-0.065
00:32:48.664:1,0.09,-0.11
00:32:48.668:1,0.1,-0.11
00:32:48.672:1,0.08,-0.05
00:32:48.676:1,0.11,-0.015
00:32:48.680:1,0.08,-0.035
00:32:48.684:1,0.05,-0.09
00:32:48.688:1,0.1,-0.125
00:32:48.692:1,0.08,-0.135
00:32:48.696:1,0.08,-0.095
00:32:48.700:1,0.09,-0.07
00:32:48.704:1,0.13,-0.105
00:32:48.708:1,0.13,-0.115
00:32:48.712:1,0.155,-0.165
00:32:48.716:1,0.145,-0.19
00:32:48.720:1,0.19,-0.24
00:32:48.724:1,0.295,-0.23
00:32:48.728:1,0.375,-0.17
00:32:48.732:1,0.33,-0.135
00:32:48.736:1,0.255,-0.135
00:32:48.740:1,0.145,-0.12
00:32:48.744:1,0.095,-0.13
00:32:48.748:1,0.06,-0.11
00:32:48.752:1,0.045,-0.07
00:32:48.756:1,0.025,-0.11
00:32:48.760:1,0.055,-0.145
00:32:48.764:1,0.055,-0.265
00:32:48.768:1,0.075,-0.365
00:32:48.772:1,0.105,-0.29
00:32:48.776:1,0.115,-0.18
00:32:48.780:1,0.12,-0.19
00:32:48.784:1,0.115,-0.07
00:32:48.788:1,0.16,0.05
00:32:48.792:1,0.165,0.035
00:32:48.796:1,-0.09,0.0
00:32:48.800:1,-0.645,0.04
00:32:48.804:1,-1.34,0.415
00:32:48.808:1,-1.985,1.04
00:32:48.812:1,-2.34,1.695
00:32:48.816:1,-2.54,2.21
00:32:48.820:1,-2.605,1.8
00:32:48.824:1,-2.49,0.755
00:32:48.828:1,-2.335,-0.075
00:32:48.832:1,-1.91,-0.255
00:32:48.836:1,-1.31,-0.42
00:32:48.840:1,-0.85,-0.85
00:32:48.844:1,-0.48,-0.79
00:32:48.848:1,-0.065,-0.745
00:32:48.852:1,0.315,-0.61
00:32:48.856:1,0.5,-0.375
00:32:48.860:1,0.56,-0.225
00:32:48.864:1,0.62,-0.09
00:32:48.868:1,0.58,-0.08
00:32:48.872:1,0.505,0.065
00:32:48.876:1,0.49,0.26
00:32:48.880:1,0.55,0.34
00:32:48.884:1,0.565,0.405
00:32:48.888:1,0.56,0.445
00:32:48.892:1,0.515,0.44
00:32:48.896:1,0.445,0.36
00:32:48.900:1,0.4,0.135
00:32:48.904:1,0.415,0.05
00:32:48.908:1,0.45,0.025
00:32:48.912:1,0.475,-0.1
00:32:48.916:1,0.525,-0.235
00:32:48.920:1,0.56,-0.125
00:32:48.924:1,0.595,0.0
00:32:48.928:1,0.54,0.075
00:32:48.932:1,0.58,0.085
00:32:48.936:1,0.565,0.085
00:32:48.940:1,0.58,0.075
00:32:48.944:1,0.655,0.005
00:32:48.948:1,0.78,0.045
00:32:48.952:1,0.885,0.115
00:32:48.956:1,0.95,0.1
00:32:48.960:1,1.005,0.015
00:32:48.964:1,1.1,-0.1
00:32:48.968:1,1.085,-0.065
00:32:48.972:1,0.935,0.08
00:32:48.976:1,0.77,0.175
00:32:48.980:1,0.68,0.135
00:32:48.984:1,0.615,0.02
00:32:48.988:1,0.545,-0.12
00:32:48.992:1,0.555,-0.105
00:32:48.996:1,0.585,-0.065
00:32:49.000:1,0.58,-0.07
00:32:49.004:1,0.635,-0.175
00:32:49.008:1,0.685,-0.18
00:32:49.012:1,0.68,-0.2
00:32:49.016:1,0.675,-0.29
00:32:49.020:1,0.71,-0.365
00:32:49.024:1,0.72,-0.41
00:32:49.028:1,0.695,-0.405
00:32:49.032:1,0.675,-0.345
00:32:49.036:1,0.64,-0.3
00:32:49.040:1,0.635,-0.24
00:32:49.044:1,0.6,-0.22
00:32:49.048:1,0.535,-0.21
00:32:49.052:1,0.505,-0.225
00:32:49.056:1,0.515,-0.175
00:32:49.060:1,0.495,-0.165
00:32:49.064:1,0.495,-0.22
00:32:49.068:1,0.545,-0.14
00:32:49.072:1,0.585,-0.06
00:32:49.076:1,0.53,-0.08
00:32:49.080:1,0.47,-0.115
00:32:49.084:1,0.38,-0.1
00:32:49.088:1,0.3,-0.05
00:32:49.092:1,0.29,-0.085
00:32:49.096:1,0.29,-0.025
00:32:49.100:1,0.345,0.025
00:32:49.104:1,0.395,0.135
00:32:49.108:1,0.39,0.2
00:32:49.112:1,0.34,0.165
00:32:49.116:1,0.26,0.135
00:32:49.120:1,0.24,0.01
00:32:49.124:1,0.215,-0.19
00:32:49.128:1,0.21,-0.385
00:32:49.132:1,0.235,-0.415
00:32:49.136:1,0.325,-0.315
00:32:49.140:1,0.385,-0.21
00:32:49.144:1,0.325,-0.135
00:32:49.148:1,0.18,-0.06
00:32:49.152:1,0.07,-0.025
00:32:49.156:1,0.04,-0.01
00:32:49.160:1,0.07,-0.02
00:32:49.164:1,0.095,-0.05
00:32:49.168:1,0.115,0.0
00:32:49.172:1,0.155,-0.06
00:32:49.176:1,0.165,-0.065
00:32:49.180:1,0.195,-0.055
00:32:49.184:1,0.215,-0.07
00:32:49.188:1,0.215,-0.07
00:32:49.192:1,0.195,-0.11
00:32:49.196:1,0.125,-0.185
00:32:49.200:1,0.13,-0.205
00:32:49.204:1,0.17,-0.225
00:32:49.208:1,0.23,-0.21
00:32:49.212:1,0.235,-0.125
00:32:49.216:1,0.205,-0.01
00:32:49.220:1,0.265,-0.015
00:32:49.224:1,0.34,-0.04
00:32:49.228:1,0.355,-0.17
00:32:49.232:1,0.38,-0.195
00:32:49.236:1,0.29,-0.23
00:32:49.240:1,0.22,-0.17
00:32:49.244:1,0.085,-0.195
00:32:49.248:1,0.05,-0.355
00:32:49.252:1,0.06,-0.4
00:32:49.256:1,0.1,-0.355
00:32:49.260:1,0.12,-0.37
00:32:49.264:1,0.135,-0.355
00:32:49.268:1,0.13,-0.35
00:32:49.272:1,0.14,-0.35
00:32:49.276:1,0.16,-0.32
00:32:49.280:1,0.175,-0.355
00:32:49.284:1,0.18,-0.37
00:32:49.288:1,0.205,-0.365
00:32:49.292:1,0.185,-0.3
00:32:49.296:1,0.2,-0.19
00:32:49.300:1,0.27,-0.17
00:32:49.304:1,0.34,-0.165
00:32:49.308:1,0.26,-0.155
00:32:49.312:1,0.1,-0.18
00:32:49.316:1,0.1,-0.19
00:32:49.320:1,0.155,-0.215
00:32:49.324:1,0.105,-0.21
00:32:49.328:1,-0.295,-0.09
00:32:49.332:1,-0.945,0.41
00:32:49.336:1,-1.67,1.125
00:32:49.340:1,-2.145,1.84
00:32:49.344:1,-2.39,2.45
00:32:49.348:1,-2.5,2.325
00:32:49.352:1,-2.425,1.42
00:32:49.356:1,-2.3,0.345
00:32:49.360:1,-1.96,-0.08
00:32:49.364:1,-1.425,-0.175
00:32:49.368:1,-0.955,-0.57
00:32:49.372:1,-0.67,-0.61
00:32:49.376:1,-0.34,-0.64
00:32:49.380:1,-0.03,-0.79
00:32:49.384:1,0.235,-0.685
00:32:49.388:1,0.345,-0.59
00:32:49.392:1,0.34,-0.445
00:32:49.396:1,0.38,-0.29
00:32:49.400:1,0.395,-0.21
00:32:49.404:1,0.44,-0.14
00:32:49.408:1,0.46,-0.04
00:32:49.412:1,0.515,0.005
00:32:49.416:1,0.575,0.04
00:32:49.420:1,0.67,0.07
00:32:49.424:1,0.765,0.025
00:32:49.428:1,0.78,0.075
00:32:49.432:1,0.84,0.19
00:32:49.436:1,0.875,0.26
00:32:49.440:1,0.715,0.34
00:32:49.444:1,0.405,0.365
00:32:49.448:1,0.175,0.415
00:32:49.452:1,0.155,0.27
00:32:49.456:1,0.29,0.085
00:32:49.460:1,0.37,-0.08
00:32:49.464:1,0.37,-0.24
00:32:49.468:1,0.425,-0.34
00:32:49.472:1,0.46,-0.28
00:32:49.476:1,0.495,-0.195
00:32:49.480:1,0.525,-0.16
00:32:49.484:1,0.595,-0.095
00:32:49.488:1,0.6,-0.155
00:32:49.492:1,0.61,-0.28
00:32:49.496:1,0.605,-0.345
00:32:49.500:1,0.62,-0.365
00:32:49.504:1,0.615,-0.285
00:32:49.508:1,0.63,-0.25
00:32:49.512:1,0.645,-0.28
00:32:49.516:1,0.67,-0.275
00:32:49.520:1,0.7,-0.28
00:32:49.524:1,0.575,-0.26
00:32:49.528:1,0.51,-0.28
00:32:49.532:1,0.62,-0.345
00:32:49.536:1,0.63,-0.365
00:32:49.540:1,0.555,-0.385
00:32:49.544:1,0.475,-0.37
00:32:49.548:1,0.455,-0.34
00:32:49.552:1,0.42,-0.34
00:32:49.556:1,0.495,-0.45
00:32:49.560:1,0.595,-0.505
00:32:49.564:1,0.57,-0.43
00:32:49.568:1,0.385,-0.495
00:32:49.572:1,0.19,-0.665
00:32:49.576:1,0.095,-0.685
00:32:49.580:1,0.05,-0.6
00:32:49.584:1,0.065,-0.535
00:32:49.588:1,0.1,-0.495
00:32:49.592:1,0.16,-0.445
00:32:49.596:1,0.17,-0.345
00:32:49.600:1,0.155,-0.27
00:32:49.604:1,0.17,-0.2
00:32:49.608:1,0.165,-0.16
00:32:49.612:1,0.155,-0.1
00:32:49.616:1,0.165,-0.055
00:32:49.620:1,0.17,-0.11
00:32:49.624:1,0.23,-0.195
00:32:49.628:1,0.3,-0.12
00:32:49.632:1,0.215,-0.015
00:32:49.636:1,0.125,-0.02
00:32:49.640:1,0.1,-0.075
00:32:49.644:1,0.13,-0.035
00:32:49.648:1,0.145,0.09
00:32:49.652:1,0.29,-0.08
00:32:49.656:1,0.515,-0.29
00:32:49.660:1,0.595,-0.37
00:32:49.664:1,0.46,-0.35
00:32:49.668:1,0.095,-0.325
00:32:49.672:1,-0.185,-0.27
00:32:49.676:1,-0.18,-0.21
00:32:49.680:1,-0.03,-0.145
00:32:49.684:1,0.0,-0.145
00:32:49.688:1,-0.035,-0.165
00:32:49.692:1,-0.045,-0.145
00:32:49.696:1,-0.02,-0.105
00:32:49.700:1,-0.045,-0.16
00:32:49.704:1,-0.02,-0.21
00:32:49.708:1,0.0,-0.24
00:32:49.712:1,-0.015,-0.19
00:32:49.716:1,0.05,-0.17
00:32:49.720:1,0.08,-0.145
00:32:49.724:1,0.18,-0.085
00:32:49.728:1,0.205,-0.08
00:32:49.732:1,0.06,-0.06
00:32:49.736:1,-0.09,-0.005
00:32:49.740:1,-0.11,-0.065
00:32:49.744:1,-0.045,-0.185
00:32:49.748:1,0.015,-0.35
00:32:49.752:1,0.09,-0.435
00:32:49.756:1,0.07,-0.4
00:32:49.760:1,0.05,-0.345
00:32:49.764:1,0.1,-0.3
00:32:49.768:1,0.09,-0.33
00:32:49.772:1,0.045,-0.38
00:32:49.776:1,0.03,-0.365
00:32:49.780:1,0.14,-0.37
00:32:49.784:1,0.22,-0.34
00:32:49.788:1,0.215,-0.325
00:32:49.792:1,0.045,-0.31
00:32:49.796:1,-0.11,-0.29
00:32:49.800:1,-0.24,-0.295
00:32:49.804:1,-0.305,-0.325
00:32:49.808:1,-0.265,-0.36
00:32:49.812:1,-0.16,-0.37
00:32:49.816:1,-0.125,-0.425
00:32:49.820:1,-0.105,-0.44
00:32:49.824:1,-0.08,-0.355
00:32:49.828:1,-0.065,-0.19
00:32:49.832:1,-0.075,-0.17
00:32:49.836:1,-0.07,-0.37
00:32:49.840:1,-0.07,-0.495
00:32:49.844:1,-0.025,-0.52
00:32:49.848:1,-0.04,-0.47
00:32:49.852:1,0.005,-0.485
00:32:49.856:1,0.075,-0.48
00:32:49.860:1,-0.085,-0.47
00:32:49.864:1,-0.64,-0.395
00:32:49.868:1,-1.34,-0.16
00:32:49.872:1,-1.955,0.32
00:32:49.876:1,-2.37,0.945
00:32:49.880:1,-2.62,1.45
00:32:49.884:1,-2.605,1.425
00:32:49.888:1,-2.445,0.875
00:32:49.892:1,-2.26,0.115
00:32:49.896:1,-2.075,-0.195
00:32:49.900:1,-1.845,-0.125
00:32:49.904:1,-1.565,-0.35
00:32:49.908:1,-1.13,-0.815
00:32:49.912:1,-0.61,-0.69
00:32:49.916:1,-0.305,-0.565
00:32:49.920:1,-0.21,-0.36
00:32:49.924:1,-0.16,-0.235
00:32:49.928:1,-0.11,-0.065
00:32:49.932:1,-0.005,0.06
00:32:49.936:1,0.095,0.0
00:32:49.940:1,0.17,-0.17
00:32:49.944:1,0.21,-0.215
00:32:49.948:1,0.255,-0.15
00:32:49.952:1,0.275,-0.14
00:32:49.956:1,0.27,-0.195
00:32:49.960:1,0.3,-0.26
00:32:49.964:1,0.31,-0.18
00:32:49.968:1,0.335,-0.045
00:32:49.972:1,0.395,0.065
00:32:49.976:1,0.415,0.08
00:32:49.980:1,0.445,0.05
00:32:49.984:1,0.5,0.035
00:32:49.988:1,0.575,-0.005
00:32:49.992:1,0.6,-0.025
00:32:49.996:1,0.625,-0.095
00:32:50.000:1,0.725,-0.12
00:32:50.004:1,0.63,-0.08
00:32:50.008:1,0.44,-0.09
00:32:50.012:1,0.385,-0.095
00:32:50.016:1,0.54,-0.2
00:32:50.020:1,0.525,-0.18
00:32:50.024:1,0.345,-0.115
00:32:50.028:1,0.235,0.015
00:32:50.032:1,0.305,-0.095
00:32:50.036:1,0.37,-0.295
00:32:50.040:1,0.43,-0.385
00:32:50.044:1,0.46,-0.325
00:32:50.048:1,0.495,-0.305
00:32:50.052:1,0.55,-0.375
00:32:50.056:1,0.565,-0.435
00:32:50.060:1,0.615,-0.48
00:32:50.064:1,0.635,-0.485
00:32:50.068:1,0.55,-0.435
00:32:50.072:1,0.48,-0.415
00:32:50.076:1,0.57,-0.44
00:32:50.080:1,0.645,-0.42
00:32:50.084:1,0.585,-0.395
00:32:50.088:1,0.555,-0.31
00:32:50.092:1,0.63,-0.315
00:32:50.096:1,0.675,-0.385
00:32:50.100:1,0.485,-0.335
00:32:50.104:1,0.235,-0.32
00:32:50.108:1,0.155,-0.41
00:32:50.112:1,0.145,-0.375
00:32:50.116:1,0.12,-0.28
00:32:50.120:1,0.085,-0.23
00:32:50.124:1,0.035,-0.13
00:32:50.128:1,0.055,-0.085
00:32:50.132:1,0.065,-0.095
00:32:50.136:1,0.14,-0.14
00:32:50.140:1,0.195,-0.2
00:32:50.144:1,0.175,-0.14
00:32:50.148:1,0.09,-0.08
00:32:50.152:1,0.07,-0.095
00:32:50.156:1,0.095,-0.13
00:32:50.160:1,0.14,-0.1
00:32:50.164:1,0.12,-0.145
00:32:50.168:1,0.1,-0.29
00:32:50.172:1,0.08,-0.36
00:32:50.176:1,0.17,-0.405
00:32:50.180:1,0.235,-0.425
00:32:50.184:1,0.15,-0.41
00:32:50.188:1,0.09,-0.4
00:32:50.192:1,0.165,-0.35
00:32:50.196:1,0.2,-0.38
00:32:50.200:1,0.075,-0.405
00:32:50.204:1,-0.045,-0.39
00:32:50.208:1,-0.16,-0.39
00:32:50.212:1,-0.16,-0.36
00:32:50.216:1,-0.1,-0.445
00:32:50.220:1,-0.015,-0.425
00:32:50.224:1,0.035,-0.385
00:32:50.228:1,0.1,-0.36
00:32:50.232:1,0.115,-0.255
00:32:50.236:1,0.075,-0.205
00:32:50.240:1,-0.005,-0.27
00:32:50.244:1,0.005,-0.275
00:32:50.248:1,0.015,-0.21
00:32:50.252:1,-0.045,-0.17
00:32:50.256:1,-0.04,-0.3
00:32:50.260:1,0.005,-0.59
00:32:50.264:1,0.02,-0.7
00:32:50.268:1,0.025,-0.67
00:32:50.272:1,-0.035,-0.565
00:32:50.276:1,-0.11,-0.565
00:32:50.280:1,-0.21,-0.64
00:32:50.284:1,-0.23,-0.62
00:32:50.288:1,-0.21,-0.52
00:32:50.292:1,-0.15,-0.415
00:32:50.296:1,-0.08,-0.32
00:32:50.300:1,-0.345,-0.34
00:32:50.304:1,-1.015,-0.185
00:32:50.308:1,-1.815,0.27
00:32:50.312:1,-2.29,0.91
00:32:50.316:1,-2.52,1.53
00:32:50.320:1,-2.58,1.71
00:32:50.324:1,-2.59,1.165
00:32:50.328:1,-2.545,0.245
00:32:50.332:1,-2.37,-0.345
00:32:50.336:1,-1.93,-0.455
00:32:50.340:1,-1.47,-0.53
00:32:50.344:1,-1.08,-0.92
00:32:50.348:1,-0.67,-0.865
00:32:50.352:1,-0.27,-0.795
00:32:50.356:1,0.075,-0.75
00:32:50.360:1,0.275,-0.63
00:32:50.364:1,0.24,-0.54
00:32:50.368:1,0.17,-0.435
00:32:50.372:1,0.185,-0.325
00:32:50.376:1,0.175,-0.29
00:32:50.380:1,0.22,-0.305
00:32:50.384:1,0.27,-0.28
00:32:50.388:1,0.305,-0.22
00:32:50.392:1,0.345,-0.19
00:32:50.396:1,0.44,-0.205
00:32:50.400:1,0.505,-0.29
00:32:50.404:1,0.515,-0.27
00:32:50.408:1,0.5,-0.28
00:32:50.412:1,0.34,-0.275
00:32:50.416:1,0.26,-0.315
00:32:50.420:1,0.255,-0.135
00:32:50.424:1,0.34,-0.105
00:32:50.428:1,0.315,-0.265
00:32:50.432:1,0.23,-0.37
00:32:50.436:1,0.17,-0.35
00:32:50.440:1,0.11,-0.385
00:32:50.444:1,0.135,-0.315
00:32:50.448:1,0.195,-0.26
00:32:50.452:1,0.255,-0.27
00:32:50.456:1,0.305,-0.34
00:32:50.460:1,0.275,-0.4
00:32:50.464:1,0.325,-0.405
00:32:50.468:1,0.345,-0.345
00:32:50.472:1,0.335,-0.265
00:32:50.476:1,0.31,-0.26
00:32:50.480:1,0.33,-0.255
00:32:50.484:1,0.35,-0.285
00:32:50.488:1,0.43,-0.29
00:32:50.492:1,0.49,-0.305
00:32:50.496:1,0.38,-0.255
00:32:50.500:1,0.27,-0.18
00:32:50.504:1,0.215,-0.205
00:32:50.508:1,0.14,-0.32
00:32:50.512:1,0.135,-0.435
00:32:50.516:1,0.175,-0.52
00:32:50.520:1,0.155,-0.565
00:32:50.524:1,0.13,-0.505
00:32:50.528:1,0.12,-0.425
00:32:50.532:1,0.085,-0.44
00:32:50.536:1,0.07,-0.385
00:32:50.540:1,0.08,-0.345
00:32:50.544:1,0.115,-0.29
00:32:50.548:1,0.12,-0.33
00:32:50.552:1,0.1,-0.38
00:32:50.556:1,0.125,-0.305
00:32:50.560:1,0.085,-0.32
00:32:50.564:1,0.1,-0.37
00:32:50.568:1,0.085,-0.41
00:32:50.572:1,0.065,-0.345
00:32:50.576:1,0.085,-0.27
00:32:50.580:1,0.115,-0.51
00:32:50.584:1,0.105,-0.76
00:32:50.588:1,0.105,-0.73
00:32:50.592:1,0.12,-0.72
00:32:50.596:1,0.1,-0.655
00:32:50.600:1,0.1,-0.52
00:32:50.604:1,0.045,-0.46
00:32:50.608:1,0.025,-0.48
00:32:50.612:1,0.0,-0.55
00:32:50.616:1,0.045,-0.48
00:32:50.620:1,0.045,-0.475
00:32:50.624:1,0.005,-0.495
00:32:50.628:1,-0.015,-0.49
00:32:50.632:1,-0.02,-0.43
00:32:50.636:1,-0.05,-0.455
00:32:50.640:1,-0.105,-0.455
00:32:50.644:1,-0.095,-0.435
00:32:50.648:1,-0.085,-0.405
00:32:50.652:1,-0.11,-0.4
00:32:50.656:1,-0.12,-0.405
00:32:50.660:1,-0.1,-0.43
00:32:50.664:1,-0.15,-0.495
00:32:50.668:1,-0.18,-0.58
00:32:50.672:1,-0.165,-0.535
00:32:50.676:1,-0.12,-0.42
00:32:50.680:1,-0.12,-0.295
00:32:50.684:1,-0.105,-0.255
00:32:50.688:1,-0.08,-0.335
00:32:50.692:1,-0.06,-0.345
00:32:50.696:1,-0.095,-0.38
00:32:50.700:1,-0.125,-0.37
00:32:50.704:1,-0.105,-0.365
00:32:50.708:1,-0.07,-0.37
00:32:50.712:1,-0.095,-0.415
00:32:50.716:1,-0.145,-0.36
00:32:50.720:1,-0.125,-0.25
00:32:50.724:1,-0.115,-0.295
00:32:50.728:1,-0.12,-0.48
00:32:50.732:1,-0.1,-0.64
00:32:50.736:1,-0.075,-0.585
00:32:50.740:1,-0.085,-0.49
00:32:50.744:1,-0.11,-0.46
00:32:50.748:1,-0.085,-0.545
00:32:50.752:1,-0.085,-0.6
00:32:50.756:1,-0.065,-0.755
00:32:50.760:1,-0.095,-0.83
00:32:50.764:1,-0.085,-0.855
00:32:50.768:1,-0.08,-0.79
00:32:50.772:1,-0.075,-0.715
00:32:50.776:1,-0.11,-0.715
00:32:50.780:1,-0.09,-0.645
00:32:50.784:1,-0.085,-0.64
00:32:50.788:1,-0.05,-0.68
00:32:50.792:1,-0.115,-0.72
00:32:50.796:1,-0.175,-0.75
00:32:50.800:1,-0.155,-0.78
00:32:50.804:1,-0.17,-0.73
00:32:50.808:1,-0.155,-0.605
00:32:50.812:1,-0.11,-0.52
00:32:50.816:1,-0.14,-0.425
00:32:50.820:1,-0.165,-0.475
00:32:50.824:1,-0.19,-0.59
00:32:50.828:1,-0.225,-0.795
00:32:50.832:1,-0.285,-0.885
00:32:50.836:1,-0.305,-0.94
00:32:50.840:1,-0.33,-0.925
00:32:50.844:1,-0.305,-0.94
00:32:50.848:1,-0.215,-0.94
00:32:50.852:1,-0.21,-0.795
00:32:50.856:1,-0.235,-0.76
00:32:50.860:1,-0.23,-0.715
00:32:50.864:1,-0.25,-0.69
00:32:50.868:1,-0.24,-0.685
00:32:50.872:1,-0.25,-0.655
00:32:50.876:1,-0.215,-0.575
00:32:50.880:1,-0.215,-0.57
00:32:50.884:1,-0.24,-0.475
00:32:50.888:1,-0.2,-0.335
00:32:50.892:1,-0.15,-0.17
00:32:50.896:1,-0.135,-0.205
00:32:50.900:1,-0.39,-0.39
00:32:50.904:1,-0.93,-0.5
00:32:50.908:1,-1.505,-0.31
00:32:50.912:1,-2.04,0.1
00:32:50.916:1,-2.37,0.625
00:32:50.920:1,-2.53,1.12
00:32:50.924:1,-2.545,0.92
00:32:50.928:1,-2.495,-0.14
00:32:50.932:1,-2.365,-0.91
00:32:50.936:1,-2.025,-1.12
00:32:50.940:1,-1.465,-1.26
00:32:50.944:1,-1.0,-1.425
00:32:50.948:1,-0.62,-1.22
00:32:50.952:1,-0.315,-1.125
00:32:50.956:1,0.0,-0.95
00:32:50.960:1,0.135,-0.785
00:32:50.964:1,0.175,-0.685
00:32:50.968:1,0.18,-0.505
00:32:50.972:1,0.185,-0.43
00:32:50.976:1,0.225,-0.45
00:32:50.980:1,0.27,-0.545
00:32:50.984:1,0.26,-0.66
00:32:50.988:1,0.25,-0.665
00:32:50.992:1,0.245,-0.62
00:32:50.996:1,0.245,-0.55
00:32:51.000:1,0.255,-0.535
00:32:51.004:1,0.26,-0.49
00:32:51.008:1,0.215,-0.51
00:32:51.012:1,0.23,-0.48
00:32:51.016:1,0.2,-0.465
00:32:51.020:1,0.14,-0.55
00:32:51.024:1,0.125,-0.58
00:32:51.028:1,0.125,-0.585
00:32:51.032:1,0.12,-0.465
00:32:51.036:1,0.125,-0.515
00:32:51.040:1,0.175,-0.525
00:32:51.044:1,0.235,-0.45
00:32:51.048:1,0.23,-0.43
00:32:51.052:1,0.21,-0.405
00:32:51.056:1,0.265,-0.425
00:32:51.060:1,0.27,-0.485
00:32:51.064:1,0.31,-0.55
00:32:51.068:1,0.33,-0.555
00:32:51.072:1,0.315,-0.545
00:32:51.076:1,0.325,-0.44
00:32:51.080:1,0.345,-0.375
00:32:51.084:1,0.375,-0.375
00:32:51.088:1,0.385,-0.48
00:32:51.092:1,0.49,-0.61
00:32:51.096:1,0.49,-0.73
00:32:51.100:1,0.375,-0.645
00:32:51.104:1,0.345,-0.605
00:32:51.108:1,0.39,-0.61
00:32:51.112:1,0.39,-0.59
00:32:51.116:1,0.39,-0.545
00:32:51.120:1,0.385,-0.77
00:32:51.124:1,0.345,-0.945
00:32:51.128:1,0.33,-0.95
00:32:51.132:1,0.305,-0.94
00:32:51.136:1,0.27,-0.875
00:32:51.140:1,0.245,-0.85
00:32:51.144:1,0.195,-0.865
00:32:51.148:1,0.17,-0.955
00:32:51.152:1,0.185,-0.945
00:32:51.156:1,0.125,-0.905
00:32:51.160:1,0.06,-0.87
00:32:51.164:1,0.0,-0.86
00:32:51.168:1,0.0,-0.85
00:32:51.172:1,-0.005,-0.74
00:32:51.176:1,0.01,-0.68
00:32:51.180:1,0.04,-0.66
00:32:51.184:1,0.0,-0.56
00:32:51.188:1,-0.035,-0.475
00:32:51.192:1,-0.03,-0.655
00:32:51.196:1,-0.055,-0.71
00:32:51.200:1,-0.07,-0.68
00:32:51.204:1,-0.055,-0.725
00:32:51.208:1,-0.025,-0.805
00:32:51.212:1,0.02,-0.84
00:32:51.216:1,0.0,-0.705
00:32:51.220:1,-0.04,-0.52
00:32:51.224:1,-0.09,-0.445
00:32:51.228:1,-0.15,-0.545
00:32:51.232:1,-0.155,-0.675
00:32:51.236:1,-0.155,-0.735
00:32:51.240:1,-0.18,-0.735
00:32:51.244:1,-0.13,-0.64
00:32:51.248:1,-0.13,-0.46
00:32:51.252:1,-0.16,-0.425
00:32:51.256:1,-0.165,-0.5
00:32:51.260:1,-0.15,-0.615
00:32:51.264:1,-0.13,-0.695
00:32:51.268:1,-0.125,-0.75
00:32:51.272:1,-0.12,-0.785
00:32:51.276:1,-0.13,-0.8
00:32:51.280:1,-0.135,-0.865
00:32:51.284:1,-0.075,-0.825
00:32:51.288:1,-0.095,-0.73
00:32:51.292:1,-0.115,-0.79
00:32:51.296:1,-0.11,-0.925
00:32:51.300:1,-0.08,-0.985
00:32:51.304:1,-0.1,-1.01
00:32:51.308:1,-0.16,-0.97
00:32:51.312:1,-0.18,-0.985
00:32:51.316:1,-0.13,-1.045
00:32:51.320:1,-0.13,-1.04
00:32:51.324:1,-0.145,-0.955
00:32:51.328:1,-0.175,-0.935
00:32:51.332:1,-0.16,-0.9
00:32:51.336:1,-0.13,-0.91
00:32:51.340:1,-0.09,-0.895
00:32:51.344:1,-0.145,-0.86
00:32:51.348:1,-0.13,-0.92
00:32:51.352:1,-0.17,-1.155
00:32:51.356:1,-0.2,-1.395
00:32:51.360:1,-0.155,-1.38
00:32:51.364:1,-0.145,-1.31
00:32:51.368:1,-0.17,-1.355
00:32:51.372:1,-0.12,-1.37
00:32:51.376:1,-0.065,-1.395
00:32:51.380:1,-0.11,-1.37
00:32:51.384:1,-0.17,-1.38
00:32:51.388:1,-0.14,-1.335
00:32:51.392:1,-0.125,-1.19
00:32:51.396:1,-0.105,-1.155
00:32:51.400:1,-0.12,-1.15
00:32:51.404:1,-0.14,-1.05
00:32:51.408:1,-0.135,-1.02
00:32:51.412:1,-0.11,-1.005
00:32:51.416:1,-0.125,-1.055
00:32:51.420:1,-0.16,-1.045
00:32:51.424:1,-0.145,-0.95
00:32:51.428:1,-0.165,-1.065
00:32:51.432:1,-0.185,-1.12
00:32:51.436:1,-0.1,-1.0
00:32:51.440:1,-0.145,-1.06
00:32:51.444:1,-0.53,-1.11
00:32:51.448:1,-1.185,-0.725
00:32:51.452:1,-1.785,-0.155
00:32:51.456:1,-2.135,0.65
00:32:51.460:1,-2.275,1.34
00:32:51.464:1,-2.31,0.925
00:32:51.468:1,-2.185,-0.21
00:32:51.472:1,-1.985,-1.13
00:32:51.476:1,-2.005,-1.47
00:32:51.480:1,-1.605,-1.505
00:32:51.484:1,-1.035,-1.825
00:32:51.488:1,-0.73,-1.805
00:32:51.492:1,-0.445,-1.725
00:32:51.496:1,-0.13,-1.445
00:32:51.500:1,0.04,-1.265
00:32:51.504:1,0.07,-1.195
00:32:51.508:1,0.05,-1.2
00:32:51.512:1,0.05,-1.31
00:32:51.516:1,0.04,-1.355
00:32:51.520:1,0.025,-1.36
00:32:51.524:1,0.05,-1.25
00:32:51.528:1,0.06,-1.16
00:32:51.532:1,0.075,-1.12
00:32:51.536:1,0.09,-1.135
00:32:51.540:1,0.09,-1.215
00:32:51.544:1,0.15,-1.28
00:32:51.548:1,0.155,-1.305
00:32:51.552:1,0.1,-1.26
00:32:51.556:1,0.13,-1.14
00:32:51.560:1,0.145,-1.14
00:32:51.564:1,0.15,-1.175
00:32:51.568:1,0.19,-1.225
00:32:51.572:1,0.205,-1.29
00:32:51.576:1,0.28,-1.22
00:32:51.580:1,0.255,-1.07
00:32:51.584:1,0.24,-0.995
00:32:51.588:1,0.28,-1.21
00:32:51.592:1,0.315,-1.415
00:32:51.596:1,0.35,-1.46
00:32:51.600:1,0.35,-1.5
00:32:51.604:1,0.335,-1.47
00:32:51.608:1,0.32,-1.41
00:32:51.612:1,0.305,-1.32
00:32:51.616:1,0.35,-1.32
00:32:51.620:1,0.4,-1.325
00:32:51.624:1,0.35,-1.41
00:32:51.628:1,0.315,-1.48
00:32:51.632:1,0.265,-1.555
00:32:51.636:1,0.29,-1.61
00:32:51.640:1,0.305,-1.575
00:32:51.644:1,0.265,-1.565
00:32:51.648:1,0.265,-1.6
00:32:51.652:1,0.275,-1.575
00:32:51.656:1,0.2,-1.59
00:32:51.660:1,0.165,-1.585
00:32:51.664:1,0.07,-1.66
00:32:51.668:1,0.075,-1.71
00:32:51.672:1,0.07,-1.665
00:32:51.676:1,0.06,-1.71
00:32:51.680:1,0.0,-1.75
00:32:51.684:1,0.045,-1.8
00:32:51.688:1,0.005,-1.795
00:32:51.692:1,-0.035,-1.745
00:32:51.696:1,-0.065,-1.665
00:32:51.700:1,-0.05,-1.62
00:32:51.704:1,-0.04,-1.73
00:32:51.708:1,-0.07,-1.83
00:32:51.712:1,-0.08,-1.785
00:32:51.716:1,-0.075,-1.725
00:32:51.720:1,-0.105,-1.67
00:32:51.724:1,-0.08,-1.64
00:32:51.728:1,-0.095,-1.59
00:32:51.732:1,-0.1,-1.59
00:32:51.736:1,-0.11,-1.595
00:32:51.740:1,-0.135,-1.555
00:32:51.744:1,-0.155,-1.5
00:32:51.748:1,-0.14,-1.45
00:32:51.752:1,-0.13,-1.47
00:32:51.756:1,-0.12,-1.45
00:32:51.760:1,-0.14,-1.39
00:32:51.764:1,-0.12,-1.46
00:32:51.768:1,-0.105,-1.565
00:32:51.772:1,-0.075,-1.63
00:32:51.776:1,-0.04,-1.625
00:32:51.780:1,-0.045,-1.56
00:32:51.784:1,-0.045,-1.55
00:32:51.788:1,-0.045,-1.53
00:32:51.792:1,-0.03,-1.52
00:32:51.796:1,-0.04,-1.51
00:32:51.800:1,-0.03,-1.495
00:32:51.804:1,-0.055,-1.525
00:32:51.808:1,-0.08,-1.63
00:32:51.812:1,-0.06,-1.64
00:32:51.816:1,-0.045,-1.585
00:32:51.820:1,-0.06,-1.545
00:32:51.824:1,-0.08,-1.485
00:32:51.828:1,-0.08,-1.415
00:32:51.832:1,-0.01,-1.415
00:32:51.836:1,-0.3,-1.52
00:32:51.840:1,-0.99,-1.405
00:32:51.844:1,-1.665,-1.04
00:32:51.848:1,-2.165,-0.515
00:32:51.852:1,-2.335,-0.3
00:32:51.856:1,-2.47,-0.04
00:32:51.860:1,-2.485,-0.02
00:32:51.864:1,-2.425,-0.65
00:32:51.868:1,-2.39,-1.51
00:32:51.872:1,-2.165,-1.865
00:32:51.876:1,-1.67,-1.965
00:32:51.880:1,-1.195,-2.275
00:32:51.884:1,-0.705,-2.195
00:32:51.888:1,-0.28,-2.05
00:32:51.892:1,0.0,-1.9
00:32:51.896:1,0.095,-1.815
00:32:51.900:1,0.11,-1.75
00:32:51.904:1,0.08,-1.56
00:32:51.908:1,0.095,-1.495
00:32:51.912:1,0.12,-1.475
00:32:51.916:1,0.095,-1.425
00:32:51.920:1,0.105,-1.37
00:32:51.924:1,0.115,-1.285
00:32:51.928:1,0.075,-1.315
00:32:51.932:1,0.115,-1.27
00:32:51.936:1,0.09,-1.16
00:32:51.940:1,0.125,-1.285
00:32:51.944:1,0.21,-1.5
00:32:51.948:1,0.17,-1.615
00:32:51.952:1,0.125,-1.675
00:32:51.956:1,0.09,-1.6
00:32:51.960:1,0.12,-1.52
00:32:51.964:1,0.155,-1.585
00:32:51.968:1,0.165,-1.6
00:32:51.972:1,0.19,-1.505
00:32:51.976:1,0.195,-1.46
00:32:51.980:1,0.25,-1.455
00:32:51.984:1,0.26,-1.555
00:32:51.988:1,0.275,-1.61
00:32:51.992:1,0.285,-1.64
00:32:51.996:1,0.29,-1.61
00:32:52.000:1,0.28,-1.58
00:32:52.004:1,0.365,-1.55
00:32:52.008:1,0.365,-1.565
00:32:52.012:1,0.33,-1.595
00:32:52.016:1,0.305,-1.54
00:32:52.020:1,0.27,-1.435
00:32:52.024:1,0.235,-1.405
00:32:52.028:1,0.265,-1.6
00:32:52.032:1,0.27,-1.855
00:32:52.036:1,0.22,-1.9
00:32:52.040:1,0.155,-1.725
00:32:52.044:1,0.18,-1.575
00:32:52.048:1,0.16,-1.69
00:32:52.052:1,0.195,-1.835
00:32:52.056:1,0.105,-1.92
00:32:52.060:1,0.035,-1.97
00:32:52.064:1,0.045,-2.0
00:32:52.068:1,0.025,-1.99
00:32:52.072:1,-0.02,-1.97
00:32:52.076:1,-0.015,-1.955
00:32:52.080:1,0.02,-1.895
00:32:52.084:1,-0.01,-1.845
00:32:52.088:1,-0.02,-1.785
00:32:52.092:1,-0.025,-1.755
00:32:52.096:1,-0.045,-1.775
00:32:52.100:1,-0.04,-1.84
00:32:52.104:1,-0.04,-1.795
00:32:52.108:1,-0.01,-1.795
00:32:52.112:1,0.0,-1.71
00:32:52.116:1,-0.01,-1.68
00:32:52.120:1,-0.025,-1.79
00:32:52.124:1,0.0,-1.855
00:32:52.128:1,-0.04,-1.855
00:32:52.132:1,-0.07,-1.9
00:32:52.136:1,-0.085,-1.875
00:32:52.140:1,-0.095,-1.805
00:32:52.144:1,-0.035,-1.805
00:32:52.148:1,-0.05,-1.915
00:32:52.152:1,-0.075,-2.045
00:32:52.156:1,-0.06,-1.98
00:32:52.160:1,-0.015,-1.95
00:32:52.164:1,-0.07,-1.9
00:32:52.168:1,-0.065,-1.91
00:32:52.172:1,-0.08,-1.97
00:32:52.176:1,-0.055,-1.97
00:32:52.180:1,-0.055,-1.945
00:32:52.184:1,0.0,-1.92
00:32:52.188:1,-0.02,-1.84
00:32:52.192:1,-0.035,-1.695
00:32:52.196:1,-0.02,-1.67
00:32:52.200:1,-0.035,-1.925
00:32:52.204:1,-0.04,-2.05
00:32:52.208:1,-0.075,-1.795
00:32:52.212:1,-0.12,-1.525
00:32:52.216:1,-0.12,-1.655
00:32:52.220:1,-0.015,-2.05
00:32:52.224:1,0.01,-2.28
00:32:52.228:1,-0.03,-2.32
00:32:52.232:1,-0.085,-2.215
00:32:52.236:1,-0.095,-2.105
00:32:52.240:1,-0.13,-2.025
00:32:52.244:1,-0.095,-1.975
00:32:52.248:1,-0.155,-1.97
00:32:52.252:1,-0.135,-1.995
00:32:52.256:1,-0.13,-2.03
00:32:52.260:1,-0.105,-2.035
00:32:52.264:1,-0.115,-2.06
00:32:52.268:1,-0.125,-2.045
00:32:52.272:1,-0.13,-1.98
00:32:52.276:1,-0.13,-1.875
00:32:52.280:1,-0.175,-1.85
00:32:52.284:1,-0.18,-1.94
00:32:52.288:1,-0.2,-1.92
00:32:52.292:1,-0.14,-1.935
00:32:52.296:1,-0.13,-1.93
00:32:52.300:1,-0.145,-1.995
00:32:52.304:1,-0.145,-2.14
00:32:52.308:1,-0.18,-2.19
00:32:52.312:1,-0.17,-2.22
00:32:52.316:1,-0.175,-2.21
00:32:52.320:1,-0.175,-2.125
00:32:52.324:1,-0.2,-2.035
00:32:52.328:1,-0.185,-2.03
00:32:52.332:1,-0.185,-1.975
00:32:52.336:1,-0.165,-1.98
00:32:52.340:1,-0.495,-2.09
00:32:52.344:1,-1.145,-1.995
00:32:52.348:1,-1.86,-1.695
00:32:52.352:1,-2.305,-1.155
00:32:52.356:1,-2.43,-0.485
00:32:52.360:1,-2.385,-0.265
00:32:52.364:1,-2.355,-0.685
00:32:52.368:1,-2.345,-1.58
00:32:52.372:1,-2.41,-2.235
00:32:52.376:1,-2.035,-2.435
00:32:52.380:1,-1.525,-2.505
00:32:52.384:1,-0.985,-2.54
00:32:52.388:1,-0.465,-2.3
00:32:52.392:1,-0.09,-2.255
00:32:52.396:1,0.15,-2.285
00:32:52.400:1,0.245,-2.295
00:32:52.404:1,0.24,-2.175
00:32:52.408:1,0.2,-2.025
00:32:52.412:1,0.185,-1.97
00:32:52.416:1,0.22,-2.025
00:32:52.420:1,0.25,-1.975
00:32:52.424:1,0.26,-1.995
00:32:52.428:1,0.245,-1.95
00:32:52.432:1,0.225,-1.855
00:32:52.436:1,0.23,-1.725
00:32:52.440:1,0.235,-1.675
00:32:52.444:1,0.235,-1.625
00:32:52.448:1,0.255,-1.575
00:32:52.452:1,0.23,-1.725
00:32:52.456:1,0.275,-1.96
00:32:52.460:1,0.285,-2.085
00:32:52.464:1,0.28,-2.075
00:32:52.468:1,0.29,-2.14
00:32:52.472:1,0.265,-2.135
00:32:52.476:1,0.275,-1.97
00:32:52.480:1,0.3,-1.995
00:32:52.484:1,0.305,-2.08
00:32:52.488:1,0.315,-2.205
00:32:52.492:1,0.345,-2.17
00:32:52.496:1,0.35,-2.115
00:32:52.500:1,0.34,-2.05
00:32:52.504:1,0.37,-2.04
00:32:52.508:1,0.33,-2.08
00:32:52.512:1,0.36,-2.1
00:32:52.516:1,0.38,-2.08
00:32:52.520:1,0.38,-2.045
00:32:52.524:1,0.39,-1.925
00:32:52.528:1,0.46,-1.865
00:32:52.532:1,0.465,-2.01
00:32:52.536:1,0.51,-2.16
00:32:52.540:1,0.53,-2.16
00:32:52.544:1,0.545,-2.09
00:32:52.548:1,0.55,-2.025
00:32:52.552:1,0.555,-2.08
00:32:52.556:1,0.555,-2.175
00:32:52.560:1,0.585,-2.215
00:32:52.564:1,0.55,-2.17
00:32:52.568:1,0.515,-2.035
00:32:52.572:1,0.495,-2.04
00:32:52.576:1,0.515,-2.185
00:32:52.580:1,0.455,-2.25
00:32:52.584:1,0.455,-2.31
00:32:52.588:1,0.36,-2.285
00:32:52.592:1,0.35,-2.215
00:32:52.596:1,0.325,-2.015
00:32:52.600:1,0.27,-1.78
00:32:52.604:1,0.29,-1.9
00:32:52.608:1,0.305,-2.13
00:32:52.612:1,0.285,-2.18
00:32:52.616:1,0.225,-2.135
00:32:52.620:1,0.215,-2.15
00:32:52.624:1,0.175,-2.215
00:32:52.628:1,0.145,-2.19
00:32:52.632:1,0.12,-2.12
00:32:52.636:1,0.135,-2.155
00:32:52.640:1,0.075,-2.28
00:32:52.644:1,0.065,-2.27
00:32:52.648:1,0.045,-2.245
00:32:52.652:1,0.025,-2.24
00:32:52.656:1,0.015,-2.245
00:32:52.660:1,0.01,-2.235
00:32:52.664:1,0.01,-2.205
00:32:52.668:1,-0.015,-2.105
00:32:52.672:1,-0.035,-2.075
00:32:52.676:1,-0.005,-2.21
00:32:52.680:1,-0.06,-2.17
00:32:52.684:1,-0.035,-2.08
00:32:52.688:1,-0.035,-2.08
00:32:52.692:1,-0.045,-2.345
00:32:52.696:1,-0.075,-2.485
00:32:52.700:1,-0.07,-2.47
00:32:52.704:1,-0.11,-2.41
00:32:52.708:1,-0.105,-2.33
00:32:52.712:1,-0.065,-2.32
00:32:52.716:1,-0.045,-2.315
00:32:52.720:1,-0.05,-2.325
00:32:52.724:1,-0.03,-2.315
00:32:52.728:1,-0.025,-2.315
00:32:52.732:1,-0.02,-2.3
00:32:52.736:1,-0.03,-2.275
00:32:52.740:1,-0.035,-2.195
00:32:52.744:1,-0.005,-2.125
00:32:52.748:1,0.015,-2.235
00:32:52.752:1,0.055,-2.29
00:32:52.756:1,0.06,-2.235
00:32:52.760:1,0.045,-2.0
00:32:52.764:1,0.055,-1.975
00:32:52.768:1,0.035,-2.11
00:32:52.772:1,0.06,-2.26
00:32:52.776:1,0.075,-2.295
00:32:52.780:1,0.105,-2.4
00:32:52.784:1,0.095,-2.495
00:32:52.788:1,0.04,-2.45
00:32:52.792:1,0.045,-2.395
00:32:52.796:1,0.055,-2.355
00:32:52.800:1,0.04,-2.38
00:32:52.804:1,0.035,-2.4
00:32:52.808:1,0.03,-2.415
00:32:52.812:1,0.005,-2.375
00:32:52.816:1,0.005,-2.355
00:32:52.820:1,0.005,-2.345
00:32:52.824:1,0.04,-2.35
00:32:52.828:1,0.06,-2.28
00:32:52.832:1,0.03,-2.25
00:32:52.836:1,0.015,-2.21
00:32:52.840:1,0.0,-2.11
00:32:52.844:1,-0.05,-2.16
00:32:52.848:1,0.0,-2.245
00:32:52.852:1,-0.03,-2.15
00:32:52.856:1,0.02,-2.22
00:32:52.860:1,0.0,-2.355
00:32:52.864:1,-0.045,-2.45
00:32:52.868:1,-0.075,-2.475
00:32:52.872:1,-0.05,-2.435
00:32:52.876:1,-0.07,-2.385
00:32:52.880:1,-0.42,-2.435
00:32:52.884:1,-1.09,-2.42
00:32:52.888:1,-1.81,-2.25
00:32:52.892:1,-2.265,-1.895
00:32:52.896:1,-2.475,-1.49
00:32:52.900:1,-2.525,-1.24
00:32:52.904:1,-2.5,-1.42
00:32:52.908:1,-2.455,-1.885
00:32:52.912:1,-2.385,-2.32
00:32:52.916:1,-2.075,-2.245
00:32:52.920:1,-1.54,-2.025
00:32:52.924:1,-0.99,-2.34
00:32:52.928:1,-0.565,-2.47
00:32:52.932:1,-0.245,-2.415
00:32:52.936:1,0.045,-2.24
00:32:52.940:1,0.2,-2.245
00:32:52.944:1,0.285,-2.34
00:32:52.948:1,0.305,-2.305
00:32:52.952:1,0.315,-2.37
00:32:52.956:1,0.325,-2.395
00:32:52.960:1,0.31,-2.36
00:32:52.964:1,0.295,-2.305
00:32:52.968:1,0.32,-2.235
00:32:52.972:1,0.345,-2.23
00:32:52.976:1,0.35,-2.21
00:32:52.980:1,0.335,-2.17
00:32:52.984:1,0.35,-2.175
00:32:52.988:1,0.335,-2.19
00:32:52.992:1,0.36,-2.19
00:32:52.996:1,0.385,-2.21
00:32:53.000:1,0.355,-2.165
00:32:53.004:1,0.385,-2.05
00:32:53.008:1,0.355,-1.925
00:32:53.012:1,0.355,-1.77
00:32:53.016:1,0.375,-1.97
00:32:53.020:1,0.445,-2.26
00:32:53.024:1,0.46,-2.385
00:32:53.028:1,0.45,-2.38
00:32:53.032:1,0.445,-2.27
00:32:53.036:1,0.45,-2.205
00:32:53.040:1,0.48,-2.27
00:32:53.044:1,0.51,-2.345
00:32:53.048:1,0.525,-2.325
00:32:53.052:1,0.545,-2.3
00:32:53.056:1,0.535,-2.3
00:32:53.060:1,0.505,-2.285
00:32:53.064:1,0.485,-2.23
00:32:53.068:1,0.525,-2.245
00:32:53.072:1,0.54,-2.28
00:32:53.076:1,0.56,-2.25
00:32:53.080:1,0.535,-2.285
00:32:53.084:1,0.48,-2.14
00:32:53.088:1,0.5,-2.0
00:32:53.092:1,0.545,-2.08
00:32:53.096:1,0.565,-2.16
00:32:53.100:1,0.57,-2.245
00:32:53.104:1,0.58,-2.34
00:32:53.108:1,0.56,-2.38
00:32:53.112:1,0.495,-2.36
00:32:53.116:1,0.45,-2.23
00:32:53.120:1,0.425,-2.145
00:32:53.124:1,0.415,-2.195
00:32:53.128:1,0.4,-2.275
00:32:53.132:1,0.37,-2.28
00:32:53.136:1,0.355,-2.23
00:32:53.140:1,0.345,-2.185
00:32:53.144:1,0.3,-2.155
00:32:53.148:1,0.33,-2.195
00:32:53.152:1,0.335,-2.145
00:32:53.156:1,0.325,-2.185
00:32:53.160:1,0.29,-2.205
00:32:53.164:1,0.295,-2.19
00:32:53.168:1,0.275,-2.205
00:32:53.172:1,0.27,-2.2
00:32:53.176:1,0.23,-2.195
00:32:53.180:1,0.215,-2.095
00:32:53.184:1,0.19,-1.82
00:32:53.188:1,0.225,-1.95
00:32:53.192:1,0.205,-2.255
00:32:53.196:1,0.23,-2.35
00:32:53.200:1,0.23,-2.33
00:32:53.204:1,0.2,-2.275
00:32:53.208:1,0.21,-2.185
00:32:53.212:1,0.215,-2.13
00:32:53.216:1,0.175,-2.14
00:32:53.220:1,0.14,-2.16
00:32:53.224:1,0.15,-2.295
00:32:53.228:1,0.115,-2.325
00:32:53.232:1,0.13,-2.335
00:32:53.236:1,0.12,-2.31
00:32:53.240:1,0.11,-2.265
00:32:53.244:1,0.12,-2.27
00:32:53.248:1,0.12,-2.245
00:32:53.252:1,0.11,-2.225
00:32:53.256:1,0.07,-2.2
00:32:53.260:1,0.04,-2.195
00:32:53.264:1,0.035,-2.225
00:32:53.268:1,0.005,-2.13
00:32:53.272:1,0.01,-2.02
00:32:53.276:1,0.025,-2.07
00:32:53.280:1,0.01,-2.14
00:32:53.284:1,0.055,-2.265
00:32:53.288:1,0.085,-2.34
00:32:53.292:1,0.12,-2.37
00:32:53.296:1,0.12,-2.285
00:32:53.300:1,0.09,-2.27
00:32:53.304:1,0.055,-2.215
00:32:53.308:1,0.025,-2.165
00:32:53.312:1,0.105,-2.125
00:32:53.316:1,0.13,-2.15
00:32:53.320:1,0.105,-2.155
00:32:53.324:1,0.095,-2.115
00:32:53.328:1,0.09,-2.055
00:32:53.332:1,0.105,-2.05
00:32:53.336:1,0.13,-2.045
00:32:53.340:1,-0.13,-2.08
00:32:53.344:1,-0.58,-2.055
00:32:53.348:1,-1.125,-1.955
00:32:53.352:1,-1.69,-1.67
00:32:53.356:1,-1.985,-1.03
00:32:53.360:1,-2.1,-0.455
00:32:53.364:1,-2.03,-0.69
00:32:53.368:1,-1.92,-1.4
00:32:53.372:1,-1.87,-1.895
00:32:53.376:1,-1.46,-1.95
00:32:53.380:1,-0.885,-2.165
00:32:53.384:1,-0.53,-2.335
00:32:53.388:1,-0.305,-2.34
00:32:53.392:1,-0.08,-2.29
00:32:53.396:1,0.17,-2.225
00:32:53.400:1,0.33,-2.185
00:32:53.404:1,0.325,-2.175
00:32:53.408:1,0.31,-2.11
00:32:53.412:1,0.28,-2.07
00:32:53.416:1,0.28,-2.07
00:32:53.420:1,0.305,-2.075
00:32:53.424:1,0.325,-2.085
00:32:53.428:1,0.345,-2.06
00:32:53.432:1,0.35,-2.0
00:32:53.436:1,0.35,-1.965
00:32:53.440:1,0.305,-1.985
00:32:53.444:1,0.335,-1.975
00:32:53.448:1,0.315,-1.935
00:32:53.452:1,0.33,-1.885
00:32:53.456:1,0.32,-1.825
00:32:53.460:1,0.335,-1.68
00:32:53.464:1,0.355,-1.495
00:32:53.468:1,0.365,-1.51
00:32:53.472:1,0.405,-1.845
00:32:53.476:1,0.46,-2.075
00:32:53.480:1,0.495,-2.06
00:32:53.484:1,0.5,-1.995
00:32:53.488:1,0.48,-1.985
00:32:53.492:1,0.48,-2.015
00:32:53.496:1,0.485,-1.94
00:32:53.500:1,0.525,-1.91
00:32:53.504:1,0.58,-1.905
00:32:53.508:1,0.57,-1.915
00:32:53.512:1,0.605,-1.875
00:32:53.516:1,0.6,-1.895
00:32:53.520:1,0.58,-1.92
00:32:53.524:1,0.535,-1.955
00:32:53.528:1,0.51,-1.945
00:32:53.532:1,0.535,-1.925
00:32:53.536:1,0.56,-1.87
00:32:53.540:1,0.51,-1.805
00:32:53.544:1,0.485,-1.655
00:32:53.548:1,0.465,-1.4
00:32:53.552:1,0.475,-1.41
00:32:53.556:1,0.505,-1.83
00:32:53.560:1,0.47,-2.03
00:32:53.564:1,0.45,-2.015
00:32:53.568:1,0.405,-1.985
00:32:53.572:1,0.38,-1.985
00:32:53.576:1,0.345,-2.055
00:32:53.580:1,0.305,-2.05
00:32:53.584:1,0.29,-2.005
00:32:53.588:1,0.265,-1.975
00:32:53.592:1,0.27,-1.91
00:32:53.596:1,0.245,-1.875
00:32:53.600:1,0.205,-1.88
00:32:53.604:1,0.195,-1.885
00:32:53.608:1,0.2,-1.89
00:32:53.612:1,0.215,-1.895
00:32:53.616:1,0.205,-1.89
00:32:53.620:1,0.195,-1.86
00:32:53.624:1,0.195,-1.84
00:32:53.628:1,0.205,-1.825
00:32:53.632:1,0.21,-1.815
00:32:53.636:1,0.17,-1.825
00:32:53.640:1,0.13,-1.825
00:32:53.644:1,0.135,-1.81
00:32:53.648:1,0.115,-1.715
00:32:53.652:1,0.115,-1.54
00:32:53.656:1,0.14,-1.41
00:32:53.660:1,0.195,-1.605
00:32:53.664:1,0.24,-1.83
00:32:53.668:1,0.245,-1.89
00:32:53.672:1,0.215,-1.82
00:32:53.676:1,0.215,-1.795
00:32:53.680:1,0.195,-1.79
00:32:53.684:1,0.18,-1.78
00:32:53.688:1,0.16,-1.835
00:32:53.692:1,0.18,-1.83
00:32:53.696:1,0.22,-1.795
00:32:53.700:1,0.205,-1.775
00:32:53.704:1,0.19,-1.745
00:32:53.708:1,0.195,-1.74
00:32:53.712:1,0.195,-1.76
00:32:53.716:1,0.17,-1.765
00:32:53.720:1,0.135,-1.76
00:32:53.724:1,0.14,-1.74
00:32:53.728:1,0.135,-1.735
00:32:53.732:1,0.125,-1.745
00:32:53.736:1,0.125,-1.715
00:32:53.740:1,0.095,-1.685
00:32:53.744:1,0.105,-1.68
00:32:53.748:1,0.1,-1.645
00:32:53.752:1,0.115,-1.62
00:32:53.756:1,0.11,-1.745
00:32:53.760:1,0.095,-1.78
00:32:53.764:1,0.11,-1.73
00:32:53.768:1,0.075,-1.565
00:32:53.772:1,0.08,-1.465
00:32:53.776:1,0.105,-1.565
00:32:53.780:1,0.125,-1.785
00:32:53.784:1,0.13,-1.855
00:32:53.788:1,0.085,-1.83
00:32:53.792:1,0.08,-1.795
00:32:53.796:1,0.1,-1.775
00:32:53.800:1,0.095,-1.74
00:32:53.804:1,0.08,-1.76
00:32:53.808:1,0.11,-1.84
00:32:53.812:1,0.11,-1.825
00:32:53.816:1,0.095,-1.825
00:32:53.820:1,0.045,-1.79
00:32:53.824:1,0.02,-1.755
00:32:53.828:1,0.03,-1.745
00:32:53.832:1,0.025,-1.76
00:32:53.836:1,0.015,-1.71
00:32:53.840:1,0.055,-1.705
00:32:53.844:1,0.1,-1.67
00:32:53.848:1,0.13,-1.66
00:32:53.852:1,-0.165,-1.625
00:32:53.856:1,-0.685,-1.47
00:32:53.860:1,-1.32,-1.19
00:32:53.864:1,-1.75,-0.705
00:32:53.868:1,-1.925,-0.11
00:32:53.872:1,-1.94,0.12
00:32:53.876:1,-1.89,-0.405
00:32:53.880:1,-1.78,-1.1
00:32:53.884:1,-1.605,-1.585
00:32:53.888:1,-1.17,-1.72
00:32:53.892:1,-0.69,-1.86
00:32:53.896:1,-0.425,-1.88
00:32:53.900:1,-0.265,-1.76
00:32:53.904:1,0.015,-1.8
00:32:53.908:1,0.24,-1.815
00:32:53.912:1,0.345,-1.815
00:32:53.916:1,0.405,-1.73
00:32:53.920:1,0.385,-1.615
00:32:53.924:1,0.465,-1.575
00:32:53.928:1,0.44,-1.57
00:32:53.932:1,0.405,-1.535
00:32:53.936:1,0.425,-1.525
00:32:53.940:1,0.445,-1.52
00:32:53.944:1,0.41,-1.515
00:32:53.948:1,0.395,-1.525
00:32:53.952:1,0.385,-1.48
00:32:53.956:1,0.42,-1.485
00:32:53.960:1,0.43,-1.485
00:32:53.964:1,0.45,-1.45
00:32:53.968:1,0.45,-1.435
00:32:53.972:1,0.46,-1.435
00:32:53.976:1,0.415,-1.42
00:32:53.980:1,0.385,-1.38
00:32:53.984:1,0.435,-1.43
00:32:53.988:1,0.455,-1.485
00:32:53.992:1,0.49,-1.535
00:32:53.996:1,0.47,-1.53
00:32:54.000:1,0.47,-1.515
00:32:54.004:1,0.43,-1.45
00:32:54.008:1,0.44,-1.405
00:32:54.012:1,0.47,-1.44
00:32:54.016:1,0.47,-1.56
00:32:54.020:1,0.48,-1.605
00:32:54.024:1,0.46,-1.545
00:32:54.028:1,0.47,-1.52
00:32:54.032:1,0.495,-1.535
00:32:54.036:1,0.54,-1.565
00:32:54.040:1,0.58,-1.535
00:32:54.044:1,0.57,-1.485
00:32:54.048:1,0.6,-1.52
00:32:54.052:1,0.615,-1.56
00:32:54.056:1,0.62,-1.53
00:32:54.060:1,0.63,-1.565
00:32:54.064:1,0.61,-1.55
00:32:54.068:1,0.605,-1.565
00:32:54.072:1,0.645,-1.55
00:32:54.076:1,0.62,-1.545
00:32:54.080:1,0.59,-1.56
00:32:54.084:1,0.565,-1.555
00:32:54.088:1,0.485,-1.55
00:32:54.092:1,0.45,-1.565
00:32:54.096:1,0.385,-1.53
00:32:54.100:1,0.375,-1.505
00:32:54.104:1,0.36,-1.545
00:32:54.108:1,0.375,-1.555
00:32:54.112:1,0.36,-1.53
00:32:54.116:1,0.345,-1.48
00:32:54.120:1,0.275,-1.385
00:32:54.124:1,0.27,-1.315
00:32:54.128:1,0.275,-1.44
00:32:54.132:1,0.27,-1.46
00:32:54.136:1,0.24,-1.405
00:32:54.140:1,0.2,-1.265
00:32:54.144:1,0.21,-1.275
00:32:54.148:1,0.21,-1.345
00:32:54.152:1,0.26,-1.365
00:32:54.156:1,0.225,-1.355
00:32:54.160:1,0.225,-1.3
00:32:54.164:1,0.215,-1.215
00:32:54.168:1,0.18,-1.16
00:32:54.172:1,0.195,-1.175
00:32:54.176:1,0.21,-1.175
00:32:54.180:1,0.17,-1.165
00:32:54.184:1,0.17,-1.11
00:32:54.188:1,0.18,-1.055
00:32:54.192:1,0.195,-1.025
00:32:54.196:1,0.2,-1.02
00:32:54.200:1,0.155,-0.99
00:32:54.204:1,0.13,-0.955
00:32:54.208:1,0.17,-0.985
00:32:54.212:1,0.165,-1.01
00:32:54.216:1,0.14,-0.95
00:32:54.220:1,0.14,-0.895
00:32:54.224:1,0.17,-0.815
00:32:54.228:1,0.185,-0.74
00:32:54.232:1,0.225,-0.66
00:32:54.236:1,0.24,-0.52
00:32:54.240:1,0.23,-0.43
00:32:54.244:1,0.26,-0.34
00:32:54.248:1,0.245,-0.32
00:32:54.252:1,0.225,-0.27
00:32:54.256:1,0.23,-0.2
00:32:54.260:1,0.235,-0.195
00:32:54.264:1,0.28,-0.245
00:32:54.268:1,0.27,-0.29
00:32:54.272:1,0.285,-0.195
00:32:54.276:1,0.31,-0.025
00:32:54.280:1,0.335,-0.105
00:32:54.284:1,0.31,-0.395
00:32:54.288:1,0.245,-0.42
00:32:54.292:1,0.255,-0.35
00:32:54.296:1,0.24,-0.29
00:32:54.300:1,0.21,-0.245
00:32:54.304:1,0.265,-0.195
00:32:54.308:1,0.275,-0.12
00:32:54.312:1,0.245,-0.1
00:32:54.316:1,0.235,-0.1
00:32:54.320:1,0.22,-0.09
00:32:54.324:1,0.23,-0.135
00:32:54.328:1,0.225,-0.135
00:32:54.332:1,0.22,-0.08
00:32:54.336:1,0.21,-0.04
00:32:54.340:1,0.18,-0.01
00:32:54.344:1,0.17,-0.03
00:32:54.348:1,0.15,0.01
00:32:54.352:1,0.105,0.215
00:32:54.356:1,0.09,0.375
00:32:54.360:1,0.115,0.38
00:32:54.364:1,0.095,0.455
00:32:54.368:1,0.14,0.325
00:32:54.372:1,0.1,0.075
00:32:54.376:1,0.125,-0.04
00:32:54.380:1,0.13,0.03
00:32:54.384:1,0.15,0.21
00:32:54.388:1,-0.065,0.305
00:32:54.392:1,-0.65,0.365
00:32:54.396:1,-1.29,0.655
00:32:54.400:1,-1.745,1.26
00:32:54.404:1,-1.99,1.94
00:32:54.408:1,-2.03,2.35
00:32:54.412:1,-2.045,2.23
00:32:54.416:1,-2.035,1.74
00:32:54.420:1,-1.965,1.045
00:32:54.424:1,-1.715,0.635
00:32:54.428:1,-1.225,0.62
00:32:54.432:1,-0.755,0.335
00:32:54.436:1,-0.39,0.18
00:32:54.440:1,-0.01,0.34
00:32:54.444:1,0.255,0.55
00:32:54.448:1,0.405,0.71
00:32:54.452:1,0.5,0.865
00:32:54.456:1,0.53,0.94
00:32:54.460:1,0.575,0.925
00:32:54.464:1,0.565,0.94
00:32:54.468:1,0.545,1.02
00:32:54.472:1,0.58,1.08
00:32:54.476:1,0.59,1.075
00:32:54.480:1,0.585,1.165
00:32:54.484:1,0.595,1.29
00:32:54.488:1,0.61,1.285
00:32:54.492:1,0.62,1.285
00:32:54.496:1,0.62,1.275
00:32:54.500:1,0.62,1.235
00:32:54.504:1,0.6,1.21
00:32:54.508:1,0.615,1.11
00:32:54.512:1,0.61,1.045
00:32:54.516:1,0.58,1.055
00:32:54.520:1,0.575,1.11
00:32:54.524:1,0.565,1.205
00:32:54.528:1,0.565,1.195
00:32:54.532:1,0.585,1.21
00:32:54.536:1,0.61,1.2
00:32:54.540:1,0.61,1.275
00:32:54.544:1,0.605,1.265
00:32:54.548:1,0.575,1.225
00:32:54.552:1,0.565,1.17
00:32:54.556:1,0.61,1.145
00:32:54.560:1,0.605,1.16
00:32:54.564:1,0.59,1.155
00:32:54.568:1,0.57,1.15
00:32:54.572:1,0.555,1.125
00:32:54.576:1,0.555,1.155
00:32:54.580:1,0.53,1.21
00:32:54.584:1,0.535,1.155
00:32:54.588:1,0.525,1.09
00:32:54.592:1,0.55,1.11
00:32:54.596:1,0.54,1.14
00:32:54.600:1,0.505,1.195
00:32:54.604:1,0.5,1.24
00:32:54.608:1,0.56,1.3
00:32:54.612:1,0.565,1.38
00:32:54.616:1,0.59,1.415
00:32:54.620:1,0.565,1.505
00:32:54.624:1,0.525,1.56
00:32:54.628:1,0.515,1.725
00:32:54.632:1,0.51,1.75
00:32:54.636:1,0.49,1.595
00:32:54.640:1,0.49,1.615
00:32:54.644:1,0.495,1.635
00:32:54.648:1,0.51,1.61
00:32:54.652:1,0.49,1.615
00:32:54.656:1,0.485,1.65
00:32:54.660:1,0.46,1.72
00:32:54.664:1,0.42,1.79
00:32:54.668:1,0.43,1.82
00:32:54.672:1,0.44,1.79
00:32:54.676:1,0.48,1.77
00:32:54.680:1,0.46,1.745
00:32:54.684:1,0.445,1.76
00:32:54.688:1,0.435,1.8
00:32:54.692:1,0.435,1.77
00:32:54.696:1,0.4,1.71
00:32:54.700:1,0.36,1.66
00:32:54.704:1,0.325,1.68
00:32:54.708:1,0.315,1.69
00:32:54.712:1,0.365,1.695
00:32:54.716:1,0.365,1.755
00:32:54.720:1,0.355,1.82
00:32:54.724:1,0.34,1.765
00:32:54.728:1,0.31,1.62
00:32:54.732:1,0.285,1.51
00:32:54.736:1,0.27,1.455
00:32:54.740:1,0.23,1.445
00:32:54.744:1,0.2,1.485
00:32:54.748:1,0.2,1.54
00:32:54.752:1,0.19,1.62
00:32:54.756:1,0.2,1.79
00:32:54.760:1,0.2,1.82
00:32:54.764:1,0.16,1.665
00:32:54.768:1,0.15,1.48
00:32:54.772:1,0.18,1.365
00:32:54.776:1,0.135,1.285
00:32:54.780:1,0.13,1.5
00:32:54.784:1,0.11,1.68
00:32:54.788:1,0.15,1.755
00:32:54.792:1,0.115,1.89
00:32:54.796:1,0.2,1.97
00:32:54.800:1,0.2,1.86
00:32:54.804:1,0.18,1.765
00:32:54.808:1,0.2,1.795
00:32:54.812:1,0.215,1.885
00:32:54.816:1,0.225,1.92
00:32:54.820:1,0.205,1.93
00:32:54.824:1,0.215,1.93
00:32:54.828:1,0.235,1.89
00:32:54.832:1,0.275,1.875
00:32:54.836:1,0.275,1.965
00:32:54.840:1,0.27,1.96
00:32:54.844:1,0.24,1.955
00:32:54.848:1,0.235,1.905
00:32:54.852:1,0.245,1.9
00:32:54.856:1,0.25,1.935
00:32:54.860:1,0.255,2.04
00:32:54.864:1,0.255,2.03
00:32:54.868:1,0.245,2.055
00:32:54.872:1,0.24,2.035
00:32:54.876:1,0.28,2.02
00:32:54.880:1,0.265,1.96
00:32:54.884:1,0.24,1.885
00:32:54.888:1,0.27,1.87
00:32:54.892:1,0.265,1.885
00:32:54.896:1,0.275,1.9
00:32:54.900:1,0.25,1.96
00:32:54.904:1,0.235,2.02
00:32:54.908:1,0.27,2.055
00:32:54.912:1,0.315,2.055
00:32:54.916:1,0.11,1.95
00:32:54.920:1,-0.4,1.97
00:32:54.924:1,-0.93,2.165
00:32:54.928:1,-1.435,2.47
00:32:54.932:1,-1.73,3.02
00:32:54.936:1,-1.85,3.56
00:32:54.940:1,-1.93,3.74
00:32:54.944:1,-1.94,3.25
00:32:54.948:1,-1.925,2.43
00:32:54.952:1,-1.71,2.005
00:32:54.956:1,-1.25,1.925
00:32:54.960:1,-0.835,1.4
00:32:54.964:1,-0.49,1.07
00:32:54.968:1,-0.145,1.17
00:32:54.972:1,0.045,1.45
00:32:54.976:1,0.175,1.585
00:32:54.980:1,0.26,1.67
00:32:54.984:1,0.29,1.895
00:32:54.988:1,0.315,2.17
00:32:54.992:1,0.37,2.24
00:32:54.996:1,0.37,2.27
00:32:55.000:1,0.37,2.315
00:32:55.004:1,0.42,2.37
00:32:55.008:1,0.43,2.4
00:32:55.012:1,0.455,2.46
00:32:55.016:1,0.465,2.47
00:32:55.020:1,0.51,2.52
00:32:55.024:1,0.52,2.5
00:32:55.028:1,0.55,2.5
00:32:55.032:1,0.525,2.44
00:32:55.036:1,0.515,2.415
00:32:55.040:1,0.515,2.47
00:32:55.044:1,0.545,2.49
00:32:55.048:1,0.52,2.53
00:32:55.052:1,0.525,2.625
00:32:55.056:1,0.555,2.535
00:32:55.060:1,0.565,2.33
00:32:55.064:1,0.535,2.24
00:32:55.068:1,0.56,2.27
00:32:55.072:1,0.56,2.37
00:32:55.076:1,0.57,2.45
00:32:55.080:1,0.6,2.425
00:32:55.084:1,0.64,2.345
00:32:55.088:1,0.64,2.38
00:32:55.092:1,0.66,2.335
00:32:55.096:1,0.69,2.33
00:32:55.100:1,0.7,2.265
00:32:55.104:1,0.67,2.225
00:32:55.108:1,0.705,2.19
00:32:55.112:1,0.69,2.195
00:32:55.116:1,0.655,2.175
00:32:55.120:1,0.68,2.1
00:32:55.124:1,0.7,2.07
00:32:55.128:1,0.7,2.065
00:32:55.132:1,0.66,2.03
00:32:55.136:1,0.62,2.02
00:32:55.140:1,0.625,2.02
00:32:55.144:1,0.6,2.035
00:32:55.148:1,0.6,2.08
00:32:55.152:1,0.55,2.08
00:32:55.156:1,0.5,2.14
00:32:55.160:1,0.48,2.25
00:32:55.164:1,0.43,2.335
00:32:55.168:1,0.47,2.33
00:32:55.172:1,0.47,2.33
00:32:55.176:1,0.435,2.38
00:32:55.180:1,0.42,2.44
00:32:55.184:1,0.395,2.43
00:32:55.188:1,0.315,2.395
00:32:55.192:1,0.275,2.38
00:32:55.196:1,0.335,2.36
00:32:55.200:1,0.335,2.355
00:32:55.204:1,0.345,2.32
00:32:55.208:1,0.31,2.28
00:32:55.212:1,0.315,2.235
00:32:55.216:1,0.31,2.225
00:32:55.220:1,0.3,2.245
00:32:55.224:1,0.275,2.27
00:32:55.228:1,0.315,2.315
00:32:55.232:1,0.295,2.295
00:32:55.236:1,0.29,2.325
00:32:55.240:1,0.27,2.27
00:32:55.244:1,0.255,2.275
00:32:55.248:1,0.24,2.255
00:32:55.252:1,0.21,2.24
00:32:55.256:1,0.21,2.24
00:32:55.260:1,0.23,2.28
00:32:55.264:1,0.22,2.28
00:32:55.268:1,0.215,2.255
00:32:55.272:1,0.215,2.245
00:32:55.276:1,0.2,2.23
00:32:55.280:1,0.22,2.205
00:32:55.284:1,0.21,2.27
00:32:55.288:1,0.2,2.265
00:32:55.292:1,0.19,2.305
00:32:55.296:1,0.165,2.205
00:32:55.300:1,0.165,2.16
00:32:55.304:1,0.195,2.16
00:32:55.308:1,0.185,2.175
00:32:55.312:1,0.185,2.22
00:32:55.316:1,0.165,2.25
00:32:55.320:1,0.18,2.16
00:32:55.324:1,0.195,2.07
00:32:55.328:1,0.17,2.095
00:32:55.332:1,0.14,2.16
00:32:55.336:1,0.14,2.24
00:32:55.340:1,0.185,2.38
00:32:55.344:1,0.225,2.465
00:32:55.348:1,0.235,2.4
00:32:55.352:1,0.22,2.315
00:32:55.356:1,0.225,2.29
00:32:55.360:1,0.24,2.28
00:32:55.364:1,0.205,2.27
00:32:55.368:1,0.175,2.3
00:32:55.372:1,0.17,2.31
00:32:55.376:1,0.175,2.31
00:32:55.380:1,0.195,2.32
00:32:55.384:1,0.22,2.335
00:32:55.388:1,0.225,2.3
00:32:55.392:1,0.22,2.29
00:32:55.396:1,0.19,2.305
00:32:55.400:1,0.215,2.39
00:32:55.404:1,0.185,2.385
00:32:55.408:1,-0.32,2.365
00:32:55.412:1,-1.005,2.625
00:32:55.416:1,-1.54,3.175
00:32:55.420:1,-1.84,3.85
00:32:55.424:1,-1.96,4.225
00:32:55.428:1,-1.945,3.91
00:32:55.432:1,-1.955,3.045
00:32:55.436:1,-1.78,2.32
00:32:55.440:1,-1.345,2.175
00:32:55.444:1,-0.91,1.895
00:32:55.448:1,-0.63,1.41
00:32:55.452:1,-0.405,1.555
00:32:55.456:1,-0.11,1.84
00:32:55.460:1,0.165,2.085
00:32:55.464:1,0.295,2.155
00:32:55.468:1,0.325,2.22
00:32:55.472:1,0.37,2.375
00:32:55.476:1,0.34,2.46
00:32:55.480:1,0.37,2.485
00:32:55.484:1,0.38,2.53
00:32:55.488:1,0.375,2.575
00:32:55.492:1,0.375,2.595
00:32:55.496:1,0.355,2.64
00:32:55.500:1,0.355,2.61
00:32:55.504:1,0.4,2.555
00:32:55.508:1,0.415,2.575
00:32:55.512:1,0.37,2.65
00:32:55.516:1,0.395,2.75
00:32:55.520:1,0.42,2.795
00:32:55.524:1,0.44,2.87
00:32:55.528:1,0.45,2.945
00:32:55.532:1,0.5,2.995
00:32:55.536:1,0.525,3.04
00:32:55.540:1,0.595,3.07
00:32:55.544:1,0.6,3.09
00:32:55.548:1,0.56,3.18
00:32:55.552:1,0.595,3.19
00:32:55.556:1,0.635,3.135
00:32:55.560:1,0.66,2.965
00:32:55.564:1,0.63,2.885
00:32:55.568:1,0.705,2.795
00:32:55.572:1,0.705,2.71
00:32:55.576:1,0.71,2.685
00:32:55.580:1,0.71,2.675
00:32:55.584:1,0.675,2.65
00:32:55.588:1,0.67,2.64
00:32:55.592:1,0.675,2.655
00:32:55.596:1,0.685,2.685
00:32:55.600:1,0.66,2.66
00:32:55.604:1,0.61,2.685
00:32:55.608:1,0.6,2.62
00:32:55.612:1,0.59,2.585
00:32:55.616:1,0.585,2.5
00:32:55.620:1,0.53,2.52
00:32:55.624:1,0.54,2.56
00:32:55.628:1,0.495,2.56
00:32:55.632:1,0.47,2.595
00:32:55.636:1,0.455,2.615
00:32:55.640:1,0.42,2.655
00:32:55.644:1,0.4,2.71
00:32:55.648:1,0.335,2.725
00:32:55.652:1,0.295,2.755
00:32:55.656:1,0.27,2.77
00:32:55.660:1,0.28,2.7
00:32:55.664:1,0.295,2.67
00:32:55.668:1,0.28,2.595
00:32:55.672:1,0.275,2.55
00:32:55.676:1,0.26,2.53
00:32:55.680:1,0.235,2.515
00:32:55.684:1,0.23,2.435
00:32:55.688:1,0.255,2.415
00:32:55.692:1,0.235,2.485
00:32:55.696:1,0.2,2.49
00:32:55.700:1,0.235,2.56
00:32:55.704:1,0.27,2.66
00:32:55.708:1,0.265,2.655
00:32:55.712:1,0.22,2.62
00:32:55.716:1,0.225,2.655
00:32:55.720:1,0.215,2.635
00:32:55.724:1,0.255,2.62
00:32:55.728:1,0.235,2.625
00:32:55.732:1,0.21,2.63
00:32:55.736:1,0.245,2.65
00:32:55.740:1,0.23,2.625
00:32:55.744:1,0.22,2.545
00:32:55.748:1,0.265,2.5
00:32:55.752:1,0.26,2.47
00:32:55.756:1,0.245,2.365
00:32:55.760:1,0.27,2.335
00:32:55.764:1,0.305,2.39
00:32:55.768:1,0.315,2.38
00:32:55.772:1,0.315,2.33
00:32:55.776:1,0.3,2.365
00:32:55.780:1,0.255,2.395
00:32:55.784:1,0.21,2.36
00:32:55.788:1,0.215,2.38
00:32:55.792:1,0.18,2.345
00:32:55.796:1,0.19,2.245
00:32:55.800:1,0.2,2.195
00:32:55.804:1,0.205,2.185
00:32:55.808:1,0.21,2.165
00:32:55.812:1,0.19,2.23
00:32:55.816:1,0.18,2.22
00:32:55.820:1,0.15,2.23
00:32:55.824:1,0.165,2.235
00:32:55.828:1,0.165,2.235
00:32:55.832:1,0.135,2.235
00:32:55.836:1,0.13,2.205
00:32:55.840:1,0.115,2.175
00:32:55.844:1,0.11,2.19
00:32:55.848:1,0.105,2.2
00:32:55.852:1,0.125,2.225
00:32:55.856:1,0.12,2.22
00:32:55.860:1,0.11,2.325
00:32:55.864:1,0.08,2.24
00:32:55.868:1,0.045,2.18
00:32:55.872:1,0.035,2.2
00:32:55.876:1,0.045,2.185
00:32:55.880:1,0.07,2.15
00:32:55.884:1,0.045,2.2
00:32:55.888:1,0.07,2.32
00:32:55.892:1,0.095,2.335
00:32:55.896:1,-0.25,2.29
00:32:55.900:1,-0.835,2.43
00:32:55.904:1,-1.42,2.84
00:32:55.908:1,-1.81,3.39
00:32:55.912:1,-1.955,3.91
00:32:55.916:1,-2.075,4.13
00:32:55.920:1,-2.03,3.76
00:32:55.924:1,-1.925,2.635
00:32:55.928:1,-1.765,1.85
00:32:55.932:1,-1.285,1.715
00:32:55.936:1,-0.75,1.35
00:32:55.940:1,-0.39,1.245
00:32:55.944:1,-0.11,1.465
00:32:55.948:1,0.18,1.715
00:32:55.952:1,0.34,1.915
00:32:55.956:1,0.39,2.095
00:32:55.960:1,0.43,2.355
00:32:55.964:1,0.46,2.495
00:32:55.968:1,0.5,2.54
00:32:55.972:1,0.48,2.53
00:32:55.976:1,0.495,2.535
00:32:55.980:1,0.52,2.455
00:32:55.984:1,0.53,2.465
00:32:55.988:1,0.535,2.465
00:32:55.992:1,0.585,2.515
00:32:55.996:1,0.57,2.535
00:32:56.000:1,0.56,2.495
00:32:56.004:1,0.575,2.43
00:32:56.008:1,0.575,2.39
00:32:56.012:1,0.55,2.49
00:32:56.016:1,0.55,2.5
00:32:56.020:1,0.56,2.515
00:32:56.024:1,0.59,2.595
00:32:56.028:1,0.6,2.62
00:32:56.032:1,0.575,2.625
00:32:56.036:1,0.54,2.625
00:32:56.040:1,0.5,2.6
00:32:56.044:1,0.48,2.56
00:32:56.048:1,0.45,2.52
00:32:56.052:1,0.44,2.505
00:32:56.056:1,0.455,2.5
00:32:56.060:1,0.495,2.55
00:32:56.064:1,0.49,2.545
00:32:56.068:1,0.51,2.575
00:32:56.072:1,0.545,2.605
00:32:56.076:1,0.56,2.59
00:32:56.080:1,0.565,2.55
00:32:56.084:1,0.59,2.505
00:32:56.088:1,0.585,2.49
00:32:56.092:1,0.595,2.525
00:32:56.096:1,0.6,2.51
00:32:56.100:1,0.595,2.41
00:32:56.104:1,0.585,2.31
00:32:56.108:1,0.59,2.295
00:32:56.112:1,0.6,2.305
00:32:56.116:1,0.56,2.25
00:32:56.120:1,0.49,2.205
00:32:56.124:1,0.485,2.18
00:32:56.128:1,0.5,2.19
00:32:56.132:1,0.48,2.27
00:32:56.136:1,0.44,2.29
00:32:56.140:1,0.44,2.32
00:32:56.144:1,0.42,2.305
00:32:56.148:1,0.38,2.32
00:32:56.152:1,0.35,2.31
00:32:56.156:1,0.31,2.265
00:32:56.160:1,0.31,2.21
00:32:56.164:1,0.285,2.24
00:32:56.168:1,0.3,2.255
00:32:56.172:1,0.3,2.285
00:32:56.176:1,0.3,2.22
00:32:56.180:1,0.29,2.205
00:32:56.184:1,0.245,2.14
00:32:56.188:1,0.225,2.075
00:32:56.192:1,0.22,2.12
00:32:56.196:1,0.23,2.16
00:32:56.200:1,0.22,2.125
00:32:56.204:1,0.21,2.035
00:32:56.208:1,0.215,2.1
00:32:56.212:1,0.23,2.155
00:32:56.216:1,0.21,2.155
00:32:56.220:1,0.195,2.11
00:32:56.224:1,0.19,2.085
00:32:56.228:1,0.19,2.12
00:32:56.232:1,0.23,2.07
00:32:56.236:1,0.22,2.125
00:32:56.240:1,0.245,2.25
00:32:56.244:1,0.255,2.31
00:32:56.248:1,0.285,2.4
00:32:56.252:1,0.245,2.48
00:32:56.256:1,0.265,2.495
00:32:56.260:1,0.28,2.455
00:32:56.264:1,0.31,2.49
00:32:56.268:1,0.335,2.515
00:32:56.272:1,0.325,2.59
00:32:56.276:1,0.33,2.625
00:32:56.280:1,0.305,2.625
00:32:56.284:1,0.24,2.645
00:32:56.288:1,0.18,2.58
00:32:56.292:1,0.15,2.51
00:32:56.296:1,0.17,2.47
00:32:56.300:1,0.15,2.4
00:32:56.304:1,0.145,2.33
00:32:56.308:1,0.155,2.325
00:32:56.312:1,0.155,2.33
00:32:56.316:1,0.145,2.29
00:32:56.320:1,0.145,2.26
00:32:56.324:1,0.155,2.24
00:32:56.328:1,0.17,2.16
00:32:56.332:1,0.145,2.12
00:32:56.336:1,0.105,2.145
00:32:56.340:1,0.105,2.14
00:32:56.344:1,0.095,2.165
00:32:56.348:1,0.075,2.16
00:32:56.352:1,0.115,2.13
00:32:56.356:1,0.125,2.085
00:32:56.360:1,0.13,2.095
00:32:56.364:1,0.14,2.045
00:32:56.368:1,0.12,1.95
00:32:56.372:1,0.12,1.885
00:32:56.376:1,0.1,1.88
00:32:56.380:1,0.1,1.895
00:32:56.384:1,0.105,1.91
00:32:56.388:1,0.09,1.9
00:32:56.392:1,0.075,1.87
00:32:56.396:1,0.1,1.85
00:32:56.400:1,0.095,1.805
00:32:56.404:1,0.045,1.71
00:32:56.408:1,0.055,1.68
00:32:56.412:1,0.015,1.715
00:32:56.416:1,0.065,1.8
00:32:56.420:1,0.13,1.915
00:32:56.424:1,0.045,1.985
00:32:56.428:1,-0.33,2.005
00:32:56.432:1,-0.82,2.285
00:32:56.436:1,-1.315,2.635
00:32:56.440:1,-1.66,3.015
00:32:56.444:1,-1.805,3.505
00:32:56.448:1,-1.89,3.805
00:32:56.452:1,-1.87,3.18
00:32:56.456:1,-1.75,2.08
00:32:56.460:1,-1.565,1.44
00:32:56.464:1,-1.115,1.44
00:32:56.468:1,-0.605,1.03
00:32:56.472:1,-0.29,0.93
00:32:56.476:1,-0.02,1.15
00:32:56.480:1,0.255,1.36
00:32:56.484:1,0.48,1.49
00:32:56.488:1,0.56,1.625
00:32:56.492:1,0.565,1.83
00:32:56.496:1,0.55,2.015
00:32:56.500:1,0.485,2.05
00:32:56.504:1,0.44,2.07
00:32:56.508:1,0.465,2.04
00:32:56.512:1,0.44,2.04
00:32:56.516:1,0.445,1.925
00:32:56.520:1,0.425,1.895
00:32:56.524:1,0.44,2.0
00:32:56.528:1,0.44,2.045
00:32:56.532:1,0.47,2.135
00:32:56.536:1,0.445,2.185
00:32:56.540:1,0.445,2.175
00:32:56.544:1,0.475,2.115
00:32:56.548:1,0.46,2.05
00:32:56.552:1,0.44,1.855
00:32:56.556:1,0.425,1.82
00:32:56.560:1,0.435,1.815
00:32:56.564:1,0.435,1.82
00:32:56.568:1,0.44,1.865
00:32:56.572:1,0.435,1.86
00:32:56.576:1,0.45,1.82
00:32:56.580:1,0.465,1.785
00:32:56.584:1,0.455,1.695
00:32:56.588:1,0.45,1.565
00:32:56.592:1,0.435,1.5
00:32:56.596:1,0.45,1.49
00:32:56.600:1,0.455,1.445
00:32:56.604:1,0.5,1.455
00:32:56.608:1,0.51,1.47
00:32:56.612:1,0.505,1.45
00:32:56.616:1,0.53,1.53
00:32:56.620:1,0.565,1.51
00:32:56.624:1,0.575,1.4
00:32:56.628:1,0.55,1.385
00:32:56.632:1,0.565,1.345
00:32:56.636:1,0.575,1.305
00:32:56.640:1,0.575,1.285
00:32:56.644:1,0.58,1.28
00:32:56.648:1,0.535,1.295
00:32:56.652:1,0.485,1.24
00:32:56.656:1,0.46,1.19
00:32:56.660:1,0.485,1.15
00:32:56.664:1,0.515,1.125
00:32:56.668:1,0.505,1.145
00:32:56.672:1,0.465,1.15
00:32:56.676:1,0.45,1.215
00:32:56.680:1,0.4,1.19
00:32:56.684:1,0.41,1.24
00:32:56.688:1,0.44,1.255
00:32:56.692:1,0.405,1.245
00:32:56.696:1,0.385,1.155
00:32:56.700:1,0.32,1.09
00:32:56.704:1,0.295,1.085
00:32:56.708:1,0.295,1.18
00:32:56.712:1,0.3,1.19
00:32:56.716:1,0.285,1.19
00:32:56.720:1,0.235,1.23
00:32:56.724:1,0.25,1.23
00:32:56.728:1,0.255,1.26
00:32:56.732:1,0.245,1.275
00:32:56.736:1,0.235,1.26
00:32:56.740:1,0.22,1.22
00:32:56.744:1,0.185,1.175
00:32:56.748:1,0.22,1.185
00:32:56.752:1,0.2,1.195
00:32:56.756:1,0.205,1.2
00:32:56.760:1,0.21,1.195
00:32:56.764:1,0.2,1.205
00:32:56.768:1,0.195,1.19
00:32:56.772:1,0.17,1.22
00:32:56.776:1,0.135,1.12
00:32:56.780:1,0.115,1.0
00:32:56.784:1,0.155,1.04
00:32:56.788:1,0.145,1.1
00:32:56.792:1,0.165,1.155
00:32:56.796:1,0.145,1.24
00:32:56.800:1,0.155,1.3
00:32:56.804:1,0.17,1.315
00:32:56.808:1,0.175,1.195
00:32:56.812:1,0.19,1.11
00:32:56.816:1,0.2,1.11
00:32:56.820:1,0.2,1.12
00:32:56.824:1,0.21,1.17
00:32:56.828:1,0.255,1.225
00:32:56.832:1,0.245,1.21
00:32:56.836:1,0.24,1.15
00:32:56.840:1,0.225,1.195
00:32:56.844:1,0.22,1.26
00:32:56.848:1,0.245,1.2
00:32:56.852:1,0.255,1.11
00:32:56.856:1,0.245,1.07
00:32:56.860:1,0.27,0.99
00:32:56.864:1,0.285,0.965
00:32:56.868:1,0.285,0.91
00:32:56.872:1,0.27,0.895
00:32:56.876:1,0.275,0.905
00:32:56.880:1,0.26,0.94
00:32:56.884:1,0.255,0.975
00:32:56.888:1,0.255,0.9
00:32:56.892:1,0.24,0.77
00:32:56.896:1,0.2,0.7
00:32:56.900:1,0.18,0.665
00:32:56.904:1,0.195,0.715
00:32:56.908:1,0.19,0.75
00:32:56.912:1,0.19,0.8
00:32:56.916:1,0.195,0.785
00:32:56.920:1,0.18,0.795
00:32:56.924:1,0.155,0.73
00:32:56.928:1,0.1,0.7
00:32:56.932:1,0.145,0.74
00:32:56.936:1,0.185,0.82
00:32:56.940:1,0.04,0.84
00:32:56.944:1,-0.38,0.965
00:32:56.948:1,-0.97,1.375
00:32:56.952:1,-1.475,2.0
00:32:56.956:1,-1.73,2.735
00:32:56.960:1,-1.81,3.17
00:32:56.964:1,-1.75,2.745
00:32:56.968:1,-1.635,1.695
00:32:56.972:1,-1.58,0.765
00:32:56.976:1,-1.35,0.475
00:32:56.980:1,-0.925,0.43
00:32:56.984:1,-0.56,0.155
00:32:56.988:1,-0.365,0.135
00:32:56.992:1,-0.165,0.33
00:32:56.996:1,0.09,0.545
00:32:57.000:1,0.27,0.685
00:32:57.004:1,0.3,0.885
00:32:57.008:1,0.345,1.145
00:32:57.012:1,0.355,1.35
00:32:57.016:1,0.38,1.375
00:32:57.020:1,0.41,1.41
00:32:57.024:1,0.47,1.415
00:32:57.028:1,0.505,1.375
00:32:57.032:1,0.475,1.33
00:32:57.036:1,0.475,1.34
00:32:57.040:1,0.465,1.285
00:32:57.044:1,0.505,1.26
00:32:57.048:1,0.505,1.305
00:32:57.052:1,0.515,1.39
00:32:57.056:1,0.53,1.335
00:32:57.060:1,0.53,1.275
00:32:57.064:1,0.525,1.235
00:32:57.068:1,0.53,1.21
00:32:57.072:1,0.57,1.215
00:32:57.076:1,0.545,1.18
00:32:57.080:1,0.54,1.155
00:32:57.084:1,0.54,1.135
00:32:57.088:1,0.555,1.095
00:32:57.092:1,0.57,1.025
00:32:57.096:1,0.585,0.955
00:32:57.100:1,0.585,0.94
00:32:57.104:1,0.59,0.93
00:32:57.108:1,0.605,0.89
00:32:57.112:1,0.565,0.795
00:32:57.116:1,0.58,0.75
00:32:57.120:1,0.585,0.665
00:32:57.124:1,0.56,0.535
00:32:57.128:1,0.54,0.43
00:32:57.132:1,0.535,0.415
00:32:57.136:1,0.535,0.39
00:32:57.140:1,0.535,0.36
00:32:57.144:1,0.505,0.355
00:32:57.148:1,0.445,0.29
00:32:57.152:1,0.435,0.22
00:32:57.156:1,0.415,0.175
00:32:57.160:1,0.405,0.165
00:32:57.164:1,0.375,0.18
00:32:57.168:1,0.375,0.22
00:32:57.172:1,0.36,0.34
00:32:57.176:1,0.31,0.435
00:32:57.180:1,0.295,0.455
00:32:57.184:1,0.28,0.465
00:32:57.188:1,0.275,0.49
00:32:57.192:1,0.23,0.545
00:32:57.196:1,0.235,0.65
00:32:57.200:1,0.25,0.76
00:32:57.204:1,0.245,0.855
00:32:57.208:1,0.25,0.93
00:32:57.212:1,0.245,1.015
00:32:57.216:1,0.27,0.98
00:32:57.220:1,0.275,0.895
00:32:57.224:1,0.315,0.89
00:32:57.228:1,0.32,0.855
00:32:57.232:1,0.32,0.865
00:32:57.236:1,0.325,0.835
00:32:57.240:1,0.35,0.87
00:32:57.244:1,0.35,0.875
00:32:57.248:1,0.355,0.885
00:32:57.252:1,0.355,0.865
00:32:57.256:1,0.32,0.82
00:32:57.260:1,0.32,0.76
00:32:57.264:1,0.315,0.77
00:32:57.268:1,0.32,0.765
00:32:57.272:1,0.32,0.835
00:32:57.276:1,0.335,0.825
00:32:57.280:1,0.335,0.8
00:32:57.284:1,0.325,0.765
00:32:57.288:1,0.305,0.79
00:32:57.292:1,0.29,0.78
00:32:57.296:1,0.27,0.755
00:32:57.300:1,0.265,0.705
00:32:57.304:1,0.315,0.715
00:32:57.308:1,0.205,0.6
00:32:57.312:1,-0.315,0.63
00:32:57.316:1,-0.935,0.975
00:32:57.320:1,-1.475,1.665
00:32:57.324:1,-1.83,2.255
00:32:57.328:1,-2.04,2.665
00:32:57.332:1,-2.12,2.565
00:32:57.336:1,-2.02,1.63
00:32:57.340:1,-1.97,0.36
00:32:57.344:1,-1.71,-0.4
00:32:57.348:1,-1.165,-0.395
00:32:57.352:1,-0.695,-0.625
00:32:57.356:1,-0.38,-0.555
00:32:57.360:1,-0.075,-0.28
00:32:57.364:1,0.2,-0.01
00:32:57.368:1,0.35,0.28
00:32:57.372:1,0.38,0.515
00:32:57.376:1,0.395,0.675
00:32:57.380:1,0.435,0.69
00:32:57.384:1,0.455,0.67
00:32:57.388:1,0.5,0.685
00:32:57.392:1,0.505,0.7
00:32:57.396:1,0.535,0.755
00:32:57.400:1,0.59,0.765
00:32:57.404:1,0.575,0.75
00:32:57.408:1,0.57,0.735
00:32:57.412:1,0.585,0.705
00:32:57.416:1,0.61,0.71
00:32:57.420:1,0.61,0.745
00:32:57.424:1,0.6,0.785
00:32:57.428:1,0.605,0.815
00:32:57.432:1,0.615,0.805
00:32:57.436:1,0.595,0.83
00:32:57.440:1,0.62,0.8
00:32:57.444:1,0.64,0.755
00:32:57.448:1,0.645,0.675
00:32:57.452:1,0.64,0.605
00:32:57.456:1,0.63,0.565
00:32:57.460:1,0.635,0.54
00:32:57.464:1,0.665,0.545
00:32:57.468:1,0.635,0.535
00:32:57.472:1,0.65,0.49
00:32:57.476:1,0.695,0.405
00:32:57.480:1,0.69,0.275
00:32:57.484:1,0.675,0.175
00:32:57.488:1,0.63,0.09
00:32:57.492:1,0.625,0.035
00:32:57.496:1,0.62,-0.085
00:32:57.500:1,0.585,-0.185
00:32:57.504:1,0.585,-0.23
00:32:57.508:1,0.59,-0.34
00:32:57.512:1,0.58,-0.385
00:32:57.516:1,0.57,-0.43
00:32:57.520:1,0.52,-0.47
00:32:57.524:1,0.49,-0.54
00:32:57.528:1,0.455,-0.585
00:32:57.532:1,0.455,-0.625
00:32:57.536:1,0.43,-0.635
00:32:57.540:1,0.415,-0.64
00:32:57.544:1,0.395,-0.615
00:32:57.548:1,0.355,-0.59
00:32:57.552:1,0.375,-0.55
00:32:57.556:1,0.335,-0.555
00:32:57.560:1,0.365,-0.525
00:32:57.564:1,0.345,-0.59
00:32:57.568:1,0.345,-0.64
00:32:57.572:1,0.35,-0.58
00:32:57.576:1,0.365,-0.6
00:32:57.580:1,0.375,-0.625
00:32:57.584:1,0.38,-0.655
00:32:57.588:1,0.34,-0.625
00:32:57.592:1,0.34,-0.68
00:32:57.596:1,0.335,-0.675
00:32:57.600:1,0.355,-0.69
00:32:57.604:1,0.355,-0.76
00:32:57.608:1,0.36,-0.795
00:32:57.612:1,0.37,-0.81
00:32:57.616:1,0.365,-0.755
00:32:57.620:1,0.37,-0.745
00:32:57.624:1,0.36,-0.76
00:32:57.628:1,0.34,-0.745
00:32:57.632:1,0.35,-0.775
00:32:57.636:1,0.36,-0.79
00:32:57.640:1,0.34,-0.86
00:32:57.644:1,0.315,-0.89
00:32:57.648:1,0.315,-0.875
00:32:57.652:1,0.3,-0.915
00:32:57.656:1,0.295,-0.87
00:32:57.660:1,0.285,-0.885
00:32:57.664:1,0.285,-0.845
00:32:57.668:1,0.29,-0.91
00:32:57.672:1,0.29,-0.945
00:32:57.676:1,0.285,-0.905
00:32:57.680:1,0.27,-0.91
00:32:57.684:1,0.285,-0.945
00:32:57.688:1,0.275,-0.95
00:32:57.692:1,0.27,-1.085
00:32:57.696:1,0.29,-1.105
00:32:57.700:1,0.28,-1.08
00:32:57.704:1,0.25,-1.095
00:32:57.708:1,0.225,-1.135
00:32:57.712:1,0.23,-1.185
00:32:57.716:1,0.23,-1.25
00:32:57.720:1,0.26,-1.26
00:32:57.724:1,0.215,-1.3
00:32:57.728:1,0.225,-1.31
00:32:57.732:1,0.225,-1.27
00:32:57.736:1,0.215,-1.22
00:32:57.740:1,0.225,-1.195
00:32:57.744:1,0.23,-1.215
00:32:57.748:1,0.27,-1.26
00:32:57.752:1,0.235,-1.225
00:32:57.756:1,0.24,-1.245
00:32:57.760:1,0.255,-1.25
00:32:57.764:1,0.255,-1.255
00:32:57.768:1,0.26,-1.225
00:32:57.772:1,0.285,-1.21
00:32:57.776:1,0.305,-1.225
00:32:57.780:1,0.315,-1.24
00:32:57.784:1,0.3,-1.3
00:32:57.788:1,0.29,-1.29
00:32:57.792:1,0.295,-1.285
00:32:57.796:1,0.35,-1.285
00:32:57.800:1,0.38,-1.19
00:32:57.804:1,0.18,-1.24
00:32:57.808:1,-0.36,-1.33
00:32:57.812:1,-1.05,-1.16
00:32:57.816:1,-1.56,-0.72
00:32:57.820:1,-1.815,-0.16
00:32:57.824:1,-1.985,0.315
00:32:57.828:1,-2.045,0.24
00:32:57.832:1,-2.005,-0.455
00:32:57.836:1,-1.955,-1.245
00:32:57.840:1,-1.85,-1.655
00:32:57.844:1,-1.36,-1.585
00:32:57.848:1,-0.8,-1.76
00:32:57.852:1,-0.375,-1.885
00:32:57.856:1,-0.01,-1.785
00:32:57.860:1,0.24,-1.68
00:32:57.864:1,0.41,-1.595
00:32:57.868:1,0.45,-1.52
00:32:57.872:1,0.47,-1.4
00:32:57.876:1,0.46,-1.275
00:32:57.880:1,0.475,-1.235
00:32:57.884:1,0.485,-1.205
00:32:57.888:1,0.495,-1.21
00:32:57.892:1,0.515,-1.16
00:32:57.896:1,0.52,-1.1
00:32:57.900:1,0.51,-1.135
00:32:57.904:1,0.5,-1.155
00:32:57.908:1,0.505,-1.145
00:32:57.912:1,0.495,-1.145
00:32:57.916:1,0.495,-1.165
00:32:57.920:1,0.485,-1.13
00:32:57.924:1,0.55,-1.125
00:32:57.928:1,0.585,-1.08
00:32:57.932:1,0.565,-1.01
00:32:57.936:1,0.565,-0.99
00:32:57.940:1,0.57,-0.97
00:32:57.944:1,0.61,-0.92
00:32:57.948:1,0.655,-0.875
00:32:57.952:1,0.66,-0.85
00:32:57.956:1,0.7,-0.87
00:32:57.960:1,0.735,-0.88
00:32:57.964:1,0.75,-0.925
00:32:57.968:1,0.75,-0.91
00:32:57.972:1,0.77,-0.86
00:32:57.976:1,0.81,-0.905
00:32:57.980:1,0.86,-0.875
00:32:57.984:1,0.855,-0.99
00:32:57.988:1,0.885,-1.095
00:32:57.992:1,0.92,-1.2
00:32:57.996:1,0.95,-1.16
00:32:58.000:1,0.915,-1.1
00:32:58.004:1,0.91,-1.05
00:32:58.008:1,0.955,-1.07
00:32:58.012:1,0.95,-1.06
00:32:58.016:1,0.93,-1.045
00:32:58.020:1,0.915,-1.135
00:32:58.024:1,0.87,-1.245
00:32:58.028:1,0.885,-1.28
00:32:58.032:1,0.91,-1.27
00:32:58.036:1,0.87,-1.24
00:32:58.040:1,0.835,-1.19
00:32:58.044:1,0.77,-1.06
00:32:58.048:1,0.755,-0.96
00:32:58.052:1,0.695,-1.055
00:32:58.056:1,0.66,-1.15
00:32:58.060:1,0.61,-1.235
00:32:58.064:1,0.515,-1.2
00:32:58.068:1,0.5,-1.17
00:32:58.072:1,0.495,-1.13
00:32:58.076:1,0.435,-1.125
00:32:58.080:1,0.415,-1.175
00:32:58.084:1,0.405,-1.185
00:32:58.088:1,0.38,-1.165
00:32:58.092:1,0.35,-1.16
00:32:58.096:1,0.34,-1.19
00:32:58.100:1,0.34,-1.225
00:32:58.104:1,0.29,-1.24
00:32:58.108:1,0.265,-1.205
00:32:58.112:1,0.26,-1.14
00:32:58.116:1,0.3,-1.08
00:32:58.120:1,0.285,-1.08
00:32:58.124:1,0.28,-1.035
00:32:58.128:1,0.245,-0.96
00:32:58.132:1,0.24,-0.94
00:32:58.136:1,0.235,-0.96
00:32:58.140:1,0.255,-1.015
00:32:58.144:1,0.285,-1.05
00:32:58.148:1,0.28,-1.015
00:32:58.152:1,0.275,-0.99
00:32:58.156:1,0.255,-1.04
00:32:58.160:1,0.28,-1.135
00:32:58.164:1,0.29,-1.23
00:32:58.168:1,0.305,-1.245
00:32:58.172:1,0.3,-1.24
00:32:58.176:1,0.295,-1.245
00:32:58.180:1,0.28,-1.32
00:32:58.184:1,0.27,-1.31
00:32:58.188:1,0.26,-1.28
00:32:58.192:1,0.29,-1.305
00:32:58.196:1,0.31,-1.36
00:32:58.200:1,0.325,-1.33
00:32:58.204:1,0.3,-1.295
00:32:58.208:1,0.255,-1.31
00:32:58.212:1,0.225,-1.355
00:32:58.216:1,0.245,-1.365
00:32:58.220:1,0.265,-1.34
00:32:58.224:1,0.285,-1.305
00:32:58.228:1,0.3,-1.24
00:32:58.232:1,0.265,-1.295
00:32:58.236:1,0.265,-1.28
00:32:58.240:1,0.235,-1.26
00:32:58.244:1,0.25,-1.295
00:32:58.248:1,0.23,-1.36
00:32:58.252:1,0.21,-1.46
00:32:58.256:1,0.205,-1.55
00:32:58.260:1,0.2,-1.52
00:32:58.264:1,0.205,-1.47
00:32:58.268:1,0.185,-1.46
00:32:58.272:1,0.145,-1.48
00:32:58.276:1,0.17,-1.455
00:32:58.280:1,0.165,-1.385
00:32:58.284:1,0.175,-1.325
00:32:58.288:1,0.165,-1.34
00:32:58.292:1,0.16,-1.37
00:32:58.296:1,0.155,-1.325
00:32:58.300:1,0.14,-1.27
00:32:58.304:1,0.145,-1.18
00:32:58.308:1,0.115,-1.11
00:32:58.312:1,0.12,-0.98
00:32:58.316:1,0.17,-0.845
00:32:58.320:1,0.25,-0.785
00:32:58.324:1,0.195,-0.77
00:32:58.328:1,-0.25,-0.7
00:32:58.332:1,-0.925,-0.28
00:32:58.336:1,-1.52,0.26
00:32:58.340:1,-1.825,0.85
00:32:58.344:1,-2.005,1.285
00:32:58.348:1,-2.01,0.82
00:32:58.352:1,-1.92,-0.255
00:32:58.356:1,-1.765,-1.015
00:32:58.360:1,-1.31,-1.16
00:32:58.364:1,-0.82,-1.35
00:32:58.368:1,-0.46,-1.8
00:32:58.372:1,-0.26,-1.735
00:32:58.376:1,-0.015,-1.68
00:32:58.380:1,0.25,-1.57
00:32:58.384:1,0.47,-1.32
00:32:58.388:1,0.545,-1.09
00:32:58.392:1,0.56,-0.905
00:32:58.396:1,0.53,-0.885
00:32:58.400:1,0.51,-0.915
00:32:58.404:1,0.495,-0.93
00:32:58.408:1,0.5,-0.955
00:32:58.412:1,0.495,-0.885
00:32:58.416:1,0.54,-0.9
00:32:58.420:1,0.55,-0.9
00:32:58.424:1,0.54,-0.91
00:32:58.428:1,0.53,-0.87
00:32:58.432:1,0.51,-0.89
00:32:58.436:1,0.51,-0.935
00:32:58.440:1,0.5,-0.98
00:32:58.444:1,0.52,-0.99
00:32:58.448:1,0.495,-0.94
00:32:58.452:1,0.495,-0.97
00:32:58.456:1,0.515,-1.065
00:32:58.460:1,0.5,-1.205
00:32:58.464:1,0.51,-1.355
00:32:58.468:1,0.495,-1.315
00:32:58.472:1,0.5,-1.125
00:32:58.476:1,0.515,-1.06
00:32:58.480:1,0.505,-1.075
00:32:58.484:1,0.505,-1.145
00:32:58.488:1,0.525,-1.14
00:32:58.492:1,0.55,-1.06
00:32:58.496:1,0.57,-1.0
00:32:58.500:1,0.585,-0.915
00:32:58.504:1,0.615,-0.875
00:32:58.508:1,0.645,-0.8
00:32:58.512:1,0.655,-0.785
00:32:58.516:1,0.65,-0.815
00:32:58.520:1,0.645,-0.915
00:32:58.524:1,0.635,-1.045
00:32:58.528:1,0.625,-0.965
00:32:58.532:1,0.58,-0.885
00:32:58.536:1,0.56,-0.875
00:32:58.540:1,0.595,-0.94
00:32:58.544:1,0.575,-0.98
00:32:58.548:1,0.56,-1.025
00:32:58.552:1,0.54,-1.08
00:32:58.556:1,0.505,-1.095
00:32:58.560:1,0.48,-1.025
00:32:58.564:1,0.465,-0.99
00:32:58.568:1,0.44,-1.045
00:32:58.572:1,0.415,-1.05
00:32:58.576:1,0.415,-0.995
00:32:58.580:1,0.41,-0.955
00:32:58.584:1,0.39,-0.96
00:32:58.588:1,0.37,-1.015
00:32:58.592:1,0.34,-0.94
00:32:58.596:1,0.33,-0.77
00:32:58.600:1,0.34,-0.725
00:32:58.604:1,0.31,-0.82
00:32:58.608:1,0.34,-0.925
00:32:58.612:1,0.34,-0.995
00:32:58.616:1,0.35,-0.955
00:32:58.620:1,0.33,-0.97
00:32:58.624:1,0.285,-0.945
00:32:58.628:1,0.3,-0.99
00:32:58.632:1,0.28,-1.045
00:32:58.636:1,0.255,-1.12
00:32:58.640:1,0.26,-1.14
00:32:58.644:1,0.315,-1.13
00:32:58.648:1,0.31,-1.1
00:32:58.652:1,0.295,-1.12
00:32:58.656:1,0.285,-1.105
00:32:58.660:1,0.265,-1.17
00:32:58.664:1,0.22,-1.255
00:32:58.668:1,0.25,-1.265
00:32:58.672:1,0.26,-1.23
00:32:58.676:1,0.25,-1.155
00:32:58.680:1,0.23,-1.015
00:32:58.684:1,0.255,-0.91
00:32:58.688:1,0.225,-0.845
00:32:58.692:1,0.245,-0.795
00:32:58.696:1,0.25,-0.845
00:32:58.700:1,0.285,-0.965
00:32:58.704:1,0.255,-1.03
00:32:58.708:1,0.23,-1.125
00:32:58.712:1,0.19,-1.07
00:32:58.716:1,0.195,-0.98
00:32:58.720:1,0.17,-0.92
00:32:58.724:1,0.195,-0.94
00:32:58.728:1,0.23,-0.915
00:32:58.732:1,0.215,-0.915
00:32:58.736:1,0.24,-1.055
00:32:58.740:1,0.22,-1.09
00:32:58.744:1,0.24,-1.06
00:32:58.748:1,0.255,-0.965
00:32:58.752:1,0.23,-0.98
00:32:58.756:1,0.19,-0.905
00:32:58.760:1,0.19,-0.88
00:32:58.764:1,0.195,-0.855
00:32:58.768:1,0.23,-0.74
00:32:58.772:1,0.2,-0.67
00:32:58.776:1,0.18,-0.87
00:32:58.780:1,0.15,-1.03
00:32:58.784:1,0.17,-1.105
00:32:58.788:1,0.15,-1.185
00:32:58.792:1,0.155,-1.195
00:32:58.796:1,0.155,-1.16
00:32:58.800:1,0.18,-1.12
00:32:58.804:1,0.25,-1.015
00:32:58.808:1,0.2,-1.04
00:32:58.812:1,-0.245,-1.03
00:32:58.816:1,-0.74,-0.83
00:32:58.820:1,-1.305,-0.5
00:32:58.824:1,-1.705,0.085
00:32:58.828:1,-1.875,0.88
00:32:58.832:1,-1.98,1.325
00:32:58.836:1,-1.92,0.795
00:32:58.840:1,-1.81,-0.4
00:32:58.844:1,-1.635,-1.175
00:32:58.848:1,-1.17,-1.4
00:32:58.852:1,-0.69,-1.81
00:32:58.856:1,-0.37,-1.87
00:32:58.860:1,-0.15,-1.81
00:32:58.864:1,0.045,-1.7
00:32:58.868:1,0.26,-1.515
00:32:58.872:1,0.37,-1.3
00:32:58.876:1,0.39,-1.14
00:32:58.880:1,0.385,-0.95
00:32:58.884:1,0.395,-0.92
00:32:58.888:1,0.385,-1.03
00:32:58.892:1,0.41,-1.095
00:32:58.896:1,0.45,-1.07
00:32:58.900:1,0.49,-1.06
00:32:58.904:1,0.5,-0.98
00:32:58.908:1,0.57,-0.875
00:32:58.912:1,0.605,-0.805
00:32:58.916:1,0.58,-0.845
00:32:58.920:1,0.555,-0.82
00:32:58.924:1,0.56,-0.815
00:32:58.928:1,0.56,-0.845
00:32:58.932:1,0.535,-0.88
00:32:58.936:1,0.515,-0.96
00:32:58.940:1,0.525,-1.025
00:32:58.944:1,0.53,-1.03
00:32:58.948:1,0.515,-0.97
00:32:58.952:1,0.535,-0.95
00:32:58.956:1,0.56,-0.945
00:32:58.960:1,0.565,-0.94
00:32:58.964:1,0.575,-0.97
00:32:58.968:1,0.57,-1.035
00:32:58.972:1,0.575,-1.03
00:32:58.976:1,0.55,-1.06
00:32:58.980:1,0.555,-1.095
00:32:58.984:1,0.565,-1.175
00:32:58.988:1,0.59,-1.245
00:32:58.992:1,0.585,-1.345
00:32:58.996:1,0.58,-1.405
00:32:59.000:1,0.555,-1.39
00:32:59.004:1,0.54,-1.505
00:32:59.008:1,0.53,-1.55
00:32:59.012:1,0.53,-1.505
00:32:59.016:1,0.505,-1.47
00:32:59.020:1,0.49,-1.485
00:32:59.024:1,0.49,-1.49
00:32:59.028:1,0.445,-1.55
00:32:59.032:1,0.4,-1.545
00:32:59.036:1,0.36,-1.56
00:32:59.040:1,0.325,-1.52
00:32:59.044:1,0.29,-1.375
00:32:59.048:1,0.33,-1.275
00:32:59.052:1,0.325,-1.24
00:32:59.056:1,0.315,-1.235
00:32:59.060:1,0.29,-1.17
00:32:59.064:1,0.28,-1.08
00:32:59.068:1,0.29,-1.03
00:32:59.072:1,0.31,-1.175
00:32:59.076:1,0.315,-1.27
00:32:59.080:1,0.29,-1.265
00:32:59.084:1,0.27,-1.32
00:32:59.088:1,0.305,-1.355
00:32:59.092:1,0.325,-1.305
00:32:59.096:1,0.34,-1.235
00:32:59.100:1,0.33,-1.165
00:32:59.104:1,0.32,-1.16
00:32:59.108:1,0.26,-1.13
00:32:59.112:1,0.26,-1.1
00:32:59.116:1,0.27,-1.07
00:32:59.120:1,0.275,-1.1
00:32:59.124:1,0.285,-1.11
00:32:59.128:1,0.275,-1.2
00:32:59.132:1,0.285,-1.195
00:32:59.136:1,0.27,-1.17
00:32:59.140:1,0.265,-1.095
00:32:59.144:1,0.225,-1.05
00:32:59.148:1,0.24,-1.06
00:32:59.152:1,0.27,-1.075
00:32:59.156:1,0.275,-1.115
00:32:59.160:1,0.26,-1.145
00:32:59.164:1,0.235,-1.1
00:32:59.168:1,0.235,-1.085
00:32:59.172:1,0.28,-1.1
00:32:59.176:1,0.28,-1.11
00:32:59.180:1,0.22,-1.11
00:32:59.184:1,0.225,-1.075
00:32:59.188:1,0.2,-1.065
00:32:59.192:1,0.2,-1.09
00:32:59.196:1,0.2,-1.18
00:32:59.200:1,0.195,-1.205
00:32:59.204:1,0.165,-1.185
00:32:59.208:1,0.185,-1.165
00:32:59.212:1,0.13,-1.21
00:32:59.216:1,0.1,-1.215
00:32:59.220:1,0.145,-1.165
00:32:59.224:1,0.175,-1.135
00:32:59.228:1,0.15,-1.145
00:32:59.232:1,0.125,-1.085
00:32:59.236:1,0.165,-1.055
00:32:59.240:1,0.185,-1.08
00:32:59.244:1,0.195,-1.075
00:32:59.248:1,0.22,-1.055
00:32:59.252:1,0.215,-1.06
00:32:59.256:1,0.22,-1.05
00:32:59.260:1,0.195,-1.105
00:32:59.264:1,0.2,-1.195
00:32:59.268:1,0.205,-1.225
00:32:59.272:1,0.19,-1.205
00:32:59.276:1,0.24,-1.19
00:32:59.280:1,0.29,-1.215
00:32:59.284:1,0.27,-1.325
00:32:59.288:1,0.235,-1.345
00:32:59.292:1,0.22,-1.325
00:32:59.296:1,0.23,-1.315
00:32:59.300:1,0.185,-1.3
00:32:59.304:1,0.225,-1.34
00:32:59.308:1,0.215,-1.37
00:32:59.312:1,0.215,-1.4
00:32:59.316:1,0.21,-1.41
00:32:59.320:1,0.17,-1.41
00:32:59.324:1,0.13,-1.37
00:32:59.328:1,0.125,-1.355
00:32:59.332:1,0.14,-1.39
00:32:59.336:1,0.135,-1.395
00:32:59.340:1,0.105,-1.415
00:32:59.344:1,0.11,-1.43
00:32:59.348:1,0.085,-1.485
00:32:59.352:1,0.085,-1.465
00:32:59.356:1,0.09,-1.455
00:32:59.360:1,0.07,-1.455
00:32:59.364:1,0.065,-1.45
00:32:59.368:1,0.025,-1.48
00:32:59.372:1,-0.005,-1.47
00:32:59.376:1,0.05,-1.465
00:32:59.380:1,0.09,-1.48
00:32:59.384:1,0.07,-1.435
00:32:59.388:1,0.105,-1.38
00:32:59.392:1,0.1,-1.385
00:32:59.396:1,0.09,-1.42
00:32:59.400:1,0.055,-1.315
00:32:59.404:1,0.08,-1.305
00:32:59.408:1,0.095,-1.28
00:32:59.412:1,0.095,-1.24
00:32:59.416:1,0.08,-1.23
00:32:59.420:1,0.095,-1.215
00:32:59.424:1,0.09,-1.13
00:32:59.428:1,0.13,-1.09
00:32:59.432:1,0.17,-1.05
00:32:59.436:1,0.185,-1.02
00:32:59.440:1,0.165,-0.99
00:32:59.444:1,0.225,-1.0
00:32:59.448:1,0.26,-1.025
00:32:59.452:1,0.22,-1.06
00:32:59.456:1,0.24,-1.055
00:32:59.460:1,0.24,-1.06
00:32:59.464:1,0.26,-1.05
00:32:59.468:1,0.28,-1.125
00:32:59.472:1,0.265,-1.215
00:32:59.476:1,0.25,-1.255
00:32:59.480:1,0.265,-1.305
00:32:59.484:1,0.26,-1.29
00:32:59.488:1,0.245,-1.325
00:32:59.492:1,0.255,-1.305
00:32:59.496:1,0.26,-1.32
00:32:59.500:1,0.255,-1.31
00:32:59.504:1,0.235,-1.3
00:32:59.508:1,0.245,-1.245
00:32:59.512:1,0.235,-1.23
00:32:59.516:1,0.215,-1.245
00:32:59.520:1,0.18,-1.28
00:32:59.524:1,0.16,-1.275
00:32:59.528:1,0.18,-1.31
00:32:59.532:1,0.15,-1.315
00:32:59.536:1,0.14,-1.33
00:32:59.540:1,0.155,-1.36
00:32:59.544:1,0.16,-1.355
00:32:59.548:1,0.085,-1.36
00:32:59.552:1,0.085,-1.36
00:32:59.556:1,0.075,-1.36
00:32:59.560:1,0.075,-1.36
00:32:59.564:1,0.075,-1.28
00:32:59.568:1,0.055,-1.3
00:32:59.572:1,0.01,-1.34
00:32:59.576:1,0.015,-1.32
00:32:59.580:1,0.025,-1.29
00:32:59.584:1,0.015,-1.305
00:32:59.588:1,0.01,-1.27
00:32:59.592:1,0.0,-1.195
00:32:59.596:1,0.0,-1.14
00:32:59.600:1,0.025,-1.11
00:32:59.604:1,0.07,-1.06
00:32:59.608:1,0.075,-1.015
00:32:59.612:1,0.09,-0.9
00:32:59.616:1,0.115,-0.835
00:32:59.620:1,0.11,-0.77
00:32:59.624:1,0.11,-0.75
00:32:59.628:1,0.12,-0.81
00:32:59.632:1,0.135,-0.78
00:32:59.636:1,0.17,-0.785
00:32:59.640:1,0.2,-0.775
00:32:59.644:1,0.21,-0.725
00:32:59.648:1,0.19,-0.715
00:32:59.652:1,0.18,-0.76
00:32:59.656:1,0.21,-0.83
00:32:59.660:1,0.195,-0.77
00:32:59.664:1,0.21,-0.78
00:32:59.668:1,0.165,-0.82
00:32:59.672:1,0.18,-0.795
00:32:59.676:1,0.205,-0.725
00:32:59.680:1,0.275,-0.625
00:32:59.684:1,0.1,-0.64
00:32:59.688:1,-0.43,-0.625
00:32:59.692:1,-1.16,-0.315
00:32:59.696:1,-1.72,0.29
00:32:59.700:1,-1.99,0.905
00:32:59.704:1,-2.135,1.31
00:32:59.708:1,-2.17,1.18
00:32:59.712:1,-2.135,0.365
00:32:59.716:1,-1.99,-0.58
00:32:59.720:1,-1.72,-0.89
00:32:59.724:1,-1.175,-0.89
00:32:59.728:1,-0.7,-1.33
00:32:59.732:1,-0.38,-1.425
00:32:59.736:1,-0.06,-1.455
00:32:59.740:1,0.21,-1.27
00:32:59.744:1,0.285,-1.135
00:32:59.748:1,0.3,-0.945
00:32:59.752:1,0.285,-0.835
00:32:59.756:1,0.335,-0.81
00:32:59.760:1,0.35,-0.77
00:32:59.764:1,0.36,-0.72
00:32:59.768:1,0.35,-0.735
00:32:59.772:1,0.355,-0.695
00:32:59.776:1,0.345,-0.655
00:32:59.780:1,0.36,-0.585
00:32:59.784:1,0.395,-0.53
00:32:59.788:1,0.43,-0.43
00:32:59.792:1,0.465,-0.35
00:32:59.796:1,0.485,-0.26
00:32:59.800:1,0.495,-0.195
00:32:59.804:1,0.475,-0.215
00:32:59.808:1,0.465,-0.28
00:32:59.812:1,0.47,-0.32
00:32:59.816:1,0.475,-0.34
00:32:59.820:1,0.525,-0.32
00:32:59.824:1,0.56,-0.25
00:32:59.828:1,0.6,-0.24
00:32:59.832:1,0.605,-0.26
00:32:59.836:1,0.625,-0.31
00:32:59.840:1,0.605,-0.435
00:32:59.844:1,0.555,-0.515
00:32:59.848:1,0.595,-0.54
00:32:59.852:1,0.6,-0.505
00:32:59.856:1,0.585,-0.54
00:32:59.860:1,0.61,-0.555
00:32:59.864:1,0.615,-0.435
00:32:59.868:1,0.63,-0.41
00:32:59.872:1,0.645,-0.48
00:32:59.876:1,0.645,-0.545
00:32:59.880:1,0.65,-0.525
00:32:59.884:1,0.665,-0.5
00:32:59.888:1,0.645,-0.485
00:32:59.892:1,0.66,-0.505
00:32:59.896:1,0.67,-0.52
00:32:59.900:1,0.675,-0.55
00:32:59.904:1,0.655,-0.53
00:32:59.908:1,0.635,-0.57
00:32:59.912:1,0.63,-0.615
00:32:59.916:1,0.575,-0.67
00:32:59.920:1,0.555,-0.755
00:32:59.924:1,0.535,-0.83
00:32:59.928:1,0.51,-0.88
00:32:59.932:1,0.435,-0.745
00:32:59.936:1,0.365,-0.64
00:32:59.940:1,0.355,-0.67
00:32:59.944:1,0.345,-0.645
00:32:59.948:1,0.315,-0.55
00:32:59.952:1,0.325,-0.47
00:32:59.956:1,0.295,-0.42
00:32:59.960:1,0.265,-0.4
00:32:59.964:1,0.235,-0.405
00:32:59.968:1,0.225,-0.495
00:32:59.972:1,0.24,-0.44
00:32:59.976:1,0.265,-0.365
00:32:59.980:1,0.25,-0.24
00:32:59.984:1,0.24,-0.11
00:32:59.988:1,0.255,-0.09
00:32:59.992:1,0.265,-0.155
00:32:59.996:1,0.245,-0.22
00:33:00.000:1,0.25,-0.225
00:33:00.004:1,0.235,-0.185
00:33:00.008:1,0.26,-0.125
00:33:00.012:1,0.275,-0.09
00:33:00.016:1,0.285,-0.04
00:33:00.020:1,0.265,-0.035
00:33:00.024:1,0.25,-0.04
00:33:00.028:1,0.245,-0.11
00:33:00.032:1,0.245,-0.175
00:33:00.036:1,0.26,-0.275
00:33:00.040:1,0.225,-0.275
00:33:00.044:1,0.235,-0.165
00:33:00.048:1,0.235,-0.08
00:33:00.052:1,0.255,-0.06
00:33:00.056:1,0.27,-0.155
00:33:00.060:1,0.235,-0.26
00:33:00.064:1,0.235,-0.415
00:33:00.068:1,0.23,-0.435
00:33:00.072:1,0.22,-0.375
00:33:00.076:1,0.21,-0.33
00:33:00.080:1,0.21,-0.34
00:33:00.084:1,0.2,-0.375
00:33:00.088:1,0.23,-0.355
00:33:00.092:1,0.22,-0.35
00:33:00.096:1,0.19,-0.355
00:33:00.100:1,0.155,-0.345
00:33:00.104:1,0.17,-0.355
00:33:00.108:1,0.15,-0.4
00:33:00.112:1,0.165,-0.41
00:33:00.116:1,0.15,-0.415
00:33:00.120:1,0.115,-0.345
00:33:00.124:1,0.11,-0.365
00:33:00.128:1,0.13,-0.395
00:33:00.132:1,0.155,-0.475
00:33:00.136:1,0.155,-0.47
00:33:00.140:1,0.14,-0.515
00:33:00.144:1,0.155,-0.52
00:33:00.148:1,0.155,-0.53
00:33:00.152:1,0.15,-0.57
00:33:00.156:1,0.17,-0.535
00:33:00.160:1,0.215,-0.4
00:33:00.164:1,0.18,-0.31
00:33:00.168:1,0.175,-0.335
00:33:00.172:1,0.15,-0.38
00:33:00.176:1,0.125,-0.42
00:33:00.180:1,0.115,-0.495
00:33:00.184:1,0.13,-0.585
00:33:00.188:1,0.14,-0.555
00:33:00.192:1,0.145,-0.48
00:33:00.196:1,0.145,-0.47
00:33:00.200:1,0.17,-0.42
00:33:00.204:1,0.185,-0.345
00:33:00.208:1,0.195,-0.345
00:33:00.212:1,0.17,-0.45
00:33:00.216:1,0.115,-0.475
00:33:00.220:1,0.135,-0.55
00:33:00.224:1,0.125,-0.565
00:33:00.228:1,0.135,-0.52
00:33:00.232:1,0.115,-0.48
00:33:00.236:1,0.1,-0.425
00:33:00.240:1,0.095,-0.425
00:33:00.244:1,0.095,-0.455
00:33:00.248:1,0.095,-0.44
00:33:00.252:1,0.09,-0.425
00:33:00.256:1,0.07,-0.415
00:33:00.260:1,0.055,-0.495
00:33:00.264:1,0.055,-0.535
00:33:00.268:1,0.07,-0.555
00:33:00.272:1,0.06,-0.595
00:33:00.276:1,0.1,-0.67
00:33:00.280:1,0.075,-0.665
00:33:00.284:1,0.065,-0.66
00:33:00.288:1,0.035,-0.745
00:33:00.292:1,0.06,-0.73
00:33:00.296:1,0.045,-0.79
00:33:00.300:1,0.03,-0.725
00:33:00.304:1,0.11,-0.57
00:33:00.308:1,0.15,-0.47
00:33:00.312:1,0.17,-0.46
00:33:00.316:1,-0.2,-0.39
00:33:00.320:1,-0.805,-0.05
00:33:00.324:1,-1.49,0.435
00:33:00.328:1,-1.865,1.14
00:33:00.332:1,-2.055,1.895
00:33:00.336:1,-2.085,1.845
00:33:00.340:1,-1.955,0.92
00:33:00.344:1,-1.775,-0.055
00:33:00.348:1,-1.425,-0.36
00:33:00.352:1,-0.875,-0.66
00:33:00.356:1,-0.535,-1.195
00:33:00.360:1,-0.365,-1.265
00:33:00.364:1,-0.185,-1.255
00:33:00.368:1,0.095,-1.12
00:33:00.372:1,0.325,-0.955
00:33:00.376:1,0.415,-0.77
00:33:00.380:1,0.445,-0.58
00:33:00.384:1,0.495,-0.47
00:33:00.388:1,0.5,-0.465
00:33:00.392:1,0.495,-0.53
00:33:00.396:1,0.475,-0.565
00:33:00.400:1,0.475,-0.44
00:33:00.404:1,0.46,-0.395
00:33:00.408:1,0.465,-0.345
00:33:00.412:1,0.495,-0.245
00:33:00.416:1,0.49,-0.22
00:33:00.420:1,0.475,-0.265
00:33:00.424:1,0.46,-0.355
00:33:00.428:1,0.445,-0.415
00:33:00.432:1,0.435,-0.47
00:33:00.436:1,0.41,-0.45
00:33:00.440:1,0.415,-0.425
00:33:00.444:1,0.44,-0.42
00:33:00.448:1,0.46,-0.48
00:33:00.452:1,0.47,-0.58
00:33:00.456:1,0.47,-0.6
00:33:00.460:1,0.445,-0.63
00:33:00.464:1,0.445,-0.64
00:33:00.468:1,0.42,-0.72
00:33:00.472:1,0.43,-0.75
00:33:00.476:1,0.44,-0.755
00:33:00.480:1,0.475,-0.825
00:33:00.484:1,0.45,-0.865
00:33:00.488:1,0.46,-0.855
00:33:00.492:1,0.455,-0.825
00:33:00.496:1,0.455,-0.86
00:33:00.500:1,0.44,-0.89
00:33:00.504:1,0.43,-0.985
00:33:00.508:1,0.42,-1.035
00:33:00.512:1,0.425,-1.005
00:33:00.516:1,0.435,-1.04
00:33:00.520:1,0.44,-1.08
00:33:00.524:1,0.46,-1.07
00:33:00.528:1,0.49,-1.02
00:33:00.532:1,0.46,-0.96
00:33:00.536:1,0.435,-0.955
00:33:00.540:1,0.39,-1.02
00:33:00.544:1,0.365,-1.135
00:33:00.548:1,0.35,-1.22
00:33:00.552:1,0.34,-1.24
00:33:00.556:1,0.33,-1.175
00:33:00.560:1,0.325,-1.175
00:33:00.564:1,0.335,-1.15
00:33:00.568:1,0.34,-1.085
00:33:00.572:1,0.34,-1.05
00:33:00.576:1,0.305,-1.055
00:33:00.580:1,0.28,-1.08
00:33:00.584:1,0.27,-1.105
00:33:00.588:1,0.265,-1.195
00:33:00.592:1,0.26,-1.17
00:33:00.596:1,0.27,-1.085
00:33:00.600:1,0.315,-0.985
00:33:00.604:1,0.285,-0.955
00:33:00.608:1,0.245,-0.975
00:33:00.612:1,0.245,-0.955
00:33:00.616:1,0.24,-0.975
00:33:00.620:1,0.245,-0.935
00:33:00.624:1,0.21,-0.96
00:33:00.628:1,0.205,-1.025
00:33:00.632:1,0.2,-1.04
00:33:00.636:1,0.19,-1.06
00:33:00.640:1,0.19,-1.08
00:33:00.644:1,0.22,-1.065
00:33:00.648:1,0.19,-1.045
00:33:00.652:1,0.175,-1.03
00:33:00.656:1,0.165,-1.07
00:33:00.660:1,0.19,-1.07
00:33:00.664:1,0.185,-1.11
00:33:00.668:1,0.18,-1.135
00:33:00.672:1,0.19,-1.14
00:33:00.676:1,0.18,-1.115
00:33:00.680:1,0.2,-1.1
00:33:00.684:1,0.17,-1.085
00:33:00.688:1,0.14,-1.09
00:33:00.692:1,0.15,-1.115
00:33:00.696:1,0.145,-1.14
00:33:00.700:1,0.155,-1.15
00:33:00.704:1,0.17,-1.09
00:33:00.708:1,0.18,-1.065
00:33:00.712:1,0.195,-1.16
00:33:00.716:1,0.205,-1.15
00:33:00.720:1,0.23,-1.145
00:33:00.724:1,0.225,-1.11
00:33:00.728:1,0.235,-1.165
00:33:00.732:1,0.235,-1.225
00:33:00.736:1,0.235,-1.29
00:33:00.740:1,0.275,-1.385
00:33:00.744:1,0.27,-1.39
00:33:00.748:1,0.295,-1.4
00:33:00.752:1,0.275,-1.415
00:33:00.756:1,0.285,-1.395
00:33:00.760:1,0.27,-1.39
00:33:00.764:1,0.27,-1.465
00:33:00.768:1,0.285,-1.51
00:33:00.772:1,0.245,-1.565
00:33:00.776:1,0.275,-1.6
00:33:00.780:1,0.27,-1.555
00:33:00.784:1,0.23,-1.52
00:33:00.788:1,0.2,-1.49
00:33:00.792:1,0.19,-1.49
00:33:00.796:1,0.175,-1.505
00:33:00.800:1,0.175,-1.535
00:33:00.804:1,0.16,-1.585
00:33:00.808:1,0.13,-1.605
00:33:00.812:1,0.12,-1.64
00:33:00.816:1,0.14,-1.64
00:33:00.820:1,0.13,-1.695
00:33:00.824:1,0.105,-1.73
00:33:00.828:1,0.095,-1.71
00:33:00.832:1,0.075,-1.66
00:33:00.836:1,0.06,-1.65
00:33:00.840:1,0.055,-1.64
00:33:00.844:1,0.05,-1.645
00:33:00.848:1,0.06,-1.625
00:33:00.852:1,0.05,-1.62
00:33:00.856:1,0.045,-1.645
00:33:00.860:1,0.05,-1.63
00:33:00.864:1,0.07,-1.63
00:33:00.868:1,0.02,-1.59
00:33:00.872:1,0.02,-1.53
00:33:00.876:1,0.03,-1.49
00:33:00.880:1,0.025,-1.465
00:33:00.884:1,0.035,-1.35
00:33:00.888:1,0.12,-1.3
00:33:00.892:1,-0.02,-1.3
00:33:00.896:1,-0.59,-1.255
00:33:00.900:1,-1.26,-0.94
00:33:00.904:1,-1.78,-0.33
00:33:00.908:1,-2.06,0.315
00:33:00.912:1,-2.21,0.79
00:33:00.916:1,-2.235,0.55
00:33:00.920:1,-2.165,-0.31
00:33:00.924:1,-1.965,-0.97
00:33:00.928:1,-1.48,-1.035
00:33:00.932:1,-1.005,-1.255
00:33:00.936:1,-0.64,-1.73
00:33:00.940:1,-0.37,-1.775
00:33:00.944:1,-0.07,-1.725
00:33:00.948:1,0.17,-1.665
00:33:00.952:1,0.36,-1.53
00:33:00.956:1,0.405,-1.43
00:33:00.960:1,0.415,-1.28
00:33:00.964:1,0.41,-1.245
00:33:00.968:1,0.445,-1.15
00:33:00.972:1,0.47,-1.115
00:33:00.976:1,0.48,-1.09
00:33:00.980:1,0.475,-1.12
00:33:00.984:1,0.465,-1.125
00:33:00.988:1,0.475,-1.145
00:33:00.992:1,0.485,-1.185
00:33:00.996:1,0.465,-1.22
00:33:01.000:1,0.455,-1.185
00:33:01.004:1,0.475,-1.15
00:33:01.008:1,0.47,-1.095
00:33:01.012:1,0.505,-1.13
00:33:01.016:1,0.475,-1.165
00:33:01.020:1,0.485,-1.16
00:33:01.024:1,0.475,-1.145
00:33:01.028:1,0.49,-1.24
00:33:01.032:1,0.5,-1.265
00:33:01.036:1,0.48,-1.27
00:33:01.040:1,0.5,-1.2
00:33:01.044:1,0.52,-1.19
00:33:01.048:1,0.5,-1.255
00:33:01.052:1,0.5,-1.33
00:33:01.056:1,0.5,-1.31
00:33:01.060:1,0.5,-1.295
00:33:01.064:1,0.535,-1.325
00:33:01.068:1,0.505,-1.33
00:33:01.072:1,0.51,-1.305
00:33:01.076:1,0.52,-1.275
00:33:01.080:1,0.525,-1.235
00:33:01.084:1,0.555,-1.225
00:33:01.088:1,0.575,-1.24
00:33:01.092:1,0.57,-1.23
00:33:01.096:1,0.565,-1.205
00:33:01.100:1,0.595,-1.23
00:33:01.104:1,0.595,-1.27
00:33:01.108:1,0.54,-1.275
00:33:01.112:1,0.525,-1.28
00:33:01.116:1,0.515,-1.255
00:33:01.120:1,0.575,-1.27
00:33:01.124:1,0.54,-1.26
00:33:01.128:1,0.525,-1.28
00:33:01.132:1,0.5,-1.265
00:33:01.136:1,0.465,-1.275
00:33:01.140:1,0.435,-1.295
00:33:01.144:1,0.395,-1.31
00:33:01.148:1,0.365,-1.345
00:33:01.152:1,0.35,-1.27
00:33:01.156:1,0.37,-1.22
00:33:01.160:1,0.35,-1.16
00:33:01.164:1,0.335,-1.105
00:33:01.168:1,0.31,-1.095
00:33:01.172:1,0.285,-1.085
00:33:01.176:1,0.285,-1.07
00:33:01.180:1,0.26,-1.06
00:33:01.184:1,0.245,-1.045
00:33:01.188:1,0.25,-1.025
00:33:01.192:1,0.275,-0.96
00:33:01.196:1,0.255,-0.965
00:33:01.200:1,0.235,-1.005
00:33:01.204:1,0.265,-1.02
00:33:01.208:1,0.23,-1.01
00:33:01.212:1,0.245,-1.045
00:33:01.216:1,0.22,-1.06
00:33:01.220:1,0.165,-1.045
00:33:01.224:1,0.17,-1.01
00:33:01.228:1,0.195,-1.01
00:33:01.232:1,0.175,-1.07
00:33:01.236:1,0.175,-1.105
00:33:01.240:1,0.165,-1.125
00:33:01.244:1,0.155,-1.09
00:33:01.248:1,0.14,-1.05
00:33:01.252:1,0.14,-1.0
00:33:01.256:1,0.13,-0.96
00:33:01.260:1,0.11,-0.98
00:33:01.264:1,0.1,-1.01
00:33:01.268:1,0.11,-1.015
00:33:01.272:1,0.13,-0.995
00:33:01.276:1,0.15,-0.93
00:33:01.280:1,0.175,-0.86
00:33:01.284:1,0.195,-0.805
00:33:01.288:1,0.195,-0.7
00:33:01.292:1,0.185,-0.75
00:33:01.296:1,0.125,-0.81
00:33:01.300:1,0.14,-0.9
00:33:01.304:1,0.16,-0.89
00:33:01.308:1,0.14,-0.795
00:33:01.312:1,0.16,-0.795
00:33:01.316:1,0.17,-0.77
00:33:01.320:1,0.185,-0.79
00:33:01.324:1,0.175,-0.745
00:33:01.328:1,0.19,-0.77
00:33:01.332:1,0.185,-0.915
00:33:01.336:1,0.17,-1.005
00:33:01.340:1,0.17,-0.99
00:33:01.344:1,0.155,-1.0
00:33:01.348:1,0.115,-1.045
00:33:01.352:1,0.12,-1.08
00:33:01.356:1,0.12,-1.015
00:33:01.360:1,0.135,-0.91
00:33:01.364:1,0.18,-0.835
00:33:01.368:1,0.22,-0.925
00:33:01.372:1,-0.075,-0.955
00:33:01.376:1,-0.75,-0.85
00:33:01.380:1,-1.435,-0.485
00:33:01.384:1,-1.915,0.205
00:33:01.388:1,-2.215,0.915
00:33:01.392:1,-2.29,1.23
00:33:01.396:1,-2.31,0.735
00:33:01.400:1,-2.315,-0.215
00:33:01.404:1,-2.245,-0.955
00:33:01.408:1,-1.925,-1.28
00:33:01.412:1,-1.465,-1.22
00:33:01.416:1,-0.94,-1.465
00:33:01.420:1,-0.515,-1.53
00:33:01.424:1,-0.15,-1.44
00:33:01.428:1,0.125,-1.35
00:33:01.432:1,0.275,-1.3
00:33:01.436:1,0.32,-1.185
00:33:01.440:1,0.315,-0.925
00:33:01.444:1,0.35,-0.815
00:33:01.448:1,0.36,-0.765
00:33:01.452:1,0.385,-0.72
00:33:01.456:1,0.41,-0.72
00:33:01.460:1,0.405,-0.675
00:33:01.464:1,0.425,-0.6
00:33:01.468:1,0.48,-0.555
00:33:01.472:1,0.5,-0.54
00:33:01.476:1,0.49,-0.56
00:33:01.480:1,0.495,-0.505
00:33:01.484:1,0.49,-0.49
00:33:01.488:1,0.495,-0.44
00:33:01.492:1,0.505,-0.42
00:33:01.496:1,0.53,-0.43
00:33:01.500:1,0.53,-0.45
00:33:01.504:1,0.56,-0.495
00:33:01.508:1,0.57,-0.515
00:33:01.512:1,0.565,-0.545
00:33:01.516:1,0.585,-0.54
00:33:01.520:1,0.57,-0.53
00:33:01.524:1,0.575,-0.49
00:33:01.528:1,0.545,-0.505
00:33:01.532:1,0.57,-0.515
00:33:01.536:1,0.585,-0.525
00:33:01.540:1,0.565,-0.48
00:33:01.544:1,0.565,-0.425
00:33:01.548:1,0.585,-0.385
00:33:01.552:1,0.58,-0.38
00:33:01.556:1,0.585,-0.495
00:33:01.560:1,0.565,-0.565
00:33:01.564:1,0.58,-0.565
00:33:01.568:1,0.555,-0.575
00:33:01.572:1,0.55,-0.615
00:33:01.576:1,0.535,-0.64
00:33:01.580:1,0.515,-0.66
00:33:01.584:1,0.52,-0.72
00:33:01.588:1,0.51,-0.775
00:33:01.592:1,0.49,-0.805
00:33:01.596:1,0.43,-0.835
00:33:01.600:1,0.41,-0.865
00:33:01.604:1,0.385,-0.9
00:33:01.608:1,0.335,-0.93
00:33:01.612:1,0.31,-0.86
00:33:01.616:1,0.305,-0.79
00:33:01.620:1,0.29,-0.74
00:33:01.624:1,0.295,-0.73
00:33:01.628:1,0.26,-0.71
00:33:01.632:1,0.245,-0.67
00:33:01.636:1,0.24,-0.695
00:33:01.640:1,0.26,-0.695
00:33:01.644:1,0.245,-0.62
00:33:01.648:1,0.285,-0.525
00:33:01.652:1,0.315,-0.48
00:33:01.656:1,0.325,-0.48
00:33:01.660:1,0.31,-0.5
00:33:01.664:1,0.295,-0.495
00:33:01.668:1,0.295,-0.46
00:33:01.672:1,0.345,-0.41
00:33:01.676:1,0.3,-0.42
00:33:01.680:1,0.285,-0.525
00:33:01.684:1,0.285,-0.575
00:33:01.688:1,0.31,-0.575
00:33:01.692:1,0.315,-0.56
00:33:01.696:1,0.33,-0.545
00:33:01.700:1,0.34,-0.52
00:33:01.704:1,0.325,-0.55
00:33:01.708:1,0.31,-0.615
00:33:01.712:1,0.305,-0.665
00:33:01.716:1,0.31,-0.635
00:33:01.720:1,0.315,-0.59
00:33:01.724:1,0.28,-0.585
00:33:01.728:1,0.285,-0.545
00:33:01.732:1,0.23,-0.525
00:33:01.736:1,0.24,-0.515
00:33:01.740:1,0.205,-0.485
00:33:01.744:1,0.195,-0.475
00:33:01.748:1,0.18,-0.47
00:33:01.752:1,0.165,-0.45
00:33:01.756:1,0.165,-0.44
00:33:01.760:1,0.16,-0.415
00:33:01.764:1,0.165,-0.38
00:33:01.768:1,0.17,-0.355
00:33:01.772:1,0.17,-0.415
00:33:01.776:1,0.18,-0.525
00:33:01.780:1,0.18,-0.525
00:33:01.784:1,0.155,-0.49
00:33:01.788:1,0.14,-0.505
00:33:01.792:1,0.14,-0.58
00:33:01.796:1,0.12,-0.605
00:33:01.800:1,0.14,-0.64
00:33:01.804:1,0.12,-0.605
00:33:01.808:1,0.095,-0.58
00:33:01.812:1,0.13,-0.555
00:33:01.816:1,0.13,-0.49
00:33:01.820:1,0.11,-0.45
00:33:01.824:1,0.105,-0.43
00:33:01.828:1,0.105,-0.45
00:33:01.832:1,0.14,-0.48
00:33:01.836:1,0.125,-0.52
00:33:01.840:1,0.115,-0.52
00:33:01.844:1,0.16,-0.46
00:33:01.848:1,0.175,-0.42
00:33:01.852:1,0.215,-0.33
00:33:01.856:1,0.2,-0.305
00:33:01.860:1,0.185,-0.385
00:33:01.864:1,0.175,-0.49
00:33:01.868:1,0.17,-0.485
00:33:01.872:1,0.18,-0.5
00:33:01.876:1,0.185,-0.545
00:33:01.880:1,0.195,-0.53
00:33:01.884:1,0.235,-0.515
00:33:01.888:1,0.245,-0.515
00:33:01.892:1,0.245,-0.48
00:33:01.896:1,0.26,-0.5
00:33:01.900:1,0.195,-0.515
00:33:01.904:1,0.175,-0.545
00:33:01.908:1,0.15,-0.485
00:33:01.912:1,0.125,-0.445
00:33:01.916:1,0.135,-0.45
00:33:01.920:1,0.125,-0.47
00:33:01.924:1,0.14,-0.5
00:33:01.928:1,0.13,-0.505
00:33:01.932:1,0.11,-0.51
00:33:01.936:1,0.105,-0.485
00:33:01.940:1,0.085,-0.535
00:33:01.944:1,0.065,-0.48
00:33:01.948:1,0.12,-0.43
00:33:01.952:1,-0.01,-0.46
00:33:01.956:1,-0.545,-0.49
00:33:01.960:1,-1.215,-0.27
00:33:01.964:1,-1.79,0.23
00:33:01.968:1,-2.13,0.81
00:33:01.972:1,-2.35,1.39
00:33:01.976:1,-2.42,1.59
00:33:01.980:1,-2.41,1.155
00:33:01.984:1,-2.35,0.29
00:33:01.988:1,-2.205,-0.41
00:33:01.992:1,-1.745,-0.53
00:33:01.996:1,-1.21,-0.58
00:33:02.000:1,-0.75,-0.97
00:33:02.004:1,-0.38,-0.915
00:33:02.008:1,-0.055,-0.785
00:33:02.012:1,0.165,-0.585
00:33:02.016:1,0.25,-0.46
00:33:02.020:1,0.24,-0.285
00:33:02.024:1,0.245,-0.135
00:33:02.028:1,0.3,-0.105
00:33:02.032:1,0.365,-0.12
00:33:02.036:1,0.405,-0.115
00:33:02.040:1,0.425,-0.1
00:33:02.044:1,0.445,-0.03
00:33:02.048:1,0.46,-0.005
00:33:02.052:1,0.455,0.06
00:33:02.056:1,0.465,0.095
00:33:02.060:1,0.485,0.1
00:33:02.064:1,0.51,0.075
00:33:02.068:1,0.54,0.09
00:33:02.072:1,0.565,0.095
00:33:02.076:1,0.595,0.165
00:33:02.080:1,0.66,0.155
00:33:02.084:1,0.67,0.225
00:33:02.088:1,0.675,0.265
00:33:02.092:1,0.65,0.205
00:33:02.096:1,0.66,0.075
00:33:02.100:1,0.645,-0.02
00:33:02.104:1,0.62,-0.015
00:33:02.108:1,0.65,-0.035
00:33:02.112:1,0.7,-0.03
00:33:02.116:1,0.7,0.01
00:33:02.120:1,0.725,0.045
00:33:02.124:1,0.68,0.07
00:33:02.128:1,0.67,0.07
00:33:02.132:1,0.685,0.06
00:33:02.136:1,0.72,0.01
00:33:02.140:1,0.73,0.03
00:33:02.144:1,0.73,0.01
00:33:02.148:1,0.725,-0.005
00:33:02.152:1,0.71,0.0
00:33:02.156:1,0.71,0.0
00:33:02.160:1,0.7,-0.005
00:33:02.164:1,0.66,-0.055
00:33:02.168:1,0.63,-0.12
00:33:02.172:1,0.635,-0.12
00:33:02.176:1,0.65,-0.185
00:33:02.180:1,0.615,-0.23
00:33:02.184:1,0.605,-0.25
00:33:02.188:1,0.61,-0.22
00:33:02.192:1,0.575,-0.22
00:33:02.196:1,0.515,-0.16
00:33:02.200:1,0.485,-0.095
00:33:02.204:1,0.44,-0.02
00:33:02.208:1,0.4,0.01
00:33:02.212:1,0.41,0.035
00:33:02.216:1,0.395,0.01
00:33:02.220:1,0.38,0.055
00:33:02.224:1,0.395,0.095
00:33:02.228:1,0.405,0.18
00:33:02.232:1,0.38,0.205
00:33:02.236:1,0.365,0.25
00:33:02.240:1,0.35,0.26
00:33:02.244:1,0.315,0.24
00:33:02.248:1,0.33,0.17
00:33:02.252:1,0.305,0.14
00:33:02.256:1,0.275,0.055
00:33:02.260:1,0.335,0.04
00:33:02.264:1,0.345,0.06
00:33:02.268:1,0.355,0.07
00:33:02.272:1,0.37,0.045
00:33:02.276:1,0.37,0.025
00:33:02.280:1,0.335,0.005
00:33:02.284:1,0.295,-0.01
00:33:02.288:1,0.28,-0.06
00:33:02.292:1,0.295,-0.065
00:33:02.296:1,0.275,-0.05
00:33:02.300:1,0.245,-0.015
00:33:02.304:1,0.245,0.0
00:33:02.308:1,0.225,0.005
00:33:02.312:1,0.235,-0.035
00:33:02.316:1,0.215,-0.045
00:33:02.320:1,0.215,-0.07
00:33:02.324:1,0.195,-0.1
00:33:02.328:1,0.155,-0.07
00:33:02.332:1,0.155,-0.035
00:33:02.336:1,0.17,-0.005
00:33:02.340:1,0.155,-0.02
00:33:02.344:1,0.155,-0.01
00:33:02.348:1,0.145,-0.015
00:33:02.352:1,0.12,-0.02
00:33:02.356:1,0.1,-0.135
00:33:02.360:1,0.095,-0.18
00:33:02.364:1,0.08,-0.21
00:33:02.368:1,0.11,-0.07
00:33:02.372:1,0.13,0.055
00:33:02.376:1,-0.26,0.105
00:33:02.380:1,-0.885,0.23
00:33:02.384:1,-1.48,0.615
00:33:02.388:1,-1.955,1.1
00:33:02.392:1,-2.28,1.635
00:33:02.396:1,-2.51,1.975
00:33:02.400:1,-2.475,1.35
00:33:02.404:1,-2.37,0.285
00:33:02.408:1,-2.155,-0.25
00:33:02.412:1,-1.635,-0.14
00:33:02.416:1,-1.0,-0.195
00:33:02.420:1,-0.58,-0.38
00:33:02.424:1,-0.185,-0.265
00:33:02.428:1,0.15,-0.16
00:33:02.432:1,0.39,0.085
00:33:02.436:1,0.42,0.23
00:33:02.440:1,0.465,0.445
00:33:02.444:1,0.48,0.59
00:33:02.448:1,0.52,0.595
00:33:02.452:1,0.56,0.55
00:33:02.456:1,0.595,0.59
00:33:02.460:1,0.62,0.635
00:33:02.464:1,0.61,0.68
00:33:02.468:1,0.595,0.55
00:33:02.472:1,0.615,0.435
00:33:02.476:1,0.615,0.36
00:33:02.480:1,0.625,0.37
00:33:02.484:1,0.625,0.425
00:33:02.488:1,0.665,0.49
00:33:02.492:1,0.645,0.515
00:33:02.496:1,0.605,0.51
00:33:02.500:1,0.59,0.465
00:33:02.504:1,0.57,0.42
00:33:02.508:1,0.56,0.385
00:33:02.512:1,0.56,0.395
00:33:02.516:1,0.525,0.375
00:33:02.520:1,0.525,0.42
00:33:02.524:1,0.51,0.38
00:33:02.528:1,0.525,0.37
00:33:02.532:1,0.53,0.415
00:33:02.536:1,0.53,0.48
00:33:02.540:1,0.54,0.485
00:33:02.544:1,0.505,0.4
00:33:02.548:1,0.495,0.32
00:33:02.552:1,0.505,0.34
00:33:02.556:1,0.475,0.265
00:33:02.560:1,0.47,0.205
00:33:02.564:1,0.48,0.15
00:33:02.568:1,0.455,0.13
00:33:02.572:1,0.43,0.145
00:33:02.576:1,0.405,0.24
00:33:02.580:1,0.42,0.295
00:33:02.584:1,0.37,0.295
00:33:02.588:1,0.355,0.32
00:33:02.592:1,0.375,0.33
00:33:02.596:1,0.365,0.29
00:33:02.600:1,0.36,0.245
00:33:02.604:1,0.365,0.295
00:33:02.608:1,0.375,0.395
00:33:02.612:1,0.325,0.385
00:33:02.616:1,0.295,0.325
00:33:02.620:1,0.31,0.3
00:33:02.624:1,0.265,0.31
00:33:02.628:1,0.27,0.33
00:33:02.632:1,0.305,0.335
00:33:02.636:1,0.33,0.325
00:33:02.640:1,0.33,0.275
00:33:02.644:1,0.36,0.325
00:33:02.648:1,0.365,0.385
00:33:02.652:1,0.355,0.38
00:33:02.656:1,0.35,0.3
00:33:02.660:1,0.325,0.235
00:33:02.664:1,0.33,0.25
00:33:02.668:1,0.335,0.27
00:33:02.672:1,0.37,0.275
00:33:02.676:1,0.365,0.315
00:33:02.680:1,0.355,0.37
00:33:02.684:1,0.365,0.42
00:33:02.688:1,0.345,0.425
00:33:02.692:1,0.33,0.405
00:33:02.696:1,0.335,0.375
00:33:02.700:1,0.325,0.33
00:33:02.704:1,0.32,0.31
00:33:02.708:1,0.27,0.315
00:33:02.712:1,0.28,0.335
00:33:02.716:1,0.245,0.325
00:33:02.720:1,0.255,0.315
00:33:02.724:1,0.205,0.37
00:33:02.728:1,0.165,0.38
00:33:02.732:1,0.17,0.375
00:33:02.736:1,0.135,0.345
00:33:02.740:1,0.145,0.315
00:33:02.744:1,0.135,0.31
00:33:02.748:1,0.12,0.34
00:33:02.752:1,0.14,0.35
00:33:02.756:1,0.1,0.315
00:33:02.760:1,0.115,0.3
00:33:02.764:1,0.055,0.405
00:33:02.768:1,0.06,0.43
00:33:02.772:1,0.07,0.43
00:33:02.776:1,0.135,0.48
00:33:02.780:1,0.135,0.55
00:33:02.784:1,0.145,0.655
00:33:02.788:1,0.155,0.64
00:33:02.792:1,0.19,0.62
00:33:02.796:1,0.16,0.615
00:33:02.800:1,0.165,0.65
00:33:02.804:1,0.165,0.675
00:33:02.808:1,0.115,0.595
00:33:02.812:1,0.125,0.625
00:33:02.816:1,0.165,0.625
00:33:02.820:1,0.185,0.64
00:33:02.824:1,0.235,0.605
00:33:02.828:1,0.23,0.585
00:33:02.832:1,0.225,0.635
00:33:02.836:1,0.195,0.61
00:33:02.840:1,0.19,0.555
00:33:02.844:1,0.185,0.54
00:33:02.848:1,0.185,0.585
00:33:02.852:1,0.185,0.55
00:33:02.856:1,0.19,0.575
00:33:02.860:1,0.195,0.615
00:33:02.864:1,0.19,0.64
00:33:02.868:1,0.19,0.69
00:33:02.872:1,0.195,0.765
00:33:02.876:1,0.175,0.705
00:33:02.880:1,0.145,0.615
00:33:02.884:1,0.17,0.605
00:33:02.888:1,0.18,0.595
00:33:02.892:1,0.15,0.745
00:33:02.896:1,0.19,0.76
00:33:02.900:1,0.175,0.72
00:33:02.904:1,0.195,0.69
00:33:02.908:1,0.22,0.7
00:33:02.912:1,0.17,0.625
00:33:02.916:1,0.18,0.545
00:33:02.920:1,0.155,0.535
00:33:02.924:1,0.125,0.495
00:33:02.928:1,0.13,0.5
00:33:02.932:1,0.13,0.53
00:33:02.936:1,0.145,0.57
00:33:02.940:1,0.11,0.665
00:33:02.944:1,0.095,0.705
00:33:02.948:1,0.1,0.72
00:33:02.952:1,0.08,0.7
00:33:02.956:1,0.085,0.69
00:33:02.960:1,0.09,0.67
00:33:02.964:1,0.125,0.645
00:33:02.968:1,0.13,0.69
00:33:02.972:1,0.165,0.795
00:33:02.976:1,0.195,0.82
00:33:02.980:1,0.18,0.795
00:33:02.984:1,0.165,0.795
00:33:02.988:1,0.155,0.66
00:33:02.992:1,0.135,0.605
00:33:02.996:1,0.13,0.68
00:33:03.000:1,0.155,0.77
00:33:03.004:1,0.185,0.8
00:33:03.008:1,0.23,0.795
00:33:03.012:1,0.255,0.83
00:33:03.016:1,0.26,0.86
00:33:03.020:1,0.23,0.725
00:33:03.024:1,0.2,0.595
00:33:03.028:1,0.195,0.575
00:33:03.032:1,0.21,0.595
00:33:03.036:1,0.18,0.565
00:33:03.040:1,0.18,0.61
00:33:03.044:1,0.185,0.635
00:33:03.048:1,0.185,0.675
00:33:03.052:1,0.185,0.73
00:33:03.056:1,0.17,0.705
00:33:03.060:1,0.15,0.575
00:33:03.064:1,0.145,0.475
00:33:03.068:1,0.135,0.55
00:33:03.072:1,0.13,0.615
00:33:03.076:1,0.125,0.555
00:33:03.080:1,0.13,0.485
00:33:03.084:1,0.135,0.54
00:33:03.088:1,0.125,0.62
00:33:03.092:1,0.125,0.6
00:33:03.096:1,0.1,0.525
00:33:03.100:1,0.065,0.475
00:33:03.104:1,0.075,0.5
00:33:03.108:1,0.065,0.565
00:33:03.112:1,0.065,0.635
00:33:03.116:1,0.06,0.695
00:33:03.120:1,0.085,0.78
00:33:03.124:1,0.125,0.855
00:33:03.128:1,0.05,0.84
00:33:03.132:1,-0.41,0.85
00:33:03.136:1,-0.945,1.17
00:33:03.140:1,-1.495,1.65
00:33:03.144:1,-1.905,2.21
00:33:03.148:1,-2.13,2.755
00:33:03.152:1,-2.26,3.065
00:33:03.156:1,-2.25,2.575
00:33:03.160:1,-2.11,1.655
00:33:03.164:1,-1.855,1.015
00:33:03.168:1,-1.345,0.92
00:33:03.172:1,-0.835,0.505
00:33:03.176:1,-0.48,0.265
00:33:03.180:1,-0.2,0.25
00:33:03.184:1,0.09,0.395
00:33:03.188:1,0.35,0.545
00:33:03.192:1,0.435,0.54
00:33:03.196:1,0.445,0.7
00:33:03.200:1,0.455,0.92
00:33:03.204:1,0.47,0.905
00:33:03.208:1,0.435,0.875
00:33:03.212:1,0.48,0.91
00:33:03.216:1,0.49,1.005
00:33:03.220:1,0.465,1.125
00:33:03.224:1,0.49,1.23
00:33:03.228:1,0.515,1.215
00:33:03.232:1,0.5,1.245
00:33:03.236:1,0.495,1.295
00:33:03.240:1,0.5,1.315
00:33:03.244:1,0.515,1.215
00:33:03.248:1,0.525,1.17
00:33:03.252:1,0.525,1.155
00:33:03.256:1,0.535,1.055
00:33:03.260:1,0.575,0.995
00:33:03.264:1,0.575,0.985
00:33:03.268:1,0.56,0.965
00:33:03.272:1,0.545,0.945
00:33:03.276:1,0.515,0.99
00:33:03.280:1,0.555,0.985
00:33:03.284:1,0.525,0.935
00:33:03.288:1,0.515,0.92
00:33:03.292:1,0.53,0.895
00:33:03.296:1,0.53,0.925
00:33:03.300:1,0.55,0.975
00:33:03.304:1,0.56,1.005
00:33:03.308:1,0.545,0.95
00:33:03.312:1,0.535,0.9
00:33:03.316:1,0.555,0.9
00:33:03.320:1,0.54,0.935
00:33:03.324:1,0.55,1.055
00:33:03.328:1,0.59,1.145
00:33:03.332:1,0.635,1.1
00:33:03.336:1,0.645,1.04
00:33:03.340:1,0.67,1.065
00:33:03.344:1,0.68,1.07
00:33:03.348:1,0.695,1.01
00:33:03.352:1,0.68,1.045
00:33:03.356:1,0.63,1.0
00:33:03.360:1,0.615,1.045
00:33:03.364:1,0.57,1.11
00:33:03.368:1,0.575,1.085
00:33:03.372:1,0.58,0.94
00:33:03.376:1,0.545,0.76
00:33:03.380:1,0.54,0.67
00:33:03.384:1,0.49,0.77
00:33:03.388:1,0.48,0.915
00:33:03.392:1,0.425,0.925
00:33:03.396:1,0.385,0.915
00:33:03.400:1,0.385,0.91
00:33:03.404:1,0.37,0.975
00:33:03.408:1,0.36,0.955
00:33:03.412:1,0.325,0.965
00:33:03.416:1,0.305,1.04
00:33:03.420:1,0.285,1.095
00:33:03.424:1,0.28,1.125
00:33:03.428:1,0.27,1.17
00:33:03.432:1,0.29,1.27
00:33:03.436:1,0.235,1.285
00:33:03.440:1,0.255,1.32
00:33:03.444:1,0.24,1.31
00:33:03.448:1,0.265,1.235
00:33:03.452:1,0.27,1.17
00:33:03.456:1,0.25,1.18
00:33:03.460:1,0.225,1.195
00:33:03.464:1,0.225,1.095
00:33:03.468:1,0.225,0.995
00:33:03.472:1,0.2,0.93
00:33:03.476:1,0.23,0.98
00:33:03.480:1,0.2,1.095
00:33:03.484:1,0.205,1.16
00:33:03.488:1,0.22,1.145
00:33:03.492:1,0.215,1.12
00:33:03.496:1,0.17,1.06
00:33:03.500:1,0.195,1.075
00:33:03.504:1,0.185,1.115
00:33:03.508:1,0.16,1.12
00:33:03.512:1,0.15,1.205
00:33:03.516:1,0.18,1.255
00:33:03.520:1,0.205,1.24
00:33:03.524:1,0.175,1.22
00:33:03.528:1,0.22,1.285
00:33:03.532:1,0.25,1.31
00:33:03.536:1,0.245,1.3
00:33:03.540:1,0.215,1.24
00:33:03.544:1,0.195,1.165
00:33:03.548:1,0.205,1.145
00:33:03.552:1,0.24,1.15
00:33:03.556:1,0.31,1.15
00:33:03.560:1,0.3,1.13
00:33:03.564:1,0.325,1.145
00:33:03.568:1,0.33,1.055
00:33:03.572:1,0.29,1.055
00:33:03.576:1,0.275,1.01
00:33:03.580:1,0.275,0.96
00:33:03.584:1,0.305,0.99
00:33:03.588:1,0.31,1.015
00:33:03.592:1,0.32,1.015
00:33:03.596:1,0.29,1.005
